#lamb flux
1010.0 0.00010762
1030.0 0.00010762
1050.0 0.00010762
1070.0 0.00010762
1090.0 0.00010762
1110.0 0.00010762
1130.0 0.00010762
1150.0 0.00010762
1170.0 0.00010762
1190.0 0.00010762
1210.0 0.00010762
1230.0 0.00010762
1250.0 0.00010762
1270.0 0.00010762
1290.0 0.00010762
1310.0 0.00010762
1330.0 0.00010762
1350.0 0.00010762
1370.0 0.00010762
1390.0 0.00010762
1410.0 0.00010762
1430.0 0.00010762
1450.0 0.00010762
1470.0 0.00010762
1490.0 0.00010762
1510.0 0.00010762
1530.0 0.00010773
1550.0 0.00012781
1570.0 0.00014988
1590.0 0.000174
1610.0 0.00019992
1630.0 0.0002277
1650.0 0.00025832
1670.0 0.00029162
1690.0 0.00032799
1710.0 0.00036818
1730.0 0.00041228
1750.0 0.00045978
1770.0 0.00051186
1790.0 0.00056871
1810.0 0.00062977
1830.0 0.00069521
1850.0 0.00076626
1870.0 0.00084151
1890.0 0.00092047
1910.0 0.0010038
1930.0 0.0010912
1950.0 0.0011805
1970.0 0.0012718
1990.0 0.0013655
2010.0 0.0014595
2030.0 0.0015521
2050.0 0.0016442
2070.0 0.0017348
2090.0 0.0018204
2110.0 0.0019017
2130.0 0.0019788
2150.0 0.0020496
2170.0 0.0021124
2190.0 0.0021694
2210.0 0.0022193
2230.0 0.0022603
2250.0 0.0022935
2270.0 0.0023206
2290.0 0.0023393
2310.0 0.0023496
2330.0 0.0023542
2350.0 0.0023531
2370.0 0.002345
2390.0 0.0023324
2410.0 0.0023173
2430.0 0.0022979
2450.0 0.0022754
2470.0 0.0022524
2490.0 0.0022298
2510.0 0.0022071
2530.0 0.0021907
2550.0 0.0021887
2570.0 0.0022083
2590.0 0.0022586
2610.0 0.0023642
2630.0 0.0025297
2650.0 0.002745
2670.0 0.0030171
2690.0 0.0033431
2710.0 0.0036845
2730.0 0.0040269
2750.0 0.0043905
2770.0 0.0047512
2790.0 0.0050979
2810.0 0.0054542
2830.0 0.0058399
2850.0 0.0062141
2870.0 0.0065982
2890.0 0.0070123
2910.0 0.0074425
2930.0 0.0078726
2950.0 0.0083373
2970.0 0.0088328
2990.0 0.0093362
3010.0 0.0098586
3030.0 0.01042
3050.0 0.011002
3070.0 0.01157
3090.0 0.012149
3110.0 0.012709
3130.0 0.013204
3150.0 0.013618
3170.0 0.013932
3190.0 0.014116
3210.0 0.01417
3230.0 0.014149
3250.0 0.014225
3270.0 0.014506
3290.0 0.014963
3310.0 0.015561
3330.0 0.016299
3350.0 0.017132
3370.0 0.018059
3390.0 0.019078
3410.0 0.020084
3430.0 0.021901
3450.0 0.023277
3470.0 0.024624
3490.0 0.025138
3510.0 0.024704
3530.0 0.027665
3550.0 0.033171
3570.0 0.036469
3590.0 0.038125
3610.0 0.038493
3630.0 0.037015
3650.0 0.039974
3670.0 0.047788
3690.0 0.053765
3710.0 0.056511
3730.0 0.058462
3750.0 0.061174
3770.0 0.061026
3790.0 0.05834
3810.0 0.054811
3830.0 0.050941
3850.0 0.050617
3870.0 0.0543
3890.0 0.058086
3910.0 0.060923
3930.0 0.062161
3950.0 0.066771
3970.0 0.071396
3990.0 0.068468
4010.0 0.060809
4030.0 0.053595
4050.0 0.051268
4070.0 0.053063
4090.0 0.053519
4110.0 0.052224
4130.0 0.051416
4150.0 0.052281
4170.0 0.057409
4190.0 0.062801
4210.0 0.061573
4230.0 0.057857
4250.0 0.056014
4270.0 0.055288
4290.0 0.056873
4310.0 0.058887
4330.0 0.056089
4350.0 0.049023
4370.0 0.043174
4390.0 0.039131
4410.0 0.035712
4430.0 0.035503
4450.0 0.03853
4470.0 0.041372
4490.0 0.045129
4510.0 0.051426
4530.0 0.064065
4550.0 0.079315
4570.0 0.088422
4590.0 0.094409
4610.0 0.10259
4630.0 0.10762
4650.0 0.10045
4670.0 0.083028
4690.0 0.069106
4710.0 0.063949
4730.0 0.06209
4750.0 0.056457
4770.0 0.051812
4790.0 0.054123
4810.0 0.058963
4830.0 0.059192
4850.0 0.055149
4870.0 0.053357
4890.0 0.056301
4910.0 0.059566
4930.0 0.059801
4950.0 0.057848
4970.0 0.054678
4990.0 0.049881
5010.0 0.045418
5030.0 0.042779
5050.0 0.041577
5070.0 0.040689
5090.0 0.03975
5110.0 0.039593
5130.0 0.040032
5150.0 0.042182
5170.0 0.046801
5190.0 0.052433
5210.0 0.058641
5230.0 0.062396
5250.0 0.064195
5270.0 0.067494
5290.0 0.071034
5310.0 0.072019
5330.0 0.069043
5350.0 0.065295
5370.0 0.065015
5390.0 0.069021
5410.0 0.073458
5430.0 0.075579
5450.0 0.075414
5470.0 0.073078
5490.0 0.06993
5510.0 0.068006
5530.0 0.067776
5550.0 0.068362
5570.0 0.068654
5590.0 0.066548
5610.0 0.062803
5630.0 0.058591
5650.0 0.054811
5670.0 0.052473
5690.0 0.050497
5710.0 0.049042
5730.0 0.049451
5750.0 0.049065
5770.0 0.04784
5790.0 0.047967
5810.0 0.048552
5830.0 0.049205
5850.0 0.049408
5870.0 0.048267
5890.0 0.046015
5910.0 0.043252
5930.0 0.039263
5950.0 0.036246
5970.0 0.035735
5990.0 0.036844
6010.0 0.037447
6030.0 0.036161
6050.0 0.035288
6070.0 0.036639
6090.0 0.038965
6110.0 0.040167
6130.0 0.039017
6150.0 0.036767
6170.0 0.035189
6190.0 0.033603
6210.0 0.031724
6230.0 0.03008
6250.0 0.029429
6270.0 0.030178
6290.0 0.031519
6310.0 0.033389
6330.0 0.0357
6350.0 0.037912
6370.0 0.039062
6390.0 0.039274
6410.0 0.039641
6430.0 0.040051
6450.0 0.040316
6470.0 0.040995
6490.0 0.041759
6510.0 0.042136
6530.0 0.041882
6550.0 0.040901
6570.0 0.03941
6590.0 0.037944
6610.0 0.036896
6630.0 0.036155
6650.0 0.034967
6670.0 0.033436
6690.0 0.03222
6710.0 0.03152
6730.0 0.031284
6750.0 0.030856
6770.0 0.030217
6790.0 0.029737
6810.0 0.029269
6830.0 0.029085
6850.0 0.029344
6870.0 0.029364
6890.0 0.029118
6910.0 0.028466
6930.0 0.027804
6950.0 0.027478
6970.0 0.02678
6990.0 0.02583
7010.0 0.02542
7030.0 0.025161
7050.0 0.024524
7070.0 0.02367
7090.0 0.023199
7110.0 0.023572
7130.0 0.024753
7150.0 0.026091
7170.0 0.026951
7190.0 0.026718
7210.0 0.025927
7230.0 0.025438
7250.0 0.025203
7270.0 0.025083
7290.0 0.024823
7310.0 0.024822
7330.0 0.025403
7350.0 0.02615
7370.0 0.026594
7390.0 0.026401
7410.0 0.02574
7430.0 0.025204
7450.0 0.024637
7470.0 0.02339
7490.0 0.022548
7510.0 0.021746
7530.0 0.021222
7550.0 0.021321
7570.0 0.021615
7590.0 0.021665
7610.0 0.021551
7630.0 0.021502
7650.0 0.021533
7670.0 0.022032
7690.0 0.0228
7710.0 0.023766
7730.0 0.024471
7750.0 0.025263
7770.0 0.025738
7790.0 0.025872
7810.0 0.025727
7830.0 0.025948
7850.0 0.025797
7870.0 0.024857
7890.0 0.023873
7910.0 0.023149
7930.0 0.022494
7950.0 0.02198
7970.0 0.021854
7990.0 0.022118
8010.0 0.021632
8030.0 0.021423
8050.0 0.021124
8070.0 0.020768
8090.0 0.0204
8110.0 0.020439
8130.0 0.020608
8150.0 0.020581
8170.0 0.020464
8190.0 0.020013
8210.0 0.018946
8230.0 0.017692
8250.0 0.016949
8270.0 0.016445
8290.0 0.016048
8310.0 0.016001
8330.0 0.016161
8350.0 0.015807
8370.0 0.015514
8390.0 0.015909
8410.0 0.016765
8430.0 0.017939
8450.0 0.019121
8470.0 0.019714
8490.0 0.020211
8510.0 0.020487
8530.0 0.020777
8550.0 0.021132
8570.0 0.021351
8590.0 0.021564
8610.0 0.022182
8630.0 0.022461
8650.0 0.022037
8670.0 0.022071
8690.0 0.022354
8710.0 0.022522
8730.0 0.022416
8750.0 0.021857
8770.0 0.021633
8790.0 0.021532
8810.0 0.021265
8830.0 0.019991
8850.0 0.018344
8870.0 0.017161
8890.0 0.016529
8910.0 0.015617
8930.0 0.014551
8950.0 0.013944
8970.0 0.013876
8990.0 0.014
9010.0 0.01397
9030.0 0.013871
9050.0 0.013779
9070.0 0.013696
9090.0 0.013616
9110.0 0.013537
9130.0 0.013457
9150.0 0.013378
9170.0 0.0133
9190.0 0.013221
9210.0 0.013142
9230.0 0.013065
9250.0 0.012988
9270.0 0.012912
9290.0 0.012835
9310.0 0.012759
9330.0 0.012684
9350.0 0.012609
9370.0 0.012534
9390.0 0.012459
9410.0 0.012385
9430.0 0.012311
9450.0 0.012233
9470.0 0.012157
9490.0 0.012089
9510.0 0.012019
9530.0 0.011949
9550.0 0.011878
9570.0 0.011807
9590.0 0.011737
9610.0 0.011667
9630.0 0.011598
9650.0 0.011528
9670.0 0.01146
9690.0 0.011391
9710.0 0.011323
9730.0 0.011255
9750.0 0.011188
9770.0 0.01112
9790.0 0.011053
9810.0 0.010987
9830.0 0.010919
9850.0 0.010846
9870.0 0.010783
9890.0 0.01072
9910.0 0.010656
9930.0 0.010591
9950.0 0.010529
9970.0 0.010464
9990.0 0.010399
10010.0 0.010326
10030.0 0.010259
10050.0 0.0102
10070.0 0.01014
10090.0 0.01008
10110.0 0.010014
10130.0 0.0099319
10150.0 0.0098729
10170.0 0.0098176
10190.0 0.0097576
10210.0 0.0096987
10230.0 0.0096395
10250.0 0.0095767
10270.0 0.009514
10290.0 0.0094536
10310.0 0.0093906
10330.0 0.0093255
10350.0 0.0092636
10370.0 0.0092019
10390.0 0.0091376
10410.0 0.0090738
10430.0 0.0090131
10450.0 0.0089497
10470.0 0.0088851
10490.0 0.0088226
10510.0 0.0087605
10530.0 0.0086941
10550.0 0.0086296
10570.0 0.0085674
10590.0 0.0085029
10610.0 0.0084371
10630.0 0.008374
10650.0 0.0083104
10670.0 0.0082433
10690.0 0.0081778
10710.0 0.0081138
10730.0 0.0080474
10750.0 0.0079785
10770.0 0.0079141
10790.0 0.0078485
10810.0 0.0077802
10830.0 0.0077132
10850.0 0.0076483
10870.0 0.0075789
10890.0 0.0075096
10910.0 0.0074433
10930.0 0.0073766
10950.0 0.007308
10970.0 0.0072421
10990.0 0.0071798
11010.0 0.0071779
11030.0 0.0071172
11050.0 0.0070596
11070.0 0.0070022
11090.0 0.0069421
11110.0 0.0068856
11130.0 0.0068305
11150.0 0.0067745
11170.0 0.0067197
11190.0 0.006669
11210.0 0.0066192
11230.0 0.0065706
11250.0 0.0065263
11270.0 0.0064853
11290.0 0.0064456
11310.0 0.0064088
11330.0 0.0063764
11350.0 0.0063454
11370.0 0.0063157
11390.0 0.0062883
11410.0 0.0062622
11430.0 0.0062352
11450.0 0.0062086
11470.0 0.0061822
11490.0 0.0061542
11510.0 0.0061239
11530.0 0.0060928
11550.0 0.0060598
11570.0 0.006023
11590.0 0.0059837
11610.0 0.0059426
11630.0 0.0058971
11650.0 0.0058471
11670.0 0.0057961
11690.0 0.0057422
11710.0 0.0056835
11730.0 0.0056226
11750.0 0.0055616
11770.0 0.0054962
11790.0 0.0054281
11810.0 0.0053604
11830.0 0.0052916
11850.0 0.0052184
11870.0 0.0051466
11890.0 0.0050769
11910.0 0.0050054
11930.0 0.0049338
11950.0 0.0048658
11970.0 0.0047986
11990.0 0.0047305
12010.0 0.0046662
12030.0 0.0046053
12050.0 0.0045451
12070.0 0.0044864
12090.0 0.0044335
12110.0 0.0043826
12130.0 0.0043334
12150.0 0.0042883
12170.0 0.0042475
12190.0 0.004208
12210.0 0.0041728
12230.0 0.0041424
12250.0 0.0041156
12270.0 0.0040924
12290.0 0.0040738
12310.0 0.0040594
12330.0 0.0040483
12350.0 0.0040409
12370.0 0.0040365
12390.0 0.0040347
12410.0 0.0040356
12430.0 0.0040378
12450.0 0.0040409
12470.0 0.0040449
12490.0 0.004049
12510.0 0.0040521
12530.0 0.0040546
12550.0 0.0040559
12570.0 0.004055
12590.0 0.0040518
12610.0 0.004046
12630.0 0.0040371
12650.0 0.0040251
12670.0 0.0040096
12690.0 0.0039904
12710.0 0.003968
12730.0 0.0039426
12750.0 0.0039128
12770.0 0.0038805
12790.0 0.0038463
12810.0 0.0038093
12830.0 0.0037696
12850.0 0.0037301
12870.0 0.0036898
12890.0 0.0036477
12910.0 0.0036059
12930.0 0.0035652
12950.0 0.0035236
12970.0 0.0034818
12990.0 0.0034424
13010.0 0.0034036
13030.0 0.0033646
13050.0 0.0033269
13070.0 0.0032913
13090.0 0.0032554
13110.0 0.0032204
13130.0 0.0031874
13150.0 0.0031554
13170.0 0.0031235
13190.0 0.0030938
13210.0 0.0030661
13230.0 0.0030392
13250.0 0.0030135
13270.0 0.0029899
13290.0 0.0029673
13310.0 0.0029452
13330.0 0.0029245
13350.0 0.0029049
13370.0 0.0028853
13390.0 0.0028657
13410.0 0.0028471
13430.0 0.002828
13450.0 0.0028083
13470.0 0.0027884
13490.0 0.0027685
13510.0 0.0027469
13530.0 0.0027248
13550.0 0.0027027
13570.0 0.0026797
13590.0 0.0026557
13610.0 0.0026317
13630.0 0.0026079
13650.0 0.002583
13670.0 0.0025579
13690.0 0.0025336
13710.0 0.0025088
13730.0 0.0024831
13750.0 0.0024587
13770.0 0.0024345
13790.0 0.0024097
13810.0 0.0023852
13830.0 0.0023617
13850.0 0.0023377
13870.0 0.0023133
13890.0 0.0022899
13910.0 0.002267
13930.0 0.0022434
13950.0 0.0022203
13970.0 0.0021986
13990.0 0.0021766
14010.0 0.0021546
14030.0 0.0021337
14050.0 0.0021133
14070.0 0.0020922
14090.0 0.0020719
14110.0 0.0020526
14130.0 0.0020331
14150.0 0.0020136
14170.0 0.0019954
14190.0 0.0019777
14210.0 0.0019599
14230.0 0.001943
14250.0 0.0019273
14270.0 0.0019116
14290.0 0.0018964
14310.0 0.0018827
14330.0 0.0018697
14350.0 0.0018571
14370.0 0.0018455
14390.0 0.0018349
14410.0 0.0018245
14430.0 0.0018147
14450.0 0.0018057
14470.0 0.0017971
14490.0 0.0017884
14510.0 0.0017804
14530.0 0.0017729
14550.0 0.0017652
14570.0 0.0017575
14590.0 0.0017503
14610.0 0.0017428
14630.0 0.001735
14650.0 0.0017275
14670.0 0.0017201
14690.0 0.0017126
14710.0 0.0017053
14730.0 0.0016991
14750.0 0.0016934
14770.0 0.0016888
14790.0 0.0016857
14810.0 0.0016845
14830.0 0.0016852
14850.0 0.0016884
14870.0 0.0016941
14890.0 0.0017022
14910.0 0.0017128
14930.0 0.0017249
14950.0 0.0017376
14970.0 0.0017509
14990.0 0.0017633
15010.0 0.0017739
15030.0 0.0017828
15050.0 0.0017899
15070.0 0.001795
15090.0 0.0017988
15110.0 0.0018017
15130.0 0.001804
15150.0 0.001806
15170.0 0.0018079
15190.0 0.0018098
15210.0 0.0018117
15230.0 0.0018137
15250.0 0.0018157
15270.0 0.0018177
15290.0 0.0018199
15310.0 0.0018222
15330.0 0.0018244
15350.0 0.0018268
15370.0 0.0018292
15390.0 0.0018316
15410.0 0.0018342
15430.0 0.0018368
15450.0 0.0018394
15470.0 0.0018421
15490.0 0.0018449
15510.0 0.0018477
15530.0 0.0018506
15550.0 0.0018535
15570.0 0.0018565
15590.0 0.0018595
15610.0 0.0018626
15630.0 0.0018658
15650.0 0.001869
15670.0 0.0018722
15690.0 0.0018754
15710.0 0.0018788
15730.0 0.0018822
15750.0 0.0018856
15770.0 0.0018891
15790.0 0.0018926
15810.0 0.0018961
15830.0 0.0018997
15850.0 0.0019033
15870.0 0.001907
15890.0 0.0019106
15910.0 0.0019144
15930.0 0.0019182
15950.0 0.001922
15970.0 0.0019258
15990.0 0.0019297
16010.0 0.0019336
16030.0 0.0019375
16050.0 0.0019415
16070.0 0.0019455
16090.0 0.0019494
16110.0 0.0019535
16130.0 0.0019576
16150.0 0.0019616
16170.0 0.0019656
16190.0 0.0019698
16210.0 0.0019739
16230.0 0.001978
16250.0 0.0019822
16270.0 0.0019864
16290.0 0.0019906
16310.0 0.0019947
16330.0 0.001999
16350.0 0.0020032
16370.0 0.0020073
16390.0 0.0020116
16410.0 0.0020158
16430.0 0.00202
16450.0 0.0020243
16470.0 0.0020285
16490.0 0.0020328
16510.0 0.0020369
16530.0 0.0020412
16550.0 0.0020454
16570.0 0.0020496
16590.0 0.0020537
16610.0 0.002058
16630.0 0.0020621
16650.0 0.0020663
16670.0 0.0020704
16690.0 0.0020746
16710.0 0.0020786
16730.0 0.0020827
16750.0 0.0020868
16770.0 0.0020909
16790.0 0.0020948
16810.0 0.0020989
16830.0 0.0021029
16850.0 0.0021067
16870.0 0.0021107
16890.0 0.0021146
16910.0 0.0021184
16930.0 0.0021221
16950.0 0.0021259
16970.0 0.0021297
16990.0 0.0021333
17010.0 0.002137
17030.0 0.0021407
17050.0 0.0021442
17070.0 0.0021477
17090.0 0.0021512
17110.0 0.0021546
17130.0 0.0021579
17150.0 0.0021612
17170.0 0.0021645
17190.0 0.0021677
17210.0 0.0021709
17230.0 0.002174
17250.0 0.002177
17270.0 0.00218
17290.0 0.0021829
17310.0 0.0021858
17330.0 0.0021885
17350.0 0.0021912
17370.0 0.0021939
17390.0 0.0021965
17410.0 0.0021989
17430.0 0.0022014
17450.0 0.0022038
17470.0 0.002206
17490.0 0.0022082
17510.0 0.0022104
17530.0 0.0022124
17550.0 0.0022143
17570.0 0.0022163
17590.0 0.0022181
17610.0 0.0022198
17630.0 0.0022214
17650.0 0.002223
17670.0 0.0022244
17690.0 0.0022257
17710.0 0.002227
17730.0 0.0022283
17750.0 0.0022293
17770.0 0.0022303
17790.0 0.0022313
17810.0 0.002232
17830.0 0.0022327
17850.0 0.0022333
17870.0 0.0022339
17890.0 0.0022342
17910.0 0.0022345
17930.0 0.0022348
17950.0 0.0022349
17970.0 0.0022348
17990.0 0.0022348
18010.0 0.0022346
18030.0 0.0022342
18050.0 0.0022338
18070.0 0.0022333
18090.0 0.0022326
18110.0 0.0022318
18130.0 0.002231
18150.0 0.00223
18170.0 0.0022289
18190.0 0.0022277
18210.0 0.0022264
18230.0 0.002225
18250.0 0.0022234
18270.0 0.0022218
18290.0 0.00222
18310.0 0.0022181
18330.0 0.0022161
18350.0 0.0022141
18370.0 0.0022118
18390.0 0.0022094
18410.0 0.002207
18430.0 0.0022044
18450.0 0.0022017
18470.0 0.0021989
18490.0 0.002196
18510.0 0.0021929
18530.0 0.0021898
18550.0 0.0021866
18570.0 0.0021832
18590.0 0.0021796
18610.0 0.002176
18630.0 0.0021723
18650.0 0.0021684
18670.0 0.0021644
18690.0 0.0021604
18710.0 0.0021562
18730.0 0.0021518
18750.0 0.0021474
18770.0 0.0021429
18790.0 0.0021382
18810.0 0.0021334
18830.0 0.0021286
18850.0 0.0021236
18870.0 0.0021184
18890.0 0.0021133
18910.0 0.002108
18930.0 0.0021025
18950.0 0.002097
18970.0 0.0020914
18990.0 0.0020856
19010.0 0.0020797
19030.0 0.0020738
19050.0 0.0020677
19070.0 0.0020615
19090.0 0.0020552
19110.0 0.0020489
19130.0 0.0020424
19150.0 0.0020358
19170.0 0.0020292
19190.0 0.0020224
19210.0 0.0020155
19230.0 0.0020085
19250.0 0.0020015
19270.0 0.0019944
19290.0 0.0019871
19310.0 0.0019798
19330.0 0.0019724
19350.0 0.0019648
19370.0 0.0019572
19390.0 0.0019496
19410.0 0.0019418
19430.0 0.0019339
19450.0 0.0019261
19470.0 0.0019181
19490.0 0.00191
19510.0 0.0019018
19530.0 0.0018936
19550.0 0.0018853
19570.0 0.0018768
19590.0 0.0018684
19610.0 0.0018599
19630.0 0.0018513
19650.0 0.0018426
19670.0 0.0018339
19690.0 0.0018251
19710.0 0.0018162
19730.0 0.0018073
19750.0 0.0017984
19770.0 0.0017893
19790.0 0.0017802
19810.0 0.0017711
19830.0 0.0017618
19850.0 0.0017525
19870.0 0.001743
19890.0 0.0017332
19910.0 0.0017228
19930.0 0.0017118
19950.0 0.0016997
19970.0 0.0016858
19990.0 0.0016699
20010.0 0.0016523
20030.0 0.0016322
20050.0 0.0016096
20070.0 0.0015858
20090.0 0.0015608
20110.0 0.0015338
20130.0 0.0015068
20150.0 0.0014803
20170.0 0.0014533
20190.0 0.0014263
20210.0 0.0014006
20230.0 0.0013753
20250.0 0.0013499
20270.0 0.0013257
20290.0 0.0013027
20310.0 0.00128
20330.0 0.0012578
20350.0 0.0012376
20370.0 0.0012181
20390.0 0.0011993
20410.0 0.0011817
20430.0 0.0011655
20450.0 0.0011497
20470.0 0.001135
20490.0 0.0011215
20510.0 0.0011089
20530.0 0.001097
20550.0 0.0010861
20570.0 0.001076
20590.0 0.0010666
20610.0 0.0010578
20630.0 0.0010496
20650.0 0.001042
20670.0 0.0010347
20690.0 0.0010278
20710.0 0.0010212
20730.0 0.0010147
20750.0 0.0010084
20770.0 0.0010021
20790.0 0.00099567
20810.0 0.00098914
20830.0 0.00098241
20850.0 0.00097543
20870.0 0.00096809
20890.0 0.00096037
20910.0 0.00095231
20930.0 0.00094381
20950.0 0.0009348
20970.0 0.00092543
20990.0 0.0009157
21010.0 0.00090537
21030.0 0.00089467
21050.0 0.00088376
21070.0 0.00087244
21090.0 0.00086063
21110.0 0.00084886
21130.0 0.00083696
21150.0 0.00082471
21170.0 0.00081242
21190.0 0.00080033
21210.0 0.00078801
21230.0 0.00077562
21250.0 0.00076359
21270.0 0.00075171
21290.0 0.0007398
21310.0 0.00072815
21330.0 0.00071698
21350.0 0.00070586
21370.0 0.00069493
21390.0 0.00068445
21410.0 0.00067427
21430.0 0.0006641
21450.0 0.0006544
21470.0 0.0006451
21490.0 0.00063596
21510.0 0.00062705
21530.0 0.00061854
21550.0 0.00061026
21570.0 0.00060208
21590.0 0.00059421
21610.0 0.00058661
21630.0 0.00057912
21650.0 0.00057174
21670.0 0.00056469
21690.0 0.00055774
21710.0 0.00055085
21730.0 0.00054412
21750.0 0.00053755
21770.0 0.00053094
21790.0 0.00052441
21810.0 0.000518
21830.0 0.00051161
21850.0 0.00050517
21870.0 0.00049879
21890.0 0.00049248
21910.0 0.00048607
21930.0 0.00047965
21950.0 0.00047328
21970.0 0.00046686
21990.0 0.00046031
22010.0 0.00045384
22030.0 0.00044739
22050.0 0.00044085
22070.0 0.0004343
22090.0 0.00042786
22110.0 0.00042137
22130.0 0.00041482
22150.0 0.00040838
22170.0 0.00040201
22190.0 0.00039556
22210.0 0.00038916
22230.0 0.00038295
22250.0 0.00037672
22270.0 0.0003705
22290.0 0.00036442
22310.0 0.00035844
22330.0 0.00035237
22350.0 0.00034642
22370.0 0.00034059
22390.0 0.00033476
22410.0 0.00032889
22430.0 0.0003232
22450.0 0.00031756
22470.0 0.00031187
22490.0 0.00030625
22510.0 0.00030074
22530.0 0.00029517
22550.0 0.0002896
22570.0 0.00028417
22590.0 0.0002788
22610.0 0.00027339
22630.0 0.00026808
22650.0 0.00026294
22670.0 0.00025779
22690.0 0.00025271
22710.0 0.00024782
22730.0 0.00024304
22750.0 0.00023826
22770.0 0.0002337
22790.0 0.00022934
22810.0 0.00022508
22830.0 0.00022096
22850.0 0.00021707
22870.0 0.00021333
22890.0 0.00020973
22910.0 0.00020635
22930.0 0.00020318
22950.0 0.00020017
22970.0 0.00019735
22990.0 0.00019475
23010.0 0.00019231
23030.0 0.00019004
23050.0 0.00018792
23070.0 0.00018593
23090.0 0.00018405
23110.0 0.00018225
23130.0 0.00018049
23150.0 0.00017875
23170.0 0.00017702
23190.0 0.00017523
23210.0 0.00017339
23230.0 0.00017149
23250.0 0.0001695
23270.0 0.00016741
23290.0 0.00016523
23310.0 0.00016293
23330.0 0.00016053
23350.0 0.00015804
23370.0 0.00015545
23390.0 0.00015277
23410.0 0.00015005
23430.0 0.00014725
23450.0 0.00014436
23470.0 0.00014145
23490.0 0.00013854
23510.0 0.00013559
23530.0 0.00013265
23550.0 0.0001298
23570.0 0.00012697
23590.0 0.0001242
23610.0 0.00012155
23630.0 0.00011902
23650.0 0.00011662
23670.0 0.00011441
23690.0 0.00011242
23710.0 0.00011066
23730.0 0.0001092
23750.0 0.00010801
23770.0 0.00010762
23790.0 0.00010762
23810.0 0.00010762
23830.0 0.00010762
23850.0 0.00010762
23870.0 0.00010762
23890.0 0.00010805
23910.0 0.00010896
23930.0 0.00011009
23950.0 0.00011123
23970.0 0.00011228
23990.0 0.00011343
