#lamb flux
1010.0 3.9135e-07
1030.0 4.2902e-07
1050.0 4.7236e-07
1070.0 5.2114e-07
1090.0 5.7655e-07
1110.0 6.3338e-07
1130.0 6.9058e-07
1150.0 7.505e-07
1170.0 8.1231e-07
1190.0 8.7091e-07
1210.0 9.3031e-07
1230.0 9.9169e-07
1250.0 1.0518e-06
1270.0 1.1102e-06
1290.0 1.1719e-06
1310.0 1.2336e-06
1330.0 1.2927e-06
1350.0 1.3525e-06
1370.0 1.4142e-06
1390.0 1.4744e-06
1410.0 1.5328e-06
1430.0 1.5938e-06
1450.0 1.6549e-06
1470.0 1.7138e-06
1490.0 1.7734e-06
1510.0 1.8364e-06
1530.0 1.896e-06
1550.0 1.9548e-06
1570.0 2.0156e-06
1590.0 2.0765e-06
1610.0 2.1346e-06
1630.0 2.1945e-06
1650.0 2.2559e-06
1670.0 2.3153e-06
1690.0 2.3738e-06
1710.0 2.4346e-06
1730.0 2.4956e-06
1750.0 2.5529e-06
1770.0 2.6118e-06
1790.0 2.6718e-06
1810.0 2.7296e-06
1830.0 2.7863e-06
1850.0 2.8464e-06
1870.0 2.9047e-06
1890.0 2.9606e-06
1910.0 3.0175e-06
1930.0 3.0755e-06
1950.0 3.1303e-06
1970.0 3.184e-06
1990.0 3.2394e-06
2010.0 3.2933e-06
2030.0 3.3445e-06
2050.0 3.3968e-06
2070.0 3.4497e-06
2090.0 3.4985e-06
2110.0 3.5462e-06
2130.0 3.5946e-06
2150.0 3.6409e-06
2170.0 3.6836e-06
2190.0 3.7271e-06
2210.0 3.7696e-06
2230.0 3.8084e-06
2250.0 3.8456e-06
2270.0 3.8836e-06
2290.0 3.9182e-06
2310.0 3.9491e-06
2330.0 3.9802e-06
2350.0 4.0109e-06
2370.0 4.0394e-06
2390.0 4.0705e-06
2410.0 4.1103e-06
2430.0 4.1582e-06
2450.0 4.2191e-06
2470.0 4.3039e-06
2490.0 4.4171e-06
2510.0 4.5487e-06
2530.0 4.7138e-06
2550.0 4.9303e-06
2570.0 5.2092e-06
2590.0 5.5811e-06
2610.0 6.1489e-06
2630.0 6.9557e-06
2650.0 7.9907e-06
2670.0 9.3006e-06
2690.0 1.087e-05
2710.0 1.249e-05
2730.0 1.403e-05
2750.0 1.5489e-05
2770.0 1.6687e-05
2790.0 1.7561e-05
2810.0 1.8182e-05
2830.0 1.8597e-05
2850.0 1.8795e-05
2870.0 1.887e-05
2890.0 1.8877e-05
2910.0 1.8833e-05
2930.0 1.8758e-05
2950.0 1.8677e-05
2970.0 1.8596e-05
2990.0 1.8512e-05
3010.0 0.00059057
3030.0 0.00058815
3050.0 0.00058577
3070.0 0.00058304
3090.0 0.00058002
3110.0 0.00057608
3130.0 0.00057052
3150.0 0.00056281
3170.0 0.00055185
3190.0 0.00053784
3210.0 0.00052169
3230.0 0.00050406
3250.0 0.00048606
3270.0 0.00047256
3290.0 0.00046227
3310.0 0.00045988
3330.0 0.00046277
3350.0 0.00047082
3370.0 0.00048397
3390.0 0.00050154
3410.0 0.00052124
3430.0 0.00054379
3450.0 0.00057008
3470.0 0.00059913
3490.0 0.00063038
3510.0 0.00066603
3530.0 0.00070502
3550.0 0.00074688
3570.0 0.00079312
3590.0 0.00084479
3610.0 0.00090243
3630.0 0.00095974
3650.0 0.0010205
3670.0 0.0010753
3690.0 0.0011159
3710.0 0.0011363
3730.0 0.001124
3750.0 0.00108
3770.0 0.0011048
3790.0 0.0010793
3810.0 0.00083209
3830.0 0.00079935
3850.0 0.0011782
3870.0 0.001137
3890.0 0.0008603
3910.0 0.00083627
3930.0 0.0010679
3950.0 0.0012779
3970.0 0.0014526
3990.0 0.00099921
4010.0 0.0018697
4030.0 0.0018037
4050.0 0.0019031
4070.0 0.0021581
4090.0 0.0020444
4110.0 0.001803
4130.0 0.0022226
4150.0 0.0029799
4170.0 0.0023586
4190.0 0.0020798
4210.0 0.0023459
4230.0 0.0029107
4250.0 0.0034805
4270.0 0.0037845
4290.0 0.0033612
4310.0 0.0031038
4330.0 0.0030716
4350.0 0.0039392
4370.0 0.0047947
4390.0 0.0038044
4410.0 0.0021153
4430.0 0.0014935
4450.0 0.0013954
4470.0 0.00086066
4490.0 0.001525
4510.0 0.003289
4530.0 0.0040134
4550.0 0.0037826
4570.0 0.0033833
4590.0 0.0036196
4610.0 0.0072044
4630.0 0.010115
4650.0 0.0095326
4670.0 0.0083726
4690.0 0.00861
4710.0 0.0090138
4730.0 0.0073399
4750.0 0.0047212
4770.0 0.0032353
4790.0 0.0036218
4810.0 0.0038197
4830.0 0.0037865
4850.0 0.0041148
4870.0 0.0054519
4890.0 0.0063168
4910.0 0.0048831
4930.0 0.0047461
4950.0 0.0054785
4970.0 0.0073208
4990.0 0.0098784
5010.0 0.011402
5030.0 0.009063
5050.0 0.0055024
5070.0 0.0039233
5090.0 0.002987
5110.0 0.0027855
5130.0 0.0033437
5150.0 0.0032158
5170.0 0.0030149
5190.0 0.0026765
5210.0 0.0029808
5230.0 0.0037407
5250.0 0.004382
5270.0 0.0040292
5290.0 0.0043495
5310.0 0.0058837
5330.0 0.0062809
5350.0 0.006185
5370.0 0.0069869
5390.0 0.0087381
5410.0 0.0074238
5430.0 0.0056301
5450.0 0.0057079
5470.0 0.0066902
5490.0 0.0084111
5510.0 0.010251
5530.0 0.01189
5550.0 0.010694
5570.0 0.0095693
5590.0 0.0078361
5610.0 0.0079987
5630.0 0.0090461
5650.0 0.00835
5670.0 0.0076791
5690.0 0.0061742
5710.0 0.0063645
5730.0 0.0062084
5750.0 0.0033017
5770.0 0.0023554
5790.0 0.0029457
5810.0 0.0031093
5830.0 0.0049118
5850.0 0.0064349
5870.0 0.0068782
5890.0 0.0065166
5910.0 0.0063264
5930.0 0.0061077
5950.0 0.0063161
5970.0 0.0078745
5990.0 0.0064195
6010.0 0.0049063
6030.0 0.0039855
6050.0 0.0035611
6070.0 0.0043041
6090.0 0.0048683
6110.0 0.0049365
6130.0 0.0045022
6150.0 0.0035226
6170.0 0.0027469
6190.0 0.0034008
6210.0 0.0054405
6230.0 0.0080483
6250.0 0.0086313
6270.0 0.0065428
6290.0 0.0056044
6310.0 0.0042703
6330.0 0.0031034
6350.0 0.0030709
6370.0 0.0032253
6390.0 0.0038808
6410.0 0.0050236
6430.0 0.0060619
6450.0 0.0074841
6470.0 0.007885
6490.0 0.0094619
6510.0 0.010621
6530.0 0.010822
6550.0 0.0099741
6570.0 0.0080402
6590.0 0.0077222
6610.0 0.006384
6630.0 0.006684
6650.0 0.0064841
6670.0 0.0056604
6690.0 0.0043777
6710.0 0.0042885
6730.0 0.0018503
6750.0 0.0025151
6770.0 0.0040142
6790.0 0.005363
6810.0 0.0037921
6830.0 0.0038714
6850.0 0.0032135
6870.0 0.0030285
6890.0 0.0025407
6910.0 0.0030897
6930.0 0.0029053
6950.0 0.0035153
6970.0 0.0036274
6990.0 0.0040163
7010.0 0.0038964
7030.0 0.0044541
7050.0 0.0038292
7070.0 0.0031756
7090.0 0.0034022
7110.0 0.0035863
7130.0 0.0041342
7150.0 0.0047175
7170.0 0.005284
7190.0 0.005592
7210.0 0.0049297
7230.0 0.0049809
7250.0 0.0053634
7270.0 0.0057895
7290.0 0.0071123
7310.0 0.0074383
7330.0 0.0068836
7350.0 0.0061495
7370.0 0.0044901
7390.0 0.0046884
7410.0 0.0058416
7430.0 0.0066628
7450.0 0.0071668
7470.0 0.0065521
7490.0 0.0052864
7510.0 0.0087505
7530.0 0.0078722
7550.0 0.0073996
7570.0 0.0049537
7590.0 0.0020891
7610.0 0.001432
7630.0 0.0022631
7650.0 0.003085
7670.0 0.0050236
7690.0 0.0056227
7710.0 0.0050108
7730.0 0.0049234
7750.0 0.0065428
7770.0 0.0067194
7790.0 0.0061574
7810.0 0.0049466
7830.0 0.0053652
7850.0 0.0059254
7870.0 0.0058261
7890.0 0.0045391
7910.0 0.0029927
7930.0 0.0031063
7950.0 0.0027987
7970.0 0.0023389
7990.0 0.0020922
8010.0 0.0014228
8030.0 0.0013155
8050.0 0.0014174
8070.0 0.0015743
8090.0 0.0018915
8110.0 0.0017714
8130.0 0.0010886
8150.0 0.0011116
8170.0 0.00065817
8190.0 0.00043108
8210.0 0.00099302
8230.0 0.0011867
8250.0 0.00051292
8270.0 0.00041107
8290.0 0.00071238
8310.0 0.00061161
8330.0 0.00037431
8350.0 0.00030098
8370.0 8.5331e-05
8390.0 0.00032416
8410.0 0.0003797
8430.0 0.00047279
8450.0 0.00053104
8470.0 0.00086694
8490.0 0.00071007
8510.0 0.00055368
8530.0 0.00029032
8550.0 0.00095955
8570.0 0.0014882
8590.0 0.0010582
8610.0 0.0015715
8630.0 0.0017087
8650.0 0.000947
8670.0 0.0013668
8690.0 0.0020962
8710.0 0.0018088
8730.0 0.0019438
8750.0 0.0015386
8770.0 0.0013736
8790.0 0.0015218
8810.0 0.0016423
8830.0 0.00092791
8850.0 0.00042439
8870.0 0.00030758
8890.0 0.00071752
8910.0 0.0011172
8930.0 0.0014646
8950.0 0.0016463
8970.0 0.0015905
8990.0 0.0012113
9010.0 0.00095726
9030.0 0.00073252
9050.0 0.00076372
9070.0 0.00079512
9090.0 0.0008204
9110.0 0.00085061
9130.0 0.00087245
9150.0 0.00088811
9170.0 0.00090478
9190.0 0.00092261
9210.0 0.00094133
9230.0 0.00096113
9250.0 0.00098115
9270.0 0.0010018
9290.0 0.0010231
9310.0 0.0010443
9330.0 0.0010658
9350.0 0.0010881
9370.0 0.0011105
9390.0 0.001133
9410.0 0.001156
9430.0 0.0011797
9450.0 0.0012032
9470.0 0.0012271
9490.0 0.0012517
9510.0 0.0012764
9530.0 0.0013012
9550.0 0.0013268
9570.0 0.0013528
9590.0 0.0013788
9610.0 0.0014052
9630.0 0.0014322
9650.0 0.0014595
9670.0 0.0014867
9690.0 0.0015147
9710.0 0.001543
9730.0 0.0015714
9750.0 0.0016001
9770.0 0.0016298
9790.0 0.0016593
9810.0 0.0016889
9830.0 0.0017192
9850.0 0.0017498
9870.0 0.0017803
9890.0 0.0018113
9910.0 0.0018428
9930.0 0.0018744
9950.0 0.001906
9970.0 0.0019383
9990.0 0.0019709
10010.0 0.0017752
10030.0 0.0018039
10050.0 0.001833
10070.0 0.0018617
10090.0 0.0018908
10110.0 0.0019205
10130.0 0.0019501
10150.0 0.0019796
10170.0 0.0020093
10190.0 0.0020393
10210.0 0.002069
10230.0 0.0020986
10250.0 0.0021285
10270.0 0.0021584
10290.0 0.002188
10310.0 0.0022178
10330.0 0.0022478
10350.0 0.0022773
10370.0 0.0023067
10390.0 0.0023364
10410.0 0.0023658
10430.0 0.0023947
10450.0 0.0024237
10470.0 0.0024527
10490.0 0.0024812
10510.0 0.0025094
10530.0 0.0025379
10550.0 0.0025659
10570.0 0.0025933
10590.0 0.0026207
10610.0 0.0026479
10630.0 0.0026743
10650.0 0.0027005
10670.0 0.0027268
10690.0 0.0027524
10710.0 0.0027774
10730.0 0.0028022
10750.0 0.002827
10770.0 0.0028506
10790.0 0.0028739
10810.0 0.002897
10830.0 0.0029193
10850.0 0.0029404
10870.0 0.002961
10890.0 0.0029794
10910.0 0.0029945
10930.0 0.003005
10950.0 0.0030083
10970.0 0.003002
10990.0 0.0029852
11010.0 0.0030283
11030.0 0.0029826
11050.0 0.0029252
11070.0 0.0028555
11090.0 0.0027711
11110.0 0.0026834
11130.0 0.0025918
11150.0 0.0024934
11170.0 0.0023924
11190.0 0.0022948
11210.0 0.0021947
11230.0 0.0020928
11250.0 0.001996
11270.0 0.0019036
11290.0 0.0018117
11310.0 0.0017249
11330.0 0.0016485
11350.0 0.0015764
11370.0 0.0015095
11390.0 0.0014512
11410.0 0.0013995
11430.0 0.0013508
11450.0 0.0013079
11470.0 0.0012698
11490.0 0.0012335
11510.0 0.0011979
11530.0 0.0011643
11550.0 0.0011307
11570.0 0.001095
11590.0 0.0010584
11610.0 0.0010214
11630.0 0.0009817
11650.0 0.00093983
11670.0 0.00089889
11690.0 0.00085773
11710.0 0.00081564
11730.0 0.00077499
11750.0 0.00073732
11770.0 0.00070043
11790.0 0.00066572
11810.0 0.00063484
11830.0 0.0006069
11850.0 0.00058085
11870.0 0.00055852
11890.0 0.0005394
11910.0 0.00052213
11930.0 0.00050679
11950.0 0.00049348
11970.0 0.00048123
11990.0 0.00046944
12010.0 0.00045834
12030.0 0.00044759
12050.0 0.00043658
12070.0 0.00042527
12090.0 0.00041434
12110.0 0.00040328
12130.0 0.00039211
12150.0 0.00038152
12170.0 0.00037179
12190.0 0.00036264
12210.0 0.00035492
12230.0 0.00034899
12250.0 0.00034487
12270.0 0.00034291
12290.0 0.00034324
12310.0 0.00034569
12330.0 0.0003507
12350.0 0.00035802
12370.0 0.00036701
12390.0 0.00037796
12410.0 0.00039135
12430.0 0.00040512
12450.0 0.00041951
12470.0 0.00043497
12490.0 0.0004505
12510.0 0.0004649
12530.0 0.00047919
12550.0 0.00049285
12570.0 0.00050461
12590.0 0.00051463
12610.0 0.00052333
12630.0 0.00052984
12650.0 0.00053367
12670.0 0.00053552
12690.0 0.00053511
12710.0 0.00053234
12730.0 0.0005275
12750.0 0.00052043
12770.0 0.00051147
12790.0 0.00050104
12810.0 0.00048901
12830.0 0.00047547
12850.0 0.00046145
12870.0 0.00044681
12890.0 0.00043122
12910.0 0.00041548
12930.0 0.00040004
12950.0 0.00038408
12970.0 0.00036795
12990.0 0.00035267
13010.0 0.0003376
13030.0 0.00032242
13050.0 0.0003078
13070.0 0.00029402
13090.0 0.00028018
13110.0 0.00026672
13130.0 0.00025419
13150.0 0.00024222
13170.0 0.00023041
13190.0 0.00021973
13210.0 0.00021015
13230.0 0.00020122
13250.0 0.0001933
13270.0 0.00018673
13290.0 0.00018126
13310.0 0.00017696
13330.0 0.00017413
13350.0 0.00017269
13370.0 0.00017266
13390.0 0.00017414
13410.0 0.00017681
13430.0 0.00018077
13450.0 0.00018605
13470.0 0.0001922
13490.0 0.00019892
13510.0 0.00020678
13530.0 0.00021493
13550.0 0.0002229
13570.0 0.00023092
13590.0 0.00023892
13610.0 0.00024616
13630.0 0.0002526
13650.0 0.00025862
13670.0 0.00026374
13690.0 0.00026778
13710.0 0.00027101
13730.0 0.00027345
13750.0 0.00027478
13770.0 0.00027527
13790.0 0.00027499
13810.0 0.00027392
13830.0 0.00027218
13850.0 0.00026977
13870.0 0.0002667
13890.0 0.00026315
13910.0 0.00025915
13930.0 0.00025456
13950.0 0.00024956
13970.0 0.00024448
13990.0 0.000239
14010.0 0.00023322
14030.0 0.00022749
14050.0 0.00022175
14070.0 0.00021574
14090.0 0.00021
14110.0 0.00020462
14130.0 0.00019941
14150.0 0.0001945
14170.0 0.00019028
14190.0 0.00018661
14210.0 0.00018344
14230.0 0.00018103
14250.0 0.00017939
14270.0 0.00017845
14290.0 0.00017835
14310.0 0.00017902
14330.0 0.00018043
14350.0 0.00018264
14370.0 0.00018549
14390.0 0.00018882
14410.0 0.00019283
14430.0 0.00019734
14450.0 0.00020204
14470.0 0.00020704
14490.0 0.00021247
14510.0 0.0002178
14530.0 0.000223
14550.0 0.00022833
14570.0 0.0002336
14590.0 0.00023854
14610.0 0.00024345
14630.0 0.00024844
14650.0 0.00025321
14670.0 0.0002579
14690.0 0.00026285
14710.0 0.00026806
14730.0 0.00027327
14750.0 0.00027897
14770.0 0.00028534
14790.0 0.00029215
14810.0 0.00029942
14830.0 0.00030788
14850.0 0.00031694
14870.0 0.0003263
14890.0 0.0003363
14910.0 0.00034682
14930.0 0.00035691
14950.0 0.00036634
14970.0 0.00037526
14990.0 0.00038282
15010.0 0.00038873
15030.0 0.00039325
15050.0 0.00039643
15070.0 0.00039829
15090.0 0.00039933
15110.0 0.0003998
15130.0 0.00039991
15150.0 0.00039986
15170.0 0.0003997
15190.0 0.00039947
15210.0 0.00039927
15230.0 0.00039908
15250.0 0.00039886
15270.0 0.00039865
15290.0 0.0003985
15310.0 0.00039832
15330.0 0.00039814
15350.0 0.00039799
15370.0 0.00039786
15390.0 0.00039768
15410.0 0.00039754
15430.0 0.00039742
15450.0 0.00039728
15470.0 0.00039713
15490.0 0.00039703
15510.0 0.00039693
15530.0 0.0003968
15550.0 0.00039669
15570.0 0.0003966
15590.0 0.00039648
15610.0 0.00039634
15630.0 0.00039626
15650.0 0.00039617
15670.0 0.00039604
15690.0 0.00039594
15710.0 0.00039586
15730.0 0.00039575
15750.0 0.00039562
15770.0 0.00039553
15790.0 0.00039543
15810.0 0.00039529
15830.0 0.00039517
15850.0 0.00039508
15870.0 0.00039495
15890.0 0.00039481
15910.0 0.00039471
15930.0 0.00039458
15950.0 0.00039441
15970.0 0.00039427
15990.0 0.00039414
16010.0 0.00039397
16030.0 0.00039378
16050.0 0.00039365
16070.0 0.00039348
16090.0 0.00039328
16110.0 0.0003931
16130.0 0.00039293
16150.0 0.0003927
16170.0 0.00039247
16190.0 0.00039227
16210.0 0.00039204
16230.0 0.00039178
16250.0 0.00039154
16270.0 0.00039131
16290.0 0.00039103
16310.0 0.00039074
16330.0 0.00039048
16350.0 0.00039018
16370.0 0.00038983
16390.0 0.00038953
16410.0 0.00038922
16430.0 0.00038886
16450.0 0.0003885
16470.0 0.00038818
16490.0 0.00038779
16510.0 0.00038738
16530.0 0.00038699
16550.0 0.0003866
16570.0 0.00038615
16590.0 0.0003857
16610.0 0.00038528
16630.0 0.00038482
16650.0 0.00038433
16670.0 0.00038386
16690.0 0.00038338
16710.0 0.00038283
16730.0 0.0003823
16750.0 0.00038178
16770.0 0.00038122
16790.0 0.00038063
16810.0 0.00038007
16830.0 0.0003795
16850.0 0.00037887
16870.0 0.00037825
16890.0 0.00037764
16910.0 0.00037698
16930.0 0.00037628
16950.0 0.00037563
16970.0 0.00037495
16990.0 0.00037423
17010.0 0.00037351
17030.0 0.00037282
17050.0 0.00037205
17070.0 0.00037128
17090.0 0.00037053
17110.0 0.00036975
17130.0 0.00036891
17150.0 0.0003681
17170.0 0.00036731
17190.0 0.00036645
17210.0 0.00036559
17230.0 0.00036475
17250.0 0.00036388
17270.0 0.00036295
17290.0 0.00036205
17310.0 0.00036115
17330.0 0.0003602
17350.0 0.00035923
17370.0 0.00035831
17390.0 0.00035734
17410.0 0.00035634
17430.0 0.00035535
17450.0 0.00035438
17470.0 0.00035331
17490.0 0.00035227
17510.0 0.00035125
17530.0 0.00035019
17550.0 0.0003491
17570.0 0.00034804
17590.0 0.00034697
17610.0 0.00034584
17630.0 0.00034472
17650.0 0.00034363
17670.0 0.00034249
17690.0 0.00034129
17710.0 0.00034016
17730.0 0.00033901
17750.0 0.00033781
17770.0 0.00033662
17790.0 0.00033546
17810.0 0.00033424
17830.0 0.000333
17850.0 0.00033179
17870.0 0.00033057
17890.0 0.00032929
17910.0 0.00032802
17930.0 0.0003268
17950.0 0.00032552
17970.0 0.00032423
17990.0 0.00032296
18010.0 0.00032169
18030.0 0.00032034
18050.0 0.00031903
18070.0 0.00031773
18090.0 0.0003164
18110.0 0.00031504
18130.0 0.00031373
18150.0 0.0003124
18170.0 0.00031102
18190.0 0.00030967
18210.0 0.00030833
18230.0 0.00030694
18250.0 0.00030553
18270.0 0.00030417
18290.0 0.00030279
18310.0 0.00030138
18330.0 0.00029999
18350.0 0.00029862
18370.0 0.00029719
18390.0 0.00029576
18410.0 0.00029437
18430.0 0.00029295
18450.0 0.00029148
18470.0 0.00029007
18490.0 0.00028866
18510.0 0.00028721
18530.0 0.00028576
18550.0 0.00028436
18570.0 0.00028291
18590.0 0.00028143
18610.0 0.00027999
18630.0 0.00027856
18650.0 0.00027708
18670.0 0.0002756
18690.0 0.00027418
18710.0 0.00027272
18730.0 0.00027124
18750.0 0.00026979
18770.0 0.00026836
18790.0 0.00026685
18810.0 0.00026537
18830.0 0.00026393
18850.0 0.00026246
18870.0 0.00026097
18890.0 0.00025952
18910.0 0.00025808
18930.0 0.00025658
18950.0 0.00025511
18970.0 0.00025366
18990.0 0.00025219
19010.0 0.00025068
19030.0 0.00024924
19050.0 0.00024779
19070.0 0.0002463
19090.0 0.00024483
19110.0 0.00024341
19130.0 0.00024193
19150.0 0.00024044
19170.0 0.000239
19190.0 0.00023755
19210.0 0.00023607
19230.0 0.0002346
19250.0 0.00023319
19270.0 0.00023173
19290.0 0.00023026
19310.0 0.00022884
19330.0 0.00022741
19350.0 0.00022593
19370.0 0.00022449
19390.0 0.00022308
19410.0 0.00022163
19430.0 0.00022018
19450.0 0.00021878
19470.0 0.00021736
19490.0 0.00021591
19510.0 0.0002145
19530.0 0.00021311
19550.0 0.00021167
19570.0 0.00021023
19590.0 0.00020885
19610.0 0.00020746
19630.0 0.00020604
19650.0 0.00020465
19670.0 0.00020329
19690.0 0.00020187
19710.0 0.00020047
19730.0 0.00019911
19750.0 0.00019774
19770.0 0.00019633
19790.0 0.00019497
19810.0 0.00019362
19830.0 0.00019224
19850.0 0.00019087
19870.0 0.00018951
19890.0 0.0001881
19910.0 0.00018659
19930.0 0.00018502
19950.0 0.0001833
19970.0 0.0001813
19990.0 0.000179
20010.0 0.00016775
20030.0 0.00016494
20050.0 0.00016174
20070.0 0.00015835
20090.0 0.00015476
20110.0 0.00015078
20130.0 0.0001468
20150.0 0.00014289
20170.0 0.00013888
20190.0 0.00013485
20210.0 0.00013106
20230.0 0.00012738
20250.0 0.00012372
20270.0 0.00012031
20290.0 0.0001172
20310.0 0.00011423
20330.0 0.00011144
20350.0 0.00010909
20370.0 0.00010697
20390.0 0.00010508
20410.0 0.00010351
20430.0 0.00010224
20450.0 0.00010119
20470.0 0.00010041
20490.0 9.9896e-05
20510.0 9.9603e-05
20530.0 9.953e-05
20550.0 9.9658e-05
20570.0 9.9946e-05
20590.0 0.00010041
20610.0 0.00010103
20630.0 0.00010175
20650.0 0.00010258
20670.0 0.00010357
20690.0 0.00010459
20710.0 0.00010565
20730.0 0.00010681
20750.0 0.00010802
20770.0 0.00010921
20790.0 0.00011045
20810.0 0.00011175
20830.0 0.00011303
20850.0 0.00011429
20870.0 0.00011564
20890.0 0.00011699
20910.0 0.00011827
20930.0 0.00011958
20950.0 0.00012093
20970.0 0.00012223
20990.0 0.00012349
21010.0 0.00012482
21030.0 0.00012611
21050.0 0.00012733
21070.0 0.00012854
21090.0 0.00012976
21110.0 0.00013086
21130.0 0.00013189
21150.0 0.00013289
21170.0 0.0001338
21190.0 0.00013458
21210.0 0.0001353
21230.0 0.0001359
21250.0 0.00013634
21270.0 0.00013663
21290.0 0.00013677
21310.0 0.00013671
21330.0 0.00013646
21350.0 0.000136
21370.0 0.00013531
21390.0 0.0001344
21410.0 0.00013328
21430.0 0.00013184
21450.0 0.0001302
21470.0 0.00012839
21490.0 0.00012633
21510.0 0.00012405
21530.0 0.00012169
21550.0 0.00011921
21570.0 0.00011653
21590.0 0.00011387
21610.0 0.00011127
21630.0 0.00010864
21650.0 0.00010603
21670.0 0.00010372
21690.0 0.00010155
21710.0 9.9547e-05
21730.0 9.7835e-05
21750.0 9.6436e-05
21770.0 9.5268e-05
21790.0 9.444e-05
21810.0 9.3956e-05
21830.0 9.3782e-05
21850.0 9.3938e-05
21870.0 9.4398e-05
21890.0 9.5111e-05
21910.0 9.6124e-05
21930.0 9.7385e-05
21950.0 9.8803e-05
21970.0 0.00010042
21990.0 0.0001023
22010.0 0.0001042
22030.0 0.00010617
22050.0 0.00010828
22070.0 0.00011044
22090.0 0.00011251
22110.0 0.00011462
22130.0 0.00011676
22150.0 0.00011879
22170.0 0.00012072
22190.0 0.00012266
22210.0 0.00012449
22230.0 0.0001261
22250.0 0.00012764
22270.0 0.00012907
22290.0 0.0001303
22310.0 0.00013135
22330.0 0.00013229
22350.0 0.00013302
22370.0 0.00013353
22390.0 0.00013386
22410.0 0.00013397
22430.0 0.00013385
22450.0 0.00013352
22470.0 0.00013294
22490.0 0.00013212
22510.0 0.00013109
22530.0 0.00012979
22550.0 0.0001282
22570.0 0.00012644
22590.0 0.00012446
22610.0 0.00012218
22630.0 0.00011971
22650.0 0.00011716
22670.0 0.00011434
22690.0 0.00011132
22710.0 0.00010827
22730.0 0.00010512
22750.0 0.0001017
22770.0 9.8348e-05
22790.0 9.5068e-05
22810.0 9.1695e-05
22830.0 8.8325e-05
22850.0 8.516e-05
22870.0 8.2054e-05
22890.0 7.8959e-05
22910.0 7.6102e-05
22930.0 7.3478e-05
22950.0 7.0975e-05
22970.0 6.8653e-05
22990.0 6.6719e-05
23010.0 6.4995e-05
