#lamb flux
1010.0 4.9417e-06
1030.0 5.5632e-06
1050.0 6.2359e-06
1070.0 6.9971e-06
1090.0 7.8791e-06
1110.0 8.789e-06
1130.0 9.7126e-06
1150.0 1.0689e-05
1170.0 1.1708e-05
1190.0 1.2695e-05
1210.0 1.3714e-05
1230.0 1.4788e-05
1250.0 1.5867e-05
1270.0 1.6948e-05
1290.0 1.8115e-05
1310.0 1.9317e-05
1330.0 2.0512e-05
1350.0 2.1753e-05
1370.0 2.3061e-05
1390.0 2.4376e-05
1410.0 2.569e-05
1430.0 2.7078e-05
1450.0 2.8491e-05
1470.0 2.9887e-05
1490.0 3.1311e-05
1510.0 3.2809e-05
1530.0 3.4255e-05
1550.0 3.5689e-05
1570.0 3.7159e-05
1590.0 3.8624e-05
1610.0 4.0023e-05
1630.0 4.1434e-05
1650.0 4.2851e-05
1670.0 4.42e-05
1690.0 4.5498e-05
1710.0 4.6799e-05
1730.0 4.8061e-05
1750.0 4.9199e-05
1770.0 5.0314e-05
1790.0 5.1394e-05
1810.0 5.2371e-05
1830.0 5.3263e-05
1850.0 5.4156e-05
1870.0 5.4948e-05
1890.0 5.5631e-05
1910.0 5.6264e-05
1930.0 5.6853e-05
1950.0 5.7318e-05
1970.0 5.7698e-05
1990.0 5.8046e-05
2010.0 5.8303e-05
2030.0 5.845e-05
2050.0 5.8555e-05
2070.0 5.8609e-05
2090.0 5.8529e-05
2110.0 5.8369e-05
2130.0 5.816e-05
2150.0 5.7853e-05
2170.0 5.7428e-05
2190.0 5.6957e-05
2210.0 5.6413e-05
2230.0 5.5755e-05
2250.0 5.502e-05
2270.0 5.4247e-05
2290.0 5.3377e-05
2310.0 5.2411e-05
2330.0 5.1406e-05
2350.0 5.0347e-05
2370.0 4.9205e-05
2390.0 4.8017e-05
2410.0 4.6801e-05
2430.0 4.5505e-05
2450.0 4.4131e-05
2470.0 4.2694e-05
2490.0 4.1181e-05
2510.0 3.9599e-05
2530.0 3.8033e-05
2550.0 3.6608e-05
2570.0 3.5485e-05
2590.0 3.483e-05
2610.0 3.4973e-05
2630.0 3.6008e-05
2650.0 3.7758e-05
2670.0 4.0215e-05
2690.0 4.3185e-05
2710.0 4.598e-05
2730.0 4.825e-05
2750.0 4.9991e-05
2770.0 5.0754e-05
2790.0 5.0444e-05
2810.0 4.9252e-05
2830.0 4.7251e-05
2850.0 4.458e-05
2870.0 4.1481e-05
2890.0 3.8047e-05
2910.0 3.4414e-05
2930.0 3.0746e-05
2950.0 2.6976e-05
2970.0 2.3148e-05
2990.0 1.9393e-05
3010.0 3.53e-05
3030.0 2.6843e-05
3050.0 1.84e-05
3070.0 1.0197e-05
3090.0 7.6788e-06
3110.0 7.6788e-06
3130.0 7.6788e-06
3150.0 7.6788e-06
3170.0 7.6788e-06
3190.0 7.6788e-06
3210.0 3.2291e-05
3230.0 0.00015068
3250.0 0.0003009
3270.0 0.00032716
3290.0 0.0004046
3310.0 0.00034097
3330.0 0.00035114
3350.0 0.00038846
3370.0 0.00043959
3390.0 0.00049854
3410.0 0.00056138
3430.0 0.00063795
3450.0 0.00071877
3470.0 0.000804
3490.0 0.00086744
3510.0 0.00089946
3530.0 0.00095114
3550.0 0.0009765
3570.0 0.00095105
3590.0 0.0010025
3610.0 0.0009586
3630.0 0.0011743
3650.0 0.0013298
3670.0 0.0014267
3690.0 0.0013143
3710.0 0.001035
3730.0 0.00093867
3750.0 0.0008193
3770.0 0.00072754
3790.0 0.0006372
3810.0 0.00062168
3830.0 0.00076507
3850.0 0.00030239
3870.0 0.00070592
3890.0 0.00085873
3910.0 0.00091242
3930.0 0.0010856
3950.0 0.0011811
3970.0 0.0014048
3990.0 0.0017372
4010.0 0.0012164
4030.0 0.00098072
4050.0 0.0008131
4070.0 0.00087864
4090.0 0.0013684
4110.0 0.0012663
4130.0 0.0013389
4150.0 0.0012525
4170.0 0.0011994
4190.0 0.0011051
4210.0 0.001643
4230.0 0.0017104
4250.0 0.0018392
4270.0 0.0017166
4290.0 0.001771
4310.0 0.002021
4330.0 0.0023628
4350.0 0.0023143
4370.0 0.0022165
4390.0 0.0019353
4410.0 0.0017967
4430.0 0.0014376
4450.0 0.0012407
4470.0 0.0014035
4490.0 0.0016979
4510.0 0.0017642
4530.0 0.0018687
4550.0 0.001995
4570.0 0.0027553
4590.0 0.0040052
4610.0 0.0047635
4630.0 0.0047524
4650.0 0.0048019
4670.0 0.0053612
4690.0 0.0058934
4710.0 0.0048268
4730.0 0.003664
4750.0 0.0029399
4770.0 0.002662
4790.0 0.0025678
4810.0 0.0024577
4830.0 0.0027007
4850.0 0.0030945
4870.0 0.0034105
4890.0 0.0034991
4910.0 0.0031524
4930.0 0.0033184
4950.0 0.0041442
4970.0 0.0050701
4990.0 0.0053091
5010.0 0.0048705
5030.0 0.0040173
5050.0 0.0030254
5070.0 0.0023936
5090.0 0.0021477
5110.0 0.0020965
5130.0 0.0021481
5150.0 0.0021445
5170.0 0.0021003
5190.0 0.0020045
5210.0 0.0019719
5230.0 0.0021874
5250.0 0.0024623
5270.0 0.0029401
5290.0 0.0034346
5310.0 0.0035834
5330.0 0.0038189
5350.0 0.0042651
5370.0 0.0045951
5390.0 0.0042333
5410.0 0.0037633
5430.0 0.0036288
5450.0 0.0042001
5470.0 0.0052957
5490.0 0.0063445
5510.0 0.0068567
5530.0 0.0068184
5550.0 0.0065211
5570.0 0.0063434
5590.0 0.0061908
5610.0 0.0061986
5630.0 0.0062019
5650.0 0.0062207
5670.0 0.0062715
5690.0 0.0059127
5710.0 0.0050288
5730.0 0.0044436
5750.0 0.0041427
5770.0 0.0042415
5790.0 0.0044641
5810.0 0.0047488
5830.0 0.0049118
5850.0 0.0047419
5870.0 0.0044485
5890.0 0.0041957
5910.0 0.0043254
5930.0 0.0046474
5950.0 0.004481
5970.0 0.0040492
5990.0 0.0034657
6010.0 0.0028286
6030.0 0.0025168
6050.0 0.0026495
6070.0 0.0028852
6090.0 0.002885
6110.0 0.0025556
6130.0 0.0025291
6150.0 0.0028866
6170.0 0.0033839
6190.0 0.0038341
6210.0 0.0039033
6230.0 0.0037945
6250.0 0.0034845
6270.0 0.0029672
6290.0 0.002472
6310.0 0.0021552
6330.0 0.0020704
6350.0 0.0021393
6370.0 0.0021543
6390.0 0.0023189
6410.0 0.002814
6430.0 0.0035653
6450.0 0.0042024
6470.0 0.004428
6490.0 0.0043412
6510.0 0.0044211
6530.0 0.0046112
6550.0 0.0045705
6570.0 0.0047218
6590.0 0.0047844
6610.0 0.0048489
6630.0 0.0048681
6650.0 0.0046584
6670.0 0.0042883
6690.0 0.0038147
6710.0 0.0034998
6730.0 0.0035087
6750.0 0.0036833
6770.0 0.0038194
6790.0 0.0039117
6810.0 0.0039573
6830.0 0.0038754
6850.0 0.0037394
6870.0 0.0035149
6890.0 0.0034197
6910.0 0.0032502
6930.0 0.0033179
6950.0 0.0035643
6970.0 0.0036911
6990.0 0.003799
7010.0 0.0037327
7030.0 0.0034611
7050.0 0.0030456
7070.0 0.0026172
7090.0 0.0023395
7110.0 0.0023005
7130.0 0.0023523
7150.0 0.0021923
7170.0 0.0020485
7190.0 0.0021479
7210.0 0.0024128
7230.0 0.0027999
7250.0 0.0030422
7270.0 0.0030718
7290.0 0.0028266
7310.0 0.0025696
7330.0 0.0024151
7350.0 0.0024057
7370.0 0.002464
7390.0 0.0025635
7410.0 0.0027953
7430.0 0.003242
7450.0 0.0037211
7470.0 0.0040294
7490.0 0.0040531
7510.0 0.003832
7530.0 0.0031906
7550.0 0.0027907
7570.0 0.0024152
7590.0 0.0022256
7610.0 0.0023122
7630.0 0.0025642
7650.0 0.0028727
7670.0 0.0031556
7690.0 0.0033318
7710.0 0.0035337
7730.0 0.0037535
7750.0 0.0039464
7770.0 0.0039114
7790.0 0.0039076
7810.0 0.003992
7830.0 0.0040529
7850.0 0.0039359
7870.0 0.0037679
7890.0 0.003683
7910.0 0.0034836
7930.0 0.0034157
7950.0 0.0032453
7970.0 0.003174
7990.0 0.0030902
8010.0 0.0031979
8030.0 0.003213
8050.0 0.0032457
8070.0 0.0032044
8090.0 0.0031829
8110.0 0.0030432
8130.0 0.0030209
8150.0 0.0029585
8170.0 0.0028696
8190.0 0.0028123
8210.0 0.0028151
8230.0 0.0027132
8250.0 0.0026076
8270.0 0.0023112
8290.0 0.0018579
8310.0 0.0013801
8330.0 0.0010431
8350.0 0.00095425
8370.0 0.0011318
8390.0 0.0013729
8410.0 0.0015023
8430.0 0.0015697
8450.0 0.0016432
8470.0 0.0017367
8490.0 0.001933
8510.0 0.0021959
8530.0 0.0025436
8550.0 0.0029101
8570.0 0.0032321
8590.0 0.0034845
8610.0 0.0036504
8630.0 0.0037019
8650.0 0.003685
8670.0 0.003679
8690.0 0.0038261
8710.0 0.0040047
8730.0 0.0041444
8750.0 0.0041092
8770.0 0.0041444
8790.0 0.0041031
8810.0 0.0038302
8830.0 0.0036466
8850.0 0.0033879
8870.0 0.0031781
8890.0 0.0030831
8910.0 0.0031044
8930.0 0.0029354
8950.0 0.0027698
8970.0 0.0027002
8990.0 0.0026589
9010.0 0.0025593
9030.0 0.0025009
9050.0 0.0024826
9070.0 0.002474
9090.0 0.0024663
9110.0 0.0024589
9130.0 0.0024512
9150.0 0.0024437
9170.0 0.0024344
9190.0 0.002426
9210.0 0.002432
9230.0 0.0024196
9250.0 0.0024095
9270.0 0.0024005
9290.0 0.0023922
9310.0 0.002384
9330.0 0.0023762
9350.0 0.0023688
9370.0 0.0023614
9390.0 0.0023538
9410.0 0.0023464
9430.0 0.0023389
9450.0 0.0023292
9470.0 0.0023202
9490.0 0.0023149
9510.0 0.0023086
9530.0 0.0023018
9550.0 0.002295
9570.0 0.002288
9590.0 0.0022808
9610.0 0.0022736
9630.0 0.0022665
9650.0 0.0022593
9670.0 0.0022521
9690.0 0.0022449
9710.0 0.0022377
9730.0 0.0022305
9750.0 0.0022233
9770.0 0.0022162
9790.0 0.002209
9810.0 0.0022017
9830.0 0.0021945
9850.0 0.0021874
9870.0 0.00218
9890.0 0.0021728
9910.0 0.0021655
9930.0 0.0021579
9950.0 0.0021329
9970.0 0.0021307
9990.0 0.0021275
10010.0 0.0021237
10030.0 0.0021184
10050.0 0.0021119
10070.0 0.002105
10090.0 0.0020982
10110.0 0.0020904
10130.0 0.0020831
10150.0 0.0020756
10170.0 0.0020675
10190.0 0.0020587
10210.0 0.0020507
10230.0 0.0020429
10250.0 0.0020343
10270.0 0.0020258
10290.0 0.0020179
10310.0 0.0020092
10330.0 0.0019999
10350.0 0.0019913
10370.0 0.0019827
10390.0 0.0019733
10410.0 0.001964
10430.0 0.0019552
10450.0 0.0019458
10470.0 0.0019358
10490.0 0.0019264
10510.0 0.0019169
10530.0 0.0019062
10550.0 0.0018958
10570.0 0.001886
10590.0 0.0018754
10610.0 0.0018643
10630.0 0.0018539
10650.0 0.0018432
10670.0 0.0018315
10690.0 0.0018201
10710.0 0.0018089
10730.0 0.001797
10750.0 0.0017844
10770.0 0.0017727
10790.0 0.0017607
10810.0 0.0017478
10830.0 0.0017351
10850.0 0.0017228
10870.0 0.001709
10890.0 0.001695
10910.0 0.0016814
10930.0 0.001667
10950.0 0.0016511
10970.0 0.0016348
10990.0 0.0016183
11010.0 0.0016229
11030.0 0.0016023
11050.0 0.0015825
11070.0 0.0015623
11090.0 0.001541
11110.0 0.0015216
11130.0 0.0015031
11150.0 0.0014845
11170.0 0.0014664
11190.0 0.0014499
11210.0 0.0014331
11230.0 0.0014161
11250.0 0.0014
11270.0 0.0013844
11290.0 0.0013681
11310.0 0.0013518
11330.0 0.0013367
11350.0 0.001321
11370.0 0.0013049
11390.0 0.0012892
11410.0 0.0012735
11430.0 0.0012563
11450.0 0.001239
11470.0 0.0012216
11490.0 0.0012031
11510.0 0.001183
11530.0 0.0011631
11550.0 0.0011425
11570.0 0.0011201
11590.0 0.0010973
11610.0 0.0010746
11630.0 0.0010505
11650.0 0.0010254
11670.0 0.0010013
11690.0 0.00097728
11710.0 0.00095252
11730.0 0.00092841
11750.0 0.0009058
11770.0 0.00088288
11790.0 0.0008604
11810.0 0.0008395
11830.0 0.00081948
11850.0 0.00079926
11870.0 0.00078059
11890.0 0.00076338
11910.0 0.00074641
11930.0 0.00073002
11950.0 0.000715
11970.0 0.00070049
11990.0 0.00068601
12010.0 0.00067255
12030.0 0.00065998
12050.0 0.00064763
12070.0 0.00063568
12090.0 0.00062515
12110.0 0.00061517
12130.0 0.00060571
12150.0 0.00059735
12170.0 0.00059012
12190.0 0.00058348
12210.0 0.00057803
12230.0 0.00057388
12250.0 0.00057082
12270.0 0.00056892
12290.0 0.00056833
12310.0 0.00056892
12330.0 0.0005708
12350.0 0.00057396
12370.0 0.00057818
12390.0 0.00058361
12410.0 0.00059056
12430.0 0.0005982
12450.0 0.00060665
12470.0 0.00061623
12490.0 0.0006265
12510.0 0.00063675
12530.0 0.0006476
12550.0 0.00065878
12570.0 0.00066939
12590.0 0.00067942
12610.0 0.00068918
12630.0 0.0006979
12650.0 0.00070495
12670.0 0.00071089
12690.0 0.00071537
12710.0 0.00071806
12730.0 0.00071912
12750.0 0.00071852
12770.0 0.00071621
12790.0 0.00071247
12810.0 0.00070729
12830.0 0.00070073
12850.0 0.00069346
12870.0 0.00068549
12890.0 0.0006767
12910.0 0.00066767
12930.0 0.00065875
12950.0 0.00064952
12970.0 0.00064023
12990.0 0.00063156
13010.0 0.00062312
13030.0 0.00061469
13050.0 0.00060665
13070.0 0.00059908
13090.0 0.00059142
13110.0 0.00058384
13130.0 0.00057659
13150.0 0.0005694
13170.0 0.00056194
13190.0 0.00055478
13210.0 0.00054793
13230.0 0.00054105
13250.0 0.00053439
13270.0 0.00052834
13290.0 0.00052268
13310.0 0.00051745
13330.0 0.00051309
13350.0 0.00050958
13370.0 0.00050684
13390.0 0.00050498
13410.0 0.00050398
13430.0 0.00050364
13450.0 0.00050387
13470.0 0.00050443
13490.0 0.00050505
13510.0 0.00050562
13530.0 0.00050575
13550.0 0.00050526
13570.0 0.000504
13590.0 0.00050174
13610.0 0.00049853
13630.0 0.00049445
13650.0 0.00048926
13670.0 0.00048322
13690.0 0.00047671
13710.0 0.0004696
13730.0 0.00046182
13750.0 0.00045435
13770.0 0.00044701
13790.0 0.00043969
13810.0 0.00043281
13830.0 0.00042668
13850.0 0.0004209
13870.0 0.00041565
13890.0 0.00041116
13910.0 0.00040728
13930.0 0.00040382
13950.0 0.00040089
13970.0 0.00039849
13990.0 0.00039636
14010.0 0.00039448
14030.0 0.00039284
14050.0 0.00039132
14070.0 0.00038978
14090.0 0.00038825
14110.0 0.00038666
14130.0 0.0003849
14150.0 0.00038292
14170.0 0.00038081
14190.0 0.00037849
14210.0 0.00037589
14230.0 0.00037314
14250.0 0.00037032
14270.0 0.0003673
14290.0 0.00036421
14310.0 0.00036131
14330.0 0.00035851
14350.0 0.00035582
14370.0 0.00035343
14390.0 0.00035138
14410.0 0.00034957
14430.0 0.0003481
14450.0 0.00034697
14470.0 0.00034613
14490.0 0.00034555
14510.0 0.00034522
14530.0 0.0003451
14550.0 0.00034515
14570.0 0.00034539
14590.0 0.00034577
14610.0 0.00034633
14630.0 0.00034714
14650.0 0.00034815
14670.0 0.0003494
14690.0 0.00035099
14710.0 0.00035295
14730.0 0.00035511
14750.0 0.00035767
14770.0 0.00036069
14790.0 0.00036403
14810.0 0.00036767
14830.0 0.00037203
14850.0 0.00037681
14870.0 0.00038188
14890.0 0.00038747
14910.0 0.00039357
14930.0 0.00039962
14950.0 0.00040545
14970.0 0.00041115
14990.0 0.0004161
15010.0 0.00042003
15030.0 0.00042308
15050.0 0.00042525
15070.0 0.00042646
15090.0 0.00042708
15110.0 0.0004273
15130.0 0.00042724
15150.0 0.00042703
15170.0 0.00042675
15190.0 0.00042643
15210.0 0.0004261
15230.0 0.00042577
15250.0 0.00042543
15270.0 0.0004251
15290.0 0.00042477
15310.0 0.00042445
15330.0 0.00042412
15350.0 0.0004238
15370.0 0.00042348
15390.0 0.00042316
15410.0 0.00042284
15430.0 0.00042253
15450.0 0.00042221
15470.0 0.0004219
15490.0 0.00042159
15510.0 0.00042128
15530.0 0.00042097
15550.0 0.00042066
15570.0 0.00042036
15590.0 0.00042005
15610.0 0.00041974
15630.0 0.00041944
15650.0 0.00041913
15670.0 0.00041883
15690.0 0.00041852
15710.0 0.00041822
15730.0 0.00041792
15750.0 0.00041761
15770.0 0.00041731
15790.0 0.00041701
15810.0 0.0004167
15830.0 0.00041639
15850.0 0.00041609
15870.0 0.00041578
15890.0 0.00041547
15910.0 0.00041517
15930.0 0.00041486
15950.0 0.00041455
15970.0 0.00041424
15990.0 0.00041393
16010.0 0.00041361
16030.0 0.00041329
16050.0 0.00041298
16070.0 0.00041266
16090.0 0.00041234
16110.0 0.00041202
16130.0 0.0004117
16150.0 0.00041137
16170.0 0.00041103
16190.0 0.00041071
16210.0 0.00041037
16230.0 0.00041003
16250.0 0.00040969
16270.0 0.00040936
16290.0 0.00040901
16310.0 0.00040866
16330.0 0.00040831
16350.0 0.00040795
16370.0 0.00040758
16390.0 0.00040723
16410.0 0.00040686
16430.0 0.00040649
16450.0 0.00040611
16470.0 0.00040574
16490.0 0.00040536
16510.0 0.00040497
16530.0 0.00040458
16550.0 0.00040418
16570.0 0.00040378
16590.0 0.00040337
16610.0 0.00040297
16630.0 0.00040255
16650.0 0.00040213
16670.0 0.0004017
16690.0 0.00040128
16710.0 0.00040083
16730.0 0.00040039
16750.0 0.00039995
16770.0 0.00039949
16790.0 0.00039903
16810.0 0.00039857
16830.0 0.0003981
16850.0 0.00039762
16870.0 0.00039713
16890.0 0.00039665
16910.0 0.00039614
16930.0 0.00039564
16950.0 0.00039513
16970.0 0.00039461
16990.0 0.00039409
17010.0 0.00039356
17030.0 0.00039302
17050.0 0.00039247
17070.0 0.00039192
17090.0 0.00039136
17110.0 0.0003908
17130.0 0.00039022
17150.0 0.00038963
17170.0 0.00038905
17190.0 0.00038845
17210.0 0.00038784
17230.0 0.00038724
17250.0 0.00038662
17270.0 0.00038598
17290.0 0.00038535
17310.0 0.00038471
17330.0 0.00038405
17350.0 0.00038339
17370.0 0.00038273
17390.0 0.00038205
17410.0 0.00038136
17430.0 0.00038067
17450.0 0.00037998
17470.0 0.00037926
17490.0 0.00037854
17510.0 0.00037782
17530.0 0.00037709
17550.0 0.00037634
17570.0 0.0003756
17590.0 0.00037485
17610.0 0.00037408
17630.0 0.0003733
17650.0 0.00037252
17670.0 0.00037173
17690.0 0.00037093
17710.0 0.00037012
17730.0 0.00036931
17750.0 0.00036849
17770.0 0.00036766
17790.0 0.00036683
17810.0 0.00036598
17830.0 0.00036512
17850.0 0.00036426
17870.0 0.0003634
17890.0 0.00036252
17910.0 0.00036163
17930.0 0.00036074
17950.0 0.00035985
17970.0 0.00035894
17990.0 0.00035803
18010.0 0.00035711
18030.0 0.00035618
18050.0 0.00035524
18070.0 0.0003543
18090.0 0.00035336
18110.0 0.0003524
18130.0 0.00035144
18150.0 0.00035047
18170.0 0.0003495
18190.0 0.00034852
18210.0 0.00034754
18230.0 0.00034654
18250.0 0.00034554
18270.0 0.00034454
18290.0 0.00034353
18310.0 0.00034251
18330.0 0.00034149
18350.0 0.00034047
18370.0 0.00033944
18390.0 0.0003384
18410.0 0.00033736
18430.0 0.00033632
18450.0 0.00033526
18470.0 0.00033421
18490.0 0.00033315
18510.0 0.00033209
18530.0 0.00033102
18550.0 0.00032996
18570.0 0.00032888
18590.0 0.0003278
18610.0 0.00032672
18630.0 0.00032564
18650.0 0.00032455
18670.0 0.00032345
18690.0 0.00032236
18710.0 0.00032127
18730.0 0.00032017
18750.0 0.00031907
18770.0 0.00031797
18790.0 0.00031685
18810.0 0.00031574
18830.0 0.00031464
18850.0 0.00031353
18870.0 0.00031241
18890.0 0.0003113
18910.0 0.00031019
18930.0 0.00030907
18950.0 0.00030795
18970.0 0.00030684
18990.0 0.00030572
19010.0 0.00030459
19030.0 0.00030347
19050.0 0.00030236
19070.0 0.00030123
19090.0 0.00030011
19110.0 0.000299
19130.0 0.00029788
19150.0 0.00029676
19170.0 0.00029564
19190.0 0.00029452
19210.0 0.0002934
19230.0 0.00029229
19250.0 0.00029118
19270.0 0.00029006
19290.0 0.00028895
19310.0 0.00028784
19330.0 0.00028673
19350.0 0.00028562
19370.0 0.00028451
19390.0 0.00028341
19410.0 0.00028231
19430.0 0.00028121
19450.0 0.00028012
19470.0 0.00027902
19490.0 0.00027793
19510.0 0.00027684
19530.0 0.00027575
19550.0 0.00027467
19570.0 0.00027358
19590.0 0.00027251
19610.0 0.00027143
19630.0 0.00027036
19650.0 0.00026929
19670.0 0.00026823
19690.0 0.00026716
19710.0 0.0002661
19730.0 0.00026505
19750.0 0.000264
19770.0 0.00026295
19790.0 0.0002619
19810.0 0.00026086
19830.0 0.00025982
19850.0 0.00025877
19870.0 0.0002577
19890.0 0.00025658
19910.0 0.00025537
19930.0 0.00025401
19950.0 0.00025244
19970.0 0.00025052
19990.0 0.00024819
20010.0 0.0002455
20030.0 0.0002423
20050.0 0.00023861
20070.0 0.00023467
20090.0 0.0002305
20110.0 0.00022595
20130.0 0.00022144
20150.0 0.00021706
20170.0 0.00021265
20190.0 0.00020827
20210.0 0.00020417
20230.0 0.00020019
20250.0 0.00019624
20270.0 0.00019251
20290.0 0.000189
20310.0 0.00018557
20330.0 0.0001822
20350.0 0.00017916
20370.0 0.00017622
20390.0 0.00017334
20410.0 0.00017065
20430.0 0.00016815
20450.0 0.00016568
20470.0 0.00016336
20490.0 0.00016124
20510.0 0.00015925
20530.0 0.00015736
20550.0 0.00015566
20570.0 0.00015416
20590.0 0.00015276
20610.0 0.00015153
20630.0 0.00015048
20650.0 0.00014957
20670.0 0.00014879
20690.0 0.00014817
20710.0 0.00014768
20730.0 0.00014731
20750.0 0.00014705
20770.0 0.00014687
20790.0 0.00014678
20810.0 0.00014677
20830.0 0.00014679
20850.0 0.00014684
20870.0 0.00014692
20890.0 0.000147
20910.0 0.00014704
20930.0 0.00014705
20950.0 0.00014702
20970.0 0.00014692
20990.0 0.00014673
21010.0 0.00014647
21030.0 0.00014611
21050.0 0.00014565
21070.0 0.00014509
21090.0 0.00014441
21110.0 0.00014364
21130.0 0.00014278
21150.0 0.00014181
21170.0 0.00014075
21190.0 0.00013965
21210.0 0.00013844
21230.0 0.00013715
21250.0 0.00013585
21270.0 0.00013451
21290.0 0.0001331
21310.0 0.00013167
21330.0 0.00013028
21350.0 0.00012885
21370.0 0.00012742
21390.0 0.00012604
21410.0 0.0001247
21430.0 0.00012334
21450.0 0.00012208
21470.0 0.00012091
21490.0 0.00011978
21510.0 0.00011874
21530.0 0.00011783
21550.0 0.000117
21570.0 0.00011628
21590.0 0.00011568
21610.0 0.00011521
21630.0 0.00011485
21650.0 0.00011462
21670.0 0.00011449
21690.0 0.00011448
21710.0 0.00011458
21730.0 0.00011477
21750.0 0.00011502
21770.0 0.00011538
21790.0 0.00011579
21810.0 0.00011622
21830.0 0.00011668
21850.0 0.00011718
21870.0 0.00011766
21890.0 0.00011809
21910.0 0.00011853
21930.0 0.00011893
21950.0 0.00011926
21970.0 0.00011955
21990.0 0.0001198
22010.0 0.00011995
22030.0 0.00012004
22050.0 0.00012008
22070.0 0.00012005
22090.0 0.00011994
22110.0 0.00011979
22130.0 0.00011957
22150.0 0.00011931
22170.0 0.00011899
22190.0 0.00011862
22210.0 0.00011821
22230.0 0.00011776
22250.0 0.00011726
22270.0 0.00011672
22290.0 0.00011614
22310.0 0.00011553
22330.0 0.00011484
22350.0 0.00011412
22370.0 0.00011336
22390.0 0.00011253
22410.0 0.00011162
22430.0 0.00011067
22450.0 0.00010967
22470.0 0.00010858
22490.0 0.00010743
22510.0 0.00010625
22530.0 0.00010496
22550.0 0.0001036
22570.0 0.00010223
22590.0 0.00010083
22610.0 9.9343e-05
22630.0 9.7852e-05
22650.0 9.6403e-05
22670.0 9.4908e-05
22690.0 9.3411e-05
22710.0 9.1982e-05
22730.0 9.0591e-05
22750.0 8.9179e-05
22770.0 8.7869e-05
22790.0 8.6653e-05
22810.0 8.5472e-05
22830.0 8.4356e-05
22850.0 8.3351e-05
22870.0 8.2408e-05
22890.0 8.151e-05
22910.0 8.0703e-05
22930.0 7.9974e-05
22950.0 7.9286e-05
22970.0 7.8643e-05
22990.0 7.8078e-05
23010.0 7.7542e-05
23030.0 7.7028e-05
23050.0 7.6546e-05
