#lamb flux
1010.0 1.5601e-07
1030.0 1.7526e-07
1050.0 1.974e-07
1070.0 2.2232e-07
1090.0 2.5063e-07
1110.0 2.7966e-07
1130.0 3.0889e-07
1150.0 3.395e-07
1170.0 3.7108e-07
1190.0 4.0102e-07
1210.0 4.3137e-07
1230.0 4.6273e-07
1250.0 4.9345e-07
1270.0 5.2329e-07
1290.0 5.5483e-07
1310.0 5.8633e-07
1330.0 6.1655e-07
1350.0 6.4711e-07
1370.0 6.7865e-07
1390.0 7.0941e-07
1410.0 7.3925e-07
1430.0 7.7045e-07
1450.0 8.0164e-07
1470.0 8.3178e-07
1490.0 8.6224e-07
1510.0 8.9441e-07
1530.0 9.2489e-07
1550.0 9.5494e-07
1570.0 9.8603e-07
1590.0 1.0171e-06
1610.0 1.0468e-06
1630.0 1.0774e-06
1650.0 1.1088e-06
1670.0 1.1391e-06
1690.0 1.169e-06
1710.0 1.2001e-06
1730.0 1.2312e-06
1750.0 1.2604e-06
1770.0 1.2904e-06
1790.0 1.321e-06
1810.0 1.3505e-06
1830.0 1.3793e-06
1850.0 1.4098e-06
1870.0 1.4394e-06
1890.0 1.4678e-06
1910.0 1.4966e-06
1930.0 1.5259e-06
1950.0 1.5536e-06
1970.0 1.5806e-06
1990.0 1.6085e-06
2010.0 1.6355e-06
2030.0 1.661e-06
2050.0 1.687e-06
2070.0 1.7133e-06
2090.0 1.7374e-06
2110.0 1.7608e-06
2130.0 1.7845e-06
2150.0 1.807e-06
2170.0 1.8275e-06
2190.0 1.8483e-06
2210.0 1.8684e-06
2230.0 1.8866e-06
2250.0 1.9037e-06
2270.0 1.921e-06
2290.0 1.9365e-06
2310.0 1.9498e-06
2330.0 1.9628e-06
2350.0 1.975e-06
2370.0 1.9849e-06
2390.0 1.9942e-06
2410.0 2.0041e-06
2430.0 2.0128e-06
2450.0 2.0213e-06
2470.0 2.0319e-06
2490.0 2.046e-06
2510.0 2.063e-06
2530.0 2.0905e-06
2550.0 2.1394e-06
2570.0 2.22e-06
2590.0 2.3452e-06
2610.0 2.5512e-06
2630.0 2.8444e-06
2650.0 3.206e-06
2670.0 3.6378e-06
2690.0 4.1193e-06
2710.0 4.5767e-06
2730.0 4.9754e-06
2750.0 5.321e-06
2770.0 5.5762e-06
2790.0 5.7403e-06
2810.0 5.8429e-06
2830.0 5.904e-06
2850.0 5.9242e-06
2870.0 5.9259e-06
2890.0 5.9215e-06
2910.0 5.9117e-06
2930.0 5.8957e-06
2950.0 5.8822e-06
2970.0 5.8706e-06
2990.0 5.8563e-06
3010.0 0.0001056
3030.0 0.00010526
3050.0 0.00010492
3070.0 0.00010447
3090.0 0.00010397
3110.0 0.00010332
3130.0 0.00010237
3150.0 0.00010107
3170.0 9.9309e-05
3190.0 9.7132e-05
3210.0 9.4745e-05
3230.0 9.2365e-05
3250.0 9.0543e-05
3270.0 8.9332e-05
3290.0 8.9389e-05
3310.0 9.0203e-05
3330.0 9.2372e-05
3350.0 9.5475e-05
3370.0 9.9573e-05
3390.0 0.00010454
3410.0 0.00010985
3430.0 0.00011574
3450.0 0.00012243
3470.0 0.00012961
3490.0 0.00013709
3510.0 0.00014542
3530.0 0.00015421
3550.0 0.00016283
3570.0 0.00017166
3590.0 0.00018156
3610.0 0.00019135
3630.0 0.00020191
3650.0 0.00021269
3670.0 0.00022286
3690.0 0.00023069
3710.0 0.00023557
3730.0 0.00023724
3750.0 0.00023552
3770.0 0.0002147
3790.0 0.00019262
3810.0 0.00017981
3830.0 0.00015517
3850.0 0.00011182
3870.0 8.5827e-05
3890.0 0.00014428
3910.0 0.00022959
3930.0 0.00027797
3950.0 0.00027776
3970.0 0.00027764
3990.0 0.00032565
4010.0 0.0004042
4030.0 0.00041591
4050.0 0.00037441
4070.0 0.00032562
4090.0 0.00030517
4110.0 0.00036615
4130.0 0.0003792
4150.0 0.00036119
4170.0 0.00037292
4190.0 0.00038277
4210.0 0.00037724
4230.0 0.00040952
4250.0 0.00044607
4270.0 0.0004507
4290.0 0.00045771
4310.0 0.00047578
4330.0 0.00052603
4350.0 0.00059998
4370.0 0.00067832
4390.0 0.0006534
4410.0 0.0005478
4430.0 0.00046166
4450.0 0.00039277
4470.0 0.0003844
4490.0 0.00041729
4510.0 0.00045666
4530.0 0.00049963
4550.0 0.00058198
4570.0 0.00069995
4590.0 0.00085683
4610.0 0.0010768
4630.0 0.0012901
4650.0 0.0013349
4670.0 0.0013091
4690.0 0.0013942
4710.0 0.001457
4730.0 0.0012385
4750.0 0.00090064
4770.0 0.00073914
4790.0 0.00070534
4810.0 0.00065513
4830.0 0.00062122
4850.0 0.00071548
4870.0 0.00091334
4890.0 0.0010362
4910.0 0.00089124
4930.0 0.00079572
4950.0 0.00089529
4970.0 0.0011925
4990.0 0.001526
5010.0 0.0015993
5030.0 0.0013244
5050.0 0.00087191
5070.0 0.00060327
5090.0 0.00053653
5110.0 0.00056067
5130.0 0.00060129
5150.0 0.00063297
5170.0 0.00063295
5190.0 0.00062213
5210.0 0.000602
5230.0 0.00061172
5250.0 0.00065123
5270.0 0.00076047
5290.0 0.0008783
5310.0 0.00095437
5330.0 0.00097894
5350.0 0.00099412
5370.0 0.0010795
5390.0 0.0011467
5410.0 0.0011152
5430.0 0.00097625
5450.0 0.00090414
5470.0 0.0010191
5490.0 0.0013046
5510.0 0.0016536
5530.0 0.0018226
5550.0 0.0017793
5570.0 0.0016226
5590.0 0.0014601
5610.0 0.0013464
5630.0 0.0012761
5650.0 0.0013099
5670.0 0.001283
5690.0 0.0012045
5710.0 0.001135
5730.0 0.0010181
5750.0 0.00075791
5770.0 0.00066453
5790.0 0.00074123
5810.0 0.00089364
5830.0 0.0010003
5850.0 0.0010783
5870.0 0.0011026
5890.0 0.0010618
5910.0 0.0010166
5930.0 0.001023
5950.0 0.0010737
5970.0 0.0011238
5990.0 0.0010672
6010.0 0.00090282
6030.0 0.00075038
6050.0 0.00065456
6070.0 0.00064868
6090.0 0.00072773
6110.0 0.00079346
6130.0 0.00076426
6150.0 0.00071798
6170.0 0.00079485
6190.0 0.00095561
6210.0 0.0011467
6230.0 0.0012926
6250.0 0.0012871
6270.0 0.0011612
6290.0 0.0009612
6310.0 0.00076694
6330.0 0.00061568
6350.0 0.00055843
6370.0 0.0006089
6390.0 0.00071469
6410.0 0.00081906
6430.0 0.00094744
6450.0 0.0011012
6470.0 0.0013605
6490.0 0.0016684
6510.0 0.0018317
6530.0 0.0017029
6550.0 0.0015718
6570.0 0.0015464
6590.0 0.001486
6610.0 0.0013433
6630.0 0.001206
6650.0 0.0011149
6670.0 0.0011577
6690.0 0.0011514
6710.0 0.0010208
6730.0 0.00094602
6750.0 0.00084124
6770.0 0.00080987
6790.0 0.00087352
6810.0 0.00092053
6830.0 0.00094303
6850.0 0.00092688
6870.0 0.00088854
6890.0 0.00087053
6910.0 0.00082761
6930.0 0.00078186
6950.0 0.00078639
6970.0 0.00080273
6990.0 0.00089369
7010.0 0.00095093
7030.0 0.000866
7050.0 0.00081121
7070.0 0.00078028
7090.0 0.00070205
7110.0 0.00065405
7130.0 0.00066573
7150.0 0.00069139
7170.0 0.00072829
7190.0 0.00072942
7210.0 0.00073304
7230.0 0.00077211
7250.0 0.0008892
7270.0 0.0010387
7290.0 0.0011132
7310.0 0.0010785
7330.0 0.0009593
7350.0 0.00086233
7370.0 0.000848
7390.0 0.00085604
7410.0 0.00088737
7430.0 0.00097158
7450.0 0.0010532
7470.0 0.0011671
7490.0 0.0012896
7510.0 0.0011856
7530.0 0.0011351
7550.0 0.00095336
7570.0 0.00080126
7590.0 0.00066039
7610.0 0.00060623
7630.0 0.00063436
7650.0 0.00072553
7670.0 0.00079045
7690.0 0.00089164
7710.0 0.00099401
7730.0 0.0010396
7750.0 0.0010422
7770.0 0.0010384
7790.0 0.0010233
7810.0 0.001063
7830.0 0.0010277
7850.0 0.000917
7870.0 0.00082822
7890.0 0.00077173
7910.0 0.00069613
7930.0 0.00059574
7950.0 0.0005454
7970.0 0.00054228
7990.0 0.00056763
8010.0 0.00060267
8030.0 0.00061152
8050.0 0.00060907
8070.0 0.00059184
8090.0 0.00058916
8110.0 0.00055993
8130.0 0.0005219
8150.0 0.0004907
8170.0 0.00047877
8190.0 0.00048903
8210.0 0.00049036
8230.0 0.00050995
8250.0 0.0005069
8270.0 0.00045311
8290.0 0.00034808
8310.0 0.00023705
8330.0 0.00015636
8350.0 0.00011099
8370.0 0.00013179
8390.0 0.00014585
8410.0 0.0001868
8430.0 0.00022637
8450.0 0.00024804
8470.0 0.00025728
8490.0 0.00026424
8510.0 0.00027605
8530.0 0.00030872
8550.0 0.00034112
8570.0 0.00040083
8590.0 0.00049164
8610.0 0.00057575
8630.0 0.00067307
8650.0 0.00075709
8670.0 0.00074596
8690.0 0.00069911
8710.0 0.00066077
8730.0 0.00062456
8750.0 0.00059744
8770.0 0.00057984
8790.0 0.00056186
8810.0 0.00052349
8830.0 0.00047208
8850.0 0.00040881
8870.0 0.00034931
8890.0 0.00031554
8910.0 0.00031914
8930.0 0.00031876
8950.0 0.00034614
8970.0 0.00035421
8990.0 0.00036798
9010.0 0.00038164
9030.0 0.00038468
9050.0 0.00038612
9070.0 0.00038719
9090.0 0.00038799
9110.0 0.00038839
9130.0 0.00038902
9150.0 0.0003899
9170.0 0.00039077
9190.0 0.00039163
9210.0 0.00039298
9230.0 0.00039398
9250.0 0.00039513
9270.0 0.00039635
9290.0 0.00039764
9310.0 0.00039905
9330.0 0.00040054
9350.0 0.00040208
9370.0 0.00040371
9390.0 0.00040544
9410.0 0.00040722
9430.0 0.00040904
9450.0 0.00041099
9470.0 0.00041301
9490.0 0.00041506
9510.0 0.0004172
9530.0 0.00041943
9550.0 0.00042168
9570.0 0.00042399
9590.0 0.00042639
9610.0 0.00042885
9630.0 0.00043134
9650.0 0.00043389
9670.0 0.00043654
9690.0 0.0004392
9710.0 0.0004419
9730.0 0.00044469
9750.0 0.00044751
9770.0 0.00045032
9790.0 0.00045322
9810.0 0.00045617
9830.0 0.00045912
9850.0 0.0004621
9870.0 0.00046516
9890.0 0.00046823
9910.0 0.00047129
9930.0 0.0004744
9950.0 0.00047752
9970.0 0.00048065
9990.0 0.00048378
10010.0 0.00047587
10030.0 0.00047893
10050.0 0.00048195
10070.0 0.00048489
10090.0 0.00048803
10110.0 0.00049109
10130.0 0.00049415
10150.0 0.00049724
10170.0 0.00050027
10190.0 0.00050324
10210.0 0.00050624
10230.0 0.00050924
10250.0 0.00051215
10270.0 0.00051504
10290.0 0.00051796
10310.0 0.00052079
10330.0 0.00052353
10350.0 0.0005263
10370.0 0.00052903
10390.0 0.00053166
10410.0 0.00053425
10430.0 0.00053685
10450.0 0.00053934
10470.0 0.00054174
10490.0 0.00054413
10510.0 0.00054647
10530.0 0.00054864
10550.0 0.00055078
10570.0 0.00055291
10590.0 0.00055491
10610.0 0.00055681
10630.0 0.00055869
10650.0 0.00056049
10670.0 0.00056212
10690.0 0.0005637
10710.0 0.00056523
10730.0 0.00056662
10750.0 0.00056787
10770.0 0.00056913
10790.0 0.00057027
10810.0 0.00057125
10830.0 0.00057214
10850.0 0.00057294
10870.0 0.00057343
10890.0 0.0005736
10910.0 0.00057336
10930.0 0.00057236
10950.0 0.00057012
10970.0 0.00056647
10990.0 0.00056129
11010.0 0.00054234
11030.0 0.0005328
11050.0 0.00052169
11070.0 0.00050871
11090.0 0.00049331
11110.0 0.00047757
11130.0 0.00046132
11150.0 0.00044402
11170.0 0.00042649
11190.0 0.00040987
11210.0 0.00039315
11230.0 0.00037656
11250.0 0.00036131
11270.0 0.00034723
11290.0 0.00033369
11310.0 0.00032141
11330.0 0.00031103
11350.0 0.00030154
11370.0 0.000293
11390.0 0.0002857
11410.0 0.00027926
11430.0 0.00027307
11450.0 0.00026739
11470.0 0.00026203
11490.0 0.00025652
11510.0 0.00025062
11530.0 0.00024463
11550.0 0.00023831
11570.0 0.00023131
11590.0 0.00022396
11610.0 0.0002165
11630.0 0.00020853
11650.0 0.00020023
11670.0 0.00019229
11690.0 0.00018451
11710.0 0.00017676
11730.0 0.0001695
11750.0 0.00016299
11770.0 0.00015678
11790.0 0.00015111
11810.0 0.00014621
11830.0 0.00014185
11850.0 0.00013784
11870.0 0.00013439
11890.0 0.00013139
11910.0 0.00012857
11930.0 0.0001259
11950.0 0.0001234
11970.0 0.00012089
11990.0 0.00011823
12010.0 0.00011553
12030.0 0.00011278
12050.0 0.00010983
12070.0 0.00010674
12090.0 0.00010378
12110.0 0.0001008
12130.0 9.7842e-05
12150.0 9.5126e-05
12170.0 9.2726e-05
12190.0 9.0553e-05
12210.0 8.8834e-05
12230.0 8.7634e-05
12250.0 8.6932e-05
12270.0 8.6794e-05
12290.0 8.7217e-05
12310.0 8.8131e-05
12330.0 8.962e-05
12350.0 9.1591e-05
12370.0 9.3875e-05
12390.0 9.6519e-05
12410.0 9.9598e-05
12430.0 0.00010265
12450.0 0.00010571
12470.0 0.00010887
12490.0 0.0001119
12510.0 0.00011458
12530.0 0.0001171
12550.0 0.00011935
12570.0 0.00012112
12590.0 0.00012248
12610.0 0.00012346
12630.0 0.00012397
12650.0 0.000124
12670.0 0.00012364
12690.0 0.00012287
12710.0 0.00012176
12730.0 0.00012034
12750.0 0.00011859
12770.0 0.00011662
12790.0 0.0001145
12810.0 0.00011218
12830.0 0.00010967
12850.0 0.00010714
12870.0 0.00010455
12890.0 0.00010179
12910.0 9.9003e-05
12930.0 9.6233e-05
12950.0 9.332e-05
12970.0 9.0303e-05
12990.0 8.7373e-05
13010.0 8.4412e-05
13030.0 8.1355e-05
13050.0 7.8348e-05
13070.0 7.5474e-05
13090.0 7.2556e-05
13110.0 6.971e-05
13130.0 6.7073e-05
13150.0 6.4588e-05
13170.0 6.2192e-05
13190.0 6.0102e-05
13210.0 5.8313e-05
13230.0 5.6751e-05
13250.0 5.5488e-05
13270.0 5.4569e-05
13290.0 5.3949e-05
13310.0 5.3644e-05
13330.0 5.366e-05
13350.0 5.3953e-05
13370.0 5.4534e-05
13390.0 5.5383e-05
13410.0 5.6366e-05
13430.0 5.7524e-05
13450.0 5.8842e-05
13470.0 6.0198e-05
13490.0 6.1541e-05
13510.0 6.2974e-05
13530.0 6.4337e-05
13550.0 6.5564e-05
13570.0 6.6709e-05
13590.0 6.7763e-05
13610.0 6.8637e-05
13630.0 6.934e-05
13650.0 6.9932e-05
13670.0 7.0359e-05
13690.0 7.0619e-05
13710.0 7.0747e-05
13730.0 7.0745e-05
13750.0 7.0602e-05
13770.0 7.0348e-05
13790.0 6.9985e-05
13810.0 6.9522e-05
13830.0 6.8987e-05
13850.0 6.8361e-05
13870.0 6.7647e-05
13890.0 6.6884e-05
13910.0 6.6068e-05
13930.0 6.5168e-05
13950.0 6.4223e-05
13970.0 6.3284e-05
13990.0 6.2295e-05
14010.0 6.1276e-05
14030.0 6.0286e-05
14050.0 5.9315e-05
14070.0 5.8326e-05
14090.0 5.7405e-05
14110.0 5.6567e-05
14130.0 5.5784e-05
14150.0 5.508e-05
14170.0 5.4505e-05
14190.0 5.4038e-05
14210.0 5.3679e-05
14230.0 5.3454e-05
14250.0 5.3357e-05
14270.0 5.3389e-05
14290.0 5.356e-05
14310.0 5.3839e-05
14330.0 5.4228e-05
14350.0 5.4735e-05
14370.0 5.5321e-05
14390.0 5.5954e-05
14410.0 5.6676e-05
14430.0 5.7449e-05
14450.0 5.8227e-05
14470.0 5.9032e-05
14490.0 5.9901e-05
14510.0 6.0756e-05
14530.0 6.161e-05
14550.0 6.2527e-05
14570.0 6.3497e-05
14590.0 6.4488e-05
14610.0 6.5575e-05
14630.0 6.6809e-05
14650.0 6.8125e-05
14670.0 6.9545e-05
14690.0 7.1159e-05
14710.0 7.2955e-05
14730.0 7.4787e-05
14750.0 7.6792e-05
14770.0 7.8975e-05
14790.0 8.1196e-05
14810.0 8.3426e-05
14830.0 8.5832e-05
14850.0 8.819e-05
14870.0 9.0407e-05
14890.0 9.2564e-05
14910.0 9.4624e-05
14930.0 9.6416e-05
14950.0 9.7943e-05
14970.0 9.9262e-05
14990.0 0.00010027
15010.0 0.00010096
15030.0 0.00010141
15050.0 0.00010164
15070.0 0.00010168
15090.0 0.00010161
15110.0 0.00010146
15130.0 0.00010127
15150.0 0.00010106
15170.0 0.00010083
15190.0 0.00010059
15210.0 0.00010036
15230.0 0.00010013
15250.0 9.9889e-05
15270.0 9.9654e-05
15290.0 9.9434e-05
15310.0 9.9205e-05
15330.0 9.8974e-05
15350.0 9.8753e-05
15370.0 9.8534e-05
15390.0 9.8301e-05
15410.0 9.8076e-05
15430.0 9.786e-05
15450.0 9.7637e-05
15470.0 9.7408e-05
15490.0 9.7194e-05
15510.0 9.6978e-05
15530.0 9.6753e-05
15550.0 9.6533e-05
15570.0 9.6322e-05
15590.0 9.6098e-05
15610.0 9.587e-05
15630.0 9.5657e-05
15650.0 9.544e-05
15670.0 9.5215e-05
15690.0 9.4995e-05
15710.0 9.4784e-05
15730.0 9.456e-05
15750.0 9.4334e-05
15770.0 9.4118e-05
15790.0 9.3899e-05
15810.0 9.3666e-05
15830.0 9.3444e-05
15850.0 9.3227e-05
15870.0 9.3e-05
15890.0 9.2771e-05
15910.0 9.2553e-05
15930.0 9.2327e-05
15950.0 9.209e-05
15970.0 9.1863e-05
15990.0 9.1638e-05
16010.0 9.1402e-05
16030.0 9.1163e-05
16050.0 9.0938e-05
16070.0 9.0705e-05
16090.0 9.0464e-05
16110.0 9.0229e-05
16130.0 8.9999e-05
16150.0 8.9749e-05
16170.0 8.9504e-05
16190.0 8.9268e-05
16210.0 8.9024e-05
16230.0 8.8771e-05
16250.0 8.8528e-05
16270.0 8.8287e-05
16290.0 8.8031e-05
16310.0 8.7777e-05
16330.0 8.753e-05
16350.0 8.7276e-05
16370.0 8.7006e-05
16390.0 8.6753e-05
16410.0 8.6499e-05
16430.0 8.6232e-05
16450.0 8.5967e-05
16470.0 8.5712e-05
16490.0 8.5443e-05
16510.0 8.5168e-05
16530.0 8.4902e-05
16550.0 8.4634e-05
16570.0 8.4353e-05
16590.0 8.4073e-05
16610.0 8.3806e-05
16630.0 8.3526e-05
16650.0 8.3241e-05
16670.0 8.2964e-05
16690.0 8.2685e-05
16710.0 8.2388e-05
16730.0 8.21e-05
16750.0 8.1817e-05
16770.0 8.1524e-05
16790.0 8.1224e-05
16810.0 8.0936e-05
16830.0 8.0644e-05
16850.0 8.0341e-05
16870.0 8.0041e-05
16890.0 7.9748e-05
16910.0 7.944e-05
16930.0 7.9126e-05
16950.0 7.8827e-05
16970.0 7.8521e-05
16990.0 7.8206e-05
17010.0 7.7896e-05
17030.0 7.7592e-05
17050.0 7.7273e-05
17070.0 7.6953e-05
17090.0 7.6641e-05
17110.0 7.6325e-05
17130.0 7.5993e-05
17150.0 7.5673e-05
17170.0 7.5357e-05
17190.0 7.503e-05
17210.0 7.47e-05
17230.0 7.4381e-05
17250.0 7.4053e-05
17270.0 7.3714e-05
17290.0 7.3385e-05
17310.0 7.3058e-05
17330.0 7.2719e-05
17350.0 7.2377e-05
17370.0 7.2051e-05
17390.0 7.1714e-05
17410.0 7.1371e-05
17430.0 7.1034e-05
17450.0 7.0701e-05
17470.0 7.0349e-05
17490.0 7.0003e-05
17510.0 6.9666e-05
17530.0 6.9321e-05
17550.0 6.8969e-05
17570.0 6.8627e-05
17590.0 6.8286e-05
17610.0 6.7932e-05
17630.0 6.7581e-05
17650.0 6.7238e-05
17670.0 6.6887e-05
17690.0 6.6524e-05
17710.0 6.6178e-05
17730.0 6.583e-05
17750.0 6.5472e-05
17770.0 6.5118e-05
17790.0 6.4773e-05
17810.0 6.4415e-05
17830.0 6.4053e-05
17850.0 6.3701e-05
17870.0 6.3349e-05
17890.0 6.2985e-05
17910.0 6.2625e-05
17930.0 6.2277e-05
17950.0 6.1918e-05
17970.0 6.1556e-05
17990.0 6.1203e-05
18010.0 6.085e-05
18030.0 6.048e-05
18050.0 6.0122e-05
18070.0 5.9769e-05
18090.0 5.9408e-05
18110.0 5.9042e-05
18130.0 5.8691e-05
18150.0 5.8335e-05
18170.0 5.7971e-05
18190.0 5.7613e-05
18210.0 5.7261e-05
18230.0 5.6897e-05
18250.0 5.6531e-05
18270.0 5.6179e-05
18290.0 5.5823e-05
18310.0 5.5459e-05
18330.0 5.5103e-05
18350.0 5.4754e-05
18370.0 5.4392e-05
18390.0 5.4031e-05
18410.0 5.368e-05
18430.0 5.3325e-05
18450.0 5.2959e-05
18470.0 5.2606e-05
18490.0 5.2258e-05
18510.0 5.19e-05
18530.0 5.1544e-05
18550.0 5.1198e-05
18570.0 5.0845e-05
18590.0 5.0485e-05
18610.0 5.0135e-05
18630.0 4.9789e-05
18650.0 4.9433e-05
18670.0 4.9078e-05
18690.0 4.8738e-05
18710.0 4.839e-05
18730.0 4.8037e-05
18750.0 4.7693e-05
18770.0 4.7353e-05
18790.0 4.6997e-05
18810.0 4.6649e-05
18830.0 4.6311e-05
18850.0 4.5968e-05
18870.0 4.5619e-05
18890.0 4.5282e-05
18910.0 4.4947e-05
18930.0 4.4601e-05
18950.0 4.426e-05
18970.0 4.3928e-05
18990.0 4.3589e-05
19010.0 4.3241e-05
19030.0 4.2912e-05
19050.0 4.2581e-05
19070.0 4.2243e-05
19090.0 4.191e-05
19110.0 4.1587e-05
19130.0 4.1251e-05
19150.0 4.0916e-05
19170.0 4.0591e-05
19190.0 4.0266e-05
19210.0 3.9932e-05
19230.0 3.9604e-05
19250.0 3.9287e-05
19270.0 3.8961e-05
19290.0 3.8635e-05
19310.0 3.8318e-05
19330.0 3.8001e-05
19350.0 3.7671e-05
19370.0 3.7353e-05
19390.0 3.7041e-05
19410.0 3.6721e-05
19430.0 3.6401e-05
19450.0 3.6093e-05
19470.0 3.5782e-05
19490.0 3.5465e-05
19510.0 3.5155e-05
19530.0 3.4851e-05
19550.0 3.4536e-05
19570.0 3.4222e-05
19590.0 3.3922e-05
19610.0 3.3617e-05
19630.0 3.3308e-05
19650.0 3.3007e-05
19670.0 3.2711e-05
19690.0 3.2405e-05
19710.0 3.2101e-05
19730.0 3.1807e-05
19750.0 3.151e-05
19770.0 3.1204e-05
19790.0 3.0911e-05
19810.0 3.0622e-05
19830.0 3.0324e-05
19850.0 3.0028e-05
19870.0 2.9739e-05
19890.0 2.9438e-05
19910.0 2.912e-05
19930.0 2.8798e-05
19950.0 2.8453e-05
19970.0 2.8063e-05
19990.0 2.7631e-05
20010.0 2.7586e-05
20030.0 2.7059e-05
20050.0 2.6479e-05
20070.0 2.5881e-05
20090.0 2.5267e-05
20110.0 2.4606e-05
20130.0 2.3965e-05
20150.0 2.3353e-05
20170.0 2.2743e-05
20190.0 2.2148e-05
20210.0 2.1602e-05
20230.0 2.1087e-05
20250.0 2.0586e-05
20270.0 2.0134e-05
20290.0 1.9732e-05
20310.0 1.936e-05
20330.0 1.9025e-05
20350.0 1.8754e-05
20370.0 1.8525e-05
20390.0 1.8336e-05
20410.0 1.8197e-05
20430.0 1.8104e-05
20450.0 1.8052e-05
20470.0 1.8045e-05
20490.0 1.8076e-05
20510.0 1.8144e-05
20530.0 1.825e-05
20550.0 1.8385e-05
20570.0 1.854e-05
20590.0 1.8725e-05
20610.0 1.8931e-05
20630.0 1.9144e-05
20650.0 1.9372e-05
20670.0 1.9622e-05
20690.0 1.9867e-05
20710.0 2.0111e-05
20730.0 2.0366e-05
20750.0 2.0623e-05
20770.0 2.0867e-05
20790.0 2.1116e-05
20810.0 2.1373e-05
20830.0 2.1622e-05
20850.0 2.1868e-05
20870.0 2.213e-05
20890.0 2.2395e-05
20910.0 2.265e-05
20930.0 2.2917e-05
20950.0 2.3196e-05
20970.0 2.347e-05
20990.0 2.3743e-05
21010.0 2.4034e-05
21030.0 2.4321e-05
21050.0 2.4595e-05
21070.0 2.487e-05
21090.0 2.5147e-05
21110.0 2.5398e-05
21130.0 2.5632e-05
21150.0 2.5859e-05
21170.0 2.6063e-05
21190.0 2.6238e-05
21210.0 2.6397e-05
21230.0 2.6531e-05
21250.0 2.6631e-05
21270.0 2.6702e-05
21290.0 2.6745e-05
21310.0 2.6754e-05
21330.0 2.673e-05
21350.0 2.6672e-05
21370.0 2.6577e-05
21390.0 2.6449e-05
21410.0 2.6287e-05
21430.0 2.6078e-05
21450.0 2.5838e-05
21470.0 2.5572e-05
21490.0 2.5267e-05
21510.0 2.4926e-05
21530.0 2.4573e-05
21550.0 2.4197e-05
21570.0 2.3788e-05
21590.0 2.3377e-05
21610.0 2.297e-05
21630.0 2.2552e-05
21650.0 2.213e-05
21670.0 2.175e-05
21690.0 2.1385e-05
21710.0 2.1038e-05
21730.0 2.0732e-05
21750.0 2.0471e-05
21770.0 2.0239e-05
21790.0 2.0057e-05
21810.0 1.993e-05
21830.0 1.985e-05
21850.0 1.9822e-05
21870.0 1.9846e-05
21890.0 1.9917e-05
21910.0 2.0039e-05
21930.0 2.0208e-05
21950.0 2.0413e-05
21970.0 2.0659e-05
21990.0 2.0958e-05
22010.0 2.1275e-05
22030.0 2.1615e-05
22050.0 2.1992e-05
22070.0 2.2389e-05
22090.0 2.2781e-05
22110.0 2.3194e-05
22130.0 2.3623e-05
22150.0 2.4038e-05
22170.0 2.4442e-05
22190.0 2.4855e-05
22210.0 2.5248e-05
22230.0 2.5601e-05
22250.0 2.5937e-05
22270.0 2.6248e-05
22290.0 2.6513e-05
22310.0 2.6737e-05
22330.0 2.6927e-05
22350.0 2.7065e-05
22370.0 2.715e-05
22390.0 2.7186e-05
22410.0 2.7165e-05
22430.0 2.709e-05
22450.0 2.6964e-05
22470.0 2.6778e-05
22490.0 2.6539e-05
22510.0 2.6259e-05
22530.0 2.5916e-05
22550.0 2.5515e-05
22570.0 2.5086e-05
22590.0 2.4616e-05
22610.0 2.4089e-05
22630.0 2.3531e-05
22650.0 2.2967e-05
22670.0 2.2353e-05
22690.0 2.1708e-05
