#lamb flux
1010.0 1.1263e-05
1030.0 1.1739e-05
1050.0 1.2291e-05
1070.0 1.2914e-05
1090.0 1.3623e-05
1110.0 1.4353e-05
1130.0 1.5093e-05
1150.0 1.5871e-05
1170.0 1.6678e-05
1190.0 1.7451e-05
1210.0 1.8239e-05
1230.0 1.906e-05
1250.0 1.9871e-05
1270.0 2.0668e-05
1290.0 2.1515e-05
1310.0 2.237e-05
1330.0 2.3201e-05
1350.0 2.4049e-05
1370.0 2.4933e-05
1390.0 2.5807e-05
1410.0 2.6667e-05
1430.0 2.7573e-05
1450.0 2.849e-05
1470.0 2.939e-05
1490.0 3.0308e-05
1510.0 3.1282e-05
1530.0 3.2221e-05
1550.0 3.3157e-05
1570.0 3.4129e-05
1590.0 3.5107e-05
1610.0 3.6054e-05
1630.0 3.7028e-05
1650.0 3.8027e-05
1670.0 3.8996e-05
1690.0 3.9953e-05
1710.0 4.0937e-05
1730.0 4.1919e-05
1750.0 4.284e-05
1770.0 4.3772e-05
1790.0 4.4708e-05
1810.0 4.5599e-05
1830.0 4.6457e-05
1850.0 4.7345e-05
1870.0 4.8186e-05
1890.0 4.8974e-05
1910.0 4.9754e-05
1930.0 5.0526e-05
1950.0 5.1232e-05
1970.0 5.1901e-05
1990.0 5.2574e-05
2010.0 5.3208e-05
2030.0 5.3788e-05
2050.0 5.437e-05
2070.0 5.4955e-05
2090.0 5.5476e-05
2110.0 5.5984e-05
2130.0 5.6508e-05
2150.0 5.7015e-05
2170.0 5.7491e-05
2190.0 5.8006e-05
2210.0 5.854e-05
2230.0 5.9065e-05
2250.0 5.9615e-05
2270.0 6.0234e-05
2290.0 6.0871e-05
2310.0 6.1526e-05
2330.0 6.226e-05
2350.0 6.3064e-05
2370.0 6.3907e-05
2390.0 6.4835e-05
2410.0 6.5883e-05
2430.0 6.6996e-05
2450.0 6.8184e-05
2470.0 6.9482e-05
2490.0 7.0881e-05
2510.0 7.2349e-05
2530.0 7.4029e-05
2550.0 7.6158e-05
2570.0 7.9059e-05
2590.0 8.317e-05
2610.0 8.9506e-05
2630.0 9.8624e-05
2650.0 0.00011044
2670.0 0.00012537
2690.0 0.00014333
2710.0 0.00016255
2730.0 0.00018206
2750.0 0.0002022
2770.0 0.00022162
2790.0 0.00023983
2810.0 0.00025773
2830.0 0.00027611
2850.0 0.0002941
2870.0 0.0003126
2890.0 0.00033234
2910.0 0.00035302
2930.0 0.00037412
2950.0 0.00039664
2970.0 0.00042048
2990.0 0.00044477
3010.0 0.00081452
3030.0 0.00085997
3050.0 0.00090563
3070.0 0.00094813
3090.0 0.00098583
3110.0 0.0010107
3130.0 0.001013
3150.0 0.00098175
3170.0 0.00089497
3190.0 0.00074917
3210.0 0.00054559
3230.0 0.00031416
3250.0 0.00055075
3270.0 0.00023806
3290.0 0.00079739
3310.0 0.00015869
3330.0 0.00016189
3350.0 0.00024822
3370.0 0.00034653
3390.0 0.00045079
3410.0 0.00055461
3430.0 0.00066306
3450.0 0.00077114
3470.0 0.00087021
3490.0 0.00093513
3510.0 0.0011641
3530.0 0.0015944
3550.0 0.0015983
3570.0 0.0013572
3590.0 0.0019449
3610.0 0.0012537
3630.0 0.0020211
3650.0 0.0022942
3670.0 0.0029493
3690.0 0.0028201
3710.0 0.0020125
3730.0 0.0026883
3750.0 0.0027954
3770.0 0.0028799
3790.0 0.0026053
3810.0 0.0022898
3830.0 0.0031659
3850.0 0.0034057
3870.0 0.0042296
3890.0 0.003992
3910.0 0.0036242
3930.0 0.0039231
3950.0 0.0044154
3970.0 0.0057584
3990.0 0.004637
4010.0 0.003064
4030.0 0.0041266
4050.0 0.0045136
4070.0 0.0051289
4090.0 0.0045013
4110.0 0.0030783
4130.0 0.0040582
4150.0 0.0037303
4170.0 0.003953
4190.0 0.0039337
4210.0 0.0048855
4230.0 0.0034171
4250.0 0.004083
4270.0 0.0040786
4290.0 0.0041236
4310.0 0.0050227
4330.0 0.0051509
4350.0 0.0039944
4370.0 0.0034589
4390.0 0.0041966
4410.0 0.004275
4430.0 0.0033035
4450.0 0.0033238
4470.0 0.0038518
4490.0 0.0028745
4510.0 0.0034988
4530.0 0.0037784
4550.0 0.0050516
4570.0 0.0073971
4590.0 0.0071838
4610.0 0.0048069
4630.0 0.0076421
4650.0 0.010935
4670.0 0.010116
4690.0 0.0060109
4710.0 0.0064947
4730.0 0.008391
4750.0 0.0075005
4770.0 0.0056804
4790.0 0.0039279
4810.0 0.0056693
4830.0 0.0065393
4850.0 0.005845
4870.0 0.0021194
4890.0 0.0062743
4910.0 0.0086992
4930.0 0.0093287
4950.0 0.0092016
4970.0 0.0058098
4990.0 0.0066653
5010.0 0.0077452
5030.0 0.0084149
5050.0 0.0082939
5070.0 0.0060003
5090.0 0.0049253
5110.0 0.0046068
5130.0 0.0041089
5150.0 0.0046965
5170.0 0.0040943
5190.0 0.0050703
5210.0 0.0050708
5230.0 0.0055622
5250.0 0.007071
5270.0 0.0060224
5290.0 0.0059298
5310.0 0.0086753
5330.0 0.010073
5350.0 0.0085471
5370.0 0.007488
5390.0 0.0085
5410.0 0.010651
5430.0 0.011755
5450.0 0.01264
5470.0 0.012778
5490.0 0.012571
5510.0 0.014712
5530.0 0.015297
5550.0 0.016406
5570.0 0.017435
5590.0 0.017333
5610.0 0.016481
5630.0 0.01596
5650.0 0.016308
5670.0 0.01619
5690.0 0.013894
5710.0 0.013365
5730.0 0.013549
5750.0 0.014804
5770.0 0.012908
5790.0 0.011876
5810.0 0.012082
5830.0 0.012727
5850.0 0.011688
5870.0 0.011794
5890.0 0.014035
5910.0 0.013439
5930.0 0.011098
5950.0 0.0096904
5970.0 0.010385
5990.0 0.0096149
6010.0 0.0090821
6030.0 0.0092968
6050.0 0.0087218
6070.0 0.0066013
6090.0 0.0059379
6110.0 0.00764
6130.0 0.0088014
6150.0 0.0092626
6170.0 0.0090361
6190.0 0.0085119
6210.0 0.0083407
6230.0 0.0096383
6250.0 0.0089092
6270.0 0.008148
6290.0 0.0074867
6310.0 0.0070818
6330.0 0.0067387
6350.0 0.0059068
6370.0 0.0058689
6390.0 0.0069552
6410.0 0.0086382
6430.0 0.0099194
6450.0 0.0093544
6470.0 0.0091788
6490.0 0.011428
6510.0 0.013075
6530.0 0.012387
6550.0 0.011923
6570.0 0.012107
6590.0 0.01173
6610.0 0.012742
6630.0 0.011998
6650.0 0.010633
6670.0 0.0095844
6690.0 0.009281
6710.0 0.011334
6730.0 0.010423
6750.0 0.0089736
6770.0 0.0080929
6790.0 0.0084815
6810.0 0.0093802
6830.0 0.009156
6850.0 0.0083342
6870.0 0.0086072
6890.0 0.008451
6910.0 0.0079785
6930.0 0.0091403
6950.0 0.0084808
6970.0 0.0079545
6990.0 0.0079458
7010.0 0.0076055
7030.0 0.0071629
7050.0 0.0069091
7070.0 0.0074642
7090.0 0.0070728
7110.0 0.0061375
7130.0 0.0049707
7150.0 0.0045123
7170.0 0.0059749
7190.0 0.006511
7210.0 0.0062982
7230.0 0.0065548
7250.0 0.0061101
7270.0 0.0058205
7290.0 0.0064331
7310.0 0.0071663
7330.0 0.0070332
7350.0 0.006603
7370.0 0.0063132
7390.0 0.006614
7410.0 0.007709
7430.0 0.0084307
7450.0 0.0089777
7470.0 0.0088278
7490.0 0.0090648
7510.0 0.0086931
7530.0 0.0086831
7550.0 0.0085552
7570.0 0.0075274
7590.0 0.007443
7610.0 0.0072215
7630.0 0.0067181
7650.0 0.0073622
7670.0 0.0080253
7690.0 0.0087011
7710.0 0.0096846
7730.0 0.010304
7750.0 0.010754
7770.0 0.01074
7790.0 0.011702
7810.0 0.012062
7830.0 0.011145
7850.0 0.011209
7870.0 0.010663
7890.0 0.011116
7910.0 0.010526
7930.0 0.010588
7950.0 0.0093923
7970.0 0.0096205
7990.0 0.009216
8010.0 0.0092018
8030.0 0.0091536
8050.0 0.0095823
8070.0 0.0092336
8090.0 0.0092468
8110.0 0.0090033
8130.0 0.0089885
8150.0 0.0085973
8170.0 0.0083511
8190.0 0.0082392
8210.0 0.0082916
8230.0 0.0073777
8250.0 0.0067499
8270.0 0.0059159
8290.0 0.004912
8310.0 0.004186
8330.0 0.0033353
8350.0 0.0028055
8370.0 0.0028912
8390.0 0.0029599
8410.0 0.0031391
8430.0 0.0038189
8450.0 0.0040799
8470.0 0.0043057
8490.0 0.0049247
8510.0 0.0053644
8530.0 0.0061741
8550.0 0.007291
8570.0 0.0081199
8590.0 0.0087054
8610.0 0.0094885
8630.0 0.010412
8650.0 0.01057
8670.0 0.010669
8690.0 0.011068
8710.0 0.010945
8730.0 0.010829
8750.0 0.010244
8770.0 0.01024
8790.0 0.010089
8810.0 0.0093048
8830.0 0.0092777
8850.0 0.0087042
8870.0 0.0083551
8890.0 0.0076473
8910.0 0.008172
8930.0 0.0074796
8950.0 0.0073416
8970.0 0.0073489
8990.0 0.007101
9010.0 0.0072109
9030.0 0.0069237
9050.0 0.0068857
9070.0 0.006877
9090.0 0.0068671
9110.0 0.0068596
9130.0 0.0068474
9150.0 0.006833
9170.0 0.0068025
9190.0 0.0067465
9210.0 0.0068228
9230.0 0.0067865
9250.0 0.0067603
9270.0 0.0067356
9290.0 0.0067117
9310.0 0.0066886
9330.0 0.0066655
9350.0 0.0066418
9370.0 0.0066178
9390.0 0.0065933
9410.0 0.0065681
9430.0 0.0065421
9450.0 0.0065153
9470.0 0.0064882
9490.0 0.0064612
9510.0 0.0064335
9530.0 0.0064055
9550.0 0.0063768
9570.0 0.0063479
9590.0 0.0063187
9610.0 0.0062892
9630.0 0.0062594
9650.0 0.0062295
9670.0 0.0061994
9690.0 0.0061692
9710.0 0.0061389
9730.0 0.0061086
9750.0 0.0060782
9770.0 0.0060478
9790.0 0.0060174
9810.0 0.0059872
9830.0 0.005957
9850.0 0.0059269
9870.0 0.005897
9890.0 0.0058671
9910.0 0.0058375
9930.0 0.0058079
9950.0 0.0057612
9970.0 0.0057375
9990.0 0.005713
10010.0 0.0056883
10030.0 0.0056624
10050.0 0.0056346
10070.0 0.0056013
10090.0 0.0055773
10110.0 0.0055522
10130.0 0.0055273
10150.0 0.0055027
10170.0 0.0054775
10190.0 0.0054517
10210.0 0.0054272
10230.0 0.0054033
10250.0 0.005379
10270.0 0.0053552
10290.0 0.0053327
10310.0 0.0053098
10330.0 0.0052867
10350.0 0.0052651
10370.0 0.005244
10390.0 0.0052226
10410.0 0.0052018
10430.0 0.0051823
10450.0 0.0051626
10470.0 0.0051429
10490.0 0.0051244
10510.0 0.0051065
10530.0 0.0050878
10550.0 0.0050702
10570.0 0.0050536
10590.0 0.005037
10610.0 0.0050204
10630.0 0.0050051
10650.0 0.0049901
10670.0 0.0049747
10690.0 0.0049601
10710.0 0.0049465
10730.0 0.0049327
10750.0 0.0049187
10770.0 0.0049064
10790.0 0.0048941
10810.0 0.0048817
10830.0 0.0048698
10850.0 0.0048586
10870.0 0.004846
10890.0 0.0048323
10910.0 0.0048172
10930.0 0.0047981
10950.0 0.0047717
10970.0 0.0047374
10990.0 0.0046947
11010.0 0.00461
11030.0 0.0045451
11050.0 0.0044701
11070.0 0.0043841
11090.0 0.0042847
11110.0 0.0041856
11130.0 0.0040861
11150.0 0.0039831
11170.0 0.0038814
11190.0 0.003787
11210.0 0.0036935
11230.0 0.0036015
11250.0 0.003517
11270.0 0.0034385
11290.0 0.0033617
11310.0 0.0032903
11330.0 0.0032282
11350.0 0.0031691
11370.0 0.0031134
11390.0 0.0030637
11410.0 0.0030181
11430.0 0.0029723
11450.0 0.0029294
11470.0 0.0028891
11490.0 0.0028479
11510.0 0.0028047
11530.0 0.0027624
11550.0 0.002719
11570.0 0.0026713
11590.0 0.0026217
11610.0 0.0025717
11630.0 0.002517
11650.0 0.0024584
11670.0 0.0024009
11690.0 0.0023422
11710.0 0.0022803
11730.0 0.0022191
11750.0 0.0021611
11770.0 0.0021017
11790.0 0.0020432
11810.0 0.0019892
11830.0 0.0019378
11850.0 0.0018862
11870.0 0.0018395
11890.0 0.0017976
11910.0 0.0017569
11930.0 0.0017185
11950.0 0.0016845
11970.0 0.0016521
11990.0 0.0016201
12010.0 0.001591
12030.0 0.001564
12050.0 0.0015373
12070.0 0.0015111
12090.0 0.0014882
12110.0 0.0014659
12130.0 0.0014442
12150.0 0.0014247
12170.0 0.0014079
12190.0 0.0013918
12210.0 0.0013787
12230.0 0.0013696
12250.0 0.0013638
12270.0 0.0013619
12290.0 0.0013648
12310.0 0.0013725
12330.0 0.0013852
12350.0 0.001403
12370.0 0.0014253
12390.0 0.0014521
12410.0 0.0014843
12430.0 0.0015187
12450.0 0.0015551
12470.0 0.0015942
12490.0 0.0016342
12510.0 0.0016728
12530.0 0.0017116
12550.0 0.0017496
12570.0 0.0017846
12590.0 0.001817
12610.0 0.0018476
12630.0 0.0018749
12650.0 0.0018984
12670.0 0.0019192
12690.0 0.0019372
12710.0 0.0019519
12730.0 0.001964
12750.0 0.0019734
12770.0 0.00198
12790.0 0.0019845
12810.0 0.0019864
12830.0 0.0019857
12850.0 0.0019834
12870.0 0.001979
12890.0 0.001972
12910.0 0.001963
12930.0 0.0019527
12950.0 0.0019395
12970.0 0.0019238
12990.0 0.0019072
13010.0 0.0018888
13030.0 0.0018675
13050.0 0.001845
13070.0 0.0018221
13090.0 0.0017967
13110.0 0.0017701
13130.0 0.001744
13150.0 0.0017178
13170.0 0.0016903
13190.0 0.001665
13210.0 0.0016423
13230.0 0.0016208
13250.0 0.0016019
13270.0 0.001587
13290.0 0.0015751
13310.0 0.0015662
13330.0 0.0015613
13350.0 0.0015597
13370.0 0.0015607
13390.0 0.0015639
13410.0 0.0015686
13430.0 0.0015738
13450.0 0.0015787
13470.0 0.0015824
13490.0 0.0015844
13510.0 0.0015836
13530.0 0.0015798
13550.0 0.0015732
13570.0 0.0015634
13590.0 0.0015501
13610.0 0.0015347
13630.0 0.0015177
13650.0 0.0014983
13670.0 0.001478
13690.0 0.0014579
13710.0 0.0014376
13730.0 0.0014167
13750.0 0.0013979
13770.0 0.0013802
13790.0 0.0013629
13810.0 0.0013468
13830.0 0.0013323
13850.0 0.0013182
13870.0 0.0013045
13890.0 0.0012918
13910.0 0.0012796
13930.0 0.0012672
13950.0 0.0012551
13970.0 0.0012438
13990.0 0.0012324
14010.0 0.001221
14030.0 0.0012104
14050.0 0.0012004
14070.0 0.0011905
14090.0 0.0011816
14110.0 0.0011737
14130.0 0.0011666
14150.0 0.0011604
14170.0 0.0011554
14190.0 0.0011514
14210.0 0.0011483
14230.0 0.0011464
14250.0 0.0011454
14270.0 0.0011456
14290.0 0.0011468
14310.0 0.0011488
14330.0 0.0011516
14350.0 0.0011554
14370.0 0.0011597
14390.0 0.0011643
14410.0 0.0011694
14430.0 0.0011747
14450.0 0.0011796
14470.0 0.0011843
14490.0 0.001189
14510.0 0.0011928
14530.0 0.0011959
14550.0 0.0011987
14570.0 0.0012011
14590.0 0.0012031
14610.0 0.001205
14630.0 0.0012075
14650.0 0.0012102
14670.0 0.0012135
14690.0 0.0012182
14710.0 0.0012244
14730.0 0.0012315
14750.0 0.0012406
14770.0 0.0012519
14790.0 0.0012647
14810.0 0.0012789
14830.0 0.0012962
14850.0 0.0013148
14870.0 0.0013338
14890.0 0.0013539
14910.0 0.0013747
14930.0 0.0013939
14950.0 0.0014107
14970.0 0.0014259
14990.0 0.0014372
15010.0 0.001444
15030.0 0.0014471
15050.0 0.0014468
15070.0 0.0014431
15090.0 0.0014373
15110.0 0.0014301
15130.0 0.001422
15150.0 0.0014134
15170.0 0.0014046
15190.0 0.0013956
15210.0 0.0013866
15230.0 0.0013776
15250.0 0.0013685
15270.0 0.0013594
15290.0 0.0013504
15310.0 0.0013414
15330.0 0.0013324
15350.0 0.0013234
15370.0 0.0013145
15390.0 0.0013054
15410.0 0.0012965
15430.0 0.0012876
15450.0 0.0012787
15470.0 0.0012698
15490.0 0.001261
15510.0 0.0012523
15530.0 0.0012434
15550.0 0.0012347
15570.0 0.001226
15590.0 0.0012173
15610.0 0.0012086
15630.0 0.0012001
15650.0 0.0011916
15670.0 0.001183
15690.0 0.0011745
15710.0 0.0011662
15730.0 0.0011578
15750.0 0.0011494
15770.0 0.0011411
15790.0 0.0011329
15810.0 0.0011246
15830.0 0.0011165
15850.0 0.0011084
15870.0 0.0011004
15890.0 0.0010924
15910.0 0.0010845
15930.0 0.0010766
15950.0 0.0010687
15970.0 0.001061
15990.0 0.0010533
16010.0 0.0010456
16030.0 0.0010379
16050.0 0.0010304
16070.0 0.001023
16090.0 0.0010155
16110.0 0.0010081
16130.0 0.0010009
16150.0 0.00099355
16170.0 0.00098632
16190.0 0.00097922
16210.0 0.00097215
16230.0 0.00096508
16250.0 0.00095815
16270.0 0.00095129
16290.0 0.00094442
16310.0 0.00093763
16330.0 0.00093096
16350.0 0.0009243
16370.0 0.00091763
16390.0 0.00091113
16410.0 0.00090468
16430.0 0.00089824
16450.0 0.00089188
16470.0 0.00088564
16490.0 0.0008794
16510.0 0.00087319
16530.0 0.0008671
16550.0 0.00086107
16570.0 0.00085503
16590.0 0.00084908
16610.0 0.00084326
16630.0 0.00083744
16650.0 0.00083166
16670.0 0.00082599
16690.0 0.00082038
16710.0 0.00081474
16730.0 0.00080922
16750.0 0.00080379
16770.0 0.00079837
16790.0 0.00079298
16810.0 0.00078772
16830.0 0.00078251
16850.0 0.00077729
16870.0 0.00077217
16890.0 0.00076714
16910.0 0.0007621
16930.0 0.00075709
16950.0 0.00075222
16970.0 0.00074738
16990.0 0.00074254
17010.0 0.0007378
17030.0 0.00073315
17050.0 0.00072848
17070.0 0.00072386
17090.0 0.00071935
17110.0 0.00071487
17130.0 0.00071037
17150.0 0.00070599
17170.0 0.00070169
17190.0 0.00069738
17210.0 0.00069312
17230.0 0.00068897
17250.0 0.00068482
17270.0 0.00068067
17290.0 0.00067663
17310.0 0.00067265
17330.0 0.00066866
17350.0 0.00066471
17370.0 0.00066089
17390.0 0.00065707
17410.0 0.00065326
17430.0 0.00064953
17450.0 0.00064587
17470.0 0.00064217
17490.0 0.00063854
17510.0 0.000635
17530.0 0.00063147
17550.0 0.00062795
17570.0 0.00062452
17590.0 0.00062115
17610.0 0.00061775
17630.0 0.00061442
17650.0 0.00061116
17670.0 0.00060791
17690.0 0.00060463
17710.0 0.00060148
17730.0 0.00059837
17750.0 0.00059524
17770.0 0.00059217
17790.0 0.00058919
17810.0 0.00058617
17830.0 0.00058318
17850.0 0.00058027
17870.0 0.0005774
17890.0 0.0005745
17910.0 0.00057166
17930.0 0.00056891
17950.0 0.00056614
17970.0 0.00056339
17990.0 0.00056072
18010.0 0.00055808
18030.0 0.00055539
18050.0 0.00055279
18070.0 0.00055024
18090.0 0.00054768
18110.0 0.00054514
18130.0 0.00054269
18150.0 0.00054024
18170.0 0.00053779
18190.0 0.00053539
18210.0 0.00053305
18230.0 0.00053067
18250.0 0.00052831
18270.0 0.00052605
18290.0 0.0005238
18310.0 0.00052152
18330.0 0.00051932
18350.0 0.00051716
18370.0 0.00051497
18390.0 0.00051281
18410.0 0.00051072
18430.0 0.00050863
18450.0 0.00050651
18470.0 0.00050447
18490.0 0.00050247
18510.0 0.00050045
18530.0 0.00049846
18550.0 0.00049654
18570.0 0.0004946
18590.0 0.00049264
18610.0 0.00049076
18630.0 0.0004889
18650.0 0.00048702
18670.0 0.00048516
18690.0 0.00048339
18710.0 0.0004816
18730.0 0.0004798
18750.0 0.00047806
18770.0 0.00047635
18790.0 0.00047458
18810.0 0.00047286
18830.0 0.00047121
18850.0 0.00046954
18870.0 0.00046786
18890.0 0.00046625
18910.0 0.00046466
18930.0 0.00046303
18950.0 0.00046144
18970.0 0.0004599
18990.0 0.00045834
19010.0 0.00045675
19030.0 0.00045526
19050.0 0.00045377
19070.0 0.00045226
19090.0 0.00045078
19110.0 0.00044936
19130.0 0.00044789
19150.0 0.00044643
19170.0 0.00044503
19190.0 0.00044363
19210.0 0.0004422
19230.0 0.00044081
19250.0 0.00043948
19270.0 0.00043812
19290.0 0.00043675
19310.0 0.00043545
19330.0 0.00043415
19350.0 0.00043279
19370.0 0.00043149
19390.0 0.00043023
19410.0 0.00042894
19430.0 0.00042765
19450.0 0.00042643
19470.0 0.0004252
19490.0 0.00042394
19510.0 0.00042273
19530.0 0.00042154
19550.0 0.00042031
19570.0 0.00041909
19590.0 0.00041793
19610.0 0.00041677
19630.0 0.00041558
19650.0 0.00041443
19670.0 0.00041332
19690.0 0.00041215
19710.0 0.000411
19730.0 0.0004099
19750.0 0.00040879
19770.0 0.00040764
19790.0 0.00040655
19810.0 0.00040548
19830.0 0.00040437
19850.0 0.00040325
19870.0 0.00040216
19890.0 0.00040096
19910.0 0.00039959
19930.0 0.00039805
19950.0 0.00039621
19970.0 0.00039381
19990.0 0.00039078
20010.0 0.00038725
20030.0 0.00038288
20050.0 0.0003777
20070.0 0.00037208
20090.0 0.00036604
20110.0 0.00035923
20130.0 0.00035239
20150.0 0.00034567
20170.0 0.00033875
20190.0 0.00033178
20210.0 0.00032525
20230.0 0.00031892
20250.0 0.0003126
20270.0 0.00030676
20290.0 0.00030148
20310.0 0.00029649
20330.0 0.00029187
20350.0 0.00028814
20370.0 0.00028492
20390.0 0.00028223
20410.0 0.00028025
20430.0 0.00027896
20450.0 0.00027826
20470.0 0.00027824
20490.0 0.00027885
20510.0 0.00028005
20530.0 0.00028188
20550.0 0.00028419
20570.0 0.00028686
20590.0 0.00029001
20610.0 0.00029351
20630.0 0.00029712
20650.0 0.00030093
20670.0 0.00030501
20690.0 0.00030891
20710.0 0.00031268
20730.0 0.0003164
20750.0 0.00031991
20770.0 0.000323
20790.0 0.00032583
20810.0 0.00032836
20830.0 0.00033044
20850.0 0.0003321
20870.0 0.00033341
20890.0 0.00033431
20910.0 0.00033479
20930.0 0.00033494
20950.0 0.00033473
20970.0 0.00033424
20990.0 0.00033349
21010.0 0.00033243
21030.0 0.00033116
21050.0 0.00032975
21070.0 0.00032813
21090.0 0.0003263
21110.0 0.00032444
21130.0 0.00032252
21150.0 0.00032047
21170.0 0.0003184
21190.0 0.00031642
21210.0 0.0003144
21230.0 0.0003124
21250.0 0.00031061
21270.0 0.00030896
21290.0 0.00030742
21310.0 0.0003061
21330.0 0.00030507
21350.0 0.00030424
21370.0 0.00030366
21390.0 0.00030339
21410.0 0.00030339
21430.0 0.00030367
21450.0 0.00030425
21470.0 0.00030507
21490.0 0.00030617
21510.0 0.00030752
21530.0 0.00030905
21550.0 0.00031077
21570.0 0.00031275
21590.0 0.00031485
21610.0 0.00031703
21630.0 0.00031941
21650.0 0.00032196
21670.0 0.00032445
21690.0 0.00032706
21710.0 0.00032982
21730.0 0.0003326
21750.0 0.00033536
21770.0 0.00033834
21790.0 0.00034136
21810.0 0.00034435
21830.0 0.00034741
21850.0 0.00035064
21870.0 0.00035383
21890.0 0.00035697
21910.0 0.00036027
21930.0 0.00036358
21950.0 0.00036679
21970.0 0.00037003
21990.0 0.00037337
22010.0 0.00037649
22030.0 0.00037948
22050.0 0.00038242
22070.0 0.00038518
22090.0 0.00038763
22110.0 0.0003899
22130.0 0.00039193
22150.0 0.00039357
22170.0 0.00039485
22190.0 0.00039577
22210.0 0.00039625
22230.0 0.00039627
22250.0 0.00039584
22270.0 0.00039489
22290.0 0.0003935
22310.0 0.00039167
22330.0 0.00038924
22350.0 0.00038636
22370.0 0.00038315
22390.0 0.00037943
22410.0 0.00037518
22430.0 0.00037079
22450.0 0.00036613
22470.0 0.00036102
22490.0 0.00035575
22510.0 0.00035051
22530.0 0.00034491
22550.0 0.00033914
22570.0 0.0003336
22590.0 0.00032809
22610.0 0.00032246
22630.0 0.00031701
22650.0 0.00031194
22670.0 0.00030684
22690.0 0.00030188
22710.0 0.00029732
22730.0 0.00029298
22750.0 0.00028865
22770.0 0.00028474
22790.0 0.00028118
22810.0 0.00027775
22830.0 0.00027453
22850.0 0.00027167
22870.0 0.00026899
22890.0 0.00026643
22910.0 0.00026416
22930.0 0.00026213
22950.0 0.00026022
22970.0 0.00025847
22990.0 0.00025703
23010.0 0.00025573
23030.0 0.00025457
23050.0 0.00025363
23070.0 0.00025288
23090.0 0.00025225
23110.0 0.0002518
23130.0 0.00025152
23150.0 0.00025138
23170.0 0.00025136
23190.0 0.00025146
23210.0 0.00025165
23230.0 0.00025194
23250.0 0.00025231
23270.0 0.00025272
23290.0 0.0002532
23310.0 0.00025375
23330.0 0.00025431
23350.0 0.0002549
23370.0 0.00025554
