#lamb flux
1010.0 2.0027e-07
1030.0 2.2471e-07
1050.0 2.528e-07
1070.0 2.8444e-07
1090.0 3.2037e-07
1110.0 3.5722e-07
1130.0 3.9431e-07
1150.0 4.3316e-07
1170.0 4.7324e-07
1190.0 5.1124e-07
1210.0 5.4976e-07
1230.0 5.8956e-07
1250.0 6.2855e-07
1270.0 6.6642e-07
1290.0 7.0643e-07
1310.0 7.4642e-07
1330.0 7.8476e-07
1350.0 8.2353e-07
1370.0 8.6356e-07
1390.0 9.0259e-07
1410.0 9.4045e-07
1430.0 9.8003e-07
1450.0 1.0196e-06
1470.0 1.0578e-06
1490.0 1.0965e-06
1510.0 1.1373e-06
1530.0 1.176e-06
1550.0 1.2141e-06
1570.0 1.2535e-06
1590.0 1.2929e-06
1610.0 1.3306e-06
1630.0 1.3694e-06
1650.0 1.4092e-06
1670.0 1.4476e-06
1690.0 1.4856e-06
1710.0 1.5249e-06
1730.0 1.5644e-06
1750.0 1.6014e-06
1770.0 1.6394e-06
1790.0 1.6781e-06
1810.0 1.7154e-06
1830.0 1.752e-06
1850.0 1.7906e-06
1870.0 1.828e-06
1890.0 1.8639e-06
1910.0 1.9003e-06
1930.0 1.9374e-06
1950.0 1.9723e-06
1970.0 2.0064e-06
1990.0 2.0415e-06
2010.0 2.0755e-06
2030.0 2.1077e-06
2050.0 2.1404e-06
2070.0 2.1734e-06
2090.0 2.2035e-06
2110.0 2.2328e-06
2130.0 2.2623e-06
2150.0 2.2903e-06
2170.0 2.3157e-06
2190.0 2.3414e-06
2210.0 2.3663e-06
2230.0 2.3885e-06
2250.0 2.4094e-06
2270.0 2.4305e-06
2290.0 2.4492e-06
2310.0 2.465e-06
2330.0 2.4805e-06
2350.0 2.495e-06
2370.0 2.5069e-06
2390.0 2.5185e-06
2410.0 2.5319e-06
2430.0 2.5456e-06
2450.0 2.5609e-06
2470.0 2.5818e-06
2490.0 2.6098e-06
2510.0 2.6421e-06
2530.0 2.6871e-06
2550.0 2.7561e-06
2570.0 2.8592e-06
2590.0 3.0127e-06
2610.0 3.2649e-06
2630.0 3.6314e-06
2650.0 4.0975e-06
2670.0 4.6746e-06
2690.0 5.3442e-06
2710.0 6.0072e-06
2730.0 6.6094e-06
2750.0 7.1536e-06
2770.0 7.5732e-06
2790.0 7.8547e-06
2810.0 8.0348e-06
2830.0 8.1377e-06
2850.0 8.163e-06
2870.0 8.1474e-06
2890.0 8.1113e-06
2910.0 8.0602e-06
2930.0 7.9983e-06
2950.0 7.9369e-06
2970.0 7.877e-06
2990.0 7.8153e-06
3010.0 0.00020251
3030.0 0.00020098
3050.0 0.00019947
3070.0 0.00019785
3090.0 0.00019615
3110.0 0.0001942
3130.0 0.00019175
3150.0 0.00018867
3170.0 0.00018469
3190.0 0.0001799
3210.0 0.00017464
3230.0 0.0001692
3250.0 0.00016418
3270.0 0.00016057
3290.0 0.00015853
3310.0 0.00015871
3330.0 0.00016089
3350.0 0.00016478
3370.0 0.00017043
3390.0 0.00017763
3410.0 0.00018553
3430.0 0.0001945
3450.0 0.00020489
3470.0 0.00021627
3490.0 0.00022837
3510.0 0.00024203
3530.0 0.00025676
3550.0 0.00027203
3570.0 0.00028847
3590.0 0.00030698
3610.0 0.00032695
3630.0 0.00034765
3650.0 0.00036953
3670.0 0.00038984
3690.0 0.00040547
3710.0 0.00041435
3730.0 0.00041308
3750.0 0.00040133
3770.0 0.00038453
3790.0 0.00035667
3810.0 0.0003062
3830.0 0.00027468
3850.0 0.00027053
3870.0 0.00020541
3890.0 0.00023964
3910.0 0.00035455
3930.0 0.00044326
3950.0 0.00045497
3970.0 0.00050026
3990.0 0.0005097
4010.0 0.00070601
4030.0 0.00067955
4050.0 0.00060178
4070.0 0.00059503
4090.0 0.00056879
4110.0 0.00064604
4130.0 0.00072537
4150.0 0.00080129
4170.0 0.00073538
4190.0 0.00070838
4210.0 0.00073143
4230.0 0.00085596
4250.0 0.00095957
4270.0 0.0010024
4290.0 0.00097329
4310.0 0.00095119
4330.0 0.0010152
4350.0 0.0012258
4370.0 0.0014258
4390.0 0.0012627
4410.0 0.00092012
4430.0 0.00074052
4450.0 0.00064633
4470.0 0.00058543
4490.0 0.00071039
4510.0 0.00095653
4530.0 0.0010997
4550.0 0.0011936
4570.0 0.0012882
4590.0 0.0015054
4610.0 0.0022226
4630.0 0.0028577
4650.0 0.0028257
4670.0 0.002616
4690.0 0.0027814
4710.0 0.0029581
4730.0 0.0024534
4750.0 0.0016648
4770.0 0.0012977
4790.0 0.0013229
4810.0 0.0012736
4830.0 0.0012189
4850.0 0.0013704
4870.0 0.0017976
4890.0 0.0020936
4910.0 0.0017024
4930.0 0.0015365
4950.0 0.001732
4970.0 0.0023383
4990.0 0.0030986
5010.0 0.0034122
5030.0 0.0027701
5050.0 0.0017158
5070.0 0.0011904
5090.0 0.0010133
5110.0 0.0010263
5130.0 0.001137
5150.0 0.0011585
5170.0 0.0011377
5190.0 0.001087
5210.0 0.0010845
5230.0 0.0011871
5250.0 0.0013102
5270.0 0.0013925
5290.0 0.0015822
5310.0 0.0018689
5330.0 0.0019304
5350.0 0.0019195
5370.0 0.0021187
5390.0 0.002431
5410.0 0.0022534
5430.0 0.0018441
5450.0 0.001738
5470.0 0.0019751
5490.0 0.0025316
5510.0 0.0032152
5530.0 0.0036424
5550.0 0.0034267
5570.0 0.003075
5590.0 0.0026558
5610.0 0.0025365
5630.0 0.0025542
5650.0 0.0025281
5670.0 0.0024196
5690.0 0.0021316
5710.0 0.0020782
5730.0 0.0019497
5750.0 0.0012377
5770.0 0.0010215
5790.0 0.001188
5810.0 0.0014005
5830.0 0.0017537
5850.0 0.0020509
5870.0 0.0021373
5890.0 0.0020496
5910.0 0.0019664
5930.0 0.0019492
5950.0 0.0020336
5970.0 0.0023079
5990.0 0.0020784
6010.0 0.0016892
6030.0 0.0013911
6050.0 0.0012119
6070.0 0.0012839
6090.0 0.00146
6110.0 0.0015714
6130.0 0.0014829
6150.0 0.0012889
6170.0 0.0012893
6190.0 0.0015747
6210.0 0.0020746
6230.0 0.0025986
6250.0 0.002661
6270.0 0.0022529
6290.0 0.0018823
6310.0 0.0014737
6330.0 0.0011363
6350.0 0.0010433
6370.0 0.0011117
6390.0 0.0013328
6410.0 0.0015986
6430.0 0.0018812
6450.0 0.0022379
6470.0 0.0025958
6490.0 0.0031883
6510.0 0.0035636
6530.0 0.0033946
6550.0 0.00311
6570.0 0.0028491
6590.0 0.0027512
6610.0 0.0023808
6630.0 0.002244
6650.0 0.0020849
6670.0 0.0020588
6690.0 0.001908
6710.0 0.001738
6730.0 0.0013573
6750.0 0.0013066
6770.0 0.001431
6790.0 0.0017028
6810.0 0.0015507
6830.0 0.0015936
6850.0 0.0014997
6870.0 0.0014309
6890.0 0.0013507
6910.0 0.0013767
6930.0 0.0012858
6950.0 0.00138
6970.0 0.0013937
6990.0 0.0015556
7010.0 0.0016283
7030.0 0.0015835
7050.0 0.0014507
7070.0 0.0013673
7090.0 0.0013154
7110.0 0.0012708
7130.0 0.0013454
7150.0 0.0014643
7170.0 0.0015861
7190.0 0.001621
7210.0 0.0015288
7230.0 0.0015641
7250.0 0.0017585
7270.0 0.0020201
7290.0 0.0022824
7310.0 0.0022765
7330.0 0.0020399
7350.0 0.0018197
7370.0 0.0015948
7390.0 0.0016289
7410.0 0.0018083
7430.0 0.0019977
7450.0 0.0021574
7470.0 0.0022404
7490.0 0.0023281
7510.0 0.0027309
7530.0 0.0025096
7550.0 0.0021558
7570.0 0.0016174
7590.0 0.0010656
7610.0 0.000913
7630.0 0.0010396
7650.0 0.0012351
7670.0 0.0015414
7690.0 0.0017477
7710.0 0.0017879
7730.0 0.0018134
7750.0 0.0019955
7770.0 0.0019986
7790.0 0.0018981
7810.0 0.0018066
7830.0 0.0018069
7850.0 0.0017196
7870.0 0.0015923
7890.0 0.0013779
7910.0 0.001107
7930.0 0.00099894
7950.0 0.00090117
7970.0 0.00084973
7990.0 0.00084956
8010.0 0.00088054
8030.0 0.00087183
8050.0 0.00088827
8070.0 0.00088845
8090.0 0.00093487
8110.0 0.00087908
8130.0 0.0007263
8150.0 0.00068666
8170.0 0.00059847
8190.0 0.0005708
8210.0 0.00066043
8230.0 0.00071914
8250.0 0.00061346
8270.0 0.00054274
8290.0 0.00048144
8310.0 0.00034115
8330.0 0.00021897
8350.0 0.00016289
8370.0 0.00014968
8390.0 0.00019744
8410.0 0.00024805
8430.0 0.00030501
8450.0 0.00033839
8470.0 0.00040073
8490.0 0.0003801
8510.0 0.00036769
8530.0 0.0003562
8550.0 0.00048414
8570.0 0.00062415
8590.0 0.00065681
8610.0 0.00081961
8630.0 0.00094002
8650.0 0.00091246
8670.0 0.0009637
8690.0 0.001024
8710.0 0.0009461
8730.0 0.00092593
8750.0 0.00083225
8770.0 0.00079037
8790.0 0.00080004
8810.0 0.00077957
8830.0 0.00061408
8850.0 0.00047672
8870.0 0.00039134
8890.0 0.00042075
8910.0 0.00048635
8930.0 0.00054147
8950.0 0.00061315
8970.0 0.00061662
8990.0 0.00057664
9010.0 0.0005147
9030.0 0.00049545
9050.0 0.00050276
9070.0 0.00050892
9090.0 0.00051362
9110.0 0.00051837
9130.0 0.00052218
9150.0 0.00052539
9170.0 0.0005288
9190.0 0.00053243
9210.0 0.00053626
9230.0 0.00054029
9250.0 0.0005445
9270.0 0.00054887
9290.0 0.0005534
9310.0 0.00055808
9330.0 0.0005629
9350.0 0.00056787
9370.0 0.00057298
9390.0 0.00057824
9410.0 0.00058364
9430.0 0.00058917
9450.0 0.00059485
9470.0 0.00060067
9490.0 0.00060662
9510.0 0.00061271
9530.0 0.00061894
9550.0 0.00062529
9570.0 0.00063177
9590.0 0.00063838
9610.0 0.00064512
9630.0 0.00065197
9650.0 0.00065894
9670.0 0.00066605
9690.0 0.00067326
9710.0 0.00068057
9730.0 0.00068801
9750.0 0.00069555
9770.0 0.00070317
9790.0 0.00071091
9810.0 0.00071874
9830.0 0.00072666
9850.0 0.00073466
9870.0 0.00074275
9890.0 0.00075091
9910.0 0.00075914
9930.0 0.00076744
9950.0 0.00077582
9970.0 0.00078423
9990.0 0.00079269
10010.0 0.0007536
10030.0 0.00076146
10050.0 0.00076932
10070.0 0.00077717
10090.0 0.00078514
10110.0 0.00079309
10130.0 0.00080105
10150.0 0.00080903
10170.0 0.00081699
10190.0 0.00082491
10210.0 0.00083284
10230.0 0.00084076
10250.0 0.00084863
10270.0 0.00085646
10290.0 0.00086427
10310.0 0.00087201
10330.0 0.00087968
10350.0 0.00088731
10370.0 0.00089488
10390.0 0.00090235
10410.0 0.00090975
10430.0 0.00091708
10450.0 0.0009243
10470.0 0.0009314
10490.0 0.00093842
10510.0 0.00094533
10530.0 0.00095208
10550.0 0.00095872
10570.0 0.00096526
10590.0 0.00097163
10610.0 0.00097785
10630.0 0.00098395
10650.0 0.0009899
10670.0 0.00099564
10690.0 0.0010012
10710.0 0.0010067
10730.0 0.0010119
10750.0 0.001017
10770.0 0.0010219
10790.0 0.0010266
10810.0 0.0010311
10830.0 0.0010354
10850.0 0.0010394
10870.0 0.0010429
10890.0 0.0010458
10910.0 0.0010478
10930.0 0.0010484
10950.0 0.0010467
10970.0 0.0010422
10990.0 0.0010347
11010.0 0.0010184
11030.0 0.0010026
11050.0 0.00098354
11070.0 0.00096075
11090.0 0.00093326
11110.0 0.00090481
11130.0 0.00087508
11150.0 0.00084301
11170.0 0.00081003
11190.0 0.00077825
11210.0 0.0007457
11230.0 0.00071271
11250.0 0.00068166
11270.0 0.00065231
11290.0 0.00062338
11310.0 0.00059645
11330.0 0.00057312
11350.0 0.00055135
11370.0 0.00053143
11390.0 0.00051427
11410.0 0.00049919
11430.0 0.00048498
11450.0 0.0004724
11470.0 0.00046108
11490.0 0.00045003
11510.0 0.00043883
11530.0 0.00042792
11550.0 0.00041671
11570.0 0.00040448
11590.0 0.0003917
11610.0 0.00037867
11630.0 0.00036461
11650.0 0.00034974
11670.0 0.00033527
11690.0 0.00032081
11710.0 0.00030613
11730.0 0.00029211
11750.0 0.00027927
11770.0 0.00026682
11790.0 0.00025526
11810.0 0.00024512
11830.0 0.00023605
11850.0 0.00022768
11870.0 0.00022056
11890.0 0.00021449
11910.0 0.00020897
11930.0 0.00020398
11950.0 0.00019955
11970.0 0.00019531
11990.0 0.00019105
12010.0 0.00018685
12030.0 0.00018263
12050.0 0.00017817
12070.0 0.00017346
12090.0 0.00016887
12110.0 0.00016417
12130.0 0.00015941
12150.0 0.00015491
12170.0 0.00015079
12190.0 0.0001469
12210.0 0.00014363
12230.0 0.00014112
12250.0 0.00013935
12270.0 0.00013845
12290.0 0.00013846
12310.0 0.00013931
12330.0 0.00014112
12350.0 0.0001438
12370.0 0.00014709
12390.0 0.00015109
12410.0 0.00015593
12430.0 0.00016088
12450.0 0.00016599
12470.0 0.00017142
12490.0 0.00017679
12510.0 0.00018169
12530.0 0.00018645
12550.0 0.0001909
12570.0 0.00019462
12590.0 0.00019768
12610.0 0.00020021
12630.0 0.00020195
12650.0 0.00020281
12670.0 0.00020299
12690.0 0.00020245
12710.0 0.00020118
12730.0 0.00019931
12750.0 0.00019677
12770.0 0.00019372
12790.0 0.00019027
12810.0 0.00018638
12830.0 0.00018207
12850.0 0.00017764
12870.0 0.00017302
12890.0 0.00016808
12910.0 0.00016307
12930.0 0.00015809
12950.0 0.00015287
12970.0 0.0001475
12990.0 0.00014232
13010.0 0.00013713
13030.0 0.00013179
13050.0 0.00012657
13070.0 0.00012158
13090.0 0.00011651
13110.0 0.00011154
13130.0 0.0001069
13150.0 0.00010246
13170.0 9.8112e-05
13190.0 9.4217e-05
13210.0 9.0777e-05
13230.0 8.7643e-05
13250.0 8.4948e-05
13270.0 8.2812e-05
13290.0 8.1138e-05
13310.0 7.9958e-05
13330.0 7.9341e-05
13350.0 7.923e-05
13370.0 7.9634e-05
13390.0 8.0555e-05
13410.0 8.1818e-05
13430.0 8.3469e-05
13450.0 8.55e-05
13470.0 8.7719e-05
13490.0 9.0028e-05
13510.0 9.2611e-05
13530.0 9.5184e-05
13550.0 9.7598e-05
13570.0 9.9947e-05
13590.0 0.0001022
13610.0 0.00010417
13630.0 0.00010583
13650.0 0.00010732
13670.0 0.0001085
13690.0 0.00010934
13710.0 0.00010991
13730.0 0.00011023
13750.0 0.00011022
13770.0 0.00010998
13790.0 0.0001095
13810.0 0.00010879
13830.0 0.00010792
13850.0 0.00010686
13870.0 0.00010562
13890.0 0.00010428
13910.0 0.00010282
13930.0 0.0001012
13950.0 9.9488e-05
13970.0 9.7783e-05
13990.0 9.5978e-05
14010.0 9.4108e-05
14030.0 9.228e-05
14050.0 9.0476e-05
14070.0 8.8615e-05
14090.0 8.6865e-05
14110.0 8.5247e-05
14130.0 8.371e-05
14150.0 8.2293e-05
14170.0 8.1105e-05
14190.0 8.01e-05
14210.0 7.9275e-05
14230.0 7.8691e-05
14250.0 7.8342e-05
14270.0 7.8223e-05
14290.0 7.8357e-05
14310.0 7.871e-05
14330.0 7.9277e-05
14350.0 8.0074e-05
14370.0 8.1043e-05
14390.0 8.213e-05
14410.0 8.3405e-05
14430.0 8.4808e-05
14450.0 8.6252e-05
14470.0 8.7774e-05
14490.0 8.9433e-05
14510.0 9.1076e-05
14530.0 9.2709e-05
14550.0 9.4437e-05
14570.0 9.6221e-05
14590.0 9.7984e-05
14610.0 9.9848e-05
14630.0 0.00010188
14650.0 0.00010396
14670.0 0.00010614
14690.0 0.00010855
14710.0 0.00011119
14730.0 0.00011385
14750.0 0.00011677
14770.0 0.00011996
14790.0 0.00012325
14810.0 0.00012662
14830.0 0.00013035
14850.0 0.00013413
14870.0 0.00013781
14890.0 0.00014153
14910.0 0.00014524
14930.0 0.00014862
14950.0 0.00015163
14970.0 0.00015435
14990.0 0.00015655
15010.0 0.00015818
15030.0 0.00015935
15050.0 0.00016009
15070.0 0.00016043
15090.0 0.00016054
15110.0 0.00016047
15130.0 0.0001603
15150.0 0.00016009
15170.0 0.00015984
15190.0 0.00015957
15210.0 0.00015932
15230.0 0.00015907
15250.0 0.0001588
15270.0 0.00015854
15290.0 0.0001583
15310.0 0.00015805
15330.0 0.0001578
15350.0 0.00015756
15370.0 0.00015733
15390.0 0.00015707
15410.0 0.00015683
15430.0 0.0001566
15450.0 0.00015637
15470.0 0.00015612
15490.0 0.00015589
15510.0 0.00015567
15530.0 0.00015543
15550.0 0.00015519
15570.0 0.00015497
15590.0 0.00015474
15610.0 0.00015449
15630.0 0.00015427
15650.0 0.00015404
15670.0 0.0001538
15690.0 0.00015357
15710.0 0.00015335
15730.0 0.00015311
15750.0 0.00015286
15770.0 0.00015264
15790.0 0.0001524
15810.0 0.00015215
15830.0 0.00015191
15850.0 0.00015168
15870.0 0.00015143
15890.0 0.00015118
15910.0 0.00015095
15930.0 0.0001507
15950.0 0.00015044
15970.0 0.00015019
15990.0 0.00014994
16010.0 0.00014968
16030.0 0.00014941
16050.0 0.00014916
16070.0 0.0001489
16090.0 0.00014862
16110.0 0.00014836
16130.0 0.0001481
16150.0 0.00014781
16170.0 0.00014752
16190.0 0.00014725
16210.0 0.00014697
16230.0 0.00014667
16250.0 0.00014638
16270.0 0.0001461
16290.0 0.0001458
16310.0 0.00014549
16330.0 0.0001452
16350.0 0.00014489
16370.0 0.00014456
16390.0 0.00014425
16410.0 0.00014394
16430.0 0.00014361
16450.0 0.00014329
16470.0 0.00014297
16490.0 0.00014263
16510.0 0.00014229
16530.0 0.00014195
16550.0 0.00014161
16570.0 0.00014125
16590.0 0.00014089
16610.0 0.00014055
16630.0 0.00014019
16650.0 0.00013982
16670.0 0.00013946
16690.0 0.00013909
16710.0 0.0001387
16730.0 0.00013832
16750.0 0.00013794
16770.0 0.00013755
16790.0 0.00013715
16810.0 0.00013676
16830.0 0.00013637
16850.0 0.00013595
16870.0 0.00013555
16890.0 0.00013515
16910.0 0.00013472
16930.0 0.00013429
16950.0 0.00013387
16970.0 0.00013345
16990.0 0.00013301
17010.0 0.00013258
17030.0 0.00013215
17050.0 0.0001317
17070.0 0.00013124
17090.0 0.0001308
17110.0 0.00013035
17130.0 0.00012988
17150.0 0.00012942
17170.0 0.00012896
17190.0 0.00012849
17210.0 0.00012801
17230.0 0.00012755
17250.0 0.00012707
17270.0 0.00012657
17290.0 0.00012609
17310.0 0.00012561
17330.0 0.00012511
17350.0 0.0001246
17370.0 0.00012412
17390.0 0.00012362
17410.0 0.0001231
17430.0 0.0001226
17450.0 0.0001221
17470.0 0.00012157
17490.0 0.00012105
17510.0 0.00012054
17530.0 0.00012002
17550.0 0.00011948
17570.0 0.00011896
17590.0 0.00011844
17610.0 0.0001179
17630.0 0.00011736
17650.0 0.00011683
17670.0 0.00011629
17690.0 0.00011573
17710.0 0.00011519
17730.0 0.00011466
17750.0 0.0001141
17770.0 0.00011355
17790.0 0.00011301
17810.0 0.00011245
17830.0 0.00011188
17850.0 0.00011133
17870.0 0.00011078
17890.0 0.00011021
17910.0 0.00010964
17930.0 0.00010909
17950.0 0.00010852
17970.0 0.00010795
17990.0 0.00010739
18010.0 0.00010682
18030.0 0.00010624
18050.0 0.00010567
18070.0 0.0001051
18090.0 0.00010452
18110.0 0.00010394
18130.0 0.00010337
18150.0 0.0001028
18170.0 0.00010222
18190.0 0.00010164
18210.0 0.00010107
18230.0 0.00010049
18250.0 9.9895e-05
18270.0 9.9325e-05
18290.0 9.8748e-05
18310.0 9.8159e-05
18330.0 9.758e-05
18350.0 9.7012e-05
18370.0 9.6423e-05
18390.0 9.5836e-05
18410.0 9.5262e-05
18430.0 9.4683e-05
18450.0 9.4087e-05
18470.0 9.3509e-05
18490.0 9.2938e-05
18510.0 9.2352e-05
18530.0 9.1768e-05
18550.0 9.12e-05
18570.0 9.062e-05
18590.0 9.0028e-05
18610.0 8.9453e-05
18630.0 8.8882e-05
18650.0 8.8297e-05
18670.0 8.7712e-05
18690.0 8.7149e-05
18710.0 8.6575e-05
18730.0 8.5992e-05
18750.0 8.5423e-05
18770.0 8.486e-05
18790.0 8.4273e-05
18810.0 8.3697e-05
18830.0 8.3137e-05
18850.0 8.2567e-05
18870.0 8.199e-05
18890.0 8.143e-05
18910.0 8.0872e-05
18930.0 8.0298e-05
18950.0 7.9733e-05
18970.0 7.918e-05
18990.0 7.8617e-05
19010.0 7.804e-05
19030.0 7.7491e-05
19050.0 7.694e-05
19070.0 7.6378e-05
19090.0 7.5823e-05
19110.0 7.5284e-05
19130.0 7.4726e-05
19150.0 7.4168e-05
19170.0 7.3625e-05
19190.0 7.3083e-05
19210.0 7.2527e-05
19230.0 7.1981e-05
19250.0 7.1452e-05
19270.0 7.0909e-05
19290.0 7.0365e-05
19310.0 6.9836e-05
19330.0 6.9307e-05
19350.0 6.8758e-05
19370.0 6.8227e-05
19390.0 6.7706e-05
19410.0 6.7174e-05
19430.0 6.664e-05
19450.0 6.6126e-05
19470.0 6.5607e-05
19490.0 6.5079e-05
19510.0 6.4562e-05
19530.0 6.4054e-05
19550.0 6.3531e-05
19570.0 6.3008e-05
19590.0 6.2507e-05
19610.0 6.2e-05
19630.0 6.1485e-05
19650.0 6.0984e-05
19670.0 6.0491e-05
19690.0 5.9982e-05
19710.0 5.9478e-05
19730.0 5.8988e-05
19750.0 5.8494e-05
19770.0 5.7987e-05
19790.0 5.75e-05
19810.0 5.7019e-05
19830.0 5.6525e-05
19850.0 5.6034e-05
19870.0 5.5553e-05
19890.0 5.5051e-05
19910.0 5.4522e-05
19930.0 5.398e-05
19950.0 5.3396e-05
19970.0 5.2729e-05
19990.0 5.1979e-05
20010.0 5.1896e-05
20030.0 5.0956e-05
20050.0 4.9907e-05
20070.0 4.8809e-05
20090.0 4.7664e-05
20110.0 4.6411e-05
20130.0 4.5175e-05
20150.0 4.3974e-05
20170.0 4.2756e-05
20190.0 4.1545e-05
20210.0 4.0414e-05
20230.0 3.9325e-05
20250.0 3.8247e-05
20270.0 3.7252e-05
20290.0 3.6346e-05
20310.0 3.5488e-05
20330.0 3.4689e-05
20350.0 3.4019e-05
20370.0 3.3424e-05
20390.0 3.2901e-05
20410.0 3.2474e-05
20430.0 3.2141e-05
20450.0 3.1879e-05
20470.0 3.1702e-05
20490.0 3.1605e-05
20510.0 3.1578e-05
20530.0 3.1623e-05
20550.0 3.1727e-05
20570.0 3.1878e-05
20590.0 3.2085e-05
20610.0 3.2337e-05
20630.0 3.2613e-05
20650.0 3.2923e-05
20670.0 3.328e-05
20690.0 3.3639e-05
20710.0 3.4006e-05
20730.0 3.4401e-05
20750.0 3.4809e-05
20770.0 3.5201e-05
20790.0 3.5609e-05
20810.0 3.6035e-05
20830.0 3.6451e-05
20850.0 3.6863e-05
20870.0 3.73e-05
20890.0 3.7741e-05
20910.0 3.816e-05
20930.0 3.8593e-05
20950.0 3.9041e-05
20970.0 3.9476e-05
20990.0 3.9904e-05
21010.0 4.0358e-05
21030.0 4.0802e-05
21050.0 4.1227e-05
21070.0 4.1654e-05
21090.0 4.2089e-05
21110.0 4.2486e-05
21130.0 4.2865e-05
21150.0 4.3241e-05
21170.0 4.359e-05
21190.0 4.39e-05
21210.0 4.4195e-05
21230.0 4.4464e-05
21250.0 4.4682e-05
21270.0 4.4859e-05
21290.0 4.4999e-05
21310.0 4.5085e-05
21330.0 4.5113e-05
21350.0 4.5087e-05
21370.0 4.4997e-05
21390.0 4.4841e-05
21410.0 4.4619e-05
21430.0 4.431e-05
21450.0 4.3932e-05
21470.0 4.3492e-05
21490.0 4.297e-05
21510.0 4.2371e-05
21530.0 4.1732e-05
21550.0 4.1037e-05
21570.0 4.0268e-05
21590.0 3.9479e-05
21610.0 3.8686e-05
21630.0 3.7859e-05
21650.0 3.7013e-05
21670.0 3.6239e-05
21690.0 3.5483e-05
21710.0 3.4753e-05
21730.0 3.4096e-05
21750.0 3.3523e-05
21770.0 3.2997e-05
21790.0 3.2564e-05
21810.0 3.2235e-05
21830.0 3.1995e-05
21850.0 3.1848e-05
21870.0 3.1802e-05
21890.0 3.1846e-05
21910.0 3.1983e-05
21930.0 3.2209e-05
21950.0 3.2504e-05
21970.0 3.2877e-05
21990.0 3.3342e-05
22010.0 3.3845e-05
22030.0 3.4391e-05
22050.0 3.5002e-05
22070.0 3.5653e-05
22090.0 3.6299e-05
22110.0 3.6983e-05
22130.0 3.7698e-05
22150.0 3.8394e-05
22170.0 3.9075e-05
22190.0 3.9777e-05
22210.0 4.0454e-05
22230.0 4.1067e-05
22250.0 4.1661e-05
22270.0 4.2223e-05
22290.0 4.2714e-05
22310.0 4.3144e-05
22330.0 4.3534e-05
22350.0 4.3843e-05
22370.0 4.4071e-05
22390.0 4.4227e-05
22410.0 4.4303e-05
22430.0 4.4289e-05
22450.0 4.4194e-05
22470.0 4.4009e-05
22490.0 4.3736e-05
22510.0 4.3389e-05
22530.0 4.2943e-05
22550.0 4.2399e-05
22570.0 4.1794e-05
22590.0 4.1113e-05
22610.0 4.0331e-05
22630.0 3.9484e-05
22650.0 3.8609e-05
22670.0 3.764e-05
22690.0 3.6603e-05
22710.0 3.5555e-05
22730.0 3.4471e-05
22750.0 3.3291e-05
22770.0 3.2133e-05
22790.0 3.0997e-05
22810.0 2.9826e-05
22830.0 2.8654e-05
