#lamb flux
1010.0 4.1292e-07
1030.0 4.5267e-07
1050.0 4.984e-07
1070.0 5.4987e-07
1090.0 6.0833e-07
1110.0 6.683e-07
1130.0 7.2865e-07
1150.0 7.9187e-07
1170.0 8.5708e-07
1190.0 9.1892e-07
1210.0 9.8159e-07
1230.0 1.0463e-06
1250.0 1.1098e-06
1270.0 1.1714e-06
1290.0 1.2365e-06
1310.0 1.3016e-06
1330.0 1.364e-06
1350.0 1.427e-06
1370.0 1.4922e-06
1390.0 1.5557e-06
1410.0 1.6173e-06
1430.0 1.6817e-06
1450.0 1.7461e-06
1470.0 1.8083e-06
1490.0 1.8712e-06
1510.0 1.9376e-06
1530.0 2.0005e-06
1550.0 2.0625e-06
1570.0 2.1267e-06
1590.0 2.1909e-06
1610.0 2.2522e-06
1630.0 2.3154e-06
1650.0 2.3802e-06
1670.0 2.4429e-06
1690.0 2.5047e-06
1710.0 2.5688e-06
1730.0 2.6332e-06
1750.0 2.6936e-06
1770.0 2.7557e-06
1790.0 2.819e-06
1810.0 2.8801e-06
1830.0 2.9399e-06
1850.0 3.0033e-06
1870.0 3.0648e-06
1890.0 3.1238e-06
1910.0 3.1838e-06
1930.0 3.245e-06
1950.0 3.3029e-06
1970.0 3.3595e-06
1990.0 3.418e-06
2010.0 3.4749e-06
2030.0 3.5289e-06
2050.0 3.584e-06
2070.0 3.6399e-06
2090.0 3.6914e-06
2110.0 3.7417e-06
2130.0 3.7928e-06
2150.0 3.8416e-06
2170.0 3.8866e-06
2190.0 3.9325e-06
2210.0 3.9774e-06
2230.0 4.0184e-06
2250.0 4.0576e-06
2270.0 4.0977e-06
2290.0 4.1342e-06
2310.0 4.1667e-06
2330.0 4.1996e-06
2350.0 4.2319e-06
2370.0 4.2621e-06
2390.0 4.2949e-06
2410.0 4.3369e-06
2430.0 4.3874e-06
2450.0 4.4517e-06
2470.0 4.5411e-06
2490.0 4.6606e-06
2510.0 4.7995e-06
2530.0 4.9736e-06
2550.0 5.202e-06
2570.0 5.4964e-06
2590.0 5.8887e-06
2610.0 6.4879e-06
2630.0 7.3391e-06
2650.0 8.4311e-06
2670.0 9.8133e-06
2690.0 1.1469e-05
2710.0 1.3178e-05
2730.0 1.4803e-05
2750.0 1.6343e-05
2770.0 1.7606e-05
2790.0 1.8529e-05
2810.0 1.9185e-05
2830.0 1.9623e-05
2850.0 1.9831e-05
2870.0 1.9911e-05
2890.0 1.9917e-05
2910.0 1.9871e-05
2930.0 1.9791e-05
2950.0 1.9706e-05
2970.0 1.9621e-05
2990.0 1.9532e-05
3010.0 0.00062312
3030.0 0.00062057
3050.0 0.00061806
3070.0 0.00061518
3090.0 0.00061199
3110.0 0.00060783
3130.0 0.00060197
3150.0 0.00059383
3170.0 0.00058227
3190.0 0.00056748
3210.0 0.00055045
3230.0 0.00053185
3250.0 0.00051285
3270.0 0.00049861
3290.0 0.00048775
3310.0 0.00048523
3330.0 0.00048828
3350.0 0.00049678
3370.0 0.00051065
3390.0 0.00052919
3410.0 0.00054998
3430.0 0.00057376
3450.0 0.0006015
3470.0 0.00063216
3490.0 0.00066513
3510.0 0.00070274
3530.0 0.00074389
3550.0 0.00078805
3570.0 0.00083684
3590.0 0.00089136
3610.0 0.00095218
3630.0 0.0010126
3650.0 0.0010768
3670.0 0.0011345
3690.0 0.0011775
3710.0 0.0011989
3730.0 0.001186
3750.0 0.0011396
3770.0 0.0011657
3790.0 0.0011388
3810.0 0.00087796
3830.0 0.00084342
3850.0 0.0012431
3870.0 0.0011996
3890.0 0.00090772
3910.0 0.00088237
3930.0 0.0011268
3950.0 0.0013484
3970.0 0.0015326
3990.0 0.0010543
4010.0 0.0019727
4030.0 0.0019031
4050.0 0.002008
4070.0 0.002277
4090.0 0.0021571
4110.0 0.0019024
4130.0 0.0023451
4150.0 0.0031442
4170.0 0.0024886
4190.0 0.0021945
4210.0 0.0024753
4230.0 0.0030711
4250.0 0.0036723
4270.0 0.0039932
4290.0 0.0035464
4310.0 0.0032748
4330.0 0.0032409
4350.0 0.0041563
4370.0 0.005059
4390.0 0.0040141
4410.0 0.0022319
4430.0 0.0015758
4450.0 0.0014723
4470.0 0.0009081
4490.0 0.0016091
4510.0 0.0034703
4530.0 0.0042347
4550.0 0.0039911
4570.0 0.0035698
4590.0 0.0038191
4610.0 0.0076015
4630.0 0.010672
4650.0 0.010058
4670.0 0.0088341
4690.0 0.0090846
4710.0 0.0095106
4730.0 0.0077445
4750.0 0.0049815
4770.0 0.0034136
4790.0 0.0038214
4810.0 0.0040303
4830.0 0.0039952
4850.0 0.0043416
4870.0 0.0057524
4890.0 0.006665
4910.0 0.0051523
4930.0 0.0050077
4950.0 0.0057805
4970.0 0.0077244
4990.0 0.010423
5010.0 0.012031
5030.0 0.0095626
5050.0 0.0058057
5070.0 0.0041396
5090.0 0.0031517
5110.0 0.002939
5130.0 0.003528
5150.0 0.003393
5170.0 0.0031811
5190.0 0.002824
5210.0 0.0031453
5230.0 0.0039474
5250.0 0.0046246
5270.0 0.0042526
5290.0 0.0045911
5310.0 0.0062111
5330.0 0.0066309
5350.0 0.0065303
5370.0 0.0073776
5390.0 0.0092275
5410.0 0.0078403
5430.0 0.0059465
5450.0 0.0060293
5470.0 0.0070675
5490.0 0.0088862
5510.0 0.010831
5530.0 0.012564
5550.0 0.011301
5570.0 0.010113
5590.0 0.0082825
5610.0 0.008455
5630.0 0.0095631
5650.0 0.008828
5670.0 0.0081194
5690.0 0.0065288
5710.0 0.0067306
5730.0 0.0065661
5750.0 0.0034923
5770.0 0.0024916
5790.0 0.0031163
5810.0 0.0032896
5830.0 0.0051972
5850.0 0.0068094
5870.0 0.0072791
5890.0 0.006897
5910.0 0.0066964
5930.0 0.0064654
5950.0 0.0066866
5970.0 0.0083372
5990.0 0.0067973
6010.0 0.0051952
6030.0 0.0042202
6050.0 0.0037708
6070.0 0.0045576
6090.0 0.0051551
6110.0 0.0052272
6130.0 0.0047674
6150.0 0.0037301
6170.0 0.0029087
6190.0 0.0036011
6210.0 0.005761
6230.0 0.0085224
6250.0 0.0091397
6270.0 0.0069281
6290.0 0.0059345
6310.0 0.0045219
6330.0 0.0032862
6350.0 0.0032517
6370.0 0.0034152
6390.0 0.0041094
6410.0 0.0053195
6430.0 0.0064189
6450.0 0.0079249
6470.0 0.0083494
6490.0 0.010019
6510.0 0.011247
6530.0 0.011459
6550.0 0.010562
6570.0 0.0085138
6590.0 0.0081771
6610.0 0.0067601
6630.0 0.0070777
6650.0 0.006866
6670.0 0.0059938
6690.0 0.0046356
6710.0 0.0045411
6730.0 0.0019593
6750.0 0.0026633
6770.0 0.0042506
6790.0 0.0056788
6810.0 0.0040155
6830.0 0.0040994
6850.0 0.0034028
6870.0 0.0032069
6890.0 0.0026903
6910.0 0.0032717
6930.0 0.0030764
6950.0 0.0037224
6970.0 0.0038411
6990.0 0.0042529
7010.0 0.0041259
7030.0 0.0047165
7050.0 0.0040548
7070.0 0.0033626
7090.0 0.0036026
7110.0 0.0037975
7130.0 0.0043777
7150.0 0.0049954
7170.0 0.0055953
7190.0 0.0059214
7210.0 0.00522
7230.0 0.0052743
7250.0 0.0056793
7270.0 0.0061305
7290.0 0.0075312
7310.0 0.0078765
7330.0 0.007289
7350.0 0.0065117
7370.0 0.0047545
7390.0 0.0049645
7410.0 0.0061857
7430.0 0.0070552
7450.0 0.007589
7470.0 0.006938
7490.0 0.0055978
7510.0 0.0092657
7530.0 0.0083353
7550.0 0.0078345
7570.0 0.0052446
7590.0 0.0022117
7610.0 0.001516
7630.0 0.0023956
7650.0 0.0032655
7670.0 0.0053173
7690.0 0.0059512
7710.0 0.0053032
7730.0 0.0052105
7750.0 0.0069241
7770.0 0.0071106
7790.0 0.0065155
7810.0 0.0052341
7830.0 0.0056768
7850.0 0.0062692
7870.0 0.0061638
7890.0 0.004802
7910.0 0.0031659
7930.0 0.0032859
7950.0 0.0029603
7970.0 0.0024739
7990.0 0.0022129
8010.0 0.0015048
8030.0 0.0013912
8050.0 0.0014989
8070.0 0.0016647
8090.0 0.0020001
8110.0 0.001873
8130.0 0.001151
8150.0 0.0011752
8170.0 0.00069582
8190.0 0.00045572
8210.0 0.0010497
8230.0 0.0012544
8250.0 0.00054216
8270.0 0.00043448
8290.0 0.00075292
8310.0 0.00064638
8330.0 0.00039557
8350.0 0.00031806
8370.0 9.0169e-05
8390.0 0.00034252
8410.0 0.0004012
8430.0 0.00049953
8450.0 0.00056105
8470.0 0.00091588
8490.0 0.00075012
8510.0 0.00058488
8530.0 0.00030666
8550.0 0.0010135
8570.0 0.0015718
8590.0 0.0011176
8610.0 0.0016596
8630.0 0.0018045
8650.0 0.001
8670.0 0.0014433
8690.0 0.0022134
8710.0 0.0019098
8730.0 0.0020522
8750.0 0.0016244
8770.0 0.0014501
8790.0 0.0016065
8810.0 0.0017336
8830.0 0.00097945
8850.0 0.00044794
8870.0 0.00032464
8890.0 0.00075726
8910.0 0.0011791
8930.0 0.0015456
8950.0 0.0017373
8970.0 0.0016783
8990.0 0.0012781
9010.0 0.00101
9030.0 0.00077289
9050.0 0.00080582
9070.0 0.00083894
9090.0 0.00086562
9110.0 0.00089749
9130.0 0.00092055
9150.0 0.00093707
9170.0 0.00095465
9190.0 0.00097347
9210.0 0.00099322
9230.0 0.0010141
9250.0 0.0010352
9270.0 0.0010571
9290.0 0.0010795
9310.0 0.0011018
9330.0 0.0011246
9350.0 0.001148
9370.0 0.0011717
9390.0 0.0011954
9410.0 0.0012197
9430.0 0.0012448
9450.0 0.0012695
9470.0 0.0012947
9490.0 0.0013206
9510.0 0.0013467
9530.0 0.0013729
9550.0 0.0013999
9570.0 0.0014273
9590.0 0.0014548
9610.0 0.0014826
9630.0 0.0015112
9650.0 0.0015399
9670.0 0.0015687
9690.0 0.0015982
9710.0 0.0016281
9730.0 0.001658
9750.0 0.0016883
9770.0 0.0017196
9790.0 0.0017508
9810.0 0.001782
9830.0 0.001814
9850.0 0.0018463
9870.0 0.0018785
9890.0 0.0019111
9910.0 0.0019444
9930.0 0.0019777
9950.0 0.0020111
9970.0 0.0020451
9990.0 0.0020795
10010.0 0.001873
10030.0 0.0019033
10050.0 0.001934
10070.0 0.0019643
10090.0 0.001995
10110.0 0.0020264
10130.0 0.0020576
10150.0 0.0020887
10170.0 0.00212
10190.0 0.0021517
10210.0 0.002183
10230.0 0.0022142
10250.0 0.0022459
10270.0 0.0022774
10290.0 0.0023086
10310.0 0.00234
10330.0 0.0023717
10350.0 0.0024029
10370.0 0.0024339
10390.0 0.0024652
10410.0 0.0024962
10430.0 0.0025267
10450.0 0.0025573
10470.0 0.0025879
10490.0 0.002618
10510.0 0.0026477
10530.0 0.0026778
10550.0 0.0027074
10570.0 0.0027362
10590.0 0.0027651
10610.0 0.0027938
10630.0 0.0028218
10650.0 0.0028494
10670.0 0.0028771
10690.0 0.0029041
10710.0 0.0029305
10730.0 0.0029567
10750.0 0.0029828
10770.0 0.0030078
10790.0 0.0030323
10810.0 0.0030567
10830.0 0.0030802
10850.0 0.0031025
10870.0 0.0031242
10890.0 0.0031437
10910.0 0.0031596
10930.0 0.0031707
10950.0 0.0031741
10970.0 0.0031675
10990.0 0.0031498
11010.0 0.0031952
11030.0 0.003147
11050.0 0.0030865
11070.0 0.0030129
11090.0 0.0029239
11110.0 0.0028313
11130.0 0.0027347
11150.0 0.0026309
11170.0 0.0025243
11190.0 0.0024213
11210.0 0.0023157
11230.0 0.0022082
11250.0 0.0021061
11270.0 0.0020086
11290.0 0.0019115
11310.0 0.00182
11330.0 0.0017394
11350.0 0.0016633
11370.0 0.0015927
11390.0 0.0015312
11410.0 0.0014766
11430.0 0.0014252
11450.0 0.00138
11470.0 0.0013397
11490.0 0.0013015
11510.0 0.0012639
11530.0 0.0012285
11550.0 0.001193
11570.0 0.0011554
11590.0 0.0011167
11610.0 0.0010777
11630.0 0.0010358
11650.0 0.00099164
11670.0 0.00094844
11690.0 0.00090501
11710.0 0.0008606
11730.0 0.00081771
11750.0 0.00077797
11770.0 0.00073904
11790.0 0.00070242
11810.0 0.00066984
11830.0 0.00064035
11850.0 0.00061287
11870.0 0.00058931
11890.0 0.00056913
11910.0 0.00055092
11930.0 0.00053473
11950.0 0.00052068
11970.0 0.00050776
11990.0 0.00049532
12010.0 0.0004836
12030.0 0.00047226
12050.0 0.00046065
12070.0 0.00044871
12090.0 0.00043718
12110.0 0.00042551
12130.0 0.00041373
12150.0 0.00040255
12170.0 0.00039228
12190.0 0.00038263
12210.0 0.00037448
12230.0 0.00036823
12250.0 0.00036388
12270.0 0.00036181
12290.0 0.00036216
12310.0 0.00036475
12330.0 0.00037003
12350.0 0.00037775
12370.0 0.00038724
12390.0 0.00039879
12410.0 0.00041292
12430.0 0.00042745
12450.0 0.00044264
12470.0 0.00045895
12490.0 0.00047534
12510.0 0.00049053
12530.0 0.0005056
12550.0 0.00052001
12570.0 0.00053242
12590.0 0.000543
12610.0 0.00055218
12630.0 0.00055904
12650.0 0.00056309
12670.0 0.00056504
12690.0 0.00056461
12710.0 0.00056169
12730.0 0.00055657
12750.0 0.00054912
12770.0 0.00053966
12790.0 0.00052865
12810.0 0.00051597
12830.0 0.00050168
12850.0 0.00048689
12870.0 0.00047144
12890.0 0.00045499
12910.0 0.00043839
12930.0 0.00042209
12950.0 0.00040526
12970.0 0.00038823
12990.0 0.00037211
13010.0 0.00035621
13030.0 0.00034019
13050.0 0.00032477
13070.0 0.00031023
13090.0 0.00029563
13110.0 0.00028143
13130.0 0.0002682
13150.0 0.00025557
13170.0 0.00024311
13190.0 0.00023185
13210.0 0.00022174
13230.0 0.00021232
13250.0 0.00020395
13270.0 0.00019703
13290.0 0.00019125
13310.0 0.00018671
13330.0 0.00018373
13350.0 0.00018221
13370.0 0.00018217
13390.0 0.00018374
13410.0 0.00018656
13430.0 0.00019073
13450.0 0.00019631
13470.0 0.00020279
13490.0 0.00020989
13510.0 0.00021817
13530.0 0.00022678
13550.0 0.00023518
13570.0 0.00024365
13590.0 0.00025209
13610.0 0.00025973
13630.0 0.00026652
13650.0 0.00027288
13670.0 0.00027828
13690.0 0.00028254
13710.0 0.00028595
13730.0 0.00028852
13750.0 0.00028993
13770.0 0.00029045
13790.0 0.00029015
13810.0 0.00028901
13830.0 0.00028718
13850.0 0.00028464
13870.0 0.0002814
13890.0 0.00027765
13910.0 0.00027344
13930.0 0.00026859
13950.0 0.00026332
13970.0 0.00025796
13990.0 0.00025217
14010.0 0.00024607
14030.0 0.00024003
14050.0 0.00023397
14070.0 0.00022763
14090.0 0.00022157
14110.0 0.00021589
14130.0 0.0002104
14150.0 0.00020522
14170.0 0.00020077
14190.0 0.00019689
14210.0 0.00019355
14230.0 0.00019101
14250.0 0.00018927
14270.0 0.00018829
14290.0 0.00018818
14310.0 0.00018889
14330.0 0.00019038
14350.0 0.0001927
14370.0 0.00019571
14390.0 0.00019923
14410.0 0.00020346
14430.0 0.00020821
14450.0 0.00021318
14470.0 0.00021845
14490.0 0.00022418
14510.0 0.00022981
14530.0 0.00023529
14550.0 0.00024092
14570.0 0.00024647
14590.0 0.00025168
14610.0 0.00025687
14630.0 0.00026213
14650.0 0.00026716
14670.0 0.00027212
14690.0 0.00027734
14710.0 0.00028283
14730.0 0.00028833
14750.0 0.00029435
14770.0 0.00030107
14790.0 0.00030825
14810.0 0.00031593
14830.0 0.00032485
14850.0 0.00033441
14870.0 0.00034429
14890.0 0.00035484
14910.0 0.00036594
14930.0 0.00037658
14950.0 0.00038653
14970.0 0.00039595
14990.0 0.00040392
15010.0 0.00041016
15030.0 0.00041493
15050.0 0.00041829
15070.0 0.00042025
15090.0 0.00042135
15110.0 0.00042184
15130.0 0.00042196
15150.0 0.00042191
15170.0 0.00042173
15190.0 0.00042149
15210.0 0.00042128
15230.0 0.00042108
15250.0 0.00042084
15270.0 0.00042062
15290.0 0.00042046
15310.0 0.00042028
15330.0 0.00042008
15350.0 0.00041993
15370.0 0.00041979
15390.0 0.0004196
15410.0 0.00041945
15430.0 0.00041933
15450.0 0.00041918
15470.0 0.00041902
15490.0 0.00041892
15510.0 0.00041881
15530.0 0.00041867
15550.0 0.00041855
15570.0 0.00041846
15590.0 0.00041833
15610.0 0.00041819
15630.0 0.0004181
15650.0 0.000418
15670.0 0.00041787
15690.0 0.00041776
15710.0 0.00041769
15730.0 0.00041756
15750.0 0.00041743
15770.0 0.00041734
15790.0 0.00041723
15810.0 0.00041707
15830.0 0.00041696
15850.0 0.00041686
15870.0 0.00041672
15890.0 0.00041657
15910.0 0.00041647
15930.0 0.00041633
15950.0 0.00041615
15970.0 0.00041601
15990.0 0.00041587
16010.0 0.00041569
16030.0 0.00041549
16050.0 0.00041535
16070.0 0.00041517
16090.0 0.00041496
16110.0 0.00041477
16130.0 0.00041459
16150.0 0.00041434
16170.0 0.0004141
16190.0 0.00041389
16210.0 0.00041365
16230.0 0.00041337
16250.0 0.00041313
16270.0 0.00041288
16290.0 0.00041258
16310.0 0.00041228
16330.0 0.000412
16350.0 0.00041169
16370.0 0.00041132
16390.0 0.000411
16410.0 0.00041067
16430.0 0.0004103
16450.0 0.00040992
16470.0 0.00040957
16490.0 0.00040917
16510.0 0.00040873
16530.0 0.00040833
16550.0 0.00040791
16570.0 0.00040743
16590.0 0.00040696
16610.0 0.00040652
16630.0 0.00040603
16650.0 0.00040551
16670.0 0.00040502
16690.0 0.00040451
16710.0 0.00040393
16730.0 0.00040337
16750.0 0.00040283
16770.0 0.00040224
16790.0 0.00040161
16810.0 0.00040102
16830.0 0.00040042
16850.0 0.00039975
16870.0 0.0003991
16890.0 0.00039846
16910.0 0.00039776
16930.0 0.00039702
16950.0 0.00039634
16970.0 0.00039562
16990.0 0.00039485
17010.0 0.0003941
17030.0 0.00039337
17050.0 0.00039256
17070.0 0.00039175
17090.0 0.00039095
17110.0 0.00039013
17130.0 0.00038925
17150.0 0.00038839
17170.0 0.00038755
17190.0 0.00038665
17210.0 0.00038574
17230.0 0.00038486
17250.0 0.00038393
17270.0 0.00038296
17290.0 0.00038201
17310.0 0.00038106
17330.0 0.00038005
17350.0 0.00037903
17370.0 0.00037806
17390.0 0.00037704
17410.0 0.00037598
17430.0 0.00037494
17450.0 0.00037391
17470.0 0.00037279
17490.0 0.00037169
17510.0 0.00037061
17530.0 0.0003695
17550.0 0.00036834
17570.0 0.00036722
17590.0 0.0003661
17610.0 0.00036491
17630.0 0.00036373
17650.0 0.00036257
17670.0 0.00036137
17690.0 0.0003601
17710.0 0.00035891
17730.0 0.0003577
17750.0 0.00035643
17770.0 0.00035518
17790.0 0.00035396
17810.0 0.00035266
17830.0 0.00035135
17850.0 0.00035008
17870.0 0.00034879
17890.0 0.00034744
17910.0 0.00034611
17930.0 0.00034481
17950.0 0.00034347
17970.0 0.0003421
17990.0 0.00034077
18010.0 0.00033942
18030.0 0.000338
18050.0 0.00033661
18070.0 0.00033525
18090.0 0.00033384
18110.0 0.0003324
18130.0 0.00033102
18150.0 0.00032962
18170.0 0.00032817
18190.0 0.00032674
18210.0 0.00032533
18230.0 0.00032385
18250.0 0.00032237
18270.0 0.00032094
18290.0 0.00031948
18310.0 0.00031799
18330.0 0.00031652
18350.0 0.00031508
18370.0 0.00031357
18390.0 0.00031206
18410.0 0.00031059
18430.0 0.0003091
18450.0 0.00030755
18470.0 0.00030605
18490.0 0.00030457
18510.0 0.00030304
18530.0 0.00030152
18550.0 0.00030003
18570.0 0.00029851
18590.0 0.00029694
18610.0 0.00029542
18630.0 0.00029391
18650.0 0.00029235
18670.0 0.00029079
18690.0 0.0002893
18710.0 0.00028776
18730.0 0.00028619
18750.0 0.00028466
18770.0 0.00028315
18790.0 0.00028156
18810.0 0.00028
18830.0 0.00027848
18850.0 0.00027693
18870.0 0.00027535
18890.0 0.00027383
18910.0 0.0002723
18930.0 0.00027072
18950.0 0.00026917
18970.0 0.00026765
18990.0 0.00026609
19010.0 0.00026449
19030.0 0.00026297
19050.0 0.00026144
19070.0 0.00025988
19090.0 0.00025833
19110.0 0.00025683
19130.0 0.00025526
19150.0 0.0002537
19170.0 0.00025217
19190.0 0.00025065
19210.0 0.00024908
19230.0 0.00024754
19250.0 0.00024604
19270.0 0.0002445
19290.0 0.00024296
19310.0 0.00024146
19330.0 0.00023995
19350.0 0.00023838
19370.0 0.00023686
19390.0 0.00023537
19410.0 0.00023385
19430.0 0.00023231
19450.0 0.00023084
19470.0 0.00022934
19490.0 0.00022782
19510.0 0.00022632
19530.0 0.00022486
19550.0 0.00022334
19570.0 0.00022182
19590.0 0.00022037
19610.0 0.00021889
19630.0 0.00021739
19650.0 0.00021593
19670.0 0.00021449
19690.0 0.000213
19710.0 0.00021153
19730.0 0.00021009
19750.0 0.00020864
19770.0 0.00020715
19790.0 0.00020572
19810.0 0.0002043
19830.0 0.00020284
19850.0 0.00020139
19870.0 0.00019996
19890.0 0.00019846
19910.0 0.00019687
19930.0 0.00019522
19950.0 0.00019341
19970.0 0.00019129
19990.0 0.00018887
20010.0 0.00017699
20030.0 0.00017403
20050.0 0.00017066
20070.0 0.00016708
20090.0 0.0001633
20110.0 0.00015909
20130.0 0.00015489
20150.0 0.00015077
20170.0 0.00014654
20190.0 0.00014229
20210.0 0.00013829
20230.0 0.00013441
20250.0 0.00013054
20270.0 0.00012694
20290.0 0.00012366
20310.0 0.00012052
20330.0 0.00011758
20350.0 0.0001151
20370.0 0.00011287
20390.0 0.00011087
20410.0 0.00010921
20430.0 0.00010788
20450.0 0.00010677
20470.0 0.00010595
20490.0 0.0001054
20510.0 0.00010509
20530.0 0.00010502
20550.0 0.00010515
20570.0 0.00010546
20590.0 0.00010595
20610.0 0.0001066
20630.0 0.00010736
20650.0 0.00010823
20670.0 0.00010927
20690.0 0.00011035
20710.0 0.00011147
20730.0 0.0001127
20750.0 0.00011398
20770.0 0.00011523
20790.0 0.00011654
20810.0 0.00011791
20830.0 0.00011926
20850.0 0.00012059
20870.0 0.00012201
20890.0 0.00012344
20910.0 0.00012479
20930.0 0.00012617
20950.0 0.0001276
20970.0 0.00012896
20990.0 0.0001303
21010.0 0.0001317
21030.0 0.00013306
21050.0 0.00013435
21070.0 0.00013563
21090.0 0.00013691
21110.0 0.00013807
21130.0 0.00013916
21150.0 0.00014022
21170.0 0.00014118
21190.0 0.000142
21210.0 0.00014276
21230.0 0.0001434
21250.0 0.00014386
21270.0 0.00014416
21290.0 0.00014431
21310.0 0.00014425
21330.0 0.00014398
21350.0 0.0001435
21370.0 0.00014277
21390.0 0.00014181
21410.0 0.00014062
21430.0 0.00013911
21450.0 0.00013738
21470.0 0.00013547
21490.0 0.00013329
21510.0 0.00013088
21530.0 0.0001284
21550.0 0.00012578
21570.0 0.00012296
21590.0 0.00012015
21610.0 0.00011741
21630.0 0.00011463
21650.0 0.00011188
21670.0 0.00010944
21690.0 0.00010715
21710.0 0.00010503
21730.0 0.00010323
21750.0 0.00010175
21770.0 0.00010052
21790.0 9.9646e-05
21810.0 9.9135e-05
21830.0 9.8951e-05
21850.0 9.9116e-05
21870.0 9.9602e-05
21890.0 0.00010035
21910.0 0.00010142
21930.0 0.00010275
21950.0 0.00010425
21970.0 0.00010596
21990.0 0.00010794
22010.0 0.00010995
22030.0 0.00011203
22050.0 0.00011425
22070.0 0.00011653
22090.0 0.00011871
22110.0 0.00012094
22130.0 0.0001232
22150.0 0.00012534
22170.0 0.00012738
22190.0 0.00012942
22210.0 0.00013135
22230.0 0.00013306
22250.0 0.00013468
22270.0 0.00013619
22290.0 0.00013748
22310.0 0.00013859
22330.0 0.00013958
22350.0 0.00014035
22370.0 0.00014089
22390.0 0.00014124
22410.0 0.00014136
22430.0 0.00014123
22450.0 0.00014088
22470.0 0.00014026
22490.0 0.0001394
22510.0 0.00013832
22530.0 0.00013694
22550.0 0.00013527
22570.0 0.00013341
22590.0 0.00013132
22610.0 0.00012892
22630.0 0.00012631
22650.0 0.00012362
22670.0 0.00012064
22690.0 0.00011746
22710.0 0.00011424
22730.0 0.00011091
22750.0 0.00010731
22770.0 0.00010377
22790.0 0.00010031
22810.0 9.675e-05
22830.0 9.3193e-05
22850.0 8.9855e-05
22870.0 8.6576e-05
22890.0 8.3312e-05
22910.0 8.0297e-05
22930.0 7.7529e-05
22950.0 7.4887e-05
22970.0 7.2437e-05
22990.0 7.0396e-05
23010.0 6.8578e-05
