#lamb flux
1010.0 1.2386e-07
1030.0 1.3671e-07
1050.0 1.515e-07
1070.0 1.6814e-07
1090.0 1.8704e-07
1110.0 2.0642e-07
1130.0 2.2594e-07
1150.0 2.4638e-07
1170.0 2.6746e-07
1190.0 2.8745e-07
1210.0 3.0771e-07
1230.0 3.2865e-07
1250.0 3.4916e-07
1270.0 3.6908e-07
1290.0 3.9014e-07
1310.0 4.1117e-07
1330.0 4.3134e-07
1350.0 4.5174e-07
1370.0 4.728e-07
1390.0 4.9334e-07
1410.0 5.1326e-07
1430.0 5.3409e-07
1450.0 5.5492e-07
1470.0 5.7506e-07
1490.0 5.954e-07
1510.0 6.169e-07
1530.0 6.3727e-07
1550.0 6.5737e-07
1570.0 6.7817e-07
1590.0 6.9899e-07
1610.0 7.1888e-07
1630.0 7.394e-07
1650.0 7.6047e-07
1670.0 7.8085e-07
1690.0 8.0099e-07
1710.0 8.2191e-07
1730.0 8.4297e-07
1750.0 8.6278e-07
1770.0 8.8319e-07
1790.0 9.0404e-07
1810.0 9.2424e-07
1830.0 9.441e-07
1850.0 9.6521e-07
1870.0 9.858e-07
1890.0 1.0057e-06
1910.0 1.0261e-06
1930.0 1.047e-06
1950.0 1.0669e-06
1970.0 1.0867e-06
1990.0 1.1072e-06
2010.0 1.1274e-06
2030.0 1.1469e-06
2050.0 1.167e-06
2070.0 1.1877e-06
2090.0 1.2072e-06
2110.0 1.2267e-06
2130.0 1.2468e-06
2150.0 1.2665e-06
2170.0 1.2853e-06
2190.0 1.3049e-06
2210.0 1.3246e-06
2230.0 1.3435e-06
2250.0 1.3623e-06
2270.0 1.3819e-06
2290.0 1.4009e-06
2310.0 1.4191e-06
2330.0 1.438e-06
2350.0 1.4574e-06
2370.0 1.4767e-06
2390.0 1.4977e-06
2410.0 1.5226e-06
2430.0 1.5514e-06
2450.0 1.5861e-06
2470.0 1.6307e-06
2490.0 1.6873e-06
2510.0 1.7517e-06
2530.0 1.8295e-06
2550.0 1.927e-06
2570.0 2.0484e-06
2590.0 2.2062e-06
2610.0 2.4423e-06
2630.0 2.7791e-06
2650.0 3.2185e-06
2670.0 3.7859e-06
2690.0 4.482e-06
2710.0 5.2235e-06
2730.0 5.9547e-06
2750.0 6.6733e-06
2770.0 7.2964e-06
2790.0 7.7889e-06
2810.0 8.1776e-06
2830.0 8.479e-06
2850.0 8.6821e-06
2870.0 8.8289e-06
2890.0 8.9434e-06
2910.0 9.0332e-06
2930.0 9.1053e-06
2950.0 9.1738e-06
2970.0 9.2408e-06
2990.0 9.3033e-06
3010.0 0.00026683
3030.0 0.00026861
3050.0 0.00027033
3070.0 0.00027178
3090.0 0.000273
3110.0 0.0002737
3130.0 0.00027349
3150.0 0.00027211
3170.0 0.00026903
3190.0 0.00026429
3210.0 0.00025834
3230.0 0.00025155
3250.0 0.0002448
3270.0 0.00023986
3290.0 0.00023699
3310.0 0.00023728
3330.0 0.00024056
3350.0 0.00024639
3370.0 0.00025478
3390.0 0.00026539
3410.0 0.00027697
3430.0 0.00028998
3450.0 0.00030498
3470.0 0.00032136
3490.0 0.00033875
3510.0 0.00035841
3530.0 0.00037949
3550.0 0.00040094
3570.0 0.00042341
3590.0 0.00044789
3610.0 0.00047328
3630.0 0.00049856
3650.0 0.00052483
3670.0 0.00054876
3690.0 0.00056663
3710.0 0.00057674
3730.0 0.00057654
3750.0 0.00056743
3770.0 0.00056609
3790.0 0.00056255
3810.0 0.00053941
3830.0 0.00055451
3850.0 0.00063498
3870.0 0.00066972
3890.0 0.0006524
3910.0 0.0006498
3930.0 0.00067449
3950.0 0.00069471
3970.0 0.00064369
3990.0 0.00053903
4010.0 0.0015752
4030.0 0.0018898
4050.0 0.0021663
4070.0 0.0019069
4090.0 0.001731
4110.0 0.0015194
4130.0 0.0014264
4150.0 0.0015536
4170.0 0.0014975
4190.0 0.0015733
4210.0 0.0015751
4230.0 0.0016879
4250.0 0.0020022
4270.0 0.0020405
4290.0 0.0018695
4310.0 0.001922
4330.0 0.0020297
4350.0 0.0023015
4370.0 0.0026372
4390.0 0.0024359
4410.0 0.0017576
4430.0 0.0014713
4450.0 0.001355
4470.0 0.0010221
4490.0 0.0011359
4510.0 0.0017834
4530.0 0.0020705
4550.0 0.0020671
4570.0 0.0022748
4590.0 0.0025751
4610.0 0.0036074
4630.0 0.0047331
4650.0 0.0050582
4670.0 0.0046577
4690.0 0.0044675
4710.0 0.0047141
4730.0 0.0043943
4750.0 0.003248
4770.0 0.0023643
4790.0 0.0022388
4810.0 0.0021566
4830.0 0.0019899
4850.0 0.0021796
4870.0 0.0028801
4890.0 0.0033892
4910.0 0.0029407
4930.0 0.0026282
4950.0 0.0029021
4970.0 0.0037333
4990.0 0.0050586
5010.0 0.0058277
5030.0 0.0050895
5050.0 0.0034143
5070.0 0.002266
5090.0 0.0018131
5110.0 0.0018474
5130.0 0.0021428
5150.0 0.0023
5170.0 0.0022561
5190.0 0.002098
5210.0 0.0022074
5230.0 0.0023558
5250.0 0.0025591
5270.0 0.0027191
5290.0 0.0030037
5310.0 0.0035453
5330.0 0.0039163
5350.0 0.0038883
5370.0 0.0041097
5390.0 0.0047596
5410.0 0.0046819
5430.0 0.0040905
5450.0 0.0037903
5470.0 0.004058
5490.0 0.0049659
5510.0 0.0061879
5530.0 0.0071063
5550.0 0.0068241
5570.0 0.006197
5590.0 0.0053598
5610.0 0.0049866
5630.0 0.0049119
5650.0 0.0046563
5670.0 0.0043964
5690.0 0.0038896
5710.0 0.0038134
5730.0 0.0035313
5750.0 0.0024317
5770.0 0.0018809
5790.0 0.0021468
5810.0 0.0024071
5830.0 0.0030195
5850.0 0.0036314
5870.0 0.0040192
5890.0 0.0040633
5910.0 0.0039845
5930.0 0.0037943
5950.0 0.0038699
5970.0 0.0044523
5990.0 0.0041289
6010.0 0.0034345
6030.0 0.0028935
6050.0 0.0025259
6070.0 0.0025562
6090.0 0.0027805
6110.0 0.0030794
6130.0 0.0031003
6150.0 0.0026458
6170.0 0.0022982
6190.0 0.0025992
6210.0 0.0034943
6230.0 0.0046469
6250.0 0.0050355
6270.0 0.0043415
6290.0 0.0036598
6310.0 0.0028505
6330.0 0.0021734
6350.0 0.0019568
6370.0 0.0020574
6390.0 0.002385
6410.0 0.0029576
6430.0 0.0034651
6450.0 0.003995
6470.0 0.0045304
6490.0 0.0054647
6510.0 0.0061116
6530.0 0.0060273
6550.0 0.0054608
6570.0 0.0045989
6590.0 0.004167
6610.0 0.0035769
6630.0 0.0032927
6650.0 0.0031256
6670.0 0.0029944
6690.0 0.0026571
6710.0 0.0024344
6730.0 0.0016715
6750.0 0.0017015
6770.0 0.0019292
6790.0 0.0022596
6810.0 0.0019994
6830.0 0.0020566
6850.0 0.0018977
6870.0 0.0017365
6890.0 0.0016455
6910.0 0.0017797
6930.0 0.0016684
6950.0 0.0017458
6970.0 0.0018356
6990.0 0.0020783
7010.0 0.0020827
7030.0 0.0021503
7050.0 0.0020271
7070.0 0.0019015
7090.0 0.0019227
7110.0 0.0019881
7130.0 0.002158
7150.0 0.0023099
7170.0 0.0025551
7190.0 0.0028017
7210.0 0.0027216
7230.0 0.0027935
7250.0 0.0029988
7270.0 0.0032586
7290.0 0.0038882
7310.0 0.0042118
7330.0 0.0040605
7350.0 0.0036693
7370.0 0.0031387
7390.0 0.0030616
7410.0 0.0033033
7430.0 0.003683
7450.0 0.0040067
7470.0 0.0039299
7490.0 0.0035227
7510.0 0.0041537
7530.0 0.004071
7550.0 0.0036865
7570.0 0.0028332
7590.0 0.001869
7610.0 0.001582
7630.0 0.0018372
7650.0 0.0021982
7670.0 0.0028093
7690.0 0.0030943
7710.0 0.0031739
7730.0 0.0033179
7750.0 0.0037903
7770.0 0.0038565
7790.0 0.0035394
7810.0 0.0031842
7830.0 0.003303
7850.0 0.0032575
7870.0 0.0030109
7890.0 0.0025061
7910.0 0.0019949
7930.0 0.0019232
7950.0 0.0017511
7970.0 0.0016045
7990.0 0.0015807
8010.0 0.00021759
8030.0 0.00020244
8050.0 0.00021214
8070.0 0.00023577
8090.0 0.0002834
8110.0 0.00027126
8130.0 0.00017268
8150.0 0.00017932
8170.0 0.00011289
8190.0 8.0671e-05
8210.0 0.00017244
8230.0 0.00020462
8250.0 0.00011099
8270.0 9.0332e-05
8290.0 0.00013525
8310.0 0.00011628
8330.0 7.4468e-05
8350.0 5.6535e-05
8370.0 1.8278e-05
8390.0 6.2593e-05
8410.0 7.1436e-05
8430.0 8.8045e-05
8450.0 0.0001014
8470.0 0.00015629
8490.0 0.0001367
8510.0 0.00011509
8530.0 8.3434e-05
8550.0 0.00019182
8570.0 0.0002705
8590.0 0.00021814
8610.0 0.00030916
8630.0 0.00035143
8650.0 0.00025956
8670.0 0.00032562
8690.0 0.00042096
8710.0 0.00036596
8730.0 0.00037209
8750.0 0.00030296
8770.0 0.00027513
8790.0 0.00029108
8810.0 0.00030334
8830.0 0.00019084
8850.0 0.00010152
8870.0 7.324e-05
8890.0 0.00012503
8910.0 0.00018246
8930.0 0.00023532
8950.0 0.00025281
8970.0 0.00024466
8990.0 0.00018618
9010.0 0.00079331
9030.0 0.0006894
9050.0 0.00069663
9070.0 0.00070616
9090.0 0.00071428
9110.0 0.00072431
9130.0 0.00073179
9150.0 0.00073734
9170.0 0.00074324
9190.0 0.00074956
9210.0 0.0007562
9230.0 0.00076321
9250.0 0.0007703
9270.0 0.00077763
9290.0 0.00078517
9310.0 0.00079271
9330.0 0.00080037
9350.0 0.0008083
9370.0 0.0008163
9390.0 0.00082432
9410.0 0.00083258
9430.0 0.00084107
9450.0 0.00084948
9470.0 0.00085805
9490.0 0.00086686
9510.0 0.00087575
9530.0 0.00088464
9550.0 0.00089386
9570.0 0.00090323
9590.0 0.00091258
9610.0 0.00092209
9630.0 0.00093185
9650.0 0.00094168
9670.0 0.00095149
9690.0 0.00096158
9710.0 0.00097182
9730.0 0.00098206
9750.0 0.00099244
9770.0 0.0010032
9790.0 0.0010138
9810.0 0.0010245
9830.0 0.0010355
9850.0 0.0010466
9870.0 0.0010576
9890.0 0.0010688
9910.0 0.0010802
9930.0 0.0010916
9950.0 0.001103
9970.0 0.0011147
9990.0 0.0011266
10010.0 0.00098079
10030.0 0.00099101
10050.0 0.0010014
10070.0 0.001012
10090.0 0.0010222
10110.0 0.0010327
10130.0 0.0010432
10150.0 0.0010536
10170.0 0.0010642
10190.0 0.001075
10210.0 0.0010856
10230.0 0.0010961
10250.0 0.0011069
10270.0 0.0011176
10290.0 0.0011282
10310.0 0.001139
10330.0 0.0011498
10350.0 0.0011605
10370.0 0.0011711
10390.0 0.0011819
10410.0 0.0011926
10430.0 0.0012031
10450.0 0.0012136
10470.0 0.0012243
10490.0 0.0012347
10510.0 0.0012451
10530.0 0.0012556
10550.0 0.001266
10570.0 0.0012761
10590.0 0.0012863
10610.0 0.0012965
10630.0 0.0013064
10650.0 0.0013162
10670.0 0.0013262
10690.0 0.0013359
10710.0 0.0013454
10730.0 0.001355
10750.0 0.0013645
10770.0 0.0013737
10790.0 0.0013828
10810.0 0.0013918
10830.0 0.0014006
10850.0 0.0014089
10870.0 0.0014171
10890.0 0.0014243
10910.0 0.0014301
10930.0 0.0014338
10950.0 0.0014341
10970.0 0.00143
10990.0 0.001421
11010.0 0.0013353
11030.0 0.0013141
11050.0 0.0012883
11070.0 0.0012573
11090.0 0.00122
11110.0 0.0011814
11130.0 0.0011411
11150.0 0.0010978
11170.0 0.0010532
11190.0 0.00101
11210.0 0.00096537
11230.0 0.00091966
11250.0 0.00087601
11270.0 0.00083412
11290.0 0.00079217
11310.0 0.00075244
11330.0 0.00071743
11350.0 0.00068436
11370.0 0.00065378
11390.0 0.00062729
11410.0 0.00060407
11430.0 0.00058247
11450.0 0.0005638
11470.0 0.00054761
11490.0 0.00053252
11510.0 0.00051795
11530.0 0.00050441
11550.0 0.00049097
11570.0 0.00047664
11590.0 0.00046184
11610.0 0.00044679
11630.0 0.00043044
11650.0 0.00041298
11670.0 0.00039578
11690.0 0.00037836
11710.0 0.0003604
11730.0 0.00034301
11750.0 0.00032691
11770.0 0.00031111
11790.0 0.0002963
11810.0 0.00028324
11830.0 0.00027154
11850.0 0.00026075
11870.0 0.00025169
11890.0 0.00024413
11910.0 0.00023746
11930.0 0.00023171
11950.0 0.0002269
11970.0 0.00022259
11990.0 0.0002185
12010.0 0.00021473
12030.0 0.00021109
12050.0 0.00020734
12070.0 0.00020346
12090.0 0.00019971
12110.0 0.00019592
12130.0 0.00019212
12150.0 0.0001886
12170.0 0.00018552
12190.0 0.00018282
12210.0 0.00018089
12230.0 0.00017988
12250.0 0.00017985
12270.0 0.00018103
12290.0 0.00018342
12310.0 0.00018693
12330.0 0.00019189
12350.0 0.00019812
12370.0 0.00020525
12390.0 0.00021348
12410.0 0.00022315
12430.0 0.00023299
12450.0 0.00024318
12470.0 0.00025402
12490.0 0.00026491
12510.0 0.00027512
12530.0 0.00028528
12550.0 0.00029507
12570.0 0.00030371
12590.0 0.00031128
12610.0 0.00031802
12630.0 0.00032337
12650.0 0.00032704
12670.0 0.00032942
12690.0 0.00033032
12710.0 0.00032969
12730.0 0.00032769
12750.0 0.00032419
12770.0 0.00031943
12790.0 0.00031367
12810.0 0.00030681
12830.0 0.00029889
12850.0 0.00029061
12870.0 0.00028187
12890.0 0.00027243
12910.0 0.00026283
12930.0 0.00025339
12950.0 0.00024354
12970.0 0.00023353
12990.0 0.00022406
13010.0 0.00021471
13030.0 0.00020527
13050.0 0.0001962
13070.0 0.00018771
13090.0 0.00017918
13110.0 0.00017094
13130.0 0.00016334
13150.0 0.00015613
13170.0 0.00014908
13190.0 0.00014279
13210.0 0.00013725
13230.0 0.00013217
13250.0 0.00012779
13270.0 0.00012431
13290.0 0.00012159
13310.0 0.00011969
13330.0 0.00011878
13350.0 0.0001188
13370.0 0.00011979
13390.0 0.00012182
13410.0 0.0001246
13430.0 0.00012823
13450.0 0.00013274
13470.0 0.00013776
13490.0 0.00014309
13510.0 0.00014912
13530.0 0.00015524
13550.0 0.00016112
13570.0 0.00016692
13590.0 0.00017258
13610.0 0.00017763
13630.0 0.00018205
13650.0 0.00018609
13670.0 0.00018946
13690.0 0.00019207
13710.0 0.0001941
13730.0 0.00019556
13750.0 0.00019631
13770.0 0.0001965
13790.0 0.00019617
13810.0 0.00019532
13830.0 0.00019406
13850.0 0.00019233
13870.0 0.00019015
13890.0 0.00018764
13910.0 0.00018482
13930.0 0.00018155
13950.0 0.00017798
13970.0 0.00017433
13990.0 0.00017035
14010.0 0.00016613
14030.0 0.00016191
14050.0 0.00015766
14070.0 0.00015318
14090.0 0.00014888
14110.0 0.00014484
14130.0 0.00014092
14150.0 0.00013724
14170.0 0.00013409
14190.0 0.00013136
14210.0 0.00012905
14230.0 0.00012733
14250.0 0.00012621
14270.0 0.00012566
14290.0 0.00012576
14310.0 0.00012644
14330.0 0.00012769
14350.0 0.00012953
14370.0 0.00013183
14390.0 0.00013446
14410.0 0.00013755
14430.0 0.00014095
14450.0 0.00014443
14470.0 0.00014804
14490.0 0.00015189
14510.0 0.00015557
14530.0 0.00015908
14550.0 0.00016258
14570.0 0.00016595
14590.0 0.00016902
14610.0 0.00017199
14630.0 0.00017493
14650.0 0.00017767
14670.0 0.00018031
14690.0 0.00018306
14710.0 0.00018595
14730.0 0.00018884
14750.0 0.00019204
14770.0 0.00019567
14790.0 0.0001996
14810.0 0.00020386
14830.0 0.00020892
14850.0 0.00021441
14870.0 0.00022015
14890.0 0.00022634
14910.0 0.00023293
14930.0 0.00023926
14950.0 0.00024519
14970.0 0.0002508
14990.0 0.00025552
15010.0 0.00025913
15030.0 0.00026182
15050.0 0.00026361
15070.0 0.00026451
15090.0 0.00026484
15110.0 0.00026479
15130.0 0.00026449
15150.0 0.00026408
15170.0 0.00026359
15190.0 0.00026306
15210.0 0.00026253
15230.0 0.00026201
15250.0 0.00026147
15270.0 0.00026093
15290.0 0.00026043
15310.0 0.0002599
15330.0 0.00025938
15350.0 0.00025888
15370.0 0.00025838
15390.0 0.00025785
15410.0 0.00025734
15430.0 0.00025685
15450.0 0.00025635
15470.0 0.00025584
15490.0 0.00025536
15510.0 0.00025487
15530.0 0.00025437
15550.0 0.00025389
15570.0 0.00025342
15590.0 0.00025292
15610.0 0.00025243
15630.0 0.00025196
15650.0 0.00025149
15670.0 0.000251
15690.0 0.00025052
15710.0 0.00025007
15730.0 0.00024959
15750.0 0.00024911
15770.0 0.00024865
15790.0 0.00024819
15810.0 0.0002477
15830.0 0.00024723
15850.0 0.00024678
15870.0 0.00024631
15890.0 0.00024584
15910.0 0.00024539
15930.0 0.00024493
15950.0 0.00024445
15970.0 0.000244
15990.0 0.00024354
16010.0 0.00024308
16030.0 0.0002426
16050.0 0.00024216
16070.0 0.0002417
16090.0 0.00024123
16110.0 0.00024077
16130.0 0.00024033
16150.0 0.00023985
16170.0 0.00023938
16190.0 0.00023893
16210.0 0.00023847
16230.0 0.00023799
16250.0 0.00023754
16270.0 0.00023709
16290.0 0.00023661
16310.0 0.00023615
16330.0 0.00023569
16350.0 0.00023523
16370.0 0.00023474
16390.0 0.00023428
16410.0 0.00023382
16430.0 0.00023334
16450.0 0.00023287
16470.0 0.00023242
16490.0 0.00023194
16510.0 0.00023145
16530.0 0.00023098
16550.0 0.00023051
16570.0 0.00023002
16590.0 0.00022953
16610.0 0.00022907
16630.0 0.00022859
16650.0 0.0002281
16670.0 0.00022762
16690.0 0.00022715
16710.0 0.00022664
16730.0 0.00022615
16750.0 0.00022567
16770.0 0.00022517
16790.0 0.00022467
16810.0 0.00022418
16830.0 0.0002237
16850.0 0.00022318
16870.0 0.00022268
16890.0 0.0002222
16910.0 0.00022168
16930.0 0.00022116
16950.0 0.00022066
16970.0 0.00022016
16990.0 0.00021964
17010.0 0.00021913
17030.0 0.00021863
17050.0 0.0002181
17070.0 0.00021757
17090.0 0.00021706
17110.0 0.00021655
17130.0 0.000216
17150.0 0.00021547
17170.0 0.00021496
17190.0 0.00021442
17210.0 0.00021389
17230.0 0.00021337
17250.0 0.00021283
17270.0 0.00021228
17290.0 0.00021174
17310.0 0.00021121
17330.0 0.00021065
17350.0 0.00021009
17370.0 0.00020957
17390.0 0.00020902
17410.0 0.00020846
17430.0 0.00020791
17450.0 0.00020737
17470.0 0.00020679
17490.0 0.00020622
17510.0 0.00020568
17530.0 0.00020511
17550.0 0.00020453
17570.0 0.00020398
17590.0 0.00020342
17610.0 0.00020284
17630.0 0.00020226
17650.0 0.0002017
17670.0 0.00020113
17690.0 0.00020052
17710.0 0.00019996
17730.0 0.00019939
17750.0 0.00019879
17770.0 0.00019821
17790.0 0.00019764
17810.0 0.00019705
17830.0 0.00019644
17850.0 0.00019586
17870.0 0.00019528
17890.0 0.00019467
17910.0 0.00019406
17930.0 0.00019349
17950.0 0.00019289
17970.0 0.00019228
17990.0 0.00019169
18010.0 0.0001911
18030.0 0.00019047
18050.0 0.00018986
18070.0 0.00018927
18090.0 0.00018866
18110.0 0.00018803
18130.0 0.00018744
18150.0 0.00018683
18170.0 0.00018621
18190.0 0.0001856
18210.0 0.000185
18230.0 0.00018437
18250.0 0.00018373
18270.0 0.00018313
18290.0 0.00018251
18310.0 0.00018188
18330.0 0.00018126
18350.0 0.00018066
18370.0 0.00018002
18390.0 0.00017939
18410.0 0.00017878
18430.0 0.00017815
18450.0 0.0001775
18470.0 0.00017688
18490.0 0.00017627
18510.0 0.00017563
18530.0 0.00017499
18550.0 0.00017438
18570.0 0.00017375
18590.0 0.0001731
18610.0 0.00017247
18630.0 0.00017184
18650.0 0.0001712
18670.0 0.00017055
18690.0 0.00016994
18710.0 0.0001693
18730.0 0.00016866
18750.0 0.00016803
18770.0 0.0001674
18790.0 0.00016674
18810.0 0.0001661
18830.0 0.00016548
18850.0 0.00016484
18870.0 0.00016418
18890.0 0.00016355
18910.0 0.00016293
18930.0 0.00016227
18950.0 0.00016163
18970.0 0.00016101
18990.0 0.00016036
19010.0 0.0001597
19030.0 0.00015907
19050.0 0.00015844
19070.0 0.00015779
19090.0 0.00015715
19110.0 0.00015652
19130.0 0.00015587
19150.0 0.00015522
19170.0 0.00015459
19190.0 0.00015395
19210.0 0.0001533
19230.0 0.00015265
19250.0 0.00015203
19270.0 0.00015138
19290.0 0.00015073
19310.0 0.00015011
19330.0 0.00014947
19350.0 0.00014881
19370.0 0.00014817
19390.0 0.00014754
19410.0 0.0001469
19430.0 0.00014625
19450.0 0.00014562
19470.0 0.00014499
19490.0 0.00014434
19510.0 0.0001437
19530.0 0.00014308
19550.0 0.00014243
19570.0 0.00014177
19590.0 0.00014115
19610.0 0.00014052
19630.0 0.00013987
19650.0 0.00013924
19670.0 0.00013862
19690.0 0.00013797
19710.0 0.00013733
19730.0 0.00013671
19750.0 0.00013607
19770.0 0.00013542
19790.0 0.00013479
19810.0 0.00013417
19830.0 0.00013353
19850.0 0.00013288
19870.0 0.00013225
19890.0 0.00013157
19910.0 0.00013082
19930.0 0.00013003
19950.0 0.00012912
19970.0 0.00012801
19990.0 0.00012668
20010.0 0.00011294
20030.0 0.00011129
20050.0 0.00010937
20070.0 0.00010728
20090.0 0.00010504
20110.0 0.00010251
20130.0 9.9949e-05
20150.0 9.7412e-05
20170.0 9.4783e-05
20190.0 9.2119e-05
20210.0 8.9603e-05
20230.0 8.7149e-05
20250.0 8.4691e-05
20270.0 8.241e-05
20290.0 8.0327e-05
20310.0 7.8347e-05
20330.0 7.6496e-05
20350.0 7.4958e-05
20370.0 7.3592e-05
20390.0 7.2392e-05
20410.0 7.1421e-05
20430.0 7.067e-05
20450.0 7.0072e-05
20470.0 6.9668e-05
20490.0 6.9447e-05
20510.0 6.9376e-05
20530.0 6.9452e-05
20550.0 6.9658e-05
20570.0 6.9962e-05
20590.0 7.0377e-05
20610.0 7.0882e-05
20630.0 7.1441e-05
20650.0 7.2067e-05
20670.0 7.2785e-05
20690.0 7.3517e-05
20710.0 7.4275e-05
20730.0 7.5093e-05
20750.0 7.5947e-05
20770.0 7.6786e-05
20790.0 7.7668e-05
20810.0 7.86e-05
20830.0 7.9527e-05
20850.0 8.0457e-05
20870.0 8.1452e-05
20890.0 8.2466e-05
20910.0 8.3443e-05
20930.0 8.4456e-05
20950.0 8.5505e-05
20970.0 8.6527e-05
20990.0 8.7535e-05
21010.0 8.8594e-05
21030.0 8.9629e-05
21050.0 9.0616e-05
21070.0 9.1601e-05
21090.0 9.2589e-05
21110.0 9.3488e-05
21130.0 9.4333e-05
21150.0 9.5151e-05
21170.0 9.5891e-05
21190.0 9.6528e-05
21210.0 9.7099e-05
21230.0 9.7574e-05
21250.0 9.791e-05
21270.0 9.8122e-05
21290.0 9.8198e-05
21310.0 9.8115e-05
21330.0 9.788e-05
21350.0 9.747e-05
21370.0 9.6871e-05
21390.0 9.611e-05
21410.0 9.518e-05
21430.0 9.4003e-05
21450.0 9.2683e-05
21470.0 9.1245e-05
21490.0 8.9619e-05
21510.0 8.7836e-05
21530.0 8.6025e-05
21550.0 8.4128e-05
21570.0 8.2105e-05
21590.0 8.0116e-05
21610.0 7.8194e-05
21630.0 7.6269e-05
21650.0 7.439e-05
21670.0 7.276e-05
21690.0 7.1257e-05
21710.0 6.9903e-05
21730.0 6.8793e-05
21750.0 6.7936e-05
21770.0 6.7282e-05
21790.0 6.6904e-05
21810.0 6.6796e-05
21830.0 6.6938e-05
21850.0 6.735e-05
21870.0 6.7994e-05
21890.0 6.8827e-05
21910.0 6.9898e-05
21930.0 7.1154e-05
21950.0 7.2515e-05
21970.0 7.4024e-05
21990.0 7.5718e-05
22010.0 7.741e-05
22030.0 7.913e-05
22050.0 8.0936e-05
22070.0 8.2753e-05
22090.0 8.4472e-05
22110.0 8.6206e-05
22130.0 8.7938e-05
22150.0 8.9555e-05
22170.0 9.108e-05
22190.0 9.2591e-05
22210.0 9.3996e-05
22230.0 9.5233e-05
22250.0 9.6398e-05
22270.0 9.747e-05
22290.0 9.8386e-05
22310.0 9.9171e-05
22330.0 9.9862e-05
22350.0 0.0001004
22370.0 0.00010077
22390.0 0.000101
22410.0 0.00010108
22430.0 0.00010098
22450.0 0.00010071
22470.0 0.00010026
22490.0 9.9627e-05
22510.0 9.8839e-05
22530.0 9.7832e-05
22550.0 9.6607e-05
22570.0 9.525e-05
22590.0 9.3719e-05
22610.0 9.1959e-05
22630.0 9.0054e-05
22650.0 8.8085e-05
22670.0 8.5909e-05
22690.0 8.3585e-05
22710.0 8.1242e-05
22730.0 7.8827e-05
22750.0 7.6209e-05
22770.0 7.3651e-05
22790.0 7.1153e-05
22810.0 6.8589e-05
22830.0 6.6031e-05
22850.0 6.3637e-05
22870.0 6.129e-05
22890.0 5.8955e-05
22910.0 5.6804e-05
