#lamb flux
1010.0 9.1655e-10
1030.0 1.1528e-09
1050.0 1.4243e-09
1070.0 1.73e-09
1090.0 2.0771e-09
1110.0 2.433e-09
1130.0 2.7911e-09
1150.0 3.1661e-09
1170.0 3.5528e-09
1190.0 3.9193e-09
1210.0 4.2907e-09
1230.0 4.6744e-09
1250.0 5.0503e-09
1270.0 5.4153e-09
1290.0 5.801e-09
1310.0 6.1865e-09
1330.0 6.5564e-09
1350.0 6.9306e-09
1370.0 7.3172e-09
1390.0 7.6944e-09
1410.0 8.0606e-09
1430.0 8.4438e-09
1450.0 8.8273e-09
1470.0 9.1982e-09
1490.0 9.5733e-09
1510.0 9.9698e-09
1530.0 1.0346e-08
1550.0 1.0717e-08
1570.0 1.1101e-08
1590.0 1.1486e-08
1610.0 1.1853e-08
1630.0 1.2233e-08
1650.0 1.2622e-08
1670.0 1.2999e-08
1690.0 1.3371e-08
1710.0 1.3758e-08
1730.0 1.4147e-08
1750.0 1.4514e-08
1770.0 1.4892e-08
1790.0 1.5278e-08
1810.0 1.5652e-08
1830.0 1.6021e-08
1850.0 1.6412e-08
1870.0 1.6794e-08
1890.0 1.7164e-08
1910.0 1.7543e-08
1930.0 1.7932e-08
1950.0 1.8305e-08
1970.0 1.8674e-08
1990.0 1.9059e-08
2010.0 1.944e-08
2030.0 1.9808e-08
2050.0 2.019e-08
2070.0 2.0582e-08
2090.0 2.0955e-08
2110.0 2.1329e-08
2130.0 2.1715e-08
2150.0 2.2097e-08
2170.0 2.2465e-08
2190.0 2.2849e-08
2210.0 2.3238e-08
2230.0 2.3614e-08
2250.0 2.3991e-08
2270.0 2.4387e-08
2290.0 2.4775e-08
2310.0 2.5151e-08
2330.0 2.554e-08
2350.0 2.5936e-08
2370.0 2.6318e-08
2390.0 2.6705e-08
2410.0 2.7113e-08
2430.0 2.7516e-08
2450.0 2.7926e-08
2470.0 2.8381e-08
2490.0 2.891e-08
2510.0 2.9521e-08
2530.0 3.0312e-08
2550.0 3.1408e-08
2570.0 3.2882e-08
2590.0 3.4831e-08
2610.0 3.7618e-08
2630.0 4.1313e-08
2650.0 4.5832e-08
2670.0 5.1412e-08
2690.0 5.8168e-08
2710.0 6.5573e-08
2730.0 7.3362e-08
2750.0 8.179e-08
2770.0 9.0156e-08
2790.0 9.7936e-08
2810.0 1.0525e-07
2830.0 1.1209e-07
2850.0 1.1784e-07
2870.0 1.2293e-07
2890.0 1.2767e-07
2910.0 1.321e-07
2930.0 1.3631e-07
2950.0 1.4063e-07
2970.0 1.4512e-07
2990.0 1.497e-07
3010.0 1.5448e-07
3030.0 1.5958e-07
3050.0 1.6492e-07
3070.0 1.7035e-07
3090.0 1.7611e-07
3110.0 1.8224e-07
3130.0 1.8881e-07
3150.0 1.9629e-07
3170.0 2.0582e-07
3190.0 2.1824e-07
3210.0 2.3449e-07
3230.0 2.5611e-07
3250.0 2.8358e-07
3270.0 3.0971e-07
3290.0 3.5118e-07
3310.0 4.3616e-07
3330.0 4.644e-07
3350.0 4.7828e-07
3370.0 4.9162e-07
3390.0 5.0519e-07
3410.0 5.1891e-07
3430.0 5.3273e-07
3450.0 5.4656e-07
3470.0 5.6014e-07
3490.0 5.7323e-07
3510.0 5.851e-07
3530.0 5.7988e-07
3550.0 5.6387e-07
3570.0 5.7215e-07
3590.0 6.0824e-07
3610.0 6.629e-07
3630.0 6.8462e-07
3650.0 6.5757e-07
3670.0 6.0395e-07
3690.0 5.7279e-07
3710.0 5.8003e-07
3730.0 5.9912e-07
3750.0 6.0937e-07
3770.0 6.299e-07
3790.0 6.5282e-07
3810.0 6.4357e-07
3830.0 5.9978e-07
3850.0 5.606e-07
3870.0 5.42e-07
3890.0 5.358e-07
3910.0 5.2378e-07
3930.0 5.1773e-07
3950.0 5.3232e-07
3970.0 5.4939e-07
3990.0 5.5436e-07
4010.0 5.3399e-07
4030.0 5.0493e-07
4050.0 4.8626e-07
4070.0 4.7045e-07
4090.0 4.5765e-07
4110.0 4.4093e-07
4130.0 4.1456e-07
4150.0 3.8804e-07
4170.0 3.7231e-07
4190.0 3.4717e-07
4210.0 3.1429e-07
4230.0 2.81e-07
4250.0 2.4941e-07
4270.0 2.2582e-07
4290.0 2.0837e-07
4310.0 1.9914e-07
4330.0 1.9881e-07
4350.0 1.9978e-07
4370.0 2.0169e-07
4390.0 2.0914e-07
4410.0 2.1429e-07
4430.0 2.0686e-07
4450.0 1.8782e-07
4470.0 1.7118e-07
4490.0 1.6214e-07
4510.0 1.5632e-07
4530.0 1.5342e-07
4550.0 1.5093e-07
4570.0 1.5029e-07
4590.0 1.5235e-07
4610.0 1.5703e-07
4630.0 1.5983e-07
4650.0 1.6121e-07
4670.0 1.5729e-07
4690.0 1.4793e-07
4710.0 1.3861e-07
4730.0 1.3257e-07
4750.0 1.2886e-07
4770.0 1.2933e-07
4790.0 1.2882e-07
4810.0 1.2606e-07
4830.0 1.2631e-07
4850.0 1.3025e-07
4870.0 1.3155e-07
4890.0 1.2918e-07
4910.0 1.2618e-07
4930.0 1.19e-07
4950.0 1.0863e-07
4970.0 1.0153e-07
4990.0 9.571e-08
5010.0 9.4462e-08
5030.0 9.7644e-08
5050.0 1.0015e-07
5070.0 1.0389e-07
5090.0 1.1017e-07
5110.0 1.1185e-07
5130.0 1.1282e-07
5150.0 1.1491e-07
5170.0 1.1587e-07
5190.0 1.1891e-07
5210.0 1.1953e-07
5230.0 1.183e-07
5250.0 1.1925e-07
5270.0 1.2091e-07
5290.0 1.2124e-07
5310.0 1.2034e-07
5330.0 1.1805e-07
5350.0 1.1644e-07
5370.0 1.152e-07
5390.0 1.1368e-07
5410.0 1.1241e-07
5430.0 1.1238e-07
5450.0 1.1402e-07
5470.0 1.1614e-07
5490.0 1.1943e-07
5510.0 1.2305e-07
5530.0 1.2457e-07
5550.0 1.2642e-07
5570.0 1.2669e-07
5590.0 1.2407e-07
5610.0 1.2317e-07
5630.0 1.241e-07
5650.0 1.2259e-07
5670.0 1.1988e-07
5690.0 1.1629e-07
5710.0 1.1598e-07
5730.0 1.1721e-07
5750.0 1.1221e-07
5770.0 1.0646e-07
5790.0 9.7866e-08
5810.0 8.5606e-08
5830.0 9.2283e-08
5850.0 1.0217e-07
5870.0 1.0438e-07
5890.0 1.0494e-07
5910.0 1.058e-07
5930.0 1.0557e-07
5950.0 1.0383e-07
5970.0 1.0259e-07
5990.0 1.0111e-07
6010.0 9.8028e-08
6030.0 9.4669e-08
6050.0 9.319e-08
6070.0 9.2771e-08
6090.0 9.1362e-08
6110.0 8.8317e-08
6130.0 8.5312e-08
6150.0 8.1889e-08
6170.0 7.8465e-08
6190.0 7.4951e-08
6210.0 7.2304e-08
6230.0 7.1255e-08
6250.0 6.9745e-08
6270.0 6.8287e-08
6290.0 6.7756e-08
6310.0 6.7316e-08
6330.0 6.5836e-08
6350.0 6.3696e-08
6370.0 6.2478e-08
6390.0 6.1248e-08
6410.0 5.954e-08
6430.0 5.7926e-08
6450.0 5.6651e-08
6470.0 5.5438e-08
6490.0 5.4594e-08
6510.0 5.3651e-08
6530.0 5.2287e-08
6550.0 5.113e-08
6570.0 5.0341e-08
6590.0 5.0258e-08
6610.0 4.9942e-08
6630.0 4.8272e-08
6650.0 4.6908e-08
6670.0 4.6421e-08
6690.0 4.5691e-08
6710.0 4.4594e-08
6730.0 4.42e-08
6750.0 4.4544e-08
6770.0 4.7192e-08
6790.0 5.2745e-08
6810.0 5.0086e-08
6830.0 4.3992e-08
6850.0 4.2255e-08
6870.0 4.1608e-08
6890.0 4.1613e-08
6910.0 4.1702e-08
6930.0 4.1797e-08
6950.0 4.1668e-08
6970.0 4.061e-08
6990.0 4.0244e-08
7010.0 4.0843e-08
7030.0 4.1034e-08
7050.0 4.0439e-08
7070.0 4.0031e-08
7090.0 4.0292e-08
7110.0 4.123e-08
7130.0 4.1365e-08
7150.0 4.1517e-08
7170.0 4.1739e-08
7190.0 4.2317e-08
7210.0 4.2774e-08
7230.0 4.3234e-08
7250.0 4.381e-08
7270.0 4.4221e-08
7290.0 4.4918e-08
7310.0 4.5746e-08
7330.0 4.5393e-08
7350.0 4.444e-08
7370.0 4.3835e-08
7390.0 4.3728e-08
7410.0 4.391e-08
7430.0 4.4457e-08
7450.0 4.4733e-08
7470.0 4.5366e-08
7490.0 4.5106e-08
7510.0 4.4616e-08
7530.0 4.5139e-08
7550.0 4.6541e-08
7570.0 4.6423e-08
7590.0 4.4026e-08
7610.0 4.3658e-08
7630.0 4.6133e-08
7650.0 4.7057e-08
7670.0 4.7375e-08
7690.0 4.9483e-08
7710.0 5.1084e-08
7730.0 5.1574e-08
7750.0 5.4264e-08
7770.0 5.2874e-08
7790.0 5.1618e-08
7810.0 5.4687e-08
7830.0 5.6782e-08
7850.0 5.8206e-08
7870.0 5.935e-08
7890.0 5.9808e-08
7910.0 5.9368e-08
7930.0 5.9778e-08
7950.0 6.2475e-08
7970.0 6.2461e-08
7990.0 5.8179e-08
8010.0 5.5833e-08
8030.0 5.6949e-08
8050.0 5.8168e-08
8070.0 5.2622e-08
8090.0 3.4431e-08
8110.0 3.5952e-08
8130.0 5.1335e-08
8150.0 5.5286e-08
8170.0 5.7482e-08
8190.0 5.8731e-08
8210.0 5.799e-08
8230.0 6.2867e-08
8250.0 6.4239e-08
8270.0 6.0749e-08
8290.0 5.835e-08
8310.0 5.7498e-08
8330.0 6.0635e-08
8350.0 6.3503e-08
8370.0 6.2306e-08
8390.0 5.9416e-08
8410.0 5.9359e-08
8430.0 5.5616e-08
8450.0 5.6835e-08
8470.0 6.2106e-08
8490.0 6.2295e-08
8510.0 5.7764e-08
8530.0 5.4138e-08
8550.0 5.1895e-08
8570.0 4.8909e-08
8590.0 5.0306e-08
8610.0 5.338e-08
8630.0 5.4811e-08
8650.0 5.5759e-08
8670.0 5.4229e-08
8690.0 5.2966e-08
8710.0 4.9263e-08
8730.0 4.7495e-08
8750.0 4.9434e-08
8770.0 5.0208e-08
8790.0 5.0053e-08
8810.0 4.9813e-08
8830.0 5.0875e-08
8850.0 5.3421e-08
8870.0 4.9884e-08
8890.0 4.705e-08
8910.0 4.6356e-08
8930.0 4.3574e-08
8950.0 4.1978e-08
8970.0 4.196e-08
8990.0 4.0166e-08
9010.0 3.7707e-08
9030.0 3.6851e-08
9050.0 3.6544e-08
9070.0 3.6271e-08
9090.0 3.5995e-08
9110.0 3.5719e-08
9130.0 3.544e-08
9150.0 3.5161e-08
9170.0 3.4881e-08
9190.0 3.46e-08
9210.0 3.4318e-08
9230.0 3.4037e-08
9250.0 3.3756e-08
9270.0 3.3475e-08
9290.0 3.3194e-08
9310.0 3.2914e-08
9330.0 3.2635e-08
9350.0 3.2357e-08
9370.0 3.2079e-08
9390.0 3.1804e-08
9410.0 3.1529e-08
9430.0 3.1257e-08
9450.0 3.0985e-08
9470.0 3.0716e-08
9490.0 3.0448e-08
9510.0 3.0183e-08
9530.0 2.992e-08
9550.0 2.9658e-08
9570.0 2.9399e-08
9590.0 2.9142e-08
9610.0 2.8888e-08
9630.0 2.8636e-08
9650.0 2.8386e-08
9670.0 2.814e-08
9690.0 2.7895e-08
9710.0 2.7653e-08
9730.0 2.7414e-08
9750.0 2.7177e-08
9770.0 2.6943e-08
9790.0 2.6712e-08
9810.0 2.6483e-08
9830.0 2.6257e-08
9850.0 2.6033e-08
9870.0 2.5812e-08
9890.0 2.5594e-08
9910.0 2.5379e-08
9930.0 2.5166e-08
9950.0 2.4956e-08
9970.0 2.4749e-08
9990.0 2.4544e-08
10010.0 2.4342e-08
10030.0 2.4142e-08
10050.0 2.3945e-08
10070.0 2.375e-08
10090.0 2.3559e-08
10110.0 2.3369e-08
10130.0 2.3182e-08
10150.0 2.2997e-08
10170.0 2.2815e-08
10190.0 2.2635e-08
10210.0 2.2458e-08
10230.0 2.2283e-08
10250.0 2.211e-08
10270.0 2.1939e-08
10290.0 2.1771e-08
10310.0 2.1604e-08
10330.0 2.144e-08
10350.0 2.1278e-08
10370.0 2.1118e-08
10390.0 2.0958e-08
10410.0 2.077e-08
10430.0 2.0573e-08
10450.0 2.0457e-08
10470.0 2.0323e-08
10490.0 2.0187e-08
10510.0 2.0049e-08
10530.0 1.9905e-08
10550.0 1.9763e-08
10570.0 1.9625e-08
10590.0 1.9486e-08
10610.0 1.9347e-08
10630.0 1.9213e-08
10650.0 1.908e-08
10670.0 1.8945e-08
10690.0 1.8813e-08
10710.0 1.8685e-08
10730.0 1.8556e-08
10750.0 1.8426e-08
10770.0 1.8302e-08
10790.0 1.8179e-08
10810.0 1.8055e-08
10830.0 1.7933e-08
10850.0 1.7815e-08
10870.0 1.7694e-08
10890.0 1.7574e-08
10910.0 1.7458e-08
10930.0 1.7341e-08
10950.0 1.7221e-08
10970.0 1.7103e-08
10990.0 1.6987e-08
11010.0 1.6853e-08
11030.0 1.6729e-08
11050.0 1.6608e-08
11070.0 1.6484e-08
11090.0 1.6353e-08
11110.0 1.6225e-08
11130.0 1.6098e-08
11150.0 1.5966e-08
11170.0 1.5832e-08
11190.0 1.5703e-08
11210.0 1.557e-08
11230.0 1.5434e-08
11250.0 1.5303e-08
11270.0 1.5175e-08
11290.0 1.5046e-08
11310.0 1.4919e-08
11330.0 1.4803e-08
11350.0 1.4689e-08
11370.0 1.4578e-08
11390.0 1.4476e-08
11410.0 1.4379e-08
11430.0 1.4283e-08
11450.0 1.4193e-08
11470.0 1.4108e-08
11490.0 1.4024e-08
11510.0 1.394e-08
11530.0 1.386e-08
11550.0 1.3781e-08
11570.0 1.3698e-08
11590.0 1.3615e-08
11610.0 1.3534e-08
11630.0 1.3448e-08
11650.0 1.3358e-08
11670.0 1.327e-08
11690.0 1.318e-08
11710.0 1.3086e-08
11730.0 1.2991e-08
11750.0 1.2899e-08
11770.0 1.2803e-08
11790.0 1.2706e-08
11810.0 1.2611e-08
11830.0 1.2518e-08
11850.0 1.2421e-08
11870.0 1.2329e-08
11890.0 1.2242e-08
11910.0 1.2155e-08
11930.0 1.207e-08
11950.0 1.1992e-08
11970.0 1.1917e-08
11990.0 1.1844e-08
12010.0 1.1777e-08
12030.0 1.1715e-08
12050.0 1.1657e-08
12070.0 1.1601e-08
12090.0 1.1554e-08
12110.0 1.1509e-08
12130.0 1.1467e-08
12150.0 1.1429e-08
12170.0 1.1395e-08
12190.0 1.1361e-08
12210.0 1.1329e-08
12230.0 1.1299e-08
12250.0 1.1267e-08
12270.0 1.1234e-08
12290.0 1.1199e-08
12310.0 1.1163e-08
12330.0 1.1121e-08
12350.0 1.1075e-08
12370.0 1.1026e-08
12390.0 1.0972e-08
12410.0 1.0909e-08
12430.0 1.0844e-08
12450.0 1.0774e-08
12470.0 1.0698e-08
12490.0 1.0617e-08
12510.0 1.0536e-08
12530.0 1.0448e-08
12550.0 1.0356e-08
12570.0 1.0264e-08
12590.0 1.0171e-08
12610.0 1.0073e-08
12630.0 9.974e-09
12650.0 9.8802e-09
12670.0 9.7843e-09
12690.0 9.6875e-09
12710.0 9.5955e-09
12730.0 9.5066e-09
12750.0 9.4155e-09
12770.0 9.3297e-09
12790.0 9.2499e-09
12810.0 9.172e-09
12830.0 9.0965e-09
12850.0 9.0288e-09
12870.0 8.9658e-09
12890.0 8.9053e-09
12910.0 8.8508e-09
12930.0 8.8029e-09
12950.0 8.7585e-09
12970.0 8.7189e-09
12990.0 8.6866e-09
13010.0 8.6595e-09
13030.0 8.6369e-09
13050.0 8.6198e-09
13070.0 8.6076e-09
13090.0 8.5987e-09
13110.0 8.5931e-09
13130.0 8.5899e-09
13150.0 8.5879e-09
13170.0 8.586e-09
13190.0 8.5832e-09
13210.0 8.5785e-09
13230.0 8.5708e-09
13250.0 8.5591e-09
13270.0 8.5437e-09
13290.0 8.5234e-09
13310.0 8.4969e-09
13330.0 8.4658e-09
13350.0 8.4302e-09
13370.0 8.3883e-09
13390.0 8.3403e-09
13410.0 8.2906e-09
13430.0 8.2357e-09
13450.0 8.1751e-09
13470.0 8.1121e-09
13490.0 8.0476e-09
13510.0 7.9759e-09
13530.0 7.9021e-09
13550.0 7.8288e-09
13570.0 7.7524e-09
13590.0 7.672e-09
13610.0 7.5926e-09
13630.0 7.5143e-09
13650.0 7.4316e-09
13670.0 7.3488e-09
13690.0 7.2686e-09
13710.0 7.1872e-09
13730.0 7.102e-09
13750.0 7.0224e-09
13770.0 6.9444e-09
13790.0 6.8651e-09
13810.0 6.7878e-09
13830.0 6.7156e-09
13850.0 6.643e-09
13870.0 6.5712e-09
13890.0 6.5042e-09
13910.0 6.4401e-09
13930.0 6.3758e-09
13950.0 6.3144e-09
13970.0 6.2584e-09
13990.0 6.2029e-09
14010.0 6.1488e-09
14030.0 6.0987e-09
14050.0 6.0512e-09
14070.0 6.0032e-09
14090.0 5.9588e-09
14110.0 5.9178e-09
14130.0 5.8777e-09
14150.0 5.8388e-09
14170.0 5.8036e-09
14190.0 5.77e-09
14210.0 5.7368e-09
14230.0 5.7055e-09
14250.0 5.6763e-09
14270.0 5.6469e-09
14290.0 5.618e-09
14310.0 5.5911e-09
14330.0 5.5648e-09
14350.0 5.5381e-09
14370.0 5.5125e-09
14390.0 5.4881e-09
14410.0 5.4631e-09
14430.0 5.4383e-09
14450.0 5.4147e-09
14470.0 5.3913e-09
14490.0 5.3669e-09
14510.0 5.3436e-09
14530.0 5.3211e-09
14550.0 5.2978e-09
14570.0 5.2743e-09
14590.0 5.2516e-09
14610.0 5.2284e-09
14630.0 5.204e-09
14650.0 5.1802e-09
14670.0 5.1566e-09
14690.0 5.1319e-09
14710.0 5.1065e-09
14730.0 5.0822e-09
14750.0 5.0571e-09
14770.0 5.0309e-09
14790.0 5.0049e-09
14810.0 4.9791e-09
14830.0 4.9511e-09
14850.0 4.923e-09
14870.0 4.8957e-09
14890.0 4.8676e-09
14910.0 4.8389e-09
14930.0 4.8116e-09
14950.0 4.7859e-09
14970.0 4.7605e-09
14990.0 4.7375e-09
15010.0 4.7173e-09
15030.0 4.699e-09
15050.0 4.6821e-09
15070.0 4.6679e-09
15090.0 4.655e-09
15110.0 4.6425e-09
15130.0 4.6306e-09
15150.0 4.6195e-09
15170.0 4.6081e-09
15190.0 4.5965e-09
15210.0 4.5854e-09
15230.0 4.5743e-09
15250.0 4.5628e-09
15270.0 4.5514e-09
15290.0 4.5405e-09
15310.0 4.5292e-09
15330.0 4.5178e-09
15350.0 4.5068e-09
15370.0 4.4958e-09
15390.0 4.4841e-09
15410.0 4.4728e-09
15430.0 4.4618e-09
15450.0 4.4505e-09
15470.0 4.439e-09
15490.0 4.428e-09
15510.0 4.417e-09
15530.0 4.4055e-09
15550.0 4.3943e-09
15570.0 4.3834e-09
15590.0 4.372e-09
15610.0 4.3604e-09
15630.0 4.3494e-09
15650.0 4.3383e-09
15670.0 4.3268e-09
15690.0 4.3156e-09
15710.0 4.3047e-09
15730.0 4.2933e-09
15750.0 4.2819e-09
15770.0 4.2709e-09
15790.0 4.2598e-09
15810.0 4.2481e-09
15830.0 4.2369e-09
15850.0 4.226e-09
15870.0 4.2146e-09
15890.0 4.2033e-09
15910.0 4.1924e-09
15930.0 4.1812e-09
15950.0 4.1696e-09
15970.0 4.1584e-09
15990.0 4.1474e-09
16010.0 4.136e-09
16030.0 4.1245e-09
16050.0 4.1136e-09
16070.0 4.1025e-09
16090.0 4.0911e-09
16110.0 4.0799e-09
16130.0 4.069e-09
16150.0 4.0574e-09
16170.0 4.046e-09
16190.0 4.0351e-09
16210.0 4.0239e-09
16230.0 4.0124e-09
16250.0 4.0013e-09
16270.0 3.9903e-09
16290.0 3.9789e-09
16310.0 3.9676e-09
16330.0 3.9566e-09
16350.0 3.9454e-09
16370.0 3.9337e-09
16390.0 3.9227e-09
16410.0 3.9116e-09
16430.0 3.9002e-09
16450.0 3.8889e-09
16470.0 3.8781e-09
16490.0 3.8668e-09
16510.0 3.8553e-09
16530.0 3.8442e-09
16550.0 3.8332e-09
16570.0 3.8216e-09
16590.0 3.8103e-09
16610.0 3.7994e-09
16630.0 3.7881e-09
16650.0 3.7767e-09
16670.0 3.7657e-09
16690.0 3.7547e-09
16710.0 3.7431e-09
16730.0 3.7318e-09
16750.0 3.7208e-09
16770.0 3.7095e-09
16790.0 3.698e-09
16810.0 3.6871e-09
16830.0 3.676e-09
16850.0 3.6646e-09
16870.0 3.6534e-09
16890.0 3.6424e-09
16910.0 3.631e-09
16930.0 3.6195e-09
16950.0 3.6085e-09
16970.0 3.5974e-09
16990.0 3.5859e-09
17010.0 3.5747e-09
17030.0 3.5639e-09
17050.0 3.5525e-09
17070.0 3.5411e-09
17090.0 3.5301e-09
17110.0 3.5189e-09
17130.0 3.5073e-09
17150.0 3.4961e-09
17170.0 3.4852e-09
17190.0 3.4738e-09
17210.0 3.4625e-09
17230.0 3.4516e-09
17250.0 3.4404e-09
17270.0 3.4288e-09
17290.0 3.4177e-09
17310.0 3.4067e-09
17330.0 3.3953e-09
17350.0 3.3838e-09
17370.0 3.3729e-09
17390.0 3.3618e-09
17410.0 3.3503e-09
17430.0 3.3392e-09
17450.0 3.3283e-09
17470.0 3.3167e-09
17490.0 3.3053e-09
17510.0 3.2944e-09
17530.0 3.2831e-09
17550.0 3.2717e-09
17570.0 3.2606e-09
17590.0 3.2497e-09
17610.0 3.2382e-09
17630.0 3.2269e-09
17650.0 3.216e-09
17670.0 3.2047e-09
17690.0 3.193e-09
17710.0 3.182e-09
17730.0 3.171e-09
17750.0 3.1596e-09
17770.0 3.1483e-09
17790.0 3.1375e-09
17810.0 3.1261e-09
17830.0 3.1146e-09
17850.0 3.1036e-09
17870.0 3.0925e-09
17890.0 3.081e-09
17910.0 3.0696e-09
17930.0 3.0588e-09
17950.0 3.0475e-09
17970.0 3.0361e-09
17990.0 3.0251e-09
18010.0 3.0141e-09
18030.0 3.0024e-09
18050.0 2.9912e-09
18070.0 2.9802e-09
18090.0 2.9689e-09
18110.0 2.9574e-09
18130.0 2.9465e-09
18150.0 2.9354e-09
18170.0 2.9239e-09
18190.0 2.9128e-09
18210.0 2.9018e-09
18230.0 2.8904e-09
18250.0 2.8788e-09
18270.0 2.8679e-09
18290.0 2.8568e-09
18310.0 2.8453e-09
18330.0 2.8342e-09
18350.0 2.8233e-09
18370.0 2.8118e-09
18390.0 2.8005e-09
18410.0 2.7895e-09
18430.0 2.7783e-09
18450.0 2.7667e-09
18470.0 2.7555e-09
18490.0 2.7446e-09
18510.0 2.7332e-09
18530.0 2.7219e-09
18550.0 2.711e-09
18570.0 2.6998e-09
18590.0 2.6882e-09
18610.0 2.6771e-09
18630.0 2.666e-09
18650.0 2.6546e-09
18670.0 2.6432e-09
18690.0 2.6323e-09
18710.0 2.6211e-09
18730.0 2.6097e-09
18750.0 2.5986e-09
18770.0 2.5877e-09
18790.0 2.576e-09
18810.0 2.5647e-09
18830.0 2.5537e-09
18850.0 2.5425e-09
18870.0 2.531e-09
18890.0 2.52e-09
18910.0 2.509e-09
18930.0 2.4975e-09
18950.0 2.4863e-09
18970.0 2.4753e-09
18990.0 2.464e-09
19010.0 2.4523e-09
19030.0 2.4414e-09
19050.0 2.4303e-09
19070.0 2.4189e-09
19090.0 2.4077e-09
19110.0 2.3968e-09
19130.0 2.3854e-09
19150.0 2.374e-09
19170.0 2.3629e-09
19190.0 2.3518e-09
19210.0 2.3403e-09
19230.0 2.329e-09
19250.0 2.3181e-09
19270.0 2.3068e-09
19290.0 2.2954e-09
19310.0 2.2845e-09
19330.0 2.2734e-09
19350.0 2.2617e-09
19370.0 2.2505e-09
19390.0 2.2395e-09
19410.0 2.2282e-09
19430.0 2.2168e-09
19450.0 2.2058e-09
19470.0 2.1947e-09
19490.0 2.1833e-09
19510.0 2.1721e-09
19530.0 2.1611e-09
19550.0 2.1497e-09
19570.0 2.1382e-09
19590.0 2.1272e-09
19610.0 2.1161e-09
19630.0 2.1046e-09
19650.0 2.0935e-09
19670.0 2.0826e-09
19690.0 2.0711e-09
19710.0 2.0598e-09
19730.0 2.0488e-09
19750.0 2.0376e-09
19770.0 2.0259e-09
19790.0 2.0148e-09
19810.0 2.0039e-09
19830.0 1.9925e-09
19850.0 1.9813e-09
19870.0 1.9705e-09
19890.0 1.9594e-09
19910.0 1.9483e-09
19930.0 1.938e-09
19950.0 1.9282e-09
19970.0 1.9189e-09
19990.0 1.9107e-09
20010.0 1.9038e-09
20030.0 1.8979e-09
20050.0 1.8929e-09
20070.0 1.889e-09
20090.0 1.8859e-09
20110.0 1.8831e-09
20130.0 1.8808e-09
20150.0 1.8787e-09
20170.0 1.8767e-09
20190.0 1.8745e-09
20210.0 1.8725e-09
20230.0 1.8703e-09
20250.0 1.8679e-09
20270.0 1.8655e-09
20290.0 1.8629e-09
20310.0 1.8602e-09
20330.0 1.8572e-09
20350.0 1.8543e-09
20370.0 1.8511e-09
20390.0 1.8478e-09
20410.0 1.8443e-09
20430.0 1.8409e-09
20450.0 1.8372e-09
20470.0 1.8334e-09
20490.0 1.8296e-09
20510.0 1.8259e-09
20530.0 1.822e-09
20550.0 1.8183e-09
20570.0 1.8148e-09
20590.0 1.8112e-09
20610.0 1.8076e-09
20630.0 1.8043e-09
20650.0 1.801e-09
20670.0 1.7976e-09
20690.0 1.7943e-09
20710.0 1.7911e-09
20730.0 1.7878e-09
20750.0 1.7843e-09
20770.0 1.7808e-09
20790.0 1.777e-09
20810.0 1.7729e-09
20830.0 1.7686e-09
20850.0 1.7641e-09
20870.0 1.7591e-09
20890.0 1.7537e-09
20910.0 1.7483e-09
20930.0 1.7424e-09
20950.0 1.7362e-09
20970.0 1.7299e-09
20990.0 1.7235e-09
21010.0 1.7167e-09
21030.0 1.7098e-09
21050.0 1.7031e-09
21070.0 1.6963e-09
21090.0 1.6892e-09
21110.0 1.6826e-09
21130.0 1.676e-09
21150.0 1.6693e-09
21170.0 1.6628e-09
21190.0 1.6565e-09
21210.0 1.65e-09
21230.0 1.6434e-09
21250.0 1.6371e-09
21270.0 1.6307e-09
21290.0 1.6241e-09
21310.0 1.6174e-09
21330.0 1.6109e-09
21350.0 1.604e-09
21370.0 1.5968e-09
21390.0 1.5897e-09
21410.0 1.5824e-09
21430.0 1.5745e-09
21450.0 1.5667e-09
21470.0 1.559e-09
21490.0 1.5508e-09
21510.0 1.5424e-09
21530.0 1.5342e-09
21550.0 1.5258e-09
21570.0 1.517e-09
21590.0 1.5083e-09
21610.0 1.4997e-09
21630.0 1.4909e-09
21650.0 1.4817e-09
21670.0 1.4732e-09
21690.0 1.4646e-09
21710.0 1.4557e-09
21730.0 1.447e-09
21750.0 1.4386e-09
21770.0 1.4297e-09
21790.0 1.4209e-09
21810.0 1.4125e-09
21830.0 1.4039e-09
21850.0 1.3951e-09
21870.0 1.3865e-09
21890.0 1.3782e-09
21910.0 1.3696e-09
21930.0 1.361e-09
21950.0 1.3528e-09
21970.0 1.3445e-09
21990.0 1.3359e-09
22010.0 1.3279e-09
22030.0 1.3201e-09
22050.0 1.3122e-09
22070.0 1.3046e-09
22090.0 1.2976e-09
22110.0 1.2907e-09
22130.0 1.2839e-09
22150.0 1.2776e-09
22170.0 1.2717e-09
22190.0 1.2658e-09
22210.0 1.2602e-09
22230.0 1.2552e-09
22250.0 1.2504e-09
22270.0 1.2456e-09
22290.0 1.2412e-09
22310.0 1.2371e-09
22330.0 1.2328e-09
22350.0 1.2287e-09
22370.0 1.2249e-09
22390.0 1.2209e-09
22410.0 1.2169e-09
22430.0 1.213e-09
22450.0 1.2092e-09
22470.0 1.2051e-09
22490.0 1.2011e-09
22510.0 1.1972e-09
22530.0 1.193e-09
22550.0 1.1888e-09
22570.0 1.1847e-09
22590.0 1.1806e-09
22610.0 1.1764e-09
