#lamb flux
1010.0 9.3509e-07
1030.0 1.0427e-06
1050.0 1.1664e-06
1070.0 1.3057e-06
1090.0 1.4639e-06
1110.0 1.6261e-06
1130.0 1.7894e-06
1150.0 1.9605e-06
1170.0 2.137e-06
1190.0 2.3043e-06
1210.0 2.4739e-06
1230.0 2.6491e-06
1250.0 2.8208e-06
1270.0 2.9875e-06
1290.0 3.1637e-06
1310.0 3.3397e-06
1330.0 3.5086e-06
1350.0 3.6793e-06
1370.0 3.8555e-06
1390.0 4.0274e-06
1410.0 4.1941e-06
1430.0 4.3683e-06
1450.0 4.5426e-06
1470.0 4.7109e-06
1490.0 4.881e-06
1510.0 5.0607e-06
1530.0 5.2309e-06
1550.0 5.3988e-06
1570.0 5.5724e-06
1590.0 5.746e-06
1610.0 5.9118e-06
1630.0 6.0827e-06
1650.0 6.2579e-06
1670.0 6.4271e-06
1690.0 6.594e-06
1710.0 6.7672e-06
1730.0 6.941e-06
1750.0 7.104e-06
1770.0 7.2715e-06
1790.0 7.4419e-06
1810.0 7.6063e-06
1830.0 7.7671e-06
1850.0 7.9373e-06
1870.0 8.1021e-06
1890.0 8.2602e-06
1910.0 8.4205e-06
1930.0 8.5837e-06
1950.0 8.7376e-06
1970.0 8.8879e-06
1990.0 9.0426e-06
2010.0 9.1925e-06
2030.0 9.3342e-06
2050.0 9.4784e-06
2070.0 9.624e-06
2090.0 9.7569e-06
2110.0 9.8861e-06
2130.0 1.0017e-05
2150.0 1.014e-05
2170.0 1.0252e-05
2190.0 1.0366e-05
2210.0 1.0476e-05
2230.0 1.0575e-05
2250.0 1.0667e-05
2270.0 1.0761e-05
2290.0 1.0844e-05
2310.0 1.0914e-05
2330.0 1.0984e-05
2350.0 1.1049e-05
2370.0 1.1104e-05
2390.0 1.116e-05
2410.0 1.1227e-05
2430.0 1.13e-05
2450.0 1.1387e-05
2470.0 1.1509e-05
2490.0 1.1672e-05
2510.0 1.1861e-05
2530.0 1.2113e-05
2550.0 1.2478e-05
2570.0 1.2995e-05
2590.0 1.3739e-05
2610.0 1.4938e-05
2630.0 1.6673e-05
2650.0 1.889e-05
2670.0 2.1655e-05
2690.0 2.4898e-05
2710.0 2.8148e-05
2730.0 3.114e-05
2750.0 3.3881e-05
2770.0 3.6029e-05
2790.0 3.75e-05
2810.0 3.8463e-05
2830.0 3.9029e-05
2850.0 3.9192e-05
2870.0 3.9136e-05
2890.0 3.8966e-05
2910.0 3.8713e-05
2930.0 3.8403e-05
2950.0 3.8093e-05
2970.0 3.7787e-05
2990.0 3.7475e-05
3010.0 0.001056
3030.0 0.0010479
3050.0 0.0010398
3070.0 0.0010312
3090.0 0.0010223
3110.0 0.0010119
3130.0 0.00099895
3150.0 0.00098263
3170.0 0.00096136
3190.0 0.0009356
3210.0 0.00090705
3230.0 0.00087707
3250.0 0.00084822
3270.0 0.00082705
3290.0 0.00081299
3310.0 0.00081137
3330.0 0.00081965
3350.0 0.00083682
3370.0 0.00086301
3390.0 0.00089711
3410.0 0.00093495
3430.0 0.00097813
3450.0 0.0010284
3470.0 0.0010837
3490.0 0.0011428
3510.0 0.00121
3530.0 0.0012829
3550.0 0.0013599
3570.0 0.0014439
3590.0 0.0015388
3610.0 0.0016431
3630.0 0.00175
3650.0 0.0018635
3670.0 0.0019679
3690.0 0.0020473
3710.0 0.0020902
3730.0 0.002076
3750.0 0.0020034
3770.0 0.0019655
3790.0 0.0018519
3810.0 0.0015046
3830.0 0.0013668
3850.0 0.0015923
3870.0 0.0013024
3890.0 0.0012355
3910.0 0.00164
3930.0 0.0021111
3950.0 0.0022832
3970.0 0.002598
3990.0 0.0023507
4010.0 0.0034186
4030.0 0.0031978
4050.0 0.0028907
4070.0 0.003085
4090.0 0.0029605
4110.0 0.0031632
4130.0 0.0037347
4150.0 0.0044509
4170.0 0.0038421
4190.0 0.0035565
4210.0 0.0038005
4230.0 0.0045898
4250.0 0.005245
4270.0 0.0055782
4290.0 0.0052599
4310.0 0.0050043
4330.0 0.0052064
4350.0 0.0064645
4370.0 0.0076493
4390.0 0.0064829
4410.0 0.0043282
4430.0 0.0033487
4450.0 0.0029654
4470.0 0.0024937
4490.0 0.0033337
4510.0 0.0051658
4530.0 0.0060762
4550.0 0.0063005
4570.0 0.0063709
4590.0 0.007255
4610.0 0.011863
4630.0 0.015756
4650.0 0.015217
4670.0 0.013793
4690.0 0.014606
4710.0 0.015494
4730.0 0.012662
4750.0 0.0083549
4770.0 0.0062844
4790.0 0.0066471
4810.0 0.006589
4830.0 0.0063933
4850.0 0.0071111
4870.0 0.009374
4890.0 0.010921
4910.0 0.0086725
4930.0 0.0080119
4950.0 0.0091104
4970.0 0.012309
4990.0 0.016429
5010.0 0.018385
5030.0 0.014737
5050.0 0.008975
5070.0 0.0063019
5090.0 0.0051866
5110.0 0.0051128
5130.0 0.0057949
5150.0 0.0057665
5170.0 0.0055807
5190.0 0.0052244
5210.0 0.0053641
5230.0 0.0061673
5250.0 0.0069625
5270.0 0.0070151
5290.0 0.0078575
5310.0 0.0097343
5330.0 0.010114
5350.0 0.010007
5370.0 0.011172
5390.0 0.013255
5410.0 0.011844
5430.0 0.0093599
5450.0 0.0090495
5470.0 0.010439
5490.0 0.013338
5510.0 0.016742
5530.0 0.019129
5550.0 0.017656
5570.0 0.015788
5590.0 0.013361
5610.0 0.013088
5630.0 0.013771
5650.0 0.013317
5670.0 0.012569
5690.0 0.0107
5710.0 0.010638
5730.0 0.01015
5750.0 0.0059809
5770.0 0.0047362
5790.0 0.0056456
5810.0 0.0064728
5830.0 0.0087255
5850.0 0.010615
5870.0 0.011121
5890.0 0.010579
5910.0 0.01017
5930.0 0.01001
5950.0 0.010421
5970.0 0.012256
5990.0 0.010623
6010.0 0.0084265
6030.0 0.0068934
6050.0 0.0060497
6070.0 0.0067401
6090.0 0.0076837
6110.0 0.0080916
6130.0 0.0075067
6150.0 0.0062878
6170.0 0.0058899
6190.0 0.0072676
6210.0 0.010151
6230.0 0.013422
6250.0 0.013923
6270.0 0.011322
6290.0 0.0095311
6310.0 0.0073923
6330.0 0.0055874
6350.0 0.0052546
6370.0 0.0055664
6390.0 0.0067095
6410.0 0.0082525
6430.0 0.0098056
6450.0 0.01185
6470.0 0.013285
6490.0 0.016226
6510.0 0.018188
6530.0 0.017679
6550.0 0.016229
6570.0 0.014293
6590.0 0.013838
6610.0 0.011777
6630.0 0.011507
6650.0 0.010823
6670.0 0.010276
6690.0 0.0090357
6710.0 0.0084075
6730.0 0.0057115
6750.0 0.0059156
6770.0 0.0072064
6790.0 0.0089628
6810.0 0.0075069
6830.0 0.007704
6850.0 0.0070033
6870.0 0.0066722
6890.0 0.0061076
6910.0 0.0065146
6930.0 0.0060852
6950.0 0.0067885
6970.0 0.0068724
6990.0 0.0076501
7010.0 0.0078569
7030.0 0.0080099
7050.0 0.0071846
7070.0 0.0065387
7090.0 0.0064917
7110.0 0.0064199
7130.0 0.0069819
7150.0 0.0077484
7170.0 0.0084888
7190.0 0.0087496
7210.0 0.0080211
7230.0 0.0081546
7250.0 0.0090554
7270.0 0.010231
7290.0 0.011864
7310.0 0.011973
7330.0 0.010793
7350.0 0.0096187
7370.0 0.0079047
7390.0 0.0081621
7410.0 0.0094587
7430.0 0.010556
7450.0 0.011379
7470.0 0.011343
7490.0 0.011057
7510.0 0.014559
7530.0 0.013205
7550.0 0.01165
7570.0 0.0083463
7590.0 0.0047838
7610.0 0.0038863
7630.0 0.0047897
7650.0 0.0059118
7670.0 0.0080666
7690.0 0.0091311
7710.0 0.0088913
7730.0 0.0088939
7750.0 0.010425
7770.0 0.01052
7790.0 0.0098667
7810.0 0.0088819
7830.0 0.0091069
7850.0 0.0091204
7870.0 0.008639
7890.0 0.007191
7910.0 0.0053815
7930.0 0.0050702
7950.0 0.004561
7970.0 0.0041326
7990.0 0.0039891
8010.0 0.0039833
8030.0 0.0038842
8050.0 0.004014
8070.0 0.0041093
8090.0 0.0044703
8110.0 0.004194
8130.0 0.0032254
8150.0 0.0030889
8170.0 0.0024929
8190.0 0.002246
8210.0 0.0029145
8230.0 0.003243
8250.0 0.0024484
8270.0 0.002138
8290.0 0.0021243
8310.0 0.001568
8330.0 0.00099332
8350.0 0.00075652
8370.0 0.0005628
8390.0 0.00088219
8410.0 0.0010921
8430.0 0.001351
8450.0 0.0015057
8470.0 0.0019347
8490.0 0.0017603
8510.0 0.0016186
8530.0 0.0014041
8550.0 0.0022643
8570.0 0.0030825
8590.0 0.0029229
8610.0 0.0038049
8630.0 0.0043034
8650.0 0.0037191
8670.0 0.0041621
8690.0 0.0048373
8710.0 0.004397
8730.0 0.0044143
8750.0 0.0038331
8770.0 0.0035873
8790.0 0.0037213
8810.0 0.0037269
8830.0 0.0027006
8850.0 0.0019137
8870.0 0.0015396
8890.0 0.0019075
8910.0 0.0023937
8930.0 0.0028055
8950.0 0.0031875
8970.0 0.0031685
8990.0 0.0027943
9010.0 0.0022857
9030.0 0.002105
9050.0 0.0021502
9070.0 0.0021904
9090.0 0.0022215
9110.0 0.0022554
9130.0 0.0022811
9150.0 0.0023013
9170.0 0.0023227
9190.0 0.0023456
9210.0 0.0023695
9230.0 0.002395
9250.0 0.0024211
9270.0 0.0024483
9290.0 0.0024763
9310.0 0.0025048
9330.0 0.0025341
9350.0 0.0025642
9370.0 0.002595
9390.0 0.0026264
9410.0 0.0026586
9430.0 0.0026916
9450.0 0.0027251
9470.0 0.0027593
9490.0 0.0027943
9510.0 0.0028299
9530.0 0.0028661
9550.0 0.0029032
9570.0 0.0029409
9590.0 0.0029792
9610.0 0.0030181
9630.0 0.0030578
9650.0 0.0030981
9670.0 0.0031388
9690.0 0.0031803
9710.0 0.0032224
9730.0 0.003265
9750.0 0.0033082
9770.0 0.0033521
9790.0 0.0033964
9810.0 0.0034412
9830.0 0.0034865
9850.0 0.0035324
9870.0 0.0035785
9890.0 0.0036252
9910.0 0.0036724
9930.0 0.0037199
9950.0 0.0037677
9970.0 0.003816
9990.0 0.0038647
10010.0 0.003624
10030.0 0.0036684
10050.0 0.003713
10070.0 0.0037574
10090.0 0.0038024
10110.0 0.0038477
10130.0 0.003893
10150.0 0.0039383
10170.0 0.0039836
10190.0 0.0040289
10210.0 0.0040742
10230.0 0.0041193
10250.0 0.0041644
10270.0 0.0042093
10290.0 0.0042541
10310.0 0.0042986
10330.0 0.004343
10350.0 0.0043871
10370.0 0.0044308
10390.0 0.0044743
10410.0 0.0045174
10430.0 0.00456
10450.0 0.0046022
10470.0 0.0046439
10490.0 0.0046851
10510.0 0.0047258
10530.0 0.0047659
10550.0 0.0048055
10570.0 0.0048443
10590.0 0.0048825
10610.0 0.00492
10630.0 0.0049567
10650.0 0.0049926
10670.0 0.0050278
10690.0 0.0050622
10710.0 0.0050957
10730.0 0.0051283
10750.0 0.0051601
10770.0 0.0051909
10790.0 0.0052207
10810.0 0.0052495
10830.0 0.0052771
10850.0 0.0053032
10870.0 0.0053272
10890.0 0.0053478
10910.0 0.0053635
10930.0 0.0053715
10950.0 0.0053675
10970.0 0.0053484
10990.0 0.005313
11010.0 0.0053164
11030.0 0.0052354
11050.0 0.0051366
11070.0 0.0050176
11090.0 0.0048736
11110.0 0.0047242
11130.0 0.004568
11150.0 0.0043995
11170.0 0.0042261
11190.0 0.0040587
11210.0 0.003887
11230.0 0.0037125
11250.0 0.0035476
11270.0 0.0033912
11290.0 0.0032363
11310.0 0.0030914
11330.0 0.0029651
11350.0 0.0028467
11370.0 0.0027379
11390.0 0.0026436
11410.0 0.0025607
11430.0 0.0024825
11450.0 0.0024135
11470.0 0.0023517
11490.0 0.0022921
11510.0 0.0022323
11530.0 0.0021748
11550.0 0.0021162
11570.0 0.0020528
11590.0 0.0019869
11610.0 0.0019198
11630.0 0.0018476
11650.0 0.0017711
11670.0 0.0016966
11690.0 0.0016218
11710.0 0.0015457
11730.0 0.0014727
11750.0 0.0014055
11770.0 0.0013401
11790.0 0.0012791
11810.0 0.0012253
11830.0 0.001177
11850.0 0.0011322
11870.0 0.0010941
11890.0 0.0010615
11910.0 0.001032
11930.0 0.0010055
11950.0 0.00098215
11970.0 0.00096018
11990.0 0.00093836
12010.0 0.00091721
12030.0 0.00089618
12050.0 0.00087411
12070.0 0.00085097
12090.0 0.00082842
12110.0 0.00080537
12130.0 0.00078197
12150.0 0.00075971
12170.0 0.00073924
12190.0 0.00071982
12210.0 0.00070333
12230.0 0.00069049
12250.0 0.00068122
12270.0 0.00067612
12290.0 0.00067553
12310.0 0.00067907
12330.0 0.0006874
12350.0 0.00070007
12370.0 0.00071589
12390.0 0.00073527
12410.0 0.00075898
12430.0 0.00078333
12450.0 0.00080867
12470.0 0.00083571
12490.0 0.00086264
12510.0 0.00088736
12530.0 0.00091158
12550.0 0.00093439
12570.0 0.00095365
12590.0 0.00096968
12610.0 0.00098316
12630.0 0.00099273
12650.0 0.00099776
12670.0 0.00099939
12690.0 0.00099728
12710.0 0.00099139
12730.0 0.00098226
12750.0 0.00096966
12770.0 0.00095422
12790.0 0.00093661
12810.0 0.00091663
12830.0 0.00089434
12850.0 0.00087137
12870.0 0.00084741
12890.0 0.00082184
12910.0 0.0007959
12930.0 0.00077022
12950.0 0.00074343
12970.0 0.00071602
12990.0 0.00068968
13010.0 0.00066338
13030.0 0.00063652
13050.0 0.00061032
13070.0 0.00058536
13090.0 0.00056006
13110.0 0.00053529
13130.0 0.00051212
13150.0 0.00048995
13170.0 0.00046813
13190.0 0.00044849
13210.0 0.00043101
13230.0 0.00041493
13250.0 0.00040091
13270.0 0.00038957
13290.0 0.00038044
13310.0 0.00037364
13330.0 0.00036961
13350.0 0.00036811
13370.0 0.00036915
13390.0 0.00037282
13410.0 0.00037835
13430.0 0.00038593
13450.0 0.00039555
13470.0 0.00040632
13490.0 0.00041773
13510.0 0.00043072
13530.0 0.00044386
13550.0 0.00045638
13570.0 0.00046873
13590.0 0.00048077
13610.0 0.0004914
13630.0 0.0005006
13650.0 0.00050896
13670.0 0.00051576
13690.0 0.00052082
13710.0 0.00052453
13730.0 0.00052689
13750.0 0.00052756
13770.0 0.00052693
13790.0 0.00052506
13810.0 0.000522
13830.0 0.000518
13850.0 0.00051299
13870.0 0.000507
13890.0 0.00050039
13910.0 0.00049317
13930.0 0.00048509
13950.0 0.0004765
13970.0 0.0004679
13990.0 0.00045876
14010.0 0.00044924
14030.0 0.00043992
14050.0 0.00043068
14070.0 0.00042111
14090.0 0.00041207
14110.0 0.00040369
14130.0 0.00039567
14150.0 0.00038822
14170.0 0.00038192
14190.0 0.00037653
14210.0 0.00037202
14230.0 0.00036872
14250.0 0.00036663
14270.0 0.00036569
14290.0 0.00036605
14310.0 0.00036756
14330.0 0.0003702
14350.0 0.00037404
14370.0 0.00037881
14390.0 0.00038425
14410.0 0.0003907
14430.0 0.00039787
14450.0 0.0004053
14470.0 0.00041318
14490.0 0.00042178
14510.0 0.00043031
14530.0 0.00043877
14550.0 0.00044765
14570.0 0.00045673
14590.0 0.00046558
14610.0 0.0004748
14630.0 0.00048467
14650.0 0.00049463
14670.0 0.00050488
14690.0 0.00051611
14710.0 0.00052826
14730.0 0.00054052
14750.0 0.00055391
14770.0 0.00056863
14790.0 0.00058394
14810.0 0.00059976
14830.0 0.00061746
14850.0 0.00063564
14870.0 0.00065363
14890.0 0.0006721
14910.0 0.00069079
14930.0 0.00070807
14950.0 0.0007237
14970.0 0.00073807
14990.0 0.00074987
15010.0 0.00075879
15030.0 0.00076536
15050.0 0.00076971
15070.0 0.00077198
15090.0 0.00077296
15110.0 0.00077304
15130.0 0.00077256
15150.0 0.00077187
15170.0 0.00077098
15190.0 0.00077
15210.0 0.00076908
15230.0 0.00076816
15250.0 0.00076719
15270.0 0.00076624
15290.0 0.0007654
15310.0 0.00076451
15330.0 0.0007636
15350.0 0.00076276
15370.0 0.00076195
15390.0 0.00076104
15410.0 0.00076019
15430.0 0.00075941
15450.0 0.00075857
15470.0 0.0007577
15490.0 0.00075694
15510.0 0.00075617
15530.0 0.00075533
15550.0 0.00075453
15570.0 0.00075379
15590.0 0.00075296
15610.0 0.00075211
15630.0 0.00075135
15650.0 0.00075058
15670.0 0.00074974
15690.0 0.00074895
15710.0 0.00074821
15730.0 0.00074738
15750.0 0.00074654
15770.0 0.00074576
15790.0 0.00074496
15810.0 0.00074406
15830.0 0.00074323
15850.0 0.00074244
15870.0 0.00074158
15890.0 0.00074069
15910.0 0.00073988
15930.0 0.00073902
15950.0 0.00073807
15970.0 0.00073718
15990.0 0.00073631
16010.0 0.00073536
16030.0 0.00073437
16050.0 0.00073349
16070.0 0.00073255
16090.0 0.00073153
16110.0 0.00073056
16130.0 0.00072962
16150.0 0.00072853
16170.0 0.00072746
16190.0 0.00072646
16210.0 0.0007254
16230.0 0.00072426
16250.0 0.00072318
16270.0 0.00072212
16290.0 0.00072094
16310.0 0.00071977
16330.0 0.00071864
16350.0 0.00071745
16370.0 0.00071614
16390.0 0.00071494
16410.0 0.00071373
16430.0 0.00071242
16450.0 0.00071111
16470.0 0.00070987
16490.0 0.00070851
16510.0 0.00070711
16530.0 0.00070576
16550.0 0.00070439
16570.0 0.00070291
16590.0 0.00070144
16610.0 0.00070004
16630.0 0.00069855
16650.0 0.000697
16670.0 0.00069551
16690.0 0.000694
16710.0 0.00069234
16730.0 0.00069074
16750.0 0.00068916
16770.0 0.0006875
16790.0 0.00068578
16810.0 0.00068414
16830.0 0.00068246
16850.0 0.00068068
16870.0 0.00067893
16890.0 0.00067721
16910.0 0.00067536
16930.0 0.00067347
16950.0 0.00067168
16970.0 0.00066983
16990.0 0.00066789
17010.0 0.00066598
17030.0 0.00066411
17050.0 0.00066212
17070.0 0.0006601
17090.0 0.00065814
17110.0 0.00065613
17130.0 0.000654
17150.0 0.00065195
17170.0 0.00064991
17190.0 0.00064778
17210.0 0.00064563
17230.0 0.00064354
17250.0 0.00064137
17270.0 0.00063911
17290.0 0.00063692
17310.0 0.00063473
17330.0 0.00063244
17350.0 0.00063012
17370.0 0.0006279
17390.0 0.0006256
17410.0 0.00062323
17430.0 0.00062091
17450.0 0.00061861
17470.0 0.00061615
17490.0 0.00061372
17510.0 0.00061136
17530.0 0.00060893
17550.0 0.00060642
17570.0 0.00060399
17590.0 0.00060156
17610.0 0.00059902
17630.0 0.00059649
17650.0 0.00059402
17670.0 0.00059147
17690.0 0.00058882
17710.0 0.00058629
17730.0 0.00058375
17750.0 0.00058111
17770.0 0.00057849
17790.0 0.00057594
17810.0 0.00057327
17830.0 0.00057058
17850.0 0.00056795
17870.0 0.0005653
17890.0 0.00056256
17910.0 0.00055984
17930.0 0.00055721
17950.0 0.00055448
17970.0 0.00055172
17990.0 0.00054903
18010.0 0.00054632
18030.0 0.00054349
18050.0 0.00054073
18070.0 0.000538
18090.0 0.00053521
18110.0 0.00053237
18130.0 0.00052964
18150.0 0.00052687
18170.0 0.00052402
18190.0 0.00052121
18210.0 0.00051845
18230.0 0.00051559
18250.0 0.0005127
18270.0 0.00050992
18290.0 0.0005071
18310.0 0.00050422
18330.0 0.00050139
18350.0 0.0004986
18370.0 0.00049571
18390.0 0.00049283
18410.0 0.00049002
18430.0 0.00048717
18450.0 0.00048423
18470.0 0.00048139
18490.0 0.00047858
18510.0 0.00047569
18530.0 0.0004728
18550.0 0.00047
18570.0 0.00046713
18590.0 0.0004642
18610.0 0.00046136
18630.0 0.00045853
18650.0 0.00045563
18670.0 0.00045273
18690.0 0.00044993
18710.0 0.00044708
18730.0 0.00044419
18750.0 0.00044136
18770.0 0.00043856
18790.0 0.00043563
18810.0 0.00043276
18830.0 0.00042997
18850.0 0.00042713
18870.0 0.00042425
18890.0 0.00042145
18910.0 0.00041867
18930.0 0.0004158
18950.0 0.00041297
18970.0 0.00041021
18990.0 0.00040739
19010.0 0.0004045
19030.0 0.00040175
19050.0 0.00039899
19070.0 0.00039617
19090.0 0.00039339
19110.0 0.00039068
19130.0 0.00038788
19150.0 0.00038507
19170.0 0.00038235
19190.0 0.00037962
19210.0 0.00037683
19230.0 0.00037408
19250.0 0.00037142
19270.0 0.00036868
19290.0 0.00036594
19310.0 0.00036328
19330.0 0.00036061
19350.0 0.00035785
19370.0 0.00035517
19390.0 0.00035254
19410.0 0.00034985
19430.0 0.00034716
19450.0 0.00034456
19470.0 0.00034194
19490.0 0.00033927
19510.0 0.00033666
19530.0 0.00033409
19550.0 0.00033145
19570.0 0.00032881
19590.0 0.00032627
19610.0 0.00032371
19630.0 0.0003211
19650.0 0.00031856
19670.0 0.00031607
19690.0 0.00031349
19710.0 0.00031094
19730.0 0.00030846
19750.0 0.00030595
19770.0 0.00030339
19790.0 0.00030092
19810.0 0.00029848
19830.0 0.00029598
19850.0 0.00029348
19870.0 0.00029104
19890.0 0.0002885
19910.0 0.00028581
19930.0 0.00028304
19950.0 0.00028006
19970.0 0.00027665
19990.0 0.00027279
20010.0 0.00026922
20030.0 0.00026441
20050.0 0.00025901
20070.0 0.00025334
20090.0 0.00024741
20110.0 0.00024091
20130.0 0.00023446
20150.0 0.00022817
20170.0 0.00022178
20190.0 0.0002154
20210.0 0.00020942
20230.0 0.00020365
20250.0 0.00019792
20270.0 0.00019262
20290.0 0.00018778
20310.0 0.00018318
20330.0 0.00017887
20350.0 0.00017524
20370.0 0.00017199
20390.0 0.00016911
20410.0 0.00016673
20430.0 0.00016484
20450.0 0.0001633
20470.0 0.0001622
20490.0 0.00016153
20510.0 0.00016121
20530.0 0.00016126
20550.0 0.00016163
20570.0 0.00016225
20590.0 0.00016316
20610.0 0.00016431
20630.0 0.00016561
20650.0 0.00016708
20670.0 0.00016881
20690.0 0.00017056
20710.0 0.00017238
20730.0 0.00017434
20750.0 0.00017637
20770.0 0.00017834
20790.0 0.00018039
20810.0 0.00018253
20830.0 0.00018463
20850.0 0.0001867
20870.0 0.0001889
20890.0 0.00019111
20910.0 0.0001932
20930.0 0.00019536
20950.0 0.00019758
20970.0 0.00019973
20990.0 0.00020183
21010.0 0.00020406
21030.0 0.00020623
21050.0 0.00020829
21070.0 0.00021037
21090.0 0.00021247
21110.0 0.0002144
21130.0 0.00021622
21150.0 0.00021804
21170.0 0.00021972
21190.0 0.0002212
21210.0 0.00022262
21230.0 0.00022389
21250.0 0.00022492
21270.0 0.00022574
21290.0 0.00022636
21310.0 0.00022671
21330.0 0.00022676
21350.0 0.00022654
21370.0 0.00022597
21390.0 0.00022507
21410.0 0.00022382
21430.0 0.00022212
21450.0 0.00022007
21470.0 0.00021771
21490.0 0.00021492
21510.0 0.00021174
21530.0 0.00020837
21550.0 0.00020473
21570.0 0.00020071
21590.0 0.00019661
21610.0 0.00019251
21630.0 0.00018825
21650.0 0.00018392
21670.0 0.00017997
21690.0 0.00017615
21710.0 0.00017247
21730.0 0.00016919
21750.0 0.00016635
21770.0 0.00016377
21790.0 0.00016168
21810.0 0.00016013
21830.0 0.00015904
21850.0 0.00015843
21870.0 0.00015833
21890.0 0.00015868
21910.0 0.0001595
21930.0 0.00016076
21950.0 0.00016236
21970.0 0.00016433
21990.0 0.00016676
22010.0 0.00016936
22030.0 0.00017215
22050.0 0.00017526
22070.0 0.00017853
22090.0 0.00018177
22110.0 0.00018517
22130.0 0.00018871
22150.0 0.00019214
22170.0 0.00019548
22190.0 0.00019892
22210.0 0.00020221
22230.0 0.00020519
22250.0 0.00020807
22270.0 0.00021079
22290.0 0.00021317
22310.0 0.00021525
22330.0 0.00021714
22350.0 0.00021865
22370.0 0.00021976
22390.0 0.00022053
22410.0 0.00022092
22430.0 0.00022087
22450.0 0.00022044
22470.0 0.00021956
22490.0 0.00021826
22510.0 0.0002166
22530.0 0.00021445
22550.0 0.00021182
22570.0 0.00020889
22590.0 0.00020557
22610.0 0.00020175
22630.0 0.00019761
22650.0 0.00019331
22670.0 0.00018855
22690.0 0.00018344
22710.0 0.00017827
22730.0 0.00017291
22750.0 0.00016708
22770.0 0.00016135
22790.0 0.00015572
22810.0 0.00014991
22830.0 0.00014409
22850.0 0.00013861
22870.0 0.00013323
22890.0 0.00012786
22910.0 0.0001229
22930.0 0.00011836
22950.0 0.00011404
22970.0 0.00011006
22990.0 0.00010678
23010.0 0.0001039
23030.0 0.00010146
23050.0 9.9619e-05
23070.0 9.8336e-05
23090.0 9.7541e-05
23110.0 9.7333e-05
23130.0 9.7659e-05
23150.0 9.8496e-05
