#lamb flux
1010.0 2.6692e-06
1030.0 3.5948e-06
1050.0 4.8365e-06
1070.0 6.4636e-06
1090.0 8.5876e-06
1110.0 1.1171e-05
1130.0 1.4221e-05
1150.0 1.7841e-05
1170.0 2.2027e-05
1190.0 2.6563e-05
1210.0 3.1526e-05
1230.0 3.6896e-05
1250.0 4.2413e-05
1270.0 4.7883e-05
1290.0 5.3407e-05
1310.0 5.8634e-05
1330.0 6.3228e-05
1350.0 6.7197e-05
1370.0 7.0471e-05
1390.0 7.2726e-05
1410.0 7.3884e-05
1430.0 7.4168e-05
1450.0 7.3438e-05
1470.0 7.1659e-05
1490.0 6.9072e-05
1510.0 6.5893e-05
1530.0 6.1979e-05
1550.0 5.7611e-05
1570.0 5.3035e-05
1590.0 4.8293e-05
1610.0 4.3448e-05
1630.0 3.8718e-05
1650.0 3.416e-05
1670.0 2.9776e-05
1690.0 2.5648e-05
1710.0 2.1837e-05
1730.0 1.8331e-05
1750.0 1.5115e-05
1770.0 1.2231e-05
1790.0 9.6616e-06
1810.0 7.3841e-06
1830.0 5.3942e-06
1850.0 4.8096e-06
1870.0 5.3815e-06
1890.0 5.8749e-06
1910.0 6.2999e-06
1930.0 6.6616e-06
1950.0 6.8414e-06
1970.0 6.957e-06
1990.0 7.0886e-06
2010.0 7.2283e-06
2030.0 7.3734e-06
2050.0 7.5322e-06
2070.0 7.5294e-06
2090.0 7.4464e-06
2110.0 7.3196e-06
2130.0 7.155e-06
2150.0 6.9494e-06
2170.0 6.7034e-06
2190.0 6.4284e-06
2210.0 6.9424e-06
2230.0 8.4626e-06
2250.0 1.0061e-05
2270.0 1.1736e-05
2290.0 1.3464e-05
2310.0 1.5229e-05
2330.0 1.7033e-05
2350.0 1.886e-05
2370.0 2.0683e-05
2390.0 2.2501e-05
2410.0 2.4311e-05
2430.0 2.6073e-05
2450.0 2.7771e-05
2470.0 2.9405e-05
2490.0 3.096e-05
2510.0 3.2414e-05
2530.0 3.3821e-05
2550.0 3.5266e-05
2570.0 3.6862e-05
2590.0 3.8773e-05
2610.0 4.1398e-05
2630.0 4.5035e-05
2650.0 4.9807e-05
2670.0 5.6145e-05
2690.0 6.4453e-05
2710.0 7.4213e-05
2730.0 8.5008e-05
2750.0 9.7174e-05
2770.0 0.00010941
2790.0 0.00012047
2810.0 0.00013031
2830.0 0.00013884
2850.0 0.00014462
2870.0 0.00014846
2890.0 0.00015102
2910.0 0.00015229
2930.0 0.00015233
2950.0 0.00015193
2970.0 0.00015115
2990.0 0.00014976
3010.0 0.00014805
3030.0 0.00014638
3050.0 0.00014462
3070.0 0.00014251
3090.0 0.00014061
3110.0 0.00013894
3130.0 0.00013747
3150.0 0.00012979
3170.0 0.00012435
3190.0 0.00011909
3210.0 0.00011532
3230.0 0.00011629
3250.0 0.00013382
3270.0 0.00017292
3290.0 0.000198
3310.0 0.00017517
3330.0 0.00017746
3350.0 0.00018514
3370.0 0.00019396
3390.0 0.0002024
3410.0 0.00020787
3430.0 0.00021097
3450.0 0.00021339
3470.0 0.00021696
3490.0 0.00021607
3510.0 0.00019642
3530.0 0.0001737
3550.0 0.00017266
3570.0 0.00020636
3590.0 0.00029932
3610.0 0.00035624
3630.0 0.00047382
3650.0 0.00048814
3670.0 0.00040859
3690.0 0.00031802
3710.0 0.00027071
3730.0 0.00027949
3750.0 0.00029008
3770.0 0.00029975
3790.0 0.00030911
3810.0 0.0003432
3830.0 0.00031376
3850.0 0.00026027
3870.0 0.00023045
3890.0 0.00026197
3910.0 0.00028335
3930.0 0.0002823
3950.0 0.00030151
3970.0 0.00032323
3990.0 0.00031382
4010.0 0.00032511
4030.0 0.00030729
4050.0 0.00028833
4070.0 0.00027255
4090.0 0.00027143
4110.0 0.00027673
4130.0 0.00026677
4150.0 0.00024801
4170.0 0.0002363
4190.0 0.00023521
4210.0 0.00020859
4230.0 0.0001853
4250.0 0.00015636
4270.0 0.00012649
4290.0 0.00012284
4310.0 0.00011709
4330.0 0.00011565
4350.0 0.00014357
4370.0 0.0001445
4390.0 0.00016671
4410.0 0.00018075
4430.0 0.00019248
4450.0 0.00016774
4470.0 0.00013774
4490.0 0.00012961
4510.0 0.00011915
4530.0 0.00011217
4550.0 0.00010435
4570.0 0.00010213
4590.0 0.00010391
4610.0 9.1224e-05
4630.0 8.3425e-05
4650.0 7.3067e-05
4670.0 7.1692e-05
4690.0 5.9646e-05
4710.0 5.1887e-05
4730.0 4.0436e-05
4750.0 3.4654e-05
4770.0 3.9219e-05
4790.0 3.862e-05
4810.0 3.8184e-05
4830.0 4.539e-05
4850.0 4.3786e-05
4870.0 4.6324e-05
4890.0 4.6607e-05
4910.0 3.9095e-05
4930.0 3.5275e-05
4950.0 3.9002e-05
4970.0 3.5414e-05
4990.0 3.2448e-05
5010.0 3.3315e-05
5030.0 3.4032e-05
5050.0 3.3921e-05
5070.0 3.5629e-05
5090.0 3.7539e-05
5110.0 3.7195e-05
5130.0 3.8043e-05
5150.0 3.7118e-05
5170.0 4.0625e-05
5190.0 4.1298e-05
5210.0 4.0759e-05
5230.0 4.125e-05
5250.0 3.9109e-05
5270.0 3.804e-05
5290.0 3.7161e-05
5310.0 3.7348e-05
5330.0 3.5876e-05
5350.0 3.8778e-05
5370.0 3.7558e-05
5390.0 3.5106e-05
5410.0 3.5473e-05
5430.0 3.317e-05
5450.0 3.6462e-05
5470.0 3.725e-05
5490.0 4.9645e-05
5510.0 4.999e-05
5530.0 5.129e-05
5550.0 4.8227e-05
5570.0 5.58e-05
5590.0 6.5073e-05
5610.0 6.5547e-05
5630.0 6.187e-05
5650.0 6.2685e-05
5670.0 6.1679e-05
5690.0 6.4224e-05
5710.0 5.6876e-05
5730.0 6.1214e-05
5750.0 6.0235e-05
5770.0 5.5825e-05
5790.0 6.3107e-05
5810.0 6.6138e-05
5830.0 6.3302e-05
5850.0 5.3289e-05
5870.0 4.7204e-05
5890.0 4.6741e-05
5910.0 5.5086e-05
5930.0 5.2051e-05
5950.0 5.5097e-05
5970.0 5.5337e-05
5990.0 5.9207e-05
6010.0 5.5991e-05
6030.0 5.6979e-05
6050.0 5.5459e-05
6070.0 4.8365e-05
6090.0 5.2362e-05
6110.0 5.3942e-05
6130.0 4.9416e-05
6150.0 4.9219e-05
6170.0 5.0136e-05
6190.0 3.7411e-05
6210.0 3.8165e-05
6230.0 4.1439e-05
6250.0 4.0529e-05
6270.0 3.9808e-05
6290.0 4.4204e-05
6310.0 4.9936e-05
6330.0 5.0457e-05
6350.0 4.8338e-05
6370.0 5.0007e-05
6390.0 4.3017e-05
6410.0 4.4878e-05
6430.0 4.1158e-05
6450.0 4.2505e-05
6470.0 4.401e-05
6490.0 4.4949e-05
6510.0 3.8698e-05
6530.0 3.9655e-05
6550.0 3.8964e-05
6570.0 3.5255e-05
6590.0 3.8847e-05
6610.0 3.9153e-05
6630.0 3.9218e-05
6650.0 3.5551e-05
6670.0 3.3437e-05
6690.0 3.2018e-05
6710.0 3.0051e-05
6730.0 2.8617e-05
6750.0 2.8824e-05
6770.0 2.5552e-05
6790.0 1.2946e-05
6810.0 1.5598e-05
6830.0 2.4904e-05
6850.0 2.0864e-05
6870.0 2.0711e-05
6890.0 2.0189e-05
6910.0 1.9942e-05
6930.0 1.8562e-05
6950.0 2.1052e-05
6970.0 2.0328e-05
6990.0 2.0171e-05
7010.0 1.995e-05
7030.0 2.2309e-05
7050.0 2.2208e-05
7070.0 1.5765e-05
7090.0 1.0151e-05
7110.0 1.0986e-05
7130.0 1.0915e-05
7150.0 1.2213e-05
7170.0 1.2123e-05
7190.0 1.1658e-05
7210.0 1.4423e-05
7230.0 1.958e-05
7250.0 1.9185e-05
7270.0 2.0036e-05
7290.0 2.2559e-05
7310.0 1.8562e-05
7330.0 1.744e-05
7350.0 1.623e-05
7370.0 2.0017e-05
7390.0 2.4897e-05
7410.0 1.7622e-05
7430.0 1.8926e-05
7450.0 1.8595e-05
7470.0 2.3279e-05
7490.0 2.4366e-05
7510.0 2.0615e-05
7530.0 2.3484e-05
7550.0 1.3761e-05
7570.0 1.4541e-05
7590.0 1.5767e-05
7610.0 2.2042e-05
7630.0 1.8674e-05
7650.0 2.26e-05
7670.0 1.4047e-05
7690.0 1.6462e-05
7710.0 1.5928e-05
7730.0 1.8255e-05
7750.0 1.6962e-05
7770.0 2.0805e-05
7790.0 2.4155e-05
7810.0 1.9562e-05
7830.0 2.4664e-05
7850.0 1.7704e-05
7870.0 2.4005e-05
7890.0 2.0196e-05
7910.0 2.0352e-05
7930.0 1.8373e-05
7950.0 2.0911e-05
7970.0 1.9648e-05
7990.0 1.9197e-05
8010.0 0.00014366
8030.0 0.00013678
8050.0 0.00013417
8070.0 0.00013216
8090.0 0.00013103
8110.0 0.00012445
8130.0 0.00013289
8150.0 0.00014353
8170.0 0.00015031
8190.0 0.00016075
8210.0 0.00015057
8230.0 0.00014917
8250.0 0.00014641
8270.0 0.00015241
8290.0 0.00015329
8310.0 0.00014386
8330.0 0.00013324
8350.0 0.00013878
8370.0 0.00014361
8390.0 0.00013897
8410.0 0.00013737
8430.0 0.00013204
8450.0 0.00012456
8470.0 0.00013694
8490.0 0.00013741
8510.0 0.00012658
8530.0 0.00013154
8550.0 0.00013057
8570.0 0.00011669
8590.0 0.00012021
8610.0 0.0001179
8630.0 0.00012674
8650.0 0.00012782
8670.0 0.00013124
8690.0 0.00012772
8710.0 0.0001279
8730.0 0.00011998
8750.0 0.00011517
8770.0 0.00011302
8790.0 0.00012466
8810.0 0.00011222
8830.0 0.00010823
8850.0 0.00011763
8870.0 0.00011105
8890.0 9.9436e-05
8910.0 9.8921e-05
8930.0 0.0001063
8950.0 9.3525e-05
8970.0 8.882e-05
8990.0 8.6605e-05
9010.0 8.0386e-05
9030.0 7.9036e-05
9050.0 7.8725e-05
9070.0 7.8466e-05
9090.0 7.8206e-05
9110.0 7.7948e-05
9130.0 7.7683e-05
9150.0 7.7409e-05
9170.0 7.7132e-05
9190.0 7.6854e-05
9210.0 7.6574e-05
9230.0 7.6291e-05
9250.0 7.6006e-05
9270.0 7.572e-05
9290.0 7.543e-05
9310.0 7.5229e-05
9330.0 7.516e-05
9350.0 7.5091e-05
9370.0 7.5015e-05
9390.0 7.4932e-05
9410.0 7.4847e-05
9430.0 7.4761e-05
9450.0 7.4664e-05
9470.0 7.4606e-05
9490.0 7.4524e-05
9510.0 7.4393e-05
9530.0 7.4259e-05
9550.0 7.4136e-05
9570.0 7.4013e-05
9590.0 7.3883e-05
9610.0 7.3912e-05
9630.0 7.3957e-05
9650.0 7.399e-05
9670.0 7.4006e-05
9690.0 7.4027e-05
9710.0 7.4042e-05
9730.0 7.4041e-05
9750.0 7.4036e-05
9770.0 7.4039e-05
9790.0 7.4023e-05
9810.0 7.3996e-05
9830.0 7.3973e-05
9850.0 7.3887e-05
9870.0 7.3736e-05
9890.0 7.3758e-05
9910.0 7.3749e-05
9930.0 7.3691e-05
9950.0 7.3637e-05
9970.0 7.3589e-05
9990.0 7.3527e-05
10010.0 7.3452e-05
10030.0 7.3371e-05
10050.0 7.3285e-05
10070.0 7.3191e-05
10090.0 7.3092e-05
10110.0 7.299e-05
10130.0 7.2884e-05
10150.0 7.277e-05
10170.0 7.2654e-05
10190.0 7.2536e-05
10210.0 7.2412e-05
10230.0 7.2282e-05
10250.0 7.2152e-05
10270.0 7.2017e-05
10290.0 7.1877e-05
10310.0 7.1735e-05
10330.0 7.1592e-05
10350.0 7.1443e-05
10370.0 7.1291e-05
10390.0 7.1135e-05
10410.0 7.0931e-05
10430.0 7.0705e-05
10450.0 7.0597e-05
10470.0 7.0459e-05
10490.0 7.031e-05
10510.0 7.0154e-05
10530.0 6.9987e-05
10550.0 6.9817e-05
10570.0 6.9646e-05
10590.0 6.9471e-05
10610.0 6.9293e-05
10630.0 6.9116e-05
10650.0 6.8938e-05
10670.0 6.8755e-05
10690.0 6.8573e-05
10710.0 6.8392e-05
10730.0 6.8207e-05
10750.0 6.802e-05
10770.0 6.7836e-05
10790.0 6.7651e-05
10810.0 6.7463e-05
10830.0 6.7276e-05
10850.0 6.709e-05
10870.0 6.6897e-05
10890.0 6.67e-05
10910.0 6.6499e-05
10930.0 6.6286e-05
10950.0 6.605e-05
10970.0 6.5793e-05
10990.0 6.5513e-05
11010.0 1.6123e-05
11030.0 1.6017e-05
11050.0 1.589e-05
11070.0 1.5743e-05
11090.0 1.5577e-05
11110.0 1.5403e-05
11130.0 1.5224e-05
11150.0 1.5037e-05
11170.0 1.4846e-05
11190.0 1.4658e-05
11210.0 1.4466e-05
11230.0 1.4272e-05
11250.0 1.408e-05
11270.0 1.3892e-05
11290.0 1.3702e-05
11310.0 1.3514e-05
11330.0 1.3336e-05
11350.0 1.316e-05
11370.0 1.2987e-05
11390.0 1.2821e-05
11410.0 1.2662e-05
11430.0 1.2505e-05
11450.0 1.2353e-05
11470.0 1.2207e-05
11490.0 1.2064e-05
11510.0 1.1922e-05
11530.0 1.1785e-05
11550.0 1.1649e-05
11570.0 1.1513e-05
11590.0 1.1379e-05
11610.0 1.1246e-05
11630.0 1.1111e-05
11650.0 1.0974e-05
11670.0 1.0839e-05
11690.0 1.0703e-05
11710.0 1.0565e-05
11730.0 1.0426e-05
11750.0 1.0289e-05
11770.0 1.0149e-05
11790.0 1.0007e-05
11810.0 9.8677e-06
11830.0 9.7285e-06
11850.0 9.5866e-06
11870.0 9.4481e-06
11890.0 9.3136e-06
11910.0 9.1799e-06
11930.0 9.0487e-06
11950.0 8.9237e-06
11970.0 8.8026e-06
11990.0 8.6844e-06
12010.0 8.5732e-06
12030.0 8.4684e-06
12050.0 8.3687e-06
12070.0 8.2748e-06
12090.0 8.1888e-06
12110.0 8.1086e-06
12130.0 8.0341e-06
12150.0 7.9657e-06
12170.0 7.9026e-06
12190.0 7.8445e-06
12210.0 7.7907e-06
12230.0 7.7402e-06
12250.0 7.6926e-06
12270.0 7.6472e-06
12290.0 7.6026e-06
12310.0 7.558e-06
12330.0 7.5135e-06
12350.0 7.4679e-06
12370.0 7.4203e-06
12390.0 7.3707e-06
12410.0 7.3182e-06
12430.0 7.2627e-06
12450.0 7.2042e-06
12470.0 7.1417e-06
12490.0 7.0754e-06
12510.0 7.0065e-06
12530.0 6.9334e-06
12550.0 6.8557e-06
12570.0 6.7755e-06
12590.0 6.6927e-06
12610.0 6.6049e-06
12630.0 6.5141e-06
12650.0 6.4237e-06
12670.0 6.3298e-06
12690.0 6.233e-06
12710.0 6.137e-06
12730.0 6.041e-06
12750.0 5.941e-06
12770.0 5.8426e-06
12790.0 5.7467e-06
12810.0 5.6503e-06
12830.0 5.5534e-06
12850.0 5.4615e-06
12870.0 5.3722e-06
12890.0 5.2831e-06
12910.0 5.1981e-06
12930.0 5.1185e-06
12950.0 5.0409e-06
12970.0 4.967e-06
12990.0 4.9007e-06
13010.0 4.8396e-06
13030.0 4.7831e-06
13050.0 4.7334e-06
13070.0 4.6907e-06
13090.0 4.653e-06
13110.0 4.6212e-06
13130.0 4.5956e-06
13150.0 4.575e-06
13170.0 4.5591e-06
13190.0 4.5476e-06
13210.0 4.5397e-06
13230.0 4.535e-06
13250.0 4.5331e-06
13270.0 4.5329e-06
13290.0 4.5344e-06
13310.0 4.5376e-06
13330.0 4.541e-06
13350.0 4.5444e-06
13370.0 4.5476e-06
13390.0 4.5499e-06
13410.0 4.5503e-06
13430.0 4.5491e-06
13450.0 4.5455e-06
13470.0 4.5395e-06
13490.0 4.5311e-06
13510.0 4.5196e-06
13530.0 4.5056e-06
13550.0 4.49e-06
13570.0 4.4722e-06
13590.0 4.4521e-06
13610.0 4.4312e-06
13630.0 4.4098e-06
13650.0 4.3862e-06
13670.0 4.3617e-06
13690.0 4.3371e-06
13710.0 4.3109e-06
13730.0 4.2818e-06
13750.0 4.2531e-06
13770.0 4.2232e-06
13790.0 4.1905e-06
13810.0 4.1563e-06
13830.0 4.1224e-06
13850.0 4.0857e-06
13870.0 4.0469e-06
13890.0 4.0087e-06
13910.0 3.9704e-06
13930.0 3.93e-06
13950.0 3.89e-06
13970.0 3.8532e-06
13990.0 3.816e-06
14010.0 3.7793e-06
14030.0 3.7458e-06
14050.0 3.7145e-06
14070.0 3.6829e-06
14090.0 3.6546e-06
14110.0 3.6297e-06
14130.0 3.6059e-06
14150.0 3.5834e-06
14170.0 3.5644e-06
14190.0 3.5472e-06
14210.0 3.5304e-06
14230.0 3.5155e-06
14250.0 3.5026e-06
14270.0 3.4898e-06
14290.0 3.4775e-06
14310.0 3.4675e-06
14330.0 3.4583e-06
14350.0 3.4494e-06
14370.0 3.4419e-06
14390.0 3.4363e-06
14410.0 3.4309e-06
14430.0 3.4265e-06
14450.0 3.4238e-06
14470.0 3.4222e-06
14490.0 3.4206e-06
14510.0 3.4206e-06
14530.0 3.4217e-06
14550.0 3.4229e-06
14570.0 3.4243e-06
14590.0 3.4266e-06
14610.0 3.4287e-06
14630.0 3.4303e-06
14650.0 3.4322e-06
14670.0 3.4343e-06
14690.0 3.4356e-06
14710.0 3.4364e-06
14730.0 3.4378e-06
14750.0 3.4385e-06
14770.0 3.4382e-06
14790.0 3.4377e-06
14810.0 3.4372e-06
14830.0 3.4347e-06
14850.0 3.4317e-06
14870.0 3.4288e-06
14890.0 3.4249e-06
14910.0 3.4201e-06
14930.0 3.4161e-06
14950.0 3.4129e-06
14970.0 3.4097e-06
14990.0 3.4082e-06
15010.0 3.4087e-06
15030.0 3.4106e-06
15050.0 3.4136e-06
15070.0 3.4185e-06
15090.0 3.4244e-06
15110.0 3.4305e-06
15130.0 3.4369e-06
15150.0 3.4438e-06
15170.0 3.4502e-06
15190.0 3.4564e-06
15210.0 3.4626e-06
15230.0 3.4688e-06
15250.0 3.4743e-06
15270.0 3.4797e-06
15290.0 3.4853e-06
15310.0 3.4903e-06
15330.0 3.495e-06
15350.0 3.4997e-06
15370.0 3.5042e-06
15390.0 3.508e-06
15410.0 3.5117e-06
15430.0 3.5154e-06
15450.0 3.5186e-06
15470.0 3.5214e-06
15490.0 3.5242e-06
15510.0 3.5268e-06
15530.0 3.5287e-06
15550.0 3.5305e-06
15570.0 3.5323e-06
15590.0 3.5334e-06
15610.0 3.534e-06
15630.0 3.5348e-06
15650.0 3.5353e-06
15670.0 3.5351e-06
15690.0 3.5348e-06
15710.0 3.5345e-06
15730.0 3.5334e-06
15750.0 3.532e-06
15770.0 3.5306e-06
15790.0 3.5289e-06
15810.0 3.5263e-06
15830.0 3.5239e-06
15850.0 3.5213e-06
15870.0 3.5181e-06
15890.0 3.5146e-06
15910.0 3.5111e-06
15930.0 3.5071e-06
15950.0 3.5025e-06
15970.0 3.4978e-06
15990.0 3.4931e-06
16010.0 3.4876e-06
16030.0 3.4818e-06
16050.0 3.4763e-06
16070.0 3.4702e-06
16090.0 3.4635e-06
16110.0 3.4568e-06
16130.0 3.4501e-06
16150.0 3.4424e-06
16170.0 3.4347e-06
16190.0 3.427e-06
16210.0 3.4189e-06
16230.0 3.4102e-06
16250.0 3.4016e-06
16270.0 3.3929e-06
16290.0 3.3834e-06
16310.0 3.3739e-06
16330.0 3.3643e-06
16350.0 3.3543e-06
16370.0 3.3437e-06
16390.0 3.3333e-06
16410.0 3.3228e-06
16430.0 3.3117e-06
16450.0 3.3004e-06
16470.0 3.2893e-06
16490.0 3.2776e-06
16510.0 3.2655e-06
16530.0 3.2536e-06
16550.0 3.2414e-06
16570.0 3.2287e-06
16590.0 3.2159e-06
16610.0 3.2034e-06
16630.0 3.1903e-06
16650.0 3.1769e-06
16670.0 3.1637e-06
16690.0 3.1503e-06
16710.0 3.1361e-06
16730.0 3.1222e-06
16750.0 3.1083e-06
16770.0 3.094e-06
16790.0 3.0794e-06
16810.0 3.0651e-06
16830.0 3.0506e-06
16850.0 3.0356e-06
16870.0 3.0207e-06
16890.0 3.0059e-06
16910.0 2.9905e-06
16930.0 2.975e-06
16950.0 2.9598e-06
16970.0 2.9444e-06
16990.0 2.9285e-06
17010.0 2.9129e-06
17030.0 2.8974e-06
17050.0 2.8813e-06
17070.0 2.8652e-06
17090.0 2.8493e-06
17110.0 2.8332e-06
17130.0 2.8167e-06
17150.0 2.8005e-06
17170.0 2.7844e-06
17190.0 2.7679e-06
17210.0 2.7513e-06
17230.0 2.7351e-06
17250.0 2.7186e-06
17270.0 2.7017e-06
17290.0 2.6851e-06
17310.0 2.6686e-06
17330.0 2.6518e-06
17350.0 2.6349e-06
17370.0 2.6184e-06
17390.0 2.6017e-06
17410.0 2.5847e-06
17430.0 2.568e-06
17450.0 2.5515e-06
17470.0 2.5344e-06
17490.0 2.5174e-06
17510.0 2.5008e-06
17530.0 2.484e-06
17550.0 2.467e-06
17570.0 2.4504e-06
17590.0 2.4338e-06
17610.0 2.4168e-06
17630.0 2.4e-06
17650.0 2.3835e-06
17670.0 2.3668e-06
17690.0 2.3498e-06
17710.0 2.3333e-06
17730.0 2.3168e-06
17750.0 2.3001e-06
17770.0 2.2835e-06
17790.0 2.2673e-06
17810.0 2.2508e-06
17830.0 2.2342e-06
17850.0 2.2179e-06
17870.0 2.2017e-06
17890.0 2.1852e-06
17910.0 2.1689e-06
17930.0 2.153e-06
17950.0 2.1369e-06
17970.0 2.1207e-06
17990.0 2.1049e-06
18010.0 2.0891e-06
18030.0 2.0729e-06
18050.0 2.0572e-06
18070.0 2.0416e-06
18090.0 2.0259e-06
18110.0 2.0101e-06
18130.0 1.9948e-06
18150.0 1.9795e-06
18170.0 1.964e-06
18190.0 1.9487e-06
18210.0 1.9337e-06
18230.0 1.9184e-06
18250.0 1.9031e-06
18270.0 1.8884e-06
18290.0 1.8735e-06
18310.0 1.8586e-06
18330.0 1.8439e-06
18350.0 1.8295e-06
18370.0 1.8148e-06
18390.0 1.8003e-06
18410.0 1.786e-06
18430.0 1.7718e-06
18450.0 1.7573e-06
18470.0 1.7433e-06
18490.0 1.7295e-06
18510.0 1.7155e-06
18530.0 1.7016e-06
18550.0 1.6881e-06
18570.0 1.6744e-06
18590.0 1.6606e-06
18610.0 1.6473e-06
18630.0 1.634e-06
18650.0 1.6206e-06
18670.0 1.6073e-06
18690.0 1.5945e-06
18710.0 1.5815e-06
18730.0 1.5685e-06
18750.0 1.5558e-06
18770.0 1.5433e-06
18790.0 1.5305e-06
18810.0 1.5179e-06
18830.0 1.5057e-06
18850.0 1.4934e-06
18870.0 1.481e-06
18890.0 1.469e-06
18910.0 1.4571e-06
18930.0 1.4451e-06
18950.0 1.4332e-06
18970.0 1.4217e-06
18990.0 1.41e-06
19010.0 1.3982e-06
19030.0 1.3869e-06
19050.0 1.3756e-06
19070.0 1.3643e-06
19090.0 1.3531e-06
19110.0 1.3423e-06
19130.0 1.3312e-06
19150.0 1.3201e-06
19170.0 1.3095e-06
19190.0 1.2988e-06
19210.0 1.288e-06
19230.0 1.2775e-06
19250.0 1.2672e-06
19270.0 1.2568e-06
19290.0 1.2465e-06
19310.0 1.2365e-06
19330.0 1.2265e-06
19350.0 1.2162e-06
19370.0 1.2063e-06
19390.0 1.1966e-06
19410.0 1.1868e-06
19430.0 1.177e-06
19450.0 1.1676e-06
19470.0 1.1581e-06
19490.0 1.1486e-06
19510.0 1.1392e-06
19530.0 1.1301e-06
19550.0 1.1208e-06
19570.0 1.1115e-06
19590.0 1.1026e-06
19610.0 1.0937e-06
19630.0 1.0846e-06
19650.0 1.0759e-06
19670.0 1.0673e-06
19690.0 1.0584e-06
19710.0 1.0497e-06
19730.0 1.0413e-06
19750.0 1.0328e-06
19770.0 1.0241e-06
19790.0 1.0158e-06
19810.0 1.0077e-06
19830.0 9.9933e-07
19850.0 9.911e-07
19870.0 9.8318e-07
19890.0 9.7514e-07
19910.0 9.6708e-07
19930.0 9.5945e-07
19950.0 9.5211e-07
19970.0 9.4493e-07
19990.0 9.3824e-07
20010.0 9.3228e-07
20030.0 9.2675e-07
20050.0 9.2178e-07
20070.0 9.175e-07
20090.0 9.1378e-07
20110.0 9.1048e-07
20130.0 9.0771e-07
20150.0 9.0537e-07
20170.0 9.0336e-07
20190.0 9.0167e-07
20210.0 9.0024e-07
20230.0 8.9902e-07
20250.0 8.98e-07
20270.0 8.9709e-07
20290.0 8.9624e-07
20310.0 8.9545e-07
20330.0 8.9468e-07
20350.0 8.9383e-07
20370.0 8.9291e-07
20390.0 8.9192e-07
20410.0 8.9081e-07
20430.0 8.8958e-07
20450.0 8.8826e-07
20470.0 8.8682e-07
20490.0 8.8529e-07
20510.0 8.837e-07
20530.0 8.8204e-07
20550.0 8.8036e-07
20570.0 8.7867e-07
20590.0 8.7697e-07
20610.0 8.7529e-07
20630.0 8.7363e-07
20650.0 8.7199e-07
20670.0 8.7036e-07
20690.0 8.6873e-07
20710.0 8.6709e-07
20730.0 8.654e-07
20750.0 8.6363e-07
20770.0 8.6177e-07
20790.0 8.5978e-07
20810.0 8.5761e-07
20830.0 8.5525e-07
20850.0 8.5269e-07
20870.0 8.4985e-07
20890.0 8.4673e-07
20910.0 8.4341e-07
20930.0 8.3978e-07
20950.0 8.3585e-07
20970.0 8.317e-07
20990.0 8.2734e-07
21010.0 8.2265e-07
21030.0 8.1776e-07
21050.0 8.1276e-07
21070.0 8.0755e-07
21090.0 8.0209e-07
21110.0 7.9663e-07
21130.0 7.9106e-07
21150.0 7.8528e-07
21170.0 7.794e-07
21190.0 7.7351e-07
21210.0 7.6738e-07
21230.0 7.6105e-07
21250.0 7.5467e-07
21270.0 7.4812e-07
21290.0 7.4127e-07
21310.0 7.3423e-07
21330.0 7.2708e-07
21350.0 7.1958e-07
21370.0 7.1186e-07
21390.0 7.1197e-07
21410.0 7.1211e-07
21430.0 7.1219e-07
21450.0 7.1235e-07
21470.0 7.1257e-07
21490.0 7.1278e-07
21510.0 7.1299e-07
21530.0 7.133e-07
21550.0 7.1364e-07
21570.0 7.1396e-07
21590.0 7.1436e-07
21610.0 7.1485e-07
21630.0 7.1536e-07
21650.0 7.1588e-07
21670.0 7.1657e-07
21690.0 7.1731e-07
21710.0 7.1808e-07
21730.0 7.1896e-07
21750.0 7.1996e-07
21770.0 7.2096e-07
21790.0 7.2204e-07
21810.0 7.2325e-07
21830.0 7.2451e-07
21850.0 7.258e-07
21870.0 7.2719e-07
21890.0 7.2869e-07
21910.0 7.3021e-07
21930.0 7.318e-07
21950.0 7.335e-07
21970.0 7.3526e-07
21990.0 7.3705e-07
22010.0 7.3898e-07
22030.0 7.4102e-07
22050.0 7.4311e-07
22070.0 7.4324e-07
22090.0 7.3983e-07
22110.0 7.3644e-07
22130.0 7.3309e-07
22150.0 7.2993e-07
22170.0 7.2692e-07
22190.0 7.2391e-07
22210.0 7.2102e-07
22230.0 7.1835e-07
22250.0 7.1571e-07
22270.0 7.1313e-07
22290.0 7.1067e-07
22310.0 7.0829e-07
22330.0 7.0588e-07
22350.0 7.0353e-07
22370.0 7.0126e-07
22390.0 6.9895e-07
22410.0 6.9661e-07
22430.0 6.9433e-07
22450.0 6.9204e-07
22470.0 6.8967e-07
22490.0 6.873e-07
22510.0 6.8496e-07
22530.0 6.8253e-07
22550.0 6.8004e-07
22570.0 6.7761e-07
22590.0 6.7516e-07
22610.0 6.7265e-07
