#lamb flux
1010.0 1.3767e-05
1030.0 1.8466e-05
1050.0 2.4727e-05
1070.0 3.2887e-05
1090.0 4.3491e-05
1110.0 5.6326e-05
1130.0 7.1429e-05
1150.0 8.9317e-05
1170.0 0.00010997
1190.0 0.00013231
1210.0 0.0001567
1230.0 0.0001831
1250.0 0.00021019
1270.0 0.00023705
1290.0 0.00026418
1310.0 0.00028988
1330.0 0.00031249
1350.0 0.00033208
1370.0 0.0003483
1390.0 0.00035957
1410.0 0.0003655
1430.0 0.00036721
1450.0 0.000364
1470.0 0.0003557
1490.0 0.00034347
1510.0 0.00032837
1530.0 0.00030969
1550.0 0.00028881
1570.0 0.000267
1590.0 0.00024439
1610.0 0.00022127
1630.0 0.00019871
1650.0 0.000177
1670.0 0.00015612
1690.0 0.00013647
1710.0 0.00011837
1730.0 0.00010175
1750.0 8.651e-05
1770.0 7.2893e-05
1790.0 6.0806e-05
1810.0 5.012e-05
1830.0 4.0821e-05
1850.0 3.2495e-05
1870.0 2.5069e-05
1890.0 1.8933e-05
1910.0 1.4045e-05
1930.0 1.0332e-05
1950.0 9.2283e-06
1970.0 9.2146e-06
1990.0 9.304e-06
2010.0 9.4845e-06
2030.0 9.7495e-06
2050.0 1.0105e-05
2070.0 1.288e-05
2090.0 1.6814e-05
2110.0 2.1518e-05
2130.0 2.6967e-05
2150.0 3.3099e-05
2170.0 3.9844e-05
2190.0 4.7199e-05
2210.0 5.4807e-05
2230.0 6.2491e-05
2250.0 7.0552e-05
2270.0 7.8995e-05
2290.0 8.7684e-05
2310.0 9.6534e-05
2330.0 0.00010558
2350.0 0.00011474
2370.0 0.00012385
2390.0 0.00013294
2410.0 0.000142
2430.0 0.00015081
2450.0 0.0001593
2470.0 0.00016751
2490.0 0.00017539
2510.0 0.00018283
2530.0 0.00019017
2550.0 0.00019794
2570.0 0.00020673
2590.0 0.00021739
2610.0 0.00023218
2630.0 0.00025254
2650.0 0.00027897
2670.0 0.00031371
2690.0 0.00035876
2710.0 0.00041113
2730.0 0.00046854
2750.0 0.00053277
2770.0 0.00059695
2790.0 0.0006546
2810.0 0.00070562
2830.0 0.00074952
2850.0 0.000779
2870.0 0.00079825
2890.0 0.00081068
2910.0 0.00081629
2930.0 0.00081539
2950.0 0.00081206
2970.0 0.00080657
2990.0 0.00079777
3010.0 0.00078703
3030.0 0.0007762
3050.0 0.00076455
3070.0 0.00075076
3090.0 0.00073762
3110.0 0.00072524
3130.0 0.00071337
3150.0 0.00067113
3170.0 0.0006396
3190.0 0.00060862
3210.0 0.00058441
3230.0 0.00058253
3250.0 0.00065961
3270.0 0.00083935
3290.0 0.00094921
3310.0 0.00082209
3330.0 0.00081659
3350.0 0.00083769
3370.0 0.00086407
3390.0 0.00088838
3410.0 0.00089817
3430.0 0.00089646
3450.0 0.00089155
3470.0 0.00089252
3490.0 0.00087234
3510.0 0.00076217
3530.0 0.00053586
3550.0 0.0004517
3570.0 0.00078721
3590.0 0.0012166
3610.0 0.0014646
3630.0 0.0020198
3650.0 0.002096
3670.0 0.0017303
3690.0 0.0013035
3710.0 0.0010716
3730.0 0.0011079
3750.0 0.0011579
3770.0 0.0012009
3790.0 0.0012432
3810.0 0.0014195
3830.0 0.001302
3850.0 0.0010665
3870.0 0.00093889
3890.0 0.0011051
3910.0 0.0012249
3930.0 0.0012353
3950.0 0.0013402
3970.0 0.001459
3990.0 0.0014314
4010.0 0.001509
4030.0 0.0014461
4050.0 0.0013761
4070.0 0.0013211
4090.0 0.0013368
4110.0 0.0013831
4130.0 0.0013532
4150.0 0.0012788
4170.0 0.0012391
4190.0 0.0012466
4210.0 0.0011254
4230.0 0.0010166
4250.0 0.00087755
4270.0 0.0007347
4290.0 0.00071978
4310.0 0.00069789
4330.0 0.00070208
4350.0 0.0008491
4370.0 0.00086597
4390.0 0.00099048
4410.0 0.0010736
4430.0 0.0011331
4450.0 0.0010028
4470.0 0.00084733
4490.0 0.00080408
4510.0 0.00075183
4530.0 0.00071871
4550.0 0.00068114
4570.0 0.00067198
4590.0 0.00068458
4610.0 0.00062953
4630.0 0.00059506
4650.0 0.00054565
4670.0 0.00053265
4690.0 0.00046097
4710.0 0.00040972
4730.0 0.00034408
4750.0 0.00030819
4770.0 0.00019754
4790.0 0.00020278
4810.0 0.00018983
4830.0 4.9879e-05
4850.0 0.00011589
4870.0 4.3064e-05
4890.0 5.2721e-05
4910.0 0.0001632
4930.0 0.0001797
4950.0 4.2408e-05
4970.0 5.7382e-05
4990.0 6.8813e-05
5010.0 3.1152e-05
5030.0 2.8411e-05
5050.0 6.6141e-05
5070.0 5.8655e-05
5090.0 6.3967e-05
5110.0 7.8766e-05
5130.0 6.8291e-05
5150.0 9.5879e-05
5170.0 3.5959e-05
5190.0 3.323e-05
5210.0 5.6586e-05
5230.0 3.4582e-05
5250.0 8.0558e-05
5270.0 0.00018612
5290.0 0.00017914
5310.0 0.00011445
5330.0 0.00012472
5350.0 6.3107e-05
5370.0 7.5863e-05
5390.0 0.00010843
5410.0 9.3626e-05
5430.0 0.00014975
5450.0 8.5836e-05
5470.0 8.522e-05
5490.0 0.00022852
5510.0 0.0002303
5530.0 0.00023723
5550.0 0.00022332
5570.0 0.00026136
5590.0 0.00030809
5610.0 0.00031237
5630.0 0.00029677
5650.0 0.00030326
5670.0 0.00030113
5690.0 0.00031631
5710.0 0.00028391
5730.0 0.00030852
5750.0 0.00030689
5770.0 0.00028845
5790.0 0.00032587
5810.0 0.00034137
5830.0 0.00033314
5850.0 0.00029199
5870.0 0.00026809
5890.0 0.00027114
5910.0 0.00031726
5930.0 0.00030802
5950.0 0.00032751
5970.0 0.00033375
5990.0 0.00035744
6010.0 0.0003456
6030.0 0.00035367
6050.0 0.00035097
6070.0 0.00032222
6090.0 0.00034621
6110.0 0.00035664
6130.0 0.0003372
6150.0 0.00033785
6170.0 0.00034346
6190.0 0.00028243
6210.0 0.0002874
6230.0 0.00030656
6250.0 0.00030456
6270.0 0.00030329
6290.0 0.00032808
6310.0 0.00035934
6330.0 0.00036329
6350.0 0.00035293
6370.0 0.00036228
6390.0 0.00032938
6410.0 0.00033807
6430.0 0.00031957
6450.0 0.00032599
6470.0 0.000333
6490.0 0.00033777
6510.0 0.00030723
6530.0 0.00031037
6550.0 0.00030571
6570.0 0.00028701
6590.0 0.00030505
6610.0 0.00030642
6630.0 0.00030321
6650.0 0.00028241
6670.0 0.00027098
6690.0 0.00026214
6710.0 0.0002496
6730.0 0.00024112
6750.0 0.0002421
6770.0 0.0002313
6790.0 0.00016266
6810.0 0.00018688
6830.0 0.00021693
6850.0 0.000192
6870.0 0.00018821
6890.0 0.0001839
6910.0 0.00018099
6930.0 0.00017248
6950.0 0.00018218
6970.0 0.00017451
6990.0 0.00017088
7010.0 0.00016861
7030.0 0.00017802
7050.0 0.00017415
7070.0 0.0001399
7090.0 0.0001107
7110.0 0.00010032
7130.0 0.000111
7150.0 0.00011495
7170.0 0.00011226
7190.0 9.1845e-05
7210.0 0.0001195
7230.0 0.00014239
7250.0 0.00013849
7270.0 0.00014042
7290.0 0.00015069
7310.0 0.00012946
7330.0 0.00012116
7350.0 0.00011205
7370.0 0.00012755
7390.0 0.00014876
7410.0 0.00011137
7430.0 0.00011574
7450.0 0.00011206
7470.0 0.00013287
7490.0 0.0001359
7510.0 0.0001155
7530.0 0.00012758
7550.0 6.5423e-05
7570.0 5.0271e-05
7590.0 8.439e-05
7610.0 0.00011301
7630.0 9.5334e-05
7650.0 0.00011274
7670.0 6.9704e-05
7690.0 3.1753e-05
7710.0 5.0476e-05
7730.0 8.5253e-05
7750.0 5.1066e-05
7770.0 9.4452e-05
7790.0 0.00010942
7810.0 8.531e-05
7830.0 0.00010824
7850.0 7.2879e-05
7870.0 0.00010179
7890.0 8.1948e-05
7910.0 8.1604e-05
7930.0 5.5579e-05
7950.0 2.7486e-05
7970.0 4.8965e-05
7990.0 7.2161e-05
8010.0 0.00024648
8030.0 0.00023875
8050.0 0.00023483
8070.0 0.00022834
8090.0 0.00021105
8110.0 0.00020533
8130.0 0.00022694
8150.0 0.00024212
8170.0 0.00025081
8190.0 0.00026373
8210.0 0.00025151
8230.0 0.00025185
8250.0 0.00024957
8270.0 0.00025221
8290.0 0.00025018
8310.0 0.00023703
8330.0 0.00022762
8350.0 0.00023567
8370.0 0.00024024
8390.0 0.00023344
8410.0 0.00023083
8430.0 0.00022224
8450.0 0.00021497
8470.0 0.00023264
8490.0 0.0002337
8510.0 0.00021777
8530.0 0.00021897
8550.0 0.00021638
8570.0 0.00019904
8590.0 0.0002025
8610.0 0.00020254
8630.0 0.00021233
8650.0 0.00021349
8670.0 0.00021573
8690.0 0.00021084
8710.0 0.00020692
8730.0 0.00019783
8750.0 0.00019297
8770.0 0.00019138
8790.0 0.00020258
8810.0 0.00018856
8830.0 0.00018487
8850.0 0.00019652
8870.0 0.00018593
8890.0 0.00017038
8910.0 0.00016842
8930.0 0.00017296
8950.0 0.00015795
8970.0 0.00015109
8990.0 0.00014748
9010.0 0.00013814
9030.0 0.00013597
9050.0 0.00013536
9070.0 0.00013482
9090.0 0.00013428
9110.0 0.00013373
9130.0 0.00013317
9150.0 0.00013261
9170.0 0.00013205
9190.0 0.00013148
9210.0 0.00013091
9230.0 0.00013033
9250.0 0.00012974
9270.0 0.00012916
9290.0 0.00012857
9310.0 0.00012807
9330.0 0.00012771
9350.0 0.00012734
9370.0 0.00012697
9390.0 0.00012659
9410.0 0.00012621
9430.0 0.00012583
9450.0 0.00012544
9470.0 0.0001251
9490.0 0.00012473
9510.0 0.00012429
9530.0 0.00012385
9550.0 0.00012343
9570.0 0.000123
9590.0 0.00012258
9610.0 0.0001223
9630.0 0.00012203
9650.0 0.00012176
9670.0 0.00012147
9690.0 0.00012119
9710.0 0.0001209
9730.0 0.0001206
9750.0 0.00012029
9770.0 0.00012
9790.0 0.00011968
9810.0 0.00011936
9830.0 0.00011904
9850.0 0.00011865
9870.0 0.00011819
9890.0 0.00011794
9910.0 0.00011766
9930.0 0.0001173
9950.0 0.00011696
9970.0 0.00011665
9990.0 0.00011632
10010.0 0.00011598
10030.0 0.00011563
10050.0 0.00011528
10070.0 0.00011492
10090.0 0.00011456
10110.0 0.0001142
10130.0 0.00011383
10150.0 0.00011346
10170.0 0.0001131
10190.0 0.00011273
10210.0 0.00011236
10230.0 0.00011198
10250.0 0.00011161
10270.0 0.00011124
10290.0 0.00011087
10310.0 0.00011049
10330.0 0.00011012
10350.0 0.00010974
10370.0 0.00010937
10390.0 0.00010899
10410.0 0.00010853
10430.0 0.00010804
10450.0 0.00010776
10470.0 0.00010743
10490.0 0.00010709
10510.0 0.00010673
10530.0 0.00010637
10550.0 0.000106
10570.0 0.00010564
10590.0 0.00010527
10610.0 0.00010489
10630.0 0.00010453
10650.0 0.00010417
10670.0 0.0001038
10690.0 0.00010344
10710.0 0.00010308
10730.0 0.00010272
10750.0 0.00010236
10770.0 0.00010201
10790.0 0.00010166
10810.0 0.0001013
10830.0 0.00010095
10850.0 0.00010061
10870.0 0.00010025
10890.0 9.9894e-05
10910.0 9.954e-05
10930.0 9.9173e-05
10950.0 9.878e-05
10970.0 9.8366e-05
10990.0 9.7934e-05
11010.0 9.2746e-05
11030.0 9.2221e-05
11050.0 9.1586e-05
11070.0 9.0853e-05
11090.0 9.0017e-05
11110.0 8.9143e-05
11130.0 8.8236e-05
11150.0 8.7285e-05
11170.0 8.6312e-05
11190.0 8.535e-05
11210.0 8.4365e-05
11230.0 8.3361e-05
11250.0 8.2373e-05
11270.0 8.1399e-05
11290.0 8.0411e-05
11310.0 7.9438e-05
11330.0 7.8515e-05
11350.0 7.7601e-05
11370.0 7.6704e-05
11390.0 7.5849e-05
11410.0 7.5027e-05
11430.0 7.421e-05
11450.0 7.3426e-05
11470.0 7.2674e-05
11490.0 7.1933e-05
11510.0 7.1196e-05
11530.0 7.0483e-05
11550.0 6.9779e-05
11570.0 6.9067e-05
11590.0 6.8358e-05
11610.0 6.7658e-05
11630.0 6.6943e-05
11650.0 6.6214e-05
11670.0 6.5493e-05
11690.0 6.4766e-05
11710.0 6.402e-05
11730.0 6.3271e-05
11750.0 6.253e-05
11770.0 6.1769e-05
11790.0 6.1e-05
11810.0 6.0242e-05
11830.0 5.9486e-05
11850.0 5.8713e-05
11870.0 5.7959e-05
11890.0 5.7229e-05
11910.0 5.6502e-05
11930.0 5.5788e-05
11950.0 5.5111e-05
11970.0 5.4455e-05
11990.0 5.3813e-05
12010.0 5.3211e-05
12030.0 5.2646e-05
12050.0 5.2106e-05
12070.0 5.1598e-05
12090.0 5.1136e-05
12110.0 5.0703e-05
12130.0 5.0301e-05
12150.0 4.9932e-05
12170.0 4.9592e-05
12190.0 4.9276e-05
12210.0 4.8982e-05
12230.0 4.8706e-05
12250.0 4.8442e-05
12270.0 4.8187e-05
12290.0 4.7934e-05
12310.0 4.768e-05
12330.0 4.742e-05
12350.0 4.715e-05
12370.0 4.6868e-05
12390.0 4.657e-05
12410.0 4.625e-05
12430.0 4.5914e-05
12450.0 4.5558e-05
12470.0 4.5176e-05
12490.0 4.4771e-05
12510.0 4.4353e-05
12530.0 4.3909e-05
12550.0 4.3438e-05
12570.0 4.2955e-05
12590.0 4.2458e-05
12610.0 4.1932e-05
12630.0 4.1391e-05
12650.0 4.0858e-05
12670.0 4.0305e-05
12690.0 3.9738e-05
12710.0 3.9179e-05
12730.0 3.8623e-05
12750.0 3.8046e-05
12770.0 3.7482e-05
12790.0 3.6937e-05
12810.0 3.639e-05
12830.0 3.5845e-05
12850.0 3.5331e-05
12870.0 3.4834e-05
12890.0 3.4341e-05
12910.0 3.3874e-05
12930.0 3.344e-05
12950.0 3.3019e-05
12970.0 3.2621e-05
12990.0 3.2267e-05
13010.0 3.1944e-05
13030.0 3.1647e-05
13050.0 3.1389e-05
13070.0 3.1169e-05
13090.0 3.0978e-05
13110.0 3.0819e-05
13130.0 3.0691e-05
13150.0 3.059e-05
13170.0 3.0512e-05
13190.0 3.0454e-05
13210.0 3.0412e-05
13230.0 3.0383e-05
13250.0 3.0363e-05
13270.0 3.0349e-05
13290.0 3.0338e-05
13310.0 3.0329e-05
13330.0 3.0317e-05
13350.0 3.0301e-05
13370.0 3.0278e-05
13390.0 3.0245e-05
13410.0 3.0201e-05
13430.0 3.0144e-05
13450.0 3.007e-05
13470.0 2.9982e-05
13490.0 2.9882e-05
13510.0 2.9759e-05
13530.0 2.9622e-05
13550.0 2.9478e-05
13570.0 2.9321e-05
13590.0 2.9148e-05
13610.0 2.8973e-05
13630.0 2.8796e-05
13650.0 2.8605e-05
13670.0 2.8409e-05
13690.0 2.8216e-05
13710.0 2.8013e-05
13730.0 2.7793e-05
13750.0 2.758e-05
13770.0 2.7363e-05
13790.0 2.7131e-05
13810.0 2.6894e-05
13830.0 2.6664e-05
13850.0 2.6419e-05
13870.0 2.6165e-05
13890.0 2.5919e-05
13910.0 2.5676e-05
13930.0 2.5422e-05
13950.0 2.5172e-05
13970.0 2.4944e-05
13990.0 2.4714e-05
14010.0 2.4488e-05
14030.0 2.4282e-05
14050.0 2.4089e-05
14070.0 2.3894e-05
14090.0 2.3719e-05
14110.0 2.3563e-05
14130.0 2.3413e-05
14150.0 2.3272e-05
14170.0 2.3151e-05
14190.0 2.304e-05
14210.0 2.2931e-05
14230.0 2.2834e-05
14250.0 2.2749e-05
14270.0 2.2663e-05
14290.0 2.2581e-05
14310.0 2.2512e-05
14330.0 2.2447e-05
14350.0 2.2384e-05
14370.0 2.2328e-05
14390.0 2.2283e-05
14410.0 2.2237e-05
14430.0 2.2197e-05
14450.0 2.2167e-05
14470.0 2.2142e-05
14490.0 2.2116e-05
14510.0 2.2099e-05
14530.0 2.2088e-05
14550.0 2.2076e-05
14570.0 2.2066e-05
14590.0 2.206e-05
14610.0 2.2053e-05
14630.0 2.2042e-05
14650.0 2.2033e-05
14670.0 2.2026e-05
14690.0 2.2013e-05
14710.0 2.1997e-05
14730.0 2.1985e-05
14750.0 2.1969e-05
14770.0 2.1946e-05
14790.0 2.1923e-05
14810.0 2.19e-05
14830.0 2.1865e-05
14850.0 2.1827e-05
14870.0 2.1791e-05
14890.0 2.1749e-05
14910.0 2.1702e-05
14930.0 2.1659e-05
14950.0 2.1623e-05
14970.0 2.1587e-05
14990.0 2.1561e-05
15010.0 2.1548e-05
15030.0 2.1544e-05
15050.0 2.1546e-05
15070.0 2.1561e-05
15090.0 2.1582e-05
15110.0 2.1604e-05
15130.0 2.1628e-05
15150.0 2.1655e-05
15170.0 2.168e-05
15190.0 2.1703e-05
15210.0 2.1727e-05
15230.0 2.175e-05
15250.0 2.177e-05
15270.0 2.1789e-05
15290.0 2.181e-05
15310.0 2.1828e-05
15330.0 2.1843e-05
15350.0 2.186e-05
15370.0 2.1875e-05
15390.0 2.1885e-05
15410.0 2.1897e-05
15430.0 2.1908e-05
15450.0 2.1916e-05
15470.0 2.1921e-05
15490.0 2.1928e-05
15510.0 2.1933e-05
15530.0 2.1935e-05
15550.0 2.1936e-05
15570.0 2.1938e-05
15590.0 2.1935e-05
15610.0 2.193e-05
15630.0 2.1926e-05
15650.0 2.192e-05
15670.0 2.1911e-05
15690.0 2.1902e-05
15710.0 2.1892e-05
15730.0 2.1879e-05
15750.0 2.1864e-05
15770.0 2.1849e-05
15790.0 2.1832e-05
15810.0 2.1811e-05
15830.0 2.179e-05
15850.0 2.1769e-05
15870.0 2.1745e-05
15890.0 2.1719e-05
15910.0 2.1694e-05
15930.0 2.1665e-05
15950.0 2.1634e-05
15970.0 2.1602e-05
15990.0 2.157e-05
16010.0 2.1534e-05
16030.0 2.1497e-05
16050.0 2.1461e-05
16070.0 2.1422e-05
16090.0 2.138e-05
16110.0 2.1338e-05
16130.0 2.1296e-05
16150.0 2.1249e-05
16170.0 2.1201e-05
16190.0 2.1154e-05
16210.0 2.1105e-05
16230.0 2.1052e-05
16250.0 2.1001e-05
16270.0 2.0949e-05
16290.0 2.0893e-05
16310.0 2.0836e-05
16330.0 2.078e-05
16350.0 2.0721e-05
16370.0 2.0658e-05
16390.0 2.0598e-05
16410.0 2.0536e-05
16430.0 2.0471e-05
16450.0 2.0406e-05
16470.0 2.0342e-05
16490.0 2.0274e-05
16510.0 2.0204e-05
16530.0 2.0136e-05
16550.0 2.0066e-05
16570.0 1.9993e-05
16590.0 1.9919e-05
16610.0 1.9848e-05
16630.0 1.9773e-05
16650.0 1.9697e-05
16670.0 1.9621e-05
16690.0 1.9545e-05
16710.0 1.9465e-05
16730.0 1.9386e-05
16750.0 1.9307e-05
16770.0 1.9226e-05
16790.0 1.9143e-05
16810.0 1.9062e-05
16830.0 1.898e-05
16850.0 1.8895e-05
16870.0 1.8811e-05
16890.0 1.8728e-05
16910.0 1.8641e-05
16930.0 1.8553e-05
16950.0 1.8468e-05
16970.0 1.8381e-05
16990.0 1.8292e-05
17010.0 1.8203e-05
17030.0 1.8116e-05
17050.0 1.8026e-05
17070.0 1.7935e-05
17090.0 1.7846e-05
17110.0 1.7756e-05
17130.0 1.7662e-05
17150.0 1.7571e-05
17170.0 1.7481e-05
17190.0 1.7388e-05
17210.0 1.7295e-05
17230.0 1.7204e-05
17250.0 1.7111e-05
17270.0 1.7016e-05
17290.0 1.6923e-05
17310.0 1.683e-05
17330.0 1.6735e-05
17350.0 1.664e-05
17370.0 1.6548e-05
17390.0 1.6454e-05
17410.0 1.6358e-05
17430.0 1.6264e-05
17450.0 1.6171e-05
17470.0 1.6074e-05
17490.0 1.5979e-05
17510.0 1.5885e-05
17530.0 1.5791e-05
17550.0 1.5695e-05
17570.0 1.5601e-05
17590.0 1.5507e-05
17610.0 1.5411e-05
17630.0 1.5316e-05
17650.0 1.5223e-05
17670.0 1.5129e-05
17690.0 1.5032e-05
17710.0 1.4939e-05
17730.0 1.4846e-05
17750.0 1.4751e-05
17770.0 1.4657e-05
17790.0 1.4565e-05
17810.0 1.4471e-05
17830.0 1.4376e-05
17850.0 1.4284e-05
17870.0 1.4192e-05
17890.0 1.4098e-05
17910.0 1.4005e-05
17930.0 1.3915e-05
17950.0 1.3822e-05
17970.0 1.373e-05
17990.0 1.364e-05
18010.0 1.355e-05
18030.0 1.3457e-05
18050.0 1.3366e-05
18070.0 1.3277e-05
18090.0 1.3187e-05
18110.0 1.3096e-05
18130.0 1.3009e-05
18150.0 1.292e-05
18170.0 1.2831e-05
18190.0 1.2743e-05
18210.0 1.2656e-05
18230.0 1.2568e-05
18250.0 1.248e-05
18270.0 1.2394e-05
18290.0 1.2309e-05
18310.0 1.2222e-05
18330.0 1.2137e-05
18350.0 1.2053e-05
18370.0 1.1968e-05
18390.0 1.1883e-05
18410.0 1.18e-05
18430.0 1.1717e-05
18450.0 1.1632e-05
18470.0 1.155e-05
18490.0 1.1469e-05
18510.0 1.1387e-05
18530.0 1.1305e-05
18550.0 1.1226e-05
18570.0 1.1146e-05
18590.0 1.1065e-05
18610.0 1.0986e-05
18630.0 1.0908e-05
18650.0 1.0828e-05
18670.0 1.0749e-05
18690.0 1.0673e-05
18710.0 1.0596e-05
18730.0 1.0519e-05
18750.0 1.0444e-05
18770.0 1.0369e-05
18790.0 1.0292e-05
18810.0 1.0217e-05
18830.0 1.0144e-05
18850.0 1.007e-05
18870.0 9.9956e-06
18890.0 9.9236e-06
18910.0 9.8522e-06
18930.0 9.7792e-06
18950.0 9.7076e-06
18970.0 9.6377e-06
18990.0 9.567e-06
19010.0 9.495e-06
19030.0 9.4266e-06
19050.0 9.3581e-06
19070.0 9.2887e-06
19090.0 9.2205e-06
19110.0 9.1543e-06
19130.0 9.0862e-06
19150.0 9.0185e-06
19170.0 8.9528e-06
19190.0 8.8873e-06
19210.0 8.8206e-06
19230.0 8.7553e-06
19250.0 8.6921e-06
19270.0 8.6276e-06
19290.0 8.5633e-06
19310.0 8.5009e-06
19330.0 8.4386e-06
19350.0 8.3745e-06
19370.0 8.3126e-06
19390.0 8.2519e-06
19410.0 8.1902e-06
19430.0 8.1285e-06
19450.0 8.0693e-06
19470.0 8.0098e-06
19490.0 7.9492e-06
19510.0 7.8902e-06
19530.0 7.8325e-06
19550.0 7.7731e-06
19570.0 7.7139e-06
19590.0 7.6573e-06
19610.0 7.6003e-06
19630.0 7.5424e-06
19650.0 7.4862e-06
19670.0 7.4311e-06
19690.0 7.3743e-06
19710.0 7.3182e-06
19730.0 7.2638e-06
19750.0 7.209e-06
19770.0 7.1529e-06
19790.0 7.0991e-06
19810.0 7.0461e-06
19830.0 6.9919e-06
19850.0 6.9383e-06
19870.0 6.8867e-06
19890.0 6.8343e-06
19910.0 6.7818e-06
19930.0 6.7322e-06
19950.0 6.6847e-06
19970.0 6.6384e-06
19990.0 6.5956e-06
20010.0 6.5579e-06
20030.0 6.5233e-06
20050.0 6.4924e-06
20070.0 6.466e-06
20090.0 6.4432e-06
20110.0 6.4228e-06
20130.0 6.4054e-06
20150.0 6.3904e-06
20170.0 6.377e-06
20190.0 6.365e-06
20210.0 6.3544e-06
20230.0 6.3447e-06
20250.0 6.3358e-06
20270.0 6.3273e-06
20290.0 6.3191e-06
20310.0 6.3109e-06
20330.0 6.3026e-06
20350.0 6.2938e-06
20370.0 6.2846e-06
20390.0 6.2748e-06
20410.0 6.2644e-06
20430.0 6.2534e-06
20450.0 6.2416e-06
20470.0 6.2292e-06
20490.0 6.2165e-06
20510.0 6.2034e-06
20530.0 6.1899e-06
20550.0 6.1764e-06
20570.0 6.1631e-06
20590.0 6.1497e-06
20610.0 6.1364e-06
20630.0 6.1235e-06
20650.0 6.1107e-06
20670.0 6.0979e-06
20690.0 6.0853e-06
20710.0 6.0726e-06
20730.0 6.0595e-06
20750.0 6.046e-06
20770.0 6.0319e-06
20790.0 6.017e-06
20810.0 6.0009e-06
20830.0 5.9837e-06
20850.0 5.9653e-06
20870.0 5.945e-06
20890.0 5.923e-06
20910.0 5.8999e-06
20930.0 5.875e-06
20950.0 5.8482e-06
20970.0 5.8203e-06
20990.0 5.7913e-06
21010.0 5.7602e-06
21030.0 5.7282e-06
21050.0 5.6959e-06
21070.0 5.6623e-06
21090.0 5.6274e-06
21110.0 5.5928e-06
21130.0 5.5579e-06
21150.0 5.5218e-06
21170.0 5.4854e-06
21190.0 5.4492e-06
21210.0 5.4117e-06
21230.0 5.3731e-06
21250.0 5.3345e-06
21270.0 5.2951e-06
21290.0 5.254e-06
21310.0 5.2119e-06
21330.0 5.1695e-06
21350.0 5.125e-06
21370.0 5.0787e-06
21390.0 5.0288e-06
21410.0 4.9774e-06
21430.0 4.9228e-06
21450.0 4.8674e-06
21470.0 4.8112e-06
21490.0 4.7526e-06
21510.0 4.6921e-06
21530.0 4.6313e-06
21550.0 4.5689e-06
21570.0 4.5039e-06
21590.0 4.4382e-06
21610.0 4.3721e-06
21630.0 4.3038e-06
21650.0 4.2332e-06
21670.0 4.1637e-06
21690.0 4.0924e-06
21710.0 4.019e-06
21730.0 3.9452e-06
21750.0 3.8713e-06
21770.0 3.7942e-06
21790.0 3.7161e-06
21810.0 3.6382e-06
21830.0 3.5587e-06
21850.0 3.4768e-06
21870.0 3.3948e-06
21890.0 3.3127e-06
21910.0 3.2282e-06
21930.0 3.1427e-06
21950.0 3.0575e-06
21970.0 2.9709e-06
21990.0 2.882e-06
22010.0 2.7942e-06
22030.0 2.7063e-06
22050.0 2.617e-06
22070.0 2.5551e-06
22090.0 2.544e-06
22110.0 2.5328e-06
22130.0 2.5217e-06
22150.0 2.5108e-06
22170.0 2.5001e-06
22190.0 2.4894e-06
22210.0 2.4788e-06
22230.0 2.4686e-06
22250.0 2.4584e-06
22270.0 2.4482e-06
22290.0 2.4382e-06
22310.0 2.4283e-06
22330.0 2.4184e-06
22350.0 2.4085e-06
22370.0 2.3987e-06
22390.0 2.3888e-06
22410.0 2.3788e-06
22430.0 2.3689e-06
22450.0 2.3589e-06
22470.0 2.3487e-06
22490.0 2.3385e-06
22510.0 2.3282e-06
22530.0 2.3177e-06
22550.0 2.3071e-06
22570.0 2.2964e-06
22590.0 2.2856e-06
22610.0 2.2746e-06
22630.0 2.2635e-06
22650.0 2.2523e-06
22670.0 2.241e-06
