#lamb flux
1010.0 1.2366e-07
1030.0 1.3074e-07
1050.0 1.3894e-07
1070.0 1.4818e-07
1090.0 1.5868e-07
1110.0 1.6949e-07
1130.0 1.8041e-07
1150.0 1.9188e-07
1170.0 2.0377e-07
1190.0 2.151e-07
1210.0 2.2665e-07
1230.0 2.3863e-07
1250.0 2.5045e-07
1270.0 2.6202e-07
1290.0 2.7429e-07
1310.0 2.8663e-07
1330.0 2.9858e-07
1350.0 3.1075e-07
1370.0 3.2338e-07
1390.0 3.3582e-07
1410.0 3.4801e-07
1430.0 3.6083e-07
1450.0 3.7374e-07
1470.0 3.8636e-07
1490.0 3.9921e-07
1510.0 4.1281e-07
1530.0 4.2585e-07
1550.0 4.3882e-07
1570.0 4.5226e-07
1590.0 4.6576e-07
1610.0 4.7878e-07
1630.0 4.9218e-07
1650.0 5.059e-07
1670.0 5.1921e-07
1690.0 5.3233e-07
1710.0 5.4586e-07
1730.0 5.5937e-07
1750.0 5.7202e-07
1770.0 5.8488e-07
1790.0 5.9782e-07
1810.0 6.1017e-07
1830.0 6.221e-07
1850.0 6.3451e-07
1870.0 6.4632e-07
1890.0 6.5744e-07
1910.0 6.6848e-07
1930.0 6.7949e-07
1950.0 6.896e-07
1970.0 6.9923e-07
1990.0 7.0895e-07
2010.0 7.1813e-07
2030.0 7.2655e-07
2050.0 7.3499e-07
2070.0 7.4342e-07
2090.0 7.5087e-07
2110.0 7.5804e-07
2130.0 7.6532e-07
2150.0 7.722e-07
2170.0 7.7844e-07
2190.0 7.8498e-07
2210.0 7.9154e-07
2230.0 7.9765e-07
2250.0 8.0376e-07
2270.0 8.1044e-07
2290.0 8.1694e-07
2310.0 8.2322e-07
2330.0 8.3009e-07
2350.0 8.3736e-07
2370.0 8.4458e-07
2390.0 8.5233e-07
2410.0 8.6103e-07
2430.0 8.6994e-07
2450.0 8.7922e-07
2470.0 8.8951e-07
2490.0 9.0106e-07
2510.0 9.1397e-07
2530.0 9.3107e-07
2550.0 9.5705e-07
2570.0 9.9725e-07
2590.0 1.0583e-06
2610.0 1.1563e-06
2630.0 1.2973e-06
2650.0 1.4763e-06
2670.0 1.6969e-06
2690.0 1.9538e-06
2710.0 2.2164e-06
2730.0 2.4687e-06
2750.0 2.7152e-06
2770.0 2.9365e-06
2790.0 3.1287e-06
2810.0 3.3061e-06
2830.0 3.4803e-06
2850.0 3.6435e-06
2870.0 3.8084e-06
2890.0 3.9837e-06
2910.0 4.1665e-06
2930.0 4.3518e-06
2950.0 4.5503e-06
2970.0 4.7606e-06
2990.0 4.9742e-06
3010.0 1.3916e-05
3030.0 1.4534e-05
3050.0 1.515e-05
3070.0 1.5711e-05
3090.0 1.6191e-05
3110.0 1.6462e-05
3130.0 1.6375e-05
3150.0 1.5764e-05
3170.0 1.4295e-05
3190.0 1.1935e-05
3210.0 8.7203e-06
3230.0 5.1025e-06
3250.0 8.98e-06
3270.0 4.7577e-06
3290.0 1.3756e-05
3310.0 4.036e-06
3330.0 3.9573e-06
3350.0 5.1576e-06
3370.0 6.5761e-06
3390.0 8.1136e-06
3410.0 9.6504e-06
3430.0 1.1267e-05
3450.0 1.2891e-05
3470.0 1.4382e-05
3490.0 1.5391e-05
3510.0 1.8955e-05
3530.0 2.5361e-05
3550.0 2.4634e-05
3570.0 1.9817e-05
3590.0 2.7904e-05
3610.0 1.6886e-05
3630.0 2.923e-05
3650.0 3.432e-05
3670.0 4.4515e-05
3690.0 4.1224e-05
3710.0 2.6746e-05
3730.0 3.5745e-05
3750.0 3.6789e-05
3770.0 3.9095e-05
3790.0 3.6881e-05
3810.0 3.6294e-05
3830.0 5.7342e-05
3850.0 6.8894e-05
3870.0 8.5664e-05
3890.0 8.1862e-05
3910.0 7.218e-05
3930.0 7.384e-05
3950.0 8.0806e-05
3970.0 9.4373e-05
3990.0 6.3371e-05
4010.0 3.4296e-05
4030.0 5.8677e-05
4050.0 7.4921e-05
4070.0 8.2811e-05
4090.0 6.169e-05
4110.0 3.8278e-05
4130.0 6.0412e-05
4150.0 5.9515e-05
4170.0 5.7875e-05
4190.0 5.4145e-05
4210.0 7.4707e-05
4230.0 5.2313e-05
4250.0 5.9051e-05
4270.0 5.8745e-05
4290.0 5.6838e-05
4310.0 7.2839e-05
4330.0 7.7121e-05
4350.0 6.0878e-05
4370.0 5.0668e-05
4390.0 6.3866e-05
4410.0 6.6423e-05
4430.0 4.9109e-05
4450.0 4.6527e-05
4470.0 5.7092e-05
4490.0 4.1898e-05
4510.0 5.6769e-05
4530.0 5.951e-05
4550.0 7.4205e-05
4570.0 0.00010732
4590.0 0.00010291
4610.0 7.2101e-05
4630.0 0.00012111
4650.0 0.00017001
4670.0 0.0001593
4690.0 0.00010171
4710.0 0.00011058
4730.0 0.00013549
4750.0 0.00011539
4770.0 8.7039e-05
4790.0 5.7235e-05
4810.0 8.2463e-05
4830.0 9.6988e-05
4850.0 8.3387e-05
4870.0 2.6698e-05
4890.0 9.2588e-05
4910.0 0.00012789
4930.0 0.00013839
4950.0 0.00013816
4970.0 8.6892e-05
4990.0 0.00010211
5010.0 0.00012278
5030.0 0.00013645
5050.0 0.00013205
5070.0 9.3283e-05
5090.0 7.5247e-05
5110.0 7.1659e-05
5130.0 6.6089e-05
5150.0 7.1359e-05
5170.0 6.2434e-05
5190.0 7.6766e-05
5210.0 7.7485e-05
5230.0 8.5782e-05
5250.0 0.00010492
5270.0 8.5057e-05
5290.0 8.5723e-05
5310.0 0.00013028
5330.0 0.00015139
5350.0 0.00012455
5370.0 0.00010889
5390.0 0.00012809
5410.0 0.00015948
5430.0 0.00017337
5450.0 0.00018308
5470.0 0.00018151
5490.0 0.0001806
5510.0 0.00021578
5530.0 0.00022432
5550.0 0.00024024
5570.0 0.00025573
5590.0 0.00025282
5610.0 0.00023675
5630.0 0.00022958
5650.0 0.0002369
5670.0 0.00023262
5690.0 0.00019713
5710.0 0.00019445
5730.0 0.00019821
5750.0 0.00021283
5770.0 0.00018258
5790.0 0.00017013
5810.0 0.00017299
5830.0 0.0001855
5850.0 0.00017065
5870.0 0.00017273
5890.0 0.00020688
5910.0 0.00019424
5930.0 0.00015729
5950.0 0.00013849
5970.0 0.00015214
5990.0 0.00013957
6010.0 0.00013012
6030.0 0.000131
6050.0 0.00012061
6070.0 8.9968e-05
6090.0 8.2835e-05
6110.0 0.00010961
6130.0 0.00012586
6150.0 0.00013078
6170.0 0.00012559
6190.0 0.00011688
6210.0 0.00011836
6230.0 0.00014402
6250.0 0.00013304
6270.0 0.00012067
6290.0 0.00011095
6310.0 0.00010278
6330.0 9.6495e-05
6350.0 8.4824e-05
6370.0 8.4887e-05
6390.0 9.9928e-05
6410.0 0.00012485
6430.0 0.00014574
6450.0 0.00014058
6470.0 0.0001388
6490.0 0.00017345
6510.0 0.00020137
6530.0 0.00019035
6550.0 0.00018054
6570.0 0.00018332
6590.0 0.0001795
6610.0 0.00019319
6630.0 0.0001799
6650.0 0.00015548
6670.0 0.00014156
6690.0 0.00014036
6710.0 0.00017233
6730.0 0.0001546
6750.0 0.00012686
6770.0 0.00011249
6790.0 0.00011921
6810.0 0.00013691
6830.0 0.00013539
6850.0 0.00012108
6870.0 0.00012638
6890.0 0.0001256
6910.0 0.00011807
6930.0 0.00013407
6950.0 0.00012339
6970.0 0.00011367
6990.0 0.00011268
7010.0 0.00011129
7030.0 0.00010723
7050.0 0.00010388
7070.0 0.00011424
7090.0 0.00010772
7110.0 9.1296e-05
7130.0 7.5542e-05
7150.0 7.199e-05
7170.0 9.4705e-05
7190.0 0.00010188
7210.0 9.6356e-05
7230.0 0.00010031
7250.0 9.4642e-05
7270.0 9.0753e-05
7290.0 0.00010022
7310.0 0.00011238
7330.0 0.00011031
7350.0 0.00010245
7370.0 9.513e-05
7390.0 9.6571e-05
7410.0 0.00011217
7430.0 0.00012496
7450.0 0.00013218
7470.0 0.00013124
7490.0 0.00014275
7510.0 0.00014018
7530.0 0.00013153
7550.0 0.00012768
7570.0 0.00011135
7590.0 0.00010813
7610.0 0.00010432
7630.0 9.4977e-05
7650.0 0.00010226
7670.0 0.00011243
7690.0 0.00012216
7710.0 0.00013891
7730.0 0.00014644
7750.0 0.00015239
7770.0 0.00015628
7790.0 0.00017094
7810.0 0.00017364
7830.0 0.0001559
7850.0 0.00015681
7870.0 0.00015029
7890.0 0.00015623
7910.0 0.0001476
7930.0 0.00014785
7950.0 0.00012529
7970.0 0.00012691
7990.0 0.00012178
8010.0 0.00012911
8030.0 0.00012842
8050.0 0.00013618
8070.0 0.0001304
8090.0 0.00013089
8110.0 0.00012865
8130.0 0.00012789
8150.0 0.00012066
8170.0 0.00011796
8190.0 0.00011719
8210.0 0.00011821
8230.0 0.00010318
8250.0 9.4134e-05
8270.0 8.3109e-05
8290.0 7.0476e-05
8310.0 6.2193e-05
8330.0 4.9635e-05
8350.0 4.0581e-05
8370.0 3.9745e-05
8390.0 3.8591e-05
8410.0 4.0147e-05
8430.0 5.1235e-05
8450.0 5.5511e-05
8470.0 5.9473e-05
8490.0 6.9513e-05
8510.0 7.5592e-05
8530.0 8.6268e-05
8550.0 0.00010198
8570.0 0.00011201
8590.0 0.00011794
8610.0 0.00013018
8630.0 0.00014699
8650.0 0.00015026
8670.0 0.00015299
8690.0 0.00015911
8710.0 0.00015613
8730.0 0.0001518
8750.0 0.00014039
8770.0 0.00014048
8790.0 0.0001386
8810.0 0.00012738
8830.0 0.00012788
8850.0 0.00011799
8870.0 0.0001128
8890.0 0.00010115
8910.0 0.00011185
8930.0 0.00010107
8950.0 0.00010078
8970.0 0.00010247
8990.0 9.9218e-05
9010.0 0.0001019
9030.0 9.6875e-05
9050.0 9.6381e-05
9070.0 9.6388e-05
9090.0 9.6374e-05
9110.0 9.6418e-05
9130.0 9.6372e-05
9150.0 9.628e-05
9170.0 9.5922e-05
9190.0 9.5165e-05
9210.0 9.6626e-05
9230.0 9.616e-05
9250.0 9.5872e-05
9270.0 9.5618e-05
9290.0 9.5384e-05
9310.0 9.5163e-05
9330.0 9.4944e-05
9350.0 9.4722e-05
9370.0 9.4495e-05
9390.0 9.4259e-05
9410.0 9.4014e-05
9430.0 9.3763e-05
9450.0 9.35e-05
9470.0 9.3231e-05
9490.0 9.2957e-05
9510.0 9.2675e-05
9530.0 9.2386e-05
9550.0 9.2095e-05
9570.0 9.1799e-05
9590.0 9.1498e-05
9610.0 9.1194e-05
9630.0 9.0889e-05
9650.0 9.0582e-05
9670.0 9.0269e-05
9690.0 8.9959e-05
9710.0 8.9649e-05
9730.0 8.9336e-05
9750.0 8.9024e-05
9770.0 8.8719e-05
9790.0 8.841e-05
9810.0 8.8101e-05
9830.0 8.7799e-05
9850.0 8.7499e-05
9870.0 8.7197e-05
9890.0 8.6901e-05
9910.0 8.6612e-05
9930.0 8.6322e-05
9950.0 8.5881e-05
9970.0 8.5651e-05
9990.0 8.5419e-05
10010.0 8.5179e-05
10030.0 8.4933e-05
10050.0 8.4659e-05
10070.0 8.4241e-05
10090.0 8.4057e-05
10110.0 8.387e-05
10130.0 8.3672e-05
10150.0 8.3472e-05
10170.0 8.3265e-05
10190.0 8.3052e-05
10210.0 8.285e-05
10230.0 8.2655e-05
10250.0 8.2458e-05
10270.0 8.227e-05
10290.0 8.2095e-05
10310.0 8.192e-05
10330.0 8.1747e-05
10350.0 8.159e-05
10370.0 8.1439e-05
10390.0 8.129e-05
10410.0 8.115e-05
10430.0 8.1023e-05
10450.0 8.0897e-05
10470.0 8.0776e-05
10490.0 8.0667e-05
10510.0 8.0565e-05
10530.0 8.0462e-05
10550.0 8.0369e-05
10570.0 8.0289e-05
10590.0 8.021e-05
10610.0 8.0136e-05
10630.0 8.0074e-05
10650.0 8.0017e-05
10670.0 7.9961e-05
10690.0 7.9914e-05
10710.0 7.9877e-05
10730.0 7.9842e-05
10750.0 7.9809e-05
10770.0 7.979e-05
10790.0 7.9774e-05
10810.0 7.976e-05
10830.0 7.9751e-05
10850.0 7.9744e-05
10870.0 7.9721e-05
10890.0 7.9671e-05
10910.0 7.9577e-05
10930.0 7.9397e-05
10950.0 7.9067e-05
10970.0 7.8556e-05
10990.0 7.7849e-05
11010.0 7.876e-05
11030.0 7.7457e-05
11050.0 7.5922e-05
11070.0 7.4142e-05
11090.0 7.2076e-05
11110.0 7.0012e-05
11130.0 6.7944e-05
11150.0 6.5821e-05
11170.0 6.3751e-05
11190.0 6.1858e-05
11210.0 6.0022e-05
11230.0 5.8262e-05
11250.0 5.6692e-05
11270.0 5.5276e-05
11290.0 5.3938e-05
11310.0 5.2734e-05
11330.0 5.1712e-05
11350.0 5.076e-05
11370.0 4.9873e-05
11390.0 4.9078e-05
11410.0 4.8336e-05
11430.0 4.7573e-05
11450.0 4.683e-05
11470.0 4.61e-05
11490.0 4.533e-05
11510.0 4.4501e-05
11530.0 4.3672e-05
11550.0 4.2814e-05
11570.0 4.1882e-05
11590.0 4.0924e-05
11610.0 3.9973e-05
11630.0 3.8962e-05
11650.0 3.7908e-05
11670.0 3.6899e-05
11690.0 3.5893e-05
11710.0 3.4859e-05
11730.0 3.3857e-05
11750.0 3.292e-05
11770.0 3.1974e-05
11790.0 3.1051e-05
11810.0 3.0198e-05
11830.0 2.9385e-05
11850.0 2.8566e-05
11870.0 2.7814e-05
11890.0 2.7125e-05
11910.0 2.6445e-05
11930.0 2.5788e-05
11950.0 2.5185e-05
11970.0 2.46e-05
11990.0 2.4008e-05
12010.0 2.3453e-05
12030.0 2.2929e-05
12050.0 2.2404e-05
12070.0 2.1885e-05
12090.0 2.1424e-05
12110.0 2.0979e-05
12130.0 2.055e-05
12150.0 2.0168e-05
12170.0 1.9841e-05
12190.0 1.9542e-05
12210.0 1.9307e-05
12230.0 1.9149e-05
12250.0 1.9061e-05
12270.0 1.905e-05
12290.0 1.9128e-05
12310.0 1.9287e-05
12330.0 1.9536e-05
12350.0 1.987e-05
12370.0 2.0268e-05
12390.0 2.0734e-05
12410.0 2.1281e-05
12430.0 2.1842e-05
12450.0 2.2422e-05
12470.0 2.3028e-05
12490.0 2.3629e-05
12510.0 2.4189e-05
12530.0 2.4735e-05
12550.0 2.5254e-05
12570.0 2.5712e-05
12590.0 2.6119e-05
12610.0 2.6486e-05
12630.0 2.6797e-05
12650.0 2.7045e-05
12670.0 2.7251e-05
12690.0 2.741e-05
12710.0 2.7524e-05
12730.0 2.7599e-05
12750.0 2.7635e-05
12770.0 2.7637e-05
12790.0 2.761e-05
12810.0 2.7551e-05
12830.0 2.7456e-05
12850.0 2.734e-05
12870.0 2.7198e-05
12890.0 2.7015e-05
12910.0 2.6804e-05
12930.0 2.6573e-05
12950.0 2.6295e-05
12970.0 2.5975e-05
12990.0 2.564e-05
13010.0 2.5275e-05
13030.0 2.4865e-05
13050.0 2.4438e-05
13070.0 2.401e-05
13090.0 2.3547e-05
13110.0 2.3072e-05
13130.0 2.2617e-05
13150.0 2.2171e-05
13170.0 2.1719e-05
13190.0 2.1313e-05
13210.0 2.0957e-05
13230.0 2.0629e-05
13250.0 2.035e-05
13270.0 2.0136e-05
13290.0 1.997e-05
13310.0 1.9851e-05
13330.0 1.9787e-05
13350.0 1.9768e-05
13370.0 1.9781e-05
13390.0 1.982e-05
13410.0 1.9873e-05
13430.0 1.9927e-05
13450.0 1.9972e-05
13470.0 1.9998e-05
13490.0 1.9999e-05
13510.0 1.9964e-05
13530.0 1.9893e-05
13550.0 1.979e-05
13570.0 1.9653e-05
13590.0 1.948e-05
13610.0 1.929e-05
13630.0 1.909e-05
13650.0 1.887e-05
13670.0 1.865e-05
13690.0 1.844e-05
13710.0 1.8234e-05
13730.0 1.8029e-05
13750.0 1.785e-05
13770.0 1.7685e-05
13790.0 1.7527e-05
13810.0 1.7379e-05
13830.0 1.7245e-05
13850.0 1.711e-05
13870.0 1.6973e-05
13890.0 1.6839e-05
13910.0 1.6703e-05
13930.0 1.6557e-05
13950.0 1.6406e-05
13970.0 1.6258e-05
13990.0 1.6104e-05
14010.0 1.5947e-05
14030.0 1.5797e-05
14050.0 1.5653e-05
14070.0 1.5512e-05
14090.0 1.5385e-05
14110.0 1.5274e-05
14130.0 1.5176e-05
14150.0 1.5092e-05
14170.0 1.5027e-05
14190.0 1.4978e-05
14210.0 1.4944e-05
14230.0 1.4927e-05
14250.0 1.4924e-05
14270.0 1.4938e-05
14290.0 1.4969e-05
14310.0 1.5012e-05
14330.0 1.5068e-05
14350.0 1.514e-05
14370.0 1.5222e-05
14390.0 1.5308e-05
14410.0 1.5406e-05
14430.0 1.551e-05
14450.0 1.561e-05
14470.0 1.571e-05
14490.0 1.5814e-05
14510.0 1.591e-05
14530.0 1.5997e-05
14550.0 1.6087e-05
14570.0 1.6177e-05
14590.0 1.6262e-05
14610.0 1.6354e-05
14630.0 1.6461e-05
14650.0 1.6575e-05
14670.0 1.6702e-05
14690.0 1.6856e-05
14710.0 1.7037e-05
14730.0 1.7229e-05
14750.0 1.7452e-05
14770.0 1.7709e-05
14790.0 1.7982e-05
14810.0 1.8268e-05
14830.0 1.8596e-05
14850.0 1.8932e-05
14870.0 1.9259e-05
14890.0 1.9591e-05
14910.0 1.9921e-05
14930.0 2.0213e-05
14950.0 2.0463e-05
14970.0 2.068e-05
14990.0 2.0837e-05
15010.0 2.093e-05
15030.0 2.097e-05
15050.0 2.0963e-05
15070.0 2.0911e-05
15090.0 2.0833e-05
15110.0 2.0735e-05
15130.0 2.0626e-05
15150.0 2.0513e-05
15170.0 2.0394e-05
15190.0 2.0274e-05
15210.0 2.0155e-05
15230.0 2.0036e-05
15250.0 1.9915e-05
15270.0 1.9795e-05
15290.0 1.9677e-05
15310.0 1.9558e-05
15330.0 1.9439e-05
15350.0 1.9321e-05
15370.0 1.9204e-05
15390.0 1.9085e-05
15410.0 1.8967e-05
15430.0 1.8851e-05
15450.0 1.8734e-05
15470.0 1.8617e-05
15490.0 1.8502e-05
15510.0 1.8387e-05
15530.0 1.8271e-05
15550.0 1.8157e-05
15570.0 1.8044e-05
15590.0 1.793e-05
15610.0 1.7816e-05
15630.0 1.7705e-05
15650.0 1.7593e-05
15670.0 1.7481e-05
15690.0 1.7371e-05
15710.0 1.7262e-05
15730.0 1.7152e-05
15750.0 1.7042e-05
15770.0 1.6935e-05
15790.0 1.6828e-05
15810.0 1.6719e-05
15830.0 1.6613e-05
15850.0 1.6508e-05
15870.0 1.6403e-05
15890.0 1.6298e-05
15910.0 1.6196e-05
15930.0 1.6093e-05
15950.0 1.5989e-05
15970.0 1.5888e-05
15990.0 1.5788e-05
16010.0 1.5687e-05
16030.0 1.5586e-05
16050.0 1.5489e-05
16070.0 1.5391e-05
16090.0 1.5293e-05
16110.0 1.5196e-05
16130.0 1.5101e-05
16150.0 1.5005e-05
16170.0 1.491e-05
16190.0 1.4816e-05
16210.0 1.4723e-05
16230.0 1.463e-05
16250.0 1.4539e-05
16270.0 1.4448e-05
16290.0 1.4357e-05
16310.0 1.4267e-05
16330.0 1.4179e-05
16350.0 1.4091e-05
16370.0 1.4002e-05
16390.0 1.3916e-05
16410.0 1.383e-05
16430.0 1.3744e-05
16450.0 1.3659e-05
16470.0 1.3576e-05
16490.0 1.3493e-05
16510.0 1.3409e-05
16530.0 1.3327e-05
16550.0 1.3247e-05
16570.0 1.3165e-05
16590.0 1.3084e-05
16610.0 1.3006e-05
16630.0 1.2927e-05
16650.0 1.2849e-05
16670.0 1.2772e-05
16690.0 1.2696e-05
16710.0 1.2618e-05
16730.0 1.2542e-05
16750.0 1.2468e-05
16770.0 1.2394e-05
16790.0 1.2319e-05
16810.0 1.2247e-05
16830.0 1.2175e-05
16850.0 1.2102e-05
16870.0 1.2031e-05
16890.0 1.1961e-05
16910.0 1.189e-05
16930.0 1.182e-05
16950.0 1.1752e-05
16970.0 1.1684e-05
16990.0 1.1615e-05
17010.0 1.1548e-05
17030.0 1.1482e-05
17050.0 1.1415e-05
17070.0 1.1349e-05
17090.0 1.1285e-05
17110.0 1.122e-05
17130.0 1.1155e-05
17150.0 1.1091e-05
17170.0 1.1029e-05
17190.0 1.0966e-05
17210.0 1.0904e-05
17230.0 1.0843e-05
17250.0 1.0782e-05
17270.0 1.0721e-05
17290.0 1.0661e-05
17310.0 1.0602e-05
17330.0 1.0542e-05
17350.0 1.0482e-05
17370.0 1.0425e-05
17390.0 1.0368e-05
17410.0 1.0309e-05
17430.0 1.0253e-05
17450.0 1.0197e-05
17470.0 1.014e-05
17490.0 1.0084e-05
17510.0 1.0029e-05
17530.0 9.9747e-06
17550.0 9.9194e-06
17570.0 9.866e-06
17590.0 9.8132e-06
17610.0 9.7593e-06
17630.0 9.7062e-06
17650.0 9.6546e-06
17670.0 9.6025e-06
17690.0 9.5494e-06
17710.0 9.4988e-06
17730.0 9.4485e-06
17750.0 9.3973e-06
17770.0 9.347e-06
17790.0 9.2984e-06
17810.0 9.2484e-06
17830.0 9.1986e-06
17850.0 9.1503e-06
17870.0 9.1023e-06
17890.0 9.0533e-06
17910.0 9.0051e-06
17930.0 8.9588e-06
17950.0 8.9115e-06
17970.0 8.8642e-06
17990.0 8.8184e-06
18010.0 8.7728e-06
18030.0 8.7257e-06
18050.0 8.6802e-06
18070.0 8.6357e-06
18090.0 8.5905e-06
18110.0 8.5451e-06
18130.0 8.5016e-06
18150.0 8.458e-06
18170.0 8.4136e-06
18190.0 8.3702e-06
18210.0 8.3279e-06
18230.0 8.2843e-06
18250.0 8.2408e-06
18270.0 8.1992e-06
18290.0 8.1574e-06
18310.0 8.1149e-06
18330.0 8.0736e-06
18350.0 8.0333e-06
18370.0 7.9917e-06
18390.0 7.9505e-06
18410.0 7.9106e-06
18430.0 7.8706e-06
18450.0 7.8293e-06
18470.0 7.7899e-06
18490.0 7.7511e-06
18510.0 7.7115e-06
18530.0 7.6722e-06
18550.0 7.6343e-06
18570.0 7.5957e-06
18590.0 7.5564e-06
18610.0 7.5186e-06
18630.0 7.4813e-06
18650.0 7.443e-06
18670.0 7.405e-06
18690.0 7.3689e-06
18710.0 7.332e-06
18730.0 7.2946e-06
18750.0 7.2584e-06
18770.0 7.2229e-06
18790.0 7.1855e-06
18810.0 7.1493e-06
18830.0 7.1143e-06
18850.0 7.0788e-06
18870.0 7.0427e-06
18890.0 7.0082e-06
18910.0 6.9739e-06
18930.0 6.9385e-06
18950.0 6.9038e-06
18970.0 6.8702e-06
18990.0 6.8359e-06
19010.0 6.8006e-06
19030.0 6.7676e-06
19050.0 6.7344e-06
19070.0 6.7005e-06
19090.0 6.6672e-06
19110.0 6.6352e-06
19130.0 6.6017e-06
19150.0 6.5684e-06
19170.0 6.5363e-06
19190.0 6.5042e-06
19210.0 6.4712e-06
19230.0 6.4389e-06
19250.0 6.408e-06
19270.0 6.3761e-06
19290.0 6.344e-06
19310.0 6.3133e-06
19330.0 6.2825e-06
19350.0 6.2502e-06
19370.0 6.2193e-06
19390.0 6.1891e-06
19410.0 6.1582e-06
19430.0 6.127e-06
19450.0 6.0975e-06
19470.0 6.0676e-06
19490.0 6.0369e-06
19510.0 6.0071e-06
19530.0 5.9781e-06
19550.0 5.9477e-06
19570.0 5.9174e-06
19590.0 5.8888e-06
19610.0 5.8598e-06
19630.0 5.83e-06
19650.0 5.8013e-06
19670.0 5.7733e-06
19690.0 5.7439e-06
19710.0 5.7149e-06
19730.0 5.687e-06
19750.0 5.6587e-06
19770.0 5.6293e-06
19790.0 5.6015e-06
19810.0 5.5741e-06
19830.0 5.5456e-06
19850.0 5.5171e-06
19870.0 5.4893e-06
19890.0 5.4594e-06
19910.0 5.4262e-06
19930.0 5.3908e-06
19950.0 5.3502e-06
19970.0 5.3001e-06
19990.0 5.2402e-06
20010.0 5.1729e-06
20030.0 5.0925e-06
20050.0 5.0003e-06
20070.0 4.9033e-06
20090.0 4.8021e-06
20110.0 4.6913e-06
20130.0 4.5837e-06
20150.0 4.4814e-06
20170.0 4.3793e-06
20190.0 4.2798e-06
20210.0 4.1897e-06
20230.0 4.105e-06
20250.0 4.0233e-06
20270.0 3.9505e-06
20290.0 3.8869e-06
20310.0 3.8292e-06
20330.0 3.7784e-06
20350.0 3.7398e-06
20370.0 3.709e-06
20390.0 3.6866e-06
20410.0 3.6742e-06
20430.0 3.6711e-06
20450.0 3.6772e-06
20470.0 3.6933e-06
20490.0 3.7181e-06
20510.0 3.7516e-06
20530.0 3.7951e-06
20550.0 3.8456e-06
20570.0 3.901e-06
20590.0 3.9645e-06
20610.0 4.0333e-06
20630.0 4.1032e-06
20650.0 4.1762e-06
20670.0 4.2538e-06
20690.0 4.3277e-06
20710.0 4.3985e-06
20730.0 4.4686e-06
20750.0 4.5348e-06
20770.0 4.5933e-06
20790.0 4.6477e-06
20810.0 4.6976e-06
20830.0 4.7403e-06
20850.0 4.7768e-06
20870.0 4.8093e-06
20890.0 4.8367e-06
20910.0 4.8586e-06
20930.0 4.8774e-06
20950.0 4.8931e-06
20970.0 4.9056e-06
20990.0 4.9154e-06
21010.0 4.9231e-06
21030.0 4.928e-06
21050.0 4.9304e-06
21070.0 4.93e-06
21090.0 4.9264e-06
21110.0 4.92e-06
21130.0 4.9108e-06
21150.0 4.8981e-06
21170.0 4.8826e-06
21190.0 4.8653e-06
21210.0 4.8451e-06
21230.0 4.8225e-06
21250.0 4.7997e-06
21270.0 4.7763e-06
21290.0 4.7519e-06
21310.0 4.7281e-06
21330.0 4.7065e-06
21350.0 4.6853e-06
21370.0 4.6658e-06
21390.0 4.6492e-06
21410.0 4.6351e-06
21430.0 4.623e-06
21450.0 4.6145e-06
21470.0 4.6092e-06
21490.0 4.6067e-06
21510.0 4.6074e-06
21530.0 4.6111e-06
21550.0 4.6176e-06
21570.0 4.6274e-06
21590.0 4.6398e-06
21610.0 4.6547e-06
21630.0 4.6726e-06
21650.0 4.6939e-06
21670.0 4.7166e-06
21690.0 4.7421e-06
21710.0 4.7711e-06
21730.0 4.8022e-06
21750.0 4.8349e-06
21770.0 4.8723e-06
21790.0 4.9125e-06
21810.0 4.9539e-06
21830.0 4.9984e-06
21850.0 5.0472e-06
21870.0 5.0973e-06
21890.0 5.1481e-06
21910.0 5.2031e-06
21930.0 5.26e-06
21950.0 5.3164e-06
21970.0 5.3746e-06
21990.0 5.4362e-06
22010.0 5.495e-06
22030.0 5.5524e-06
22050.0 5.6104e-06
22070.0 5.6665e-06
22090.0 5.7176e-06
22110.0 5.7667e-06
22130.0 5.8127e-06
22150.0 5.8525e-06
22170.0 5.8864e-06
22190.0 5.9153e-06
22210.0 5.9367e-06
22230.0 5.9499e-06
22250.0 5.9556e-06
22270.0 5.9528e-06
22290.0 5.9416e-06
22310.0 5.9222e-06
22330.0 5.8926e-06
22350.0 5.8544e-06
22370.0 5.809e-06
22390.0 5.7545e-06
22410.0 5.6898e-06
22430.0 5.6212e-06
22450.0 5.5467e-06
22470.0 5.4634e-06
22490.0 5.376e-06
22510.0 5.2877e-06
22530.0 5.1924e-06
22550.0 5.0927e-06
22570.0 4.9958e-06
22590.0 4.8983e-06
22610.0 4.7976e-06
22630.0 4.6992e-06
