#lamb flux
1010.0 1.6381e-08
1030.0 1.8118e-08
1050.0 2.0115e-08
1070.0 2.2364e-08
1090.0 2.4918e-08
1110.0 2.7537e-08
1130.0 3.0173e-08
1150.0 3.2935e-08
1170.0 3.5784e-08
1190.0 3.8485e-08
1210.0 4.1222e-08
1230.0 4.4052e-08
1250.0 4.6823e-08
1270.0 4.9515e-08
1290.0 5.2359e-08
1310.0 5.5202e-08
1330.0 5.7927e-08
1350.0 6.0684e-08
1370.0 6.3529e-08
1390.0 6.6304e-08
1410.0 6.8996e-08
1430.0 7.1811e-08
1450.0 7.4626e-08
1470.0 7.7346e-08
1490.0 8.0096e-08
1510.0 8.3001e-08
1530.0 8.5753e-08
1550.0 8.8469e-08
1570.0 9.128e-08
1590.0 9.4094e-08
1610.0 9.6783e-08
1630.0 9.9557e-08
1650.0 1.024e-07
1670.0 1.0516e-07
1690.0 1.0788e-07
1710.0 1.1071e-07
1730.0 1.1356e-07
1750.0 1.1624e-07
1770.0 1.19e-07
1790.0 1.2182e-07
1810.0 1.2456e-07
1830.0 1.2725e-07
1850.0 1.301e-07
1870.0 1.3289e-07
1890.0 1.356e-07
1910.0 1.3836e-07
1930.0 1.4119e-07
1950.0 1.439e-07
1970.0 1.4658e-07
1990.0 1.4937e-07
2010.0 1.5212e-07
2030.0 1.5478e-07
2050.0 1.5753e-07
2070.0 1.6035e-07
2090.0 1.6302e-07
2110.0 1.6568e-07
2130.0 1.6843e-07
2150.0 1.7114e-07
2170.0 1.7373e-07
2190.0 1.7642e-07
2210.0 1.7914e-07
2230.0 1.8175e-07
2250.0 1.8436e-07
2270.0 1.8708e-07
2290.0 1.8972e-07
2310.0 1.9226e-07
2330.0 1.9491e-07
2350.0 1.9762e-07
2370.0 2.0032e-07
2390.0 2.0325e-07
2410.0 2.0672e-07
2430.0 2.1071e-07
2450.0 2.1548e-07
2470.0 2.2159e-07
2490.0 2.2929e-07
2510.0 2.3804e-07
2530.0 2.4858e-07
2550.0 2.6176e-07
2570.0 2.7817e-07
2590.0 2.9951e-07
2610.0 3.3147e-07
2630.0 3.7709e-07
2650.0 4.3674e-07
2670.0 5.1386e-07
2690.0 6.0863e-07
2710.0 7.098e-07
2730.0 8.0976e-07
2750.0 9.0823e-07
2770.0 9.9387e-07
2790.0 1.0619e-06
2810.0 1.1159e-06
2830.0 1.158e-06
2850.0 1.1868e-06
2870.0 1.2079e-06
2890.0 1.2247e-06
2910.0 1.238e-06
2930.0 1.2489e-06
2950.0 1.2593e-06
2970.0 1.2695e-06
2990.0 1.2791e-06
3010.0 3.6153e-05
3030.0 3.6424e-05
3050.0 3.6685e-05
3070.0 3.6908e-05
3090.0 3.7101e-05
3110.0 3.722e-05
3130.0 3.7215e-05
3150.0 3.705e-05
3170.0 3.6653e-05
3190.0 3.603e-05
3210.0 3.524e-05
3230.0 3.4335e-05
3250.0 3.3442e-05
3270.0 3.279e-05
3290.0 3.2428e-05
3310.0 3.2486e-05
3330.0 3.2957e-05
3350.0 3.3775e-05
3370.0 3.4944e-05
3390.0 3.6418e-05
3410.0 3.8021e-05
3430.0 3.9821e-05
3450.0 4.1893e-05
3470.0 4.4156e-05
3490.0 4.6554e-05
3510.0 4.9265e-05
3530.0 5.2168e-05
3550.0 5.5107e-05
3570.0 5.8172e-05
3590.0 6.1507e-05
3610.0 6.4942e-05
3630.0 6.8367e-05
3650.0 7.192e-05
3670.0 7.5164e-05
3690.0 7.7589e-05
3710.0 7.8979e-05
3730.0 7.9025e-05
3750.0 7.7926e-05
3770.0 7.7494e-05
3790.0 7.7033e-05
3810.0 7.514e-05
3830.0 7.7466e-05
3850.0 8.6615e-05
3870.0 9.1638e-05
3890.0 9.122e-05
3910.0 9.1609e-05
3930.0 9.4021e-05
3950.0 9.5505e-05
3970.0 8.7014e-05
3990.0 7.4872e-05
4010.0 0.0002244
4030.0 0.00027189
4050.0 0.00031171
4070.0 0.00027046
4090.0 0.00024495
4110.0 0.00021615
4130.0 0.00019894
4150.0 0.00021161
4170.0 0.00020845
4190.0 0.00022219
4210.0 0.00022016
4230.0 0.00023287
4250.0 0.00027549
4270.0 0.00027873
4290.0 0.00025685
4310.0 0.00026688
4330.0 0.00028388
4350.0 0.0003183
4370.0 0.00036223
4390.0 0.00033992
4410.0 0.00025114
4430.0 0.00021261
4450.0 0.00019536
4470.0 0.00014995
4490.0 0.00016181
4510.0 0.00024442
4530.0 0.00028189
4550.0 0.00028433
4570.0 0.00031995
4590.0 0.00036445
4610.0 0.00049156
4630.0 0.00063843
4650.0 0.00069237
4670.0 0.0006412
4690.0 0.00061182
4710.0 0.00064673
4730.0 0.00061033
4750.0 0.0004563
4770.0 0.00033471
4790.0 0.00031256
4810.0 0.00029792
4830.0 0.00027274
4850.0 0.00029929
4870.0 0.00039539
4890.0 0.00046627
4910.0 0.00040909
4930.0 0.00036199
4950.0 0.0003977
4970.0 0.00051003
4990.0 0.00069121
5010.0 0.00079514
5030.0 0.00070113
5050.0 0.00047436
5070.0 0.00031262
5090.0 0.00025208
5110.0 0.00025924
5130.0 0.00029921
5150.0 0.00032417
5170.0 0.00031931
5190.0 0.00029837
5210.0 0.00031186
5230.0 0.00032784
5250.0 0.00035332
5270.0 0.0003812
5290.0 0.00042245
5310.0 0.00049172
5330.0 0.00054415
5350.0 0.00054067
5370.0 0.00056792
5390.0 0.0006517
5410.0 0.00065111
5430.0 0.00057582
5450.0 0.00052904
5470.0 0.00056174
5490.0 0.00068629
5510.0 0.0008581
5530.0 0.0009842
5550.0 0.00095124
5570.0 0.00086474
5590.0 0.0007519
5610.0 0.00069342
5630.0 0.0006724
5650.0 0.00064039
5670.0 0.00060682
5690.0 0.00054249
5710.0 0.00052894
5730.0 0.00048723
5750.0 0.00034352
5770.0 0.00026801
5790.0 0.00030371
5810.0 0.00034294
5830.0 0.00042083
5850.0 0.00050095
5870.0 0.00055581
5890.0 0.00056523
5910.0 0.00055452
5930.0 0.00052784
5950.0 0.00053786
5970.0 0.0006131
5990.0 0.00057647
6010.0 0.00048325
6030.0 0.00040828
6050.0 0.00035556
6070.0 0.00035362
6090.0 0.00038344
6110.0 0.00042875
6130.0 0.00043531
6150.0 0.00037455
6170.0 0.00032949
6190.0 0.00037079
6210.0 0.00049018
6230.0 0.00064325
6250.0 0.00069673
6270.0 0.00060885
6290.0 0.00051226
6310.0 0.00039991
6330.0 0.0003064
6350.0 0.0002733
6370.0 0.00028741
6390.0 0.00033226
6410.0 0.00040969
6430.0 0.00047841
6450.0 0.00054742
6470.0 0.00062681
6490.0 0.00075715
6510.0 0.00084659
6530.0 0.00083056
6550.0 0.00075105
6570.0 0.00063757
6590.0 0.00057491
6610.0 0.00049572
6630.0 0.00044911
6650.0 0.00042453
6670.0 0.00041243
6690.0 0.00037265
6710.0 0.00033875
6730.0 0.00024399
6750.0 0.00024189
6770.0 0.00026292
6790.0 0.00030221
6810.0 0.00027653
6830.0 0.00028475
6850.0 0.00026633
6870.0 0.00024329
6890.0 0.0002336
6910.0 0.00024893
6930.0 0.00023315
6950.0 0.00023988
6970.0 0.00025231
6990.0 0.00028639
7010.0 0.00028883
7030.0 0.00029342
7050.0 0.00027982
7070.0 0.00026662
7090.0 0.0002674
7110.0 0.00027513
7130.0 0.00029609
7150.0 0.00031447
7170.0 0.00034699
7190.0 0.00038144
7210.0 0.00037482
7230.0 0.00038532
7250.0 0.00041409
7270.0 0.00045125
7290.0 0.00053559
7310.0 0.00058117
7330.0 0.00056175
7350.0 0.00050807
7370.0 0.00044206
7390.0 0.00042886
7410.0 0.00045574
7430.0 0.0005065
7450.0 0.00055167
7470.0 0.00054661
7490.0 0.0004984
7510.0 0.00056456
7530.0 0.00055838
7550.0 0.00050189
7570.0 0.00039207
7590.0 0.00026953
7610.0 0.00023134
7630.0 0.00026285
7650.0 0.00031078
7670.0 0.00038679
7690.0 0.00042564
7710.0 0.00044357
7730.0 0.00046614
7750.0 0.00052329
7770.0 0.00053152
7790.0 0.00048823
7810.0 0.00044548
7830.0 0.00045939
7850.0 0.00044657
7870.0 0.00040943
7890.0 0.000344
7910.0 0.00027963
7930.0 0.000267
7950.0 0.00024325
7970.0 0.00022517
7990.0 0.00022389
8010.0 1.6589e-05
8030.0 1.6372e-05
8050.0 1.6152e-05
8070.0 1.6365e-05
8090.0 1.7586e-05
8110.0 1.7286e-05
8130.0 1.4256e-05
8150.0 1.3884e-05
8170.0 1.1957e-05
8190.0 1.1329e-05
8210.0 1.4717e-05
8230.0 1.6387e-05
8250.0 1.4764e-05
8270.0 1.285e-05
8290.0 1.253e-05
8310.0 9.6443e-06
8330.0 6.5e-06
8350.0 4.6132e-06
8370.0 2.9049e-06
8390.0 5.313e-06
8410.0 6.1909e-06
8430.0 7.6313e-06
8450.0 8.9611e-06
8470.0 1.114e-05
8490.0 1.106e-05
8510.0 1.0878e-05
8530.0 1.1351e-05
8550.0 1.532e-05
8570.0 1.8139e-05
8590.0 1.9567e-05
8610.0 2.472e-05
8630.0 2.9777e-05
8650.0 3.1144e-05
8670.0 3.31e-05
8690.0 3.3291e-05
8710.0 3.0149e-05
8730.0 2.8045e-05
8750.0 2.4754e-05
8770.0 2.3487e-05
8790.0 2.3076e-05
8810.0 2.2113e-05
8830.0 1.768e-05
8850.0 1.294e-05
8870.0 9.9077e-06
8890.0 9.69e-06
8910.0 1.1107e-05
8930.0 1.2636e-05
8950.0 1.2879e-05
8970.0 1.2939e-05
8990.0 1.1538e-05
9010.0 0.00012082
9030.0 0.00010948
9050.0 0.00011001
9070.0 0.00011088
9090.0 0.00011164
9110.0 0.00011258
9130.0 0.0001133
9150.0 0.00011387
9170.0 0.00011447
9190.0 0.00011511
9210.0 0.00011579
9230.0 0.0001165
9250.0 0.00011723
9270.0 0.00011798
9290.0 0.00011876
9310.0 0.00011954
9330.0 0.00012033
9350.0 0.00012116
9370.0 0.00012199
9390.0 0.00012283
9410.0 0.0001237
9430.0 0.00012459
9450.0 0.00012548
9470.0 0.00012639
9490.0 0.00012733
9510.0 0.00012827
9530.0 0.00012922
9550.0 0.00013021
9570.0 0.00013121
9590.0 0.00013221
9610.0 0.00013323
9630.0 0.00013428
9650.0 0.00013534
9670.0 0.0001364
9690.0 0.00013748
9710.0 0.00013859
9730.0 0.0001397
9750.0 0.00014082
9770.0 0.00014197
9790.0 0.00014313
9810.0 0.00014429
9830.0 0.00014547
9850.0 0.00014667
9870.0 0.00014787
9890.0 0.00014908
9910.0 0.00015032
9930.0 0.00015156
9950.0 0.0001528
9970.0 0.00015407
9990.0 0.00015535
10010.0 0.0001348
10030.0 0.00013591
10050.0 0.00013704
10070.0 0.00013821
10090.0 0.00013931
10110.0 0.00014044
10130.0 0.00014157
10150.0 0.0001427
10170.0 0.00014384
10190.0 0.00014501
10210.0 0.00014615
10230.0 0.0001473
10250.0 0.00014846
10270.0 0.00014963
10290.0 0.00015078
10310.0 0.00015194
10330.0 0.00015311
10350.0 0.00015427
10370.0 0.00015542
10390.0 0.00015658
10410.0 0.00015774
10430.0 0.00015888
10450.0 0.00016003
10470.0 0.00016118
10490.0 0.00016231
10510.0 0.00016343
10530.0 0.00016457
10550.0 0.00016569
10570.0 0.00016679
10590.0 0.0001679
10610.0 0.000169
10630.0 0.00017008
10650.0 0.00017115
10670.0 0.00017223
10690.0 0.00017329
10710.0 0.00017432
10730.0 0.00017536
10750.0 0.0001764
10770.0 0.0001774
10790.0 0.00017838
10810.0 0.00017937
10830.0 0.00018033
10850.0 0.00018124
10870.0 0.00018212
10890.0 0.00018289
10910.0 0.00018349
10930.0 0.00018383
10950.0 0.00018375
10970.0 0.00018312
10990.0 0.0001819
11010.0 0.00017985
11030.0 0.00017699
11050.0 0.0001735
11070.0 0.00016933
11090.0 0.00016432
11110.0 0.00015914
11130.0 0.00015374
11150.0 0.00014792
11170.0 0.00014192
11190.0 0.0001361
11210.0 0.00013009
11230.0 0.00012392
11250.0 0.00011804
11270.0 0.00011238
11290.0 0.00010671
11310.0 0.00010135
11330.0 9.6621e-05
11350.0 9.2156e-05
11370.0 8.803e-05
11390.0 8.4461e-05
11410.0 8.1338e-05
11430.0 7.8437e-05
11450.0 7.5936e-05
11470.0 7.3774e-05
11490.0 7.1763e-05
11510.0 6.9825e-05
11530.0 6.8026e-05
11550.0 6.6239e-05
11570.0 6.4333e-05
11590.0 6.2359e-05
11610.0 6.035e-05
11630.0 5.8163e-05
11650.0 5.5821e-05
11670.0 5.3514e-05
11690.0 5.1174e-05
11710.0 4.876e-05
11730.0 4.6421e-05
11750.0 4.4256e-05
11770.0 4.2133e-05
11790.0 4.0143e-05
11810.0 3.8391e-05
11830.0 3.6825e-05
11850.0 3.5382e-05
11870.0 3.4175e-05
11890.0 3.3172e-05
11910.0 3.229e-05
11930.0 3.1533e-05
11950.0 3.0902e-05
11970.0 3.0338e-05
11990.0 2.9805e-05
12010.0 2.9312e-05
12030.0 2.8837e-05
12050.0 2.8346e-05
12070.0 2.7835e-05
12090.0 2.7342e-05
12110.0 2.6842e-05
12130.0 2.6341e-05
12150.0 2.5879e-05
12170.0 2.5476e-05
12190.0 2.5128e-05
12210.0 2.4884e-05
12230.0 2.4767e-05
12250.0 2.4786e-05
12270.0 2.4973e-05
12290.0 2.5326e-05
12310.0 2.5833e-05
12330.0 2.6542e-05
12350.0 2.7427e-05
12370.0 2.8434e-05
12390.0 2.9596e-05
12410.0 3.0957e-05
12430.0 3.234e-05
12450.0 3.3773e-05
12470.0 3.5296e-05
12490.0 3.6826e-05
12510.0 3.8261e-05
12530.0 3.9689e-05
12550.0 4.1067e-05
12570.0 4.2283e-05
12590.0 4.335e-05
12610.0 4.4302e-05
12630.0 4.506e-05
12650.0 4.5583e-05
12670.0 4.5927e-05
12690.0 4.6065e-05
12710.0 4.5989e-05
12730.0 4.5722e-05
12750.0 4.5247e-05
12770.0 4.4594e-05
12790.0 4.3803e-05
12810.0 4.2858e-05
12830.0 4.1764e-05
12850.0 4.0621e-05
12870.0 3.9411e-05
12890.0 3.8103e-05
12910.0 3.6773e-05
12930.0 3.5462e-05
12950.0 3.4094e-05
12970.0 3.2702e-05
12990.0 3.1385e-05
13010.0 3.0084e-05
13030.0 2.8768e-05
13050.0 2.7505e-05
13070.0 2.6322e-05
13090.0 2.5134e-05
13110.0 2.3985e-05
13130.0 2.2925e-05
13150.0 2.1922e-05
13170.0 2.094e-05
13190.0 2.0066e-05
13210.0 1.9296e-05
13230.0 1.8593e-05
13250.0 1.7988e-05
13270.0 1.751e-05
13290.0 1.7138e-05
13310.0 1.6882e-05
13330.0 1.6766e-05
13350.0 1.6779e-05
13370.0 1.693e-05
13390.0 1.7226e-05
13410.0 1.7625e-05
13430.0 1.8144e-05
13450.0 1.8786e-05
13470.0 1.9498e-05
13490.0 2.0252e-05
13510.0 2.1103e-05
13530.0 2.1966e-05
13550.0 2.2791e-05
13570.0 2.3605e-05
13590.0 2.4398e-05
13610.0 2.5104e-05
13630.0 2.572e-05
13650.0 2.6283e-05
13670.0 2.6749e-05
13690.0 2.7111e-05
13710.0 2.739e-05
13730.0 2.7589e-05
13750.0 2.7689e-05
13770.0 2.7712e-05
13790.0 2.7661e-05
13810.0 2.7539e-05
13830.0 2.7359e-05
13850.0 2.7114e-05
13870.0 2.6806e-05
13890.0 2.6453e-05
13910.0 2.6056e-05
13930.0 2.5596e-05
13950.0 2.5094e-05
13970.0 2.4581e-05
13990.0 2.4021e-05
14010.0 2.3427e-05
14030.0 2.2834e-05
14050.0 2.2236e-05
14070.0 2.1605e-05
14090.0 2.1e-05
14110.0 2.0432e-05
14130.0 1.9881e-05
14150.0 1.9363e-05
14170.0 1.8921e-05
14190.0 1.8538e-05
14210.0 1.8213e-05
14230.0 1.7973e-05
14250.0 1.7818e-05
14270.0 1.7742e-05
14290.0 1.7758e-05
14310.0 1.7857e-05
14330.0 1.8035e-05
14350.0 1.8297e-05
14370.0 1.8622e-05
14390.0 1.8993e-05
14410.0 1.9429e-05
14430.0 1.9907e-05
14450.0 2.0396e-05
14470.0 2.0903e-05
14490.0 2.1443e-05
14510.0 2.1958e-05
14530.0 2.2448e-05
14550.0 2.2938e-05
14570.0 2.3408e-05
14590.0 2.3836e-05
14610.0 2.425e-05
14630.0 2.4659e-05
14650.0 2.5041e-05
14670.0 2.5409e-05
14690.0 2.5793e-05
14710.0 2.6197e-05
14730.0 2.6601e-05
14750.0 2.7048e-05
14770.0 2.7556e-05
14790.0 2.8106e-05
14810.0 2.8702e-05
14830.0 2.9408e-05
14850.0 3.0176e-05
14870.0 3.0977e-05
14890.0 3.1841e-05
14910.0 3.2759e-05
14930.0 3.3641e-05
14950.0 3.4466e-05
14970.0 3.5246e-05
14990.0 3.5901e-05
15010.0 3.6401e-05
15030.0 3.6772e-05
15050.0 3.7017e-05
15070.0 3.7137e-05
15090.0 3.7179e-05
15110.0 3.7167e-05
15130.0 3.712e-05
15150.0 3.7057e-05
15170.0 3.6983e-05
15190.0 3.6904e-05
15210.0 3.6825e-05
15230.0 3.6747e-05
15250.0 3.6666e-05
15270.0 3.6585e-05
15290.0 3.651e-05
15310.0 3.6432e-05
15330.0 3.6353e-05
15350.0 3.6277e-05
15370.0 3.6202e-05
15390.0 3.6123e-05
15410.0 3.6046e-05
15430.0 3.5972e-05
15450.0 3.5897e-05
15470.0 3.582e-05
15490.0 3.5747e-05
15510.0 3.5674e-05
15530.0 3.5599e-05
15550.0 3.5525e-05
15570.0 3.5454e-05
15590.0 3.5379e-05
15610.0 3.5304e-05
15630.0 3.5233e-05
15650.0 3.5162e-05
15670.0 3.5088e-05
15690.0 3.5017e-05
15710.0 3.4947e-05
15730.0 3.4875e-05
15750.0 3.4803e-05
15770.0 3.4733e-05
15790.0 3.4663e-05
15810.0 3.4589e-05
15830.0 3.4519e-05
15850.0 3.4451e-05
15870.0 3.438e-05
15890.0 3.4309e-05
15910.0 3.4241e-05
15930.0 3.4172e-05
15950.0 3.41e-05
15970.0 3.403e-05
15990.0 3.3962e-05
16010.0 3.3892e-05
16030.0 3.382e-05
16050.0 3.3754e-05
16070.0 3.3685e-05
16090.0 3.3614e-05
16110.0 3.3546e-05
16130.0 3.3479e-05
16150.0 3.3407e-05
16170.0 3.3337e-05
16190.0 3.327e-05
16210.0 3.3201e-05
16230.0 3.313e-05
16250.0 3.3061e-05
16270.0 3.2994e-05
16290.0 3.2924e-05
16310.0 3.2854e-05
16330.0 3.2787e-05
16350.0 3.2718e-05
16370.0 3.2645e-05
16390.0 3.2577e-05
16410.0 3.2509e-05
16430.0 3.2438e-05
16450.0 3.2368e-05
16470.0 3.2301e-05
16490.0 3.2231e-05
16510.0 3.2159e-05
16530.0 3.209e-05
16550.0 3.2021e-05
16570.0 3.1949e-05
16590.0 3.1878e-05
16610.0 3.181e-05
16630.0 3.1739e-05
16650.0 3.1667e-05
16670.0 3.1598e-05
16690.0 3.1529e-05
16710.0 3.1455e-05
16730.0 3.1383e-05
16750.0 3.1314e-05
16770.0 3.1242e-05
16790.0 3.1168e-05
16810.0 3.1098e-05
16830.0 3.1028e-05
16850.0 3.0954e-05
16870.0 3.0882e-05
16890.0 3.0812e-05
16910.0 3.0737e-05
16930.0 3.0662e-05
16950.0 3.0591e-05
16970.0 3.0519e-05
16990.0 3.0444e-05
17010.0 3.0371e-05
17030.0 3.03e-05
17050.0 3.0225e-05
17070.0 3.0149e-05
17090.0 3.0077e-05
17110.0 3.0003e-05
17130.0 2.9925e-05
17150.0 2.9851e-05
17170.0 2.9778e-05
17190.0 2.9702e-05
17210.0 2.9626e-05
17230.0 2.9553e-05
17250.0 2.9477e-05
17270.0 2.9399e-05
17290.0 2.9323e-05
17310.0 2.9248e-05
17330.0 2.9171e-05
17350.0 2.9092e-05
17370.0 2.9018e-05
17390.0 2.8941e-05
17410.0 2.8862e-05
17430.0 2.8786e-05
17450.0 2.871e-05
17470.0 2.863e-05
17490.0 2.8551e-05
17510.0 2.8474e-05
17530.0 2.8396e-05
17550.0 2.8315e-05
17570.0 2.8238e-05
17590.0 2.8161e-05
17610.0 2.808e-05
17630.0 2.8e-05
17650.0 2.7923e-05
17670.0 2.7843e-05
17690.0 2.7759e-05
17710.0 2.7681e-05
17730.0 2.7602e-05
17750.0 2.752e-05
17770.0 2.7439e-05
17790.0 2.7361e-05
17810.0 2.7279e-05
17830.0 2.7197e-05
17850.0 2.7117e-05
17870.0 2.7036e-05
17890.0 2.6952e-05
17910.0 2.687e-05
17930.0 2.6791e-05
17950.0 2.6708e-05
17970.0 2.6625e-05
17990.0 2.6544e-05
18010.0 2.6463e-05
18030.0 2.6377e-05
18050.0 2.6294e-05
18070.0 2.6213e-05
18090.0 2.6129e-05
18110.0 2.6044e-05
18130.0 2.5963e-05
18150.0 2.5881e-05
18170.0 2.5795e-05
18190.0 2.5712e-05
18210.0 2.563e-05
18230.0 2.5545e-05
18250.0 2.5458e-05
18270.0 2.5376e-05
18290.0 2.5292e-05
18310.0 2.5206e-05
18330.0 2.5122e-05
18350.0 2.504e-05
18370.0 2.4954e-05
18390.0 2.4868e-05
18410.0 2.4785e-05
18430.0 2.47e-05
18450.0 2.4612e-05
18470.0 2.4528e-05
18490.0 2.4444e-05
18510.0 2.4358e-05
18530.0 2.4272e-05
18550.0 2.4189e-05
18570.0 2.4103e-05
18590.0 2.4015e-05
18610.0 2.393e-05
18630.0 2.3846e-05
18650.0 2.3758e-05
18670.0 2.3671e-05
18690.0 2.3588e-05
18710.0 2.3502e-05
18730.0 2.3414e-05
18750.0 2.3329e-05
18770.0 2.3245e-05
18790.0 2.3156e-05
18810.0 2.3069e-05
18830.0 2.2985e-05
18850.0 2.2898e-05
18870.0 2.281e-05
18890.0 2.2725e-05
18910.0 2.264e-05
18930.0 2.2552e-05
18950.0 2.2465e-05
18970.0 2.2381e-05
18990.0 2.2294e-05
19010.0 2.2204e-05
19030.0 2.2119e-05
19050.0 2.2034e-05
19070.0 2.1946e-05
19090.0 2.1859e-05
19110.0 2.1776e-05
19130.0 2.1688e-05
19150.0 2.1599e-05
19170.0 2.1514e-05
19190.0 2.1428e-05
19210.0 2.1339e-05
19230.0 2.1252e-05
19250.0 2.1168e-05
19270.0 2.1081e-05
19290.0 2.0993e-05
19310.0 2.0909e-05
19330.0 2.0823e-05
19350.0 2.0733e-05
19370.0 2.0647e-05
19390.0 2.0562e-05
19410.0 2.0475e-05
19430.0 2.0387e-05
19450.0 2.0303e-05
19470.0 2.0217e-05
19490.0 2.0129e-05
19510.0 2.0043e-05
19530.0 1.9959e-05
19550.0 1.9871e-05
19570.0 1.9782e-05
19590.0 1.9698e-05
19610.0 1.9613e-05
19630.0 1.9525e-05
19650.0 1.9439e-05
19670.0 1.9356e-05
19690.0 1.9268e-05
19710.0 1.9181e-05
19730.0 1.9096e-05
19750.0 1.9011e-05
19770.0 1.8922e-05
19790.0 1.8837e-05
19810.0 1.8753e-05
19830.0 1.8666e-05
19850.0 1.8578e-05
19870.0 1.8492e-05
19890.0 1.84e-05
19910.0 1.8298e-05
19930.0 1.819e-05
19950.0 1.8065e-05
19970.0 1.7913e-05
19990.0 1.7729e-05
20010.0 1.5773e-05
20030.0 1.5545e-05
20050.0 1.5278e-05
20070.0 1.4988e-05
20090.0 1.4677e-05
20110.0 1.4324e-05
20130.0 1.3968e-05
20150.0 1.3614e-05
20170.0 1.3248e-05
20190.0 1.2876e-05
20210.0 1.2525e-05
20230.0 1.2183e-05
20250.0 1.184e-05
20270.0 1.1521e-05
20290.0 1.1231e-05
20310.0 1.0954e-05
20330.0 1.0696e-05
20350.0 1.0482e-05
20370.0 1.0292e-05
20390.0 1.0125e-05
20410.0 9.9902e-06
20430.0 9.8862e-06
20450.0 9.804e-06
20470.0 9.7488e-06
20490.0 9.7192e-06
20510.0 9.7107e-06
20530.0 9.7227e-06
20550.0 9.7527e-06
20570.0 9.7964e-06
20590.0 9.8555e-06
20610.0 9.9271e-06
20630.0 1.0006e-05
20650.0 1.0094e-05
20670.0 1.0195e-05
20690.0 1.0298e-05
20710.0 1.0404e-05
20730.0 1.0519e-05
20750.0 1.0639e-05
20770.0 1.0756e-05
20790.0 1.088e-05
20810.0 1.1011e-05
20830.0 1.1141e-05
20850.0 1.1271e-05
20870.0 1.1411e-05
20890.0 1.1554e-05
20910.0 1.1692e-05
20930.0 1.1835e-05
20950.0 1.1983e-05
20970.0 1.2127e-05
20990.0 1.2269e-05
21010.0 1.2419e-05
21030.0 1.2565e-05
21050.0 1.2705e-05
21070.0 1.2844e-05
21090.0 1.2984e-05
21110.0 1.3112e-05
21130.0 1.3232e-05
21150.0 1.3348e-05
21170.0 1.3453e-05
21190.0 1.3543e-05
21210.0 1.3625e-05
21230.0 1.3692e-05
21250.0 1.374e-05
21270.0 1.3771e-05
21290.0 1.3782e-05
21310.0 1.3771e-05
21330.0 1.3739e-05
21350.0 1.3682e-05
21370.0 1.3598e-05
21390.0 1.3492e-05
21410.0 1.3361e-05
21430.0 1.3196e-05
21450.0 1.3011e-05
21470.0 1.2809e-05
21490.0 1.2581e-05
21510.0 1.233e-05
21530.0 1.2076e-05
21550.0 1.1809e-05
21570.0 1.1525e-05
21590.0 1.1245e-05
21610.0 1.0975e-05
21630.0 1.0705e-05
21650.0 1.044e-05
21670.0 1.0211e-05
21690.0 1e-05
21710.0 9.8099e-06
21730.0 9.6541e-06
21750.0 9.5339e-06
21770.0 9.4423e-06
21790.0 9.3896e-06
21810.0 9.375e-06
21830.0 9.3958e-06
21850.0 9.4545e-06
21870.0 9.5461e-06
21890.0 9.6644e-06
21910.0 9.8162e-06
21930.0 9.9942e-06
21950.0 1.0187e-05
21970.0 1.0401e-05
21990.0 1.064e-05
22010.0 1.088e-05
22030.0 1.1123e-05
22050.0 1.1379e-05
22070.0 1.1636e-05
22090.0 1.1879e-05
22110.0 1.2125e-05
22130.0 1.2369e-05
22150.0 1.2598e-05
22170.0 1.2814e-05
22190.0 1.3028e-05
22210.0 1.3226e-05
22230.0 1.3401e-05
22250.0 1.3566e-05
22270.0 1.3718e-05
22290.0 1.3848e-05
22310.0 1.3959e-05
22330.0 1.4057e-05
22350.0 1.4133e-05
22370.0 1.4186e-05
22390.0 1.422e-05
22410.0 1.423e-05
22430.0 1.4217e-05
22450.0 1.418e-05
22470.0 1.4117e-05
22490.0 1.4028e-05
22510.0 1.3917e-05
22530.0 1.3775e-05
22550.0 1.3603e-05
22570.0 1.3412e-05
22590.0 1.3196e-05
22610.0 1.2948e-05
22630.0 1.2679e-05
22650.0 1.2402e-05
