#lamb flux
1010.0 3.982e-05
1030.0 4.3893e-05
1050.0 4.9597e-05
1070.0 5.84e-05
1090.0 6.9406e-05
1110.0 8.1017e-05
1130.0 9.3e-05
1150.0 0.00010575
1170.0 0.00011889
1190.0 0.00013108
1210.0 0.00014283
1230.0 0.00015398
1250.0 0.00016477
1270.0 0.00017361
1290.0 0.00018103
1310.0 0.00018624
1330.0 0.00018878
1350.0 0.00018923
1370.0 0.00018787
1390.0 0.00018444
1410.0 0.00017925
1430.0 0.00017315
1450.0 0.0001661
1470.0 0.00015826
1490.0 0.00015018
1510.0 0.00014227
1530.0 0.00013422
1550.0 0.00012641
1570.0 0.00011912
1590.0 0.00011229
1610.0 0.00010633
1630.0 0.00010308
1650.0 0.00010078
1670.0 9.9404e-05
1690.0 9.9064e-05
1710.0 9.9951e-05
1730.0 0.00010203
1750.0 0.00010519
1770.0 0.00010974
1790.0 0.00011575
1810.0 0.00012316
1830.0 0.00013209
1850.0 0.00014288
1870.0 0.00015534
1890.0 0.00016952
1910.0 0.00018564
1930.0 0.00020379
1950.0 0.00022367
1970.0 0.00024537
1990.0 0.00026906
2010.0 0.0002944
2030.0 0.00032109
2050.0 0.00034932
2070.0 0.0003789
2090.0 0.000409
2110.0 0.00043971
2130.0 0.00047099
2150.0 0.00050222
2170.0 0.00053287
2190.0 0.00056337
2210.0 0.00059327
2230.0 0.00062194
2250.0 0.00064955
2270.0 0.00067649
2290.0 0.00070198
2310.0 0.0007259
2330.0 0.00074906
2350.0 0.00077141
2370.0 0.00079262
2390.0 0.00081367
2410.0 0.00083571
2430.0 0.00085858
2450.0 0.00088321
2470.0 0.00091161
2490.0 0.00094486
2510.0 0.00098164
2530.0 0.0010249
2550.0 0.0010778
2570.0 0.0011412
2590.0 0.0012182
2610.0 0.0013216
2630.0 0.001453
2650.0 0.0016083
2670.0 0.0017924
2690.0 0.0020029
2710.0 0.0022181
2730.0 0.0024284
2750.0 0.0026401
2770.0 0.0028409
2790.0 0.0030295
2810.0 0.00322
2830.0 0.0034257
2850.0 0.0036353
2870.0 0.0038583
2890.0 0.0041034
2910.0 0.0043632
2930.0 0.0046272
2950.0 0.0049104
2970.0 0.0052098
2990.0 0.0055127
3010.0 0.0058242
3030.0 0.0061545
3050.0 0.0064939
3070.0 0.0068256
3090.0 0.0071636
3110.0 0.0074941
3130.0 0.0077947
3150.0 0.0080575
3170.0 0.0082729
3190.0 0.0084261
3210.0 0.0085285
3230.0 0.008588
3250.0 0.0086117
3270.0 0.0086255
3290.0 0.0086409
3310.0 0.0086631
3330.0 0.0086988
3350.0 0.0087448
3370.0 0.0087965
3390.0 0.0087633
3410.0 0.00875
3430.0 0.0088263
3450.0 0.0088817
3470.0 0.0088484
3490.0 0.0093243
3510.0 0.011142
3530.0 0.013783
3550.0 0.015564
3570.0 0.017177
3590.0 0.019335
3610.0 0.019321
3630.0 0.017778
3650.0 0.018287
3670.0 0.021233
3690.0 0.023925
3710.0 0.024901
3730.0 0.025041
3750.0 0.026435
3770.0 0.026535
3790.0 0.025378
3810.0 0.023996
3830.0 0.022727
3850.0 0.022779
3870.0 0.023768
3890.0 0.024456
3910.0 0.024661
3930.0 0.024659
3950.0 0.026422
3970.0 0.028447
3990.0 0.027788
4010.0 0.024877
4030.0 0.022502
4050.0 0.022487
4070.0 0.023478
4090.0 0.023237
4110.0 0.02242
4130.0 0.022338
4150.0 0.023416
4170.0 0.025684
4190.0 0.02662
4210.0 0.024877
4230.0 0.022746
4250.0 0.02132
4270.0 0.020442
4290.0 0.020444
4310.0 0.020874
4330.0 0.01997
4350.0 0.01791
4370.0 0.016166
4390.0 0.014968
4410.0 0.014386
4430.0 0.014887
4450.0 0.016354
4470.0 0.017938
4490.0 0.019079
4510.0 0.020846
4530.0 0.02395
4550.0 0.027143
4570.0 0.029158
4590.0 0.030911
4610.0 0.032277
4630.0 0.032289
4650.0 0.030093
4670.0 0.026673
4690.0 0.02394
4710.0 0.022948
4730.0 0.021857
4750.0 0.01925
4770.0 0.017258
4790.0 0.017689
4810.0 0.019017
4830.0 0.018566
4850.0 0.016568
4870.0 0.016725
4890.0 0.017066
4910.0 0.017222
4930.0 0.016897
4950.0 0.016538
4970.0 0.015759
4990.0 0.014592
5010.0 0.013872
5030.0 0.013808
5050.0 0.013902
5070.0 0.014018
5090.0 0.014095
5110.0 0.014146
5130.0 0.014455
5150.0 0.015102
5170.0 0.016292
5190.0 0.01786
5210.0 0.01904
5230.0 0.019737
5250.0 0.020146
5270.0 0.020599
5290.0 0.020852
5310.0 0.02058
5330.0 0.019876
5350.0 0.019224
5370.0 0.019217
5390.0 0.019514
5410.0 0.019651
5430.0 0.019377
5450.0 0.019072
5470.0 0.018755
5490.0 0.018476
5510.0 0.018375
5530.0 0.018414
5550.0 0.018512
5570.0 0.018512
5590.0 0.018119
5610.0 0.017395
5630.0 0.016642
5650.0 0.015841
5670.0 0.015223
5690.0 0.014685
5710.0 0.014442
5730.0 0.014411
5750.0 0.014174
5770.0 0.013931
5790.0 0.014086
5810.0 0.014482
5830.0 0.014789
5850.0 0.014879
5870.0 0.014523
5890.0 0.013989
5910.0 0.013588
5930.0 0.013051
5950.0 0.012552
5970.0 0.012603
5990.0 0.012851
6010.0 0.0128
6030.0 0.012423
6050.0 0.012354
6070.0 0.012701
6090.0 0.013064
6110.0 0.012972
6130.0 0.012265
6150.0 0.011373
6170.0 0.010887
6190.0 0.010716
6210.0 0.010587
6230.0 0.010422
6250.0 0.010447
6270.0 0.010752
6290.0 0.011152
6310.0 0.011601
6330.0 0.012061
6350.0 0.012296
6370.0 0.012279
6390.0 0.012177
6410.0 0.012225
6430.0 0.012338
6450.0 0.012315
6470.0 0.012282
6490.0 0.012292
6510.0 0.012274
6530.0 0.012151
6550.0 0.011906
6570.0 0.011553
6590.0 0.011188
6610.0 0.010904
6630.0 0.010679
6650.0 0.010349
6670.0 0.0099962
6690.0 0.0097194
6710.0 0.009558
6730.0 0.009435
6750.0 0.0093483
6770.0 0.0092514
6790.0 0.0090817
6810.0 0.0088795
6830.0 0.0087787
6850.0 0.0087327
6870.0 0.0086935
6890.0 0.0086873
6910.0 0.0086064
6930.0 0.0085036
6950.0 0.0084647
6970.0 0.008388
6990.0 0.0082584
7010.0 0.008123
7030.0 0.0079762
7050.0 0.0078233
7070.0 0.007633
7090.0 0.0074802
7110.0 0.0076029
7130.0 0.007796
7150.0 0.007905
7170.0 0.0079706
7190.0 0.0079693
7210.0 0.007865
7230.0 0.0077153
7250.0 0.0076528
7270.0 0.0075091
7290.0 0.0073967
7310.0 0.0073404
7330.0 0.00738
7350.0 0.0073675
7370.0 0.0073137
7390.0 0.0072518
7410.0 0.0071684
7430.0 0.0070676
7450.0 0.0069553
7470.0 0.0068378
7490.0 0.0066576
7510.0 0.0064112
7530.0 0.0061855
7550.0 0.0060409
7570.0 0.0060842
7590.0 0.0060626
7610.0 0.0059923
7630.0 0.0059212
7650.0 0.0059815
7670.0 0.0061267
7690.0 0.006345
7710.0 0.0064747
7730.0 0.0067181
7750.0 0.0068836
7770.0 0.0070365
7790.0 0.0070997
7810.0 0.0070027
7830.0 0.0069808
7850.0 0.0068845
7870.0 0.0067195
7890.0 0.0064947
7910.0 0.0063146
7930.0 0.0062102
7950.0 0.0061462
7970.0 0.0061523
7990.0 0.0061705
8010.0 0.0061173
8030.0 0.0060585
8050.0 0.0059464
8070.0 0.0058461
8090.0 0.0057291
8110.0 0.0057578
8130.0 0.0058076
8150.0 0.0058293
8170.0 0.0057749
8190.0 0.0057229
8210.0 0.0055328
8230.0 0.0051869
8250.0 0.0049809
8270.0 0.0048642
8290.0 0.0048067
8310.0 0.0048085
8330.0 0.0049184
8350.0 0.0048416
8370.0 0.0047519
8390.0 0.0048187
8410.0 0.0049364
8430.0 0.005157
8450.0 0.0053545
8470.0 0.0053959
8490.0 0.0054371
8510.0 0.005392
8530.0 0.0053324
8550.0 0.0053699
8570.0 0.0053737
8590.0 0.0053325
8610.0 0.0054756
8630.0 0.0055003
8650.0 0.0053798
8670.0 0.0053648
8690.0 0.0053799
8710.0 0.005279
8730.0 0.0052455
8750.0 0.0050808
8770.0 0.005016
8790.0 0.0049504
8810.0 0.0049033
8830.0 0.0047252
8850.0 0.0044032
8870.0 0.0041448
8890.0 0.004013
8910.0 0.0037658
8930.0 0.0035024
8950.0 0.0034299
8970.0 0.0033943
8990.0 0.0033924
9010.0 0.0033655
9030.0 0.0033416
9050.0 0.0033191
9070.0 0.0032968
9090.0 0.0032746
9110.0 0.0032525
9130.0 0.0032303
9150.0 0.0032081
9170.0 0.003186
9190.0 0.0031638
9210.0 0.0031417
9230.0 0.0031196
9250.0 0.0030977
9270.0 0.0030757
9290.0 0.0030538
9310.0 0.003032
9330.0 0.0030102
9350.0 0.0029884
9370.0 0.0029667
9390.0 0.0029452
9410.0 0.0029236
9430.0 0.0029022
9450.0 0.0028806
9470.0 0.0028598
9490.0 0.0028391
9510.0 0.0028178
9530.0 0.0027967
9550.0 0.0027757
9570.0 0.0027549
9590.0 0.0027343
9610.0 0.0027137
9630.0 0.0026933
9650.0 0.002673
9670.0 0.0026528
9690.0 0.0026328
9710.0 0.0026129
9730.0 0.0025931
9750.0 0.0025734
9770.0 0.0025539
9790.0 0.0025345
9810.0 0.0025152
9830.0 0.0024955
9850.0 0.0024728
9870.0 0.0024545
9890.0 0.0024372
9910.0 0.0024195
9930.0 0.0024003
9950.0 0.0023824
9970.0 0.0023648
9990.0 0.0023468
10010.0 0.0023271
10030.0 0.0023087
10050.0 0.0022921
10070.0 0.0022755
10090.0 0.0022589
10110.0 0.0022414
10130.0 0.0022228
10150.0 0.0022063
10170.0 0.00219
10190.0 0.0021732
10210.0 0.0021569
10230.0 0.0021408
10250.0 0.0021243
10270.0 0.002108
10290.0 0.0020922
10310.0 0.002076
10330.0 0.0020597
10350.0 0.002044
10370.0 0.0020284
10390.0 0.0020126
10410.0 0.0019969
10430.0 0.0019819
10450.0 0.0019666
10470.0 0.0019511
10490.0 0.0019362
10510.0 0.0019214
10530.0 0.0019061
10550.0 0.0018911
10570.0 0.0018767
10590.0 0.0018621
10610.0 0.0018473
10630.0 0.0018331
10650.0 0.0018189
10670.0 0.0018043
10690.0 0.00179
10710.0 0.0017762
10730.0 0.001762
10750.0 0.0017475
10770.0 0.0017339
10790.0 0.0017203
10810.0 0.0017062
10830.0 0.0016926
10850.0 0.0016794
10870.0 0.0016655
10890.0 0.0016519
10910.0 0.0016389
10930.0 0.001626
10950.0 0.001613
10970.0 0.0016007
10990.0 0.0015893
11010.0 0.0015304
11030.0 0.0015203
11050.0 0.001511
11070.0 0.0015019
11090.0 0.0014927
11110.0 0.001484
11130.0 0.0014754
11150.0 0.0014663
11170.0 0.0014571
11190.0 0.0014482
11210.0 0.0014389
11230.0 0.0014293
11250.0 0.00142
11270.0 0.0014108
11290.0 0.0014015
11310.0 0.0013923
11330.0 0.0013839
11350.0 0.0013755
11370.0 0.0013674
11390.0 0.0013598
11410.0 0.0013527
11430.0 0.0013455
11450.0 0.0013386
11470.0 0.0013322
11490.0 0.0013258
11510.0 0.0013192
11530.0 0.0013129
11550.0 0.0013065
11570.0 0.0012998
11590.0 0.0012929
11610.0 0.0012861
11630.0 0.0012789
11650.0 0.0012712
11670.0 0.0012637
11690.0 0.0012561
11710.0 0.0012482
11730.0 0.0012403
11750.0 0.0012328
11770.0 0.0012251
11790.0 0.0012174
11810.0 0.0012101
11830.0 0.0012031
11850.0 0.0011959
11870.0 0.0011892
11890.0 0.0011831
11910.0 0.001177
11930.0 0.0011711
11950.0 0.0011659
11970.0 0.001161
11990.0 0.0011563
12010.0 0.0011523
12030.0 0.0011489
12050.0 0.001146
12070.0 0.0011437
12090.0 0.0011422
12110.0 0.0011414
12130.0 0.0011412
12150.0 0.0011419
12170.0 0.0011432
12190.0 0.0011452
12210.0 0.001148
12230.0 0.0011513
12250.0 0.0011552
12270.0 0.0011596
12290.0 0.0011644
12310.0 0.0011694
12330.0 0.0011747
12350.0 0.0011801
12370.0 0.0011855
12390.0 0.0011907
12410.0 0.0011959
12430.0 0.0012006
12450.0 0.0012048
12470.0 0.0012085
12490.0 0.0012114
12510.0 0.0012136
12530.0 0.001215
12550.0 0.0012154
12570.0 0.0012148
12590.0 0.0012133
12610.0 0.0012105
12630.0 0.0012067
12650.0 0.0012021
12670.0 0.0011965
12690.0 0.0011897
12710.0 0.0011824
12730.0 0.0011746
12750.0 0.0011655
12770.0 0.0011562
12790.0 0.0011469
12810.0 0.001137
12830.0 0.0011267
12850.0 0.0011169
12870.0 0.0011072
12890.0 0.0010971
12910.0 0.0010874
12930.0 0.0010783
12950.0 0.0010689
12970.0 0.0010596
12990.0 0.0010511
13010.0 0.0010429
13030.0 0.0010346
13050.0 0.0010267
13070.0 0.0010196
13090.0 0.0010123
13110.0 0.0010054
13130.0 0.00099912
13150.0 0.00099321
13170.0 0.00098733
13190.0 0.00098213
13210.0 0.00097751
13230.0 0.00097307
13250.0 0.00096892
13270.0 0.00096528
13290.0 0.00096181
13310.0 0.00095831
13330.0 0.00095507
13350.0 0.00095196
13370.0 0.00094867
13390.0 0.00094521
13410.0 0.0009419
13430.0 0.00093834
13450.0 0.00093443
13470.0 0.00093041
13490.0 0.00092632
13510.0 0.00092164
13530.0 0.00091677
13550.0 0.00091192
13570.0 0.00090676
13590.0 0.00090121
13610.0 0.00089568
13630.0 0.00089016
13650.0 0.00088421
13670.0 0.00087816
13690.0 0.00087225
13710.0 0.00086613
13730.0 0.00085956
13750.0 0.00085335
13770.0 0.00084711
13790.0 0.00084056
13810.0 0.00083396
13830.0 0.00082761
13850.0 0.00082091
13870.0 0.00081396
13890.0 0.00080714
13910.0 0.00080027
13930.0 0.00079295
13950.0 0.00078552
13970.0 0.00077837
13990.0 0.00077084
14010.0 0.00076305
14030.0 0.00075545
14050.0 0.00074785
14070.0 0.00073977
14090.0 0.00073193
14110.0 0.00072439
14130.0 0.00071678
14150.0 0.00070916
14170.0 0.00070212
14190.0 0.00069531
14210.0 0.0006885
14230.0 0.00068207
14250.0 0.00067606
14270.0 0.00067002
14290.0 0.00066407
14310.0 0.00065854
14330.0 0.00065308
14350.0 0.0006475
14370.0 0.00064206
14390.0 0.00063681
14410.0 0.00063136
14430.0 0.0006259
14450.0 0.00062067
14470.0 0.00061549
14490.0 0.00061018
14510.0 0.0006052
14530.0 0.00060052
14550.0 0.00059585
14570.0 0.00059136
14590.0 0.00058722
14610.0 0.00058319
14630.0 0.00057919
14650.0 0.00057546
14670.0 0.00057192
14690.0 0.0005684
14710.0 0.00056496
14730.0 0.0005618
14750.0 0.0005587
14770.0 0.00055566
14790.0 0.00055283
14810.0 0.00055021
14830.0 0.00054765
14850.0 0.00054534
14870.0 0.00054332
14890.0 0.00054149
14910.0 0.00053986
14930.0 0.00053846
14950.0 0.00053722
14970.0 0.00053604
14990.0 0.00053492
15010.0 0.00053379
15030.0 0.0005326
15050.0 0.0005313
15070.0 0.00052996
15090.0 0.00052856
15110.0 0.00052707
15130.0 0.00052555
15150.0 0.00052404
15170.0 0.00052247
15190.0 0.00052088
15210.0 0.0005193
15230.0 0.00051771
15250.0 0.00051608
15270.0 0.00051444
15290.0 0.00051284
15310.0 0.0005112
15330.0 0.00050953
15350.0 0.00050789
15370.0 0.00050624
15390.0 0.00050454
15410.0 0.00050285
15430.0 0.00050118
15450.0 0.00049948
15470.0 0.00049776
15490.0 0.00049607
15510.0 0.00049437
15530.0 0.00049263
15550.0 0.00049091
15570.0 0.0004892
15590.0 0.00048746
15610.0 0.00048569
15630.0 0.00048397
15650.0 0.00048223
15670.0 0.00048047
15690.0 0.00047872
15710.0 0.000477
15730.0 0.00047523
15750.0 0.00047346
15770.0 0.00047172
15790.0 0.00046997
15810.0 0.00046818
15830.0 0.00046643
15850.0 0.00046469
15870.0 0.00046292
15890.0 0.00046115
15910.0 0.00045942
15930.0 0.00045766
15950.0 0.00045589
15970.0 0.00045414
15990.0 0.0004524
16010.0 0.00045064
16030.0 0.00044887
16050.0 0.00044715
16070.0 0.00044542
16090.0 0.00044366
16110.0 0.00044194
16130.0 0.00044023
16150.0 0.00043847
16170.0 0.00043674
16190.0 0.00043504
16210.0 0.00043333
16230.0 0.0004316
16250.0 0.0004299
16270.0 0.00042822
16290.0 0.00042651
16310.0 0.00042482
16330.0 0.00042315
16350.0 0.00042148
16370.0 0.00041977
16390.0 0.00041812
16410.0 0.00041648
16430.0 0.00041481
16450.0 0.00041316
16470.0 0.00041155
16490.0 0.00040991
16510.0 0.00040827
16530.0 0.00040666
16550.0 0.00040506
16570.0 0.00040344
16590.0 0.00040183
16610.0 0.00040027
16630.0 0.00039869
16650.0 0.0003971
16670.0 0.00039555
16690.0 0.00039401
16710.0 0.00039243
16730.0 0.00039089
16750.0 0.00038937
16770.0 0.00038784
16790.0 0.00038631
16810.0 0.00038482
16830.0 0.00038333
16850.0 0.00038182
16870.0 0.00038034
16890.0 0.00037888
16910.0 0.0003774
16930.0 0.00037592
16950.0 0.00037449
16970.0 0.00037305
16990.0 0.00037161
17010.0 0.00037019
17030.0 0.00036879
17050.0 0.00036737
17070.0 0.00036596
17090.0 0.00036458
17110.0 0.00036321
17130.0 0.00036181
17150.0 0.00036045
17170.0 0.00035911
17190.0 0.00035775
17210.0 0.0003564
17230.0 0.00035509
17250.0 0.00035377
17270.0 0.00035243
17290.0 0.00035113
17310.0 0.00034984
17330.0 0.00034854
17350.0 0.00034724
17370.0 0.00034598
17390.0 0.00034472
17410.0 0.00034345
17430.0 0.0003422
17450.0 0.00034097
17470.0 0.00033971
17490.0 0.00033848
17510.0 0.00033727
17530.0 0.00033606
17550.0 0.00033483
17570.0 0.00033364
17590.0 0.00033247
17610.0 0.00033127
17630.0 0.00033009
17650.0 0.00032893
17670.0 0.00032777
17690.0 0.00032658
17710.0 0.00032545
17730.0 0.00032431
17750.0 0.00032317
17770.0 0.00032203
17790.0 0.00032093
17810.0 0.00031981
17830.0 0.00031868
17850.0 0.00031758
17870.0 0.00031649
17890.0 0.00031539
17910.0 0.00031429
17930.0 0.00031323
17950.0 0.00031215
17970.0 0.00031108
17990.0 0.00031003
18010.0 0.00030898
18030.0 0.0003079
18050.0 0.00030686
18070.0 0.00030583
18090.0 0.00030479
18110.0 0.00030375
18130.0 0.00030274
18150.0 0.00030172
18170.0 0.0003007
18190.0 0.00029969
18210.0 0.0002987
18230.0 0.00029769
18250.0 0.00029668
18270.0 0.0002957
18290.0 0.00029472
18310.0 0.00029373
18330.0 0.00029275
18350.0 0.0002918
18370.0 0.00029082
18390.0 0.00028985
18410.0 0.0002889
18430.0 0.00028795
18450.0 0.00028698
18470.0 0.00028603
18490.0 0.00028511
18510.0 0.00028416
18530.0 0.00028322
18550.0 0.00028231
18570.0 0.00028138
18590.0 0.00028044
18610.0 0.00027952
18630.0 0.00027862
18650.0 0.0002777
18670.0 0.00027678
18690.0 0.00027589
18710.0 0.00027499
18730.0 0.00027409
18750.0 0.0002732
18770.0 0.00027232
18790.0 0.00027141
18810.0 0.00027053
18830.0 0.00026966
18850.0 0.00026878
18870.0 0.0002679
18890.0 0.00026704
18910.0 0.00026618
18930.0 0.00026531
18950.0 0.00026444
18970.0 0.0002636
18990.0 0.00026275
19010.0 0.00026187
19030.0 0.00026104
19050.0 0.0002602
19070.0 0.00025935
19090.0 0.00025852
19110.0 0.0002577
19130.0 0.00025686
19150.0 0.00025602
19170.0 0.00025521
19190.0 0.00025439
19210.0 0.00025356
19230.0 0.00025274
19250.0 0.00025195
19270.0 0.00025114
19290.0 0.00025032
19310.0 0.00024954
19330.0 0.00024875
19350.0 0.00024793
19370.0 0.00024714
19390.0 0.00024636
19410.0 0.00024557
19430.0 0.00024478
19450.0 0.00024402
19470.0 0.00024325
19490.0 0.00024247
19510.0 0.0002417
19530.0 0.00024095
19550.0 0.00024018
19570.0 0.00023941
19590.0 0.00023867
19610.0 0.00023792
19630.0 0.00023716
19650.0 0.00023643
19670.0 0.0002357
19690.0 0.00023496
19710.0 0.00023422
19730.0 0.0002335
19750.0 0.00023278
19770.0 0.00023204
19790.0 0.00023133
19810.0 0.00023063
19830.0 0.00022991
19850.0 0.0002292
19870.0 0.0002285
19890.0 0.00022777
19910.0 0.00022699
19930.0 0.00022618
19950.0 0.00022529
19970.0 0.00022425
19990.0 0.00022306
20010.0 0.00022174
20030.0 0.0002202
20050.0 0.00021844
20070.0 0.00021658
20090.0 0.00021462
20110.0 0.00021244
20130.0 0.00021027
20150.0 0.00020815
20170.0 0.00020597
20190.0 0.00020378
20210.0 0.00020173
20230.0 0.00019972
20250.0 0.00019771
20270.0 0.00019581
20290.0 0.00019404
20310.0 0.00019232
20330.0 0.00019063
20350.0 0.00018914
20370.0 0.00018772
20390.0 0.00018636
20410.0 0.00018511
20430.0 0.00018398
20450.0 0.00018288
20470.0 0.00018187
20490.0 0.00018098
20510.0 0.00018016
20530.0 0.00017939
20550.0 0.00017872
20570.0 0.00017814
20590.0 0.00017761
20610.0 0.00017714
20630.0 0.00017675
20650.0 0.00017642
20670.0 0.00017612
20690.0 0.00017589
20710.0 0.00017569
20730.0 0.00017552
20750.0 0.00017536
20770.0 0.00017522
20790.0 0.00017507
20810.0 0.00017489
20830.0 0.0001747
20850.0 0.00017447
20870.0 0.00017417
20890.0 0.00017381
20910.0 0.00017341
20930.0 0.00017293
20950.0 0.00017236
20970.0 0.00017174
20990.0 0.00017106
21010.0 0.00017027
21030.0 0.00016943
21050.0 0.00016856
21070.0 0.00016762
21090.0 0.0001666
21110.0 0.00016561
21130.0 0.00016461
21150.0 0.00016354
21170.0 0.00016248
21190.0 0.00016146
21210.0 0.0001604
21230.0 0.00015933
21250.0 0.00015832
21270.0 0.00015734
21290.0 0.00015634
21310.0 0.00015538
21330.0 0.0001545
21350.0 0.0001536
21370.0 0.00015272
21390.0 0.00015191
21410.0 0.00015114
21430.0 0.00015032
21450.0 0.00014958
21470.0 0.00014888
21490.0 0.00014818
21510.0 0.00014749
21530.0 0.00014685
21550.0 0.00014621
21570.0 0.00014555
21590.0 0.00014493
21610.0 0.00014433
21630.0 0.00014371
21650.0 0.00014306
21670.0 0.00014247
21690.0 0.00014187
21710.0 0.00014124
21730.0 0.00014063
21750.0 0.00014005
21770.0 0.0001394
21790.0 0.00013875
21810.0 0.00013814
21830.0 0.0001375
21850.0 0.00013683
21870.0 0.00013617
21890.0 0.00013554
21910.0 0.00013486
21930.0 0.00013418
21950.0 0.00013352
21970.0 0.00013285
21990.0 0.00013211
22010.0 0.00013143
22030.0 0.00013076
22050.0 0.00013006
22070.0 0.00012935
22090.0 0.0001287
22110.0 0.00012803
22130.0 0.00012734
22150.0 0.00012669
22170.0 0.00012608
22190.0 0.00012544
22210.0 0.00012483
22230.0 0.00012429
22250.0 0.00012376
22270.0 0.00012323
22290.0 0.00012277
22310.0 0.00012236
22330.0 0.00012193
22350.0 0.00012155
22370.0 0.00012123
22390.0 0.00012092
22410.0 0.00012062
22430.0 0.00012038
22450.0 0.00012017
22470.0 0.00011997
22490.0 0.00011979
22510.0 0.00011966
22530.0 0.00011953
22550.0 0.00011941
22570.0 0.00011933
22590.0 0.00011927
22610.0 0.00011922
22630.0 0.00011919
22650.0 0.00011921
22670.0 0.00011923
22690.0 0.00011927
22710.0 0.00011934
22730.0 0.00011945
22750.0 0.00011955
22770.0 0.0001197
22790.0 0.00011989
22810.0 0.00012009
22830.0 0.00012033
22850.0 0.00012061
22870.0 0.00012092
22890.0 0.00012126
22910.0 0.00012165
22930.0 0.00012209
22950.0 0.00012257
22970.0 0.0001231
22990.0 0.00012369
23010.0 0.00012434
23030.0 0.00012506
23050.0 0.00012583
23070.0 0.00012666
23090.0 0.00012757
23110.0 0.00012855
23130.0 0.00012957
23150.0 0.00013067
23170.0 0.00013184
23190.0 0.00013306
23210.0 0.00013431
23230.0 0.00013565
23250.0 0.00013702
23270.0 0.00013842
23290.0 0.00013986
23310.0 0.00014137
23330.0 0.00014287
23350.0 0.00014439
