#lamb flux
1010.0 1.2008e-08
1030.0 1.3281e-08
1050.0 1.4746e-08
1070.0 1.6394e-08
1090.0 1.8266e-08
1110.0 2.0186e-08
1130.0 2.2119e-08
1150.0 2.4143e-08
1170.0 2.6231e-08
1190.0 2.8212e-08
1210.0 3.0218e-08
1230.0 3.2292e-08
1250.0 3.4324e-08
1270.0 3.6297e-08
1290.0 3.8382e-08
1310.0 4.0466e-08
1330.0 4.2464e-08
1350.0 4.4485e-08
1370.0 4.6571e-08
1390.0 4.8605e-08
1410.0 5.0578e-08
1430.0 5.2642e-08
1450.0 5.4705e-08
1470.0 5.6699e-08
1490.0 5.8715e-08
1510.0 6.0844e-08
1530.0 6.2862e-08
1550.0 6.4853e-08
1570.0 6.6913e-08
1590.0 6.8976e-08
1610.0 7.0947e-08
1630.0 7.2981e-08
1650.0 7.5068e-08
1670.0 7.7088e-08
1690.0 7.9084e-08
1710.0 8.1158e-08
1730.0 8.3245e-08
1750.0 8.521e-08
1770.0 8.7234e-08
1790.0 8.9302e-08
1810.0 9.1306e-08
1830.0 9.3278e-08
1850.0 9.5374e-08
1870.0 9.7419e-08
1890.0 9.9399e-08
1910.0 1.0142e-07
1930.0 1.035e-07
1950.0 1.0549e-07
1970.0 1.0745e-07
1990.0 1.095e-07
2010.0 1.1151e-07
2030.0 1.1346e-07
2050.0 1.1548e-07
2070.0 1.1754e-07
2090.0 1.195e-07
2110.0 1.2145e-07
2130.0 1.2347e-07
2150.0 1.2545e-07
2170.0 1.2735e-07
2190.0 1.2933e-07
2210.0 1.3132e-07
2230.0 1.3324e-07
2250.0 1.3514e-07
2270.0 1.3714e-07
2290.0 1.3908e-07
2310.0 1.4094e-07
2330.0 1.4288e-07
2350.0 1.4487e-07
2370.0 1.4685e-07
2390.0 1.4899e-07
2410.0 1.5154e-07
2430.0 1.5446e-07
2450.0 1.5796e-07
2470.0 1.6244e-07
2490.0 1.6808e-07
2510.0 1.745e-07
2530.0 1.8222e-07
2550.0 1.9189e-07
2570.0 2.0392e-07
2590.0 2.1956e-07
2610.0 2.4298e-07
2630.0 2.7643e-07
2650.0 3.2015e-07
2670.0 3.7669e-07
2690.0 4.4616e-07
2710.0 5.2032e-07
2730.0 5.936e-07
2750.0 6.6578e-07
2770.0 7.2856e-07
2790.0 7.7842e-07
2810.0 8.1798e-07
2830.0 8.4889e-07
2850.0 8.6999e-07
2870.0 8.8548e-07
2890.0 8.9774e-07
2910.0 9.0753e-07
2930.0 9.1553e-07
2950.0 9.2316e-07
2970.0 9.3062e-07
2990.0 9.3762e-07
3010.0 2.6502e-05
3030.0 2.67e-05
3050.0 2.6892e-05
3070.0 2.7056e-05
3090.0 2.7197e-05
3110.0 2.7284e-05
3130.0 2.7281e-05
3150.0 2.716e-05
3170.0 2.6869e-05
3190.0 2.6412e-05
3210.0 2.5833e-05
3230.0 2.517e-05
3250.0 2.4515e-05
3270.0 2.4037e-05
3290.0 2.3771e-05
3310.0 2.3814e-05
3330.0 2.4159e-05
3350.0 2.4759e-05
3370.0 2.5616e-05
3390.0 2.6696e-05
3410.0 2.7871e-05
3430.0 2.9191e-05
3450.0 3.071e-05
3470.0 3.2369e-05
3490.0 3.4127e-05
3510.0 3.6114e-05
3530.0 3.8242e-05
3550.0 4.0396e-05
3570.0 4.2644e-05
3590.0 4.5088e-05
3610.0 4.7606e-05
3630.0 5.0117e-05
3650.0 5.2722e-05
3670.0 5.51e-05
3690.0 5.6877e-05
3710.0 5.7896e-05
3730.0 5.793e-05
3750.0 5.7124e-05
3770.0 5.6807e-05
3790.0 5.6469e-05
3810.0 5.5082e-05
3830.0 5.6787e-05
3850.0 6.3494e-05
3870.0 6.7176e-05
3890.0 6.6869e-05
3910.0 6.7155e-05
3930.0 6.8922e-05
3950.0 7.0011e-05
3970.0 6.3786e-05
3990.0 5.4885e-05
4010.0 0.0001645
4030.0 0.00019931
4050.0 0.0002285
4070.0 0.00019826
4090.0 0.00017957
4110.0 0.00015845
4130.0 0.00014584
4150.0 0.00015513
4170.0 0.00015281
4190.0 0.00016288
4210.0 0.00016139
4230.0 0.00017071
4250.0 0.00020195
4270.0 0.00020432
4290.0 0.00018828
4310.0 0.00019564
4330.0 0.0002081
4350.0 0.00023333
4370.0 0.00026554
4390.0 0.00024918
4410.0 0.0001841
4430.0 0.00015585
4450.0 0.00014321
4470.0 0.00010992
4490.0 0.00011862
4510.0 0.00017917
4530.0 0.00020664
4550.0 0.00020843
4570.0 0.00023454
4590.0 0.00026716
4610.0 0.00036034
4630.0 0.000468
4650.0 0.00050754
4670.0 0.00047003
4690.0 0.0004485
4710.0 0.00047409
4730.0 0.00044741
4750.0 0.0003345
4770.0 0.00024536
4790.0 0.00022912
4810.0 0.00021839
4830.0 0.00019993
4850.0 0.00021939
4870.0 0.00028984
4890.0 0.0003418
4910.0 0.00029989
4930.0 0.00026536
4950.0 0.00029154
4970.0 0.00037388
4990.0 0.00050669
5010.0 0.00058288
5030.0 0.00051397
5050.0 0.00034773
5070.0 0.00022917
5090.0 0.00018479
5110.0 0.00019004
5130.0 0.00021934
5150.0 0.00023763
5170.0 0.00023407
5190.0 0.00021872
5210.0 0.00022861
5230.0 0.00024032
5250.0 0.000259
5270.0 0.00027944
5290.0 0.00030968
5310.0 0.00036045
5330.0 0.00039888
5350.0 0.00039633
5370.0 0.00041631
5390.0 0.00047772
5410.0 0.00047729
5430.0 0.00042209
5450.0 0.0003878
5470.0 0.00041177
5490.0 0.00050306
5510.0 0.000629
5530.0 0.00072143
5550.0 0.00069727
5570.0 0.00063386
5590.0 0.00055115
5610.0 0.00050828
5630.0 0.00049287
5650.0 0.00046941
5670.0 0.0004448
5690.0 0.00039764
5710.0 0.00038771
5730.0 0.00035713
5750.0 0.0002518
5770.0 0.00019644
5790.0 0.00022261
5810.0 0.00025136
5830.0 0.00030846
5850.0 0.00036718
5870.0 0.00040739
5890.0 0.00041429
5910.0 0.00040644
5930.0 0.00038688
5950.0 0.00039423
5970.0 0.00044937
5990.0 0.00042252
6010.0 0.0003542
6030.0 0.00029925
6050.0 0.00026061
6070.0 0.00025918
6090.0 0.00028104
6110.0 0.00031425
6130.0 0.00031906
6150.0 0.00027452
6170.0 0.0002415
6190.0 0.00027177
6210.0 0.00035927
6230.0 0.00047147
6250.0 0.00051067
6270.0 0.00044626
6290.0 0.00037546
6310.0 0.00029311
6330.0 0.00022458
6350.0 0.00020032
6370.0 0.00021066
6390.0 0.00024353
6410.0 0.00030028
6430.0 0.00035065
6450.0 0.00040123
6470.0 0.00045942
6490.0 0.00055495
6510.0 0.00062051
6530.0 0.00060876
6550.0 0.00055048
6570.0 0.00046731
6590.0 0.00042138
6610.0 0.00036334
6630.0 0.00032917
6650.0 0.00031116
6670.0 0.00030229
6690.0 0.00027313
6710.0 0.00024828
6730.0 0.00017883
6750.0 0.0001773
6770.0 0.00019271
6790.0 0.0002215
6810.0 0.00020268
6830.0 0.0002087
6850.0 0.0001952
6870.0 0.00017832
6890.0 0.00017121
6910.0 0.00018245
6930.0 0.00017089
6950.0 0.00017582
6970.0 0.00018493
6990.0 0.00020991
7010.0 0.0002117
7030.0 0.00021506
7050.0 0.00020509
7070.0 0.00019542
7090.0 0.00019599
7110.0 0.00020166
7130.0 0.00021702
7150.0 0.00023049
7170.0 0.00025433
7190.0 0.00027958
7210.0 0.00027472
7230.0 0.00028242
7250.0 0.0003035
7270.0 0.00033075
7290.0 0.00039256
7310.0 0.00042597
7330.0 0.00041173
7350.0 0.00037239
7370.0 0.00032401
7390.0 0.00031433
7410.0 0.00033404
7430.0 0.00037124
7450.0 0.00040435
7470.0 0.00040063
7490.0 0.0003653
7510.0 0.0004138
7530.0 0.00040927
7550.0 0.00036786
7570.0 0.00028737
7590.0 0.00019756
7610.0 0.00016956
7630.0 0.00019266
7650.0 0.00022779
7670.0 0.0002835
7690.0 0.00031198
7710.0 0.00032512
7730.0 0.00034166
7750.0 0.00038355
7770.0 0.00038959
7790.0 0.00035786
7810.0 0.00032652
7830.0 0.00033672
7850.0 0.00032732
7870.0 0.0003001
7890.0 0.00025215
7910.0 0.00020496
7930.0 0.00019571
7950.0 0.0001783
7970.0 0.00016505
7990.0 0.00016411
8010.0 1.2159e-05
8030.0 1.2001e-05
8050.0 1.184e-05
8070.0 1.1996e-05
8090.0 1.2891e-05
8110.0 1.2671e-05
8130.0 1.0449e-05
8150.0 1.0177e-05
8170.0 8.7642e-06
8190.0 8.3044e-06
8210.0 1.0788e-05
8230.0 1.2012e-05
8250.0 1.0822e-05
8270.0 9.4189e-06
8290.0 9.1843e-06
8310.0 7.0693e-06
8330.0 4.7646e-06
8350.0 3.3815e-06
8370.0 2.1294e-06
8390.0 3.8945e-06
8410.0 4.538e-06
8430.0 5.5938e-06
8450.0 6.5687e-06
8470.0 8.1659e-06
8490.0 8.1075e-06
8510.0 7.9741e-06
8530.0 8.3202e-06
8550.0 1.123e-05
8570.0 1.3296e-05
8590.0 1.4343e-05
8610.0 1.812e-05
8630.0 2.1828e-05
8650.0 2.2829e-05
8670.0 2.4263e-05
8690.0 2.4404e-05
8710.0 2.21e-05
8730.0 2.0558e-05
8750.0 1.8145e-05
8770.0 1.7217e-05
8790.0 1.6915e-05
8810.0 1.621e-05
8830.0 1.296e-05
8850.0 9.4857e-06
8870.0 7.2628e-06
8890.0 7.1032e-06
8910.0 8.1423e-06
8930.0 9.2627e-06
8950.0 9.4407e-06
8970.0 9.4849e-06
8990.0 8.4578e-06
9010.0 8.8571e-05
9030.0 8.0254e-05
9050.0 8.0642e-05
9070.0 8.1279e-05
9090.0 8.1837e-05
9110.0 8.2527e-05
9130.0 8.3059e-05
9150.0 8.3473e-05
9170.0 8.3914e-05
9190.0 8.4384e-05
9210.0 8.488e-05
9230.0 8.5404e-05
9250.0 8.5935e-05
9270.0 8.6487e-05
9290.0 8.7055e-05
9310.0 8.7627e-05
9330.0 8.821e-05
9350.0 8.8815e-05
9370.0 8.9427e-05
9390.0 9.0044e-05
9410.0 9.068e-05
9430.0 9.1335e-05
9450.0 9.1987e-05
9470.0 9.2654e-05
9490.0 9.3339e-05
9510.0 9.4032e-05
9530.0 9.4729e-05
9550.0 9.545e-05
9570.0 9.6183e-05
9590.0 9.6919e-05
9610.0 9.7667e-05
9630.0 9.8436e-05
9650.0 9.921e-05
9670.0 9.9987e-05
9690.0 0.00010078
9710.0 0.00010159
9730.0 0.0001024
9750.0 0.00010323
9770.0 0.00010408
9790.0 0.00010492
9810.0 0.00010577
9830.0 0.00010664
9850.0 0.00010752
9870.0 0.0001084
9890.0 0.00010929
9910.0 0.00011019
9930.0 0.0001111
9950.0 0.00011201
9970.0 0.00011294
9990.0 0.00011388
10010.0 9.882e-05
10030.0 9.9631e-05
10050.0 0.00010046
10070.0 0.00010132
10090.0 0.00010212
10110.0 0.00010295
10130.0 0.00010378
10150.0 0.00010461
10170.0 0.00010545
10190.0 0.0001063
10210.0 0.00010714
10230.0 0.00010798
10250.0 0.00010883
10270.0 0.00010969
10290.0 0.00011053
10310.0 0.00011138
10330.0 0.00011224
10350.0 0.00011309
10370.0 0.00011393
10390.0 0.00011478
10410.0 0.00011563
10430.0 0.00011647
10450.0 0.00011731
10470.0 0.00011815
10490.0 0.00011898
10510.0 0.0001198
10530.0 0.00012064
10550.0 0.00012146
10570.0 0.00012227
10590.0 0.00012308
10610.0 0.00012389
10630.0 0.00012468
10650.0 0.00012546
10670.0 0.00012625
10690.0 0.00012703
10710.0 0.00012779
10730.0 0.00012855
10750.0 0.00012931
10770.0 0.00013004
10790.0 0.00013077
10810.0 0.00013149
10830.0 0.00013219
10850.0 0.00013286
10870.0 0.0001335
10890.0 0.00013407
10910.0 0.00013451
10930.0 0.00013475
10950.0 0.0001347
10970.0 0.00013424
10990.0 0.00013335
11010.0 0.00013184
11030.0 0.00012974
11050.0 0.00012719
11070.0 0.00012413
11090.0 0.00012046
11110.0 0.00011666
11130.0 0.0001127
11150.0 0.00010843
11170.0 0.00010403
11190.0 9.9766e-05
11210.0 9.5361e-05
11230.0 9.0843e-05
11250.0 8.6526e-05
11270.0 8.2381e-05
11290.0 7.8228e-05
11310.0 7.4294e-05
11330.0 7.0829e-05
11350.0 6.7556e-05
11370.0 6.4531e-05
11390.0 6.1914e-05
11410.0 5.9625e-05
11430.0 5.7498e-05
11450.0 5.5666e-05
11470.0 5.4081e-05
11490.0 5.2606e-05
11510.0 5.1185e-05
11530.0 4.9867e-05
11550.0 4.8557e-05
11570.0 4.716e-05
11590.0 4.5713e-05
11610.0 4.424e-05
11630.0 4.2637e-05
11650.0 4.092e-05
11670.0 3.9229e-05
11690.0 3.7513e-05
11710.0 3.5744e-05
11730.0 3.4029e-05
11750.0 3.2442e-05
11770.0 3.0886e-05
11790.0 2.9427e-05
11810.0 2.8143e-05
11830.0 2.6995e-05
11850.0 2.5937e-05
11870.0 2.5052e-05
11890.0 2.4317e-05
11910.0 2.3671e-05
11930.0 2.3115e-05
11950.0 2.2653e-05
11970.0 2.2239e-05
11990.0 2.1849e-05
12010.0 2.1487e-05
12030.0 2.1139e-05
12050.0 2.0779e-05
12070.0 2.0404e-05
12090.0 2.0043e-05
12110.0 1.9677e-05
12130.0 1.931e-05
12150.0 1.8971e-05
12170.0 1.8676e-05
12190.0 1.842e-05
12210.0 1.8242e-05
12230.0 1.8155e-05
12250.0 1.8169e-05
12270.0 1.8306e-05
12290.0 1.8565e-05
12310.0 1.8937e-05
12330.0 1.9457e-05
12350.0 2.0105e-05
12370.0 2.0844e-05
12390.0 2.1695e-05
12410.0 2.2693e-05
12430.0 2.3707e-05
12450.0 2.4757e-05
12470.0 2.5874e-05
12490.0 2.6996e-05
12510.0 2.8048e-05
12530.0 2.9095e-05
12550.0 3.0104e-05
12570.0 3.0996e-05
12590.0 3.1778e-05
12610.0 3.2476e-05
12630.0 3.3032e-05
12650.0 3.3415e-05
12670.0 3.3667e-05
12690.0 3.3768e-05
12710.0 3.3713e-05
12730.0 3.3517e-05
12750.0 3.3169e-05
12770.0 3.269e-05
12790.0 3.211e-05
12810.0 3.1417e-05
12830.0 3.0615e-05
12850.0 2.9777e-05
12870.0 2.8891e-05
12890.0 2.7932e-05
12910.0 2.6957e-05
12930.0 2.5996e-05
12950.0 2.4993e-05
12970.0 2.3972e-05
12990.0 2.3007e-05
13010.0 2.2053e-05
13030.0 2.1089e-05
13050.0 2.0163e-05
13070.0 1.9295e-05
13090.0 1.8424e-05
13110.0 1.7582e-05
13130.0 1.6806e-05
13150.0 1.607e-05
13170.0 1.535e-05
13190.0 1.4709e-05
13210.0 1.4145e-05
13230.0 1.363e-05
13250.0 1.3186e-05
13270.0 1.2836e-05
13290.0 1.2563e-05
13310.0 1.2376e-05
13330.0 1.229e-05
13350.0 1.23e-05
13370.0 1.2411e-05
13390.0 1.2627e-05
13410.0 1.292e-05
13430.0 1.3301e-05
13450.0 1.3771e-05
13470.0 1.4293e-05
13490.0 1.4846e-05
13510.0 1.547e-05
13530.0 1.6102e-05
13550.0 1.6707e-05
13570.0 1.7304e-05
13590.0 1.7885e-05
13610.0 1.8403e-05
13630.0 1.8854e-05
13650.0 1.9267e-05
13670.0 1.9609e-05
13690.0 1.9874e-05
13710.0 2.0078e-05
13730.0 2.0224e-05
13750.0 2.0298e-05
13770.0 2.0314e-05
13790.0 2.0277e-05
13810.0 2.0188e-05
13830.0 2.0056e-05
13850.0 1.9876e-05
13870.0 1.965e-05
13890.0 1.9392e-05
13910.0 1.9101e-05
13930.0 1.8763e-05
13950.0 1.8395e-05
13970.0 1.8019e-05
13990.0 1.7609e-05
14010.0 1.7173e-05
14030.0 1.6738e-05
14050.0 1.63e-05
14070.0 1.5838e-05
14090.0 1.5394e-05
14110.0 1.4978e-05
14130.0 1.4574e-05
14150.0 1.4194e-05
14170.0 1.387e-05
14190.0 1.3589e-05
14210.0 1.3351e-05
14230.0 1.3175e-05
14250.0 1.3061e-05
14270.0 1.3006e-05
14290.0 1.3018e-05
14310.0 1.309e-05
14330.0 1.3221e-05
14350.0 1.3412e-05
14370.0 1.3651e-05
14390.0 1.3923e-05
14410.0 1.4242e-05
14430.0 1.4593e-05
14450.0 1.4951e-05
14470.0 1.5323e-05
14490.0 1.5719e-05
14510.0 1.6097e-05
14530.0 1.6456e-05
14550.0 1.6815e-05
14570.0 1.7159e-05
14590.0 1.7473e-05
14610.0 1.7776e-05
14630.0 1.8077e-05
14650.0 1.8356e-05
14670.0 1.8626e-05
14690.0 1.8908e-05
14710.0 1.9204e-05
14730.0 1.95e-05
14750.0 1.9828e-05
14770.0 2.02e-05
14790.0 2.0603e-05
14810.0 2.104e-05
14830.0 2.1558e-05
14850.0 2.2121e-05
14870.0 2.2708e-05
14890.0 2.3341e-05
14910.0 2.4014e-05
14930.0 2.4661e-05
14950.0 2.5265e-05
14970.0 2.5837e-05
14990.0 2.6317e-05
15010.0 2.6684e-05
15030.0 2.6956e-05
15050.0 2.7136e-05
15070.0 2.7224e-05
15090.0 2.7254e-05
15110.0 2.7246e-05
15130.0 2.7211e-05
15150.0 2.7165e-05
15170.0 2.7111e-05
15190.0 2.7052e-05
15210.0 2.6995e-05
15230.0 2.6938e-05
15250.0 2.6878e-05
15270.0 2.6819e-05
15290.0 2.6764e-05
15310.0 2.6706e-05
15330.0 2.6649e-05
15350.0 2.6593e-05
15370.0 2.6538e-05
15390.0 2.648e-05
15410.0 2.6424e-05
15430.0 2.637e-05
15450.0 2.6314e-05
15470.0 2.6258e-05
15490.0 2.6204e-05
15510.0 2.6151e-05
15530.0 2.6096e-05
15550.0 2.6042e-05
15570.0 2.599e-05
15590.0 2.5935e-05
15610.0 2.588e-05
15630.0 2.5828e-05
15650.0 2.5776e-05
15670.0 2.5722e-05
15690.0 2.5669e-05
15710.0 2.5618e-05
15730.0 2.5565e-05
15750.0 2.5512e-05
15770.0 2.5461e-05
15790.0 2.541e-05
15810.0 2.5356e-05
15830.0 2.5304e-05
15850.0 2.5254e-05
15870.0 2.5202e-05
15890.0 2.515e-05
15910.0 2.5101e-05
15930.0 2.505e-05
15950.0 2.4997e-05
15970.0 2.4946e-05
15990.0 2.4896e-05
16010.0 2.4845e-05
16030.0 2.4792e-05
16050.0 2.4743e-05
16070.0 2.4693e-05
16090.0 2.4641e-05
16110.0 2.4591e-05
16130.0 2.4542e-05
16150.0 2.4489e-05
16170.0 2.4438e-05
16190.0 2.4388e-05
16210.0 2.4338e-05
16230.0 2.4286e-05
16250.0 2.4236e-05
16270.0 2.4187e-05
16290.0 2.4135e-05
16310.0 2.4084e-05
16330.0 2.4035e-05
16350.0 2.3984e-05
16370.0 2.393e-05
16390.0 2.3881e-05
16410.0 2.3831e-05
16430.0 2.3779e-05
16450.0 2.3728e-05
16470.0 2.3678e-05
16490.0 2.3627e-05
16510.0 2.3574e-05
16530.0 2.3524e-05
16550.0 2.3473e-05
16570.0 2.342e-05
16590.0 2.3368e-05
16610.0 2.3318e-05
16630.0 2.3267e-05
16650.0 2.3214e-05
16670.0 2.3163e-05
16690.0 2.3112e-05
16710.0 2.3058e-05
16730.0 2.3006e-05
16750.0 2.2955e-05
16770.0 2.2902e-05
16790.0 2.2848e-05
16810.0 2.2797e-05
16830.0 2.2745e-05
16850.0 2.2691e-05
16870.0 2.2638e-05
16890.0 2.2587e-05
16910.0 2.2532e-05
16930.0 2.2477e-05
16950.0 2.2425e-05
16970.0 2.2372e-05
16990.0 2.2317e-05
17010.0 2.2264e-05
17030.0 2.2211e-05
17050.0 2.2156e-05
17070.0 2.2101e-05
17090.0 2.2048e-05
17110.0 2.1994e-05
17130.0 2.1937e-05
17150.0 2.1882e-05
17170.0 2.1829e-05
17190.0 2.1773e-05
17210.0 2.1717e-05
17230.0 2.1664e-05
17250.0 2.1608e-05
17270.0 2.1551e-05
17290.0 2.1496e-05
17310.0 2.1441e-05
17330.0 2.1384e-05
17350.0 2.1326e-05
17370.0 2.1272e-05
17390.0 2.1216e-05
17410.0 2.1158e-05
17430.0 2.1102e-05
17450.0 2.1046e-05
17470.0 2.0987e-05
17490.0 2.0929e-05
17510.0 2.0873e-05
17530.0 2.0816e-05
17550.0 2.0757e-05
17570.0 2.07e-05
17590.0 2.0643e-05
17610.0 2.0584e-05
17630.0 2.0526e-05
17650.0 2.0469e-05
17670.0 2.041e-05
17690.0 2.0349e-05
17710.0 2.0292e-05
17730.0 2.0234e-05
17750.0 2.0174e-05
17770.0 2.0115e-05
17790.0 2.0058e-05
17810.0 1.9997e-05
17830.0 1.9937e-05
17850.0 1.9878e-05
17870.0 1.9819e-05
17890.0 1.9758e-05
17910.0 1.9697e-05
17930.0 1.9639e-05
17950.0 1.9579e-05
17970.0 1.9517e-05
17990.0 1.9458e-05
18010.0 1.9399e-05
18030.0 1.9336e-05
18050.0 1.9275e-05
18070.0 1.9216e-05
18090.0 1.9154e-05
18110.0 1.9092e-05
18130.0 1.9032e-05
18150.0 1.8972e-05
18170.0 1.8909e-05
18190.0 1.8848e-05
18210.0 1.8788e-05
18230.0 1.8726e-05
18250.0 1.8662e-05
18270.0 1.8602e-05
18290.0 1.8541e-05
18310.0 1.8478e-05
18330.0 1.8416e-05
18350.0 1.8356e-05
18370.0 1.8293e-05
18390.0 1.823e-05
18410.0 1.8169e-05
18430.0 1.8107e-05
18450.0 1.8042e-05
18470.0 1.798e-05
18490.0 1.7919e-05
18510.0 1.7856e-05
18530.0 1.7793e-05
18550.0 1.7732e-05
18570.0 1.7669e-05
18590.0 1.7604e-05
18610.0 1.7542e-05
18630.0 1.748e-05
18650.0 1.7416e-05
18670.0 1.7352e-05
18690.0 1.7291e-05
18710.0 1.7228e-05
18730.0 1.7164e-05
18750.0 1.7102e-05
18770.0 1.704e-05
18790.0 1.6975e-05
18810.0 1.6911e-05
18830.0 1.6849e-05
18850.0 1.6786e-05
18870.0 1.6721e-05
18890.0 1.6659e-05
18910.0 1.6597e-05
18930.0 1.6532e-05
18950.0 1.6468e-05
18970.0 1.6406e-05
18990.0 1.6343e-05
19010.0 1.6277e-05
19030.0 1.6215e-05
19050.0 1.6152e-05
19070.0 1.6088e-05
19090.0 1.6024e-05
19110.0 1.5963e-05
19130.0 1.5898e-05
19150.0 1.5833e-05
19170.0 1.5771e-05
19190.0 1.5708e-05
19210.0 1.5643e-05
19230.0 1.5579e-05
19250.0 1.5518e-05
19270.0 1.5454e-05
19290.0 1.5389e-05
19310.0 1.5327e-05
19330.0 1.5265e-05
19350.0 1.5199e-05
19370.0 1.5136e-05
19390.0 1.5073e-05
19410.0 1.5009e-05
19430.0 1.4945e-05
19450.0 1.4883e-05
19470.0 1.482e-05
19490.0 1.4756e-05
19510.0 1.4693e-05
19530.0 1.4631e-05
19550.0 1.4566e-05
19570.0 1.4502e-05
19590.0 1.444e-05
19610.0 1.4377e-05
19630.0 1.4313e-05
19650.0 1.425e-05
19670.0 1.4189e-05
19690.0 1.4124e-05
19710.0 1.4061e-05
19730.0 1.3999e-05
19750.0 1.3936e-05
19770.0 1.3871e-05
19790.0 1.3809e-05
19810.0 1.3747e-05
19830.0 1.3683e-05
19850.0 1.3619e-05
19870.0 1.3556e-05
19890.0 1.3488e-05
19910.0 1.3414e-05
19930.0 1.3334e-05
19950.0 1.3243e-05
19970.0 1.3131e-05
19990.0 1.2996e-05
20010.0 1.1562e-05
20030.0 1.1395e-05
20050.0 1.1199e-05
20070.0 1.0987e-05
20090.0 1.0759e-05
20110.0 1.0501e-05
20130.0 1.0239e-05
20150.0 9.9801e-06
20170.0 9.7115e-06
20190.0 9.4391e-06
20210.0 9.1818e-06
20230.0 8.9308e-06
20250.0 8.6793e-06
20270.0 8.4458e-06
20290.0 8.2327e-06
20310.0 8.0302e-06
20330.0 7.8409e-06
20350.0 7.6838e-06
20370.0 7.5444e-06
20390.0 7.4221e-06
20410.0 7.3233e-06
20430.0 7.2472e-06
20450.0 7.1869e-06
20470.0 7.1465e-06
20490.0 7.1247e-06
20510.0 7.1185e-06
20530.0 7.1273e-06
20550.0 7.1493e-06
20570.0 7.1813e-06
20590.0 7.2246e-06
20610.0 7.2771e-06
20630.0 7.335e-06
20650.0 7.3996e-06
20670.0 7.4735e-06
20690.0 7.5489e-06
20710.0 7.6268e-06
20730.0 7.7109e-06
20750.0 7.7986e-06
20770.0 7.8849e-06
20790.0 7.9756e-06
20810.0 8.0714e-06
20830.0 8.1668e-06
20850.0 8.2626e-06
20870.0 8.3652e-06
20890.0 8.4698e-06
20910.0 8.5707e-06
20930.0 8.6754e-06
20950.0 8.7839e-06
20970.0 8.8897e-06
20990.0 8.994e-06
21010.0 9.1037e-06
21030.0 9.211e-06
21050.0 9.3134e-06
21070.0 9.4156e-06
21090.0 9.5181e-06
21110.0 9.6116e-06
21130.0 9.6995e-06
21150.0 9.7846e-06
21170.0 9.8616e-06
21190.0 9.9279e-06
21210.0 9.9876e-06
21230.0 1.0037e-05
21250.0 1.0073e-05
21270.0 1.0095e-05
21290.0 1.0103e-05
21310.0 1.0095e-05
21330.0 1.0071e-05
21350.0 1.003e-05
21370.0 9.9682e-06
21390.0 9.8902e-06
21410.0 9.7946e-06
21430.0 9.6735e-06
21450.0 9.5377e-06
21470.0 9.3897e-06
21490.0 9.2223e-06
21510.0 9.0387e-06
21530.0 8.8522e-06
21550.0 8.6568e-06
21570.0 8.4484e-06
21590.0 8.2434e-06
21610.0 8.0454e-06
21630.0 7.8471e-06
21650.0 7.6534e-06
21670.0 7.4855e-06
21690.0 7.3307e-06
21710.0 7.1912e-06
21730.0 7.077e-06
21750.0 6.9889e-06
21770.0 6.9217e-06
21790.0 6.8831e-06
21810.0 6.8724e-06
21830.0 6.8876e-06
21850.0 6.9307e-06
21870.0 6.9978e-06
21890.0 7.0846e-06
21910.0 7.1958e-06
21930.0 7.3263e-06
21950.0 7.4677e-06
21970.0 7.6242e-06
21990.0 7.8e-06
22010.0 7.9757e-06
22030.0 8.154e-06
22050.0 8.3414e-06
22070.0 8.5298e-06
22090.0 8.7082e-06
22110.0 8.888e-06
22130.0 9.0675e-06
22150.0 9.2352e-06
22170.0 9.3933e-06
22190.0 9.5499e-06
22210.0 9.6957e-06
22230.0 9.824e-06
22250.0 9.9448e-06
22270.0 1.0056e-05
22290.0 1.0151e-05
22310.0 1.0233e-05
22330.0 1.0305e-05
22350.0 1.036e-05
22370.0 1.0399e-05
22390.0 1.0424e-05
22410.0 1.0432e-05
22430.0 1.0422e-05
22450.0 1.0395e-05
22470.0 1.0348e-05
22490.0 1.0283e-05
22510.0 1.0202e-05
22530.0 1.0098e-05
22550.0 9.9716e-06
22570.0 9.8314e-06
22590.0 9.6733e-06
22610.0 9.4914e-06
22630.0 9.2945e-06
