#lamb flux
1010.0 0.0003585
1030.0 0.00047017
1050.0 0.00061202
1070.0 0.000789
1090.0 0.0010107
1110.0 0.0012684
1130.0 0.0015614
1150.0 0.0018996
1170.0 0.002282
1190.0 0.0026862
1210.0 0.0031206
1230.0 0.0035867
1250.0 0.0040611
1270.0 0.0045293
1290.0 0.0050044
1310.0 0.0054568
1330.0 0.0058588
1350.0 0.0062148
1370.0 0.0065213
1390.0 0.0067504
1410.0 0.0068962
1430.0 0.0069802
1450.0 0.0069893
1470.0 0.0069184
1490.0 0.0067884
1510.0 0.006614
1530.0 0.0063795
1550.0 0.0061098
1570.0 0.0058268
1590.0 0.005531
1610.0 0.0052242
1630.0 0.0049277
1650.0 0.0046452
1670.0 0.0043734
1690.0 0.0041195
1710.0 0.0038916
1730.0 0.0036866
1750.0 0.003499
1770.0 0.0033379
1790.0 0.0032015
1810.0 0.0030849
1830.0 0.0029888
1850.0 0.0029174
1870.0 0.0028635
1890.0 0.0028259
1910.0 0.0028073
1930.0 0.0028068
1950.0 0.0028195
1970.0 0.002847
1990.0 0.0028912
2010.0 0.0029487
2030.0 0.0030178
2050.0 0.0031018
2070.0 0.0032002
2090.0 0.0033076
2110.0 0.0034268
2130.0 0.0035593
2150.0 0.0037019
2170.0 0.0038524
2190.0 0.0040154
2210.0 0.0041885
2230.0 0.004368
2250.0 0.0045556
2270.0 0.0047543
2290.0 0.004958
2310.0 0.0051651
2330.0 0.0053801
2350.0 0.0056006
2370.0 0.0058216
2390.0 0.0060459
2410.0 0.0062756
2430.0 0.0065036
2450.0 0.0067301
2470.0 0.0069609
2490.0 0.0071988
2510.0 0.0074428
2530.0 0.0077125
2550.0 0.0080341
2570.0 0.0084289
2590.0 0.0089266
2610.0 0.0096192
2630.0 0.010545
2650.0 0.011703
2670.0 0.013167
2690.0 0.014993
2710.0 0.01705
2730.0 0.019258
2750.0 0.021682
2770.0 0.024096
2790.0 0.0263
2810.0 0.028304
2830.0 0.030092
2850.0 0.031441
2870.0 0.032483
2890.0 0.033321
2910.0 0.033959
2930.0 0.034418
2950.0 0.034813
2970.0 0.035155
2990.0 0.035413
3010.0 0.035621
3030.0 0.035823
3050.0 0.035992
3070.0 0.036086
3090.0 0.036177
3110.0 0.036264
3130.0 0.036343
3150.0 0.036082
3170.0 0.036104
3190.0 0.036345
3210.0 0.036956
3230.0 0.038256
3250.0 0.040953
3270.0 0.044702
3290.0 0.048688
3310.0 0.052879
3330.0 0.054027
3350.0 0.054355
3370.0 0.054662
3390.0 0.054908
3410.0 0.054916
3430.0 0.054737
3450.0 0.05451
3470.0 0.054387
3490.0 0.053834
3510.0 0.051741
3530.0 0.047338
3550.0 0.04468
3570.0 0.049746
3590.0 0.057822
3610.0 0.06399
3630.0 0.072902
3650.0 0.071582
3670.0 0.062018
3690.0 0.053042
3710.0 0.049504
3730.0 0.050931
3750.0 0.052064
3770.0 0.053485
3790.0 0.05501
3810.0 0.056853
3830.0 0.052512
3850.0 0.04666
3870.0 0.043707
3890.0 0.046233
3910.0 0.047895
3930.0 0.048108
3950.0 0.050866
3970.0 0.054164
3990.0 0.054759
4010.0 0.055659
4030.0 0.053823
4050.0 0.052367
4070.0 0.051463
4090.0 0.051934
4110.0 0.052672
4130.0 0.051527
4150.0 0.049627
4170.0 0.049025
4190.0 0.048554
4210.0 0.045282
4230.0 0.041823
4250.0 0.03778
4270.0 0.034191
4290.0 0.033055
4310.0 0.032647
4330.0 0.033705
4350.0 0.037305
4370.0 0.039078
4390.0 0.0432
4410.0 0.046532
4430.0 0.047844
4450.0 0.044462
4470.0 0.040781
4490.0 0.039828
4510.0 0.039198
4530.0 0.039253
4550.0 0.039216
4570.0 0.039894
4590.0 0.04145
4610.0 0.042472
4630.0 0.043453
4650.0 0.043918
4670.0 0.043727
4690.0 0.041273
4710.0 0.038951
4730.0 0.037094
4750.0 0.036131
4770.0 0.034977
4790.0 0.035188
4810.0 0.034588
4830.0 0.032483
4850.0 0.034952
4870.0 0.033068
4890.0 0.033901
4910.0 0.034462
4930.0 0.032757
4950.0 0.028138
4970.0 0.02641
4990.0 0.024955
5010.0 0.023298
5030.0 0.023313
5050.0 0.025107
5070.0 0.025694
5090.0 0.026934
5110.0 0.027297
5130.0 0.027112
5150.0 0.02758
5170.0 0.026474
5190.0 0.026279
5210.0 0.026799
5230.0 0.025673
5250.0 0.026248
5270.0 0.027632
5290.0 0.027161
5310.0 0.025654
5330.0 0.024891
5350.0 0.023318
5370.0 0.022874
5390.0 0.022687
5410.0 0.022039
5430.0 0.022494
5450.0 0.02162
5470.0 0.021663
5490.0 0.023943
5510.0 0.024279
5530.0 0.024317
5550.0 0.024174
5570.0 0.024597
5590.0 0.024754
5610.0 0.024474
5630.0 0.024173
5650.0 0.023858
5670.0 0.02333
5690.0 0.022895
5710.0 0.022265
5730.0 0.022669
5750.0 0.021888
5770.0 0.020782
5790.0 0.020106
5810.0 0.018697
5830.0 0.019438
5850.0 0.020127
5870.0 0.020066
5890.0 0.020198
5910.0 0.021028
5930.0 0.020943
5950.0 0.021024
5970.0 0.021028
5990.0 0.021247
6010.0 0.020736
6030.0 0.020443
6050.0 0.020223
6070.0 0.019833
6090.0 0.020078
6110.0 0.01986
6130.0 0.019203
6150.0 0.018749
6170.0 0.018323
6190.0 0.016901
6210.0 0.016639
6230.0 0.016818
6250.0 0.016646
6270.0 0.016548
6290.0 0.016955
6310.0 0.017457
6330.0 0.017416
6350.0 0.017056
6370.0 0.017073
6390.0 0.016428
6410.0 0.016326
6430.0 0.015842
6450.0 0.015766
6470.0 0.015721
6490.0 0.015731
6510.0 0.015192
6530.0 0.015073
6550.0 0.014853
6570.0 0.014491
6590.0 0.014781
6610.0 0.014773
6630.0 0.014481
6650.0 0.01397
6670.0 0.013723
6690.0 0.013453
6710.0 0.013082
6730.0 0.012904
6750.0 0.012995
6770.0 0.013325
6790.0 0.013304
6810.0 0.013188
6830.0 0.012565
6850.0 0.011891
6870.0 0.011695
6890.0 0.011618
6910.0 0.011588
6930.0 0.011447
6950.0 0.011566
6970.0 0.011248
6990.0 0.011109
7010.0 0.011131
7030.0 0.011273
7050.0 0.011084
7070.0 0.010456
7090.0 0.010004
7110.0 0.0099904
7130.0 0.01013
7150.0 0.010182
7170.0 0.010151
7190.0 0.0099434
7210.0 0.01039
7230.0 0.010759
7250.0 0.01077
7270.0 0.010778
7290.0 0.010982
7310.0 0.010722
7330.0 0.010465
7350.0 0.010086
7370.0 0.010142
7390.0 0.010374
7410.0 0.0097857
7430.0 0.0098771
7450.0 0.0097743
7470.0 0.0101
7490.0 0.009997
7510.0 0.0095262
7530.0 0.0097292
7550.0 0.0089448
7570.0 0.0086691
7590.0 0.0086745
7610.0 0.0090096
7630.0 0.009027
7650.0 0.0093662
7670.0 0.0086916
7690.0 0.0084351
7710.0 0.008819
7730.0 0.0093535
7750.0 0.009167
7770.0 0.0095785
7790.0 0.0096072
7810.0 0.0096068
7830.0 0.010203
7850.0 0.0097875
7870.0 0.010348
7890.0 0.01003
7910.0 0.0098883
7930.0 0.0094976
7950.0 0.0093908
7970.0 0.0096178
7990.0 0.0093487
8010.0 0.0089993
8030.0 0.0089092
8050.0 0.0087302
8070.0 0.0085664
8090.0 0.0079312
8110.0 0.0079641
8130.0 0.0084516
8150.0 0.0087514
8170.0 0.0088067
8190.0 0.009056
8210.0 0.0088934
8230.0 0.0086908
8250.0 0.0086669
8270.0 0.0085007
8290.0 0.008327
8310.0 0.0079246
8330.0 0.0079397
8350.0 0.0080359
8370.0 0.0080864
8390.0 0.0080863
8410.0 0.0079731
8430.0 0.0078809
8450.0 0.0078821
8470.0 0.0081436
8490.0 0.008239
8510.0 0.0079428
8530.0 0.0076473
8550.0 0.0076333
8570.0 0.0074679
8590.0 0.007308
8610.0 0.0074459
8630.0 0.0074197
8650.0 0.0073429
8670.0 0.0072903
8690.0 0.0072147
8710.0 0.0068896
8730.0 0.0069213
8750.0 0.0067459
8770.0 0.0067672
8790.0 0.006659
8810.0 0.0065004
8830.0 0.0065309
8850.0 0.0065084
8870.0 0.0062043
8890.0 0.0060045
8910.0 0.0057781
8930.0 0.0054689
8950.0 0.0053593
8970.0 0.0051313
8990.0 0.0050572
9010.0 0.0049055
9030.0 0.0048543
9050.0 0.0048234
9070.0 0.0047934
9090.0 0.0047631
9110.0 0.004732
9130.0 0.004701
9150.0 0.0046706
9170.0 0.0046398
9190.0 0.0046088
9210.0 0.0045775
9230.0 0.0045461
9250.0 0.0045147
9270.0 0.0044831
9290.0 0.0044514
9310.0 0.00442
9330.0 0.0043892
9350.0 0.0043582
9370.0 0.0043273
9390.0 0.0042964
9410.0 0.0042655
9430.0 0.0042346
9450.0 0.0042038
9470.0 0.0041758
9490.0 0.0041464
9510.0 0.0041142
9530.0 0.0040824
9550.0 0.0040513
9570.0 0.0040207
9590.0 0.0039902
9610.0 0.0039603
9630.0 0.0039308
9650.0 0.0039015
9670.0 0.0038721
9690.0 0.0038431
9710.0 0.0038143
9730.0 0.0037855
9750.0 0.0037569
9770.0 0.0037288
9790.0 0.0037007
9810.0 0.0036727
9830.0 0.003645
9850.0 0.0036149
9870.0 0.0035851
9890.0 0.0035604
9910.0 0.0035353
9930.0 0.003505
9950.0 0.0034787
9970.0 0.003455
9990.0 0.0034305
10010.0 0.0034063
10030.0 0.0033818
10050.0 0.003357
10070.0 0.0033326
10090.0 0.0033085
10110.0 0.0032843
10130.0 0.0032604
10150.0 0.0032371
10170.0 0.003214
10190.0 0.0031909
10210.0 0.0031684
10230.0 0.0031463
10250.0 0.0031242
10270.0 0.0031025
10290.0 0.0030813
10310.0 0.0030601
10330.0 0.003039
10350.0 0.0030186
10370.0 0.0029985
10390.0 0.0029783
10410.0 0.0029572
10430.0 0.0029364
10450.0 0.0029187
10470.0 0.0029004
10490.0 0.0028825
10510.0 0.0028647
10530.0 0.0028465
10550.0 0.0028288
10570.0 0.0028117
10590.0 0.0027945
10610.0 0.0027775
10630.0 0.0027611
10650.0 0.0027449
10670.0 0.0027286
10690.0 0.0027128
10710.0 0.0026974
10730.0 0.002682
10750.0 0.0026666
10770.0 0.0026521
10790.0 0.0026377
10810.0 0.0026232
10830.0 0.0026091
10850.0 0.0025957
10870.0 0.0025818
10890.0 0.0025682
10910.0 0.0025552
10930.0 0.0025424
10950.0 0.0025294
10970.0 0.0025167
10990.0 0.0025045
11010.0 0.0028279
11030.0 0.0028124
11050.0 0.0027955
11070.0 0.0027772
11090.0 0.0027569
11110.0 0.0027366
11130.0 0.0027159
11150.0 0.0026943
11170.0 0.0026724
11190.0 0.0026512
11210.0 0.0026294
11230.0 0.0026073
11250.0 0.0025859
11270.0 0.0025651
11290.0 0.002544
11310.0 0.0025235
11330.0 0.0025048
11350.0 0.0024865
11370.0 0.0024688
11390.0 0.0024526
11410.0 0.0024375
11430.0 0.0024225
11450.0 0.0024087
11470.0 0.0023958
11490.0 0.0023833
11510.0 0.0023709
11530.0 0.0023592
11550.0 0.0023478
11570.0 0.0023361
11590.0 0.0023243
11610.0 0.0023129
11630.0 0.0023008
11650.0 0.0022882
11670.0 0.0022759
11690.0 0.0022633
11710.0 0.00225
11730.0 0.0022366
11750.0 0.0022236
11770.0 0.0022098
11790.0 0.0021957
11810.0 0.0021821
11830.0 0.0021685
11850.0 0.0021543
11870.0 0.0021408
11890.0 0.0021281
11910.0 0.0021153
11930.0 0.002103
11950.0 0.0020919
11970.0 0.0020813
11990.0 0.0020711
12010.0 0.0020621
12030.0 0.0020542
12050.0 0.002047
12070.0 0.0020406
12090.0 0.0020357
12110.0 0.0020316
12130.0 0.0020282
12150.0 0.0020257
12170.0 0.0020241
12190.0 0.0020229
12210.0 0.0020221
12230.0 0.0020218
12250.0 0.0020215
12270.0 0.0020211
12290.0 0.0020206
12310.0 0.0020196
12330.0 0.002018
12350.0 0.0020157
12370.0 0.0020127
12390.0 0.0020087
12410.0 0.0020033
12430.0 0.0019972
12450.0 0.0019902
12470.0 0.0019818
12490.0 0.0019723
12510.0 0.0019624
12530.0 0.0019512
12550.0 0.0019387
12570.0 0.0019258
12590.0 0.0019124
12610.0 0.0018977
12630.0 0.0018824
12650.0 0.0018677
12670.0 0.0018521
12690.0 0.0018359
12710.0 0.0018202
12730.0 0.0018047
12750.0 0.0017883
12770.0 0.0017726
12790.0 0.0017577
12810.0 0.0017427
12830.0 0.0017279
12850.0 0.0017144
12870.0 0.0017016
12890.0 0.0016889
12910.0 0.0016773
12930.0 0.0016668
12950.0 0.0016569
12970.0 0.0016478
12990.0 0.0016402
13010.0 0.0016337
13030.0 0.001628
13050.0 0.0016235
13070.0 0.0016202
13090.0 0.0016177
13110.0 0.001616
13130.0 0.001615
13150.0 0.0016146
13170.0 0.0016144
13190.0 0.0016145
13210.0 0.0016144
13230.0 0.0016142
13250.0 0.0016135
13270.0 0.0016124
13290.0 0.0016107
13310.0 0.0016081
13330.0 0.0016049
13350.0 0.0016009
13370.0 0.001596
13390.0 0.00159
13410.0 0.0015835
13430.0 0.0015761
13450.0 0.0015675
13470.0 0.0015583
13490.0 0.0015485
13510.0 0.0015374
13530.0 0.0015256
13550.0 0.0015137
13570.0 0.001501
13590.0 0.0014875
13610.0 0.001474
13630.0 0.0014604
13650.0 0.001446
13670.0 0.0014314
13690.0 0.0014171
13710.0 0.0014023
13730.0 0.0013867
13750.0 0.0013719
13770.0 0.0013571
13790.0 0.0013418
13810.0 0.0013265
13830.0 0.001312
13850.0 0.001297
13870.0 0.001282
13890.0 0.0012676
13910.0 0.0012536
13930.0 0.0012393
13950.0 0.0012254
13970.0 0.0012126
13990.0 0.0011997
14010.0 0.001187
14030.0 0.0011751
14050.0 0.0011637
14070.0 0.0011522
14090.0 0.0011415
14110.0 0.0011314
14130.0 0.0011215
14150.0 0.0011119
14170.0 0.001103
14190.0 0.0010944
14210.0 0.0010859
14230.0 0.0010778
14250.0 0.0010701
14270.0 0.0010623
14290.0 0.0010546
14310.0 0.0010474
14330.0 0.0010403
14350.0 0.0010331
14370.0 0.0010262
14390.0 0.0010197
14410.0 0.0010131
14430.0 0.0010066
14450.0 0.0010004
14470.0 0.00099437
14490.0 0.00098821
14510.0 0.00098232
14530.0 0.00097662
14550.0 0.00097083
14570.0 0.00096504
14590.0 0.00095944
14610.0 0.00095374
14630.0 0.00094787
14650.0 0.00094209
14670.0 0.00093634
14690.0 0.0009304
14710.0 0.00092434
14730.0 0.00091848
14750.0 0.00091245
14770.0 0.00090623
14790.0 0.00090004
14810.0 0.00089388
14830.0 0.00088731
14850.0 0.00088072
14870.0 0.00087424
14890.0 0.00086763
14910.0 0.00086088
14930.0 0.00085439
14950.0 0.00084818
14970.0 0.00084204
14990.0 0.00083632
15010.0 0.00083114
15030.0 0.00082631
15050.0 0.00082174
15070.0 0.00081767
15090.0 0.00081383
15110.0 0.00081008
15130.0 0.00080644
15150.0 0.00080294
15170.0 0.0007994
15190.0 0.00079583
15210.0 0.00079234
15230.0 0.00078886
15250.0 0.00078531
15270.0 0.00078177
15290.0 0.00077834
15310.0 0.00077484
15330.0 0.00077131
15350.0 0.00076786
15370.0 0.00076441
15390.0 0.00076087
15410.0 0.00075738
15430.0 0.00075395
15450.0 0.00075047
15470.0 0.00074696
15490.0 0.00074354
15510.0 0.00074012
15530.0 0.00073664
15550.0 0.00073319
15570.0 0.00072981
15590.0 0.00072635
15610.0 0.00072286
15630.0 0.00071948
15650.0 0.00071609
15670.0 0.00071265
15690.0 0.00070925
15710.0 0.00070591
15730.0 0.0007025
15750.0 0.00069909
15770.0 0.00069576
15790.0 0.00069241
15810.0 0.00068899
15830.0 0.00068564
15850.0 0.00068235
15870.0 0.000679
15890.0 0.00067565
15910.0 0.00067239
15930.0 0.00066909
15950.0 0.00066574
15970.0 0.00066246
15990.0 0.00065922
16010.0 0.00065592
16030.0 0.00065262
16050.0 0.00064943
16070.0 0.0006462
16090.0 0.00064294
16110.0 0.00063973
16130.0 0.00063658
16150.0 0.00063332
16170.0 0.00063011
16190.0 0.00062698
16210.0 0.00062382
16230.0 0.00062062
16250.0 0.0006175
16270.0 0.00061442
16290.0 0.00061127
16310.0 0.00060815
16330.0 0.0006051
16350.0 0.00060203
16370.0 0.00059888
16390.0 0.00059586
16410.0 0.00059285
16430.0 0.0005898
16450.0 0.00058677
16470.0 0.00058383
16490.0 0.00058083
16510.0 0.00057782
16530.0 0.00057488
16550.0 0.00057196
16570.0 0.00056898
16590.0 0.00056604
16610.0 0.0005632
16630.0 0.0005603
16650.0 0.0005574
16670.0 0.00055458
16690.0 0.00055176
16710.0 0.00054887
16730.0 0.00054606
16750.0 0.00054329
16770.0 0.0005405
16790.0 0.00053769
16810.0 0.00053498
16830.0 0.00053227
16850.0 0.00052951
16870.0 0.00052681
16890.0 0.00052416
16910.0 0.00052146
16930.0 0.00051876
16950.0 0.00051615
16970.0 0.00051354
16990.0 0.0005109
17010.0 0.00050831
17030.0 0.00050578
17050.0 0.00050319
17070.0 0.00050063
17090.0 0.00049813
17110.0 0.00049563
17130.0 0.00049307
17150.0 0.0004906
17170.0 0.00048818
17190.0 0.00048571
17210.0 0.00048327
17230.0 0.0004809
17250.0 0.0004785
17270.0 0.00047607
17290.0 0.00047372
17310.0 0.0004714
17330.0 0.00046904
17350.0 0.00046669
17370.0 0.00046444
17390.0 0.00046216
17410.0 0.00045987
17430.0 0.00045763
17450.0 0.00045544
17470.0 0.00045317
17490.0 0.00045094
17510.0 0.00044879
17530.0 0.00044662
17550.0 0.00044443
17570.0 0.00044232
17590.0 0.00044023
17610.0 0.00043809
17630.0 0.00043599
17650.0 0.00043395
17670.0 0.00043189
17690.0 0.00042977
17710.0 0.00042778
17730.0 0.00042579
17750.0 0.00042376
17770.0 0.00042177
17790.0 0.00041986
17810.0 0.00041788
17830.0 0.00041591
17850.0 0.00041401
17870.0 0.00041212
17890.0 0.00041018
17910.0 0.00040828
17930.0 0.00040646
17950.0 0.0004046
17970.0 0.00040274
17990.0 0.00040095
18010.0 0.00039916
18030.0 0.00039731
18050.0 0.00039552
18070.0 0.00039379
18090.0 0.00039202
18110.0 0.00039024
18130.0 0.00038855
18150.0 0.00038685
18170.0 0.00038512
18190.0 0.00038343
18210.0 0.00038179
18230.0 0.00038009
18250.0 0.0003784
18270.0 0.00037679
18290.0 0.00037517
18310.0 0.00037353
18330.0 0.00037193
18350.0 0.00037038
18370.0 0.00036877
18390.0 0.00036718
18410.0 0.00036565
18430.0 0.00036411
18450.0 0.00036252
18470.0 0.000361
18490.0 0.00035952
18510.0 0.000358
18530.0 0.00035649
18550.0 0.00035505
18570.0 0.00035357
18590.0 0.00035206
18610.0 0.00035062
18630.0 0.0003492
18650.0 0.00034774
18670.0 0.00034629
18690.0 0.00034492
18710.0 0.00034351
18730.0 0.00034209
18750.0 0.00034071
18770.0 0.00033937
18790.0 0.00033794
18810.0 0.00033656
18830.0 0.00033524
18850.0 0.00033389
18870.0 0.00033251
18890.0 0.00033121
18910.0 0.00032991
18930.0 0.00032856
18950.0 0.00032724
18970.0 0.00032598
18990.0 0.00032467
19010.0 0.00032332
19030.0 0.00032207
19050.0 0.00032081
19070.0 0.00031952
19090.0 0.00031825
19110.0 0.00031704
19130.0 0.00031576
19150.0 0.00031448
19170.0 0.00031326
19190.0 0.00031204
19210.0 0.00031077
19230.0 0.00030953
19250.0 0.00030835
19270.0 0.00030713
19290.0 0.00030589
19310.0 0.00030471
19330.0 0.00030353
19350.0 0.00030227
19370.0 0.00030107
19390.0 0.00029991
19410.0 0.00029871
19430.0 0.00029749
19450.0 0.00029635
19470.0 0.00029518
19490.0 0.00029397
19510.0 0.0002928
19530.0 0.00029167
19550.0 0.00029046
19570.0 0.00028925
19590.0 0.00028813
19610.0 0.00028697
19630.0 0.00028578
19650.0 0.00028463
19670.0 0.00028351
19690.0 0.00028232
19710.0 0.00028114
19730.0 0.00028002
19750.0 0.00027887
19770.0 0.00027766
19790.0 0.00027652
19810.0 0.0002754
19830.0 0.00027423
19850.0 0.00027306
19870.0 0.00027197
19890.0 0.00027083
19910.0 0.00026969
19930.0 0.00026865
19950.0 0.00026768
19970.0 0.00026677
19990.0 0.000266
20010.0 0.00026542
20030.0 0.00026497
20050.0 0.00026466
20070.0 0.00026451
20090.0 0.00026448
20110.0 0.00026452
20130.0 0.00026465
20150.0 0.00026483
20170.0 0.00026505
20190.0 0.00026528
20210.0 0.00026554
20230.0 0.00026581
20250.0 0.00026607
20270.0 0.00026633
20290.0 0.0002666
20310.0 0.00026684
20330.0 0.00026706
20350.0 0.00026728
20370.0 0.00026747
20390.0 0.00026763
20410.0 0.00026778
20430.0 0.00026791
20450.0 0.00026801
20470.0 0.00026809
20490.0 0.00026817
20510.0 0.00026825
20530.0 0.0002683
20550.0 0.00026837
20570.0 0.00026846
20590.0 0.00026854
20610.0 0.00026863
20630.0 0.00026874
20650.0 0.00026886
20670.0 0.00026897
20690.0 0.0002691
20710.0 0.00026923
20730.0 0.00026935
20750.0 0.00026944
20770.0 0.00026952
20790.0 0.00026957
20810.0 0.00026956
20830.0 0.00026952
20850.0 0.00026944
20870.0 0.00026928
20890.0 0.00026905
20910.0 0.0002688
20930.0 0.00026848
20950.0 0.00026808
20970.0 0.00026766
20990.0 0.00026722
21010.0 0.00026668
21030.0 0.00026613
21050.0 0.00026559
21070.0 0.00026501
21090.0 0.00026439
21110.0 0.0002638
21130.0 0.00026322
21150.0 0.0002626
21170.0 0.00026199
21190.0 0.0002614
21210.0 0.00026078
21230.0 0.00026011
21250.0 0.00025948
21270.0 0.00025883
21290.0 0.00025811
21310.0 0.00025737
21330.0 0.00025665
21350.0 0.00025584
21370.0 0.00025498
21390.0 0.0002541
21410.0 0.00025319
21430.0 0.00025216
21450.0 0.00025112
21470.0 0.00025007
21490.0 0.00024894
21510.0 0.00024775
21530.0 0.00024657
21550.0 0.00024535
21570.0 0.00024403
21590.0 0.00024272
21610.0 0.00024141
21630.0 0.00024003
21650.0 0.00023857
21670.0 0.00023721
21690.0 0.00023579
21710.0 0.00023431
21730.0 0.00023285
21750.0 0.00023141
21770.0 0.00022987
21790.0 0.00022832
21810.0 0.0002268
21830.0 0.00022525
21850.0 0.00022362
21870.0 0.00022202
21890.0 0.00022045
21910.0 0.0002188
21930.0 0.00021713
21950.0 0.00021552
21970.0 0.00021387
21990.0 0.00021214
22010.0 0.0002105
22030.0 0.00020889
22050.0 0.00020725
22070.0 0.00020562
22090.0 0.0002041
22110.0 0.00020256
22130.0 0.00020103
22150.0 0.00019958
22170.0 0.00019819
22190.0 0.00019678
22210.0 0.00019543
22230.0 0.00019416
22250.0 0.00019291
22270.0 0.00019167
22290.0 0.00019048
22310.0 0.00018933
22330.0 0.00018815
22350.0 0.000187
22370.0 0.00018588
22390.0 0.00018474
22410.0 0.00018358
22430.0 0.00018245
22450.0 0.0001813
22470.0 0.00018012
22490.0 0.00017893
22510.0 0.00017775
22530.0 0.00017652
22550.0 0.00017526
22570.0 0.00017401
22590.0 0.00017275
22610.0 0.00017145
22630.0 0.00017015
22650.0 0.00016886
22670.0 0.00016754
22690.0 0.00016621
22710.0 0.00016489
22730.0 0.00016357
22750.0 0.00016222
22770.0 0.0001609
22790.0 0.00015959
22810.0 0.00015826
22830.0 0.00015694
22850.0 0.00015564
22870.0 0.00015433
22890.0 0.00015302
22910.0 0.00015171
22930.0 0.0001504
22950.0 0.00014908
22970.0 0.00014775
22990.0 0.00014642
23010.0 0.00014507
23030.0 0.0001437
23050.0 0.00014232
23070.0 0.00014091
23090.0 0.00013949
23110.0 0.00013804
23130.0 0.00013658
23150.0 0.0001351
23170.0 0.0001336
23190.0 0.00013209
23210.0 0.00013055
23230.0 0.00012901
23250.0 0.00012746
23270.0 0.00012589
23290.0 0.0001243
23310.0 0.00012271
23330.0 0.00012108
23350.0 0.00011943
23370.0 0.00011776
23390.0 0.00011604
23410.0 0.00011427
23430.0 0.00011246
23450.0 0.0001106
23470.0 0.00010866
23490.0 0.00010665
23510.0 0.00010458
23530.0 0.00010242
23550.0 0.00010017
23570.0 9.7829e-05
23590.0 9.5403e-05
