#lamb flux
1010.0 3.1206e-10
1030.0 3.9257e-10
1050.0 4.8519e-10
1070.0 5.8951e-10
1090.0 7.0807e-10
1110.0 8.2978e-10
1130.0 9.5238e-10
1150.0 1.0809e-09
1170.0 1.2136e-09
1190.0 1.3396e-09
1210.0 1.4674e-09
1230.0 1.5994e-09
1250.0 1.7289e-09
1270.0 1.8547e-09
1290.0 1.9875e-09
1310.0 2.1202e-09
1330.0 2.2473e-09
1350.0 2.3757e-09
1370.0 2.508e-09
1390.0 2.6368e-09
1410.0 2.7616e-09
1430.0 2.8918e-09
1450.0 3.0217e-09
1470.0 3.147e-09
1490.0 3.2735e-09
1510.0 3.407e-09
1530.0 3.5333e-09
1550.0 3.6578e-09
1570.0 3.7866e-09
1590.0 3.9156e-09
1610.0 4.0388e-09
1630.0 4.1659e-09
1650.0 4.2965e-09
1670.0 4.423e-09
1690.0 4.548e-09
1710.0 4.678e-09
1730.0 4.809e-09
1750.0 4.9324e-09
1770.0 5.0597e-09
1790.0 5.1898e-09
1810.0 5.3161e-09
1830.0 5.4405e-09
1850.0 5.5732e-09
1870.0 5.7031e-09
1890.0 5.8289e-09
1910.0 5.9576e-09
1930.0 6.0898e-09
1950.0 6.2164e-09
1970.0 6.342e-09
1990.0 6.4728e-09
2010.0 6.602e-09
2030.0 6.7271e-09
2050.0 6.8567e-09
2070.0 6.99e-09
2090.0 7.1165e-09
2110.0 7.2433e-09
2130.0 7.3745e-09
2150.0 7.504e-09
2170.0 7.6289e-09
2190.0 7.7591e-09
2210.0 7.8912e-09
2230.0 8.0194e-09
2250.0 8.148e-09
2270.0 8.2831e-09
2290.0 8.4153e-09
2310.0 8.5433e-09
2330.0 8.6763e-09
2350.0 8.8111e-09
2370.0 8.9415e-09
2390.0 9.0737e-09
2410.0 9.2127e-09
2430.0 9.35e-09
2450.0 9.4898e-09
2470.0 9.6447e-09
2490.0 9.825e-09
2510.0 1.0033e-08
2530.0 1.0302e-08
2550.0 1.0675e-08
2570.0 1.1175e-08
2590.0 1.1838e-08
2610.0 1.2785e-08
2630.0 1.404e-08
2650.0 1.5576e-08
2670.0 1.7472e-08
2690.0 1.9769e-08
2710.0 2.2286e-08
2730.0 2.4934e-08
2750.0 2.7799e-08
2770.0 3.0644e-08
2790.0 3.3289e-08
2810.0 3.5774e-08
2830.0 3.81e-08
2850.0 4.0055e-08
2870.0 4.1784e-08
2890.0 4.3395e-08
2910.0 4.4899e-08
2930.0 4.6326e-08
2950.0 4.7792e-08
2970.0 4.9316e-08
2990.0 5.0872e-08
3010.0 5.2492e-08
3030.0 5.4223e-08
3050.0 5.6036e-08
3070.0 5.7881e-08
3090.0 5.9835e-08
3110.0 6.1914e-08
3130.0 6.4146e-08
3150.0 6.6681e-08
3170.0 6.9916e-08
3190.0 7.4129e-08
3210.0 7.9644e-08
3230.0 8.6986e-08
3250.0 9.6316e-08
3270.0 1.052e-07
3290.0 1.1929e-07
3310.0 1.4813e-07
3330.0 1.5772e-07
3350.0 1.6243e-07
3370.0 1.6696e-07
3390.0 1.7157e-07
3410.0 1.7623e-07
3430.0 1.8093e-07
3450.0 1.8562e-07
3470.0 1.9023e-07
3490.0 1.9468e-07
3510.0 1.987e-07
3530.0 1.9692e-07
3550.0 1.9148e-07
3570.0 1.9431e-07
3590.0 2.0659e-07
3610.0 2.2516e-07
3630.0 2.3258e-07
3650.0 2.234e-07
3670.0 2.0517e-07
3690.0 1.9456e-07
3710.0 1.97e-07
3730.0 2.0349e-07
3750.0 2.0697e-07
3770.0 2.1394e-07
3790.0 2.2173e-07
3810.0 2.186e-07
3830.0 2.0372e-07
3850.0 1.904e-07
3870.0 1.8408e-07
3890.0 1.8198e-07
3910.0 1.7791e-07
3930.0 1.7586e-07
3950.0 1.8081e-07
3970.0 1.8662e-07
3990.0 1.883e-07
4010.0 1.8139e-07
4030.0 1.7152e-07
4050.0 1.6517e-07
4070.0 1.598e-07
4090.0 1.5546e-07
4110.0 1.4978e-07
4130.0 1.4083e-07
4150.0 1.3182e-07
4170.0 1.2647e-07
4190.0 1.1794e-07
4210.0 1.0677e-07
4230.0 9.5459e-08
4250.0 8.4723e-08
4270.0 7.6704e-08
4290.0 7.0781e-08
4310.0 6.7644e-08
4330.0 6.7532e-08
4350.0 6.7871e-08
4370.0 6.852e-08
4390.0 7.1057e-08
4410.0 7.2809e-08
4430.0 7.0292e-08
4450.0 6.382e-08
4470.0 5.8161e-08
4490.0 5.5087e-08
4510.0 5.311e-08
4530.0 5.2121e-08
4550.0 5.1272e-08
4570.0 5.1056e-08
4590.0 5.1757e-08
4610.0 5.3342e-08
4630.0 5.4287e-08
4650.0 5.4751e-08
4670.0 5.342e-08
4690.0 5.024e-08
4710.0 4.7072e-08
4730.0 4.5019e-08
4750.0 4.3758e-08
4770.0 4.3917e-08
4790.0 4.3745e-08
4810.0 4.2808e-08
4830.0 4.2896e-08
4850.0 4.4232e-08
4870.0 4.4674e-08
4890.0 4.387e-08
4910.0 4.2851e-08
4930.0 4.0411e-08
4950.0 3.6892e-08
4970.0 3.4481e-08
4990.0 3.2503e-08
5010.0 3.208e-08
5030.0 3.316e-08
5050.0 3.401e-08
5070.0 3.5281e-08
5090.0 3.7414e-08
5110.0 3.7984e-08
5130.0 3.8315e-08
5150.0 3.9021e-08
5170.0 3.9351e-08
5190.0 4.0382e-08
5210.0 4.0592e-08
5230.0 4.0174e-08
5250.0 4.0497e-08
5270.0 4.1061e-08
5290.0 4.1172e-08
5310.0 4.0865e-08
5330.0 4.0089e-08
5350.0 3.9544e-08
5370.0 3.9123e-08
5390.0 3.8604e-08
5410.0 3.8175e-08
5430.0 3.8161e-08
5450.0 3.8721e-08
5470.0 3.9441e-08
5490.0 4.0562e-08
5510.0 4.179e-08
5530.0 4.2306e-08
5550.0 4.2935e-08
5570.0 4.3029e-08
5590.0 4.2141e-08
5610.0 4.1836e-08
5630.0 4.215e-08
5650.0 4.164e-08
5670.0 4.0718e-08
5690.0 3.95e-08
5710.0 3.9394e-08
5730.0 3.981e-08
5750.0 3.8115e-08
5770.0 3.6159e-08
5790.0 3.3245e-08
5810.0 2.9084e-08
5830.0 3.135e-08
5850.0 3.4702e-08
5870.0 3.5452e-08
5890.0 3.5642e-08
5910.0 3.5935e-08
5930.0 3.5859e-08
5950.0 3.5266e-08
5970.0 3.4845e-08
5990.0 3.4344e-08
6010.0 3.3298e-08
6030.0 3.2158e-08
6050.0 3.1655e-08
6070.0 3.1511e-08
6090.0 3.1034e-08
6110.0 3.0001e-08
6130.0 2.8979e-08
6150.0 2.7817e-08
6170.0 2.6655e-08
6190.0 2.5457e-08
6210.0 2.4559e-08
6230.0 2.4204e-08
6250.0 2.3691e-08
6270.0 2.3196e-08
6290.0 2.3017e-08
6310.0 2.287e-08
6330.0 2.2367e-08
6350.0 2.164e-08
6370.0 2.1227e-08
6390.0 2.0807e-08
6410.0 2.0228e-08
6430.0 1.9679e-08
6450.0 1.9246e-08
6470.0 1.8835e-08
6490.0 1.8549e-08
6510.0 1.8227e-08
6530.0 1.7764e-08
6550.0 1.7371e-08
6570.0 1.7102e-08
6590.0 1.7075e-08
6610.0 1.6968e-08
6630.0 1.6401e-08
6650.0 1.5936e-08
6670.0 1.5771e-08
6690.0 1.5522e-08
6710.0 1.5149e-08
6730.0 1.5015e-08
6750.0 1.5132e-08
6770.0 1.603e-08
6790.0 1.791e-08
6810.0 1.7008e-08
6830.0 1.4943e-08
6850.0 1.4352e-08
6870.0 1.4132e-08
6890.0 1.4134e-08
6910.0 1.4164e-08
6930.0 1.4196e-08
6950.0 1.4153e-08
6970.0 1.3793e-08
6990.0 1.3669e-08
7010.0 1.3872e-08
7030.0 1.3938e-08
7050.0 1.3736e-08
7070.0 1.3595e-08
7090.0 1.3682e-08
7110.0 1.4001e-08
7130.0 1.4046e-08
7150.0 1.4099e-08
7170.0 1.4174e-08
7190.0 1.437e-08
7210.0 1.4526e-08
7230.0 1.4684e-08
7250.0 1.4879e-08
7270.0 1.5019e-08
7290.0 1.5256e-08
7310.0 1.5536e-08
7330.0 1.5416e-08
7350.0 1.5092e-08
7370.0 1.4888e-08
7390.0 1.4853e-08
7410.0 1.4913e-08
7430.0 1.5099e-08
7450.0 1.5193e-08
7470.0 1.5409e-08
7490.0 1.5321e-08
7510.0 1.5153e-08
7530.0 1.5332e-08
7550.0 1.5804e-08
7570.0 1.5765e-08
7590.0 1.4951e-08
7610.0 1.4829e-08
7630.0 1.5668e-08
7650.0 1.5983e-08
7670.0 1.6088e-08
7690.0 1.6804e-08
7710.0 1.7347e-08
7730.0 1.7515e-08
7750.0 1.8428e-08
7770.0 1.7957e-08
7790.0 1.7532e-08
7810.0 1.8572e-08
7830.0 1.9285e-08
7850.0 1.9766e-08
7870.0 2.0157e-08
7890.0 2.0311e-08
7910.0 2.0161e-08
7930.0 2.03e-08
7950.0 2.1217e-08
7970.0 2.1211e-08
7990.0 1.9757e-08
8010.0 1.8935e-08
8030.0 1.9316e-08
8050.0 1.9731e-08
8070.0 1.7847e-08
8090.0 1.1667e-08
8110.0 1.2186e-08
8130.0 1.741e-08
8150.0 1.8749e-08
8170.0 1.9494e-08
8190.0 1.9916e-08
8210.0 1.9666e-08
8230.0 2.1324e-08
8250.0 2.179e-08
8270.0 2.0603e-08
8290.0 1.9788e-08
8310.0 1.9501e-08
8330.0 2.0569e-08
8350.0 2.1542e-08
8370.0 2.1134e-08
8390.0 2.0153e-08
8410.0 2.0134e-08
8430.0 1.8864e-08
8450.0 1.928e-08
8470.0 2.1068e-08
8490.0 2.1132e-08
8510.0 1.9595e-08
8530.0 1.8362e-08
8550.0 1.76e-08
8570.0 1.6589e-08
8590.0 1.7063e-08
8610.0 1.8108e-08
8630.0 1.8592e-08
8650.0 1.8914e-08
8670.0 1.8393e-08
8690.0 1.7965e-08
8710.0 1.6707e-08
8730.0 1.6108e-08
8750.0 1.6768e-08
8770.0 1.7031e-08
8790.0 1.6976e-08
8810.0 1.6897e-08
8830.0 1.7259e-08
8850.0 1.8122e-08
8870.0 1.6922e-08
8890.0 1.5961e-08
8910.0 1.5726e-08
8930.0 1.4779e-08
8950.0 1.424e-08
8970.0 1.4234e-08
8990.0 1.3626e-08
9010.0 1.2792e-08
9030.0 1.2501e-08
9050.0 1.2397e-08
9070.0 1.2304e-08
9090.0 1.2211e-08
9110.0 1.2117e-08
9130.0 1.2022e-08
9150.0 1.1927e-08
9170.0 1.1832e-08
9190.0 1.1737e-08
9210.0 1.1641e-08
9230.0 1.1546e-08
9250.0 1.145e-08
9270.0 1.1355e-08
9290.0 1.126e-08
9310.0 1.1165e-08
9330.0 1.107e-08
9350.0 1.0975e-08
9370.0 1.0881e-08
9390.0 1.0787e-08
9410.0 1.0694e-08
9430.0 1.0602e-08
9450.0 1.0509e-08
9470.0 1.0418e-08
9490.0 1.0327e-08
9510.0 1.0237e-08
9530.0 1.0147e-08
9550.0 1.0059e-08
9570.0 9.9707e-09
9590.0 9.8835e-09
9610.0 9.7971e-09
9630.0 9.7115e-09
9650.0 9.6267e-09
9670.0 9.5428e-09
9690.0 9.4597e-09
9710.0 9.3775e-09
9730.0 9.2962e-09
9750.0 9.2157e-09
9770.0 9.1362e-09
9790.0 9.0576e-09
9810.0 8.9799e-09
9830.0 8.9031e-09
9850.0 8.8272e-09
9870.0 8.7522e-09
9890.0 8.6782e-09
9910.0 8.605e-09
9930.0 8.5327e-09
9950.0 8.4613e-09
9970.0 8.3909e-09
9990.0 8.3213e-09
10010.0 8.2526e-09
10030.0 8.1848e-09
10050.0 8.1179e-09
10070.0 8.0518e-09
10090.0 7.9866e-09
10110.0 7.9222e-09
10130.0 7.8587e-09
10150.0 7.796e-09
10170.0 7.7341e-09
10190.0 7.6731e-09
10210.0 7.6128e-09
10230.0 7.5533e-09
10250.0 7.4946e-09
10270.0 7.4366e-09
10290.0 7.3795e-09
10310.0 7.323e-09
10330.0 7.2673e-09
10350.0 7.2123e-09
10370.0 7.158e-09
10390.0 7.1036e-09
10410.0 7.0396e-09
10430.0 6.9729e-09
10450.0 6.9335e-09
10470.0 6.888e-09
10490.0 6.8418e-09
10510.0 6.795e-09
10530.0 6.7462e-09
10550.0 6.6981e-09
10570.0 6.6512e-09
10590.0 6.6039e-09
10610.0 6.5567e-09
10630.0 6.5111e-09
10650.0 6.466e-09
10670.0 6.4201e-09
10690.0 6.3754e-09
10710.0 6.3319e-09
10730.0 6.2881e-09
10750.0 6.2439e-09
10770.0 6.202e-09
10790.0 6.1602e-09
10810.0 6.118e-09
10830.0 6.0768e-09
10850.0 6.0368e-09
10870.0 5.9957e-09
10890.0 5.9549e-09
10910.0 5.9155e-09
10930.0 5.8759e-09
10950.0 5.8353e-09
10970.0 5.7952e-09
10990.0 5.7558e-09
11010.0 5.7266e-09
11030.0 5.6848e-09
11050.0 5.6435e-09
11070.0 5.6014e-09
11090.0 5.5568e-09
11110.0 5.5135e-09
11130.0 5.4702e-09
11150.0 5.4253e-09
11170.0 5.3799e-09
11190.0 5.3358e-09
11210.0 5.2907e-09
11230.0 5.2446e-09
11250.0 5.1999e-09
11270.0 5.1565e-09
11290.0 5.1124e-09
11310.0 5.0694e-09
11330.0 5.0299e-09
11350.0 4.9912e-09
11370.0 4.9536e-09
11390.0 4.9187e-09
11410.0 4.8859e-09
11430.0 4.8532e-09
11450.0 4.8224e-09
11470.0 4.7936e-09
11490.0 4.7651e-09
11510.0 4.7365e-09
11530.0 4.7092e-09
11550.0 4.6822e-09
11570.0 4.6542e-09
11590.0 4.626e-09
11610.0 4.5982e-09
11630.0 4.569e-09
11650.0 4.5384e-09
11670.0 4.5085e-09
11690.0 4.478e-09
11710.0 4.446e-09
11730.0 4.4138e-09
11750.0 4.3825e-09
11770.0 4.3499e-09
11790.0 4.3167e-09
11810.0 4.2847e-09
11830.0 4.253e-09
11850.0 4.2201e-09
11870.0 4.1887e-09
11890.0 4.1591e-09
11910.0 4.1295e-09
11930.0 4.1007e-09
11950.0 4.0741e-09
11970.0 4.0487e-09
11990.0 4.0237e-09
12010.0 4.0009e-09
12030.0 3.98e-09
12050.0 3.96e-09
12070.0 3.9413e-09
12090.0 3.9251e-09
12110.0 3.9099e-09
12130.0 3.8956e-09
12150.0 3.8828e-09
12170.0 3.8712e-09
12190.0 3.8597e-09
12210.0 3.8487e-09
12230.0 3.8383e-09
12250.0 3.8277e-09
12270.0 3.8164e-09
12290.0 3.8046e-09
12310.0 3.7922e-09
12330.0 3.778e-09
12350.0 3.7624e-09
12370.0 3.7457e-09
12390.0 3.7272e-09
12410.0 3.7058e-09
12430.0 3.6837e-09
12450.0 3.6601e-09
12470.0 3.6342e-09
12490.0 3.6067e-09
12510.0 3.5791e-09
12530.0 3.5494e-09
12550.0 3.518e-09
12570.0 3.4867e-09
12590.0 3.4551e-09
12610.0 3.4218e-09
12630.0 3.3882e-09
12650.0 3.3563e-09
12670.0 3.3237e-09
12690.0 3.2909e-09
12710.0 3.2596e-09
12730.0 3.2294e-09
12750.0 3.1984e-09
12770.0 3.1693e-09
12790.0 3.1421e-09
12810.0 3.1157e-09
12830.0 3.09e-09
12850.0 3.067e-09
12870.0 3.0456e-09
12890.0 3.025e-09
12910.0 3.0065e-09
12930.0 2.9902e-09
12950.0 2.9751e-09
12970.0 2.9616e-09
12990.0 2.9506e-09
13010.0 2.9414e-09
13030.0 2.9337e-09
13050.0 2.9279e-09
13070.0 2.9237e-09
13090.0 2.9207e-09
13110.0 2.9188e-09
13130.0 2.9177e-09
13150.0 2.917e-09
13170.0 2.9164e-09
13190.0 2.9154e-09
13210.0 2.9138e-09
13230.0 2.9112e-09
13250.0 2.9072e-09
13270.0 2.902e-09
13290.0 2.8951e-09
13310.0 2.8861e-09
13330.0 2.8755e-09
13350.0 2.8634e-09
13370.0 2.8492e-09
13390.0 2.8329e-09
13410.0 2.8161e-09
13430.0 2.7974e-09
13450.0 2.7768e-09
13470.0 2.7555e-09
13490.0 2.7336e-09
13510.0 2.7092e-09
13530.0 2.6842e-09
13550.0 2.6593e-09
13570.0 2.6333e-09
13590.0 2.606e-09
13610.0 2.5791e-09
13630.0 2.5525e-09
13650.0 2.5244e-09
13670.0 2.4963e-09
13690.0 2.469e-09
13710.0 2.4414e-09
13730.0 2.4125e-09
13750.0 2.3854e-09
13770.0 2.3589e-09
13790.0 2.332e-09
13810.0 2.3057e-09
13830.0 2.2812e-09
13850.0 2.2566e-09
13870.0 2.2322e-09
13890.0 2.2094e-09
13910.0 2.1877e-09
13930.0 2.1658e-09
13950.0 2.1449e-09
13970.0 2.1259e-09
13990.0 2.1071e-09
14010.0 2.0887e-09
14030.0 2.0717e-09
14050.0 2.0555e-09
14070.0 2.0392e-09
14090.0 2.0242e-09
14110.0 2.0102e-09
14130.0 1.9966e-09
14150.0 1.9834e-09
14170.0 1.9714e-09
14190.0 1.96e-09
14210.0 1.9487e-09
14230.0 1.9381e-09
14250.0 1.9282e-09
14270.0 1.9182e-09
14290.0 1.9084e-09
14310.0 1.8993e-09
14330.0 1.8903e-09
14350.0 1.8813e-09
14370.0 1.8726e-09
14390.0 1.8643e-09
14410.0 1.8558e-09
14430.0 1.8474e-09
14450.0 1.8394e-09
14470.0 1.8314e-09
14490.0 1.8231e-09
14510.0 1.8152e-09
14530.0 1.8076e-09
14550.0 1.7997e-09
14570.0 1.7917e-09
14590.0 1.784e-09
14610.0 1.7761e-09
14630.0 1.7678e-09
14650.0 1.7598e-09
14670.0 1.7517e-09
14690.0 1.7434e-09
14710.0 1.7347e-09
14730.0 1.7265e-09
14750.0 1.718e-09
14770.0 1.7091e-09
14790.0 1.7002e-09
14810.0 1.6915e-09
14830.0 1.682e-09
14850.0 1.6725e-09
14870.0 1.6632e-09
14890.0 1.6536e-09
14910.0 1.6439e-09
14930.0 1.6346e-09
14950.0 1.6259e-09
14970.0 1.6173e-09
14990.0 1.6095e-09
15010.0 1.6026e-09
15030.0 1.5964e-09
15050.0 1.5907e-09
15070.0 1.5859e-09
15090.0 1.5815e-09
15110.0 1.5772e-09
15130.0 1.5732e-09
15150.0 1.5694e-09
15170.0 1.5655e-09
15190.0 1.5616e-09
15210.0 1.5578e-09
15230.0 1.5541e-09
15250.0 1.5502e-09
15270.0 1.5463e-09
15290.0 1.5426e-09
15310.0 1.5388e-09
15330.0 1.5349e-09
15350.0 1.5312e-09
15370.0 1.5274e-09
15390.0 1.5235e-09
15410.0 1.5196e-09
15430.0 1.5159e-09
15450.0 1.5121e-09
15470.0 1.5082e-09
15490.0 1.5044e-09
15510.0 1.5007e-09
15530.0 1.4968e-09
15550.0 1.493e-09
15570.0 1.4893e-09
15590.0 1.4854e-09
15610.0 1.4815e-09
15630.0 1.4777e-09
15650.0 1.474e-09
15670.0 1.4701e-09
15690.0 1.4663e-09
15710.0 1.4626e-09
15730.0 1.4587e-09
15750.0 1.4548e-09
15770.0 1.4511e-09
15790.0 1.4473e-09
15810.0 1.4434e-09
15830.0 1.4396e-09
15850.0 1.4358e-09
15870.0 1.432e-09
15890.0 1.4281e-09
15910.0 1.4244e-09
15930.0 1.4206e-09
15950.0 1.4167e-09
15970.0 1.4129e-09
15990.0 1.4092e-09
16010.0 1.4053e-09
16030.0 1.4014e-09
16050.0 1.3977e-09
16070.0 1.3939e-09
16090.0 1.39e-09
16110.0 1.3862e-09
16130.0 1.3825e-09
16150.0 1.3786e-09
16170.0 1.3747e-09
16190.0 1.371e-09
16210.0 1.3672e-09
16230.0 1.3633e-09
16250.0 1.3595e-09
16270.0 1.3558e-09
16290.0 1.3519e-09
16310.0 1.3481e-09
16330.0 1.3443e-09
16350.0 1.3405e-09
16370.0 1.3366e-09
16390.0 1.3328e-09
16410.0 1.3291e-09
16430.0 1.3252e-09
16450.0 1.3214e-09
16470.0 1.3177e-09
16490.0 1.3138e-09
16510.0 1.3099e-09
16530.0 1.3062e-09
16550.0 1.3024e-09
16570.0 1.2985e-09
16590.0 1.2946e-09
16610.0 1.2909e-09
16630.0 1.2871e-09
16650.0 1.2832e-09
16670.0 1.2795e-09
16690.0 1.2757e-09
16710.0 1.2718e-09
16730.0 1.268e-09
16750.0 1.2642e-09
16770.0 1.2604e-09
16790.0 1.2565e-09
16810.0 1.2527e-09
16830.0 1.249e-09
16850.0 1.2451e-09
16870.0 1.2413e-09
16890.0 1.2376e-09
16910.0 1.2337e-09
16930.0 1.2298e-09
16950.0 1.226e-09
16970.0 1.2223e-09
16990.0 1.2184e-09
17010.0 1.2146e-09
17030.0 1.2109e-09
17050.0 1.207e-09
17070.0 1.2031e-09
17090.0 1.1994e-09
17110.0 1.1956e-09
17130.0 1.1916e-09
17150.0 1.1878e-09
17170.0 1.1841e-09
17190.0 1.1803e-09
17210.0 1.1764e-09
17230.0 1.1727e-09
17250.0 1.1689e-09
17270.0 1.1649e-09
17290.0 1.1612e-09
17310.0 1.1574e-09
17330.0 1.1535e-09
17350.0 1.1496e-09
17370.0 1.1459e-09
17390.0 1.1421e-09
17410.0 1.1383e-09
17430.0 1.1345e-09
17450.0 1.1308e-09
17470.0 1.1268e-09
17490.0 1.123e-09
17510.0 1.1192e-09
17530.0 1.1154e-09
17550.0 1.1115e-09
17570.0 1.1078e-09
17590.0 1.104e-09
17610.0 1.1001e-09
17630.0 1.0963e-09
17650.0 1.0926e-09
17670.0 1.0887e-09
17690.0 1.0848e-09
17710.0 1.081e-09
17730.0 1.0773e-09
17750.0 1.0734e-09
17770.0 1.0696e-09
17790.0 1.0659e-09
17810.0 1.062e-09
17830.0 1.0581e-09
17850.0 1.0544e-09
17870.0 1.0506e-09
17890.0 1.0467e-09
17910.0 1.0428e-09
17930.0 1.0391e-09
17950.0 1.0353e-09
17970.0 1.0314e-09
17990.0 1.0277e-09
18010.0 1.0239e-09
18030.0 1.02e-09
18050.0 1.0162e-09
18070.0 1.0124e-09
18090.0 1.0086e-09
18110.0 1.0047e-09
18130.0 1.001e-09
18150.0 9.9719e-10
18170.0 9.933e-10
18190.0 9.8949e-10
18210.0 9.8578e-10
18230.0 9.8189e-10
18250.0 9.7796e-10
18270.0 9.7424e-10
18290.0 9.7046e-10
18310.0 9.6656e-10
18330.0 9.6277e-10
18350.0 9.5907e-10
18370.0 9.5518e-10
18390.0 9.5132e-10
18410.0 9.4758e-10
18430.0 9.4378e-10
18450.0 9.3983e-10
18470.0 9.3604e-10
18490.0 9.3232e-10
18510.0 9.2846e-10
18530.0 9.2461e-10
18550.0 9.2091e-10
18570.0 9.1709e-10
18590.0 9.1316e-10
18610.0 9.0938e-10
18630.0 9.0563e-10
18650.0 9.0175e-10
18670.0 8.9786e-10
18690.0 8.9417e-10
18710.0 8.9037e-10
18730.0 8.8648e-10
18750.0 8.8271e-10
18770.0 8.79e-10
18790.0 8.7504e-10
18810.0 8.7118e-10
18830.0 8.6746e-10
18850.0 8.6364e-10
18870.0 8.5974e-10
18890.0 8.56e-10
18910.0 8.5226e-10
18930.0 8.4836e-10
18950.0 8.4453e-10
18970.0 8.4081e-10
18990.0 8.3698e-10
19010.0 8.33e-10
19030.0 8.2928e-10
19050.0 8.2553e-10
19070.0 8.2165e-10
19090.0 8.1783e-10
19110.0 8.1414e-10
19130.0 8.1027e-10
19150.0 8.0637e-10
19170.0 8.0262e-10
19190.0 7.9885e-10
19210.0 7.9493e-10
19230.0 7.9109e-10
19250.0 7.874e-10
19270.0 7.8355e-10
19290.0 7.7969e-10
19310.0 7.7596e-10
19330.0 7.722e-10
19350.0 7.6823e-10
19370.0 7.6443e-10
19390.0 7.6069e-10
19410.0 7.5684e-10
19430.0 7.5295e-10
19450.0 7.4924e-10
19470.0 7.4546e-10
19490.0 7.4157e-10
19510.0 7.3777e-10
19530.0 7.3405e-10
19550.0 7.3016e-10
19570.0 7.2624e-10
19590.0 7.2253e-10
19610.0 7.1874e-10
19630.0 7.1485e-10
19650.0 7.1107e-10
19670.0 7.0736e-10
19690.0 7.0347e-10
19710.0 6.9961e-10
19730.0 6.9587e-10
19750.0 6.9207e-10
19770.0 6.8812e-10
19790.0 6.8435e-10
19810.0 6.8063e-10
19830.0 6.7677e-10
19850.0 6.7294e-10
19870.0 6.6928e-10
19890.0 6.6552e-10
19910.0 6.6174e-10
19930.0 6.5823e-10
19950.0 6.5493e-10
19970.0 6.5176e-10
19990.0 6.4895e-10
20010.0 6.4663e-10
20030.0 6.446e-10
20050.0 6.4292e-10
20070.0 6.4161e-10
20090.0 6.4055e-10
20110.0 6.3961e-10
20130.0 6.3881e-10
20150.0 6.381e-10
20170.0 6.374e-10
20190.0 6.3668e-10
20210.0 6.3597e-10
20230.0 6.3523e-10
20250.0 6.3443e-10
20270.0 6.336e-10
20290.0 6.3274e-10
20310.0 6.3181e-10
20330.0 6.308e-10
20350.0 6.298e-10
20370.0 6.2873e-10
20390.0 6.2759e-10
20410.0 6.2642e-10
20430.0 6.2525e-10
20450.0 6.2398e-10
20470.0 6.2269e-10
20490.0 6.2143e-10
20510.0 6.2016e-10
20530.0 6.1885e-10
20550.0 6.1758e-10
20570.0 6.1638e-10
20590.0 6.1515e-10
20610.0 6.1395e-10
20630.0 6.1282e-10
20650.0 6.117e-10
20670.0 6.1054e-10
20690.0 6.0944e-10
20710.0 6.0835e-10
20730.0 6.0721e-10
20750.0 6.0602e-10
20770.0 6.0483e-10
20790.0 6.0356e-10
20810.0 6.0216e-10
20830.0 6.0071e-10
20850.0 5.9918e-10
20870.0 5.9747e-10
20890.0 5.9564e-10
20910.0 5.938e-10
20930.0 5.9182e-10
20950.0 5.8969e-10
20970.0 5.8755e-10
20990.0 5.8539e-10
21010.0 5.8306e-10
21030.0 5.8073e-10
21050.0 5.7845e-10
21070.0 5.7613e-10
21090.0 5.7374e-10
21110.0 5.7147e-10
21130.0 5.6925e-10
21150.0 5.6697e-10
21170.0 5.6474e-10
21190.0 5.6261e-10
21210.0 5.6041e-10
21230.0 5.5817e-10
21250.0 5.5602e-10
21270.0 5.5386e-10
21290.0 5.516e-10
21310.0 5.4932e-10
21330.0 5.471e-10
21350.0 5.4476e-10
21370.0 5.4232e-10
21390.0 5.3991e-10
21410.0 5.3745e-10
21430.0 5.3477e-10
21450.0 5.3212e-10
21470.0 5.2949e-10
21490.0 5.2672e-10
21510.0 5.2386e-10
21530.0 5.2107e-10
21550.0 5.1823e-10
21570.0 5.1523e-10
21590.0 5.1228e-10
21610.0 5.0938e-10
21630.0 5.0637e-10
21650.0 5.0327e-10
21670.0 5.0038e-10
21690.0 4.9744e-10
21710.0 4.9442e-10
21730.0 4.9147e-10
21750.0 4.8862e-10
21770.0 4.8561e-10
21790.0 4.8263e-10
21810.0 4.7976e-10
21830.0 4.7686e-10
21850.0 4.7387e-10
21870.0 4.7096e-10
21890.0 4.6814e-10
21910.0 4.6521e-10
21930.0 4.623e-10
21950.0 4.595e-10
21970.0 4.5668e-10
21990.0 4.5377e-10
22010.0 4.5104e-10
22030.0 4.484e-10
22050.0 4.4574e-10
22070.0 4.4316e-10
22090.0 4.4077e-10
22110.0 4.3842e-10
22130.0 4.361e-10
22150.0 4.3397e-10
22170.0 4.3196e-10
22190.0 4.2996e-10
22210.0 4.2808e-10
22230.0 4.2638e-10
22250.0 4.2473e-10
22270.0 4.2312e-10
22290.0 4.2163e-10
22310.0 4.2021e-10
22330.0 4.1876e-10
22350.0 4.1738e-10
22370.0 4.1606e-10
22390.0 4.1472e-10
22410.0 4.1335e-10
22430.0 4.1204e-10
22450.0 4.1073e-10
22470.0 4.0936e-10
22490.0 4.0799e-10
22510.0 4.0666e-10
22530.0 4.0525e-10
22550.0 4.0381e-10
22570.0 4.0242e-10
22590.0 4.0103e-10
22610.0 3.996e-10
22630.0 3.982e-10
