#lamb flux
1010.0 1.9994e-07
1030.0 2.2068e-07
1050.0 2.4455e-07
1070.0 2.7141e-07
1090.0 3.0192e-07
1110.0 3.3321e-07
1130.0 3.6471e-07
1150.0 3.977e-07
1170.0 4.3173e-07
1190.0 4.64e-07
1210.0 4.9671e-07
1230.0 5.3051e-07
1250.0 5.6362e-07
1270.0 5.9578e-07
1290.0 6.2976e-07
1310.0 6.6371e-07
1330.0 6.9627e-07
1350.0 7.292e-07
1370.0 7.632e-07
1390.0 7.9635e-07
1410.0 8.2851e-07
1430.0 8.6214e-07
1450.0 8.9576e-07
1470.0 9.2825e-07
1490.0 9.611e-07
1510.0 9.958e-07
1530.0 1.0287e-06
1550.0 1.0611e-06
1570.0 1.0947e-06
1590.0 1.1283e-06
1610.0 1.1604e-06
1630.0 1.1935e-06
1650.0 1.2275e-06
1670.0 1.2605e-06
1690.0 1.293e-06
1710.0 1.3267e-06
1730.0 1.3607e-06
1750.0 1.3927e-06
1770.0 1.4257e-06
1790.0 1.4593e-06
1810.0 1.4919e-06
1830.0 1.524e-06
1850.0 1.558e-06
1870.0 1.5913e-06
1890.0 1.6234e-06
1910.0 1.6563e-06
1930.0 1.69e-06
1950.0 1.7222e-06
1970.0 1.7541e-06
1990.0 1.7872e-06
2010.0 1.8198e-06
2030.0 1.8513e-06
2050.0 1.8838e-06
2070.0 1.9172e-06
2090.0 1.9487e-06
2110.0 1.9802e-06
2130.0 2.0126e-06
2150.0 2.0444e-06
2170.0 2.0748e-06
2190.0 2.1064e-06
2210.0 2.1382e-06
2230.0 2.1687e-06
2250.0 2.199e-06
2270.0 2.2307e-06
2290.0 2.2613e-06
2310.0 2.2907e-06
2330.0 2.3212e-06
2350.0 2.3526e-06
2370.0 2.3837e-06
2390.0 2.4175e-06
2410.0 2.4578e-06
2430.0 2.5043e-06
2450.0 2.5602e-06
2470.0 2.6324e-06
2490.0 2.7237e-06
2510.0 2.8277e-06
2530.0 2.9532e-06
2550.0 3.1106e-06
2570.0 3.3065e-06
2590.0 3.5612e-06
2610.0 3.9424e-06
2630.0 4.486e-06
2650.0 5.1954e-06
2670.0 6.1112e-06
2690.0 7.2348e-06
2710.0 8.4318e-06
2730.0 9.6121e-06
2750.0 1.0772e-05
2770.0 1.1778e-05
2790.0 1.2573e-05
2810.0 1.32e-05
2830.0 1.3687e-05
2850.0 1.4015e-05
2870.0 1.4252e-05
2890.0 1.4436e-05
2910.0 1.4581e-05
2930.0 1.4698e-05
2950.0 1.4808e-05
2970.0 1.4916e-05
2990.0 1.5017e-05
3010.0 0.00043072
3030.0 0.00043359
3050.0 0.00043636
3070.0 0.0004387
3090.0 0.00044068
3110.0 0.0004418
3130.0 0.00044146
3150.0 0.00043923
3170.0 0.00043426
3190.0 0.00042662
3210.0 0.00041701
3230.0 0.00040605
3250.0 0.00039516
3270.0 0.00038719
3290.0 0.00038255
3310.0 0.00038302
3330.0 0.00038831
3350.0 0.00039771
3370.0 0.00041126
3390.0 0.0004284
3410.0 0.00044709
3430.0 0.00046809
3450.0 0.00049229
3470.0 0.00051874
3490.0 0.0005468
3510.0 0.00057854
3530.0 0.00061258
3550.0 0.00064719
3570.0 0.00068347
3590.0 0.00072298
3610.0 0.00076398
3630.0 0.00080478
3650.0 0.00084718
3670.0 0.00088582
3690.0 0.00091465
3710.0 0.00093098
3730.0 0.00093065
3750.0 0.00091595
3770.0 0.00091379
3790.0 0.00090806
3810.0 0.00087071
3830.0 0.0008951
3850.0 0.001025
3870.0 0.0010811
3890.0 0.0010531
3910.0 0.0010489
3930.0 0.0010888
3950.0 0.0011214
3970.0 0.001039
3990.0 0.00087011
4010.0 0.0025427
4030.0 0.0030506
4050.0 0.0034968
4070.0 0.0030781
4090.0 0.0027942
4110.0 0.0024526
4130.0 0.0023025
4150.0 0.0025078
4170.0 0.0024172
4190.0 0.0025396
4210.0 0.0025425
4230.0 0.0027246
4250.0 0.003232
4270.0 0.0032938
4290.0 0.0030178
4310.0 0.0031025
4330.0 0.0032764
4350.0 0.0037152
4370.0 0.004257
4390.0 0.003932
4410.0 0.0028371
4430.0 0.002375
4450.0 0.0021872
4470.0 0.0016498
4490.0 0.0018336
4510.0 0.0028788
4530.0 0.0033423
4550.0 0.0033367
4570.0 0.003672
4590.0 0.0041568
4610.0 0.0058231
4630.0 0.0076402
4650.0 0.008165
4670.0 0.0075185
4690.0 0.0072114
4710.0 0.0076095
4730.0 0.0070933
4750.0 0.0052429
4770.0 0.0038165
4790.0 0.0036138
4810.0 0.0034811
4830.0 0.0032121
4850.0 0.0035183
4870.0 0.0046491
4890.0 0.0054709
4910.0 0.0047469
4930.0 0.0042424
4950.0 0.0046846
4970.0 0.0060263
4990.0 0.0081657
5010.0 0.0094071
5030.0 0.0082155
5050.0 0.0055114
5070.0 0.0036578
5090.0 0.0029267
5110.0 0.002982
5130.0 0.0034588
5150.0 0.0037126
5170.0 0.0036417
5190.0 0.0033867
5210.0 0.0035632
5230.0 0.0038027
5250.0 0.0041309
5270.0 0.0043892
5290.0 0.0048486
5310.0 0.0057227
5330.0 0.0063216
5350.0 0.0062764
5370.0 0.0066338
5390.0 0.0076828
5410.0 0.0075574
5430.0 0.0066027
5450.0 0.0061182
5470.0 0.0065502
5490.0 0.0080157
5510.0 0.0099882
5530.0 0.011471
5550.0 0.011015
5570.0 0.010003
5590.0 0.0086515
5610.0 0.0080492
5630.0 0.0079284
5650.0 0.007516
5670.0 0.0070964
5690.0 0.0062783
5710.0 0.0061553
5730.0 0.0056999
5750.0 0.0039251
5770.0 0.003036
5790.0 0.0034652
5810.0 0.0038854
5830.0 0.0048737
5850.0 0.0058615
5870.0 0.0064875
5890.0 0.0065586
5910.0 0.0064314
5930.0 0.0061244
5950.0 0.0062464
5970.0 0.0071865
5990.0 0.0066644
6010.0 0.0055436
6030.0 0.0046704
6050.0 0.004077
6070.0 0.0041259
6090.0 0.0044879
6110.0 0.0049705
6130.0 0.0050042
6150.0 0.0042705
6170.0 0.0037095
6190.0 0.0041953
6210.0 0.0056401
6230.0 0.0075005
6250.0 0.0081278
6270.0 0.0070075
6290.0 0.0059073
6310.0 0.004601
6330.0 0.0035081
6350.0 0.0031585
6370.0 0.0033208
6390.0 0.0038496
6410.0 0.0047739
6430.0 0.0055929
6450.0 0.0064482
6470.0 0.0073125
6490.0 0.0088206
6510.0 0.0098647
6530.0 0.0097286
6550.0 0.0088143
6570.0 0.0074231
6590.0 0.006726
6610.0 0.0057735
6630.0 0.0053147
6650.0 0.005045
6670.0 0.0048332
6690.0 0.0042887
6710.0 0.0039293
6730.0 0.002698
6750.0 0.0027464
6770.0 0.0031138
6790.0 0.0036472
6810.0 0.0032272
6830.0 0.0033196
6850.0 0.003063
6870.0 0.0028028
6890.0 0.002656
6910.0 0.0028727
6930.0 0.0026929
6950.0 0.0028179
6970.0 0.0029628
6990.0 0.0033545
7010.0 0.0033617
7030.0 0.0034708
7050.0 0.0032719
7070.0 0.0030692
7090.0 0.0031035
7110.0 0.003209
7130.0 0.0034833
7150.0 0.0037284
7170.0 0.0041242
7190.0 0.0045221
7210.0 0.0043929
7230.0 0.004509
7250.0 0.0048404
7270.0 0.0052598
7290.0 0.0062759
7310.0 0.0067982
7330.0 0.0065541
7350.0 0.0059227
7370.0 0.0050662
7390.0 0.0049418
7410.0 0.0053318
7430.0 0.0059447
7450.0 0.0064671
7470.0 0.0063433
7490.0 0.005686
7510.0 0.0067044
7530.0 0.006571
7550.0 0.0059504
7570.0 0.0045731
7590.0 0.0030167
7610.0 0.0025535
7630.0 0.0029655
7650.0 0.0035481
7670.0 0.0045345
7690.0 0.0049946
7710.0 0.0051231
7730.0 0.0053555
7750.0 0.0061179
7770.0 0.0062248
7790.0 0.0057129
7810.0 0.0051397
7830.0 0.0053314
7850.0 0.005258
7870.0 0.00486
7890.0 0.0040451
7910.0 0.00322
7930.0 0.0031044
7950.0 0.0028264
7970.0 0.0025899
7990.0 0.0025515
8010.0 0.00035122
8030.0 0.00032677
8050.0 0.00034242
8070.0 0.00038057
8090.0 0.00045745
8110.0 0.00043786
8130.0 0.00027873
8150.0 0.00028944
8170.0 0.00018222
8190.0 0.00013021
8210.0 0.00027835
8230.0 0.00033029
8250.0 0.00017916
8270.0 0.00014581
8290.0 0.00021831
8310.0 0.00018769
8330.0 0.0001202
8350.0 9.1256e-05
8370.0 2.9504e-05
8390.0 0.00010103
8410.0 0.00011531
8430.0 0.00014212
8450.0 0.00016368
8470.0 0.00025227
8490.0 0.00022066
8510.0 0.00018578
8530.0 0.00013468
8550.0 0.00030964
8570.0 0.00043663
8590.0 0.00035212
8610.0 0.00049904
8630.0 0.00056726
8650.0 0.00041898
8670.0 0.00052561
8690.0 0.00067951
8710.0 0.00059072
8730.0 0.00060063
8750.0 0.00048903
8770.0 0.00044411
8790.0 0.00046985
8810.0 0.00048964
8830.0 0.00030805
8850.0 0.00016388
8870.0 0.00011822
8890.0 0.00020183
8910.0 0.00029452
8930.0 0.00037986
8950.0 0.00040808
8970.0 0.00039494
8990.0 0.00030053
9010.0 0.0012806
9030.0 0.0011128
9050.0 0.0011245
9070.0 0.0011399
9090.0 0.001153
9110.0 0.0011692
9130.0 0.0011813
9150.0 0.0011902
9170.0 0.0011997
9190.0 0.0012099
9210.0 0.0012207
9230.0 0.001232
9250.0 0.0012434
9270.0 0.0012553
9290.0 0.0012674
9310.0 0.0012796
9330.0 0.001292
9350.0 0.0013048
9370.0 0.0013177
9390.0 0.0013306
9410.0 0.0013439
9430.0 0.0013577
9450.0 0.0013712
9470.0 0.0013851
9490.0 0.0013993
9510.0 0.0014136
9530.0 0.001428
9550.0 0.0014429
9570.0 0.001458
9590.0 0.0014731
9610.0 0.0014884
9630.0 0.0015042
9650.0 0.0015201
9670.0 0.0015359
9690.0 0.0015522
9710.0 0.0015687
9730.0 0.0015852
9750.0 0.001602
9770.0 0.0016193
9790.0 0.0016365
9810.0 0.0016538
9830.0 0.0016715
9850.0 0.0016894
9870.0 0.0017071
9890.0 0.0017252
9910.0 0.0017436
9930.0 0.0017621
9950.0 0.0017805
9970.0 0.0017994
9990.0 0.0018185
10010.0 0.0015832
10030.0 0.0015997
10050.0 0.0016165
10070.0 0.0016335
10090.0 0.00165
10110.0 0.001667
10130.0 0.0016839
10150.0 0.0017008
10170.0 0.0017178
10190.0 0.0017352
10210.0 0.0017523
10230.0 0.0017694
10250.0 0.0017867
10270.0 0.0018041
10290.0 0.0018212
10310.0 0.0018385
10330.0 0.0018561
10350.0 0.0018733
10370.0 0.0018904
10390.0 0.0019078
10410.0 0.0019251
10430.0 0.001942
10450.0 0.0019591
10470.0 0.0019762
10490.0 0.0019931
10510.0 0.0020098
10530.0 0.0020268
10550.0 0.0020435
10570.0 0.0020599
10590.0 0.0020763
10610.0 0.0020928
10630.0 0.0021088
10650.0 0.0021247
10670.0 0.0021407
10690.0 0.0021564
10710.0 0.0021718
10730.0 0.0021872
10750.0 0.0022027
10770.0 0.0022174
10790.0 0.002232
10810.0 0.0022467
10830.0 0.0022609
10850.0 0.0022743
10870.0 0.0022874
10890.0 0.0022992
10910.0 0.0023085
10930.0 0.0023144
10950.0 0.0023149
10970.0 0.0023083
10990.0 0.0022938
11010.0 0.0021554
11030.0 0.0021213
11050.0 0.0020795
11070.0 0.0020295
11090.0 0.0019693
11110.0 0.001907
11130.0 0.001842
11150.0 0.0017721
11170.0 0.0017001
11190.0 0.0016303
11210.0 0.0015583
11230.0 0.0014845
11250.0 0.0014141
11270.0 0.0013464
11290.0 0.0012787
11310.0 0.0012146
11330.0 0.0011581
11350.0 0.0011047
11370.0 0.0010553
11390.0 0.0010126
11410.0 0.00097509
11430.0 0.00094022
11450.0 0.00091009
11470.0 0.00088395
11490.0 0.00085959
11510.0 0.00083607
11530.0 0.00081422
11550.0 0.00079252
11570.0 0.0007694
11590.0 0.0007455
11610.0 0.0007212
11630.0 0.00069482
11650.0 0.00066663
11670.0 0.00063887
11690.0 0.00061075
11710.0 0.00058176
11730.0 0.00055369
11750.0 0.00052769
11770.0 0.0005022
11790.0 0.00047829
11810.0 0.00045721
11830.0 0.00043832
11850.0 0.0004209
11870.0 0.00040627
11890.0 0.00039407
11910.0 0.00038331
11930.0 0.00037403
11950.0 0.00036626
11970.0 0.0003593
11990.0 0.00035271
12010.0 0.00034661
12030.0 0.00034074
12050.0 0.00033469
12070.0 0.00032842
12090.0 0.00032238
12110.0 0.00031625
12130.0 0.00031011
12150.0 0.00030444
12170.0 0.00029946
12190.0 0.00029511
12210.0 0.000292
12230.0 0.00029036
12250.0 0.00029031
12270.0 0.00029222
12290.0 0.00029608
12310.0 0.00030174
12330.0 0.00030975
12350.0 0.00031981
12370.0 0.00033131
12390.0 0.0003446
12410.0 0.00036021
12430.0 0.00037609
12450.0 0.00039254
12470.0 0.00041004
12490.0 0.00042762
12510.0 0.0004441
12530.0 0.0004605
12550.0 0.00047631
12570.0 0.00049025
12590.0 0.00050247
12610.0 0.00051334
12630.0 0.00052198
12650.0 0.0005279
12670.0 0.00053174
12690.0 0.0005332
12710.0 0.00053218
12730.0 0.00052895
12750.0 0.00052331
12770.0 0.00051562
12790.0 0.00050632
12810.0 0.00049525
12830.0 0.00048246
12850.0 0.0004691
12870.0 0.00045499
12890.0 0.00043975
12910.0 0.00042427
12930.0 0.00040902
12950.0 0.00039312
12970.0 0.00037696
12990.0 0.00036167
13010.0 0.00034658
13030.0 0.00033134
13050.0 0.0003167
13070.0 0.00030299
13090.0 0.00028924
13110.0 0.00027593
13130.0 0.00026366
13150.0 0.00025203
13170.0 0.00024064
13190.0 0.00023049
13210.0 0.00022154
13230.0 0.00021335
13250.0 0.00020628
13270.0 0.00020067
13290.0 0.00019628
13310.0 0.00019321
13330.0 0.00019174
13350.0 0.00019177
13370.0 0.00019337
13390.0 0.00019664
13410.0 0.00020112
13430.0 0.00020698
13450.0 0.00021426
13470.0 0.00022237
13490.0 0.00023097
13510.0 0.00024071
13530.0 0.00025059
13550.0 0.00026007
13570.0 0.00026944
13590.0 0.00027859
13610.0 0.00028674
13630.0 0.00029387
13650.0 0.00030039
13670.0 0.00030583
13690.0 0.00031004
13710.0 0.00031332
13730.0 0.00031568
13750.0 0.00031688
13770.0 0.00031719
13790.0 0.00031666
13810.0 0.00031529
13830.0 0.00031324
13850.0 0.00031046
13870.0 0.00030693
13890.0 0.0003029
13910.0 0.00029834
13930.0 0.00029306
13950.0 0.0002873
13970.0 0.00028141
13990.0 0.00027499
14010.0 0.00026816
14030.0 0.00026136
14050.0 0.0002545
14070.0 0.00024726
14090.0 0.00024032
14110.0 0.0002338
14130.0 0.00022748
14150.0 0.00022153
14170.0 0.00021645
14190.0 0.00021205
14210.0 0.00020831
14230.0 0.00020553
14250.0 0.00020373
14270.0 0.00020284
14290.0 0.000203
14310.0 0.0002041
14330.0 0.00020611
14350.0 0.00020909
14370.0 0.00021281
14390.0 0.00021704
14410.0 0.00022203
14430.0 0.00022752
14450.0 0.00023313
14470.0 0.00023896
14490.0 0.00024518
14510.0 0.00025112
14530.0 0.00025678
14550.0 0.00026244
14570.0 0.00026788
14590.0 0.00027284
14610.0 0.00027763
14630.0 0.00028237
14650.0 0.00028679
14670.0 0.00029106
14690.0 0.0002955
14710.0 0.00030017
14730.0 0.00030483
14750.0 0.00030999
14770.0 0.00031585
14790.0 0.0003222
14810.0 0.00032908
14830.0 0.00033723
14850.0 0.0003461
14870.0 0.00035537
14890.0 0.00036537
14910.0 0.00037599
14930.0 0.00038622
14950.0 0.00039578
14970.0 0.00040485
14990.0 0.00041246
15010.0 0.0004183
15030.0 0.00042263
15050.0 0.00042553
15070.0 0.00042697
15090.0 0.00042751
15110.0 0.00042743
15130.0 0.00042695
15150.0 0.00042628
15170.0 0.00042548
15190.0 0.00042462
15210.0 0.00042378
15230.0 0.00042294
15250.0 0.00042206
15270.0 0.00042119
15290.0 0.00042038
15310.0 0.00041954
15330.0 0.00041869
15350.0 0.00041788
15370.0 0.00041707
15390.0 0.00041622
15410.0 0.0004154
15430.0 0.00041461
15450.0 0.0004138
15470.0 0.00041297
15490.0 0.0004122
15510.0 0.00041142
15530.0 0.00041061
15550.0 0.00040982
15570.0 0.00040906
15590.0 0.00040827
15610.0 0.00040747
15630.0 0.00040671
15650.0 0.00040595
15670.0 0.00040516
15690.0 0.00040439
15710.0 0.00040366
15730.0 0.00040288
15750.0 0.00040211
15770.0 0.00040137
15790.0 0.00040062
15810.0 0.00039983
15830.0 0.00039908
15850.0 0.00039835
15870.0 0.0003976
15890.0 0.00039684
15910.0 0.00039611
15930.0 0.00039537
15950.0 0.0003946
15970.0 0.00039386
15990.0 0.00039313
16010.0 0.00039237
16030.0 0.0003916
16050.0 0.00039089
16070.0 0.00039015
16090.0 0.00038939
16110.0 0.00038866
16130.0 0.00038794
16150.0 0.00038716
16170.0 0.00038641
16190.0 0.00038568
16210.0 0.00038494
16230.0 0.00038417
16250.0 0.00038343
16270.0 0.00038271
16290.0 0.00038194
16310.0 0.00038119
16330.0 0.00038046
16350.0 0.00037971
16370.0 0.00037891
16390.0 0.00037817
16410.0 0.00037743
16430.0 0.00037666
16450.0 0.0003759
16470.0 0.00037517
16490.0 0.00037439
16510.0 0.00037361
16530.0 0.00037285
16550.0 0.0003721
16570.0 0.0003713
16590.0 0.00037051
16610.0 0.00036977
16630.0 0.00036899
16650.0 0.00036819
16670.0 0.00036743
16690.0 0.00036666
16710.0 0.00036584
16730.0 0.00036505
16750.0 0.00036428
16770.0 0.00036348
16790.0 0.00036266
16810.0 0.00036188
16830.0 0.00036109
16850.0 0.00036026
16870.0 0.00035946
16890.0 0.00035867
16910.0 0.00035784
16930.0 0.000357
16950.0 0.0003562
16970.0 0.00035538
16990.0 0.00035454
17010.0 0.00035371
17030.0 0.00035291
17050.0 0.00035206
17070.0 0.00035121
17090.0 0.00035038
17110.0 0.00034955
17130.0 0.00034866
17150.0 0.00034782
17170.0 0.00034699
17190.0 0.00034612
17210.0 0.00034525
17230.0 0.00034442
17250.0 0.00034355
17270.0 0.00034266
17290.0 0.00034179
17310.0 0.00034093
17330.0 0.00034004
17350.0 0.00033914
17370.0 0.00033828
17390.0 0.0003374
17410.0 0.00033649
17430.0 0.00033561
17450.0 0.00033474
17470.0 0.0003338
17490.0 0.00033289
17510.0 0.000332
17530.0 0.00033109
17550.0 0.00033016
17570.0 0.00032926
17590.0 0.00032836
17610.0 0.00032742
17630.0 0.00032649
17650.0 0.00032559
17670.0 0.00032466
17690.0 0.00032368
17710.0 0.00032277
17730.0 0.00032185
17750.0 0.00032089
17770.0 0.00031995
17790.0 0.00031903
17810.0 0.00031807
17830.0 0.0003171
17850.0 0.00031616
17870.0 0.00031522
17890.0 0.00031423
17910.0 0.00031326
17930.0 0.00031233
17950.0 0.00031136
17970.0 0.00031037
17990.0 0.00030942
18010.0 0.00030847
18030.0 0.00030745
18050.0 0.00030648
18070.0 0.00030552
18090.0 0.00030453
18110.0 0.00030352
18130.0 0.00030256
18150.0 0.00030159
18170.0 0.00030058
18190.0 0.00029959
18210.0 0.00029862
18230.0 0.0002976
18250.0 0.00029658
18270.0 0.00029561
18290.0 0.00029461
18310.0 0.00029359
18330.0 0.00029259
18350.0 0.00029162
18370.0 0.00029059
18390.0 0.00028957
18410.0 0.00028858
18430.0 0.00028757
18450.0 0.00028652
18470.0 0.00028552
18490.0 0.00028453
18510.0 0.0002835
18530.0 0.00028247
18550.0 0.00028148
18570.0 0.00028046
18590.0 0.00027941
18610.0 0.0002784
18630.0 0.00027739
18650.0 0.00027635
18670.0 0.00027531
18690.0 0.00027431
18710.0 0.00027329
18730.0 0.00027224
18750.0 0.00027123
18770.0 0.00027022
18790.0 0.00026916
18810.0 0.00026812
18830.0 0.00026711
18850.0 0.00026608
18870.0 0.00026503
18890.0 0.00026401
18910.0 0.000263
18930.0 0.00026194
18950.0 0.00026091
18970.0 0.0002599
18990.0 0.00025886
19010.0 0.00025778
19030.0 0.00025677
19050.0 0.00025575
19070.0 0.0002547
19090.0 0.00025366
19110.0 0.00025266
19130.0 0.00025161
19150.0 0.00025056
19170.0 0.00024954
19190.0 0.00024851
19210.0 0.00024745
19230.0 0.00024641
19250.0 0.0002454
19270.0 0.00024436
19290.0 0.00024331
19310.0 0.0002423
19330.0 0.00024128
19350.0 0.00024021
19370.0 0.00023918
19390.0 0.00023816
19410.0 0.00023712
19430.0 0.00023607
19450.0 0.00023506
19470.0 0.00023404
19490.0 0.00023299
19510.0 0.00023196
19530.0 0.00023096
19550.0 0.00022991
19570.0 0.00022885
19590.0 0.00022785
19610.0 0.00022682
19630.0 0.00022578
19650.0 0.00022476
19670.0 0.00022376
19690.0 0.00022271
19710.0 0.00022168
19730.0 0.00022067
19750.0 0.00021965
19770.0 0.00021859
19790.0 0.00021758
19810.0 0.00021658
19830.0 0.00021554
19850.0 0.0002145
19870.0 0.00021347
19890.0 0.00021238
19910.0 0.00021117
19930.0 0.00020989
19950.0 0.00020843
19970.0 0.00020664
19990.0 0.00020448
20010.0 0.00018231
20030.0 0.00017965
20050.0 0.00017654
20070.0 0.00017318
20090.0 0.00016956
20110.0 0.00016547
20130.0 0.00016134
20150.0 0.00015724
20170.0 0.000153
20190.0 0.0001487
20210.0 0.00014464
20230.0 0.00014068
20250.0 0.00013671
20270.0 0.00013303
20290.0 0.00012966
20310.0 0.00012647
20330.0 0.00012348
20350.0 0.000121
20370.0 0.00011879
20390.0 0.00011686
20410.0 0.00011529
20430.0 0.00011408
20450.0 0.00011311
20470.0 0.00011246
20490.0 0.0001121
20510.0 0.00011199
20530.0 0.00011211
20550.0 0.00011244
20570.0 0.00011293
20590.0 0.0001136
20610.0 0.00011442
20630.0 0.00011532
20650.0 0.00011633
20670.0 0.00011749
20690.0 0.00011867
20710.0 0.00011989
20730.0 0.00012121
20750.0 0.00012259
20770.0 0.00012395
20790.0 0.00012537
20810.0 0.00012688
20830.0 0.00012837
20850.0 0.00012987
20870.0 0.00013148
20890.0 0.00013312
20910.0 0.00013469
20930.0 0.00013633
20950.0 0.00013802
20970.0 0.00013967
20990.0 0.0001413
21010.0 0.00014301
21030.0 0.00014468
21050.0 0.00014627
21070.0 0.00014786
21090.0 0.00014946
21110.0 0.00015091
21130.0 0.00015227
21150.0 0.00015359
21170.0 0.00015479
21190.0 0.00015581
21210.0 0.00015674
21230.0 0.0001575
21250.0 0.00015805
21270.0 0.00015839
21290.0 0.00015851
21310.0 0.00015838
21330.0 0.000158
21350.0 0.00015734
21370.0 0.00015637
21390.0 0.00015514
21410.0 0.00015364
21430.0 0.00015174
21450.0 0.00014961
21470.0 0.00014729
21490.0 0.00014466
21510.0 0.00014179
21530.0 0.00013886
21550.0 0.0001358
21570.0 0.00013253
21590.0 0.00012932
21610.0 0.00012622
21630.0 0.00012311
21650.0 0.00012008
21670.0 0.00011745
21690.0 0.00011502
21710.0 0.00011284
21730.0 0.00011105
21750.0 0.00010966
21770.0 0.00010861
21790.0 0.000108
21810.0 0.00010782
21830.0 0.00010805
21850.0 0.00010872
21870.0 0.00010976
21890.0 0.0001111
21910.0 0.00011283
21930.0 0.00011486
21950.0 0.00011705
21970.0 0.00011949
21990.0 0.00012222
22010.0 0.00012496
22030.0 0.00012773
22050.0 0.00013065
22070.0 0.00013358
22090.0 0.00013636
22110.0 0.00013915
22130.0 0.00014195
22150.0 0.00014456
22170.0 0.00014702
22190.0 0.00014946
22210.0 0.00015173
22230.0 0.00015373
22250.0 0.00015561
22270.0 0.00015734
22290.0 0.00015881
22310.0 0.00016008
22330.0 0.0001612
22350.0 0.00016206
22370.0 0.00016266
22390.0 0.00016304
22410.0 0.00016316
22430.0 0.000163
22450.0 0.00016257
22470.0 0.00016184
22490.0 0.00016082
22510.0 0.00015955
22530.0 0.00015792
22550.0 0.00015594
22570.0 0.00015375
22590.0 0.00015128
22610.0 0.00014844
22630.0 0.00014536
22650.0 0.00014219
22670.0 0.00013867
22690.0 0.00013492
22710.0 0.00013114
22730.0 0.00012724
22750.0 0.00012302
22770.0 0.00011889
22790.0 0.00011486
22810.0 0.00011072
22830.0 0.00010659
22850.0 0.00010272
22870.0 9.8934e-05
22890.0 9.5165e-05
22910.0 9.1693e-05
22930.0 8.8512e-05
22950.0 8.548e-05
22970.0 8.2674e-05
22990.0 8.0349e-05
