#lamb flux
1010.0 8.5118e-09
1030.0 9.4141e-09
1050.0 1.0452e-08
1070.0 1.162e-08
1090.0 1.2947e-08
1110.0 1.4308e-08
1130.0 1.5678e-08
1150.0 1.7113e-08
1170.0 1.8593e-08
1190.0 1.9997e-08
1210.0 2.1419e-08
1230.0 2.2889e-08
1250.0 2.4329e-08
1270.0 2.5728e-08
1290.0 2.7206e-08
1310.0 2.8683e-08
1330.0 3.0099e-08
1350.0 3.1531e-08
1370.0 3.301e-08
1390.0 3.4452e-08
1410.0 3.5851e-08
1430.0 3.7313e-08
1450.0 3.8776e-08
1470.0 4.0189e-08
1490.0 4.1618e-08
1510.0 4.3127e-08
1530.0 4.4558e-08
1550.0 4.5969e-08
1570.0 4.7429e-08
1590.0 4.8891e-08
1610.0 5.0289e-08
1630.0 5.173e-08
1650.0 5.3209e-08
1670.0 5.4641e-08
1690.0 5.6056e-08
1710.0 5.7526e-08
1730.0 5.9006e-08
1750.0 6.0398e-08
1770.0 6.1833e-08
1790.0 6.3299e-08
1810.0 6.4719e-08
1830.0 6.6117e-08
1850.0 6.7603e-08
1870.0 6.9052e-08
1890.0 7.0456e-08
1910.0 7.189e-08
1930.0 7.3362e-08
1950.0 7.477e-08
1970.0 7.6164e-08
1990.0 7.7614e-08
2010.0 7.9043e-08
2030.0 8.0424e-08
2050.0 8.1851e-08
2070.0 8.3317e-08
2090.0 8.4703e-08
2110.0 8.6088e-08
2130.0 8.7518e-08
2150.0 8.8923e-08
2170.0 9.027e-08
2190.0 9.1671e-08
2210.0 9.3082e-08
2230.0 9.4439e-08
2250.0 9.5792e-08
2270.0 9.7207e-08
2290.0 9.858e-08
2310.0 9.99e-08
2330.0 1.0127e-07
2350.0 1.0268e-07
2370.0 1.0409e-07
2390.0 1.0561e-07
2410.0 1.0741e-07
2430.0 1.0948e-07
2450.0 1.1196e-07
2470.0 1.1514e-07
2490.0 1.1914e-07
2510.0 1.2369e-07
2530.0 1.2916e-07
2550.0 1.3601e-07
2570.0 1.4454e-07
2590.0 1.5563e-07
2610.0 1.7223e-07
2630.0 1.9593e-07
2650.0 2.2693e-07
2670.0 2.67e-07
2690.0 3.1625e-07
2710.0 3.6881e-07
2730.0 4.2076e-07
2750.0 4.7192e-07
2770.0 5.1642e-07
2790.0 5.5175e-07
2810.0 5.798e-07
2830.0 6.0171e-07
2850.0 6.1666e-07
2870.0 6.2764e-07
2890.0 6.3633e-07
2910.0 6.4327e-07
2930.0 6.4894e-07
2950.0 6.5435e-07
2970.0 6.5964e-07
2990.0 6.646e-07
3010.0 1.8785e-05
3030.0 1.8926e-05
3050.0 1.9061e-05
3070.0 1.9178e-05
3090.0 1.9278e-05
3110.0 1.934e-05
3130.0 1.9337e-05
3150.0 1.9251e-05
3170.0 1.9045e-05
3190.0 1.8721e-05
3210.0 1.8311e-05
3230.0 1.7841e-05
3250.0 1.7377e-05
3270.0 1.7038e-05
3290.0 1.6849e-05
3310.0 1.688e-05
3330.0 1.7124e-05
3350.0 1.755e-05
3370.0 1.8157e-05
3390.0 1.8923e-05
3410.0 1.9756e-05
3430.0 2.0691e-05
3450.0 2.1768e-05
3470.0 2.2944e-05
3490.0 2.419e-05
3510.0 2.5598e-05
3530.0 2.7107e-05
3550.0 2.8634e-05
3570.0 3.0227e-05
3590.0 3.1959e-05
3610.0 3.3744e-05
3630.0 3.5524e-05
3650.0 3.737e-05
3670.0 3.9056e-05
3690.0 4.0316e-05
3710.0 4.1038e-05
3730.0 4.1062e-05
3750.0 4.049e-05
3770.0 4.0266e-05
3790.0 4.0026e-05
3810.0 3.9043e-05
3830.0 4.0251e-05
3850.0 4.5006e-05
3870.0 4.7615e-05
3890.0 4.7398e-05
3910.0 4.76e-05
3930.0 4.8853e-05
3950.0 4.9625e-05
3970.0 4.5213e-05
3990.0 3.8903e-05
4010.0 0.0001166
4030.0 0.00014128
4050.0 0.00016196
4070.0 0.00014053
4090.0 0.00012728
4110.0 0.00011231
4130.0 0.00010337
4150.0 0.00010996
4170.0 0.00010831
4190.0 0.00011545
4210.0 0.0001144
4230.0 0.000121
4250.0 0.00014315
4270.0 0.00014483
4290.0 0.00013346
4310.0 0.00013867
4330.0 0.00014751
4350.0 0.00016539
4370.0 0.00018822
4390.0 0.00017662
4410.0 0.00013049
4430.0 0.00011047
4450.0 0.00010151
4470.0 7.7912e-05
4490.0 8.4077e-05
4510.0 0.000127
4530.0 0.00014647
4550.0 0.00014774
4570.0 0.00016624
4590.0 0.00018937
4610.0 0.00025541
4630.0 0.00033173
4650.0 0.00035976
4670.0 0.00033317
4690.0 0.0003179
4710.0 0.00033604
4730.0 0.00031713
4750.0 0.0002371
4770.0 0.00017392
4790.0 0.00016241
4810.0 0.0001548
4830.0 0.00014172
4850.0 0.00015551
4870.0 0.00020544
4890.0 0.00024228
4910.0 0.00021257
4930.0 0.00018809
4950.0 0.00020665
4970.0 0.00026501
4990.0 0.00035915
5010.0 0.00041316
5030.0 0.00036431
5050.0 0.00024648
5070.0 0.00016244
5090.0 0.00013098
5110.0 0.0001347
5130.0 0.00015547
5150.0 0.00016844
5170.0 0.00016591
5190.0 0.00015503
5210.0 0.00016205
5230.0 0.00017035
5250.0 0.00018358
5270.0 0.00019807
5290.0 0.00021951
5310.0 0.0002555
5330.0 0.00028274
5350.0 0.00028094
5370.0 0.0002951
5390.0 0.00033863
5410.0 0.00033832
5430.0 0.00029919
5450.0 0.00027489
5470.0 0.00029188
5490.0 0.0003566
5510.0 0.00044587
5530.0 0.00051139
5550.0 0.00049427
5570.0 0.00044932
5590.0 0.00039069
5610.0 0.0003603
5630.0 0.00034938
5650.0 0.00033275
5670.0 0.00031531
5690.0 0.00028188
5710.0 0.00027484
5730.0 0.00025317
5750.0 0.0001785
5770.0 0.00013926
5790.0 0.00015781
5810.0 0.00017819
5830.0 0.00021867
5850.0 0.0002603
5870.0 0.0002888
5890.0 0.00029369
5910.0 0.00028813
5930.0 0.00027427
5950.0 0.00027947
5970.0 0.00031857
5990.0 0.00029954
6010.0 0.0002511
6030.0 0.00021214
6050.0 0.00018475
6070.0 0.00018374
6090.0 0.00019924
6110.0 0.00022278
6130.0 0.00022619
6150.0 0.00019462
6170.0 0.0001712
6190.0 0.00019266
6210.0 0.0002547
6230.0 0.00033424
6250.0 0.00036202
6270.0 0.00031636
6290.0 0.00026617
6310.0 0.00020779
6330.0 0.00015921
6350.0 0.00014201
6370.0 0.00014934
6390.0 0.00017264
6410.0 0.00021288
6430.0 0.00024858
6450.0 0.00028444
6470.0 0.00032569
6490.0 0.00039342
6510.0 0.00043989
6530.0 0.00043156
6550.0 0.00039025
6570.0 0.00033128
6590.0 0.00029873
6610.0 0.00025758
6630.0 0.00023336
6650.0 0.00022059
6670.0 0.0002143
6690.0 0.00019363
6710.0 0.00017601
6730.0 0.00012678
6750.0 0.00012569
6770.0 0.00013661
6790.0 0.00015703
6810.0 0.00014368
6830.0 0.00014795
6850.0 0.00013838
6870.0 0.00012641
6890.0 0.00012138
6910.0 0.00012934
6930.0 0.00012115
6950.0 0.00012464
6970.0 0.0001311
6990.0 0.00014881
7010.0 0.00015008
7030.0 0.00015246
7050.0 0.0001454
7070.0 0.00013854
7090.0 0.00013894
7110.0 0.00014296
7130.0 0.00015385
7150.0 0.0001634
7170.0 0.0001803
7190.0 0.0001982
7210.0 0.00019476
7230.0 0.00020021
7250.0 0.00021516
7270.0 0.00023447
7290.0 0.0002783
7310.0 0.00030198
7330.0 0.00029189
7350.0 0.00026399
7370.0 0.0002297
7390.0 0.00022284
7410.0 0.00023681
7430.0 0.00026318
7450.0 0.00028665
7470.0 0.00028402
7490.0 0.00025897
7510.0 0.00029335
7530.0 0.00029014
7550.0 0.00026078
7570.0 0.00020372
7590.0 0.00014005
7610.0 0.00012021
7630.0 0.00013658
7650.0 0.00016148
7670.0 0.00020098
7690.0 0.00022116
7710.0 0.00023048
7730.0 0.00024221
7750.0 0.0002719
7770.0 0.00027618
7790.0 0.00025368
7810.0 0.00023147
7830.0 0.0002387
7850.0 0.00023204
7870.0 0.00021274
7890.0 0.00017874
7910.0 0.0001453
7930.0 0.00013874
7950.0 0.00012639
7970.0 0.000117
7990.0 0.00011633
8010.0 8.616e-06
8030.0 8.504e-06
8050.0 8.3893e-06
8070.0 8.4992e-06
8090.0 9.1322e-06
8110.0 8.9766e-06
8130.0 7.4046e-06
8150.0 7.2112e-06
8170.0 6.2114e-06
8190.0 5.8867e-06
8210.0 7.6445e-06
8230.0 8.5112e-06
8250.0 7.671e-06
8270.0 6.6766e-06
8290.0 6.5085e-06
8310.0 5.0092e-06
8330.0 3.3762e-06
8350.0 2.3961e-06
8370.0 1.5096e-06
8390.0 2.7596e-06
8410.0 3.2157e-06
8430.0 3.9638e-06
8450.0 4.6546e-06
8470.0 5.7854e-06
8490.0 5.7446e-06
8510.0 5.6507e-06
8530.0 5.8973e-06
8550.0 7.9567e-06
8570.0 9.4196e-06
8590.0 1.0164e-05
8610.0 1.2839e-05
8630.0 1.5466e-05
8650.0 1.6179e-05
8670.0 1.7194e-05
8690.0 1.729e-05
8710.0 1.5659e-05
8730.0 1.4565e-05
8750.0 1.2857e-05
8770.0 1.2199e-05
8790.0 1.1985e-05
8810.0 1.1484e-05
8830.0 9.1834e-06
8850.0 6.7229e-06
8870.0 5.1477e-06
8890.0 5.0327e-06
8910.0 5.7676e-06
8930.0 6.5603e-06
8950.0 6.6859e-06
8970.0 6.7175e-06
8990.0 5.9912e-06
9010.0 6.2785e-05
9030.0 5.689e-05
9050.0 5.7165e-05
9070.0 5.7616e-05
9090.0 5.8012e-05
9110.0 5.8501e-05
9130.0 5.8878e-05
9150.0 5.9171e-05
9170.0 5.9484e-05
9190.0 5.9817e-05
9210.0 6.0169e-05
9230.0 6.0539e-05
9250.0 6.0916e-05
9270.0 6.1307e-05
9290.0 6.1709e-05
9310.0 6.2115e-05
9330.0 6.2528e-05
9350.0 6.2957e-05
9370.0 6.339e-05
9390.0 6.3828e-05
9410.0 6.4278e-05
9430.0 6.4743e-05
9450.0 6.5205e-05
9470.0 6.5677e-05
9490.0 6.6163e-05
9510.0 6.6654e-05
9530.0 6.7148e-05
9550.0 6.7659e-05
9570.0 6.8179e-05
9590.0 6.87e-05
9610.0 6.923e-05
9630.0 6.9775e-05
9650.0 7.0324e-05
9670.0 7.0874e-05
9690.0 7.1439e-05
9710.0 7.2012e-05
9730.0 7.2587e-05
9750.0 7.3171e-05
9770.0 7.3771e-05
9790.0 7.4371e-05
9810.0 7.4974e-05
9830.0 7.5589e-05
9850.0 7.6213e-05
9870.0 7.6834e-05
9890.0 7.7465e-05
9910.0 7.8108e-05
9930.0 7.8751e-05
9950.0 7.9397e-05
9970.0 8.0056e-05
9990.0 8.0721e-05
10010.0 7.0045e-05
10030.0 7.062e-05
10050.0 7.1207e-05
10070.0 7.1813e-05
10090.0 7.2385e-05
10110.0 7.2971e-05
10130.0 7.356e-05
10150.0 7.4146e-05
10170.0 7.474e-05
10190.0 7.5344e-05
10210.0 7.5941e-05
10230.0 7.6536e-05
10250.0 7.7141e-05
10270.0 7.7745e-05
10290.0 7.8342e-05
10310.0 7.8946e-05
10330.0 7.9556e-05
10350.0 8.0156e-05
10370.0 8.0754e-05
10390.0 8.1359e-05
10410.0 8.1961e-05
10430.0 8.2551e-05
10450.0 8.3147e-05
10470.0 8.3745e-05
10490.0 8.4332e-05
10510.0 8.4916e-05
10530.0 8.5509e-05
10550.0 8.6092e-05
10570.0 8.6663e-05
10590.0 8.7237e-05
10610.0 8.7811e-05
10630.0 8.837e-05
10650.0 8.8926e-05
10670.0 8.9486e-05
10690.0 9.0036e-05
10710.0 9.0574e-05
10730.0 9.1113e-05
10750.0 9.1653e-05
10770.0 9.2171e-05
10790.0 9.2684e-05
10810.0 9.3198e-05
10830.0 9.3694e-05
10850.0 9.4167e-05
10870.0 9.4624e-05
10890.0 9.5027e-05
10910.0 9.5336e-05
10930.0 9.5512e-05
10950.0 9.547e-05
10970.0 9.5147e-05
10990.0 9.4512e-05
11010.0 9.3451e-05
11030.0 9.1964e-05
11050.0 9.0153e-05
11070.0 8.7986e-05
11090.0 8.5383e-05
11110.0 8.269e-05
11130.0 7.9881e-05
11150.0 7.6857e-05
11170.0 7.374e-05
11190.0 7.0716e-05
11210.0 6.7593e-05
11230.0 6.4391e-05
11250.0 6.1331e-05
11270.0 5.8393e-05
11290.0 5.5449e-05
11310.0 5.2661e-05
11330.0 5.0205e-05
11350.0 4.7885e-05
11370.0 4.5741e-05
11390.0 4.3886e-05
11410.0 4.2263e-05
11430.0 4.0756e-05
11450.0 3.9457e-05
11470.0 3.8333e-05
11490.0 3.7288e-05
11510.0 3.6281e-05
11530.0 3.5346e-05
11550.0 3.4418e-05
11570.0 3.3428e-05
11590.0 3.2402e-05
11610.0 3.1358e-05
11630.0 3.0221e-05
11650.0 2.9005e-05
11670.0 2.7806e-05
11690.0 2.659e-05
11710.0 2.5336e-05
11730.0 2.412e-05
11750.0 2.2995e-05
11770.0 2.1892e-05
11790.0 2.0858e-05
11810.0 1.9948e-05
11830.0 1.9134e-05
11850.0 1.8385e-05
11870.0 1.7758e-05
11890.0 1.7236e-05
11910.0 1.6778e-05
11930.0 1.6384e-05
11950.0 1.6057e-05
11970.0 1.5764e-05
11990.0 1.5487e-05
12010.0 1.5231e-05
12030.0 1.4984e-05
12050.0 1.4728e-05
12070.0 1.4463e-05
12090.0 1.4207e-05
12110.0 1.3947e-05
12130.0 1.3687e-05
12150.0 1.3447e-05
12170.0 1.3238e-05
12190.0 1.3056e-05
12210.0 1.293e-05
12230.0 1.2869e-05
12250.0 1.2879e-05
12270.0 1.2976e-05
12290.0 1.3159e-05
12310.0 1.3423e-05
12330.0 1.3791e-05
12350.0 1.4251e-05
12370.0 1.4774e-05
12390.0 1.5378e-05
12410.0 1.6085e-05
12430.0 1.6804e-05
12450.0 1.7548e-05
12470.0 1.834e-05
12490.0 1.9135e-05
12510.0 1.9881e-05
12530.0 2.0623e-05
12550.0 2.1338e-05
12570.0 2.197e-05
12590.0 2.2525e-05
12610.0 2.3019e-05
12630.0 2.3413e-05
12650.0 2.3685e-05
12670.0 2.3864e-05
12690.0 2.3936e-05
12710.0 2.3896e-05
12730.0 2.3758e-05
12750.0 2.351e-05
12770.0 2.3171e-05
12790.0 2.276e-05
12810.0 2.2269e-05
12830.0 2.1701e-05
12850.0 2.1107e-05
12870.0 2.0478e-05
12890.0 1.9798e-05
12910.0 1.9107e-05
12930.0 1.8426e-05
12950.0 1.7715e-05
12970.0 1.6992e-05
12990.0 1.6308e-05
13010.0 1.5632e-05
13030.0 1.4948e-05
13050.0 1.4292e-05
13070.0 1.3677e-05
13090.0 1.306e-05
13110.0 1.2463e-05
13130.0 1.1912e-05
13150.0 1.1391e-05
13170.0 1.088e-05
13190.0 1.0426e-05
13210.0 1.0026e-05
13230.0 9.661e-06
13250.0 9.3464e-06
13270.0 9.0982e-06
13290.0 8.9051e-06
13310.0 8.7721e-06
13330.0 8.7116e-06
13350.0 8.7186e-06
13370.0 8.7968e-06
13390.0 8.9504e-06
13410.0 9.158e-06
13430.0 9.4279e-06
13450.0 9.7612e-06
13470.0 1.0131e-05
13490.0 1.0523e-05
13510.0 1.0965e-05
13530.0 1.1413e-05
13550.0 1.1842e-05
13570.0 1.2265e-05
13590.0 1.2677e-05
13610.0 1.3044e-05
13630.0 1.3364e-05
13650.0 1.3657e-05
13670.0 1.3899e-05
13690.0 1.4087e-05
13710.0 1.4232e-05
13730.0 1.4335e-05
13750.0 1.4387e-05
13770.0 1.4399e-05
13790.0 1.4373e-05
13810.0 1.4309e-05
13830.0 1.4216e-05
13850.0 1.4089e-05
13870.0 1.3928e-05
13890.0 1.3745e-05
13910.0 1.3539e-05
13930.0 1.33e-05
13950.0 1.3039e-05
13970.0 1.2772e-05
13990.0 1.2482e-05
14010.0 1.2173e-05
14030.0 1.1864e-05
14050.0 1.1554e-05
14070.0 1.1226e-05
14090.0 1.0912e-05
14110.0 1.0617e-05
14130.0 1.033e-05
14150.0 1.0061e-05
14170.0 9.8311e-06
14190.0 9.6323e-06
14210.0 9.4637e-06
14230.0 9.3388e-06
14250.0 9.2581e-06
14270.0 9.219e-06
14290.0 9.2273e-06
14310.0 9.2787e-06
14330.0 9.371e-06
14350.0 9.507e-06
14370.0 9.6763e-06
14390.0 9.8686e-06
14410.0 1.0095e-05
14430.0 1.0344e-05
14450.0 1.0598e-05
14470.0 1.0861e-05
14490.0 1.1142e-05
14510.0 1.141e-05
14530.0 1.1664e-05
14550.0 1.1919e-05
14570.0 1.2163e-05
14590.0 1.2385e-05
14610.0 1.26e-05
14630.0 1.2813e-05
14650.0 1.3011e-05
14670.0 1.3203e-05
14690.0 1.3402e-05
14710.0 1.3612e-05
14730.0 1.3822e-05
14750.0 1.4054e-05
14770.0 1.4318e-05
14790.0 1.4604e-05
14810.0 1.4914e-05
14830.0 1.5281e-05
14850.0 1.568e-05
14870.0 1.6096e-05
14890.0 1.6545e-05
14910.0 1.7021e-05
14930.0 1.748e-05
14950.0 1.7908e-05
14970.0 1.8314e-05
14990.0 1.8654e-05
15010.0 1.8914e-05
15030.0 1.9107e-05
15050.0 1.9234e-05
15070.0 1.9297e-05
15090.0 1.9318e-05
15110.0 1.9312e-05
15130.0 1.9288e-05
15150.0 1.9255e-05
15170.0 1.9217e-05
15190.0 1.9175e-05
15210.0 1.9134e-05
15230.0 1.9094e-05
15250.0 1.9052e-05
15270.0 1.901e-05
15290.0 1.897e-05
15310.0 1.893e-05
15330.0 1.8889e-05
15350.0 1.885e-05
15370.0 1.8811e-05
15390.0 1.8769e-05
15410.0 1.873e-05
15430.0 1.8691e-05
15450.0 1.8652e-05
15470.0 1.8612e-05
15490.0 1.8574e-05
15510.0 1.8536e-05
15530.0 1.8497e-05
15550.0 1.8459e-05
15570.0 1.8422e-05
15590.0 1.8383e-05
15610.0 1.8344e-05
15630.0 1.8307e-05
15650.0 1.827e-05
15670.0 1.8232e-05
15690.0 1.8195e-05
15710.0 1.8159e-05
15730.0 1.8121e-05
15750.0 1.8083e-05
15770.0 1.8047e-05
15790.0 1.8011e-05
15810.0 1.7973e-05
15830.0 1.7936e-05
15850.0 1.7901e-05
15870.0 1.7864e-05
15890.0 1.7827e-05
15910.0 1.7792e-05
15930.0 1.7756e-05
15950.0 1.7718e-05
15970.0 1.7682e-05
15990.0 1.7647e-05
16010.0 1.761e-05
16030.0 1.7573e-05
16050.0 1.7538e-05
16070.0 1.7503e-05
16090.0 1.7466e-05
16110.0 1.743e-05
16130.0 1.7396e-05
16150.0 1.7358e-05
16170.0 1.7322e-05
16190.0 1.7287e-05
16210.0 1.7251e-05
16230.0 1.7214e-05
16250.0 1.7179e-05
16270.0 1.7144e-05
16290.0 1.7107e-05
16310.0 1.7071e-05
16330.0 1.7036e-05
16350.0 1.7e-05
16370.0 1.6962e-05
16390.0 1.6927e-05
16410.0 1.6892e-05
16430.0 1.6855e-05
16450.0 1.6818e-05
16470.0 1.6784e-05
16490.0 1.6747e-05
16510.0 1.671e-05
16530.0 1.6674e-05
16550.0 1.6638e-05
16570.0 1.6601e-05
16590.0 1.6564e-05
16610.0 1.6528e-05
16630.0 1.6492e-05
16650.0 1.6454e-05
16670.0 1.6418e-05
16690.0 1.6382e-05
16710.0 1.6344e-05
16730.0 1.6307e-05
16750.0 1.6271e-05
16770.0 1.6233e-05
16790.0 1.6195e-05
16810.0 1.6159e-05
16830.0 1.6122e-05
16850.0 1.6084e-05
16870.0 1.6046e-05
16890.0 1.601e-05
16910.0 1.5971e-05
16930.0 1.5932e-05
16950.0 1.5895e-05
16970.0 1.5858e-05
16990.0 1.5819e-05
17010.0 1.5781e-05
17030.0 1.5744e-05
17050.0 1.5705e-05
17070.0 1.5666e-05
17090.0 1.5628e-05
17110.0 1.559e-05
17130.0 1.5549e-05
17150.0 1.5511e-05
17170.0 1.5473e-05
17190.0 1.5433e-05
17210.0 1.5394e-05
17230.0 1.5356e-05
17250.0 1.5316e-05
17270.0 1.5276e-05
17290.0 1.5236e-05
17310.0 1.5198e-05
17330.0 1.5157e-05
17350.0 1.5116e-05
17370.0 1.5078e-05
17390.0 1.5038e-05
17410.0 1.4997e-05
17430.0 1.4957e-05
17450.0 1.4918e-05
17470.0 1.4876e-05
17490.0 1.4835e-05
17510.0 1.4795e-05
17530.0 1.4755e-05
17550.0 1.4713e-05
17570.0 1.4672e-05
17590.0 1.4632e-05
17610.0 1.459e-05
17630.0 1.4549e-05
17650.0 1.4509e-05
17670.0 1.4467e-05
17690.0 1.4424e-05
17710.0 1.4383e-05
17730.0 1.4342e-05
17750.0 1.43e-05
17770.0 1.4258e-05
17790.0 1.4217e-05
17810.0 1.4174e-05
17830.0 1.4131e-05
17850.0 1.409e-05
17870.0 1.4048e-05
17890.0 1.4004e-05
17910.0 1.3962e-05
17930.0 1.392e-05
17950.0 1.3878e-05
17970.0 1.3834e-05
17990.0 1.3792e-05
18010.0 1.375e-05
18030.0 1.3706e-05
18050.0 1.3663e-05
18070.0 1.362e-05
18090.0 1.3577e-05
18110.0 1.3533e-05
18130.0 1.349e-05
18150.0 1.3448e-05
18170.0 1.3403e-05
18190.0 1.336e-05
18210.0 1.3318e-05
18230.0 1.3273e-05
18250.0 1.3228e-05
18270.0 1.3185e-05
18290.0 1.3142e-05
18310.0 1.3097e-05
18330.0 1.3054e-05
18350.0 1.3011e-05
18370.0 1.2966e-05
18390.0 1.2921e-05
18410.0 1.2878e-05
18430.0 1.2834e-05
18450.0 1.2789e-05
18470.0 1.2745e-05
18490.0 1.2701e-05
18510.0 1.2657e-05
18530.0 1.2612e-05
18550.0 1.2569e-05
18570.0 1.2524e-05
18590.0 1.2478e-05
18610.0 1.2434e-05
18630.0 1.239e-05
18650.0 1.2345e-05
18670.0 1.2299e-05
18690.0 1.2256e-05
18710.0 1.2212e-05
18730.0 1.2166e-05
18750.0 1.2122e-05
18770.0 1.2078e-05
18790.0 1.2032e-05
18810.0 1.1987e-05
18830.0 1.1943e-05
18850.0 1.1898e-05
18870.0 1.1852e-05
18890.0 1.1808e-05
18910.0 1.1764e-05
18930.0 1.1718e-05
18950.0 1.1673e-05
18970.0 1.1629e-05
18990.0 1.1584e-05
19010.0 1.1537e-05
19030.0 1.1493e-05
19050.0 1.1449e-05
19070.0 1.1403e-05
19090.0 1.1358e-05
19110.0 1.1315e-05
19130.0 1.1269e-05
19150.0 1.1223e-05
19170.0 1.1179e-05
19190.0 1.1134e-05
19210.0 1.1088e-05
19230.0 1.1043e-05
19250.0 1.0999e-05
19270.0 1.0954e-05
19290.0 1.0908e-05
19310.0 1.0864e-05
19330.0 1.082e-05
19350.0 1.0773e-05
19370.0 1.0728e-05
19390.0 1.0684e-05
19410.0 1.0639e-05
19430.0 1.0593e-05
19450.0 1.0549e-05
19470.0 1.0505e-05
19490.0 1.0459e-05
19510.0 1.0414e-05
19530.0 1.0371e-05
19550.0 1.0325e-05
19570.0 1.0279e-05
19590.0 1.0235e-05
19610.0 1.0191e-05
19630.0 1.0145e-05
19650.0 1.0101e-05
19670.0 1.0057e-05
19690.0 1.0012e-05
19710.0 9.9664e-06
19730.0 9.9226e-06
19750.0 9.8781e-06
19770.0 9.8319e-06
19790.0 9.7878e-06
19810.0 9.7441e-06
19830.0 9.6987e-06
19850.0 9.6532e-06
19870.0 9.6085e-06
19890.0 9.5605e-06
19910.0 9.5078e-06
19930.0 9.4514e-06
19950.0 9.3869e-06
19970.0 9.3074e-06
19990.0 9.2118e-06
20010.0 8.1957e-06
20030.0 8.0771e-06
20050.0 7.9382e-06
20070.0 7.7878e-06
20090.0 7.626e-06
20110.0 7.443e-06
20130.0 7.2577e-06
20150.0 7.0741e-06
20170.0 6.8837e-06
20190.0 6.6906e-06
20210.0 6.5082e-06
20230.0 6.3303e-06
20250.0 6.152e-06
20270.0 5.9866e-06
20290.0 5.8355e-06
20310.0 5.6919e-06
20330.0 5.5578e-06
20350.0 5.4464e-06
20370.0 5.3476e-06
20390.0 5.2609e-06
20410.0 5.1909e-06
20430.0 5.1369e-06
20450.0 5.0942e-06
20470.0 5.0655e-06
20490.0 5.0501e-06
20510.0 5.0457e-06
20530.0 5.0519e-06
20550.0 5.0675e-06
20570.0 5.0902e-06
20590.0 5.1209e-06
20610.0 5.1582e-06
20630.0 5.1991e-06
20650.0 5.245e-06
20670.0 5.2974e-06
20690.0 5.3508e-06
20710.0 5.406e-06
20730.0 5.4656e-06
20750.0 5.5278e-06
20770.0 5.589e-06
20790.0 5.6532e-06
20810.0 5.7211e-06
20830.0 5.7888e-06
20850.0 5.8567e-06
20870.0 5.9294e-06
20890.0 6.0035e-06
20910.0 6.0751e-06
20930.0 6.1493e-06
20950.0 6.2262e-06
20970.0 6.3011e-06
20990.0 6.3751e-06
21010.0 6.4529e-06
21030.0 6.5289e-06
21050.0 6.6015e-06
21070.0 6.6739e-06
21090.0 6.7466e-06
21110.0 6.8129e-06
21130.0 6.8751e-06
21150.0 6.9355e-06
21170.0 6.9901e-06
21190.0 7.0371e-06
21210.0 7.0794e-06
21230.0 7.1145e-06
21250.0 7.1396e-06
21270.0 7.1555e-06
21290.0 7.1614e-06
21310.0 7.1557e-06
21330.0 7.1388e-06
21350.0 7.1092e-06
21370.0 7.0656e-06
21390.0 7.0103e-06
21410.0 6.9426e-06
21430.0 6.8568e-06
21450.0 6.7605e-06
21470.0 6.6556e-06
21490.0 6.5369e-06
21510.0 6.4068e-06
21530.0 6.2746e-06
21550.0 6.1361e-06
21570.0 5.9883e-06
21590.0 5.8431e-06
21610.0 5.7027e-06
21630.0 5.5622e-06
21650.0 5.4248e-06
21670.0 5.3058e-06
21690.0 5.1961e-06
21710.0 5.0972e-06
21730.0 5.0163e-06
21750.0 4.9538e-06
21770.0 4.9062e-06
21790.0 4.8789e-06
21810.0 4.8713e-06
21830.0 4.8821e-06
21850.0 4.9126e-06
21870.0 4.9602e-06
21890.0 5.0217e-06
21910.0 5.1005e-06
21930.0 5.193e-06
21950.0 5.2932e-06
21970.0 5.4042e-06
21990.0 5.5288e-06
22010.0 5.6533e-06
22030.0 5.7797e-06
22050.0 5.9125e-06
22070.0 6.0461e-06
22090.0 6.1725e-06
22110.0 6.2999e-06
22130.0 6.4272e-06
22150.0 6.5461e-06
22170.0 6.6581e-06
22190.0 6.7691e-06
22210.0 6.8725e-06
22230.0 6.9634e-06
22250.0 7.049e-06
22270.0 7.1279e-06
22290.0 7.1953e-06
22310.0 7.2531e-06
22330.0 7.304e-06
22350.0 7.3434e-06
22370.0 7.3712e-06
22390.0 7.3886e-06
22410.0 7.3941e-06
22430.0 7.387e-06
22450.0 7.368e-06
22470.0 7.3351e-06
22490.0 7.2889e-06
22510.0 7.2313e-06
22530.0 7.1577e-06
22550.0 7.0681e-06
22570.0 6.9687e-06
22590.0 6.8566e-06
22610.0 6.7277e-06
22630.0 6.5881e-06
