#lamb flux
1010.0 5.967e-05
1030.0 7.899e-05
1050.0 0.00010415
1070.0 0.00013627
1090.0 0.00017733
1110.0 0.00022615
1130.0 0.00028278
1150.0 0.00034941
1170.0 0.00042575
1190.0 0.00050765
1210.0 0.00059665
1230.0 0.00069269
1250.0 0.00079104
1270.0 0.00088845
1290.0 0.00098709
1310.0 0.0010808
1330.0 0.0011636
1350.0 0.001236
1370.0 0.001297
1390.0 0.0013408
1410.0 0.001366
1430.0 0.0013769
1450.0 0.0013709
1470.0 0.001347
1490.0 0.0013097
1510.0 0.0012627
1530.0 0.0012028
1550.0 0.0011355
1570.0 0.0010661
1590.0 0.00099392
1610.0 0.00091975
1630.0 0.00084769
1650.0 0.00077864
1670.0 0.00071227
1690.0 0.00065005
1710.0 0.00059335
1730.0 0.00054175
1750.0 0.00049457
1770.0 0.0004531
1790.0 0.00041697
1810.0 0.00038549
1830.0 0.00035867
1850.0 0.0003362
1870.0 0.00031723
1890.0 0.00030232
1910.0 0.00029162
1930.0 0.0002849
1950.0 0.00028263
1970.0 0.00028382
1990.0 0.00028791
2010.0 0.00029449
2030.0 0.00030335
2050.0 0.00031475
2070.0 0.00033022
2090.0 0.00034828
2110.0 0.00036887
2130.0 0.00039207
2150.0 0.00041744
2170.0 0.00044461
2190.0 0.00047399
2210.0 0.00050471
2230.0 0.00053608
2250.0 0.00056874
2270.0 0.00060296
2290.0 0.00063787
2310.0 0.00067315
2330.0 0.00070927
2350.0 0.00074581
2370.0 0.000782
2390.0 0.00081812
2410.0 0.00085437
2430.0 0.00088964
2450.0 0.00092386
2470.0 0.00095766
2490.0 0.00099123
2510.0 0.0010243
2530.0 0.0010594
2550.0 0.0010998
2570.0 0.0011487
2590.0 0.0012101
2610.0 0.0012966
2630.0 0.0014138
2650.0 0.0015621
2670.0 0.0017522
2690.0 0.0019922
2710.0 0.0022646
2730.0 0.0025578
2750.0 0.0028811
2770.0 0.0032015
2790.0 0.0034901
2810.0 0.003748
2830.0 0.0039734
2850.0 0.0041336
2870.0 0.0042485
2890.0 0.0043336
2910.0 0.0043896
2930.0 0.0044184
2950.0 0.0044382
2970.0 0.0044503
2990.0 0.0044499
3010.0 0.0044427
3030.0 0.0044363
3050.0 0.0044272
3070.0 0.0044092
3090.0 0.0043942
3110.0 0.004383
3130.0 0.0043753
3150.0 0.0042698
3170.0 0.0042182
3190.0 0.0041925
3210.0 0.0042217
3230.0 0.0043712
3250.0 0.0048364
3270.0 0.0056316
3290.0 0.0063125
3310.0 0.0065403
3330.0 0.0066815
3350.0 0.0067888
3370.0 0.0069081
3390.0 0.007021
3410.0 0.0070847
3430.0 0.0071096
3450.0 0.0071239
3470.0 0.0071575
3490.0 0.0071167
3510.0 0.0067614
3530.0 0.0059046
3550.0 0.0054628
3570.0 0.0066017
3590.0 0.0082761
3610.0 0.0094554
3630.0 0.011469
3650.0 0.011525
3670.0 0.0099022
3690.0 0.0082268
3710.0 0.007478
3730.0 0.0077319
3750.0 0.0079824
3770.0 0.0082848
3790.0 0.0086101
3810.0 0.0091881
3830.0 0.0085324
3850.0 0.0075055
3870.0 0.0069917
3890.0 0.0075751
3910.0 0.0079636
3930.0 0.0080249
3950.0 0.0085692
3970.0 0.0091919
3990.0 0.0092322
4010.0 0.0094389
4030.0 0.0090926
4050.0 0.0088039
4070.0 0.0085893
4090.0 0.0086421
4110.0 0.0087627
4130.0 0.0085287
4150.0 0.0081306
4170.0 0.0079479
4190.0 0.0078249
4210.0 0.007167
4230.0 0.0065293
4250.0 0.005788
4270.0 0.0051063
4290.0 0.0049206
4310.0 0.0047993
4330.0 0.0048716
4350.0 0.0054484
4370.0 0.0055909
4390.0 0.0061751
4410.0 0.0065879
4430.0 0.0067458
4450.0 0.0060828
4470.0 0.0053555
4490.0 0.0051122
4510.0 0.0048785
4530.0 0.004748
4550.0 0.0046038
4570.0 0.0045806
4590.0 0.0046689
4610.0 0.0045618
4630.0 0.0044924
4650.0 0.0043459
4670.0 0.0042384
4690.0 0.0038427
4710.0 0.0035149
4730.0 0.0031856
4750.0 0.0029914
4770.0 0.0026168
4790.0 0.0026051
4810.0 0.0024981
4830.0 0.0019009
4850.0 0.0022647
4870.0 0.00172
4890.0 0.0019665
4910.0 0.0022714
4930.0 0.0021966
4950.0 0.0015678
4970.0 0.0015081
4990.0 0.0014451
5010.0 0.0011765
5030.0 0.0011054
5050.0 0.0014165
5070.0 0.0014113
5090.0 0.001476
5110.0 0.0015179
5130.0 0.0014694
5150.0 0.0015581
5170.0 0.0013227
5190.0 0.0012499
5210.0 0.0014103
5230.0 0.0012713
5250.0 0.0014466
5270.0 0.0017934
5290.0 0.0017566
5310.0 0.0015197
5330.0 0.0015187
5350.0 0.0012906
5370.0 0.0013111
5390.0 0.0013955
5410.0 0.0013289
5430.0 0.0015076
5450.0 0.0013091
5470.0 0.0013238
5490.0 0.0018327
5510.0 0.0018712
5530.0 0.0019104
5550.0 0.001883
5570.0 0.0020209
5590.0 0.0021644
5610.0 0.0021793
5630.0 0.0021441
5650.0 0.0021639
5670.0 0.0021443
5690.0 0.0021765
5710.0 0.0020777
5730.0 0.0021902
5750.0 0.0021535
5770.0 0.0020515
5790.0 0.0021113
5810.0 0.002056
5830.0 0.0021156
5850.0 0.002101
5870.0 0.0020666
5890.0 0.002108
5910.0 0.0023018
5930.0 0.0022949
5950.0 0.0023691
5970.0 0.0024042
5990.0 0.0024963
6010.0 0.0024461
6030.0 0.0024593
6050.0 0.0024597
6070.0 0.0023852
6090.0 0.0024776
6110.0 0.0024994
6130.0 0.0024178
6150.0 0.0023969
6170.0 0.0023908
6190.0 0.0021528
6210.0 0.0021524
6230.0 0.002225
6250.0 0.0022165
6270.0 0.0022101
6290.0 0.0023078
6310.0 0.0024283
6330.0 0.0024358
6350.0 0.0023805
6370.0 0.0024079
6390.0 0.002289
6410.0 0.0023018
6430.0 0.0022216
6450.0 0.0022317
6470.0 0.0022435
6490.0 0.0022536
6510.0 0.0021393
6530.0 0.0021305
6550.0 0.0020977
6570.0 0.0020231
6590.0 0.0020877
6610.0 0.0020892
6630.0 0.0020457
6650.0 0.0019471
6670.0 0.0018979
6690.0 0.0018514
6710.0 0.0017837
6730.0 0.0017437
6750.0 0.0017504
6770.0 0.0017633
6790.0 0.0016382
6810.0 0.0016574
6830.0 0.0016295
6850.0 0.0015017
6870.0 0.0014677
6890.0 0.0014444
6910.0 0.0014269
6930.0 0.0013898
6950.0 0.0014103
6970.0 0.0013536
6990.0 0.0013236
7010.0 0.0013156
7030.0 0.0013397
7050.0 0.0013042
7070.0 0.001168
7090.0 0.0010605
7110.0 0.00103
7130.0 0.0010547
7150.0 0.0010581
7170.0 0.0010396
7190.0 0.00096785
7210.0 0.0010547
7230.0 0.0011269
7250.0 0.0011089
7270.0 0.0011084
7290.0 0.0011403
7310.0 0.0010658
7330.0 0.0010196
7350.0 0.00096332
7370.0 0.00099644
7390.0 0.001056
7410.0 0.00091859
7430.0 0.00092881
7450.0 0.00090827
7470.0 0.00097581
7490.0 0.00097243
7510.0 0.00088672
7530.0 0.00092367
7550.0 0.00071736
7570.0 0.00065644
7590.0 0.00073579
7610.0 0.00082142
7630.0 0.00077666
7650.0 0.0008366
7670.0 0.00068381
7690.0 0.00057086
7710.0 0.00063856
7730.0 0.00075091
7750.0 0.00065258
7770.0 0.00077815
7790.0 0.00081133
7810.0 0.00074737
7830.0 0.00083603
7850.0 0.00071942
7870.0 0.00082071
7890.0 0.00074968
7910.0 0.00073871
7930.0 0.00064848
7950.0 0.0005714
7970.0 0.00063572
7990.0 0.00067526
8010.0 0.0014557
8030.0 0.0014169
8050.0 0.0013941
8070.0 0.0013526
8090.0 0.0012314
8110.0 0.0012067
8130.0 0.0013407
8150.0 0.0014244
8170.0 0.00147
8190.0 0.0015383
8210.0 0.0014751
8230.0 0.0014788
8250.0 0.0014691
8270.0 0.0014728
8290.0 0.0014556
8310.0 0.0013822
8330.0 0.0013406
8350.0 0.0013848
8370.0 0.0014062
8390.0 0.0013696
8410.0 0.001354
8430.0 0.0013058
8450.0 0.001272
8470.0 0.0013687
8490.0 0.0013758
8510.0 0.0012874
8530.0 0.0012824
8550.0 0.0012665
8570.0 0.0011761
8590.0 0.0011908
8610.0 0.0011972
8630.0 0.0012449
8650.0 0.0012499
8670.0 0.0012574
8690.0 0.0012308
8710.0 0.0012007
8730.0 0.0011558
8750.0 0.0011313
8770.0 0.0011253
8790.0 0.001176
8810.0 0.0011053
8830.0 0.001089
8850.0 0.0011484
8870.0 0.0010876
8890.0 0.0010043
8910.0 0.00099014
8930.0 0.0010027
8950.0 0.00092642
8970.0 0.00088753
8990.0 0.00086696
9010.0 0.000815
9030.0 0.00080256
9050.0 0.00079873
9070.0 0.00079533
9090.0 0.0007919
9110.0 0.00078841
9130.0 0.0007849
9150.0 0.00078139
9170.0 0.00077783
9190.0 0.00077425
9210.0 0.00077063
9230.0 0.00076699
9250.0 0.00076332
9270.0 0.00075963
9290.0 0.00075592
9310.0 0.00075264
9330.0 0.00075002
9350.0 0.00074739
9370.0 0.00074472
9390.0 0.00074202
9410.0 0.0007393
9430.0 0.00073656
9450.0 0.00073378
9470.0 0.00073136
9490.0 0.00072873
9510.0 0.00072569
9530.0 0.00072266
9550.0 0.00071972
9570.0 0.00071681
9590.0 0.00071387
9610.0 0.00071161
9630.0 0.00070945
9650.0 0.00070723
9670.0 0.00070494
9690.0 0.00070269
9710.0 0.00070042
9730.0 0.00069809
9750.0 0.00069574
9770.0 0.00069346
9790.0 0.0006911
9810.0 0.0006887
9830.0 0.00068633
9850.0 0.00068357
9870.0 0.00068046
9890.0 0.00067848
9910.0 0.00067633
9930.0 0.00067371
9950.0 0.0006713
9970.0 0.00066904
9990.0 0.00066669
10010.0 0.0006643
10030.0 0.00066186
10050.0 0.0006594
10070.0 0.00065693
10090.0 0.00065446
10110.0 0.00065198
10130.0 0.0006495
10150.0 0.00064702
10170.0 0.00064454
10190.0 0.00064207
10210.0 0.0006396
10230.0 0.00063713
10250.0 0.00063467
10270.0 0.00063221
10290.0 0.00062976
10310.0 0.00062731
10330.0 0.00062488
10350.0 0.00062245
10370.0 0.00062003
10390.0 0.00061758
10410.0 0.0006147
10430.0 0.00061169
10450.0 0.00060983
10470.0 0.00060769
10490.0 0.0006055
10510.0 0.00060328
10530.0 0.00060095
10550.0 0.00059864
10570.0 0.00059638
10590.0 0.00059409
10610.0 0.00059178
10630.0 0.00058954
10650.0 0.00058731
10670.0 0.00058503
10690.0 0.0005828
10710.0 0.00058062
10730.0 0.00057842
10750.0 0.00057619
10770.0 0.00057406
10790.0 0.00057193
10810.0 0.00056978
10830.0 0.00056766
10850.0 0.0005656
10870.0 0.00056347
10890.0 0.00056134
10910.0 0.00055924
10930.0 0.00055707
10950.0 0.00055478
10970.0 0.00055239
10990.0 0.00054993
11010.0 0.00053629
11030.0 0.00053337
11050.0 0.00053007
11070.0 0.00052639
11090.0 0.00052224
11110.0 0.000518
11130.0 0.00051362
11150.0 0.00050902
11170.0 0.0005043
11190.0 0.00049965
11210.0 0.00049488
11230.0 0.00048997
11250.0 0.00048518
11270.0 0.00048045
11290.0 0.00047564
11310.0 0.00047091
11330.0 0.00046648
11350.0 0.00046209
11370.0 0.0004578
11390.0 0.00045374
11410.0 0.00044987
11430.0 0.00044601
11450.0 0.00044233
11470.0 0.00043882
11490.0 0.00043535
11510.0 0.00043189
11530.0 0.00042855
11550.0 0.00042525
11570.0 0.00042186
11590.0 0.00041848
11610.0 0.00041513
11630.0 0.00041167
11650.0 0.00040809
11670.0 0.00040457
11690.0 0.00040099
11710.0 0.00039728
11730.0 0.00039355
11750.0 0.00038987
11770.0 0.00038607
11790.0 0.00038221
11810.0 0.00037842
11830.0 0.00037465
11850.0 0.00037077
11870.0 0.00036702
11890.0 0.0003634
11910.0 0.0003598
11930.0 0.00035627
11950.0 0.00035295
11970.0 0.00034974
11990.0 0.0003466
12010.0 0.00034368
12030.0 0.00034095
12050.0 0.00033835
12070.0 0.00033591
12090.0 0.00033371
12110.0 0.00033167
12130.0 0.00032975
12150.0 0.00032801
12170.0 0.00032642
12190.0 0.0003249
12210.0 0.00032349
12230.0 0.00032215
12250.0 0.00032085
12270.0 0.00031955
12290.0 0.00031823
12310.0 0.00031688
12330.0 0.00031544
12350.0 0.0003139
12370.0 0.00031228
12390.0 0.00031053
12410.0 0.00030859
12430.0 0.00030655
12450.0 0.0003044
12470.0 0.00030205
12490.0 0.00029956
12510.0 0.00029703
12530.0 0.00029432
12550.0 0.00029144
12570.0 0.00028852
12590.0 0.00028555
12610.0 0.00028241
12630.0 0.0002792
12650.0 0.00027609
12670.0 0.00027288
12690.0 0.00026961
12710.0 0.00026644
12730.0 0.00026332
12750.0 0.00026009
12770.0 0.00025698
12790.0 0.00025402
12810.0 0.00025108
12830.0 0.00024818
12850.0 0.00024549
12870.0 0.00024292
12890.0 0.00024041
12910.0 0.00023806
12930.0 0.00023592
12950.0 0.00023387
12970.0 0.00023197
12990.0 0.00023032
13010.0 0.00022884
13030.0 0.00022752
13050.0 0.00022641
13070.0 0.00022549
13090.0 0.00022472
13110.0 0.00022411
13130.0 0.00022363
13150.0 0.00022327
13170.0 0.00022298
13190.0 0.00022275
13210.0 0.00022255
13230.0 0.00022235
13250.0 0.00022213
13270.0 0.00022188
13290.0 0.00022157
13310.0 0.00022119
13330.0 0.00022072
13350.0 0.00022019
13370.0 0.00021954
13390.0 0.00021878
13410.0 0.00021795
13430.0 0.00021701
13450.0 0.00021593
13470.0 0.00021477
13490.0 0.00021355
13510.0 0.00021215
13530.0 0.00021068
13550.0 0.00020918
13570.0 0.0002076
13590.0 0.00020591
13610.0 0.00020423
13630.0 0.00020255
13650.0 0.00020077
13670.0 0.00019897
13690.0 0.00019721
13710.0 0.0001954
13730.0 0.00019349
13750.0 0.00019167
13770.0 0.00018986
13790.0 0.00018799
13810.0 0.00018612
13830.0 0.00018435
13850.0 0.00018252
13870.0 0.00018067
13890.0 0.00017891
13910.0 0.00017721
13930.0 0.00017546
13950.0 0.00017377
13970.0 0.00017223
13990.0 0.00017069
14010.0 0.00016918
14030.0 0.0001678
14050.0 0.00016649
14070.0 0.00016518
14090.0 0.00016398
14110.0 0.00016289
14130.0 0.00016184
14150.0 0.00016083
14170.0 0.00015994
14190.0 0.00015911
14210.0 0.0001583
14230.0 0.00015755
14250.0 0.00015687
14270.0 0.00015618
14290.0 0.00015551
14310.0 0.00015492
14330.0 0.00015435
14350.0 0.00015378
14370.0 0.00015325
14390.0 0.00015277
14410.0 0.00015229
14430.0 0.00015182
14450.0 0.00015141
14470.0 0.00015101
14490.0 0.0001506
14510.0 0.00015023
14530.0 0.0001499
14550.0 0.00014955
14570.0 0.0001492
14590.0 0.00014889
14610.0 0.00014855
14630.0 0.00014819
14650.0 0.00014785
14670.0 0.00014751
14690.0 0.00014714
14710.0 0.00014675
14730.0 0.00014638
14750.0 0.00014599
14770.0 0.00014556
14790.0 0.00014514
14810.0 0.00014471
14830.0 0.00014422
14850.0 0.00014371
14870.0 0.00014322
14890.0 0.0001427
14910.0 0.00014215
14930.0 0.00014164
14950.0 0.00014117
14970.0 0.00014071
14990.0 0.00014031
15010.0 0.00014
15030.0 0.00013974
15050.0 0.00013953
15070.0 0.0001394
15090.0 0.0001393
15110.0 0.00013921
15130.0 0.00013914
15150.0 0.0001391
15170.0 0.00013903
15190.0 0.00013897
15210.0 0.00013891
15230.0 0.00013884
15250.0 0.00013876
15270.0 0.00013868
15290.0 0.00013862
15310.0 0.00013853
15330.0 0.00013844
15350.0 0.00013835
15370.0 0.00013826
15390.0 0.00013815
15410.0 0.00013804
15430.0 0.00013793
15450.0 0.00013782
15470.0 0.00013768
15490.0 0.00013756
15510.0 0.00013744
15530.0 0.0001373
15550.0 0.00013715
15570.0 0.00013701
15590.0 0.00013686
15610.0 0.00013669
15630.0 0.00013653
15650.0 0.00013636
15670.0 0.00013618
15690.0 0.000136
15710.0 0.00013583
15730.0 0.00013563
15750.0 0.00013543
15770.0 0.00013523
15790.0 0.00013503
15810.0 0.0001348
15830.0 0.00013458
15850.0 0.00013436
15870.0 0.00013413
15890.0 0.00013389
15910.0 0.00013365
15930.0 0.00013341
15950.0 0.00013314
15970.0 0.00013289
15990.0 0.00013263
16010.0 0.00013235
16030.0 0.00013207
16050.0 0.0001318
16070.0 0.00013152
16090.0 0.00013122
16110.0 0.00013093
16130.0 0.00013063
16150.0 0.00013031
16170.0 0.00013
16190.0 0.00012969
16210.0 0.00012937
16230.0 0.00012903
16250.0 0.0001287
16270.0 0.00012838
16290.0 0.00012803
16310.0 0.00012768
16330.0 0.00012734
16350.0 0.00012698
16370.0 0.00012661
16390.0 0.00012625
16410.0 0.00012589
16430.0 0.00012551
16450.0 0.00012513
16470.0 0.00012476
16490.0 0.00012437
16510.0 0.00012397
16530.0 0.00012358
16550.0 0.00012319
16570.0 0.00012278
16590.0 0.00012237
16610.0 0.00012198
16630.0 0.00012157
16650.0 0.00012114
16670.0 0.00012073
16690.0 0.00012032
16710.0 0.00011988
16730.0 0.00011945
16750.0 0.00011903
16770.0 0.0001186
16790.0 0.00011815
16810.0 0.00011772
16830.0 0.00011728
16850.0 0.00011683
16870.0 0.00011639
16890.0 0.00011595
16910.0 0.00011549
16930.0 0.00011503
16950.0 0.00011458
16970.0 0.00011413
16990.0 0.00011366
17010.0 0.0001132
17030.0 0.00011275
17050.0 0.00011228
17070.0 0.0001118
17090.0 0.00011134
17110.0 0.00011088
17130.0 0.00011039
17150.0 0.00010992
17170.0 0.00010946
17190.0 0.00010898
17210.0 0.0001085
17230.0 0.00010803
17250.0 0.00010755
17270.0 0.00010706
17290.0 0.00010658
17310.0 0.00010611
17330.0 0.00010562
17350.0 0.00010513
17370.0 0.00010466
17390.0 0.00010418
17410.0 0.00010369
17430.0 0.00010321
17450.0 0.00010273
17470.0 0.00010224
17490.0 0.00010175
17510.0 0.00010127
17530.0 0.00010078
17550.0 0.00010029
17570.0 9.9809e-05
17590.0 9.9331e-05
17610.0 9.8839e-05
17630.0 9.8351e-05
17650.0 9.7874e-05
17670.0 9.7389e-05
17690.0 9.6889e-05
17710.0 9.6412e-05
17730.0 9.5934e-05
17750.0 9.5444e-05
17770.0 9.496e-05
17790.0 9.449e-05
17810.0 9.4003e-05
17830.0 9.3514e-05
17850.0 9.3038e-05
17870.0 9.2563e-05
17890.0 9.2074e-05
17910.0 9.1592e-05
17930.0 9.1125e-05
17950.0 9.0647e-05
17970.0 9.0166e-05
17990.0 8.9698e-05
18010.0 8.9229e-05
18030.0 8.8743e-05
18050.0 8.8271e-05
18070.0 8.7807e-05
18090.0 8.7334e-05
18110.0 8.6857e-05
18130.0 8.6398e-05
18150.0 8.5935e-05
18170.0 8.5463e-05
18190.0 8.4999e-05
18210.0 8.4545e-05
18230.0 8.4076e-05
18250.0 8.3606e-05
18270.0 8.3155e-05
18290.0 8.27e-05
18310.0 8.2236e-05
18330.0 8.1783e-05
18350.0 8.1339e-05
18370.0 8.088e-05
18390.0 8.0424e-05
18410.0 7.9981e-05
18430.0 7.9534e-05
18450.0 7.9075e-05
18470.0 7.8633e-05
18490.0 7.8197e-05
18510.0 7.775e-05
18530.0 7.7307e-05
18550.0 7.6877e-05
18570.0 7.6438e-05
18590.0 7.5992e-05
18610.0 7.556e-05
18630.0 7.5133e-05
18650.0 7.4695e-05
18670.0 7.4259e-05
18690.0 7.3841e-05
18710.0 7.3415e-05
18730.0 7.2984e-05
18750.0 7.2564e-05
18770.0 7.215e-05
18790.0 7.1717e-05
18810.0 7.1295e-05
18830.0 7.0886e-05
18850.0 7.047e-05
18870.0 7.0049e-05
18890.0 6.9642e-05
18910.0 6.9238e-05
18930.0 6.8822e-05
18950.0 6.8413e-05
18970.0 6.8014e-05
18990.0 6.7608e-05
19010.0 6.7192e-05
19030.0 6.6799e-05
19050.0 6.6404e-05
19070.0 6.6e-05
19090.0 6.5604e-05
19110.0 6.522e-05
19130.0 6.4821e-05
19150.0 6.4423e-05
19170.0 6.4038e-05
19190.0 6.3653e-05
19210.0 6.3257e-05
19230.0 6.287e-05
19250.0 6.2496e-05
19270.0 6.2111e-05
19290.0 6.1726e-05
19310.0 6.1353e-05
19330.0 6.098e-05
19350.0 6.0591e-05
19370.0 6.0217e-05
19390.0 5.985e-05
19410.0 5.9475e-05
19430.0 5.9098e-05
19450.0 5.8737e-05
19470.0 5.8372e-05
19490.0 5.7999e-05
19510.0 5.7636e-05
19530.0 5.7279e-05
19550.0 5.691e-05
19570.0 5.6541e-05
19590.0 5.6189e-05
19610.0 5.5833e-05
19630.0 5.547e-05
19650.0 5.5116e-05
19670.0 5.477e-05
19690.0 5.441e-05
19710.0 5.4054e-05
19730.0 5.3709e-05
19750.0 5.336e-05
19770.0 5.3e-05
19790.0 5.2656e-05
19810.0 5.2317e-05
19830.0 5.1967e-05
19850.0 5.1622e-05
19870.0 5.129e-05
19890.0 5.0951e-05
19910.0 5.0611e-05
19930.0 5.0292e-05
19950.0 4.9989e-05
19970.0 4.9696e-05
19990.0 4.9429e-05
20010.0 4.9201e-05
20030.0 4.8994e-05
20050.0 4.8815e-05
20070.0 4.8667e-05
20090.0 4.8542e-05
20110.0 4.8429e-05
20130.0 4.8333e-05
20150.0 4.8249e-05
20170.0 4.817e-05
20190.0 4.8096e-05
20210.0 4.8027e-05
20230.0 4.796e-05
20250.0 4.7892e-05
20270.0 4.7825e-05
20290.0 4.7758e-05
20310.0 4.7688e-05
20330.0 4.7614e-05
20350.0 4.7539e-05
20370.0 4.746e-05
20390.0 4.7376e-05
20410.0 4.7288e-05
20430.0 4.7199e-05
20450.0 4.7103e-05
20470.0 4.7004e-05
20490.0 4.6905e-05
20510.0 4.6804e-05
20530.0 4.67e-05
20550.0 4.6598e-05
20570.0 4.6499e-05
20590.0 4.64e-05
20610.0 4.6301e-05
20630.0 4.6207e-05
20650.0 4.6114e-05
20670.0 4.6019e-05
20690.0 4.5927e-05
20710.0 4.5835e-05
20730.0 4.574e-05
20750.0 4.5641e-05
20770.0 4.5541e-05
20790.0 4.5434e-05
20810.0 4.5318e-05
20830.0 4.5196e-05
20850.0 4.5067e-05
20870.0 4.4924e-05
20890.0 4.477e-05
20910.0 4.4613e-05
20930.0 4.4443e-05
20950.0 4.426e-05
20970.0 4.4074e-05
20990.0 4.3882e-05
21010.0 4.3677e-05
21030.0 4.3469e-05
21050.0 4.3261e-05
21070.0 4.3048e-05
21090.0 4.2827e-05
21110.0 4.2613e-05
21130.0 4.2399e-05
21150.0 4.2179e-05
21170.0 4.196e-05
21190.0 4.1746e-05
21210.0 4.1524e-05
21230.0 4.1297e-05
21250.0 4.1074e-05
21270.0 4.0848e-05
21290.0 4.0611e-05
21310.0 4.0371e-05
21330.0 4.0132e-05
21350.0 3.9881e-05
21370.0 3.962e-05
21390.0 3.9352e-05
21410.0 3.9078e-05
21430.0 3.8784e-05
21450.0 3.8488e-05
21470.0 3.8191e-05
21490.0 3.7881e-05
21510.0 3.756e-05
21530.0 3.7241e-05
21550.0 3.6915e-05
21570.0 3.6574e-05
21590.0 3.6232e-05
21610.0 3.5892e-05
21630.0 3.5539e-05
21650.0 3.5176e-05
21670.0 3.4824e-05
21690.0 3.4466e-05
21710.0 3.4096e-05
21730.0 3.3728e-05
21750.0 3.3365e-05
21770.0 3.2984e-05
21790.0 3.2601e-05
21810.0 3.2223e-05
21830.0 3.1839e-05
21850.0 3.1444e-05
21870.0 3.1051e-05
21890.0 3.0662e-05
21910.0 3.0261e-05
21930.0 2.9856e-05
21950.0 2.9458e-05
21970.0 2.9055e-05
21990.0 2.864e-05
22010.0 2.8236e-05
22030.0 2.7836e-05
22050.0 2.743e-05
22070.0 2.7046e-05
22090.0 2.671e-05
22110.0 2.6373e-05
22130.0 2.6036e-05
22150.0 2.5709e-05
22170.0 2.5389e-05
22190.0 2.5068e-05
22210.0 2.4754e-05
22230.0 2.445e-05
22250.0 2.4148e-05
22270.0 2.3848e-05
22290.0 2.3554e-05
22310.0 2.3264e-05
22330.0 2.2972e-05
22350.0 2.2682e-05
22370.0 2.2395e-05
22390.0 2.2106e-05
22410.0 2.1814e-05
22430.0 2.1524e-05
22450.0 2.1231e-05
22470.0 2.0934e-05
22490.0 2.0635e-05
22510.0 2.0334e-05
22530.0 2.0028e-05
22550.0 1.9717e-05
22570.0 1.9405e-05
22590.0 1.9089e-05
22610.0 1.8768e-05
22630.0 1.8445e-05
22650.0 1.812e-05
22670.0 1.7791e-05
22690.0 1.7458e-05
22710.0 1.7125e-05
22730.0 1.6789e-05
22750.0 1.6448e-05
22770.0 1.6107e-05
22790.0 1.5764e-05
22810.0 1.5418e-05
22830.0 1.507e-05
22850.0 1.472e-05
22870.0 1.4366e-05
22890.0 1.4008e-05
22910.0 1.3647e-05
22930.0 1.3282e-05
22950.0 1.2911e-05
22970.0 1.2534e-05
