#lamb flux
1010.0 1.5148e-05
1030.0 1.6127e-05
1050.0 1.7258e-05
1070.0 1.8533e-05
1090.0 1.9982e-05
1110.0 2.1472e-05
1130.0 2.2975e-05
1150.0 2.4554e-05
1170.0 2.6187e-05
1190.0 2.7743e-05
1210.0 2.9325e-05
1230.0 3.0966e-05
1250.0 3.2582e-05
1270.0 3.4159e-05
1290.0 3.5831e-05
1310.0 3.7511e-05
1330.0 3.9133e-05
1350.0 4.0782e-05
1370.0 4.2492e-05
1390.0 4.4172e-05
1410.0 4.5814e-05
1430.0 4.7537e-05
1450.0 4.9272e-05
1470.0 5.0961e-05
1490.0 5.2679e-05
1510.0 5.4496e-05
1530.0 5.6234e-05
1550.0 5.7958e-05
1570.0 5.9744e-05
1590.0 6.1538e-05
1610.0 6.3262e-05
1630.0 6.5038e-05
1650.0 6.6858e-05
1670.0 6.8621e-05
1690.0 7.0359e-05
1710.0 7.2152e-05
1730.0 7.3947e-05
1750.0 7.5627e-05
1770.0 7.734e-05
1790.0 7.9069e-05
1810.0 8.0722e-05
1830.0 8.2323e-05
1850.0 8.3996e-05
1870.0 8.5595e-05
1890.0 8.7107e-05
1910.0 8.8616e-05
1930.0 9.0129e-05
1950.0 9.1528e-05
1970.0 9.287e-05
1990.0 9.4231e-05
2010.0 9.5525e-05
2030.0 9.6722e-05
2050.0 9.7927e-05
2070.0 9.9134e-05
2090.0 0.00010021
2110.0 0.00010125
2130.0 0.00010231
2150.0 0.0001033
2170.0 0.00010421
2190.0 0.00010515
2210.0 0.00010608
2230.0 0.00010694
2250.0 0.00010778
2270.0 0.00010869
2290.0 0.00010955
2310.0 0.00011036
2330.0 0.00011122
2350.0 0.00011211
2370.0 0.00011297
2390.0 0.00011386
2410.0 0.00011485
2430.0 0.00011583
2450.0 0.00011683
2470.0 0.00011793
2490.0 0.00011919
2510.0 0.00012061
2530.0 0.00012263
2550.0 0.00012589
2570.0 0.00013116
2590.0 0.00013931
2610.0 0.00015259
2630.0 0.00017172
2650.0 0.00019588
2670.0 0.00022546
2690.0 0.00025961
2710.0 0.00029399
2730.0 0.00032644
2750.0 0.00035751
2770.0 0.00038462
2790.0 0.00040735
2810.0 0.00042767
2830.0 0.00044711
2850.0 0.00046483
2870.0 0.00048248
2890.0 0.00050117
2910.0 0.00052057
2930.0 0.00054005
2950.0 0.00056093
2970.0 0.00058304
2990.0 0.00060535
3010.0 0.002142
3030.0 0.0022238
3050.0 0.0023052
3070.0 0.0023786
3090.0 0.0024408
3110.0 0.0024746
3130.0 0.00246
3150.0 0.002375
3170.0 0.0021758
3190.0 0.0018585
3210.0 0.0014293
3230.0 0.00094757
3250.0 0.0014527
3270.0 0.00090846
3290.0 0.0020912
3310.0 0.00082435
3330.0 0.00081607
3350.0 0.00097736
3370.0 0.0011703
3390.0 0.0013812
3410.0 0.0015926
3430.0 0.0018154
3450.0 0.0020402
3470.0 0.0022477
3490.0 0.0023929
3510.0 0.0028734
3530.0 0.0037208
3550.0 0.0036245
3570.0 0.0029888
3590.0 0.0040457
3610.0 0.0026184
3630.0 0.0042639
3650.0 0.0049666
3670.0 0.0063153
3690.0 0.0058636
3710.0 0.0039264
3730.0 0.0050674
3750.0 0.0051888
3770.0 0.0055689
3790.0 0.0054039
3810.0 0.0055631
3830.0 0.0087434
3850.0 0.010732
3870.0 0.013235
3890.0 0.012862
3910.0 0.011496
3930.0 0.011644
3950.0 0.012577
3970.0 0.013868
3990.0 0.0088919
4010.0 0.0048133
4030.0 0.0085593
4050.0 0.011322
4070.0 0.012112
4090.0 0.0084718
4110.0 0.0053624
4130.0 0.0088194
4150.0 0.0090041
4170.0 0.0083812
4190.0 0.007605
4210.0 0.010764
4230.0 0.0079303
4250.0 0.008592
4270.0 0.0085359
4290.0 0.0080872
4310.0 0.010367
4330.0 0.011202
4350.0 0.0093336
4370.0 0.0078793
4390.0 0.0096031
4410.0 0.0098352
4430.0 0.0072314
4450.0 0.0065615
4470.0 0.008109
4490.0 0.0062041
4510.0 0.00866
4530.0 0.0090003
4550.0 0.010681
4570.0 0.015058
4590.0 0.014891
4610.0 0.011807
4630.0 0.018843
4650.0 0.025111
4670.0 0.023947
4690.0 0.016934
4710.0 0.017957
4730.0 0.020341
4750.0 0.016757
4770.0 0.01281
4790.0 0.0086456
4810.0 0.011801
4830.0 0.013898
4850.0 0.012217
4870.0 0.0051356
4890.0 0.013863
4910.0 0.018175
4930.0 0.019754
4950.0 0.020354
4970.0 0.014298
4990.0 0.016639
5010.0 0.019326
5030.0 0.020715
5050.0 0.019338
5070.0 0.013675
5090.0 0.011095
5110.0 0.010726
5130.0 0.010191
5150.0 0.010615
5170.0 0.0094722
5190.0 0.011293
5210.0 0.01146
5230.0 0.012678
5250.0 0.015036
5270.0 0.012451
5290.0 0.012932
5310.0 0.018983
5330.0 0.021795
5350.0 0.018268
5370.0 0.016404
5390.0 0.019008
5410.0 0.022652
5430.0 0.024099
5450.0 0.025316
5470.0 0.025451
5490.0 0.026174
5510.0 0.031287
5530.0 0.032453
5550.0 0.034218
5570.0 0.035877
5590.0 0.035211
5610.0 0.032918
5630.0 0.03209
5650.0 0.033139
5670.0 0.032331
5690.0 0.027638
5710.0 0.027298
5730.0 0.027298
5750.0 0.028341
5770.0 0.024372
5790.0 0.023214
5810.0 0.023745
5830.0 0.025585
5850.0 0.023783
5870.0 0.023859
5890.0 0.027778
5910.0 0.025874
5930.0 0.021332
5950.0 0.019238
5970.0 0.020931
5990.0 0.018973
6010.0 0.017329
6030.0 0.016994
6050.0 0.015564
6070.0 0.01206
6090.0 0.011469
6110.0 0.014714
6130.0 0.016512
6150.0 0.017055
6170.0 0.016587
6190.0 0.01582
6210.0 0.016495
6230.0 0.020017
6250.0 0.018496
6270.0 0.01663
6290.0 0.015116
6310.0 0.013692
6330.0 0.012701
6350.0 0.011352
6370.0 0.011506
6390.0 0.013388
6410.0 0.016624
6430.0 0.01965
6450.0 0.019726
6470.0 0.019946
6490.0 0.024359
6510.0 0.027966
6530.0 0.026575
6550.0 0.025216
6570.0 0.025579
6590.0 0.025211
6610.0 0.026684
6630.0 0.024883
6650.0 0.02162
6670.0 0.019944
6690.0 0.019771
6710.0 0.023402
6730.0 0.020838
6750.0 0.017139
6770.0 0.015472
6790.0 0.016437
6810.0 0.018876
6830.0 0.018788
6850.0 0.016851
6870.0 0.017453
6890.0 0.017345
6910.0 0.016301
6930.0 0.018098
6950.0 0.016836
6970.0 0.015683
6990.0 0.015634
7010.0 0.015749
7030.0 0.015298
7050.0 0.014648
7070.0 0.015711
7090.0 0.014633
7110.0 0.012407
7130.0 0.010657
7150.0 0.010465
7170.0 0.013213
7190.0 0.014008
7210.0 0.013282
7230.0 0.013969
7250.0 0.013568
7270.0 0.013235
7290.0 0.014337
7310.0 0.015716
7330.0 0.015312
7350.0 0.014206
7370.0 0.013142
7390.0 0.013181
7410.0 0.015145
7430.0 0.017052
7450.0 0.018156
7470.0 0.018416
7490.0 0.020486
7510.0 0.020255
7530.0 0.018361
7550.0 0.017402
7570.0 0.015057
7590.0 0.014352
7610.0 0.013878
7630.0 0.012799
7650.0 0.013766
7670.0 0.015268
7690.0 0.016641
7710.0 0.01901
7730.0 0.019961
7750.0 0.020763
7770.0 0.021606
7790.0 0.023463
7810.0 0.023663
7830.0 0.021259
7850.0 0.021369
7870.0 0.020598
7890.0 0.021113
7910.0 0.019907
7930.0 0.019783
7950.0 0.01663
7970.0 0.016702
7990.0 0.016157
8010.0 0.017572
8030.0 0.017515
8050.0 0.018622
8070.0 0.017882
8090.0 0.017971
8110.0 0.017707
8130.0 0.017518
8150.0 0.01646
8170.0 0.016159
8190.0 0.016126
8210.0 0.016293
8230.0 0.014259
8250.0 0.013044
8270.0 0.011535
8290.0 0.0098126
8310.0 0.0086485
8330.0 0.0068541
8350.0 0.0055522
8370.0 0.0053634
8390.0 0.0052024
8410.0 0.0054473
8430.0 0.0070101
8450.0 0.0076382
8470.0 0.0082249
8490.0 0.0096296
8510.0 0.010484
8530.0 0.011927
8550.0 0.014115
8570.0 0.015512
8590.0 0.016322
8610.0 0.018136
8630.0 0.020641
8650.0 0.021184
8670.0 0.021635
8690.0 0.02246
8710.0 0.022032
8730.0 0.021346
8750.0 0.019677
8770.0 0.01969
8790.0 0.019419
8810.0 0.017865
8830.0 0.017893
8850.0 0.016393
8870.0 0.015636
8890.0 0.014013
8910.0 0.015626
8930.0 0.014139
8950.0 0.014181
8970.0 0.014486
8990.0 0.014072
9010.0 0.014455
9030.0 0.013722
9050.0 0.013656
9070.0 0.013661
9090.0 0.013665
9110.0 0.013677
9130.0 0.013676
9150.0 0.013669
9170.0 0.013624
9190.0 0.013524
9210.0 0.013738
9230.0 0.013677
9250.0 0.013642
9270.0 0.013613
9290.0 0.013587
9310.0 0.013562
9330.0 0.013538
9350.0 0.013515
9370.0 0.01349
9390.0 0.013464
9410.0 0.013438
9430.0 0.01341
9450.0 0.013381
9470.0 0.013351
9490.0 0.013321
9510.0 0.01329
9530.0 0.013257
9550.0 0.013225
9570.0 0.013192
9590.0 0.013159
9610.0 0.013125
9630.0 0.013091
9650.0 0.013057
9670.0 0.013022
9690.0 0.012988
9710.0 0.012954
9730.0 0.012919
9750.0 0.012885
9770.0 0.012852
9790.0 0.012818
9810.0 0.012784
9830.0 0.012751
9850.0 0.012719
9870.0 0.012686
9890.0 0.012654
9910.0 0.012624
9930.0 0.012593
9950.0 0.012543
9970.0 0.01252
9990.0 0.012497
10010.0 0.012473
10030.0 0.012448
10050.0 0.012419
10070.0 0.012366
10090.0 0.012351
10110.0 0.012336
10130.0 0.012319
10150.0 0.012302
10170.0 0.012283
10190.0 0.012263
10210.0 0.012244
10230.0 0.012227
10250.0 0.012209
10270.0 0.012192
10290.0 0.012177
10310.0 0.012162
10330.0 0.012147
10350.0 0.012134
10370.0 0.012122
10390.0 0.01211
10410.0 0.012099
10430.0 0.01209
10450.0 0.012081
10470.0 0.012073
10490.0 0.012066
10510.0 0.01206
10530.0 0.012054
10550.0 0.012049
10570.0 0.012046
10590.0 0.012042
10610.0 0.01204
10630.0 0.012038
10650.0 0.012038
10670.0 0.012037
10690.0 0.012037
10710.0 0.012039
10730.0 0.012041
10750.0 0.012043
10770.0 0.012046
10790.0 0.01205
10810.0 0.012054
10830.0 0.012059
10850.0 0.012063
10870.0 0.012065
10890.0 0.012062
10910.0 0.012052
10930.0 0.012028
10950.0 0.01198
10970.0 0.011903
10990.0 0.011794
11010.0 0.011998
11030.0 0.011789
11050.0 0.011543
11070.0 0.011258
11090.0 0.010928
11110.0 0.010598
11130.0 0.010269
11150.0 0.0099316
11170.0 0.0096037
11190.0 0.0093052
11210.0 0.0090174
11230.0 0.0087434
11250.0 0.008501
11270.0 0.0082846
11290.0 0.0080821
11310.0 0.0079018
11330.0 0.0077501
11350.0 0.0076097
11370.0 0.0074792
11390.0 0.0073618
11410.0 0.0072513
11430.0 0.0071365
11450.0 0.0070228
11470.0 0.0069094
11490.0 0.0067883
11510.0 0.0066566
11530.0 0.0065241
11550.0 0.0063867
11570.0 0.0062376
11590.0 0.0060852
11610.0 0.0059344
11630.0 0.0057755
11650.0 0.0056115
11670.0 0.0054558
11690.0 0.0053019
11710.0 0.0051454
11730.0 0.0049948
11750.0 0.0048548
11770.0 0.0047143
11790.0 0.0045777
11810.0 0.0044515
11830.0 0.004331
11850.0 0.0042097
11870.0 0.0040976
11890.0 0.0039939
11910.0 0.0038909
11930.0 0.0037905
11950.0 0.0036974
11970.0 0.0036061
11990.0 0.0035131
12010.0 0.0034251
12030.0 0.0033413
12050.0 0.0032572
12070.0 0.0031741
12090.0 0.0030998
12110.0 0.0030283
12130.0 0.0029597
12150.0 0.0028989
12170.0 0.0028471
12190.0 0.0028003
12210.0 0.0027642
12230.0 0.0027404
12250.0 0.0027278
12270.0 0.0027279
12290.0 0.0027416
12310.0 0.0027676
12330.0 0.0028076
12350.0 0.0028602
12370.0 0.0029219
12390.0 0.0029935
12410.0 0.0030766
12430.0 0.0031608
12450.0 0.0032468
12470.0 0.0033359
12490.0 0.0034231
12510.0 0.0035032
12530.0 0.0035804
12550.0 0.0036525
12570.0 0.003715
12590.0 0.0037692
12610.0 0.0038167
12630.0 0.0038555
12650.0 0.0038848
12670.0 0.0039074
12690.0 0.003923
12710.0 0.0039318
12730.0 0.0039351
12750.0 0.0039324
12770.0 0.0039248
12790.0 0.0039133
12810.0 0.0038971
12830.0 0.0038759
12850.0 0.003852
12870.0 0.0038243
12890.0 0.0037909
12910.0 0.0037535
12930.0 0.0037132
12950.0 0.0036661
12970.0 0.0036127
12990.0 0.0035576
13010.0 0.003498
13030.0 0.0034319
13050.0 0.0033636
13070.0 0.0032956
13090.0 0.003223
13110.0 0.0031493
13130.0 0.0030792
13150.0 0.0030111
13170.0 0.0029429
13190.0 0.0028823
13210.0 0.0028296
13230.0 0.0027818
13250.0 0.0027415
13270.0 0.0027109
13290.0 0.0026876
13310.0 0.0026712
13330.0 0.0026628
13350.0 0.0026606
13370.0 0.002663
13390.0 0.0026688
13410.0 0.0026762
13430.0 0.0026837
13450.0 0.0026898
13470.0 0.0026932
13490.0 0.0026931
13510.0 0.0026883
13530.0 0.0026785
13550.0 0.0026647
13570.0 0.0026465
13590.0 0.002624
13610.0 0.0025995
13630.0 0.002574
13650.0 0.0025465
13670.0 0.0025192
13690.0 0.0024936
13710.0 0.0024689
13730.0 0.0024448
13750.0 0.0024239
13770.0 0.0024049
13790.0 0.0023867
13810.0 0.0023698
13830.0 0.0023542
13850.0 0.0023384
13870.0 0.002322
13890.0 0.0023054
13910.0 0.0022882
13930.0 0.0022691
13950.0 0.0022491
13970.0 0.0022292
13990.0 0.0022081
14010.0 0.0021865
14030.0 0.0021658
14050.0 0.002146
14070.0 0.0021264
14090.0 0.0021089
14110.0 0.0020936
14130.0 0.0020802
14150.0 0.0020688
14170.0 0.00206
14190.0 0.0020534
14210.0 0.0020489
14230.0 0.0020467
14250.0 0.0020464
14270.0 0.0020484
14290.0 0.0020528
14310.0 0.0020588
14330.0 0.0020668
14350.0 0.0020771
14370.0 0.0020889
14390.0 0.0021015
14410.0 0.0021159
14430.0 0.0021313
14450.0 0.0021465
14470.0 0.0021619
14490.0 0.0021782
14510.0 0.0021936
14530.0 0.0022082
14550.0 0.0022235
14570.0 0.002239
14590.0 0.0022543
14610.0 0.0022711
14630.0 0.0022904
14650.0 0.0023111
14670.0 0.0023339
14690.0 0.002361
14710.0 0.0023924
14730.0 0.0024252
14750.0 0.0024624
14770.0 0.0025047
14790.0 0.002549
14810.0 0.0025948
14830.0 0.0026463
14850.0 0.0026982
14870.0 0.0027482
14890.0 0.0027982
14910.0 0.0028471
14930.0 0.00289
14950.0 0.0029264
14970.0 0.0029577
14990.0 0.0029803
15010.0 0.0029938
15030.0 0.003
15050.0 0.0029994
15070.0 0.0029928
15090.0 0.0029826
15110.0 0.0029697
15130.0 0.0029553
15150.0 0.0029403
15170.0 0.0029247
15190.0 0.0029088
15210.0 0.0028931
15230.0 0.0028774
15250.0 0.0028614
15270.0 0.0028456
15290.0 0.0028301
15310.0 0.0028144
15330.0 0.0027987
15350.0 0.0027832
15370.0 0.0027678
15390.0 0.0027521
15410.0 0.0027366
15430.0 0.0027214
15450.0 0.002706
15470.0 0.0026906
15490.0 0.0026755
15510.0 0.0026605
15530.0 0.0026453
15550.0 0.0026302
15570.0 0.0026155
15590.0 0.0026005
15610.0 0.0025855
15630.0 0.0025708
15650.0 0.0025562
15670.0 0.0025415
15690.0 0.002527
15710.0 0.0025127
15730.0 0.0024982
15750.0 0.0024839
15770.0 0.0024697
15790.0 0.0024557
15810.0 0.0024414
15830.0 0.0024274
15850.0 0.0024136
15870.0 0.0023998
15890.0 0.0023859
15910.0 0.0023725
15930.0 0.0023589
15950.0 0.0023452
15970.0 0.0023319
15990.0 0.0023187
16010.0 0.0023053
16030.0 0.002292
16050.0 0.0022791
16070.0 0.0022662
16090.0 0.0022532
16110.0 0.0022404
16130.0 0.0022279
16150.0 0.002215
16170.0 0.0022024
16190.0 0.00219
16210.0 0.0021776
16230.0 0.0021652
16250.0 0.002153
16270.0 0.002141
16290.0 0.0021289
16310.0 0.0021168
16330.0 0.0021051
16350.0 0.0020933
16370.0 0.0020813
16390.0 0.0020697
16410.0 0.0020583
16430.0 0.0020467
16450.0 0.0020353
16470.0 0.0020241
16490.0 0.0020128
16510.0 0.0020015
16530.0 0.0019905
16550.0 0.0019795
16570.0 0.0019684
16590.0 0.0019575
16610.0 0.0019469
16630.0 0.0019361
16650.0 0.0019254
16670.0 0.0019149
16690.0 0.0019045
16710.0 0.0018939
16730.0 0.0018835
16750.0 0.0018733
16770.0 0.0018631
16790.0 0.0018528
16810.0 0.0018428
16830.0 0.0018329
16850.0 0.0018228
16870.0 0.0018129
16890.0 0.0018033
16910.0 0.0017934
16930.0 0.0017835
16950.0 0.001774
16970.0 0.0017645
16990.0 0.0017549
17010.0 0.0017454
17030.0 0.0017362
17050.0 0.0017268
17070.0 0.0017174
17090.0 0.0017083
17110.0 0.0016992
17130.0 0.0016899
17150.0 0.0016809
17170.0 0.001672
17190.0 0.001663
17210.0 0.0016541
17230.0 0.0016454
17250.0 0.0016367
17270.0 0.0016278
17290.0 0.0016191
17310.0 0.0016106
17330.0 0.001602
17350.0 0.0015933
17370.0 0.001585
17390.0 0.0015766
17410.0 0.0015681
17430.0 0.0015599
17450.0 0.0015517
17470.0 0.0015433
17490.0 0.001535
17510.0 0.001527
17530.0 0.0015189
17550.0 0.0015107
17570.0 0.0015028
17590.0 0.001495
17610.0 0.0014869
17630.0 0.001479
17650.0 0.0014713
17670.0 0.0014635
17690.0 0.0014555
17710.0 0.0014479
17730.0 0.0014403
17750.0 0.0014325
17770.0 0.0014249
17790.0 0.0014175
17810.0 0.0014099
17830.0 0.0014023
17850.0 0.0013949
17870.0 0.0013876
17890.0 0.0013801
17910.0 0.0013727
17930.0 0.0013656
17950.0 0.0013583
17970.0 0.0013509
17990.0 0.0013438
18010.0 0.0013368
18030.0 0.0013294
18050.0 0.0013223
18070.0 0.0013154
18090.0 0.0013083
18110.0 0.0013012
18130.0 0.0012944
18150.0 0.0012875
18170.0 0.0012805
18190.0 0.0012736
18210.0 0.001267
18230.0 0.00126
18250.0 0.0012531
18270.0 0.0012465
18290.0 0.0012398
18310.0 0.001233
18330.0 0.0012264
18350.0 0.00122
18370.0 0.0012133
18390.0 0.0012067
18410.0 0.0012002
18430.0 0.0011938
18450.0 0.0011871
18470.0 0.0011807
18490.0 0.0011744
18510.0 0.001168
18530.0 0.0011616
18550.0 0.0011554
18570.0 0.0011491
18590.0 0.0011426
18610.0 0.0011364
18630.0 0.0011303
18650.0 0.001124
18670.0 0.0011178
18690.0 0.0011118
18710.0 0.0011057
18730.0 0.0010995
18750.0 0.0010935
18770.0 0.0010876
18790.0 0.0010814
18810.0 0.0010754
18830.0 0.0010696
18850.0 0.0010636
18870.0 0.0010576
18890.0 0.0010518
18910.0 0.0010461
18930.0 0.0010401
18950.0 0.0010343
18970.0 0.0010287
18990.0 0.0010229
19010.0 0.0010169
19030.0 0.0010113
19050.0 0.0010057
19070.0 0.00099999
19090.0 0.00099435
19110.0 0.00098892
19130.0 0.00098324
19150.0 0.00097756
19170.0 0.0009721
19190.0 0.00096663
19210.0 0.00096099
19230.0 0.00095548
19250.0 0.00095019
19270.0 0.00094472
19290.0 0.00093924
19310.0 0.00093397
19330.0 0.00092867
19350.0 0.00092312
19370.0 0.00091781
19390.0 0.00091262
19410.0 0.00090728
19430.0 0.00090191
19450.0 0.00089681
19470.0 0.00089165
19490.0 0.00088633
19510.0 0.00088118
19530.0 0.00087615
19550.0 0.00087089
19570.0 0.00086564
19590.0 0.00086067
19610.0 0.00085562
19630.0 0.00085045
19650.0 0.00084545
19670.0 0.00084057
19690.0 0.00083546
19710.0 0.00083041
19730.0 0.00082554
19750.0 0.0008206
19770.0 0.00081548
19790.0 0.00081062
19810.0 0.00080583
19830.0 0.00080085
19850.0 0.00079588
19870.0 0.00079102
19890.0 0.00078581
19910.0 0.0007801
19930.0 0.00077405
19950.0 0.0007672
19970.0 0.00075887
19990.0 0.00074904
20010.0 0.00073812
20030.0 0.00072523
20050.0 0.00071062
20070.0 0.00069538
20090.0 0.00067965
20110.0 0.00066264
20130.0 0.00064632
20150.0 0.00063098
20170.0 0.00061588
20190.0 0.00060139
20210.0 0.00058845
20230.0 0.00057646
20250.0 0.00056507
20270.0 0.0005551
20290.0 0.00054652
20310.0 0.00053888
20330.0 0.0005323
20350.0 0.00052743
20370.0 0.00052371
20390.0 0.0005212
20410.0 0.00052007
20430.0 0.00052023
20450.0 0.00052173
20470.0 0.00052462
20490.0 0.0005287
20510.0 0.00053404
20530.0 0.00054083
20550.0 0.00054861
20570.0 0.00055708
20590.0 0.00056675
20610.0 0.0005772
20630.0 0.0005878
20650.0 0.00059885
20670.0 0.00061061
20690.0 0.00062178
20710.0 0.00063251
20730.0 0.00064313
20750.0 0.00065319
20770.0 0.0006621
20790.0 0.00067044
20810.0 0.00067817
20830.0 0.00068487
20850.0 0.00069073
20870.0 0.00069613
20890.0 0.00070089
20910.0 0.00070492
20930.0 0.00070863
20950.0 0.00071207
20970.0 0.00071512
20990.0 0.00071785
21010.0 0.00072044
21030.0 0.00072267
21050.0 0.00072448
21070.0 0.00072592
21090.0 0.0007269
21110.0 0.00072731
21130.0 0.00072718
21150.0 0.00072646
21170.0 0.00072517
21190.0 0.00072341
21210.0 0.00072107
21230.0 0.00071821
21250.0 0.00071511
21270.0 0.00071173
21290.0 0.00070802
21310.0 0.00070422
21330.0 0.00070057
21350.0 0.00069682
21370.0 0.00069315
21390.0 0.00068977
21410.0 0.00068665
21430.0 0.00068363
21450.0 0.00068107
21470.0 0.00067894
21490.0 0.00067712
21510.0 0.00067569
21530.0 0.00067474
21550.0 0.00067419
21570.0 0.00067405
21590.0 0.00067438
21610.0 0.00067513
21630.0 0.00067637
21650.0 0.00067813
21670.0 0.00068026
21690.0 0.00068289
21710.0 0.00068611
21730.0 0.00068977
21750.0 0.00069381
21770.0 0.00069861
21790.0 0.00070394
21810.0 0.00070959
21830.0 0.00071581
21850.0 0.00072275
21870.0 0.00073
21890.0 0.00073744
21910.0 0.00074559
21930.0 0.0007541
21950.0 0.00076259
21970.0 0.00077143
21990.0 0.00078085
22010.0 0.00078989
22030.0 0.00079878
22050.0 0.00080782
22070.0 0.00081661
22090.0 0.00082467
22110.0 0.00083249
22130.0 0.0008399
22150.0 0.00084639
22170.0 0.00085202
22190.0 0.00085696
22210.0 0.00086081
22230.0 0.00086339
22250.0 0.00086489
22270.0 0.00086512
22290.0 0.00086405
22310.0 0.00086174
22330.0 0.00085791
22350.0 0.00085274
22370.0 0.00084644
22390.0 0.00083873
22410.0 0.00082946
22430.0 0.00081949
22450.0 0.00080858
22470.0 0.0007963
22490.0 0.00078331
22510.0 0.00077011
22530.0 0.00075577
22550.0 0.0007407
22570.0 0.00072597
22590.0 0.00071109
22610.0 0.00069563
22630.0 0.00068046
22650.0 0.0006661
22670.0 0.00065146
22690.0 0.00063704
22710.0 0.00062356
22730.0 0.0006106
22750.0 0.00059748
22770.0 0.0005855
22790.0 0.0005745
22810.0 0.00056385
22830.0 0.00055383
22850.0 0.00054497
22870.0 0.00053675
22890.0 0.00052903
22910.0 0.00052237
22930.0 0.00051666
22950.0 0.00051162
22970.0 0.00050742
22990.0 0.00050438
23010.0 0.00050215
23030.0 0.00050079
23050.0 0.00050039
23070.0 0.00050083
23090.0 0.0005022
23110.0 0.00050441
23130.0 0.00050731
23150.0 0.00051091
23170.0 0.00051527
23190.0 0.00052001
23210.0 0.000525
23230.0 0.0005305
23250.0 0.00053617
23270.0 0.00054171
23290.0 0.00054732
23310.0 0.00055303
23330.0 0.00055821
23350.0 0.00056303
23370.0 0.00056761
23390.0 0.00057171
23410.0 0.00057512
23430.0 0.0005781
23450.0 0.00058053
23470.0 0.00058227
23490.0 0.0005834
23510.0 0.00058393
23530.0 0.0005838
23550.0 0.00058311
23570.0 0.00058186
23590.0 0.00058006
23610.0 0.00057787
23630.0 0.00057534
23650.0 0.00057237
23670.0 0.00056925
23690.0 0.00056615
23710.0 0.00056303
23730.0 0.00056004
23750.0 0.00055758
23770.0 0.00055563
23790.0 0.00055436
