#lamb flux
1010.0 2.6331e-08
1030.0 2.9162e-08
1050.0 3.2417e-08
1070.0 3.6082e-08
1090.0 4.0245e-08
1110.0 4.4515e-08
1130.0 4.8812e-08
1150.0 5.3313e-08
1170.0 5.7956e-08
1190.0 6.2359e-08
1210.0 6.6822e-08
1230.0 7.1433e-08
1250.0 7.595e-08
1270.0 8.0338e-08
1290.0 8.4973e-08
1310.0 8.9606e-08
1330.0 9.4048e-08
1350.0 9.854e-08
1370.0 1.0318e-07
1390.0 1.077e-07
1410.0 1.1209e-07
1430.0 1.1667e-07
1450.0 1.2126e-07
1470.0 1.2568e-07
1490.0 1.3016e-07
1510.0 1.3489e-07
1530.0 1.3937e-07
1550.0 1.4378e-07
1570.0 1.4835e-07
1590.0 1.5292e-07
1610.0 1.5729e-07
1630.0 1.6178e-07
1650.0 1.6639e-07
1670.0 1.7085e-07
1690.0 1.7524e-07
1710.0 1.798e-07
1730.0 1.8437e-07
1750.0 1.8866e-07
1770.0 1.9307e-07
1790.0 1.9756e-07
1810.0 2.0189e-07
1830.0 2.0612e-07
1850.0 2.1061e-07
1870.0 2.1495e-07
1890.0 2.1912e-07
1910.0 2.2334e-07
1930.0 2.2765e-07
1950.0 2.3171e-07
1970.0 2.3567e-07
1990.0 2.3976e-07
2010.0 2.4372e-07
2030.0 2.4747e-07
2050.0 2.5128e-07
2070.0 2.5513e-07
2090.0 2.5866e-07
2110.0 2.6209e-07
2130.0 2.6555e-07
2150.0 2.6883e-07
2170.0 2.7183e-07
2190.0 2.7487e-07
2210.0 2.7781e-07
2230.0 2.8045e-07
2250.0 2.8294e-07
2270.0 2.8547e-07
2290.0 2.8772e-07
2310.0 2.8965e-07
2330.0 2.9156e-07
2350.0 2.9339e-07
2370.0 2.9498e-07
2390.0 2.9663e-07
2410.0 2.9871e-07
2430.0 3.0109e-07
2450.0 3.0404e-07
2470.0 3.0819e-07
2490.0 3.1379e-07
2510.0 3.2029e-07
2530.0 3.2871e-07
2550.0 3.4036e-07
2570.0 3.5619e-07
2590.0 3.7826e-07
2610.0 4.1311e-07
2630.0 4.632e-07
2650.0 5.2729e-07
2670.0 6.0771e-07
2690.0 7.0278e-07
2710.0 7.9912e-07
2730.0 8.8885e-07
2750.0 9.7203e-07
2770.0 1.0383e-06
2790.0 1.0846e-06
2810.0 1.1157e-06
2830.0 1.1347e-06
2850.0 1.1412e-06
2870.0 1.1409e-06
2890.0 1.1368e-06
2910.0 1.1301e-06
2930.0 1.1217e-06
2950.0 1.1131e-06
2970.0 1.1045e-06
2990.0 1.0959e-06
3010.0 3.2909e-05
3030.0 3.2672e-05
3050.0 3.2438e-05
3070.0 3.2189e-05
3090.0 3.1926e-05
3110.0 3.1619e-05
3130.0 3.1228e-05
3150.0 3.0729e-05
3170.0 3.0066e-05
3190.0 2.9254e-05
3210.0 2.8343e-05
3230.0 2.7374e-05
3250.0 2.6413e-05
3270.0 2.5698e-05
3290.0 2.518e-05
3310.0 2.5074e-05
3330.0 2.5265e-05
3350.0 2.5734e-05
3370.0 2.6483e-05
3390.0 2.7475e-05
3410.0 2.8585e-05
3430.0 2.9857e-05
3450.0 3.134e-05
3470.0 3.2978e-05
3490.0 3.4738e-05
3510.0 3.6743e-05
3530.0 3.8932e-05
3550.0 4.1272e-05
3570.0 4.3855e-05
3590.0 4.6768e-05
3610.0 5.0012e-05
3630.0 5.3298e-05
3650.0 5.6791e-05
3670.0 5.9975e-05
3690.0 6.2373e-05
3710.0 6.3613e-05
3730.0 6.3005e-05
3750.0 6.0523e-05
3770.0 6.0612e-05
3790.0 5.7937e-05
3810.0 4.5005e-05
3830.0 4.1508e-05
3850.0 5.538e-05
3870.0 4.8468e-05
3890.0 3.9677e-05
3910.0 4.6401e-05
3930.0 6.1079e-05
3950.0 6.9709e-05
3970.0 8.0924e-05
3990.0 6.4857e-05
4010.0 0.0001004
4030.0 9.2227e-05
4050.0 8.6792e-05
4070.0 9.875e-05
4090.0 9.482e-05
4110.0 9.4248e-05
4130.0 0.00011619
4150.0 0.00014782
4170.0 0.00012118
4190.0 0.0001083
4210.0 0.00011952
4230.0 0.00014787
4250.0 0.00017222
4270.0 0.00018583
4290.0 0.00017053
4310.0 0.00015882
4330.0 0.00016117
4350.0 0.00020484
4370.0 0.00024621
4390.0 0.00020076
4410.0 0.00012247
4430.0 9.0463e-05
4450.0 8.161e-05
4470.0 6.1701e-05
4490.0 9.3345e-05
4510.0 0.00016744
4530.0 0.00020078
4550.0 0.00019943
4570.0 0.00018939
4590.0 0.00020986
4610.0 0.00037925
4630.0 0.0005179
4650.0 0.00049097
4670.0 0.00043746
4690.0 0.00046019
4710.0 0.00048587
4730.0 0.00039269
4750.0 0.00025335
4770.0 0.00018325
4790.0 0.00020074
4810.0 0.000205
4830.0 0.00020151
4850.0 0.0002219
4870.0 0.00029341
4890.0 0.00034117
4910.0 0.00026568
4930.0 0.00025156
4950.0 0.00028853
4970.0 0.0003893
4990.0 0.00052226
5010.0 0.00059249
5030.0 0.00047021
5050.0 0.00028337
5070.0 0.00020122
5090.0 0.00016004
5110.0 0.00015346
5130.0 0.00017821
5150.0 0.00017344
5170.0 0.00016526
5190.0 0.0001512
5210.0 0.00016056
5230.0 0.00019366
5250.0 0.00022326
5270.0 0.00021428
5290.0 0.00023634
5310.0 0.0003065
5330.0 0.00032102
5350.0 0.00031664
5370.0 0.00035708
5390.0 0.00043596
5410.0 0.0003774
5430.0 0.00028959
5450.0 0.0002874
5470.0 0.00033609
5490.0 0.00042768
5510.0 0.00053007
5530.0 0.00061023
5550.0 0.00055431
5570.0 0.00049496
5590.0 0.00041137
5610.0 0.0004128
5630.0 0.00045214
5650.0 0.00042805
5670.0 0.00039899
5690.0 0.00032942
5710.0 0.00033366
5730.0 0.00032282
5750.0 0.00017839
5770.0 0.00013501
5790.0 0.00016517
5810.0 0.00018317
5830.0 0.00026678
5850.0 0.00033671
5870.0 0.00035488
5890.0 0.00033543
5910.0 0.00032348
5930.0 0.00031623
5950.0 0.00032868
5970.0 0.00039879
5990.0 0.0003339
6010.0 0.0002591
6030.0 0.00021069
6050.0 0.00018648
6070.0 0.00021776
6090.0 0.00024831
6110.0 0.000256
6130.0 0.00023399
6150.0 0.00018925
6170.0 0.00016451
6190.0 0.00020493
6210.0 0.0003047
6230.0 0.00042449
6250.0 0.00044601
6270.0 0.00034923
6290.0 0.0002963
6310.0 0.00022778
6330.0 0.00016887
6350.0 0.00016298
6370.0 0.00017191
6390.0 0.00020783
6410.0 0.00026181
6430.0 0.00031376
6450.0 0.00038437
6470.0 0.00041782
6490.0 0.00050687
6510.0 0.00056898
6530.0 0.0005646
6550.0 0.00051955
6570.0 0.00044027
6590.0 0.0004267
6610.0 0.00035785
6630.0 0.00036211
6650.0 0.00034507
6670.0 0.0003152
6690.0 0.00026203
6710.0 0.00024947
6730.0 0.00014258
6750.0 0.00016288
6770.0 0.00022309
6790.0 0.00028815
6810.0 0.00022285
6830.0 0.00022824
6850.0 0.00019964
6870.0 0.00018981
6890.0 0.00016757
6910.0 0.00018828
6930.0 0.00017617
6950.0 0.00020436
6970.0 0.00020793
6990.0 0.00023075
7010.0 0.0002318
7030.0 0.00024819
7050.0 0.00021792
7070.0 0.00019054
7090.0 0.00019536
7110.0 0.00019811
7130.0 0.00022125
7150.0 0.00024952
7170.0 0.00027613
7190.0 0.00028711
7210.0 0.00025713
7230.0 0.00026028
7250.0 0.00028552
7270.0 0.00031687
7290.0 0.00037677
7310.0 0.00038488
7330.0 0.00034954
7350.0 0.00031145
7370.0 0.00024097
7390.0 0.00025129
7410.0 0.00030304
7430.0 0.00034163
7450.0 0.00036767
7470.0 0.00035229
7490.0 0.00031883
7510.0 0.00046874
7530.0 0.00042115
7550.0 0.00038172
7570.0 0.00026315
7590.0 0.00013022
7610.0 9.8678e-05
7630.0 0.00013474
7650.0 0.00017388
7670.0 0.00025895
7690.0 0.0002922
7710.0 0.0002717
7730.0 0.00026843
7750.0 0.00033457
7770.0 0.00034016
7790.0 0.00031566
7810.0 0.00026915
7830.0 0.00028302
7850.0 0.00029744
7870.0 0.00028744
7890.0 0.00023135
7910.0 0.00016201
7930.0 0.0001595
7950.0 0.00014332
7970.0 0.00012478
7990.0 0.00011604
8010.0 0.00010782
8030.0 0.00010327
8050.0 0.00010834
8070.0 0.00011398
8090.0 0.00012849
8110.0 0.00012035
8130.0 8.5498e-05
8150.0 8.3412e-05
8170.0 6.1142e-05
8190.0 5.0766e-05
8210.0 7.7053e-05
8230.0 8.7841e-05
8250.0 5.6382e-05
8270.0 4.824e-05
8290.0 5.5882e-05
8310.0 4.3349e-05
8330.0 2.708e-05
8350.0 2.1095e-05
8370.0 1.1907e-05
8390.0 2.3754e-05
8410.0 2.8884e-05
8430.0 3.5883e-05
8450.0 4.0124e-05
8470.0 5.6302e-05
8490.0 4.911e-05
8510.0 4.2586e-05
8530.0 3.1859e-05
8550.0 6.409e-05
8570.0 9.2086e-05
8590.0 7.8147e-05
8610.0 0.0001067
8630.0 0.00011881
8650.0 8.8709e-05
8670.0 0.00010727
8690.0 0.00013802
8710.0 0.00012311
8730.0 0.00012697
8750.0 0.00010636
8770.0 9.7861e-05
8790.0 0.00010414
8810.0 0.00010734
8830.0 7.0938e-05
8850.0 4.4335e-05
8870.0 3.472e-05
8890.0 5.1876e-05
8910.0 7.0797e-05
8930.0 8.6955e-05
8950.0 9.8665e-05
8970.0 9.6955e-05
8990.0 8.0712e-05
9010.0 6.1212e-05
9030.0 5.3016e-05
9050.0 5.4599e-05
9070.0 5.6071e-05
9090.0 5.7229e-05
9110.0 5.8545e-05
9130.0 5.9519e-05
9150.0 6.0247e-05
9170.0 6.1021e-05
9190.0 6.1849e-05
9210.0 6.2716e-05
9230.0 6.3636e-05
9250.0 6.4576e-05
9270.0 6.5547e-05
9290.0 6.6547e-05
9310.0 6.7558e-05
9330.0 6.8588e-05
9350.0 6.9652e-05
9370.0 7.073e-05
9390.0 7.1822e-05
9410.0 7.2942e-05
9430.0 7.4092e-05
9450.0 7.5245e-05
9470.0 7.6421e-05
9490.0 7.7627e-05
9510.0 7.8849e-05
9530.0 8.0082e-05
9550.0 8.1351e-05
9570.0 8.264e-05
9590.0 8.394e-05
9610.0 8.5261e-05
9630.0 8.6612e-05
9650.0 8.7977e-05
9670.0 8.935e-05
9690.0 9.0755e-05
9710.0 9.218e-05
9730.0 9.3614e-05
9750.0 9.5067e-05
9770.0 9.6555e-05
9790.0 9.8047e-05
9810.0 9.955e-05
9830.0 0.00010108
9850.0 0.00010263
9870.0 0.00010417
9890.0 0.00010574
9910.0 0.00010733
9930.0 0.00010893
9950.0 0.00011054
9970.0 0.00011217
9990.0 0.00011381
10010.0 0.00010524
10030.0 0.00010672
10050.0 0.00010821
10070.0 0.00010968
10090.0 0.00011118
10110.0 0.0001127
10130.0 0.00011421
10150.0 0.00011572
10170.0 0.00011724
10190.0 0.00011877
10210.0 0.00012028
10230.0 0.00012179
10250.0 0.00012331
10270.0 0.00012483
10290.0 0.00012633
10310.0 0.00012784
10330.0 0.00012934
10350.0 0.00013083
10370.0 0.00013231
10390.0 0.00013379
10410.0 0.00013526
10430.0 0.00013671
10450.0 0.00013815
10470.0 0.00013959
10490.0 0.000141
10510.0 0.00014239
10530.0 0.00014379
10550.0 0.00014516
10570.0 0.0001465
10590.0 0.00014783
10610.0 0.00014914
10630.0 0.00015042
10650.0 0.00015168
10670.0 0.00015293
10690.0 0.00015415
10710.0 0.00015533
10730.0 0.0001565
10750.0 0.00015765
10770.0 0.00015875
10790.0 0.00015983
10810.0 0.00016089
10830.0 0.0001619
10850.0 0.00016286
10870.0 0.00016377
10890.0 0.00016457
10910.0 0.0001652
10930.0 0.0001656
10950.0 0.0001656
10970.0 0.00016512
10990.0 0.00016411
11010.0 0.00016654
11030.0 0.00016403
11050.0 0.00016093
11070.0 0.00015718
11090.0 0.00015262
11110.0 0.0001479
11130.0 0.00014295
11150.0 0.00013763
11170.0 0.00013215
11190.0 0.00012686
11210.0 0.00012143
11230.0 0.0001159
11250.0 0.00011067
11270.0 0.0001057
11290.0 0.00010075
11310.0 9.6115e-05
11330.0 9.2052e-05
11350.0 8.823e-05
11370.0 8.4703e-05
11390.0 8.1638e-05
11410.0 7.8932e-05
11430.0 7.6382e-05
11450.0 7.4131e-05
11470.0 7.2124e-05
11490.0 7.0198e-05
11510.0 6.8286e-05
11530.0 6.6459e-05
11550.0 6.4613e-05
11570.0 6.2634e-05
11590.0 6.0584e-05
11610.0 5.8507e-05
11630.0 5.6272e-05
11650.0 5.3911e-05
11670.0 5.1605e-05
11690.0 4.929e-05
11710.0 4.6927e-05
11730.0 4.4653e-05
11750.0 4.2554e-05
11770.0 4.0505e-05
11790.0 3.8586e-05
11810.0 3.6886e-05
11830.0 3.5354e-05
11850.0 3.393e-05
11870.0 3.2713e-05
11890.0 3.1672e-05
11910.0 3.0729e-05
11930.0 2.9887e-05
11950.0 2.915e-05
11970.0 2.8463e-05
11990.0 2.7789e-05
12010.0 2.7144e-05
12030.0 2.6509e-05
12050.0 2.5849e-05
12070.0 2.5162e-05
12090.0 2.4494e-05
12110.0 2.3814e-05
12130.0 2.3123e-05
12150.0 2.2465e-05
12170.0 2.1858e-05
12190.0 2.1282e-05
12210.0 2.0791e-05
12230.0 2.0406e-05
12250.0 2.0125e-05
12270.0 1.9968e-05
12290.0 1.9945e-05
12310.0 2.0044e-05
12330.0 2.0287e-05
12350.0 2.0661e-05
12370.0 2.113e-05
12390.0 2.1708e-05
12410.0 2.2419e-05
12430.0 2.3151e-05
12450.0 2.3916e-05
12470.0 2.4735e-05
12490.0 2.5555e-05
12510.0 2.6311e-05
12530.0 2.7056e-05
12550.0 2.7761e-05
12570.0 2.8362e-05
12590.0 2.8866e-05
12610.0 2.9295e-05
12630.0 2.9605e-05
12650.0 2.9775e-05
12670.0 2.9841e-05
12690.0 2.979e-05
12710.0 2.9619e-05
12730.0 2.9344e-05
12750.0 2.8959e-05
12770.0 2.8481e-05
12790.0 2.7932e-05
12810.0 2.7305e-05
12830.0 2.6604e-05
12850.0 2.588e-05
12870.0 2.5125e-05
12890.0 2.432e-05
12910.0 2.3506e-05
12930.0 2.2703e-05
12950.0 2.1868e-05
12970.0 2.1019e-05
12990.0 2.0207e-05
13010.0 1.9401e-05
13030.0 1.8582e-05
13050.0 1.7786e-05
13070.0 1.7031e-05
13090.0 1.6268e-05
13110.0 1.5522e-05
13130.0 1.4825e-05
13150.0 1.4158e-05
13170.0 1.3499e-05
13190.0 1.2905e-05
13210.0 1.2373e-05
13230.0 1.188e-05
13250.0 1.1445e-05
13270.0 1.1089e-05
13290.0 1.0796e-05
13310.0 1.057e-05
13330.0 1.0426e-05
13350.0 1.0359e-05
13370.0 1.0368e-05
13390.0 1.0457e-05
13410.0 1.0606e-05
13430.0 1.082e-05
13450.0 1.1101e-05
13470.0 1.1421e-05
13490.0 1.1766e-05
13510.0 1.2165e-05
13530.0 1.2574e-05
13550.0 1.2969e-05
13570.0 1.3362e-05
13590.0 1.3751e-05
13610.0 1.4099e-05
13630.0 1.4403e-05
13650.0 1.4685e-05
13670.0 1.4919e-05
13690.0 1.5098e-05
13710.0 1.5236e-05
13730.0 1.5332e-05
13750.0 1.5374e-05
13770.0 1.5373e-05
13790.0 1.5334e-05
13810.0 1.5255e-05
13830.0 1.5145e-05
13850.0 1.5003e-05
13870.0 1.4828e-05
13890.0 1.4632e-05
13910.0 1.4416e-05
13930.0 1.4172e-05
13950.0 1.391e-05
13970.0 1.3646e-05
13990.0 1.3364e-05
14010.0 1.307e-05
14030.0 1.278e-05
14050.0 1.2492e-05
14070.0 1.2192e-05
14090.0 1.1908e-05
14110.0 1.1643e-05
14130.0 1.1389e-05
14150.0 1.1151e-05
14170.0 1.0948e-05
14190.0 1.0773e-05
14210.0 1.0624e-05
14230.0 1.0513e-05
14250.0 1.044e-05
14270.0 1.0402e-05
14290.0 1.0404e-05
14310.0 1.0444e-05
14330.0 1.052e-05
14350.0 1.0634e-05
14370.0 1.0778e-05
14390.0 1.0945e-05
14410.0 1.1145e-05
14430.0 1.1369e-05
14450.0 1.1603e-05
14470.0 1.1851e-05
14490.0 1.2122e-05
14510.0 1.2391e-05
14530.0 1.2656e-05
14550.0 1.2932e-05
14570.0 1.3212e-05
14590.0 1.3481e-05
14610.0 1.3756e-05
14630.0 1.4046e-05
14650.0 1.4332e-05
14670.0 1.4623e-05
14690.0 1.4937e-05
14710.0 1.5274e-05
14730.0 1.5613e-05
14750.0 1.5983e-05
14770.0 1.6391e-05
14790.0 1.6819e-05
14810.0 1.7267e-05
14830.0 1.7775e-05
14850.0 1.8304e-05
14870.0 1.8835e-05
14890.0 1.9389e-05
14910.0 1.9959e-05
14930.0 2.0493e-05
14950.0 2.0983e-05
14970.0 2.1439e-05
14990.0 2.1819e-05
15010.0 2.2111e-05
15030.0 2.2331e-05
15050.0 2.2481e-05
15070.0 2.2565e-05
15090.0 2.2608e-05
15110.0 2.2622e-05
15130.0 2.2618e-05
15150.0 2.2607e-05
15170.0 2.259e-05
15190.0 2.257e-05
15210.0 2.2552e-05
15230.0 2.2534e-05
15250.0 2.2514e-05
15270.0 2.2495e-05
15290.0 2.2479e-05
15310.0 2.2462e-05
15330.0 2.2445e-05
15350.0 2.2429e-05
15370.0 2.2414e-05
15390.0 2.2397e-05
15410.0 2.2381e-05
15430.0 2.2367e-05
15450.0 2.2352e-05
15470.0 2.2336e-05
15490.0 2.2323e-05
15510.0 2.2309e-05
15530.0 2.2294e-05
15550.0 2.228e-05
15570.0 2.2268e-05
15590.0 2.2253e-05
15610.0 2.2237e-05
15630.0 2.2225e-05
15650.0 2.2211e-05
15670.0 2.2196e-05
15690.0 2.2183e-05
15710.0 2.217e-05
15730.0 2.2155e-05
15750.0 2.214e-05
15770.0 2.2127e-05
15790.0 2.2113e-05
15810.0 2.2096e-05
15830.0 2.2081e-05
15850.0 2.2068e-05
15870.0 2.2052e-05
15890.0 2.2035e-05
15910.0 2.2021e-05
15930.0 2.2005e-05
15950.0 2.1987e-05
15970.0 2.197e-05
15990.0 2.1954e-05
16010.0 2.1936e-05
16030.0 2.1916e-05
16050.0 2.19e-05
16070.0 2.1881e-05
16090.0 2.1861e-05
16110.0 2.1842e-05
16130.0 2.1823e-05
16150.0 2.18e-05
16170.0 2.1778e-05
16190.0 2.1758e-05
16210.0 2.1736e-05
16230.0 2.1712e-05
16250.0 2.1689e-05
16270.0 2.1667e-05
16290.0 2.1641e-05
16310.0 2.1616e-05
16330.0 2.1591e-05
16350.0 2.1565e-05
16370.0 2.1535e-05
16390.0 2.1509e-05
16410.0 2.1482e-05
16430.0 2.1452e-05
16450.0 2.1422e-05
16470.0 2.1394e-05
16490.0 2.1363e-05
16510.0 2.133e-05
16530.0 2.1298e-05
16550.0 2.1266e-05
16570.0 2.1231e-05
16590.0 2.1196e-05
16610.0 2.1163e-05
16630.0 2.1127e-05
16650.0 2.1089e-05
16670.0 2.1053e-05
16690.0 2.1016e-05
16710.0 2.0975e-05
16730.0 2.0936e-05
16750.0 2.0897e-05
16770.0 2.0855e-05
16790.0 2.0812e-05
16810.0 2.0771e-05
16830.0 2.0729e-05
16850.0 2.0684e-05
16870.0 2.0639e-05
16890.0 2.0595e-05
16910.0 2.0548e-05
16930.0 2.0499e-05
16950.0 2.0453e-05
16970.0 2.0405e-05
16990.0 2.0354e-05
17010.0 2.0304e-05
17030.0 2.0255e-05
17050.0 2.0203e-05
17070.0 2.015e-05
17090.0 2.0098e-05
17110.0 2.0045e-05
17130.0 1.9988e-05
17150.0 1.9933e-05
17170.0 1.9878e-05
17190.0 1.9821e-05
17210.0 1.9763e-05
17230.0 1.9707e-05
17250.0 1.9648e-05
17270.0 1.9587e-05
17290.0 1.9527e-05
17310.0 1.9467e-05
17330.0 1.9405e-05
17350.0 1.9341e-05
17370.0 1.928e-05
17390.0 1.9217e-05
17410.0 1.9151e-05
17430.0 1.9087e-05
17450.0 1.9024e-05
17470.0 1.8955e-05
17490.0 1.8888e-05
17510.0 1.8822e-05
17530.0 1.8754e-05
17550.0 1.8684e-05
17570.0 1.8616e-05
17590.0 1.8547e-05
17610.0 1.8476e-05
17630.0 1.8405e-05
17650.0 1.8335e-05
17670.0 1.8263e-05
17690.0 1.8187e-05
17710.0 1.8116e-05
17730.0 1.8043e-05
17750.0 1.7968e-05
17770.0 1.7894e-05
17790.0 1.7821e-05
17810.0 1.7745e-05
17830.0 1.7667e-05
17850.0 1.7592e-05
17870.0 1.7516e-05
17890.0 1.7437e-05
17910.0 1.7359e-05
17930.0 1.7283e-05
17950.0 1.7204e-05
17970.0 1.7124e-05
17990.0 1.7047e-05
18010.0 1.6968e-05
18030.0 1.6886e-05
18050.0 1.6805e-05
18070.0 1.6726e-05
18090.0 1.6645e-05
18110.0 1.6562e-05
18130.0 1.6482e-05
18150.0 1.6401e-05
18170.0 1.6318e-05
18190.0 1.6236e-05
18210.0 1.6155e-05
18230.0 1.6071e-05
18250.0 1.5986e-05
18270.0 1.5904e-05
18290.0 1.5821e-05
18310.0 1.5736e-05
18330.0 1.5653e-05
18350.0 1.5571e-05
18370.0 1.5485e-05
18390.0 1.54e-05
18410.0 1.5317e-05
18430.0 1.5233e-05
18450.0 1.5145e-05
18470.0 1.5061e-05
18490.0 1.4978e-05
18510.0 1.4892e-05
18530.0 1.4806e-05
18550.0 1.4723e-05
18570.0 1.4637e-05
18590.0 1.455e-05
18610.0 1.4465e-05
18630.0 1.438e-05
18650.0 1.4294e-05
18670.0 1.4207e-05
18690.0 1.4123e-05
18710.0 1.4038e-05
18730.0 1.3951e-05
18750.0 1.3866e-05
18770.0 1.3782e-05
18790.0 1.3695e-05
18810.0 1.3608e-05
18830.0 1.3524e-05
18850.0 1.3439e-05
18870.0 1.3352e-05
18890.0 1.3268e-05
18910.0 1.3184e-05
18930.0 1.3098e-05
18950.0 1.3012e-05
18970.0 1.2929e-05
18990.0 1.2844e-05
19010.0 1.2756e-05
19030.0 1.2673e-05
19050.0 1.259e-05
19070.0 1.2504e-05
19090.0 1.242e-05
19110.0 1.2338e-05
19130.0 1.2253e-05
19150.0 1.2168e-05
19170.0 1.2085e-05
19190.0 1.2003e-05
19210.0 1.1918e-05
19230.0 1.1834e-05
19250.0 1.1753e-05
19270.0 1.167e-05
19290.0 1.1587e-05
19310.0 1.1506e-05
19330.0 1.1424e-05
19350.0 1.134e-05
19370.0 1.1259e-05
19390.0 1.1178e-05
19410.0 1.1096e-05
19430.0 1.1014e-05
19450.0 1.0935e-05
19470.0 1.0855e-05
19490.0 1.0773e-05
19510.0 1.0694e-05
19530.0 1.0615e-05
19550.0 1.0534e-05
19570.0 1.0453e-05
19590.0 1.0376e-05
19610.0 1.0297e-05
19630.0 1.0217e-05
19650.0 1.014e-05
19670.0 1.0063e-05
19690.0 9.9841e-06
19710.0 9.9059e-06
19730.0 9.8298e-06
19750.0 9.753e-06
19770.0 9.6743e-06
19790.0 9.5985e-06
19810.0 9.5236e-06
19830.0 9.4468e-06
19850.0 9.3701e-06
19870.0 9.2951e-06
19890.0 9.2168e-06
19910.0 9.1339e-06
19930.0 9.0485e-06
19950.0 8.956e-06
19970.0 8.8497e-06
19990.0 8.7292e-06
20010.0 8.4794e-06
20030.0 8.3302e-06
20050.0 8.1621e-06
20070.0 7.9852e-06
20090.0 7.7993e-06
20110.0 7.5947e-06
20130.0 7.3913e-06
20150.0 7.1925e-06
20170.0 6.9897e-06
20190.0 6.7868e-06
20210.0 6.5965e-06
20230.0 6.4122e-06
20250.0 6.229e-06
20270.0 6.0591e-06
20290.0 5.9037e-06
20310.0 5.7557e-06
20330.0 5.6168e-06
20350.0 5.4996e-06
20370.0 5.3942e-06
20390.0 5.3001e-06
20410.0 5.2219e-06
20430.0 5.159e-06
20450.0 5.1069e-06
20470.0 5.0687e-06
20490.0 5.0439e-06
20510.0 5.0303e-06
20530.0 5.0281e-06
20550.0 5.0361e-06
20570.0 5.0521e-06
20590.0 5.0774e-06
20610.0 5.1104e-06
20630.0 5.1482e-06
20650.0 5.1919e-06
20670.0 5.2435e-06
20690.0 5.2965e-06
20710.0 5.3515e-06
20730.0 5.4114e-06
20750.0 5.4738e-06
20770.0 5.5343e-06
20790.0 5.5975e-06
20810.0 5.6638e-06
20830.0 5.7285e-06
20850.0 5.7924e-06
20870.0 5.8602e-06
20890.0 5.9283e-06
20910.0 5.9925e-06
20930.0 6.0586e-06
20950.0 6.1266e-06
20970.0 6.1919e-06
20990.0 6.2558e-06
21010.0 6.3231e-06
21030.0 6.3885e-06
21050.0 6.4505e-06
21070.0 6.5127e-06
21090.0 6.5755e-06
21110.0 6.6326e-06
21130.0 6.6866e-06
21150.0 6.74e-06
21170.0 6.7892e-06
21190.0 6.8322e-06
21210.0 6.8728e-06
21230.0 6.909e-06
21250.0 6.9371e-06
21270.0 6.9587e-06
21290.0 6.9738e-06
21310.0 6.9801e-06
21330.0 6.9771e-06
21350.0 6.9648e-06
21370.0 6.9417e-06
21390.0 6.908e-06
21410.0 6.8636e-06
21430.0 6.8046e-06
21450.0 6.7348e-06
21470.0 6.6556e-06
21490.0 6.5633e-06
21510.0 6.4591e-06
21530.0 6.3498e-06
21550.0 6.2323e-06
21570.0 6.1041e-06
21590.0 5.9742e-06
21610.0 5.8451e-06
21630.0 5.7122e-06
21650.0 5.5782e-06
21670.0 5.4571e-06
21690.0 5.3407e-06
21710.0 5.2302e-06
21730.0 5.1327e-06
21750.0 5.0495e-06
21770.0 4.9755e-06
21790.0 4.9174e-06
21810.0 4.876e-06
21830.0 4.8492e-06
21850.0 4.838e-06
21870.0 4.8424e-06
21890.0 4.8602e-06
21910.0 4.8928e-06
21930.0 4.9386e-06
21950.0 4.9939e-06
21970.0 5.0604e-06
21990.0 5.1405e-06
22010.0 5.2247e-06
22030.0 5.3141e-06
22050.0 5.4121e-06
22070.0 5.5144e-06
22090.0 5.6145e-06
22110.0 5.7189e-06
22130.0 5.8267e-06
22150.0 5.9303e-06
22170.0 6.0306e-06
22190.0 6.1331e-06
22210.0 6.2308e-06
22230.0 6.3186e-06
22250.0 6.4031e-06
22270.0 6.4827e-06
22290.0 6.5518e-06
22310.0 6.6122e-06
22330.0 6.6667e-06
22350.0 6.71e-06
22370.0 6.7416e-06
22390.0 6.7633e-06
22410.0 6.7736e-06
22430.0 6.7712e-06
22450.0 6.7572e-06
22470.0 6.7303e-06
22490.0 6.6907e-06
22510.0 6.6402e-06
22530.0 6.5752e-06
22550.0 6.4957e-06
22570.0 6.4069e-06
22590.0 6.3066e-06
22610.0 6.191e-06
