#lamb flux
1010.0 5.3184e-10
1030.0 6.6895e-10
1050.0 8.2661e-10
1070.0 1.0041e-09
1090.0 1.2057e-09
1110.0 1.4125e-09
1130.0 1.6206e-09
1150.0 1.8386e-09
1170.0 2.0634e-09
1190.0 2.2767e-09
1210.0 2.4928e-09
1230.0 2.7161e-09
1250.0 2.9349e-09
1270.0 3.1474e-09
1290.0 3.3719e-09
1310.0 3.5963e-09
1330.0 3.8115e-09
1350.0 4.0291e-09
1370.0 4.2537e-09
1390.0 4.4728e-09
1410.0 4.6853e-09
1430.0 4.9075e-09
1450.0 5.1297e-09
1470.0 5.3445e-09
1490.0 5.5616e-09
1510.0 5.791e-09
1530.0 6.0084e-09
1550.0 6.2229e-09
1570.0 6.4448e-09
1590.0 6.667e-09
1610.0 6.8795e-09
1630.0 7.0986e-09
1650.0 7.3236e-09
1670.0 7.5414e-09
1690.0 7.7566e-09
1710.0 7.9804e-09
1730.0 8.2055e-09
1750.0 8.4176e-09
1770.0 8.6363e-09
1790.0 8.8596e-09
1810.0 9.0763e-09
1830.0 9.2896e-09
1850.0 9.5164e-09
1870.0 9.738e-09
1890.0 9.9527e-09
1910.0 1.0172e-08
1930.0 1.0398e-08
1950.0 1.0614e-08
1970.0 1.0829e-08
1990.0 1.1052e-08
2010.0 1.1272e-08
2030.0 1.1486e-08
2050.0 1.1707e-08
2070.0 1.1935e-08
2090.0 1.2151e-08
2110.0 1.2368e-08
2130.0 1.2592e-08
2150.0 1.2813e-08
2170.0 1.3027e-08
2190.0 1.3249e-08
2210.0 1.3475e-08
2230.0 1.3693e-08
2250.0 1.3912e-08
2270.0 1.4142e-08
2290.0 1.4367e-08
2310.0 1.4585e-08
2330.0 1.4811e-08
2350.0 1.504e-08
2370.0 1.5262e-08
2390.0 1.5488e-08
2410.0 1.5724e-08
2430.0 1.5958e-08
2450.0 1.6196e-08
2470.0 1.646e-08
2490.0 1.6767e-08
2510.0 1.7121e-08
2530.0 1.7581e-08
2550.0 1.8216e-08
2570.0 1.9071e-08
2590.0 2.0201e-08
2610.0 2.1817e-08
2630.0 2.3961e-08
2650.0 2.6581e-08
2670.0 2.9818e-08
2690.0 3.3736e-08
2710.0 3.8031e-08
2730.0 4.2549e-08
2750.0 4.7437e-08
2770.0 5.229e-08
2790.0 5.6803e-08
2810.0 6.1043e-08
2830.0 6.5013e-08
2850.0 6.8348e-08
2870.0 7.1301e-08
2890.0 7.405e-08
2910.0 7.6619e-08
2930.0 7.9056e-08
2950.0 8.156e-08
2970.0 8.4163e-08
2990.0 8.6821e-08
3010.0 8.9589e-08
3030.0 9.2546e-08
3050.0 9.5643e-08
3070.0 9.8794e-08
3090.0 1.0213e-07
3110.0 1.0569e-07
3130.0 1.095e-07
3150.0 1.1383e-07
3170.0 1.1936e-07
3190.0 1.2655e-07
3210.0 1.3598e-07
3230.0 1.4851e-07
3250.0 1.6444e-07
3270.0 1.796e-07
3290.0 2.0365e-07
3310.0 2.5292e-07
3330.0 2.6929e-07
3350.0 2.7734e-07
3370.0 2.8507e-07
3390.0 2.9294e-07
3410.0 3.009e-07
3430.0 3.0892e-07
3450.0 3.1693e-07
3470.0 3.248e-07
3490.0 3.324e-07
3510.0 3.3928e-07
3530.0 3.3625e-07
3550.0 3.2696e-07
3570.0 3.3177e-07
3590.0 3.527e-07
3610.0 3.8441e-07
3630.0 3.9702e-07
3650.0 3.8134e-07
3670.0 3.5024e-07
3690.0 3.3216e-07
3710.0 3.3634e-07
3730.0 3.4741e-07
3750.0 3.5336e-07
3770.0 3.6527e-07
3790.0 3.7856e-07
3810.0 3.732e-07
3830.0 3.478e-07
3850.0 3.2508e-07
3870.0 3.1429e-07
3890.0 3.107e-07
3910.0 3.0374e-07
3930.0 3.0022e-07
3950.0 3.0869e-07
3970.0 3.1859e-07
3990.0 3.2147e-07
4010.0 3.0966e-07
4030.0 2.9281e-07
4050.0 2.8198e-07
4070.0 2.7281e-07
4090.0 2.6539e-07
4110.0 2.5569e-07
4130.0 2.4041e-07
4150.0 2.2503e-07
4170.0 2.159e-07
4190.0 2.0132e-07
4210.0 1.8226e-07
4230.0 1.6296e-07
4250.0 1.4463e-07
4270.0 1.3095e-07
4290.0 1.2083e-07
4310.0 1.1548e-07
4330.0 1.1529e-07
4350.0 1.1586e-07
4370.0 1.1696e-07
4390.0 1.2129e-07
4410.0 1.2427e-07
4430.0 1.1997e-07
4450.0 1.0893e-07
4470.0 9.9275e-08
4490.0 9.4028e-08
4510.0 9.0656e-08
4530.0 8.897e-08
4550.0 8.7524e-08
4570.0 8.7155e-08
4590.0 8.8352e-08
4610.0 9.1064e-08
4630.0 9.2681e-08
4650.0 9.3479e-08
4670.0 9.1207e-08
4690.0 8.5779e-08
4710.0 8.0373e-08
4730.0 7.6871e-08
4750.0 7.472e-08
4770.0 7.4989e-08
4790.0 7.4696e-08
4810.0 7.3095e-08
4830.0 7.3242e-08
4850.0 7.5525e-08
4870.0 7.6278e-08
4890.0 7.4906e-08
4910.0 7.3168e-08
4930.0 6.9002e-08
4950.0 6.2992e-08
4970.0 5.8875e-08
4990.0 5.5498e-08
5010.0 5.4775e-08
5030.0 5.662e-08
5050.0 5.8072e-08
5070.0 6.0242e-08
5090.0 6.3883e-08
5110.0 6.4857e-08
5130.0 6.5422e-08
5150.0 6.6629e-08
5170.0 6.7189e-08
5190.0 6.8951e-08
5210.0 6.9309e-08
5230.0 6.8595e-08
5250.0 6.9149e-08
5270.0 7.0113e-08
5290.0 7.0302e-08
5310.0 6.9778e-08
5330.0 6.8452e-08
5350.0 6.752e-08
5370.0 6.6801e-08
5390.0 6.5916e-08
5410.0 6.5184e-08
5430.0 6.5161e-08
5450.0 6.6117e-08
5470.0 6.7345e-08
5490.0 6.9256e-08
5510.0 7.1353e-08
5530.0 7.2233e-08
5550.0 7.3308e-08
5570.0 7.3466e-08
5590.0 7.1945e-08
5610.0 7.1423e-08
5630.0 7.1961e-08
5650.0 7.1091e-08
5670.0 6.9517e-08
5690.0 6.7435e-08
5710.0 6.7256e-08
5730.0 6.7966e-08
5750.0 6.5071e-08
5770.0 6.1732e-08
5790.0 5.6753e-08
5810.0 4.9645e-08
5830.0 5.3516e-08
5850.0 5.9245e-08
5870.0 6.0528e-08
5890.0 6.0853e-08
5910.0 6.135e-08
5930.0 6.1221e-08
5950.0 6.0208e-08
5970.0 5.9489e-08
5990.0 5.8632e-08
6010.0 5.6846e-08
6030.0 5.4898e-08
6050.0 5.4041e-08
6070.0 5.3797e-08
6090.0 5.298e-08
6110.0 5.1215e-08
6130.0 4.9472e-08
6150.0 4.7487e-08
6170.0 4.5502e-08
6190.0 4.3462e-08
6210.0 4.1928e-08
6230.0 4.132e-08
6250.0 4.0445e-08
6270.0 3.9599e-08
6290.0 3.9292e-08
6310.0 3.9038e-08
6330.0 3.818e-08
6350.0 3.6939e-08
6370.0 3.6233e-08
6390.0 3.5518e-08
6410.0 3.4528e-08
6430.0 3.3592e-08
6450.0 3.2853e-08
6470.0 3.215e-08
6490.0 3.1661e-08
6510.0 3.1113e-08
6530.0 3.0323e-08
6550.0 2.9652e-08
6570.0 2.9194e-08
6590.0 2.9146e-08
6610.0 2.8963e-08
6630.0 2.7994e-08
6650.0 2.7203e-08
6670.0 2.692e-08
6690.0 2.6497e-08
6710.0 2.5861e-08
6730.0 2.5632e-08
6750.0 2.5831e-08
6770.0 2.7366e-08
6790.0 3.0584e-08
6810.0 2.9042e-08
6830.0 2.5511e-08
6850.0 2.4503e-08
6870.0 2.4128e-08
6890.0 2.4131e-08
6910.0 2.4182e-08
6930.0 2.4237e-08
6950.0 2.4162e-08
6970.0 2.3549e-08
6990.0 2.3337e-08
7010.0 2.3684e-08
7030.0 2.3795e-08
7050.0 2.345e-08
7070.0 2.3213e-08
7090.0 2.3363e-08
7110.0 2.3907e-08
7130.0 2.3985e-08
7150.0 2.4074e-08
7170.0 2.4202e-08
7190.0 2.4538e-08
7210.0 2.4803e-08
7230.0 2.507e-08
7250.0 2.5404e-08
7270.0 2.5643e-08
7290.0 2.6047e-08
7310.0 2.6527e-08
7330.0 2.6322e-08
7350.0 2.5769e-08
7370.0 2.5419e-08
7390.0 2.5357e-08
7410.0 2.5462e-08
7430.0 2.5779e-08
7450.0 2.594e-08
7470.0 2.6307e-08
7490.0 2.6157e-08
7510.0 2.5872e-08
7530.0 2.6176e-08
7550.0 2.6987e-08
7570.0 2.6919e-08
7590.0 2.5529e-08
7610.0 2.5317e-08
7630.0 2.6751e-08
7650.0 2.7287e-08
7670.0 2.7471e-08
7690.0 2.8693e-08
7710.0 2.9621e-08
7730.0 2.9906e-08
7750.0 3.1465e-08
7770.0 3.066e-08
7790.0 2.9932e-08
7810.0 3.1711e-08
7830.0 3.2926e-08
7850.0 3.3751e-08
7870.0 3.4415e-08
7890.0 3.468e-08
7910.0 3.4425e-08
7930.0 3.4662e-08
7950.0 3.6227e-08
7970.0 3.6218e-08
7990.0 3.3735e-08
8010.0 3.2363e-08
8030.0 3.3011e-08
8050.0 3.3719e-08
8070.0 3.0503e-08
8090.0 1.9953e-08
8110.0 2.0836e-08
8130.0 2.9756e-08
8150.0 3.2046e-08
8170.0 3.3319e-08
8190.0 3.4042e-08
8210.0 3.3613e-08
8230.0 3.6442e-08
8250.0 3.7237e-08
8270.0 3.5213e-08
8290.0 3.3822e-08
8310.0 3.3329e-08
8330.0 3.5149e-08
8350.0 3.6812e-08
8370.0 3.6117e-08
8390.0 3.4441e-08
8410.0 3.4409e-08
8430.0 3.2238e-08
8450.0 3.2946e-08
8470.0 3.6002e-08
8490.0 3.6111e-08
8510.0 3.3485e-08
8530.0 3.1382e-08
8550.0 3.0081e-08
8570.0 2.8351e-08
8590.0 2.9161e-08
8610.0 3.0943e-08
8630.0 3.1772e-08
8650.0 3.2322e-08
8670.0 3.1434e-08
8690.0 3.0702e-08
8710.0 2.8555e-08
8730.0 2.753e-08
8750.0 2.8656e-08
8770.0 2.9105e-08
8790.0 2.9013e-08
8810.0 2.8875e-08
8830.0 2.9492e-08
8850.0 3.0967e-08
8870.0 2.8917e-08
8890.0 2.7275e-08
8910.0 2.6872e-08
8930.0 2.5258e-08
8950.0 2.4334e-08
8970.0 2.4324e-08
8990.0 2.3284e-08
9010.0 2.1858e-08
9030.0 2.1362e-08
9050.0 2.1184e-08
9070.0 2.1026e-08
9090.0 2.0866e-08
9110.0 2.0706e-08
9130.0 2.0544e-08
9150.0 2.0382e-08
9170.0 2.022e-08
9190.0 2.0057e-08
9210.0 1.9894e-08
9230.0 1.9731e-08
9250.0 1.9567e-08
9270.0 1.9404e-08
9290.0 1.9242e-08
9310.0 1.9079e-08
9330.0 1.8917e-08
9350.0 1.8756e-08
9370.0 1.8595e-08
9390.0 1.8435e-08
9410.0 1.8276e-08
9430.0 1.8118e-08
9450.0 1.7961e-08
9470.0 1.7805e-08
9490.0 1.765e-08
9510.0 1.7496e-08
9530.0 1.7343e-08
9550.0 1.7191e-08
9570.0 1.7041e-08
9590.0 1.6892e-08
9610.0 1.6745e-08
9630.0 1.6599e-08
9650.0 1.6454e-08
9670.0 1.6311e-08
9690.0 1.6169e-08
9710.0 1.6029e-08
9730.0 1.589e-08
9750.0 1.5752e-08
9770.0 1.5617e-08
9790.0 1.5483e-08
9810.0 1.535e-08
9830.0 1.5219e-08
9850.0 1.5089e-08
9870.0 1.4961e-08
9890.0 1.4835e-08
9910.0 1.471e-08
9930.0 1.4586e-08
9950.0 1.4465e-08
9970.0 1.4344e-08
9990.0 1.4226e-08
10010.0 1.4108e-08
10030.0 1.3993e-08
10050.0 1.3878e-08
10070.0 1.3765e-08
10090.0 1.3654e-08
10110.0 1.3544e-08
10130.0 1.3436e-08
10150.0 1.3329e-08
10170.0 1.3223e-08
10190.0 1.3119e-08
10210.0 1.3016e-08
10230.0 1.2914e-08
10250.0 1.2814e-08
10270.0 1.2715e-08
10290.0 1.2617e-08
10310.0 1.2521e-08
10330.0 1.2426e-08
10350.0 1.2332e-08
10370.0 1.2239e-08
10390.0 1.2146e-08
10410.0 1.2037e-08
10430.0 1.1923e-08
10450.0 1.1856e-08
10470.0 1.1778e-08
10490.0 1.1699e-08
10510.0 1.1619e-08
10530.0 1.1536e-08
10550.0 1.1454e-08
10570.0 1.1374e-08
10590.0 1.1293e-08
10610.0 1.1212e-08
10630.0 1.1134e-08
10650.0 1.1057e-08
10670.0 1.0979e-08
10690.0 1.0903e-08
10710.0 1.0828e-08
10730.0 1.0753e-08
10750.0 1.0678e-08
10770.0 1.0606e-08
10790.0 1.0535e-08
10810.0 1.0463e-08
10830.0 1.0392e-08
10850.0 1.0324e-08
10870.0 1.0254e-08
10890.0 1.0184e-08
10910.0 1.0117e-08
10930.0 1.0049e-08
10950.0 9.9799e-09
10970.0 9.9113e-09
10990.0 9.844e-09
11010.0 9.7737e-09
11030.0 9.7023e-09
11050.0 9.6319e-09
11070.0 9.56e-09
11090.0 9.4839e-09
11110.0 9.41e-09
11130.0 9.3362e-09
11150.0 9.2595e-09
11170.0 9.182e-09
11190.0 9.1068e-09
11210.0 9.0299e-09
11230.0 8.9512e-09
11250.0 8.875e-09
11270.0 8.8009e-09
11290.0 8.7256e-09
11310.0 8.6524e-09
11330.0 8.585e-09
11350.0 8.5189e-09
11370.0 8.4547e-09
11390.0 8.3952e-09
11410.0 8.3393e-09
11430.0 8.2835e-09
11450.0 8.231e-09
11470.0 8.1819e-09
11490.0 8.1333e-09
11510.0 8.0844e-09
11530.0 8.0379e-09
11550.0 7.9919e-09
11570.0 7.944e-09
11590.0 7.896e-09
11610.0 7.8486e-09
11630.0 7.7987e-09
11650.0 7.7466e-09
11670.0 7.6955e-09
11690.0 7.6435e-09
11710.0 7.5889e-09
11730.0 7.534e-09
11750.0 7.4806e-09
11770.0 7.4249e-09
11790.0 7.3684e-09
11810.0 7.3137e-09
11830.0 7.2595e-09
11850.0 7.2034e-09
11870.0 7.1499e-09
11890.0 7.0993e-09
11910.0 7.0489e-09
11930.0 6.9997e-09
11950.0 6.9545e-09
11970.0 6.9111e-09
11990.0 6.8684e-09
12010.0 6.8295e-09
12030.0 6.7939e-09
12050.0 6.7598e-09
12070.0 6.7279e-09
12090.0 6.7001e-09
12110.0 6.6743e-09
12130.0 6.65e-09
12150.0 6.6281e-09
12170.0 6.6082e-09
12190.0 6.5886e-09
12210.0 6.57e-09
12230.0 6.5523e-09
12250.0 6.5342e-09
12270.0 6.5148e-09
12290.0 6.4946e-09
12310.0 6.4734e-09
12330.0 6.4493e-09
12350.0 6.4226e-09
12370.0 6.3942e-09
12390.0 6.3625e-09
12410.0 6.326e-09
12430.0 6.2883e-09
12450.0 6.2481e-09
12470.0 6.2039e-09
12490.0 6.1569e-09
12510.0 6.1097e-09
12530.0 6.0592e-09
12550.0 6.0055e-09
12570.0 5.9521e-09
12590.0 5.8982e-09
12610.0 5.8413e-09
12630.0 5.784e-09
12650.0 5.7296e-09
12670.0 5.6739e-09
12690.0 5.6179e-09
12710.0 5.5645e-09
12730.0 5.5129e-09
12750.0 5.4601e-09
12770.0 5.4103e-09
12790.0 5.364e-09
12810.0 5.3189e-09
12830.0 5.2751e-09
12850.0 5.2358e-09
12870.0 5.1993e-09
12890.0 5.1642e-09
12910.0 5.1326e-09
12930.0 5.1048e-09
12950.0 5.079e-09
12970.0 5.056e-09
12990.0 5.0373e-09
13010.0 5.0216e-09
13030.0 5.0085e-09
13050.0 4.9985e-09
13070.0 4.9914e-09
13090.0 4.9863e-09
13110.0 4.9831e-09
13130.0 4.9812e-09
13150.0 4.98e-09
13170.0 4.9789e-09
13190.0 4.9773e-09
13210.0 4.9746e-09
13230.0 4.9701e-09
13250.0 4.9633e-09
13270.0 4.9544e-09
13290.0 4.9426e-09
13310.0 4.9272e-09
13330.0 4.9092e-09
13350.0 4.8886e-09
13370.0 4.8643e-09
13390.0 4.8365e-09
13410.0 4.8076e-09
13430.0 4.7758e-09
13450.0 4.7406e-09
13470.0 4.7041e-09
13490.0 4.6667e-09
13510.0 4.6252e-09
13530.0 4.5824e-09
13550.0 4.5399e-09
13570.0 4.4956e-09
13590.0 4.449e-09
13610.0 4.4029e-09
13630.0 4.3575e-09
13650.0 4.3096e-09
13670.0 4.2616e-09
13690.0 4.2151e-09
13710.0 4.1678e-09
13730.0 4.1185e-09
13750.0 4.0723e-09
13770.0 4.027e-09
13790.0 3.9811e-09
13810.0 3.9362e-09
13830.0 3.8944e-09
13850.0 3.8523e-09
13870.0 3.8107e-09
13890.0 3.7718e-09
13910.0 3.7346e-09
13930.0 3.6973e-09
13950.0 3.6617e-09
13970.0 3.6292e-09
13990.0 3.5971e-09
14010.0 3.5657e-09
14030.0 3.5367e-09
14050.0 3.5091e-09
14070.0 3.4813e-09
14090.0 3.4555e-09
14110.0 3.4317e-09
14130.0 3.4085e-09
14150.0 3.3859e-09
14170.0 3.3655e-09
14190.0 3.3461e-09
14210.0 3.3268e-09
14230.0 3.3086e-09
14250.0 3.2917e-09
14270.0 3.2747e-09
14290.0 3.2579e-09
14310.0 3.2423e-09
14330.0 3.227e-09
14350.0 3.2116e-09
14370.0 3.1967e-09
14390.0 3.1826e-09
14410.0 3.1681e-09
14430.0 3.1537e-09
14450.0 3.14e-09
14470.0 3.1264e-09
14490.0 3.1123e-09
14510.0 3.0988e-09
14530.0 3.0857e-09
14550.0 3.0722e-09
14570.0 3.0586e-09
14590.0 3.0454e-09
14610.0 3.032e-09
14630.0 3.0179e-09
14650.0 3.0041e-09
14670.0 2.9904e-09
14690.0 2.976e-09
14710.0 2.9613e-09
14730.0 2.9472e-09
14750.0 2.9327e-09
14770.0 2.9175e-09
14790.0 2.9024e-09
14810.0 2.8874e-09
14830.0 2.8712e-09
14850.0 2.8549e-09
14870.0 2.8391e-09
14890.0 2.8228e-09
14910.0 2.8061e-09
14930.0 2.7903e-09
14950.0 2.7754e-09
14970.0 2.7607e-09
14990.0 2.7473e-09
15010.0 2.7357e-09
15030.0 2.7251e-09
15050.0 2.7153e-09
15070.0 2.707e-09
15090.0 2.6995e-09
15110.0 2.6923e-09
15130.0 2.6854e-09
15150.0 2.6789e-09
15170.0 2.6723e-09
15190.0 2.6656e-09
15210.0 2.6592e-09
15230.0 2.6528e-09
15250.0 2.6461e-09
15270.0 2.6394e-09
15290.0 2.6331e-09
15310.0 2.6266e-09
15330.0 2.62e-09
15350.0 2.6136e-09
15370.0 2.6072e-09
15390.0 2.6005e-09
15410.0 2.5939e-09
15430.0 2.5876e-09
15450.0 2.581e-09
15470.0 2.5743e-09
15490.0 2.5679e-09
15510.0 2.5615e-09
15530.0 2.5549e-09
15550.0 2.5484e-09
15570.0 2.5421e-09
15590.0 2.5354e-09
15610.0 2.5287e-09
15630.0 2.5223e-09
15650.0 2.5159e-09
15670.0 2.5093e-09
15690.0 2.5028e-09
15710.0 2.4964e-09
15730.0 2.4898e-09
15750.0 2.4832e-09
15770.0 2.4768e-09
15790.0 2.4704e-09
15810.0 2.4636e-09
15830.0 2.4571e-09
15850.0 2.4508e-09
15870.0 2.4442e-09
15890.0 2.4376e-09
15910.0 2.4313e-09
15930.0 2.4248e-09
15950.0 2.4181e-09
15970.0 2.4116e-09
15990.0 2.4052e-09
16010.0 2.3986e-09
16030.0 2.392e-09
16050.0 2.3857e-09
16070.0 2.3792e-09
16090.0 2.3726e-09
16110.0 2.3661e-09
16130.0 2.3598e-09
16150.0 2.353e-09
16170.0 2.3464e-09
16190.0 2.3401e-09
16210.0 2.3336e-09
16230.0 2.3269e-09
16250.0 2.3205e-09
16270.0 2.3141e-09
16290.0 2.3075e-09
16310.0 2.301e-09
16330.0 2.2946e-09
16350.0 2.2881e-09
16370.0 2.2813e-09
16390.0 2.2749e-09
16410.0 2.2685e-09
16430.0 2.2619e-09
16450.0 2.2553e-09
16470.0 2.2491e-09
16490.0 2.2425e-09
16510.0 2.2358e-09
16530.0 2.2294e-09
16550.0 2.223e-09
16570.0 2.2163e-09
16590.0 2.2097e-09
16610.0 2.2034e-09
16630.0 2.1969e-09
16650.0 2.1903e-09
16670.0 2.1839e-09
16690.0 2.1775e-09
16710.0 2.1707e-09
16730.0 2.1642e-09
16750.0 2.1579e-09
16770.0 2.1513e-09
16790.0 2.1446e-09
16810.0 2.1383e-09
16830.0 2.1319e-09
16850.0 2.1252e-09
16870.0 2.1187e-09
16890.0 2.1124e-09
16910.0 2.1058e-09
16930.0 2.0991e-09
16950.0 2.0927e-09
16970.0 2.0862e-09
16990.0 2.0796e-09
17010.0 2.0731e-09
17030.0 2.0668e-09
17050.0 2.0602e-09
17070.0 2.0536e-09
17090.0 2.0472e-09
17110.0 2.0407e-09
17130.0 2.034e-09
17150.0 2.0275e-09
17170.0 2.0212e-09
17190.0 2.0146e-09
17210.0 2.008e-09
17230.0 2.0017e-09
17250.0 1.9952e-09
17270.0 1.9885e-09
17290.0 1.982e-09
17310.0 1.9756e-09
17330.0 1.969e-09
17350.0 1.9624e-09
17370.0 1.9561e-09
17390.0 1.9496e-09
17410.0 1.9429e-09
17430.0 1.9365e-09
17450.0 1.9302e-09
17470.0 1.9234e-09
17490.0 1.9168e-09
17510.0 1.9105e-09
17530.0 1.904e-09
17550.0 1.8973e-09
17570.0 1.8909e-09
17590.0 1.8845e-09
17610.0 1.8779e-09
17630.0 1.8714e-09
17650.0 1.865e-09
17670.0 1.8585e-09
17690.0 1.8517e-09
17710.0 1.8453e-09
17730.0 1.8389e-09
17750.0 1.8323e-09
17770.0 1.8258e-09
17790.0 1.8195e-09
17810.0 1.8129e-09
17830.0 1.8062e-09
17850.0 1.7998e-09
17870.0 1.7934e-09
17890.0 1.7867e-09
17910.0 1.7801e-09
17930.0 1.7738e-09
17950.0 1.7673e-09
17970.0 1.7607e-09
17990.0 1.7543e-09
18010.0 1.7479e-09
18030.0 1.7411e-09
18050.0 1.7346e-09
18070.0 1.7283e-09
18090.0 1.7217e-09
18110.0 1.715e-09
18130.0 1.7087e-09
18150.0 1.7023e-09
18170.0 1.6956e-09
18190.0 1.6891e-09
18210.0 1.6828e-09
18230.0 1.6762e-09
18250.0 1.6695e-09
18270.0 1.6631e-09
18290.0 1.6567e-09
18310.0 1.65e-09
18330.0 1.6435e-09
18350.0 1.6372e-09
18370.0 1.6306e-09
18390.0 1.624e-09
18410.0 1.6176e-09
18430.0 1.6111e-09
18450.0 1.6044e-09
18470.0 1.5979e-09
18490.0 1.5916e-09
18510.0 1.585e-09
18530.0 1.5784e-09
18550.0 1.5721e-09
18570.0 1.5656e-09
18590.0 1.5589e-09
18610.0 1.5524e-09
18630.0 1.546e-09
18650.0 1.5394e-09
18670.0 1.5328e-09
18690.0 1.5265e-09
18710.0 1.52e-09
18730.0 1.5134e-09
18750.0 1.5069e-09
18770.0 1.5006e-09
18790.0 1.4938e-09
18810.0 1.4873e-09
18830.0 1.4809e-09
18850.0 1.4744e-09
18870.0 1.4677e-09
18890.0 1.4613e-09
18910.0 1.455e-09
18930.0 1.4483e-09
18950.0 1.4418e-09
18970.0 1.4354e-09
18990.0 1.4289e-09
19010.0 1.4221e-09
19030.0 1.4157e-09
19050.0 1.4093e-09
19070.0 1.4027e-09
19090.0 1.3962e-09
19110.0 1.3899e-09
19130.0 1.3833e-09
19150.0 1.3766e-09
19170.0 1.3702e-09
19190.0 1.3638e-09
19210.0 1.3571e-09
19230.0 1.3506e-09
19250.0 1.3443e-09
19270.0 1.3377e-09
19290.0 1.3311e-09
19310.0 1.3247e-09
19330.0 1.3183e-09
19350.0 1.3116e-09
19370.0 1.3051e-09
19390.0 1.2987e-09
19410.0 1.2921e-09
19430.0 1.2855e-09
19450.0 1.2791e-09
19470.0 1.2727e-09
19490.0 1.266e-09
19510.0 1.2596e-09
19530.0 1.2532e-09
19550.0 1.2466e-09
19570.0 1.2399e-09
19590.0 1.2335e-09
19610.0 1.2271e-09
19630.0 1.2204e-09
19650.0 1.214e-09
19670.0 1.2077e-09
19690.0 1.201e-09
19710.0 1.1944e-09
19730.0 1.188e-09
19750.0 1.1816e-09
19770.0 1.1748e-09
19790.0 1.1684e-09
19810.0 1.162e-09
19830.0 1.1554e-09
19850.0 1.1489e-09
19870.0 1.1426e-09
19890.0 1.1362e-09
19910.0 1.1298e-09
19930.0 1.1238e-09
19950.0 1.1181e-09
19970.0 1.1127e-09
19990.0 1.108e-09
20010.0 1.104e-09
20030.0 1.1005e-09
20050.0 1.0977e-09
20070.0 1.0954e-09
20090.0 1.0936e-09
20110.0 1.092e-09
20130.0 1.0906e-09
20150.0 1.0894e-09
20170.0 1.0882e-09
20190.0 1.087e-09
20210.0 1.0858e-09
20230.0 1.0845e-09
20250.0 1.0832e-09
20270.0 1.0817e-09
20290.0 1.0803e-09
20310.0 1.0787e-09
20330.0 1.077e-09
20350.0 1.0753e-09
20370.0 1.0734e-09
20390.0 1.0715e-09
20410.0 1.0695e-09
20430.0 1.0675e-09
20450.0 1.0653e-09
20470.0 1.0631e-09
20490.0 1.061e-09
20510.0 1.0588e-09
20530.0 1.0566e-09
20550.0 1.0544e-09
20570.0 1.0523e-09
20590.0 1.0503e-09
20610.0 1.0482e-09
20630.0 1.0463e-09
20650.0 1.0444e-09
20670.0 1.0424e-09
20690.0 1.0405e-09
20710.0 1.0386e-09
20730.0 1.0367e-09
20750.0 1.0347e-09
20770.0 1.0326e-09
20790.0 1.0305e-09
20810.0 1.0281e-09
20830.0 1.0256e-09
20850.0 1.023e-09
20870.0 1.0201e-09
20890.0 1.0169e-09
20910.0 1.0138e-09
20930.0 1.0104e-09
20950.0 1.0068e-09
20970.0 1.0031e-09
20990.0 9.9944e-10
21010.0 9.9546e-10
21030.0 9.9148e-10
21050.0 9.876e-10
21070.0 9.8364e-10
21090.0 9.7955e-10
21110.0 9.7568e-10
21130.0 9.7189e-10
21150.0 9.68e-10
21170.0 9.6419e-10
21190.0 9.6056e-10
21210.0 9.568e-10
21230.0 9.5298e-10
21250.0 9.493e-10
21270.0 9.4562e-10
21290.0 9.4176e-10
21310.0 9.3787e-10
21330.0 9.3409e-10
21350.0 9.3009e-10
21370.0 9.2593e-10
21390.0 9.2181e-10
21410.0 9.1761e-10
21430.0 9.1304e-10
21450.0 9.0851e-10
21470.0 9.0401e-10
21490.0 8.9929e-10
21510.0 8.944e-10
21530.0 8.8964e-10
21550.0 8.8478e-10
21570.0 8.7966e-10
21590.0 8.7462e-10
21610.0 8.6966e-10
21630.0 8.6453e-10
21650.0 8.5924e-10
21670.0 8.5429e-10
21690.0 8.4927e-10
21710.0 8.4411e-10
21730.0 8.3908e-10
21750.0 8.3422e-10
21770.0 8.2908e-10
21790.0 8.2398e-10
21810.0 8.1908e-10
21830.0 8.1413e-10
21850.0 8.0901e-10
21870.0 8.0404e-10
21890.0 7.9923e-10
21910.0 7.9423e-10
21930.0 7.8924e-10
21950.0 7.8447e-10
21970.0 7.7966e-10
21990.0 7.7468e-10
22010.0 7.7002e-10
22030.0 7.6551e-10
22050.0 7.6096e-10
22070.0 7.5655e-10
22090.0 7.5248e-10
22110.0 7.4846e-10
22130.0 7.4451e-10
22150.0 7.4086e-10
22170.0 7.3743e-10
22190.0 7.3402e-10
22210.0 7.3081e-10
22230.0 7.2791e-10
22250.0 7.2509e-10
22270.0 7.2234e-10
22290.0 7.1979e-10
22310.0 7.1737e-10
22330.0 7.149e-10
22350.0 7.1254e-10
22370.0 7.1029e-10
22390.0 7.08e-10
22410.0 7.0566e-10
22430.0 7.0343e-10
22450.0 7.0119e-10
22470.0 6.9885e-10
22490.0 6.9651e-10
22510.0 6.9424e-10
22530.0 6.9184e-10
22550.0 6.8937e-10
22570.0 6.87e-10
22590.0 6.8463e-10
22610.0 6.8219e-10
