#lamb flux
1010.0 0.00018549
1030.0 0.00023607
1050.0 0.00029623
1070.0 0.00036654
1090.0 0.00044949
1110.0 0.00053909
1130.0 0.00063418
1150.0 0.00073719
1170.0 0.00084805
1190.0 0.00095934
1210.0 0.0010828
1230.0 0.0012135
1250.0 0.001345
1270.0 0.0014741
1290.0 0.0016071
1310.0 0.001736
1330.0 0.0018539
1350.0 0.0019641
1370.0 0.0020667
1390.0 0.0021541
1410.0 0.002225
1430.0 0.0022868
1450.0 0.0023349
1470.0 0.0023669
1490.0 0.0023887
1510.0 0.0024205
1530.0 0.0024463
1550.0 0.0024655
1570.0 0.0024795
1590.0 0.0024918
1610.0 0.0024999
1630.0 0.0025113
1650.0 0.0025262
1670.0 0.0025409
1690.0 0.0025576
1710.0 0.0025802
1730.0 0.0026066
1750.0 0.0026324
1770.0 0.0026638
1790.0 0.0027
1810.0 0.0027374
1830.0 0.002777
1850.0 0.0028236
1870.0 0.0028715
1890.0 0.00292
1910.0 0.0029726
1930.0 0.0030293
1950.0 0.0030855
1970.0 0.0031435
1990.0 0.0032062
2010.0 0.0032701
2030.0 0.003334
2050.0 0.0034019
2070.0 0.0034736
2090.0 0.0035438
2110.0 0.0036158
2130.0 0.0036916
2150.0 0.0037683
2170.0 0.0038441
2190.0 0.003924
2210.0 0.0040062
2230.0 0.0040875
2250.0 0.0041702
2270.0 0.0042572
2290.0 0.0043437
2310.0 0.0044288
2330.0 0.0045171
2350.0 0.0046069
2370.0 0.0046947
2390.0 0.0047836
2410.0 0.004876
2430.0 0.0049671
2450.0 0.0050587
2470.0 0.0051572
2490.0 0.0052673
2510.0 0.0053897
2530.0 0.0055419
2550.0 0.0057456
2570.0 0.006014
2590.0 0.0063652
2610.0 0.0068647
2630.0 0.0075266
2650.0 0.0083364
2670.0 0.0093375
2690.0 0.010551
2710.0 0.01188
2730.0 0.01327
2750.0 0.014766
2770.0 0.016232
2790.0 0.017564
2810.0 0.018779
2830.0 0.019875
2850.0 0.020732
2870.0 0.021431
2890.0 0.022029
2910.0 0.022532
2930.0 0.022952
2950.0 0.023353
2970.0 0.02374
2990.0 0.024098
3010.0 0.024442
3030.0 0.024794
3050.0 0.025137
3070.0 0.025445
3090.0 0.025756
3110.0 0.026074
3130.0 0.026404
3150.0 0.026738
3170.0 0.027298
3190.0 0.028148
3210.0 0.02939
3230.0 0.031206
3250.0 0.033724
3270.0 0.036159
3290.0 0.039943
3310.0 0.047536
3330.0 0.049182
3350.0 0.04934
3370.0 0.049415
3390.0 0.049475
3410.0 0.049495
3430.0 0.049483
3450.0 0.049465
3470.0 0.049456
3490.0 0.049358
3510.0 0.048969
3530.0 0.047082
3550.0 0.04478
3570.0 0.045418
3590.0 0.048291
3610.0 0.052107
3630.0 0.054176
3650.0 0.051725
3670.0 0.046548
3690.0 0.042976
3710.0 0.042619
3730.0 0.04375
3750.0 0.04438
3770.0 0.04578
3790.0 0.047426
3810.0 0.0473
3830.0 0.044223
3850.0 0.041246
3870.0 0.040014
3890.0 0.040377
3910.0 0.040293
3930.0 0.040458
3950.0 0.042434
3970.0 0.044768
3990.0 0.045996
4010.0 0.045581
4030.0 0.044169
4050.0 0.043586
4070.0 0.043285
4090.0 0.043425
4110.0 0.043289
4130.0 0.042081
4150.0 0.040675
4170.0 0.04034
4190.0 0.039086
4210.0 0.036588
4230.0 0.033879
4250.0 0.031077
4270.0 0.029003
4290.0 0.027822
4310.0 0.02756
4330.0 0.028512
4350.0 0.029984
4370.0 0.031335
4390.0 0.033804
4410.0 0.035908
4430.0 0.035986
4450.0 0.033622
4470.0 0.031408
4490.0 0.030606
4510.0 0.03026
4530.0 0.030422
4550.0 0.030601
4570.0 0.031162
4590.0 0.03227
4610.0 0.033743
4630.0 0.034859
4650.0 0.035607
4670.0 0.035244
4690.0 0.033476
4710.0 0.031663
4730.0 0.030453
4750.0 0.029751
4770.0 0.029785
4790.0 0.029787
4810.0 0.029185
4830.0 0.028936
4850.0 0.029947
4870.0 0.029817
4890.0 0.029341
4910.0 0.028685
4930.0 0.026904
4950.0 0.02411
4970.0 0.022333
4990.0 0.020849
5010.0 0.020168
5030.0 0.020509
5050.0 0.020936
5070.0 0.021392
5090.0 0.022331
5110.0 0.022348
5130.0 0.022163
5150.0 0.022247
5170.0 0.021921
5190.0 0.022052
5210.0 0.021902
5230.0 0.021239
5250.0 0.021167
5270.0 0.021329
5290.0 0.021026
5310.0 0.020417
5330.0 0.019745
5350.0 0.019068
5370.0 0.018617
5390.0 0.018174
5410.0 0.017728
5430.0 0.017611
5450.0 0.017537
5470.0 0.017668
5490.0 0.018298
5510.0 0.018693
5530.0 0.018782
5550.0 0.018904
5570.0 0.018923
5590.0 0.018565
5610.0 0.018372
5630.0 0.01842
5650.0 0.018186
5670.0 0.017796
5690.0 0.017318
5710.0 0.017235
5730.0 0.0175
5750.0 0.01684
5770.0 0.016048
5790.0 0.014962
5810.0 0.013298
5830.0 0.014344
5850.0 0.015819
5870.0 0.016228
5890.0 0.016467
5910.0 0.016859
5930.0 0.016986
5950.0 0.016938
5970.0 0.016958
5990.0 0.016974
6010.0 0.016663
6030.0 0.01634
6050.0 0.016294
6070.0 0.016381
6090.0 0.016417
6110.0 0.01613
6130.0 0.015776
6150.0 0.015382
6170.0 0.014982
6190.0 0.014405
6210.0 0.014126
6230.0 0.014159
6250.0 0.014053
6270.0 0.013957
6290.0 0.014086
6310.0 0.014238
6330.0 0.014124
6350.0 0.013836
6370.0 0.01376
6390.0 0.013575
6410.0 0.013376
6430.0 0.013126
6450.0 0.012985
6470.0 0.012851
6490.0 0.012787
6510.0 0.012612
6530.0 0.012408
6550.0 0.012219
6570.0 0.012074
6590.0 0.012158
6610.0 0.012144
6630.0 0.011806
6650.0 0.011489
6670.0 0.011382
6690.0 0.01121
6710.0 0.010942
6730.0 0.010842
6750.0 0.010926
6770.0 0.011513
6790.0 0.012633
6810.0 0.012045
6830.0 0.010676
6850.0 0.010192
6870.0 0.0099942
6890.0 0.009941
6910.0 0.0099095
6930.0 0.0098545
6950.0 0.0097908
6970.0 0.0094748
6990.0 0.0093193
7010.0 0.0093688
7030.0 0.0093561
7050.0 0.0091411
7070.0 0.0088954
7090.0 0.0087971
7110.0 0.0088868
7130.0 0.0088466
7150.0 0.0087922
7170.0 0.0087378
7190.0 0.0087148
7210.0 0.0087664
7230.0 0.0088019
7250.0 0.0088057
7270.0 0.0087761
7290.0 0.0088259
7310.0 0.0088238
7330.0 0.0086329
7350.0 0.0083299
7370.0 0.0081475
7390.0 0.0080732
7410.0 0.0079198
7430.0 0.0079255
7450.0 0.0078571
7470.0 0.007906
7490.0 0.0077602
7510.0 0.007529
7530.0 0.0075475
7550.0 0.0075359
7570.0 0.0074014
7590.0 0.0069989
7610.0 0.0069254
7630.0 0.0071687
7650.0 0.0072593
7670.0 0.0071201
7690.0 0.007269
7710.0 0.0074401
7730.0 0.0074996
7750.0 0.0077098
7770.0 0.0075269
7790.0 0.0073084
7810.0 0.0075888
7830.0 0.0078448
7850.0 0.0078678
7870.0 0.0080124
7890.0 0.0079473
7910.0 0.0078156
7930.0 0.0077415
7950.0 0.0079555
7970.0 0.0079292
7990.0 0.0073814
8010.0 0.0072433
8030.0 0.0071582
8050.0 0.0070213
8070.0 0.0068625
8090.0 0.0062703
8110.0 0.0062837
8130.0 0.006768
8150.0 0.00704
8170.0 0.007118
8190.0 0.0073345
8210.0 0.0071812
8230.0 0.0070725
8250.0 0.0070605
8270.0 0.0069309
8290.0 0.0067895
8310.0 0.0064633
8330.0 0.0064572
8350.0 0.0065635
8370.0 0.0066066
8390.0 0.0065681
8410.0 0.0064774
8430.0 0.0063648
8450.0 0.0063469
8470.0 0.0066075
8490.0 0.0066764
8510.0 0.0064002
8530.0 0.0061812
8550.0 0.00615
8570.0 0.0059672
8590.0 0.0058741
8610.0 0.005981
8630.0 0.0059978
8650.0 0.0059535
8670.0 0.0059151
8690.0 0.0058413
8710.0 0.0055877
8730.0 0.0055742
8750.0 0.0054492
8770.0 0.0054668
8790.0 0.0054223
8810.0 0.0052702
8830.0 0.0052842
8850.0 0.0053248
8870.0 0.0050718
8890.0 0.0048684
8910.0 0.0047103
8930.0 0.0045022
8950.0 0.0043733
8970.0 0.0041894
8990.0 0.004121
9010.0 0.003971
9030.0 0.0039253
9050.0 0.0039014
9070.0 0.0038785
9090.0 0.0038553
9110.0 0.0038316
9130.0 0.0038079
9150.0 0.0037846
9170.0 0.003761
9190.0 0.0037373
9210.0 0.0037133
9230.0 0.0036893
9250.0 0.0036651
9270.0 0.0036409
9290.0 0.0036165
9310.0 0.0035926
9330.0 0.0035694
9350.0 0.0035461
9370.0 0.0035227
9390.0 0.0034994
9410.0 0.003476
9430.0 0.0034527
9450.0 0.0034293
9470.0 0.0034082
9490.0 0.0033859
9510.0 0.0033614
9530.0 0.0033372
9550.0 0.0033136
9570.0 0.0032903
9590.0 0.003267
9610.0 0.0032445
9630.0 0.0032223
9650.0 0.0032002
9670.0 0.003178
9690.0 0.0031561
9710.0 0.0031343
9730.0 0.0031124
9750.0 0.0030908
9770.0 0.0030695
9790.0 0.0030481
9810.0 0.0030268
9830.0 0.0030058
9850.0 0.002983
9870.0 0.00296
9890.0 0.0029412
9910.0 0.002922
9930.0 0.0028991
9950.0 0.0028791
9970.0 0.0028608
9990.0 0.002842
10010.0 0.0028233
10030.0 0.0028044
10050.0 0.0027854
10070.0 0.0027666
10090.0 0.002748
10110.0 0.0027294
10130.0 0.002711
10150.0 0.002693
10170.0 0.0026751
10190.0 0.0026572
10210.0 0.0026398
10230.0 0.0026227
10250.0 0.0026056
10270.0 0.0025887
10290.0 0.0025722
10310.0 0.0025557
10330.0 0.0025394
10350.0 0.0025234
10370.0 0.0025077
10390.0 0.0024919
10410.0 0.0024752
10430.0 0.0024584
10450.0 0.002445
10470.0 0.0024308
10490.0 0.0024168
10510.0 0.002403
10530.0 0.0023887
10550.0 0.0023748
10570.0 0.0023614
10590.0 0.0023478
10610.0 0.0023344
10630.0 0.0023215
10650.0 0.0023087
10670.0 0.0022958
10690.0 0.0022833
10710.0 0.0022711
10730.0 0.0022589
10750.0 0.0022467
10770.0 0.0022352
10790.0 0.0022237
10810.0 0.0022122
10830.0 0.002201
10850.0 0.0021903
10870.0 0.0021792
10890.0 0.0021683
10910.0 0.0021579
10930.0 0.0021475
10950.0 0.0021369
10970.0 0.0021265
10990.0 0.0021164
11010.0 0.0022293
11030.0 0.0022177
11050.0 0.002206
11070.0 0.0021939
11090.0 0.0021806
11110.0 0.0021677
11130.0 0.0021548
11150.0 0.0021411
11170.0 0.0021273
11190.0 0.0021139
11210.0 0.0021001
11230.0 0.0020859
11250.0 0.0020723
11270.0 0.0020591
11290.0 0.0020456
11310.0 0.0020326
11330.0 0.0020209
11350.0 0.0020095
11370.0 0.0019985
11390.0 0.0019886
11410.0 0.0019795
11430.0 0.0019704
11450.0 0.0019622
11470.0 0.0019547
11490.0 0.0019473
11510.0 0.0019399
11530.0 0.0019331
11550.0 0.0019263
11570.0 0.0019191
11590.0 0.0019118
11610.0 0.0019046
11630.0 0.0018969
11650.0 0.0018885
11670.0 0.0018804
11690.0 0.001872
11710.0 0.0018629
11730.0 0.0018537
11750.0 0.0018448
11770.0 0.0018352
11790.0 0.0018254
11810.0 0.001816
11830.0 0.0018066
11850.0 0.0017966
11870.0 0.0017873
11890.0 0.0017785
11910.0 0.0017698
11930.0 0.0017613
11950.0 0.0017537
11970.0 0.0017466
11990.0 0.0017396
12010.0 0.0017335
12030.0 0.0017281
12050.0 0.0017232
12070.0 0.0017187
12090.0 0.0017153
12110.0 0.0017124
12130.0 0.0017098
12150.0 0.0017079
12170.0 0.0017064
12190.0 0.001705
12210.0 0.0017038
12230.0 0.0017029
12250.0 0.0017018
12270.0 0.0017003
12290.0 0.0016986
12310.0 0.0016966
12330.0 0.0016937
12350.0 0.0016902
12370.0 0.0016861
12390.0 0.0016811
12410.0 0.0016747
12430.0 0.001668
12450.0 0.0016604
12470.0 0.0016517
12490.0 0.0016422
12510.0 0.0016325
12530.0 0.0016218
12550.0 0.0016101
12570.0 0.0015983
12590.0 0.0015863
12610.0 0.0015733
12630.0 0.0015601
12650.0 0.0015476
12670.0 0.0015345
12690.0 0.0015213
12710.0 0.0015086
12730.0 0.0014963
12750.0 0.0014835
12770.0 0.0014714
12790.0 0.0014602
12810.0 0.0014491
12830.0 0.0014383
12850.0 0.0014287
12870.0 0.0014197
12890.0 0.001411
12910.0 0.0014032
12930.0 0.0013964
12950.0 0.00139
12970.0 0.0013843
12990.0 0.0013798
13010.0 0.0013761
13030.0 0.001373
13050.0 0.0013707
13070.0 0.0013693
13090.0 0.0013683
13110.0 0.0013678
13130.0 0.0013677
13150.0 0.0013678
13170.0 0.0013679
13190.0 0.0013678
13210.0 0.0013674
13230.0 0.0013666
13250.0 0.0013651
13270.0 0.0013629
13290.0 0.00136
13310.0 0.0013561
13330.0 0.0013514
13350.0 0.001346
13370.0 0.0013395
13390.0 0.001332
13410.0 0.0013242
13430.0 0.0013155
13450.0 0.0013059
13470.0 0.0012958
13490.0 0.0012854
13510.0 0.0012738
13530.0 0.0012619
13550.0 0.0012499
13570.0 0.0012374
13590.0 0.0012242
13610.0 0.0012112
13630.0 0.0011982
13650.0 0.0011846
13670.0 0.0011709
13690.0 0.0011575
13710.0 0.0011439
13730.0 0.0011297
13750.0 0.0011164
13770.0 0.0011032
13790.0 0.0010898
13810.0 0.0010767
13830.0 0.0010643
13850.0 0.0010518
13870.0 0.0010395
13890.0 0.0010278
13910.0 0.0010166
13930.0 0.0010053
13950.0 0.0009944
13970.0 0.00098438
13990.0 0.00097442
14010.0 0.00096467
14030.0 0.00095555
14050.0 0.00094684
14070.0 0.00093805
14090.0 0.00092983
14110.0 0.00092214
14130.0 0.00091461
14150.0 0.00090726
14170.0 0.00090049
14190.0 0.00089399
14210.0 0.00088753
14230.0 0.00088138
14250.0 0.00087556
14270.0 0.00086971
14290.0 0.00086392
14310.0 0.00085848
14330.0 0.00085311
14350.0 0.0008477
14370.0 0.00084245
14390.0 0.00083741
14410.0 0.00083228
14430.0 0.0008272
14450.0 0.00082232
14470.0 0.00081747
14490.0 0.00081249
14510.0 0.00080768
14530.0 0.000803
14550.0 0.00079822
14570.0 0.00079341
14590.0 0.00078875
14610.0 0.00078401
14630.0 0.00077911
14650.0 0.0007743
14670.0 0.00076953
14690.0 0.0007646
14710.0 0.00075958
14730.0 0.00075475
14750.0 0.00074979
14770.0 0.00074467
14790.0 0.00073961
14810.0 0.00073458
14830.0 0.00072925
14850.0 0.00072391
14870.0 0.00071869
14890.0 0.00071338
14910.0 0.00070797
14930.0 0.0007028
14950.0 0.00069787
14970.0 0.00069301
14990.0 0.00068849
15010.0 0.00068442
15030.0 0.00068063
15050.0 0.00067705
15070.0 0.00067388
15090.0 0.0006709
15110.0 0.000668
15130.0 0.00066519
15150.0 0.00066251
15170.0 0.00065979
15190.0 0.00065707
15210.0 0.00065441
15230.0 0.00065178
15250.0 0.00064909
15270.0 0.00064642
15290.0 0.00064384
15310.0 0.00064122
15330.0 0.00063859
15350.0 0.00063602
15370.0 0.00063347
15390.0 0.00063084
15410.0 0.00062827
15430.0 0.00062576
15450.0 0.00062321
15470.0 0.00062064
15490.0 0.00061816
15510.0 0.00061568
15530.0 0.00061316
15550.0 0.00061068
15570.0 0.00060826
15590.0 0.00060578
15610.0 0.00060329
15630.0 0.00060089
15650.0 0.00059849
15670.0 0.00059605
15690.0 0.00059366
15710.0 0.00059133
15730.0 0.00058894
15750.0 0.00058656
15770.0 0.00058424
15790.0 0.00058192
15810.0 0.00057955
15830.0 0.00057724
15850.0 0.00057499
15870.0 0.00057269
15890.0 0.00057041
15910.0 0.00056819
15930.0 0.00056595
15950.0 0.00056368
15970.0 0.00056146
15990.0 0.00055929
16010.0 0.00055707
16030.0 0.00055485
16050.0 0.00055272
16070.0 0.00055058
16090.0 0.0005484
16110.0 0.00054628
16130.0 0.00054421
16150.0 0.00054205
16170.0 0.00053993
16190.0 0.00053788
16210.0 0.00053581
16230.0 0.00053371
16250.0 0.00053168
16270.0 0.00052969
16290.0 0.00052763
16310.0 0.00052561
16330.0 0.00052365
16350.0 0.00052166
16370.0 0.00051962
16390.0 0.00051768
16410.0 0.00051575
16430.0 0.00051379
16450.0 0.00051185
16470.0 0.00050998
16490.0 0.00050806
16510.0 0.00050613
16530.0 0.00050426
16550.0 0.00050241
16570.0 0.00050051
16590.0 0.00049864
16610.0 0.00049685
16630.0 0.00049501
16650.0 0.00049317
16670.0 0.00049139
16690.0 0.00048962
16710.0 0.00048778
16730.0 0.000486
16750.0 0.00048427
16770.0 0.00048251
16790.0 0.00048072
16810.0 0.00047903
16830.0 0.00047732
16850.0 0.00047558
16870.0 0.00047388
16890.0 0.00047222
16910.0 0.00047051
16930.0 0.0004688
16950.0 0.00046716
16970.0 0.00046552
16990.0 0.00046385
17010.0 0.00046222
17030.0 0.00046064
17050.0 0.00045899
17070.0 0.00045736
17090.0 0.00045579
17110.0 0.00045421
17130.0 0.00045258
17150.0 0.00045101
17170.0 0.00044948
17190.0 0.00044791
17210.0 0.00044635
17230.0 0.00044485
17250.0 0.00044332
17270.0 0.00044176
17290.0 0.00044025
17310.0 0.00043877
17330.0 0.00043725
17350.0 0.00043572
17370.0 0.00043429
17390.0 0.00043282
17410.0 0.00043132
17430.0 0.00042988
17450.0 0.00042846
17470.0 0.00042696
17490.0 0.00042551
17510.0 0.00042411
17530.0 0.00042268
17550.0 0.00042123
17570.0 0.00041984
17590.0 0.00041847
17610.0 0.00041704
17630.0 0.00041563
17650.0 0.00041428
17670.0 0.0004129
17690.0 0.00041146
17710.0 0.00041012
17730.0 0.00040878
17750.0 0.0004074
17770.0 0.00040604
17790.0 0.00040475
17810.0 0.00040339
17830.0 0.00040202
17850.0 0.00040071
17870.0 0.0003994
17890.0 0.00039804
17910.0 0.00039671
17930.0 0.00039544
17950.0 0.00039413
17970.0 0.00039281
17990.0 0.00039154
18010.0 0.00039027
18030.0 0.00038892
18050.0 0.00038764
18070.0 0.00038639
18090.0 0.0003851
18110.0 0.00038379
18130.0 0.00038256
18150.0 0.00038131
18170.0 0.00038002
18190.0 0.00037877
18210.0 0.00037755
18230.0 0.00037627
18250.0 0.00037498
18270.0 0.00037376
18290.0 0.00037253
18310.0 0.00037126
18330.0 0.00037003
18350.0 0.00036884
18370.0 0.00036758
18390.0 0.00036633
18410.0 0.00036513
18430.0 0.00036391
18450.0 0.00036264
18470.0 0.00036143
18490.0 0.00036024
18510.0 0.00035901
18530.0 0.00035778
18550.0 0.00035661
18570.0 0.0003554
18590.0 0.00035414
18610.0 0.00035294
18630.0 0.00035176
18650.0 0.00035053
18670.0 0.00034929
18690.0 0.00034814
18710.0 0.00034694
18730.0 0.00034571
18750.0 0.00034452
18770.0 0.00034336
18790.0 0.0003421
18810.0 0.00034089
18830.0 0.00033973
18850.0 0.00033853
18870.0 0.00033729
18890.0 0.00033612
18910.0 0.00033496
18930.0 0.00033373
18950.0 0.00033252
18970.0 0.00033136
18990.0 0.00033015
19010.0 0.00032889
19030.0 0.00032773
19050.0 0.00032655
19070.0 0.00032533
19090.0 0.00032413
19110.0 0.00032298
19130.0 0.00032175
19150.0 0.00032052
19170.0 0.00031934
19190.0 0.00031815
19210.0 0.00031691
19230.0 0.00031569
19250.0 0.00031453
19270.0 0.00031331
19290.0 0.00031208
19310.0 0.00031091
19330.0 0.00030972
19350.0 0.00030844
19370.0 0.00030723
19390.0 0.00030605
19410.0 0.00030482
19430.0 0.00030357
19450.0 0.00030239
19470.0 0.00030118
19490.0 0.00029992
19510.0 0.0002987
19530.0 0.00029751
19550.0 0.00029625
19570.0 0.00029498
19590.0 0.00029378
19610.0 0.00029256
19630.0 0.00029129
19650.0 0.00029006
19670.0 0.00028886
19690.0 0.00028758
19710.0 0.00028631
19730.0 0.00028509
19750.0 0.00028385
19770.0 0.00028253
19790.0 0.00028129
19810.0 0.00028007
19830.0 0.00027879
19850.0 0.00027751
19870.0 0.00027631
19890.0 0.00027506
19910.0 0.00027379
19930.0 0.00027264
19950.0 0.00027157
19970.0 0.00027055
19990.0 0.00026968
20010.0 0.00026901
20030.0 0.00026846
20050.0 0.00026805
20070.0 0.00026779
20090.0 0.00026764
20110.0 0.00026755
20130.0 0.00026751
20150.0 0.00026752
20170.0 0.00026753
20190.0 0.00026754
20210.0 0.00026755
20230.0 0.00026755
20250.0 0.00026753
20270.0 0.0002675
20290.0 0.00026745
20310.0 0.00026738
20330.0 0.00026727
20350.0 0.00026716
20370.0 0.00026703
20390.0 0.00026686
20410.0 0.00026668
20430.0 0.00026649
20450.0 0.00026627
20470.0 0.00026603
20490.0 0.0002658
20510.0 0.00026556
20530.0 0.0002653
20550.0 0.00026506
20570.0 0.00026485
20590.0 0.00026462
20610.0 0.0002644
20630.0 0.00026422
20650.0 0.00026403
20670.0 0.00026383
20690.0 0.00026364
20710.0 0.00026347
20730.0 0.00026326
20750.0 0.00026304
20770.0 0.00026281
20790.0 0.00026255
20810.0 0.00026222
20830.0 0.00026188
20850.0 0.00026149
20870.0 0.00026103
20890.0 0.0002605
20910.0 0.00025997
20930.0 0.00025938
20950.0 0.00025871
20970.0 0.00025804
20990.0 0.00025735
21010.0 0.00025658
21030.0 0.00025581
21050.0 0.00025506
21070.0 0.00025428
21090.0 0.00025347
21110.0 0.00025271
21130.0 0.00025196
21150.0 0.00025119
21170.0 0.00025043
21190.0 0.00024971
21210.0 0.00024896
21230.0 0.00024818
21250.0 0.00024744
21270.0 0.00024669
21290.0 0.00024589
21310.0 0.00024508
21330.0 0.00024429
21350.0 0.00024344
21370.0 0.00024255
21390.0 0.00024166
21410.0 0.00024074
21430.0 0.00023972
21450.0 0.0002387
21470.0 0.00023769
21490.0 0.00023662
21510.0 0.00023549
21530.0 0.00023439
21550.0 0.00023327
21570.0 0.00023206
21590.0 0.00023088
21610.0 0.00022971
21630.0 0.00022849
21650.0 0.00022721
21670.0 0.00022603
21690.0 0.00022482
21710.0 0.00022357
21730.0 0.00022234
21750.0 0.00022116
21770.0 0.00021989
21790.0 0.00021863
21810.0 0.00021742
21830.0 0.00021619
21850.0 0.00021491
21870.0 0.00021366
21890.0 0.00021245
21910.0 0.00021118
21930.0 0.00020991
21950.0 0.00020869
21970.0 0.00020746
21990.0 0.00020618
22010.0 0.00020498
22030.0 0.00020381
22050.0 0.00020263
22070.0 0.00020148
22090.0 0.00020042
22110.0 0.00019937
22130.0 0.00019833
22150.0 0.00019737
22170.0 0.00019647
22190.0 0.00019557
22210.0 0.00019472
22230.0 0.00019395
22250.0 0.0001932
22270.0 0.00019246
22290.0 0.00019178
22310.0 0.00019113
22330.0 0.00019047
22350.0 0.00018983
22370.0 0.00018922
22390.0 0.00018859
22410.0 0.00018795
22430.0 0.00018734
22450.0 0.00018672
22470.0 0.00018607
22490.0 0.00018542
22510.0 0.00018478
22530.0 0.00018411
22550.0 0.00018341
22570.0 0.00018274
22590.0 0.00018206
22610.0 0.00018135
22630.0 0.00018066
22650.0 0.00018
22670.0 0.00017932
22690.0 0.00017864
22710.0 0.000178
22730.0 0.00017738
22750.0 0.00017675
22770.0 0.00017616
22790.0 0.00017561
22810.0 0.00017507
22830.0 0.00017456
22850.0 0.00017409
22870.0 0.00017363
22890.0 0.00017319
22910.0 0.00017279
22930.0 0.0001724
22950.0 0.00017203
22970.0 0.00017166
22990.0 0.00017132
23010.0 0.00017099
23030.0 0.00017066
23050.0 0.00017034
23070.0 0.00017004
23090.0 0.00016974
23110.0 0.00016944
23130.0 0.00016917
23150.0 0.00016891
23170.0 0.00016867
23190.0 0.00016846
23210.0 0.00016827
23230.0 0.00016811
23250.0 0.00016799
23270.0 0.00016789
23290.0 0.00016782
23310.0 0.00016779
23330.0 0.00016778
23350.0 0.00016777
23370.0 0.00016779
23390.0 0.00016781
23410.0 0.00016781
23430.0 0.00016781
23450.0 0.0001678
23470.0 0.00016776
23490.0 0.00016768
23510.0 0.00016758
