#lamb flux
1010.0 1.9203e-05
1030.0 2.0465e-05
1050.0 2.3007e-05
1070.0 2.5858e-05
1090.0 2.8838e-05
1110.0 3.1902e-05
1130.0 3.4983e-05
1150.0 3.8204e-05
1170.0 4.1498e-05
1190.0 4.4544e-05
1210.0 4.7548e-05
1230.0 5.0547e-05
1250.0 5.3391e-05
1270.0 5.5981e-05
1290.0 5.8577e-05
1310.0 6.0992e-05
1330.0 6.3111e-05
1350.0 6.5131e-05
1370.0 6.7148e-05
1390.0 6.9032e-05
1410.0 7.0832e-05
1430.0 7.2818e-05
1450.0 7.4918e-05
1470.0 7.7098e-05
1490.0 7.9541e-05
1510.0 8.2422e-05
1530.0 8.5483e-05
1550.0 8.8882e-05
1570.0 9.2786e-05
1590.0 9.7136e-05
1610.0 0.00010184
1630.0 0.00010721
1650.0 0.00011317
1670.0 0.00011953
1690.0 0.00012633
1710.0 0.00013373
1730.0 0.00014158
1750.0 0.0001496
1770.0 0.00015802
1790.0 0.00016673
1810.0 0.00017545
1830.0 0.0001841
1850.0 0.00019289
1870.0 0.00020133
1890.0 0.00020924
1910.0 0.00021673
1930.0 0.00022368
1950.0 0.00022968
1970.0 0.00023476
1990.0 0.00023907
2010.0 0.0002423
2030.0 0.00024435
2050.0 0.00024549
2070.0 0.00024573
2090.0 0.00024475
2110.0 0.00024288
2130.0 0.00024032
2150.0 0.00023698
2170.0 0.00023291
2190.0 0.00022853
2210.0 0.00022384
2230.0 0.00021881
2250.0 0.0002137
2270.0 0.00020877
2290.0 0.00020387
2310.0 0.00019909
2330.0 0.00019472
2350.0 0.00019075
2370.0 0.00018713
2390.0 0.00018407
2410.0 0.00018173
2430.0 0.00018
2450.0 0.00017897
2470.0 0.00017891
2490.0 0.00017991
2510.0 0.00018181
2530.0 0.00018521
2550.0 0.00019086
2570.0 0.00019938
2590.0 0.00021172
2610.0 0.00023082
2630.0 0.00025741
2650.0 0.00029056
2670.0 0.00033117
2690.0 0.00037851
2710.0 0.00042715
2730.0 0.00047435
2750.0 0.0005208
2770.0 0.00056292
2790.0 0.00060004
2810.0 0.00063484
2830.0 0.00066962
2850.0 0.00070359
2870.0 0.00073918
2890.0 0.0007782
2910.0 0.00082026
2930.0 0.00086435
2950.0 0.00091255
2970.0 0.00096468
2990.0 0.0010191
3010.0 0.0012197
3030.0 0.0012895
3050.0 0.0013624
3070.0 0.0014349
3090.0 0.0015083
3110.0 0.0015785
3130.0 0.0016399
3150.0 0.0016901
3170.0 0.001722
3190.0 0.0017767
3210.0 0.0019596
3230.0 0.0022425
3250.0 0.0023601
3270.0 0.0022363
3290.0 0.0020397
3310.0 0.0019371
3330.0 0.0018952
3350.0 0.0018921
3370.0 0.001902
3390.0 0.0019254
3410.0 0.0019375
3430.0 0.001877
3450.0 0.0018554
3470.0 0.0018494
3490.0 0.0020707
3510.0 0.0027265
3530.0 0.0033827
3550.0 0.0038544
3570.0 0.0043022
3590.0 0.0045608
3610.0 0.004531
3630.0 0.0044495
3650.0 0.0046776
3670.0 0.0053385
3690.0 0.0061446
3710.0 0.0068559
3730.0 0.0074483
3750.0 0.0079757
3770.0 0.00788
3790.0 0.0073335
3810.0 0.0067864
3830.0 0.0062557
3850.0 0.0060405
3870.0 0.0063286
3890.0 0.0069502
3910.0 0.0075869
3930.0 0.008277
3950.0 0.0092831
3970.0 0.01001
3990.0 0.0097019
4010.0 0.0088052
4030.0 0.007737
4050.0 0.0070858
4070.0 0.0068062
4090.0 0.0066698
4110.0 0.0067616
4130.0 0.0067691
4150.0 0.0067992
4170.0 0.0070824
4190.0 0.0075591
4210.0 0.0075514
4230.0 0.0074414
4250.0 0.007461
4270.0 0.007677
4290.0 0.008078
4310.0 0.0084584
4330.0 0.0082349
4350.0 0.0075103
4370.0 0.0067986
4390.0 0.0060912
4410.0 0.0053854
4430.0 0.0051062
4450.0 0.0052095
4470.0 0.0054298
4490.0 0.0058061
4510.0 0.0066252
4530.0 0.0083239
4550.0 0.010846
4570.0 0.012677
4590.0 0.013989
4610.0 0.015907
4630.0 0.017377
4650.0 0.016822
4670.0 0.014705
4690.0 0.012481
4710.0 0.010946
4730.0 0.0099474
4750.0 0.0089711
4770.0 0.0082419
4790.0 0.0084869
4810.0 0.0091576
4830.0 0.0094248
4850.0 0.0092182
4870.0 0.0094443
4890.0 0.010096
4910.0 0.010689
4930.0 0.011073
4950.0 0.011139
4970.0 0.010691
4990.0 0.0097585
5010.0 0.008735
5030.0 0.0078793
5050.0 0.0073117
5070.0 0.0069269
5090.0 0.0066289
5110.0 0.0065383
5130.0 0.0065356
5150.0 0.0066441
5170.0 0.0071338
5190.0 0.0079252
5210.0 0.0089179
5230.0 0.0097465
5250.0 0.010425
5270.0 0.011183
5290.0 0.011965
5310.0 0.012398
5330.0 0.012328
5350.0 0.011937
5370.0 0.011775
5390.0 0.012125
5410.0 0.012868
5430.0 0.013633
5450.0 0.014248
5470.0 0.014586
5490.0 0.01451
5510.0 0.014237
5530.0 0.013956
5550.0 0.013678
5570.0 0.013305
5590.0 0.012883
5610.0 0.01239
5630.0 0.011695
5650.0 0.010779
5670.0 0.0099448
5690.0 0.0094253
5710.0 0.0091035
5730.0 0.0087399
5750.0 0.0084705
5770.0 0.0083653
5790.0 0.0083534
5810.0 0.0082588
5830.0 0.0081778
5850.0 0.0080963
5870.0 0.007836
5890.0 0.0075399
5910.0 0.0071965
5930.0 0.0065817
5950.0 0.0058848
5970.0 0.0053789
5990.0 0.0051056
6010.0 0.0049529
6030.0 0.0047872
6050.0 0.0047037
6070.0 0.0048921
6090.0 0.0051691
6110.0 0.0053041
6130.0 0.0052593
6150.0 0.0051572
6170.0 0.0051018
6190.0 0.0050411
6210.0 0.0048685
6230.0 0.0045404
6250.0 0.0042224
6270.0 0.0040329
6290.0 0.0039103
6310.0 0.0039977
6330.0 0.0043347
6350.0 0.0047582
6370.0 0.0050627
6390.0 0.0053088
6410.0 0.0056022
6430.0 0.0058272
6450.0 0.005985
6470.0 0.0061386
6490.0 0.0062896
6510.0 0.006396
6530.0 0.0064391
6550.0 0.0064757
6570.0 0.0063871
6590.0 0.0061531
6610.0 0.0059263
6630.0 0.0057293
6650.0 0.0054736
6670.0 0.0051713
6690.0 0.0049356
6710.0 0.0047952
6730.0 0.0046544
6750.0 0.0045512
6770.0 0.0045476
6790.0 0.004551
6810.0 0.0044735
6830.0 0.0043839
6850.0 0.0044107
6870.0 0.0044343
6890.0 0.0043579
6910.0 0.0043175
6930.0 0.0042928
6950.0 0.004215
6970.0 0.004102
6990.0 0.0039861
7010.0 0.0038868
7030.0 0.0037632
7050.0 0.0035466
7070.0 0.003314
7090.0 0.0032701
7110.0 0.0033897
7130.0 0.0035205
7150.0 0.0036148
7170.0 0.0037218
7190.0 0.0038116
7210.0 0.0037972
7230.0 0.0037923
7250.0 0.0038614
7270.0 0.0038279
7290.0 0.0037511
7310.0 0.0037534
7330.0 0.0038653
7350.0 0.0040323
7370.0 0.0041396
7390.0 0.0042137
7410.0 0.0042889
7430.0 0.0042904
7450.0 0.0042277
7470.0 0.0041493
7490.0 0.0039809
7510.0 0.0038245
7530.0 0.0038013
7550.0 0.0037798
7570.0 0.00376
7590.0 0.0037939
7610.0 0.0038176
7630.0 0.0038622
7650.0 0.0040338
7670.0 0.0042656
7690.0 0.0044893
7710.0 0.0046616
7730.0 0.004821
7750.0 0.0049825
7770.0 0.0051382
7790.0 0.0052812
7810.0 0.0053475
7830.0 0.0052546
7850.0 0.0050914
7870.0 0.0049211
7890.0 0.0047703
7910.0 0.0047238
7930.0 0.0046701
7950.0 0.004587
7970.0 0.0044876
7990.0 0.0044463
8010.0 0.0041957
8030.0 0.0041914
8050.0 0.0041788
8070.0 0.0041385
8090.0 0.0041032
8110.0 0.0041
8130.0 0.0041242
8150.0 0.0041162
8170.0 0.0040854
8190.0 0.0039805
8210.0 0.0037838
8230.0 0.0035995
8250.0 0.00352
8270.0 0.0033898
8290.0 0.003135
8310.0 0.0028832
8330.0 0.0027231
8350.0 0.0026471
8370.0 0.0027383
8390.0 0.00296
8410.0 0.0031693
8430.0 0.0033784
8450.0 0.0036464
8470.0 0.0038865
8490.0 0.0041501
8510.0 0.0044141
8530.0 0.0046745
8550.0 0.0048873
8570.0 0.0050483
8590.0 0.0051775
8610.0 0.0053062
8630.0 0.0053443
8650.0 0.0052616
8670.0 0.0052851
8690.0 0.0054853
8710.0 0.0057417
8730.0 0.0058336
8750.0 0.0057593
8770.0 0.0057752
8790.0 0.005783
8810.0 0.0056351
8830.0 0.0052399
8850.0 0.004748
8870.0 0.0043908
8890.0 0.0042617
8910.0 0.0041149
8930.0 0.0038409
8950.0 0.0036027
8970.0 0.0035317
8990.0 0.003577
9010.0 0.0035736
9030.0 0.0035338
9050.0 0.0035051
9070.0 0.0034858
9090.0 0.003468
9110.0 0.0034506
9130.0 0.0034332
9150.0 0.0034161
9170.0 0.0033989
9190.0 0.0033826
9210.0 0.0033676
9230.0 0.0033502
9250.0 0.0033334
9270.0 0.0033169
9290.0 0.0033007
9310.0 0.0032847
9330.0 0.0032689
9350.0 0.0032534
9370.0 0.003238
9390.0 0.0032227
9410.0 0.0032075
9430.0 0.003192
9450.0 0.0031736
9470.0 0.0031564
9490.0 0.003145
9510.0 0.003132
9530.0 0.003119
9550.0 0.0031053
9570.0 0.0030914
9590.0 0.0030778
9610.0 0.0030641
9630.0 0.0030503
9650.0 0.0030367
9670.0 0.0030235
9690.0 0.00301
9710.0 0.0029966
9730.0 0.0029836
9750.0 0.0029705
9770.0 0.0029571
9790.0 0.0029441
9810.0 0.0029314
9830.0 0.0029183
9850.0 0.0029049
9870.0 0.0028924
9890.0 0.0028799
9910.0 0.002867
9930.0 0.0028544
9950.0 0.002839
9970.0 0.002827
9990.0 0.0028147
10010.0 0.0028021
10030.0 0.0027895
10050.0 0.0027771
10070.0 0.0027648
10090.0 0.0027526
10110.0 0.0027388
10130.0 0.0027201
10150.0 0.0027082
10170.0 0.0026974
10190.0 0.0026851
10210.0 0.0026731
10230.0 0.0026609
10250.0 0.0026475
10270.0 0.002634
10290.0 0.0026212
10310.0 0.0026074
10330.0 0.0025928
10350.0 0.0025791
10370.0 0.0025654
10390.0 0.0025507
10410.0 0.0025361
10430.0 0.0025223
10450.0 0.0025076
10470.0 0.0024922
10490.0 0.0024775
10510.0 0.0024627
10530.0 0.0024465
10550.0 0.0024307
10570.0 0.0024155
10590.0 0.0023994
10610.0 0.0023827
10630.0 0.0023668
10650.0 0.0023506
10670.0 0.0023331
10690.0 0.0023159
10710.0 0.0022991
10730.0 0.0022814
10750.0 0.0022627
10770.0 0.0022453
10790.0 0.0022274
10810.0 0.0022084
10830.0 0.0021897
10850.0 0.0021716
10870.0 0.0021517
10890.0 0.0021317
10910.0 0.0021125
10930.0 0.0020928
10950.0 0.0020721
10970.0 0.0020519
10990.0 0.0020325
11010.0 0.0019992
11030.0 0.0019774
11050.0 0.001957
11070.0 0.001937
11090.0 0.0019163
11110.0 0.0018974
11130.0 0.0018796
11150.0 0.0018619
11170.0 0.0018448
11190.0 0.0018295
11210.0 0.0018146
11230.0 0.0018001
11250.0 0.001787
11270.0 0.001775
11290.0 0.0017633
11310.0 0.0017525
11330.0 0.001743
11350.0 0.0017338
11370.0 0.0017249
11390.0 0.0017165
11410.0 0.0017084
11430.0 0.0016997
11450.0 0.0016908
11470.0 0.0016817
11490.0 0.0016717
11510.0 0.0016606
11530.0 0.0016491
11550.0 0.0016367
11570.0 0.0016228
11590.0 0.0016079
11610.0 0.0015925
11630.0 0.0015755
11650.0 0.001557
11670.0 0.0015383
11690.0 0.0015187
11710.0 0.0014973
11730.0 0.0014752
11750.0 0.001453
11770.0 0.001429
11790.0 0.0014038
11810.0 0.0013784
11830.0 0.0013523
11850.0 0.0013241
11870.0 0.0012961
11890.0 0.0012685
11910.0 0.0012399
11930.0 0.001211
11950.0 0.0011835
11970.0 0.0011561
11990.0 0.0011283
12010.0 0.0011021
12030.0 0.0010774
12050.0 0.0010531
12070.0 0.0010297
12090.0 0.0010088
12110.0 0.00098903
12130.0 0.00097016
12150.0 0.00095318
12170.0 0.00093811
12190.0 0.00092387
12210.0 0.00091149
12230.0 0.00090116
12250.0 0.00089242
12270.0 0.00088526
12290.0 0.00087996
12310.0 0.00087629
12330.0 0.00087407
12350.0 0.00087329
12370.0 0.00087366
12390.0 0.00087507
12410.0 0.00087762
12430.0 0.00088059
12450.0 0.00088398
12470.0 0.00088789
12490.0 0.00089201
12510.0 0.00089588
12530.0 0.00089989
12550.0 0.00090387
12570.0 0.00090735
12590.0 0.00091035
12610.0 0.00091303
12630.0 0.00091498
12650.0 0.00091589
12670.0 0.00091598
12690.0 0.00091502
12710.0 0.00091285
12730.0 0.00090949
12750.0 0.00090477
12770.0 0.00089875
12790.0 0.00089164
12810.0 0.00088329
12830.0 0.00087372
12850.0 0.00086362
12870.0 0.00085293
12890.0 0.00084146
12910.0 0.00082982
12930.0 0.00081837
12950.0 0.00080664
12970.0 0.00079492
12990.0 0.00078395
13010.0 0.00077332
13030.0 0.00076286
13050.0 0.00075297
13070.0 0.0007438
13090.0 0.00073478
13110.0 0.00072614
13130.0 0.00071811
13150.0 0.00071046
13170.0 0.00070291
13190.0 0.00069591
13210.0 0.0006894
13230.0 0.00068307
13250.0 0.00067703
13270.0 0.00067144
13290.0 0.00066606
13310.0 0.00066077
13330.0 0.00065577
13350.0 0.00065097
13370.0 0.00064615
13390.0 0.0006413
13410.0 0.00063663
13430.0 0.00063183
13450.0 0.00062682
13470.0 0.00062175
13490.0 0.00061663
13510.0 0.00061106
13530.0 0.00060533
13550.0 0.00059957
13570.0 0.00059357
13590.0 0.00058725
13610.0 0.00058095
13630.0 0.00057469
13650.0 0.00056812
13670.0 0.00056154
13690.0 0.00055514
13710.0 0.00054867
13730.0 0.00054196
13750.0 0.00053564
13770.0 0.00052943
13790.0 0.00052313
13810.0 0.00051696
13830.0 0.00051113
13850.0 0.00050526
13870.0 0.00049945
13890.0 0.00049399
13910.0 0.00048876
13930.0 0.00048358
13950.0 0.00047868
13970.0 0.00047427
13990.0 0.00046999
14010.0 0.00046593
14030.0 0.00046226
14050.0 0.00045886
14070.0 0.00045553
14090.0 0.00045251
14110.0 0.00044974
14130.0 0.00044708
14150.0 0.00044451
14170.0 0.00044217
14190.0 0.00043993
14210.0 0.0004377
14230.0 0.00043559
14250.0 0.0004336
14270.0 0.00043159
14290.0 0.0004296
14310.0 0.00042775
14330.0 0.00042593
14350.0 0.00042408
14370.0 0.0004223
14390.0 0.0004206
14410.0 0.00041886
14430.0 0.00041714
14450.0 0.0004155
14470.0 0.00041389
14490.0 0.00041221
14510.0 0.00041062
14530.0 0.00040909
14550.0 0.0004075
14570.0 0.00040588
14590.0 0.00040431
14610.0 0.00040268
14630.0 0.00040095
14650.0 0.00039928
14670.0 0.00039767
14690.0 0.00039609
14710.0 0.00039468
14730.0 0.00039365
14750.0 0.00039298
14770.0 0.00039286
14790.0 0.00039344
14810.0 0.00039479
14830.0 0.00039719
14850.0 0.00040066
14870.0 0.00040507
14890.0 0.00041054
14910.0 0.00041707
14930.0 0.000424
14950.0 0.00043103
14970.0 0.0004382
14990.0 0.00044473
15010.0 0.00045025
15030.0 0.00045487
15050.0 0.00045856
15070.0 0.00046119
15090.0 0.00046318
15110.0 0.00046473
15130.0 0.00046598
15150.0 0.00046708
15170.0 0.00046812
15190.0 0.00046913
15210.0 0.00047016
15230.0 0.0004712
15250.0 0.00047225
15270.0 0.00047333
15290.0 0.00047444
15310.0 0.00047556
15330.0 0.00047671
15350.0 0.00047788
15370.0 0.00047907
15390.0 0.00048028
15410.0 0.00048151
15430.0 0.00048276
15450.0 0.00048403
15470.0 0.00048533
15490.0 0.00048664
15510.0 0.00048797
15530.0 0.00048932
15550.0 0.00049069
15570.0 0.00049208
15590.0 0.00049349
15610.0 0.00049491
15630.0 0.00049635
15650.0 0.00049781
15670.0 0.00049929
15690.0 0.00050078
15710.0 0.00050229
15730.0 0.00050382
15750.0 0.00050535
15770.0 0.00050691
15790.0 0.00050848
15810.0 0.00051006
15830.0 0.00051166
15850.0 0.00051327
15870.0 0.00051489
15890.0 0.00051653
15910.0 0.00051818
15930.0 0.00051984
15950.0 0.0005215
15970.0 0.00052319
15990.0 0.00052488
16010.0 0.00052658
16030.0 0.00052828
16050.0 0.00053
16070.0 0.00053173
16090.0 0.00053346
16110.0 0.0005352
16130.0 0.00053695
16150.0 0.0005387
16170.0 0.00054045
16190.0 0.00054222
16210.0 0.00054398
16230.0 0.00054575
16250.0 0.00054752
16270.0 0.0005493
16290.0 0.00055107
16310.0 0.00055285
16330.0 0.00055463
16350.0 0.00055641
16370.0 0.00055818
16390.0 0.00055996
16410.0 0.00056173
16430.0 0.0005635
16450.0 0.00056527
16470.0 0.00056704
16490.0 0.0005688
16510.0 0.00057055
16530.0 0.0005723
16550.0 0.00057404
16570.0 0.00057577
16590.0 0.0005775
16610.0 0.00057922
16630.0 0.00058093
16650.0 0.00058263
16670.0 0.00058432
16690.0 0.00058599
16710.0 0.00058766
16730.0 0.00058931
16750.0 0.00059095
16770.0 0.00059258
16790.0 0.00059419
16810.0 0.00059578
16830.0 0.00059736
16850.0 0.00059893
16870.0 0.00060047
16890.0 0.000602
16910.0 0.00060351
16930.0 0.000605
16950.0 0.00060647
16970.0 0.00060792
16990.0 0.00060935
17010.0 0.00061076
17030.0 0.00061215
17050.0 0.00061351
17070.0 0.00061484
17090.0 0.00061616
17110.0 0.00061745
17130.0 0.00061871
17150.0 0.00061995
17170.0 0.00062116
17190.0 0.00062234
17210.0 0.0006235
17230.0 0.00062463
17250.0 0.00062573
17270.0 0.0006268
17290.0 0.00062784
17310.0 0.00062885
17330.0 0.00062983
17350.0 0.00063077
17370.0 0.00063169
17390.0 0.00063257
17410.0 0.00063342
17430.0 0.00063424
17450.0 0.00063502
17470.0 0.00063577
17490.0 0.00063648
17510.0 0.00063716
17530.0 0.00063781
17550.0 0.00063841
17570.0 0.00063899
17590.0 0.00063952
17610.0 0.00064002
17630.0 0.00064048
17650.0 0.00064091
17670.0 0.0006413
17690.0 0.00064164
17710.0 0.00064196
17730.0 0.00064223
17750.0 0.00064246
17770.0 0.00064266
17790.0 0.00064282
17810.0 0.00064293
17830.0 0.00064301
17850.0 0.00064305
17870.0 0.00064304
17890.0 0.000643
17910.0 0.00064292
17930.0 0.0006428
17950.0 0.00064264
17970.0 0.00064243
17990.0 0.00064219
18010.0 0.00064191
18030.0 0.00064158
18050.0 0.00064122
18070.0 0.00064082
18090.0 0.00064037
18110.0 0.00063989
18130.0 0.00063937
18150.0 0.0006388
18170.0 0.0006382
18190.0 0.00063755
18210.0 0.00063687
18230.0 0.00063614
18250.0 0.00063538
18270.0 0.00063458
18290.0 0.00063374
18310.0 0.00063285
18330.0 0.00063193
18350.0 0.00063098
18370.0 0.00062998
18390.0 0.00062894
18410.0 0.00062787
18430.0 0.00062676
18450.0 0.00062561
18470.0 0.00062442
18490.0 0.0006232
18510.0 0.00062194
18530.0 0.00062065
18550.0 0.00061932
18570.0 0.00061795
18590.0 0.00061655
18610.0 0.00061511
18630.0 0.00061364
18650.0 0.00061213
18670.0 0.00061059
18690.0 0.00060902
18710.0 0.00060741
18730.0 0.00060577
18750.0 0.0006041
18770.0 0.0006024
18790.0 0.00060067
18810.0 0.0005989
18830.0 0.00059711
18850.0 0.00059528
18870.0 0.00059342
18890.0 0.00059154
18910.0 0.00058963
18930.0 0.00058768
18950.0 0.00058571
18970.0 0.00058372
18990.0 0.0005817
19010.0 0.00057964
19030.0 0.00057757
19050.0 0.00057547
19070.0 0.00057334
19090.0 0.00057119
19110.0 0.00056902
19130.0 0.00056682
19150.0 0.0005646
19170.0 0.00056236
19190.0 0.0005601
19210.0 0.00055781
19230.0 0.0005555
19250.0 0.00055318
19270.0 0.00055083
19290.0 0.00054847
19310.0 0.00054608
19330.0 0.00054368
19350.0 0.00054126
19370.0 0.00053883
19390.0 0.00053637
19410.0 0.0005339
19430.0 0.00053142
19450.0 0.00052892
19470.0 0.00052641
19490.0 0.00052388
19510.0 0.00052133
19530.0 0.00051878
19550.0 0.00051621
19570.0 0.00051363
19590.0 0.00051104
19610.0 0.00050844
19630.0 0.00050583
19650.0 0.00050321
19670.0 0.00050058
19690.0 0.00049794
19710.0 0.00049529
19730.0 0.00049263
19750.0 0.00048997
19770.0 0.00048729
19790.0 0.00048461
19810.0 0.00048193
19830.0 0.00047923
19850.0 0.0004765
19870.0 0.00047373
19890.0 0.00047088
19910.0 0.00046785
19930.0 0.00046459
19950.0 0.00046096
19970.0 0.00045677
19990.0 0.00045192
20010.0 0.00044649
20030.0 0.00044026
20050.0 0.00043328
20070.0 0.00042589
20090.0 0.00041817
20110.0 0.00040987
20130.0 0.00040162
20150.0 0.00039357
20170.0 0.00038543
20190.0 0.00037733
20210.0 0.00036964
20230.0 0.00036212
20250.0 0.00035462
20270.0 0.00034747
20290.0 0.00034071
20310.0 0.00033409
20330.0 0.00032763
20350.0 0.00032176
20370.0 0.00031615
20390.0 0.00031076
20410.0 0.00030576
20430.0 0.00030117
20450.0 0.00029676
20470.0 0.00029269
20490.0 0.000289
20510.0 0.00028557
20530.0 0.00028238
20550.0 0.00027949
20570.0 0.00027686
20590.0 0.00027441
20610.0 0.00027215
20630.0 0.00027006
20650.0 0.0002681
20670.0 0.00026626
20690.0 0.0002645
20710.0 0.00026279
20730.0 0.00026112
20750.0 0.00025946
20770.0 0.00025777
20790.0 0.00025605
20810.0 0.00025427
20830.0 0.00025242
20850.0 0.0002505
20870.0 0.00024847
20890.0 0.00024633
20910.0 0.00024412
20930.0 0.00024179
20950.0 0.00023934
20970.0 0.00023682
20990.0 0.00023423
21010.0 0.00023151
21030.0 0.00022873
21050.0 0.00022592
21070.0 0.00022305
21090.0 0.00022008
21110.0 0.00021716
21130.0 0.00021423
21150.0 0.00021125
21170.0 0.00020829
21190.0 0.00020539
21210.0 0.00020246
21230.0 0.00019953
21250.0 0.00019669
21270.0 0.0001939
21290.0 0.00019111
21310.0 0.00018839
21330.0 0.00018579
21350.0 0.0001832
21370.0 0.00018067
21390.0 0.00017825
21410.0 0.00017591
21430.0 0.0001736
21450.0 0.00017141
21470.0 0.00016934
21490.0 0.00016733
21510.0 0.0001654
21530.0 0.0001636
21550.0 0.00016187
21570.0 0.00016021
21590.0 0.00015864
21610.0 0.00015716
21630.0 0.00015573
21650.0 0.00015435
21670.0 0.00015305
21690.0 0.00015178
21710.0 0.00015055
21730.0 0.00014935
21750.0 0.00014817
21770.0 0.00014701
21790.0 0.00014586
21810.0 0.00014473
21830.0 0.00014359
21850.0 0.00014246
21870.0 0.00014133
21890.0 0.00014021
21910.0 0.00013908
21930.0 0.00013794
21950.0 0.00013681
21970.0 0.00013567
21990.0 0.00013451
22010.0 0.00013336
22030.0 0.00013219
22050.0 0.000131
22070.0 0.0001298
22090.0 0.00012859
22110.0 0.00012736
22130.0 0.00012609
22150.0 0.00012481
22170.0 0.00012351
22190.0 0.00012216
22210.0 0.00012079
22230.0 0.00011942
22250.0 0.000118
22270.0 0.00011655
22290.0 0.0001151
22310.0 0.00011363
22330.0 0.00011211
22350.0 0.00011057
22370.0 0.00010905
22390.0 0.00010748
22410.0 0.00010588
22430.0 0.00010431
22450.0 0.00010273
22470.0 0.00010111
22490.0 9.9496e-05
22510.0 9.7915e-05
22530.0 9.6296e-05
22550.0 9.4665e-05
22570.0 9.3088e-05
22590.0 9.1526e-05
22610.0 8.9951e-05
22630.0 8.8415e-05
22650.0 8.6949e-05
22670.0 8.5483e-05
22690.0 8.4048e-05
22710.0 8.2687e-05
22730.0 8.1374e-05
22750.0 8.0068e-05
22770.0 7.8847e-05
22790.0 7.7699e-05
22810.0 7.6586e-05
22830.0 7.5522e-05
22850.0 7.4537e-05
22870.0 7.3595e-05
22890.0 7.2687e-05
22910.0 7.1838e-05
22930.0 7.1042e-05
22950.0 7.0273e-05
22970.0 6.9533e-05
22990.0 6.8847e-05
23010.0 6.8183e-05
23030.0 6.7536e-05
23050.0 6.6918e-05
23070.0 6.6324e-05
23090.0 6.5732e-05
23110.0 6.5158e-05
23130.0 6.4603e-05
23150.0 6.4055e-05
