#lamb flux
1010.0 7.4616e-07
1030.0 8.1171e-07
1050.0 8.8908e-07
1070.0 9.7618e-07
1090.0 1.0746e-06
1110.0 1.1756e-06
1130.0 1.2773e-06
1150.0 1.3839e-06
1170.0 1.4939e-06
1190.0 1.5981e-06
1210.0 1.7034e-06
1230.0 1.812e-06
1250.0 1.9182e-06
1270.0 2.0209e-06
1290.0 2.1289e-06
1310.0 2.2364e-06
1330.0 2.3388e-06
1350.0 2.442e-06
1370.0 2.5482e-06
1390.0 2.6514e-06
1410.0 2.7512e-06
1430.0 2.8556e-06
1450.0 2.96e-06
1470.0 3.061e-06
1490.0 3.1633e-06
1510.0 3.2719e-06
1530.0 3.3751e-06
1550.0 3.4773e-06
1570.0 3.5837e-06
1590.0 3.6908e-06
1610.0 3.7938e-06
1630.0 3.9008e-06
1650.0 4.0112e-06
1670.0 4.1187e-06
1690.0 4.2255e-06
1710.0 4.3368e-06
1730.0 4.4491e-06
1750.0 4.5551e-06
1770.0 4.6644e-06
1790.0 4.7756e-06
1810.0 4.8832e-06
1830.0 4.9884e-06
1850.0 5.0991e-06
1870.0 5.2059e-06
1890.0 5.3078e-06
1910.0 5.4102e-06
1930.0 5.5133e-06
1950.0 5.6094e-06
1970.0 5.7019e-06
1990.0 5.7958e-06
2010.0 5.8853e-06
2030.0 5.9685e-06
2050.0 6.052e-06
2070.0 6.1355e-06
2090.0 6.2103e-06
2110.0 6.2824e-06
2130.0 6.3551e-06
2150.0 6.4238e-06
2170.0 6.4863e-06
2190.0 6.5506e-06
2210.0 6.6141e-06
2230.0 6.6725e-06
2250.0 6.7294e-06
2270.0 6.7897e-06
2290.0 6.8463e-06
2310.0 6.8986e-06
2330.0 6.9536e-06
2350.0 7.0093e-06
2370.0 7.0614e-06
2390.0 7.115e-06
2410.0 7.1743e-06
2430.0 7.2325e-06
2450.0 7.2912e-06
2470.0 7.3565e-06
2490.0 7.4293e-06
2510.0 7.5067e-06
2530.0 7.6089e-06
2550.0 7.7659e-06
2570.0 8.0088e-06
2590.0 8.3792e-06
2610.0 8.9834e-06
2630.0 9.856e-06
2650.0 1.0961e-05
2670.0 1.2318e-05
2690.0 1.3884e-05
2710.0 1.5435e-05
2730.0 1.6841e-05
2750.0 1.8069e-05
2770.0 1.8939e-05
2790.0 1.9404e-05
2810.0 1.9505e-05
2830.0 1.9249e-05
2850.0 1.874e-05
2870.0 1.8061e-05
2890.0 1.7239e-05
2910.0 1.6351e-05
2930.0 1.5472e-05
2950.0 1.4549e-05
2970.0 1.3603e-05
2990.0 1.2694e-05
3010.0 1.717e-05
3030.0 1.5829e-05
3050.0 1.4503e-05
3070.0 1.3285e-05
3090.0 1.2065e-05
3110.0 1.0901e-05
3130.0 9.8975e-06
3150.0 9.2205e-06
3170.0 8.6802e-06
3190.0 1.4327e-05
3210.0 4.0324e-05
3230.0 8.2437e-05
3250.0 0.0001046
3270.0 9.2369e-05
3290.0 7.09e-05
3310.0 5.8674e-05
3330.0 5.4975e-05
3350.0 5.6451e-05
3370.0 5.9446e-05
3390.0 6.2631e-05
3410.0 6.5848e-05
3430.0 6.8859e-05
3450.0 7.2123e-05
3470.0 7.5673e-05
3490.0 7.8092e-05
3510.0 7.5605e-05
3530.0 7.7225e-05
3550.0 9.6854e-05
3570.0 0.00012163
3590.0 0.00013431
3610.0 0.00013851
3630.0 0.00014194
3650.0 0.00014175
3670.0 0.00015026
3690.0 0.00017981
3710.0 0.00021307
3730.0 0.00023482
3750.0 0.00025027
3770.0 0.00025333
3790.0 0.00024353
3810.0 0.00022511
3830.0 0.00019681
3850.0 0.00016685
3870.0 0.00015138
3890.0 0.00016934
3910.0 0.0002142
3930.0 0.00025907
3950.0 0.00028573
3970.0 0.00029701
3990.0 0.0003094
4010.0 0.00031656
4030.0 0.00028561
4050.0 0.00022539
4070.0 0.00019451
4090.0 0.00020502
4110.0 0.00022571
4130.0 0.00023733
4150.0 0.0002386
4170.0 0.00023316
4190.0 0.00022919
4210.0 0.000235
4230.0 0.00024871
4250.0 0.00025985
4270.0 0.000264
4290.0 0.00026036
4310.0 0.00026204
4330.0 0.00027794
4350.0 0.00029676
4370.0 0.00029538
4390.0 0.00027396
4410.0 0.0002418
4430.0 0.00020243
4450.0 0.00017464
4470.0 0.00017373
4490.0 0.00018977
4510.0 0.00021027
4530.0 0.00023245
4550.0 0.00026717
4570.0 0.00033388
4590.0 0.00042898
4610.0 0.0005067
4630.0 0.00054589
4650.0 0.00057813
4670.0 0.00060945
4690.0 0.00059608
4710.0 0.00051983
4730.0 0.00041899
4750.0 0.00033774
4770.0 0.00028872
4790.0 0.00027065
4810.0 0.00027059
4830.0 0.00028952
4850.0 0.00032734
4870.0 0.00036122
4890.0 0.00037226
4910.0 0.00038101
4930.0 0.00041678
4950.0 0.00046502
4970.0 0.00048991
4990.0 0.00047637
5010.0 0.00042667
5030.0 0.00035733
5050.0 0.00029866
5070.0 0.00026277
5090.0 0.00024805
5110.0 0.00024805
5130.0 0.00025044
5150.0 0.00024822
5170.0 0.00024274
5190.0 0.00024542
5210.0 0.00026457
5230.0 0.00029991
5250.0 0.00035264
5270.0 0.0004084
5290.0 0.00044796
5310.0 0.00048083
5330.0 0.00052209
5350.0 0.0005543
5370.0 0.00055244
5390.0 0.00052705
5410.0 0.00050925
5430.0 0.0005299
5450.0 0.0005978
5470.0 0.00068184
5490.0 0.00074294
5510.0 0.00076659
5530.0 0.00076326
5550.0 0.00074491
5570.0 0.00072076
5590.0 0.00069812
5610.0 0.00068307
5630.0 0.00067982
5650.0 0.00067183
5670.0 0.00063581
5690.0 0.00058072
5710.0 0.00053097
5730.0 0.00049614
5750.0 0.00048668
5770.0 0.00050183
5790.0 0.00051937
5810.0 0.00052838
5830.0 0.00053293
5850.0 0.00052743
5870.0 0.00051553
5890.0 0.0005161
5910.0 0.00052798
5930.0 0.00052508
5950.0 0.00049451
5970.0 0.00044164
5990.0 0.00037988
6010.0 0.0003329
6030.0 0.00031884
6050.0 0.0003362
6070.0 0.00035238
6090.0 0.00034055
6110.0 0.0003213
6130.0 0.00032783
6150.0 0.0003555
6170.0 0.00038091
6190.0 0.00039545
6210.0 0.00039996
6230.0 0.00038905
6250.0 0.00035448
6270.0 0.0003051
6290.0 0.00026448
6310.0 0.00025009
6330.0 0.00025769
6350.0 0.00027092
6370.0 0.00028793
6390.0 0.00032434
6410.0 0.00037905
6430.0 0.00042456
6450.0 0.00044725
6470.0 0.00045981
6490.0 0.00046901
6510.0 0.00047281
6530.0 0.00047534
6550.0 0.00048174
6570.0 0.00048976
6590.0 0.00049521
6610.0 0.0004893
6630.0 0.00046735
6650.0 0.00043414
6670.0 0.00040249
6690.0 0.0003821
6710.0 0.00036667
6730.0 0.00035033
6750.0 0.0003425
6770.0 0.00035036
6790.0 0.00036162
6810.0 0.0003651
6830.0 0.0003593
6850.0 0.00034524
6870.0 0.00033092
6890.0 0.00032287
6910.0 0.00032376
6930.0 0.00032925
6950.0 0.0003336
6970.0 0.0003374
6990.0 0.00033634
7010.0 0.00032568
7030.0 0.00030357
7050.0 0.00027477
7070.0 0.00025461
7090.0 0.00025195
7110.0 0.00025607
7130.0 0.00024729
7150.0 0.00022965
7170.0 0.0002274
7190.0 0.00024771
7210.0 0.00027617
7230.0 0.00029925
7250.0 0.00030868
7270.0 0.00030198
7290.0 0.00028644
7310.0 0.00027455
7330.0 0.00027499
7350.0 0.00028162
7370.0 0.00028699
7390.0 0.00029934
7410.0 0.00032407
7430.0 0.00035239
7450.0 0.00037437
7470.0 0.00038075
7490.0 0.00036252
7510.0 0.00033569
7530.0 0.00031962
7550.0 0.00030157
7570.0 0.00028282
7590.0 0.00027287
7610.0 0.00027167
7630.0 0.00027961
7650.0 0.00029744
7670.0 0.00032042
7690.0 0.00034094
7710.0 0.00035509
7730.0 0.00036657
7750.0 0.0003756
7770.0 0.00037862
7790.0 0.00038227
7810.0 0.00038079
7830.0 0.00036712
7850.0 0.00035232
7870.0 0.00034328
7890.0 0.00034155
7910.0 0.00034038
7930.0 0.00033103
7950.0 0.00031859
7970.0 0.00030576
7990.0 0.00029462
8010.0 0.00027953
8030.0 0.00027878
8050.0 0.00027711
8070.0 0.00027225
8090.0 0.00026844
8110.0 0.00026318
8130.0 0.00026227
8150.0 0.00025923
8170.0 0.00025361
8190.0 0.00024549
8210.0 0.00023646
8230.0 0.00022796
8250.0 0.00022439
8270.0 0.0002106
8290.0 0.00018215
8310.0 0.00015073
8330.0 0.00012931
8350.0 0.0001236
8370.0 0.00013642
8390.0 0.00015521
8410.0 0.00016503
8430.0 0.00017063
8450.0 0.00018166
8470.0 0.00019536
8490.0 0.00021412
8510.0 0.00023586
8530.0 0.00025842
8550.0 0.00027603
8570.0 0.00028873
8590.0 0.00029792
8610.0 0.00030269
8630.0 0.00030071
8650.0 0.00029461
8670.0 0.00029406
8690.0 0.0003081
8710.0 0.00032739
8730.0 0.00033601
8750.0 0.00033254
8770.0 0.00033488
8790.0 0.00033394
8810.0 0.00031832
8830.0 0.00029449
8850.0 0.00026502
8870.0 0.00024254
8890.0 0.00023519
8910.0 0.00023045
8930.0 0.00021514
8950.0 0.00019858
8970.0 0.0001915
8990.0 0.00019153
9010.0 0.00018791
9030.0 0.00018457
9050.0 0.00018286
9070.0 0.00018195
9090.0 0.00018115
9110.0 0.00018038
9130.0 0.00017961
9150.0 0.00017885
9170.0 0.00017808
9190.0 0.00017743
9210.0 0.00017705
9230.0 0.00017616
9250.0 0.00017536
9270.0 0.0001746
9290.0 0.00017389
9310.0 0.00017319
9330.0 0.00017251
9350.0 0.00017186
9370.0 0.00017121
9390.0 0.00017056
9410.0 0.00016993
9430.0 0.00016928
9450.0 0.00016839
9470.0 0.0001676
9490.0 0.00016724
9510.0 0.00016676
9530.0 0.00016627
9550.0 0.00016573
9570.0 0.00016518
9590.0 0.00016464
9610.0 0.0001641
9630.0 0.00016355
9650.0 0.000163
9670.0 0.00016248
9690.0 0.00016194
9710.0 0.00016141
9730.0 0.00016089
9750.0 0.00016038
9770.0 0.00015985
9790.0 0.00015934
9810.0 0.00015883
9830.0 0.00015832
9850.0 0.0001578
9870.0 0.0001573
9890.0 0.0001568
9910.0 0.00015629
9930.0 0.00015577
9950.0 0.0001547
9970.0 0.00015435
9990.0 0.00015397
10010.0 0.00015358
10030.0 0.00015314
10050.0 0.00015265
10070.0 0.00015216
10090.0 0.00015167
10110.0 0.0001511
10130.0 0.00015039
10150.0 0.00014989
10170.0 0.0001494
10190.0 0.00014885
10210.0 0.00014832
10230.0 0.0001478
10250.0 0.00014721
10270.0 0.00014661
10290.0 0.00014605
10310.0 0.00014544
10330.0 0.00014478
10350.0 0.00014416
10370.0 0.00014354
10390.0 0.00014286
10410.0 0.00014218
10430.0 0.00014155
10450.0 0.00014085
10470.0 0.00014012
10490.0 0.00013942
10510.0 0.00013872
10530.0 0.00013792
10550.0 0.00013714
10570.0 0.0001364
10590.0 0.0001356
10610.0 0.00013477
10630.0 0.00013397
10650.0 0.00013315
10670.0 0.00013225
10690.0 0.00013137
10710.0 0.0001305
10730.0 0.00012958
10750.0 0.00012859
10770.0 0.00012768
10790.0 0.00012673
10810.0 0.00012571
10830.0 0.00012471
10850.0 0.00012373
10870.0 0.00012265
10890.0 0.00012155
10910.0 0.00012049
10930.0 0.00011939
10950.0 0.00011821
10970.0 0.00011705
10990.0 0.00011592
11010.0 0.00012416
11030.0 0.0001229
11050.0 0.00012169
11070.0 0.00012045
11090.0 0.00011914
11110.0 0.00011791
11130.0 0.00011671
11150.0 0.00011546
11170.0 0.00011422
11190.0 0.00011305
11210.0 0.00011186
11230.0 0.00011064
11250.0 0.00010949
11270.0 0.00010837
11290.0 0.00010722
11310.0 0.00010609
11330.0 0.00010505
11350.0 0.00010399
11370.0 0.00010292
11390.0 0.00010189
11410.0 0.00010086
11430.0 9.9743e-05
11450.0 9.8612e-05
11470.0 9.747e-05
11490.0 9.6243e-05
11510.0 9.4905e-05
11530.0 9.3552e-05
11550.0 9.2138e-05
11570.0 9.0596e-05
11590.0 8.9e-05
11610.0 8.7398e-05
11630.0 8.5689e-05
11650.0 8.3899e-05
11670.0 8.2161e-05
11690.0 8.0409e-05
11710.0 7.8594e-05
11730.0 7.68e-05
11750.0 7.5082e-05
11770.0 7.3314e-05
11790.0 7.1542e-05
11810.0 6.9842e-05
11830.0 6.8163e-05
11850.0 6.6423e-05
11870.0 6.4754e-05
11890.0 6.3159e-05
11910.0 6.1545e-05
11930.0 5.9947e-05
11950.0 5.8442e-05
11970.0 5.6965e-05
11990.0 5.5483e-05
12010.0 5.4091e-05
12030.0 5.2784e-05
12050.0 5.1509e-05
12070.0 5.0287e-05
12090.0 4.9203e-05
12110.0 4.8185e-05
12130.0 4.7233e-05
12150.0 4.6391e-05
12170.0 4.5661e-05
12190.0 4.5001e-05
12210.0 4.4457e-05
12230.0 4.4031e-05
12250.0 4.3706e-05
12270.0 4.3489e-05
12290.0 4.3379e-05
12310.0 4.3357e-05
12330.0 4.3435e-05
12350.0 4.3599e-05
12370.0 4.3818e-05
12390.0 4.4101e-05
12410.0 4.4465e-05
12430.0 4.4833e-05
12450.0 4.5216e-05
12470.0 4.5634e-05
12490.0 4.6052e-05
12510.0 4.6431e-05
12530.0 4.6811e-05
12550.0 4.7179e-05
12570.0 4.7487e-05
12590.0 4.7744e-05
12610.0 4.7966e-05
12630.0 4.8119e-05
12650.0 4.8178e-05
12670.0 4.817e-05
12690.0 4.8081e-05
12710.0 4.7898e-05
12730.0 4.7629e-05
12750.0 4.727e-05
12770.0 4.6823e-05
12790.0 4.6303e-05
12810.0 4.5707e-05
12830.0 4.5037e-05
12850.0 4.4333e-05
12870.0 4.3595e-05
12890.0 4.281e-05
12910.0 4.2016e-05
12930.0 4.1233e-05
12950.0 4.0433e-05
12970.0 3.9633e-05
12990.0 3.8876e-05
13010.0 3.8137e-05
13030.0 3.7404e-05
13050.0 3.6704e-05
13070.0 3.6045e-05
13090.0 3.5391e-05
13110.0 3.4756e-05
13130.0 3.4158e-05
13150.0 3.3581e-05
13170.0 3.3005e-05
13190.0 3.2463e-05
13210.0 3.1952e-05
13230.0 3.1449e-05
13250.0 3.0964e-05
13270.0 3.051e-05
13290.0 3.0071e-05
13310.0 2.964e-05
13330.0 2.9235e-05
13350.0 2.8854e-05
13370.0 2.8482e-05
13390.0 2.8125e-05
13410.0 2.7797e-05
13430.0 2.7481e-05
13450.0 2.7175e-05
13470.0 2.6888e-05
13490.0 2.6616e-05
13510.0 2.6346e-05
13530.0 2.6086e-05
13550.0 2.5838e-05
13570.0 2.5593e-05
13590.0 2.5346e-05
13610.0 2.5106e-05
13630.0 2.487e-05
13650.0 2.4627e-05
13670.0 2.4385e-05
13690.0 2.4148e-05
13710.0 2.3909e-05
13730.0 2.3664e-05
13750.0 2.3429e-05
13770.0 2.3199e-05
13790.0 2.2969e-05
13810.0 2.2744e-05
13830.0 2.2532e-05
13850.0 2.2322e-05
13870.0 2.2116e-05
13890.0 2.1922e-05
13910.0 2.1736e-05
13930.0 2.1551e-05
13950.0 2.1373e-05
13970.0 2.1206e-05
13990.0 2.1039e-05
14010.0 2.0872e-05
14030.0 2.0709e-05
14050.0 2.0547e-05
14070.0 2.0376e-05
14090.0 2.0205e-05
14110.0 2.0035e-05
14130.0 1.9858e-05
14150.0 1.9675e-05
14170.0 1.9498e-05
14190.0 1.9322e-05
14210.0 1.9142e-05
14230.0 1.897e-05
14250.0 1.8809e-05
14270.0 1.8651e-05
14290.0 1.8503e-05
14310.0 1.8374e-05
14330.0 1.8258e-05
14350.0 1.8155e-05
14370.0 1.8068e-05
14390.0 1.7997e-05
14410.0 1.7937e-05
14430.0 1.7888e-05
14450.0 1.785e-05
14470.0 1.782e-05
14490.0 1.7794e-05
14510.0 1.7774e-05
14530.0 1.7758e-05
14550.0 1.7744e-05
14570.0 1.7732e-05
14590.0 1.7726e-05
14610.0 1.7725e-05
14630.0 1.7731e-05
14650.0 1.7749e-05
14670.0 1.7783e-05
14690.0 1.7835e-05
14710.0 1.7913e-05
14730.0 1.8015e-05
14750.0 1.815e-05
14770.0 1.8325e-05
14790.0 1.8537e-05
14810.0 1.8785e-05
14830.0 1.9095e-05
14850.0 1.9452e-05
14870.0 1.9842e-05
14890.0 2.028e-05
14910.0 2.0763e-05
14930.0 2.125e-05
14950.0 2.1726e-05
14970.0 2.2199e-05
14990.0 2.2624e-05
15010.0 2.2981e-05
15030.0 2.3283e-05
15050.0 2.3527e-05
15070.0 2.3709e-05
15090.0 2.3852e-05
15110.0 2.3971e-05
15130.0 2.4073e-05
15150.0 2.4166e-05
15170.0 2.4256e-05
15190.0 2.4346e-05
15210.0 2.4436e-05
15230.0 2.4529e-05
15250.0 2.4622e-05
15270.0 2.4718e-05
15290.0 2.4816e-05
15310.0 2.4915e-05
15330.0 2.5016e-05
15350.0 2.512e-05
15370.0 2.5224e-05
15390.0 2.5331e-05
15410.0 2.5439e-05
15430.0 2.5549e-05
15450.0 2.5661e-05
15470.0 2.5774e-05
15490.0 2.5889e-05
15510.0 2.6006e-05
15530.0 2.6124e-05
15550.0 2.6243e-05
15570.0 2.6364e-05
15590.0 2.6487e-05
15610.0 2.6611e-05
15630.0 2.6736e-05
15650.0 2.6863e-05
15670.0 2.6991e-05
15690.0 2.712e-05
15710.0 2.7251e-05
15730.0 2.7383e-05
15750.0 2.7516e-05
15770.0 2.765e-05
15790.0 2.7785e-05
15810.0 2.7921e-05
15830.0 2.8059e-05
15850.0 2.8197e-05
15870.0 2.8337e-05
15890.0 2.8477e-05
15910.0 2.8618e-05
15930.0 2.876e-05
15950.0 2.8903e-05
15970.0 2.9046e-05
15990.0 2.919e-05
16010.0 2.9335e-05
16030.0 2.948e-05
16050.0 2.9626e-05
16070.0 2.9773e-05
16090.0 2.992e-05
16110.0 3.0067e-05
16130.0 3.0215e-05
16150.0 3.0363e-05
16170.0 3.0511e-05
16190.0 3.0659e-05
16210.0 3.0808e-05
16230.0 3.0956e-05
16250.0 3.1105e-05
16270.0 3.1254e-05
16290.0 3.1403e-05
16310.0 3.1551e-05
16330.0 3.1699e-05
16350.0 3.1847e-05
16370.0 3.1995e-05
16390.0 3.2143e-05
16410.0 3.229e-05
16430.0 3.2436e-05
16450.0 3.2582e-05
16470.0 3.2728e-05
16490.0 3.2873e-05
16510.0 3.3017e-05
16530.0 3.316e-05
16550.0 3.3303e-05
16570.0 3.3445e-05
16590.0 3.3585e-05
16610.0 3.3725e-05
16630.0 3.3864e-05
16650.0 3.4002e-05
16670.0 3.4138e-05
16690.0 3.4274e-05
16710.0 3.4408e-05
16730.0 3.454e-05
16750.0 3.4672e-05
16770.0 3.4802e-05
16790.0 3.493e-05
16810.0 3.5057e-05
16830.0 3.5182e-05
16850.0 3.5306e-05
16870.0 3.5427e-05
16890.0 3.5548e-05
16910.0 3.5666e-05
16930.0 3.5782e-05
16950.0 3.5896e-05
16970.0 3.6009e-05
16990.0 3.6119e-05
17010.0 3.6227e-05
17030.0 3.6333e-05
17050.0 3.6437e-05
17070.0 3.6539e-05
17090.0 3.6638e-05
17110.0 3.6735e-05
17130.0 3.683e-05
17150.0 3.6922e-05
17170.0 3.7012e-05
17190.0 3.7099e-05
17210.0 3.7184e-05
17230.0 3.7266e-05
17250.0 3.7345e-05
17270.0 3.7422e-05
17290.0 3.7496e-05
17310.0 3.7567e-05
17330.0 3.7636e-05
17350.0 3.7701e-05
17370.0 3.7764e-05
17390.0 3.7824e-05
17410.0 3.7881e-05
17430.0 3.7935e-05
17450.0 3.7986e-05
17470.0 3.8034e-05
17490.0 3.8079e-05
17510.0 3.8122e-05
17530.0 3.8161e-05
17550.0 3.8196e-05
17570.0 3.8229e-05
17590.0 3.8259e-05
17610.0 3.8286e-05
17630.0 3.8309e-05
17650.0 3.8329e-05
17670.0 3.8346e-05
17690.0 3.836e-05
17710.0 3.8371e-05
17730.0 3.8379e-05
17750.0 3.8383e-05
17770.0 3.8384e-05
17790.0 3.8382e-05
17810.0 3.8377e-05
17830.0 3.8368e-05
17850.0 3.8356e-05
17870.0 3.8342e-05
17890.0 3.8323e-05
17910.0 3.8302e-05
17930.0 3.8278e-05
17950.0 3.825e-05
17970.0 3.8219e-05
17990.0 3.8185e-05
18010.0 3.8148e-05
18030.0 3.8108e-05
18050.0 3.8065e-05
18070.0 3.8018e-05
18090.0 3.7969e-05
18110.0 3.7916e-05
18130.0 3.7861e-05
18150.0 3.7802e-05
18170.0 3.7741e-05
18190.0 3.7676e-05
18210.0 3.7609e-05
18230.0 3.7539e-05
18250.0 3.7465e-05
18270.0 3.739e-05
18290.0 3.7311e-05
18310.0 3.7229e-05
18330.0 3.7145e-05
18350.0 3.7058e-05
18370.0 3.6968e-05
18390.0 3.6876e-05
18410.0 3.6781e-05
18430.0 3.6683e-05
18450.0 3.6583e-05
18470.0 3.648e-05
18490.0 3.6376e-05
18510.0 3.6268e-05
18530.0 3.6158e-05
18550.0 3.6046e-05
18570.0 3.5932e-05
18590.0 3.5815e-05
18610.0 3.5696e-05
18630.0 3.5575e-05
18650.0 3.5452e-05
18670.0 3.5326e-05
18690.0 3.5199e-05
18710.0 3.507e-05
18730.0 3.4939e-05
18750.0 3.4806e-05
18770.0 3.4671e-05
18790.0 3.4534e-05
18810.0 3.4395e-05
18830.0 3.4255e-05
18850.0 3.4113e-05
18870.0 3.397e-05
18890.0 3.3825e-05
18910.0 3.3678e-05
18930.0 3.353e-05
18950.0 3.3381e-05
18970.0 3.323e-05
18990.0 3.3078e-05
19010.0 3.2924e-05
19030.0 3.2769e-05
19050.0 3.2614e-05
19070.0 3.2456e-05
19090.0 3.2298e-05
19110.0 3.2139e-05
19130.0 3.1979e-05
19150.0 3.1818e-05
19170.0 3.1656e-05
19190.0 3.1493e-05
19210.0 3.1329e-05
19230.0 3.1164e-05
19250.0 3.0999e-05
19270.0 3.0833e-05
19290.0 3.0666e-05
19310.0 3.0499e-05
19330.0 3.0331e-05
19350.0 3.0162e-05
19370.0 2.9994e-05
19390.0 2.9824e-05
19410.0 2.9655e-05
19430.0 2.9484e-05
19450.0 2.9314e-05
19470.0 2.9144e-05
19490.0 2.8973e-05
19510.0 2.8801e-05
19530.0 2.863e-05
19550.0 2.8459e-05
19570.0 2.8287e-05
19590.0 2.8116e-05
19610.0 2.7944e-05
19630.0 2.7772e-05
19650.0 2.7601e-05
19670.0 2.7429e-05
19690.0 2.7258e-05
19710.0 2.7087e-05
19730.0 2.6916e-05
19750.0 2.6745e-05
19770.0 2.6574e-05
19790.0 2.6404e-05
19810.0 2.6233e-05
19830.0 2.6063e-05
19850.0 2.5892e-05
19870.0 2.5718e-05
19890.0 2.5541e-05
19910.0 2.5353e-05
19930.0 2.5152e-05
19950.0 2.4929e-05
19970.0 2.4673e-05
19990.0 2.4378e-05
20010.0 2.4048e-05
20030.0 2.367e-05
20050.0 2.3247e-05
20070.0 2.2801e-05
20090.0 2.2335e-05
20110.0 2.1835e-05
20130.0 2.134e-05
20150.0 2.0858e-05
20170.0 2.0373e-05
20190.0 1.9893e-05
20210.0 1.944e-05
20230.0 1.9001e-05
20250.0 1.8566e-05
20270.0 1.8156e-05
20290.0 1.7771e-05
20310.0 1.7399e-05
20330.0 1.7039e-05
20350.0 1.6716e-05
20370.0 1.6411e-05
20390.0 1.612e-05
20410.0 1.5853e-05
20430.0 1.5611e-05
20450.0 1.538e-05
20470.0 1.5168e-05
20490.0 1.4977e-05
20510.0 1.4801e-05
20530.0 1.4637e-05
20550.0 1.4489e-05
20570.0 1.4353e-05
20590.0 1.4226e-05
20610.0 1.4108e-05
20630.0 1.3999e-05
20650.0 1.3894e-05
20670.0 1.3794e-05
20690.0 1.3698e-05
20710.0 1.3603e-05
20730.0 1.3508e-05
20750.0 1.3413e-05
20770.0 1.3316e-05
20790.0 1.3216e-05
20810.0 1.3112e-05
20830.0 1.3005e-05
20850.0 1.2893e-05
20870.0 1.2776e-05
20890.0 1.2654e-05
20910.0 1.2529e-05
20930.0 1.2398e-05
20950.0 1.2262e-05
20970.0 1.2125e-05
20990.0 1.1985e-05
21010.0 1.1839e-05
21030.0 1.1693e-05
21050.0 1.1547e-05
21070.0 1.14e-05
21090.0 1.1249e-05
21110.0 1.1103e-05
21130.0 1.0959e-05
21150.0 1.0814e-05
21170.0 1.0671e-05
21190.0 1.0533e-05
21210.0 1.0395e-05
21230.0 1.0259e-05
21250.0 1.0128e-05
21270.0 1.0001e-05
21290.0 9.876e-06
21310.0 9.7549e-06
21330.0 9.6401e-06
21350.0 9.5273e-06
21370.0 9.418e-06
21390.0 9.3144e-06
21410.0 9.2152e-06
21430.0 9.1182e-06
21450.0 9.027e-06
21470.0 8.941e-06
21490.0 8.8584e-06
21510.0 8.7798e-06
21530.0 8.706e-06
21550.0 8.6357e-06
21570.0 8.5685e-06
21590.0 8.5049e-06
21610.0 8.4445e-06
21630.0 8.3865e-06
21650.0 8.3309e-06
21670.0 8.2776e-06
21690.0 8.226e-06
21710.0 8.176e-06
21730.0 8.1273e-06
21750.0 8.0796e-06
21770.0 8.0331e-06
21790.0 7.9875e-06
21810.0 7.9425e-06
21830.0 7.8983e-06
21850.0 7.8549e-06
21870.0 7.8119e-06
21890.0 7.7693e-06
21910.0 7.7272e-06
21930.0 7.6855e-06
21950.0 7.6439e-06
21970.0 7.6025e-06
21990.0 7.561e-06
22010.0 7.5193e-06
22030.0 7.4773e-06
22050.0 7.4347e-06
22070.0 7.3914e-06
22090.0 7.3476e-06
22110.0 7.3028e-06
22130.0 7.257e-06
22150.0 7.2103e-06
22170.0 7.1627e-06
22190.0 7.1136e-06
22210.0 7.0634e-06
22230.0 7.0127e-06
22250.0 6.9606e-06
22270.0 6.9069e-06
22290.0 6.8525e-06
22310.0 6.7972e-06
22330.0 6.7392e-06
22350.0 6.68e-06
22370.0 6.6198e-06
22390.0 6.5571e-06
22410.0 6.4912e-06
22430.0 6.4246e-06
22450.0 6.356e-06
22470.0 6.2833e-06
22490.0 6.2085e-06
22510.0 6.1329e-06
22530.0 6.0528e-06
22550.0 5.9693e-06
22570.0 5.886e-06
22590.0 5.8011e-06
22610.0 5.7126e-06
22630.0 5.6238e-06
