#lamb flux
1010.0 1.2709e-06
1030.0 1.5339e-06
1050.0 1.7883e-06
1070.0 2.0123e-06
1090.0 2.1915e-06
1110.0 2.2652e-06
1130.0 2.2144e-06
1150.0 2.0218e-06
1170.0 1.6916e-06
1190.0 1.2513e-06
1210.0 1.3225e-06
1230.0 1.3965e-06
1250.0 1.4695e-06
1270.0 1.5406e-06
1290.0 1.615e-06
1310.0 1.6885e-06
1330.0 1.7578e-06
1350.0 1.8261e-06
1370.0 1.8946e-06
1390.0 1.959e-06
1410.0 2.0189e-06
1430.0 2.0792e-06
1450.0 2.1369e-06
1470.0 2.1901e-06
1490.0 2.2418e-06
1510.0 3.6098e-06
1530.0 5.5982e-06
1550.0 7.6882e-06
1570.0 9.7691e-06
1590.0 1.1896e-05
1610.0 1.4015e-05
1630.0 1.6127e-05
1650.0 1.8214e-05
1670.0 2.0226e-05
1690.0 2.2159e-05
1710.0 2.4038e-05
1730.0 2.5838e-05
1750.0 2.7511e-05
1770.0 2.9117e-05
1790.0 3.0656e-05
1810.0 3.2089e-05
1830.0 3.3432e-05
1850.0 3.475e-05
1870.0 3.5977e-05
1890.0 3.7113e-05
1910.0 3.8204e-05
1930.0 3.9257e-05
1950.0 4.0218e-05
1970.0 4.1119e-05
1990.0 4.2e-05
2010.0 4.2822e-05
2030.0 4.3571e-05
2050.0 4.4302e-05
2070.0 4.5015e-05
2090.0 4.5644e-05
2110.0 4.6235e-05
2130.0 4.6818e-05
2150.0 4.7356e-05
2170.0 4.7832e-05
2190.0 4.8313e-05
2210.0 4.8778e-05
2230.0 4.9193e-05
2250.0 4.9589e-05
2270.0 5.0008e-05
2290.0 5.0393e-05
2310.0 5.0741e-05
2330.0 5.111e-05
2350.0 5.1484e-05
2370.0 5.1828e-05
2390.0 5.2184e-05
2410.0 5.2583e-05
2430.0 5.298e-05
2450.0 5.3405e-05
2470.0 5.3939e-05
2490.0 5.4649e-05
2510.0 5.5554e-05
2530.0 5.6855e-05
2550.0 5.8792e-05
2570.0 6.1489e-05
2590.0 6.5108e-05
2610.0 7.0316e-05
2630.0 7.7166e-05
2650.0 8.5421e-05
2670.0 9.5449e-05
2690.0 0.00010735
2710.0 0.00012009
2730.0 0.00013319
2750.0 0.00014705
2770.0 0.00016049
2790.0 0.00017272
2810.0 0.000184
2830.0 0.00019432
2850.0 0.00020279
2870.0 0.0002101
2890.0 0.00021669
2910.0 0.00022266
2930.0 0.00022816
2950.0 0.00023363
2970.0 0.00023915
2990.0 0.00024461
3010.0 0.0002501
3030.0 0.00025573
3050.0 0.00026138
3070.0 0.00026681
3090.0 0.00027227
3110.0 0.00027782
3130.0 0.00028356
3150.0 0.00029197
3170.0 0.00030256
3190.0 0.00031702
3210.0 0.00033621
3230.0 0.00036126
3250.0 0.00038912
3270.0 0.00040737
3290.0 0.00044985
3310.0 0.000564
3330.0 0.00058836
3350.0 0.00059063
3370.0 0.00059145
3390.0 0.00059237
3410.0 0.00059407
3430.0 0.00059642
3450.0 0.00059892
3470.0 0.0006009
3490.0 0.00060366
3510.0 0.00061038
3530.0 0.0006051
3550.0 0.00058147
3570.0 0.00056267
3590.0 0.00056726
3610.0 0.00060124
3630.0 0.00058404
3650.0 0.00054535
3670.0 0.00050671
3690.0 0.00049575
3710.0 0.00051319
3730.0 0.00052822
3750.0 0.00053486
3770.0 0.00055319
3790.0 0.00057524
3810.0 0.00055934
3830.0 0.00052663
3850.0 0.00050572
3870.0 0.00050018
3890.0 0.00049157
3910.0 0.00048045
3930.0 0.00048261
3950.0 0.00050281
3970.0 0.00052681
3990.0 0.00054743
4010.0 0.00053429
4030.0 0.00051887
4050.0 0.00051599
4070.0 0.00051579
4090.0 0.0005155
4110.0 0.00050838
4130.0 0.00049208
4150.0 0.0004768
4170.0 0.00047384
4190.0 0.00045333
4210.0 0.00042631
4230.0 0.00039522
4250.0 0.00036563
4270.0 0.00034697
4290.0 0.00032971
4310.0 0.00032614
4330.0 0.00033711
4350.0 0.00034265
4370.0 0.00035762
4390.0 0.00037828
4410.0 0.0003972
4430.0 0.00039031
4450.0 0.00036684
4470.0 0.00034789
4490.0 0.0003384
4510.0 0.0003359
4530.0 0.0003385
4550.0 0.00034166
4570.0 0.00034728
4590.0 0.00035809
4610.0 0.0003792
4630.0 0.00039378
4650.0 0.00040486
4670.0 0.00039879
4690.0 0.0003802
4710.0 0.00035957
4730.0 0.00034794
4750.0 0.00034037
4770.0 0.00034748
4790.0 0.00034535
4810.0 0.00033738
4830.0 0.00034628
4850.0 0.00034902
4870.0 0.00035975
4890.0 0.00034414
4910.0 0.00032666
4930.0 0.00030327
4950.0 0.00027996
4970.0 0.00025704
4990.0 0.00023813
5010.0 0.00023552
5030.0 0.00024139
5050.0 0.00023794
5070.0 0.00024325
5090.0 0.00025342
5110.0 0.00025212
5130.0 0.00025043
5150.0 0.00024917
5170.0 0.00025046
5190.0 0.00025421
5210.0 0.00024792
5230.0 0.00024297
5250.0 0.00023782
5270.0 0.00023177
5290.0 0.00022905
5310.0 0.00022715
5330.0 0.00021894
5350.0 0.00021605
5370.0 0.00021029
5390.0 0.00020324
5410.0 0.00019947
5430.0 0.00019444
5450.0 0.00019889
5470.0 0.00020107
5490.0 0.00019773
5510.0 0.00020282
5530.0 0.00020409
5550.0 0.00020739
5570.0 0.00020523
5590.0 0.00019782
5610.0 0.00019602
5630.0 0.00019878
5650.0 0.00019631
5670.0 0.00019249
5690.0 0.00018629
5710.0 0.00018878
5730.0 0.00019096
5750.0 0.00018376
5770.0 0.0001762
5790.0 0.00016029
5810.0 0.00013873
5830.0 0.00015348
5850.0 0.0001766
5870.0 0.00018474
5890.0 0.00018845
5910.0 0.0001905
5930.0 0.00019377
5950.0 0.00019243
5970.0 0.00019296
5990.0 0.00019204
6010.0 0.00018976
6030.0 0.00018563
6050.0 0.00018611
6070.0 0.00019045
6090.0 0.00018959
6110.0 0.00018563
6130.0 0.00018327
6150.0 0.00017856
6170.0 0.00017332
6190.0 0.00017134
6210.0 0.00016757
6230.0 0.00016688
6250.0 0.00016607
6270.0 0.00016522
6290.0 0.00016524
6310.0 0.00016505
6330.0 0.00016343
6350.0 0.00016056
6370.0 0.00015897
6390.0 0.00015954
6410.0 0.0001562
6430.0 0.00015446
6450.0 0.0001521
6470.0 0.00014972
6490.0 0.00014843
6510.0 0.00014865
6530.0 0.0001455
6550.0 0.00014324
6570.0 0.00014276
6590.0 0.00014229
6610.0 0.00014188
6630.0 0.00013728
6650.0 0.00013449
6670.0 0.00013382
6690.0 0.00013209
6710.0 0.00012927
6730.0 0.00012838
6750.0 0.00012919
6770.0 0.00013793
6790.0 0.00015892
6810.0 0.00014851
6830.0 0.00012681
6850.0 0.000122
6870.0 0.00011935
6890.0 0.0001187
6910.0 0.00011816
6930.0 0.00011785
6950.0 0.00011578
6970.0 0.00011184
6990.0 0.00010973
7010.0 0.00011031
7030.0 0.00010899
7050.0 0.0001061
7070.0 0.00010546
7090.0 0.00010638
7110.0 0.00010802
7130.0 0.0001063
7150.0 0.00010492
7170.0 0.00010408
7190.0 0.00010508
7210.0 0.00010312
7230.0 0.00010133
7250.0 0.00010133
7270.0 0.00010052
7290.0 9.9931e-05
7310.0 0.00010138
7330.0 9.9303e-05
7350.0 9.5925e-05
7370.0 9.2032e-05
7390.0 8.9003e-05
7410.0 8.9942e-05
7430.0 8.9334e-05
7450.0 8.8572e-05
7470.0 8.7194e-05
7490.0 8.4955e-05
7510.0 8.3625e-05
7530.0 8.2573e-05
7550.0 8.736e-05
7570.0 8.6544e-05
7590.0 7.8794e-05
7610.0 7.5245e-05
7630.0 7.9566e-05
7650.0 7.9015e-05
7670.0 8.0766e-05
7690.0 8.5243e-05
7710.0 8.5811e-05
7730.0 8.3577e-05
7750.0 8.8739e-05
7770.0 8.2876e-05
7790.0 7.8832e-05
7810.0 8.4106e-05
7830.0 8.5101e-05
7850.0 8.8249e-05
7870.0 8.7368e-05
7890.0 8.8143e-05
7910.0 8.6479e-05
7930.0 8.7551e-05
7950.0 9.2115e-05
7970.0 9.0074e-05
7990.0 8.1672e-05
8010.0 8.3442e-05
8030.0 8.232e-05
8050.0 8.0817e-05
8070.0 7.8755e-05
8090.0 7.1328e-05
8110.0 7.1322e-05
8130.0 7.7669e-05
8150.0 8.109e-05
8170.0 8.23e-05
8190.0 8.4955e-05
8210.0 8.2948e-05
8230.0 8.2155e-05
8250.0 8.2036e-05
8270.0 8.0648e-05
8290.0 7.9035e-05
8310.0 7.5262e-05
8330.0 7.4971e-05
8350.0 7.6457e-05
8370.0 7.6994e-05
8390.0 7.62e-05
8410.0 7.5178e-05
8430.0 7.3545e-05
8450.0 7.3134e-05
8470.0 7.6607e-05
8490.0 7.7322e-05
8510.0 7.3788e-05
8530.0 7.1506e-05
8550.0 7.0977e-05
8570.0 6.838e-05
8590.0 6.7657e-05
8610.0 6.8828e-05
8630.0 6.9413e-05
8650.0 6.9063e-05
8670.0 6.8687e-05
8690.0 6.7717e-05
8710.0 6.4912e-05
8730.0 6.4359e-05
8750.0 6.3047e-05
8770.0 6.3217e-05
8790.0 6.3169e-05
8810.0 6.1144e-05
8830.0 6.1175e-05
8850.0 6.2183e-05
8870.0 5.9175e-05
8890.0 5.6418e-05
8910.0 5.4808e-05
8930.0 5.284e-05
8950.0 5.0933e-05
8970.0 4.882e-05
8990.0 4.7949e-05
9010.0 4.5967e-05
9030.0 4.54e-05
9050.0 4.5134e-05
9070.0 4.4882e-05
9090.0 4.4628e-05
9110.0 4.4366e-05
9130.0 4.4106e-05
9150.0 4.3849e-05
9170.0 4.3589e-05
9190.0 4.3328e-05
9210.0 4.3064e-05
9230.0 4.2798e-05
9250.0 4.2531e-05
9270.0 4.2264e-05
9290.0 4.1994e-05
9310.0 4.1733e-05
9330.0 4.1482e-05
9350.0 4.123e-05
9370.0 4.0978e-05
9390.0 4.0725e-05
9410.0 4.0472e-05
9430.0 4.0219e-05
9450.0 3.9966e-05
9470.0 3.9736e-05
9490.0 3.9494e-05
9510.0 3.9228e-05
9530.0 3.8965e-05
9550.0 3.8707e-05
9570.0 3.8453e-05
9590.0 3.8199e-05
9610.0 3.7957e-05
9630.0 3.7718e-05
9650.0 3.7479e-05
9670.0 3.724e-05
9690.0 3.7003e-05
9710.0 3.6767e-05
9730.0 3.6531e-05
9750.0 3.6297e-05
9770.0 3.6066e-05
9790.0 3.5834e-05
9810.0 3.5603e-05
9830.0 3.5374e-05
9850.0 3.5126e-05
9870.0 3.4872e-05
9890.0 3.4669e-05
9910.0 3.4459e-05
9930.0 3.4212e-05
9950.0 3.3993e-05
9970.0 3.3791e-05
9990.0 3.3585e-05
10010.0 3.3379e-05
10030.0 3.3172e-05
10050.0 3.2962e-05
10070.0 3.2755e-05
10090.0 3.255e-05
10110.0 3.2345e-05
10130.0 3.2142e-05
10150.0 3.1943e-05
10170.0 3.1745e-05
10190.0 3.1548e-05
10210.0 3.1354e-05
10230.0 3.1164e-05
10250.0 3.0974e-05
10270.0 3.0786e-05
10290.0 3.0602e-05
10310.0 3.0419e-05
10330.0 3.0237e-05
10350.0 3.0059e-05
10370.0 2.9883e-05
10390.0 2.9707e-05
10410.0 2.9516e-05
10430.0 2.9325e-05
10450.0 2.9177e-05
10470.0 2.9019e-05
10490.0 2.8863e-05
10510.0 2.8708e-05
10530.0 2.8548e-05
10550.0 2.8391e-05
10570.0 2.8239e-05
10590.0 2.8087e-05
10610.0 2.7935e-05
10630.0 2.7789e-05
10650.0 2.7644e-05
10670.0 2.7498e-05
10690.0 2.7355e-05
10710.0 2.7218e-05
10730.0 2.7079e-05
10750.0 2.694e-05
10770.0 2.6808e-05
10790.0 2.6678e-05
10810.0 2.6546e-05
10830.0 2.6418e-05
10850.0 2.6295e-05
10870.0 2.6168e-05
10890.0 2.6043e-05
10910.0 2.5923e-05
10930.0 2.5803e-05
10950.0 2.5679e-05
10970.0 2.5557e-05
10990.0 2.5436e-05
11010.0 2.5249e-05
11030.0 2.5121e-05
11050.0 2.5002e-05
11070.0 2.4882e-05
11090.0 2.4754e-05
11110.0 2.4633e-05
11130.0 2.4513e-05
11150.0 2.4387e-05
11170.0 2.4257e-05
11190.0 2.4133e-05
11210.0 2.4004e-05
11230.0 2.3869e-05
11250.0 2.374e-05
11270.0 2.3615e-05
11290.0 2.3487e-05
11310.0 2.3364e-05
11330.0 2.3255e-05
11350.0 2.3149e-05
11370.0 2.3047e-05
11390.0 2.2957e-05
11410.0 2.2876e-05
11430.0 2.2795e-05
11450.0 2.2721e-05
11470.0 2.2656e-05
11490.0 2.2591e-05
11510.0 2.2525e-05
11530.0 2.2464e-05
11550.0 2.2403e-05
11570.0 2.2336e-05
11590.0 2.2267e-05
11610.0 2.22e-05
11630.0 2.2124e-05
11650.0 2.2041e-05
11670.0 2.196e-05
11690.0 2.1875e-05
11710.0 2.1782e-05
11730.0 2.1687e-05
11750.0 2.1595e-05
11770.0 2.1497e-05
11790.0 2.1395e-05
11810.0 2.1298e-05
11830.0 2.1201e-05
11850.0 2.1098e-05
11870.0 2.1002e-05
11890.0 2.0913e-05
11910.0 2.0824e-05
11930.0 2.0738e-05
11950.0 2.0662e-05
11970.0 2.059e-05
11990.0 2.052e-05
12010.0 2.0459e-05
12030.0 2.0407e-05
12050.0 2.0358e-05
12070.0 2.0313e-05
12090.0 2.028e-05
12110.0 2.0251e-05
12130.0 2.0225e-05
12150.0 2.0205e-05
12170.0 2.019e-05
12190.0 2.0174e-05
12210.0 2.0159e-05
12230.0 2.0146e-05
12250.0 2.013e-05
12270.0 2.0109e-05
12290.0 2.0084e-05
12310.0 2.0055e-05
12330.0 2.0016e-05
12350.0 1.9967e-05
12370.0 1.9912e-05
12390.0 1.9846e-05
12410.0 1.9763e-05
12430.0 1.9676e-05
12450.0 1.958e-05
12470.0 1.9471e-05
12490.0 1.9352e-05
12510.0 1.9233e-05
12530.0 1.9102e-05
12550.0 1.8961e-05
12570.0 1.882e-05
12590.0 1.8678e-05
12610.0 1.8525e-05
12630.0 1.8371e-05
12650.0 1.8226e-05
12670.0 1.8077e-05
12690.0 1.7926e-05
12710.0 1.7784e-05
12730.0 1.7647e-05
12750.0 1.7505e-05
12770.0 1.7374e-05
12790.0 1.7253e-05
12810.0 1.7135e-05
12830.0 1.7021e-05
12850.0 1.6922e-05
12870.0 1.683e-05
12890.0 1.6743e-05
12910.0 1.6667e-05
12930.0 1.6601e-05
12950.0 1.6542e-05
12970.0 1.6491e-05
12990.0 1.6452e-05
13010.0 1.6422e-05
13030.0 1.64e-05
13050.0 1.6386e-05
13070.0 1.638e-05
13090.0 1.6378e-05
13110.0 1.6382e-05
13130.0 1.6388e-05
13150.0 1.6395e-05
13170.0 1.64e-05
13190.0 1.6401e-05
13210.0 1.6398e-05
13230.0 1.6386e-05
13250.0 1.6365e-05
13270.0 1.6336e-05
13290.0 1.6296e-05
13310.0 1.6242e-05
13330.0 1.6177e-05
13350.0 1.6104e-05
13370.0 1.6016e-05
13390.0 1.5916e-05
13410.0 1.5813e-05
13430.0 1.5699e-05
13450.0 1.5573e-05
13470.0 1.5443e-05
13490.0 1.531e-05
13510.0 1.5163e-05
13530.0 1.5011e-05
13550.0 1.4861e-05
13570.0 1.4705e-05
13590.0 1.4541e-05
13610.0 1.4378e-05
13630.0 1.4218e-05
13650.0 1.405e-05
13670.0 1.3881e-05
13690.0 1.3717e-05
13710.0 1.3551e-05
13730.0 1.3378e-05
13750.0 1.3216e-05
13770.0 1.3057e-05
13790.0 1.2897e-05
13810.0 1.2741e-05
13830.0 1.2595e-05
13850.0 1.2449e-05
13870.0 1.2305e-05
13890.0 1.217e-05
13910.0 1.2042e-05
13930.0 1.1913e-05
13950.0 1.1791e-05
13970.0 1.1678e-05
13990.0 1.1566e-05
14010.0 1.1457e-05
14030.0 1.1356e-05
14050.0 1.1259e-05
14070.0 1.1161e-05
14090.0 1.1069e-05
14110.0 1.0983e-05
14130.0 1.0899e-05
14150.0 1.0817e-05
14170.0 1.0741e-05
14190.0 1.0668e-05
14210.0 1.0596e-05
14230.0 1.0526e-05
14250.0 1.0461e-05
14270.0 1.0395e-05
14290.0 1.033e-05
14310.0 1.0269e-05
14330.0 1.0208e-05
14350.0 1.0146e-05
14370.0 1.0087e-05
14390.0 1.0029e-05
14410.0 9.9697e-06
14430.0 9.9108e-06
14450.0 9.8538e-06
14470.0 9.7969e-06
14490.0 9.7382e-06
14510.0 9.6812e-06
14530.0 9.6253e-06
14550.0 9.568e-06
14570.0 9.5102e-06
14590.0 9.454e-06
14610.0 9.3967e-06
14630.0 9.3375e-06
14650.0 9.2793e-06
14670.0 9.2214e-06
14690.0 9.1617e-06
14710.0 9.1009e-06
14730.0 9.0422e-06
14750.0 8.9821e-06
14770.0 8.9202e-06
14790.0 8.859e-06
14810.0 8.7982e-06
14830.0 8.7338e-06
14850.0 8.6695e-06
14870.0 8.6067e-06
14890.0 8.5429e-06
14910.0 8.4782e-06
14930.0 8.4162e-06
14950.0 8.3571e-06
14970.0 8.2989e-06
14990.0 8.2448e-06
15010.0 8.1959e-06
15030.0 8.1503e-06
15050.0 8.1072e-06
15070.0 8.069e-06
15090.0 8.0329e-06
15110.0 7.9977e-06
15130.0 7.9637e-06
15150.0 7.9312e-06
15170.0 7.8983e-06
15190.0 7.8653e-06
15210.0 7.8332e-06
15230.0 7.8013e-06
15250.0 7.7688e-06
15270.0 7.7366e-06
15290.0 7.7055e-06
15310.0 7.674e-06
15330.0 7.6423e-06
15350.0 7.6115e-06
15370.0 7.5809e-06
15390.0 7.5494e-06
15410.0 7.5187e-06
15430.0 7.4886e-06
15450.0 7.4583e-06
15470.0 7.4277e-06
15490.0 7.3982e-06
15510.0 7.3688e-06
15530.0 7.3389e-06
15550.0 7.3096e-06
15570.0 7.281e-06
15590.0 7.2518e-06
15610.0 7.2225e-06
15630.0 7.1943e-06
15650.0 7.1662e-06
15670.0 7.1377e-06
15690.0 7.1097e-06
15710.0 7.0826e-06
15730.0 7.0548e-06
15750.0 7.0272e-06
15770.0 7.0004e-06
15790.0 6.9737e-06
15810.0 6.9463e-06
15830.0 6.9198e-06
15850.0 6.894e-06
15870.0 6.8677e-06
15890.0 6.8416e-06
15910.0 6.8164e-06
15930.0 6.791e-06
15950.0 6.7652e-06
15970.0 6.7402e-06
15990.0 6.7156e-06
16010.0 6.6907e-06
16030.0 6.6657e-06
16050.0 6.642e-06
16070.0 6.618e-06
16090.0 6.5938e-06
16110.0 6.5703e-06
16130.0 6.5473e-06
16150.0 6.5234e-06
16170.0 6.5e-06
16190.0 6.4775e-06
16210.0 6.4548e-06
16230.0 6.4318e-06
16250.0 6.4096e-06
16270.0 6.3879e-06
16290.0 6.3655e-06
16310.0 6.3436e-06
16330.0 6.3223e-06
16350.0 6.3009e-06
16370.0 6.2788e-06
16390.0 6.258e-06
16410.0 6.2374e-06
16430.0 6.2163e-06
16450.0 6.1956e-06
16470.0 6.1757e-06
16490.0 6.1553e-06
16510.0 6.1347e-06
16530.0 6.115e-06
16550.0 6.0954e-06
16570.0 6.0753e-06
16590.0 6.0556e-06
16610.0 6.0368e-06
16630.0 6.0175e-06
16650.0 5.9982e-06
16670.0 5.9796e-06
16690.0 5.9612e-06
16710.0 5.9419e-06
16730.0 5.9233e-06
16750.0 5.9053e-06
16770.0 5.887e-06
16790.0 5.8684e-06
16810.0 5.8508e-06
16830.0 5.8333e-06
16850.0 5.8152e-06
16870.0 5.7976e-06
16890.0 5.7806e-06
16910.0 5.7629e-06
16930.0 5.7451e-06
16950.0 5.7283e-06
16970.0 5.7114e-06
16990.0 5.6941e-06
17010.0 5.6774e-06
17030.0 5.6612e-06
17050.0 5.6442e-06
17070.0 5.6274e-06
17090.0 5.6113e-06
17110.0 5.5951e-06
17130.0 5.5782e-06
17150.0 5.5621e-06
17170.0 5.5465e-06
17190.0 5.5303e-06
17210.0 5.5142e-06
17230.0 5.4989e-06
17250.0 5.4832e-06
17270.0 5.4669e-06
17290.0 5.4514e-06
17310.0 5.4362e-06
17330.0 5.4205e-06
17350.0 5.4047e-06
17370.0 5.3899e-06
17390.0 5.3747e-06
17410.0 5.3591e-06
17430.0 5.3442e-06
17450.0 5.3296e-06
17470.0 5.3139e-06
17490.0 5.2987e-06
17510.0 5.2842e-06
17530.0 5.2693e-06
17550.0 5.254e-06
17570.0 5.2395e-06
17590.0 5.2252e-06
17610.0 5.2101e-06
17630.0 5.1953e-06
17650.0 5.1811e-06
17670.0 5.1665e-06
17690.0 5.1511e-06
17710.0 5.137e-06
17730.0 5.1228e-06
17750.0 5.108e-06
17770.0 5.0935e-06
17790.0 5.0797e-06
17810.0 5.0651e-06
17830.0 5.0503e-06
17850.0 5.0362e-06
17870.0 5.0222e-06
17890.0 5.0074e-06
17910.0 4.9929e-06
17930.0 4.9792e-06
17950.0 4.9648e-06
17970.0 4.9503e-06
17990.0 4.9365e-06
18010.0 4.9225e-06
18030.0 4.9076e-06
18050.0 4.8934e-06
18070.0 4.8796e-06
18090.0 4.8652e-06
18110.0 4.8506e-06
18130.0 4.8369e-06
18150.0 4.823e-06
18170.0 4.8084e-06
18190.0 4.7942e-06
18210.0 4.7805e-06
18230.0 4.7659e-06
18250.0 4.7512e-06
18270.0 4.7374e-06
18290.0 4.7234e-06
18310.0 4.7088e-06
18330.0 4.6946e-06
18350.0 4.6809e-06
18370.0 4.6663e-06
18390.0 4.6518e-06
18410.0 4.6379e-06
18430.0 4.6237e-06
18450.0 4.6087e-06
18470.0 4.5945e-06
18490.0 4.5806e-06
18510.0 4.566e-06
18530.0 4.5514e-06
18550.0 4.5375e-06
18570.0 4.5231e-06
18590.0 4.5081e-06
18610.0 4.4937e-06
18630.0 4.4796e-06
18650.0 4.4647e-06
18670.0 4.4498e-06
18690.0 4.4358e-06
18710.0 4.4212e-06
18730.0 4.4063e-06
18750.0 4.3918e-06
18770.0 4.3776e-06
18790.0 4.3622e-06
18810.0 4.3472e-06
18830.0 4.3329e-06
18850.0 4.3181e-06
18870.0 4.3028e-06
18890.0 4.2883e-06
18910.0 4.2738e-06
18930.0 4.2584e-06
18950.0 4.2433e-06
18970.0 4.2288e-06
18990.0 4.2136e-06
19010.0 4.1977e-06
19030.0 4.1831e-06
19050.0 4.1682e-06
19070.0 4.1527e-06
19090.0 4.1375e-06
19110.0 4.1229e-06
19130.0 4.1072e-06
19150.0 4.0915e-06
19170.0 4.0764e-06
19190.0 4.0612e-06
19210.0 4.0452e-06
19230.0 4.0296e-06
19250.0 4.0147e-06
19270.0 3.9989e-06
19290.0 3.9831e-06
19310.0 3.9678e-06
19330.0 3.9524e-06
19350.0 3.9359e-06
19370.0 3.9201e-06
19390.0 3.9047e-06
19410.0 3.8887e-06
19430.0 3.8724e-06
19450.0 3.8569e-06
19470.0 3.8412e-06
19490.0 3.8247e-06
19510.0 3.8087e-06
19530.0 3.7931e-06
19550.0 3.7765e-06
19570.0 3.7598e-06
19590.0 3.7441e-06
19610.0 3.7279e-06
19630.0 3.7112e-06
19650.0 3.695e-06
19670.0 3.6791e-06
19690.0 3.6622e-06
19710.0 3.6455e-06
19730.0 3.6294e-06
19750.0 3.6129e-06
19770.0 3.5955e-06
19790.0 3.5791e-06
19810.0 3.5628e-06
19830.0 3.5459e-06
19850.0 3.529e-06
19870.0 3.5129e-06
19890.0 3.4964e-06
19910.0 3.4797e-06
19930.0 3.4644e-06
19950.0 3.4501e-06
19970.0 3.4365e-06
19990.0 3.4248e-06
20010.0 3.4157e-06
20030.0 3.4081e-06
20050.0 3.4023e-06
20070.0 3.3984e-06
20090.0 3.3957e-06
20110.0 3.3937e-06
20130.0 3.3923e-06
20150.0 3.3913e-06
20170.0 3.3901e-06
20190.0 3.3889e-06
20210.0 3.3876e-06
20230.0 3.386e-06
20250.0 3.3841e-06
20270.0 3.3819e-06
20290.0 3.3796e-06
20310.0 3.3768e-06
20330.0 3.3735e-06
20350.0 3.3703e-06
20370.0 3.3668e-06
20390.0 3.3628e-06
20410.0 3.3587e-06
20430.0 3.3546e-06
20450.0 3.35e-06
20470.0 3.3452e-06
20490.0 3.3407e-06
20510.0 3.3361e-06
20530.0 3.3312e-06
20550.0 3.3266e-06
20570.0 3.3223e-06
20590.0 3.318e-06
20610.0 3.3137e-06
20630.0 3.3098e-06
20650.0 3.306e-06
20670.0 3.3019e-06
20690.0 3.2982e-06
20710.0 3.2945e-06
20730.0 3.2905e-06
20750.0 3.2863e-06
20770.0 3.282e-06
20790.0 3.2773e-06
20810.0 3.2719e-06
20830.0 3.2662e-06
20850.0 3.2602e-06
20870.0 3.2531e-06
20890.0 3.2454e-06
20910.0 3.2376e-06
20930.0 3.2291e-06
20950.0 3.2198e-06
20970.0 3.2105e-06
20990.0 3.2011e-06
21010.0 3.1907e-06
21030.0 3.1804e-06
21050.0 3.1705e-06
21070.0 3.1603e-06
21090.0 3.1497e-06
21110.0 3.1398e-06
21130.0 3.1303e-06
21150.0 3.1204e-06
21170.0 3.1108e-06
21190.0 3.1018e-06
21210.0 3.0924e-06
21230.0 3.0828e-06
21250.0 3.0737e-06
21270.0 3.0646e-06
21290.0 3.055e-06
21310.0 3.0453e-06
21330.0 3.036e-06
21350.0 3.026e-06
21370.0 3.0155e-06
21390.0 3.0051e-06
21410.0 2.9946e-06
21430.0 2.9828e-06
21450.0 2.9712e-06
21470.0 2.9598e-06
21490.0 2.9477e-06
21510.0 2.935e-06
21530.0 2.9228e-06
21550.0 2.9103e-06
21570.0 2.897e-06
21590.0 2.8839e-06
21610.0 2.8712e-06
21630.0 2.858e-06
21650.0 2.8442e-06
21670.0 2.8316e-06
21690.0 2.8188e-06
21710.0 2.8056e-06
21730.0 2.7929e-06
21750.0 2.7807e-06
21770.0 2.7677e-06
21790.0 2.7549e-06
21810.0 2.7427e-06
21830.0 2.7304e-06
21850.0 2.7177e-06
21870.0 2.7054e-06
21890.0 2.6937e-06
21910.0 2.6814e-06
21930.0 2.6692e-06
21950.0 2.6577e-06
21970.0 2.6461e-06
21990.0 2.634e-06
22010.0 2.623e-06
22030.0 2.6125e-06
22050.0 2.602e-06
22070.0 2.5919e-06
22090.0 2.5829e-06
22110.0 2.5742e-06
22130.0 2.5658e-06
22150.0 2.5583e-06
22170.0 2.5516e-06
22190.0 2.545e-06
22210.0 2.5391e-06
22230.0 2.5342e-06
22250.0 2.5296e-06
22270.0 2.5252e-06
22290.0 2.5216e-06
22310.0 2.5183e-06
22330.0 2.5149e-06
22350.0 2.5119e-06
22370.0 2.5093e-06
22390.0 2.5066e-06
22410.0 2.5036e-06
22430.0 2.5011e-06
22450.0 2.4986e-06
22470.0 2.4957e-06
22490.0 2.4929e-06
22510.0 2.4904e-06
22530.0 2.4874e-06
22550.0 2.4843e-06
22570.0 2.4815e-06
22590.0 2.4789e-06
22610.0 2.476e-06
