#lamb flux
1010.0 0.00077761
1030.0 0.0010281
1050.0 0.0013286
1070.0 0.001679
1090.0 0.0020859
1110.0 0.0025128
1130.0 0.0029447
1150.0 0.0033882
1170.0 0.0038276
1190.0 0.0042168
1210.0 0.0045723
1230.0 0.0048919
1250.0 0.0051456
1270.0 0.0053254
1290.0 0.0054593
1310.0 0.0055245
1330.0 0.0055104
1350.0 0.0054413
1370.0 0.0053305
1390.0 0.005166
1410.0 0.0049583
1430.0 0.0047341
1450.0 0.0044906
1470.0 0.0042309
1490.0 0.0039711
1510.0 0.0037211
1530.0 0.003469
1550.0 0.0032284
1570.0 0.0030068
1590.0 0.0028018
1610.0 0.0026116
1630.0 0.0024415
1650.0 0.00229
1670.0 0.0021521
1690.0 0.0020288
1710.0 0.0019216
1730.0 0.0018269
1750.0 0.0017365
1770.0 0.0016572
1790.0 0.0015873
1810.0 0.0015238
1830.0 0.0014664
1850.0 0.0014143
1870.0 0.001367
1890.0 0.0013235
1910.0 0.0012851
1930.0 0.0012517
1950.0 0.0012215
1970.0 0.0011958
1990.0 0.0011764
2010.0 0.0011626
2030.0 0.0011551
2050.0 0.0011567
2070.0 0.0011689
2090.0 0.0011916
2110.0 0.0012281
2130.0 0.0012813
2150.0 0.0013527
2170.0 0.0014442
2190.0 0.00156
2210.0 0.0017022
2230.0 0.0018719
2250.0 0.0020721
2270.0 0.0023065
2290.0 0.0025743
2310.0 0.0028756
2330.0 0.003214
2350.0 0.0035886
2370.0 0.0039956
2390.0 0.0044354
2410.0 0.0049068
2430.0 0.0053999
2450.0 0.005908
2470.0 0.0064249
2490.0 0.0069395
2510.0 0.0074429
2530.0 0.0079378
2550.0 0.0084371
2570.0 0.0089714
2590.0 0.0095865
2610.0 0.010382
2630.0 0.011456
2650.0 0.012861
2670.0 0.014713
2690.0 0.017121
2710.0 0.019974
2730.0 0.023183
2750.0 0.026846
2770.0 0.030675
2790.0 0.034384
2810.0 0.037958
2830.0 0.041349
2850.0 0.044184
2870.0 0.046621
2890.0 0.048788
2910.0 0.050678
2930.0 0.052309
2950.0 0.05386
2970.0 0.055348
2990.0 0.056722
3010.0 0.058032
3030.0 0.059345
3050.0 0.060609
3070.0 0.061739
3090.0 0.062833
3110.0 0.063841
3130.0 0.064676
3150.0 0.06535
3170.0 0.065895
3190.0 0.066262
3210.0 0.066516
3230.0 0.066754
3250.0 0.067046
3270.0 0.067412
3290.0 0.067907
3310.0 0.068571
3330.0 0.069318
3350.0 0.070077
3370.0 0.070863
3390.0 0.071633
3410.0 0.072294
3430.0 0.072872
3450.0 0.073316
3470.0 0.075566
3490.0 0.074554
3510.0 0.068069
3530.0 0.074771
3550.0 0.085618
3570.0 0.094284
3590.0 0.10702
3610.0 0.11453
3630.0 0.11975
3650.0 0.1082
3670.0 0.094294
3690.0 0.089519
3710.0 0.09742
3730.0 0.11323
3750.0 0.11766
3770.0 0.1187
3790.0 0.12146
3810.0 0.11355
3830.0 0.10179
3850.0 0.092162
3870.0 0.08566
3890.0 0.094999
3910.0 0.10284
3930.0 0.10497
3950.0 0.1059
3970.0 0.11082
3990.0 0.11779
4010.0 0.11908
4030.0 0.11335
4050.0 0.10304
4070.0 0.10168
4090.0 0.10669
4110.0 0.11258
4130.0 0.10938
4150.0 0.10636
4170.0 0.10527
4190.0 0.1103
4210.0 0.1093
4230.0 0.10134
4250.0 0.090761
4270.0 0.081305
4290.0 0.073936
4310.0 0.068939
4330.0 0.067577
4350.0 0.074144
4370.0 0.076144
4390.0 0.078559
4410.0 0.083146
4430.0 0.08555
4450.0 0.083366
4470.0 0.081209
4490.0 0.08297
4510.0 0.084673
4530.0 0.086507
4550.0 0.088006
4570.0 0.088189
4590.0 0.091178
4610.0 0.092919
4630.0 0.096075
4650.0 0.098554
4670.0 0.096999
4690.0 0.090841
4710.0 0.082719
4730.0 0.079203
4750.0 0.078507
4770.0 0.075487
4790.0 0.071885
4810.0 0.069766
4830.0 0.070897
4850.0 0.069881
4870.0 0.070212
4890.0 0.06802
4910.0 0.062536
4930.0 0.063351
4950.0 0.059096
4970.0 0.053618
4990.0 0.052391
5010.0 0.048831
5030.0 0.046019
5050.0 0.045967
5070.0 0.04989
5090.0 0.051836
5110.0 0.057458
5130.0 0.059141
5150.0 0.061039
5170.0 0.062853
5190.0 0.061922
5210.0 0.061988
5230.0 0.06312
5250.0 0.063285
5270.0 0.064778
5290.0 0.064413
5310.0 0.063165
5330.0 0.059948
5350.0 0.056724
5370.0 0.053224
5390.0 0.053928
5410.0 0.054977
5430.0 0.054877
5450.0 0.055299
5470.0 0.054849
5490.0 0.054056
5510.0 0.053526
5530.0 0.052433
5550.0 0.052652
5570.0 0.053219
5590.0 0.053902
5610.0 0.053303
5630.0 0.052099
5650.0 0.051532
5670.0 0.050458
5690.0 0.049014
5710.0 0.04743
5730.0 0.046774
5750.0 0.046651
5770.0 0.045778
5790.0 0.044737
5810.0 0.044443
5830.0 0.045226
5850.0 0.045981
5870.0 0.045888
5890.0 0.045276
5910.0 0.045218
5930.0 0.045526
5950.0 0.045291
5970.0 0.04478
5990.0 0.04419
6010.0 0.045045
6030.0 0.045123
6050.0 0.044118
6070.0 0.044238
6090.0 0.044128
6110.0 0.044175
6130.0 0.04411
6150.0 0.042787
6170.0 0.039645
6190.0 0.03665
6210.0 0.035388
6230.0 0.034821
6250.0 0.035009
6270.0 0.036314
6290.0 0.037356
6310.0 0.038524
6330.0 0.039629
6350.0 0.040186
6370.0 0.04022
6390.0 0.039182
6410.0 0.03838
6430.0 0.037226
6450.0 0.036311
6470.0 0.035762
6490.0 0.035801
6510.0 0.03579
6530.0 0.035683
6550.0 0.034937
6570.0 0.034397
6590.0 0.034137
6610.0 0.033325
6630.0 0.032909
6650.0 0.032348
6670.0 0.031346
6690.0 0.030333
6710.0 0.029591
6730.0 0.029278
6750.0 0.028807
6770.0 0.02853
6790.0 0.02852
6810.0 0.028047
6830.0 0.027764
6850.0 0.027435
6870.0 0.026767
6890.0 0.026669
6910.0 0.026423
6930.0 0.025916
6950.0 0.025923
6970.0 0.025629
6990.0 0.025608
7010.0 0.025198
7030.0 0.024933
7050.0 0.024801
7070.0 0.024314
7090.0 0.023554
7110.0 0.022978
7130.0 0.023036
7150.0 0.023309
7170.0 0.02345
7190.0 0.023888
7210.0 0.024153
7230.0 0.024412
7250.0 0.024718
7270.0 0.024194
7290.0 0.024033
7310.0 0.023561
7330.0 0.022689
7350.0 0.022221
7370.0 0.021856
7390.0 0.021608
7410.0 0.02177
7430.0 0.021623
7450.0 0.021265
7470.0 0.020848
7490.0 0.020103
7510.0 0.018825
7530.0 0.019421
7550.0 0.019555
7570.0 0.019298
7590.0 0.017883
7610.0 0.018286
7630.0 0.018138
7650.0 0.01829
7670.0 0.018259
7690.0 0.018702
7710.0 0.018417
7730.0 0.019192
7750.0 0.01954
7770.0 0.020438
7790.0 0.021211
7810.0 0.021695
7830.0 0.022525
7850.0 0.022398
7870.0 0.022795
7890.0 0.022476
7910.0 0.021746
7930.0 0.021464
7950.0 0.02126
7970.0 0.021073
7990.0 0.021112
8010.0 0.019239
8030.0 0.019121
8050.0 0.018735
8070.0 0.018556
8090.0 0.017976
8110.0 0.018112
8130.0 0.018385
8150.0 0.018735
8170.0 0.018568
8190.0 0.01889
8210.0 0.018645
8230.0 0.017735
8250.0 0.017466
8270.0 0.01716
8290.0 0.016861
8310.0 0.016195
8330.0 0.016371
8350.0 0.016317
8370.0 0.016357
8390.0 0.016636
8410.0 0.016517
8430.0 0.016701
8450.0 0.016883
8470.0 0.017037
8490.0 0.017254
8510.0 0.016929
8530.0 0.016308
8550.0 0.016436
8570.0 0.016434
8590.0 0.01592
8610.0 0.016254
8630.0 0.01602
8650.0 0.015712
8670.0 0.015604
8690.0 0.015564
8710.0 0.014912
8730.0 0.015154
8750.0 0.014648
8770.0 0.014595
8790.0 0.014178
8810.0 0.013994
8830.0 0.014015
8850.0 0.01343
8870.0 0.012764
8890.0 0.012599
8910.0 0.011892
8930.0 0.010988
8950.0 0.010984
8970.0 0.010587
8990.0 0.010503
9010.0 0.010398
9030.0 0.010325
9050.0 0.010252
9070.0 0.010178
9090.0 0.010104
9110.0 0.010029
9130.0 0.0099538
9150.0 0.0098795
9170.0 0.0098048
9190.0 0.0097298
9210.0 0.0096545
9230.0 0.009579
9250.0 0.0095035
9270.0 0.0094279
9290.0 0.0093522
9310.0 0.0092767
9330.0 0.0092014
9350.0 0.0091261
9370.0 0.0090508
9390.0 0.0089759
9410.0 0.008901
9430.0 0.0088263
9450.0 0.008752
9470.0 0.0086835
9490.0 0.0086123
9510.0 0.0085357
9530.0 0.0084601
9550.0 0.0083861
9570.0 0.0083131
9590.0 0.0082405
9610.0 0.0081687
9630.0 0.0080978
9650.0 0.0080272
9670.0 0.0079568
9690.0 0.0078873
9710.0 0.0078183
9730.0 0.0077497
9750.0 0.0076816
9770.0 0.0076146
9790.0 0.0075478
9810.0 0.0074814
9830.0 0.0074148
9850.0 0.00734
9870.0 0.0072731
9890.0 0.007215
9910.0 0.0071559
9930.0 0.0070839
9950.0 0.0070222
9970.0 0.0069666
9990.0 0.0069092
10010.0 0.0068519
10030.0 0.0067942
10050.0 0.0067364
10070.0 0.0066796
10090.0 0.0066238
10110.0 0.006567
10130.0 0.0065109
10150.0 0.0064567
10170.0 0.0064029
10190.0 0.0063488
10210.0 0.0062965
10230.0 0.0062452
10250.0 0.0061937
10270.0 0.0061429
10290.0 0.0060938
10310.0 0.0060446
10330.0 0.0059953
10350.0 0.0059478
10370.0 0.0059011
10390.0 0.0058542
10410.0 0.0058075
10430.0 0.0057624
10450.0 0.0057186
10470.0 0.0056747
10490.0 0.0056322
10510.0 0.0055904
10530.0 0.0055478
10550.0 0.0055064
10570.0 0.0054666
10590.0 0.0054266
10610.0 0.0053868
10630.0 0.0053486
10650.0 0.005311
10670.0 0.0052728
10690.0 0.0052358
10710.0 0.0052
10730.0 0.005164
10750.0 0.0051278
10770.0 0.0050938
10790.0 0.0050601
10810.0 0.005026
10830.0 0.004993
10850.0 0.0049614
10870.0 0.0049289
10890.0 0.0048971
10910.0 0.004867
10930.0 0.0048376
10950.0 0.0048083
10970.0 0.0047808
10990.0 0.0047552
11010.0 0.0050745
11030.0 0.0050552
11050.0 0.0050364
11070.0 0.0050167
11090.0 0.0049948
11110.0 0.0049724
11130.0 0.0049489
11150.0 0.0049232
11170.0 0.0048959
11190.0 0.0048688
11210.0 0.0048403
11230.0 0.0048105
11250.0 0.0047816
11270.0 0.0047534
11290.0 0.0047246
11310.0 0.0046967
11330.0 0.0046716
11350.0 0.0046471
11370.0 0.0046233
11390.0 0.0046017
11410.0 0.0045817
11430.0 0.0045613
11450.0 0.0045422
11470.0 0.0045242
11490.0 0.0045058
11510.0 0.0044865
11530.0 0.0044678
11550.0 0.0044487
11570.0 0.0044278
11590.0 0.0044063
11610.0 0.0043849
11630.0 0.0043618
11650.0 0.0043372
11670.0 0.0043137
11690.0 0.00429
11710.0 0.0042652
11730.0 0.0042408
11750.0 0.0042181
11770.0 0.0041944
11790.0 0.0041709
11810.0 0.0041488
11830.0 0.0041273
11850.0 0.0041048
11870.0 0.0040839
11890.0 0.0040646
11910.0 0.0040452
11930.0 0.0040266
11950.0 0.0040103
11970.0 0.0039951
11990.0 0.0039806
12010.0 0.0039687
12030.0 0.0039594
12050.0 0.0039518
12070.0 0.0039465
12090.0 0.0039446
12110.0 0.0039449
12130.0 0.0039476
12150.0 0.0039527
12170.0 0.0039599
12190.0 0.0039689
12210.0 0.0039796
12230.0 0.0039914
12250.0 0.0040041
12270.0 0.0040174
12290.0 0.0040309
12310.0 0.004044
12330.0 0.004057
12350.0 0.0040692
12370.0 0.0040804
12390.0 0.0040905
12410.0 0.004099
12430.0 0.0041058
12450.0 0.0041108
12470.0 0.0041134
12490.0 0.0041135
12510.0 0.0041115
12530.0 0.0041064
12550.0 0.0040979
12570.0 0.0040868
12590.0 0.0040731
12610.0 0.0040553
12630.0 0.0040345
12650.0 0.0040125
12670.0 0.0039872
12690.0 0.0039589
12710.0 0.0039299
12730.0 0.0038997
12750.0 0.003866
12770.0 0.0038323
12790.0 0.0037992
12810.0 0.003765
12830.0 0.0037299
12850.0 0.0036971
12870.0 0.0036651
12890.0 0.0036328
12910.0 0.0036022
12930.0 0.003574
12950.0 0.0035461
12970.0 0.0035191
12990.0 0.0034951
13010.0 0.0034725
13030.0 0.0034504
13050.0 0.0034301
13070.0 0.0034116
13090.0 0.0033932
13110.0 0.0033755
13130.0 0.0033592
13150.0 0.0033434
13170.0 0.0033273
13190.0 0.0033122
13210.0 0.0032979
13230.0 0.0032835
13250.0 0.0032692
13270.0 0.0032556
13290.0 0.0032418
13310.0 0.0032274
13330.0 0.0032131
13350.0 0.0031988
13370.0 0.0031834
13390.0 0.0031671
13410.0 0.003151
13430.0 0.0031338
13450.0 0.0031152
13470.0 0.0030961
13490.0 0.0030766
13510.0 0.0030551
13530.0 0.003033
13550.0 0.0030109
13570.0 0.0029878
13590.0 0.0029634
13610.0 0.0029391
13630.0 0.002915
13650.0 0.0028893
13670.0 0.0028635
13690.0 0.002838
13710.0 0.0028118
13730.0 0.0027842
13750.0 0.0027576
13770.0 0.0027311
13790.0 0.0027036
13810.0 0.0026761
13830.0 0.0026497
13850.0 0.0026225
13870.0 0.0025949
13890.0 0.0025683
13910.0 0.0025422
13930.0 0.0025155
13950.0 0.0024893
13970.0 0.0024647
13990.0 0.0024398
14010.0 0.002415
14030.0 0.0023914
14050.0 0.0023683
14070.0 0.0023445
14090.0 0.0023216
14110.0 0.0022996
14130.0 0.0022774
14150.0 0.002255
14170.0 0.0022336
14190.0 0.0022125
14210.0 0.0021909
14230.0 0.0021697
14250.0 0.0021493
14270.0 0.0021286
14290.0 0.0021078
14310.0 0.0020883
14330.0 0.0020691
14350.0 0.00205
14370.0 0.0020317
14390.0 0.0020144
14410.0 0.0019971
14430.0 0.0019804
14450.0 0.0019646
14470.0 0.0019493
14490.0 0.0019339
14510.0 0.0019194
14530.0 0.0019054
14550.0 0.0018913
14570.0 0.0018774
14590.0 0.001864
14610.0 0.0018505
14630.0 0.0018368
14650.0 0.0018235
14670.0 0.0018104
14690.0 0.001797
14710.0 0.0017837
14730.0 0.0017709
14750.0 0.0017581
14770.0 0.0017452
14790.0 0.0017327
14810.0 0.0017204
14830.0 0.0017079
14850.0 0.0016956
14870.0 0.0016837
14890.0 0.0016718
14910.0 0.0016599
14930.0 0.0016484
14950.0 0.0016374
14970.0 0.0016263
14990.0 0.0016158
15010.0 0.0016058
15030.0 0.0015962
15050.0 0.0015868
15070.0 0.0015781
15090.0 0.0015696
15110.0 0.0015612
15130.0 0.001553
15150.0 0.001545
15170.0 0.0015369
15190.0 0.0015289
15210.0 0.001521
15230.0 0.0015131
15250.0 0.0015052
15270.0 0.0014973
15290.0 0.0014897
15310.0 0.001482
15330.0 0.0014742
15350.0 0.0014667
15370.0 0.0014592
15390.0 0.0014516
15410.0 0.0014441
15430.0 0.0014368
15450.0 0.0014294
15470.0 0.001422
15490.0 0.0014148
15510.0 0.0014077
15530.0 0.0014005
15550.0 0.0013934
15570.0 0.0013865
15590.0 0.0013795
15610.0 0.0013724
15630.0 0.0013656
15650.0 0.0013589
15670.0 0.0013521
15690.0 0.0013454
15710.0 0.0013389
15730.0 0.0013323
15750.0 0.0013257
15770.0 0.0013193
15790.0 0.001313
15810.0 0.0013065
15830.0 0.0013002
15850.0 0.0012941
15870.0 0.0012879
15890.0 0.0012818
15910.0 0.0012758
15930.0 0.0012699
15950.0 0.0012639
15970.0 0.001258
15990.0 0.0012523
16010.0 0.0012465
16030.0 0.0012407
16050.0 0.0012352
16070.0 0.0012297
16090.0 0.0012241
16110.0 0.0012187
16130.0 0.0012134
16150.0 0.0012079
16170.0 0.0012026
16190.0 0.0011975
16210.0 0.0011923
16230.0 0.0011871
16250.0 0.0011821
16270.0 0.0011772
16290.0 0.0011722
16310.0 0.0011673
16330.0 0.0011626
16350.0 0.0011578
16370.0 0.0011529
16390.0 0.0011483
16410.0 0.0011438
16430.0 0.0011392
16450.0 0.0011346
16470.0 0.0011303
16490.0 0.0011258
16510.0 0.0011214
16530.0 0.0011171
16550.0 0.0011129
16570.0 0.0011086
16590.0 0.0011044
16610.0 0.0011004
16630.0 0.0010964
16650.0 0.0010923
16670.0 0.0010884
16690.0 0.0010845
16710.0 0.0010805
16730.0 0.0010767
16750.0 0.001073
16770.0 0.0010692
16790.0 0.0010654
16810.0 0.0010619
16830.0 0.0010583
16850.0 0.0010546
16870.0 0.0010511
16890.0 0.0010477
16910.0 0.0010442
16930.0 0.0010407
16950.0 0.0010374
16970.0 0.0010341
16990.0 0.0010307
17010.0 0.0010274
17030.0 0.0010243
17050.0 0.0010211
17070.0 0.0010178
17090.0 0.0010148
17110.0 0.0010117
17130.0 0.0010085
17150.0 0.0010055
17170.0 0.0010026
17190.0 0.00099958
17210.0 0.0009966
17230.0 0.00099378
17250.0 0.0009909
17270.0 0.00098795
17290.0 0.00098514
17310.0 0.00098239
17330.0 0.00097956
17350.0 0.00097674
17370.0 0.00097411
17390.0 0.00097142
17410.0 0.00096868
17430.0 0.00096605
17450.0 0.00096349
17470.0 0.00096076
17490.0 0.00095813
17510.0 0.00095562
17530.0 0.00095306
17550.0 0.00095045
17570.0 0.00094797
17590.0 0.00094553
17610.0 0.00094298
17630.0 0.00094048
17650.0 0.00093809
17670.0 0.00093564
17690.0 0.00093307
17710.0 0.00093072
17730.0 0.00092836
17750.0 0.00092591
17770.0 0.00092351
17790.0 0.00092124
17810.0 0.00091883
17830.0 0.00091641
17850.0 0.0009141
17870.0 0.0009118
17890.0 0.00090938
17910.0 0.00090702
17930.0 0.00090479
17950.0 0.00090246
17970.0 0.0009001
17990.0 0.00089785
18010.0 0.00089559
18030.0 0.00089317
18050.0 0.00089087
18070.0 0.00088863
18090.0 0.00088631
18110.0 0.00088393
18130.0 0.00088171
18150.0 0.00087945
18170.0 0.00087708
18190.0 0.00087479
18210.0 0.00087256
18230.0 0.00087019
18250.0 0.00086778
18270.0 0.00086554
18290.0 0.00086324
18310.0 0.00086085
18330.0 0.00085853
18350.0 0.00085628
18370.0 0.00085387
18390.0 0.00085147
18410.0 0.00084917
18430.0 0.00084681
18450.0 0.00084431
18470.0 0.00084194
18490.0 0.00083962
18510.0 0.00083717
18530.0 0.00083471
18550.0 0.00083237
18570.0 0.00082992
18590.0 0.00082736
18610.0 0.00082492
18630.0 0.00082249
18650.0 0.00081993
18670.0 0.00081736
18690.0 0.00081493
18710.0 0.0008124
18730.0 0.00080978
18750.0 0.00080725
18770.0 0.00080474
18790.0 0.00080201
18810.0 0.00079936
18830.0 0.00079679
18850.0 0.00079413
18870.0 0.00079139
18890.0 0.00078875
18910.0 0.00078611
18930.0 0.00078331
18950.0 0.00078055
18970.0 0.00077785
18990.0 0.00077505
19010.0 0.00077211
19030.0 0.00076936
19050.0 0.00076656
19070.0 0.00076364
19090.0 0.00076075
19110.0 0.00075795
19130.0 0.00075497
19150.0 0.00075195
19170.0 0.00074903
19190.0 0.00074607
19210.0 0.00074297
19230.0 0.00073991
19250.0 0.00073696
19270.0 0.00073385
19290.0 0.00073071
19310.0 0.00072765
19330.0 0.00072455
19350.0 0.00072126
19370.0 0.00071807
19390.0 0.00071493
19410.0 0.00071166
19430.0 0.00070834
19450.0 0.00070515
19470.0 0.00070188
19490.0 0.00069848
19510.0 0.00069515
19530.0 0.00069186
19550.0 0.0006884
19570.0 0.0006849
19590.0 0.00068155
19610.0 0.00067811
19630.0 0.00067456
19650.0 0.00067109
19670.0 0.00066766
19690.0 0.00066405
19710.0 0.00066044
19730.0 0.00065692
19750.0 0.00065332
19770.0 0.00064958
19790.0 0.00064596
19810.0 0.00064237
19830.0 0.00063864
19850.0 0.0006349
19870.0 0.00063128
19890.0 0.00062753
19910.0 0.00062371
19930.0 0.00062002
19950.0 0.00061639
19970.0 0.00061269
19990.0 0.00060907
20010.0 0.00060567
20030.0 0.00060225
20050.0 0.00059886
20070.0 0.00059561
20090.0 0.00059242
20110.0 0.0005891
20130.0 0.00058587
20150.0 0.00058272
20170.0 0.0005795
20190.0 0.00057623
20210.0 0.00057307
20230.0 0.0005699
20250.0 0.00056664
20270.0 0.00056345
20290.0 0.00056035
20310.0 0.00055722
20330.0 0.00055406
20350.0 0.00055109
20370.0 0.00054816
20390.0 0.00054523
20410.0 0.0005424
20430.0 0.00053971
20450.0 0.00053701
20470.0 0.00053441
20490.0 0.00053195
20510.0 0.00052957
20530.0 0.00052727
20550.0 0.00052511
20570.0 0.0005231
20590.0 0.00052118
20610.0 0.0005194
20630.0 0.00051776
20650.0 0.00051624
20670.0 0.00051486
20690.0 0.0005136
20710.0 0.00051244
20730.0 0.00051138
20750.0 0.0005104
20770.0 0.00050944
20790.0 0.00050852
20810.0 0.00050761
20830.0 0.00050664
20850.0 0.0005056
20870.0 0.00050449
20890.0 0.00050324
20910.0 0.00050182
20930.0 0.00050024
20950.0 0.00049847
20970.0 0.00049648
20990.0 0.0004943
21010.0 0.00049186
21030.0 0.00048921
21050.0 0.00048637
21070.0 0.0004833
21090.0 0.00047998
21110.0 0.00047656
21130.0 0.000473
21150.0 0.00046925
21170.0 0.0004654
21190.0 0.00046154
21210.0 0.00045753
21230.0 0.00045342
21250.0 0.00044939
21270.0 0.00044535
21290.0 0.00044122
21310.0 0.00043712
21330.0 0.00043314
21350.0 0.00042908
21370.0 0.00042499
21390.0 0.00042098
21410.0 0.00041698
21430.0 0.00041284
21450.0 0.00040875
21470.0 0.0004047
21490.0 0.00040056
21510.0 0.00039635
21530.0 0.0003922
21550.0 0.000388
21570.0 0.00038366
21590.0 0.00037936
21610.0 0.00037509
21630.0 0.00037073
21650.0 0.00036628
21670.0 0.00036201
21690.0 0.00035772
21710.0 0.00035336
21730.0 0.0003491
21750.0 0.00034496
21770.0 0.00034071
21790.0 0.00033654
21810.0 0.00033251
21830.0 0.00032851
21850.0 0.0003245
21870.0 0.00032062
21890.0 0.00031686
21910.0 0.00031307
21930.0 0.00030934
21950.0 0.00030572
21970.0 0.00030212
21990.0 0.00029846
22010.0 0.00029493
22030.0 0.00029145
22050.0 0.00028792
22070.0 0.00028439
22090.0 0.00028097
22110.0 0.00027749
22130.0 0.00027397
22150.0 0.0002705
22170.0 0.00026705
22190.0 0.00026351
22210.0 0.00025997
22230.0 0.00025654
22250.0 0.00025306
22270.0 0.00024954
22290.0 0.0002461
22310.0 0.0002427
22330.0 0.00023922
22350.0 0.0002358
22370.0 0.00023248
22390.0 0.00022916
22410.0 0.00022581
22430.0 0.00022262
22450.0 0.00021949
22470.0 0.00021635
22490.0 0.00021331
22510.0 0.0002104
22530.0 0.00020748
22550.0 0.00020462
22570.0 0.00020191
22590.0 0.00019928
22610.0 0.00019668
22630.0 0.00019417
22650.0 0.0001918
22670.0 0.00018944
22690.0 0.00018714
22710.0 0.00018495
22730.0 0.00018283
22750.0 0.0001807
22770.0 0.00017868
22790.0 0.00017674
22810.0 0.00017484
22830.0 0.00017298
22850.0 0.00017123
22870.0 0.00016952
22890.0 0.00016786
22910.0 0.00016628
22930.0 0.0001648
22950.0 0.00016337
22970.0 0.000162
22990.0 0.00016076
23010.0 0.0001596
23030.0 0.00015851
23050.0 0.00015752
23070.0 0.00015663
23090.0 0.00015583
23110.0 0.00015513
23130.0 0.00015452
23150.0 0.00015401
23170.0 0.00015359
23190.0 0.00015326
23210.0 0.00015301
23230.0 0.00015285
23250.0 0.00015275
23270.0 0.0001527
23290.0 0.00015271
23310.0 0.00015278
23330.0 0.00015284
23350.0 0.00015291
23370.0 0.000153
23390.0 0.00015306
23410.0 0.00015309
23430.0 0.00015308
23450.0 0.00015356
23470.0 0.00015412
23490.0 0.00015466
23510.0 0.00015521
23530.0 0.00015575
23550.0 0.00015629
23570.0 0.00015686
23590.0 0.00015745
23610.0 0.00015808
23630.0 0.00015875
23650.0 0.00015949
23670.0 0.00016029
23690.0 0.00016115
23710.0 0.00016209
23730.0 0.00016312
23750.0 0.0001642
23770.0 0.00016534
23790.0 0.00016657
23810.0 0.00016787
23830.0 0.00016923
23850.0 0.00017069
