#lamb flux
1010.0 3.5787e-07
1030.0 4.0288e-07
1050.0 4.516e-07
1070.0 5.0672e-07
1090.0 5.7059e-07
1110.0 6.3649e-07
1130.0 7.0337e-07
1150.0 7.7408e-07
1170.0 8.4791e-07
1190.0 9.1935e-07
1210.0 9.9315e-07
1230.0 1.071e-06
1250.0 1.1491e-06
1270.0 1.2274e-06
1290.0 1.3119e-06
1310.0 1.3989e-06
1330.0 1.4854e-06
1350.0 1.5753e-06
1370.0 1.6701e-06
1390.0 1.7653e-06
1410.0 1.8605e-06
1430.0 1.961e-06
1450.0 2.0632e-06
1470.0 2.1644e-06
1490.0 2.2675e-06
1510.0 2.376e-06
1530.0 2.4807e-06
1550.0 2.5845e-06
1570.0 2.691e-06
1590.0 2.7971e-06
1610.0 2.8984e-06
1630.0 3.0006e-06
1650.0 3.1032e-06
1670.0 3.2009e-06
1690.0 3.2949e-06
1710.0 3.3891e-06
1730.0 3.4805e-06
1750.0 3.5629e-06
1770.0 3.6437e-06
1790.0 3.7219e-06
1810.0 3.7927e-06
1830.0 3.8573e-06
1850.0 3.9219e-06
1870.0 3.9793e-06
1890.0 4.0287e-06
1910.0 4.0746e-06
1930.0 4.1172e-06
1950.0 4.1509e-06
1970.0 4.1784e-06
1990.0 4.2036e-06
2010.0 4.2223e-06
2030.0 4.2329e-06
2050.0 4.2405e-06
2070.0 4.2444e-06
2090.0 4.2386e-06
2110.0 4.227e-06
2130.0 4.2119e-06
2150.0 4.1897e-06
2170.0 4.1589e-06
2190.0 4.1248e-06
2210.0 4.0853e-06
2230.0 4.0377e-06
2250.0 3.9845e-06
2270.0 3.9285e-06
2290.0 3.8655e-06
2310.0 3.7955e-06
2330.0 3.7227e-06
2350.0 3.6461e-06
2370.0 3.5634e-06
2390.0 3.4773e-06
2410.0 3.3893e-06
2430.0 3.2954e-06
2450.0 3.1959e-06
2470.0 3.0919e-06
2490.0 2.9823e-06
2510.0 2.8677e-06
2530.0 2.7543e-06
2550.0 2.6511e-06
2570.0 2.5697e-06
2590.0 2.5223e-06
2610.0 2.5327e-06
2630.0 2.6076e-06
2650.0 2.7344e-06
2670.0 2.9123e-06
2690.0 3.1274e-06
2710.0 3.3298e-06
2730.0 3.4942e-06
2750.0 3.6203e-06
2770.0 3.6755e-06
2790.0 3.6531e-06
2810.0 3.5667e-06
2830.0 3.4219e-06
2850.0 3.2284e-06
2870.0 3.004e-06
2890.0 2.7553e-06
2910.0 2.4922e-06
2930.0 2.2266e-06
2950.0 1.9536e-06
2970.0 1.6764e-06
2990.0 1.4044e-06
3010.0 2.5564e-06
3030.0 1.9439e-06
3050.0 1.3325e-06
3070.0 7.3842e-07
3090.0 5.5609e-07
3110.0 5.5609e-07
3130.0 5.5609e-07
3150.0 5.5609e-07
3170.0 5.5609e-07
3190.0 5.5609e-07
3210.0 2.3385e-06
3230.0 1.0912e-05
3250.0 2.1791e-05
3270.0 2.3692e-05
3290.0 2.93e-05
3310.0 2.4693e-05
3330.0 2.5429e-05
3350.0 2.8131e-05
3370.0 3.1834e-05
3390.0 3.6103e-05
3410.0 4.0654e-05
3430.0 4.6199e-05
3450.0 5.2052e-05
3470.0 5.8225e-05
3490.0 6.2819e-05
3510.0 6.5137e-05
3530.0 6.888e-05
3550.0 7.0717e-05
3570.0 6.8874e-05
3590.0 7.2597e-05
3610.0 6.9421e-05
3630.0 8.5044e-05
3650.0 9.6306e-05
3670.0 0.00010332
3690.0 9.5177e-05
3710.0 7.4956e-05
3730.0 6.7977e-05
3750.0 5.9332e-05
3770.0 5.2688e-05
3790.0 4.6145e-05
3810.0 4.5021e-05
3830.0 5.5406e-05
3850.0 2.1899e-05
3870.0 5.1122e-05
3890.0 6.2188e-05
3910.0 6.6076e-05
3930.0 7.8616e-05
3950.0 8.5536e-05
3970.0 0.00010174
3990.0 0.00012581
4010.0 8.8093e-05
4030.0 7.1022e-05
4050.0 5.8883e-05
4070.0 6.363e-05
4090.0 9.91e-05
4110.0 9.1706e-05
4130.0 9.6962e-05
4150.0 9.0706e-05
4170.0 8.6856e-05
4190.0 8.0027e-05
4210.0 0.00011899
4230.0 0.00012387
4250.0 0.00013319
4270.0 0.00012431
4290.0 0.00012825
4310.0 0.00014636
4330.0 0.00017111
4350.0 0.0001676
4370.0 0.00016052
4390.0 0.00014015
4410.0 0.00013011
4430.0 0.00010411
4450.0 8.9846e-05
4470.0 0.00010164
4490.0 0.00012296
4510.0 0.00012776
4530.0 0.00013533
4550.0 0.00014447
4570.0 0.00019954
4590.0 0.00029005
4610.0 0.00034497
4630.0 0.00034416
4650.0 0.00034775
4670.0 0.00038825
4690.0 0.00042679
4710.0 0.00034955
4730.0 0.00026534
4750.0 0.00021291
4770.0 0.00019278
4790.0 0.00018595
4810.0 0.00017799
4830.0 0.00019558
4850.0 0.0002241
4870.0 0.00024699
4890.0 0.0002534
4910.0 0.00022829
4930.0 0.00024032
4950.0 0.00030012
4970.0 0.00036717
4990.0 0.00038448
5010.0 0.00035272
5030.0 0.00029093
5050.0 0.0002191
5070.0 0.00017334
5090.0 0.00015554
5110.0 0.00015183
5130.0 0.00015556
5150.0 0.0001553
5170.0 0.0001521
5190.0 0.00014516
5210.0 0.0001434
5230.0 0.00016041
5250.0 0.00018209
5270.0 0.00021927
5290.0 0.00025833
5310.0 0.00027182
5330.0 0.00029218
5350.0 0.00032913
5370.0 0.00035766
5390.0 0.00033236
5410.0 0.00029805
5430.0 0.00028992
5450.0 0.00033853
5470.0 0.00043061
5490.0 0.00052048
5510.0 0.00056753
5530.0 0.00056944
5550.0 0.00054953
5570.0 0.00053941
5590.0 0.00053123
5610.0 0.00053679
5630.0 0.00054202
5650.0 0.0005487
5670.0 0.00055833
5690.0 0.00053132
5710.0 0.00045614
5730.0 0.00040687
5750.0 0.00038293
5770.0 0.00039581
5790.0 0.00042059
5810.0 0.00045175
5830.0 0.0004718
5850.0 0.00045994
5870.0 0.00043573
5890.0 0.00041504
5910.0 0.00043213
5930.0 0.00046895
5950.0 0.00045671
5970.0 0.0004169
5990.0 0.00036047
6010.0 0.0002957
6030.0 0.0002631
6050.0 0.00027698
6070.0 0.00030162
6090.0 0.0003016
6110.0 0.00026716
6130.0 0.00026439
6150.0 0.00030177
6170.0 0.00035375
6190.0 0.00040082
6210.0 0.00040805
6230.0 0.00039668
6250.0 0.00036427
6270.0 0.00031019
6290.0 0.00025843
6310.0 0.00022531
6330.0 0.00021644
6350.0 0.00022365
6370.0 0.00022521
6390.0 0.00024242
6410.0 0.00029418
6430.0 0.00037272
6450.0 0.00043932
6470.0 0.0004629
6490.0 0.00045383
6510.0 0.00046218
6530.0 0.00048205
6550.0 0.0004778
6570.0 0.00049361
6590.0 0.00050017
6610.0 0.0005069
6630.0 0.00050891
6650.0 0.00048699
6670.0 0.0004483
6690.0 0.00039879
6710.0 0.00036587
6730.0 0.0003668
6750.0 0.00038505
6770.0 0.00039928
6790.0 0.00040893
6810.0 0.0004137
6830.0 0.00040513
6850.0 0.00039092
6870.0 0.00036744
6890.0 0.00035749
6910.0 0.00033978
6930.0 0.00034686
6950.0 0.00037261
6970.0 0.00038586
6990.0 0.00039715
7010.0 0.00039022
7030.0 0.00036182
7050.0 0.00031838
7070.0 0.0002736
7090.0 0.00024457
7110.0 0.00024049
7130.0 0.00024591
7150.0 0.00022918
7170.0 0.00021415
7190.0 0.00022454
7210.0 0.00025223
7230.0 0.0002927
7250.0 0.00031803
7270.0 0.00032113
7290.0 0.0002955
7310.0 0.00026862
7330.0 0.00025247
7350.0 0.00025149
7370.0 0.00025758
7390.0 0.00026799
7410.0 0.00029223
7430.0 0.00033892
7450.0 0.00038901
7470.0 0.00042123
7490.0 0.00042371
7510.0 0.00039951
7530.0 0.00033084
7550.0 0.0002878
7570.0 0.00024774
7590.0 0.00022707
7610.0 0.00023465
7630.0 0.00025883
7650.0 0.00028843
7670.0 0.00031516
7690.0 0.00033099
7710.0 0.00034921
7730.0 0.00036898
7750.0 0.00038591
7770.0 0.0003805
7790.0 0.00037815
7810.0 0.00038432
7830.0 0.00038817
7850.0 0.00037502
7870.0 0.00035717
7890.0 0.00034734
7910.0 0.00032685
7930.0 0.00031885
7950.0 0.00030141
7970.0 0.0002933
7990.0 0.00028411
8010.0 0.00029253
8030.0 0.00029244
8050.0 0.00029394
8070.0 0.00028876
8090.0 0.0002854
8110.0 0.00027151
8130.0 0.00026819
8150.0 0.00026135
8170.0 0.00025226
8190.0 0.00024601
8210.0 0.00024505
8230.0 0.00023503
8250.0 0.00022478
8270.0 0.00019826
8290.0 0.0001586
8310.0 0.00011725
8330.0 8.8189e-05
8350.0 8.0293e-05
8370.0 9.4774e-05
8390.0 0.00011442
8410.0 0.00012461
8430.0 0.00012958
8450.0 0.000135
8470.0 0.00014201
8490.0 0.00015732
8510.0 0.00017787
8530.0 0.00020507
8550.0 0.00023352
8570.0 0.00025815
8590.0 0.00027701
8610.0 0.00028885
8630.0 0.00029157
8650.0 0.0002889
8670.0 0.0002871
8690.0 0.00029721
8710.0 0.00030965
8730.0 0.00031898
8750.0 0.00031483
8770.0 0.00031608
8790.0 0.00031151
8810.0 0.00028947
8830.0 0.00027435
8850.0 0.00025374
8870.0 0.00023695
8890.0 0.00022883
8910.0 0.00022938
8930.0 0.00021592
8950.0 0.00020283
8970.0 0.00019686
8990.0 0.00019299
9010.0 0.00018534
9030.0 0.00018111
9050.0 0.00017979
9070.0 0.00017916
9090.0 0.00017861
9110.0 0.00017807
9130.0 0.00017752
9150.0 0.00017697
9170.0 0.0001763
9190.0 0.00017569
9210.0 0.00017612
9230.0 0.00017523
9250.0 0.0001745
9270.0 0.00017384
9290.0 0.00017324
9310.0 0.00017265
9330.0 0.00017208
9350.0 0.00017155
9370.0 0.00017101
9390.0 0.00017046
9410.0 0.00016993
9430.0 0.00016938
9450.0 0.00016867
9470.0 0.00016802
9490.0 0.00016764
9510.0 0.00016718
9530.0 0.0001667
9550.0 0.0001662
9570.0 0.00016569
9590.0 0.00016517
9610.0 0.00016465
9630.0 0.00016414
9650.0 0.00016362
9670.0 0.00016309
9690.0 0.00016257
9710.0 0.00016205
9730.0 0.00016153
9750.0 0.00016101
9770.0 0.00016049
9790.0 0.00015997
9810.0 0.00015945
9830.0 0.00015892
9850.0 0.00015841
9870.0 0.00015788
9890.0 0.00015735
9910.0 0.00015682
9930.0 0.00015627
9950.0 0.00015446
9970.0 0.0001543
9990.0 0.00015407
10010.0 0.0001538
10030.0 0.00015341
10050.0 0.00015294
10070.0 0.00015244
10090.0 0.00015195
10110.0 0.00015138
10130.0 0.00015086
10150.0 0.00015031
10170.0 0.00014972
10190.0 0.00014909
10210.0 0.00014851
10230.0 0.00014794
10250.0 0.00014732
10270.0 0.00014671
10290.0 0.00014613
10310.0 0.0001455
10330.0 0.00014483
10350.0 0.00014421
10370.0 0.00014359
10390.0 0.00014291
10410.0 0.00014223
10430.0 0.0001416
10450.0 0.00014091
10470.0 0.00014019
10490.0 0.00013951
10510.0 0.00013882
10530.0 0.00013804
10550.0 0.00013729
10570.0 0.00013658
10590.0 0.00013581
10610.0 0.00013501
10630.0 0.00013426
10650.0 0.00013348
10670.0 0.00013263
10690.0 0.00013181
10710.0 0.000131
10730.0 0.00013014
10750.0 0.00012922
10770.0 0.00012838
10790.0 0.00012751
10810.0 0.00012657
10830.0 0.00012565
10850.0 0.00012476
10870.0 0.00012377
10890.0 0.00012275
10910.0 0.00012176
10930.0 0.00012072
10950.0 0.00011957
10970.0 0.00011839
10990.0 0.0001172
11010.0 0.00011753
11030.0 0.00011604
11050.0 0.0001146
11070.0 0.00011314
11090.0 0.0001116
11110.0 0.00011019
11130.0 0.00010886
11150.0 0.00010751
11170.0 0.0001062
11190.0 0.000105
11210.0 0.00010379
11230.0 0.00010255
11250.0 0.00010139
11270.0 0.00010026
11290.0 9.9074e-05
11310.0 9.7894e-05
11330.0 9.6799e-05
11350.0 9.5667e-05
11370.0 9.4498e-05
11390.0 9.3361e-05
11410.0 9.2226e-05
11430.0 9.0982e-05
11450.0 8.9725e-05
11470.0 8.8468e-05
11490.0 8.7126e-05
11510.0 8.5672e-05
11530.0 8.4227e-05
11550.0 8.2736e-05
11570.0 8.1118e-05
11590.0 7.9462e-05
11610.0 7.7822e-05
11630.0 7.6077e-05
11650.0 7.4258e-05
11670.0 7.2515e-05
11690.0 7.0773e-05
11710.0 6.898e-05
11730.0 6.7234e-05
11750.0 6.5597e-05
11770.0 6.3937e-05
11790.0 6.2309e-05
11810.0 6.0796e-05
11830.0 5.9345e-05
11850.0 5.7881e-05
11870.0 5.6529e-05
11890.0 5.5283e-05
11910.0 5.4054e-05
11930.0 5.2867e-05
11950.0 5.178e-05
11970.0 5.0729e-05
11990.0 4.968e-05
12010.0 4.8705e-05
12030.0 4.7795e-05
12050.0 4.69e-05
12070.0 4.6035e-05
12090.0 4.5273e-05
12110.0 4.455e-05
12130.0 4.3865e-05
12150.0 4.3259e-05
12170.0 4.2736e-05
12190.0 4.2255e-05
12210.0 4.186e-05
12230.0 4.156e-05
12250.0 4.1338e-05
12270.0 4.1201e-05
12290.0 4.1158e-05
12310.0 4.1201e-05
12330.0 4.1337e-05
12350.0 4.1565e-05
12370.0 4.1871e-05
12390.0 4.2264e-05
12410.0 4.2768e-05
12430.0 4.3321e-05
12450.0 4.3933e-05
12470.0 4.4627e-05
12490.0 4.537e-05
12510.0 4.6112e-05
12530.0 4.6898e-05
12550.0 4.7708e-05
12570.0 4.8476e-05
12590.0 4.9203e-05
12610.0 4.9909e-05
12630.0 5.0541e-05
12650.0 5.1052e-05
12670.0 5.1482e-05
12690.0 5.1806e-05
12710.0 5.2001e-05
12730.0 5.2078e-05
12750.0 5.2034e-05
12770.0 5.1867e-05
12790.0 5.1596e-05
12810.0 5.1221e-05
12830.0 5.0746e-05
12850.0 5.0219e-05
12870.0 4.9642e-05
12890.0 4.9006e-05
12910.0 4.8352e-05
12930.0 4.7706e-05
12950.0 4.7037e-05
12970.0 4.6365e-05
12990.0 4.5737e-05
13010.0 4.5125e-05
13030.0 4.4515e-05
13050.0 4.3933e-05
13070.0 4.3385e-05
13090.0 4.283e-05
13110.0 4.2281e-05
13130.0 4.1756e-05
13150.0 4.1235e-05
13170.0 4.0695e-05
13190.0 4.0176e-05
13210.0 3.968e-05
13230.0 3.9182e-05
13250.0 3.87e-05
13270.0 3.8262e-05
13290.0 3.7852e-05
13310.0 3.7473e-05
13330.0 3.7157e-05
13350.0 3.6903e-05
13370.0 3.6705e-05
13390.0 3.657e-05
13410.0 3.6497e-05
13430.0 3.6473e-05
13450.0 3.649e-05
13470.0 3.653e-05
13490.0 3.6575e-05
13510.0 3.6616e-05
13530.0 3.6626e-05
13550.0 3.659e-05
13570.0 3.6499e-05
13590.0 3.6335e-05
13610.0 3.6103e-05
13630.0 3.5807e-05
13650.0 3.5431e-05
13670.0 3.4994e-05
13690.0 3.4523e-05
13710.0 3.4008e-05
13730.0 3.3445e-05
13750.0 3.2903e-05
13770.0 3.2372e-05
13790.0 3.1842e-05
13810.0 3.1344e-05
13830.0 3.0899e-05
13850.0 3.0481e-05
13870.0 3.0101e-05
13890.0 2.9776e-05
13910.0 2.9495e-05
13930.0 2.9244e-05
13950.0 2.9032e-05
13970.0 2.8858e-05
13990.0 2.8704e-05
14010.0 2.8568e-05
14030.0 2.8449e-05
14050.0 2.8339e-05
14070.0 2.8227e-05
14090.0 2.8116e-05
14110.0 2.8001e-05
14130.0 2.7874e-05
14150.0 2.7731e-05
14170.0 2.7578e-05
14190.0 2.741e-05
14210.0 2.7221e-05
14230.0 2.7022e-05
14250.0 2.6818e-05
14270.0 2.66e-05
14290.0 2.6376e-05
14310.0 2.6166e-05
14330.0 2.5963e-05
14350.0 2.5768e-05
14370.0 2.5595e-05
14390.0 2.5447e-05
14410.0 2.5316e-05
14430.0 2.5209e-05
14450.0 2.5127e-05
14470.0 2.5066e-05
14490.0 2.5024e-05
14510.0 2.5001e-05
14530.0 2.4991e-05
14550.0 2.4996e-05
14570.0 2.5013e-05
14590.0 2.504e-05
14610.0 2.5081e-05
14630.0 2.5139e-05
14650.0 2.5213e-05
14670.0 2.5303e-05
14690.0 2.5418e-05
14710.0 2.556e-05
14730.0 2.5717e-05
14750.0 2.5902e-05
14770.0 2.6121e-05
14790.0 2.6362e-05
14810.0 2.6626e-05
14830.0 2.6942e-05
14850.0 2.7288e-05
14870.0 2.7655e-05
14890.0 2.806e-05
14910.0 2.8502e-05
14930.0 2.894e-05
14950.0 2.9362e-05
14970.0 2.9775e-05
14990.0 3.0134e-05
15010.0 3.0418e-05
15030.0 3.0639e-05
15050.0 3.0796e-05
15070.0 3.0884e-05
15090.0 3.0929e-05
15110.0 3.0944e-05
15130.0 3.094e-05
15150.0 3.0925e-05
15170.0 3.0905e-05
15190.0 3.0881e-05
15210.0 3.0857e-05
15230.0 3.0834e-05
15250.0 3.0809e-05
15270.0 3.0785e-05
15290.0 3.0762e-05
15310.0 3.0738e-05
15330.0 3.0714e-05
15350.0 3.0691e-05
15370.0 3.0668e-05
15390.0 3.0645e-05
15410.0 3.0622e-05
15430.0 3.0599e-05
15450.0 3.0576e-05
15470.0 3.0553e-05
15490.0 3.0531e-05
15510.0 3.0509e-05
15530.0 3.0486e-05
15550.0 3.0464e-05
15570.0 3.0442e-05
15590.0 3.0419e-05
15610.0 3.0397e-05
15630.0 3.0375e-05
15650.0 3.0353e-05
15670.0 3.0331e-05
15690.0 3.0309e-05
15710.0 3.0287e-05
15730.0 3.0265e-05
15750.0 3.0243e-05
15770.0 3.0221e-05
15790.0 3.0199e-05
15810.0 3.0177e-05
15830.0 3.0155e-05
15850.0 3.0133e-05
15870.0 3.011e-05
15890.0 3.0088e-05
15910.0 3.0066e-05
15930.0 3.0044e-05
15950.0 3.0021e-05
15970.0 2.9999e-05
15990.0 2.9976e-05
16010.0 2.9953e-05
16030.0 2.993e-05
16050.0 2.9908e-05
16070.0 2.9885e-05
16090.0 2.9861e-05
16110.0 2.9838e-05
16130.0 2.9815e-05
16150.0 2.9791e-05
16170.0 2.9767e-05
16190.0 2.9743e-05
16210.0 2.9719e-05
16230.0 2.9694e-05
16250.0 2.9669e-05
16270.0 2.9645e-05
16290.0 2.962e-05
16310.0 2.9594e-05
16330.0 2.9569e-05
16350.0 2.9543e-05
16370.0 2.9517e-05
16390.0 2.9491e-05
16410.0 2.9464e-05
16430.0 2.9437e-05
16450.0 2.941e-05
16470.0 2.9383e-05
16490.0 2.9355e-05
16510.0 2.9327e-05
16530.0 2.9299e-05
16550.0 2.927e-05
16570.0 2.9241e-05
16590.0 2.9212e-05
16610.0 2.9182e-05
16630.0 2.9152e-05
16650.0 2.9121e-05
16670.0 2.9091e-05
16690.0 2.906e-05
16710.0 2.9028e-05
16730.0 2.8996e-05
16750.0 2.8964e-05
16770.0 2.8931e-05
16790.0 2.8897e-05
16810.0 2.8864e-05
16830.0 2.883e-05
16850.0 2.8795e-05
16870.0 2.876e-05
16890.0 2.8725e-05
16910.0 2.8688e-05
16930.0 2.8651e-05
16950.0 2.8615e-05
16970.0 2.8577e-05
16990.0 2.8539e-05
17010.0 2.8501e-05
17030.0 2.8462e-05
17050.0 2.8423e-05
17070.0 2.8382e-05
17090.0 2.8342e-05
17110.0 2.8301e-05
17130.0 2.8259e-05
17150.0 2.8217e-05
17170.0 2.8174e-05
17190.0 2.8131e-05
17210.0 2.8087e-05
17230.0 2.8043e-05
17250.0 2.7998e-05
17270.0 2.7952e-05
17290.0 2.7906e-05
17310.0 2.786e-05
17330.0 2.7813e-05
17350.0 2.7764e-05
17370.0 2.7717e-05
17390.0 2.7668e-05
17410.0 2.7618e-05
17430.0 2.7568e-05
17450.0 2.7517e-05
17470.0 2.7466e-05
17490.0 2.7414e-05
17510.0 2.7361e-05
17530.0 2.7308e-05
17550.0 2.7254e-05
17570.0 2.72e-05
17590.0 2.7146e-05
17610.0 2.709e-05
17630.0 2.7034e-05
17650.0 2.6978e-05
17670.0 2.692e-05
17690.0 2.6862e-05
17710.0 2.6804e-05
17730.0 2.6745e-05
17750.0 2.6685e-05
17770.0 2.6625e-05
17790.0 2.6565e-05
17810.0 2.6504e-05
17830.0 2.6442e-05
17850.0 2.6379e-05
17870.0 2.6317e-05
17890.0 2.6253e-05
17910.0 2.6189e-05
17930.0 2.6125e-05
17950.0 2.606e-05
17970.0 2.5994e-05
17990.0 2.5928e-05
18010.0 2.5861e-05
18030.0 2.5794e-05
18050.0 2.5726e-05
18070.0 2.5658e-05
18090.0 2.5589e-05
18110.0 2.552e-05
18130.0 2.5451e-05
18150.0 2.5381e-05
18170.0 2.531e-05
18190.0 2.5239e-05
18210.0 2.5168e-05
18230.0 2.5096e-05
18250.0 2.5023e-05
18270.0 2.4951e-05
18290.0 2.4878e-05
18310.0 2.4804e-05
18330.0 2.473e-05
18350.0 2.4657e-05
18370.0 2.4582e-05
18390.0 2.4506e-05
18410.0 2.4431e-05
18430.0 2.4356e-05
18450.0 2.4279e-05
18470.0 2.4203e-05
18490.0 2.4127e-05
18510.0 2.405e-05
18530.0 2.3972e-05
18550.0 2.3895e-05
18570.0 2.3817e-05
18590.0 2.3739e-05
18610.0 2.3661e-05
18630.0 2.3582e-05
18650.0 2.3503e-05
18670.0 2.3424e-05
18690.0 2.3345e-05
18710.0 2.3266e-05
18730.0 2.3186e-05
18750.0 2.3106e-05
18770.0 2.3027e-05
18790.0 2.2946e-05
18810.0 2.2866e-05
18830.0 2.2786e-05
18850.0 2.2705e-05
18870.0 2.2624e-05
18890.0 2.2544e-05
18910.0 2.2463e-05
18930.0 2.2382e-05
18950.0 2.2301e-05
18970.0 2.2221e-05
18990.0 2.214e-05
19010.0 2.2058e-05
19030.0 2.1977e-05
19050.0 2.1896e-05
19070.0 2.1815e-05
19090.0 2.1734e-05
19110.0 2.1653e-05
19130.0 2.1572e-05
19150.0 2.1491e-05
19170.0 2.141e-05
19190.0 2.1329e-05
19210.0 2.1248e-05
19230.0 2.1167e-05
19250.0 2.1087e-05
19270.0 2.1006e-05
19290.0 2.0925e-05
19310.0 2.0845e-05
19330.0 2.0765e-05
19350.0 2.0684e-05
19370.0 2.0604e-05
19390.0 2.0524e-05
19410.0 2.0445e-05
19430.0 2.0365e-05
19450.0 2.0286e-05
19470.0 2.0206e-05
19490.0 2.0127e-05
19510.0 2.0048e-05
19530.0 1.997e-05
19550.0 1.9891e-05
19570.0 1.9812e-05
19590.0 1.9735e-05
19610.0 1.9657e-05
19630.0 1.9579e-05
19650.0 1.9502e-05
19670.0 1.9425e-05
19690.0 1.9348e-05
19710.0 1.9271e-05
19730.0 1.9195e-05
19750.0 1.9119e-05
19770.0 1.9042e-05
19790.0 1.8967e-05
19810.0 1.8891e-05
19830.0 1.8816e-05
19850.0 1.874e-05
19870.0 1.8662e-05
19890.0 1.8581e-05
19910.0 1.8493e-05
19930.0 1.8395e-05
19950.0 1.8282e-05
19970.0 1.8142e-05
19990.0 1.7974e-05
20010.0 1.7779e-05
20030.0 1.7547e-05
20050.0 1.728e-05
20070.0 1.6994e-05
20090.0 1.6692e-05
20110.0 1.6363e-05
20130.0 1.6037e-05
20150.0 1.572e-05
20170.0 1.54e-05
20190.0 1.5083e-05
20210.0 1.4786e-05
20230.0 1.4498e-05
20250.0 1.4211e-05
20270.0 1.3941e-05
20290.0 1.3687e-05
20310.0 1.3439e-05
20330.0 1.3195e-05
20350.0 1.2975e-05
20370.0 1.2762e-05
20390.0 1.2553e-05
20410.0 1.2358e-05
20430.0 1.2177e-05
20450.0 1.1998e-05
20470.0 1.183e-05
20490.0 1.1677e-05
20510.0 1.1533e-05
20530.0 1.1396e-05
20550.0 1.1273e-05
20570.0 1.1164e-05
20590.0 1.1063e-05
20610.0 1.0974e-05
20630.0 1.0897e-05
20650.0 1.0831e-05
20670.0 1.0775e-05
20690.0 1.073e-05
20710.0 1.0695e-05
20730.0 1.0668e-05
20750.0 1.0649e-05
20770.0 1.0636e-05
20790.0 1.063e-05
20810.0 1.0629e-05
20830.0 1.063e-05
20850.0 1.0634e-05
20870.0 1.064e-05
20890.0 1.0646e-05
20910.0 1.0648e-05
20930.0 1.0649e-05
20950.0 1.0647e-05
20970.0 1.0639e-05
20990.0 1.0626e-05
21010.0 1.0607e-05
21030.0 1.0581e-05
21050.0 1.0548e-05
21070.0 1.0507e-05
21090.0 1.0458e-05
21110.0 1.0402e-05
21130.0 1.034e-05
21150.0 1.0269e-05
21170.0 1.0193e-05
21190.0 1.0113e-05
21210.0 1.0026e-05
21230.0 9.9324e-06
21250.0 9.838e-06
21270.0 9.7407e-06
21290.0 9.6386e-06
21310.0 9.5355e-06
21330.0 9.4349e-06
21350.0 9.3315e-06
21370.0 9.2277e-06
21390.0 9.1279e-06
21410.0 9.0307e-06
21430.0 8.9324e-06
21450.0 8.8408e-06
21470.0 8.7558e-06
21490.0 8.6746e-06
21510.0 8.5992e-06
21530.0 8.5328e-06
21550.0 8.4733e-06
21570.0 8.4208e-06
21590.0 8.3775e-06
21610.0 8.3431e-06
21630.0 8.317e-06
21650.0 8.3003e-06
21670.0 8.2915e-06
21690.0 8.2906e-06
21710.0 8.298e-06
21730.0 8.3117e-06
21750.0 8.3298e-06
21770.0 8.3557e-06
21790.0 8.3855e-06
21810.0 8.4165e-06
21830.0 8.4499e-06
21850.0 8.4861e-06
21870.0 8.5206e-06
21890.0 8.5522e-06
21910.0 8.584e-06
21930.0 8.613e-06
21950.0 8.6368e-06
21970.0 8.6575e-06
21990.0 8.6755e-06
22010.0 8.687e-06
22030.0 8.6934e-06
22050.0 8.6959e-06
22070.0 8.6937e-06
22090.0 8.6861e-06
22110.0 8.6747e-06
22130.0 8.6594e-06
22150.0 8.6399e-06
22170.0 8.617e-06
22190.0 8.5904e-06
22210.0 8.5604e-06
22230.0 8.5278e-06
22250.0 8.492e-06
22270.0 8.4526e-06
22290.0 8.4108e-06
22310.0 8.3662e-06
22330.0 8.3169e-06
22350.0 8.2644e-06
22370.0 8.2091e-06
22390.0 8.1491e-06
22410.0 8.0831e-06
22430.0 8.0149e-06
22450.0 7.9425e-06
22470.0 7.8633e-06
22490.0 7.7799e-06
22510.0 7.6943e-06
22530.0 7.6014e-06
22550.0 7.5026e-06
22570.0 7.4037e-06
22590.0 7.3017e-06
22610.0 7.1943e-06
22630.0 7.0863e-06
