#lamb flux
1010.0 1.0142e-05
1030.0 1.0723e-05
1050.0 1.1396e-05
1070.0 1.2153e-05
1090.0 1.3015e-05
1110.0 1.3901e-05
1130.0 1.4797e-05
1150.0 1.5738e-05
1170.0 1.6713e-05
1190.0 1.7643e-05
1210.0 1.859e-05
1230.0 1.9573e-05
1250.0 2.0542e-05
1270.0 2.1491e-05
1290.0 2.2497e-05
1310.0 2.351e-05
1330.0 2.449e-05
1350.0 2.5488e-05
1370.0 2.6524e-05
1390.0 2.7544e-05
1410.0 2.8544e-05
1430.0 2.9595e-05
1450.0 3.0655e-05
1470.0 3.169e-05
1490.0 3.2743e-05
1510.0 3.3859e-05
1530.0 3.4929e-05
1550.0 3.5992e-05
1570.0 3.7094e-05
1590.0 3.8202e-05
1610.0 3.9269e-05
1630.0 4.0368e-05
1650.0 4.1494e-05
1670.0 4.2586e-05
1690.0 4.3662e-05
1710.0 4.4771e-05
1730.0 4.5879e-05
1750.0 4.6917e-05
1770.0 4.7972e-05
1790.0 4.9034e-05
1810.0 5.0047e-05
1830.0 5.1025e-05
1850.0 5.2043e-05
1870.0 5.3012e-05
1890.0 5.3923e-05
1910.0 5.4829e-05
1930.0 5.5732e-05
1950.0 5.6561e-05
1970.0 5.7351e-05
1990.0 5.8149e-05
2010.0 5.8901e-05
2030.0 5.9591e-05
2050.0 6.0284e-05
2070.0 6.0975e-05
2090.0 6.1587e-05
2110.0 6.2175e-05
2130.0 6.2772e-05
2150.0 6.3336e-05
2170.0 6.3848e-05
2190.0 6.4384e-05
2210.0 6.4922e-05
2230.0 6.5423e-05
2250.0 6.5924e-05
2270.0 6.6473e-05
2290.0 6.7006e-05
2310.0 6.752e-05
2330.0 6.8084e-05
2350.0 6.8681e-05
2370.0 6.9273e-05
2390.0 6.9908e-05
2410.0 7.0622e-05
2430.0 7.1353e-05
2450.0 7.2114e-05
2470.0 7.2958e-05
2490.0 7.3905e-05
2510.0 7.4964e-05
2530.0 7.6367e-05
2550.0 7.8497e-05
2570.0 8.1795e-05
2590.0 8.6798e-05
2610.0 9.4838e-05
2630.0 0.00010641
2650.0 0.00012109
2670.0 0.00013918
2690.0 0.00016025
2710.0 0.00018179
2730.0 0.00020249
2750.0 0.0002227
2770.0 0.00024085
2790.0 0.00025662
2810.0 0.00027117
2830.0 0.00028545
2850.0 0.00029884
2870.0 0.00031236
2890.0 0.00032674
2910.0 0.00034174
2930.0 0.00035693
2950.0 0.00037321
2970.0 0.00039047
2990.0 0.00040798
3010.0 0.0011414
3030.0 0.0011921
3050.0 0.0012426
3070.0 0.0012887
3090.0 0.001328
3110.0 0.0013502
3130.0 0.0013431
3150.0 0.001293
3170.0 0.0011725
3190.0 0.0009789
3210.0 0.00071524
3230.0 0.00041851
3250.0 0.00073654
3270.0 0.00039023
3290.0 0.0011283
3310.0 0.00033104
3330.0 0.00032458
3350.0 0.00042303
3370.0 0.00053938
3390.0 0.00066548
3410.0 0.00079153
3430.0 0.00092414
3450.0 0.0010574
3470.0 0.0011796
3490.0 0.0012624
3510.0 0.0015547
3530.0 0.0020801
3550.0 0.0020204
3570.0 0.0016254
3590.0 0.0022887
3610.0 0.001385
3630.0 0.0023975
3650.0 0.0028149
3670.0 0.0036511
3690.0 0.0033812
3710.0 0.0021937
3730.0 0.0029319
3750.0 0.0030175
3770.0 0.0032066
3790.0 0.003025
3810.0 0.0029768
3830.0 0.0047032
3850.0 0.0056507
3870.0 0.0070262
3890.0 0.0067144
3910.0 0.0059202
3930.0 0.0060564
3950.0 0.0066277
3970.0 0.0077405
3990.0 0.0051977
4010.0 0.0028129
4030.0 0.0048127
4050.0 0.006145
4070.0 0.0067922
4090.0 0.0050598
4110.0 0.0031395
4130.0 0.004955
4150.0 0.0048814
4170.0 0.0047469
4190.0 0.004441
4210.0 0.0061275
4230.0 0.0042908
4250.0 0.0048434
4270.0 0.0048183
4290.0 0.0046619
4310.0 0.0059742
4330.0 0.0063255
4350.0 0.0049933
4370.0 0.0041558
4390.0 0.0052383
4410.0 0.005448
4430.0 0.0040279
4450.0 0.0038162
4470.0 0.0046827
4490.0 0.0034365
4510.0 0.0046562
4530.0 0.004881
4550.0 0.0060863
4570.0 0.0088025
4590.0 0.0084409
4610.0 0.0059138
4630.0 0.0099331
4650.0 0.013944
4670.0 0.013066
4690.0 0.0083426
4710.0 0.0090695
4730.0 0.011113
4750.0 0.0094643
4770.0 0.007139
4790.0 0.0046944
4810.0 0.0067636
4830.0 0.007955
4850.0 0.0068394
4870.0 0.0021898
4890.0 0.0075941
4910.0 0.010489
4930.0 0.011351
4950.0 0.011332
4970.0 0.0071269
4990.0 0.0083752
5010.0 0.010071
5030.0 0.011191
5050.0 0.010831
5070.0 0.0076511
5090.0 0.0061717
5110.0 0.0058775
5130.0 0.0054206
5150.0 0.0058529
5170.0 0.0051208
5190.0 0.0062964
5210.0 0.0063486
5230.0 0.0070133
5250.0 0.0085592
5270.0 0.0069239
5290.0 0.0069628
5310.0 0.010558
5330.0 0.012242
5350.0 0.01005
5370.0 0.0087662
5390.0 0.010288
5410.0 0.01278
5430.0 0.013861
5450.0 0.014603
5470.0 0.014445
5490.0 0.014338
5510.0 0.01709
5530.0 0.017724
5550.0 0.018936
5570.0 0.020108
5590.0 0.019831
5610.0 0.018525
5630.0 0.017918
5650.0 0.018444
5670.0 0.018065
5690.0 0.015269
5710.0 0.015023
5730.0 0.015274
5750.0 0.016358
5770.0 0.013997
5790.0 0.013008
5810.0 0.013191
5830.0 0.014106
5850.0 0.012942
5870.0 0.013064
5890.0 0.015604
5910.0 0.01461
5930.0 0.011798
5950.0 0.010358
5970.0 0.011347
5990.0 0.010379
6010.0 0.0096622
6030.0 0.0097277
6050.0 0.0089563
6070.0 0.0066808
6090.0 0.0061512
6110.0 0.0081394
6130.0 0.0093465
6150.0 0.0097116
6170.0 0.0093263
6190.0 0.0086794
6210.0 0.0087892
6230.0 0.010695
6250.0 0.0098792
6270.0 0.0089609
6290.0 0.0082391
6310.0 0.0076323
6330.0 0.0071656
6350.0 0.0062989
6370.0 0.0063036
6390.0 0.0074205
6410.0 0.0092713
6430.0 0.010823
6450.0 0.01044
6470.0 0.010307
6490.0 0.01288
6510.0 0.014953
6530.0 0.014135
6550.0 0.013406
6570.0 0.013613
6590.0 0.013329
6610.0 0.014346
6630.0 0.013359
6650.0 0.011546
6670.0 0.010512
6690.0 0.010423
6710.0 0.012797
6730.0 0.01148
6750.0 0.0094204
6770.0 0.0083531
6790.0 0.0088524
6810.0 0.010167
6830.0 0.010054
6850.0 0.0089915
6870.0 0.0093849
6890.0 0.0093269
6910.0 0.0087673
6930.0 0.0099557
6950.0 0.0091628
6970.0 0.0084411
6990.0 0.0083675
7010.0 0.0082644
7030.0 0.0079624
7050.0 0.0077136
7070.0 0.008483
7090.0 0.0079991
7110.0 0.0067795
7130.0 0.0056097
7150.0 0.0053459
7170.0 0.0070327
7190.0 0.0075652
7210.0 0.0071553
7230.0 0.0074487
7250.0 0.007028
7270.0 0.0067392
7290.0 0.007442
7310.0 0.0083455
7330.0 0.0081912
7350.0 0.0076074
7370.0 0.0070642
7390.0 0.0071712
7410.0 0.0083292
7430.0 0.0092792
7450.0 0.0098153
7470.0 0.0097459
7490.0 0.0106
7510.0 0.010418
7530.0 0.0097898
7550.0 0.0095176
7570.0 0.0083129
7590.0 0.0080848
7610.0 0.0078119
7630.0 0.0071231
7650.0 0.0076805
7670.0 0.0084576
7690.0 0.0092026
7710.0 0.010481
7730.0 0.011065
7750.0 0.011531
7770.0 0.011843
7790.0 0.012972
7810.0 0.013196
7830.0 0.011865
7850.0 0.011952
7870.0 0.011471
7890.0 0.011941
7910.0 0.011298
7930.0 0.011333
7950.0 0.0096173
7970.0 0.0097551
7990.0 0.0093739
8010.0 0.0099524
8030.0 0.0099126
8050.0 0.010526
8070.0 0.010093
8090.0 0.010145
8110.0 0.0099847
8130.0 0.0099389
8150.0 0.0093898
8170.0 0.009192
8190.0 0.0091442
8210.0 0.0092361
8230.0 0.0080726
8250.0 0.0073746
8270.0 0.0065194
8290.0 0.0055357
8310.0 0.0048915
8330.0 0.0039088
8350.0 0.0032
8370.0 0.0031381
8390.0 0.0030509
8410.0 0.003178
8430.0 0.0040609
8450.0 0.0044053
8470.0 0.0047257
8490.0 0.0055304
8510.0 0.0060216
8530.0 0.0068807
8550.0 0.0081435
8570.0 0.0089557
8590.0 0.0094418
8610.0 0.010434
8630.0 0.011796
8650.0 0.012073
8670.0 0.012308
8690.0 0.012815
8710.0 0.012591
8730.0 0.012256
8750.0 0.011348
8770.0 0.01137
8790.0 0.01123
8810.0 0.010334
8830.0 0.010386
8850.0 0.0095944
8870.0 0.0091832
8890.0 0.008244
8910.0 0.0091269
8930.0 0.0082567
8950.0 0.0082426
8970.0 0.0083904
8990.0 0.0081333
9010.0 0.0083582
9030.0 0.0079457
9050.0 0.0079052
9070.0 0.0079058
9090.0 0.0079046
9110.0 0.0079082
9130.0 0.0079045
9150.0 0.0078969
9170.0 0.0078676
9190.0 0.0078054
9210.0 0.0079253
9230.0 0.007887
9250.0 0.0078634
9270.0 0.0078426
9290.0 0.0078234
9310.0 0.0078053
9330.0 0.0077873
9350.0 0.0077692
9370.0 0.0077505
9390.0 0.0077311
9410.0 0.0077111
9430.0 0.0076905
9450.0 0.0076689
9470.0 0.0076468
9490.0 0.0076243
9510.0 0.0076012
9530.0 0.0075775
9550.0 0.0075537
9570.0 0.0075294
9590.0 0.0075047
9610.0 0.0074797
9630.0 0.0074548
9650.0 0.0074296
9670.0 0.0074039
9690.0 0.0073785
9710.0 0.0073531
9730.0 0.0073274
9750.0 0.0073018
9770.0 0.0072768
9790.0 0.0072514
9810.0 0.0072261
9830.0 0.0072013
9850.0 0.0071767
9870.0 0.0071519
9890.0 0.0071276
9910.0 0.0071039
9930.0 0.0070802
9950.0 0.007044
9970.0 0.0070251
9990.0 0.0070061
10010.0 0.0069864
10030.0 0.0069663
10050.0 0.0069438
10070.0 0.0069095
10090.0 0.0068944
10110.0 0.006879
10130.0 0.0068628
10150.0 0.0068464
10170.0 0.0068294
10190.0 0.0068119
10210.0 0.0067954
10230.0 0.0067794
10250.0 0.0067633
10270.0 0.0067478
10290.0 0.0067334
10310.0 0.0067191
10330.0 0.0067049
10350.0 0.006692
10370.0 0.0066797
10390.0 0.0066675
10410.0 0.0066559
10430.0 0.0066455
10450.0 0.0066352
10470.0 0.0066253
10490.0 0.0066163
10510.0 0.006608
10530.0 0.0065995
10550.0 0.0065919
10570.0 0.0065853
10590.0 0.0065788
10610.0 0.0065728
10630.0 0.0065677
10650.0 0.006563
10670.0 0.0065584
10690.0 0.0065546
10710.0 0.0065515
10730.0 0.0065486
10750.0 0.006546
10770.0 0.0065444
10790.0 0.0065431
10810.0 0.006542
10830.0 0.0065412
10850.0 0.0065406
10870.0 0.0065387
10890.0 0.0065346
10910.0 0.006527
10930.0 0.0065122
10950.0 0.0064851
10970.0 0.0064432
10990.0 0.0063852
11010.0 0.0064599
11030.0 0.006353
11050.0 0.0062271
11070.0 0.0060812
11090.0 0.0059117
11110.0 0.0057424
11130.0 0.0055728
11150.0 0.0053987
11170.0 0.0052289
11190.0 0.0050736
11210.0 0.004923
11230.0 0.0047787
11250.0 0.0046499
11270.0 0.0045337
11290.0 0.004424
11310.0 0.0043252
11330.0 0.0042414
11350.0 0.0041634
11370.0 0.0040906
11390.0 0.0040254
11410.0 0.0039645
11430.0 0.003902
11450.0 0.003841
11470.0 0.0037811
11490.0 0.003718
11510.0 0.00365
11530.0 0.003582
11550.0 0.0035116
11570.0 0.0034352
11590.0 0.0033566
11610.0 0.0032786
11630.0 0.0031957
11650.0 0.0031092
11670.0 0.0030265
11690.0 0.0029439
11710.0 0.0028592
11730.0 0.0027769
11750.0 0.0027001
11770.0 0.0026225
11790.0 0.0025468
11810.0 0.0024768
11830.0 0.0024101
11850.0 0.002343
11870.0 0.0022813
11890.0 0.0022248
11910.0 0.002169
11930.0 0.0021151
11950.0 0.0020657
11970.0 0.0020177
11990.0 0.0019691
12010.0 0.0019236
12030.0 0.0018806
12050.0 0.0018375
12070.0 0.001795
12090.0 0.0017572
12110.0 0.0017207
12130.0 0.0016855
12150.0 0.0016542
12170.0 0.0016274
12190.0 0.0016028
12210.0 0.0015836
12230.0 0.0015706
12250.0 0.0015633
12270.0 0.0015625
12290.0 0.0015689
12310.0 0.0015819
12330.0 0.0016023
12350.0 0.0016297
12370.0 0.0016624
12390.0 0.0017006
12410.0 0.0017455
12430.0 0.0017915
12450.0 0.001839
12470.0 0.0018888
12490.0 0.001938
12510.0 0.001984
12530.0 0.0020288
12550.0 0.0020713
12570.0 0.0021089
12590.0 0.0021423
12610.0 0.0021724
12630.0 0.0021979
12650.0 0.0022183
12670.0 0.0022351
12690.0 0.0022482
12710.0 0.0022575
12730.0 0.0022637
12750.0 0.0022667
12770.0 0.0022668
12790.0 0.0022646
12810.0 0.0022597
12830.0 0.0022519
12850.0 0.0022424
12870.0 0.0022307
12890.0 0.0022158
12910.0 0.0021985
12930.0 0.0021795
12950.0 0.0021567
12970.0 0.0021304
12990.0 0.002103
13010.0 0.0020731
13030.0 0.0020395
13050.0 0.0020044
13070.0 0.0019693
13090.0 0.0019313
13110.0 0.0018924
13130.0 0.0018551
13150.0 0.0018185
13170.0 0.0017814
13190.0 0.0017481
13210.0 0.0017189
13230.0 0.001692
13250.0 0.0016691
13270.0 0.0016515
13290.0 0.0016379
13310.0 0.0016281
13330.0 0.001623
13350.0 0.0016214
13370.0 0.0016225
13390.0 0.0016257
13410.0 0.00163
13430.0 0.0016344
13450.0 0.0016381
13470.0 0.0016402
13490.0 0.0016403
13510.0 0.0016375
13530.0 0.0016316
13550.0 0.0016232
13570.0 0.0016119
13590.0 0.0015978
13610.0 0.0015822
13630.0 0.0015658
13650.0 0.0015478
13670.0 0.0015296
13690.0 0.0015124
13710.0 0.0014956
13730.0 0.0014788
13750.0 0.0014641
13770.0 0.0014506
13790.0 0.0014375
13810.0 0.0014254
13830.0 0.0014144
13850.0 0.0014033
13870.0 0.0013921
13890.0 0.0013812
13910.0 0.00137
13930.0 0.001358
13950.0 0.0013456
13970.0 0.0013335
13990.0 0.0013208
14010.0 0.0013079
14030.0 0.0012957
14050.0 0.0012839
14070.0 0.0012723
14090.0 0.0012619
14110.0 0.0012528
14130.0 0.0012447
14150.0 0.0012378
14170.0 0.0012325
14190.0 0.0012285
14210.0 0.0012257
14230.0 0.0012243
14250.0 0.0012241
14270.0 0.0012252
14290.0 0.0012278
14310.0 0.0012313
14330.0 0.0012359
14350.0 0.0012418
14370.0 0.0012485
14390.0 0.0012556
14410.0 0.0012636
14430.0 0.0012721
14450.0 0.0012803
14470.0 0.0012885
14490.0 0.0012971
14510.0 0.0013049
14530.0 0.0013121
14550.0 0.0013195
14570.0 0.0013268
14590.0 0.0013338
14610.0 0.0013414
14630.0 0.0013501
14650.0 0.0013595
14670.0 0.0013699
14690.0 0.0013825
14710.0 0.0013974
14730.0 0.0014131
14750.0 0.0014314
14770.0 0.0014525
14790.0 0.0014749
14810.0 0.0014984
14830.0 0.0015253
14850.0 0.0015528
14870.0 0.0015797
14890.0 0.0016069
14910.0 0.0016339
14930.0 0.0016579
14950.0 0.0016784
14970.0 0.0016962
14990.0 0.0017091
15010.0 0.0017167
15030.0 0.00172
15050.0 0.0017194
15070.0 0.0017152
15090.0 0.0017087
15110.0 0.0017007
15130.0 0.0016918
15150.0 0.0016824
15170.0 0.0016728
15190.0 0.0016629
15210.0 0.0016531
15230.0 0.0016434
15250.0 0.0016335
15270.0 0.0016236
15290.0 0.0016139
15310.0 0.0016042
15330.0 0.0015944
15350.0 0.0015847
15370.0 0.0015751
15390.0 0.0015653
15410.0 0.0015557
15430.0 0.0015461
15450.0 0.0015366
15470.0 0.0015269
15490.0 0.0015175
15510.0 0.0015081
15530.0 0.0014986
15550.0 0.0014892
15570.0 0.00148
15590.0 0.0014706
15610.0 0.0014613
15630.0 0.0014521
15650.0 0.001443
15670.0 0.0014338
15690.0 0.0014247
15710.0 0.0014158
15730.0 0.0014068
15750.0 0.0013978
15770.0 0.001389
15790.0 0.0013802
15810.0 0.0013713
15830.0 0.0013626
15850.0 0.001354
15870.0 0.0013454
15890.0 0.0013368
15910.0 0.0013284
15930.0 0.0013199
15950.0 0.0013114
15970.0 0.0013031
15990.0 0.0012949
16010.0 0.0012866
16030.0 0.0012784
16050.0 0.0012704
16070.0 0.0012624
16090.0 0.0012543
16110.0 0.0012464
16130.0 0.0012386
16150.0 0.0012307
16170.0 0.0012229
16190.0 0.0012152
16210.0 0.0012076
16230.0 0.0011999
16250.0 0.0011925
16270.0 0.0011851
16290.0 0.0011776
16310.0 0.0011702
16330.0 0.001163
16350.0 0.0011558
16370.0 0.0011484
16390.0 0.0011414
16410.0 0.0011344
16430.0 0.0011273
16450.0 0.0011203
16470.0 0.0011135
16490.0 0.0011067
16510.0 0.0010998
16530.0 0.0010931
16550.0 0.0010865
16570.0 0.0010798
16590.0 0.0010732
16610.0 0.0010668
16630.0 0.0010603
16650.0 0.0010538
16670.0 0.0010475
16690.0 0.0010413
16710.0 0.0010349
16730.0 0.0010287
16750.0 0.0010227
16770.0 0.0010165
16790.0 0.0010104
16810.0 0.0010045
16830.0 0.00099859
16850.0 0.00099263
16870.0 0.00098679
16890.0 0.00098107
16910.0 0.00097526
16930.0 0.00096947
16950.0 0.00096388
16970.0 0.00095829
16990.0 0.00095266
17010.0 0.00094716
17030.0 0.00094177
17050.0 0.00093629
17070.0 0.00093086
17090.0 0.00092557
17110.0 0.00092029
17130.0 0.00091493
17150.0 0.00090973
17170.0 0.00090462
17190.0 0.00089946
17210.0 0.00089434
17230.0 0.00088937
17250.0 0.00088436
17270.0 0.00087931
17290.0 0.00087439
17310.0 0.00086955
17330.0 0.00086465
17350.0 0.00085976
17370.0 0.00085508
17390.0 0.00085035
17410.0 0.00084559
17430.0 0.00084094
17450.0 0.00083639
17470.0 0.00083168
17490.0 0.00082709
17510.0 0.00082262
17530.0 0.00081812
17550.0 0.0008136
17570.0 0.00080921
17590.0 0.00080488
17610.0 0.00080046
17630.0 0.00079611
17650.0 0.00079187
17670.0 0.0007876
17690.0 0.00078324
17710.0 0.0007791
17730.0 0.00077497
17750.0 0.00077077
17770.0 0.00076665
17790.0 0.00076266
17810.0 0.00075856
17830.0 0.00075447
17850.0 0.00075051
17870.0 0.00074657
17890.0 0.00074255
17910.0 0.0007386
17930.0 0.0007348
17950.0 0.00073092
17970.0 0.00072705
17990.0 0.00072329
18010.0 0.00071955
18030.0 0.00071569
18050.0 0.00071195
18070.0 0.0007083
18090.0 0.00070459
18110.0 0.00070087
18130.0 0.0006973
18150.0 0.00069373
18170.0 0.00069008
18190.0 0.00068653
18210.0 0.00068306
18230.0 0.00067948
18250.0 0.00067591
18270.0 0.0006725
18290.0 0.00066907
18310.0 0.00066559
18330.0 0.0006622
18350.0 0.0006589
18370.0 0.00065548
18390.0 0.0006521
18410.0 0.00064883
18430.0 0.00064554
18450.0 0.00064217
18470.0 0.00063893
18490.0 0.00063575
18510.0 0.0006325
18530.0 0.00062927
18550.0 0.00062617
18570.0 0.000623
18590.0 0.00061978
18610.0 0.00061668
18630.0 0.00061362
18650.0 0.00061048
18670.0 0.00060736
18690.0 0.0006044
18710.0 0.00060137
18730.0 0.0005983
18750.0 0.00059534
18770.0 0.00059242
18790.0 0.00058936
18810.0 0.00058639
18830.0 0.00058352
18850.0 0.0005806
18870.0 0.00057765
18890.0 0.00057481
18910.0 0.000572
18930.0 0.0005691
18950.0 0.00056625
18970.0 0.0005635
18990.0 0.00056068
19010.0 0.00055778
19030.0 0.00055508
19050.0 0.00055236
19070.0 0.00054957
19090.0 0.00054684
19110.0 0.00054422
19130.0 0.00054148
19150.0 0.00053874
19170.0 0.00053611
19190.0 0.00053348
19210.0 0.00053077
19230.0 0.00052812
19250.0 0.00052559
19270.0 0.00052297
19290.0 0.00052034
19310.0 0.00051782
19330.0 0.00051529
19350.0 0.00051264
19370.0 0.00051011
19390.0 0.00050763
19410.0 0.00050509
19430.0 0.00050254
19450.0 0.00050012
19470.0 0.00049767
19490.0 0.00049515
19510.0 0.0004927
19530.0 0.00049032
19550.0 0.00048783
19570.0 0.00048535
19590.0 0.000483
19610.0 0.00048062
19630.0 0.00047818
19650.0 0.00047582
19670.0 0.00047353
19690.0 0.00047111
19710.0 0.00046874
19730.0 0.00046645
19750.0 0.00046413
19770.0 0.00046172
19790.0 0.00045944
19810.0 0.00045719
19830.0 0.00045486
19850.0 0.00045252
19870.0 0.00045024
19890.0 0.00044778
19910.0 0.00044506
19930.0 0.00044216
19950.0 0.00043883
19970.0 0.00043472
19990.0 0.0004298
20010.0 0.00042428
20030.0 0.00041769
20050.0 0.00041013
20070.0 0.00040217
20090.0 0.00039387
20110.0 0.00038478
20130.0 0.00037596
20150.0 0.00036756
20170.0 0.00035919
20190.0 0.00035103
20210.0 0.00034364
20230.0 0.0003367
20250.0 0.00032999
20270.0 0.00032402
20290.0 0.00031881
20310.0 0.00031407
20330.0 0.00030991
20350.0 0.00030674
20370.0 0.00030422
20390.0 0.00030238
20410.0 0.00030136
20430.0 0.0003011
20450.0 0.00030161
20470.0 0.00030293
20490.0 0.00030496
20510.0 0.00030771
20530.0 0.00031127
20550.0 0.00031541
20570.0 0.00031996
20590.0 0.00032517
20610.0 0.00033081
20630.0 0.00033655
20650.0 0.00034254
20670.0 0.0003489
20690.0 0.00035496
20710.0 0.00036077
20730.0 0.00036652
20750.0 0.00037195
20770.0 0.00037674
20790.0 0.00038121
20810.0 0.0003853
20830.0 0.0003888
20850.0 0.00039179
20870.0 0.00039446
20890.0 0.00039671
20910.0 0.00039851
20930.0 0.00040004
20950.0 0.00040133
20970.0 0.00040236
20990.0 0.00040316
21010.0 0.00040379
21030.0 0.0004042
21050.0 0.00040439
21070.0 0.00040436
21090.0 0.00040407
21110.0 0.00040354
21130.0 0.00040279
21150.0 0.00040175
21170.0 0.00040048
21190.0 0.00039906
21210.0 0.0003974
21230.0 0.00039555
21250.0 0.00039367
21270.0 0.00039175
21290.0 0.00038975
21310.0 0.0003878
21330.0 0.00038602
21350.0 0.00038429
21370.0 0.00038269
21390.0 0.00038133
21410.0 0.00038017
21430.0 0.00037918
21450.0 0.00037848
21470.0 0.00037805
21490.0 0.00037784
21510.0 0.0003779
21530.0 0.0003782
21550.0 0.00037874
21570.0 0.00037954
21590.0 0.00038056
21610.0 0.00038178
21630.0 0.00038325
21650.0 0.000385
21670.0 0.00038686
21690.0 0.00038895
21710.0 0.00039132
21730.0 0.00039388
21750.0 0.00039656
21770.0 0.00039963
21790.0 0.00040292
21810.0 0.00040632
21830.0 0.00040997
21850.0 0.00041397
21870.0 0.00041808
21890.0 0.00042225
21910.0 0.00042676
21930.0 0.00043143
21950.0 0.00043605
21970.0 0.00044083
21990.0 0.00044588
22010.0 0.0004507
22030.0 0.00045541
22050.0 0.00046017
22070.0 0.00046477
22090.0 0.00046896
22110.0 0.00047299
22130.0 0.00047676
22150.0 0.00048002
22170.0 0.0004828
22190.0 0.00048517
22210.0 0.00048693
22230.0 0.00048801
22250.0 0.00048848
22270.0 0.00048825
22290.0 0.00048733
22310.0 0.00048574
22330.0 0.00048331
22350.0 0.00048018
22370.0 0.00047646
22390.0 0.00047198
22410.0 0.00046668
22430.0 0.00046105
22450.0 0.00045494
22470.0 0.00044811
22490.0 0.00044094
22510.0 0.0004337
22530.0 0.00042588
22550.0 0.0004177
22570.0 0.00040976
22590.0 0.00040176
22610.0 0.0003935
22630.0 0.00038543
22650.0 0.00037783
22670.0 0.00037011
22690.0 0.00036255
22710.0 0.0003555
22730.0 0.00034876
22750.0 0.00034196
22770.0 0.00033577
22790.0 0.0003301
22810.0 0.00032463
22830.0 0.00031948
22850.0 0.00031493
22870.0 0.0003107
22890.0 0.00030672
22910.0 0.00030326
22930.0 0.00030027
22950.0 0.00029759
22970.0 0.0002953
22990.0 0.00029358
23010.0 0.00029224
23030.0 0.0002913
23050.0 0.00029081
23070.0 0.00029073
23090.0 0.00029107
23110.0 0.00029181
23130.0 0.00029289
23150.0 0.0002943
23170.0 0.00029605
23190.0 0.00029801
23210.0 0.0003001
23230.0 0.00030244
23250.0 0.00030487
23270.0 0.00030726
23290.0 0.00030971
23310.0 0.00031223
23330.0 0.00031454
23350.0 0.00031672
23370.0 0.00031882
23390.0 0.00032073
23410.0 0.00032237
23430.0 0.00032384
23450.0 0.0003251
