#lamb flux
1010.0 3.7365e-05
1030.0 3.7365e-05
1050.0 3.7365e-05
1070.0 3.7365e-05
1090.0 3.7365e-05
1110.0 3.7365e-05
1130.0 3.7365e-05
1150.0 3.7365e-05
1170.0 3.7365e-05
1190.0 3.7365e-05
1210.0 3.7365e-05
1230.0 3.7365e-05
1250.0 3.7365e-05
1270.0 3.7365e-05
1290.0 3.7365e-05
1310.0 3.7365e-05
1330.0 3.7365e-05
1350.0 3.7365e-05
1370.0 3.7365e-05
1390.0 3.7365e-05
1410.0 3.7365e-05
1430.0 3.7365e-05
1450.0 4.1435e-05
1470.0 4.7091e-05
1490.0 5.346e-05
1510.0 6.066e-05
1530.0 6.8488e-05
1550.0 7.705e-05
1570.0 8.6524e-05
1590.0 9.6899e-05
1610.0 0.00010804
1630.0 0.00012009
1650.0 0.00013333
1670.0 0.00014759
1690.0 0.000163
1710.0 0.00017983
1730.0 0.00019801
1750.0 0.00021721
1770.0 0.00023786
1790.0 0.00025992
1810.0 0.00028302
1830.0 0.00030712
1850.0 0.00033267
1870.0 0.00035891
1890.0 0.00038557
1910.0 0.00041284
1930.0 0.00044058
1950.0 0.00046789
1970.0 0.00049478
1990.0 0.00052146
2010.0 0.00054715
2030.0 0.00057137
2050.0 0.00059454
2070.0 0.00061642
2090.0 0.00063589
2110.0 0.00065339
2130.0 0.00066915
2150.0 0.00068254
2170.0 0.00069325
2190.0 0.00070216
2210.0 0.00070895
2230.0 0.00071318
2250.0 0.00071535
2270.0 0.00071608
2290.0 0.0007147
2310.0 0.00071131
2330.0 0.0007068
2350.0 0.00070112
2370.0 0.000694
2390.0 0.00068614
2410.0 0.0006781
2430.0 0.0006694
2450.0 0.00066036
2470.0 0.00065173
2490.0 0.00064378
2510.0 0.00063636
2530.0 0.00063133
2550.0 0.00063115
2570.0 0.00063796
2590.0 0.0006545
2610.0 0.00068831
2630.0 0.00074093
2650.0 0.00080934
2670.0 0.00089582
2690.0 0.00099944
2710.0 0.0011082
2730.0 0.0012175
2750.0 0.0013332
2770.0 0.001448
2790.0 0.0015588
2810.0 0.0016733
2830.0 0.001798
2850.0 0.001921
2870.0 0.002049
2890.0 0.0021883
2910.0 0.0023345
2930.0 0.0024824
2950.0 0.0026428
2970.0 0.0028143
2990.0 0.0029896
3010.0 0.0031722
3030.0 0.0033684
3050.0 0.0035719
3070.0 0.0037714
3090.0 0.0039741
3110.0 0.0041689
3130.0 0.0043399
3150.0 0.0044799
3170.0 0.0045794
3190.0 0.0046249
3210.0 0.0046075
3230.0 0.0045469
3250.0 0.004524
3270.0 0.0045856
3290.0 0.0047065
3310.0 0.004857
3330.0 0.0050427
3350.0 0.0052518
3370.0 0.0054875
3390.0 0.0057626
3410.0 0.0060238
3430.0 0.0064311
3450.0 0.006756
3470.0 0.0070966
3490.0 0.0073853
3510.0 0.0077356
3530.0 0.0088947
3550.0 0.010515
3570.0 0.011504
3590.0 0.011936
3610.0 0.01198
3630.0 0.011613
3650.0 0.01255
3670.0 0.014927
3690.0 0.016808
3710.0 0.017807
3730.0 0.01864
3750.0 0.019555
3770.0 0.019395
3790.0 0.018372
3810.0 0.017203
3830.0 0.016026
3850.0 0.015914
3870.0 0.017227
3890.0 0.018591
3910.0 0.019532
3930.0 0.020128
3950.0 0.021897
3970.0 0.023545
3990.0 0.022501
4010.0 0.019795
4030.0 0.01734
4050.0 0.016604
4070.0 0.017023
4090.0 0.017028
4110.0 0.016652
4130.0 0.016376
4150.0 0.016546
4170.0 0.018029
4190.0 0.019799
4210.0 0.019577
4230.0 0.018519
4250.0 0.018051
4270.0 0.01804
4290.0 0.018812
4310.0 0.019637
4330.0 0.018696
4350.0 0.01622
4370.0 0.0142
4390.0 0.012762
4410.0 0.011538
4430.0 0.01147
4450.0 0.01245
4470.0 0.013313
4490.0 0.014461
4510.0 0.016545
4530.0 0.02093
4550.0 0.026595
4570.0 0.029985
4590.0 0.031966
4610.0 0.035108
4630.0 0.037365
4650.0 0.03495
4670.0 0.028655
4690.0 0.023448
4710.0 0.021317
4730.0 0.020691
4750.0 0.019076
4770.0 0.01769
4790.0 0.018587
4810.0 0.020324
4830.0 0.020524
4850.0 0.019179
4870.0 0.018609
4890.0 0.019851
4910.0 0.021117
4930.0 0.021274
4950.0 0.020542
4970.0 0.019255
4990.0 0.017407
5010.0 0.015759
5030.0 0.014801
5050.0 0.014359
5070.0 0.014005
5090.0 0.013592
5110.0 0.013473
5130.0 0.013555
5150.0 0.01419
5170.0 0.015769
5190.0 0.01778
5210.0 0.020024
5230.0 0.021431
5250.0 0.022107
5270.0 0.023225
5290.0 0.024558
5310.0 0.024997
5330.0 0.023962
5350.0 0.022527
5370.0 0.022375
5390.0 0.023857
5410.0 0.025742
5430.0 0.026847
5450.0 0.026981
5470.0 0.026259
5490.0 0.025121
5510.0 0.024325
5530.0 0.024073
5550.0 0.024111
5570.0 0.024048
5590.0 0.023351
5610.0 0.02216
5630.0 0.020583
5650.0 0.018938
5670.0 0.017893
5690.0 0.017312
5710.0 0.016956
5730.0 0.016937
5750.0 0.016686
5770.0 0.016255
5790.0 0.016214
5810.0 0.01625
5830.0 0.016344
5850.0 0.016373
5870.0 0.015962
5890.0 0.015197
5910.0 0.014212
5930.0 0.012754
5950.0 0.01155
5970.0 0.011216
5990.0 0.011529
6010.0 0.011753
6030.0 0.011361
6050.0 0.010984
6070.0 0.011398
6090.0 0.012283
6110.0 0.0128
6130.0 0.012483
6150.0 0.011761
6170.0 0.011243
6190.0 0.010762
6210.0 0.010118
6230.0 0.0094463
6250.0 0.0091275
6270.0 0.0093294
6290.0 0.0096882
6310.0 0.01026
6330.0 0.011093
6350.0 0.011981
6370.0 0.012477
6390.0 0.012599
6410.0 0.012722
6430.0 0.012847
6450.0 0.012986
6470.0 0.013242
6490.0 0.01352
6510.0 0.013714
6530.0 0.013711
6550.0 0.013495
6570.0 0.013038
6590.0 0.012433
6610.0 0.012
6630.0 0.011751
6650.0 0.011384
6670.0 0.01087
6690.0 0.010431
6710.0 0.010203
6730.0 0.010098
6750.0 0.0099444
6770.0 0.0097559
6790.0 0.0095973
6810.0 0.0093984
6830.0 0.0092866
6850.0 0.0094483
6870.0 0.0095509
6890.0 0.009454
6910.0 0.0092468
6930.0 0.0090529
6950.0 0.0088854
6970.0 0.0085843
6990.0 0.0082573
7010.0 0.008114
7030.0 0.0080338
7050.0 0.0077971
7070.0 0.0074471
7090.0 0.0072976
7110.0 0.0074828
7130.0 0.0079403
7150.0 0.0084308
7170.0 0.0087481
7190.0 0.0086861
7210.0 0.0083465
7230.0 0.0081283
7250.0 0.008111
7270.0 0.0080908
7290.0 0.0080243
7310.0 0.0080839
7330.0 0.008325
7350.0 0.0086418
7370.0 0.008836
7390.0 0.0088109
7410.0 0.0086203
7430.0 0.00837
7450.0 0.0080784
7470.0 0.0076933
7490.0 0.0074276
7510.0 0.007212
7530.0 0.0071029
7550.0 0.0071746
7570.0 0.0072842
7590.0 0.0073646
7610.0 0.0073622
7630.0 0.007351
7650.0 0.007433
7670.0 0.0076487
7690.0 0.0079153
7710.0 0.0082232
7730.0 0.0084687
7750.0 0.0087547
7770.0 0.008973
7790.0 0.0091068
7810.0 0.0091427
7830.0 0.0091663
7850.0 0.0090312
7870.0 0.0086683
7890.0 0.0082888
7910.0 0.0080558
7930.0 0.0078922
7950.0 0.0077343
7970.0 0.0076661
7990.0 0.0077335
8010.0 0.0074605
8030.0 0.0074034
8050.0 0.0073224
8070.0 0.0072161
8090.0 0.0071072
8110.0 0.0071226
8130.0 0.0071805
8150.0 0.0071719
8170.0 0.0071361
8190.0 0.0069699
8210.0 0.0065872
8230.0 0.0061668
8250.0 0.0059306
8270.0 0.005751
8290.0 0.0055648
8310.0 0.005484
8330.0 0.0054835
8350.0 0.0053589
8370.0 0.0053004
8390.0 0.0054872
8410.0 0.0058199
8430.0 0.0062472
8450.0 0.0066972
8470.0 0.006965
8490.0 0.0072044
8510.0 0.0073781
8530.0 0.0075519
8550.0 0.0077265
8570.0 0.0078488
8590.0 0.0079613
8610.0 0.0081898
8630.0 0.0082949
8650.0 0.0081505
8670.0 0.0081748
8690.0 0.0083257
8710.0 0.008468
8730.0 0.0084663
8750.0 0.0082807
8770.0 0.0082197
8790.0 0.0081987
8810.0 0.008083
8830.0 0.0075718
8850.0 0.0069248
8870.0 0.006464
8890.0 0.0062373
8910.0 0.0059192
8930.0 0.0055167
8950.0 0.0052606
8970.0 0.0052253
8990.0 0.0052866
9010.0 0.0052871
9030.0 0.0052478
9050.0 0.0052117
9070.0 0.0051813
9090.0 0.0051519
9110.0 0.0051229
9130.0 0.0050939
9150.0 0.0050652
9170.0 0.0050365
9190.0 0.005008
9210.0 0.0049797
9230.0 0.0049515
9250.0 0.0049237
9270.0 0.0048958
9290.0 0.0048682
9310.0 0.0048408
9330.0 0.0048135
9350.0 0.0047864
9370.0 0.0047594
9390.0 0.0047326
9410.0 0.004706
9430.0 0.004679
9450.0 0.0046502
9470.0 0.0046223
9490.0 0.0045986
9510.0 0.0045738
9530.0 0.0045491
9550.0 0.0045238
9570.0 0.0044986
9590.0 0.0044736
9610.0 0.0044487
9630.0 0.0044237
9650.0 0.0043988
9670.0 0.0043745
9690.0 0.0043499
9710.0 0.0043254
9730.0 0.0043013
9750.0 0.0042773
9770.0 0.004253
9790.0 0.0042291
9810.0 0.0042055
9830.0 0.0041814
9850.0 0.0041558
9870.0 0.0041329
9890.0 0.0041102
9910.0 0.0040872
9930.0 0.0040641
9950.0 0.0040413
9970.0 0.0040181
9990.0 0.0039945
10010.0 0.0039688
10030.0 0.0039448
10050.0 0.0039233
10070.0 0.0039015
10090.0 0.0038797
10110.0 0.0038558
10130.0 0.0038246
10150.0 0.0038034
10170.0 0.0037838
10190.0 0.0037622
10210.0 0.003741
10230.0 0.0037195
10250.0 0.0036966
10270.0 0.0036736
10290.0 0.0036515
10310.0 0.0036283
10330.0 0.0036042
10350.0 0.0035814
10370.0 0.0035586
10390.0 0.0035347
10410.0 0.003511
10430.0 0.0034884
10450.0 0.0034647
10470.0 0.0034405
10490.0 0.0034171
10510.0 0.0033938
10530.0 0.0033687
10550.0 0.0033443
10570.0 0.0033208
10590.0 0.0032963
10610.0 0.0032713
10630.0 0.0032472
10650.0 0.003223
10670.0 0.0031972
10690.0 0.0031721
10710.0 0.0031475
10730.0 0.0031218
10750.0 0.0030952
10770.0 0.0030702
10790.0 0.0030448
10810.0 0.0030182
10830.0 0.002992
10850.0 0.0029667
10870.0 0.0029395
10890.0 0.0029122
10910.0 0.0028861
10930.0 0.0028597
10950.0 0.0028324
10970.0 0.0028061
10990.0 0.0027812
11010.0 0.0026998
11030.0 0.0026738
11050.0 0.0026494
11070.0 0.0026254
11090.0 0.0026007
11110.0 0.0025781
11130.0 0.0025564
11150.0 0.002535
11170.0 0.0025145
11190.0 0.0024961
11210.0 0.0024784
11230.0 0.0024616
11250.0 0.0024467
11270.0 0.0024334
11290.0 0.0024208
11310.0 0.0024096
11330.0 0.0024
11350.0 0.0023911
11370.0 0.0023827
11390.0 0.0023752
11410.0 0.0023681
11430.0 0.0023608
11450.0 0.0023535
11470.0 0.0023461
11490.0 0.0023381
11510.0 0.0023291
11530.0 0.0023197
11550.0 0.0023095
11570.0 0.0022978
11590.0 0.002285
11610.0 0.0022714
11630.0 0.0022559
11650.0 0.0022386
11670.0 0.0022205
11690.0 0.0022011
11710.0 0.0021794
11730.0 0.0021564
11750.0 0.0021328
11770.0 0.002107
11790.0 0.0020795
11810.0 0.0020516
11830.0 0.0020227
11850.0 0.0019913
11870.0 0.00196
11890.0 0.0019292
11910.0 0.0018972
11930.0 0.0018648
11950.0 0.0018338
11970.0 0.0018031
11990.0 0.0017718
12010.0 0.0017422
12030.0 0.0017142
12050.0 0.0016865
12070.0 0.0016595
12090.0 0.0016352
12110.0 0.0016119
12130.0 0.0015894
12150.0 0.0015688
12170.0 0.0015501
12190.0 0.001532
12210.0 0.0015158
12230.0 0.0015018
12250.0 0.0014894
12270.0 0.0014785
12290.0 0.0014697
12310.0 0.0014628
12330.0 0.0014574
12350.0 0.0014535
12370.0 0.0014511
12390.0 0.0014499
12410.0 0.0014498
12430.0 0.0014505
12450.0 0.0014517
12470.0 0.0014534
12490.0 0.0014555
12510.0 0.0014574
12530.0 0.0014593
12550.0 0.0014611
12570.0 0.0014623
12590.0 0.0014629
12610.0 0.0014629
12630.0 0.0014619
12650.0 0.0014599
12670.0 0.0014567
12690.0 0.0014521
12710.0 0.0014463
12730.0 0.0014392
12750.0 0.0014304
12770.0 0.0014204
12790.0 0.0014094
12810.0 0.0013971
12830.0 0.0013835
12850.0 0.0013696
12870.0 0.0013553
12890.0 0.0013401
12910.0 0.0013249
12930.0 0.00131
12950.0 0.0012949
12970.0 0.0012796
12990.0 0.0012654
13010.0 0.0012515
13030.0 0.0012376
13050.0 0.0012244
13070.0 0.001212
13090.0 0.0011997
13110.0 0.0011878
13130.0 0.0011766
13150.0 0.0011659
13170.0 0.0011552
13190.0 0.0011453
13210.0 0.0011361
13230.0 0.0011272
13250.0 0.0011186
13270.0 0.0011108
13290.0 0.0011033
13310.0 0.001096
13330.0 0.0010891
13350.0 0.0010825
13370.0 0.0010759
13390.0 0.0010692
13410.0 0.0010627
13430.0 0.0010561
13450.0 0.001049
13470.0 0.0010419
13490.0 0.0010345
13510.0 0.0010264
13530.0 0.0010179
13550.0 0.0010094
13570.0 0.0010003
13590.0 0.00099068
13610.0 0.00098099
13630.0 0.0009713
13650.0 0.00096104
13670.0 0.00095069
13690.0 0.00094058
13710.0 0.00093029
13730.0 0.00091955
13750.0 0.0009094
13770.0 0.00089939
13790.0 0.00088915
13810.0 0.00087906
13830.0 0.00086949
13850.0 0.00085976
13870.0 0.00085003
13890.0 0.0008408
13910.0 0.00083186
13930.0 0.00082286
13950.0 0.0008142
13970.0 0.00080626
13990.0 0.00079841
14010.0 0.00079078
14030.0 0.00078371
14050.0 0.00077701
14070.0 0.00077026
14090.0 0.00076398
14110.0 0.00075811
14130.0 0.00075233
14150.0 0.00074665
14170.0 0.00074141
14190.0 0.00073634
14210.0 0.00073125
14230.0 0.0007264
14250.0 0.00072183
14270.0 0.00071723
14290.0 0.0007127
14310.0 0.00070852
14330.0 0.00070445
14350.0 0.00070039
14370.0 0.00069654
14390.0 0.00069294
14410.0 0.0006893
14430.0 0.00068577
14450.0 0.00068248
14470.0 0.00067928
14490.0 0.00067602
14510.0 0.00067297
14530.0 0.00067007
14550.0 0.0006671
14570.0 0.0006641
14590.0 0.0006612
14610.0 0.00065818
14630.0 0.00065495
14650.0 0.00065175
14670.0 0.00064855
14690.0 0.00064523
14710.0 0.00064194
14730.0 0.00063906
14750.0 0.00063644
14770.0 0.00063425
14790.0 0.00063281
14810.0 0.00063223
14830.0 0.00063264
14850.0 0.00063427
14870.0 0.00063707
14890.0 0.0006411
14910.0 0.00064635
14930.0 0.00065227
14950.0 0.00065852
14970.0 0.00066504
14990.0 0.0006711
15010.0 0.00067626
15030.0 0.00068058
15050.0 0.000684
15070.0 0.00068641
15090.0 0.00068817
15110.0 0.0006895
15130.0 0.00069052
15150.0 0.00069141
15170.0 0.00069222
15190.0 0.00069301
15210.0 0.00069381
15230.0 0.00069463
15250.0 0.00069546
15270.0 0.00069631
15290.0 0.00069721
15310.0 0.00069811
15330.0 0.00069903
15350.0 0.00069999
15370.0 0.00070097
15390.0 0.00070195
15410.0 0.00070296
15430.0 0.00070401
15450.0 0.00070506
15470.0 0.00070613
15490.0 0.00070723
15510.0 0.00070836
15530.0 0.00070949
15550.0 0.00071064
15570.0 0.00071183
15590.0 0.00071302
15610.0 0.00071422
15630.0 0.00071545
15650.0 0.00071671
15670.0 0.00071796
15690.0 0.00071924
15710.0 0.00072056
15730.0 0.00072187
15750.0 0.00072319
15770.0 0.00072454
15790.0 0.00072591
15810.0 0.00072727
15830.0 0.00072866
15850.0 0.00073007
15870.0 0.00073149
15890.0 0.00073291
15910.0 0.00073437
15930.0 0.00073583
15950.0 0.00073728
15970.0 0.00073876
15990.0 0.00074026
16010.0 0.00074175
16030.0 0.00074325
16050.0 0.00074479
16070.0 0.00074632
16090.0 0.00074785
16110.0 0.0007494
16130.0 0.00075097
16150.0 0.00075252
16170.0 0.00075408
16190.0 0.00075567
16210.0 0.00075726
16230.0 0.00075883
16250.0 0.00076043
16270.0 0.00076204
16290.0 0.00076364
16310.0 0.00076524
16330.0 0.00076686
16350.0 0.00076847
16370.0 0.00077007
16390.0 0.00077169
16410.0 0.00077332
16430.0 0.00077493
16450.0 0.00077654
16470.0 0.00077818
16490.0 0.00077979
16510.0 0.0007814
16530.0 0.00078302
16550.0 0.00078464
16570.0 0.00078623
16590.0 0.00078783
16610.0 0.00078945
16630.0 0.00079104
16650.0 0.00079263
16670.0 0.00079422
16690.0 0.00079581
16710.0 0.00079736
16730.0 0.00079893
16750.0 0.0008005
16770.0 0.00080204
16790.0 0.00080357
16810.0 0.00080511
16830.0 0.00080664
16850.0 0.00080814
16870.0 0.00080964
16890.0 0.00081114
16910.0 0.0008126
16930.0 0.00081405
16950.0 0.0008155
16970.0 0.00081694
16990.0 0.00081835
17010.0 0.00081975
17030.0 0.00082116
17050.0 0.00082252
17070.0 0.00082387
17090.0 0.00082521
17110.0 0.00082653
17130.0 0.00082781
17150.0 0.00082909
17170.0 0.00083037
17190.0 0.0008316
17210.0 0.00083281
17230.0 0.00083402
17250.0 0.0008352
17270.0 0.00083634
17290.0 0.00083747
17310.0 0.00083858
17330.0 0.00083965
17350.0 0.0008407
17370.0 0.00084174
17390.0 0.00084275
17410.0 0.00084372
17430.0 0.00084467
17450.0 0.00084561
17470.0 0.00084648
17490.0 0.00084734
17510.0 0.00084819
17530.0 0.000849
17550.0 0.00084976
17570.0 0.00085051
17590.0 0.00085124
17610.0 0.00085191
17630.0 0.00085256
17650.0 0.00085319
17670.0 0.00085377
17690.0 0.0008543
17710.0 0.00085483
17730.0 0.00085532
17750.0 0.00085576
17770.0 0.00085617
17790.0 0.00085656
17810.0 0.00085689
17830.0 0.00085718
17850.0 0.00085746
17870.0 0.00085769
17890.0 0.00085787
17910.0 0.00085802
17930.0 0.00085815
17950.0 0.00085822
17970.0 0.00085825
17990.0 0.00085825
18010.0 0.00085822
18030.0 0.00085811
18050.0 0.00085799
18070.0 0.00085783
18090.0 0.00085762
18110.0 0.00085736
18130.0 0.00085708
18150.0 0.00085676
18170.0 0.00085637
18190.0 0.00085596
18210.0 0.00085551
18230.0 0.000855
18250.0 0.00085444
18270.0 0.00085386
18290.0 0.00085324
18310.0 0.00085255
18330.0 0.00085183
18350.0 0.00085109
18370.0 0.00085027
18390.0 0.00084941
18410.0 0.00084853
18430.0 0.00084759
18450.0 0.00084659
18470.0 0.00084557
18490.0 0.00084451
18510.0 0.00084339
18530.0 0.00084222
18550.0 0.00084103
18570.0 0.00083978
18590.0 0.00083847
18610.0 0.00083714
18630.0 0.00083577
18650.0 0.00083433
18670.0 0.00083285
18690.0 0.00083136
18710.0 0.0008298
18730.0 0.00082819
18750.0 0.00082655
18770.0 0.00082488
18790.0 0.00082313
18810.0 0.00082135
18830.0 0.00081955
18850.0 0.00081769
18870.0 0.00081577
18890.0 0.00081384
18910.0 0.00081186
18930.0 0.00080982
18950.0 0.00080775
18970.0 0.00080565
18990.0 0.0008035
19010.0 0.00080128
19030.0 0.00079906
19050.0 0.0007968
19070.0 0.00079448
19090.0 0.00079213
19110.0 0.00078976
19130.0 0.00078732
19150.0 0.00078484
19170.0 0.00078234
19190.0 0.00077981
19210.0 0.00077721
19230.0 0.00077459
19250.0 0.00077196
19270.0 0.00076927
19290.0 0.00076654
19310.0 0.00076379
19330.0 0.00076101
19350.0 0.00075816
19370.0 0.0007553
19390.0 0.00075242
19410.0 0.00074949
19430.0 0.00074653
19450.0 0.00074355
19470.0 0.00074054
19490.0 0.00073748
19510.0 0.0007344
19530.0 0.00073131
19550.0 0.00072816
19570.0 0.00072498
19590.0 0.0007218
19610.0 0.00071858
19630.0 0.00071533
19650.0 0.00071206
19670.0 0.00070878
19690.0 0.00070544
19710.0 0.00070209
19730.0 0.00069873
19750.0 0.00069534
19770.0 0.0006919
19790.0 0.00068847
19810.0 0.00068502
19830.0 0.00068152
19850.0 0.00067798
19870.0 0.00067439
19890.0 0.00067067
19910.0 0.00066672
19930.0 0.00066248
19950.0 0.0006578
19970.0 0.00065241
19990.0 0.0006462
20010.0 0.00063929
20030.0 0.00063136
20050.0 0.00062248
20070.0 0.00061307
20090.0 0.00060321
20110.0 0.00059255
20130.0 0.00058192
20150.0 0.0005715
20170.0 0.00056091
20190.0 0.00055032
20210.0 0.0005402
20230.0 0.00053028
20250.0 0.0005203
20270.0 0.00051075
20290.0 0.00050167
20310.0 0.00049272
20330.0 0.00048393
20350.0 0.0004759
20370.0 0.00046816
20390.0 0.00046066
20410.0 0.00045365
20430.0 0.00044717
20450.0 0.00044087
20470.0 0.000435
20490.0 0.00042963
20510.0 0.0004246
20530.0 0.00041987
20550.0 0.00041555
20570.0 0.00041159
20590.0 0.00040787
20610.0 0.00040443
20630.0 0.00040127
20650.0 0.0003983
20670.0 0.00039551
20690.0 0.00039288
20710.0 0.00039036
20730.0 0.00038792
20750.0 0.00038554
20770.0 0.00038316
20790.0 0.00038077
20810.0 0.00037833
20830.0 0.00037582
20850.0 0.00037321
20870.0 0.00037047
20890.0 0.00036759
20910.0 0.00036457
20930.0 0.00036139
20950.0 0.00035801
20970.0 0.00035449
20990.0 0.00035083
21010.0 0.00034695
21030.0 0.00034292
21050.0 0.00033881
21070.0 0.00033453
21090.0 0.00033007
21110.0 0.00032561
21130.0 0.0003211
21150.0 0.00031645
21170.0 0.00031178
21190.0 0.00030717
21210.0 0.00030246
21230.0 0.00029771
21250.0 0.00029309
21270.0 0.00028852
21290.0 0.00028392
21310.0 0.0002794
21330.0 0.00027507
21350.0 0.00027074
21370.0 0.00026647
21390.0 0.00026238
21410.0 0.0002584
21430.0 0.00025442
21450.0 0.00025063
21470.0 0.00024701
21490.0 0.00024347
21510.0 0.00024003
21530.0 0.00023677
21550.0 0.00023362
21570.0 0.00023054
21590.0 0.00022759
21610.0 0.00022478
21630.0 0.00022203
21650.0 0.00021935
21670.0 0.00021681
21690.0 0.00021433
21710.0 0.00021189
21730.0 0.00020951
21750.0 0.0002072
21770.0 0.00020489
21790.0 0.00020262
21810.0 0.00020038
21830.0 0.00019815
21850.0 0.0001959
21870.0 0.00019367
21890.0 0.00019145
21910.0 0.0001892
21930.0 0.00018694
21950.0 0.00018468
21970.0 0.0001824
21990.0 0.00018008
22010.0 0.00017776
22030.0 0.00017545
22050.0 0.00017309
22070.0 0.00017071
22090.0 0.00016836
22110.0 0.00016597
22130.0 0.00016355
22150.0 0.00016115
22170.0 0.00015875
22190.0 0.00015629
22210.0 0.00015384
22230.0 0.00015143
22250.0 0.000149
22270.0 0.00014654
22290.0 0.00014411
22310.0 0.00014171
22330.0 0.00013925
22350.0 0.00013681
22370.0 0.00013441
22390.0 0.000132
22410.0 0.00012956
22430.0 0.00012719
22450.0 0.00012484
22470.0 0.00012246
22490.0 0.00012012
22510.0 0.00011783
22530.0 0.00011551
22550.0 0.00011321
22570.0 0.00011098
22590.0 0.00010878
22610.0 0.00010658
22630.0 0.00010444
22650.0 0.00010238
22670.0 0.00010034
22690.0 9.834e-05
22710.0 9.6429e-05
22730.0 9.4579e-05
22750.0 9.2744e-05
22770.0 9.1009e-05
22790.0 8.936e-05
22810.0 8.7758e-05
22830.0 8.6219e-05
22850.0 8.4773e-05
22870.0 8.3387e-05
22890.0 8.2052e-05
22910.0 8.0797e-05
22930.0 7.9614e-05
22950.0 7.8483e-05
22970.0 7.741e-05
22990.0 7.6409e-05
23010.0 7.5455e-05
23030.0 7.4547e-05
23050.0 7.3683e-05
23070.0 7.2854e-05
23090.0 7.2053e-05
23110.0 7.1273e-05
23130.0 7.0504e-05
23150.0 6.9738e-05
23170.0 6.8968e-05
23190.0 6.8186e-05
23210.0 6.7386e-05
23230.0 6.6561e-05
23250.0 6.5705e-05
23270.0 6.4821e-05
23290.0 6.3899e-05
23310.0 6.2927e-05
23330.0 6.1927e-05
23350.0 6.0893e-05
23370.0 5.9811e-05
23390.0 5.8695e-05
