#lamb flux
1010.0 5.4133e-06
1030.0 5.4133e-06
1050.0 5.4133e-06
1070.0 5.4133e-06
1090.0 5.4133e-06
1110.0 5.4133e-06
1130.0 5.4133e-06
1150.0 5.4133e-06
1170.0 5.4133e-06
1190.0 5.4133e-06
1210.0 5.4133e-06
1230.0 5.4133e-06
1250.0 5.4133e-06
1270.0 5.4133e-06
1290.0 5.4133e-06
1310.0 5.4133e-06
1330.0 5.4133e-06
1350.0 5.4133e-06
1370.0 5.4133e-06
1390.0 5.4133e-06
1410.0 5.4133e-06
1430.0 5.4133e-06
1450.0 5.4133e-06
1470.0 5.4133e-06
1490.0 5.4133e-06
1510.0 5.4133e-06
1530.0 5.419e-06
1550.0 6.4287e-06
1570.0 7.539e-06
1590.0 8.7524e-06
1610.0 1.0056e-05
1630.0 1.1453e-05
1650.0 1.2994e-05
1670.0 1.4669e-05
1690.0 1.6498e-05
1710.0 1.852e-05
1730.0 2.0738e-05
1750.0 2.3127e-05
1770.0 2.5747e-05
1790.0 2.8606e-05
1810.0 3.1678e-05
1830.0 3.4969e-05
1850.0 3.8543e-05
1870.0 4.2328e-05
1890.0 4.63e-05
1910.0 5.049e-05
1930.0 5.4886e-05
1950.0 5.9381e-05
1970.0 6.3974e-05
1990.0 6.8687e-05
2010.0 7.3411e-05
2030.0 7.8069e-05
2050.0 8.2703e-05
2070.0 8.7261e-05
2090.0 9.1567e-05
2110.0 9.5655e-05
2130.0 9.9536e-05
2150.0 0.00010309
2170.0 0.00010625
2190.0 0.00010912
2210.0 0.00011163
2230.0 0.00011369
2250.0 0.00011536
2270.0 0.00011673
2290.0 0.00011767
2310.0 0.00011818
2330.0 0.00011842
2350.0 0.00011836
2370.0 0.00011795
2390.0 0.00011732
2410.0 0.00011656
2430.0 0.00011559
2450.0 0.00011445
2470.0 0.0001133
2490.0 0.00011216
2510.0 0.00011102
2530.0 0.00011019
2550.0 0.00011009
2570.0 0.00011108
2590.0 0.00011361
2610.0 0.00011892
2630.0 0.00012725
2650.0 0.00013808
2670.0 0.00015176
2690.0 0.00016816
2710.0 0.00018533
2730.0 0.00020255
2750.0 0.00022085
2770.0 0.00023899
2790.0 0.00025643
2810.0 0.00027435
2830.0 0.00029375
2850.0 0.00031257
2870.0 0.0003319
2890.0 0.00035272
2910.0 0.00037436
2930.0 0.000396
2950.0 0.00041937
2970.0 0.00044429
2990.0 0.00046961
3010.0 0.00049589
3030.0 0.00052414
3050.0 0.00055339
3070.0 0.00058198
3090.0 0.00061111
3110.0 0.00063925
3130.0 0.00066416
3150.0 0.00068499
3170.0 0.00070077
3190.0 0.00071003
3210.0 0.00071274
3230.0 0.00071169
3250.0 0.00071553
3270.0 0.00072967
3290.0 0.00075267
3310.0 0.00078275
3330.0 0.00081985
3350.0 0.00086174
3370.0 0.00090836
3390.0 0.00095961
3410.0 0.0010102
3430.0 0.0011016
3450.0 0.0011708
3470.0 0.0012386
3490.0 0.0012645
3510.0 0.0012426
3530.0 0.0013916
3550.0 0.0016685
3570.0 0.0018344
3590.0 0.0019177
3610.0 0.0019362
3630.0 0.0018619
3650.0 0.0020107
3670.0 0.0024037
3690.0 0.0027044
3710.0 0.0028425
3730.0 0.0029407
3750.0 0.0030771
3770.0 0.0030696
3790.0 0.0029345
3810.0 0.002757
3830.0 0.0025624
3850.0 0.002546
3870.0 0.0027313
3890.0 0.0029218
3910.0 0.0030645
3930.0 0.0031267
3950.0 0.0033586
3970.0 0.0035912
3990.0 0.003444
4010.0 0.0030587
4030.0 0.0026959
4050.0 0.0025788
4070.0 0.0026691
4090.0 0.002692
4110.0 0.0026269
4130.0 0.0025863
4150.0 0.0026298
4170.0 0.0028877
4190.0 0.0031589
4210.0 0.0030972
4230.0 0.0029102
4250.0 0.0028175
4270.0 0.002781
4290.0 0.0028607
4310.0 0.002962
4330.0 0.0028213
4350.0 0.0024659
4370.0 0.0021717
4390.0 0.0019683
4410.0 0.0017963
4430.0 0.0017858
4450.0 0.0019381
4470.0 0.002081
4490.0 0.00227
4510.0 0.0025868
4530.0 0.0032225
4550.0 0.0039896
4570.0 0.0044477
4590.0 0.0047488
4610.0 0.0051601
4630.0 0.0054133
4650.0 0.0050526
4670.0 0.0041763
4690.0 0.0034761
4710.0 0.0032167
4730.0 0.0031232
4750.0 0.0028398
4770.0 0.0026062
4790.0 0.0027224
4810.0 0.0029659
4830.0 0.0029774
4850.0 0.002774
4870.0 0.0026839
4890.0 0.002832
4910.0 0.0029962
4930.0 0.003008
4950.0 0.0029098
4970.0 0.0027503
4990.0 0.002509
5010.0 0.0022846
5030.0 0.0021518
5050.0 0.0020913
5070.0 0.0020467
5090.0 0.0019995
5110.0 0.0019916
5130.0 0.0020136
5150.0 0.0021218
5170.0 0.0023541
5190.0 0.0026374
5210.0 0.0029572
5230.0 0.0031627
5250.0 0.0032706
5270.0 0.0034564
5290.0 0.0036566
5310.0 0.0037267
5330.0 0.0035914
5350.0 0.0034144
5370.0 0.0034177
5390.0 0.0036476
5410.0 0.0039029
5430.0 0.0040371
5450.0 0.0040501
5470.0 0.0039459
5490.0 0.0037965
5510.0 0.0037123
5530.0 0.0037202
5550.0 0.0037731
5570.0 0.0038104
5590.0 0.0037141
5610.0 0.0035248
5630.0 0.003307
5650.0 0.0031113
5670.0 0.0029956
5690.0 0.0028993
5710.0 0.0028321
5730.0 0.0028723
5750.0 0.0028665
5770.0 0.0028113
5790.0 0.0028354
5810.0 0.0028871
5830.0 0.0029434
5850.0 0.0029733
5870.0 0.0029221
5890.0 0.0028027
5910.0 0.0026505
5930.0 0.0024208
5950.0 0.0022486
5970.0 0.0022306
5990.0 0.0023143
6010.0 0.0023595
6030.0 0.0022785
6050.0 0.0022235
6070.0 0.0023086
6090.0 0.0024552
6110.0 0.0025309
6130.0 0.0024584
6150.0 0.0023167
6170.0 0.0022172
6190.0 0.0021173
6210.0 0.0019989
6230.0 0.0018953
6250.0 0.0018543
6270.0 0.0019015
6290.0 0.001986
6310.0 0.0021038
6330.0 0.0022494
6350.0 0.0023888
6370.0 0.0024612
6390.0 0.0024746
6410.0 0.0024977
6430.0 0.0025235
6450.0 0.0025403
6470.0 0.002583
6490.0 0.0026312
6510.0 0.0026549
6530.0 0.0026389
6550.0 0.0025772
6570.0 0.0024832
6590.0 0.0023908
6610.0 0.0023248
6630.0 0.0022781
6650.0 0.0022032
6670.0 0.0021068
6690.0 0.0020302
6710.0 0.0019861
6730.0 0.0019712
6750.0 0.0019442
6770.0 0.001904
6790.0 0.0018737
6810.0 0.0018442
6830.0 0.0018326
6850.0 0.0018489
6870.0 0.0018502
6890.0 0.0018347
6910.0 0.0017936
6930.0 0.0017519
6950.0 0.0017314
6970.0 0.0016874
6990.0 0.0016275
7010.0 0.0016017
7030.0 0.0015854
7050.0 0.0015452
7070.0 0.0014914
7090.0 0.0014617
7110.0 0.0014852
7130.0 0.0015596
7150.0 0.001644
7170.0 0.0016982
7190.0 0.0016835
7210.0 0.0016337
7230.0 0.0016028
7250.0 0.001588
7270.0 0.0015805
7290.0 0.0015641
7310.0 0.001564
7330.0 0.0016006
7350.0 0.0016477
7370.0 0.0016756
7390.0 0.0016635
7410.0 0.0016219
7430.0 0.0015881
7450.0 0.0015523
7470.0 0.0014738
7490.0 0.0014207
7510.0 0.0013679
7530.0 0.0013305
7550.0 0.0013323
7570.0 0.0013462
7590.0 0.0013449
7610.0 0.0013334
7630.0 0.001326
7650.0 0.0013236
7670.0 0.0013499
7690.0 0.0013924
7710.0 0.0014467
7730.0 0.0014848
7750.0 0.0015279
7770.0 0.0015516
7790.0 0.0015547
7810.0 0.0015411
7830.0 0.0015494
7850.0 0.0015355
7870.0 0.0014749
7890.0 0.001412
7910.0 0.0013649
7930.0 0.0013221
7950.0 0.0012879
7970.0 0.0012765
7990.0 0.0012879
8010.0 0.0012557
8030.0 0.0012398
8050.0 0.0012187
8070.0 0.0011945
8090.0 0.0011697
8110.0 0.0011684
8130.0 0.0011745
8150.0 0.0011694
8170.0 0.0011592
8190.0 0.0011302
8210.0 0.0010668
8230.0 0.00099318
8250.0 0.00094862
8270.0 0.00091766
8290.0 0.00089283
8310.0 0.00088756
8330.0 0.00089377
8350.0 0.00087162
8370.0 0.00085294
8390.0 0.00087212
8410.0 0.00091637
8430.0 0.00097762
8450.0 0.001039
8470.0 0.0010682
8490.0 0.0010919
8510.0 0.0011036
8530.0 0.001116
8550.0 0.0011318
8570.0 0.0011403
8590.0 0.0011484
8610.0 0.0011779
8630.0 0.0011894
8650.0 0.0011636
8670.0 0.0011621
8690.0 0.0011737
8710.0 0.0011791
8730.0 0.0011703
8750.0 0.0011379
8770.0 0.0011231
8790.0 0.0011148
8810.0 0.0010979
8830.0 0.0010293
8850.0 0.00094183
8870.0 0.00087867
8890.0 0.00084397
8910.0 0.00079522
8930.0 0.00073894
8950.0 0.00070617
8970.0 0.0007008
8990.0 0.00070518
9010.0 0.00070271
9030.0 0.00069772
9050.0 0.00069307
9070.0 0.00068894
9090.0 0.0006849
9110.0 0.0006809
9130.0 0.0006769
9150.0 0.00067293
9170.0 0.00066898
9190.0 0.00066503
9210.0 0.00066107
9230.0 0.00065719
9250.0 0.00065332
9270.0 0.00064946
9290.0 0.00064562
9310.0 0.0006418
9330.0 0.000638
9350.0 0.00063422
9370.0 0.00063045
9390.0 0.00062672
9410.0 0.00062298
9430.0 0.00061924
9450.0 0.00061532
9470.0 0.0006115
9490.0 0.00060808
9510.0 0.00060454
9530.0 0.00060103
9550.0 0.00059747
9570.0 0.00059391
9590.0 0.00059039
9610.0 0.00058688
9630.0 0.00058337
9650.0 0.00057987
9670.0 0.00057643
9690.0 0.00057298
9710.0 0.00056954
9730.0 0.00056614
9750.0 0.00056275
9770.0 0.00055935
9790.0 0.00055598
9810.0 0.00055265
9830.0 0.00054926
9850.0 0.00054557
9870.0 0.00054237
9890.0 0.0005392
9910.0 0.000536
9930.0 0.00053275
9950.0 0.0005296
9970.0 0.00052636
9990.0 0.00052305
10010.0 0.0005194
10030.0 0.00051602
10050.0 0.00051305
10070.0 0.00051004
10090.0 0.00050701
10110.0 0.00050371
10130.0 0.00049958
10150.0 0.00049661
10170.0 0.00049383
10190.0 0.00049081
10210.0 0.00048785
10230.0 0.00048487
10250.0 0.00048172
10270.0 0.00047856
10290.0 0.00047552
10310.0 0.00047235
10330.0 0.00046908
10350.0 0.00046596
10370.0 0.00046286
10390.0 0.00045963
10410.0 0.00045642
10430.0 0.00045336
10450.0 0.00045018
10470.0 0.00044692
10490.0 0.00044378
10510.0 0.00044066
10530.0 0.00043732
10550.0 0.00043407
10570.0 0.00043095
10590.0 0.0004277
10610.0 0.00042439
10630.0 0.00042122
10650.0 0.00041802
10670.0 0.00041464
10690.0 0.00041135
10710.0 0.00040813
10730.0 0.00040479
10750.0 0.00040132
10770.0 0.00039808
10790.0 0.00039478
10810.0 0.00039135
10830.0 0.00038798
10850.0 0.00038471
10870.0 0.00038122
10890.0 0.00037774
10910.0 0.0003744
10930.0 0.00037105
10950.0 0.0003676
10970.0 0.00036428
10990.0 0.00036115
11010.0 0.00036105
11030.0 0.000358
11050.0 0.0003551
11070.0 0.00035222
11090.0 0.00034919
11110.0 0.00034635
11130.0 0.00034358
11150.0 0.00034076
11170.0 0.000338
11190.0 0.00033546
11210.0 0.00033295
11230.0 0.00033051
11250.0 0.00032828
11270.0 0.00032622
11290.0 0.00032422
11310.0 0.00032237
11330.0 0.00032074
11350.0 0.00031918
11370.0 0.00031768
11390.0 0.0003163
11410.0 0.00031499
11430.0 0.00031363
11450.0 0.00031229
11470.0 0.00031097
11490.0 0.00030956
11510.0 0.00030804
11530.0 0.00030647
11550.0 0.00030481
11570.0 0.00030296
11590.0 0.00030098
11610.0 0.00029892
11630.0 0.00029663
11650.0 0.00029411
11670.0 0.00029155
11690.0 0.00028883
11710.0 0.00028588
11730.0 0.00028282
11750.0 0.00027975
11770.0 0.00027646
11790.0 0.00027303
11810.0 0.00026963
11830.0 0.00026617
11850.0 0.00026249
11870.0 0.00025888
11890.0 0.00025537
11910.0 0.00025177
11930.0 0.00024817
11950.0 0.00024475
11970.0 0.00024137
11990.0 0.00023795
12010.0 0.00023471
12030.0 0.00023165
12050.0 0.00022862
12070.0 0.00022567
12090.0 0.00022301
12110.0 0.00022045
12130.0 0.00021797
12150.0 0.00021571
12170.0 0.00021365
12190.0 0.00021167
12210.0 0.00020989
12230.0 0.00020836
12250.0 0.00020702
12270.0 0.00020585
12290.0 0.00020492
12310.0 0.00020419
12330.0 0.00020363
12350.0 0.00020326
12370.0 0.00020304
12390.0 0.00020295
12410.0 0.00020299
12430.0 0.0002031
12450.0 0.00020326
12470.0 0.00020346
12490.0 0.00020367
12510.0 0.00020382
12530.0 0.00020395
12550.0 0.00020401
12570.0 0.00020397
12590.0 0.00020381
12610.0 0.00020352
12630.0 0.00020307
12650.0 0.00020246
12670.0 0.00020169
12690.0 0.00020072
12710.0 0.00019959
12730.0 0.00019831
12750.0 0.00019682
12770.0 0.00019519
12790.0 0.00019347
12810.0 0.00019161
12830.0 0.00018962
12850.0 0.00018762
12870.0 0.0001856
12890.0 0.00018348
12910.0 0.00018138
12930.0 0.00017933
12950.0 0.00017724
12970.0 0.00017514
12990.0 0.00017315
13010.0 0.0001712
13030.0 0.00016924
13050.0 0.00016735
13070.0 0.00016555
13090.0 0.00016375
13110.0 0.00016199
13130.0 0.00016033
13150.0 0.00015872
13170.0 0.00015711
13190.0 0.00015562
13210.0 0.00015423
13230.0 0.00015287
13250.0 0.00015158
13270.0 0.00015039
13290.0 0.00014926
13310.0 0.00014815
13330.0 0.00014711
13350.0 0.00014612
13370.0 0.00014513
13390.0 0.00014415
13410.0 0.00014321
13430.0 0.00014225
13450.0 0.00014126
13470.0 0.00014026
13490.0 0.00013925
13510.0 0.00013817
13530.0 0.00013706
13550.0 0.00013595
13570.0 0.00013479
13590.0 0.00013358
13610.0 0.00013238
13630.0 0.00013118
13650.0 0.00012992
13670.0 0.00012867
13690.0 0.00012744
13710.0 0.0001262
13730.0 0.0001249
13750.0 0.00012367
13770.0 0.00012246
13790.0 0.00012121
13810.0 0.00011998
13830.0 0.0001188
13850.0 0.00011759
13870.0 0.00011636
13890.0 0.00011519
13910.0 0.00011403
13930.0 0.00011284
13950.0 0.00011168
13970.0 0.00011059
13990.0 0.00010948
14010.0 0.00010838
14030.0 0.00010733
14050.0 0.0001063
14070.0 0.00010524
14090.0 0.00010422
14110.0 0.00010325
14130.0 0.00010227
14150.0 0.00010129
14170.0 0.00010037
14190.0 9.948e-05
14210.0 9.8585e-05
14230.0 9.7735e-05
14250.0 9.6942e-05
14270.0 9.6152e-05
14290.0 9.5389e-05
14310.0 9.4702e-05
14330.0 9.4049e-05
14350.0 9.3414e-05
14370.0 9.2829e-05
14390.0 9.2297e-05
14410.0 9.1775e-05
14430.0 9.1279e-05
14450.0 9.0827e-05
14470.0 9.0394e-05
14490.0 8.9959e-05
14510.0 8.9556e-05
14530.0 8.9176e-05
14550.0 8.879e-05
14570.0 8.8405e-05
14590.0 8.8039e-05
14610.0 8.7665e-05
14630.0 8.7272e-05
14650.0 8.6892e-05
14670.0 8.6522e-05
14690.0 8.6145e-05
14710.0 8.5778e-05
14730.0 8.5464e-05
14750.0 8.5181e-05
14770.0 8.4946e-05
14790.0 8.4793e-05
14810.0 8.473e-05
14830.0 8.4767e-05
14850.0 8.493e-05
14870.0 8.5214e-05
14890.0 8.5622e-05
14910.0 8.6156e-05
14930.0 8.6762e-05
14950.0 8.7402e-05
14970.0 8.8071e-05
14990.0 8.8694e-05
15010.0 8.9228e-05
15030.0 8.9677e-05
15050.0 9.0034e-05
15070.0 9.0289e-05
15090.0 9.0479e-05
15110.0 9.0624e-05
15130.0 9.074e-05
15150.0 9.0843e-05
15170.0 9.0939e-05
15190.0 9.1032e-05
15210.0 9.1129e-05
15230.0 9.1229e-05
15250.0 9.1329e-05
15270.0 9.1433e-05
15290.0 9.1544e-05
15310.0 9.1655e-05
15330.0 9.1769e-05
15350.0 9.1888e-05
15370.0 9.2011e-05
15390.0 9.2133e-05
15410.0 9.226e-05
15430.0 9.2391e-05
15450.0 9.2524e-05
15470.0 9.2658e-05
15490.0 9.2799e-05
15510.0 9.2942e-05
15530.0 9.3085e-05
15550.0 9.3233e-05
15570.0 9.3385e-05
15590.0 9.3536e-05
15610.0 9.3689e-05
15630.0 9.3848e-05
15650.0 9.401e-05
15670.0 9.4171e-05
15690.0 9.4336e-05
15710.0 9.4506e-05
15730.0 9.4674e-05
15750.0 9.4845e-05
15770.0 9.5021e-05
15790.0 9.5198e-05
15810.0 9.5373e-05
15830.0 9.5554e-05
15850.0 9.5738e-05
15870.0 9.5922e-05
15890.0 9.6107e-05
15910.0 9.6297e-05
15930.0 9.6487e-05
15950.0 9.6676e-05
15970.0 9.6869e-05
15990.0 9.7065e-05
16010.0 9.726e-05
16030.0 9.7455e-05
16050.0 9.7657e-05
16070.0 9.7857e-05
16090.0 9.8057e-05
16110.0 9.826e-05
16130.0 9.8467e-05
16150.0 9.8668e-05
16170.0 9.8873e-05
16190.0 9.9081e-05
16210.0 9.9289e-05
16230.0 9.9495e-05
16250.0 9.9706e-05
16270.0 9.9918e-05
16290.0 0.00010013
16310.0 0.00010034
16330.0 0.00010055
16350.0 0.00010076
16370.0 0.00010097
16390.0 0.00010118
16410.0 0.0001014
16430.0 0.00010161
16450.0 0.00010182
16470.0 0.00010204
16490.0 0.00010225
16510.0 0.00010246
16530.0 0.00010267
16550.0 0.00010289
16570.0 0.00010309
16590.0 0.0001033
16610.0 0.00010352
16630.0 0.00010373
16650.0 0.00010393
16670.0 0.00010414
16690.0 0.00010435
16710.0 0.00010456
16730.0 0.00010476
16750.0 0.00010497
16770.0 0.00010517
16790.0 0.00010537
16810.0 0.00010557
16830.0 0.00010577
16850.0 0.00010597
16870.0 0.00010617
16890.0 0.00010636
16910.0 0.00010656
16930.0 0.00010674
16950.0 0.00010694
16970.0 0.00010712
16990.0 0.00010731
17010.0 0.00010749
17030.0 0.00010768
17050.0 0.00010785
17070.0 0.00010803
17090.0 0.00010821
17110.0 0.00010838
17130.0 0.00010854
17150.0 0.00010871
17170.0 0.00010888
17190.0 0.00010904
17210.0 0.0001092
17230.0 0.00010935
17250.0 0.00010951
17270.0 0.00010965
17290.0 0.0001098
17310.0 0.00010995
17330.0 0.00011008
17350.0 0.00011022
17370.0 0.00011035
17390.0 0.00011048
17410.0 0.00011061
17430.0 0.00011073
17450.0 0.00011085
17470.0 0.00011096
17490.0 0.00011107
17510.0 0.00011118
17530.0 0.00011129
17550.0 0.00011138
17570.0 0.00011148
17590.0 0.00011157
17610.0 0.00011166
17630.0 0.00011174
17650.0 0.00011182
17670.0 0.00011189
17690.0 0.00011195
17710.0 0.00011202
17730.0 0.00011208
17750.0 0.00011214
17770.0 0.00011218
17790.0 0.00011223
17810.0 0.00011227
17830.0 0.00011231
17850.0 0.00011234
17870.0 0.00011237
17890.0 0.00011238
17910.0 0.0001124
17930.0 0.00011241
17950.0 0.00011242
17970.0 0.00011241
17990.0 0.00011241
18010.0 0.0001124
18030.0 0.00011238
18050.0 0.00011236
18070.0 0.00011233
18090.0 0.0001123
18110.0 0.00011226
18130.0 0.00011222
18150.0 0.00011217
18170.0 0.00011211
18190.0 0.00011205
18210.0 0.00011199
18230.0 0.00011192
18250.0 0.00011184
18270.0 0.00011176
18290.0 0.00011167
18310.0 0.00011157
18330.0 0.00011147
18350.0 0.00011137
18370.0 0.00011125
18390.0 0.00011114
18410.0 0.00011101
18430.0 0.00011088
18450.0 0.00011075
18470.0 0.0001106
18490.0 0.00011046
18510.0 0.00011031
18530.0 0.00011015
18550.0 0.00010998
18570.0 0.00010981
18590.0 0.00010963
18610.0 0.00010945
18630.0 0.00010927
18650.0 0.00010907
18670.0 0.00010887
18690.0 0.00010867
18710.0 0.00010846
18730.0 0.00010824
18750.0 0.00010802
18770.0 0.00010779
18790.0 0.00010755
18810.0 0.00010731
18830.0 0.00010707
18850.0 0.00010682
18870.0 0.00010656
18890.0 0.0001063
18910.0 0.00010603
18930.0 0.00010576
18950.0 0.00010548
18970.0 0.0001052
18990.0 0.00010491
19010.0 0.00010461
19030.0 0.00010431
19050.0 0.00010401
19070.0 0.0001037
19090.0 0.00010338
19110.0 0.00010306
19130.0 0.00010273
19150.0 0.0001024
19170.0 0.00010207
19190.0 0.00010173
19210.0 0.00010138
19230.0 0.00010103
19250.0 0.00010068
19270.0 0.00010032
19290.0 9.9952e-05
19310.0 9.9586e-05
19330.0 9.9214e-05
19350.0 9.8832e-05
19370.0 9.8451e-05
19390.0 9.8067e-05
19410.0 9.7675e-05
19430.0 9.7278e-05
19450.0 9.6882e-05
19470.0 9.6481e-05
19490.0 9.6072e-05
19510.0 9.5662e-05
19530.0 9.525e-05
19550.0 9.4829e-05
19570.0 9.4405e-05
19590.0 9.3982e-05
19610.0 9.3554e-05
19630.0 9.3119e-05
19650.0 9.2684e-05
19670.0 9.2248e-05
19690.0 9.1803e-05
19710.0 9.1357e-05
19730.0 9.091e-05
19750.0 9.0459e-05
19770.0 9.0001e-05
19790.0 8.9544e-05
19810.0 8.9086e-05
19830.0 8.862e-05
19850.0 8.815e-05
19870.0 8.7675e-05
19890.0 8.7182e-05
19910.0 8.666e-05
19930.0 8.6105e-05
19950.0 8.5495e-05
19970.0 8.4797e-05
19990.0 8.3997e-05
20010.0 8.3112e-05
20030.0 8.2099e-05
20050.0 8.0966e-05
20070.0 7.9767e-05
20090.0 7.851e-05
20110.0 7.7149e-05
20130.0 7.5792e-05
20150.0 7.4459e-05
20170.0 7.3103e-05
20190.0 7.1746e-05
20210.0 7.045e-05
20230.0 6.918e-05
20250.0 6.7903e-05
20270.0 6.6683e-05
20290.0 6.5525e-05
20310.0 6.4386e-05
20330.0 6.3269e-05
20350.0 6.2251e-05
20370.0 6.1272e-05
20390.0 6.0324e-05
20410.0 5.944e-05
20430.0 5.8623e-05
20450.0 5.783e-05
20470.0 5.709e-05
20490.0 5.6413e-05
20510.0 5.5778e-05
20530.0 5.5179e-05
20550.0 5.463e-05
20570.0 5.4126e-05
20590.0 5.365e-05
20610.0 5.3208e-05
20630.0 5.2798e-05
20650.0 5.2412e-05
20670.0 5.2046e-05
20690.0 5.1699e-05
20710.0 5.1366e-05
20730.0 5.1042e-05
20750.0 5.0723e-05
20770.0 5.0404e-05
20790.0 5.0083e-05
20810.0 4.9754e-05
20830.0 4.9416e-05
20850.0 4.9064e-05
20870.0 4.8696e-05
20890.0 4.8307e-05
20910.0 4.7902e-05
20930.0 4.7474e-05
20950.0 4.7021e-05
20970.0 4.655e-05
20990.0 4.606e-05
21010.0 4.554e-05
21030.0 4.5002e-05
21050.0 4.4454e-05
21070.0 4.3884e-05
21090.0 4.329e-05
21110.0 4.2698e-05
21130.0 4.2099e-05
21150.0 4.1483e-05
21170.0 4.0865e-05
21190.0 4.0257e-05
21210.0 3.9638e-05
21230.0 3.9014e-05
21250.0 3.8409e-05
21270.0 3.7812e-05
21290.0 3.7212e-05
21310.0 3.6626e-05
21330.0 3.6065e-05
21350.0 3.5505e-05
21370.0 3.4955e-05
21390.0 3.4428e-05
21410.0 3.3916e-05
21430.0 3.3405e-05
21450.0 3.2916e-05
21470.0 3.2449e-05
21490.0 3.1989e-05
21510.0 3.1541e-05
21530.0 3.1113e-05
21550.0 3.0696e-05
21570.0 3.0285e-05
21590.0 2.9889e-05
21610.0 2.9507e-05
21630.0 2.913e-05
21650.0 2.8759e-05
21670.0 2.8404e-05
21690.0 2.8055e-05
21710.0 2.7708e-05
21730.0 2.737e-05
21750.0 2.7039e-05
21770.0 2.6707e-05
21790.0 2.6378e-05
21810.0 2.6056e-05
21830.0 2.5734e-05
21850.0 2.541e-05
21870.0 2.509e-05
21890.0 2.4772e-05
21910.0 2.445e-05
21930.0 2.4127e-05
21950.0 2.3806e-05
21970.0 2.3483e-05
21990.0 2.3154e-05
22010.0 2.2829e-05
22030.0 2.2504e-05
22050.0 2.2175e-05
22070.0 2.1845e-05
22090.0 2.1522e-05
22110.0 2.1195e-05
22130.0 2.0866e-05
22150.0 2.0542e-05
22170.0 2.0221e-05
22190.0 1.9897e-05
22210.0 1.9575e-05
22230.0 1.9263e-05
22250.0 1.8949e-05
22270.0 1.8636e-05
22290.0 1.8331e-05
22310.0 1.803e-05
22330.0 1.7725e-05
22350.0 1.7425e-05
22370.0 1.7132e-05
22390.0 1.6839e-05
22410.0 1.6544e-05
22430.0 1.6257e-05
22450.0 1.5974e-05
22470.0 1.5687e-05
22490.0 1.5404e-05
22510.0 1.5128e-05
22530.0 1.4847e-05
22550.0 1.4567e-05
22570.0 1.4294e-05
22590.0 1.4024e-05
22610.0 1.3752e-05
22630.0 1.3484e-05
22650.0 1.3226e-05
22670.0 1.2967e-05
22690.0 1.2712e-05
22710.0 1.2465e-05
22730.0 1.2225e-05
22750.0 1.1985e-05
22770.0 1.1755e-05
22790.0 1.1536e-05
22810.0 1.1321e-05
22830.0 1.1114e-05
22850.0 1.0919e-05
22870.0 1.0731e-05
22890.0 1.055e-05
