#lamb flux
1010.0 3.3743e-06
1030.0 3.5169e-06
1050.0 3.6824e-06
1070.0 3.8691e-06
1090.0 4.0815e-06
1110.0 4.3003e-06
1130.0 4.5218e-06
1150.0 4.755e-06
1170.0 4.9969e-06
1190.0 5.2283e-06
1210.0 5.4645e-06
1230.0 5.7103e-06
1250.0 5.9535e-06
1270.0 6.1921e-06
1290.0 6.4459e-06
1310.0 6.7021e-06
1330.0 6.951e-06
1350.0 7.2053e-06
1370.0 7.4701e-06
1390.0 7.7318e-06
1410.0 7.9896e-06
1430.0 8.261e-06
1450.0 8.5356e-06
1470.0 8.8052e-06
1490.0 9.0804e-06
1510.0 9.3723e-06
1530.0 9.6535e-06
1550.0 9.934e-06
1570.0 1.0225e-05
1590.0 1.0518e-05
1610.0 1.0802e-05
1630.0 1.1094e-05
1650.0 1.1393e-05
1670.0 1.1683e-05
1690.0 1.197e-05
1710.0 1.2265e-05
1730.0 1.2559e-05
1750.0 1.2835e-05
1770.0 1.3114e-05
1790.0 1.3395e-05
1810.0 1.3662e-05
1830.0 1.3919e-05
1850.0 1.4185e-05
1870.0 1.4437e-05
1890.0 1.4673e-05
1910.0 1.4906e-05
1930.0 1.5138e-05
1950.0 1.5349e-05
1970.0 1.555e-05
1990.0 1.5751e-05
2010.0 1.5941e-05
2030.0 1.6115e-05
2050.0 1.629e-05
2070.0 1.6465e-05
2090.0 1.6621e-05
2110.0 1.6773e-05
2130.0 1.693e-05
2150.0 1.7082e-05
2170.0 1.7225e-05
2190.0 1.7379e-05
2210.0 1.7539e-05
2230.0 1.7696e-05
2250.0 1.7861e-05
2270.0 1.8046e-05
2290.0 1.8237e-05
2310.0 1.8433e-05
2330.0 1.8653e-05
2350.0 1.8894e-05
2370.0 1.9147e-05
2390.0 1.9425e-05
2410.0 1.9739e-05
2430.0 2.0072e-05
2450.0 2.0428e-05
2470.0 2.0817e-05
2490.0 2.1236e-05
2510.0 2.1676e-05
2530.0 2.2179e-05
2550.0 2.2817e-05
2570.0 2.3686e-05
2590.0 2.4918e-05
2610.0 2.6816e-05
2630.0 2.9548e-05
2650.0 3.3089e-05
2670.0 3.7561e-05
2690.0 4.2942e-05
2710.0 4.8702e-05
2730.0 5.4547e-05
2750.0 6.058e-05
2770.0 6.6398e-05
2790.0 7.1854e-05
2810.0 7.7217e-05
2830.0 8.2724e-05
2850.0 8.8113e-05
2870.0 9.3654e-05
2890.0 9.9569e-05
2910.0 0.00010576
2930.0 0.00011209
2950.0 0.00011884
2970.0 0.00012598
2990.0 0.00013325
3010.0 0.00024403
3030.0 0.00025765
3050.0 0.00027133
3070.0 0.00028406
3090.0 0.00029536
3110.0 0.00030281
3130.0 0.0003035
3150.0 0.00029414
3170.0 0.00026813
3190.0 0.00022445
3210.0 0.00016346
3230.0 9.4122e-05
3250.0 0.00016501
3270.0 7.1323e-05
3290.0 0.0002389
3310.0 4.7543e-05
3330.0 4.8504e-05
3350.0 7.4369e-05
3370.0 0.00010382
3390.0 0.00013506
3410.0 0.00016616
3430.0 0.00019865
3450.0 0.00023104
3470.0 0.00026072
3490.0 0.00028017
3510.0 0.00034875
3530.0 0.00047767
3550.0 0.00047885
3570.0 0.00040661
3590.0 0.00058269
3610.0 0.0003756
3630.0 0.00060553
3650.0 0.00068736
3670.0 0.0008836
3690.0 0.0008449
3710.0 0.00060294
3730.0 0.00080542
3750.0 0.0008375
3770.0 0.00086281
3790.0 0.00078056
3810.0 0.00068602
3830.0 0.00094852
3850.0 0.0010204
3870.0 0.0012672
3890.0 0.001196
3910.0 0.0010858
3930.0 0.0011754
3950.0 0.0013228
3970.0 0.0017252
3990.0 0.0013893
4010.0 0.000918
4030.0 0.0012364
4050.0 0.0013523
4070.0 0.0015366
4090.0 0.0013486
4110.0 0.00092225
4130.0 0.0012158
4150.0 0.0011176
4170.0 0.0011843
4190.0 0.0011785
4210.0 0.0014637
4230.0 0.0010238
4250.0 0.0012233
4270.0 0.0012219
4290.0 0.0012354
4310.0 0.0015048
4330.0 0.0015432
4350.0 0.0011967
4370.0 0.0010363
4390.0 0.0012573
4410.0 0.0012808
4430.0 0.00098975
4450.0 0.0009958
4470.0 0.001154
4490.0 0.0008612
4510.0 0.0010483
4530.0 0.001132
4550.0 0.0015135
4570.0 0.0022162
4590.0 0.0021523
4610.0 0.0014402
4630.0 0.0022896
4650.0 0.0032763
4670.0 0.0030307
4690.0 0.0018009
4710.0 0.0019458
4730.0 0.0025139
4750.0 0.0022472
4770.0 0.0017019
4790.0 0.0011768
4810.0 0.0016985
4830.0 0.0019592
4850.0 0.0017512
4870.0 0.00063498
4890.0 0.0018798
4910.0 0.0026063
4930.0 0.0027949
4950.0 0.0027568
4970.0 0.0017406
4990.0 0.0019969
5010.0 0.0023205
5030.0 0.0025211
5050.0 0.0024849
5070.0 0.0017977
5090.0 0.0014756
5110.0 0.0013802
5130.0 0.001231
5150.0 0.0014071
5170.0 0.0012267
5190.0 0.0015191
5210.0 0.0015171
5230.0 0.0016595
5250.0 0.0021038
5270.0 0.0017867
5290.0 0.0017543
5310.0 0.0025592
5330.0 0.0029631
5350.0 0.0025068
5370.0 0.0021898
5390.0 0.0024784
5410.0 0.0030965
5430.0 0.0034074
5450.0 0.0036528
5470.0 0.0036815
5490.0 0.003611
5510.0 0.0042132
5530.0 0.004367
5550.0 0.0046691
5570.0 0.0049465
5590.0 0.0049023
5610.0 0.0046466
5630.0 0.0044853
5650.0 0.0045685
5670.0 0.0045207
5690.0 0.003867
5710.0 0.0037075
5730.0 0.0037462
5750.0 0.0040796
5770.0 0.0035452
5790.0 0.0032508
5810.0 0.0032958
5830.0 0.00346
5850.0 0.0031664
5870.0 0.0031841
5890.0 0.0037759
5910.0 0.0036027
5930.0 0.0029648
5950.0 0.0025794
5970.0 0.0027543
5990.0 0.0025408
6010.0 0.0023956
6030.0 0.0024522
6050.0 0.0023005
6070.0 0.0017412
6090.0 0.0015662
6110.0 0.0020152
6130.0 0.0023215
6150.0 0.0024432
6170.0 0.0023835
6190.0 0.0022452
6210.0 0.0022
6230.0 0.0025423
6250.0 0.00235
6270.0 0.0021492
6290.0 0.0019748
6310.0 0.0018679
6330.0 0.0017775
6350.0 0.001558
6370.0 0.001548
6390.0 0.0018346
6410.0 0.0022785
6430.0 0.0026164
6450.0 0.0024674
6470.0 0.0024211
6490.0 0.0030145
6510.0 0.0034487
6530.0 0.0032673
6550.0 0.003145
6570.0 0.0031934
6590.0 0.003094
6610.0 0.0033609
6630.0 0.0031646
6650.0 0.0028047
6670.0 0.0025281
6690.0 0.002448
6710.0 0.0029894
6730.0 0.0027492
6750.0 0.002367
6770.0 0.0021346
6790.0 0.0022371
6810.0 0.0024742
6830.0 0.0024151
6850.0 0.0021983
6870.0 0.0022703
6890.0 0.0022291
6910.0 0.0021045
6930.0 0.0024109
6950.0 0.002237
6970.0 0.0020981
6990.0 0.0020959
7010.0 0.0020061
7030.0 0.0018894
7050.0 0.0018224
7070.0 0.0019688
7090.0 0.0018656
7110.0 0.0016189
7130.0 0.0013111
7150.0 0.0011902
7170.0 0.001576
7190.0 0.0017174
7210.0 0.0016613
7230.0 0.0017289
7250.0 0.0016116
7270.0 0.0015353
7290.0 0.0016968
7310.0 0.0018902
7330.0 0.0018551
7350.0 0.0017417
7370.0 0.0016652
7390.0 0.0017446
7410.0 0.0020334
7430.0 0.0022238
7450.0 0.002368
7470.0 0.0023285
7490.0 0.002391
7510.0 0.0022952
7530.0 0.0022971
7550.0 0.0022676
7570.0 0.0019991
7590.0 0.0019804
7610.0 0.0019252
7630.0 0.0017944
7650.0 0.0019702
7670.0 0.0021517
7690.0 0.0023373
7710.0 0.0026064
7730.0 0.0027784
7750.0 0.0029049
7770.0 0.0029068
7790.0 0.0031728
7810.0 0.0032764
7830.0 0.003033
7850.0 0.003056
7870.0 0.0029123
7890.0 0.0030416
7910.0 0.0028855
7930.0 0.0029078
7950.0 0.0025839
7970.0 0.0026514
7990.0 0.0025445
8010.0 0.0025451
8030.0 0.0025362
8050.0 0.0026596
8070.0 0.0025673
8090.0 0.0025755
8110.0 0.002512
8130.0 0.0025123
8150.0 0.0024071
8170.0 0.0023422
8190.0 0.0023147
8210.0 0.0023335
8230.0 0.0020798
8250.0 0.001906
8270.0 0.0016734
8290.0 0.0013917
8310.0 0.001188
8330.0 0.00094816
8350.0 0.00079886
8370.0 0.00082464
8390.0 0.00084563
8410.0 0.00089828
8430.0 0.0010946
8450.0 0.0011713
8470.0 0.0012382
8490.0 0.0014185
8510.0 0.0015476
8530.0 0.0017841
8550.0 0.0021102
8570.0 0.0023538
8590.0 0.0025276
8610.0 0.0027594
8630.0 0.0030328
8650.0 0.0030835
8670.0 0.0031172
8690.0 0.0032388
8710.0 0.0032078
8730.0 0.0031788
8750.0 0.0030117
8770.0 0.0030152
8790.0 0.0029753
8810.0 0.0027483
8830.0 0.0027445
8850.0 0.0025787
8870.0 0.002479
8890.0 0.0022725
8910.0 0.002432
8930.0 0.0022293
8950.0 0.0021914
8970.0 0.0021969
8990.0 0.0021259
9010.0 0.0021604
9030.0 0.0020744
9050.0 0.002063
9070.0 0.0020604
9090.0 0.0020574
9110.0 0.0020551
9130.0 0.0020515
9150.0 0.0020472
9170.0 0.0020381
9190.0 0.0020213
9210.0 0.0020441
9230.0 0.0020332
9250.0 0.0020254
9270.0 0.002018
9290.0 0.0020109
9310.0 0.0020039
9330.0 0.001997
9350.0 0.0019899
9370.0 0.0019827
9390.0 0.0019754
9410.0 0.0019678
9430.0 0.00196
9450.0 0.001952
9470.0 0.0019439
9490.0 0.0019358
9510.0 0.0019275
9530.0 0.0019191
9550.0 0.0019105
9570.0 0.0019018
9590.0 0.0018931
9610.0 0.0018843
9630.0 0.0018753
9650.0 0.0018664
9670.0 0.0018574
9690.0 0.0018483
9710.0 0.0018392
9730.0 0.0018301
9750.0 0.001821
9770.0 0.0018119
9790.0 0.0018028
9810.0 0.0017938
9830.0 0.0017847
9850.0 0.0017757
9870.0 0.0017667
9890.0 0.0017578
9910.0 0.0017489
9930.0 0.0017401
9950.0 0.0017261
9970.0 0.001719
9990.0 0.0017116
10010.0 0.0017042
10030.0 0.0016965
10050.0 0.0016881
10070.0 0.0016782
10090.0 0.001671
10110.0 0.0016635
10130.0 0.001656
10150.0 0.0016486
10170.0 0.0016411
10190.0 0.0016333
10210.0 0.001626
10230.0 0.0016189
10250.0 0.0016116
10270.0 0.0016044
10290.0 0.0015977
10310.0 0.0015908
10330.0 0.0015839
10350.0 0.0015774
10370.0 0.0015711
10390.0 0.0015647
10410.0 0.0015585
10430.0 0.0015526
10450.0 0.0015467
10470.0 0.0015408
10490.0 0.0015353
10510.0 0.0015299
10530.0 0.0015243
10550.0 0.001519
10570.0 0.0015141
10590.0 0.0015091
10610.0 0.0015041
10630.0 0.0014995
10650.0 0.001495
10670.0 0.0014904
10690.0 0.0014861
10710.0 0.001482
10730.0 0.0014778
10750.0 0.0014737
10770.0 0.00147
10790.0 0.0014663
10810.0 0.0014626
10830.0 0.001459
10850.0 0.0014556
10870.0 0.0014519
10890.0 0.0014478
10910.0 0.0014432
10930.0 0.0014375
10950.0 0.0014296
10970.0 0.0014193
10990.0 0.0014066
11010.0 0.0013812
11030.0 0.0013617
11050.0 0.0013392
11070.0 0.0013135
11090.0 0.0012837
11110.0 0.001254
11130.0 0.0012242
11150.0 0.0011933
11170.0 0.0011629
11190.0 0.0011346
11210.0 0.0011066
11230.0 0.001079
11250.0 0.0010537
11270.0 0.0010302
11290.0 0.0010072
11310.0 0.00098577
11330.0 0.00096716
11350.0 0.00094948
11370.0 0.00093278
11390.0 0.00091788
11410.0 0.00090423
11430.0 0.0008905
11450.0 0.00087766
11470.0 0.00086558
11490.0 0.00085325
11510.0 0.00084028
11530.0 0.00082763
11550.0 0.00081461
11570.0 0.00080032
11590.0 0.00078547
11610.0 0.00077048
11630.0 0.00075411
11650.0 0.00073653
11670.0 0.00071932
11690.0 0.00070173
11710.0 0.00068318
11730.0 0.00066483
11750.0 0.00064748
11770.0 0.00062969
11790.0 0.00061216
11810.0 0.00059597
11830.0 0.00058056
11850.0 0.0005651
11870.0 0.00055112
11890.0 0.00053856
11910.0 0.00052638
11930.0 0.00051488
11950.0 0.00050467
11970.0 0.00049499
11990.0 0.0004854
12010.0 0.00047665
12030.0 0.00046859
12050.0 0.00046058
12070.0 0.00045273
12090.0 0.00044585
12110.0 0.00043919
12130.0 0.00043268
12150.0 0.00042685
12170.0 0.0004218
12190.0 0.00041698
12210.0 0.00041307
12230.0 0.00041034
12250.0 0.0004086
12270.0 0.00040802
12290.0 0.00040891
12310.0 0.0004112
12330.0 0.000415
12350.0 0.00042035
12370.0 0.00042702
12390.0 0.00043506
12410.0 0.00044471
12430.0 0.00045499
12450.0 0.00046592
12470.0 0.00047764
12490.0 0.00048961
12510.0 0.00050118
12530.0 0.00051279
12550.0 0.00052417
12570.0 0.00053468
12590.0 0.00054439
12610.0 0.00055354
12630.0 0.00056173
12650.0 0.00056876
12670.0 0.00057501
12690.0 0.00058038
12710.0 0.00058481
12730.0 0.00058842
12750.0 0.00059122
12770.0 0.00059323
12790.0 0.00059455
12810.0 0.00059513
12830.0 0.00059493
12850.0 0.00059422
12870.0 0.00059291
12890.0 0.0005908
12910.0 0.00058812
12930.0 0.00058503
12950.0 0.00058109
12970.0 0.00057637
12990.0 0.00057141
13010.0 0.00056588
13030.0 0.00055951
13050.0 0.00055276
13070.0 0.00054591
13090.0 0.00053831
13110.0 0.00053031
13130.0 0.0005225
13150.0 0.00051464
13170.0 0.00050642
13190.0 0.00049885
13210.0 0.00049204
13230.0 0.0004856
13250.0 0.00047993
13270.0 0.00047546
13290.0 0.0004719
13310.0 0.00046923
13330.0 0.00046777
13350.0 0.00046729
13370.0 0.00046759
13390.0 0.00046856
13410.0 0.00046996
13430.0 0.00047151
13450.0 0.00047298
13470.0 0.00047409
13490.0 0.00047468
13510.0 0.00047446
13530.0 0.00047332
13550.0 0.00047134
13570.0 0.0004684
13590.0 0.00046442
13610.0 0.00045979
13630.0 0.00045471
13650.0 0.00044889
13670.0 0.0004428
13690.0 0.0004368
13710.0 0.00043072
13730.0 0.00042446
13750.0 0.00041882
13770.0 0.0004135
13790.0 0.00040832
13810.0 0.00040349
13830.0 0.00039916
13850.0 0.00039492
13870.0 0.00039082
13890.0 0.00038702
13910.0 0.00038337
13930.0 0.00037966
13950.0 0.00037603
13970.0 0.00037264
13990.0 0.00036922
14010.0 0.00036583
14030.0 0.00036265
14050.0 0.00035964
14070.0 0.00035667
14090.0 0.000354
14110.0 0.00035164
14130.0 0.00034951
14150.0 0.00034765
14170.0 0.00034615
14190.0 0.00034495
14210.0 0.00034404
14230.0 0.00034346
14250.0 0.00034318
14270.0 0.00034321
14290.0 0.00034358
14310.0 0.00034417
14330.0 0.00034502
14350.0 0.00034616
14370.0 0.00034746
14390.0 0.00034882
14410.0 0.00035036
14430.0 0.00035195
14450.0 0.00035342
14470.0 0.00035482
14490.0 0.00035622
14510.0 0.00035736
14530.0 0.00035829
14550.0 0.00035914
14570.0 0.00035987
14590.0 0.00036044
14610.0 0.00036103
14630.0 0.00036176
14650.0 0.00036257
14670.0 0.00036357
14690.0 0.00036497
14710.0 0.00036684
14730.0 0.00036897
14750.0 0.00037168
14770.0 0.00037507
14790.0 0.00037891
14810.0 0.00038316
14830.0 0.00038834
14850.0 0.00039392
14870.0 0.0003996
14890.0 0.00040562
14910.0 0.00041187
14930.0 0.0004176
14950.0 0.00042266
14970.0 0.0004272
14990.0 0.00043058
15010.0 0.00043262
15030.0 0.00043356
15050.0 0.00043347
15070.0 0.00043236
15090.0 0.00043063
15110.0 0.00042847
15130.0 0.00042603
15150.0 0.00042347
15170.0 0.00042082
15190.0 0.00041811
15210.0 0.00041542
15230.0 0.00041272
15250.0 0.00040999
15270.0 0.00040727
15290.0 0.00040459
15310.0 0.00040189
15330.0 0.00039918
15350.0 0.0003965
15370.0 0.00039382
15390.0 0.00039111
15410.0 0.00038843
15430.0 0.00038578
15450.0 0.00038311
15470.0 0.00038044
15490.0 0.00037781
15510.0 0.00037518
15530.0 0.00037254
15550.0 0.00036992
15570.0 0.00036733
15590.0 0.00036472
15610.0 0.00036211
15630.0 0.00035955
15650.0 0.00035699
15670.0 0.00035443
15690.0 0.00035189
15710.0 0.00034939
15730.0 0.00034687
15750.0 0.00034436
15770.0 0.00034188
15790.0 0.00033942
15810.0 0.00033694
15830.0 0.0003345
15850.0 0.00033209
15870.0 0.00032968
15890.0 0.00032728
15910.0 0.00032491
15930.0 0.00032256
15950.0 0.00032019
15970.0 0.00031787
15990.0 0.00031556
16010.0 0.00031326
16030.0 0.00031097
16050.0 0.00030872
16070.0 0.00030648
16090.0 0.00030424
16110.0 0.00030204
16130.0 0.00029986
16150.0 0.00029767
16170.0 0.0002955
16190.0 0.00029338
16210.0 0.00029126
16230.0 0.00028914
16250.0 0.00028706
16270.0 0.00028501
16290.0 0.00028295
16310.0 0.00028092
16330.0 0.00027892
16350.0 0.00027692
16370.0 0.00027492
16390.0 0.00027298
16410.0 0.00027105
16430.0 0.00026912
16450.0 0.00026721
16470.0 0.00026534
16490.0 0.00026347
16510.0 0.00026161
16530.0 0.00025978
16550.0 0.00025798
16570.0 0.00025617
16590.0 0.00025439
16610.0 0.00025264
16630.0 0.0002509
16650.0 0.00024917
16670.0 0.00024747
16690.0 0.00024579
16710.0 0.0002441
16730.0 0.00024244
16750.0 0.00024082
16770.0 0.00023919
16790.0 0.00023758
16810.0 0.000236
16830.0 0.00023444
16850.0 0.00023288
16870.0 0.00023134
16890.0 0.00022984
16910.0 0.00022833
16930.0 0.00022683
16950.0 0.00022537
16970.0 0.00022392
16990.0 0.00022247
17010.0 0.00022105
17030.0 0.00021965
17050.0 0.00021825
17070.0 0.00021687
17090.0 0.00021552
17110.0 0.00021418
17130.0 0.00021283
17150.0 0.00021152
17170.0 0.00021023
17190.0 0.00020894
17210.0 0.00020766
17230.0 0.00020642
17250.0 0.00020517
17270.0 0.00020393
17290.0 0.00020272
17310.0 0.00020153
17330.0 0.00020033
17350.0 0.00019915
17370.0 0.000198
17390.0 0.00019686
17410.0 0.00019572
17430.0 0.0001946
17450.0 0.00019351
17470.0 0.00019239
17490.0 0.00019131
17510.0 0.00019025
17530.0 0.00018919
17550.0 0.00018814
17570.0 0.00018711
17590.0 0.0001861
17610.0 0.00018508
17630.0 0.00018408
17650.0 0.0001831
17670.0 0.00018213
17690.0 0.00018115
17710.0 0.00018021
17730.0 0.00017927
17750.0 0.00017834
17770.0 0.00017741
17790.0 0.00017652
17810.0 0.00017562
17830.0 0.00017472
17850.0 0.00017385
17870.0 0.00017299
17890.0 0.00017212
17910.0 0.00017127
17930.0 0.00017045
17950.0 0.00016962
17970.0 0.00016879
17990.0 0.00016799
18010.0 0.0001672
18030.0 0.0001664
18050.0 0.00016562
18070.0 0.00016485
18090.0 0.00016409
18110.0 0.00016332
18130.0 0.00016259
18150.0 0.00016186
18170.0 0.00016112
18190.0 0.0001604
18210.0 0.0001597
18230.0 0.00015899
18250.0 0.00015828
18270.0 0.00015761
18290.0 0.00015693
18310.0 0.00015625
18330.0 0.00015559
18350.0 0.00015494
18370.0 0.00015429
18390.0 0.00015364
18410.0 0.00015301
18430.0 0.00015239
18450.0 0.00015175
18470.0 0.00015114
18490.0 0.00015054
18510.0 0.00014994
18530.0 0.00014934
18550.0 0.00014876
18570.0 0.00014818
18590.0 0.0001476
18610.0 0.00014703
18630.0 0.00014648
18650.0 0.00014591
18670.0 0.00014536
18690.0 0.00014483
18710.0 0.00014429
18730.0 0.00014375
18750.0 0.00014323
18770.0 0.00014272
18790.0 0.00014218
18810.0 0.00014167
18830.0 0.00014117
18850.0 0.00014067
18870.0 0.00014017
18890.0 0.00013969
18910.0 0.00013921
18930.0 0.00013872
18950.0 0.00013825
18970.0 0.00013779
18990.0 0.00013732
19010.0 0.00013684
19030.0 0.0001364
19050.0 0.00013595
19070.0 0.0001355
19090.0 0.00013505
19110.0 0.00013463
19130.0 0.00013419
19150.0 0.00013375
19170.0 0.00013333
19190.0 0.00013291
19210.0 0.00013248
19230.0 0.00013207
19250.0 0.00013167
19270.0 0.00013126
19290.0 0.00013085
19310.0 0.00013046
19330.0 0.00013007
19350.0 0.00012966
19370.0 0.00012928
19390.0 0.0001289
19410.0 0.00012851
19430.0 0.00012813
19450.0 0.00012776
19470.0 0.00012739
19490.0 0.00012701
19510.0 0.00012665
19530.0 0.0001263
19550.0 0.00012593
19570.0 0.00012556
19590.0 0.00012521
19610.0 0.00012486
19630.0 0.00012451
19650.0 0.00012416
19670.0 0.00012383
19690.0 0.00012348
19710.0 0.00012314
19730.0 0.00012281
19750.0 0.00012247
19770.0 0.00012213
19790.0 0.0001218
19810.0 0.00012148
19830.0 0.00012115
19850.0 0.00012082
19870.0 0.00012049
19890.0 0.00012013
19910.0 0.00011972
19930.0 0.00011926
19950.0 0.0001187
19970.0 0.00011798
19990.0 0.00011708
20010.0 0.00011602
20030.0 0.00011471
20050.0 0.00011316
20070.0 0.00011148
20090.0 0.00010967
20110.0 0.00010763
20130.0 0.00010558
20150.0 0.00010356
20170.0 0.00010149
20190.0 9.9403e-05
20210.0 9.7447e-05
20230.0 9.555e-05
20250.0 9.3655e-05
20270.0 9.1907e-05
20290.0 9.0323e-05
20310.0 8.8828e-05
20330.0 8.7446e-05
20350.0 8.6327e-05
20370.0 8.5362e-05
20390.0 8.4556e-05
20410.0 8.3964e-05
20430.0 8.3578e-05
20450.0 8.3366e-05
20470.0 8.3361e-05
20490.0 8.3545e-05
20510.0 8.3904e-05
20530.0 8.4451e-05
20550.0 8.5144e-05
20570.0 8.5943e-05
20590.0 8.6889e-05
20610.0 8.7935e-05
20630.0 8.9018e-05
20650.0 9.0158e-05
20670.0 9.138e-05
20690.0 9.255e-05
20710.0 9.3678e-05
20730.0 9.4794e-05
20750.0 9.5846e-05
20770.0 9.6771e-05
20790.0 9.762e-05
20810.0 9.8379e-05
20830.0 9.9e-05
20850.0 9.9498e-05
20870.0 9.9892e-05
20890.0 0.00010016
20910.0 0.0001003
20930.0 0.00010035
20950.0 0.00010029
20970.0 0.00010014
20990.0 9.9914e-05
21010.0 9.9598e-05
21030.0 9.9217e-05
21050.0 9.8793e-05
21070.0 9.8309e-05
21090.0 9.7759e-05
21110.0 9.7204e-05
21130.0 9.6629e-05
21150.0 9.6013e-05
21170.0 9.5394e-05
21190.0 9.4801e-05
21210.0 9.4195e-05
21230.0 9.3597e-05
21250.0 9.3059e-05
21270.0 9.2564e-05
21290.0 9.2102e-05
21310.0 9.1708e-05
21330.0 9.1399e-05
21350.0 9.115e-05
21370.0 9.0978e-05
21390.0 9.0896e-05
21410.0 9.0895e-05
21430.0 9.0981e-05
21450.0 9.1153e-05
21470.0 9.14e-05
21490.0 9.1728e-05
21510.0 9.2135e-05
21530.0 9.2592e-05
21550.0 9.3109e-05
21570.0 9.37e-05
21590.0 9.4329e-05
21610.0 9.4984e-05
21630.0 9.5695e-05
21650.0 9.646e-05
21670.0 9.7207e-05
21690.0 9.7989e-05
21710.0 9.8816e-05
21730.0 9.9648e-05
21750.0 0.00010047
21770.0 0.00010137
21790.0 0.00010227
21810.0 0.00010317
21830.0 0.00010409
21850.0 0.00010505
21870.0 0.00010601
21890.0 0.00010695
21910.0 0.00010794
21930.0 0.00010893
21950.0 0.00010989
21970.0 0.00011086
21990.0 0.00011186
22010.0 0.0001128
22030.0 0.00011369
22050.0 0.00011457
22070.0 0.0001154
22090.0 0.00011614
22110.0 0.00011681
22130.0 0.00011742
22150.0 0.00011791
22170.0 0.0001183
22190.0 0.00011857
22210.0 0.00011872
22230.0 0.00011872
22250.0 0.00011859
22270.0 0.00011831
22290.0 0.00011789
22310.0 0.00011735
22330.0 0.00011662
22350.0 0.00011576
22370.0 0.00011479
22390.0 0.00011368
22410.0 0.00011241
22430.0 0.00011109
22450.0 0.00010969
22470.0 0.00010816
22490.0 0.00010658
22510.0 0.00010501
22530.0 0.00010334
22550.0 0.00010161
22570.0 9.9949e-05
22590.0 9.8298e-05
22610.0 9.661e-05
22630.0 9.4978e-05
22650.0 9.3458e-05
22670.0 9.1929e-05
22690.0 9.0445e-05
22710.0 8.9077e-05
22730.0 8.7779e-05
22750.0 8.6481e-05
22770.0 8.5309e-05
22790.0 8.4242e-05
22810.0 8.3214e-05
22830.0 8.2249e-05
22850.0 8.1393e-05
22870.0 8.0591e-05
22890.0 7.9824e-05
22910.0 7.9142e-05
22930.0 7.8533e-05
22950.0 7.7962e-05
22970.0 7.7438e-05
22990.0 7.7005e-05
23010.0 7.6616e-05
