#lamb flux
1010.0 2.9926e-07
1030.0 3.3098e-07
1050.0 3.6747e-07
1070.0 4.0854e-07
1090.0 4.552e-07
1110.0 5.0305e-07
1130.0 5.5121e-07
1150.0 6.0166e-07
1170.0 6.537e-07
1190.0 7.0305e-07
1210.0 7.5306e-07
1230.0 8.0474e-07
1250.0 8.5537e-07
1270.0 9.0455e-07
1290.0 9.5651e-07
1310.0 1.0084e-06
1330.0 1.0582e-06
1350.0 1.1086e-06
1370.0 1.1606e-06
1390.0 1.2113e-06
1410.0 1.2604e-06
1430.0 1.3119e-06
1450.0 1.3633e-06
1470.0 1.413e-06
1490.0 1.4632e-06
1510.0 1.5163e-06
1530.0 1.5666e-06
1550.0 1.6162e-06
1570.0 1.6675e-06
1590.0 1.7189e-06
1610.0 1.768e-06
1630.0 1.8187e-06
1650.0 1.8707e-06
1670.0 1.9211e-06
1690.0 1.9708e-06
1710.0 2.0225e-06
1730.0 2.0745e-06
1750.0 2.1235e-06
1770.0 2.1739e-06
1790.0 2.2255e-06
1810.0 2.2754e-06
1830.0 2.3245e-06
1850.0 2.3768e-06
1870.0 2.4277e-06
1890.0 2.4771e-06
1910.0 2.5275e-06
1930.0 2.5792e-06
1950.0 2.6287e-06
1970.0 2.6778e-06
1990.0 2.7287e-06
2010.0 2.779e-06
2030.0 2.8276e-06
2050.0 2.8777e-06
2070.0 2.9293e-06
2090.0 2.978e-06
2110.0 3.0267e-06
2130.0 3.0769e-06
2150.0 3.1264e-06
2170.0 3.1737e-06
2190.0 3.223e-06
2210.0 3.2726e-06
2230.0 3.3203e-06
2250.0 3.3678e-06
2270.0 3.4176e-06
2290.0 3.4659e-06
2310.0 3.5123e-06
2330.0 3.5606e-06
2350.0 3.6102e-06
2370.0 3.6595e-06
2390.0 3.713e-06
2410.0 3.7764e-06
2430.0 3.8493e-06
2450.0 3.9364e-06
2470.0 4.048e-06
2490.0 4.1886e-06
2510.0 4.3485e-06
2530.0 4.541e-06
2550.0 4.7819e-06
2570.0 5.0817e-06
2590.0 5.4716e-06
2610.0 6.0553e-06
2630.0 6.8887e-06
2650.0 7.9784e-06
2670.0 9.3873e-06
2690.0 1.1119e-05
2710.0 1.2967e-05
2730.0 1.4793e-05
2750.0 1.6592e-05
2770.0 1.8156e-05
2790.0 1.9399e-05
2810.0 2.0385e-05
2830.0 2.1155e-05
2850.0 2.1681e-05
2870.0 2.2067e-05
2890.0 2.2372e-05
2910.0 2.2616e-05
2930.0 2.2815e-05
2950.0 2.3006e-05
2970.0 2.3192e-05
2990.0 2.3366e-05
3010.0 0.00066045
3030.0 0.00066539
3050.0 0.00067016
3070.0 0.00067425
3090.0 0.00067776
3110.0 0.00067994
3130.0 0.00067986
3150.0 0.00067684
3170.0 0.00066959
3190.0 0.0006582
3210.0 0.00064377
3230.0 0.00062724
3250.0 0.00061093
3270.0 0.00059901
3290.0 0.00059239
3310.0 0.00059346
3330.0 0.00060205
3350.0 0.00061701
3370.0 0.00063837
3390.0 0.00066528
3410.0 0.00069457
3430.0 0.00072746
3450.0 0.00076531
3470.0 0.00080665
3490.0 0.00085046
3510.0 0.00089998
3530.0 0.00095301
3550.0 0.0010067
3570.0 0.0010627
3590.0 0.0011236
3610.0 0.0011864
3630.0 0.0012489
3650.0 0.0013139
3670.0 0.0013731
3690.0 0.0014174
3710.0 0.0014428
3730.0 0.0014436
3750.0 0.0014236
3770.0 0.0014157
3790.0 0.0014072
3810.0 0.0013727
3830.0 0.0014152
3850.0 0.0015823
3870.0 0.0016741
3890.0 0.0016664
3910.0 0.0016735
3930.0 0.0017176
3950.0 0.0017447
3970.0 0.0015896
3990.0 0.0013678
4010.0 0.0040994
4030.0 0.004967
4050.0 0.0056943
4070.0 0.0049408
4090.0 0.0044749
4110.0 0.0039486
4130.0 0.0036343
4150.0 0.0038658
4170.0 0.003808
4190.0 0.004059
4210.0 0.0040219
4230.0 0.0042541
4250.0 0.0050327
4270.0 0.0050919
4290.0 0.0046921
4310.0 0.0048754
4330.0 0.005186
4350.0 0.0058148
4370.0 0.0066173
4390.0 0.0062097
4410.0 0.0045879
4430.0 0.0038839
4450.0 0.0035689
4470.0 0.0027392
4490.0 0.002956
4510.0 0.0044651
4530.0 0.0051495
4550.0 0.0051942
4570.0 0.0058448
4590.0 0.0066578
4610.0 0.0089798
4630.0 0.011663
4650.0 0.012648
4670.0 0.011713
4690.0 0.011177
4710.0 0.011815
4730.0 0.01115
4750.0 0.0083358
4770.0 0.0061146
4790.0 0.0057098
4810.0 0.0054424
4830.0 0.0049825
4850.0 0.0054674
4870.0 0.007223
4890.0 0.0085179
4910.0 0.0074734
4930.0 0.0066129
4950.0 0.0072652
4970.0 0.0093172
4990.0 0.012627
5010.0 0.014526
5030.0 0.012808
5050.0 0.0086657
5070.0 0.005711
5090.0 0.0046051
5110.0 0.0047359
5130.0 0.005466
5150.0 0.005922
5170.0 0.0058331
5190.0 0.0054507
5210.0 0.0056972
5230.0 0.005989
5250.0 0.0064544
5270.0 0.0069638
5290.0 0.0077173
5310.0 0.0089826
5330.0 0.0099403
5350.0 0.0098768
5370.0 0.010375
5390.0 0.011905
5410.0 0.011894
5430.0 0.010519
5450.0 0.0096641
5470.0 0.010261
5490.0 0.012537
5510.0 0.015675
5530.0 0.017978
5550.0 0.017376
5570.0 0.015796
5590.0 0.013735
5610.0 0.012666
5630.0 0.012282
5650.0 0.011698
5670.0 0.011084
5690.0 0.0099094
5710.0 0.0096618
5730.0 0.0088999
5750.0 0.0062749
5770.0 0.0048954
5790.0 0.0055475
5810.0 0.0062641
5830.0 0.0076868
5850.0 0.0091502
5870.0 0.010152
5890.0 0.010324
5910.0 0.010129
5930.0 0.0096412
5950.0 0.0098242
5970.0 0.011198
5990.0 0.010529
6010.0 0.0088267
6030.0 0.0074573
6050.0 0.0064944
6070.0 0.0064588
6090.0 0.0070036
6110.0 0.0078311
6130.0 0.0079511
6150.0 0.0068412
6170.0 0.0060181
6190.0 0.0067726
6210.0 0.0089532
6230.0 0.011749
6250.0 0.012726
6270.0 0.011121
6290.0 0.0093565
6310.0 0.0073044
6330.0 0.0055965
6350.0 0.004992
6370.0 0.0052496
6390.0 0.0060688
6410.0 0.0074831
6430.0 0.0087382
6450.0 0.0099988
6470.0 0.011449
6490.0 0.013829
6510.0 0.015463
6530.0 0.01517
6550.0 0.013718
6570.0 0.011645
6590.0 0.010501
6610.0 0.0090545
6630.0 0.008203
6650.0 0.0077542
6670.0 0.007533
6690.0 0.0068065
6710.0 0.0061873
6730.0 0.0044566
6750.0 0.0044182
6770.0 0.0048023
6790.0 0.0055199
6810.0 0.0050508
6830.0 0.0052009
6850.0 0.0048645
6870.0 0.0044437
6890.0 0.0042667
6910.0 0.0045467
6930.0 0.0042586
6950.0 0.0043814
6970.0 0.0046084
6990.0 0.0052309
7010.0 0.0052755
7030.0 0.0053593
7050.0 0.005111
7070.0 0.0048698
7090.0 0.0048841
7110.0 0.0050254
7130.0 0.0054081
7150.0 0.0057438
7170.0 0.0063379
7190.0 0.0069671
7210.0 0.0068461
7230.0 0.0070379
7250.0 0.0075634
7270.0 0.0082422
7290.0 0.0097827
7310.0 0.010615
7330.0 0.01026
7350.0 0.0092799
7370.0 0.0080744
7390.0 0.0078331
7410.0 0.0083242
7430.0 0.0092513
7450.0 0.010076
7470.0 0.0099838
7490.0 0.0091033
7510.0 0.010312
7530.0 0.010199
7550.0 0.0091671
7570.0 0.0071613
7590.0 0.0049231
7610.0 0.0042255
7630.0 0.004801
7650.0 0.0056766
7670.0 0.007065
7690.0 0.0077745
7710.0 0.008102
7730.0 0.0085143
7750.0 0.0095582
7770.0 0.0097086
7790.0 0.0089178
7810.0 0.008137
7830.0 0.0083912
7850.0 0.008157
7870.0 0.0074786
7890.0 0.0062835
7910.0 0.0051077
7930.0 0.0048771
7950.0 0.0044432
7970.0 0.004113
7990.0 0.0040895
8010.0 0.00030302
8030.0 0.00029906
8050.0 0.00029505
8070.0 0.00029894
8090.0 0.00032124
8110.0 0.00031576
8130.0 0.0002604
8150.0 0.00025362
8170.0 0.00021841
8190.0 0.00020695
8210.0 0.00026884
8230.0 0.00029933
8250.0 0.0002697
8270.0 0.00023472
8290.0 0.00022888
8310.0 0.00017617
8330.0 0.00011873
8350.0 8.4269e-05
8370.0 5.3064e-05
8390.0 9.7051e-05
8410.0 0.00011309
8430.0 0.0001394
8450.0 0.00016369
8470.0 0.0002035
8490.0 0.00020204
8510.0 0.00019872
8530.0 0.00020734
8550.0 0.00027985
8570.0 0.00033135
8590.0 0.00035744
8610.0 0.00045157
8630.0 0.00054396
8650.0 0.00056891
8670.0 0.00060465
8690.0 0.00060815
8710.0 0.00055074
8730.0 0.00051232
8750.0 0.00045219
8770.0 0.00042905
8790.0 0.00042154
8810.0 0.00040396
8830.0 0.00032297
8850.0 0.00023639
8870.0 0.00018099
8890.0 0.00017702
8910.0 0.00020291
8930.0 0.00023083
8950.0 0.00023527
8970.0 0.00023637
8990.0 0.00021077
9010.0 0.0022072
9030.0 0.002
9050.0 0.0020096
9070.0 0.0020255
9090.0 0.0020394
9110.0 0.0020566
9130.0 0.0020699
9150.0 0.0020802
9170.0 0.0020912
9190.0 0.0021029
9210.0 0.0021153
9230.0 0.0021283
9250.0 0.0021415
9270.0 0.0021553
9290.0 0.0021695
9310.0 0.0021837
9330.0 0.0021982
9350.0 0.0022133
9370.0 0.0022286
9390.0 0.002244
9410.0 0.0022598
9430.0 0.0022761
9450.0 0.0022924
9470.0 0.002309
9490.0 0.0023261
9510.0 0.0023433
9530.0 0.0023607
9550.0 0.0023787
9570.0 0.0023969
9590.0 0.0024153
9610.0 0.0024339
9630.0 0.0024531
9650.0 0.0024724
9670.0 0.0024917
9690.0 0.0025116
9710.0 0.0025318
9730.0 0.002552
9750.0 0.0025725
9770.0 0.0025936
9790.0 0.0026147
9810.0 0.0026359
9830.0 0.0026575
9850.0 0.0026795
9870.0 0.0027013
9890.0 0.0027235
9910.0 0.0027461
9930.0 0.0027687
9950.0 0.0027914
9970.0 0.0028146
9990.0 0.002838
10010.0 0.0024626
10030.0 0.0024829
10050.0 0.0025035
10070.0 0.0025248
10090.0 0.0025449
10110.0 0.0025656
10130.0 0.0025863
10150.0 0.0026069
10170.0 0.0026278
10190.0 0.002649
10210.0 0.00267
10230.0 0.0026909
10250.0 0.0027122
10270.0 0.0027334
10290.0 0.0027544
10310.0 0.0027756
10330.0 0.0027971
10350.0 0.0028182
10370.0 0.0028392
10390.0 0.0028605
10410.0 0.0028817
10430.0 0.0029024
10450.0 0.0029234
10470.0 0.0029444
10490.0 0.0029651
10510.0 0.0029856
10530.0 0.0030064
10550.0 0.0030269
10570.0 0.003047
10590.0 0.0030672
10610.0 0.0030874
10630.0 0.003107
10650.0 0.0031266
10670.0 0.0031463
10690.0 0.0031656
10710.0 0.0031845
10730.0 0.0032035
10750.0 0.0032225
10770.0 0.0032407
10790.0 0.0032587
10810.0 0.0032768
10830.0 0.0032943
10850.0 0.0033109
10870.0 0.0033269
10890.0 0.0033411
10910.0 0.003352
10930.0 0.0033582
10950.0 0.0033567
10970.0 0.0033454
10990.0 0.003323
11010.0 0.0032855
11030.0 0.0032333
11050.0 0.0031696
11070.0 0.0030934
11090.0 0.0030019
11110.0 0.0029072
11130.0 0.0028085
11150.0 0.0027021
11170.0 0.0025925
11190.0 0.0024862
11210.0 0.0023764
11230.0 0.0022639
11250.0 0.0021563
11270.0 0.002053
11290.0 0.0019495
11310.0 0.0018514
11330.0 0.0017651
11350.0 0.0016835
11370.0 0.0016082
11390.0 0.0015429
11410.0 0.0014859
11430.0 0.0014329
11450.0 0.0013872
11470.0 0.0013477
11490.0 0.001311
11510.0 0.0012756
11530.0 0.0012427
11550.0 0.0012101
11570.0 0.0011752
11590.0 0.0011392
11610.0 0.0011025
11630.0 0.0010625
11650.0 0.0010198
11670.0 0.0009776
11690.0 0.00093485
11710.0 0.00089075
11730.0 0.00084802
11750.0 0.00080847
11770.0 0.00076968
11790.0 0.00073334
11810.0 0.00070134
11830.0 0.00067272
11850.0 0.00064637
11870.0 0.00062432
11890.0 0.00060599
11910.0 0.00058988
11930.0 0.00057604
11950.0 0.00056451
11970.0 0.00055421
11990.0 0.00054448
12010.0 0.00053547
12030.0 0.00052679
12050.0 0.00051782
12070.0 0.00050849
12090.0 0.00049949
12110.0 0.00049036
12130.0 0.00048121
12150.0 0.00047277
12170.0 0.0004654
12190.0 0.00045903
12210.0 0.00045459
12230.0 0.00045244
12250.0 0.00045279
12270.0 0.0004562
12290.0 0.00046266
12310.0 0.00047191
12330.0 0.00048487
12350.0 0.00050103
12370.0 0.00051944
12390.0 0.00054066
12410.0 0.00056552
12430.0 0.0005908
12450.0 0.00061697
12470.0 0.0006448
12490.0 0.00067274
12510.0 0.00069897
12530.0 0.00072505
12550.0 0.00075021
12570.0 0.00077243
12590.0 0.00079193
12610.0 0.00080931
12630.0 0.00082316
12650.0 0.00083272
12670.0 0.00083901
12690.0 0.00084153
12710.0 0.00084014
12730.0 0.00083526
12750.0 0.00082658
12770.0 0.00081465
12790.0 0.0008002
12810.0 0.00078293
12830.0 0.00076295
12850.0 0.00074206
12870.0 0.00071997
12890.0 0.00069607
12910.0 0.00067177
12930.0 0.00064783
12950.0 0.00062284
12970.0 0.0005974
12990.0 0.00057334
13010.0 0.00054958
13030.0 0.00052555
13050.0 0.00050246
13070.0 0.00048085
13090.0 0.00045915
13110.0 0.00043816
13130.0 0.0004188
13150.0 0.00040047
13170.0 0.00038253
13190.0 0.00036656
13210.0 0.00035251
13230.0 0.00033966
13250.0 0.0003286
13270.0 0.00031987
13290.0 0.00031308
13310.0 0.00030841
13330.0 0.00030628
13350.0 0.00030653
13370.0 0.00030928
13390.0 0.00031468
13410.0 0.00032198
13430.0 0.00033147
13450.0 0.00034318
13470.0 0.0003562
13490.0 0.00036998
13510.0 0.00038552
13530.0 0.00040127
13550.0 0.00041635
13570.0 0.00043122
13590.0 0.00044571
13610.0 0.00045861
13630.0 0.00046986
13650.0 0.00048013
13670.0 0.00048866
13690.0 0.00049526
13710.0 0.00050036
13730.0 0.000504
13750.0 0.00050583
13770.0 0.00050624
13790.0 0.00050532
13810.0 0.00050309
13830.0 0.00049979
13850.0 0.00049533
13870.0 0.0004897
13890.0 0.00048326
13910.0 0.000476
13930.0 0.00046759
13950.0 0.00045842
13970.0 0.00044904
13990.0 0.00043883
14010.0 0.00042796
14030.0 0.00041713
14050.0 0.00040621
14070.0 0.00039468
14090.0 0.00038364
14110.0 0.00037326
14130.0 0.0003632
14150.0 0.00035373
14170.0 0.00034564
14190.0 0.00033865
14210.0 0.00033272
14230.0 0.00032833
14250.0 0.0003255
14270.0 0.00032412
14290.0 0.00032441
14310.0 0.00032622
14330.0 0.00032947
14350.0 0.00033425
14370.0 0.0003402
14390.0 0.00034696
14410.0 0.00035492
14430.0 0.00036367
14450.0 0.0003726
14470.0 0.00038186
14490.0 0.00039172
14510.0 0.00040114
14530.0 0.00041009
14550.0 0.00041903
14570.0 0.00042762
14590.0 0.00043544
14610.0 0.000443
14630.0 0.00045048
14650.0 0.00045745
14670.0 0.00046418
14690.0 0.00047119
14710.0 0.00047857
14730.0 0.00048595
14750.0 0.00049412
14770.0 0.00050339
14790.0 0.00051344
14810.0 0.00052433
14830.0 0.00053723
14850.0 0.00055126
14870.0 0.00056589
14890.0 0.00058168
14910.0 0.00059844
14930.0 0.00061456
14950.0 0.00062962
14970.0 0.00064388
14990.0 0.00065584
15010.0 0.00066499
15030.0 0.00067176
15050.0 0.00067624
15070.0 0.00067843
15090.0 0.00067919
15110.0 0.00067897
15130.0 0.00067812
15150.0 0.00067697
15170.0 0.00067562
15190.0 0.00067416
15210.0 0.00067273
15230.0 0.0006713
15250.0 0.00066981
15270.0 0.00066835
15290.0 0.00066696
15310.0 0.00066554
15330.0 0.0006641
15350.0 0.00066271
15370.0 0.00066134
15390.0 0.00065989
15410.0 0.0006585
15430.0 0.00065715
15450.0 0.00065577
15470.0 0.00065436
15490.0 0.00065303
15510.0 0.0006517
15530.0 0.00065032
15550.0 0.00064897
15570.0 0.00064767
15590.0 0.00064632
15610.0 0.00064494
15630.0 0.00064365
15650.0 0.00064234
15670.0 0.000641
15690.0 0.00063969
15710.0 0.00063842
15730.0 0.0006371
15750.0 0.00063578
15770.0 0.00063451
15790.0 0.00063323
15810.0 0.00063188
15830.0 0.0006306
15850.0 0.00062935
15870.0 0.00062806
15890.0 0.00062676
15910.0 0.00062552
15930.0 0.00062425
15950.0 0.00062294
15970.0 0.00062167
15990.0 0.00062043
16010.0 0.00061914
16030.0 0.00061783
16050.0 0.00061661
16070.0 0.00061536
16090.0 0.00061407
16110.0 0.00061282
16130.0 0.0006116
16150.0 0.00061029
16170.0 0.000609
16190.0 0.00060777
16210.0 0.00060651
16230.0 0.00060522
16250.0 0.00060397
16270.0 0.00060275
16290.0 0.00060146
16310.0 0.00060018
16330.0 0.00059895
16350.0 0.00059769
16370.0 0.00059636
16390.0 0.00059512
16410.0 0.00059388
16430.0 0.00059258
16450.0 0.0005913
16470.0 0.00059008
16490.0 0.00058879
16510.0 0.00058748
16530.0 0.00058622
16550.0 0.00058497
16570.0 0.00058365
16590.0 0.00058234
16610.0 0.00058111
16630.0 0.00057981
16650.0 0.0005785
16670.0 0.00057724
16690.0 0.00057597
16710.0 0.00057462
16730.0 0.00057331
16750.0 0.00057204
16770.0 0.00057073
16790.0 0.00056938
16810.0 0.00056811
16830.0 0.00056682
16850.0 0.00056547
16870.0 0.00056415
16890.0 0.00056287
16910.0 0.00056152
16930.0 0.00056014
16950.0 0.00055885
16970.0 0.00055752
16990.0 0.00055615
17010.0 0.00055482
17030.0 0.00055352
17050.0 0.00055215
17070.0 0.00055077
17090.0 0.00054945
17110.0 0.0005481
17130.0 0.00054668
17150.0 0.00054532
17170.0 0.00054399
17190.0 0.0005426
17210.0 0.00054121
17230.0 0.00053987
17250.0 0.00053849
17270.0 0.00053706
17290.0 0.00053568
17310.0 0.00053432
17330.0 0.00053289
17350.0 0.00053146
17370.0 0.0005301
17390.0 0.0005287
17410.0 0.00052726
17430.0 0.00052586
17450.0 0.00052449
17470.0 0.00052301
17490.0 0.00052157
17510.0 0.00052017
17530.0 0.00051874
17550.0 0.00051727
17570.0 0.00051585
17590.0 0.00051445
17610.0 0.00051297
17630.0 0.00051151
17650.0 0.00051009
17670.0 0.00050863
17690.0 0.00050711
17710.0 0.00050568
17730.0 0.00050424
17750.0 0.00050274
17770.0 0.00050127
17790.0 0.00049984
17810.0 0.00049835
17830.0 0.00049683
17850.0 0.00049537
17870.0 0.0004939
17890.0 0.00049237
17910.0 0.00049086
17930.0 0.00048941
17950.0 0.00048791
17970.0 0.00048638
17990.0 0.00048491
18010.0 0.00048343
18030.0 0.00048186
18050.0 0.00048035
18070.0 0.00047887
18090.0 0.00047733
18110.0 0.00047578
18130.0 0.0004743
18150.0 0.00047279
18170.0 0.00047123
18190.0 0.00046971
18210.0 0.00046822
18230.0 0.00046665
18250.0 0.00046508
18270.0 0.00046357
18290.0 0.00046205
18310.0 0.00046047
18330.0 0.00045894
18350.0 0.00045744
18370.0 0.00045586
18390.0 0.00045429
18410.0 0.00045277
18430.0 0.00045123
18450.0 0.00044962
18470.0 0.00044807
18490.0 0.00044655
18510.0 0.00044498
18530.0 0.0004434
18550.0 0.00044189
18570.0 0.00044032
18590.0 0.00043871
18610.0 0.00043716
18630.0 0.00043562
18650.0 0.00043402
18670.0 0.00043242
18690.0 0.0004309
18710.0 0.00042934
18730.0 0.00042774
18750.0 0.00042618
18770.0 0.00042465
18790.0 0.00042302
18810.0 0.00042143
18830.0 0.00041989
18850.0 0.00041831
18870.0 0.0004167
18890.0 0.00041514
18910.0 0.0004136
18930.0 0.00041199
18950.0 0.0004104
18970.0 0.00040885
18990.0 0.00040727
19010.0 0.00040562
19030.0 0.00040408
19050.0 0.00040252
19070.0 0.00040091
19090.0 0.00039933
19110.0 0.0003978
19130.0 0.00039619
19150.0 0.00039458
19170.0 0.00039302
19190.0 0.00039145
19210.0 0.00038983
19230.0 0.00038824
19250.0 0.00038671
19270.0 0.00038511
19290.0 0.00038351
19310.0 0.00038196
19330.0 0.0003804
19350.0 0.00037876
19370.0 0.00037719
19390.0 0.00037564
19410.0 0.00037404
19430.0 0.00037243
19450.0 0.00037089
19470.0 0.00036933
19490.0 0.00036772
19510.0 0.00036615
19530.0 0.00036461
19550.0 0.000363
19570.0 0.00036139
19590.0 0.00035985
19610.0 0.00035828
19630.0 0.00035668
19650.0 0.00035512
19670.0 0.00035359
19690.0 0.00035199
19710.0 0.0003504
19730.0 0.00034886
19750.0 0.00034729
19770.0 0.00034567
19790.0 0.00034412
19810.0 0.00034258
19830.0 0.00034099
19850.0 0.00033939
19870.0 0.00033782
19890.0 0.00033613
19910.0 0.00033428
19930.0 0.00033229
19950.0 0.00033002
19970.0 0.00032723
19990.0 0.00032387
20010.0 0.00028814
20030.0 0.00028397
20050.0 0.00027909
20070.0 0.0002738
20090.0 0.00026811
20110.0 0.00026168
20130.0 0.00025517
20150.0 0.00024871
20170.0 0.00024202
20190.0 0.00023523
20210.0 0.00022881
20230.0 0.00022256
20250.0 0.00021629
20270.0 0.00021047
20290.0 0.00020516
20310.0 0.00020012
20330.0 0.0001954
20350.0 0.00019149
20370.0 0.00018801
20390.0 0.00018496
20410.0 0.0001825
20430.0 0.0001806
20450.0 0.0001791
20470.0 0.00017809
20490.0 0.00017755
20510.0 0.0001774
20530.0 0.00017762
20550.0 0.00017816
20570.0 0.00017896
20590.0 0.00018004
20610.0 0.00018135
20630.0 0.00018279
20650.0 0.0001844
20670.0 0.00018624
20690.0 0.00018812
20710.0 0.00019006
20730.0 0.00019216
20750.0 0.00019435
20770.0 0.0001965
20790.0 0.00019875
20810.0 0.00020114
20830.0 0.00020352
20850.0 0.00020591
20870.0 0.00020847
20890.0 0.00021107
20910.0 0.00021359
20930.0 0.0002162
20950.0 0.0002189
20970.0 0.00022153
20990.0 0.00022414
21010.0 0.00022687
21030.0 0.00022954
21050.0 0.00023209
21070.0 0.00023464
21090.0 0.0002372
21110.0 0.00023953
21130.0 0.00024172
21150.0 0.00024384
21170.0 0.00024576
21190.0 0.00024741
21210.0 0.0002489
21230.0 0.00025013
21250.0 0.00025101
21270.0 0.00025157
21290.0 0.00025178
21310.0 0.00025158
21330.0 0.00025099
21350.0 0.00024994
21370.0 0.00024841
21390.0 0.00024647
21410.0 0.00024409
21430.0 0.00024107
21450.0 0.00023768
21470.0 0.000234
21490.0 0.00022983
21510.0 0.00022525
21530.0 0.0002206
21550.0 0.00021573
21570.0 0.00021054
21590.0 0.00020543
21610.0 0.00020049
21630.0 0.00019555
21650.0 0.00019073
21670.0 0.00018654
21690.0 0.00018268
21710.0 0.00017921
21730.0 0.00017636
21750.0 0.00017417
21770.0 0.00017249
21790.0 0.00017153
21810.0 0.00017126
21830.0 0.00017164
21850.0 0.00017272
21870.0 0.00017439
21890.0 0.00017655
21910.0 0.00017932
21930.0 0.00018258
21950.0 0.0001861
21970.0 0.00019
21990.0 0.00019438
22010.0 0.00019876
22030.0 0.0002032
22050.0 0.00020787
22070.0 0.00021257
22090.0 0.00021701
22110.0 0.00022149
22130.0 0.00022597
22150.0 0.00023015
22170.0 0.00023409
22190.0 0.00023799
22210.0 0.00024162
22230.0 0.00024482
22250.0 0.00024783
22270.0 0.0002506
22290.0 0.00025297
22310.0 0.000255
22330.0 0.0002568
22350.0 0.00025818
22370.0 0.00025916
22390.0 0.00025977
22410.0 0.00025996
22430.0 0.00025971
22450.0 0.00025904
22470.0 0.00025789
22490.0 0.00025626
22510.0 0.00025424
22530.0 0.00025165
22550.0 0.0002485
22570.0 0.000245
22590.0 0.00024106
22610.0 0.00023653
22630.0 0.00023162
22650.0 0.00022655
22670.0 0.00022094
22690.0 0.00021496
22710.0 0.00020892
22730.0 0.00020269
22750.0 0.00019594
22770.0 0.00018935
22790.0 0.00018291
22810.0 0.0001763
22830.0 0.0001697
22850.0 0.00016353
22870.0 0.00015748
22890.0 0.00015146
22910.0 0.00014591
22930.0 0.00014083
22950.0 0.00013599
22970.0 0.00013151
22990.0 0.00012779
23010.0 0.0001245
23030.0 0.00012168
23050.0 0.00011949
