#lamb flux
1010.0 4.6792e-09
1030.0 5.136e-09
1050.0 5.6614e-09
1070.0 6.2528e-09
1090.0 6.9246e-09
1110.0 7.6136e-09
1130.0 8.3071e-09
1150.0 9.0335e-09
1170.0 9.7828e-09
1190.0 1.0493e-08
1210.0 1.1213e-08
1230.0 1.1958e-08
1250.0 1.2687e-08
1270.0 1.3395e-08
1290.0 1.4143e-08
1310.0 1.489e-08
1330.0 1.5607e-08
1350.0 1.6332e-08
1370.0 1.7081e-08
1390.0 1.7811e-08
1410.0 1.8519e-08
1430.0 1.9259e-08
1450.0 1.9999e-08
1470.0 2.0714e-08
1490.0 2.1437e-08
1510.0 2.2201e-08
1530.0 2.2925e-08
1550.0 2.3638e-08
1570.0 2.4377e-08
1590.0 2.5116e-08
1610.0 2.5823e-08
1630.0 2.6551e-08
1650.0 2.7298e-08
1670.0 2.8021e-08
1690.0 2.8735e-08
1710.0 2.9476e-08
1730.0 3.0222e-08
1750.0 3.0923e-08
1770.0 3.1645e-08
1790.0 3.2382e-08
1810.0 3.3094e-08
1830.0 3.3795e-08
1850.0 3.4538e-08
1870.0 3.5262e-08
1890.0 3.5961e-08
1910.0 3.6674e-08
1930.0 3.7403e-08
1950.0 3.8099e-08
1970.0 3.8785e-08
1990.0 3.9496e-08
2010.0 4.0194e-08
2030.0 4.0865e-08
2050.0 4.1555e-08
2070.0 4.2261e-08
2090.0 4.2923e-08
2110.0 4.358e-08
2130.0 4.4254e-08
2150.0 4.4911e-08
2170.0 4.5534e-08
2190.0 4.6177e-08
2210.0 4.682e-08
2230.0 4.7429e-08
2250.0 4.8029e-08
2270.0 4.8654e-08
2290.0 4.925e-08
2310.0 4.9812e-08
2330.0 5.0394e-08
2350.0 5.0987e-08
2370.0 5.1571e-08
2390.0 5.2209e-08
2410.0 5.2986e-08
2430.0 5.39e-08
2450.0 5.5021e-08
2470.0 5.65e-08
2490.0 5.8405e-08
2510.0 6.059e-08
2530.0 6.3252e-08
2550.0 6.6619e-08
2570.0 7.0827e-08
2590.0 7.6306e-08
2610.0 8.451e-08
2630.0 9.616e-08
2650.0 1.1127e-07
2670.0 1.3067e-07
2690.0 1.5432e-07
2710.0 1.7931e-07
2730.0 2.0373e-07
2750.0 2.2752e-07
2770.0 2.4787e-07
2790.0 2.6366e-07
2810.0 2.7582e-07
2830.0 2.8496e-07
2850.0 2.9075e-07
2870.0 2.9464e-07
2890.0 2.9743e-07
2910.0 2.9939e-07
2930.0 3.0079e-07
2950.0 3.0208e-07
2970.0 3.0333e-07
2990.0 3.0445e-07
3010.0 9.1628e-06
3030.0 9.1952e-06
3050.0 9.2264e-06
3070.0 9.2495e-06
3090.0 9.2658e-06
3110.0 9.265e-06
3130.0 9.2347e-06
3150.0 9.166e-06
3170.0 9.0409e-06
3190.0 8.8611e-06
3210.0 8.6415e-06
3230.0 8.3939e-06
3250.0 8.1439e-06
3270.0 7.9589e-06
3290.0 7.8367e-06
3310.0 7.8295e-06
3330.0 7.9176e-06
3350.0 8.0912e-06
3370.0 8.35e-06
3390.0 8.6827e-06
3410.0 9.0484e-06
3430.0 9.4615e-06
3450.0 9.939e-06
3470.0 1.0463e-05
3490.0 1.102e-05
3510.0 1.1653e-05
3530.0 1.2335e-05
3550.0 1.3041e-05
3570.0 1.3794e-05
3590.0 1.4619e-05
3610.0 1.5497e-05
3630.0 1.6367e-05
3650.0 1.7277e-05
3670.0 1.81e-05
3690.0 1.8712e-05
3710.0 1.9043e-05
3730.0 1.897e-05
3750.0 1.8533e-05
3770.0 1.8697e-05
3790.0 1.8539e-05
3810.0 1.6633e-05
3830.0 1.6874e-05
3850.0 2.1104e-05
3870.0 2.1918e-05
3890.0 1.9685e-05
3910.0 1.9067e-05
3930.0 2.079e-05
3950.0 2.256e-05
3970.0 2.2275e-05
3990.0 1.6993e-05
4010.0 4.478e-05
4030.0 5.1381e-05
4050.0 5.8604e-05
4070.0 5.4766e-05
4090.0 5.0192e-05
4110.0 4.3371e-05
4130.0 4.4003e-05
4150.0 5.1924e-05
4170.0 4.6486e-05
4190.0 4.6246e-05
4210.0 4.8123e-05
4230.0 5.4076e-05
4250.0 6.465e-05
4270.0 6.7505e-05
4290.0 6.0778e-05
4310.0 6.0188e-05
4330.0 6.1983e-05
4350.0 7.322e-05
4370.0 8.5874e-05
4390.0 7.5049e-05
4410.0 4.954e-05
4430.0 3.9577e-05
4450.0 3.6752e-05
4470.0 2.5829e-05
4490.0 3.2576e-05
4510.0 5.8477e-05
4530.0 6.9354e-05
4550.0 6.7099e-05
4570.0 6.828e-05
4590.0 7.5568e-05
4610.0 0.0001209
4630.0 0.00016368
4650.0 0.00016671
4670.0 0.00015062
4690.0 0.00014734
4710.0 0.00015468
4730.0 0.00013791
4750.0 9.7632e-05
4770.0 6.918e-05
4790.0 6.9085e-05
4810.0 6.9008e-05
4830.0 6.5408e-05
4850.0 7.1254e-05
4870.0 9.4244e-05
4890.0 0.00011015
4910.0 9.184e-05
4930.0 8.4901e-05
4950.0 9.5367e-05
4970.0 0.00012409
4990.0 0.00016801
5010.0 0.00019431
5030.0 0.00016416
5050.0 0.00010674
5070.0 7.2623e-05
5090.0 5.6671e-05
5110.0 5.5864e-05
5130.0 6.5889e-05
5150.0 6.8289e-05
5170.0 6.5949e-05
5190.0 6.0251e-05
5210.0 6.4922e-05
5230.0 7.3239e-05
5250.0 8.1805e-05
5270.0 8.238e-05
5290.0 9.0027e-05
5310.0 0.0001117
5330.0 0.00012246
5350.0 0.00012126
5370.0 0.00013106
5390.0 0.00015654
5410.0 0.00014599
5430.0 0.00012194
5450.0 0.00011655
5470.0 0.00012856
5490.0 0.0001584
5510.0 0.00019525
5530.0 0.00022524
5550.0 0.00021141
5570.0 0.00019122
5590.0 0.00016225
5610.0 0.00015586
5630.0 0.00016191
5650.0 0.00015132
5670.0 0.00014123
5690.0 0.00012052
5710.0 0.00012047
5730.0 0.00011366
5750.0 7.1807e-05
5770.0 5.3822e-05
5790.0 6.3189e-05
5810.0 6.9084e-05
5830.0 9.4017e-05
5850.0 0.00011711
5870.0 0.00012841
5890.0 0.00012711
5910.0 0.0001244
5930.0 0.00011874
5950.0 0.00012156
5970.0 0.00014436
5990.0 0.00012763
6010.0 0.0001032
6030.0 8.6005e-05
6050.0 7.5724e-05
6070.0 8.155e-05
6090.0 8.9742e-05
6110.0 9.6172e-05
6130.0 9.3841e-05
6150.0 7.7692e-05
6170.0 6.4441e-05
6190.0 7.4482e-05
6210.0 0.00010661
6230.0 0.00014837
6250.0 0.00016084
6270.0 0.00013224
6290.0 0.00011223
6310.0 8.6694e-05
6330.0 6.4942e-05
6350.0 6.0474e-05
6370.0 6.3536e-05
6390.0 7.4444e-05
6410.0 9.4094e-05
6430.0 0.00011148
6450.0 0.00013186
6470.0 0.00014488
6490.0 0.00017404
6510.0 0.00019482
6530.0 0.00019535
6550.0 0.00017814
6570.0 0.00014634
6590.0 0.000135
6610.0 0.00011412
6630.0 0.00011076
6650.0 0.00010645
6670.0 9.7597e-05
6690.0 8.1478e-05
6710.0 7.673e-05
6730.0 4.3948e-05
6750.0 4.9715e-05
6770.0 6.5163e-05
6790.0 8.0915e-05
6810.0 6.4477e-05
6830.0 6.6092e-05
6850.0 5.8214e-05
6870.0 5.3659e-05
6890.0 4.8457e-05
6910.0 5.5244e-05
6930.0 5.1917e-05
6950.0 5.7602e-05
6970.0 6.039e-05
6990.0 6.779e-05
7010.0 6.6615e-05
7030.0 7.2393e-05
7050.0 6.5691e-05
7070.0 5.8432e-05
7090.0 6.0743e-05
7110.0 6.375e-05
7130.0 7.1153e-05
7150.0 7.8137e-05
7170.0 8.7061e-05
7190.0 9.4548e-05
7210.0 8.8424e-05
7230.0 9.026e-05
7250.0 9.6645e-05
7270.0 0.00010417
7290.0 0.00012637
7310.0 0.00013585
7330.0 0.00012962
7350.0 0.00011675
7370.0 9.4063e-05
7390.0 9.3681e-05
7410.0 0.00010659
7430.0 0.00012008
7450.0 0.00013009
7470.0 0.00012347
7490.0 0.0001046
7510.0 0.00014153
7530.0 0.00013447
7550.0 0.00012448
7570.0 9.0594e-05
7590.0 5.1194e-05
7610.0 4.0829e-05
7630.0 5.1938e-05
7650.0 6.5003e-05
7670.0 9.1159e-05
7690.0 0.00010079
7710.0 9.7891e-05
7730.0 0.00010032
7750.0 0.00012171
7770.0 0.00012448
7790.0 0.00011395
7810.0 9.7741e-05
7830.0 0.00010341
7850.0 0.00010697
7870.0 0.00010146
7890.0 8.1971e-05
7910.0 6.0703e-05
7930.0 6.0453e-05
7950.0 5.4896e-05
7970.0 4.8542e-05
7990.0 4.622e-05
8010.0 1.2494e-05
8030.0 1.1329e-05
8050.0 1.2258e-05
8070.0 1.4082e-05
8090.0 1.7531e-05
8110.0 1.6557e-05
8130.0 9.4989e-06
8150.0 1.0079e-05
8170.0 5.3053e-06
8190.0 2.916e-06
8210.0 9.1185e-06
8230.0 1.1156e-05
8250.0 4.0517e-06
8270.0 3.0779e-06
8290.0 6.7271e-06
8310.0 6.1109e-06
8330.0 3.779e-06
8350.0 3.0028e-06
8370.0 5.5554e-07
8390.0 3.2325e-06
8410.0 3.6719e-06
8430.0 4.5414e-06
8450.0 5.1558e-06
8470.0 8.8409e-06
8490.0 7.2369e-06
8510.0 5.5353e-06
8530.0 2.7741e-06
8550.0 1.0124e-05
8570.0 1.5592e-05
8590.0 1.0804e-05
8610.0 1.6356e-05
8630.0 1.7931e-05
8650.0 9.8516e-06
8670.0 1.4516e-05
8690.0 2.229e-05
8710.0 1.8997e-05
8730.0 2.031e-05
8750.0 1.5871e-05
8770.0 1.4067e-05
8790.0 1.5557e-05
8810.0 1.6901e-05
8830.0 9.2891e-06
8850.0 3.7492e-06
8870.0 2.5523e-06
8890.0 6.8798e-06
8910.0 1.1097e-05
8930.0 1.4862e-05
8950.0 1.6341e-05
8970.0 1.5671e-05
8990.0 1.1434e-05
9010.0 2.1377e-05
9030.0 1.7305e-05
9050.0 1.7689e-05
9070.0 1.813e-05
9090.0 1.8497e-05
9110.0 1.8948e-05
9130.0 1.9276e-05
9150.0 1.9513e-05
9170.0 1.9764e-05
9190.0 2.0033e-05
9210.0 2.0316e-05
9230.0 2.0615e-05
9250.0 2.0916e-05
9270.0 2.1227e-05
9290.0 2.1546e-05
9310.0 2.1865e-05
9330.0 2.2187e-05
9350.0 2.2521e-05
9370.0 2.2856e-05
9390.0 2.3192e-05
9410.0 2.3537e-05
9430.0 2.3892e-05
9450.0 2.4242e-05
9470.0 2.4598e-05
9490.0 2.4964e-05
9510.0 2.5332e-05
9530.0 2.57e-05
9550.0 2.6082e-05
9570.0 2.6469e-05
9590.0 2.6855e-05
9610.0 2.7247e-05
9630.0 2.7649e-05
9650.0 2.8054e-05
9670.0 2.8457e-05
9690.0 2.8872e-05
9710.0 2.9293e-05
9730.0 2.9713e-05
9750.0 3.0139e-05
9770.0 3.058e-05
9790.0 3.1017e-05
9810.0 3.1455e-05
9830.0 3.1904e-05
9850.0 3.2358e-05
9870.0 3.2809e-05
9890.0 3.3268e-05
9910.0 3.3736e-05
9930.0 3.4203e-05
9950.0 3.4671e-05
9970.0 3.5151e-05
9990.0 3.5635e-05
10010.0 3.1257e-05
10030.0 3.1676e-05
10050.0 3.2103e-05
10070.0 3.2529e-05
10090.0 3.2952e-05
10110.0 3.3385e-05
10130.0 3.3819e-05
10150.0 3.4249e-05
10170.0 3.4684e-05
10190.0 3.5126e-05
10210.0 3.5561e-05
10230.0 3.5996e-05
10250.0 3.6437e-05
10270.0 3.6878e-05
10290.0 3.7313e-05
10310.0 3.7754e-05
10330.0 3.8199e-05
10350.0 3.8636e-05
10370.0 3.9072e-05
10390.0 3.9513e-05
10410.0 3.9952e-05
10430.0 4.0381e-05
10450.0 4.0814e-05
10470.0 4.1249e-05
10490.0 4.1676e-05
10510.0 4.2099e-05
10530.0 4.253e-05
10550.0 4.2953e-05
10570.0 4.3367e-05
10590.0 4.3782e-05
10610.0 4.4197e-05
10630.0 4.4601e-05
10650.0 4.5001e-05
10670.0 4.5405e-05
10690.0 4.58e-05
10710.0 4.6186e-05
10730.0 4.6572e-05
10750.0 4.6959e-05
10770.0 4.7329e-05
10790.0 4.7694e-05
10810.0 4.806e-05
10830.0 4.8413e-05
10850.0 4.8749e-05
10870.0 4.9078e-05
10890.0 4.9375e-05
10910.0 4.9616e-05
10930.0 4.9781e-05
10950.0 4.9826e-05
10970.0 4.9713e-05
10990.0 4.9424e-05
11010.0 4.6582e-05
11030.0 4.5856e-05
11050.0 4.4956e-05
11070.0 4.3871e-05
11090.0 4.2563e-05
11110.0 4.1208e-05
11130.0 3.9795e-05
11150.0 3.8276e-05
11170.0 3.6715e-05
11190.0 3.5205e-05
11210.0 3.3651e-05
11230.0 3.2062e-05
11250.0 3.0548e-05
11270.0 2.9098e-05
11290.0 2.7648e-05
11310.0 2.6276e-05
11330.0 2.5067e-05
11350.0 2.3923e-05
11370.0 2.2864e-05
11390.0 2.1943e-05
11410.0 2.1132e-05
11430.0 2.0373e-05
11450.0 1.9712e-05
11470.0 1.9134e-05
11490.0 1.8591e-05
11510.0 1.8064e-05
11530.0 1.7572e-05
11550.0 1.7083e-05
11570.0 1.6565e-05
11590.0 1.6031e-05
11610.0 1.5491e-05
11630.0 1.4908e-05
11650.0 1.4288e-05
11670.0 1.368e-05
11690.0 1.3066e-05
11710.0 1.2434e-05
11730.0 1.1823e-05
11750.0 1.1257e-05
11770.0 1.0702e-05
11790.0 1.018e-05
11810.0 9.7176e-06
11830.0 9.3014e-06
11850.0 8.9155e-06
11870.0 8.5885e-06
11890.0 8.3125e-06
11910.0 8.0667e-06
11930.0 7.852e-06
11950.0 7.6697e-06
11970.0 7.5049e-06
11990.0 7.3483e-06
12010.0 7.2029e-06
12030.0 7.0632e-06
12050.0 6.9202e-06
12070.0 6.7732e-06
12090.0 6.6317e-06
12110.0 6.4888e-06
12130.0 6.3455e-06
12150.0 6.2119e-06
12170.0 6.0924e-06
12190.0 5.9849e-06
12210.0 5.9021e-06
12230.0 5.8491e-06
12250.0 5.8276e-06
12270.0 5.8447e-06
12290.0 5.9008e-06
12310.0 5.9928e-06
12330.0 6.1311e-06
12350.0 6.31e-06
12370.0 6.5175e-06
12390.0 6.7603e-06
12410.0 7.0483e-06
12430.0 7.3419e-06
12450.0 7.6467e-06
12470.0 7.972e-06
12490.0 8.2988e-06
12510.0 8.6043e-06
12530.0 8.9083e-06
12550.0 9.2009e-06
12570.0 9.4575e-06
12590.0 9.6811e-06
12610.0 9.879e-06
12630.0 1.0034e-05
12650.0 1.0137e-05
12670.0 1.02e-05
12690.0 1.0218e-05
12710.0 1.0188e-05
12730.0 1.0117e-05
12750.0 9.999e-06
12770.0 9.8424e-06
12790.0 9.6552e-06
12810.0 9.4345e-06
12830.0 9.1817e-06
12850.0 8.9182e-06
12870.0 8.6411e-06
12890.0 8.3431e-06
12910.0 8.0413e-06
12930.0 7.7447e-06
12950.0 7.4367e-06
12970.0 7.1245e-06
12990.0 6.8295e-06
13010.0 6.539e-06
13030.0 6.246e-06
13050.0 5.9649e-06
13070.0 5.7016e-06
13090.0 5.4375e-06
13110.0 5.1819e-06
13130.0 4.9457e-06
13150.0 4.7215e-06
13170.0 4.5014e-06
13190.0 4.3044e-06
13210.0 4.1297e-06
13230.0 3.9687e-06
13250.0 3.8283e-06
13270.0 3.7152e-06
13290.0 3.6244e-06
13310.0 3.5579e-06
13330.0 3.5213e-06
13350.0 3.5127e-06
13370.0 3.5332e-06
13390.0 3.5851e-06
13410.0 3.6602e-06
13430.0 3.7616e-06
13450.0 3.89e-06
13470.0 4.0349e-06
13490.0 4.1902e-06
13510.0 4.3676e-06
13530.0 4.5493e-06
13550.0 4.7246e-06
13570.0 4.8991e-06
13590.0 5.0707e-06
13610.0 5.2246e-06
13630.0 5.3602e-06
13650.0 5.4854e-06
13670.0 5.5905e-06
13690.0 5.6729e-06
13710.0 5.7379e-06
13730.0 5.786e-06
13750.0 5.8118e-06
13770.0 5.8207e-06
13790.0 5.8135e-06
13810.0 5.7903e-06
13830.0 5.7539e-06
13850.0 5.7034e-06
13870.0 5.639e-06
13890.0 5.5646e-06
13910.0 5.4805e-06
13930.0 5.3829e-06
13950.0 5.2762e-06
13970.0 5.1672e-06
13990.0 5.0485e-06
14010.0 4.9224e-06
14030.0 4.7968e-06
14050.0 4.6703e-06
14070.0 4.5369e-06
14090.0 4.4092e-06
14110.0 4.289e-06
14130.0 4.1726e-06
14150.0 4.0627e-06
14170.0 3.9687e-06
14190.0 3.887e-06
14210.0 3.8173e-06
14230.0 3.7649e-06
14250.0 3.7303e-06
14270.0 3.7123e-06
14290.0 3.7132e-06
14310.0 3.7318e-06
14330.0 3.7669e-06
14350.0 3.8199e-06
14370.0 3.8868e-06
14390.0 3.9636e-06
14410.0 4.0548e-06
14430.0 4.1557e-06
14450.0 4.2595e-06
14470.0 4.368e-06
14490.0 4.4841e-06
14510.0 4.596e-06
14530.0 4.703e-06
14550.0 4.8105e-06
14570.0 4.9144e-06
14590.0 5.0095e-06
14610.0 5.1017e-06
14630.0 5.1932e-06
14650.0 5.2786e-06
14670.0 5.361e-06
14690.0 5.4466e-06
14710.0 5.5363e-06
14730.0 5.6258e-06
14750.0 5.7247e-06
14770.0 5.8366e-06
14790.0 5.9579e-06
14810.0 6.0893e-06
14830.0 6.245e-06
14850.0 6.4144e-06
14870.0 6.5916e-06
14890.0 6.783e-06
14910.0 6.9866e-06
14930.0 7.183e-06
14950.0 7.3672e-06
14970.0 7.5422e-06
14990.0 7.69e-06
15010.0 7.8042e-06
15030.0 7.8902e-06
15050.0 7.9489e-06
15070.0 7.9801e-06
15090.0 7.9944e-06
15110.0 7.9969e-06
15130.0 7.9918e-06
15150.0 7.9832e-06
15170.0 7.9722e-06
15190.0 7.96e-06
15210.0 7.9482e-06
15230.0 7.9364e-06
15250.0 7.9239e-06
15270.0 7.9118e-06
15290.0 7.9006e-06
15310.0 7.8889e-06
15330.0 7.8771e-06
15350.0 7.866e-06
15370.0 7.8551e-06
15390.0 7.8433e-06
15410.0 7.8321e-06
15430.0 7.8215e-06
15450.0 7.8105e-06
15470.0 7.7992e-06
15490.0 7.7888e-06
15510.0 7.7784e-06
15530.0 7.7675e-06
15550.0 7.757e-06
15570.0 7.747e-06
15590.0 7.7363e-06
15610.0 7.7254e-06
15630.0 7.7154e-06
15650.0 7.7053e-06
15670.0 7.6947e-06
15690.0 7.6845e-06
15710.0 7.6749e-06
15730.0 7.6645e-06
15750.0 7.6541e-06
15770.0 7.6443e-06
15790.0 7.6344e-06
15810.0 7.6237e-06
15830.0 7.6137e-06
15850.0 7.6041e-06
15870.0 7.5938e-06
15890.0 7.5835e-06
15910.0 7.574e-06
15930.0 7.564e-06
15950.0 7.5533e-06
15970.0 7.5433e-06
15990.0 7.5335e-06
16010.0 7.5231e-06
16030.0 7.5124e-06
16050.0 7.5028e-06
16070.0 7.4926e-06
16090.0 7.482e-06
16110.0 7.4718e-06
16130.0 7.462e-06
16150.0 7.4509e-06
16170.0 7.4402e-06
16190.0 7.43e-06
16210.0 7.4195e-06
16230.0 7.4084e-06
16250.0 7.3979e-06
16270.0 7.3876e-06
16290.0 7.3764e-06
16310.0 7.3653e-06
16330.0 7.3548e-06
16350.0 7.3437e-06
16370.0 7.3317e-06
16390.0 7.3209e-06
16410.0 7.3099e-06
16430.0 7.2982e-06
16450.0 7.2866e-06
16470.0 7.2756e-06
16490.0 7.2638e-06
16510.0 7.2516e-06
16530.0 7.24e-06
16550.0 7.2283e-06
16570.0 7.2158e-06
16590.0 7.2034e-06
16610.0 7.1917e-06
16630.0 7.1793e-06
16650.0 7.1665e-06
16670.0 7.1543e-06
16690.0 7.142e-06
16710.0 7.1285e-06
16730.0 7.1156e-06
16750.0 7.103e-06
16770.0 7.0897e-06
16790.0 7.076e-06
16810.0 7.0631e-06
16830.0 7.0499e-06
16850.0 7.0359e-06
16870.0 7.0222e-06
16890.0 7.0089e-06
16910.0 6.9946e-06
16930.0 6.98e-06
16950.0 6.9662e-06
16970.0 6.9521e-06
16990.0 6.9372e-06
17010.0 6.9227e-06
17030.0 6.9087e-06
17050.0 6.8935e-06
17070.0 6.8783e-06
17090.0 6.8636e-06
17110.0 6.8486e-06
17130.0 6.8326e-06
17150.0 6.8172e-06
17170.0 6.8022e-06
17190.0 6.7863e-06
17210.0 6.7703e-06
17230.0 6.7549e-06
17250.0 6.7389e-06
17270.0 6.7222e-06
17290.0 6.706e-06
17310.0 6.6899e-06
17330.0 6.6731e-06
17350.0 6.656e-06
17370.0 6.6399e-06
17390.0 6.623e-06
17410.0 6.6057e-06
17430.0 6.5887e-06
17450.0 6.572e-06
17470.0 6.554e-06
17490.0 6.5362e-06
17510.0 6.5191e-06
17530.0 6.5014e-06
17550.0 6.4831e-06
17570.0 6.4655e-06
17590.0 6.4479e-06
17610.0 6.4293e-06
17630.0 6.4109e-06
17650.0 6.393e-06
17670.0 6.3745e-06
17690.0 6.355e-06
17710.0 6.3368e-06
17730.0 6.3183e-06
17750.0 6.2991e-06
17770.0 6.28e-06
17790.0 6.2616e-06
17810.0 6.2422e-06
17830.0 6.2224e-06
17850.0 6.2033e-06
17870.0 6.1841e-06
17890.0 6.164e-06
17910.0 6.1441e-06
17930.0 6.125e-06
17950.0 6.1051e-06
17970.0 6.0848e-06
17990.0 6.0652e-06
18010.0 6.0455e-06
18030.0 6.0245e-06
18050.0 6.0043e-06
18070.0 5.9844e-06
18090.0 5.9638e-06
18110.0 5.9429e-06
18130.0 5.9228e-06
18150.0 5.9024e-06
18170.0 5.8813e-06
18190.0 5.8606e-06
18210.0 5.8403e-06
18230.0 5.819e-06
18250.0 5.7975e-06
18270.0 5.7769e-06
18290.0 5.756e-06
18310.0 5.7344e-06
18330.0 5.7134e-06
18350.0 5.6927e-06
18370.0 5.671e-06
18390.0 5.6494e-06
18410.0 5.6283e-06
18430.0 5.607e-06
18450.0 5.5847e-06
18470.0 5.5633e-06
18490.0 5.5422e-06
18510.0 5.5203e-06
18530.0 5.4985e-06
18550.0 5.4773e-06
18570.0 5.4555e-06
18590.0 5.4331e-06
18610.0 5.4115e-06
18630.0 5.3899e-06
18650.0 5.3677e-06
18670.0 5.3454e-06
18690.0 5.3241e-06
18710.0 5.3021e-06
18730.0 5.2798e-06
18750.0 5.258e-06
18770.0 5.2364e-06
18790.0 5.2136e-06
18810.0 5.1913e-06
18830.0 5.1696e-06
18850.0 5.1475e-06
18870.0 5.1249e-06
18890.0 5.1031e-06
18910.0 5.0813e-06
18930.0 5.0587e-06
18950.0 5.0364e-06
18970.0 5.0147e-06
18990.0 4.9924e-06
19010.0 4.9693e-06
19030.0 4.9475e-06
19050.0 4.9256e-06
19070.0 4.903e-06
19090.0 4.8808e-06
19110.0 4.8592e-06
19130.0 4.8367e-06
19150.0 4.814e-06
19170.0 4.7921e-06
19190.0 4.7701e-06
19210.0 4.7473e-06
19230.0 4.725e-06
19250.0 4.7034e-06
19270.0 4.6811e-06
19290.0 4.6586e-06
19310.0 4.6368e-06
19330.0 4.6149e-06
19350.0 4.592e-06
19370.0 4.5699e-06
19390.0 4.5482e-06
19410.0 4.5259e-06
19430.0 4.5034e-06
19450.0 4.4819e-06
19470.0 4.46e-06
19490.0 4.4375e-06
19510.0 4.4156e-06
19530.0 4.3941e-06
19550.0 4.3717e-06
19570.0 4.3492e-06
19590.0 4.3278e-06
19610.0 4.306e-06
19630.0 4.2837e-06
19650.0 4.262e-06
19670.0 4.2407e-06
19690.0 4.2185e-06
19710.0 4.1965e-06
19730.0 4.1751e-06
19750.0 4.1534e-06
19770.0 4.131e-06
19790.0 4.1096e-06
19810.0 4.0883e-06
19830.0 4.0664e-06
19850.0 4.0444e-06
19870.0 4.0228e-06
19890.0 3.9998e-06
19910.0 3.9748e-06
19930.0 3.9484e-06
19950.0 3.9187e-06
19970.0 3.8828e-06
19990.0 3.8402e-06
20010.0 3.4569e-06
20030.0 3.4046e-06
20050.0 3.3439e-06
20070.0 3.2786e-06
20090.0 3.2087e-06
20110.0 3.13e-06
20130.0 3.0507e-06
20150.0 2.9723e-06
20170.0 2.8912e-06
20190.0 2.8092e-06
20210.0 2.7319e-06
20230.0 2.6566e-06
20250.0 2.5812e-06
20270.0 2.5112e-06
20290.0 2.4473e-06
20310.0 2.3865e-06
20330.0 2.3296e-06
20350.0 2.2821e-06
20370.0 2.2398e-06
20390.0 2.2024e-06
20410.0 2.1719e-06
20430.0 2.148e-06
20450.0 2.1287e-06
20470.0 2.1153e-06
20490.0 2.1074e-06
20510.0 2.1041e-06
20530.0 2.1052e-06
20550.0 2.1104e-06
20570.0 2.1187e-06
20590.0 2.1305e-06
20610.0 2.1451e-06
20630.0 2.1614e-06
20650.0 2.18e-06
20670.0 2.2014e-06
20690.0 2.2234e-06
20710.0 2.2461e-06
20730.0 2.2708e-06
20750.0 2.2966e-06
20770.0 2.3219e-06
20790.0 2.3484e-06
20810.0 2.3765e-06
20830.0 2.4042e-06
20850.0 2.432e-06
20870.0 2.4617e-06
20890.0 2.4918e-06
20910.0 2.5207e-06
20930.0 2.5505e-06
20950.0 2.5814e-06
20970.0 2.6114e-06
20990.0 2.6408e-06
21010.0 2.6718e-06
21030.0 2.702e-06
21050.0 2.7306e-06
21070.0 2.7592e-06
21090.0 2.7879e-06
21110.0 2.8138e-06
21130.0 2.8382e-06
21150.0 2.8618e-06
21170.0 2.883e-06
21190.0 2.9013e-06
21210.0 2.9176e-06
21230.0 2.9311e-06
21250.0 2.9406e-06
21270.0 2.9464e-06
21290.0 2.9483e-06
21310.0 2.9455e-06
21330.0 2.9382e-06
21350.0 2.9258e-06
21370.0 2.9078e-06
21390.0 2.8851e-06
21410.0 2.8573e-06
21430.0 2.8222e-06
21450.0 2.7829e-06
21470.0 2.7401e-06
21490.0 2.6917e-06
21510.0 2.6386e-06
21530.0 2.5846e-06
21550.0 2.5281e-06
21570.0 2.4678e-06
21590.0 2.4085e-06
21610.0 2.3511e-06
21630.0 2.2936e-06
21650.0 2.2374e-06
21670.0 2.1886e-06
21690.0 2.1435e-06
21710.0 2.1027e-06
21730.0 2.0692e-06
21750.0 2.0431e-06
21770.0 2.0229e-06
21790.0 2.0108e-06
21810.0 2.0067e-06
21830.0 2.0099e-06
21850.0 2.021e-06
21870.0 2.0389e-06
21890.0 2.0624e-06
21910.0 2.0929e-06
21930.0 2.1288e-06
21950.0 2.1678e-06
21970.0 2.2112e-06
21990.0 2.26e-06
22010.0 2.3089e-06
22030.0 2.3586e-06
22050.0 2.411e-06
22070.0 2.4636e-06
22090.0 2.5136e-06
22110.0 2.564e-06
22130.0 2.6144e-06
22150.0 2.6615e-06
22170.0 2.7059e-06
22190.0 2.75e-06
22210.0 2.7911e-06
22230.0 2.8272e-06
22250.0 2.8612e-06
22270.0 2.8925e-06
22290.0 2.9192e-06
22310.0 2.942e-06
22330.0 2.9621e-06
22350.0 2.9776e-06
22370.0 2.9883e-06
22390.0 2.9949e-06
22410.0 2.9968e-06
22430.0 2.9936e-06
22450.0 2.9855e-06
22470.0 2.972e-06
22490.0 2.9531e-06
22510.0 2.9297e-06
22530.0 2.8998e-06
22550.0 2.8636e-06
22570.0 2.8235e-06
22590.0 2.7783e-06
22610.0 2.7265e-06
22630.0 2.6703e-06
22650.0 2.6123e-06
