#lamb flux
1010.0 4.6018e-07
1030.0 5.1696e-07
1050.0 5.8226e-07
1070.0 6.5578e-07
1090.0 7.3928e-07
1110.0 8.2492e-07
1130.0 9.1112e-07
1150.0 1.0014e-06
1170.0 1.0946e-06
1190.0 1.1829e-06
1210.0 1.2724e-06
1230.0 1.3649e-06
1250.0 1.4555e-06
1270.0 1.5436e-06
1290.0 1.6366e-06
1310.0 1.7295e-06
1330.0 1.8186e-06
1350.0 1.9088e-06
1370.0 2.0018e-06
1390.0 2.0926e-06
1410.0 2.1806e-06
1430.0 2.2726e-06
1450.0 2.3646e-06
1470.0 2.4535e-06
1490.0 2.5434e-06
1510.0 2.6383e-06
1530.0 2.7281e-06
1550.0 2.8168e-06
1570.0 2.9085e-06
1590.0 3.0002e-06
1610.0 3.0878e-06
1630.0 3.1781e-06
1650.0 3.2706e-06
1670.0 3.3601e-06
1690.0 3.4483e-06
1710.0 3.5398e-06
1730.0 3.6317e-06
1750.0 3.7179e-06
1770.0 3.8064e-06
1790.0 3.8965e-06
1810.0 3.9835e-06
1830.0 4.0685e-06
1850.0 4.1586e-06
1870.0 4.2458e-06
1890.0 4.3296e-06
1910.0 4.4145e-06
1930.0 4.501e-06
1950.0 4.5826e-06
1970.0 4.6623e-06
1990.0 4.7445e-06
2010.0 4.8241e-06
2030.0 4.8995e-06
2050.0 4.9762e-06
2070.0 5.0538e-06
2090.0 5.1248e-06
2110.0 5.1939e-06
2130.0 5.2637e-06
2150.0 5.33e-06
2170.0 5.3905e-06
2190.0 5.4518e-06
2210.0 5.5113e-06
2230.0 5.5648e-06
2250.0 5.6153e-06
2270.0 5.6665e-06
2290.0 5.7121e-06
2310.0 5.7513e-06
2330.0 5.7897e-06
2350.0 5.8255e-06
2370.0 5.8549e-06
2390.0 5.8823e-06
2410.0 5.9114e-06
2430.0 5.9373e-06
2450.0 5.9623e-06
2470.0 5.9936e-06
2490.0 6.0351e-06
2510.0 6.0852e-06
2530.0 6.1662e-06
2550.0 6.3107e-06
2570.0 6.5485e-06
2590.0 6.9177e-06
2610.0 7.5253e-06
2630.0 8.3901e-06
2650.0 9.4567e-06
2670.0 1.073e-05
2690.0 1.2151e-05
2710.0 1.35e-05
2730.0 1.4676e-05
2750.0 1.5695e-05
2770.0 1.6448e-05
2790.0 1.6932e-05
2810.0 1.7235e-05
2830.0 1.7415e-05
2850.0 1.7475e-05
2870.0 1.748e-05
2890.0 1.7467e-05
2910.0 1.7438e-05
2930.0 1.7391e-05
2950.0 1.7351e-05
2970.0 1.7317e-05
2990.0 1.7274e-05
3010.0 0.00031149
3030.0 0.00031049
3050.0 0.00030948
3070.0 0.00030815
3090.0 0.00030669
3110.0 0.00030477
3130.0 0.00030197
3150.0 0.00029813
3170.0 0.00029293
3190.0 0.00028651
3210.0 0.00027947
3230.0 0.00027245
3250.0 0.00026708
3270.0 0.0002635
3290.0 0.00026367
3310.0 0.00026607
3330.0 0.00027247
3350.0 0.00028162
3370.0 0.00029371
3390.0 0.00030837
3410.0 0.00032401
3430.0 0.00034139
3450.0 0.00036113
3470.0 0.00038232
3490.0 0.00040438
3510.0 0.00042893
3530.0 0.00045488
3550.0 0.0004803
3570.0 0.00050634
3590.0 0.00053555
3610.0 0.00056444
3630.0 0.00059557
3650.0 0.00062736
3670.0 0.00065736
3690.0 0.00068045
3710.0 0.00069487
3730.0 0.00069979
3750.0 0.0006947
3770.0 0.0006333
3790.0 0.00056816
3810.0 0.0005304
3830.0 0.00045769
3850.0 0.00032984
3870.0 0.00025316
3890.0 0.00042558
3910.0 0.00067722
3930.0 0.00081992
3950.0 0.00081931
3970.0 0.00081896
3990.0 0.00096059
4010.0 0.0011923
4030.0 0.0012268
4050.0 0.0011044
4070.0 0.00096048
4090.0 0.00090017
4110.0 0.00108
4130.0 0.0011185
4150.0 0.0010654
4170.0 0.0011
4190.0 0.0011291
4210.0 0.0011127
4230.0 0.001208
4250.0 0.0013158
4270.0 0.0013294
4290.0 0.0013501
4310.0 0.0014034
4330.0 0.0015516
4350.0 0.0017698
4370.0 0.0020008
4390.0 0.0019273
4410.0 0.0016159
4430.0 0.0013618
4450.0 0.0011585
4470.0 0.0011339
4490.0 0.0012309
4510.0 0.001347
4530.0 0.0014738
4550.0 0.0017167
4570.0 0.0020647
4590.0 0.0025274
4610.0 0.0031762
4630.0 0.0038053
4650.0 0.0039377
4670.0 0.0038616
4690.0 0.0041123
4710.0 0.0042978
4730.0 0.0036532
4750.0 0.0026566
4770.0 0.0021802
4790.0 0.0020805
4810.0 0.0019324
4830.0 0.0018324
4850.0 0.0021105
4870.0 0.0026941
4890.0 0.0030566
4910.0 0.0026289
4930.0 0.0023471
4950.0 0.0026408
4970.0 0.0035176
4990.0 0.0045011
5010.0 0.0047173
5030.0 0.0039065
5050.0 0.0025719
5070.0 0.0017795
5090.0 0.0015826
5110.0 0.0016538
5130.0 0.0017736
5150.0 0.0018671
5170.0 0.001867
5190.0 0.0018351
5210.0 0.0017759
5230.0 0.0018051
5250.0 0.0019222
5270.0 0.0022452
5290.0 0.0025937
5310.0 0.0028191
5330.0 0.0028924
5350.0 0.0029381
5370.0 0.0031911
5390.0 0.0033908
5410.0 0.0032985
5430.0 0.0028882
5450.0 0.0026756
5470.0 0.0030167
5490.0 0.0038628
5510.0 0.0048972
5530.0 0.0053992
5550.0 0.0052723
5570.0 0.0048092
5590.0 0.0043286
5610.0 0.0039927
5630.0 0.0037852
5650.0 0.0038866
5670.0 0.0038076
5690.0 0.0035756
5710.0 0.0033701
5730.0 0.0030238
5750.0 0.0022517
5770.0 0.0019748
5790.0 0.0022033
5810.0 0.002657
5830.0 0.0029751
5850.0 0.0032079
5870.0 0.003281
5890.0 0.0031605
5910.0 0.0030266
5930.0 0.0030465
5950.0 0.0031984
5970.0 0.0033484
5990.0 0.0031806
6010.0 0.0026911
6030.0 0.0022367
6050.0 0.0019511
6070.0 0.0019336
6090.0 0.0021692
6110.0 0.0023651
6130.0 0.0022781
6150.0 0.0021401
6170.0 0.0023693
6190.0 0.0028485
6210.0 0.003418
6230.0 0.003853
6250.0 0.0038367
6270.0 0.0034613
6290.0 0.0028651
6310.0 0.0022861
6330.0 0.0018352
6350.0 0.0016646
6370.0 0.001815
6390.0 0.0021303
6410.0 0.0024414
6430.0 0.0028241
6450.0 0.0032824
6470.0 0.0040555
6490.0 0.0049732
6510.0 0.0054598
6530.0 0.0050759
6550.0 0.0046852
6570.0 0.0046093
6590.0 0.0044294
6610.0 0.0040041
6630.0 0.003595
6650.0 0.0033234
6670.0 0.0034509
6690.0 0.003432
6710.0 0.0030427
6730.0 0.0028199
6750.0 0.0025076
6770.0 0.0024141
6790.0 0.0026038
6810.0 0.0027439
6830.0 0.002811
6850.0 0.0027628
6870.0 0.0026485
6890.0 0.0025949
6910.0 0.0024669
6930.0 0.0023305
6950.0 0.0023441
6970.0 0.0023928
6990.0 0.0026639
7010.0 0.0028345
7030.0 0.0025814
7050.0 0.002418
7070.0 0.0023259
7090.0 0.0020927
7110.0 0.0019496
7130.0 0.0019844
7150.0 0.0020609
7170.0 0.0021709
7190.0 0.0021743
7210.0 0.002185
7230.0 0.0023015
7250.0 0.0026505
7270.0 0.0030961
7290.0 0.0033181
7310.0 0.0032149
7330.0 0.0028595
7350.0 0.0025704
7370.0 0.0025277
7390.0 0.0025517
7410.0 0.0026451
7430.0 0.0028961
7450.0 0.0031392
7470.0 0.0034788
7490.0 0.0038439
7510.0 0.0035338
7530.0 0.0033827
7550.0 0.0028408
7570.0 0.0023872
7590.0 0.0019672
7610.0 0.0018056
7630.0 0.0018891
7650.0 0.0021604
7670.0 0.0023533
7690.0 0.0026542
7710.0 0.0029585
7730.0 0.0030937
7750.0 0.003101
7770.0 0.0030893
7790.0 0.0030439
7810.0 0.0031617
7830.0 0.0030562
7850.0 0.0027266
7870.0 0.0024623
7890.0 0.002294
7910.0 0.002069
7930.0 0.0017704
7950.0 0.0016206
7970.0 0.0016111
7990.0 0.0016861
8010.0 0.00179
8030.0 0.001816
8050.0 0.0018085
8070.0 0.0017571
8090.0 0.0017489
8110.0 0.0016619
8130.0 0.0015488
8150.0 0.001456
8170.0 0.0014204
8190.0 0.0014506
8210.0 0.0014544
8230.0 0.0015123
8250.0 0.001503
8270.0 0.0013433
8290.0 0.0010318
8310.0 0.00070256
8330.0 0.00046335
8350.0 0.00032886
8370.0 0.00039044
8390.0 0.00043202
8410.0 0.00055326
8430.0 0.00067036
8450.0 0.00073443
8470.0 0.0007617
8490.0 0.00078218
8510.0 0.00081702
8530.0 0.00091358
8550.0 0.0010093
8570.0 0.0011858
8590.0 0.0014543
8610.0 0.0017029
8630.0 0.0019904
8650.0 0.0022386
8670.0 0.0022054
8690.0 0.0020666
8710.0 0.001953
8730.0 0.0018457
8750.0 0.0017653
8770.0 0.0017131
8790.0 0.0016597
8810.0 0.0015462
8830.0 0.0013941
8850.0 0.0012071
8870.0 0.0010313
8890.0 0.00093146
8910.0 0.00094197
8930.0 0.00094069
8950.0 0.0010214
8970.0 0.001045
8990.0 0.0010855
9010.0 0.0011257
9030.0 0.0011347
9050.0 0.0011389
9070.0 0.0011421
9090.0 0.0011445
9110.0 0.0011456
9130.0 0.0011475
9150.0 0.0011501
9170.0 0.0011527
9190.0 0.0011552
9210.0 0.0011592
9230.0 0.0011621
9250.0 0.0011655
9270.0 0.0011691
9290.0 0.0011729
9310.0 0.0011771
9330.0 0.0011815
9350.0 0.001186
9370.0 0.0011908
9390.0 0.0011959
9410.0 0.0012012
9430.0 0.0012065
9450.0 0.0012123
9470.0 0.0012182
9490.0 0.0012243
9510.0 0.0012306
9530.0 0.0012372
9550.0 0.0012438
9570.0 0.0012506
9590.0 0.0012577
9610.0 0.001265
9630.0 0.0012723
9650.0 0.0012799
9670.0 0.0012877
9690.0 0.0012955
9710.0 0.0013035
9730.0 0.0013117
9750.0 0.00132
9770.0 0.0013283
9790.0 0.0013369
9810.0 0.0013456
9830.0 0.0013543
9850.0 0.0013631
9870.0 0.0013721
9890.0 0.0013811
9910.0 0.0013902
9930.0 0.0013993
9950.0 0.0014086
9970.0 0.0014178
9990.0 0.001427
10010.0 0.0014037
10030.0 0.0014127
10050.0 0.0014216
10070.0 0.0014303
10090.0 0.0014395
10110.0 0.0014486
10130.0 0.0014576
10150.0 0.0014667
10170.0 0.0014757
10190.0 0.0014844
10210.0 0.0014933
10230.0 0.0015021
10250.0 0.0015107
10270.0 0.0015192
10290.0 0.0015278
10310.0 0.0015362
10330.0 0.0015443
10350.0 0.0015524
10370.0 0.0015605
10390.0 0.0015682
10410.0 0.0015759
10430.0 0.0015836
10450.0 0.0015909
10470.0 0.001598
10490.0 0.001605
10510.0 0.0016119
10530.0 0.0016183
10550.0 0.0016246
10570.0 0.0016309
10590.0 0.0016368
10610.0 0.0016424
10630.0 0.001648
10650.0 0.0016533
10670.0 0.0016581
10690.0 0.0016627
10710.0 0.0016673
10730.0 0.0016714
10750.0 0.001675
10770.0 0.0016788
10790.0 0.0016821
10810.0 0.001685
10830.0 0.0016876
10850.0 0.00169
10870.0 0.0016915
10890.0 0.0016919
10910.0 0.0016912
10930.0 0.0016883
10950.0 0.0016817
10970.0 0.0016709
10990.0 0.0016556
11010.0 0.0015997
11030.0 0.0015716
11050.0 0.0015388
11070.0 0.0015005
11090.0 0.0014551
11110.0 0.0014087
11130.0 0.0013608
11150.0 0.0013097
11170.0 0.001258
11190.0 0.001209
11210.0 0.0011597
11230.0 0.0011108
11250.0 0.0010658
11270.0 0.0010242
11290.0 0.00098429
11310.0 0.00094807
11330.0 0.00091746
11350.0 0.00088947
11370.0 0.00086426
11390.0 0.00084272
11410.0 0.00082374
11430.0 0.00080549
11450.0 0.00078873
11470.0 0.00077293
11490.0 0.00075666
11510.0 0.00073925
11530.0 0.0007216
11550.0 0.00070295
11570.0 0.0006823
11590.0 0.00066061
11610.0 0.00063862
11630.0 0.0006151
11650.0 0.00059061
11670.0 0.00056721
11690.0 0.00054425
11710.0 0.00052139
11730.0 0.00049999
11750.0 0.00048077
11770.0 0.00046247
11790.0 0.00044574
11810.0 0.00043127
11830.0 0.00041843
11850.0 0.00040658
11870.0 0.00039642
11890.0 0.00038757
11910.0 0.00037925
11930.0 0.00037137
11950.0 0.000364
11970.0 0.00035659
11990.0 0.00034875
12010.0 0.00034079
12030.0 0.00033265
12050.0 0.00032397
12070.0 0.00031485
12090.0 0.00030611
12110.0 0.00029732
12130.0 0.0002886
12150.0 0.00028059
12170.0 0.00027351
12190.0 0.0002671
12210.0 0.00026203
12230.0 0.0002585
12250.0 0.00025642
12270.0 0.00025602
12290.0 0.00025727
12310.0 0.00025996
12330.0 0.00026435
12350.0 0.00027017
12370.0 0.0002769
12390.0 0.0002847
12410.0 0.00029379
12430.0 0.00030278
12450.0 0.00031182
12470.0 0.00032113
12490.0 0.00033007
12510.0 0.00033798
12530.0 0.00034541
12550.0 0.00035204
12570.0 0.00035728
12590.0 0.00036127
12610.0 0.00036417
12630.0 0.00036568
12650.0 0.00036576
12670.0 0.00036469
12690.0 0.00036244
12710.0 0.00035915
12730.0 0.00035498
12750.0 0.00034982
12770.0 0.00034399
12790.0 0.00033773
12810.0 0.00033089
12830.0 0.00032349
12850.0 0.00031604
12870.0 0.00030838
12890.0 0.00030026
12910.0 0.00029203
12930.0 0.00028386
12950.0 0.00027527
12970.0 0.00026637
12990.0 0.00025772
13010.0 0.00024899
13030.0 0.00023997
13050.0 0.0002311
13070.0 0.00022262
13090.0 0.00021402
13110.0 0.00020562
13130.0 0.00019785
13150.0 0.00019051
13170.0 0.00018345
13190.0 0.00017728
13210.0 0.00017201
13230.0 0.0001674
13250.0 0.00016367
13270.0 0.00016096
13290.0 0.00015913
13310.0 0.00015824
13330.0 0.00015828
13350.0 0.00015915
13370.0 0.00016086
13390.0 0.00016336
13410.0 0.00016626
13430.0 0.00016968
13450.0 0.00017357
13470.0 0.00017757
13490.0 0.00018153
13510.0 0.00018575
13530.0 0.00018978
13550.0 0.00019339
13570.0 0.00019677
13590.0 0.00019988
13610.0 0.00020246
13630.0 0.00020453
13650.0 0.00020628
13670.0 0.00020754
13690.0 0.00020831
13710.0 0.00020868
13730.0 0.00020868
13750.0 0.00020825
13770.0 0.00020751
13790.0 0.00020644
13810.0 0.00020507
13830.0 0.00020349
13850.0 0.00020164
13870.0 0.00019954
13890.0 0.00019729
13910.0 0.00019488
13930.0 0.00019223
13950.0 0.00018944
13970.0 0.00018667
13990.0 0.00018375
14010.0 0.00018075
14030.0 0.00017782
14050.0 0.00017496
14070.0 0.00017204
14090.0 0.00016933
14110.0 0.00016686
14130.0 0.00016455
14150.0 0.00016247
14170.0 0.00016077
14190.0 0.0001594
14210.0 0.00015834
14230.0 0.00015767
14250.0 0.00015739
14270.0 0.00015748
14290.0 0.00015798
14310.0 0.00015881
14330.0 0.00015996
14350.0 0.00016145
14370.0 0.00016318
14390.0 0.00016505
14410.0 0.00016718
14430.0 0.00016946
14450.0 0.00017175
14470.0 0.00017413
14490.0 0.00017669
14510.0 0.00017921
14530.0 0.00018173
14550.0 0.00018444
14570.0 0.0001873
14590.0 0.00019022
14610.0 0.00019343
14630.0 0.00019707
14650.0 0.00020095
14670.0 0.00020514
14690.0 0.0002099
14710.0 0.0002152
14730.0 0.0002206
14750.0 0.00022651
14770.0 0.00023295
14790.0 0.0002395
14810.0 0.00024608
14830.0 0.00025318
14850.0 0.00026013
14870.0 0.00026667
14890.0 0.00027304
14910.0 0.00027911
14930.0 0.0002844
14950.0 0.0002889
14970.0 0.00029279
14990.0 0.00029576
15010.0 0.00029781
15030.0 0.00029913
15050.0 0.00029981
15070.0 0.00029994
15090.0 0.00029973
15110.0 0.00029929
15130.0 0.00029871
15150.0 0.00029809
15170.0 0.00029741
15190.0 0.0002967
15210.0 0.00029602
15230.0 0.00029535
15250.0 0.00029464
15270.0 0.00029395
15290.0 0.0002933
15310.0 0.00029263
15330.0 0.00029194
15350.0 0.00029129
15370.0 0.00029065
15390.0 0.00028996
15410.0 0.0002893
15430.0 0.00028866
15450.0 0.000288
15470.0 0.00028733
15490.0 0.00028669
15510.0 0.00028606
15530.0 0.00028539
15550.0 0.00028475
15570.0 0.00028412
15590.0 0.00028346
15610.0 0.00028279
15630.0 0.00028216
15650.0 0.00028152
15670.0 0.00028086
15690.0 0.00028021
15710.0 0.00027959
15730.0 0.00027892
15750.0 0.00027826
15770.0 0.00027762
15790.0 0.00027698
15810.0 0.00027629
15830.0 0.00027563
15850.0 0.00027499
15870.0 0.00027432
15890.0 0.00027365
15910.0 0.000273
15930.0 0.00027234
15950.0 0.00027164
15970.0 0.00027097
15990.0 0.00027031
16010.0 0.00026961
16030.0 0.0002689
16050.0 0.00026824
16070.0 0.00026755
16090.0 0.00026684
16110.0 0.00026615
16130.0 0.00026547
16150.0 0.00026473
16170.0 0.00026401
16190.0 0.00026331
16210.0 0.0002626
16230.0 0.00026185
16250.0 0.00026113
16270.0 0.00026042
16290.0 0.00025967
16310.0 0.00025892
16330.0 0.00025819
16350.0 0.00025744
16370.0 0.00025664
16390.0 0.0002559
16410.0 0.00025515
16430.0 0.00025436
16450.0 0.00025358
16470.0 0.00025283
16490.0 0.00025203
16510.0 0.00025122
16530.0 0.00025043
16550.0 0.00024964
16570.0 0.00024882
16590.0 0.00024799
16610.0 0.0002472
16630.0 0.00024638
16650.0 0.00024554
16670.0 0.00024472
16690.0 0.0002439
16710.0 0.00024302
16730.0 0.00024217
16750.0 0.00024134
16770.0 0.00024047
16790.0 0.00023959
16810.0 0.00023874
16830.0 0.00023788
16850.0 0.00023698
16870.0 0.0002361
16890.0 0.00023523
16910.0 0.00023432
16930.0 0.0002334
16950.0 0.00023252
16970.0 0.00023162
16990.0 0.00023068
17010.0 0.00022977
17030.0 0.00022887
17050.0 0.00022793
17070.0 0.00022699
17090.0 0.00022607
17110.0 0.00022514
17130.0 0.00022416
17150.0 0.00022321
17170.0 0.00022228
17190.0 0.00022132
17210.0 0.00022034
17230.0 0.0002194
17250.0 0.00021844
17270.0 0.00021744
17290.0 0.00021646
17310.0 0.0002155
17330.0 0.0002145
17350.0 0.00021349
17370.0 0.00021253
17390.0 0.00021154
17410.0 0.00021052
17430.0 0.00020953
17450.0 0.00020855
17470.0 0.00020751
17490.0 0.00020649
17510.0 0.00020549
17530.0 0.00020448
17550.0 0.00020344
17570.0 0.00020243
17590.0 0.00020142
17610.0 0.00020038
17630.0 0.00019935
17650.0 0.00019833
17670.0 0.0001973
17690.0 0.00019623
17710.0 0.00019521
17730.0 0.00019418
17750.0 0.00019312
17770.0 0.00019208
17790.0 0.00019106
17810.0 0.00019
17830.0 0.00018894
17850.0 0.0001879
17870.0 0.00018686
17890.0 0.00018579
17910.0 0.00018472
17930.0 0.0001837
17950.0 0.00018264
17970.0 0.00018157
17990.0 0.00018053
18010.0 0.00017949
18030.0 0.0001784
18050.0 0.00017734
18070.0 0.0001763
18090.0 0.00017524
18110.0 0.00017416
18130.0 0.00017312
18150.0 0.00017207
18170.0 0.000171
18190.0 0.00016994
18210.0 0.0001689
18230.0 0.00016783
18250.0 0.00016675
18270.0 0.00016571
18290.0 0.00016466
18310.0 0.00016359
18330.0 0.00016254
18350.0 0.00016151
18370.0 0.00016044
18390.0 0.00015938
18410.0 0.00015834
18430.0 0.00015729
18450.0 0.00015621
18470.0 0.00015517
18490.0 0.00015415
18510.0 0.00015309
18530.0 0.00015204
18550.0 0.00015102
18570.0 0.00014998
18590.0 0.00014892
18610.0 0.00014788
18630.0 0.00014686
18650.0 0.00014581
18670.0 0.00014477
18690.0 0.00014376
18710.0 0.00014274
18730.0 0.00014169
18750.0 0.00014068
18770.0 0.00013968
18790.0 0.00013863
18810.0 0.0001376
18830.0 0.00013661
18850.0 0.00013559
18870.0 0.00013456
18890.0 0.00013357
18910.0 0.00013258
18930.0 0.00013156
18950.0 0.00013055
18970.0 0.00012957
18990.0 0.00012858
19010.0 0.00012755
19030.0 0.00012658
19050.0 0.0001256
19070.0 0.0001246
19090.0 0.00012362
19110.0 0.00012267
19130.0 0.00012168
19150.0 0.00012069
19170.0 0.00011973
19190.0 0.00011877
19210.0 0.00011779
19230.0 0.00011682
19250.0 0.00011588
19270.0 0.00011492
19290.0 0.00011396
19310.0 0.00011303
19330.0 0.00011209
19350.0 0.00011112
19370.0 0.00011018
19390.0 0.00010926
19410.0 0.00010832
19430.0 0.00010737
19450.0 0.00010646
19470.0 0.00010555
19490.0 0.00010461
19510.0 0.0001037
19530.0 0.0001028
19550.0 0.00010187
19570.0 0.00010095
19590.0 0.00010006
19610.0 9.9162e-05
19630.0 9.8248e-05
19650.0 9.736e-05
19670.0 9.6488e-05
19690.0 9.5584e-05
19710.0 9.469e-05
19730.0 9.3822e-05
19750.0 9.2945e-05
19770.0 9.2044e-05
19790.0 9.1179e-05
19810.0 9.0326e-05
19830.0 8.9448e-05
19850.0 8.8574e-05
19870.0 8.7722e-05
19890.0 8.6833e-05
19910.0 8.5896e-05
19930.0 8.4944e-05
19950.0 8.3928e-05
19970.0 8.2779e-05
19990.0 8.1503e-05
20010.0 8.1371e-05
20030.0 7.9817e-05
20050.0 7.8105e-05
20070.0 7.6342e-05
20090.0 7.453e-05
20110.0 7.258e-05
20130.0 7.0688e-05
20150.0 6.8884e-05
20170.0 6.7085e-05
20190.0 6.5329e-05
20210.0 6.3721e-05
20230.0 6.22e-05
20250.0 6.0724e-05
20270.0 5.939e-05
20290.0 5.8203e-05
20310.0 5.7107e-05
20330.0 5.6117e-05
20350.0 5.532e-05
20370.0 5.4642e-05
20390.0 5.4085e-05
20410.0 5.3676e-05
20430.0 5.3402e-05
20450.0 5.3249e-05
20470.0 5.3227e-05
20490.0 5.3319e-05
20510.0 5.3518e-05
20530.0 5.3833e-05
20550.0 5.423e-05
20570.0 5.4686e-05
20590.0 5.5232e-05
20610.0 5.584e-05
20630.0 5.6468e-05
20650.0 5.714e-05
20670.0 5.788e-05
20690.0 5.8602e-05
20710.0 5.9322e-05
20730.0 6.0074e-05
20750.0 6.0832e-05
20770.0 6.1551e-05
20790.0 6.2285e-05
20810.0 6.3043e-05
20830.0 6.3779e-05
20850.0 6.4504e-05
20870.0 6.5276e-05
20890.0 6.6059e-05
20910.0 6.6811e-05
20930.0 6.7598e-05
20950.0 6.8421e-05
20970.0 6.923e-05
20990.0 7.0035e-05
21010.0 7.0893e-05
21030.0 7.1739e-05
21050.0 7.2548e-05
21070.0 7.3359e-05
21090.0 7.4176e-05
21110.0 7.4916e-05
21130.0 7.5608e-05
21150.0 7.6277e-05
21170.0 7.688e-05
21190.0 7.7395e-05
21210.0 7.7863e-05
21230.0 7.826e-05
21250.0 7.8555e-05
21270.0 7.8764e-05
21290.0 7.8891e-05
21310.0 7.8917e-05
21330.0 7.8845e-05
21350.0 7.8674e-05
21370.0 7.8394e-05
21390.0 7.8016e-05
21410.0 7.7539e-05
21430.0 7.6923e-05
21450.0 7.6216e-05
21470.0 7.5431e-05
21490.0 7.453e-05
21510.0 7.3525e-05
21530.0 7.2484e-05
21550.0 7.1375e-05
21570.0 7.0169e-05
21590.0 6.8955e-05
21610.0 6.7755e-05
21630.0 6.6521e-05
21650.0 6.5277e-05
21670.0 6.4157e-05
21690.0 6.308e-05
21710.0 6.2055e-05
21730.0 6.1152e-05
21750.0 6.0383e-05
21770.0 5.9699e-05
21790.0 5.9163e-05
21810.0 5.8788e-05
21830.0 5.8553e-05
21850.0 5.8469e-05
21870.0 5.8541e-05
21890.0 5.8749e-05
21910.0 5.9108e-05
21930.0 5.9607e-05
21950.0 6.0211e-05
21970.0 6.0939e-05
21990.0 6.1819e-05
22010.0 6.2756e-05
22030.0 6.3759e-05
22050.0 6.4869e-05
22070.0 6.604e-05
22090.0 6.7199e-05
22110.0 6.8416e-05
22130.0 6.968e-05
22150.0 7.0905e-05
22170.0 7.2098e-05
22190.0 7.3314e-05
22210.0 7.4475e-05
22230.0 7.5515e-05
22250.0 7.6507e-05
22270.0 7.7424e-05
22290.0 7.8205e-05
22310.0 7.8865e-05
22330.0 7.9428e-05
22350.0 7.9834e-05
22370.0 8.0085e-05
22390.0 8.019e-05
22410.0 8.0129e-05
22430.0 7.9909e-05
22450.0 7.9536e-05
22470.0 7.8987e-05
22490.0 7.8282e-05
22510.0 7.7455e-05
22530.0 7.6444e-05
22550.0 7.5263e-05
22570.0 7.3997e-05
22590.0 7.2609e-05
22610.0 7.1054e-05
22630.0 6.941e-05
22650.0 6.7745e-05
22670.0 6.5935e-05
22690.0 6.4034e-05
22710.0 6.2142e-05
22730.0 6.0216e-05
22750.0 5.8151e-05
22770.0 5.6153e-05
22790.0 5.4221e-05
22810.0 5.2256e-05
22830.0 5.0314e-05
22850.0 4.8516e-05
22870.0 4.6775e-05
22890.0 4.5067e-05
22910.0 4.3523e-05
22930.0 4.214e-05
22950.0 4.0861e-05
22970.0 3.9727e-05
22990.0 3.884e-05
