#lamb flux
1010.0 1.3528e-06
1030.0 1.4139e-06
1050.0 1.4846e-06
1070.0 1.5643e-06
1090.0 1.6548e-06
1110.0 1.7479e-06
1130.0 1.8419e-06
1150.0 1.9407e-06
1170.0 2.0429e-06
1190.0 2.1403e-06
1210.0 2.2394e-06
1230.0 2.3423e-06
1250.0 2.4436e-06
1270.0 2.5426e-06
1290.0 2.6475e-06
1310.0 2.753e-06
1330.0 2.855e-06
1350.0 2.9587e-06
1370.0 3.0664e-06
1390.0 3.1722e-06
1410.0 3.2758e-06
1430.0 3.3845e-06
1450.0 3.494e-06
1470.0 3.6009e-06
1490.0 3.7095e-06
1510.0 3.8246e-06
1530.0 3.9348e-06
1550.0 4.0442e-06
1570.0 4.1577e-06
1590.0 4.2718e-06
1610.0 4.3816e-06
1630.0 4.4948e-06
1650.0 4.611e-06
1670.0 4.7237e-06
1690.0 4.835e-06
1710.0 4.95e-06
1730.0 5.0653e-06
1750.0 5.1737e-06
1770.0 5.2843e-06
1790.0 5.3963e-06
1810.0 5.5038e-06
1830.0 5.6085e-06
1850.0 5.7182e-06
1870.0 5.8238e-06
1890.0 5.9245e-06
1910.0 6.0257e-06
1930.0 6.128e-06
1950.0 6.224e-06
1970.0 6.3174e-06
1990.0 6.4133e-06
2010.0 6.5062e-06
2030.0 6.5945e-06
2050.0 6.6851e-06
2070.0 6.7777e-06
2090.0 6.8641e-06
2110.0 6.9503e-06
2130.0 7.0401e-06
2150.0 7.1288e-06
2170.0 7.2147e-06
2190.0 7.306e-06
2210.0 7.4004e-06
2230.0 7.4937e-06
2250.0 7.59e-06
2270.0 7.6946e-06
2290.0 7.8007e-06
2310.0 7.9079e-06
2330.0 8.0239e-06
2350.0 8.1469e-06
2370.0 8.2728e-06
2390.0 8.4072e-06
2410.0 8.5543e-06
2430.0 8.7065e-06
2450.0 8.8638e-06
2470.0 9.0296e-06
2490.0 9.1995e-06
2510.0 9.3667e-06
2530.0 9.5448e-06
2550.0 9.7566e-06
2570.0 1.0038e-05
2590.0 1.0439e-05
2610.0 1.1073e-05
2630.0 1.2008e-05
2650.0 1.3246e-05
2670.0 1.4836e-05
2690.0 1.6778e-05
2710.0 1.8883e-05
2730.0 2.1041e-05
2750.0 2.3292e-05
2770.0 2.5479e-05
2790.0 2.7537e-05
2810.0 2.9561e-05
2830.0 3.164e-05
2850.0 3.3657e-05
2870.0 3.5716e-05
2890.0 3.7901e-05
2910.0 4.0171e-05
2930.0 4.2459e-05
2950.0 4.4887e-05
2970.0 4.7437e-05
2990.0 5.0008e-05
3010.0 9.2977e-05
3030.0 9.7833e-05
3050.0 0.00010273
3070.0 0.00010733
3090.0 0.00011163
3110.0 0.00011499
3130.0 0.00011659
3150.0 0.00011557
3170.0 0.00011022
3190.0 0.00010006
3210.0 8.5096e-05
3230.0 6.774e-05
3250.0 8.0596e-05
3270.0 4.9705e-05
3290.0 8.477e-05
3310.0 3.7515e-05
3330.0 4.0148e-05
3350.0 4.9189e-05
3370.0 5.9077e-05
3390.0 6.9369e-05
3410.0 7.9612e-05
3430.0 9.0192e-05
3450.0 0.00010071
3470.0 0.0001105
3490.0 0.00011718
3510.0 0.00013544
3530.0 0.00017162
3550.0 0.00018442
3570.0 0.00018391
3590.0 0.00024188
3610.0 0.00020045
3630.0 0.00025258
3650.0 0.00026422
3670.0 0.00031221
3690.0 0.00032015
3710.0 0.00028723
3730.0 0.00035238
3750.0 0.00036723
3770.0 0.00037323
3790.0 0.00034548
3810.0 0.00029957
3830.0 0.00032475
3850.0 0.00030912
3870.0 0.00036236
3890.0 0.00037056
3910.0 0.00038653
3930.0 0.00043972
3950.0 0.00048839
3970.0 0.00060684
3990.0 0.00056991
4010.0 0.00048049
4030.0 0.00053432
4050.0 0.00051874
4070.0 0.00054286
4090.0 0.00051486
4110.0 0.00042635
4130.0 0.00049135
4150.0 0.00045876
4170.0 0.00047692
4190.0 0.00047507
4210.0 0.00053853
4230.0 0.00044616
4250.0 0.00050734
4270.0 0.00050673
4290.0 0.0005136
4310.0 0.00057934
4330.0 0.00060291
4350.0 0.00053969
4370.0 0.00050627
4390.0 0.00053008
4410.0 0.00049849
4430.0 0.00040377
4450.0 0.00039128
4470.0 0.00042336
4490.0 0.00036951
4510.0 0.0004252
4530.0 0.00046534
4550.0 0.00058796
4570.0 0.00081074
4590.0 0.00088785
4610.0 0.00079546
4630.0 0.0010238
4650.0 0.0012645
4670.0 0.0012213
4690.0 0.00092993
4710.0 0.00091228
4730.0 0.00095875
4750.0 0.00082644
4770.0 0.00066211
4790.0 0.00053095
4810.0 0.00065697
4830.0 0.00074078
4850.0 0.00075211
4870.0 0.00052749
4890.0 0.00081303
4910.0 0.00096927
4930.0 0.0010461
4950.0 0.0011272
4970.0 0.00097846
4990.0 0.0010594
5010.0 0.0010635
5030.0 0.00099362
5050.0 0.00089018
5070.0 0.00067719
5090.0 0.00058496
5110.0 0.00056029
5130.0 0.00052538
5150.0 0.00057656
5170.0 0.00053246
5190.0 0.00060386
5210.0 0.00060864
5230.0 0.00065925
5250.0 0.0008072
5270.0 0.00079011
5290.0 0.00082173
5310.0 0.0010303
5330.0 0.0011519
5350.0 0.0010877
5370.0 0.0010314
5390.0 0.0010689
5410.0 0.0011745
5430.0 0.001244
5450.0 0.0013676
5470.0 0.0014973
5490.0 0.0015998
5510.0 0.001819
5530.0 0.0018777
5550.0 0.0019265
5570.0 0.0019526
5590.0 0.0019224
5610.0 0.0018701
5630.0 0.001843
5650.0 0.0018637
5670.0 0.0018474
5690.0 0.001662
5710.0 0.0015484
5730.0 0.0014649
5750.0 0.0014825
5770.0 0.0013488
5790.0 0.0013077
5810.0 0.0013556
5830.0 0.001411
5850.0 0.0013352
5870.0 0.0013029
5890.0 0.0013987
5910.0 0.0013524
5930.0 0.0012249
5950.0 0.0011374
5970.0 0.0011412
5990.0 0.0010309
6010.0 0.00093255
6030.0 0.00090291
6050.0 0.00086238
6070.0 0.00074898
6090.0 0.00071383
6110.0 0.00080318
6130.0 0.00086415
6150.0 0.0009142
6170.0 0.00095418
6190.0 0.00098182
6210.0 0.00099748
6230.0 0.0010618
6250.0 0.00097925
6270.0 0.00087949
6290.0 0.00077903
6310.0 0.00070904
6330.0 0.00066581
6350.0 0.00061519
6370.0 0.0006291
6390.0 0.00072442
6410.0 0.00087315
6430.0 0.0010203
6450.0 0.0010629
6470.0 0.0011097
6490.0 0.0012658
6510.0 0.0013615
6530.0 0.0013233
6550.0 0.0013071
6570.0 0.0013236
6590.0 0.001294
6610.0 0.0013512
6630.0 0.0013038
6650.0 0.0012193
6670.0 0.0011265
6690.0 0.0010524
6710.0 0.0011254
6730.0 0.0010543
6750.0 0.00099033
6770.0 0.00096407
6790.0 0.0010016
6810.0 0.0010511
6830.0 0.0010272
6850.0 0.00096592
6870.0 0.00096018
6890.0 0.0009255
6910.0 0.0008788
6930.0 0.00094842
6950.0 0.00092388
6970.0 0.00092109
6990.0 0.00094267
7010.0 0.00091774
7030.0 0.00086141
7050.0 0.00079457
7070.0 0.00076787
7090.0 0.00070271
7110.0 0.00063505
7130.0 0.00056387
7150.0 0.00052977
7170.0 0.00061031
7190.0 0.00064417
7210.0 0.00065442
7230.0 0.0007054
7250.0 0.00071096
7270.0 0.00070694
7290.0 0.00073081
7310.0 0.0007454
7330.0 0.00071374
7350.0 0.00068125
7370.0 0.0006728
7390.0 0.0007099
7410.0 0.00080422
7430.0 0.00088663
7450.0 0.00097551
7470.0 0.0010136
7490.0 0.0010391
7510.0 0.00099398
7530.0 0.00095442
7550.0 0.00088304
7570.0 0.00076518
7590.0 0.00073399
7610.0 0.00072574
7630.0 0.00072836
7650.0 0.00081564
7670.0 0.00089985
7690.0 0.00098061
7710.0 0.0010697
7730.0 0.0011367
7750.0 0.0011884
7770.0 0.0011964
7790.0 0.0012658
7810.0 0.0013016
7830.0 0.001258
7850.0 0.0012638
7870.0 0.0012103
7890.0 0.0012137
7910.0 0.0011473
7930.0 0.0011354
7950.0 0.0010585
7970.0 0.0010765
7990.0 0.0010501
8010.0 0.0010307
8030.0 0.0010297
8050.0 0.0010673
8070.0 0.0010407
8090.0 0.0010417
8110.0 0.0010074
8130.0 0.0010035
8150.0 0.0009683
8170.0 0.00094054
8190.0 0.00092773
8210.0 0.00093407
8230.0 0.00085343
8250.0 0.00078853
8270.0 0.00068832
8290.0 0.00056212
8310.0 0.00045773
8330.0 0.00035907
8350.0 0.00030896
8370.0 0.00033213
8390.0 0.00036144
8410.0 0.00039318
8430.0 0.00045769
8450.0 0.00048555
8470.0 0.00050921
8490.0 0.00057237
8510.0 0.00062903
8530.0 0.000728
8550.0 0.00085898
8570.0 0.00096903
8590.0 0.0010542
8610.0 0.0011422
8630.0 0.0012264
8650.0 0.0012414
8670.0 0.0012481
8690.0 0.0012906
8710.0 0.0012925
8730.0 0.0012989
8750.0 0.0012525
8770.0 0.0012532
8790.0 0.0012343
8810.0 0.0011446
8830.0 0.0011288
8850.0 0.0010655
8870.0 0.0010228
8890.0 0.0009574
8910.0 0.001
8930.0 0.00092936
8950.0 0.0009041
8970.0 0.0008972
8990.0 0.00087083
9010.0 0.00087072
9030.0 0.00084264
9050.0 0.00083785
9070.0 0.00083609
9090.0 0.00083426
9110.0 0.0008326
9130.0 0.00083056
9150.0 0.00082835
9170.0 0.00082462
9190.0 0.00081858
9210.0 0.00082499
9230.0 0.00082063
9250.0 0.00081727
9270.0 0.00081406
9290.0 0.00081095
9310.0 0.00080792
9330.0 0.00080489
9350.0 0.00080182
9370.0 0.00079873
9390.0 0.00079558
9410.0 0.00079237
9430.0 0.00078907
9450.0 0.00078562
9470.0 0.00078216
9490.0 0.00077888
9510.0 0.00077549
9530.0 0.00077206
9550.0 0.00076856
9570.0 0.00076501
9590.0 0.00076144
9610.0 0.00075784
9630.0 0.00075421
9650.0 0.00075057
9670.0 0.00074692
9690.0 0.00074324
9710.0 0.00073955
9730.0 0.00073587
9750.0 0.00073218
9770.0 0.00072847
9790.0 0.00072478
9810.0 0.00072109
9830.0 0.0007174
9850.0 0.00071372
9870.0 0.00071005
9890.0 0.00070638
9910.0 0.00070272
9930.0 0.00069905
9950.0 0.0006923
9970.0 0.00068962
9990.0 0.00068678
10010.0 0.00068388
10030.0 0.00068074
10050.0 0.00067733
10070.0 0.00067353
10090.0 0.00067038
10110.0 0.00066703
10130.0 0.00066376
10150.0 0.00066051
10170.0 0.00065716
10190.0 0.00065371
10210.0 0.00065045
10230.0 0.00064727
10250.0 0.00064397
10270.0 0.00064073
10290.0 0.00063766
10310.0 0.00063449
10330.0 0.00063125
10350.0 0.00062821
10370.0 0.00062521
10390.0 0.00062211
10410.0 0.00061908
10430.0 0.00061624
10450.0 0.00061329
10470.0 0.00061032
10490.0 0.0006075
10510.0 0.00060473
10530.0 0.00060178
10550.0 0.00059896
10570.0 0.0005963
10590.0 0.00059356
10610.0 0.00059079
10630.0 0.0005882
10650.0 0.00058561
10670.0 0.0005829
10690.0 0.00058029
10710.0 0.0005778
10730.0 0.00057523
10750.0 0.00057257
10770.0 0.00057017
10790.0 0.00056774
10810.0 0.00056521
10830.0 0.00056277
10850.0 0.00056043
10870.0 0.00055785
10890.0 0.00055516
10910.0 0.00055243
10930.0 0.00054932
10950.0 0.00054551
10970.0 0.00054107
10990.0 0.00053599
11010.0 0.00050771
11030.0 0.00050104
11050.0 0.00049379
11070.0 0.00048576
11090.0 0.00047666
11110.0 0.00046776
11130.0 0.00045887
11150.0 0.00044964
11170.0 0.00044046
11190.0 0.00043188
11210.0 0.00042322
11230.0 0.00041452
11250.0 0.00040637
11270.0 0.00039865
11290.0 0.00039089
11310.0 0.00038349
11330.0 0.00037696
11350.0 0.00037063
11370.0 0.00036456
11390.0 0.0003591
11410.0 0.00035409
11430.0 0.00034902
11450.0 0.00034432
11470.0 0.00033996
11490.0 0.00033554
11510.0 0.00033092
11530.0 0.00032646
11550.0 0.00032189
11570.0 0.00031685
11590.0 0.00031159
11610.0 0.00030626
11630.0 0.00030037
11650.0 0.00029397
11670.0 0.00028767
11690.0 0.00028116
11710.0 0.00027423
11730.0 0.00026732
11750.0 0.00026076
11770.0 0.00025398
11790.0 0.00024726
11810.0 0.00024105
11830.0 0.00023513
11850.0 0.00022918
11870.0 0.0002238
11890.0 0.000219
11910.0 0.00021435
11930.0 0.00020999
11950.0 0.00020616
11970.0 0.00020255
11990.0 0.00019901
12010.0 0.00019582
12030.0 0.00019291
12050.0 0.00019005
12070.0 0.00018726
12090.0 0.00018485
12110.0 0.00018253
12130.0 0.00018026
12150.0 0.00017824
12170.0 0.0001765
12190.0 0.00017482
12210.0 0.00017346
12230.0 0.0001725
12250.0 0.00017188
12270.0 0.00017166
12290.0 0.00017195
12310.0 0.00017275
12330.0 0.00017408
12350.0 0.00017599
12370.0 0.00017839
12390.0 0.00018133
12410.0 0.00018489
12430.0 0.00018874
12450.0 0.00019288
12470.0 0.00019738
12490.0 0.00020203
12510.0 0.0002066
12530.0 0.00021123
12550.0 0.00021584
12570.0 0.00022015
12590.0 0.00022418
12610.0 0.00022802
12630.0 0.00023149
12650.0 0.00023449
12670.0 0.00023717
12690.0 0.00023948
12710.0 0.00024137
12730.0 0.0002429
12750.0 0.00024407
12770.0 0.00024488
12790.0 0.00024537
12810.0 0.00024553
12830.0 0.00024534
12850.0 0.00024493
12870.0 0.00024427
12890.0 0.0002433
12910.0 0.00024211
12930.0 0.00024079
12950.0 0.00023916
12970.0 0.00023726
12990.0 0.00023531
13010.0 0.00023318
13030.0 0.00023076
13050.0 0.00022822
13070.0 0.00022566
13090.0 0.00022282
13110.0 0.00021983
13130.0 0.00021689
13150.0 0.00021392
13170.0 0.00021078
13190.0 0.00020786
13210.0 0.00020521
13230.0 0.00020267
13250.0 0.0002004
13270.0 0.00019859
13290.0 0.00019713
13310.0 0.00019604
13330.0 0.00019543
13350.0 0.00019524
13370.0 0.00019541
13390.0 0.0001959
13410.0 0.00019659
13430.0 0.0001974
13450.0 0.00019822
13470.0 0.00019892
13490.0 0.00019942
13510.0 0.0001996
13530.0 0.00019939
13550.0 0.00019878
13570.0 0.00019773
13590.0 0.00019619
13610.0 0.00019431
13630.0 0.00019215
13650.0 0.00018962
13670.0 0.0001869
13690.0 0.00018415
13710.0 0.00018132
13730.0 0.00017835
13750.0 0.00017564
13770.0 0.00017306
13790.0 0.00017053
13810.0 0.00016818
13830.0 0.00016608
13850.0 0.00016406
13870.0 0.00016214
13890.0 0.00016042
13910.0 0.00015882
13930.0 0.00015726
13950.0 0.00015579
13970.0 0.00015446
13990.0 0.00015317
14010.0 0.00015192
14030.0 0.00015077
14050.0 0.0001497
14070.0 0.00014865
14090.0 0.00014771
14110.0 0.00014687
14130.0 0.00014609
14150.0 0.00014539
14170.0 0.0001448
14190.0 0.00014429
14210.0 0.00014386
14230.0 0.00014353
14250.0 0.00014327
14270.0 0.00014311
14290.0 0.00014305
14310.0 0.00014307
14330.0 0.00014317
14350.0 0.00014336
14370.0 0.0001436
14390.0 0.00014387
14410.0 0.0001442
14430.0 0.00014455
14450.0 0.00014486
14470.0 0.00014515
14490.0 0.00014543
14510.0 0.00014562
14530.0 0.00014573
14550.0 0.0001458
14570.0 0.00014583
14590.0 0.0001458
14610.0 0.00014576
14630.0 0.00014576
14650.0 0.0001458
14670.0 0.0001459
14690.0 0.00014615
14710.0 0.00014656
14730.0 0.00014709
14750.0 0.00014783
14770.0 0.00014884
14790.0 0.00015004
14810.0 0.00015143
14830.0 0.00015319
14850.0 0.00015516
14870.0 0.00015723
14890.0 0.00015948
14910.0 0.00016188
14930.0 0.00016415
14950.0 0.0001662
14970.0 0.00016809
14990.0 0.00016956
15010.0 0.0001705
15030.0 0.00017102
15050.0 0.00017112
15070.0 0.0001708
15090.0 0.00017023
15110.0 0.00016948
15130.0 0.00016861
15150.0 0.00016769
15170.0 0.00016673
15190.0 0.00016575
15210.0 0.00016477
15230.0 0.00016379
15250.0 0.0001628
15270.0 0.00016182
15290.0 0.00016084
15310.0 0.00015985
15330.0 0.00015887
15350.0 0.00015789
15370.0 0.00015691
15390.0 0.00015592
15410.0 0.00015494
15430.0 0.00015397
15450.0 0.000153
15470.0 0.00015202
15490.0 0.00015105
15510.0 0.00015009
15530.0 0.00014912
15550.0 0.00014816
15570.0 0.00014721
15590.0 0.00014625
15610.0 0.00014529
15630.0 0.00014434
15650.0 0.0001434
15670.0 0.00014246
15690.0 0.00014152
15710.0 0.00014059
15730.0 0.00013966
15750.0 0.00013873
15770.0 0.00013782
15790.0 0.0001369
15810.0 0.00013599
15830.0 0.00013508
15850.0 0.00013419
15870.0 0.00013329
15890.0 0.0001324
15910.0 0.00013152
15930.0 0.00013064
15950.0 0.00012976
15970.0 0.00012889
15990.0 0.00012803
16010.0 0.00012717
16030.0 0.00012631
16050.0 0.00012547
16070.0 0.00012463
16090.0 0.00012379
16110.0 0.00012297
16130.0 0.00012215
16150.0 0.00012133
16170.0 0.00012051
16190.0 0.00011971
16210.0 0.00011892
16230.0 0.00011812
16250.0 0.00011734
16270.0 0.00011656
16290.0 0.00011578
16310.0 0.00011502
16330.0 0.00011426
16350.0 0.00011351
16370.0 0.00011275
16390.0 0.00011201
16410.0 0.00011128
16430.0 0.00011055
16450.0 0.00010982
16470.0 0.00010911
16490.0 0.0001084
16510.0 0.0001077
16530.0 0.000107
16550.0 0.00010631
16570.0 0.00010562
16590.0 0.00010494
16610.0 0.00010428
16630.0 0.00010361
16650.0 0.00010295
16670.0 0.0001023
16690.0 0.00010166
16710.0 0.00010101
16730.0 0.00010038
16750.0 9.9753e-05
16770.0 9.9131e-05
16790.0 9.8513e-05
16810.0 9.7907e-05
16830.0 9.7307e-05
16850.0 9.6707e-05
16870.0 9.6117e-05
16890.0 9.5536e-05
16910.0 9.4955e-05
16930.0 9.4379e-05
16950.0 9.3815e-05
16970.0 9.3256e-05
16990.0 9.2698e-05
17010.0 9.215e-05
17030.0 9.1611e-05
17050.0 9.1072e-05
17070.0 9.0538e-05
17090.0 9.0015e-05
17110.0 8.9496e-05
17130.0 8.8976e-05
17150.0 8.8468e-05
17170.0 8.7968e-05
17190.0 8.7469e-05
17210.0 8.6975e-05
17230.0 8.6492e-05
17250.0 8.6011e-05
17270.0 8.553e-05
17290.0 8.506e-05
17310.0 8.4597e-05
17330.0 8.4134e-05
17350.0 8.3676e-05
17370.0 8.323e-05
17390.0 8.2786e-05
17410.0 8.2343e-05
17430.0 8.191e-05
17450.0 8.1483e-05
17470.0 8.1053e-05
17490.0 8.0631e-05
17510.0 8.0219e-05
17530.0 7.9808e-05
17550.0 7.9399e-05
17570.0 7.8999e-05
17590.0 7.8606e-05
17610.0 7.8211e-05
17630.0 7.7823e-05
17650.0 7.7442e-05
17670.0 7.7064e-05
17690.0 7.6684e-05
17710.0 7.6317e-05
17730.0 7.5953e-05
17750.0 7.559e-05
17770.0 7.5232e-05
17790.0 7.4884e-05
17810.0 7.4533e-05
17830.0 7.4186e-05
17850.0 7.3847e-05
17870.0 7.3512e-05
17890.0 7.3176e-05
17910.0 7.2846e-05
17930.0 7.2526e-05
17950.0 7.2204e-05
17970.0 7.1885e-05
17990.0 7.1574e-05
18010.0 7.1266e-05
18030.0 7.0956e-05
18050.0 7.0653e-05
18070.0 7.0357e-05
18090.0 7.0061e-05
18110.0 6.9766e-05
18130.0 6.9481e-05
18150.0 6.9198e-05
18170.0 6.8914e-05
18190.0 6.8636e-05
18210.0 6.8364e-05
18230.0 6.809e-05
18250.0 6.7819e-05
18270.0 6.7556e-05
18290.0 6.7295e-05
18310.0 6.7034e-05
18330.0 6.6779e-05
18350.0 6.6529e-05
18370.0 6.6277e-05
18390.0 6.6029e-05
18410.0 6.5787e-05
18430.0 6.5546e-05
18450.0 6.5304e-05
18470.0 6.5069e-05
18490.0 6.4839e-05
18510.0 6.4608e-05
18530.0 6.438e-05
18550.0 6.4158e-05
18570.0 6.3936e-05
18590.0 6.3713e-05
18610.0 6.3497e-05
18630.0 6.3285e-05
18650.0 6.3071e-05
18670.0 6.286e-05
18690.0 6.2656e-05
18710.0 6.2452e-05
18730.0 6.2248e-05
18750.0 6.2049e-05
18770.0 6.1854e-05
18790.0 6.1655e-05
18810.0 6.1461e-05
18830.0 6.1272e-05
18850.0 6.1083e-05
18870.0 6.0894e-05
18890.0 6.0712e-05
18910.0 6.0532e-05
18930.0 6.0349e-05
18950.0 6.017e-05
18970.0 5.9996e-05
18990.0 5.9821e-05
19010.0 5.9644e-05
19030.0 5.9476e-05
19050.0 5.9309e-05
19070.0 5.914e-05
19090.0 5.8975e-05
19110.0 5.8815e-05
19130.0 5.8652e-05
19150.0 5.849e-05
19170.0 5.8334e-05
19190.0 5.8178e-05
19210.0 5.8021e-05
19230.0 5.7867e-05
19250.0 5.7719e-05
19270.0 5.7568e-05
19290.0 5.7418e-05
19310.0 5.7274e-05
19330.0 5.713e-05
19350.0 5.6982e-05
19370.0 5.684e-05
19390.0 5.6701e-05
19410.0 5.656e-05
19430.0 5.642e-05
19450.0 5.6286e-05
19470.0 5.6152e-05
19490.0 5.6015e-05
19510.0 5.5883e-05
19530.0 5.5754e-05
19550.0 5.5621e-05
19570.0 5.549e-05
19590.0 5.5364e-05
19610.0 5.5238e-05
19630.0 5.5111e-05
19650.0 5.4987e-05
19670.0 5.4867e-05
19690.0 5.4743e-05
19710.0 5.462e-05
19730.0 5.4502e-05
19750.0 5.4384e-05
19770.0 5.4262e-05
19790.0 5.4146e-05
19810.0 5.4032e-05
19830.0 5.3915e-05
19850.0 5.3797e-05
19870.0 5.3679e-05
19890.0 5.355e-05
19910.0 5.34e-05
19930.0 5.3228e-05
19950.0 5.3016e-05
19970.0 5.2735e-05
19990.0 5.2374e-05
20010.0 5.1945e-05
20030.0 5.1409e-05
20050.0 5.0769e-05
20070.0 5.0069e-05
20090.0 4.9311e-05
20110.0 4.8452e-05
20130.0 4.7583e-05
20150.0 4.6724e-05
20170.0 4.5835e-05
20190.0 4.4934e-05
20210.0 4.4082e-05
20230.0 4.325e-05
20250.0 4.2412e-05
20270.0 4.163e-05
20290.0 4.0912e-05
20310.0 4.0223e-05
20330.0 3.9574e-05
20350.0 3.903e-05
20370.0 3.8544e-05
20390.0 3.8115e-05
20410.0 3.7769e-05
20430.0 3.7504e-05
20450.0 3.7299e-05
20470.0 3.7172e-05
20490.0 3.7119e-05
20510.0 3.7132e-05
20530.0 3.721e-05
20550.0 3.7346e-05
20570.0 3.7526e-05
20590.0 3.7757e-05
20610.0 3.8028e-05
20630.0 3.8317e-05
20650.0 3.8631e-05
20670.0 3.8974e-05
20690.0 3.9308e-05
20710.0 3.9634e-05
20730.0 3.9959e-05
20750.0 4.0268e-05
20770.0 4.0539e-05
20790.0 4.0788e-05
20810.0 4.1008e-05
20830.0 4.1184e-05
20850.0 4.1318e-05
20870.0 4.1415e-05
20890.0 4.1465e-05
20910.0 4.1471e-05
20930.0 4.1436e-05
20950.0 4.1359e-05
20970.0 4.1246e-05
20990.0 4.1102e-05
21010.0 4.0917e-05
21030.0 4.0706e-05
21050.0 4.0478e-05
21070.0 4.0226e-05
21090.0 3.9947e-05
21110.0 3.9671e-05
21130.0 3.939e-05
21150.0 3.9097e-05
21170.0 3.8807e-05
21190.0 3.8534e-05
21210.0 3.826e-05
21230.0 3.7994e-05
21250.0 3.7759e-05
21270.0 3.7544e-05
21290.0 3.7348e-05
21310.0 3.7182e-05
21330.0 3.7052e-05
21350.0 3.6949e-05
21370.0 3.6879e-05
21390.0 3.6845e-05
21410.0 3.6845e-05
21430.0 3.688e-05
21450.0 3.6949e-05
21470.0 3.7047e-05
21490.0 3.7178e-05
21510.0 3.734e-05
21530.0 3.7521e-05
21550.0 3.7726e-05
21570.0 3.7961e-05
21590.0 3.821e-05
21610.0 3.8469e-05
21630.0 3.875e-05
21650.0 3.9052e-05
21670.0 3.9345e-05
21690.0 3.9651e-05
21710.0 3.9973e-05
21730.0 4.0296e-05
21750.0 4.0613e-05
21770.0 4.0952e-05
21790.0 4.1293e-05
21810.0 4.1625e-05
21830.0 4.1961e-05
21850.0 4.231e-05
21870.0 4.2649e-05
21890.0 4.2977e-05
21910.0 4.3315e-05
21930.0 4.3649e-05
21950.0 4.3965e-05
21970.0 4.4279e-05
21990.0 4.4595e-05
22010.0 4.4883e-05
22030.0 4.5152e-05
22050.0 4.541e-05
22070.0 4.5645e-05
22090.0 4.5845e-05
22110.0 4.6021e-05
22130.0 4.6167e-05
22150.0 4.6273e-05
22170.0 4.6341e-05
22190.0 4.6369e-05
22210.0 4.635e-05
22230.0 4.6288e-05
22250.0 4.6179e-05
22270.0 4.6019e-05
22290.0 4.5817e-05
22310.0 4.5574e-05
22330.0 4.527e-05
22350.0 4.4926e-05
22370.0 4.4552e-05
22390.0 4.4131e-05
22410.0 4.3658e-05
22430.0 4.3177e-05
22450.0 4.2672e-05
22470.0 4.2124e-05
22490.0 4.1563e-05
22510.0 4.1008e-05
22530.0 4.042e-05
22550.0 3.9816e-05
22570.0 3.9237e-05
22590.0 3.8663e-05
22610.0 3.8077e-05
22630.0 3.7512e-05
22650.0 3.6985e-05
22670.0 3.6456e-05
22690.0 3.5943e-05
22710.0 3.5469e-05
22730.0 3.502e-05
