#lamb flux
1010.0 9.5668e-09
1030.0 1.0777e-08
1050.0 1.2169e-08
1070.0 1.3736e-08
1090.0 1.5515e-08
1110.0 1.7341e-08
1130.0 1.9178e-08
1150.0 2.1103e-08
1170.0 2.3088e-08
1190.0 2.497e-08
1210.0 2.6878e-08
1230.0 2.8849e-08
1250.0 3.0781e-08
1270.0 3.2657e-08
1290.0 3.4639e-08
1310.0 3.6619e-08
1330.0 3.8519e-08
1350.0 4.0439e-08
1370.0 4.2422e-08
1390.0 4.4355e-08
1410.0 4.6231e-08
1430.0 4.8192e-08
1450.0 5.0152e-08
1470.0 5.2046e-08
1490.0 5.396e-08
1510.0 5.5982e-08
1530.0 5.7897e-08
1550.0 5.9786e-08
1570.0 6.1739e-08
1590.0 6.3693e-08
1610.0 6.5558e-08
1630.0 6.7481e-08
1650.0 6.9452e-08
1670.0 7.1357e-08
1690.0 7.3235e-08
1710.0 7.5183e-08
1730.0 7.7139e-08
1750.0 7.8973e-08
1770.0 8.0857e-08
1790.0 8.2775e-08
1810.0 8.4625e-08
1830.0 8.6434e-08
1850.0 8.8349e-08
1870.0 9.0204e-08
1890.0 9.1983e-08
1910.0 9.3787e-08
1930.0 9.5623e-08
1950.0 9.7354e-08
1970.0 9.9045e-08
1990.0 1.0079e-07
2010.0 1.0247e-07
2030.0 1.0407e-07
2050.0 1.0569e-07
2070.0 1.0733e-07
2090.0 1.0882e-07
2110.0 1.1027e-07
2130.0 1.1174e-07
2150.0 1.1313e-07
2170.0 1.1439e-07
2190.0 1.1567e-07
2210.0 1.1691e-07
2230.0 1.1802e-07
2250.0 1.1905e-07
2270.0 1.2011e-07
2290.0 1.2104e-07
2310.0 1.2182e-07
2330.0 1.226e-07
2350.0 1.2331e-07
2370.0 1.239e-07
2390.0 1.2445e-07
2410.0 1.2506e-07
2430.0 1.2564e-07
2450.0 1.2625e-07
2470.0 1.2706e-07
2490.0 1.2812e-07
2510.0 1.2936e-07
2530.0 1.3119e-07
2550.0 1.3419e-07
2570.0 1.3891e-07
2590.0 1.4616e-07
2610.0 1.5819e-07
2630.0 1.7566e-07
2650.0 1.977e-07
2670.0 2.2472e-07
2690.0 2.5566e-07
2710.0 2.8588e-07
2730.0 3.1292e-07
2750.0 3.37e-07
2770.0 3.5525e-07
2790.0 3.6726e-07
2810.0 3.748e-07
2830.0 3.7906e-07
2850.0 3.8003e-07
2870.0 3.7935e-07
2890.0 3.779e-07
2910.0 3.7587e-07
2930.0 3.7338e-07
2950.0 3.7096e-07
2970.0 3.6862e-07
2990.0 3.6618e-07
3010.0 8.557e-06
3030.0 8.4999e-06
3050.0 8.4436e-06
3070.0 8.3812e-06
3090.0 8.3161e-06
3110.0 8.2396e-06
3130.0 8.1419e-06
3150.0 8.0179e-06
3170.0 7.8573e-06
3190.0 7.6642e-06
3210.0 7.4533e-06
3230.0 7.2388e-06
3250.0 7.0499e-06
3270.0 6.9196e-06
3290.0 6.8641e-06
3310.0 6.896e-06
3330.0 7.0181e-06
3350.0 7.2127e-06
3370.0 7.4837e-06
3390.0 7.8219e-06
3410.0 8.1893e-06
3430.0 8.6033e-06
3450.0 9.08e-06
3470.0 9.599e-06
3490.0 1.0147e-05
3510.0 1.0763e-05
3530.0 1.1421e-05
3550.0 1.209e-05
3570.0 1.28e-05
3590.0 1.3593e-05
3610.0 1.4432e-05
3630.0 1.5307e-05
3650.0 1.6226e-05
3670.0 1.7087e-05
3690.0 1.7756e-05
3710.0 1.8156e-05
3730.0 1.8171e-05
3750.0 1.7792e-05
3770.0 1.6662e-05
3790.0 1.522e-05
3810.0 1.3712e-05
3830.0 1.2147e-05
3850.0 1.0156e-05
3870.0 7.263e-06
3890.0 1.0516e-05
3910.0 1.6687e-05
3930.0 2.0389e-05
3950.0 2.0209e-05
3970.0 2.1368e-05
3990.0 2.3885e-05
4010.0 3.1782e-05
4030.0 3.1457e-05
4050.0 2.7714e-05
4070.0 2.566e-05
4090.0 2.4399e-05
4110.0 2.8881e-05
4130.0 3.1051e-05
4150.0 3.1936e-05
4170.0 3.1056e-05
4190.0 3.0963e-05
4210.0 3.1079e-05
4230.0 3.5234e-05
4250.0 3.8882e-05
4270.0 3.992e-05
4290.0 3.9771e-05
4310.0 3.9923e-05
4330.0 4.3494e-05
4350.0 5.116e-05
4370.0 5.8635e-05
4390.0 5.4064e-05
4410.0 4.2256e-05
4430.0 3.4942e-05
4450.0 3.0173e-05
4470.0 2.8604e-05
4490.0 3.255e-05
4510.0 3.9177e-05
4530.0 4.4047e-05
4550.0 4.9746e-05
4570.0 5.6728e-05
4590.0 6.7719e-05
4610.0 9.1865e-05
4630.0 0.00011443
4650.0 0.00011576
4670.0 0.00010956
4690.0 0.00011672
4710.0 0.00012399
4730.0 0.00010424
4750.0 7.2734e-05
4770.0 5.8262e-05
4790.0 5.7563e-05
4810.0 5.418e-05
4830.0 5.1318e-05
4850.0 5.8281e-05
4870.0 7.5913e-05
4890.0 8.8042e-05
4910.0 7.3275e-05
4930.0 6.5098e-05
4950.0 7.295e-05
4970.0 9.8211e-05
4990.0 0.00012892
5010.0 0.00013951
5030.0 0.00011459
5050.0 7.2434e-05
5070.0 4.9834e-05
5090.0 4.3567e-05
5110.0 4.5047e-05
5130.0 4.9026e-05
5150.0 5.0923e-05
5170.0 5.056e-05
5190.0 4.9038e-05
5210.0 4.7959e-05
5230.0 5.0402e-05
5250.0 5.453e-05
5270.0 6.0726e-05
5290.0 6.9688e-05
5310.0 7.899e-05
5330.0 8.1219e-05
5350.0 8.1242e-05
5370.0 8.8776e-05
5390.0 9.8523e-05
5410.0 9.4189e-05
5430.0 7.9545e-05
5450.0 7.3596e-05
5470.0 8.2687e-05
5490.0 0.0001061
5510.0 0.00013562
5530.0 0.00015217
5550.0 0.00014566
5570.0 0.00013128
5590.0 0.00011545
5610.0 0.00010796
5630.0 0.0001047
5650.0 0.00010571
5670.0 0.00010237
5690.0 9.2948e-05
5710.0 8.9058e-05
5730.0 8.2072e-05
5750.0 5.5818e-05
5770.0 4.7511e-05
5790.0 5.4166e-05
5810.0 6.4989e-05
5830.0 7.6777e-05
5850.0 8.6581e-05
5870.0 8.9697e-05
5890.0 8.651e-05
5910.0 8.2862e-05
5930.0 8.2644e-05
5950.0 8.6378e-05
5970.0 9.4664e-05
5990.0 8.8009e-05
6010.0 7.3026e-05
6030.0 6.0466e-05
6050.0 5.2456e-05
6070.0 5.3346e-05
6090.0 6.0418e-05
6110.0 6.606e-05
6130.0 6.3212e-05
6150.0 5.6788e-05
6170.0 5.9722e-05
6190.0 7.2354e-05
6210.0 9.1036e-05
6230.0 0.00010872
6250.0 0.00011003
6270.0 9.6383e-05
6290.0 8.0077e-05
6310.0 6.3223e-05
6330.0 4.9595e-05
6350.0 4.4829e-05
6370.0 4.8115e-05
6390.0 5.7303e-05
6410.0 6.7232e-05
6430.0 7.8424e-05
6450.0 9.2026e-05
6470.0 0.00011008
6490.0 0.0001356
6510.0 0.00015091
6530.0 0.00014151
6550.0 0.0001296
6570.0 0.00012286
6590.0 0.00011831
6610.0 0.00010409
6630.0 9.5291e-05
6650.0 8.7831e-05
6670.0 8.9479e-05
6690.0 8.6322e-05
6710.0 7.7387e-05
6730.0 6.6559e-05
6750.0 6.1133e-05
6770.0 6.1915e-05
6790.0 7.0581e-05
6810.0 6.9107e-05
6830.0 7.1036e-05
6850.0 6.8582e-05
6870.0 6.5528e-05
6890.0 6.3206e-05
6910.0 6.2238e-05
6930.0 5.8234e-05
6950.0 6.0535e-05
6970.0 6.119e-05
6990.0 6.8386e-05
7010.0 7.2502e-05
7030.0 6.7921e-05
7050.0 6.3218e-05
7070.0 6.0954e-05
7090.0 5.7054e-05
7110.0 5.4106e-05
7130.0 5.6033e-05
7150.0 5.9794e-05
7170.0 6.4048e-05
7190.0 6.4939e-05
7210.0 6.2998e-05
7230.0 6.4976e-05
7250.0 7.3854e-05
7270.0 8.5897e-05
7290.0 9.4818e-05
7310.0 9.3541e-05
7330.0 8.3456e-05
7350.0 7.4586e-05
7370.0 6.9142e-05
7390.0 7.0026e-05
7410.0 7.4934e-05
7430.0 8.2155e-05
7450.0 8.8862e-05
7470.0 9.5508e-05
7490.0 0.00010371
7510.0 0.00010956
7530.0 0.00010222
7550.0 8.6076e-05
7570.0 6.767e-05
7590.0 4.984e-05
7610.0 4.4261e-05
7630.0 4.7897e-05
7650.0 5.5476e-05
7670.0 6.4366e-05
7690.0 7.2999e-05
7710.0 7.7964e-05
7730.0 8.011e-05
7750.0 8.3718e-05
7770.0 8.3431e-05
7790.0 8.0322e-05
7810.0 8.0093e-05
7830.0 7.8581e-05
7850.0 7.1767e-05
7870.0 6.5224e-05
7890.0 5.8546e-05
7910.0 4.9963e-05
7930.0 4.3631e-05
7950.0 3.9551e-05
7970.0 3.8481e-05
7990.0 3.9507e-05
8010.0 4.1649e-05
8030.0 4.1736e-05
8050.0 4.204e-05
8070.0 4.1357e-05
8090.0 4.2367e-05
8110.0 3.9964e-05
8130.0 3.4978e-05
8150.0 3.2863e-05
8170.0 3.0289e-05
8190.0 2.9979e-05
8210.0 3.214e-05
8230.0 3.4385e-05
8250.0 3.1866e-05
8270.0 2.8407e-05
8290.0 2.334e-05
8310.0 1.6087e-05
8330.0 1.0441e-05
8350.0 7.6056e-06
8370.0 8.0841e-06
8390.0 9.5742e-06
8410.0 1.2162e-05
8430.0 1.4862e-05
8450.0 1.641e-05
8470.0 1.8207e-05
8490.0 1.7899e-05
8510.0 1.7992e-05
8530.0 1.8792e-05
8550.0 2.275e-05
8570.0 2.8026e-05
8590.0 3.2024e-05
8610.0 3.8709e-05
8630.0 4.4872e-05
8650.0 4.7216e-05
8670.0 4.8001e-05
8690.0 4.7716e-05
8710.0 4.4619e-05
8730.0 4.283e-05
8750.0 3.9636e-05
8770.0 3.8061e-05
8790.0 3.7761e-05
8810.0 3.6e-05
8830.0 3.0283e-05
8850.0 2.4956e-05
8870.0 2.0813e-05
8890.0 2.0344e-05
8910.0 2.1974e-05
8930.0 2.3321e-05
8950.0 2.6174e-05
8970.0 2.6586e-05
8990.0 2.6175e-05
9010.0 2.5171e-05
9030.0 2.4907e-05
9050.0 2.5151e-05
9070.0 2.5345e-05
9090.0 2.5491e-05
9110.0 2.5621e-05
9130.0 2.5737e-05
9150.0 2.5846e-05
9170.0 2.5962e-05
9190.0 2.6084e-05
9210.0 2.6217e-05
9230.0 2.6353e-05
9250.0 2.6498e-05
9270.0 2.6649e-05
9290.0 2.6806e-05
9310.0 2.6972e-05
9330.0 2.7143e-05
9350.0 2.732e-05
9370.0 2.7504e-05
9390.0 2.7695e-05
9410.0 2.7891e-05
9430.0 2.8092e-05
9450.0 2.8301e-05
9470.0 2.8516e-05
9490.0 2.8736e-05
9510.0 2.8962e-05
9530.0 2.9195e-05
9550.0 2.9432e-05
9570.0 2.9674e-05
9590.0 2.9923e-05
9610.0 3.0176e-05
9630.0 3.0434e-05
9650.0 3.0697e-05
9670.0 3.0967e-05
9690.0 3.124e-05
9710.0 3.1517e-05
9730.0 3.1799e-05
9750.0 3.2086e-05
9770.0 3.2374e-05
9790.0 3.2669e-05
9810.0 3.2968e-05
9830.0 3.3269e-05
9850.0 3.3572e-05
9870.0 3.3882e-05
9890.0 3.4193e-05
9910.0 3.4505e-05
9930.0 3.4821e-05
9950.0 3.514e-05
9970.0 3.5459e-05
9990.0 3.578e-05
10010.0 3.4456e-05
10030.0 3.4759e-05
10050.0 3.5061e-05
10070.0 3.5363e-05
10090.0 3.5671e-05
10110.0 3.5975e-05
10130.0 3.628e-05
10150.0 3.6586e-05
10170.0 3.6891e-05
10190.0 3.7192e-05
10210.0 3.7495e-05
10230.0 3.7797e-05
10250.0 3.8095e-05
10270.0 3.8392e-05
10290.0 3.8689e-05
10310.0 3.8981e-05
10330.0 3.9268e-05
10350.0 3.9556e-05
10370.0 3.984e-05
10390.0 4.0119e-05
10410.0 4.0394e-05
10430.0 4.0668e-05
10450.0 4.0935e-05
10470.0 4.1197e-05
10490.0 4.1455e-05
10510.0 4.171e-05
10530.0 4.1954e-05
10550.0 4.2195e-05
10570.0 4.2432e-05
10590.0 4.2662e-05
10610.0 4.2883e-05
10630.0 4.3101e-05
10650.0 4.3312e-05
10670.0 4.3513e-05
10690.0 4.3708e-05
10710.0 4.3898e-05
10730.0 4.4077e-05
10750.0 4.4247e-05
10770.0 4.4413e-05
10790.0 4.4571e-05
10810.0 4.4717e-05
10830.0 4.4854e-05
10850.0 4.4983e-05
10870.0 4.5089e-05
10890.0 4.5168e-05
10910.0 4.5213e-05
10930.0 4.5197e-05
10950.0 4.5082e-05
10970.0 4.4853e-05
10990.0 4.45e-05
11010.0 4.3218e-05
11030.0 4.2523e-05
11050.0 4.1698e-05
11070.0 4.0721e-05
11090.0 3.9547e-05
11110.0 3.8337e-05
11130.0 3.7074e-05
11150.0 3.5715e-05
11170.0 3.4322e-05
11190.0 3.2984e-05
11210.0 3.1618e-05
11230.0 3.024e-05
11250.0 2.8951e-05
11270.0 2.7739e-05
11290.0 2.6553e-05
11310.0 2.5456e-05
11330.0 2.4512e-05
11350.0 2.3637e-05
11370.0 2.284e-05
11390.0 2.2157e-05
11410.0 2.1558e-05
11430.0 2.0991e-05
11450.0 2.0486e-05
11470.0 2.0027e-05
11490.0 1.9573e-05
11510.0 1.9105e-05
11530.0 1.8644e-05
11550.0 1.8164e-05
11570.0 1.7638e-05
11590.0 1.7085e-05
11610.0 1.6521e-05
11630.0 1.5912e-05
11650.0 1.5271e-05
11670.0 1.465e-05
11690.0 1.4031e-05
11710.0 1.3407e-05
11730.0 1.2813e-05
11750.0 1.2273e-05
11770.0 1.1752e-05
11790.0 1.1271e-05
11810.0 1.0852e-05
11830.0 1.0478e-05
11850.0 1.0134e-05
11870.0 9.8419e-06
11890.0 9.592e-06
11910.0 9.3634e-06
11930.0 9.1545e-06
11950.0 8.9662e-06
11970.0 8.7834e-06
11990.0 8.5959e-06
12010.0 8.409e-06
12030.0 8.2195e-06
12050.0 8.0174e-06
12070.0 7.8038e-06
12090.0 7.596e-06
12110.0 7.3842e-06
12130.0 7.1703e-06
12150.0 6.9692e-06
12170.0 6.787e-06
12190.0 6.6168e-06
12210.0 6.4758e-06
12230.0 6.3703e-06
12250.0 6.2989e-06
12270.0 6.2668e-06
12290.0 6.2761e-06
12310.0 6.3224e-06
12330.0 6.4117e-06
12350.0 6.539e-06
12370.0 6.6928e-06
12390.0 6.8765e-06
12410.0 7.0964e-06
12430.0 7.3191e-06
12450.0 7.5477e-06
12470.0 7.7879e-06
12490.0 8.0238e-06
12510.0 8.2375e-06
12530.0 8.4432e-06
12550.0 8.6332e-06
12570.0 8.79e-06
12590.0 8.9167e-06
12610.0 9.0185e-06
12630.0 9.0855e-06
12650.0 9.114e-06
12670.0 9.113e-06
12690.0 9.0805e-06
12710.0 9.0181e-06
12730.0 8.9301e-06
12750.0 8.8144e-06
12770.0 8.6777e-06
12790.0 8.5257e-06
12810.0 8.3558e-06
12830.0 8.1686e-06
12850.0 7.9772e-06
12870.0 7.7782e-06
12890.0 7.566e-06
12910.0 7.35e-06
12930.0 7.1353e-06
12950.0 6.9096e-06
12970.0 6.6766e-06
12990.0 6.4509e-06
13010.0 6.2235e-06
13030.0 5.9893e-06
13050.0 5.7593e-06
13070.0 5.5393e-06
13090.0 5.3157e-06
13110.0 5.0965e-06
13130.0 4.892e-06
13150.0 4.6973e-06
13170.0 4.5072e-06
13190.0 4.3382e-06
13210.0 4.1903e-06
13230.0 4.0572e-06
13250.0 3.9448e-06
13270.0 3.8577e-06
13290.0 3.7921e-06
13310.0 3.7493e-06
13330.0 3.7315e-06
13350.0 3.7359e-06
13370.0 3.7631e-06
13390.0 3.8127e-06
13410.0 3.8759e-06
13430.0 3.9551e-06
13450.0 4.0497e-06
13470.0 4.1507e-06
13490.0 4.2541e-06
13510.0 4.3676e-06
13530.0 4.4789e-06
13550.0 4.5818e-06
13570.0 4.6805e-06
13590.0 4.7739e-06
13610.0 4.8537e-06
13630.0 4.9203e-06
13650.0 4.9784e-06
13670.0 5.0231e-06
13690.0 5.0533e-06
13710.0 5.0722e-06
13730.0 5.0798e-06
13750.0 5.0745e-06
13770.0 5.0592e-06
13790.0 5.0342e-06
13810.0 5.0001e-06
13830.0 4.9595e-06
13850.0 4.9109e-06
13870.0 4.855e-06
13890.0 4.7948e-06
13910.0 4.7302e-06
13930.0 4.6588e-06
13950.0 4.5838e-06
13970.0 4.5093e-06
13990.0 4.4306e-06
14010.0 4.3493e-06
14030.0 4.2701e-06
14050.0 4.1921e-06
14070.0 4.112e-06
14090.0 4.037e-06
14110.0 3.968e-06
14130.0 3.9028e-06
14150.0 3.8432e-06
14170.0 3.7936e-06
14190.0 3.7523e-06
14210.0 3.7191e-06
14230.0 3.6965e-06
14250.0 3.6841e-06
14270.0 3.6818e-06
14290.0 3.6905e-06
14310.0 3.7084e-06
14330.0 3.7353e-06
14350.0 3.772e-06
14370.0 3.8157e-06
14390.0 3.864e-06
14410.0 3.92e-06
14430.0 3.981e-06
14450.0 4.0433e-06
14470.0 4.1085e-06
14490.0 4.1793e-06
14510.0 4.2493e-06
14530.0 4.319e-06
14550.0 4.3933e-06
14570.0 4.4706e-06
14590.0 4.5479e-06
14610.0 4.6309e-06
14630.0 4.7227e-06
14650.0 4.8182e-06
14670.0 4.9194e-06
14690.0 5.0327e-06
14710.0 5.1573e-06
14730.0 5.2837e-06
14750.0 5.422e-06
14770.0 5.573e-06
14790.0 5.728e-06
14810.0 5.8855e-06
14830.0 6.058e-06
14850.0 6.2303e-06
14870.0 6.3961e-06
14890.0 6.5613e-06
14910.0 6.7235e-06
14930.0 6.8687e-06
14950.0 6.9962e-06
14970.0 7.1098e-06
14990.0 7.1999e-06
15010.0 7.2651e-06
15030.0 7.3105e-06
15050.0 7.3375e-06
15070.0 7.3483e-06
15090.0 7.3489e-06
15110.0 7.3425e-06
15130.0 7.3318e-06
15150.0 7.3197e-06
15170.0 7.3059e-06
15190.0 7.2914e-06
15210.0 7.2774e-06
15230.0 7.2635e-06
15250.0 7.249e-06
15270.0 7.2347e-06
15290.0 7.2214e-06
15310.0 7.2077e-06
15330.0 7.1937e-06
15350.0 7.1804e-06
15370.0 7.1673e-06
15390.0 7.1532e-06
15410.0 7.1397e-06
15430.0 7.1268e-06
15450.0 7.1134e-06
15470.0 7.0997e-06
15490.0 7.0869e-06
15510.0 7.0741e-06
15530.0 7.0606e-06
15550.0 7.0474e-06
15570.0 7.0349e-06
15590.0 7.0215e-06
15610.0 7.0077e-06
15630.0 6.995e-06
15650.0 6.9821e-06
15670.0 6.9686e-06
15690.0 6.9554e-06
15710.0 6.9429e-06
15730.0 6.9294e-06
15750.0 6.9158e-06
15770.0 6.9028e-06
15790.0 6.8897e-06
15810.0 6.8755e-06
15830.0 6.8621e-06
15850.0 6.8491e-06
15870.0 6.8353e-06
15890.0 6.8214e-06
15910.0 6.8082e-06
15930.0 6.7945e-06
15950.0 6.78e-06
15970.0 6.7661e-06
15990.0 6.7524e-06
16010.0 6.7379e-06
16030.0 6.7231e-06
16050.0 6.7094e-06
16070.0 6.695e-06
16090.0 6.68e-06
16110.0 6.6655e-06
16130.0 6.6513e-06
16150.0 6.6357e-06
16170.0 6.6203e-06
16190.0 6.6056e-06
16210.0 6.5903e-06
16230.0 6.5744e-06
16250.0 6.559e-06
16270.0 6.5439e-06
16290.0 6.5277e-06
16310.0 6.5115e-06
16330.0 6.4959e-06
16350.0 6.4797e-06
16370.0 6.4624e-06
16390.0 6.4462e-06
16410.0 6.4299e-06
16430.0 6.4127e-06
16450.0 6.3956e-06
16470.0 6.3792e-06
16490.0 6.3617e-06
16510.0 6.3438e-06
16530.0 6.3265e-06
16550.0 6.309e-06
16570.0 6.2906e-06
16590.0 6.2722e-06
16610.0 6.2547e-06
16630.0 6.2363e-06
16650.0 6.2174e-06
16670.0 6.1991e-06
16690.0 6.1807e-06
16710.0 6.1609e-06
16730.0 6.1418e-06
16750.0 6.1229e-06
16770.0 6.1033e-06
16790.0 6.0832e-06
16810.0 6.0639e-06
16830.0 6.0442e-06
16850.0 6.0238e-06
16870.0 6.0036e-06
16890.0 5.9837e-06
16910.0 5.9628e-06
16930.0 5.9415e-06
16950.0 5.9211e-06
16970.0 5.9004e-06
16990.0 5.8788e-06
17010.0 5.8576e-06
17030.0 5.8368e-06
17050.0 5.8149e-06
17070.0 5.7929e-06
17090.0 5.7714e-06
17110.0 5.7496e-06
17130.0 5.7267e-06
17150.0 5.7045e-06
17170.0 5.6826e-06
17190.0 5.6599e-06
17210.0 5.637e-06
17230.0 5.6148e-06
17250.0 5.5919e-06
17270.0 5.5682e-06
17290.0 5.5452e-06
17310.0 5.5223e-06
17330.0 5.4985e-06
17350.0 5.4745e-06
17370.0 5.4516e-06
17390.0 5.4279e-06
17410.0 5.4036e-06
17430.0 5.3799e-06
17450.0 5.3564e-06
17470.0 5.3315e-06
17490.0 5.3069e-06
17510.0 5.283e-06
17530.0 5.2585e-06
17550.0 5.2335e-06
17570.0 5.2091e-06
17590.0 5.1849e-06
17610.0 5.1596e-06
17630.0 5.1346e-06
17650.0 5.1101e-06
17670.0 5.085e-06
17690.0 5.0589e-06
17710.0 5.0341e-06
17730.0 5.0092e-06
17750.0 4.9835e-06
17770.0 4.958e-06
17790.0 4.9332e-06
17810.0 4.9074e-06
17830.0 4.8813e-06
17850.0 4.856e-06
17870.0 4.8305e-06
17890.0 4.8042e-06
17910.0 4.7782e-06
17930.0 4.753e-06
17950.0 4.727e-06
17970.0 4.7008e-06
17990.0 4.6752e-06
18010.0 4.6495e-06
18030.0 4.6228e-06
18050.0 4.5967e-06
18070.0 4.571e-06
18090.0 4.5448e-06
18110.0 4.5182e-06
18130.0 4.4925e-06
18150.0 4.4666e-06
18170.0 4.4401e-06
18190.0 4.4139e-06
18210.0 4.3882e-06
18230.0 4.3617e-06
18250.0 4.3349e-06
18270.0 4.3092e-06
18290.0 4.2831e-06
18310.0 4.2565e-06
18330.0 4.2305e-06
18350.0 4.2049e-06
18370.0 4.1783e-06
18390.0 4.1519e-06
18410.0 4.1262e-06
18430.0 4.1001e-06
18450.0 4.0733e-06
18470.0 4.0474e-06
18490.0 4.0218e-06
18510.0 3.9955e-06
18530.0 3.9694e-06
18550.0 3.9439e-06
18570.0 3.918e-06
18590.0 3.8915e-06
18610.0 3.8658e-06
18630.0 3.8402e-06
18650.0 3.8141e-06
18670.0 3.788e-06
18690.0 3.7629e-06
18710.0 3.7372e-06
18730.0 3.7113e-06
18750.0 3.6859e-06
18770.0 3.6609e-06
18790.0 3.6347e-06
18810.0 3.6091e-06
18830.0 3.5841e-06
18850.0 3.5588e-06
18870.0 3.5331e-06
18890.0 3.5082e-06
18910.0 3.4835e-06
18930.0 3.458e-06
18950.0 3.4329e-06
18970.0 3.4084e-06
18990.0 3.3834e-06
19010.0 3.3578e-06
19030.0 3.3335e-06
19050.0 3.3091e-06
19070.0 3.2842e-06
19090.0 3.2596e-06
19110.0 3.2357e-06
19130.0 3.211e-06
19150.0 3.1863e-06
19170.0 3.1623e-06
19190.0 3.1383e-06
19210.0 3.1138e-06
19230.0 3.0896e-06
19250.0 3.0662e-06
19270.0 3.0422e-06
19290.0 3.0182e-06
19310.0 2.9949e-06
19330.0 2.9715e-06
19350.0 2.9472e-06
19370.0 2.9238e-06
19390.0 2.9008e-06
19410.0 2.8773e-06
19430.0 2.8538e-06
19450.0 2.8311e-06
19470.0 2.8082e-06
19490.0 2.7849e-06
19510.0 2.7621e-06
19530.0 2.7397e-06
19550.0 2.7167e-06
19570.0 2.6936e-06
19590.0 2.6715e-06
19610.0 2.6492e-06
19630.0 2.6265e-06
19650.0 2.6044e-06
19670.0 2.5827e-06
19690.0 2.5602e-06
19710.0 2.538e-06
19730.0 2.5165e-06
19750.0 2.4947e-06
19770.0 2.4723e-06
19790.0 2.4509e-06
19810.0 2.4297e-06
19830.0 2.4079e-06
19850.0 2.3863e-06
19870.0 2.3651e-06
19890.0 2.3431e-06
19910.0 2.3198e-06
19930.0 2.296e-06
19950.0 2.2705e-06
19970.0 2.2414e-06
19990.0 2.2088e-06
20010.0 2.2175e-06
20030.0 2.1769e-06
20050.0 2.1316e-06
20070.0 2.0845e-06
20090.0 2.0355e-06
20110.0 1.9822e-06
20130.0 1.9298e-06
20150.0 1.8791e-06
20170.0 1.8279e-06
20190.0 1.7773e-06
20210.0 1.7302e-06
20230.0 1.685e-06
20250.0 1.6405e-06
20270.0 1.5996e-06
20290.0 1.5625e-06
20310.0 1.5276e-06
20330.0 1.4953e-06
20350.0 1.4685e-06
20370.0 1.4449e-06
20390.0 1.4244e-06
20410.0 1.4081e-06
20430.0 1.3957e-06
20450.0 1.3865e-06
20470.0 1.3809e-06
20490.0 1.3786e-06
20510.0 1.3793e-06
20530.0 1.3832e-06
20550.0 1.3894e-06
20570.0 1.3976e-06
20590.0 1.4082e-06
20610.0 1.4206e-06
20630.0 1.4338e-06
20650.0 1.4485e-06
20670.0 1.465e-06
20690.0 1.4815e-06
20710.0 1.4983e-06
20730.0 1.5161e-06
20750.0 1.5344e-06
20770.0 1.5519e-06
20790.0 1.57e-06
20810.0 1.5889e-06
20830.0 1.6073e-06
20850.0 1.6256e-06
20870.0 1.645e-06
20890.0 1.6646e-06
20910.0 1.6833e-06
20930.0 1.7027e-06
20950.0 1.7229e-06
20970.0 1.7426e-06
20990.0 1.762e-06
21010.0 1.7827e-06
21030.0 1.803e-06
21050.0 1.8224e-06
21070.0 1.842e-06
21090.0 1.8619e-06
21110.0 1.8801e-06
21130.0 1.8974e-06
21150.0 1.9146e-06
21170.0 1.9304e-06
21190.0 1.9444e-06
21210.0 1.9577e-06
21230.0 1.9697e-06
21250.0 1.9793e-06
21270.0 1.9871e-06
21290.0 1.9932e-06
21310.0 1.997e-06
21330.0 1.9981e-06
21350.0 1.9969e-06
21370.0 1.9929e-06
21390.0 1.9862e-06
21410.0 1.9766e-06
21430.0 1.9632e-06
21450.0 1.947e-06
21470.0 1.9281e-06
21490.0 1.9058e-06
21510.0 1.8802e-06
21530.0 1.8529e-06
21550.0 1.8232e-06
21570.0 1.7904e-06
21590.0 1.7567e-06
21610.0 1.7229e-06
21630.0 1.6876e-06
21650.0 1.6514e-06
21670.0 1.6183e-06
21690.0 1.5859e-06
21710.0 1.5546e-06
21730.0 1.5264e-06
21750.0 1.5018e-06
21770.0 1.4792e-06
21790.0 1.4605e-06
21810.0 1.4463e-06
21830.0 1.4359e-06
21850.0 1.4296e-06
21870.0 1.4276e-06
21890.0 1.4295e-06
21910.0 1.4355e-06
21930.0 1.4454e-06
21950.0 1.4584e-06
21970.0 1.4748e-06
21990.0 1.4953e-06
22010.0 1.5176e-06
22030.0 1.5419e-06
22050.0 1.5691e-06
22070.0 1.5981e-06
22090.0 1.627e-06
22110.0 1.6576e-06
22130.0 1.6896e-06
22150.0 1.7209e-06
22170.0 1.7516e-06
22190.0 1.7831e-06
22210.0 1.8136e-06
22230.0 1.8412e-06
22250.0 1.8678e-06
22270.0 1.893e-06
22290.0 1.9149e-06
22310.0 1.934e-06
22330.0 1.9511e-06
22350.0 1.9646e-06
22370.0 1.9743e-06
22390.0 1.9806e-06
22410.0 1.9832e-06
22430.0 1.9817e-06
22450.0 1.9764e-06
22470.0 1.967e-06
22490.0 1.9537e-06
22510.0 1.937e-06
22530.0 1.9158e-06
22550.0 1.8903e-06
22570.0 1.8621e-06
22590.0 1.8306e-06
22610.0 1.7946e-06
22630.0 1.7558e-06
