#lamb flux
1010.0 9.807e-08
1030.0 1.0861e-07
1050.0 1.2074e-07
1070.0 1.3439e-07
1090.0 1.4989e-07
1110.0 1.6579e-07
1130.0 1.818e-07
1150.0 1.9857e-07
1170.0 2.1586e-07
1190.0 2.3226e-07
1210.0 2.4888e-07
1230.0 2.6605e-07
1250.0 2.8288e-07
1270.0 2.9922e-07
1290.0 3.1648e-07
1310.0 3.3374e-07
1330.0 3.5028e-07
1350.0 3.6701e-07
1370.0 3.8429e-07
1390.0 4.0112e-07
1410.0 4.1746e-07
1430.0 4.3454e-07
1450.0 4.5161e-07
1470.0 4.6811e-07
1490.0 4.8479e-07
1510.0 5.024e-07
1530.0 5.1908e-07
1550.0 5.3553e-07
1570.0 5.5254e-07
1590.0 5.6956e-07
1610.0 5.8581e-07
1630.0 6.0255e-07
1650.0 6.1973e-07
1670.0 6.3632e-07
1690.0 6.5268e-07
1710.0 6.6965e-07
1730.0 6.8669e-07
1750.0 7.0267e-07
1770.0 7.191e-07
1790.0 7.3581e-07
1810.0 7.5193e-07
1830.0 7.677e-07
1850.0 7.8441e-07
1870.0 8.0058e-07
1890.0 8.161e-07
1910.0 8.3184e-07
1930.0 8.4787e-07
1950.0 8.6299e-07
1970.0 8.7777e-07
1990.0 8.9298e-07
2010.0 9.0773e-07
2030.0 9.2169e-07
2050.0 9.3589e-07
2070.0 9.5025e-07
2090.0 9.6337e-07
2110.0 9.7614e-07
2130.0 9.8904e-07
2150.0 1.0013e-06
2170.0 1.0124e-06
2190.0 1.0237e-06
2210.0 1.0347e-06
2230.0 1.0445e-06
2250.0 1.0538e-06
2270.0 1.0632e-06
2290.0 1.0716e-06
2310.0 1.0788e-06
2330.0 1.0859e-06
2350.0 1.0927e-06
2370.0 1.0986e-06
2390.0 1.1048e-06
2410.0 1.1125e-06
2430.0 1.1214e-06
2450.0 1.1324e-06
2470.0 1.1479e-06
2490.0 1.1687e-06
2510.0 1.1929e-06
2530.0 1.2243e-06
2550.0 1.2677e-06
2570.0 1.3266e-06
2590.0 1.4088e-06
2610.0 1.5386e-06
2630.0 1.7252e-06
2650.0 1.9639e-06
2670.0 2.2634e-06
2690.0 2.6175e-06
2710.0 2.9763e-06
2730.0 3.3105e-06
2750.0 3.6203e-06
2770.0 3.8671e-06
2790.0 4.0395e-06
2810.0 4.1554e-06
2830.0 4.2261e-06
2850.0 4.2504e-06
2870.0 4.2493e-06
2890.0 4.2342e-06
2910.0 4.2092e-06
2930.0 4.1776e-06
2950.0 4.1456e-06
2970.0 4.1139e-06
2990.0 4.0815e-06
3010.0 0.00012257
3030.0 0.00012169
3050.0 0.00012082
3070.0 0.00011989
3090.0 0.00011891
3110.0 0.00011776
3130.0 0.00011631
3150.0 0.00011445
3170.0 0.00011198
3190.0 0.00010895
3210.0 0.00010556
3230.0 0.00010195
3250.0 9.8374e-05
3270.0 9.5712e-05
3290.0 9.3782e-05
3310.0 9.3389e-05
3330.0 9.4099e-05
3350.0 9.5848e-05
3370.0 9.8635e-05
3390.0 0.00010233
3410.0 0.00010647
3430.0 0.0001112
3450.0 0.00011673
3470.0 0.00012283
3490.0 0.00012938
3510.0 0.00013685
3530.0 0.000145
3550.0 0.00015372
3570.0 0.00016334
3590.0 0.00017419
3610.0 0.00018627
3630.0 0.00019851
3650.0 0.00021152
3670.0 0.00022338
3690.0 0.00023231
3710.0 0.00023693
3730.0 0.00023466
3750.0 0.00022542
3770.0 0.00022575
3790.0 0.00021579
3810.0 0.00016762
3830.0 0.0001546
3850.0 0.00020626
3870.0 0.00018052
3890.0 0.00014778
3910.0 0.00017282
3930.0 0.00022749
3950.0 0.00025963
3970.0 0.0003014
3990.0 0.00024156
4010.0 0.00037394
4030.0 0.0003435
4050.0 0.00032326
4070.0 0.00036779
4090.0 0.00035316
4110.0 0.00035103
4130.0 0.00043274
4150.0 0.00055056
4170.0 0.00045134
4190.0 0.00040336
4210.0 0.00044514
4230.0 0.00055075
4250.0 0.00064145
4270.0 0.00069212
4290.0 0.00063514
4310.0 0.00059151
4330.0 0.00060028
4350.0 0.00076294
4370.0 0.00091702
4390.0 0.00074774
4410.0 0.00045614
4430.0 0.00033693
4450.0 0.00030396
4470.0 0.00022981
4490.0 0.00034766
4510.0 0.00062364
4530.0 0.00074781
4550.0 0.00074279
4570.0 0.0007054
4590.0 0.00078161
4610.0 0.0014125
4630.0 0.0019289
4650.0 0.0018286
4670.0 0.0016293
4690.0 0.001714
4710.0 0.0018096
4730.0 0.0014626
4750.0 0.0009436
4770.0 0.00068253
4790.0 0.00074766
4810.0 0.00076353
4830.0 0.00075054
4850.0 0.00082646
4870.0 0.0010928
4890.0 0.0012707
4910.0 0.00098953
4930.0 0.00093695
4950.0 0.0010746
4970.0 0.0014499
4990.0 0.0019452
5010.0 0.0022067
5030.0 0.0017513
5050.0 0.0010554
5070.0 0.00074943
5090.0 0.00059607
5110.0 0.00057158
5130.0 0.00066376
5150.0 0.00064597
5170.0 0.00061551
5190.0 0.00056314
5210.0 0.00059799
5230.0 0.00072123
5250.0 0.00083144
5270.0 0.00079793
5290.0 0.00088003
5310.0 0.0011412
5330.0 0.0011952
5350.0 0.0011788
5370.0 0.0013294
5390.0 0.0016229
5410.0 0.0014049
5430.0 0.0010779
5450.0 0.0010697
5470.0 0.0012509
5490.0 0.0015917
5510.0 0.0019727
5530.0 0.0022708
5550.0 0.0020626
5570.0 0.0018417
5590.0 0.0015306
5610.0 0.0015358
5630.0 0.0016821
5650.0 0.0015924
5670.0 0.0014842
5690.0 0.0012253
5710.0 0.001241
5730.0 0.0012007
5750.0 0.00066345
5770.0 0.0005021
5790.0 0.0006142
5810.0 0.00068113
5830.0 0.00099196
5850.0 0.0012519
5870.0 0.0013194
5890.0 0.001247
5910.0 0.0012025
5930.0 0.0011755
5950.0 0.0012217
5970.0 0.0014823
5990.0 0.001241
6010.0 0.00096296
6030.0 0.00078306
6050.0 0.00069306
6070.0 0.00080933
6090.0 0.00092287
6110.0 0.00095146
6130.0 0.00086963
6150.0 0.00070336
6170.0 0.00061144
6190.0 0.00076163
6210.0 0.0011325
6230.0 0.0015777
6250.0 0.0016576
6270.0 0.001298
6290.0 0.0011012
6310.0 0.00084657
6330.0 0.00062763
6350.0 0.00060573
6370.0 0.00063891
6390.0 0.00077243
6410.0 0.00097304
6430.0 0.0011661
6450.0 0.0014286
6470.0 0.0015529
6490.0 0.0018838
6510.0 0.0021147
6530.0 0.0020984
6550.0 0.001931
6570.0 0.0016363
6590.0 0.0015859
6610.0 0.00133
6630.0 0.0013458
6650.0 0.0012825
6670.0 0.0011715
6690.0 0.00097387
6710.0 0.00092718
6730.0 0.00052991
6750.0 0.00060536
6770.0 0.00082915
6790.0 0.0010709
6810.0 0.00082826
6830.0 0.00084827
6850.0 0.00074199
6870.0 0.00070546
6890.0 0.0006228
6910.0 0.00069975
6930.0 0.00065476
6950.0 0.00075951
6970.0 0.00077279
6990.0 0.00085761
7010.0 0.00086152
7030.0 0.00092243
7050.0 0.00080993
7070.0 0.00070815
7090.0 0.00072607
7110.0 0.0007363
7130.0 0.0008223
7150.0 0.00092736
7170.0 0.0010263
7190.0 0.0010671
7210.0 0.00095564
7230.0 0.00096738
7250.0 0.0010612
7270.0 0.0011777
7290.0 0.0014003
7310.0 0.0014304
7330.0 0.0012991
7350.0 0.0011576
7370.0 0.0008956
7390.0 0.00093394
7410.0 0.0011263
7430.0 0.0012697
7450.0 0.0013665
7470.0 0.0013093
7490.0 0.001185
7510.0 0.0017422
7530.0 0.0015653
7550.0 0.0014188
7570.0 0.00097814
7590.0 0.00048405
7610.0 0.00036681
7630.0 0.00050087
7650.0 0.0006464
7670.0 0.00096264
7690.0 0.0010863
7710.0 0.0010101
7730.0 0.00099799
7750.0 0.0012439
7770.0 0.0012647
7790.0 0.0011737
7810.0 0.0010007
7830.0 0.0010524
7850.0 0.001106
7870.0 0.0010689
7890.0 0.0008603
7910.0 0.00060246
7930.0 0.00059315
7950.0 0.000533
7970.0 0.00046406
7990.0 0.00043156
8010.0 0.00040101
8030.0 0.0003841
8050.0 0.00040298
8070.0 0.00042395
8090.0 0.00047796
8110.0 0.00044768
8130.0 0.00031805
8150.0 0.0003103
8170.0 0.00022746
8190.0 0.00018886
8210.0 0.00028667
8230.0 0.00032681
8250.0 0.00020977
8270.0 0.00017949
8290.0 0.00020793
8310.0 0.0001613
8330.0 0.00010077
8350.0 7.8498e-05
8370.0 4.4307e-05
8390.0 8.8398e-05
8410.0 0.00010749
8430.0 0.00013354
8450.0 0.00014933
8470.0 0.00020954
8490.0 0.00018278
8510.0 0.0001585
8530.0 0.00011858
8550.0 0.00023855
8570.0 0.00034277
8590.0 0.00029089
8610.0 0.00039717
8630.0 0.00044227
8650.0 0.00033024
8670.0 0.00039933
8690.0 0.00051384
8710.0 0.00045835
8730.0 0.00047273
8750.0 0.00039601
8770.0 0.00036437
8790.0 0.00038776
8810.0 0.00039968
8830.0 0.00026415
8850.0 0.00016509
8870.0 0.00012929
8890.0 0.00019318
8910.0 0.00026365
8930.0 0.00032383
8950.0 0.00036745
8970.0 0.00036109
8990.0 0.00030061
9010.0 0.00022798
9030.0 0.00019746
9050.0 0.00020335
9070.0 0.00020884
9090.0 0.00021315
9110.0 0.00021805
9130.0 0.00022168
9150.0 0.00022439
9170.0 0.00022727
9190.0 0.00023036
9210.0 0.00023359
9230.0 0.00023701
9250.0 0.00024051
9270.0 0.00024413
9290.0 0.00024785
9310.0 0.00025162
9330.0 0.00025546
9350.0 0.00025942
9370.0 0.00026343
9390.0 0.0002675
9410.0 0.00027167
9430.0 0.00027595
9450.0 0.00028025
9470.0 0.00028463
9490.0 0.00028912
9510.0 0.00029367
9530.0 0.00029827
9550.0 0.00030299
9570.0 0.00030779
9590.0 0.00031263
9610.0 0.00031755
9630.0 0.00032259
9650.0 0.00032767
9670.0 0.00033279
9690.0 0.00033802
9710.0 0.00034333
9730.0 0.00034866
9750.0 0.00035408
9770.0 0.00035962
9790.0 0.00036517
9810.0 0.00037077
9830.0 0.00037647
9850.0 0.00038223
9870.0 0.000388
9890.0 0.00039384
9910.0 0.00039977
9930.0 0.00040572
9950.0 0.0004117
9970.0 0.00041777
9990.0 0.00042388
10010.0 0.00039196
10030.0 0.00039746
10050.0 0.00040301
10070.0 0.00040851
10090.0 0.00041409
10110.0 0.00041974
10130.0 0.00042539
10150.0 0.00043102
10170.0 0.00043666
10190.0 0.00044235
10210.0 0.00044799
10230.0 0.00045362
10250.0 0.00045928
10270.0 0.00046492
10290.0 0.00047051
10310.0 0.00047612
10330.0 0.00048174
10350.0 0.00048728
10370.0 0.0004928
10390.0 0.00049831
10410.0 0.00050378
10430.0 0.00050917
10450.0 0.00051455
10470.0 0.00051989
10490.0 0.00052515
10510.0 0.00053035
10530.0 0.00053553
10550.0 0.00054063
10570.0 0.00054563
10590.0 0.00055058
10610.0 0.00055547
10630.0 0.00056024
10650.0 0.00056493
10670.0 0.00056958
10690.0 0.00057412
10710.0 0.00057854
10730.0 0.00058289
10750.0 0.00058717
10770.0 0.00059128
10790.0 0.0005953
10810.0 0.00059923
10830.0 0.00060301
10850.0 0.00060659
10870.0 0.00060997
10890.0 0.00061294
10910.0 0.00061531
10930.0 0.00061676
10950.0 0.00061679
10970.0 0.000615
10990.0 0.00061123
11010.0 0.00062029
11030.0 0.00061094
11050.0 0.00059939
11070.0 0.0005854
11090.0 0.00056845
11110.0 0.00055084
11130.0 0.00053243
11150.0 0.00051259
11170.0 0.00049219
11190.0 0.00047248
11210.0 0.00045226
11230.0 0.00043169
11250.0 0.00041221
11270.0 0.00039366
11290.0 0.00037526
11310.0 0.00035798
11330.0 0.00034285
11350.0 0.00032861
11370.0 0.00031548
11390.0 0.00030406
11410.0 0.00029398
11430.0 0.00028449
11450.0 0.0002761
11470.0 0.00026863
11490.0 0.00026145
11510.0 0.00025433
11530.0 0.00024753
11550.0 0.00024065
11570.0 0.00023328
11590.0 0.00022565
11610.0 0.00021791
11630.0 0.00020959
11650.0 0.00020079
11670.0 0.0001922
11690.0 0.00018358
11710.0 0.00017478
11730.0 0.00016631
11750.0 0.00015849
11770.0 0.00015086
11790.0 0.00014371
11810.0 0.00013738
11830.0 0.00013168
11850.0 0.00012637
11870.0 0.00012184
11890.0 0.00011796
11910.0 0.00011445
11930.0 0.00011132
11950.0 0.00010857
11970.0 0.00010601
11990.0 0.0001035
12010.0 0.0001011
12030.0 9.8732e-05
12050.0 9.6274e-05
12070.0 9.3717e-05
12090.0 9.1229e-05
12110.0 8.8694e-05
12130.0 8.6121e-05
12150.0 8.3671e-05
12170.0 8.1412e-05
12190.0 7.9266e-05
12210.0 7.7436e-05
12230.0 7.6002e-05
12250.0 7.4957e-05
12270.0 7.4372e-05
12290.0 7.4284e-05
12310.0 7.4654e-05
12330.0 7.5559e-05
12350.0 7.6951e-05
12370.0 7.8699e-05
12390.0 8.0851e-05
12410.0 8.3499e-05
12430.0 8.6226e-05
12450.0 8.9074e-05
12470.0 9.2127e-05
12490.0 9.5181e-05
12510.0 9.7996e-05
12530.0 0.00010077
12550.0 0.0001034
12570.0 0.00010563
12590.0 0.00010751
12610.0 0.00010911
12630.0 0.00011027
12650.0 0.0001109
12670.0 0.00011114
12690.0 0.00011095
12710.0 0.00011032
12730.0 0.00010929
12750.0 0.00010786
12770.0 0.00010608
12790.0 0.00010403
12810.0 0.0001017
12830.0 9.9087e-05
12850.0 9.6391e-05
12870.0 9.3578e-05
12890.0 9.0581e-05
12910.0 8.7548e-05
12930.0 8.4556e-05
12950.0 8.1449e-05
12970.0 7.8285e-05
12990.0 7.5261e-05
13010.0 7.2258e-05
13030.0 6.9207e-05
13050.0 6.6244e-05
13070.0 6.3431e-05
13090.0 6.059e-05
13110.0 5.7812e-05
13130.0 5.5215e-05
13150.0 5.273e-05
13170.0 5.0278e-05
13190.0 4.8063e-05
13210.0 4.6082e-05
13230.0 4.4245e-05
13250.0 4.2627e-05
13270.0 4.13e-05
13290.0 4.0209e-05
13310.0 3.9367e-05
13330.0 3.8833e-05
13350.0 3.8581e-05
13370.0 3.8614e-05
13390.0 3.8947e-05
13410.0 3.9502e-05
13430.0 4.03e-05
13450.0 4.1344e-05
13470.0 4.2537e-05
13490.0 4.3824e-05
13510.0 4.5309e-05
13530.0 4.6833e-05
13550.0 4.8303e-05
13570.0 4.9769e-05
13590.0 5.1216e-05
13610.0 5.251e-05
13630.0 5.3646e-05
13650.0 5.4694e-05
13670.0 5.5565e-05
13690.0 5.6234e-05
13710.0 5.6745e-05
13730.0 5.7104e-05
13750.0 5.7259e-05
13770.0 5.7257e-05
13790.0 5.711e-05
13810.0 5.6818e-05
13830.0 5.6409e-05
13850.0 5.5878e-05
13870.0 5.5228e-05
13890.0 5.4498e-05
13910.0 5.3693e-05
13930.0 5.2782e-05
13950.0 5.1807e-05
13970.0 5.0825e-05
13990.0 4.9775e-05
14010.0 4.8679e-05
14030.0 4.7599e-05
14050.0 4.6526e-05
14070.0 4.5411e-05
14090.0 4.4352e-05
14110.0 4.3366e-05
14130.0 4.2418e-05
14150.0 4.1532e-05
14170.0 4.0777e-05
14190.0 4.0124e-05
14210.0 3.957e-05
14230.0 3.9156e-05
14250.0 3.8883e-05
14270.0 3.8741e-05
14290.0 3.8751e-05
14310.0 3.8899e-05
14330.0 3.918e-05
14350.0 3.9605e-05
14370.0 4.0143e-05
14390.0 4.0765e-05
14410.0 4.151e-05
14430.0 4.2344e-05
14450.0 4.3214e-05
14470.0 4.4138e-05
14490.0 4.5149e-05
14510.0 4.6149e-05
14530.0 4.7137e-05
14550.0 4.8167e-05
14570.0 4.9207e-05
14590.0 5.0209e-05
14610.0 5.1235e-05
14630.0 5.2313e-05
14650.0 5.3381e-05
14670.0 5.4464e-05
14690.0 5.5634e-05
14710.0 5.6888e-05
14730.0 5.8149e-05
14750.0 5.9527e-05
14770.0 6.1049e-05
14790.0 6.2644e-05
14810.0 6.4311e-05
14830.0 6.6201e-05
14850.0 6.8172e-05
14870.0 7.0153e-05
14890.0 7.2216e-05
14910.0 7.4337e-05
14930.0 7.6327e-05
14950.0 7.8152e-05
14970.0 7.9851e-05
14990.0 8.1267e-05
15010.0 8.2354e-05
15030.0 8.3171e-05
15050.0 8.3731e-05
15070.0 8.4043e-05
15090.0 8.4203e-05
15110.0 8.4256e-05
15130.0 8.4242e-05
15150.0 8.4201e-05
15170.0 8.4138e-05
15190.0 8.4064e-05
15210.0 8.3995e-05
15230.0 8.3928e-05
15250.0 8.3854e-05
15270.0 8.3784e-05
15290.0 8.3725e-05
15310.0 8.3661e-05
15330.0 8.3595e-05
15350.0 8.3538e-05
15370.0 8.3483e-05
15390.0 8.3417e-05
15410.0 8.3359e-05
15430.0 8.3307e-05
15450.0 8.3251e-05
15470.0 8.319e-05
15490.0 8.3141e-05
15510.0 8.3091e-05
15530.0 8.3035e-05
15550.0 8.2982e-05
15570.0 8.2936e-05
15590.0 8.2881e-05
15610.0 8.2823e-05
15630.0 8.2776e-05
15650.0 8.2727e-05
15670.0 8.2671e-05
15690.0 8.2619e-05
15710.0 8.2573e-05
15730.0 8.2518e-05
15750.0 8.2462e-05
15770.0 8.2412e-05
15790.0 8.236e-05
15810.0 8.2297e-05
15830.0 8.2242e-05
15850.0 8.2192e-05
15870.0 8.2132e-05
15890.0 8.2071e-05
15910.0 8.2018e-05
15930.0 8.1959e-05
15950.0 8.189e-05
15970.0 8.1829e-05
15990.0 8.1769e-05
16010.0 8.17e-05
16030.0 8.1627e-05
16050.0 8.1565e-05
16070.0 8.1497e-05
16090.0 8.1421e-05
16110.0 8.1349e-05
16130.0 8.1281e-05
16150.0 8.1196e-05
16170.0 8.1114e-05
16190.0 8.1038e-05
16210.0 8.0955e-05
16230.0 8.0865e-05
16250.0 8.0781e-05
16270.0 8.0698e-05
16290.0 8.0602e-05
16310.0 8.0507e-05
16330.0 8.0417e-05
16350.0 8.0319e-05
16370.0 8.0209e-05
16390.0 8.0111e-05
16410.0 8.001e-05
16430.0 7.9899e-05
16450.0 7.9787e-05
16470.0 7.9683e-05
16490.0 7.9566e-05
16510.0 7.9443e-05
16530.0 7.9326e-05
16550.0 7.9207e-05
16570.0 7.9075e-05
16590.0 7.8944e-05
16610.0 7.8821e-05
16630.0 7.8687e-05
16650.0 7.8547e-05
16670.0 7.8413e-05
16690.0 7.8276e-05
16710.0 7.8123e-05
16730.0 7.7975e-05
16750.0 7.7831e-05
16770.0 7.7676e-05
16790.0 7.7515e-05
16810.0 7.7362e-05
16830.0 7.7205e-05
16850.0 7.7036e-05
16870.0 7.687e-05
16890.0 7.6707e-05
16910.0 7.653e-05
16930.0 7.6348e-05
16950.0 7.6176e-05
16970.0 7.5997e-05
16990.0 7.5808e-05
17010.0 7.5623e-05
17030.0 7.5441e-05
17050.0 7.5245e-05
17070.0 7.5047e-05
17090.0 7.4854e-05
17110.0 7.4656e-05
17130.0 7.4444e-05
17150.0 7.424e-05
17170.0 7.4037e-05
17190.0 7.3824e-05
17210.0 7.3607e-05
17230.0 7.3398e-05
17250.0 7.318e-05
17270.0 7.2951e-05
17290.0 7.2728e-05
17310.0 7.2506e-05
17330.0 7.2273e-05
17350.0 7.2035e-05
17370.0 7.1809e-05
17390.0 7.1573e-05
17410.0 7.133e-05
17430.0 7.1091e-05
17450.0 7.0854e-05
17470.0 7.0599e-05
17490.0 7.0347e-05
17510.0 7.0102e-05
17530.0 6.9849e-05
17550.0 6.9588e-05
17570.0 6.9334e-05
17590.0 6.908e-05
17610.0 6.8813e-05
17630.0 6.8548e-05
17650.0 6.8288e-05
17670.0 6.802e-05
17690.0 6.7739e-05
17710.0 6.7473e-05
17730.0 6.7203e-05
17750.0 6.6923e-05
17770.0 6.6645e-05
17790.0 6.6374e-05
17810.0 6.609e-05
17830.0 6.5802e-05
17850.0 6.5521e-05
17870.0 6.5239e-05
17890.0 6.4944e-05
17910.0 6.4653e-05
17930.0 6.437e-05
17950.0 6.4077e-05
17970.0 6.378e-05
17990.0 6.349e-05
18010.0 6.3198e-05
18030.0 6.2891e-05
18050.0 6.2592e-05
18070.0 6.2297e-05
18090.0 6.1994e-05
18110.0 6.1686e-05
18130.0 6.1389e-05
18150.0 6.1087e-05
18170.0 6.0777e-05
18190.0 6.0471e-05
18210.0 6.0169e-05
18230.0 5.9856e-05
18250.0 5.954e-05
18270.0 5.9236e-05
18290.0 5.8927e-05
18310.0 5.861e-05
18330.0 5.83e-05
18350.0 5.7994e-05
18370.0 5.7675e-05
18390.0 5.7358e-05
18410.0 5.7048e-05
18430.0 5.6734e-05
18450.0 5.6409e-05
18470.0 5.6095e-05
18490.0 5.5784e-05
18510.0 5.5464e-05
18530.0 5.5145e-05
18550.0 5.4834e-05
18570.0 5.4516e-05
18590.0 5.4191e-05
18610.0 5.3874e-05
18630.0 5.356e-05
18650.0 5.3237e-05
18670.0 5.2914e-05
18690.0 5.2603e-05
18710.0 5.2284e-05
18730.0 5.1961e-05
18750.0 5.1645e-05
18770.0 5.1333e-05
18790.0 5.1005e-05
18810.0 5.0685e-05
18830.0 5.0372e-05
18850.0 5.0053e-05
18870.0 4.973e-05
18890.0 4.9417e-05
18910.0 4.9104e-05
18930.0 4.8782e-05
18950.0 4.8465e-05
18970.0 4.8154e-05
18990.0 4.7837e-05
19010.0 4.7511e-05
19030.0 4.7202e-05
19050.0 4.6891e-05
19070.0 4.6572e-05
19090.0 4.6259e-05
19110.0 4.5953e-05
19130.0 4.5637e-05
19150.0 4.532e-05
19170.0 4.5012e-05
19190.0 4.4704e-05
19210.0 4.4388e-05
19230.0 4.4076e-05
19250.0 4.3775e-05
19270.0 4.3465e-05
19290.0 4.3155e-05
19310.0 4.2853e-05
19330.0 4.255e-05
19350.0 4.2236e-05
19370.0 4.1932e-05
19390.0 4.1633e-05
19410.0 4.1328e-05
19430.0 4.1022e-05
19450.0 4.0727e-05
19470.0 4.0429e-05
19490.0 4.0125e-05
19510.0 3.9828e-05
19530.0 3.9536e-05
19550.0 3.9234e-05
19570.0 3.8933e-05
19590.0 3.8644e-05
19610.0 3.8352e-05
19630.0 3.8055e-05
19650.0 3.7765e-05
19670.0 3.748e-05
19690.0 3.7186e-05
19710.0 3.6895e-05
19730.0 3.6611e-05
19750.0 3.6325e-05
19770.0 3.6032e-05
19790.0 3.575e-05
19810.0 3.5471e-05
19830.0 3.5184e-05
19850.0 3.4899e-05
19870.0 3.462e-05
19890.0 3.4328e-05
19910.0 3.4019e-05
19930.0 3.3701e-05
19950.0 3.3357e-05
19970.0 3.2961e-05
19990.0 3.2512e-05
20010.0 3.1582e-05
20030.0 3.1026e-05
20050.0 3.04e-05
20070.0 2.9741e-05
20090.0 2.9049e-05
20110.0 2.8287e-05
20130.0 2.7529e-05
20150.0 2.6789e-05
20170.0 2.6033e-05
20190.0 2.5277e-05
20210.0 2.4569e-05
20230.0 2.3882e-05
20250.0 2.32e-05
20270.0 2.2567e-05
20290.0 2.1988e-05
20310.0 2.1437e-05
20330.0 2.092e-05
20350.0 2.0483e-05
20370.0 2.0091e-05
20390.0 1.974e-05
20410.0 1.9449e-05
20430.0 1.9215e-05
20450.0 1.9021e-05
20470.0 1.8879e-05
20490.0 1.8786e-05
20510.0 1.8736e-05
20530.0 1.8727e-05
20550.0 1.8757e-05
20570.0 1.8817e-05
20590.0 1.8911e-05
20610.0 1.9034e-05
20630.0 1.9174e-05
20650.0 1.9337e-05
20670.0 1.9529e-05
20690.0 1.9727e-05
20710.0 1.9932e-05
20730.0 2.0155e-05
20750.0 2.0387e-05
20770.0 2.0613e-05
20790.0 2.0848e-05
20810.0 2.1095e-05
20830.0 2.1336e-05
20850.0 2.1574e-05
20870.0 2.1826e-05
20890.0 2.208e-05
20910.0 2.2319e-05
20930.0 2.2565e-05
20950.0 2.2818e-05
20970.0 2.3062e-05
20990.0 2.33e-05
21010.0 2.355e-05
21030.0 2.3794e-05
21050.0 2.4025e-05
21070.0 2.4256e-05
21090.0 2.4491e-05
21110.0 2.4703e-05
21130.0 2.4904e-05
21150.0 2.5103e-05
21170.0 2.5286e-05
21190.0 2.5447e-05
21210.0 2.5598e-05
21230.0 2.5732e-05
21250.0 2.5837e-05
21270.0 2.5918e-05
21290.0 2.5974e-05
21310.0 2.5997e-05
21330.0 2.5986e-05
21350.0 2.594e-05
21370.0 2.5854e-05
21390.0 2.5729e-05
21410.0 2.5563e-05
21430.0 2.5344e-05
21450.0 2.5084e-05
21470.0 2.4789e-05
21490.0 2.4445e-05
21510.0 2.4057e-05
21530.0 2.365e-05
21550.0 2.3212e-05
21570.0 2.2735e-05
21590.0 2.2251e-05
21610.0 2.177e-05
21630.0 2.1275e-05
21650.0 2.0776e-05
21670.0 2.0325e-05
21690.0 1.9892e-05
21710.0 1.948e-05
21730.0 1.9117e-05
21750.0 1.8807e-05
21770.0 1.8531e-05
21790.0 1.8315e-05
21810.0 1.8161e-05
21830.0 1.8061e-05
21850.0 1.8019e-05
21870.0 1.8036e-05
21890.0 1.8102e-05
21910.0 1.8223e-05
21930.0 1.8394e-05
21950.0 1.86e-05
21970.0 1.8848e-05
21990.0 1.9146e-05
22010.0 1.946e-05
22030.0 1.9792e-05
22050.0 2.0157e-05
22070.0 2.0539e-05
22090.0 2.0911e-05
22110.0 2.13e-05
22130.0 2.1702e-05
22150.0 2.2088e-05
22170.0 2.2461e-05
22190.0 2.2843e-05
22210.0 2.3207e-05
22230.0 2.3534e-05
22250.0 2.3848e-05
22270.0 2.4145e-05
22290.0 2.4402e-05
22310.0 2.4627e-05
22330.0 2.483e-05
22350.0 2.4991e-05
22370.0 2.5109e-05
22390.0 2.519e-05
22410.0 2.5228e-05
22430.0 2.5219e-05
22450.0 2.5167e-05
22470.0 2.5067e-05
22490.0 2.492e-05
22510.0 2.4732e-05
22530.0 2.4489e-05
22550.0 2.4193e-05
22570.0 2.3863e-05
22590.0 2.3489e-05
22610.0 2.3059e-05
22630.0 2.2591e-05
22650.0 2.2106e-05
22670.0 2.1569e-05
22690.0 2.0994e-05
22710.0 2.041e-05
