#lamb flux
1010.0 1.1141e-06
1030.0 1.2347e-06
1050.0 1.3734e-06
1070.0 1.5296e-06
1090.0 1.707e-06
1110.0 1.889e-06
1130.0 2.0721e-06
1150.0 2.264e-06
1170.0 2.462e-06
1190.0 2.6497e-06
1210.0 2.8401e-06
1230.0 3.0368e-06
1250.0 3.2295e-06
1270.0 3.4167e-06
1290.0 3.6146e-06
1310.0 3.8124e-06
1330.0 4.0021e-06
1350.0 4.194e-06
1370.0 4.3921e-06
1390.0 4.5854e-06
1410.0 4.7729e-06
1430.0 4.969e-06
1450.0 5.1652e-06
1470.0 5.3547e-06
1490.0 5.5464e-06
1510.0 5.7488e-06
1530.0 5.9407e-06
1550.0 6.1299e-06
1570.0 6.3257e-06
1590.0 6.5216e-06
1610.0 6.7087e-06
1630.0 6.9016e-06
1650.0 7.0993e-06
1670.0 7.2905e-06
1690.0 7.479e-06
1710.0 7.6745e-06
1730.0 7.8709e-06
1750.0 8.0551e-06
1770.0 8.2444e-06
1790.0 8.437e-06
1810.0 8.6228e-06
1830.0 8.8046e-06
1850.0 8.9971e-06
1870.0 9.1835e-06
1890.0 9.3625e-06
1910.0 9.544e-06
1930.0 9.7288e-06
1950.0 9.9033e-06
1970.0 1.0074e-05
1990.0 1.025e-05
2010.0 1.042e-05
2030.0 1.0582e-05
2050.0 1.0746e-05
2070.0 1.0913e-05
2090.0 1.1066e-05
2110.0 1.1215e-05
2130.0 1.1366e-05
2150.0 1.151e-05
2170.0 1.1641e-05
2190.0 1.1776e-05
2210.0 1.1906e-05
2230.0 1.2025e-05
2250.0 1.2138e-05
2270.0 1.2253e-05
2290.0 1.2357e-05
2310.0 1.2447e-05
2330.0 1.2538e-05
2350.0 1.2623e-05
2370.0 1.2696e-05
2390.0 1.2765e-05
2410.0 1.2839e-05
2430.0 1.2907e-05
2450.0 1.2975e-05
2470.0 1.3059e-05
2490.0 1.3169e-05
2510.0 1.3307e-05
2530.0 1.3528e-05
2550.0 1.3913e-05
2570.0 1.4537e-05
2590.0 1.5488e-05
2610.0 1.7016e-05
2630.0 1.9151e-05
2650.0 2.1743e-05
2670.0 2.4794e-05
2690.0 2.8154e-05
2710.0 3.1317e-05
2730.0 3.4061e-05
2750.0 3.6437e-05
2770.0 3.821e-05
2790.0 3.9391e-05
2810.0 4.0191e-05
2830.0 4.0754e-05
2850.0 4.1077e-05
2870.0 4.1305e-05
2890.0 4.1522e-05
2910.0 4.1721e-05
2930.0 4.1881e-05
2950.0 4.2069e-05
2970.0 4.2277e-05
2990.0 4.2459e-05
3010.0 0.00055606
3030.0 0.00055714
3050.0 0.00055809
3070.0 0.00055826
3090.0 0.00055803
3110.0 0.00055662
3130.0 0.00055307
3150.0 0.00054693
3170.0 0.00053737
3190.0 0.00052457
3210.0 0.00050971
3230.0 0.00049447
3250.0 0.00048903
3270.0 0.00047969
3290.0 0.00048895
3310.0 0.00048541
3330.0 0.00049765
3350.0 0.00051594
3370.0 0.00053966
3390.0 0.00056797
3410.0 0.00059777
3430.0 0.00063043
3450.0 0.00066682
3470.0 0.00070512
3490.0 0.00074398
3510.0 0.00078899
3530.0 0.00083848
3550.0 0.00088016
3570.0 0.00091882
3590.0 0.00097409
3610.0 0.001011
3630.0 0.0010721
3650.0 0.0011266
3670.0 0.0011817
3690.0 0.0012127
3710.0 0.0012205
3730.0 0.0012378
3750.0 0.001238
3770.0 0.0011473
3790.0 0.0010528
3810.0 0.00098322
3830.0 0.00089001
3850.0 0.00077405
3870.0 0.00076799
3890.0 0.00099451
3910.0 0.0013313
3930.0 0.0015932
3950.0 0.0016878
3970.0 0.001653
3990.0 0.0016849
4010.0 0.0019047
4030.0 0.002042
4050.0 0.001978
4070.0 0.0017509
4090.0 0.0015463
4110.0 0.0017351
4130.0 0.0018787
4150.0 0.0018446
4170.0 0.0018444
4190.0 0.0018361
4210.0 0.001905
4230.0 0.0020273
4250.0 0.0021885
4270.0 0.0022293
4290.0 0.0022089
4310.0 0.0023257
4330.0 0.0025544
4350.0 0.0028989
4370.0 0.0032351
4390.0 0.0031178
4410.0 0.0026339
4430.0 0.0021926
4450.0 0.0018368
4470.0 0.0018001
4490.0 0.0019694
4510.0 0.0022744
4530.0 0.0024745
4550.0 0.0027803
4570.0 0.0033169
4590.0 0.0040795
4610.0 0.0052244
4630.0 0.0062872
4650.0 0.006466
4670.0 0.0064477
4690.0 0.0068222
4710.0 0.0069507
4730.0 0.0058575
4750.0 0.0043312
4770.0 0.0035441
4790.0 0.0033363
4810.0 0.0031631
4830.0 0.0031067
4850.0 0.0035742
4870.0 0.0044099
4890.0 0.004903
4910.0 0.0042959
4930.0 0.0040166
4950.0 0.0046191
4970.0 0.0059986
4990.0 0.0074365
5010.0 0.0076457
5030.0 0.006304
5050.0 0.0043082
5070.0 0.003066
5090.0 0.0026768
5110.0 0.0027412
5130.0 0.0029505
5150.0 0.0030455
5170.0 0.0030231
5190.0 0.0029848
5210.0 0.0029322
5230.0 0.0030392
5250.0 0.0032603
5270.0 0.0037386
5290.0 0.0043132
5310.0 0.0047311
5330.0 0.0048898
5350.0 0.005017
5370.0 0.0054543
5390.0 0.0057374
5410.0 0.0054324
5430.0 0.0048076
5450.0 0.0046341
5470.0 0.0053504
5490.0 0.006792
5510.0 0.008387
5530.0 0.009102
5550.0 0.0088924
5570.0 0.0082316
5590.0 0.0074874
5610.0 0.0070167
5630.0 0.0068638
5650.0 0.0070024
5670.0 0.0068413
5690.0 0.0064284
5710.0 0.0061023
5730.0 0.005433
5750.0 0.004208
5770.0 0.0037113
5790.0 0.0040969
5810.0 0.0048072
5830.0 0.0053861
5850.0 0.0057079
5870.0 0.0057499
5890.0 0.005489
5910.0 0.0052479
5930.0 0.0052681
5950.0 0.0055285
5970.0 0.0057217
5990.0 0.0052921
6010.0 0.0044445
6030.0 0.00369
6050.0 0.0032833
6070.0 0.0033318
6090.0 0.0037046
6110.0 0.0039176
6130.0 0.0037283
6150.0 0.0035854
6170.0 0.003977
6190.0 0.0047435
6210.0 0.0056542
6230.0 0.0063167
6250.0 0.0062238
6270.0 0.0055436
6290.0 0.004608
6310.0 0.0036924
6330.0 0.0030164
6350.0 0.002825
6370.0 0.0031053
6390.0 0.0035873
6410.0 0.0041296
6430.0 0.0048141
6450.0 0.005652
6470.0 0.0069161
6490.0 0.0083457
6510.0 0.0090197
6530.0 0.0084977
6550.0 0.0079712
6570.0 0.0078817
6590.0 0.0076124
6610.0 0.0070235
6630.0 0.0064305
6650.0 0.0060266
6670.0 0.0061128
6690.0 0.0060062
6710.0 0.0054091
6730.0 0.0048964
6750.0 0.0043888
6770.0 0.004382
6790.0 0.0046781
6810.0 0.0049383
6830.0 0.005031
6850.0 0.0048749
6870.0 0.0046933
6890.0 0.0045787
6910.0 0.0043328
6930.0 0.0041578
6950.0 0.0041685
6970.0 0.0042878
6990.0 0.004708
7010.0 0.0049624
7030.0 0.0046224
7050.0 0.0042659
7070.0 0.003943
7090.0 0.003464
7110.0 0.0032094
7130.0 0.0032961
7150.0 0.0034203
7170.0 0.0035768
7190.0 0.0035557
7210.0 0.0035687
7230.0 0.0038558
7250.0 0.0044338
7270.0 0.0050573
7290.0 0.0053519
7310.0 0.00513
7330.0 0.0045909
7350.0 0.0041626
7370.0 0.0040704
7390.0 0.0041413
7410.0 0.0043637
7430.0 0.0048397
7450.0 0.0052736
7470.0 0.0057984
7490.0 0.0062142
7510.0 0.0055468
7530.0 0.0052916
7550.0 0.0045933
7570.0 0.0039191
7590.0 0.0032476
7610.0 0.0030163
7630.0 0.003193
7650.0 0.0036792
7670.0 0.0040945
7690.0 0.0045704
7710.0 0.0050858
7730.0 0.0053625
7750.0 0.0054835
7770.0 0.0055203
7790.0 0.0055152
7810.0 0.0056528
7830.0 0.0054796
7850.0 0.0050775
7870.0 0.0047062
7890.0 0.0043742
7910.0 0.0039322
7930.0 0.0034474
7950.0 0.0031402
7970.0 0.0030817
7990.0 0.0031987
8010.0 0.0034132
8030.0 0.0034642
8050.0 0.0034768
8070.0 0.003395
8090.0 0.0033698
8110.0 0.0032332
8130.0 0.0030545
8150.0 0.002879
8170.0 0.0028475
8190.0 0.0029109
8210.0 0.0029045
8230.0 0.0029201
8250.0 0.0028826
8270.0 0.0025624
8290.0 0.0019831
8310.0 0.0014085
8330.0 0.0009516
8350.0 0.00068147
8370.0 0.00075896
8390.0 0.00085533
8410.0 0.0010774
8430.0 0.0013118
8450.0 0.001436
8470.0 0.0014862
8490.0 0.0015628
8510.0 0.0016506
8530.0 0.0018583
8550.0 0.0020864
8570.0 0.0024255
8590.0 0.0028978
8610.0 0.0033658
8630.0 0.0039233
8650.0 0.0043642
8670.0 0.0043171
8690.0 0.0040868
8710.0 0.0038818
8730.0 0.0036879
8750.0 0.0035383
8770.0 0.003448
8790.0 0.0033216
8810.0 0.0030794
8830.0 0.0028371
8850.0 0.0024697
8870.0 0.0021649
8890.0 0.0019577
8910.0 0.002011
8930.0 0.0019618
8950.0 0.002057
8970.0 0.0020967
8990.0 0.0021621
9010.0 0.002245
9030.0 0.0022382
9050.0 0.0022392
9070.0 0.0022417
9090.0 0.0022438
9110.0 0.0022444
9130.0 0.0022464
9150.0 0.0022497
9170.0 0.0022521
9190.0 0.0022532
9210.0 0.0022642
9230.0 0.0022666
9250.0 0.0022704
9270.0 0.0022746
9290.0 0.0022792
9310.0 0.0022845
9330.0 0.0022901
9350.0 0.002296
9370.0 0.0023022
9390.0 0.0023089
9410.0 0.0023158
9430.0 0.0023229
9450.0 0.0023305
9470.0 0.0023384
9490.0 0.0023464
9510.0 0.0023548
9530.0 0.0023635
9550.0 0.0023724
9570.0 0.0023815
9590.0 0.002391
9610.0 0.0024007
9630.0 0.0024106
9650.0 0.0024207
9670.0 0.0024312
9690.0 0.0024418
9710.0 0.0024526
9730.0 0.0024636
9750.0 0.0024749
9770.0 0.0024861
9790.0 0.0024977
9810.0 0.0025095
9830.0 0.0025214
9850.0 0.0025333
9870.0 0.0025456
9890.0 0.0025578
9910.0 0.0025701
9930.0 0.0025826
9950.0 0.0025947
9970.0 0.0026074
9990.0 0.0026201
10010.0 0.0026104
10030.0 0.002623
10050.0 0.0026352
10070.0 0.0026456
10090.0 0.0026591
10110.0 0.0026722
10130.0 0.0026851
10150.0 0.002698
10170.0 0.0027106
10190.0 0.0027227
10210.0 0.0027351
10230.0 0.0027474
10250.0 0.0027593
10270.0 0.0027711
10290.0 0.0027831
10310.0 0.0027946
10330.0 0.0028057
10350.0 0.0028169
10370.0 0.002828
10390.0 0.0028386
10410.0 0.0028491
10430.0 0.0028596
10450.0 0.0028696
10470.0 0.0028792
10490.0 0.0028888
10510.0 0.0028981
10530.0 0.0029066
10550.0 0.0029151
10570.0 0.0029235
10590.0 0.0029314
10610.0 0.0029387
10630.0 0.002946
10650.0 0.002953
10670.0 0.0029591
10690.0 0.0029651
10710.0 0.0029709
10730.0 0.002976
10750.0 0.0029805
10770.0 0.002985
10790.0 0.0029891
10810.0 0.0029924
10830.0 0.0029953
10850.0 0.0029978
10870.0 0.0029987
10890.0 0.002998
10910.0 0.0029951
10930.0 0.0029882
10950.0 0.0029745
10970.0 0.0029533
10990.0 0.0029239
11010.0 0.0028692
11030.0 0.0028143
11050.0 0.0027508
11070.0 0.0026774
11090.0 0.0025912
11110.0 0.0025042
11130.0 0.0024155
11150.0 0.0023225
11170.0 0.0022299
11190.0 0.0021436
11210.0 0.0020586
11230.0 0.0019759
11250.0 0.0019016
11270.0 0.0018345
11290.0 0.0017713
11310.0 0.0017153
11330.0 0.0016688
11350.0 0.0016268
11370.0 0.0015892
11390.0 0.0015568
11410.0 0.0015276
11430.0 0.0014986
11450.0 0.0014707
11470.0 0.0014431
11490.0 0.0014136
11510.0 0.001381
11530.0 0.0013474
11550.0 0.0013116
11570.0 0.0012722
11590.0 0.0012311
11610.0 0.0011899
11630.0 0.0011465
11650.0 0.0011019
11670.0 0.0010601
11690.0 0.0010196
11710.0 0.00097979
11730.0 0.00094299
11750.0 0.00091023
11770.0 0.0008792
11790.0 0.0008509
11810.0 0.00082629
11830.0 0.00080421
11850.0 0.00078345
11870.0 0.00076512
11890.0 0.0007486
11910.0 0.00073248
11930.0 0.00071661
11950.0 0.00070132
11970.0 0.00068565
11990.0 0.00066889
12010.0 0.00065192
12030.0 0.00063471
12050.0 0.0006166
12070.0 0.0005979
12090.0 0.00058034
12110.0 0.00056304
12130.0 0.00054626
12150.0 0.00053122
12170.0 0.00051829
12190.0 0.00050699
12210.0 0.00049852
12230.0 0.00049312
12250.0 0.00049067
12270.0 0.00049149
12290.0 0.00049544
12310.0 0.00050203
12330.0 0.0005118
12350.0 0.00052409
12370.0 0.00053788
12390.0 0.00055343
12410.0 0.00057114
12430.0 0.00058831
12450.0 0.00060526
12470.0 0.00062236
12490.0 0.00063843
12510.0 0.00065233
12530.0 0.00066502
12550.0 0.00067597
12570.0 0.00068419
12590.0 0.00068999
12610.0 0.00069365
12630.0 0.00069472
12650.0 0.00069328
12670.0 0.00068974
12690.0 0.0006841
12710.0 0.00067674
12730.0 0.00066793
12750.0 0.00065739
12770.0 0.00064586
12790.0 0.00063372
12810.0 0.00062067
12830.0 0.00060674
12850.0 0.00059289
12870.0 0.00057873
12890.0 0.00056381
12910.0 0.00054873
12930.0 0.00053378
12950.0 0.00051804
12970.0 0.00050171
12990.0 0.00048582
13010.0 0.00046971
13030.0 0.00045305
13050.0 0.00043664
13070.0 0.00042097
13090.0 0.0004051
13110.0 0.00038968
13130.0 0.0003755
13150.0 0.00036226
13170.0 0.00034966
13190.0 0.00033885
13210.0 0.0003298
13230.0 0.00032212
13250.0 0.00031615
13270.0 0.00031208
13290.0 0.00030963
13310.0 0.0003089
13330.0 0.00030978
13350.0 0.000312
13370.0 0.00031561
13390.0 0.00032045
13410.0 0.00032574
13430.0 0.00033172
13450.0 0.00033829
13470.0 0.00034481
13490.0 0.00035107
13510.0 0.00035756
13530.0 0.00036354
13550.0 0.00036875
13570.0 0.00037346
13590.0 0.00037768
13610.0 0.00038105
13630.0 0.00038366
13650.0 0.00038578
13670.0 0.00038722
13690.0 0.00038799
13710.0 0.00038825
13730.0 0.00038801
13750.0 0.00038723
13770.0 0.00038601
13790.0 0.00038435
13810.0 0.00038227
13830.0 0.00037987
13850.0 0.00037703
13870.0 0.00037376
13890.0 0.00037021
13910.0 0.00036635
13930.0 0.00036204
13950.0 0.00035746
13970.0 0.00035286
13990.0 0.000348
14010.0 0.00034297
14030.0 0.00033809
14050.0 0.00033332
14070.0 0.0003285
14090.0 0.00032405
14110.0 0.00032003
14130.0 0.00031633
14150.0 0.00031304
14170.0 0.0003104
14190.0 0.00030829
14210.0 0.00030671
14230.0 0.00030577
14250.0 0.00030544
14270.0 0.00030573
14290.0 0.00030669
14310.0 0.00030816
14330.0 0.00031015
14350.0 0.00031273
14370.0 0.00031569
14390.0 0.00031886
14410.0 0.00032248
14430.0 0.00032633
14450.0 0.0003302
14470.0 0.0003342
14490.0 0.00033851
14510.0 0.00034276
14530.0 0.00034702
14550.0 0.00035163
14570.0 0.00035658
14590.0 0.00036169
14610.0 0.0003674
14630.0 0.00037399
14650.0 0.00038111
14670.0 0.00038889
14690.0 0.00039782
14710.0 0.00040781
14730.0 0.00041804
14750.0 0.00042924
14770.0 0.0004414
14790.0 0.00045373
14810.0 0.00046602
14830.0 0.00047917
14850.0 0.0004919
14870.0 0.00050369
14890.0 0.00051498
14910.0 0.00052556
14930.0 0.00053456
14950.0 0.00054204
14970.0 0.00054833
14990.0 0.00055295
15010.0 0.00055599
15030.0 0.00055779
15050.0 0.0005585
15070.0 0.00055835
15090.0 0.00055766
15110.0 0.00055659
15130.0 0.00055531
15150.0 0.00055399
15170.0 0.00055257
15190.0 0.0005511
15210.0 0.00054969
15230.0 0.00054829
15250.0 0.00054683
15270.0 0.0005454
15290.0 0.00054405
15310.0 0.00054266
15330.0 0.00054125
15350.0 0.0005399
15370.0 0.00053856
15390.0 0.00053714
15410.0 0.00053577
15430.0 0.00053446
15450.0 0.0005331
15470.0 0.00053171
15490.0 0.00053041
15510.0 0.0005291
15530.0 0.00052774
15550.0 0.00052641
15570.0 0.00052513
15590.0 0.00052378
15610.0 0.00052241
15630.0 0.00052112
15650.0 0.00051982
15670.0 0.00051847
15690.0 0.00051715
15710.0 0.00051588
15730.0 0.00051455
15750.0 0.0005132
15770.0 0.00051191
15790.0 0.00051061
15810.0 0.00050923
15830.0 0.00050791
15850.0 0.00050663
15870.0 0.00050529
15890.0 0.00050394
15910.0 0.00050266
15930.0 0.00050133
15950.0 0.00049994
15970.0 0.00049861
15990.0 0.0004973
16010.0 0.00049593
16030.0 0.00049453
16050.0 0.00049323
16070.0 0.00049188
16090.0 0.00049048
16110.0 0.00048913
16130.0 0.0004878
16150.0 0.00048637
16170.0 0.00048496
16190.0 0.0004836
16210.0 0.00048221
16230.0 0.00048076
16250.0 0.00047937
16270.0 0.000478
16290.0 0.00047655
16310.0 0.00047511
16330.0 0.00047371
16350.0 0.00047227
16370.0 0.00047075
16390.0 0.00046932
16410.0 0.00046789
16430.0 0.00046639
16450.0 0.00046491
16470.0 0.00046348
16490.0 0.00046197
16510.0 0.00046043
16530.0 0.00045895
16550.0 0.00045746
16570.0 0.00045589
16590.0 0.00045434
16610.0 0.00045285
16630.0 0.0004513
16650.0 0.00044972
16670.0 0.00044819
16690.0 0.00044665
16710.0 0.00044502
16730.0 0.00044343
16750.0 0.00044187
16770.0 0.00044026
16790.0 0.00043861
16810.0 0.00043703
16830.0 0.00043543
16850.0 0.00043376
16870.0 0.00043213
16890.0 0.00043052
16910.0 0.00042884
16930.0 0.00042713
16950.0 0.00042549
16970.0 0.00042383
16990.0 0.00042211
17010.0 0.00042042
17030.0 0.00041877
17050.0 0.00041703
17070.0 0.00041529
17090.0 0.0004136
17110.0 0.00041188
17130.0 0.00041008
17150.0 0.00040835
17170.0 0.00040664
17190.0 0.00040486
17210.0 0.00040308
17230.0 0.00040136
17250.0 0.00039958
17270.0 0.00039775
17290.0 0.00039597
17310.0 0.0003942
17330.0 0.00039237
17350.0 0.00039052
17370.0 0.00038876
17390.0 0.00038695
17410.0 0.00038509
17430.0 0.00038328
17450.0 0.00038149
17470.0 0.00037959
17490.0 0.00037772
17510.0 0.0003759
17530.0 0.00037405
17550.0 0.00037215
17570.0 0.0003703
17590.0 0.00036847
17610.0 0.00036656
17630.0 0.00036467
17650.0 0.00036283
17670.0 0.00036094
17690.0 0.00035897
17710.0 0.00035711
17730.0 0.00035524
17750.0 0.00035331
17770.0 0.0003514
17790.0 0.00034955
17810.0 0.00034762
17830.0 0.00034567
17850.0 0.00034377
17870.0 0.00034187
17890.0 0.00033991
17910.0 0.00033797
17930.0 0.00033609
17950.0 0.00033416
17970.0 0.0003322
17990.0 0.0003303
18010.0 0.0003284
18030.0 0.0003264
18050.0 0.00032447
18070.0 0.00032256
18090.0 0.00032061
18110.0 0.00031864
18130.0 0.00031674
18150.0 0.00031482
18170.0 0.00031284
18190.0 0.00031091
18210.0 0.00030901
18230.0 0.00030704
18250.0 0.00030505
18270.0 0.00030315
18290.0 0.00030122
18310.0 0.00029925
18330.0 0.00029732
18350.0 0.00029543
18370.0 0.00029346
18390.0 0.0002915
18410.0 0.0002896
18430.0 0.00028767
18450.0 0.00028568
18470.0 0.00028376
18490.0 0.00028187
18510.0 0.00027993
18530.0 0.00027799
18550.0 0.00027611
18570.0 0.00027418
18590.0 0.00027221
18610.0 0.00027031
18630.0 0.00026842
18650.0 0.00026648
18670.0 0.00026454
18690.0 0.00026268
18710.0 0.00026078
18730.0 0.00025885
18750.0 0.00025697
18770.0 0.00025511
18790.0 0.00025316
18810.0 0.00025125
18830.0 0.0002494
18850.0 0.00024751
18870.0 0.0002456
18890.0 0.00024375
18910.0 0.00024191
18930.0 0.00024
18950.0 0.00023813
18970.0 0.0002363
18990.0 0.00023444
19010.0 0.00023252
19030.0 0.0002307
19050.0 0.00022888
19070.0 0.00022701
19090.0 0.00022517
19110.0 0.00022338
19130.0 0.00022153
19150.0 0.00021967
19170.0 0.00021787
19190.0 0.00021607
19210.0 0.00021422
19230.0 0.0002124
19250.0 0.00021064
19270.0 0.00020883
19290.0 0.00020701
19310.0 0.00020526
19330.0 0.00020349
19350.0 0.00020165
19370.0 0.00019988
19390.0 0.00019814
19410.0 0.00019635
19430.0 0.00019456
19450.0 0.00019285
19470.0 0.00019111
19490.0 0.00018933
19510.0 0.00018759
19530.0 0.00018589
19550.0 0.00018413
19570.0 0.00018236
19590.0 0.00018068
19610.0 0.00017897
19630.0 0.00017723
19650.0 0.00017553
19670.0 0.00017387
19690.0 0.00017214
19710.0 0.00017043
19730.0 0.00016877
19750.0 0.0001671
19770.0 0.00016537
19790.0 0.00016371
19810.0 0.00016207
19830.0 0.00016039
19850.0 0.00015871
19870.0 0.00015707
19890.0 0.00015536
19910.0 0.00015355
19930.0 0.00015172
19950.0 0.00014976
19970.0 0.00014755
19990.0 0.0001451
20010.0 0.00014319
20030.0 0.00014027
20050.0 0.00013707
20070.0 0.00013381
20090.0 0.00013051
20110.0 0.000127
20130.0 0.00012365
20150.0 0.00012052
20170.0 0.00011746
20190.0 0.00011454
20210.0 0.00011193
20230.0 0.00010952
20250.0 0.00010724
20270.0 0.00010524
20290.0 0.00010351
20310.0 0.00010197
20330.0 0.00010064
20350.0 9.9629e-05
20370.0 9.8828e-05
20390.0 9.8244e-05
20410.0 9.7903e-05
20430.0 9.7779e-05
20450.0 9.7875e-05
20470.0 9.8192e-05
20490.0 9.8691e-05
20510.0 9.9376e-05
20530.0 0.00010027
20550.0 0.00010131
20570.0 0.00010244
20590.0 0.00010374
20610.0 0.00010515
20630.0 0.00010658
20650.0 0.00010808
20670.0 0.00010971
20690.0 0.00011127
20710.0 0.00011281
20730.0 0.00011439
20750.0 0.00011595
20770.0 0.00011741
20790.0 0.00011887
20810.0 0.00012035
20830.0 0.00012177
20850.0 0.00012315
20870.0 0.00012461
20890.0 0.00012608
20910.0 0.0001275
20930.0 0.00012899
20950.0 0.00013056
20970.0 0.0001321
20990.0 0.00013365
21010.0 0.00013529
21030.0 0.00013691
21050.0 0.00013845
21070.0 0.00013998
21090.0 0.00014149
21110.0 0.00014283
21130.0 0.00014404
21150.0 0.00014516
21170.0 0.00014612
21190.0 0.00014687
21210.0 0.00014749
21230.0 0.00014793
21250.0 0.00014815
21270.0 0.00014818
21290.0 0.00014802
21310.0 0.00014767
21330.0 0.00014714
21350.0 0.00014642
21370.0 0.0001455
21390.0 0.00014443
21410.0 0.00014322
21430.0 0.00014177
21450.0 0.00014021
21470.0 0.00013859
21490.0 0.0001368
21510.0 0.0001349
21530.0 0.00013302
21550.0 0.00013108
21570.0 0.00012905
21590.0 0.00012708
21610.0 0.00012519
21630.0 0.00012333
21650.0 0.00012152
21670.0 0.00011996
21690.0 0.00011852
21710.0 0.00011724
21730.0 0.00011618
21750.0 0.00011536
21770.0 0.00011473
21790.0 0.00011436
21810.0 0.00011425
21830.0 0.00011438
21850.0 0.00011477
21870.0 0.0001154
21890.0 0.00011623
21910.0 0.00011731
21930.0 0.00011861
21950.0 0.00012004
21970.0 0.00012166
21990.0 0.00012353
22010.0 0.00012544
22030.0 0.00012743
22050.0 0.00012957
22070.0 0.00013179
22090.0 0.00013393
22110.0 0.00013615
22130.0 0.0001384
22150.0 0.00014055
22170.0 0.0001426
22190.0 0.00014465
22210.0 0.00014656
22230.0 0.00014823
22250.0 0.00014976
22270.0 0.00015112
22290.0 0.00015221
22310.0 0.00015306
22330.0 0.00015368
22350.0 0.000154
22370.0 0.00015402
22390.0 0.00015375
22410.0 0.00015315
22430.0 0.00015228
22450.0 0.00015112
22470.0 0.00014962
22490.0 0.00014785
22510.0 0.00014589
22530.0 0.00014358
22550.0 0.00014099
22570.0 0.00013829
22590.0 0.0001354
22610.0 0.00013225
22630.0 0.00012898
22650.0 0.00012574
22670.0 0.00012228
22690.0 0.00011871
22710.0 0.00011522
22730.0 0.00011173
22750.0 0.00010806
22770.0 0.00010456
22790.0 0.00010124
22810.0 9.7906e-05
22830.0 9.4673e-05
22850.0 9.173e-05
22870.0 8.8928e-05
22890.0 8.6234e-05
22910.0 8.3852e-05
22930.0 8.1771e-05
22950.0 7.9904e-05
22970.0 7.8316e-05
22990.0 7.7146e-05
23010.0 7.627e-05
23030.0 7.5719e-05
23050.0 7.5531e-05
