#lamb flux
1010.0 8.2428e-06
1030.0 8.7756e-06
1050.0 9.3911e-06
1070.0 1.0085e-05
1090.0 1.0873e-05
1110.0 1.1684e-05
1130.0 1.2502e-05
1150.0 1.3361e-05
1170.0 1.425e-05
1190.0 1.5096e-05
1210.0 1.5957e-05
1230.0 1.685e-05
1250.0 1.7729e-05
1270.0 1.8588e-05
1290.0 1.9498e-05
1310.0 2.0412e-05
1330.0 2.1294e-05
1350.0 2.2192e-05
1370.0 2.3122e-05
1390.0 2.4036e-05
1410.0 2.493e-05
1430.0 2.5868e-05
1450.0 2.6811e-05
1470.0 2.7731e-05
1490.0 2.8665e-05
1510.0 2.9654e-05
1530.0 3.06e-05
1550.0 3.1538e-05
1570.0 3.251e-05
1590.0 3.3486e-05
1610.0 3.4424e-05
1630.0 3.539e-05
1650.0 3.6381e-05
1670.0 3.734e-05
1690.0 3.8286e-05
1710.0 3.9262e-05
1730.0 4.0238e-05
1750.0 4.1153e-05
1770.0 4.2085e-05
1790.0 4.3025e-05
1810.0 4.3925e-05
1830.0 4.4796e-05
1850.0 4.5706e-05
1870.0 4.6577e-05
1890.0 4.7399e-05
1910.0 4.8221e-05
1930.0 4.9044e-05
1950.0 4.9805e-05
1970.0 5.0535e-05
1990.0 5.1276e-05
2010.0 5.198e-05
2030.0 5.2631e-05
2050.0 5.3287e-05
2070.0 5.3944e-05
2090.0 5.4531e-05
2110.0 5.5096e-05
2130.0 5.567e-05
2150.0 5.6212e-05
2170.0 5.6704e-05
2190.0 5.7215e-05
2210.0 5.7722e-05
2230.0 5.8189e-05
2250.0 5.8649e-05
2270.0 5.9142e-05
2290.0 5.961e-05
2310.0 6.005e-05
2330.0 6.052e-05
2350.0 6.1006e-05
2370.0 6.1471e-05
2390.0 6.1957e-05
2410.0 6.2496e-05
2430.0 6.303e-05
2450.0 6.3573e-05
2470.0 6.4174e-05
2490.0 6.4856e-05
2510.0 6.5633e-05
2530.0 6.6727e-05
2550.0 6.8505e-05
2570.0 7.137e-05
2590.0 7.5807e-05
2610.0 8.3034e-05
2630.0 9.3444e-05
2650.0 0.00010659
2670.0 0.00012268
2690.0 0.00014127
2710.0 0.00015998
2730.0 0.00017764
2750.0 0.00019454
2770.0 0.00020929
2790.0 0.00022166
2810.0 0.00023272
2830.0 0.00024329
2850.0 0.00025294
2870.0 0.00026254
2890.0 0.00027271
2910.0 0.00028327
2930.0 0.00029387
2950.0 0.00030523
2970.0 0.00031726
2990.0 0.0003294
3010.0 0.0011656
3030.0 0.0012101
3050.0 0.0012544
3070.0 0.0012943
3090.0 0.0013281
3110.0 0.0013466
3130.0 0.0013386
3150.0 0.0012924
3170.0 0.001184
3190.0 0.0010113
3210.0 0.00077775
3230.0 0.00051562
3250.0 0.00079047
3270.0 0.00049434
3290.0 0.0011379
3310.0 0.00044857
3330.0 0.00044407
3350.0 0.00053183
3370.0 0.00063681
3390.0 0.0007516
3410.0 0.00086662
3430.0 0.00098783
3450.0 0.0011102
3470.0 0.0012231
3490.0 0.0013021
3510.0 0.0015635
3530.0 0.0020247
3550.0 0.0019723
3570.0 0.0016264
3590.0 0.0022015
3610.0 0.0014248
3630.0 0.0023202
3650.0 0.0027026
3670.0 0.0034365
3690.0 0.0031907
3710.0 0.0021365
3730.0 0.0027575
3750.0 0.0028235
3770.0 0.0030303
3790.0 0.0029405
3810.0 0.0030272
3830.0 0.0047577
3850.0 0.0058401
3870.0 0.0072018
3890.0 0.0069989
3910.0 0.0062553
3930.0 0.0063359
3950.0 0.0068438
3970.0 0.0075461
3990.0 0.0048386
4010.0 0.0026192
4030.0 0.0046576
4050.0 0.0061607
4070.0 0.0065907
4090.0 0.0046099
4110.0 0.0029179
4130.0 0.0047991
4150.0 0.0048996
4170.0 0.0045607
4190.0 0.0041383
4210.0 0.0058574
4230.0 0.0043153
4250.0 0.0046754
4270.0 0.0046448
4290.0 0.0044006
4310.0 0.0056413
4330.0 0.0060957
4350.0 0.0050789
4370.0 0.0042875
4390.0 0.0052255
4410.0 0.0053518
4430.0 0.003935
4450.0 0.0035704
4470.0 0.0044125
4490.0 0.003376
4510.0 0.0047123
4530.0 0.0048975
4550.0 0.0058121
4570.0 0.0081937
4590.0 0.0081031
4610.0 0.0064248
4630.0 0.010254
4650.0 0.013664
4670.0 0.013031
4690.0 0.0092147
4710.0 0.0097715
4730.0 0.011068
4750.0 0.0091181
4770.0 0.0069707
4790.0 0.0047045
4810.0 0.0064214
4830.0 0.0075628
4850.0 0.0066476
4870.0 0.0027945
4890.0 0.0075434
4910.0 0.0098899
4930.0 0.010749
4950.0 0.011076
4970.0 0.0077801
4990.0 0.009054
5010.0 0.010516
5030.0 0.011272
5050.0 0.010523
5070.0 0.0074412
5090.0 0.0060373
5110.0 0.0058365
5130.0 0.0055454
5150.0 0.0057762
5170.0 0.0051543
5190.0 0.0061451
5210.0 0.006238
5230.0 0.0069058
5250.0 0.0081953
5270.0 0.0067908
5290.0 0.007058
5310.0 0.010368
5330.0 0.011912
5350.0 0.0099911
5370.0 0.0089777
5390.0 0.01041
5410.0 0.012415
5430.0 0.013217
5450.0 0.013895
5470.0 0.013979
5490.0 0.014387
5510.0 0.01721
5530.0 0.017865
5550.0 0.01885
5570.0 0.019779
5590.0 0.019427
5610.0 0.018176
5630.0 0.017732
5650.0 0.018326
5670.0 0.017893
5690.0 0.015308
5710.0 0.015132
5730.0 0.015144
5750.0 0.015736
5770.0 0.013543
5790.0 0.01291
5810.0 0.013217
5830.0 0.014253
5850.0 0.01326
5870.0 0.013314
5890.0 0.015515
5910.0 0.014464
5930.0 0.011935
5950.0 0.010773
5970.0 0.011732
5990.0 0.010645
6010.0 0.0097267
6030.0 0.0095384
6050.0 0.0087361
6070.0 0.0067692
6090.0 0.0064376
6110.0 0.0082588
6130.0 0.009268
6150.0 0.0095728
6170.0 0.0093099
6190.0 0.0088795
6210.0 0.0092584
6230.0 0.011235
6250.0 0.010382
6270.0 0.0093341
6290.0 0.0084847
6310.0 0.0076851
6330.0 0.0071291
6350.0 0.0063717
6370.0 0.0064581
6390.0 0.0075147
6410.0 0.0093307
6430.0 0.011029
6450.0 0.011072
6470.0 0.011195
6490.0 0.013673
6510.0 0.015697
6530.0 0.014917
6550.0 0.014153
6570.0 0.014357
6590.0 0.014151
6610.0 0.014977
6630.0 0.013967
6650.0 0.012135
6670.0 0.011194
6690.0 0.011097
6710.0 0.013135
6730.0 0.011696
6750.0 0.00962
6770.0 0.0086841
6790.0 0.009226
6810.0 0.010595
6830.0 0.010546
6850.0 0.0094581
6870.0 0.0097961
6890.0 0.0097358
6910.0 0.0091497
6930.0 0.010158
6950.0 0.0094497
6970.0 0.008803
6990.0 0.0087754
7010.0 0.0088397
7030.0 0.0085864
7050.0 0.0082216
7070.0 0.0088182
7090.0 0.0082132
7110.0 0.0069638
7130.0 0.0059814
7150.0 0.0058739
7170.0 0.0074164
7190.0 0.0078627
7210.0 0.0074553
7230.0 0.0078407
7250.0 0.0076154
7270.0 0.0074285
7290.0 0.0080473
7310.0 0.0088213
7330.0 0.0085947
7350.0 0.0079738
7370.0 0.0073764
7390.0 0.0073985
7410.0 0.0085007
7430.0 0.0095714
7450.0 0.010191
7470.0 0.010336
7490.0 0.011498
7510.0 0.011366
7530.0 0.010299
7550.0 0.009756
7570.0 0.0084369
7590.0 0.0080379
7610.0 0.0077691
7630.0 0.0071617
7650.0 0.0076988
7670.0 0.0085349
7690.0 0.0092981
7710.0 0.010617
7730.0 0.011143
7750.0 0.011585
7770.0 0.01205
7790.0 0.01308
7810.0 0.013185
7830.0 0.01184
7850.0 0.011896
7870.0 0.011462
7890.0 0.011743
7910.0 0.011067
7930.0 0.010994
7950.0 0.0092373
7970.0 0.0092731
7990.0 0.008967
8010.0 0.0097479
8030.0 0.0097119
8050.0 0.010322
8070.0 0.0099069
8090.0 0.0099519
8110.0 0.0098015
8130.0 0.009693
8150.0 0.0091039
8170.0 0.0089333
8190.0 0.0089117
8210.0 0.0089999
8230.0 0.0078735
8250.0 0.0071996
8270.0 0.0063638
8290.0 0.0054115
8310.0 0.0047675
8330.0 0.0037769
8350.0 0.0030582
8370.0 0.002953
8390.0 0.0028633
8410.0 0.0029968
8430.0 0.0038551
8450.0 0.0041989
8470.0 0.0045196
8490.0 0.0052894
8510.0 0.0057566
8530.0 0.0065465
8550.0 0.0077445
8570.0 0.0085075
8590.0 0.0089482
8610.0 0.0099391
8630.0 0.011308
8650.0 0.011601
8670.0 0.011843
8690.0 0.01229
8710.0 0.012052
8730.0 0.011672
8750.0 0.010755
8770.0 0.010759
8790.0 0.010606
8810.0 0.009754
8830.0 0.0097658
8850.0 0.0089439
8870.0 0.0085281
8890.0 0.0076403
8910.0 0.0085165
8930.0 0.0077034
8950.0 0.0077233
8970.0 0.0078865
8990.0 0.0076589
9010.0 0.0078658
9030.0 0.0074669
9050.0 0.0074307
9070.0 0.0074339
9090.0 0.0074357
9110.0 0.0074424
9130.0 0.007442
9150.0 0.0074378
9170.0 0.0074133
9190.0 0.0073591
9210.0 0.0074755
9230.0 0.0074425
9250.0 0.0074235
9270.0 0.0074074
9290.0 0.0073931
9310.0 0.0073799
9330.0 0.0073669
9350.0 0.007354
9370.0 0.0073406
9390.0 0.0073266
9410.0 0.0073121
9430.0 0.0072972
9450.0 0.0072814
9470.0 0.0072652
9490.0 0.0072487
9510.0 0.0072317
9530.0 0.0072141
9550.0 0.0071965
9570.0 0.0071787
9590.0 0.0071604
9610.0 0.0071419
9630.0 0.0071236
9650.0 0.007105
9670.0 0.007086
9690.0 0.0070674
9710.0 0.0070488
9730.0 0.0070299
9750.0 0.0070112
9770.0 0.0069932
9790.0 0.0069748
9810.0 0.0069564
9830.0 0.0069386
9850.0 0.006921
9870.0 0.0069033
9890.0 0.0068859
9910.0 0.0068693
9930.0 0.0068526
9950.0 0.0068254
9970.0 0.0068129
9990.0 0.0068004
10010.0 0.0067871
10030.0 0.0067737
10050.0 0.0067578
10070.0 0.006729
10090.0 0.006721
10110.0 0.0067128
10130.0 0.0067036
10150.0 0.0066939
10170.0 0.0066837
10190.0 0.0066729
10210.0 0.0066628
10230.0 0.0066531
10250.0 0.0066434
10270.0 0.0066342
10290.0 0.0066259
10310.0 0.0066177
10330.0 0.0066096
10350.0 0.0066026
10370.0 0.0065961
10390.0 0.0065897
10410.0 0.0065838
10430.0 0.0065789
10450.0 0.0065741
10470.0 0.0065695
10490.0 0.0065658
10510.0 0.0065625
10530.0 0.0065591
10550.0 0.0065565
10570.0 0.0065546
10590.0 0.0065528
10610.0 0.0065514
10630.0 0.0065506
10650.0 0.0065503
10670.0 0.00655
10690.0 0.0065502
10710.0 0.0065511
10730.0 0.006552
10750.0 0.0065532
10770.0 0.0065551
10790.0 0.0065573
10810.0 0.0065595
10830.0 0.0065619
10850.0 0.0065643
10870.0 0.0065652
10890.0 0.0065638
10910.0 0.0065583
10930.0 0.0065451
10950.0 0.0065189
10970.0 0.0064768
10990.0 0.0064175
11010.0 0.0065286
11030.0 0.0064147
11050.0 0.006281
11070.0 0.006126
11090.0 0.0059463
11110.0 0.0057671
11130.0 0.0055879
11150.0 0.0054043
11170.0 0.0052259
11190.0 0.0050635
11210.0 0.0049068
11230.0 0.0047578
11250.0 0.0046259
11270.0 0.0045081
11290.0 0.0043979
11310.0 0.0042998
11330.0 0.0042172
11350.0 0.0041408
11370.0 0.0040698
11390.0 0.0040059
11410.0 0.0039458
11430.0 0.0038833
11450.0 0.0038215
11470.0 0.0037597
11490.0 0.0036938
11510.0 0.0036222
11530.0 0.0035501
11550.0 0.0034753
11570.0 0.0033942
11590.0 0.0033112
11610.0 0.0032292
11630.0 0.0031428
11650.0 0.0030535
11670.0 0.0029688
11690.0 0.002885
11710.0 0.0027999
11730.0 0.0027179
11750.0 0.0026417
11770.0 0.0025653
11790.0 0.002491
11810.0 0.0024223
11830.0 0.0023567
11850.0 0.0022907
11870.0 0.0022297
11890.0 0.0021733
11910.0 0.0021173
11930.0 0.0020626
11950.0 0.0020119
11970.0 0.0019622
11990.0 0.0019117
12010.0 0.0018638
12030.0 0.0018182
12050.0 0.0017724
12070.0 0.0017272
12090.0 0.0016868
12110.0 0.0016478
12130.0 0.0016105
12150.0 0.0015775
12170.0 0.0015492
12190.0 0.0015238
12210.0 0.0015042
12230.0 0.0014912
12250.0 0.0014844
12270.0 0.0014844
12290.0 0.0014918
12310.0 0.001506
12330.0 0.0015278
12350.0 0.0015564
12370.0 0.00159
12390.0 0.0016289
12410.0 0.0016741
12430.0 0.00172
12450.0 0.0017667
12470.0 0.0018152
12490.0 0.0018627
12510.0 0.0019063
12530.0 0.0019483
12550.0 0.0019875
12570.0 0.0020215
12590.0 0.002051
12610.0 0.0020769
12630.0 0.002098
12650.0 0.0021139
12670.0 0.0021262
12690.0 0.0021347
12710.0 0.0021395
12730.0 0.0021413
12750.0 0.0021398
12770.0 0.0021357
12790.0 0.0021294
12810.0 0.0021206
12830.0 0.0021091
12850.0 0.0020961
12870.0 0.002081
12890.0 0.0020628
12910.0 0.0020425
12930.0 0.0020205
12950.0 0.0019949
12970.0 0.0019659
12990.0 0.0019359
13010.0 0.0019034
13030.0 0.0018675
13050.0 0.0018303
13070.0 0.0017933
13090.0 0.0017538
13110.0 0.0017137
13130.0 0.0016755
13150.0 0.0016385
13170.0 0.0016014
13190.0 0.0015684
13210.0 0.0015397
13230.0 0.0015137
13250.0 0.0014918
13270.0 0.0014751
13290.0 0.0014625
13310.0 0.0014536
13330.0 0.001449
13350.0 0.0014478
13370.0 0.001449
13390.0 0.0014522
13410.0 0.0014563
13430.0 0.0014603
13450.0 0.0014637
13470.0 0.0014655
13490.0 0.0014655
13510.0 0.0014628
13530.0 0.0014575
13550.0 0.00145
13570.0 0.0014401
13590.0 0.0014279
13610.0 0.0014145
13630.0 0.0014007
13650.0 0.0013857
13670.0 0.0013708
13690.0 0.0013569
13710.0 0.0013435
13730.0 0.0013303
13750.0 0.001319
13770.0 0.0013086
13790.0 0.0012987
13810.0 0.0012895
13830.0 0.0012811
13850.0 0.0012724
13870.0 0.0012635
13890.0 0.0012545
13910.0 0.0012451
13930.0 0.0012347
13950.0 0.0012238
13970.0 0.001213
13990.0 0.0012015
14010.0 0.0011898
14030.0 0.0011785
14050.0 0.0011677
14070.0 0.0011571
14090.0 0.0011476
14110.0 0.0011393
14130.0 0.0011319
14150.0 0.0011257
14170.0 0.001121
14190.0 0.0011174
14210.0 0.0011149
14230.0 0.0011137
14250.0 0.0011136
14270.0 0.0011146
14290.0 0.001117
14310.0 0.0011203
14330.0 0.0011247
14350.0 0.0011303
14370.0 0.0011367
14390.0 0.0011435
14410.0 0.0011514
14430.0 0.0011598
14450.0 0.001168
14470.0 0.0011764
14490.0 0.0011853
14510.0 0.0011937
14530.0 0.0012016
14550.0 0.0012099
14570.0 0.0012184
14590.0 0.0012267
14610.0 0.0012358
14630.0 0.0012463
14650.0 0.0012576
14670.0 0.00127
14690.0 0.0012848
14710.0 0.0013018
14730.0 0.0013197
14750.0 0.0013399
14770.0 0.0013629
14790.0 0.0013871
14810.0 0.001412
14830.0 0.00144
14850.0 0.0014683
14870.0 0.0014954
14890.0 0.0015226
14910.0 0.0015493
14930.0 0.0015726
14950.0 0.0015924
14970.0 0.0016095
14990.0 0.0016218
15010.0 0.0016291
15030.0 0.0016324
15050.0 0.0016321
15070.0 0.0016285
15090.0 0.001623
15110.0 0.001616
15130.0 0.0016081
15150.0 0.0016
15170.0 0.0015915
15190.0 0.0015828
15210.0 0.0015743
15230.0 0.0015657
15250.0 0.0015571
15270.0 0.0015484
15290.0 0.00154
15310.0 0.0015315
15330.0 0.0015229
15350.0 0.0015145
15370.0 0.0015061
15390.0 0.0014976
15410.0 0.0014891
15430.0 0.0014808
15450.0 0.0014725
15470.0 0.0014641
15490.0 0.0014559
15510.0 0.0014477
15530.0 0.0014394
15550.0 0.0014312
15570.0 0.0014232
15590.0 0.001415
15610.0 0.0014069
15630.0 0.0013989
15650.0 0.001391
15670.0 0.001383
15690.0 0.0013751
15710.0 0.0013673
15730.0 0.0013594
15750.0 0.0013516
15770.0 0.0013439
15790.0 0.0013362
15810.0 0.0013285
15830.0 0.0013209
15850.0 0.0013134
15870.0 0.0013058
15890.0 0.0012983
15910.0 0.001291
15930.0 0.0012836
15950.0 0.0012762
15970.0 0.0012689
15990.0 0.0012617
16010.0 0.0012544
16030.0 0.0012472
16050.0 0.0012402
16070.0 0.0012332
16090.0 0.0012261
16110.0 0.0012191
16130.0 0.0012123
16150.0 0.0012053
16170.0 0.0011984
16190.0 0.0011917
16210.0 0.001185
16230.0 0.0011782
16250.0 0.0011716
16270.0 0.0011651
16290.0 0.0011584
16310.0 0.0011519
16330.0 0.0011455
16350.0 0.0011391
16370.0 0.0011325
16390.0 0.0011263
16410.0 0.00112
16430.0 0.0011137
16450.0 0.0011075
16470.0 0.0011014
16490.0 0.0010953
16510.0 0.0010891
16530.0 0.0010831
16550.0 0.0010772
16570.0 0.0010711
16590.0 0.0010652
16610.0 0.0010594
16630.0 0.0010535
16650.0 0.0010477
16670.0 0.001042
16690.0 0.0010364
16710.0 0.0010306
16730.0 0.0010249
16750.0 0.0010194
16770.0 0.0010138
16790.0 0.0010082
16810.0 0.0010028
16830.0 0.00099736
16850.0 0.00099188
16870.0 0.0009865
16890.0 0.00098124
16910.0 0.00097587
16930.0 0.00097051
16950.0 0.00096533
16970.0 0.00096015
16990.0 0.00095491
17010.0 0.00094978
17030.0 0.00094477
17050.0 0.00093964
17070.0 0.00093455
17090.0 0.00092959
17110.0 0.00092463
17130.0 0.00091956
17150.0 0.00091466
17170.0 0.00090985
17190.0 0.00090495
17210.0 0.00090008
17230.0 0.00089537
17250.0 0.0008906
17270.0 0.00088576
17290.0 0.00088106
17310.0 0.00087642
17330.0 0.00087171
17350.0 0.000867
17370.0 0.00086249
17390.0 0.00085792
17410.0 0.0008533
17430.0 0.0008488
17450.0 0.00084438
17470.0 0.00083979
17490.0 0.00083529
17510.0 0.00083093
17530.0 0.00082652
17550.0 0.00082206
17570.0 0.00081775
17590.0 0.00081349
17610.0 0.00080911
17630.0 0.0008048
17650.0 0.0008006
17670.0 0.00079635
17690.0 0.00079199
17710.0 0.00078785
17730.0 0.00078373
17750.0 0.00077951
17770.0 0.00077537
17790.0 0.00077135
17810.0 0.00076722
17830.0 0.00076308
17850.0 0.00075906
17870.0 0.00075507
17890.0 0.00075097
17910.0 0.00074694
17930.0 0.00074307
17950.0 0.00073909
17970.0 0.00073511
17990.0 0.00073126
18010.0 0.00072741
18030.0 0.00072341
18050.0 0.00071955
18070.0 0.00071577
18090.0 0.00071192
18110.0 0.00070804
18130.0 0.00070433
18150.0 0.0007006
18170.0 0.00069678
18190.0 0.00069306
18210.0 0.00068941
18230.0 0.00068565
18250.0 0.00068188
18270.0 0.00067829
18290.0 0.00067466
18310.0 0.00067096
18330.0 0.00066737
18350.0 0.00066385
18370.0 0.00066021
18390.0 0.0006566
18410.0 0.00065311
18430.0 0.00064959
18450.0 0.00064596
18470.0 0.00064247
18490.0 0.00063906
18510.0 0.00063555
18530.0 0.00063206
18550.0 0.00062871
18570.0 0.00062527
18590.0 0.00062177
18610.0 0.0006184
18630.0 0.00061507
18650.0 0.00061164
18670.0 0.00060823
18690.0 0.00060499
18710.0 0.00060167
18730.0 0.00059831
18750.0 0.00059505
18770.0 0.00059184
18790.0 0.00058846
18810.0 0.00058518
18830.0 0.00058201
18850.0 0.00057878
18870.0 0.0005755
18890.0 0.00057235
18910.0 0.00056923
18930.0 0.00056599
18950.0 0.00056282
18970.0 0.00055974
18990.0 0.0005566
19010.0 0.00055336
19030.0 0.00055032
19050.0 0.00054728
19070.0 0.00054415
19090.0 0.00054107
19110.0 0.00053812
19130.0 0.00053503
19150.0 0.00053194
19170.0 0.00052897
19190.0 0.000526
19210.0 0.00052292
19230.0 0.00051992
19250.0 0.00051705
19270.0 0.00051407
19290.0 0.00051109
19310.0 0.00050822
19330.0 0.00050534
19350.0 0.00050232
19370.0 0.00049943
19390.0 0.0004966
19410.0 0.0004937
19430.0 0.00049078
19450.0 0.000488
19470.0 0.00048519
19490.0 0.0004823
19510.0 0.00047949
19530.0 0.00047676
19550.0 0.0004739
19570.0 0.00047104
19590.0 0.00046833
19610.0 0.00046559
19630.0 0.00046277
19650.0 0.00046006
19670.0 0.0004574
19690.0 0.00045461
19710.0 0.00045187
19730.0 0.00044922
19750.0 0.00044653
19770.0 0.00044375
19790.0 0.0004411
19810.0 0.00043849
19830.0 0.00043579
19850.0 0.00043308
19870.0 0.00043044
19890.0 0.0004276
19910.0 0.00042449
19930.0 0.0004212
19950.0 0.00041748
19970.0 0.00041294
19990.0 0.00040759
20010.0 0.00040165
20030.0 0.00039464
20050.0 0.00038668
20070.0 0.00037839
20090.0 0.00036983
20110.0 0.00036058
20130.0 0.00035169
20150.0 0.00034335
20170.0 0.00033513
20190.0 0.00032725
20210.0 0.0003202
20230.0 0.00031368
20250.0 0.00030749
20270.0 0.00030206
20290.0 0.00029739
20310.0 0.00029323
20330.0 0.00028965
20350.0 0.000287
20370.0 0.00028498
20390.0 0.00028361
20410.0 0.000283
20430.0 0.00028308
20450.0 0.0002839
20470.0 0.00028547
20490.0 0.0002877
20510.0 0.0002906
20530.0 0.00029429
20550.0 0.00029853
20570.0 0.00030313
20590.0 0.0003084
20610.0 0.00031408
20630.0 0.00031985
20650.0 0.00032587
20670.0 0.00033226
20690.0 0.00033834
20710.0 0.00034418
20730.0 0.00034996
20750.0 0.00035543
20770.0 0.00036028
20790.0 0.00036482
20810.0 0.00036903
20830.0 0.00037267
20850.0 0.00037586
20870.0 0.0003788
20890.0 0.00038139
20910.0 0.00038358
20930.0 0.0003856
20950.0 0.00038748
20970.0 0.00038913
20990.0 0.00039062
21010.0 0.00039203
21030.0 0.00039324
21050.0 0.00039423
21070.0 0.00039501
21090.0 0.00039554
21110.0 0.00039577
21130.0 0.0003957
21150.0 0.00039531
21170.0 0.0003946
21190.0 0.00039364
21210.0 0.00039237
21230.0 0.00039082
21250.0 0.00038913
21270.0 0.00038729
21290.0 0.00038527
21310.0 0.00038321
21330.0 0.00038122
21350.0 0.00037918
21370.0 0.00037718
21390.0 0.00037534
21410.0 0.00037364
21430.0 0.000372
21450.0 0.0003706
21470.0 0.00036944
21490.0 0.00036845
21510.0 0.00036768
21530.0 0.00036716
21550.0 0.00036686
21570.0 0.00036679
21590.0 0.00036697
21610.0 0.00036738
21630.0 0.00036805
21650.0 0.00036901
21670.0 0.00037017
21690.0 0.0003716
21710.0 0.00037335
21730.0 0.00037534
21750.0 0.00037754
21770.0 0.00038015
21790.0 0.00038305
21810.0 0.00038613
21830.0 0.00038951
21850.0 0.00039329
21870.0 0.00039723
21890.0 0.00040128
21910.0 0.00040571
21930.0 0.00041034
21950.0 0.00041497
21970.0 0.00041978
21990.0 0.0004249
22010.0 0.00042982
22030.0 0.00043466
22050.0 0.00043957
22070.0 0.00044436
22090.0 0.00044875
22110.0 0.000453
22130.0 0.00045703
22150.0 0.00046056
22170.0 0.00046363
22190.0 0.00046632
22210.0 0.00046841
22230.0 0.00046982
22250.0 0.00047063
22270.0 0.00047076
22290.0 0.00047018
22310.0 0.00046892
22330.0 0.00046683
22350.0 0.00046402
22370.0 0.00046059
22390.0 0.0004564
22410.0 0.00045135
22430.0 0.00044593
22450.0 0.00043999
22470.0 0.00043331
22490.0 0.00042624
22510.0 0.00041906
22530.0 0.00041125
22550.0 0.00040305
22570.0 0.00039504
22590.0 0.00038694
22610.0 0.00037853
22630.0 0.00037027
22650.0 0.00036246
22670.0 0.00035449
22690.0 0.00034665
22710.0 0.00033931
22730.0 0.00033226
22750.0 0.00032512
22770.0 0.0003186
22790.0 0.00031262
22810.0 0.00030682
22830.0 0.00030137
22850.0 0.00029655
22870.0 0.00029207
22890.0 0.00028787
22910.0 0.00028425
22930.0 0.00028114
22950.0 0.0002784
22970.0 0.00027611
22990.0 0.00027446
23010.0 0.00027325
23030.0 0.00027251
23050.0 0.00027229
23070.0 0.00027253
23090.0 0.00027327
23110.0 0.00027448
23130.0 0.00027605
23150.0 0.00027801
23170.0 0.00028038
23190.0 0.00028296
23210.0 0.00028568
23230.0 0.00028867
23250.0 0.00029176
23270.0 0.00029477
23290.0 0.00029782
23310.0 0.00030093
23330.0 0.00030375
23350.0 0.00030638
23370.0 0.00030887
23390.0 0.00031109
23410.0 0.00031296
23430.0 0.00031458
23450.0 0.0003159
