#lamb flux
1010.0 6.8208e-07
1030.0 7.554e-07
1050.0 8.3974e-07
1070.0 9.3467e-07
1090.0 1.0425e-06
1110.0 1.1531e-06
1130.0 1.2644e-06
1150.0 1.381e-06
1170.0 1.5013e-06
1190.0 1.6154e-06
1210.0 1.7309e-06
1230.0 1.8504e-06
1250.0 1.9674e-06
1270.0 2.0811e-06
1290.0 2.2012e-06
1310.0 2.3212e-06
1330.0 2.4362e-06
1350.0 2.5526e-06
1370.0 2.6727e-06
1390.0 2.7898e-06
1410.0 2.9035e-06
1430.0 3.0222e-06
1450.0 3.141e-06
1470.0 3.2557e-06
1490.0 3.3717e-06
1510.0 3.4942e-06
1530.0 3.6102e-06
1550.0 3.7246e-06
1570.0 3.8429e-06
1590.0 3.9613e-06
1610.0 4.0743e-06
1630.0 4.1908e-06
1650.0 4.3102e-06
1670.0 4.4256e-06
1690.0 4.5394e-06
1710.0 4.6574e-06
1730.0 4.776e-06
1750.0 4.8871e-06
1770.0 5.0013e-06
1790.0 5.1176e-06
1810.0 5.2297e-06
1830.0 5.3394e-06
1850.0 5.4556e-06
1870.0 5.5681e-06
1890.0 5.676e-06
1910.0 5.7855e-06
1930.0 5.897e-06
1950.0 6.0021e-06
1970.0 6.1049e-06
1990.0 6.2107e-06
2010.0 6.3133e-06
2030.0 6.4104e-06
2050.0 6.5092e-06
2070.0 6.609e-06
2090.0 6.7003e-06
2110.0 6.7891e-06
2130.0 6.8788e-06
2150.0 6.9639e-06
2170.0 7.0415e-06
2190.0 7.1202e-06
2210.0 7.1964e-06
2230.0 7.2648e-06
2250.0 7.3293e-06
2270.0 7.3948e-06
2290.0 7.4531e-06
2310.0 7.5031e-06
2330.0 7.5526e-06
2350.0 7.6e-06
2370.0 7.6411e-06
2390.0 7.684e-06
2410.0 7.7378e-06
2430.0 7.7995e-06
2450.0 7.876e-06
2470.0 7.9834e-06
2490.0 8.1285e-06
2510.0 8.2968e-06
2530.0 8.515e-06
2550.0 8.8167e-06
2570.0 9.2268e-06
2590.0 9.7984e-06
2610.0 1.0701e-05
2630.0 1.1999e-05
2650.0 1.3659e-05
2670.0 1.5742e-05
2690.0 1.8205e-05
2710.0 2.07e-05
2730.0 2.3025e-05
2750.0 2.518e-05
2770.0 2.6896e-05
2790.0 2.8095e-05
2810.0 2.8901e-05
2830.0 2.9393e-05
2850.0 2.9562e-05
2870.0 2.9554e-05
2890.0 2.9449e-05
2910.0 2.9275e-05
2930.0 2.9056e-05
2950.0 2.8833e-05
2970.0 2.8612e-05
2990.0 2.8387e-05
3010.0 0.00085248
3030.0 0.00084633
3050.0 0.00084029
3070.0 0.00083382
3090.0 0.00082702
3110.0 0.00081905
3130.0 0.00080893
3150.0 0.000796
3170.0 0.00077883
3190.0 0.00075778
3210.0 0.0007342
3230.0 0.00070909
3250.0 0.0006842
3270.0 0.00066568
3290.0 0.00065226
3310.0 0.00064952
3330.0 0.00065446
3350.0 0.00066663
3370.0 0.00068601
3390.0 0.00071172
3410.0 0.00074047
3430.0 0.0007734
3450.0 0.00081183
3470.0 0.00085427
3490.0 0.00089986
3510.0 0.00095179
3530.0 0.0010085
3550.0 0.0010691
3570.0 0.001136
3590.0 0.0012115
3610.0 0.0012955
3630.0 0.0013806
3650.0 0.0014711
3670.0 0.0015536
3690.0 0.0016157
3710.0 0.0016478
3730.0 0.0016321
3750.0 0.0015678
3770.0 0.0015701
3790.0 0.0015008
3810.0 0.0011658
3830.0 0.0010752
3850.0 0.0014346
3870.0 0.0012555
3890.0 0.0010278
3910.0 0.001202
3930.0 0.0015822
3950.0 0.0018057
3970.0 0.0020963
3990.0 0.0016801
4010.0 0.0026008
4030.0 0.002389
4050.0 0.0022483
4070.0 0.002558
4090.0 0.0024562
4110.0 0.0024414
4130.0 0.0030097
4150.0 0.0038291
4170.0 0.0031391
4190.0 0.0028054
4210.0 0.0030959
4230.0 0.0038305
4250.0 0.0044613
4270.0 0.0048137
4290.0 0.0044174
4310.0 0.004114
4330.0 0.004175
4350.0 0.0053062
4370.0 0.0063779
4390.0 0.0052005
4410.0 0.0031724
4430.0 0.0023434
4450.0 0.002114
4470.0 0.0015983
4490.0 0.002418
4510.0 0.0043374
4530.0 0.0052011
4550.0 0.0051661
4570.0 0.0049061
4590.0 0.0054361
4610.0 0.0098241
4630.0 0.013416
4650.0 0.012718
4670.0 0.011332
4690.0 0.011921
4710.0 0.012586
4730.0 0.010172
4750.0 0.0065627
4770.0 0.004747
4790.0 0.0052
4810.0 0.0053104
4830.0 0.00522
4850.0 0.0057481
4870.0 0.0076006
4890.0 0.0088377
4910.0 0.0068822
4930.0 0.0065165
4950.0 0.007474
4970.0 0.010084
4990.0 0.013529
5010.0 0.015348
5030.0 0.01218
5050.0 0.0073405
5070.0 0.0052123
5090.0 0.0041457
5110.0 0.0039753
5130.0 0.0046165
5150.0 0.0044928
5170.0 0.0042809
5190.0 0.0039167
5210.0 0.0041595
5230.0 0.0050178
5250.0 0.0057859
5270.0 0.005554
5290.0 0.0061269
5310.0 0.0079471
5330.0 0.008325
5350.0 0.0082128
5370.0 0.0092634
5390.0 0.011312
5410.0 0.0097939
5430.0 0.0075164
5450.0 0.0074608
5470.0 0.0087265
5490.0 0.011106
5510.0 0.013768
5530.0 0.015852
5550.0 0.014402
5570.0 0.012862
5590.0 0.010692
5610.0 0.010731
5630.0 0.011756
5650.0 0.011131
5670.0 0.010377
5690.0 0.0085695
5710.0 0.0086813
5730.0 0.0084006
5750.0 0.004643
5770.0 0.0035146
5790.0 0.0043003
5810.0 0.00477
5830.0 0.0069483
5850.0 0.0087712
5870.0 0.0092462
5890.0 0.008741
5910.0 0.008431
5930.0 0.0082435
5950.0 0.0085695
5970.0 0.010399
5990.0 0.0087086
6010.0 0.0067582
6030.0 0.0054957
6050.0 0.004864
6070.0 0.00568
6090.0 0.0064769
6110.0 0.0066775
6130.0 0.0061032
6150.0 0.0049363
6170.0 0.0042912
6190.0 0.0053452
6210.0 0.0079478
6230.0 0.011072
6250.0 0.011634
6270.0 0.0091093
6290.0 0.0077286
6310.0 0.0059413
6330.0 0.0044048
6350.0 0.0042511
6370.0 0.004484
6390.0 0.005421
6410.0 0.0068289
6430.0 0.008184
6450.0 0.010026
6470.0 0.010898
6490.0 0.013221
6510.0 0.014841
6530.0 0.014727
6550.0 0.013552
6570.0 0.011484
6590.0 0.01113
6610.0 0.009334
6630.0 0.0094452
6650.0 0.0090006
6670.0 0.0082217
6690.0 0.0068348
6710.0 0.0065071
6730.0 0.003719
6750.0 0.0042485
6770.0 0.0058191
6790.0 0.007516
6810.0 0.0058129
6830.0 0.0059533
6850.0 0.0052074
6870.0 0.0049511
6890.0 0.0043709
6910.0 0.004911
6930.0 0.0045952
6950.0 0.0053304
6970.0 0.0054236
6990.0 0.0060188
7010.0 0.0060463
7030.0 0.0064738
7050.0 0.0056842
7070.0 0.0049699
7090.0 0.0050957
7110.0 0.0051674
7130.0 0.0057711
7150.0 0.0065084
7170.0 0.0072024
7190.0 0.0074889
7210.0 0.0067068
7230.0 0.0067892
7250.0 0.0074475
7270.0 0.0082651
7290.0 0.0098276
7310.0 0.010039
7330.0 0.0091172
7350.0 0.0081239
7370.0 0.0062854
7390.0 0.0065545
7410.0 0.0079045
7430.0 0.0089111
7450.0 0.0095903
7470.0 0.009189
7490.0 0.0083164
7510.0 0.012226
7530.0 0.010984
7550.0 0.0099544
7570.0 0.0068618
7590.0 0.0033953
7610.0 0.0025726
7630.0 0.0035124
7650.0 0.0045324
7670.0 0.006749
7690.0 0.007615
7710.0 0.0070802
7730.0 0.0069943
7750.0 0.0087169
7770.0 0.0088615
7790.0 0.0082226
7810.0 0.0070103
7830.0 0.0073709
7850.0 0.0077458
7870.0 0.0074846
7890.0 0.0060235
7910.0 0.0042177
7930.0 0.004152
7950.0 0.0037305
7970.0 0.0032476
7990.0 0.0030198
8010.0 0.0028057
8030.0 0.0026871
8050.0 0.0028188
8070.0 0.0029651
8090.0 0.0033424
8110.0 0.0031303
8130.0 0.0022236
8150.0 0.0021692
8170.0 0.0015899
8190.0 0.0013199
8210.0 0.0020033
8230.0 0.0022835
8250.0 0.0014656
8270.0 0.0012538
8290.0 0.0014523
8310.0 0.0011265
8330.0 0.00070366
8350.0 0.00054809
8370.0 0.00030933
8390.0 0.00061706
8410.0 0.00075024
8430.0 0.00093196
8450.0 0.001042
8470.0 0.001462
8490.0 0.0012751
8510.0 0.0011056
8530.0 0.00082707
8550.0 0.0016636
8570.0 0.0023901
8590.0 0.0020281
8610.0 0.0027688
8630.0 0.0030829
8650.0 0.0023016
8670.0 0.0027828
8690.0 0.0035804
8710.0 0.0031934
8730.0 0.0032932
8750.0 0.0027584
8770.0 0.0025377
8790.0 0.0027003
8810.0 0.0027829
8830.0 0.001839
8850.0 0.0011493
8870.0 0.00089992
8890.0 0.0013445
8910.0 0.0018347
8930.0 0.0022532
8950.0 0.0025564
8970.0 0.0025119
8990.0 0.0020909
9010.0 0.0015856
9030.0 0.0013733
9050.0 0.0014143
9070.0 0.0014525
9090.0 0.0014825
9110.0 0.0015166
9130.0 0.0015418
9150.0 0.0015606
9170.0 0.0015807
9190.0 0.0016021
9210.0 0.0016246
9230.0 0.0016484
9250.0 0.0016728
9270.0 0.0016979
9290.0 0.0017238
9310.0 0.00175
9330.0 0.0017767
9350.0 0.0018043
9370.0 0.0018322
9390.0 0.0018605
9410.0 0.0018895
9430.0 0.0019193
9450.0 0.0019491
9470.0 0.0019796
9490.0 0.0020109
9510.0 0.0020425
9530.0 0.0020744
9550.0 0.0021073
9570.0 0.0021407
9590.0 0.0021744
9610.0 0.0022086
9630.0 0.0022436
9650.0 0.002279
9670.0 0.0023145
9690.0 0.0023509
9710.0 0.0023878
9730.0 0.002425
9750.0 0.0024626
9770.0 0.0025012
9790.0 0.0025398
9810.0 0.0025787
9830.0 0.0026183
9850.0 0.0026584
9870.0 0.0026985
9890.0 0.0027392
9910.0 0.0027804
9930.0 0.0028218
9950.0 0.0028634
9970.0 0.0029056
9990.0 0.0029481
10010.0 0.0027261
10030.0 0.0027644
10050.0 0.002803
10070.0 0.0028412
10090.0 0.00288
10110.0 0.0029193
10130.0 0.0029586
10150.0 0.0029977
10170.0 0.003037
10190.0 0.0030765
10210.0 0.0031158
10230.0 0.0031549
10250.0 0.0031943
10270.0 0.0032335
10290.0 0.0032724
10310.0 0.0033115
10330.0 0.0033505
10350.0 0.0033891
10370.0 0.0034274
10390.0 0.0034658
10410.0 0.0035038
10430.0 0.0035413
10450.0 0.0035787
10470.0 0.0036158
10490.0 0.0036524
10510.0 0.0036886
10530.0 0.0037246
10550.0 0.0037601
10570.0 0.0037948
10590.0 0.0038293
10610.0 0.0038633
10630.0 0.0038965
10650.0 0.0039291
10670.0 0.0039615
10690.0 0.003993
10710.0 0.0040237
10730.0 0.004054
10750.0 0.0040838
10770.0 0.0041124
10790.0 0.0041403
10810.0 0.0041677
10830.0 0.0041939
10850.0 0.0042188
10870.0 0.0042423
10890.0 0.004263
10910.0 0.0042795
10930.0 0.0042896
10950.0 0.0042898
10970.0 0.0042774
10990.0 0.0042511
11010.0 0.0043141
11030.0 0.0042491
11050.0 0.0041687
11070.0 0.0040715
11090.0 0.0039536
11110.0 0.0038311
11130.0 0.0037031
11150.0 0.0035651
11170.0 0.0034232
11190.0 0.0032861
11210.0 0.0031455
11230.0 0.0030024
11250.0 0.0028669
11270.0 0.0027379
11290.0 0.00261
11310.0 0.0024898
11330.0 0.0023845
11350.0 0.0022855
11370.0 0.0021942
11390.0 0.0021148
11410.0 0.0020446
11430.0 0.0019786
11450.0 0.0019203
11470.0 0.0018683
11490.0 0.0018184
11510.0 0.0017689
11530.0 0.0017216
11550.0 0.0016737
11570.0 0.0016225
11590.0 0.0015694
11610.0 0.0015156
11630.0 0.0014577
11650.0 0.0013965
11670.0 0.0013368
11690.0 0.0012768
11710.0 0.0012156
11730.0 0.0011567
11750.0 0.0011023
11770.0 0.0010493
11790.0 0.00099953
11810.0 0.0009555
11830.0 0.00091581
11850.0 0.00087893
11870.0 0.00084739
11890.0 0.00082042
11910.0 0.00079602
11930.0 0.0007742
11950.0 0.00075511
11970.0 0.0007373
11990.0 0.00071985
12010.0 0.00070313
12030.0 0.00068668
12050.0 0.00066959
12070.0 0.0006518
12090.0 0.0006345
12110.0 0.00061687
12130.0 0.00059898
12150.0 0.00058194
12170.0 0.00056622
12190.0 0.0005513
12210.0 0.00053857
12230.0 0.00052859
12250.0 0.00052133
12270.0 0.00051726
12290.0 0.00051665
12310.0 0.00051922
12330.0 0.00052551
12350.0 0.00053519
12370.0 0.00054735
12390.0 0.00056232
12410.0 0.00058074
12430.0 0.0005997
12450.0 0.00061951
12470.0 0.00064075
12490.0 0.00066199
12510.0 0.00068156
12530.0 0.00070085
12550.0 0.00071914
12570.0 0.00073468
12590.0 0.00074774
12610.0 0.00075885
12630.0 0.0007669
12650.0 0.0007713
12670.0 0.00077301
12690.0 0.00077168
12710.0 0.00076725
12730.0 0.00076013
12750.0 0.00075015
12770.0 0.00073776
12790.0 0.00072354
12810.0 0.00070731
12830.0 0.00068915
12850.0 0.0006704
12870.0 0.00065084
12890.0 0.00063
12910.0 0.0006089
12930.0 0.00058809
12950.0 0.00056648
12970.0 0.00054447
12990.0 0.00052345
13010.0 0.00050256
13030.0 0.00048134
13050.0 0.00046073
13070.0 0.00044117
13090.0 0.0004214
13110.0 0.00040208
13130.0 0.00038402
13150.0 0.00036674
13170.0 0.00034969
13190.0 0.00033428
13210.0 0.0003205
13230.0 0.00030773
13250.0 0.00029647
13270.0 0.00028724
13290.0 0.00027965
13310.0 0.0002738
13330.0 0.00027009
13350.0 0.00026833
13370.0 0.00026856
13390.0 0.00027088
13410.0 0.00027474
13430.0 0.00028029
13450.0 0.00028755
13470.0 0.00029585
13490.0 0.0003048
13510.0 0.00031513
13530.0 0.00032572
13550.0 0.00033595
13570.0 0.00034614
13590.0 0.00035621
13610.0 0.00036521
13630.0 0.00037311
13650.0 0.0003804
13670.0 0.00038646
13690.0 0.00039111
13710.0 0.00039467
13730.0 0.00039716
13750.0 0.00039824
13770.0 0.00039823
13790.0 0.0003972
13810.0 0.00039517
13830.0 0.00039233
13850.0 0.00038863
13870.0 0.00038411
13890.0 0.00037904
13910.0 0.00037344
13930.0 0.0003671
13950.0 0.00036032
13970.0 0.00035349
13990.0 0.00034619
14010.0 0.00033856
14030.0 0.00033106
14050.0 0.00032359
14070.0 0.00031583
14090.0 0.00030847
14110.0 0.00030161
14130.0 0.00029502
14150.0 0.00028885
14170.0 0.0002836
14190.0 0.00027906
14210.0 0.00027521
14230.0 0.00027233
14250.0 0.00027043
14270.0 0.00026945
14290.0 0.00026951
14310.0 0.00027054
14330.0 0.0002725
14350.0 0.00027545
14370.0 0.0002792
14390.0 0.00028352
14410.0 0.0002887
14430.0 0.0002945
14450.0 0.00030055
14470.0 0.00030698
14490.0 0.00031401
14510.0 0.00032097
14530.0 0.00032784
14550.0 0.000335
14570.0 0.00034224
14590.0 0.0003492
14610.0 0.00035634
14630.0 0.00036384
14650.0 0.00037127
14670.0 0.0003788
14690.0 0.00038693
14710.0 0.00039566
14730.0 0.00040443
14750.0 0.00041401
14770.0 0.0004246
14790.0 0.00043569
14810.0 0.00044729
14830.0 0.00046043
14850.0 0.00047414
14870.0 0.00048791
14890.0 0.00050227
14910.0 0.00051702
14930.0 0.00053085
14950.0 0.00054355
14970.0 0.00055537
14990.0 0.00056521
15010.0 0.00057278
15030.0 0.00057846
15050.0 0.00058235
15070.0 0.00058452
15090.0 0.00058563
15110.0 0.000586
15130.0 0.00058591
15150.0 0.00058562
15170.0 0.00058518
15190.0 0.00058467
15210.0 0.00058419
15230.0 0.00058372
15250.0 0.00058321
15270.0 0.00058272
15290.0 0.00058231
15310.0 0.00058186
15330.0 0.00058141
15350.0 0.00058101
15370.0 0.00058063
15390.0 0.00058017
15410.0 0.00057976
15430.0 0.0005794
15450.0 0.00057901
15470.0 0.00057859
15490.0 0.00057825
15510.0 0.0005779
15530.0 0.00057751
15550.0 0.00057715
15570.0 0.00057682
15590.0 0.00057644
15610.0 0.00057604
15630.0 0.00057571
15650.0 0.00057537
15670.0 0.00057498
15690.0 0.00057462
15710.0 0.0005743
15730.0 0.00057392
15750.0 0.00057352
15770.0 0.00057318
15790.0 0.00057282
15810.0 0.00057238
15830.0 0.000572
15850.0 0.00057164
15870.0 0.00057123
15890.0 0.00057081
15910.0 0.00057044
15930.0 0.00057003
15950.0 0.00056955
15970.0 0.00056912
15990.0 0.0005687
16010.0 0.00056822
16030.0 0.00056772
16050.0 0.00056729
16070.0 0.00056681
16090.0 0.00056628
16110.0 0.00056579
16130.0 0.00056531
16150.0 0.00056472
16170.0 0.00056415
16190.0 0.00056362
16210.0 0.00056305
16230.0 0.00056242
16250.0 0.00056183
16270.0 0.00056126
16290.0 0.00056059
16310.0 0.00055993
16330.0 0.0005593
16350.0 0.00055862
16370.0 0.00055785
16390.0 0.00055717
16410.0 0.00055647
16430.0 0.0005557
16450.0 0.00055492
16470.0 0.0005542
16490.0 0.00055338
16510.0 0.00055253
16530.0 0.00055171
16550.0 0.00055088
16570.0 0.00054997
16590.0 0.00054906
16610.0 0.0005482
16630.0 0.00054727
16650.0 0.0005463
16670.0 0.00054536
16690.0 0.00054441
16710.0 0.00054335
16730.0 0.00054232
16750.0 0.00054131
16770.0 0.00054024
16790.0 0.00053912
16810.0 0.00053806
16830.0 0.00053696
16850.0 0.00053579
16870.0 0.00053463
16890.0 0.0005335
16910.0 0.00053227
16930.0 0.000531
16950.0 0.0005298
16970.0 0.00052856
16990.0 0.00052725
17010.0 0.00052596
17030.0 0.0005247
17050.0 0.00052333
17070.0 0.00052196
17090.0 0.00052061
17110.0 0.00051924
17130.0 0.00051776
17150.0 0.00051634
17170.0 0.00051493
17190.0 0.00051345
17210.0 0.00051194
17230.0 0.00051049
17250.0 0.00050897
17270.0 0.00050737
17290.0 0.00050583
17310.0 0.00050428
17330.0 0.00050266
17350.0 0.00050101
17370.0 0.00049943
17390.0 0.0004978
17410.0 0.0004961
17430.0 0.00049444
17450.0 0.00049279
17470.0 0.00049102
17490.0 0.00048927
17510.0 0.00048756
17530.0 0.0004858
17550.0 0.00048399
17570.0 0.00048222
17590.0 0.00048045
17610.0 0.0004786
17630.0 0.00047675
17650.0 0.00047494
17670.0 0.00047308
17690.0 0.00047113
17710.0 0.00046927
17730.0 0.0004674
17750.0 0.00046545
17770.0 0.00046352
17790.0 0.00046164
17810.0 0.00045966
17830.0 0.00045766
17850.0 0.0004557
17870.0 0.00045374
17890.0 0.00045169
17910.0 0.00044966
17930.0 0.0004477
17950.0 0.00044566
17970.0 0.00044359
17990.0 0.00044157
18010.0 0.00043954
18030.0 0.00043741
18050.0 0.00043533
18070.0 0.00043328
18090.0 0.00043117
18110.0 0.00042903
18130.0 0.00042696
18150.0 0.00042486
18170.0 0.0004227
18190.0 0.00042058
18210.0 0.00041848
18230.0 0.0004163
18250.0 0.0004141
18270.0 0.00041199
18290.0 0.00040984
18310.0 0.00040764
18330.0 0.00040548
18350.0 0.00040335
18370.0 0.00040114
18390.0 0.00039893
18410.0 0.00039677
18430.0 0.00039459
18450.0 0.00039233
18470.0 0.00039014
18490.0 0.00038798
18510.0 0.00038576
18530.0 0.00038353
18550.0 0.00038137
18570.0 0.00037916
18590.0 0.0003769
18610.0 0.0003747
18630.0 0.00037251
18650.0 0.00037026
18670.0 0.00036802
18690.0 0.00036585
18710.0 0.00036364
18730.0 0.00036139
18750.0 0.0003592
18770.0 0.00035702
18790.0 0.00035474
18810.0 0.00035251
18830.0 0.00035034
18850.0 0.00034812
18870.0 0.00034588
18890.0 0.0003437
18910.0 0.00034152
18930.0 0.00033928
18950.0 0.00033707
18970.0 0.00033491
18990.0 0.00033271
19010.0 0.00033044
19030.0 0.00032829
19050.0 0.00032613
19070.0 0.00032391
19090.0 0.00032173
19110.0 0.00031961
19130.0 0.00031741
19150.0 0.0003152
19170.0 0.00031306
19190.0 0.00031092
19210.0 0.00030872
19230.0 0.00030655
19250.0 0.00030446
19270.0 0.0003023
19290.0 0.00030014
19310.0 0.00029804
19330.0 0.00029594
19350.0 0.00029375
19370.0 0.00029164
19390.0 0.00028956
19410.0 0.00028744
19430.0 0.00028531
19450.0 0.00028326
19470.0 0.00028119
19490.0 0.00027907
19510.0 0.000277
19530.0 0.00027497
19550.0 0.00027288
19570.0 0.00027078
19590.0 0.00026877
19610.0 0.00026674
19630.0 0.00026467
19650.0 0.00026266
19670.0 0.00026068
19690.0 0.00025863
19710.0 0.0002566
19730.0 0.00025463
19750.0 0.00025264
19770.0 0.0002506
19790.0 0.00024864
19810.0 0.0002467
19830.0 0.00024471
19850.0 0.00024272
19870.0 0.00024078
19890.0 0.00023875
19910.0 0.0002366
19930.0 0.00023439
19950.0 0.000232
19970.0 0.00022924
19990.0 0.00022612
20010.0 0.00021965
20030.0 0.00021578
20050.0 0.00021143
20070.0 0.00020685
20090.0 0.00020203
20110.0 0.00019673
20130.0 0.00019146
20150.0 0.00018631
20170.0 0.00018106
20190.0 0.0001758
20210.0 0.00017088
20230.0 0.0001661
20250.0 0.00016136
20270.0 0.00015696
20290.0 0.00015293
20310.0 0.0001491
20330.0 0.0001455
20350.0 0.00014246
20370.0 0.00013973
20390.0 0.00013729
20410.0 0.00013527
20430.0 0.00013364
20450.0 0.00013229
20470.0 0.0001313
20490.0 0.00013066
20510.0 0.00013031
20530.0 0.00013025
20550.0 0.00013046
20570.0 0.00013087
20590.0 0.00013153
20610.0 0.00013238
20630.0 0.00013336
20650.0 0.00013449
20670.0 0.00013583
20690.0 0.0001372
20710.0 0.00013863
20730.0 0.00014018
20750.0 0.00014179
20770.0 0.00014336
20790.0 0.000145
20810.0 0.00014671
20830.0 0.00014839
20850.0 0.00015005
20870.0 0.0001518
20890.0 0.00015357
20910.0 0.00015523
20930.0 0.00015694
20950.0 0.0001587
20970.0 0.0001604
20990.0 0.00016205
21010.0 0.00016379
21030.0 0.00016549
21050.0 0.0001671
21070.0 0.0001687
21090.0 0.00017033
21110.0 0.00017181
21130.0 0.00017321
21150.0 0.00017459
21170.0 0.00017587
21190.0 0.00017698
21210.0 0.00017803
21230.0 0.00017897
21250.0 0.0001797
21270.0 0.00018026
21290.0 0.00018065
21310.0 0.00018081
21330.0 0.00018073
21350.0 0.00018042
21370.0 0.00017982
21390.0 0.00017895
21410.0 0.00017779
21430.0 0.00017627
21450.0 0.00017446
21470.0 0.00017241
21490.0 0.00017002
21510.0 0.00016732
21530.0 0.00016449
21550.0 0.00016144
21570.0 0.00015812
21590.0 0.00015476
21610.0 0.00015141
21630.0 0.00014797
21650.0 0.0001445
21670.0 0.00014136
21690.0 0.00013835
21710.0 0.00013548
21730.0 0.00013296
21750.0 0.0001308
21770.0 0.00012889
21790.0 0.00012738
21810.0 0.00012631
21830.0 0.00012561
21850.0 0.00012532
21870.0 0.00012544
21890.0 0.0001259
21910.0 0.00012674
21930.0 0.00012793
21950.0 0.00012936
21970.0 0.00013109
21990.0 0.00013316
22010.0 0.00013534
22030.0 0.00013766
22050.0 0.00014019
22070.0 0.00014285
22090.0 0.00014544
22110.0 0.00014814
22130.0 0.00015094
22150.0 0.00015362
22170.0 0.00015622
22190.0 0.00015887
22210.0 0.0001614
22230.0 0.00016368
22250.0 0.00016587
22270.0 0.00016793
22290.0 0.00016972
22310.0 0.00017128
22330.0 0.0001727
22350.0 0.00017382
22370.0 0.00017463
22390.0 0.0001752
22410.0 0.00017546
22430.0 0.0001754
22450.0 0.00017504
22470.0 0.00017434
22490.0 0.00017332
22510.0 0.00017201
22530.0 0.00017032
22550.0 0.00016826
22570.0 0.00016597
22590.0 0.00016337
22610.0 0.00016037
22630.0 0.00015712
22650.0 0.00015375
22670.0 0.00015001
22690.0 0.00014601
22710.0 0.00014195
22730.0 0.00013775
22750.0 0.00013318
22770.0 0.00012868
22790.0 0.00012427
22810.0 0.00011972
22830.0 0.00011516
22850.0 0.00011088
22870.0 0.00010666
22890.0 0.00010246
22910.0 9.857e-05
22930.0 9.5003e-05
22950.0 9.1603e-05
22970.0 8.8458e-05
22990.0 8.5851e-05
23010.0 8.3544e-05
23030.0 8.157e-05
23050.0 8.0044e-05
23070.0 7.8946e-05
23090.0 7.8209e-05
23110.0 7.7917e-05
23130.0 7.8033e-05
