#lamb flux
1010.0 1.1715e-05
1030.0 1.2485e-05
1050.0 1.4036e-05
1070.0 1.5775e-05
1090.0 1.7593e-05
1110.0 1.9463e-05
1130.0 2.1342e-05
1150.0 2.3307e-05
1170.0 2.5317e-05
1190.0 2.7175e-05
1210.0 2.9008e-05
1230.0 3.0837e-05
1250.0 3.2572e-05
1270.0 3.4153e-05
1290.0 3.5736e-05
1310.0 3.721e-05
1330.0 3.8503e-05
1350.0 3.9735e-05
1370.0 4.0965e-05
1390.0 4.2115e-05
1410.0 4.3213e-05
1430.0 4.4424e-05
1450.0 4.5706e-05
1470.0 4.7036e-05
1490.0 4.8526e-05
1510.0 5.0283e-05
1530.0 5.2151e-05
1550.0 5.4225e-05
1570.0 5.6606e-05
1590.0 5.926e-05
1610.0 6.2132e-05
1630.0 6.5409e-05
1650.0 6.9041e-05
1670.0 7.292e-05
1690.0 7.7073e-05
1710.0 8.1586e-05
1730.0 8.6377e-05
1750.0 9.1266e-05
1770.0 9.6401e-05
1790.0 0.00010172
1810.0 0.00010704
1830.0 0.00011232
1850.0 0.00011768
1870.0 0.00012282
1890.0 0.00012765
1910.0 0.00013222
1930.0 0.00013646
1950.0 0.00014012
1970.0 0.00014322
1990.0 0.00014585
2010.0 0.00014782
2030.0 0.00014907
2050.0 0.00014977
2070.0 0.00014991
2090.0 0.00014932
2110.0 0.00014817
2130.0 0.00014661
2150.0 0.00014458
2170.0 0.00014209
2190.0 0.00013942
2210.0 0.00013656
2230.0 0.00013349
2250.0 0.00013038
2270.0 0.00012736
2290.0 0.00012438
2310.0 0.00012146
2330.0 0.00011879
2350.0 0.00011637
2370.0 0.00011417
2390.0 0.0001123
2410.0 0.00011087
2430.0 0.00010981
2450.0 0.00010919
2470.0 0.00010915
2490.0 0.00010976
2510.0 0.00011092
2530.0 0.00011299
2550.0 0.00011644
2570.0 0.00012164
2590.0 0.00012917
2610.0 0.00014082
2630.0 0.00015704
2650.0 0.00017727
2670.0 0.00020204
2690.0 0.00023092
2710.0 0.0002606
2730.0 0.00028939
2750.0 0.00031773
2770.0 0.00034342
2790.0 0.00036607
2810.0 0.0003873
2830.0 0.00040852
2850.0 0.00042924
2870.0 0.00045096
2890.0 0.00047476
2910.0 0.00050042
2930.0 0.00052732
2950.0 0.00055673
2970.0 0.00058853
2990.0 0.00062172
3010.0 0.00074412
3030.0 0.0007867
3050.0 0.00083114
3070.0 0.0008754
3090.0 0.00092019
3110.0 0.00096301
3130.0 0.0010005
3150.0 0.0010311
3170.0 0.0010506
3190.0 0.0010839
3210.0 0.0011955
3230.0 0.0013681
3250.0 0.0014399
3270.0 0.0013643
3290.0 0.0012444
3310.0 0.0011818
3330.0 0.0011562
3350.0 0.0011543
3370.0 0.0011604
3390.0 0.0011746
3410.0 0.001182
3430.0 0.0011451
3450.0 0.0011319
3470.0 0.0011283
3490.0 0.0012633
3510.0 0.0016633
3530.0 0.0020637
3550.0 0.0023515
3570.0 0.0026246
3590.0 0.0027824
3610.0 0.0027643
3630.0 0.0027145
3650.0 0.0028537
3670.0 0.0032569
3690.0 0.0037487
3710.0 0.0041826
3730.0 0.004544
3750.0 0.0048658
3770.0 0.0048074
3790.0 0.004474
3810.0 0.0041402
3830.0 0.0038165
3850.0 0.0036851
3870.0 0.0038609
3890.0 0.0042402
3910.0 0.0046286
3930.0 0.0050496
3950.0 0.0056634
3970.0 0.006107
3990.0 0.0059189
4010.0 0.0053718
4030.0 0.0047202
4050.0 0.0043228
4070.0 0.0041523
4090.0 0.0040691
4110.0 0.0041251
4130.0 0.0041297
4150.0 0.0041481
4170.0 0.0043208
4190.0 0.0046116
4210.0 0.0046069
4230.0 0.0045398
4250.0 0.0045518
4270.0 0.0046835
4290.0 0.0049282
4310.0 0.0051603
4330.0 0.0050239
4350.0 0.0045819
4370.0 0.0041477
4390.0 0.0037161
4410.0 0.0032855
4430.0 0.0031152
4450.0 0.0031782
4470.0 0.0033126
4490.0 0.0035422
4510.0 0.0040419
4530.0 0.0050782
4550.0 0.0066171
4570.0 0.0077337
4590.0 0.0085342
4610.0 0.0097043
4630.0 0.010601
4650.0 0.010263
4670.0 0.0089711
4690.0 0.0076143
4710.0 0.0066778
4730.0 0.0060687
4750.0 0.005473
4770.0 0.0050282
4790.0 0.0051777
4810.0 0.0055868
4830.0 0.0057498
4850.0 0.0056238
4870.0 0.0057617
4890.0 0.006159
4910.0 0.0065211
4930.0 0.0067553
4950.0 0.0067955
4970.0 0.0065223
4990.0 0.0059534
5010.0 0.005329
5030.0 0.004807
5050.0 0.0044607
5070.0 0.0042259
5090.0 0.0040441
5110.0 0.0039889
5130.0 0.0039872
5150.0 0.0040534
5170.0 0.0043522
5190.0 0.004835
5210.0 0.0054466
5230.0 0.0059662
5250.0 0.0063961
5270.0 0.0068779
5290.0 0.0073766
5310.0 0.0076622
5330.0 0.0076381
5350.0 0.0074154
5370.0 0.0073343
5390.0 0.0075729
5410.0 0.0080589
5430.0 0.0085626
5450.0 0.0089751
5470.0 0.0092155
5490.0 0.0091959
5510.0 0.0090516
5530.0 0.0089015
5550.0 0.0087534
5570.0 0.008544
5590.0 0.0083016
5610.0 0.0080133
5630.0 0.0075917
5650.0 0.0070237
5670.0 0.0065058
5690.0 0.006191
5710.0 0.0060045
5730.0 0.0057895
5750.0 0.0056359
5770.0 0.0055915
5790.0 0.0056098
5810.0 0.0055733
5830.0 0.0055465
5850.0 0.0055198
5870.0 0.0053711
5890.0 0.005197
5910.0 0.0049889
5930.0 0.00459
5950.0 0.0041294
5970.0 0.0037987
5990.0 0.0036298
6010.0 0.0035333
6030.0 0.0034151
6050.0 0.0033555
6070.0 0.0034899
6090.0 0.0036876
6110.0 0.0037839
6130.0 0.0037519
6150.0 0.0036791
6170.0 0.0036395
6190.0 0.0035963
6210.0 0.0034731
6230.0 0.0032391
6250.0 0.0030122
6270.0 0.002877
6290.0 0.0027896
6310.0 0.0028519
6330.0 0.0030923
6350.0 0.0033944
6370.0 0.0036116
6390.0 0.0037872
6410.0 0.0039965
6430.0 0.004157
6450.0 0.0042696
6470.0 0.0043792
6490.0 0.0044869
6510.0 0.0045628
6530.0 0.0045935
6550.0 0.0046196
6570.0 0.0045564
6590.0 0.0043895
6610.0 0.0042277
6630.0 0.0040872
6650.0 0.0039047
6670.0 0.0036891
6690.0 0.003521
6710.0 0.0034208
6730.0 0.0033204
6750.0 0.0032467
6770.0 0.0032442
6790.0 0.0032466
6810.0 0.0031913
6830.0 0.0031274
6850.0 0.0031465
6870.0 0.0031634
6890.0 0.0031088
6910.0 0.00308
6930.0 0.0030624
6950.0 0.0030069
6970.0 0.0029263
6990.0 0.0028436
7010.0 0.0027728
7030.0 0.0026846
7050.0 0.0025301
7070.0 0.0023642
7090.0 0.0023329
7110.0 0.0024182
7130.0 0.0025115
7150.0 0.0025787
7170.0 0.002655
7190.0 0.0027191
7210.0 0.0027089
7230.0 0.0027054
7250.0 0.0027547
7270.0 0.0027308
7290.0 0.002676
7310.0 0.0026776
7330.0 0.0027574
7350.0 0.0028766
7370.0 0.0029531
7390.0 0.003006
7410.0 0.0030596
7430.0 0.0030607
7450.0 0.0030159
7470.0 0.00296
7490.0 0.0028399
7510.0 0.0027234
7530.0 0.0026971
7550.0 0.0026723
7570.0 0.0026491
7590.0 0.0026639
7610.0 0.0026716
7630.0 0.002694
7650.0 0.0028047
7670.0 0.0029565
7690.0 0.003102
7710.0 0.0032112
7730.0 0.0033112
7750.0 0.0034121
7770.0 0.0035087
7790.0 0.0035961
7810.0 0.0036312
7830.0 0.0035585
7850.0 0.0034387
7870.0 0.003315
7890.0 0.0032051
7910.0 0.0031658
7930.0 0.003122
7950.0 0.0030589
7970.0 0.0029854
7990.0 0.0029509
8010.0 0.0027781
8030.0 0.0027689
8050.0 0.0027544
8070.0 0.0027217
8090.0 0.0026926
8110.0 0.0026847
8130.0 0.0026948
8150.0 0.002684
8170.0 0.0026584
8190.0 0.0025849
8210.0 0.0024523
8230.0 0.0023282
8250.0 0.0022724
8270.0 0.0021842
8290.0 0.0020162
8310.0 0.0018508
8330.0 0.0017448
8350.0 0.0016931
8370.0 0.0017483
8390.0 0.0018865
8410.0 0.0020165
8430.0 0.0021458
8450.0 0.0023122
8470.0 0.0024603
8490.0 0.0026229
8510.0 0.0027853
8530.0 0.0029449
8550.0 0.0030741
8570.0 0.0031705
8590.0 0.0032466
8610.0 0.0033223
8630.0 0.0033412
8650.0 0.0032847
8670.0 0.0032945
8690.0 0.0034144
8710.0 0.003569
8730.0 0.003621
8750.0 0.00357
8770.0 0.0035749
8790.0 0.003575
8810.0 0.0034789
8830.0 0.0032307
8850.0 0.0029236
8870.0 0.0027002
8890.0 0.0026175
8910.0 0.0025241
8930.0 0.0023532
8950.0 0.0022045
8970.0 0.0021584
8990.0 0.0021835
9010.0 0.0021802
9030.0 0.0021559
9050.0 0.0021384
9070.0 0.0021266
9090.0 0.0021158
9110.0 0.0021051
9130.0 0.0020945
9150.0 0.0020841
9170.0 0.0020736
9190.0 0.0020636
9210.0 0.0020545
9230.0 0.0020439
9250.0 0.0020336
9270.0 0.0020235
9290.0 0.0020137
9310.0 0.0020039
9330.0 0.0019943
9350.0 0.0019848
9370.0 0.0019754
9390.0 0.0019661
9410.0 0.0019568
9430.0 0.0019473
9450.0 0.0019361
9470.0 0.0019256
9490.0 0.0019187
9510.0 0.0019108
9530.0 0.0019028
9550.0 0.0018944
9570.0 0.001886
9590.0 0.0018777
9610.0 0.0018694
9630.0 0.0018609
9650.0 0.0018526
9670.0 0.0018445
9690.0 0.0018363
9710.0 0.0018282
9730.0 0.0018202
9750.0 0.0018122
9770.0 0.0018041
9790.0 0.0017961
9810.0 0.0017883
9830.0 0.0017804
9850.0 0.0017722
9870.0 0.0017646
9890.0 0.0017569
9910.0 0.0017491
9930.0 0.0017414
9950.0 0.001732
9970.0 0.0017247
9990.0 0.0017172
10010.0 0.0017095
10030.0 0.0017018
10050.0 0.0016943
10070.0 0.0016868
10090.0 0.0016793
10110.0 0.0016709
10130.0 0.0016594
10150.0 0.0016522
10170.0 0.0016456
10190.0 0.0016381
10210.0 0.0016308
10230.0 0.0016233
10250.0 0.0016152
10270.0 0.001607
10290.0 0.0015991
10310.0 0.0015907
10330.0 0.0015818
10350.0 0.0015735
10370.0 0.0015651
10390.0 0.0015561
10410.0 0.0015472
10430.0 0.0015388
10450.0 0.0015298
10470.0 0.0015205
10490.0 0.0015115
10510.0 0.0015025
10530.0 0.0014925
10550.0 0.0014829
10570.0 0.0014736
10590.0 0.0014638
10610.0 0.0014536
10630.0 0.0014439
10650.0 0.001434
10670.0 0.0014233
10690.0 0.0014129
10710.0 0.0014026
10730.0 0.0013918
10750.0 0.0013804
10770.0 0.0013698
10790.0 0.0013589
10810.0 0.0013473
10830.0 0.0013359
10850.0 0.0013248
10870.0 0.0013127
10890.0 0.0013005
10910.0 0.0012888
10930.0 0.0012768
10950.0 0.0012641
10970.0 0.0012518
10990.0 0.00124
11010.0 0.0012196
11030.0 0.0012064
11050.0 0.0011939
11070.0 0.0011817
11090.0 0.0011691
11110.0 0.0011576
11130.0 0.0011467
11150.0 0.0011359
11170.0 0.0011255
11190.0 0.0011161
11210.0 0.001107
11230.0 0.0010982
11250.0 0.0010902
11270.0 0.0010829
11290.0 0.0010758
11310.0 0.0010691
11330.0 0.0010634
11350.0 0.0010578
11370.0 0.0010523
11390.0 0.0010472
11410.0 0.0010423
11430.0 0.0010369
11450.0 0.0010315
11470.0 0.0010259
11490.0 0.0010199
11510.0 0.0010131
11530.0 0.0010061
11550.0 0.0009985
11570.0 0.00099001
11590.0 0.00098095
11610.0 0.00097155
11630.0 0.00096119
11650.0 0.0009499
11670.0 0.00093849
11690.0 0.0009265
11710.0 0.00091349
11730.0 0.0009
11750.0 0.00088645
11770.0 0.00087182
11790.0 0.00085641
11810.0 0.00084094
11830.0 0.00082501
11850.0 0.0008078
11870.0 0.0007907
11890.0 0.00077389
11910.0 0.00075646
11930.0 0.00073883
11950.0 0.000722
11970.0 0.0007053
11990.0 0.00068835
12010.0 0.00067236
12030.0 0.00065729
12050.0 0.00064249
12070.0 0.00062818
12090.0 0.00061547
12110.0 0.00060338
12130.0 0.00059187
12150.0 0.00058151
12170.0 0.00057232
12190.0 0.00056363
12210.0 0.00055607
12230.0 0.00054978
12250.0 0.00054444
12270.0 0.00054007
12290.0 0.00053684
12310.0 0.0005346
12330.0 0.00053325
12350.0 0.00053277
12370.0 0.000533
12390.0 0.00053386
12410.0 0.00053541
12430.0 0.00053723
12450.0 0.00053929
12470.0 0.00054168
12490.0 0.00054419
12510.0 0.00054656
12530.0 0.000549
12550.0 0.00055143
12570.0 0.00055355
12590.0 0.00055538
12610.0 0.00055702
12630.0 0.00055821
12650.0 0.00055876
12670.0 0.00055882
12690.0 0.00055823
12710.0 0.00055691
12730.0 0.00055486
12750.0 0.00055198
12770.0 0.00054831
12790.0 0.00054396
12810.0 0.00053887
12830.0 0.00053304
12850.0 0.00052688
12870.0 0.00052035
12890.0 0.00051335
12910.0 0.00050625
12930.0 0.00049927
12950.0 0.00049211
12970.0 0.00048496
12990.0 0.00047827
13010.0 0.00047179
13030.0 0.0004654
13050.0 0.00045937
13070.0 0.00045378
13090.0 0.00044827
13110.0 0.000443
13130.0 0.0004381
13150.0 0.00043343
13170.0 0.00042883
13190.0 0.00042456
13210.0 0.00042059
13230.0 0.00041673
13250.0 0.00041304
13270.0 0.00040963
13290.0 0.00040635
13310.0 0.00040312
13330.0 0.00040007
13350.0 0.00039714
13370.0 0.0003942
13390.0 0.00039124
13410.0 0.00038839
13430.0 0.00038546
13450.0 0.00038241
13470.0 0.00037932
13490.0 0.00037619
13510.0 0.00037279
13530.0 0.0003693
13550.0 0.00036578
13570.0 0.00036212
13590.0 0.00035827
13610.0 0.00035443
13630.0 0.0003506
13650.0 0.0003466
13670.0 0.00034258
13690.0 0.00033868
13710.0 0.00033473
13730.0 0.00033064
13750.0 0.00032678
13770.0 0.00032299
13790.0 0.00031915
13810.0 0.00031538
13830.0 0.00031183
13850.0 0.00030825
13870.0 0.0003047
13890.0 0.00030137
13910.0 0.00029818
13930.0 0.00029502
13950.0 0.00029203
13970.0 0.00028934
13990.0 0.00028673
14010.0 0.00028426
14030.0 0.00028201
14050.0 0.00027994
14070.0 0.00027791
14090.0 0.00027606
14110.0 0.00027438
14130.0 0.00027275
14150.0 0.00027118
14170.0 0.00026976
14190.0 0.00026839
14210.0 0.00026703
14230.0 0.00026574
14250.0 0.00026453
14270.0 0.0002633
14290.0 0.00026209
14310.0 0.00026096
14330.0 0.00025985
14350.0 0.00025872
14370.0 0.00025763
14390.0 0.0002566
14410.0 0.00025554
14430.0 0.00025448
14450.0 0.00025349
14470.0 0.0002525
14490.0 0.00025148
14510.0 0.00025051
14530.0 0.00024957
14550.0 0.0002486
14570.0 0.00024762
14590.0 0.00024666
14610.0 0.00024567
14630.0 0.00024461
14650.0 0.00024359
14670.0 0.00024261
14690.0 0.00024165
14710.0 0.00024078
14730.0 0.00024016
14750.0 0.00023975
14770.0 0.00023967
14790.0 0.00024003
14810.0 0.00024085
14830.0 0.00024232
14850.0 0.00024443
14870.0 0.00024712
14890.0 0.00025046
14910.0 0.00025444
14930.0 0.00025867
14950.0 0.00026296
14970.0 0.00026733
14990.0 0.00027132
15010.0 0.00027469
15030.0 0.0002775
15050.0 0.00027976
15070.0 0.00028136
15090.0 0.00028257
15110.0 0.00028352
15130.0 0.00028428
15150.0 0.00028496
15170.0 0.00028559
15190.0 0.00028621
15210.0 0.00028683
15230.0 0.00028747
15250.0 0.00028811
15270.0 0.00028877
15290.0 0.00028944
15310.0 0.00029013
15330.0 0.00029083
15350.0 0.00029154
15370.0 0.00029227
15390.0 0.00029301
15410.0 0.00029376
15430.0 0.00029452
15450.0 0.0002953
15470.0 0.00029608
15490.0 0.00029689
15510.0 0.0002977
15530.0 0.00029852
15550.0 0.00029936
15570.0 0.00030021
15590.0 0.00030106
15610.0 0.00030193
15630.0 0.00030281
15650.0 0.0003037
15670.0 0.0003046
15690.0 0.00030551
15710.0 0.00030644
15730.0 0.00030737
15750.0 0.0003083
15770.0 0.00030925
15790.0 0.00031021
15810.0 0.00031118
15830.0 0.00031215
15850.0 0.00031313
15870.0 0.00031412
15890.0 0.00031512
15910.0 0.00031613
15930.0 0.00031714
15950.0 0.00031816
15970.0 0.00031918
15990.0 0.00032021
16010.0 0.00032125
16030.0 0.00032229
16050.0 0.00032334
16070.0 0.00032439
16090.0 0.00032545
16110.0 0.00032651
16130.0 0.00032758
16150.0 0.00032865
16170.0 0.00032972
16190.0 0.00033079
16210.0 0.00033187
16230.0 0.00033295
16250.0 0.00033403
16270.0 0.00033511
16290.0 0.0003362
16310.0 0.00033728
16330.0 0.00033837
16350.0 0.00033945
16370.0 0.00034053
16390.0 0.00034162
16410.0 0.0003427
16430.0 0.00034378
16450.0 0.00034486
16470.0 0.00034594
16490.0 0.00034701
16510.0 0.00034808
16530.0 0.00034915
16550.0 0.00035021
16570.0 0.00035127
16590.0 0.00035232
16610.0 0.00035337
16630.0 0.00035441
16650.0 0.00035545
16670.0 0.00035648
16690.0 0.0003575
16710.0 0.00035852
16730.0 0.00035952
16750.0 0.00036052
16770.0 0.00036152
16790.0 0.0003625
16810.0 0.00036347
16830.0 0.00036444
16850.0 0.00036539
16870.0 0.00036633
16890.0 0.00036727
16910.0 0.00036819
16930.0 0.0003691
16950.0 0.00036999
16970.0 0.00037088
16990.0 0.00037175
17010.0 0.00037261
17030.0 0.00037345
17050.0 0.00037429
17070.0 0.0003751
17090.0 0.0003759
17110.0 0.00037669
17130.0 0.00037746
17150.0 0.00037822
17170.0 0.00037896
17190.0 0.00037968
17210.0 0.00038038
17230.0 0.00038107
17250.0 0.00038174
17270.0 0.00038239
17290.0 0.00038303
17310.0 0.00038364
17330.0 0.00038424
17350.0 0.00038482
17370.0 0.00038538
17390.0 0.00038592
17410.0 0.00038643
17430.0 0.00038693
17450.0 0.00038741
17470.0 0.00038787
17490.0 0.0003883
17510.0 0.00038872
17530.0 0.00038911
17550.0 0.00038948
17570.0 0.00038983
17590.0 0.00039016
17610.0 0.00039046
17630.0 0.00039074
17650.0 0.000391
17670.0 0.00039124
17690.0 0.00039145
17710.0 0.00039164
17730.0 0.00039181
17750.0 0.00039195
17770.0 0.00039207
17790.0 0.00039217
17810.0 0.00039224
17830.0 0.00039228
17850.0 0.00039231
17870.0 0.00039231
17890.0 0.00039228
17910.0 0.00039223
17930.0 0.00039216
17950.0 0.00039206
17970.0 0.00039193
17990.0 0.00039179
18010.0 0.00039161
18030.0 0.00039141
18050.0 0.00039119
18070.0 0.00039095
18090.0 0.00039068
18110.0 0.00039038
18130.0 0.00039006
18150.0 0.00038972
18170.0 0.00038935
18190.0 0.00038895
18210.0 0.00038854
18230.0 0.0003881
18250.0 0.00038763
18270.0 0.00038714
18290.0 0.00038663
18310.0 0.00038609
18330.0 0.00038553
18350.0 0.00038494
18370.0 0.00038433
18390.0 0.0003837
18410.0 0.00038305
18430.0 0.00038237
18450.0 0.00038167
18470.0 0.00038095
18490.0 0.0003802
18510.0 0.00037943
18530.0 0.00037864
18550.0 0.00037783
18570.0 0.000377
18590.0 0.00037614
18610.0 0.00037526
18630.0 0.00037437
18650.0 0.00037345
18670.0 0.00037251
18690.0 0.00037155
18710.0 0.00037057
18730.0 0.00036957
18750.0 0.00036855
18770.0 0.00036751
18790.0 0.00036645
18810.0 0.00036537
18830.0 0.00036428
18850.0 0.00036317
18870.0 0.00036203
18890.0 0.00036088
18910.0 0.00035972
18930.0 0.00035853
18950.0 0.00035733
18970.0 0.00035611
18990.0 0.00035488
19010.0 0.00035363
19030.0 0.00035236
19050.0 0.00035108
19070.0 0.00034978
19090.0 0.00034847
19110.0 0.00034715
19130.0 0.0003458
19150.0 0.00034445
19170.0 0.00034308
19190.0 0.0003417
19210.0 0.00034031
19230.0 0.0003389
19250.0 0.00033748
19270.0 0.00033605
19290.0 0.00033461
19310.0 0.00033315
19330.0 0.00033169
19350.0 0.00033021
19370.0 0.00032872
19390.0 0.00032723
19410.0 0.00032572
19430.0 0.0003242
19450.0 0.00032268
19470.0 0.00032115
19490.0 0.0003196
19510.0 0.00031805
19530.0 0.0003165
19550.0 0.00031493
19570.0 0.00031335
19590.0 0.00031177
19610.0 0.00031019
19630.0 0.00030859
19650.0 0.00030699
19670.0 0.00030539
19690.0 0.00030378
19710.0 0.00030216
19730.0 0.00030054
19750.0 0.00029892
19770.0 0.00029729
19790.0 0.00029565
19810.0 0.00029401
19830.0 0.00029236
19850.0 0.0002907
19870.0 0.00028901
19890.0 0.00028727
19910.0 0.00028542
19930.0 0.00028343
19950.0 0.00028122
19970.0 0.00027867
19990.0 0.00027571
20010.0 0.00027239
20030.0 0.00026859
20050.0 0.00026433
20070.0 0.00025983
20090.0 0.00025512
20110.0 0.00025005
20130.0 0.00024502
20150.0 0.00024011
20170.0 0.00023514
20190.0 0.0002302
20210.0 0.00022551
20230.0 0.00022092
20250.0 0.00021634
20270.0 0.00021198
20290.0 0.00020786
20310.0 0.00020382
20330.0 0.00019988
20350.0 0.0001963
20370.0 0.00019288
20390.0 0.00018959
20410.0 0.00018654
20430.0 0.00018374
20450.0 0.00018105
20470.0 0.00017856
20490.0 0.00017631
20510.0 0.00017422
20530.0 0.00017228
20550.0 0.00017051
20570.0 0.0001689
20590.0 0.00016741
20610.0 0.00016603
20630.0 0.00016476
20650.0 0.00016356
20670.0 0.00016244
20690.0 0.00016137
20710.0 0.00016032
20730.0 0.0001593
20750.0 0.00015829
20770.0 0.00015726
20790.0 0.00015621
20810.0 0.00015512
20830.0 0.000154
20850.0 0.00015282
20870.0 0.00015158
20890.0 0.00015028
20910.0 0.00014893
20930.0 0.00014751
20950.0 0.00014602
20970.0 0.00014448
20990.0 0.0001429
21010.0 0.00014124
21030.0 0.00013954
21050.0 0.00013783
21070.0 0.00013608
21090.0 0.00013427
21110.0 0.00013248
21130.0 0.0001307
21150.0 0.00012888
21170.0 0.00012707
21190.0 0.0001253
21210.0 0.00012352
21230.0 0.00012173
21250.0 0.00012
21270.0 0.0001183
21290.0 0.00011659
21310.0 0.00011493
21330.0 0.00011335
21350.0 0.00011177
21370.0 0.00011022
21390.0 0.00010875
21410.0 0.00010732
21430.0 0.00010591
21450.0 0.00010457
21470.0 0.00010331
21490.0 0.00010208
21510.0 0.00010091
21530.0 9.9807e-05
21550.0 9.8754e-05
21570.0 9.774e-05
21590.0 9.6784e-05
21610.0 9.5877e-05
21630.0 9.5005e-05
21650.0 9.4167e-05
21670.0 9.3371e-05
21690.0 9.2598e-05
21710.0 9.1846e-05
21730.0 9.1113e-05
21750.0 9.0397e-05
21770.0 8.9688e-05
21790.0 8.8987e-05
21810.0 8.8294e-05
21830.0 8.7604e-05
21850.0 8.6913e-05
21870.0 8.6225e-05
21890.0 8.5538e-05
21910.0 8.4848e-05
21930.0 8.4156e-05
21950.0 8.3465e-05
21970.0 8.2769e-05
21990.0 8.2063e-05
22010.0 8.1357e-05
22030.0 8.0646e-05
22050.0 7.9922e-05
22070.0 7.9188e-05
22090.0 7.845e-05
22110.0 7.7697e-05
22130.0 7.6923e-05
22150.0 7.6142e-05
22170.0 7.535e-05
22190.0 7.4528e-05
22210.0 7.369e-05
22230.0 7.2853e-05
22250.0 7.1991e-05
22270.0 7.1106e-05
22290.0 7.0219e-05
22310.0 6.9324e-05
22330.0 6.8394e-05
22350.0 6.7458e-05
22370.0 6.6526e-05
22390.0 6.5574e-05
22410.0 6.4595e-05
22430.0 6.3635e-05
22450.0 6.2672e-05
22470.0 6.1684e-05
22490.0 6.07e-05
22510.0 5.9735e-05
22530.0 5.8748e-05
22550.0 5.7753e-05
22570.0 5.6791e-05
22590.0 5.5838e-05
22610.0 5.4877e-05
22630.0 5.394e-05
22650.0 5.3046e-05
22670.0 5.2151e-05
22690.0 5.1276e-05
22710.0 5.0445e-05
22730.0 4.9645e-05
22750.0 4.8848e-05
22770.0 4.8103e-05
22790.0 4.7402e-05
22810.0 4.6723e-05
22830.0 4.6074e-05
22850.0 4.5473e-05
22870.0 4.4899e-05
22890.0 4.4344e-05
22910.0 4.3827e-05
22930.0 4.3341e-05
22950.0 4.2872e-05
22970.0 4.242e-05
22990.0 4.2002e-05
23010.0 4.1597e-05
23030.0 4.1202e-05
23050.0 4.0825e-05
23070.0 4.0463e-05
