#lamb flux
1010.0 3.3187e-10
1030.0 4.3028e-10
1050.0 5.5302e-10
1070.0 7.036e-10
1090.0 8.8955e-10
1110.0 1.1022e-09
1130.0 1.3405e-09
1150.0 1.6132e-09
1170.0 1.9189e-09
1190.0 2.2395e-09
1210.0 2.5841e-09
1230.0 2.9534e-09
1250.0 3.3289e-09
1270.0 3.6998e-09
1290.0 4.0777e-09
1310.0 4.4396e-09
1330.0 4.764e-09
1350.0 5.0554e-09
1370.0 5.3117e-09
1390.0 5.5109e-09
1410.0 5.6484e-09
1430.0 5.7421e-09
1450.0 5.7809e-09
1470.0 5.7604e-09
1490.0 5.697e-09
1510.0 5.6058e-09
1530.0 5.4707e-09
1550.0 5.3099e-09
1570.0 5.1407e-09
1590.0 4.9625e-09
1610.0 4.7754e-09
1630.0 4.5968e-09
1650.0 4.4296e-09
1670.0 4.2693e-09
1690.0 4.1218e-09
1710.0 3.9946e-09
1730.0 3.8843e-09
1750.0 3.7851e-09
1770.0 3.7062e-09
1790.0 3.646e-09
1810.0 3.5992e-09
1830.0 3.5668e-09
1850.0 3.6165e-09
1870.0 3.7279e-09
1890.0 3.8322e-09
1910.0 3.9343e-09
1930.0 4.0347e-09
1950.0 4.121e-09
1970.0 4.203e-09
1990.0 4.289e-09
2010.0 4.3745e-09
2030.0 4.4579e-09
2050.0 4.5448e-09
2070.0 4.6244e-09
2090.0 4.6952e-09
2110.0 4.7636e-09
2130.0 4.8324e-09
2150.0 4.8978e-09
2170.0 4.958e-09
2190.0 5.0198e-09
2210.0 5.1259e-09
2230.0 5.2851e-09
2250.0 5.4488e-09
2270.0 5.6205e-09
2290.0 5.7933e-09
2310.0 5.9656e-09
2330.0 6.1429e-09
2350.0 6.3227e-09
2370.0 6.4995e-09
2390.0 6.6772e-09
2410.0 6.8585e-09
2430.0 7.0363e-09
2450.0 7.212e-09
2470.0 7.3935e-09
2490.0 7.5859e-09
2510.0 7.7895e-09
2530.0 8.0275e-09
2550.0 8.3298e-09
2570.0 8.7175e-09
2590.0 9.2194e-09
2610.0 9.9312e-09
2630.0 1.0884e-08
2650.0 1.2066e-08
2670.0 1.355e-08
2690.0 1.5381e-08
2710.0 1.7423e-08
2730.0 1.96e-08
2750.0 2.1982e-08
2770.0 2.4355e-08
2790.0 2.6545e-08
2810.0 2.8572e-08
2830.0 3.0433e-08
2850.0 3.1922e-08
2870.0 3.3172e-08
2890.0 3.428e-08
2910.0 3.5255e-08
2930.0 3.6116e-08
2950.0 3.6978e-08
2970.0 3.7855e-08
2990.0 3.8718e-08
3010.0 3.9602e-08
3030.0 4.0555e-08
3050.0 4.1552e-08
3070.0 4.255e-08
3090.0 4.3626e-08
3110.0 4.4789e-08
3130.0 4.6055e-08
3150.0 4.7168e-08
3170.0 4.8825e-08
3190.0 5.108e-08
3210.0 5.42e-08
3230.0 5.8676e-08
3250.0 6.5244e-08
3270.0 7.2707e-08
3290.0 8.2548e-08
3310.0 9.8695e-08
3330.0 1.046e-07
3350.0 1.0785e-07
3370.0 1.1106e-07
3390.0 1.143e-07
3410.0 1.174e-07
3430.0 1.204e-07
3450.0 1.2336e-07
3470.0 1.2633e-07
3490.0 1.2896e-07
3510.0 1.3033e-07
3530.0 1.2806e-07
3550.0 1.2474e-07
3570.0 1.2822e-07
3590.0 1.4064e-07
3610.0 1.549e-07
3630.0 1.6571e-07
3650.0 1.6095e-07
3670.0 1.4568e-07
3690.0 1.344e-07
3710.0 1.3332e-07
3730.0 1.377e-07
3750.0 1.4037e-07
3770.0 1.4509e-07
3790.0 1.5029e-07
3810.0 1.5024e-07
3830.0 1.3969e-07
3850.0 1.2877e-07
3870.0 1.2335e-07
3890.0 1.2379e-07
3910.0 1.2249e-07
3930.0 1.2119e-07
3950.0 1.2521e-07
3970.0 1.2988e-07
3990.0 1.3038e-07
4010.0 1.2683e-07
4030.0 1.1991e-07
4050.0 1.1507e-07
4070.0 1.1098e-07
4090.0 1.0829e-07
4110.0 1.0516e-07
4130.0 9.9224e-08
4150.0 9.2782e-08
4170.0 8.8928e-08
4190.0 8.3725e-08
4210.0 7.5558e-08
4230.0 6.749e-08
4250.0 5.9461e-08
4270.0 5.3018e-08
4290.0 4.9252e-08
4310.0 4.7051e-08
4330.0 4.6905e-08
4350.0 4.8614e-08
4370.0 4.9054e-08
4390.0 5.1778e-08
4410.0 5.3589e-08
4430.0 5.2705e-08
4450.0 4.7473e-08
4470.0 4.2447e-08
4490.0 4.0157e-08
4510.0 3.8401e-08
4530.0 3.7429e-08
4550.0 3.6496e-08
4570.0 3.6246e-08
4590.0 3.6763e-08
4610.0 3.7033e-08
4630.0 3.7182e-08
4650.0 3.6903e-08
4670.0 3.6028e-08
4690.0 3.3463e-08
4710.0 3.1139e-08
4730.0 2.9285e-08
4750.0 2.8215e-08
4770.0 2.8586e-08
4790.0 2.8448e-08
4810.0 2.7861e-08
4830.0 2.8338e-08
4850.0 2.9044e-08
4870.0 2.9457e-08
4890.0 2.8993e-08
4910.0 2.7941e-08
4930.0 2.6256e-08
4950.0 2.437e-08
4970.0 2.2716e-08
4990.0 2.1358e-08
5010.0 2.1156e-08
5030.0 2.1844e-08
5050.0 2.2346e-08
5070.0 2.3208e-08
5090.0 2.4596e-08
5110.0 2.4917e-08
5130.0 2.5165e-08
5150.0 2.5533e-08
5170.0 2.5937e-08
5190.0 2.6594e-08
5210.0 2.6687e-08
5230.0 2.6466e-08
5250.0 2.6533e-08
5270.0 2.6791e-08
5290.0 2.681e-08
5310.0 2.665e-08
5330.0 2.6098e-08
5350.0 2.5943e-08
5370.0 2.5619e-08
5390.0 2.5164e-08
5410.0 2.493e-08
5430.0 2.4782e-08
5450.0 2.5315e-08
5470.0 2.5792e-08
5490.0 2.7117e-08
5510.0 2.7876e-08
5530.0 2.8256e-08
5550.0 2.847e-08
5570.0 2.8935e-08
5590.0 2.89e-08
5610.0 2.8741e-08
5630.0 2.8732e-08
5650.0 2.8468e-08
5670.0 2.7858e-08
5690.0 2.7261e-08
5710.0 2.68e-08
5730.0 2.7285e-08
5750.0 2.621e-08
5770.0 2.4794e-08
5790.0 2.3431e-08
5810.0 2.1087e-08
5830.0 2.2299e-08
5850.0 2.3777e-08
5870.0 2.39e-08
5890.0 2.3989e-08
5910.0 2.4615e-08
5930.0 2.4404e-08
5950.0 2.4211e-08
5970.0 2.397e-08
5990.0 2.3876e-08
6010.0 2.3071e-08
6030.0 2.2437e-08
6050.0 2.2052e-08
6070.0 2.1582e-08
6090.0 2.1509e-08
6110.0 2.0972e-08
6130.0 2.0112e-08
6150.0 1.9401e-08
6170.0 1.875e-08
6190.0 1.7342e-08
6210.0 1.6841e-08
6230.0 1.6803e-08
6250.0 1.6445e-08
6270.0 1.6108e-08
6290.0 1.6236e-08
6310.0 1.6456e-08
6330.0 1.6182e-08
6350.0 1.5629e-08
6370.0 1.547e-08
6390.0 1.484e-08
6410.0 1.4592e-08
6430.0 1.406e-08
6450.0 1.3872e-08
6470.0 1.3706e-08
6490.0 1.3584e-08
6510.0 1.3053e-08
6530.0 1.2826e-08
6550.0 1.2552e-08
6570.0 1.219e-08
6590.0 1.2367e-08
6610.0 1.2319e-08
6630.0 1.1982e-08
6650.0 1.1504e-08
6670.0 1.1291e-08
6690.0 1.1065e-08
6710.0 1.0734e-08
6730.0 1.0576e-08
6750.0 1.0658e-08
6770.0 1.1022e-08
6790.0 1.1477e-08
6810.0 1.1074e-08
6830.0 1.0333e-08
6850.0 9.7602e-09
6870.0 9.62e-09
6890.0 9.593e-09
6910.0 9.598e-09
6930.0 9.543e-09
6950.0 9.6517e-09
6970.0 9.3968e-09
6990.0 9.3137e-09
7010.0 9.4244e-09
7030.0 9.5915e-09
7050.0 9.4647e-09
7070.0 9.0329e-09
7090.0 8.7824e-09
7110.0 9.0227e-09
7130.0 9.0438e-09
7150.0 9.1456e-09
7170.0 9.1863e-09
7190.0 9.2833e-09
7210.0 9.5232e-09
7230.0 9.8966e-09
7250.0 9.9932e-09
7270.0 1.0124e-08
7290.0 1.0403e-08
7310.0 1.0356e-08
7330.0 1.0224e-08
7350.0 9.9638e-09
7370.0 1.0045e-08
7390.0 1.0288e-08
7410.0 9.9318e-09
7430.0 1.0114e-08
7450.0 1.0153e-08
7470.0 1.0537e-08
7490.0 1.0543e-08
7510.0 1.024e-08
7530.0 1.0502e-08
7550.0 1.0266e-08
7570.0 1.0288e-08
7590.0 9.8573e-09
7610.0 1.0122e-08
7630.0 1.0446e-08
7650.0 1.0848e-08
7670.0 1.045e-08
7690.0 1.1023e-08
7710.0 1.1316e-08
7730.0 1.1537e-08
7750.0 1.2024e-08
7770.0 1.1942e-08
7790.0 1.1866e-08
7810.0 1.2246e-08
7830.0 1.2951e-08
7850.0 1.2865e-08
7870.0 1.3441e-08
7890.0 1.3328e-08
7910.0 1.3247e-08
7930.0 1.3227e-08
7950.0 1.3925e-08
7970.0 1.3847e-08
7990.0 1.2942e-08
8010.0 8.3675e-09
8030.0 8.8939e-09
8050.0 9.2835e-09
8070.0 8.0071e-09
8090.0 3.6166e-09
8110.0 4.2329e-09
8130.0 7.6641e-09
8150.0 8.2309e-09
8170.0 8.5117e-09
8190.0 8.4284e-09
8210.0 8.6261e-09
8230.0 9.8602e-09
8250.0 1.0296e-08
8270.0 9.2195e-09
8290.0 8.5996e-09
8310.0 8.7375e-09
8330.0 9.8971e-09
8350.0 1.0388e-08
8370.0 9.9171e-09
8390.0 9.3883e-09
8410.0 9.4315e-09
8430.0 8.7196e-09
8450.0 9.2955e-09
8470.0 1.0117e-08
8490.0 1.0147e-08
8510.0 9.4461e-09
8530.0 8.3739e-09
8550.0 7.8643e-09
8570.0 7.6555e-09
8590.0 7.8603e-09
8610.0 8.695e-09
8630.0 8.7107e-09
8650.0 8.8991e-09
8670.0 8.398e-09
8690.0 8.2216e-09
8710.0 7.3095e-09
8730.0 7.1773e-09
8750.0 7.8251e-09
8770.0 8.0941e-09
8790.0 7.6183e-09
8810.0 8.0225e-09
8830.0 8.4303e-09
8850.0 8.697e-09
8870.0 8.0791e-09
8890.0 7.8216e-09
8910.0 7.669e-09
8930.0 6.7112e-09
8950.0 6.7998e-09
8970.0 6.9666e-09
8990.0 6.6128e-09
9010.0 6.2446e-09
9030.0 6.0863e-09
9050.0 6.0229e-09
9070.0 5.9657e-09
9090.0 5.9081e-09
9110.0 5.85e-09
9130.0 5.7918e-09
9150.0 5.7338e-09
9170.0 5.6756e-09
9190.0 5.6173e-09
9210.0 5.5589e-09
9230.0 5.5006e-09
9250.0 5.4424e-09
9270.0 5.3844e-09
9290.0 5.3265e-09
9310.0 5.2655e-09
9330.0 5.1996e-09
9350.0 5.1341e-09
9370.0 5.069e-09
9390.0 5.0046e-09
9410.0 4.9405e-09
9430.0 4.8769e-09
9450.0 4.8141e-09
9470.0 4.7503e-09
9490.0 4.6878e-09
9510.0 4.6276e-09
9530.0 4.568e-09
9550.0 4.5085e-09
9570.0 4.4496e-09
9590.0 4.3915e-09
9610.0 4.3281e-09
9630.0 4.2646e-09
9650.0 4.2022e-09
9670.0 4.141e-09
9690.0 4.0803e-09
9710.0 4.0204e-09
9730.0 3.9617e-09
9750.0 3.9038e-09
9770.0 3.8463e-09
9790.0 3.7902e-09
9810.0 3.735e-09
9830.0 3.6805e-09
9850.0 3.6288e-09
9870.0 3.5803e-09
9890.0 3.526e-09
9910.0 3.4735e-09
9930.0 3.4234e-09
9950.0 3.3739e-09
9970.0 3.3248e-09
9990.0 3.2769e-09
10010.0 3.2301e-09
10030.0 3.1842e-09
10050.0 3.139e-09
10070.0 3.0948e-09
10090.0 3.0514e-09
10110.0 3.0087e-09
10130.0 2.9668e-09
10150.0 2.9257e-09
10170.0 2.8853e-09
10190.0 2.8456e-09
10210.0 2.8067e-09
10230.0 2.7686e-09
10250.0 2.7311e-09
10270.0 2.6942e-09
10290.0 2.6582e-09
10310.0 2.6226e-09
10330.0 2.5877e-09
10350.0 2.5535e-09
10370.0 2.52e-09
10390.0 2.4865e-09
10410.0 2.4481e-09
10430.0 2.4084e-09
10450.0 2.3838e-09
10470.0 2.3561e-09
10490.0 2.3283e-09
10510.0 2.3003e-09
10530.0 2.2713e-09
10550.0 2.2429e-09
10570.0 2.2154e-09
10590.0 2.1878e-09
10610.0 2.1604e-09
10630.0 2.1341e-09
10650.0 2.1082e-09
10670.0 2.0819e-09
10690.0 2.0564e-09
10710.0 2.0318e-09
10730.0 2.0071e-09
10750.0 1.9822e-09
10770.0 1.9588e-09
10790.0 1.9356e-09
10810.0 1.9122e-09
10830.0 1.8894e-09
10850.0 1.8676e-09
10870.0 1.8451e-09
10890.0 1.823e-09
10910.0 1.8021e-09
10930.0 1.7815e-09
10950.0 1.7611e-09
10970.0 1.7418e-09
10990.0 1.7239e-09
11010.0 4.3178e-09
11030.0 4.2869e-09
11050.0 4.2551e-09
11070.0 4.2218e-09
11090.0 4.1861e-09
11110.0 4.1506e-09
11130.0 4.1148e-09
11150.0 4.0777e-09
11170.0 4.04e-09
11190.0 4.0033e-09
11210.0 3.9658e-09
11230.0 3.9276e-09
11250.0 3.8904e-09
11270.0 3.854e-09
11290.0 3.8172e-09
11310.0 3.7812e-09
11330.0 3.7478e-09
11350.0 3.715e-09
11370.0 3.683e-09
11390.0 3.6531e-09
11410.0 3.6247e-09
11430.0 3.5965e-09
11450.0 3.5698e-09
11470.0 3.5446e-09
11490.0 3.5197e-09
11510.0 3.4948e-09
11530.0 3.471e-09
11550.0 3.4475e-09
11570.0 3.4232e-09
11590.0 3.399e-09
11610.0 3.3751e-09
11630.0 3.3502e-09
11650.0 3.3244e-09
11670.0 3.2991e-09
11690.0 3.2734e-09
11710.0 3.2467e-09
11730.0 3.2199e-09
11750.0 3.1936e-09
11770.0 3.1664e-09
11790.0 3.1388e-09
11810.0 3.112e-09
11830.0 3.0854e-09
11850.0 3.0579e-09
11870.0 3.0316e-09
11890.0 3.0064e-09
11910.0 2.9814e-09
11930.0 2.957e-09
11950.0 2.9343e-09
11970.0 2.9124e-09
11990.0 2.891e-09
12010.0 2.8713e-09
12030.0 2.853e-09
12050.0 2.8357e-09
12070.0 2.8193e-09
12090.0 2.8049e-09
12110.0 2.7914e-09
12130.0 2.7788e-09
12150.0 2.7674e-09
12170.0 2.757e-09
12190.0 2.747e-09
12210.0 2.7375e-09
12230.0 2.7285e-09
12250.0 2.7195e-09
12270.0 2.7103e-09
12290.0 2.7007e-09
12310.0 2.6909e-09
12330.0 2.6799e-09
12350.0 2.6681e-09
12370.0 2.6555e-09
12390.0 2.6416e-09
12410.0 2.6259e-09
12430.0 2.6096e-09
12450.0 2.5923e-09
12470.0 2.5733e-09
12490.0 2.5532e-09
12510.0 2.5328e-09
12530.0 2.511e-09
12550.0 2.4879e-09
12570.0 2.4648e-09
12590.0 2.4413e-09
12610.0 2.4165e-09
12630.0 2.3913e-09
12650.0 2.3673e-09
12670.0 2.3426e-09
12690.0 2.3176e-09
12710.0 2.2936e-09
12730.0 2.2702e-09
12750.0 2.2462e-09
12770.0 2.2233e-09
12790.0 2.2018e-09
12810.0 2.1807e-09
12830.0 2.16e-09
12850.0 2.1412e-09
12870.0 2.1235e-09
12890.0 2.1063e-09
12910.0 2.0905e-09
12930.0 2.0764e-09
12950.0 2.0631e-09
12970.0 2.0511e-09
12990.0 2.0409e-09
13010.0 2.032e-09
13030.0 2.0244e-09
13050.0 2.0182e-09
13070.0 2.0133e-09
13090.0 2.0095e-09
13110.0 2.0066e-09
13130.0 2.0046e-09
13150.0 2.0031e-09
13170.0 2.0018e-09
13190.0 2.0006e-09
13210.0 1.9992e-09
13230.0 1.9974e-09
13250.0 1.9949e-09
13270.0 1.9917e-09
13290.0 1.9877e-09
13310.0 1.9824e-09
13330.0 1.9763e-09
13350.0 1.9692e-09
13370.0 1.9608e-09
13390.0 1.9511e-09
13410.0 1.9409e-09
13430.0 1.9297e-09
13450.0 1.9171e-09
13470.0 1.9039e-09
13490.0 1.8902e-09
13510.0 1.875e-09
13530.0 1.8591e-09
13550.0 1.8433e-09
13570.0 1.8267e-09
13590.0 1.8092e-09
13610.0 1.7918e-09
13630.0 1.7747e-09
13650.0 1.7565e-09
13670.0 1.7382e-09
13690.0 1.7205e-09
13710.0 1.7024e-09
13730.0 1.6835e-09
13750.0 1.6656e-09
13770.0 1.6481e-09
13790.0 1.6301e-09
13810.0 1.6124e-09
13830.0 1.5958e-09
13850.0 1.579e-09
13870.0 1.5622e-09
13890.0 1.5465e-09
13910.0 1.5313e-09
13930.0 1.516e-09
13950.0 1.5012e-09
13970.0 1.4878e-09
13990.0 1.4745e-09
14010.0 1.4614e-09
14030.0 1.4494e-09
14050.0 1.4379e-09
14070.0 1.4264e-09
14090.0 1.4158e-09
14110.0 1.4061e-09
14130.0 1.3966e-09
14150.0 1.3874e-09
14170.0 1.3792e-09
14190.0 1.3714e-09
14210.0 1.3637e-09
14230.0 1.3565e-09
14250.0 1.3498e-09
14270.0 1.3431e-09
14290.0 1.3365e-09
14310.0 1.3305e-09
14330.0 1.3246e-09
14350.0 1.3187e-09
14370.0 1.3131e-09
14390.0 1.3078e-09
14410.0 1.3024e-09
14430.0 1.2971e-09
14450.0 1.2921e-09
14470.0 1.2872e-09
14490.0 1.2822e-09
14510.0 1.2774e-09
14530.0 1.2728e-09
14550.0 1.2681e-09
14570.0 1.2634e-09
14590.0 1.2589e-09
14610.0 1.2543e-09
14630.0 1.2494e-09
14650.0 1.2446e-09
14670.0 1.2399e-09
14690.0 1.2349e-09
14710.0 1.2298e-09
14730.0 1.2249e-09
14750.0 1.2198e-09
14770.0 1.2144e-09
14790.0 1.2091e-09
14810.0 1.2038e-09
14830.0 1.1979e-09
14850.0 1.192e-09
14870.0 1.1863e-09
14890.0 1.1803e-09
14910.0 1.1742e-09
14930.0 1.1684e-09
14950.0 1.163e-09
14970.0 1.1576e-09
14990.0 1.1528e-09
15010.0 1.1487e-09
15030.0 1.1451e-09
15050.0 1.1418e-09
15070.0 1.1391e-09
15090.0 1.1368e-09
15110.0 1.1346e-09
15130.0 1.1325e-09
15150.0 1.1306e-09
15170.0 1.1286e-09
15190.0 1.1266e-09
15210.0 1.1247e-09
15230.0 1.1227e-09
15250.0 1.1207e-09
15270.0 1.1186e-09
15290.0 1.1167e-09
15310.0 1.1147e-09
15330.0 1.1126e-09
15350.0 1.1106e-09
15370.0 1.1086e-09
15390.0 1.1064e-09
15410.0 1.1043e-09
15430.0 1.1023e-09
15450.0 1.1001e-09
15470.0 1.0979e-09
15490.0 1.0958e-09
15510.0 1.0937e-09
15530.0 1.0915e-09
15550.0 1.0893e-09
15570.0 1.0871e-09
15590.0 1.0848e-09
15610.0 1.0825e-09
15630.0 1.0803e-09
15650.0 1.0781e-09
15670.0 1.0757e-09
15690.0 1.0734e-09
15710.0 1.0712e-09
15730.0 1.0688e-09
15750.0 1.0664e-09
15770.0 1.064e-09
15790.0 1.0617e-09
15810.0 1.0591e-09
15830.0 1.0567e-09
15850.0 1.0543e-09
15870.0 1.0519e-09
15890.0 1.0493e-09
15910.0 1.0469e-09
15930.0 1.0444e-09
15950.0 1.0418e-09
15970.0 1.0393e-09
15990.0 1.0368e-09
16010.0 1.0341e-09
16030.0 1.0315e-09
16050.0 1.0289e-09
16070.0 1.0263e-09
16090.0 1.0236e-09
16110.0 1.021e-09
16130.0 1.0184e-09
16150.0 1.0156e-09
16170.0 1.0129e-09
16190.0 1.0102e-09
16210.0 1.0075e-09
16230.0 1.0047e-09
16250.0 1.0019e-09
16270.0 9.9922e-10
16290.0 9.9637e-10
16310.0 9.9354e-10
16330.0 9.9079e-10
16350.0 9.8795e-10
16370.0 9.8498e-10
16390.0 9.8217e-10
16410.0 9.7935e-10
16430.0 9.7641e-10
16450.0 9.735e-10
16470.0 9.7068e-10
16490.0 9.6773e-10
16510.0 9.6473e-10
16530.0 9.6182e-10
16550.0 9.589e-10
16570.0 9.5585e-10
16590.0 9.5283e-10
16610.0 9.4994e-10
16630.0 9.4693e-10
16650.0 9.4387e-10
16670.0 9.409e-10
16690.0 9.3793e-10
16710.0 9.3479e-10
16730.0 9.3173e-10
16750.0 9.2874e-10
16770.0 9.2565e-10
16790.0 9.2251e-10
16810.0 9.1949e-10
16830.0 9.1645e-10
16850.0 9.133e-10
16870.0 9.102e-10
16890.0 9.0717e-10
16910.0 9.04e-10
16930.0 9.008e-10
16950.0 8.9773e-10
16970.0 8.9462e-10
16990.0 8.9143e-10
17010.0 8.8829e-10
17030.0 8.8523e-10
17050.0 8.8203e-10
17070.0 8.7883e-10
17090.0 8.7572e-10
17110.0 8.7257e-10
17130.0 8.693e-10
17150.0 8.6614e-10
17170.0 8.6303e-10
17190.0 8.5982e-10
17210.0 8.5661e-10
17230.0 8.535e-10
17250.0 8.5032e-10
17270.0 8.4704e-10
17290.0 8.4386e-10
17310.0 8.4072e-10
17330.0 8.3747e-10
17350.0 8.3421e-10
17370.0 8.311e-10
17390.0 8.2792e-10
17410.0 8.2466e-10
17430.0 8.2149e-10
17450.0 8.1836e-10
17470.0 8.1506e-10
17490.0 8.1182e-10
17510.0 8.0868e-10
17530.0 8.0548e-10
17550.0 8.0221e-10
17570.0 7.9905e-10
17590.0 7.9591e-10
17610.0 7.9265e-10
17630.0 7.8944e-10
17650.0 7.863e-10
17670.0 7.831e-10
17690.0 7.7979e-10
17710.0 7.7665e-10
17730.0 7.735e-10
17750.0 7.7027e-10
17770.0 7.6707e-10
17790.0 7.6398e-10
17810.0 7.6076e-10
17830.0 7.5751e-10
17850.0 7.5437e-10
17870.0 7.5123e-10
17890.0 7.4798e-10
17910.0 7.4478e-10
17930.0 7.417e-10
17950.0 7.3852e-10
17970.0 7.3532e-10
17990.0 7.3222e-10
18010.0 7.2911e-10
18030.0 7.2585e-10
18050.0 7.227e-10
18070.0 7.1962e-10
18090.0 7.1645e-10
18110.0 7.1325e-10
18130.0 7.1019e-10
18150.0 7.071e-10
18170.0 7.0391e-10
18190.0 7.008e-10
18210.0 6.9776e-10
18230.0 6.9459e-10
18250.0 6.914e-10
18270.0 6.8837e-10
18290.0 6.8529e-10
18310.0 6.8214e-10
18330.0 6.7907e-10
18350.0 6.7606e-10
18370.0 6.7293e-10
18390.0 6.6982e-10
18410.0 6.668e-10
18430.0 6.6375e-10
18450.0 6.6058e-10
18470.0 6.5755e-10
18490.0 6.5456e-10
18510.0 6.5148e-10
18530.0 6.4842e-10
18550.0 6.4546e-10
18570.0 6.4242e-10
18590.0 6.3932e-10
18610.0 6.3632e-10
18630.0 6.3335e-10
18650.0 6.3029e-10
18670.0 6.2723e-10
18690.0 6.2432e-10
18710.0 6.2133e-10
18730.0 6.1829e-10
18750.0 6.1533e-10
18770.0 6.1242e-10
18790.0 6.0935e-10
18810.0 6.0635e-10
18830.0 6.0345e-10
18850.0 6.0048e-10
18870.0 5.9747e-10
18890.0 5.9457e-10
18910.0 5.9168e-10
18930.0 5.8868e-10
18950.0 5.8574e-10
18970.0 5.8287e-10
18990.0 5.7994e-10
19010.0 5.7691e-10
19030.0 5.7406e-10
19050.0 5.7119e-10
19070.0 5.6824e-10
19090.0 5.6534e-10
19110.0 5.6254e-10
19130.0 5.5961e-10
19150.0 5.5667e-10
19170.0 5.5383e-10
19190.0 5.5099e-10
19210.0 5.4805e-10
19230.0 5.4516e-10
19250.0 5.4239e-10
19270.0 5.3952e-10
19290.0 5.3663e-10
19310.0 5.3384e-10
19330.0 5.3104e-10
19350.0 5.281e-10
19370.0 5.2528e-10
19390.0 5.2251e-10
19410.0 5.1966e-10
19430.0 5.1679e-10
19450.0 5.1405e-10
19470.0 5.1126e-10
19490.0 5.084e-10
19510.0 5.0562e-10
19530.0 5.0288e-10
19550.0 5.0004e-10
19570.0 4.9718e-10
19590.0 4.9446e-10
19610.0 4.917e-10
19630.0 4.8887e-10
19650.0 4.8612e-10
19670.0 4.8343e-10
19690.0 4.8061e-10
19710.0 4.7781e-10
19730.0 4.7511e-10
19750.0 4.7236e-10
19770.0 4.6952e-10
19790.0 4.668e-10
19810.0 4.6412e-10
19830.0 4.6135e-10
19850.0 4.586e-10
19870.0 4.5596e-10
19890.0 4.5327e-10
19910.0 4.5056e-10
19930.0 4.4804e-10
19950.0 4.4565e-10
19970.0 4.4336e-10
19990.0 4.4131e-10
20010.0 4.3959e-10
20030.0 4.3807e-10
20050.0 4.3679e-10
20070.0 4.3577e-10
20090.0 4.3493e-10
20110.0 4.3418e-10
20130.0 4.3356e-10
20150.0 4.33e-10
20170.0 4.3247e-10
20190.0 4.3195e-10
20210.0 4.3144e-10
20230.0 4.3093e-10
20250.0 4.3039e-10
20270.0 4.2984e-10
20290.0 4.2928e-10
20310.0 4.2868e-10
20330.0 4.2803e-10
20350.0 4.2738e-10
20370.0 4.2669e-10
20390.0 4.2595e-10
20410.0 4.2519e-10
20430.0 4.2442e-10
20450.0 4.2358e-10
20470.0 4.2273e-10
20490.0 4.2189e-10
20510.0 4.2104e-10
20530.0 4.2016e-10
20550.0 4.193e-10
20570.0 4.1849e-10
20590.0 4.1766e-10
20610.0 4.1685e-10
20630.0 4.1608e-10
20650.0 4.1531e-10
20670.0 4.1453e-10
20690.0 4.1378e-10
20710.0 4.1303e-10
20730.0 4.1225e-10
20750.0 4.1144e-10
20770.0 4.1063e-10
20790.0 4.0975e-10
20810.0 4.0879e-10
20830.0 4.0779e-10
20850.0 4.0674e-10
20870.0 4.0555e-10
20890.0 4.0428e-10
20910.0 4.03e-10
20930.0 4.0161e-10
20950.0 4.0012e-10
20970.0 3.986e-10
20990.0 3.9707e-10
21010.0 3.9541e-10
21030.0 3.9375e-10
21050.0 3.9211e-10
21070.0 3.9043e-10
21090.0 3.8869e-10
21110.0 3.8703e-10
21130.0 3.854e-10
21150.0 3.8371e-10
21170.0 3.8205e-10
21190.0 3.8045e-10
21210.0 3.788e-10
21230.0 3.771e-10
21250.0 3.7546e-10
21270.0 3.7381e-10
21290.0 3.7208e-10
21310.0 3.7033e-10
21330.0 3.6861e-10
21350.0 3.668e-10
21370.0 3.6491e-10
21390.0 3.6348e-10
21410.0 3.6201e-10
21430.0 3.6041e-10
21450.0 3.5884e-10
21470.0 3.5727e-10
21490.0 3.5563e-10
21510.0 3.5393e-10
21530.0 3.5228e-10
21550.0 3.506e-10
21570.0 3.4883e-10
21590.0 3.4708e-10
21610.0 3.4538e-10
21630.0 3.4361e-10
21650.0 3.4179e-10
21670.0 3.4009e-10
21690.0 3.3838e-10
21710.0 3.3662e-10
21730.0 3.349e-10
21750.0 3.3326e-10
21770.0 3.3152e-10
21790.0 3.298e-10
21810.0 3.2815e-10
21830.0 3.2649e-10
21850.0 3.2478e-10
21870.0 3.2312e-10
21890.0 3.2152e-10
21910.0 3.1986e-10
21930.0 3.1821e-10
21950.0 3.1663e-10
21970.0 3.1505e-10
21990.0 3.1341e-10
22010.0 3.1189e-10
22030.0 3.1043e-10
22050.0 3.0897e-10
22070.0 3.0743e-10
22090.0 3.058e-10
22110.0 3.0419e-10
22130.0 3.0261e-10
22150.0 3.0114e-10
22170.0 2.9976e-10
22190.0 2.9839e-10
22210.0 2.971e-10
22230.0 2.9592e-10
22250.0 2.9478e-10
22270.0 2.9366e-10
22290.0 2.9263e-10
22310.0 2.9164e-10
22330.0 2.9063e-10
22350.0 2.8966e-10
22370.0 2.8874e-10
22390.0 2.878e-10
22410.0 2.8684e-10
22430.0 2.8593e-10
22450.0 2.8501e-10
22470.0 2.8405e-10
22490.0 2.8309e-10
22510.0 2.8215e-10
22530.0 2.8117e-10
22550.0 2.8016e-10
22570.0 2.7919e-10
22590.0 2.7821e-10
22610.0 2.7721e-10
22630.0 2.7622e-10
