#lamb flux
1010.0 7.9713e-07
1030.0 8.0043e-07
1050.0 8.0406e-07
1070.0 8.2291e-07
1090.0 8.7473e-07
1110.0 9.15e-07
1130.0 9.4374e-07
1150.0 9.6677e-07
1170.0 9.8359e-07
1190.0 9.8852e-07
1210.0 9.8963e-07
1230.0 9.893e-07
1250.0 9.851e-07
1270.0 9.7757e-07
1290.0 9.7266e-07
1310.0 9.6741e-07
1330.0 9.6056e-07
1350.0 9.5583e-07
1370.0 9.5472e-07
1390.0 9.5523e-07
1410.0 9.5821e-07
1430.0 9.6754e-07
1450.0 9.8212e-07
1470.0 1.0016e-06
1490.0 1.0287e-06
1510.0 1.0661e-06
1530.0 1.1108e-06
1550.0 1.1655e-06
1570.0 1.2335e-06
1590.0 1.315e-06
1610.0 1.4099e-06
1630.0 1.5237e-06
1650.0 1.6579e-06
1670.0 1.812e-06
1690.0 1.989e-06
1710.0 2.1944e-06
1730.0 2.4294e-06
1750.0 2.6922e-06
1770.0 2.9911e-06
1790.0 3.3285e-06
1810.0 3.7026e-06
1830.0 4.1161e-06
1850.0 4.5778e-06
1870.0 5.0807e-06
1890.0 5.6233e-06
1910.0 6.2103e-06
1930.0 6.8415e-06
1950.0 7.5038e-06
1970.0 8.1968e-06
1990.0 8.9235e-06
2010.0 9.669e-06
2030.0 1.0422e-05
2050.0 1.1186e-05
2070.0 1.1953e-05
2090.0 1.2696e-05
2110.0 1.3419e-05
2130.0 1.4119e-05
2150.0 1.4778e-05
2170.0 1.5384e-05
2190.0 1.5949e-05
2210.0 1.6461e-05
2230.0 1.6907e-05
2250.0 1.7291e-05
2270.0 1.7628e-05
2290.0 1.7897e-05
2310.0 1.8099e-05
2330.0 1.8255e-05
2350.0 1.8363e-05
2370.0 1.8416e-05
2390.0 1.8433e-05
2410.0 1.8432e-05
2430.0 1.8402e-05
2450.0 1.8353e-05
2470.0 1.8311e-05
2490.0 1.8286e-05
2510.0 1.8269e-05
2530.0 1.8313e-05
2550.0 1.8484e-05
2570.0 1.8833e-05
2590.0 1.943e-05
2610.0 2.0483e-05
2630.0 2.2024e-05
2650.0 2.397e-05
2670.0 2.6381e-05
2690.0 2.923e-05
2710.0 3.2189e-05
2730.0 3.5137e-05
2750.0 3.8233e-05
2770.0 4.1278e-05
2790.0 4.4194e-05
2810.0 4.7179e-05
2830.0 5.0404e-05
2850.0 5.3546e-05
2870.0 5.6778e-05
2890.0 6.0257e-05
2910.0 6.3867e-05
2930.0 6.7466e-05
2950.0 7.1334e-05
2970.0 7.5437e-05
2990.0 7.9582e-05
3010.0 8.3862e-05
3030.0 8.8443e-05
3050.0 9.317e-05
3070.0 9.7776e-05
3090.0 0.00010248
3110.0 0.00010704
3130.0 0.00011112
3150.0 0.00011462
3170.0 0.00011741
3190.0 0.00011935
3210.0 0.00012075
3230.0 0.00012191
3250.0 0.00012328
3270.0 0.00012536
3290.0 0.00012843
3310.0 0.00013275
3330.0 0.00013818
3350.0 0.00014439
3370.0 0.00015126
3390.0 0.00015833
3410.0 0.00016551
3430.0 0.00018005
3450.0 0.0001908
3470.0 0.0002003
3490.0 0.00020336
3510.0 0.0002007
3530.0 0.00022741
3550.0 0.00027053
3570.0 0.00029743
3590.0 0.00031784
3610.0 0.00032051
3630.0 0.00030403
3650.0 0.00032676
3670.0 0.00039086
3690.0 0.0004392
3710.0 0.00045858
3730.0 0.00046944
3750.0 0.00049387
3770.0 0.00049499
3790.0 0.00047442
3810.0 0.00044653
3830.0 0.0004165
3850.0 0.00041534
3870.0 0.00044071
3890.0 0.00046559
3910.0 0.00048485
3930.0 0.00049068
3950.0 0.00052361
3970.0 0.00055939
3990.0 0.00053891
4010.0 0.00048138
4030.0 0.00042753
4050.0 0.00041155
4070.0 0.00042844
4090.0 0.00043191
4110.0 0.00041978
4130.0 0.00041448
4150.0 0.00042547
4170.0 0.00046966
4190.0 0.0005086
4210.0 0.00049267
4230.0 0.00045987
4250.0 0.0004422
4270.0 0.00043215
4290.0 0.00043982
4310.0 0.00045299
4330.0 0.0004314
4350.0 0.00037949
4370.0 0.00033594
4390.0 0.00030605
4410.0 0.00028252
4430.0 0.00028263
4450.0 0.00030743
4470.0 0.00033242
4490.0 0.00036178
4510.0 0.00040926
4530.0 0.00050067
4550.0 0.0006043
4570.0 0.00066651
4590.0 0.00071275
4610.0 0.00076639
4630.0 0.00079234
4650.0 0.00073808
4670.0 0.0006192
4690.0 0.00052631
4710.0 0.0004944
4730.0 0.00047791
4750.0 0.00042826
4770.0 0.00038859
4790.0 0.00040356
4810.0 0.00043856
4830.0 0.00043668
4850.0 0.00040255
4870.0 0.0003943
4890.0 0.00041136
4910.0 0.00043036
4930.0 0.00042987
4950.0 0.00041796
4970.0 0.00039812
4990.0 0.00036593
5010.0 0.00033609
5030.0 0.00031914
5050.0 0.0003113
5070.0 0.00030601
5090.0 0.00030111
5110.0 0.00030067
5130.0 0.0003053
5150.0 0.00032245
5170.0 0.00035608
5190.0 0.00039692
5210.0 0.00043971
5230.0 0.00046577
5250.0 0.00047928
5270.0 0.00050377
5290.0 0.0005276
5310.0 0.00053322
5330.0 0.00051323
5350.0 0.00049001
5370.0 0.00048994
5390.0 0.00051626
5410.0 0.00054168
5430.0 0.0005504
5450.0 0.00054709
5470.0 0.00053105
5490.0 0.00051135
5510.0 0.00050132
5530.0 0.00050335
5550.0 0.00051074
5570.0 0.00051561
5590.0 0.0005002
5610.0 0.00047154
5630.0 0.00044344
5650.0 0.00042135
5670.0 0.0004078
5690.0 0.0003912
5710.0 0.00037849
5730.0 0.00038394
5750.0 0.00038301
5770.0 0.00037491
5790.0 0.00037811
5810.0 0.00038673
5830.0 0.00039479
5850.0 0.00039762
5870.0 0.00038928
5890.0 0.00037252
5910.0 0.00035339
5930.0 0.00032626
5950.0 0.00030683
5970.0 0.00030629
5990.0 0.00031584
6010.0 0.0003193
6030.0 0.00030801
6050.0 0.00030339
6070.0 0.00031509
6090.0 0.00033071
6110.0 0.00033652
6130.0 0.00032502
6150.0 0.00030607
6170.0 0.00029362
6190.0 0.00028129
6210.0 0.00026812
6230.0 0.0002581
6250.0 0.00025502
6270.0 0.00026162
6290.0 0.00027346
6310.0 0.00028869
6330.0 0.00030539
6350.0 0.00031926
6370.0 0.00032547
6390.0 0.00032612
6410.0 0.00032954
6430.0 0.00033358
6450.0 0.0003347
6470.0 0.000339
6490.0 0.00034419
6510.0 0.00034561
6530.0 0.00034192
6550.0 0.00033224
6570.0 0.00032004
6590.0 0.0003107
6610.0 0.0003038
6630.0 0.00029775
6650.0 0.00028751
6670.0 0.00027536
6690.0 0.00026627
6710.0 0.00026064
6730.0 0.0002589
6750.0 0.00025573
6770.0 0.0002506
6790.0 0.00024671
6810.0 0.0002436
6830.0 0.00024296
6850.0 0.00024315
6870.0 0.00024127
6890.0 0.00023975
6910.0 0.00023473
6930.0 0.00022925
6950.0 0.00022798
6970.0 0.00022414
6990.0 0.00021715
7010.0 0.00021382
7030.0 0.00021114
7050.0 0.00020639
7070.0 0.00020075
7090.0 0.00019675
7110.0 0.00019881
7130.0 0.00020655
7150.0 0.00021539
7170.0 0.00022109
7190.0 0.00021943
7210.0 0.00021518
7230.0 0.00021239
7250.0 0.00020957
7270.0 0.00020776
7290.0 0.00020508
7310.0 0.00020376
7330.0 0.00020729
7350.0 0.00021135
7370.0 0.00021351
7390.0 0.00021142
7410.0 0.00020625
7430.0 0.00020375
7450.0 0.00020145
7470.0 0.00019165
7490.0 0.00018451
7510.0 0.00017676
7530.0 0.00017107
7550.0 0.00017032
7570.0 0.00017232
7590.0 0.00017128
7610.0 0.00016957
7630.0 0.00016883
7650.0 0.00016812
7670.0 0.00017131
7690.0 0.00017752
7710.0 0.00018487
7730.0 0.00019047
7750.0 0.00019593
7770.0 0.00019863
7790.0 0.00019811
7810.0 0.00019508
7830.0 0.00019713
7850.0 0.00019682
7870.0 0.00019042
7890.0 0.00018354
7910.0 0.00017769
7930.0 0.00017175
7950.0 0.0001676
7970.0 0.00016694
7990.0 0.000169
8010.0 0.00016712
8030.0 0.00016516
8050.0 0.00016231
8070.0 0.00015918
8090.0 0.00015592
8110.0 0.00015609
8130.0 0.00015727
8150.0 0.00015697
8170.0 0.0001558
8190.0 0.00015254
8210.0 0.0001448
8230.0 0.00013499
8250.0 0.00012895
8270.0 0.0001251
8290.0 0.00012267
8310.0 0.00012301
8330.0 0.00012494
8350.0 0.00012222
8370.0 0.00011936
8390.0 0.0001215
8410.0 0.00012702
8430.0 0.00013511
8450.0 0.00014296
8470.0 0.00014612
8490.0 0.00014859
8510.0 0.00014924
8530.0 0.00015003
8550.0 0.00015176
8570.0 0.00015252
8590.0 0.00015324
8610.0 0.00015744
8630.0 0.00015912
8650.0 0.00015575
8670.0 0.00015564
8690.0 0.00015681
8710.0 0.00015653
8730.0 0.00015517
8750.0 0.00015077
8770.0 0.00014879
8790.0 0.00014766
8810.0 0.00014586
8830.0 0.00013762
8850.0 0.00012662
8870.0 0.00011856
8890.0 0.000114
8910.0 0.00010726
8930.0 9.9841e-05
8950.0 9.6065e-05
8970.0 9.5549e-05
8990.0 9.6037e-05
9010.0 9.5558e-05
9030.0 9.4884e-05
9050.0 9.4261e-05
9070.0 9.3685e-05
9090.0 9.3117e-05
9110.0 9.2553e-05
9130.0 9.1989e-05
9150.0 9.1428e-05
9170.0 9.0868e-05
9190.0 9.0309e-05
9210.0 8.9748e-05
9230.0 8.9196e-05
9250.0 8.8648e-05
9270.0 8.8099e-05
9290.0 8.7554e-05
9310.0 8.701e-05
9330.0 8.6468e-05
9350.0 8.5929e-05
9370.0 8.5391e-05
9390.0 8.4858e-05
9410.0 8.4325e-05
9430.0 8.3791e-05
9450.0 8.3243e-05
9470.0 8.2706e-05
9490.0 8.2207e-05
9510.0 8.1695e-05
9530.0 8.1186e-05
9550.0 8.0674e-05
9570.0 8.0164e-05
9590.0 7.9658e-05
9610.0 7.9153e-05
9630.0 7.865e-05
9650.0 7.8149e-05
9670.0 7.7654e-05
9690.0 7.7158e-05
9710.0 7.6665e-05
9730.0 7.6178e-05
9750.0 7.5691e-05
9770.0 7.5205e-05
9790.0 7.4722e-05
9810.0 7.4244e-05
9830.0 7.3757e-05
9850.0 7.3218e-05
9870.0 7.2761e-05
9890.0 7.2314e-05
9910.0 7.1859e-05
9930.0 7.1394e-05
9950.0 7.0946e-05
9970.0 7.0486e-05
9990.0 7.0017e-05
10010.0 6.9494e-05
10030.0 6.9013e-05
10050.0 6.8594e-05
10070.0 6.8169e-05
10090.0 6.7742e-05
10110.0 6.728e-05
10130.0 6.6725e-05
10150.0 6.6303e-05
10170.0 6.5901e-05
10190.0 6.5471e-05
10210.0 6.5051e-05
10230.0 6.463e-05
10250.0 6.4189e-05
10270.0 6.3748e-05
10290.0 6.3323e-05
10310.0 6.2883e-05
10330.0 6.243e-05
10350.0 6.1998e-05
10370.0 6.1569e-05
10390.0 6.1124e-05
10410.0 6.0683e-05
10430.0 6.0262e-05
10450.0 5.9826e-05
10470.0 5.9382e-05
10490.0 5.8953e-05
10510.0 5.8527e-05
10530.0 5.8075e-05
10550.0 5.7635e-05
10570.0 5.7212e-05
10590.0 5.6774e-05
10610.0 5.6329e-05
10630.0 5.5902e-05
10650.0 5.5473e-05
10670.0 5.5023e-05
10690.0 5.4584e-05
10710.0 5.4155e-05
10730.0 5.3712e-05
10750.0 5.3255e-05
10770.0 5.2826e-05
10790.0 5.2391e-05
10810.0 5.194e-05
10830.0 5.1498e-05
10850.0 5.107e-05
10870.0 5.0614e-05
10890.0 5.0161e-05
10910.0 4.9728e-05
10930.0 4.9294e-05
10950.0 4.885e-05
10970.0 4.8424e-05
10990.0 4.8024e-05
11010.0 4.8977e-05
11030.0 4.8611e-05
11050.0 4.8261e-05
11070.0 4.7909e-05
11090.0 4.7534e-05
11110.0 4.7175e-05
11130.0 4.6817e-05
11150.0 4.6446e-05
11170.0 4.6075e-05
11190.0 4.5724e-05
11210.0 4.5371e-05
11230.0 4.5018e-05
11250.0 4.4688e-05
11270.0 4.4376e-05
11290.0 4.4067e-05
11310.0 4.3772e-05
11330.0 4.3508e-05
11350.0 4.325e-05
11370.0 4.2999e-05
11390.0 4.2764e-05
11410.0 4.254e-05
11430.0 4.2308e-05
11450.0 4.2082e-05
11470.0 4.1859e-05
11490.0 4.1627e-05
11510.0 4.138e-05
11530.0 4.1131e-05
11550.0 4.0871e-05
11570.0 4.0586e-05
11590.0 4.0288e-05
11610.0 3.9981e-05
11630.0 3.9647e-05
11650.0 3.9287e-05
11670.0 3.8926e-05
11690.0 3.8551e-05
11710.0 3.8151e-05
11730.0 3.7745e-05
11750.0 3.7347e-05
11770.0 3.6929e-05
11790.0 3.6503e-05
11810.0 3.609e-05
11830.0 3.5679e-05
11850.0 3.525e-05
11870.0 3.4839e-05
11890.0 3.4445e-05
11910.0 3.4048e-05
11930.0 3.3656e-05
11950.0 3.3287e-05
11970.0 3.2926e-05
11990.0 3.2562e-05
12010.0 3.2221e-05
12030.0 3.1898e-05
12050.0 3.1581e-05
12070.0 3.1273e-05
12090.0 3.0997e-05
12110.0 3.0733e-05
12130.0 3.0479e-05
12150.0 3.0249e-05
12170.0 3.0042e-05
12190.0 2.9846e-05
12210.0 2.9675e-05
12230.0 2.953e-05
12250.0 2.9407e-05
12270.0 2.9306e-05
12290.0 2.923e-05
12310.0 2.9176e-05
12330.0 2.9143e-05
12350.0 2.9129e-05
12370.0 2.9129e-05
12390.0 2.9144e-05
12410.0 2.9173e-05
12430.0 2.9204e-05
12450.0 2.9237e-05
12470.0 2.9272e-05
12490.0 2.9302e-05
12510.0 2.932e-05
12530.0 2.9328e-05
12550.0 2.9322e-05
12570.0 2.9296e-05
12590.0 2.925e-05
12610.0 2.918e-05
12630.0 2.9083e-05
12650.0 2.8964e-05
12670.0 2.8818e-05
12690.0 2.8645e-05
12710.0 2.8451e-05
12730.0 2.8239e-05
12750.0 2.7996e-05
12770.0 2.774e-05
12790.0 2.7477e-05
12810.0 2.7198e-05
12830.0 2.6904e-05
12850.0 2.6616e-05
12870.0 2.6326e-05
12890.0 2.6026e-05
12910.0 2.573e-05
12930.0 2.5444e-05
12950.0 2.5151e-05
12970.0 2.4856e-05
12990.0 2.4578e-05
13010.0 2.4302e-05
13030.0 2.4023e-05
13050.0 2.3753e-05
13070.0 2.3496e-05
13090.0 2.3236e-05
13110.0 2.2981e-05
13130.0 2.274e-05
13150.0 2.2506e-05
13170.0 2.2272e-05
13190.0 2.2055e-05
13210.0 2.1853e-05
13230.0 2.1657e-05
13250.0 2.147e-05
13270.0 2.1298e-05
13290.0 2.1134e-05
13310.0 2.0974e-05
13330.0 2.0824e-05
13350.0 2.0682e-05
13370.0 2.0541e-05
13390.0 2.04e-05
13410.0 2.0267e-05
13430.0 2.0133e-05
13450.0 1.9994e-05
13470.0 1.9856e-05
13490.0 1.9718e-05
13510.0 1.9572e-05
13530.0 1.9423e-05
13550.0 1.9277e-05
13570.0 1.9127e-05
13590.0 1.8971e-05
13610.0 1.8817e-05
13630.0 1.8665e-05
13650.0 1.8507e-05
13670.0 1.8349e-05
13690.0 1.8196e-05
13710.0 1.804e-05
13730.0 1.7878e-05
13750.0 1.7724e-05
13770.0 1.7571e-05
13790.0 1.7413e-05
13810.0 1.7256e-05
13830.0 1.7104e-05
13850.0 1.6947e-05
13870.0 1.6786e-05
13890.0 1.6629e-05
13910.0 1.6473e-05
13930.0 1.631e-05
13950.0 1.6146e-05
13970.0 1.599e-05
13990.0 1.5828e-05
14010.0 1.5662e-05
14030.0 1.5502e-05
14050.0 1.5341e-05
14070.0 1.5172e-05
14090.0 1.5007e-05
14110.0 1.4848e-05
14130.0 1.4685e-05
14150.0 1.4522e-05
14170.0 1.4368e-05
14190.0 1.4218e-05
14210.0 1.4068e-05
14230.0 1.3926e-05
14250.0 1.3793e-05
14270.0 1.3663e-05
14290.0 1.3537e-05
14310.0 1.3425e-05
14330.0 1.3319e-05
14350.0 1.3217e-05
14370.0 1.3123e-05
14390.0 1.3039e-05
14410.0 1.2956e-05
14430.0 1.2878e-05
14450.0 1.2808e-05
14470.0 1.274e-05
14490.0 1.2672e-05
14510.0 1.261e-05
14530.0 1.2551e-05
14550.0 1.2492e-05
14570.0 1.2434e-05
14590.0 1.2381e-05
14610.0 1.2327e-05
14630.0 1.2272e-05
14650.0 1.2221e-05
14670.0 1.2172e-05
14690.0 1.2124e-05
14710.0 1.2078e-05
14730.0 1.204e-05
14750.0 1.2005e-05
14770.0 1.1975e-05
14790.0 1.1955e-05
14810.0 1.1944e-05
14830.0 1.1942e-05
14850.0 1.1953e-05
14870.0 1.1977e-05
14890.0 1.2012e-05
14910.0 1.206e-05
14930.0 1.2115e-05
14950.0 1.2174e-05
14970.0 1.2236e-05
14990.0 1.2293e-05
15010.0 1.2343e-05
15030.0 1.2384e-05
15050.0 1.2416e-05
15070.0 1.2438e-05
15090.0 1.2454e-05
15110.0 1.2466e-05
15130.0 1.2475e-05
15150.0 1.2483e-05
15170.0 1.249e-05
15190.0 1.2496e-05
15210.0 1.2504e-05
15230.0 1.2512e-05
15250.0 1.252e-05
15270.0 1.2528e-05
15290.0 1.2537e-05
15310.0 1.2546e-05
15330.0 1.2556e-05
15350.0 1.2566e-05
15370.0 1.2577e-05
15390.0 1.2587e-05
15410.0 1.2598e-05
15430.0 1.261e-05
15450.0 1.2622e-05
15470.0 1.2634e-05
15490.0 1.2647e-05
15510.0 1.266e-05
15530.0 1.2673e-05
15550.0 1.2687e-05
15570.0 1.2701e-05
15590.0 1.2715e-05
15610.0 1.2729e-05
15630.0 1.2745e-05
15650.0 1.276e-05
15670.0 1.2775e-05
15690.0 1.2791e-05
15710.0 1.2808e-05
15730.0 1.2824e-05
15750.0 1.2841e-05
15770.0 1.2858e-05
15790.0 1.2876e-05
15810.0 1.2893e-05
15830.0 1.2911e-05
15850.0 1.2929e-05
15870.0 1.2948e-05
15890.0 1.2966e-05
15910.0 1.2985e-05
15930.0 1.3004e-05
15950.0 1.3023e-05
15970.0 1.3043e-05
15990.0 1.3063e-05
16010.0 1.3083e-05
16030.0 1.3102e-05
16050.0 1.3123e-05
16070.0 1.3144e-05
16090.0 1.3164e-05
16110.0 1.3185e-05
16130.0 1.3206e-05
16150.0 1.3227e-05
16170.0 1.3248e-05
16190.0 1.327e-05
16210.0 1.3291e-05
16230.0 1.3313e-05
16250.0 1.3334e-05
16270.0 1.3357e-05
16290.0 1.3378e-05
16310.0 1.34e-05
16330.0 1.3423e-05
16350.0 1.3445e-05
16370.0 1.3466e-05
16390.0 1.3489e-05
16410.0 1.3511e-05
16430.0 1.3533e-05
16450.0 1.3555e-05
16470.0 1.3578e-05
16490.0 1.36e-05
16510.0 1.3622e-05
16530.0 1.3645e-05
16550.0 1.3667e-05
16570.0 1.3689e-05
16590.0 1.3711e-05
16610.0 1.3734e-05
16630.0 1.3756e-05
16650.0 1.3778e-05
16670.0 1.38e-05
16690.0 1.3822e-05
16710.0 1.3843e-05
16730.0 1.3864e-05
16750.0 1.3886e-05
16770.0 1.3908e-05
16790.0 1.3928e-05
16810.0 1.395e-05
16830.0 1.3971e-05
16850.0 1.3991e-05
16870.0 1.4012e-05
16890.0 1.4033e-05
16910.0 1.4052e-05
16930.0 1.4072e-05
16950.0 1.4092e-05
16970.0 1.4111e-05
16990.0 1.413e-05
17010.0 1.4149e-05
17030.0 1.4169e-05
17050.0 1.4187e-05
17070.0 1.4205e-05
17090.0 1.4223e-05
17110.0 1.4241e-05
17130.0 1.4257e-05
17150.0 1.4274e-05
17170.0 1.4291e-05
17190.0 1.4307e-05
17210.0 1.4323e-05
17230.0 1.4339e-05
17250.0 1.4354e-05
17270.0 1.4369e-05
17290.0 1.4383e-05
17310.0 1.4398e-05
17330.0 1.4411e-05
17350.0 1.4424e-05
17370.0 1.4437e-05
17390.0 1.4449e-05
17410.0 1.4461e-05
17430.0 1.4473e-05
17450.0 1.4484e-05
17470.0 1.4494e-05
17490.0 1.4504e-05
17510.0 1.4514e-05
17530.0 1.4523e-05
17550.0 1.4531e-05
17570.0 1.4539e-05
17590.0 1.4547e-05
17610.0 1.4554e-05
17630.0 1.456e-05
17650.0 1.4567e-05
17670.0 1.4572e-05
17690.0 1.4576e-05
17710.0 1.458e-05
17730.0 1.4584e-05
17750.0 1.4587e-05
17770.0 1.459e-05
17790.0 1.4592e-05
17810.0 1.4593e-05
17830.0 1.4594e-05
17850.0 1.4594e-05
17870.0 1.4594e-05
17890.0 1.4592e-05
17910.0 1.459e-05
17930.0 1.4588e-05
17950.0 1.4585e-05
17970.0 1.4581e-05
17990.0 1.4577e-05
18010.0 1.4572e-05
18030.0 1.4566e-05
18050.0 1.4559e-05
18070.0 1.4553e-05
18090.0 1.4545e-05
18110.0 1.4536e-05
18130.0 1.4527e-05
18150.0 1.4518e-05
18170.0 1.4507e-05
18190.0 1.4496e-05
18210.0 1.4485e-05
18230.0 1.4472e-05
18250.0 1.4458e-05
18270.0 1.4444e-05
18290.0 1.443e-05
18310.0 1.4414e-05
18330.0 1.4398e-05
18350.0 1.4382e-05
18370.0 1.4364e-05
18390.0 1.4346e-05
18410.0 1.4327e-05
18430.0 1.4308e-05
18450.0 1.4287e-05
18470.0 1.4266e-05
18490.0 1.4244e-05
18510.0 1.4222e-05
18530.0 1.4198e-05
18550.0 1.4175e-05
18570.0 1.415e-05
18590.0 1.4124e-05
18610.0 1.4098e-05
18630.0 1.4072e-05
18650.0 1.4044e-05
18670.0 1.4016e-05
18690.0 1.3987e-05
18710.0 1.3958e-05
18730.0 1.3927e-05
18750.0 1.3897e-05
18770.0 1.3865e-05
18790.0 1.3832e-05
18810.0 1.3799e-05
18830.0 1.3766e-05
18850.0 1.3731e-05
18870.0 1.3696e-05
18890.0 1.3661e-05
18910.0 1.3625e-05
18930.0 1.3587e-05
18950.0 1.3549e-05
18970.0 1.3511e-05
18990.0 1.3472e-05
19010.0 1.3432e-05
19030.0 1.3392e-05
19050.0 1.3352e-05
19070.0 1.331e-05
19090.0 1.3268e-05
19110.0 1.3226e-05
19130.0 1.3182e-05
19150.0 1.3138e-05
19170.0 1.3093e-05
19190.0 1.3048e-05
19210.0 1.3002e-05
19230.0 1.2956e-05
19250.0 1.291e-05
19270.0 1.2862e-05
19290.0 1.2814e-05
19310.0 1.2766e-05
19330.0 1.2717e-05
19350.0 1.2667e-05
19370.0 1.2617e-05
19390.0 1.2567e-05
19410.0 1.2516e-05
19430.0 1.2464e-05
19450.0 1.2413e-05
19470.0 1.236e-05
19490.0 1.2307e-05
19510.0 1.2254e-05
19530.0 1.2201e-05
19550.0 1.2146e-05
19570.0 1.2091e-05
19590.0 1.2036e-05
19610.0 1.1981e-05
19630.0 1.1925e-05
19650.0 1.1869e-05
19670.0 1.1813e-05
19690.0 1.1755e-05
19710.0 1.1698e-05
19730.0 1.164e-05
19750.0 1.1582e-05
19770.0 1.1523e-05
19790.0 1.1465e-05
19810.0 1.1406e-05
19830.0 1.1346e-05
19850.0 1.1286e-05
19870.0 1.1226e-05
19890.0 1.1163e-05
19910.0 1.1096e-05
19930.0 1.1026e-05
19950.0 1.0949e-05
19970.0 1.0862e-05
19990.0 1.0762e-05
20010.0 1.0652e-05
20030.0 1.0527e-05
20050.0 1.0387e-05
20070.0 1.0238e-05
20090.0 1.0083e-05
20110.0 9.9138e-06
20130.0 9.7454e-06
20150.0 9.5799e-06
20170.0 9.4115e-06
20190.0 9.2428e-06
20210.0 9.0819e-06
20230.0 8.9243e-06
20250.0 8.7661e-06
20270.0 8.6153e-06
20290.0 8.4724e-06
20310.0 8.3322e-06
20330.0 8.195e-06
20350.0 8.0705e-06
20370.0 7.9509e-06
20390.0 7.8355e-06
20410.0 7.7281e-06
20430.0 7.629e-06
20450.0 7.5329e-06
20470.0 7.4433e-06
20490.0 7.3613e-06
20510.0 7.2846e-06
20530.0 7.2119e-06
20550.0 7.1453e-06
20570.0 7.084e-06
20590.0 7.026e-06
20610.0 6.9718e-06
20630.0 6.9215e-06
20650.0 6.874e-06
20670.0 6.8286e-06
20690.0 6.7856e-06
20710.0 6.7441e-06
20730.0 6.7035e-06
20750.0 6.6634e-06
20770.0 6.6233e-06
20790.0 6.5827e-06
20810.0 6.5411e-06
20830.0 6.4981e-06
20850.0 6.4534e-06
20870.0 6.4063e-06
20890.0 6.3565e-06
20910.0 6.3047e-06
20930.0 6.2499e-06
20950.0 6.1918e-06
20970.0 6.1313e-06
20990.0 6.0686e-06
21010.0 6.0018e-06
21030.0 5.9328e-06
21050.0 5.8626e-06
21070.0 5.7897e-06
21090.0 5.7137e-06
21110.0 5.6382e-06
21130.0 5.562e-06
21150.0 5.4837e-06
21170.0 5.4053e-06
21190.0 5.3285e-06
21210.0 5.2503e-06
21230.0 5.1717e-06
21250.0 5.0958e-06
21270.0 5.0212e-06
21290.0 4.9464e-06
21310.0 4.8736e-06
21330.0 4.8041e-06
21350.0 4.7349e-06
21370.0 4.6672e-06
21390.0 4.6024e-06
21410.0 4.5395e-06
21430.0 4.4767e-06
21450.0 4.4167e-06
21470.0 4.3592e-06
21490.0 4.3025e-06
21510.0 4.2469e-06
21530.0 4.1937e-06
21550.0 4.1415e-06
21570.0 4.0896e-06
21590.0 4.0393e-06
21610.0 3.9904e-06
21630.0 3.9417e-06
21650.0 3.8932e-06
21670.0 3.8468e-06
21690.0 3.8007e-06
21710.0 3.7546e-06
21730.0 3.7094e-06
21750.0 3.6652e-06
21770.0 3.6204e-06
21790.0 3.5761e-06
21810.0 3.5326e-06
21830.0 3.4892e-06
21850.0 3.4453e-06
21870.0 3.402e-06
21890.0 3.3593e-06
21910.0 3.3159e-06
21930.0 3.2724e-06
21950.0 3.2296e-06
21970.0 3.1865e-06
21990.0 3.1423e-06
22010.0 3.0991e-06
22030.0 3.0562e-06
22050.0 3.0127e-06
22070.0 2.9693e-06
22090.0 2.9271e-06
22110.0 2.8846e-06
22130.0 2.842e-06
22150.0 2.8005e-06
22170.0 2.7598e-06
22190.0 2.7188e-06
22210.0 2.6785e-06
22230.0 2.6399e-06
22250.0 2.6016e-06
22270.0 2.5636e-06
22290.0 2.5269e-06
22310.0 2.4912e-06
22330.0 2.4552e-06
22350.0 2.4203e-06
22370.0 2.3865e-06
22390.0 2.3528e-06
22410.0 2.3192e-06
22430.0 2.2867e-06
22450.0 2.2546e-06
22470.0 2.2223e-06
22490.0 2.1904e-06
22510.0 2.1593e-06
22530.0 2.1276e-06
22550.0 2.0958e-06
22570.0 2.0648e-06
22590.0 2.0339e-06
22610.0 2.0027e-06
