#lamb flux
1010.0 2.0575e-07
1030.0 2.2753e-07
1050.0 2.526e-07
1070.0 2.8081e-07
1090.0 3.1285e-07
1110.0 3.4572e-07
1130.0 3.788e-07
1150.0 4.1345e-07
1170.0 4.4919e-07
1190.0 4.8308e-07
1210.0 5.1743e-07
1230.0 5.5293e-07
1250.0 5.8771e-07
1270.0 6.2148e-07
1290.0 6.5717e-07
1310.0 6.9283e-07
1330.0 7.2703e-07
1350.0 7.6161e-07
1370.0 7.9732e-07
1390.0 8.3214e-07
1410.0 8.6592e-07
1430.0 9.0123e-07
1450.0 9.3655e-07
1470.0 9.7068e-07
1490.0 1.0052e-06
1510.0 1.0416e-06
1530.0 1.0762e-06
1550.0 1.1102e-06
1570.0 1.1455e-06
1590.0 1.1808e-06
1610.0 1.2146e-06
1630.0 1.2494e-06
1650.0 1.2851e-06
1670.0 1.3197e-06
1690.0 1.3538e-06
1710.0 1.3893e-06
1730.0 1.425e-06
1750.0 1.4587e-06
1770.0 1.4933e-06
1790.0 1.5287e-06
1810.0 1.563e-06
1830.0 1.5968e-06
1850.0 1.6326e-06
1870.0 1.6676e-06
1890.0 1.7015e-06
1910.0 1.7361e-06
1930.0 1.7717e-06
1950.0 1.8057e-06
1970.0 1.8393e-06
1990.0 1.8743e-06
2010.0 1.9088e-06
2030.0 1.9422e-06
2050.0 1.9766e-06
2070.0 2.012e-06
2090.0 2.0455e-06
2110.0 2.0789e-06
2130.0 2.1134e-06
2150.0 2.1473e-06
2170.0 2.1798e-06
2190.0 2.2136e-06
2210.0 2.2477e-06
2230.0 2.2804e-06
2250.0 2.313e-06
2270.0 2.3472e-06
2290.0 2.3803e-06
2310.0 2.4121e-06
2330.0 2.4452e-06
2350.0 2.4793e-06
2370.0 2.5131e-06
2390.0 2.5498e-06
2410.0 2.5933e-06
2430.0 2.6433e-06
2450.0 2.7031e-06
2470.0 2.7797e-06
2490.0 2.8763e-06
2510.0 2.9861e-06
2530.0 3.1183e-06
2550.0 3.2838e-06
2570.0 3.4897e-06
2590.0 3.7575e-06
2610.0 4.1585e-06
2630.0 4.7309e-06
2650.0 5.4793e-06
2670.0 6.4468e-06
2690.0 7.6357e-06
2710.0 8.9047e-06
2730.0 1.0158e-05
2750.0 1.1393e-05
2770.0 1.2467e-05
2790.0 1.332e-05
2810.0 1.3996e-05
2830.0 1.4525e-05
2850.0 1.4885e-05
2870.0 1.515e-05
2890.0 1.5359e-05
2910.0 1.5526e-05
2930.0 1.5662e-05
2950.0 1.5792e-05
2970.0 1.5919e-05
2990.0 1.6039e-05
3010.0 0.00045364
3030.0 0.00045702
3050.0 0.00046028
3070.0 0.00046307
3090.0 0.00046547
3110.0 0.00046696
3130.0 0.00046689
3150.0 0.0004648
3170.0 0.00045981
3190.0 0.00045198
3210.0 0.00044206
3230.0 0.0004307
3250.0 0.00041948
3270.0 0.00041129
3290.0 0.00040673
3310.0 0.00040745
3330.0 0.00041334
3350.0 0.0004236
3370.0 0.00043825
3390.0 0.00045672
3410.0 0.00047682
3430.0 0.00049938
3450.0 0.00052536
3470.0 0.00055374
3490.0 0.00058381
3510.0 0.0006178
3530.0 0.00065419
3550.0 0.00069105
3570.0 0.00072951
3590.0 0.00077134
3610.0 0.00081445
3630.0 0.00085742
3650.0 0.00090201
3670.0 0.00094271
3690.0 0.00097314
3710.0 0.00099057
3730.0 0.0009911
3750.0 0.00097723
3770.0 0.00097195
3790.0 0.00096617
3810.0 0.00094174
3830.0 0.00097078
3850.0 0.0010866
3870.0 0.0011495
3890.0 0.0011431
3910.0 0.0011476
3930.0 0.0011783
3950.0 0.0011977
3970.0 0.0010919
3990.0 0.00093844
4010.0 0.0028095
4030.0 0.0034027
4050.0 0.0039011
4070.0 0.003387
4090.0 0.0030679
4110.0 0.0027064
4130.0 0.0024931
4150.0 0.0026548
4170.0 0.0026125
4190.0 0.0027829
4210.0 0.0027588
4230.0 0.0029198
4250.0 0.0034546
4270.0 0.0034964
4290.0 0.003221
4310.0 0.0033452
4330.0 0.0035571
4350.0 0.0039904
4370.0 0.0045426
4390.0 0.0042597
4410.0 0.0031438
4430.0 0.0026601
4450.0 0.0024446
4470.0 0.0018748
4490.0 0.0020258
4510.0 0.0030655
4530.0 0.0035365
4550.0 0.0035654
4570.0 0.0040079
4590.0 0.0045641
4610.0 0.0061666
4630.0 0.0080129
4650.0 0.0086841
4670.0 0.0080401
4690.0 0.0076734
4710.0 0.0081107
4730.0 0.00765
4750.0 0.0057164
4770.0 0.0041917
4790.0 0.0039167
4810.0 0.003735
4830.0 0.0034206
4850.0 0.0037532
4870.0 0.0049584
4890.0 0.0058468
4910.0 0.0051272
4930.0 0.004539
4950.0 0.0049879
4970.0 0.0063975
4990.0 0.0086701
5010.0 0.0099745
5030.0 0.0087914
5050.0 0.0059457
5070.0 0.0039197
5090.0 0.0031595
5110.0 0.0032479
5130.0 0.0037494
5150.0 0.0040605
5170.0 0.0039988
5190.0 0.0037358
5210.0 0.0039059
5230.0 0.0041087
5250.0 0.0044295
5270.0 0.0047757
5290.0 0.0052915
5310.0 0.0061629
5330.0 0.0068193
5350.0 0.0067754
5370.0 0.0071187
5390.0 0.0081722
5410.0 0.0081588
5430.0 0.0072111
5450.0 0.0066277
5470.0 0.0070399
5490.0 0.0086012
5510.0 0.010752
5530.0 0.012333
5550.0 0.011916
5570.0 0.010832
5590.0 0.0094159
5610.0 0.0086868
5630.0 0.0084293
5650.0 0.0080261
5670.0 0.0076039
5690.0 0.0067944
5710.0 0.0066262
5730.0 0.006105
5750.0 0.0042997
5770.0 0.0033531
5790.0 0.0038008
5810.0 0.0042903
5830.0 0.0052699
5850.0 0.0062761
5870.0 0.0069624
5890.0 0.0070783
5910.0 0.006944
5930.0 0.0066098
5950.0 0.0067354
5970.0 0.0076806
5990.0 0.007217
6010.0 0.0060478
6030.0 0.0051089
6050.0 0.0044497
6070.0 0.0044289
6090.0 0.0048031
6110.0 0.0053682
6130.0 0.0054484
6150.0 0.0046861
6170.0 0.0041199
6190.0 0.0046373
6210.0 0.0061352
6230.0 0.0080561
6250.0 0.0087261
6270.0 0.0076207
6290.0 0.0064123
6310.0 0.0050054
6330.0 0.0038342
6350.0 0.0034215
6370.0 0.003598
6390.0 0.00416
6410.0 0.0051309
6430.0 0.0059923
6450.0 0.0068591
6470.0 0.0078503
6490.0 0.009482
6510.0 0.010602
6530.0 0.010404
6550.0 0.0094089
6570.0 0.0079842
6590.0 0.0072011
6610.0 0.0062079
6630.0 0.0056283
6650.0 0.0053215
6670.0 0.0051663
6690.0 0.0046641
6710.0 0.0042413
6730.0 0.0030483
6750.0 0.0030256
6770.0 0.0032951
6790.0 0.0037908
6810.0 0.0034632
6830.0 0.0035659
6850.0 0.0033332
6870.0 0.0030451
6890.0 0.002922
6910.0 0.0031159
6930.0 0.0029186
6950.0 0.0030051
6970.0 0.0031608
6990.0 0.0035873
7010.0 0.0036168
7030.0 0.003677
7050.0 0.0035048
7070.0 0.003337
7090.0 0.003348
7110.0 0.0034457
7130.0 0.0037096
7150.0 0.0039413
7170.0 0.0043495
7190.0 0.0047808
7210.0 0.0046953
7230.0 0.0048265
7250.0 0.0051866
7270.0 0.0056513
7290.0 0.0067092
7310.0 0.0072796
7330.0 0.0070356
7350.0 0.006363
7370.0 0.0055321
7390.0 0.0053681
7410.0 0.0057086
7430.0 0.0063454
7450.0 0.0069109
7470.0 0.0068441
7490.0 0.0062355
7510.0 0.0070763
7530.0 0.0069961
7550.0 0.0062906
7570.0 0.0049105
7590.0 0.0033695
7610.0 0.0028903
7630.0 0.0032872
7650.0 0.0038889
7670.0 0.004846
7690.0 0.0053329
7710.0 0.0055536
7730.0 0.0058348
7750.0 0.0065556
7770.0 0.0066594
7790.0 0.0061168
7810.0 0.0055776
7830.0 0.0057534
7850.0 0.0055967
7870.0 0.0051333
7890.0 0.0043111
7910.0 0.003501
7930.0 0.0033445
7950.0 0.0030469
7970.0 0.0028192
7990.0 0.002802
8010.0 0.00023497
8030.0 0.00022847
8050.0 0.00022869
8070.0 0.0002376
8090.0 0.00026383
8110.0 0.00025748
8130.0 0.00019811
8150.0 0.00019626
8170.0 0.00015742
8190.0 0.00014149
8210.0 0.00020343
8230.0 0.00023008
8250.0 0.00018679
8270.0 0.00016041
8290.0 0.00017017
8310.0 0.00013451
8330.0 8.9623e-05
8350.0 6.4583e-05
8370.0 3.5369e-05
8390.0 7.3747e-05
8410.0 8.5455e-05
8430.0 0.00010529
8450.0 0.00012311
8470.0 0.00016154
8490.0 0.00015532
8510.0 0.00014738
8530.0 0.00014345
8550.0 0.00021608
8570.0 0.00026778
8590.0 0.00026836
8610.0 0.00034847
8630.0 0.00041405
8650.0 0.00040318
8670.0 0.00044239
8690.0 0.00047084
8710.0 0.000422
8730.0 0.00040126
8750.0 0.00034703
8770.0 0.0003258
8790.0 0.00032578
8810.0 0.000319
8830.0 0.00024067
8850.0 0.00016537
8870.0 0.00012515
8890.0 0.00013733
8910.0 0.00016827
8930.0 0.00019921
8950.0 0.00020633
8970.0 0.00020465
8990.0 0.00017341
9010.0 0.0014908
9030.0 0.0013412
9050.0 0.0013489
9070.0 0.0013608
9090.0 0.0013712
9110.0 0.001384
9130.0 0.0013938
9150.0 0.0014014
9170.0 0.0014094
9190.0 0.001418
9210.0 0.001427
9230.0 0.0014366
9250.0 0.0014463
9270.0 0.0014563
9290.0 0.0014666
9310.0 0.001477
9330.0 0.0014876
9350.0 0.0014986
9370.0 0.0015097
9390.0 0.0015208
9410.0 0.0015323
9430.0 0.0015442
9450.0 0.001556
9470.0 0.001568
9490.0 0.0015804
9510.0 0.0015929
9530.0 0.0016054
9550.0 0.0016184
9570.0 0.0016316
9590.0 0.0016449
9610.0 0.0016584
9630.0 0.0016722
9650.0 0.0016861
9670.0 0.0017001
9690.0 0.0017144
9710.0 0.001729
9730.0 0.0017435
9750.0 0.0017583
9770.0 0.0017736
9790.0 0.0017888
9810.0 0.0018041
9830.0 0.0018197
9850.0 0.0018355
9870.0 0.0018512
9890.0 0.0018672
9910.0 0.0018835
9930.0 0.0018998
9950.0 0.0019162
9970.0 0.0019329
9990.0 0.0019497
10010.0 0.0016926
10030.0 0.0017072
10050.0 0.0017221
10070.0 0.0017374
10090.0 0.0017519
10110.0 0.0017668
10130.0 0.0017817
10150.0 0.0017966
10170.0 0.0018116
10190.0 0.0018269
10210.0 0.0018421
10230.0 0.0018571
10250.0 0.0018725
10270.0 0.0018878
10290.0 0.0019029
10310.0 0.0019182
10330.0 0.0019337
10350.0 0.0019489
10370.0 0.0019641
10390.0 0.0019794
10410.0 0.0019946
10430.0 0.0020096
10450.0 0.0020247
10470.0 0.0020399
10490.0 0.0020548
10510.0 0.0020695
10530.0 0.0020846
10550.0 0.0020994
10570.0 0.0021139
10590.0 0.0021284
10610.0 0.0021429
10630.0 0.0021571
10650.0 0.0021712
10670.0 0.0021854
10690.0 0.0021993
10710.0 0.002213
10730.0 0.0022266
10750.0 0.0022403
10770.0 0.0022534
10790.0 0.0022664
10810.0 0.0022795
10830.0 0.002292
10850.0 0.002304
10870.0 0.0023156
10890.0 0.0023259
10910.0 0.0023338
10930.0 0.0023384
10950.0 0.0023377
10970.0 0.0023301
10990.0 0.0023147
11010.0 0.0022574
11030.0 0.0022215
11050.0 0.0021777
11070.0 0.0021254
11090.0 0.0020625
11110.0 0.0019975
11130.0 0.0019296
11150.0 0.0018565
11170.0 0.0017812
11190.0 0.0017082
11210.0 0.0016327
11230.0 0.0015554
11250.0 0.0014815
11270.0 0.0014105
11290.0 0.0013394
11310.0 0.0012721
11330.0 0.0012127
11350.0 0.0011567
11370.0 0.0011049
11390.0 0.0010601
11410.0 0.0010209
11430.0 0.0009845
11450.0 0.00095311
11470.0 0.00092596
11490.0 0.0009007
11510.0 0.00087636
11530.0 0.00085377
11550.0 0.00083133
11570.0 0.00080738
11590.0 0.0007826
11610.0 0.00075737
11630.0 0.00072991
11650.0 0.00070052
11670.0 0.00067155
11690.0 0.00064217
11710.0 0.00061187
11730.0 0.00058251
11750.0 0.00055533
11770.0 0.00052868
11790.0 0.00050371
11810.0 0.00048172
11830.0 0.00046205
11850.0 0.00044394
11870.0 0.00042878
11890.0 0.00041618
11910.0 0.0004051
11930.0 0.00039558
11950.0 0.00038765
11970.0 0.00038057
11990.0 0.00037387
12010.0 0.00036767
12030.0 0.0003617
12050.0 0.00035553
12070.0 0.00034911
12090.0 0.00034292
12110.0 0.00033664
12130.0 0.00033035
12150.0 0.00032454
12170.0 0.00031948
12190.0 0.00031509
12210.0 0.00031203
12230.0 0.00031054
12250.0 0.00031077
12270.0 0.0003131
12290.0 0.00031751
12310.0 0.00032386
12330.0 0.00033273
12350.0 0.00034381
12370.0 0.00035643
12390.0 0.00037098
12410.0 0.00038803
12430.0 0.00040536
12450.0 0.00042331
12470.0 0.00044239
12490.0 0.00046156
12510.0 0.00047954
12530.0 0.00049743
12550.0 0.00051469
12570.0 0.00052992
12590.0 0.00054329
12610.0 0.00055521
12630.0 0.0005647
12650.0 0.00057125
12670.0 0.00057556
12690.0 0.00057728
12710.0 0.00057632
12730.0 0.00057297
12750.0 0.00056701
12770.0 0.00055882
12790.0 0.00054889
12810.0 0.00053704
12830.0 0.00052333
12850.0 0.000509
12870.0 0.00049384
12890.0 0.00047743
12910.0 0.00046076
12930.0 0.00044433
12950.0 0.00042719
12970.0 0.00040973
12990.0 0.00039322
13010.0 0.00037692
13030.0 0.00036044
13050.0 0.0003446
13070.0 0.00032977
13090.0 0.00031489
13110.0 0.00030048
13130.0 0.00028721
13150.0 0.00027463
13170.0 0.00026232
13190.0 0.00025137
13210.0 0.00024173
13230.0 0.00023291
13250.0 0.00022532
13270.0 0.00021933
13290.0 0.00021467
13310.0 0.00021146
13330.0 0.00020999
13350.0 0.00021015
13370.0 0.00021203
13390.0 0.00021573
13410.0 0.00022073
13430.0 0.00022723
13450.0 0.00023526
13470.0 0.00024418
13490.0 0.00025363
13510.0 0.00026429
13530.0 0.00027509
13550.0 0.00028543
13570.0 0.00029563
13590.0 0.00030557
13610.0 0.00031441
13630.0 0.00032213
13650.0 0.00032918
13670.0 0.00033504
13690.0 0.00033956
13710.0 0.00034306
13730.0 0.00034557
13750.0 0.00034682
13770.0 0.00034711
13790.0 0.00034648
13810.0 0.00034495
13830.0 0.00034269
13850.0 0.00033963
13870.0 0.00033577
13890.0 0.00033135
13910.0 0.00032637
13930.0 0.00032061
13950.0 0.00031432
13970.0 0.00030789
13990.0 0.00030089
14010.0 0.00029344
14030.0 0.00028601
14050.0 0.00027852
14070.0 0.00027061
14090.0 0.00026304
14110.0 0.00025592
14130.0 0.00024902
14150.0 0.00024253
14170.0 0.00023698
14190.0 0.00023219
14210.0 0.00022812
14230.0 0.00022511
14250.0 0.00022316
14270.0 0.00022222
14290.0 0.00022242
14310.0 0.00022366
14330.0 0.00022588
14350.0 0.00022916
14370.0 0.00023324
14390.0 0.00023788
14410.0 0.00024334
14430.0 0.00024933
14450.0 0.00025546
14470.0 0.00026181
14490.0 0.00026857
14510.0 0.00027503
14530.0 0.00028117
14550.0 0.0002873
14570.0 0.0002932
14590.0 0.00029856
14610.0 0.00030375
14630.0 0.00030888
14650.0 0.00031366
14670.0 0.00031827
14690.0 0.00032309
14710.0 0.00032815
14730.0 0.00033321
14750.0 0.00033881
14770.0 0.00034517
14790.0 0.00035207
14810.0 0.00035953
14830.0 0.00036838
14850.0 0.000378
14870.0 0.00038804
14890.0 0.00039887
14910.0 0.00041037
14930.0 0.00042143
14950.0 0.00043176
14970.0 0.00044155
14990.0 0.00044975
15010.0 0.00045603
15030.0 0.00046068
15050.0 0.00046375
15070.0 0.00046525
15090.0 0.00046578
15110.0 0.00046563
15130.0 0.00046505
15150.0 0.00046427
15170.0 0.00046334
15190.0 0.00046235
15210.0 0.00046137
15230.0 0.00046039
15250.0 0.00045937
15270.0 0.00045837
15290.0 0.00045742
15310.0 0.00045645
15330.0 0.00045546
15350.0 0.00045452
15370.0 0.00045358
15390.0 0.00045259
15410.0 0.00045164
15430.0 0.00045071
15450.0 0.00044977
15470.0 0.00044881
15490.0 0.0004479
15510.0 0.00044699
15530.0 0.00044604
15550.0 0.00044512
15570.0 0.00044424
15590.0 0.00044331
15610.0 0.00044237
15630.0 0.00044148
15650.0 0.00044059
15670.0 0.00043967
15690.0 0.00043878
15710.0 0.00043791
15730.0 0.00043701
15750.0 0.0004361
15770.0 0.00043524
15790.0 0.00043436
15810.0 0.00043344
15830.0 0.00043256
15850.0 0.00043171
15870.0 0.00043083
15890.0 0.00042994
15910.0 0.00042909
15930.0 0.00042823
15950.0 0.00042733
15970.0 0.00042646
15990.0 0.00042561
16010.0 0.00042473
16030.0 0.00042384
16050.0 0.000423
16070.0 0.00042215
16090.0 0.00042126
16110.0 0.00042041
16130.0 0.00041957
16150.0 0.00041868
16170.0 0.0004178
16190.0 0.00041696
16210.0 0.0004161
16230.0 0.00041521
16250.0 0.00041436
16270.0 0.00041352
16290.0 0.00041264
16310.0 0.00041177
16330.0 0.00041092
16350.0 0.00041006
16370.0 0.00040915
16390.0 0.0004083
16410.0 0.00040745
16430.0 0.00040657
16450.0 0.00040569
16470.0 0.00040486
16490.0 0.00040397
16510.0 0.00040308
16530.0 0.00040222
16550.0 0.00040136
16570.0 0.00040045
16590.0 0.00039956
16610.0 0.00039871
16630.0 0.00039783
16650.0 0.00039693
16670.0 0.00039606
16690.0 0.0003952
16710.0 0.00039427
16730.0 0.00039338
16750.0 0.00039251
16770.0 0.00039161
16790.0 0.00039069
16810.0 0.00038981
16830.0 0.00038893
16850.0 0.00038801
16870.0 0.0003871
16890.0 0.00038623
16910.0 0.0003853
16930.0 0.00038436
16950.0 0.00038347
16970.0 0.00038256
16990.0 0.00038163
17010.0 0.00038071
17030.0 0.00037982
17050.0 0.00037888
17070.0 0.00037794
17090.0 0.00037703
17110.0 0.00037611
17130.0 0.00037513
17150.0 0.0003742
17170.0 0.00037329
17190.0 0.00037234
17210.0 0.00037138
17230.0 0.00037047
17250.0 0.00036952
17270.0 0.00036854
17290.0 0.00036759
17310.0 0.00036666
17330.0 0.00036568
17350.0 0.0003647
17370.0 0.00036377
17390.0 0.00036281
17410.0 0.00036182
17430.0 0.00036086
17450.0 0.00035992
17470.0 0.0003589
17490.0 0.00035791
17510.0 0.00035696
17530.0 0.00035597
17550.0 0.00035497
17570.0 0.00035399
17590.0 0.00035303
17610.0 0.00035201
17630.0 0.00035101
17650.0 0.00035004
17670.0 0.00034904
17690.0 0.00034799
17710.0 0.00034701
17730.0 0.00034602
17750.0 0.000345
17770.0 0.00034399
17790.0 0.00034301
17810.0 0.00034198
17830.0 0.00034094
17850.0 0.00033994
17870.0 0.00033893
17890.0 0.00033788
17910.0 0.00033684
17930.0 0.00033585
17950.0 0.00033481
17970.0 0.00033377
17990.0 0.00033276
18010.0 0.00033174
18030.0 0.00033066
18050.0 0.00032963
18070.0 0.00032861
18090.0 0.00032756
18110.0 0.00032649
18130.0 0.00032547
18150.0 0.00032444
18170.0 0.00032337
18190.0 0.00032232
18210.0 0.0003213
18230.0 0.00032022
18250.0 0.00031914
18270.0 0.00031811
18290.0 0.00031706
18310.0 0.00031598
18330.0 0.00031492
18350.0 0.00031389
18370.0 0.00031281
18390.0 0.00031173
18410.0 0.00031069
18430.0 0.00030963
18450.0 0.00030852
18470.0 0.00030746
18490.0 0.00030642
18510.0 0.00030533
18530.0 0.00030425
18550.0 0.00030321
18570.0 0.00030214
18590.0 0.00030103
18610.0 0.00029996
18630.0 0.00029891
18650.0 0.00029781
18670.0 0.00029671
18690.0 0.00029567
18710.0 0.00029459
18730.0 0.00029349
18750.0 0.00029243
18770.0 0.00029137
18790.0 0.00029025
18810.0 0.00028916
18830.0 0.0002881
18850.0 0.00028701
18870.0 0.00028591
18890.0 0.00028484
18910.0 0.00028378
18930.0 0.00028267
18950.0 0.00028158
18970.0 0.00028052
18990.0 0.00027943
19010.0 0.0002783
19030.0 0.00027724
19050.0 0.00027617
19070.0 0.00027507
19090.0 0.00027398
19110.0 0.00027293
19130.0 0.00027182
19150.0 0.00027071
19170.0 0.00026964
19190.0 0.00026857
19210.0 0.00026745
19230.0 0.00026636
19250.0 0.00026531
19270.0 0.00026421
19290.0 0.00026311
19310.0 0.00026205
19330.0 0.00026097
19350.0 0.00025985
19370.0 0.00025877
19390.0 0.0002577
19410.0 0.00025661
19430.0 0.0002555
19450.0 0.00025444
19470.0 0.00025337
19490.0 0.00025226
19510.0 0.00025118
19530.0 0.00025013
19550.0 0.00024902
19570.0 0.00024791
19590.0 0.00024686
19610.0 0.00024578
19630.0 0.00024468
19650.0 0.00024361
19670.0 0.00024256
19690.0 0.00024146
19710.0 0.00024036
19730.0 0.00023931
19750.0 0.00023823
19770.0 0.00023712
19790.0 0.00023605
19810.0 0.000235
19830.0 0.0002339
19850.0 0.0002328
19870.0 0.00023172
19890.0 0.00023056
19910.0 0.00022929
19930.0 0.00022793
19950.0 0.00022637
19970.0 0.00022445
19990.0 0.00022215
20010.0 0.00019766
20030.0 0.0001948
20050.0 0.00019145
20070.0 0.00018782
20090.0 0.00018392
20110.0 0.0001795
20130.0 0.00017503
20150.0 0.0001706
20170.0 0.00016601
20190.0 0.00016135
20210.0 0.00015695
20230.0 0.00015266
20250.0 0.00014836
20270.0 0.00014437
20290.0 0.00014073
20310.0 0.00013727
20330.0 0.00013403
20350.0 0.00013135
20370.0 0.00012896
20390.0 0.00012687
20410.0 0.00012518
20430.0 0.00012388
20450.0 0.00012285
20470.0 0.00012216
20490.0 0.00012178
20510.0 0.00012168
20530.0 0.00012183
20550.0 0.0001222
20570.0 0.00012275
20590.0 0.00012349
20610.0 0.00012439
20630.0 0.00012537
20650.0 0.00012648
20670.0 0.00012774
20690.0 0.00012903
20710.0 0.00013036
20730.0 0.0001318
20750.0 0.0001333
20770.0 0.00013477
20790.0 0.00013632
20810.0 0.00013796
20830.0 0.00013959
20850.0 0.00014123
20870.0 0.00014298
20890.0 0.00014477
20910.0 0.00014649
20930.0 0.00014828
20950.0 0.00015014
20970.0 0.00015194
20990.0 0.00015373
21010.0 0.0001556
21030.0 0.00015743
21050.0 0.00015918
21070.0 0.00016093
21090.0 0.00016268
21110.0 0.00016428
21130.0 0.00016578
21150.0 0.00016723
21170.0 0.00016855
21190.0 0.00016968
21210.0 0.0001707
21230.0 0.00017155
21250.0 0.00017215
21270.0 0.00017253
21290.0 0.00017268
21310.0 0.00017254
21330.0 0.00017213
21350.0 0.00017142
21370.0 0.00017037
21390.0 0.00016903
21410.0 0.0001674
21430.0 0.00016533
21450.0 0.00016301
21470.0 0.00016048
21490.0 0.00015762
21510.0 0.00015448
21530.0 0.00015129
21550.0 0.00014795
21570.0 0.00014439
21590.0 0.00014089
21610.0 0.0001375
21630.0 0.00013411
21650.0 0.0001308
21670.0 0.00012793
21690.0 0.00012529
21710.0 0.0001229
21730.0 0.00012095
21750.0 0.00011945
21770.0 0.0001183
21790.0 0.00011764
21810.0 0.00011746
21830.0 0.00011772
21850.0 0.00011845
21870.0 0.0001196
21890.0 0.00012108
21910.0 0.00012298
21930.0 0.00012521
21950.0 0.00012763
21970.0 0.0001303
21990.0 0.0001333
22010.0 0.0001363
22030.0 0.00013935
22050.0 0.00014255
22070.0 0.00014577
22090.0 0.00014882
22110.0 0.00015189
22130.0 0.00015496
22150.0 0.00015782
22170.0 0.00016052
22190.0 0.0001632
22210.0 0.00016569
22230.0 0.00016788
22250.0 0.00016995
22270.0 0.00017185
22290.0 0.00017347
22310.0 0.00017487
22330.0 0.00017609
22350.0 0.00017704
22370.0 0.00017771
22390.0 0.00017813
22410.0 0.00017826
22430.0 0.00017809
22450.0 0.00017763
22470.0 0.00017684
22490.0 0.00017573
22510.0 0.00017434
22530.0 0.00017256
22550.0 0.0001704
22570.0 0.00016801
22590.0 0.0001653
22610.0 0.0001622
22630.0 0.00015883
22650.0 0.00015535
22670.0 0.00015151
22690.0 0.0001474
22710.0 0.00014326
22730.0 0.00013899
22750.0 0.00013437
22770.0 0.00012984
22790.0 0.00012543
22810.0 0.0001209
22830.0 0.00011637
22850.0 0.00011214
22870.0 0.00010799
22890.0 0.00010386
22910.0 0.00010006
22930.0 9.6577e-05
22950.0 9.3257e-05
22970.0 9.0184e-05
