#lamb flux
1010.0 6.3422e-10
1030.0 7.8928e-10
1050.0 9.6129e-10
1070.0 1.1468e-09
1090.0 1.3477e-09
1110.0 1.5394e-09
1130.0 1.7163e-09
1150.0 1.8865e-09
1170.0 2.0461e-09
1190.0 2.1772e-09
1210.0 2.2972e-09
1230.0 2.4125e-09
1250.0 2.5165e-09
1270.0 2.6134e-09
1290.0 2.725e-09
1310.0 2.8468e-09
1330.0 2.9786e-09
1350.0 3.1359e-09
1370.0 3.3275e-09
1390.0 3.5477e-09
1410.0 3.7979e-09
1430.0 4.0925e-09
1450.0 4.423e-09
1470.0 4.7806e-09
1490.0 5.1701e-09
1510.0 5.5975e-09
1530.0 6.0346e-09
1550.0 6.4838e-09
1570.0 6.9506e-09
1590.0 7.4236e-09
1610.0 7.8869e-09
1630.0 8.3553e-09
1650.0 8.8256e-09
1670.0 9.2798e-09
1690.0 9.7215e-09
1710.0 1.0163e-08
1730.0 1.0597e-08
1750.0 1.1002e-08
1770.0 1.1404e-08
1790.0 1.1801e-08
1810.0 1.2179e-08
1830.0 1.2542e-08
1850.0 1.2873e-08
1870.0 1.3155e-08
1890.0 1.343e-08
1910.0 1.3715e-08
1930.0 1.4011e-08
1950.0 1.43e-08
1970.0 1.459e-08
1990.0 1.4891e-08
2010.0 1.5189e-08
2030.0 1.5476e-08
2050.0 1.5774e-08
2070.0 1.6086e-08
2090.0 1.6386e-08
2110.0 1.6688e-08
2130.0 1.7002e-08
2150.0 1.7314e-08
2170.0 1.7616e-08
2190.0 1.7932e-08
2210.0 1.8224e-08
2230.0 1.8469e-08
2250.0 1.8712e-08
2270.0 1.8968e-08
2290.0 1.9215e-08
2310.0 1.9451e-08
2330.0 1.9697e-08
2350.0 1.9947e-08
2370.0 2.0186e-08
2390.0 2.043e-08
2410.0 2.069e-08
2430.0 2.0948e-08
2450.0 2.1214e-08
2470.0 2.1518e-08
2490.0 2.1884e-08
2510.0 2.2318e-08
2530.0 2.2897e-08
2550.0 2.3717e-08
2570.0 2.4832e-08
2590.0 2.6314e-08
2610.0 2.8436e-08
2630.0 3.1244e-08
2650.0 3.4667e-08
2670.0 3.8878e-08
2690.0 4.3954e-08
2710.0 4.9494e-08
2730.0 5.5304e-08
2750.0 6.1572e-08
2770.0 6.7789e-08
2790.0 7.3582e-08
2810.0 7.9044e-08
2830.0 8.4183e-08
2850.0 8.8549e-08
2870.0 9.2459e-08
2890.0 9.6137e-08
2910.0 9.9613e-08
2930.0 1.0295e-07
2950.0 1.064e-07
2970.0 1.0999e-07
2990.0 1.1369e-07
3010.0 1.1754e-07
3030.0 1.2165e-07
3050.0 1.2596e-07
3070.0 1.3035e-07
3090.0 1.35e-07
3110.0 1.3992e-07
3130.0 1.452e-07
3150.0 1.5141e-07
3170.0 1.5918e-07
3190.0 1.6923e-07
3210.0 1.8228e-07
3230.0 1.9943e-07
3250.0 2.2063e-07
3270.0 2.4002e-07
3290.0 2.7209e-07
3310.0 3.4043e-07
3330.0 3.6278e-07
3350.0 3.7354e-07
3370.0 3.8383e-07
3390.0 3.9431e-07
3410.0 4.0503e-07
3430.0 4.159e-07
3450.0 4.268e-07
3470.0 4.3746e-07
3490.0 4.479e-07
3510.0 4.5802e-07
3530.0 4.5466e-07
3550.0 4.4196e-07
3570.0 4.4738e-07
3590.0 4.7277e-07
3610.0 5.142e-07
3630.0 5.2731e-07
3650.0 5.0531e-07
3670.0 4.6551e-07
3690.0 4.4395e-07
3710.0 4.5137e-07
3730.0 4.6623e-07
3750.0 4.74e-07
3770.0 4.8997e-07
3790.0 5.0786e-07
3810.0 4.993e-07
3830.0 4.6554e-07
3850.0 4.363e-07
3870.0 4.2257e-07
3890.0 4.1654e-07
3910.0 4.0623e-07
3930.0 4.0146e-07
3950.0 4.1237e-07
3970.0 4.2517e-07
3990.0 4.2946e-07
4010.0 4.1288e-07
4030.0 3.9041e-07
4050.0 3.7625e-07
4070.0 3.6424e-07
4090.0 3.5411e-07
4110.0 3.4064e-07
4130.0 3.2004e-07
4150.0 2.9962e-07
4170.0 2.8754e-07
4190.0 2.676e-07
4210.0 2.4241e-07
4230.0 2.1678e-07
4250.0 1.9269e-07
4270.0 1.75e-07
4290.0 1.6127e-07
4310.0 1.5413e-07
4330.0 1.5392e-07
4350.0 1.5371e-07
4370.0 1.552e-07
4390.0 1.6033e-07
4410.0 1.6393e-07
4430.0 1.5761e-07
4450.0 1.4336e-07
4470.0 1.3119e-07
4490.0 1.2429e-07
4510.0 1.2004e-07
4530.0 1.1797e-07
4550.0 1.1627e-07
4570.0 1.1584e-07
4590.0 1.1742e-07
4610.0 1.2159e-07
4630.0 1.2408e-07
4650.0 1.2554e-07
4670.0 1.2248e-07
4690.0 1.1547e-07
4710.0 1.0833e-07
4730.0 1.0394e-07
4750.0 1.0119e-07
4770.0 1.0138e-07
4790.0 1.01e-07
4810.0 9.8821e-08
4830.0 9.8743e-08
4850.0 1.0194e-07
4870.0 1.0287e-07
4890.0 1.0098e-07
4910.0 9.8887e-08
4930.0 9.3318e-08
4950.0 8.4926e-08
4970.0 7.9417e-08
4990.0 7.4898e-08
5010.0 7.3871e-08
5030.0 7.6375e-08
5050.0 7.8372e-08
5070.0 8.1283e-08
5090.0 8.6206e-08
5110.0 8.7555e-08
5130.0 8.8298e-08
5150.0 8.999e-08
5170.0 9.0623e-08
5190.0 9.3015e-08
5210.0 9.3527e-08
5230.0 9.2528e-08
5250.0 9.3371e-08
5270.0 9.4746e-08
5290.0 9.5037e-08
5310.0 9.4302e-08
5330.0 9.254e-08
5350.0 9.1148e-08
5370.0 9.021e-08
5390.0 8.909e-08
5410.0 8.8071e-08
5430.0 8.8132e-08
5450.0 8.9313e-08
5470.0 9.0968e-08
5490.0 9.3158e-08
5510.0 9.602e-08
5530.0 9.718e-08
5550.0 9.8763e-08
5570.0 9.8711e-08
5590.0 9.6297e-08
5610.0 9.5565e-08
5630.0 9.6433e-08
5650.0 9.5211e-08
5670.0 9.309e-08
5690.0 9.0146e-08
5710.0 9.0163e-08
5730.0 9.0982e-08
5750.0 8.7049e-08
5770.0 8.2629e-08
5790.0 7.5547e-08
5810.0 6.5697e-08
5830.0 7.1104e-08
5850.0 7.9312e-08
5870.0 8.1288e-08
5890.0 8.175e-08
5910.0 8.2135e-08
5930.0 8.2066e-08
5950.0 8.057e-08
5970.0 7.9577e-08
5990.0 7.8264e-08
6010.0 7.5932e-08
6030.0 7.3227e-08
6050.0 7.2106e-08
6070.0 7.2024e-08
6090.0 7.0764e-08
6110.0 6.8289e-08
6130.0 6.6061e-08
6150.0 6.3347e-08
6170.0 6.0594e-08
6190.0 5.825e-08
6210.0 5.6121e-08
6230.0 5.5172e-08
6250.0 5.4004e-08
6270.0 5.2871e-08
6290.0 5.2294e-08
6310.0 5.1742e-08
6330.0 5.0548e-08
6350.0 4.8923e-08
6370.0 4.7896e-08
6390.0 4.7165e-08
6410.0 4.5742e-08
6430.0 4.459e-08
6450.0 4.3529e-08
6470.0 4.2513e-08
6490.0 4.1809e-08
6510.0 4.128e-08
6530.0 4.0162e-08
6550.0 3.9267e-08
6570.0 3.8771e-08
6590.0 3.8578e-08
6610.0 3.8316e-08
6630.0 3.6986e-08
6650.0 3.6031e-08
6670.0 3.5719e-08
6690.0 3.5189e-08
6710.0 3.4387e-08
6730.0 3.4124e-08
6750.0 3.439e-08
6770.0 3.661e-08
6790.0 4.1466e-08
6810.0 3.9261e-08
6830.0 3.4089e-08
6850.0 3.2851e-08
6870.0 3.2342e-08
6890.0 3.2364e-08
6910.0 3.2443e-08
6930.0 3.2568e-08
6950.0 3.2377e-08
6970.0 3.1561e-08
6990.0 3.1275e-08
7010.0 3.1759e-08
7030.0 3.1828e-08
7050.0 3.1358e-08
7070.0 3.1261e-08
7090.0 3.1666e-08
7110.0 3.238e-08
7130.0 3.2492e-08
7150.0 3.2567e-08
7170.0 3.2746e-08
7190.0 3.3219e-08
7210.0 3.3487e-08
7230.0 3.367e-08
7250.0 3.4141e-08
7270.0 3.4438e-08
7290.0 3.4903e-08
7310.0 3.5702e-08
7330.0 3.546e-08
7350.0 3.4746e-08
7370.0 3.4131e-08
7390.0 3.3873e-08
7410.0 3.4275e-08
7430.0 3.4663e-08
7450.0 3.4894e-08
7470.0 3.5232e-08
7490.0 3.4987e-08
7510.0 3.4729e-08
7530.0 3.5044e-08
7550.0 3.6498e-08
7570.0 3.6375e-08
7590.0 3.4431e-08
7610.0 3.3917e-08
7630.0 3.6002e-08
7650.0 3.6598e-08
7670.0 3.7153e-08
7690.0 3.8735e-08
7710.0 4.0029e-08
7730.0 4.034e-08
7750.0 4.252e-08
7770.0 4.1284e-08
7790.0 4.0167e-08
7810.0 4.2768e-08
7830.0 4.4252e-08
7850.0 4.5629e-08
7870.0 4.6316e-08
7890.0 4.6814e-08
7910.0 4.6459e-08
7930.0 4.6852e-08
7950.0 4.8901e-08
7970.0 4.8938e-08
7990.0 4.5555e-08
8010.0 4.636e-08
8030.0 4.7052e-08
8050.0 4.793e-08
8070.0 4.3615e-08
8090.0 2.9595e-08
8110.0 3.0605e-08
8130.0 4.2644e-08
8150.0 4.5941e-08
8170.0 4.7796e-08
8190.0 4.9009e-08
8210.0 4.8193e-08
8230.0 5.1914e-08
8250.0 5.2903e-08
8270.0 5.0366e-08
8290.0 4.8544e-08
8310.0 4.7663e-08
8330.0 4.9819e-08
8350.0 5.216e-08
8370.0 5.1356e-08
8390.0 4.9019e-08
8410.0 4.8938e-08
8430.0 4.5928e-08
8450.0 4.6685e-08
8470.0 5.1041e-08
8490.0 5.1196e-08
8510.0 4.7449e-08
8530.0 4.4783e-08
8550.0 4.3033e-08
8570.0 4.0398e-08
8590.0 4.1561e-08
8610.0 4.387e-08
8630.0 4.5187e-08
8650.0 4.5945e-08
8670.0 4.4851e-08
8690.0 4.3794e-08
8710.0 4.0953e-08
8730.0 3.9397e-08
8750.0 4.0775e-08
8770.0 4.1318e-08
8790.0 4.1484e-08
8810.0 4.0998e-08
8830.0 4.1717e-08
8850.0 4.3907e-08
8870.0 4.1027e-08
8890.0 3.8565e-08
8910.0 3.802e-08
8930.0 3.6063e-08
8950.0 3.4524e-08
8970.0 3.4398e-08
8990.0 3.2964e-08
9010.0 3.0922e-08
9030.0 3.0231e-08
9050.0 2.9987e-08
9070.0 2.9771e-08
9090.0 2.9553e-08
9110.0 2.9334e-08
9130.0 2.9114e-08
9150.0 2.8892e-08
9170.0 2.867e-08
9190.0 2.8448e-08
9210.0 2.8224e-08
9230.0 2.8001e-08
9250.0 2.7778e-08
9270.0 2.7555e-08
9290.0 2.7332e-08
9310.0 2.7112e-08
9330.0 2.6896e-08
9350.0 2.6681e-08
9370.0 2.6466e-08
9390.0 2.6252e-08
9410.0 2.6039e-08
9430.0 2.5828e-08
9450.0 2.5617e-08
9470.0 2.5409e-08
9490.0 2.5201e-08
9510.0 2.4994e-08
9530.0 2.4788e-08
9550.0 2.4584e-08
9570.0 2.4382e-08
9590.0 2.4182e-08
9610.0 2.3987e-08
9630.0 2.3795e-08
9650.0 2.3604e-08
9670.0 2.3415e-08
9690.0 2.3227e-08
9710.0 2.3042e-08
9730.0 2.2858e-08
9750.0 2.2676e-08
9770.0 2.2496e-08
9790.0 2.2318e-08
9810.0 2.2142e-08
9830.0 2.1968e-08
9850.0 2.1794e-08
9870.0 2.1621e-08
9890.0 2.1454e-08
9910.0 2.1288e-08
9930.0 2.1123e-08
9950.0 2.0961e-08
9970.0 2.08e-08
9990.0 2.0641e-08
10010.0 2.0484e-08
10030.0 2.0329e-08
10050.0 2.0175e-08
10070.0 2.0024e-08
10090.0 1.9874e-08
10110.0 1.9726e-08
10130.0 1.9579e-08
10150.0 1.9435e-08
10170.0 1.9292e-08
10190.0 1.9151e-08
10210.0 1.9012e-08
10230.0 1.8874e-08
10250.0 1.8738e-08
10270.0 1.8604e-08
10290.0 1.8471e-08
10310.0 1.834e-08
10330.0 1.821e-08
10350.0 1.8082e-08
10370.0 1.7955e-08
10390.0 1.7829e-08
10410.0 1.7679e-08
10430.0 1.7522e-08
10450.0 1.7431e-08
10470.0 1.7324e-08
10490.0 1.7216e-08
10510.0 1.7106e-08
10530.0 1.6992e-08
10550.0 1.6879e-08
10570.0 1.6769e-08
10590.0 1.6657e-08
10610.0 1.6546e-08
10630.0 1.6439e-08
10650.0 1.6332e-08
10670.0 1.6224e-08
10690.0 1.6118e-08
10710.0 1.6015e-08
10730.0 1.5912e-08
10750.0 1.5807e-08
10770.0 1.5708e-08
10790.0 1.5609e-08
10810.0 1.5509e-08
10830.0 1.5411e-08
10850.0 1.5316e-08
10870.0 1.5218e-08
10890.0 1.5121e-08
10910.0 1.5026e-08
10930.0 1.4932e-08
10950.0 1.4834e-08
10970.0 1.4737e-08
10990.0 1.4641e-08
11010.0 1.2825e-08
11030.0 1.2731e-08
11050.0 1.2639e-08
11070.0 1.2545e-08
11090.0 1.2447e-08
11110.0 1.2352e-08
11130.0 1.2257e-08
11150.0 1.2158e-08
11170.0 1.2059e-08
11190.0 1.1963e-08
11210.0 1.1864e-08
11230.0 1.1763e-08
11250.0 1.1665e-08
11270.0 1.157e-08
11290.0 1.1474e-08
11310.0 1.138e-08
11330.0 1.1294e-08
11350.0 1.121e-08
11370.0 1.1128e-08
11390.0 1.1052e-08
11410.0 1.0981e-08
11430.0 1.0911e-08
11450.0 1.0844e-08
11470.0 1.0782e-08
11490.0 1.072e-08
11510.0 1.0658e-08
11530.0 1.06e-08
11550.0 1.0541e-08
11570.0 1.048e-08
11590.0 1.0419e-08
11610.0 1.0359e-08
11630.0 1.0296e-08
11650.0 1.0229e-08
11670.0 1.0164e-08
11690.0 1.0097e-08
11710.0 1.0027e-08
11730.0 9.957e-09
11750.0 9.8887e-09
11770.0 9.8173e-09
11790.0 9.7449e-09
11810.0 9.6749e-09
11830.0 9.6056e-09
11850.0 9.5337e-09
11870.0 9.4653e-09
11890.0 9.4007e-09
11910.0 9.3363e-09
11930.0 9.2736e-09
11950.0 9.216e-09
11970.0 9.1608e-09
11990.0 9.1066e-09
12010.0 9.0571e-09
12030.0 9.012e-09
12050.0 8.9689e-09
12070.0 8.9285e-09
12090.0 8.8935e-09
12110.0 8.8609e-09
12130.0 8.8302e-09
12150.0 8.8026e-09
12170.0 8.7777e-09
12190.0 8.7529e-09
12210.0 8.7292e-09
12230.0 8.7067e-09
12250.0 8.6836e-09
12270.0 8.6586e-09
12290.0 8.6326e-09
12310.0 8.6051e-09
12330.0 8.5736e-09
12350.0 8.5387e-09
12370.0 8.5013e-09
12390.0 8.4597e-09
12410.0 8.4116e-09
12430.0 8.3618e-09
12450.0 8.3088e-09
12470.0 8.2504e-09
12490.0 8.1884e-09
12510.0 8.1262e-09
12530.0 8.0594e-09
12550.0 7.9887e-09
12570.0 7.9183e-09
12590.0 7.8474e-09
12610.0 7.7725e-09
12630.0 7.6971e-09
12650.0 7.6258e-09
12670.0 7.5528e-09
12690.0 7.4794e-09
12710.0 7.4096e-09
12730.0 7.3424e-09
12750.0 7.2735e-09
12770.0 7.2088e-09
12790.0 7.1487e-09
12810.0 7.0902e-09
12830.0 7.0336e-09
12850.0 6.983e-09
12870.0 6.9361e-09
12890.0 6.8912e-09
12910.0 6.8509e-09
12930.0 6.8156e-09
12950.0 6.7831e-09
12970.0 6.7542e-09
12990.0 6.7309e-09
13010.0 6.7115e-09
13030.0 6.6956e-09
13050.0 6.6837e-09
13070.0 6.6755e-09
13090.0 6.6698e-09
13110.0 6.6665e-09
13130.0 6.6648e-09
13150.0 6.664e-09
13170.0 6.663e-09
13190.0 6.6612e-09
13210.0 6.6577e-09
13230.0 6.6518e-09
13250.0 6.6426e-09
13270.0 6.6303e-09
13290.0 6.6141e-09
13310.0 6.5929e-09
13330.0 6.5681e-09
13350.0 6.5397e-09
13370.0 6.5063e-09
13390.0 6.468e-09
13410.0 6.4285e-09
13430.0 6.3849e-09
13450.0 6.3369e-09
13470.0 6.287e-09
13490.0 6.2361e-09
13510.0 6.1795e-09
13530.0 6.1213e-09
13550.0 6.0636e-09
13570.0 6.0036e-09
13590.0 5.9404e-09
13610.0 5.878e-09
13630.0 5.8165e-09
13650.0 5.7516e-09
13670.0 5.6867e-09
13690.0 5.6238e-09
13710.0 5.56e-09
13730.0 5.4934e-09
13750.0 5.4311e-09
13770.0 5.3701e-09
13790.0 5.3083e-09
13810.0 5.248e-09
13830.0 5.1919e-09
13850.0 5.1354e-09
13870.0 5.0798e-09
13890.0 5.0279e-09
13910.0 4.9783e-09
13930.0 4.9286e-09
13950.0 4.8812e-09
13970.0 4.838e-09
13990.0 4.7952e-09
14010.0 4.7535e-09
14030.0 4.7149e-09
14050.0 4.6782e-09
14070.0 4.6412e-09
14090.0 4.6069e-09
14110.0 4.5752e-09
14130.0 4.5442e-09
14150.0 4.5141e-09
14170.0 4.4867e-09
14190.0 4.4607e-09
14210.0 4.4349e-09
14230.0 4.4105e-09
14250.0 4.3878e-09
14270.0 4.3649e-09
14290.0 4.3423e-09
14310.0 4.3213e-09
14330.0 4.3007e-09
14350.0 4.2798e-09
14370.0 4.2597e-09
14390.0 4.2405e-09
14410.0 4.2208e-09
14430.0 4.2013e-09
14450.0 4.1826e-09
14470.0 4.1641e-09
14490.0 4.1448e-09
14510.0 4.1263e-09
14530.0 4.1083e-09
14550.0 4.0897e-09
14570.0 4.071e-09
14590.0 4.0529e-09
14610.0 4.0344e-09
14630.0 4.015e-09
14650.0 3.996e-09
14670.0 3.9771e-09
14690.0 3.9574e-09
14710.0 3.9372e-09
14730.0 3.9179e-09
14750.0 3.8979e-09
14770.0 3.8771e-09
14790.0 3.8564e-09
14810.0 3.8359e-09
14830.0 3.8138e-09
14850.0 3.7916e-09
14870.0 3.77e-09
14890.0 3.7478e-09
14910.0 3.7251e-09
14930.0 3.7036e-09
14950.0 3.6833e-09
14970.0 3.6632e-09
14990.0 3.645e-09
15010.0 3.6289e-09
15030.0 3.6143e-09
15050.0 3.6008e-09
15070.0 3.5893e-09
15090.0 3.5788e-09
15110.0 3.5687e-09
15130.0 3.559e-09
15150.0 3.5499e-09
15170.0 3.5406e-09
15190.0 3.5312e-09
15210.0 3.5222e-09
15230.0 3.5131e-09
15250.0 3.5038e-09
15270.0 3.4945e-09
15290.0 3.4857e-09
15310.0 3.4765e-09
15330.0 3.4673e-09
15350.0 3.4584e-09
15370.0 3.4495e-09
15390.0 3.4401e-09
15410.0 3.431e-09
15430.0 3.4221e-09
15450.0 3.413e-09
15470.0 3.4038e-09
15490.0 3.3949e-09
15510.0 3.3861e-09
15530.0 3.3769e-09
15550.0 3.3679e-09
15570.0 3.3591e-09
15590.0 3.35e-09
15610.0 3.3408e-09
15630.0 3.332e-09
15650.0 3.3232e-09
15670.0 3.3141e-09
15690.0 3.3052e-09
15710.0 3.2966e-09
15730.0 3.2875e-09
15750.0 3.2785e-09
15770.0 3.2698e-09
15790.0 3.261e-09
15810.0 3.2519e-09
15830.0 3.243e-09
15850.0 3.2344e-09
15870.0 3.2256e-09
15890.0 3.2166e-09
15910.0 3.2081e-09
15930.0 3.1994e-09
15950.0 3.1903e-09
15970.0 3.1816e-09
15990.0 3.173e-09
16010.0 3.1642e-09
16030.0 3.1552e-09
16050.0 3.1468e-09
16070.0 3.1381e-09
16090.0 3.1293e-09
16110.0 3.1206e-09
16130.0 3.1122e-09
16150.0 3.1033e-09
16170.0 3.0945e-09
16190.0 3.086e-09
16210.0 3.0774e-09
16230.0 3.0686e-09
16250.0 3.0601e-09
16270.0 3.0517e-09
16290.0 3.0429e-09
16310.0 3.0343e-09
16330.0 3.0259e-09
16350.0 3.0174e-09
16370.0 3.0084e-09
16390.0 3e-09
16410.0 2.9916e-09
16430.0 2.983e-09
16450.0 2.9744e-09
16470.0 2.9662e-09
16490.0 2.9576e-09
16510.0 2.9489e-09
16530.0 2.9405e-09
16550.0 2.9321e-09
16570.0 2.9234e-09
16590.0 2.9148e-09
16610.0 2.9066e-09
16630.0 2.8982e-09
16650.0 2.8896e-09
16670.0 2.8813e-09
16690.0 2.873e-09
16710.0 2.8643e-09
16730.0 2.8558e-09
16750.0 2.8476e-09
16770.0 2.8391e-09
16790.0 2.8305e-09
16810.0 2.8223e-09
16830.0 2.814e-09
16850.0 2.8054e-09
16870.0 2.797e-09
16890.0 2.7889e-09
16910.0 2.7803e-09
16930.0 2.7717e-09
16950.0 2.7635e-09
16970.0 2.7552e-09
16990.0 2.7467e-09
17010.0 2.7384e-09
17030.0 2.7303e-09
17050.0 2.7218e-09
17070.0 2.7133e-09
17090.0 2.7051e-09
17110.0 2.6968e-09
17130.0 2.6881e-09
17150.0 2.6798e-09
17170.0 2.6717e-09
17190.0 2.6633e-09
17210.0 2.6548e-09
17230.0 2.6468e-09
17250.0 2.6384e-09
17270.0 2.6298e-09
17290.0 2.6216e-09
17310.0 2.6134e-09
17330.0 2.6049e-09
17350.0 2.5964e-09
17370.0 2.5883e-09
17390.0 2.5801e-09
17410.0 2.5716e-09
17430.0 2.5633e-09
17450.0 2.5552e-09
17470.0 2.5466e-09
17490.0 2.5382e-09
17510.0 2.53e-09
17530.0 2.5217e-09
17550.0 2.5132e-09
17570.0 2.505e-09
17590.0 2.4969e-09
17610.0 2.4884e-09
17630.0 2.48e-09
17650.0 2.4719e-09
17670.0 2.4635e-09
17690.0 2.4548e-09
17710.0 2.4467e-09
17730.0 2.4385e-09
17750.0 2.43e-09
17770.0 2.4216e-09
17790.0 2.4136e-09
17810.0 2.4051e-09
17830.0 2.3966e-09
17850.0 2.3884e-09
17870.0 2.3802e-09
17890.0 2.3716e-09
17910.0 2.3631e-09
17930.0 2.3551e-09
17950.0 2.3467e-09
17970.0 2.3382e-09
17990.0 2.33e-09
18010.0 2.3218e-09
18030.0 2.3131e-09
18050.0 2.3048e-09
18070.0 2.2966e-09
18090.0 2.2881e-09
18110.0 2.2796e-09
18130.0 2.2714e-09
18150.0 2.2632e-09
18170.0 2.2546e-09
18190.0 2.2462e-09
18210.0 2.2381e-09
18230.0 2.2295e-09
18250.0 2.2209e-09
18270.0 2.2127e-09
18290.0 2.2044e-09
18310.0 2.1958e-09
18330.0 2.1875e-09
18350.0 2.1793e-09
18370.0 2.1707e-09
18390.0 2.1622e-09
18410.0 2.154e-09
18430.0 2.1456e-09
18450.0 2.1369e-09
18470.0 2.1285e-09
18490.0 2.1203e-09
18510.0 2.1118e-09
18530.0 2.1033e-09
18550.0 2.0951e-09
18570.0 2.0866e-09
18590.0 2.0779e-09
18610.0 2.0696e-09
18630.0 2.0613e-09
18650.0 2.0526e-09
18670.0 2.044e-09
18690.0 2.0359e-09
18710.0 2.0274e-09
18730.0 2.0188e-09
18750.0 2.0104e-09
18770.0 2.0022e-09
18790.0 1.9934e-09
18810.0 1.9848e-09
18830.0 1.9765e-09
18850.0 1.968e-09
18870.0 1.9593e-09
18890.0 1.951e-09
18910.0 1.9427e-09
18930.0 1.934e-09
18950.0 1.9255e-09
18970.0 1.9172e-09
18990.0 1.9086e-09
19010.0 1.8997e-09
19030.0 1.8914e-09
19050.0 1.883e-09
19070.0 1.8744e-09
19090.0 1.8658e-09
19110.0 1.8576e-09
19130.0 1.8489e-09
19150.0 1.8402e-09
19170.0 1.8318e-09
19190.0 1.8233e-09
19210.0 1.8146e-09
19230.0 1.806e-09
19250.0 1.7977e-09
19270.0 1.7891e-09
19290.0 1.7804e-09
19310.0 1.772e-09
19330.0 1.7636e-09
19350.0 1.7547e-09
19370.0 1.7461e-09
19390.0 1.7377e-09
19410.0 1.729e-09
19430.0 1.7203e-09
19450.0 1.7119e-09
19470.0 1.7035e-09
19490.0 1.6947e-09
19510.0 1.6861e-09
19530.0 1.6777e-09
19550.0 1.669e-09
19570.0 1.6601e-09
19590.0 1.6518e-09
19610.0 1.6432e-09
19630.0 1.6344e-09
19650.0 1.6259e-09
19670.0 1.6175e-09
19690.0 1.6087e-09
19710.0 1.6e-09
19730.0 1.5916e-09
19750.0 1.583e-09
19770.0 1.574e-09
19790.0 1.5655e-09
19810.0 1.5571e-09
19830.0 1.5484e-09
19850.0 1.5397e-09
19870.0 1.5314e-09
19890.0 1.5229e-09
19910.0 1.5143e-09
19930.0 1.5064e-09
19950.0 1.4989e-09
19970.0 1.4918e-09
19990.0 1.4854e-09
20010.0 1.4802e-09
20030.0 1.4757e-09
20050.0 1.4719e-09
20070.0 1.469e-09
20090.0 1.4666e-09
20110.0 1.4646e-09
20130.0 1.4628e-09
20150.0 1.4612e-09
20170.0 1.4596e-09
20190.0 1.458e-09
20210.0 1.4564e-09
20230.0 1.4547e-09
20250.0 1.4529e-09
20270.0 1.451e-09
20290.0 1.449e-09
20310.0 1.4468e-09
20330.0 1.4445e-09
20350.0 1.4422e-09
20370.0 1.4397e-09
20390.0 1.4371e-09
20410.0 1.4344e-09
20430.0 1.4317e-09
20450.0 1.4288e-09
20470.0 1.4258e-09
20490.0 1.4229e-09
20510.0 1.42e-09
20530.0 1.417e-09
20550.0 1.4141e-09
20570.0 1.4113e-09
20590.0 1.4085e-09
20610.0 1.4058e-09
20630.0 1.4032e-09
20650.0 1.4006e-09
20670.0 1.398e-09
20690.0 1.3954e-09
20710.0 1.3929e-09
20730.0 1.3903e-09
20750.0 1.3876e-09
20770.0 1.3849e-09
20790.0 1.382e-09
20810.0 1.3788e-09
20830.0 1.3755e-09
20850.0 1.372e-09
20870.0 1.3681e-09
20890.0 1.3639e-09
20910.0 1.3597e-09
20930.0 1.3552e-09
20950.0 1.3504e-09
20970.0 1.3455e-09
20990.0 1.3406e-09
21010.0 1.3353e-09
21030.0 1.3301e-09
21050.0 1.3249e-09
21070.0 1.3197e-09
21090.0 1.3142e-09
21110.0 1.3091e-09
21130.0 1.3041e-09
21150.0 1.299e-09
21170.0 1.294e-09
21190.0 1.2892e-09
21210.0 1.2843e-09
21230.0 1.2793e-09
21250.0 1.2745e-09
21270.0 1.2697e-09
21290.0 1.2646e-09
21310.0 1.2595e-09
21330.0 1.2546e-09
21350.0 1.2494e-09
21370.0 1.244e-09
21390.0 1.2383e-09
21410.0 1.2325e-09
21430.0 1.2262e-09
21450.0 1.22e-09
21470.0 1.2138e-09
21490.0 1.2074e-09
21510.0 1.2006e-09
21530.0 1.1941e-09
21550.0 1.1874e-09
21570.0 1.1804e-09
21590.0 1.1734e-09
21610.0 1.1666e-09
21630.0 1.1596e-09
21650.0 1.1523e-09
21670.0 1.1455e-09
21690.0 1.1386e-09
21710.0 1.1314e-09
21730.0 1.1245e-09
21750.0 1.1178e-09
21770.0 1.1107e-09
21790.0 1.1037e-09
21810.0 1.0969e-09
21830.0 1.09e-09
21850.0 1.083e-09
21870.0 1.0761e-09
21890.0 1.0694e-09
21910.0 1.0625e-09
21930.0 1.0556e-09
21950.0 1.049e-09
21970.0 1.0423e-09
21990.0 1.0354e-09
22010.0 1.029e-09
22030.0 1.0227e-09
22050.0 1.0164e-09
22070.0 1.0103e-09
22090.0 1.0049e-09
22110.0 9.9947e-10
22130.0 9.9418e-10
22150.0 9.8929e-10
22170.0 9.8471e-10
22190.0 9.8014e-10
22210.0 9.7585e-10
22230.0 9.7198e-10
22250.0 9.682e-10
22270.0 9.6453e-10
22290.0 9.6113e-10
22310.0 9.579e-10
22330.0 9.5461e-10
22350.0 9.5146e-10
22370.0 9.4845e-10
22390.0 9.4542e-10
22410.0 9.4229e-10
22430.0 9.3931e-10
22450.0 9.3633e-10
22470.0 9.3321e-10
22490.0 9.301e-10
22510.0 9.2706e-10
22530.0 9.2387e-10
22550.0 9.2058e-10
22570.0 9.1743e-10
22590.0 9.1427e-10
22610.0 9.1101e-10
22630.0 9.0782e-10
22650.0 9.0482e-10
