#lamb flux
1010.0 4.7776e-07
1030.0 5.3604e-07
1050.0 6.0307e-07
1070.0 6.7853e-07
1090.0 7.6424e-07
1110.0 8.5215e-07
1130.0 9.4063e-07
1150.0 1.0333e-06
1170.0 1.1289e-06
1190.0 1.2196e-06
1210.0 1.3115e-06
1230.0 1.4064e-06
1250.0 1.4994e-06
1270.0 1.5898e-06
1290.0 1.6852e-06
1310.0 1.7806e-06
1330.0 1.8721e-06
1350.0 1.9646e-06
1370.0 2.06e-06
1390.0 2.1531e-06
1410.0 2.2435e-06
1430.0 2.3379e-06
1450.0 2.4323e-06
1470.0 2.5235e-06
1490.0 2.6157e-06
1510.0 2.713e-06
1530.0 2.8053e-06
1550.0 2.8962e-06
1570.0 2.9903e-06
1590.0 3.0844e-06
1610.0 3.1742e-06
1630.0 3.2668e-06
1650.0 3.3617e-06
1670.0 3.4534e-06
1690.0 3.5438e-06
1710.0 3.6376e-06
1730.0 3.7318e-06
1750.0 3.8201e-06
1770.0 3.9108e-06
1790.0 4.0032e-06
1810.0 4.0922e-06
1830.0 4.1793e-06
1850.0 4.2715e-06
1870.0 4.3608e-06
1890.0 4.4464e-06
1910.0 4.5333e-06
1930.0 4.6216e-06
1950.0 4.7049e-06
1970.0 4.7863e-06
1990.0 4.8701e-06
2010.0 4.9512e-06
2030.0 5.0279e-06
2050.0 5.1059e-06
2070.0 5.1846e-06
2090.0 5.2565e-06
2110.0 5.3263e-06
2130.0 5.3968e-06
2150.0 5.4635e-06
2170.0 5.5242e-06
2190.0 5.5855e-06
2210.0 5.6448e-06
2230.0 5.6979e-06
2250.0 5.7477e-06
2270.0 5.7981e-06
2290.0 5.8426e-06
2310.0 5.8803e-06
2330.0 5.9173e-06
2350.0 5.9518e-06
2370.0 5.9802e-06
2390.0 6.0078e-06
2410.0 6.04e-06
2430.0 6.0725e-06
2450.0 6.1091e-06
2470.0 6.159e-06
2490.0 6.2258e-06
2510.0 6.3029e-06
2530.0 6.4102e-06
2550.0 6.5748e-06
2570.0 6.8206e-06
2590.0 7.1868e-06
2610.0 7.7884e-06
2630.0 8.6627e-06
2650.0 9.7746e-06
2670.0 1.1151e-05
2690.0 1.2749e-05
2710.0 1.433e-05
2730.0 1.5767e-05
2750.0 1.7065e-05
2770.0 1.8066e-05
2790.0 1.8737e-05
2810.0 1.9167e-05
2830.0 1.9413e-05
2850.0 1.9473e-05
2870.0 1.9436e-05
2890.0 1.935e-05
2910.0 1.9228e-05
2930.0 1.908e-05
2950.0 1.8934e-05
2970.0 1.8791e-05
2990.0 1.8644e-05
3010.0 0.00048309
3030.0 0.00047944
3050.0 0.00047584
3070.0 0.00047196
3090.0 0.00046793
3110.0 0.00046326
3130.0 0.00045741
3150.0 0.00045007
3170.0 0.00044058
3190.0 0.00042915
3210.0 0.00041661
3230.0 0.00040364
3250.0 0.00039164
3270.0 0.00038305
3290.0 0.00037818
3310.0 0.0003786
3330.0 0.00038381
3350.0 0.00039309
3370.0 0.00040656
3390.0 0.00042374
3410.0 0.00044259
3430.0 0.00046399
3450.0 0.00048876
3470.0 0.00051591
3490.0 0.00054477
3510.0 0.00057737
3530.0 0.0006125
3550.0 0.00064893
3570.0 0.00068816
3590.0 0.0007323
3610.0 0.00077996
3630.0 0.00082933
3650.0 0.00088151
3670.0 0.00092997
3690.0 0.00096725
3710.0 0.00098844
3730.0 0.0009854
3750.0 0.00095739
3770.0 0.0009173
3790.0 0.00085085
3810.0 0.00073044
3830.0 0.00065526
3850.0 0.00064536
3870.0 0.00049001
3890.0 0.00057166
3910.0 0.00084579
3930.0 0.0010574
3950.0 0.0010853
3970.0 0.0011934
3990.0 0.0012159
4010.0 0.0016842
4030.0 0.0016211
4050.0 0.0014356
4070.0 0.0014195
4090.0 0.0013569
4110.0 0.0015411
4130.0 0.0017304
4150.0 0.0019115
4170.0 0.0017543
4190.0 0.0016898
4210.0 0.0017448
4230.0 0.0020419
4250.0 0.0022891
4270.0 0.0023911
4290.0 0.0023218
4310.0 0.0022691
4330.0 0.0024217
4350.0 0.0029242
4370.0 0.0034012
4390.0 0.0030123
4410.0 0.002195
4430.0 0.0017665
4450.0 0.0015418
4470.0 0.0013966
4490.0 0.0016946
4510.0 0.0022818
4530.0 0.0026234
4550.0 0.0028474
4570.0 0.0030729
4590.0 0.0035912
4610.0 0.0053021
4630.0 0.0068172
4650.0 0.0067407
4670.0 0.0062405
4690.0 0.0066352
4710.0 0.0070565
4730.0 0.0058526
4750.0 0.0039714
4770.0 0.0030957
4790.0 0.0031559
4810.0 0.0030382
4830.0 0.0029077
4850.0 0.0032691
4870.0 0.0042882
4890.0 0.0049943
4910.0 0.0040612
4930.0 0.0036653
4950.0 0.0041318
4970.0 0.005578
4990.0 0.0073919
5010.0 0.0081398
5030.0 0.006608
5050.0 0.0040931
5070.0 0.0028397
5090.0 0.0024173
5110.0 0.0024482
5130.0 0.0027123
5150.0 0.0027636
5170.0 0.002714
5190.0 0.0025931
5210.0 0.0025866
5230.0 0.0028301
5250.0 0.0031222
5270.0 0.003317
5290.0 0.0037673
5310.0 0.0044482
5330.0 0.0045926
5350.0 0.0045648
5370.0 0.0050365
5390.0 0.0057766
5410.0 0.0053524
5430.0 0.0043784
5450.0 0.0041248
5470.0 0.0046856
5490.0 0.0060033
5510.0 0.007621
5530.0 0.0086301
5550.0 0.0081158
5570.0 0.0072796
5590.0 0.0062848
5610.0 0.0059999
5630.0 0.0060391
5650.0 0.0059751
5670.0 0.0057162
5690.0 0.0050338
5710.0 0.0049056
5730.0 0.0046004
5750.0 0.0029191
5770.0 0.0024081
5790.0 0.0027995
5810.0 0.0032989
5830.0 0.0041293
5850.0 0.004827
5870.0 0.0050284
5890.0 0.0048199
5910.0 0.0046224
5930.0 0.0045801
5950.0 0.0047764
5970.0 0.0054184
5990.0 0.0048775
6010.0 0.0039633
6030.0 0.0032638
6050.0 0.0028433
6070.0 0.0030124
6090.0 0.0034255
6110.0 0.003687
6130.0 0.0034792
6150.0 0.0030241
6170.0 0.003025
6190.0 0.0036945
6210.0 0.0048675
6230.0 0.0060971
6250.0 0.0062434
6270.0 0.0052858
6290.0 0.0044164
6310.0 0.0034578
6330.0 0.0026659
6350.0 0.0024477
6370.0 0.0026082
6390.0 0.0031271
6410.0 0.0037508
6430.0 0.0044137
6450.0 0.0052508
6470.0 0.0060904
6490.0 0.0074805
6510.0 0.0083612
6530.0 0.0079646
6550.0 0.0072968
6570.0 0.0066848
6590.0 0.0064551
6610.0 0.005586
6630.0 0.0052649
6650.0 0.0048918
6670.0 0.0048303
6690.0 0.0044765
6710.0 0.0040779
6730.0 0.0031845
6750.0 0.0030656
6770.0 0.0033574
6790.0 0.0039952
6810.0 0.0036382
6830.0 0.0037389
6850.0 0.0035187
6870.0 0.0033572
6890.0 0.0031691
6910.0 0.0032302
6930.0 0.0030168
6950.0 0.0032377
6970.0 0.0032699
6990.0 0.0036498
7010.0 0.0038205
7030.0 0.0037153
7050.0 0.0034036
7070.0 0.0032081
7090.0 0.0030864
7110.0 0.0029816
7130.0 0.0031567
7150.0 0.0034357
7170.0 0.0037214
7190.0 0.0038032
7210.0 0.003587
7230.0 0.0036699
7250.0 0.0041259
7270.0 0.0047395
7290.0 0.005355
7310.0 0.0053411
7330.0 0.0047861
7350.0 0.0042695
7370.0 0.0037418
7390.0 0.0038219
7410.0 0.0042427
7430.0 0.004687
7450.0 0.0050618
7470.0 0.0052564
7490.0 0.0054624
7510.0 0.006408
7530.0 0.0058901
7550.0 0.0050608
7570.0 0.0037977
7590.0 0.0025027
7610.0 0.0021448
7630.0 0.0024428
7650.0 0.0029026
7670.0 0.0036234
7690.0 0.0041093
7710.0 0.0042047
7730.0 0.0042656
7750.0 0.0046949
7770.0 0.0047035
7790.0 0.0044679
7810.0 0.0042533
7830.0 0.004255
7850.0 0.0040505
7870.0 0.0037514
7890.0 0.003247
7910.0 0.0026091
7930.0 0.002355
7950.0 0.002125
7970.0 0.0020041
7990.0 0.0020042
8010.0 0.0020777
8030.0 0.0020576
8050.0 0.0020969
8070.0 0.0020978
8090.0 0.0022079
8110.0 0.0020766
8130.0 0.0017161
8150.0 0.0016228
8170.0 0.0014147
8190.0 0.0013496
8210.0 0.0015618
8230.0 0.001701
8250.0 0.0014514
8270.0 0.0012843
8290.0 0.0011395
8310.0 0.00080767
8330.0 0.00051851
8350.0 0.00038581
8370.0 0.00035459
8390.0 0.00046784
8410.0 0.00058791
8430.0 0.00072306
8450.0 0.00080237
8470.0 0.00095039
8490.0 0.00090167
8510.0 0.00087241
8530.0 0.00084534
8550.0 0.0011492
8570.0 0.0014819
8590.0 0.0015598
8610.0 0.0019468
8630.0 0.0022334
8650.0 0.0021683
8670.0 0.0022906
8690.0 0.0024346
8710.0 0.0022498
8730.0 0.0022023
8750.0 0.0019799
8770.0 0.0018807
8790.0 0.0019041
8810.0 0.0018558
8830.0 0.0014622
8850.0 0.0011354
8870.0 0.00093223
8890.0 0.0010025
8910.0 0.0011591
8930.0 0.0012907
8950.0 0.0014619
8970.0 0.0014705
8990.0 0.0013754
9010.0 0.0012278
9030.0 0.0011819
9050.0 0.0011993
9070.0 0.001214
9090.0 0.0012252
9110.0 0.0012366
9130.0 0.0012457
9150.0 0.0012533
9170.0 0.0012615
9190.0 0.0012701
9210.0 0.0012792
9230.0 0.0012889
9250.0 0.0012989
9270.0 0.0013093
9290.0 0.0013201
9310.0 0.0013313
9330.0 0.0013428
9350.0 0.0013547
9370.0 0.0013669
9390.0 0.0013794
9410.0 0.0013923
9430.0 0.0014055
9450.0 0.001419
9470.0 0.0014329
9490.0 0.0014471
9510.0 0.0014616
9530.0 0.0014765
9550.0 0.0014916
9570.0 0.0015071
9590.0 0.0015229
9610.0 0.0015389
9630.0 0.0015553
9650.0 0.0015719
9670.0 0.0015889
9690.0 0.0016061
9710.0 0.0016235
9730.0 0.0016413
9750.0 0.0016592
9770.0 0.0016774
9790.0 0.0016959
9810.0 0.0017146
9830.0 0.0017335
9850.0 0.0017525
9870.0 0.0017718
9890.0 0.0017913
9910.0 0.0018109
9930.0 0.0018308
9950.0 0.0018507
9970.0 0.0018708
9990.0 0.001891
10010.0 0.0017977
10030.0 0.0018165
10050.0 0.0018352
10070.0 0.001854
10090.0 0.001873
10110.0 0.0018919
10130.0 0.0019109
10150.0 0.00193
10170.0 0.0019489
10190.0 0.0019678
10210.0 0.0019868
10230.0 0.0020057
10250.0 0.0020244
10270.0 0.0020431
10290.0 0.0020617
10310.0 0.0020802
10330.0 0.0020985
10350.0 0.0021167
10370.0 0.0021348
10390.0 0.0021526
10410.0 0.0021702
10430.0 0.0021877
10450.0 0.0022049
10470.0 0.0022219
10490.0 0.0022386
10510.0 0.0022551
10530.0 0.0022712
10550.0 0.002287
10570.0 0.0023026
10590.0 0.0023178
10610.0 0.0023327
10630.0 0.0023472
10650.0 0.0023614
10670.0 0.0023751
10690.0 0.0023885
10710.0 0.0024015
10730.0 0.002414
10750.0 0.002426
10770.0 0.0024378
10790.0 0.002449
10810.0 0.0024597
10830.0 0.0024699
10850.0 0.0024794
10870.0 0.0024879
10890.0 0.0024948
10910.0 0.0024996
10930.0 0.002501
10950.0 0.0024969
10970.0 0.0024862
10990.0 0.0024682
11010.0 0.0024295
11030.0 0.0023917
11050.0 0.0023462
11070.0 0.0022919
11090.0 0.0022263
11110.0 0.0021585
11130.0 0.0020875
11150.0 0.002011
11170.0 0.0019323
11190.0 0.0018565
11210.0 0.0017789
11230.0 0.0017002
11250.0 0.0016261
11270.0 0.0015561
11290.0 0.0014871
11310.0 0.0014229
11330.0 0.0013672
11350.0 0.0013153
11370.0 0.0012677
11390.0 0.0012268
11410.0 0.0011908
11430.0 0.0011569
11450.0 0.0011269
11470.0 0.0010999
11490.0 0.0010736
11510.0 0.0010468
11530.0 0.0010208
11550.0 0.00099406
11570.0 0.0009649
11590.0 0.0009344
11610.0 0.00090333
11630.0 0.00086977
11650.0 0.0008343
11670.0 0.0007998
11690.0 0.00076531
11710.0 0.00073029
11730.0 0.00069682
11750.0 0.00066619
11770.0 0.0006365
11790.0 0.00060892
11810.0 0.00058473
11830.0 0.0005631
11850.0 0.00054313
11870.0 0.00052615
11890.0 0.00051166
11910.0 0.0004985
11930.0 0.0004866
11950.0 0.00047602
11970.0 0.00046593
11990.0 0.00045574
12010.0 0.00044573
12030.0 0.00043567
12050.0 0.00042502
12070.0 0.00041379
12090.0 0.00040283
12110.0 0.00039164
12130.0 0.00038029
12150.0 0.00036953
12170.0 0.0003597
12190.0 0.00035043
12210.0 0.00034263
12230.0 0.00033665
12250.0 0.00033243
12270.0 0.00033027
12290.0 0.0003303
12310.0 0.00033232
12330.0 0.00033664
12350.0 0.00034303
12370.0 0.0003509
12390.0 0.00036043
12410.0 0.00037199
12430.0 0.00038378
12450.0 0.00039598
12470.0 0.00040892
12490.0 0.00042172
12510.0 0.00043341
12530.0 0.00044478
12550.0 0.0004554
12570.0 0.00046427
12590.0 0.00047157
12610.0 0.0004776
12630.0 0.00048176
12650.0 0.0004838
12670.0 0.00048424
12690.0 0.00048294
12710.0 0.00047993
12730.0 0.00047545
12750.0 0.00046941
12770.0 0.00046212
12790.0 0.0004539
12810.0 0.00044462
12830.0 0.00043433
12850.0 0.00042375
12870.0 0.00041273
12890.0 0.00040096
12910.0 0.000389
12930.0 0.00037712
12950.0 0.00036467
12970.0 0.00035187
12990.0 0.00033952
13010.0 0.00032712
13030.0 0.00031439
13050.0 0.00030193
13070.0 0.00029003
13090.0 0.00027794
13110.0 0.00026609
13130.0 0.00025501
13150.0 0.00024443
13170.0 0.00023405
13190.0 0.00022476
13210.0 0.00021655
13230.0 0.00020907
13250.0 0.00020265
13270.0 0.00019755
13290.0 0.00019356
13310.0 0.00019074
13330.0 0.00018927
13350.0 0.00018901
13370.0 0.00018997
13390.0 0.00019217
13410.0 0.00019518
13430.0 0.00019912
13450.0 0.00020396
13470.0 0.00020925
13490.0 0.00021476
13510.0 0.00022093
13530.0 0.00022706
13550.0 0.00023282
13570.0 0.00023842
13590.0 0.00024381
13610.0 0.00024849
13630.0 0.00025247
13650.0 0.00025602
13670.0 0.00025883
13690.0 0.00026083
13710.0 0.0002622
13730.0 0.00026295
13750.0 0.00026294
13770.0 0.00026235
13790.0 0.0002612
13810.0 0.00025953
13830.0 0.00025746
13850.0 0.00025493
13870.0 0.00025197
13890.0 0.00024875
13910.0 0.00024527
13930.0 0.00024141
13950.0 0.00023733
13970.0 0.00023326
13990.0 0.00022896
14010.0 0.0002245
14030.0 0.00022014
14050.0 0.00021583
14070.0 0.00021139
14090.0 0.00020722
14110.0 0.00020336
14130.0 0.00019969
14150.0 0.00019631
14170.0 0.00019348
14190.0 0.00019108
14210.0 0.00018911
14230.0 0.00018772
14250.0 0.00018689
14270.0 0.0001866
14290.0 0.00018692
14310.0 0.00018777
14330.0 0.00018912
14350.0 0.00019102
14370.0 0.00019333
14390.0 0.00019592
14410.0 0.00019896
14430.0 0.00020231
14450.0 0.00020576
14470.0 0.00020939
14490.0 0.00021334
14510.0 0.00021726
14530.0 0.00022116
14550.0 0.00022528
14570.0 0.00022954
14590.0 0.00023374
14610.0 0.00023819
14630.0 0.00024304
14650.0 0.000248
14670.0 0.0002532
14690.0 0.00025895
14710.0 0.00026524
14730.0 0.0002716
14750.0 0.00027855
14770.0 0.00028616
14790.0 0.00029402
14810.0 0.00030206
14830.0 0.00031096
14850.0 0.00031997
14870.0 0.00032875
14890.0 0.00033763
14910.0 0.00034648
14930.0 0.00035453
14950.0 0.00036171
14970.0 0.00036821
14990.0 0.00037345
15010.0 0.00037734
15030.0 0.00038013
15050.0 0.00038189
15070.0 0.00038272
15090.0 0.00038296
15110.0 0.0003828
15130.0 0.00038239
15150.0 0.00038189
15170.0 0.0003813
15190.0 0.00038066
15210.0 0.00038005
15230.0 0.00037945
15250.0 0.00037882
15270.0 0.0003782
15290.0 0.00037763
15310.0 0.00037704
15330.0 0.00037643
15350.0 0.00037587
15370.0 0.00037531
15390.0 0.0003747
15410.0 0.00037413
15430.0 0.00037358
15450.0 0.00037301
15470.0 0.00037242
15490.0 0.00037189
15510.0 0.00037135
15530.0 0.00037077
15550.0 0.00037022
15570.0 0.00036969
15590.0 0.00036912
15610.0 0.00036854
15630.0 0.00036801
15650.0 0.00036746
15670.0 0.00036689
15690.0 0.00036633
15710.0 0.00036581
15730.0 0.00036524
15750.0 0.00036466
15770.0 0.00036411
15790.0 0.00036356
15810.0 0.00036295
15830.0 0.00036238
15850.0 0.00036183
15870.0 0.00036124
15890.0 0.00036065
15910.0 0.00036009
15930.0 0.0003595
15950.0 0.00035887
15970.0 0.00035828
15990.0 0.00035769
16010.0 0.00035706
16030.0 0.00035641
16050.0 0.00035582
16070.0 0.0003552
16090.0 0.00035454
16110.0 0.00035391
16130.0 0.00035329
16150.0 0.0003526
16170.0 0.00035192
16190.0 0.00035127
16210.0 0.0003506
16230.0 0.00034988
16250.0 0.0003492
16270.0 0.00034853
16290.0 0.0003478
16310.0 0.00034707
16330.0 0.00034637
16350.0 0.00034564
16370.0 0.00034485
16390.0 0.00034412
16410.0 0.00034338
16430.0 0.00034259
16450.0 0.00034181
16470.0 0.00034106
16490.0 0.00034025
16510.0 0.00033943
16530.0 0.00033863
16550.0 0.00033782
16570.0 0.00033696
16590.0 0.0003361
16610.0 0.00033529
16630.0 0.00033442
16650.0 0.00033354
16670.0 0.00033268
16690.0 0.00033181
16710.0 0.00033087
16730.0 0.00032996
16750.0 0.00032907
16770.0 0.00032813
16790.0 0.00032717
16810.0 0.00032625
16830.0 0.00032531
16850.0 0.00032432
16870.0 0.00032335
16890.0 0.00032239
16910.0 0.00032138
16930.0 0.00032035
16950.0 0.00031936
16970.0 0.00031835
16990.0 0.0003173
17010.0 0.00031626
17030.0 0.00031524
17050.0 0.00031417
17070.0 0.00031309
17090.0 0.00031203
17110.0 0.00031096
17130.0 0.00030982
17150.0 0.00030873
17170.0 0.00030764
17190.0 0.00030651
17210.0 0.00030537
17230.0 0.00030427
17250.0 0.00030313
17270.0 0.00030194
17290.0 0.00030079
17310.0 0.00029964
17330.0 0.00029845
17350.0 0.00029724
17370.0 0.00029608
17390.0 0.00029489
17410.0 0.00029366
17430.0 0.00029246
17450.0 0.00029127
17470.0 0.00029001
17490.0 0.00028876
17510.0 0.00028755
17530.0 0.0002863
17550.0 0.00028502
17570.0 0.00028378
17590.0 0.00028254
17610.0 0.00028125
17630.0 0.00027996
17650.0 0.00027871
17670.0 0.00027742
17690.0 0.00027608
17710.0 0.0002748
17730.0 0.00027351
17750.0 0.00027219
17770.0 0.00027087
17790.0 0.00026959
17810.0 0.00026825
17830.0 0.0002669
17850.0 0.00026559
17870.0 0.00026426
17890.0 0.0002629
17910.0 0.00026154
17930.0 0.00026023
17950.0 0.00025888
17970.0 0.00025751
17990.0 0.00025617
18010.0 0.00025483
18030.0 0.00025343
18050.0 0.00025207
18070.0 0.00025072
18090.0 0.00024934
18110.0 0.00024795
18130.0 0.0002466
18150.0 0.00024524
18170.0 0.00024384
18190.0 0.00024247
18210.0 0.00024111
18230.0 0.00023971
18250.0 0.0002383
18270.0 0.00023694
18290.0 0.00023557
18310.0 0.00023416
18330.0 0.00023278
18350.0 0.00023142
18370.0 0.00023002
18390.0 0.00022862
18410.0 0.00022725
18430.0 0.00022587
18450.0 0.00022445
18470.0 0.00022307
18490.0 0.00022171
18510.0 0.00022031
18530.0 0.00021891
18550.0 0.00021756
18570.0 0.00021618
18590.0 0.00021476
18610.0 0.00021339
18630.0 0.00021203
18650.0 0.00021063
18670.0 0.00020924
18690.0 0.0002079
18710.0 0.00020653
18730.0 0.00020514
18750.0 0.00020378
18770.0 0.00020244
18790.0 0.00020103
18810.0 0.00019966
18830.0 0.00019832
18850.0 0.00019696
18870.0 0.00019559
18890.0 0.00019425
18910.0 0.00019292
18930.0 0.00019155
18950.0 0.0001902
18970.0 0.00018889
18990.0 0.00018754
19010.0 0.00018617
19030.0 0.00018486
19050.0 0.00018354
19070.0 0.0001822
19090.0 0.00018088
19110.0 0.00017959
19130.0 0.00017826
19150.0 0.00017693
19170.0 0.00017563
19190.0 0.00017434
19210.0 0.00017301
19230.0 0.00017171
19250.0 0.00017045
19270.0 0.00016915
19290.0 0.00016786
19310.0 0.0001666
19330.0 0.00016533
19350.0 0.00016402
19370.0 0.00016276
19390.0 0.00016151
19410.0 0.00016024
19430.0 0.00015897
19450.0 0.00015774
19470.0 0.00015651
19490.0 0.00015525
19510.0 0.00015401
19530.0 0.0001528
19550.0 0.00015155
19570.0 0.00015031
19590.0 0.00014911
19610.0 0.0001479
19630.0 0.00014667
19650.0 0.00014548
19670.0 0.0001443
19690.0 0.00014309
19710.0 0.00014189
19730.0 0.00014072
19750.0 0.00013954
19770.0 0.00013833
19790.0 0.00013717
19810.0 0.00013602
19830.0 0.00013484
19850.0 0.00013367
19870.0 0.00013252
19890.0 0.00013133
19910.0 0.00013006
19930.0 0.00012877
19950.0 0.00012738
19970.0 0.00012579
19990.0 0.000124
20010.0 0.0001238
20030.0 0.00012156
20050.0 0.00011905
20070.0 0.00011643
20090.0 0.0001137
20110.0 0.00011072
20130.0 0.00010777
20150.0 0.0001049
20170.0 0.000102
20190.0 9.9106e-05
20210.0 9.6409e-05
20230.0 9.3811e-05
20250.0 9.1239e-05
20270.0 8.8865e-05
20290.0 8.6704e-05
20310.0 8.4657e-05
20330.0 8.275e-05
20350.0 8.1154e-05
20370.0 7.9733e-05
20390.0 7.8485e-05
20410.0 7.7468e-05
20430.0 7.6674e-05
20450.0 7.6047e-05
20470.0 7.5625e-05
20490.0 7.5394e-05
20510.0 7.5331e-05
20530.0 7.5436e-05
20550.0 7.5686e-05
20570.0 7.6045e-05
20590.0 7.6539e-05
20610.0 7.7141e-05
20630.0 7.78e-05
20650.0 7.8539e-05
20670.0 7.9389e-05
20690.0 8.0246e-05
20710.0 8.1123e-05
20730.0 8.2065e-05
20750.0 8.3037e-05
20770.0 8.3973e-05
20790.0 8.4946e-05
20810.0 8.5963e-05
20830.0 8.6956e-05
20850.0 8.7937e-05
20870.0 8.898e-05
20890.0 9.0032e-05
20910.0 9.1031e-05
20930.0 9.2064e-05
20950.0 9.3134e-05
20970.0 9.4171e-05
20990.0 9.5192e-05
21010.0 9.6275e-05
21030.0 9.7335e-05
21050.0 9.8347e-05
21070.0 9.9366e-05
21090.0 0.0001004
21110.0 0.00010135
21130.0 0.00010226
21150.0 0.00010315
21170.0 0.00010399
21190.0 0.00010472
21210.0 0.00010543
21230.0 0.00010607
21250.0 0.00010659
21270.0 0.00010701
21290.0 0.00010735
21310.0 0.00010755
21330.0 0.00010762
21350.0 0.00010756
21370.0 0.00010734
21390.0 0.00010697
21410.0 0.00010644
21430.0 0.0001057
21450.0 0.0001048
21470.0 0.00010375
21490.0 0.00010251
21510.0 0.00010108
21530.0 9.9553e-05
21550.0 9.7895e-05
21570.0 9.606e-05
21590.0 9.4179e-05
21610.0 9.2286e-05
21630.0 9.0313e-05
21650.0 8.8296e-05
21670.0 8.6448e-05
21690.0 8.4646e-05
21710.0 8.2905e-05
21730.0 8.1337e-05
21750.0 7.997e-05
21770.0 7.8715e-05
21790.0 7.7682e-05
21810.0 7.6897e-05
21830.0 7.6324e-05
21850.0 7.5974e-05
21870.0 7.5865e-05
21890.0 7.5969e-05
21910.0 7.6296e-05
21930.0 7.6835e-05
21950.0 7.7539e-05
21970.0 7.8428e-05
21990.0 7.9537e-05
22010.0 8.0738e-05
22030.0 8.2041e-05
22050.0 8.3499e-05
22070.0 8.505e-05
22090.0 8.6592e-05
22110.0 8.8223e-05
22130.0 8.9928e-05
22150.0 9.1589e-05
22170.0 9.3215e-05
22190.0 9.489e-05
22210.0 9.6504e-05
22230.0 9.7967e-05
22250.0 9.9383e-05
22270.0 0.00010072
22290.0 0.00010189
22310.0 0.00010292
22330.0 0.00010385
22350.0 0.00010459
22370.0 0.00010513
22390.0 0.00010551
22410.0 0.00010569
22430.0 0.00010565
22450.0 0.00010543
22470.0 0.00010498
22490.0 0.00010433
22510.0 0.00010351
22530.0 0.00010244
22550.0 0.00010114
22570.0 9.9701e-05
22590.0 9.8076e-05
22610.0 9.621e-05
22630.0 9.419e-05
22650.0 9.2101e-05
22670.0 8.979e-05
22690.0 8.7318e-05
22710.0 8.4817e-05
22730.0 8.2231e-05
22750.0 7.9417e-05
22770.0 7.6654e-05
22790.0 7.3944e-05
22810.0 7.1151e-05
22830.0 6.8355e-05
22850.0 6.5729e-05
22870.0 6.315e-05
22890.0 6.0582e-05
22910.0 5.8218e-05
22930.0 5.6058e-05
22950.0 5.4011e-05
22970.0 5.2135e-05
22990.0 5.0601e-05
23010.0 4.9268e-05
