#lamb flux
1010.0 1.1302e-06
1030.0 1.2196e-06
1050.0 1.3225e-06
1070.0 1.4385e-06
1090.0 1.5702e-06
1110.0 1.7055e-06
1130.0 1.8418e-06
1150.0 1.9848e-06
1170.0 2.1325e-06
1190.0 2.2728e-06
1210.0 2.4153e-06
1230.0 2.5627e-06
1250.0 2.7075e-06
1270.0 2.8485e-06
1290.0 2.9977e-06
1310.0 3.1472e-06
1330.0 3.2909e-06
1350.0 3.4367e-06
1370.0 3.5875e-06
1390.0 3.7351e-06
1410.0 3.8788e-06
1430.0 4.0293e-06
1450.0 4.1802e-06
1470.0 4.3266e-06
1490.0 4.475e-06
1510.0 4.6319e-06
1530.0 4.7812e-06
1550.0 4.9289e-06
1570.0 5.0817e-06
1590.0 5.235e-06
1610.0 5.3817e-06
1630.0 5.533e-06
1650.0 5.688e-06
1670.0 5.838e-06
1690.0 5.9859e-06
1710.0 6.139e-06
1730.0 6.2925e-06
1750.0 6.4363e-06
1770.0 6.5836e-06
1790.0 6.7328e-06
1810.0 6.8763e-06
1830.0 7.016e-06
1850.0 7.163e-06
1870.0 7.3045e-06
1890.0 7.4395e-06
1910.0 7.5754e-06
1930.0 7.7129e-06
1950.0 7.8415e-06
1970.0 7.9663e-06
1990.0 8.094e-06
2010.0 8.2168e-06
2030.0 8.332e-06
2050.0 8.4489e-06
2070.0 8.5667e-06
2090.0 8.6736e-06
2110.0 8.7774e-06
2130.0 8.8826e-06
2150.0 8.9825e-06
2170.0 9.0738e-06
2190.0 9.1675e-06
2210.0 9.2594e-06
2230.0 9.3434e-06
2250.0 9.4244e-06
2270.0 9.5088e-06
2290.0 9.5867e-06
2310.0 9.657e-06
2330.0 9.7292e-06
2350.0 9.8004e-06
2370.0 9.8644e-06
2390.0 9.9279e-06
2410.0 9.9959e-06
2430.0 1.0059e-05
2450.0 1.012e-05
2470.0 1.0187e-05
2490.0 1.0265e-05
2510.0 1.0359e-05
2530.0 1.0506e-05
2550.0 1.0772e-05
2570.0 1.1224e-05
2590.0 1.1939e-05
2610.0 1.312e-05
2630.0 1.4818e-05
2650.0 1.694e-05
2670.0 1.9508e-05
2690.0 2.2427e-05
2710.0 2.5295e-05
2730.0 2.7919e-05
2750.0 3.0342e-05
2770.0 3.2344e-05
2790.0 3.3905e-05
2810.0 3.5201e-05
2830.0 3.6363e-05
2850.0 3.7342e-05
2870.0 3.8276e-05
2890.0 3.9251e-05
2910.0 4.0245e-05
2930.0 4.1215e-05
2950.0 4.2255e-05
2970.0 4.3351e-05
2990.0 4.4431e-05
3010.0 0.00025219
3030.0 0.00025855
3050.0 0.00026482
3070.0 0.00027028
3090.0 0.00027485
3110.0 0.00027718
3130.0 0.00027566
3150.0 0.00026875
3170.0 0.00025335
3190.0 0.00022928
3210.0 0.00019725
3230.0 0.00016159
3250.0 0.00019427
3270.0 0.00015671
3290.0 0.00023778
3310.0 0.00015202
3330.0 0.00015292
3350.0 0.00016625
3370.0 0.00018267
3390.0 0.00020107
3410.0 0.00021965
3430.0 0.00023931
3450.0 0.00025947
3470.0 0.00027848
3490.0 0.00029324
3510.0 0.00033129
3530.0 0.00039416
3550.0 0.00039158
3570.0 0.00035207
3590.0 0.0004295
3610.0 0.00033865
3630.0 0.00045952
3650.0 0.00051614
3670.0 0.00061362
3690.0 0.00058263
3710.0 0.00044605
3730.0 0.00051955
3750.0 0.00052595
3770.0 0.00057021
3790.0 0.00058709
3810.0 0.0006499
3830.0 0.00096125
3850.0 0.0012054
3870.0 0.0014539
3890.0 0.0014709
3910.0 0.0013723
3930.0 0.0013807
3950.0 0.0014571
3970.0 0.0014288
3990.0 0.00086716
4010.0 0.00052742
4030.0 0.00092065
4050.0 0.0012593
4070.0 0.0012428
4090.0 0.00077119
4110.0 0.0005527
4130.0 0.00093247
4150.0 0.0010199
4170.0 0.00087499
4190.0 0.00074809
4210.0 0.0010843
4230.0 0.00092156
4250.0 0.00091764
4270.0 0.00091154
4290.0 0.00083069
4310.0 0.0010361
4330.0 0.0011718
4350.0 0.0011238
4370.0 0.0010023
4390.0 0.0011081
4410.0 0.0010765
4430.0 0.00079703
4450.0 0.00065443
4470.0 0.00079838
4490.0 0.00069781
4510.0 0.0010067
4530.0 0.0010357
4550.0 0.0011035
4570.0 0.0014408
4590.0 0.0015762
4610.0 0.001654
4630.0 0.0023259
4650.0 0.0027259
4670.0 0.00271
4690.0 0.0023733
4710.0 0.0023969
4730.0 0.0022863
4750.0 0.0017469
4770.0 0.0013889
4790.0 0.0010313
4810.0 0.0012056
4830.0 0.0014054
4850.0 0.0013447
4870.0 0.00097812
4890.0 0.0016077
4910.0 0.0018049
4930.0 0.0019672
4950.0 0.0022088
4970.0 0.0020198
4990.0 0.0023062
5010.0 0.0024703
5030.0 0.0023977
5050.0 0.0020281
5070.0 0.0014501
5090.0 0.0012039
5110.0 0.0012032
5130.0 0.0012213
5150.0 0.0011875
5170.0 0.0011147
5190.0 0.0012258
5210.0 0.0012586
5230.0 0.0013912
5250.0 0.0015434
5270.0 0.0014009
5290.0 0.001569
5310.0 0.0020809
5330.0 0.0023196
5350.0 0.0020913
5370.0 0.002029
5390.0 0.0022516
5410.0 0.0023983
5430.0 0.0024131
5450.0 0.0025233
5470.0 0.0026924
5490.0 0.0030496
5510.0 0.0036556
5530.0 0.0038038
5550.0 0.0038728
5570.0 0.0039091
5590.0 0.0037846
5610.0 0.0035682
5630.0 0.0035549
5650.0 0.0036913
5670.0 0.0035803
5690.0 0.0031789
5710.0 0.0031452
5730.0 0.0029961
5750.0 0.0028362
5770.0 0.0024937
5790.0 0.0025475
5810.0 0.0026808
5830.0 0.0029373
5850.0 0.0028373
5870.0 0.0028024
5890.0 0.00302
5910.0 0.0027956
5930.0 0.0024748
5950.0 0.0023966
5970.0 0.002543
5990.0 0.0022636
6010.0 0.0019669
6030.0 0.0017875
6050.0 0.0016226
6070.0 0.0014218
6090.0 0.0014635
6110.0 0.001708
6130.0 0.0017878
6150.0 0.0018191
6170.0 0.0018526
6190.0 0.0019101
6210.0 0.002129
6230.0 0.0025216
6250.0 0.0023397
6270.0 0.0020644
6290.0 0.0018153
6310.0 0.0015514
6330.0 0.0013917
6350.0 0.0013033
6370.0 0.0013667
6390.0 0.0015453
6410.0 0.001878
6430.0 0.0022818
6450.0 0.0025255
6470.0 0.0027126
6490.0 0.0031484
6510.0 0.0034945
6530.0 0.0033613
6550.0 0.0032054
6570.0 0.0032415
6590.0 0.0032307
6610.0 0.003276
6630.0 0.0030732
6650.0 0.0027331
6670.0 0.002601
6690.0 0.002561
6710.0 0.0027391
6730.0 0.0024075
6750.0 0.002029
6770.0 0.0019352
6790.0 0.0020622
6810.0 0.0023338
6830.0 0.0023528
6850.0 0.0021411
6870.0 0.0021635
6890.0 0.0021415
6910.0 0.0020148
6930.0 0.0021075
6950.0 0.0020255
6970.0 0.001957
6990.0 0.0019894
7010.0 0.0020821
7030.0 0.0020454
7050.0 0.0019037
7070.0 0.0018995
7090.0 0.0017105
7110.0 0.0014667
7130.0 0.001381
7150.0 0.0014351
7170.0 0.0016414
7190.0 0.0016795
7210.0 0.0016153
7230.0 0.001746
7250.0 0.0018193
7270.0 0.0018488
7290.0 0.0019212
7310.0 0.0019822
7330.0 0.0018905
7350.0 0.0017532
7370.0 0.0016243
7390.0 0.0015987
7410.0 0.0017827
7430.0 0.0020484
7450.0 0.0022249
7470.0 0.0023755
7490.0 0.0027316
7510.0 0.0027059
7530.0 0.002303
7550.0 0.0020531
7570.0 0.0017366
7590.0 0.0015654
7610.0 0.0015181
7630.0 0.0014626
7650.0 0.0015752
7670.0 0.0017761
7690.0 0.0019433
7710.0 0.0022189
7730.0 0.0023068
7750.0 0.0023892
7770.0 0.0025431
7790.0 0.0026867
7810.0 0.0026612
7830.0 0.0024165
7850.0 0.0024091
7870.0 0.0023395
7890.0 0.0022917
7910.0 0.0021368
7930.0 0.0020607
7950.0 0.0017181
7970.0 0.0016804
7990.0 0.0016621
8010.0 0.0018942
8030.0 0.0018926
8050.0 0.0020045
8070.0 0.0019391
8090.0 0.0019453
8110.0 0.0019136
8130.0 0.001859
8150.0 0.0017296
8170.0 0.001707
8190.0 0.001715
8210.0 0.0017321
8230.0 0.0015405
8250.0 0.0014185
8270.0 0.0012515
8290.0 0.0010579
8310.0 0.00090699
8330.0 0.00069698
8350.0 0.00055037
8370.0 0.00051854
8390.0 0.0005154
8410.0 0.00055772
8430.0 0.00071729
8450.0 0.00078744
8470.0 0.00085055
8490.0 0.00098223
8510.0 0.0010667
8530.0 0.0012003
8550.0 0.0014197
8570.0 0.0015712
8590.0 0.0016631
8610.0 0.001872
8630.0 0.0021497
8650.0 0.0022221
8670.0 0.0022704
8690.0 0.0023266
8710.0 0.002273
8730.0 0.0021859
8750.0 0.0020127
8770.0 0.0020026
8790.0 0.0019615
8810.0 0.001806
8830.0 0.0017782
8850.0 0.0015968
8870.0 0.0015057
8890.0 0.0013566
8910.0 0.0015187
8930.0 0.0013872
8950.0 0.0014014
8970.0 0.001435
8990.0 0.0014031
9010.0 0.0014335
9030.0 0.0013631
9050.0 0.0013575
9070.0 0.0013588
9090.0 0.0013598
9110.0 0.0013619
9130.0 0.0013627
9150.0 0.0013629
9170.0 0.0013599
9190.0 0.0013523
9210.0 0.0013726
9230.0 0.0013682
9250.0 0.0013662
9270.0 0.0013647
9290.0 0.0013636
9310.0 0.0013628
9330.0 0.001362
9350.0 0.0013614
9370.0 0.0013607
9390.0 0.0013599
9410.0 0.0013591
9430.0 0.0013583
9450.0 0.0013573
9470.0 0.0013564
9490.0 0.0013554
9510.0 0.0013544
9530.0 0.0013533
9550.0 0.0013523
9570.0 0.0013512
9590.0 0.0013501
9610.0 0.001349
9630.0 0.001348
9650.0 0.0013469
9670.0 0.0013458
9690.0 0.0013448
9710.0 0.0013439
9730.0 0.0013428
9750.0 0.0013419
9770.0 0.0013411
9790.0 0.0013402
9810.0 0.0013393
9830.0 0.0013386
9850.0 0.0013379
9870.0 0.0013372
9890.0 0.0013366
9910.0 0.0013361
9930.0 0.0013356
9950.0 0.0013335
9970.0 0.0013337
9990.0 0.0013339
10010.0 0.0013339
10030.0 0.0013338
10050.0 0.0013334
10070.0 0.00133
10090.0 0.0013312
10110.0 0.0013323
10130.0 0.0013332
10150.0 0.0013339
10170.0 0.0013345
10190.0 0.0013349
10210.0 0.0013354
10230.0 0.001336
10250.0 0.0013365
10270.0 0.0013371
10290.0 0.0013378
10310.0 0.0013385
10330.0 0.0013392
10350.0 0.00134
10370.0 0.0013409
10390.0 0.0013417
10410.0 0.0013426
10430.0 0.0013437
10450.0 0.0013447
10470.0 0.0013457
10490.0 0.0013468
10510.0 0.001348
10530.0 0.001349
10550.0 0.0013502
10570.0 0.0013515
10590.0 0.0013527
10610.0 0.0013539
10630.0 0.0013552
10650.0 0.0013565
10670.0 0.0013577
10690.0 0.001359
10710.0 0.0013604
10730.0 0.0013617
10750.0 0.001363
10770.0 0.0013643
10790.0 0.0013657
10810.0 0.0013669
10830.0 0.0013682
10850.0 0.0013694
10870.0 0.0013701
10890.0 0.0013703
10910.0 0.0013695
10930.0 0.0013669
10950.0 0.0013614
10970.0 0.0013523
10990.0 0.0013393
11010.0 0.0013698
11030.0 0.0013436
11050.0 0.0013132
11070.0 0.001278
11090.0 0.0012374
11110.0 0.0011971
11130.0 0.0011569
11150.0 0.0011158
11170.0 0.0010761
11190.0 0.0010401
11210.0 0.0010058
11230.0 0.00097345
11250.0 0.00094524
11270.0 0.00092044
11290.0 0.00089766
11310.0 0.00087777
11330.0 0.0008613
11350.0 0.00084625
11370.0 0.00083235
11390.0 0.00081977
11410.0 0.00080775
11430.0 0.00079497
11450.0 0.00078194
11470.0 0.00076856
11490.0 0.00075397
11510.0 0.00073783
11530.0 0.0007214
11550.0 0.00070425
11570.0 0.0006857
11590.0 0.00066682
11610.0 0.00064829
11630.0 0.00062902
11650.0 0.00060947
11670.0 0.00059116
11690.0 0.00057337
11710.0 0.00055563
11730.0 0.00053883
11750.0 0.00052341
11770.0 0.00050815
11790.0 0.00049346
11810.0 0.00047992
11830.0 0.00046701
11850.0 0.00045399
11870.0 0.00044183
11890.0 0.00043041
11910.0 0.00041893
11930.0 0.00040753
11950.0 0.00039673
11970.0 0.00038594
11990.0 0.00037482
12010.0 0.00036411
12030.0 0.00035377
12050.0 0.00034333
12070.0 0.00033298
12090.0 0.00032365
12110.0 0.00031471
12130.0 0.00030622
12150.0 0.00029875
12170.0 0.00029242
12190.0 0.00028689
12210.0 0.00028275
12230.0 0.00028014
12250.0 0.00027896
12270.0 0.00027937
12290.0 0.00028139
12310.0 0.0002848
12330.0 0.00028984
12350.0 0.00029626
12370.0 0.00030357
12390.0 0.00031188
12410.0 0.00032137
12430.0 0.00033072
12450.0 0.00034006
12470.0 0.00034956
12490.0 0.00035862
12510.0 0.00036668
12530.0 0.00037423
12550.0 0.00038102
12570.0 0.00038659
12590.0 0.0003911
12610.0 0.00039474
12630.0 0.0003973
12650.0 0.00039876
12670.0 0.0003994
12690.0 0.0003992
12710.0 0.00039825
12730.0 0.00039668
12750.0 0.00039442
12770.0 0.00039165
12790.0 0.00038852
12810.0 0.0003849
12830.0 0.00038077
12850.0 0.00037644
12870.0 0.00037176
12890.0 0.00036649
12910.0 0.00036087
12930.0 0.00035499
12950.0 0.00034842
12970.0 0.00034121
12990.0 0.00033389
13010.0 0.00032615
13030.0 0.00031777
13050.0 0.00030925
13070.0 0.0003009
13090.0 0.00029216
13110.0 0.00028345
13130.0 0.0002753
13150.0 0.00026753
13170.0 0.00025994
13190.0 0.00025332
13210.0 0.00024767
13230.0 0.00024268
13250.0 0.0002386
13270.0 0.00023558
13290.0 0.00023338
13310.0 0.00023196
13330.0 0.00023134
13350.0 0.00023132
13370.0 0.00023177
13390.0 0.00023256
13410.0 0.00023345
13430.0 0.00023435
13450.0 0.00023513
13470.0 0.00023563
13490.0 0.00023581
13510.0 0.00023561
13530.0 0.000235
13550.0 0.00023405
13570.0 0.00023277
13590.0 0.00023119
13610.0 0.00022949
13630.0 0.00022775
13650.0 0.00022592
13670.0 0.00022416
13690.0 0.00022257
13710.0 0.00022109
13730.0 0.00021972
13750.0 0.00021857
13770.0 0.00021756
13790.0 0.00021661
13810.0 0.00021571
13830.0 0.00021484
13850.0 0.00021389
13870.0 0.00021282
13890.0 0.00021164
13910.0 0.0002103
13930.0 0.00020875
13950.0 0.00020703
13970.0 0.00020526
13990.0 0.00020336
14010.0 0.00020137
14030.0 0.00019945
14050.0 0.0001976
14070.0 0.00019578
14090.0 0.00019416
14110.0 0.00019276
14130.0 0.00019152
14150.0 0.00019048
14170.0 0.00018968
14190.0 0.00018907
14210.0 0.00018864
14230.0 0.00018841
14250.0 0.00018836
14270.0 0.00018851
14290.0 0.00018887
14310.0 0.0001894
14330.0 0.00019013
14350.0 0.0001911
14370.0 0.00019223
14390.0 0.00019348
14410.0 0.00019496
14430.0 0.00019657
14450.0 0.00019822
14470.0 0.00019995
14490.0 0.00020185
14510.0 0.00020372
14530.0 0.00020557
14550.0 0.00020759
14570.0 0.00020973
14590.0 0.00021192
14610.0 0.00021435
14630.0 0.00021716
14650.0 0.00022019
14670.0 0.00022351
14690.0 0.00022735
14710.0 0.0002317
14730.0 0.00023617
14750.0 0.00024113
14770.0 0.00024661
14790.0 0.00025222
14810.0 0.00025789
14830.0 0.00026408
14850.0 0.00027017
14870.0 0.0002759
14890.0 0.00028148
14910.0 0.0002868
14930.0 0.00029138
14950.0 0.00029521
14970.0 0.00029844
14990.0 0.00030078
15010.0 0.00030222
15030.0 0.00030295
15050.0 0.00030305
15070.0 0.00030261
15090.0 0.00030183
15110.0 0.00030083
15130.0 0.00029968
15150.0 0.0002985
15170.0 0.00029726
15190.0 0.000296
15210.0 0.00029475
15230.0 0.00029352
15250.0 0.00029225
15270.0 0.000291
15290.0 0.00028979
15310.0 0.00028855
15330.0 0.00028731
15350.0 0.0002861
15370.0 0.0002849
15390.0 0.00028366
15410.0 0.00028245
15430.0 0.00028126
15450.0 0.00028006
15470.0 0.00027885
15490.0 0.00027768
15510.0 0.00027651
15530.0 0.00027532
15550.0 0.00027414
15570.0 0.000273
15590.0 0.00027182
15610.0 0.00027064
15630.0 0.00026951
15650.0 0.00026837
15670.0 0.00026721
15690.0 0.00026607
15710.0 0.00026496
15730.0 0.00026383
15750.0 0.00026269
15770.0 0.00026159
15790.0 0.00026049
15810.0 0.00025935
15830.0 0.00025825
15850.0 0.00025718
15870.0 0.00025608
15890.0 0.00025498
15910.0 0.00025392
15930.0 0.00025285
15950.0 0.00025175
15970.0 0.00025069
15990.0 0.00024964
16010.0 0.00024857
16030.0 0.00024749
16050.0 0.00024647
16070.0 0.00024543
16090.0 0.00024437
16110.0 0.00024334
16130.0 0.00024233
16150.0 0.00024128
16170.0 0.00024024
16190.0 0.00023924
16210.0 0.00023822
16230.0 0.00023719
16250.0 0.00023619
16270.0 0.00023521
16290.0 0.00023419
16310.0 0.00023319
16330.0 0.00023221
16350.0 0.00023122
16370.0 0.0002302
16390.0 0.00022923
16410.0 0.00022827
16430.0 0.00022728
16450.0 0.0002263
16470.0 0.00022535
16490.0 0.00022438
16510.0 0.0002234
16530.0 0.00022245
16550.0 0.0002215
16570.0 0.00022052
16590.0 0.00021956
16610.0 0.00021863
16630.0 0.00021768
16650.0 0.00021672
16670.0 0.0002158
16690.0 0.00021487
16710.0 0.0002139
16730.0 0.00021297
16750.0 0.00021205
16770.0 0.00021111
16790.0 0.00021016
16810.0 0.00020925
16830.0 0.00020834
16850.0 0.0002074
16870.0 0.00020648
16890.0 0.00020558
16910.0 0.00020465
16930.0 0.00020371
16950.0 0.00020281
16970.0 0.00020191
16990.0 0.00020098
17010.0 0.00020007
17030.0 0.00019919
17050.0 0.00019827
17070.0 0.00019735
17090.0 0.00019646
17110.0 0.00019557
17130.0 0.00019464
17150.0 0.00019374
17170.0 0.00019286
17190.0 0.00019196
17210.0 0.00019106
17230.0 0.00019018
17250.0 0.00018929
17270.0 0.00018837
17290.0 0.00018749
17310.0 0.00018661
17330.0 0.00018571
17350.0 0.00018481
17370.0 0.00018394
17390.0 0.00018306
17410.0 0.00018216
17430.0 0.00018129
17450.0 0.00018042
17470.0 0.00017951
17490.0 0.00017862
17510.0 0.00017776
17530.0 0.00017688
17550.0 0.00017599
17570.0 0.00017512
17590.0 0.00017426
17610.0 0.00017337
17630.0 0.00017249
17650.0 0.00017164
17670.0 0.00017076
17690.0 0.00016986
17710.0 0.000169
17730.0 0.00016815
17750.0 0.00016726
17770.0 0.00016639
17790.0 0.00016555
17810.0 0.00016468
17830.0 0.00016379
17850.0 0.00016294
17870.0 0.00016209
17890.0 0.0001612
17910.0 0.00016033
17930.0 0.0001595
17950.0 0.00015863
17970.0 0.00015776
17990.0 0.00015692
18010.0 0.00015608
18030.0 0.00015519
18050.0 0.00015434
18070.0 0.0001535
18090.0 0.00015264
18110.0 0.00015178
18130.0 0.00015095
18150.0 0.00015011
18170.0 0.00014924
18190.0 0.0001484
18210.0 0.00014757
18230.0 0.00014671
18250.0 0.00014585
18270.0 0.00014503
18290.0 0.00014419
18310.0 0.00014334
18330.0 0.0001425
18350.0 0.00014169
18370.0 0.00014084
18390.0 0.00014
18410.0 0.00013918
18430.0 0.00013835
18450.0 0.00013749
18470.0 0.00013667
18490.0 0.00013586
18510.0 0.00013503
18530.0 0.0001342
18550.0 0.0001334
18570.0 0.00013258
18590.0 0.00013173
18610.0 0.00013092
18630.0 0.00013012
18650.0 0.00012929
18670.0 0.00012846
18690.0 0.00012768
18710.0 0.00012687
18730.0 0.00012605
18750.0 0.00012525
18770.0 0.00012446
18790.0 0.00012363
18810.0 0.00012282
18830.0 0.00012204
18850.0 0.00012124
18870.0 0.00012043
18890.0 0.00011965
18910.0 0.00011887
18930.0 0.00011807
18950.0 0.00011727
18970.0 0.0001165
18990.0 0.00011571
19010.0 0.0001149
19030.0 0.00011414
19050.0 0.00011337
19070.0 0.00011258
19090.0 0.0001118
19110.0 0.00011105
19130.0 0.00011027
19150.0 0.00010948
19170.0 0.00010873
19190.0 0.00010797
19210.0 0.00010718
19230.0 0.00010642
19250.0 0.00010568
19270.0 0.00010492
19290.0 0.00010415
19310.0 0.00010341
19330.0 0.00010267
19350.0 0.00010189
19370.0 0.00010115
19390.0 0.00010041
19410.0 9.9663e-05
19430.0 9.8906e-05
19450.0 9.8185e-05
19470.0 9.7454e-05
19490.0 9.6704e-05
19510.0 9.5973e-05
19530.0 9.5258e-05
19550.0 9.4513e-05
19570.0 9.3768e-05
19590.0 9.3059e-05
19610.0 9.234e-05
19630.0 9.1605e-05
19650.0 9.0891e-05
19670.0 9.0193e-05
19690.0 8.9463e-05
19710.0 8.8741e-05
19730.0 8.8043e-05
19750.0 8.7336e-05
19770.0 8.6604e-05
19790.0 8.5906e-05
19810.0 8.5217e-05
19830.0 8.4504e-05
19850.0 8.379e-05
19870.0 8.3094e-05
19890.0 8.2353e-05
19910.0 8.155e-05
19930.0 8.071e-05
19950.0 7.9776e-05
19970.0 7.8666e-05
19990.0 7.7382e-05
20010.0 7.5983e-05
20030.0 7.4362e-05
20050.0 7.2557e-05
20070.0 7.0706e-05
20090.0 6.8826e-05
20110.0 6.6837e-05
20130.0 6.4966e-05
20150.0 6.3247e-05
20170.0 6.1596e-05
20190.0 6.0055e-05
20210.0 5.8716e-05
20230.0 5.7514e-05
20250.0 5.6409e-05
20270.0 5.5475e-05
20290.0 5.47e-05
20310.0 5.404e-05
20330.0 5.3503e-05
20350.0 5.3132e-05
20370.0 5.2878e-05
20390.0 5.2745e-05
20410.0 5.2744e-05
20430.0 5.2859e-05
20450.0 5.3109e-05
20470.0 5.3491e-05
20490.0 5.3982e-05
20510.0 5.4596e-05
20530.0 5.5356e-05
20550.0 5.6214e-05
20570.0 5.7137e-05
20590.0 5.8188e-05
20610.0 5.9319e-05
20630.0 6.0465e-05
20650.0 6.166e-05
20670.0 6.2933e-05
20690.0 6.4143e-05
20710.0 6.5308e-05
20730.0 6.6467e-05
20750.0 6.7571e-05
20770.0 6.8556e-05
20790.0 6.9492e-05
20810.0 7.0378e-05
20830.0 7.1169e-05
20850.0 7.1887e-05
20870.0 7.2589e-05
20890.0 7.3251e-05
20910.0 7.3856e-05
20930.0 7.4461e-05
20950.0 7.5076e-05
20970.0 7.5667e-05
20990.0 7.6244e-05
21010.0 7.6842e-05
21030.0 7.7411e-05
21050.0 7.793e-05
21070.0 7.8414e-05
21090.0 7.8853e-05
21110.0 7.9197e-05
21130.0 7.9458e-05
21150.0 7.964e-05
21170.0 7.9723e-05
21190.0 7.9712e-05
21210.0 7.961e-05
21230.0 7.9412e-05
21250.0 7.9139e-05
21270.0 7.8796e-05
21290.0 7.8375e-05
21310.0 7.7901e-05
21330.0 7.7404e-05
21350.0 7.6856e-05
21370.0 7.6275e-05
21390.0 7.5696e-05
21410.0 7.5113e-05
21430.0 7.4498e-05
21450.0 7.3912e-05
21470.0 7.336e-05
21490.0 7.2816e-05
21510.0 7.2296e-05
21530.0 7.1832e-05
21550.0 7.1406e-05
21570.0 7.1011e-05
21590.0 7.0681e-05
21610.0 7.0413e-05
21630.0 7.0201e-05
21650.0 7.0056e-05
21670.0 6.9991e-05
21690.0 6.9996e-05
21710.0 7.0083e-05
21730.0 7.0249e-05
21750.0 7.0487e-05
21770.0 7.0826e-05
21790.0 7.125e-05
21810.0 7.174e-05
21830.0 7.2314e-05
21850.0 7.2989e-05
21870.0 7.3721e-05
21890.0 7.4494e-05
21910.0 7.5362e-05
21930.0 7.6286e-05
21950.0 7.7224e-05
21970.0 7.8213e-05
21990.0 7.9281e-05
22010.0 8.0317e-05
22030.0 8.1346e-05
22050.0 8.2406e-05
22070.0 8.3449e-05
22090.0 8.4416e-05
22110.0 8.5368e-05
22130.0 8.6289e-05
22150.0 8.7113e-05
22170.0 8.7848e-05
22190.0 8.8522e-05
22210.0 8.9082e-05
22230.0 8.95e-05
22250.0 8.9806e-05
22270.0 8.9979e-05
22290.0 9.0004e-05
22310.0 8.9888e-05
22330.0 8.961e-05
22350.0 8.9176e-05
22370.0 8.8606e-05
22390.0 8.7873e-05
22410.0 8.696e-05
22430.0 8.595e-05
22450.0 8.4822e-05
22470.0 8.3529e-05
22490.0 8.214e-05
22510.0 8.0707e-05
22530.0 7.9132e-05
22550.0 7.7456e-05
22570.0 7.5799e-05
22590.0 7.4105e-05
22610.0 7.233e-05
22630.0 7.0569e-05
22650.0 6.8885e-05
22670.0 6.7153e-05
22690.0 6.5431e-05
22710.0 6.3806e-05
22730.0 6.2231e-05
22750.0 6.0625e-05
22770.0 5.9148e-05
22790.0 5.7784e-05
22810.0 5.6457e-05
22830.0 5.5205e-05
22850.0 5.4097e-05
22870.0 5.3071e-05
22890.0 5.2113e-05
22910.0 5.1292e-05
22930.0 5.0599e-05
22950.0 5.0004e-05
22970.0 4.9526e-05
22990.0 4.9205e-05
