#lamb flux
1010.0 0.00038793
1030.0 0.00043165
1050.0 0.00049086
1070.0 0.00057939
1090.0 0.00069554
1110.0 0.00082016
1130.0 0.00095045
1150.0 0.0010899
1170.0 0.0012344
1190.0 0.0013695
1210.0 0.0014999
1230.0 0.001624
1250.0 0.0017388
1270.0 0.0018321
1290.0 0.0019104
1310.0 0.0019648
1330.0 0.0019905
1350.0 0.0019938
1370.0 0.0019781
1390.0 0.0019402
1410.0 0.0018837
1430.0 0.0018179
1450.0 0.0017425
1470.0 0.0016588
1490.0 0.0015732
1510.0 0.0014903
1530.0 0.0014064
1550.0 0.001326
1570.0 0.0012523
1590.0 0.0011846
1610.0 0.0011254
1630.0 0.0010881
1650.0 0.0010613
1670.0 0.0010441
1690.0 0.0010378
1710.0 0.0010444
1730.0 0.0010634
1750.0 0.0010935
1770.0 0.0011381
1790.0 0.0011976
1810.0 0.0012712
1830.0 0.00136
1850.0 0.0014672
1870.0 0.0015907
1890.0 0.0017304
1910.0 0.0018884
1930.0 0.002065
1950.0 0.0022567
1970.0 0.0024637
1990.0 0.0026874
2010.0 0.0029236
2030.0 0.0031689
2050.0 0.0034246
2070.0 0.0036882
2090.0 0.0039515
2110.0 0.0042149
2130.0 0.0044779
2150.0 0.0047345
2170.0 0.0049798
2190.0 0.0052182
2210.0 0.0054456
2230.0 0.0056568
2250.0 0.005854
2270.0 0.0060414
2290.0 0.0062125
2310.0 0.0063674
2330.0 0.0065139
2350.0 0.0066522
2370.0 0.0067805
2390.0 0.0069074
2410.0 0.0070429
2430.0 0.007186
2450.0 0.0073441
2470.0 0.0075336
2490.0 0.0077625
2510.0 0.0080208
2530.0 0.008333
2550.0 0.0087253
2570.0 0.0092075
2590.0 0.0098062
2610.0 0.010626
2630.0 0.011678
2650.0 0.012926
2670.0 0.014405
2690.0 0.016099
2710.0 0.017832
2730.0 0.019532
2750.0 0.021258
2770.0 0.022917
2790.0 0.024495
2810.0 0.026106
2830.0 0.027855
2850.0 0.029632
2870.0 0.031513
2890.0 0.033568
2910.0 0.035734
2930.0 0.037923
2950.0 0.040262
2970.0 0.042729
2990.0 0.045216
3010.0 0.047767
3030.0 0.05047
3050.0 0.053244
3070.0 0.055947
3090.0 0.058699
3110.0 0.061386
3130.0 0.063824
3150.0 0.065953
3170.0 0.067701
3190.0 0.068967
3210.0 0.069886
3230.0 0.070531
3250.0 0.070894
3270.0 0.071157
3290.0 0.071477
3310.0 0.071966
3330.0 0.072639
3350.0 0.073442
3370.0 0.074313
3390.0 0.0746
3410.0 0.075071
3430.0 0.077338
3450.0 0.078939
3470.0 0.07925
3490.0 0.082266
3510.0 0.09436
3530.0 0.11617
3550.0 0.13159
3570.0 0.1439
3590.0 0.16196
3610.0 0.16141
3630.0 0.14875
3650.0 0.15622
3670.0 0.18434
3690.0 0.20683
3710.0 0.21438
3730.0 0.21613
3750.0 0.23084
3770.0 0.23211
3790.0 0.22113
3810.0 0.20847
3830.0 0.19762
3850.0 0.19893
3870.0 0.20775
3890.0 0.21409
3910.0 0.21725
3930.0 0.21737
3950.0 0.23263
3970.0 0.25063
3990.0 0.24368
4010.0 0.2174
4030.0 0.19587
4050.0 0.19423
4070.0 0.20302
4090.0 0.20123
4110.0 0.19366
4130.0 0.19257
4150.0 0.20156
4170.0 0.22275
4190.0 0.23402
4210.0 0.22047
4230.0 0.20283
4250.0 0.19196
4270.0 0.18515
4290.0 0.18637
4310.0 0.19136
4330.0 0.18208
4350.0 0.16137
4370.0 0.14394
4390.0 0.13182
4410.0 0.12516
4430.0 0.12875
4450.0 0.14167
4470.0 0.15559
4490.0 0.16639
4510.0 0.18411
4530.0 0.21638
4550.0 0.25024
4570.0 0.27093
4590.0 0.28872
4610.0 0.30428
4630.0 0.30688
4650.0 0.28479
4670.0 0.24792
4690.0 0.21911
4710.0 0.2095
4730.0 0.20016
4750.0 0.17615
4770.0 0.15755
4790.0 0.16235
4810.0 0.17598
4830.0 0.17205
4850.0 0.1529
4870.0 0.15642
4890.0 0.16044
4910.0 0.16274
4930.0 0.16009
4950.0 0.15709
4970.0 0.15013
4990.0 0.13867
5010.0 0.13054
5030.0 0.12828
5050.0 0.12759
5070.0 0.12738
5090.0 0.12719
5110.0 0.12703
5130.0 0.12962
5150.0 0.13603
5170.0 0.14809
5190.0 0.16399
5210.0 0.1768
5230.0 0.18444
5250.0 0.18872
5270.0 0.19481
5290.0 0.1996
5310.0 0.19855
5330.0 0.19165
5350.0 0.18489
5370.0 0.18511
5390.0 0.18993
5410.0 0.19345
5430.0 0.19185
5450.0 0.18907
5470.0 0.18487
5490.0 0.1806
5510.0 0.17901
5530.0 0.17988
5550.0 0.18174
5570.0 0.18242
5590.0 0.17754
5610.0 0.16863
5630.0 0.16032
5650.0 0.15285
5670.0 0.14764
5690.0 0.1417
5710.0 0.13824
5730.0 0.13886
5750.0 0.13741
5770.0 0.13495
5790.0 0.1362
5810.0 0.14015
5830.0 0.14317
5850.0 0.14401
5870.0 0.14043
5890.0 0.13479
5910.0 0.12978
5930.0 0.12325
5950.0 0.11772
5970.0 0.11835
5990.0 0.12121
6010.0 0.12115
6030.0 0.11699
6050.0 0.11624
6070.0 0.12028
6090.0 0.1244
6110.0 0.12407
6130.0 0.11787
6150.0 0.10976
6170.0 0.10527
6190.0 0.10283
6210.0 0.10068
6230.0 0.098668
6250.0 0.0986
6270.0 0.1014
6290.0 0.10546
6310.0 0.11004
6330.0 0.11487
6350.0 0.1178
6370.0 0.11816
6390.0 0.11749
6410.0 0.11843
6430.0 0.11992
6450.0 0.11986
6470.0 0.12011
6490.0 0.12081
6510.0 0.12077
6530.0 0.11931
6550.0 0.11628
6570.0 0.11257
6590.0 0.10933
6610.0 0.1068
6630.0 0.10471
6650.0 0.10131
6670.0 0.097547
6690.0 0.094637
6710.0 0.09297
6730.0 0.092038
6750.0 0.091145
6770.0 0.089936
6790.0 0.088307
6810.0 0.086728
6830.0 0.086223
6850.0 0.085778
6870.0 0.085045
6890.0 0.084919
6910.0 0.083774
6930.0 0.082374
6950.0 0.08218
6970.0 0.081453
6990.0 0.07976
7010.0 0.078458
7030.0 0.077059
7050.0 0.075589
7070.0 0.073794
7090.0 0.072221
7110.0 0.073268
7130.0 0.075349
7150.0 0.076988
7170.0 0.077983
7190.0 0.077854
7210.0 0.076858
7230.0 0.075606
7250.0 0.074824
7270.0 0.073505
7290.0 0.072415
7310.0 0.071812
7330.0 0.072558
7350.0 0.072767
7370.0 0.072534
7390.0 0.071866
7410.0 0.070752
7430.0 0.070032
7450.0 0.069299
7470.0 0.067199
7490.0 0.06495
7510.0 0.06223
7530.0 0.060046
7550.0 0.058887
7570.0 0.059684
7590.0 0.059304
7610.0 0.058653
7630.0 0.058064
7650.0 0.058359
7670.0 0.059575
7690.0 0.062005
7710.0 0.063672
7730.0 0.066051
7750.0 0.067551
7770.0 0.068773
7790.0 0.068896
7810.0 0.06758
7830.0 0.06779
7850.0 0.067165
7870.0 0.065484
7890.0 0.06328
7910.0 0.0614
7930.0 0.059989
7950.0 0.059129
7970.0 0.059159
7990.0 0.059636
8010.0 0.059474
8030.0 0.05885
8050.0 0.057771
8070.0 0.056721
8090.0 0.055563
8110.0 0.055776
8130.0 0.056271
8150.0 0.056371
8170.0 0.055903
8190.0 0.055161
8210.0 0.053
8230.0 0.049585
8250.0 0.047484
8270.0 0.046267
8290.0 0.045681
8310.0 0.04589
8330.0 0.046928
8350.0 0.046106
8370.0 0.045106
8390.0 0.045731
8410.0 0.047171
8430.0 0.049604
8450.0 0.051836
8470.0 0.05243
8490.0 0.052916
8510.0 0.052637
8530.0 0.052328
8550.0 0.052729
8570.0 0.052794
8590.0 0.052635
8610.0 0.054081
8630.0 0.05449
8650.0 0.053309
8670.0 0.053206
8690.0 0.053407
8710.0 0.052674
8730.0 0.052225
8750.0 0.050632
8770.0 0.04996
8790.0 0.049423
8810.0 0.048934
8830.0 0.0468
8850.0 0.043436
8870.0 0.040834
8890.0 0.039402
8910.0 0.036992
8930.0 0.034442
8950.0 0.033533
8970.0 0.033289
8990.0 0.033326
9010.0 0.033073
9030.0 0.032837
9050.0 0.032619
9070.0 0.032408
9090.0 0.032197
9110.0 0.031986
9130.0 0.031776
9150.0 0.031566
9170.0 0.031356
9190.0 0.031147
9210.0 0.030937
9230.0 0.030729
9250.0 0.030522
9270.0 0.030314
9290.0 0.030108
9310.0 0.029902
9330.0 0.029696
9350.0 0.029492
9370.0 0.029288
9390.0 0.029085
9410.0 0.028882
9430.0 0.02868
9450.0 0.028476
9470.0 0.028278
9490.0 0.028083
9510.0 0.027884
9530.0 0.027687
9550.0 0.027491
9570.0 0.027295
9590.0 0.027101
9610.0 0.026908
9630.0 0.026716
9650.0 0.026525
9670.0 0.026336
9690.0 0.026147
9710.0 0.025959
9730.0 0.025773
9750.0 0.025587
9770.0 0.025403
9790.0 0.02522
9810.0 0.025038
9830.0 0.024852
9850.0 0.024641
9870.0 0.024468
9890.0 0.024302
9910.0 0.024134
9930.0 0.023955
9950.0 0.023786
9970.0 0.023616
9990.0 0.023443
10010.0 0.023252
10030.0 0.023074
10050.0 0.022918
10070.0 0.02276
10090.0 0.022601
10110.0 0.022434
10130.0 0.022248
10150.0 0.02209
10170.0 0.021937
10190.0 0.021776
10210.0 0.021621
10230.0 0.021466
10250.0 0.021306
10270.0 0.021148
10290.0 0.020995
10310.0 0.020838
10330.0 0.020678
10350.0 0.020525
10370.0 0.020373
10390.0 0.020217
10410.0 0.020063
10430.0 0.019916
10450.0 0.019764
10470.0 0.019612
10490.0 0.019464
10510.0 0.019318
10530.0 0.019164
10550.0 0.019015
10570.0 0.018872
10590.0 0.018725
10610.0 0.018576
10630.0 0.018434
10650.0 0.018291
10670.0 0.018143
10690.0 0.017999
10710.0 0.017858
10730.0 0.017714
10750.0 0.017566
10770.0 0.017428
10790.0 0.017288
10810.0 0.017144
10830.0 0.017003
10850.0 0.016867
10870.0 0.016724
10890.0 0.016582
10910.0 0.016447
10930.0 0.016313
10950.0 0.016177
10970.0 0.016048
10990.0 0.015927
11010.0 0.015792
11030.0 0.015686
11050.0 0.015587
11070.0 0.015489
11090.0 0.015386
11110.0 0.015287
11130.0 0.015188
11150.0 0.015085
11170.0 0.014979
11190.0 0.014877
11210.0 0.014772
11230.0 0.014664
11250.0 0.014561
11270.0 0.01446
11290.0 0.014357
11310.0 0.014258
11330.0 0.014166
11350.0 0.014076
11370.0 0.013988
11390.0 0.013905
11410.0 0.013827
11430.0 0.013746
11450.0 0.013669
11470.0 0.013595
11490.0 0.01352
11510.0 0.013442
11530.0 0.013366
11550.0 0.013288
11570.0 0.013205
11590.0 0.01312
11610.0 0.013034
11630.0 0.012942
11650.0 0.012844
11670.0 0.012749
11690.0 0.012651
11710.0 0.012549
11730.0 0.012447
11750.0 0.012349
11770.0 0.012248
11790.0 0.012148
11810.0 0.012053
11830.0 0.011961
11850.0 0.011867
11870.0 0.011779
11890.0 0.011697
11910.0 0.011616
11930.0 0.011538
11950.0 0.011467
11970.0 0.011398
11990.0 0.011331
12010.0 0.011271
12030.0 0.011217
12050.0 0.011165
12070.0 0.011119
12090.0 0.011081
12110.0 0.011049
12130.0 0.011021
12150.0 0.011001
12170.0 0.010988
12190.0 0.010981
12210.0 0.010981
12230.0 0.010987
12250.0 0.010999
12270.0 0.011017
12290.0 0.01104
12310.0 0.011067
12330.0 0.011098
12350.0 0.011132
12370.0 0.011167
12390.0 0.011202
12410.0 0.011239
12430.0 0.011273
12450.0 0.011304
12470.0 0.011331
12490.0 0.011353
12510.0 0.011368
12530.0 0.011376
12550.0 0.011376
12570.0 0.011367
12590.0 0.011349
12610.0 0.011319
12630.0 0.011279
12650.0 0.011232
12670.0 0.011174
12690.0 0.011105
12710.0 0.011031
12730.0 0.010951
12750.0 0.01086
12770.0 0.010766
12790.0 0.010671
12810.0 0.010571
12830.0 0.010466
12850.0 0.010366
12870.0 0.010267
12890.0 0.010164
12910.0 0.010065
12930.0 0.0099697
12950.0 0.0098726
12970.0 0.0097753
12990.0 0.009685
13010.0 0.0095963
13030.0 0.0095068
13050.0 0.0094209
13070.0 0.0093408
13090.0 0.0092598
13110.0 0.0091812
13130.0 0.0091085
13150.0 0.0090392
13170.0 0.0089701
13190.0 0.0089075
13210.0 0.0088507
13230.0 0.0087958
13250.0 0.0087442
13270.0 0.008698
13290.0 0.0086539
13310.0 0.0086102
13330.0 0.0085697
13350.0 0.0085312
13370.0 0.0084918
13390.0 0.0084515
13410.0 0.0084134
13430.0 0.0083736
13450.0 0.0083314
13470.0 0.0082888
13490.0 0.0082461
13510.0 0.0081987
13530.0 0.0081503
13550.0 0.0081024
13570.0 0.0080524
13590.0 0.0079994
13610.0 0.007947
13630.0 0.0078952
13650.0 0.00784
13670.0 0.0077844
13690.0 0.0077302
13710.0 0.0076745
13730.0 0.0076153
13750.0 0.0075592
13770.0 0.007503
13790.0 0.0074442
13810.0 0.0073851
13830.0 0.0073279
13850.0 0.0072678
13870.0 0.0072055
13890.0 0.0071442
13910.0 0.0070824
13930.0 0.0070165
13950.0 0.0069496
13970.0 0.0068849
13990.0 0.0068169
14010.0 0.0067463
14030.0 0.0066772
14050.0 0.0066078
14070.0 0.0065339
14090.0 0.0064618
14110.0 0.0063922
14130.0 0.0063215
14150.0 0.0062505
14170.0 0.0061845
14190.0 0.0061205
14210.0 0.0060564
14230.0 0.005996
14250.0 0.0059398
14270.0 0.0058837
14290.0 0.005829
14310.0 0.0057791
14330.0 0.0057306
14350.0 0.005682
14370.0 0.0056356
14390.0 0.0055919
14410.0 0.0055471
14430.0 0.0055031
14450.0 0.0054614
14470.0 0.0054206
14490.0 0.005379
14510.0 0.0053402
14530.0 0.0053037
14550.0 0.0052675
14570.0 0.0052326
14590.0 0.0052004
14610.0 0.0051691
14630.0 0.0051381
14650.0 0.0051093
14670.0 0.0050822
14690.0 0.0050555
14710.0 0.0050297
14730.0 0.0050066
14750.0 0.0049843
14770.0 0.004963
14790.0 0.004944
14810.0 0.0049272
14830.0 0.0049117
14850.0 0.004899
14870.0 0.0048891
14890.0 0.0048817
14910.0 0.0048765
14930.0 0.0048736
14950.0 0.004872
14970.0 0.0048711
14990.0 0.0048701
15010.0 0.0048684
15030.0 0.0048655
15050.0 0.004861
15070.0 0.0048554
15090.0 0.0048488
15110.0 0.0048413
15130.0 0.0048333
15150.0 0.0048253
15170.0 0.0048169
15190.0 0.0048083
15210.0 0.0047998
15230.0 0.0047914
15250.0 0.0047827
15270.0 0.004774
15290.0 0.0047656
15310.0 0.004757
15330.0 0.0047483
15350.0 0.0047399
15370.0 0.0047314
15390.0 0.0047226
15410.0 0.004714
15430.0 0.0047055
15450.0 0.0046969
15470.0 0.0046882
15490.0 0.0046797
15510.0 0.0046713
15530.0 0.0046626
15550.0 0.0046541
15570.0 0.0046458
15590.0 0.0046371
15610.0 0.0046284
15630.0 0.0046201
15650.0 0.0046117
15670.0 0.0046031
15690.0 0.0045947
15710.0 0.0045866
15730.0 0.0045781
15750.0 0.0045696
15770.0 0.0045615
15790.0 0.0045532
15810.0 0.0045447
15830.0 0.0045365
15850.0 0.0045285
15870.0 0.0045202
15890.0 0.004512
15910.0 0.0045041
15930.0 0.0044961
15950.0 0.0044878
15970.0 0.0044799
15990.0 0.004472
16010.0 0.004464
16030.0 0.0044559
16050.0 0.0044483
16070.0 0.0044405
16090.0 0.0044326
16110.0 0.004425
16130.0 0.0044175
16150.0 0.0044096
16170.0 0.0044019
16190.0 0.0043945
16210.0 0.004387
16230.0 0.0043793
16250.0 0.0043719
16270.0 0.0043647
16290.0 0.0043572
16310.0 0.0043498
16330.0 0.0043427
16350.0 0.0043355
16370.0 0.004328
16390.0 0.004321
16410.0 0.004314
16430.0 0.0043068
16450.0 0.0042997
16470.0 0.004293
16490.0 0.0042859
16510.0 0.0042789
16530.0 0.0042721
16550.0 0.0042653
16570.0 0.0042584
16590.0 0.0042515
16610.0 0.004245
16630.0 0.0042383
16650.0 0.0042315
16670.0 0.004225
16690.0 0.0042186
16710.0 0.0042118
16730.0 0.0042052
16750.0 0.0041989
16770.0 0.0041924
16790.0 0.0041857
16810.0 0.0041795
16830.0 0.0041732
16850.0 0.0041667
16870.0 0.0041604
16890.0 0.0041543
16910.0 0.0041479
16930.0 0.0041414
16950.0 0.0041353
16970.0 0.0041291
16990.0 0.0041228
17010.0 0.0041166
17030.0 0.0041106
17050.0 0.0041044
17070.0 0.0040981
17090.0 0.0040921
17110.0 0.004086
17130.0 0.0040796
17150.0 0.0040735
17170.0 0.0040676
17190.0 0.0040614
17210.0 0.0040552
17230.0 0.0040493
17250.0 0.0040432
17270.0 0.0040369
17290.0 0.0040308
17310.0 0.0040248
17330.0 0.0040185
17350.0 0.0040122
17370.0 0.0040063
17390.0 0.0040002
17410.0 0.0039939
17430.0 0.0039877
17450.0 0.0039817
17470.0 0.0039752
17490.0 0.0039689
17510.0 0.0039628
17530.0 0.0039565
17550.0 0.00395
17570.0 0.0039438
17590.0 0.0039376
17610.0 0.003931
17630.0 0.0039246
17650.0 0.0039183
17670.0 0.0039118
17690.0 0.003905
17710.0 0.0038985
17730.0 0.0038921
17750.0 0.0038853
17770.0 0.0038786
17790.0 0.0038721
17810.0 0.0038653
17830.0 0.0038583
17850.0 0.0038516
17870.0 0.0038448
17890.0 0.0038377
17910.0 0.0038306
17930.0 0.0038238
17950.0 0.0038167
17970.0 0.0038094
17990.0 0.0038024
18010.0 0.0037952
18030.0 0.0037877
18050.0 0.0037803
18070.0 0.003773
18090.0 0.0037655
18110.0 0.0037578
18130.0 0.0037504
18150.0 0.0037428
18170.0 0.003735
18190.0 0.0037272
18210.0 0.0037195
18230.0 0.0037115
18250.0 0.0037034
18270.0 0.0036955
18290.0 0.0036874
18310.0 0.0036791
18330.0 0.003671
18350.0 0.0036629
18370.0 0.0036544
18390.0 0.0036458
18410.0 0.0036375
18430.0 0.0036289
18450.0 0.0036201
18470.0 0.0036114
18490.0 0.0036028
18510.0 0.0035939
18530.0 0.0035849
18550.0 0.0035761
18570.0 0.003567
18590.0 0.0035577
18610.0 0.0035485
18630.0 0.0035394
18650.0 0.0035299
18670.0 0.0035204
18690.0 0.0035111
18710.0 0.0035016
18730.0 0.0034919
18750.0 0.0034823
18770.0 0.0034727
18790.0 0.0034626
18810.0 0.0034526
18830.0 0.0034428
18850.0 0.0034328
18870.0 0.0034225
18890.0 0.0034125
18910.0 0.0034024
18930.0 0.003392
18950.0 0.0033816
18970.0 0.0033713
18990.0 0.0033608
19010.0 0.00335
19030.0 0.0033395
19050.0 0.003329
19070.0 0.0033181
19090.0 0.0033073
19110.0 0.0032967
19130.0 0.0032857
19150.0 0.0032746
19170.0 0.0032637
19190.0 0.0032527
19210.0 0.0032414
19230.0 0.0032301
19250.0 0.0032191
19270.0 0.0032078
19290.0 0.0031964
19310.0 0.0031851
19330.0 0.0031738
19350.0 0.0031621
19370.0 0.0031506
19390.0 0.0031392
19410.0 0.0031275
19430.0 0.0031157
19450.0 0.0031042
19470.0 0.0030926
19490.0 0.0030807
19510.0 0.0030689
19530.0 0.0030572
19550.0 0.0030452
19570.0 0.0030332
19590.0 0.0030214
19610.0 0.0030095
19630.0 0.0029974
19650.0 0.0029855
19670.0 0.0029736
19690.0 0.0029615
19710.0 0.0029493
19730.0 0.0029374
19750.0 0.0029253
19770.0 0.0029129
19790.0 0.0029009
19810.0 0.0028888
19830.0 0.0028766
19850.0 0.0028642
19870.0 0.002852
19890.0 0.0028393
19910.0 0.0028258
19930.0 0.0028117
19950.0 0.0027963
19970.0 0.0027786
19990.0 0.0027584
20010.0 0.0027363
20030.0 0.0027108
20050.0 0.0026821
20070.0 0.0026517
20090.0 0.0026198
20110.0 0.0025849
20130.0 0.0025501
20150.0 0.0025159
20170.0 0.002481
20190.0 0.002446
20210.0 0.0024128
20230.0 0.0023804
20250.0 0.0023478
20270.0 0.002317
20290.0 0.002288
20310.0 0.0022596
20330.0 0.0022319
20350.0 0.0022071
20370.0 0.0021834
20390.0 0.0021605
20410.0 0.0021394
20430.0 0.0021201
20450.0 0.0021013
20470.0 0.0020838
20490.0 0.0020681
20510.0 0.0020534
20530.0 0.0020395
20550.0 0.0020269
20570.0 0.0020156
20590.0 0.0020049
20610.0 0.001995
20630.0 0.0019862
20650.0 0.0019779
20670.0 0.0019701
20690.0 0.0019629
20710.0 0.0019562
20730.0 0.0019497
20750.0 0.0019432
20770.0 0.0019369
20790.0 0.0019305
20810.0 0.0019237
20830.0 0.0019166
20850.0 0.0019091
20870.0 0.0019008
20890.0 0.0018918
20910.0 0.0018823
20930.0 0.0018719
20950.0 0.0018605
20970.0 0.0018485
20990.0 0.0018359
21010.0 0.0018221
21030.0 0.0018077
21050.0 0.001793
21070.0 0.0017776
21090.0 0.0017612
21110.0 0.0017452
21130.0 0.001729
21150.0 0.0017122
21170.0 0.0016955
21190.0 0.0016793
21210.0 0.0016626
21230.0 0.0016459
21250.0 0.0016299
21270.0 0.0016143
21290.0 0.0015986
21310.0 0.0015834
21330.0 0.0015691
21350.0 0.0015549
21370.0 0.0015409
21390.0 0.0015278
21410.0 0.0015151
21430.0 0.0015022
21450.0 0.00149
21470.0 0.0014785
21490.0 0.0014671
21510.0 0.0014558
21530.0 0.0014451
21550.0 0.0014345
21570.0 0.0014238
21590.0 0.0014135
21610.0 0.0014035
21630.0 0.0013933
21650.0 0.001383
21670.0 0.0013733
21690.0 0.0013635
21710.0 0.0013535
21730.0 0.0013437
21750.0 0.0013342
21770.0 0.0013242
21790.0 0.0013142
21810.0 0.0013046
21830.0 0.0012948
21850.0 0.0012848
21870.0 0.0012749
21890.0 0.0012653
21910.0 0.0012553
21930.0 0.0012452
21950.0 0.0012354
21970.0 0.0012255
21990.0 0.0012151
22010.0 0.0012052
22030.0 0.0011954
22050.0 0.0011853
22070.0 0.0011753
22090.0 0.0011658
22110.0 0.0011562
22130.0 0.0011465
22150.0 0.0011372
22170.0 0.0011284
22190.0 0.0011193
22210.0 0.0011106
22230.0 0.0011026
22250.0 0.0010947
22270.0 0.001087
22290.0 0.0010799
22310.0 0.0010732
22330.0 0.0010665
22350.0 0.0010603
22370.0 0.0010546
22390.0 0.001049
22410.0 0.0010435
22430.0 0.0010385
22450.0 0.0010338
22470.0 0.0010291
22490.0 0.0010246
22510.0 0.0010205
22530.0 0.0010163
22550.0 0.0010121
22570.0 0.0010083
22590.0 0.0010046
22610.0 0.0010008
22630.0 0.00099723
22650.0 0.000994
22670.0 0.00099074
22690.0 0.00098759
22710.0 0.00098477
22730.0 0.00098216
22750.0 0.00097953
22770.0 0.00097731
22790.0 0.00097545
22810.0 0.00097377
22830.0 0.00097236
22850.0 0.00097144
22870.0 0.00097084
22890.0 0.00097056
22910.0 0.00097078
22930.0 0.00097151
22950.0 0.00097271
22970.0 0.00097445
22990.0 0.0009768
23010.0 0.0009797
23030.0 0.00098323
23050.0 0.00098735
23070.0 0.00099197
23090.0 0.00099729
23110.0 0.0010032
23130.0 0.0010094
23150.0 0.0010161
23170.0 0.0010234
23190.0 0.001031
23210.0 0.0010387
23230.0 0.001047
23250.0 0.0010554
23270.0 0.0010639
23290.0 0.0010727
23310.0 0.0010819
23330.0 0.0010909
23350.0 0.0010999
23370.0 0.0011092
23390.0 0.0011185
23410.0 0.0011276
23430.0 0.0011369
23450.0 0.0011467
23470.0 0.0011564
23490.0 0.0011661
23510.0 0.001176
23530.0 0.001186
23550.0 0.0011957
23570.0 0.0012057
23590.0 0.0012158
23610.0 0.0012258
23630.0 0.0012358
23650.0 0.0012462
23670.0 0.0012567
23690.0 0.0012671
23710.0 0.001278
23730.0 0.0012892
23750.0 0.0013005
23770.0 0.0013121
23790.0 0.0013242
23810.0 0.0013366
23830.0 0.0013492
23850.0 0.0013624
23870.0 0.0013761
23890.0 0.0013898
23910.0 0.0014037
23930.0 0.0014181
23950.0 0.0014326
23970.0 0.0014469
23990.0 0.0014615
24010.0 0.0014762
24030.0 0.0014906
24050.0 0.0015047
24070.0 0.001519
24090.0 0.0015327
24110.0 0.0015459
24130.0 0.0015588
24150.0 0.0015713
24170.0 0.0015832
24190.0 0.0015948
24210.0 0.0016061
24230.0 0.001617
24250.0 0.0016276
24270.0 0.001638
24290.0 0.0016484
24310.0 0.0016587
24330.0 0.001669
24350.0 0.0016794
24370.0 0.00169
24390.0 0.0017008
24410.0 0.001712
24430.0 0.0017235
24450.0 0.0017354
24470.0 0.0017476
24490.0 0.0017604
24510.0 0.0017735
24530.0 0.0017869
24550.0 0.0018008
