#lamb flux
1010.0 6.115e-07
1030.0 6.4887e-07
1050.0 6.9186e-07
1070.0 7.4026e-07
1090.0 7.9524e-07
1110.0 8.5164e-07
1130.0 9.0841e-07
1150.0 9.6789e-07
1170.0 1.0293e-06
1190.0 1.0875e-06
1210.0 1.1465e-06
1230.0 1.2075e-06
1250.0 1.2672e-06
1270.0 1.3253e-06
1290.0 1.3867e-06
1310.0 1.448e-06
1330.0 1.5069e-06
1350.0 1.5665e-06
1370.0 1.628e-06
1390.0 1.6879e-06
1410.0 1.7462e-06
1430.0 1.8071e-06
1450.0 1.868e-06
1470.0 1.927e-06
1490.0 1.9866e-06
1510.0 2.0495e-06
1530.0 2.1093e-06
1550.0 2.1682e-06
1570.0 2.2292e-06
1590.0 2.2903e-06
1610.0 2.3488e-06
1630.0 2.4091e-06
1650.0 2.471e-06
1670.0 2.5309e-06
1690.0 2.5901e-06
1710.0 2.6517e-06
1730.0 2.7136e-06
1750.0 2.772e-06
1770.0 2.8321e-06
1790.0 2.8935e-06
1810.0 2.953e-06
1830.0 3.0116e-06
1850.0 3.0738e-06
1870.0 3.1346e-06
1890.0 3.1934e-06
1910.0 3.2536e-06
1930.0 3.3154e-06
1950.0 3.3745e-06
1970.0 3.4332e-06
1990.0 3.4942e-06
2010.0 3.5545e-06
2030.0 3.6128e-06
2050.0 3.6732e-06
2070.0 3.7354e-06
2090.0 3.7944e-06
2110.0 3.8536e-06
2130.0 3.9148e-06
2150.0 3.9753e-06
2170.0 4.0337e-06
2190.0 4.0946e-06
2210.0 4.1564e-06
2230.0 4.2162e-06
2250.0 4.2763e-06
2270.0 4.3395e-06
2290.0 4.4013e-06
2310.0 4.4612e-06
2330.0 4.5236e-06
2350.0 4.5869e-06
2370.0 4.6485e-06
2390.0 4.7111e-06
2410.0 4.777e-06
2430.0 4.841e-06
2450.0 4.9028e-06
2470.0 4.9636e-06
2490.0 5.0202e-06
2510.0 5.0689e-06
2530.0 5.1168e-06
2550.0 5.1764e-06
2570.0 5.2676e-06
2590.0 5.4175e-06
2610.0 5.6834e-06
2630.0 6.0994e-06
2650.0 6.6609e-06
2670.0 7.3879e-06
2690.0 8.2738e-06
2710.0 9.216e-06
2730.0 1.0156e-05
2750.0 1.1112e-05
2770.0 1.2002e-05
2790.0 1.2797e-05
2810.0 1.3546e-05
2830.0 1.429e-05
2850.0 1.4977e-05
2870.0 1.5656e-05
2890.0 1.6365e-05
2910.0 1.7082e-05
2930.0 1.7779e-05
2950.0 1.8507e-05
2970.0 1.9256e-05
2990.0 1.9985e-05
3010.0 4.2901e-05
3030.0 4.4469e-05
3050.0 4.6053e-05
3070.0 4.757e-05
3090.0 4.9161e-05
3110.0 5.0815e-05
3130.0 5.2449e-05
3150.0 5.4069e-05
3170.0 5.5726e-05
3190.0 5.7158e-05
3210.0 5.8269e-05
3230.0 5.9141e-05
3250.0 5.2121e-05
3270.0 4.5149e-05
3290.0 3.4481e-05
3310.0 3.8639e-05
3330.0 4.1614e-05
3350.0 4.4445e-05
3370.0 4.7252e-05
3390.0 5.0062e-05
3410.0 5.2874e-05
3430.0 5.5679e-05
3450.0 5.8492e-05
3470.0 6.1294e-05
3490.0 6.3666e-05
3510.0 6.4464e-05
3530.0 6.7456e-05
3550.0 8.2416e-05
3570.0 0.00010448
3590.0 0.00011822
3610.0 0.00013456
3630.0 0.00012535
3650.0 0.00011466
3670.0 0.0001105
3690.0 0.00013135
3710.0 0.00016668
3730.0 0.00017918
3750.0 0.00018602
3770.0 0.00018786
3790.0 0.00018474
3810.0 0.00016768
3830.0 0.00012986
3850.0 0.00010371
3870.0 0.00010103
3890.0 0.00013788
3910.0 0.00018747
3930.0 0.00021981
3950.0 0.00023194
3970.0 0.00023074
3990.0 0.00026331
4010.0 0.00029435
4030.0 0.00027533
4050.0 0.00024086
4070.0 0.00020377
4090.0 0.00020256
4110.0 0.00022949
4130.0 0.00023291
4150.0 0.00023478
4170.0 0.00022121
4190.0 0.00021092
4210.0 0.00021353
4230.0 0.00024542
4250.0 0.00024782
4270.0 0.00024619
4290.0 0.00024386
4310.0 0.00024406
4330.0 0.00026966
4350.0 0.00031056
4370.0 0.00031559
4390.0 0.00027311
4410.0 0.0002256
4430.0 0.00019342
4450.0 0.00016642
4470.0 0.00016124
4490.0 0.00019277
4510.0 0.00021628
4530.0 0.0002371
4550.0 0.00025486
4570.0 0.00030109
4590.0 0.00042933
4610.0 0.00057512
4630.0 0.0005957
4650.0 0.00056551
4670.0 0.00060101
4690.0 0.00065931
4710.0 0.00058297
4730.0 0.00042928
4750.0 0.00032669
4770.0 0.00029741
4790.0 0.00029854
4810.0 0.00027987
4830.0 0.00030534
4850.0 0.00038766
4870.0 0.0004815
4890.0 0.00043034
4910.0 0.00037827
4930.0 0.00041966
4950.0 0.00055135
4970.0 0.00071535
4990.0 0.00073726
5010.0 0.00063519
5030.0 0.00047661
5050.0 0.00034174
5070.0 0.00028737
5090.0 0.00027258
5110.0 0.00027658
5130.0 0.00028776
5150.0 0.00028396
5170.0 0.0002894
5190.0 0.00028021
5210.0 0.00028957
5230.0 0.00030988
5250.0 0.00034171
5270.0 0.00042126
5290.0 0.0004811
5310.0 0.00048374
5330.0 0.00050389
5350.0 0.00056888
5370.0 0.00060525
5390.0 0.00056177
5410.0 0.00048124
5430.0 0.00045795
5450.0 0.0005289
5470.0 0.00068274
5490.0 0.00084796
5510.0 0.00093314
5530.0 0.00095326
5550.0 0.00090918
5570.0 0.00084719
5590.0 0.00081923
5610.0 0.00082951
5630.0 0.00084926
5650.0 0.00085115
5670.0 0.00083873
5690.0 0.00081565
5710.0 0.00073228
5730.0 0.00061279
5750.0 0.00051442
5770.0 0.0005176
5790.0 0.0005689
5810.0 0.00061213
5830.0 0.00063244
5850.0 0.00063206
5870.0 0.00058442
5890.0 0.00051174
5910.0 0.00050092
5930.0 0.00054349
5950.0 0.00056171
5970.0 0.00051499
5990.0 0.00044357
6010.0 0.00036596
6030.0 0.00030734
6050.0 0.00030266
6070.0 0.00034403
6090.0 0.0003622
6110.0 0.00033119
6130.0 0.00030654
6150.0 0.00032564
6170.0 0.00038989
6190.0 0.00046518
6210.0 0.00050581
6230.0 0.00048832
6250.0 0.00044758
6270.0 0.00038732
6290.0 0.00032109
6310.0 0.00026577
6330.0 0.00024006
6350.0 0.00025003
6370.0 0.00027106
6390.0 0.00029339
6410.0 0.00033382
6430.0 0.00041101
6450.0 0.00051761
6470.0 0.00058922
6490.0 0.00059072
6510.0 0.00057676
6530.0 0.00058769
6550.0 0.00060081
6570.0 0.00060611
6590.0 0.00060615
6610.0 0.00058968
6630.0 0.00059051
6650.0 0.00059251
6670.0 0.0005697
6690.0 0.00051086
6710.0 0.00043185
6730.0 0.00041349
6750.0 0.00044436
6770.0 0.00048318
6790.0 0.00049809
6810.0 0.00049248
6830.0 0.00048574
6850.0 0.00047516
6870.0 0.00044803
6890.0 0.00042217
6910.0 0.00040347
6930.0 0.00038889
6950.0 0.0004128
6970.0 0.0004493
6990.0 0.00047388
7010.0 0.00047942
7030.0 0.00045308
7050.0 0.00039333
7070.0 0.00031888
7090.0 0.00027092
7110.0 0.00026134
7130.0 0.00027566
7150.0 0.00027907
7170.0 0.00025669
7190.0 0.00025166
7210.0 0.00027726
7230.0 0.00031841
7250.0 0.00036393
7270.0 0.00038323
7290.0 0.00036084
7310.0 0.00032017
7330.0 0.00029301
7350.0 0.00028681
7370.0 0.00029431
7390.0 0.00030758
7410.0 0.00032956
7430.0 0.00037461
7450.0 0.00043548
7470.0 0.0004972
7490.0 0.00052596
7510.0 0.00050957
7530.0 0.00044075
7550.0 0.00035885
7570.0 0.00029825
7590.0 0.00026272
7610.0 0.00027012
7630.0 0.00031188
7650.0 0.0003584
7670.0 0.00040524
7690.0 0.00044493
7710.0 0.00047362
7730.0 0.00049764
7750.0 0.00052012
7770.0 0.00053994
7790.0 0.00054162
7810.0 0.00054702
7830.0 0.00056386
7850.0 0.00056445
7870.0 0.00054906
7890.0 0.0005096
7910.0 0.0004784
7930.0 0.00045574
7950.0 0.00045506
7970.0 0.00045179
7990.0 0.00045594
8010.0 0.00045404
8030.0 0.00045559
8050.0 0.00046749
8070.0 0.00046047
8090.0 0.00046032
8110.0 0.00044235
8130.0 0.00043952
8150.0 0.0004273
8170.0 0.00041521
8190.0 0.0004094
8210.0 0.00041226
8230.0 0.00038686
8250.0 0.00036263
8270.0 0.00031676
8290.0 0.00025545
8310.0 0.00019815
8330.0 0.00015222
8350.0 0.00013435
8370.0 0.00015125
8390.0 0.00017483
8410.0 0.00019314
8430.0 0.00021446
8450.0 0.00022607
8470.0 0.00023679
8490.0 0.00026332
8510.0 0.00029352
8530.0 0.00034113
8550.0 0.00040014
8570.0 0.00045334
8590.0 0.00049606
8610.0 0.00053242
8630.0 0.00055845
8650.0 0.00056267
8670.0 0.00056406
8690.0 0.00058283
8710.0 0.00059386
8730.0 0.00060583
8750.0 0.00059357
8770.0 0.00059551
8790.0 0.00058725
8810.0 0.00054685
8830.0 0.00053217
8850.0 0.00050202
8870.0 0.00047952
8890.0 0.00045802
8910.0 0.00046964
8930.0 0.00044189
8950.0 0.00042553
8970.0 0.00041932
8990.0 0.00040958
9010.0 0.00040224
9030.0 0.00039164
9050.0 0.00038927
9070.0 0.00038819
9090.0 0.00038714
9110.0 0.00038615
9130.0 0.00038504
9150.0 0.0003839
9170.0 0.00038227
9190.0 0.00038005
9210.0 0.00038194
9230.0 0.00037997
9250.0 0.00037839
9270.0 0.0003769
9290.0 0.00037547
9310.0 0.00037408
9330.0 0.0003727
9350.0 0.00037134
9370.0 0.00036997
9390.0 0.00036857
9410.0 0.00036717
9430.0 0.00036574
9450.0 0.00036415
9470.0 0.0003626
9490.0 0.00036129
9510.0 0.00035989
9530.0 0.00035846
9550.0 0.000357
9570.0 0.00035552
9590.0 0.00035403
9610.0 0.00035253
9630.0 0.00035102
9650.0 0.00034951
9670.0 0.00034799
9690.0 0.00034647
9710.0 0.00034494
9730.0 0.00034342
9750.0 0.00034188
9770.0 0.00034035
9790.0 0.00033882
9810.0 0.00033729
9830.0 0.00033575
9850.0 0.00033422
9870.0 0.00033269
9890.0 0.00033115
9910.0 0.00032962
9930.0 0.00032806
9950.0 0.00032446
9970.0 0.00032355
9990.0 0.00032252
10010.0 0.00032143
10030.0 0.00032017
10050.0 0.00031876
10070.0 0.00031724
10090.0 0.00031587
10110.0 0.00031437
10130.0 0.00031294
10150.0 0.00031149
10170.0 0.00030997
10190.0 0.00030839
10210.0 0.00030691
10230.0 0.00030546
10250.0 0.00030394
10270.0 0.00030243
10290.0 0.000301
10310.0 0.0002995
10330.0 0.00029794
10350.0 0.00029648
10370.0 0.00029503
10390.0 0.00029351
10410.0 0.000292
10430.0 0.00029059
10450.0 0.0002891
10470.0 0.00028757
10490.0 0.00028611
10510.0 0.00028467
10530.0 0.0002831
10550.0 0.00028158
10570.0 0.00028015
10590.0 0.00027864
10610.0 0.0002771
10630.0 0.00027564
10650.0 0.00027417
10670.0 0.0002726
10690.0 0.00027108
10710.0 0.00026961
10730.0 0.00026806
10750.0 0.00026644
10770.0 0.00026497
10790.0 0.00026345
10810.0 0.00026186
10830.0 0.0002603
10850.0 0.0002588
10870.0 0.00025714
10890.0 0.00025544
10910.0 0.00025375
10930.0 0.00025193
10950.0 0.00024983
10970.0 0.00024756
10990.0 0.00024513
11010.0 0.00022123
11030.0 0.0002183
11050.0 0.00021546
11070.0 0.00021256
11090.0 0.00020943
11110.0 0.00020654
11130.0 0.00020373
11150.0 0.00020082
11170.0 0.00019793
11190.0 0.00019524
11210.0 0.00019247
11230.0 0.00018962
11250.0 0.0001869
11270.0 0.00018426
11290.0 0.00018152
11310.0 0.00017882
11330.0 0.0001764
11350.0 0.00017398
11370.0 0.00017157
11390.0 0.00016935
11410.0 0.00016727
11430.0 0.00016509
11450.0 0.00016302
11470.0 0.00016107
11490.0 0.00015907
11510.0 0.00015695
11530.0 0.00015491
11550.0 0.00015282
11570.0 0.00015051
11590.0 0.00014812
11610.0 0.00014572
11630.0 0.00014308
11650.0 0.00014022
11670.0 0.00013742
11690.0 0.00013455
11710.0 0.00013148
11730.0 0.00012842
11750.0 0.00012552
11770.0 0.0001225
11790.0 0.0001195
11810.0 0.00011671
11830.0 0.00011404
11850.0 0.00011132
11870.0 0.00010885
11890.0 0.00010662
11910.0 0.00010445
11930.0 0.00010239
11950.0 0.00010057
11970.0 9.8845e-05
11990.0 9.7147e-05
12010.0 9.5617e-05
12030.0 9.4225e-05
12050.0 9.2864e-05
12070.0 9.1554e-05
12090.0 9.0433e-05
12110.0 8.9368e-05
12130.0 8.8348e-05
12150.0 8.7455e-05
12170.0 8.6698e-05
12190.0 8.5987e-05
12210.0 8.5422e-05
12230.0 8.5039e-05
12250.0 8.4806e-05
12270.0 8.4744e-05
12290.0 8.4899e-05
12310.0 8.5264e-05
12330.0 8.5855e-05
12350.0 8.6686e-05
12370.0 8.7727e-05
12390.0 8.8993e-05
12410.0 9.0533e-05
12430.0 9.2201e-05
12450.0 9.4003e-05
12470.0 9.5976e-05
12490.0 9.8033e-05
12510.0 0.00010006
12530.0 0.00010213
12550.0 0.00010421
12570.0 0.00010615
12590.0 0.00010798
12610.0 0.00010972
12630.0 0.00011128
12650.0 0.0001126
12670.0 0.00011377
12690.0 0.00011473
12710.0 0.00011548
12730.0 0.00011602
12750.0 0.00011636
12770.0 0.0001165
12790.0 0.00011647
12810.0 0.00011625
12830.0 0.00011586
12850.0 0.00011535
12870.0 0.00011473
12890.0 0.00011396
12910.0 0.00011311
12930.0 0.00011222
12950.0 0.0001112
12970.0 0.00011009
12990.0 0.00010899
13010.0 0.00010784
13030.0 0.0001066
13050.0 0.00010532
13070.0 0.00010407
13090.0 0.00010271
13110.0 0.00010131
13130.0 9.9948e-05
13150.0 9.8577e-05
13170.0 9.7143e-05
13190.0 9.5805e-05
13210.0 9.458e-05
13230.0 9.3406e-05
13250.0 9.2354e-05
13270.0 9.1502e-05
13290.0 9.0808e-05
13310.0 9.0287e-05
13330.0 8.9996e-05
13350.0 8.9909e-05
13370.0 9.0007e-05
13390.0 9.0281e-05
13410.0 9.0668e-05
13430.0 9.1135e-05
13450.0 9.1642e-05
13470.0 9.2108e-05
13490.0 9.2485e-05
13510.0 9.2742e-05
13530.0 9.2807e-05
13550.0 9.2666e-05
13570.0 9.23e-05
13590.0 9.1681e-05
13610.0 9.0858e-05
13630.0 8.9869e-05
13650.0 8.8664e-05
13670.0 8.733e-05
13690.0 8.5952e-05
13710.0 8.4501e-05
13730.0 8.2963e-05
13750.0 8.1534e-05
13770.0 8.0165e-05
13790.0 7.8821e-05
13810.0 7.7573e-05
13830.0 7.6469e-05
13850.0 7.5423e-05
13870.0 7.4459e-05
13890.0 7.3619e-05
13910.0 7.287e-05
13930.0 7.2173e-05
13950.0 7.1554e-05
13970.0 7.1026e-05
13990.0 7.0537e-05
14010.0 7.0091e-05
14030.0 6.9702e-05
14050.0 6.935e-05
14070.0 6.9015e-05
14090.0 6.8715e-05
14110.0 6.8442e-05
14130.0 6.8179e-05
14150.0 6.7924e-05
14170.0 6.7685e-05
14190.0 6.745e-05
14210.0 6.7216e-05
14230.0 6.6989e-05
14250.0 6.6773e-05
14270.0 6.6563e-05
14290.0 6.6368e-05
14310.0 6.6196e-05
14330.0 6.6044e-05
14350.0 6.5916e-05
14370.0 6.5813e-05
14390.0 6.5729e-05
14410.0 6.5666e-05
14430.0 6.5617e-05
14450.0 6.5572e-05
14470.0 6.5526e-05
14490.0 6.5479e-05
14510.0 6.5416e-05
14530.0 6.5338e-05
14550.0 6.5248e-05
14570.0 6.5148e-05
14590.0 6.5041e-05
14610.0 6.4938e-05
14630.0 6.4852e-05
14650.0 6.4791e-05
14670.0 6.4767e-05
14690.0 6.4801e-05
14710.0 6.4908e-05
14730.0 6.5074e-05
14750.0 6.5332e-05
14770.0 6.5701e-05
14790.0 6.6161e-05
14810.0 6.6708e-05
14830.0 6.7421e-05
14850.0 6.8238e-05
14870.0 6.912e-05
14890.0 7.0106e-05
14910.0 7.1185e-05
14930.0 7.2232e-05
14950.0 7.3212e-05
14970.0 7.4143e-05
14990.0 7.4903e-05
15010.0 7.5443e-05
15030.0 7.5797e-05
15050.0 7.597e-05
15070.0 7.5953e-05
15090.0 7.582e-05
15110.0 7.5606e-05
15130.0 7.5339e-05
15150.0 7.5044e-05
15170.0 7.4732e-05
15190.0 7.4411e-05
15210.0 7.4089e-05
15230.0 7.3766e-05
15250.0 7.344e-05
15270.0 7.3113e-05
15290.0 7.279e-05
15310.0 7.2464e-05
15330.0 7.2136e-05
15350.0 7.1811e-05
15370.0 7.1486e-05
15390.0 7.1158e-05
15410.0 7.0831e-05
15430.0 7.0506e-05
15450.0 7.018e-05
15470.0 6.9852e-05
15490.0 6.9528e-05
15510.0 6.9203e-05
15530.0 6.8877e-05
15550.0 6.8552e-05
15570.0 6.823e-05
15590.0 6.7905e-05
15610.0 6.758e-05
15630.0 6.7259e-05
15650.0 6.6937e-05
15670.0 6.6614e-05
15690.0 6.6294e-05
15710.0 6.5976e-05
15730.0 6.5656e-05
15750.0 6.5336e-05
15770.0 6.502e-05
15790.0 6.4704e-05
15810.0 6.4386e-05
15830.0 6.4071e-05
15850.0 6.3759e-05
15870.0 6.3445e-05
15890.0 6.3133e-05
15910.0 6.2824e-05
15930.0 6.2515e-05
15950.0 6.2204e-05
15970.0 6.1897e-05
15990.0 6.1592e-05
16010.0 6.1287e-05
16030.0 6.0982e-05
16050.0 6.0681e-05
16070.0 6.038e-05
16090.0 6.008e-05
16110.0 5.9782e-05
16130.0 5.9486e-05
16150.0 5.9189e-05
16170.0 5.8893e-05
16190.0 5.8602e-05
16210.0 5.8311e-05
16230.0 5.8019e-05
16250.0 5.7731e-05
16270.0 5.7446e-05
16290.0 5.7159e-05
16310.0 5.6875e-05
16330.0 5.6593e-05
16350.0 5.6312e-05
16370.0 5.603e-05
16390.0 5.5754e-05
16410.0 5.5478e-05
16430.0 5.5203e-05
16450.0 5.4929e-05
16470.0 5.4659e-05
16490.0 5.4389e-05
16510.0 5.4119e-05
16530.0 5.3853e-05
16550.0 5.3589e-05
16570.0 5.3324e-05
16590.0 5.3062e-05
16610.0 5.2803e-05
16630.0 5.2545e-05
16650.0 5.2287e-05
16670.0 5.2033e-05
16690.0 5.178e-05
16710.0 5.1527e-05
16730.0 5.1276e-05
16750.0 5.1029e-05
16770.0 5.0782e-05
16790.0 5.0535e-05
16810.0 5.0293e-05
16830.0 5.0052e-05
16850.0 4.9811e-05
16870.0 4.9573e-05
16890.0 4.9337e-05
16910.0 4.9101e-05
16930.0 4.8866e-05
16950.0 4.8636e-05
16970.0 4.8406e-05
16990.0 4.8177e-05
17010.0 4.795e-05
17030.0 4.7727e-05
17050.0 4.7503e-05
17070.0 4.728e-05
17090.0 4.7061e-05
17110.0 4.6843e-05
17130.0 4.6624e-05
17150.0 4.6409e-05
17170.0 4.6197e-05
17190.0 4.5985e-05
17210.0 4.5774e-05
17230.0 4.5567e-05
17250.0 4.536e-05
17270.0 4.5153e-05
17290.0 4.4949e-05
17310.0 4.4748e-05
17330.0 4.4546e-05
17350.0 4.4346e-05
17370.0 4.415e-05
17390.0 4.3955e-05
17410.0 4.3759e-05
17430.0 4.3567e-05
17450.0 4.3377e-05
17470.0 4.3186e-05
17490.0 4.2997e-05
17510.0 4.2811e-05
17530.0 4.2626e-05
17550.0 4.2442e-05
17570.0 4.226e-05
17590.0 4.2081e-05
17610.0 4.1901e-05
17630.0 4.1723e-05
17650.0 4.1547e-05
17670.0 4.1373e-05
17690.0 4.1197e-05
17710.0 4.1026e-05
17730.0 4.0857e-05
17750.0 4.0687e-05
17770.0 4.0519e-05
17790.0 4.0355e-05
17810.0 4.0189e-05
17830.0 4.0025e-05
17850.0 3.9863e-05
17870.0 3.9703e-05
17890.0 3.9543e-05
17910.0 3.9384e-05
17930.0 3.9229e-05
17950.0 3.9074e-05
17970.0 3.8919e-05
17990.0 3.8767e-05
18010.0 3.8617e-05
18030.0 3.8465e-05
18050.0 3.8316e-05
18070.0 3.817e-05
18090.0 3.8023e-05
18110.0 3.7877e-05
18130.0 3.7735e-05
18150.0 3.7593e-05
18170.0 3.745e-05
18190.0 3.7311e-05
18210.0 3.7173e-05
18230.0 3.7034e-05
18250.0 3.6897e-05
18270.0 3.6762e-05
18290.0 3.6629e-05
18310.0 3.6495e-05
18330.0 3.6363e-05
18350.0 3.6234e-05
18370.0 3.6104e-05
18390.0 3.5975e-05
18410.0 3.5848e-05
18430.0 3.5722e-05
18450.0 3.5596e-05
18470.0 3.5472e-05
18490.0 3.535e-05
18510.0 3.5228e-05
18530.0 3.5107e-05
18550.0 3.4988e-05
18570.0 3.4869e-05
18590.0 3.4751e-05
18610.0 3.4634e-05
18630.0 3.4519e-05
18650.0 3.4404e-05
18670.0 3.429e-05
18690.0 3.4178e-05
18710.0 3.4067e-05
18730.0 3.3955e-05
18750.0 3.3846e-05
18770.0 3.3738e-05
18790.0 3.3629e-05
18810.0 3.3522e-05
18830.0 3.3417e-05
18850.0 3.3311e-05
18870.0 3.3206e-05
18890.0 3.3104e-05
18910.0 3.3002e-05
18930.0 3.29e-05
18950.0 3.2799e-05
18970.0 3.27e-05
18990.0 3.2601e-05
19010.0 3.2502e-05
19030.0 3.2405e-05
19050.0 3.2309e-05
19070.0 3.2213e-05
19090.0 3.2118e-05
19110.0 3.2026e-05
19130.0 3.1932e-05
19150.0 3.1839e-05
19170.0 3.1748e-05
19190.0 3.1658e-05
19210.0 3.1567e-05
19230.0 3.1477e-05
19250.0 3.139e-05
19270.0 3.1302e-05
19290.0 3.1214e-05
19310.0 3.1129e-05
19330.0 3.1044e-05
19350.0 3.0957e-05
19370.0 3.0873e-05
19390.0 3.0791e-05
19410.0 3.0708e-05
19430.0 3.0625e-05
19450.0 3.0544e-05
19470.0 3.0464e-05
19490.0 3.0383e-05
19510.0 3.0304e-05
19530.0 3.0226e-05
19550.0 3.0147e-05
19570.0 3.0069e-05
19590.0 2.9993e-05
19610.0 2.9917e-05
19630.0 2.9841e-05
19650.0 2.9766e-05
19670.0 2.9693e-05
19690.0 2.9619e-05
19710.0 2.9545e-05
19730.0 2.9473e-05
19750.0 2.9401e-05
19770.0 2.9329e-05
19790.0 2.9258e-05
19810.0 2.9189e-05
19830.0 2.9118e-05
19850.0 2.9046e-05
19870.0 2.8974e-05
19890.0 2.8896e-05
19910.0 2.8808e-05
19930.0 2.8705e-05
19950.0 2.858e-05
19970.0 2.8417e-05
19990.0 2.8209e-05
20010.0 2.7963e-05
20030.0 2.766e-05
20050.0 2.7301e-05
20070.0 2.691e-05
20090.0 2.6492e-05
20110.0 2.6024e-05
20130.0 2.5555e-05
20150.0 2.5095e-05
20170.0 2.4624e-05
20190.0 2.415e-05
20210.0 2.3705e-05
20230.0 2.3271e-05
20250.0 2.2836e-05
20270.0 2.2429e-05
20290.0 2.2053e-05
20310.0 2.1689e-05
20330.0 2.1341e-05
20350.0 2.104e-05
20370.0 2.0763e-05
20390.0 2.0507e-05
20410.0 2.0285e-05
20430.0 2.0098e-05
20450.0 1.9931e-05
20470.0 1.9794e-05
20490.0 1.969e-05
20510.0 1.9611e-05
20530.0 1.9556e-05
20550.0 1.9527e-05
20570.0 1.9519e-05
20590.0 1.9531e-05
20610.0 1.9561e-05
20630.0 1.9603e-05
20650.0 1.9657e-05
20670.0 1.9725e-05
20690.0 1.9796e-05
20710.0 1.9869e-05
20730.0 1.9945e-05
20750.0 2.0021e-05
20770.0 2.0088e-05
20790.0 2.0151e-05
20810.0 2.0208e-05
20830.0 2.0253e-05
20850.0 2.0287e-05
20870.0 2.0309e-05
20890.0 2.0317e-05
20910.0 2.031e-05
20930.0 2.0289e-05
20950.0 2.0252e-05
20970.0 2.0201e-05
20990.0 2.0138e-05
21010.0 2.0059e-05
21030.0 1.9968e-05
21050.0 1.9868e-05
21070.0 1.9757e-05
21090.0 1.9633e-05
21110.0 1.9508e-05
21130.0 1.9379e-05
21150.0 1.9243e-05
21170.0 1.9107e-05
21190.0 1.8976e-05
21210.0 1.8842e-05
21230.0 1.871e-05
21250.0 1.8588e-05
21270.0 1.8473e-05
21290.0 1.8364e-05
21310.0 1.8265e-05
21330.0 1.818e-05
21350.0 1.8104e-05
21370.0 1.8039e-05
21390.0 1.7988e-05
21410.0 1.7949e-05
21430.0 1.7922e-05
21450.0 1.7908e-05
21470.0 1.7907e-05
21490.0 1.7919e-05
21510.0 1.7942e-05
21530.0 1.7976e-05
21550.0 1.802e-05
21570.0 1.8077e-05
21590.0 1.8142e-05
21610.0 1.8214e-05
21630.0 1.8298e-05
21650.0 1.8392e-05
21670.0 1.8487e-05
21690.0 1.859e-05
21710.0 1.8702e-05
21730.0 1.8817e-05
21750.0 1.8932e-05
21770.0 1.9057e-05
21790.0 1.9184e-05
21810.0 1.9307e-05
21830.0 1.9433e-05
21850.0 1.9562e-05
21870.0 1.9687e-05
21890.0 1.9805e-05
21910.0 1.9925e-05
21930.0 2.004e-05
21950.0 2.0146e-05
21970.0 2.0247e-05
21990.0 2.0346e-05
22010.0 2.0431e-05
22030.0 2.0506e-05
22050.0 2.0574e-05
22070.0 2.063e-05
22090.0 2.0671e-05
22110.0 2.0702e-05
22130.0 2.0719e-05
22150.0 2.0722e-05
22170.0 2.071e-05
22190.0 2.0682e-05
22210.0 2.0638e-05
22230.0 2.058e-05
22250.0 2.0506e-05
22270.0 2.0414e-05
22290.0 2.031e-05
22310.0 2.0193e-05
22330.0 2.0055e-05
22350.0 1.9905e-05
22370.0 1.9746e-05
22390.0 1.9572e-05
22410.0 1.9381e-05
22430.0 1.9189e-05
22450.0 1.8989e-05
22470.0 1.8774e-05
22490.0 1.8554e-05
22510.0 1.8337e-05
22530.0 1.8108e-05
22550.0 1.7871e-05
22570.0 1.7643e-05
22590.0 1.7416e-05
22610.0 1.7183e-05
