#lamb flux
1010.0 9.7342e-10
1030.0 1.0766e-09
1050.0 1.1953e-09
1070.0 1.3289e-09
1090.0 1.4807e-09
1110.0 1.6363e-09
1130.0 1.793e-09
1150.0 1.9571e-09
1170.0 2.1263e-09
1190.0 2.2869e-09
1210.0 2.4495e-09
1230.0 2.6176e-09
1250.0 2.7823e-09
1270.0 2.9423e-09
1290.0 3.1113e-09
1310.0 3.2802e-09
1330.0 3.4422e-09
1350.0 3.606e-09
1370.0 3.7751e-09
1390.0 3.9399e-09
1410.0 4.0999e-09
1430.0 4.2672e-09
1450.0 4.4344e-09
1470.0 4.5961e-09
1490.0 4.7595e-09
1510.0 4.9321e-09
1530.0 5.0957e-09
1550.0 5.2571e-09
1570.0 5.4241e-09
1590.0 5.5912e-09
1610.0 5.7511e-09
1630.0 5.9159e-09
1650.0 6.0851e-09
1670.0 6.2488e-09
1690.0 6.4106e-09
1710.0 6.5787e-09
1730.0 6.7479e-09
1750.0 6.9072e-09
1770.0 7.0713e-09
1790.0 7.2389e-09
1810.0 7.4014e-09
1830.0 7.5612e-09
1850.0 7.7311e-09
1870.0 7.8969e-09
1890.0 8.0574e-09
1910.0 8.2214e-09
1930.0 8.3897e-09
1950.0 8.5507e-09
1970.0 8.7102e-09
1990.0 8.876e-09
2010.0 9.0394e-09
2030.0 9.1974e-09
2050.0 9.3606e-09
2070.0 9.5282e-09
2090.0 9.6867e-09
2110.0 9.8451e-09
2130.0 1.0009e-08
2150.0 1.0169e-08
2170.0 1.0323e-08
2190.0 1.0484e-08
2210.0 1.0645e-08
2230.0 1.08e-08
2250.0 1.0955e-08
2270.0 1.1117e-08
2290.0 1.1274e-08
2310.0 1.1425e-08
2330.0 1.1582e-08
2350.0 1.1743e-08
2370.0 1.1904e-08
2390.0 1.2078e-08
2410.0 1.2284e-08
2430.0 1.2521e-08
2450.0 1.2804e-08
2470.0 1.3167e-08
2490.0 1.3625e-08
2510.0 1.4145e-08
2530.0 1.4771e-08
2550.0 1.5555e-08
2570.0 1.653e-08
2590.0 1.7798e-08
2610.0 1.9696e-08
2630.0 2.2407e-08
2650.0 2.5952e-08
2670.0 3.0535e-08
2690.0 3.6166e-08
2710.0 4.2178e-08
2730.0 4.8118e-08
2750.0 5.3969e-08
2770.0 5.9058e-08
2790.0 6.3099e-08
2810.0 6.6306e-08
2830.0 6.8812e-08
2850.0 7.0522e-08
2870.0 7.1778e-08
2890.0 7.2772e-08
2910.0 7.3565e-08
2930.0 7.4213e-08
2950.0 7.4832e-08
2970.0 7.5437e-08
2990.0 7.6004e-08
3010.0 2.1483e-06
3030.0 2.1644e-06
3050.0 2.1799e-06
3070.0 2.1932e-06
3090.0 2.2046e-06
3110.0 2.2117e-06
3130.0 2.2114e-06
3150.0 2.2016e-06
3170.0 2.178e-06
3190.0 2.141e-06
3210.0 2.094e-06
3230.0 2.0403e-06
3250.0 1.9872e-06
3270.0 1.9484e-06
3290.0 1.9269e-06
3310.0 1.9304e-06
3330.0 1.9583e-06
3350.0 2.007e-06
3370.0 2.0765e-06
3390.0 2.164e-06
3410.0 2.2593e-06
3430.0 2.3663e-06
3450.0 2.4894e-06
3470.0 2.6239e-06
3490.0 2.7664e-06
3510.0 2.9274e-06
3530.0 3.0999e-06
3550.0 3.2746e-06
3570.0 3.4567e-06
3590.0 3.6549e-06
3610.0 3.859e-06
3630.0 4.0625e-06
3650.0 4.2737e-06
3670.0 4.4664e-06
3690.0 4.6105e-06
3710.0 4.6931e-06
3730.0 4.6959e-06
3750.0 4.6305e-06
3770.0 4.6048e-06
3790.0 4.5775e-06
3810.0 4.465e-06
3830.0 4.6032e-06
3850.0 5.1469e-06
3870.0 5.4453e-06
3890.0 5.4205e-06
3910.0 5.4436e-06
3930.0 5.5869e-06
3950.0 5.6751e-06
3970.0 5.1706e-06
3990.0 4.449e-06
4010.0 1.3334e-05
4030.0 1.6157e-05
4050.0 1.8522e-05
4070.0 1.6071e-05
4090.0 1.4556e-05
4110.0 1.2844e-05
4130.0 1.1822e-05
4150.0 1.2575e-05
4170.0 1.2387e-05
4190.0 1.3203e-05
4210.0 1.3082e-05
4230.0 1.3838e-05
4250.0 1.637e-05
4270.0 1.6563e-05
4290.0 1.5262e-05
4310.0 1.5859e-05
4330.0 1.6869e-05
4350.0 1.8914e-05
4370.0 2.1525e-05
4390.0 2.0199e-05
4410.0 1.4923e-05
4430.0 1.2633e-05
4450.0 1.1609e-05
4470.0 8.9101e-06
4490.0 9.6151e-06
4510.0 1.4524e-05
4530.0 1.675e-05
4550.0 1.6896e-05
4570.0 1.9012e-05
4590.0 2.1656e-05
4610.0 2.9209e-05
4630.0 3.7937e-05
4650.0 4.1142e-05
4670.0 3.8101e-05
4690.0 3.6355e-05
4710.0 3.843e-05
4730.0 3.6267e-05
4750.0 2.7115e-05
4770.0 1.9889e-05
4790.0 1.8573e-05
4810.0 1.7703e-05
4830.0 1.6207e-05
4850.0 1.7784e-05
4870.0 2.3495e-05
4890.0 2.7707e-05
4910.0 2.4309e-05
4930.0 2.151e-05
4950.0 2.3632e-05
4970.0 3.0307e-05
4990.0 4.1073e-05
5010.0 4.7249e-05
5030.0 4.1663e-05
5050.0 2.8188e-05
5070.0 1.8577e-05
5090.0 1.4979e-05
5110.0 1.5405e-05
5130.0 1.778e-05
5150.0 1.9263e-05
5170.0 1.8974e-05
5190.0 1.773e-05
5210.0 1.8532e-05
5230.0 1.9481e-05
5250.0 2.0995e-05
5270.0 2.2652e-05
5290.0 2.5104e-05
5310.0 2.922e-05
5330.0 3.2336e-05
5350.0 3.213e-05
5370.0 3.3749e-05
5390.0 3.8728e-05
5410.0 3.8693e-05
5430.0 3.4219e-05
5450.0 3.1439e-05
5470.0 3.3383e-05
5490.0 4.0785e-05
5510.0 5.0995e-05
5530.0 5.8489e-05
5550.0 5.6531e-05
5570.0 5.1391e-05
5590.0 4.4685e-05
5610.0 4.121e-05
5630.0 3.9961e-05
5650.0 3.8059e-05
5670.0 3.6064e-05
5690.0 3.2241e-05
5710.0 3.1436e-05
5730.0 2.8957e-05
5750.0 2.0416e-05
5770.0 1.5928e-05
5790.0 1.805e-05
5810.0 2.0382e-05
5830.0 2.5012e-05
5850.0 2.9774e-05
5870.0 3.3034e-05
5890.0 3.3594e-05
5910.0 3.2958e-05
5930.0 3.1372e-05
5950.0 3.1968e-05
5970.0 3.644e-05
5990.0 3.4263e-05
6010.0 2.8723e-05
6030.0 2.4267e-05
6050.0 2.1133e-05
6070.0 2.1018e-05
6090.0 2.279e-05
6110.0 2.5483e-05
6130.0 2.5874e-05
6150.0 2.2262e-05
6170.0 1.9584e-05
6190.0 2.2039e-05
6210.0 2.9135e-05
6230.0 3.8233e-05
6250.0 4.1411e-05
6270.0 3.6188e-05
6290.0 3.0447e-05
6310.0 2.3769e-05
6330.0 1.8212e-05
6350.0 1.6244e-05
6370.0 1.7083e-05
6390.0 1.9749e-05
6410.0 2.4351e-05
6430.0 2.8435e-05
6450.0 3.2537e-05
6470.0 3.7256e-05
6490.0 4.5002e-05
6510.0 5.0318e-05
6530.0 4.9366e-05
6550.0 4.464e-05
6570.0 3.7895e-05
6590.0 3.4171e-05
6610.0 2.9464e-05
6630.0 2.6693e-05
6650.0 2.5233e-05
6670.0 2.4513e-05
6690.0 2.2149e-05
6710.0 2.0134e-05
6730.0 1.4502e-05
6750.0 1.4377e-05
6770.0 1.5627e-05
6790.0 1.7962e-05
6810.0 1.6436e-05
6830.0 1.6924e-05
6850.0 1.583e-05
6870.0 1.446e-05
6890.0 1.3884e-05
6910.0 1.4795e-05
6930.0 1.3858e-05
6950.0 1.4258e-05
6970.0 1.4996e-05
6990.0 1.7022e-05
7010.0 1.7167e-05
7030.0 1.744e-05
7050.0 1.6632e-05
7070.0 1.5847e-05
7090.0 1.5893e-05
7110.0 1.6353e-05
7130.0 1.7598e-05
7150.0 1.8691e-05
7170.0 2.0624e-05
7190.0 2.2672e-05
7210.0 2.2278e-05
7230.0 2.2902e-05
7250.0 2.4612e-05
7270.0 2.6821e-05
7290.0 3.1834e-05
7310.0 3.4543e-05
7330.0 3.3388e-05
7350.0 3.0198e-05
7370.0 2.6275e-05
7390.0 2.549e-05
7410.0 2.7088e-05
7430.0 3.0105e-05
7450.0 3.279e-05
7470.0 3.2488e-05
7490.0 2.9623e-05
7510.0 3.3556e-05
7530.0 3.3188e-05
7550.0 2.983e-05
7570.0 2.3303e-05
7590.0 1.602e-05
7610.0 1.375e-05
7630.0 1.5622e-05
7650.0 1.8471e-05
7670.0 2.2989e-05
7690.0 2.5298e-05
7710.0 2.6363e-05
7730.0 2.7704e-05
7750.0 3.1101e-05
7770.0 3.159e-05
7790.0 2.9017e-05
7810.0 2.6476e-05
7830.0 2.7303e-05
7850.0 2.6541e-05
7870.0 2.4334e-05
7890.0 2.0445e-05
7910.0 1.6619e-05
7930.0 1.5869e-05
7950.0 1.4457e-05
7970.0 1.3382e-05
7990.0 1.3306e-05
8010.0 9.8548e-07
8030.0 9.7267e-07
8050.0 9.5955e-07
8070.0 9.7211e-07
8090.0 1.0445e-06
8110.0 1.0267e-06
8130.0 8.4691e-07
8150.0 8.2479e-07
8170.0 7.1044e-07
8190.0 6.7329e-07
8210.0 8.7433e-07
8230.0 9.7346e-07
8250.0 8.7737e-07
8270.0 7.6363e-07
8290.0 7.444e-07
8310.0 5.7292e-07
8330.0 3.8615e-07
8350.0 2.7404e-07
8370.0 1.7266e-07
8390.0 3.1562e-07
8410.0 3.6778e-07
8430.0 4.5334e-07
8450.0 5.3235e-07
8470.0 6.6168e-07
8490.0 6.5701e-07
8510.0 6.4627e-07
8530.0 6.7447e-07
8550.0 9.0999e-07
8570.0 1.0773e-06
8590.0 1.1624e-06
8610.0 1.4684e-06
8630.0 1.7688e-06
8650.0 1.8504e-06
8670.0 1.9664e-06
8690.0 1.9774e-06
8710.0 1.7908e-06
8730.0 1.6658e-06
8750.0 1.4703e-06
8770.0 1.3951e-06
8790.0 1.3706e-06
8810.0 1.3134e-06
8830.0 1.0502e-06
8850.0 7.6886e-07
8870.0 5.887e-07
8890.0 5.7555e-07
8910.0 6.5959e-07
8930.0 7.5024e-07
8950.0 7.646e-07
8970.0 7.6822e-07
8990.0 6.8516e-07
9010.0 7.1801e-06
9030.0 6.5061e-06
9050.0 6.5375e-06
9070.0 6.5891e-06
9090.0 6.6343e-06
9110.0 6.6902e-06
9130.0 6.7333e-06
9150.0 6.7669e-06
9170.0 6.8026e-06
9190.0 6.8407e-06
9210.0 6.8809e-06
9230.0 6.9234e-06
9250.0 6.9664e-06
9270.0 7.0111e-06
9290.0 7.0572e-06
9310.0 7.1035e-06
9330.0 7.1508e-06
9350.0 7.1998e-06
9370.0 7.2494e-06
9390.0 7.2994e-06
9410.0 7.351e-06
9430.0 7.404e-06
9450.0 7.4569e-06
9470.0 7.5109e-06
9490.0 7.5664e-06
9510.0 7.6226e-06
9530.0 7.6791e-06
9550.0 7.7375e-06
9570.0 7.797e-06
9590.0 7.8566e-06
9610.0 7.9172e-06
9630.0 7.9795e-06
9650.0 8.0423e-06
9670.0 8.1052e-06
9690.0 8.1698e-06
9710.0 8.2354e-06
9730.0 8.3011e-06
9750.0 8.3679e-06
9770.0 8.4366e-06
9790.0 8.5051e-06
9810.0 8.5741e-06
9830.0 8.6445e-06
9850.0 8.7158e-06
9870.0 8.7868e-06
9890.0 8.859e-06
9910.0 8.9325e-06
9930.0 9.0061e-06
9950.0 9.08e-06
9970.0 9.1553e-06
9990.0 9.2314e-06
10010.0 8.0104e-06
10030.0 8.0761e-06
10050.0 8.1433e-06
10070.0 8.2126e-06
10090.0 8.2781e-06
10110.0 8.3451e-06
10130.0 8.4124e-06
10150.0 8.4795e-06
10170.0 8.5474e-06
10190.0 8.6164e-06
10210.0 8.6847e-06
10230.0 8.7527e-06
10250.0 8.8219e-06
10270.0 8.891e-06
10290.0 8.9592e-06
10310.0 9.0283e-06
10330.0 9.0981e-06
10350.0 9.1667e-06
10370.0 9.2351e-06
10390.0 9.3043e-06
10410.0 9.3731e-06
10430.0 9.4406e-06
10450.0 9.5088e-06
10470.0 9.5771e-06
10490.0 9.6443e-06
10510.0 9.711e-06
10530.0 9.7789e-06
10550.0 9.8456e-06
10570.0 9.9109e-06
10590.0 9.9766e-06
10610.0 1.0042e-05
10630.0 1.0106e-05
10650.0 1.017e-05
10670.0 1.0234e-05
10690.0 1.0297e-05
10710.0 1.0358e-05
10730.0 1.042e-05
10750.0 1.0482e-05
10770.0 1.0541e-05
10790.0 1.0599e-05
10810.0 1.0658e-05
10830.0 1.0715e-05
10850.0 1.0769e-05
10870.0 1.0821e-05
10890.0 1.0867e-05
10910.0 1.0903e-05
10930.0 1.0923e-05
10950.0 1.0918e-05
10970.0 1.0881e-05
10990.0 1.0809e-05
11010.0 1.0687e-05
11030.0 1.0517e-05
11050.0 1.031e-05
11070.0 1.0062e-05
11090.0 9.7645e-06
11110.0 9.4565e-06
11130.0 9.1353e-06
11150.0 8.7895e-06
11170.0 8.4329e-06
11190.0 8.0871e-06
11210.0 7.73e-06
11230.0 7.3638e-06
11250.0 7.0139e-06
11270.0 6.6779e-06
11290.0 6.3412e-06
11310.0 6.0223e-06
11330.0 5.7415e-06
11350.0 5.4761e-06
11370.0 5.231e-06
11390.0 5.0188e-06
11410.0 4.8333e-06
11430.0 4.6609e-06
11450.0 4.5123e-06
11470.0 4.3838e-06
11490.0 4.2643e-06
11510.0 4.1491e-06
11530.0 4.0423e-06
11550.0 3.9361e-06
11570.0 3.8228e-06
11590.0 3.7055e-06
11610.0 3.5861e-06
11630.0 3.4562e-06
11650.0 3.317e-06
11670.0 3.1799e-06
11690.0 3.0409e-06
11710.0 2.8974e-06
11730.0 2.7584e-06
11750.0 2.6298e-06
11770.0 2.5036e-06
11790.0 2.3854e-06
11810.0 2.2813e-06
11830.0 2.1882e-06
11850.0 2.1025e-06
11870.0 2.0308e-06
11890.0 1.9712e-06
11910.0 1.9188e-06
11930.0 1.8737e-06
11950.0 1.8362e-06
11970.0 1.8027e-06
11990.0 1.7711e-06
12010.0 1.7418e-06
12030.0 1.7135e-06
12050.0 1.6844e-06
12070.0 1.654e-06
12090.0 1.6247e-06
12110.0 1.595e-06
12130.0 1.5653e-06
12150.0 1.5378e-06
12170.0 1.5139e-06
12190.0 1.4931e-06
12210.0 1.4787e-06
12230.0 1.4717e-06
12250.0 1.4728e-06
12270.0 1.4839e-06
12290.0 1.5049e-06
12310.0 1.535e-06
12330.0 1.5772e-06
12350.0 1.6297e-06
12370.0 1.6896e-06
12390.0 1.7586e-06
12410.0 1.8395e-06
12430.0 1.9217e-06
12450.0 2.0069e-06
12470.0 2.0974e-06
12490.0 2.1883e-06
12510.0 2.2736e-06
12530.0 2.3584e-06
12550.0 2.4403e-06
12570.0 2.5125e-06
12590.0 2.576e-06
12610.0 2.6325e-06
12630.0 2.6776e-06
12650.0 2.7087e-06
12670.0 2.7291e-06
12690.0 2.7373e-06
12710.0 2.7328e-06
12730.0 2.7169e-06
12750.0 2.6887e-06
12770.0 2.6499e-06
12790.0 2.6029e-06
12810.0 2.5467e-06
12830.0 2.4817e-06
12850.0 2.4138e-06
12870.0 2.3419e-06
12890.0 2.2642e-06
12910.0 2.1851e-06
12930.0 2.1072e-06
12950.0 2.026e-06
12970.0 1.9432e-06
12990.0 1.8649e-06
13010.0 1.7876e-06
13030.0 1.7095e-06
13050.0 1.6344e-06
13070.0 1.5641e-06
13090.0 1.4935e-06
13110.0 1.4252e-06
13130.0 1.3623e-06
13150.0 1.3027e-06
13170.0 1.2443e-06
13190.0 1.1923e-06
13210.0 1.1466e-06
13230.0 1.1048e-06
13250.0 1.0689e-06
13270.0 1.0405e-06
13290.0 1.0184e-06
13310.0 1.0032e-06
13330.0 9.9627e-07
13350.0 9.9707e-07
13370.0 1.006e-06
13390.0 1.0236e-06
13410.0 1.0473e-06
13430.0 1.0782e-06
13450.0 1.1163e-06
13470.0 1.1586e-06
13490.0 1.2034e-06
13510.0 1.254e-06
13530.0 1.3052e-06
13550.0 1.3543e-06
13570.0 1.4027e-06
13590.0 1.4498e-06
13610.0 1.4917e-06
13630.0 1.5283e-06
13650.0 1.5618e-06
13670.0 1.5895e-06
13690.0 1.611e-06
13710.0 1.6276e-06
13730.0 1.6394e-06
13750.0 1.6453e-06
13770.0 1.6467e-06
13790.0 1.6437e-06
13810.0 1.6364e-06
13830.0 1.6257e-06
13850.0 1.6112e-06
13870.0 1.5929e-06
13890.0 1.5719e-06
13910.0 1.5483e-06
13930.0 1.521e-06
13950.0 1.4911e-06
13970.0 1.4606e-06
13990.0 1.4274e-06
14010.0 1.3921e-06
14030.0 1.3568e-06
14050.0 1.3213e-06
14070.0 1.2838e-06
14090.0 1.2479e-06
14110.0 1.2141e-06
14130.0 1.1814e-06
14150.0 1.1506e-06
14170.0 1.1243e-06
14190.0 1.1016e-06
14210.0 1.0823e-06
14230.0 1.068e-06
14250.0 1.0588e-06
14270.0 1.0543e-06
14290.0 1.0552e-06
14310.0 1.0611e-06
14330.0 1.0717e-06
14350.0 1.0872e-06
14370.0 1.1066e-06
14390.0 1.1286e-06
14410.0 1.1545e-06
14430.0 1.1829e-06
14450.0 1.212e-06
14470.0 1.2421e-06
14490.0 1.2742e-06
14510.0 1.3048e-06
14530.0 1.3339e-06
14550.0 1.363e-06
14570.0 1.391e-06
14590.0 1.4164e-06
14610.0 1.441e-06
14630.0 1.4653e-06
14650.0 1.488e-06
14670.0 1.5099e-06
14690.0 1.5327e-06
14710.0 1.5567e-06
14730.0 1.5807e-06
14750.0 1.6073e-06
14770.0 1.6374e-06
14790.0 1.6701e-06
14810.0 1.7055e-06
14830.0 1.7475e-06
14850.0 1.7931e-06
14870.0 1.8407e-06
14890.0 1.8921e-06
14910.0 1.9466e-06
14930.0 1.999e-06
14950.0 2.048e-06
14970.0 2.0944e-06
14990.0 2.1333e-06
15010.0 2.1631e-06
15030.0 2.1851e-06
15050.0 2.1997e-06
15070.0 2.2068e-06
15090.0 2.2093e-06
15110.0 2.2085e-06
15130.0 2.2058e-06
15150.0 2.202e-06
15170.0 2.1976e-06
15190.0 2.1929e-06
15210.0 2.1882e-06
15230.0 2.1836e-06
15250.0 2.1788e-06
15270.0 2.174e-06
15290.0 2.1695e-06
15310.0 2.1648e-06
15330.0 2.1602e-06
15350.0 2.1557e-06
15370.0 2.1512e-06
15390.0 2.1465e-06
15410.0 2.142e-06
15430.0 2.1376e-06
15450.0 2.1331e-06
15470.0 2.1285e-06
15490.0 2.1242e-06
15510.0 2.1198e-06
15530.0 2.1153e-06
15550.0 2.111e-06
15570.0 2.1067e-06
15590.0 2.1023e-06
15610.0 2.0979e-06
15630.0 2.0936e-06
15650.0 2.0894e-06
15670.0 2.085e-06
15690.0 2.0808e-06
15710.0 2.0767e-06
15730.0 2.0724e-06
15750.0 2.068e-06
15770.0 2.0639e-06
15790.0 2.0598e-06
15810.0 2.0554e-06
15830.0 2.0512e-06
15850.0 2.0471e-06
15870.0 2.0429e-06
15890.0 2.0387e-06
15910.0 2.0347e-06
15930.0 2.0306e-06
15950.0 2.0263e-06
15970.0 2.0222e-06
15990.0 2.0181e-06
16010.0 2.0139e-06
16030.0 2.0097e-06
16050.0 2.0057e-06
16070.0 2.0016e-06
16090.0 1.9974e-06
16110.0 1.9934e-06
16130.0 1.9894e-06
16150.0 1.9851e-06
16170.0 1.981e-06
16190.0 1.977e-06
16210.0 1.9729e-06
16230.0 1.9686e-06
16250.0 1.9646e-06
16270.0 1.9606e-06
16290.0 1.9564e-06
16310.0 1.9523e-06
16330.0 1.9483e-06
16350.0 1.9441e-06
16370.0 1.9398e-06
16390.0 1.9358e-06
16410.0 1.9317e-06
16430.0 1.9275e-06
16450.0 1.9234e-06
16470.0 1.9194e-06
16490.0 1.9152e-06
16510.0 1.911e-06
16530.0 1.9069e-06
16550.0 1.9028e-06
16570.0 1.8985e-06
16590.0 1.8942e-06
16610.0 1.8902e-06
16630.0 1.886e-06
16650.0 1.8817e-06
16670.0 1.8776e-06
16690.0 1.8735e-06
16710.0 1.8691e-06
16730.0 1.8649e-06
16750.0 1.8607e-06
16770.0 1.8564e-06
16790.0 1.8521e-06
16810.0 1.8479e-06
16830.0 1.8437e-06
16850.0 1.8393e-06
16870.0 1.8351e-06
16890.0 1.8309e-06
16910.0 1.8265e-06
16930.0 1.822e-06
16950.0 1.8178e-06
16970.0 1.8135e-06
16990.0 1.809e-06
17010.0 1.8047e-06
17030.0 1.8005e-06
17050.0 1.796e-06
17070.0 1.7915e-06
17090.0 1.7872e-06
17110.0 1.7828e-06
17130.0 1.7782e-06
17150.0 1.7738e-06
17170.0 1.7695e-06
17190.0 1.765e-06
17210.0 1.7604e-06
17230.0 1.7561e-06
17250.0 1.7516e-06
17270.0 1.7469e-06
17290.0 1.7425e-06
17310.0 1.738e-06
17330.0 1.7334e-06
17350.0 1.7287e-06
17370.0 1.7243e-06
17390.0 1.7197e-06
17410.0 1.7151e-06
17430.0 1.7105e-06
17450.0 1.706e-06
17470.0 1.7012e-06
17490.0 1.6965e-06
17510.0 1.692e-06
17530.0 1.6873e-06
17550.0 1.6826e-06
17570.0 1.678e-06
17590.0 1.6734e-06
17610.0 1.6686e-06
17630.0 1.6638e-06
17650.0 1.6592e-06
17670.0 1.6545e-06
17690.0 1.6495e-06
17710.0 1.6449e-06
17730.0 1.6402e-06
17750.0 1.6353e-06
17770.0 1.6305e-06
17790.0 1.6259e-06
17810.0 1.621e-06
17830.0 1.6161e-06
17850.0 1.6113e-06
17870.0 1.6065e-06
17890.0 1.6016e-06
17910.0 1.5967e-06
17930.0 1.592e-06
17950.0 1.5871e-06
17970.0 1.5821e-06
17990.0 1.5773e-06
18010.0 1.5725e-06
18030.0 1.5674e-06
18050.0 1.5625e-06
18070.0 1.5576e-06
18090.0 1.5527e-06
18110.0 1.5476e-06
18130.0 1.5428e-06
18150.0 1.5379e-06
18170.0 1.5328e-06
18190.0 1.5279e-06
18210.0 1.523e-06
18230.0 1.5179e-06
18250.0 1.5128e-06
18270.0 1.5079e-06
18290.0 1.5029e-06
18310.0 1.4978e-06
18330.0 1.4928e-06
18350.0 1.4879e-06
18370.0 1.4828e-06
18390.0 1.4777e-06
18410.0 1.4728e-06
18430.0 1.4677e-06
18450.0 1.4625e-06
18470.0 1.4575e-06
18490.0 1.4525e-06
18510.0 1.4474e-06
18530.0 1.4423e-06
18550.0 1.4374e-06
18570.0 1.4323e-06
18590.0 1.427e-06
18610.0 1.422e-06
18630.0 1.417e-06
18650.0 1.4118e-06
18670.0 1.4066e-06
18690.0 1.4016e-06
18710.0 1.3965e-06
18730.0 1.3913e-06
18750.0 1.3863e-06
18770.0 1.3813e-06
18790.0 1.376e-06
18810.0 1.3708e-06
18830.0 1.3658e-06
18850.0 1.3607e-06
18870.0 1.3554e-06
18890.0 1.3504e-06
18910.0 1.3453e-06
18930.0 1.3401e-06
18950.0 1.3349e-06
18970.0 1.3299e-06
18990.0 1.3248e-06
19010.0 1.3194e-06
19030.0 1.3144e-06
19050.0 1.3093e-06
19070.0 1.3041e-06
19090.0 1.2989e-06
19110.0 1.294e-06
19130.0 1.2887e-06
19150.0 1.2835e-06
19170.0 1.2784e-06
19190.0 1.2733e-06
19210.0 1.268e-06
19230.0 1.2629e-06
19250.0 1.2579e-06
19270.0 1.2527e-06
19290.0 1.2475e-06
19310.0 1.2424e-06
19330.0 1.2374e-06
19350.0 1.232e-06
19370.0 1.2269e-06
19390.0 1.2219e-06
19410.0 1.2167e-06
19430.0 1.2114e-06
19450.0 1.2064e-06
19470.0 1.2013e-06
19490.0 1.1961e-06
19510.0 1.191e-06
19530.0 1.186e-06
19550.0 1.1808e-06
19570.0 1.1755e-06
19590.0 1.1705e-06
19610.0 1.1654e-06
19630.0 1.1602e-06
19650.0 1.1551e-06
19670.0 1.1502e-06
19690.0 1.1449e-06
19710.0 1.1398e-06
19730.0 1.1348e-06
19750.0 1.1297e-06
19770.0 1.1244e-06
19790.0 1.1193e-06
19810.0 1.1143e-06
19830.0 1.1092e-06
19850.0 1.104e-06
19870.0 1.0988e-06
19890.0 1.0934e-06
19910.0 1.0873e-06
19930.0 1.0809e-06
19950.0 1.0735e-06
19970.0 1.0644e-06
19990.0 1.0535e-06
20010.0 9.3726e-07
20030.0 9.237e-07
20050.0 9.0782e-07
20070.0 8.9062e-07
20090.0 8.7212e-07
20110.0 8.5118e-07
20130.0 8.3e-07
20150.0 8.09e-07
20170.0 7.8722e-07
20190.0 7.6514e-07
20210.0 7.4428e-07
20230.0 7.2394e-07
20250.0 7.0355e-07
20270.0 6.8463e-07
20290.0 6.6735e-07
20310.0 6.5093e-07
20330.0 6.3559e-07
20350.0 6.2286e-07
20370.0 6.1155e-07
20390.0 6.0164e-07
20410.0 5.9364e-07
20430.0 5.8746e-07
20450.0 5.8257e-07
20470.0 5.793e-07
20490.0 5.7754e-07
20510.0 5.7703e-07
20530.0 5.7775e-07
20550.0 5.7953e-07
20570.0 5.8212e-07
20590.0 5.8564e-07
20610.0 5.8989e-07
20630.0 5.9458e-07
20650.0 5.9982e-07
20670.0 6.0581e-07
20690.0 6.1192e-07
20710.0 6.1824e-07
20730.0 6.2505e-07
20750.0 6.3216e-07
20770.0 6.3916e-07
20790.0 6.4651e-07
20810.0 6.5427e-07
20830.0 6.6201e-07
20850.0 6.6978e-07
20870.0 6.7809e-07
20890.0 6.8657e-07
20910.0 6.9475e-07
20930.0 7.0324e-07
20950.0 7.1203e-07
20970.0 7.206e-07
20990.0 7.2906e-07
21010.0 7.3796e-07
21030.0 7.4665e-07
21050.0 7.5495e-07
21070.0 7.6324e-07
21090.0 7.7155e-07
21110.0 7.7913e-07
21130.0 7.8625e-07
21150.0 7.9315e-07
21170.0 7.9939e-07
21190.0 8.0477e-07
21210.0 8.096e-07
21230.0 8.1362e-07
21250.0 8.1649e-07
21270.0 8.1831e-07
21290.0 8.1898e-07
21310.0 8.1833e-07
21330.0 8.164e-07
21350.0 8.1301e-07
21370.0 8.0803e-07
21390.0 8.0171e-07
21410.0 7.9396e-07
21430.0 7.8415e-07
21450.0 7.7313e-07
21470.0 7.6114e-07
21490.0 7.4757e-07
21510.0 7.3269e-07
21530.0 7.1757e-07
21550.0 7.0173e-07
21570.0 6.8483e-07
21590.0 6.6822e-07
21610.0 6.5217e-07
21630.0 6.3609e-07
21650.0 6.2039e-07
21670.0 6.0678e-07
21690.0 5.9423e-07
21710.0 5.8292e-07
21730.0 5.7367e-07
21750.0 5.6652e-07
21770.0 5.6108e-07
21790.0 5.5795e-07
21810.0 5.5708e-07
21830.0 5.5832e-07
21850.0 5.6181e-07
21870.0 5.6725e-07
21890.0 5.7428e-07
21910.0 5.833e-07
21930.0 5.9388e-07
21950.0 6.0534e-07
21970.0 6.1803e-07
21990.0 6.3228e-07
22010.0 6.4651e-07
22030.0 6.6097e-07
22050.0 6.7616e-07
22070.0 6.9143e-07
22090.0 7.0589e-07
22110.0 7.2047e-07
22130.0 7.3502e-07
22150.0 7.4861e-07
22170.0 7.6143e-07
22190.0 7.7413e-07
22210.0 7.8594e-07
22230.0 7.9634e-07
22250.0 8.0613e-07
22270.0 8.1515e-07
22290.0 8.2286e-07
22310.0 8.2947e-07
22330.0 8.353e-07
22350.0 8.398e-07
22370.0 8.4298e-07
22390.0 8.4496e-07
22410.0 8.4559e-07
22430.0 8.4478e-07
22450.0 8.4261e-07
22470.0 8.3885e-07
22490.0 8.3356e-07
22510.0 8.2698e-07
22530.0 8.1856e-07
22550.0 8.0831e-07
22570.0 7.9695e-07
22590.0 7.8413e-07
22610.0 7.6938e-07
