#lamb flux
1010.0 0.00088185
1030.0 0.0011523
1050.0 0.0014945
1070.0 0.0019201
1090.0 0.0024521
1110.0 0.0030688
1130.0 0.0037686
1150.0 0.0045772
1170.0 0.005491
1190.0 0.0064564
1210.0 0.0074873
1230.0 0.0085935
1250.0 0.00972
1270.0 0.010832
1290.0 0.011963
1310.0 0.013042
1330.0 0.014004
1350.0 0.014859
1370.0 0.015601
1390.0 0.016163
1410.0 0.01653
1430.0 0.016755
1450.0 0.016806
1470.0 0.01667
1490.0 0.016397
1510.0 0.016008
1530.0 0.015471
1550.0 0.014853
1570.0 0.014208
1590.0 0.013534
1610.0 0.012835
1630.0 0.012161
1650.0 0.011522
1670.0 0.010908
1690.0 0.010337
1710.0 0.0098286
1730.0 0.0093753
1750.0 0.0089624
1770.0 0.0086133
1790.0 0.0083235
1810.0 0.0080805
1830.0 0.0078862
1850.0 0.0077521
1870.0 0.0076597
1890.0 0.007606
1910.0 0.0075982
1930.0 0.0076345
1950.0 0.0077019
1970.0 0.0078045
1990.0 0.0079484
2010.0 0.008124
2030.0 0.0083269
2050.0 0.0085663
2070.0 0.0088404
2090.0 0.0091348
2110.0 0.0094569
2130.0 0.009811
2150.0 0.010188
2170.0 0.010581
2190.0 0.011004
2210.0 0.011449
2230.0 0.011906
2250.0 0.012379
2270.0 0.012877
2290.0 0.013383
2310.0 0.013892
2330.0 0.014416
2350.0 0.01495
2370.0 0.015478
2390.0 0.01601
2410.0 0.016551
2430.0 0.017081
2450.0 0.017604
2470.0 0.018134
2490.0 0.01868
2510.0 0.019242
2530.0 0.01987
2550.0 0.020636
2570.0 0.021593
2590.0 0.022815
2610.0 0.024535
2630.0 0.026843
2650.0 0.029724
2670.0 0.03336
2690.0 0.037876
2710.0 0.042935
2730.0 0.048334
2750.0 0.054236
2770.0 0.06008
2790.0 0.065388
2810.0 0.070193
2830.0 0.074467
2850.0 0.07767
2870.0 0.080136
2890.0 0.082116
2910.0 0.083625
2930.0 0.084709
2950.0 0.085651
2970.0 0.086478
2990.0 0.087113
3010.0 0.087639
3030.0 0.088164
3050.0 0.088624
3070.0 0.088911
3090.0 0.089205
3110.0 0.089511
3130.0 0.08983
3150.0 0.089281
3170.0 0.089539
3190.0 0.090457
3210.0 0.092449
3230.0 0.096377
3250.0 0.10412
3270.0 0.11458
3290.0 0.12607
3310.0 0.13924
3330.0 0.1427
3350.0 0.14363
3370.0 0.14452
3390.0 0.1453
3410.0 0.14549
3430.0 0.1452
3450.0 0.1447
3470.0 0.14425
3490.0 0.14288
3510.0 0.13793
3530.0 0.12608
3550.0 0.11789
3570.0 0.12817
3590.0 0.14768
3610.0 0.16312
3630.0 0.18458
3650.0 0.18089
3670.0 0.15715
3690.0 0.13515
3710.0 0.12669
3730.0 0.13025
3750.0 0.13304
3770.0 0.13689
3790.0 0.14118
3810.0 0.14555
3830.0 0.13462
3850.0 0.12032
3870.0 0.11309
3890.0 0.11904
3910.0 0.1228
3930.0 0.12338
3950.0 0.13057
3970.0 0.13905
3990.0 0.14077
4010.0 0.14268
4030.0 0.13796
4050.0 0.13442
4070.0 0.13225
4090.0 0.13339
4110.0 0.13516
4130.0 0.1321
4150.0 0.12726
4170.0 0.12576
4190.0 0.12423
4210.0 0.11582
4230.0 0.10698
4250.0 0.09681
4270.0 0.08799
4290.0 0.085112
4310.0 0.084211
4330.0 0.086944
4350.0 0.095749
4370.0 0.1002
4390.0 0.11052
4410.0 0.11891
4430.0 0.12195
4450.0 0.11325
4470.0 0.1039
4490.0 0.10139
4510.0 0.099794
4530.0 0.099991
4550.0 0.099998
4570.0 0.10177
4590.0 0.10576
4610.0 0.10861
4630.0 0.11125
4650.0 0.11256
4670.0 0.11203
4690.0 0.1058
4710.0 0.099821
4730.0 0.0951
4750.0 0.092696
4770.0 0.090114
4790.0 0.090685
4810.0 0.089107
4830.0 0.083294
4850.0 0.090202
4870.0 0.085025
4890.0 0.087391
4910.0 0.089093
4930.0 0.084567
4950.0 0.072625
4970.0 0.068284
4990.0 0.064389
5010.0 0.060331
5030.0 0.060469
5050.0 0.06507
5070.0 0.06638
5090.0 0.069621
5110.0 0.070294
5130.0 0.069615
5150.0 0.07074
5170.0 0.067894
5190.0 0.067405
5210.0 0.068704
5230.0 0.065786
5250.0 0.067129
5270.0 0.070376
5290.0 0.069167
5310.0 0.065358
5330.0 0.06343
5350.0 0.059529
5370.0 0.058421
5390.0 0.057994
5410.0 0.056114
5430.0 0.057271
5450.0 0.055126
5470.0 0.055311
5490.0 0.060923
5510.0 0.061726
5530.0 0.061955
5550.0 0.061589
5570.0 0.062581
5590.0 0.062803
5610.0 0.06218
5630.0 0.061553
5650.0 0.060839
5670.0 0.059357
5690.0 0.058286
5710.0 0.056706
5730.0 0.057867
5750.0 0.055778
5770.0 0.052819
5790.0 0.050936
5810.0 0.046978
5830.0 0.049176
5850.0 0.051387
5870.0 0.051402
5890.0 0.0518
5910.0 0.053924
5930.0 0.053665
5950.0 0.053895
5970.0 0.053814
5990.0 0.054343
6010.0 0.052963
6030.0 0.052173
6050.0 0.051729
6070.0 0.050749
6090.0 0.051324
6110.0 0.050784
6130.0 0.049145
6150.0 0.048002
6170.0 0.046978
6190.0 0.043486
6210.0 0.042753
6230.0 0.04325
6250.0 0.042833
6270.0 0.042482
6290.0 0.043494
6310.0 0.044792
6330.0 0.044603
6350.0 0.043576
6370.0 0.043627
6390.0 0.042113
6410.0 0.041842
6430.0 0.040613
6450.0 0.040466
6470.0 0.040359
6490.0 0.040335
6510.0 0.038972
6530.0 0.038604
6550.0 0.038039
6570.0 0.037129
6590.0 0.037892
6610.0 0.037912
6630.0 0.037079
6650.0 0.035728
6670.0 0.035149
6690.0 0.034551
6710.0 0.033612
6730.0 0.033152
6750.0 0.033403
6770.0 0.034397
6790.0 0.034827
6810.0 0.034342
6830.0 0.032352
6850.0 0.03054
6870.0 0.030061
6890.0 0.029893
6910.0 0.029784
6930.0 0.029486
6950.0 0.029716
6970.0 0.028846
6990.0 0.028461
7010.0 0.028622
7030.0 0.028967
7050.0 0.028431
7070.0 0.026876
7090.0 0.025841
7110.0 0.025842
7130.0 0.026146
7150.0 0.026258
7170.0 0.026138
7190.0 0.025606
7210.0 0.026651
7230.0 0.027569
7250.0 0.027531
7270.0 0.027627
7290.0 0.02811
7310.0 0.027508
7330.0 0.026808
7350.0 0.025822
7370.0 0.025919
7390.0 0.026431
7410.0 0.024965
7430.0 0.02514
7450.0 0.024933
7470.0 0.025752
7490.0 0.025561
7510.0 0.024442
7530.0 0.024886
7550.0 0.023046
7570.0 0.022223
7590.0 0.022218
7610.0 0.022911
7630.0 0.023094
7650.0 0.023905
7670.0 0.022295
7690.0 0.021668
7710.0 0.022751
7730.0 0.023981
7750.0 0.0237
7770.0 0.024547
7790.0 0.024495
7810.0 0.024617
7830.0 0.026057
7850.0 0.025153
7870.0 0.026421
7890.0 0.025686
7910.0 0.025313
7930.0 0.02436
7950.0 0.024192
7970.0 0.024709
7990.0 0.023863
8010.0 0.023011
8030.0 0.022775
8050.0 0.02232
8070.0 0.021888
8090.0 0.02022
8110.0 0.020298
8130.0 0.021593
8150.0 0.022375
8170.0 0.022533
8190.0 0.023179
8210.0 0.022752
8230.0 0.022263
8250.0 0.022206
8270.0 0.021782
8290.0 0.021336
8310.0 0.020306
8330.0 0.020336
8350.0 0.020597
8370.0 0.020727
8390.0 0.020707
8410.0 0.020417
8430.0 0.020162
8450.0 0.020156
8470.0 0.020849
8490.0 0.02109
8510.0 0.020313
8530.0 0.019566
8550.0 0.01952
8570.0 0.019072
8590.0 0.018681
8610.0 0.019032
8630.0 0.018983
8650.0 0.018795
8670.0 0.018662
8690.0 0.018462
8710.0 0.017634
8730.0 0.017696
8750.0 0.017256
8770.0 0.017312
8790.0 0.017055
8810.0 0.016638
8830.0 0.016712
8850.0 0.016684
8870.0 0.015903
8890.0 0.015371
8910.0 0.014805
8930.0 0.014033
8950.0 0.013734
8970.0 0.01315
8990.0 0.012956
9010.0 0.012554
9030.0 0.012421
9050.0 0.012343
9070.0 0.012266
9090.0 0.012189
9110.0 0.012111
9130.0 0.012032
9150.0 0.011955
9170.0 0.011877
9190.0 0.011798
9210.0 0.011719
9230.0 0.011639
9250.0 0.011559
9270.0 0.011479
9290.0 0.011398
9310.0 0.011319
9330.0 0.011241
9350.0 0.011162
9370.0 0.011084
9390.0 0.011006
9410.0 0.010927
9430.0 0.010849
9450.0 0.010771
9470.0 0.0107
9490.0 0.010626
9510.0 0.010544
9530.0 0.010463
9550.0 0.010384
9570.0 0.010307
9590.0 0.010229
9610.0 0.010154
9630.0 0.010079
9650.0 0.010005
9670.0 0.0099302
9690.0 0.0098567
9710.0 0.0097836
9730.0 0.0097107
9750.0 0.0096382
9770.0 0.009567
9790.0 0.0094957
9810.0 0.0094247
9830.0 0.0093544
9850.0 0.0092783
9870.0 0.0092023
9890.0 0.0091398
9910.0 0.009076
9930.0 0.0089993
9950.0 0.0089326
9970.0 0.0088722
9990.0 0.0088101
10010.0 0.0087486
10030.0 0.0086862
10050.0 0.0086232
10070.0 0.0085612
10090.0 0.0085001
10110.0 0.0084385
10130.0 0.0083778
10150.0 0.0083186
10170.0 0.0082599
10190.0 0.0082012
10210.0 0.008144
10230.0 0.0080878
10250.0 0.0080316
10270.0 0.0079763
10290.0 0.0079224
10310.0 0.0078685
10330.0 0.0078149
10350.0 0.0077629
10370.0 0.0077116
10390.0 0.0076603
10410.0 0.0076065
10430.0 0.0075532
10450.0 0.0075084
10470.0 0.0074618
10490.0 0.0074162
10510.0 0.007371
10530.0 0.0073247
10550.0 0.0072796
10570.0 0.007236
10590.0 0.0071923
10610.0 0.0071488
10630.0 0.007107
10650.0 0.0070659
10670.0 0.0070242
10690.0 0.0069838
10710.0 0.0069447
10730.0 0.0069055
10750.0 0.0068661
10770.0 0.0068291
10790.0 0.0067923
10810.0 0.0067553
10830.0 0.0067194
10850.0 0.006685
10870.0 0.0066497
10890.0 0.0066149
10910.0 0.0065818
10930.0 0.0065489
10950.0 0.0065155
10970.0 0.0064831
10990.0 0.0064518
11010.0 0.0072543
11030.0 0.0072148
11050.0 0.0071723
11070.0 0.0071261
11090.0 0.0070751
11110.0 0.007024
11130.0 0.0069721
11150.0 0.0069178
11170.0 0.0068628
11190.0 0.0068094
11210.0 0.0067548
11230.0 0.006699
11250.0 0.0066451
11270.0 0.0065928
11290.0 0.0065398
11310.0 0.0064883
11330.0 0.0064412
11350.0 0.0063953
11370.0 0.0063509
11390.0 0.0063101
11410.0 0.0062723
11430.0 0.0062348
11450.0 0.0062001
11470.0 0.006168
11490.0 0.0061367
11510.0 0.0061056
11530.0 0.0060764
11550.0 0.0060479
11570.0 0.0060183
11590.0 0.0059888
11610.0 0.00596
11630.0 0.0059295
11650.0 0.0058975
11670.0 0.0058663
11690.0 0.0058345
11710.0 0.0058007
11730.0 0.0057666
11750.0 0.0057334
11770.0 0.0056984
11790.0 0.0056625
11810.0 0.0056278
11830.0 0.0055932
11850.0 0.0055569
11870.0 0.0055224
11890.0 0.0054899
11910.0 0.0054574
11930.0 0.0054259
11950.0 0.0053974
11970.0 0.0053704
11990.0 0.0053442
12010.0 0.0053211
12030.0 0.0053007
12050.0 0.0052821
12070.0 0.0052654
12090.0 0.0052525
12110.0 0.0052414
12130.0 0.0052322
12150.0 0.0052253
12170.0 0.0052203
12190.0 0.0052163
12210.0 0.0052135
12230.0 0.0052116
12250.0 0.0052098
12270.0 0.0052076
12290.0 0.0052048
12310.0 0.0052011
12330.0 0.0051955
12350.0 0.005188
12370.0 0.0051787
12390.0 0.0051669
12410.0 0.0051514
12430.0 0.0051342
12450.0 0.0051146
12470.0 0.0050914
12490.0 0.0050654
12510.0 0.0050384
12530.0 0.0050081
12550.0 0.0049746
12570.0 0.0049403
12590.0 0.0049047
12610.0 0.0048658
12630.0 0.0048255
12650.0 0.0047867
12670.0 0.0047458
12690.0 0.0047036
12710.0 0.0046627
12730.0 0.0046225
12750.0 0.0045802
12770.0 0.0045395
12790.0 0.0045011
12810.0 0.0044629
12830.0 0.0044249
12850.0 0.0043903
12870.0 0.0043576
12890.0 0.0043254
12910.0 0.0042958
12930.0 0.0042693
12950.0 0.0042441
12970.0 0.0042211
12990.0 0.0042019
13010.0 0.0041853
13030.0 0.004171
13050.0 0.0041597
13070.0 0.0041513
13090.0 0.0041448
13110.0 0.0041403
13130.0 0.0041377
13150.0 0.0041363
13170.0 0.0041354
13190.0 0.0041349
13210.0 0.0041342
13230.0 0.0041326
13250.0 0.0041299
13270.0 0.0041259
13290.0 0.0041202
13310.0 0.0041123
13330.0 0.0041024
13350.0 0.0040907
13370.0 0.0040763
13390.0 0.0040592
13410.0 0.0040409
13430.0 0.00402
13450.0 0.0039963
13470.0 0.003971
13490.0 0.0039444
13510.0 0.0039143
13530.0 0.0038826
13550.0 0.0038506
13570.0 0.0038168
13590.0 0.0037809
13610.0 0.0037449
13630.0 0.0037091
13650.0 0.003671
13670.0 0.0036325
13690.0 0.0035948
13710.0 0.0035562
13730.0 0.0035154
13750.0 0.0034766
13770.0 0.0034381
13790.0 0.0033984
13810.0 0.003359
13830.0 0.0033215
13850.0 0.0032831
13870.0 0.0032445
13890.0 0.0032078
13910.0 0.003172
13930.0 0.0031356
13950.0 0.0031004
13970.0 0.0030677
13990.0 0.003035
14010.0 0.0030028
14030.0 0.0029728
14050.0 0.002944
14070.0 0.0029149
14090.0 0.0028877
14110.0 0.0028623
14130.0 0.0028375
14150.0 0.0028132
14170.0 0.0027908
14190.0 0.0027693
14210.0 0.0027479
14230.0 0.0027275
14250.0 0.0027082
14270.0 0.0026888
14290.0 0.0026696
14310.0 0.0026516
14330.0 0.0026339
14350.0 0.0026161
14370.0 0.0025989
14390.0 0.0025826
14410.0 0.002566
14430.0 0.0025498
14450.0 0.0025344
14470.0 0.0025192
14490.0 0.0025038
14510.0 0.002489
14530.0 0.0024747
14550.0 0.0024601
14570.0 0.0024456
14590.0 0.0024315
14610.0 0.0024172
14630.0 0.0024025
14650.0 0.002388
14670.0 0.0023737
14690.0 0.0023588
14710.0 0.0023437
14730.0 0.002329
14750.0 0.002314
14770.0 0.0022985
14790.0 0.0022831
14810.0 0.0022678
14830.0 0.0022514
14850.0 0.002235
14870.0 0.0022189
14890.0 0.0022025
14910.0 0.0021858
14930.0 0.0021697
14950.0 0.0021544
14970.0 0.0021392
14990.0 0.0021251
15010.0 0.0021124
15030.0 0.0021006
15050.0 0.0020894
15070.0 0.0020795
15090.0 0.0020702
15110.0 0.0020612
15130.0 0.0020524
15150.0 0.002044
15170.0 0.0020355
15190.0 0.0020269
15210.0 0.0020185
15230.0 0.0020102
15250.0 0.0020017
15270.0 0.0019932
15290.0 0.001985
15310.0 0.0019767
15330.0 0.0019683
15350.0 0.00196
15370.0 0.0019518
15390.0 0.0019433
15410.0 0.001935
15430.0 0.0019269
15450.0 0.0019186
15470.0 0.0019102
15490.0 0.0019021
15510.0 0.001894
15530.0 0.0018857
15550.0 0.0018775
15570.0 0.0018695
15590.0 0.0018612
15610.0 0.001853
15630.0 0.001845
15650.0 0.0018369
15670.0 0.0018287
15690.0 0.0018207
15710.0 0.0018128
15730.0 0.0018047
15750.0 0.0017966
15770.0 0.0017887
15790.0 0.0017807
15810.0 0.0017726
15830.0 0.0017647
15850.0 0.0017569
15870.0 0.0017489
15890.0 0.001741
15910.0 0.0017332
15930.0 0.0017254
15950.0 0.0017175
15970.0 0.0017097
15990.0 0.001702
16010.0 0.0016942
16030.0 0.0016863
16050.0 0.0016787
16070.0 0.0016711
16090.0 0.0016633
16110.0 0.0016557
16130.0 0.0016482
16150.0 0.0016404
16170.0 0.0016328
16190.0 0.0016253
16210.0 0.0016178
16230.0 0.0016102
16250.0 0.0016028
16270.0 0.0015954
16290.0 0.0015879
16310.0 0.0015805
16330.0 0.0015732
16350.0 0.0015659
16370.0 0.0015584
16390.0 0.0015512
16410.0 0.001544
16430.0 0.0015367
16450.0 0.0015294
16470.0 0.0015224
16490.0 0.0015152
16510.0 0.001508
16530.0 0.0015009
16550.0 0.0014939
16570.0 0.0014868
16590.0 0.0014797
16610.0 0.0014729
16630.0 0.001466
16650.0 0.001459
16670.0 0.0014522
16690.0 0.0014454
16710.0 0.0014385
16730.0 0.0014317
16750.0 0.001425
16770.0 0.0014183
16790.0 0.0014115
16810.0 0.001405
16830.0 0.0013984
16850.0 0.0013918
16870.0 0.0013852
16890.0 0.0013788
16910.0 0.0013723
16930.0 0.0013657
16950.0 0.0013594
16970.0 0.0013531
16990.0 0.0013467
17010.0 0.0013404
17030.0 0.0013342
17050.0 0.0013279
17070.0 0.0013217
17090.0 0.0013156
17110.0 0.0013095
17130.0 0.0013033
17150.0 0.0012973
17170.0 0.0012914
17190.0 0.0012853
17210.0 0.0012793
17230.0 0.0012736
17250.0 0.0012677
17270.0 0.0012617
17290.0 0.001256
17310.0 0.0012503
17330.0 0.0012445
17350.0 0.0012387
17370.0 0.0012332
17390.0 0.0012276
17410.0 0.0012219
17430.0 0.0012164
17450.0 0.001211
17470.0 0.0012054
17490.0 0.0011999
17510.0 0.0011946
17530.0 0.0011893
17550.0 0.0011838
17570.0 0.0011786
17590.0 0.0011734
17610.0 0.0011681
17630.0 0.0011629
17650.0 0.0011579
17670.0 0.0011527
17690.0 0.0011475
17710.0 0.0011425
17730.0 0.0011375
17750.0 0.0011325
17770.0 0.0011275
17790.0 0.0011227
17810.0 0.0011178
17830.0 0.0011129
17850.0 0.0011081
17870.0 0.0011034
17890.0 0.0010985
17910.0 0.0010937
17930.0 0.0010892
17950.0 0.0010845
17970.0 0.0010798
17990.0 0.0010753
18010.0 0.0010708
18030.0 0.0010661
18050.0 0.0010616
18070.0 0.0010572
18090.0 0.0010527
18110.0 0.0010482
18130.0 0.001044
18150.0 0.0010397
18170.0 0.0010352
18190.0 0.001031
18210.0 0.0010268
18230.0 0.0010225
18250.0 0.0010181
18270.0 0.001014
18290.0 0.0010099
18310.0 0.0010057
18330.0 0.0010016
18350.0 0.00099764
18370.0 0.00099351
18390.0 0.00098942
18410.0 0.00098549
18430.0 0.00098153
18450.0 0.00097742
18470.0 0.00097352
18490.0 0.00096971
18510.0 0.00096577
18530.0 0.00096187
18550.0 0.00095814
18570.0 0.00095432
18590.0 0.00095039
18610.0 0.00094665
18630.0 0.00094296
18650.0 0.00093915
18670.0 0.00093536
18690.0 0.0009318
18710.0 0.00092813
18730.0 0.0009244
18750.0 0.00092081
18770.0 0.00091729
18790.0 0.00091354
18810.0 0.00090991
18830.0 0.00090644
18850.0 0.00090289
18870.0 0.00089926
18890.0 0.00089582
18910.0 0.0008924
18930.0 0.00088883
18950.0 0.00088534
18970.0 0.00088198
18990.0 0.00087852
19010.0 0.00087492
19030.0 0.0008716
19050.0 0.00086827
19070.0 0.00086481
19090.0 0.00086143
19110.0 0.0008582
19130.0 0.00085478
19150.0 0.00085136
19170.0 0.00084809
19190.0 0.00084482
19210.0 0.0008414
19230.0 0.00083807
19250.0 0.00083491
19270.0 0.0008316
19290.0 0.00082827
19310.0 0.0008251
19330.0 0.0008219
19350.0 0.00081849
19370.0 0.00081525
19390.0 0.00081211
19410.0 0.00080883
19430.0 0.00080553
19450.0 0.00080242
19470.0 0.00079925
19490.0 0.00079595
19510.0 0.00079277
19530.0 0.00078967
19550.0 0.00078638
19570.0 0.00078308
19590.0 0.00078
19610.0 0.00077684
19630.0 0.00077357
19650.0 0.00077042
19670.0 0.00076735
19690.0 0.00076408
19710.0 0.00076085
19730.0 0.00075775
19750.0 0.00075458
19770.0 0.00075124
19790.0 0.0007481
19810.0 0.00074502
19830.0 0.00074178
19850.0 0.00073857
19870.0 0.00073554
19890.0 0.0007324
19910.0 0.00072922
19930.0 0.00072634
19950.0 0.00072366
19970.0 0.00072113
19990.0 0.00071896
20010.0 0.00071734
20030.0 0.00071603
20050.0 0.00071511
20070.0 0.00071463
20090.0 0.00071446
20110.0 0.00071447
20130.0 0.0007147
20150.0 0.00071508
20170.0 0.00071552
20190.0 0.000716
20210.0 0.00071655
20230.0 0.00071711
20250.0 0.00071764
20270.0 0.00071817
20290.0 0.00071869
20310.0 0.00071916
20330.0 0.00071955
20350.0 0.00071993
20370.0 0.00072025
20390.0 0.00072048
20410.0 0.00072067
20430.0 0.00072083
20450.0 0.00072088
20470.0 0.00072089
20490.0 0.00072091
20510.0 0.00072089
20530.0 0.00072083
20550.0 0.0007208
20570.0 0.00072083
20590.0 0.00072083
20610.0 0.00072085
20630.0 0.00072094
20650.0 0.00072104
20670.0 0.0007211
20690.0 0.00072122
20710.0 0.00072134
20730.0 0.00072141
20750.0 0.00072141
20770.0 0.0007214
20790.0 0.00072128
20810.0 0.00072101
20830.0 0.00072065
20850.0 0.00072018
20870.0 0.00071948
20890.0 0.00071862
20910.0 0.0007177
20930.0 0.00071659
20950.0 0.00071527
20970.0 0.0007139
20990.0 0.00071246
21010.0 0.00071078
21030.0 0.00070907
21050.0 0.00070737
21070.0 0.00070558
21090.0 0.00070367
21110.0 0.00070187
21130.0 0.00070008
21150.0 0.00069819
21170.0 0.00069632
21190.0 0.00069453
21210.0 0.00069262
21230.0 0.00069063
21250.0 0.0006887
21270.0 0.00068673
21290.0 0.0006846
21310.0 0.0006824
21330.0 0.00068024
21350.0 0.00067788
21370.0 0.00067536
21390.0 0.00067282
21410.0 0.00067018
21430.0 0.00066721
21450.0 0.00066424
21470.0 0.00066124
21490.0 0.00065803
21510.0 0.00065465
21530.0 0.00065132
21550.0 0.00064787
21570.0 0.00064417
21590.0 0.00064049
21610.0 0.00063682
21630.0 0.00063297
21650.0 0.00062893
21670.0 0.00062512
21690.0 0.00062119
21710.0 0.00061709
21730.0 0.00061304
21750.0 0.00060907
21770.0 0.00060482
21790.0 0.00060055
21810.0 0.00059637
21830.0 0.00059211
21850.0 0.00058766
21870.0 0.00058327
21890.0 0.00057897
21910.0 0.00057446
21930.0 0.00056992
21950.0 0.0005655
21970.0 0.000561
21990.0 0.00055631
22010.0 0.00055184
22030.0 0.00054744
22050.0 0.00054296
22070.0 0.00053854
22090.0 0.00053436
22110.0 0.00053018
22130.0 0.000526
22150.0 0.00052203
22170.0 0.0005182
22190.0 0.00051435
22210.0 0.00051063
22230.0 0.00050713
22250.0 0.00050366
22270.0 0.00050023
22290.0 0.00049694
22310.0 0.00049372
22330.0 0.00049045
22350.0 0.00048724
22370.0 0.0004841
22390.0 0.00048092
22410.0 0.00047767
22430.0 0.00047449
22450.0 0.00047127
22470.0 0.00046796
22490.0 0.00046462
22510.0 0.00046129
22530.0 0.00045784
22550.0 0.00045432
22570.0 0.00045081
22590.0 0.00044726
22610.0 0.00044362
22630.0 0.00043996
22650.0 0.00043634
22670.0 0.00043263
22690.0 0.0004289
22710.0 0.0004252
22730.0 0.0004215
22750.0 0.00041773
22770.0 0.00041401
22790.0 0.00041032
22810.0 0.00040662
22830.0 0.00040291
22850.0 0.00039925
22870.0 0.00039558
22890.0 0.00039189
22910.0 0.0003882
22930.0 0.00038452
22950.0 0.00038079
22970.0 0.00037703
22990.0 0.00037325
23010.0 0.00036942
23030.0 0.00036553
23050.0 0.00036158
23070.0 0.00035757
23090.0 0.00035349
23110.0 0.00034935
23130.0 0.00034515
23150.0 0.00034088
23170.0 0.00033656
23190.0 0.00033219
23210.0 0.00032776
23230.0 0.0003233
23250.0 0.00031879
23270.0 0.00031422
23290.0 0.00030962
23310.0 0.00030498
23330.0 0.00030027
23350.0 0.00029547
23370.0 0.0002906
23390.0 0.00028564
23410.0 0.00028053
23430.0 0.00027531
23450.0 0.00026995
23470.0 0.0002644
23490.0 0.00025865
23510.0 0.00025274
23530.0 0.00024661
23550.0 0.00024023
23570.0 0.00023363
23590.0 0.0002268
23610.0 0.0002197
23630.0 0.00021236
23650.0 0.00020477
23670.0 0.00019691
23690.0 0.0001888
23710.0 0.00018042
23730.0 0.00017177
23750.0 0.00016286
23770.0 0.00015368
23790.0 0.00014418
23810.0 0.00013437
23830.0 0.00012425
23850.0 0.00011371
23870.0 0.00010272
23890.0 9.1328e-05
23910.0 7.9448e-05
23930.0 7.2249e-05
23950.0 6.7581e-05
23970.0 6.279e-05
23990.0 5.7807e-05
24010.0 5.2671e-05
24030.0 4.7449e-05
24050.0 4.2124e-05
