#lamb flux
1010.0 0.0002493
1030.0 0.00033729
1050.0 0.00045618
1070.0 0.00061292
1090.0 0.00081851
1110.0 0.0010698
1130.0 0.0013677
1150.0 0.0017211
1170.0 0.0021307
1190.0 0.0025754
1210.0 0.0030626
1230.0 0.0035902
1250.0 0.0041325
1270.0 0.0046702
1290.0 0.0052131
1310.0 0.0057264
1330.0 0.006177
1350.0 0.0065654
1370.0 0.0068845
1390.0 0.0071025
1410.0 0.0072115
1430.0 0.0072334
1450.0 0.0071544
1470.0 0.0069715
1490.0 0.0067081
1510.0 0.0063861
1530.0 0.0059918
1550.0 0.0055518
1570.0 0.0050875
1590.0 0.0046066
1610.0 0.0041158
1630.0 0.0036362
1650.0 0.0031736
1670.0 0.0027287
1690.0 0.0023093
1710.0 0.0019213
1730.0 0.0015638
1750.0 0.0012356
1770.0 0.00094049
1790.0 0.00067658
1810.0 0.00044204
1830.0 0.00023633
1850.0 0.00011302
1870.0 5.9276e-05
1890.0 1.4445e-05
1910.0 1e-99
1930.0 1e-99
1950.0 1e-99
1970.0 1e-99
1990.0 1e-99
2010.0 1e-99
2030.0 1e-99
2050.0 1e-99
2070.0 1e-99
2090.0 1e-99
2110.0 1e-99
2130.0 3.3662e-05
2150.0 7.2579e-05
2170.0 0.0001158
2190.0 0.00016306
2210.0 0.00025395
2230.0 0.00039854
2250.0 0.00055093
2270.0 0.00071054
2290.0 0.00087561
2310.0 0.0010445
2330.0 0.001217
2350.0 0.0013917
2370.0 0.0015662
2390.0 0.00174
2410.0 0.0019126
2430.0 0.0020803
2450.0 0.0022415
2470.0 0.0023954
2490.0 0.0025399
2510.0 0.0026725
2530.0 0.0027968
2550.0 0.002919
2570.0 0.0030488
2590.0 0.0032005
2610.0 0.0034071
2630.0 0.0036966
2650.0 0.0040828
2670.0 0.0046039
2690.0 0.0052977
2710.0 0.0061224
2730.0 0.0070412
2750.0 0.0080825
2770.0 0.0091303
2790.0 0.01007
2810.0 0.010894
2830.0 0.011595
2850.0 0.012041
2870.0 0.012304
2890.0 0.012445
2910.0 0.01246
2930.0 0.012355
2950.0 0.012202
2970.0 0.012005
2990.0 0.011742
3010.0 0.011441
3030.0 0.011134
3050.0 0.01081
3070.0 0.010446
3090.0 0.010093
3110.0 0.0097526
3130.0 0.0094177
3150.0 0.0084393
3170.0 0.0076344
3190.0 0.006775
3210.0 0.0059684
3230.0 0.0055019
3250.0 0.0065397
3270.0 0.009754
3290.0 0.011184
3310.0 0.0067417
3330.0 0.0061877
3350.0 0.0065244
3370.0 0.0069866
3390.0 0.0074042
3410.0 0.0075203
3430.0 0.0073972
3450.0 0.0072067
3470.0 0.0071391
3490.0 0.0066403
3510.0 0.0043028
3530.0 0.0010523
3550.0 0.00057462
3570.0 0.0054771
3590.0 0.013766
3610.0 0.017964
3630.0 0.0291
3650.0 0.031229
3670.0 0.0247
3690.0 0.016481
3710.0 0.011565
3730.0 0.011945
3750.0 0.012748
3770.0 0.013196
3790.0 0.01356
3810.0 0.017257
3830.0 0.015528
3850.0 0.011275
3870.0 0.0088469
3890.0 0.012227
3910.0 0.014752
3930.0 0.014886
3950.0 0.016523
3970.0 0.018362
3990.0 0.01741
4010.0 0.019167
4030.0 0.01823
4050.0 0.016918
4070.0 0.015852
4090.0 0.016175
4110.0 0.017231
4130.0 0.016983
4150.0 0.015848
4170.0 0.015159
4190.0 0.015734
4210.0 0.013916
4230.0 0.012417
4250.0 0.010297
4270.0 0.0078933
4290.0 0.0079666
4310.0 0.0076493
4330.0 0.0075786
4350.0 0.010412
4370.0 0.01053
4390.0 0.012666
4410.0 0.014031
4430.0 0.015396
4450.0 0.013322
4470.0 0.010667
4490.0 0.01005
4510.0 0.0091337
4530.0 0.0085086
4550.0 0.0077876
4570.0 0.0075877
4590.0 0.0077357
4610.0 0.0063894
4630.0 0.0055587
4650.0 0.0044917
4670.0 0.0044096
4690.0 0.0033536
4710.0 0.0027233
4730.0 0.0016648
4750.0 0.0011293
4770.0 0.00028158
4790.0 0.00033264
4810.0 0.00027898
4830.0 1e-99
4850.0 1e-99
4870.0 1e-99
4890.0 1e-99
4910.0 0.00016771
4930.0 0.00035041
4950.0 1e-99
4970.0 1e-99
4990.0 1e-99
5010.0 1e-99
5030.0 1e-99
5050.0 1e-99
5070.0 1e-99
5090.0 1e-99
5110.0 1e-99
5130.0 1e-99
5150.0 1e-99
5170.0 1e-99
5190.0 1e-99
5210.0 1e-99
5230.0 1e-99
5250.0 1e-99
5270.0 0.0008341
5290.0 0.00072292
5310.0 0.00012938
5330.0 0.00021843
5350.0 1e-99
5370.0 1e-99
5390.0 0.00014478
5410.0 5.3376e-05
5430.0 0.00048896
5450.0 1e-99
5470.0 1e-99
5490.0 0.0019581
5510.0 0.0019053
5530.0 0.0020026
5550.0 0.0016576
5570.0 0.0024164
5590.0 0.0034188
5610.0 0.0035009
5630.0 0.0031249
5650.0 0.003259
5670.0 0.003242
5690.0 0.0036019
5710.0 0.0028952
5730.0 0.0033208
5750.0 0.0033643
5770.0 0.0030826
5790.0 0.0040333
5810.0 0.004641
5830.0 0.004228
5850.0 0.003031
5870.0 0.0024029
5890.0 0.0023752
5910.0 0.0032225
5930.0 0.002958
5950.0 0.0033337
5970.0 0.0034187
5990.0 0.0038715
6010.0 0.0036481
6030.0 0.0038488
6050.0 0.0037614
6070.0 0.0030968
6090.0 0.0035586
6110.0 0.0038076
6130.0 0.0034439
6150.0 0.0035176
6170.0 0.0036999
6190.0 0.0025182
6210.0 0.0026661
6230.0 0.0030387
6250.0 0.0029992
6270.0 0.0029762
6290.0 0.0034493
6310.0 0.0040537
6330.0 0.0041504
6350.0 0.0039903
6370.0 0.0041943
6390.0 0.0035319
6410.0 0.0037575
6430.0 0.0034223
6450.0 0.0035872
6470.0 0.0037653
6490.0 0.003881
6510.0 0.0032779
6530.0 0.0033976
6550.0 0.0033488
6570.0 0.002993
6590.0 0.0033575
6610.0 0.003395
6630.0 0.0034208
6650.0 0.0030693
6670.0 0.0028627
6690.0 0.0027269
6710.0 0.0025388
6730.0 0.0023958
6750.0 0.0024078
6770.0 0.0020464
6790.0 0.00053382
6810.0 0.0010039
6830.0 0.0019917
6850.0 0.0015982
6870.0 0.0015802
6890.0 0.0015171
6910.0 0.0014797
6930.0 0.0013284
6950.0 0.0015659
6970.0 0.0014943
6990.0 0.0014702
7010.0 0.0014261
7030.0 0.0016448
7050.0 0.0016288
7070.0 0.0009768
7090.0 0.00039743
7110.0 0.00032006
7130.0 0.00042684
7150.0 0.00053863
7170.0 0.00051051
7190.0 0.00027841
7210.0 0.00069138
7230.0 0.0011827
7250.0 0.0011171
7270.0 0.0011787
7290.0 0.001402
7310.0 0.00097109
7330.0 0.00085043
7350.0 0.00073333
7370.0 0.0011094
7390.0 0.0015849
7410.0 0.00084078
7430.0 0.00094596
7450.0 0.00089365
7470.0 0.0013348
7490.0 0.0014364
7510.0 0.0010604
7530.0 0.0013232
7550.0 0.00017563
7570.0 7.7797e-05
7590.0 0.00054489
7610.0 0.00117
7630.0 0.00076492
7650.0 0.0011249
7670.0 0.00025308
7690.0 1e-99
7710.0 8.4104e-05
7730.0 0.0005418
7750.0 7.923e-05
7770.0 0.00074595
7790.0 0.0011038
7810.0 0.0005589
7830.0 0.0010066
7850.0 0.00026679
7870.0 0.0008586
7890.0 0.00045863
7910.0 0.00047847
7930.0 0.00011416
7950.0 1e-99
7970.0 6.2056e-05
7990.0 0.00036943
8010.0 0.0035407
8030.0 0.0034091
8050.0 0.0033505
8070.0 0.0032702
8090.0 0.0030905
8110.0 0.0029808
8130.0 0.0032623
8150.0 0.0034967
8170.0 0.0036373
8190.0 0.0038474
8210.0 0.0036453
8230.0 0.0036399
8250.0 0.0035952
8270.0 0.0036704
8290.0 0.0036581
8310.0 0.003455
8330.0 0.0032765
8350.0 0.0034006
8370.0 0.0034841
8390.0 0.0033786
8410.0 0.003341
8430.0 0.0032128
8450.0 0.0030805
8470.0 0.0033545
8490.0 0.0033678
8510.0 0.0031241
8530.0 0.0031781
8550.0 0.0031443
8570.0 0.0028613
8590.0 0.0029256
8610.0 0.0029069
8630.0 0.0030758
8650.0 0.0030968
8670.0 0.0031468
8690.0 0.0030704
8710.0 0.0030352
8730.0 0.0028805
8750.0 0.0027956
8770.0 0.0027622
8790.0 0.0029683
8810.0 0.0027304
8830.0 0.0026612
8850.0 0.0028533
8870.0 0.0026972
8890.0 0.0024501
8910.0 0.0024283
8930.0 0.0025353
8950.0 0.002284
8970.0 0.0021799
8990.0 0.0021266
9010.0 0.0019845
9030.0 0.0019525
9050.0 0.0019441
9070.0 0.001937
9090.0 0.0019298
9110.0 0.0019225
9130.0 0.0019152
9150.0 0.0019077
9170.0 0.0019002
9190.0 0.0018925
9210.0 0.0018849
9230.0 0.0018771
9250.0 0.0018693
9270.0 0.0018615
9290.0 0.0018536
9310.0 0.0018473
9330.0 0.0018435
9350.0 0.0018396
9370.0 0.0018356
9390.0 0.0018315
9410.0 0.0018273
9430.0 0.0018231
9450.0 0.0018187
9470.0 0.0018152
9490.0 0.0018112
9510.0 0.0018061
9530.0 0.0018009
9550.0 0.001796
9570.0 0.0017911
9590.0 0.0017861
9610.0 0.0017838
9630.0 0.0017818
9650.0 0.0017796
9670.0 0.0017771
9690.0 0.0017747
9710.0 0.0017722
9730.0 0.0017695
9750.0 0.0017666
9770.0 0.001764
9790.0 0.001761
9810.0 0.0017578
9830.0 0.0017547
9850.0 0.0017504
9870.0 0.0017448
9890.0 0.0017427
9910.0 0.00174
9930.0 0.0017362
9950.0 0.0017327
9970.0 0.0017294
9990.0 0.0017258
10010.0 0.001722
10030.0 0.0017181
10050.0 0.0017141
10070.0 0.00171
10090.0 0.0017058
10110.0 0.0017016
10130.0 0.0016973
10150.0 0.0016929
10170.0 0.0016885
10190.0 0.0016841
10210.0 0.0016796
10230.0 0.001675
10250.0 0.0016705
10270.0 0.0016659
10290.0 0.0016612
10310.0 0.0016565
10330.0 0.0016518
10350.0 0.001647
10370.0 0.0016422
10390.0 0.0016373
10410.0 0.0016313
10430.0 0.0016248
10450.0 0.0016213
10470.0 0.001617
10490.0 0.0016126
10510.0 0.0016079
10530.0 0.0016031
10550.0 0.0015982
10570.0 0.0015933
10590.0 0.0015884
10610.0 0.0015834
10630.0 0.0015785
10650.0 0.0015736
10670.0 0.0015686
10690.0 0.0015636
10710.0 0.0015587
10730.0 0.0015538
10750.0 0.0015487
10770.0 0.0015439
10790.0 0.001539
10810.0 0.0015341
10830.0 0.0015292
10850.0 0.0015244
10870.0 0.0015194
10890.0 0.0015143
10910.0 0.0015093
10930.0 0.001504
10950.0 0.0014983
10970.0 0.0014922
10990.0 0.0014857
11010.0 0.0012913
11030.0 0.0012837
11050.0 0.0012737
11070.0 0.0012619
11090.0 0.0012484
11110.0 0.0012339
11130.0 0.0012188
11150.0 0.001203
11170.0 0.0011869
11190.0 0.0011709
11210.0 0.0011546
11230.0 0.0011381
11250.0 0.0011218
11270.0 0.0011057
11290.0 0.0010894
11310.0 0.0010733
11330.0 0.0010579
11350.0 0.0010427
11370.0 0.0010277
11390.0 0.0010134
11410.0 0.00099948
11430.0 0.00098571
11450.0 0.00097244
11470.0 0.00095964
11490.0 0.00094705
11510.0 0.0009346
11530.0 0.00092252
11550.0 0.00091062
11570.0 0.00089869
11590.0 0.00088686
11610.0 0.0008752
11630.0 0.00086341
11650.0 0.00085151
11670.0 0.00083974
11690.0 0.00082792
11710.0 0.00081589
11730.0 0.00080383
11750.0 0.00079187
11770.0 0.00077969
11790.0 0.00076738
11810.0 0.00075521
11830.0 0.00074305
11850.0 0.00073068
11870.0 0.00071856
11890.0 0.00070675
11910.0 0.00069499
11930.0 0.00068345
11950.0 0.0006724
11970.0 0.00066168
11990.0 0.00065122
12010.0 0.00064132
12030.0 0.00063198
12050.0 0.00062308
12070.0 0.00061469
12090.0 0.00060697
12110.0 0.00059975
12130.0 0.00059305
12150.0 0.00058689
12170.0 0.00058119
12190.0 0.00057597
12210.0 0.00057116
12230.0 0.00056665
12250.0 0.00056243
12270.0 0.00055847
12290.0 0.00055462
12310.0 0.0005508
12330.0 0.00054708
12350.0 0.00054333
12370.0 0.00053944
12390.0 0.00053544
12410.0 0.00053131
12430.0 0.00052692
12450.0 0.0005223
12470.0 0.00051742
12490.0 0.00051224
12510.0 0.00050681
12530.0 0.00050107
12550.0 0.00049496
12570.0 0.00048861
12590.0 0.00048201
12610.0 0.000475
12630.0 0.0004677
12650.0 0.00046036
12670.0 0.00045272
12690.0 0.00044479
12710.0 0.00043686
12730.0 0.00042887
12750.0 0.00042053
12770.0 0.00041224
12790.0 0.00040411
12810.0 0.00039588
12830.0 0.00038757
12850.0 0.00037961
12870.0 0.00037182
12890.0 0.00036402
12910.0 0.00035651
12930.0 0.00034943
12950.0 0.00034248
12970.0 0.00033581
12990.0 0.00032977
13010.0 0.00032415
13030.0 0.00031892
13050.0 0.00031425
13070.0 0.00031021
13090.0 0.0003066
13110.0 0.00030353
13130.0 0.00030102
13150.0 0.000299
13170.0 0.00029745
13190.0 0.00029635
13210.0 0.00029565
13230.0 0.00029533
13250.0 0.00029536
13270.0 0.00029564
13290.0 0.00029618
13310.0 0.00029699
13330.0 0.00029791
13350.0 0.00029892
13370.0 0.00030003
13390.0 0.00030116
13410.0 0.00030214
13430.0 0.00030304
13450.0 0.00030382
13470.0 0.0003044
13490.0 0.00030477
13510.0 0.00030497
13530.0 0.00030495
13550.0 0.00030476
13570.0 0.00030441
13590.0 0.00030391
13610.0 0.00030331
13630.0 0.00030264
13650.0 0.00030184
13670.0 0.00030094
13690.0 0.00029999
13710.0 0.00029891
13730.0 0.00029759
13750.0 0.00029622
13770.0 0.00029471
13790.0 0.00029293
13810.0 0.00029097
13830.0 0.00028894
13850.0 0.00028665
13870.0 0.00028412
13890.0 0.00028158
13910.0 0.00027897
13930.0 0.00027615
13950.0 0.00027332
13970.0 0.00027071
13990.0 0.00026804
14010.0 0.00026541
14030.0 0.00026302
14050.0 0.00026081
14070.0 0.00025857
14090.0 0.0002566
14110.0 0.0002549
14130.0 0.0002533
14150.0 0.00025181
14170.0 0.0002506
14190.0 0.00024954
14210.0 0.00024851
14230.0 0.00024764
14250.0 0.00024693
14270.0 0.00024623
14290.0 0.00024558
14310.0 0.00024512
14330.0 0.00024473
14350.0 0.00024437
14370.0 0.00024414
14390.0 0.00024407
14410.0 0.00024402
14430.0 0.00024408
14450.0 0.0002443
14470.0 0.0002446
14490.0 0.00024494
14510.0 0.00024541
14530.0 0.00024597
14550.0 0.00024656
14570.0 0.00024717
14590.0 0.00024786
14610.0 0.00024854
14630.0 0.00024918
14650.0 0.00024986
14670.0 0.00025054
14690.0 0.00025116
14710.0 0.00025174
14730.0 0.00025237
14750.0 0.00025293
14770.0 0.00025342
14790.0 0.00025389
14810.0 0.00025434
14830.0 0.00025464
14850.0 0.00025489
14870.0 0.00025514
14890.0 0.0002553
14910.0 0.00025538
14930.0 0.00025551
14950.0 0.0002557
14970.0 0.00025588
14990.0 0.00025617
15010.0 0.00025663
15030.0 0.00025719
15050.0 0.00025783
15070.0 0.00025862
15090.0 0.00025948
15110.0 0.00026036
15130.0 0.00026125
15150.0 0.00026218
15170.0 0.00026306
15190.0 0.00026393
15210.0 0.00026479
15230.0 0.00026564
15250.0 0.00026644
15270.0 0.00026722
15290.0 0.00026801
15310.0 0.00026875
15330.0 0.00026946
15350.0 0.00027017
15370.0 0.00027085
15390.0 0.00027147
15410.0 0.00027208
15430.0 0.00027268
15450.0 0.00027323
15470.0 0.00027374
15490.0 0.00027426
15510.0 0.00027475
15530.0 0.00027518
15550.0 0.00027559
15570.0 0.00027599
15590.0 0.00027634
15610.0 0.00027664
15630.0 0.00027694
15650.0 0.00027721
15670.0 0.00027742
15690.0 0.00027762
15710.0 0.00027781
15730.0 0.00027794
15750.0 0.00027803
15770.0 0.00027811
15790.0 0.00027816
15810.0 0.00027814
15830.0 0.00027812
15850.0 0.00027808
15870.0 0.00027799
15890.0 0.00027786
15910.0 0.00027773
15930.0 0.00027755
15950.0 0.00027731
15970.0 0.00027707
15990.0 0.00027681
16010.0 0.00027649
16030.0 0.00027614
16050.0 0.00027579
16070.0 0.0002754
16090.0 0.00027496
16110.0 0.00027451
16130.0 0.00027404
16150.0 0.0002735
16170.0 0.00027294
16190.0 0.00027239
16210.0 0.00027179
16230.0 0.00027114
16250.0 0.00027049
16270.0 0.00026983
16290.0 0.0002691
16310.0 0.00026836
16330.0 0.00026762
16350.0 0.00026683
16370.0 0.00026598
16390.0 0.00026516
16410.0 0.00026431
16430.0 0.00026341
16450.0 0.00026249
16470.0 0.00026159
16490.0 0.00026063
16510.0 0.00025963
16530.0 0.00025864
16550.0 0.00025763
16570.0 0.00025657
16590.0 0.0002555
16610.0 0.00025445
16630.0 0.00025335
16650.0 0.00025221
16670.0 0.00025109
16690.0 0.00024995
16710.0 0.00024875
16730.0 0.00024756
16750.0 0.00024638
16770.0 0.00024515
16790.0 0.0002439
16810.0 0.00024266
16830.0 0.00024141
16850.0 0.00024012
16870.0 0.00023883
16890.0 0.00023754
16910.0 0.00023621
16930.0 0.00023486
16950.0 0.00023353
16970.0 0.00023219
16990.0 0.00023081
17010.0 0.00022944
17030.0 0.00022808
17050.0 0.00022668
17070.0 0.00022527
17090.0 0.00022387
17110.0 0.00022246
17130.0 0.00022101
17150.0 0.00021958
17170.0 0.00021817
17190.0 0.00021671
17210.0 0.00021526
17230.0 0.00021382
17250.0 0.00021236
17270.0 0.00021088
17290.0 0.00020941
17310.0 0.00020796
17330.0 0.00020647
17350.0 0.00020497
17370.0 0.00020352
17390.0 0.00020203
17410.0 0.00020054
17430.0 0.00019906
17450.0 0.00019759
17470.0 0.00019607
17490.0 0.00019458
17510.0 0.0001931
17530.0 0.00019161
17550.0 0.00019011
17570.0 0.00018863
17590.0 0.00018716
17610.0 0.00018566
17630.0 0.00018417
17650.0 0.0001827
17670.0 0.00018122
17690.0 0.00017971
17710.0 0.00017825
17730.0 0.00017679
17750.0 0.00017531
17770.0 0.00017385
17790.0 0.00017241
17810.0 0.00017094
17830.0 0.00016947
17850.0 0.00016803
17870.0 0.0001666
17890.0 0.00016514
17910.0 0.0001637
17930.0 0.00016229
17950.0 0.00016087
17970.0 0.00015944
17990.0 0.00015804
18010.0 0.00015665
18030.0 0.00015523
18050.0 0.00015383
18070.0 0.00015246
18090.0 0.00015108
18110.0 0.00014969
18130.0 0.00014834
18150.0 0.00014699
18170.0 0.00014563
18190.0 0.00014429
18210.0 0.00014297
18230.0 0.00014163
18250.0 0.0001403
18270.0 0.000139
18290.0 0.0001377
18310.0 0.00013639
18330.0 0.00013511
18350.0 0.00013385
18370.0 0.00013257
18390.0 0.0001313
18410.0 0.00013006
18430.0 0.00012882
18450.0 0.00012757
18470.0 0.00012635
18490.0 0.00012515
18510.0 0.00012393
18530.0 0.00012273
18550.0 0.00012156
18570.0 0.00012038
18590.0 0.00011919
18610.0 0.00011804
18630.0 0.00011689
18650.0 0.00011574
18670.0 0.0001146
18690.0 0.0001135
18710.0 0.00011238
18730.0 0.00011127
18750.0 0.00011018
18770.0 0.00010911
18790.0 0.00010802
18810.0 0.00010695
18830.0 0.00010591
18850.0 0.00010486
18870.0 0.00010381
18890.0 0.0001028
18910.0 0.00010179
18930.0 0.00010077
18950.0 9.9772e-05
18970.0 9.8796e-05
18990.0 9.7815e-05
19010.0 9.6826e-05
19030.0 9.5878e-05
19050.0 9.4936e-05
19070.0 9.3987e-05
19090.0 9.3055e-05
19110.0 9.2149e-05
19130.0 9.1229e-05
19150.0 9.0316e-05
19170.0 8.9429e-05
19190.0 8.8549e-05
19210.0 8.7661e-05
19230.0 8.679e-05
19250.0 8.5947e-05
19270.0 8.5095e-05
19290.0 8.4248e-05
19310.0 8.3426e-05
19330.0 8.261e-05
19350.0 8.1778e-05
19370.0 8.0973e-05
19390.0 8.0185e-05
19410.0 7.9392e-05
19430.0 7.8602e-05
19450.0 7.7841e-05
19470.0 7.7081e-05
19490.0 7.6315e-05
19510.0 7.5569e-05
19530.0 7.4838e-05
19550.0 7.4096e-05
19570.0 7.3359e-05
19590.0 7.2652e-05
19610.0 7.1944e-05
19630.0 7.1232e-05
19650.0 7.0539e-05
19670.0 6.9862e-05
19690.0 6.917e-05
19710.0 6.8489e-05
19730.0 6.7829e-05
19750.0 6.7167e-05
19770.0 6.6496e-05
19790.0 6.5851e-05
19810.0 6.5217e-05
19830.0 6.4574e-05
19850.0 6.394e-05
19870.0 6.3327e-05
19890.0 6.2709e-05
19910.0 6.209e-05
19930.0 6.15e-05
19950.0 6.0928e-05
19970.0 6.0365e-05
19990.0 5.9832e-05
20010.0 5.9347e-05
20030.0 5.889e-05
20050.0 5.847e-05
20070.0 5.81e-05
20090.0 5.7774e-05
20110.0 5.7482e-05
20130.0 5.7236e-05
20150.0 5.7029e-05
20170.0 5.6854e-05
20190.0 5.6712e-05
20210.0 5.6596e-05
20230.0 5.6502e-05
20250.0 5.6431e-05
20270.0 5.6373e-05
20290.0 5.6323e-05
20310.0 5.6282e-05
20330.0 5.6248e-05
20350.0 5.6205e-05
20370.0 5.6158e-05
20390.0 5.6109e-05
20410.0 5.6049e-05
20430.0 5.5978e-05
20450.0 5.5901e-05
20470.0 5.5815e-05
20490.0 5.5719e-05
20510.0 5.5616e-05
20530.0 5.5509e-05
20550.0 5.5397e-05
20570.0 5.5282e-05
20590.0 5.5167e-05
20610.0 5.5052e-05
20630.0 5.4936e-05
20650.0 5.4821e-05
20670.0 5.4709e-05
20690.0 5.4595e-05
20710.0 5.4478e-05
20730.0 5.436e-05
20750.0 5.4237e-05
20770.0 5.4103e-05
20790.0 5.3962e-05
20810.0 5.3809e-05
20830.0 5.3641e-05
20850.0 5.3456e-05
20870.0 5.3253e-05
20890.0 5.303e-05
20910.0 5.2785e-05
20930.0 5.2519e-05
20950.0 5.2229e-05
20970.0 5.1919e-05
20990.0 5.1589e-05
21010.0 5.1234e-05
21030.0 5.0861e-05
21050.0 5.0473e-05
21070.0 5.0067e-05
21090.0 4.964e-05
21110.0 4.9205e-05
21130.0 4.8758e-05
21150.0 4.8293e-05
21170.0 4.7816e-05
21190.0 4.7331e-05
21210.0 4.6828e-05
21230.0 4.6306e-05
21250.0 4.5775e-05
21270.0 4.5227e-05
21290.0 4.4655e-05
21310.0 4.4065e-05
21330.0 4.3461e-05
21350.0 4.2828e-05
21370.0 4.2174e-05
21390.0 4.1892e-05
21410.0 4.1601e-05
21430.0 4.1293e-05
21450.0 4.098e-05
21470.0 4.066e-05
21490.0 4.0327e-05
21510.0 3.9983e-05
21530.0 3.9636e-05
21550.0 3.9279e-05
21570.0 3.8907e-05
21590.0 3.853e-05
21610.0 3.8149e-05
21630.0 3.7755e-05
21650.0 3.7348e-05
21670.0 3.6943e-05
21690.0 3.6528e-05
21710.0 3.6099e-05
21730.0 3.5666e-05
21750.0 3.523e-05
21770.0 3.4776e-05
21790.0 3.4315e-05
21810.0 3.3852e-05
21830.0 3.3379e-05
21850.0 3.2892e-05
21870.0 3.2402e-05
21890.0 3.1909e-05
21910.0 3.1402e-05
21930.0 3.0889e-05
21950.0 3.0374e-05
21970.0 2.9851e-05
21990.0 2.9314e-05
22010.0 2.878e-05
22030.0 2.8243e-05
22050.0 2.7697e-05
22070.0 2.7389e-05
22090.0 2.7515e-05
22110.0 2.7641e-05
22130.0 2.7768e-05
22150.0 2.7891e-05
22170.0 2.8012e-05
22190.0 2.8133e-05
22210.0 2.8252e-05
22230.0 2.8367e-05
22250.0 2.8482e-05
22270.0 2.8596e-05
22290.0 2.8708e-05
22310.0 2.8818e-05
22330.0 2.893e-05
22350.0 2.904e-05
22370.0 2.915e-05
22390.0 2.926e-05
22410.0 2.9372e-05
22430.0 2.9483e-05
22450.0 2.9594e-05
22470.0 2.9708e-05
22490.0 2.9822e-05
22510.0 2.9937e-05
22530.0 3.0054e-05
22550.0 3.0173e-05
22570.0 3.0292e-05
22590.0 3.0413e-05
22610.0 3.0536e-05
22630.0 3.066e-05
22650.0 3.0784e-05
22670.0 3.091e-05
22690.0 3.1038e-05
22710.0 3.1166e-05
22730.0 3.1296e-05
22750.0 3.1427e-05
22770.0 3.1558e-05
22790.0 3.1691e-05
22810.0 3.1825e-05
22830.0 3.196e-05
22850.0 3.2096e-05
22870.0 3.2233e-05
22890.0 3.2373e-05
22910.0 3.2513e-05
22930.0 3.2656e-05
22950.0 3.2801e-05
22970.0 3.2948e-05
22990.0 3.3098e-05
23010.0 3.3251e-05
23030.0 3.3407e-05
23050.0 3.3567e-05
23070.0 3.373e-05
23090.0 3.3896e-05
23110.0 3.39e-05
23130.0 3.3892e-05
23150.0 3.3884e-05
23170.0 3.3876e-05
23190.0 3.3869e-05
23210.0 3.3862e-05
23230.0 3.3855e-05
23250.0 3.3848e-05
23270.0 3.3842e-05
23290.0 3.3836e-05
23310.0 3.383e-05
23330.0 3.3825e-05
