#lamb flux
1010.0 2.9319e-05
1030.0 3.2745e-05
1050.0 3.6607e-05
1070.0 4.0977e-05
1090.0 4.5992e-05
1110.0 5.1176e-05
1130.0 5.6443e-05
1150.0 6.2013e-05
1170.0 6.7826e-05
1190.0 7.3439e-05
1210.0 7.922e-05
1230.0 8.5292e-05
1250.0 9.1369e-05
1270.0 9.7419e-05
1290.0 0.00010392
1310.0 0.00011057
1330.0 0.00011714
1350.0 0.00012393
1370.0 0.00013107
1390.0 0.00013823
1410.0 0.00014536
1430.0 0.00015291
1450.0 0.00016059
1470.0 0.0001682
1490.0 0.00017599
1510.0 0.00018422
1530.0 0.0001922
1550.0 0.00020016
1570.0 0.00020838
1590.0 0.00021662
1610.0 0.00022457
1630.0 0.00023266
1650.0 0.00024085
1670.0 0.00024873
1690.0 0.0002564
1710.0 0.00026414
1730.0 0.00027173
1750.0 0.00027867
1770.0 0.00028553
1790.0 0.00029223
1810.0 0.00029837
1830.0 0.00030403
1850.0 0.0003097
1870.0 0.00031477
1890.0 0.00031918
1910.0 0.00032325
1930.0 0.000327
1950.0 0.00032996
1970.0 0.00033234
1990.0 0.00033444
2010.0 0.00033591
2030.0 0.00033664
2050.0 0.00033703
2070.0 0.00033703
2090.0 0.00033617
2110.0 0.00033478
2130.0 0.00033305
2150.0 0.00033072
2170.0 0.0003277
2190.0 0.00032441
2210.0 0.00032071
2230.0 0.0003164
2250.0 0.0003117
2270.0 0.00030683
2290.0 0.0003015
2310.0 0.0002957
2330.0 0.00028977
2350.0 0.00028363
2370.0 0.00027712
2390.0 0.00027047
2410.0 0.00026376
2430.0 0.00025672
2450.0 0.00024934
2470.0 0.0002417
2490.0 0.00023371
2510.0 0.00022536
2530.0 0.0002171
2550.0 0.00020958
2570.0 0.00020369
2590.0 0.00020039
2610.0 0.00020153
2630.0 0.0002078
2650.0 0.00021837
2670.0 0.00023331
2690.0 0.00025177
2710.0 0.00027007
2730.0 0.00028638
2750.0 0.00030116
2770.0 0.00031215
2790.0 0.00031886
2810.0 0.00032282
2830.0 0.00032507
2850.0 0.00032504
2870.0 0.00032415
2890.0 0.00032326
2910.0 0.0003223
2930.0 0.00032113
2950.0 0.00032054
2970.0 0.00032048
2990.0 0.0003206
3010.0 0.00073231
3030.0 0.0007353
3050.0 0.00073912
3070.0 0.00074232
3090.0 0.00074465
3110.0 0.00074323
3130.0 0.00073522
3150.0 0.00071956
3170.0 0.00069167
3190.0 0.00069306
3210.0 0.00081732
3230.0 0.0010516
3250.0 0.0015366
3270.0 0.0017347
3290.0 0.0022042
3310.0 0.0020629
3330.0 0.0021803
3350.0 0.0023856
3370.0 0.00265
3390.0 0.0029577
3410.0 0.0032831
3430.0 0.0036577
3450.0 0.0040679
3470.0 0.0045037
3490.0 0.0049089
3510.0 0.0053181
3530.0 0.0057702
3550.0 0.0059385
3570.0 0.0058715
3590.0 0.0061838
3610.0 0.0061129
3630.0 0.00708
3650.0 0.0078431
3670.0 0.0083229
3690.0 0.0077878
3710.0 0.0064966
3730.0 0.0059591
3750.0 0.005326
3770.0 0.0047756
3790.0 0.0042418
3810.0 0.0040791
3830.0 0.0046096
3850.0 0.0020873
3870.0 0.0044799
3890.0 0.005698
3910.0 0.0061926
3930.0 0.0071294
3950.0 0.0077011
3970.0 0.0088546
3990.0 0.010864
4010.0 0.0081502
4030.0 0.0067015
4050.0 0.0059572
4070.0 0.006129
4090.0 0.0086329
4110.0 0.0082533
4130.0 0.0085089
4150.0 0.0080789
4170.0 0.0077195
4190.0 0.0072293
4210.0 0.010094
4230.0 0.010753
4250.0 0.011311
4270.0 0.010638
4290.0 0.011055
4310.0 0.012456
4330.0 0.014377
4350.0 0.014261
4370.0 0.013654
4390.0 0.011656
4410.0 0.010555
4430.0 0.0086798
4450.0 0.007636
4470.0 0.0085005
4490.0 0.010432
4510.0 0.010989
4530.0 0.01193
4550.0 0.012955
4570.0 0.017155
4590.0 0.024678
4610.0 0.030255
4630.0 0.030178
4650.0 0.029354
4670.0 0.031985
4690.0 0.035457
4710.0 0.029215
4730.0 0.021886
4750.0 0.017524
4770.0 0.016204
4790.0 0.016092
4810.0 0.015324
4830.0 0.01674
4850.0 0.019384
4870.0 0.022116
4890.0 0.021775
4910.0 0.01915
4930.0 0.020171
4950.0 0.025675
4970.0 0.032457
4990.0 0.033888
5010.0 0.030577
5030.0 0.024649
5050.0 0.018217
5070.0 0.014603
5090.0 0.013251
5110.0 0.013015
5130.0 0.013433
5150.0 0.013364
5170.0 0.01341
5190.0 0.012879
5210.0 0.012815
5230.0 0.013954
5250.0 0.015218
5270.0 0.01826
5290.0 0.021301
5310.0 0.021632
5330.0 0.022475
5350.0 0.02512
5370.0 0.027232
5390.0 0.025083
5410.0 0.021926
5430.0 0.020819
5450.0 0.023853
5470.0 0.030253
5490.0 0.036644
5510.0 0.039583
5530.0 0.039368
5550.0 0.037288
5570.0 0.035669
5590.0 0.034595
5610.0 0.034666
5630.0 0.034612
5650.0 0.034368
5670.0 0.034444
5690.0 0.032843
5710.0 0.028054
5730.0 0.024137
5750.0 0.021535
5770.0 0.021836
5790.0 0.023153
5810.0 0.024638
5830.0 0.025345
5850.0 0.024501
5870.0 0.022601
5890.0 0.020442
5910.0 0.020597
5930.0 0.022226
5950.0 0.021655
5970.0 0.019487
5990.0 0.016671
6010.0 0.013569
6030.0 0.011765
6050.0 0.012127
6070.0 0.013515
6090.0 0.0139
6110.0 0.012358
6130.0 0.011899
6150.0 0.0133
6170.0 0.015774
6190.0 0.01826
6210.0 0.018861
6230.0 0.018187
6250.0 0.016723
6270.0 0.014366
6290.0 0.011988
6310.0 0.010291
6330.0 0.0097405
6350.0 0.010177
6370.0 0.010391
6390.0 0.011015
6410.0 0.013035
6430.0 0.016555
6450.0 0.020125
6470.0 0.021696
6490.0 0.021219
6510.0 0.021361
6530.0 0.022286
6550.0 0.022216
6570.0 0.022804
6590.0 0.022969
6610.0 0.023021
6630.0 0.023264
6650.0 0.022656
6670.0 0.021109
6690.0 0.018683
6710.0 0.016621
6730.0 0.01661
6750.0 0.01772
6770.0 0.018628
6790.0 0.019049
6810.0 0.019104
6830.0 0.018729
6850.0 0.018216
6870.0 0.017138
6890.0 0.016548
6910.0 0.01566
6930.0 0.015705
6950.0 0.01693
6970.0 0.017759
6990.0 0.018419
7010.0 0.018273
7030.0 0.017055
7050.0 0.014933
7070.0 0.01251
7090.0 0.010916
7110.0 0.010699
7130.0 0.011216
7150.0 0.010776
7170.0 0.009952
7190.0 0.010156
7210.0 0.011271
7230.0 0.013078
7250.0 0.01449
7270.0 0.014855
7290.0 0.013697
7310.0 0.012307
7330.0 0.011438
7350.0 0.011351
7370.0 0.011661
7390.0 0.012107
7410.0 0.013059
7430.0 0.015096
7450.0 0.017453
7470.0 0.019265
7490.0 0.019745
7510.0 0.018905
7530.0 0.015732
7550.0 0.013461
7570.0 0.011522
7590.0 0.010506
7610.0 0.011016
7630.0 0.012517
7650.0 0.014223
7670.0 0.015809
7690.0 0.016881
7710.0 0.017997
7730.0 0.019185
7750.0 0.020278
7770.0 0.020416
7790.0 0.020452
7810.0 0.020969
7830.0 0.021619
7850.0 0.021247
7870.0 0.020456
7890.0 0.019679
7910.0 0.018529
7930.0 0.018112
7950.0 0.017514
7970.0 0.017279
7990.0 0.017096
8010.0 0.017751
8030.0 0.017897
8050.0 0.018228
8070.0 0.018067
8090.0 0.018047
8110.0 0.017316
8130.0 0.017239
8150.0 0.016898
8170.0 0.01645
8190.0 0.016212
8210.0 0.016325
8230.0 0.015672
8250.0 0.014978
8270.0 0.013222
8290.0 0.010641
8310.0 0.0079885
8330.0 0.0060589
8350.0 0.0054962
8370.0 0.0064553
8390.0 0.0077831
8410.0 0.008596
8430.0 0.009163
8450.0 0.0096305
8470.0 0.010159
8490.0 0.011313
8510.0 0.012821
8530.0 0.01493
8550.0 0.017299
8570.0 0.019446
8590.0 0.021171
8610.0 0.02243
8630.0 0.023036
8650.0 0.023086
8670.0 0.023128
8690.0 0.024032
8710.0 0.024996
8730.0 0.025837
8750.0 0.02561
8770.0 0.025841
8790.0 0.025598
8810.0 0.023929
8830.0 0.022997
8850.0 0.021551
8870.0 0.020399
8890.0 0.019767
8910.0 0.020042
8930.0 0.018991
8950.0 0.018085
8970.0 0.01773
8990.0 0.017451
9010.0 0.016895
9030.0 0.016501
9050.0 0.016389
9070.0 0.016335
9090.0 0.016286
9110.0 0.016239
9130.0 0.01619
9150.0 0.01614
9170.0 0.016077
9190.0 0.01601
9210.0 0.016061
9230.0 0.015979
9250.0 0.015912
9270.0 0.015851
9290.0 0.015795
9310.0 0.01574
9330.0 0.015686
9350.0 0.015634
9370.0 0.015583
9390.0 0.01553
9410.0 0.015478
9430.0 0.015425
9450.0 0.01536
9470.0 0.015299
9490.0 0.015258
9510.0 0.01521
9530.0 0.01516
9550.0 0.01511
9570.0 0.015059
9590.0 0.015007
9610.0 0.014954
9630.0 0.014902
9650.0 0.014849
9670.0 0.014796
9690.0 0.014743
9710.0 0.014691
9730.0 0.014638
9750.0 0.014584
9770.0 0.014532
9790.0 0.014479
9810.0 0.014425
9830.0 0.014372
9850.0 0.01432
9870.0 0.014266
9890.0 0.014212
9910.0 0.014159
9930.0 0.014103
9950.0 0.013939
9970.0 0.013918
9990.0 0.013891
10010.0 0.013859
10030.0 0.013818
10050.0 0.01377
10070.0 0.013718
10090.0 0.013669
10110.0 0.013614
10130.0 0.013562
10150.0 0.013508
10170.0 0.01345
10190.0 0.013389
10210.0 0.013333
10230.0 0.013278
10250.0 0.013218
10270.0 0.013159
10290.0 0.013103
10310.0 0.013044
10330.0 0.01298
10350.0 0.012921
10370.0 0.012863
10390.0 0.012799
10410.0 0.012736
10430.0 0.012677
10450.0 0.012614
10470.0 0.012548
10490.0 0.012485
10510.0 0.012422
10530.0 0.012352
10550.0 0.012284
10570.0 0.01222
10590.0 0.012151
10610.0 0.01208
10630.0 0.012012
10650.0 0.011944
10670.0 0.011869
10690.0 0.011796
10710.0 0.011725
10730.0 0.01165
10750.0 0.01157
10770.0 0.011497
10790.0 0.011421
10810.0 0.011341
10830.0 0.011262
10850.0 0.011185
10870.0 0.0111
10890.0 0.011013
10910.0 0.010928
10930.0 0.010838
10950.0 0.010738
10970.0 0.010633
10990.0 0.010526
11010.0 0.010187
11030.0 0.010053
11050.0 0.0099245
11070.0 0.0097947
11090.0 0.0096575
11110.0 0.0095327
11130.0 0.0094142
11150.0 0.0092944
11170.0 0.0091779
11190.0 0.0090713
11210.0 0.0089635
11230.0 0.0088535
11250.0 0.0087495
11270.0 0.0086486
11290.0 0.0085429
11310.0 0.0084379
11330.0 0.0083412
11350.0 0.0082418
11370.0 0.0081398
11390.0 0.0080418
11410.0 0.0079451
11430.0 0.0078399
11450.0 0.007735
11470.0 0.0076314
11490.0 0.0075213
11510.0 0.0074026
11530.0 0.0072855
11550.0 0.0071649
11570.0 0.0070336
11590.0 0.006899
11610.0 0.0067654
11630.0 0.0066224
11650.0 0.0064721
11670.0 0.0063275
11690.0 0.0061822
11710.0 0.0060314
11730.0 0.0058837
11750.0 0.0057449
11770.0 0.0056033
11790.0 0.005464
11810.0 0.0053345
11830.0 0.0052105
11850.0 0.0050851
11870.0 0.0049699
11890.0 0.0048644
11910.0 0.0047606
11930.0 0.0046609
11950.0 0.0045704
11970.0 0.0044833
11990.0 0.0043966
12010.0 0.0043165
12030.0 0.0042422
12050.0 0.0041692
12070.0 0.0040985
12090.0 0.0040366
12110.0 0.0039777
12130.0 0.0039218
12150.0 0.0038723
12170.0 0.0038297
12190.0 0.0037902
12210.0 0.0037578
12230.0 0.0037336
12250.0 0.0037161
12270.0 0.0037058
12290.0 0.0037042
12310.0 0.0037105
12330.0 0.0037254
12350.0 0.0037491
12370.0 0.0037804
12390.0 0.0038201
12410.0 0.0038704
12430.0 0.0039257
12450.0 0.0039869
12470.0 0.0040557
12490.0 0.0041292
12510.0 0.0042027
12530.0 0.00428
12550.0 0.0043594
12570.0 0.0044349
12590.0 0.0045065
12610.0 0.004576
12630.0 0.0046386
12650.0 0.0046905
12670.0 0.0047351
12690.0 0.0047705
12710.0 0.0047944
12730.0 0.004808
12750.0 0.0048111
12770.0 0.0048033
12790.0 0.0047865
12810.0 0.0047605
12830.0 0.0047255
12850.0 0.0046858
12870.0 0.0046413
12890.0 0.004591
12910.0 0.0045387
12930.0 0.0044865
12950.0 0.0044315
12970.0 0.0043754
12990.0 0.0043224
13010.0 0.00427
13030.0 0.0042168
13050.0 0.0041652
13070.0 0.0041162
13090.0 0.0040656
13110.0 0.0040149
13130.0 0.0039662
13150.0 0.0039176
13170.0 0.0038669
13190.0 0.0038185
13210.0 0.0037728
13230.0 0.0037275
13250.0 0.0036845
13270.0 0.0036465
13290.0 0.0036123
13310.0 0.0035821
13330.0 0.0035589
13350.0 0.0035422
13370.0 0.0035315
13390.0 0.0035273
13410.0 0.0035288
13430.0 0.0035346
13450.0 0.0035438
13470.0 0.0035541
13490.0 0.0035637
13510.0 0.0035715
13530.0 0.0035749
13550.0 0.0035725
13570.0 0.0035634
13590.0 0.0035461
13610.0 0.0035213
13630.0 0.0034899
13650.0 0.0034501
13670.0 0.0034043
13690.0 0.0033553
13710.0 0.0033022
13730.0 0.0032446
13750.0 0.0031897
13770.0 0.0031361
13790.0 0.003083
13810.0 0.0030332
13830.0 0.0029889
13850.0 0.0029473
13870.0 0.0029093
13890.0 0.0028769
13910.0 0.0028487
13930.0 0.0028235
13950.0 0.002802
13970.0 0.0027844
13990.0 0.0027689
14010.0 0.0027552
14030.0 0.0027435
14050.0 0.0027329
14070.0 0.0027225
14090.0 0.0027126
14110.0 0.0027027
14130.0 0.0026921
14150.0 0.0026803
14170.0 0.002668
14190.0 0.0026545
14210.0 0.0026394
14230.0 0.0026235
14250.0 0.0026071
14270.0 0.0025896
14290.0 0.0025717
14310.0 0.0025549
14330.0 0.0025386
14350.0 0.0025229
14370.0 0.002509
14390.0 0.002497
14410.0 0.0024863
14430.0 0.0024775
14450.0 0.0024706
14470.0 0.0024651
14490.0 0.002461
14510.0 0.0024581
14530.0 0.0024562
14550.0 0.0024552
14570.0 0.0024549
14590.0 0.0024554
14610.0 0.0024569
14630.0 0.0024598
14650.0 0.002464
14670.0 0.0024696
14690.0 0.0024775
14710.0 0.0024879
14730.0 0.0024999
14750.0 0.0025147
14770.0 0.0025328
14790.0 0.0025533
14810.0 0.0025762
14830.0 0.0026042
14850.0 0.0026354
14870.0 0.0026686
14890.0 0.0027056
14910.0 0.0027461
14930.0 0.0027861
14950.0 0.0028244
14970.0 0.0028616
14990.0 0.0028934
15010.0 0.0029179
15030.0 0.002936
15050.0 0.002948
15070.0 0.0029532
15090.0 0.0029542
15110.0 0.0029524
15130.0 0.0029486
15150.0 0.0029438
15170.0 0.0029385
15190.0 0.0029328
15210.0 0.0029271
15230.0 0.0029213
15250.0 0.0029154
15270.0 0.0029096
15290.0 0.0029038
15310.0 0.0028979
15330.0 0.002892
15350.0 0.0028862
15370.0 0.0028804
15390.0 0.0028744
15410.0 0.0028685
15430.0 0.0028627
15450.0 0.0028568
15470.0 0.0028508
15490.0 0.0028449
15510.0 0.002839
15530.0 0.0028331
15550.0 0.0028271
15570.0 0.0028212
15590.0 0.0028153
15610.0 0.0028093
15630.0 0.0028033
15650.0 0.0027974
15670.0 0.0027914
15690.0 0.0027854
15710.0 0.0027795
15730.0 0.0027735
15750.0 0.0027675
15770.0 0.0027615
15790.0 0.0027556
15810.0 0.0027495
15830.0 0.0027435
15850.0 0.0027375
15870.0 0.0027315
15890.0 0.0027255
15910.0 0.0027195
15930.0 0.0027135
15950.0 0.0027074
15970.0 0.0027014
15990.0 0.0026954
16010.0 0.0026893
16030.0 0.0026832
16050.0 0.0026772
16070.0 0.0026712
16090.0 0.0026651
16110.0 0.0026591
16130.0 0.0026531
16150.0 0.002647
16170.0 0.0026409
16190.0 0.0026349
16210.0 0.0026288
16230.0 0.0026227
16250.0 0.0026167
16270.0 0.0026106
16290.0 0.0026045
16310.0 0.0025984
16330.0 0.0025924
16350.0 0.0025863
16370.0 0.0025802
16390.0 0.0025741
16410.0 0.002568
16430.0 0.0025619
16450.0 0.0025558
16470.0 0.0025498
16490.0 0.0025437
16510.0 0.0025375
16530.0 0.0025314
16550.0 0.0025253
16570.0 0.0025192
16590.0 0.0025131
16610.0 0.002507
16630.0 0.0025009
16650.0 0.0024947
16670.0 0.0024886
16690.0 0.0024825
16710.0 0.0024764
16730.0 0.0024702
16750.0 0.0024641
16770.0 0.002458
16790.0 0.0024518
16810.0 0.0024457
16830.0 0.0024396
16850.0 0.0024334
16870.0 0.0024272
16890.0 0.0024211
16910.0 0.0024149
16930.0 0.0024087
16950.0 0.0024026
16970.0 0.0023965
16990.0 0.0023903
17010.0 0.0023841
17030.0 0.002378
17050.0 0.0023718
17070.0 0.0023656
17090.0 0.0023594
17110.0 0.0023532
17130.0 0.002347
17150.0 0.0023408
17170.0 0.0023346
17190.0 0.0023284
17210.0 0.0023222
17230.0 0.002316
17250.0 0.0023098
17270.0 0.0023036
17290.0 0.0022974
17310.0 0.0022912
17330.0 0.0022849
17350.0 0.0022787
17370.0 0.0022725
17390.0 0.0022663
17410.0 0.00226
17430.0 0.0022538
17450.0 0.0022476
17470.0 0.0022413
17490.0 0.0022351
17510.0 0.0022289
17530.0 0.0022226
17550.0 0.0022163
17570.0 0.0022101
17590.0 0.0022039
17610.0 0.0021976
17630.0 0.0021913
17650.0 0.0021851
17670.0 0.0021788
17690.0 0.0021725
17710.0 0.0021663
17730.0 0.00216
17750.0 0.0021538
17770.0 0.0021475
17790.0 0.0021413
17810.0 0.002135
17830.0 0.0021287
17850.0 0.0021224
17870.0 0.0021162
17890.0 0.0021099
17910.0 0.0021036
17930.0 0.0020974
17950.0 0.0020911
17970.0 0.0020848
17990.0 0.0020786
18010.0 0.0020724
18030.0 0.002066
18050.0 0.0020598
18070.0 0.0020536
18090.0 0.0020473
18110.0 0.002041
18130.0 0.0020348
18150.0 0.0020286
18170.0 0.0020223
18190.0 0.0020161
18210.0 0.0020099
18230.0 0.0020036
18250.0 0.0019973
18270.0 0.0019911
18290.0 0.0019849
18310.0 0.0019787
18330.0 0.0019725
18350.0 0.0019663
18370.0 0.0019601
18390.0 0.0019539
18410.0 0.0019477
18430.0 0.0019416
18450.0 0.0019353
18470.0 0.0019292
18490.0 0.0019231
18510.0 0.0019169
18530.0 0.0019107
18550.0 0.0019046
18570.0 0.0018985
18590.0 0.0018924
18610.0 0.0018863
18630.0 0.0018802
18650.0 0.0018741
18670.0 0.001868
18690.0 0.001862
18710.0 0.0018559
18730.0 0.0018498
18750.0 0.0018438
18770.0 0.0018378
18790.0 0.0018318
18810.0 0.0018258
18830.0 0.0018198
18850.0 0.0018138
18870.0 0.0018079
18890.0 0.0018019
18910.0 0.001796
18930.0 0.0017901
18950.0 0.0017842
18970.0 0.0017783
18990.0 0.0017724
19010.0 0.0017665
19030.0 0.0017607
19050.0 0.0017549
19070.0 0.001749
19090.0 0.0017432
19110.0 0.0017375
19130.0 0.0017317
19150.0 0.0017259
19170.0 0.0017202
19190.0 0.0017145
19210.0 0.0017088
19230.0 0.0017031
19250.0 0.0016975
19270.0 0.0016918
19290.0 0.0016862
19310.0 0.0016806
19330.0 0.001675
19350.0 0.0016694
19370.0 0.0016638
19390.0 0.0016583
19410.0 0.0016528
19430.0 0.0016473
19450.0 0.0016418
19470.0 0.0016364
19490.0 0.0016309
19510.0 0.0016255
19530.0 0.0016201
19550.0 0.0016147
19570.0 0.0016094
19590.0 0.0016041
19610.0 0.0015987
19630.0 0.0015934
19650.0 0.0015882
19670.0 0.001583
19690.0 0.0015777
19710.0 0.0015725
19730.0 0.0015673
19750.0 0.0015622
19770.0 0.001557
19790.0 0.0015519
19810.0 0.0015468
19830.0 0.0015417
19850.0 0.0015365
19870.0 0.0015312
19890.0 0.0015257
19910.0 0.0015196
19930.0 0.0015126
19950.0 0.0015044
19970.0 0.0014941
19990.0 0.0014814
20010.0 0.0014666
20030.0 0.0014488
20050.0 0.001428
20070.0 0.0014057
20090.0 0.001382
20110.0 0.001356
20130.0 0.0013302
20150.0 0.001305
20170.0 0.0012796
20190.0 0.0012543
20210.0 0.0012306
20230.0 0.0012076
20250.0 0.0011847
20270.0 0.001163
20290.0 0.0011428
20310.0 0.0011229
20330.0 0.0011035
20350.0 0.001086
20370.0 0.0010691
20390.0 0.0010528
20410.0 0.0010375
20430.0 0.0010235
20450.0 0.0010098
20470.0 0.00099704
20490.0 0.00098557
20510.0 0.00097495
20530.0 0.00096504
20550.0 0.00095634
20570.0 0.00094881
20590.0 0.00094205
20610.0 0.0009363
20630.0 0.0009316
20650.0 0.00092778
20670.0 0.00092481
20690.0 0.00092274
20710.0 0.00092139
20730.0 0.00092075
20750.0 0.00092075
20770.0 0.00092114
20790.0 0.00092198
20810.0 0.00092323
20830.0 0.0009246
20850.0 0.00092601
20870.0 0.00092759
20890.0 0.00092905
20910.0 0.00093011
20930.0 0.00093095
20950.0 0.00093144
20970.0 0.00093137
20990.0 0.00093076
21010.0 0.00092961
21030.0 0.00092777
21050.0 0.00092528
21070.0 0.00092212
21090.0 0.00091821
21110.0 0.00091374
21130.0 0.0009087
21150.0 0.00090298
21170.0 0.00089676
21190.0 0.00089026
21210.0 0.00088319
21230.0 0.00087564
21250.0 0.00086806
21270.0 0.00086031
21290.0 0.00085221
21310.0 0.0008441
21330.0 0.00083628
21350.0 0.0008283
21370.0 0.00082037
21390.0 0.00081285
21410.0 0.00080561
21430.0 0.00079838
21450.0 0.00079176
21470.0 0.00078573
21490.0 0.00078008
21510.0 0.00077497
21530.0 0.00077062
21550.0 0.00076688
21570.0 0.00076378
21590.0 0.00076145
21610.0 0.00075986
21630.0 0.000759
21650.0 0.00075896
21670.0 0.00075951
21690.0 0.00076074
21710.0 0.00076269
21730.0 0.00076514
21750.0 0.00076793
21770.0 0.0007714
21790.0 0.00077519
21810.0 0.00077903
21830.0 0.00078306
21850.0 0.00078735
21870.0 0.00079144
21890.0 0.00079523
21910.0 0.00079906
21930.0 0.00080261
21950.0 0.00080567
21970.0 0.00080843
21990.0 0.00081096
22010.0 0.00081286
22030.0 0.00081426
22050.0 0.0008153
22070.0 0.00081584
22090.0 0.00081585
22110.0 0.00081546
22130.0 0.00081463
22150.0 0.00081336
22170.0 0.00081168
22190.0 0.00080956
22210.0 0.00080703
22230.0 0.00080419
22250.0 0.00080094
22270.0 0.00079725
22290.0 0.00079327
22310.0 0.00078897
22330.0 0.00078411
22350.0 0.00077891
22370.0 0.00077344
22390.0 0.00076748
22410.0 0.00076092
22430.0 0.0007542
22450.0 0.00074712
22470.0 0.00073941
22490.0 0.00073136
22510.0 0.0007232
22530.0 0.00071439
22550.0 0.00070511
22570.0 0.00069591
22590.0 0.00068651
22610.0 0.00067667
22630.0 0.00066687
22650.0 0.00065742
22670.0 0.00064771
22690.0 0.00063804
22710.0 0.00062888
22730.0 0.00061999
22750.0 0.00061098
22770.0 0.00060267
22790.0 0.00059497
22810.0 0.0005875
22830.0 0.00058043
22850.0 0.00057409
22870.0 0.00056813
22890.0 0.00056244
22910.0 0.00055732
22930.0 0.00055268
22950.0 0.00054829
22970.0 0.00054417
22990.0 0.00054056
23010.0 0.00053713
23030.0 0.00053383
23050.0 0.00053075
23070.0 0.00052784
23090.0 0.00052486
23110.0 0.00052193
23130.0 0.00051907
23150.0 0.00051613
23170.0 0.00051306
23190.0 0.00050998
23210.0 0.0005069
23230.0 0.00050365
23250.0 0.00050036
23270.0 0.00049714
23290.0 0.00049388
23310.0 0.00049055
23330.0 0.00048742
23350.0 0.00048442
23370.0 0.00048147
23390.0 0.00047866
23410.0 0.0004761
23430.0 0.00047362
23450.0 0.00047125
23470.0 0.00046906
23490.0 0.00046701
23510.0 0.00046498
23530.0 0.00046305
23550.0 0.00046124
23570.0 0.00045943
23590.0 0.00045764
23610.0 0.00045591
23630.0 0.0004542
23650.0 0.00045245
23670.0 0.00045075
23690.0 0.00044913
23710.0 0.00044755
23730.0 0.00044605
23750.0 0.00044473
23770.0 0.0004436
23790.0 0.00044271
23810.0 0.00044215
23830.0 0.00044196
23850.0 0.00044225
23870.0 0.00044313
23890.0 0.00044455
