#lamb flux
1010.0 3.4358e-07
1030.0 3.7204e-07
1050.0 4.1222e-07
1070.0 4.5744e-07
1090.0 5.0677e-07
1110.0 5.5778e-07
1130.0 6.0942e-07
1150.0 6.6367e-07
1170.0 7.1956e-07
1190.0 7.7218e-07
1210.0 8.2485e-07
1230.0 8.7833e-07
1250.0 9.2992e-07
1270.0 9.7849e-07
1290.0 1.0283e-06
1310.0 1.0764e-06
1330.0 1.1205e-06
1350.0 1.1638e-06
1370.0 1.2074e-06
1390.0 1.2488e-06
1410.0 1.2881e-06
1430.0 1.3297e-06
1450.0 1.3715e-06
1470.0 1.4125e-06
1490.0 1.4552e-06
1510.0 1.5023e-06
1530.0 1.5487e-06
1550.0 1.5967e-06
1570.0 1.6488e-06
1590.0 1.7037e-06
1610.0 1.7594e-06
1630.0 1.8204e-06
1650.0 1.8858e-06
1670.0 1.9526e-06
1690.0 2.0218e-06
1710.0 2.0957e-06
1730.0 2.1724e-06
1750.0 2.248e-06
1770.0 2.3266e-06
1790.0 2.4075e-06
1810.0 2.4869e-06
1830.0 2.5649e-06
1850.0 2.6449e-06
1870.0 2.7214e-06
1890.0 2.7929e-06
1910.0 2.8617e-06
1930.0 2.9271e-06
1950.0 2.9845e-06
1970.0 3.0351e-06
1990.0 3.0814e-06
2010.0 3.1198e-06
2030.0 3.1494e-06
2050.0 3.1738e-06
2070.0 3.193e-06
2090.0 3.2028e-06
2110.0 3.2069e-06
2130.0 3.2077e-06
2150.0 3.2035e-06
2170.0 3.1939e-06
2190.0 3.1839e-06
2210.0 3.1728e-06
2230.0 3.1593e-06
2250.0 3.1459e-06
2270.0 3.1355e-06
2290.0 3.1254e-06
2310.0 3.1159e-06
2330.0 3.1105e-06
2350.0 3.1087e-06
2370.0 3.109e-06
2390.0 3.1138e-06
2410.0 3.1255e-06
2430.0 3.1413e-06
2450.0 3.1624e-06
2470.0 3.1918e-06
2490.0 3.2307e-06
2510.0 3.2769e-06
2530.0 3.34e-06
2550.0 3.4332e-06
2570.0 3.5696e-06
2590.0 3.7674e-06
2610.0 4.0766e-06
2630.0 4.5126e-06
2650.0 5.0593e-06
2670.0 5.7284e-06
2690.0 6.5012e-06
2710.0 7.2765e-06
2730.0 7.996e-06
2750.0 8.651e-06
2770.0 9.1636e-06
2790.0 9.5148e-06
2810.0 9.7323e-06
2830.0 9.8309e-06
2850.0 9.8434e-06
2870.0 9.8102e-06
2890.0 9.7489e-06
2910.0 9.6831e-06
2930.0 9.6331e-06
2950.0 9.5904e-06
2970.0 9.5612e-06
2990.0 9.5571e-06
3010.0 1.2816e-05
3030.0 1.2855e-05
3050.0 1.2919e-05
3070.0 1.3014e-05
3090.0 1.3115e-05
3110.0 1.3214e-05
3130.0 1.3309e-05
3150.0 1.3435e-05
3170.0 1.349e-05
3190.0 1.5586e-05
3210.0 2.4734e-05
3230.0 3.9446e-05
3250.0 4.6755e-05
3270.0 4.2009e-05
3290.0 3.3763e-05
3310.0 2.9334e-05
3330.0 2.7775e-05
3350.0 2.8012e-05
3370.0 2.8767e-05
3390.0 2.9644e-05
3410.0 3.0447e-05
3430.0 3.0511e-05
3450.0 3.0997e-05
3470.0 3.1671e-05
3490.0 3.3841e-05
3510.0 3.7925e-05
3530.0 4.2729e-05
3550.0 5.1327e-05
3570.0 6.1792e-05
3590.0 6.732e-05
3610.0 6.8478e-05
3630.0 6.8668e-05
3650.0 6.95e-05
3670.0 7.5559e-05
3690.0 8.9846e-05
3710.0 0.0001054
3730.0 0.00011623
3750.0 0.00012465
3770.0 0.00012509
3790.0 0.00011867
3810.0 0.00010956
3830.0 9.7237e-05
3850.0 8.7312e-05
3870.0 8.338e-05
3890.0 9.2662e-05
3910.0 0.00011063
3930.0 0.00012894
3950.0 0.00014357
3970.0 0.00015119
3990.0 0.00015273
4010.0 0.0001506
4030.0 0.0001348
4050.0 0.00011223
4070.0 0.00010025
4090.0 0.00010151
4110.0 0.00010898
4130.0 0.00011258
4150.0 0.00011326
4170.0 0.00011296
4190.0 0.00011451
4210.0 0.0001154
4230.0 0.00011934
4250.0 0.0001229
4270.0 0.00012602
4290.0 0.00012746
4310.0 0.00012997
4330.0 0.00013311
4350.0 0.00013492
4370.0 0.0001304
4390.0 0.00011964
4410.0 0.00010528
4430.0 9.1823e-05
4450.0 8.3901e-05
4470.0 8.4512e-05
4490.0 9.1202e-05
4510.0 0.00010243
4530.0 0.00011952
4550.0 0.00014592
4570.0 0.00017695
4590.0 0.00021291
4610.0 0.0002486
4630.0 0.00027046
4650.0 0.00027704
4670.0 0.00027307
4690.0 0.00025437
4710.0 0.00022233
4730.0 0.00018596
4750.0 0.00015576
4770.0 0.00013659
4790.0 0.00013271
4810.0 0.00013692
4830.0 0.00014422
4850.0 0.00015447
4870.0 0.00016667
4890.0 0.00017385
4910.0 0.00018065
4930.0 0.00019416
4950.0 0.00020874
4970.0 0.00021266
4990.0 0.00020213
5010.0 0.00018057
5030.0 0.00015449
5050.0 0.00013387
5070.0 0.00012122
5090.0 0.00011512
5110.0 0.0001146
5130.0 0.00011522
5150.0 0.00011498
5170.0 0.00011629
5190.0 0.00012212
5210.0 0.0001343
5230.0 0.00015014
5250.0 0.00017033
5270.0 0.0001916
5290.0 0.00020792
5310.0 0.00022032
5330.0 0.00023197
5350.0 0.00023843
5370.0 0.00023604
5390.0 0.00023081
5410.0 0.00023081
5430.0 0.00024227
5450.0 0.00026577
5470.0 0.00029142
5490.0 0.00030737
5510.0 0.00031132
5530.0 0.00030796
5550.0 0.00030042
5570.0 0.00029032
5590.0 0.00028073
5610.0 0.00027285
5630.0 0.00026671
5650.0 0.00025724
5670.0 0.00024039
5690.0 0.00022161
5710.0 0.00020658
5730.0 0.00019441
5750.0 0.00018958
5770.0 0.0001926
5790.0 0.00019679
5810.0 0.00019777
5830.0 0.00019777
5850.0 0.0001957
5870.0 0.00019059
5890.0 0.00018833
5910.0 0.00018821
5930.0 0.00018191
5950.0 0.00016836
5970.0 0.00015081
5990.0 0.0001333
6010.0 0.00012086
6030.0 0.00011626
6050.0 0.00011965
6070.0 0.00012507
6090.0 0.00012453
6110.0 0.00012126
6130.0 0.00012252
6150.0 0.00012816
6170.0 0.00013357
6190.0 0.00013638
6210.0 0.00013617
6230.0 0.00013069
6250.0 0.0001196
6270.0 0.00010613
6290.0 9.5327e-05
6310.0 9.2655e-05
6330.0 9.7448e-05
6350.0 0.00010435
6370.0 0.00011132
6390.0 0.00012241
6410.0 0.00013797
6430.0 0.00015035
6450.0 0.0001568
6470.0 0.00016118
6490.0 0.00016488
6510.0 0.00016656
6530.0 0.00016736
6550.0 0.00016954
6570.0 0.00017065
6590.0 0.00016989
6610.0 0.00016624
6630.0 0.00015905
6650.0 0.00014895
6670.0 0.00013901
6690.0 0.00013245
6710.0 0.00012757
6730.0 0.00012217
6750.0 0.00011918
6770.0 0.00012111
6790.0 0.00012389
6810.0 0.00012397
6830.0 0.00012183
6850.0 0.00011876
6870.0 0.00011569
6890.0 0.00011308
6910.0 0.00011321
6930.0 0.00011424
6950.0 0.00011433
6970.0 0.00011424
6990.0 0.00011293
7010.0 0.00010955
7030.0 0.0001033
7050.0 9.4671e-05
7070.0 8.8005e-05
7090.0 8.726e-05
7110.0 8.9398e-05
7130.0 8.8298e-05
7150.0 8.4931e-05
7170.0 8.5389e-05
7190.0 9.1095e-05
7210.0 9.7771e-05
7230.0 0.00010302
7250.0 0.00010582
7270.0 0.0001039
7290.0 9.9663e-05
7310.0 9.6993e-05
7330.0 9.8224e-05
7350.0 0.00010133
7370.0 0.00010354
7390.0 0.0001072
7410.0 0.0001138
7430.0 0.00012032
7450.0 0.00012469
7470.0 0.00012544
7490.0 0.00011953
7510.0 0.00011187
7530.0 0.00010858
7550.0 0.00010427
7570.0 9.981e-05
7590.0 9.7838e-05
7610.0 9.7702e-05
7630.0 9.9927e-05
7650.0 0.00010572
7670.0 0.00011336
7690.0 0.00012044
7710.0 0.00012532
7730.0 0.00012941
7750.0 0.00013292
7770.0 0.00013525
7790.0 0.00013753
7810.0 0.0001377
7830.0 0.00013337
7850.0 0.00012838
7870.0 0.00012499
7890.0 0.00012345
7910.0 0.00012316
7930.0 0.00012044
7950.0 0.00011689
7970.0 0.00011283
7990.0 0.00010972
8010.0 0.00010358
8030.0 0.00010342
8050.0 0.00010298
8070.0 0.00010153
8090.0 0.00010039
8110.0 9.9191e-05
8130.0 9.9195e-05
8150.0 9.843e-05
8170.0 9.6838e-05
8190.0 9.3953e-05
8210.0 9.0059e-05
8230.0 8.6536e-05
8250.0 8.516e-05
8270.0 8.0771e-05
8290.0 7.1473e-05
8310.0 6.1339e-05
8330.0 5.4478e-05
8350.0 5.2427e-05
8370.0 5.6578e-05
8390.0 6.3287e-05
8410.0 6.75e-05
8430.0 7.0582e-05
8450.0 7.5623e-05
8470.0 8.1266e-05
8490.0 8.8421e-05
8510.0 9.6378e-05
8530.0 0.00010446
8550.0 0.00011078
8570.0 0.0001154
8590.0 0.00011886
8610.0 0.00012109
8630.0 0.00012088
8650.0 0.00011867
8670.0 0.00011878
8690.0 0.00012427
8710.0 0.00013169
8730.0 0.00013484
8750.0 0.00013347
8770.0 0.00013435
8790.0 0.00013429
8810.0 0.00012904
8830.0 0.00011953
8850.0 0.00010775
8870.0 9.8911e-05
8890.0 9.6025e-05
8910.0 9.3707e-05
8930.0 8.7503e-05
8950.0 8.1143e-05
8970.0 7.8638e-05
8990.0 7.907e-05
9010.0 7.8163e-05
9030.0 7.6948e-05
9050.0 7.6256e-05
9070.0 7.586e-05
9090.0 7.5508e-05
9110.0 7.5165e-05
9130.0 7.4823e-05
9150.0 7.4488e-05
9170.0 7.4147e-05
9190.0 7.3849e-05
9210.0 7.3624e-05
9230.0 7.3254e-05
9250.0 7.2909e-05
9270.0 7.2581e-05
9290.0 7.2265e-05
9310.0 7.1955e-05
9330.0 7.165e-05
9350.0 7.1356e-05
9370.0 7.1065e-05
9390.0 7.0774e-05
9410.0 7.0489e-05
9430.0 7.0193e-05
9450.0 6.9812e-05
9470.0 6.9465e-05
9490.0 6.9285e-05
9510.0 6.906e-05
9530.0 6.8829e-05
9550.0 6.8582e-05
9570.0 6.833e-05
9590.0 6.8082e-05
9610.0 6.7833e-05
9630.0 6.758e-05
9650.0 6.7331e-05
9670.0 6.709e-05
9690.0 6.6845e-05
9710.0 6.6601e-05
9730.0 6.6365e-05
9750.0 6.6128e-05
9770.0 6.5885e-05
9790.0 6.5649e-05
9810.0 6.5418e-05
9830.0 6.5182e-05
9850.0 6.4943e-05
9870.0 6.4716e-05
9890.0 6.4487e-05
9910.0 6.4252e-05
9930.0 6.402e-05
9950.0 6.3624e-05
9970.0 6.3438e-05
9990.0 6.324e-05
10010.0 6.3043e-05
10030.0 6.283e-05
10050.0 6.2603e-05
10070.0 6.2378e-05
10090.0 6.2155e-05
10110.0 6.1896e-05
10130.0 6.1561e-05
10150.0 6.1338e-05
10170.0 6.1128e-05
10190.0 6.0887e-05
10210.0 6.0656e-05
10230.0 6.0423e-05
10250.0 6.0164e-05
10270.0 5.9903e-05
10290.0 5.9655e-05
10310.0 5.9386e-05
10330.0 5.9097e-05
10350.0 5.8829e-05
10370.0 5.8558e-05
10390.0 5.8264e-05
10410.0 5.797e-05
10430.0 5.7695e-05
10450.0 5.7396e-05
10470.0 5.7082e-05
10490.0 5.6782e-05
10510.0 5.6479e-05
10530.0 5.614e-05
10550.0 5.581e-05
10570.0 5.5494e-05
10590.0 5.5156e-05
10610.0 5.4802e-05
10630.0 5.4465e-05
10650.0 5.412e-05
10670.0 5.3743e-05
10690.0 5.3373e-05
10710.0 5.301e-05
10730.0 5.2624e-05
10750.0 5.2213e-05
10770.0 5.1833e-05
10790.0 5.1438e-05
10810.0 5.1018e-05
10830.0 5.0602e-05
10850.0 5.0198e-05
10870.0 4.9752e-05
10890.0 4.93e-05
10910.0 4.8864e-05
10930.0 4.8414e-05
10950.0 4.7936e-05
10970.0 4.7465e-05
10990.0 4.7009e-05
11010.0 4.9215e-05
11030.0 4.8708e-05
11050.0 4.8224e-05
11070.0 4.7737e-05
11090.0 4.7221e-05
11110.0 4.6742e-05
11130.0 4.6278e-05
11150.0 4.5801e-05
11170.0 4.5329e-05
11190.0 4.489e-05
11210.0 4.4446e-05
11230.0 4.3997e-05
11250.0 4.3576e-05
11270.0 4.3172e-05
11290.0 4.2762e-05
11310.0 4.2364e-05
11330.0 4.2001e-05
11350.0 4.1636e-05
11370.0 4.1269e-05
11390.0 4.0917e-05
11410.0 4.0568e-05
11430.0 4.0191e-05
11450.0 3.9809e-05
11470.0 3.9422e-05
11490.0 3.9006e-05
11510.0 3.8549e-05
11530.0 3.8085e-05
11550.0 3.7598e-05
11570.0 3.7063e-05
11590.0 3.6506e-05
11610.0 3.5943e-05
11630.0 3.5339e-05
11650.0 3.47e-05
11670.0 3.4075e-05
11690.0 3.3438e-05
11710.0 3.2771e-05
11730.0 3.2105e-05
11750.0 3.1458e-05
11770.0 3.0785e-05
11790.0 3.0101e-05
11810.0 2.9435e-05
11830.0 2.877e-05
11850.0 2.8072e-05
11870.0 2.7395e-05
11890.0 2.6742e-05
11910.0 2.6075e-05
11930.0 2.5411e-05
11950.0 2.4782e-05
11970.0 2.4163e-05
11990.0 2.3539e-05
12010.0 2.2953e-05
12030.0 2.2402e-05
12050.0 2.1863e-05
12070.0 2.1345e-05
12090.0 2.0887e-05
12110.0 2.0454e-05
12130.0 2.0048e-05
12150.0 1.9687e-05
12170.0 1.9371e-05
12190.0 1.9082e-05
12210.0 1.8839e-05
12230.0 1.8645e-05
12250.0 1.8492e-05
12270.0 1.8381e-05
12290.0 1.8313e-05
12310.0 1.8283e-05
12330.0 1.8292e-05
12350.0 1.8334e-05
12370.0 1.8401e-05
12390.0 1.8493e-05
12410.0 1.8616e-05
12430.0 1.8742e-05
12450.0 1.8875e-05
12470.0 1.902e-05
12490.0 1.9166e-05
12510.0 1.9298e-05
12530.0 1.9431e-05
12550.0 1.956e-05
12570.0 1.9667e-05
12590.0 1.9756e-05
12610.0 1.9833e-05
12630.0 1.9885e-05
12650.0 1.9904e-05
12670.0 1.9898e-05
12690.0 1.9862e-05
12710.0 1.9791e-05
12730.0 1.9689e-05
12750.0 1.9551e-05
12770.0 1.938e-05
12790.0 1.9182e-05
12810.0 1.8953e-05
12830.0 1.8695e-05
12850.0 1.8424e-05
12870.0 1.8138e-05
12890.0 1.7835e-05
12910.0 1.7527e-05
12930.0 1.7224e-05
12950.0 1.6913e-05
12970.0 1.6602e-05
12990.0 1.6309e-05
13010.0 1.6023e-05
13030.0 1.574e-05
13050.0 1.547e-05
13070.0 1.5216e-05
13090.0 1.4965e-05
13110.0 1.4723e-05
13130.0 1.4495e-05
13150.0 1.4276e-05
13170.0 1.4058e-05
13190.0 1.3854e-05
13210.0 1.3663e-05
13230.0 1.3476e-05
13250.0 1.3296e-05
13270.0 1.3128e-05
13290.0 1.2966e-05
13310.0 1.2807e-05
13330.0 1.2657e-05
13350.0 1.2515e-05
13370.0 1.2375e-05
13390.0 1.2238e-05
13410.0 1.211e-05
13430.0 1.1984e-05
13450.0 1.1859e-05
13470.0 1.1738e-05
13490.0 1.1621e-05
13510.0 1.1501e-05
13530.0 1.1384e-05
13550.0 1.127e-05
13570.0 1.1157e-05
13590.0 1.1041e-05
13610.0 1.0928e-05
13630.0 1.0818e-05
13650.0 1.0705e-05
13670.0 1.0593e-05
13690.0 1.0485e-05
13710.0 1.0376e-05
13730.0 1.0264e-05
13750.0 1.0159e-05
13770.0 1.0055e-05
13790.0 9.9511e-06
13810.0 9.8492e-06
13830.0 9.7526e-06
13850.0 9.6559e-06
13870.0 9.5603e-06
13890.0 9.4699e-06
13910.0 9.3829e-06
13930.0 9.2962e-06
13950.0 9.2128e-06
13970.0 9.1355e-06
13990.0 9.0588e-06
14010.0 8.9834e-06
14030.0 8.9118e-06
14050.0 8.8421e-06
14070.0 8.7703e-06
14090.0 8.7009e-06
14110.0 8.6336e-06
14130.0 8.5654e-06
14150.0 8.4964e-06
14170.0 8.4309e-06
14190.0 8.3667e-06
14210.0 8.3021e-06
14230.0 8.2406e-06
14250.0 8.1835e-06
14270.0 8.1276e-06
14290.0 8.0748e-06
14310.0 8.0285e-06
14330.0 7.9862e-06
14350.0 7.9471e-06
14370.0 7.913e-06
14390.0 7.8839e-06
14410.0 7.8571e-06
14430.0 7.8333e-06
14450.0 7.813e-06
14470.0 7.7945e-06
14490.0 7.7764e-06
14510.0 7.7601e-06
14530.0 7.745e-06
14550.0 7.7297e-06
14570.0 7.7147e-06
14590.0 7.7014e-06
14610.0 7.6888e-06
14630.0 7.6776e-06
14650.0 7.6701e-06
14670.0 7.6673e-06
14690.0 7.6703e-06
14710.0 7.6817e-06
14730.0 7.7031e-06
14750.0 7.7365e-06
14770.0 7.7855e-06
14790.0 7.8505e-06
14810.0 7.9317e-06
14830.0 8.0384e-06
14850.0 8.1661e-06
14870.0 8.3105e-06
14890.0 8.4761e-06
14910.0 8.6621e-06
14930.0 8.8519e-06
14950.0 9.0395e-06
14970.0 9.2267e-06
14990.0 9.3958e-06
15010.0 9.5384e-06
15030.0 9.6583e-06
15050.0 9.7554e-06
15070.0 9.8269e-06
15090.0 9.883e-06
15110.0 9.9289e-06
15130.0 9.9678e-06
15150.0 1.0003e-05
15170.0 1.0038e-05
15190.0 1.0071e-05
15210.0 1.0106e-05
15230.0 1.014e-05
15250.0 1.0176e-05
15270.0 1.0212e-05
15290.0 1.0249e-05
15310.0 1.0287e-05
15330.0 1.0325e-05
15350.0 1.0364e-05
15370.0 1.0404e-05
15390.0 1.0444e-05
15410.0 1.0485e-05
15430.0 1.0527e-05
15450.0 1.0569e-05
15470.0 1.0612e-05
15490.0 1.0655e-05
15510.0 1.07e-05
15530.0 1.0744e-05
15550.0 1.079e-05
15570.0 1.0836e-05
15590.0 1.0882e-05
15610.0 1.0929e-05
15630.0 1.0977e-05
15650.0 1.1025e-05
15670.0 1.1074e-05
15690.0 1.1123e-05
15710.0 1.1173e-05
15730.0 1.1223e-05
15750.0 1.1274e-05
15770.0 1.1325e-05
15790.0 1.1376e-05
15810.0 1.1428e-05
15830.0 1.1481e-05
15850.0 1.1533e-05
15870.0 1.1587e-05
15890.0 1.164e-05
15910.0 1.1694e-05
15930.0 1.1748e-05
15950.0 1.1803e-05
15970.0 1.1858e-05
15990.0 1.1913e-05
16010.0 1.1968e-05
16030.0 1.2024e-05
16050.0 1.208e-05
16070.0 1.2136e-05
16090.0 1.2192e-05
16110.0 1.2248e-05
16130.0 1.2305e-05
16150.0 1.2362e-05
16170.0 1.2419e-05
16190.0 1.2476e-05
16210.0 1.2533e-05
16230.0 1.259e-05
16250.0 1.2647e-05
16270.0 1.2704e-05
16290.0 1.2761e-05
16310.0 1.2818e-05
16330.0 1.2875e-05
16350.0 1.2933e-05
16370.0 1.2989e-05
16390.0 1.3046e-05
16410.0 1.3103e-05
16430.0 1.316e-05
16450.0 1.3216e-05
16470.0 1.3272e-05
16490.0 1.3328e-05
16510.0 1.3384e-05
16530.0 1.344e-05
16550.0 1.3495e-05
16570.0 1.355e-05
16590.0 1.3604e-05
16610.0 1.3659e-05
16630.0 1.3712e-05
16650.0 1.3766e-05
16670.0 1.3819e-05
16690.0 1.3872e-05
16710.0 1.3924e-05
16730.0 1.3976e-05
16750.0 1.4027e-05
16770.0 1.4078e-05
16790.0 1.4128e-05
16810.0 1.4177e-05
16830.0 1.4226e-05
16850.0 1.4275e-05
16870.0 1.4322e-05
16890.0 1.437e-05
16910.0 1.4416e-05
16930.0 1.4462e-05
16950.0 1.4507e-05
16970.0 1.4551e-05
16990.0 1.4595e-05
17010.0 1.4637e-05
17030.0 1.4679e-05
17050.0 1.4721e-05
17070.0 1.4761e-05
17090.0 1.48e-05
17110.0 1.4839e-05
17130.0 1.4877e-05
17150.0 1.4914e-05
17170.0 1.495e-05
17190.0 1.4984e-05
17210.0 1.5018e-05
17230.0 1.5052e-05
17250.0 1.5084e-05
17270.0 1.5115e-05
17290.0 1.5145e-05
17310.0 1.5174e-05
17330.0 1.5202e-05
17350.0 1.5229e-05
17370.0 1.5254e-05
17390.0 1.5279e-05
17410.0 1.5303e-05
17430.0 1.5325e-05
17450.0 1.5347e-05
17470.0 1.5367e-05
17490.0 1.5386e-05
17510.0 1.5404e-05
17530.0 1.5421e-05
17550.0 1.5437e-05
17570.0 1.5451e-05
17590.0 1.5465e-05
17610.0 1.5477e-05
17630.0 1.5488e-05
17650.0 1.5497e-05
17670.0 1.5506e-05
17690.0 1.5513e-05
17710.0 1.5519e-05
17730.0 1.5524e-05
17750.0 1.5528e-05
17770.0 1.553e-05
17790.0 1.5532e-05
17810.0 1.5532e-05
17830.0 1.553e-05
17850.0 1.5528e-05
17870.0 1.5524e-05
17890.0 1.5519e-05
17910.0 1.5513e-05
17930.0 1.5506e-05
17950.0 1.5497e-05
17970.0 1.5487e-05
17990.0 1.5476e-05
18010.0 1.5464e-05
18030.0 1.545e-05
18050.0 1.5435e-05
18070.0 1.542e-05
18090.0 1.5402e-05
18110.0 1.5384e-05
18130.0 1.5365e-05
18150.0 1.5344e-05
18170.0 1.5322e-05
18190.0 1.5299e-05
18210.0 1.5275e-05
18230.0 1.525e-05
18250.0 1.5224e-05
18270.0 1.5196e-05
18290.0 1.5167e-05
18310.0 1.5138e-05
18330.0 1.5107e-05
18350.0 1.5075e-05
18370.0 1.5042e-05
18390.0 1.5008e-05
18410.0 1.4973e-05
18430.0 1.4937e-05
18450.0 1.49e-05
18470.0 1.4862e-05
18490.0 1.4823e-05
18510.0 1.4783e-05
18530.0 1.4742e-05
18550.0 1.47e-05
18570.0 1.4657e-05
18590.0 1.4613e-05
18610.0 1.4568e-05
18630.0 1.4523e-05
18650.0 1.4476e-05
18670.0 1.4429e-05
18690.0 1.4381e-05
18710.0 1.4332e-05
18730.0 1.4282e-05
18750.0 1.4232e-05
18770.0 1.4181e-05
18790.0 1.4128e-05
18810.0 1.4076e-05
18830.0 1.4022e-05
18850.0 1.3968e-05
18870.0 1.3913e-05
18890.0 1.3858e-05
18910.0 1.3801e-05
18930.0 1.3744e-05
18950.0 1.3687e-05
18970.0 1.3629e-05
18990.0 1.357e-05
19010.0 1.3511e-05
19030.0 1.3451e-05
19050.0 1.3391e-05
19070.0 1.333e-05
19090.0 1.3269e-05
19110.0 1.3207e-05
19130.0 1.3145e-05
19150.0 1.3082e-05
19170.0 1.3019e-05
19190.0 1.2956e-05
19210.0 1.2892e-05
19230.0 1.2828e-05
19250.0 1.2763e-05
19270.0 1.2698e-05
19290.0 1.2633e-05
19310.0 1.2567e-05
19330.0 1.2502e-05
19350.0 1.2435e-05
19370.0 1.2369e-05
19390.0 1.2302e-05
19410.0 1.2236e-05
19430.0 1.2168e-05
19450.0 1.2101e-05
19470.0 1.2034e-05
19490.0 1.1966e-05
19510.0 1.1898e-05
19530.0 1.183e-05
19550.0 1.1762e-05
19570.0 1.1694e-05
19590.0 1.1626e-05
19610.0 1.1558e-05
19630.0 1.1489e-05
19650.0 1.1421e-05
19670.0 1.1353e-05
19690.0 1.1284e-05
19710.0 1.1216e-05
19730.0 1.1147e-05
19750.0 1.1079e-05
19770.0 1.101e-05
19790.0 1.0942e-05
19810.0 1.0873e-05
19830.0 1.0805e-05
19850.0 1.0736e-05
19870.0 1.0666e-05
19890.0 1.0594e-05
19910.0 1.0518e-05
19930.0 1.0437e-05
19950.0 1.0347e-05
19970.0 1.0243e-05
19990.0 1.0124e-05
20010.0 9.9903e-06
20030.0 9.8375e-06
20050.0 9.6666e-06
20070.0 9.486e-06
20090.0 9.2976e-06
20110.0 9.0952e-06
20130.0 8.8948e-06
20150.0 8.6995e-06
20170.0 8.5028e-06
20190.0 8.3078e-06
20210.0 8.1234e-06
20230.0 7.9444e-06
20250.0 7.7665e-06
20270.0 7.5984e-06
20290.0 7.4404e-06
20310.0 7.287e-06
20330.0 7.1386e-06
20350.0 7.005e-06
20370.0 6.8783e-06
20390.0 6.7575e-06
20410.0 6.6466e-06
20430.0 6.5455e-06
20450.0 6.4492e-06
20470.0 6.3609e-06
20490.0 6.2812e-06
20510.0 6.2078e-06
20530.0 6.1397e-06
20550.0 6.078e-06
20570.0 6.0217e-06
20590.0 5.9691e-06
20610.0 5.9204e-06
20630.0 5.875e-06
20650.0 5.832e-06
20670.0 5.7908e-06
20690.0 5.751e-06
20710.0 5.7117e-06
20730.0 5.6726e-06
20750.0 5.6331e-06
20770.0 5.5927e-06
20790.0 5.5511e-06
20810.0 5.5078e-06
20830.0 5.4628e-06
20850.0 5.416e-06
20870.0 5.3666e-06
20890.0 5.3148e-06
20910.0 5.2617e-06
20930.0 5.2062e-06
20950.0 5.1484e-06
20970.0 5.0895e-06
20990.0 5.0297e-06
21010.0 4.9673e-06
21030.0 4.9044e-06
21050.0 4.8418e-06
21070.0 4.7782e-06
21090.0 4.7135e-06
21110.0 4.6505e-06
21130.0 4.5881e-06
21150.0 4.5253e-06
21170.0 4.4635e-06
21190.0 4.4038e-06
21210.0 4.344e-06
21230.0 4.2849e-06
21250.0 4.2283e-06
21270.0 4.1731e-06
21290.0 4.1186e-06
21310.0 4.0658e-06
21330.0 4.0158e-06
21350.0 3.9666e-06
21370.0 3.9188e-06
21390.0 3.8736e-06
21410.0 3.8301e-06
21430.0 3.7876e-06
21450.0 3.7476e-06
21470.0 3.7098e-06
21490.0 3.6735e-06
21510.0 3.6388e-06
21530.0 3.6062e-06
21550.0 3.5751e-06
21570.0 3.5453e-06
21590.0 3.517e-06
21610.0 3.49e-06
21630.0 3.464e-06
21650.0 3.439e-06
21670.0 3.4148e-06
21690.0 3.3914e-06
21710.0 3.3684e-06
21730.0 3.3459e-06
21750.0 3.3238e-06
21770.0 3.302e-06
21790.0 3.2805e-06
21810.0 3.2592e-06
21830.0 3.2381e-06
21850.0 3.2172e-06
21870.0 3.1964e-06
21890.0 3.1759e-06
21910.0 3.1555e-06
21930.0 3.1352e-06
21950.0 3.115e-06
21970.0 3.0949e-06
21990.0 3.0748e-06
22010.0 3.0546e-06
22030.0 3.0344e-06
22050.0 3.014e-06
22070.0 2.9933e-06
22090.0 2.9725e-06
22110.0 2.9512e-06
22130.0 2.9295e-06
22150.0 2.9074e-06
22170.0 2.8849e-06
22190.0 2.8617e-06
22210.0 2.838e-06
22230.0 2.8141e-06
22250.0 2.7895e-06
22270.0 2.7642e-06
22290.0 2.7387e-06
22310.0 2.7128e-06
22330.0 2.6857e-06
22350.0 2.6582e-06
22370.0 2.6304e-06
22390.0 2.6018e-06
22410.0 2.5719e-06
22430.0 2.5421e-06
22450.0 2.5116e-06
22470.0 2.4798e-06
22490.0 2.4475e-06
22510.0 2.4151e-06
22530.0 2.3813e-06
22550.0 2.3465e-06
22570.0 2.3121e-06
22590.0 2.2774e-06
22610.0 2.2417e-06
