#lamb flux
1010.0 1.2506e-07
1030.0 1.3738e-07
1050.0 1.5155e-07
1070.0 1.6751e-07
1090.0 1.8563e-07
1110.0 2.0422e-07
1130.0 2.2293e-07
1150.0 2.4253e-07
1170.0 2.6274e-07
1190.0 2.8191e-07
1210.0 3.0133e-07
1230.0 3.2141e-07
1250.0 3.4107e-07
1270.0 3.6017e-07
1290.0 3.8036e-07
1310.0 4.0052e-07
1330.0 4.1986e-07
1350.0 4.3941e-07
1370.0 4.596e-07
1390.0 4.7928e-07
1410.0 4.9838e-07
1430.0 5.1834e-07
1450.0 5.383e-07
1470.0 5.5759e-07
1490.0 5.7708e-07
1510.0 5.9766e-07
1530.0 6.1716e-07
1550.0 6.364e-07
1570.0 6.5629e-07
1590.0 6.762e-07
1610.0 6.9521e-07
1630.0 7.148e-07
1650.0 7.349e-07
1670.0 7.5432e-07
1690.0 7.7349e-07
1710.0 7.9338e-07
1730.0 8.1336e-07
1750.0 8.3211e-07
1770.0 8.514e-07
1790.0 8.7105e-07
1810.0 8.9001e-07
1830.0 9.086e-07
1850.0 9.283e-07
1870.0 9.4741e-07
1890.0 9.6579e-07
1910.0 9.8446e-07
1930.0 1.0035e-06
1950.0 1.0215e-06
1970.0 1.0392e-06
1990.0 1.0575e-06
2010.0 1.0752e-06
2030.0 1.0921e-06
2050.0 1.1094e-06
2070.0 1.1269e-06
2090.0 1.1431e-06
2110.0 1.1589e-06
2130.0 1.175e-06
2150.0 1.1903e-06
2170.0 1.2046e-06
2190.0 1.2191e-06
2210.0 1.2333e-06
2230.0 1.2463e-06
2250.0 1.2587e-06
2270.0 1.2715e-06
2290.0 1.2831e-06
2310.0 1.2935e-06
2330.0 1.3038e-06
2350.0 1.3137e-06
2370.0 1.3222e-06
2390.0 1.3305e-06
2410.0 1.3394e-06
2430.0 1.3477e-06
2450.0 1.356e-06
2470.0 1.3661e-06
2490.0 1.3793e-06
2510.0 1.3959e-06
2530.0 1.4223e-06
2550.0 1.468e-06
2570.0 1.5419e-06
2590.0 1.6542e-06
2610.0 1.8336e-06
2630.0 2.0832e-06
2650.0 2.3858e-06
2670.0 2.7419e-06
2690.0 3.1343e-06
2710.0 3.5054e-06
2730.0 3.8296e-06
2750.0 4.1131e-06
2770.0 4.3288e-06
2790.0 4.4774e-06
2810.0 4.5834e-06
2830.0 4.664e-06
2850.0 4.7175e-06
2870.0 4.7606e-06
2890.0 4.8034e-06
2910.0 4.844e-06
2930.0 4.8787e-06
2950.0 4.9164e-06
2970.0 4.9556e-06
2990.0 4.9899e-06
3010.0 4.9677e-05
3030.0 5.0021e-05
3050.0 5.0341e-05
3070.0 5.0562e-05
3090.0 5.0736e-05
3110.0 5.0792e-05
3130.0 5.0635e-05
3150.0 5.0239e-05
3170.0 4.9556e-05
3190.0 4.8602e-05
3210.0 4.7501e-05
3230.0 4.6369e-05
3250.0 4.5275e-05
3270.0 4.4705e-05
3290.0 4.4395e-05
3310.0 4.4983e-05
3330.0 4.5963e-05
3350.0 4.735e-05
3370.0 4.9184e-05
3390.0 5.1384e-05
3410.0 5.3679e-05
3430.0 5.6149e-05
3450.0 5.8845e-05
3470.0 6.1615e-05
3490.0 6.4394e-05
3510.0 6.7341e-05
3530.0 7.0359e-05
3550.0 7.3526e-05
3570.0 7.6955e-05
3590.0 8.0545e-05
3610.0 8.4578e-05
3630.0 8.8172e-05
3650.0 9.1773e-05
3670.0 9.4665e-05
3690.0 9.6757e-05
3710.0 9.7985e-05
3730.0 9.7909e-05
3750.0 9.7897e-05
3770.0 9.8434e-05
3790.0 0.00010132
3810.0 0.00010737
3830.0 0.00011547
3850.0 0.00012707
3870.0 0.00014257
3890.0 0.00016005
3910.0 0.00017785
3930.0 0.00019237
3950.0 0.00020141
3970.0 0.00017954
3990.0 0.00013952
4010.0 0.00013458
4030.0 0.00016333
4050.0 0.00018975
4070.0 0.00016752
4090.0 0.0001161
4110.0 0.00012082
4130.0 0.00015258
4150.0 0.00016808
4170.0 0.00014925
4190.0 0.00013368
4210.0 0.00016102
4230.0 0.00017476
4250.0 0.0001709
4270.0 0.00017395
4290.0 0.00016315
4310.0 0.00017579
4330.0 0.00020105
4350.0 0.00023595
4370.0 0.00024457
4390.0 0.00023371
4410.0 0.00020111
4430.0 0.0001643
4450.0 0.00012829
4470.0 0.00013096
4490.0 0.00014623
4510.0 0.00018992
4530.0 0.00020119
4550.0 0.00020345
4570.0 0.00023467
4590.0 0.00030146
4610.0 0.00041482
4630.0 0.00049908
4650.0 0.00049754
4670.0 0.00051035
4690.0 0.00055945
4710.0 0.00055139
4730.0 0.0004412
4750.0 0.00031777
4770.0 0.0002651
4790.0 0.00024408
4810.0 0.00022584
4830.0 0.00023837
4850.0 0.00027705
4870.0 0.00034379
4890.0 0.0003637
4910.0 0.00031364
4930.0 0.00031434
4950.0 0.00038835
4970.0 0.0005042
4990.0 0.00058929
5010.0 0.00058919
5030.0 0.00048535
5050.0 0.00033986
5070.0 0.00025007
5090.0 0.00021793
5110.0 0.00022215
5130.0 0.00024316
5150.0 0.0002346
5170.0 0.00023479
5190.0 0.00023163
5210.0 0.00023221
5230.0 0.0002478
5250.0 0.00025696
5270.0 0.00028788
5290.0 0.00034477
5310.0 0.00037857
5330.0 0.00039468
5350.0 0.00041314
5370.0 0.00044755
5390.0 0.00045985
5410.0 0.00041734
5430.0 0.00037328
5450.0 0.00037525
5470.0 0.00045094
5490.0 0.00058431
5510.0 0.00070448
5530.0 0.00074703
5550.0 0.00072097
5570.0 0.0006718
5590.0 0.00062076
5610.0 0.0005943
5630.0 0.00060188
5650.0 0.00061694
5670.0 0.00059923
5690.0 0.00056944
5710.0 0.00055091
5730.0 0.00048258
5750.0 0.00037269
5770.0 0.00033838
5790.0 0.00038193
5810.0 0.00043318
5830.0 0.00048504
5850.0 0.00050628
5870.0 0.00049521
5890.0 0.00045906
5910.0 0.0004324
5930.0 0.00043933
5950.0 0.00046701
5970.0 0.00047493
5990.0 0.00042386
6010.0 0.00034386
6030.0 0.00027625
6050.0 0.00025103
6070.0 0.00027001
6090.0 0.00030454
6110.0 0.00030763
6130.0 0.00028409
6150.0 0.00027982
6170.0 0.00031238
6190.0 0.00037204
6210.0 0.00044832
6230.0 0.00050059
6250.0 0.00048156
6270.0 0.00042311
6290.0 0.00034968
6310.0 0.00027588
6330.0 0.00023104
6350.0 0.0002263
6370.0 0.00024938
6390.0 0.00027724
6410.0 0.00032207
6430.0 0.00039007
6450.0 0.00047989
6470.0 0.00057726
6490.0 0.00066468
6510.0 0.00070015
6530.0 0.00066998
6550.0 0.00064339
6570.0 0.00064483
6590.0 0.00063455
6610.0 0.00059482
6630.0 0.00055801
6650.0 0.00052587
6670.0 0.00052519
6690.0 0.00051219
6710.0 0.00046192
6730.0 0.00040223
6750.0 0.00036314
6770.0 0.0003787
6790.0 0.00040457
6810.0 0.00043309
6830.0 0.00044137
6850.0 0.0004196
6870.0 0.00040323
6890.0 0.00039395
6910.0 0.00037299
6930.0 0.00035674
6950.0 0.0003613
6970.0 0.00037258
6990.0 0.00039971
7010.0 0.00042877
7030.0 0.00041711
7050.0 0.00037858
7070.0 0.00033354
7090.0 0.00028205
7110.0 0.00025539
7130.0 0.00027092
7150.0 0.00029204
7170.0 0.0002936
7190.0 0.00028518
7210.0 0.00028404
7230.0 0.0003209
7250.0 0.00037131
7270.0 0.00040637
7290.0 0.00041298
7310.0 0.00038699
7330.0 0.00035138
7350.0 0.00032387
7370.0 0.00031216
7390.0 0.00031369
7410.0 0.00033335
7430.0 0.00037849
7450.0 0.00042366
7470.0 0.00047685
7490.0 0.00053179
7510.0 0.00049348
7530.0 0.00043227
7550.0 0.0003681
7570.0 0.00030843
7590.0 0.00025221
7610.0 0.00024268
7630.0 0.00025971
7650.0 0.00029098
7670.0 0.00033286
7690.0 0.0003672
7710.0 0.00041196
7730.0 0.00043605
7750.0 0.00045247
7770.0 0.00046837
7790.0 0.00046852
7810.0 0.00046692
7830.0 0.0004502
7850.0 0.00043674
7870.0 0.00041895
7890.0 0.00038317
7910.0 0.00034684
7930.0 0.00031082
7950.0 0.00027329
7970.0 0.00026155
7990.0 0.00027245
8010.0 0.00030554
8030.0 0.00030833
8050.0 0.00031748
8070.0 0.00031361
8090.0 0.00031349
8110.0 0.00030477
8130.0 0.00028616
8150.0 0.00026729
8170.0 0.00026507
8190.0 0.0002692
8210.0 0.00027228
8230.0 0.00026035
8250.0 0.00024691
8270.0 0.0002176
8290.0 0.00017672
8310.0 0.00013589
8330.0 9.5053e-05
8350.0 7.0216e-05
8370.0 6.7056e-05
8390.0 7.705e-05
8410.0 9.3561e-05
8430.0 0.00011629
8450.0 0.00012844
8470.0 0.00013693
8490.0 0.00014787
8510.0 0.00015766
8530.0 0.00017465
8550.0 0.00020596
8570.0 0.00023799
8590.0 0.00026535
8610.0 0.00030732
8630.0 0.00035622
8650.0 0.00037872
8670.0 0.00038292
8690.0 0.00037739
8710.0 0.0003625
8730.0 0.00034779
8750.0 0.00032904
8770.0 0.00032232
8790.0 0.00031087
8810.0 0.00028809
8830.0 0.00026875
8850.0 0.00023255
8870.0 0.00021067
8890.0 0.00019521
8910.0 0.00021151
8930.0 0.00020297
8950.0 0.00020725
8970.0 0.00021067
8990.0 0.00021073
9010.0 0.00021338
9030.0 0.00020736
9050.0 0.00020696
9070.0 0.00020715
9090.0 0.00020735
9110.0 0.00020759
9130.0 0.00020781
9150.0 0.00020804
9170.0 0.00020805
9190.0 0.00020776
9210.0 0.00020956
9230.0 0.0002095
9250.0 0.00020966
9270.0 0.00020988
9290.0 0.00021015
9310.0 0.00021046
9330.0 0.0002108
9350.0 0.00021116
9370.0 0.00021155
9390.0 0.00021194
9410.0 0.00021236
9430.0 0.00021279
9450.0 0.00021323
9470.0 0.00021369
9490.0 0.00021417
9510.0 0.00021465
9530.0 0.00021515
9550.0 0.00021567
9570.0 0.0002162
9590.0 0.00021675
9610.0 0.0002173
9630.0 0.00021788
9650.0 0.00021846
9670.0 0.00021906
9690.0 0.00021967
9710.0 0.0002203
9730.0 0.00022094
9750.0 0.00022159
9770.0 0.00022225
9790.0 0.00022293
9810.0 0.00022361
9830.0 0.00022431
9850.0 0.00022502
9870.0 0.00022573
9890.0 0.00022645
9910.0 0.00022719
9930.0 0.00022793
9950.0 0.00022856
9970.0 0.00022935
9990.0 0.00023014
10010.0 0.00023085
10030.0 0.00023163
10050.0 0.00023234
10070.0 0.00023266
10090.0 0.0002336
10110.0 0.00023452
10130.0 0.00023539
10150.0 0.00023624
10170.0 0.00023706
10190.0 0.00023784
10210.0 0.00023863
10230.0 0.00023941
10250.0 0.00024017
10270.0 0.00024093
10290.0 0.0002417
10310.0 0.00024244
10330.0 0.00024315
10350.0 0.00024389
10370.0 0.00024461
10390.0 0.0002453
10410.0 0.00024599
10430.0 0.00024669
10450.0 0.00024735
10470.0 0.00024799
10490.0 0.00024864
10510.0 0.00024927
10530.0 0.00024985
10550.0 0.00025043
10570.0 0.00025101
10590.0 0.00025155
10610.0 0.00025206
10630.0 0.00025258
10650.0 0.00025307
10670.0 0.00025352
10690.0 0.00025396
10710.0 0.00025438
10730.0 0.00025477
10750.0 0.00025512
10770.0 0.00025547
10790.0 0.00025579
10810.0 0.00025607
10830.0 0.00025632
10850.0 0.00025654
10870.0 0.00025664
10890.0 0.0002566
10910.0 0.00025637
10930.0 0.00025577
10950.0 0.00025458
10970.0 0.00025269
10990.0 0.00025005
11010.0 0.00024775
11030.0 0.00024258
11050.0 0.00023666
11070.0 0.00022988
11090.0 0.00022206
11110.0 0.00021429
11130.0 0.00020651
11150.0 0.00019853
11170.0 0.00019078
11190.0 0.00018374
11210.0 0.000177
11230.0 0.00017066
11250.0 0.00016515
11270.0 0.00016033
11290.0 0.00015596
11310.0 0.00015221
11330.0 0.00014917
11350.0 0.00014646
11370.0 0.00014401
11390.0 0.00014184
11410.0 0.00013978
11430.0 0.00013758
11450.0 0.0001353
11470.0 0.00013291
11490.0 0.00013023
11510.0 0.0001272
11530.0 0.00012404
11550.0 0.0001207
11570.0 0.00011705
11590.0 0.00011332
11610.0 0.00010964
11630.0 0.00010584
11650.0 0.00010202
11670.0 9.849e-05
11690.0 9.5129e-05
11710.0 9.1864e-05
11730.0 8.8863e-05
11750.0 8.6189e-05
11770.0 8.3637e-05
11790.0 8.1267e-05
11810.0 7.9149e-05
11830.0 7.7181e-05
11850.0 7.5243e-05
11870.0 7.3443e-05
11890.0 7.1742e-05
11910.0 7.0011e-05
11930.0 6.8253e-05
11950.0 6.653e-05
11970.0 6.4756e-05
11990.0 6.287e-05
12010.0 6.0988e-05
12030.0 5.9119e-05
12050.0 5.7194e-05
12070.0 5.5256e-05
12090.0 5.3481e-05
12110.0 5.1773e-05
12130.0 5.0158e-05
12150.0 4.8748e-05
12170.0 4.7571e-05
12190.0 4.6581e-05
12210.0 4.5884e-05
12230.0 4.5492e-05
12250.0 4.5393e-05
12270.0 4.5619e-05
12290.0 4.6139e-05
12310.0 4.6906e-05
12330.0 4.7974e-05
12350.0 4.927e-05
12370.0 5.069e-05
12390.0 5.226e-05
12410.0 5.4011e-05
12430.0 5.5681e-05
12450.0 5.7299e-05
12470.0 5.8903e-05
12490.0 6.0379e-05
12510.0 6.1627e-05
12530.0 6.274e-05
12550.0 6.3671e-05
12570.0 6.4339e-05
12590.0 6.4777e-05
12610.0 6.5014e-05
12630.0 6.5015e-05
12650.0 6.4796e-05
12670.0 6.4393e-05
12690.0 6.3806e-05
12710.0 6.3074e-05
12730.0 6.222e-05
12750.0 6.1217e-05
12770.0 6.0132e-05
12790.0 5.8998e-05
12810.0 5.7786e-05
12830.0 5.6495e-05
12850.0 5.521e-05
12870.0 5.3895e-05
12890.0 5.2501e-05
12910.0 5.1085e-05
12930.0 4.9669e-05
12950.0 4.8164e-05
12970.0 4.6588e-05
12990.0 4.5037e-05
13010.0 4.3454e-05
13030.0 4.1803e-05
13050.0 4.0169e-05
13070.0 3.8603e-05
13090.0 3.7017e-05
13110.0 3.548e-05
13130.0 3.4073e-05
13150.0 3.2768e-05
13170.0 3.1541e-05
13190.0 3.0504e-05
13210.0 2.9648e-05
13230.0 2.8934e-05
13250.0 2.8393e-05
13270.0 2.8032e-05
13290.0 2.7821e-05
13310.0 2.776e-05
13330.0 2.7832e-05
13350.0 2.8005e-05
13370.0 2.8277e-05
13390.0 2.8626e-05
13410.0 2.8987e-05
13430.0 2.9377e-05
13450.0 2.9783e-05
13470.0 3.016e-05
13490.0 3.0499e-05
13510.0 3.0828e-05
13530.0 3.1108e-05
13550.0 3.1332e-05
13570.0 3.152e-05
13590.0 3.1677e-05
13610.0 3.1794e-05
13630.0 3.1879e-05
13650.0 3.1951e-05
13670.0 3.2004e-05
13690.0 3.2038e-05
13710.0 3.2062e-05
13730.0 3.208e-05
13750.0 3.2078e-05
13770.0 3.2062e-05
13790.0 3.2028e-05
13810.0 3.1971e-05
13830.0 3.1887e-05
13850.0 3.1772e-05
13870.0 3.1621e-05
13890.0 3.1434e-05
13910.0 3.1213e-05
13930.0 3.0948e-05
13950.0 3.065e-05
13970.0 3.0339e-05
13990.0 3.0002e-05
14010.0 2.9649e-05
14030.0 2.9305e-05
14050.0 2.897e-05
14070.0 2.8636e-05
14090.0 2.8333e-05
14110.0 2.8064e-05
14130.0 2.7821e-05
14150.0 2.7608e-05
14170.0 2.7438e-05
14190.0 2.7301e-05
14210.0 2.7196e-05
14230.0 2.7129e-05
14250.0 2.7096e-05
14270.0 2.7101e-05
14290.0 2.7147e-05
14310.0 2.7226e-05
14330.0 2.7343e-05
14350.0 2.7504e-05
14370.0 2.7697e-05
14390.0 2.7913e-05
14410.0 2.8168e-05
14430.0 2.8451e-05
14450.0 2.8743e-05
14470.0 2.9055e-05
14490.0 2.9402e-05
14510.0 2.9754e-05
14530.0 3.0115e-05
14550.0 3.0517e-05
14570.0 3.0958e-05
14590.0 3.1422e-05
14610.0 3.1947e-05
14630.0 3.2561e-05
14650.0 3.3229e-05
14670.0 3.3962e-05
14690.0 3.4804e-05
14710.0 3.5746e-05
14730.0 3.6707e-05
14750.0 3.7754e-05
14770.0 3.8886e-05
14790.0 4.0025e-05
14810.0 4.1151e-05
14830.0 4.2343e-05
14850.0 4.3483e-05
14870.0 4.4525e-05
14890.0 4.5507e-05
14910.0 4.641e-05
14930.0 4.7163e-05
14950.0 4.7775e-05
14970.0 4.8275e-05
14990.0 4.863e-05
15010.0 4.8852e-05
15030.0 4.8971e-05
15050.0 4.9002e-05
15070.0 4.8967e-05
15090.0 4.889e-05
15110.0 4.8784e-05
15130.0 4.8663e-05
15150.0 4.8541e-05
15170.0 4.841e-05
15190.0 4.8276e-05
15210.0 4.8147e-05
15230.0 4.802e-05
15250.0 4.7887e-05
15270.0 4.7757e-05
15290.0 4.7636e-05
15310.0 4.751e-05
15330.0 4.7383e-05
15350.0 4.7262e-05
15370.0 4.7142e-05
15390.0 4.7014e-05
15410.0 4.6892e-05
15430.0 4.6775e-05
15450.0 4.6654e-05
15470.0 4.653e-05
15490.0 4.6415e-05
15510.0 4.6299e-05
15530.0 4.6179e-05
15550.0 4.6061e-05
15570.0 4.5949e-05
15590.0 4.583e-05
15610.0 4.571e-05
15630.0 4.5597e-05
15650.0 4.5483e-05
15670.0 4.5365e-05
15690.0 4.5251e-05
15710.0 4.5141e-05
15730.0 4.5025e-05
15750.0 4.4908e-05
15770.0 4.4797e-05
15790.0 4.4685e-05
15810.0 4.4565e-05
15830.0 4.4452e-05
15850.0 4.4342e-05
15870.0 4.4227e-05
15890.0 4.4111e-05
15910.0 4.4002e-05
15930.0 4.3889e-05
15950.0 4.377e-05
15970.0 4.3657e-05
15990.0 4.3545e-05
16010.0 4.3429e-05
16030.0 4.331e-05
16050.0 4.32e-05
16070.0 4.3086e-05
16090.0 4.2968e-05
16110.0 4.2854e-05
16130.0 4.2743e-05
16150.0 4.2621e-05
16170.0 4.2503e-05
16190.0 4.2389e-05
16210.0 4.2272e-05
16230.0 4.2151e-05
16250.0 4.2034e-05
16270.0 4.192e-05
16290.0 4.1798e-05
16310.0 4.1678e-05
16330.0 4.1561e-05
16350.0 4.1441e-05
16370.0 4.1314e-05
16390.0 4.1195e-05
16410.0 4.1076e-05
16430.0 4.0951e-05
16450.0 4.0828e-05
16470.0 4.0709e-05
16490.0 4.0584e-05
16510.0 4.0456e-05
16530.0 4.0333e-05
16550.0 4.0209e-05
16570.0 4.0079e-05
16590.0 3.995e-05
16610.0 3.9827e-05
16630.0 3.9699e-05
16650.0 3.9567e-05
16670.0 3.9441e-05
16690.0 3.9314e-05
16710.0 3.9177e-05
16730.0 3.9046e-05
16750.0 3.8917e-05
16770.0 3.8783e-05
16790.0 3.8646e-05
16810.0 3.8516e-05
16830.0 3.8383e-05
16850.0 3.8245e-05
16870.0 3.8109e-05
16890.0 3.7977e-05
16910.0 3.7837e-05
16930.0 3.7694e-05
16950.0 3.7559e-05
16970.0 3.7421e-05
16990.0 3.7278e-05
17010.0 3.7138e-05
17030.0 3.7001e-05
17050.0 3.6857e-05
17070.0 3.6712e-05
17090.0 3.6571e-05
17110.0 3.6428e-05
17130.0 3.6278e-05
17150.0 3.6134e-05
17170.0 3.5992e-05
17190.0 3.5843e-05
17210.0 3.5694e-05
17230.0 3.5551e-05
17250.0 3.5403e-05
17270.0 3.5249e-05
17290.0 3.51e-05
17310.0 3.4953e-05
17330.0 3.4799e-05
17350.0 3.4644e-05
17370.0 3.4497e-05
17390.0 3.4345e-05
17410.0 3.4189e-05
17430.0 3.4037e-05
17450.0 3.3887e-05
17470.0 3.3726e-05
17490.0 3.3569e-05
17510.0 3.3416e-05
17530.0 3.326e-05
17550.0 3.3099e-05
17570.0 3.2944e-05
17590.0 3.2789e-05
17610.0 3.2627e-05
17630.0 3.2467e-05
17650.0 3.2311e-05
17670.0 3.2151e-05
17690.0 3.1984e-05
17710.0 3.1826e-05
17730.0 3.1667e-05
17750.0 3.1503e-05
17770.0 3.134e-05
17790.0 3.1182e-05
17810.0 3.1017e-05
17830.0 3.085e-05
17850.0 3.0689e-05
17870.0 3.0526e-05
17890.0 3.0357e-05
17910.0 3.0191e-05
17930.0 3.0031e-05
17950.0 2.9864e-05
17970.0 2.9696e-05
17990.0 2.9533e-05
18010.0 2.9369e-05
18030.0 2.9196e-05
18050.0 2.9029e-05
18070.0 2.8865e-05
18090.0 2.8696e-05
18110.0 2.8524e-05
18130.0 2.836e-05
18150.0 2.8194e-05
18170.0 2.8022e-05
18190.0 2.7853e-05
18210.0 2.7688e-05
18230.0 2.7516e-05
18250.0 2.7343e-05
18270.0 2.7177e-05
18290.0 2.7008e-05
18310.0 2.6835e-05
18330.0 2.6666e-05
18350.0 2.6501e-05
18370.0 2.6328e-05
18390.0 2.6155e-05
18410.0 2.5988e-05
18430.0 2.5818e-05
18450.0 2.5642e-05
18470.0 2.5473e-05
18490.0 2.5306e-05
18510.0 2.5133e-05
18530.0 2.4961e-05
18550.0 2.4795e-05
18570.0 2.4624e-05
18590.0 2.4449e-05
18610.0 2.4279e-05
18630.0 2.4111e-05
18650.0 2.3938e-05
18670.0 2.3764e-05
18690.0 2.3599e-05
18710.0 2.3428e-05
18730.0 2.3255e-05
18750.0 2.3087e-05
18770.0 2.292e-05
18790.0 2.2744e-05
18810.0 2.2572e-05
18830.0 2.2406e-05
18850.0 2.2236e-05
18870.0 2.2062e-05
18890.0 2.1895e-05
18910.0 2.1729e-05
18930.0 2.1556e-05
18950.0 2.1386e-05
18970.0 2.122e-05
18990.0 2.1051e-05
19010.0 2.0875e-05
19030.0 2.071e-05
19050.0 2.0544e-05
19070.0 2.0373e-05
19090.0 2.0205e-05
19110.0 2.0042e-05
19130.0 1.9872e-05
19150.0 1.9701e-05
19170.0 1.9536e-05
19190.0 1.937e-05
19210.0 1.9199e-05
19230.0 1.9032e-05
19250.0 1.887e-05
19270.0 1.8703e-05
19290.0 1.8535e-05
19310.0 1.8372e-05
19330.0 1.8209e-05
19350.0 1.8038e-05
19370.0 1.7873e-05
19390.0 1.7712e-05
19410.0 1.7546e-05
19430.0 1.7379e-05
19450.0 1.7219e-05
19470.0 1.7057e-05
19490.0 1.689e-05
19510.0 1.6728e-05
19530.0 1.6569e-05
19550.0 1.6403e-05
19570.0 1.6238e-05
19590.0 1.6079e-05
19610.0 1.5919e-05
19630.0 1.5755e-05
19650.0 1.5595e-05
19670.0 1.5439e-05
19690.0 1.5275e-05
19710.0 1.5114e-05
19730.0 1.4957e-05
19750.0 1.4798e-05
19770.0 1.4634e-05
19790.0 1.4477e-05
19810.0 1.4322e-05
19830.0 1.4162e-05
19850.0 1.4001e-05
19870.0 1.3845e-05
19890.0 1.3681e-05
19910.0 1.3506e-05
19930.0 1.3326e-05
19950.0 1.3132e-05
19970.0 1.291e-05
19990.0 1.2661e-05
20010.0 1.2397e-05
20030.0 1.2098e-05
20050.0 1.1773e-05
20070.0 1.1445e-05
20090.0 1.1117e-05
20110.0 1.0775e-05
20130.0 1.0459e-05
20150.0 1.0172e-05
20170.0 9.9014e-06
20190.0 9.6538e-06
20210.0 9.4428e-06
20230.0 9.2575e-06
20250.0 9.0923e-06
20270.0 8.9568e-06
20290.0 8.8483e-06
20310.0 8.76e-06
20330.0 8.6928e-06
20350.0 8.6498e-06
20370.0 8.6249e-06
20390.0 8.6185e-06
20410.0 8.6301e-06
20430.0 8.6573e-06
20450.0 8.7037e-06
20470.0 8.7676e-06
20490.0 8.8452e-06
20510.0 8.9391e-06
20530.0 9.0532e-06
20550.0 9.1796e-06
20570.0 9.3141e-06
20590.0 9.4666e-06
20610.0 9.6302e-06
20630.0 9.7954e-06
20650.0 9.968e-06
20670.0 1.0153e-05
20690.0 1.033e-05
20710.0 1.0501e-05
20730.0 1.0675e-05
20750.0 1.0843e-05
20770.0 1.0997e-05
20790.0 1.1149e-05
20810.0 1.1299e-05
20830.0 1.144e-05
20850.0 1.1575e-05
20870.0 1.1717e-05
20890.0 1.1861e-05
20910.0 1.2e-05
20930.0 1.2147e-05
20950.0 1.2303e-05
20970.0 1.246e-05
20990.0 1.2618e-05
21010.0 1.2787e-05
21030.0 1.2954e-05
21050.0 1.3111e-05
21070.0 1.3265e-05
21090.0 1.3414e-05
21110.0 1.3541e-05
21130.0 1.3652e-05
21150.0 1.3747e-05
21170.0 1.3821e-05
21190.0 1.387e-05
21210.0 1.3899e-05
21230.0 1.3905e-05
21250.0 1.3887e-05
21270.0 1.3848e-05
21290.0 1.3787e-05
21310.0 1.3705e-05
21330.0 1.3609e-05
21350.0 1.3493e-05
21370.0 1.3359e-05
21390.0 1.3216e-05
21410.0 1.3063e-05
21430.0 1.2891e-05
21450.0 1.2717e-05
21470.0 1.2543e-05
21490.0 1.2361e-05
21510.0 1.2177e-05
21530.0 1.2002e-05
21550.0 1.1831e-05
21570.0 1.166e-05
21590.0 1.1503e-05
21610.0 1.136e-05
21630.0 1.1228e-05
21650.0 1.1108e-05
21670.0 1.1014e-05
21690.0 1.0936e-05
21710.0 1.0876e-05
21730.0 1.0839e-05
21750.0 1.0823e-05
21770.0 1.0828e-05
21790.0 1.0857e-05
21810.0 1.0904e-05
21830.0 1.0972e-05
21850.0 1.1064e-05
21870.0 1.1172e-05
21890.0 1.1292e-05
21910.0 1.1433e-05
21930.0 1.1589e-05
21950.0 1.1751e-05
21970.0 1.1926e-05
21990.0 1.2119e-05
22010.0 1.231e-05
22030.0 1.2503e-05
22050.0 1.2705e-05
22070.0 1.2908e-05
22090.0 1.31e-05
22110.0 1.3294e-05
22130.0 1.3486e-05
22150.0 1.3664e-05
22170.0 1.3829e-05
22190.0 1.3989e-05
22210.0 1.4131e-05
22230.0 1.425e-05
22250.0 1.4352e-05
22270.0 1.4434e-05
22290.0 1.4491e-05
22310.0 1.4523e-05
22330.0 1.4529e-05
22350.0 1.4507e-05
22370.0 1.4458e-05
22390.0 1.4381e-05
22410.0 1.427e-05
22430.0 1.4137e-05
22450.0 1.398e-05
22470.0 1.379e-05
22490.0 1.3578e-05
22510.0 1.3351e-05
22530.0 1.3095e-05
22550.0 1.2815e-05
22570.0 1.2531e-05
22590.0 1.2235e-05
22610.0 1.1918e-05
