#lamb flux
1010.0 1.1622e-08
1030.0 1.2854e-08
1050.0 1.4271e-08
1070.0 1.5866e-08
1090.0 1.7678e-08
1110.0 1.9537e-08
1130.0 2.1407e-08
1150.0 2.3366e-08
1170.0 2.5387e-08
1190.0 2.7304e-08
1210.0 2.9246e-08
1230.0 3.1253e-08
1250.0 3.3219e-08
1270.0 3.5129e-08
1290.0 3.7147e-08
1310.0 3.9163e-08
1330.0 4.1097e-08
1350.0 4.3053e-08
1370.0 4.5072e-08
1390.0 4.704e-08
1410.0 4.895e-08
1430.0 5.0947e-08
1450.0 5.2944e-08
1470.0 5.4874e-08
1490.0 5.6825e-08
1510.0 5.8886e-08
1530.0 6.0839e-08
1550.0 6.2766e-08
1570.0 6.476e-08
1590.0 6.6756e-08
1610.0 6.8664e-08
1630.0 7.0632e-08
1650.0 7.2652e-08
1670.0 7.4607e-08
1690.0 7.6539e-08
1710.0 7.8546e-08
1730.0 8.0566e-08
1750.0 8.2468e-08
1770.0 8.4427e-08
1790.0 8.6428e-08
1810.0 8.8368e-08
1830.0 9.0276e-08
1850.0 9.2305e-08
1870.0 9.4284e-08
1890.0 9.62e-08
1910.0 9.8158e-08
1930.0 1.0017e-07
1950.0 1.0209e-07
1970.0 1.0399e-07
1990.0 1.0597e-07
2010.0 1.0792e-07
2030.0 1.0981e-07
2050.0 1.1176e-07
2070.0 1.1376e-07
2090.0 1.1565e-07
2110.0 1.1754e-07
2130.0 1.195e-07
2150.0 1.2142e-07
2170.0 1.2325e-07
2190.0 1.2517e-07
2210.0 1.2709e-07
2230.0 1.2895e-07
2250.0 1.3079e-07
2270.0 1.3273e-07
2290.0 1.346e-07
2310.0 1.364e-07
2330.0 1.3828e-07
2350.0 1.402e-07
2370.0 1.4212e-07
2390.0 1.442e-07
2410.0 1.4666e-07
2430.0 1.4949e-07
2450.0 1.5287e-07
2470.0 1.5721e-07
2490.0 1.6267e-07
2510.0 1.6888e-07
2530.0 1.7635e-07
2550.0 1.8571e-07
2570.0 1.9735e-07
2590.0 2.1249e-07
2610.0 2.3516e-07
2630.0 2.6753e-07
2650.0 3.0985e-07
2670.0 3.6456e-07
2690.0 4.318e-07
2710.0 5.0358e-07
2730.0 5.745e-07
2750.0 6.4435e-07
2770.0 7.0511e-07
2790.0 7.5336e-07
2810.0 7.9166e-07
2830.0 8.2157e-07
2850.0 8.4199e-07
2870.0 8.5698e-07
2890.0 8.6885e-07
2910.0 8.7832e-07
2930.0 8.8606e-07
2950.0 8.9344e-07
2970.0 9.0067e-07
2990.0 9.0744e-07
3010.0 2.5649e-05
3030.0 2.5841e-05
3050.0 2.6026e-05
3070.0 2.6185e-05
3090.0 2.6322e-05
3110.0 2.6406e-05
3130.0 2.6403e-05
3150.0 2.6286e-05
3170.0 2.6004e-05
3190.0 2.5562e-05
3210.0 2.5001e-05
3230.0 2.436e-05
3250.0 2.3726e-05
3270.0 2.3263e-05
3290.0 2.3006e-05
3310.0 2.3048e-05
3330.0 2.3381e-05
3350.0 2.3962e-05
3370.0 2.4792e-05
3390.0 2.5837e-05
3410.0 2.6974e-05
3430.0 2.8251e-05
3450.0 2.9722e-05
3470.0 3.1327e-05
3490.0 3.3029e-05
3510.0 3.4952e-05
3530.0 3.7011e-05
3550.0 3.9096e-05
3570.0 4.1271e-05
3590.0 4.3637e-05
3610.0 4.6074e-05
3630.0 4.8504e-05
3650.0 5.1025e-05
3670.0 5.3326e-05
3690.0 5.5047e-05
3710.0 5.6033e-05
3730.0 5.6065e-05
3750.0 5.5285e-05
3770.0 5.4979e-05
3790.0 5.4652e-05
3810.0 5.3309e-05
3830.0 5.4959e-05
3850.0 6.145e-05
3870.0 6.5014e-05
3890.0 6.4717e-05
3910.0 6.4993e-05
3930.0 6.6704e-05
3950.0 6.7757e-05
3970.0 6.1733e-05
3990.0 5.3118e-05
4010.0 0.0001592
4030.0 0.0001929
4050.0 0.00022114
4070.0 0.00019188
4090.0 0.00017378
4110.0 0.00015335
4130.0 0.00014114
4150.0 0.00015013
4170.0 0.00014789
4190.0 0.00015764
4210.0 0.00015619
4230.0 0.00016521
4250.0 0.00019545
4270.0 0.00019775
4290.0 0.00018222
4310.0 0.00018934
4330.0 0.0002014
4350.0 0.00022582
4370.0 0.00025699
4390.0 0.00024116
4410.0 0.00017817
4430.0 0.00015083
4450.0 0.0001386
4470.0 0.00010638
4490.0 0.0001148
4510.0 0.00017341
4530.0 0.00019999
4550.0 0.00020172
4570.0 0.00022699
4590.0 0.00025856
4610.0 0.00034874
4630.0 0.00045294
4650.0 0.00049121
4670.0 0.0004549
4690.0 0.00043406
4710.0 0.00045883
4730.0 0.00043301
4750.0 0.00032373
4770.0 0.00023747
4790.0 0.00022175
4810.0 0.00021136
4830.0 0.0001935
4850.0 0.00021233
4870.0 0.00028051
4890.0 0.0003308
4910.0 0.00029024
4930.0 0.00025682
4950.0 0.00028215
4970.0 0.00036184
4990.0 0.00049039
5010.0 0.00056412
5030.0 0.00049743
5050.0 0.00033654
5070.0 0.00022179
5090.0 0.00017884
5110.0 0.00018392
5130.0 0.00021228
5150.0 0.00022998
5170.0 0.00022653
5190.0 0.00021168
5210.0 0.00022125
5230.0 0.00023259
5250.0 0.00025066
5270.0 0.00027044
5290.0 0.0002997
5310.0 0.00034884
5330.0 0.00038604
5350.0 0.00038357
5370.0 0.0004029
5390.0 0.00046233
5410.0 0.00046191
5430.0 0.00040849
5450.0 0.0003753
5470.0 0.0003985
5490.0 0.00048685
5510.0 0.00060873
5530.0 0.00069818
5550.0 0.00067479
5570.0 0.00061343
5590.0 0.00053338
5610.0 0.00049189
5630.0 0.00047698
5650.0 0.00045427
5670.0 0.00043045
5690.0 0.00038482
5710.0 0.0003752
5730.0 0.00034562
5750.0 0.00024368
5770.0 0.00019011
5790.0 0.00021543
5810.0 0.00024325
5830.0 0.00029851
5850.0 0.00035534
5870.0 0.00039425
5890.0 0.00040092
5910.0 0.00039333
5930.0 0.0003744
5950.0 0.0003815
5970.0 0.00043487
5990.0 0.00040889
6010.0 0.00034277
6030.0 0.00028959
6050.0 0.00025219
6070.0 0.00025082
6090.0 0.00027197
6110.0 0.00030411
6130.0 0.00030876
6150.0 0.00026566
6170.0 0.0002337
6190.0 0.000263
6210.0 0.00034768
6230.0 0.00045625
6250.0 0.00049419
6270.0 0.00043185
6290.0 0.00036334
6310.0 0.00028365
6330.0 0.00021733
6350.0 0.00019385
6370.0 0.00020386
6390.0 0.00023567
6410.0 0.00029059
6430.0 0.00033933
6450.0 0.00038828
6470.0 0.00044459
6490.0 0.00053704
6510.0 0.00060048
6530.0 0.00058911
6550.0 0.00053271
6570.0 0.00045222
6590.0 0.00040778
6610.0 0.00035161
6630.0 0.00031855
6650.0 0.00030112
6670.0 0.00029253
6690.0 0.00026432
6710.0 0.00024027
6730.0 0.00017306
6750.0 0.00017157
6770.0 0.00018649
6790.0 0.00021435
6810.0 0.00019614
6830.0 0.00020197
6850.0 0.0001889
6870.0 0.00017256
6890.0 0.00016569
6910.0 0.00017656
6930.0 0.00016537
6950.0 0.00017014
6970.0 0.00017896
6990.0 0.00020313
7010.0 0.00020486
7030.0 0.00020812
7050.0 0.00019847
7070.0 0.00018911
7090.0 0.00018966
7110.0 0.00019515
7130.0 0.00021001
7150.0 0.00022305
7170.0 0.00024612
7190.0 0.00027055
7210.0 0.00026585
7230.0 0.0002733
7250.0 0.00029371
7270.0 0.00032007
7290.0 0.00037989
7310.0 0.00041222
7330.0 0.00039844
7350.0 0.00036037
7370.0 0.00031355
7390.0 0.00030418
7410.0 0.00032325
7430.0 0.00035926
7450.0 0.0003913
7470.0 0.0003877
7490.0 0.00035351
7510.0 0.00040044
7530.0 0.00039606
7550.0 0.00035599
7570.0 0.00027809
7590.0 0.00019118
7610.0 0.00016409
7630.0 0.00018644
7650.0 0.00022044
7670.0 0.00027436
7690.0 0.00030191
7710.0 0.00031463
7730.0 0.00033064
7750.0 0.00037118
7770.0 0.00037702
7790.0 0.00034631
7810.0 0.00031599
7830.0 0.00032586
7850.0 0.00031677
7870.0 0.00029042
7890.0 0.00024401
7910.0 0.00019835
7930.0 0.0001894
7950.0 0.00017255
7970.0 0.00015972
7990.0 0.00015881
8010.0 1.1891e-05
8030.0 1.1721e-05
8050.0 1.1577e-05
8070.0 1.1756e-05
8090.0 1.267e-05
8110.0 1.2447e-05
8130.0 1.0202e-05
8150.0 9.9517e-06
8170.0 8.5194e-06
8190.0 8.037e-06
8210.0 1.053e-05
8230.0 1.174e-05
8250.0 1.0487e-05
8270.0 9.1158e-06
8290.0 8.9516e-06
8310.0 6.906e-06
8330.0 4.6501e-06
8350.0 3.3044e-06
8370.0 2.055e-06
8390.0 3.8031e-06
8410.0 4.4293e-06
8430.0 5.4595e-06
8450.0 6.4086e-06
8470.0 8.0042e-06
8490.0 7.9251e-06
8510.0 7.7712e-06
8530.0 8.0628e-06
8550.0 1.0982e-05
8570.0 1.3055e-05
8590.0 1.3993e-05
8610.0 1.7719e-05
8630.0 2.132e-05
8650.0 2.2168e-05
8670.0 2.3621e-05
8690.0 2.3871e-05
8710.0 2.1598e-05
8730.0 2.0129e-05
8750.0 1.7735e-05
8770.0 1.6812e-05
8790.0 1.6543e-05
8810.0 1.5882e-05
8830.0 1.2635e-05
8850.0 9.2008e-06
8870.0 7.0373e-06
8890.0 6.9483e-06
8910.0 8.0119e-06
8930.0 9.1485e-06
8950.0 9.3377e-06
8970.0 9.3698e-06
8990.0 8.3151e-06
9010.0 8.5604e-05
9030.0 7.7518e-05
9050.0 7.7898e-05
9070.0 7.8519e-05
9090.0 7.9064e-05
9110.0 7.9736e-05
9130.0 8.0255e-05
9150.0 8.0658e-05
9170.0 8.1087e-05
9190.0 8.1545e-05
9210.0 8.2028e-05
9230.0 8.2537e-05
9250.0 8.3054e-05
9270.0 8.3591e-05
9290.0 8.4144e-05
9310.0 8.47e-05
9330.0 8.5268e-05
9350.0 8.5856e-05
9370.0 8.6451e-05
9390.0 8.7052e-05
9410.0 8.767e-05
9430.0 8.8307e-05
9450.0 8.8942e-05
9470.0 8.959e-05
9490.0 9.0256e-05
9510.0 9.093e-05
9530.0 9.1608e-05
9550.0 9.2309e-05
9570.0 9.3022e-05
9590.0 9.3737e-05
9610.0 9.4465e-05
9630.0 9.5212e-05
9650.0 9.5965e-05
9670.0 9.6719e-05
9690.0 9.7494e-05
9710.0 9.8281e-05
9730.0 9.9069e-05
9750.0 9.9869e-05
9770.0 0.00010069
9790.0 0.00010152
9810.0 0.00010234
9830.0 0.00010319
9850.0 0.00010404
9870.0 0.00010489
9890.0 0.00010576
9910.0 0.00010664
9930.0 0.00010752
9950.0 0.00010841
9970.0 0.00010931
9990.0 0.00011023
10010.0 9.565e-05
10030.0 9.6439e-05
10050.0 9.7244e-05
10070.0 9.8075e-05
10090.0 9.886e-05
10110.0 9.9664e-05
10130.0 0.00010047
10150.0 0.00010128
10170.0 0.00010209
10190.0 0.00010292
10210.0 0.00010374
10230.0 0.00010455
10250.0 0.00010538
10270.0 0.00010621
10290.0 0.00010703
10310.0 0.00010786
10330.0 0.0001087
10350.0 0.00010952
10370.0 0.00011034
10390.0 0.00011117
10410.0 0.00011199
10430.0 0.0001128
10450.0 0.00011362
10470.0 0.00011444
10490.0 0.00011525
10510.0 0.00011605
10530.0 0.00011686
10550.0 0.00011766
10570.0 0.00011844
10590.0 0.00011923
10610.0 0.00012002
10630.0 0.00012078
10650.0 0.00012155
10670.0 0.00012232
10690.0 0.00012307
10710.0 0.00012381
10730.0 0.00012455
10750.0 0.00012529
10770.0 0.000126
10790.0 0.0001267
10810.0 0.00012741
10830.0 0.00012809
10850.0 0.00012873
10870.0 0.00012936
10890.0 0.00012991
10910.0 0.00013034
10930.0 0.00013058
10950.0 0.00013053
10970.0 0.00013009
10990.0 0.00012922
11010.0 0.0001276
11030.0 0.00012557
11050.0 0.00012309
11070.0 0.00012014
11090.0 0.00011658
11110.0 0.0001129
11130.0 0.00010907
11150.0 0.00010494
11170.0 0.00010068
11190.0 9.6555e-05
11210.0 9.2292e-05
11230.0 8.7919e-05
11250.0 8.3742e-05
11270.0 7.973e-05
11290.0 7.571e-05
11310.0 7.1903e-05
11330.0 6.8549e-05
11350.0 6.5382e-05
11370.0 6.2455e-05
11390.0 5.9922e-05
11410.0 5.7707e-05
11430.0 5.5648e-05
11450.0 5.3874e-05
11470.0 5.234e-05
11490.0 5.0913e-05
11510.0 4.9538e-05
11530.0 4.8262e-05
11550.0 4.6994e-05
11570.0 4.5642e-05
11590.0 4.4241e-05
11610.0 4.2816e-05
11630.0 4.1264e-05
11650.0 3.9603e-05
11670.0 3.7966e-05
11690.0 3.6306e-05
11710.0 3.4593e-05
11730.0 3.2934e-05
11750.0 3.1398e-05
11770.0 2.9892e-05
11790.0 2.848e-05
11810.0 2.7237e-05
11830.0 2.6126e-05
11850.0 2.5102e-05
11870.0 2.4246e-05
11890.0 2.3534e-05
11910.0 2.2909e-05
11930.0 2.2371e-05
11950.0 2.1923e-05
11970.0 2.1524e-05
11990.0 2.1145e-05
12010.0 2.0796e-05
12030.0 2.0459e-05
12050.0 2.011e-05
12070.0 1.9748e-05
12090.0 1.9398e-05
12110.0 1.9044e-05
12130.0 1.8688e-05
12150.0 1.836e-05
12170.0 1.8074e-05
12190.0 1.7827e-05
12210.0 1.7654e-05
12230.0 1.7571e-05
12250.0 1.7584e-05
12270.0 1.7717e-05
12290.0 1.7968e-05
12310.0 1.8327e-05
12330.0 1.883e-05
12350.0 1.9458e-05
12370.0 2.0173e-05
12390.0 2.0997e-05
12410.0 2.1963e-05
12430.0 2.2944e-05
12450.0 2.3961e-05
12470.0 2.5041e-05
12490.0 2.6127e-05
12510.0 2.7145e-05
12530.0 2.8158e-05
12550.0 2.9135e-05
12570.0 2.9998e-05
12590.0 3.0755e-05
12610.0 3.143e-05
12630.0 3.1968e-05
12650.0 3.2339e-05
12670.0 3.2584e-05
12690.0 3.2681e-05
12710.0 3.2628e-05
12730.0 3.2438e-05
12750.0 3.2101e-05
12770.0 3.1638e-05
12790.0 3.1076e-05
12810.0 3.0406e-05
12830.0 2.963e-05
12850.0 2.8819e-05
12870.0 2.7961e-05
12890.0 2.7033e-05
12910.0 2.6089e-05
12930.0 2.5159e-05
12950.0 2.4189e-05
12970.0 2.3201e-05
12990.0 2.2266e-05
13010.0 2.1343e-05
13030.0 2.041e-05
13050.0 1.9514e-05
13070.0 1.8674e-05
13090.0 1.7831e-05
13110.0 1.7016e-05
13130.0 1.6265e-05
13150.0 1.5553e-05
13170.0 1.4856e-05
13190.0 1.4236e-05
13210.0 1.369e-05
13230.0 1.3191e-05
13250.0 1.2761e-05
13270.0 1.2422e-05
13290.0 1.2159e-05
13310.0 1.1977e-05
13330.0 1.1895e-05
13350.0 1.1904e-05
13370.0 1.2011e-05
13390.0 1.2221e-05
13410.0 1.2504e-05
13430.0 1.2873e-05
13450.0 1.3328e-05
13470.0 1.3833e-05
13490.0 1.4368e-05
13510.0 1.4972e-05
13530.0 1.5584e-05
13550.0 1.6169e-05
13570.0 1.6747e-05
13590.0 1.731e-05
13610.0 1.781e-05
13630.0 1.8247e-05
13650.0 1.8646e-05
13670.0 1.8978e-05
13690.0 1.9234e-05
13710.0 1.9432e-05
13730.0 1.9573e-05
13750.0 1.9644e-05
13770.0 1.966e-05
13790.0 1.9625e-05
13810.0 1.9538e-05
13830.0 1.941e-05
13850.0 1.9236e-05
13870.0 1.9018e-05
13890.0 1.8768e-05
13910.0 1.8486e-05
13930.0 1.8159e-05
13950.0 1.7803e-05
13970.0 1.7439e-05
13990.0 1.7042e-05
14010.0 1.662e-05
14030.0 1.62e-05
14050.0 1.5776e-05
14070.0 1.5328e-05
14090.0 1.4899e-05
14110.0 1.4496e-05
14130.0 1.4105e-05
14150.0 1.3737e-05
14170.0 1.3423e-05
14190.0 1.3152e-05
14210.0 1.2922e-05
14230.0 1.2751e-05
14250.0 1.2641e-05
14270.0 1.2587e-05
14290.0 1.2599e-05
14310.0 1.2669e-05
14330.0 1.2795e-05
14350.0 1.2981e-05
14370.0 1.3212e-05
14390.0 1.3474e-05
14410.0 1.3784e-05
14430.0 1.4123e-05
14450.0 1.447e-05
14470.0 1.483e-05
14490.0 1.5213e-05
14510.0 1.5579e-05
14530.0 1.5926e-05
14550.0 1.6273e-05
14570.0 1.6607e-05
14590.0 1.6911e-05
14610.0 1.7204e-05
14630.0 1.7495e-05
14650.0 1.7765e-05
14670.0 1.8027e-05
14690.0 1.8299e-05
14710.0 1.8586e-05
14730.0 1.8872e-05
14750.0 1.919e-05
14770.0 1.955e-05
14790.0 1.994e-05
14810.0 2.0363e-05
14830.0 2.0864e-05
14850.0 2.1409e-05
14870.0 2.1977e-05
14890.0 2.259e-05
14910.0 2.3241e-05
14930.0 2.3867e-05
14950.0 2.4452e-05
14970.0 2.5006e-05
14990.0 2.547e-05
15010.0 2.5825e-05
15030.0 2.6088e-05
15050.0 2.6262e-05
15070.0 2.6347e-05
15090.0 2.6377e-05
15110.0 2.6368e-05
15130.0 2.6335e-05
15150.0 2.6291e-05
15170.0 2.6238e-05
15190.0 2.6182e-05
15210.0 2.6126e-05
15230.0 2.607e-05
15250.0 2.6013e-05
15270.0 2.5956e-05
15290.0 2.5902e-05
15310.0 2.5847e-05
15330.0 2.5791e-05
15350.0 2.5737e-05
15370.0 2.5684e-05
15390.0 2.5628e-05
15410.0 2.5573e-05
15430.0 2.5521e-05
15450.0 2.5467e-05
15470.0 2.5413e-05
15490.0 2.5361e-05
15510.0 2.5309e-05
15530.0 2.5256e-05
15550.0 2.5203e-05
15570.0 2.5153e-05
15590.0 2.51e-05
15610.0 2.5047e-05
15630.0 2.4997e-05
15650.0 2.4946e-05
15670.0 2.4894e-05
15690.0 2.4843e-05
15710.0 2.4794e-05
15730.0 2.4742e-05
15750.0 2.4691e-05
15770.0 2.4642e-05
15790.0 2.4592e-05
15810.0 2.454e-05
15830.0 2.449e-05
15850.0 2.4441e-05
15870.0 2.4391e-05
15890.0 2.4341e-05
15910.0 2.4293e-05
15930.0 2.4243e-05
15950.0 2.4192e-05
15970.0 2.4143e-05
15990.0 2.4095e-05
16010.0 2.4045e-05
16030.0 2.3994e-05
16050.0 2.3947e-05
16070.0 2.3898e-05
16090.0 2.3848e-05
16110.0 2.3799e-05
16130.0 2.3752e-05
16150.0 2.3701e-05
16170.0 2.3651e-05
16190.0 2.3603e-05
16210.0 2.3555e-05
16230.0 2.3504e-05
16250.0 2.3456e-05
16270.0 2.3408e-05
16290.0 2.3358e-05
16310.0 2.3309e-05
16330.0 2.3261e-05
16350.0 2.3212e-05
16370.0 2.316e-05
16390.0 2.3112e-05
16410.0 2.3064e-05
16430.0 2.3013e-05
16450.0 2.2964e-05
16470.0 2.2916e-05
16490.0 2.2866e-05
16510.0 2.2815e-05
16530.0 2.2767e-05
16550.0 2.2718e-05
16570.0 2.2666e-05
16590.0 2.2616e-05
16610.0 2.2568e-05
16630.0 2.2518e-05
16650.0 2.2467e-05
16670.0 2.2417e-05
16690.0 2.2368e-05
16710.0 2.2316e-05
16730.0 2.2265e-05
16750.0 2.2216e-05
16770.0 2.2165e-05
16790.0 2.2112e-05
16810.0 2.2063e-05
16830.0 2.2013e-05
16850.0 2.1961e-05
16870.0 2.1909e-05
16890.0 2.186e-05
16910.0 2.1807e-05
16930.0 2.1754e-05
16950.0 2.1703e-05
16970.0 2.1652e-05
16990.0 2.1599e-05
17010.0 2.1547e-05
17030.0 2.1496e-05
17050.0 2.1443e-05
17070.0 2.139e-05
17090.0 2.1338e-05
17110.0 2.1286e-05
17130.0 2.1231e-05
17150.0 2.1178e-05
17170.0 2.1126e-05
17190.0 2.1073e-05
17210.0 2.1018e-05
17230.0 2.0967e-05
17250.0 2.0913e-05
17270.0 2.0857e-05
17290.0 2.0804e-05
17310.0 2.0751e-05
17330.0 2.0695e-05
17350.0 2.064e-05
17370.0 2.0587e-05
17390.0 2.0533e-05
17410.0 2.0477e-05
17430.0 2.0422e-05
17450.0 2.0369e-05
17470.0 2.0312e-05
17490.0 2.0256e-05
17510.0 2.0201e-05
17530.0 2.0146e-05
17550.0 2.0089e-05
17570.0 2.0034e-05
17590.0 1.9979e-05
17610.0 1.9922e-05
17630.0 1.9865e-05
17650.0 1.981e-05
17670.0 1.9753e-05
17690.0 1.9694e-05
17710.0 1.9639e-05
17730.0 1.9583e-05
17750.0 1.9525e-05
17770.0 1.9467e-05
17790.0 1.9412e-05
17810.0 1.9354e-05
17830.0 1.9295e-05
17850.0 1.9238e-05
17870.0 1.9181e-05
17890.0 1.9122e-05
17910.0 1.9063e-05
17930.0 1.9007e-05
17950.0 1.8948e-05
17970.0 1.8889e-05
17990.0 1.8832e-05
18010.0 1.8774e-05
18030.0 1.8713e-05
18050.0 1.8655e-05
18070.0 1.8597e-05
18090.0 1.8538e-05
18110.0 1.8477e-05
18130.0 1.842e-05
18150.0 1.8361e-05
18170.0 1.8301e-05
18190.0 1.8242e-05
18210.0 1.8184e-05
18230.0 1.8123e-05
18250.0 1.8062e-05
18270.0 1.8003e-05
18290.0 1.7944e-05
18310.0 1.7883e-05
18330.0 1.7823e-05
18350.0 1.7765e-05
18370.0 1.7704e-05
18390.0 1.7643e-05
18410.0 1.7584e-05
18430.0 1.7524e-05
18450.0 1.7461e-05
18470.0 1.7401e-05
18490.0 1.7342e-05
18510.0 1.7281e-05
18530.0 1.722e-05
18550.0 1.7161e-05
18570.0 1.71e-05
18590.0 1.7038e-05
18610.0 1.6977e-05
18630.0 1.6918e-05
18650.0 1.6856e-05
18670.0 1.6794e-05
18690.0 1.6735e-05
18710.0 1.6674e-05
18730.0 1.6612e-05
18750.0 1.6551e-05
18770.0 1.6492e-05
18790.0 1.6428e-05
18810.0 1.6366e-05
18830.0 1.6307e-05
18850.0 1.6245e-05
18870.0 1.6183e-05
18890.0 1.6123e-05
18910.0 1.6062e-05
18930.0 1.6e-05
18950.0 1.5938e-05
18970.0 1.5878e-05
18990.0 1.5817e-05
19010.0 1.5753e-05
19030.0 1.5693e-05
19050.0 1.5632e-05
19070.0 1.557e-05
19090.0 1.5508e-05
19110.0 1.5449e-05
19130.0 1.5386e-05
19150.0 1.5324e-05
19170.0 1.5263e-05
19190.0 1.5203e-05
19210.0 1.5139e-05
19230.0 1.5078e-05
19250.0 1.5018e-05
19270.0 1.4956e-05
19290.0 1.4894e-05
19310.0 1.4834e-05
19330.0 1.4773e-05
19350.0 1.471e-05
19370.0 1.4648e-05
19390.0 1.4588e-05
19410.0 1.4526e-05
19430.0 1.4464e-05
19450.0 1.4404e-05
19470.0 1.4343e-05
19490.0 1.4281e-05
19510.0 1.422e-05
19530.0 1.416e-05
19550.0 1.4097e-05
19570.0 1.4035e-05
19590.0 1.3975e-05
19610.0 1.3914e-05
19630.0 1.3852e-05
19650.0 1.3791e-05
19670.0 1.3732e-05
19690.0 1.367e-05
19710.0 1.3608e-05
19730.0 1.3548e-05
19750.0 1.3487e-05
19770.0 1.3424e-05
19790.0 1.3364e-05
19810.0 1.3304e-05
19830.0 1.3243e-05
19850.0 1.318e-05
19870.0 1.3119e-05
19890.0 1.3054e-05
19910.0 1.2982e-05
19930.0 1.2905e-05
19950.0 1.2817e-05
19970.0 1.2708e-05
19990.0 1.2578e-05
20010.0 1.119e-05
20030.0 1.1028e-05
20050.0 1.0839e-05
20070.0 1.0633e-05
20090.0 1.0412e-05
20110.0 1.0163e-05
20130.0 9.9096e-06
20150.0 9.6589e-06
20170.0 9.3989e-06
20190.0 9.1352e-06
20210.0 8.8862e-06
20230.0 8.6433e-06
20250.0 8.3999e-06
20270.0 8.174e-06
20290.0 7.9677e-06
20310.0 7.7717e-06
20330.0 7.5885e-06
20350.0 7.4365e-06
20370.0 7.3015e-06
20390.0 7.1832e-06
20410.0 7.0876e-06
20430.0 7.0139e-06
20450.0 6.9555e-06
20470.0 6.9164e-06
20490.0 6.8954e-06
20510.0 6.8893e-06
20530.0 6.8979e-06
20550.0 6.9191e-06
20570.0 6.9501e-06
20590.0 6.9921e-06
20610.0 7.0429e-06
20630.0 7.0988e-06
20650.0 7.1614e-06
20670.0 7.233e-06
20690.0 7.3059e-06
20710.0 7.3813e-06
20730.0 7.4627e-06
20750.0 7.5476e-06
20770.0 7.6311e-06
20790.0 7.7188e-06
20810.0 7.8116e-06
20830.0 7.9039e-06
20850.0 7.9966e-06
20870.0 8.0959e-06
20890.0 8.1972e-06
20910.0 8.2948e-06
20930.0 8.3961e-06
20950.0 8.5011e-06
20970.0 8.6035e-06
20990.0 8.7045e-06
21010.0 8.8107e-06
21030.0 8.9145e-06
21050.0 9.0136e-06
21070.0 9.1125e-06
21090.0 9.2117e-06
21110.0 9.3022e-06
21130.0 9.3872e-06
21150.0 9.4696e-06
21170.0 9.5442e-06
21190.0 9.6084e-06
21210.0 9.6661e-06
21230.0 9.714e-06
21250.0 9.7483e-06
21270.0 9.77e-06
21290.0 9.7781e-06
21310.0 9.7703e-06
21330.0 9.7473e-06
21350.0 9.7068e-06
21370.0 9.6473e-06
21390.0 9.5718e-06
21410.0 9.4793e-06
21430.0 9.3621e-06
21450.0 9.2306e-06
21470.0 9.0874e-06
21490.0 8.9254e-06
21510.0 8.7477e-06
21530.0 8.5672e-06
21550.0 8.3781e-06
21570.0 8.1764e-06
21590.0 7.978e-06
21610.0 7.7864e-06
21630.0 7.5945e-06
21650.0 7.407e-06
21670.0 7.2445e-06
21690.0 7.0947e-06
21710.0 6.9597e-06
21730.0 6.8492e-06
21750.0 6.7639e-06
21770.0 6.6989e-06
21790.0 6.6615e-06
21810.0 6.6512e-06
21830.0 6.6659e-06
21850.0 6.7076e-06
21870.0 6.7726e-06
21890.0 6.8565e-06
21910.0 6.9642e-06
21930.0 7.0905e-06
21950.0 7.2273e-06
21970.0 7.3788e-06
21990.0 7.5489e-06
22010.0 7.7189e-06
22030.0 7.8916e-06
22050.0 8.0729e-06
22070.0 8.2552e-06
22090.0 8.4278e-06
22110.0 8.6019e-06
22130.0 8.7756e-06
22150.0 8.9379e-06
22170.0 9.0909e-06
22190.0 9.2425e-06
22210.0 9.3836e-06
22230.0 9.5077e-06
22250.0 9.6246e-06
22270.0 9.7323e-06
22290.0 9.8243e-06
22310.0 9.9033e-06
22330.0 9.9728e-06
22350.0 1.0027e-05
22370.0 1.0065e-05
22390.0 1.0088e-05
22410.0 1.0096e-05
22430.0 1.0086e-05
22450.0 1.006e-05
22470.0 1.0015e-05
22490.0 9.9521e-06
22510.0 9.8736e-06
22530.0 9.773e-06
22550.0 9.6506e-06
22570.0 9.5149e-06
22590.0 9.3619e-06
22610.0 9.1859e-06
