#lamb flux
1010.0 3.12e-06
1030.0 3.3588e-06
1050.0 3.7625e-06
1070.0 4.2167e-06
1090.0 4.6989e-06
1110.0 5.1987e-06
1130.0 5.705e-06
1150.0 6.2371e-06
1170.0 6.7841e-06
1190.0 7.2955e-06
1210.0 7.8032e-06
1230.0 8.3131e-06
1250.0 8.8002e-06
1270.0 9.2492e-06
1290.0 9.7015e-06
1310.0 1.0127e-05
1330.0 1.0505e-05
1350.0 1.0867e-05
1370.0 1.1227e-05
1390.0 1.1562e-05
1410.0 1.1878e-05
1430.0 1.2218e-05
1450.0 1.2566e-05
1470.0 1.2915e-05
1490.0 1.3294e-05
1510.0 1.3728e-05
1530.0 1.4174e-05
1550.0 1.4656e-05
1570.0 1.5199e-05
1590.0 1.5791e-05
1610.0 1.6418e-05
1630.0 1.7126e-05
1650.0 1.7902e-05
1670.0 1.8719e-05
1690.0 1.9584e-05
1710.0 2.0518e-05
1730.0 2.1502e-05
1750.0 2.2494e-05
1770.0 2.3531e-05
1790.0 2.4601e-05
1810.0 2.5662e-05
1830.0 2.6708e-05
1850.0 2.777e-05
1870.0 2.8782e-05
1890.0 2.9725e-05
1910.0 3.0615e-05
1930.0 3.144e-05
1950.0 3.2144e-05
1970.0 3.2737e-05
1990.0 3.3241e-05
2010.0 3.3617e-05
2030.0 3.3851e-05
2050.0 3.3983e-05
2070.0 3.4014e-05
2090.0 3.3903e-05
2110.0 3.3691e-05
2130.0 3.3408e-05
2150.0 3.3042e-05
2170.0 3.2595e-05
2190.0 3.2123e-05
2210.0 3.1627e-05
2230.0 3.1099e-05
2250.0 3.0572e-05
2270.0 3.0079e-05
2290.0 2.9599e-05
2310.0 2.914e-05
2330.0 2.8741e-05
2350.0 2.8399e-05
2370.0 2.8104e-05
2390.0 2.7882e-05
2410.0 2.7758e-05
2430.0 2.7711e-05
2450.0 2.7754e-05
2470.0 2.7921e-05
2490.0 2.8224e-05
2510.0 2.8642e-05
2530.0 2.9262e-05
2550.0 3.0204e-05
2570.0 3.1573e-05
2590.0 3.3527e-05
2610.0 3.6524e-05
2630.0 4.0696e-05
2650.0 4.5898e-05
2670.0 5.2257e-05
2690.0 5.9627e-05
2710.0 6.7112e-05
2730.0 7.4221e-05
2750.0 8.096e-05
2770.0 8.6687e-05
2790.0 9.1266e-05
2810.0 9.5039e-05
2830.0 9.826e-05
2850.0 0.00010104
2870.0 0.00010375
2890.0 0.00010662
2910.0 0.00010972
2930.0 0.00011308
2950.0 0.0001168
2970.0 0.0001209
2990.0 0.00012531
3010.0 0.00016017
3030.0 0.00016651
3050.0 0.00017321
3070.0 0.00018003
3090.0 0.00018694
3110.0 0.00019357
3130.0 0.0001994
3150.0 0.00020439
3170.0 0.00020745
3190.0 0.00022117
3210.0 0.00027618
3230.0 0.00036361
3250.0 0.00040424
3270.0 0.0003723
3290.0 0.00031842
3310.0 0.00029
3330.0 0.00027871
3350.0 0.00027832
3370.0 0.00028115
3390.0 0.00028561
3410.0 0.0002887
3430.0 0.00028088
3450.0 0.00027898
3470.0 0.0002793
3490.0 0.00030864
3510.0 0.00038891
3530.0 0.00046864
3550.0 0.00054354
3570.0 0.00062657
3590.0 0.00067282
3610.0 0.00067472
3630.0 0.00066782
3650.0 0.00068915
3670.0 0.00076894
3690.0 0.0008997
3710.0 0.0010307
3730.0 0.0011304
3750.0 0.0012137
3770.0 0.0012071
3790.0 0.0011314
3810.0 0.0010449
3830.0 0.00094628
3850.0 0.00088694
3870.0 0.00089238
3890.0 0.0009857
3910.0 0.001118
3930.0 0.0012577
3950.0 0.0014092
3970.0 0.0015044
3990.0 0.0014833
4010.0 0.0013994
4030.0 0.0012404
4050.0 0.0010878
4070.0 0.0010091
4090.0 0.00099853
4110.0 0.0010402
4130.0 0.0010563
4150.0 0.0010619
4170.0 0.0010827
4190.0 0.0011292
4210.0 0.0011306
4230.0 0.0011401
4250.0 0.0011578
4270.0 0.0011925
4290.0 0.0012346
4310.0 0.0012781
4330.0 0.0012713
4350.0 0.0012176
4370.0 0.0011375
4390.0 0.0010304
4410.0 0.0009074
4430.0 0.00082677
4450.0 0.00080149
4470.0 0.00082152
4490.0 0.00088027
4510.0 0.00099833
4530.0 0.0012177
4550.0 0.001551
4570.0 0.0018414
4590.0 0.002105
4610.0 0.0024252
4630.0 0.0026504
4650.0 0.0026313
4670.0 0.0024292
4690.0 0.0021528
4710.0 0.0018833
4730.0 0.0016428
4750.0 0.0014324
4770.0 0.0012891
4790.0 0.0012946
4810.0 0.0013712
4830.0 0.0014256
4850.0 0.0014512
4870.0 0.0015253
4890.0 0.0016128
4910.0 0.0016948
4930.0 0.0017866
4950.0 0.001853
4970.0 0.0018276
4990.0 0.0016991
5010.0 0.0015179
5030.0 0.0013335
5050.0 0.0011984
5070.0 0.0011128
5090.0 0.0010612
5110.0 0.0010508
5130.0 0.0010526
5150.0 0.0010597
5170.0 0.0011073
5190.0 0.0012015
5210.0 0.0013457
5230.0 0.0014985
5250.0 0.0016592
5270.0 0.001833
5290.0 0.0019904
5310.0 0.0021022
5330.0 0.0021657
5350.0 0.0021752
5370.0 0.0021665
5390.0 0.0021964
5410.0 0.0022916
5430.0 0.0024439
5450.0 0.002637
5470.0 0.0028136
5490.0 0.0029049
5510.0 0.002921
5530.0 0.002903
5550.0 0.0028656
5570.0 0.0028041
5590.0 0.0027411
5610.0 0.0026782
5630.0 0.0025983
5650.0 0.0024727
5670.0 0.0023169
5690.0 0.0021899
5710.0 0.0021053
5730.0 0.0020238
5750.0 0.0019891
5770.0 0.0020154
5790.0 0.0020592
5810.0 0.0020754
5830.0 0.0020893
5850.0 0.0020949
5870.0 0.0020606
5890.0 0.0020358
5910.0 0.002014
5930.0 0.0019179
5950.0 0.0017679
5970.0 0.0016199
5990.0 0.0015046
6010.0 0.0014243
6030.0 0.0013742
6050.0 0.0013794
6070.0 0.001438
6090.0 0.0014781
6110.0 0.0014821
6130.0 0.0014826
6150.0 0.0014977
6170.0 0.0015184
6190.0 0.0015243
6210.0 0.0014972
6230.0 0.0014155
6250.0 0.0013042
6270.0 0.0012003
6290.0 0.001121
6310.0 0.0011194
6330.0 0.0011986
6350.0 0.0013033
6370.0 0.0013904
6390.0 0.0014909
6410.0 0.001622
6430.0 0.0017235
6450.0 0.0017825
6470.0 0.0018307
6490.0 0.0018753
6510.0 0.0019009
6530.0 0.0019118
6550.0 0.0019313
6570.0 0.0019239
6590.0 0.0018827
6610.0 0.0018259
6630.0 0.0017548
6650.0 0.0016599
6670.0 0.0015591
6690.0 0.0014875
6710.0 0.001439
6730.0 0.0013862
6750.0 0.0013528
6770.0 0.0013635
6790.0 0.0013795
6810.0 0.0013674
6830.0 0.0013415
6850.0 0.0013293
6870.0 0.0013171
6890.0 0.0012907
6910.0 0.0012863
6930.0 0.001288
6950.0 0.0012751
6970.0 0.0012567
6990.0 0.0012314
7010.0 0.0011974
7030.0 0.0011441
7050.0 0.0010633
7070.0 0.00099078
7090.0 0.00098091
7110.0 0.001012
7130.0 0.001026
7150.0 0.0010223
7170.0 0.0010418
7190.0 0.0010876
7210.0 0.0011218
7230.0 0.0011489
7250.0 0.0011752
7270.0 0.0011593
7290.0 0.0011247
7310.0 0.0011112
7330.0 0.0011362
7350.0 0.0011798
7370.0 0.0012088
7390.0 0.0012409
7410.0 0.0012893
7430.0 0.0013242
7450.0 0.0013368
7470.0 0.0013287
7490.0 0.0012697
7510.0 0.0011991
7530.0 0.001171
7550.0 0.001136
7570.0 0.0011009
7590.0 0.0010876
7610.0 0.001082
7630.0 0.0010918
7650.0 0.0011395
7670.0 0.0012049
7690.0 0.0012655
7710.0 0.0013056
7730.0 0.0013394
7750.0 0.00137
7770.0 0.0013949
7790.0 0.0014173
7810.0 0.0014177
7830.0 0.0013727
7850.0 0.0013162
7870.0 0.0012687
7890.0 0.0012331
7910.0 0.0012189
7930.0 0.0011912
7950.0 0.0011564
7970.0 0.0011164
7990.0 0.0010889
8010.0 0.0010196
8030.0 0.0010122
8050.0 0.0010027
8070.0 0.00098511
8090.0 0.00096986
8110.0 0.00095856
8130.0 0.00095577
8150.0 0.00094578
8170.0 0.00092943
8190.0 0.00089838
8210.0 0.0008522
8230.0 0.00081032
8250.0 0.00079095
8270.0 0.00075235
8290.0 0.00067716
8310.0 0.00059895
8330.0 0.00054645
8350.0 0.00052591
8370.0 0.00055212
8390.0 0.00060366
8410.0 0.00064201
8430.0 0.0006748
8450.0 0.00072251
8470.0 0.00076993
8490.0 0.00082595
8510.0 0.00088499
8530.0 0.00094334
8550.0 0.00098819
8570.0 0.00102
8590.0 0.0010432
8610.0 0.0010607
8630.0 0.0010584
8650.0 0.0010357
8670.0 0.0010338
8690.0 0.0010728
8710.0 0.0011255
8730.0 0.001143
8750.0 0.001125
8770.0 0.0011253
8790.0 0.001121
8810.0 0.0010802
8830.0 0.00099767
8850.0 0.00089723
8870.0 0.00082281
8890.0 0.00079541
8910.0 0.00076884
8930.0 0.00071464
8950.0 0.00066337
8970.0 0.00064363
8990.0 0.0006471
9010.0 0.00064227
9030.0 0.00063376
9050.0 0.00062831
9070.0 0.00062494
9090.0 0.00062189
9110.0 0.00061891
9130.0 0.00061593
9150.0 0.00061301
9170.0 0.00061006
9190.0 0.00060736
9210.0 0.00060505
9230.0 0.00060198
9250.0 0.00059905
9270.0 0.00059622
9290.0 0.00059347
9310.0 0.00059076
9330.0 0.00058809
9350.0 0.00058548
9370.0 0.00058289
9390.0 0.00058033
9410.0 0.00057779
9430.0 0.00057517
9450.0 0.00057194
9470.0 0.00056896
9490.0 0.00056721
9510.0 0.00056512
9530.0 0.000563
9550.0 0.00056076
9570.0 0.00055848
9590.0 0.00055623
9610.0 0.00055398
9630.0 0.0005517
9650.0 0.00054946
9670.0 0.00054728
9690.0 0.00054507
9710.0 0.00054286
9730.0 0.00054072
9750.0 0.00053858
9770.0 0.00053637
9790.0 0.00053424
9810.0 0.00053215
9830.0 0.00053001
9850.0 0.00052783
9870.0 0.00052578
9890.0 0.00052371
9910.0 0.00052159
9930.0 0.0005195
9950.0 0.00051656
9970.0 0.0005147
9990.0 0.00051276
10010.0 0.00051083
10030.0 0.00050881
10050.0 0.00050677
10070.0 0.00050474
10090.0 0.00050272
10110.0 0.00050041
10130.0 0.00049733
10150.0 0.00049536
10170.0 0.00049354
10190.0 0.00049145
10210.0 0.00048943
10230.0 0.00048738
10250.0 0.00048511
10270.0 0.00048283
10290.0 0.00048066
10310.0 0.00047832
10330.0 0.00047582
10350.0 0.00047349
10370.0 0.00047115
10390.0 0.00046863
10410.0 0.0004661
10430.0 0.00046373
10450.0 0.00046118
10470.0 0.00045852
10490.0 0.00045596
10510.0 0.00045339
10530.0 0.00045053
10550.0 0.00044776
10570.0 0.00044509
10590.0 0.00044226
10610.0 0.0004393
10630.0 0.00043649
10650.0 0.00043361
10670.0 0.00043048
10690.0 0.00042742
10710.0 0.00042442
10730.0 0.00042123
10750.0 0.00041786
10770.0 0.00041473
10790.0 0.0004115
10810.0 0.00040806
10830.0 0.00040467
10850.0 0.00040137
10870.0 0.00039775
10890.0 0.00039409
10910.0 0.00039056
10930.0 0.00038694
10950.0 0.00038311
10970.0 0.00037935
10990.0 0.00037573
11010.0 0.00038153
11030.0 0.00037749
11050.0 0.00037367
11070.0 0.00036986
11090.0 0.00036588
11110.0 0.00036223
11130.0 0.00035873
11150.0 0.00035518
11170.0 0.00035172
11190.0 0.00034854
11210.0 0.00034538
11230.0 0.00034225
11250.0 0.00033935
11270.0 0.00033663
11290.0 0.00033391
11310.0 0.00033131
11330.0 0.00032899
11350.0 0.00032668
11370.0 0.00032439
11390.0 0.00032222
11410.0 0.00032008
11430.0 0.00031777
11450.0 0.00031542
11470.0 0.00031304
11490.0 0.00031046
11510.0 0.00030762
11530.0 0.0003047
11550.0 0.00030161
11570.0 0.00029819
11590.0 0.00029459
11610.0 0.00029091
11630.0 0.00028692
11650.0 0.00028265
11670.0 0.00027842
11690.0 0.00027404
11710.0 0.0002694
11730.0 0.00026468
11750.0 0.00026002
11770.0 0.0002551
11790.0 0.00025
11810.0 0.00024497
11830.0 0.00023987
11850.0 0.00023443
11870.0 0.0002291
11890.0 0.0002239
11910.0 0.00021855
11930.0 0.00021317
11950.0 0.00020807
11970.0 0.00020301
11990.0 0.00019791
12010.0 0.0001931
12030.0 0.00018857
12050.0 0.00018414
12070.0 0.00017986
12090.0 0.00017607
12110.0 0.00017248
12130.0 0.00016909
12150.0 0.00016606
12170.0 0.00016338
12190.0 0.0001609
12210.0 0.00015877
12230.0 0.00015703
12250.0 0.00015561
12270.0 0.0001545
12290.0 0.00015374
12310.0 0.00015328
12330.0 0.00015312
12350.0 0.00015322
12370.0 0.00015353
12390.0 0.00015404
12410.0 0.00015477
12430.0 0.00015556
12450.0 0.0001564
12470.0 0.00015735
12490.0 0.00015831
12510.0 0.0001592
12530.0 0.0001601
12550.0 0.00016098
12570.0 0.00016173
12590.0 0.00016236
12610.0 0.00016291
12630.0 0.00016329
12650.0 0.00016345
12670.0 0.00016343
12690.0 0.0001632
12710.0 0.00016271
12730.0 0.000162
12750.0 0.00016101
12770.0 0.00015977
12790.0 0.00015832
12810.0 0.00015664
12830.0 0.00015473
12850.0 0.00015271
12870.0 0.00015058
12890.0 0.0001483
12910.0 0.000146
12930.0 0.00014372
12950.0 0.0001414
12970.0 0.00013907
12990.0 0.00013688
13010.0 0.00013475
13030.0 0.00013264
13050.0 0.00013065
13070.0 0.00012878
13090.0 0.00012694
13110.0 0.00012517
13130.0 0.00012352
13150.0 0.00012193
13170.0 0.00012037
13190.0 0.00011891
13210.0 0.00011755
13230.0 0.00011622
13250.0 0.00011494
13270.0 0.00011376
13290.0 0.00011262
13310.0 0.0001115
13330.0 0.00011044
13350.0 0.00010943
13370.0 0.00010842
13390.0 0.00010742
13410.0 0.00010648
13430.0 0.00010552
13450.0 0.00010455
13470.0 0.00010359
13490.0 0.00010264
13510.0 0.00010164
13530.0 0.00010063
13550.0 9.9633e-05
13570.0 9.8616e-05
13590.0 9.7565e-05
13610.0 9.653e-05
13630.0 9.5511e-05
13650.0 9.4456e-05
13670.0 9.3406e-05
13690.0 9.2389e-05
13710.0 9.1366e-05
13730.0 9.0313e-05
13750.0 8.9319e-05
13770.0 8.8345e-05
13790.0 8.7359e-05
13810.0 8.6393e-05
13830.0 8.548e-05
13850.0 8.4561e-05
13870.0 8.3651e-05
13890.0 8.2793e-05
13910.0 8.1969e-05
13930.0 8.1149e-05
13950.0 8.0369e-05
13970.0 7.9656e-05
13990.0 7.8958e-05
14010.0 7.8286e-05
14030.0 7.7665e-05
14050.0 7.7076e-05
14070.0 7.6487e-05
14090.0 7.5935e-05
14110.0 7.5418e-05
14130.0 7.4906e-05
14150.0 7.4402e-05
14170.0 7.3933e-05
14190.0 7.348e-05
14210.0 7.3027e-05
14230.0 7.2599e-05
14250.0 7.2199e-05
14270.0 7.1803e-05
14290.0 7.1422e-05
14310.0 7.1079e-05
14330.0 7.0754e-05
14350.0 7.0439e-05
14370.0 7.0149e-05
14390.0 6.9885e-05
14410.0 6.9625e-05
14430.0 6.9378e-05
14450.0 6.9151e-05
14470.0 6.8931e-05
14490.0 6.8707e-05
14510.0 6.8496e-05
14530.0 6.8295e-05
14550.0 6.8086e-05
14570.0 6.7875e-05
14590.0 6.7674e-05
14610.0 6.7471e-05
14630.0 6.7262e-05
14650.0 6.7074e-05
14670.0 6.6911e-05
14690.0 6.6773e-05
14710.0 6.6685e-05
14730.0 6.6673e-05
14750.0 6.6745e-05
14770.0 6.693e-05
14790.0 6.7246e-05
14810.0 6.7701e-05
14830.0 6.8356e-05
14850.0 6.9197e-05
14870.0 7.0194e-05
14890.0 7.1376e-05
14910.0 7.2738e-05
14930.0 7.4153e-05
14950.0 7.5569e-05
14970.0 7.6995e-05
14990.0 7.8289e-05
15010.0 7.9381e-05
15030.0 8.0297e-05
15050.0 8.1035e-05
15070.0 8.1571e-05
15090.0 8.1984e-05
15110.0 8.2316e-05
15130.0 8.2592e-05
15150.0 8.284e-05
15170.0 8.3076e-05
15190.0 8.331e-05
15210.0 8.3545e-05
15230.0 8.3785e-05
15250.0 8.4029e-05
15270.0 8.4278e-05
15290.0 8.4532e-05
15310.0 8.4791e-05
15330.0 8.5054e-05
15350.0 8.5323e-05
15370.0 8.5597e-05
15390.0 8.5875e-05
15410.0 8.6157e-05
15430.0 8.6445e-05
15450.0 8.6737e-05
15470.0 8.7033e-05
15490.0 8.7334e-05
15510.0 8.7639e-05
15530.0 8.7948e-05
15550.0 8.8262e-05
15570.0 8.858e-05
15590.0 8.8901e-05
15610.0 8.9227e-05
15630.0 8.9556e-05
15650.0 8.989e-05
15670.0 9.0227e-05
15690.0 9.0567e-05
15710.0 9.0912e-05
15730.0 9.126e-05
15750.0 9.1611e-05
15770.0 9.1965e-05
15790.0 9.2323e-05
15810.0 9.2683e-05
15830.0 9.3046e-05
15850.0 9.3413e-05
15870.0 9.3782e-05
15890.0 9.4154e-05
15910.0 9.4529e-05
15930.0 9.4905e-05
15950.0 9.5284e-05
15970.0 9.5666e-05
15990.0 9.605e-05
16010.0 9.6435e-05
16030.0 9.6822e-05
16050.0 9.7212e-05
16070.0 9.7602e-05
16090.0 9.7995e-05
16110.0 9.8388e-05
16130.0 9.8784e-05
16150.0 9.9179e-05
16170.0 9.9576e-05
16190.0 9.9974e-05
16210.0 0.00010037
16230.0 0.00010077
16250.0 0.00010117
16270.0 0.00010157
16290.0 0.00010197
16310.0 0.00010237
16330.0 0.00010277
16350.0 0.00010317
16370.0 0.00010357
16390.0 0.00010397
16410.0 0.00010437
16430.0 0.00010477
16450.0 0.00010516
16470.0 0.00010556
16490.0 0.00010595
16510.0 0.00010634
16530.0 0.00010674
16550.0 0.00010713
16570.0 0.00010751
16590.0 0.0001079
16610.0 0.00010828
16630.0 0.00010866
16650.0 0.00010904
16670.0 0.00010942
16690.0 0.00010979
16710.0 0.00011016
16730.0 0.00011052
16750.0 0.00011089
16770.0 0.00011125
16790.0 0.0001116
16810.0 0.00011196
16830.0 0.00011231
16850.0 0.00011265
16870.0 0.00011299
16890.0 0.00011333
16910.0 0.00011366
16930.0 0.00011399
16950.0 0.00011431
16970.0 0.00011463
16990.0 0.00011494
17010.0 0.00011525
17030.0 0.00011555
17050.0 0.00011585
17070.0 0.00011614
17090.0 0.00011642
17110.0 0.0001167
17130.0 0.00011697
17150.0 0.00011724
17170.0 0.0001175
17190.0 0.00011776
17210.0 0.00011801
17230.0 0.00011825
17250.0 0.00011848
17270.0 0.00011871
17290.0 0.00011893
17310.0 0.00011914
17330.0 0.00011935
17350.0 0.00011955
17370.0 0.00011974
17390.0 0.00011993
17410.0 0.00012011
17430.0 0.00012028
17450.0 0.00012044
17470.0 0.00012059
17490.0 0.00012074
17510.0 0.00012088
17530.0 0.00012101
17550.0 0.00012113
17570.0 0.00012124
17590.0 0.00012135
17610.0 0.00012145
17630.0 0.00012153
17650.0 0.00012162
17670.0 0.00012169
17690.0 0.00012175
17710.0 0.00012181
17730.0 0.00012185
17750.0 0.00012189
17770.0 0.00012192
17790.0 0.00012194
17810.0 0.00012195
17830.0 0.00012196
17850.0 0.00012195
17870.0 0.00012194
17890.0 0.00012192
17910.0 0.00012188
17930.0 0.00012184
17950.0 0.0001218
17970.0 0.00012174
17990.0 0.00012167
18010.0 0.0001216
18030.0 0.00012151
18050.0 0.00012142
18070.0 0.00012132
18090.0 0.00012121
18110.0 0.00012109
18130.0 0.00012096
18150.0 0.00012083
18170.0 0.00012068
18190.0 0.00012053
18210.0 0.00012037
18230.0 0.0001202
18250.0 0.00012003
18270.0 0.00011984
18290.0 0.00011965
18310.0 0.00011944
18330.0 0.00011923
18350.0 0.00011902
18370.0 0.00011879
18390.0 0.00011856
18410.0 0.00011832
18430.0 0.00011807
18450.0 0.00011781
18470.0 0.00011755
18490.0 0.00011727
18510.0 0.00011699
18530.0 0.00011671
18550.0 0.00011642
18570.0 0.00011611
18590.0 0.00011581
18610.0 0.00011549
18630.0 0.00011517
18650.0 0.00011484
18670.0 0.00011451
18690.0 0.00011417
18710.0 0.00011382
18730.0 0.00011347
18750.0 0.00011311
18770.0 0.00011274
18790.0 0.00011237
18810.0 0.00011199
18830.0 0.00011161
18850.0 0.00011122
18870.0 0.00011082
18890.0 0.00011042
18910.0 0.00011002
18930.0 0.00010961
18950.0 0.00010919
18970.0 0.00010877
18990.0 0.00010834
19010.0 0.00010791
19030.0 0.00010748
19050.0 0.00010704
19070.0 0.0001066
19090.0 0.00010615
19110.0 0.0001057
19130.0 0.00010524
19150.0 0.00010478
19170.0 0.00010432
19190.0 0.00010385
19210.0 0.00010338
19230.0 0.0001029
19250.0 0.00010243
19270.0 0.00010195
19290.0 0.00010146
19310.0 0.00010098
19330.0 0.00010049
19350.0 9.9994e-05
19370.0 9.9499e-05
19390.0 9.9002e-05
19410.0 9.8502e-05
19430.0 9.8e-05
19450.0 9.7496e-05
19470.0 9.699e-05
19490.0 9.6481e-05
19510.0 9.5971e-05
19530.0 9.546e-05
19550.0 9.4946e-05
19570.0 9.4431e-05
19590.0 9.3915e-05
19610.0 9.3398e-05
19630.0 9.2879e-05
19650.0 9.2359e-05
19670.0 9.1838e-05
19690.0 9.1316e-05
19710.0 9.0794e-05
19730.0 9.0271e-05
19750.0 8.9747e-05
19770.0 8.9222e-05
19790.0 8.8697e-05
19810.0 8.8172e-05
19830.0 8.7644e-05
19850.0 8.7112e-05
19870.0 8.6574e-05
19890.0 8.6019e-05
19910.0 8.5433e-05
19930.0 8.4802e-05
19950.0 8.4103e-05
19970.0 8.3296e-05
19990.0 8.2365e-05
20010.0 8.1323e-05
20030.0 8.013e-05
20050.0 7.8794e-05
20070.0 7.7382e-05
20090.0 7.5908e-05
20110.0 7.4324e-05
20130.0 7.2753e-05
20150.0 7.122e-05
20170.0 6.9675e-05
20190.0 6.814e-05
20210.0 6.6685e-05
20230.0 6.5268e-05
20250.0 6.3858e-05
20270.0 6.2519e-05
20290.0 6.1257e-05
20310.0 6.0027e-05
20330.0 5.8834e-05
20350.0 5.7754e-05
20370.0 5.6726e-05
20390.0 5.5743e-05
20410.0 5.4836e-05
20430.0 5.4007e-05
20450.0 5.3215e-05
20470.0 5.2486e-05
20490.0 5.1827e-05
20510.0 5.1218e-05
20530.0 5.0653e-05
20550.0 5.0141e-05
20570.0 4.9674e-05
20590.0 4.9239e-05
20610.0 4.8837e-05
20630.0 4.8464e-05
20650.0 4.8112e-05
20670.0 4.7778e-05
20690.0 4.7456e-05
20710.0 4.7141e-05
20730.0 4.6829e-05
20750.0 4.6515e-05
20770.0 4.6195e-05
20790.0 4.5867e-05
20810.0 4.5526e-05
20830.0 4.5171e-05
20850.0 4.4801e-05
20870.0 4.4411e-05
20890.0 4.4001e-05
20910.0 4.3578e-05
20930.0 4.3136e-05
20950.0 4.2672e-05
20970.0 4.2199e-05
20990.0 4.1715e-05
21010.0 4.1209e-05
21030.0 4.0695e-05
21050.0 4.0181e-05
21070.0 3.9658e-05
21090.0 3.9122e-05
21110.0 3.8597e-05
21130.0 3.8076e-05
21150.0 3.7547e-05
21170.0 3.7026e-05
21190.0 3.6519e-05
21210.0 3.601e-05
21230.0 3.5503e-05
21250.0 3.5016e-05
21270.0 3.454e-05
21290.0 3.4066e-05
21310.0 3.3606e-05
21330.0 3.3168e-05
21350.0 3.2736e-05
21370.0 3.2314e-05
21390.0 3.1913e-05
21410.0 3.1527e-05
21430.0 3.1147e-05
21450.0 3.0789e-05
21470.0 3.045e-05
21490.0 3.0123e-05
21510.0 2.981e-05
21530.0 2.9517e-05
21550.0 2.9236e-05
21570.0 2.8967e-05
21590.0 2.8712e-05
21610.0 2.847e-05
21630.0 2.8236e-05
21650.0 2.8011e-05
21670.0 2.7796e-05
21690.0 2.7586e-05
21710.0 2.7381e-05
21730.0 2.7181e-05
21750.0 2.6985e-05
21770.0 2.679e-05
21790.0 2.6598e-05
21810.0 2.6407e-05
21830.0 2.6218e-05
21850.0 2.6029e-05
21870.0 2.5842e-05
21890.0 2.5655e-05
21910.0 2.5469e-05
21930.0 2.5282e-05
21950.0 2.5097e-05
21970.0 2.4912e-05
21990.0 2.4725e-05
22010.0 2.4538e-05
22030.0 2.435e-05
22050.0 2.416e-05
22070.0 2.3967e-05
22090.0 2.3773e-05
22110.0 2.3575e-05
22130.0 2.3373e-05
22150.0 2.3167e-05
22170.0 2.2958e-05
22190.0 2.2742e-05
22210.0 2.2521e-05
22230.0 2.23e-05
22250.0 2.2072e-05
22270.0 2.1837e-05
22290.0 2.1601e-05
22310.0 2.1362e-05
22330.0 2.1113e-05
22350.0 2.0861e-05
22370.0 2.0609e-05
22390.0 2.035e-05
22410.0 2.0082e-05
22430.0 1.9817e-05
22450.0 1.955e-05
22470.0 1.9273e-05
22490.0 1.8995e-05
22510.0 1.872e-05
22530.0 1.8435e-05
22550.0 1.8146e-05
22570.0 1.7863e-05
22590.0 1.7581e-05
22610.0 1.7293e-05
22630.0 1.701e-05
22650.0 1.6738e-05
22670.0 1.6464e-05
22690.0 1.6193e-05
22710.0 1.5934e-05
22730.0 1.5684e-05
22750.0 1.5432e-05
22770.0 1.5196e-05
22790.0 1.4973e-05
22810.0 1.4756e-05
22830.0 1.4547e-05
22850.0 1.4354e-05
