#lamb flux
1010.0 1.3478e-08
1030.0 1.4907e-08
1050.0 1.655e-08
1070.0 1.84e-08
1090.0 2.0502e-08
1110.0 2.2657e-08
1130.0 2.4826e-08
1150.0 2.7098e-08
1170.0 2.9442e-08
1190.0 3.1664e-08
1210.0 3.3917e-08
1230.0 3.6245e-08
1250.0 3.8525e-08
1270.0 4.074e-08
1290.0 4.308e-08
1310.0 4.5419e-08
1330.0 4.7661e-08
1350.0 4.9929e-08
1370.0 5.2271e-08
1390.0 5.4554e-08
1410.0 5.6769e-08
1430.0 5.9085e-08
1450.0 6.14e-08
1470.0 6.3639e-08
1490.0 6.5901e-08
1510.0 6.8291e-08
1530.0 7.0556e-08
1550.0 7.2791e-08
1570.0 7.5103e-08
1590.0 7.7418e-08
1610.0 7.9631e-08
1630.0 8.1913e-08
1650.0 8.4256e-08
1670.0 8.6523e-08
1690.0 8.8763e-08
1710.0 9.1091e-08
1730.0 9.3434e-08
1750.0 9.5639e-08
1770.0 9.7911e-08
1790.0 1.0023e-07
1810.0 1.0248e-07
1830.0 1.0469e-07
1850.0 1.0705e-07
1870.0 1.0934e-07
1890.0 1.1157e-07
1910.0 1.1384e-07
1930.0 1.1617e-07
1950.0 1.184e-07
1970.0 1.206e-07
1990.0 1.229e-07
2010.0 1.2516e-07
2030.0 1.2735e-07
2050.0 1.2961e-07
2070.0 1.3193e-07
2090.0 1.3413e-07
2110.0 1.3632e-07
2130.0 1.3858e-07
2150.0 1.4081e-07
2170.0 1.4294e-07
2190.0 1.4516e-07
2210.0 1.4739e-07
2230.0 1.4954e-07
2250.0 1.5168e-07
2270.0 1.5393e-07
2290.0 1.561e-07
2310.0 1.5819e-07
2330.0 1.6036e-07
2350.0 1.626e-07
2370.0 1.6482e-07
2390.0 1.6723e-07
2410.0 1.7008e-07
2430.0 1.7337e-07
2450.0 1.7729e-07
2470.0 1.8232e-07
2490.0 1.8865e-07
2510.0 1.9585e-07
2530.0 2.0452e-07
2550.0 2.1537e-07
2570.0 2.2887e-07
2590.0 2.4643e-07
2610.0 2.7272e-07
2630.0 3.1026e-07
2650.0 3.5934e-07
2670.0 4.2279e-07
2690.0 5.0077e-07
2710.0 5.8401e-07
2730.0 6.6626e-07
2750.0 7.4727e-07
2770.0 8.1773e-07
2790.0 8.7369e-07
2810.0 9.181e-07
2830.0 9.5279e-07
2850.0 9.7647e-07
2870.0 9.9386e-07
2890.0 1.0076e-06
2910.0 1.0186e-06
2930.0 1.0276e-06
2950.0 1.0361e-06
2970.0 1.0445e-06
2990.0 1.0524e-06
3010.0 2.9746e-05
3030.0 2.9968e-05
3050.0 3.0183e-05
3070.0 3.0367e-05
3090.0 3.0526e-05
3110.0 3.0624e-05
3130.0 3.062e-05
3150.0 3.0484e-05
3170.0 3.0158e-05
3190.0 2.9645e-05
3210.0 2.8995e-05
3230.0 2.825e-05
3250.0 2.7516e-05
3270.0 2.6979e-05
3290.0 2.6681e-05
3310.0 2.6729e-05
3330.0 2.7116e-05
3350.0 2.779e-05
3370.0 2.8751e-05
3390.0 2.9964e-05
3410.0 3.1283e-05
3430.0 3.2764e-05
3450.0 3.4469e-05
3470.0 3.6331e-05
3490.0 3.8304e-05
3510.0 4.0534e-05
3530.0 4.2923e-05
3550.0 4.5341e-05
3570.0 4.7863e-05
3590.0 5.0606e-05
3610.0 5.3433e-05
3630.0 5.6251e-05
3650.0 5.9175e-05
3670.0 6.1844e-05
3690.0 6.3839e-05
3710.0 6.4983e-05
3730.0 6.502e-05
3750.0 6.4115e-05
3770.0 6.376e-05
3790.0 6.3381e-05
3810.0 6.1823e-05
3830.0 6.3737e-05
3850.0 7.1265e-05
3870.0 7.5398e-05
3890.0 7.5054e-05
3910.0 7.5374e-05
3930.0 7.7358e-05
3950.0 7.858e-05
3970.0 7.1593e-05
3990.0 6.1603e-05
4010.0 0.00018463
4030.0 0.00022371
4050.0 0.00025647
4070.0 0.00022253
4090.0 0.00020154
4110.0 0.00017784
4130.0 0.00016369
4150.0 0.00017411
4170.0 0.00017151
4190.0 0.00018282
4210.0 0.00018114
4230.0 0.0001916
4250.0 0.00022667
4270.0 0.00022933
4290.0 0.00021133
4310.0 0.00021958
4330.0 0.00023357
4350.0 0.00026189
4370.0 0.00029804
4390.0 0.00027968
4410.0 0.00020663
4430.0 0.00017493
4450.0 0.00016074
4470.0 0.00012337
4490.0 0.00013313
4510.0 0.0002011
4530.0 0.00023193
4550.0 0.00023394
4570.0 0.00026325
4590.0 0.00029986
4610.0 0.00040444
4630.0 0.00052528
4650.0 0.00056966
4670.0 0.00052756
4690.0 0.00050339
4710.0 0.00053212
4730.0 0.00050217
4750.0 0.00037544
4770.0 0.0002754
4790.0 0.00025717
4810.0 0.00024512
4830.0 0.00022441
4850.0 0.00024625
4870.0 0.00032532
4890.0 0.00038364
4910.0 0.00033659
4930.0 0.00029784
4950.0 0.00032722
4970.0 0.00041964
4990.0 0.00056871
5010.0 0.00065423
5030.0 0.00057688
5050.0 0.00039029
5070.0 0.00025722
5090.0 0.00020741
5110.0 0.0002133
5130.0 0.00024618
5150.0 0.00026672
5170.0 0.00026272
5190.0 0.00024549
5210.0 0.0002566
5230.0 0.00026974
5250.0 0.00029071
5270.0 0.00031365
5290.0 0.00034759
5310.0 0.00040459
5330.0 0.00044773
5350.0 0.00044488
5370.0 0.0004673
5390.0 0.00053624
5410.0 0.00053576
5430.0 0.0004738
5450.0 0.00043531
5470.0 0.00046223
5490.0 0.00056472
5510.0 0.00070609
5530.0 0.00080986
5550.0 0.00078274
5570.0 0.00071157
5590.0 0.00061872
5610.0 0.0005706
5630.0 0.00055331
5650.0 0.00052697
5670.0 0.00049935
5690.0 0.00044642
5710.0 0.00043527
5730.0 0.00040095
5750.0 0.00028269
5770.0 0.00022055
5790.0 0.00024993
5810.0 0.00028221
5830.0 0.00034632
5850.0 0.00041225
5870.0 0.0004574
5890.0 0.00046515
5910.0 0.00045635
5930.0 0.00043439
5950.0 0.00044264
5970.0 0.00050456
5990.0 0.00047442
6010.0 0.00039771
6030.0 0.000336
6050.0 0.00029262
6070.0 0.00029102
6090.0 0.00031556
6110.0 0.00035285
6130.0 0.00035825
6150.0 0.00030824
6170.0 0.00027116
6190.0 0.00030515
6210.0 0.00040341
6230.0 0.00052938
6250.0 0.0005734
6270.0 0.00050107
6290.0 0.00042158
6310.0 0.00032911
6330.0 0.00025216
6350.0 0.00022492
6370.0 0.00023653
6390.0 0.00027344
6410.0 0.00033717
6430.0 0.00039372
6450.0 0.00045052
6470.0 0.00051585
6490.0 0.00062312
6510.0 0.00069672
6530.0 0.00068353
6550.0 0.00061809
6570.0 0.00052471
6590.0 0.00047314
6610.0 0.00040797
6630.0 0.0003696
6650.0 0.00034938
6670.0 0.00033942
6690.0 0.00030668
6710.0 0.00027878
6730.0 0.0002008
6750.0 0.00019907
6770.0 0.00021638
6790.0 0.00024871
6810.0 0.00022757
6830.0 0.00023434
6850.0 0.00021918
6870.0 0.00020022
6890.0 0.00019224
6910.0 0.00020486
6930.0 0.00019188
6950.0 0.00019741
6970.0 0.00020764
6990.0 0.00023569
7010.0 0.0002377
7030.0 0.00024148
7050.0 0.00023029
7070.0 0.00021942
7090.0 0.00022006
7110.0 0.00022643
7130.0 0.00024367
7150.0 0.0002588
7170.0 0.00028557
7190.0 0.00031392
7210.0 0.00030847
7230.0 0.00031711
7250.0 0.00034078
7270.0 0.00037137
7290.0 0.00044078
7310.0 0.00047829
7330.0 0.00046231
7350.0 0.00041813
7370.0 0.00036381
7390.0 0.00035294
7410.0 0.00037507
7430.0 0.00041684
7450.0 0.00045401
7470.0 0.00044984
7490.0 0.00041017
7510.0 0.00046462
7530.0 0.00045954
7550.0 0.00041304
7570.0 0.00032266
7590.0 0.00022182
7610.0 0.00019039
7630.0 0.00021631
7650.0 0.00025576
7670.0 0.00031831
7690.0 0.00035028
7710.0 0.00036503
7730.0 0.0003836
7750.0 0.00043064
7770.0 0.00043741
7790.0 0.00040178
7810.0 0.0003666
7830.0 0.00037805
7850.0 0.0003675
7870.0 0.00033693
7890.0 0.00028309
7910.0 0.00023011
7930.0 0.00021972
7950.0 0.00020017
7970.0 0.0001853
7990.0 0.00018424
8010.0 1.3645e-05
8030.0 1.3468e-05
8050.0 1.3286e-05
8070.0 1.346e-05
8090.0 1.4463e-05
8110.0 1.4216e-05
8130.0 1.1727e-05
8150.0 1.142e-05
8170.0 9.8369e-06
8190.0 9.3226e-06
8210.0 1.2106e-05
8230.0 1.3479e-05
8250.0 1.2148e-05
8270.0 1.0573e-05
8290.0 1.0307e-05
8310.0 7.9328e-06
8330.0 5.3467e-06
8350.0 3.7945e-06
8370.0 2.3907e-06
8390.0 4.3701e-06
8410.0 5.0924e-06
8430.0 6.2771e-06
8450.0 7.3711e-06
8470.0 9.1618e-06
8490.0 9.0972e-06
8510.0 8.9484e-06
8530.0 9.3389e-06
8550.0 1.26e-05
8570.0 1.4917e-05
8590.0 1.6095e-05
8610.0 2.0331e-05
8630.0 2.4492e-05
8650.0 2.5621e-05
8670.0 2.7228e-05
8690.0 2.738e-05
8710.0 2.4796e-05
8730.0 2.3065e-05
8750.0 2.0359e-05
8770.0 1.9317e-05
8790.0 1.8978e-05
8810.0 1.8185e-05
8830.0 1.4542e-05
8850.0 1.0646e-05
8870.0 8.1514e-06
8890.0 7.9692e-06
8910.0 9.1329e-06
8930.0 1.0388e-05
8950.0 1.0587e-05
8970.0 1.0637e-05
8990.0 9.4869e-06
9010.0 9.9418e-05
9030.0 9.0085e-05
9050.0 9.052e-05
9070.0 9.1234e-05
9090.0 9.1861e-05
9110.0 9.2635e-05
9130.0 9.3232e-05
9150.0 9.3696e-05
9170.0 9.4191e-05
9190.0 9.4719e-05
9210.0 9.5276e-05
9230.0 9.5863e-05
9250.0 9.6459e-05
9270.0 9.7078e-05
9290.0 9.7716e-05
9310.0 9.8357e-05
9330.0 9.9012e-05
9350.0 9.969e-05
9370.0 0.00010038
9390.0 0.00010107
9410.0 0.00010178
9430.0 0.00010252
9450.0 0.00010325
9470.0 0.000104
9490.0 0.00010477
9510.0 0.00010555
9530.0 0.00010633
9550.0 0.00010714
9570.0 0.00010796
9590.0 0.00010878
9610.0 0.00010962
9630.0 0.00011049
9650.0 0.00011136
9670.0 0.00011223
9690.0 0.00011312
9710.0 0.00011403
9730.0 0.00011494
9750.0 0.00011586
9770.0 0.00011682
9790.0 0.00011776
9810.0 0.00011872
9830.0 0.00011969
9850.0 0.00012068
9870.0 0.00012166
9890.0 0.00012266
9910.0 0.00012368
9930.0 0.0001247
9950.0 0.00012572
9970.0 0.00012677
9990.0 0.00012782
10010.0 0.00011091
10030.0 0.00011182
10050.0 0.00011275
10070.0 0.00011371
10090.0 0.00011462
10110.0 0.00011555
10130.0 0.00011648
10150.0 0.00011741
10170.0 0.00011835
10190.0 0.00011931
10210.0 0.00012025
10230.0 0.00012119
10250.0 0.00012215
10270.0 0.00012311
10290.0 0.00012405
10310.0 0.00012501
10330.0 0.00012598
10350.0 0.00012693
10370.0 0.00012787
10390.0 0.00012883
10410.0 0.00012978
10430.0 0.00013072
10450.0 0.00013166
10470.0 0.00013261
10490.0 0.00013354
10510.0 0.00013446
10530.0 0.0001354
10550.0 0.00013632
10570.0 0.00013723
10590.0 0.00013814
10610.0 0.00013905
10630.0 0.00013993
10650.0 0.00014081
10670.0 0.0001417
10690.0 0.00014257
10710.0 0.00014342
10730.0 0.00014427
10750.0 0.00014513
10770.0 0.00014595
10790.0 0.00014676
10810.0 0.00014758
10830.0 0.00014836
10850.0 0.00014911
10870.0 0.00014983
10890.0 0.00015047
10910.0 0.00015096
10930.0 0.00015124
10950.0 0.00015118
10970.0 0.00015066
10990.0 0.00014966
11010.0 0.00014798
11030.0 0.00014562
11050.0 0.00014275
11070.0 0.00013932
11090.0 0.0001352
11110.0 0.00013094
11130.0 0.00012649
11150.0 0.0001217
11170.0 0.00011677
11190.0 0.00011198
11210.0 0.00010703
11230.0 0.00010196
11250.0 9.7117e-05
11270.0 9.2464e-05
11290.0 8.7802e-05
11310.0 8.3387e-05
11330.0 7.9498e-05
11350.0 7.5824e-05
11370.0 7.243e-05
11390.0 6.9492e-05
11410.0 6.6923e-05
11430.0 6.4536e-05
11450.0 6.2479e-05
11470.0 6.07e-05
11490.0 5.9045e-05
11510.0 5.745e-05
11530.0 5.597e-05
11550.0 5.45e-05
11570.0 5.2932e-05
11590.0 5.1307e-05
11610.0 4.9654e-05
11630.0 4.7855e-05
11650.0 4.5929e-05
11670.0 4.403e-05
11690.0 4.2105e-05
11710.0 4.0118e-05
11730.0 3.8194e-05
11750.0 3.6413e-05
11770.0 3.4666e-05
11790.0 3.3029e-05
11810.0 3.1588e-05
11830.0 3.0299e-05
11850.0 2.9112e-05
11870.0 2.8119e-05
11890.0 2.7293e-05
11910.0 2.6568e-05
11930.0 2.5944e-05
11950.0 2.5425e-05
11970.0 2.4961e-05
11990.0 2.4523e-05
12010.0 2.4117e-05
12030.0 2.3726e-05
12050.0 2.3322e-05
12070.0 2.2902e-05
12090.0 2.2497e-05
12110.0 2.2085e-05
12130.0 2.1673e-05
12150.0 2.1293e-05
12170.0 2.0961e-05
12190.0 2.0674e-05
12210.0 2.0474e-05
12230.0 2.0377e-05
12250.0 2.0393e-05
12270.0 2.0547e-05
12290.0 2.0838e-05
12310.0 2.1255e-05
12330.0 2.1838e-05
12350.0 2.2566e-05
12370.0 2.3395e-05
12390.0 2.4351e-05
12410.0 2.5471e-05
12430.0 2.6609e-05
12450.0 2.7788e-05
12470.0 2.9041e-05
12490.0 3.03e-05
12510.0 3.1481e-05
12530.0 3.2656e-05
12550.0 3.3789e-05
12570.0 3.4789e-05
12590.0 3.5668e-05
12610.0 3.645e-05
12630.0 3.7074e-05
12650.0 3.7505e-05
12670.0 3.7788e-05
12690.0 3.7901e-05
12710.0 3.7839e-05
12730.0 3.7619e-05
12750.0 3.7228e-05
12770.0 3.6691e-05
12790.0 3.604e-05
12810.0 3.5262e-05
12830.0 3.4363e-05
12850.0 3.3422e-05
12870.0 3.2427e-05
12890.0 3.135e-05
12910.0 3.0256e-05
12930.0 2.9177e-05
12950.0 2.8052e-05
12970.0 2.6906e-05
12990.0 2.5823e-05
13010.0 2.4752e-05
13030.0 2.367e-05
13050.0 2.263e-05
13070.0 2.1657e-05
13090.0 2.068e-05
13110.0 1.9734e-05
13130.0 1.8862e-05
13150.0 1.8037e-05
13170.0 1.7229e-05
13190.0 1.651e-05
13210.0 1.5877e-05
13230.0 1.5298e-05
13250.0 1.48e-05
13270.0 1.4407e-05
13290.0 1.4101e-05
13310.0 1.389e-05
13330.0 1.3795e-05
13350.0 1.3806e-05
13370.0 1.393e-05
13390.0 1.4173e-05
13410.0 1.4502e-05
13430.0 1.4929e-05
13450.0 1.5457e-05
13470.0 1.6043e-05
13490.0 1.6663e-05
13510.0 1.7363e-05
13530.0 1.8073e-05
13550.0 1.8752e-05
13570.0 1.9422e-05
13590.0 2.0074e-05
13610.0 2.0655e-05
13630.0 2.1162e-05
13650.0 2.1625e-05
13670.0 2.2009e-05
13690.0 2.2306e-05
13710.0 2.2536e-05
13730.0 2.27e-05
13750.0 2.2782e-05
13770.0 2.2801e-05
13790.0 2.2759e-05
13810.0 2.2659e-05
13830.0 2.251e-05
13850.0 2.2309e-05
13870.0 2.2055e-05
13890.0 2.1765e-05
13910.0 2.1438e-05
13930.0 2.106e-05
13950.0 2.0647e-05
13970.0 2.0224e-05
13990.0 1.9764e-05
14010.0 1.9275e-05
14030.0 1.8787e-05
14050.0 1.8295e-05
14070.0 1.7776e-05
14090.0 1.7279e-05
14110.0 1.6811e-05
14130.0 1.6358e-05
14150.0 1.5931e-05
14170.0 1.5567e-05
14190.0 1.5253e-05
14210.0 1.4986e-05
14230.0 1.4788e-05
14250.0 1.466e-05
14270.0 1.4598e-05
14290.0 1.4611e-05
14310.0 1.4693e-05
14330.0 1.4839e-05
14350.0 1.5054e-05
14370.0 1.5322e-05
14390.0 1.5627e-05
14410.0 1.5985e-05
14430.0 1.6379e-05
14450.0 1.6781e-05
14470.0 1.7199e-05
14490.0 1.7642e-05
14510.0 1.8067e-05
14530.0 1.847e-05
14550.0 1.8873e-05
14570.0 1.926e-05
14590.0 1.9612e-05
14610.0 1.9952e-05
14630.0 2.0289e-05
14650.0 2.0603e-05
14670.0 2.0906e-05
14690.0 2.1222e-05
14710.0 2.1554e-05
14730.0 2.1887e-05
14750.0 2.2255e-05
14770.0 2.2672e-05
14790.0 2.3125e-05
14810.0 2.3615e-05
14830.0 2.4197e-05
14850.0 2.4828e-05
14870.0 2.5487e-05
14890.0 2.6198e-05
14910.0 2.6953e-05
14930.0 2.7679e-05
14950.0 2.8358e-05
14970.0 2.9e-05
14990.0 2.9538e-05
15010.0 2.995e-05
15030.0 3.0255e-05
15050.0 3.0457e-05
15070.0 3.0556e-05
15090.0 3.059e-05
15110.0 3.058e-05
15130.0 3.0542e-05
15150.0 3.049e-05
15170.0 3.0429e-05
15190.0 3.0363e-05
15210.0 3.0299e-05
15230.0 3.0235e-05
15250.0 3.0168e-05
15270.0 3.0102e-05
15290.0 3.0039e-05
15310.0 2.9975e-05
15330.0 2.991e-05
15350.0 2.9848e-05
15370.0 2.9786e-05
15390.0 2.9721e-05
15410.0 2.9658e-05
15430.0 2.9597e-05
15450.0 2.9535e-05
15470.0 2.9472e-05
15490.0 2.9412e-05
15510.0 2.9352e-05
15530.0 2.929e-05
15550.0 2.9229e-05
15570.0 2.9171e-05
15590.0 2.9109e-05
15610.0 2.9048e-05
15630.0 2.8989e-05
15650.0 2.893e-05
15670.0 2.887e-05
15690.0 2.8811e-05
15710.0 2.8754e-05
15730.0 2.8694e-05
15750.0 2.8635e-05
15770.0 2.8578e-05
15790.0 2.852e-05
15810.0 2.8459e-05
15830.0 2.8402e-05
15850.0 2.8345e-05
15870.0 2.8287e-05
15890.0 2.8229e-05
15910.0 2.8173e-05
15930.0 2.8116e-05
15950.0 2.8056e-05
15970.0 2.7999e-05
15990.0 2.7944e-05
16010.0 2.7885e-05
16030.0 2.7827e-05
16050.0 2.7772e-05
16070.0 2.7715e-05
16090.0 2.7657e-05
16110.0 2.7601e-05
16130.0 2.7546e-05
16150.0 2.7487e-05
16170.0 2.7429e-05
16190.0 2.7373e-05
16210.0 2.7317e-05
16230.0 2.7258e-05
16250.0 2.7202e-05
16270.0 2.7147e-05
16290.0 2.7089e-05
16310.0 2.7032e-05
16330.0 2.6976e-05
16350.0 2.6919e-05
16370.0 2.6859e-05
16390.0 2.6803e-05
16410.0 2.6748e-05
16430.0 2.6689e-05
16450.0 2.6632e-05
16470.0 2.6577e-05
16490.0 2.6519e-05
16510.0 2.646e-05
16530.0 2.6403e-05
16550.0 2.6346e-05
16570.0 2.6287e-05
16590.0 2.6228e-05
16610.0 2.6172e-05
16630.0 2.6114e-05
16650.0 2.6055e-05
16670.0 2.5998e-05
16690.0 2.5941e-05
16710.0 2.588e-05
16730.0 2.5821e-05
16750.0 2.5764e-05
16770.0 2.5705e-05
16790.0 2.5644e-05
16810.0 2.5587e-05
16830.0 2.5529e-05
16850.0 2.5468e-05
16870.0 2.5409e-05
16890.0 2.5351e-05
16910.0 2.529e-05
16930.0 2.5228e-05
16950.0 2.517e-05
16970.0 2.511e-05
16990.0 2.5049e-05
17010.0 2.4988e-05
17030.0 2.493e-05
17050.0 2.4868e-05
17070.0 2.4806e-05
17090.0 2.4747e-05
17110.0 2.4686e-05
17130.0 2.4622e-05
17150.0 2.4561e-05
17170.0 2.4501e-05
17190.0 2.4438e-05
17210.0 2.4376e-05
17230.0 2.4315e-05
17250.0 2.4253e-05
17270.0 2.4189e-05
17290.0 2.4127e-05
17310.0 2.4065e-05
17330.0 2.4001e-05
17350.0 2.3936e-05
17370.0 2.3875e-05
17390.0 2.3812e-05
17410.0 2.3747e-05
17430.0 2.3684e-05
17450.0 2.3622e-05
17470.0 2.3556e-05
17490.0 2.3491e-05
17510.0 2.3428e-05
17530.0 2.3364e-05
17550.0 2.3297e-05
17570.0 2.3233e-05
17590.0 2.317e-05
17610.0 2.3104e-05
17630.0 2.3038e-05
17650.0 2.2974e-05
17670.0 2.2908e-05
17690.0 2.284e-05
17710.0 2.2775e-05
17730.0 2.271e-05
17750.0 2.2643e-05
17770.0 2.2577e-05
17790.0 2.2512e-05
17810.0 2.2445e-05
17830.0 2.2377e-05
17850.0 2.2311e-05
17870.0 2.2245e-05
17890.0 2.2176e-05
17910.0 2.2108e-05
17930.0 2.2043e-05
17950.0 2.1975e-05
17970.0 2.1906e-05
17990.0 2.184e-05
18010.0 2.1773e-05
18030.0 2.1702e-05
18050.0 2.1634e-05
18070.0 2.1568e-05
18090.0 2.1499e-05
18110.0 2.1429e-05
18130.0 2.1362e-05
18150.0 2.1294e-05
18170.0 2.1224e-05
18190.0 2.1155e-05
18210.0 2.1088e-05
18230.0 2.1018e-05
18250.0 2.0947e-05
18270.0 2.0879e-05
18290.0 2.081e-05
18310.0 2.0739e-05
18330.0 2.067e-05
18350.0 2.0603e-05
18370.0 2.0532e-05
18390.0 2.0461e-05
18410.0 2.0392e-05
18430.0 2.0323e-05
18450.0 2.025e-05
18470.0 2.0181e-05
18490.0 2.0112e-05
18510.0 2.0041e-05
18530.0 1.997e-05
18550.0 1.9902e-05
18570.0 1.9832e-05
18590.0 1.9759e-05
18610.0 1.9689e-05
18630.0 1.962e-05
18650.0 1.9548e-05
18670.0 1.9476e-05
18690.0 1.9408e-05
18710.0 1.9337e-05
18730.0 1.9265e-05
18750.0 1.9195e-05
18770.0 1.9126e-05
18790.0 1.9052e-05
18810.0 1.8981e-05
18830.0 1.8911e-05
18850.0 1.884e-05
18870.0 1.8768e-05
18890.0 1.8698e-05
18910.0 1.8628e-05
18930.0 1.8555e-05
18950.0 1.8484e-05
18970.0 1.8414e-05
18990.0 1.8343e-05
19010.0 1.8269e-05
19030.0 1.8199e-05
19050.0 1.8129e-05
19070.0 1.8057e-05
19090.0 1.7985e-05
19110.0 1.7916e-05
19130.0 1.7844e-05
19150.0 1.7771e-05
19170.0 1.7701e-05
19190.0 1.7631e-05
19210.0 1.7558e-05
19230.0 1.7486e-05
19250.0 1.7417e-05
19270.0 1.7345e-05
19290.0 1.7273e-05
19310.0 1.7203e-05
19330.0 1.7133e-05
19350.0 1.7059e-05
19370.0 1.6988e-05
19390.0 1.6918e-05
19410.0 1.6846e-05
19430.0 1.6774e-05
19450.0 1.6705e-05
19470.0 1.6634e-05
19490.0 1.6562e-05
19510.0 1.6491e-05
19530.0 1.6422e-05
19550.0 1.6349e-05
19570.0 1.6276e-05
19590.0 1.6207e-05
19610.0 1.6137e-05
19630.0 1.6064e-05
19650.0 1.5994e-05
19670.0 1.5925e-05
19690.0 1.5853e-05
19710.0 1.5782e-05
19730.0 1.5712e-05
19750.0 1.5642e-05
19770.0 1.5569e-05
19790.0 1.5499e-05
19810.0 1.543e-05
19830.0 1.5358e-05
19850.0 1.5286e-05
19870.0 1.5215e-05
19890.0 1.5139e-05
19910.0 1.5055e-05
19930.0 1.4966e-05
19950.0 1.4864e-05
19970.0 1.4738e-05
19990.0 1.4587e-05
20010.0 1.2978e-05
20030.0 1.279e-05
20050.0 1.257e-05
20070.0 1.2332e-05
20090.0 1.2076e-05
20110.0 1.1786e-05
20130.0 1.1492e-05
20150.0 1.1202e-05
20170.0 1.09e-05
20190.0 1.0594e-05
20210.0 1.0306e-05
20230.0 1.0024e-05
20250.0 9.7416e-06
20270.0 9.4796e-06
20290.0 9.2404e-06
20310.0 9.013e-06
20330.0 8.8006e-06
20350.0 8.6243e-06
20370.0 8.4678e-06
20390.0 8.3305e-06
20410.0 8.2197e-06
20430.0 8.1342e-06
20450.0 8.0665e-06
20470.0 8.0211e-06
20490.0 7.9968e-06
20510.0 7.9897e-06
20530.0 7.9996e-06
20550.0 8.0243e-06
20570.0 8.0602e-06
20590.0 8.1089e-06
20610.0 8.1678e-06
20630.0 8.2327e-06
20650.0 8.3053e-06
20670.0 8.3883e-06
20690.0 8.4729e-06
20710.0 8.5603e-06
20730.0 8.6547e-06
20750.0 8.7531e-06
20770.0 8.85e-06
20790.0 8.9517e-06
20810.0 9.0593e-06
20830.0 9.1664e-06
20850.0 9.2739e-06
20870.0 9.3891e-06
20890.0 9.5065e-06
20910.0 9.6197e-06
20930.0 9.7372e-06
20950.0 9.859e-06
20970.0 9.9777e-06
20990.0 1.0095e-05
21010.0 1.0218e-05
21030.0 1.0338e-05
21050.0 1.0453e-05
21070.0 1.0568e-05
21090.0 1.0683e-05
21110.0 1.0788e-05
21130.0 1.0887e-05
21150.0 1.0982e-05
21170.0 1.1069e-05
21190.0 1.1143e-05
21210.0 1.121e-05
21230.0 1.1266e-05
21250.0 1.1305e-05
21270.0 1.133e-05
21290.0 1.134e-05
21310.0 1.1331e-05
21330.0 1.1304e-05
21350.0 1.1257e-05
21370.0 1.1188e-05
21390.0 1.1101e-05
21410.0 1.0993e-05
21430.0 1.0858e-05
21450.0 1.0705e-05
21470.0 1.0539e-05
21490.0 1.0351e-05
21510.0 1.0145e-05
21530.0 9.9356e-06
21550.0 9.7163e-06
21570.0 9.4824e-06
21590.0 9.2523e-06
21610.0 9.0301e-06
21630.0 8.8075e-06
21650.0 8.5901e-06
21670.0 8.4017e-06
21690.0 8.2279e-06
21710.0 8.0714e-06
21730.0 7.9432e-06
21750.0 7.8443e-06
21770.0 7.7689e-06
21790.0 7.7256e-06
21810.0 7.7136e-06
21830.0 7.7307e-06
21850.0 7.779e-06
21870.0 7.8543e-06
21890.0 7.9517e-06
21910.0 8.0765e-06
21930.0 8.223e-06
21950.0 8.3817e-06
21970.0 8.5574e-06
21990.0 8.7547e-06
22010.0 8.9518e-06
22030.0 9.1521e-06
22050.0 9.3624e-06
22070.0 9.5738e-06
22090.0 9.774e-06
22110.0 9.9758e-06
22130.0 1.0177e-05
22150.0 1.0366e-05
22170.0 1.0543e-05
22190.0 1.0719e-05
22210.0 1.0882e-05
22230.0 1.1026e-05
22250.0 1.1162e-05
22270.0 1.1287e-05
22290.0 1.1394e-05
22310.0 1.1485e-05
22330.0 1.1566e-05
22350.0 1.1628e-05
22370.0 1.1672e-05
22390.0 1.17e-05
22410.0 1.1708e-05
22430.0 1.1697e-05
22450.0 1.1667e-05
22470.0 1.1615e-05
22490.0 1.1542e-05
22510.0 1.1451e-05
22530.0 1.1334e-05
22550.0 1.1192e-05
22570.0 1.1035e-05
22590.0 1.0857e-05
22610.0 1.0653e-05
22630.0 1.0432e-05
