#lamb flux
1010.0 1.7066e-07
1030.0 1.8825e-07
1050.0 2.0536e-07
1070.0 2.2466e-07
1090.0 2.475e-07
1110.0 2.7078e-07
1130.0 2.9416e-07
1150.0 3.1865e-07
1170.0 3.4403e-07
1190.0 3.684e-07
1210.0 3.935e-07
1230.0 4.1999e-07
1250.0 4.4646e-07
1270.0 4.7303e-07
1290.0 5.0189e-07
1310.0 5.317e-07
1330.0 5.6139e-07
1350.0 5.9225e-07
1370.0 6.2473e-07
1390.0 6.5718e-07
1410.0 6.893e-07
1430.0 7.2287e-07
1450.0 7.5652e-07
1470.0 7.8912e-07
1490.0 8.2169e-07
1510.0 8.5531e-07
1530.0 8.8673e-07
1550.0 9.1694e-07
1570.0 9.4714e-07
1590.0 9.7626e-07
1610.0 1.0028e-06
1630.0 1.0286e-06
1650.0 1.0537e-06
1670.0 1.0764e-06
1690.0 1.0973e-06
1710.0 1.1178e-06
1730.0 1.137e-06
1750.0 1.1533e-06
1770.0 1.1691e-06
1790.0 1.1844e-06
1810.0 1.1981e-06
1830.0 1.2108e-06
1850.0 1.2248e-06
1870.0 1.238e-06
1890.0 1.2507e-06
1910.0 1.2645e-06
1930.0 1.2797e-06
1950.0 1.2949e-06
1970.0 1.3112e-06
1990.0 1.3298e-06
2010.0 1.3495e-06
2030.0 1.3699e-06
2050.0 1.3925e-06
2070.0 1.4171e-06
2090.0 1.4414e-06
2110.0 1.4666e-06
2130.0 1.4931e-06
2150.0 1.5195e-06
2170.0 1.5447e-06
2190.0 1.5705e-06
2210.0 1.5957e-06
2230.0 1.619e-06
2250.0 1.6408e-06
2270.0 1.6621e-06
2290.0 1.6809e-06
2310.0 1.6967e-06
2330.0 1.7113e-06
2350.0 1.7239e-06
2370.0 1.7333e-06
2390.0 1.7406e-06
2410.0 1.7467e-06
2430.0 1.7496e-06
2450.0 1.7496e-06
2470.0 1.7476e-06
2490.0 1.7436e-06
2510.0 1.7374e-06
2530.0 1.7334e-06
2550.0 1.7382e-06
2570.0 1.7591e-06
2590.0 1.8054e-06
2610.0 1.8981e-06
2630.0 2.0439e-06
2650.0 2.2345e-06
2670.0 2.4723e-06
2690.0 2.7463e-06
2710.0 3.0114e-06
2730.0 3.2403e-06
2750.0 3.4241e-06
2770.0 3.5252e-06
2790.0 3.5325e-06
2810.0 3.4509e-06
2830.0 3.2765e-06
2850.0 3.0364e-06
2870.0 2.7468e-06
2890.0 2.4105e-06
2910.0 2.0478e-06
2930.0 1.6816e-06
2950.0 1.2931e-06
2970.0 8.8859e-07
2990.0 4.8824e-07
3010.0 2.101e-07
3030.0 2.101e-07
3050.0 2.101e-07
3070.0 2.101e-07
3090.0 2.101e-07
3110.0 2.101e-07
3130.0 2.101e-07
3150.0 2.101e-07
3170.0 2.101e-07
3190.0 2.101e-07
3210.0 3.6215e-06
3230.0 1.5307e-05
3250.0 2.2456e-05
3270.0 1.9829e-05
3290.0 1.5451e-05
3310.0 1.1847e-05
3330.0 1.1092e-05
3350.0 1.1881e-05
3370.0 1.3168e-05
3390.0 1.4526e-05
3410.0 1.5971e-05
3430.0 1.7875e-05
3450.0 1.9664e-05
3470.0 2.1503e-05
3490.0 2.1735e-05
3510.0 1.8286e-05
3530.0 1.651e-05
3550.0 2.059e-05
3570.0 2.5459e-05
3590.0 2.8304e-05
3610.0 2.9007e-05
3630.0 3.215e-05
3650.0 3.283e-05
3670.0 3.4046e-05
3690.0 3.8315e-05
3710.0 4.2122e-05
3730.0 4.5047e-05
3750.0 4.6344e-05
3770.0 4.6867e-05
3790.0 4.5512e-05
3810.0 4.241e-05
3830.0 3.8053e-05
3850.0 2.715e-05
3870.0 2.5153e-05
3890.0 2.8548e-05
3910.0 3.8477e-05
3930.0 4.928e-05
3950.0 5.3546e-05
3970.0 5.5972e-05
3990.0 6.2605e-05
4010.0 6.3061e-05
4030.0 5.6679e-05
4050.0 4.1309e-05
4070.0 3.5081e-05
4090.0 4.2632e-05
4110.0 4.6645e-05
4130.0 5.0424e-05
4150.0 4.996e-05
4170.0 4.7516e-05
4190.0 4.4301e-05
4210.0 5.0181e-05
4230.0 5.4086e-05
4250.0 5.8064e-05
4270.0 5.729e-05
4290.0 5.514e-05
4310.0 5.6203e-05
4330.0 6.3735e-05
4350.0 7.04e-05
4370.0 7.1637e-05
4390.0 6.6745e-05
4410.0 5.9978e-05
4430.0 4.7521e-05
4450.0 3.8322e-05
4470.0 3.8781e-05
4490.0 4.3826e-05
4510.0 4.6919e-05
4530.0 4.763e-05
4550.0 4.8916e-05
4570.0 6.6374e-05
4590.0 9.6167e-05
4610.0 0.00011418
4630.0 0.00011929
4650.0 0.0001314
4670.0 0.00015156
4690.0 0.0001589
4710.0 0.00013617
4730.0 0.00010508
4750.0 8.149e-05
4770.0 6.8334e-05
4790.0 6.1423e-05
4810.0 5.8559e-05
4830.0 6.4414e-05
4850.0 7.7457e-05
4870.0 8.6522e-05
4890.0 8.9052e-05
4910.0 8.7651e-05
4930.0 9.6907e-05
4950.0 0.00011454
4970.0 0.00012761
4990.0 0.00012895
5010.0 0.00011706
5030.0 9.6612e-05
5050.0 7.6568e-05
5070.0 6.3597e-05
5090.0 5.8798e-05
5110.0 5.8677e-05
5130.0 5.9586e-05
5150.0 5.8803e-05
5170.0 5.5072e-05
5190.0 5.2426e-05
5210.0 5.3501e-05
5230.0 6.1101e-05
5250.0 7.4311e-05
5270.0 8.8558e-05
5290.0 9.851e-05
5310.0 0.00010621
5330.0 0.00011822
5350.0 0.00012961
5370.0 0.0001305
5390.0 0.00011927
5410.0 0.00010828
5430.0 0.00010886
5450.0 0.00012623
5470.0 0.00015123
5490.0 0.00017109
5510.0 0.00017935
5530.0 0.00017747
5550.0 0.00017091
5570.0 0.0001645
5590.0 0.00015811
5610.0 0.00015444
5630.0 0.00015454
5650.0 0.00015505
5670.0 0.00014883
5690.0 0.0001336
5710.0 0.00011623
5730.0 0.00010587
5750.0 0.00010305
5770.0 0.00010631
5790.0 0.00010992
5810.0 0.00011255
5830.0 0.00011352
5850.0 0.00010996
5870.0 0.00010567
5890.0 0.00010517
5910.0 0.00010895
5930.0 0.00011107
5950.0 0.00010469
5970.0 9.2095e-05
5990.0 7.5984e-05
6010.0 6.2932e-05
6030.0 5.9458e-05
6050.0 6.4519e-05
6070.0 6.7961e-05
6090.0 6.3793e-05
6110.0 5.7357e-05
6130.0 5.9186e-05
6150.0 6.7699e-05
6170.0 7.5751e-05
6190.0 8.0969e-05
6210.0 8.255e-05
6230.0 8.1398e-05
6250.0 7.4027e-05
6270.0 6.1769e-05
6290.0 5.1344e-05
6310.0 4.6584e-05
6330.0 4.6413e-05
6350.0 4.7461e-05
6370.0 4.9406e-05
6390.0 5.6849e-05
6410.0 7.0003e-05
6430.0 8.2678e-05
6450.0 8.9431e-05
6470.0 9.1839e-05
6490.0 9.2634e-05
6510.0 9.3759e-05
6530.0 9.5126e-05
6550.0 9.5745e-05
6570.0 9.8778e-05
6590.0 0.00010148
6610.0 0.00010207
6630.0 9.8379e-05
6650.0 9.0935e-05
6670.0 8.3347e-05
6690.0 7.7749e-05
6710.0 7.4276e-05
6730.0 7.1751e-05
6750.0 7.1208e-05
6770.0 7.3162e-05
6790.0 7.5968e-05
6810.0 7.7535e-05
6830.0 7.6274e-05
6850.0 7.2302e-05
6870.0 6.798e-05
6890.0 6.6352e-05
6910.0 6.5814e-05
6930.0 6.7826e-05
6950.0 7.0416e-05
6970.0 7.207e-05
6990.0 7.2743e-05
7010.0 7.0374e-05
7030.0 6.4753e-05
7050.0 5.7693e-05
7070.0 5.275e-05
7090.0 5.1188e-05
7110.0 5.1297e-05
7130.0 4.885e-05
7150.0 4.3476e-05
7170.0 4.1948e-05
7190.0 4.6625e-05
7210.0 5.4196e-05
7230.0 6.1194e-05
7250.0 6.3771e-05
7270.0 6.2387e-05
7290.0 5.8132e-05
7310.0 5.4462e-05
7330.0 5.3361e-05
7350.0 5.3974e-05
7370.0 5.4873e-05
7390.0 5.7637e-05
7410.0 6.3841e-05
7430.0 7.23e-05
7450.0 7.9708e-05
7470.0 8.2549e-05
7490.0 7.9156e-05
7510.0 7.3103e-05
7530.0 6.6926e-05
7550.0 6.2095e-05
7570.0 5.6845e-05
7590.0 5.4141e-05
7610.0 5.4628e-05
7630.0 5.7662e-05
7650.0 6.268e-05
7670.0 6.8457e-05
7690.0 7.3178e-05
7710.0 7.7141e-05
7730.0 8.0753e-05
7750.0 8.3656e-05
7770.0 8.3596e-05
7790.0 8.4298e-05
7810.0 8.4704e-05
7830.0 8.2661e-05
7850.0 7.9687e-05
7870.0 7.7823e-05
7890.0 7.8598e-05
7910.0 7.798e-05
7930.0 7.6287e-05
7950.0 7.2835e-05
7970.0 7.0218e-05
7990.0 6.7468e-05
8010.0 6.6064e-05
8030.0 6.6368e-05
8050.0 6.6436e-05
8070.0 6.5504e-05
8090.0 6.4884e-05
8110.0 6.3148e-05
8130.0 6.3106e-05
8150.0 6.2455e-05
8170.0 6.1022e-05
8190.0 5.9439e-05
8210.0 5.8379e-05
8230.0 5.6918e-05
8250.0 5.6221e-05
8270.0 5.1983e-05
8290.0 4.3551e-05
8310.0 3.406e-05
8330.0 2.7573e-05
8350.0 2.6169e-05
8370.0 3.0361e-05
8390.0 3.5933e-05
8410.0 3.8433e-05
8430.0 3.9373e-05
8450.0 4.1693e-05
8470.0 4.5006e-05
8490.0 5.0205e-05
8510.0 5.6683e-05
8530.0 6.386e-05
8550.0 6.9918e-05
8570.0 7.4568e-05
8590.0 7.8048e-05
8610.0 7.983e-05
8630.0 7.9473e-05
8650.0 7.8283e-05
8670.0 7.8311e-05
8690.0 8.2538e-05
8710.0 8.8302e-05
8730.0 9.1568e-05
8750.0 9.116e-05
8770.0 9.2397e-05
8790.0 9.2293e-05
8810.0 8.7321e-05
8830.0 8.1466e-05
8850.0 7.3959e-05
8870.0 6.8057e-05
8890.0 6.6289e-05
8910.0 6.5847e-05
8930.0 6.1928e-05
8950.0 5.7352e-05
8970.0 5.5417e-05
8990.0 5.5236e-05
9010.0 5.3555e-05
9030.0 5.2423e-05
9050.0 5.1939e-05
9070.0 5.1707e-05
9090.0 5.1508e-05
9110.0 5.1316e-05
9130.0 5.1125e-05
9150.0 5.0938e-05
9170.0 5.0738e-05
9190.0 5.0592e-05
9210.0 5.0575e-05
9230.0 5.0321e-05
9250.0 5.0102e-05
9270.0 4.9905e-05
9290.0 4.9723e-05
9310.0 4.9545e-05
9330.0 4.9375e-05
9350.0 4.9215e-05
9370.0 4.9057e-05
9390.0 4.8897e-05
9410.0 4.8743e-05
9430.0 4.8583e-05
9450.0 4.8354e-05
9470.0 4.815e-05
9490.0 4.8075e-05
9510.0 4.7964e-05
9530.0 4.7844e-05
9550.0 4.7717e-05
9570.0 4.7585e-05
9590.0 4.7453e-05
9610.0 4.732e-05
9630.0 4.7187e-05
9650.0 4.7055e-05
9670.0 4.6925e-05
9690.0 4.6795e-05
9710.0 4.6666e-05
9730.0 4.6539e-05
9750.0 4.6412e-05
9770.0 4.6284e-05
9790.0 4.6158e-05
9810.0 4.6033e-05
9830.0 4.5907e-05
9850.0 4.5781e-05
9870.0 4.5656e-05
9890.0 4.5531e-05
9910.0 4.5404e-05
9930.0 4.5273e-05
9950.0 4.4876e-05
9970.0 4.4827e-05
9990.0 4.4762e-05
10010.0 4.4691e-05
10030.0 4.4595e-05
10050.0 4.4477e-05
10070.0 4.4358e-05
10090.0 4.4238e-05
10110.0 4.4093e-05
10130.0 4.3936e-05
10150.0 4.3805e-05
10170.0 4.3669e-05
10190.0 4.3515e-05
10210.0 4.3374e-05
10230.0 4.3234e-05
10250.0 4.3077e-05
10270.0 4.2918e-05
10290.0 4.277e-05
10310.0 4.2606e-05
10330.0 4.2427e-05
10350.0 4.2263e-05
10370.0 4.2096e-05
10390.0 4.1912e-05
10410.0 4.1727e-05
10430.0 4.1555e-05
10450.0 4.1366e-05
10470.0 4.1165e-05
10490.0 4.0973e-05
10510.0 4.0779e-05
10530.0 4.0557e-05
10550.0 4.0342e-05
10570.0 4.0136e-05
10590.0 3.9913e-05
10610.0 3.9679e-05
10630.0 3.9456e-05
10650.0 3.9226e-05
10670.0 3.8972e-05
10690.0 3.8723e-05
10710.0 3.8479e-05
10730.0 3.8217e-05
10750.0 3.7936e-05
10770.0 3.7677e-05
10790.0 3.7407e-05
10810.0 3.7117e-05
10830.0 3.683e-05
10850.0 3.6551e-05
10870.0 3.6239e-05
10890.0 3.5922e-05
10910.0 3.5615e-05
10930.0 3.5294e-05
10950.0 3.4948e-05
10970.0 3.4603e-05
10990.0 3.4263e-05
11010.0 3.706e-05
11030.0 3.6669e-05
11050.0 3.629e-05
11070.0 3.5902e-05
11090.0 3.5485e-05
11110.0 3.5097e-05
11130.0 3.4719e-05
11150.0 3.4327e-05
11170.0 3.3938e-05
11190.0 3.3573e-05
11210.0 3.3198e-05
11230.0 3.2814e-05
11250.0 3.2446e-05
11270.0 3.2088e-05
11290.0 3.1715e-05
11310.0 3.1345e-05
11330.0 3.1001e-05
11350.0 3.0647e-05
11370.0 3.0284e-05
11390.0 2.9929e-05
11410.0 2.9575e-05
11430.0 2.9188e-05
11450.0 2.8794e-05
11470.0 2.8396e-05
11490.0 2.7969e-05
11510.0 2.7505e-05
11530.0 2.7038e-05
11550.0 2.6553e-05
11570.0 2.6027e-05
11590.0 2.5486e-05
11610.0 2.4948e-05
11630.0 2.4378e-05
11650.0 2.3785e-05
11670.0 2.3216e-05
11690.0 2.2648e-05
11710.0 2.2065e-05
11730.0 2.1497e-05
11750.0 2.0961e-05
11770.0 2.0417e-05
11790.0 1.988e-05
11810.0 1.9374e-05
11830.0 1.8883e-05
11850.0 1.8382e-05
11870.0 1.7909e-05
11890.0 1.7463e-05
11910.0 1.7018e-05
11930.0 1.6581e-05
11950.0 1.6173e-05
11970.0 1.5775e-05
11990.0 1.5377e-05
12010.0 1.5004e-05
12030.0 1.4654e-05
12050.0 1.4312e-05
12070.0 1.3985e-05
12090.0 1.3694e-05
12110.0 1.3422e-05
12130.0 1.3167e-05
12150.0 1.2944e-05
12170.0 1.2751e-05
12190.0 1.2578e-05
12210.0 1.2438e-05
12230.0 1.2331e-05
12250.0 1.2253e-05
12270.0 1.2205e-05
12290.0 1.2188e-05
12310.0 1.2195e-05
12330.0 1.2232e-05
12350.0 1.2294e-05
12370.0 1.2373e-05
12390.0 1.2472e-05
12410.0 1.2597e-05
12430.0 1.2726e-05
12450.0 1.2861e-05
12470.0 1.3011e-05
12490.0 1.3164e-05
12510.0 1.3307e-05
12530.0 1.3454e-05
12550.0 1.36e-05
12570.0 1.3728e-05
12590.0 1.3841e-05
12610.0 1.3944e-05
12630.0 1.4024e-05
12650.0 1.4072e-05
12670.0 1.4098e-05
12690.0 1.4097e-05
12710.0 1.4062e-05
12730.0 1.3999e-05
12750.0 1.3905e-05
12770.0 1.378e-05
12790.0 1.3631e-05
12810.0 1.3457e-05
12830.0 1.3258e-05
12850.0 1.3048e-05
12870.0 1.2827e-05
12890.0 1.2591e-05
12910.0 1.2353e-05
12930.0 1.2119e-05
12950.0 1.188e-05
12970.0 1.1642e-05
12990.0 1.1418e-05
13010.0 1.12e-05
13030.0 1.0985e-05
13050.0 1.078e-05
13070.0 1.0587e-05
13090.0 1.0395e-05
13110.0 1.0209e-05
13130.0 1.0032e-05
13150.0 9.8608e-06
13170.0 9.6882e-06
13190.0 9.524e-06
13210.0 9.3673e-06
13230.0 9.2114e-06
13250.0 9.0593e-06
13270.0 8.9163e-06
13290.0 8.7775e-06
13310.0 8.6416e-06
13330.0 8.5156e-06
13350.0 8.3991e-06
13370.0 8.2889e-06
13390.0 8.1872e-06
13410.0 8.0983e-06
13430.0 8.0174e-06
13450.0 7.944e-06
13470.0 7.8792e-06
13490.0 7.8211e-06
13510.0 7.7663e-06
13530.0 7.7147e-06
13550.0 7.6647e-06
13570.0 7.6137e-06
13590.0 7.5595e-06
13610.0 7.5025e-06
13630.0 7.4422e-06
13650.0 7.3758e-06
13670.0 7.3049e-06
13690.0 7.2316e-06
13710.0 7.1545e-06
13730.0 7.0724e-06
13750.0 6.9929e-06
13770.0 6.9143e-06
13790.0 6.8357e-06
13810.0 6.7603e-06
13830.0 6.6908e-06
13850.0 6.6238e-06
13870.0 6.5606e-06
13890.0 6.5037e-06
13910.0 6.4514e-06
13930.0 6.4018e-06
13950.0 6.3557e-06
13970.0 6.3138e-06
13990.0 6.2726e-06
14010.0 6.2317e-06
14030.0 6.1916e-06
14050.0 6.1509e-06
14070.0 6.1067e-06
14090.0 6.061e-06
14110.0 6.0137e-06
14130.0 5.9626e-06
14150.0 5.9075e-06
14170.0 5.8521e-06
14190.0 5.7948e-06
14210.0 5.7343e-06
14230.0 5.6743e-06
14250.0 5.6166e-06
14270.0 5.5583e-06
14290.0 5.502e-06
14310.0 5.452e-06
14330.0 5.4062e-06
14350.0 5.3646e-06
14370.0 5.3295e-06
14390.0 5.3013e-06
14410.0 5.2778e-06
14430.0 5.2599e-06
14450.0 5.2478e-06
14470.0 5.2399e-06
14490.0 5.2355e-06
14510.0 5.2347e-06
14530.0 5.2365e-06
14550.0 5.2408e-06
14570.0 5.2474e-06
14590.0 5.2566e-06
14610.0 5.2688e-06
14630.0 5.2852e-06
14650.0 5.3062e-06
14670.0 5.3323e-06
14690.0 5.3657e-06
14710.0 5.4075e-06
14730.0 5.4554e-06
14750.0 5.5128e-06
14770.0 5.5815e-06
14790.0 5.659e-06
14810.0 5.7449e-06
14830.0 5.8473e-06
14850.0 5.9604e-06
14870.0 6.0806e-06
14890.0 6.2124e-06
14910.0 6.3554e-06
14930.0 6.4977e-06
14950.0 6.636e-06
14970.0 6.7723e-06
14990.0 6.8942e-06
15010.0 6.9963e-06
15030.0 7.0817e-06
15050.0 7.1505e-06
15070.0 7.2008e-06
15090.0 7.2401e-06
15110.0 7.2719e-06
15130.0 7.2988e-06
15150.0 7.3232e-06
15170.0 7.3467e-06
15190.0 7.3699e-06
15210.0 7.3933e-06
15230.0 7.4171e-06
15250.0 7.4412e-06
15270.0 7.4659e-06
15290.0 7.4911e-06
15310.0 7.5167e-06
15330.0 7.5427e-06
15350.0 7.5692e-06
15370.0 7.5961e-06
15390.0 7.6234e-06
15410.0 7.6512e-06
15430.0 7.6794e-06
15450.0 7.708e-06
15470.0 7.737e-06
15490.0 7.7664e-06
15510.0 7.7962e-06
15530.0 7.8263e-06
15550.0 7.8568e-06
15570.0 7.8877e-06
15590.0 7.9188e-06
15610.0 7.9503e-06
15630.0 7.9822e-06
15650.0 8.0144e-06
15670.0 8.0469e-06
15690.0 8.0796e-06
15710.0 8.1128e-06
15730.0 8.1461e-06
15750.0 8.1797e-06
15770.0 8.2136e-06
15790.0 8.2477e-06
15810.0 8.282e-06
15830.0 8.3166e-06
15850.0 8.3515e-06
15870.0 8.3865e-06
15890.0 8.4216e-06
15910.0 8.4571e-06
15930.0 8.4926e-06
15950.0 8.5283e-06
15970.0 8.5641e-06
15990.0 8.6002e-06
16010.0 8.6362e-06
16030.0 8.6724e-06
16050.0 8.7088e-06
16070.0 8.7452e-06
16090.0 8.7816e-06
16110.0 8.8181e-06
16130.0 8.8547e-06
16150.0 8.8912e-06
16170.0 8.9278e-06
16190.0 8.9645e-06
16210.0 9.001e-06
16230.0 9.0376e-06
16250.0 9.0741e-06
16270.0 9.1106e-06
16290.0 9.147e-06
16310.0 9.1833e-06
16330.0 9.2196e-06
16350.0 9.2557e-06
16370.0 9.2916e-06
16390.0 9.3275e-06
16410.0 9.3632e-06
16430.0 9.3987e-06
16450.0 9.434e-06
16470.0 9.4692e-06
16490.0 9.5042e-06
16510.0 9.5388e-06
16530.0 9.5733e-06
16550.0 9.6075e-06
16570.0 9.6414e-06
16590.0 9.675e-06
16610.0 9.7084e-06
16630.0 9.7414e-06
16650.0 9.774e-06
16670.0 9.8064e-06
16690.0 9.8384e-06
16710.0 9.8699e-06
16730.0 9.9011e-06
16750.0 9.9319e-06
16770.0 9.9623e-06
16790.0 9.9921e-06
16810.0 1.0022e-05
16830.0 1.0051e-05
16850.0 1.0079e-05
16870.0 1.0107e-05
16890.0 1.0135e-05
16910.0 1.0162e-05
16930.0 1.0188e-05
16950.0 1.0214e-05
16970.0 1.024e-05
16990.0 1.0264e-05
17010.0 1.0289e-05
17030.0 1.0312e-05
17050.0 1.0335e-05
17070.0 1.0358e-05
17090.0 1.0379e-05
17110.0 1.0401e-05
17130.0 1.0421e-05
17150.0 1.0441e-05
17170.0 1.046e-05
17190.0 1.0478e-05
17210.0 1.0496e-05
17230.0 1.0513e-05
17250.0 1.0529e-05
17270.0 1.0545e-05
17290.0 1.056e-05
17310.0 1.0574e-05
17330.0 1.0587e-05
17350.0 1.06e-05
17370.0 1.0612e-05
17390.0 1.0623e-05
17410.0 1.0633e-05
17430.0 1.0643e-05
17450.0 1.0651e-05
17470.0 1.0659e-05
17490.0 1.0666e-05
17510.0 1.0673e-05
17530.0 1.0678e-05
17550.0 1.0683e-05
17570.0 1.0687e-05
17590.0 1.069e-05
17610.0 1.0692e-05
17630.0 1.0693e-05
17650.0 1.0694e-05
17670.0 1.0693e-05
17690.0 1.0692e-05
17710.0 1.069e-05
17730.0 1.0687e-05
17750.0 1.0684e-05
17770.0 1.0679e-05
17790.0 1.0674e-05
17810.0 1.0668e-05
17830.0 1.0661e-05
17850.0 1.0653e-05
17870.0 1.0644e-05
17890.0 1.0635e-05
17910.0 1.0624e-05
17930.0 1.0613e-05
17950.0 1.0601e-05
17970.0 1.0589e-05
17990.0 1.0575e-05
18010.0 1.0561e-05
18030.0 1.0545e-05
18050.0 1.0529e-05
18070.0 1.0513e-05
18090.0 1.0495e-05
18110.0 1.0477e-05
18130.0 1.0458e-05
18150.0 1.0438e-05
18170.0 1.0417e-05
18190.0 1.0396e-05
18210.0 1.0374e-05
18230.0 1.0351e-05
18250.0 1.0327e-05
18270.0 1.0303e-05
18290.0 1.0278e-05
18310.0 1.0253e-05
18330.0 1.0226e-05
18350.0 1.0199e-05
18370.0 1.0172e-05
18390.0 1.0143e-05
18410.0 1.0114e-05
18430.0 1.0085e-05
18450.0 1.0054e-05
18470.0 1.0023e-05
18490.0 9.9921e-06
18510.0 9.96e-06
18530.0 9.9274e-06
18550.0 9.8942e-06
18570.0 9.8605e-06
18590.0 9.8261e-06
18610.0 9.7913e-06
18630.0 9.756e-06
18650.0 9.7201e-06
18670.0 9.6838e-06
18690.0 9.647e-06
18710.0 9.6097e-06
18730.0 9.5719e-06
18750.0 9.5338e-06
18770.0 9.4952e-06
18790.0 9.4561e-06
18810.0 9.4166e-06
18830.0 9.3768e-06
18850.0 9.3365e-06
18870.0 9.2959e-06
18890.0 9.255e-06
18910.0 9.2137e-06
18930.0 9.1721e-06
18950.0 9.1301e-06
18970.0 9.0879e-06
18990.0 9.0453e-06
19010.0 9.0024e-06
19030.0 8.9594e-06
19050.0 8.9161e-06
19070.0 8.8724e-06
19090.0 8.8286e-06
19110.0 8.7847e-06
19130.0 8.7404e-06
19150.0 8.6959e-06
19170.0 8.6513e-06
19190.0 8.6065e-06
19210.0 8.5615e-06
19230.0 8.5164e-06
19250.0 8.4713e-06
19270.0 8.4259e-06
19290.0 8.3804e-06
19310.0 8.3349e-06
19330.0 8.2892e-06
19350.0 8.2434e-06
19370.0 8.1976e-06
19390.0 8.1518e-06
19410.0 8.1059e-06
19430.0 8.0599e-06
19450.0 8.014e-06
19470.0 7.968e-06
19490.0 7.9219e-06
19510.0 7.876e-06
19530.0 7.83e-06
19550.0 7.784e-06
19570.0 7.738e-06
19590.0 7.6922e-06
19610.0 7.6463e-06
19630.0 7.6005e-06
19650.0 7.5548e-06
19670.0 7.5092e-06
19690.0 7.4636e-06
19710.0 7.418e-06
19730.0 7.3727e-06
19750.0 7.3274e-06
19770.0 7.2822e-06
19790.0 7.2371e-06
19810.0 7.1922e-06
19830.0 7.1471e-06
19850.0 7.1019e-06
19870.0 7.0563e-06
19890.0 7.0093e-06
19910.0 6.9597e-06
19930.0 6.9062e-06
19950.0 6.8467e-06
19970.0 6.7778e-06
19990.0 6.6977e-06
20010.0 6.6079e-06
20030.0 6.5044e-06
20050.0 6.3882e-06
20070.0 6.2652e-06
20090.0 6.1367e-06
20110.0 5.9984e-06
20130.0 5.8617e-06
20150.0 5.7288e-06
20170.0 5.5953e-06
20190.0 5.4633e-06
20210.0 5.3391e-06
20230.0 5.219e-06
20250.0 5.1001e-06
20270.0 4.9882e-06
20290.0 4.8835e-06
20310.0 4.782e-06
20330.0 4.6838e-06
20350.0 4.5956e-06
20370.0 4.5117e-06
20390.0 4.4315e-06
20410.0 4.3574e-06
20430.0 4.2896e-06
20450.0 4.2244e-06
20470.0 4.164e-06
20490.0 4.1091e-06
20510.0 4.0581e-06
20530.0 4.0101e-06
20550.0 3.9664e-06
20570.0 3.9266e-06
20590.0 3.8891e-06
20610.0 3.8545e-06
20630.0 3.8227e-06
20650.0 3.7928e-06
20670.0 3.7647e-06
20690.0 3.7383e-06
20710.0 3.7132e-06
20730.0 3.6889e-06
20750.0 3.6652e-06
20770.0 3.6419e-06
20790.0 3.6188e-06
20810.0 3.5954e-06
20830.0 3.5717e-06
20850.0 3.5475e-06
20870.0 3.5226e-06
20890.0 3.4967e-06
20910.0 3.4702e-06
20930.0 3.4426e-06
20950.0 3.4139e-06
20970.0 3.3844e-06
20990.0 3.3542e-06
21010.0 3.3226e-06
21030.0 3.2902e-06
21050.0 3.2575e-06
21070.0 3.2239e-06
21090.0 3.1891e-06
21110.0 3.1547e-06
21130.0 3.1201e-06
21150.0 3.0846e-06
21170.0 3.0492e-06
21190.0 3.0144e-06
21210.0 2.979e-06
21230.0 2.9433e-06
21250.0 2.9087e-06
21270.0 2.8746e-06
21290.0 2.8402e-06
21310.0 2.8065e-06
21330.0 2.7743e-06
21350.0 2.7421e-06
21370.0 2.7105e-06
21390.0 2.6804e-06
21410.0 2.6513e-06
21430.0 2.6224e-06
21450.0 2.5953e-06
21470.0 2.5697e-06
21490.0 2.545e-06
21510.0 2.5216e-06
21530.0 2.4999e-06
21550.0 2.4796e-06
21570.0 2.4603e-06
21590.0 2.4427e-06
21610.0 2.4264e-06
21630.0 2.4114e-06
21650.0 2.3977e-06
21670.0 2.3852e-06
21690.0 2.3738e-06
21710.0 2.3634e-06
21730.0 2.354e-06
21750.0 2.3452e-06
21770.0 2.3374e-06
21790.0 2.3301e-06
21810.0 2.3232e-06
21830.0 2.3168e-06
21850.0 2.3108e-06
21870.0 2.3048e-06
21890.0 2.2987e-06
21910.0 2.2928e-06
21930.0 2.2867e-06
21950.0 2.2802e-06
21970.0 2.2736e-06
21990.0 2.2668e-06
22010.0 2.2593e-06
22030.0 2.2514e-06
22050.0 2.2432e-06
22070.0 2.2345e-06
22090.0 2.2252e-06
22110.0 2.2156e-06
22130.0 2.2055e-06
22150.0 2.1951e-06
22170.0 2.1843e-06
22190.0 2.173e-06
22210.0 2.1615e-06
22230.0 2.1497e-06
22250.0 2.1376e-06
22270.0 2.125e-06
22290.0 2.1122e-06
22310.0 2.099e-06
22330.0 2.0851e-06
22350.0 2.0707e-06
22370.0 2.0559e-06
22390.0 2.0401e-06
22410.0 2.0232e-06
22430.0 2.0058e-06
22450.0 1.9874e-06
22470.0 1.9676e-06
22490.0 1.9467e-06
22510.0 1.9252e-06
22530.0 1.9019e-06
22550.0 1.8772e-06
22570.0 1.8522e-06
22590.0 1.8263e-06
22610.0 1.7989e-06
