#lamb flux
1010.0 2.513e-06
1030.0 2.6885e-06
1050.0 2.9178e-06
1070.0 3.279e-06
1090.0 3.7989e-06
1110.0 4.3389e-06
1130.0 4.888e-06
1150.0 5.4664e-06
1170.0 6.0575e-06
1190.0 6.597e-06
1210.0 7.113e-06
1230.0 7.6017e-06
1250.0 8.0431e-06
1270.0 8.3949e-06
1290.0 8.6905e-06
1310.0 8.8916e-06
1330.0 8.9766e-06
1350.0 8.9762e-06
1370.0 8.9052e-06
1390.0 8.7486e-06
1410.0 8.5213e-06
1430.0 8.2654e-06
1450.0 7.9777e-06
1470.0 7.6637e-06
1490.0 7.3515e-06
1510.0 7.0626e-06
1530.0 6.7792e-06
1550.0 6.5223e-06
1570.0 6.3082e-06
1590.0 6.1355e-06
1610.0 6.0117e-06
1630.0 5.9891e-06
1650.0 6.0327e-06
1670.0 6.1391e-06
1690.0 6.3171e-06
1710.0 6.5812e-06
1730.0 6.9318e-06
1750.0 7.3628e-06
1770.0 7.8968e-06
1790.0 8.5399e-06
1810.0 9.2875e-06
1830.0 1.0148e-05
1850.0 1.1144e-05
1870.0 1.226e-05
1890.0 1.3495e-05
1910.0 1.4861e-05
1930.0 1.6361e-05
1950.0 1.7963e-05
1970.0 1.9668e-05
1990.0 2.1483e-05
2010.0 2.3374e-05
2030.0 2.531e-05
2050.0 2.7301e-05
2070.0 2.9326e-05
2090.0 3.1318e-05
2110.0 3.3278e-05
2130.0 3.5204e-05
2150.0 3.7048e-05
2170.0 3.8772e-05
2190.0 4.041e-05
2210.0 4.193e-05
2230.0 4.3294e-05
2250.0 4.4519e-05
2270.0 4.5636e-05
2290.0 4.6597e-05
2310.0 4.7402e-05
2330.0 4.811e-05
2350.0 4.8719e-05
2370.0 4.9215e-05
2390.0 4.9656e-05
2410.0 5.01e-05
2430.0 5.0531e-05
2450.0 5.099e-05
2470.0 5.1567e-05
2490.0 5.2304e-05
2510.0 5.3156e-05
2530.0 5.4281e-05
2550.0 5.5861e-05
2570.0 5.8002e-05
2590.0 6.0896e-05
2610.0 6.5189e-05
2630.0 7.0967e-05
2650.0 7.7978e-05
2670.0 8.6429e-05
2690.0 9.6218e-05
2710.0 0.00010629
2730.0 0.00011624
2750.0 0.0001265
2770.0 0.00013648
2790.0 0.00014602
2810.0 0.00015578
2830.0 0.00016637
2850.0 0.00017693
2870.0 0.00018796
2890.0 0.00019993
2910.0 0.00021243
2930.0 0.00022497
2950.0 0.0002384
2970.0 0.00025256
2990.0 0.00026684
3010.0 0.00028151
3030.0 0.0002971
3050.0 0.00031313
3070.0 0.00032874
3090.0 0.00034464
3110.0 0.00036014
3130.0 0.00037413
3150.0 0.00038627
3170.0 0.00039618
3190.0 0.00040342
3210.0 0.00040904
3230.0 0.0004137
3250.0 0.00041745
3270.0 0.00042142
3290.0 0.00042686
3310.0 0.00043486
3330.0 0.0004452
3350.0 0.00045713
3370.0 0.00047024
3390.0 0.00048158
3410.0 0.00049384
3430.0 0.00052438
3450.0 0.00054653
3470.0 0.0005614
3490.0 0.0005742
3510.0 0.00060728
3530.0 0.00071972
3550.0 0.00083355
3570.0 0.00091218
3590.0 0.0010053
3610.0 0.0010066
3630.0 0.00093875
3650.0 0.001
3670.0 0.0011914
3690.0 0.0013364
3710.0 0.0013877
3730.0 0.0014078
3750.0 0.0014972
3770.0 0.0015047
3790.0 0.0014371
3810.0 0.0013534
3830.0 0.001274
3850.0 0.0012784
3870.0 0.0013432
3890.0 0.0013986
3910.0 0.0014372
3930.0 0.0014443
3950.0 0.0015417
3970.0 0.0016541
3990.0 0.0016009
4010.0 0.0014295
4030.0 0.0012797
4050.0 0.0012504
4070.0 0.0013058
4090.0 0.001305
4110.0 0.0012606
4130.0 0.0012493
4150.0 0.001297
4170.0 0.0014357
4190.0 0.0015319
4210.0 0.0014622
4230.0 0.0013548
4250.0 0.0012931
4270.0 0.0012546
4290.0 0.001269
4310.0 0.001305
4330.0 0.0012411
4350.0 0.0010949
4370.0 0.00097183
4390.0 0.00088672
4410.0 0.00083003
4430.0 0.00084215
4450.0 0.00092212
4470.0 0.0010065
4490.0 0.0010861
4510.0 0.0012162
4530.0 0.0014592
4550.0 0.0017224
4570.0 0.0018812
4590.0 0.0020105
4610.0 0.0021397
4630.0 0.0021824
4650.0 0.0020273
4670.0 0.0017317
4690.0 0.0015025
4710.0 0.0014269
4730.0 0.0013709
4750.0 0.0012142
4770.0 0.0010913
4790.0 0.0011288
4810.0 0.0012262
4830.0 0.0012086
4850.0 0.0010915
4870.0 0.001097
4890.0 0.0011336
4910.0 0.0011666
4930.0 0.0011561
4950.0 0.0011307
4970.0 0.0010808
4990.0 0.0009968
5010.0 0.00092659
5030.0 0.00089427
5050.0 0.00087957
5070.0 0.00087057
5090.0 0.00086299
5110.0 0.00086146
5130.0 0.00087729
5150.0 0.00092463
5170.0 0.0010145
5190.0 0.0011281
5210.0 0.0012329
5230.0 0.001296
5250.0 0.00133
5270.0 0.0013871
5290.0 0.0014381
5310.0 0.0014426
5330.0 0.0013908
5350.0 0.0013359
5370.0 0.0013374
5390.0 0.0013908
5410.0 0.0014364
5430.0 0.0014398
5450.0 0.0014239
5470.0 0.0013856
5490.0 0.0013429
5510.0 0.0013243
5530.0 0.0013319
5550.0 0.0013506
5570.0 0.0013611
5590.0 0.0013209
5610.0 0.0012468
5630.0 0.0011788
5650.0 0.0011251
5670.0 0.0010904
5690.0 0.0010442
5710.0 0.0010117
5730.0 0.0010231
5750.0 0.0010181
5770.0 0.00099826
5790.0 0.0010074
5810.0 0.001035
5830.0 0.0010579
5850.0 0.0010648
5870.0 0.0010401
5890.0 0.00099645
5910.0 0.00095195
5930.0 0.00089176
5950.0 0.00084654
5970.0 0.00084957
5990.0 0.00087317
6010.0 0.00087712
6030.0 0.00084575
6050.0 0.00083793
6070.0 0.00086962
6090.0 0.00090472
6110.0 0.00091005
6130.0 0.00087174
6150.0 0.000817
6170.0 0.00078429
6190.0 0.00075802
6210.0 0.00073228
6230.0 0.00071259
6250.0 0.00070891
6270.0 0.00072803
6290.0 0.0007595
6310.0 0.00079709
6330.0 0.00083663
6350.0 0.00086478
6370.0 0.00087354
6390.0 0.0008719
6410.0 0.00088079
6430.0 0.00089252
6450.0 0.00089351
6470.0 0.00090031
6490.0 0.00091013
6510.0 0.00091123
6530.0 0.00089974
6550.0 0.00087396
6570.0 0.00084358
6590.0 0.00082089
6610.0 0.00080345
6630.0 0.00078771
6650.0 0.00076087
6670.0 0.00073045
6690.0 0.00070771
6710.0 0.00069389
6730.0 0.00068855
6750.0 0.00068107
6770.0 0.00066943
6790.0 0.0006583
6810.0 0.0006492
6830.0 0.0006475
6850.0 0.00064513
6870.0 0.00063841
6890.0 0.00063605
6910.0 0.00062479
6930.0 0.00061173
6950.0 0.00061023
6970.0 0.00060334
6990.0 0.00058756
7010.0 0.00057834
7030.0 0.00056936
7050.0 0.00055778
7070.0 0.00054435
7090.0 0.00053304
7110.0 0.00053893
7130.0 0.00055624
7150.0 0.00057382
7170.0 0.00058495
7190.0 0.00058221
7210.0 0.00057401
7230.0 0.00056659
7250.0 0.00055924
7270.0 0.00055167
7290.0 0.00054377
7310.0 0.00053902
7330.0 0.00054633
7350.0 0.00055198
7370.0 0.00055369
7390.0 0.00054808
7410.0 0.00053677
7430.0 0.00053205
7450.0 0.00052795
7470.0 0.00050604
7490.0 0.00048744
7510.0 0.00046609
7530.0 0.00044984
7550.0 0.00044429
7570.0 0.00045022
7590.0 0.00044664
7610.0 0.00044172
7630.0 0.00043871
7650.0 0.00043811
7670.0 0.00044638
7690.0 0.00046416
7710.0 0.00048071
7730.0 0.00049708
7750.0 0.0005096
7770.0 0.000517
7790.0 0.00051552
7810.0 0.00050544
7830.0 0.00050981
7850.0 0.00050814
7870.0 0.00049391
7890.0 0.00047717
7910.0 0.00046232
7930.0 0.00044836
7950.0 0.00043936
7970.0 0.00043882
7990.0 0.00044381
8010.0 0.00044213
8030.0 0.0004371
8050.0 0.00042919
8070.0 0.00042097
8090.0 0.00041222
8110.0 0.00041319
8130.0 0.00041665
8150.0 0.00041655
8170.0 0.00041331
8190.0 0.00040612
8210.0 0.00038771
8230.0 0.00036196
8250.0 0.00034593
8270.0 0.00033627
8290.0 0.00033117
8310.0 0.00033299
8330.0 0.00033976
8350.0 0.00033306
8370.0 0.00032517
8390.0 0.00032999
8410.0 0.00034267
8430.0 0.00036253
8450.0 0.00038122
8470.0 0.00038737
8490.0 0.00039208
8510.0 0.00039158
8530.0 0.00039132
8550.0 0.00039482
8570.0 0.00039581
8590.0 0.0003962
8610.0 0.00040711
8630.0 0.00041098
8650.0 0.00040212
8670.0 0.00040156
8690.0 0.00040361
8710.0 0.00040027
8730.0 0.00039649
8750.0 0.00038473
8770.0 0.00037951
8790.0 0.00037605
8810.0 0.00037196
8830.0 0.00035317
8850.0 0.00032634
8870.0 0.00030623
8890.0 0.00029476
8910.0 0.00027691
8930.0 0.00025785
8950.0 0.00024954
8970.0 0.00024811
8990.0 0.00024883
9010.0 0.00024718
9030.0 0.00024542
9050.0 0.00024381
9070.0 0.00024228
9090.0 0.00024076
9110.0 0.00023924
9130.0 0.00023773
9150.0 0.00023622
9170.0 0.00023471
9190.0 0.0002332
9210.0 0.00023169
9230.0 0.00023021
9250.0 0.00022872
9270.0 0.00022724
9290.0 0.00022576
9310.0 0.00022429
9330.0 0.00022282
9350.0 0.00022136
9370.0 0.0002199
9390.0 0.00021846
9410.0 0.00021701
9430.0 0.00021557
9450.0 0.0002141
9470.0 0.00021266
9490.0 0.00021129
9510.0 0.00020988
9530.0 0.00020849
9550.0 0.00020709
9570.0 0.0002057
9590.0 0.00020432
9610.0 0.00020294
9630.0 0.00020158
9650.0 0.00020021
9670.0 0.00019887
9690.0 0.00019752
9710.0 0.00019618
9730.0 0.00019485
9750.0 0.00019353
9770.0 0.00019221
9790.0 0.0001909
9810.0 0.0001896
9830.0 0.00018828
9850.0 0.00018678
9870.0 0.00018555
9890.0 0.00018435
9910.0 0.00018313
9930.0 0.00018186
9950.0 0.00018065
9970.0 0.00017942
9990.0 0.00017816
10010.0 0.00017676
10030.0 0.00017547
10050.0 0.00017435
10070.0 0.00017321
10090.0 0.00017206
10110.0 0.00017084
10130.0 0.00016942
10150.0 0.00016829
10170.0 0.00016719
10190.0 0.00016603
10210.0 0.00016491
10230.0 0.00016378
10250.0 0.00016261
10270.0 0.00016145
10290.0 0.00016032
10310.0 0.00015917
10330.0 0.00015798
10350.0 0.00015685
10370.0 0.00015572
10390.0 0.00015456
10410.0 0.00015341
10430.0 0.00015232
10450.0 0.00015119
10470.0 0.00015004
10490.0 0.00014893
10510.0 0.00014783
10530.0 0.00014667
10550.0 0.00014554
10570.0 0.00014446
10590.0 0.00014334
10610.0 0.00014221
10630.0 0.00014112
10650.0 0.00014003
10670.0 0.0001389
10690.0 0.00013779
10710.0 0.00013671
10730.0 0.00013559
10750.0 0.00013445
10770.0 0.00013338
10790.0 0.00013229
10810.0 0.00013117
10830.0 0.00013007
10850.0 0.00012901
10870.0 0.00012788
10890.0 0.00012677
10910.0 0.0001257
10930.0 0.00012464
10950.0 0.00012355
10970.0 0.00012252
10990.0 0.00012155
11010.0 0.00012337
11030.0 0.00012251
11050.0 0.0001217
11070.0 0.00012088
11090.0 0.00012001
11110.0 0.00011917
11130.0 0.00011833
11150.0 0.00011745
11170.0 0.00011656
11190.0 0.0001157
11210.0 0.00011482
11230.0 0.00011394
11250.0 0.00011309
11270.0 0.00011228
11290.0 0.00011147
11310.0 0.00011068
11330.0 0.00010996
11350.0 0.00010926
11370.0 0.00010857
11390.0 0.00010793
11410.0 0.00010731
11430.0 0.00010667
11450.0 0.00010606
11470.0 0.00010546
11490.0 0.00010484
11510.0 0.00010419
11530.0 0.00010355
11550.0 0.00010288
11570.0 0.00010217
11590.0 0.00010142
11610.0 0.00010067
11630.0 9.985e-05
11650.0 9.8979e-05
11670.0 9.8117e-05
11690.0 9.7232e-05
11710.0 9.6298e-05
11730.0 9.5363e-05
11750.0 9.4458e-05
11770.0 9.3521e-05
11790.0 9.258e-05
11810.0 9.1681e-05
11830.0 9.0799e-05
11850.0 8.9895e-05
11870.0 8.904e-05
11890.0 8.8234e-05
11910.0 8.7432e-05
11930.0 8.6648e-05
11950.0 8.5921e-05
11970.0 8.5216e-05
11990.0 8.4515e-05
12010.0 8.3864e-05
12030.0 8.3258e-05
12050.0 8.2671e-05
12070.0 8.211e-05
12090.0 8.1619e-05
12110.0 8.116e-05
12130.0 8.0734e-05
12150.0 8.0361e-05
12170.0 8.0043e-05
12190.0 7.976e-05
12210.0 7.9532e-05
12230.0 7.9361e-05
12250.0 7.924e-05
12270.0 7.9169e-05
12290.0 7.9148e-05
12310.0 7.9168e-05
12330.0 7.9232e-05
12350.0 7.9332e-05
12370.0 7.9454e-05
12390.0 7.9597e-05
12410.0 7.9764e-05
12430.0 7.9922e-05
12450.0 8.0069e-05
12470.0 8.0208e-05
12490.0 8.0319e-05
12510.0 8.0389e-05
12530.0 8.042e-05
12550.0 8.0399e-05
12570.0 8.0318e-05
12590.0 8.0174e-05
12610.0 7.9956e-05
12630.0 7.9663e-05
12650.0 7.9311e-05
12670.0 7.8884e-05
12690.0 7.8381e-05
12710.0 7.7831e-05
12730.0 7.7235e-05
12750.0 7.6559e-05
12770.0 7.5856e-05
12790.0 7.5142e-05
12810.0 7.4391e-05
12830.0 7.3606e-05
12850.0 7.2846e-05
12870.0 7.2088e-05
12890.0 7.1306e-05
12910.0 7.0539e-05
12930.0 6.9803e-05
12950.0 6.9051e-05
12970.0 6.8294e-05
12990.0 6.7582e-05
13010.0 6.688e-05
13030.0 6.6168e-05
13050.0 6.548e-05
13070.0 6.4829e-05
13090.0 6.4169e-05
13110.0 6.3523e-05
13130.0 6.2918e-05
13150.0 6.2335e-05
13170.0 6.1751e-05
13190.0 6.1214e-05
13210.0 6.0719e-05
13230.0 6.0238e-05
13250.0 5.9783e-05
13270.0 5.9369e-05
13290.0 5.8974e-05
13310.0 5.8586e-05
13330.0 5.8225e-05
13350.0 5.7883e-05
13370.0 5.7539e-05
13390.0 5.7195e-05
13410.0 5.687e-05
13430.0 5.6538e-05
13450.0 5.6193e-05
13470.0 5.585e-05
13490.0 5.5509e-05
13510.0 5.514e-05
13530.0 5.4768e-05
13550.0 5.4401e-05
13570.0 5.4024e-05
13590.0 5.363e-05
13610.0 5.3242e-05
13630.0 5.2861e-05
13650.0 5.246e-05
13670.0 5.206e-05
13690.0 5.167e-05
13710.0 5.1274e-05
13730.0 5.0856e-05
13750.0 5.046e-05
13770.0 5.0065e-05
13790.0 4.9654e-05
13810.0 4.9243e-05
13830.0 4.8844e-05
13850.0 4.8428e-05
13870.0 4.7997e-05
13890.0 4.7575e-05
13910.0 4.715e-05
13930.0 4.67e-05
13950.0 4.6245e-05
13970.0 4.5805e-05
13990.0 4.5344e-05
14010.0 4.4868e-05
14030.0 4.4401e-05
14050.0 4.3932e-05
14070.0 4.3433e-05
14090.0 4.2945e-05
14110.0 4.2472e-05
14130.0 4.199e-05
14150.0 4.1504e-05
14170.0 4.105e-05
14190.0 4.0608e-05
14210.0 4.0164e-05
14230.0 3.9745e-05
14250.0 3.9357e-05
14270.0 3.8971e-05
14290.0 3.86e-05
14310.0 3.8265e-05
14330.0 3.7946e-05
14350.0 3.7634e-05
14370.0 3.7343e-05
14390.0 3.7075e-05
14410.0 3.6808e-05
14430.0 3.6551e-05
14450.0 3.6313e-05
14470.0 3.6082e-05
14490.0 3.585e-05
14510.0 3.5634e-05
14530.0 3.5433e-05
14550.0 3.5231e-05
14570.0 3.5036e-05
14590.0 3.4856e-05
14610.0 3.468e-05
14630.0 3.4504e-05
14650.0 3.4341e-05
14670.0 3.4188e-05
14690.0 3.4038e-05
14710.0 3.3895e-05
14730.0 3.3772e-05
14750.0 3.3656e-05
14770.0 3.3552e-05
14790.0 3.3467e-05
14810.0 3.3401e-05
14830.0 3.3351e-05
14850.0 3.3327e-05
14870.0 3.3327e-05
14890.0 3.335e-05
14910.0 3.3396e-05
14930.0 3.3458e-05
14950.0 3.353e-05
14970.0 3.3607e-05
14990.0 3.3679e-05
15010.0 3.3738e-05
15030.0 3.3783e-05
15050.0 3.3811e-05
15070.0 3.3824e-05
15090.0 3.3826e-05
15110.0 3.3818e-05
15130.0 3.3806e-05
15150.0 3.3793e-05
15170.0 3.3777e-05
15190.0 3.376e-05
15210.0 3.3745e-05
15230.0 3.3731e-05
15250.0 3.3716e-05
15270.0 3.3701e-05
15290.0 3.3689e-05
15310.0 3.3677e-05
15330.0 3.3664e-05
15350.0 3.3653e-05
15370.0 3.3643e-05
15390.0 3.3631e-05
15410.0 3.3621e-05
15430.0 3.3613e-05
15450.0 3.3604e-05
15470.0 3.3595e-05
15490.0 3.3589e-05
15510.0 3.3583e-05
15530.0 3.3575e-05
15550.0 3.357e-05
15570.0 3.3566e-05
15590.0 3.356e-05
15610.0 3.3555e-05
15630.0 3.3552e-05
15650.0 3.355e-05
15670.0 3.3547e-05
15690.0 3.3545e-05
15710.0 3.3545e-05
15730.0 3.3543e-05
15750.0 3.3542e-05
15770.0 3.3543e-05
15790.0 3.3544e-05
15810.0 3.3544e-05
15830.0 3.3546e-05
15850.0 3.3549e-05
15870.0 3.3551e-05
15890.0 3.3554e-05
15910.0 3.3558e-05
15930.0 3.3563e-05
15950.0 3.3566e-05
15970.0 3.3571e-05
15990.0 3.3577e-05
16010.0 3.3582e-05
16030.0 3.3587e-05
16050.0 3.3595e-05
16070.0 3.3602e-05
16090.0 3.3608e-05
16110.0 3.3616e-05
16130.0 3.3626e-05
16150.0 3.3633e-05
16170.0 3.3641e-05
16190.0 3.3651e-05
16210.0 3.366e-05
16230.0 3.3668e-05
16250.0 3.3679e-05
16270.0 3.369e-05
16290.0 3.37e-05
16310.0 3.371e-05
16330.0 3.3722e-05
16350.0 3.3733e-05
16370.0 3.3743e-05
16390.0 3.3755e-05
16410.0 3.3768e-05
16430.0 3.3779e-05
16450.0 3.379e-05
16470.0 3.3804e-05
16490.0 3.3816e-05
16510.0 3.3827e-05
16530.0 3.384e-05
16550.0 3.3854e-05
16570.0 3.3865e-05
16590.0 3.3877e-05
16610.0 3.3891e-05
16630.0 3.3903e-05
16650.0 3.3915e-05
16670.0 3.3929e-05
16690.0 3.3942e-05
16710.0 3.3953e-05
16730.0 3.3965e-05
16750.0 3.3979e-05
16770.0 3.399e-05
16790.0 3.4001e-05
16810.0 3.4014e-05
16830.0 3.4027e-05
16850.0 3.4037e-05
16870.0 3.4049e-05
16890.0 3.4061e-05
16910.0 3.4071e-05
16930.0 3.408e-05
16950.0 3.4092e-05
16970.0 3.4102e-05
16990.0 3.4111e-05
17010.0 3.412e-05
17030.0 3.4131e-05
17050.0 3.4138e-05
17070.0 3.4146e-05
17090.0 3.4154e-05
17110.0 3.4162e-05
17130.0 3.4167e-05
17150.0 3.4174e-05
17170.0 3.4181e-05
17190.0 3.4185e-05
17210.0 3.419e-05
17230.0 3.4195e-05
17250.0 3.4199e-05
17270.0 3.4201e-05
17290.0 3.4203e-05
17310.0 3.4206e-05
17330.0 3.4206e-05
17350.0 3.4206e-05
17370.0 3.4207e-05
17390.0 3.4206e-05
17410.0 3.4204e-05
17430.0 3.4202e-05
17450.0 3.42e-05
17470.0 3.4194e-05
17490.0 3.4189e-05
17510.0 3.4185e-05
17530.0 3.4178e-05
17550.0 3.417e-05
17570.0 3.4163e-05
17590.0 3.4155e-05
17610.0 3.4144e-05
17630.0 3.4133e-05
17650.0 3.4122e-05
17670.0 3.4109e-05
17690.0 3.4093e-05
17710.0 3.408e-05
17730.0 3.4065e-05
17750.0 3.4048e-05
17770.0 3.403e-05
17790.0 3.4013e-05
17810.0 3.3992e-05
17830.0 3.397e-05
17850.0 3.3949e-05
17870.0 3.3927e-05
17890.0 3.3901e-05
17910.0 3.3875e-05
17930.0 3.3851e-05
17950.0 3.3823e-05
17970.0 3.3794e-05
17990.0 3.3765e-05
18010.0 3.3735e-05
18030.0 3.37e-05
18050.0 3.3667e-05
18070.0 3.3634e-05
18090.0 3.3597e-05
18110.0 3.3559e-05
18130.0 3.3522e-05
18150.0 3.3483e-05
18170.0 3.3442e-05
18190.0 3.34e-05
18210.0 3.3358e-05
18230.0 3.3312e-05
18250.0 3.3265e-05
18270.0 3.322e-05
18290.0 3.3172e-05
18310.0 3.3121e-05
18330.0 3.3071e-05
18350.0 3.302e-05
18370.0 3.2965e-05
18390.0 3.291e-05
18410.0 3.2855e-05
18430.0 3.2798e-05
18450.0 3.2738e-05
18470.0 3.2678e-05
18490.0 3.2618e-05
18510.0 3.2555e-05
18530.0 3.2491e-05
18550.0 3.2427e-05
18570.0 3.2361e-05
18590.0 3.2291e-05
18610.0 3.2223e-05
18630.0 3.2154e-05
18650.0 3.2081e-05
18670.0 3.2007e-05
18690.0 3.1935e-05
18710.0 3.186e-05
18730.0 3.1782e-05
18750.0 3.1705e-05
18770.0 3.1627e-05
18790.0 3.1545e-05
18810.0 3.1463e-05
18830.0 3.1381e-05
18850.0 3.1297e-05
18870.0 3.1211e-05
18890.0 3.1125e-05
18910.0 3.1038e-05
18930.0 3.0948e-05
18950.0 3.0858e-05
18970.0 3.0768e-05
18990.0 3.0676e-05
19010.0 3.058e-05
19030.0 3.0487e-05
19050.0 3.0392e-05
19070.0 3.0294e-05
19090.0 3.0196e-05
19110.0 3.0098e-05
19130.0 2.9997e-05
19150.0 2.9895e-05
19170.0 2.9794e-05
19190.0 2.9691e-05
19210.0 2.9585e-05
19230.0 2.948e-05
19250.0 2.9375e-05
19270.0 2.9267e-05
19290.0 2.9158e-05
19310.0 2.905e-05
19330.0 2.8941e-05
19350.0 2.8828e-05
19370.0 2.8716e-05
19390.0 2.8604e-05
19410.0 2.849e-05
19430.0 2.8375e-05
19450.0 2.8261e-05
19470.0 2.8145e-05
19490.0 2.8027e-05
19510.0 2.7909e-05
19530.0 2.7792e-05
19550.0 2.7672e-05
19570.0 2.7551e-05
19590.0 2.7431e-05
19610.0 2.731e-05
19630.0 2.7187e-05
19650.0 2.7065e-05
19670.0 2.6943e-05
19690.0 2.6818e-05
19710.0 2.6693e-05
19730.0 2.6569e-05
19750.0 2.6444e-05
19770.0 2.6316e-05
19790.0 2.619e-05
19810.0 2.6064e-05
19830.0 2.5935e-05
19850.0 2.5806e-05
19870.0 2.5676e-05
19890.0 2.5541e-05
19910.0 2.5399e-05
19930.0 2.525e-05
19950.0 2.5087e-05
19970.0 2.4901e-05
19990.0 2.4689e-05
20010.0 2.4457e-05
20030.0 2.4191e-05
20050.0 2.3892e-05
20070.0 2.3578e-05
20090.0 2.3247e-05
20110.0 2.2887e-05
20130.0 2.2528e-05
20150.0 2.2176e-05
20170.0 2.1816e-05
20190.0 2.1456e-05
20210.0 2.1114e-05
20230.0 2.0778e-05
20250.0 2.0442e-05
20270.0 2.0122e-05
20290.0 1.982e-05
20310.0 1.9524e-05
20330.0 1.9234e-05
20350.0 1.8973e-05
20370.0 1.8723e-05
20390.0 1.8481e-05
20410.0 1.8257e-05
20430.0 1.8051e-05
20450.0 1.7851e-05
20470.0 1.7665e-05
20490.0 1.7496e-05
20510.0 1.7337e-05
20530.0 1.7187e-05
20550.0 1.7049e-05
20570.0 1.6923e-05
20590.0 1.6804e-05
20610.0 1.6693e-05
20630.0 1.659e-05
20650.0 1.6494e-05
20670.0 1.6401e-05
20690.0 1.6314e-05
20710.0 1.6231e-05
20730.0 1.6149e-05
20750.0 1.6068e-05
20770.0 1.5987e-05
20790.0 1.5905e-05
20810.0 1.5821e-05
20830.0 1.5733e-05
20850.0 1.5641e-05
20870.0 1.5544e-05
20890.0 1.544e-05
20910.0 1.5331e-05
20930.0 1.5215e-05
20950.0 1.5091e-05
20970.0 1.4962e-05
20990.0 1.4828e-05
21010.0 1.4683e-05
21030.0 1.4534e-05
21050.0 1.4382e-05
21070.0 1.4224e-05
21090.0 1.4058e-05
21110.0 1.3894e-05
21130.0 1.3729e-05
21150.0 1.3559e-05
21170.0 1.3389e-05
21190.0 1.3223e-05
21210.0 1.3054e-05
21230.0 1.2885e-05
21250.0 1.2722e-05
21270.0 1.2562e-05
21290.0 1.2402e-05
21310.0 1.2246e-05
21330.0 1.2098e-05
21350.0 1.1952e-05
21370.0 1.1808e-05
21390.0 1.1671e-05
21410.0 1.1539e-05
21430.0 1.1406e-05
21450.0 1.1279e-05
21470.0 1.1158e-05
21490.0 1.1039e-05
21510.0 1.0921e-05
21530.0 1.0809e-05
21550.0 1.0698e-05
21570.0 1.0587e-05
21590.0 1.0479e-05
21610.0 1.0374e-05
21630.0 1.0269e-05
21650.0 1.0163e-05
21670.0 1.0062e-05
21690.0 9.9616e-06
21710.0 9.8598e-06
21730.0 9.76e-06
21750.0 9.6626e-06
21770.0 9.5625e-06
21790.0 9.4631e-06
21810.0 9.3662e-06
21830.0 9.269e-06
21850.0 9.1699e-06
21870.0 9.0725e-06
21890.0 8.9769e-06
21910.0 8.8789e-06
21930.0 8.7808e-06
21950.0 8.6847e-06
21970.0 8.5877e-06
21990.0 8.4877e-06
22010.0 8.3907e-06
22030.0 8.2948e-06
22050.0 8.1972e-06
22070.0 8.1001e-06
22090.0 8.0067e-06
22110.0 7.9127e-06
22130.0 7.8183e-06
22150.0 7.7273e-06
22170.0 7.6389e-06
22190.0 7.5496e-06
22210.0 7.4629e-06
22230.0 7.3812e-06
22250.0 7.3004e-06
22270.0 7.221e-06
22290.0 7.1458e-06
22310.0 7.0734e-06
22330.0 7.001e-06
22350.0 6.9317e-06
22370.0 6.8657e-06
22390.0 6.8007e-06
22410.0 6.736e-06
22430.0 6.6748e-06
22450.0 6.615e-06
22470.0 6.5549e-06
22490.0 6.4961e-06
22510.0 6.4392e-06
22530.0 6.3814e-06
22550.0 6.3235e-06
22570.0 6.2675e-06
22590.0 6.212e-06
22610.0 6.1557e-06
22630.0 6.1004e-06
22650.0 6.0472e-06
22670.0 5.9934e-06
22690.0 5.9402e-06
22710.0 5.8892e-06
22730.0 5.8396e-06
