#lamb flux
1010.0 2.2843e-08
1030.0 2.5073e-08
1050.0 2.7638e-08
1070.0 3.0525e-08
1090.0 3.3805e-08
1110.0 3.7168e-08
1130.0 4.0554e-08
1150.0 4.41e-08
1170.0 4.7758e-08
1190.0 5.1227e-08
1210.0 5.4743e-08
1230.0 5.8375e-08
1250.0 6.1934e-08
1270.0 6.5391e-08
1290.0 6.9043e-08
1310.0 7.2693e-08
1330.0 7.6193e-08
1350.0 7.9732e-08
1370.0 8.3386e-08
1390.0 8.6949e-08
1410.0 9.0405e-08
1430.0 9.4019e-08
1450.0 9.7632e-08
1470.0 1.0112e-07
1490.0 1.0465e-07
1510.0 1.0838e-07
1530.0 1.1191e-07
1550.0 1.154e-07
1570.0 1.19e-07
1590.0 1.2261e-07
1610.0 1.2606e-07
1630.0 1.2962e-07
1650.0 1.3327e-07
1670.0 1.368e-07
1690.0 1.4028e-07
1710.0 1.439e-07
1730.0 1.4754e-07
1750.0 1.5096e-07
1770.0 1.5449e-07
1790.0 1.5808e-07
1810.0 1.6156e-07
1830.0 1.6498e-07
1850.0 1.6861e-07
1870.0 1.7214e-07
1890.0 1.7556e-07
1910.0 1.7903e-07
1930.0 1.826e-07
1950.0 1.8599e-07
1970.0 1.8934e-07
1990.0 1.9281e-07
2010.0 1.9622e-07
2030.0 1.995e-07
2050.0 2.0287e-07
2070.0 2.0631e-07
2090.0 2.0954e-07
2110.0 2.1275e-07
2130.0 2.1604e-07
2150.0 2.1925e-07
2170.0 2.2229e-07
2190.0 2.2543e-07
2210.0 2.2857e-07
2230.0 2.3154e-07
2250.0 2.3447e-07
2270.0 2.3752e-07
2290.0 2.4043e-07
2310.0 2.4318e-07
2330.0 2.4601e-07
2350.0 2.4891e-07
2370.0 2.5176e-07
2390.0 2.5488e-07
2410.0 2.5867e-07
2430.0 2.6313e-07
2450.0 2.686e-07
2470.0 2.7582e-07
2490.0 2.8512e-07
2510.0 2.9579e-07
2530.0 3.0879e-07
2550.0 3.2522e-07
2570.0 3.4577e-07
2590.0 3.7251e-07
2610.0 4.1257e-07
2630.0 4.6944e-07
2650.0 5.4321e-07
2670.0 6.379e-07
2690.0 7.5335e-07
2710.0 8.7535e-07
2730.0 9.9457e-07
2750.0 1.1107e-06
2770.0 1.2101e-06
2790.0 1.2871e-06
2810.0 1.3465e-06
2830.0 1.3911e-06
2850.0 1.4194e-06
2870.0 1.4384e-06
2890.0 1.452e-06
2910.0 1.4616e-06
2930.0 1.4684e-06
2950.0 1.4747e-06
2970.0 1.4808e-06
2990.0 1.4863e-06
3010.0 4.4731e-05
3030.0 4.489e-05
3050.0 4.5042e-05
3070.0 4.5155e-05
3090.0 4.5234e-05
3110.0 4.523e-05
3130.0 4.5082e-05
3150.0 4.4747e-05
3170.0 4.4136e-05
3190.0 4.3259e-05
3210.0 4.2186e-05
3230.0 4.0978e-05
3250.0 3.9757e-05
3270.0 3.8854e-05
3290.0 3.8257e-05
3310.0 3.8223e-05
3330.0 3.8652e-05
3350.0 3.95e-05
3370.0 4.0763e-05
3390.0 4.2388e-05
3410.0 4.4173e-05
3430.0 4.619e-05
3450.0 4.8521e-05
3470.0 5.1077e-05
3490.0 5.3799e-05
3510.0 5.6887e-05
3530.0 6.0218e-05
3550.0 6.3665e-05
3570.0 6.734e-05
3590.0 7.1368e-05
3610.0 7.5654e-05
3630.0 7.99e-05
3650.0 8.4342e-05
3670.0 8.8362e-05
3690.0 9.1351e-05
3710.0 9.2966e-05
3730.0 9.2607e-05
3750.0 9.0474e-05
3770.0 9.1275e-05
3790.0 9.0504e-05
3810.0 8.1202e-05
3830.0 8.2375e-05
3850.0 0.00010302
3870.0 0.000107
3890.0 9.6101e-05
3910.0 9.3082e-05
3930.0 0.00010149
3950.0 0.00011013
3970.0 0.00010874
3990.0 8.2957e-05
4010.0 0.00021861
4030.0 0.00025084
4050.0 0.0002861
4070.0 0.00026736
4090.0 0.00024503
4110.0 0.00021173
4130.0 0.00021481
4150.0 0.00025348
4170.0 0.00022694
4190.0 0.00022577
4210.0 0.00023493
4230.0 0.00026399
4250.0 0.00031561
4270.0 0.00032955
4290.0 0.00029671
4310.0 0.00029383
4330.0 0.00030259
4350.0 0.00035745
4370.0 0.00041923
4390.0 0.00036638
4410.0 0.00024185
4430.0 0.00019321
4450.0 0.00017942
4470.0 0.00012609
4490.0 0.00015903
4510.0 0.00028548
4530.0 0.00033858
4550.0 0.00032757
4570.0 0.00033333
4590.0 0.00036891
4610.0 0.00059023
4630.0 0.00079908
4650.0 0.00081386
4670.0 0.00073528
4690.0 0.0007193
4710.0 0.0007551
4730.0 0.00067328
4750.0 0.00047662
4770.0 0.00033773
4790.0 0.00033726
4810.0 0.00033689
4830.0 0.00031931
4850.0 0.00034785
4870.0 0.00046008
4890.0 0.00053774
4910.0 0.00044835
4930.0 0.00041447
4950.0 0.00046557
4970.0 0.00060578
4990.0 0.0008202
5010.0 0.00094859
5030.0 0.00080143
5050.0 0.00052109
5070.0 0.00035453
5090.0 0.00027666
5110.0 0.00027272
5130.0 0.00032166
5150.0 0.00033338
5170.0 0.00032195
5190.0 0.00029414
5210.0 0.00031694
5230.0 0.00035755
5250.0 0.00039937
5270.0 0.00040218
5290.0 0.00043952
5310.0 0.00054532
5330.0 0.00059786
5350.0 0.00059202
5370.0 0.00063986
5390.0 0.00076429
5410.0 0.00071277
5430.0 0.00059533
5450.0 0.00056905
5470.0 0.0006277
5490.0 0.00077338
5510.0 0.00095333
5530.0 0.0010998
5550.0 0.0010322
5570.0 0.00093365
5590.0 0.00079224
5610.0 0.00076103
5630.0 0.00079055
5650.0 0.00073886
5670.0 0.0006896
5690.0 0.0005885
5710.0 0.00058825
5730.0 0.00055499
5750.0 0.00035064
5770.0 0.00026282
5790.0 0.00030856
5810.0 0.00033735
5830.0 0.0004591
5850.0 0.00057187
5870.0 0.00062708
5890.0 0.00062072
5910.0 0.00060749
5930.0 0.00057987
5950.0 0.00059362
5970.0 0.00070497
5990.0 0.0006233
6010.0 0.00050396
6030.0 0.00042001
6050.0 0.0003698
6070.0 0.00039825
6090.0 0.00043826
6110.0 0.00046966
6130.0 0.00045828
6150.0 0.00037941
6170.0 0.0003147
6190.0 0.00036373
6210.0 0.00052066
6230.0 0.00072458
6250.0 0.00078545
6270.0 0.0006458
6290.0 0.00054808
6310.0 0.00042337
6330.0 0.00031715
6350.0 0.00029533
6370.0 0.00031028
6390.0 0.00036355
6410.0 0.00045951
6430.0 0.00054444
6450.0 0.00064395
6470.0 0.00070753
6490.0 0.00084992
6510.0 0.00095144
6530.0 0.00095402
6550.0 0.00086997
6570.0 0.00071468
6590.0 0.00065927
6610.0 0.00055729
6630.0 0.00054088
6650.0 0.00051984
6670.0 0.00047662
6690.0 0.0003979
6710.0 0.00037472
6730.0 0.00021462
6750.0 0.00024278
6770.0 0.00031823
6790.0 0.00039515
6810.0 0.00031488
6830.0 0.00032276
6850.0 0.00028429
6870.0 0.00026205
6890.0 0.00023664
6910.0 0.00026978
6930.0 0.00025354
6950.0 0.0002813
6970.0 0.00029492
6990.0 0.00033106
7010.0 0.00032532
7030.0 0.00035354
7050.0 0.0003208
7070.0 0.00028536
7090.0 0.00029664
7110.0 0.00031133
7130.0 0.00034748
7150.0 0.00038159
7170.0 0.00042517
7190.0 0.00046173
7210.0 0.00043182
7230.0 0.00044079
7250.0 0.00047197
7270.0 0.00050871
7290.0 0.00061712
7310.0 0.00066341
7330.0 0.00063303
7350.0 0.00057017
7370.0 0.00045936
7390.0 0.0004575
7410.0 0.00052052
7430.0 0.0005864
7450.0 0.00063532
7470.0 0.00060299
7490.0 0.0005108
7510.0 0.00069115
7530.0 0.00065669
7550.0 0.00060792
7570.0 0.00044241
7590.0 0.00025
7610.0 0.00019938
7630.0 0.00025363
7650.0 0.00031743
7670.0 0.00044516
7690.0 0.0004922
7710.0 0.00047803
7730.0 0.00048991
7750.0 0.00059432
7770.0 0.00060785
7790.0 0.00055647
7810.0 0.00047729
7830.0 0.00050498
7850.0 0.00052234
7870.0 0.00049545
7890.0 0.00040027
7910.0 0.00029642
7930.0 0.0002952
7950.0 0.00026806
7970.0 0.00023703
7990.0 0.00022569
8010.0 6.1006e-05
8030.0 5.5317e-05
8050.0 5.9855e-05
8070.0 6.876e-05
8090.0 8.5603e-05
8110.0 8.0848e-05
8130.0 4.6382e-05
8150.0 4.9213e-05
8170.0 2.5904e-05
8190.0 1.4238e-05
8210.0 4.4523e-05
8230.0 5.447e-05
8250.0 1.9783e-05
8270.0 1.5028e-05
8290.0 3.2846e-05
8310.0 2.9837e-05
8330.0 1.8451e-05
8350.0 1.4661e-05
8370.0 2.7125e-06
8390.0 1.5783e-05
8410.0 1.7928e-05
8430.0 2.2173e-05
8450.0 2.5173e-05
8470.0 4.3165e-05
8490.0 3.5334e-05
8510.0 2.7025e-05
8530.0 1.3544e-05
8550.0 4.943e-05
8570.0 7.6125e-05
8590.0 5.275e-05
8610.0 7.9856e-05
8630.0 8.7545e-05
8650.0 4.8098e-05
8670.0 7.0869e-05
8690.0 0.00010882
8710.0 9.2748e-05
8730.0 9.9156e-05
8750.0 7.7486e-05
8770.0 6.8677e-05
8790.0 7.5952e-05
8810.0 8.2514e-05
8830.0 4.535e-05
8850.0 1.8304e-05
8870.0 1.246e-05
8890.0 3.3587e-05
8910.0 5.4173e-05
8930.0 7.2556e-05
8950.0 7.9774e-05
8970.0 7.6506e-05
8990.0 5.5821e-05
9010.0 0.00010436
9030.0 8.4481e-05
9050.0 8.6355e-05
9070.0 8.8508e-05
9090.0 9.0298e-05
9110.0 9.25e-05
9130.0 9.4103e-05
9150.0 9.5257e-05
9170.0 9.6486e-05
9190.0 9.7799e-05
9210.0 9.918e-05
9230.0 0.00010064
9250.0 0.00010211
9270.0 0.00010363
9290.0 0.00010519
9310.0 0.00010674
9330.0 0.00010831
9350.0 0.00010994
9370.0 0.00011158
9390.0 0.00011322
9410.0 0.0001149
9430.0 0.00011664
9450.0 0.00011834
9470.0 0.00012008
9490.0 0.00012187
9510.0 0.00012367
9530.0 0.00012546
9550.0 0.00012733
9570.0 0.00012922
9590.0 0.0001311
9610.0 0.00013301
9630.0 0.00013498
9650.0 0.00013696
9670.0 0.00013892
9690.0 0.00014095
9710.0 0.000143
9730.0 0.00014505
9750.0 0.00014713
9770.0 0.00014928
9790.0 0.00015142
9810.0 0.00015356
9830.0 0.00015575
9850.0 0.00015797
9870.0 0.00016017
9890.0 0.00016241
9910.0 0.00016469
9930.0 0.00016697
9950.0 0.00016926
9970.0 0.0001716
9990.0 0.00017396
10010.0 0.00015259
10030.0 0.00015464
10050.0 0.00015672
10070.0 0.0001588
10090.0 0.00016087
10110.0 0.00016298
10130.0 0.0001651
10150.0 0.0001672
10170.0 0.00016932
10190.0 0.00017148
10210.0 0.0001736
10230.0 0.00017572
10250.0 0.00017788
10270.0 0.00018003
10290.0 0.00018216
10310.0 0.00018431
10330.0 0.00018648
10350.0 0.00018862
10370.0 0.00019074
10390.0 0.0001929
10410.0 0.00019504
10430.0 0.00019713
10450.0 0.00019925
10470.0 0.00020137
10490.0 0.00020346
10510.0 0.00020552
10530.0 0.00020763
10550.0 0.00020969
10570.0 0.00021171
10590.0 0.00021374
10610.0 0.00021576
10630.0 0.00021773
10650.0 0.00021969
10670.0 0.00022166
10690.0 0.00022359
10710.0 0.00022547
10730.0 0.00022736
10750.0 0.00022925
10770.0 0.00023105
10790.0 0.00023284
10810.0 0.00023462
10830.0 0.00023635
10850.0 0.00023799
10870.0 0.00023959
10890.0 0.00024104
10910.0 0.00024222
10930.0 0.00024302
10950.0 0.00024324
10970.0 0.00024269
10990.0 0.00024128
11010.0 0.00022741
11030.0 0.00022386
11050.0 0.00021947
11070.0 0.00021417
11090.0 0.00020779
11110.0 0.00020117
11130.0 0.00019427
11150.0 0.00018686
11170.0 0.00017924
11190.0 0.00017187
11210.0 0.00016428
11230.0 0.00015652
11250.0 0.00014913
11270.0 0.00014205
11290.0 0.00013497
11310.0 0.00012828
11330.0 0.00012237
11350.0 0.00011679
11370.0 0.00011162
11390.0 0.00010712
11410.0 0.00010316
11430.0 9.9459e-05
11450.0 9.6232e-05
11470.0 9.3408e-05
11490.0 9.0757e-05
11510.0 8.8186e-05
11530.0 8.5784e-05
11550.0 8.3399e-05
11570.0 8.0867e-05
11590.0 7.8261e-05
11610.0 7.5623e-05
11630.0 7.2777e-05
11650.0 6.9753e-05
11670.0 6.6784e-05
11690.0 6.3785e-05
11710.0 6.0703e-05
11730.0 5.772e-05
11750.0 5.4956e-05
11770.0 5.2244e-05
11790.0 4.9696e-05
11810.0 4.744e-05
11830.0 4.5408e-05
11850.0 4.3524e-05
11870.0 4.1928e-05
11890.0 4.058e-05
11910.0 3.938e-05
11930.0 3.8332e-05
11950.0 3.7442e-05
11970.0 3.6638e-05
11990.0 3.5873e-05
12010.0 3.5164e-05
12030.0 3.4481e-05
12050.0 3.3784e-05
12070.0 3.3066e-05
12090.0 3.2375e-05
12110.0 3.1677e-05
12130.0 3.0978e-05
12150.0 3.0325e-05
12170.0 2.9742e-05
12190.0 2.9217e-05
12210.0 2.8813e-05
12230.0 2.8554e-05
12250.0 2.845e-05
12270.0 2.8533e-05
12290.0 2.8807e-05
12310.0 2.9256e-05
12330.0 2.9931e-05
12350.0 3.0804e-05
12370.0 3.1817e-05
12390.0 3.3003e-05
12410.0 3.4409e-05
12430.0 3.5842e-05
12450.0 3.733e-05
12470.0 3.8918e-05
12490.0 4.0513e-05
12510.0 4.2005e-05
12530.0 4.3489e-05
12550.0 4.4918e-05
12570.0 4.617e-05
12590.0 4.7262e-05
12610.0 4.8228e-05
12630.0 4.8985e-05
12650.0 4.9487e-05
12670.0 4.9796e-05
12690.0 4.9883e-05
12710.0 4.9738e-05
12730.0 4.9388e-05
12750.0 4.8814e-05
12770.0 4.8049e-05
12790.0 4.7135e-05
12810.0 4.6058e-05
12830.0 4.4823e-05
12850.0 4.3538e-05
12870.0 4.2185e-05
12890.0 4.073e-05
12910.0 3.9256e-05
12930.0 3.7808e-05
12950.0 3.6305e-05
12970.0 3.4781e-05
12990.0 3.3341e-05
13010.0 3.1922e-05
13030.0 3.0492e-05
13050.0 2.912e-05
13070.0 2.7834e-05
13090.0 2.6545e-05
13110.0 2.5297e-05
13130.0 2.4144e-05
13150.0 2.3049e-05
13170.0 2.1975e-05
13190.0 2.1013e-05
13210.0 2.0161e-05
13230.0 1.9375e-05
13250.0 1.8689e-05
13270.0 1.8137e-05
13290.0 1.7694e-05
13310.0 1.7369e-05
13330.0 1.719e-05
13350.0 1.7148e-05
13370.0 1.7249e-05
13390.0 1.7502e-05
13410.0 1.7869e-05
13430.0 1.8364e-05
13450.0 1.899e-05
13470.0 1.9698e-05
13490.0 2.0456e-05
13510.0 2.1322e-05
13530.0 2.2209e-05
13550.0 2.3065e-05
13570.0 2.3916e-05
13590.0 2.4754e-05
13610.0 2.5506e-05
13630.0 2.6168e-05
13650.0 2.6779e-05
13670.0 2.7292e-05
13690.0 2.7694e-05
13710.0 2.8012e-05
13730.0 2.8246e-05
13750.0 2.8373e-05
13770.0 2.8416e-05
13790.0 2.8381e-05
13810.0 2.8267e-05
13830.0 2.809e-05
13850.0 2.7843e-05
13870.0 2.7529e-05
13890.0 2.7166e-05
13910.0 2.6755e-05
13930.0 2.6278e-05
13950.0 2.5758e-05
13970.0 2.5225e-05
13990.0 2.4646e-05
14010.0 2.4031e-05
14030.0 2.3417e-05
14050.0 2.28e-05
14070.0 2.2149e-05
14090.0 2.1525e-05
14110.0 2.0938e-05
14130.0 2.037e-05
14150.0 1.9834e-05
14170.0 1.9375e-05
14190.0 1.8976e-05
14210.0 1.8635e-05
14230.0 1.838e-05
14250.0 1.8211e-05
14270.0 1.8123e-05
14290.0 1.8128e-05
14310.0 1.8218e-05
14330.0 1.839e-05
14350.0 1.8648e-05
14370.0 1.8975e-05
14390.0 1.935e-05
14410.0 1.9795e-05
14430.0 2.0287e-05
14450.0 2.0794e-05
14470.0 2.1324e-05
14490.0 2.1891e-05
14510.0 2.2437e-05
14530.0 2.2959e-05
14550.0 2.3484e-05
14570.0 2.3991e-05
14590.0 2.4455e-05
14610.0 2.4906e-05
14630.0 2.5353e-05
14650.0 2.5769e-05
14670.0 2.6171e-05
14690.0 2.6589e-05
14710.0 2.7027e-05
14730.0 2.7464e-05
14750.0 2.7947e-05
14770.0 2.8494e-05
14790.0 2.9085e-05
14810.0 2.9727e-05
14830.0 3.0487e-05
14850.0 3.1314e-05
14870.0 3.2179e-05
14890.0 3.3114e-05
14910.0 3.4108e-05
14930.0 3.5066e-05
14950.0 3.5966e-05
14970.0 3.682e-05
14990.0 3.7541e-05
15010.0 3.8099e-05
15030.0 3.8519e-05
15050.0 3.8805e-05
15070.0 3.8958e-05
15090.0 3.9027e-05
15110.0 3.904e-05
15130.0 3.9015e-05
15150.0 3.8973e-05
15170.0 3.8919e-05
15190.0 3.886e-05
15210.0 3.8802e-05
15230.0 3.8744e-05
15250.0 3.8683e-05
15270.0 3.8624e-05
15290.0 3.8569e-05
15310.0 3.8513e-05
15330.0 3.8455e-05
15350.0 3.8401e-05
15370.0 3.8347e-05
15390.0 3.829e-05
15410.0 3.8235e-05
15430.0 3.8183e-05
15450.0 3.813e-05
15470.0 3.8074e-05
15490.0 3.8024e-05
15510.0 3.7973e-05
15530.0 3.792e-05
15550.0 3.7868e-05
15570.0 3.7819e-05
15590.0 3.7767e-05
15610.0 3.7714e-05
15630.0 3.7665e-05
15650.0 3.7616e-05
15670.0 3.7564e-05
15690.0 3.7515e-05
15710.0 3.7468e-05
15730.0 3.7417e-05
15750.0 3.7366e-05
15770.0 3.7319e-05
15790.0 3.727e-05
15810.0 3.7218e-05
15830.0 3.7169e-05
15850.0 3.7122e-05
15870.0 3.7072e-05
15890.0 3.7022e-05
15910.0 3.6975e-05
15930.0 3.6926e-05
15950.0 3.6874e-05
15970.0 3.6825e-05
15990.0 3.6777e-05
16010.0 3.6727e-05
16030.0 3.6675e-05
16050.0 3.6627e-05
16070.0 3.6578e-05
16090.0 3.6526e-05
16110.0 3.6476e-05
16130.0 3.6428e-05
16150.0 3.6374e-05
16170.0 3.6322e-05
16190.0 3.6272e-05
16210.0 3.6221e-05
16230.0 3.6167e-05
16250.0 3.6115e-05
16270.0 3.6065e-05
16290.0 3.601e-05
16310.0 3.5956e-05
16330.0 3.5905e-05
16350.0 3.5851e-05
16370.0 3.5792e-05
16390.0 3.5739e-05
16410.0 3.5686e-05
16430.0 3.5629e-05
16450.0 3.5572e-05
16470.0 3.5519e-05
16490.0 3.5461e-05
16510.0 3.5401e-05
16530.0 3.5345e-05
16550.0 3.5288e-05
16570.0 3.5226e-05
16590.0 3.5166e-05
16610.0 3.5109e-05
16630.0 3.5048e-05
16650.0 3.4986e-05
16670.0 3.4926e-05
16690.0 3.4866e-05
16710.0 3.48e-05
16730.0 3.4737e-05
16750.0 3.4676e-05
16770.0 3.4611e-05
16790.0 3.4544e-05
16810.0 3.4481e-05
16830.0 3.4416e-05
16850.0 3.4348e-05
16870.0 3.4281e-05
16890.0 3.4216e-05
16910.0 3.4147e-05
16930.0 3.4075e-05
16950.0 3.4008e-05
16970.0 3.3939e-05
16990.0 3.3867e-05
17010.0 3.3796e-05
17030.0 3.3727e-05
17050.0 3.3653e-05
17070.0 3.3579e-05
17090.0 3.3507e-05
17110.0 3.3434e-05
17130.0 3.3356e-05
17150.0 3.3281e-05
17170.0 3.3207e-05
17190.0 3.313e-05
17210.0 3.3052e-05
17230.0 3.2977e-05
17250.0 3.2898e-05
17270.0 3.2817e-05
17290.0 3.2738e-05
17310.0 3.2659e-05
17330.0 3.2577e-05
17350.0 3.2494e-05
17370.0 3.2415e-05
17390.0 3.2333e-05
17410.0 3.2248e-05
17430.0 3.2165e-05
17450.0 3.2084e-05
17470.0 3.1995e-05
17490.0 3.1909e-05
17510.0 3.1825e-05
17530.0 3.1739e-05
17550.0 3.165e-05
17570.0 3.1563e-05
17590.0 3.1478e-05
17610.0 3.1387e-05
17630.0 3.1297e-05
17650.0 3.121e-05
17670.0 3.1119e-05
17690.0 3.1024e-05
17710.0 3.0935e-05
17730.0 3.0845e-05
17750.0 3.0751e-05
17770.0 3.0658e-05
17790.0 3.0568e-05
17810.0 3.0473e-05
17830.0 3.0377e-05
17850.0 3.0284e-05
17870.0 3.019e-05
17890.0 3.0092e-05
17910.0 2.9995e-05
17930.0 2.9901e-05
17950.0 2.9804e-05
17970.0 2.9705e-05
17990.0 2.961e-05
18010.0 2.9513e-05
18030.0 2.9411e-05
18050.0 2.9312e-05
18070.0 2.9215e-05
18090.0 2.9114e-05
18110.0 2.9012e-05
18130.0 2.8914e-05
18150.0 2.8815e-05
18170.0 2.8712e-05
18190.0 2.8611e-05
18210.0 2.8511e-05
18230.0 2.8407e-05
18250.0 2.8302e-05
18270.0 2.8202e-05
18290.0 2.81e-05
18310.0 2.7995e-05
18330.0 2.7892e-05
18350.0 2.7791e-05
18370.0 2.7685e-05
18390.0 2.7579e-05
18410.0 2.7477e-05
18430.0 2.7372e-05
18450.0 2.7264e-05
18470.0 2.7159e-05
18490.0 2.7056e-05
18510.0 2.6949e-05
18530.0 2.6843e-05
18550.0 2.6739e-05
18570.0 2.6633e-05
18590.0 2.6524e-05
18610.0 2.6418e-05
18630.0 2.6313e-05
18650.0 2.6204e-05
18670.0 2.6095e-05
18690.0 2.5991e-05
18710.0 2.5884e-05
18730.0 2.5775e-05
18750.0 2.5669e-05
18770.0 2.5563e-05
18790.0 2.5452e-05
18810.0 2.5343e-05
18830.0 2.5237e-05
18850.0 2.5129e-05
18870.0 2.5019e-05
18890.0 2.4912e-05
18910.0 2.4806e-05
18930.0 2.4696e-05
18950.0 2.4587e-05
18970.0 2.4481e-05
18990.0 2.4372e-05
19010.0 2.4259e-05
19030.0 2.4153e-05
19050.0 2.4046e-05
19070.0 2.3936e-05
19090.0 2.3827e-05
19110.0 2.3722e-05
19130.0 2.3612e-05
19150.0 2.3501e-05
19170.0 2.3394e-05
19190.0 2.3287e-05
19210.0 2.3176e-05
19230.0 2.3067e-05
19250.0 2.2961e-05
19270.0 2.2852e-05
19290.0 2.2743e-05
19310.0 2.2636e-05
19330.0 2.2529e-05
19350.0 2.2418e-05
19370.0 2.231e-05
19390.0 2.2204e-05
19410.0 2.2095e-05
19430.0 2.1985e-05
19450.0 2.188e-05
19470.0 2.1773e-05
19490.0 2.1663e-05
19510.0 2.1556e-05
19530.0 2.1451e-05
19550.0 2.1342e-05
19570.0 2.1232e-05
19590.0 2.1128e-05
19610.0 2.1021e-05
19630.0 2.0912e-05
19650.0 2.0807e-05
19670.0 2.0703e-05
19690.0 2.0594e-05
19710.0 2.0487e-05
19730.0 2.0382e-05
19750.0 2.0276e-05
19770.0 2.0167e-05
19790.0 2.0062e-05
19810.0 1.9959e-05
19830.0 1.9851e-05
19850.0 1.9744e-05
19870.0 1.9639e-05
19890.0 1.9526e-05
19910.0 1.9404e-05
19930.0 1.9276e-05
19950.0 1.913e-05
19970.0 1.8955e-05
19990.0 1.8747e-05
20010.0 1.6876e-05
20030.0 1.6621e-05
20050.0 1.6325e-05
20070.0 1.6006e-05
20090.0 1.5664e-05
20110.0 1.528e-05
20130.0 1.4893e-05
20150.0 1.451e-05
20170.0 1.4115e-05
20190.0 1.3714e-05
20210.0 1.3337e-05
20230.0 1.2969e-05
20250.0 1.2601e-05
20270.0 1.2259e-05
20290.0 1.1947e-05
20310.0 1.1651e-05
20330.0 1.1373e-05
20350.0 1.1141e-05
20370.0 1.0934e-05
20390.0 1.0752e-05
20410.0 1.0603e-05
20430.0 1.0486e-05
20450.0 1.0392e-05
20470.0 1.0327e-05
20490.0 1.0288e-05
20510.0 1.0272e-05
20530.0 1.0277e-05
20550.0 1.0303e-05
20570.0 1.0343e-05
20590.0 1.0401e-05
20610.0 1.0472e-05
20630.0 1.0552e-05
20650.0 1.0642e-05
20670.0 1.0747e-05
20690.0 1.0854e-05
20710.0 1.0965e-05
20730.0 1.1086e-05
20750.0 1.1212e-05
20770.0 1.1335e-05
20790.0 1.1465e-05
20810.0 1.1602e-05
20830.0 1.1737e-05
20850.0 1.1873e-05
20870.0 1.2018e-05
20890.0 1.2165e-05
20910.0 1.2306e-05
20930.0 1.2451e-05
20950.0 1.2602e-05
20970.0 1.2748e-05
20990.0 1.2892e-05
21010.0 1.3043e-05
21030.0 1.3191e-05
21050.0 1.3331e-05
21070.0 1.347e-05
21090.0 1.361e-05
21110.0 1.3737e-05
21130.0 1.3856e-05
21150.0 1.3971e-05
21170.0 1.4075e-05
21190.0 1.4163e-05
21210.0 1.4243e-05
21230.0 1.4309e-05
21250.0 1.4355e-05
21270.0 1.4384e-05
21290.0 1.4393e-05
21310.0 1.4379e-05
21330.0 1.4344e-05
21350.0 1.4283e-05
21370.0 1.4195e-05
21390.0 1.4084e-05
21410.0 1.3949e-05
21430.0 1.3778e-05
21450.0 1.3586e-05
21470.0 1.3377e-05
21490.0 1.314e-05
21510.0 1.2881e-05
21530.0 1.2618e-05
21550.0 1.2342e-05
21570.0 1.2047e-05
21590.0 1.1758e-05
21610.0 1.1478e-05
21630.0 1.1197e-05
21650.0 1.0923e-05
21670.0 1.0684e-05
21690.0 1.0464e-05
21710.0 1.0265e-05
21730.0 1.0101e-05
21750.0 9.974e-06
21770.0 9.8755e-06
21790.0 9.8165e-06
21810.0 9.7963e-06
21830.0 9.812e-06
21850.0 9.8661e-06
21870.0 9.9537e-06
21890.0 1.0068e-05
21910.0 1.0217e-05
21930.0 1.0392e-05
21950.0 1.0583e-05
21970.0 1.0795e-05
21990.0 1.1033e-05
22010.0 1.1272e-05
22030.0 1.1514e-05
22050.0 1.177e-05
22070.0 1.2027e-05
22090.0 1.2271e-05
22110.0 1.2517e-05
22130.0 1.2763e-05
22150.0 1.2993e-05
22170.0 1.321e-05
22190.0 1.3425e-05
22210.0 1.3626e-05
22230.0 1.3802e-05
22250.0 1.3968e-05
22270.0 1.4121e-05
22290.0 1.4251e-05
22310.0 1.4363e-05
22330.0 1.4461e-05
22350.0 1.4536e-05
22370.0 1.4589e-05
22390.0 1.4621e-05
22410.0 1.463e-05
22430.0 1.4614e-05
22450.0 1.4575e-05
22470.0 1.4509e-05
22490.0 1.4417e-05
22510.0 1.4302e-05
22530.0 1.4156e-05
22550.0 1.398e-05
22570.0 1.3784e-05
22590.0 1.3563e-05
22610.0 1.331e-05
