#lamb flux
1010.0 1.0687e-10
1030.0 1.3483e-10
1050.0 1.6729e-10
1070.0 2.0422e-10
1090.0 2.4664e-10
1110.0 2.9085e-10
1130.0 3.3612e-10
1150.0 3.8427e-10
1170.0 4.3472e-10
1190.0 4.8353e-10
1210.0 5.3363e-10
1230.0 5.8582e-10
1250.0 6.3739e-10
1270.0 6.8766e-10
1290.0 7.4035e-10
1310.0 7.9249e-10
1330.0 8.4177e-10
1350.0 8.9045e-10
1370.0 9.3929e-10
1390.0 9.8529e-10
1410.0 1.0282e-09
1430.0 1.0714e-09
1450.0 1.1129e-09
1470.0 1.1511e-09
1490.0 1.1884e-09
1510.0 1.227e-09
1530.0 1.2621e-09
1550.0 1.2958e-09
1570.0 1.3307e-09
1590.0 1.3652e-09
1610.0 1.3978e-09
1630.0 1.4318e-09
1650.0 1.4672e-09
1670.0 1.5015e-09
1690.0 1.5358e-09
1710.0 1.5723e-09
1730.0 1.6096e-09
1750.0 1.6448e-09
1770.0 1.6819e-09
1790.0 1.7204e-09
1810.0 1.7582e-09
1830.0 1.7958e-09
1850.0 1.8384e-09
1870.0 1.8821e-09
1890.0 1.9243e-09
1910.0 1.9673e-09
1930.0 2.0114e-09
1950.0 2.0533e-09
1970.0 2.0947e-09
1990.0 2.1379e-09
2010.0 2.1806e-09
2030.0 2.2219e-09
2050.0 2.2647e-09
2070.0 2.3085e-09
2090.0 2.3499e-09
2110.0 2.3913e-09
2130.0 2.4341e-09
2150.0 2.4762e-09
2170.0 2.5168e-09
2190.0 2.5591e-09
2210.0 2.6033e-09
2230.0 2.6478e-09
2250.0 2.6927e-09
2270.0 2.7398e-09
2290.0 2.7861e-09
2310.0 2.831e-09
2330.0 2.8776e-09
2350.0 2.9249e-09
2370.0 2.9707e-09
2390.0 3.0171e-09
2410.0 3.0658e-09
2430.0 3.1138e-09
2450.0 3.1624e-09
2470.0 3.216e-09
2490.0 3.2778e-09
2510.0 3.3484e-09
2530.0 3.4392e-09
2550.0 3.5639e-09
2570.0 3.731e-09
2590.0 3.9517e-09
2610.0 4.267e-09
2630.0 4.6854e-09
2650.0 5.1976e-09
2670.0 5.8309e-09
2690.0 6.5988e-09
2710.0 7.4415e-09
2730.0 8.329e-09
2750.0 9.29e-09
2770.0 1.0244e-08
2790.0 1.1131e-08
2810.0 1.1964e-08
2830.0 1.2742e-08
2850.0 1.3393e-08
2870.0 1.3968e-08
2890.0 1.4501e-08
2910.0 1.4997e-08
2930.0 1.5466e-08
2950.0 1.5947e-08
2970.0 1.6446e-08
2990.0 1.6955e-08
3010.0 1.7484e-08
3030.0 1.805e-08
3050.0 1.8642e-08
3070.0 1.9245e-08
3090.0 1.9884e-08
3110.0 2.0564e-08
3130.0 2.1295e-08
3150.0 2.2115e-08
3170.0 2.3168e-08
3190.0 2.4544e-08
3210.0 2.6349e-08
3230.0 2.8762e-08
3250.0 3.1855e-08
3270.0 3.4838e-08
3290.0 3.9506e-08
3310.0 4.8942e-08
3330.0 5.2094e-08
3350.0 5.3656e-08
3370.0 5.5159e-08
3390.0 5.6687e-08
3410.0 5.8227e-08
3430.0 5.9774e-08
3450.0 6.1319e-08
3470.0 6.284e-08
3490.0 6.4298e-08
3510.0 6.5588e-08
3530.0 6.4967e-08
3550.0 6.318e-08
3570.0 6.4161e-08
3590.0 6.8348e-08
3610.0 7.4542e-08
3630.0 7.7171e-08
3650.0 7.418e-08
3670.0 6.8061e-08
3690.0 6.4428e-08
3710.0 6.5152e-08
3730.0 6.7296e-08
3750.0 6.8458e-08
3770.0 7.0764e-08
3790.0 7.3337e-08
3810.0 7.2364e-08
3830.0 6.743e-08
3850.0 6.2967e-08
3870.0 6.0841e-08
3890.0 6.0205e-08
3910.0 5.8902e-08
3930.0 5.8225e-08
3950.0 5.9885e-08
3970.0 6.1827e-08
3990.0 6.2365e-08
4010.0 6.0113e-08
4030.0 5.6842e-08
4050.0 5.4726e-08
4070.0 5.2936e-08
4090.0 5.1507e-08
4110.0 4.9651e-08
4130.0 4.6693e-08
4150.0 4.3703e-08
4170.0 4.1928e-08
4190.0 3.9123e-08
4210.0 3.541e-08
4230.0 3.1658e-08
4250.0 2.8084e-08
4270.0 2.5401e-08
4290.0 2.345e-08
4310.0 2.241e-08
4330.0 2.237e-08
4350.0 2.2528e-08
4370.0 2.2742e-08
4390.0 2.3612e-08
4410.0 2.421e-08
4430.0 2.3403e-08
4450.0 2.1237e-08
4470.0 1.9329e-08
4490.0 1.8306e-08
4510.0 1.7639e-08
4530.0 1.7303e-08
4550.0 1.7011e-08
4570.0 1.6937e-08
4590.0 1.717e-08
4610.0 1.7669e-08
4630.0 1.7967e-08
4650.0 1.8103e-08
4670.0 1.7663e-08
4690.0 1.6599e-08
4710.0 1.5546e-08
4730.0 1.4853e-08
4750.0 1.4429e-08
4770.0 1.449e-08
4790.0 1.4432e-08
4810.0 1.4124e-08
4830.0 1.4165e-08
4850.0 1.4601e-08
4870.0 1.4751e-08
4890.0 1.4488e-08
4910.0 1.4139e-08
4930.0 1.3331e-08
4950.0 1.2183e-08
4970.0 1.1385e-08
4990.0 1.073e-08
5010.0 1.0593e-08
5030.0 1.0949e-08
5050.0 1.1227e-08
5070.0 1.1648e-08
5090.0 1.2352e-08
5110.0 1.2538e-08
5130.0 1.2648e-08
5150.0 1.2878e-08
5170.0 1.2993e-08
5190.0 1.3333e-08
5210.0 1.3401e-08
5230.0 1.3264e-08
5250.0 1.3367e-08
5270.0 1.3549e-08
5290.0 1.3584e-08
5310.0 1.3484e-08
5330.0 1.3227e-08
5350.0 1.3053e-08
5370.0 1.2913e-08
5390.0 1.2738e-08
5410.0 1.2598e-08
5430.0 1.2589e-08
5450.0 1.2779e-08
5470.0 1.3016e-08
5490.0 1.3405e-08
5510.0 1.3808e-08
5530.0 1.398e-08
5550.0 1.4182e-08
5570.0 1.4225e-08
5590.0 1.3948e-08
5610.0 1.3849e-08
5630.0 1.3946e-08
5650.0 1.378e-08
5670.0 1.3475e-08
5690.0 1.3079e-08
5710.0 1.3032e-08
5730.0 1.3176e-08
5750.0 1.2618e-08
5770.0 1.1968e-08
5790.0 1.1023e-08
5810.0 9.6614e-09
5830.0 1.0401e-08
5850.0 1.1485e-08
5870.0 1.1722e-08
5890.0 1.1783e-08
5910.0 1.1893e-08
5930.0 1.1863e-08
5950.0 1.1674e-08
5970.0 1.1536e-08
5990.0 1.1378e-08
6010.0 1.1029e-08
6030.0 1.0656e-08
6050.0 1.0488e-08
6070.0 1.0429e-08
6090.0 1.0279e-08
6110.0 9.942e-09
6130.0 9.599e-09
6150.0 9.217e-09
6170.0 8.8368e-09
6190.0 8.4226e-09
6210.0 8.1288e-09
6230.0 8.0175e-09
6250.0 7.8475e-09
6270.0 7.6837e-09
6290.0 7.6322e-09
6310.0 7.5931e-09
6330.0 7.4291e-09
6350.0 7.1867e-09
6370.0 7.0538e-09
6390.0 6.9044e-09
6410.0 6.7172e-09
6430.0 6.5307e-09
6450.0 6.3909e-09
6470.0 6.2583e-09
6490.0 6.1658e-09
6510.0 6.0497e-09
6530.0 5.8994e-09
6550.0 5.7691e-09
6570.0 5.6747e-09
6590.0 5.6717e-09
6610.0 5.637e-09
6630.0 5.4508e-09
6650.0 5.2923e-09
6670.0 5.2344e-09
6690.0 5.1505e-09
6710.0 5.0247e-09
6730.0 4.9783e-09
6750.0 5.017e-09
6770.0 5.3066e-09
6790.0 5.9037e-09
6810.0 5.6118e-09
6830.0 4.9486e-09
6850.0 4.7479e-09
6870.0 4.6755e-09
6890.0 4.6751e-09
6910.0 4.6846e-09
6930.0 4.6929e-09
6950.0 4.6828e-09
6970.0 4.5636e-09
6990.0 4.5225e-09
7010.0 4.5889e-09
7030.0 4.6144e-09
7050.0 4.5478e-09
7070.0 4.4911e-09
7090.0 4.5103e-09
7110.0 4.6165e-09
7130.0 4.6314e-09
7150.0 4.6506e-09
7170.0 4.6752e-09
7190.0 4.739e-09
7210.0 4.7947e-09
7230.0 4.8549e-09
7250.0 4.9185e-09
7270.0 4.9659e-09
7290.0 5.048e-09
7310.0 5.1334e-09
7330.0 5.092e-09
7350.0 4.9837e-09
7370.0 4.9228e-09
7390.0 4.9194e-09
7410.0 4.927e-09
7430.0 4.9903e-09
7450.0 5.0206e-09
7470.0 5.0994e-09
7490.0 5.0723e-09
7510.0 5.011e-09
7530.0 5.0744e-09
7550.0 5.2137e-09
7570.0 5.2022e-09
7590.0 4.9367e-09
7610.0 4.9068e-09
7630.0 5.1768e-09
7650.0 5.2867e-09
7670.0 5.3073e-09
7690.0 5.5469e-09
7710.0 5.7243e-09
7730.0 5.7828e-09
7750.0 6.0807e-09
7770.0 5.9323e-09
7790.0 5.7981e-09
7810.0 6.1323e-09
7830.0 6.3748e-09
7850.0 6.5214e-09
7870.0 6.6601e-09
7890.0 6.7044e-09
7910.0 6.6557e-09
7930.0 6.698e-09
7950.0 7.0035e-09
7970.0 6.9996e-09
7990.0 6.5211e-09
8010.0 6.1271e-09
8030.0 6.2612e-09
8050.0 6.4017e-09
8070.0 5.7787e-09
8090.0 3.7285e-09
8110.0 3.908e-09
8130.0 5.6325e-09
8150.0 6.0653e-09
8170.0 6.3048e-09
8190.0 6.433e-09
8210.0 6.3617e-09
8230.0 6.9132e-09
8250.0 7.0712e-09
8270.0 6.6703e-09
8290.0 6.3986e-09
8310.0 6.3137e-09
8330.0 6.6802e-09
8350.0 6.997e-09
8370.0 6.8561e-09
8390.0 6.5359e-09
8410.0 6.5314e-09
8430.0 6.1157e-09
8450.0 6.2622e-09
8470.0 6.8417e-09
8490.0 6.8624e-09
8510.0 6.3645e-09
8530.0 5.9495e-09
8550.0 5.6977e-09
8570.0 5.3777e-09
8590.0 5.531e-09
8610.0 5.8804e-09
8630.0 6.031e-09
8650.0 6.1366e-09
8670.0 5.9598e-09
8690.0 5.8216e-09
8710.0 5.4038e-09
8730.0 5.214e-09
8750.0 5.4384e-09
8770.0 5.5282e-09
8790.0 5.4966e-09
8810.0 5.4845e-09
8830.0 5.609e-09
8850.0 5.8848e-09
8870.0 5.4938e-09
8890.0 5.1882e-09
8910.0 5.1105e-09
8930.0 4.7877e-09
8950.0 4.6231e-09
8970.0 4.6266e-09
8990.0 4.427e-09
9010.0 4.1572e-09
9030.0 4.0622e-09
9050.0 4.028e-09
9070.0 3.9975e-09
9090.0 3.9667e-09
9110.0 3.9358e-09
9130.0 3.9047e-09
9150.0 3.8736e-09
9170.0 3.8423e-09
9190.0 3.8109e-09
9210.0 3.7795e-09
9230.0 3.7481e-09
9250.0 3.7167e-09
9270.0 3.6854e-09
9290.0 3.654e-09
9310.0 3.6227e-09
9330.0 3.5913e-09
9350.0 3.56e-09
9370.0 3.5288e-09
9390.0 3.4978e-09
9410.0 3.467e-09
9430.0 3.4363e-09
9450.0 3.4058e-09
9470.0 3.3755e-09
9490.0 3.3454e-09
9510.0 3.3156e-09
9530.0 3.2861e-09
9550.0 3.2567e-09
9570.0 3.2277e-09
9590.0 3.1989e-09
9610.0 3.1701e-09
9630.0 3.1416e-09
9650.0 3.1134e-09
9670.0 3.0856e-09
9690.0 3.0579e-09
9710.0 3.0306e-09
9730.0 3.0036e-09
9750.0 2.9769e-09
9770.0 2.9505e-09
9790.0 2.9244e-09
9810.0 2.8986e-09
9830.0 2.8732e-09
9850.0 2.8481e-09
9870.0 2.8233e-09
9890.0 2.7987e-09
9910.0 2.7744e-09
9930.0 2.7505e-09
9950.0 2.7268e-09
9970.0 2.7035e-09
9990.0 2.6805e-09
10010.0 2.6577e-09
10030.0 2.6353e-09
10050.0 2.6132e-09
10070.0 2.5913e-09
10090.0 2.5698e-09
10110.0 2.5485e-09
10130.0 2.5276e-09
10150.0 2.5069e-09
10170.0 2.4864e-09
10190.0 2.4663e-09
10210.0 2.4464e-09
10230.0 2.4268e-09
10250.0 2.4075e-09
10270.0 2.3884e-09
10290.0 2.3695e-09
10310.0 2.3509e-09
10330.0 2.3326e-09
10350.0 2.3145e-09
10370.0 2.2966e-09
10390.0 2.2788e-09
10410.0 2.2578e-09
10430.0 2.2359e-09
10450.0 2.2229e-09
10470.0 2.2079e-09
10490.0 2.1928e-09
10510.0 2.1774e-09
10530.0 2.1614e-09
10550.0 2.1456e-09
10570.0 2.1302e-09
10590.0 2.1147e-09
10610.0 2.0992e-09
10630.0 2.0843e-09
10650.0 2.0695e-09
10670.0 2.0545e-09
10690.0 2.0398e-09
10710.0 2.0256e-09
10730.0 2.0113e-09
10750.0 1.9968e-09
10770.0 1.9831e-09
10790.0 1.9694e-09
10810.0 1.9556e-09
10830.0 1.9421e-09
10850.0 1.9291e-09
10870.0 1.9156e-09
10890.0 1.9023e-09
10910.0 1.8895e-09
10930.0 1.8766e-09
10950.0 1.8634e-09
10970.0 1.8503e-09
10990.0 1.8376e-09
11010.0 1.9073e-09
11030.0 1.8934e-09
11050.0 1.8797e-09
11070.0 1.8656e-09
11090.0 1.8507e-09
11110.0 1.8362e-09
11130.0 1.8216e-09
11150.0 1.8066e-09
11170.0 1.7914e-09
11190.0 1.7766e-09
11210.0 1.7614e-09
11230.0 1.746e-09
11250.0 1.731e-09
11270.0 1.7164e-09
11290.0 1.7016e-09
11310.0 1.6872e-09
11330.0 1.6739e-09
11350.0 1.6609e-09
11370.0 1.6483e-09
11390.0 1.6366e-09
11410.0 1.6255e-09
11430.0 1.6145e-09
11450.0 1.6042e-09
11470.0 1.5945e-09
11490.0 1.5849e-09
11510.0 1.5752e-09
11530.0 1.5661e-09
11550.0 1.557e-09
11570.0 1.5475e-09
11590.0 1.5381e-09
11610.0 1.5287e-09
11630.0 1.5189e-09
11650.0 1.5086e-09
11670.0 1.4986e-09
11690.0 1.4883e-09
11710.0 1.4776e-09
11730.0 1.4668e-09
11750.0 1.4563e-09
11770.0 1.4453e-09
11790.0 1.4342e-09
11810.0 1.4235e-09
11830.0 1.4128e-09
11850.0 1.4018e-09
11870.0 1.3913e-09
11890.0 1.3813e-09
11910.0 1.3714e-09
11930.0 1.3617e-09
11950.0 1.3528e-09
11970.0 1.3442e-09
11990.0 1.3358e-09
12010.0 1.3281e-09
12030.0 1.3211e-09
12050.0 1.3144e-09
12070.0 1.3081e-09
12090.0 1.3026e-09
12110.0 1.2975e-09
12130.0 1.2927e-09
12150.0 1.2884e-09
12170.0 1.2844e-09
12190.0 1.2806e-09
12210.0 1.2769e-09
12230.0 1.2734e-09
12250.0 1.2698e-09
12270.0 1.266e-09
12290.0 1.2621e-09
12310.0 1.2579e-09
12330.0 1.2532e-09
12350.0 1.248e-09
12370.0 1.2424e-09
12390.0 1.2363e-09
12410.0 1.2292e-09
12430.0 1.2218e-09
12450.0 1.214e-09
12470.0 1.2054e-09
12490.0 1.1962e-09
12510.0 1.187e-09
12530.0 1.1772e-09
12550.0 1.1667e-09
12570.0 1.1563e-09
12590.0 1.1458e-09
12610.0 1.1347e-09
12630.0 1.1235e-09
12650.0 1.1129e-09
12670.0 1.1021e-09
12690.0 1.0911e-09
12710.0 1.0807e-09
12730.0 1.0706e-09
12750.0 1.0603e-09
12770.0 1.0505e-09
12790.0 1.0414e-09
12810.0 1.0326e-09
12830.0 1.024e-09
12850.0 1.0163e-09
12870.0 1.0091e-09
12890.0 1.0022e-09
12910.0 9.9599e-10
12930.0 9.9051e-10
12950.0 9.8542e-10
12970.0 9.8088e-10
12990.0 9.7717e-10
13010.0 9.7404e-10
13030.0 9.7142e-10
13050.0 9.6942e-10
13070.0 9.6798e-10
13090.0 9.6693e-10
13110.0 9.6625e-10
13130.0 9.6585e-10
13150.0 9.6559e-10
13170.0 9.6535e-10
13190.0 9.6501e-10
13210.0 9.6448e-10
13230.0 9.6361e-10
13250.0 9.6231e-10
13270.0 9.6058e-10
13290.0 9.5832e-10
13310.0 9.5537e-10
13330.0 9.5191e-10
13350.0 9.4795e-10
13370.0 9.4328e-10
13390.0 9.3793e-10
13410.0 9.3239e-10
13430.0 9.2627e-10
13450.0 9.195e-10
13470.0 9.1247e-10
13490.0 9.0526e-10
13510.0 8.9725e-10
13530.0 8.89e-10
13550.0 8.8079e-10
13570.0 8.7225e-10
13590.0 8.6325e-10
13610.0 8.5436e-10
13630.0 8.4559e-10
13650.0 8.3632e-10
13670.0 8.2705e-10
13690.0 8.1807e-10
13710.0 8.0894e-10
13730.0 7.9939e-10
13750.0 7.9047e-10
13770.0 7.8171e-10
13790.0 7.7281e-10
13810.0 7.6413e-10
13830.0 7.5603e-10
13850.0 7.4786e-10
13870.0 7.3979e-10
13890.0 7.3226e-10
13910.0 7.2504e-10
13930.0 7.178e-10
13950.0 7.1088e-10
13970.0 7.0457e-10
13990.0 6.9832e-10
14010.0 6.9222e-10
14030.0 6.8658e-10
14050.0 6.8123e-10
14070.0 6.7582e-10
14090.0 6.7083e-10
14110.0 6.662e-10
14130.0 6.617e-10
14150.0 6.5732e-10
14170.0 6.5336e-10
14190.0 6.4959e-10
14210.0 6.4585e-10
14230.0 6.4234e-10
14250.0 6.3906e-10
14270.0 6.3576e-10
14290.0 6.3251e-10
14310.0 6.295e-10
14330.0 6.2654e-10
14350.0 6.2355e-10
14370.0 6.2068e-10
14390.0 6.1795e-10
14410.0 6.1515e-10
14430.0 6.1239e-10
14450.0 6.0975e-10
14470.0 6.0713e-10
14490.0 6.0442e-10
14510.0 6.0182e-10
14530.0 5.9931e-10
14550.0 5.9671e-10
14570.0 5.9409e-10
14590.0 5.9157e-10
14610.0 5.8898e-10
14630.0 5.8627e-10
14650.0 5.8362e-10
14670.0 5.8099e-10
14690.0 5.7823e-10
14710.0 5.754e-10
14730.0 5.727e-10
14750.0 5.699e-10
14770.0 5.6697e-10
14790.0 5.6408e-10
14810.0 5.612e-10
14830.0 5.5807e-10
14850.0 5.5494e-10
14870.0 5.5188e-10
14890.0 5.4875e-10
14910.0 5.4554e-10
14930.0 5.4249e-10
14950.0 5.3961e-10
14970.0 5.3678e-10
14990.0 5.3421e-10
15010.0 5.3196e-10
15030.0 5.2993e-10
15050.0 5.2805e-10
15070.0 5.2647e-10
15090.0 5.2504e-10
15110.0 5.2366e-10
15130.0 5.2234e-10
15150.0 5.2111e-10
15170.0 5.1985e-10
15190.0 5.1857e-10
15210.0 5.1734e-10
15230.0 5.1612e-10
15250.0 5.1484e-10
15270.0 5.1358e-10
15290.0 5.1238e-10
15310.0 5.1113e-10
15330.0 5.0986e-10
15350.0 5.0864e-10
15370.0 5.0742e-10
15390.0 5.0613e-10
15410.0 5.0488e-10
15430.0 5.0366e-10
15450.0 5.0241e-10
15470.0 5.0113e-10
15490.0 4.999e-10
15510.0 4.9868e-10
15530.0 4.974e-10
15550.0 4.9616e-10
15570.0 4.9494e-10
15590.0 4.9367e-10
15610.0 4.9238e-10
15630.0 4.9115e-10
15650.0 4.8992e-10
15670.0 4.8864e-10
15690.0 4.8739e-10
15710.0 4.8617e-10
15730.0 4.849e-10
15750.0 4.8363e-10
15770.0 4.824e-10
15790.0 4.8115e-10
15810.0 4.7985e-10
15830.0 4.7859e-10
15850.0 4.7737e-10
15870.0 4.761e-10
15890.0 4.7483e-10
15910.0 4.736e-10
15930.0 4.7235e-10
15950.0 4.7105e-10
15970.0 4.698e-10
15990.0 4.6856e-10
16010.0 4.6728e-10
16030.0 4.6599e-10
16050.0 4.6477e-10
16070.0 4.6351e-10
16090.0 4.6223e-10
16110.0 4.6097e-10
16130.0 4.5975e-10
16150.0 4.5844e-10
16170.0 4.5715e-10
16190.0 4.5592e-10
16210.0 4.5465e-10
16230.0 4.5336e-10
16250.0 4.521e-10
16270.0 4.5087e-10
16290.0 4.4958e-10
16310.0 4.483e-10
16330.0 4.4706e-10
16350.0 4.4579e-10
16370.0 4.4447e-10
16390.0 4.4322e-10
16410.0 4.4197e-10
16430.0 4.4068e-10
16450.0 4.394e-10
16470.0 4.3818e-10
16490.0 4.3689e-10
16510.0 4.3559e-10
16530.0 4.3433e-10
16550.0 4.3308e-10
16570.0 4.3177e-10
16590.0 4.3048e-10
16610.0 4.2925e-10
16630.0 4.2797e-10
16650.0 4.2668e-10
16670.0 4.2543e-10
16690.0 4.2417e-10
16710.0 4.2285e-10
16730.0 4.2157e-10
16750.0 4.2032e-10
16770.0 4.1904e-10
16790.0 4.1773e-10
16810.0 4.1648e-10
16830.0 4.1523e-10
16850.0 4.1392e-10
16870.0 4.1265e-10
16890.0 4.114e-10
16910.0 4.101e-10
16930.0 4.0879e-10
16950.0 4.0754e-10
16970.0 4.0627e-10
16990.0 4.0497e-10
17010.0 4.0369e-10
17030.0 4.0245e-10
17050.0 4.0115e-10
17070.0 3.9985e-10
17090.0 3.986e-10
17110.0 3.9733e-10
17130.0 3.96e-10
17150.0 3.9473e-10
17170.0 3.9348e-10
17190.0 3.9219e-10
17210.0 3.9089e-10
17230.0 3.8965e-10
17250.0 3.8837e-10
17270.0 3.8705e-10
17290.0 3.8578e-10
17310.0 3.8452e-10
17330.0 3.8322e-10
17350.0 3.8191e-10
17370.0 3.8067e-10
17390.0 3.794e-10
17410.0 3.7809e-10
17430.0 3.7683e-10
17450.0 3.7558e-10
17470.0 3.7425e-10
17490.0 3.7296e-10
17510.0 3.7171e-10
17530.0 3.7043e-10
17550.0 3.6912e-10
17570.0 3.6785e-10
17590.0 3.666e-10
17610.0 3.653e-10
17630.0 3.6401e-10
17650.0 3.6276e-10
17670.0 3.6148e-10
17690.0 3.6014e-10
17710.0 3.5889e-10
17730.0 3.5763e-10
17750.0 3.5633e-10
17770.0 3.5504e-10
17790.0 3.538e-10
17810.0 3.5251e-10
17830.0 3.512e-10
17850.0 3.4994e-10
17870.0 3.4867e-10
17890.0 3.4736e-10
17910.0 3.4607e-10
17930.0 3.4483e-10
17950.0 3.4354e-10
17970.0 3.4225e-10
17990.0 3.4099e-10
18010.0 3.3973e-10
18030.0 3.3841e-10
18050.0 3.3713e-10
18070.0 3.3588e-10
18090.0 3.3458e-10
18110.0 3.3328e-10
18130.0 3.3203e-10
18150.0 3.3077e-10
18170.0 3.2946e-10
18190.0 3.2819e-10
18210.0 3.2695e-10
18230.0 3.2564e-10
18250.0 3.2433e-10
18270.0 3.2308e-10
18290.0 3.2181e-10
18310.0 3.2051e-10
18330.0 3.1924e-10
18350.0 3.18e-10
18370.0 3.167e-10
18390.0 3.1541e-10
18410.0 3.1416e-10
18430.0 3.1289e-10
18450.0 3.1156e-10
18470.0 3.103e-10
18490.0 3.0905e-10
18510.0 3.0776e-10
18530.0 3.0648e-10
18550.0 3.0524e-10
18570.0 3.0396e-10
18590.0 3.0265e-10
18610.0 3.0138e-10
18630.0 3.0013e-10
18650.0 2.9883e-10
18670.0 2.9753e-10
18690.0 2.963e-10
18710.0 2.9503e-10
18730.0 2.9373e-10
18750.0 2.9248e-10
18770.0 2.9123e-10
18790.0 2.8991e-10
18810.0 2.8863e-10
18830.0 2.8738e-10
18850.0 2.8611e-10
18870.0 2.8481e-10
18890.0 2.8356e-10
18910.0 2.8231e-10
18930.0 2.8101e-10
18950.0 2.7973e-10
18970.0 2.7849e-10
18990.0 2.7722e-10
19010.0 2.7589e-10
19030.0 2.7465e-10
19050.0 2.734e-10
19070.0 2.721e-10
19090.0 2.7083e-10
19110.0 2.696e-10
19130.0 2.6831e-10
19150.0 2.6701e-10
19170.0 2.6576e-10
19190.0 2.6451e-10
19210.0 2.632e-10
19230.0 2.6192e-10
19250.0 2.607e-10
19270.0 2.5942e-10
19290.0 2.5813e-10
19310.0 2.5689e-10
19330.0 2.5564e-10
19350.0 2.5432e-10
19370.0 2.5305e-10
19390.0 2.5181e-10
19410.0 2.5053e-10
19430.0 2.4923e-10
19450.0 2.48e-10
19470.0 2.4674e-10
19490.0 2.4545e-10
19510.0 2.4419e-10
19530.0 2.4295e-10
19550.0 2.4166e-10
19570.0 2.4036e-10
19590.0 2.3912e-10
19610.0 2.3786e-10
19630.0 2.3657e-10
19650.0 2.3531e-10
19670.0 2.3408e-10
19690.0 2.3279e-10
19710.0 2.3151e-10
19730.0 2.3026e-10
19750.0 2.29e-10
19770.0 2.2769e-10
19790.0 2.2644e-10
19810.0 2.252e-10
19830.0 2.2392e-10
19850.0 2.2265e-10
19870.0 2.2143e-10
19890.0 2.2019e-10
19910.0 2.1893e-10
19930.0 2.1777e-10
19950.0 2.1667e-10
19970.0 2.1562e-10
19990.0 2.1468e-10
20010.0 2.1391e-10
20030.0 2.1324e-10
20050.0 2.1268e-10
20070.0 2.1224e-10
20090.0 2.1188e-10
20110.0 2.1157e-10
20130.0 2.1131e-10
20150.0 2.1107e-10
20170.0 2.1083e-10
20190.0 2.1059e-10
20210.0 2.1036e-10
20230.0 2.1012e-10
20250.0 2.0985e-10
20270.0 2.0957e-10
20290.0 2.0929e-10
20310.0 2.0899e-10
20330.0 2.0865e-10
20350.0 2.0832e-10
20370.0 2.0797e-10
20390.0 2.0759e-10
20410.0 2.0721e-10
20430.0 2.0682e-10
20450.0 2.064e-10
20470.0 2.0598e-10
20490.0 2.0556e-10
20510.0 2.0514e-10
20530.0 2.0471e-10
20550.0 2.0429e-10
20570.0 2.0389e-10
20590.0 2.0348e-10
20610.0 2.0309e-10
20630.0 2.0271e-10
20650.0 2.0234e-10
20670.0 2.0196e-10
20690.0 2.0159e-10
20710.0 2.0123e-10
20730.0 2.0086e-10
20750.0 2.0046e-10
20770.0 2.0007e-10
20790.0 1.9965e-10
20810.0 1.9918e-10
20830.0 1.987e-10
20850.0 1.982e-10
20870.0 1.9763e-10
20890.0 1.9702e-10
20910.0 1.9641e-10
20930.0 1.9576e-10
20950.0 1.9505e-10
20970.0 1.9434e-10
20990.0 1.9363e-10
21010.0 1.9285e-10
21030.0 1.9208e-10
21050.0 1.9132e-10
21070.0 1.9055e-10
21090.0 1.8976e-10
21110.0 1.89e-10
21130.0 1.8827e-10
21150.0 1.8751e-10
21170.0 1.8677e-10
21190.0 1.8606e-10
21210.0 1.8532e-10
21230.0 1.8458e-10
21250.0 1.8386e-10
21270.0 1.8314e-10
21290.0 1.8239e-10
21310.0 1.8163e-10
21330.0 1.8089e-10
21350.0 1.801e-10
21370.0 1.7929e-10
21390.0 1.785e-10
21410.0 1.7769e-10
21430.0 1.7681e-10
21450.0 1.7594e-10
21470.0 1.7508e-10
21490.0 1.7417e-10
21510.0 1.7323e-10
21530.0 1.7232e-10
21550.0 1.7138e-10
21570.0 1.704e-10
21590.0 1.6943e-10
21610.0 1.6848e-10
21630.0 1.6749e-10
21650.0 1.6648e-10
21670.0 1.6553e-10
21690.0 1.6457e-10
21710.0 1.6357e-10
21730.0 1.6261e-10
21750.0 1.6168e-10
21770.0 1.6069e-10
21790.0 1.5971e-10
21810.0 1.5877e-10
21830.0 1.5782e-10
21850.0 1.5684e-10
21870.0 1.5589e-10
21890.0 1.5497e-10
21910.0 1.5401e-10
21930.0 1.5305e-10
21950.0 1.5214e-10
21970.0 1.5122e-10
21990.0 1.5026e-10
22010.0 1.4937e-10
22030.0 1.4851e-10
22050.0 1.4764e-10
22070.0 1.4679e-10
22090.0 1.46e-10
22110.0 1.4522e-10
22130.0 1.4445e-10
22150.0 1.4375e-10
22170.0 1.4308e-10
22190.0 1.4242e-10
22210.0 1.418e-10
22230.0 1.4124e-10
22250.0 1.4069e-10
22270.0 1.4015e-10
22290.0 1.3966e-10
22310.0 1.3919e-10
22330.0 1.3871e-10
22350.0 1.3825e-10
22370.0 1.3782e-10
22390.0 1.3737e-10
22410.0 1.3692e-10
22430.0 1.3648e-10
22450.0 1.3605e-10
22470.0 1.356e-10
22490.0 1.3514e-10
22510.0 1.347e-10
22530.0 1.3423e-10
22550.0 1.3376e-10
22570.0 1.333e-10
22590.0 1.3284e-10
22610.0 1.3236e-10
