#lamb flux
1010.0 8.4711e-06
1030.0 9.4257e-06
1050.0 1.0719e-05
1070.0 1.2652e-05
1090.0 1.5188e-05
1110.0 1.7909e-05
1130.0 2.0754e-05
1150.0 2.3799e-05
1170.0 2.6955e-05
1190.0 2.9906e-05
1210.0 3.2753e-05
1230.0 3.5462e-05
1250.0 3.7968e-05
1270.0 4.0007e-05
1290.0 4.1715e-05
1310.0 4.2905e-05
1330.0 4.3465e-05
1350.0 4.3538e-05
1370.0 4.3195e-05
1390.0 4.2368e-05
1410.0 4.1134e-05
1430.0 3.9697e-05
1450.0 3.8049e-05
1470.0 3.6223e-05
1490.0 3.4354e-05
1510.0 3.2542e-05
1530.0 3.0711e-05
1550.0 2.8956e-05
1570.0 2.7345e-05
1590.0 2.5867e-05
1610.0 2.4575e-05
1630.0 2.3761e-05
1650.0 2.3175e-05
1670.0 2.2799e-05
1690.0 2.2662e-05
1710.0 2.2806e-05
1730.0 2.322e-05
1750.0 2.3879e-05
1770.0 2.4852e-05
1790.0 2.615e-05
1810.0 2.7758e-05
1830.0 2.9697e-05
1850.0 3.2038e-05
1870.0 3.4735e-05
1890.0 3.7787e-05
1910.0 4.1237e-05
1930.0 4.5093e-05
1950.0 4.9277e-05
1970.0 5.3799e-05
1990.0 5.8684e-05
2010.0 6.3841e-05
2030.0 6.9196e-05
2050.0 7.478e-05
2070.0 8.0538e-05
2090.0 8.6287e-05
2110.0 9.2038e-05
2130.0 9.7782e-05
2150.0 0.00010338
2170.0 0.00010874
2190.0 0.00011395
2210.0 0.00011891
2230.0 0.00012352
2250.0 0.00012783
2270.0 0.00013192
2290.0 0.00013566
2310.0 0.00013904
2330.0 0.00014224
2350.0 0.00014526
2370.0 0.00014806
2390.0 0.00015083
2410.0 0.00015379
2430.0 0.00015692
2450.0 0.00016037
2470.0 0.00016451
2490.0 0.00016951
2510.0 0.00017515
2530.0 0.00018196
2550.0 0.00019053
2570.0 0.00020106
2590.0 0.00021413
2610.0 0.00023203
2630.0 0.00025501
2650.0 0.00028225
2670.0 0.00031456
2690.0 0.00035154
2710.0 0.00038938
2730.0 0.00042651
2750.0 0.00046421
2770.0 0.00050043
2790.0 0.00053488
2810.0 0.00057005
2830.0 0.00060826
2850.0 0.00064706
2870.0 0.00068813
2890.0 0.00073301
2910.0 0.0007803
2930.0 0.00082809
2950.0 0.00087918
2970.0 0.00093304
2990.0 0.00098735
3010.0 0.0010431
3030.0 0.0011021
3050.0 0.0011626
3070.0 0.0012217
3090.0 0.0012818
3110.0 0.0013405
3130.0 0.0013937
3150.0 0.0014402
3170.0 0.0014784
3190.0 0.001506
3210.0 0.0015261
3230.0 0.0015401
3250.0 0.0015481
3270.0 0.0015538
3290.0 0.0015608
3310.0 0.0015715
3330.0 0.0015862
3350.0 0.0016037
3370.0 0.0016227
3390.0 0.001629
3410.0 0.0016393
3430.0 0.0016888
3450.0 0.0017238
3470.0 0.0017305
3490.0 0.0017964
3510.0 0.0020605
3530.0 0.0025368
3550.0 0.0028734
3570.0 0.0031422
3590.0 0.0035367
3610.0 0.0035247
3630.0 0.0032483
3650.0 0.0034113
3670.0 0.0040253
3690.0 0.0045164
3710.0 0.0046812
3730.0 0.0047195
3750.0 0.0050408
3770.0 0.0050685
3790.0 0.0048288
3810.0 0.0045522
3830.0 0.0043152
3850.0 0.004344
3870.0 0.0045365
3890.0 0.004675
3910.0 0.004744
3930.0 0.0047467
3950.0 0.0050799
3970.0 0.0054729
3990.0 0.0053211
4010.0 0.0047472
4030.0 0.0042772
4050.0 0.0042413
4070.0 0.0044332
4090.0 0.0043942
4110.0 0.0042288
4130.0 0.0042051
4150.0 0.0044014
4170.0 0.0048641
4190.0 0.0051102
4210.0 0.0048144
4230.0 0.004429
4250.0 0.0041917
4270.0 0.004043
4290.0 0.0040696
4310.0 0.0041785
4330.0 0.0039759
4350.0 0.0035237
4370.0 0.0031432
4390.0 0.0028785
4410.0 0.0027332
4430.0 0.0028113
4450.0 0.0030935
4470.0 0.0033976
4490.0 0.0036333
4510.0 0.0040202
4530.0 0.004725
4550.0 0.0054644
4570.0 0.0059162
4590.0 0.0063046
4610.0 0.0066445
4630.0 0.0067012
4650.0 0.0062189
4670.0 0.0054137
4690.0 0.0047846
4710.0 0.0045746
4730.0 0.0043708
4750.0 0.0038465
4770.0 0.0034404
4790.0 0.0035451
4810.0 0.0038428
4830.0 0.003757
4850.0 0.0033387
4870.0 0.0034157
4890.0 0.0035034
4910.0 0.0035536
4930.0 0.0034958
4950.0 0.0034302
4970.0 0.0032783
4990.0 0.0030281
5010.0 0.0028505
5030.0 0.0028011
5050.0 0.002786
5070.0 0.0027814
5090.0 0.0027773
5110.0 0.0027739
5130.0 0.0028304
5150.0 0.0029704
5170.0 0.0032338
5190.0 0.0035809
5210.0 0.0038605
5230.0 0.0040273
5250.0 0.0041204
5270.0 0.0042534
5290.0 0.0043577
5310.0 0.0043346
5330.0 0.0041837
5350.0 0.0040359
5370.0 0.0040406
5390.0 0.0041456
5410.0 0.0042222
5430.0 0.0041872
5450.0 0.0041262
5470.0 0.0040343
5490.0 0.003941
5510.0 0.0039062
5530.0 0.003925
5550.0 0.0039654
5570.0 0.00398
5590.0 0.0038735
5610.0 0.0036789
5630.0 0.0034973
5650.0 0.0033343
5670.0 0.0032205
5690.0 0.0030908
5710.0 0.0030151
5730.0 0.0030285
5750.0 0.0029968
5770.0 0.002943
5790.0 0.00297
5810.0 0.003056
5830.0 0.0031218
5850.0 0.0031401
5870.0 0.0030617
5890.0 0.0029388
5910.0 0.0028294
5930.0 0.0026868
5950.0 0.0025662
5970.0 0.0025799
5990.0 0.0026421
6010.0 0.0026406
6030.0 0.0025501
6050.0 0.0025336
6070.0 0.0026217
6090.0 0.0027115
6110.0 0.0027042
6130.0 0.0025692
6150.0 0.0023924
6170.0 0.0022945
6190.0 0.0022414
6210.0 0.0021945
6230.0 0.0021506
6250.0 0.0021491
6270.0 0.0022102
6290.0 0.0022987
6310.0 0.0023985
6330.0 0.0025037
6350.0 0.0025677
6370.0 0.0025754
6390.0 0.0025609
6410.0 0.0025814
6430.0 0.0026138
6450.0 0.0026126
6470.0 0.0026179
6490.0 0.0026332
6510.0 0.0026324
6530.0 0.0026005
6550.0 0.0025344
6570.0 0.0024537
6590.0 0.0023831
6610.0 0.0023279
6630.0 0.0022824
6650.0 0.0022082
6670.0 0.0021262
6690.0 0.0020628
6710.0 0.0020264
6730.0 0.0020061
6750.0 0.0019866
6770.0 0.0019603
6790.0 0.0019248
6810.0 0.0018904
6830.0 0.0018794
6850.0 0.0018697
6870.0 0.0018537
6890.0 0.0018509
6910.0 0.001826
6930.0 0.0017955
6950.0 0.0017912
6970.0 0.0017754
6990.0 0.0017385
7010.0 0.0017101
7030.0 0.0016796
7050.0 0.0016476
7070.0 0.0016084
7090.0 0.0015742
7110.0 0.001597
7130.0 0.0016423
7150.0 0.0016781
7170.0 0.0016998
7190.0 0.0016969
7210.0 0.0016752
7230.0 0.0016479
7250.0 0.0016309
7270.0 0.0016021
7290.0 0.0015784
7310.0 0.0015652
7330.0 0.0015815
7350.0 0.0015861
7370.0 0.001581
7390.0 0.0015664
7410.0 0.0015422
7430.0 0.0015264
7450.0 0.0015105
7470.0 0.0014647
7490.0 0.0014157
7510.0 0.0013564
7530.0 0.0013088
7550.0 0.0012836
7570.0 0.001301
7590.0 0.0012928
7610.0 0.0012786
7630.0 0.0012658
7650.0 0.0012723
7670.0 0.0012988
7690.0 0.0013518
7710.0 0.0013882
7730.0 0.0014401
7750.0 0.0014728
7770.0 0.0014995
7790.0 0.0015022
7810.0 0.0014736
7830.0 0.0014782
7850.0 0.0014646
7870.0 0.001428
7890.0 0.0013799
7910.0 0.001339
7930.0 0.0013082
7950.0 0.0012895
7970.0 0.0012902
7990.0 0.0013006
8010.0 0.0012971
8030.0 0.0012836
8050.0 0.0012601
8070.0 0.0012372
8090.0 0.001212
8110.0 0.0012166
8130.0 0.0012274
8150.0 0.0012297
8170.0 0.0012195
8190.0 0.0012033
8210.0 0.0011562
8230.0 0.0010817
8250.0 0.0010359
8270.0 0.0010094
8290.0 0.00099666
8310.0 0.0010012
8330.0 0.0010239
8350.0 0.001006
8370.0 0.0009842
8390.0 0.00099785
8410.0 0.0010293
8430.0 0.0010824
8450.0 0.0011312
8470.0 0.0011441
8490.0 0.0011548
8510.0 0.0011487
8530.0 0.001142
8550.0 0.0011508
8570.0 0.0011522
8590.0 0.0011488
8610.0 0.0011804
8630.0 0.0011893
8650.0 0.0011636
8670.0 0.0011614
8690.0 0.0011658
8710.0 0.0011498
8730.0 0.00114
8750.0 0.0011053
8770.0 0.0010906
8790.0 0.0010789
8810.0 0.0010683
8830.0 0.0010217
8850.0 0.00094833
8870.0 0.00089153
8890.0 0.00086029
8910.0 0.00080768
8930.0 0.00075203
8950.0 0.0007322
8970.0 0.00072688
8990.0 0.00072772
9010.0 0.00072221
9030.0 0.00071704
9050.0 0.00071229
9070.0 0.00070767
9090.0 0.00070306
9110.0 0.00069847
9130.0 0.00069387
9150.0 0.00068929
9170.0 0.00068471
9190.0 0.00068013
9210.0 0.00067555
9230.0 0.00067101
9250.0 0.00066648
9270.0 0.00066196
9290.0 0.00065745
9310.0 0.00065295
9330.0 0.00064846
9350.0 0.000644
9370.0 0.00063954
9390.0 0.00063511
9410.0 0.00063068
9430.0 0.00062627
9450.0 0.00062182
9470.0 0.00061748
9490.0 0.00061324
9510.0 0.0006089
9530.0 0.00060459
9550.0 0.0006003
9570.0 0.00059603
9590.0 0.0005918
9610.0 0.00058758
9630.0 0.00058339
9650.0 0.00057922
9670.0 0.00057508
9690.0 0.00057096
9710.0 0.00056686
9730.0 0.00056279
9750.0 0.00055874
9770.0 0.00055472
9790.0 0.00055071
9810.0 0.00054674
9830.0 0.00054269
9850.0 0.00053806
9870.0 0.00053429
9890.0 0.00053068
9910.0 0.000527
9930.0 0.00052309
9950.0 0.00051939
9970.0 0.0005157
9990.0 0.00051192
10010.0 0.00050773
10030.0 0.00050386
10050.0 0.00050044
10070.0 0.00049699
10090.0 0.00049354
10110.0 0.00048987
10130.0 0.00048582
10150.0 0.00048238
10170.0 0.00047902
10190.0 0.00047552
10210.0 0.00047212
10230.0 0.00046874
10250.0 0.00046525
10270.0 0.00046179
10290.0 0.00045845
10310.0 0.00045502
10330.0 0.00045152
10350.0 0.00044818
10370.0 0.00044487
10390.0 0.00044147
10410.0 0.0004381
10430.0 0.00043489
10450.0 0.00043159
10470.0 0.00042825
10490.0 0.00042502
10510.0 0.00042183
10530.0 0.00041848
10550.0 0.00041523
10570.0 0.00041209
10590.0 0.00040888
10610.0 0.00040564
10630.0 0.00040253
10650.0 0.00039941
10670.0 0.00039618
10690.0 0.00039303
10710.0 0.00038996
10730.0 0.00038681
10750.0 0.00038359
10770.0 0.00038056
10790.0 0.0003775
10810.0 0.00037436
10830.0 0.00037129
10850.0 0.00036832
10870.0 0.00036519
10890.0 0.0003621
10910.0 0.00035915
10930.0 0.00035621
10950.0 0.00035324
10970.0 0.00035042
10990.0 0.00034779
11010.0 0.00034485
11030.0 0.00034253
11050.0 0.00034037
11070.0 0.00033822
11090.0 0.00033597
11110.0 0.00033381
11130.0 0.00033166
11150.0 0.0003294
11170.0 0.00032709
11190.0 0.00032486
11210.0 0.00032257
11230.0 0.00032022
11250.0 0.00031795
11270.0 0.00031575
11290.0 0.00031351
11310.0 0.00031133
11330.0 0.00030934
11350.0 0.00030737
11370.0 0.00030544
11390.0 0.00030364
11410.0 0.00030192
11430.0 0.00030017
11450.0 0.00029849
11470.0 0.00029687
11490.0 0.00029523
11510.0 0.00029353
11530.0 0.00029186
11550.0 0.00029017
11570.0 0.00028835
11590.0 0.00028649
11610.0 0.00028462
11630.0 0.00028261
11650.0 0.00028048
11670.0 0.00027838
11690.0 0.00027625
11710.0 0.00027402
11730.0 0.00027179
11750.0 0.00026966
11770.0 0.00026746
11790.0 0.00026527
11810.0 0.0002632
11830.0 0.00026119
11850.0 0.00025913
11870.0 0.00025721
11890.0 0.00025542
11910.0 0.00025366
11930.0 0.00025195
11950.0 0.00025039
11970.0 0.0002489
11990.0 0.00024744
12010.0 0.00024612
12030.0 0.00024493
12050.0 0.00024381
12070.0 0.0002428
12090.0 0.00024197
12110.0 0.00024126
12130.0 0.00024067
12150.0 0.00024023
12170.0 0.00023994
12190.0 0.00023978
12210.0 0.00023978
12230.0 0.00023991
12250.0 0.00024017
12270.0 0.00024057
12290.0 0.00024107
12310.0 0.00024166
12330.0 0.00024234
12350.0 0.00024308
12370.0 0.00024384
12390.0 0.00024462
12410.0 0.00024543
12430.0 0.00024616
12450.0 0.00024683
12470.0 0.00024743
12490.0 0.0002479
12510.0 0.00024823
12530.0 0.00024841
12550.0 0.00024841
12570.0 0.00024821
12590.0 0.00024781
12610.0 0.00024717
12630.0 0.0002463
12650.0 0.00024527
12670.0 0.000244
12690.0 0.0002425
12710.0 0.00024088
12730.0 0.00023914
12750.0 0.00023714
12770.0 0.00023508
12790.0 0.00023301
12810.0 0.00023083
12830.0 0.00022855
12850.0 0.00022636
12870.0 0.0002242
12890.0 0.00022196
12910.0 0.00021978
12930.0 0.0002177
12950.0 0.00021558
12970.0 0.00021346
12990.0 0.00021149
13010.0 0.00020955
13030.0 0.00020759
13050.0 0.00020572
13070.0 0.00020397
13090.0 0.0002022
13110.0 0.00020048
13130.0 0.0001989
13150.0 0.00019738
13170.0 0.00019587
13190.0 0.00019451
13210.0 0.00019327
13230.0 0.00019207
13250.0 0.00019094
13270.0 0.00018993
13290.0 0.00018897
13310.0 0.00018802
13330.0 0.00018713
13350.0 0.00018629
13370.0 0.00018543
13390.0 0.00018455
13410.0 0.00018372
13430.0 0.00018285
13450.0 0.00018193
13470.0 0.000181
13490.0 0.00018006
13510.0 0.00017903
13530.0 0.00017797
13550.0 0.00017693
13570.0 0.00017583
13590.0 0.00017468
13610.0 0.00017353
13630.0 0.0001724
13650.0 0.0001712
13670.0 0.00016998
13690.0 0.0001688
13710.0 0.00016758
13730.0 0.00016629
13750.0 0.00016507
13770.0 0.00016384
13790.0 0.00016255
13810.0 0.00016126
13830.0 0.00016002
13850.0 0.0001587
13870.0 0.00015734
13890.0 0.000156
13910.0 0.00015465
13930.0 0.00015322
13950.0 0.00015175
13970.0 0.00015034
13990.0 0.00014886
14010.0 0.00014732
14030.0 0.00014581
14050.0 0.00014429
14070.0 0.00014268
14090.0 0.0001411
14110.0 0.00013958
14130.0 0.00013804
14150.0 0.00013649
14170.0 0.00013505
14190.0 0.00013365
14210.0 0.00013225
14230.0 0.00013093
14250.0 0.0001297
14270.0 0.00012848
14290.0 0.00012728
14310.0 0.00012619
14330.0 0.00012514
14350.0 0.00012407
14370.0 0.00012306
14390.0 0.00012211
14410.0 0.00012113
14430.0 0.00012017
14450.0 0.00011926
14470.0 0.00011837
14490.0 0.00011746
14510.0 0.00011661
14530.0 0.00011581
14550.0 0.00011502
14570.0 0.00011426
14590.0 0.00011356
14610.0 0.00011288
14630.0 0.0001122
14650.0 0.00011157
14670.0 0.00011098
14690.0 0.00011039
14710.0 0.00010983
14730.0 0.00010933
14750.0 0.00010884
14770.0 0.00010837
14790.0 0.00010796
14810.0 0.00010759
14830.0 0.00010725
14850.0 0.00010698
14870.0 0.00010676
14890.0 0.0001066
14910.0 0.00010649
14930.0 0.00010642
14950.0 0.00010639
14970.0 0.00010637
14990.0 0.00010635
15010.0 0.00010631
15030.0 0.00010624
15050.0 0.00010615
15070.0 0.00010602
15090.0 0.00010588
15110.0 0.00010572
15130.0 0.00010554
15150.0 0.00010537
15170.0 0.00010518
15190.0 0.000105
15210.0 0.00010481
15230.0 0.00010463
15250.0 0.00010444
15270.0 0.00010425
15290.0 0.00010406
15310.0 0.00010388
15330.0 0.00010369
15350.0 0.0001035
15370.0 0.00010332
15390.0 0.00010312
15410.0 0.00010294
15430.0 0.00010275
15450.0 0.00010256
15470.0 0.00010237
15490.0 0.00010219
15510.0 0.000102
15530.0 0.00010181
15550.0 0.00010163
15570.0 0.00010145
15590.0 0.00010126
15610.0 0.00010107
15630.0 0.00010089
15650.0 0.0001007
15670.0 0.00010052
15690.0 0.00010033
15710.0 0.00010015
15730.0 9.9969e-05
15750.0 9.9785e-05
15770.0 9.9606e-05
15790.0 9.9426e-05
15810.0 9.924e-05
15830.0 9.9061e-05
15850.0 9.8886e-05
15870.0 9.8706e-05
15890.0 9.8526e-05
15910.0 9.8354e-05
15930.0 9.8178e-05
15950.0 9.7998e-05
15970.0 9.7824e-05
15990.0 9.7653e-05
16010.0 9.7478e-05
16030.0 9.7302e-05
16050.0 9.7135e-05
16070.0 9.6966e-05
16090.0 9.6793e-05
16110.0 9.6626e-05
16130.0 9.6462e-05
16150.0 9.629e-05
16170.0 9.6121e-05
16190.0 9.596e-05
16210.0 9.5795e-05
16230.0 9.5628e-05
16250.0 9.5467e-05
16270.0 9.531e-05
16290.0 9.5146e-05
16310.0 9.4985e-05
16330.0 9.483e-05
16350.0 9.4672e-05
16370.0 9.4508e-05
16390.0 9.4354e-05
16410.0 9.4202e-05
16430.0 9.4045e-05
16450.0 9.3891e-05
16470.0 9.3743e-05
16490.0 9.359e-05
16510.0 9.3435e-05
16530.0 9.3287e-05
16550.0 9.314e-05
16570.0 9.2987e-05
16590.0 9.2838e-05
16610.0 9.2696e-05
16630.0 9.2549e-05
16650.0 9.2401e-05
16670.0 9.226e-05
16690.0 9.2118e-05
16710.0 9.197e-05
16730.0 9.1827e-05
16750.0 9.1688e-05
16770.0 9.1546e-05
16790.0 9.1402e-05
16810.0 9.1265e-05
16830.0 9.1128e-05
16850.0 9.0986e-05
16870.0 9.0848e-05
16890.0 9.0715e-05
16910.0 9.0575e-05
16930.0 9.0433e-05
16950.0 9.03e-05
16970.0 9.0166e-05
16990.0 9.0027e-05
17010.0 8.9892e-05
17030.0 8.9762e-05
17050.0 8.9625e-05
17070.0 8.9488e-05
17090.0 8.9357e-05
17110.0 8.9224e-05
17130.0 8.9084e-05
17150.0 8.8951e-05
17170.0 8.8821e-05
17190.0 8.8686e-05
17210.0 8.8551e-05
17230.0 8.8422e-05
17250.0 8.8289e-05
17270.0 8.8151e-05
17290.0 8.8018e-05
17310.0 8.7887e-05
17330.0 8.775e-05
17350.0 8.7613e-05
17370.0 8.7483e-05
17390.0 8.7349e-05
17410.0 8.7211e-05
17430.0 8.7078e-05
17450.0 8.6946e-05
17470.0 8.6805e-05
17490.0 8.6667e-05
17510.0 8.6533e-05
17530.0 8.6396e-05
17550.0 8.6254e-05
17570.0 8.6118e-05
17590.0 8.5983e-05
17610.0 8.584e-05
17630.0 8.5699e-05
17650.0 8.5561e-05
17670.0 8.5419e-05
17690.0 8.527e-05
17710.0 8.513e-05
17730.0 8.4989e-05
17750.0 8.4841e-05
17770.0 8.4695e-05
17790.0 8.4553e-05
17810.0 8.4404e-05
17830.0 8.4252e-05
17850.0 8.4105e-05
17870.0 8.3956e-05
17890.0 8.3801e-05
17910.0 8.3647e-05
17930.0 8.3498e-05
17950.0 8.3342e-05
17970.0 8.3184e-05
17990.0 8.303e-05
18010.0 8.2874e-05
18030.0 8.2709e-05
18050.0 8.2548e-05
18070.0 8.239e-05
18090.0 8.2225e-05
18110.0 8.2057e-05
18130.0 8.1895e-05
18150.0 8.173e-05
18170.0 8.1558e-05
18190.0 8.1389e-05
18210.0 8.1222e-05
18230.0 8.1046e-05
18250.0 8.0868e-05
18270.0 8.0696e-05
18290.0 8.0521e-05
18310.0 8.0339e-05
18330.0 8.0161e-05
18350.0 7.9984e-05
18370.0 7.9798e-05
18390.0 7.9612e-05
18410.0 7.9429e-05
18430.0 7.9243e-05
18450.0 7.9049e-05
18470.0 7.886e-05
18490.0 7.8672e-05
18510.0 7.8477e-05
18530.0 7.8281e-05
18550.0 7.8089e-05
18570.0 7.7891e-05
18590.0 7.7687e-05
18610.0 7.7488e-05
18630.0 7.7288e-05
18650.0 7.7081e-05
18670.0 7.6873e-05
18690.0 7.6671e-05
18710.0 7.6462e-05
18730.0 7.625e-05
18750.0 7.604e-05
18770.0 7.583e-05
18790.0 7.5611e-05
18810.0 7.5393e-05
18830.0 7.5179e-05
18850.0 7.496e-05
18870.0 7.4736e-05
18890.0 7.4517e-05
18910.0 7.4297e-05
18930.0 7.4069e-05
18950.0 7.3842e-05
18970.0 7.3618e-05
18990.0 7.3388e-05
19010.0 7.3152e-05
19030.0 7.2924e-05
19050.0 7.2693e-05
19070.0 7.2456e-05
19090.0 7.222e-05
19110.0 7.1988e-05
19130.0 7.1748e-05
19150.0 7.1505e-05
19170.0 7.1267e-05
19190.0 7.1027e-05
19210.0 7.078e-05
19230.0 7.0535e-05
19250.0 7.0294e-05
19270.0 7.0047e-05
19290.0 6.9797e-05
19310.0 6.9552e-05
19330.0 6.9304e-05
19350.0 6.9049e-05
19370.0 6.8797e-05
19390.0 6.8548e-05
19410.0 6.8293e-05
19430.0 6.8036e-05
19450.0 6.7785e-05
19470.0 6.753e-05
19490.0 6.7271e-05
19510.0 6.7014e-05
19530.0 6.6759e-05
19550.0 6.6497e-05
19570.0 6.6234e-05
19590.0 6.5977e-05
19610.0 6.5717e-05
19630.0 6.5453e-05
19650.0 6.5192e-05
19670.0 6.4934e-05
19690.0 6.4668e-05
19710.0 6.4403e-05
19730.0 6.4141e-05
19750.0 6.3877e-05
19770.0 6.3608e-05
19790.0 6.3344e-05
19810.0 6.3082e-05
19830.0 6.2814e-05
19850.0 6.2545e-05
19870.0 6.2278e-05
19890.0 6.1999e-05
19910.0 6.1705e-05
19930.0 6.1396e-05
19950.0 6.106e-05
19970.0 6.0674e-05
19990.0 6.0234e-05
20010.0 5.975e-05
20030.0 5.9194e-05
20050.0 5.8567e-05
20070.0 5.7905e-05
20090.0 5.7208e-05
20110.0 5.6445e-05
20130.0 5.5684e-05
20150.0 5.4937e-05
20170.0 5.4176e-05
20190.0 5.3411e-05
20210.0 5.2687e-05
20230.0 5.1979e-05
20250.0 5.1268e-05
20270.0 5.0595e-05
20290.0 4.9962e-05
20310.0 4.9343e-05
20330.0 4.8738e-05
20350.0 4.8196e-05
20370.0 4.7678e-05
20390.0 4.7178e-05
20410.0 4.6716e-05
20430.0 4.6294e-05
20450.0 4.5884e-05
20470.0 4.5503e-05
20490.0 4.5159e-05
20510.0 4.4839e-05
20530.0 4.4535e-05
20550.0 4.4261e-05
20570.0 4.4013e-05
20590.0 4.3779e-05
20610.0 4.3565e-05
20630.0 4.3371e-05
20650.0 4.319e-05
20670.0 4.302e-05
20690.0 4.2863e-05
20710.0 4.2716e-05
20730.0 4.2573e-05
20750.0 4.2433e-05
20770.0 4.2296e-05
20790.0 4.2155e-05
20810.0 4.2006e-05
20830.0 4.1852e-05
20850.0 4.1688e-05
20870.0 4.1507e-05
20890.0 4.131e-05
20910.0 4.1103e-05
20930.0 4.0876e-05
20950.0 4.0627e-05
20970.0 4.0365e-05
20990.0 4.009e-05
21010.0 3.9788e-05
21030.0 3.9473e-05
21050.0 3.9152e-05
21070.0 3.8816e-05
21090.0 3.8459e-05
21110.0 3.8109e-05
21130.0 3.7756e-05
21150.0 3.7389e-05
21170.0 3.7023e-05
21190.0 3.6669e-05
21210.0 3.6305e-05
21230.0 3.594e-05
21250.0 3.5591e-05
21270.0 3.525e-05
21290.0 3.4907e-05
21310.0 3.4575e-05
21330.0 3.4264e-05
21350.0 3.3953e-05
21370.0 3.3648e-05
21390.0 3.3361e-05
21410.0 3.3084e-05
21430.0 3.2802e-05
21450.0 3.2537e-05
21470.0 3.2286e-05
21490.0 3.2035e-05
21510.0 3.1788e-05
21530.0 3.1555e-05
21550.0 3.1325e-05
21570.0 3.1092e-05
21590.0 3.0866e-05
21610.0 3.0647e-05
21630.0 3.0425e-05
21650.0 3.0199e-05
21670.0 2.9987e-05
21690.0 2.9774e-05
21710.0 2.9555e-05
21730.0 2.9341e-05
21750.0 2.9134e-05
21770.0 2.8916e-05
21790.0 2.8698e-05
21810.0 2.8488e-05
21830.0 2.8275e-05
21850.0 2.8054e-05
21870.0 2.7839e-05
21890.0 2.7629e-05
21910.0 2.741e-05
21930.0 2.719e-05
21950.0 2.6977e-05
21970.0 2.6761e-05
21990.0 2.6534e-05
22010.0 2.6317e-05
22030.0 2.6103e-05
22050.0 2.5883e-05
22070.0 2.5664e-05
22090.0 2.5457e-05
22110.0 2.5247e-05
22130.0 2.5035e-05
22150.0 2.4833e-05
22170.0 2.4639e-05
22190.0 2.4442e-05
22210.0 2.4251e-05
22230.0 2.4077e-05
22250.0 2.3905e-05
22270.0 2.3736e-05
22290.0 2.3581e-05
22310.0 2.3436e-05
22330.0 2.3289e-05
22350.0 2.3153e-05
22370.0 2.3028e-05
22390.0 2.2906e-05
22410.0 2.2786e-05
22430.0 2.2678e-05
22450.0 2.2575e-05
22470.0 2.2472e-05
22490.0 2.2374e-05
22510.0 2.2284e-05
22530.0 2.2192e-05
22550.0 2.2101e-05
22570.0 2.2017e-05
22590.0 2.1936e-05
22610.0 2.1854e-05
22630.0 2.1776e-05
22650.0 2.1705e-05
22670.0 2.1634e-05
22690.0 2.1565e-05
22710.0 2.1504e-05
22730.0 2.1447e-05
22750.0 2.1389e-05
22770.0 2.1341e-05
22790.0 2.13e-05
22810.0 2.1264e-05
22830.0 2.1233e-05
22850.0 2.1213e-05
22870.0 2.12e-05
22890.0 2.1193e-05
22910.0 2.1198e-05
22930.0 2.1214e-05
