#lamb flux
1010.0 1.3594e-08
1030.0 1.5055e-08
1050.0 1.6736e-08
1070.0 1.8628e-08
1090.0 2.0777e-08
1110.0 2.2982e-08
1130.0 2.52e-08
1150.0 2.7524e-08
1170.0 2.9921e-08
1190.0 3.2194e-08
1210.0 3.4498e-08
1230.0 3.6879e-08
1250.0 3.9211e-08
1270.0 4.1476e-08
1290.0 4.387e-08
1310.0 4.6261e-08
1330.0 4.8555e-08
1350.0 5.0874e-08
1370.0 5.3268e-08
1390.0 5.5602e-08
1410.0 5.7867e-08
1430.0 6.0234e-08
1450.0 6.2601e-08
1470.0 6.4888e-08
1490.0 6.7199e-08
1510.0 6.964e-08
1530.0 7.1952e-08
1550.0 7.4232e-08
1570.0 7.6591e-08
1590.0 7.895e-08
1610.0 8.1202e-08
1630.0 8.3523e-08
1650.0 8.5904e-08
1670.0 8.8204e-08
1690.0 9.0471e-08
1710.0 9.2824e-08
1730.0 9.5186e-08
1750.0 9.7402e-08
1770.0 9.9678e-08
1790.0 1.02e-07
1810.0 1.0423e-07
1830.0 1.0642e-07
1850.0 1.0873e-07
1870.0 1.1097e-07
1890.0 1.1312e-07
1910.0 1.1531e-07
1930.0 1.1753e-07
1950.0 1.1962e-07
1970.0 1.2167e-07
1990.0 1.2378e-07
2010.0 1.2583e-07
2030.0 1.2776e-07
2050.0 1.2973e-07
2070.0 1.3172e-07
2090.0 1.3354e-07
2110.0 1.3531e-07
2130.0 1.371e-07
2150.0 1.3879e-07
2170.0 1.4034e-07
2190.0 1.4191e-07
2210.0 1.4343e-07
2230.0 1.4479e-07
2250.0 1.4608e-07
2270.0 1.4738e-07
2290.0 1.4854e-07
2310.0 1.4954e-07
2330.0 1.5053e-07
2350.0 1.5147e-07
2370.0 1.5229e-07
2390.0 1.5314e-07
2410.0 1.5422e-07
2430.0 1.5545e-07
2450.0 1.5697e-07
2470.0 1.5911e-07
2490.0 1.62e-07
2510.0 1.6536e-07
2530.0 1.6971e-07
2550.0 1.7572e-07
2570.0 1.8389e-07
2590.0 1.9528e-07
2610.0 2.1328e-07
2630.0 2.3914e-07
2650.0 2.7223e-07
2670.0 3.1374e-07
2690.0 3.6283e-07
2710.0 4.1256e-07
2730.0 4.5889e-07
2750.0 5.0184e-07
2770.0 5.3604e-07
2790.0 5.5994e-07
2810.0 5.7601e-07
2830.0 5.8581e-07
2850.0 5.8917e-07
2870.0 5.8902e-07
2890.0 5.8692e-07
2910.0 5.8346e-07
2930.0 5.7909e-07
2950.0 5.7464e-07
2970.0 5.7025e-07
2990.0 5.6577e-07
3010.0 1.699e-05
3030.0 1.6868e-05
3050.0 1.6747e-05
3070.0 1.6618e-05
3090.0 1.6483e-05
3110.0 1.6324e-05
3130.0 1.6122e-05
3150.0 1.5864e-05
3170.0 1.5522e-05
3190.0 1.5103e-05
3210.0 1.4633e-05
3230.0 1.4132e-05
3250.0 1.3636e-05
3270.0 1.3267e-05
3290.0 1.3e-05
3310.0 1.2945e-05
3330.0 1.3044e-05
3350.0 1.3286e-05
3370.0 1.3672e-05
3390.0 1.4185e-05
3410.0 1.4758e-05
3430.0 1.5414e-05
3450.0 1.618e-05
3470.0 1.7026e-05
3490.0 1.7934e-05
3510.0 1.8969e-05
3530.0 2.01e-05
3550.0 2.1308e-05
3570.0 2.2641e-05
3590.0 2.4145e-05
3610.0 2.582e-05
3630.0 2.7516e-05
3650.0 2.932e-05
3670.0 3.0963e-05
3690.0 3.2201e-05
3710.0 3.2842e-05
3730.0 3.2528e-05
3750.0 3.1246e-05
3770.0 3.1292e-05
3790.0 2.9911e-05
3810.0 2.3235e-05
3830.0 2.143e-05
3850.0 2.8591e-05
3870.0 2.5023e-05
3890.0 2.0484e-05
3910.0 2.3956e-05
3930.0 3.1534e-05
3950.0 3.5989e-05
3970.0 4.1779e-05
3990.0 3.3484e-05
4010.0 5.1834e-05
4030.0 4.7614e-05
4050.0 4.4809e-05
4070.0 5.0982e-05
4090.0 4.8953e-05
4110.0 4.8658e-05
4130.0 5.9985e-05
4150.0 7.6316e-05
4170.0 6.2562e-05
4190.0 5.5912e-05
4210.0 6.1703e-05
4230.0 7.6342e-05
4250.0 8.8915e-05
4270.0 9.5939e-05
4290.0 8.804e-05
4310.0 8.1993e-05
4330.0 8.3208e-05
4350.0 0.00010575
4370.0 0.00012711
4390.0 0.00010365
4410.0 6.3228e-05
4430.0 4.6704e-05
4450.0 4.2133e-05
4470.0 3.1855e-05
4490.0 4.8192e-05
4510.0 8.6446e-05
4530.0 0.00010366
4550.0 0.00010296
4570.0 9.7779e-05
4590.0 0.00010834
4610.0 0.0001958
4630.0 0.00026738
4650.0 0.00025347
4670.0 0.00022585
4690.0 0.00023758
4710.0 0.00025084
4730.0 0.00020274
4750.0 0.0001308
4770.0 9.4609e-05
4790.0 0.00010364
4810.0 0.00010584
4830.0 0.00010404
4850.0 0.00011456
4870.0 0.00015148
4890.0 0.00017614
4910.0 0.00013716
4930.0 0.00012988
4950.0 0.00014896
4970.0 0.00020099
4990.0 0.00026963
5010.0 0.00030589
5030.0 0.00024276
5050.0 0.0001463
5070.0 0.00010388
5090.0 8.2625e-05
5110.0 7.9229e-05
5130.0 9.2008e-05
5150.0 8.9542e-05
5170.0 8.5319e-05
5190.0 7.8061e-05
5210.0 8.2893e-05
5230.0 9.9981e-05
5250.0 0.00011526
5270.0 0.00011063
5290.0 0.00012201
5310.0 0.00015824
5330.0 0.00016573
5350.0 0.00016347
5370.0 0.00018435
5390.0 0.00022507
5410.0 0.00019484
5430.0 0.0001495
5450.0 0.00014837
5470.0 0.00017351
5490.0 0.00022079
5510.0 0.00027366
5530.0 0.00031504
5550.0 0.00028616
5570.0 0.00025553
5590.0 0.00021237
5610.0 0.00021311
5630.0 0.00023342
5650.0 0.00022098
5670.0 0.00020598
5690.0 0.00017006
5710.0 0.00017225
5730.0 0.00016665
5750.0 9.2093e-05
5770.0 6.97e-05
5790.0 8.5267e-05
5810.0 9.4562e-05
5830.0 0.00013772
5850.0 0.00017382
5870.0 0.0001832
5890.0 0.00017316
5910.0 0.00016699
5930.0 0.00016325
5950.0 0.00016968
5970.0 0.00020587
5990.0 0.00017237
6010.0 0.00013375
6030.0 0.00010877
6050.0 9.6266e-05
6070.0 0.00011242
6090.0 0.00012819
6110.0 0.00013216
6130.0 0.00012079
6150.0 9.7696e-05
6170.0 8.4928e-05
6190.0 0.00010579
6210.0 0.0001573
6230.0 0.00021914
6250.0 0.00023024
6270.0 0.00018029
6290.0 0.00015296
6310.0 0.00011759
6330.0 8.7178e-05
6350.0 8.4136e-05
6370.0 8.8744e-05
6390.0 0.00010729
6410.0 0.00013515
6430.0 0.00016197
6450.0 0.00019843
6470.0 0.00021569
6490.0 0.00026166
6510.0 0.00029373
6530.0 0.00029147
6550.0 0.00026821
6570.0 0.00022728
6590.0 0.00022028
6610.0 0.00018473
6630.0 0.00018693
6650.0 0.00017814
6670.0 0.00016272
6690.0 0.00013527
6710.0 0.00012878
6730.0 7.3604e-05
6750.0 8.4084e-05
6770.0 0.00011517
6790.0 0.00014875
6810.0 0.00011504
6830.0 0.00011782
6850.0 0.00010306
6870.0 9.7989e-05
6890.0 8.6507e-05
6910.0 9.7195e-05
6930.0 9.0946e-05
6950.0 0.0001055
6970.0 0.00010734
6990.0 0.00011912
7010.0 0.00011967
7030.0 0.00012813
7050.0 0.0001125
7070.0 9.8361e-05
7090.0 0.00010085
7110.0 0.00010227
7130.0 0.00011422
7150.0 0.00012881
7170.0 0.00014255
7190.0 0.00014822
7210.0 0.00013274
7230.0 0.00013437
7250.0 0.0001474
7270.0 0.00016358
7290.0 0.0001945
7310.0 0.00019869
7330.0 0.00018044
7350.0 0.00016078
7370.0 0.0001244
7390.0 0.00012972
7410.0 0.00015644
7430.0 0.00017636
7450.0 0.00018981
7470.0 0.00018186
7490.0 0.00016459
7510.0 0.00024198
7530.0 0.00021741
7550.0 0.00019706
7570.0 0.00013585
7590.0 6.7225e-05
7610.0 5.0941e-05
7630.0 6.9558e-05
7650.0 8.9766e-05
7670.0 0.00013368
7690.0 0.00015085
7710.0 0.00014026
7730.0 0.00013858
7750.0 0.00017272
7770.0 0.0001756
7790.0 0.00016296
7810.0 0.00013894
7830.0 0.00014611
7850.0 0.00015355
7870.0 0.00014839
7890.0 0.00011943
7910.0 8.3635e-05
7930.0 8.234e-05
7950.0 7.3988e-05
7970.0 6.4417e-05
7990.0 5.9903e-05
8010.0 5.5662e-05
8030.0 5.3313e-05
8050.0 5.5932e-05
8070.0 5.884e-05
8090.0 6.6334e-05
8110.0 6.213e-05
8130.0 4.4138e-05
8150.0 4.3062e-05
8170.0 3.1565e-05
8190.0 2.6208e-05
8210.0 3.9779e-05
8230.0 4.5348e-05
8250.0 2.9107e-05
8270.0 2.4904e-05
8290.0 2.8849e-05
8310.0 2.2379e-05
8330.0 1.398e-05
8350.0 1.0891e-05
8370.0 6.1469e-06
8390.0 1.2263e-05
8410.0 1.4911e-05
8430.0 1.8525e-05
8450.0 2.0714e-05
8470.0 2.9067e-05
8490.0 2.5354e-05
8510.0 2.1986e-05
8530.0 1.6448e-05
8550.0 3.3087e-05
8570.0 4.7541e-05
8590.0 4.0344e-05
8610.0 5.5083e-05
8630.0 6.1337e-05
8650.0 4.5798e-05
8670.0 5.5378e-05
8690.0 7.1256e-05
8710.0 6.3559e-05
8730.0 6.5552e-05
8750.0 5.4912e-05
8770.0 5.0522e-05
8790.0 5.3765e-05
8810.0 5.5416e-05
8830.0 3.6623e-05
8850.0 2.2889e-05
8870.0 1.7925e-05
8890.0 2.6782e-05
8910.0 3.6551e-05
8930.0 4.4892e-05
8950.0 5.0938e-05
8970.0 5.0055e-05
8990.0 4.1669e-05
9010.0 3.1602e-05
9030.0 2.7371e-05
9050.0 2.8188e-05
9070.0 2.8948e-05
9090.0 2.9546e-05
9110.0 3.0225e-05
9130.0 3.0728e-05
9150.0 3.1104e-05
9170.0 3.1503e-05
9190.0 3.1931e-05
9210.0 3.2379e-05
9230.0 3.2854e-05
9250.0 3.3339e-05
9270.0 3.384e-05
9290.0 3.4357e-05
9310.0 3.4878e-05
9330.0 3.541e-05
9350.0 3.5959e-05
9370.0 3.6516e-05
9390.0 3.708e-05
9410.0 3.7658e-05
9430.0 3.8252e-05
9450.0 3.8847e-05
9470.0 3.9454e-05
9490.0 4.0077e-05
9510.0 4.0708e-05
9530.0 4.1344e-05
9550.0 4.1999e-05
9570.0 4.2665e-05
9590.0 4.3336e-05
9610.0 4.4018e-05
9630.0 4.4715e-05
9650.0 4.542e-05
9670.0 4.6129e-05
9690.0 4.6855e-05
9710.0 4.759e-05
9730.0 4.833e-05
9750.0 4.9081e-05
9770.0 4.9849e-05
9790.0 5.0619e-05
9810.0 5.1395e-05
9830.0 5.2184e-05
9850.0 5.2983e-05
9870.0 5.3782e-05
9890.0 5.4592e-05
9910.0 5.5414e-05
9930.0 5.6239e-05
9950.0 5.7068e-05
9970.0 5.7909e-05
9990.0 5.8757e-05
10010.0 5.4331e-05
10030.0 5.5095e-05
10050.0 5.5864e-05
10070.0 5.6626e-05
10090.0 5.74e-05
10110.0 5.8183e-05
10130.0 5.8966e-05
10150.0 5.9746e-05
10170.0 6.0529e-05
10190.0 6.1316e-05
10210.0 6.2098e-05
10230.0 6.2879e-05
10250.0 6.3663e-05
10270.0 6.4445e-05
10290.0 6.5221e-05
10310.0 6.5998e-05
10330.0 6.6776e-05
10350.0 6.7545e-05
10370.0 6.831e-05
10390.0 6.9074e-05
10410.0 6.9832e-05
10430.0 7.0579e-05
10450.0 7.1324e-05
10470.0 7.2065e-05
10490.0 7.2794e-05
10510.0 7.3514e-05
10530.0 7.4233e-05
10550.0 7.494e-05
10570.0 7.5632e-05
10590.0 7.6319e-05
10610.0 7.6997e-05
10630.0 7.7658e-05
10650.0 7.8309e-05
10670.0 7.8953e-05
10690.0 7.9582e-05
10710.0 8.0194e-05
10730.0 8.0797e-05
10750.0 8.139e-05
10770.0 8.1961e-05
10790.0 8.2518e-05
10810.0 8.3063e-05
10830.0 8.3586e-05
10850.0 8.4082e-05
10870.0 8.4551e-05
10890.0 8.4964e-05
10910.0 8.5291e-05
10930.0 8.5493e-05
10950.0 8.5496e-05
10970.0 8.5249e-05
10990.0 8.4726e-05
11010.0 8.5981e-05
11030.0 8.4686e-05
11050.0 8.3084e-05
11070.0 8.1146e-05
11090.0 7.8796e-05
11110.0 7.6355e-05
11130.0 7.3803e-05
11150.0 7.1053e-05
11170.0 6.8225e-05
11190.0 6.5494e-05
11210.0 6.269e-05
11230.0 5.9839e-05
11250.0 5.7138e-05
11270.0 5.4568e-05
11290.0 5.2017e-05
11310.0 4.9622e-05
11330.0 4.7524e-05
11350.0 4.5551e-05
11370.0 4.373e-05
11390.0 4.2148e-05
11410.0 4.075e-05
11430.0 3.9434e-05
11450.0 3.8272e-05
11470.0 3.7236e-05
11490.0 3.6242e-05
11510.0 3.5254e-05
11530.0 3.4311e-05
11550.0 3.3358e-05
11570.0 3.2336e-05
11590.0 3.1278e-05
11610.0 3.0206e-05
11630.0 2.9052e-05
11650.0 2.7833e-05
11670.0 2.6642e-05
11690.0 2.5447e-05
11710.0 2.4227e-05
11730.0 2.3053e-05
11750.0 2.197e-05
11770.0 2.0912e-05
11790.0 1.9921e-05
11810.0 1.9043e-05
11830.0 1.8252e-05
11850.0 1.7517e-05
11870.0 1.6889e-05
11890.0 1.6351e-05
11910.0 1.5865e-05
11930.0 1.543e-05
11950.0 1.505e-05
11970.0 1.4695e-05
11990.0 1.4347e-05
12010.0 1.4014e-05
12030.0 1.3686e-05
12050.0 1.3345e-05
12070.0 1.2991e-05
12090.0 1.2646e-05
12110.0 1.2294e-05
12130.0 1.1938e-05
12150.0 1.1598e-05
12170.0 1.1285e-05
12190.0 1.0988e-05
12210.0 1.0734e-05
12230.0 1.0535e-05
12250.0 1.039e-05
12270.0 1.0309e-05
12290.0 1.0297e-05
12310.0 1.0348e-05
12330.0 1.0474e-05
12350.0 1.0667e-05
12370.0 1.0909e-05
12390.0 1.1207e-05
12410.0 1.1574e-05
12430.0 1.1952e-05
12450.0 1.2347e-05
12470.0 1.277e-05
12490.0 1.3194e-05
12510.0 1.3584e-05
12530.0 1.3968e-05
12550.0 1.4333e-05
12570.0 1.4642e-05
12590.0 1.4903e-05
12610.0 1.5124e-05
12630.0 1.5285e-05
12650.0 1.5372e-05
12670.0 1.5406e-05
12690.0 1.538e-05
12710.0 1.5292e-05
12730.0 1.515e-05
12750.0 1.4951e-05
12770.0 1.4704e-05
12790.0 1.442e-05
12810.0 1.4097e-05
12830.0 1.3735e-05
12850.0 1.3361e-05
12870.0 1.2971e-05
12890.0 1.2556e-05
12910.0 1.2136e-05
12930.0 1.1721e-05
12950.0 1.129e-05
12970.0 1.0852e-05
12990.0 1.0432e-05
13010.0 1.0016e-05
13030.0 9.5932e-06
13050.0 9.1824e-06
13070.0 8.7926e-06
13090.0 8.3987e-06
13110.0 8.0136e-06
13130.0 7.6537e-06
13150.0 7.3092e-06
13170.0 6.9694e-06
13190.0 6.6623e-06
13210.0 6.3876e-06
13230.0 6.1331e-06
13250.0 5.9088e-06
13270.0 5.7248e-06
13290.0 5.5735e-06
13310.0 5.4569e-06
13330.0 5.3829e-06
13350.0 5.348e-06
13370.0 5.3525e-06
13390.0 5.3986e-06
13410.0 5.4756e-06
13430.0 5.5862e-06
13450.0 5.7309e-06
13470.0 5.8963e-06
13490.0 6.0747e-06
13510.0 6.2805e-06
13530.0 6.4918e-06
13550.0 6.6955e-06
13570.0 6.8987e-06
13590.0 7.0993e-06
13610.0 7.2788e-06
13630.0 7.4361e-06
13650.0 7.5814e-06
13670.0 7.7022e-06
13690.0 7.7948e-06
13710.0 7.8658e-06
13730.0 7.9156e-06
13750.0 7.937e-06
13770.0 7.9368e-06
13790.0 7.9164e-06
13810.0 7.8759e-06
13830.0 7.8192e-06
13850.0 7.7456e-06
13870.0 7.6554e-06
13890.0 7.5543e-06
13910.0 7.4427e-06
13930.0 7.3164e-06
13950.0 7.1813e-06
13970.0 7.0451e-06
13990.0 6.8996e-06
14010.0 6.7476e-06
14030.0 6.598e-06
14050.0 6.4493e-06
14070.0 6.2946e-06
14090.0 6.1479e-06
14110.0 6.0112e-06
14130.0 5.8798e-06
14150.0 5.7569e-06
14170.0 5.6523e-06
14190.0 5.5618e-06
14210.0 5.485e-06
14230.0 5.4277e-06
14250.0 5.3897e-06
14270.0 5.3701e-06
14290.0 5.3715e-06
14310.0 5.392e-06
14330.0 5.431e-06
14350.0 5.4898e-06
14370.0 5.5645e-06
14390.0 5.6507e-06
14410.0 5.7539e-06
14430.0 5.8695e-06
14450.0 5.9901e-06
14470.0 6.1182e-06
14490.0 6.2583e-06
14510.0 6.397e-06
14530.0 6.5339e-06
14550.0 6.6767e-06
14570.0 6.8209e-06
14590.0 6.9597e-06
14610.0 7.1019e-06
14630.0 7.2515e-06
14650.0 7.3995e-06
14670.0 7.5496e-06
14690.0 7.7117e-06
14710.0 7.8856e-06
14730.0 8.0604e-06
14750.0 8.2514e-06
14770.0 8.4623e-06
14790.0 8.6835e-06
14810.0 8.9146e-06
14830.0 9.1766e-06
14850.0 9.4497e-06
14870.0 9.7243e-06
14890.0 1.001e-05
14910.0 1.0304e-05
14930.0 1.058e-05
14950.0 1.0833e-05
14970.0 1.1069e-05
14990.0 1.1265e-05
15010.0 1.1416e-05
15030.0 1.1529e-05
15050.0 1.1606e-05
15070.0 1.165e-05
15090.0 1.1672e-05
15110.0 1.1679e-05
15130.0 1.1677e-05
15150.0 1.1672e-05
15170.0 1.1663e-05
15190.0 1.1653e-05
15210.0 1.1643e-05
15230.0 1.1634e-05
15250.0 1.1623e-05
15270.0 1.1614e-05
15290.0 1.1606e-05
15310.0 1.1597e-05
15330.0 1.1588e-05
15350.0 1.158e-05
15370.0 1.1572e-05
15390.0 1.1563e-05
15410.0 1.1555e-05
15430.0 1.1548e-05
15450.0 1.154e-05
15470.0 1.1531e-05
15490.0 1.1525e-05
15510.0 1.1518e-05
15530.0 1.151e-05
15550.0 1.1503e-05
15570.0 1.1496e-05
15590.0 1.1489e-05
15610.0 1.1481e-05
15630.0 1.1474e-05
15650.0 1.1467e-05
15670.0 1.1459e-05
15690.0 1.1452e-05
15710.0 1.1446e-05
15730.0 1.1438e-05
15750.0 1.143e-05
15770.0 1.1424e-05
15790.0 1.1416e-05
15810.0 1.1408e-05
15830.0 1.14e-05
15850.0 1.1393e-05
15870.0 1.1385e-05
15890.0 1.1376e-05
15910.0 1.1369e-05
15930.0 1.1361e-05
15950.0 1.1351e-05
15970.0 1.1343e-05
15990.0 1.1334e-05
16010.0 1.1325e-05
16030.0 1.1315e-05
16050.0 1.1306e-05
16070.0 1.1297e-05
16090.0 1.1286e-05
16110.0 1.1276e-05
16130.0 1.1267e-05
16150.0 1.1255e-05
16170.0 1.1244e-05
16190.0 1.1233e-05
16210.0 1.1222e-05
16230.0 1.1209e-05
16250.0 1.1197e-05
16270.0 1.1186e-05
16290.0 1.1173e-05
16310.0 1.116e-05
16330.0 1.1147e-05
16350.0 1.1134e-05
16370.0 1.1118e-05
16390.0 1.1105e-05
16410.0 1.1091e-05
16430.0 1.1075e-05
16450.0 1.106e-05
16470.0 1.1045e-05
16490.0 1.1029e-05
16510.0 1.1012e-05
16530.0 1.0996e-05
16550.0 1.0979e-05
16570.0 1.0961e-05
16590.0 1.0943e-05
16610.0 1.0926e-05
16630.0 1.0907e-05
16650.0 1.0888e-05
16670.0 1.0869e-05
16690.0 1.085e-05
16710.0 1.0829e-05
16730.0 1.0809e-05
16750.0 1.0789e-05
16770.0 1.0767e-05
16790.0 1.0745e-05
16810.0 1.0724e-05
16830.0 1.0702e-05
16850.0 1.0678e-05
16870.0 1.0655e-05
16890.0 1.0633e-05
16910.0 1.0608e-05
16930.0 1.0583e-05
16950.0 1.0559e-05
16970.0 1.0534e-05
16990.0 1.0508e-05
17010.0 1.0483e-05
17030.0 1.0457e-05
17050.0 1.043e-05
17070.0 1.0403e-05
17090.0 1.0376e-05
17110.0 1.0348e-05
17130.0 1.0319e-05
17150.0 1.0291e-05
17170.0 1.0263e-05
17190.0 1.0233e-05
17210.0 1.0203e-05
17230.0 1.0174e-05
17250.0 1.0144e-05
17270.0 1.0112e-05
17290.0 1.0081e-05
17310.0 1.005e-05
17330.0 1.0018e-05
17350.0 9.9852e-06
17370.0 9.9539e-06
17390.0 9.9212e-06
17410.0 9.8874e-06
17430.0 9.8543e-06
17450.0 9.8214e-06
17470.0 9.7861e-06
17490.0 9.7512e-06
17510.0 9.7172e-06
17530.0 9.6821e-06
17550.0 9.646e-06
17570.0 9.6108e-06
17590.0 9.5756e-06
17610.0 9.5386e-06
17630.0 9.5018e-06
17650.0 9.4658e-06
17670.0 9.4286e-06
17690.0 9.3897e-06
17710.0 9.3528e-06
17730.0 9.3154e-06
17750.0 9.2766e-06
17770.0 9.238e-06
17790.0 9.2005e-06
17810.0 9.1611e-06
17830.0 9.1212e-06
17850.0 9.0823e-06
17870.0 9.0431e-06
17890.0 9.0023e-06
17910.0 8.9619e-06
17930.0 8.9227e-06
17950.0 8.8821e-06
17970.0 8.8409e-06
17990.0 8.8007e-06
18010.0 8.7602e-06
18030.0 8.7176e-06
18050.0 8.6762e-06
18070.0 8.6354e-06
18090.0 8.5933e-06
18110.0 8.5506e-06
18130.0 8.5094e-06
18150.0 8.4676e-06
18170.0 8.4246e-06
18190.0 8.3822e-06
18210.0 8.3404e-06
18230.0 8.297e-06
18250.0 8.2532e-06
18270.0 8.211e-06
18290.0 8.1682e-06
18310.0 8.1243e-06
18330.0 8.0812e-06
18350.0 8.0388e-06
18370.0 7.9947e-06
18390.0 7.9507e-06
18410.0 7.9077e-06
18430.0 7.8642e-06
18450.0 7.8192e-06
18470.0 7.7756e-06
18490.0 7.7326e-06
18510.0 7.6882e-06
18530.0 7.6439e-06
18550.0 7.6009e-06
18570.0 7.5568e-06
18590.0 7.5117e-06
18610.0 7.4678e-06
18630.0 7.4242e-06
18650.0 7.3795e-06
18670.0 7.3347e-06
18690.0 7.2916e-06
18710.0 7.2474e-06
18730.0 7.2027e-06
18750.0 7.1589e-06
18770.0 7.1155e-06
18790.0 7.0701e-06
18810.0 7.0257e-06
18830.0 6.9823e-06
18850.0 6.9382e-06
18870.0 6.8934e-06
18890.0 6.85e-06
18910.0 6.8066e-06
18930.0 6.762e-06
18950.0 6.7179e-06
18970.0 6.6748e-06
18990.0 6.6309e-06
19010.0 6.5858e-06
19030.0 6.5429e-06
19050.0 6.4998e-06
19070.0 6.4557e-06
19090.0 6.4122e-06
19110.0 6.3698e-06
19130.0 6.326e-06
19150.0 6.2821e-06
19170.0 6.2394e-06
19190.0 6.1966e-06
19210.0 6.1528e-06
19230.0 6.1097e-06
19250.0 6.0679e-06
19270.0 6.0249e-06
19290.0 5.9819e-06
19310.0 5.9401e-06
19330.0 5.8981e-06
19350.0 5.8546e-06
19370.0 5.8125e-06
19390.0 5.7711e-06
19410.0 5.7288e-06
19430.0 5.6863e-06
19450.0 5.6454e-06
19470.0 5.6041e-06
19490.0 5.562e-06
19510.0 5.5208e-06
19530.0 5.4803e-06
19550.0 5.4385e-06
19570.0 5.3968e-06
19590.0 5.3567e-06
19610.0 5.3162e-06
19630.0 5.275e-06
19650.0 5.2348e-06
19670.0 5.1954e-06
19690.0 5.1546e-06
19710.0 5.1142e-06
19730.0 5.0749e-06
19750.0 5.0352e-06
19770.0 4.9946e-06
19790.0 4.9554e-06
19810.0 4.9168e-06
19830.0 4.8771e-06
19850.0 4.8376e-06
19870.0 4.7988e-06
19890.0 4.7584e-06
19910.0 4.7156e-06
19930.0 4.6715e-06
19950.0 4.6238e-06
19970.0 4.5689e-06
19990.0 4.5067e-06
20010.0 4.3777e-06
20030.0 4.3007e-06
20050.0 4.2139e-06
20070.0 4.1225e-06
20090.0 4.0266e-06
20110.0 3.921e-06
20130.0 3.8159e-06
20150.0 3.7133e-06
20170.0 3.6086e-06
20190.0 3.5038e-06
20210.0 3.4056e-06
20230.0 3.3105e-06
20250.0 3.2159e-06
20270.0 3.1282e-06
20290.0 3.0479e-06
20310.0 2.9715e-06
20330.0 2.8998e-06
20350.0 2.8393e-06
20370.0 2.7849e-06
20390.0 2.7363e-06
20410.0 2.6959e-06
20430.0 2.6635e-06
20450.0 2.6366e-06
20470.0 2.6169e-06
20490.0 2.604e-06
20510.0 2.597e-06
20530.0 2.5959e-06
20550.0 2.6e-06
20570.0 2.6083e-06
20590.0 2.6213e-06
20610.0 2.6384e-06
20630.0 2.6579e-06
20650.0 2.6805e-06
20670.0 2.7071e-06
20690.0 2.7344e-06
20710.0 2.7629e-06
20730.0 2.7938e-06
20750.0 2.826e-06
20770.0 2.8572e-06
20790.0 2.8898e-06
20810.0 2.9241e-06
20830.0 2.9575e-06
20850.0 2.9905e-06
20870.0 3.0255e-06
20890.0 3.0606e-06
20910.0 3.0938e-06
20930.0 3.1279e-06
20950.0 3.163e-06
20970.0 3.1967e-06
20990.0 3.2297e-06
21010.0 3.2645e-06
21030.0 3.2982e-06
21050.0 3.3303e-06
21070.0 3.3623e-06
21090.0 3.3948e-06
21110.0 3.4243e-06
21130.0 3.4521e-06
21150.0 3.4797e-06
21170.0 3.5051e-06
21190.0 3.5273e-06
21210.0 3.5483e-06
21230.0 3.5669e-06
21250.0 3.5814e-06
21270.0 3.5926e-06
21290.0 3.6004e-06
21310.0 3.6037e-06
21330.0 3.6021e-06
21350.0 3.5957e-06
21370.0 3.5838e-06
21390.0 3.5664e-06
21410.0 3.5435e-06
21430.0 3.513e-06
21450.0 3.477e-06
21470.0 3.4361e-06
21490.0 3.3885e-06
21510.0 3.3347e-06
21530.0 3.2782e-06
21550.0 3.2176e-06
21570.0 3.1514e-06
21590.0 3.0843e-06
21610.0 3.0177e-06
21630.0 2.9491e-06
21650.0 2.8799e-06
21670.0 2.8174e-06
21690.0 2.7573e-06
21710.0 2.7002e-06
21730.0 2.6499e-06
21750.0 2.6069e-06
21770.0 2.5687e-06
21790.0 2.5387e-06
21810.0 2.5173e-06
21830.0 2.5035e-06
21850.0 2.4977e-06
21870.0 2.5e-06
21890.0 2.5092e-06
21910.0 2.526e-06
21930.0 2.5497e-06
21950.0 2.5782e-06
21970.0 2.6126e-06
21990.0 2.6539e-06
22010.0 2.6974e-06
22030.0 2.7435e-06
22050.0 2.7941e-06
22070.0 2.847e-06
22090.0 2.8986e-06
22110.0 2.9525e-06
22130.0 3.0082e-06
22150.0 3.0617e-06
22170.0 3.1135e-06
22190.0 3.1663e-06
22210.0 3.2168e-06
22230.0 3.2621e-06
22250.0 3.3058e-06
22270.0 3.3468e-06
22290.0 3.3825e-06
22310.0 3.4137e-06
22330.0 3.4419e-06
22350.0 3.4642e-06
22370.0 3.4805e-06
22390.0 3.4917e-06
22410.0 3.4971e-06
22430.0 3.4958e-06
22450.0 3.4886e-06
22470.0 3.4747e-06
22490.0 3.4542e-06
22510.0 3.4282e-06
22530.0 3.3946e-06
22550.0 3.3536e-06
22570.0 3.3077e-06
22590.0 3.2559e-06
22610.0 3.1963e-06
