#lamb flux
1010.0 1.3127e-07
1030.0 1.4519e-07
1050.0 1.6119e-07
1070.0 1.7921e-07
1090.0 1.9967e-07
1110.0 2.2066e-07
1130.0 2.4179e-07
1150.0 2.6392e-07
1170.0 2.8675e-07
1190.0 3.0839e-07
1210.0 3.3033e-07
1230.0 3.53e-07
1250.0 3.7521e-07
1270.0 3.9678e-07
1290.0 4.1958e-07
1310.0 4.4235e-07
1330.0 4.6419e-07
1350.0 4.8628e-07
1370.0 5.0909e-07
1390.0 5.3132e-07
1410.0 5.5289e-07
1430.0 5.7545e-07
1450.0 5.98e-07
1470.0 6.198e-07
1490.0 6.4184e-07
1510.0 6.6512e-07
1530.0 6.8718e-07
1550.0 7.0894e-07
1570.0 7.3146e-07
1590.0 7.5401e-07
1610.0 7.7556e-07
1630.0 7.9779e-07
1650.0 8.206e-07
1670.0 8.4269e-07
1690.0 8.645e-07
1710.0 8.8718e-07
1730.0 9.0999e-07
1750.0 9.3147e-07
1770.0 9.536e-07
1790.0 9.762e-07
1810.0 9.9811e-07
1830.0 1.0197e-06
1850.0 1.0426e-06
1870.0 1.0649e-06
1890.0 1.0866e-06
1910.0 1.1087e-06
1930.0 1.1314e-06
1950.0 1.1531e-06
1970.0 1.1746e-06
1990.0 1.197e-06
2010.0 1.219e-06
2030.0 1.2403e-06
2050.0 1.2623e-06
2070.0 1.2849e-06
2090.0 1.3063e-06
2110.0 1.3277e-06
2130.0 1.3497e-06
2150.0 1.3714e-06
2170.0 1.3922e-06
2190.0 1.4138e-06
2210.0 1.4355e-06
2230.0 1.4565e-06
2250.0 1.4773e-06
2270.0 1.4991e-06
2290.0 1.5203e-06
2310.0 1.5407e-06
2330.0 1.5619e-06
2350.0 1.5836e-06
2370.0 1.6053e-06
2390.0 1.6287e-06
2410.0 1.6565e-06
2430.0 1.6885e-06
2450.0 1.7267e-06
2470.0 1.7757e-06
2490.0 1.8374e-06
2510.0 1.9075e-06
2530.0 1.9919e-06
2550.0 2.0976e-06
2570.0 2.2291e-06
2590.0 2.4001e-06
2610.0 2.6562e-06
2630.0 3.0217e-06
2650.0 3.4997e-06
2670.0 4.1178e-06
2690.0 4.8772e-06
2710.0 5.6879e-06
2730.0 6.489e-06
2750.0 7.278e-06
2770.0 7.9643e-06
2790.0 8.5092e-06
2810.0 8.9418e-06
2830.0 9.2796e-06
2850.0 9.5103e-06
2870.0 9.6796e-06
2890.0 9.8137e-06
2910.0 9.9206e-06
2930.0 1.0008e-05
2950.0 1.0091e-05
2970.0 1.0173e-05
2990.0 1.025e-05
3010.0 0.00028971
3030.0 0.00029188
3050.0 0.00029397
3070.0 0.00029576
3090.0 0.0002973
3110.0 0.00029826
3130.0 0.00029822
3150.0 0.0002969
3170.0 0.00029372
3190.0 0.00028872
3210.0 0.00028239
3230.0 0.00027514
3250.0 0.00026799
3270.0 0.00026276
3290.0 0.00025986
3310.0 0.00026033
3330.0 0.00026409
3350.0 0.00027065
3370.0 0.00028002
3390.0 0.00029183
3410.0 0.00030468
3430.0 0.0003191
3450.0 0.00033571
3470.0 0.00035384
3490.0 0.00037306
3510.0 0.00039478
3530.0 0.00041804
3550.0 0.00044159
3570.0 0.00046616
3590.0 0.00049288
3610.0 0.00052041
3630.0 0.00054785
3650.0 0.00057633
3670.0 0.00060232
3690.0 0.00062175
3710.0 0.00063289
3730.0 0.00063326
3750.0 0.00062445
3770.0 0.00062099
3790.0 0.00061729
3810.0 0.00060212
3830.0 0.00062076
3850.0 0.00069408
3870.0 0.00073433
3890.0 0.00073098
3910.0 0.0007341
3930.0 0.00075342
3950.0 0.00076532
3970.0 0.00069728
3990.0 0.00059997
4010.0 0.0017982
4030.0 0.0021788
4050.0 0.0024978
4070.0 0.0021673
4090.0 0.0019629
4110.0 0.0017321
4130.0 0.0015942
4150.0 0.0016957
4170.0 0.0016704
4190.0 0.0017805
4210.0 0.0017642
4230.0 0.0018661
4250.0 0.0022076
4270.0 0.0022336
4290.0 0.0020582
4310.0 0.0021386
4330.0 0.0022749
4350.0 0.0025507
4370.0 0.0029027
4390.0 0.0027239
4410.0 0.0020125
4430.0 0.0017037
4450.0 0.0015655
4470.0 0.0012016
4490.0 0.0012967
4510.0 0.0019586
4530.0 0.0022589
4550.0 0.0022785
4570.0 0.0025639
4590.0 0.0029205
4610.0 0.003939
4630.0 0.005116
4650.0 0.0055482
4670.0 0.0051382
4690.0 0.0049027
4710.0 0.0051825
4730.0 0.0048908
4750.0 0.0036565
4770.0 0.0026822
4790.0 0.0025046
4810.0 0.0023873
4830.0 0.0021856
4850.0 0.0023983
4870.0 0.0031684
4890.0 0.0037364
4910.0 0.0032782
4930.0 0.0029008
4950.0 0.0031869
4970.0 0.004087
4990.0 0.0055389
5010.0 0.0063718
5030.0 0.0056184
5050.0 0.0038012
5070.0 0.0025052
5090.0 0.00202
5110.0 0.0020774
5130.0 0.0023977
5150.0 0.0025977
5170.0 0.0025587
5190.0 0.002391
5210.0 0.0024991
5230.0 0.0026271
5250.0 0.0028312
5270.0 0.0030547
5290.0 0.0033852
5310.0 0.0039402
5330.0 0.0043604
5350.0 0.0043325
5370.0 0.0045509
5390.0 0.0052221
5410.0 0.0052174
5430.0 0.004614
5450.0 0.0042392
5470.0 0.0045012
5490.0 0.0054992
5510.0 0.0068759
5530.0 0.0078863
5550.0 0.0076221
5570.0 0.006929
5590.0 0.0060248
5610.0 0.0055562
5630.0 0.0053877
5650.0 0.0051313
5670.0 0.0048623
5690.0 0.0043468
5710.0 0.0042382
5730.0 0.003904
5750.0 0.0027525
5770.0 0.0021474
5790.0 0.0024335
5810.0 0.0027478
5830.0 0.0033719
5850.0 0.0040138
5870.0 0.0044534
5890.0 0.0045288
5910.0 0.004443
5930.0 0.0042292
5950.0 0.0043095
5970.0 0.0049123
5990.0 0.0046188
6010.0 0.0038719
6030.0 0.0032712
6050.0 0.0028488
6070.0 0.0028332
6090.0 0.0030722
6110.0 0.0034352
6130.0 0.0034878
6150.0 0.003001
6170.0 0.0026399
6190.0 0.0029708
6210.0 0.0039274
6230.0 0.0051539
6250.0 0.0055824
6270.0 0.0048782
6290.0 0.0041043
6310.0 0.0032041
6330.0 0.002455
6350.0 0.0021898
6370.0 0.0023028
6390.0 0.0026621
6410.0 0.0032825
6430.0 0.0038331
6450.0 0.0043861
6470.0 0.0050221
6490.0 0.0060664
6510.0 0.006783
6530.0 0.0066546
6550.0 0.0060175
6570.0 0.0051083
6590.0 0.0046063
6610.0 0.0039718
6630.0 0.0035983
6650.0 0.0034015
6670.0 0.0033044
6690.0 0.0029857
6710.0 0.0027141
6730.0 0.0019549
6750.0 0.0019381
6770.0 0.0021066
6790.0 0.0024213
6810.0 0.0022156
6830.0 0.0022814
6850.0 0.0021339
6870.0 0.0019493
6890.0 0.0018716
6910.0 0.0019944
6930.0 0.0018681
6950.0 0.0019219
6970.0 0.0020215
6990.0 0.0022946
7010.0 0.0023142
7030.0 0.0023509
7050.0 0.002242
7070.0 0.0021362
7090.0 0.0021425
7110.0 0.0022044
7130.0 0.0023723
7150.0 0.0025196
7170.0 0.0027802
7190.0 0.0030562
7210.0 0.0030031
7230.0 0.0030873
7250.0 0.0033177
7270.0 0.0036155
7290.0 0.0042913
7310.0 0.0046564
7330.0 0.0045008
7350.0 0.0040707
7370.0 0.0035419
7390.0 0.0034361
7410.0 0.0036515
7430.0 0.0040582
7450.0 0.0044201
7470.0 0.0043795
7490.0 0.0039933
7510.0 0.0045234
7530.0 0.0044739
7550.0 0.0040212
7570.0 0.0031414
7590.0 0.0021596
7610.0 0.0018536
7630.0 0.002106
7650.0 0.0024901
7670.0 0.0030991
7690.0 0.0034104
7710.0 0.003554
7730.0 0.0037349
7750.0 0.0041928
7770.0 0.0042588
7790.0 0.0039119
7810.0 0.0035694
7830.0 0.0036809
7850.0 0.0035781
7870.0 0.0032806
7890.0 0.0027563
7910.0 0.0022405
7930.0 0.0021394
7950.0 0.001949
7970.0 0.0018042
7990.0 0.0017939
8010.0 0.00013292
8030.0 0.00013119
8050.0 0.00012942
8070.0 0.00013113
8090.0 0.00014091
8110.0 0.00013851
8130.0 0.00011423
8150.0 0.00011125
8170.0 9.5805e-05
8190.0 9.078e-05
8210.0 0.00011793
8230.0 0.0001313
8250.0 0.0001183
8270.0 0.00010296
8290.0 0.0001004
8310.0 7.7278e-05
8330.0 5.2084e-05
8350.0 3.6965e-05
8370.0 2.3277e-05
8390.0 4.2572e-05
8410.0 4.9608e-05
8430.0 6.1149e-05
8450.0 7.1805e-05
8470.0 8.9266e-05
8490.0 8.8627e-05
8510.0 8.7168e-05
8530.0 9.0952e-05
8550.0 0.00012276
8570.0 0.00014535
8590.0 0.00015679
8610.0 0.00019808
8630.0 0.00023861
8650.0 0.00024956
8670.0 0.00026523
8690.0 0.00026677
8710.0 0.00024159
8730.0 0.00022473
8750.0 0.00019835
8770.0 0.0001882
8790.0 0.00018491
8810.0 0.0001772
8830.0 0.00014167
8850.0 0.00010369
8870.0 7.9393e-05
8890.0 7.7649e-05
8910.0 8.9007e-05
8930.0 0.00010126
8950.0 0.0001032
8970.0 0.00010368
8990.0 9.2456e-05
9010.0 0.00096822
9030.0 0.0008773
9050.0 0.00088153
9070.0 0.0008885
9090.0 0.0008946
9110.0 0.00090214
9130.0 0.00090796
9150.0 0.00091248
9170.0 0.0009173
9190.0 0.00092245
9210.0 0.00092787
9230.0 0.00093359
9250.0 0.0009394
9270.0 0.00094543
9290.0 0.00095164
9310.0 0.00095789
9330.0 0.00096426
9350.0 0.00097088
9370.0 0.00097757
9390.0 0.00098432
9410.0 0.00099127
9430.0 0.00099843
9450.0 0.0010056
9470.0 0.0010128
9490.0 0.0010203
9510.0 0.0010279
9530.0 0.0010355
9550.0 0.0010434
9570.0 0.0010514
9590.0 0.0010595
9610.0 0.0010676
9630.0 0.001076
9650.0 0.0010845
9670.0 0.001093
9690.0 0.0011017
9710.0 0.0011106
9730.0 0.0011194
9750.0 0.0011284
9770.0 0.0011377
9790.0 0.0011469
9810.0 0.0011562
9830.0 0.0011657
9850.0 0.0011754
9870.0 0.0011849
9890.0 0.0011947
9910.0 0.0012046
9930.0 0.0012145
9950.0 0.0012245
9970.0 0.0012346
9990.0 0.0012449
10010.0 0.0010802
10030.0 0.0010891
10050.0 0.0010982
10070.0 0.0011075
10090.0 0.0011163
10110.0 0.0011254
10130.0 0.0011345
10150.0 0.0011435
10170.0 0.0011527
10190.0 0.001162
10210.0 0.0011712
10230.0 0.0011804
10250.0 0.0011897
10270.0 0.001199
10290.0 0.0012082
10310.0 0.0012175
10330.0 0.001227
10350.0 0.0012362
10370.0 0.0012454
10390.0 0.0012548
10410.0 0.0012641
10430.0 0.0012732
10450.0 0.0012823
10470.0 0.0012916
10490.0 0.0013006
10510.0 0.0013096
10530.0 0.0013188
10550.0 0.0013278
10570.0 0.0013366
10590.0 0.0013454
10610.0 0.0013543
10630.0 0.0013629
10650.0 0.0013715
10670.0 0.0013801
10690.0 0.0013886
10710.0 0.0013969
10730.0 0.0014052
10750.0 0.0014135
10770.0 0.0014215
10790.0 0.0014295
10810.0 0.0014374
10830.0 0.001445
10850.0 0.0014523
10870.0 0.0014594
10890.0 0.0014656
10910.0 0.0014704
10930.0 0.0014731
10950.0 0.0014724
10970.0 0.0014675
10990.0 0.0014577
11010.0 0.0014412
11030.0 0.0014183
11050.0 0.0013903
11070.0 0.0013569
11090.0 0.0013168
11110.0 0.0012753
11130.0 0.0012319
11150.0 0.0011853
11170.0 0.0011372
11190.0 0.0010906
11210.0 0.0010424
11230.0 0.00099305
11250.0 0.00094586
11270.0 0.00090055
11290.0 0.00085515
11310.0 0.00081214
11330.0 0.00077426
11350.0 0.00073848
11370.0 0.00070542
11390.0 0.00067682
11410.0 0.00065179
11430.0 0.00062854
11450.0 0.00060851
11470.0 0.00059118
11490.0 0.00057506
11510.0 0.00055953
11530.0 0.00054512
11550.0 0.0005308
11570.0 0.00051552
11590.0 0.00049971
11610.0 0.00048361
11630.0 0.00046608
11650.0 0.00044732
11670.0 0.00042883
11690.0 0.00041007
11710.0 0.00039073
11730.0 0.00037199
11750.0 0.00035464
11770.0 0.00033762
11790.0 0.00032168
11810.0 0.00030765
11830.0 0.00029509
11850.0 0.00028353
11870.0 0.00027386
11890.0 0.00026582
11910.0 0.00025875
11930.0 0.00025268
11950.0 0.00024763
11970.0 0.00024311
11990.0 0.00023884
12010.0 0.00023489
12030.0 0.00023108
12050.0 0.00022714
12070.0 0.00022305
12090.0 0.0002191
12110.0 0.0002151
12130.0 0.00021108
12150.0 0.00020738
12170.0 0.00020415
12190.0 0.00020136
12210.0 0.00019941
12230.0 0.00019846
12250.0 0.00019862
12270.0 0.00020011
12290.0 0.00020295
12310.0 0.00020701
12330.0 0.00021269
12350.0 0.00021978
12370.0 0.00022785
12390.0 0.00023716
12410.0 0.00024807
12430.0 0.00025916
12450.0 0.00027064
12470.0 0.00028284
12490.0 0.0002951
12510.0 0.0003066
12530.0 0.00031805
12550.0 0.00032908
12570.0 0.00033883
12590.0 0.00034738
12610.0 0.00035501
12630.0 0.00036108
12650.0 0.00036528
12670.0 0.00036803
12690.0 0.00036914
12710.0 0.00036853
12730.0 0.00036639
12750.0 0.00036258
12770.0 0.00035735
12790.0 0.00035101
12810.0 0.00034343
12830.0 0.00033467
12850.0 0.00032551
12870.0 0.00031582
12890.0 0.00030533
12910.0 0.00029468
12930.0 0.00028417
12950.0 0.00027321
12970.0 0.00026205
12990.0 0.0002515
13010.0 0.00024107
13030.0 0.00023053
13050.0 0.00022041
13070.0 0.00021092
13090.0 0.00020141
13110.0 0.0001922
13130.0 0.00018371
13150.0 0.00017567
13170.0 0.0001678
13190.0 0.00016079
13210.0 0.00015463
13230.0 0.00014899
13250.0 0.00014414
13270.0 0.00014031
13290.0 0.00013734
13310.0 0.00013529
13330.0 0.00013435
13350.0 0.00013446
13370.0 0.00013567
13390.0 0.00013803
13410.0 0.00014124
13430.0 0.0001454
13450.0 0.00015054
13470.0 0.00015625
13490.0 0.00016229
13510.0 0.00016911
13530.0 0.00017602
13550.0 0.00018263
13570.0 0.00018916
13590.0 0.00019551
13610.0 0.00020117
13630.0 0.00020611
13650.0 0.00021061
13670.0 0.00021435
13690.0 0.00021725
13710.0 0.00021949
13730.0 0.00022108
13750.0 0.00022188
13770.0 0.00022206
13790.0 0.00022166
13810.0 0.00022068
13830.0 0.00021924
13850.0 0.00021728
13870.0 0.00021481
13890.0 0.00021198
13910.0 0.0002088
13930.0 0.00020511
13950.0 0.00020109
13970.0 0.00019697
13990.0 0.00019249
14010.0 0.00018773
14030.0 0.00018298
14050.0 0.00017819
14070.0 0.00017313
14090.0 0.00016828
14110.0 0.00016373
14130.0 0.00015932
14150.0 0.00015516
14170.0 0.00015162
14190.0 0.00014855
14210.0 0.00014595
14230.0 0.00014402
14250.0 0.00014278
14270.0 0.00014218
14290.0 0.0001423
14310.0 0.0001431
14330.0 0.00014452
14350.0 0.00014662
14370.0 0.00014923
14390.0 0.0001522
14410.0 0.00015569
14430.0 0.00015952
14450.0 0.00016344
14470.0 0.00016751
14490.0 0.00017183
14510.0 0.00017596
14530.0 0.00017989
14550.0 0.00018381
14570.0 0.00018758
14590.0 0.00019101
14610.0 0.00019432
14630.0 0.0001976
14650.0 0.00020066
14670.0 0.00020361
14690.0 0.00020669
14710.0 0.00020993
14730.0 0.00021316
14750.0 0.00021675
14770.0 0.00022082
14790.0 0.00022522
14810.0 0.00023
14830.0 0.00023566
14850.0 0.00024181
14870.0 0.00024823
14890.0 0.00025515
14910.0 0.00026251
14930.0 0.00026958
14950.0 0.00027619
14970.0 0.00028244
14990.0 0.00028769
15010.0 0.0002917
15030.0 0.00029467
15050.0 0.00029664
15070.0 0.00029759
15090.0 0.00029793
15110.0 0.00029783
15130.0 0.00029746
15150.0 0.00029696
15170.0 0.00029636
15190.0 0.00029572
15210.0 0.00029509
15230.0 0.00029447
15250.0 0.00029382
15270.0 0.00029317
15290.0 0.00029257
15310.0 0.00029194
15330.0 0.00029131
15350.0 0.0002907
15370.0 0.0002901
15390.0 0.00028947
15410.0 0.00028885
15430.0 0.00028826
15450.0 0.00028765
15470.0 0.00028704
15490.0 0.00028645
15510.0 0.00028587
15530.0 0.00028526
15550.0 0.00028467
15570.0 0.0002841
15590.0 0.00028351
15610.0 0.00028291
15630.0 0.00028234
15650.0 0.00028177
15670.0 0.00028118
15690.0 0.0002806
15710.0 0.00028005
15730.0 0.00027947
15750.0 0.00027889
15770.0 0.00027833
15790.0 0.00027777
15810.0 0.00027718
15830.0 0.00027661
15850.0 0.00027607
15870.0 0.0002755
15890.0 0.00027493
15910.0 0.00027439
15930.0 0.00027383
15950.0 0.00027325
15970.0 0.0002727
15990.0 0.00027215
16010.0 0.00027159
16030.0 0.00027102
16050.0 0.00027048
16070.0 0.00026993
16090.0 0.00026936
16110.0 0.00026881
16130.0 0.00026828
16150.0 0.0002677
16170.0 0.00026714
16190.0 0.0002666
16210.0 0.00026605
16230.0 0.00026548
16250.0 0.00026493
16270.0 0.0002644
16290.0 0.00026383
16310.0 0.00026327
16330.0 0.00026273
16350.0 0.00026218
16370.0 0.00026159
16390.0 0.00026105
16410.0 0.00026051
16430.0 0.00025994
16450.0 0.00025938
16470.0 0.00025884
16490.0 0.00025828
16510.0 0.0002577
16530.0 0.00025715
16550.0 0.0002566
16570.0 0.00025602
16590.0 0.00025545
16610.0 0.0002549
16630.0 0.00025434
16650.0 0.00025376
16670.0 0.00025321
16690.0 0.00025265
16710.0 0.00025206
16730.0 0.00025149
16750.0 0.00025093
16770.0 0.00025035
16790.0 0.00024976
16810.0 0.0002492
16830.0 0.00024864
16850.0 0.00024805
16870.0 0.00024747
16890.0 0.0002469
16910.0 0.00024631
16930.0 0.00024571
16950.0 0.00024514
16970.0 0.00024456
16990.0 0.00024396
17010.0 0.00024337
17030.0 0.0002428
17050.0 0.0002422
17070.0 0.0002416
17090.0 0.00024102
17110.0 0.00024043
17130.0 0.0002398
17150.0 0.00023921
17170.0 0.00023862
17190.0 0.00023801
17210.0 0.0002374
17230.0 0.00023682
17250.0 0.00023621
17270.0 0.00023558
17290.0 0.00023498
17310.0 0.00023438
17330.0 0.00023376
17350.0 0.00023313
17370.0 0.00023253
17390.0 0.00023192
17410.0 0.00023129
17430.0 0.00023067
17450.0 0.00023007
17470.0 0.00022942
17490.0 0.00022879
17510.0 0.00022818
17530.0 0.00022755
17550.0 0.0002269
17570.0 0.00022628
17590.0 0.00022566
17610.0 0.00022502
17630.0 0.00022438
17650.0 0.00022375
17670.0 0.00022311
17690.0 0.00022245
17710.0 0.00022182
17730.0 0.00022119
17750.0 0.00022053
17770.0 0.00021988
17790.0 0.00021926
17810.0 0.0002186
17830.0 0.00021794
17850.0 0.0002173
17870.0 0.00021665
17890.0 0.00021598
17910.0 0.00021532
17930.0 0.00021468
17950.0 0.00021402
17970.0 0.00021335
17990.0 0.00021271
18010.0 0.00021206
18030.0 0.00021137
18050.0 0.00021071
18070.0 0.00021006
18090.0 0.00020938
18110.0 0.0002087
18130.0 0.00020805
18150.0 0.00020739
18170.0 0.00020671
18190.0 0.00020604
18210.0 0.00020538
18230.0 0.0002047
18250.0 0.00020401
18270.0 0.00020335
18290.0 0.00020268
18310.0 0.00020199
18330.0 0.00020132
18350.0 0.00020066
18370.0 0.00019997
18390.0 0.00019928
18410.0 0.00019861
18430.0 0.00019793
18450.0 0.00019723
18470.0 0.00019655
18490.0 0.00019588
18510.0 0.00019519
18530.0 0.0001945
18550.0 0.00019383
18570.0 0.00019315
18590.0 0.00019244
18610.0 0.00019176
18630.0 0.00019109
18650.0 0.00019039
18670.0 0.00018968
18690.0 0.00018902
18710.0 0.00018833
18730.0 0.00018763
18750.0 0.00018695
18770.0 0.00018627
18790.0 0.00018556
18810.0 0.00018486
18830.0 0.00018418
18850.0 0.00018349
18870.0 0.00018278
18890.0 0.0001821
18910.0 0.00018143
18930.0 0.00018072
18950.0 0.00018002
18970.0 0.00017935
18990.0 0.00017865
19010.0 0.00017793
19030.0 0.00017725
19050.0 0.00017657
19070.0 0.00017586
19090.0 0.00017517
19110.0 0.0001745
19130.0 0.00017379
19150.0 0.00017308
19170.0 0.0001724
19190.0 0.00017171
19210.0 0.000171
19230.0 0.0001703
19250.0 0.00016963
19270.0 0.00016893
19290.0 0.00016823
19310.0 0.00016755
19330.0 0.00016686
19350.0 0.00016615
19370.0 0.00016545
19390.0 0.00016477
19410.0 0.00016407
19430.0 0.00016337
19450.0 0.00016269
19470.0 0.00016201
19490.0 0.0001613
19510.0 0.00016061
19530.0 0.00015994
19550.0 0.00015923
19570.0 0.00015852
19590.0 0.00015785
19610.0 0.00015716
19630.0 0.00015646
19650.0 0.00015577
19670.0 0.0001551
19690.0 0.0001544
19710.0 0.0001537
19730.0 0.00015303
19750.0 0.00015234
19770.0 0.00015163
19790.0 0.00015095
19810.0 0.00015028
19830.0 0.00014958
19850.0 0.00014887
19870.0 0.00014818
19890.0 0.00014744
19910.0 0.00014663
19930.0 0.00014576
19950.0 0.00014477
19970.0 0.00014354
19990.0 0.00014207
20010.0 0.00012639
20030.0 0.00012457
20050.0 0.00012242
20070.0 0.00012011
20090.0 0.00011761
20110.0 0.00011479
20130.0 0.00011193
20150.0 0.0001091
20170.0 0.00010616
20190.0 0.00010318
20210.0 0.00010037
20230.0 9.7627e-05
20250.0 9.4877e-05
20270.0 9.2326e-05
20290.0 8.9996e-05
20310.0 8.7782e-05
20330.0 8.5713e-05
20350.0 8.3996e-05
20370.0 8.2471e-05
20390.0 8.1134e-05
20410.0 8.0055e-05
20430.0 7.9222e-05
20450.0 7.8563e-05
20470.0 7.8121e-05
20490.0 7.7884e-05
20510.0 7.7816e-05
20530.0 7.7912e-05
20550.0 7.8152e-05
20570.0 7.8502e-05
20590.0 7.8976e-05
20610.0 7.955e-05
20630.0 8.0182e-05
20650.0 8.0889e-05
20670.0 8.1697e-05
20690.0 8.2521e-05
20710.0 8.3373e-05
20730.0 8.4291e-05
20750.0 8.5251e-05
20770.0 8.6194e-05
20790.0 8.7185e-05
20810.0 8.8232e-05
20830.0 8.9275e-05
20850.0 9.0323e-05
20870.0 9.1444e-05
20890.0 9.2587e-05
20910.0 9.3691e-05
20930.0 9.4835e-05
20950.0 9.6021e-05
20970.0 9.7177e-05
20990.0 9.8318e-05
21010.0 9.9517e-05
21030.0 0.00010069
21050.0 0.00010181
21070.0 0.00010293
21090.0 0.00010405
21110.0 0.00010507
21130.0 0.00010603
21150.0 0.00010696
21170.0 0.0001078
21190.0 0.00010853
21210.0 0.00010918
21230.0 0.00010972
21250.0 0.00011011
21270.0 0.00011035
21290.0 0.00011044
21310.0 0.00011036
21330.0 0.0001101
21350.0 0.00010964
21370.0 0.00010897
21390.0 0.00010811
21410.0 0.00010707
21430.0 0.00010575
21450.0 0.00010426
21470.0 0.00010264
21490.0 0.00010081
21510.0 9.8806e-05
21530.0 9.6767e-05
21550.0 9.4631e-05
21570.0 9.2353e-05
21590.0 9.0112e-05
21610.0 8.7948e-05
21630.0 8.578e-05
21650.0 8.3663e-05
21670.0 8.1828e-05
21690.0 8.0135e-05
21710.0 7.861e-05
21730.0 7.7362e-05
21750.0 7.6399e-05
21770.0 7.5665e-05
21790.0 7.5243e-05
21810.0 7.5126e-05
21830.0 7.5292e-05
21850.0 7.5763e-05
21870.0 7.6497e-05
21890.0 7.7445e-05
21910.0 7.8661e-05
21930.0 8.0087e-05
21950.0 8.1633e-05
21970.0 8.3344e-05
21990.0 8.5266e-05
22010.0 8.7186e-05
22030.0 8.9136e-05
22050.0 9.1184e-05
22070.0 9.3243e-05
22090.0 9.5193e-05
22110.0 9.7159e-05
22130.0 9.9121e-05
22150.0 0.00010095
22170.0 0.00010268
22190.0 0.00010439
22210.0 0.00010599
22230.0 0.00010739
22250.0 0.00010871
22270.0 0.00010993
22290.0 0.00011097
22310.0 0.00011186
22330.0 0.00011264
22350.0 0.00011325
22370.0 0.00011368
22390.0 0.00011395
22410.0 0.00011403
22430.0 0.00011392
22450.0 0.00011363
22470.0 0.00011312
22490.0 0.00011241
22510.0 0.00011152
22530.0 0.00011039
22550.0 0.000109
22570.0 0.00010747
22590.0 0.00010574
22610.0 0.00010376
22630.0 0.0001016
22650.0 9.9378e-05
22670.0 9.6918e-05
22690.0 9.4291e-05
22710.0 9.1642e-05
22730.0 8.8911e-05
22750.0 8.5951e-05
22770.0 8.3058e-05
22790.0 8.0234e-05
22810.0 7.7334e-05
22830.0 7.4441e-05
22850.0 7.1733e-05
22870.0 6.9079e-05
22890.0 6.6437e-05
22910.0 6.4005e-05
22930.0 6.1775e-05
