#lamb flux
1010.0 2.1518e-06
1030.0 2.3684e-06
1050.0 2.6176e-06
1070.0 2.898e-06
1090.0 3.2166e-06
1110.0 3.5433e-06
1130.0 3.8722e-06
1150.0 4.2166e-06
1170.0 4.5719e-06
1190.0 4.9088e-06
1210.0 5.2502e-06
1230.0 5.603e-06
1250.0 5.9487e-06
1270.0 6.2843e-06
1290.0 6.639e-06
1310.0 6.9934e-06
1330.0 7.3332e-06
1350.0 7.6768e-06
1370.0 8.0316e-06
1390.0 8.3774e-06
1410.0 8.7129e-06
1430.0 9.0637e-06
1450.0 9.4143e-06
1470.0 9.7532e-06
1490.0 1.0096e-05
1510.0 1.0457e-05
1530.0 1.08e-05
1550.0 1.1138e-05
1570.0 1.1487e-05
1590.0 1.1837e-05
1610.0 1.2171e-05
1630.0 1.2515e-05
1650.0 1.2868e-05
1670.0 1.3209e-05
1690.0 1.3546e-05
1710.0 1.3896e-05
1730.0 1.4247e-05
1750.0 1.4576e-05
1770.0 1.4915e-05
1790.0 1.5261e-05
1810.0 1.5594e-05
1830.0 1.5921e-05
1850.0 1.6268e-05
1870.0 1.6604e-05
1890.0 1.6927e-05
1910.0 1.7256e-05
1930.0 1.7592e-05
1950.0 1.7909e-05
1970.0 1.8221e-05
1990.0 1.8543e-05
2010.0 1.8856e-05
2030.0 1.9155e-05
2050.0 1.946e-05
2070.0 1.9769e-05
2090.0 2.0055e-05
2110.0 2.0335e-05
2130.0 2.062e-05
2150.0 2.0893e-05
2170.0 2.1146e-05
2190.0 2.1403e-05
2210.0 2.1656e-05
2230.0 2.1888e-05
2250.0 2.2111e-05
2270.0 2.2339e-05
2290.0 2.2548e-05
2310.0 2.2734e-05
2330.0 2.292e-05
2350.0 2.3099e-05
2370.0 2.3256e-05
2390.0 2.341e-05
2410.0 2.3577e-05
2430.0 2.374e-05
2450.0 2.3912e-05
2470.0 2.4126e-05
2490.0 2.4412e-05
2510.0 2.4772e-05
2530.0 2.5325e-05
2550.0 2.6247e-05
2570.0 2.7689e-05
2590.0 2.9826e-05
2610.0 3.3174e-05
2630.0 3.7766e-05
2650.0 4.3273e-05
2670.0 4.9691e-05
2690.0 5.6699e-05
2710.0 6.3264e-05
2730.0 6.8942e-05
2750.0 7.3851e-05
2770.0 7.7527e-05
2790.0 8.0005e-05
2810.0 8.1721e-05
2830.0 8.2978e-05
2850.0 8.3763e-05
2870.0 8.4371e-05
2890.0 8.4969e-05
2910.0 8.553e-05
2930.0 8.5999e-05
2950.0 8.6518e-05
2970.0 8.7063e-05
2990.0 8.7533e-05
3010.0 0.0009458
3030.0 0.00095099
3050.0 0.00095579
3070.0 0.00095891
3090.0 0.00096128
3110.0 0.00096164
3130.0 0.00095841
3150.0 0.00095113
3170.0 0.00093906
3190.0 0.00092251
3210.0 0.0009037
3230.0 0.0008846
3250.0 0.00086263
3270.0 0.00085455
3290.0 0.00084531
3310.0 0.00086257
3330.0 0.00088306
3350.0 0.00091098
3370.0 0.00094771
3390.0 0.00099179
3410.0 0.0010379
3430.0 0.0010878
3450.0 0.0011428
3470.0 0.0011999
3490.0 0.0012578
3510.0 0.0013184
3530.0 0.0013791
3550.0 0.0014457
3570.0 0.0015185
3590.0 0.0015872
3610.0 0.0016726
3630.0 0.0017382
3650.0 0.0018086
3670.0 0.0018657
3690.0 0.001917
3710.0 0.0019593
3730.0 0.0019637
3750.0 0.0019668
3770.0 0.0018966
3790.0 0.0018555
3810.0 0.0018051
3830.0 0.0016343
3850.0 0.0015119
3870.0 0.0016151
3890.0 0.00191
3910.0 0.0024205
3930.0 0.0028355
3950.0 0.0030402
3970.0 0.0029116
3990.0 0.0027181
4010.0 0.0028486
4030.0 0.0030742
4050.0 0.0031895
4070.0 0.0028723
4090.0 0.0023778
4110.0 0.0025407
4130.0 0.002821
4150.0 0.0029446
4170.0 0.0028504
4190.0 0.0027287
4210.0 0.00298
4230.0 0.0032417
4250.0 0.003349
4270.0 0.0034512
4290.0 0.0033563
4310.0 0.003494
4330.0 0.0038607
4350.0 0.0045134
4370.0 0.0048778
4390.0 0.0046228
4410.0 0.0038978
4430.0 0.0032964
4450.0 0.0026942
4470.0 0.0025969
4490.0 0.00291
4510.0 0.0035493
4530.0 0.0038431
4550.0 0.0040942
4570.0 0.0047784
4590.0 0.006003
4610.0 0.0079969
4630.0 0.0095799
4650.0 0.0096355
4670.0 0.0097119
4690.0 0.010514
4710.0 0.010515
4730.0 0.0085774
4750.0 0.0063464
4770.0 0.0052295
4790.0 0.0049624
4810.0 0.0046174
4830.0 0.0047087
4850.0 0.0055548
4870.0 0.0069627
4890.0 0.0073829
4910.0 0.006359
4930.0 0.0061162
4950.0 0.007313
4970.0 0.0096369
4990.0 0.011545
5010.0 0.011676
5030.0 0.0094612
5050.0 0.0065122
5070.0 0.0047933
5090.0 0.004178
5110.0 0.0041902
5130.0 0.0045609
5150.0 0.004585
5170.0 0.0045667
5190.0 0.0045245
5210.0 0.0044511
5230.0 0.0046849
5250.0 0.0049782
5270.0 0.0056922
5290.0 0.0067174
5310.0 0.0072776
5330.0 0.0075384
5350.0 0.0079905
5370.0 0.008704
5390.0 0.0089214
5410.0 0.0081813
5430.0 0.0072838
5450.0 0.0072047
5470.0 0.0086327
5490.0 0.011081
5510.0 0.013439
5530.0 0.014396
5550.0 0.013919
5570.0 0.012898
5590.0 0.011785
5610.0 0.011276
5630.0 0.011321
5650.0 0.011496
5670.0 0.011241
5690.0 0.010698
5710.0 0.01027
5730.0 0.0090368
5750.0 0.0069435
5770.0 0.0062096
5790.0 0.0068577
5810.0 0.0079178
5830.0 0.0088993
5850.0 0.0094115
5870.0 0.0093221
5890.0 0.0086342
5910.0 0.008265
5930.0 0.0084047
5950.0 0.0088818
5970.0 0.0090749
5990.0 0.0082381
6010.0 0.0067414
6030.0 0.0054946
6050.0 0.0050222
6070.0 0.0052965
6090.0 0.0059144
6110.0 0.0060028
6130.0 0.0055647
6150.0 0.0054582
6170.0 0.0060564
6190.0 0.0072425
6210.0 0.0087003
6230.0 0.0096639
6250.0 0.0094529
6270.0 0.0083819
6290.0 0.0068965
6310.0 0.0054821
6330.0 0.0045671
6350.0 0.0043752
6370.0 0.0048063
6390.0 0.0054346
6410.0 0.0063031
6430.0 0.0074333
6450.0 0.0089263
6470.0 0.010959
6490.0 0.013037
6510.0 0.013739
6530.0 0.012993
6550.0 0.012445
6570.0 0.012424
6590.0 0.012047
6610.0 0.011174
6630.0 0.010413
6650.0 0.0099155
6670.0 0.0099397
6690.0 0.0097105
6710.0 0.0087023
6730.0 0.0075911
6750.0 0.006902
6770.0 0.0072108
6790.0 0.0077148
6810.0 0.008128
6830.0 0.0082609
6850.0 0.0079338
6870.0 0.0075753
6890.0 0.0073802
6910.0 0.0070044
6930.0 0.0067199
6950.0 0.0067892
6970.0 0.0070218
6990.0 0.0076399
7010.0 0.0081019
7030.0 0.0077951
7050.0 0.0071247
7070.0 0.0062273
7090.0 0.0052514
7110.0 0.0048379
7130.0 0.0050903
7150.0 0.0053993
7170.0 0.0054545
7190.0 0.0053078
7210.0 0.0052989
7230.0 0.0059854
7250.0 0.0069675
7270.0 0.0077426
7290.0 0.0080063
7310.0 0.0074622
7330.0 0.0067108
7350.0 0.006153
7370.0 0.0060162
7390.0 0.0061829
7410.0 0.0065793
7430.0 0.0073171
7450.0 0.008165
7470.0 0.0090738
7490.0 0.0097172
7510.0 0.0086552
7530.0 0.0080929
7550.0 0.0070842
7570.0 0.0060115
7590.0 0.0049015
7610.0 0.0046598
7630.0 0.0050254
7650.0 0.005727
7670.0 0.0065211
7690.0 0.0071962
7710.0 0.0080082
7730.0 0.0085997
7750.0 0.0089625
7770.0 0.0089959
7790.0 0.0089509
7810.0 0.0090602
7830.0 0.0088722
7850.0 0.0085407
7870.0 0.0080863
7890.0 0.007429
7910.0 0.00667
7930.0 0.0059258
7950.0 0.0053448
7970.0 0.0051845
7990.0 0.0053989
8010.0 0.0057359
8030.0 0.0058008
8050.0 0.0059153
8070.0 0.0058534
8090.0 0.0058437
8110.0 0.0056572
8130.0 0.0052913
8150.0 0.0049687
8170.0 0.0049217
8190.0 0.0050026
8210.0 0.0050576
8230.0 0.004929
8250.0 0.0047167
8270.0 0.0041598
8290.0 0.0033342
8310.0 0.0024913
8330.0 0.0017054
8350.0 0.0012378
8370.0 0.0012127
8390.0 0.0014405
8410.0 0.0017892
8430.0 0.0022028
8450.0 0.0024278
8470.0 0.0025698
8490.0 0.0027294
8510.0 0.0028906
8530.0 0.0032015
8550.0 0.0037579
8570.0 0.0043866
8590.0 0.0049762
8610.0 0.0057895
8630.0 0.0067186
8650.0 0.0072109
8670.0 0.0072534
8690.0 0.0070745
8710.0 0.0067544
8730.0 0.0064793
8750.0 0.0061776
8770.0 0.0060298
8790.0 0.0058011
8810.0 0.0053821
8830.0 0.0049635
8850.0 0.004272
8870.0 0.0038238
8890.0 0.0035527
8910.0 0.0037924
8930.0 0.0036849
8950.0 0.0037731
8970.0 0.0038252
8990.0 0.0038517
9010.0 0.0039046
9030.0 0.0038231
9050.0 0.0038177
9070.0 0.0038208
9090.0 0.0038241
9110.0 0.0038274
9130.0 0.0038312
9150.0 0.0038361
9170.0 0.0038381
9190.0 0.0038361
9210.0 0.0038627
9230.0 0.0038641
9250.0 0.0038685
9270.0 0.003874
9290.0 0.0038803
9310.0 0.0038874
9330.0 0.0038951
9350.0 0.0039033
9370.0 0.003912
9390.0 0.003921
9410.0 0.0039304
9430.0 0.0039402
9450.0 0.0039503
9470.0 0.0039609
9490.0 0.0039717
9510.0 0.0039829
9530.0 0.0039944
9550.0 0.0040063
9570.0 0.0040184
9590.0 0.004031
9610.0 0.0040438
9630.0 0.0040569
9650.0 0.0040704
9670.0 0.0040841
9690.0 0.0040981
9710.0 0.0041124
9730.0 0.004127
9750.0 0.0041418
9770.0 0.0041568
9790.0 0.0041721
9810.0 0.0041877
9830.0 0.0042034
9850.0 0.0042193
9870.0 0.0042354
9890.0 0.0042517
9910.0 0.0042681
9930.0 0.0042846
9950.0 0.0042998
9970.0 0.004317
9990.0 0.0043343
10010.0 0.0043488
10030.0 0.004366
10050.0 0.0043819
10070.0 0.0043918
10090.0 0.0044115
10110.0 0.0044307
10130.0 0.0044492
10150.0 0.0044674
10170.0 0.0044849
10190.0 0.0045017
10210.0 0.0045187
10230.0 0.0045356
10250.0 0.0045519
10270.0 0.0045681
10290.0 0.0045846
10310.0 0.0046004
10330.0 0.0046157
10350.0 0.0046313
10370.0 0.0046466
10390.0 0.0046613
10410.0 0.0046757
10430.0 0.0046904
10450.0 0.0047043
10470.0 0.0047177
10490.0 0.004731
10510.0 0.0047441
10530.0 0.0047561
10550.0 0.004768
10570.0 0.0047799
10590.0 0.004791
10610.0 0.0048014
10630.0 0.0048118
10650.0 0.0048217
10670.0 0.0048306
10690.0 0.0048392
10710.0 0.0048476
10730.0 0.0048551
10750.0 0.0048617
10770.0 0.0048685
10790.0 0.0048745
10810.0 0.0048796
10830.0 0.004884
10850.0 0.0048879
10870.0 0.0048894
10890.0 0.0048881
10910.0 0.0048831
10930.0 0.0048712
10950.0 0.0048479
10970.0 0.0048114
10990.0 0.0047607
11010.0 0.0046233
11030.0 0.0045274
11050.0 0.0044178
11070.0 0.0042921
11090.0 0.0041465
11110.0 0.0040014
11130.0 0.0038555
11150.0 0.0037051
11170.0 0.0035581
11190.0 0.0034241
11210.0 0.0032947
11230.0 0.0031721
11250.0 0.0030649
11270.0 0.0029706
11290.0 0.0028846
11310.0 0.0028104
11330.0 0.0027504
11350.0 0.002697
11370.0 0.0026493
11390.0 0.0026076
11410.0 0.0025687
11430.0 0.0025279
11450.0 0.0024862
11470.0 0.0024426
11490.0 0.002394
11510.0 0.0023388
11530.0 0.0022811
11550.0 0.0022196
11570.0 0.002152
11590.0 0.0020823
11610.0 0.0020134
11630.0 0.0019417
11650.0 0.0018694
11670.0 0.0018025
11690.0 0.0017388
11710.0 0.0016771
11730.0 0.0016206
11750.0 0.0015706
11770.0 0.0015235
11790.0 0.0014803
11810.0 0.0014423
11830.0 0.0014077
11850.0 0.0013741
11870.0 0.0013434
11890.0 0.0013147
11910.0 0.0012857
11930.0 0.0012561
11950.0 0.001227
11970.0 0.0011968
11990.0 0.0011643
12010.0 0.0011316
12030.0 0.0010987
12050.0 0.0010645
12070.0 0.0010297
12090.0 0.00099772
12110.0 0.00096677
12130.0 0.00093739
12150.0 0.00091173
12170.0 0.00089032
12190.0 0.0008724
12210.0 0.00085991
12230.0 0.00085311
12250.0 0.00085177
12270.0 0.00085647
12290.0 0.00086664
12310.0 0.00088135
12330.0 0.00090164
12350.0 0.00092614
12370.0 0.00095288
12390.0 0.00098236
12410.0 0.0010152
12430.0 0.0010465
12450.0 0.0010768
12470.0 0.0011069
12490.0 0.0011345
12510.0 0.0011578
12530.0 0.0011786
12550.0 0.0011959
12570.0 0.0012081
12590.0 0.001216
12610.0 0.0012199
12630.0 0.0012192
12650.0 0.0012143
12670.0 0.0012057
12690.0 0.0011935
12710.0 0.0011785
12730.0 0.0011612
12750.0 0.001141
12770.0 0.0011192
12790.0 0.0010966
12810.0 0.0010725
12830.0 0.0010471
12850.0 0.0010219
12870.0 0.00099641
12890.0 0.00096957
12910.0 0.00094254
12930.0 0.00091577
12950.0 0.00088757
12970.0 0.00085829
12990.0 0.00082974
13010.0 0.00080079
13030.0 0.00077082
13050.0 0.00074133
13070.0 0.00071322
13090.0 0.00068485
13110.0 0.00065747
13130.0 0.00063249
13150.0 0.00060941
13170.0 0.0005878
13190.0 0.0005696
13210.0 0.0005547
13230.0 0.00054244
13250.0 0.00053335
13270.0 0.00052756
13290.0 0.00052461
13310.0 0.00052457
13330.0 0.00052706
13350.0 0.00053157
13370.0 0.00053813
13390.0 0.00054638
13410.0 0.00055497
13430.0 0.00056434
13450.0 0.00057426
13470.0 0.00058379
13490.0 0.00059264
13510.0 0.00060156
13530.0 0.00060953
13550.0 0.00061627
13570.0 0.00062224
13590.0 0.00062752
13610.0 0.00063168
13630.0 0.0006349
13650.0 0.00063762
13670.0 0.0006396
13690.0 0.00064084
13710.0 0.00064159
13730.0 0.00064188
13750.0 0.00064151
13770.0 0.00064062
13790.0 0.00063921
13810.0 0.00063719
13830.0 0.00063459
13850.0 0.00063132
13870.0 0.0006273
13890.0 0.00062265
13910.0 0.00061737
13930.0 0.00061126
13950.0 0.00060457
13970.0 0.00059769
13990.0 0.00059032
14010.0 0.00058266
14030.0 0.0005752
14050.0 0.00056792
14070.0 0.0005606
14090.0 0.0005539
14110.0 0.0005479
14130.0 0.00054242
14150.0 0.00053759
14170.0 0.0005337
14190.0 0.00053057
14210.0 0.0005282
14230.0 0.00052672
14250.0 0.00052606
14270.0 0.00052628
14290.0 0.00052743
14310.0 0.00052932
14330.0 0.000532
14350.0 0.00053557
14370.0 0.00053975
14390.0 0.0005443
14410.0 0.00054958
14430.0 0.00055529
14450.0 0.00056109
14470.0 0.00056715
14490.0 0.00057378
14510.0 0.00058039
14530.0 0.00058711
14550.0 0.00059452
14570.0 0.00060259
14590.0 0.00061107
14610.0 0.00062068
14630.0 0.00063193
14650.0 0.00064422
14670.0 0.00065773
14690.0 0.00067332
14710.0 0.00069082
14730.0 0.0007087
14750.0 0.00072824
14770.0 0.00074939
14790.0 0.00077067
14810.0 0.00079172
14830.0 0.00081402
14850.0 0.00083531
14870.0 0.00085473
14890.0 0.00087299
14910.0 0.00088974
14930.0 0.00090361
14950.0 0.00091481
14970.0 0.00092389
14990.0 0.00093023
15010.0 0.00093405
15030.0 0.00093596
15050.0 0.0009362
15070.0 0.00093521
15090.0 0.00093347
15110.0 0.00093116
15130.0 0.00092858
15150.0 0.00092598
15170.0 0.00092323
15190.0 0.00092041
15210.0 0.00091769
15230.0 0.00091501
15250.0 0.00091223
15270.0 0.00090949
15290.0 0.00090691
15310.0 0.00090426
15330.0 0.00090158
15350.0 0.00089901
15370.0 0.00089647
15390.0 0.00089379
15410.0 0.00089121
15430.0 0.00088872
15450.0 0.00088616
15470.0 0.00088356
15490.0 0.0008811
15510.0 0.00087865
15530.0 0.0008761
15550.0 0.00087362
15570.0 0.00087123
15590.0 0.00086872
15610.0 0.00086619
15630.0 0.0008638
15650.0 0.00086139
15670.0 0.0008589
15690.0 0.00085648
15710.0 0.00085415
15730.0 0.0008517
15750.0 0.00084925
15770.0 0.0008469
15790.0 0.00084452
15810.0 0.00084202
15830.0 0.00083963
15850.0 0.00083731
15870.0 0.0008349
15890.0 0.00083247
15910.0 0.00083016
15930.0 0.00082779
15950.0 0.00082532
15970.0 0.00082294
15990.0 0.00082061
16010.0 0.00081818
16030.0 0.00081571
16050.0 0.00081341
16070.0 0.00081103
16090.0 0.00080858
16110.0 0.00080621
16130.0 0.00080388
16150.0 0.00080138
16170.0 0.00079892
16190.0 0.00079657
16210.0 0.00079416
16230.0 0.00079166
16250.0 0.00078926
16270.0 0.0007869
16290.0 0.0007844
16310.0 0.00078193
16330.0 0.00077954
16350.0 0.00077708
16370.0 0.00077449
16390.0 0.00077206
16410.0 0.00076963
16430.0 0.0007671
16450.0 0.00076458
16470.0 0.00076217
16490.0 0.00075963
16510.0 0.00075705
16530.0 0.00075455
16550.0 0.00075206
16570.0 0.00074943
16590.0 0.00074684
16610.0 0.00074437
16630.0 0.00074179
16650.0 0.00073916
16670.0 0.00073662
16690.0 0.00073407
16710.0 0.00073136
16730.0 0.00072873
16750.0 0.00072617
16770.0 0.00072351
16790.0 0.00072079
16810.0 0.0007182
16830.0 0.00071557
16850.0 0.00071284
16870.0 0.00071016
16890.0 0.00070754
16910.0 0.00070478
16930.0 0.00070198
16950.0 0.00069932
16970.0 0.00069661
16990.0 0.0006938
17010.0 0.00069106
17030.0 0.00068838
17050.0 0.00068556
17070.0 0.00068274
17090.0 0.00068
17110.0 0.00067722
17130.0 0.0006743
17150.0 0.00067149
17170.0 0.00066873
17190.0 0.00066586
17210.0 0.00066298
17230.0 0.0006602
17250.0 0.00065734
17270.0 0.00065437
17290.0 0.00065151
17310.0 0.00064866
17330.0 0.00064571
17350.0 0.00064273
17370.0 0.00063991
17390.0 0.00063699
17410.0 0.000634
17430.0 0.00063108
17450.0 0.00062821
17470.0 0.00062514
17490.0 0.00062214
17510.0 0.00061922
17530.0 0.00061624
17550.0 0.00061318
17570.0 0.00061022
17590.0 0.00060728
17610.0 0.00060421
17630.0 0.00060117
17650.0 0.00059821
17670.0 0.00059517
17690.0 0.00059201
17710.0 0.00058902
17730.0 0.00058602
17750.0 0.00058291
17770.0 0.00057983
17790.0 0.00057686
17810.0 0.00057375
17830.0 0.0005706
17850.0 0.00056756
17870.0 0.0005645
17890.0 0.00056133
17910.0 0.0005582
17930.0 0.00055518
17950.0 0.00055206
17970.0 0.0005489
17990.0 0.00054584
18010.0 0.00054277
18030.0 0.00053953
18050.0 0.0005364
18070.0 0.00053333
18090.0 0.00053017
18110.0 0.00052696
18130.0 0.00052389
18150.0 0.00052079
18170.0 0.00051758
18190.0 0.00051444
18210.0 0.00051136
18230.0 0.00050815
18250.0 0.00050491
18270.0 0.00050182
18290.0 0.00049869
18310.0 0.00049547
18330.0 0.00049233
18350.0 0.00048925
18370.0 0.00048603
18390.0 0.00048283
18410.0 0.00047972
18430.0 0.00047657
18450.0 0.0004733
18470.0 0.00047015
18490.0 0.00046706
18510.0 0.00046386
18530.0 0.00046067
18550.0 0.00045758
18570.0 0.00045442
18590.0 0.00045117
18610.0 0.00044803
18630.0 0.00044491
18650.0 0.0004417
18670.0 0.00043849
18690.0 0.00043543
18710.0 0.00043227
18730.0 0.00042907
18750.0 0.00042595
18770.0 0.00042287
18790.0 0.00041961
18810.0 0.00041644
18830.0 0.00041336
18850.0 0.00041022
18870.0 0.00040701
18890.0 0.00040393
18910.0 0.00040085
18930.0 0.00039766
18950.0 0.00039452
18970.0 0.00039146
18990.0 0.00038833
19010.0 0.00038509
19030.0 0.00038204
19050.0 0.00037897
19070.0 0.00037582
19090.0 0.00037271
19110.0 0.0003697
19130.0 0.00036656
19150.0 0.00036341
19170.0 0.00036036
19190.0 0.00035731
19210.0 0.00035415
19230.0 0.00035106
19250.0 0.00034807
19270.0 0.00034499
19290.0 0.00034188
19310.0 0.00033888
19330.0 0.00033587
19350.0 0.00033271
19370.0 0.00032967
19390.0 0.00032669
19410.0 0.00032363
19430.0 0.00032054
19450.0 0.00031759
19470.0 0.0003146
19490.0 0.00031153
19510.0 0.00030853
19530.0 0.00030559
19550.0 0.00030253
19570.0 0.00029947
19590.0 0.00029655
19610.0 0.00029358
19630.0 0.00029055
19650.0 0.0002876
19670.0 0.00028471
19690.0 0.00028169
19710.0 0.0002787
19730.0 0.0002758
19750.0 0.00027287
19770.0 0.00026983
19790.0 0.00026692
19810.0 0.00026406
19830.0 0.00026109
19850.0 0.00025813
19870.0 0.00025525
19890.0 0.00025222
19910.0 0.00024901
19930.0 0.00024575
19950.0 0.00024226
19970.0 0.00023829
19990.0 0.00023389
20010.0 0.00022927
20030.0 0.00022407
20050.0 0.00021843
20070.0 0.00021274
20090.0 0.00020704
20110.0 0.00020109
20130.0 0.00019555
20150.0 0.00019048
20170.0 0.00018566
20190.0 0.00018121
20210.0 0.00017737
20230.0 0.00017396
20250.0 0.00017087
20270.0 0.00016831
20290.0 0.00016622
20310.0 0.00016449
20330.0 0.00016313
20350.0 0.00016223
20370.0 0.00016167
20390.0 0.00016145
20410.0 0.00016158
20430.0 0.000162
20450.0 0.00016278
20470.0 0.00016389
20490.0 0.00016524
20510.0 0.00016689
20530.0 0.00016889
20550.0 0.00017111
20570.0 0.00017346
20590.0 0.00017612
20610.0 0.00017896
20630.0 0.00018183
20650.0 0.00018483
20670.0 0.00018804
20690.0 0.00019111
20710.0 0.0001941
20730.0 0.00019714
20750.0 0.00020011
20770.0 0.00020285
20790.0 0.00020557
20810.0 0.00020828
20830.0 0.00021086
20850.0 0.00021336
20870.0 0.00021598
20890.0 0.00021865
20910.0 0.00022123
20930.0 0.00022395
20950.0 0.00022684
20970.0 0.00022973
20990.0 0.00023263
21010.0 0.00023573
21030.0 0.00023878
21050.0 0.00024168
21070.0 0.00024452
21090.0 0.00024728
21110.0 0.00024967
21130.0 0.00025176
21150.0 0.00025362
21170.0 0.00025508
21190.0 0.00025613
21210.0 0.00025682
21230.0 0.00025709
21250.0 0.00025694
21270.0 0.00025639
21290.0 0.00025542
21310.0 0.00025406
21330.0 0.00025242
21350.0 0.0002504
21370.0 0.00024802
21390.0 0.00024545
21410.0 0.00024265
21430.0 0.00023948
21450.0 0.00023623
21470.0 0.00023296
21490.0 0.00022952
21510.0 0.00022601
21530.0 0.00022265
21550.0 0.00021934
21570.0 0.00021602
21590.0 0.00021295
21610.0 0.00021015
21630.0 0.00020753
21650.0 0.00020514
21670.0 0.00020324
21690.0 0.00020165
21710.0 0.0002004
21730.0 0.00019959
21750.0 0.00019918
21770.0 0.00019918
21790.0 0.00019961
21810.0 0.00020043
21830.0 0.00020164
21850.0 0.00020329
21870.0 0.00020526
21890.0 0.00020749
21910.0 0.00021011
21930.0 0.00021302
21950.0 0.00021606
21970.0 0.00021935
21990.0 0.000223
22010.0 0.00022661
22030.0 0.00023027
22050.0 0.00023413
22070.0 0.00023802
22090.0 0.00024171
22110.0 0.00024544
22130.0 0.00024917
22150.0 0.00025265
22170.0 0.0002559
22190.0 0.00025906
22210.0 0.00026193
22230.0 0.00026434
22250.0 0.00026647
22270.0 0.00026823
22290.0 0.00026951
22310.0 0.00027034
22330.0 0.00027071
22350.0 0.00027055
22370.0 0.00026988
22390.0 0.00026868
22410.0 0.00026686
22430.0 0.00026461
22450.0 0.00026188
22470.0 0.00025855
22490.0 0.00025478
22510.0 0.00025073
22530.0 0.0002461
22550.0 0.00024101
22570.0 0.00023582
22590.0 0.00023038
22610.0 0.00022452
22630.0 0.00021857
22650.0 0.00021276
22670.0 0.00020667
22690.0 0.00020048
22710.0 0.00019455
22730.0 0.0001887
22750.0 0.00018265
22770.0 0.00017701
22790.0 0.00017173
22810.0 0.00016655
22830.0 0.00016163
22850.0 0.00015725
22870.0 0.00015317
22890.0 0.00014936
22910.0 0.00014611
22930.0 0.00014338
22950.0 0.00014105
22970.0 0.00013924
22990.0 0.00013807
23010.0 0.0001374
23030.0 0.00013729
23050.0 0.00013773
23070.0 0.00013868
23090.0 0.00014022
23110.0 0.00014228
23130.0 0.00014471
