#lamb flux
1010.0 2.7388e-09
1030.0 3.0062e-09
1050.0 3.3137e-09
1070.0 3.6598e-09
1090.0 4.0531e-09
1110.0 4.4563e-09
1130.0 4.8623e-09
1150.0 5.2874e-09
1170.0 5.726e-09
1190.0 6.1419e-09
1210.0 6.5634e-09
1230.0 6.999e-09
1250.0 7.4257e-09
1270.0 7.8401e-09
1290.0 8.278e-09
1310.0 8.7156e-09
1330.0 9.1352e-09
1350.0 9.5595e-09
1370.0 9.9976e-09
1390.0 1.0425e-08
1410.0 1.0839e-08
1430.0 1.1272e-08
1450.0 1.1706e-08
1470.0 1.2124e-08
1490.0 1.2548e-08
1510.0 1.2995e-08
1530.0 1.3418e-08
1550.0 1.3836e-08
1570.0 1.4268e-08
1590.0 1.4701e-08
1610.0 1.5114e-08
1630.0 1.5541e-08
1650.0 1.5978e-08
1670.0 1.6401e-08
1690.0 1.6819e-08
1710.0 1.7253e-08
1730.0 1.7689e-08
1750.0 1.81e-08
1770.0 1.8522e-08
1790.0 1.8953e-08
1810.0 1.9371e-08
1830.0 1.978e-08
1850.0 2.0216e-08
1870.0 2.0639e-08
1890.0 2.1048e-08
1910.0 2.1466e-08
1930.0 2.1893e-08
1950.0 2.23e-08
1970.0 2.2701e-08
1990.0 2.3118e-08
2010.0 2.3526e-08
2030.0 2.3919e-08
2050.0 2.4323e-08
2070.0 2.4736e-08
2090.0 2.5123e-08
2110.0 2.5508e-08
2130.0 2.5903e-08
2150.0 2.6287e-08
2170.0 2.6652e-08
2190.0 2.7028e-08
2210.0 2.7404e-08
2230.0 2.7761e-08
2250.0 2.8112e-08
2270.0 2.8478e-08
2290.0 2.8827e-08
2310.0 2.9156e-08
2330.0 2.9496e-08
2350.0 2.9843e-08
2370.0 3.0185e-08
2390.0 3.0559e-08
2410.0 3.1013e-08
2430.0 3.1548e-08
2450.0 3.2205e-08
2470.0 3.307e-08
2490.0 3.4185e-08
2510.0 3.5464e-08
2530.0 3.7022e-08
2550.0 3.8993e-08
2570.0 4.1456e-08
2590.0 4.4663e-08
2610.0 4.9465e-08
2630.0 5.6284e-08
2650.0 6.5129e-08
2670.0 7.6482e-08
2690.0 9.0323e-08
2710.0 1.0495e-07
2730.0 1.1925e-07
2750.0 1.3317e-07
2770.0 1.4508e-07
2790.0 1.5432e-07
2810.0 1.6144e-07
2830.0 1.6679e-07
2850.0 1.7018e-07
2870.0 1.7245e-07
2890.0 1.7409e-07
2910.0 1.7524e-07
2930.0 1.7606e-07
2950.0 1.7681e-07
2970.0 1.7754e-07
2990.0 1.782e-07
3010.0 5.3631e-06
3030.0 5.3821e-06
3050.0 5.4003e-06
3070.0 5.4139e-06
3090.0 5.4234e-06
3110.0 5.4229e-06
3130.0 5.4052e-06
3150.0 5.365e-06
3170.0 5.2917e-06
3190.0 5.1865e-06
3210.0 5.058e-06
3230.0 4.9131e-06
3250.0 4.7667e-06
3270.0 4.6584e-06
3290.0 4.5869e-06
3310.0 4.5827e-06
3330.0 4.6343e-06
3350.0 4.7359e-06
3370.0 4.8873e-06
3390.0 5.0821e-06
3410.0 5.2962e-06
3430.0 5.538e-06
3450.0 5.8175e-06
3470.0 6.1239e-06
3490.0 6.4503e-06
3510.0 6.8205e-06
3530.0 7.2199e-06
3550.0 7.6332e-06
3570.0 8.0738e-06
3590.0 8.5568e-06
3610.0 9.0706e-06
3630.0 9.5797e-06
3650.0 1.0112e-05
3670.0 1.0594e-05
3690.0 1.0953e-05
3710.0 1.1146e-05
3730.0 1.1103e-05
3750.0 1.0847e-05
3770.0 1.0943e-05
3790.0 1.0851e-05
3810.0 9.7358e-06
3830.0 9.8764e-06
3850.0 1.2352e-05
3870.0 1.2829e-05
3890.0 1.1522e-05
3910.0 1.116e-05
3930.0 1.2169e-05
3950.0 1.3205e-05
3970.0 1.3038e-05
3990.0 9.9463e-06
4010.0 2.621e-05
4030.0 3.0074e-05
4050.0 3.4302e-05
4070.0 3.2055e-05
4090.0 2.9378e-05
4110.0 2.5386e-05
4130.0 2.5755e-05
4150.0 3.0392e-05
4170.0 2.7209e-05
4190.0 2.7069e-05
4210.0 2.8167e-05
4230.0 3.1651e-05
4250.0 3.7841e-05
4270.0 3.9512e-05
4290.0 3.5574e-05
4310.0 3.5229e-05
4330.0 3.628e-05
4350.0 4.2857e-05
4370.0 5.0263e-05
4390.0 4.3927e-05
4410.0 2.8996e-05
4430.0 2.3165e-05
4450.0 2.1511e-05
4470.0 1.5118e-05
4490.0 1.9067e-05
4510.0 3.4227e-05
4530.0 4.0594e-05
4550.0 3.9274e-05
4570.0 3.9965e-05
4590.0 4.4231e-05
4610.0 7.0766e-05
4630.0 9.5807e-05
4650.0 9.7579e-05
4670.0 8.8157e-05
4690.0 8.6241e-05
4710.0 9.0534e-05
4730.0 8.0723e-05
4750.0 5.7145e-05
4770.0 4.0492e-05
4790.0 4.0436e-05
4810.0 4.0392e-05
4830.0 3.8284e-05
4850.0 4.1706e-05
4870.0 5.5162e-05
4890.0 6.4472e-05
4910.0 5.3755e-05
4930.0 4.9694e-05
4950.0 5.582e-05
4970.0 7.263e-05
4990.0 9.8339e-05
5010.0 0.00011373
5030.0 9.6088e-05
5050.0 6.2477e-05
5070.0 4.2507e-05
5090.0 3.317e-05
5110.0 3.2698e-05
5130.0 3.8566e-05
5150.0 3.9971e-05
5170.0 3.8601e-05
5190.0 3.5266e-05
5210.0 3.8001e-05
5230.0 4.2871e-05
5250.0 4.7887e-05
5270.0 4.8226e-05
5290.0 5.2705e-05
5310.0 6.5395e-05
5330.0 7.1699e-05
5350.0 7.1002e-05
5370.0 7.6742e-05
5390.0 9.1669e-05
5410.0 8.5493e-05
5430.0 7.141e-05
5450.0 6.826e-05
5470.0 7.5298e-05
5490.0 9.2778e-05
5510.0 0.00011437
5530.0 0.00013194
5550.0 0.00012384
5570.0 0.00011202
5590.0 9.5058e-05
5610.0 9.1318e-05
5630.0 9.4863e-05
5650.0 8.8664e-05
5670.0 8.2756e-05
5690.0 7.0626e-05
5710.0 7.0599e-05
5730.0 6.661e-05
5750.0 4.2085e-05
5770.0 3.1546e-05
5790.0 3.7037e-05
5810.0 4.0495e-05
5830.0 5.5112e-05
5850.0 6.8652e-05
5870.0 7.5283e-05
5890.0 7.4522e-05
5910.0 7.2937e-05
5930.0 6.9623e-05
5950.0 7.1277e-05
5970.0 8.465e-05
5990.0 7.4846e-05
6010.0 6.0517e-05
6030.0 5.0436e-05
6050.0 4.4407e-05
6070.0 4.7823e-05
6090.0 5.2628e-05
6110.0 5.6398e-05
6130.0 5.5031e-05
6150.0 4.5561e-05
6170.0 3.779e-05
6190.0 4.3678e-05
6210.0 6.2522e-05
6230.0 8.701e-05
6250.0 9.4319e-05
6270.0 7.755e-05
6290.0 6.5815e-05
6310.0 5.084e-05
6330.0 3.8084e-05
6350.0 3.5464e-05
6370.0 3.726e-05
6390.0 4.3656e-05
6410.0 5.518e-05
6430.0 6.5378e-05
6450.0 7.7328e-05
6470.0 8.4963e-05
6490.0 0.00010206
6510.0 0.00011425
6530.0 0.00011456
6550.0 0.00010447
6570.0 8.5821e-05
6590.0 7.9167e-05
6610.0 6.6921e-05
6630.0 6.4951e-05
6650.0 6.2424e-05
6670.0 5.7234e-05
6690.0 4.7781e-05
6710.0 4.4997e-05
6730.0 2.5773e-05
6750.0 2.9154e-05
6770.0 3.8214e-05
6790.0 4.7451e-05
6810.0 3.7811e-05
6830.0 3.8759e-05
6850.0 3.4139e-05
6870.0 3.1467e-05
6890.0 2.8417e-05
6910.0 3.2397e-05
6930.0 3.0446e-05
6950.0 3.378e-05
6970.0 3.5415e-05
6990.0 3.9754e-05
7010.0 3.9065e-05
7030.0 4.2454e-05
7050.0 3.8523e-05
7070.0 3.4266e-05
7090.0 3.5622e-05
7110.0 3.7385e-05
7130.0 4.1726e-05
7150.0 4.5822e-05
7170.0 5.1055e-05
7190.0 5.5446e-05
7210.0 5.1855e-05
7230.0 5.2931e-05
7250.0 5.6676e-05
7270.0 6.1088e-05
7290.0 7.4106e-05
7310.0 7.9665e-05
7330.0 7.6016e-05
7350.0 6.8467e-05
7370.0 5.5161e-05
7390.0 5.4938e-05
7410.0 6.2505e-05
7430.0 7.0416e-05
7450.0 7.6291e-05
7470.0 7.2408e-05
7490.0 6.1338e-05
7510.0 8.2994e-05
7530.0 7.8855e-05
7550.0 7.2997e-05
7570.0 5.3122e-05
7590.0 3.0018e-05
7610.0 2.394e-05
7630.0 3.0453e-05
7650.0 3.8112e-05
7670.0 5.3447e-05
7690.0 5.9093e-05
7710.0 5.7391e-05
7730.0 5.8816e-05
7750.0 7.1349e-05
7770.0 7.2972e-05
7790.0 6.6802e-05
7810.0 5.7296e-05
7830.0 6.0618e-05
7850.0 6.2701e-05
7870.0 5.9472e-05
7890.0 4.8046e-05
7910.0 3.558e-05
7930.0 3.5432e-05
7950.0 3.2174e-05
7970.0 2.8449e-05
7990.0 2.7088e-05
8010.0 7.3219e-06
8030.0 6.639e-06
8050.0 7.1835e-06
8070.0 8.252e-06
8090.0 1.0273e-05
8110.0 9.7023e-06
8130.0 5.566e-06
8150.0 5.9056e-06
8170.0 3.1085e-06
8190.0 1.7086e-06
8210.0 5.3425e-06
8230.0 6.5359e-06
8250.0 2.3738e-06
8270.0 1.8032e-06
8290.0 3.941e-06
8310.0 3.5799e-06
8330.0 2.2138e-06
8350.0 1.759e-06
8370.0 3.2543e-07
8390.0 1.8935e-06
8410.0 2.1508e-06
8430.0 2.6601e-06
8450.0 3.0199e-06
8470.0 5.1782e-06
8490.0 4.2386e-06
8510.0 3.2419e-06
8530.0 1.6247e-06
8550.0 5.9292e-06
8570.0 9.1311e-06
8590.0 6.3272e-06
8610.0 9.5783e-06
8630.0 1.05e-05
8650.0 5.7688e-06
8670.0 8.4998e-06
8690.0 1.3052e-05
8710.0 1.1123e-05
8730.0 1.1892e-05
8750.0 9.2927e-06
8770.0 8.2361e-06
8790.0 9.1083e-06
8810.0 9.8951e-06
8830.0 5.4382e-06
8850.0 2.1949e-06
8870.0 1.4942e-06
8890.0 4.0274e-06
8910.0 6.4957e-06
8930.0 8.6998e-06
8950.0 9.565e-06
8970.0 9.173e-06
8990.0 6.6928e-06
9010.0 1.2513e-05
9030.0 1.0129e-05
9050.0 1.0354e-05
9070.0 1.0612e-05
9090.0 1.0826e-05
9110.0 1.109e-05
9130.0 1.1283e-05
9150.0 1.1421e-05
9170.0 1.1568e-05
9190.0 1.1726e-05
9210.0 1.1891e-05
9230.0 1.2066e-05
9250.0 1.2242e-05
9270.0 1.2425e-05
9290.0 1.2611e-05
9310.0 1.2798e-05
9330.0 1.2986e-05
9350.0 1.3182e-05
9370.0 1.3378e-05
9390.0 1.3575e-05
9410.0 1.3777e-05
9430.0 1.3984e-05
9450.0 1.4189e-05
9470.0 1.4397e-05
9490.0 1.4612e-05
9510.0 1.4827e-05
9530.0 1.5043e-05
9550.0 1.5266e-05
9570.0 1.5493e-05
9590.0 1.5718e-05
9610.0 1.5948e-05
9630.0 1.6184e-05
9650.0 1.642e-05
9670.0 1.6656e-05
9690.0 1.6899e-05
9710.0 1.7146e-05
9730.0 1.7391e-05
9750.0 1.7641e-05
9770.0 1.7899e-05
9790.0 1.8154e-05
9810.0 1.8411e-05
9830.0 1.8674e-05
9850.0 1.894e-05
9870.0 1.9204e-05
9890.0 1.9472e-05
9910.0 1.9746e-05
9930.0 2.002e-05
9950.0 2.0294e-05
9970.0 2.0574e-05
9990.0 2.0857e-05
10010.0 1.8295e-05
10030.0 1.8541e-05
10050.0 1.879e-05
10070.0 1.904e-05
10090.0 1.9287e-05
10110.0 1.9541e-05
10130.0 1.9795e-05
10150.0 2.0046e-05
10170.0 2.0301e-05
10190.0 2.0559e-05
10210.0 2.0815e-05
10230.0 2.1069e-05
10250.0 2.1327e-05
10270.0 2.1585e-05
10290.0 2.184e-05
10310.0 2.2098e-05
10330.0 2.2359e-05
10350.0 2.2614e-05
10370.0 2.2869e-05
10390.0 2.3128e-05
10410.0 2.3384e-05
10430.0 2.3635e-05
10450.0 2.3889e-05
10470.0 2.4144e-05
10490.0 2.4394e-05
10510.0 2.4641e-05
10530.0 2.4894e-05
10550.0 2.5141e-05
10570.0 2.5383e-05
10590.0 2.5626e-05
10610.0 2.5869e-05
10630.0 2.6105e-05
10650.0 2.6339e-05
10670.0 2.6576e-05
10690.0 2.6807e-05
10710.0 2.7033e-05
10730.0 2.7259e-05
10750.0 2.7486e-05
10770.0 2.7702e-05
10790.0 2.7916e-05
10810.0 2.813e-05
10830.0 2.8337e-05
10850.0 2.8534e-05
10870.0 2.8726e-05
10890.0 2.89e-05
10910.0 2.9041e-05
10930.0 2.9137e-05
10950.0 2.9164e-05
10970.0 2.9098e-05
10990.0 2.8928e-05
11010.0 2.7265e-05
11030.0 2.684e-05
11050.0 2.6313e-05
11070.0 2.5678e-05
11090.0 2.4913e-05
11110.0 2.412e-05
11130.0 2.3292e-05
11150.0 2.2404e-05
11170.0 2.149e-05
11190.0 2.0606e-05
11210.0 1.9696e-05
11230.0 1.8766e-05
11250.0 1.788e-05
11270.0 1.7031e-05
11290.0 1.6183e-05
11310.0 1.538e-05
11330.0 1.4672e-05
11350.0 1.4003e-05
11370.0 1.3383e-05
11390.0 1.2844e-05
11410.0 1.2369e-05
11430.0 1.1925e-05
11450.0 1.1538e-05
11470.0 1.1199e-05
11490.0 1.0881e-05
11510.0 1.0573e-05
11530.0 1.0285e-05
11550.0 9.9991e-06
11570.0 9.6956e-06
11590.0 9.3832e-06
11610.0 9.0669e-06
11630.0 8.7257e-06
11650.0 8.3631e-06
11670.0 8.0071e-06
11690.0 7.6475e-06
11710.0 7.2781e-06
11730.0 6.9204e-06
11750.0 6.589e-06
11770.0 6.2639e-06
11790.0 5.9584e-06
11810.0 5.6878e-06
11830.0 5.4442e-06
11850.0 5.2184e-06
11870.0 5.0269e-06
11890.0 4.8654e-06
11910.0 4.7215e-06
11930.0 4.5959e-06
11950.0 4.4892e-06
11970.0 4.3927e-06
11990.0 4.3011e-06
12010.0 4.216e-06
12030.0 4.1342e-06
12050.0 4.0505e-06
12070.0 3.9644e-06
12090.0 3.8816e-06
12110.0 3.798e-06
12130.0 3.7141e-06
12150.0 3.6359e-06
12170.0 3.566e-06
12190.0 3.5031e-06
12210.0 3.4546e-06
12230.0 3.4235e-06
12250.0 3.411e-06
12270.0 3.421e-06
12290.0 3.4538e-06
12310.0 3.5077e-06
12330.0 3.5886e-06
12350.0 3.6933e-06
12370.0 3.8148e-06
12390.0 3.9569e-06
12410.0 4.1254e-06
12430.0 4.2973e-06
12450.0 4.4757e-06
12470.0 4.6661e-06
12490.0 4.8574e-06
12510.0 5.0362e-06
12530.0 5.2141e-06
12550.0 5.3854e-06
12570.0 5.5356e-06
12590.0 5.6665e-06
12610.0 5.7823e-06
12630.0 5.8731e-06
12650.0 5.9333e-06
12670.0 5.9703e-06
12690.0 5.9807e-06
12710.0 5.9634e-06
12730.0 5.9214e-06
12750.0 5.8526e-06
12770.0 5.7609e-06
12790.0 5.6513e-06
12810.0 5.5222e-06
12830.0 5.3741e-06
12850.0 5.22e-06
12870.0 5.0578e-06
12890.0 4.8833e-06
12910.0 4.7067e-06
12930.0 4.5331e-06
12950.0 4.3528e-06
12970.0 4.17e-06
12990.0 3.9974e-06
13010.0 3.8273e-06
13030.0 3.6559e-06
13050.0 3.4914e-06
13070.0 3.3372e-06
13090.0 3.1827e-06
13110.0 3.0331e-06
13130.0 2.8948e-06
13150.0 2.7635e-06
13170.0 2.6347e-06
13190.0 2.5194e-06
13210.0 2.4172e-06
13230.0 2.3229e-06
13250.0 2.2407e-06
13270.0 2.1745e-06
13290.0 2.1214e-06
13310.0 2.0825e-06
13330.0 2.0611e-06
13350.0 2.056e-06
13370.0 2.0681e-06
13390.0 2.0984e-06
13410.0 2.1424e-06
13430.0 2.2017e-06
13450.0 2.2769e-06
13470.0 2.3617e-06
13490.0 2.4526e-06
13510.0 2.5564e-06
13530.0 2.6627e-06
13550.0 2.7654e-06
13570.0 2.8675e-06
13590.0 2.9679e-06
13610.0 3.058e-06
13630.0 3.1374e-06
13650.0 3.2107e-06
13670.0 3.2722e-06
13690.0 3.3204e-06
13710.0 3.3585e-06
13730.0 3.3866e-06
13750.0 3.4017e-06
13770.0 3.4069e-06
13790.0 3.4027e-06
13810.0 3.3891e-06
13830.0 3.3678e-06
13850.0 3.3383e-06
13870.0 3.3006e-06
13890.0 3.2571e-06
13910.0 3.2078e-06
13930.0 3.1507e-06
13950.0 3.0883e-06
13970.0 3.0244e-06
13990.0 2.9549e-06
14010.0 2.8812e-06
14030.0 2.8076e-06
14050.0 2.7336e-06
14070.0 2.6555e-06
14090.0 2.5807e-06
14110.0 2.5104e-06
14130.0 2.4423e-06
14150.0 2.378e-06
14170.0 2.3229e-06
14190.0 2.2751e-06
14210.0 2.2343e-06
14230.0 2.2037e-06
14250.0 2.1834e-06
14270.0 2.1728e-06
14290.0 2.1734e-06
14310.0 2.1843e-06
14330.0 2.2048e-06
14350.0 2.2358e-06
14370.0 2.275e-06
14390.0 2.32e-06
14410.0 2.3733e-06
14430.0 2.4324e-06
14450.0 2.4932e-06
14470.0 2.5566e-06
14490.0 2.6246e-06
14510.0 2.6901e-06
14530.0 2.7527e-06
14550.0 2.8157e-06
14570.0 2.8765e-06
14590.0 2.9321e-06
14610.0 2.9861e-06
14630.0 3.0397e-06
14650.0 3.0896e-06
14670.0 3.1379e-06
14690.0 3.188e-06
14710.0 3.2405e-06
14730.0 3.2929e-06
14750.0 3.3508e-06
14770.0 3.4163e-06
14790.0 3.4872e-06
14810.0 3.5642e-06
14830.0 3.6553e-06
14850.0 3.7544e-06
14870.0 3.8581e-06
14890.0 3.9702e-06
14910.0 4.0894e-06
14930.0 4.2043e-06
14950.0 4.3121e-06
14970.0 4.4146e-06
14990.0 4.501e-06
15010.0 4.5679e-06
15030.0 4.6183e-06
15050.0 4.6526e-06
15070.0 4.6709e-06
15090.0 4.6792e-06
15110.0 4.6807e-06
15130.0 4.6777e-06
15150.0 4.6727e-06
15170.0 4.6662e-06
15190.0 4.6591e-06
15210.0 4.6522e-06
15230.0 4.6453e-06
15250.0 4.638e-06
15270.0 4.6309e-06
15290.0 4.6243e-06
15310.0 4.6175e-06
15330.0 4.6106e-06
15350.0 4.6041e-06
15370.0 4.5977e-06
15390.0 4.5908e-06
15410.0 4.5843e-06
15430.0 4.578e-06
15450.0 4.5716e-06
15470.0 4.565e-06
15490.0 4.5589e-06
15510.0 4.5528e-06
15530.0 4.5464e-06
15550.0 4.5403e-06
15570.0 4.5344e-06
15590.0 4.5281e-06
15610.0 4.5218e-06
15630.0 4.5159e-06
15650.0 4.51e-06
15670.0 4.5038e-06
15690.0 4.4979e-06
15710.0 4.4922e-06
15730.0 4.4861e-06
15750.0 4.4801e-06
15770.0 4.4743e-06
15790.0 4.4685e-06
15810.0 4.4623e-06
15830.0 4.4564e-06
15850.0 4.4508e-06
15870.0 4.4448e-06
15890.0 4.4388e-06
15910.0 4.4331e-06
15930.0 4.4273e-06
15950.0 4.4211e-06
15970.0 4.4152e-06
15990.0 4.4095e-06
16010.0 4.4034e-06
16030.0 4.3971e-06
16050.0 4.3915e-06
16070.0 4.3855e-06
16090.0 4.3793e-06
16110.0 4.3734e-06
16130.0 4.3676e-06
16150.0 4.3611e-06
16170.0 4.3548e-06
16190.0 4.3489e-06
16210.0 4.3427e-06
16230.0 4.3362e-06
16250.0 4.3301e-06
16270.0 4.324e-06
16290.0 4.3175e-06
16310.0 4.311e-06
16330.0 4.3048e-06
16350.0 4.2984e-06
16370.0 4.2914e-06
16390.0 4.285e-06
16410.0 4.2786e-06
16430.0 4.2717e-06
16450.0 4.2649e-06
16470.0 4.2585e-06
16490.0 4.2516e-06
16510.0 4.2445e-06
16530.0 4.2377e-06
16550.0 4.2308e-06
16570.0 4.2235e-06
16590.0 4.2162e-06
16610.0 4.2094e-06
16630.0 4.2021e-06
16650.0 4.1947e-06
16670.0 4.1875e-06
16690.0 4.1803e-06
16710.0 4.1724e-06
16730.0 4.1648e-06
16750.0 4.1575e-06
16770.0 4.1497e-06
16790.0 4.1417e-06
16810.0 4.1341e-06
16830.0 4.1264e-06
16850.0 4.1182e-06
16870.0 4.1102e-06
16890.0 4.1024e-06
16910.0 4.094e-06
16930.0 4.0855e-06
16950.0 4.0774e-06
16970.0 4.0691e-06
16990.0 4.0605e-06
17010.0 4.052e-06
17030.0 4.0437e-06
17050.0 4.0349e-06
17070.0 4.026e-06
17090.0 4.0174e-06
17110.0 4.0086e-06
17130.0 3.9992e-06
17150.0 3.9902e-06
17170.0 3.9814e-06
17190.0 3.9721e-06
17210.0 3.9627e-06
17230.0 3.9538e-06
17250.0 3.9444e-06
17270.0 3.9346e-06
17290.0 3.9251e-06
17310.0 3.9157e-06
17330.0 3.9058e-06
17350.0 3.8958e-06
17370.0 3.8864e-06
17390.0 3.8766e-06
17410.0 3.8664e-06
17430.0 3.8565e-06
17450.0 3.8467e-06
17470.0 3.8361e-06
17490.0 3.8257e-06
17510.0 3.8157e-06
17530.0 3.8054e-06
17550.0 3.7946e-06
17570.0 3.7843e-06
17590.0 3.774e-06
17610.0 3.7632e-06
17630.0 3.7524e-06
17650.0 3.7419e-06
17670.0 3.7311e-06
17690.0 3.7197e-06
17710.0 3.709e-06
17730.0 3.6982e-06
17750.0 3.6869e-06
17770.0 3.6758e-06
17790.0 3.665e-06
17810.0 3.6536e-06
17830.0 3.6421e-06
17850.0 3.6309e-06
17870.0 3.6196e-06
17890.0 3.6079e-06
17910.0 3.5962e-06
17930.0 3.5851e-06
17950.0 3.5734e-06
17970.0 3.5615e-06
17990.0 3.5501e-06
18010.0 3.5385e-06
18030.0 3.5262e-06
18050.0 3.5144e-06
18070.0 3.5027e-06
18090.0 3.4907e-06
18110.0 3.4784e-06
18130.0 3.4667e-06
18150.0 3.4548e-06
18170.0 3.4424e-06
18190.0 3.4303e-06
18210.0 3.4184e-06
18230.0 3.4059e-06
18250.0 3.3933e-06
18270.0 3.3813e-06
18290.0 3.3691e-06
18310.0 3.3564e-06
18330.0 3.3441e-06
18350.0 3.332e-06
18370.0 3.3193e-06
18390.0 3.3067e-06
18410.0 3.2943e-06
18430.0 3.2818e-06
18450.0 3.2688e-06
18470.0 3.2563e-06
18490.0 3.2439e-06
18510.0 3.2311e-06
18530.0 3.2183e-06
18550.0 3.206e-06
18570.0 3.1932e-06
18590.0 3.1801e-06
18610.0 3.1674e-06
18630.0 3.1548e-06
18650.0 3.1418e-06
18670.0 3.1287e-06
18690.0 3.1163e-06
18710.0 3.1034e-06
18730.0 3.0903e-06
18750.0 3.0776e-06
18770.0 3.0649e-06
18790.0 3.0516e-06
18810.0 3.0385e-06
18830.0 3.0259e-06
18850.0 3.0129e-06
18870.0 2.9997e-06
18890.0 2.9869e-06
18910.0 2.9742e-06
18930.0 2.9609e-06
18950.0 2.9479e-06
18970.0 2.9351e-06
18990.0 2.9221e-06
19010.0 2.9086e-06
19030.0 2.8959e-06
19050.0 2.883e-06
19070.0 2.8698e-06
19090.0 2.8568e-06
19110.0 2.8442e-06
19130.0 2.831e-06
19150.0 2.8177e-06
19170.0 2.8049e-06
19190.0 2.792e-06
19210.0 2.7787e-06
19230.0 2.7656e-06
19250.0 2.753e-06
19270.0 2.7399e-06
19290.0 2.7267e-06
19310.0 2.714e-06
19330.0 2.7012e-06
19350.0 2.6878e-06
19370.0 2.6748e-06
19390.0 2.6621e-06
19410.0 2.6491e-06
19430.0 2.6359e-06
19450.0 2.6233e-06
19470.0 2.6105e-06
19490.0 2.5974e-06
19510.0 2.5845e-06
19530.0 2.5719e-06
19550.0 2.5588e-06
19570.0 2.5457e-06
19590.0 2.5331e-06
19610.0 2.5204e-06
19630.0 2.5073e-06
19650.0 2.4946e-06
19670.0 2.4822e-06
19690.0 2.4691e-06
19710.0 2.4563e-06
19730.0 2.4438e-06
19750.0 2.4311e-06
19770.0 2.418e-06
19790.0 2.4054e-06
19810.0 2.393e-06
19830.0 2.3801e-06
19850.0 2.3672e-06
19870.0 2.3546e-06
19890.0 2.3411e-06
19910.0 2.3265e-06
19930.0 2.3111e-06
19950.0 2.2936e-06
19970.0 2.2726e-06
19990.0 2.2477e-06
20010.0 2.0234e-06
20030.0 1.9928e-06
20050.0 1.9572e-06
20070.0 1.919e-06
20090.0 1.8781e-06
20110.0 1.8321e-06
20130.0 1.7856e-06
20150.0 1.7397e-06
20170.0 1.6923e-06
20190.0 1.6443e-06
20210.0 1.599e-06
20230.0 1.5549e-06
20250.0 1.5108e-06
20270.0 1.4699e-06
20290.0 1.4324e-06
20310.0 1.3969e-06
20330.0 1.3635e-06
20350.0 1.3357e-06
20370.0 1.311e-06
20390.0 1.2891e-06
20410.0 1.2713e-06
20430.0 1.2573e-06
20450.0 1.246e-06
20470.0 1.2381e-06
20490.0 1.2335e-06
20510.0 1.2315e-06
20530.0 1.2322e-06
20550.0 1.2353e-06
20570.0 1.2401e-06
20590.0 1.247e-06
20610.0 1.2555e-06
20630.0 1.2651e-06
20650.0 1.276e-06
20670.0 1.2885e-06
20690.0 1.3014e-06
20710.0 1.3147e-06
20730.0 1.3291e-06
20750.0 1.3442e-06
20770.0 1.359e-06
20790.0 1.3746e-06
20810.0 1.391e-06
20830.0 1.4072e-06
20850.0 1.4235e-06
20870.0 1.4409e-06
20890.0 1.4585e-06
20910.0 1.4754e-06
20930.0 1.4929e-06
20950.0 1.5109e-06
20970.0 1.5285e-06
20990.0 1.5457e-06
21010.0 1.5638e-06
21030.0 1.5815e-06
21050.0 1.5983e-06
21070.0 1.615e-06
21090.0 1.6318e-06
21110.0 1.647e-06
21130.0 1.6612e-06
21150.0 1.675e-06
21170.0 1.6875e-06
21190.0 1.6981e-06
21210.0 1.7077e-06
21230.0 1.7156e-06
21250.0 1.7212e-06
21270.0 1.7246e-06
21290.0 1.7257e-06
21310.0 1.724e-06
21330.0 1.7198e-06
21350.0 1.7125e-06
21370.0 1.702e-06
21390.0 1.6887e-06
21410.0 1.6724e-06
21430.0 1.6519e-06
21450.0 1.6289e-06
21470.0 1.6038e-06
21490.0 1.5755e-06
21510.0 1.5444e-06
21530.0 1.5128e-06
21550.0 1.4797e-06
21570.0 1.4444e-06
21590.0 1.4097e-06
21610.0 1.3761e-06
21630.0 1.3425e-06
21650.0 1.3096e-06
21670.0 1.281e-06
21690.0 1.2546e-06
21710.0 1.2308e-06
21730.0 1.2111e-06
21750.0 1.1958e-06
21770.0 1.184e-06
21790.0 1.177e-06
21810.0 1.1745e-06
21830.0 1.1764e-06
21850.0 1.1829e-06
21870.0 1.1934e-06
21890.0 1.2072e-06
21910.0 1.225e-06
21930.0 1.246e-06
21950.0 1.2689e-06
21970.0 1.2942e-06
21990.0 1.3228e-06
22010.0 1.3514e-06
22030.0 1.3805e-06
22050.0 1.4112e-06
22070.0 1.442e-06
22090.0 1.4712e-06
22110.0 1.5007e-06
22130.0 1.5302e-06
22150.0 1.5578e-06
22170.0 1.5838e-06
22190.0 1.6096e-06
22210.0 1.6337e-06
22230.0 1.6548e-06
22250.0 1.6747e-06
22270.0 1.693e-06
22290.0 1.7086e-06
22310.0 1.722e-06
22330.0 1.7338e-06
22350.0 1.7428e-06
22370.0 1.7491e-06
22390.0 1.753e-06
22410.0 1.7541e-06
22430.0 1.7522e-06
22450.0 1.7475e-06
22470.0 1.7395e-06
22490.0 1.7285e-06
22510.0 1.7148e-06
22530.0 1.6973e-06
22550.0 1.6761e-06
22570.0 1.6526e-06
22590.0 1.6262e-06
22610.0 1.5958e-06
22630.0 1.563e-06
