#lamb flux
1010.0 8.417e-06
1030.0 8.9611e-06
1050.0 9.5896e-06
1070.0 1.0298e-05
1090.0 1.1103e-05
1110.0 1.1931e-05
1130.0 1.2766e-05
1150.0 1.3643e-05
1170.0 1.4551e-05
1190.0 1.5415e-05
1210.0 1.6295e-05
1230.0 1.7206e-05
1250.0 1.8104e-05
1270.0 1.8981e-05
1290.0 1.991e-05
1310.0 2.0843e-05
1330.0 2.1745e-05
1350.0 2.2661e-05
1370.0 2.3611e-05
1390.0 2.4544e-05
1410.0 2.5457e-05
1430.0 2.6414e-05
1450.0 2.7378e-05
1470.0 2.8317e-05
1490.0 2.9271e-05
1510.0 3.0281e-05
1530.0 3.1246e-05
1550.0 3.2204e-05
1570.0 3.3197e-05
1590.0 3.4194e-05
1610.0 3.5152e-05
1630.0 3.6138e-05
1650.0 3.715e-05
1670.0 3.8129e-05
1690.0 3.9095e-05
1710.0 4.0092e-05
1730.0 4.1089e-05
1750.0 4.2023e-05
1770.0 4.2974e-05
1790.0 4.3935e-05
1810.0 4.4853e-05
1830.0 4.5743e-05
1850.0 4.6672e-05
1870.0 4.7561e-05
1890.0 4.8401e-05
1910.0 4.924e-05
1930.0 5.0081e-05
1950.0 5.0858e-05
1970.0 5.1603e-05
1990.0 5.236e-05
2010.0 5.3079e-05
2030.0 5.3744e-05
2050.0 5.4413e-05
2070.0 5.5084e-05
2090.0 5.5683e-05
2110.0 5.6261e-05
2130.0 5.6846e-05
2150.0 5.74e-05
2170.0 5.7903e-05
2190.0 5.8425e-05
2210.0 5.8942e-05
2230.0 5.9419e-05
2250.0 5.9888e-05
2270.0 6.0392e-05
2290.0 6.087e-05
2310.0 6.1319e-05
2330.0 6.1799e-05
2350.0 6.2295e-05
2370.0 6.277e-05
2390.0 6.3267e-05
2410.0 6.3817e-05
2430.0 6.4363e-05
2450.0 6.4917e-05
2470.0 6.553e-05
2490.0 6.6226e-05
2510.0 6.702e-05
2530.0 6.8138e-05
2550.0 6.9953e-05
2570.0 7.2878e-05
2590.0 7.7409e-05
2610.0 8.4789e-05
2630.0 9.5419e-05
2650.0 0.00010884
2670.0 0.00012528
2690.0 0.00014425
2710.0 0.00016336
2730.0 0.00018139
2750.0 0.00019865
2770.0 0.00021372
2790.0 0.00022635
2810.0 0.00023763
2830.0 0.00024844
2850.0 0.00025829
2870.0 0.00026809
2890.0 0.00027848
2910.0 0.00028925
2930.0 0.00030008
2950.0 0.00031168
2970.0 0.00032397
2990.0 0.00033636
3010.0 0.0011902
3030.0 0.0012356
3050.0 0.0012809
3070.0 0.0013217
3090.0 0.0013562
3110.0 0.001375
3130.0 0.0013669
3150.0 0.0013197
3170.0 0.001209
3190.0 0.0010327
3210.0 0.00079419
3230.0 0.00052652
3250.0 0.00080718
3270.0 0.00050479
3290.0 0.001162
3310.0 0.00045805
3330.0 0.00045345
3350.0 0.00054307
3370.0 0.00065027
3390.0 0.00076748
3410.0 0.00088493
3430.0 0.0010087
3450.0 0.0011336
3470.0 0.0012489
3490.0 0.0013296
3510.0 0.0015966
3530.0 0.0020675
3550.0 0.002014
3570.0 0.0016607
3590.0 0.002248
3610.0 0.0014549
3630.0 0.0023692
3650.0 0.0027597
3670.0 0.0035091
3690.0 0.0032581
3710.0 0.0021817
3730.0 0.0028157
3750.0 0.0028832
3770.0 0.0030944
3790.0 0.0030027
3810.0 0.0030911
3830.0 0.0048583
3850.0 0.0059635
3870.0 0.007354
3890.0 0.0071468
3910.0 0.0063875
3930.0 0.0064698
3950.0 0.0069885
3970.0 0.0077056
3990.0 0.0049408
4010.0 0.0026745
4030.0 0.004756
4050.0 0.0062909
4070.0 0.00673
4090.0 0.0047074
4110.0 0.0029796
4130.0 0.0049005
4150.0 0.0050031
4170.0 0.004657
4190.0 0.0042258
4210.0 0.0059812
4230.0 0.0044065
4250.0 0.0047742
4270.0 0.004743
4290.0 0.0044936
4310.0 0.0057605
4330.0 0.0062246
4350.0 0.0051862
4370.0 0.0043782
4390.0 0.005336
4410.0 0.0054649
4430.0 0.0040182
4450.0 0.0036459
4470.0 0.0045058
4490.0 0.0034473
4510.0 0.0048119
4530.0 0.005001
4550.0 0.0059349
4570.0 0.0083669
4590.0 0.0082744
4610.0 0.0065606
4630.0 0.01047
4650.0 0.013953
4670.0 0.013306
4690.0 0.0094094
4710.0 0.009978
4730.0 0.011302
4750.0 0.0093108
4770.0 0.007118
4790.0 0.004804
4810.0 0.0065572
4830.0 0.0077227
4850.0 0.0067881
4870.0 0.0028536
4890.0 0.0077029
4910.0 0.010099
4930.0 0.010976
4950.0 0.01131
4970.0 0.0079445
4990.0 0.0092453
5010.0 0.010738
5030.0 0.01151
5050.0 0.010745
5070.0 0.0075985
5090.0 0.0061649
5110.0 0.0059598
5130.0 0.0056626
5150.0 0.0058983
5170.0 0.0052632
5190.0 0.006275
5210.0 0.0063678
5230.0 0.0070451
5250.0 0.0083552
5270.0 0.0069189
5290.0 0.0071864
5310.0 0.01055
5330.0 0.012112
5350.0 0.010153
5370.0 0.0091167
5390.0 0.010564
5410.0 0.01259
5430.0 0.013395
5450.0 0.014071
5470.0 0.014147
5490.0 0.014549
5510.0 0.017392
5530.0 0.01804
5550.0 0.019022
5570.0 0.019945
5590.0 0.019575
5610.0 0.018301
5630.0 0.017841
5650.0 0.018425
5670.0 0.017976
5690.0 0.015367
5710.0 0.015179
5730.0 0.015179
5750.0 0.01576
5770.0 0.013553
5790.0 0.012909
5810.0 0.013205
5830.0 0.014229
5850.0 0.013227
5870.0 0.01327
5890.0 0.01545
5910.0 0.014391
5930.0 0.011865
5950.0 0.010701
5970.0 0.011643
5990.0 0.010555
6010.0 0.0096402
6030.0 0.0094537
6050.0 0.0086585
6070.0 0.006709
6090.0 0.0063804
6110.0 0.0081854
6130.0 0.0091856
6150.0 0.0094878
6170.0 0.0092272
6190.0 0.0088006
6210.0 0.0091761
6230.0 0.011135
6250.0 0.010289
6270.0 0.0092511
6290.0 0.0084093
6310.0 0.0076168
6330.0 0.0070657
6350.0 0.0063151
6370.0 0.0064007
6390.0 0.0074479
6410.0 0.0092478
6430.0 0.010931
6450.0 0.010973
6470.0 0.011096
6490.0 0.013551
6510.0 0.015558
6530.0 0.014784
6550.0 0.014027
6570.0 0.01423
6590.0 0.014025
6610.0 0.014844
6630.0 0.013843
6650.0 0.012027
6670.0 0.011095
6690.0 0.010999
6710.0 0.013019
6730.0 0.011592
6750.0 0.0095345
6770.0 0.0086069
6790.0 0.0091441
6810.0 0.010501
6830.0 0.010452
6850.0 0.0093741
6870.0 0.0097091
6890.0 0.0096493
6910.0 0.0090684
6930.0 0.010068
6950.0 0.0093657
6970.0 0.0087247
6990.0 0.0086974
7010.0 0.0087612
7030.0 0.0085101
7050.0 0.0081486
7070.0 0.0087398
7090.0 0.0081402
7110.0 0.0069019
7130.0 0.0059283
7150.0 0.0058217
7170.0 0.0073505
7190.0 0.0077929
7210.0 0.0073891
7230.0 0.007771
7250.0 0.0075477
7270.0 0.0073625
7290.0 0.0079757
7310.0 0.0087429
7330.0 0.0085183
7350.0 0.007903
7370.0 0.0073108
7390.0 0.0073327
7410.0 0.0084251
7430.0 0.0094863
7450.0 0.0101
7470.0 0.010245
7490.0 0.011396
7510.0 0.011268
7530.0 0.010214
7550.0 0.0096806
7570.0 0.0083756
7590.0 0.0079832
7610.0 0.0077198
7630.0 0.0071194
7650.0 0.0076569
7670.0 0.0084923
7690.0 0.0092558
7710.0 0.010573
7730.0 0.011102
7750.0 0.011548
7770.0 0.012017
7790.0 0.013049
7810.0 0.01316
7830.0 0.011823
7850.0 0.011884
7870.0 0.011455
7890.0 0.011741
7910.0 0.01107
7930.0 0.011001
7950.0 0.0092476
7970.0 0.0092873
7990.0 0.0089846
8010.0 0.0097711
8030.0 0.0097391
8050.0 0.010355
8070.0 0.0099428
8090.0 0.009992
8110.0 0.009845
8130.0 0.00974
8150.0 0.0091518
8170.0 0.008984
8190.0 0.0089658
8210.0 0.0090582
8230.0 0.0079276
8250.0 0.007252
8270.0 0.0064126
8290.0 0.0054551
8310.0 0.0048079
8330.0 0.0038103
8350.0 0.0030865
8370.0 0.0029815
8390.0 0.0028919
8410.0 0.003028
8430.0 0.0038967
8450.0 0.0042458
8470.0 0.0045718
8490.0 0.0053526
8510.0 0.0058275
8530.0 0.0066296
8550.0 0.0078457
8570.0 0.0086219
8590.0 0.0090718
8610.0 0.01008
8630.0 0.011472
8650.0 0.011774
8670.0 0.012024
8690.0 0.012482
8710.0 0.012245
8730.0 0.011863
8750.0 0.010935
8770.0 0.010943
8790.0 0.010791
8810.0 0.0099277
8830.0 0.0099432
8850.0 0.0091096
8870.0 0.008689
8890.0 0.0077871
8910.0 0.0086833
8930.0 0.0078569
8950.0 0.0078798
8970.0 0.0080491
8990.0 0.0078194
9010.0 0.0080321
9030.0 0.0076247
9050.0 0.0075877
9070.0 0.007591
9090.0 0.0075928
9110.0 0.0075997
9130.0 0.0075992
9150.0 0.007595
9170.0 0.00757
9190.0 0.0075146
9210.0 0.0076334
9230.0 0.0075998
9250.0 0.0075804
9270.0 0.007564
9290.0 0.0075494
9310.0 0.0075358
9330.0 0.0075226
9350.0 0.0075094
9370.0 0.0074958
9390.0 0.0074814
9410.0 0.0074666
9430.0 0.0074514
9450.0 0.0074353
9470.0 0.0074188
9490.0 0.0074019
9510.0 0.0073845
9530.0 0.0073666
9550.0 0.0073486
9570.0 0.0073304
9590.0 0.0073117
9610.0 0.0072929
9630.0 0.0072741
9650.0 0.0072552
9670.0 0.0072358
9690.0 0.0072167
9710.0 0.0071978
9730.0 0.0071785
9750.0 0.0071594
9770.0 0.007141
9790.0 0.0071222
9810.0 0.0071034
9830.0 0.0070852
9850.0 0.0070673
9870.0 0.0070491
9890.0 0.0070315
9910.0 0.0070145
9930.0 0.0069974
9950.0 0.0069696
9970.0 0.0069569
9990.0 0.0069441
10010.0 0.0069306
10030.0 0.0069168
10050.0 0.0069006
10070.0 0.0068712
10090.0 0.006863
10110.0 0.0068547
10130.0 0.0068453
10150.0 0.0068354
10170.0 0.0068249
10190.0 0.0068139
10210.0 0.0068036
10230.0 0.0067937
10250.0 0.0067838
10270.0 0.0067744
10290.0 0.006766
10310.0 0.0067576
10330.0 0.0067493
10350.0 0.0067422
10370.0 0.0067355
10390.0 0.0067289
10410.0 0.006723
10430.0 0.0067179
10450.0 0.006713
10470.0 0.0067083
10490.0 0.0067045
10510.0 0.0067012
10530.0 0.0066977
10550.0 0.006695
10570.0 0.0066931
10590.0 0.0066913
10610.0 0.0066898
10630.0 0.0066891
10650.0 0.0066887
10670.0 0.0066884
10690.0 0.0066887
10710.0 0.0066895
10730.0 0.0066905
10750.0 0.0066917
10770.0 0.0066936
10790.0 0.0066958
10810.0 0.0066981
10830.0 0.0067006
10850.0 0.006703
10870.0 0.006704
10890.0 0.0067025
10910.0 0.0066969
10930.0 0.0066834
10950.0 0.0066567
10970.0 0.0066137
10990.0 0.0065531
11010.0 0.0066666
11030.0 0.0065503
11050.0 0.0064137
11070.0 0.0062555
11090.0 0.006072
11110.0 0.005889
11130.0 0.005706
11150.0 0.0055185
11170.0 0.0053363
11190.0 0.0051705
11210.0 0.0050105
11230.0 0.0048583
11250.0 0.0047236
11270.0 0.0046033
11290.0 0.0044909
11310.0 0.0043907
11330.0 0.0043063
11350.0 0.0042284
11370.0 0.0041558
11390.0 0.0040906
11410.0 0.0040292
11430.0 0.0039654
11450.0 0.0039022
11470.0 0.0038392
11490.0 0.0037719
11510.0 0.0036988
11530.0 0.0036251
11550.0 0.0035488
11570.0 0.003466
11590.0 0.0033812
11610.0 0.0032975
11630.0 0.0032092
11650.0 0.0031181
11670.0 0.0030315
11690.0 0.002946
11710.0 0.0028591
11730.0 0.0027753
11750.0 0.0026976
11770.0 0.0026195
11790.0 0.0025436
11810.0 0.0024735
11830.0 0.0024066
11850.0 0.0023391
11870.0 0.0022768
11890.0 0.0022192
11910.0 0.002162
11930.0 0.0021062
11950.0 0.0020545
11970.0 0.0020037
11990.0 0.0019521
12010.0 0.0019032
12030.0 0.0018566
12050.0 0.0018099
12070.0 0.0017637
12090.0 0.0017224
12110.0 0.0016827
12130.0 0.0016445
12150.0 0.0016108
12170.0 0.001582
12190.0 0.001556
12210.0 0.0015359
12230.0 0.0015227
12250.0 0.0015157
12270.0 0.0015158
12290.0 0.0015234
12310.0 0.0015378
12330.0 0.00156
12350.0 0.0015893
12370.0 0.0016236
12390.0 0.0016633
12410.0 0.0017095
12430.0 0.0017563
12450.0 0.0018041
12470.0 0.0018536
12490.0 0.001902
12510.0 0.0019466
12530.0 0.0019895
12550.0 0.0020295
12570.0 0.0020643
12590.0 0.0020943
12610.0 0.0021208
12630.0 0.0021423
12650.0 0.0021586
12670.0 0.0021712
12690.0 0.0021798
12710.0 0.0021847
12730.0 0.0021865
12750.0 0.002185
12770.0 0.0021808
12790.0 0.0021744
12810.0 0.0021654
12830.0 0.0021537
12850.0 0.0021404
12870.0 0.002125
12890.0 0.0021064
12910.0 0.0020856
12930.0 0.0020632
12950.0 0.0020371
12970.0 0.0020074
12990.0 0.0019768
13010.0 0.0019437
13030.0 0.001907
13050.0 0.001869
13070.0 0.0018312
13090.0 0.0017909
13110.0 0.0017499
13130.0 0.0017109
13150.0 0.0016731
13170.0 0.0016352
13190.0 0.0016016
13210.0 0.0015723
13230.0 0.0015457
13250.0 0.0015233
13270.0 0.0015063
13290.0 0.0014934
13310.0 0.0014843
13330.0 0.0014796
13350.0 0.0014784
13370.0 0.0014797
13390.0 0.0014829
13410.0 0.001487
13430.0 0.0014912
13450.0 0.0014946
13470.0 0.0014965
13490.0 0.0014964
13510.0 0.0014937
13530.0 0.0014883
13550.0 0.0014806
13570.0 0.0014705
13590.0 0.001458
13610.0 0.0014444
13630.0 0.0014303
13650.0 0.001415
13670.0 0.0013998
13690.0 0.0013856
13710.0 0.0013719
13730.0 0.0013584
13750.0 0.0013468
13770.0 0.0013363
13790.0 0.0013262
13810.0 0.0013168
13830.0 0.0013081
13850.0 0.0012993
13870.0 0.0012902
13890.0 0.001281
13910.0 0.0012714
13930.0 0.0012608
13950.0 0.0012497
13970.0 0.0012386
13990.0 0.0012269
14010.0 0.0012149
14030.0 0.0012034
14050.0 0.0011924
14070.0 0.0011815
14090.0 0.0011718
14110.0 0.0011633
14130.0 0.0011558
14150.0 0.0011495
14170.0 0.0011447
14190.0 0.001141
14210.0 0.0011385
14230.0 0.0011372
14250.0 0.0011371
14270.0 0.0011382
14290.0 0.0011406
14310.0 0.001144
14330.0 0.0011484
14350.0 0.0011542
14370.0 0.0011607
14390.0 0.0011677
14410.0 0.0011757
14430.0 0.0011843
14450.0 0.0011927
14470.0 0.0012013
14490.0 0.0012103
14510.0 0.0012189
14530.0 0.001227
14550.0 0.0012355
14570.0 0.0012441
14590.0 0.0012526
14610.0 0.0012619
14630.0 0.0012726
14650.0 0.0012842
14670.0 0.0012969
14690.0 0.0013119
14710.0 0.0013293
14730.0 0.0013475
14750.0 0.0013683
14770.0 0.0013917
14790.0 0.0014164
14810.0 0.0014418
14830.0 0.0014704
14850.0 0.0014993
14870.0 0.001527
14890.0 0.0015548
14910.0 0.001582
14930.0 0.0016058
14950.0 0.0016261
14970.0 0.0016435
14990.0 0.001656
15010.0 0.0016635
15030.0 0.0016669
15050.0 0.0016666
15070.0 0.001663
15090.0 0.0016573
15110.0 0.0016501
15130.0 0.0016421
15150.0 0.0016338
15170.0 0.0016251
15190.0 0.0016163
15210.0 0.0016075
15230.0 0.0015988
15250.0 0.00159
15270.0 0.0015811
15290.0 0.0015725
15310.0 0.0015638
15330.0 0.0015551
15350.0 0.0015465
15370.0 0.0015379
15390.0 0.0015292
15410.0 0.0015206
15430.0 0.0015121
15450.0 0.0015036
15470.0 0.001495
15490.0 0.0014866
15510.0 0.0014783
15530.0 0.0014698
15550.0 0.0014615
15570.0 0.0014533
15590.0 0.001445
15610.0 0.0014366
15630.0 0.0014285
15650.0 0.0014204
15670.0 0.0014122
15690.0 0.0014041
15710.0 0.0013962
15730.0 0.0013882
15750.0 0.0013802
15770.0 0.0013723
15790.0 0.0013645
15810.0 0.0013565
15830.0 0.0013488
15850.0 0.0013411
15870.0 0.0013334
15890.0 0.0013258
15910.0 0.0013183
15930.0 0.0013107
15950.0 0.0013031
15970.0 0.0012957
15990.0 0.0012884
16010.0 0.001281
16030.0 0.0012736
16050.0 0.0012664
16070.0 0.0012592
16090.0 0.001252
16110.0 0.0012449
16130.0 0.0012379
16150.0 0.0012308
16170.0 0.0012238
16190.0 0.0012169
16210.0 0.00121
16230.0 0.0012031
16250.0 0.0011963
16270.0 0.0011897
16290.0 0.0011829
16310.0 0.0011762
16330.0 0.0011697
16350.0 0.0011631
16370.0 0.0011565
16390.0 0.0011501
16410.0 0.0011437
16430.0 0.0011373
16450.0 0.0011309
16470.0 0.0011247
16490.0 0.0011184
16510.0 0.0011121
16530.0 0.001106
16550.0 0.0010999
16570.0 0.0010938
16590.0 0.0010877
16610.0 0.0010818
16630.0 0.0010758
16650.0 0.0010698
16670.0 0.001064
16690.0 0.0010583
16710.0 0.0010523
16730.0 0.0010466
16750.0 0.0010409
16770.0 0.0010352
16790.0 0.0010295
16810.0 0.001024
16830.0 0.0010184
16850.0 0.0010128
16870.0 0.0010074
16890.0 0.001002
16910.0 0.0009965
16930.0 0.00099102
16950.0 0.00098574
16970.0 0.00098045
16990.0 0.00097509
17010.0 0.00096986
17030.0 0.00096474
17050.0 0.0009595
17070.0 0.0009543
17090.0 0.00094924
17110.0 0.00094418
17130.0 0.000939
17150.0 0.00093399
17170.0 0.00092907
17190.0 0.00092408
17210.0 0.0009191
17230.0 0.00091429
17250.0 0.00090942
17270.0 0.00090448
17290.0 0.00089968
17310.0 0.00089495
17330.0 0.00089013
17350.0 0.00088532
17370.0 0.00088072
17390.0 0.00087605
17410.0 0.00087134
17430.0 0.00086674
17450.0 0.00086223
17470.0 0.00085753
17490.0 0.00085294
17510.0 0.00084849
17530.0 0.00084399
17550.0 0.00083944
17570.0 0.00083503
17590.0 0.00083068
17610.0 0.00082621
17630.0 0.00082181
17650.0 0.00081752
17670.0 0.00081318
17690.0 0.00080873
17710.0 0.00080451
17730.0 0.00080029
17750.0 0.00079599
17770.0 0.00079175
17790.0 0.00078766
17810.0 0.00078343
17830.0 0.0007792
17850.0 0.00077511
17870.0 0.00077103
17890.0 0.00076684
17910.0 0.00076273
17930.0 0.00075877
17950.0 0.00075472
17970.0 0.00075065
17990.0 0.00074671
18010.0 0.00074278
18030.0 0.0007387
18050.0 0.00073476
18070.0 0.0007309
18090.0 0.00072696
18110.0 0.00072301
18130.0 0.00071922
18150.0 0.00071541
18170.0 0.00071151
18190.0 0.0007077
18210.0 0.00070398
18230.0 0.00070014
18250.0 0.00069629
18270.0 0.00069262
18290.0 0.00068892
18310.0 0.00068515
18330.0 0.00068147
18350.0 0.00067788
18370.0 0.00067417
18390.0 0.00067048
18410.0 0.00066691
18430.0 0.00066332
18450.0 0.00065961
18470.0 0.00065605
18490.0 0.00065256
18510.0 0.00064898
18530.0 0.00064542
18550.0 0.00064199
18570.0 0.00063849
18590.0 0.00063491
18610.0 0.00063147
18630.0 0.00062806
18650.0 0.00062457
18670.0 0.00062109
18690.0 0.00061778
18710.0 0.00061439
18730.0 0.00061095
18750.0 0.00060762
18770.0 0.00060435
18790.0 0.0006009
18810.0 0.00059754
18830.0 0.00059431
18850.0 0.00059101
18870.0 0.00058766
18890.0 0.00058445
18910.0 0.00058126
18930.0 0.00057796
18950.0 0.00057472
18970.0 0.00057158
18990.0 0.00056837
19010.0 0.00056505
19030.0 0.00056195
19050.0 0.00055884
19070.0 0.00055565
19090.0 0.00055251
19110.0 0.00054949
19130.0 0.00054634
19150.0 0.00054318
19170.0 0.00054015
19190.0 0.00053711
19210.0 0.00053398
19230.0 0.00053091
19250.0 0.00052798
19270.0 0.00052494
19290.0 0.00052189
19310.0 0.00051896
19330.0 0.00051602
19350.0 0.00051293
19370.0 0.00050998
19390.0 0.0005071
19410.0 0.00050413
19430.0 0.00050115
19450.0 0.00049832
19470.0 0.00049544
19490.0 0.00049249
19510.0 0.00048963
19530.0 0.00048683
19550.0 0.00048391
19570.0 0.00048099
19590.0 0.00047823
19610.0 0.00047543
19630.0 0.00047255
19650.0 0.00046978
19670.0 0.00046707
19690.0 0.00046422
19710.0 0.00046142
19730.0 0.00045871
19750.0 0.00045597
19770.0 0.00045312
19790.0 0.00045042
19810.0 0.00044776
19830.0 0.000445
19850.0 0.00044223
19870.0 0.00043953
19890.0 0.00043664
19910.0 0.00043347
19930.0 0.0004301
19950.0 0.0004263
19970.0 0.00042167
19990.0 0.0004162
20010.0 0.00041014
20030.0 0.00040298
20050.0 0.00039486
20070.0 0.00038639
20090.0 0.00037765
20110.0 0.0003682
20130.0 0.00035913
20150.0 0.0003506
20170.0 0.00034222
20190.0 0.00033417
20210.0 0.00032697
20230.0 0.00032031
20250.0 0.00031398
20270.0 0.00030844
20290.0 0.00030367
20310.0 0.00029943
20330.0 0.00029577
20350.0 0.00029307
20370.0 0.000291
20390.0 0.0002896
20410.0 0.00028898
20430.0 0.00028907
20450.0 0.0002899
20470.0 0.00029151
20490.0 0.00029378
20510.0 0.00029674
20530.0 0.00030051
20550.0 0.00030484
20570.0 0.00030954
20590.0 0.00031492
20610.0 0.00032072
20630.0 0.00032661
20650.0 0.00033275
20670.0 0.00033928
20690.0 0.00034549
20710.0 0.00035145
20730.0 0.00035736
20750.0 0.00036295
20770.0 0.0003679
20790.0 0.00037253
20810.0 0.00037683
20830.0 0.00038055
20850.0 0.0003838
20870.0 0.00038681
20890.0 0.00038945
20910.0 0.00039169
20930.0 0.00039375
20950.0 0.00039567
20970.0 0.00039736
20990.0 0.00039888
21010.0 0.00040031
21030.0 0.00040155
21050.0 0.00040256
21070.0 0.00040336
21090.0 0.0004039
21110.0 0.00040413
21130.0 0.00040406
21150.0 0.00040366
21170.0 0.00040294
21190.0 0.00040196
21210.0 0.00040067
21230.0 0.00039908
21250.0 0.00039735
21270.0 0.00039547
21290.0 0.00039341
21310.0 0.0003913
21330.0 0.00038927
21350.0 0.00038719
21370.0 0.00038515
21390.0 0.00038327
21410.0 0.00038154
21430.0 0.00037986
21450.0 0.00037844
21470.0 0.00037725
21490.0 0.00037624
21510.0 0.00037545
21530.0 0.00037492
21550.0 0.00037461
21570.0 0.00037454
21590.0 0.00037472
21610.0 0.00037514
21630.0 0.00037582
21650.0 0.00037681
21670.0 0.00037799
21690.0 0.00037945
21710.0 0.00038124
21730.0 0.00038327
21750.0 0.00038551
21770.0 0.00038818
21790.0 0.00039114
21810.0 0.00039429
21830.0 0.00039774
21850.0 0.0004016
21870.0 0.00040563
21890.0 0.00040976
21910.0 0.00041429
21930.0 0.00041901
21950.0 0.00042374
21970.0 0.00042865
21990.0 0.00043388
22010.0 0.00043891
22030.0 0.00044384
22050.0 0.00044886
22070.0 0.00045375
22090.0 0.00045823
22110.0 0.00046257
22130.0 0.00046669
22150.0 0.0004703
22170.0 0.00047343
22190.0 0.00047617
22210.0 0.00047831
22230.0 0.00047975
22250.0 0.00048058
22270.0 0.0004807
22290.0 0.00048011
22310.0 0.00047883
22330.0 0.0004767
22350.0 0.00047383
22370.0 0.00047033
22390.0 0.00046604
22410.0 0.00046089
22430.0 0.00045535
22450.0 0.00044929
22470.0 0.00044247
22490.0 0.00043525
22510.0 0.00042791
22530.0 0.00041994
22550.0 0.00041157
22570.0 0.00040339
22590.0 0.00039512
22610.0 0.00038653
22630.0 0.0003781
22650.0 0.00037012
22670.0 0.00036199
22690.0 0.00035397
22710.0 0.00034648
22730.0 0.00033928
22750.0 0.00033199
22770.0 0.00032534
22790.0 0.00031922
22810.0 0.0003133
22830.0 0.00030774
22850.0 0.00030281
22870.0 0.00029825
22890.0 0.00029396
22910.0 0.00029025
22930.0 0.00028708
22950.0 0.00028429
22970.0 0.00028195
22990.0 0.00028026
23010.0 0.00027902
23030.0 0.00027827
23050.0 0.00027804
23070.0 0.00027829
23090.0 0.00027905
23110.0 0.00028028
23130.0 0.00028189
23150.0 0.00028389
23170.0 0.00028631
23190.0 0.00028894
23210.0 0.00029172
23230.0 0.00029478
23250.0 0.00029793
23270.0 0.000301
23290.0 0.00030412
23310.0 0.00030729
23330.0 0.00031017
23350.0 0.00031285
23370.0 0.0003154
23390.0 0.00031767
23410.0 0.00031957
23430.0 0.00032122
23450.0 0.00032257
23470.0 0.00032354
