#lamb flux
1010.0 3.2275e-10
1030.0 4.068e-10
1050.0 5.0409e-10
1070.0 6.1442e-10
1090.0 7.4073e-10
1110.0 8.7173e-10
1130.0 1.0052e-09
1150.0 1.1465e-09
1170.0 1.2939e-09
1190.0 1.4356e-09
1210.0 1.5806e-09
1230.0 1.7313e-09
1250.0 1.8799e-09
1270.0 2.0245e-09
1290.0 2.1765e-09
1310.0 2.3273e-09
1330.0 2.4704e-09
1350.0 2.6127e-09
1370.0 2.7567e-09
1390.0 2.8938e-09
1410.0 3.0231e-09
1430.0 3.155e-09
1450.0 3.2833e-09
1470.0 3.4034e-09
1490.0 3.522e-09
1510.0 3.6458e-09
1530.0 3.7598e-09
1550.0 3.8705e-09
1570.0 3.9849e-09
1590.0 4.0989e-09
1610.0 4.2067e-09
1630.0 4.3189e-09
1650.0 4.4351e-09
1670.0 4.5478e-09
1690.0 4.6598e-09
1710.0 4.7779e-09
1730.0 4.898e-09
1750.0 5.0115e-09
1770.0 5.1299e-09
1790.0 5.2523e-09
1810.0 5.3718e-09
1830.0 5.4903e-09
1850.0 5.6219e-09
1870.0 5.7546e-09
1890.0 5.8829e-09
1910.0 6.0139e-09
1930.0 6.1481e-09
1950.0 6.2761e-09
1970.0 6.4028e-09
1990.0 6.5348e-09
2010.0 6.6652e-09
2030.0 6.7916e-09
2050.0 6.9225e-09
2070.0 7.0565e-09
2090.0 7.1834e-09
2110.0 7.3105e-09
2130.0 7.4418e-09
2150.0 7.5714e-09
2170.0 7.6961e-09
2190.0 7.826e-09
2210.0 7.9605e-09
2230.0 8.0945e-09
2250.0 8.2292e-09
2270.0 8.3706e-09
2290.0 8.5093e-09
2310.0 8.644e-09
2330.0 8.7837e-09
2350.0 8.9253e-09
2370.0 9.0625e-09
2390.0 9.2016e-09
2410.0 9.3474e-09
2430.0 9.4914e-09
2450.0 9.6376e-09
2470.0 9.7989e-09
2490.0 9.9853e-09
2510.0 1.0199e-08
2530.0 1.0475e-08
2550.0 1.0854e-08
2570.0 1.1363e-08
2590.0 1.2036e-08
2610.0 1.2997e-08
2630.0 1.4272e-08
2650.0 1.5833e-08
2670.0 1.7761e-08
2690.0 2.0099e-08
2710.0 2.2663e-08
2730.0 2.5363e-08
2750.0 2.8285e-08
2770.0 3.1187e-08
2790.0 3.3884e-08
2810.0 3.6416e-08
2830.0 3.8785e-08
2850.0 4.077e-08
2870.0 4.2522e-08
2890.0 4.4151e-08
2910.0 4.5668e-08
2930.0 4.7104e-08
2950.0 4.8577e-08
2970.0 5.0107e-08
2990.0 5.1668e-08
3010.0 5.3292e-08
3030.0 5.5028e-08
3050.0 5.6845e-08
3070.0 5.8694e-08
3090.0 6.0653e-08
3110.0 6.274e-08
3130.0 6.4979e-08
3150.0 6.7504e-08
3170.0 7.074e-08
3190.0 7.496e-08
3210.0 8.0495e-08
3230.0 8.7883e-08
3250.0 9.7327e-08
3270.0 1.0639e-07
3290.0 1.2065e-07
3310.0 1.4958e-07
3330.0 1.5923e-07
3350.0 1.64e-07
3370.0 1.6859e-07
3390.0 1.7325e-07
3410.0 1.7796e-07
3430.0 1.8269e-07
3450.0 1.8742e-07
3470.0 1.9207e-07
3490.0 1.9654e-07
3510.0 2.0052e-07
3530.0 1.9866e-07
3550.0 1.9319e-07
3570.0 1.9614e-07
3590.0 2.088e-07
3610.0 2.2767e-07
3630.0 2.3552e-07
3650.0 2.2634e-07
3670.0 2.0774e-07
3690.0 1.9676e-07
3710.0 1.9906e-07
3730.0 2.0561e-07
3750.0 2.0915e-07
3770.0 2.162e-07
3790.0 2.2406e-07
3810.0 2.2102e-07
3830.0 2.0596e-07
3850.0 1.9239e-07
3870.0 1.8593e-07
3890.0 1.8393e-07
3910.0 1.799e-07
3930.0 1.7783e-07
3950.0 1.8288e-07
3970.0 1.8879e-07
3990.0 1.9045e-07
4010.0 1.8354e-07
4030.0 1.7355e-07
4050.0 1.671e-07
4070.0 1.6165e-07
4090.0 1.5727e-07
4110.0 1.5158e-07
4130.0 1.4254e-07
4150.0 1.3342e-07
4170.0 1.28e-07
4190.0 1.1941e-07
4210.0 1.0809e-07
4230.0 9.6635e-08
4250.0 8.574e-08
4270.0 7.7575e-08
4290.0 7.1604e-08
4310.0 6.8429e-08
4330.0 6.8312e-08
4350.0 6.8746e-08
4370.0 6.9402e-08
4390.0 7.2027e-08
4410.0 7.3836e-08
4430.0 7.1343e-08
4450.0 6.4751e-08
4470.0 5.8959e-08
4490.0 5.584e-08
4510.0 5.3816e-08
4530.0 5.2799e-08
4550.0 5.1919e-08
4570.0 5.1694e-08
4590.0 5.2405e-08
4610.0 5.3957e-08
4630.0 5.4881e-08
4650.0 5.5314e-08
4670.0 5.3971e-08
4690.0 5.0732e-08
4710.0 4.752e-08
4730.0 4.5417e-08
4750.0 4.413e-08
4770.0 4.4306e-08
4790.0 4.4132e-08
4810.0 4.3187e-08
4830.0 4.3301e-08
4850.0 4.464e-08
4870.0 4.5093e-08
4890.0 4.4286e-08
4910.0 4.3234e-08
4930.0 4.0766e-08
4950.0 3.7241e-08
4970.0 3.4804e-08
4990.0 3.2804e-08
5010.0 3.2381e-08
5030.0 3.347e-08
5050.0 3.4325e-08
5070.0 3.5609e-08
5090.0 3.7761e-08
5110.0 3.8332e-08
5130.0 3.8669e-08
5150.0 3.9375e-08
5170.0 3.9719e-08
5190.0 4.0759e-08
5210.0 4.0968e-08
5230.0 4.0549e-08
5250.0 4.0867e-08
5270.0 4.1429e-08
5290.0 4.1538e-08
5310.0 4.123e-08
5330.0 4.0444e-08
5350.0 3.9907e-08
5370.0 3.9479e-08
5390.0 3.8948e-08
5410.0 3.8518e-08
5430.0 3.8496e-08
5450.0 3.9071e-08
5470.0 3.9798e-08
5490.0 4.0966e-08
5510.0 4.2202e-08
5530.0 4.2725e-08
5550.0 4.3348e-08
5570.0 4.3468e-08
5590.0 4.2605e-08
5610.0 4.2299e-08
5630.0 4.2603e-08
5650.0 4.2093e-08
5670.0 4.1163e-08
5690.0 3.9945e-08
5710.0 3.9814e-08
5730.0 4.0248e-08
5750.0 3.8539e-08
5770.0 3.6557e-08
5790.0 3.365e-08
5810.0 2.9475e-08
5830.0 3.1744e-08
5850.0 3.5083e-08
5870.0 3.5817e-08
5890.0 3.6006e-08
5910.0 3.6329e-08
5930.0 3.6242e-08
5950.0 3.5656e-08
5970.0 3.5233e-08
5990.0 3.4742e-08
6010.0 3.3679e-08
6030.0 3.2536e-08
6050.0 3.2025e-08
6070.0 3.1856e-08
6090.0 3.1389e-08
6110.0 3.0355e-08
6130.0 2.9313e-08
6150.0 2.8143e-08
6170.0 2.6977e-08
6190.0 2.573e-08
6210.0 2.4829e-08
6230.0 2.4483e-08
6250.0 2.3964e-08
6270.0 2.3463e-08
6290.0 2.3298e-08
6310.0 2.3169e-08
6330.0 2.2666e-08
6350.0 2.1927e-08
6370.0 2.1517e-08
6390.0 2.1071e-08
6410.0 2.0495e-08
6430.0 1.993e-08
6450.0 1.95e-08
6470.0 1.9091e-08
6490.0 1.8806e-08
6510.0 1.8461e-08
6530.0 1.7999e-08
6550.0 1.7602e-08
6570.0 1.7319e-08
6590.0 1.7303e-08
6610.0 1.7197e-08
6630.0 1.6626e-08
6650.0 1.6147e-08
6670.0 1.5973e-08
6690.0 1.5719e-08
6710.0 1.5337e-08
6730.0 1.5198e-08
6750.0 1.5315e-08
6770.0 1.6208e-08
6790.0 1.8058e-08
6810.0 1.7159e-08
6830.0 1.5113e-08
6850.0 1.4505e-08
6870.0 1.4283e-08
6890.0 1.4283e-08
6910.0 1.4313e-08
6930.0 1.434e-08
6950.0 1.4305e-08
6970.0 1.3941e-08
6990.0 1.3816e-08
7010.0 1.4019e-08
7030.0 1.4093e-08
7050.0 1.389e-08
7070.0 1.3727e-08
7090.0 1.3795e-08
7110.0 1.4119e-08
7130.0 1.4165e-08
7150.0 1.4222e-08
7170.0 1.4297e-08
7190.0 1.4493e-08
7210.0 1.4659e-08
7230.0 1.4835e-08
7250.0 1.503e-08
7270.0 1.5174e-08
7290.0 1.5421e-08
7310.0 1.5689e-08
7330.0 1.5564e-08
7350.0 1.5235e-08
7370.0 1.5042e-08
7390.0 1.5023e-08
7410.0 1.5059e-08
7430.0 1.525e-08
7450.0 1.5343e-08
7470.0 1.5577e-08
7490.0 1.5492e-08
7510.0 1.5311e-08
7530.0 1.55e-08
7550.0 1.5943e-08
7570.0 1.5906e-08
7590.0 1.5092e-08
7610.0 1.4989e-08
7630.0 1.5822e-08
7650.0 1.6152e-08
7670.0 1.6229e-08
7690.0 1.6959e-08
7710.0 1.7503e-08
7730.0 1.7678e-08
7750.0 1.8593e-08
7770.0 1.8132e-08
7790.0 1.7715e-08
7810.0 1.8746e-08
7830.0 1.948e-08
7850.0 1.9941e-08
7870.0 2.0355e-08
7890.0 2.0497e-08
7910.0 2.0348e-08
7930.0 2.0481e-08
7950.0 2.1412e-08
7970.0 2.1402e-08
7990.0 1.9937e-08
8010.0 1.8859e-08
8030.0 1.9261e-08
8050.0 1.9687e-08
8070.0 1.7783e-08
8090.0 1.1526e-08
8110.0 1.2066e-08
8130.0 1.7338e-08
8150.0 1.8671e-08
8170.0 1.941e-08
8190.0 1.9813e-08
8210.0 1.9584e-08
8230.0 2.1265e-08
8250.0 2.1744e-08
8270.0 2.0528e-08
8290.0 1.97e-08
8310.0 1.943e-08
8330.0 2.0536e-08
8350.0 2.1509e-08
8370.0 2.1085e-08
8390.0 2.0102e-08
8410.0 2.0087e-08
8430.0 1.8812e-08
8450.0 1.9251e-08
8470.0 2.1033e-08
8490.0 2.1097e-08
8510.0 1.9565e-08
8530.0 1.8305e-08
8550.0 1.7535e-08
8570.0 1.6543e-08
8590.0 1.7014e-08
8610.0 1.8078e-08
8630.0 1.8548e-08
8650.0 1.8871e-08
8670.0 1.8336e-08
8690.0 1.791e-08
8710.0 1.6635e-08
8730.0 1.6047e-08
8750.0 1.6726e-08
8770.0 1.6998e-08
8790.0 1.6915e-08
8810.0 1.6864e-08
8830.0 1.7239e-08
8850.0 1.8092e-08
8870.0 1.6891e-08
8890.0 1.5945e-08
8910.0 1.5707e-08
8930.0 1.4731e-08
8950.0 1.4214e-08
8970.0 1.4219e-08
8990.0 1.3608e-08
9010.0 1.2777e-08
9030.0 1.2486e-08
9050.0 1.2381e-08
9070.0 1.2287e-08
9090.0 1.2193e-08
9110.0 1.2099e-08
9130.0 1.2004e-08
9150.0 1.1908e-08
9170.0 1.1812e-08
9190.0 1.1716e-08
9210.0 1.162e-08
9230.0 1.1524e-08
9250.0 1.1428e-08
9270.0 1.1332e-08
9290.0 1.1236e-08
9310.0 1.114e-08
9330.0 1.1044e-08
9350.0 1.0949e-08
9370.0 1.0854e-08
9390.0 1.0759e-08
9410.0 1.0665e-08
9430.0 1.0571e-08
9450.0 1.0478e-08
9470.0 1.0385e-08
9490.0 1.0293e-08
9510.0 1.0202e-08
9530.0 1.0112e-08
9550.0 1.0022e-08
9570.0 9.9335e-09
9590.0 9.8454e-09
9610.0 9.7578e-09
9630.0 9.671e-09
9650.0 9.5849e-09
9670.0 9.4999e-09
9690.0 9.4157e-09
9710.0 9.3323e-09
9730.0 9.25e-09
9750.0 9.1685e-09
9770.0 9.0879e-09
9790.0 9.0083e-09
9810.0 8.9296e-09
9830.0 8.8518e-09
9850.0 8.7751e-09
9870.0 8.6995e-09
9890.0 8.6244e-09
9910.0 8.5503e-09
9930.0 8.4772e-09
9950.0 8.405e-09
9970.0 8.3337e-09
9990.0 8.2634e-09
10010.0 8.194e-09
10030.0 8.1254e-09
10050.0 8.0578e-09
10070.0 7.9911e-09
10090.0 7.9253e-09
10110.0 7.8602e-09
10130.0 7.7961e-09
10150.0 7.7328e-09
10170.0 7.6704e-09
10190.0 7.6088e-09
10210.0 7.548e-09
10230.0 7.488e-09
10250.0 7.4289e-09
10270.0 7.3704e-09
10290.0 7.3128e-09
10310.0 7.2559e-09
10330.0 7.1998e-09
10350.0 7.1444e-09
10370.0 7.0898e-09
10390.0 7.035e-09
10410.0 6.9707e-09
10430.0 6.9036e-09
10450.0 6.8639e-09
10470.0 6.8181e-09
10490.0 6.7717e-09
10510.0 6.7245e-09
10530.0 6.6755e-09
10550.0 6.6271e-09
10570.0 6.58e-09
10590.0 6.5325e-09
10610.0 6.4851e-09
10630.0 6.4393e-09
10650.0 6.394e-09
10670.0 6.3479e-09
10690.0 6.3031e-09
10710.0 6.2594e-09
10730.0 6.2154e-09
10750.0 6.1711e-09
10770.0 6.1291e-09
10790.0 6.0872e-09
10810.0 6.0448e-09
10830.0 6.0035e-09
10850.0 5.9634e-09
10870.0 5.9222e-09
10890.0 5.8813e-09
10910.0 5.8418e-09
10930.0 5.8022e-09
10950.0 5.7616e-09
10970.0 5.7216e-09
10990.0 5.6823e-09
11010.0 5.8137e-09
11030.0 5.7713e-09
11050.0 5.7294e-09
11070.0 5.6865e-09
11090.0 5.6411e-09
11110.0 5.597e-09
11130.0 5.5528e-09
11150.0 5.507e-09
11170.0 5.4607e-09
11190.0 5.4157e-09
11210.0 5.3697e-09
11230.0 5.3227e-09
11250.0 5.2772e-09
11270.0 5.2328e-09
11290.0 5.1878e-09
11310.0 5.144e-09
11330.0 5.1037e-09
11350.0 5.0641e-09
11370.0 5.0257e-09
11390.0 4.9901e-09
11410.0 4.9566e-09
11430.0 4.9231e-09
11450.0 4.8917e-09
11470.0 4.8622e-09
11490.0 4.8331e-09
11510.0 4.8038e-09
11530.0 4.7759e-09
11550.0 4.7483e-09
11570.0 4.7197e-09
11590.0 4.6909e-09
11610.0 4.6625e-09
11630.0 4.6326e-09
11650.0 4.6015e-09
11670.0 4.5709e-09
11690.0 4.5398e-09
11710.0 4.5071e-09
11730.0 4.4743e-09
11750.0 4.4423e-09
11770.0 4.4091e-09
11790.0 4.3753e-09
11810.0 4.3426e-09
11830.0 4.3102e-09
11850.0 4.2766e-09
11870.0 4.2446e-09
11890.0 4.2143e-09
11910.0 4.1841e-09
11930.0 4.1547e-09
11950.0 4.1276e-09
11970.0 4.1016e-09
11990.0 4.0761e-09
12010.0 4.0528e-09
12030.0 4.0314e-09
12050.0 4.011e-09
12070.0 3.9919e-09
12090.0 3.9752e-09
12110.0 3.9597e-09
12130.0 3.9451e-09
12150.0 3.932e-09
12170.0 3.9201e-09
12190.0 3.9083e-09
12210.0 3.8972e-09
12230.0 3.8865e-09
12250.0 3.8757e-09
12270.0 3.8641e-09
12290.0 3.8521e-09
12310.0 3.8395e-09
12330.0 3.8251e-09
12350.0 3.8092e-09
12370.0 3.7923e-09
12390.0 3.7735e-09
12410.0 3.7518e-09
12430.0 3.7294e-09
12450.0 3.7055e-09
12470.0 3.6792e-09
12490.0 3.6513e-09
12510.0 3.6233e-09
12530.0 3.5933e-09
12550.0 3.5614e-09
12570.0 3.5296e-09
12590.0 3.4976e-09
12610.0 3.4638e-09
12630.0 3.4297e-09
12650.0 3.3973e-09
12670.0 3.3642e-09
12690.0 3.3308e-09
12710.0 3.2991e-09
12730.0 3.2684e-09
12750.0 3.2369e-09
12770.0 3.2072e-09
12790.0 3.1796e-09
12810.0 3.1527e-09
12830.0 3.1265e-09
12850.0 3.1031e-09
12870.0 3.0812e-09
12890.0 3.0603e-09
12910.0 3.0413e-09
12930.0 3.0247e-09
12950.0 3.0092e-09
12970.0 2.9954e-09
12990.0 2.9842e-09
13010.0 2.9747e-09
13030.0 2.9668e-09
13050.0 2.9608e-09
13070.0 2.9564e-09
13090.0 2.9533e-09
13110.0 2.9512e-09
13130.0 2.95e-09
13150.0 2.9493e-09
13170.0 2.9486e-09
13190.0 2.9476e-09
13210.0 2.946e-09
13230.0 2.9433e-09
13250.0 2.9393e-09
13270.0 2.934e-09
13290.0 2.9271e-09
13310.0 2.9181e-09
13330.0 2.9074e-09
13350.0 2.8953e-09
13370.0 2.881e-09
13390.0 2.8646e-09
13410.0 2.8477e-09
13430.0 2.8289e-09
13450.0 2.8082e-09
13470.0 2.7867e-09
13490.0 2.7646e-09
13510.0 2.7401e-09
13530.0 2.7148e-09
13550.0 2.6898e-09
13570.0 2.6636e-09
13590.0 2.6361e-09
13610.0 2.6089e-09
13630.0 2.5821e-09
13650.0 2.5537e-09
13670.0 2.5254e-09
13690.0 2.4979e-09
13710.0 2.47e-09
13730.0 2.4408e-09
13750.0 2.4135e-09
13770.0 2.3868e-09
13790.0 2.3596e-09
13810.0 2.3331e-09
13830.0 2.3083e-09
13850.0 2.2834e-09
13870.0 2.2587e-09
13890.0 2.2357e-09
13910.0 2.2137e-09
13930.0 2.1916e-09
13950.0 2.1704e-09
13970.0 2.1512e-09
13990.0 2.1321e-09
14010.0 2.1135e-09
14030.0 2.0963e-09
14050.0 2.0799e-09
14070.0 2.0634e-09
14090.0 2.0482e-09
14110.0 2.034e-09
14130.0 2.0203e-09
14150.0 2.0069e-09
14170.0 1.9948e-09
14190.0 1.9833e-09
14210.0 1.9719e-09
14230.0 1.9611e-09
14250.0 1.9511e-09
14270.0 1.941e-09
14290.0 1.9311e-09
14310.0 1.9219e-09
14330.0 1.9129e-09
14350.0 1.9037e-09
14370.0 1.8949e-09
14390.0 1.8866e-09
14410.0 1.878e-09
14430.0 1.8696e-09
14450.0 1.8615e-09
14470.0 1.8535e-09
14490.0 1.8452e-09
14510.0 1.8372e-09
14530.0 1.8295e-09
14550.0 1.8216e-09
14570.0 1.8135e-09
14590.0 1.8058e-09
14610.0 1.7979e-09
14630.0 1.7896e-09
14650.0 1.7815e-09
14670.0 1.7734e-09
14690.0 1.765e-09
14710.0 1.7563e-09
14730.0 1.748e-09
14750.0 1.7394e-09
14770.0 1.7305e-09
14790.0 1.7216e-09
14810.0 1.7128e-09
14830.0 1.7032e-09
14850.0 1.6936e-09
14870.0 1.6843e-09
14890.0 1.6747e-09
14910.0 1.6649e-09
14930.0 1.6555e-09
14950.0 1.6467e-09
14970.0 1.6381e-09
14990.0 1.6302e-09
15010.0 1.6233e-09
15030.0 1.6171e-09
15050.0 1.6113e-09
15070.0 1.6065e-09
15090.0 1.6021e-09
15110.0 1.5978e-09
15130.0 1.5938e-09
15150.0 1.59e-09
15170.0 1.5862e-09
15190.0 1.5822e-09
15210.0 1.5785e-09
15230.0 1.5747e-09
15250.0 1.5708e-09
15270.0 1.5669e-09
15290.0 1.5632e-09
15310.0 1.5594e-09
15330.0 1.5555e-09
15350.0 1.5517e-09
15370.0 1.548e-09
15390.0 1.544e-09
15410.0 1.5402e-09
15430.0 1.5365e-09
15450.0 1.5326e-09
15470.0 1.5287e-09
15490.0 1.5249e-09
15510.0 1.5212e-09
15530.0 1.5173e-09
15550.0 1.5135e-09
15570.0 1.5097e-09
15590.0 1.5058e-09
15610.0 1.5019e-09
15630.0 1.4981e-09
15650.0 1.4943e-09
15670.0 1.4904e-09
15690.0 1.4866e-09
15710.0 1.4829e-09
15730.0 1.479e-09
15750.0 1.4751e-09
15770.0 1.4713e-09
15790.0 1.4675e-09
15810.0 1.4635e-09
15830.0 1.4597e-09
15850.0 1.4559e-09
15870.0 1.4521e-09
15890.0 1.4482e-09
15910.0 1.4444e-09
15930.0 1.4406e-09
15950.0 1.4366e-09
15970.0 1.4328e-09
15990.0 1.429e-09
16010.0 1.4251e-09
16030.0 1.4211e-09
16050.0 1.4174e-09
16070.0 1.4136e-09
16090.0 1.4097e-09
16110.0 1.4058e-09
16130.0 1.4021e-09
16150.0 1.3981e-09
16170.0 1.3942e-09
16190.0 1.3904e-09
16210.0 1.3865e-09
16230.0 1.3826e-09
16250.0 1.3788e-09
16270.0 1.375e-09
16290.0 1.3711e-09
16310.0 1.3672e-09
16330.0 1.3634e-09
16350.0 1.3595e-09
16370.0 1.3555e-09
16390.0 1.3517e-09
16410.0 1.3479e-09
16430.0 1.3439e-09
16450.0 1.34e-09
16470.0 1.3363e-09
16490.0 1.3324e-09
16510.0 1.3284e-09
16530.0 1.3246e-09
16550.0 1.3208e-09
16570.0 1.3168e-09
16590.0 1.3129e-09
16610.0 1.3091e-09
16630.0 1.3052e-09
16650.0 1.3013e-09
16670.0 1.2975e-09
16690.0 1.2937e-09
16710.0 1.2896e-09
16730.0 1.2857e-09
16750.0 1.2819e-09
16770.0 1.278e-09
16790.0 1.274e-09
16810.0 1.2703e-09
16830.0 1.2664e-09
16850.0 1.2625e-09
16870.0 1.2586e-09
16890.0 1.2548e-09
16910.0 1.2508e-09
16930.0 1.2468e-09
16950.0 1.243e-09
16970.0 1.2392e-09
16990.0 1.2352e-09
17010.0 1.2313e-09
17030.0 1.2276e-09
17050.0 1.2236e-09
17070.0 1.2197e-09
17090.0 1.2158e-09
17110.0 1.212e-09
17130.0 1.2079e-09
17150.0 1.2041e-09
17170.0 1.2003e-09
17190.0 1.1963e-09
17210.0 1.1924e-09
17230.0 1.1886e-09
17250.0 1.1848e-09
17270.0 1.1807e-09
17290.0 1.1769e-09
17310.0 1.173e-09
17330.0 1.1691e-09
17350.0 1.1651e-09
17370.0 1.1613e-09
17390.0 1.1575e-09
17410.0 1.1535e-09
17430.0 1.1497e-09
17450.0 1.1459e-09
17470.0 1.1418e-09
17490.0 1.1379e-09
17510.0 1.1341e-09
17530.0 1.1302e-09
17550.0 1.1262e-09
17570.0 1.1224e-09
17590.0 1.1186e-09
17610.0 1.1146e-09
17630.0 1.1107e-09
17650.0 1.1069e-09
17670.0 1.103e-09
17690.0 1.0989e-09
17710.0 1.0951e-09
17730.0 1.0913e-09
17750.0 1.0873e-09
17770.0 1.0834e-09
17790.0 1.0797e-09
17810.0 1.0757e-09
17830.0 1.0717e-09
17850.0 1.0679e-09
17870.0 1.0641e-09
17890.0 1.0601e-09
17910.0 1.0561e-09
17930.0 1.0524e-09
17950.0 1.0485e-09
17970.0 1.0445e-09
17990.0 1.0407e-09
18010.0 1.0369e-09
18030.0 1.0328e-09
18050.0 1.0289e-09
18070.0 1.0251e-09
18090.0 1.0212e-09
18110.0 1.0172e-09
18130.0 1.0134e-09
18150.0 1.0096e-09
18170.0 1.0056e-09
18190.0 1.0018e-09
18210.0 9.9797e-10
18230.0 9.94e-10
18250.0 9.9001e-10
18270.0 9.8622e-10
18290.0 9.8236e-10
18310.0 9.7839e-10
18330.0 9.7453e-10
18350.0 9.7076e-10
18370.0 9.668e-10
18390.0 9.6286e-10
18410.0 9.5906e-10
18430.0 9.5519e-10
18450.0 9.5117e-10
18470.0 9.4731e-10
18490.0 9.4352e-10
18510.0 9.3959e-10
18530.0 9.3568e-10
18550.0 9.3191e-10
18570.0 9.2802e-10
18590.0 9.2402e-10
18610.0 9.2017e-10
18630.0 9.1636e-10
18650.0 9.1241e-10
18670.0 9.0845e-10
18690.0 9.047e-10
18710.0 9.0083e-10
18730.0 8.9688e-10
18750.0 8.9305e-10
18770.0 8.8927e-10
18790.0 8.8524e-10
18810.0 8.8132e-10
18830.0 8.7754e-10
18850.0 8.7366e-10
18870.0 8.6969e-10
18890.0 8.6589e-10
18910.0 8.6209e-10
18930.0 8.5813e-10
18950.0 8.5424e-10
18970.0 8.5045e-10
18990.0 8.4656e-10
19010.0 8.4252e-10
19030.0 8.3874e-10
19050.0 8.3493e-10
19070.0 8.3099e-10
19090.0 8.2711e-10
19110.0 8.2337e-10
19130.0 8.1943e-10
19150.0 8.1548e-10
19170.0 8.1166e-10
19190.0 8.0784e-10
19210.0 8.0386e-10
19230.0 7.9996e-10
19250.0 7.9621e-10
19270.0 7.9232e-10
19290.0 7.8839e-10
19310.0 7.8461e-10
19330.0 7.8079e-10
19350.0 7.7677e-10
19370.0 7.7291e-10
19390.0 7.6912e-10
19410.0 7.6521e-10
19430.0 7.6127e-10
19450.0 7.575e-10
19470.0 7.5367e-10
19490.0 7.4972e-10
19510.0 7.4588e-10
19530.0 7.421e-10
19550.0 7.3815e-10
19570.0 7.3419e-10
19590.0 7.3042e-10
19610.0 7.2658e-10
19630.0 7.2263e-10
19650.0 7.1881e-10
19670.0 7.1505e-10
19690.0 7.111e-10
19710.0 7.0719e-10
19730.0 7.034e-10
19750.0 6.9955e-10
19770.0 6.9555e-10
19790.0 6.9173e-10
19810.0 6.8796e-10
19830.0 6.8405e-10
19850.0 6.8017e-10
19870.0 6.7646e-10
19890.0 6.7265e-10
19910.0 6.6882e-10
19930.0 6.6527e-10
19950.0 6.6192e-10
19970.0 6.5872e-10
19990.0 6.5587e-10
20010.0 6.5351e-10
20030.0 6.5146e-10
20050.0 6.4975e-10
20070.0 6.4841e-10
20090.0 6.4733e-10
20110.0 6.4637e-10
20130.0 6.4557e-10
20150.0 6.4485e-10
20170.0 6.4413e-10
20190.0 6.434e-10
20210.0 6.4268e-10
20230.0 6.4194e-10
20250.0 6.4112e-10
20270.0 6.4028e-10
20290.0 6.3942e-10
20310.0 6.3849e-10
20330.0 6.3746e-10
20350.0 6.3645e-10
20370.0 6.3538e-10
20390.0 6.3422e-10
20410.0 6.3304e-10
20430.0 6.3187e-10
20450.0 6.3059e-10
20470.0 6.2928e-10
20490.0 6.2801e-10
20510.0 6.2673e-10
20530.0 6.254e-10
20550.0 6.2412e-10
20570.0 6.2291e-10
20590.0 6.2167e-10
20610.0 6.2046e-10
20630.0 6.1931e-10
20650.0 6.1818e-10
20670.0 6.1701e-10
20690.0 6.159e-10
20710.0 6.148e-10
20730.0 6.1364e-10
20750.0 6.1243e-10
20770.0 6.1124e-10
20790.0 6.0995e-10
20810.0 6.0853e-10
20830.0 6.0706e-10
20850.0 6.0552e-10
20870.0 6.0379e-10
20890.0 6.0194e-10
20910.0 6.0008e-10
20930.0 5.9807e-10
20950.0 5.9592e-10
20970.0 5.9376e-10
20990.0 5.9156e-10
21010.0 5.8921e-10
21030.0 5.8684e-10
21050.0 5.8454e-10
21070.0 5.8219e-10
21090.0 5.7976e-10
21110.0 5.7746e-10
21130.0 5.7521e-10
21150.0 5.729e-10
21170.0 5.7064e-10
21190.0 5.6847e-10
21210.0 5.6624e-10
21230.0 5.6396e-10
21250.0 5.6178e-10
21270.0 5.5958e-10
21290.0 5.5729e-10
21310.0 5.5497e-10
21330.0 5.5272e-10
21350.0 5.5034e-10
21370.0 5.4786e-10
21390.0 5.4544e-10
21410.0 5.4296e-10
21430.0 5.4027e-10
21450.0 5.376e-10
21470.0 5.3496e-10
21490.0 5.3218e-10
21510.0 5.293e-10
21530.0 5.265e-10
21550.0 5.2364e-10
21570.0 5.2062e-10
21590.0 5.1766e-10
21610.0 5.1474e-10
21630.0 5.1172e-10
21650.0 5.0861e-10
21670.0 5.057e-10
21690.0 5.0275e-10
21710.0 4.9971e-10
21730.0 4.9675e-10
21750.0 4.9389e-10
21770.0 4.9087e-10
21790.0 4.8787e-10
21810.0 4.8499e-10
21830.0 4.8208e-10
21850.0 4.7907e-10
21870.0 4.7615e-10
21890.0 4.7333e-10
21910.0 4.7039e-10
21930.0 4.6746e-10
21950.0 4.6465e-10
21970.0 4.6183e-10
21990.0 4.589e-10
22010.0 4.5617e-10
22030.0 4.5352e-10
22050.0 4.5085e-10
22070.0 4.4825e-10
22090.0 4.4584e-10
22110.0 4.4346e-10
22130.0 4.4112e-10
22150.0 4.3896e-10
22170.0 4.3693e-10
22190.0 4.3491e-10
22210.0 4.3301e-10
22230.0 4.3129e-10
22250.0 4.2962e-10
22270.0 4.2799e-10
22290.0 4.2648e-10
22310.0 4.2505e-10
22330.0 4.2358e-10
22350.0 4.2218e-10
22370.0 4.2085e-10
22390.0 4.195e-10
22410.0 4.1811e-10
22430.0 4.1678e-10
22450.0 4.1546e-10
22470.0 4.1407e-10
22490.0 4.1269e-10
22510.0 4.1133e-10
22530.0 4.0991e-10
22550.0 4.0845e-10
22570.0 4.0705e-10
22590.0 4.0564e-10
22610.0 4.0419e-10
