#lamb flux
1010.0 3.2469e-07
1030.0 3.3936e-07
1050.0 3.5632e-07
1070.0 3.7545e-07
1090.0 3.9718e-07
1110.0 4.1953e-07
1130.0 4.4209e-07
1150.0 4.658e-07
1170.0 4.9033e-07
1190.0 5.1371e-07
1210.0 5.375e-07
1230.0 5.6218e-07
1250.0 5.8649e-07
1270.0 6.1025e-07
1290.0 6.3545e-07
1310.0 6.6077e-07
1330.0 6.8524e-07
1350.0 7.1014e-07
1370.0 7.3598e-07
1390.0 7.6137e-07
1410.0 7.8623e-07
1430.0 8.1233e-07
1450.0 8.3862e-07
1470.0 8.6426e-07
1490.0 8.9034e-07
1510.0 9.1796e-07
1530.0 9.4441e-07
1550.0 9.7067e-07
1570.0 9.9791e-07
1590.0 1.0253e-06
1610.0 1.0516e-06
1630.0 1.0788e-06
1650.0 1.1067e-06
1670.0 1.1338e-06
1690.0 1.1605e-06
1710.0 1.1881e-06
1730.0 1.2157e-06
1750.0 1.2418e-06
1770.0 1.2683e-06
1790.0 1.2952e-06
1810.0 1.321e-06
1830.0 1.3461e-06
1850.0 1.3725e-06
1870.0 1.3978e-06
1890.0 1.422e-06
1910.0 1.4463e-06
1930.0 1.4708e-06
1950.0 1.4939e-06
1970.0 1.5163e-06
1990.0 1.5393e-06
2010.0 1.5616e-06
2030.0 1.5828e-06
2050.0 1.6045e-06
2070.0 1.6267e-06
2090.0 1.6475e-06
2110.0 1.6682e-06
2130.0 1.6897e-06
2150.0 1.711e-06
2170.0 1.7316e-06
2190.0 1.7536e-06
2210.0 1.7762e-06
2230.0 1.7986e-06
2250.0 1.8217e-06
2270.0 1.8468e-06
2290.0 1.8723e-06
2310.0 1.898e-06
2330.0 1.9258e-06
2350.0 1.9554e-06
2370.0 1.9856e-06
2390.0 2.0178e-06
2410.0 2.0532e-06
2430.0 2.0897e-06
2450.0 2.1274e-06
2470.0 2.1672e-06
2490.0 2.208e-06
2510.0 2.2481e-06
2530.0 2.2909e-06
2550.0 2.3417e-06
2570.0 2.4092e-06
2590.0 2.5056e-06
2610.0 2.6576e-06
2630.0 2.8821e-06
2650.0 3.1792e-06
2670.0 3.5608e-06
2690.0 4.0269e-06
2710.0 4.5321e-06
2730.0 5.0502e-06
2750.0 5.5905e-06
2770.0 6.1154e-06
2790.0 6.6092e-06
2810.0 7.0951e-06
2830.0 7.594e-06
2850.0 8.0781e-06
2870.0 8.5723e-06
2890.0 9.0968e-06
2910.0 9.6415e-06
2930.0 1.0191e-05
2950.0 1.0774e-05
2970.0 1.1385e-05
2990.0 1.2003e-05
3010.0 2.2316e-05
3030.0 2.3481e-05
3050.0 2.4656e-05
3070.0 2.5761e-05
3090.0 2.6793e-05
3110.0 2.76e-05
3130.0 2.7984e-05
3150.0 2.7737e-05
3170.0 2.6455e-05
3190.0 2.4016e-05
3210.0 2.0424e-05
3230.0 1.6258e-05
3250.0 1.9344e-05
3270.0 1.193e-05
3290.0 2.0346e-05
3310.0 9.0041e-06
3330.0 9.6362e-06
3350.0 1.1806e-05
3370.0 1.4179e-05
3390.0 1.665e-05
3410.0 1.9108e-05
3430.0 2.1647e-05
3450.0 2.4172e-05
3470.0 2.652e-05
3490.0 2.8124e-05
3510.0 3.2508e-05
3530.0 4.119e-05
3550.0 4.4263e-05
3570.0 4.4142e-05
3590.0 5.8053e-05
3610.0 4.811e-05
3630.0 6.0623e-05
3650.0 6.3417e-05
3670.0 7.4934e-05
3690.0 7.6842e-05
3710.0 6.8939e-05
3730.0 8.4575e-05
3750.0 8.8139e-05
3770.0 8.9582e-05
3790.0 8.2919e-05
3810.0 7.19e-05
3830.0 7.7945e-05
3850.0 7.4192e-05
3870.0 8.6971e-05
3890.0 8.8939e-05
3910.0 9.2773e-05
3930.0 0.00010554
3950.0 0.00011722
3970.0 0.00014565
3990.0 0.00013679
4010.0 0.00011532
4030.0 0.00012824
4050.0 0.00012451
4070.0 0.0001303
4090.0 0.00012357
4110.0 0.00010233
4130.0 0.00011793
4150.0 0.00011011
4170.0 0.00011447
4190.0 0.00011402
4210.0 0.00012925
4230.0 0.00010709
4250.0 0.00012177
4270.0 0.00012162
4290.0 0.00012327
4310.0 0.00013905
4330.0 0.00014471
4350.0 0.00012953
4370.0 0.00012151
4390.0 0.00012723
4410.0 0.00011964
4430.0 9.6911e-05
4450.0 9.3913e-05
4470.0 0.00010161
4490.0 8.8688e-05
4510.0 0.00010205
4530.0 0.00011169
4550.0 0.00014112
4570.0 0.00019459
4590.0 0.0002131
4610.0 0.00019092
4630.0 0.00024573
4650.0 0.0003035
4670.0 0.00029312
4690.0 0.0002232
4710.0 0.00021896
4730.0 0.00023011
4750.0 0.00019836
4770.0 0.00015892
4790.0 0.00012744
4810.0 0.00015768
4830.0 0.0001778
4850.0 0.00018052
4870.0 0.00012661
4890.0 0.00019514
4910.0 0.00023264
4930.0 0.00025108
4950.0 0.00027054
4970.0 0.00023484
4990.0 0.00025426
5010.0 0.00025525
5030.0 0.00023848
5050.0 0.00021366
5070.0 0.00016254
5090.0 0.0001404
5110.0 0.00013448
5130.0 0.0001261
5150.0 0.00013838
5170.0 0.0001278
5190.0 0.00014494
5210.0 0.00014603
5230.0 0.00015806
5250.0 0.0001934
5270.0 0.00018917
5290.0 0.00019659
5310.0 0.00024631
5330.0 0.00027519
5350.0 0.00025965
5370.0 0.00024601
5390.0 0.00025478
5410.0 0.00027972
5430.0 0.00029604
5450.0 0.00032519
5470.0 0.00035574
5490.0 0.0003798
5510.0 0.00043148
5530.0 0.00044503
5550.0 0.00045622
5570.0 0.00046199
5590.0 0.00045447
5610.0 0.00044171
5630.0 0.00043492
5650.0 0.00043943
5670.0 0.00043519
5690.0 0.00039115
5710.0 0.00036409
5730.0 0.00034413
5750.0 0.00034794
5770.0 0.00031626
5790.0 0.00030631
5810.0 0.00031722
5830.0 0.00032986
5850.0 0.00031182
5870.0 0.00030398
5890.0 0.00032599
5910.0 0.00031486
5930.0 0.00028489
5950.0 0.00026426
5970.0 0.00026484
5990.0 0.00023897
6010.0 0.00021607
6030.0 0.0002092
6050.0 0.00019981
6070.0 0.00017353
6090.0 0.00016539
6110.0 0.00018609
6130.0 0.00020022
6150.0 0.00021181
6170.0 0.00022108
6190.0 0.00022748
6210.0 0.00023111
6230.0 0.00024602
6250.0 0.00022689
6270.0 0.00020377
6290.0 0.0001805
6310.0 0.00016428
6330.0 0.00015426
6350.0 0.00014254
6370.0 0.00014576
6390.0 0.00016784
6410.0 0.0002023
6430.0 0.0002364
6450.0 0.00024626
6470.0 0.00025712
6490.0 0.00029327
6510.0 0.00031545
6530.0 0.00030661
6550.0 0.00030285
6570.0 0.00030668
6590.0 0.00029981
6610.0 0.00031306
6630.0 0.00030209
6650.0 0.0002825
6670.0 0.00026101
6690.0 0.00024384
6710.0 0.00026076
6730.0 0.00024429
6750.0 0.00022945
6770.0 0.00022337
6790.0 0.00023206
6810.0 0.00024352
6830.0 0.000238
6850.0 0.0002238
6870.0 0.00022247
6890.0 0.00021443
6910.0 0.00020361
6930.0 0.00021974
6950.0 0.00021406
6970.0 0.00021341
6990.0 0.00021841
7010.0 0.00021264
7030.0 0.00019958
7050.0 0.0001841
7070.0 0.00017791
7090.0 0.00016281
7110.0 0.00014714
7130.0 0.00013065
7150.0 0.00012274
7170.0 0.00014141
7190.0 0.00014925
7210.0 0.00015163
7230.0 0.00016344
7250.0 0.00016473
7270.0 0.00016379
7290.0 0.00016933
7310.0 0.00017271
7330.0 0.00016537
7350.0 0.00015784
7370.0 0.00015588
7390.0 0.00016448
7410.0 0.00018633
7430.0 0.00020543
7450.0 0.00022602
7470.0 0.00023484
7490.0 0.00024076
7510.0 0.00023037
7530.0 0.00022133
7550.0 0.0002049
7570.0 0.00017765
7590.0 0.00017051
7610.0 0.00016869
7630.0 0.0001694
7650.0 0.0001898
7670.0 0.00020951
7690.0 0.00022845
7710.0 0.00024935
7730.0 0.00026509
7750.0 0.00027731
7770.0 0.00027932
7790.0 0.00029569
7810.0 0.00030421
7830.0 0.00029419
7850.0 0.00029569
7870.0 0.00028333
7890.0 0.00028427
7910.0 0.00026886
7930.0 0.00026621
7950.0 0.0002483
7970.0 0.00025266
7990.0 0.00024658
8010.0 0.00024215
8030.0 0.00024203
8050.0 0.000251
8070.0 0.00024486
8090.0 0.00024522
8110.0 0.00023727
8130.0 0.00023646
8150.0 0.00022827
8170.0 0.00022183
8190.0 0.00021891
8210.0 0.00022052
8230.0 0.00020157
8250.0 0.00018633
8270.0 0.00016273
8290.0 0.00013295
8310.0 0.00010831
8330.0 8.5004e-05
8350.0 7.3176e-05
8370.0 7.8698e-05
8390.0 8.5682e-05
8410.0 9.3247e-05
8430.0 0.00010859
8450.0 0.00011525
8470.0 0.00012092
8490.0 0.00013598
8510.0 0.0001495
8530.0 0.0001731
8550.0 0.00020433
8570.0 0.00023061
8590.0 0.00025098
8610.0 0.00027206
8630.0 0.00029223
8650.0 0.00029591
8670.0 0.00029764
8690.0 0.00030789
8710.0 0.00030849
8730.0 0.00031013
8750.0 0.00029918
8770.0 0.00029945
8790.0 0.00029505
8810.0 0.00027372
8830.0 0.00027005
8850.0 0.000255
8870.0 0.00024488
8890.0 0.00022931
8910.0 0.00023961
8930.0 0.00022277
8950.0 0.00021679
8970.0 0.00021522
8990.0 0.00020897
9010.0 0.00020898
9030.0 0.00020224
9050.0 0.0002011
9070.0 0.00020067
9090.0 0.00020023
9110.0 0.00019984
9130.0 0.00019935
9150.0 0.00019882
9170.0 0.00019792
9190.0 0.00019647
9210.0 0.00019801
9230.0 0.00019696
9250.0 0.00019616
9270.0 0.00019539
9290.0 0.00019464
9310.0 0.00019391
9330.0 0.00019318
9350.0 0.00019245
9370.0 0.00019171
9390.0 0.00019095
9410.0 0.00019018
9430.0 0.00018939
9450.0 0.00018856
9470.0 0.00018773
9490.0 0.00018694
9510.0 0.00018613
9530.0 0.00018531
9550.0 0.00018446
9570.0 0.00018361
9590.0 0.00018276
9610.0 0.00018189
9630.0 0.00018102
9650.0 0.00018015
9670.0 0.00017927
9690.0 0.00017839
9710.0 0.0001775
9730.0 0.00017662
9750.0 0.00017573
9770.0 0.00017484
9790.0 0.00017396
9810.0 0.00017307
9830.0 0.00017219
9850.0 0.0001713
9870.0 0.00017042
9890.0 0.00016954
9910.0 0.00016866
9930.0 0.00016778
9950.0 0.00016616
9970.0 0.00016552
9990.0 0.00016484
10010.0 0.00016414
10030.0 0.00016339
10050.0 0.00016257
10070.0 0.00016166
10090.0 0.0001609
10110.0 0.0001601
10130.0 0.00015931
10150.0 0.00015853
10170.0 0.00015773
10190.0 0.0001569
10210.0 0.00015612
10230.0 0.00015535
10250.0 0.00015456
10270.0 0.00015378
10290.0 0.00015305
10310.0 0.00015229
10330.0 0.00015151
10350.0 0.00015078
10370.0 0.00015006
10390.0 0.00014932
10410.0 0.00014859
10430.0 0.00014791
10450.0 0.0001472
10470.0 0.00014649
10490.0 0.00014581
10510.0 0.00014514
10530.0 0.00014444
10550.0 0.00014376
10570.0 0.00014312
10590.0 0.00014246
10610.0 0.0001418
10630.0 0.00014118
10650.0 0.00014056
10670.0 0.0001399
10690.0 0.00013928
10710.0 0.00013868
10730.0 0.00013806
10750.0 0.00013742
10770.0 0.00013685
10790.0 0.00013627
10810.0 0.00013566
10830.0 0.00013507
10850.0 0.00013451
10870.0 0.00013389
10890.0 0.00013325
10910.0 0.00013259
10930.0 0.00013184
10950.0 0.00013093
10970.0 0.00012986
10990.0 0.00012864
11010.0 0.00012186
11030.0 0.00012026
11050.0 0.00011852
11070.0 0.00011659
11090.0 0.00011441
11110.0 0.00011227
11130.0 0.00011014
11150.0 0.00010792
11170.0 0.00010572
11190.0 0.00010366
11210.0 0.00010158
11230.0 9.949e-05
11250.0 9.7535e-05
11270.0 9.5682e-05
11290.0 9.3818e-05
11310.0 9.2043e-05
11330.0 9.0477e-05
11350.0 8.8957e-05
11370.0 8.7498e-05
11390.0 8.6189e-05
11410.0 8.4986e-05
11430.0 8.377e-05
11450.0 8.2641e-05
11470.0 8.1594e-05
11490.0 8.0534e-05
11510.0 7.9425e-05
11530.0 7.8355e-05
11550.0 7.7259e-05
11570.0 7.6049e-05
11590.0 7.4786e-05
11610.0 7.3507e-05
11630.0 7.2093e-05
11650.0 7.0557e-05
11670.0 6.9044e-05
11690.0 6.7482e-05
11710.0 6.5819e-05
11730.0 6.4161e-05
11750.0 6.2585e-05
11770.0 6.0958e-05
11790.0 5.9347e-05
11810.0 5.7856e-05
11830.0 5.6435e-05
11850.0 5.5005e-05
11870.0 5.3716e-05
11890.0 5.2563e-05
11910.0 5.1448e-05
11930.0 5.0401e-05
11950.0 4.9481e-05
11970.0 4.8616e-05
11990.0 4.7765e-05
12010.0 4.6999e-05
12030.0 4.6301e-05
12050.0 4.5614e-05
12070.0 4.4945e-05
12090.0 4.4367e-05
12110.0 4.381e-05
12130.0 4.3266e-05
12150.0 4.2781e-05
12170.0 4.2363e-05
12190.0 4.196e-05
12210.0 4.1633e-05
12230.0 4.1403e-05
12250.0 4.1254e-05
12270.0 4.12e-05
12290.0 4.127e-05
12310.0 4.1462e-05
12330.0 4.1782e-05
12350.0 4.2239e-05
12370.0 4.2817e-05
12390.0 4.3522e-05
12410.0 4.4376e-05
12430.0 4.5299e-05
12450.0 4.6293e-05
12470.0 4.7373e-05
12490.0 4.8491e-05
12510.0 4.9586e-05
12530.0 5.0699e-05
12550.0 5.1805e-05
12570.0 5.2838e-05
12590.0 5.3806e-05
12610.0 5.4727e-05
12630.0 5.556e-05
12650.0 5.628e-05
12670.0 5.6923e-05
12690.0 5.7478e-05
12710.0 5.7933e-05
12730.0 5.83e-05
12750.0 5.8581e-05
12770.0 5.8774e-05
12790.0 5.8892e-05
12810.0 5.893e-05
12830.0 5.8885e-05
12850.0 5.8786e-05
12870.0 5.8629e-05
12890.0 5.8395e-05
12910.0 5.811e-05
12930.0 5.7792e-05
12950.0 5.7401e-05
12970.0 5.6947e-05
12990.0 5.6479e-05
13010.0 5.5967e-05
13030.0 5.5386e-05
13050.0 5.4776e-05
13070.0 5.4161e-05
13090.0 5.3479e-05
13110.0 5.2762e-05
13130.0 5.2057e-05
13150.0 5.1343e-05
13170.0 5.059e-05
13190.0 4.989e-05
13210.0 4.9253e-05
13230.0 4.8643e-05
13250.0 4.81e-05
13270.0 4.7665e-05
13290.0 4.7315e-05
13310.0 4.7051e-05
13330.0 4.6906e-05
13350.0 4.6861e-05
13370.0 4.6901e-05
13390.0 4.7018e-05
13410.0 4.7185e-05
13430.0 4.7379e-05
13450.0 4.7576e-05
13470.0 4.7745e-05
13490.0 4.7863e-05
13510.0 4.7907e-05
13530.0 4.7856e-05
13550.0 4.7711e-05
13570.0 4.7459e-05
13590.0 4.7089e-05
13610.0 4.6637e-05
13630.0 4.612e-05
13650.0 4.5511e-05
13670.0 4.4858e-05
13690.0 4.4199e-05
13710.0 4.3518e-05
13730.0 4.2807e-05
13750.0 4.2155e-05
13770.0 4.1536e-05
13790.0 4.0929e-05
13810.0 4.0364e-05
13830.0 3.9861e-05
13850.0 3.9376e-05
13870.0 3.8917e-05
13890.0 3.8504e-05
13910.0 3.812e-05
13930.0 3.7744e-05
13950.0 3.7392e-05
13970.0 3.7074e-05
13990.0 3.6762e-05
14010.0 3.6462e-05
14030.0 3.6187e-05
14050.0 3.593e-05
14070.0 3.5678e-05
14090.0 3.5452e-05
14110.0 3.525e-05
14130.0 3.5064e-05
14150.0 3.4896e-05
14170.0 3.4755e-05
14190.0 3.4632e-05
14210.0 3.4529e-05
14230.0 3.4448e-05
14250.0 3.4388e-05
14270.0 3.4349e-05
14290.0 3.4335e-05
14310.0 3.4338e-05
14330.0 3.4362e-05
14350.0 3.4407e-05
14370.0 3.4466e-05
14390.0 3.4532e-05
14410.0 3.4611e-05
14430.0 3.4694e-05
14450.0 3.4769e-05
14470.0 3.4839e-05
14490.0 3.4904e-05
14510.0 3.495e-05
14530.0 3.4977e-05
14550.0 3.4995e-05
14570.0 3.5e-05
14590.0 3.4993e-05
14610.0 3.4985e-05
14630.0 3.4985e-05
14650.0 3.4994e-05
14670.0 3.5019e-05
14690.0 3.5077e-05
14710.0 3.5175e-05
14730.0 3.5303e-05
14750.0 3.5482e-05
14770.0 3.5724e-05
14790.0 3.6012e-05
14810.0 3.6345e-05
14830.0 3.6769e-05
14850.0 3.7241e-05
14870.0 3.7736e-05
14890.0 3.8277e-05
14910.0 3.8854e-05
14930.0 3.9398e-05
14950.0 3.9891e-05
14970.0 4.0345e-05
14990.0 4.0696e-05
15010.0 4.0923e-05
15030.0 4.1046e-05
15050.0 4.107e-05
15070.0 4.0995e-05
15090.0 4.0857e-05
15110.0 4.0677e-05
15130.0 4.047e-05
15150.0 4.0248e-05
15170.0 4.0018e-05
15190.0 3.9783e-05
15210.0 3.9548e-05
15230.0 3.9313e-05
15250.0 3.9075e-05
15270.0 3.8838e-05
15290.0 3.8603e-05
15310.0 3.8367e-05
15330.0 3.813e-05
15350.0 3.7895e-05
15370.0 3.7661e-05
15390.0 3.7424e-05
15410.0 3.7189e-05
15430.0 3.6956e-05
15450.0 3.6721e-05
15470.0 3.6487e-05
15490.0 3.6255e-05
15510.0 3.6023e-05
15530.0 3.5791e-05
15550.0 3.556e-05
15570.0 3.5331e-05
15590.0 3.5101e-05
15610.0 3.4871e-05
15630.0 3.4645e-05
15650.0 3.4418e-05
15670.0 3.4192e-05
15690.0 3.3967e-05
15710.0 3.3744e-05
15730.0 3.3521e-05
15750.0 3.3298e-05
15770.0 3.3078e-05
15790.0 3.2859e-05
15810.0 3.2639e-05
15830.0 3.2422e-05
15850.0 3.2207e-05
15870.0 3.1991e-05
15890.0 3.1777e-05
15910.0 3.1566e-05
15930.0 3.1355e-05
15950.0 3.1144e-05
15970.0 3.0935e-05
15990.0 3.0729e-05
16010.0 3.0522e-05
16030.0 3.0317e-05
16050.0 3.0115e-05
16070.0 2.9914e-05
16090.0 2.9713e-05
16110.0 2.9514e-05
16130.0 2.9318e-05
16150.0 2.912e-05
16170.0 2.8925e-05
16190.0 2.8733e-05
16210.0 2.8542e-05
16230.0 2.835e-05
16250.0 2.8162e-05
16270.0 2.7976e-05
16290.0 2.779e-05
16310.0 2.7605e-05
16330.0 2.7424e-05
16350.0 2.7243e-05
16370.0 2.7062e-05
16390.0 2.6884e-05
16410.0 2.6708e-05
16430.0 2.6533e-05
16450.0 2.6359e-05
16470.0 2.6189e-05
16490.0 2.6018e-05
16510.0 2.5848e-05
16530.0 2.5682e-05
16550.0 2.5516e-05
16570.0 2.5351e-05
16590.0 2.5188e-05
16610.0 2.5028e-05
16630.0 2.4868e-05
16650.0 2.4709e-05
16670.0 2.4554e-05
16690.0 2.4399e-05
16710.0 2.4244e-05
16730.0 2.4092e-05
16750.0 2.3942e-05
16770.0 2.3793e-05
16790.0 2.3644e-05
16810.0 2.3499e-05
16830.0 2.3355e-05
16850.0 2.3211e-05
16870.0 2.3069e-05
16890.0 2.293e-05
16910.0 2.2791e-05
16930.0 2.2652e-05
16950.0 2.2517e-05
16970.0 2.2383e-05
16990.0 2.2249e-05
17010.0 2.2117e-05
17030.0 2.1988e-05
17050.0 2.1859e-05
17070.0 2.173e-05
17090.0 2.1605e-05
17110.0 2.148e-05
17130.0 2.1356e-05
17150.0 2.1234e-05
17170.0 2.1114e-05
17190.0 2.0994e-05
17210.0 2.0875e-05
17230.0 2.0759e-05
17250.0 2.0644e-05
17270.0 2.0529e-05
17290.0 2.0416e-05
17310.0 2.0304e-05
17330.0 2.0193e-05
17350.0 2.0083e-05
17370.0 1.9976e-05
17390.0 1.987e-05
17410.0 1.9764e-05
17430.0 1.9659e-05
17450.0 1.9557e-05
17470.0 1.9454e-05
17490.0 1.9353e-05
17510.0 1.9254e-05
17530.0 1.9155e-05
17550.0 1.9057e-05
17570.0 1.8961e-05
17590.0 1.8866e-05
17610.0 1.8772e-05
17630.0 1.8679e-05
17650.0 1.8587e-05
17670.0 1.8496e-05
17690.0 1.8405e-05
17710.0 1.8317e-05
17730.0 1.823e-05
17750.0 1.8143e-05
17770.0 1.8057e-05
17790.0 1.7973e-05
17810.0 1.7889e-05
17830.0 1.7806e-05
17850.0 1.7724e-05
17870.0 1.7644e-05
17890.0 1.7563e-05
17910.0 1.7484e-05
17930.0 1.7407e-05
17950.0 1.733e-05
17970.0 1.7253e-05
17990.0 1.7179e-05
18010.0 1.7105e-05
18030.0 1.703e-05
18050.0 1.6958e-05
18070.0 1.6887e-05
18090.0 1.6816e-05
18110.0 1.6745e-05
18130.0 1.6676e-05
18150.0 1.6608e-05
18170.0 1.654e-05
18190.0 1.6474e-05
18210.0 1.6408e-05
18230.0 1.6343e-05
18250.0 1.6277e-05
18270.0 1.6214e-05
18290.0 1.6152e-05
18310.0 1.6089e-05
18330.0 1.6028e-05
18350.0 1.5968e-05
18370.0 1.5907e-05
18390.0 1.5848e-05
18410.0 1.579e-05
18430.0 1.5732e-05
18450.0 1.5674e-05
18470.0 1.5618e-05
18490.0 1.5562e-05
18510.0 1.5507e-05
18530.0 1.5452e-05
18550.0 1.5399e-05
18570.0 1.5346e-05
18590.0 1.5292e-05
18610.0 1.524e-05
18630.0 1.5189e-05
18650.0 1.5138e-05
18670.0 1.5087e-05
18690.0 1.5038e-05
18710.0 1.4989e-05
18730.0 1.494e-05
18750.0 1.4893e-05
18770.0 1.4846e-05
18790.0 1.4798e-05
18810.0 1.4751e-05
18830.0 1.4706e-05
18850.0 1.4661e-05
18870.0 1.4615e-05
18890.0 1.4572e-05
18910.0 1.4528e-05
18930.0 1.4485e-05
18950.0 1.4442e-05
18970.0 1.44e-05
18990.0 1.4358e-05
19010.0 1.4315e-05
19030.0 1.4275e-05
19050.0 1.4235e-05
19070.0 1.4194e-05
19090.0 1.4155e-05
19110.0 1.4117e-05
19130.0 1.4077e-05
19150.0 1.4038e-05
19170.0 1.4001e-05
19190.0 1.3964e-05
19210.0 1.3926e-05
19230.0 1.3889e-05
19250.0 1.3853e-05
19270.0 1.3817e-05
19290.0 1.3781e-05
19310.0 1.3746e-05
19330.0 1.3712e-05
19350.0 1.3676e-05
19370.0 1.3642e-05
19390.0 1.3609e-05
19410.0 1.3575e-05
19430.0 1.3542e-05
19450.0 1.3509e-05
19470.0 1.3477e-05
19490.0 1.3444e-05
19510.0 1.3413e-05
19530.0 1.3382e-05
19550.0 1.335e-05
19570.0 1.3318e-05
19590.0 1.3288e-05
19610.0 1.3258e-05
19630.0 1.3227e-05
19650.0 1.3198e-05
19670.0 1.3169e-05
19690.0 1.3139e-05
19710.0 1.311e-05
19730.0 1.3081e-05
19750.0 1.3053e-05
19770.0 1.3024e-05
19790.0 1.2996e-05
19810.0 1.2969e-05
19830.0 1.294e-05
19850.0 1.2912e-05
19870.0 1.2884e-05
19890.0 1.2853e-05
19910.0 1.2817e-05
19930.0 1.2776e-05
19950.0 1.2725e-05
19970.0 1.2657e-05
19990.0 1.257e-05
20010.0 1.2468e-05
20030.0 1.2339e-05
20050.0 1.2185e-05
20070.0 1.2017e-05
20090.0 1.1835e-05
20110.0 1.1629e-05
20130.0 1.1421e-05
20150.0 1.1215e-05
20170.0 1.1001e-05
20190.0 1.0785e-05
20210.0 1.058e-05
20230.0 1.0381e-05
20250.0 1.0179e-05
20270.0 9.9918e-06
20290.0 9.8194e-06
20310.0 9.6542e-06
20330.0 9.4983e-06
20350.0 9.3679e-06
20370.0 9.2512e-06
20390.0 9.1482e-06
20410.0 9.0651e-06
20430.0 9.0015e-06
20450.0 8.9523e-06
20470.0 8.9217e-06
20490.0 8.9091e-06
20510.0 8.9121e-06
20530.0 8.9309e-06
20550.0 8.9635e-06
20570.0 9.0068e-06
20590.0 9.0622e-06
20610.0 9.1271e-06
20630.0 9.1967e-06
20650.0 9.2719e-06
20670.0 9.3544e-06
20690.0 9.4345e-06
20710.0 9.5126e-06
20730.0 9.5907e-06
20750.0 9.6648e-06
20770.0 9.7299e-06
20790.0 9.7896e-06
20810.0 9.8425e-06
20830.0 9.8847e-06
20850.0 9.917e-06
20870.0 9.9402e-06
20890.0 9.9522e-06
20910.0 9.9537e-06
20930.0 9.9453e-06
20950.0 9.9267e-06
20970.0 9.8996e-06
20990.0 9.865e-06
21010.0 9.8207e-06
21030.0 9.77e-06
21050.0 9.7153e-06
21070.0 9.6547e-06
21090.0 9.5878e-06
21110.0 9.5215e-06
21130.0 9.4543e-06
21150.0 9.3837e-06
21170.0 9.3142e-06
21190.0 9.2487e-06
21210.0 9.1829e-06
21230.0 9.1192e-06
21250.0 9.0626e-06
21270.0 9.0112e-06
21290.0 8.964e-06
21310.0 8.9241e-06
21330.0 8.8931e-06
21350.0 8.8683e-06
21370.0 8.8514e-06
21390.0 8.8434e-06
21410.0 8.8432e-06
21430.0 8.8516e-06
21450.0 8.8683e-06
21470.0 8.8919e-06
21490.0 8.9233e-06
21510.0 8.9622e-06
21530.0 9.0057e-06
21550.0 9.0549e-06
21570.0 9.1112e-06
21590.0 9.1709e-06
21610.0 9.2331e-06
21630.0 9.3005e-06
21650.0 9.373e-06
21670.0 9.4433e-06
21690.0 9.5168e-06
21710.0 9.5942e-06
21730.0 9.6715e-06
21750.0 9.7476e-06
21770.0 9.8291e-06
21790.0 9.911e-06
21810.0 9.9906e-06
21830.0 1.0071e-05
21850.0 1.0155e-05
21870.0 1.0236e-05
21890.0 1.0315e-05
21910.0 1.0396e-05
21930.0 1.0476e-05
21950.0 1.0552e-05
21970.0 1.0628e-05
21990.0 1.0703e-05
22010.0 1.0773e-05
22030.0 1.0837e-05
22050.0 1.0899e-05
22070.0 1.0955e-05
22090.0 1.1003e-05
22110.0 1.1046e-05
22130.0 1.1081e-05
22150.0 1.1106e-05
22170.0 1.1123e-05
22190.0 1.1129e-05
22210.0 1.1125e-05
22230.0 1.111e-05
22250.0 1.1084e-05
22270.0 1.1045e-05
22290.0 1.0997e-05
22310.0 1.0938e-05
22330.0 1.0865e-05
22350.0 1.0783e-05
22370.0 1.0693e-05
22390.0 1.0592e-05
22410.0 1.0479e-05
22430.0 1.0363e-05
22450.0 1.0242e-05
22470.0 1.011e-05
22490.0 9.9757e-06
22510.0 9.8426e-06
22530.0 9.7014e-06
22550.0 9.5563e-06
22570.0 9.4175e-06
22590.0 9.2797e-06
22610.0 9.1391e-06
