#lamb flux
1010.0 2.9096e-05
1030.0 3.0475e-05
1050.0 3.389e-05
1070.0 3.7689e-05
1090.0 4.1654e-05
1110.0 4.5617e-05
1130.0 4.9494e-05
1150.0 5.3484e-05
1170.0 5.7503e-05
1190.0 6.1124e-05
1210.0 6.4668e-05
1230.0 6.8207e-05
1250.0 7.1546e-05
1270.0 7.4585e-05
1290.0 7.7696e-05
1310.0 8.0642e-05
1330.0 8.3283e-05
1350.0 8.5894e-05
1370.0 8.8613e-05
1390.0 9.1276e-05
1410.0 9.3951e-05
1430.0 9.701e-05
1450.0 0.00010036
1470.0 0.00010397
1490.0 0.00010808
1510.0 0.00011295
1530.0 0.00011824
1550.0 0.00012417
1570.0 0.00013099
1590.0 0.00013862
1610.0 0.00014695
1630.0 0.0001564
1650.0 0.00016691
1670.0 0.0001782
1690.0 0.00019036
1710.0 0.00020361
1730.0 0.00021775
1750.0 0.00023232
1770.0 0.0002477
1790.0 0.00026374
1810.0 0.00027994
1830.0 0.0002962
1850.0 0.00031282
1870.0 0.00032902
1890.0 0.0003445
1910.0 0.0003594
1930.0 0.00037351
1950.0 0.00038612
1970.0 0.00039726
1990.0 0.00040714
2010.0 0.00041524
2030.0 0.0004213
2050.0 0.0004258
2070.0 0.00042869
2090.0 0.00042938
2110.0 0.00042839
2130.0 0.00042606
2150.0 0.00042219
2170.0 0.00041682
2190.0 0.00041067
2210.0 0.00040371
2230.0 0.00039588
2250.0 0.00038761
2270.0 0.00037935
2290.0 0.00037085
2310.0 0.00036225
2330.0 0.00035409
2350.0 0.00034636
2370.0 0.00033897
2390.0 0.00033231
2410.0 0.00032668
2430.0 0.00032189
2450.0 0.00031812
2470.0 0.00031582
2490.0 0.00031518
2510.0 0.00031598
2530.0 0.00031921
2550.0 0.00032619
2570.0 0.00033795
2590.0 0.00035603
2610.0 0.0003852
2630.0 0.00042653
2650.0 0.00047842
2670.0 0.0005424
2690.0 0.00061759
2710.0 0.00069563
2730.0 0.00077269
2750.0 0.00085104
2770.0 0.00092552
2790.0 0.00099506
2810.0 0.0010646
2830.0 0.0011386
2850.0 0.0012132
2870.0 0.0012924
2890.0 0.0013798
2910.0 0.0014735
2930.0 0.0015705
2950.0 0.0016761
2970.0 0.0017896
2990.0 0.0019069
3010.0 0.002116
3030.0 0.0022532
3050.0 0.0023959
3070.0 0.0025368
3090.0 0.0026795
3110.0 0.0028159
3130.0 0.002935
3150.0 0.0030312
3170.0 0.0030939
3190.0 0.0031434
3210.0 0.0032434
3230.0 0.0033825
3250.0 0.0034215
3270.0 0.0033344
3290.0 0.0032167
3310.0 0.0031641
3330.0 0.003157
3350.0 0.0031788
3370.0 0.0032152
3390.0 0.0032764
3410.0 0.0033196
3430.0 0.0032842
3450.0 0.0032902
3470.0 0.0033199
3490.0 0.0036698
3510.0 0.0046749
3530.0 0.0057815
3550.0 0.0065827
3570.0 0.0072128
3590.0 0.0075679
3610.0 0.0074991
3630.0 0.007327
3650.0 0.0078142
3670.0 0.0090805
3690.0 0.010323
3710.0 0.011254
3730.0 0.012084
3750.0 0.012868
3770.0 0.012679
3790.0 0.011796
3810.0 0.010951
3830.0 0.010208
3850.0 0.010037
3870.0 0.010784
3890.0 0.011778
3910.0 0.012547
3930.0 0.013352
3950.0 0.014901
3970.0 0.016143
3990.0 0.015483
4010.0 0.01369
4030.0 0.011963
4050.0 0.011289
4070.0 0.011161
4090.0 0.010943
4110.0 0.010872
4130.0 0.010772
4150.0 0.010824
4170.0 0.011489
4190.0 0.012464
4210.0 0.01243
4230.0 0.012022
4250.0 0.01192
4270.0 0.012192
4290.0 0.012913
4310.0 0.013595
4330.0 0.013054
4350.0 0.011505
4370.0 0.010175
4390.0 0.0090626
4410.0 0.008064
4430.0 0.0078764
4450.0 0.0083381
4470.0 0.0088055
4490.0 0.0094373
4510.0 0.010802
4530.0 0.013774
4550.0 0.018046
4570.0 0.020824
4590.0 0.022486
4610.0 0.025257
4630.0 0.027461
4650.0 0.026106
4670.0 0.021946
4690.0 0.018073
4710.0 0.015956
4730.0 0.015003
4750.0 0.01383
4770.0 0.012864
4790.0 0.013457
4810.0 0.01468
4830.0 0.014991
4850.0 0.014269
4870.0 0.014292
4890.0 0.015368
4910.0 0.016342
4930.0 0.016697
4950.0 0.016417
4970.0 0.015464
4990.0 0.013947
5010.0 0.012525
5030.0 0.011549
5050.0 0.010981
5070.0 0.010557
5090.0 0.010141
5110.0 0.009988
5130.0 0.0099831
5150.0 0.010252
5170.0 0.011225
5190.0 0.012644
5210.0 0.014302
5230.0 0.015536
5250.0 0.016344
5270.0 0.017333
5290.0 0.018503
5310.0 0.019064
5330.0 0.018628
5350.0 0.017728
5370.0 0.01756
5390.0 0.018491
5410.0 0.020017
5430.0 0.021253
5450.0 0.021893
5470.0 0.021936
5490.0 0.021439
5510.0 0.020894
5530.0 0.02054
5550.0 0.020311
5570.0 0.019967
5590.0 0.019435
5610.0 0.018684
5630.0 0.017495
5650.0 0.015985
5670.0 0.014836
5690.0 0.014301
5710.0 0.014041
5730.0 0.01371
5750.0 0.013373
5770.0 0.013149
5790.0 0.01312
5810.0 0.013024
5830.0 0.012978
5850.0 0.012952
5870.0 0.012607
5890.0 0.0121
5910.0 0.011441
5930.0 0.010342
5950.0 0.009236
5970.0 0.0086538
5990.0 0.0085729
6010.0 0.0085692
6030.0 0.0082894
6050.0 0.0080254
6070.0 0.0083331
6090.0 0.0089737
6110.0 0.009346
6130.0 0.0092001
6150.0 0.0088224
6170.0 0.0085633
6190.0 0.0083452
6210.0 0.0079419
6230.0 0.0073424
6250.0 0.0069068
6270.0 0.0068175
6290.0 0.0068246
6310.0 0.0071046
6330.0 0.0077509
6350.0 0.0085291
6370.0 0.0090302
6390.0 0.0093024
6410.0 0.0095893
6430.0 0.0098147
6450.0 0.010021
6470.0 0.010261
6490.0 0.010507
6510.0 0.010705
6530.0 0.010776
6550.0 0.010773
6570.0 0.010533
6590.0 0.010034
6610.0 0.0096266
6630.0 0.0093623
6650.0 0.0090187
6670.0 0.0085621
6690.0 0.0081755
6710.0 0.0079714
6730.0 0.0077983
6750.0 0.0076452
6770.0 0.0075791
6790.0 0.0075151
6810.0 0.0073455
6830.0 0.0072011
6850.0 0.0073257
6870.0 0.0074353
6890.0 0.0073277
6910.0 0.007218
6930.0 0.0071321
6950.0 0.00697
6970.0 0.0067226
6990.0 0.0064902
7010.0 0.0063465
7030.0 0.0062148
7050.0 0.0059314
7070.0 0.0055674
7090.0 0.0054738
7110.0 0.0056802
7130.0 0.0060049
7150.0 0.0063014
7170.0 0.0065311
7190.0 0.006588
7210.0 0.006399
7230.0 0.0062737
7250.0 0.006353
7270.0 0.0063235
7290.0 0.0062442
7310.0 0.0063009
7330.0 0.0065146
7350.0 0.0068097
7370.0 0.0069955
7390.0 0.0070648
7410.0 0.0070638
7430.0 0.0069243
7450.0 0.0066996
7470.0 0.0064955
7490.0 0.0062562
7510.0 0.0060588
7530.0 0.0060173
7550.0 0.0060328
7570.0 0.0060586
7590.0 0.0061391
7610.0 0.0061618
7630.0 0.00618
7650.0 0.0063757
7670.0 0.0066596
7690.0 0.0069402
7710.0 0.0071757
7730.0 0.0073945
7750.0 0.0076315
7770.0 0.0078618
7790.0 0.0080615
7810.0 0.0081549
7830.0 0.0080494
7850.0 0.0078075
7870.0 0.0074932
7890.0 0.0071832
7910.0 0.007047
7930.0 0.0069609
7950.0 0.0068345
7970.0 0.0067079
7990.0 0.0066819
8010.0 0.006314
8030.0 0.0062843
8050.0 0.0062424
8070.0 0.0061671
8090.0 0.0060955
8110.0 0.0060936
8130.0 0.0061266
8150.0 0.0061095
8170.0 0.0060651
8190.0 0.0059051
8210.0 0.0055847
8230.0 0.0052713
8250.0 0.0051177
8270.0 0.0049397
8290.0 0.0046458
8310.0 0.0043895
8330.0 0.0042395
8350.0 0.0041258
8370.0 0.0041846
8390.0 0.0044434
8410.0 0.0047453
8430.0 0.0050785
8450.0 0.0054731
8470.0 0.0057831
8490.0 0.0061003
8510.0 0.0063943
8530.0 0.0066815
8550.0 0.0069241
8570.0 0.0071054
8590.0 0.0072544
8610.0 0.0074399
8630.0 0.007506
8650.0 0.0073807
8670.0 0.0074059
8690.0 0.0076305
8710.0 0.0079064
8730.0 0.0079812
8750.0 0.0078483
8770.0 0.0078353
8790.0 0.0078315
8810.0 0.0076615
8830.0 0.0071311
8850.0 0.0064734
8870.0 0.0060006
8890.0 0.0058087
8910.0 0.0055685
8930.0 0.0051891
8950.0 0.0048902
8970.0 0.0048145
8990.0 0.0048769
9010.0 0.0048804
9030.0 0.0048345
9050.0 0.0047975
9070.0 0.0047706
9090.0 0.0047453
9110.0 0.0047204
9130.0 0.0046956
9150.0 0.0046712
9170.0 0.0046467
9190.0 0.0046229
9210.0 0.0046001
9230.0 0.0045757
9250.0 0.0045519
9270.0 0.0045284
9290.0 0.0045051
9310.0 0.0044821
9330.0 0.0044593
9350.0 0.0044368
9370.0 0.0044144
9390.0 0.0043922
9410.0 0.0043701
9430.0 0.0043476
9450.0 0.004322
9470.0 0.0042977
9490.0 0.00428
9510.0 0.0042605
9530.0 0.0042409
9550.0 0.0042206
9570.0 0.0042002
9590.0 0.0041801
9610.0 0.0041599
9630.0 0.0041396
9650.0 0.0041194
9670.0 0.0040999
9690.0 0.00408
9710.0 0.0040602
9730.0 0.0040408
9750.0 0.0040215
9770.0 0.0040017
9790.0 0.0039825
9810.0 0.0039635
9830.0 0.0039442
9850.0 0.0039241
9870.0 0.0039056
9890.0 0.0038871
9910.0 0.0038682
9930.0 0.0038495
9950.0 0.0038291
9970.0 0.0038107
9990.0 0.003792
10010.0 0.0037724
10030.0 0.0037533
10050.0 0.0037353
10070.0 0.0037173
10090.0 0.0036993
10110.0 0.0036792
10130.0 0.003652
10150.0 0.0036347
10170.0 0.0036189
10190.0 0.0036011
10210.0 0.0035835
10230.0 0.0035658
10250.0 0.0035464
10270.0 0.003527
10290.0 0.0035084
10310.0 0.0034886
10330.0 0.0034678
10350.0 0.0034482
10370.0 0.0034286
10390.0 0.0034078
10410.0 0.003387
10430.0 0.0033674
10450.0 0.0033466
10470.0 0.003325
10490.0 0.0033043
10510.0 0.0032836
10530.0 0.0032609
10550.0 0.0032389
10570.0 0.0032177
10590.0 0.0031954
10610.0 0.0031724
10630.0 0.0031504
10650.0 0.003128
10670.0 0.003104
10690.0 0.0030805
10710.0 0.0030575
10730.0 0.0030334
10750.0 0.003008
10770.0 0.0029844
10790.0 0.0029601
10810.0 0.0029346
10830.0 0.0029093
10850.0 0.0028849
10870.0 0.0028583
10890.0 0.0028316
10910.0 0.0028059
10930.0 0.0027798
10950.0 0.0027524
10970.0 0.0027258
10990.0 0.0027004
11010.0 0.0025913
11030.0 0.002563
11050.0 0.0025365
11070.0 0.0025106
11090.0 0.0024842
11110.0 0.0024604
11130.0 0.0024381
11150.0 0.0024161
11170.0 0.0023954
11190.0 0.002377
11210.0 0.0023594
11230.0 0.0023428
11250.0 0.0023282
11270.0 0.0023152
11290.0 0.0023029
11310.0 0.0022918
11330.0 0.0022825
11350.0 0.0022737
11370.0 0.0022655
11390.0 0.0022579
11410.0 0.0022507
11430.0 0.002243
11450.0 0.0022352
11470.0 0.0022272
11490.0 0.0022182
11510.0 0.0022081
11530.0 0.0021974
11550.0 0.0021856
11570.0 0.0021721
11590.0 0.0021575
11610.0 0.002142
11630.0 0.0021245
11650.0 0.002105
11670.0 0.0020849
11690.0 0.0020633
11710.0 0.0020393
11730.0 0.002014
11750.0 0.001988
11770.0 0.0019595
11790.0 0.0019289
11810.0 0.0018977
11830.0 0.0018653
11850.0 0.0018298
11870.0 0.0017943
11890.0 0.0017591
11910.0 0.0017224
11930.0 0.0016852
11950.0 0.0016495
11970.0 0.001614
11990.0 0.0015778
12010.0 0.0015437
12030.0 0.0015115
12050.0 0.0014797
12070.0 0.0014489
12090.0 0.0014215
12110.0 0.0013953
12130.0 0.0013703
12150.0 0.0013475
12170.0 0.0013272
12190.0 0.0013078
12210.0 0.0012906
12230.0 0.0012761
12250.0 0.0012635
12270.0 0.0012528
12290.0 0.0012444
12310.0 0.0012382
12330.0 0.0012338
12350.0 0.0012311
12370.0 0.0012301
12390.0 0.0012303
12410.0 0.001232
12430.0 0.0012344
12450.0 0.0012374
12470.0 0.0012411
12490.0 0.0012452
12510.0 0.0012491
12530.0 0.0012533
12550.0 0.0012575
12570.0 0.0012613
12590.0 0.0012646
12610.0 0.0012676
12630.0 0.0012697
12650.0 0.0012707
12670.0 0.0012707
12690.0 0.0012694
12710.0 0.0012666
12730.0 0.0012624
12750.0 0.0012565
12770.0 0.0012489
12790.0 0.00124
12810.0 0.0012296
12830.0 0.0012175
12850.0 0.0012049
12870.0 0.0011915
12890.0 0.0011771
12910.0 0.0011625
12930.0 0.0011482
12950.0 0.0011335
12970.0 0.0011189
12990.0 0.0011052
13010.0 0.0010921
13030.0 0.0010791
13050.0 0.0010669
13070.0 0.0010556
13090.0 0.0010445
13110.0 0.0010339
13130.0 0.0010241
13150.0 0.0010148
13170.0 0.0010055
13190.0 0.00099705
13210.0 0.00098919
13230.0 0.00098154
13250.0 0.00097426
13270.0 0.00096756
13290.0 0.00096112
13310.0 0.00095478
13330.0 0.00094879
13350.0 0.00094304
13370.0 0.00093721
13390.0 0.00093129
13410.0 0.00092554
13430.0 0.00091953
13450.0 0.00091314
13470.0 0.00090656
13490.0 0.00089978
13510.0 0.00089227
13530.0 0.0008844
13550.0 0.00087639
13570.0 0.00086791
13590.0 0.00085885
13610.0 0.00084974
13630.0 0.0008406
13650.0 0.00083092
13670.0 0.00082116
13690.0 0.00081164
13710.0 0.00080196
13730.0 0.00079187
13750.0 0.00078236
13770.0 0.00077302
13790.0 0.0007635
13810.0 0.00075418
13830.0 0.00074539
13850.0 0.00073652
13870.0 0.00072773
13890.0 0.00071948
13910.0 0.00071161
13930.0 0.00070381
13950.0 0.00069645
13970.0 0.00068985
13990.0 0.00068348
14010.0 0.00067747
14030.0 0.00067208
14050.0 0.00066714
14070.0 0.00066235
14090.0 0.00065805
14110.0 0.00065417
14130.0 0.00065049
14150.0 0.00064697
14170.0 0.00064379
14190.0 0.00064077
14210.0 0.00063776
14230.0 0.00063489
14250.0 0.00063216
14270.0 0.00062936
14290.0 0.00062653
14310.0 0.00062385
14330.0 0.00062114
14350.0 0.00061834
14370.0 0.00061557
14390.0 0.00061289
14410.0 0.00061009
14430.0 0.00060728
14450.0 0.0006046
14470.0 0.00060193
14490.0 0.00059917
14510.0 0.00059654
14530.0 0.00059402
14550.0 0.0005914
14570.0 0.00058874
14590.0 0.00058615
14610.0 0.00058343
14630.0 0.0005805
14650.0 0.0005776
14670.0 0.00057471
14690.0 0.00057174
14710.0 0.00056886
14730.0 0.00056646
14750.0 0.00056443
14770.0 0.000563
14790.0 0.00056248
14810.0 0.00056298
14830.0 0.00056477
14850.0 0.000568
14870.0 0.00057255
14890.0 0.00057855
14910.0 0.00058597
14930.0 0.00059407
14950.0 0.00060242
14970.0 0.00061101
14990.0 0.00061889
15010.0 0.00062556
15030.0 0.00063113
15050.0 0.00063555
15070.0 0.00063864
15090.0 0.00064092
15110.0 0.00064265
15130.0 0.000644
15150.0 0.00064515
15170.0 0.00064622
15190.0 0.00064725
15210.0 0.00064829
15230.0 0.00064935
15250.0 0.00065043
15270.0 0.00065152
15290.0 0.00065265
15310.0 0.0006538
15330.0 0.00065497
15350.0 0.00065617
15370.0 0.00065739
15390.0 0.00065863
15410.0 0.00065989
15430.0 0.00066118
15450.0 0.00066248
15470.0 0.00066381
15490.0 0.00066516
15510.0 0.00066654
15530.0 0.00066793
15550.0 0.00066934
15570.0 0.00067078
15590.0 0.00067223
15610.0 0.00067369
15630.0 0.00067519
15650.0 0.0006767
15670.0 0.00067822
15690.0 0.00067977
15710.0 0.00068134
15730.0 0.00068292
15750.0 0.00068451
15770.0 0.00068613
15790.0 0.00068776
15810.0 0.0006894
15830.0 0.00069106
15850.0 0.00069274
15870.0 0.00069443
15890.0 0.00069613
15910.0 0.00069785
15930.0 0.00069958
15950.0 0.00070132
15970.0 0.00070308
15990.0 0.00070485
16010.0 0.00070662
16030.0 0.0007084
16050.0 0.0007102
16070.0 0.00071201
16090.0 0.00071382
16110.0 0.00071565
16130.0 0.00071748
16150.0 0.00071932
16170.0 0.00072116
16190.0 0.00072301
16210.0 0.00072487
16230.0 0.00072673
16250.0 0.00072859
16270.0 0.00073047
16290.0 0.00073233
16310.0 0.00073421
16330.0 0.00073609
16350.0 0.00073797
16370.0 0.00073984
16390.0 0.00074172
16410.0 0.0007436
16430.0 0.00074547
16450.0 0.00074735
16470.0 0.00074922
16490.0 0.00075109
16510.0 0.00075295
16530.0 0.00075481
16550.0 0.00075667
16570.0 0.00075851
16590.0 0.00076035
16610.0 0.00076219
16630.0 0.00076402
16650.0 0.00076584
16670.0 0.00076765
16690.0 0.00076945
16710.0 0.00077123
16730.0 0.00077301
16750.0 0.00077478
16770.0 0.00077653
16790.0 0.00077826
16810.0 0.00077999
16830.0 0.0007817
16850.0 0.00078339
16870.0 0.00078507
16890.0 0.00078673
16910.0 0.00078837
16930.0 0.00078999
16950.0 0.0007916
16970.0 0.00079319
16990.0 0.00079475
17010.0 0.00079629
17030.0 0.00079782
17050.0 0.00079932
17070.0 0.00080079
17090.0 0.00080225
17110.0 0.00080367
17130.0 0.00080507
17150.0 0.00080645
17170.0 0.0008078
17190.0 0.00080913
17210.0 0.00081042
17230.0 0.00081169
17250.0 0.00081293
17270.0 0.00081414
17290.0 0.00081532
17310.0 0.00081647
17330.0 0.00081758
17350.0 0.00081866
17370.0 0.00081972
17390.0 0.00082074
17410.0 0.00082172
17430.0 0.00082268
17450.0 0.0008236
17470.0 0.00082447
17490.0 0.00082532
17510.0 0.00082613
17530.0 0.0008269
17550.0 0.00082763
17570.0 0.00082833
17590.0 0.000829
17610.0 0.00082961
17630.0 0.00083019
17650.0 0.00083074
17670.0 0.00083124
17690.0 0.0008317
17710.0 0.00083212
17730.0 0.0008325
17750.0 0.00083284
17770.0 0.00083314
17790.0 0.0008334
17810.0 0.00083361
17830.0 0.00083377
17850.0 0.0008339
17870.0 0.00083399
17890.0 0.00083402
17910.0 0.00083402
17930.0 0.00083397
17950.0 0.00083388
17970.0 0.00083374
17990.0 0.00083356
18010.0 0.00083334
18030.0 0.00083306
18050.0 0.00083275
18070.0 0.00083239
18090.0 0.00083198
18110.0 0.00083152
18130.0 0.00083103
18150.0 0.00083048
18170.0 0.00082989
18190.0 0.00082926
18210.0 0.00082858
18230.0 0.00082785
18250.0 0.00082707
18270.0 0.00082626
18290.0 0.00082539
18310.0 0.00082448
18330.0 0.00082352
18350.0 0.00082253
18370.0 0.00082148
18390.0 0.00082038
18410.0 0.00081925
18430.0 0.00081806
18450.0 0.00081683
18470.0 0.00081556
18490.0 0.00081424
18510.0 0.00081288
18530.0 0.00081147
18550.0 0.00081002
18570.0 0.00080853
18590.0 0.00080699
18610.0 0.00080541
18630.0 0.00080378
18650.0 0.00080211
18670.0 0.0008004
18690.0 0.00079865
18710.0 0.00079686
18730.0 0.00079502
18750.0 0.00079315
18770.0 0.00079123
18790.0 0.00078927
18810.0 0.00078727
18830.0 0.00078523
18850.0 0.00078315
18870.0 0.00078103
18890.0 0.00077888
18910.0 0.00077669
18930.0 0.00077445
18950.0 0.00077218
18970.0 0.00076988
18990.0 0.00076754
19010.0 0.00076515
19030.0 0.00076274
19050.0 0.00076029
19070.0 0.00075781
19090.0 0.00075529
19110.0 0.00075274
19130.0 0.00075015
19150.0 0.00074753
19170.0 0.00074489
19190.0 0.00074221
19210.0 0.00073949
19230.0 0.00073675
19250.0 0.00073398
19270.0 0.00073118
19290.0 0.00072835
19310.0 0.00072549
19330.0 0.00072261
19350.0 0.00071969
19370.0 0.00071675
19390.0 0.00071378
19410.0 0.00071079
19430.0 0.00070777
19450.0 0.00070474
19470.0 0.00070167
19490.0 0.00069858
19510.0 0.00069547
19530.0 0.00069234
19550.0 0.00068919
19570.0 0.00068601
19590.0 0.00068282
19610.0 0.00067961
19630.0 0.00067637
19650.0 0.00067312
19670.0 0.00066986
19690.0 0.00066657
19710.0 0.00066327
19730.0 0.00065995
19750.0 0.00065662
19770.0 0.00065326
19790.0 0.0006499
19810.0 0.00064652
19830.0 0.00064311
19850.0 0.00063967
19870.0 0.00063617
19890.0 0.00063255
19910.0 0.00062871
19930.0 0.00062456
19950.0 0.00061994
19970.0 0.0006146
19990.0 0.00060841
20010.0 0.00060147
20030.0 0.0005935
20050.0 0.00058456
20070.0 0.00057509
20090.0 0.00056519
20110.0 0.00055451
20130.0 0.0005439
20150.0 0.00053352
20170.0 0.00052302
20190.0 0.00051253
20210.0 0.00050255
20230.0 0.00049278
20250.0 0.00048299
20270.0 0.00047363
20290.0 0.00046475
20310.0 0.00045602
20330.0 0.00044747
20350.0 0.00043967
20370.0 0.00043218
20390.0 0.00042494
20410.0 0.0004182
20430.0 0.00041199
20450.0 0.00040599
20470.0 0.00040042
20490.0 0.00039535
20510.0 0.00039064
20530.0 0.00038623
20550.0 0.00038223
20570.0 0.00037858
20590.0 0.00037518
20610.0 0.00037205
20630.0 0.00036918
20650.0 0.0003665
20670.0 0.00036398
20690.0 0.00036161
20710.0 0.00035932
20730.0 0.00035711
20750.0 0.00035492
20770.0 0.00035273
20790.0 0.00035051
20810.0 0.00034823
20830.0 0.00034587
20850.0 0.00034341
20870.0 0.00034083
20890.0 0.00033811
20910.0 0.00033526
20930.0 0.00033227
20950.0 0.00032911
20970.0 0.00032582
20990.0 0.00032243
21010.0 0.00031884
21030.0 0.00031515
21050.0 0.00031139
21070.0 0.00030752
21090.0 0.0003035
21110.0 0.0002995
21130.0 0.00029548
21150.0 0.00029135
21170.0 0.00028723
21190.0 0.00028316
21210.0 0.00027904
21230.0 0.00027488
21250.0 0.00027085
21270.0 0.00026685
21290.0 0.00026285
21310.0 0.00025892
21330.0 0.00025514
21350.0 0.00025138
21370.0 0.00024768
21390.0 0.00024413
21410.0 0.0002407
21430.0 0.00023728
21450.0 0.00023403
21470.0 0.00023095
21490.0 0.00022796
21510.0 0.00022508
21530.0 0.00022237
21550.0 0.00021978
21570.0 0.00021729
21590.0 0.00021493
21610.0 0.0002127
21630.0 0.00021055
21650.0 0.00020849
21670.0 0.00020654
21690.0 0.00020465
21710.0 0.00020281
21730.0 0.00020103
21750.0 0.0001993
21770.0 0.00019758
21790.0 0.00019589
21810.0 0.00019421
21830.0 0.00019255
21850.0 0.00019087
21870.0 0.0001892
21890.0 0.00018754
21910.0 0.00018585
21930.0 0.00018416
21950.0 0.00018246
21970.0 0.00018074
21990.0 0.000179
22010.0 0.00017724
22030.0 0.00017548
22050.0 0.00017368
22070.0 0.00017185
22090.0 0.00017002
22110.0 0.00016815
22130.0 0.00016623
22150.0 0.0001643
22170.0 0.00016234
22190.0 0.00016032
22210.0 0.00015827
22230.0 0.00015623
22250.0 0.00015413
22270.0 0.00015198
22290.0 0.00014984
22310.0 0.00014769
22330.0 0.00014545
22350.0 0.00014322
22370.0 0.00014101
22390.0 0.00013876
22410.0 0.00013645
22430.0 0.00013421
22450.0 0.00013197
22470.0 0.00012969
22490.0 0.00012743
22510.0 0.00012522
22530.0 0.00012299
22550.0 0.00012075
22570.0 0.00011859
22590.0 0.00011648
22610.0 0.00011436
22630.0 0.0001123
22650.0 0.00011034
22670.0 0.0001084
22690.0 0.00010651
22710.0 0.00010472
22730.0 0.00010301
22750.0 0.00010131
22770.0 9.9724e-05
22790.0 9.8237e-05
22810.0 9.6799e-05
22830.0 9.543e-05
22850.0 9.4158e-05
22870.0 9.2946e-05
22890.0 9.178e-05
22910.0 9.0688e-05
22930.0 8.9661e-05
22950.0 8.8671e-05
22970.0 8.7722e-05
22990.0 8.6835e-05
23010.0 8.5976e-05
23030.0 8.5142e-05
23050.0 8.4341e-05
23070.0 8.3568e-05
23090.0 8.2802e-05
23110.0 8.2053e-05
23130.0 8.1324e-05
23150.0 8.0602e-05
23170.0 7.9879e-05
23190.0 7.9164e-05
23210.0 7.8454e-05
23230.0 7.7732e-05
23250.0 7.7002e-05
23270.0 7.627e-05
23290.0 7.552e-05
