#lamb flux
1010.0 1.0892e-07
1030.0 1.2002e-07
1050.0 1.328e-07
1070.0 1.4718e-07
1090.0 1.6351e-07
1110.0 1.8027e-07
1130.0 1.9713e-07
1150.0 2.148e-07
1170.0 2.3302e-07
1190.0 2.5029e-07
1210.0 2.678e-07
1230.0 2.859e-07
1250.0 3.0363e-07
1270.0 3.2085e-07
1290.0 3.3904e-07
1310.0 3.5722e-07
1330.0 3.7465e-07
1350.0 3.9228e-07
1370.0 4.1048e-07
1390.0 4.2823e-07
1410.0 4.4545e-07
1430.0 4.6345e-07
1450.0 4.8144e-07
1470.0 4.9883e-07
1490.0 5.1641e-07
1510.0 5.3498e-07
1530.0 5.5256e-07
1550.0 5.6991e-07
1570.0 5.8785e-07
1590.0 6.058e-07
1610.0 6.2295e-07
1630.0 6.4062e-07
1650.0 6.5875e-07
1670.0 6.7628e-07
1690.0 6.9356e-07
1710.0 7.115e-07
1730.0 7.2953e-07
1750.0 7.4645e-07
1770.0 7.6384e-07
1790.0 7.8157e-07
1810.0 7.9868e-07
1830.0 8.1544e-07
1850.0 8.3321e-07
1870.0 8.5045e-07
1890.0 8.6704e-07
1910.0 8.8388e-07
1930.0 9.0107e-07
1950.0 9.1734e-07
1970.0 9.333e-07
1990.0 9.4977e-07
2010.0 9.658e-07
2030.0 9.8105e-07
2050.0 9.9664e-07
2070.0 1.0125e-06
2090.0 1.027e-06
2110.0 1.0413e-06
2130.0 1.0559e-06
2150.0 1.0698e-06
2170.0 1.0827e-06
2190.0 1.0958e-06
2210.0 1.1087e-06
2230.0 1.1205e-06
2250.0 1.1318e-06
2270.0 1.1434e-06
2290.0 1.154e-06
2310.0 1.1635e-06
2330.0 1.1729e-06
2350.0 1.182e-06
2370.0 1.1901e-06
2390.0 1.198e-06
2410.0 1.2067e-06
2430.0 1.2154e-06
2450.0 1.2248e-06
2470.0 1.2368e-06
2490.0 1.2531e-06
2510.0 1.2737e-06
2530.0 1.3048e-06
2550.0 1.3556e-06
2570.0 1.4334e-06
2590.0 1.5472e-06
2610.0 1.7231e-06
2630.0 1.9622e-06
2650.0 2.2466e-06
2670.0 2.5756e-06
2690.0 2.9323e-06
2710.0 3.2638e-06
2730.0 3.5479e-06
2750.0 3.791e-06
2770.0 3.9703e-06
2790.0 4.0885e-06
2810.0 4.1678e-06
2830.0 4.2234e-06
2850.0 4.2557e-06
2870.0 4.2793e-06
2890.0 4.3022e-06
2910.0 4.3235e-06
2930.0 4.3408e-06
2950.0 4.3607e-06
2970.0 4.3821e-06
2990.0 4.4003e-06
3010.0 5.162e-05
3030.0 5.1848e-05
3050.0 5.2059e-05
3070.0 5.2188e-05
3090.0 5.2278e-05
3110.0 5.226e-05
3130.0 5.2049e-05
3150.0 5.1612e-05
3170.0 5.0893e-05
3190.0 4.9908e-05
3210.0 4.8773e-05
3230.0 4.7612e-05
3250.0 4.6686e-05
3270.0 4.6115e-05
3290.0 4.6144e-05
3310.0 4.6664e-05
3330.0 4.7846e-05
3350.0 4.9503e-05
3370.0 5.1665e-05
3390.0 5.4248e-05
3410.0 5.6958e-05
3430.0 5.9904e-05
3450.0 6.3163e-05
3470.0 6.6567e-05
3490.0 7.0024e-05
3510.0 7.379e-05
3530.0 7.7707e-05
3550.0 8.1533e-05
3570.0 8.5437e-05
3590.0 8.9726e-05
3610.0 9.3925e-05
3630.0 9.8251e-05
3650.0 0.00010254
3670.0 0.00010646
3690.0 0.00010947
3710.0 0.00011149
3730.0 0.00011257
3750.0 0.00011291
3770.0 0.0001052
3790.0 9.7632e-05
3810.0 8.5773e-05
3830.0 6.4119e-05
3850.0 4.6696e-05
3870.0 4.5696e-05
3890.0 5.7382e-05
3910.0 8.9156e-05
3930.0 0.00011858
3950.0 0.00013375
3970.0 0.00014044
3990.0 0.00014995
4010.0 0.00016606
4030.0 0.0001659
4050.0 0.00015614
4070.0 0.0001449
4090.0 0.00013869
4110.0 0.00014886
4130.0 0.00015301
4150.0 0.00015315
4170.0 0.0001574
4190.0 0.00015742
4210.0 0.00016083
4230.0 0.00017394
4250.0 0.00019018
4270.0 0.00019823
4290.0 0.00019636
4310.0 0.00020005
4330.0 0.0002138
4350.0 0.00024769
4370.0 0.00027852
4390.0 0.0002617
4410.0 0.00021546
4430.0 0.00018439
4450.0 0.00015602
4470.0 0.00014444
4490.0 0.00016313
4510.0 0.00019377
4530.0 0.00021438
4550.0 0.00023671
4570.0 0.00027674
4590.0 0.00033917
4610.0 0.00044537
4630.0 0.00053733
4650.0 0.00054423
4670.0 0.00053973
4690.0 0.00057287
4710.0 0.00057843
4730.0 0.00048099
4750.0 0.00036285
4770.0 0.00029403
4790.0 0.00028456
4810.0 0.00027043
4830.0 0.00026966
4850.0 0.00031813
4870.0 0.00039569
4890.0 0.00042433
4910.0 0.00036777
4930.0 0.0003465
4950.0 0.00040199
4970.0 0.00052924
4990.0 0.00064795
5010.0 0.00066278
5030.0 0.00053152
5050.0 0.00036323
5070.0 0.00026725
5090.0 0.00023068
5110.0 0.0002276
5130.0 0.00024675
5150.0 0.00025555
5170.0 0.00025217
5190.0 0.00025024
5210.0 0.00024458
5230.0 0.00025697
5250.0 0.00028076
5270.0 0.00032128
5290.0 0.0003716
5310.0 0.00040435
5330.0 0.00041768
5350.0 0.00044295
5370.0 0.00048509
5390.0 0.00050217
5410.0 0.0004622
5430.0 0.00040826
5450.0 0.00040181
5470.0 0.00047863
5490.0 0.00060591
5510.0 0.00073607
5530.0 0.00079551
5550.0 0.00077039
5570.0 0.00071327
5590.0 0.00064519
5610.0 0.00061783
5630.0 0.00061985
5650.0 0.00062253
5670.0 0.00061014
5690.0 0.00057618
5710.0 0.00055018
5730.0 0.00048813
5750.0 0.00037506
5770.0 0.00032896
5790.0 0.00035601
5810.0 0.00041533
5830.0 0.00047141
5850.0 0.00050441
5870.0 0.0005057
5890.0 0.00047113
5910.0 0.00045632
5930.0 0.0004613
5950.0 0.00048376
5970.0 0.00049953
5990.0 0.0004559
6010.0 0.0003764
6030.0 0.00031158
6050.0 0.00028555
6070.0 0.00029708
6090.0 0.0003282
6110.0 0.00033486
6130.0 0.00031199
6150.0 0.00030378
6170.0 0.00033328
6190.0 0.0003988
6210.0 0.00047897
6230.0 0.00053383
6250.0 0.00052939
6270.0 0.00046831
6290.0 0.00038623
6310.0 0.00030953
6330.0 0.00025604
6350.0 0.00024247
6370.0 0.00026609
6390.0 0.00030579
6410.0 0.00035521
6430.0 0.00041049
6450.0 0.00048234
6470.0 0.00059637
6490.0 0.00072725
6510.0 0.00076987
6530.0 0.00072556
6550.0 0.00069227
6570.0 0.00068419
6590.0 0.00065639
6610.0 0.0006049
6630.0 0.00056303
6650.0 0.00054028
6670.0 0.00053931
6690.0 0.00052392
6710.0 0.00047135
6730.0 0.00040878
6750.0 0.00037493
6770.0 0.00039458
6790.0 0.00042395
6810.0 0.00043699
6830.0 0.00044276
6850.0 0.00042675
6870.0 0.00040695
6890.0 0.00039418
6910.0 0.00037557
6930.0 0.00036294
6950.0 0.00036623
6970.0 0.00037964
6990.0 0.00041718
7010.0 0.00043559
7030.0 0.00041585
7050.0 0.00038103
7070.0 0.00033186
7090.0 0.00028205
7110.0 0.00026427
7130.0 0.00027585
7150.0 0.00028773
7170.0 0.00029539
7190.0 0.00028975
7210.0 0.00028831
7230.0 0.00032283
7250.0 0.00037516
7270.0 0.00042151
7290.0 0.00044525
7310.0 0.00041651
7330.0 0.00037222
7350.0 0.00033941
7370.0 0.00033131
7390.0 0.00034674
7410.0 0.00037271
7430.0 0.00040992
7450.0 0.00045334
7470.0 0.00049287
7490.0 0.00050177
7510.0 0.00043629
7530.0 0.00043258
7550.0 0.00039188
7570.0 0.00033465
7590.0 0.0002693
7610.0 0.00025166
7630.0 0.00027426
7650.0 0.00031958
7670.0 0.00036636
7690.0 0.00040474
7710.0 0.00044444
7730.0 0.00048001
7750.0 0.00050553
7770.0 0.00049804
7790.0 0.00049517
7810.0 0.00050422
7830.0 0.0004995
7850.0 0.0004798
7870.0 0.0004508
7890.0 0.00041501
7910.0 0.00036753
7930.0 0.00032619
7950.0 0.00030032
7970.0 0.00029341
7990.0 0.00030369
8010.0 0.00031042
8030.0 0.00031457
8050.0 0.00031783
8070.0 0.00031441
8090.0 0.00031344
8110.0 0.00030223
8130.0 0.00028241
8150.0 0.00026673
8170.0 0.00026388
8190.0 0.00026846
8210.0 0.00027103
8230.0 0.00026874
8250.0 0.00025969
8270.0 0.00022932
8290.0 0.00018134
8310.0 0.000132
8330.0 8.8815e-05
8350.0 6.3463e-05
8370.0 6.4443e-05
8390.0 7.816e-05
8410.0 9.8749e-05
8430.0 0.00012057
8450.0 0.0001325
8470.0 0.00013912
8490.0 0.00014585
8510.0 0.00015359
8530.0 0.0001705
8550.0 0.00019858
8570.0 0.00023353
8590.0 0.0002698
8610.0 0.00031487
8630.0 0.00036584
8650.0 0.0003969
8670.0 0.000397
8690.0 0.0003832
8710.0 0.00036386
8730.0 0.00034879
8750.0 0.00033476
8770.0 0.00032584
8790.0 0.00031302
8810.0 0.00029068
8830.0 0.00026587
8850.0 0.00022825
8870.0 0.00020205
8890.0 0.00018751
8910.0 0.00019697
8930.0 0.00019333
8950.0 0.00019872
8970.0 0.00020112
8990.0 0.000204
9010.0 0.00020753
9030.0 0.00020472
9050.0 0.00020454
9070.0 0.00020468
9090.0 0.00020484
9110.0 0.00020494
9130.0 0.00020513
9150.0 0.00020542
9170.0 0.0002056
9190.0 0.00020564
9210.0 0.00020677
9230.0 0.00020694
9250.0 0.00020724
9270.0 0.0002076
9290.0 0.00020799
9310.0 0.00020843
9330.0 0.0002089
9350.0 0.0002094
9370.0 0.00020993
9390.0 0.00021049
9410.0 0.00021106
9430.0 0.00021166
9450.0 0.00021229
9470.0 0.00021294
9490.0 0.00021361
9510.0 0.0002143
9530.0 0.00021502
9550.0 0.00021576
9570.0 0.00021651
9590.0 0.00021729
9610.0 0.00021809
9630.0 0.0002189
9650.0 0.00021974
9670.0 0.00022059
9690.0 0.00022146
9710.0 0.00022234
9730.0 0.00022325
9750.0 0.00022417
9770.0 0.00022509
9790.0 0.00022604
9810.0 0.000227
9830.0 0.00022796
9850.0 0.00022894
9870.0 0.00022994
9890.0 0.00023094
9910.0 0.00023194
9930.0 0.00023295
9950.0 0.00023392
9970.0 0.00023496
9990.0 0.000236
10010.0 0.00023678
10030.0 0.00023782
10050.0 0.0002388
10070.0 0.00023953
10090.0 0.00024068
10110.0 0.0002418
10130.0 0.00024289
10150.0 0.00024397
10170.0 0.00024502
10190.0 0.00024602
10210.0 0.00024704
10230.0 0.00024805
10250.0 0.00024903
10270.0 0.00025
10290.0 0.00025098
10310.0 0.00025192
10330.0 0.00025283
10350.0 0.00025375
10370.0 0.00025466
10390.0 0.00025553
10410.0 0.00025638
10430.0 0.00025724
10450.0 0.00025806
10470.0 0.00025884
10490.0 0.00025962
10510.0 0.00026039
10530.0 0.00026108
10550.0 0.00026177
10570.0 0.00026246
10590.0 0.0002631
10610.0 0.0002637
10630.0 0.00026429
10650.0 0.00026485
10670.0 0.00026535
10690.0 0.00026584
10710.0 0.00026631
10730.0 0.00026672
10750.0 0.00026708
10770.0 0.00026745
10790.0 0.00026778
10810.0 0.00026804
10830.0 0.00026827
10850.0 0.00026847
10870.0 0.00026853
10890.0 0.00026843
10910.0 0.00026813
10930.0 0.00026746
10950.0 0.00026616
10970.0 0.00026414
10990.0 0.00026135
11010.0 0.00025264
11030.0 0.00024748
11050.0 0.00024155
11070.0 0.00023474
11090.0 0.00022681
11110.0 0.00021887
11130.0 0.00021085
11150.0 0.00020254
11170.0 0.00019437
11190.0 0.00018686
11210.0 0.00017956
11230.0 0.0001726
11250.0 0.00016645
11270.0 0.00016101
11290.0 0.00015601
11310.0 0.00015167
11330.0 0.00014814
11350.0 0.000145
11370.0 0.00014221
11390.0 0.00013981
11410.0 0.0001376
11430.0 0.00013533
11450.0 0.00013305
11470.0 0.0001307
11490.0 0.0001281
11510.0 0.00012515
11530.0 0.00012206
11550.0 0.00011875
11570.0 0.0001151
11590.0 0.0001113
11610.0 0.00010753
11630.0 0.0001036
11650.0 9.9609e-05
11670.0 9.5909e-05
11690.0 9.2377e-05
11710.0 8.8956e-05
11730.0 8.5834e-05
11750.0 8.3091e-05
11770.0 8.0521e-05
11790.0 7.8195e-05
11810.0 7.6181e-05
11830.0 7.4372e-05
11850.0 7.2654e-05
11870.0 7.111e-05
11890.0 6.9686e-05
11910.0 6.8257e-05
11930.0 6.6809e-05
11950.0 6.5378e-05
11970.0 6.3884e-05
11990.0 6.2263e-05
12010.0 6.0612e-05
12030.0 5.8938e-05
12050.0 5.7181e-05
12070.0 5.5383e-05
12090.0 5.3712e-05
12110.0 5.2089e-05
12130.0 5.0541e-05
12150.0 4.9184e-05
12170.0 4.805e-05
12190.0 4.7098e-05
12210.0 4.6433e-05
12230.0 4.6071e-05
12250.0 4.5999e-05
12270.0 4.6248e-05
12290.0 4.6787e-05
12310.0 4.7567e-05
12330.0 4.8642e-05
12350.0 4.9941e-05
12370.0 5.1358e-05
12390.0 5.2921e-05
12410.0 5.4664e-05
12430.0 5.6326e-05
12450.0 5.7938e-05
12470.0 5.9537e-05
12490.0 6.1009e-05
12510.0 6.2254e-05
12530.0 6.3361e-05
12550.0 6.4279e-05
12570.0 6.4928e-05
12590.0 6.5337e-05
12610.0 6.5527e-05
12630.0 6.5466e-05
12650.0 6.5174e-05
12670.0 6.468e-05
12690.0 6.3985e-05
12710.0 6.3138e-05
12730.0 6.2163e-05
12750.0 6.1025e-05
12770.0 5.9808e-05
12790.0 5.855e-05
12810.0 5.7215e-05
12830.0 5.5809e-05
12850.0 5.4429e-05
12870.0 5.3035e-05
12890.0 5.1579e-05
12910.0 5.0124e-05
12930.0 4.8692e-05
12950.0 4.7196e-05
12970.0 4.5654e-05
12990.0 4.4162e-05
13010.0 4.2658e-05
13030.0 4.111e-05
13050.0 3.9595e-05
13070.0 3.8156e-05
13090.0 3.6708e-05
13110.0 3.5315e-05
13130.0 3.4047e-05
13150.0 3.2877e-05
13170.0 3.1783e-05
13190.0 3.0865e-05
13210.0 3.0115e-05
13230.0 2.9504e-05
13250.0 2.9059e-05
13270.0 2.8786e-05
13290.0 2.8666e-05
13310.0 2.8704e-05
13330.0 2.8882e-05
13350.0 2.9174e-05
13370.0 2.9587e-05
13390.0 3.0101e-05
13410.0 3.0641e-05
13430.0 3.1233e-05
13450.0 3.1869e-05
13470.0 3.249e-05
13490.0 3.3077e-05
13510.0 3.3678e-05
13530.0 3.4227e-05
13550.0 3.4701e-05
13570.0 3.5129e-05
13590.0 3.5511e-05
13610.0 3.5818e-05
13630.0 3.6057e-05
13650.0 3.6257e-05
13670.0 3.6398e-05
13690.0 3.6483e-05
13710.0 3.6525e-05
13730.0 3.6527e-05
13750.0 3.6481e-05
13770.0 3.6397e-05
13790.0 3.6275e-05
13810.0 3.6113e-05
13830.0 3.5919e-05
13850.0 3.5685e-05
13870.0 3.5408e-05
13890.0 3.51e-05
13910.0 3.476e-05
13930.0 3.4375e-05
13950.0 3.3962e-05
13970.0 3.3543e-05
13990.0 3.3097e-05
14010.0 3.2636e-05
14030.0 3.2187e-05
14050.0 3.1749e-05
14070.0 3.1307e-05
14090.0 3.09e-05
14110.0 3.0533e-05
14130.0 3.0196e-05
14150.0 2.9898e-05
14170.0 2.9658e-05
14190.0 2.9466e-05
14210.0 2.9322e-05
14230.0 2.9236e-05
14250.0 2.9203e-05
14270.0 2.9226e-05
14290.0 2.9307e-05
14310.0 2.9434e-05
14330.0 2.9607e-05
14350.0 2.9831e-05
14370.0 3.0088e-05
14390.0 3.0363e-05
14410.0 3.0676e-05
14430.0 3.1008e-05
14450.0 3.1339e-05
14470.0 3.168e-05
14490.0 3.2047e-05
14510.0 3.2407e-05
14530.0 3.2768e-05
14550.0 3.3162e-05
14570.0 3.3588e-05
14590.0 3.4033e-05
14610.0 3.4537e-05
14630.0 3.5127e-05
14650.0 3.5773e-05
14670.0 3.6485e-05
14690.0 3.7308e-05
14710.0 3.8236e-05
14730.0 3.9186e-05
14750.0 4.0226e-05
14770.0 4.1355e-05
14790.0 4.2493e-05
14810.0 4.362e-05
14830.0 4.4816e-05
14850.0 4.596e-05
14870.0 4.7004e-05
14890.0 4.7987e-05
14910.0 4.8888e-05
14930.0 4.9635e-05
14950.0 5.0236e-05
14970.0 5.0724e-05
14990.0 5.1062e-05
15010.0 5.1263e-05
15030.0 5.1361e-05
15050.0 5.1367e-05
15070.0 5.1306e-05
15090.0 5.1204e-05
15110.0 5.1071e-05
15130.0 5.0923e-05
15150.0 5.0774e-05
15170.0 5.0616e-05
15190.0 5.0455e-05
15210.0 5.0299e-05
15230.0 5.0145e-05
15250.0 4.9986e-05
15270.0 4.9829e-05
15290.0 4.9681e-05
15310.0 4.9528e-05
15330.0 4.9374e-05
15350.0 4.9227e-05
15370.0 4.9081e-05
15390.0 4.8927e-05
15410.0 4.8778e-05
15430.0 4.8634e-05
15450.0 4.8487e-05
15470.0 4.8338e-05
15490.0 4.8196e-05
15510.0 4.8054e-05
15530.0 4.7908e-05
15550.0 4.7765e-05
15570.0 4.7627e-05
15590.0 4.7482e-05
15610.0 4.7336e-05
15630.0 4.7198e-05
15650.0 4.7059e-05
15670.0 4.6916e-05
15690.0 4.6776e-05
15710.0 4.6642e-05
15730.0 4.65e-05
15750.0 4.6359e-05
15770.0 4.6223e-05
15790.0 4.6086e-05
15810.0 4.5942e-05
15830.0 4.5805e-05
15850.0 4.5671e-05
15870.0 4.5532e-05
15890.0 4.5392e-05
15910.0 4.5259e-05
15930.0 4.5122e-05
15950.0 4.498e-05
15970.0 4.4843e-05
15990.0 4.4709e-05
16010.0 4.4569e-05
16030.0 4.4427e-05
16050.0 4.4295e-05
16070.0 4.4158e-05
16090.0 4.4018e-05
16110.0 4.3881e-05
16130.0 4.3748e-05
16150.0 4.3604e-05
16170.0 4.3464e-05
16190.0 4.3329e-05
16210.0 4.319e-05
16230.0 4.3047e-05
16250.0 4.291e-05
16270.0 4.2775e-05
16290.0 4.2632e-05
16310.0 4.2491e-05
16330.0 4.2355e-05
16350.0 4.2214e-05
16370.0 4.2067e-05
16390.0 4.1928e-05
16410.0 4.179e-05
16430.0 4.1646e-05
16450.0 4.1502e-05
16470.0 4.1365e-05
16490.0 4.1221e-05
16510.0 4.1074e-05
16530.0 4.0933e-05
16550.0 4.0791e-05
16570.0 4.0642e-05
16590.0 4.0495e-05
16610.0 4.0355e-05
16630.0 4.0209e-05
16650.0 4.0061e-05
16670.0 3.9917e-05
16690.0 3.9773e-05
16710.0 3.962e-05
16730.0 3.9472e-05
16750.0 3.9327e-05
16770.0 3.9178e-05
16790.0 3.9025e-05
16810.0 3.8879e-05
16830.0 3.8731e-05
16850.0 3.8578e-05
16870.0 3.8427e-05
16890.0 3.828e-05
16910.0 3.8125e-05
16930.0 3.7968e-05
16950.0 3.7819e-05
16970.0 3.7667e-05
16990.0 3.7511e-05
17010.0 3.7357e-05
17030.0 3.7208e-05
17050.0 3.705e-05
17070.0 3.6892e-05
17090.0 3.6739e-05
17110.0 3.6584e-05
17130.0 3.6422e-05
17150.0 3.6265e-05
17170.0 3.6112e-05
17190.0 3.5952e-05
17210.0 3.5792e-05
17230.0 3.5638e-05
17250.0 3.5479e-05
17270.0 3.5314e-05
17290.0 3.5155e-05
17310.0 3.4998e-05
17330.0 3.4834e-05
17350.0 3.4669e-05
17370.0 3.4513e-05
17390.0 3.4352e-05
17410.0 3.4186e-05
17430.0 3.4025e-05
17450.0 3.3866e-05
17470.0 3.3697e-05
17490.0 3.3531e-05
17510.0 3.3371e-05
17530.0 3.3207e-05
17550.0 3.3038e-05
17570.0 3.2875e-05
17590.0 3.2713e-05
17610.0 3.2544e-05
17630.0 3.2378e-05
17650.0 3.2215e-05
17670.0 3.2048e-05
17690.0 3.1874e-05
17710.0 3.171e-05
17730.0 3.1546e-05
17750.0 3.1375e-05
17770.0 3.1207e-05
17790.0 3.1044e-05
17810.0 3.0874e-05
17830.0 3.0702e-05
17850.0 3.0535e-05
17870.0 3.0368e-05
17890.0 3.0195e-05
17910.0 3.0024e-05
17930.0 2.9859e-05
17950.0 2.9689e-05
17970.0 2.9516e-05
17990.0 2.935e-05
18010.0 2.9182e-05
18030.0 2.9006e-05
18050.0 2.8835e-05
18070.0 2.8668e-05
18090.0 2.8496e-05
18110.0 2.8322e-05
18130.0 2.8155e-05
18150.0 2.7986e-05
18170.0 2.7812e-05
18190.0 2.7641e-05
18210.0 2.7474e-05
18230.0 2.73e-05
18250.0 2.7124e-05
18270.0 2.6957e-05
18290.0 2.6787e-05
18310.0 2.6612e-05
18330.0 2.6442e-05
18350.0 2.6275e-05
18370.0 2.6101e-05
18390.0 2.5928e-05
18410.0 2.5759e-05
18430.0 2.5589e-05
18450.0 2.5412e-05
18470.0 2.5242e-05
18490.0 2.5075e-05
18510.0 2.4902e-05
18530.0 2.473e-05
18550.0 2.4563e-05
18570.0 2.4392e-05
18590.0 2.4217e-05
18610.0 2.4048e-05
18630.0 2.388e-05
18650.0 2.3707e-05
18670.0 2.3533e-05
18690.0 2.3368e-05
18710.0 2.3198e-05
18730.0 2.3026e-05
18750.0 2.2858e-05
18770.0 2.2692e-05
18790.0 2.2517e-05
18810.0 2.2346e-05
18830.0 2.2181e-05
18850.0 2.2011e-05
18870.0 2.1839e-05
18890.0 2.1673e-05
18910.0 2.1508e-05
18930.0 2.1336e-05
18950.0 2.1168e-05
18970.0 2.1003e-05
18990.0 2.0835e-05
19010.0 2.0661e-05
19030.0 2.0498e-05
19050.0 2.0333e-05
19070.0 2.0164e-05
19090.0 1.9997e-05
19110.0 1.9836e-05
19130.0 1.9667e-05
19150.0 1.9498e-05
19170.0 1.9335e-05
19190.0 1.9171e-05
19210.0 1.9002e-05
19230.0 1.8836e-05
19250.0 1.8676e-05
19270.0 1.8511e-05
19290.0 1.8345e-05
19310.0 1.8184e-05
19330.0 1.8023e-05
19350.0 1.7854e-05
19370.0 1.7691e-05
19390.0 1.7531e-05
19410.0 1.7368e-05
19430.0 1.7202e-05
19450.0 1.7045e-05
19470.0 1.6885e-05
19490.0 1.672e-05
19510.0 1.656e-05
19530.0 1.6403e-05
19550.0 1.6239e-05
19570.0 1.6075e-05
19590.0 1.5919e-05
19610.0 1.5761e-05
19630.0 1.5598e-05
19650.0 1.5441e-05
19670.0 1.5286e-05
19690.0 1.5125e-05
19710.0 1.4965e-05
19730.0 1.481e-05
19750.0 1.4654e-05
19770.0 1.4491e-05
19790.0 1.4336e-05
19810.0 1.4183e-05
19830.0 1.4024e-05
19850.0 1.3866e-05
19870.0 1.3713e-05
19890.0 1.3552e-05
19910.0 1.3382e-05
19930.0 1.3211e-05
19950.0 1.3029e-05
19970.0 1.2825e-05
19990.0 1.2601e-05
20010.0 1.2366e-05
20030.0 1.2105e-05
20050.0 1.1821e-05
20070.0 1.1535e-05
20090.0 1.1248e-05
20110.0 1.0946e-05
20130.0 1.0663e-05
20150.0 1.0402e-05
20170.0 1.015e-05
20190.0 9.9144e-06
20210.0 9.7084e-06
20230.0 9.5227e-06
20250.0 9.3517e-06
20270.0 9.2067e-06
20290.0 9.0863e-06
20310.0 8.9839e-06
20330.0 8.901e-06
20350.0 8.8436e-06
20370.0 8.8045e-06
20390.0 8.7843e-06
20410.0 8.7834e-06
20430.0 8.7994e-06
20450.0 8.8345e-06
20470.0 8.8875e-06
20490.0 8.9544e-06
20510.0 9.0366e-06
20530.0 9.1371e-06
20550.0 9.2486e-06
20570.0 9.3669e-06
20590.0 9.5005e-06
20610.0 9.6431e-06
20630.0 9.7868e-06
20650.0 9.9366e-06
20670.0 1.0097e-05
20690.0 1.0251e-05
20710.0 1.0402e-05
20730.0 1.0555e-05
20750.0 1.0706e-05
20770.0 1.0846e-05
20790.0 1.0986e-05
20810.0 1.1127e-05
20830.0 1.1262e-05
20850.0 1.1394e-05
20870.0 1.1532e-05
20890.0 1.1673e-05
20910.0 1.1809e-05
20930.0 1.1952e-05
20950.0 1.2103e-05
20970.0 1.2253e-05
20990.0 1.2403e-05
21010.0 1.2563e-05
21030.0 1.272e-05
21050.0 1.287e-05
21070.0 1.3017e-05
21090.0 1.3161e-05
21110.0 1.3287e-05
21130.0 1.3398e-05
21150.0 1.3498e-05
21170.0 1.358e-05
21190.0 1.364e-05
21210.0 1.3684e-05
21230.0 1.3706e-05
21250.0 1.3706e-05
21270.0 1.3686e-05
21290.0 1.3644e-05
21310.0 1.3582e-05
21330.0 1.3503e-05
21350.0 1.3404e-05
21370.0 1.3285e-05
21390.0 1.3155e-05
21410.0 1.3011e-05
21430.0 1.2846e-05
21450.0 1.2676e-05
21470.0 1.2503e-05
21490.0 1.232e-05
21510.0 1.2131e-05
21530.0 1.1949e-05
21550.0 1.1769e-05
21570.0 1.1586e-05
21590.0 1.1416e-05
21610.0 1.126e-05
21630.0 1.1112e-05
21650.0 1.0977e-05
21670.0 1.0867e-05
21690.0 1.0774e-05
21710.0 1.0699e-05
21730.0 1.0648e-05
21750.0 1.0619e-05
21770.0 1.0611e-05
21790.0 1.0627e-05
21810.0 1.0665e-05
21830.0 1.0724e-05
21850.0 1.0807e-05
21870.0 1.0909e-05
21890.0 1.1024e-05
21910.0 1.1161e-05
21930.0 1.1315e-05
21950.0 1.1476e-05
21970.0 1.1652e-05
21990.0 1.1848e-05
22010.0 1.2042e-05
22030.0 1.2241e-05
22050.0 1.245e-05
22070.0 1.2662e-05
22090.0 1.2864e-05
22110.0 1.307e-05
22130.0 1.3276e-05
22150.0 1.3469e-05
22170.0 1.3651e-05
22190.0 1.383e-05
22210.0 1.3993e-05
22230.0 1.4131e-05
22250.0 1.4256e-05
22270.0 1.4361e-05
22290.0 1.4441e-05
22310.0 1.4497e-05
22330.0 1.4529e-05
22350.0 1.4532e-05
22370.0 1.4508e-05
22390.0 1.4456e-05
22410.0 1.4371e-05
22430.0 1.4261e-05
22450.0 1.4126e-05
22470.0 1.3958e-05
22490.0 1.3766e-05
22510.0 1.3558e-05
22530.0 1.3318e-05
22550.0 1.3053e-05
22570.0 1.2781e-05
22590.0 1.2494e-05
22610.0 1.2185e-05
