#lamb flux
1010.0 3.8754e-11
1030.0 4.8745e-11
1050.0 6.0233e-11
1070.0 7.3166e-11
1090.0 8.7856e-11
1110.0 1.0292e-10
1130.0 1.1809e-10
1150.0 1.3397e-10
1170.0 1.5036e-10
1190.0 1.659e-10
1210.0 1.8164e-10
1230.0 1.9792e-10
1250.0 2.1386e-10
1270.0 2.2934e-10
1290.0 2.457e-10
1310.0 2.6205e-10
1330.0 2.7773e-10
1350.0 2.9359e-10
1370.0 3.0996e-10
1390.0 3.2592e-10
1410.0 3.4141e-10
1430.0 3.576e-10
1450.0 3.7379e-10
1470.0 3.8944e-10
1490.0 4.0526e-10
1510.0 4.2198e-10
1530.0 4.3782e-10
1550.0 4.5344e-10
1570.0 4.6962e-10
1590.0 4.8581e-10
1610.0 5.0129e-10
1630.0 5.1726e-10
1650.0 5.3365e-10
1670.0 5.4953e-10
1690.0 5.6521e-10
1710.0 5.8151e-10
1730.0 5.9792e-10
1750.0 6.1337e-10
1770.0 6.293e-10
1790.0 6.4558e-10
1810.0 6.6137e-10
1830.0 6.7691e-10
1850.0 6.9344e-10
1870.0 7.0958e-10
1890.0 7.2523e-10
1910.0 7.4123e-10
1930.0 7.5767e-10
1950.0 7.7343e-10
1970.0 7.8905e-10
1990.0 8.0532e-10
2010.0 8.2139e-10
2030.0 8.3696e-10
2050.0 8.5308e-10
2070.0 8.6967e-10
2090.0 8.8542e-10
2110.0 9.012e-10
2130.0 9.1754e-10
2150.0 9.3367e-10
2170.0 9.4922e-10
2190.0 9.6543e-10
2210.0 9.8186e-10
2230.0 9.9776e-10
2250.0 1.0137e-09
2270.0 1.0305e-09
2290.0 1.0469e-09
2310.0 1.0628e-09
2330.0 1.0792e-09
2350.0 1.096e-09
2370.0 1.1121e-09
2390.0 1.1285e-09
2410.0 1.1458e-09
2430.0 1.1628e-09
2450.0 1.1802e-09
2470.0 1.1994e-09
2490.0 1.2218e-09
2510.0 1.2476e-09
2530.0 1.2811e-09
2550.0 1.3274e-09
2570.0 1.3896e-09
2590.0 1.472e-09
2610.0 1.5898e-09
2630.0 1.746e-09
2650.0 1.9369e-09
2670.0 2.1727e-09
2690.0 2.4583e-09
2710.0 2.7712e-09
2730.0 3.1004e-09
2750.0 3.4567e-09
2770.0 3.8103e-09
2790.0 4.1391e-09
2810.0 4.4481e-09
2830.0 4.7373e-09
2850.0 4.9804e-09
2870.0 5.1955e-09
2890.0 5.3958e-09
2910.0 5.583e-09
2930.0 5.7606e-09
2950.0 5.9431e-09
2970.0 6.1327e-09
2990.0 6.3264e-09
3010.0 6.5282e-09
3030.0 6.7436e-09
3050.0 6.9693e-09
3070.0 7.1989e-09
3090.0 7.4422e-09
3110.0 7.701e-09
3130.0 7.9788e-09
3150.0 8.2945e-09
3170.0 8.6972e-09
3190.0 9.2217e-09
3210.0 9.9082e-09
3230.0 1.0822e-08
3250.0 1.1982e-08
3270.0 1.3087e-08
3290.0 1.4839e-08
3310.0 1.8429e-08
3330.0 1.9622e-08
3350.0 2.0209e-08
3370.0 2.0773e-08
3390.0 2.1346e-08
3410.0 2.1926e-08
3430.0 2.251e-08
3450.0 2.3094e-08
3470.0 2.3668e-08
3490.0 2.4221e-08
3510.0 2.4722e-08
3530.0 2.4501e-08
3550.0 2.3825e-08
3570.0 2.4175e-08
3590.0 2.5701e-08
3610.0 2.8011e-08
3630.0 2.893e-08
3650.0 2.7787e-08
3670.0 2.5521e-08
3690.0 2.4203e-08
3710.0 2.4509e-08
3730.0 2.5315e-08
3750.0 2.5749e-08
3770.0 2.6616e-08
3790.0 2.7585e-08
3810.0 2.7194e-08
3830.0 2.5344e-08
3850.0 2.3688e-08
3870.0 2.2902e-08
3890.0 2.264e-08
3910.0 2.2133e-08
3930.0 2.1877e-08
3950.0 2.2493e-08
3970.0 2.3215e-08
3990.0 2.3425e-08
4010.0 2.2564e-08
4030.0 2.1336e-08
4050.0 2.0547e-08
4070.0 1.9879e-08
4090.0 1.9339e-08
4110.0 1.8632e-08
4130.0 1.7518e-08
4150.0 1.6397e-08
4170.0 1.5732e-08
4190.0 1.467e-08
4210.0 1.3281e-08
4230.0 1.1874e-08
4250.0 1.0539e-08
4270.0 9.542e-09
4290.0 8.8049e-09
4310.0 8.4147e-09
4330.0 8.4008e-09
4350.0 8.4422e-09
4370.0 8.5229e-09
4390.0 8.8379e-09
4410.0 9.0556e-09
4430.0 8.742e-09
4450.0 7.9373e-09
4470.0 7.2339e-09
4490.0 6.8516e-09
4510.0 6.6059e-09
4530.0 6.483e-09
4550.0 6.3777e-09
4570.0 6.3508e-09
4590.0 6.438e-09
4610.0 6.6356e-09
4630.0 6.7534e-09
4650.0 6.8116e-09
4670.0 6.646e-09
4690.0 6.2505e-09
4710.0 5.8566e-09
4730.0 5.6014e-09
4750.0 5.4447e-09
4770.0 5.4643e-09
4790.0 5.4429e-09
4810.0 5.3262e-09
4830.0 5.3369e-09
4850.0 5.5033e-09
4870.0 5.5582e-09
4890.0 5.4582e-09
4910.0 5.3316e-09
4930.0 5.028e-09
4950.0 4.5901e-09
4970.0 4.2901e-09
4990.0 4.044e-09
5010.0 3.9913e-09
5030.0 4.1258e-09
5050.0 4.2315e-09
5070.0 4.3897e-09
5090.0 4.655e-09
5110.0 4.7259e-09
5130.0 4.7671e-09
5150.0 4.8551e-09
5170.0 4.8959e-09
5190.0 5.0243e-09
5210.0 5.0504e-09
5230.0 4.9984e-09
5250.0 5.0387e-09
5270.0 5.1089e-09
5290.0 5.1228e-09
5310.0 5.0845e-09
5330.0 4.9879e-09
5350.0 4.92e-09
5370.0 4.8677e-09
5390.0 4.8031e-09
5410.0 4.7498e-09
5430.0 4.7481e-09
5450.0 4.8178e-09
5470.0 4.9073e-09
5490.0 5.0465e-09
5510.0 5.1993e-09
5530.0 5.2634e-09
5550.0 5.3418e-09
5570.0 5.3533e-09
5590.0 5.2425e-09
5610.0 5.2044e-09
5630.0 5.2436e-09
5650.0 5.1802e-09
5670.0 5.0655e-09
5690.0 4.9138e-09
5710.0 4.9008e-09
5730.0 4.9525e-09
5750.0 4.7415e-09
5770.0 4.4983e-09
5790.0 4.1354e-09
5810.0 3.6175e-09
5830.0 3.8996e-09
5850.0 4.317e-09
5870.0 4.4105e-09
5890.0 4.4342e-09
5910.0 4.4704e-09
5930.0 4.461e-09
5950.0 4.3872e-09
5970.0 4.3348e-09
5990.0 4.2723e-09
6010.0 4.1422e-09
6030.0 4.0003e-09
6050.0 3.9378e-09
6070.0 3.92e-09
6090.0 3.8606e-09
6110.0 3.7319e-09
6130.0 3.6049e-09
6150.0 3.4603e-09
6170.0 3.3157e-09
6190.0 3.167e-09
6210.0 3.0552e-09
6230.0 3.0109e-09
6250.0 2.9471e-09
6270.0 2.8855e-09
6290.0 2.8631e-09
6310.0 2.8446e-09
6330.0 2.7821e-09
6350.0 2.6917e-09
6370.0 2.6402e-09
6390.0 2.5881e-09
6410.0 2.516e-09
6430.0 2.4478e-09
6450.0 2.3939e-09
6470.0 2.3427e-09
6490.0 2.3071e-09
6510.0 2.2671e-09
6530.0 2.2095e-09
6550.0 2.1606e-09
6570.0 2.1273e-09
6590.0 2.1238e-09
6610.0 2.1105e-09
6630.0 2.0399e-09
6650.0 1.9822e-09
6670.0 1.9616e-09
6690.0 1.9308e-09
6710.0 1.8844e-09
6730.0 1.8678e-09
6750.0 1.8823e-09
6770.0 1.9941e-09
6790.0 2.2285e-09
6810.0 2.1162e-09
6830.0 1.8589e-09
6850.0 1.7855e-09
6870.0 1.7581e-09
6890.0 1.7583e-09
6910.0 1.7621e-09
6930.0 1.7661e-09
6950.0 1.7607e-09
6970.0 1.716e-09
6990.0 1.7005e-09
7010.0 1.7258e-09
7030.0 1.7339e-09
7050.0 1.7087e-09
7070.0 1.6914e-09
7090.0 1.7024e-09
7110.0 1.742e-09
7130.0 1.7477e-09
7150.0 1.7542e-09
7170.0 1.7636e-09
7190.0 1.788e-09
7210.0 1.8073e-09
7230.0 1.8268e-09
7250.0 1.8511e-09
7270.0 1.8685e-09
7290.0 1.898e-09
7310.0 1.9329e-09
7330.0 1.918e-09
7350.0 1.8777e-09
7370.0 1.8522e-09
7390.0 1.8477e-09
7410.0 1.8554e-09
7430.0 1.8785e-09
7450.0 1.8902e-09
7470.0 1.9169e-09
7490.0 1.906e-09
7510.0 1.8852e-09
7530.0 1.9074e-09
7550.0 1.9664e-09
7570.0 1.9615e-09
7590.0 1.8602e-09
7610.0 1.8448e-09
7630.0 1.9493e-09
7650.0 1.9883e-09
7670.0 2.0017e-09
7690.0 2.0908e-09
7710.0 2.1584e-09
7730.0 2.1792e-09
7750.0 2.2928e-09
7770.0 2.2341e-09
7790.0 2.1811e-09
7810.0 2.3107e-09
7830.0 2.3993e-09
7850.0 2.4593e-09
7870.0 2.5078e-09
7890.0 2.527e-09
7910.0 2.5085e-09
7930.0 2.5258e-09
7950.0 2.6398e-09
7970.0 2.6391e-09
7990.0 2.4582e-09
8010.0 2.3582e-09
8030.0 2.4054e-09
8050.0 2.457e-09
8070.0 2.2227e-09
8090.0 1.4539e-09
8110.0 1.5183e-09
8130.0 2.1682e-09
8150.0 2.3351e-09
8170.0 2.4279e-09
8190.0 2.4806e-09
8210.0 2.4493e-09
8230.0 2.6554e-09
8250.0 2.7134e-09
8270.0 2.5659e-09
8290.0 2.4645e-09
8310.0 2.4286e-09
8330.0 2.5612e-09
8350.0 2.6824e-09
8370.0 2.6317e-09
8390.0 2.5097e-09
8410.0 2.5073e-09
8430.0 2.3491e-09
8450.0 2.4007e-09
8470.0 2.6234e-09
8490.0 2.6313e-09
8510.0 2.44e-09
8530.0 2.2867e-09
8550.0 2.1919e-09
8570.0 2.0658e-09
8590.0 2.1249e-09
8610.0 2.2548e-09
8630.0 2.3152e-09
8650.0 2.3552e-09
8670.0 2.2905e-09
8690.0 2.2372e-09
8710.0 2.0807e-09
8730.0 2.0061e-09
8750.0 2.0881e-09
8770.0 2.1208e-09
8790.0 2.1141e-09
8810.0 2.1041e-09
8830.0 2.149e-09
8850.0 2.2565e-09
8870.0 2.1071e-09
8890.0 1.9874e-09
8910.0 1.9581e-09
8930.0 1.8405e-09
8950.0 1.7732e-09
8970.0 1.7724e-09
8990.0 1.6966e-09
9010.0 1.5928e-09
9030.0 1.5566e-09
9050.0 1.5436e-09
9070.0 1.5321e-09
9090.0 1.5205e-09
9110.0 1.5088e-09
9130.0 1.497e-09
9150.0 1.4852e-09
9170.0 1.4734e-09
9190.0 1.4615e-09
9210.0 1.4496e-09
9230.0 1.4377e-09
9250.0 1.4258e-09
9270.0 1.414e-09
9290.0 1.4021e-09
9310.0 1.3903e-09
9330.0 1.3785e-09
9350.0 1.3667e-09
9370.0 1.355e-09
9390.0 1.3433e-09
9410.0 1.3318e-09
9430.0 1.3202e-09
9450.0 1.3088e-09
9470.0 1.2974e-09
9490.0 1.2861e-09
9510.0 1.2749e-09
9530.0 1.2637e-09
9550.0 1.2527e-09
9570.0 1.2417e-09
9590.0 1.2309e-09
9610.0 1.2201e-09
9630.0 1.2095e-09
9650.0 1.199e-09
9670.0 1.1885e-09
9690.0 1.1782e-09
9710.0 1.168e-09
9730.0 1.1578e-09
9750.0 1.1478e-09
9770.0 1.138e-09
9790.0 1.1282e-09
9810.0 1.1185e-09
9830.0 1.109e-09
9850.0 1.0995e-09
9870.0 1.0902e-09
9890.0 1.081e-09
9910.0 1.0719e-09
9930.0 1.0629e-09
9950.0 1.054e-09
9970.0 1.0452e-09
9990.0 1.0366e-09
10010.0 1.028e-09
10030.0 1.0196e-09
10050.0 1.0113e-09
10070.0 1.0031e-09
10090.0 9.9494e-10
10110.0 9.8693e-10
10130.0 9.7903e-10
10150.0 9.7123e-10
10170.0 9.6353e-10
10190.0 9.5593e-10
10210.0 9.4843e-10
10230.0 9.4103e-10
10250.0 9.3373e-10
10270.0 9.2651e-10
10290.0 9.194e-10
10310.0 9.1237e-10
10330.0 9.0544e-10
10350.0 8.9859e-10
10370.0 8.9184e-10
10390.0 8.8507e-10
10410.0 8.7711e-10
10430.0 8.6881e-10
10450.0 8.639e-10
10470.0 8.5824e-10
10490.0 8.5249e-10
10510.0 8.4666e-10
10530.0 8.4059e-10
10550.0 8.346e-10
10570.0 8.2877e-10
10590.0 8.2288e-10
10610.0 8.1701e-10
10630.0 8.1133e-10
10650.0 8.0571e-10
10670.0 8e-10
10690.0 7.9444e-10
10710.0 7.8903e-10
10730.0 7.8357e-10
10750.0 7.7808e-10
10770.0 7.7286e-10
10790.0 7.6766e-10
10810.0 7.624e-10
10830.0 7.5727e-10
10850.0 7.523e-10
10870.0 7.4717e-10
10890.0 7.421e-10
10910.0 7.3719e-10
10930.0 7.3226e-10
10950.0 7.2721e-10
10970.0 7.2221e-10
10990.0 7.1731e-10
11010.0 7.1219e-10
11030.0 7.0699e-10
11050.0 7.0185e-10
11070.0 6.9661e-10
11090.0 6.9107e-10
11110.0 6.8569e-10
11130.0 6.803e-10
11150.0 6.7472e-10
11170.0 6.6907e-10
11190.0 6.6359e-10
11210.0 6.5799e-10
11230.0 6.5225e-10
11250.0 6.467e-10
11270.0 6.413e-10
11290.0 6.3582e-10
11310.0 6.3048e-10
11330.0 6.2557e-10
11350.0 6.2075e-10
11370.0 6.1607e-10
11390.0 6.1174e-10
11410.0 6.0766e-10
11430.0 6.036e-10
11450.0 5.9978e-10
11470.0 5.9619e-10
11490.0 5.9265e-10
11510.0 5.8909e-10
11530.0 5.857e-10
11550.0 5.8235e-10
11570.0 5.7886e-10
11590.0 5.7536e-10
11610.0 5.7191e-10
11630.0 5.6827e-10
11650.0 5.6447e-10
11670.0 5.6075e-10
11690.0 5.5696e-10
11710.0 5.5298e-10
11730.0 5.4898e-10
11750.0 5.4509e-10
11770.0 5.4103e-10
11790.0 5.3691e-10
11810.0 5.3293e-10
11830.0 5.2898e-10
11850.0 5.249e-10
11870.0 5.21e-10
11890.0 5.1731e-10
11910.0 5.1363e-10
11930.0 5.1005e-10
11950.0 5.0676e-10
11970.0 5.0359e-10
11990.0 5.0049e-10
12010.0 4.9765e-10
12030.0 4.9505e-10
12050.0 4.9257e-10
12070.0 4.9024e-10
12090.0 4.8822e-10
12110.0 4.8634e-10
12130.0 4.8457e-10
12150.0 4.8297e-10
12170.0 4.8153e-10
12190.0 4.801e-10
12210.0 4.7874e-10
12230.0 4.7745e-10
12250.0 4.7613e-10
12270.0 4.7472e-10
12290.0 4.7325e-10
12310.0 4.717e-10
12330.0 4.6994e-10
12350.0 4.68e-10
12370.0 4.6593e-10
12390.0 4.6362e-10
12410.0 4.6096e-10
12430.0 4.5821e-10
12450.0 4.5529e-10
12470.0 4.5206e-10
12490.0 4.4864e-10
12510.0 4.452e-10
12530.0 4.4152e-10
12550.0 4.3761e-10
12570.0 4.3372e-10
12590.0 4.2979e-10
12610.0 4.2564e-10
12630.0 4.2146e-10
12650.0 4.175e-10
12670.0 4.1345e-10
12690.0 4.0936e-10
12710.0 4.0547e-10
12730.0 4.0171e-10
12750.0 3.9786e-10
12770.0 3.9424e-10
12790.0 3.9086e-10
12810.0 3.8757e-10
12830.0 3.8438e-10
12850.0 3.8152e-10
12870.0 3.7886e-10
12890.0 3.763e-10
12910.0 3.74e-10
12930.0 3.7197e-10
12950.0 3.7009e-10
12970.0 3.6842e-10
12990.0 3.6706e-10
13010.0 3.6591e-10
13030.0 3.6496e-10
13050.0 3.6423e-10
13070.0 3.6371e-10
13090.0 3.6334e-10
13110.0 3.631e-10
13130.0 3.6297e-10
13150.0 3.6288e-10
13170.0 3.628e-10
13190.0 3.6268e-10
13210.0 3.6249e-10
13230.0 3.6216e-10
13250.0 3.6167e-10
13270.0 3.6101e-10
13290.0 3.6016e-10
13310.0 3.5904e-10
13330.0 3.5772e-10
13350.0 3.5622e-10
13370.0 3.5445e-10
13390.0 3.5242e-10
13410.0 3.5032e-10
13430.0 3.48e-10
13450.0 3.4544e-10
13470.0 3.4278e-10
13490.0 3.4005e-10
13510.0 3.3702e-10
13530.0 3.3391e-10
13550.0 3.3081e-10
13570.0 3.2758e-10
13590.0 3.2419e-10
13610.0 3.2083e-10
13630.0 3.1752e-10
13650.0 3.1403e-10
13670.0 3.1053e-10
13690.0 3.0714e-10
13710.0 3.037e-10
13730.0 3.001e-10
13750.0 2.9674e-10
13770.0 2.9344e-10
13790.0 2.9009e-10
13810.0 2.8682e-10
13830.0 2.8377e-10
13850.0 2.8071e-10
13870.0 2.7767e-10
13890.0 2.7484e-10
13910.0 2.7213e-10
13930.0 2.6942e-10
13950.0 2.6682e-10
13970.0 2.6445e-10
13990.0 2.6211e-10
14010.0 2.5982e-10
14030.0 2.5771e-10
14050.0 2.557e-10
14070.0 2.5367e-10
14090.0 2.518e-10
14110.0 2.5006e-10
14130.0 2.4837e-10
14150.0 2.4673e-10
14170.0 2.4524e-10
14190.0 2.4382e-10
14210.0 2.4241e-10
14230.0 2.4109e-10
14250.0 2.3986e-10
14270.0 2.3862e-10
14290.0 2.3739e-10
14310.0 2.3626e-10
14330.0 2.3515e-10
14350.0 2.3402e-10
14370.0 2.3293e-10
14390.0 2.3191e-10
14410.0 2.3085e-10
14430.0 2.298e-10
14450.0 2.2881e-10
14470.0 2.2782e-10
14490.0 2.2679e-10
14510.0 2.258e-10
14530.0 2.2485e-10
14550.0 2.2386e-10
14570.0 2.2287e-10
14590.0 2.2191e-10
14610.0 2.2093e-10
14630.0 2.199e-10
14650.0 2.189e-10
14670.0 2.179e-10
14690.0 2.1686e-10
14710.0 2.1578e-10
14730.0 2.1476e-10
14750.0 2.137e-10
14770.0 2.1259e-10
14790.0 2.1149e-10
14810.0 2.104e-10
14830.0 2.0922e-10
14850.0 2.0803e-10
14870.0 2.0688e-10
14890.0 2.0569e-10
14910.0 2.0448e-10
14930.0 2.0333e-10
14950.0 2.0224e-10
14970.0 2.0117e-10
14990.0 2.0019e-10
15010.0 1.9934e-10
15030.0 1.9857e-10
15050.0 1.9785e-10
15070.0 1.9726e-10
15090.0 1.9671e-10
15110.0 1.9618e-10
15130.0 1.9568e-10
15150.0 1.9521e-10
15170.0 1.9473e-10
15190.0 1.9424e-10
15210.0 1.9377e-10
15230.0 1.933e-10
15250.0 1.9281e-10
15270.0 1.9233e-10
15290.0 1.9187e-10
15310.0 1.914e-10
15330.0 1.9091e-10
15350.0 1.9045e-10
15370.0 1.8998e-10
15390.0 1.8949e-10
15410.0 1.8901e-10
15430.0 1.8855e-10
15450.0 1.8807e-10
15470.0 1.8758e-10
15490.0 1.8712e-10
15510.0 1.8665e-10
15530.0 1.8617e-10
15550.0 1.8569e-10
15570.0 1.8523e-10
15590.0 1.8475e-10
15610.0 1.8426e-10
15630.0 1.838e-10
15650.0 1.8333e-10
15670.0 1.8284e-10
15690.0 1.8237e-10
15710.0 1.8191e-10
15730.0 1.8143e-10
15750.0 1.8095e-10
15770.0 1.8048e-10
15790.0 1.8001e-10
15810.0 1.7952e-10
15830.0 1.7905e-10
15850.0 1.7858e-10
15870.0 1.781e-10
15890.0 1.7762e-10
15910.0 1.7716e-10
15930.0 1.7669e-10
15950.0 1.762e-10
15970.0 1.7573e-10
15990.0 1.7526e-10
16010.0 1.7478e-10
16030.0 1.743e-10
16050.0 1.7384e-10
16070.0 1.7337e-10
16090.0 1.7288e-10
16110.0 1.7241e-10
16130.0 1.7195e-10
16150.0 1.7146e-10
16170.0 1.7098e-10
16190.0 1.7052e-10
16210.0 1.7004e-10
16230.0 1.6956e-10
16250.0 1.6909e-10
16270.0 1.6863e-10
16290.0 1.6814e-10
16310.0 1.6766e-10
16330.0 1.672e-10
16350.0 1.6673e-10
16370.0 1.6623e-10
16390.0 1.6577e-10
16410.0 1.653e-10
16430.0 1.6482e-10
16450.0 1.6434e-10
16470.0 1.6388e-10
16490.0 1.634e-10
16510.0 1.6292e-10
16530.0 1.6245e-10
16550.0 1.6198e-10
16570.0 1.615e-10
16590.0 1.6102e-10
16610.0 1.6056e-10
16630.0 1.6008e-10
16650.0 1.596e-10
16670.0 1.5913e-10
16690.0 1.5867e-10
16710.0 1.5818e-10
16730.0 1.577e-10
16750.0 1.5724e-10
16770.0 1.5676e-10
16790.0 1.5627e-10
16810.0 1.5581e-10
16830.0 1.5534e-10
16850.0 1.5486e-10
16870.0 1.5439e-10
16890.0 1.5392e-10
16910.0 1.5344e-10
16930.0 1.5295e-10
16950.0 1.5249e-10
16970.0 1.5202e-10
16990.0 1.5154e-10
17010.0 1.5106e-10
17030.0 1.506e-10
17050.0 1.5012e-10
17070.0 1.4964e-10
17090.0 1.4917e-10
17110.0 1.487e-10
17130.0 1.4821e-10
17150.0 1.4774e-10
17170.0 1.4728e-10
17190.0 1.468e-10
17210.0 1.4632e-10
17230.0 1.4586e-10
17250.0 1.4538e-10
17270.0 1.449e-10
17290.0 1.4442e-10
17310.0 1.4396e-10
17330.0 1.4348e-10
17350.0 1.4299e-10
17370.0 1.4253e-10
17390.0 1.4206e-10
17410.0 1.4158e-10
17430.0 1.4111e-10
17450.0 1.4065e-10
17470.0 1.4016e-10
17490.0 1.3968e-10
17510.0 1.3921e-10
17530.0 1.3874e-10
17550.0 1.3825e-10
17570.0 1.3779e-10
17590.0 1.3732e-10
17610.0 1.3684e-10
17630.0 1.3636e-10
17650.0 1.359e-10
17670.0 1.3542e-10
17690.0 1.3493e-10
17710.0 1.3446e-10
17730.0 1.34e-10
17750.0 1.3352e-10
17770.0 1.3304e-10
17790.0 1.3258e-10
17810.0 1.321e-10
17830.0 1.3162e-10
17850.0 1.3115e-10
17870.0 1.3068e-10
17890.0 1.3019e-10
17910.0 1.2971e-10
17930.0 1.2925e-10
17950.0 1.2878e-10
17970.0 1.283e-10
17990.0 1.2783e-10
18010.0 1.2737e-10
18030.0 1.2687e-10
18050.0 1.264e-10
18070.0 1.2593e-10
18090.0 1.2546e-10
18110.0 1.2497e-10
18130.0 1.2451e-10
18150.0 1.2404e-10
18170.0 1.2356e-10
18190.0 1.2308e-10
18210.0 1.2262e-10
18230.0 1.2214e-10
18250.0 1.2165e-10
18270.0 1.2119e-10
18290.0 1.2072e-10
18310.0 1.2023e-10
18330.0 1.1976e-10
18350.0 1.193e-10
18370.0 1.1882e-10
18390.0 1.1834e-10
18410.0 1.1787e-10
18430.0 1.174e-10
18450.0 1.1691e-10
18470.0 1.1644e-10
18490.0 1.1598e-10
18510.0 1.155e-10
18530.0 1.1502e-10
18550.0 1.1456e-10
18570.0 1.1408e-10
18590.0 1.1359e-10
18610.0 1.1312e-10
18630.0 1.1266e-10
18650.0 1.1217e-10
18670.0 1.1169e-10
18690.0 1.1123e-10
18710.0 1.1076e-10
18730.0 1.1027e-10
18750.0 1.0981e-10
18770.0 1.0934e-10
18790.0 1.0885e-10
18810.0 1.0837e-10
18830.0 1.0791e-10
18850.0 1.0744e-10
18870.0 1.0695e-10
18890.0 1.0648e-10
18910.0 1.0602e-10
18930.0 1.0554e-10
18950.0 1.0506e-10
18970.0 1.046e-10
18990.0 1.0412e-10
19010.0 1.0362e-10
19030.0 1.0316e-10
19050.0 1.027e-10
19070.0 1.0221e-10
19090.0 1.0174e-10
19110.0 1.0128e-10
19130.0 1.008e-10
19150.0 1.0031e-10
19170.0 9.9846e-11
19190.0 9.9377e-11
19210.0 9.889e-11
19230.0 9.8412e-11
19250.0 9.7953e-11
19270.0 9.7475e-11
19290.0 9.6994e-11
19310.0 9.653e-11
19330.0 9.6063e-11
19350.0 9.557e-11
19370.0 9.5096e-11
19390.0 9.4632e-11
19410.0 9.4153e-11
19430.0 9.3669e-11
19450.0 9.3207e-11
19470.0 9.2738e-11
19490.0 9.2254e-11
19510.0 9.1782e-11
19530.0 9.1319e-11
19550.0 9.0834e-11
19570.0 9.0347e-11
19590.0 8.9885e-11
19610.0 8.9414e-11
19630.0 8.893e-11
19650.0 8.846e-11
19670.0 8.7999e-11
19690.0 8.7515e-11
19710.0 8.7035e-11
19730.0 8.657e-11
19750.0 8.6097e-11
19770.0 8.5606e-11
19790.0 8.5136e-11
19810.0 8.4674e-11
19830.0 8.4194e-11
19850.0 8.3718e-11
19870.0 8.3262e-11
19890.0 8.2794e-11
19910.0 8.2324e-11
19930.0 8.1888e-11
19950.0 8.1477e-11
19970.0 8.1083e-11
19990.0 8.0734e-11
20010.0 8.0445e-11
20030.0 8.0193e-11
20050.0 7.9984e-11
20070.0 7.982e-11
20090.0 7.9688e-11
20110.0 7.9571e-11
20130.0 7.9473e-11
20150.0 7.9385e-11
20170.0 7.9297e-11
20190.0 7.9207e-11
20210.0 7.9119e-11
20230.0 7.9028e-11
20250.0 7.8927e-11
20270.0 7.8824e-11
20290.0 7.8718e-11
20310.0 7.8602e-11
20330.0 7.8476e-11
20350.0 7.8351e-11
20370.0 7.8219e-11
20390.0 7.8076e-11
20410.0 7.7931e-11
20430.0 7.7786e-11
20450.0 7.7628e-11
20470.0 7.7467e-11
20490.0 7.7311e-11
20510.0 7.7153e-11
20530.0 7.6989e-11
20550.0 7.6831e-11
20570.0 7.6682e-11
20590.0 7.6529e-11
20610.0 7.638e-11
20630.0 7.6239e-11
20650.0 7.61e-11
20670.0 7.5956e-11
20690.0 7.5819e-11
20710.0 7.5683e-11
20730.0 7.5541e-11
20750.0 7.5393e-11
20770.0 7.5245e-11
20790.0 7.5087e-11
20810.0 7.4913e-11
20830.0 7.4732e-11
20850.0 7.4542e-11
20870.0 7.4329e-11
20890.0 7.4102e-11
20910.0 7.3873e-11
20930.0 7.3626e-11
20950.0 7.3362e-11
20970.0 7.3096e-11
20990.0 7.2827e-11
21010.0 7.2537e-11
21030.0 7.2247e-11
21050.0 7.1964e-11
21070.0 7.1675e-11
21090.0 7.1377e-11
21110.0 7.1096e-11
21130.0 7.0819e-11
21150.0 7.0536e-11
21170.0 7.0258e-11
21190.0 6.9993e-11
21210.0 6.972e-11
21230.0 6.9441e-11
21250.0 6.9173e-11
21270.0 6.8905e-11
21290.0 6.8624e-11
21310.0 6.8341e-11
21330.0 6.8065e-11
21350.0 6.7774e-11
21370.0 6.7471e-11
21390.0 6.717e-11
21410.0 6.6864e-11
21430.0 6.6531e-11
21450.0 6.6201e-11
21470.0 6.5873e-11
21490.0 6.5529e-11
21510.0 6.5173e-11
21530.0 6.4826e-11
21550.0 6.4472e-11
21570.0 6.4099e-11
21590.0 6.3731e-11
21610.0 6.337e-11
21630.0 6.2996e-11
21650.0 6.2611e-11
21670.0 6.225e-11
21690.0 6.1885e-11
21710.0 6.1509e-11
21730.0 6.1142e-11
21750.0 6.0787e-11
21770.0 6.0413e-11
21790.0 6.0042e-11
21810.0 5.9684e-11
21830.0 5.9324e-11
21850.0 5.8951e-11
21870.0 5.8588e-11
21890.0 5.8238e-11
21910.0 5.7873e-11
21930.0 5.751e-11
21950.0 5.7162e-11
21970.0 5.6812e-11
21990.0 5.6449e-11
22010.0 5.6109e-11
22030.0 5.5781e-11
22050.0 5.545e-11
22070.0 5.5128e-11
22090.0 5.4831e-11
22110.0 5.4538e-11
22130.0 5.4251e-11
22150.0 5.3985e-11
22170.0 5.3735e-11
22190.0 5.3486e-11
22210.0 5.3252e-11
22230.0 5.3041e-11
22250.0 5.2835e-11
22270.0 5.2635e-11
22290.0 5.2449e-11
22310.0 5.2273e-11
22330.0 5.2093e-11
22350.0 5.1921e-11
22370.0 5.1757e-11
22390.0 5.1591e-11
22410.0 5.142e-11
22430.0 5.1257e-11
22450.0 5.1094e-11
22470.0 5.0924e-11
22490.0 5.0753e-11
22510.0 5.0587e-11
22530.0 5.0412e-11
22550.0 5.0233e-11
22570.0 5.006e-11
22590.0 4.9888e-11
22610.0 4.9709e-11
22630.0 4.9535e-11
22650.0 4.937e-11
