#lamb flux
1010.0 6.3767e-05
1030.0 8.3387e-05
1050.0 0.00010832
1070.0 0.00013947
1090.0 0.00017854
1110.0 0.00022404
1130.0 0.00027576
1150.0 0.00033421
1170.0 0.00040013
1190.0 0.00046969
1210.0 0.00054524
1230.0 0.0006264
1250.0 0.00070913
1270.0 0.0007909
1290.0 0.00087407
1310.0 0.00095347
1330.0 0.0010243
1350.0 0.0010874
1370.0 0.0011421
1390.0 0.0011836
1410.0 0.0012108
1430.0 0.0012276
1450.0 0.0012315
1470.0 0.0012217
1490.0 0.0012019
1510.0 0.0011764
1530.0 0.0011414
1550.0 0.0010996
1570.0 0.00105
1590.0 0.0009981
1610.0 0.00094435
1630.0 0.00089251
1650.0 0.00084327
1670.0 0.00079599
1690.0 0.00075199
1710.0 0.0007127
1730.0 0.00067757
1750.0 0.00064564
1770.0 0.0006185
1790.0 0.00059583
1810.0 0.00057671
1830.0 0.00056128
1850.0 0.00055111
1870.0 0.00054472
1890.0 0.00054102
1910.0 0.0005405
1930.0 0.00054303
1950.0 0.00054648
1970.0 0.00055233
1990.0 0.00056173
2010.0 0.00057398
2030.0 0.00058873
2050.0 0.00060658
2070.0 0.00062553
2090.0 0.0006455
2110.0 0.00066731
2130.0 0.00069122
2150.0 0.00071658
2170.0 0.00074297
2190.0 0.00077123
2210.0 0.00080148
2230.0 0.00083315
2250.0 0.00086586
2270.0 0.00090014
2290.0 0.0009348
2310.0 0.00096953
2330.0 0.0010051
2350.0 0.0010412
2370.0 0.0010766
2390.0 0.0011121
2410.0 0.0011479
2430.0 0.0011828
2450.0 0.0012168
2470.0 0.0012512
2490.0 0.0012866
2510.0 0.0013228
2530.0 0.0013635
2550.0 0.0014135
2570.0 0.0014763
2590.0 0.001557
2610.0 0.0016713
2630.0 0.0018251
2650.0 0.002017
2670.0 0.0022591
2690.0 0.0025597
2710.0 0.0028956
2730.0 0.0032529
2750.0 0.0036428
2770.0 0.0040271
2790.0 0.0043739
2810.0 0.0046858
2830.0 0.0049616
2850.0 0.0051649
2870.0 0.0053188
2890.0 0.0054407
2910.0 0.0055317
2930.0 0.0055949
2950.0 0.0056497
2970.0 0.0056981
2990.0 0.0057348
3010.0 0.0057658
3030.0 0.0057988
3050.0 0.0058299
3070.0 0.0058516
3090.0 0.0058768
3110.0 0.0059064
3130.0 0.005941
3150.0 0.0059043
3170.0 0.0059325
3190.0 0.0060116
3210.0 0.0061742
3230.0 0.0064888
3250.0 0.007115
3270.0 0.0079813
3290.0 0.0089104
3310.0 0.0099185
3330.0 0.010231
3350.0 0.01036
3370.0 0.010492
3390.0 0.010619
3410.0 0.010707
3430.0 0.010764
3450.0 0.010813
3470.0 0.010876
3490.0 0.010876
3510.0 0.010615
3530.0 0.0098275
3550.0 0.009284
3570.0 0.010173
3590.0 0.011777
3610.0 0.013137
3630.0 0.014902
3650.0 0.014692
3670.0 0.01292
3690.0 0.011299
3710.0 0.010748
3730.0 0.011111
3750.0 0.01141
3770.0 0.011844
3790.0 0.012327
3810.0 0.01276
3830.0 0.011916
3850.0 0.010813
3870.0 0.010301
3890.0 0.010789
3910.0 0.011074
3930.0 0.011154
3950.0 0.011821
3970.0 0.012588
3990.0 0.012785
4010.0 0.012879
4030.0 0.012437
4050.0 0.012143
4070.0 0.011937
4090.0 0.011978
4110.0 0.012029
4130.0 0.011678
4150.0 0.011181
4170.0 0.010977
4190.0 0.010695
4210.0 0.0098659
4230.0 0.0090256
4250.0 0.0081012
4270.0 0.0073145
4290.0 0.0070001
4310.0 0.0068465
4330.0 0.0069777
4350.0 0.0075363
4370.0 0.0077579
4390.0 0.0084271
4410.0 0.0089218
4430.0 0.0089954
4450.0 0.0081941
4470.0 0.0073675
4490.0 0.0070554
4510.0 0.0068014
4530.0 0.0066774
4550.0 0.0065444
4570.0 0.0065385
4590.0 0.0066693
4610.0 0.0066873
4630.0 0.0066952
4650.0 0.0066085
4670.0 0.0064464
4690.0 0.0059419
4710.0 0.0054891
4730.0 0.0050948
4750.0 0.0048512
4770.0 0.0045675
4790.0 0.0045225
4810.0 0.0043599
4830.0 0.0038446
4850.0 0.0042094
4870.0 0.0036563
4890.0 0.0038886
4910.0 0.0040179
4930.0 0.003789
4950.0 0.0031026
4970.0 0.0029016
4990.0 0.0027191
5010.0 0.002419
5030.0 0.0023506
5050.0 0.0026745
5070.0 0.0026983
5090.0 0.0028111
5110.0 0.0028327
5130.0 0.0027788
5150.0 0.0028407
5170.0 0.0026407
5190.0 0.0025647
5210.0 0.0027089
5230.0 0.0025466
5250.0 0.0026765
5270.0 0.0029285
5290.0 0.0028822
5310.0 0.0026757
5330.0 0.0026265
5350.0 0.0024258
5370.0 0.0024107
5390.0 0.00244
5410.0 0.0023663
5430.0 0.0024874
5450.0 0.0023584
5470.0 0.0023912
5490.0 0.0028179
5510.0 0.0028891
5530.0 0.0029394
5550.0 0.0029414
5570.0 0.0030616
5590.0 0.0031553
5610.0 0.0031664
5630.0 0.0031597
5650.0 0.0031714
5670.0 0.0031383
5690.0 0.0031381
5710.0 0.003072
5730.0 0.0031971
5750.0 0.003127
5770.0 0.0029943
5790.0 0.0029556
5810.0 0.0027737
5830.0 0.0029309
5850.0 0.0030758
5870.0 0.0031059
5890.0 0.0031769
5910.0 0.003377
5930.0 0.0034008
5950.0 0.0034687
5970.0 0.0035127
5990.0 0.0035995
6010.0 0.0035457
6030.0 0.0035373
6050.0 0.0035485
6070.0 0.0035167
6090.0 0.003603
6110.0 0.0036024
6130.0 0.0035168
6150.0 0.0034705
6170.0 0.0034335
6190.0 0.0032044
6210.0 0.0031819
6230.0 0.0032486
6250.0 0.0032391
6270.0 0.0032307
6290.0 0.0033249
6310.0 0.0034387
6330.0 0.0034367
6350.0 0.0033672
6370.0 0.0033835
6390.0 0.0032793
6410.0 0.0032686
6430.0 0.0031827
6450.0 0.0031761
6470.0 0.0031706
6490.0 0.0031709
6510.0 0.0030665
6530.0 0.0030353
6550.0 0.0029881
6570.0 0.0029147
6590.0 0.0029706
6610.0 0.0029681
6630.0 0.0028929
6650.0 0.0027797
6670.0 0.0027277
6690.0 0.0026705
6710.0 0.0025856
6730.0 0.0025399
6750.0 0.0025498
6770.0 0.002622
6790.0 0.0026583
6810.0 0.002594
6830.0 0.0024106
6850.0 0.0022552
6870.0 0.0022023
6890.0 0.0021733
6910.0 0.0021503
6930.0 0.0021109
6950.0 0.0021122
6970.0 0.0020292
6990.0 0.0019837
7010.0 0.0019774
7030.0 0.0019873
7050.0 0.0019315
7070.0 0.0017984
7090.0 0.0017027
7110.0 0.0016859
7130.0 0.0016904
7150.0 0.001681
7170.0 0.0016552
7190.0 0.0015967
7210.0 0.0016561
7230.0 0.0017074
7250.0 0.0016876
7270.0 0.0016788
7290.0 0.0017009
7310.0 0.0016391
7330.0 0.00158
7350.0 0.0015036
7370.0 0.0015059
7390.0 0.001538
7410.0 0.0014157
7430.0 0.0014184
7450.0 0.0013923
7470.0 0.0014428
7490.0 0.0014233
7510.0 0.0013345
7530.0 0.0013592
7550.0 0.0012021
7570.0 0.0011432
7590.0 0.0011581
7610.0 0.001212
7630.0 0.0011961
7650.0 0.0012453
7670.0 0.0011153
7690.0 0.0010498
7710.0 0.0011076
7730.0 0.0011881
7750.0 0.0011349
7770.0 0.0012054
7790.0 0.0012097
7810.0 0.0011819
7830.0 0.0012667
7850.0 0.0011784
7870.0 0.0012634
7890.0 0.0012024
7910.0 0.0011813
7930.0 0.0011084
7950.0 0.0010738
7970.0 0.0011119
7990.0 0.0010912
8010.0 0.0019537
8030.0 0.0019063
8050.0 0.0018757
8070.0 0.0018187
8090.0 0.0016454
8110.0 0.0016184
8130.0 0.0018003
8150.0 0.0019082
8170.0 0.001965
8190.0 0.0020512
8210.0 0.0019728
8230.0 0.0019776
8250.0 0.0019672
8270.0 0.0019643
8290.0 0.0019377
8310.0 0.0018418
8330.0 0.0017956
8350.0 0.001852
8370.0 0.0018771
8390.0 0.0018311
8410.0 0.00181
8430.0 0.0017476
8450.0 0.0017087
8470.0 0.0018324
8490.0 0.0018426
8510.0 0.0017285
8530.0 0.0017133
8550.0 0.0016921
8570.0 0.0015797
8590.0 0.0015948
8610.0 0.0016074
8630.0 0.001664
8650.0 0.0016691
8670.0 0.0016753
8690.0 0.0016414
8710.0 0.0015962
8730.0 0.0015426
8750.0 0.0015119
8770.0 0.0015063
8790.0 0.0015632
8810.0 0.0014767
8830.0 0.0014587
8850.0 0.0015312
8870.0 0.0014509
8890.0 0.0013457
8910.0 0.0013246
8930.0 0.0013312
8950.0 0.0012378
8970.0 0.0011866
8990.0 0.0011597
9010.0 0.0010926
9030.0 0.0010762
9050.0 0.0010709
9070.0 0.0010662
9090.0 0.0010614
9110.0 0.0010565
9130.0 0.0010516
9150.0 0.0010468
9170.0 0.0010418
9190.0 0.0010368
9210.0 0.0010318
9230.0 0.0010267
9250.0 0.0010216
9270.0 0.0010165
9290.0 0.0010113
9310.0 0.0010067
9330.0 0.0010028
9350.0 0.00099892
9370.0 0.00099498
9390.0 0.00099101
9410.0 0.000987
9430.0 0.00098299
9450.0 0.00097892
9470.0 0.00097533
9490.0 0.00097147
9510.0 0.00096706
9530.0 0.00096268
9550.0 0.00095842
9570.0 0.00095419
9590.0 0.00094994
9610.0 0.00094648
9630.0 0.00094313
9650.0 0.00093973
9670.0 0.00093623
9690.0 0.00093279
9710.0 0.00092935
9730.0 0.00092582
9750.0 0.00092228
9770.0 0.00091884
9790.0 0.00091529
9810.0 0.00091171
9830.0 0.00090817
9850.0 0.00090414
9870.0 0.00089968
9890.0 0.00089666
9910.0 0.00089343
9930.0 0.00088956
9950.0 0.00088601
9970.0 0.00088268
9990.0 0.00087925
10010.0 0.00087576
10030.0 0.00087223
10050.0 0.00086866
10070.0 0.00086509
10090.0 0.00086153
10110.0 0.00085795
10130.0 0.00085439
10150.0 0.00085084
10170.0 0.0008473
10190.0 0.00084376
10210.0 0.00084024
10230.0 0.00083674
10250.0 0.00083324
10270.0 0.00082976
10290.0 0.00082631
10310.0 0.00082285
10330.0 0.00081941
10350.0 0.000816
10370.0 0.00081261
10390.0 0.00080918
10410.0 0.0008052
10430.0 0.00080106
10450.0 0.00079841
10470.0 0.00079541
10490.0 0.00079237
10510.0 0.00078928
10530.0 0.00078605
10550.0 0.00078285
10570.0 0.00077973
10590.0 0.00077657
10610.0 0.00077339
10630.0 0.00077031
10650.0 0.00076725
10670.0 0.00076413
10690.0 0.00076108
10710.0 0.0007581
10730.0 0.00075509
10750.0 0.00075205
10770.0 0.00074915
10790.0 0.00074626
10810.0 0.00074333
10830.0 0.00074046
10850.0 0.00073767
10870.0 0.00073479
10890.0 0.00073191
10910.0 0.00072908
10930.0 0.00072619
10950.0 0.00072313
10970.0 0.00071998
10990.0 0.00071675
11010.0 0.00070053
11030.0 0.0006968
11050.0 0.00069277
11070.0 0.00068836
11090.0 0.00068344
11110.0 0.00067848
11130.0 0.0006734
11150.0 0.00066803
11170.0 0.00066253
11190.0 0.00065713
11210.0 0.00065156
11230.0 0.00064582
11250.0 0.00064022
11270.0 0.00063471
11290.0 0.0006291
11310.0 0.00062358
11330.0 0.00061846
11350.0 0.00061339
11370.0 0.00060843
11390.0 0.00060379
11410.0 0.00059939
11430.0 0.00059498
11450.0 0.00059081
11470.0 0.00058685
11490.0 0.00058293
11510.0 0.000579
11530.0 0.00057523
11550.0 0.00057148
11570.0 0.00056761
11590.0 0.00056373
11610.0 0.00055988
11630.0 0.00055586
11650.0 0.00055168
11670.0 0.00054756
11690.0 0.00054336
11710.0 0.00053897
11730.0 0.00053454
11750.0 0.0005302
11770.0 0.00052568
11790.0 0.00052108
11810.0 0.0005166
11830.0 0.00051213
11850.0 0.00050751
11870.0 0.00050305
11890.0 0.0004988
11910.0 0.00049454
11930.0 0.00049038
11950.0 0.0004865
11970.0 0.00048275
11990.0 0.00047908
12010.0 0.00047568
12030.0 0.00047254
12050.0 0.00046954
12070.0 0.00046672
12090.0 0.00046422
12110.0 0.0004619
12130.0 0.00045972
12150.0 0.00045775
12170.0 0.00045595
12190.0 0.00045422
12210.0 0.0004526
12230.0 0.00045107
12250.0 0.00044955
12270.0 0.00044799
12290.0 0.00044639
12310.0 0.00044473
12330.0 0.00044291
12350.0 0.00044094
12370.0 0.00043885
12390.0 0.00043656
12410.0 0.00043396
12430.0 0.00043126
12450.0 0.00042838
12470.0 0.00042523
12490.0 0.00042189
12510.0 0.00041849
12530.0 0.00041486
12550.0 0.00041099
12570.0 0.00040711
12590.0 0.00040316
12610.0 0.00039898
12630.0 0.00039474
12650.0 0.00039066
12670.0 0.00038647
12690.0 0.00038221
12710.0 0.0003781
12730.0 0.00037409
12750.0 0.00036996
12770.0 0.00036601
12790.0 0.00036228
12810.0 0.0003586
12830.0 0.00035499
12850.0 0.00035168
12870.0 0.00034856
12890.0 0.00034551
12910.0 0.0003427
12930.0 0.00034017
12950.0 0.00033778
12970.0 0.00033558
12990.0 0.00033371
13010.0 0.00033207
13030.0 0.00033063
13050.0 0.00032945
13070.0 0.00032852
13090.0 0.00032776
13110.0 0.00032718
13130.0 0.00032675
13150.0 0.00032643
13170.0 0.00032618
13190.0 0.00032596
13210.0 0.00032573
13230.0 0.00032545
13250.0 0.00032509
13270.0 0.00032463
13290.0 0.00032405
13310.0 0.0003233
13330.0 0.00032241
13350.0 0.00032138
13370.0 0.00032016
13390.0 0.00031874
13410.0 0.00031723
13430.0 0.00031555
13450.0 0.00031366
13470.0 0.00031166
13490.0 0.00030959
13510.0 0.00030725
13530.0 0.00030482
13550.0 0.00030237
13570.0 0.00029981
13590.0 0.00029708
13610.0 0.00029438
13630.0 0.00029171
13650.0 0.00028887
13670.0 0.00028601
13690.0 0.00028324
13710.0 0.0002804
13730.0 0.00027741
13750.0 0.0002746
13770.0 0.00027182
13790.0 0.00026896
13810.0 0.00026615
13830.0 0.0002635
13850.0 0.00026079
13870.0 0.00025809
13890.0 0.00025554
13910.0 0.00025307
13930.0 0.00025058
13950.0 0.00024818
13970.0 0.00024599
13990.0 0.0002438
14010.0 0.00024167
14030.0 0.00023971
14050.0 0.00023786
14070.0 0.00023599
14090.0 0.00023427
14110.0 0.0002327
14130.0 0.00023118
14150.0 0.00022971
14170.0 0.0002284
14190.0 0.00022717
14210.0 0.00022595
14230.0 0.00022482
14250.0 0.00022379
14270.0 0.00022274
14290.0 0.00022172
14310.0 0.00022079
14330.0 0.00021989
14350.0 0.00021898
14370.0 0.00021813
14390.0 0.00021734
14410.0 0.00021653
14430.0 0.00021574
14450.0 0.00021501
14470.0 0.0002143
14490.0 0.00021357
14510.0 0.00021288
14530.0 0.00021224
14550.0 0.00021157
14570.0 0.00021089
14590.0 0.00021026
14610.0 0.00020961
14630.0 0.00020891
14650.0 0.00020823
14670.0 0.00020757
14690.0 0.00020685
14710.0 0.00020611
14730.0 0.00020541
14750.0 0.00020468
14770.0 0.00020389
14790.0 0.00020311
14810.0 0.00020234
14830.0 0.00020147
14850.0 0.00020059
14870.0 0.00019973
14890.0 0.00019884
14910.0 0.00019791
14930.0 0.00019704
14950.0 0.00019623
14970.0 0.00019543
14990.0 0.00019472
15010.0 0.00019414
15030.0 0.00019362
15050.0 0.00019317
15070.0 0.00019283
15090.0 0.00019254
15110.0 0.00019226
15130.0 0.00019201
15150.0 0.00019179
15170.0 0.00019155
15190.0 0.00019131
15210.0 0.00019108
15230.0 0.00019084
15250.0 0.00019059
15270.0 0.00019034
15290.0 0.0001901
15310.0 0.00018985
15330.0 0.00018959
15350.0 0.00018933
15370.0 0.00018908
15390.0 0.0001888
15410.0 0.00018852
15430.0 0.00018826
15450.0 0.00018797
15470.0 0.00018768
15490.0 0.0001874
15510.0 0.00018711
15530.0 0.00018681
15550.0 0.00018651
15570.0 0.00018621
15590.0 0.0001859
15610.0 0.00018557
15630.0 0.00018526
15650.0 0.00018494
15670.0 0.0001846
15690.0 0.00018427
15710.0 0.00018395
15730.0 0.0001836
15750.0 0.00018324
15770.0 0.0001829
15790.0 0.00018255
15810.0 0.00018217
15830.0 0.00018181
15850.0 0.00018145
15870.0 0.00018107
15890.0 0.00018069
15910.0 0.00018032
15930.0 0.00017993
15950.0 0.00017952
15970.0 0.00017913
15990.0 0.00017873
16010.0 0.00017832
16030.0 0.0001779
16050.0 0.0001775
16070.0 0.00017708
16090.0 0.00017664
16110.0 0.00017622
16130.0 0.0001758
16150.0 0.00017535
16170.0 0.0001749
16190.0 0.00017446
16210.0 0.00017401
16230.0 0.00017355
16250.0 0.0001731
16270.0 0.00017265
16290.0 0.00017217
16310.0 0.0001717
16330.0 0.00017123
16350.0 0.00017076
16370.0 0.00017025
16390.0 0.00016978
16410.0 0.0001693
16430.0 0.0001688
16450.0 0.0001683
16470.0 0.00016782
16490.0 0.00016731
16510.0 0.00016679
16530.0 0.00016629
16550.0 0.00016579
16570.0 0.00016526
16590.0 0.00016473
16610.0 0.00016423
16630.0 0.0001637
16650.0 0.00016317
16670.0 0.00016265
16690.0 0.00016212
16710.0 0.00016157
16730.0 0.00016103
16750.0 0.0001605
16770.0 0.00015996
16790.0 0.0001594
16810.0 0.00015886
16830.0 0.00015832
16850.0 0.00015776
16870.0 0.00015721
16890.0 0.00015667
16910.0 0.0001561
16930.0 0.00015553
16950.0 0.00015498
16970.0 0.00015442
16990.0 0.00015384
17010.0 0.00015328
17030.0 0.00015273
17050.0 0.00015215
17070.0 0.00015157
17090.0 0.00015101
17110.0 0.00015044
17130.0 0.00014985
17150.0 0.00014927
17170.0 0.00014871
17190.0 0.00014813
17210.0 0.00014754
17230.0 0.00014698
17250.0 0.0001464
17270.0 0.0001458
17290.0 0.00014522
17310.0 0.00014465
17330.0 0.00014406
17350.0 0.00014346
17370.0 0.00014289
17390.0 0.00014231
17410.0 0.00014171
17430.0 0.00014113
17450.0 0.00014056
17470.0 0.00013996
17490.0 0.00013936
17510.0 0.00013879
17530.0 0.0001382
17550.0 0.0001376
17570.0 0.00013702
17590.0 0.00013644
17610.0 0.00013585
17630.0 0.00013526
17650.0 0.00013468
17670.0 0.00013409
17690.0 0.00013349
17710.0 0.00013291
17730.0 0.00013233
17750.0 0.00013174
17770.0 0.00013115
17790.0 0.00013058
17810.0 0.00012999
17830.0 0.0001294
17850.0 0.00012882
17870.0 0.00012824
17890.0 0.00012764
17910.0 0.00012706
17930.0 0.00012649
17950.0 0.00012591
17970.0 0.00012532
17990.0 0.00012475
18010.0 0.00012418
18030.0 0.00012358
18050.0 0.00012301
18070.0 0.00012244
18090.0 0.00012186
18110.0 0.00012127
18130.0 0.00012071
18150.0 0.00012015
18170.0 0.00011956
18190.0 0.00011899
18210.0 0.00011844
18230.0 0.00011786
18250.0 0.00011728
18270.0 0.00011672
18290.0 0.00011616
18310.0 0.00011558
18330.0 0.00011502
18350.0 0.00011447
18370.0 0.0001139
18390.0 0.00011334
18410.0 0.00011279
18430.0 0.00011223
18450.0 0.00011166
18470.0 0.0001111
18490.0 0.00011056
18510.0 0.00011
18530.0 0.00010944
18550.0 0.00010891
18570.0 0.00010836
18590.0 0.00010779
18610.0 0.00010725
18630.0 0.00010671
18650.0 0.00010616
18670.0 0.00010561
18690.0 0.00010508
18710.0 0.00010454
18730.0 0.00010399
18750.0 0.00010346
18770.0 0.00010293
18790.0 0.00010238
18810.0 0.00010184
18830.0 0.00010132
18850.0 0.00010079
18870.0 0.00010024
18890.0 9.9723e-05
18910.0 9.9205e-05
18930.0 9.8668e-05
18950.0 9.8141e-05
18970.0 9.7627e-05
18990.0 9.7103e-05
19010.0 9.6562e-05
19030.0 9.6053e-05
19050.0 9.5541e-05
19070.0 9.5015e-05
19090.0 9.4499e-05
19110.0 9.3999e-05
19130.0 9.3478e-05
19150.0 9.2956e-05
19170.0 9.2452e-05
19190.0 9.1947e-05
19210.0 9.1426e-05
19230.0 9.0916e-05
19250.0 9.0424e-05
19270.0 8.9916e-05
19290.0 8.9406e-05
19310.0 8.8914e-05
19330.0 8.8418e-05
19350.0 8.7901e-05
19370.0 8.7403e-05
19390.0 8.6915e-05
19410.0 8.6414e-05
19430.0 8.591e-05
19450.0 8.5428e-05
19470.0 8.494e-05
19490.0 8.4438e-05
19510.0 8.395e-05
19530.0 8.3471e-05
19550.0 8.2973e-05
19570.0 8.2474e-05
19590.0 8.1999e-05
19610.0 8.1517e-05
19630.0 8.1024e-05
19650.0 8.0545e-05
19670.0 8.0075e-05
19690.0 7.9585e-05
19710.0 7.9099e-05
19730.0 7.8629e-05
19750.0 7.8152e-05
19770.0 7.7659e-05
19790.0 7.7188e-05
19810.0 7.6723e-05
19830.0 7.6243e-05
19850.0 7.5768e-05
19870.0 7.5312e-05
19890.0 7.4845e-05
19910.0 7.4377e-05
19930.0 7.394e-05
19950.0 7.3526e-05
19970.0 7.3127e-05
19990.0 7.2767e-05
20010.0 7.2462e-05
20030.0 7.2191e-05
20050.0 7.1959e-05
20070.0 7.1771e-05
20090.0 7.1613e-05
20110.0 7.1473e-05
20130.0 7.1353e-05
20150.0 7.1247e-05
20170.0 7.1145e-05
20190.0 7.1047e-05
20210.0 7.0953e-05
20230.0 7.0859e-05
20250.0 7.0762e-05
20270.0 7.0663e-05
20290.0 7.0564e-05
20310.0 7.0458e-05
20330.0 7.0345e-05
20350.0 7.0232e-05
20370.0 7.0112e-05
20390.0 6.9984e-05
20410.0 6.9852e-05
20430.0 6.9719e-05
20450.0 6.9575e-05
20470.0 6.9427e-05
20490.0 6.9282e-05
20510.0 6.9134e-05
20530.0 6.8982e-05
20550.0 6.8833e-05
20570.0 6.8691e-05
20590.0 6.8546e-05
20610.0 6.8404e-05
20630.0 6.8269e-05
20650.0 6.8135e-05
20670.0 6.7998e-05
20690.0 6.7866e-05
20710.0 6.7735e-05
20730.0 6.7598e-05
20750.0 6.7456e-05
20770.0 6.7314e-05
20790.0 6.7161e-05
20810.0 6.6995e-05
20830.0 6.6821e-05
20850.0 6.6638e-05
20870.0 6.6434e-05
20890.0 6.6215e-05
20910.0 6.5993e-05
20930.0 6.5754e-05
20950.0 6.5497e-05
20970.0 6.5237e-05
20990.0 6.4971e-05
21010.0 6.4686e-05
21030.0 6.4398e-05
21050.0 6.4114e-05
21070.0 6.3823e-05
21090.0 6.3522e-05
21110.0 6.3233e-05
21130.0 6.2947e-05
21150.0 6.2652e-05
21170.0 6.2361e-05
21190.0 6.2079e-05
21210.0 6.1787e-05
21230.0 6.1489e-05
21250.0 6.1198e-05
21270.0 6.0905e-05
21290.0 6.0599e-05
21310.0 6.0288e-05
21330.0 5.9982e-05
21350.0 5.9659e-05
21370.0 5.9324e-05
21390.0 5.8994e-05
21410.0 5.8657e-05
21430.0 5.8294e-05
21450.0 5.7931e-05
21470.0 5.7568e-05
21490.0 5.7188e-05
21510.0 5.6795e-05
21530.0 5.6408e-05
21550.0 5.6012e-05
21570.0 5.5597e-05
21590.0 5.5185e-05
21610.0 5.4776e-05
21630.0 5.4352e-05
21650.0 5.3916e-05
21670.0 5.3499e-05
21690.0 5.3075e-05
21710.0 5.2639e-05
21730.0 5.2208e-05
21750.0 5.1786e-05
21770.0 5.1342e-05
21790.0 5.0898e-05
21810.0 5.0464e-05
21830.0 5.0025e-05
21850.0 4.9571e-05
21870.0 4.9125e-05
21890.0 4.8686e-05
21910.0 4.8232e-05
21930.0 4.7777e-05
21950.0 4.7333e-05
21970.0 4.6885e-05
21990.0 4.6422e-05
22010.0 4.5978e-05
22030.0 4.5541e-05
22050.0 4.5099e-05
22070.0 4.4642e-05
22090.0 4.4165e-05
22110.0 4.3689e-05
22130.0 4.3214e-05
22150.0 4.2758e-05
22170.0 4.2314e-05
22190.0 4.1869e-05
22210.0 4.1436e-05
22230.0 4.1022e-05
22250.0 4.0611e-05
22270.0 4.0204e-05
22290.0 3.9809e-05
22310.0 3.9421e-05
22330.0 3.9029e-05
22350.0 3.8643e-05
22370.0 3.8262e-05
22390.0 3.7878e-05
22410.0 3.7489e-05
22430.0 3.7104e-05
22450.0 3.6717e-05
22470.0 3.6322e-05
22490.0 3.5925e-05
22510.0 3.5528e-05
22530.0 3.5121e-05
22550.0 3.4708e-05
22570.0 3.4295e-05
22590.0 3.3878e-05
22610.0 3.3454e-05
22630.0 3.3027e-05
22650.0 3.2603e-05
22670.0 3.2171e-05
22690.0 3.1737e-05
22710.0 3.1304e-05
22730.0 3.0871e-05
22750.0 3.0432e-05
22770.0 2.9996e-05
22790.0 2.9562e-05
22810.0 2.9125e-05
22830.0 2.8688e-05
22850.0 2.8252e-05
22870.0 2.7814e-05
22890.0 2.7373e-05
22910.0 2.6931e-05
22930.0 2.6486e-05
22950.0 2.6036e-05
22970.0 2.5581e-05
22990.0 2.5121e-05
23010.0 2.4654e-05
23030.0 2.4178e-05
