#lamb flux
1010.0 0.00010141
1030.0 0.00010141
1050.0 0.00010141
1070.0 0.00010141
1090.0 0.00010141
1110.0 0.00010141
1130.0 0.00010141
1150.0 0.00010141
1170.0 0.00010141
1190.0 0.00010141
1210.0 0.00010141
1230.0 0.00010141
1250.0 0.00010141
1270.0 0.00010141
1290.0 0.00010141
1310.0 0.00010141
1330.0 0.00010141
1350.0 0.00010141
1370.0 0.00010141
1390.0 0.00010141
1410.0 0.00010141
1430.0 0.00010141
1450.0 0.00010141
1470.0 0.00010141
1490.0 0.00010141
1510.0 0.00010141
1530.0 0.00010151
1550.0 0.00012043
1570.0 0.00014123
1590.0 0.00016396
1610.0 0.00018838
1630.0 0.00021456
1650.0 0.00024341
1670.0 0.00027479
1690.0 0.00030906
1710.0 0.00034693
1730.0 0.00038848
1750.0 0.00043325
1770.0 0.00048232
1790.0 0.00053589
1810.0 0.00059342
1830.0 0.00065509
1850.0 0.00072204
1870.0 0.00079295
1890.0 0.00086735
1910.0 0.00094583
1930.0 0.0010282
1950.0 0.0011124
1970.0 0.0011984
1990.0 0.0012867
2010.0 0.0013752
2030.0 0.0014625
2050.0 0.0015493
2070.0 0.0016347
2090.0 0.0017154
2110.0 0.0017919
2130.0 0.0018646
2150.0 0.0019313
2170.0 0.0019904
2190.0 0.0020442
2210.0 0.0020912
2230.0 0.0021298
2250.0 0.0021611
2270.0 0.0021867
2290.0 0.0022043
2310.0 0.002214
2330.0 0.0022184
2350.0 0.0022173
2370.0 0.0022097
2390.0 0.0021978
2410.0 0.0021836
2430.0 0.0021653
2450.0 0.0021441
2470.0 0.0021224
2490.0 0.0021011
2510.0 0.0020797
2530.0 0.0020642
2550.0 0.0020624
2570.0 0.0020809
2590.0 0.0021283
2610.0 0.0022278
2630.0 0.0023837
2650.0 0.0025866
2670.0 0.002843
2690.0 0.0031502
2710.0 0.0034718
2730.0 0.0037945
2750.0 0.0041371
2770.0 0.004477
2790.0 0.0048037
2810.0 0.0051394
2830.0 0.0055029
2850.0 0.0058555
2870.0 0.0062175
2890.0 0.0066076
2910.0 0.007013
2930.0 0.0074183
2950.0 0.0078562
2970.0 0.0083231
2990.0 0.0087974
3010.0 0.0092897
3030.0 0.0098189
3050.0 0.010367
3070.0 0.010902
3090.0 0.011448
3110.0 0.011975
3130.0 0.012442
3150.0 0.012832
3170.0 0.013128
3190.0 0.013301
3210.0 0.013352
3230.0 0.013332
3250.0 0.013404
3270.0 0.013669
3290.0 0.0141
3310.0 0.014663
3330.0 0.015358
3350.0 0.016143
3370.0 0.017017
3390.0 0.017977
3410.0 0.018925
3430.0 0.020637
3450.0 0.021934
3470.0 0.023203
3490.0 0.023688
3510.0 0.023278
3530.0 0.026068
3550.0 0.031256
3570.0 0.034364
3590.0 0.035925
3610.0 0.036271
3630.0 0.034879
3650.0 0.037667
3670.0 0.04503
3690.0 0.050662
3710.0 0.053249
3730.0 0.055088
3750.0 0.057643
3770.0 0.057504
3790.0 0.054973
3810.0 0.051648
3830.0 0.048001
3850.0 0.047695
3870.0 0.051167
3890.0 0.054734
3910.0 0.057407
3930.0 0.058574
3950.0 0.062918
3970.0 0.067275
3990.0 0.064517
4010.0 0.057299
4030.0 0.050502
4050.0 0.04831
4070.0 0.050001
4090.0 0.05043
4110.0 0.04921
4130.0 0.048449
4150.0 0.049264
4170.0 0.054096
4190.0 0.059177
4210.0 0.05802
4230.0 0.054518
4250.0 0.052781
4270.0 0.052098
4290.0 0.053591
4310.0 0.055488
4330.0 0.052852
4350.0 0.046194
4370.0 0.040683
4390.0 0.036873
4410.0 0.033651
4430.0 0.033454
4450.0 0.036306
4470.0 0.038985
4490.0 0.042525
4510.0 0.048458
4530.0 0.060367
4550.0 0.074738
4570.0 0.083319
4590.0 0.088961
4610.0 0.096665
4630.0 0.10141
4650.0 0.094652
4670.0 0.078236
4690.0 0.065118
4710.0 0.060258
4730.0 0.058507
4750.0 0.053198
4770.0 0.048822
4790.0 0.051
4810.0 0.055561
4830.0 0.055776
4850.0 0.051966
4870.0 0.050278
4890.0 0.053052
4910.0 0.056129
4930.0 0.05635
4950.0 0.05451
4970.0 0.051522
4990.0 0.047002
5010.0 0.042797
5030.0 0.04031
5050.0 0.039177
5070.0 0.038341
5090.0 0.037456
5110.0 0.037308
5130.0 0.037722
5150.0 0.039748
5170.0 0.0441
5190.0 0.049407
5210.0 0.055279
5230.0 0.058865
5250.0 0.060611
5270.0 0.063777
5290.0 0.067177
5310.0 0.068165
5330.0 0.065403
5350.0 0.061904
5370.0 0.06169
5390.0 0.065548
5410.0 0.069821
5430.0 0.0719
5450.0 0.071806
5470.0 0.069644
5490.0 0.066704
5510.0 0.064927
5530.0 0.064767
5550.0 0.065387
5570.0 0.065728
5590.0 0.063771
5610.0 0.060239
5630.0 0.056253
5650.0 0.052675
5670.0 0.050478
5690.0 0.048625
5710.0 0.047271
5730.0 0.047714
5750.0 0.047389
5770.0 0.046253
5790.0 0.046424
5810.0 0.04704
5830.0 0.047724
5850.0 0.047972
5870.0 0.046915
5890.0 0.044775
5910.0 0.042133
5930.0 0.03829
5950.0 0.035388
5970.0 0.034928
5990.0 0.036055
6010.0 0.036666
6030.0 0.035407
6050.0 0.034552
6070.0 0.035875
6090.0 0.038153
6110.0 0.039329
6130.0 0.038204
6150.0 0.036
6170.0 0.034455
6190.0 0.032902
6210.0 0.031062
6230.0 0.029453
6250.0 0.028816
6270.0 0.029549
6290.0 0.030861
6310.0 0.032692
6330.0 0.034955
6350.0 0.037122
6370.0 0.038247
6390.0 0.038455
6410.0 0.038814
6430.0 0.039215
6450.0 0.039476
6470.0 0.04014
6490.0 0.040888
6510.0 0.041257
6530.0 0.041008
6550.0 0.040048
6570.0 0.038588
6590.0 0.037153
6610.0 0.036126
6630.0 0.035401
6650.0 0.034238
6670.0 0.032739
6690.0 0.031548
6710.0 0.030863
6730.0 0.030632
6750.0 0.030213
6770.0 0.029587
6790.0 0.029116
6810.0 0.028659
6830.0 0.028479
6850.0 0.028732
6870.0 0.028751
6890.0 0.028511
6910.0 0.027872
6930.0 0.027224
6950.0 0.026905
6970.0 0.026221
6990.0 0.025291
7010.0 0.02489
7030.0 0.024636
7050.0 0.024013
7070.0 0.023176
7090.0 0.022715
7110.0 0.02308
7130.0 0.024236
7150.0 0.025547
7170.0 0.026389
7190.0 0.02616
7210.0 0.025387
7230.0 0.024907
7250.0 0.024678
7270.0 0.02456
7290.0 0.024305
7310.0 0.024305
7330.0 0.024873
7350.0 0.025605
7370.0 0.026039
7390.0 0.025851
7410.0 0.025203
7430.0 0.024679
7450.0 0.024123
7470.0 0.022903
7490.0 0.022078
7510.0 0.021286
7530.0 0.02076
7550.0 0.020844
7570.0 0.021118
7590.0 0.021154
7610.0 0.021031
7630.0 0.02097
7650.0 0.020988
7670.0 0.021462
7690.0 0.022197
7710.0 0.023123
7730.0 0.023795
7750.0 0.024551
7770.0 0.024998
7790.0 0.025114
7810.0 0.024959
7830.0 0.025159
7850.0 0.024998
7870.0 0.024074
7890.0 0.023108
7910.0 0.022395
7930.0 0.021749
7950.0 0.02124
7970.0 0.021107
7990.0 0.02135
8010.0 0.020869
8030.0 0.020657
8050.0 0.020357
8070.0 0.020004
8090.0 0.019639
8110.0 0.019666
8130.0 0.019819
8150.0 0.019782
8170.0 0.01966
8190.0 0.019217
8210.0 0.018183
8230.0 0.016971
8250.0 0.01625
8270.0 0.015759
8290.0 0.01537
8310.0 0.015317
8330.0 0.015463
8350.0 0.015116
8370.0 0.014829
8390.0 0.015199
8410.0 0.01601
8430.0 0.017122
8450.0 0.018242
8470.0 0.018799
8490.0 0.019263
8510.0 0.019517
8530.0 0.019783
8550.0 0.020112
8570.0 0.020311
8590.0 0.020504
8610.0 0.021082
8630.0 0.021338
8650.0 0.020925
8670.0 0.020948
8690.0 0.021207
8710.0 0.021356
8730.0 0.021247
8750.0 0.020707
8770.0 0.020486
8790.0 0.020382
8810.0 0.02012
8830.0 0.018906
8850.0 0.01734
8870.0 0.016215
8890.0 0.015611
8910.0 0.014743
8930.0 0.013732
8950.0 0.013153
8970.0 0.013083
8990.0 0.013195
9010.0 0.013164
9030.0 0.013071
9050.0 0.012983
9070.0 0.012906
9090.0 0.01283
9110.0 0.012755
9130.0 0.012681
9150.0 0.012606
9170.0 0.012532
9190.0 0.012458
9210.0 0.012384
9230.0 0.012311
9250.0 0.012239
9270.0 0.012166
9290.0 0.012095
9310.0 0.012023
9330.0 0.011952
9350.0 0.011881
9370.0 0.01181
9390.0 0.01174
9410.0 0.01167
9430.0 0.0116
9450.0 0.011527
9470.0 0.011455
9490.0 0.011391
9510.0 0.011325
9530.0 0.011259
9550.0 0.011192
9570.0 0.011126
9590.0 0.01106
9610.0 0.010994
9630.0 0.010928
9650.0 0.010863
9670.0 0.010798
9690.0 0.010734
9710.0 0.010669
9730.0 0.010606
9750.0 0.010542
9770.0 0.010478
9790.0 0.010415
9810.0 0.010353
9830.0 0.010289
9850.0 0.01022
9870.0 0.01016
9890.0 0.010101
9910.0 0.010041
9930.0 0.0099801
9950.0 0.0099212
9970.0 0.0098604
9990.0 0.0097985
10010.0 0.00973
10030.0 0.0096666
10050.0 0.009611
10070.0 0.0095546
10090.0 0.0094979
10110.0 0.0094362
10130.0 0.0093587
10150.0 0.0093031
10170.0 0.009251
10190.0 0.0091945
10210.0 0.009139
10230.0 0.0090832
10250.0 0.0090241
10270.0 0.008965
10290.0 0.008908
10310.0 0.0088487
10330.0 0.0087873
10350.0 0.008729
10370.0 0.0086708
10390.0 0.0086103
10410.0 0.0085502
10430.0 0.0084929
10450.0 0.0084332
10470.0 0.0083723
10490.0 0.0083135
10510.0 0.0082549
10530.0 0.0081924
10550.0 0.0081315
10570.0 0.008073
10590.0 0.0080122
10610.0 0.0079502
10630.0 0.0078907
10650.0 0.0078308
10670.0 0.0077676
10690.0 0.0077058
10710.0 0.0076455
10730.0 0.0075829
10750.0 0.0075181
10770.0 0.0074574
10790.0 0.0073956
10810.0 0.0073312
10830.0 0.0072681
10850.0 0.0072069
10870.0 0.0071415
10890.0 0.0070763
10910.0 0.0070138
10930.0 0.0069509
10950.0 0.0068863
10970.0 0.0068241
10990.0 0.0067655
11010.0 0.0067637
11030.0 0.0067065
11050.0 0.0066522
11070.0 0.0065981
11090.0 0.0065415
11110.0 0.0064882
11130.0 0.0064363
11150.0 0.0063835
11170.0 0.0063319
11190.0 0.0062842
11210.0 0.0062372
11230.0 0.0061914
11250.0 0.0061497
11270.0 0.0061111
11290.0 0.0060737
11310.0 0.006039
11330.0 0.0060084
11350.0 0.0059792
11370.0 0.0059512
11390.0 0.0059254
11410.0 0.0059008
11430.0 0.0058753
11450.0 0.0058503
11470.0 0.0058254
11490.0 0.0057991
11510.0 0.0057705
11530.0 0.0057412
11550.0 0.0057101
11570.0 0.0056754
11590.0 0.0056383
11610.0 0.0055997
11630.0 0.0055568
11650.0 0.0055097
11670.0 0.0054616
11690.0 0.0054108
11710.0 0.0053555
11730.0 0.0052981
11750.0 0.0052406
11770.0 0.005179
11790.0 0.0051148
11810.0 0.005051
11830.0 0.0049862
11850.0 0.0049172
11870.0 0.0048496
11890.0 0.0047839
11910.0 0.0047165
11930.0 0.004649
11950.0 0.004585
11970.0 0.0045217
11990.0 0.0044575
12010.0 0.0043969
12030.0 0.0043395
12050.0 0.0042828
12070.0 0.0042275
12090.0 0.0041777
12110.0 0.0041297
12130.0 0.0040834
12150.0 0.0040409
12170.0 0.0040023
12190.0 0.0039652
12210.0 0.0039319
12230.0 0.0039033
12250.0 0.0038781
12270.0 0.0038562
12290.0 0.0038387
12310.0 0.0038251
12330.0 0.0038147
12350.0 0.0038077
12370.0 0.0038036
12390.0 0.0038019
12410.0 0.0038027
12430.0 0.0038048
12450.0 0.0038077
12470.0 0.0038115
12490.0 0.0038153
12510.0 0.0038182
12530.0 0.0038206
12550.0 0.0038218
12570.0 0.003821
12590.0 0.0038179
12610.0 0.0038125
12630.0 0.0038041
12650.0 0.0037928
12670.0 0.0037782
12690.0 0.0037601
12710.0 0.003739
12730.0 0.0037151
12750.0 0.003687
12770.0 0.0036565
12790.0 0.0036243
12810.0 0.0035895
12830.0 0.0035521
12850.0 0.0035148
12870.0 0.0034769
12890.0 0.0034372
12910.0 0.0033978
12930.0 0.0033595
12950.0 0.0033203
12970.0 0.0032809
12990.0 0.0032437
13010.0 0.0032072
13030.0 0.0031704
13050.0 0.0031349
13070.0 0.0031014
13090.0 0.0030676
13110.0 0.0030345
13130.0 0.0030034
13150.0 0.0029733
13170.0 0.0029432
13190.0 0.0029152
13210.0 0.0028892
13230.0 0.0028638
13250.0 0.0028396
13270.0 0.0028174
13290.0 0.0027961
13310.0 0.0027752
13330.0 0.0027558
13350.0 0.0027372
13370.0 0.0027188
13390.0 0.0027003
13410.0 0.0026828
13430.0 0.0026648
13450.0 0.0026462
13470.0 0.0026275
13490.0 0.0026087
13510.0 0.0025883
13530.0 0.0025675
13550.0 0.0025467
13570.0 0.0025251
13590.0 0.0025024
13610.0 0.0024798
13630.0 0.0024574
13650.0 0.0024339
13670.0 0.0024103
13690.0 0.0023874
13710.0 0.0023641
13730.0 0.0023398
13750.0 0.0023168
13770.0 0.002294
13790.0 0.0022707
13810.0 0.0022475
13830.0 0.0022254
13850.0 0.0022028
13870.0 0.0021798
13890.0 0.0021578
13910.0 0.0021361
13930.0 0.0021139
13950.0 0.0020921
13970.0 0.0020717
13990.0 0.002051
14010.0 0.0020303
14030.0 0.0020106
14050.0 0.0019914
14070.0 0.0019715
14090.0 0.0019524
14110.0 0.0019341
14130.0 0.0019158
14150.0 0.0018974
14170.0 0.0018803
14190.0 0.0018636
14210.0 0.0018468
14230.0 0.0018309
14250.0 0.001816
14270.0 0.0018012
14290.0 0.0017869
14310.0 0.0017741
14330.0 0.0017618
14350.0 0.0017499
14370.0 0.001739
14390.0 0.001729
14410.0 0.0017192
14430.0 0.0017099
14450.0 0.0017015
14470.0 0.0016934
14490.0 0.0016852
14510.0 0.0016777
14530.0 0.0016706
14550.0 0.0016633
14570.0 0.0016561
14590.0 0.0016493
14610.0 0.0016422
14630.0 0.0016349
14650.0 0.0016278
14670.0 0.0016208
14690.0 0.0016138
14710.0 0.0016069
14730.0 0.001601
14750.0 0.0015957
14770.0 0.0015913
14790.0 0.0015884
14810.0 0.0015873
14830.0 0.0015879
14850.0 0.001591
14870.0 0.0015963
14890.0 0.001604
14910.0 0.001614
14930.0 0.0016253
14950.0 0.0016373
14970.0 0.0016499
14990.0 0.0016615
15010.0 0.0016715
15030.0 0.0016799
15050.0 0.0016866
15070.0 0.0016914
15090.0 0.001695
15110.0 0.0016977
15130.0 0.0016998
15150.0 0.0017018
15170.0 0.0017036
15190.0 0.0017053
15210.0 0.0017071
15230.0 0.001709
15250.0 0.0017109
15270.0 0.0017128
15290.0 0.0017149
15310.0 0.001717
15330.0 0.0017191
15350.0 0.0017214
15370.0 0.0017237
15390.0 0.0017259
15410.0 0.0017283
15430.0 0.0017308
15450.0 0.0017333
15470.0 0.0017358
15490.0 0.0017384
15510.0 0.0017411
15530.0 0.0017438
15550.0 0.0017465
15570.0 0.0017494
15590.0 0.0017522
15610.0 0.0017551
15630.0 0.0017581
15650.0 0.0017611
15670.0 0.0017641
15690.0 0.0017672
15710.0 0.0017704
15730.0 0.0017736
15750.0 0.0017768
15770.0 0.00178
15790.0 0.0017834
15810.0 0.0017866
15830.0 0.00179
15850.0 0.0017935
15870.0 0.0017969
15890.0 0.0018004
15910.0 0.0018039
15930.0 0.0018075
15950.0 0.001811
15970.0 0.0018147
15990.0 0.0018183
16010.0 0.001822
16030.0 0.0018256
16050.0 0.0018294
16070.0 0.0018332
16090.0 0.0018369
16110.0 0.0018407
16130.0 0.0018446
16150.0 0.0018484
16170.0 0.0018522
16190.0 0.0018561
16210.0 0.00186
16230.0 0.0018639
16250.0 0.0018678
16270.0 0.0018718
16290.0 0.0018757
16310.0 0.0018796
16330.0 0.0018836
16350.0 0.0018876
16370.0 0.0018915
16390.0 0.0018955
16410.0 0.0018995
16430.0 0.0019035
16450.0 0.0019074
16470.0 0.0019115
16490.0 0.0019154
16510.0 0.0019194
16530.0 0.0019234
16550.0 0.0019274
16570.0 0.0019313
16590.0 0.0019352
16610.0 0.0019392
16630.0 0.0019431
16650.0 0.001947
16670.0 0.001951
16690.0 0.0019549
16710.0 0.0019587
16730.0 0.0019625
16750.0 0.0019664
16770.0 0.0019702
16790.0 0.0019739
16810.0 0.0019777
16830.0 0.0019815
16850.0 0.0019852
16870.0 0.0019888
16890.0 0.0019925
16910.0 0.0019961
16930.0 0.0019997
16950.0 0.0020033
16970.0 0.0020068
16990.0 0.0020102
17010.0 0.0020137
17030.0 0.0020171
17050.0 0.0020204
17070.0 0.0020237
17090.0 0.002027
17110.0 0.0020303
17130.0 0.0020334
17150.0 0.0020365
17170.0 0.0020396
17190.0 0.0020426
17210.0 0.0020456
17230.0 0.0020485
17250.0 0.0020514
17270.0 0.0020542
17290.0 0.0020569
17310.0 0.0020596
17330.0 0.0020622
17350.0 0.0020647
17370.0 0.0020673
17390.0 0.0020697
17410.0 0.002072
17430.0 0.0020744
17450.0 0.0020766
17470.0 0.0020787
17490.0 0.0020808
17510.0 0.0020828
17530.0 0.0020847
17550.0 0.0020865
17570.0 0.0020884
17590.0 0.0020901
17610.0 0.0020917
17630.0 0.0020932
17650.0 0.0020947
17670.0 0.0020961
17690.0 0.0020973
17710.0 0.0020985
17730.0 0.0020997
17750.0 0.0021007
17770.0 0.0021016
17790.0 0.0021025
17810.0 0.0021032
17830.0 0.0021038
17850.0 0.0021045
17870.0 0.002105
17890.0 0.0021053
17910.0 0.0021055
17930.0 0.0021058
17950.0 0.0021059
17970.0 0.0021059
17990.0 0.0021058
18010.0 0.0021056
18030.0 0.0021052
18050.0 0.0021048
18070.0 0.0021044
18090.0 0.0021038
18110.0 0.002103
18130.0 0.0021022
18150.0 0.0021013
18170.0 0.0021003
18190.0 0.0020991
18210.0 0.002098
18230.0 0.0020966
18250.0 0.0020951
18270.0 0.0020936
18290.0 0.0020919
18310.0 0.0020901
18330.0 0.0020882
18350.0 0.0020863
18370.0 0.0020842
18390.0 0.0020819
18410.0 0.0020796
18430.0 0.0020772
18450.0 0.0020746
18470.0 0.002072
18490.0 0.0020693
18510.0 0.0020664
18530.0 0.0020634
18550.0 0.0020604
18570.0 0.0020572
18590.0 0.0020538
18610.0 0.0020504
18630.0 0.0020469
18650.0 0.0020432
18670.0 0.0020395
18690.0 0.0020357
18710.0 0.0020317
18730.0 0.0020276
18750.0 0.0020235
18770.0 0.0020193
18790.0 0.0020148
18810.0 0.0020103
18830.0 0.0020057
18850.0 0.002001
18870.0 0.0019962
18890.0 0.0019913
18910.0 0.0019863
18930.0 0.0019812
18950.0 0.001976
18970.0 0.0019707
18990.0 0.0019652
19010.0 0.0019596
19030.0 0.0019541
19050.0 0.0019484
19070.0 0.0019425
19090.0 0.0019366
19110.0 0.0019307
19130.0 0.0019246
19150.0 0.0019183
19170.0 0.0019121
19190.0 0.0019057
19210.0 0.0018992
19230.0 0.0018926
19250.0 0.001886
19270.0 0.0018793
19290.0 0.0018724
19310.0 0.0018656
19330.0 0.0018586
19350.0 0.0018514
19370.0 0.0018443
19390.0 0.0018371
19410.0 0.0018298
19430.0 0.0018223
19450.0 0.0018149
19470.0 0.0018074
19490.0 0.0017997
19510.0 0.001792
19530.0 0.0017843
19550.0 0.0017765
19570.0 0.0017685
19590.0 0.0017606
19610.0 0.0017526
19630.0 0.0017444
19650.0 0.0017363
19670.0 0.0017281
19690.0 0.0017198
19710.0 0.0017114
19730.0 0.001703
19750.0 0.0016946
19770.0 0.001686
19790.0 0.0016775
19810.0 0.0016689
19830.0 0.0016601
19850.0 0.0016513
19870.0 0.0016424
19890.0 0.0016332
19910.0 0.0016234
19930.0 0.001613
19950.0 0.0016016
19970.0 0.0015885
19990.0 0.0015735
20010.0 0.001557
20030.0 0.001538
20050.0 0.0015167
20070.0 0.0014943
20090.0 0.0014707
20110.0 0.0014453
20130.0 0.0014198
20150.0 0.0013948
20170.0 0.0013695
20190.0 0.001344
20210.0 0.0013198
20230.0 0.001296
20250.0 0.001272
20270.0 0.0012492
20290.0 0.0012275
20310.0 0.0012061
20330.0 0.0011852
20350.0 0.0011662
20370.0 0.0011478
20390.0 0.0011301
20410.0 0.0011135
20430.0 0.0010982
20450.0 0.0010833
20470.0 0.0010695
20490.0 0.0010568
20510.0 0.0010449
20530.0 0.0010337
20550.0 0.0010234
20570.0 0.001014
20590.0 0.001005
20610.0 0.00099675
20630.0 0.00098907
20650.0 0.00098184
20670.0 0.00097498
20690.0 0.0009685
20710.0 0.00096225
20730.0 0.00095618
20750.0 0.0009502
20770.0 0.00094423
20790.0 0.00093821
20810.0 0.00093206
20830.0 0.00092571
20850.0 0.00091913
20870.0 0.00091222
20890.0 0.00090495
20910.0 0.00089735
20930.0 0.00088934
20950.0 0.00088085
20970.0 0.00087203
20990.0 0.00086285
21010.0 0.00085312
21030.0 0.00084304
21050.0 0.00083276
21070.0 0.00082209
21090.0 0.00081097
21110.0 0.00079987
21130.0 0.00078865
21150.0 0.00077711
21170.0 0.00076554
21190.0 0.00075414
21210.0 0.00074254
21230.0 0.00073086
21250.0 0.00071952
21270.0 0.00070833
21290.0 0.00069711
21310.0 0.00068612
21330.0 0.00067561
21350.0 0.00066512
21370.0 0.00065482
21390.0 0.00064495
21410.0 0.00063536
21430.0 0.00062578
21450.0 0.00061663
21470.0 0.00060787
21490.0 0.00059926
21510.0 0.00059086
21530.0 0.00058285
21550.0 0.00057504
21570.0 0.00056734
21590.0 0.00055992
21610.0 0.00055276
21630.0 0.0005457
21650.0 0.00053875
21670.0 0.0005321
21690.0 0.00052555
21710.0 0.00051906
21730.0 0.00051272
21750.0 0.00050653
21770.0 0.0005003
21790.0 0.00049415
21810.0 0.00048811
21830.0 0.00048209
21850.0 0.00047602
21870.0 0.00047001
21890.0 0.00046406
21910.0 0.00045802
21930.0 0.00045197
21950.0 0.00044597
21970.0 0.00043992
21990.0 0.00043374
22010.0 0.00042765
22030.0 0.00042157
22050.0 0.00041541
22070.0 0.00040923
22090.0 0.00040317
22110.0 0.00039705
22130.0 0.00039088
22150.0 0.00038482
22170.0 0.00037881
22190.0 0.00037273
22210.0 0.0003667
22230.0 0.00036085
22250.0 0.00035498
22270.0 0.00034912
22290.0 0.00034339
22310.0 0.00033775
22330.0 0.00033204
22350.0 0.00032642
22370.0 0.00032093
22390.0 0.00031544
22410.0 0.00030991
22430.0 0.00030455
22450.0 0.00029924
22470.0 0.00029387
22490.0 0.00028857
22510.0 0.00028339
22530.0 0.00027814
22550.0 0.00027288
22570.0 0.00026777
22590.0 0.00026271
22610.0 0.00025761
22630.0 0.0002526
22650.0 0.00024776
22670.0 0.00024291
22690.0 0.00023813
22710.0 0.00023351
22730.0 0.00022901
22750.0 0.00022451
22770.0 0.00022022
22790.0 0.00021611
22810.0 0.00021209
22830.0 0.0002082
22850.0 0.00020454
22870.0 0.00020102
22890.0 0.00019763
22910.0 0.00019444
22930.0 0.00019145
22950.0 0.00018862
22970.0 0.00018596
22990.0 0.00018351
23010.0 0.00018121
23030.0 0.00017907
23050.0 0.00017708
23070.0 0.0001752
23090.0 0.00017343
23110.0 0.00017174
23130.0 0.00017007
23150.0 0.00016843
23170.0 0.0001668
23190.0 0.00016512
23210.0 0.00016339
23230.0 0.00016159
23250.0 0.00015972
23270.0 0.00015775
23290.0 0.00015569
23310.0 0.00015352
23330.0 0.00015127
23350.0 0.00014892
23370.0 0.00014648
23390.0 0.00014395
23410.0 0.00014139
23430.0 0.00013875
23450.0 0.00013602
23470.0 0.00013329
23490.0 0.00013055
23510.0 0.00012776
23530.0 0.000125
23550.0 0.00012231
23570.0 0.00011964
23590.0 0.00011703
23610.0 0.00011454
23630.0 0.00011215
23650.0 0.00010989
23670.0 0.00010781
23690.0 0.00010593
23710.0 0.00010428
23730.0 0.0001029
23750.0 0.00010178
23770.0 0.00010141
23790.0 0.00010141
23810.0 0.00010141
23830.0 0.00010141
23850.0 0.00010141
23870.0 0.00010141
23890.0 0.00010182
23910.0 0.00010267
23930.0 0.00010373
23950.0 0.00010481
23970.0 0.0001058
