#lamb flux
1010.0 1.8942e-06
1030.0 1.8942e-06
1050.0 1.8942e-06
1070.0 1.8942e-06
1090.0 1.8942e-06
1110.0 1.8942e-06
1130.0 1.8942e-06
1150.0 1.8942e-06
1170.0 1.8942e-06
1190.0 1.8942e-06
1210.0 1.8942e-06
1230.0 1.8942e-06
1250.0 1.8942e-06
1270.0 1.8942e-06
1290.0 1.8942e-06
1310.0 1.8942e-06
1330.0 1.8942e-06
1350.0 1.8942e-06
1370.0 1.8942e-06
1390.0 1.8942e-06
1410.0 1.8942e-06
1430.0 1.8942e-06
1450.0 2.1005e-06
1470.0 2.3872e-06
1490.0 2.7101e-06
1510.0 3.0751e-06
1530.0 3.4719e-06
1550.0 3.906e-06
1570.0 4.3862e-06
1590.0 4.9122e-06
1610.0 5.4771e-06
1630.0 6.088e-06
1650.0 6.7589e-06
1670.0 7.4819e-06
1690.0 8.2629e-06
1710.0 9.1162e-06
1730.0 1.0038e-05
1750.0 1.1011e-05
1770.0 1.2058e-05
1790.0 1.3176e-05
1810.0 1.4347e-05
1830.0 1.5569e-05
1850.0 1.6864e-05
1870.0 1.8194e-05
1890.0 1.9546e-05
1910.0 2.0929e-05
1930.0 2.2335e-05
1950.0 2.3719e-05
1970.0 2.5082e-05
1990.0 2.6435e-05
2010.0 2.7737e-05
2030.0 2.8965e-05
2050.0 3.014e-05
2070.0 3.1249e-05
2090.0 3.2236e-05
2110.0 3.3123e-05
2130.0 3.3922e-05
2150.0 3.4601e-05
2170.0 3.5144e-05
2190.0 3.5595e-05
2210.0 3.5939e-05
2230.0 3.6154e-05
2250.0 3.6264e-05
2270.0 3.6301e-05
2290.0 3.6231e-05
2310.0 3.6059e-05
2330.0 3.5831e-05
2350.0 3.5543e-05
2370.0 3.5182e-05
2390.0 3.4783e-05
2410.0 3.4376e-05
2430.0 3.3934e-05
2450.0 3.3476e-05
2470.0 3.3039e-05
2490.0 3.2636e-05
2510.0 3.2259e-05
2530.0 3.2005e-05
2550.0 3.1996e-05
2570.0 3.2341e-05
2590.0 3.3179e-05
2610.0 3.4893e-05
2630.0 3.756e-05
2650.0 4.1029e-05
2670.0 4.5412e-05
2690.0 5.0666e-05
2710.0 5.6178e-05
2730.0 6.1718e-05
2750.0 6.7586e-05
2770.0 7.3406e-05
2790.0 7.9024e-05
2810.0 8.4826e-05
2830.0 9.1146e-05
2850.0 9.7381e-05
2870.0 0.00010387
2890.0 0.00011093
2910.0 0.00011835
2930.0 0.00012585
2950.0 0.00013397
2970.0 0.00014267
2990.0 0.00015156
3010.0 0.00016081
3030.0 0.00017076
3050.0 0.00018107
3070.0 0.00019119
3090.0 0.00020146
3110.0 0.00021134
3130.0 0.00022001
3150.0 0.0002271
3170.0 0.00023215
3190.0 0.00023446
3210.0 0.00023357
3230.0 0.0002305
3250.0 0.00022934
3270.0 0.00023246
3290.0 0.00023859
3310.0 0.00024622
3330.0 0.00025563
3350.0 0.00026623
3370.0 0.00027818
3390.0 0.00029213
3410.0 0.00030537
3430.0 0.00032602
3450.0 0.00034249
3470.0 0.00035976
3490.0 0.00037439
3510.0 0.00039215
3530.0 0.0004509
3550.0 0.00053303
3570.0 0.00058317
3590.0 0.00060509
3610.0 0.00060733
3630.0 0.00058872
3650.0 0.00063621
3670.0 0.0007567
3690.0 0.00085206
3710.0 0.00090272
3730.0 0.00094492
3750.0 0.00099131
3770.0 0.00098318
3790.0 0.00093136
3810.0 0.00087207
3830.0 0.00081241
3850.0 0.00080674
3870.0 0.00087328
3890.0 0.00094243
3910.0 0.00099014
3930.0 0.0010203
3950.0 0.0011101
3970.0 0.0011936
3990.0 0.0011406
4010.0 0.0010035
4030.0 0.00087901
4050.0 0.00084172
4070.0 0.00086297
4090.0 0.00086321
4110.0 0.00084416
4130.0 0.00083017
4150.0 0.00083879
4170.0 0.00091397
4190.0 0.0010037
4210.0 0.00099242
4230.0 0.00093878
4250.0 0.0009151
4270.0 0.0009145
4290.0 0.00095365
4310.0 0.0009955
4330.0 0.00094776
4350.0 0.00082225
4370.0 0.00071986
4390.0 0.00064694
4410.0 0.00058493
4430.0 0.00058147
4450.0 0.00063114
4470.0 0.0006749
4490.0 0.00073307
4510.0 0.00083873
4530.0 0.001061
4550.0 0.0013482
4570.0 0.0015201
4590.0 0.0016205
4610.0 0.0017798
4630.0 0.0018942
4650.0 0.0017717
4670.0 0.0014526
4690.0 0.0011887
4710.0 0.0010807
4730.0 0.0010489
4750.0 0.00096701
4770.0 0.0008968
4790.0 0.00094224
4810.0 0.0010303
4830.0 0.0010404
4850.0 0.00097225
4870.0 0.00094339
4890.0 0.0010063
4910.0 0.0010705
4930.0 0.0010785
4950.0 0.0010413
4970.0 0.00097611
4990.0 0.00088241
5010.0 0.0007989
5030.0 0.00075031
5050.0 0.00072793
5070.0 0.00070997
5090.0 0.00068901
5110.0 0.00068298
5130.0 0.00068715
5150.0 0.00071933
5170.0 0.00079941
5190.0 0.00090133
5210.0 0.0010176
5230.0 0.0010945
5250.0 0.0011347
5270.0 0.0011982
5290.0 0.0012734
5310.0 0.0013029
5330.0 0.0012555
5350.0 0.0011866
5370.0 0.0011848
5390.0 0.0012701
5410.0 0.001378
5430.0 0.0014451
5450.0 0.0014604
5470.0 0.0014294
5490.0 0.0013753
5510.0 0.0013394
5530.0 0.0013333
5550.0 0.0013433
5570.0 0.0013478
5590.0 0.0013166
5610.0 0.0012572
5630.0 0.0011749
5650.0 0.0010878
5670.0 0.0010343
5690.0 0.0010071
5710.0 0.00099285
5730.0 0.00099823
5750.0 0.00098999
5770.0 0.00097091
5790.0 0.00097511
5810.0 0.00098405
5830.0 0.00099665
5850.0 0.0010055
5870.0 0.00098728
5890.0 0.00094681
5910.0 0.00089199
5930.0 0.00080646
5950.0 0.0007359
5970.0 0.00072008
5990.0 0.00074595
6010.0 0.00076343
6030.0 0.00073799
6050.0 0.00071346
6070.0 0.00074038
6090.0 0.00079783
6110.0 0.00083144
6130.0 0.00081084
6150.0 0.00076395
6170.0 0.00073026
6190.0 0.00069902
6210.0 0.00065722
6230.0 0.00061359
6250.0 0.00059288
6270.0 0.00060599
6290.0 0.0006293
6310.0 0.00066645
6330.0 0.00072057
6350.0 0.00077823
6370.0 0.00081043
6390.0 0.00081839
6410.0 0.00082637
6430.0 0.00083445
6450.0 0.00084348
6470.0 0.00086011
6490.0 0.00087821
6510.0 0.00089082
6530.0 0.0008906
6550.0 0.00087658
6570.0 0.00084688
6590.0 0.00080755
6610.0 0.00077944
6630.0 0.0007633
6650.0 0.00073946
6670.0 0.00070606
6690.0 0.00067756
6710.0 0.00066274
6730.0 0.00065592
6750.0 0.00064594
6770.0 0.0006337
6790.0 0.00062339
6810.0 0.00061047
6830.0 0.00060321
6850.0 0.00061372
6870.0 0.00062038
6890.0 0.00061408
6910.0 0.00060063
6930.0 0.00058803
6950.0 0.00057715
6970.0 0.0005576
6990.0 0.00053635
7010.0 0.00052705
7030.0 0.00052184
7050.0 0.00050646
7070.0 0.00048372
7090.0 0.00047402
7110.0 0.00048605
7130.0 0.00051577
7150.0 0.00054763
7170.0 0.00056824
7190.0 0.00056421
7210.0 0.00054215
7230.0 0.00052798
7250.0 0.00052685
7270.0 0.00052554
7290.0 0.00052122
7310.0 0.00052509
7330.0 0.00054075
7350.0 0.00056133
7370.0 0.00057394
7390.0 0.00057232
7410.0 0.00055993
7430.0 0.00054367
7450.0 0.00052473
7470.0 0.00049972
7490.0 0.00048246
7510.0 0.00046748
7530.0 0.0004585
7550.0 0.00046121
7570.0 0.00046634
7590.0 0.00046957
7610.0 0.00046752
7630.0 0.00046494
7650.0 0.00046826
7670.0 0.00047994
7690.0 0.00049472
7710.0 0.00051196
7730.0 0.00052521
7750.0 0.00054086
7770.0 0.00055223
7790.0 0.00055834
7810.0 0.00055843
7830.0 0.00055778
7850.0 0.00054752
7870.0 0.00052358
7890.0 0.00049883
7910.0 0.00048304
7930.0 0.00047152
7950.0 0.00046042
7970.0 0.00045474
7990.0 0.00045711
8010.0 0.00043942
8030.0 0.00043453
8050.0 0.00042829
8070.0 0.00042061
8090.0 0.00041284
8110.0 0.00041233
8130.0 0.00041427
8150.0 0.00041238
8170.0 0.00040895
8190.0 0.0003981
8210.0 0.000375
8230.0 0.00034992
8250.0 0.00033541
8270.0 0.00032421
8290.0 0.0003127
8310.0 0.00030717
8330.0 0.00030617
8350.0 0.00029826
8370.0 0.00029408
8390.0 0.00030349
8410.0 0.00032089
8430.0 0.00034339
8450.0 0.000367
8470.0 0.00038051
8490.0 0.0003924
8510.0 0.00040064
8530.0 0.00040886
8550.0 0.00041706
8570.0 0.00042241
8590.0 0.0004272
8610.0 0.00043818
8630.0 0.00044251
8650.0 0.00043355
8670.0 0.00043359
8690.0 0.00044033
8710.0 0.00044658
8730.0 0.00044523
8750.0 0.00043425
8770.0 0.00042985
8790.0 0.00042755
8810.0 0.00042036
8830.0 0.00039269
8850.0 0.00035815
8870.0 0.00033341
8890.0 0.00032085
8910.0 0.00030367
8930.0 0.00028226
8950.0 0.00026844
8970.0 0.00026594
8990.0 0.00026835
9010.0 0.00026803
9030.0 0.00026603
9050.0 0.0002642
9070.0 0.00026266
9090.0 0.00026117
9110.0 0.0002597
9130.0 0.00025823
9150.0 0.00025677
9170.0 0.00025532
9190.0 0.00025388
9210.0 0.00025244
9230.0 0.00025101
9250.0 0.0002496
9270.0 0.00024819
9290.0 0.00024679
9310.0 0.0002454
9330.0 0.00024401
9350.0 0.00024264
9370.0 0.00024127
9390.0 0.00023992
9410.0 0.00023856
9430.0 0.0002372
9450.0 0.00023574
9470.0 0.00023432
9490.0 0.00023312
9510.0 0.00023186
9530.0 0.00023061
9550.0 0.00022933
9570.0 0.00022805
9590.0 0.00022679
9610.0 0.00022552
9630.0 0.00022425
9650.0 0.00022299
9670.0 0.00022176
9690.0 0.00022051
9710.0 0.00021927
9730.0 0.00021805
9750.0 0.00021683
9770.0 0.0002156
9790.0 0.00021439
9810.0 0.00021319
9830.0 0.00021197
9850.0 0.00021067
9870.0 0.00020951
9890.0 0.00020836
9910.0 0.00020719
9930.0 0.00020602
9950.0 0.00020487
9970.0 0.00020369
9990.0 0.0002025
10010.0 0.00020119
10030.0 0.00019998
10050.0 0.00019889
10070.0 0.00019778
10090.0 0.00019668
10110.0 0.00019546
10130.0 0.00019389
10150.0 0.00019281
10170.0 0.00019182
10190.0 0.00019072
10210.0 0.00018964
10230.0 0.00018856
10250.0 0.00018739
10270.0 0.00018623
10290.0 0.00018511
10310.0 0.00018393
10330.0 0.00018271
10350.0 0.00018155
10370.0 0.0001804
10390.0 0.00017919
10410.0 0.00017798
10430.0 0.00017684
10450.0 0.00017564
10470.0 0.00017441
10490.0 0.00017323
10510.0 0.00017204
10530.0 0.00017077
10550.0 0.00016954
10570.0 0.00016835
10590.0 0.0001671
10610.0 0.00016583
10630.0 0.00016462
10650.0 0.00016338
10670.0 0.00016208
10690.0 0.0001608
10710.0 0.00015956
10730.0 0.00015826
10750.0 0.00015691
10770.0 0.00015564
10790.0 0.00015435
10810.0 0.000153
10830.0 0.00015168
10850.0 0.00015039
10870.0 0.00014901
10890.0 0.00014763
10910.0 0.00014631
10930.0 0.00014497
10950.0 0.00014359
10970.0 0.00014225
10990.0 0.00014099
11010.0 0.00013686
11030.0 0.00013555
11050.0 0.00013431
11070.0 0.00013309
11090.0 0.00013184
11110.0 0.00013069
11130.0 0.0001296
11150.0 0.00012851
11170.0 0.00012747
11190.0 0.00012654
11210.0 0.00012564
11230.0 0.00012479
11250.0 0.00012403
11270.0 0.00012336
11290.0 0.00012272
11310.0 0.00012215
11330.0 0.00012167
11350.0 0.00012121
11370.0 0.00012079
11390.0 0.00012041
11410.0 0.00012005
11430.0 0.00011968
11450.0 0.00011931
11470.0 0.00011893
11490.0 0.00011853
11510.0 0.00011807
11530.0 0.0001176
11550.0 0.00011708
11570.0 0.00011648
11590.0 0.00011584
11610.0 0.00011514
11630.0 0.00011436
11650.0 0.00011348
11670.0 0.00011257
11690.0 0.00011158
11710.0 0.00011048
11730.0 0.00010932
11750.0 0.00010812
11770.0 0.00010681
11790.0 0.00010542
11810.0 0.000104
11830.0 0.00010254
11850.0 0.00010094
11870.0 9.9358e-05
11890.0 9.7797e-05
11910.0 9.6175e-05
11930.0 9.4533e-05
11950.0 9.2965e-05
11970.0 9.1406e-05
11990.0 8.982e-05
12010.0 8.8319e-05
12030.0 8.6899e-05
12050.0 8.5494e-05
12070.0 8.4125e-05
12090.0 8.2897e-05
12110.0 8.1715e-05
12130.0 8.0573e-05
12150.0 7.9527e-05
12170.0 7.8581e-05
12190.0 7.7664e-05
12210.0 7.6842e-05
12230.0 7.6132e-05
12250.0 7.5503e-05
12270.0 7.4953e-05
12290.0 7.4507e-05
12310.0 7.4157e-05
12330.0 7.388e-05
12350.0 7.3685e-05
12370.0 7.3562e-05
12390.0 7.3499e-05
12410.0 7.3496e-05
12430.0 7.3529e-05
12450.0 7.3591e-05
12470.0 7.3681e-05
12490.0 7.3784e-05
12510.0 7.388e-05
12530.0 7.3978e-05
12550.0 7.4069e-05
12570.0 7.4131e-05
12590.0 7.4162e-05
12610.0 7.4161e-05
12630.0 7.4112e-05
12650.0 7.4006e-05
12670.0 7.3844e-05
12690.0 7.3613e-05
12710.0 7.3319e-05
12730.0 7.2959e-05
12750.0 7.2514e-05
12770.0 7.2005e-05
12790.0 7.1447e-05
12810.0 7.0822e-05
12830.0 7.0133e-05
12850.0 6.943e-05
12870.0 6.8703e-05
12890.0 6.7933e-05
12910.0 6.7162e-05
12930.0 6.6411e-05
12950.0 6.5641e-05
12970.0 6.487e-05
12990.0 6.4148e-05
13010.0 6.3443e-05
13030.0 6.274e-05
13050.0 6.207e-05
13070.0 6.1443e-05
13090.0 6.0818e-05
13110.0 6.0213e-05
13130.0 5.9647e-05
13150.0 5.9103e-05
13170.0 5.8562e-05
13190.0 5.806e-05
13210.0 5.7594e-05
13230.0 5.7141e-05
13250.0 5.6708e-05
13270.0 5.6312e-05
13290.0 5.5931e-05
13310.0 5.5558e-05
13330.0 5.5209e-05
13350.0 5.4875e-05
13370.0 5.4539e-05
13390.0 5.4201e-05
13410.0 5.3875e-05
13430.0 5.3537e-05
13450.0 5.318e-05
13470.0 5.2816e-05
13490.0 5.2443e-05
13510.0 5.2031e-05
13530.0 5.1603e-05
13550.0 5.1168e-05
13570.0 5.071e-05
13590.0 5.0221e-05
13610.0 4.973e-05
13630.0 4.9239e-05
13650.0 4.8719e-05
13670.0 4.8194e-05
13690.0 4.7682e-05
13710.0 4.716e-05
13730.0 4.6616e-05
13750.0 4.6101e-05
13770.0 4.5593e-05
13790.0 4.5075e-05
13810.0 4.4563e-05
13830.0 4.4078e-05
13850.0 4.3585e-05
13870.0 4.3091e-05
13890.0 4.2623e-05
13910.0 4.217e-05
13930.0 4.1714e-05
13950.0 4.1275e-05
13970.0 4.0872e-05
13990.0 4.0474e-05
14010.0 4.0088e-05
14030.0 3.9729e-05
14050.0 3.9389e-05
14070.0 3.9048e-05
14090.0 3.8729e-05
14110.0 3.8432e-05
14130.0 3.8139e-05
14150.0 3.7851e-05
14170.0 3.7585e-05
14190.0 3.7328e-05
14210.0 3.707e-05
14230.0 3.6824e-05
14250.0 3.6593e-05
14270.0 3.6359e-05
14290.0 3.6129e-05
14310.0 3.5918e-05
14330.0 3.5712e-05
14350.0 3.5506e-05
14370.0 3.531e-05
14390.0 3.5128e-05
14410.0 3.4943e-05
14430.0 3.4764e-05
14450.0 3.4597e-05
14470.0 3.4435e-05
14490.0 3.427e-05
14510.0 3.4116e-05
14530.0 3.3969e-05
14550.0 3.3818e-05
14570.0 3.3666e-05
14590.0 3.3519e-05
14610.0 3.3366e-05
14630.0 3.3202e-05
14650.0 3.304e-05
14670.0 3.2878e-05
14690.0 3.2709e-05
14710.0 3.2543e-05
14730.0 3.2397e-05
14750.0 3.2264e-05
14770.0 3.2153e-05
14790.0 3.208e-05
14810.0 3.205e-05
14830.0 3.2071e-05
14850.0 3.2154e-05
14870.0 3.2296e-05
14890.0 3.25e-05
14910.0 3.2766e-05
14930.0 3.3066e-05
14950.0 3.3383e-05
14970.0 3.3714e-05
14990.0 3.4021e-05
15010.0 3.4282e-05
15030.0 3.4501e-05
15050.0 3.4675e-05
15070.0 3.4797e-05
15090.0 3.4886e-05
15110.0 3.4953e-05
15130.0 3.5005e-05
15150.0 3.505e-05
15170.0 3.5091e-05
15190.0 3.5131e-05
15210.0 3.5172e-05
15230.0 3.5214e-05
15250.0 3.5256e-05
15270.0 3.5299e-05
15290.0 3.5344e-05
15310.0 3.539e-05
15330.0 3.5437e-05
15350.0 3.5485e-05
15370.0 3.5535e-05
15390.0 3.5584e-05
15410.0 3.5636e-05
15430.0 3.5689e-05
15450.0 3.5742e-05
15470.0 3.5796e-05
15490.0 3.5852e-05
15510.0 3.5909e-05
15530.0 3.5967e-05
15550.0 3.6025e-05
15570.0 3.6085e-05
15590.0 3.6146e-05
15610.0 3.6206e-05
15630.0 3.6269e-05
15650.0 3.6333e-05
15670.0 3.6396e-05
15690.0 3.6461e-05
15710.0 3.6528e-05
15730.0 3.6594e-05
15750.0 3.6661e-05
15770.0 3.673e-05
15790.0 3.6799e-05
15810.0 3.6868e-05
15830.0 3.6939e-05
15850.0 3.701e-05
15870.0 3.7082e-05
15890.0 3.7154e-05
15910.0 3.7228e-05
15930.0 3.7302e-05
15950.0 3.7376e-05
15970.0 3.7451e-05
15990.0 3.7527e-05
16010.0 3.7602e-05
16030.0 3.7678e-05
16050.0 3.7756e-05
16070.0 3.7834e-05
16090.0 3.7912e-05
16110.0 3.799e-05
16130.0 3.807e-05
16150.0 3.8148e-05
16170.0 3.8228e-05
16190.0 3.8308e-05
16210.0 3.8388e-05
16230.0 3.8468e-05
16250.0 3.8549e-05
16270.0 3.8631e-05
16290.0 3.8712e-05
16310.0 3.8793e-05
16330.0 3.8875e-05
16350.0 3.8957e-05
16370.0 3.9038e-05
16390.0 3.912e-05
16410.0 3.9203e-05
16430.0 3.9284e-05
16450.0 3.9366e-05
16470.0 3.9449e-05
16490.0 3.9531e-05
16510.0 3.9612e-05
16530.0 3.9694e-05
16550.0 3.9776e-05
16570.0 3.9857e-05
16590.0 3.9938e-05
16610.0 4.002e-05
16630.0 4.0101e-05
16650.0 4.0181e-05
16670.0 4.0262e-05
16690.0 4.0343e-05
16710.0 4.0422e-05
16730.0 4.0501e-05
16750.0 4.058e-05
16770.0 4.0659e-05
16790.0 4.0736e-05
16810.0 4.0814e-05
16830.0 4.0892e-05
16850.0 4.0968e-05
16870.0 4.1044e-05
16890.0 4.112e-05
16910.0 4.1194e-05
16930.0 4.1267e-05
16950.0 4.1341e-05
16970.0 4.1414e-05
16990.0 4.1485e-05
17010.0 4.1557e-05
17030.0 4.1628e-05
17050.0 4.1697e-05
17070.0 4.1765e-05
17090.0 4.1833e-05
17110.0 4.19e-05
17130.0 4.1965e-05
17150.0 4.203e-05
17170.0 4.2095e-05
17190.0 4.2157e-05
17210.0 4.2219e-05
17230.0 4.228e-05
17250.0 4.234e-05
17270.0 4.2397e-05
17290.0 4.2455e-05
17310.0 4.2511e-05
17330.0 4.2565e-05
17350.0 4.2618e-05
17370.0 4.2671e-05
17390.0 4.2722e-05
17410.0 4.2771e-05
17430.0 4.282e-05
17450.0 4.2867e-05
17470.0 4.2912e-05
17490.0 4.2955e-05
17510.0 4.2998e-05
17530.0 4.3039e-05
17550.0 4.3078e-05
17570.0 4.3116e-05
17590.0 4.3153e-05
17610.0 4.3187e-05
17630.0 4.322e-05
17650.0 4.3252e-05
17670.0 4.3281e-05
17690.0 4.3308e-05
17710.0 4.3335e-05
17730.0 4.336e-05
17750.0 4.3382e-05
17770.0 4.3402e-05
17790.0 4.3422e-05
17810.0 4.3439e-05
17830.0 4.3454e-05
17850.0 4.3468e-05
17870.0 4.348e-05
17890.0 4.3489e-05
17910.0 4.3496e-05
17930.0 4.3503e-05
17950.0 4.3507e-05
17970.0 4.3508e-05
17990.0 4.3508e-05
18010.0 4.3506e-05
18030.0 4.3501e-05
18050.0 4.3495e-05
18070.0 4.3487e-05
18090.0 4.3476e-05
18110.0 4.3463e-05
18130.0 4.3449e-05
18150.0 4.3432e-05
18170.0 4.3413e-05
18190.0 4.3392e-05
18210.0 4.3369e-05
18230.0 4.3343e-05
18250.0 4.3315e-05
18270.0 4.3286e-05
18290.0 4.3254e-05
18310.0 4.3219e-05
18330.0 4.3183e-05
18350.0 4.3145e-05
18370.0 4.3104e-05
18390.0 4.306e-05
18410.0 4.3015e-05
18430.0 4.2968e-05
18450.0 4.2917e-05
18470.0 4.2865e-05
18490.0 4.2811e-05
18510.0 4.2755e-05
18530.0 4.2695e-05
18550.0 4.2635e-05
18570.0 4.2572e-05
18590.0 4.2506e-05
18610.0 4.2438e-05
18630.0 4.2368e-05
18650.0 4.2296e-05
18670.0 4.2221e-05
18690.0 4.2145e-05
18710.0 4.2066e-05
18730.0 4.1984e-05
18750.0 4.1901e-05
18770.0 4.1816e-05
18790.0 4.1728e-05
18810.0 4.1637e-05
18830.0 4.1546e-05
18850.0 4.1452e-05
18870.0 4.1355e-05
18890.0 4.1257e-05
18910.0 4.1156e-05
18930.0 4.1053e-05
18950.0 4.0948e-05
18970.0 4.0842e-05
18990.0 4.0733e-05
19010.0 4.062e-05
19030.0 4.0508e-05
19050.0 4.0393e-05
19070.0 4.0275e-05
19090.0 4.0156e-05
19110.0 4.0036e-05
19130.0 3.9912e-05
19150.0 3.9787e-05
19170.0 3.966e-05
19190.0 3.9532e-05
19210.0 3.94e-05
19230.0 3.9267e-05
19250.0 3.9134e-05
19270.0 3.8997e-05
19290.0 3.8859e-05
19310.0 3.872e-05
19330.0 3.8579e-05
19350.0 3.8434e-05
19370.0 3.8289e-05
19390.0 3.8143e-05
19410.0 3.7995e-05
19430.0 3.7844e-05
19450.0 3.7694e-05
19470.0 3.7541e-05
19490.0 3.7386e-05
19510.0 3.723e-05
19530.0 3.7073e-05
19550.0 3.6913e-05
19570.0 3.6752e-05
19590.0 3.6591e-05
19610.0 3.6428e-05
19630.0 3.6263e-05
19650.0 3.6097e-05
19670.0 3.5931e-05
19690.0 3.5762e-05
19710.0 3.5592e-05
19730.0 3.5421e-05
19750.0 3.5249e-05
19770.0 3.5075e-05
19790.0 3.4901e-05
19810.0 3.4726e-05
19830.0 3.4549e-05
19850.0 3.4369e-05
19870.0 3.4187e-05
19890.0 3.3999e-05
19910.0 3.3799e-05
19930.0 3.3584e-05
19950.0 3.3347e-05
19970.0 3.3073e-05
19990.0 3.2759e-05
20010.0 3.2408e-05
20030.0 3.2006e-05
20050.0 3.1556e-05
20070.0 3.1079e-05
20090.0 3.0579e-05
20110.0 3.0039e-05
20130.0 2.95e-05
20150.0 2.8971e-05
20170.0 2.8435e-05
20190.0 2.7898e-05
20210.0 2.7385e-05
20230.0 2.6882e-05
20250.0 2.6376e-05
20270.0 2.5892e-05
20290.0 2.5431e-05
20310.0 2.4978e-05
20330.0 2.4532e-05
20350.0 2.4125e-05
20370.0 2.3733e-05
20390.0 2.3353e-05
20410.0 2.2998e-05
20430.0 2.2669e-05
20450.0 2.235e-05
20470.0 2.2052e-05
20490.0 2.178e-05
20510.0 2.1525e-05
20530.0 2.1285e-05
20550.0 2.1066e-05
20570.0 2.0865e-05
20590.0 2.0677e-05
20610.0 2.0502e-05
20630.0 2.0342e-05
20650.0 2.0191e-05
20670.0 2.005e-05
20690.0 1.9916e-05
20710.0 1.9789e-05
20730.0 1.9665e-05
20750.0 1.9545e-05
20770.0 1.9424e-05
20790.0 1.9303e-05
20810.0 1.9179e-05
20830.0 1.9052e-05
20850.0 1.8919e-05
20870.0 1.8781e-05
20890.0 1.8634e-05
20910.0 1.8481e-05
20930.0 1.832e-05
20950.0 1.8149e-05
20970.0 1.7971e-05
20990.0 1.7785e-05
21010.0 1.7588e-05
21030.0 1.7384e-05
21050.0 1.7175e-05
21070.0 1.6959e-05
21090.0 1.6733e-05
21110.0 1.6507e-05
21130.0 1.6278e-05
21150.0 1.6042e-05
21170.0 1.5805e-05
21190.0 1.5571e-05
21210.0 1.5333e-05
21230.0 1.5092e-05
21250.0 1.4858e-05
21270.0 1.4626e-05
21290.0 1.4393e-05
21310.0 1.4164e-05
21330.0 1.3944e-05
21350.0 1.3725e-05
21370.0 1.3508e-05
21390.0 1.3301e-05
21410.0 1.3099e-05
21430.0 1.2898e-05
21450.0 1.2706e-05
21470.0 1.2522e-05
21490.0 1.2342e-05
21510.0 1.2168e-05
21530.0 1.2003e-05
21550.0 1.1843e-05
21570.0 1.1687e-05
21590.0 1.1538e-05
21610.0 1.1395e-05
21630.0 1.1256e-05
21650.0 1.112e-05
21670.0 1.0991e-05
21690.0 1.0865e-05
21710.0 1.0741e-05
21730.0 1.0621e-05
21750.0 1.0504e-05
21770.0 1.0387e-05
21790.0 1.0272e-05
21810.0 1.0158e-05
21830.0 1.0045e-05
21850.0 9.931e-06
21870.0 9.8178e-06
21890.0 9.7053e-06
21910.0 9.5912e-06
21930.0 9.4766e-06
21950.0 9.3622e-06
21970.0 9.2467e-06
21990.0 9.1288e-06
22010.0 9.0116e-06
22030.0 8.894e-06
22050.0 8.7745e-06
22070.0 8.654e-06
22090.0 8.5347e-06
22110.0 8.4137e-06
22130.0 8.291e-06
22150.0 8.1691e-06
22170.0 8.0474e-06
22190.0 7.9232e-06
22210.0 7.7988e-06
22230.0 7.6767e-06
22250.0 7.5532e-06
22270.0 7.4285e-06
22290.0 7.3057e-06
22310.0 7.1836e-06
22330.0 7.0589e-06
22350.0 6.9354e-06
22370.0 6.814e-06
22390.0 6.6917e-06
22410.0 6.5681e-06
22430.0 6.4479e-06
22450.0 6.3287e-06
22470.0 6.2081e-06
22490.0 6.0891e-06
22510.0 5.9732e-06
22530.0 5.8559e-06
22550.0 5.7389e-06
22570.0 5.6258e-06
22590.0 5.5144e-06
22610.0 5.403e-06
22630.0 5.2944e-06
22650.0 5.1903e-06
