#lamb flux
1010.0 4.7897e-08
1030.0 5.2782e-08
1050.0 5.8399e-08
1070.0 6.4724e-08
1090.0 7.1907e-08
1110.0 7.9275e-08
1130.0 8.669e-08
1150.0 9.4458e-08
1170.0 1.0247e-07
1190.0 1.1007e-07
1210.0 1.1777e-07
1230.0 1.2573e-07
1250.0 1.3352e-07
1270.0 1.4109e-07
1290.0 1.4909e-07
1310.0 1.5709e-07
1330.0 1.6476e-07
1350.0 1.7251e-07
1370.0 1.8051e-07
1390.0 1.8832e-07
1410.0 1.9589e-07
1430.0 2.038e-07
1450.0 2.1172e-07
1470.0 2.1937e-07
1490.0 2.271e-07
1510.0 2.3526e-07
1530.0 2.4299e-07
1550.0 2.5062e-07
1570.0 2.5851e-07
1590.0 2.6641e-07
1610.0 2.7395e-07
1630.0 2.8172e-07
1650.0 2.8969e-07
1670.0 2.974e-07
1690.0 3.05e-07
1710.0 3.1289e-07
1730.0 3.2082e-07
1750.0 3.2826e-07
1770.0 3.3591e-07
1790.0 3.437e-07
1810.0 3.5123e-07
1830.0 3.586e-07
1850.0 3.6641e-07
1870.0 3.7399e-07
1890.0 3.8129e-07
1910.0 3.887e-07
1930.0 3.9625e-07
1950.0 4.0341e-07
1970.0 4.1042e-07
1990.0 4.1767e-07
2010.0 4.2472e-07
2030.0 4.3143e-07
2050.0 4.3828e-07
2070.0 4.4524e-07
2090.0 4.5165e-07
2110.0 4.5794e-07
2130.0 4.6433e-07
2150.0 4.7045e-07
2170.0 4.7611e-07
2190.0 4.8189e-07
2210.0 4.8755e-07
2230.0 4.9275e-07
2250.0 4.9773e-07
2270.0 5.0283e-07
2290.0 5.0749e-07
2310.0 5.1165e-07
2330.0 5.1581e-07
2350.0 5.1982e-07
2370.0 5.2335e-07
2390.0 5.2683e-07
2410.0 5.3067e-07
2430.0 5.3449e-07
2450.0 5.3862e-07
2470.0 5.4391e-07
2490.0 5.5105e-07
2510.0 5.601e-07
2530.0 5.7379e-07
2550.0 5.9612e-07
2570.0 6.3037e-07
2590.0 6.8038e-07
2610.0 7.5777e-07
2630.0 8.6289e-07
2650.0 9.8795e-07
2670.0 1.1327e-06
2690.0 1.2895e-06
2710.0 1.4353e-06
2730.0 1.5602e-06
2750.0 1.6671e-06
2770.0 1.746e-06
2790.0 1.798e-06
2810.0 1.8328e-06
2830.0 1.8573e-06
2850.0 1.8715e-06
2870.0 1.8818e-06
2890.0 1.8919e-06
2910.0 1.9013e-06
2930.0 1.9089e-06
2950.0 1.9176e-06
2970.0 1.927e-06
2990.0 1.9351e-06
3010.0 2.27e-05
3030.0 2.2801e-05
3050.0 2.2893e-05
3070.0 2.295e-05
3090.0 2.2989e-05
3110.0 2.2982e-05
3130.0 2.2889e-05
3150.0 2.2697e-05
3170.0 2.2381e-05
3190.0 2.1947e-05
3210.0 2.1448e-05
3230.0 2.0938e-05
3250.0 2.0531e-05
3270.0 2.0279e-05
3290.0 2.0292e-05
3310.0 2.0521e-05
3330.0 2.1041e-05
3350.0 2.177e-05
3370.0 2.272e-05
3390.0 2.3856e-05
3410.0 2.5048e-05
3430.0 2.6343e-05
3450.0 2.7776e-05
3470.0 2.9273e-05
3490.0 3.0793e-05
3510.0 3.245e-05
3530.0 3.4172e-05
3550.0 3.5855e-05
3570.0 3.7572e-05
3590.0 3.9458e-05
3610.0 4.1304e-05
3630.0 4.3207e-05
3650.0 4.5093e-05
3670.0 4.6817e-05
3690.0 4.814e-05
3710.0 4.9028e-05
3730.0 4.9502e-05
3750.0 4.9655e-05
3770.0 4.626e-05
3790.0 4.2934e-05
3810.0 3.7719e-05
3830.0 2.8197e-05
3850.0 2.0535e-05
3870.0 2.0095e-05
3890.0 2.5234e-05
3910.0 3.9207e-05
3930.0 5.2146e-05
3950.0 5.8819e-05
3970.0 6.1761e-05
3990.0 6.5941e-05
4010.0 7.3025e-05
4030.0 7.2956e-05
4050.0 6.8664e-05
4070.0 6.3721e-05
4090.0 6.0992e-05
4110.0 6.5463e-05
4130.0 6.7285e-05
4150.0 6.7348e-05
4170.0 6.9219e-05
4190.0 6.9229e-05
4210.0 7.0727e-05
4230.0 7.6493e-05
4250.0 8.3632e-05
4270.0 8.7175e-05
4290.0 8.6349e-05
4310.0 8.7972e-05
4330.0 9.402e-05
4350.0 0.00010893
4370.0 0.00012248
4390.0 0.00011509
4410.0 9.4752e-05
4430.0 8.1086e-05
4450.0 6.8613e-05
4470.0 6.3517e-05
4490.0 7.1739e-05
4510.0 8.5212e-05
4530.0 9.4277e-05
4550.0 0.00010409
4570.0 0.0001217
4590.0 0.00014915
4610.0 0.00019585
4630.0 0.0002363
4650.0 0.00023933
4670.0 0.00023735
4690.0 0.00025193
4710.0 0.00025437
4730.0 0.00021152
4750.0 0.00015957
4770.0 0.0001293
4790.0 0.00012514
4810.0 0.00011893
4830.0 0.00011859
4850.0 0.0001399
4870.0 0.00017401
4890.0 0.0001866
4910.0 0.00016173
4930.0 0.00015237
4950.0 0.00017678
4970.0 0.00023274
4990.0 0.00028494
5010.0 0.00029146
5030.0 0.00023374
5050.0 0.00015974
5070.0 0.00011752
5090.0 0.00010145
5110.0 0.00010009
5130.0 0.00010851
5150.0 0.00011238
5170.0 0.00011089
5190.0 0.00011005
5210.0 0.00010765
5230.0 0.00011331
5250.0 0.00012401
5270.0 0.00014217
5290.0 0.00016472
5310.0 0.00017956
5330.0 0.00018581
5350.0 0.0001974
5370.0 0.00021657
5390.0 0.00022459
5410.0 0.00020708
5430.0 0.00018324
5450.0 0.00018067
5470.0 0.0002156
5490.0 0.00027342
5510.0 0.00033275
5530.0 0.00036026
5550.0 0.00034951
5570.0 0.00032418
5590.0 0.00029376
5610.0 0.00028181
5630.0 0.00028324
5650.0 0.00028498
5670.0 0.00027981
5690.0 0.00026471
5710.0 0.00025322
5730.0 0.00022507
5750.0 0.00017324
5770.0 0.00015222
5790.0 0.00016504
5810.0 0.00019289
5830.0 0.00021933
5850.0 0.00023511
5870.0 0.00023614
5890.0 0.00022039
5910.0 0.00021385
5930.0 0.00021658
5950.0 0.00022754
5970.0 0.00023538
5990.0 0.00021522
6010.0 0.00017785
6030.0 0.00014722
6050.0 0.00013492
6070.0 0.00014037
6090.0 0.00015507
6110.0 0.00015822
6130.0 0.00014742
6150.0 0.00014354
6170.0 0.00015747
6190.0 0.00018843
6210.0 0.00022631
6230.0 0.00025223
6250.0 0.00025013
6270.0 0.00022128
6290.0 0.00018249
6310.0 0.00014625
6330.0 0.00012098
6350.0 0.00011457
6370.0 0.00012573
6390.0 0.00014448
6410.0 0.00016784
6430.0 0.00019396
6450.0 0.0002279
6470.0 0.00028178
6490.0 0.00034362
6510.0 0.00036376
6530.0 0.00034282
6550.0 0.0003271
6570.0 0.00032328
6590.0 0.00031014
6610.0 0.00028581
6630.0 0.00026603
6650.0 0.00025528
6670.0 0.00025482
6690.0 0.00024755
6710.0 0.00022271
6730.0 0.00019315
6750.0 0.00017715
6770.0 0.00018644
6790.0 0.00020031
6810.0 0.00020647
6830.0 0.0002092
6850.0 0.00020164
6870.0 0.00019228
6890.0 0.00018625
6910.0 0.00017745
6930.0 0.00017149
6950.0 0.00017304
6970.0 0.00017938
6990.0 0.00019712
7010.0 0.00020581
7030.0 0.00019649
7050.0 0.00018004
7070.0 0.0001568
7090.0 0.00013327
7110.0 0.00012487
7130.0 0.00013034
7150.0 0.00013595
7170.0 0.00013957
7190.0 0.00013691
7210.0 0.00013622
7230.0 0.00015254
7250.0 0.00017726
7270.0 0.00019916
7290.0 0.00021038
7310.0 0.0001968
7330.0 0.00017587
7350.0 0.00016037
7370.0 0.00015654
7390.0 0.00016383
7410.0 0.0001761
7430.0 0.00019369
7450.0 0.0002142
7470.0 0.00023288
7490.0 0.00023709
7510.0 0.00020605
7530.0 0.0002041
7550.0 0.00018471
7570.0 0.00015759
7590.0 0.00012669
7610.0 0.00011827
7630.0 0.00012877
7650.0 0.00014991
7670.0 0.00017168
7690.0 0.00018949
7710.0 0.00020787
7730.0 0.00022429
7750.0 0.00023599
7770.0 0.00023227
7790.0 0.00023071
7810.0 0.0002347
7830.0 0.00023227
7850.0 0.0002229
7870.0 0.00020922
7890.0 0.00019243
7910.0 0.00017025
7930.0 0.00015095
7950.0 0.00013885
7970.0 0.00013552
7990.0 0.00014013
8010.0 0.0001431
8030.0 0.00014488
8050.0 0.00014623
8070.0 0.00014452
8090.0 0.00014394
8110.0 0.00013866
8130.0 0.00012944
8150.0 0.00012214
8170.0 0.00012072
8190.0 0.00012269
8210.0 0.00012375
8230.0 0.00012259
8250.0 0.00011835
8270.0 0.00010441
8290.0 8.2483e-05
8310.0 5.9984e-05
8330.0 4.032e-05
8350.0 2.8783e-05
8370.0 2.92e-05
8390.0 3.5381e-05
8410.0 4.4659e-05
8430.0 5.4477e-05
8450.0 5.9808e-05
8470.0 6.2738e-05
8490.0 6.571e-05
8510.0 6.9131e-05
8530.0 7.6669e-05
8550.0 8.9208e-05
8570.0 0.00010481
8590.0 0.00012098
8610.0 0.00014105
8630.0 0.00016373
8650.0 0.00017746
8670.0 0.00017733
8690.0 0.00017101
8710.0 0.00016222
8730.0 0.00015536
8750.0 0.00014896
8770.0 0.00014486
8790.0 0.00013903
8810.0 0.00012898
8830.0 0.00011786
8850.0 0.00010109
8870.0 8.9402e-05
8890.0 8.2889e-05
8910.0 8.6989e-05
8930.0 8.5299e-05
8950.0 8.7598e-05
8970.0 8.857e-05
8990.0 8.9755e-05
9010.0 9.1261e-05
9030.0 9.0027e-05
9050.0 8.9946e-05
9070.0 9.001e-05
9090.0 9.0081e-05
9110.0 9.0125e-05
9130.0 9.0209e-05
9150.0 9.0335e-05
9170.0 9.0414e-05
9190.0 9.043e-05
9210.0 9.0927e-05
9230.0 9.1002e-05
9250.0 9.1137e-05
9270.0 9.1292e-05
9290.0 9.1465e-05
9310.0 9.1659e-05
9330.0 9.1867e-05
9350.0 9.2085e-05
9370.0 9.2318e-05
9390.0 9.2563e-05
9410.0 9.2817e-05
9430.0 9.3079e-05
9450.0 9.3356e-05
9470.0 9.3643e-05
9490.0 9.3937e-05
9510.0 9.4242e-05
9530.0 9.4559e-05
9550.0 9.4881e-05
9570.0 9.5213e-05
9590.0 9.5556e-05
9610.0 9.5907e-05
9630.0 9.6264e-05
9650.0 9.663e-05
9670.0 9.7007e-05
9690.0 9.7389e-05
9710.0 9.7778e-05
9730.0 9.8175e-05
9750.0 9.8579e-05
9770.0 9.8986e-05
9790.0 9.9401e-05
9810.0 9.9824e-05
9830.0 0.00010025
9850.0 0.00010068
9870.0 0.00010112
9890.0 0.00010156
9910.0 0.000102
9930.0 0.00010244
9950.0 0.00010287
9970.0 0.00010333
9990.0 0.00010378
10010.0 0.00010413
10030.0 0.00010458
10050.0 0.00010502
10070.0 0.00010533
10090.0 0.00010584
10110.0 0.00010633
10130.0 0.00010681
10150.0 0.00010729
10170.0 0.00010775
10190.0 0.00010819
10210.0 0.00010864
10230.0 0.00010908
10250.0 0.00010951
10270.0 0.00010994
10290.0 0.00011037
10310.0 0.00011078
10330.0 0.00011118
10350.0 0.00011159
10370.0 0.00011199
10390.0 0.00011237
10410.0 0.00011275
10430.0 0.00011312
10450.0 0.00011348
10470.0 0.00011383
10490.0 0.00011417
10510.0 0.00011451
10530.0 0.00011481
10550.0 0.00011512
10570.0 0.00011542
10590.0 0.0001157
10610.0 0.00011596
10630.0 0.00011622
10650.0 0.00011647
10670.0 0.00011669
10690.0 0.00011691
10710.0 0.00011711
10730.0 0.00011729
10750.0 0.00011745
10770.0 0.00011762
10790.0 0.00011776
10810.0 0.00011787
10830.0 0.00011798
10850.0 0.00011806
10870.0 0.00011809
10890.0 0.00011804
10910.0 0.00011791
10930.0 0.00011762
10950.0 0.00011705
10970.0 0.00011616
10990.0 0.00011493
11010.0 0.0001111
11030.0 0.00010883
11050.0 0.00010623
11070.0 0.00010323
11090.0 9.9743e-05
11110.0 9.6251e-05
11130.0 9.2725e-05
11150.0 8.9069e-05
11170.0 8.5474e-05
11190.0 8.2172e-05
11210.0 7.8963e-05
11230.0 7.5901e-05
11250.0 7.3198e-05
11270.0 7.0806e-05
11290.0 6.8605e-05
11310.0 6.6697e-05
11330.0 6.5144e-05
11350.0 6.3765e-05
11370.0 6.2539e-05
11390.0 6.148e-05
11410.0 6.051e-05
11430.0 5.9513e-05
11450.0 5.851e-05
11470.0 5.7477e-05
11490.0 5.6331e-05
11510.0 5.5034e-05
11530.0 5.3675e-05
11550.0 5.2221e-05
11570.0 5.0614e-05
11590.0 4.8947e-05
11610.0 4.7289e-05
11630.0 4.5558e-05
11650.0 4.3804e-05
11670.0 4.2177e-05
11690.0 4.0624e-05
11710.0 3.9119e-05
11730.0 3.7746e-05
11750.0 3.654e-05
11770.0 3.541e-05
11790.0 3.4387e-05
11810.0 3.3501e-05
11830.0 3.2705e-05
11850.0 3.195e-05
11870.0 3.1271e-05
11890.0 3.0645e-05
11910.0 3.0017e-05
11930.0 2.938e-05
11950.0 2.8751e-05
11970.0 2.8093e-05
11990.0 2.7381e-05
12010.0 2.6655e-05
12030.0 2.5918e-05
12050.0 2.5146e-05
12070.0 2.4355e-05
12090.0 2.362e-05
12110.0 2.2907e-05
12130.0 2.2226e-05
12150.0 2.1629e-05
12170.0 2.113e-05
12190.0 2.0712e-05
12210.0 2.0419e-05
12230.0 2.026e-05
12250.0 2.0228e-05
12270.0 2.0338e-05
12290.0 2.0575e-05
12310.0 2.0918e-05
12330.0 2.1391e-05
12350.0 2.1962e-05
12370.0 2.2585e-05
12390.0 2.3273e-05
12410.0 2.4039e-05
12430.0 2.477e-05
12450.0 2.5479e-05
12470.0 2.6182e-05
12490.0 2.6829e-05
12510.0 2.7377e-05
12530.0 2.7863e-05
12550.0 2.8267e-05
12570.0 2.8553e-05
12590.0 2.8732e-05
12610.0 2.8816e-05
12630.0 2.8789e-05
12650.0 2.8661e-05
12670.0 2.8443e-05
12690.0 2.8138e-05
12710.0 2.7766e-05
12730.0 2.7337e-05
12750.0 2.6836e-05
12770.0 2.6301e-05
12790.0 2.5748e-05
12810.0 2.5161e-05
12830.0 2.4543e-05
12850.0 2.3936e-05
12870.0 2.3323e-05
12890.0 2.2682e-05
12910.0 2.2042e-05
12930.0 2.1413e-05
12950.0 2.0755e-05
12970.0 2.0077e-05
12990.0 1.942e-05
13010.0 1.8759e-05
13030.0 1.8078e-05
13050.0 1.7412e-05
13070.0 1.6779e-05
13090.0 1.6143e-05
13110.0 1.553e-05
13130.0 1.4972e-05
13150.0 1.4458e-05
13170.0 1.3977e-05
13190.0 1.3573e-05
13210.0 1.3244e-05
13230.0 1.2975e-05
13250.0 1.2779e-05
13270.0 1.2659e-05
13290.0 1.2606e-05
13310.0 1.2623e-05
13330.0 1.2701e-05
13350.0 1.283e-05
13370.0 1.3011e-05
13390.0 1.3237e-05
13410.0 1.3474e-05
13430.0 1.3735e-05
13450.0 1.4015e-05
13470.0 1.4288e-05
13490.0 1.4546e-05
13510.0 1.481e-05
13530.0 1.5051e-05
13550.0 1.526e-05
13570.0 1.5448e-05
13590.0 1.5616e-05
13610.0 1.5751e-05
13630.0 1.5857e-05
13650.0 1.5944e-05
13670.0 1.6006e-05
13690.0 1.6044e-05
13710.0 1.6062e-05
13730.0 1.6063e-05
13750.0 1.6043e-05
13770.0 1.6006e-05
13790.0 1.5952e-05
13810.0 1.5881e-05
13830.0 1.5796e-05
13850.0 1.5693e-05
13870.0 1.5571e-05
13890.0 1.5435e-05
13910.0 1.5286e-05
13930.0 1.5117e-05
13950.0 1.4935e-05
13970.0 1.4751e-05
13990.0 1.4555e-05
14010.0 1.4352e-05
14030.0 1.4155e-05
14050.0 1.3962e-05
14070.0 1.3767e-05
14090.0 1.3588e-05
14110.0 1.3427e-05
14130.0 1.3279e-05
14150.0 1.3148e-05
14170.0 1.3042e-05
14190.0 1.2958e-05
14210.0 1.2895e-05
14230.0 1.2857e-05
14250.0 1.2842e-05
14270.0 1.2852e-05
14290.0 1.2888e-05
14310.0 1.2944e-05
14330.0 1.302e-05
14350.0 1.3118e-05
14370.0 1.3231e-05
14390.0 1.3352e-05
14410.0 1.349e-05
14430.0 1.3636e-05
14450.0 1.3782e-05
14470.0 1.3932e-05
14490.0 1.4093e-05
14510.0 1.4251e-05
14530.0 1.441e-05
14550.0 1.4583e-05
14570.0 1.477e-05
14590.0 1.4966e-05
14610.0 1.5188e-05
14630.0 1.5448e-05
14650.0 1.5731e-05
14670.0 1.6044e-05
14690.0 1.6407e-05
14710.0 1.6814e-05
14730.0 1.7232e-05
14750.0 1.769e-05
14770.0 1.8186e-05
14790.0 1.8687e-05
14810.0 1.9182e-05
14830.0 1.9708e-05
14850.0 2.0211e-05
14870.0 2.067e-05
14890.0 2.1102e-05
14910.0 2.1499e-05
14930.0 2.1827e-05
14950.0 2.2092e-05
14970.0 2.2306e-05
14990.0 2.2455e-05
15010.0 2.2544e-05
15030.0 2.2586e-05
15050.0 2.2589e-05
15070.0 2.2562e-05
15090.0 2.2517e-05
15110.0 2.2459e-05
15130.0 2.2394e-05
15150.0 2.2328e-05
15170.0 2.2259e-05
15190.0 2.2188e-05
15210.0 2.2119e-05
15230.0 2.2052e-05
15250.0 2.1982e-05
15270.0 2.1913e-05
15290.0 2.1847e-05
15310.0 2.178e-05
15330.0 2.1713e-05
15350.0 2.1648e-05
15370.0 2.1584e-05
15390.0 2.1516e-05
15410.0 2.1451e-05
15430.0 2.1387e-05
15450.0 2.1323e-05
15470.0 2.1257e-05
15490.0 2.1195e-05
15510.0 2.1132e-05
15530.0 2.1068e-05
15550.0 2.1005e-05
15570.0 2.0944e-05
15590.0 2.0881e-05
15610.0 2.0816e-05
15630.0 2.0756e-05
15650.0 2.0695e-05
15670.0 2.0632e-05
15690.0 2.057e-05
15710.0 2.0511e-05
15730.0 2.0449e-05
15750.0 2.0387e-05
15770.0 2.0327e-05
15790.0 2.0267e-05
15810.0 2.0203e-05
15830.0 2.0143e-05
15850.0 2.0084e-05
15870.0 2.0023e-05
15890.0 1.9961e-05
15910.0 1.9903e-05
15930.0 1.9843e-05
15950.0 1.978e-05
15970.0 1.972e-05
15990.0 1.9661e-05
16010.0 1.96e-05
16030.0 1.9537e-05
16050.0 1.9479e-05
16070.0 1.9419e-05
16090.0 1.9357e-05
16110.0 1.9297e-05
16130.0 1.9238e-05
16150.0 1.9175e-05
16170.0 1.9113e-05
16190.0 1.9054e-05
16210.0 1.8993e-05
16230.0 1.893e-05
16250.0 1.887e-05
16270.0 1.8811e-05
16290.0 1.8748e-05
16310.0 1.8686e-05
16330.0 1.8626e-05
16350.0 1.8564e-05
16370.0 1.8499e-05
16390.0 1.8438e-05
16410.0 1.8377e-05
16430.0 1.8314e-05
16450.0 1.8251e-05
16470.0 1.8191e-05
16490.0 1.8127e-05
16510.0 1.8063e-05
16530.0 1.8e-05
16550.0 1.7938e-05
16570.0 1.7873e-05
16590.0 1.7808e-05
16610.0 1.7747e-05
16630.0 1.7682e-05
16650.0 1.7617e-05
16670.0 1.7554e-05
16690.0 1.7491e-05
16710.0 1.7423e-05
16730.0 1.7358e-05
16750.0 1.7294e-05
16770.0 1.7229e-05
16790.0 1.7161e-05
16810.0 1.7097e-05
16830.0 1.7032e-05
16850.0 1.6965e-05
16870.0 1.6899e-05
16890.0 1.6834e-05
16910.0 1.6766e-05
16930.0 1.6697e-05
16950.0 1.6631e-05
16970.0 1.6565e-05
16990.0 1.6496e-05
17010.0 1.6428e-05
17030.0 1.6362e-05
17050.0 1.6293e-05
17070.0 1.6224e-05
17090.0 1.6156e-05
17110.0 1.6088e-05
17130.0 1.6017e-05
17150.0 1.5948e-05
17170.0 1.588e-05
17190.0 1.581e-05
17210.0 1.574e-05
17230.0 1.5672e-05
17250.0 1.5602e-05
17270.0 1.553e-05
17290.0 1.546e-05
17310.0 1.5391e-05
17330.0 1.5319e-05
17350.0 1.5246e-05
17370.0 1.5177e-05
17390.0 1.5106e-05
17410.0 1.5034e-05
17430.0 1.4963e-05
17450.0 1.4893e-05
17470.0 1.4819e-05
17490.0 1.4746e-05
17510.0 1.4675e-05
17530.0 1.4603e-05
17550.0 1.4529e-05
17570.0 1.4457e-05
17590.0 1.4386e-05
17610.0 1.4312e-05
17630.0 1.4238e-05
17650.0 1.4167e-05
17670.0 1.4093e-05
17690.0 1.4017e-05
17710.0 1.3945e-05
17730.0 1.3872e-05
17750.0 1.3798e-05
17770.0 1.3723e-05
17790.0 1.3652e-05
17810.0 1.3577e-05
17830.0 1.3501e-05
17850.0 1.3428e-05
17870.0 1.3355e-05
17890.0 1.3278e-05
17910.0 1.3203e-05
17930.0 1.3131e-05
17950.0 1.3056e-05
17970.0 1.298e-05
17990.0 1.2907e-05
18010.0 1.2833e-05
18030.0 1.2756e-05
18050.0 1.2681e-05
18070.0 1.2607e-05
18090.0 1.2531e-05
18110.0 1.2455e-05
18130.0 1.2381e-05
18150.0 1.2307e-05
18170.0 1.223e-05
18190.0 1.2155e-05
18210.0 1.2082e-05
18230.0 1.2005e-05
18250.0 1.1928e-05
18270.0 1.1854e-05
18290.0 1.178e-05
18310.0 1.1703e-05
18330.0 1.1628e-05
18350.0 1.1555e-05
18370.0 1.1478e-05
18390.0 1.1402e-05
18410.0 1.1328e-05
18430.0 1.1253e-05
18450.0 1.1175e-05
18470.0 1.11e-05
18490.0 1.1027e-05
18510.0 1.0951e-05
18530.0 1.0875e-05
18550.0 1.0802e-05
18570.0 1.0727e-05
18590.0 1.065e-05
18610.0 1.0575e-05
18630.0 1.0501e-05
18650.0 1.0425e-05
18670.0 1.0349e-05
18690.0 1.0276e-05
18710.0 1.0202e-05
18730.0 1.0126e-05
18750.0 1.0052e-05
18770.0 9.979e-06
18790.0 9.902e-06
18810.0 9.8269e-06
18830.0 9.7541e-06
18850.0 9.6797e-06
18870.0 9.604e-06
18890.0 9.531e-06
18910.0 9.4583e-06
18930.0 9.3829e-06
18950.0 9.3087e-06
18970.0 9.2364e-06
18990.0 9.1624e-06
19010.0 9.086e-06
19030.0 9.014e-06
19050.0 8.9416e-06
19070.0 8.8671e-06
19090.0 8.7938e-06
19110.0 8.7229e-06
19130.0 8.6488e-06
19150.0 8.5745e-06
19170.0 8.5027e-06
19190.0 8.4307e-06
19210.0 8.3563e-06
19230.0 8.2833e-06
19250.0 8.213e-06
19270.0 8.1403e-06
19290.0 8.0673e-06
19310.0 7.9967e-06
19330.0 7.9256e-06
19350.0 7.8513e-06
19370.0 7.7798e-06
19390.0 7.7096e-06
19410.0 7.6375e-06
19430.0 7.5649e-06
19450.0 7.4955e-06
19470.0 7.4251e-06
19490.0 7.3528e-06
19510.0 7.2823e-06
19530.0 7.2132e-06
19550.0 7.1413e-06
19570.0 7.0692e-06
19590.0 7.0006e-06
19610.0 6.9308e-06
19630.0 6.8595e-06
19650.0 6.7903e-06
19670.0 6.7223e-06
19690.0 6.6513e-06
19710.0 6.5811e-06
19730.0 6.513e-06
19750.0 6.444e-06
19770.0 6.3726e-06
19790.0 6.3044e-06
19810.0 6.237e-06
19830.0 6.1673e-06
19850.0 6.0978e-06
19870.0 6.0303e-06
19890.0 5.9596e-06
19910.0 5.885e-06
19930.0 5.8097e-06
19950.0 5.7297e-06
19970.0 5.6398e-06
19990.0 5.5412e-06
20010.0 5.4382e-06
20030.0 5.3231e-06
20050.0 5.1984e-06
20070.0 5.0727e-06
20090.0 4.9464e-06
20110.0 4.8138e-06
20130.0 4.6891e-06
20150.0 4.5741e-06
20170.0 4.4636e-06
20190.0 4.3599e-06
20210.0 4.2694e-06
20230.0 4.1877e-06
20250.0 4.1125e-06
20270.0 4.0487e-06
20290.0 3.9958e-06
20310.0 3.9507e-06
20330.0 3.9143e-06
20350.0 3.889e-06
20370.0 3.8719e-06
20390.0 3.8629e-06
20410.0 3.8626e-06
20430.0 3.8696e-06
20450.0 3.8851e-06
20470.0 3.9084e-06
20490.0 3.9377e-06
20510.0 3.9739e-06
20530.0 4.0181e-06
20550.0 4.0671e-06
20570.0 4.1192e-06
20590.0 4.1779e-06
20610.0 4.2407e-06
20630.0 4.3038e-06
20650.0 4.3697e-06
20670.0 4.4403e-06
20690.0 4.508e-06
20710.0 4.5742e-06
20730.0 4.6416e-06
20750.0 4.708e-06
20770.0 4.7697e-06
20790.0 4.8313e-06
20810.0 4.8934e-06
20830.0 4.9527e-06
20850.0 5.0105e-06
20870.0 5.0714e-06
20890.0 5.1332e-06
20910.0 5.193e-06
20930.0 5.2559e-06
20950.0 5.3223e-06
20970.0 5.3882e-06
20990.0 5.4543e-06
21010.0 5.5247e-06
21030.0 5.5939e-06
21050.0 5.6597e-06
21070.0 5.7244e-06
21090.0 5.7876e-06
21110.0 5.8429e-06
21130.0 5.8919e-06
21150.0 5.9361e-06
21170.0 5.9719e-06
21190.0 5.9984e-06
21210.0 6.0175e-06
21230.0 6.0273e-06
21250.0 6.0274e-06
21270.0 6.0185e-06
21290.0 6.0001e-06
21310.0 5.9726e-06
21330.0 5.938e-06
21350.0 5.8944e-06
21370.0 5.8422e-06
21390.0 5.7848e-06
21410.0 5.7218e-06
21430.0 5.6493e-06
21450.0 5.5744e-06
21470.0 5.4984e-06
21490.0 5.4177e-06
21510.0 5.3346e-06
21530.0 5.2547e-06
21550.0 5.1753e-06
21570.0 5.0951e-06
21590.0 5.0203e-06
21610.0 4.9517e-06
21630.0 4.8867e-06
21650.0 4.8271e-06
21670.0 4.779e-06
21690.0 4.738e-06
21710.0 4.7051e-06
21730.0 4.6825e-06
21750.0 4.6697e-06
21770.0 4.6664e-06
21790.0 4.6735e-06
21810.0 4.6901e-06
21830.0 4.7161e-06
21850.0 4.7527e-06
21870.0 4.7972e-06
21890.0 4.8479e-06
21910.0 4.9083e-06
21930.0 4.9758e-06
21950.0 5.0468e-06
21970.0 5.1241e-06
21990.0 5.21e-06
22010.0 5.2957e-06
22030.0 5.3829e-06
22050.0 5.475e-06
22070.0 5.5682e-06
22090.0 5.6572e-06
22110.0 5.7476e-06
22130.0 5.8383e-06
22150.0 5.9233e-06
22170.0 6.0033e-06
22190.0 6.0817e-06
22210.0 6.1533e-06
22230.0 6.2144e-06
22250.0 6.2691e-06
22270.0 6.3155e-06
22290.0 6.3506e-06
22310.0 6.3751e-06
22330.0 6.3892e-06
22350.0 6.3907e-06
22370.0 6.3802e-06
22390.0 6.3571e-06
22410.0 6.3197e-06
22430.0 6.2716e-06
22450.0 6.212e-06
22470.0 6.1382e-06
22490.0 6.0537e-06
22510.0 5.9621e-06
22530.0 5.8568e-06
22550.0 5.74e-06
22570.0 5.6205e-06
22590.0 5.4944e-06
22610.0 5.3582e-06
22630.0 5.2193e-06
