#lamb flux
1010.0 1.3592e-07
1030.0 1.5033e-07
1050.0 1.669e-07
1070.0 1.8555e-07
1090.0 2.0675e-07
1110.0 2.2848e-07
1130.0 2.5035e-07
1150.0 2.7327e-07
1170.0 2.969e-07
1190.0 3.1932e-07
1210.0 3.4203e-07
1230.0 3.655e-07
1250.0 3.885e-07
1270.0 4.1083e-07
1290.0 4.3443e-07
1310.0 4.5802e-07
1330.0 4.8063e-07
1350.0 5.035e-07
1370.0 5.2711e-07
1390.0 5.5014e-07
1410.0 5.7248e-07
1430.0 5.9583e-07
1450.0 6.1918e-07
1470.0 6.4175e-07
1490.0 6.6457e-07
1510.0 6.8867e-07
1530.0 7.1151e-07
1550.0 7.3405e-07
1570.0 7.5737e-07
1590.0 7.8071e-07
1610.0 8.0303e-07
1630.0 8.2604e-07
1650.0 8.4966e-07
1670.0 8.7253e-07
1690.0 8.9512e-07
1710.0 9.186e-07
1730.0 9.4222e-07
1750.0 9.6446e-07
1770.0 9.8737e-07
1790.0 1.0108e-06
1810.0 1.0335e-06
1830.0 1.0558e-06
1850.0 1.0795e-06
1870.0 1.1026e-06
1890.0 1.1251e-06
1910.0 1.148e-06
1930.0 1.1715e-06
1950.0 1.1939e-06
1970.0 1.2162e-06
1990.0 1.2394e-06
2010.0 1.2622e-06
2030.0 1.2842e-06
2050.0 1.307e-06
2070.0 1.3304e-06
2090.0 1.3526e-06
2110.0 1.3747e-06
2130.0 1.3975e-06
2150.0 1.42e-06
2170.0 1.4415e-06
2190.0 1.4638e-06
2210.0 1.4864e-06
2230.0 1.508e-06
2250.0 1.5296e-06
2270.0 1.5522e-06
2290.0 1.5742e-06
2310.0 1.5952e-06
2330.0 1.6172e-06
2350.0 1.6397e-06
2370.0 1.6621e-06
2390.0 1.6864e-06
2410.0 1.7152e-06
2430.0 1.7483e-06
2450.0 1.7878e-06
2470.0 1.8385e-06
2490.0 1.9024e-06
2510.0 1.9751e-06
2530.0 2.0625e-06
2550.0 2.1719e-06
2570.0 2.308e-06
2590.0 2.4851e-06
2610.0 2.7502e-06
2630.0 3.1287e-06
2650.0 3.6237e-06
2670.0 4.2636e-06
2690.0 5.0499e-06
2710.0 5.8893e-06
2730.0 6.7188e-06
2750.0 7.5357e-06
2770.0 8.2463e-06
2790.0 8.8106e-06
2810.0 9.2584e-06
2830.0 9.6083e-06
2850.0 9.8471e-06
2870.0 1.0022e-05
2890.0 1.0161e-05
2910.0 1.0272e-05
2930.0 1.0362e-05
2950.0 1.0449e-05
2970.0 1.0533e-05
2990.0 1.0613e-05
3010.0 0.00029997
3030.0 0.00030221
3050.0 0.00030438
3070.0 0.00030624
3090.0 0.00030783
3110.0 0.00030882
3130.0 0.00030878
3150.0 0.00030741
3170.0 0.00030412
3190.0 0.00029895
3210.0 0.00029239
3230.0 0.00028489
3250.0 0.00027748
3270.0 0.00027206
3290.0 0.00026906
3310.0 0.00026954
3330.0 0.00027345
3350.0 0.00028024
3370.0 0.00028994
3390.0 0.00030216
3410.0 0.00031547
3430.0 0.0003304
3450.0 0.00034759
3470.0 0.00036637
3490.0 0.00038627
3510.0 0.00040876
3530.0 0.00043285
3550.0 0.00045723
3570.0 0.00048267
3590.0 0.00051033
3610.0 0.00053884
3630.0 0.00056725
3650.0 0.00059674
3670.0 0.00062365
3690.0 0.00064377
3710.0 0.00065531
3730.0 0.00065569
3750.0 0.00064656
3770.0 0.00064298
3790.0 0.00063915
3810.0 0.00062345
3830.0 0.00064275
3850.0 0.00071866
3870.0 0.00076034
3890.0 0.00075687
3910.0 0.0007601
3930.0 0.00078011
3950.0 0.00079242
3970.0 0.00072197
3990.0 0.00062122
4010.0 0.0018619
4030.0 0.002256
4050.0 0.0025863
4070.0 0.002244
4090.0 0.0020324
4110.0 0.0017934
4130.0 0.0016507
4150.0 0.0017558
4170.0 0.0017295
4190.0 0.0018436
4210.0 0.0018267
4230.0 0.0019322
4250.0 0.0022858
4270.0 0.0023127
4290.0 0.0021311
4310.0 0.0022144
4330.0 0.0023554
4350.0 0.002641
4370.0 0.0030055
4390.0 0.0028204
4410.0 0.0020838
4430.0 0.001764
4450.0 0.0016209
4470.0 0.0012441
4490.0 0.0013426
4510.0 0.002028
4530.0 0.0023389
4550.0 0.0023592
4570.0 0.0026547
4590.0 0.0030239
4610.0 0.0040785
4630.0 0.0052971
4650.0 0.0057447
4670.0 0.0053201
4690.0 0.0050763
4710.0 0.0053661
4730.0 0.005064
4750.0 0.003786
4770.0 0.0027772
4790.0 0.0025933
4810.0 0.0024719
4830.0 0.002263
4850.0 0.0024832
4870.0 0.0032806
4890.0 0.0038687
4910.0 0.0033943
4930.0 0.0030035
4950.0 0.0032998
4970.0 0.0042318
4990.0 0.0057351
5010.0 0.0065974
5030.0 0.0058174
5050.0 0.0039359
5070.0 0.0025939
5090.0 0.0020916
5110.0 0.002151
5130.0 0.0024826
5150.0 0.0026897
5170.0 0.0026493
5190.0 0.0024756
5210.0 0.0025876
5230.0 0.0027201
5250.0 0.0029315
5270.0 0.0031629
5290.0 0.0035051
5310.0 0.0040798
5330.0 0.0045148
5350.0 0.0044859
5370.0 0.004712
5390.0 0.0054071
5410.0 0.0054022
5430.0 0.0047774
5450.0 0.0043893
5470.0 0.0046606
5490.0 0.0056939
5510.0 0.0071193
5530.0 0.0081655
5550.0 0.007892
5570.0 0.0071743
5590.0 0.0062381
5610.0 0.0057529
5630.0 0.0055785
5650.0 0.0053129
5670.0 0.0050344
5690.0 0.0045007
5710.0 0.0043882
5730.0 0.0040422
5750.0 0.0028499
5770.0 0.0022234
5790.0 0.0025196
5810.0 0.002845
5830.0 0.0034912
5850.0 0.0041559
5870.0 0.004611
5890.0 0.0046891
5910.0 0.0046003
5930.0 0.0043789
5950.0 0.004462
5970.0 0.0050861
5990.0 0.0047823
6010.0 0.0040089
6030.0 0.003387
6050.0 0.0029496
6070.0 0.0029335
6090.0 0.0031809
6110.0 0.0035568
6130.0 0.0036112
6150.0 0.0031071
6170.0 0.0027333
6190.0 0.003076
6210.0 0.0040664
6230.0 0.0053362
6250.0 0.0057799
6270.0 0.0050508
6290.0 0.0042495
6310.0 0.0033175
6330.0 0.0025418
6350.0 0.0022673
6370.0 0.0023843
6390.0 0.0027564
6410.0 0.0033987
6430.0 0.0039687
6450.0 0.0045413
6470.0 0.0051998
6490.0 0.0062811
6510.0 0.0070231
6530.0 0.0068901
6550.0 0.0062305
6570.0 0.0052891
6590.0 0.0047693
6610.0 0.0041124
6630.0 0.0037257
6650.0 0.0035218
6670.0 0.0034214
6690.0 0.0030914
6710.0 0.0028101
6730.0 0.0020241
6750.0 0.0020067
6770.0 0.0021811
6790.0 0.002507
6810.0 0.002294
6830.0 0.0023622
6850.0 0.0022094
6870.0 0.0020183
6890.0 0.0019378
6910.0 0.002065
6930.0 0.0019342
6950.0 0.00199
6970.0 0.0020931
6990.0 0.0023758
7010.0 0.002396
7030.0 0.0024341
7050.0 0.0023213
7070.0 0.0022118
7090.0 0.0022183
7110.0 0.0022824
7130.0 0.0024562
7150.0 0.0026087
7170.0 0.0028786
7190.0 0.0031643
7210.0 0.0031094
7230.0 0.0031965
7250.0 0.0034351
7270.0 0.0037435
7290.0 0.0044431
7310.0 0.0048212
7330.0 0.0046601
7350.0 0.0042148
7370.0 0.0036672
7390.0 0.0035577
7410.0 0.0037807
7430.0 0.0042018
7450.0 0.0045765
7470.0 0.0045345
7490.0 0.0041346
7510.0 0.0046835
7530.0 0.0046322
7550.0 0.0041635
7570.0 0.0032525
7590.0 0.002236
7610.0 0.0019192
7630.0 0.0021805
7650.0 0.0025782
7670.0 0.0032088
7690.0 0.003531
7710.0 0.0036798
7730.0 0.003867
7750.0 0.0043412
7770.0 0.0044095
7790.0 0.0040503
7810.0 0.0036957
7830.0 0.0038111
7850.0 0.0037048
7870.0 0.0033967
7890.0 0.0028539
7910.0 0.0023198
7930.0 0.0022151
7950.0 0.002018
7970.0 0.0018681
7990.0 0.0018574
8010.0 0.00013757
8030.0 0.00013578
8050.0 0.00013395
8070.0 0.0001357
8090.0 0.00014581
8110.0 0.00014333
8130.0 0.00011823
8150.0 0.00011514
8170.0 9.9176e-05
8190.0 9.3991e-05
8210.0 0.00012206
8230.0 0.0001359
8250.0 0.00012248
8270.0 0.0001066
8290.0 0.00010392
8310.0 7.9982e-05
8330.0 5.3908e-05
8350.0 3.8258e-05
8370.0 2.4104e-05
8390.0 4.4062e-05
8410.0 5.1345e-05
8430.0 6.3291e-05
8450.0 7.4321e-05
8470.0 9.2377e-05
8490.0 9.1726e-05
8510.0 9.0227e-05
8530.0 9.4165e-05
8550.0 0.00012705
8570.0 0.00015041
8590.0 0.00016229
8610.0 0.00020501
8630.0 0.00024696
8650.0 0.00025835
8670.0 0.00027455
8690.0 0.00027609
8710.0 0.00025004
8730.0 0.00023258
8750.0 0.00020529
8770.0 0.00019479
8790.0 0.00019137
8810.0 0.00018338
8830.0 0.00014664
8850.0 0.00010735
8870.0 8.2198e-05
8890.0 8.0363e-05
8910.0 9.2098e-05
8930.0 0.00010476
8950.0 0.00010676
8970.0 0.00010727
8990.0 9.567e-05
9010.0 0.0010026
9030.0 0.00090844
9050.0 0.00091283
9070.0 0.00092003
9090.0 0.00092636
9110.0 0.00093416
9130.0 0.00094018
9150.0 0.00094486
9170.0 0.00094985
9190.0 0.00095518
9210.0 0.00096079
9230.0 0.00096671
9250.0 0.00097273
9270.0 0.00097897
9290.0 0.0009854
9310.0 0.00099187
9330.0 0.00099847
9350.0 0.0010053
9370.0 0.0010122
9390.0 0.0010192
9410.0 0.0010264
9430.0 0.0010338
9450.0 0.0010412
9470.0 0.0010488
9490.0 0.0010565
9510.0 0.0010644
9530.0 0.0010722
9550.0 0.0010804
9570.0 0.0010887
9590.0 0.001097
9610.0 0.0011055
9630.0 0.0011142
9650.0 0.001123
9670.0 0.0011317
9690.0 0.0011408
9710.0 0.0011499
9730.0 0.0011591
9750.0 0.0011684
9770.0 0.001178
9790.0 0.0011876
9810.0 0.0011972
9830.0 0.001207
9850.0 0.001217
9870.0 0.0012269
9890.0 0.001237
9910.0 0.0012473
9930.0 0.0012575
9950.0 0.0012678
9970.0 0.0012784
9990.0 0.001289
10010.0 0.0011185
10030.0 0.0011277
10050.0 0.0011371
10070.0 0.0011467
10090.0 0.0011559
10110.0 0.0011652
10130.0 0.0011746
10150.0 0.001184
10170.0 0.0011935
10190.0 0.0012031
10210.0 0.0012126
10230.0 0.0012222
10250.0 0.0012318
10270.0 0.0012415
10290.0 0.001251
10310.0 0.0012606
10330.0 0.0012704
10350.0 0.00128
10370.0 0.0012895
10390.0 0.0012992
10410.0 0.0013088
10430.0 0.0013182
10450.0 0.0013277
10470.0 0.0013373
10490.0 0.0013466
10510.0 0.001356
10530.0 0.0013654
10550.0 0.0013747
10570.0 0.0013839
10590.0 0.001393
10610.0 0.0014022
10630.0 0.0014111
10650.0 0.00142
10670.0 0.0014289
10690.0 0.0014377
10710.0 0.0014463
10730.0 0.0014549
10750.0 0.0014635
10770.0 0.0014718
10790.0 0.00148
10810.0 0.0014882
10830.0 0.0014961
10850.0 0.0015037
10870.0 0.001511
10890.0 0.0015174
10910.0 0.0015224
10930.0 0.0015252
10950.0 0.0015245
10970.0 0.0015193
10990.0 0.0015092
11010.0 0.0014923
11030.0 0.0014685
11050.0 0.0014396
11070.0 0.001405
11090.0 0.0013634
11110.0 0.0013204
11130.0 0.0012756
11150.0 0.0012273
11170.0 0.0011775
11190.0 0.0011292
11210.0 0.0010793
11230.0 0.0010282
11250.0 0.00097936
11270.0 0.00093244
11290.0 0.00088543
11310.0 0.0008409
11330.0 0.00080168
11350.0 0.00076464
11370.0 0.0007304
11390.0 0.00070079
11410.0 0.00067488
11430.0 0.0006508
11450.0 0.00063006
11470.0 0.00061212
11490.0 0.00059543
11510.0 0.00057935
11530.0 0.00056442
11550.0 0.0005496
11570.0 0.00053378
11590.0 0.0005174
11610.0 0.00050073
11630.0 0.00048259
11650.0 0.00046316
11670.0 0.00044401
11690.0 0.0004246
11710.0 0.00040457
11730.0 0.00038516
11750.0 0.0003672
11770.0 0.00034958
11790.0 0.00033307
11810.0 0.00031854
11830.0 0.00030554
11850.0 0.00029357
11870.0 0.00028356
11890.0 0.00027523
11910.0 0.00026792
11930.0 0.00026163
11950.0 0.0002564
11970.0 0.00025172
11990.0 0.0002473
12010.0 0.00024321
12030.0 0.00023926
12050.0 0.00023519
12070.0 0.00023095
12090.0 0.00022686
12110.0 0.00022271
12130.0 0.00021856
12150.0 0.00021473
12170.0 0.00021138
12190.0 0.00020849
12210.0 0.00020647
12230.0 0.00020549
12250.0 0.00020565
12270.0 0.0002072
12290.0 0.00021013
12310.0 0.00021434
12330.0 0.00022022
12350.0 0.00022756
12370.0 0.00023592
12390.0 0.00024556
12410.0 0.00025685
12430.0 0.00026833
12450.0 0.00028022
12470.0 0.00029286
12490.0 0.00030555
12510.0 0.00031746
12530.0 0.00032931
12550.0 0.00034074
12570.0 0.00035083
12590.0 0.00035969
12610.0 0.00036758
12630.0 0.00037387
12650.0 0.00037821
12670.0 0.00038107
12690.0 0.00038221
12710.0 0.00038158
12730.0 0.00037937
12750.0 0.00037542
12770.0 0.00037001
12790.0 0.00036344
12810.0 0.0003556
12830.0 0.00034652
12850.0 0.00033704
12870.0 0.000327
12890.0 0.00031615
12910.0 0.00030511
12930.0 0.00029424
12950.0 0.00028289
12970.0 0.00027133
12990.0 0.0002604
13010.0 0.00024961
13030.0 0.0002387
13050.0 0.00022821
13070.0 0.00021839
13090.0 0.00020854
13110.0 0.00019901
13130.0 0.00019022
13150.0 0.00018189
13170.0 0.00017374
13190.0 0.00016649
13210.0 0.00016011
13230.0 0.00015427
13250.0 0.00014925
13270.0 0.00014528
13290.0 0.0001422
13310.0 0.00014008
13330.0 0.00013911
13350.0 0.00013922
13370.0 0.00014047
13390.0 0.00014292
13410.0 0.00014624
13430.0 0.00015055
13450.0 0.00015587
13470.0 0.00016178
13490.0 0.00016804
13510.0 0.0001751
13530.0 0.00018225
13550.0 0.0001891
13570.0 0.00019586
13590.0 0.00020244
13610.0 0.00020829
13630.0 0.0002134
13650.0 0.00021807
13670.0 0.00022194
13690.0 0.00022494
13710.0 0.00022726
13730.0 0.00022891
13750.0 0.00022974
13770.0 0.00022993
13790.0 0.00022951
13810.0 0.0002285
13830.0 0.000227
13850.0 0.00022497
13870.0 0.00022241
13890.0 0.00021949
13910.0 0.00021619
13930.0 0.00021238
13950.0 0.00020821
13970.0 0.00020395
13990.0 0.00019931
14010.0 0.00019438
14030.0 0.00018946
14050.0 0.0001845
14070.0 0.00017926
14090.0 0.00017424
14110.0 0.00016953
14130.0 0.00016496
14150.0 0.00016066
14170.0 0.00015699
14190.0 0.00015381
14210.0 0.00015112
14230.0 0.00014912
14250.0 0.00014784
14270.0 0.00014721
14290.0 0.00014734
14310.0 0.00014817
14330.0 0.00014964
14350.0 0.00015181
14370.0 0.00015451
14390.0 0.00015759
14410.0 0.0001612
14430.0 0.00016517
14450.0 0.00016923
14470.0 0.00017344
14490.0 0.00017791
14510.0 0.00018219
14530.0 0.00018626
14550.0 0.00019032
14570.0 0.00019422
14590.0 0.00019777
14610.0 0.0002012
14630.0 0.0002046
14650.0 0.00020777
14670.0 0.00021082
14690.0 0.00021401
14710.0 0.00021736
14730.0 0.00022071
14750.0 0.00022442
14770.0 0.00022864
14790.0 0.0002332
14810.0 0.00023815
14830.0 0.00024401
14850.0 0.00025038
14870.0 0.00025702
14890.0 0.00026419
14910.0 0.0002718
14930.0 0.00027913
14950.0 0.00028597
14970.0 0.00029244
14990.0 0.00029788
15010.0 0.00030203
15030.0 0.00030511
15050.0 0.00030714
15070.0 0.00030813
15090.0 0.00030848
15110.0 0.00030838
15130.0 0.00030799
15150.0 0.00030747
15170.0 0.00030686
15190.0 0.0003062
15210.0 0.00030555
15230.0 0.0003049
15250.0 0.00030422
15270.0 0.00030356
15290.0 0.00030293
15310.0 0.00030228
15330.0 0.00030162
15350.0 0.000301
15370.0 0.00030037
15390.0 0.00029972
15410.0 0.00029908
15430.0 0.00029847
15450.0 0.00029784
15470.0 0.0002972
15490.0 0.0002966
15510.0 0.00029599
15530.0 0.00029537
15550.0 0.00029476
15570.0 0.00029417
15590.0 0.00029355
15610.0 0.00029293
15630.0 0.00029234
15650.0 0.00029174
15670.0 0.00029113
15690.0 0.00029054
15710.0 0.00028997
15730.0 0.00028936
15750.0 0.00028876
15770.0 0.00028819
15790.0 0.0002876
15810.0 0.00028699
15830.0 0.00028641
15850.0 0.00028584
15870.0 0.00028526
15890.0 0.00028467
15910.0 0.0002841
15930.0 0.00028353
15950.0 0.00028293
15970.0 0.00028236
15990.0 0.00028179
16010.0 0.00028121
16030.0 0.00028061
16050.0 0.00028006
16070.0 0.00027949
16090.0 0.0002789
16110.0 0.00027833
16130.0 0.00027778
16150.0 0.00027718
16170.0 0.0002766
16190.0 0.00027604
16210.0 0.00027547
16230.0 0.00027488
16250.0 0.00027432
16270.0 0.00027376
16290.0 0.00027317
16310.0 0.0002726
16330.0 0.00027204
16350.0 0.00027146
16370.0 0.00027086
16390.0 0.0002703
16410.0 0.00026973
16430.0 0.00026914
16450.0 0.00026856
16470.0 0.00026801
16490.0 0.00026742
16510.0 0.00026683
16530.0 0.00026626
16550.0 0.00026568
16570.0 0.00026509
16590.0 0.00026449
16610.0 0.00026393
16630.0 0.00026334
16650.0 0.00026275
16670.0 0.00026217
16690.0 0.0002616
16710.0 0.00026098
16730.0 0.00026039
16750.0 0.00025982
16770.0 0.00025922
16790.0 0.00025861
16810.0 0.00025803
16830.0 0.00025744
16850.0 0.00025683
16870.0 0.00025623
16890.0 0.00025565
16910.0 0.00025503
16930.0 0.00025441
16950.0 0.00025382
16970.0 0.00025322
16990.0 0.0002526
17010.0 0.00025199
17030.0 0.0002514
17050.0 0.00025078
17070.0 0.00025015
17090.0 0.00024955
17110.0 0.00024894
17130.0 0.0002483
17150.0 0.00024768
17170.0 0.00024707
17190.0 0.00024644
17210.0 0.00024581
17230.0 0.0002452
17250.0 0.00024458
17270.0 0.00024393
17290.0 0.0002433
17310.0 0.00024268
17330.0 0.00024203
17350.0 0.00024138
17370.0 0.00024077
17390.0 0.00024013
17410.0 0.00023948
17430.0 0.00023884
17450.0 0.00023822
17470.0 0.00023755
17490.0 0.00023689
17510.0 0.00023626
17530.0 0.00023561
17550.0 0.00023494
17570.0 0.00023429
17590.0 0.00023366
17610.0 0.00023298
17630.0 0.00023232
17650.0 0.00023168
17670.0 0.00023102
17690.0 0.00023032
17710.0 0.00022967
17730.0 0.00022902
17750.0 0.00022834
17770.0 0.00022767
17790.0 0.00022702
17810.0 0.00022634
17830.0 0.00022565
17850.0 0.00022499
17870.0 0.00022432
17890.0 0.00022363
17910.0 0.00022294
17930.0 0.00022229
17950.0 0.0002216
17970.0 0.00022091
17990.0 0.00022024
18010.0 0.00021957
18030.0 0.00021886
18050.0 0.00021817
18070.0 0.0002175
18090.0 0.0002168
18110.0 0.00021609
18130.0 0.00021542
18150.0 0.00021474
18170.0 0.00021403
18190.0 0.00021334
18210.0 0.00021266
18230.0 0.00021195
18250.0 0.00021123
18270.0 0.00021055
18290.0 0.00020986
18310.0 0.00020914
18330.0 0.00020845
18350.0 0.00020776
18370.0 0.00020705
18390.0 0.00020633
18410.0 0.00020564
18430.0 0.00020494
18450.0 0.00020421
18470.0 0.00020351
18490.0 0.00020282
18510.0 0.0002021
18530.0 0.00020139
18550.0 0.0002007
18570.0 0.00019999
18590.0 0.00019926
18610.0 0.00019855
18630.0 0.00019785
18650.0 0.00019713
18670.0 0.0001964
18690.0 0.00019571
18710.0 0.000195
18730.0 0.00019427
18750.0 0.00019357
18770.0 0.00019287
18790.0 0.00019213
18810.0 0.00019141
18830.0 0.00019071
18850.0 0.00018999
18870.0 0.00018926
18890.0 0.00018855
18910.0 0.00018785
18930.0 0.00018712
18950.0 0.0001864
18970.0 0.0001857
18990.0 0.00018498
19010.0 0.00018423
19030.0 0.00018353
19050.0 0.00018282
19070.0 0.00018209
19090.0 0.00018137
19110.0 0.00018068
19130.0 0.00017995
19150.0 0.00017921
19170.0 0.00017851
19190.0 0.00017779
19210.0 0.00017706
19230.0 0.00017633
19250.0 0.00017564
19270.0 0.00017491
19290.0 0.00017419
19310.0 0.00017348
19330.0 0.00017277
19350.0 0.00017203
19370.0 0.00017131
19390.0 0.00017061
19410.0 0.00016989
19430.0 0.00016915
19450.0 0.00016846
19470.0 0.00016775
19490.0 0.00016701
19510.0 0.0001663
19530.0 0.0001656
19550.0 0.00016487
19570.0 0.00016414
19590.0 0.00016344
19610.0 0.00016273
19630.0 0.000162
19650.0 0.00016129
19670.0 0.0001606
19690.0 0.00015987
19710.0 0.00015915
19730.0 0.00015845
19750.0 0.00015774
19770.0 0.000157
19790.0 0.00015629
19810.0 0.0001556
19830.0 0.00015487
19850.0 0.00015415
19870.0 0.00015343
19890.0 0.00015267
19910.0 0.00015182
19930.0 0.00015092
19950.0 0.00014989
19970.0 0.00014862
19990.0 0.0001471
20010.0 0.00013087
20030.0 0.00012898
20050.0 0.00012676
20070.0 0.00012436
20090.0 0.00012177
20110.0 0.00011885
20130.0 0.00011589
20150.0 0.00011296
20170.0 0.00010992
20190.0 0.00010684
20210.0 0.00010392
20230.0 0.00010108
20250.0 9.8237e-05
20270.0 9.5595e-05
20290.0 9.3183e-05
20310.0 9.0891e-05
20330.0 8.8749e-05
20350.0 8.697e-05
20370.0 8.5392e-05
20390.0 8.4008e-05
20410.0 8.289e-05
20430.0 8.2028e-05
20450.0 8.1345e-05
20470.0 8.0888e-05
20490.0 8.0642e-05
20510.0 8.0571e-05
20530.0 8.0671e-05
20550.0 8.092e-05
20570.0 8.1282e-05
20590.0 8.1773e-05
20610.0 8.2367e-05
20630.0 8.3021e-05
20650.0 8.3754e-05
20670.0 8.459e-05
20690.0 8.5443e-05
20710.0 8.6325e-05
20730.0 8.7276e-05
20750.0 8.827e-05
20770.0 8.9246e-05
20790.0 9.0272e-05
20810.0 9.1357e-05
20830.0 9.2437e-05
20850.0 9.3521e-05
20870.0 9.4682e-05
20890.0 9.5866e-05
20910.0 9.7009e-05
20930.0 9.8193e-05
20950.0 9.9421e-05
20970.0 0.00010062
20990.0 0.0001018
21010.0 0.00010304
21030.0 0.00010426
21050.0 0.00010541
21070.0 0.00010657
21090.0 0.00010773
21110.0 0.00010879
21130.0 0.00010978
21150.0 0.00011075
21170.0 0.00011162
21190.0 0.00011237
21210.0 0.00011305
21230.0 0.00011361
21250.0 0.00011401
21270.0 0.00011426
21290.0 0.00011436
21310.0 0.00011426
21330.0 0.00011399
21350.0 0.00011352
21370.0 0.00011283
21390.0 0.00011194
21410.0 0.00011086
21430.0 0.00010949
21450.0 0.00010795
21470.0 0.00010628
21490.0 0.00010438
21510.0 0.00010231
21530.0 0.00010019
21550.0 9.7983e-05
21570.0 9.5624e-05
21590.0 9.3304e-05
21610.0 9.1062e-05
21630.0 8.8818e-05
21650.0 8.6626e-05
21670.0 8.4725e-05
21690.0 8.2973e-05
21710.0 8.1394e-05
21730.0 8.0101e-05
21750.0 7.9104e-05
21770.0 7.8344e-05
21790.0 7.7907e-05
21810.0 7.7786e-05
21830.0 7.7959e-05
21850.0 7.8446e-05
21870.0 7.9206e-05
21890.0 8.0188e-05
21910.0 8.1447e-05
21930.0 8.2924e-05
21950.0 8.4524e-05
21970.0 8.6296e-05
21990.0 8.8285e-05
22010.0 9.0273e-05
22030.0 9.2292e-05
22050.0 9.4413e-05
22070.0 9.6545e-05
22090.0 9.8564e-05
22110.0 0.0001006
22130.0 0.00010263
22150.0 0.00010453
22170.0 0.00010632
22190.0 0.00010809
22210.0 0.00010974
22230.0 0.00011119
22250.0 0.00011256
22270.0 0.00011382
22290.0 0.0001149
22310.0 0.00011582
22330.0 0.00011663
22350.0 0.00011726
22370.0 0.00011771
22390.0 0.00011798
22410.0 0.00011807
22430.0 0.00011796
22450.0 0.00011765
22470.0 0.00011713
22490.0 0.00011639
22510.0 0.00011547
22530.0 0.0001143
22550.0 0.00011287
22570.0 0.00011128
22590.0 0.00010949
22610.0 0.00010743
22630.0 0.0001052
22650.0 0.0001029
22670.0 0.00010035
22690.0 9.7631e-05
22710.0 9.4887e-05
22730.0 9.206e-05
22750.0 8.8995e-05
22770.0 8.6e-05
22790.0 8.3075e-05
22810.0 8.0073e-05
22830.0 7.7077e-05
22850.0 7.4274e-05
22870.0 7.1525e-05
22890.0 6.879e-05
22910.0 6.6271e-05
22930.0 6.3963e-05
22950.0 6.1763e-05
