#lamb flux
1010.0 5.523e-06
1030.0 6.1454e-06
1050.0 6.9883e-06
1070.0 8.2488e-06
1090.0 9.9024e-06
1110.0 1.1677e-05
1130.0 1.3531e-05
1150.0 1.5517e-05
1170.0 1.7574e-05
1190.0 1.9498e-05
1210.0 2.1355e-05
1230.0 2.312e-05
1250.0 2.4755e-05
1270.0 2.6083e-05
1290.0 2.7198e-05
1310.0 2.7973e-05
1330.0 2.8338e-05
1350.0 2.8386e-05
1370.0 2.8162e-05
1390.0 2.7623e-05
1410.0 2.6819e-05
1430.0 2.5882e-05
1450.0 2.4807e-05
1470.0 2.3616e-05
1490.0 2.2398e-05
1510.0 2.1217e-05
1530.0 2.0023e-05
1550.0 1.8879e-05
1570.0 1.7828e-05
1590.0 1.6865e-05
1610.0 1.6023e-05
1630.0 1.5492e-05
1650.0 1.5109e-05
1670.0 1.4865e-05
1690.0 1.4775e-05
1710.0 1.4869e-05
1730.0 1.5139e-05
1750.0 1.5569e-05
1770.0 1.6203e-05
1790.0 1.7049e-05
1810.0 1.8097e-05
1830.0 1.9362e-05
1850.0 2.0888e-05
1870.0 2.2647e-05
1890.0 2.4636e-05
1910.0 2.6886e-05
1930.0 2.9399e-05
1950.0 3.2128e-05
1970.0 3.5076e-05
1990.0 3.826e-05
2010.0 4.1623e-05
2030.0 4.5115e-05
2050.0 4.8755e-05
2070.0 5.2509e-05
2090.0 5.6257e-05
2110.0 6.0007e-05
2130.0 6.3752e-05
2150.0 6.7404e-05
2170.0 7.0898e-05
2190.0 7.4291e-05
2210.0 7.7529e-05
2230.0 8.0536e-05
2250.0 8.3343e-05
2270.0 8.6011e-05
2290.0 8.8448e-05
2310.0 9.0652e-05
2330.0 9.2738e-05
2350.0 9.4707e-05
2370.0 9.6533e-05
2390.0 9.834e-05
2410.0 0.00010027
2430.0 0.00010231
2450.0 0.00010456
2470.0 0.00010725
2490.0 0.00011051
2510.0 0.00011419
2530.0 0.00011864
2550.0 0.00012422
2570.0 0.00013109
2590.0 0.00013961
2610.0 0.00015128
2630.0 0.00016626
2650.0 0.00018402
2670.0 0.00020509
2690.0 0.0002292
2710.0 0.00025387
2730.0 0.00027807
2750.0 0.00030265
2770.0 0.00032627
2790.0 0.00034873
2810.0 0.00037166
2830.0 0.00039657
2850.0 0.00042187
2870.0 0.00044864
2890.0 0.00047791
2910.0 0.00050874
2930.0 0.0005399
2950.0 0.00057321
2970.0 0.00060832
2990.0 0.00064373
3010.0 0.00068006
3030.0 0.00071854
3050.0 0.00075802
3070.0 0.00079651
3090.0 0.00083569
3110.0 0.00087395
3130.0 0.00090866
3150.0 0.00093896
3170.0 0.00096385
3190.0 0.00098187
3210.0 0.00099496
3230.0 0.0010041
3250.0 0.0010093
3270.0 0.0010131
3290.0 0.0010176
3310.0 0.0010246
3330.0 0.0010342
3350.0 0.0010456
3370.0 0.001058
3390.0 0.0010621
3410.0 0.0010688
3430.0 0.001101
3450.0 0.0011239
3470.0 0.0011283
3490.0 0.0011712
3510.0 0.0013434
3530.0 0.001654
3550.0 0.0018734
3570.0 0.0020486
3590.0 0.0023059
3610.0 0.002298
3630.0 0.0021178
3650.0 0.0022241
3670.0 0.0026244
3690.0 0.0029446
3710.0 0.0030521
3730.0 0.003077
3750.0 0.0032865
3770.0 0.0033045
3790.0 0.0031483
3810.0 0.0029679
3830.0 0.0028134
3850.0 0.0028322
3870.0 0.0029577
3890.0 0.003048
3910.0 0.003093
3930.0 0.0030947
3950.0 0.003312
3970.0 0.0035682
3990.0 0.0034692
4010.0 0.0030951
4030.0 0.0027886
4050.0 0.0027652
4070.0 0.0028903
4090.0 0.0028649
4110.0 0.0027571
4130.0 0.0027416
4150.0 0.0028696
4170.0 0.0031713
4190.0 0.0033318
4210.0 0.0031389
4230.0 0.0028877
4250.0 0.0027329
4270.0 0.002636
4290.0 0.0026533
4310.0 0.0027243
4330.0 0.0025922
4350.0 0.0022974
4370.0 0.0020493
4390.0 0.0018768
4410.0 0.001782
4430.0 0.0018329
4450.0 0.0020169
4470.0 0.0022152
4490.0 0.0023688
4510.0 0.0026211
4530.0 0.0030806
4550.0 0.0035627
4570.0 0.0038572
4590.0 0.0041104
4610.0 0.0043321
4630.0 0.004369
4650.0 0.0040546
4670.0 0.0035297
4690.0 0.0031195
4710.0 0.0029826
4730.0 0.0028497
4750.0 0.0025079
4770.0 0.0022431
4790.0 0.0023113
4810.0 0.0025054
4830.0 0.0024495
4850.0 0.0021768
4870.0 0.002227
4890.0 0.0022841
4910.0 0.0023168
4930.0 0.0022792
4950.0 0.0022364
4970.0 0.0021374
4990.0 0.0019742
5010.0 0.0018585
5030.0 0.0018263
5050.0 0.0018164
5070.0 0.0018134
5090.0 0.0018108
5110.0 0.0018085
5130.0 0.0018454
5150.0 0.0019366
5170.0 0.0021084
5190.0 0.0023347
5210.0 0.0025173
5230.0 0.0026267
5250.0 0.0026881
5270.0 0.0027755
5290.0 0.0028442
5310.0 0.0028298
5330.0 0.002732
5350.0 0.0026361
5370.0 0.0026399
5390.0 0.0027091
5410.0 0.0027598
5430.0 0.0027376
5450.0 0.0026984
5470.0 0.002639
5490.0 0.0025785
5510.0 0.0025564
5530.0 0.0025693
5550.0 0.0025964
5570.0 0.0026066
5590.0 0.0025375
5610.0 0.0024106
5630.0 0.0022922
5650.0 0.0021859
5670.0 0.0021118
5690.0 0.0020272
5710.0 0.0019781
5730.0 0.0019874
5750.0 0.0019671
5770.0 0.0019322
5790.0 0.0019504
5810.0 0.0020074
5830.0 0.0020511
5850.0 0.0020636
5870.0 0.0020126
5890.0 0.0019322
5910.0 0.0018608
5930.0 0.0017674
5950.0 0.0016885
5970.0 0.0016979
5990.0 0.0017393
6010.0 0.0017386
6030.0 0.001679
6050.0 0.0016681
6070.0 0.0017261
6090.0 0.0017852
6110.0 0.0017804
6130.0 0.0016916
6150.0 0.0015751
6170.0 0.0015107
6190.0 0.0014757
6210.0 0.0014448
6230.0 0.001416
6250.0 0.001415
6270.0 0.0014552
6290.0 0.0015135
6310.0 0.0015792
6330.0 0.0016484
6350.0 0.0016906
6370.0 0.0016956
6390.0 0.0016861
6410.0 0.0016996
6430.0 0.0017209
6450.0 0.0017201
6470.0 0.0017236
6490.0 0.0017337
6510.0 0.0017332
6530.0 0.0017121
6550.0 0.0016687
6570.0 0.0016155
6590.0 0.001569
6610.0 0.0015327
6630.0 0.0015027
6650.0 0.0014539
6670.0 0.0013999
6690.0 0.0013581
6710.0 0.0013342
6730.0 0.0013208
6750.0 0.001308
6770.0 0.0012907
6790.0 0.0012673
6810.0 0.0012446
6830.0 0.0012374
6850.0 0.001231
6870.0 0.0012205
6890.0 0.0012187
6910.0 0.0012022
6930.0 0.0011821
6950.0 0.0011793
6970.0 0.0011689
6990.0 0.0011446
7010.0 0.0011259
7030.0 0.0011059
7050.0 0.0010848
7070.0 0.001059
7090.0 0.0010364
7110.0 0.0010514
7130.0 0.0010813
7150.0 0.0011048
7170.0 0.0011191
7190.0 0.0011173
7210.0 0.001103
7230.0 0.001085
7250.0 0.0010738
7270.0 0.0010548
7290.0 0.0010392
7310.0 0.0010306
7330.0 0.0010413
7350.0 0.0010443
7370.0 0.0010409
7390.0 0.0010313
7410.0 0.0010153
7430.0 0.001005
7450.0 0.0009945
7470.0 0.00096436
7490.0 0.00093208
7510.0 0.000893
7530.0 0.00086156
7550.0 0.00084484
7570.0 0.00085619
7590.0 0.00085064
7610.0 0.00084122
7630.0 0.00083268
7650.0 0.00083683
7670.0 0.00085418
7690.0 0.00088891
7710.0 0.00091272
7730.0 0.00094672
7750.0 0.00096812
7770.0 0.00098552
7790.0 0.00098718
7810.0 0.00096823
7830.0 0.00097113
7850.0 0.00096206
7870.0 0.0009379
7890.0 0.00090623
7910.0 0.00087922
7930.0 0.00085891
7950.0 0.0008465
7970.0 0.00084684
7990.0 0.00085359
8010.0 0.00085117
8030.0 0.00084215
8050.0 0.00082663
8070.0 0.00081151
8090.0 0.00079487
8110.0 0.00079783
8130.0 0.00080482
8150.0 0.00080616
8170.0 0.00079938
8190.0 0.00078869
8210.0 0.00075771
8230.0 0.00070881
8250.0 0.00067871
8270.0 0.00066125
8290.0 0.00065281
8310.0 0.00065572
8330.0 0.00067049
8350.0 0.00065867
8370.0 0.00064431
8390.0 0.00065316
8410.0 0.00067366
8430.0 0.00070834
8450.0 0.00074014
8470.0 0.00074853
8490.0 0.00075539
8510.0 0.00075133
8530.0 0.00074684
8550.0 0.00075248
8570.0 0.00075333
8590.0 0.00075099
8610.0 0.00077154
8630.0 0.00077729
8650.0 0.00076036
8670.0 0.0007588
8690.0 0.00076159
8710.0 0.00075106
8730.0 0.00074458
8750.0 0.00072179
8770.0 0.00071214
8790.0 0.00070441
8810.0 0.00069737
8830.0 0.00066688
8850.0 0.00061889
8870.0 0.00058175
8890.0 0.00056129
8910.0 0.0005269
8930.0 0.00049053
8950.0 0.00047754
8970.0 0.000474
8990.0 0.00047449
9010.0 0.00047086
9030.0 0.0004675
9050.0 0.0004644
9070.0 0.00046138
9090.0 0.00045838
9110.0 0.00045539
9130.0 0.00045239
9150.0 0.0004494
9170.0 0.00044642
9190.0 0.00044343
9210.0 0.00044044
9230.0 0.00043748
9250.0 0.00043453
9270.0 0.00043158
9290.0 0.00042864
9310.0 0.00042571
9330.0 0.00042279
9350.0 0.00041988
9370.0 0.00041697
9390.0 0.00041408
9410.0 0.00041119
9430.0 0.00040831
9450.0 0.00040541
9470.0 0.00040259
9490.0 0.00039982
9510.0 0.00039699
9530.0 0.00039418
9550.0 0.00039138
9570.0 0.0003886
9590.0 0.00038584
9610.0 0.00038309
9630.0 0.00038036
9650.0 0.00037764
9670.0 0.00037494
9690.0 0.00037225
9710.0 0.00036958
9730.0 0.00036693
9750.0 0.00036429
9770.0 0.00036166
9790.0 0.00035905
9810.0 0.00035646
9830.0 0.00035382
9850.0 0.00035081
9870.0 0.00034834
9890.0 0.00034599
9910.0 0.00034359
9930.0 0.00034104
9950.0 0.00033863
9970.0 0.00033622
9990.0 0.00033376
10010.0 0.00033103
10030.0 0.00032851
10050.0 0.00032628
10070.0 0.00032403
10090.0 0.00032177
10110.0 0.00031939
10130.0 0.00031674
10150.0 0.0003145
10170.0 0.00031231
10190.0 0.00031003
10210.0 0.00030781
10230.0 0.00030561
10250.0 0.00030333
10270.0 0.00030108
10290.0 0.0002989
10310.0 0.00029666
10330.0 0.00029438
10350.0 0.00029221
10370.0 0.00029005
10390.0 0.00028783
10410.0 0.00028564
10430.0 0.00028354
10450.0 0.00028138
10470.0 0.00027921
10490.0 0.00027711
10510.0 0.00027502
10530.0 0.00027284
10550.0 0.00027072
10570.0 0.00026868
10590.0 0.00026658
10610.0 0.00026447
10630.0 0.00026244
10650.0 0.00026041
10670.0 0.0002583
10690.0 0.00025625
10710.0 0.00025425
10730.0 0.00025219
10750.0 0.00025009
10770.0 0.00024812
10790.0 0.00024613
10810.0 0.00024408
10830.0 0.00024207
10850.0 0.00024014
10870.0 0.0002381
10890.0 0.00023608
10910.0 0.00023416
10930.0 0.00023224
10950.0 0.00023031
10970.0 0.00022847
10990.0 0.00022675
11010.0 0.00022483
11030.0 0.00022333
11050.0 0.00022191
11070.0 0.00022051
11090.0 0.00021904
11110.0 0.00021764
11130.0 0.00021623
11150.0 0.00021476
11170.0 0.00021326
11190.0 0.0002118
11210.0 0.00021031
11230.0 0.00020877
11250.0 0.0002073
11270.0 0.00020586
11290.0 0.0002044
11310.0 0.00020298
11330.0 0.00020168
11350.0 0.0002004
11370.0 0.00019914
11390.0 0.00019797
11410.0 0.00019685
11430.0 0.0001957
11450.0 0.00019461
11470.0 0.00019356
11490.0 0.00019249
11510.0 0.00019137
11530.0 0.00019029
11550.0 0.00018919
11570.0 0.000188
11590.0 0.00018678
11610.0 0.00018556
11630.0 0.00018425
11650.0 0.00018286
11670.0 0.0001815
11690.0 0.00018011
11710.0 0.00017865
11730.0 0.0001772
11750.0 0.00017581
11770.0 0.00017438
11790.0 0.00017295
11810.0 0.0001716
11830.0 0.00017029
11850.0 0.00016895
11870.0 0.0001677
11890.0 0.00016653
11910.0 0.00016538
11930.0 0.00016426
11950.0 0.00016325
11970.0 0.00016228
11990.0 0.00016132
12010.0 0.00016046
12030.0 0.00015969
12050.0 0.00015896
12070.0 0.0001583
12090.0 0.00015776
12110.0 0.0001573
12130.0 0.00015691
12150.0 0.00015662
12170.0 0.00015644
12190.0 0.00015633
12210.0 0.00015633
12230.0 0.00015642
12250.0 0.00015659
12270.0 0.00015685
12290.0 0.00015718
12310.0 0.00015755
12330.0 0.000158
12350.0 0.00015848
12370.0 0.00015898
12390.0 0.00015949
12410.0 0.00016002
12430.0 0.00016049
12450.0 0.00016093
12470.0 0.00016132
12490.0 0.00016163
12510.0 0.00016184
12530.0 0.00016196
12550.0 0.00016196
12570.0 0.00016183
12590.0 0.00016157
12610.0 0.00016115
12630.0 0.00016058
12650.0 0.00015991
12670.0 0.00015908
12690.0 0.00015811
12710.0 0.00015705
12730.0 0.00015591
12750.0 0.00015461
12770.0 0.00015327
12790.0 0.00015192
12810.0 0.0001505
12830.0 0.00014901
12850.0 0.00014759
12870.0 0.00014617
12890.0 0.00014471
12910.0 0.00014329
12930.0 0.00014194
12950.0 0.00014055
12970.0 0.00013917
12990.0 0.00013788
13010.0 0.00013662
13030.0 0.00013535
13050.0 0.00013412
13070.0 0.00013298
13090.0 0.00013183
13110.0 0.00013071
13130.0 0.00012968
13150.0 0.00012869
13170.0 0.00012771
13190.0 0.00012682
13210.0 0.00012601
13230.0 0.00012523
13250.0 0.00012449
13270.0 0.00012383
13290.0 0.0001232
13310.0 0.00012258
13330.0 0.00012201
13350.0 0.00012146
13370.0 0.0001209
13390.0 0.00012032
13410.0 0.00011978
13430.0 0.00011921
13450.0 0.00011861
13470.0 0.00011801
13490.0 0.0001174
13510.0 0.00011672
13530.0 0.00011603
13550.0 0.00011535
13570.0 0.00011464
13590.0 0.00011389
13610.0 0.00011314
13630.0 0.0001124
13650.0 0.00011162
13670.0 0.00011083
13690.0 0.00011005
13710.0 0.00010926
13730.0 0.00010842
13750.0 0.00010762
13770.0 0.00010682
13790.0 0.00010598
13810.0 0.00010514
13830.0 0.00010433
13850.0 0.00010347
13870.0 0.00010258
13890.0 0.00010171
13910.0 0.00010083
13930.0 9.9894e-05
13950.0 9.8941e-05
13970.0 9.802e-05
13990.0 9.7051e-05
14010.0 9.6047e-05
14030.0 9.5063e-05
14050.0 9.4075e-05
14070.0 9.3023e-05
14090.0 9.1997e-05
14110.0 9.1005e-05
14130.0 8.9999e-05
14150.0 8.8987e-05
14170.0 8.8048e-05
14190.0 8.7137e-05
14210.0 8.6225e-05
14230.0 8.5364e-05
14250.0 8.4564e-05
14270.0 8.3765e-05
14290.0 8.2987e-05
14310.0 8.2277e-05
14330.0 8.1586e-05
14350.0 8.0894e-05
14370.0 8.0234e-05
14390.0 7.9611e-05
14410.0 7.8974e-05
14430.0 7.8346e-05
14450.0 7.7754e-05
14470.0 7.7173e-05
14490.0 7.658e-05
14510.0 7.6028e-05
14530.0 7.5509e-05
14550.0 7.4993e-05
14570.0 7.4495e-05
14590.0 7.4038e-05
14610.0 7.3592e-05
14630.0 7.315e-05
14650.0 7.2741e-05
14670.0 7.2355e-05
14690.0 7.1975e-05
14710.0 7.1607e-05
14730.0 7.1278e-05
14750.0 7.0961e-05
14770.0 7.0658e-05
14790.0 7.0387e-05
14810.0 7.0148e-05
14830.0 6.9927e-05
14850.0 6.9746e-05
14870.0 6.9606e-05
14890.0 6.95e-05
14910.0 6.9427e-05
14930.0 6.9385e-05
14950.0 6.9362e-05
14970.0 6.9349e-05
14990.0 6.9335e-05
15010.0 6.9311e-05
15030.0 6.9269e-05
15050.0 6.9206e-05
15070.0 6.9126e-05
15090.0 6.9032e-05
15110.0 6.8925e-05
15130.0 6.8812e-05
15150.0 6.8698e-05
15170.0 6.8578e-05
15190.0 6.8455e-05
15210.0 6.8335e-05
15230.0 6.8215e-05
15250.0 6.809e-05
15270.0 6.7967e-05
15290.0 6.7848e-05
15310.0 6.7726e-05
15330.0 6.7602e-05
15350.0 6.7481e-05
15370.0 6.7361e-05
15390.0 6.7235e-05
15410.0 6.7112e-05
15430.0 6.6992e-05
15450.0 6.687e-05
15470.0 6.6745e-05
15490.0 6.6625e-05
15510.0 6.6505e-05
15530.0 6.6381e-05
15550.0 6.626e-05
15570.0 6.6141e-05
15590.0 6.6018e-05
15610.0 6.5895e-05
15630.0 6.5776e-05
15650.0 6.5657e-05
15670.0 6.5534e-05
15690.0 6.5415e-05
15710.0 6.5298e-05
15730.0 6.5178e-05
15750.0 6.5058e-05
15770.0 6.4941e-05
15790.0 6.4824e-05
15810.0 6.4703e-05
15830.0 6.4586e-05
15850.0 6.4472e-05
15870.0 6.4354e-05
15890.0 6.4237e-05
15910.0 6.4125e-05
15930.0 6.401e-05
15950.0 6.3893e-05
15970.0 6.3779e-05
15990.0 6.3668e-05
16010.0 6.3554e-05
16030.0 6.3439e-05
16050.0 6.333e-05
16070.0 6.322e-05
16090.0 6.3107e-05
16110.0 6.2998e-05
16130.0 6.2891e-05
16150.0 6.2779e-05
16170.0 6.2669e-05
16190.0 6.2564e-05
16210.0 6.2457e-05
16230.0 6.2348e-05
16250.0 6.2243e-05
16270.0 6.214e-05
16290.0 6.2033e-05
16310.0 6.1928e-05
16330.0 6.1827e-05
16350.0 6.1724e-05
16370.0 6.1617e-05
16390.0 6.1517e-05
16410.0 6.1418e-05
16430.0 6.1315e-05
16450.0 6.1215e-05
16470.0 6.1118e-05
16490.0 6.1019e-05
16510.0 6.0918e-05
16530.0 6.0821e-05
16550.0 6.0725e-05
16570.0 6.0626e-05
16590.0 6.0528e-05
16610.0 6.0436e-05
16630.0 6.034e-05
16650.0 6.0244e-05
16670.0 6.0151e-05
16690.0 6.0059e-05
16710.0 5.9962e-05
16730.0 5.9869e-05
16750.0 5.9779e-05
16770.0 5.9686e-05
16790.0 5.9592e-05
16810.0 5.9503e-05
16830.0 5.9414e-05
16850.0 5.9321e-05
16870.0 5.9231e-05
16890.0 5.9144e-05
16910.0 5.9053e-05
16930.0 5.8961e-05
16950.0 5.8874e-05
16970.0 5.8786e-05
16990.0 5.8696e-05
17010.0 5.8608e-05
17030.0 5.8523e-05
17050.0 5.8433e-05
17070.0 5.8344e-05
17090.0 5.8259e-05
17110.0 5.8172e-05
17130.0 5.8081e-05
17150.0 5.7994e-05
17170.0 5.791e-05
17190.0 5.7822e-05
17210.0 5.7734e-05
17230.0 5.7649e-05
17250.0 5.7562e-05
17270.0 5.7472e-05
17290.0 5.7386e-05
17310.0 5.73e-05
17330.0 5.7211e-05
17350.0 5.7122e-05
17370.0 5.7037e-05
17390.0 5.695e-05
17410.0 5.686e-05
17430.0 5.6773e-05
17450.0 5.6687e-05
17470.0 5.6595e-05
17490.0 5.6505e-05
17510.0 5.6418e-05
17530.0 5.6328e-05
17550.0 5.6236e-05
17570.0 5.6147e-05
17590.0 5.6059e-05
17610.0 5.5966e-05
17630.0 5.5874e-05
17650.0 5.5784e-05
17670.0 5.5692e-05
17690.0 5.5594e-05
17710.0 5.5503e-05
17730.0 5.5411e-05
17750.0 5.5315e-05
17770.0 5.5219e-05
17790.0 5.5127e-05
17810.0 5.503e-05
17830.0 5.4931e-05
17850.0 5.4835e-05
17870.0 5.4738e-05
17890.0 5.4636e-05
17910.0 5.4536e-05
17930.0 5.4439e-05
17950.0 5.4337e-05
17970.0 5.4234e-05
17990.0 5.4134e-05
18010.0 5.4032e-05
18030.0 5.3925e-05
18050.0 5.382e-05
18070.0 5.3716e-05
18090.0 5.3609e-05
18110.0 5.35e-05
18130.0 5.3394e-05
18150.0 5.3286e-05
18170.0 5.3174e-05
18190.0 5.3064e-05
18210.0 5.2955e-05
18230.0 5.284e-05
18250.0 5.2724e-05
18270.0 5.2612e-05
18290.0 5.2498e-05
18310.0 5.238e-05
18330.0 5.2263e-05
18350.0 5.2148e-05
18370.0 5.2027e-05
18390.0 5.1906e-05
18410.0 5.1786e-05
18430.0 5.1665e-05
18450.0 5.1538e-05
18470.0 5.1415e-05
18490.0 5.1292e-05
18510.0 5.1165e-05
18530.0 5.1038e-05
18550.0 5.0912e-05
18570.0 5.0783e-05
18590.0 5.065e-05
18610.0 5.052e-05
18630.0 5.039e-05
18650.0 5.0255e-05
18670.0 5.012e-05
18690.0 4.9988e-05
18710.0 4.9852e-05
18730.0 4.9713e-05
18750.0 4.9577e-05
18770.0 4.944e-05
18790.0 4.9297e-05
18810.0 4.9155e-05
18830.0 4.9015e-05
18850.0 4.8872e-05
18870.0 4.8727e-05
18890.0 4.8584e-05
18910.0 4.844e-05
18930.0 4.8291e-05
18950.0 4.8143e-05
18970.0 4.7997e-05
18990.0 4.7848e-05
19010.0 4.7693e-05
19030.0 4.7545e-05
19050.0 4.7394e-05
19070.0 4.724e-05
19090.0 4.7086e-05
19110.0 4.6935e-05
19130.0 4.6778e-05
19150.0 4.662e-05
19170.0 4.6465e-05
19190.0 4.6308e-05
19210.0 4.6147e-05
19230.0 4.5987e-05
19250.0 4.583e-05
19270.0 4.5669e-05
19290.0 4.5507e-05
19310.0 4.5346e-05
19330.0 4.5185e-05
19350.0 4.5018e-05
19370.0 4.4855e-05
19390.0 4.4692e-05
19410.0 4.4526e-05
19430.0 4.4358e-05
19450.0 4.4194e-05
19470.0 4.4028e-05
19490.0 4.3859e-05
19510.0 4.3692e-05
19530.0 4.3526e-05
19550.0 4.3355e-05
19570.0 4.3183e-05
19590.0 4.3016e-05
19610.0 4.2846e-05
19630.0 4.2674e-05
19650.0 4.2504e-05
19670.0 4.2335e-05
19690.0 4.2162e-05
19710.0 4.1989e-05
19730.0 4.1819e-05
19750.0 4.1647e-05
19770.0 4.1471e-05
19790.0 4.1299e-05
19810.0 4.1128e-05
19830.0 4.0953e-05
19850.0 4.0778e-05
19870.0 4.0604e-05
19890.0 4.0422e-05
19910.0 4.023e-05
19930.0 4.0029e-05
19950.0 3.981e-05
19970.0 3.9558e-05
19990.0 3.9271e-05
20010.0 3.8956e-05
20030.0 3.8593e-05
20050.0 3.8185e-05
20070.0 3.7753e-05
20090.0 3.7298e-05
20110.0 3.6801e-05
20130.0 3.6305e-05
20150.0 3.5818e-05
20170.0 3.5321e-05
20190.0 3.4823e-05
20210.0 3.4351e-05
20230.0 3.3889e-05
20250.0 3.3426e-05
20270.0 3.2987e-05
20290.0 3.2574e-05
20310.0 3.217e-05
20330.0 3.1776e-05
20350.0 3.1423e-05
20370.0 3.1085e-05
20390.0 3.0759e-05
20410.0 3.0458e-05
20430.0 3.0183e-05
20450.0 2.9915e-05
20470.0 2.9667e-05
20490.0 2.9443e-05
20510.0 2.9234e-05
20530.0 2.9036e-05
20550.0 2.8857e-05
20570.0 2.8696e-05
20590.0 2.8543e-05
20610.0 2.8403e-05
20630.0 2.8277e-05
20650.0 2.8159e-05
20670.0 2.8048e-05
20690.0 2.7946e-05
20710.0 2.785e-05
20730.0 2.7757e-05
20750.0 2.7666e-05
20770.0 2.7576e-05
20790.0 2.7484e-05
20810.0 2.7387e-05
20830.0 2.7286e-05
20850.0 2.718e-05
20870.0 2.7062e-05
20890.0 2.6933e-05
20910.0 2.6798e-05
20930.0 2.665e-05
20950.0 2.6488e-05
20970.0 2.6317e-05
20990.0 2.6138e-05
21010.0 2.5941e-05
21030.0 2.5736e-05
21050.0 2.5527e-05
21070.0 2.5307e-05
21090.0 2.5075e-05
21110.0 2.4846e-05
21130.0 2.4616e-05
21150.0 2.4377e-05
21170.0 2.4138e-05
21190.0 2.3907e-05
21210.0 2.367e-05
21230.0 2.3432e-05
21250.0 2.3205e-05
21270.0 2.2983e-05
21290.0 2.2759e-05
21310.0 2.2542e-05
21330.0 2.234e-05
21350.0 2.2137e-05
21370.0 2.1938e-05
21390.0 2.175e-05
21410.0 2.157e-05
21430.0 2.1386e-05
21450.0 2.1213e-05
21470.0 2.105e-05
21490.0 2.0886e-05
21510.0 2.0725e-05
21530.0 2.0573e-05
21550.0 2.0423e-05
21570.0 2.0271e-05
21590.0 2.0124e-05
21610.0 1.9981e-05
21630.0 1.9837e-05
21650.0 1.9689e-05
21670.0 1.9551e-05
21690.0 1.9412e-05
21710.0 1.9269e-05
21730.0 1.913e-05
21750.0 1.8995e-05
21770.0 1.8852e-05
21790.0 1.8711e-05
21810.0 1.8573e-05
21830.0 1.8435e-05
21850.0 1.8291e-05
21870.0 1.815e-05
21890.0 1.8014e-05
21910.0 1.7871e-05
21930.0 1.7728e-05
21950.0 1.7589e-05
21970.0 1.7447e-05
21990.0 1.7299e-05
22010.0 1.7158e-05
22030.0 1.7018e-05
22050.0 1.6875e-05
22070.0 1.6732e-05
22090.0 1.6597e-05
22110.0 1.646e-05
22130.0 1.6322e-05
22150.0 1.6191e-05
22170.0 1.6064e-05
22190.0 1.5935e-05
22210.0 1.5811e-05
22230.0 1.5698e-05
22250.0 1.5585e-05
22270.0 1.5476e-05
22290.0 1.5375e-05
22310.0 1.528e-05
22330.0 1.5184e-05
22350.0 1.5095e-05
22370.0 1.5014e-05
22390.0 1.4934e-05
22410.0 1.4856e-05
22430.0 1.4785e-05
22450.0 1.4718e-05
22470.0 1.4651e-05
22490.0 1.4588e-05
22510.0 1.4529e-05
22530.0 1.4469e-05
22550.0 1.4409e-05
22570.0 1.4355e-05
22590.0 1.4302e-05
22610.0 1.4248e-05
22630.0 1.4197e-05
22650.0 1.4151e-05
22670.0 1.4105e-05
22690.0 1.406e-05
22710.0 1.402e-05
22730.0 1.3983e-05
22750.0 1.3945e-05
22770.0 1.3914e-05
22790.0 1.3887e-05
22810.0 1.3863e-05
22830.0 1.3843e-05
22850.0 1.383e-05
