#lamb flux
1010.0 1.2202e-08
1030.0 1.3707e-08
1050.0 1.5439e-08
1070.0 1.7388e-08
1090.0 1.9602e-08
1110.0 2.1873e-08
1130.0 2.4159e-08
1150.0 2.6553e-08
1170.0 2.9023e-08
1190.0 3.1365e-08
1210.0 3.3739e-08
1230.0 3.6191e-08
1250.0 3.8595e-08
1270.0 4.0929e-08
1290.0 4.3395e-08
1310.0 4.5859e-08
1330.0 4.8222e-08
1350.0 5.0612e-08
1370.0 5.308e-08
1390.0 5.5485e-08
1410.0 5.7819e-08
1430.0 6.0259e-08
1450.0 6.2699e-08
1470.0 6.5056e-08
1490.0 6.7439e-08
1510.0 6.9955e-08
1530.0 7.2339e-08
1550.0 7.4689e-08
1570.0 7.712e-08
1590.0 7.9553e-08
1610.0 8.1876e-08
1630.0 8.4269e-08
1650.0 8.6723e-08
1670.0 8.9095e-08
1690.0 9.1434e-08
1710.0 9.386e-08
1730.0 9.6296e-08
1750.0 9.8581e-08
1770.0 1.0093e-07
1790.0 1.0332e-07
1810.0 1.0562e-07
1830.0 1.0788e-07
1850.0 1.1027e-07
1870.0 1.1258e-07
1890.0 1.148e-07
1910.0 1.1705e-07
1930.0 1.1935e-07
1950.0 1.2151e-07
1970.0 1.2362e-07
1990.0 1.258e-07
2010.0 1.2791e-07
2030.0 1.2991e-07
2050.0 1.3195e-07
2070.0 1.3401e-07
2090.0 1.3589e-07
2110.0 1.3772e-07
2130.0 1.3957e-07
2150.0 1.4133e-07
2170.0 1.4293e-07
2190.0 1.4456e-07
2210.0 1.4613e-07
2230.0 1.4755e-07
2250.0 1.4889e-07
2270.0 1.5025e-07
2290.0 1.5146e-07
2310.0 1.525e-07
2330.0 1.5352e-07
2350.0 1.5447e-07
2370.0 1.5525e-07
2390.0 1.5597e-07
2410.0 1.5674e-07
2430.0 1.5743e-07
2450.0 1.5809e-07
2470.0 1.5892e-07
2490.0 1.6002e-07
2510.0 1.6135e-07
2530.0 1.635e-07
2550.0 1.6733e-07
2570.0 1.7364e-07
2590.0 1.8343e-07
2610.0 1.9954e-07
2630.0 2.2247e-07
2650.0 2.5075e-07
2670.0 2.8452e-07
2690.0 3.2218e-07
2710.0 3.5796e-07
2730.0 3.8914e-07
2750.0 4.1617e-07
2770.0 4.3613e-07
2790.0 4.4897e-07
2810.0 4.5699e-07
2830.0 4.6177e-07
2850.0 4.6335e-07
2870.0 4.6349e-07
2890.0 4.6314e-07
2910.0 4.6237e-07
2930.0 4.6112e-07
2950.0 4.6007e-07
2970.0 4.5916e-07
2990.0 4.5804e-07
3010.0 8.2594e-06
3030.0 8.2328e-06
3050.0 8.2059e-06
3070.0 8.1707e-06
3090.0 8.1321e-06
3110.0 8.0811e-06
3130.0 8.0069e-06
3150.0 7.905e-06
3170.0 7.7673e-06
3190.0 7.597e-06
3210.0 7.4103e-06
3230.0 7.2241e-06
3250.0 7.0817e-06
3270.0 6.9869e-06
3290.0 6.9914e-06
3310.0 7.0551e-06
3330.0 7.2247e-06
3350.0 7.4674e-06
3370.0 7.7879e-06
3390.0 8.1766e-06
3410.0 8.5913e-06
3430.0 9.0523e-06
3450.0 9.5755e-06
3470.0 1.0138e-05
3490.0 1.0722e-05
3510.0 1.1373e-05
3530.0 1.2061e-05
3550.0 1.2735e-05
3570.0 1.3426e-05
3590.0 1.42e-05
3610.0 1.4966e-05
3630.0 1.5792e-05
3650.0 1.6635e-05
3670.0 1.743e-05
3690.0 1.8043e-05
3710.0 1.8425e-05
3730.0 1.8555e-05
3750.0 1.8421e-05
3770.0 1.6792e-05
3790.0 1.5065e-05
3810.0 1.4064e-05
3830.0 1.2136e-05
3850.0 8.7458e-06
3870.0 6.7128e-06
3890.0 1.1285e-05
3910.0 1.7957e-05
3930.0 2.1741e-05
3950.0 2.1725e-05
3970.0 2.1715e-05
3990.0 2.547e-05
4010.0 3.1614e-05
4030.0 3.2529e-05
4050.0 2.9284e-05
4070.0 2.5468e-05
4090.0 2.3869e-05
4110.0 2.8638e-05
4130.0 2.9659e-05
4150.0 2.825e-05
4170.0 2.9167e-05
4190.0 2.9938e-05
4210.0 2.9505e-05
4230.0 3.203e-05
4250.0 3.4889e-05
4270.0 3.525e-05
4290.0 3.5799e-05
4310.0 3.7212e-05
4330.0 4.1143e-05
4350.0 4.6926e-05
4370.0 5.3054e-05
4390.0 5.1105e-05
4410.0 4.2846e-05
4430.0 3.6108e-05
4450.0 3.072e-05
4470.0 3.0065e-05
4490.0 3.2638e-05
4510.0 3.5717e-05
4530.0 3.9078e-05
4550.0 4.5518e-05
4570.0 5.4746e-05
4590.0 6.7015e-05
4610.0 8.4218e-05
4630.0 0.0001009
4650.0 0.00010441
4670.0 0.00010239
4690.0 0.00010904
4710.0 0.00011396
4730.0 9.6867e-05
4750.0 7.0442e-05
4770.0 5.781e-05
4790.0 5.5167e-05
4810.0 5.124e-05
4830.0 4.8588e-05
4850.0 5.596e-05
4870.0 7.1435e-05
4890.0 8.1047e-05
4910.0 6.9707e-05
4930.0 6.2236e-05
4950.0 7.0023e-05
4970.0 9.3272e-05
4990.0 0.00011935
5010.0 0.00012508
5030.0 0.00010358
5050.0 6.8195e-05
5070.0 4.7184e-05
5090.0 4.1964e-05
5110.0 4.3852e-05
5130.0 4.7029e-05
5150.0 4.9506e-05
5170.0 4.9505e-05
5190.0 4.8659e-05
5210.0 4.71e-05
5230.0 4.7894e-05
5250.0 5.1023e-05
5270.0 5.9622e-05
5290.0 6.8907e-05
5310.0 7.4927e-05
5330.0 7.6908e-05
5350.0 7.8155e-05
5370.0 8.4922e-05
5390.0 9.0276e-05
5410.0 8.7855e-05
5430.0 7.6961e-05
5450.0 7.1325e-05
5470.0 8.0454e-05
5490.0 0.00010306
5510.0 0.00013072
5530.0 0.00014418
5550.0 0.00014085
5570.0 0.00012853
5590.0 0.00011574
5610.0 0.0001068
5630.0 0.0001013
5650.0 0.00010405
5670.0 0.00010198
5690.0 9.5811e-05
5710.0 9.0344e-05
5730.0 8.1095e-05
5750.0 6.0414e-05
5770.0 5.3007e-05
5790.0 5.9166e-05
5810.0 7.1381e-05
5830.0 7.996e-05
5850.0 8.6253e-05
5870.0 8.8258e-05
5890.0 8.5052e-05
5910.0 8.1485e-05
5930.0 8.2056e-05
5950.0 8.6184e-05
5970.0 9.0266e-05
5990.0 8.5779e-05
6010.0 7.2593e-05
6030.0 6.0336e-05
6050.0 5.2632e-05
6070.0 5.2158e-05
6090.0 5.8515e-05
6110.0 6.38e-05
6130.0 6.1452e-05
6150.0 5.773e-05
6170.0 6.3911e-05
6190.0 7.6838e-05
6210.0 9.22e-05
6230.0 0.00010393
6250.0 0.00010349
6270.0 9.3368e-05
6290.0 7.7288e-05
6310.0 6.1667e-05
6330.0 4.9505e-05
6350.0 4.4902e-05
6370.0 4.896e-05
6390.0 5.7466e-05
6410.0 6.5858e-05
6430.0 7.6181e-05
6450.0 8.8543e-05
6470.0 0.0001094
6490.0 0.00013415
6510.0 0.00014728
6530.0 0.00013692
6550.0 0.00012638
6570.0 0.00012434
6590.0 0.00011948
6610.0 0.00010801
6630.0 9.6975e-05
6650.0 8.9649e-05
6670.0 9.3088e-05
6690.0 9.2579e-05
6710.0 8.2077e-05
6730.0 7.6067e-05
6750.0 6.7642e-05
6770.0 6.512e-05
6790.0 7.0238e-05
6810.0 7.4017e-05
6830.0 7.5827e-05
6850.0 7.4527e-05
6870.0 7.1445e-05
6890.0 6.9997e-05
6910.0 6.6546e-05
6930.0 6.2867e-05
6950.0 6.3231e-05
6970.0 6.4546e-05
6990.0 7.1859e-05
7010.0 7.6461e-05
7030.0 6.9633e-05
7050.0 6.5227e-05
7070.0 6.274e-05
7090.0 5.645e-05
7110.0 5.259e-05
7130.0 5.353e-05
7150.0 5.5592e-05
7170.0 5.8559e-05
7190.0 5.8651e-05
7210.0 5.8942e-05
7230.0 6.2083e-05
7250.0 7.1498e-05
7270.0 8.3519e-05
7290.0 8.9507e-05
7310.0 8.6723e-05
7330.0 7.7134e-05
7350.0 6.9337e-05
7370.0 6.8185e-05
7390.0 6.8832e-05
7410.0 7.1351e-05
7430.0 7.8122e-05
7450.0 8.4682e-05
7470.0 9.384e-05
7490.0 0.00010369
7510.0 9.5313e-05
7530.0 9.1217e-05
7550.0 7.6586e-05
7570.0 6.4343e-05
7590.0 5.3011e-05
7610.0 4.8646e-05
7630.0 5.0884e-05
7650.0 5.8176e-05
7670.0 6.3358e-05
7690.0 7.1441e-05
7710.0 7.9614e-05
7730.0 8.3232e-05
7750.0 8.341e-05
7770.0 8.3076e-05
7790.0 8.1835e-05
7810.0 8.4983e-05
7830.0 8.2128e-05
7850.0 7.3255e-05
7870.0 6.6139e-05
7890.0 6.1605e-05
7910.0 5.5549e-05
7930.0 4.7521e-05
7950.0 4.349e-05
7970.0 4.3225e-05
7990.0 4.5228e-05
8010.0 4.8003e-05
8030.0 4.869e-05
8050.0 4.8477e-05
8070.0 4.7088e-05
8090.0 4.6857e-05
8110.0 4.4516e-05
8130.0 4.1477e-05
8150.0 3.8983e-05
8170.0 3.8021e-05
8190.0 3.8822e-05
8210.0 3.8913e-05
8230.0 4.0453e-05
8250.0 4.0196e-05
8270.0 3.5918e-05
8290.0 2.7582e-05
8310.0 1.8776e-05
8330.0 1.238e-05
8350.0 8.7851e-06
8370.0 1.0427e-05
8390.0 1.1535e-05
8410.0 1.4769e-05
8430.0 1.7891e-05
8450.0 1.9597e-05
8470.0 2.0319e-05
8490.0 2.0861e-05
8510.0 2.1786e-05
8530.0 2.4355e-05
8550.0 2.6901e-05
8570.0 3.1598e-05
8590.0 3.8743e-05
8610.0 4.5354e-05
8630.0 5.3001e-05
8650.0 5.9596e-05
8670.0 5.8698e-05
8690.0 5.4991e-05
8710.0 5.1956e-05
8730.0 4.9091e-05
8750.0 4.6942e-05
8770.0 4.5543e-05
8790.0 4.4114e-05
8810.0 4.1087e-05
8830.0 3.7038e-05
8850.0 3.2062e-05
8870.0 2.7385e-05
8890.0 2.4729e-05
8910.0 2.5002e-05
8930.0 2.4963e-05
8950.0 2.7098e-05
8970.0 2.7719e-05
8990.0 2.8786e-05
9010.0 2.9849e-05
9030.0 3.0087e-05
9050.0 3.0199e-05
9070.0 3.0284e-05
9090.0 3.0346e-05
9110.0 3.0377e-05
9130.0 3.0426e-05
9150.0 3.0495e-05
9170.0 3.0564e-05
9190.0 3.0631e-05
9210.0 3.0736e-05
9230.0 3.0814e-05
9250.0 3.0905e-05
9270.0 3.1e-05
9290.0 3.1101e-05
9310.0 3.1211e-05
9330.0 3.1328e-05
9350.0 3.1448e-05
9370.0 3.1575e-05
9390.0 3.171e-05
9410.0 3.185e-05
9430.0 3.1992e-05
9450.0 3.2145e-05
9470.0 3.2303e-05
9490.0 3.2463e-05
9510.0 3.263e-05
9530.0 3.2805e-05
9550.0 3.2981e-05
9570.0 3.3161e-05
9590.0 3.335e-05
9610.0 3.3542e-05
9630.0 3.3736e-05
9650.0 3.3936e-05
9670.0 3.4143e-05
9690.0 3.4351e-05
9710.0 3.4563e-05
9730.0 3.4781e-05
9750.0 3.5001e-05
9770.0 3.5221e-05
9790.0 3.5447e-05
9810.0 3.5678e-05
9830.0 3.591e-05
9850.0 3.6143e-05
9870.0 3.6382e-05
9890.0 3.6622e-05
9910.0 3.6861e-05
9930.0 3.7104e-05
9950.0 3.7349e-05
9970.0 3.7593e-05
9990.0 3.7838e-05
10010.0 3.7219e-05
10030.0 3.7459e-05
10050.0 3.7695e-05
10070.0 3.7925e-05
10090.0 3.8171e-05
10110.0 3.841e-05
10130.0 3.8649e-05
10150.0 3.8891e-05
10170.0 3.9128e-05
10190.0 3.936e-05
10210.0 3.9595e-05
10230.0 3.9829e-05
10250.0 4.0057e-05
10270.0 4.0283e-05
10290.0 4.0511e-05
10310.0 4.0732e-05
10330.0 4.0947e-05
10350.0 4.1164e-05
10370.0 4.1377e-05
10390.0 4.1583e-05
10410.0 4.1785e-05
10430.0 4.1989e-05
10450.0 4.2184e-05
10470.0 4.2371e-05
10490.0 4.2558e-05
10510.0 4.2741e-05
10530.0 4.2911e-05
10550.0 4.3078e-05
10570.0 4.3245e-05
10590.0 4.3402e-05
10610.0 4.355e-05
10630.0 4.3697e-05
10650.0 4.3837e-05
10670.0 4.3965e-05
10690.0 4.4089e-05
10710.0 4.4209e-05
10730.0 4.4318e-05
10750.0 4.4415e-05
10770.0 4.4514e-05
10790.0 4.4603e-05
10810.0 4.4679e-05
10830.0 4.4749e-05
10850.0 4.4812e-05
10870.0 4.485e-05
10890.0 4.4863e-05
10910.0 4.4844e-05
10930.0 4.4766e-05
10950.0 4.4591e-05
10970.0 4.4305e-05
10990.0 4.39e-05
11010.0 4.2418e-05
11030.0 4.1672e-05
11050.0 4.0803e-05
11070.0 3.9788e-05
11090.0 3.8583e-05
11110.0 3.7353e-05
11130.0 3.6082e-05
11150.0 3.4728e-05
11170.0 3.3357e-05
11190.0 3.2057e-05
11210.0 3.075e-05
11230.0 2.9452e-05
11250.0 2.8259e-05
11270.0 2.7158e-05
11290.0 2.6099e-05
11310.0 2.5139e-05
11330.0 2.4327e-05
11350.0 2.3585e-05
11370.0 2.2916e-05
11390.0 2.2345e-05
11410.0 2.1842e-05
11430.0 2.1358e-05
11450.0 2.0914e-05
11470.0 2.0495e-05
11490.0 2.0063e-05
11510.0 1.9602e-05
11530.0 1.9134e-05
11550.0 1.8639e-05
11570.0 1.8092e-05
11590.0 1.7516e-05
11610.0 1.6933e-05
11630.0 1.631e-05
11650.0 1.566e-05
11670.0 1.504e-05
11690.0 1.4431e-05
11710.0 1.3825e-05
11730.0 1.3257e-05
11750.0 1.2748e-05
11770.0 1.2263e-05
11790.0 1.1819e-05
11810.0 1.1435e-05
11830.0 1.1095e-05
11850.0 1.0781e-05
11870.0 1.0511e-05
11890.0 1.0277e-05
11910.0 1.0056e-05
11930.0 9.8472e-06
11950.0 9.6517e-06
11970.0 9.4551e-06
11990.0 9.2472e-06
12010.0 9.0362e-06
12030.0 8.8205e-06
12050.0 8.5904e-06
12070.0 8.3486e-06
12090.0 8.1166e-06
12110.0 7.8836e-06
12130.0 7.6525e-06
12150.0 7.4401e-06
12170.0 7.2524e-06
12190.0 7.0824e-06
12210.0 6.948e-06
12230.0 6.8542e-06
12250.0 6.7993e-06
12270.0 6.7885e-06
12290.0 6.8216e-06
12310.0 6.893e-06
12330.0 7.0094e-06
12350.0 7.1636e-06
12370.0 7.3423e-06
12390.0 7.5491e-06
12410.0 7.7899e-06
12430.0 8.0283e-06
12450.0 8.2681e-06
12470.0 8.5149e-06
12490.0 8.752e-06
12510.0 8.9618e-06
12530.0 9.1587e-06
12550.0 9.3346e-06
12570.0 9.4735e-06
12590.0 9.5792e-06
12610.0 9.6562e-06
12630.0 9.6962e-06
12650.0 9.6984e-06
12670.0 9.6701e-06
12690.0 9.6103e-06
12710.0 9.5231e-06
12730.0 9.4126e-06
12750.0 9.2756e-06
12770.0 9.1212e-06
12790.0 8.9551e-06
12810.0 8.7737e-06
12830.0 8.5775e-06
12850.0 8.38e-06
12870.0 8.1769e-06
12890.0 7.9615e-06
12910.0 7.7434e-06
12930.0 7.5267e-06
12950.0 7.2988e-06
12970.0 7.0629e-06
12990.0 6.8337e-06
13010.0 6.6022e-06
13030.0 6.363e-06
13050.0 6.1279e-06
13070.0 5.903e-06
13090.0 5.6749e-06
13110.0 5.4522e-06
13130.0 5.246e-06
13150.0 5.0516e-06
13170.0 4.8643e-06
13190.0 4.7008e-06
13210.0 4.5609e-06
13230.0 4.4387e-06
13250.0 4.3399e-06
13270.0 4.268e-06
13290.0 4.2195e-06
13310.0 4.1957e-06
13330.0 4.1969e-06
13350.0 4.2199e-06
13370.0 4.2653e-06
13390.0 4.3317e-06
13410.0 4.4085e-06
13430.0 4.4991e-06
13450.0 4.6022e-06
13470.0 4.7083e-06
13490.0 4.8133e-06
13510.0 4.9254e-06
13530.0 5.032e-06
13550.0 5.1279e-06
13570.0 5.2175e-06
13590.0 5.3e-06
13610.0 5.3683e-06
13630.0 5.4233e-06
13650.0 5.4696e-06
13670.0 5.503e-06
13690.0 5.5234e-06
13710.0 5.5334e-06
13730.0 5.5332e-06
13750.0 5.522e-06
13770.0 5.5022e-06
13790.0 5.4738e-06
13810.0 5.4376e-06
13830.0 5.3957e-06
13850.0 5.3467e-06
13870.0 5.2909e-06
13890.0 5.2312e-06
13910.0 5.1674e-06
13930.0 5.097e-06
13950.0 5.0231e-06
13970.0 4.9497e-06
13990.0 4.8723e-06
14010.0 4.7926e-06
14030.0 4.7151e-06
14050.0 4.6392e-06
14070.0 4.5618e-06
14090.0 4.4899e-06
14110.0 4.4243e-06
14130.0 4.3631e-06
14150.0 4.308e-06
14170.0 4.263e-06
14190.0 4.2265e-06
14210.0 4.1984e-06
14230.0 4.1808e-06
14250.0 4.1732e-06
14270.0 4.1758e-06
14290.0 4.1891e-06
14310.0 4.2109e-06
14330.0 4.2413e-06
14350.0 4.281e-06
14370.0 4.3268e-06
14390.0 4.3763e-06
14410.0 4.4328e-06
14430.0 4.4933e-06
14450.0 4.5541e-06
14470.0 4.6171e-06
14490.0 4.685e-06
14510.0 4.7519e-06
14530.0 4.8187e-06
14550.0 4.8904e-06
14570.0 4.9663e-06
14590.0 5.0438e-06
14610.0 5.1288e-06
14630.0 5.2254e-06
14650.0 5.3282e-06
14670.0 5.4393e-06
14690.0 5.5656e-06
14710.0 5.7061e-06
14730.0 5.8494e-06
14750.0 6.0062e-06
14770.0 6.1769e-06
14790.0 6.3506e-06
14810.0 6.525e-06
14830.0 6.7132e-06
14850.0 6.8976e-06
14870.0 7.071e-06
14890.0 7.2397e-06
14910.0 7.4009e-06
14930.0 7.541e-06
14950.0 7.6604e-06
14970.0 7.7636e-06
14990.0 7.8422e-06
15010.0 7.8965e-06
15030.0 7.9317e-06
15050.0 7.9496e-06
15070.0 7.9531e-06
15090.0 7.9476e-06
15110.0 7.9358e-06
15130.0 7.9204e-06
15150.0 7.904e-06
15170.0 7.886e-06
15190.0 7.8672e-06
15210.0 7.8492e-06
15230.0 7.8313e-06
15250.0 7.8126e-06
15270.0 7.7942e-06
15290.0 7.777e-06
15310.0 7.7592e-06
15330.0 7.7411e-06
15350.0 7.7238e-06
15370.0 7.7067e-06
15390.0 7.6884e-06
15410.0 7.6709e-06
15430.0 7.654e-06
15450.0 7.6365e-06
15470.0 7.6186e-06
15490.0 7.6018e-06
15510.0 7.585e-06
15530.0 7.5674e-06
15550.0 7.5502e-06
15570.0 7.5336e-06
15590.0 7.5161e-06
15610.0 7.4983e-06
15630.0 7.4816e-06
15650.0 7.4647e-06
15670.0 7.4471e-06
15690.0 7.4299e-06
15710.0 7.4134e-06
15730.0 7.3958e-06
15750.0 7.3782e-06
15770.0 7.3613e-06
15790.0 7.3442e-06
15810.0 7.3259e-06
15830.0 7.3085e-06
15850.0 7.2916e-06
15870.0 7.2738e-06
15890.0 7.2559e-06
15910.0 7.2389e-06
15930.0 7.2212e-06
15950.0 7.2027e-06
15970.0 7.1849e-06
15990.0 7.1673e-06
16010.0 7.1489e-06
16030.0 7.1301e-06
16050.0 7.1126e-06
16070.0 7.0944e-06
16090.0 7.0755e-06
16110.0 7.0571e-06
16130.0 7.0391e-06
16150.0 7.0196e-06
16170.0 7.0004e-06
16190.0 6.9819e-06
16210.0 6.9629e-06
16230.0 6.9431e-06
16250.0 6.924e-06
16270.0 6.9052e-06
16290.0 6.8852e-06
16310.0 6.8653e-06
16330.0 6.846e-06
16350.0 6.8261e-06
16370.0 6.805e-06
16390.0 6.7853e-06
16410.0 6.7653e-06
16430.0 6.7445e-06
16450.0 6.7238e-06
16470.0 6.7038e-06
16490.0 6.6828e-06
16510.0 6.6613e-06
16530.0 6.6404e-06
16550.0 6.6195e-06
16570.0 6.5975e-06
16590.0 6.5756e-06
16610.0 6.5547e-06
16630.0 6.5328e-06
16650.0 6.5105e-06
16670.0 6.4889e-06
16690.0 6.4671e-06
16710.0 6.4439e-06
16730.0 6.4213e-06
16750.0 6.3992e-06
16770.0 6.3762e-06
16790.0 6.3528e-06
16810.0 6.3303e-06
16830.0 6.3075e-06
16850.0 6.2837e-06
16870.0 6.2603e-06
16890.0 6.2373e-06
16910.0 6.2132e-06
16930.0 6.1887e-06
16950.0 6.1653e-06
16970.0 6.1414e-06
16990.0 6.1167e-06
17010.0 6.0925e-06
17030.0 6.0687e-06
17050.0 6.0438e-06
17070.0 6.0187e-06
17090.0 5.9944e-06
17110.0 5.9696e-06
17130.0 5.9437e-06
17150.0 5.9186e-06
17170.0 5.8939e-06
17190.0 5.8683e-06
17210.0 5.8426e-06
17230.0 5.8176e-06
17250.0 5.7919e-06
17270.0 5.7654e-06
17290.0 5.7397e-06
17310.0 5.7141e-06
17330.0 5.6876e-06
17350.0 5.6609e-06
17370.0 5.6353e-06
17390.0 5.609e-06
17410.0 5.5821e-06
17430.0 5.5558e-06
17450.0 5.5298e-06
17470.0 5.5022e-06
17490.0 5.4752e-06
17510.0 5.4488e-06
17530.0 5.4218e-06
17550.0 5.3943e-06
17570.0 5.3675e-06
17590.0 5.3409e-06
17610.0 5.3132e-06
17630.0 5.2858e-06
17650.0 5.2589e-06
17670.0 5.2315e-06
17690.0 5.203e-06
17710.0 5.176e-06
17730.0 5.1488e-06
17750.0 5.1208e-06
17770.0 5.0931e-06
17790.0 5.0661e-06
17810.0 5.0381e-06
17830.0 5.0098e-06
17850.0 4.9823e-06
17870.0 4.9547e-06
17890.0 4.9262e-06
17910.0 4.8981e-06
17930.0 4.8709e-06
17950.0 4.8428e-06
17970.0 4.8145e-06
17990.0 4.7869e-06
18010.0 4.7592e-06
18030.0 4.7304e-06
18050.0 4.7023e-06
18070.0 4.6747e-06
18090.0 4.6465e-06
18110.0 4.6179e-06
18130.0 4.5904e-06
18150.0 4.5626e-06
18170.0 4.5341e-06
18190.0 4.5061e-06
18210.0 4.4786e-06
18230.0 4.4501e-06
18250.0 4.4214e-06
18270.0 4.3939e-06
18290.0 4.3661e-06
18310.0 4.3376e-06
18330.0 4.3098e-06
18350.0 4.2825e-06
18370.0 4.2541e-06
18390.0 4.2259e-06
18410.0 4.1985e-06
18430.0 4.1707e-06
18450.0 4.1421e-06
18470.0 4.1145e-06
18490.0 4.0873e-06
18510.0 4.0593e-06
18530.0 4.0314e-06
18550.0 4.0044e-06
18570.0 3.9768e-06
18590.0 3.9486e-06
18610.0 3.9212e-06
18630.0 3.8941e-06
18650.0 3.8663e-06
18670.0 3.8386e-06
18690.0 3.8119e-06
18710.0 3.7847e-06
18730.0 3.7571e-06
18750.0 3.7302e-06
18770.0 3.7036e-06
18790.0 3.6758e-06
18810.0 3.6486e-06
18830.0 3.6222e-06
18850.0 3.5953e-06
18870.0 3.568e-06
18890.0 3.5417e-06
18910.0 3.5154e-06
18930.0 3.4884e-06
18950.0 3.4617e-06
18970.0 3.4357e-06
18990.0 3.4093e-06
19010.0 3.3821e-06
19030.0 3.3563e-06
19050.0 3.3304e-06
19070.0 3.304e-06
19090.0 3.2779e-06
19110.0 3.2526e-06
19130.0 3.2264e-06
19150.0 3.2002e-06
19170.0 3.1747e-06
19190.0 3.1493e-06
19210.0 3.1232e-06
19230.0 3.0975e-06
19250.0 3.0728e-06
19270.0 3.0473e-06
19290.0 3.0217e-06
19310.0 2.997e-06
19330.0 2.9722e-06
19350.0 2.9464e-06
19370.0 2.9215e-06
19390.0 2.8971e-06
19410.0 2.8721e-06
19430.0 2.847e-06
19450.0 2.823e-06
19470.0 2.7987e-06
19490.0 2.7738e-06
19510.0 2.7496e-06
19530.0 2.7258e-06
19550.0 2.7012e-06
19570.0 2.6766e-06
19590.0 2.6531e-06
19610.0 2.6293e-06
19630.0 2.6051e-06
19650.0 2.5816e-06
19670.0 2.5584e-06
19690.0 2.5345e-06
19710.0 2.5108e-06
19730.0 2.4878e-06
19750.0 2.4645e-06
19770.0 2.4406e-06
19790.0 2.4177e-06
19810.0 2.395e-06
19830.0 2.3718e-06
19850.0 2.3486e-06
19870.0 2.326e-06
19890.0 2.3024e-06
19910.0 2.2776e-06
19930.0 2.2524e-06
19950.0 2.2254e-06
19970.0 2.1949e-06
19990.0 2.1611e-06
20010.0 2.1576e-06
20030.0 2.1164e-06
20050.0 2.071e-06
20070.0 2.0243e-06
20090.0 1.9762e-06
20110.0 1.9245e-06
20130.0 1.8743e-06
20150.0 1.8265e-06
20170.0 1.7788e-06
20190.0 1.7322e-06
20210.0 1.6896e-06
20230.0 1.6493e-06
20250.0 1.6101e-06
20270.0 1.5748e-06
20290.0 1.5433e-06
20310.0 1.5142e-06
20330.0 1.488e-06
20350.0 1.4668e-06
20370.0 1.4489e-06
20390.0 1.4341e-06
20410.0 1.4232e-06
20430.0 1.416e-06
20450.0 1.4119e-06
20470.0 1.4113e-06
20490.0 1.4138e-06
20510.0 1.4191e-06
20530.0 1.4274e-06
20550.0 1.438e-06
20570.0 1.45e-06
20590.0 1.4645e-06
20610.0 1.4806e-06
20630.0 1.4973e-06
20650.0 1.5151e-06
20670.0 1.5347e-06
20690.0 1.5539e-06
20710.0 1.573e-06
20730.0 1.5929e-06
20750.0 1.613e-06
20770.0 1.6321e-06
20790.0 1.6515e-06
20810.0 1.6716e-06
20830.0 1.6911e-06
20850.0 1.7104e-06
20870.0 1.7308e-06
20890.0 1.7516e-06
20910.0 1.7715e-06
20930.0 1.7924e-06
20950.0 1.8142e-06
20970.0 1.8357e-06
20990.0 1.857e-06
21010.0 1.8798e-06
21030.0 1.9022e-06
21050.0 1.9237e-06
21070.0 1.9452e-06
21090.0 1.9668e-06
21110.0 1.9865e-06
21130.0 2.0048e-06
21150.0 2.0225e-06
21170.0 2.0385e-06
21190.0 2.0522e-06
21210.0 2.0646e-06
21230.0 2.0751e-06
21250.0 2.0829e-06
21270.0 2.0885e-06
21290.0 2.0918e-06
21310.0 2.0925e-06
21330.0 2.0906e-06
21350.0 2.0861e-06
21370.0 2.0787e-06
21390.0 2.0686e-06
21410.0 2.056e-06
21430.0 2.0397e-06
21450.0 2.0209e-06
21470.0 2.0001e-06
21490.0 1.9762e-06
21510.0 1.9496e-06
21530.0 1.922e-06
21550.0 1.8925e-06
21570.0 1.8606e-06
21590.0 1.8284e-06
21610.0 1.7966e-06
21630.0 1.7638e-06
21650.0 1.7309e-06
21670.0 1.7012e-06
21690.0 1.6726e-06
21710.0 1.6454e-06
21730.0 1.6215e-06
21750.0 1.6011e-06
21770.0 1.583e-06
21790.0 1.5687e-06
21810.0 1.5588e-06
21830.0 1.5526e-06
21850.0 1.5504e-06
21870.0 1.5523e-06
21890.0 1.5578e-06
21910.0 1.5673e-06
21930.0 1.5805e-06
21950.0 1.5965e-06
21970.0 1.6158e-06
21990.0 1.6392e-06
22010.0 1.664e-06
22030.0 1.6906e-06
22050.0 1.72e-06
22070.0 1.7511e-06
22090.0 1.7818e-06
22110.0 1.8141e-06
22130.0 1.8476e-06
22150.0 1.8801e-06
22170.0 1.9117e-06
22190.0 1.944e-06
22210.0 1.9747e-06
22230.0 2.0023e-06
22250.0 2.0286e-06
22270.0 2.0529e-06
22290.0 2.0737e-06
22310.0 2.0912e-06
22330.0 2.1061e-06
22350.0 2.1169e-06
22370.0 2.1235e-06
22390.0 2.1263e-06
22410.0 2.1247e-06
22430.0 2.1188e-06
22450.0 2.109e-06
22470.0 2.0944e-06
22490.0 2.0757e-06
22510.0 2.0538e-06
22530.0 2.027e-06
22550.0 1.9956e-06
22570.0 1.9621e-06
22590.0 1.9253e-06
22610.0 1.884e-06
22630.0 1.8404e-06
