#lamb flux
1010.0 2.56e-09
1030.0 2.8314e-09
1050.0 3.1435e-09
1070.0 3.4949e-09
1090.0 3.894e-09
1110.0 4.3034e-09
1130.0 4.7154e-09
1150.0 5.147e-09
1170.0 5.5921e-09
1190.0 6.0143e-09
1210.0 6.4421e-09
1230.0 6.8842e-09
1250.0 7.3174e-09
1270.0 7.7381e-09
1290.0 8.1825e-09
1310.0 8.6267e-09
1330.0 9.0527e-09
1350.0 9.4834e-09
1370.0 9.9282e-09
1390.0 1.0362e-08
1410.0 1.0783e-08
1430.0 1.1222e-08
1450.0 1.1662e-08
1470.0 1.2087e-08
1490.0 1.2517e-08
1510.0 1.2971e-08
1530.0 1.3401e-08
1550.0 1.3826e-08
1570.0 1.4265e-08
1590.0 1.4705e-08
1610.0 1.5125e-08
1630.0 1.5558e-08
1650.0 1.6003e-08
1670.0 1.6434e-08
1690.0 1.686e-08
1710.0 1.7302e-08
1730.0 1.7747e-08
1750.0 1.8166e-08
1770.0 1.8597e-08
1790.0 1.9038e-08
1810.0 1.9465e-08
1830.0 1.9886e-08
1850.0 2.0332e-08
1870.0 2.0768e-08
1890.0 2.119e-08
1910.0 2.1622e-08
1930.0 2.2064e-08
1950.0 2.2488e-08
1970.0 2.2907e-08
1990.0 2.3343e-08
2010.0 2.3773e-08
2030.0 2.4189e-08
2050.0 2.4618e-08
2070.0 2.5059e-08
2090.0 2.5476e-08
2110.0 2.5892e-08
2130.0 2.6322e-08
2150.0 2.6745e-08
2170.0 2.715e-08
2190.0 2.7571e-08
2210.0 2.7996e-08
2230.0 2.8404e-08
2250.0 2.8811e-08
2270.0 2.9236e-08
2290.0 2.9649e-08
2310.0 3.0046e-08
2330.0 3.0459e-08
2350.0 3.0884e-08
2370.0 3.1306e-08
2390.0 3.1763e-08
2410.0 3.2305e-08
2430.0 3.2929e-08
2450.0 3.3674e-08
2470.0 3.4629e-08
2490.0 3.5832e-08
2510.0 3.72e-08
2530.0 3.8847e-08
2550.0 4.0908e-08
2570.0 4.3472e-08
2590.0 4.6807e-08
2610.0 5.18e-08
2630.0 5.893e-08
2650.0 6.8252e-08
2670.0 8.0304e-08
2690.0 9.5115e-08
2710.0 1.1093e-07
2730.0 1.2655e-07
2750.0 1.4193e-07
2770.0 1.5532e-07
2790.0 1.6595e-07
2810.0 1.7438e-07
2830.0 1.8097e-07
2850.0 1.8547e-07
2870.0 1.8877e-07
2890.0 1.9139e-07
2910.0 1.9347e-07
2930.0 1.9518e-07
2950.0 1.968e-07
2970.0 1.9839e-07
2990.0 1.9989e-07
3010.0 5.6499e-06
3030.0 5.6922e-06
3050.0 5.733e-06
3070.0 5.7679e-06
3090.0 5.798e-06
3110.0 5.8167e-06
3130.0 5.8159e-06
3150.0 5.7901e-06
3170.0 5.7281e-06
3190.0 5.6307e-06
3210.0 5.5072e-06
3230.0 5.3658e-06
3250.0 5.2263e-06
3270.0 5.1243e-06
3290.0 5.0677e-06
3310.0 5.0769e-06
3330.0 5.1503e-06
3350.0 5.2783e-06
3370.0 5.461e-06
3390.0 5.6912e-06
3410.0 5.9418e-06
3430.0 6.2231e-06
3450.0 6.5469e-06
3470.0 6.9006e-06
3490.0 7.2754e-06
3510.0 7.699e-06
3530.0 8.1526e-06
3550.0 8.6119e-06
3570.0 9.091e-06
3590.0 9.6121e-06
3610.0 1.0149e-05
3630.0 1.0684e-05
3650.0 1.1239e-05
3670.0 1.1746e-05
3690.0 1.2125e-05
3710.0 1.2343e-05
3730.0 1.235e-05
3750.0 1.2178e-05
3770.0 1.211e-05
3790.0 1.2038e-05
3810.0 1.1743e-05
3830.0 1.2106e-05
3850.0 1.3536e-05
3870.0 1.4321e-05
3890.0 1.4256e-05
3910.0 1.4316e-05
3930.0 1.4693e-05
3950.0 1.4925e-05
3970.0 1.3598e-05
3990.0 1.1701e-05
4010.0 3.5069e-05
4030.0 4.2491e-05
4050.0 4.8713e-05
4070.0 4.2266e-05
4090.0 3.8281e-05
4110.0 3.3779e-05
4130.0 3.109e-05
4150.0 3.307e-05
4170.0 3.2576e-05
4190.0 3.4724e-05
4210.0 3.4406e-05
4230.0 3.6392e-05
4250.0 4.3053e-05
4270.0 4.3559e-05
4290.0 4.0139e-05
4310.0 4.1707e-05
4330.0 4.4364e-05
4350.0 4.9743e-05
4370.0 5.6609e-05
4390.0 5.3121e-05
4410.0 3.9247e-05
4430.0 3.3225e-05
4450.0 3.053e-05
4470.0 2.3433e-05
4490.0 2.5287e-05
4510.0 3.8197e-05
4530.0 4.4052e-05
4550.0 4.4434e-05
4570.0 5e-05
4590.0 5.6955e-05
4610.0 7.6819e-05
4630.0 9.9771e-05
4650.0 0.0001082
4670.0 0.0001002
4690.0 9.5613e-05
4710.0 0.00010107
4730.0 9.5381e-05
4750.0 7.131e-05
4770.0 5.2308e-05
4790.0 4.8845e-05
4810.0 4.6558e-05
4830.0 4.2623e-05
4850.0 4.6771e-05
4870.0 6.179e-05
4890.0 7.2868e-05
4910.0 6.3932e-05
4930.0 5.6571e-05
4950.0 6.2151e-05
4970.0 7.9705e-05
4990.0 0.00010802
5010.0 0.00012426
5030.0 0.00010957
5050.0 7.4132e-05
5070.0 4.8856e-05
5090.0 3.9395e-05
5110.0 4.0514e-05
5130.0 4.6759e-05
5150.0 5.066e-05
5170.0 4.99e-05
5190.0 4.6628e-05
5210.0 4.8737e-05
5230.0 5.1234e-05
5250.0 5.5217e-05
5270.0 5.9575e-05
5290.0 6.6022e-05
5310.0 7.6848e-05
5330.0 8.5043e-05
5350.0 8.4501e-05
5370.0 8.8761e-05
5390.0 0.00010186
5410.0 0.00010176
5430.0 8.9997e-05
5450.0 8.2687e-05
5470.0 8.78e-05
5490.0 0.00010727
5510.0 0.00013412
5530.0 0.00015383
5550.0 0.00014868
5570.0 0.00013516
5590.0 0.00011753
5610.0 0.00010839
5630.0 0.0001051
5650.0 0.0001001
5670.0 9.4854e-05
5690.0 8.48e-05
5710.0 8.2682e-05
5730.0 7.6164e-05
5750.0 5.37e-05
5770.0 4.1895e-05
5790.0 4.7477e-05
5810.0 5.361e-05
5830.0 6.5787e-05
5850.0 7.8313e-05
5870.0 8.6889e-05
5890.0 8.8362e-05
5910.0 8.669e-05
5930.0 8.2519e-05
5950.0 8.4087e-05
5970.0 9.585e-05
5990.0 9.0125e-05
6010.0 7.5552e-05
6030.0 6.383e-05
6050.0 5.5588e-05
6070.0 5.5284e-05
6090.0 5.9947e-05
6110.0 6.703e-05
6130.0 6.8057e-05
6150.0 5.8557e-05
6170.0 5.1512e-05
6190.0 5.7969e-05
6210.0 7.6634e-05
6230.0 0.00010057
6250.0 0.00010893
6270.0 9.5188e-05
6290.0 8.0086e-05
6310.0 6.2521e-05
6330.0 4.7903e-05
6350.0 4.2728e-05
6370.0 4.4933e-05
6390.0 5.1946e-05
6410.0 6.4051e-05
6430.0 7.4794e-05
6450.0 8.5584e-05
6470.0 9.7996e-05
6490.0 0.00011837
6510.0 0.00013236
6530.0 0.00012985
6550.0 0.00011742
6570.0 9.9677e-05
6590.0 8.9882e-05
6610.0 7.7501e-05
6630.0 7.0213e-05
6650.0 6.6372e-05
6670.0 6.4479e-05
6690.0 5.826e-05
6710.0 5.2959e-05
6730.0 3.8146e-05
6750.0 3.7818e-05
6770.0 4.1105e-05
6790.0 4.7247e-05
6810.0 4.3232e-05
6830.0 4.4517e-05
6850.0 4.1638e-05
6870.0 3.8036e-05
6890.0 3.652e-05
6910.0 3.8917e-05
6930.0 3.6451e-05
6950.0 3.7502e-05
6970.0 3.9446e-05
6990.0 4.4774e-05
7010.0 4.5155e-05
7030.0 4.5873e-05
7050.0 4.3747e-05
7070.0 4.1683e-05
7090.0 4.1805e-05
7110.0 4.3014e-05
7130.0 4.629e-05
7150.0 4.9164e-05
7170.0 5.4249e-05
7190.0 5.9635e-05
7210.0 5.8599e-05
7230.0 6.0241e-05
7250.0 6.4738e-05
7270.0 7.0549e-05
7290.0 8.3734e-05
7310.0 9.086e-05
7330.0 8.7823e-05
7350.0 7.9431e-05
7370.0 6.9112e-05
7390.0 6.7047e-05
7410.0 7.1251e-05
7430.0 7.9186e-05
7450.0 8.6248e-05
7470.0 8.5456e-05
7490.0 7.792e-05
7510.0 8.8263e-05
7530.0 8.7297e-05
7550.0 7.8464e-05
7570.0 6.1295e-05
7590.0 4.2138e-05
7610.0 3.6167e-05
7630.0 4.1092e-05
7650.0 4.8586e-05
7670.0 6.0469e-05
7690.0 6.6541e-05
7710.0 6.9343e-05
7730.0 7.2871e-05
7750.0 8.1806e-05
7770.0 8.3092e-05
7790.0 7.6323e-05
7810.0 6.964e-05
7830.0 7.1815e-05
7850.0 6.981e-05
7870.0 6.4004e-05
7890.0 5.3776e-05
7910.0 4.3712e-05
7930.0 4.1738e-05
7950.0 3.8025e-05
7970.0 3.5199e-05
7990.0 3.4998e-05
8010.0 2.5932e-06
8030.0 2.5593e-06
8050.0 2.5249e-06
8070.0 2.5582e-06
8090.0 2.749e-06
8110.0 2.7021e-06
8130.0 2.2284e-06
8150.0 2.1703e-06
8170.0 1.869e-06
8190.0 1.7709e-06
8210.0 2.3005e-06
8230.0 2.5614e-06
8250.0 2.3078e-06
8270.0 2.0085e-06
8290.0 1.9585e-06
8310.0 1.5075e-06
8330.0 1.016e-06
8350.0 7.2107e-07
8370.0 4.5405e-07
8390.0 8.3043e-07
8410.0 9.6765e-07
8430.0 1.1928e-06
8450.0 1.4006e-06
8470.0 1.7412e-06
8490.0 1.7287e-06
8510.0 1.7003e-06
8530.0 1.7741e-06
8550.0 2.3944e-06
8570.0 2.8351e-06
8590.0 3.0582e-06
8610.0 3.8635e-06
8630.0 4.654e-06
8650.0 4.8675e-06
8670.0 5.1731e-06
8690.0 5.2031e-06
8710.0 4.7119e-06
8730.0 4.3831e-06
8750.0 3.8687e-06
8770.0 3.6706e-06
8790.0 3.6064e-06
8810.0 3.456e-06
8830.0 2.763e-06
8850.0 2.0223e-06
8870.0 1.5484e-06
8890.0 1.5144e-06
8910.0 1.7359e-06
8930.0 1.9747e-06
8950.0 2.0126e-06
8970.0 2.0221e-06
8990.0 1.8031e-06
9010.0 1.8882e-05
9030.0 1.7109e-05
9050.0 1.7192e-05
9070.0 1.7327e-05
9090.0 1.7447e-05
9110.0 1.7593e-05
9130.0 1.7707e-05
9150.0 1.7795e-05
9170.0 1.7889e-05
9190.0 1.799e-05
9210.0 1.8095e-05
9230.0 1.8207e-05
9250.0 1.832e-05
9270.0 1.8438e-05
9290.0 1.8559e-05
9310.0 1.8681e-05
9330.0 1.8805e-05
9350.0 1.8934e-05
9370.0 1.9064e-05
9390.0 1.9196e-05
9410.0 1.9332e-05
9430.0 1.9471e-05
9450.0 1.961e-05
9470.0 1.9752e-05
9490.0 1.9898e-05
9510.0 2.0046e-05
9530.0 2.0195e-05
9550.0 2.0349e-05
9570.0 2.0505e-05
9590.0 2.0662e-05
9610.0 2.0821e-05
9630.0 2.0985e-05
9650.0 2.115e-05
9670.0 2.1316e-05
9690.0 2.1486e-05
9710.0 2.1658e-05
9730.0 2.1831e-05
9750.0 2.2007e-05
9770.0 2.2187e-05
9790.0 2.2368e-05
9810.0 2.2549e-05
9830.0 2.2734e-05
9850.0 2.2922e-05
9870.0 2.3109e-05
9890.0 2.3298e-05
9910.0 2.3492e-05
9930.0 2.3685e-05
9950.0 2.388e-05
9970.0 2.4078e-05
9990.0 2.4278e-05
10010.0 2.1067e-05
10030.0 2.124e-05
10050.0 2.1416e-05
10070.0 2.1599e-05
10090.0 2.1771e-05
10110.0 2.1947e-05
10130.0 2.2124e-05
10150.0 2.2301e-05
10170.0 2.2479e-05
10190.0 2.2661e-05
10210.0 2.2841e-05
10230.0 2.302e-05
10250.0 2.3202e-05
10270.0 2.3383e-05
10290.0 2.3563e-05
10310.0 2.3744e-05
10330.0 2.3928e-05
10350.0 2.4109e-05
10370.0 2.4288e-05
10390.0 2.447e-05
10410.0 2.4651e-05
10430.0 2.4829e-05
10450.0 2.5008e-05
10470.0 2.5188e-05
10490.0 2.5365e-05
10510.0 2.554e-05
10530.0 2.5719e-05
10550.0 2.5894e-05
10570.0 2.6066e-05
10590.0 2.6239e-05
10610.0 2.6411e-05
10630.0 2.658e-05
10650.0 2.6747e-05
10670.0 2.6915e-05
10690.0 2.7081e-05
10710.0 2.7242e-05
10730.0 2.7405e-05
10750.0 2.7567e-05
10770.0 2.7723e-05
10790.0 2.7877e-05
10810.0 2.8032e-05
10830.0 2.8181e-05
10850.0 2.8323e-05
10870.0 2.8461e-05
10890.0 2.8582e-05
10910.0 2.8675e-05
10930.0 2.8728e-05
10950.0 2.8715e-05
10970.0 2.8618e-05
10990.0 2.8427e-05
11010.0 2.8106e-05
11030.0 2.7659e-05
11050.0 2.7115e-05
11070.0 2.6463e-05
11090.0 2.568e-05
11110.0 2.487e-05
11130.0 2.4025e-05
11150.0 2.3116e-05
11170.0 2.2178e-05
11190.0 2.1269e-05
11210.0 2.0329e-05
11230.0 1.9366e-05
11250.0 1.8446e-05
11270.0 1.7562e-05
11290.0 1.6677e-05
11310.0 1.5838e-05
11330.0 1.51e-05
11350.0 1.4402e-05
11370.0 1.3757e-05
11390.0 1.3199e-05
11410.0 1.2711e-05
11430.0 1.2258e-05
11450.0 1.1867e-05
11470.0 1.1529e-05
11490.0 1.1215e-05
11510.0 1.0912e-05
11530.0 1.0631e-05
11550.0 1.0352e-05
11570.0 1.0054e-05
11590.0 9.7452e-06
11610.0 9.4313e-06
11630.0 9.0895e-06
11650.0 8.7236e-06
11670.0 8.363e-06
11690.0 7.9973e-06
11710.0 7.62e-06
11730.0 7.2544e-06
11750.0 6.9161e-06
11770.0 6.5843e-06
11790.0 6.2734e-06
11810.0 5.9997e-06
11830.0 5.7549e-06
11850.0 5.5294e-06
11870.0 5.3408e-06
11890.0 5.184e-06
11910.0 5.0462e-06
11930.0 4.9278e-06
11950.0 4.8292e-06
11970.0 4.7411e-06
11990.0 4.6578e-06
12010.0 4.5808e-06
12030.0 4.5065e-06
12050.0 4.4298e-06
12070.0 4.3499e-06
12090.0 4.273e-06
12110.0 4.1948e-06
12130.0 4.1165e-06
12150.0 4.0444e-06
12170.0 3.9813e-06
12190.0 3.9269e-06
12210.0 3.8888e-06
12230.0 3.8705e-06
12250.0 3.8734e-06
12270.0 3.9026e-06
12290.0 3.9578e-06
12310.0 4.037e-06
12330.0 4.1478e-06
12350.0 4.2861e-06
12370.0 4.4436e-06
12390.0 4.6251e-06
12410.0 4.8378e-06
12430.0 5.054e-06
12450.0 5.2779e-06
12470.0 5.516e-06
12490.0 5.7551e-06
12510.0 5.9794e-06
12530.0 6.2025e-06
12550.0 6.4178e-06
12570.0 6.6078e-06
12590.0 6.7747e-06
12610.0 6.9233e-06
12630.0 7.0418e-06
12650.0 7.1236e-06
12670.0 7.1774e-06
12690.0 7.1989e-06
12710.0 7.1871e-06
12730.0 7.1454e-06
12750.0 7.071e-06
12770.0 6.969e-06
12790.0 6.8454e-06
12810.0 6.6977e-06
12830.0 6.5268e-06
12850.0 6.3481e-06
12870.0 6.1591e-06
12890.0 5.9546e-06
12910.0 5.7468e-06
12930.0 5.5419e-06
12950.0 5.3282e-06
12970.0 5.1106e-06
12990.0 4.9047e-06
13010.0 4.7014e-06
13030.0 4.4958e-06
13050.0 4.2984e-06
13070.0 4.1134e-06
13090.0 3.9278e-06
13110.0 3.7483e-06
13130.0 3.5827e-06
13150.0 3.4259e-06
13170.0 3.2724e-06
13190.0 3.1358e-06
13210.0 3.0156e-06
13230.0 2.9057e-06
13250.0 2.811e-06
13270.0 2.7364e-06
13290.0 2.6783e-06
13310.0 2.6383e-06
13330.0 2.6201e-06
13350.0 2.6222e-06
13370.0 2.6457e-06
13390.0 2.692e-06
13410.0 2.7544e-06
13430.0 2.8356e-06
13450.0 2.9358e-06
13470.0 3.0471e-06
13490.0 3.165e-06
13510.0 3.298e-06
13530.0 3.4327e-06
13550.0 3.5617e-06
13570.0 3.6889e-06
13590.0 3.8129e-06
13610.0 3.9232e-06
13630.0 4.0195e-06
13650.0 4.1074e-06
13670.0 4.1803e-06
13690.0 4.2368e-06
13710.0 4.2804e-06
13730.0 4.3116e-06
13750.0 4.3271e-06
13770.0 4.3307e-06
13790.0 4.3228e-06
13810.0 4.3037e-06
13830.0 4.2755e-06
13850.0 4.2373e-06
13870.0 4.1892e-06
13890.0 4.1341e-06
13910.0 4.072e-06
13930.0 4.0001e-06
13950.0 3.9216e-06
13970.0 3.8414e-06
13990.0 3.754e-06
14010.0 3.6611e-06
14030.0 3.5684e-06
14050.0 3.475e-06
14070.0 3.3764e-06
14090.0 3.2819e-06
14110.0 3.1931e-06
14130.0 3.107e-06
14150.0 3.026e-06
14170.0 2.9568e-06
14190.0 2.897e-06
14210.0 2.8463e-06
14230.0 2.8088e-06
14250.0 2.7845e-06
14270.0 2.7727e-06
14290.0 2.7752e-06
14310.0 2.7907e-06
14330.0 2.8185e-06
14350.0 2.8593e-06
14370.0 2.9103e-06
14390.0 2.9681e-06
14410.0 3.0362e-06
14430.0 3.111e-06
14450.0 3.1874e-06
14470.0 3.2667e-06
14490.0 3.351e-06
14510.0 3.4316e-06
14530.0 3.5081e-06
14550.0 3.5847e-06
14570.0 3.6581e-06
14590.0 3.725e-06
14610.0 3.7897e-06
14630.0 3.8537e-06
14650.0 3.9133e-06
14670.0 3.9709e-06
14690.0 4.0309e-06
14710.0 4.094e-06
14730.0 4.1571e-06
14750.0 4.227e-06
14770.0 4.3063e-06
14790.0 4.3923e-06
14810.0 4.4855e-06
14830.0 4.5958e-06
14850.0 4.7158e-06
14870.0 4.841e-06
14890.0 4.976e-06
14910.0 5.1194e-06
14930.0 5.2573e-06
14950.0 5.3862e-06
14970.0 5.5082e-06
14990.0 5.6105e-06
15010.0 5.6887e-06
15030.0 5.7466e-06
15050.0 5.785e-06
15070.0 5.8037e-06
15090.0 5.8102e-06
15110.0 5.8083e-06
15130.0 5.801e-06
15150.0 5.7912e-06
15170.0 5.7796e-06
15190.0 5.7672e-06
15210.0 5.7549e-06
15230.0 5.7427e-06
15250.0 5.73e-06
15270.0 5.7175e-06
15290.0 5.7056e-06
15310.0 5.6934e-06
15330.0 5.6811e-06
15350.0 5.6692e-06
15370.0 5.6575e-06
15390.0 5.6451e-06
15410.0 5.6332e-06
15430.0 5.6217e-06
15450.0 5.6098e-06
15470.0 5.5978e-06
15490.0 5.5864e-06
15510.0 5.575e-06
15530.0 5.5632e-06
15550.0 5.5517e-06
15570.0 5.5406e-06
15590.0 5.529e-06
15610.0 5.5172e-06
15630.0 5.5062e-06
15650.0 5.495e-06
15670.0 5.4835e-06
15690.0 5.4723e-06
15710.0 5.4615e-06
15730.0 5.4502e-06
15750.0 5.4388e-06
15770.0 5.428e-06
15790.0 5.417e-06
15810.0 5.4055e-06
15830.0 5.3945e-06
15850.0 5.3839e-06
15870.0 5.3728e-06
15890.0 5.3617e-06
15910.0 5.3511e-06
15930.0 5.3402e-06
15950.0 5.329e-06
15970.0 5.3182e-06
15990.0 5.3075e-06
16010.0 5.2965e-06
16030.0 5.2853e-06
16050.0 5.2749e-06
16070.0 5.2642e-06
16090.0 5.2531e-06
16110.0 5.2424e-06
16130.0 5.232e-06
16150.0 5.2208e-06
16170.0 5.2098e-06
16190.0 5.1993e-06
16210.0 5.1885e-06
16230.0 5.1774e-06
16250.0 5.1667e-06
16270.0 5.1563e-06
16290.0 5.1452e-06
16310.0 5.1343e-06
16330.0 5.1238e-06
16350.0 5.113e-06
16370.0 5.1016e-06
16390.0 5.091e-06
16410.0 5.0804e-06
16430.0 5.0693e-06
16450.0 5.0584e-06
16470.0 5.0479e-06
16490.0 5.0369e-06
16510.0 5.0257e-06
16530.0 5.0149e-06
16550.0 5.0042e-06
16570.0 4.9929e-06
16590.0 4.9817e-06
16610.0 4.9711e-06
16630.0 4.9601e-06
16650.0 4.9488e-06
16670.0 4.938e-06
16690.0 4.9272e-06
16710.0 4.9156e-06
16730.0 4.9045e-06
16750.0 4.8936e-06
16770.0 4.8823e-06
16790.0 4.8708e-06
16810.0 4.8599e-06
16830.0 4.8489e-06
16850.0 4.8374e-06
16870.0 4.8261e-06
16890.0 4.8151e-06
16910.0 4.8036e-06
16930.0 4.7918e-06
16950.0 4.7807e-06
16970.0 4.7694e-06
16990.0 4.7577e-06
17010.0 4.7463e-06
17030.0 4.7351e-06
17050.0 4.7234e-06
17070.0 4.7116e-06
17090.0 4.7003e-06
17110.0 4.6888e-06
17130.0 4.6766e-06
17150.0 4.665e-06
17170.0 4.6536e-06
17190.0 4.6418e-06
17210.0 4.6298e-06
17230.0 4.6184e-06
17250.0 4.6066e-06
17270.0 4.5944e-06
17290.0 4.5825e-06
17310.0 4.5709e-06
17330.0 4.5587e-06
17350.0 4.5464e-06
17370.0 4.5348e-06
17390.0 4.5228e-06
17410.0 4.5105e-06
17430.0 4.4986e-06
17450.0 4.4868e-06
17470.0 4.4741e-06
17490.0 4.4618e-06
17510.0 4.4499e-06
17530.0 4.4376e-06
17550.0 4.425e-06
17570.0 4.4129e-06
17590.0 4.4009e-06
17610.0 4.3882e-06
17630.0 4.3758e-06
17650.0 4.3636e-06
17670.0 4.3512e-06
17690.0 4.3381e-06
17710.0 4.3259e-06
17730.0 4.3136e-06
17750.0 4.3008e-06
17770.0 4.2881e-06
17790.0 4.276e-06
17810.0 4.2632e-06
17830.0 4.2502e-06
17850.0 4.2377e-06
17870.0 4.2251e-06
17890.0 4.212e-06
17910.0 4.1991e-06
17930.0 4.1867e-06
17950.0 4.1739e-06
17970.0 4.1608e-06
17990.0 4.1482e-06
18010.0 4.1355e-06
18030.0 4.1221e-06
18050.0 4.1092e-06
18070.0 4.0965e-06
18090.0 4.0834e-06
18110.0 4.0701e-06
18130.0 4.0574e-06
18150.0 4.0445e-06
18170.0 4.0312e-06
18190.0 4.0182e-06
18210.0 4.0054e-06
18230.0 3.992e-06
18250.0 3.9785e-06
18270.0 3.9657e-06
18290.0 3.9526e-06
18310.0 3.9392e-06
18330.0 3.9261e-06
18350.0 3.9132e-06
18370.0 3.8997e-06
18390.0 3.8863e-06
18410.0 3.8733e-06
18430.0 3.8601e-06
18450.0 3.8463e-06
18470.0 3.8331e-06
18490.0 3.8201e-06
18510.0 3.8066e-06
18530.0 3.7931e-06
18550.0 3.7802e-06
18570.0 3.7668e-06
18590.0 3.753e-06
18610.0 3.7397e-06
18630.0 3.7265e-06
18650.0 3.7129e-06
18670.0 3.6992e-06
18690.0 3.6862e-06
18710.0 3.6728e-06
18730.0 3.6591e-06
18750.0 3.6458e-06
18770.0 3.6327e-06
18790.0 3.6187e-06
18810.0 3.6051e-06
18830.0 3.592e-06
18850.0 3.5784e-06
18870.0 3.5647e-06
18890.0 3.5514e-06
18910.0 3.5382e-06
18930.0 3.5244e-06
18950.0 3.5108e-06
18970.0 3.4976e-06
18990.0 3.484e-06
19010.0 3.4699e-06
19030.0 3.4567e-06
19050.0 3.4434e-06
19070.0 3.4297e-06
19090.0 3.4161e-06
19110.0 3.403e-06
19130.0 3.3893e-06
19150.0 3.3755e-06
19170.0 3.3621e-06
19190.0 3.3487e-06
19210.0 3.3349e-06
19230.0 3.3212e-06
19250.0 3.3081e-06
19270.0 3.2945e-06
19290.0 3.2808e-06
19310.0 3.2675e-06
19330.0 3.2542e-06
19350.0 3.2402e-06
19370.0 3.2267e-06
19390.0 3.2134e-06
19410.0 3.1998e-06
19430.0 3.186e-06
19450.0 3.1729e-06
19470.0 3.1595e-06
19490.0 3.1457e-06
19510.0 3.1323e-06
19530.0 3.1191e-06
19550.0 3.1053e-06
19570.0 3.0915e-06
19590.0 3.0784e-06
19610.0 3.065e-06
19630.0 3.0513e-06
19650.0 3.0379e-06
19670.0 3.0248e-06
19690.0 3.0111e-06
19710.0 2.9975e-06
19730.0 2.9843e-06
19750.0 2.9709e-06
19770.0 2.9571e-06
19790.0 2.9438e-06
19810.0 2.9307e-06
19830.0 2.917e-06
19850.0 2.9033e-06
19870.0 2.8899e-06
19890.0 2.8755e-06
19910.0 2.8596e-06
19930.0 2.8426e-06
19950.0 2.8232e-06
19970.0 2.7993e-06
19990.0 2.7706e-06
20010.0 2.4649e-06
20030.0 2.4293e-06
20050.0 2.3875e-06
20070.0 2.3423e-06
20090.0 2.2936e-06
20110.0 2.2386e-06
20130.0 2.1828e-06
20150.0 2.1276e-06
20170.0 2.0703e-06
20190.0 2.0123e-06
20210.0 1.9574e-06
20230.0 1.9039e-06
20250.0 1.8503e-06
20270.0 1.8005e-06
20290.0 1.7551e-06
20310.0 1.7119e-06
20330.0 1.6716e-06
20350.0 1.6381e-06
20370.0 1.6084e-06
20390.0 1.5823e-06
20410.0 1.5612e-06
20430.0 1.545e-06
20450.0 1.5321e-06
20470.0 1.5235e-06
20490.0 1.5189e-06
20510.0 1.5176e-06
20530.0 1.5194e-06
20550.0 1.5241e-06
20570.0 1.5309e-06
20590.0 1.5402e-06
20610.0 1.5514e-06
20630.0 1.5637e-06
20650.0 1.5775e-06
20670.0 1.5932e-06
20690.0 1.6093e-06
20710.0 1.6259e-06
20730.0 1.6438e-06
20750.0 1.6626e-06
20770.0 1.6809e-06
20790.0 1.7003e-06
20810.0 1.7207e-06
20830.0 1.741e-06
20850.0 1.7615e-06
20870.0 1.7833e-06
20890.0 1.8056e-06
20910.0 1.8272e-06
20930.0 1.8495e-06
20950.0 1.8726e-06
20970.0 1.8951e-06
20990.0 1.9174e-06
21010.0 1.9408e-06
21030.0 1.9637e-06
21050.0 1.9855e-06
21070.0 2.0073e-06
21090.0 2.0291e-06
21110.0 2.0491e-06
21130.0 2.0678e-06
21150.0 2.0859e-06
21170.0 2.1024e-06
21190.0 2.1165e-06
21210.0 2.1292e-06
21230.0 2.1398e-06
21250.0 2.1473e-06
21270.0 2.1521e-06
21290.0 2.1539e-06
21310.0 2.1522e-06
21330.0 2.1471e-06
21350.0 2.1382e-06
21370.0 2.1251e-06
21390.0 2.1084e-06
21410.0 2.0881e-06
21430.0 2.0623e-06
21450.0 2.0333e-06
21470.0 2.0017e-06
21490.0 1.9661e-06
21510.0 1.9269e-06
21530.0 1.8872e-06
21550.0 1.8455e-06
21570.0 1.8011e-06
21590.0 1.7574e-06
21610.0 1.7152e-06
21630.0 1.6729e-06
21650.0 1.6316e-06
21670.0 1.5958e-06
21690.0 1.5628e-06
21710.0 1.5331e-06
21730.0 1.5087e-06
21750.0 1.4899e-06
21770.0 1.4756e-06
21790.0 1.4674e-06
21810.0 1.4651e-06
21830.0 1.4683e-06
21850.0 1.4775e-06
21870.0 1.4918e-06
21890.0 1.5103e-06
21910.0 1.534e-06
21930.0 1.5619e-06
21950.0 1.592e-06
21970.0 1.6254e-06
21990.0 1.6629e-06
22010.0 1.7003e-06
22030.0 1.7383e-06
22050.0 1.7783e-06
22070.0 1.8184e-06
22090.0 1.8565e-06
22110.0 1.8948e-06
22130.0 1.9331e-06
22150.0 1.9688e-06
22170.0 2.0025e-06
22190.0 2.0359e-06
22210.0 2.067e-06
22230.0 2.0943e-06
22250.0 2.1201e-06
22270.0 2.1438e-06
22290.0 2.1641e-06
22310.0 2.1815e-06
22330.0 2.1968e-06
22350.0 2.2086e-06
22370.0 2.217e-06
22390.0 2.2222e-06
22410.0 2.2239e-06
22430.0 2.2217e-06
22450.0 2.216e-06
22470.0 2.2061e-06
22490.0 2.1922e-06
22510.0 2.1749e-06
22530.0 2.1528e-06
22550.0 2.1258e-06
22570.0 2.0959e-06
22590.0 2.0622e-06
22610.0 2.0234e-06
22630.0 1.9814e-06
