#lamb flux
1010.0 3.4347e-05
1030.0 4.1243e-05
1050.0 4.7718e-05
1070.0 5.3118e-05
1090.0 5.6979e-05
1110.0 5.7606e-05
1130.0 5.4506e-05
1150.0 4.7555e-05
1170.0 3.6581e-05
1190.0 2.2487e-05
1210.0 2.3063e-05
1230.0 2.3662e-05
1250.0 2.4253e-05
1270.0 2.4827e-05
1290.0 2.5429e-05
1310.0 2.6024e-05
1330.0 2.6587e-05
1350.0 2.7143e-05
1370.0 2.7703e-05
1390.0 2.8232e-05
1410.0 2.8728e-05
1430.0 2.9229e-05
1450.0 2.9713e-05
1470.0 3.0162e-05
1490.0 3.0602e-05
1510.0 6.8859e-05
1530.0 0.00012506
1550.0 0.00018461
1570.0 0.00024581
1590.0 0.00030842
1610.0 0.00037084
1630.0 0.00043301
1650.0 0.0004944
1670.0 0.00055359
1690.0 0.0006104
1710.0 0.00066549
1730.0 0.00071823
1750.0 0.00076719
1770.0 0.00081411
1790.0 0.00085895
1810.0 0.00090068
1830.0 0.00093969
1850.0 0.00097782
1870.0 0.0010133
1890.0 0.0010461
1910.0 0.0010774
1930.0 0.0011076
1950.0 0.0011351
1970.0 0.0011607
1990.0 0.0011857
2010.0 0.001209
2030.0 0.00123
2050.0 0.0012506
2070.0 0.0012705
2090.0 0.0012879
2110.0 0.0013042
2130.0 0.0013202
2150.0 0.0013348
2170.0 0.0013477
2190.0 0.0013606
2210.0 0.0013729
2230.0 0.0013839
2250.0 0.0013942
2270.0 0.0014051
2290.0 0.0014151
2310.0 0.001424
2330.0 0.0014334
2350.0 0.0014429
2370.0 0.0014516
2390.0 0.0014605
2410.0 0.0014707
2430.0 0.0014808
2450.0 0.0014918
2470.0 0.0015058
2490.0 0.0015248
2510.0 0.0015493
2530.0 0.001585
2550.0 0.0016386
2570.0 0.0017135
2590.0 0.0018143
2610.0 0.0019594
2630.0 0.0021502
2650.0 0.0023799
2670.0 0.0026587
2690.0 0.0029893
2710.0 0.0033426
2730.0 0.0037052
2750.0 0.0040885
2770.0 0.0044599
2790.0 0.004798
2810.0 0.0051097
2830.0 0.0053954
2850.0 0.0056305
2870.0 0.0058339
2890.0 0.0060182
2910.0 0.0061856
2930.0 0.0063404
2950.0 0.006495
2970.0 0.0066511
2990.0 0.006806
3010.0 0.006962
3030.0 0.0071223
3050.0 0.007283
3070.0 0.0074381
3090.0 0.0075942
3110.0 0.0077525
3130.0 0.0079164
3150.0 0.0081593
3170.0 0.0084624
3190.0 0.0088751
3210.0 0.009421
3230.0 0.01013
3250.0 0.010911
3270.0 0.01141
3290.0 0.012601
3310.0 0.015843
3330.0 0.016536
3350.0 0.016602
3370.0 0.016627
3390.0 0.016654
3410.0 0.016706
3430.0 0.016777
3450.0 0.016853
3470.0 0.016912
3490.0 0.016996
3510.0 0.017202
3530.0 0.017076
3550.0 0.016415
3570.0 0.015845
3590.0 0.015932
3610.0 0.016872
3630.0 0.01633
3650.0 0.01523
3670.0 0.014177
3690.0 0.013914
3710.0 0.014436
3730.0 0.014862
3750.0 0.015048
3770.0 0.015567
3790.0 0.016192
3810.0 0.015725
3830.0 0.01481
3850.0 0.014244
3870.0 0.0141
3890.0 0.013841
3910.0 0.013514
3930.0 0.013576
3950.0 0.01414
3970.0 0.01481
3990.0 0.015399
4010.0 0.015018
4030.0 0.014586
4050.0 0.01451
4070.0 0.014509
4090.0 0.014498
4110.0 0.01429
4130.0 0.013829
4150.0 0.013401
4170.0 0.013318
4190.0 0.012734
4210.0 0.011977
4230.0 0.011104
4250.0 0.010276
4270.0 0.0097593
4290.0 0.0092687
4310.0 0.0091672
4330.0 0.0094741
4350.0 0.0096126
4370.0 0.010031
4390.0 0.010599
4410.0 0.011121
4430.0 0.010916
4450.0 0.010262
4470.0 0.0097389
4490.0 0.0094716
4510.0 0.009403
4530.0 0.0094763
4550.0 0.0095659
4570.0 0.0097213
4590.0 0.010021
4610.0 0.010618
4630.0 0.011028
4650.0 0.011342
4670.0 0.011168
4690.0 0.010649
4710.0 0.01007
4730.0 0.0097468
4750.0 0.0095349
4770.0 0.0097436
4790.0 0.00968
4810.0 0.0094545
4830.0 0.0097179
4850.0 0.0097841
4870.0 0.0101
4890.0 0.0096491
4910.0 0.0091458
4930.0 0.0084856
4950.0 0.0078445
4970.0 0.0071996
4990.0 0.006667
5010.0 0.0066012
5030.0 0.006768
5050.0 0.0066599
5070.0 0.006808
5090.0 0.0070924
5110.0 0.0070533
5130.0 0.0070061
5150.0 0.0069676
5170.0 0.007011
5190.0 0.0071188
5210.0 0.0069365
5230.0 0.0068017
5250.0 0.0066513
5270.0 0.0064695
5290.0 0.0063945
5310.0 0.0063487
5330.0 0.0061181
5350.0 0.0060444
5370.0 0.0058827
5390.0 0.0056831
5410.0 0.0055792
5430.0 0.0054333
5450.0 0.0055659
5470.0 0.0056281
5490.0 0.005519
5510.0 0.005662
5530.0 0.0056984
5550.0 0.0057936
5570.0 0.0057299
5590.0 0.0055176
5610.0 0.0054686
5630.0 0.0055496
5650.0 0.0054813
5670.0 0.0053749
5690.0 0.0052009
5710.0 0.0052757
5730.0 0.0053359
5750.0 0.0051349
5770.0 0.0049254
5790.0 0.0044751
5810.0 0.0038673
5830.0 0.0042852
5850.0 0.0049429
5870.0 0.0051764
5890.0 0.0052819
5910.0 0.0053364
5930.0 0.0054305
5950.0 0.0053924
5970.0 0.0054077
5990.0 0.0053807
6010.0 0.0053186
6030.0 0.0052025
6050.0 0.0052178
6070.0 0.0053444
6090.0 0.0053187
6110.0 0.0052071
6130.0 0.0051436
6150.0 0.0050116
6170.0 0.0048638
6190.0 0.0048151
6210.0 0.0047086
6230.0 0.0046879
6250.0 0.004666
6270.0 0.0046426
6290.0 0.0046414
6310.0 0.0046336
6330.0 0.0045876
6350.0 0.0045077
6370.0 0.0044622
6390.0 0.0044824
6410.0 0.0043871
6430.0 0.0043398
6450.0 0.0042729
6470.0 0.0042051
6490.0 0.0041678
6510.0 0.0041772
6530.0 0.0040874
6550.0 0.0040239
6570.0 0.0040122
6590.0 0.0039969
6610.0 0.0039852
6630.0 0.0038547
6650.0 0.0037774
6670.0 0.0037596
6690.0 0.0037114
6710.0 0.0036327
6730.0 0.0036078
6750.0 0.0036304
6770.0 0.0038782
6790.0 0.004479
6810.0 0.0041815
6830.0 0.0035638
6850.0 0.0034296
6870.0 0.0033549
6890.0 0.0033365
6910.0 0.0033208
6930.0 0.0033127
6950.0 0.0032524
6970.0 0.0031413
6990.0 0.0030813
7010.0 0.003098
7030.0 0.003059
7050.0 0.0029773
7070.0 0.0029622
7090.0 0.0029911
7110.0 0.003038
7130.0 0.0029878
7150.0 0.0029479
7170.0 0.0029238
7190.0 0.0029534
7210.0 0.0028947
7230.0 0.0028413
7250.0 0.0028407
7270.0 0.0028175
7290.0 0.0027991
7310.0 0.0028418
7330.0 0.0027834
7350.0 0.0026888
7370.0 0.002577
7390.0 0.0024887
7410.0 0.0025189
7430.0 0.0025005
7450.0 0.0024793
7470.0 0.0024378
7490.0 0.0023744
7510.0 0.0023393
7530.0 0.0023077
7550.0 0.002449
7570.0 0.0024267
7590.0 0.0022052
7610.0 0.0021015
7630.0 0.0022249
7650.0 0.0022069
7670.0 0.002261
7690.0 0.0023902
7710.0 0.0024044
7730.0 0.0023373
7750.0 0.0024863
7770.0 0.0023163
7790.0 0.0022007
7810.0 0.0023516
7830.0 0.0023764
7850.0 0.002469
7870.0 0.0024402
7890.0 0.0024642
7910.0 0.0024173
7930.0 0.0024501
7950.0 0.002581
7970.0 0.0025212
7990.0 0.0022827
8010.0 0.0023421
8030.0 0.0023103
8050.0 0.0022683
8070.0 0.0022099
8090.0 0.0020004
8110.0 0.0019998
8130.0 0.0021795
8150.0 0.0022761
8170.0 0.0023108
8190.0 0.0023857
8210.0 0.0023288
8230.0 0.0023074
8250.0 0.0023041
8270.0 0.0022654
8290.0 0.0022203
8310.0 0.0021143
8330.0 0.0021056
8350.0 0.0021479
8370.0 0.002163
8390.0 0.00214
8410.0 0.0021114
8430.0 0.0020649
8450.0 0.0020528
8470.0 0.0021513
8490.0 0.0021712
8510.0 0.0020713
8530.0 0.0020078
8550.0 0.0019926
8570.0 0.0019186
8590.0 0.0018991
8610.0 0.0019318
8630.0 0.0019491
8650.0 0.0019396
8670.0 0.0019293
8690.0 0.0019018
8710.0 0.0018233
8730.0 0.0018069
8750.0 0.0017703
8770.0 0.001775
8790.0 0.0017747
8810.0 0.0017173
8830.0 0.0017178
8850.0 0.0017473
8870.0 0.0016626
8890.0 0.0015843
8910.0 0.0015396
8930.0 0.0014853
8950.0 0.0014308
8970.0 0.0013715
8990.0 0.0013469
9010.0 0.0012907
9030.0 0.0012747
9050.0 0.0012673
9070.0 0.0012602
9090.0 0.0012531
9110.0 0.0012458
9130.0 0.0012385
9150.0 0.0012314
9170.0 0.0012241
9190.0 0.0012168
9210.0 0.0012094
9230.0 0.001202
9250.0 0.0011945
9270.0 0.001187
9290.0 0.0011795
9310.0 0.0011722
9330.0 0.0011652
9350.0 0.0011581
9370.0 0.0011511
9390.0 0.001144
9410.0 0.001137
9430.0 0.0011299
9450.0 0.0011228
9470.0 0.0011164
9490.0 0.0011097
9510.0 0.0011022
9530.0 0.0010949
9550.0 0.0010877
9570.0 0.0010806
9590.0 0.0010735
9610.0 0.0010667
9630.0 0.0010601
9650.0 0.0010534
9670.0 0.0010467
9690.0 0.0010401
9710.0 0.0010335
9730.0 0.0010269
9750.0 0.0010204
9770.0 0.0010139
9790.0 0.0010075
9810.0 0.001001
9830.0 0.00099461
9850.0 0.00098769
9870.0 0.00098059
9890.0 0.0009749
9910.0 0.00096906
9930.0 0.00096214
9950.0 0.00095602
9970.0 0.00095039
9990.0 0.00094462
10010.0 0.00093888
10030.0 0.00093307
10050.0 0.00092721
10070.0 0.00092142
10090.0 0.0009157
10110.0 0.00090995
10130.0 0.00090427
10150.0 0.0008987
10170.0 0.00089317
10190.0 0.00088765
10210.0 0.00088224
10230.0 0.00087692
10250.0 0.0008716
10270.0 0.00086634
10290.0 0.0008612
10310.0 0.00085607
10330.0 0.00085097
10350.0 0.00084599
10370.0 0.00084107
10390.0 0.00083613
10410.0 0.00083079
10430.0 0.00082541
10450.0 0.00082127
10470.0 0.00081687
10490.0 0.0008125
10510.0 0.00080815
10530.0 0.00080366
10550.0 0.00079928
10570.0 0.00079503
10590.0 0.00079075
10610.0 0.00078649
10630.0 0.0007824
10650.0 0.00077835
10670.0 0.00077424
10690.0 0.00077025
10710.0 0.00076638
10730.0 0.0007625
10750.0 0.00075859
10770.0 0.00075491
10790.0 0.00075124
10810.0 0.00074755
10830.0 0.00074396
10850.0 0.00074051
10870.0 0.00073695
10890.0 0.00073344
10910.0 0.00073007
10930.0 0.00072669
10950.0 0.00072321
10970.0 0.00071977
10990.0 0.00071638
11010.0 0.00070866
11030.0 0.00070508
11050.0 0.00070173
11070.0 0.00069839
11090.0 0.00069483
11110.0 0.00069148
11130.0 0.00068816
11150.0 0.00068464
11170.0 0.00068104
11190.0 0.0006776
11210.0 0.000674
11230.0 0.00067025
11250.0 0.00066667
11270.0 0.00066321
11290.0 0.00065964
11310.0 0.00065621
11330.0 0.00065319
11350.0 0.00065025
11370.0 0.00064742
11390.0 0.00064492
11410.0 0.00064268
11430.0 0.00064042
11450.0 0.00063838
11470.0 0.00063657
11490.0 0.00063477
11510.0 0.00063292
11530.0 0.00063123
11550.0 0.00062954
11570.0 0.00062768
11590.0 0.00062577
11610.0 0.00062388
11630.0 0.00062176
11650.0 0.00061944
11670.0 0.00061717
11690.0 0.0006148
11710.0 0.00061219
11730.0 0.00060954
11750.0 0.00060698
11770.0 0.00060422
11790.0 0.00060137
11810.0 0.00059865
11830.0 0.00059594
11850.0 0.00059306
11870.0 0.00059037
11890.0 0.00058789
11910.0 0.0005854
11930.0 0.00058299
11950.0 0.00058086
11970.0 0.00057886
11990.0 0.00057689
12010.0 0.00057518
12030.0 0.00057372
12050.0 0.00057235
12070.0 0.0005711
12090.0 0.00057018
12110.0 0.00056937
12130.0 0.00056864
12150.0 0.00056807
12170.0 0.00056765
12190.0 0.00056718
12210.0 0.00056676
12230.0 0.00056638
12250.0 0.00056593
12270.0 0.00056532
12290.0 0.00056461
12310.0 0.00056378
12330.0 0.00056265
12350.0 0.00056126
12370.0 0.0005597
12390.0 0.00055783
12410.0 0.00055548
12430.0 0.00055302
12450.0 0.00055032
12470.0 0.00054723
12490.0 0.00054389
12510.0 0.00054052
12530.0 0.00053684
12550.0 0.00053286
12570.0 0.0005289
12590.0 0.00052489
12610.0 0.00052059
12630.0 0.00051626
12650.0 0.00051219
12670.0 0.000508
12690.0 0.00050376
12710.0 0.00049976
12730.0 0.00049592
12750.0 0.00049197
12770.0 0.00048828
12790.0 0.00048489
12810.0 0.0004816
12830.0 0.00047843
12850.0 0.00047564
12870.0 0.00047309
12890.0 0.00047067
12910.0 0.00046853
12930.0 0.00046672
12950.0 0.00046507
12970.0 0.00046366
12990.0 0.00046259
13010.0 0.00046176
13030.0 0.00046114
13050.0 0.00046077
13070.0 0.00046061
13090.0 0.00046059
13110.0 0.00046069
13130.0 0.00046088
13150.0 0.00046107
13170.0 0.00046122
13190.0 0.00046127
13210.0 0.00046116
13230.0 0.00046084
13250.0 0.00046025
13270.0 0.00045942
13290.0 0.00045827
13310.0 0.00045674
13330.0 0.00045493
13350.0 0.00045284
13370.0 0.00045038
13390.0 0.00044755
13410.0 0.00044463
13430.0 0.00044141
13450.0 0.00043786
13470.0 0.00043419
13490.0 0.00043044
13510.0 0.00042628
13530.0 0.00042202
13550.0 0.00041778
13570.0 0.00041338
13590.0 0.00040875
13610.0 0.00040419
13630.0 0.00039968
13650.0 0.00039493
13670.0 0.00039017
13690.0 0.00038556
13710.0 0.00038089
13730.0 0.00037602
13750.0 0.00037147
13770.0 0.00036701
13790.0 0.00036249
13810.0 0.00035811
13830.0 0.00035401
13850.0 0.00034991
13870.0 0.00034587
13890.0 0.0003421
13910.0 0.00033849
13930.0 0.00033489
13950.0 0.00033145
13970.0 0.0003283
13990.0 0.00032517
14010.0 0.00032212
14030.0 0.00031928
14050.0 0.00031656
14070.0 0.00031382
14090.0 0.00031125
14110.0 0.00030885
14130.0 0.00030649
14150.0 0.00030419
14170.0 0.00030207
14190.0 0.00030002
14210.0 0.000298
14230.0 0.00029606
14250.0 0.00029423
14270.0 0.00029239
14290.0 0.00029056
14310.0 0.00028884
14330.0 0.00028714
14350.0 0.00028542
14370.0 0.00028374
14390.0 0.00028213
14410.0 0.00028047
14430.0 0.00027882
14450.0 0.00027722
14470.0 0.00027562
14490.0 0.00027398
14510.0 0.00027238
14530.0 0.00027081
14550.0 0.0002692
14570.0 0.00026758
14590.0 0.000266
14610.0 0.00026439
14630.0 0.00026272
14650.0 0.00026109
14670.0 0.00025946
14690.0 0.00025778
14710.0 0.00025607
14730.0 0.00025443
14750.0 0.00025274
14770.0 0.000251
14790.0 0.00024927
14810.0 0.00024757
14830.0 0.00024576
14850.0 0.00024395
14870.0 0.00024219
14890.0 0.00024039
14910.0 0.00023858
14930.0 0.00023683
14950.0 0.00023518
14970.0 0.00023354
14990.0 0.00023202
15010.0 0.00023065
15030.0 0.00022937
15050.0 0.00022816
15070.0 0.00022708
15090.0 0.00022607
15110.0 0.00022508
15130.0 0.00022413
15150.0 0.00022321
15170.0 0.00022229
15190.0 0.00022136
15210.0 0.00022046
15230.0 0.00021957
15250.0 0.00021865
15270.0 0.00021775
15290.0 0.00021688
15310.0 0.00021599
15330.0 0.0002151
15350.0 0.00021424
15370.0 0.00021338
15390.0 0.0002125
15410.0 0.00021163
15430.0 0.00021079
15450.0 0.00020994
15470.0 0.00020908
15490.0 0.00020825
15510.0 0.00020743
15530.0 0.00020659
15550.0 0.00020577
15570.0 0.00020496
15590.0 0.00020414
15610.0 0.00020332
15630.0 0.00020253
15650.0 0.00020174
15670.0 0.00020094
15690.0 0.00020016
15710.0 0.0001994
15730.0 0.00019862
15750.0 0.00019785
15770.0 0.0001971
15790.0 0.00019635
15810.0 0.00019558
15830.0 0.00019484
15850.0 0.00019411
15870.0 0.00019338
15890.0 0.00019265
15910.0 0.00019194
15930.0 0.00019123
15950.0 0.00019051
15970.0 0.00018981
15990.0 0.00018912
16010.0 0.00018842
16030.0 0.00018772
16050.0 0.00018706
16070.0 0.00018639
16090.0 0.00018571
16110.0 0.00018505
16130.0 0.00018441
16150.0 0.00018374
16170.0 0.00018308
16190.0 0.00018245
16210.0 0.00018182
16230.0 0.00018117
16250.0 0.00018055
16270.0 0.00017995
16290.0 0.00017932
16310.0 0.00017871
16330.0 0.00017811
16350.0 0.00017751
16370.0 0.0001769
16390.0 0.00017632
16410.0 0.00017574
16430.0 0.00017515
16450.0 0.00017457
16470.0 0.00017402
16490.0 0.00017345
16510.0 0.00017287
16530.0 0.00017232
16550.0 0.00017177
16570.0 0.00017121
16590.0 0.00017066
16610.0 0.00017013
16630.0 0.0001696
16650.0 0.00016906
16670.0 0.00016854
16690.0 0.00016802
16710.0 0.00016748
16730.0 0.00016697
16750.0 0.00016646
16770.0 0.00016595
16790.0 0.00016543
16810.0 0.00016494
16830.0 0.00016445
16850.0 0.00016395
16870.0 0.00016345
16890.0 0.00016298
16910.0 0.00016249
16930.0 0.00016199
16950.0 0.00016152
16970.0 0.00016105
16990.0 0.00016057
17010.0 0.0001601
17030.0 0.00015965
17050.0 0.00015917
17070.0 0.0001587
17090.0 0.00015825
17110.0 0.0001578
17130.0 0.00015733
17150.0 0.00015688
17170.0 0.00015644
17190.0 0.00015599
17210.0 0.00015554
17230.0 0.00015511
17250.0 0.00015467
17270.0 0.00015422
17290.0 0.00015379
17310.0 0.00015336
17330.0 0.00015292
17350.0 0.00015248
17370.0 0.00015207
17390.0 0.00015164
17410.0 0.00015121
17430.0 0.00015079
17450.0 0.00015038
17470.0 0.00014994
17490.0 0.00014951
17510.0 0.00014911
17530.0 0.00014869
17550.0 0.00014826
17570.0 0.00014786
17590.0 0.00014746
17610.0 0.00014703
17630.0 0.00014662
17650.0 0.00014622
17670.0 0.00014581
17690.0 0.00014538
17710.0 0.00014499
17730.0 0.00014459
17750.0 0.00014418
17770.0 0.00014377
17790.0 0.00014338
17810.0 0.00014297
17830.0 0.00014256
17850.0 0.00014216
17870.0 0.00014177
17890.0 0.00014135
17910.0 0.00014095
17930.0 0.00014056
17950.0 0.00014016
17970.0 0.00013975
17990.0 0.00013936
18010.0 0.00013897
18030.0 0.00013855
18050.0 0.00013815
18070.0 0.00013777
18090.0 0.00013736
18110.0 0.00013695
18130.0 0.00013657
18150.0 0.00013617
18170.0 0.00013576
18190.0 0.00013537
18210.0 0.00013498
18230.0 0.00013457
18250.0 0.00013416
18270.0 0.00013377
18290.0 0.00013337
18310.0 0.00013296
18330.0 0.00013256
18350.0 0.00013218
18370.0 0.00013176
18390.0 0.00013136
18410.0 0.00013096
18430.0 0.00013056
18450.0 0.00013014
18470.0 0.00012974
18490.0 0.00012935
18510.0 0.00012894
18530.0 0.00012853
18550.0 0.00012813
18570.0 0.00012773
18590.0 0.0001273
18610.0 0.0001269
18630.0 0.0001265
18650.0 0.00012608
18670.0 0.00012566
18690.0 0.00012526
18710.0 0.00012485
18730.0 0.00012443
18750.0 0.00012402
18770.0 0.00012362
18790.0 0.00012318
18810.0 0.00012276
18830.0 0.00012236
18850.0 0.00012194
18870.0 0.00012151
18890.0 0.0001211
18910.0 0.00012069
18930.0 0.00012025
18950.0 0.00011983
18970.0 0.00011941
18990.0 0.00011899
19010.0 0.00011854
19030.0 0.00011812
19050.0 0.0001177
19070.0 0.00011726
19090.0 0.00011683
19110.0 0.00011642
19130.0 0.00011598
19150.0 0.00011553
19170.0 0.0001151
19190.0 0.00011467
19210.0 0.00011422
19230.0 0.00011378
19250.0 0.00011336
19270.0 0.00011291
19290.0 0.00011246
19310.0 0.00011203
19330.0 0.00011159
19350.0 0.00011113
19370.0 0.00011068
19390.0 0.00011025
19410.0 0.00010979
19430.0 0.00010933
19450.0 0.00010889
19470.0 0.00010844
19490.0 0.00010798
19510.0 0.00010753
19530.0 0.00010708
19550.0 0.00010661
19570.0 0.00010614
19590.0 0.0001057
19610.0 0.00010524
19630.0 0.00010476
19650.0 0.00010431
19670.0 0.00010386
19690.0 0.00010338
19710.0 0.0001029
19730.0 0.00010245
19750.0 0.00010198
19770.0 0.00010149
19790.0 0.00010102
19810.0 0.00010056
19830.0 0.00010008
19850.0 9.9604e-05
19870.0 9.915e-05
19890.0 9.868e-05
19910.0 9.8207e-05
19930.0 9.7773e-05
19950.0 9.7369e-05
19970.0 9.6985e-05
19990.0 9.6653e-05
20010.0 9.6394e-05
20030.0 9.6178e-05
20050.0 9.6013e-05
20070.0 9.5901e-05
20090.0 9.5824e-05
20110.0 9.5764e-05
20130.0 9.5723e-05
20150.0 9.5692e-05
20170.0 9.5658e-05
20190.0 9.562e-05
20210.0 9.558e-05
20230.0 9.5535e-05
20250.0 9.5476e-05
20270.0 9.5412e-05
20290.0 9.5343e-05
20310.0 9.5262e-05
20330.0 9.5166e-05
20350.0 9.5074e-05
20370.0 9.4971e-05
20390.0 9.4855e-05
20410.0 9.4736e-05
20430.0 9.4618e-05
20450.0 9.4484e-05
20470.0 9.4347e-05
20490.0 9.4216e-05
20510.0 9.4082e-05
20530.0 9.3942e-05
20550.0 9.381e-05
20570.0 9.3687e-05
20590.0 9.3561e-05
20610.0 9.3438e-05
20630.0 9.3327e-05
20650.0 9.3216e-05
20670.0 9.3099e-05
20690.0 9.2991e-05
20710.0 9.2884e-05
20730.0 9.2769e-05
20750.0 9.2646e-05
20770.0 9.2525e-05
20790.0 9.2389e-05
20810.0 9.2235e-05
20830.0 9.2072e-05
20850.0 9.1899e-05
20870.0 9.1697e-05
20890.0 9.1477e-05
20910.0 9.1256e-05
20930.0 9.1015e-05
20950.0 9.0751e-05
20970.0 9.0487e-05
20990.0 9.0219e-05
21010.0 8.9927e-05
21030.0 8.9635e-05
21050.0 8.9352e-05
21070.0 8.9063e-05
21090.0 8.8763e-05
21110.0 8.8485e-05
21130.0 8.8214e-05
21150.0 8.7935e-05
21170.0 8.7664e-05
21190.0 8.7409e-05
21210.0 8.7144e-05
21230.0 8.6873e-05
21250.0 8.6617e-05
21270.0 8.636e-05
21290.0 8.6089e-05
21310.0 8.5816e-05
21330.0 8.5553e-05
21350.0 8.5271e-05
21370.0 8.4976e-05
21390.0 8.4685e-05
21410.0 8.4388e-05
21430.0 8.4058e-05
21450.0 8.3732e-05
21470.0 8.3411e-05
21490.0 8.307e-05
21510.0 8.2715e-05
21530.0 8.2372e-05
21550.0 8.2021e-05
21570.0 8.1648e-05
21590.0 8.1282e-05
21610.0 8.0926e-05
21630.0 8.0554e-05
21650.0 8.0169e-05
21670.0 7.9817e-05
21690.0 7.9459e-05
21710.0 7.909e-05
21730.0 7.8733e-05
21750.0 7.8394e-05
21770.0 7.8031e-05
21790.0 7.7673e-05
21810.0 7.7333e-05
21830.0 7.6991e-05
21850.0 7.6635e-05
21870.0 7.6293e-05
21890.0 7.5967e-05
21910.0 7.5625e-05
21930.0 7.5286e-05
21950.0 7.4966e-05
21970.0 7.4645e-05
21990.0 7.431e-05
22010.0 7.4004e-05
22030.0 7.3714e-05
22050.0 7.3422e-05
22070.0 7.3143e-05
22090.0 7.2896e-05
22110.0 7.2655e-05
22130.0 7.2423e-05
22150.0 7.2218e-05
22170.0 7.2035e-05
22190.0 7.1854e-05
22210.0 7.1693e-05
22230.0 7.1561e-05
22250.0 7.1437e-05
22270.0 7.132e-05
22290.0 7.1223e-05
22310.0 7.1138e-05
22330.0 7.1048e-05
22350.0 7.0969e-05
22370.0 7.0901e-05
22390.0 7.083e-05
22410.0 7.0754e-05
22430.0 7.0689e-05
22450.0 7.0625e-05
22470.0 7.0551e-05
22490.0 7.0478e-05
22510.0 7.0413e-05
22530.0 7.0336e-05
22550.0 7.0255e-05
22570.0 7.0184e-05
22590.0 7.0116e-05
22610.0 7.0041e-05
22630.0 6.9974e-05
22650.0 6.9923e-05
22670.0 6.9869e-05
22690.0 6.9821e-05
22710.0 6.9791e-05
22730.0 6.9773e-05
22750.0 6.9754e-05
22770.0 6.9758e-05
22790.0 6.9781e-05
22810.0 6.9814e-05
22830.0 6.986e-05
22850.0 6.9928e-05
22870.0 7.001e-05
22890.0 7.0102e-05
22910.0 7.0212e-05
22930.0 7.0337e-05
22950.0 7.0473e-05
22970.0 7.062e-05
22990.0 7.0784e-05
23010.0 7.0958e-05
23030.0 7.1142e-05
23050.0 7.134e-05
23070.0 7.1551e-05
23090.0 7.1772e-05
23110.0 7.2009e-05
