#lamb flux
1010.0 2.5838e-06
1030.0 2.8107e-06
1050.0 3.0787e-06
1070.0 3.3803e-06
1090.0 3.7209e-06
1110.0 4.0707e-06
1130.0 4.423e-06
1150.0 4.7923e-06
1170.0 5.173e-06
1190.0 5.5337e-06
1210.0 5.8986e-06
1230.0 6.2747e-06
1250.0 6.6423e-06
1270.0 6.9978e-06
1290.0 7.3719e-06
1310.0 7.7439e-06
1330.0 8.0987e-06
1350.0 8.4561e-06
1370.0 8.8239e-06
1390.0 9.1811e-06
1410.0 9.5268e-06
1430.0 9.8883e-06
1450.0 1.025e-05
1470.0 1.06e-05
1490.0 1.0954e-05
1510.0 1.133e-05
1530.0 1.1687e-05
1550.0 1.2041e-05
1570.0 1.2409e-05
1590.0 1.278e-05
1610.0 1.3137e-05
1630.0 1.3507e-05
1650.0 1.389e-05
1670.0 1.4262e-05
1690.0 1.4632e-05
1710.0 1.5017e-05
1730.0 1.5406e-05
1750.0 1.5773e-05
1770.0 1.6151e-05
1790.0 1.6537e-05
1810.0 1.6909e-05
1830.0 1.7273e-05
1850.0 1.7657e-05
1870.0 1.8027e-05
1890.0 1.838e-05
1910.0 1.8734e-05
1930.0 1.9091e-05
1950.0 1.9424e-05
1970.0 1.9744e-05
1990.0 2.0069e-05
2010.0 2.0379e-05
2030.0 2.0667e-05
2050.0 2.0957e-05
2070.0 2.1246e-05
2090.0 2.1505e-05
2110.0 2.1754e-05
2130.0 2.2006e-05
2150.0 2.2244e-05
2170.0 2.246e-05
2190.0 2.2683e-05
2210.0 2.2903e-05
2230.0 2.3105e-05
2250.0 2.3302e-05
2270.0 2.3511e-05
2290.0 2.3707e-05
2310.0 2.3888e-05
2330.0 2.4079e-05
2350.0 2.4272e-05
2370.0 2.4452e-05
2390.0 2.4638e-05
2410.0 2.4843e-05
2430.0 2.5044e-05
2450.0 2.5248e-05
2470.0 2.5474e-05
2490.0 2.5726e-05
2510.0 2.5994e-05
2530.0 2.6348e-05
2550.0 2.6891e-05
2570.0 2.7733e-05
2590.0 2.9015e-05
2610.0 3.1107e-05
2630.0 3.4129e-05
2650.0 3.7955e-05
2670.0 4.2656e-05
2690.0 4.8075e-05
2710.0 5.3447e-05
2730.0 5.8314e-05
2750.0 6.2567e-05
2770.0 6.5583e-05
2790.0 6.7192e-05
2810.0 6.754e-05
2830.0 6.6655e-05
2850.0 6.4891e-05
2870.0 6.254e-05
2890.0 5.9696e-05
2910.0 5.662e-05
2930.0 5.3577e-05
2950.0 5.038e-05
2970.0 4.7103e-05
2990.0 4.3957e-05
3010.0 5.9457e-05
3030.0 5.4812e-05
3050.0 5.0222e-05
3070.0 4.6002e-05
3090.0 4.178e-05
3110.0 3.7748e-05
3130.0 3.4273e-05
3150.0 3.1928e-05
3170.0 3.0057e-05
3190.0 4.9612e-05
3210.0 0.00013963
3230.0 0.00028546
3250.0 0.00036222
3270.0 0.00031985
3290.0 0.00024551
3310.0 0.00020317
3330.0 0.00019036
3350.0 0.00019547
3370.0 0.00020585
3390.0 0.00021687
3410.0 0.00022802
3430.0 0.00023844
3450.0 0.00024974
3470.0 0.00026204
3490.0 0.00027041
3510.0 0.0002618
3530.0 0.00026741
3550.0 0.00033538
3570.0 0.00042116
3590.0 0.00046509
3610.0 0.00047964
3630.0 0.0004915
3650.0 0.00049084
3670.0 0.0005203
3690.0 0.00062263
3710.0 0.0007378
3730.0 0.00081311
3750.0 0.00086661
3770.0 0.00087722
3790.0 0.00084327
3810.0 0.00077951
3830.0 0.00068152
3850.0 0.00057774
3870.0 0.0005242
3890.0 0.00058639
3910.0 0.00074173
3930.0 0.00089709
3950.0 0.00098942
3970.0 0.0010285
3990.0 0.0010714
4010.0 0.0010962
4030.0 0.00098898
4050.0 0.00078048
4070.0 0.00067353
4090.0 0.00070994
4110.0 0.00078158
4130.0 0.00082181
4150.0 0.00082621
4170.0 0.00080737
4190.0 0.00079364
4210.0 0.00081376
4230.0 0.00086121
4250.0 0.00089981
4270.0 0.00091415
4290.0 0.00090155
4310.0 0.00090736
4330.0 0.00096245
4350.0 0.0010276
4370.0 0.0010228
4390.0 0.00094864
4410.0 0.0008373
4430.0 0.00070096
4450.0 0.00060472
4470.0 0.00060158
4490.0 0.00065711
4510.0 0.00072813
4530.0 0.00080492
4550.0 0.00092516
4570.0 0.0011561
4590.0 0.0014854
4610.0 0.0017546
4630.0 0.0018903
4650.0 0.0020019
4670.0 0.0021104
4690.0 0.0020641
4710.0 0.0018
4730.0 0.0014509
4750.0 0.0011695
4770.0 0.00099975
4790.0 0.0009372
4810.0 0.00093698
4830.0 0.0010025
4850.0 0.0011335
4870.0 0.0012508
4890.0 0.0012891
4910.0 0.0013193
4930.0 0.0014432
4950.0 0.0016103
4970.0 0.0016965
4990.0 0.0016495
5010.0 0.0014774
5030.0 0.0012373
5050.0 0.0010342
5070.0 0.00090991
5090.0 0.00085892
5110.0 0.00085893
5130.0 0.00086722
5150.0 0.00085951
5170.0 0.00084054
5190.0 0.00084982
5210.0 0.00091221
5230.0 0.0010251
5250.0 0.0011947
5270.0 0.0013713
5290.0 0.0014904
5310.0 0.0015849
5330.0 0.0017047
5350.0 0.0017925
5370.0 0.001769
5390.0 0.0016709
5410.0 0.0015981
5430.0 0.0016457
5450.0 0.0018371
5470.0 0.0020728
5490.0 0.0022339
5510.0 0.0022793
5530.0 0.0022436
5550.0 0.0021643
5570.0 0.0020693
5590.0 0.0019801
5610.0 0.0019135
5630.0 0.0018804
5650.0 0.0018343
5670.0 0.0017131
5690.0 0.0015437
5710.0 0.001392
5730.0 0.0012824
5750.0 0.0012398
5770.0 0.0012595
5790.0 0.0012839
5810.0 0.0012859
5830.0 0.0012764
5850.0 0.0012427
5870.0 0.0011944
5890.0 0.0011752
5910.0 0.0011811
5930.0 0.0011534
5950.0 0.0010661
5970.0 0.00093388
5990.0 0.0007875
6010.0 0.00068312
6030.0 0.00065428
6050.0 0.00068989
6070.0 0.00072309
6090.0 0.00069883
6110.0 0.00065931
6130.0 0.00067272
6150.0 0.0007295
6170.0 0.00078164
6190.0 0.00081148
6210.0 0.00082072
6230.0 0.00079834
6250.0 0.00072741
6270.0 0.00062607
6290.0 0.00054273
6310.0 0.0005132
6330.0 0.0005288
6350.0 0.00055594
6370.0 0.00059085
6390.0 0.00066555
6410.0 0.00077782
6430.0 0.00087122
6450.0 0.00091777
6470.0 0.00094355
6490.0 0.00096243
6510.0 0.00097022
6530.0 0.00097541
6550.0 0.00098855
6570.0 0.001005
6590.0 0.0010162
6610.0 0.0010041
6630.0 0.00095903
6650.0 0.00089087
6670.0 0.00082593
6690.0 0.00078409
6710.0 0.00075242
6730.0 0.0007189
6750.0 0.00070283
6770.0 0.00071895
6790.0 0.00074205
6810.0 0.00074919
6830.0 0.0007373
6850.0 0.00070845
6870.0 0.00067905
6890.0 0.00066255
6910.0 0.00066437
6930.0 0.00067563
6950.0 0.00068455
6970.0 0.00069236
6990.0 0.00069018
7010.0 0.00066831
7030.0 0.00062294
7050.0 0.00056385
7070.0 0.00052247
7090.0 0.000517
7110.0 0.00052546
7130.0 0.00050744
7150.0 0.00047125
7170.0 0.00046664
7190.0 0.00050831
7210.0 0.00056671
7230.0 0.00061408
7250.0 0.00063342
7270.0 0.00061968
7290.0 0.00058778
7310.0 0.0005634
7330.0 0.00056429
7350.0 0.0005779
7370.0 0.00058892
7390.0 0.00061426
7410.0 0.00066501
7430.0 0.00072311
7450.0 0.00076822
7470.0 0.00078132
7490.0 0.0007439
7510.0 0.00069261
7530.0 0.00066658
7550.0 0.00063562
7570.0 0.00060234
7590.0 0.00058713
7610.0 0.00059047
7630.0 0.00061382
7650.0 0.00065939
7670.0 0.00071722
7690.0 0.00077046
7710.0 0.00080999
7730.0 0.00084395
7750.0 0.00087267
7770.0 0.00088762
7790.0 0.00090418
7810.0 0.00090858
7830.0 0.00088356
7850.0 0.00085519
7870.0 0.00084028
7890.0 0.00084301
7910.0 0.00084703
7930.0 0.00083044
7950.0 0.00080562
7970.0 0.0007793
7990.0 0.00075676
8010.0 0.00072353
8030.0 0.00072709
8050.0 0.00072818
8070.0 0.0007207
8090.0 0.00071585
8110.0 0.0007069
8130.0 0.00070951
8150.0 0.00070624
8170.0 0.00069578
8190.0 0.00067816
8210.0 0.00065768
8230.0 0.00063831
8250.0 0.00063251
8270.0 0.00059757
8290.0 0.00052021
8310.0 0.00043326
8330.0 0.00037408
8350.0 0.0003598
8370.0 0.00039961
8390.0 0.00045746
8410.0 0.00048938
8430.0 0.00050905
8450.0 0.0005452
8470.0 0.00058979
8490.0 0.00065023
8510.0 0.00072042
8530.0 0.00079385
8550.0 0.00085278
8570.0 0.00089703
8590.0 0.00093074
8610.0 0.00095084
8630.0 0.0009498
8650.0 0.00093557
8670.0 0.00093882
8690.0 0.00098884
8710.0 0.0010563
8730.0 0.0010898
8750.0 0.0010841
8770.0 0.0010973
8790.0 0.0010997
8810.0 0.0010535
8830.0 0.00097947
8850.0 0.00088578
8870.0 0.0008146
8890.0 0.00079372
8910.0 0.00078145
8930.0 0.000733
8950.0 0.00067974
8970.0 0.00065858
8990.0 0.00066172
9010.0 0.00065067
9030.0 0.00063911
9050.0 0.00063319
9070.0 0.00063004
9090.0 0.00062728
9110.0 0.0006246
9130.0 0.00062193
9150.0 0.00061932
9170.0 0.00061663
9190.0 0.00061441
9210.0 0.00061307
9230.0 0.00061
9250.0 0.00060722
9270.0 0.00060461
9290.0 0.00060214
9310.0 0.00059971
9330.0 0.00059735
9350.0 0.00059509
9370.0 0.00059286
9390.0 0.00059062
9410.0 0.00058844
9430.0 0.00058616
9450.0 0.00058311
9470.0 0.00058035
9490.0 0.00057912
9510.0 0.00057746
9530.0 0.00057574
9550.0 0.00057389
9570.0 0.00057199
9590.0 0.00057011
9610.0 0.00056823
9630.0 0.00056632
9650.0 0.00056444
9670.0 0.00056262
9690.0 0.00056077
9710.0 0.00055893
9730.0 0.00055714
9750.0 0.00055535
9770.0 0.00055352
9790.0 0.00055174
9810.0 0.00054999
9830.0 0.00054822
9850.0 0.00054642
9870.0 0.0005447
9890.0 0.00054296
9910.0 0.00054118
9930.0 0.0005394
9950.0 0.00053568
9970.0 0.00053448
9990.0 0.00053315
10010.0 0.00053182
10030.0 0.00053028
10050.0 0.00052858
10070.0 0.00052688
10090.0 0.00052519
10110.0 0.00052321
10130.0 0.00052075
10150.0 0.00051903
10170.0 0.00051734
10190.0 0.00051542
10210.0 0.0005136
10230.0 0.00051178
10250.0 0.00050974
10270.0 0.00050768
10290.0 0.00050574
10310.0 0.00050362
10330.0 0.00050132
10350.0 0.00049919
10370.0 0.00049705
10390.0 0.0004947
10410.0 0.00049234
10430.0 0.00049015
10450.0 0.00048774
10470.0 0.00048521
10490.0 0.00048279
10510.0 0.00048034
10530.0 0.00047758
10550.0 0.00047489
10570.0 0.00047233
10590.0 0.00046956
10610.0 0.00046666
10630.0 0.0004639
10650.0 0.00046106
10670.0 0.00045795
10690.0 0.00045489
10710.0 0.00045189
10730.0 0.00044869
10750.0 0.00044527
10770.0 0.00044211
10790.0 0.00043883
10810.0 0.00043531
10830.0 0.00043183
10850.0 0.00042845
10870.0 0.00042471
10890.0 0.0004209
10910.0 0.00041722
10930.0 0.00041342
10950.0 0.00040934
10970.0 0.00040531
10990.0 0.00040139
11010.0 0.00042993
11030.0 0.00042557
11050.0 0.00042137
11070.0 0.00041711
11090.0 0.00041254
11110.0 0.00040828
11130.0 0.00040412
11150.0 0.00039981
11170.0 0.00039551
11190.0 0.00039147
11210.0 0.00038734
11230.0 0.00038312
11250.0 0.00037912
11270.0 0.00037525
11290.0 0.00037126
11310.0 0.00036735
11330.0 0.00036375
11350.0 0.0003601
11370.0 0.00035639
11390.0 0.0003528
11410.0 0.00034924
11430.0 0.00034538
11450.0 0.00034147
11470.0 0.00033751
11490.0 0.00033326
11510.0 0.00032863
11530.0 0.00032395
11550.0 0.00031905
11570.0 0.00031371
11590.0 0.00030818
11610.0 0.00030264
11630.0 0.00029672
11650.0 0.00029052
11670.0 0.0002845
11690.0 0.00027844
11710.0 0.00027215
11730.0 0.00026594
11750.0 0.00025999
11770.0 0.00025387
11790.0 0.00024773
11810.0 0.00024184
11830.0 0.00023603
11850.0 0.00023001
11870.0 0.00022423
11890.0 0.0002187
11910.0 0.00021311
11930.0 0.00020758
11950.0 0.00020237
11970.0 0.00019726
11990.0 0.00019212
12010.0 0.0001873
12030.0 0.00018278
12050.0 0.00017836
12070.0 0.00017413
12090.0 0.00017038
12110.0 0.00016685
12130.0 0.00016355
12150.0 0.00016064
12170.0 0.00015811
12190.0 0.00015583
12210.0 0.00015394
12230.0 0.00015247
12250.0 0.00015134
12270.0 0.00015059
12290.0 0.00015021
12310.0 0.00015013
12330.0 0.00015041
12350.0 0.00015097
12370.0 0.00015173
12390.0 0.00015271
12410.0 0.00015397
12430.0 0.00015525
12450.0 0.00015657
12470.0 0.00015802
12490.0 0.00015946
12510.0 0.00016078
12530.0 0.0001621
12550.0 0.00016337
12570.0 0.00016444
12590.0 0.00016533
12610.0 0.00016609
12630.0 0.00016662
12650.0 0.00016683
12670.0 0.0001668
12690.0 0.00016649
12710.0 0.00016586
12730.0 0.00016493
12750.0 0.00016368
12770.0 0.00016214
12790.0 0.00016034
12810.0 0.00015827
12830.0 0.00015595
12850.0 0.00015351
12870.0 0.00015096
12890.0 0.00014824
12910.0 0.00014549
12930.0 0.00014278
12950.0 0.00014001
12970.0 0.00013724
12990.0 0.00013462
13010.0 0.00013206
13030.0 0.00012952
13050.0 0.0001271
13070.0 0.00012481
13090.0 0.00012255
13110.0 0.00012035
13130.0 0.00011828
13150.0 0.00011628
13170.0 0.00011429
13190.0 0.00011241
13210.0 0.00011064
13230.0 0.0001089
13250.0 0.00010722
13270.0 0.00010565
13290.0 0.00010413
13310.0 0.00010263
13330.0 0.00010123
13350.0 9.9913e-05
13370.0 9.8628e-05
13390.0 9.7391e-05
13410.0 9.6255e-05
13430.0 9.5161e-05
13450.0 9.4102e-05
13470.0 9.3105e-05
13490.0 9.2164e-05
13510.0 9.1228e-05
13530.0 9.0329e-05
13550.0 8.947e-05
13570.0 8.8621e-05
13590.0 8.7768e-05
13610.0 8.6935e-05
13630.0 8.6117e-05
13650.0 8.5277e-05
13670.0 8.4439e-05
13690.0 8.3618e-05
13710.0 8.2791e-05
13730.0 8.1941e-05
13750.0 8.113e-05
13770.0 8.0334e-05
13790.0 7.9535e-05
13810.0 7.8757e-05
13830.0 7.8023e-05
13850.0 7.7294e-05
13870.0 7.6581e-05
13890.0 7.5909e-05
13910.0 7.5265e-05
13930.0 7.4626e-05
13950.0 7.401e-05
13970.0 7.3433e-05
13990.0 7.2854e-05
14010.0 7.2274e-05
14030.0 7.1712e-05
14050.0 7.115e-05
14070.0 7.0556e-05
14090.0 6.9964e-05
14110.0 6.9375e-05
14130.0 6.8763e-05
14150.0 6.8129e-05
14170.0 6.7517e-05
14190.0 6.6906e-05
14210.0 6.6284e-05
14230.0 6.5687e-05
14250.0 6.513e-05
14270.0 6.4583e-05
14290.0 6.407e-05
14310.0 6.3624e-05
14330.0 6.3225e-05
14350.0 6.2865e-05
14370.0 6.2564e-05
14390.0 6.2319e-05
14410.0 6.211e-05
14430.0 6.194e-05
14450.0 6.181e-05
14470.0 6.1705e-05
14490.0 6.1616e-05
14510.0 6.1546e-05
14530.0 6.1491e-05
14550.0 6.1441e-05
14570.0 6.1402e-05
14590.0 6.138e-05
14610.0 6.1376e-05
14630.0 6.1398e-05
14650.0 6.1462e-05
14670.0 6.1577e-05
14690.0 6.1759e-05
14710.0 6.2029e-05
14730.0 6.2383e-05
14750.0 6.2849e-05
14770.0 6.3455e-05
14790.0 6.4187e-05
14810.0 6.5048e-05
14830.0 6.6122e-05
14850.0 6.7356e-05
14870.0 6.8709e-05
14890.0 7.0226e-05
14910.0 7.1898e-05
14930.0 7.3582e-05
14950.0 7.5232e-05
14970.0 7.6868e-05
14990.0 7.834e-05
15010.0 7.9579e-05
15030.0 8.0622e-05
15050.0 8.1469e-05
15070.0 8.2098e-05
15090.0 8.2595e-05
15110.0 8.3005e-05
15130.0 8.3357e-05
15150.0 8.368e-05
15170.0 8.3993e-05
15190.0 8.4303e-05
15210.0 8.4617e-05
15230.0 8.4936e-05
15250.0 8.5261e-05
15270.0 8.5592e-05
15290.0 8.5931e-05
15310.0 8.6275e-05
15330.0 8.6625e-05
15350.0 8.6983e-05
15370.0 8.7346e-05
15390.0 8.7714e-05
15410.0 8.8089e-05
15430.0 8.847e-05
15450.0 8.8857e-05
15470.0 8.9249e-05
15490.0 8.9647e-05
15510.0 9.0051e-05
15530.0 9.0459e-05
15550.0 9.0873e-05
15570.0 9.1293e-05
15590.0 9.1717e-05
15610.0 9.2146e-05
15630.0 9.258e-05
15650.0 9.3019e-05
15670.0 9.3462e-05
15690.0 9.391e-05
15710.0 9.4363e-05
15730.0 9.4819e-05
15750.0 9.528e-05
15770.0 9.5744e-05
15790.0 9.6213e-05
15810.0 9.6685e-05
15830.0 9.7161e-05
15850.0 9.764e-05
15870.0 9.8123e-05
15890.0 9.8608e-05
15910.0 9.9097e-05
15930.0 9.9589e-05
15950.0 0.00010008
15970.0 0.00010058
15990.0 0.00010108
16010.0 0.00010158
16030.0 0.00010208
16050.0 0.00010259
16070.0 0.0001031
16090.0 0.0001036
16110.0 0.00010411
16130.0 0.00010463
16150.0 0.00010514
16170.0 0.00010565
16190.0 0.00010617
16210.0 0.00010668
16230.0 0.00010719
16250.0 0.00010771
16270.0 0.00010822
16290.0 0.00010874
16310.0 0.00010925
16330.0 0.00010977
16350.0 0.00011028
16370.0 0.00011079
16390.0 0.0001113
16410.0 0.00011181
16430.0 0.00011232
16450.0 0.00011282
16470.0 0.00011333
16490.0 0.00011383
16510.0 0.00011433
16530.0 0.00011483
16550.0 0.00011532
16570.0 0.00011581
16590.0 0.0001163
16610.0 0.00011678
16630.0 0.00011726
16650.0 0.00011774
16670.0 0.00011821
16690.0 0.00011868
16710.0 0.00011914
16730.0 0.0001196
16750.0 0.00012006
16770.0 0.00012051
16790.0 0.00012095
16810.0 0.00012139
16830.0 0.00012183
16850.0 0.00012225
16870.0 0.00012268
16890.0 0.00012309
16910.0 0.0001235
16930.0 0.0001239
16950.0 0.0001243
16970.0 0.00012469
16990.0 0.00012507
17010.0 0.00012545
17030.0 0.00012581
17050.0 0.00012617
17070.0 0.00012652
17090.0 0.00012687
17110.0 0.00012721
17130.0 0.00012753
17150.0 0.00012785
17170.0 0.00012816
17190.0 0.00012846
17210.0 0.00012876
17230.0 0.00012904
17250.0 0.00012932
17270.0 0.00012958
17290.0 0.00012984
17310.0 0.00013009
17330.0 0.00013032
17350.0 0.00013055
17370.0 0.00013077
17390.0 0.00013098
17410.0 0.00013117
17430.0 0.00013136
17450.0 0.00013154
17470.0 0.0001317
17490.0 0.00013186
17510.0 0.00013201
17530.0 0.00013214
17550.0 0.00013226
17570.0 0.00013238
17590.0 0.00013248
17610.0 0.00013257
17630.0 0.00013265
17650.0 0.00013272
17670.0 0.00013278
17690.0 0.00013283
17710.0 0.00013287
17730.0 0.0001329
17750.0 0.00013291
17770.0 0.00013291
17790.0 0.00013291
17810.0 0.00013289
17830.0 0.00013286
17850.0 0.00013282
17870.0 0.00013277
17890.0 0.0001327
17910.0 0.00013263
17930.0 0.00013255
17950.0 0.00013245
17970.0 0.00013234
17990.0 0.00013223
18010.0 0.0001321
18030.0 0.00013196
18050.0 0.00013181
18070.0 0.00013165
18090.0 0.00013148
18110.0 0.00013129
18130.0 0.0001311
18150.0 0.0001309
18170.0 0.00013069
18190.0 0.00013046
18210.0 0.00013023
18230.0 0.00012999
18250.0 0.00012973
18270.0 0.00012947
18290.0 0.0001292
18310.0 0.00012891
18330.0 0.00012862
18350.0 0.00012832
18370.0 0.00012801
18390.0 0.00012769
18410.0 0.00012736
18430.0 0.00012702
18450.0 0.00012668
18470.0 0.00012632
18490.0 0.00012596
18510.0 0.00012559
18530.0 0.00012521
18550.0 0.00012482
18570.0 0.00012442
18590.0 0.00012402
18610.0 0.00012361
18630.0 0.00012319
18650.0 0.00012276
18670.0 0.00012233
18690.0 0.00012189
18710.0 0.00012144
18730.0 0.00012098
18750.0 0.00012052
18770.0 0.00012006
18790.0 0.00011958
18810.0 0.0001191
18830.0 0.00011862
18850.0 0.00011813
18870.0 0.00011763
18890.0 0.00011713
18910.0 0.00011662
18930.0 0.00011611
18950.0 0.00011559
18970.0 0.00011507
18990.0 0.00011454
19010.0 0.00011401
19030.0 0.00011347
19050.0 0.00011293
19070.0 0.00011239
19090.0 0.00011184
19110.0 0.00011129
19130.0 0.00011073
19150.0 0.00011018
19170.0 0.00010962
19190.0 0.00010905
19210.0 0.00010848
19230.0 0.00010791
19250.0 0.00010734
19270.0 0.00010677
19290.0 0.00010619
19310.0 0.00010561
19330.0 0.00010503
19350.0 0.00010445
19370.0 0.00010386
19390.0 0.00010327
19410.0 0.00010269
19430.0 0.0001021
19450.0 0.00010151
19470.0 0.00010092
19490.0 0.00010032
19510.0 9.9732e-05
19530.0 9.9139e-05
19550.0 9.8545e-05
19570.0 9.7951e-05
19590.0 9.7357e-05
19610.0 9.6763e-05
19630.0 9.6168e-05
19650.0 9.5574e-05
19670.0 9.4981e-05
19690.0 9.4387e-05
19710.0 9.3794e-05
19730.0 9.3202e-05
19750.0 9.261e-05
19770.0 9.2019e-05
19790.0 9.1429e-05
19810.0 9.084e-05
19830.0 9.0249e-05
19850.0 8.9656e-05
19870.0 8.9056e-05
19890.0 8.844e-05
19910.0 8.7792e-05
19930.0 8.7095e-05
19950.0 8.6324e-05
19970.0 8.5437e-05
19990.0 8.4414e-05
20010.0 8.3272e-05
20030.0 8.1964e-05
20050.0 8.05e-05
20070.0 7.8954e-05
20090.0 7.7341e-05
20110.0 7.5609e-05
20130.0 7.3894e-05
20150.0 7.2225e-05
20170.0 7.0547e-05
20190.0 6.8885e-05
20210.0 6.7316e-05
20230.0 6.5797e-05
20250.0 6.429e-05
20270.0 6.2869e-05
20290.0 6.1537e-05
20310.0 6.0247e-05
20330.0 5.9003e-05
20350.0 5.7885e-05
20370.0 5.6826e-05
20390.0 5.582e-05
20410.0 5.4897e-05
20430.0 5.4056e-05
20450.0 5.3256e-05
20470.0 5.2523e-05
20490.0 5.1861e-05
20510.0 5.1251e-05
20530.0 5.0684e-05
20550.0 5.017e-05
20570.0 4.9701e-05
20590.0 4.9262e-05
20610.0 4.8854e-05
20630.0 4.8474e-05
20650.0 4.8113e-05
20670.0 4.7767e-05
20690.0 4.7432e-05
20710.0 4.7103e-05
20730.0 4.6775e-05
20750.0 4.6445e-05
20770.0 4.6109e-05
20790.0 4.5763e-05
20810.0 4.5404e-05
20830.0 4.5032e-05
20850.0 4.4647e-05
20870.0 4.4241e-05
20890.0 4.3817e-05
20910.0 4.3384e-05
20930.0 4.2932e-05
20950.0 4.2462e-05
20970.0 4.1985e-05
20990.0 4.15e-05
21010.0 4.0997e-05
21030.0 4.0489e-05
21050.0 3.9985e-05
21070.0 3.9474e-05
21090.0 3.8954e-05
21110.0 3.8448e-05
21130.0 3.7948e-05
21150.0 3.7445e-05
21170.0 3.6951e-05
21190.0 3.6473e-05
21210.0 3.5996e-05
21230.0 3.5524e-05
21250.0 3.5072e-05
21270.0 3.4633e-05
21290.0 3.4198e-05
21310.0 3.3779e-05
21330.0 3.3381e-05
21350.0 3.2991e-05
21370.0 3.2612e-05
21390.0 3.2253e-05
21410.0 3.191e-05
21430.0 3.1574e-05
21450.0 3.1258e-05
21470.0 3.0961e-05
21490.0 3.0674e-05
21510.0 3.0402e-05
21530.0 3.0147e-05
21550.0 2.9903e-05
21570.0 2.9671e-05
21590.0 2.945e-05
21610.0 2.9241e-05
21630.0 2.904e-05
21650.0 2.8848e-05
21670.0 2.8663e-05
21690.0 2.8485e-05
21710.0 2.8311e-05
21730.0 2.8143e-05
21750.0 2.7978e-05
21770.0 2.7817e-05
21790.0 2.7659e-05
21810.0 2.7503e-05
21830.0 2.735e-05
21850.0 2.7199e-05
21870.0 2.7051e-05
21890.0 2.6903e-05
21910.0 2.6757e-05
21930.0 2.6613e-05
21950.0 2.6469e-05
21970.0 2.6325e-05
21990.0 2.6182e-05
22010.0 2.6037e-05
22030.0 2.5892e-05
22050.0 2.5744e-05
22070.0 2.5595e-05
22090.0 2.5443e-05
22110.0 2.5288e-05
22130.0 2.5129e-05
22150.0 2.4967e-05
22170.0 2.4803e-05
22190.0 2.4633e-05
22210.0 2.4459e-05
22230.0 2.4283e-05
22250.0 2.4103e-05
22270.0 2.3917e-05
22290.0 2.3729e-05
22310.0 2.3537e-05
22330.0 2.3336e-05
22350.0 2.3131e-05
22370.0 2.2923e-05
22390.0 2.2706e-05
22410.0 2.2477e-05
22430.0 2.2247e-05
22450.0 2.2009e-05
22470.0 2.1758e-05
22490.0 2.1499e-05
22510.0 2.1237e-05
22530.0 2.0959e-05
22550.0 2.067e-05
22570.0 2.0382e-05
22590.0 2.0088e-05
22610.0 1.9781e-05
22630.0 1.9474e-05
22650.0 1.9174e-05
22670.0 1.8866e-05
22690.0 1.8557e-05
