#lamb flux
1010.0 3.8602e-06
1030.0 4.1897e-06
1050.0 4.5691e-06
1070.0 4.9964e-06
1090.0 5.4818e-06
1110.0 5.98e-06
1130.0 6.4817e-06
1150.0 7.0077e-06
1170.0 7.5507e-06
1190.0 8.0663e-06
1210.0 8.5893e-06
1230.0 9.1303e-06
1250.0 9.661e-06
1270.0 1.0177e-05
1290.0 1.0723e-05
1310.0 1.127e-05
1330.0 1.1795e-05
1350.0 1.2326e-05
1370.0 1.2876e-05
1390.0 1.3413e-05
1410.0 1.3935e-05
1430.0 1.4482e-05
1450.0 1.5029e-05
1470.0 1.5559e-05
1490.0 1.6096e-05
1510.0 1.6663e-05
1530.0 1.7202e-05
1550.0 1.7735e-05
1570.0 1.8286e-05
1590.0 1.8837e-05
1610.0 1.9365e-05
1630.0 1.9909e-05
1650.0 2.0467e-05
1670.0 2.1007e-05
1690.0 2.1539e-05
1710.0 2.209e-05
1730.0 2.2643e-05
1750.0 2.3162e-05
1770.0 2.3694e-05
1790.0 2.4234e-05
1810.0 2.4754e-05
1830.0 2.5261e-05
1850.0 2.5797e-05
1870.0 2.6314e-05
1890.0 2.6808e-05
1910.0 2.7308e-05
1930.0 2.7815e-05
1950.0 2.8292e-05
1970.0 2.8756e-05
1990.0 2.9232e-05
2010.0 2.9693e-05
2030.0 3.0127e-05
2050.0 3.0569e-05
2070.0 3.1015e-05
2090.0 3.1422e-05
2110.0 3.1818e-05
2130.0 3.222e-05
2150.0 3.2603e-05
2170.0 3.2954e-05
2190.0 3.3313e-05
2210.0 3.3665e-05
2230.0 3.3985e-05
2250.0 3.4293e-05
2270.0 3.4612e-05
2290.0 3.4903e-05
2310.0 3.5163e-05
2330.0 3.5427e-05
2350.0 3.5683e-05
2370.0 3.5908e-05
2390.0 3.6127e-05
2410.0 3.6359e-05
2430.0 3.657e-05
2450.0 3.6768e-05
2470.0 3.699e-05
2490.0 3.7257e-05
2510.0 3.758e-05
2530.0 3.811e-05
2550.0 3.9086e-05
2570.0 4.0754e-05
2590.0 4.3397e-05
2610.0 4.7762e-05
2630.0 5.4011e-05
2650.0 6.1777e-05
2670.0 7.1119e-05
2690.0 8.1662e-05
2710.0 9.1914e-05
2730.0 0.00010117
2750.0 0.00010959
2770.0 0.00011638
2790.0 0.00012149
2810.0 0.00012556
2830.0 0.00012908
2850.0 0.00013189
2870.0 0.0001345
2890.0 0.00013719
2910.0 0.00013989
2930.0 0.00014247
2950.0 0.00014523
2970.0 0.00014813
2990.0 0.00015094
3010.0 0.0010358
3030.0 0.0010557
3050.0 0.0010751
3070.0 0.0010916
3090.0 0.0011053
3110.0 0.0011119
3130.0 0.0011067
3150.0 0.001085
3170.0 0.0010384
3190.0 0.00096655
3210.0 0.00087224
3230.0 0.00076797
3250.0 0.0008477
3270.0 0.00074352
3290.0 0.00095879
3310.0 0.00073265
3330.0 0.00074109
3350.0 0.00078564
3370.0 0.00084157
3390.0 0.0009053
3410.0 0.0009701
3430.0 0.0010388
3450.0 0.0011102
3470.0 0.0011788
3490.0 0.0012359
3510.0 0.0013563
3530.0 0.0015433
3550.0 0.0015552
3570.0 0.0014697
3590.0 0.0016997
3610.0 0.0014832
3630.0 0.0018328
3650.0 0.0020101
3670.0 0.0022892
3690.0 0.0022141
3710.0 0.0018473
3730.0 0.0020362
3750.0 0.0020503
3770.0 0.002214
3790.0 0.0023314
3810.0 0.0026321
3830.0 0.0036995
3850.0 0.0046301
3870.0 0.0055107
3890.0 0.0056994
3910.0 0.0054682
3930.0 0.0055219
3950.0 0.0057771
3970.0 0.0053803
3990.0 0.003273
4010.0 0.0022132
4030.0 0.0036482
4050.0 0.004959
4070.0 0.0046953
4090.0 0.0027971
4110.0 0.0022115
4130.0 0.0036356
4150.0 0.0040793
4170.0 0.0034071
4190.0 0.002858
4210.0 0.0041009
4230.0 0.0037714
4250.0 0.0036369
4270.0 0.003621
4290.0 0.0032626
4310.0 0.0039569
4330.0 0.0045631
4350.0 0.0047015
4370.0 0.0043412
4390.0 0.0045668
4410.0 0.0042947
4430.0 0.003224
4450.0 0.002534
4470.0 0.0030152
4490.0 0.0028523
4510.0 0.0041082
4530.0 0.0042264
4550.0 0.0043042
4570.0 0.0053711
4590.0 0.006241
4610.0 0.0073904
4630.0 0.0098199
4650.0 0.010817
4670.0 0.010958
4690.0 0.010503
4710.0 0.010425
4730.0 0.0092286
4750.0 0.0068151
4770.0 0.005534
4790.0 0.0043591
4810.0 0.0046886
4830.0 0.0053883
4850.0 0.0054479
4870.0 0.0048949
4890.0 0.0066928
4910.0 0.0068801
4930.0 0.0074542
4950.0 0.0087522
4970.0 0.0090433
4990.0 0.010286
5010.0 0.01066
5030.0 0.0098291
5050.0 0.0078656
5070.0 0.0056712
5090.0 0.0047773
5110.0 0.0048429
5130.0 0.0050658
5150.0 0.0048077
5170.0 0.0046265
5190.0 0.004885
5210.0 0.005023
5230.0 0.0055229
5250.0 0.0059236
5270.0 0.0056942
5290.0 0.0065804
5310.0 0.0082287
5330.0 0.0089937
5350.0 0.0084595
5370.0 0.0085156
5390.0 0.0092092
5410.0 0.0092316
5430.0 0.0089603
5450.0 0.009315
5470.0 0.010304
5490.0 0.012253
5510.0 0.014671
5530.0 0.015283
5550.0 0.01525
5570.0 0.015021
5590.0 0.01438
5610.0 0.013612
5630.0 0.013681
5650.0 0.01419
5670.0 0.013713
5690.0 0.012423
5710.0 0.012239
5730.0 0.01132
5750.0 0.010096
5770.0 0.0089878
5790.0 0.0095291
5810.0 0.01019
5830.0 0.01123
5850.0 0.011065
5870.0 0.010828
5890.0 0.011124
5910.0 0.010271
5930.0 0.0094768
5950.0 0.0094933
5970.0 0.0099082
5990.0 0.0087433
6010.0 0.0073933
6030.0 0.0064281
6050.0 0.0058175
6070.0 0.0054848
6090.0 0.0058614
6110.0 0.006498
6130.0 0.0065276
6150.0 0.0065839
6170.0 0.0069067
6190.0 0.0074531
6210.0 0.0085649
6230.0 0.0099769
6250.0 0.0093018
6270.0 0.0081485
6290.0 0.0070323
6310.0 0.0058305
6330.0 0.0051268
6350.0 0.00492
6370.0 0.0052538
6390.0 0.0058624
6410.0 0.0070297
6430.0 0.0086352
6450.0 0.010014
6470.0 0.011097
6490.0 0.012638
6510.0 0.013776
6530.0 0.013308
6550.0 0.012731
6570.0 0.012849
6590.0 0.012841
6610.0 0.012728
6630.0 0.011975
6650.0 0.010811
6670.0 0.010446
6690.0 0.01024
6710.0 0.010371
6730.0 0.00907
6750.0 0.0077862
6770.0 0.0076532
6790.0 0.0081621
6810.0 0.0091257
6830.0 0.0092484
6850.0 0.0085007
6870.0 0.0084688
6890.0 0.0083555
6910.0 0.0078703
6930.0 0.0079799
6950.0 0.0078101
6970.0 0.0077037
6990.0 0.0079291
7010.0 0.0084205
7030.0 0.0082902
7050.0 0.0076195
7070.0 0.0073118
7090.0 0.0064612
7110.0 0.0055974
7130.0 0.005513
7150.0 0.0058524
7170.0 0.0063867
7190.0 0.0064189
7210.0 0.0062332
7230.0 0.0068356
7250.0 0.0073714
7270.0 0.0076454
7290.0 0.0078171
7310.0 0.0078185
7330.0 0.0073643
7350.0 0.0068283
7370.0 0.0063595
7390.0 0.0062329
7410.0 0.0068384
7430.0 0.0079089
7450.0 0.0086845
7470.0 0.0094944
7490.0 0.010995
7510.0 0.010837
7530.0 0.0090628
7550.0 0.0078673
7570.0 0.006596
7590.0 0.0057667
7610.0 0.0056047
7630.0 0.0055654
7650.0 0.0060297
7670.0 0.0068582
7690.0 0.0075279
7710.0 0.0085805
7730.0 0.0089111
7750.0 0.0092252
7770.0 0.0098846
7790.0 0.010287
7810.0 0.010135
7830.0 0.0093159
7850.0 0.0092435
7870.0 0.0090011
7890.0 0.0086078
7910.0 0.0079769
7930.0 0.0075537
7950.0 0.0063253
7970.0 0.0061089
7990.0 0.0061382
8010.0 0.0071284
8030.0 0.0071429
8050.0 0.0075352
8070.0 0.0073361
8090.0 0.0073577
8110.0 0.0072289
8130.0 0.006957
8150.0 0.0064617
8170.0 0.0063973
8190.0 0.0064546
8210.0 0.0065243
8230.0 0.0058925
8250.0 0.0054609
8270.0 0.0048164
8290.0 0.0040446
8310.0 0.0033916
8330.0 0.0025534
8350.0 0.0019879
8370.0 0.0018611
8390.0 0.001903
8410.0 0.0021162
8430.0 0.0027073
8450.0 0.0029835
8470.0 0.0032225
8490.0 0.0036742
8510.0 0.0039824
8530.0 0.00446
8550.0 0.0052789
8570.0 0.0058951
8590.0 0.0062989
8610.0 0.0071485
8630.0 0.0082407
8650.0 0.008569
8670.0 0.0087515
8690.0 0.0088951
8710.0 0.0086713
8730.0 0.008329
8750.0 0.007705
8770.0 0.0076429
8790.0 0.0074593
8810.0 0.0068819
8830.0 0.0066966
8850.0 0.005955
8870.0 0.0055744
8890.0 0.0050587
8910.0 0.0056482
8930.0 0.0052124
8950.0 0.0052852
8970.0 0.0054121
8990.0 0.0053202
9010.0 0.0054188
9030.0 0.0051704
9050.0 0.0051516
9070.0 0.0051569
9090.0 0.0051617
9110.0 0.00517
9130.0 0.0051744
9150.0 0.0051767
9170.0 0.0051682
9190.0 0.0051448
9210.0 0.0052158
9230.0 0.0052028
9250.0 0.0051982
9270.0 0.0051957
9290.0 0.0051947
9310.0 0.0051945
9330.0 0.0051948
9350.0 0.0051956
9370.0 0.0051963
9390.0 0.0051969
9410.0 0.0051975
9430.0 0.0051983
9450.0 0.0051987
9470.0 0.0051991
9490.0 0.0051996
9510.0 0.0052
9530.0 0.0052002
9550.0 0.0052008
9570.0 0.0052015
9590.0 0.005202
9610.0 0.0052026
9630.0 0.0052035
9650.0 0.0052045
9670.0 0.0052052
9690.0 0.0052065
9710.0 0.0052079
9730.0 0.0052092
9750.0 0.0052107
9770.0 0.005213
9790.0 0.0052149
9810.0 0.0052169
9830.0 0.0052195
9850.0 0.0052223
9870.0 0.0052249
9890.0 0.0052278
9910.0 0.0052313
9930.0 0.0052347
9950.0 0.0052331
9970.0 0.0052388
9990.0 0.0052445
10010.0 0.0052495
10030.0 0.0052546
10050.0 0.0052578
10070.0 0.0052496
10090.0 0.0052594
10110.0 0.005269
10130.0 0.0052774
10150.0 0.0052853
10170.0 0.0052924
10190.0 0.0052988
10210.0 0.0053055
10230.0 0.0053124
10250.0 0.0053189
10270.0 0.0053256
10290.0 0.0053327
10310.0 0.0053397
10330.0 0.0053464
10350.0 0.0053537
10370.0 0.0053611
10390.0 0.0053682
10410.0 0.0053755
10430.0 0.0053832
10450.0 0.0053906
10470.0 0.0053979
10490.0 0.0054055
10510.0 0.0054131
10530.0 0.0054202
10550.0 0.0054276
10570.0 0.0054351
10590.0 0.0054424
10610.0 0.0054495
10630.0 0.0054569
10650.0 0.0054641
10670.0 0.0054709
10690.0 0.0054778
10710.0 0.0054847
10730.0 0.0054914
10750.0 0.0054976
10770.0 0.0055042
10790.0 0.0055105
10810.0 0.0055164
10830.0 0.005522
10850.0 0.0055272
10870.0 0.0055305
10890.0 0.0055312
10910.0 0.0055278
10930.0 0.0055171
10950.0 0.005494
10970.0 0.0054561
10990.0 0.0054022
11010.0 0.0055201
11030.0 0.0054106
11050.0 0.005284
11070.0 0.0051385
11090.0 0.0049704
11110.0 0.0048037
11130.0 0.0046376
11150.0 0.004468
11170.0 0.0043042
11190.0 0.0041563
11210.0 0.0040152
11230.0 0.0038829
11250.0 0.003768
11270.0 0.0036675
11290.0 0.0035759
11310.0 0.0034965
11330.0 0.0034312
11350.0 0.003372
11370.0 0.0033175
11390.0 0.0032682
11410.0 0.0032208
11430.0 0.00317
11450.0 0.0031176
11470.0 0.0030631
11490.0 0.0030032
11510.0 0.0029365
11530.0 0.0028681
11550.0 0.0027966
11570.0 0.0027193
11590.0 0.0026406
11610.0 0.0025635
11630.0 0.0024837
11650.0 0.0024032
11670.0 0.0023283
11690.0 0.002256
11710.0 0.0021845
11730.0 0.0021174
11750.0 0.0020562
11770.0 0.0019961
11790.0 0.0019387
11810.0 0.0018859
11830.0 0.0018357
11850.0 0.0017852
11870.0 0.0017378
11890.0 0.001693
11910.0 0.0016477
11930.0 0.0016025
11950.0 0.0015591
11970.0 0.0015155
11990.0 0.0014703
12010.0 0.0014263
12030.0 0.0013836
12050.0 0.0013403
12070.0 0.0012973
12090.0 0.0012584
12110.0 0.0012212
12130.0 0.0011859
12150.0 0.001155
12170.0 0.0011289
12190.0 0.0011064
12210.0 0.0010898
12230.0 0.0010796
12250.0 0.0010755
12270.0 0.001078
12290.0 0.001087
12310.0 0.0011017
12330.0 0.0011229
12350.0 0.0011496
12370.0 0.0011796
12390.0 0.0012134
12410.0 0.0012517
12430.0 0.001289
12450.0 0.0013259
12470.0 0.0013631
12490.0 0.0013981
12510.0 0.0014288
12530.0 0.001457
12550.0 0.001482
12570.0 0.0015017
12590.0 0.001517
12610.0 0.0015285
12630.0 0.0015354
12650.0 0.0015379
12670.0 0.0015368
12690.0 0.0015323
12710.0 0.0015248
12730.0 0.0015147
12750.0 0.0015017
12770.0 0.0014868
12790.0 0.0014706
12810.0 0.0014524
12830.0 0.0014323
12850.0 0.0014116
12870.0 0.0013897
12890.0 0.0013656
12910.0 0.0013402
12930.0 0.001314
12950.0 0.0012852
12970.0 0.001254
12990.0 0.0012226
13010.0 0.0011897
13030.0 0.0011545
13050.0 0.001119
13070.0 0.0010844
13090.0 0.0010486
13110.0 0.0010131
13130.0 0.00098019
13150.0 0.00094907
13170.0 0.00091901
13190.0 0.00089302
13210.0 0.00087104
13230.0 0.00085192
13250.0 0.00083653
13270.0 0.00082533
13290.0 0.00081743
13310.0 0.00081267
13330.0 0.00081098
13350.0 0.00081159
13370.0 0.00081406
13390.0 0.00081786
13410.0 0.00082195
13430.0 0.00082614
13450.0 0.00082998
13470.0 0.00083284
13490.0 0.00083452
13510.0 0.00083502
13530.0 0.00083408
13550.0 0.00083193
13570.0 0.00082872
13590.0 0.00082459
13610.0 0.00082002
13630.0 0.00081531
13650.0 0.00081044
13670.0 0.00080583
13690.0 0.00080172
13710.0 0.00079803
13730.0 0.00079475
13750.0 0.00079207
13770.0 0.00078973
13790.0 0.00078755
13810.0 0.0007854
13830.0 0.00078314
13850.0 0.00078048
13870.0 0.00077723
13890.0 0.0007734
13910.0 0.00076888
13930.0 0.00076345
13950.0 0.0007573
13970.0 0.00075086
13990.0 0.00074385
14010.0 0.00073653
14030.0 0.00072941
14050.0 0.00072255
14070.0 0.00071579
14090.0 0.00070976
14110.0 0.00070453
14130.0 0.00069993
14150.0 0.00069604
14170.0 0.00069302
14190.0 0.00069069
14210.0 0.00068901
14230.0 0.00068804
14250.0 0.0006877
14270.0 0.00068809
14290.0 0.00068928
14310.0 0.00069111
14330.0 0.00069369
14350.0 0.00069721
14370.0 0.00070142
14390.0 0.00070613
14410.0 0.00071174
14430.0 0.00071798
14450.0 0.00072442
14470.0 0.00073129
14490.0 0.00073891
14510.0 0.00074655
14530.0 0.0007543
14550.0 0.0007628
14570.0 0.00077197
14590.0 0.00078146
14610.0 0.00079207
14630.0 0.00080437
14650.0 0.00081766
14670.0 0.00083218
14690.0 0.00084892
14710.0 0.00086773
14730.0 0.00088699
14750.0 0.00090819
14770.0 0.00093136
14790.0 0.00095493
14810.0 0.00097855
14830.0 0.001004
14850.0 0.0010288
14870.0 0.0010519
14890.0 0.0010742
14910.0 0.0010952
14930.0 0.0011131
14950.0 0.001128
14970.0 0.0011405
14990.0 0.0011495
15010.0 0.0011551
15030.0 0.0011581
15050.0 0.0011588
15070.0 0.0011575
15090.0 0.0011551
15110.0 0.0011519
15130.0 0.0011481
15150.0 0.0011443
15170.0 0.0011402
15190.0 0.0011361
15210.0 0.001132
15230.0 0.001128
15250.0 0.0011238
15270.0 0.0011198
15290.0 0.0011158
15310.0 0.0011118
15330.0 0.0011078
15350.0 0.0011039
15370.0 0.0011
15390.0 0.001096
15410.0 0.001092
15430.0 0.0010882
15450.0 0.0010843
15470.0 0.0010804
15490.0 0.0010766
15510.0 0.0010728
15530.0 0.001069
15550.0 0.0010652
15570.0 0.0010615
15590.0 0.0010577
15610.0 0.0010538
15630.0 0.0010502
15650.0 0.0010465
15670.0 0.0010427
15690.0 0.0010391
15710.0 0.0010355
15730.0 0.0010318
15750.0 0.0010281
15770.0 0.0010245
15790.0 0.0010209
15810.0 0.0010172
15830.0 0.0010136
15850.0 0.0010101
15870.0 0.0010065
15890.0 0.0010029
15910.0 0.00099948
15930.0 0.00099596
15950.0 0.00099234
15970.0 0.00098884
15990.0 0.0009854
16010.0 0.00098185
16030.0 0.00097829
16050.0 0.00097491
16070.0 0.00097146
16090.0 0.00096794
16110.0 0.00096451
16130.0 0.00096116
16150.0 0.00095761
16170.0 0.00095414
16190.0 0.00095078
16210.0 0.00094736
16230.0 0.00094387
16250.0 0.0009405
16270.0 0.00093718
16290.0 0.00093372
16310.0 0.0009303
16330.0 0.00092698
16350.0 0.0009236
16370.0 0.00092008
16390.0 0.00091676
16410.0 0.00091344
16430.0 0.00091001
16450.0 0.00090662
16470.0 0.00090336
16490.0 0.00089996
16510.0 0.00089652
16530.0 0.0008932
16550.0 0.00088988
16570.0 0.00088644
16590.0 0.00088303
16610.0 0.00087977
16630.0 0.0008764
16650.0 0.00087299
16670.0 0.00086969
16690.0 0.00086638
16710.0 0.00086291
16730.0 0.00085954
16750.0 0.00085624
16770.0 0.00085285
16790.0 0.0008494
16810.0 0.00084611
16830.0 0.00084279
16850.0 0.00083935
16870.0 0.00083598
16890.0 0.00083269
16910.0 0.00082925
16930.0 0.00082578
16950.0 0.00082247
16970.0 0.00081911
16990.0 0.00081565
17010.0 0.00081228
17030.0 0.00080898
17050.0 0.00080553
17070.0 0.00080208
17090.0 0.00079873
17110.0 0.00079535
17130.0 0.00079182
17150.0 0.00078842
17170.0 0.00078509
17190.0 0.00078163
17210.0 0.00077817
17230.0 0.00077483
17250.0 0.00077141
17270.0 0.00076787
17290.0 0.00076446
17310.0 0.00076107
17330.0 0.00075757
17350.0 0.00075405
17370.0 0.0007507
17390.0 0.00074726
17410.0 0.00074374
17430.0 0.00074031
17450.0 0.00073692
17470.0 0.00073334
17490.0 0.00072983
17510.0 0.00072642
17530.0 0.00072294
17550.0 0.00071938
17570.0 0.00071594
17590.0 0.00071253
17610.0 0.00070897
17630.0 0.00070545
17650.0 0.00070203
17670.0 0.00069852
17690.0 0.00069488
17710.0 0.00069144
17730.0 0.00068798
17750.0 0.00068442
17770.0 0.00068089
17790.0 0.00067749
17810.0 0.00067393
17830.0 0.00067034
17850.0 0.00066686
17870.0 0.00066338
17890.0 0.00065976
17910.0 0.0006562
17930.0 0.00065278
17950.0 0.00064923
17970.0 0.00064566
17990.0 0.00064219
18010.0 0.00063871
18030.0 0.00063506
18050.0 0.00063152
18070.0 0.00062806
18090.0 0.0006245
18110.0 0.00062089
18130.0 0.00061744
18150.0 0.00061395
18170.0 0.00061035
18190.0 0.00060683
18210.0 0.00060337
18230.0 0.00059978
18250.0 0.00059616
18270.0 0.00059271
18290.0 0.00058921
18310.0 0.00058562
18330.0 0.00058211
18350.0 0.00057868
18370.0 0.0005751
18390.0 0.00057154
18410.0 0.00056809
18430.0 0.00056459
18450.0 0.00056096
18470.0 0.00055748
18490.0 0.00055405
18510.0 0.00055051
18530.0 0.00054698
18550.0 0.00054357
18570.0 0.00054007
18590.0 0.00053649
18610.0 0.00053303
18630.0 0.0005296
18650.0 0.00052606
18670.0 0.00052253
18690.0 0.00051916
18710.0 0.0005157
18730.0 0.00051218
18750.0 0.00050876
18770.0 0.00050538
18790.0 0.00050181
18810.0 0.00049834
18830.0 0.00049497
18850.0 0.00049154
18870.0 0.00048804
18890.0 0.00048467
18910.0 0.00048132
18930.0 0.00047784
18950.0 0.00047442
18970.0 0.00047109
18990.0 0.00046768
19010.0 0.00046416
19030.0 0.00046085
19050.0 0.00045752
19070.0 0.0004541
19090.0 0.00045073
19110.0 0.00044748
19130.0 0.00044407
19150.0 0.00044067
19170.0 0.00043738
19190.0 0.00043408
19210.0 0.00043067
19230.0 0.00042733
19250.0 0.00042412
19270.0 0.0004208
19290.0 0.00041746
19310.0 0.00041423
19330.0 0.00041099
19350.0 0.0004076
19370.0 0.00040434
19390.0 0.00040115
19410.0 0.00039787
19430.0 0.00039456
19450.0 0.00039141
19470.0 0.00038821
19490.0 0.00038492
19510.0 0.00038173
19530.0 0.00037859
19550.0 0.00037533
19570.0 0.00037206
19590.0 0.00036896
19610.0 0.0003658
19630.0 0.00036258
19650.0 0.00035945
19670.0 0.00035638
19690.0 0.00035318
19710.0 0.00035001
19730.0 0.00034694
19750.0 0.00034383
19770.0 0.00034062
19790.0 0.00033755
19810.0 0.00033452
19830.0 0.00033138
19850.0 0.00032825
19870.0 0.00032519
19890.0 0.00032194
19910.0 0.00031844
19930.0 0.00031479
19950.0 0.00031077
19970.0 0.00030603
19990.0 0.00030059
20010.0 0.00029471
20030.0 0.00028795
20050.0 0.00028047
20070.0 0.00027285
20090.0 0.00026515
20110.0 0.00025708
20130.0 0.00024954
20150.0 0.00024267
20170.0 0.00023614
20190.0 0.00023011
20210.0 0.00022494
20230.0 0.00022034
20250.0 0.00021619
20270.0 0.00021273
20290.0 0.00020992
20310.0 0.00020757
20330.0 0.00020572
20350.0 0.00020449
20370.0 0.00020371
20390.0 0.00020339
20410.0 0.00020354
20430.0 0.00020412
20450.0 0.0002052
20470.0 0.00020677
20490.0 0.00020872
20510.0 0.00021113
20530.0 0.0002141
20550.0 0.00021742
20570.0 0.00022098
20590.0 0.00022504
20610.0 0.0002294
20630.0 0.00023381
20650.0 0.00023842
20670.0 0.00024334
20690.0 0.00024801
20710.0 0.00025252
20730.0 0.00025702
20750.0 0.00026132
20770.0 0.00026518
20790.0 0.00026888
20810.0 0.00027242
20830.0 0.00027562
20850.0 0.00027858
20870.0 0.00028154
20890.0 0.00028441
20910.0 0.00028709
20930.0 0.00028984
20950.0 0.00029269
20970.0 0.00029549
20990.0 0.00029827
21010.0 0.0003012
21030.0 0.00030403
21050.0 0.00030666
21070.0 0.00030917
21090.0 0.0003115
21110.0 0.0003134
21130.0 0.00031494
21150.0 0.00031614
21170.0 0.00031689
21190.0 0.0003172
21210.0 0.00031709
21230.0 0.00031654
21250.0 0.00031561
21270.0 0.00031432
21290.0 0.00031265
21310.0 0.00031068
21330.0 0.00030856
21350.0 0.00030615
21370.0 0.00030352
21390.0 0.00030085
21410.0 0.00029809
21430.0 0.00029512
21450.0 0.00029222
21470.0 0.00028943
21490.0 0.00028661
21510.0 0.00028385
21530.0 0.00028131
21550.0 0.00027891
21570.0 0.00027661
21590.0 0.00027458
21610.0 0.00027284
21630.0 0.00027131
21650.0 0.00027007
21670.0 0.00026922
21690.0 0.00026869
21710.0 0.00026851
21730.0 0.0002687
21750.0 0.00026924
21770.0 0.00027021
21790.0 0.00027157
21810.0 0.00027325
21830.0 0.00027531
21850.0 0.0002778
21870.0 0.00028057
21890.0 0.00028353
21910.0 0.00028691
21930.0 0.00029054
21950.0 0.00029424
21970.0 0.00029818
21990.0 0.00030246
22010.0 0.00030664
22030.0 0.0003108
22050.0 0.00031511
22070.0 0.00031937
22090.0 0.00032335
22110.0 0.00032729
22130.0 0.00033113
22150.0 0.0003346
22170.0 0.00033774
22190.0 0.00034066
22210.0 0.00034315
22230.0 0.00034507
22250.0 0.00034656
22270.0 0.00034755
22290.0 0.00034794
22310.0 0.00034777
22330.0 0.00034697
22350.0 0.00034554
22370.0 0.00034355
22390.0 0.00034091
22410.0 0.00033754
22430.0 0.00033374
22450.0 0.00032945
22470.0 0.00032448
22490.0 0.0003191
22510.0 0.0003135
22530.0 0.0003073
22550.0 0.00030066
22570.0 0.00029406
22590.0 0.00028727
22610.0 0.00028012
22630.0 0.00027299
22650.0 0.00026614
22670.0 0.00025906
22690.0 0.00025198
22710.0 0.00024528
22730.0 0.00023876
22750.0 0.00023209
22770.0 0.00022593
22790.0 0.00022022
22810.0 0.00021466
22830.0 0.00020941
22850.0 0.00020476
22870.0 0.00020045
22890.0 0.00019643
22910.0 0.000193
22930.0 0.00019012
22950.0 0.00018766
22970.0 0.00018572
22990.0 0.00018445
23010.0 0.0001837
23030.0 0.0001835
23050.0 0.00018387
23070.0 0.00018476
23090.0 0.00018624
23110.0 0.00018825
23130.0 0.00019064
23150.0 0.00019347
23170.0 0.00019677
23190.0 0.00020028
23210.0 0.0002039
23230.0 0.00020783
23250.0 0.00021183
