#lamb flux
1010.0 2.1077e-05
1030.0 2.7685e-05
1050.0 3.5555e-05
1070.0 4.466e-05
1090.0 5.5158e-05
1110.0 6.6065e-05
1130.0 7.6994e-05
1150.0 8.8121e-05
1170.0 9.9044e-05
1190.0 0.00010859
1210.0 0.00011723
1230.0 0.0001249
1250.0 0.00013089
1270.0 0.00013501
1290.0 0.000138
1310.0 0.00013929
1330.0 0.00013865
1350.0 0.00013674
1370.0 0.00013404
1390.0 0.00012999
1410.0 0.00012488
1430.0 0.00011934
1450.0 0.00011333
1470.0 0.0001069
1490.0 0.00010046
1510.0 9.4216e-05
1530.0 8.7854e-05
1550.0 8.1788e-05
1570.0 7.6208e-05
1590.0 7.1093e-05
1610.0 6.6468e-05
1630.0 6.2369e-05
1650.0 5.8754e-05
1670.0 5.5499e-05
1690.0 5.2629e-05
1710.0 5.0194e-05
1730.0 4.8084e-05
1750.0 4.596e-05
1770.0 4.4123e-05
1790.0 4.253e-05
1810.0 4.1103e-05
1830.0 3.9834e-05
1850.0 3.8539e-05
1870.0 3.7392e-05
1890.0 3.6345e-05
1910.0 3.5436e-05
1930.0 3.4664e-05
1950.0 3.3981e-05
1970.0 3.3426e-05
1990.0 3.3046e-05
2010.0 3.2828e-05
2030.0 3.2791e-05
2050.0 3.3013e-05
2070.0 3.3533e-05
2090.0 3.4353e-05
2110.0 3.5562e-05
2130.0 3.7243e-05
2150.0 3.9431e-05
2170.0 4.2178e-05
2190.0 4.5605e-05
2210.0 4.9763e-05
2230.0 5.4679e-05
2250.0 6.0434e-05
2270.0 6.713e-05
2290.0 7.4735e-05
2310.0 8.3253e-05
2330.0 9.2776e-05
2350.0 0.00010328
2370.0 0.00011465
2390.0 0.0001269
2410.0 0.00013999
2430.0 0.00015366
2450.0 0.00016772
2470.0 0.00018201
2490.0 0.00019623
2510.0 0.00021014
2530.0 0.00022384
2550.0 0.00023771
2570.0 0.0002526
2590.0 0.00026979
2610.0 0.0002921
2630.0 0.00032224
2650.0 0.00036162
2670.0 0.00041346
2690.0 0.00048077
2710.0 0.00056037
2730.0 0.00064974
2750.0 0.00075162
2770.0 0.00085801
2790.0 0.00096098
2810.0 0.0010602
2830.0 0.0011544
2850.0 0.0012331
2870.0 0.0013009
2890.0 0.0013613
2910.0 0.0014141
2930.0 0.0014598
2950.0 0.0015034
2970.0 0.0015454
2990.0 0.0015842
3010.0 0.0016214
3030.0 0.0016588
3050.0 0.0016948
3070.0 0.0017272
3090.0 0.0017585
3110.0 0.0017873
3130.0 0.0018111
3150.0 0.0018302
3170.0 0.0018452
3190.0 0.001855
3210.0 0.0018614
3230.0 0.0018675
3250.0 0.0018754
3270.0 0.0018864
3290.0 0.0019027
3310.0 0.0019261
3330.0 0.001954
3350.0 0.0019838
3370.0 0.002016
3390.0 0.0020487
3410.0 0.002078
3430.0 0.0021043
3450.0 0.0021248
3470.0 0.002206
3490.0 0.0021845
3510.0 0.0019753
3530.0 0.00213
3550.0 0.0024625
3570.0 0.0027136
3590.0 0.0030554
3610.0 0.0032574
3630.0 0.0034078
3650.0 0.0030813
3670.0 0.002696
3690.0 0.0025903
3710.0 0.002837
3730.0 0.0032872
3750.0 0.0033743
3770.0 0.0034016
3790.0 0.0035025
3810.0 0.0032748
3830.0 0.002921
3850.0 0.0026386
3870.0 0.0024645
3890.0 0.0027406
3910.0 0.0029772
3930.0 0.0030509
3950.0 0.0030911
3970.0 0.0032237
3990.0 0.0034117
4010.0 0.0034456
4030.0 0.0032735
4050.0 0.0029674
4070.0 0.0029308
4090.0 0.0030846
4110.0 0.0032682
4130.0 0.0031771
4150.0 0.0030899
4170.0 0.0030553
4190.0 0.0032025
4210.0 0.0031785
4230.0 0.0029419
4250.0 0.0026311
4270.0 0.0023626
4290.0 0.0021488
4310.0 0.0020022
4330.0 0.0019656
4350.0 0.0021531
4370.0 0.0022115
4390.0 0.0022795
4410.0 0.0023979
4430.0 0.0024579
4450.0 0.0024017
4470.0 0.0023388
4490.0 0.0023991
4510.0 0.0024525
4530.0 0.0025085
4550.0 0.0025535
4570.0 0.0025626
4590.0 0.0026433
4610.0 0.0026859
4630.0 0.0027734
4650.0 0.0028586
4670.0 0.0028025
4690.0 0.002623
4710.0 0.0023867
4730.0 0.0022824
4750.0 0.00226
4770.0 0.0021785
4790.0 0.0020786
4810.0 0.0020089
4830.0 0.0020494
4850.0 0.0020599
4870.0 0.0020382
4890.0 0.001973
4910.0 0.0018178
4930.0 0.0018419
4950.0 0.0017164
4970.0 0.0015602
4990.0 0.0015227
5010.0 0.001421
5030.0 0.0013341
5050.0 0.0013346
5070.0 0.001447
5090.0 0.0015025
5110.0 0.0016663
5130.0 0.0017168
5150.0 0.0017704
5170.0 0.0018262
5190.0 0.0017953
5210.0 0.0018012
5230.0 0.0018363
5250.0 0.0018422
5270.0 0.0018873
5290.0 0.0018726
5310.0 0.0018371
5330.0 0.0017424
5350.0 0.0016495
5370.0 0.0015467
5390.0 0.0015671
5410.0 0.0015982
5430.0 0.0015956
5450.0 0.0016078
5470.0 0.0015929
5490.0 0.0015684
5510.0 0.0015527
5530.0 0.0015178
5550.0 0.0015231
5570.0 0.0015408
5590.0 0.0015611
5610.0 0.0015462
5630.0 0.0015112
5650.0 0.0014934
5670.0 0.0014619
5690.0 0.0014188
5710.0 0.0013737
5730.0 0.0013541
5750.0 0.0013501
5770.0 0.0013243
5790.0 0.0012978
5810.0 0.0012892
5830.0 0.0013132
5850.0 0.0013341
5870.0 0.0013343
5890.0 0.0013162
5910.0 0.0013142
5930.0 0.0013196
5950.0 0.0013144
5970.0 0.0012989
5990.0 0.0012789
6010.0 0.0013032
6030.0 0.0013095
6050.0 0.0012803
6070.0 0.0012827
6090.0 0.0012782
6110.0 0.001281
6130.0 0.0012803
6150.0 0.0012421
6170.0 0.0011503
6190.0 0.0010632
6210.0 0.0010246
6230.0 0.0010084
6250.0 0.0010143
6270.0 0.0010526
6290.0 0.0010836
6310.0 0.0011203
6330.0 0.0011527
6350.0 0.0011696
6370.0 0.0011707
6390.0 0.0011418
6410.0 0.0011177
6430.0 0.0010843
6450.0 0.0010573
6470.0 0.0010418
6490.0 0.0010434
6510.0 0.0010427
6530.0 0.0010407
6550.0 0.001019
6570.0 0.001001
6590.0 0.00099428
6610.0 0.0009715
6630.0 0.00095801
6650.0 0.0009415
6670.0 0.00091221
6690.0 0.00088318
6710.0 0.00086002
6730.0 0.00085109
6750.0 0.0008376
6770.0 0.00082888
6790.0 0.00082947
6810.0 0.00081567
6830.0 0.00080624
6850.0 0.00079768
6870.0 0.00077886
6890.0 0.00077454
6910.0 0.00076807
6930.0 0.00075328
6950.0 0.00075329
6970.0 0.00074376
6990.0 0.00074368
7010.0 0.00073128
7030.0 0.00072472
7050.0 0.00072038
7070.0 0.00070651
7090.0 0.00068628
7110.0 0.00066826
7130.0 0.0006687
7150.0 0.00067753
7170.0 0.00068251
7190.0 0.00069407
7210.0 0.00070132
7230.0 0.00070925
7250.0 0.00071649
7270.0 0.00070248
7290.0 0.00069755
7310.0 0.00068367
7330.0 0.00065655
7350.0 0.00064346
7370.0 0.0006346
7390.0 0.00062605
7410.0 0.00063057
7430.0 0.00062642
7450.0 0.00061591
7470.0 0.00060463
7490.0 0.0005841
7510.0 0.00054838
7530.0 0.00056286
7550.0 0.00056775
7570.0 0.0005581
7590.0 0.00051831
7610.0 0.00052938
7630.0 0.00052581
7650.0 0.00052877
7670.0 0.00052849
7690.0 0.00054016
7710.0 0.00053432
7730.0 0.00055582
7750.0 0.00056831
7770.0 0.00059401
7790.0 0.00061653
7810.0 0.00063122
7830.0 0.00065549
7850.0 0.0006525
7870.0 0.00066317
7890.0 0.00065349
7910.0 0.00063227
7930.0 0.00062358
7950.0 0.00061707
7970.0 0.00061173
7990.0 0.0006127
8010.0 0.00055802
8030.0 0.00055463
8050.0 0.00054349
8070.0 0.00053831
8090.0 0.00052205
8110.0 0.00052601
8130.0 0.00053346
8150.0 0.00054333
8170.0 0.0005383
8190.0 0.00054729
8210.0 0.00054013
8230.0 0.00051341
8250.0 0.00050527
8270.0 0.00049643
8290.0 0.00048788
8310.0 0.00046902
8330.0 0.00047429
8350.0 0.00047252
8370.0 0.00047351
8390.0 0.00048173
8410.0 0.00047854
8430.0 0.00048428
8450.0 0.00048979
8470.0 0.00049399
8490.0 0.00050021
8510.0 0.000491
8530.0 0.00047321
8550.0 0.00047698
8570.0 0.0004771
8590.0 0.00046229
8610.0 0.00047204
8630.0 0.00046532
8650.0 0.00045628
8670.0 0.00045318
8690.0 0.00045215
8710.0 0.0004334
8730.0 0.0004403
8750.0 0.00042558
8770.0 0.00042388
8790.0 0.00041181
8810.0 0.00040659
8830.0 0.00040694
8850.0 0.0003895
8870.0 0.00037006
8890.0 0.0003653
8910.0 0.00034463
8930.0 0.00031834
8950.0 0.00031826
8970.0 0.00030694
8990.0 0.00030457
9010.0 0.00030166
9030.0 0.00029955
9050.0 0.00029743
9070.0 0.00029529
9090.0 0.00029314
9110.0 0.00029095
9130.0 0.00028877
9150.0 0.00028661
9170.0 0.00028444
9190.0 0.00028226
9210.0 0.00028007
9230.0 0.00027788
9250.0 0.00027569
9270.0 0.00027349
9290.0 0.00027129
9310.0 0.0002691
9330.0 0.00026691
9350.0 0.00026472
9370.0 0.00026254
9390.0 0.00026036
9410.0 0.00025819
9430.0 0.00025602
9450.0 0.00025386
9470.0 0.00025187
9490.0 0.0002498
9510.0 0.00024758
9530.0 0.00024539
9550.0 0.00024324
9570.0 0.00024112
9590.0 0.00023901
9610.0 0.00023693
9630.0 0.00023487
9650.0 0.00023282
9670.0 0.00023078
9690.0 0.00022876
9710.0 0.00022676
9730.0 0.00022476
9750.0 0.00022279
9770.0 0.00022084
9790.0 0.0002189
9810.0 0.00021697
9830.0 0.00021504
9850.0 0.00021286
9870.0 0.00021092
9890.0 0.00020924
9910.0 0.00020752
9930.0 0.00020543
9950.0 0.00020364
9970.0 0.00020203
9990.0 0.00020036
10010.0 0.00019869
10030.0 0.00019702
10050.0 0.00019534
10070.0 0.00019369
10090.0 0.00019207
10110.0 0.00019042
10130.0 0.00018879
10150.0 0.00018722
10170.0 0.00018565
10190.0 0.00018408
10210.0 0.00018256
10230.0 0.00018107
10250.0 0.00017957
10270.0 0.0001781
10290.0 0.00017667
10310.0 0.00017524
10330.0 0.00017381
10350.0 0.00017243
10370.0 0.00017107
10390.0 0.0001697
10410.0 0.00016835
10430.0 0.00016704
10450.0 0.00016576
10470.0 0.00016449
10490.0 0.00016325
10510.0 0.00016203
10530.0 0.00016079
10550.0 0.00015958
10570.0 0.00015842
10590.0 0.00015726
10610.0 0.0001561
10630.0 0.00015499
10650.0 0.00015389
10670.0 0.00015278
10690.0 0.0001517
10710.0 0.00015066
10730.0 0.00014961
10750.0 0.00014856
10770.0 0.00014756
10790.0 0.00014658
10810.0 0.00014559
10830.0 0.00014462
10850.0 0.0001437
10870.0 0.00014275
10890.0 0.00014182
10910.0 0.00014095
10930.0 0.00014009
10950.0 0.00013923
10970.0 0.00013843
10990.0 0.00013768
11010.0 0.00014692
11030.0 0.00014636
11050.0 0.00014581
11070.0 0.00014524
11090.0 0.0001446
11110.0 0.00014394
11130.0 0.00014325
11150.0 0.0001425
11170.0 0.0001417
11190.0 0.0001409
11210.0 0.00014006
11230.0 0.00013918
11250.0 0.00013833
11270.0 0.0001375
11290.0 0.00013666
11310.0 0.00013583
11330.0 0.0001351
11350.0 0.00013437
11370.0 0.00013367
11390.0 0.00013304
11410.0 0.00013245
11430.0 0.00013185
11450.0 0.00013129
11470.0 0.00013076
11490.0 0.00013023
11510.0 0.00012966
11530.0 0.00012912
11550.0 0.00012856
11570.0 0.00012795
11590.0 0.00012733
11610.0 0.00012671
11630.0 0.00012603
11650.0 0.00012532
11670.0 0.00012464
11690.0 0.00012395
11710.0 0.00012323
11730.0 0.00012252
11750.0 0.00012186
11770.0 0.00012118
11790.0 0.0001205
11810.0 0.00011986
11830.0 0.00011924
11850.0 0.00011859
11870.0 0.00011799
11890.0 0.00011743
11910.0 0.00011687
11930.0 0.00011633
11950.0 0.00011586
11970.0 0.00011542
11990.0 0.00011501
12010.0 0.00011466
12030.0 0.00011439
12050.0 0.00011417
12070.0 0.00011402
12090.0 0.00011397
12110.0 0.00011398
12130.0 0.00011406
12150.0 0.00011421
12170.0 0.00011442
12190.0 0.00011469
12210.0 0.000115
12230.0 0.00011535
12250.0 0.00011573
12270.0 0.00011612
12290.0 0.00011653
12310.0 0.00011692
12330.0 0.00011731
12350.0 0.00011769
12370.0 0.00011803
12390.0 0.00011835
12410.0 0.00011862
12430.0 0.00011884
12450.0 0.00011901
12470.0 0.00011911
12490.0 0.00011914
12510.0 0.00011911
12530.0 0.00011898
12550.0 0.00011876
12570.0 0.00011846
12590.0 0.00011808
12610.0 0.00011758
12630.0 0.000117
12650.0 0.00011637
12670.0 0.00011565
12690.0 0.00011485
12710.0 0.00011402
12730.0 0.00011315
12750.0 0.00011219
12770.0 0.00011122
12790.0 0.00011027
12810.0 0.00010929
12830.0 0.00010828
12850.0 0.00010734
12870.0 0.00010642
12890.0 0.0001055
12910.0 0.00010462
12930.0 0.00010382
12950.0 0.00010302
12970.0 0.00010225
12990.0 0.00010156
13010.0 0.00010092
13030.0 0.00010029
13050.0 9.9703e-05
13070.0 9.9175e-05
13090.0 9.8648e-05
13110.0 9.8139e-05
13130.0 9.767e-05
13150.0 9.7215e-05
13170.0 9.6749e-05
13190.0 9.6313e-05
13210.0 9.5902e-05
13230.0 9.5484e-05
13250.0 9.5068e-05
13270.0 9.4675e-05
13290.0 9.4275e-05
13310.0 9.3855e-05
13330.0 9.3441e-05
13350.0 9.3025e-05
13370.0 9.2579e-05
13390.0 9.2105e-05
13410.0 9.1637e-05
13430.0 9.1138e-05
13450.0 9.0599e-05
13470.0 9.0046e-05
13490.0 8.9483e-05
13510.0 8.8861e-05
13530.0 8.8222e-05
13550.0 8.7585e-05
13570.0 8.6919e-05
13590.0 8.6217e-05
13610.0 8.5519e-05
13630.0 8.4825e-05
13650.0 8.4089e-05
13670.0 8.3345e-05
13690.0 8.2614e-05
13710.0 8.1863e-05
13730.0 8.1069e-05
13750.0 8.0309e-05
13770.0 7.9548e-05
13790.0 7.876e-05
13810.0 7.7973e-05
13830.0 7.7216e-05
13850.0 7.6436e-05
13870.0 7.5646e-05
13890.0 7.4885e-05
13910.0 7.4136e-05
13930.0 7.3369e-05
13950.0 7.2616e-05
13970.0 7.1907e-05
13990.0 7.1191e-05
14010.0 7.0476e-05
14030.0 6.9792e-05
14050.0 6.9124e-05
14070.0 6.8435e-05
14090.0 6.7772e-05
14110.0 6.7132e-05
14130.0 6.6486e-05
14150.0 6.5835e-05
14170.0 6.5215e-05
14190.0 6.46e-05
14210.0 6.3972e-05
14230.0 6.3359e-05
14250.0 6.2767e-05
14270.0 6.2163e-05
14290.0 6.1561e-05
14310.0 6.0994e-05
14330.0 6.0436e-05
14350.0 5.988e-05
14370.0 5.9348e-05
14390.0 5.8844e-05
14410.0 5.8342e-05
14430.0 5.7855e-05
14450.0 5.7395e-05
14470.0 5.6948e-05
14490.0 5.6499e-05
14510.0 5.6073e-05
14530.0 5.5663e-05
14550.0 5.5251e-05
14570.0 5.4844e-05
14590.0 5.4452e-05
14610.0 5.4058e-05
14630.0 5.3657e-05
14650.0 5.3267e-05
14670.0 5.2884e-05
14690.0 5.2495e-05
14710.0 5.2105e-05
14730.0 5.1733e-05
14750.0 5.1359e-05
14770.0 5.0984e-05
14790.0 5.0619e-05
14810.0 5.0264e-05
14830.0 4.99e-05
14850.0 4.9545e-05
14870.0 4.9201e-05
14890.0 4.8857e-05
14910.0 4.8513e-05
14930.0 4.8182e-05
14950.0 4.7861e-05
14970.0 4.7541e-05
14990.0 4.7235e-05
15010.0 4.6946e-05
15030.0 4.6666e-05
15050.0 4.6392e-05
15070.0 4.6135e-05
15090.0 4.5886e-05
15110.0 4.5639e-05
15130.0 4.5395e-05
15150.0 4.5159e-05
15170.0 4.492e-05
15190.0 4.4681e-05
15210.0 4.4447e-05
15230.0 4.4215e-05
15250.0 4.3979e-05
15270.0 4.3746e-05
15290.0 4.3519e-05
15310.0 4.329e-05
15330.0 4.306e-05
15350.0 4.2835e-05
15370.0 4.2612e-05
15390.0 4.2385e-05
15410.0 4.2162e-05
15430.0 4.1944e-05
15450.0 4.1724e-05
15470.0 4.1503e-05
15490.0 4.1289e-05
15510.0 4.1075e-05
15530.0 4.086e-05
15550.0 4.0648e-05
15570.0 4.044e-05
15590.0 4.023e-05
15610.0 4.002e-05
15630.0 3.9816e-05
15650.0 3.9613e-05
15670.0 3.9409e-05
15690.0 3.9208e-05
15710.0 3.9012e-05
15730.0 3.8813e-05
15750.0 3.8616e-05
15770.0 3.8423e-05
15790.0 3.8232e-05
15810.0 3.8037e-05
15830.0 3.7848e-05
15850.0 3.7663e-05
15870.0 3.7476e-05
15890.0 3.7291e-05
15910.0 3.7111e-05
15930.0 3.6931e-05
15950.0 3.6749e-05
15970.0 3.6572e-05
15990.0 3.6398e-05
16010.0 3.6223e-05
16030.0 3.6048e-05
16050.0 3.5881e-05
16070.0 3.5712e-05
16090.0 3.5544e-05
16110.0 3.5379e-05
16130.0 3.5218e-05
16150.0 3.5052e-05
16170.0 3.489e-05
16190.0 3.4734e-05
16210.0 3.4576e-05
16230.0 3.4419e-05
16250.0 3.4266e-05
16270.0 3.4116e-05
16290.0 3.3963e-05
16310.0 3.3813e-05
16330.0 3.3668e-05
16350.0 3.3522e-05
16370.0 3.3374e-05
16390.0 3.3233e-05
16410.0 3.3093e-05
16430.0 3.2952e-05
16450.0 3.2813e-05
16470.0 3.2679e-05
16490.0 3.2543e-05
16510.0 3.2408e-05
16530.0 3.2277e-05
16550.0 3.2147e-05
16570.0 3.2016e-05
16590.0 3.1887e-05
16610.0 3.1763e-05
16630.0 3.1638e-05
16650.0 3.1513e-05
16670.0 3.1392e-05
16690.0 3.1273e-05
16710.0 3.115e-05
16730.0 3.1032e-05
16750.0 3.0917e-05
16770.0 3.0801e-05
16790.0 3.0684e-05
16810.0 3.0573e-05
16830.0 3.0463e-05
16850.0 3.035e-05
16870.0 3.0241e-05
16890.0 3.0135e-05
16910.0 3.0027e-05
16930.0 2.9919e-05
16950.0 2.9816e-05
16970.0 2.9713e-05
16990.0 2.9609e-05
17010.0 2.9508e-05
17030.0 2.9411e-05
17050.0 2.931e-05
17070.0 2.9211e-05
17090.0 2.9115e-05
17110.0 2.902e-05
17130.0 2.8922e-05
17150.0 2.8828e-05
17170.0 2.8737e-05
17190.0 2.8644e-05
17210.0 2.8552e-05
17230.0 2.8464e-05
17250.0 2.8374e-05
17270.0 2.8283e-05
17290.0 2.8196e-05
17310.0 2.811e-05
17330.0 2.8023e-05
17350.0 2.7935e-05
17370.0 2.7854e-05
17390.0 2.777e-05
17410.0 2.7685e-05
17430.0 2.7604e-05
17450.0 2.7524e-05
17470.0 2.744e-05
17490.0 2.7359e-05
17510.0 2.7281e-05
17530.0 2.7202e-05
17550.0 2.7121e-05
17570.0 2.7044e-05
17590.0 2.6969e-05
17610.0 2.689e-05
17630.0 2.6813e-05
17650.0 2.6739e-05
17670.0 2.6664e-05
17690.0 2.6585e-05
17710.0 2.6512e-05
17730.0 2.644e-05
17750.0 2.6364e-05
17770.0 2.6291e-05
17790.0 2.6221e-05
17810.0 2.6147e-05
17830.0 2.6073e-05
17850.0 2.6002e-05
17870.0 2.5932e-05
17890.0 2.5858e-05
17910.0 2.5786e-05
17930.0 2.5718e-05
17950.0 2.5647e-05
17970.0 2.5576e-05
17990.0 2.5507e-05
18010.0 2.5439e-05
18030.0 2.5366e-05
18050.0 2.5296e-05
18070.0 2.5229e-05
18090.0 2.5158e-05
18110.0 2.5087e-05
18130.0 2.502e-05
18150.0 2.4952e-05
18170.0 2.4881e-05
18190.0 2.4812e-05
18210.0 2.4746e-05
18230.0 2.4675e-05
18250.0 2.4603e-05
18270.0 2.4536e-05
18290.0 2.4468e-05
18310.0 2.4397e-05
18330.0 2.4328e-05
18350.0 2.4262e-05
18370.0 2.4191e-05
18390.0 2.412e-05
18410.0 2.4052e-05
18430.0 2.3982e-05
18450.0 2.3909e-05
18470.0 2.384e-05
18490.0 2.3772e-05
18510.0 2.37e-05
18530.0 2.3628e-05
18550.0 2.356e-05
18570.0 2.3489e-05
18590.0 2.3414e-05
18610.0 2.3343e-05
18630.0 2.3273e-05
18650.0 2.3199e-05
18670.0 2.3125e-05
18690.0 2.3055e-05
18710.0 2.2982e-05
18730.0 2.2906e-05
18750.0 2.2833e-05
18770.0 2.2761e-05
18790.0 2.2683e-05
18810.0 2.2607e-05
18830.0 2.2534e-05
18850.0 2.2458e-05
18870.0 2.238e-05
18890.0 2.2305e-05
18910.0 2.223e-05
18930.0 2.215e-05
18950.0 2.2072e-05
18970.0 2.1996e-05
18990.0 2.1917e-05
19010.0 2.1833e-05
19030.0 2.1756e-05
19050.0 2.1677e-05
19070.0 2.1595e-05
19090.0 2.1513e-05
19110.0 2.1435e-05
19130.0 2.1351e-05
19150.0 2.1267e-05
19170.0 2.1185e-05
19190.0 2.1102e-05
19210.0 2.1015e-05
19230.0 2.093e-05
19250.0 2.0847e-05
19270.0 2.0761e-05
19290.0 2.0673e-05
19310.0 2.0588e-05
19330.0 2.0502e-05
19350.0 2.0411e-05
19370.0 2.0322e-05
19390.0 2.0235e-05
19410.0 2.0144e-05
19430.0 2.0052e-05
19450.0 1.9964e-05
19470.0 1.9874e-05
19490.0 1.978e-05
19510.0 1.9688e-05
19530.0 1.9597e-05
19550.0 1.9501e-05
19570.0 1.9405e-05
19590.0 1.9313e-05
19610.0 1.9218e-05
19630.0 1.912e-05
19650.0 1.9025e-05
19670.0 1.893e-05
19690.0 1.8831e-05
19710.0 1.8732e-05
19730.0 1.8635e-05
19750.0 1.8537e-05
19770.0 1.8434e-05
19790.0 1.8335e-05
19810.0 1.8236e-05
19830.0 1.8134e-05
19850.0 1.8032e-05
19870.0 1.7932e-05
19890.0 1.783e-05
19910.0 1.7725e-05
19930.0 1.7624e-05
19950.0 1.7524e-05
19970.0 1.7423e-05
19990.0 1.7323e-05
20010.0 1.7229e-05
20030.0 1.7134e-05
20050.0 1.704e-05
20070.0 1.6949e-05
20090.0 1.686e-05
20110.0 1.6766e-05
20130.0 1.6675e-05
20150.0 1.6586e-05
20170.0 1.6495e-05
20190.0 1.6402e-05
20210.0 1.6313e-05
20230.0 1.6223e-05
20250.0 1.613e-05
20270.0 1.604e-05
20290.0 1.5952e-05
20310.0 1.5863e-05
20330.0 1.5774e-05
20350.0 1.569e-05
20370.0 1.5608e-05
20390.0 1.5526e-05
20410.0 1.5447e-05
20430.0 1.5372e-05
20450.0 1.5297e-05
20470.0 1.5225e-05
20490.0 1.5158e-05
20510.0 1.5094e-05
20530.0 1.5031e-05
20550.0 1.4973e-05
20570.0 1.492e-05
20590.0 1.487e-05
20610.0 1.4823e-05
20630.0 1.4781e-05
20650.0 1.4743e-05
20670.0 1.4708e-05
20690.0 1.4677e-05
20710.0 1.465e-05
20730.0 1.4625e-05
20750.0 1.4603e-05
20770.0 1.4582e-05
20790.0 1.4562e-05
20810.0 1.4542e-05
20830.0 1.4521e-05
20850.0 1.4498e-05
20870.0 1.4473e-05
20890.0 1.4444e-05
20910.0 1.441e-05
20930.0 1.4371e-05
20950.0 1.4326e-05
20970.0 1.4276e-05
20990.0 1.4219e-05
21010.0 1.4155e-05
21030.0 1.4085e-05
21050.0 1.4009e-05
21070.0 1.3926e-05
21090.0 1.3836e-05
21110.0 1.3742e-05
21130.0 1.3645e-05
21150.0 1.3542e-05
21170.0 1.3435e-05
21190.0 1.3329e-05
21210.0 1.3218e-05
21230.0 1.3105e-05
21250.0 1.2993e-05
21270.0 1.2881e-05
21290.0 1.2768e-05
21310.0 1.2654e-05
21330.0 1.2545e-05
21350.0 1.2433e-05
21370.0 1.232e-05
21390.0 1.221e-05
21410.0 1.21e-05
21430.0 1.1986e-05
21450.0 1.1874e-05
21470.0 1.1763e-05
21490.0 1.1649e-05
21510.0 1.1533e-05
21530.0 1.1419e-05
21550.0 1.1303e-05
21570.0 1.1183e-05
21590.0 1.1064e-05
21610.0 1.0946e-05
21630.0 1.0825e-05
21650.0 1.0701e-05
21670.0 1.0583e-05
21690.0 1.0464e-05
21710.0 1.0343e-05
21730.0 1.0224e-05
21750.0 1.0109e-05
21770.0 9.9913e-06
21790.0 9.8755e-06
21810.0 9.7638e-06
21830.0 9.6532e-06
21850.0 9.542e-06
21870.0 9.4344e-06
21890.0 9.3306e-06
21910.0 9.2257e-06
21930.0 9.1222e-06
21950.0 9.0223e-06
21970.0 8.9225e-06
21990.0 8.8209e-06
22010.0 8.7228e-06
22030.0 8.626e-06
22050.0 8.5275e-06
22070.0 8.4291e-06
22090.0 8.3333e-06
22110.0 8.2359e-06
22130.0 8.1366e-06
22150.0 8.0389e-06
22170.0 7.9417e-06
22190.0 7.8413e-06
22210.0 7.7409e-06
22230.0 7.6435e-06
22250.0 7.5444e-06
22270.0 7.444e-06
22290.0 7.346e-06
22310.0 7.2491e-06
22330.0 7.1495e-06
22350.0 7.0517e-06
22370.0 6.9568e-06
22390.0 6.8615e-06
22410.0 6.7656e-06
22430.0 6.6742e-06
22450.0 6.5847e-06
22470.0 6.4949e-06
22490.0 6.4078e-06
22510.0 6.3246e-06
22530.0 6.2414e-06
22550.0 6.1595e-06
22570.0 6.0823e-06
22590.0 6.0073e-06
22610.0 5.933e-06
22630.0 5.8617e-06
22650.0 5.7944e-06
22670.0 5.7275e-06
22690.0 5.6624e-06
22710.0 5.6005e-06
22730.0 5.5405e-06
22750.0 5.4803e-06
22770.0 5.4233e-06
22790.0 5.3689e-06
22810.0 5.3152e-06
22830.0 5.2631e-06
