#lamb flux
1010.0 4.6938e-06
1030.0 4.9807e-06
1050.0 5.3107e-06
1070.0 5.6822e-06
1090.0 6.1042e-06
1110.0 6.5371e-06
1130.0 6.9729e-06
1150.0 7.4295e-06
1170.0 7.9006e-06
1190.0 8.3474e-06
1210.0 8.8003e-06
1230.0 9.2685e-06
1250.0 9.7273e-06
1270.0 1.0173e-05
1290.0 1.0644e-05
1310.0 1.1115e-05
1330.0 1.1567e-05
1350.0 1.2024e-05
1370.0 1.2496e-05
1390.0 1.2957e-05
1410.0 1.3404e-05
1430.0 1.3871e-05
1450.0 1.4339e-05
1470.0 1.4791e-05
1490.0 1.5249e-05
1510.0 1.5732e-05
1530.0 1.6191e-05
1550.0 1.6643e-05
1570.0 1.7111e-05
1590.0 1.758e-05
1610.0 1.8029e-05
1630.0 1.8492e-05
1650.0 1.8967e-05
1670.0 1.9427e-05
1690.0 1.9882e-05
1710.0 2.0354e-05
1730.0 2.083e-05
1750.0 2.1277e-05
1770.0 2.1739e-05
1790.0 2.221e-05
1810.0 2.2667e-05
1830.0 2.3117e-05
1850.0 2.3594e-05
1870.0 2.4061e-05
1890.0 2.4513e-05
1910.0 2.4975e-05
1930.0 2.5449e-05
1950.0 2.5903e-05
1970.0 2.6353e-05
1990.0 2.6821e-05
2010.0 2.7284e-05
2030.0 2.7732e-05
2050.0 2.8195e-05
2070.0 2.8673e-05
2090.0 2.9126e-05
2110.0 2.958e-05
2130.0 3.005e-05
2150.0 3.0515e-05
2170.0 3.0963e-05
2190.0 3.143e-05
2210.0 3.1904e-05
2230.0 3.2364e-05
2250.0 3.2825e-05
2270.0 3.331e-05
2290.0 3.3784e-05
2310.0 3.4244e-05
2330.0 3.4723e-05
2350.0 3.5209e-05
2370.0 3.5681e-05
2390.0 3.6162e-05
2410.0 3.6668e-05
2430.0 3.7159e-05
2450.0 3.7634e-05
2470.0 3.81e-05
2490.0 3.8535e-05
2510.0 3.8908e-05
2530.0 3.9276e-05
2550.0 3.9734e-05
2570.0 4.0434e-05
2590.0 4.1584e-05
2610.0 4.3626e-05
2630.0 4.6818e-05
2650.0 5.1129e-05
2670.0 5.6709e-05
2690.0 6.3509e-05
2710.0 7.0742e-05
2730.0 7.7959e-05
2750.0 8.5292e-05
2770.0 9.2129e-05
2790.0 9.8232e-05
2810.0 0.00010398
2830.0 0.00010969
2850.0 0.00011496
2870.0 0.00012017
2890.0 0.00012562
2910.0 0.00013112
2930.0 0.00013647
2950.0 0.00014206
2970.0 0.00014781
2990.0 0.0001534
3010.0 0.00032931
3030.0 0.00034135
3050.0 0.0003535
3070.0 0.00036514
3090.0 0.00037736
3110.0 0.00039006
3130.0 0.0004026
3150.0 0.00041503
3170.0 0.00042775
3190.0 0.00043875
3210.0 0.00044727
3230.0 0.00045397
3250.0 0.00040008
3270.0 0.00034656
3290.0 0.00026468
3310.0 0.00029659
3330.0 0.00031943
3350.0 0.00034115
3370.0 0.0003627
3390.0 0.00038428
3410.0 0.00040586
3430.0 0.00042739
3450.0 0.00044898
3470.0 0.00047049
3490.0 0.00048869
3510.0 0.00049483
3530.0 0.00051779
3550.0 0.00063262
3570.0 0.00080194
3590.0 0.00090743
3610.0 0.0010329
3630.0 0.00096214
3650.0 0.00088009
3670.0 0.00084823
3690.0 0.0010082
3710.0 0.0012794
3730.0 0.0013754
3750.0 0.0014278
3770.0 0.001442
3790.0 0.0014181
3810.0 0.0012871
3830.0 0.00099679
3850.0 0.0007961
3870.0 0.00077548
3890.0 0.0010583
3910.0 0.001439
3930.0 0.0016872
3950.0 0.0017803
3970.0 0.0017712
3990.0 0.0020212
4010.0 0.0022594
4030.0 0.0021134
4050.0 0.0018489
4070.0 0.0015641
4090.0 0.0015548
4110.0 0.0017615
4130.0 0.0017878
4150.0 0.0018022
4170.0 0.001698
4190.0 0.001619
4210.0 0.001639
4230.0 0.0018838
4250.0 0.0019023
4270.0 0.0018898
4290.0 0.0018718
4310.0 0.0018734
4330.0 0.0020699
4350.0 0.0023838
4370.0 0.0024225
4390.0 0.0020964
4410.0 0.0017317
4430.0 0.0014847
4450.0 0.0012774
4470.0 0.0012377
4490.0 0.0014797
4510.0 0.0016601
4530.0 0.00182
4550.0 0.0019563
4570.0 0.0023111
4590.0 0.0032955
4610.0 0.0044146
4630.0 0.0045726
4650.0 0.0043409
4670.0 0.0046133
4690.0 0.0050608
4710.0 0.0044748
4730.0 0.0032951
4750.0 0.0025076
4770.0 0.0022829
4790.0 0.0022916
4810.0 0.0021482
4830.0 0.0023438
4850.0 0.0029757
4870.0 0.003696
4890.0 0.0033033
4910.0 0.0029036
4930.0 0.0032213
4950.0 0.0042322
4970.0 0.005491
4990.0 0.0056592
5010.0 0.0048757
5030.0 0.0036584
5050.0 0.0026232
5070.0 0.0022058
5090.0 0.0020923
5110.0 0.002123
5130.0 0.0022089
5150.0 0.0021796
5170.0 0.0022214
5190.0 0.0021509
5210.0 0.0022275
5230.0 0.0023943
5250.0 0.0026519
5270.0 0.0032839
5290.0 0.0037674
5310.0 0.0038055
5330.0 0.0039823
5350.0 0.0045169
5370.0 0.0048284
5390.0 0.0045029
5410.0 0.0038761
5430.0 0.0037065
5450.0 0.0043018
5470.0 0.0055809
5490.0 0.0069664
5510.0 0.0077054
5530.0 0.0079121
5550.0 0.0075857
5570.0 0.0071058
5590.0 0.006908
5610.0 0.0070324
5630.0 0.0072393
5650.0 0.0072955
5670.0 0.0072294
5690.0 0.0070703
5710.0 0.006384
5730.0 0.0053733
5750.0 0.0045373
5770.0 0.0045925
5790.0 0.005078
5810.0 0.0054973
5830.0 0.0057148
5850.0 0.0057471
5870.0 0.0053476
5890.0 0.0047126
5910.0 0.004643
5930.0 0.0050707
5950.0 0.0052757
5970.0 0.0048696
5990.0 0.0042231
6010.0 0.0034963
6030.0 0.0029362
6050.0 0.0028915
6070.0 0.0032867
6090.0 0.0034603
6110.0 0.0031641
6130.0 0.0029285
6150.0 0.003111
6170.0 0.0037248
6190.0 0.0044441
6210.0 0.0048323
6230.0 0.0046652
6250.0 0.004276
6270.0 0.0037003
6290.0 0.0030676
6310.0 0.002539
6330.0 0.0022935
6350.0 0.0023887
6370.0 0.0025896
6390.0 0.0028029
6410.0 0.0031892
6430.0 0.0039266
6450.0 0.0049451
6470.0 0.0056292
6490.0 0.0056435
6510.0 0.0055101
6530.0 0.0056146
6550.0 0.0057399
6570.0 0.0057906
6590.0 0.0057909
6610.0 0.0056335
6630.0 0.0056415
6650.0 0.0056606
6670.0 0.0054427
6690.0 0.0048805
6710.0 0.0041257
6730.0 0.0039503
6750.0 0.0042453
6770.0 0.0046161
6790.0 0.0047586
6810.0 0.0047049
6830.0 0.0046406
6850.0 0.0045395
6870.0 0.0042803
6890.0 0.0040332
6910.0 0.0038546
6930.0 0.0037153
6950.0 0.0039437
6970.0 0.0042924
6990.0 0.0045273
7010.0 0.0045802
7030.0 0.0043286
7050.0 0.0037578
7070.0 0.0030465
7090.0 0.0025883
7110.0 0.0024967
7130.0 0.0026335
7150.0 0.0026661
7170.0 0.0024523
7190.0 0.0024043
7210.0 0.0026488
7230.0 0.0030419
7250.0 0.0034768
7270.0 0.0036613
7290.0 0.0034473
7310.0 0.0030588
7330.0 0.0027993
7350.0 0.0027401
7370.0 0.0028118
7390.0 0.0029385
7410.0 0.0031485
7430.0 0.0035788
7450.0 0.0041604
7470.0 0.0047501
7490.0 0.0050248
7510.0 0.0048593
7530.0 0.0041876
7550.0 0.0033971
7570.0 0.0028132
7590.0 0.0024691
7610.0 0.0025297
7630.0 0.0029105
7650.0 0.0033328
7670.0 0.0037553
7690.0 0.0041088
7710.0 0.0043587
7730.0 0.0045641
7750.0 0.0047541
7770.0 0.0049187
7790.0 0.0049175
7810.0 0.00495
7830.0 0.0050856
7850.0 0.0050742
7870.0 0.0049198
7890.0 0.0045515
7910.0 0.0042591
7930.0 0.0040444
7950.0 0.0040256
7970.0 0.0039841
7990.0 0.0040081
8010.0 0.003979
8030.0 0.0039802
8050.0 0.0040716
8070.0 0.0039983
8090.0 0.0039849
8110.0 0.0038178
8130.0 0.0037821
8150.0 0.0036659
8170.0 0.0035517
8190.0 0.0034917
8210.0 0.0035059
8230.0 0.0032804
8250.0 0.003066
8270.0 0.0026705
8290.0 0.0021475
8310.0 0.0016611
8330.0 0.0012724
8350.0 0.0011199
8370.0 0.0012574
8390.0 0.0014493
8410.0 0.0015967
8430.0 0.0017682
8450.0 0.0018588
8470.0 0.0019417
8490.0 0.0021535
8510.0 0.0023941
8530.0 0.0027751
8550.0 0.0032466
8570.0 0.0036686
8590.0 0.0040038
8610.0 0.0042862
8630.0 0.0044842
8650.0 0.0045066
8670.0 0.0045062
8690.0 0.0046444
8710.0 0.0047204
8730.0 0.0048036
8750.0 0.0046946
8770.0 0.0046983
8790.0 0.0046218
8810.0 0.0042933
8830.0 0.004168
8850.0 0.0039223
8870.0 0.0037376
8890.0 0.0035615
8910.0 0.0036431
8930.0 0.0034197
8950.0 0.0032854
8970.0 0.0032299
8990.0 0.0031476
9010.0 0.0030876
9030.0 0.0030062
9050.0 0.002988
9070.0 0.0029797
9090.0 0.0029717
9110.0 0.0029641
9130.0 0.0029556
9150.0 0.0029468
9170.0 0.0029343
9190.0 0.0029173
9210.0 0.0029318
9230.0 0.0029166
9250.0 0.0029045
9270.0 0.0028931
9290.0 0.0028821
9310.0 0.0028714
9330.0 0.0028609
9350.0 0.0028504
9370.0 0.0028398
9390.0 0.0028291
9410.0 0.0028184
9430.0 0.0028074
9450.0 0.0027952
9470.0 0.0027833
9490.0 0.0027732
9510.0 0.0027625
9530.0 0.0027515
9550.0 0.0027403
9570.0 0.002729
9590.0 0.0027175
9610.0 0.002706
9630.0 0.0026944
9650.0 0.0026828
9670.0 0.0026712
9690.0 0.0026595
9710.0 0.0026478
9730.0 0.002636
9750.0 0.0026243
9770.0 0.0026125
9790.0 0.0026008
9810.0 0.002589
9830.0 0.0025772
9850.0 0.0025655
9870.0 0.0025537
9890.0 0.0025419
9910.0 0.0025302
9930.0 0.0025182
9950.0 0.0024906
9970.0 0.0024835
9990.0 0.0024756
10010.0 0.0024673
10030.0 0.0024576
10050.0 0.0024468
10070.0 0.0024351
10090.0 0.0024246
10110.0 0.0024131
10130.0 0.0024021
10150.0 0.002391
10170.0 0.0023793
10190.0 0.0023672
10210.0 0.0023558
10230.0 0.0023447
10250.0 0.002333
10270.0 0.0023214
10290.0 0.0023105
10310.0 0.002299
10330.0 0.002287
10350.0 0.0022758
10370.0 0.0022647
10390.0 0.002253
10410.0 0.0022414
10430.0 0.0022305
10450.0 0.0022191
10470.0 0.0022074
10490.0 0.0021962
10510.0 0.0021851
10530.0 0.002173
10550.0 0.0021614
10570.0 0.0021504
10590.0 0.0021388
10610.0 0.002127
10630.0 0.0021158
10650.0 0.0021045
10670.0 0.0020925
10690.0 0.0020808
10710.0 0.0020695
10730.0 0.0020576
10750.0 0.0020452
10770.0 0.0020339
10790.0 0.0020223
10810.0 0.00201
10830.0 0.0019981
10850.0 0.0019866
10870.0 0.0019738
10890.0 0.0019607
10910.0 0.0019478
10930.0 0.0019338
10950.0 0.0019177
10970.0 0.0019003
10990.0 0.0018816
11010.0 0.0016982
11030.0 0.0016757
11050.0 0.0016539
11070.0 0.0016316
11090.0 0.0016076
11110.0 0.0015854
11130.0 0.0015638
11150.0 0.0015415
11170.0 0.0015193
11190.0 0.0014987
11210.0 0.0014774
11230.0 0.0014555
11250.0 0.0014346
11270.0 0.0014144
11290.0 0.0013933
11310.0 0.0013727
11330.0 0.0013541
11350.0 0.0013354
11370.0 0.0013169
11390.0 0.0013
11410.0 0.0012839
11430.0 0.0012672
11450.0 0.0012513
11470.0 0.0012364
11490.0 0.001221
11510.0 0.0012047
11530.0 0.0011891
11550.0 0.001173
11570.0 0.0011553
11590.0 0.001137
11610.0 0.0011185
11630.0 0.0010983
11650.0 0.0010763
11670.0 0.0010549
11690.0 0.0010328
11710.0 0.0010092
11730.0 0.00098577
11750.0 0.00096346
11770.0 0.00094032
11790.0 0.0009173
11810.0 0.00089588
11830.0 0.00087534
11850.0 0.00085448
11870.0 0.00083552
11890.0 0.00081842
11910.0 0.00080174
11930.0 0.00078595
11950.0 0.00077196
11970.0 0.00075873
11990.0 0.0007457
12010.0 0.00073395
12030.0 0.00072326
12050.0 0.00071282
12070.0 0.00070276
12090.0 0.00069416
12110.0 0.00068598
12130.0 0.00067815
12150.0 0.0006713
12170.0 0.00066549
12190.0 0.00066003
12210.0 0.0006557
12230.0 0.00065275
12250.0 0.00065096
12270.0 0.00065049
12290.0 0.00065168
12310.0 0.00065449
12330.0 0.00065902
12350.0 0.0006654
12370.0 0.00067339
12390.0 0.00068311
12410.0 0.00069493
12430.0 0.00070773
12450.0 0.00072156
12470.0 0.0007367
12490.0 0.00075249
12510.0 0.00076803
12530.0 0.00078396
12550.0 0.0007999
12570.0 0.00081484
12590.0 0.00082883
12610.0 0.00084218
12630.0 0.00085418
12650.0 0.00086435
12670.0 0.00087327
12690.0 0.00088068
12710.0 0.00088638
12730.0 0.00089055
12750.0 0.00089318
12770.0 0.00089425
12790.0 0.00089399
12810.0 0.00089236
12830.0 0.00088932
12850.0 0.00088545
12870.0 0.00088069
12890.0 0.00087479
12910.0 0.00086824
12930.0 0.00086136
12950.0 0.00085358
12970.0 0.00084507
12990.0 0.00083664
13010.0 0.0008278
13030.0 0.00081822
13050.0 0.00080846
13070.0 0.00079883
13090.0 0.00078843
13110.0 0.00077768
13130.0 0.0007672
13150.0 0.00075667
13170.0 0.00074566
13190.0 0.0007354
13210.0 0.00072599
13230.0 0.00071698
13250.0 0.00070891
13270.0 0.00070236
13290.0 0.00069704
13310.0 0.00069304
13330.0 0.0006908
13350.0 0.00069014
13370.0 0.00069089
13390.0 0.00069299
13410.0 0.00069596
13430.0 0.00069955
13450.0 0.00070344
13470.0 0.00070702
13490.0 0.00070991
13510.0 0.00071188
13530.0 0.00071238
13550.0 0.0007113
13570.0 0.00070849
13590.0 0.00070374
13610.0 0.00069742
13630.0 0.00068983
13650.0 0.00068058
13670.0 0.00067034
13690.0 0.00065976
13710.0 0.00064863
13730.0 0.00063682
13750.0 0.00062585
13770.0 0.00061534
13790.0 0.00060503
13810.0 0.00059545
13830.0 0.00058697
13850.0 0.00057894
13870.0 0.00057154
13890.0 0.0005651
13910.0 0.00055935
13930.0 0.00055399
13950.0 0.00054925
13970.0 0.00054519
13990.0 0.00054144
14010.0 0.00053802
14030.0 0.00053503
14050.0 0.00053233
14070.0 0.00052976
14090.0 0.00052746
14110.0 0.00052536
14130.0 0.00052334
14150.0 0.00052138
14170.0 0.00051954
14190.0 0.00051775
14210.0 0.00051594
14230.0 0.0005142
14250.0 0.00051255
14270.0 0.00051094
14290.0 0.00050944
14310.0 0.00050811
14330.0 0.00050695
14350.0 0.00050597
14370.0 0.00050517
14390.0 0.00050454
14410.0 0.00050405
14430.0 0.00050367
14450.0 0.00050332
14470.0 0.00050298
14490.0 0.00050261
14510.0 0.00050213
14530.0 0.00050153
14550.0 0.00050084
14570.0 0.00050007
14590.0 0.00049925
14610.0 0.00049846
14630.0 0.0004978
14650.0 0.00049733
14670.0 0.00049715
14690.0 0.00049741
14710.0 0.00049823
14730.0 0.00049951
14750.0 0.00050149
14770.0 0.00050432
14790.0 0.00050785
14810.0 0.00051205
14830.0 0.00051752
14850.0 0.00052379
14870.0 0.00053056
14890.0 0.00053813
14910.0 0.00054641
14930.0 0.00055445
14950.0 0.00056198
14970.0 0.00056912
14990.0 0.00057495
15010.0 0.0005791
15030.0 0.00058181
15050.0 0.00058314
15070.0 0.00058301
15090.0 0.00058199
15110.0 0.00058035
15130.0 0.0005783
15150.0 0.00057603
15170.0 0.00057364
15190.0 0.00057118
15210.0 0.00056871
15230.0 0.00056623
15250.0 0.00056372
15270.0 0.00056121
15290.0 0.00055873
15310.0 0.00055623
15330.0 0.00055372
15350.0 0.00055122
15370.0 0.00054873
15390.0 0.0005462
15410.0 0.0005437
15430.0 0.0005412
15450.0 0.0005387
15470.0 0.00053618
15490.0 0.00053369
15510.0 0.0005312
15530.0 0.0005287
15550.0 0.0005262
15570.0 0.00052373
15590.0 0.00052124
15610.0 0.00051874
15630.0 0.00051627
15650.0 0.00051381
15670.0 0.00051133
15690.0 0.00050887
15710.0 0.00050643
15730.0 0.00050397
15750.0 0.00050152
15770.0 0.00049909
15790.0 0.00049666
15810.0 0.00049422
15830.0 0.00049181
15850.0 0.00048941
15870.0 0.000487
15890.0 0.00048461
15910.0 0.00048223
15930.0 0.00047986
15950.0 0.00047748
15970.0 0.00047512
15990.0 0.00047278
16010.0 0.00047043
16030.0 0.00046809
16050.0 0.00046578
16070.0 0.00046348
16090.0 0.00046117
16110.0 0.00045888
16130.0 0.00045661
16150.0 0.00045433
16170.0 0.00045206
16190.0 0.00044983
16210.0 0.00044759
16230.0 0.00044535
16250.0 0.00044314
16270.0 0.00044095
16290.0 0.00043875
16310.0 0.00043657
16330.0 0.00043441
16350.0 0.00043225
16370.0 0.00043009
16390.0 0.00042796
16410.0 0.00042585
16430.0 0.00042373
16450.0 0.00042163
16470.0 0.00041956
16490.0 0.00041749
16510.0 0.00041542
16530.0 0.00041338
16550.0 0.00041135
16570.0 0.00040931
16590.0 0.0004073
16610.0 0.00040532
16630.0 0.00040333
16650.0 0.00040135
16670.0 0.0003994
16690.0 0.00039746
16710.0 0.00039552
16730.0 0.00039359
16750.0 0.0003917
16770.0 0.0003898
16790.0 0.00038791
16810.0 0.00038605
16830.0 0.0003842
16850.0 0.00038235
16870.0 0.00038052
16890.0 0.00037871
16910.0 0.0003769
16930.0 0.0003751
16950.0 0.00037333
16970.0 0.00037156
16990.0 0.0003698
17010.0 0.00036806
17030.0 0.00036635
17050.0 0.00036463
17070.0 0.00036292
17090.0 0.00036124
17110.0 0.00035956
17130.0 0.00035789
17150.0 0.00035624
17170.0 0.00035461
17190.0 0.00035298
17210.0 0.00035136
17230.0 0.00034977
17250.0 0.00034818
17270.0 0.00034659
17290.0 0.00034503
17310.0 0.00034348
17330.0 0.00034194
17350.0 0.0003404
17370.0 0.0003389
17390.0 0.00033739
17410.0 0.0003359
17430.0 0.00033442
17450.0 0.00033296
17470.0 0.00033149
17490.0 0.00033004
17510.0 0.00032862
17530.0 0.0003272
17550.0 0.00032578
17570.0 0.00032439
17590.0 0.00032301
17610.0 0.00032163
17630.0 0.00032026
17650.0 0.00031892
17670.0 0.00031757
17690.0 0.00031623
17710.0 0.00031492
17730.0 0.00031361
17750.0 0.00031231
17770.0 0.00031102
17790.0 0.00030976
17810.0 0.00030849
17830.0 0.00030723
17850.0 0.00030599
17870.0 0.00030476
17890.0 0.00030353
17910.0 0.00030231
17930.0 0.00030112
17950.0 0.00029993
17970.0 0.00029874
17990.0 0.00029758
18010.0 0.00029642
18030.0 0.00029526
18050.0 0.00029411
18070.0 0.00029299
18090.0 0.00029186
18110.0 0.00029074
18130.0 0.00028965
18150.0 0.00028856
18170.0 0.00028747
18190.0 0.00028639
18210.0 0.00028534
18230.0 0.00028427
18250.0 0.00028322
18270.0 0.00028219
18290.0 0.00028116
18310.0 0.00028013
18330.0 0.00027912
18350.0 0.00027813
18370.0 0.00027713
18390.0 0.00027614
18410.0 0.00027517
18430.0 0.0002742
18450.0 0.00027323
18470.0 0.00027228
18490.0 0.00027135
18510.0 0.00027041
18530.0 0.00026948
18550.0 0.00026857
18570.0 0.00026766
18590.0 0.00026674
18610.0 0.00026585
18630.0 0.00026497
18650.0 0.00026408
18670.0 0.00026321
18690.0 0.00026235
18710.0 0.00026149
18730.0 0.00026064
18750.0 0.0002598
18770.0 0.00025897
18790.0 0.00025813
18810.0 0.00025731
18830.0 0.0002565
18850.0 0.0002557
18870.0 0.00025489
18890.0 0.0002541
18910.0 0.00025332
18930.0 0.00025254
18950.0 0.00025176
18970.0 0.00025101
18990.0 0.00025024
19010.0 0.00024948
19030.0 0.00024874
19050.0 0.00024801
19070.0 0.00024727
19090.0 0.00024654
19110.0 0.00024583
19130.0 0.00024511
19150.0 0.00024439
19170.0 0.0002437
19190.0 0.000243
19210.0 0.0002423
19230.0 0.00024162
19250.0 0.00024095
19270.0 0.00024027
19290.0 0.0002396
19310.0 0.00023894
19330.0 0.00023829
19350.0 0.00023763
19370.0 0.00023698
19390.0 0.00023635
19410.0 0.00023571
19430.0 0.00023507
19450.0 0.00023446
19470.0 0.00023384
19490.0 0.00023322
19510.0 0.00023261
19530.0 0.00023202
19550.0 0.00023141
19570.0 0.00023081
19590.0 0.00023023
19610.0 0.00022964
19630.0 0.00022906
19650.0 0.00022849
19670.0 0.00022792
19690.0 0.00022735
19710.0 0.00022679
19730.0 0.00022624
19750.0 0.00022568
19770.0 0.00022513
19790.0 0.00022458
19810.0 0.00022405
19830.0 0.00022351
19850.0 0.00022296
19870.0 0.00022241
19890.0 0.00022181
19910.0 0.00022113
19930.0 0.00022034
19950.0 0.00021938
19970.0 0.00021813
19990.0 0.00021653
20010.0 0.00021464
20030.0 0.00021231
20050.0 0.00020956
20070.0 0.00020656
20090.0 0.00020335
20110.0 0.00019976
20130.0 0.00019616
20150.0 0.00019263
20170.0 0.00018901
20190.0 0.00018538
20210.0 0.00018196
20230.0 0.00017863
20250.0 0.00017529
20270.0 0.00017217
20290.0 0.00016928
20310.0 0.00016648
20330.0 0.00016381
20350.0 0.00016151
20370.0 0.00015938
20390.0 0.00015741
20410.0 0.00015571
20430.0 0.00015427
20450.0 0.00015299
20470.0 0.00015194
20490.0 0.00015114
20510.0 0.00015053
20530.0 0.00015011
20550.0 0.00014989
20570.0 0.00014983
20590.0 0.00014992
20610.0 0.00015015
20630.0 0.00015047
20650.0 0.00015089
20670.0 0.00015141
20690.0 0.00015195
20710.0 0.00015251
20730.0 0.0001531
20750.0 0.00015368
20770.0 0.00015419
20790.0 0.00015468
20810.0 0.00015512
20830.0 0.00015546
20850.0 0.00015572
20870.0 0.00015589
20890.0 0.00015595
20910.0 0.0001559
20930.0 0.00015573
20950.0 0.00015545
20970.0 0.00015507
20990.0 0.00015458
21010.0 0.00015397
21030.0 0.00015327
21050.0 0.00015251
21070.0 0.00015165
21090.0 0.0001507
21110.0 0.00014974
21130.0 0.00014876
21150.0 0.00014771
21170.0 0.00014666
21190.0 0.00014566
21210.0 0.00014463
21230.0 0.00014361
21250.0 0.00014268
21270.0 0.0001418
21290.0 0.00014096
21310.0 0.0001402
21330.0 0.00013955
21350.0 0.00013896
21370.0 0.00013846
21390.0 0.00013807
21410.0 0.00013778
21430.0 0.00013757
21450.0 0.00013746
21470.0 0.00013746
21490.0 0.00013754
21510.0 0.00013772
21530.0 0.00013798
21550.0 0.00013832
21570.0 0.00013876
21590.0 0.00013926
21610.0 0.00013981
21630.0 0.00014045
21650.0 0.00014118
21670.0 0.00014191
21690.0 0.0001427
21710.0 0.00014356
21730.0 0.00014444
21750.0 0.00014532
21770.0 0.00014628
21790.0 0.00014725
21810.0 0.0001482
21830.0 0.00014917
21850.0 0.00015016
21870.0 0.00015112
21890.0 0.00015202
21910.0 0.00015294
21930.0 0.00015383
21950.0 0.00015464
21970.0 0.00015542
21990.0 0.00015617
22010.0 0.00015683
22030.0 0.00015741
22050.0 0.00015792
22070.0 0.00015835
22090.0 0.00015867
22110.0 0.00015891
22130.0 0.00015904
22150.0 0.00015906
22170.0 0.00015897
22190.0 0.00015875
22210.0 0.00015841
22230.0 0.00015797
22250.0 0.0001574
22270.0 0.0001567
22290.0 0.0001559
22310.0 0.000155
22330.0 0.00015394
22350.0 0.00015279
22370.0 0.00015157
22390.0 0.00015024
22410.0 0.00014877
22430.0 0.00014729
22450.0 0.00014576
22470.0 0.00014411
22490.0 0.00014242
22510.0 0.00014076
22530.0 0.00013899
22550.0 0.00013718
22570.0 0.00013543
22590.0 0.00013368
22610.0 0.00013189
22630.0 0.00013015
22650.0 0.00012851
22670.0 0.00012685
22690.0 0.00012522
22710.0 0.0001237
22730.0 0.00012225
22750.0 0.00012077
22770.0 0.00011943
22790.0 0.00011819
22810.0 0.00011698
22830.0 0.00011583
22850.0 0.00011479
22870.0 0.00011381
22890.0 0.00011285
22910.0 0.00011197
22930.0 0.00011117
22950.0 0.00011039
22970.0 0.00010965
22990.0 0.000109
23010.0 0.00010837
23030.0 0.00010777
23050.0 0.00010721
