#lamb flux
1010.0 5.3443e-06
1030.0 5.6505e-06
1050.0 6.0047e-06
1070.0 6.404e-06
1090.0 6.858e-06
1110.0 7.3251e-06
1130.0 7.797e-06
1150.0 8.293e-06
1170.0 8.8066e-06
1190.0 9.2966e-06
1210.0 9.7955e-06
1230.0 1.0313e-05
1250.0 1.0824e-05
1270.0 1.1324e-05
1290.0 1.1854e-05
1310.0 1.2388e-05
1330.0 1.2904e-05
1350.0 1.343e-05
1370.0 1.3976e-05
1390.0 1.4514e-05
1410.0 1.5041e-05
1430.0 1.5595e-05
1450.0 1.6153e-05
1470.0 1.6698e-05
1490.0 1.7253e-05
1510.0 1.7841e-05
1530.0 1.8405e-05
1550.0 1.8965e-05
1570.0 1.9546e-05
1590.0 2.013e-05
1610.0 2.0692e-05
1630.0 2.1271e-05
1650.0 2.1865e-05
1670.0 2.244e-05
1690.0 2.3007e-05
1710.0 2.3591e-05
1730.0 2.4175e-05
1750.0 2.4722e-05
1770.0 2.5278e-05
1790.0 2.5837e-05
1810.0 2.6371e-05
1830.0 2.6887e-05
1850.0 2.7423e-05
1870.0 2.7933e-05
1890.0 2.8414e-05
1910.0 2.8891e-05
1930.0 2.9367e-05
1950.0 2.9804e-05
1970.0 3.022e-05
1990.0 3.064e-05
2010.0 3.1037e-05
2030.0 3.1401e-05
2050.0 3.1766e-05
2070.0 3.213e-05
2090.0 3.2452e-05
2110.0 3.2762e-05
2130.0 3.3077e-05
2150.0 3.3374e-05
2170.0 3.3643e-05
2190.0 3.3926e-05
2210.0 3.421e-05
2230.0 3.4474e-05
2250.0 3.4738e-05
2270.0 3.5027e-05
2290.0 3.5307e-05
2310.0 3.5579e-05
2330.0 3.5876e-05
2350.0 3.619e-05
2370.0 3.6502e-05
2390.0 3.6837e-05
2410.0 3.7213e-05
2430.0 3.7598e-05
2450.0 3.7999e-05
2470.0 3.8444e-05
2490.0 3.8943e-05
2510.0 3.9501e-05
2530.0 4.024e-05
2550.0 4.1363e-05
2570.0 4.31e-05
2590.0 4.5737e-05
2610.0 4.9973e-05
2630.0 5.6068e-05
2650.0 6.3804e-05
2670.0 7.3337e-05
2690.0 8.4443e-05
2710.0 9.579e-05
2730.0 0.0001067
2750.0 0.00011735
2770.0 0.00012691
2790.0 0.00013522
2810.0 0.00014289
2830.0 0.00015041
2850.0 0.00015747
2870.0 0.00016459
2890.0 0.00017217
2910.0 0.00018007
2930.0 0.00018808
2950.0 0.00019666
2970.0 0.00020575
2990.0 0.00021498
3010.0 0.00060146
3030.0 0.00062813
3050.0 0.00065476
3070.0 0.00067903
3090.0 0.00069976
3110.0 0.00071149
3130.0 0.00070773
3150.0 0.00068132
3170.0 0.00061782
3190.0 0.00051581
3210.0 0.00037688
3230.0 0.00022053
3250.0 0.00038811
3270.0 0.00020562
3290.0 0.00059451
3310.0 0.00017443
3330.0 0.00017103
3350.0 0.00022291
3370.0 0.00028421
3390.0 0.00035066
3410.0 0.00041708
3430.0 0.00048696
3450.0 0.00055716
3470.0 0.00062157
3490.0 0.0006652
3510.0 0.0008192
3530.0 0.0010961
3550.0 0.0010646
3570.0 0.00085649
3590.0 0.001206
3610.0 0.00072978
3630.0 0.0012633
3650.0 0.0014833
3670.0 0.0019239
3690.0 0.0017817
3710.0 0.0011559
3730.0 0.0015449
3750.0 0.00159
3770.0 0.0016897
3790.0 0.001594
3810.0 0.0015686
3830.0 0.0024783
3850.0 0.0029775
3870.0 0.0037023
3890.0 0.003538
3910.0 0.0031196
3930.0 0.0031913
3950.0 0.0034923
3970.0 0.0040787
3990.0 0.0027388
4010.0 0.0014822
4030.0 0.002536
4050.0 0.003238
4070.0 0.003579
4090.0 0.0026662
4110.0 0.0016543
4130.0 0.002611
4150.0 0.0025722
4170.0 0.0025013
4190.0 0.0023401
4210.0 0.0032288
4230.0 0.0022609
4250.0 0.0025521
4270.0 0.0025389
4290.0 0.0024565
4310.0 0.003148
4330.0 0.0033331
4350.0 0.0026311
4370.0 0.0021898
4390.0 0.0027602
4410.0 0.0028707
4430.0 0.0021225
4450.0 0.0020109
4470.0 0.0024675
4490.0 0.0018108
4510.0 0.0024535
4530.0 0.002572
4550.0 0.0032071
4570.0 0.0046383
4590.0 0.0044478
4610.0 0.0031162
4630.0 0.0052341
4650.0 0.0073477
4670.0 0.006885
4690.0 0.004396
4710.0 0.004779
4730.0 0.0058558
4750.0 0.004987
4770.0 0.0037618
4790.0 0.0024736
4810.0 0.003564
4830.0 0.0041918
4850.0 0.0036039
4870.0 0.0011539
4890.0 0.0040016
4910.0 0.0055271
4930.0 0.0059811
4950.0 0.0059712
4970.0 0.0037554
4990.0 0.0044132
5010.0 0.0053066
5030.0 0.0058971
5050.0 0.0057072
5070.0 0.0040316
5090.0 0.0032521
5110.0 0.003097
5130.0 0.0028563
5150.0 0.0030841
5170.0 0.0026983
5190.0 0.0033178
5210.0 0.0033495
5230.0 0.0037095
5250.0 0.0045386
5270.0 0.0036809
5290.0 0.0037111
5310.0 0.005642
5330.0 0.0065589
5350.0 0.0053984
5370.0 0.0047214
5390.0 0.0055558
5410.0 0.00692
5430.0 0.0075258
5450.0 0.0079504
5470.0 0.0078854
5490.0 0.007849
5510.0 0.0093814
5530.0 0.0097566
5550.0 0.010453
5570.0 0.011132
5590.0 0.011009
5610.0 0.010314
5630.0 0.010006
5650.0 0.010329
5670.0 0.010146
5690.0 0.0086019
5710.0 0.0084885
5730.0 0.0086563
5750.0 0.0092987
5770.0 0.0079807
5790.0 0.0074397
5810.0 0.007568
5830.0 0.0081184
5850.0 0.0074718
5870.0 0.0075663
5890.0 0.0090659
5910.0 0.0085157
5930.0 0.0068989
5950.0 0.0060769
5970.0 0.0066791
5990.0 0.0061298
6010.0 0.0057159
6030.0 0.0057547
6050.0 0.0052983
6070.0 0.0039522
6090.0 0.0036389
6110.0 0.0048151
6130.0 0.0055292
6150.0 0.0057452
6170.0 0.0055173
6190.0 0.0051346
6210.0 0.0051995
6230.0 0.0063268
6250.0 0.0058443
6270.0 0.005301
6290.0 0.0048741
6310.0 0.0045151
6330.0 0.004239
6350.0 0.0037263
6370.0 0.003729
6390.0 0.0043898
6410.0 0.0054847
6430.0 0.0064024
6450.0 0.0061758
6470.0 0.0060973
6490.0 0.0076194
6510.0 0.008846
6530.0 0.0083619
6550.0 0.0079309
6570.0 0.0080533
6590.0 0.0078854
6610.0 0.0084868
6630.0 0.0079031
6650.0 0.0068301
6670.0 0.0062187
6690.0 0.0061662
6710.0 0.0075706
6730.0 0.0067913
6750.0 0.0055729
6770.0 0.0049415
6790.0 0.0052369
6810.0 0.0060144
6830.0 0.0059474
6850.0 0.0053192
6870.0 0.0055519
6890.0 0.0055176
6910.0 0.0051865
6930.0 0.0058896
6950.0 0.0054205
6970.0 0.0049935
6990.0 0.00495
7010.0 0.004889
7030.0 0.0047104
7050.0 0.0045632
7070.0 0.0050184
7090.0 0.0047321
7110.0 0.0040106
7130.0 0.0033185
7150.0 0.0031625
7170.0 0.0041604
7190.0 0.0044754
7210.0 0.0042329
7230.0 0.0044065
7250.0 0.0041576
7270.0 0.0039868
7290.0 0.0044025
7310.0 0.004937
7330.0 0.0048457
7350.0 0.0045004
7370.0 0.004179
7390.0 0.0042423
7410.0 0.0049274
7430.0 0.0054894
7450.0 0.0058065
7470.0 0.0057655
7490.0 0.0062709
7510.0 0.0061573
7530.0 0.005776
7550.0 0.0056055
7570.0 0.0048873
7590.0 0.0047448
7610.0 0.0045767
7630.0 0.0041659
7650.0 0.0044841
7670.0 0.0049293
7690.0 0.0053542
7710.0 0.0060874
7730.0 0.0064158
7750.0 0.0066749
7770.0 0.0068435
7790.0 0.0074837
7810.0 0.0076001
7830.0 0.0068223
7850.0 0.0068606
7870.0 0.0065736
7890.0 0.0068318
7910.0 0.0064529
7930.0 0.0064627
7950.0 0.0054753
7970.0 0.0055447
7990.0 0.0053194
8010.0 0.0056386
8030.0 0.005607
8050.0 0.0059444
8070.0 0.005691
8090.0 0.0057109
8110.0 0.005612
8130.0 0.0055775
8150.0 0.0052611
8170.0 0.0051422
8190.0 0.0051075
8210.0 0.0051509
8230.0 0.0044951
8250.0 0.0041001
8270.0 0.0036191
8290.0 0.0030683
8310.0 0.0027071
8330.0 0.00216
8350.0 0.0017656
8370.0 0.0017289
8390.0 0.0016784
8410.0 0.0017456
8430.0 0.0022273
8450.0 0.0024127
8470.0 0.0025843
8490.0 0.0030199
8510.0 0.0032833
8530.0 0.0037463
8550.0 0.0044275
8570.0 0.004862
8590.0 0.0051185
8610.0 0.0056484
8630.0 0.0063765
8650.0 0.006517
8670.0 0.0066341
8690.0 0.006898
8710.0 0.0067676
8730.0 0.0065787
8750.0 0.0060826
8770.0 0.0060856
8790.0 0.0060026
8810.0 0.0055158
8830.0 0.0055361
8850.0 0.0051071
8870.0 0.0048816
8890.0 0.0043763
8910.0 0.0048384
8930.0 0.0043712
8950.0 0.0043579
8970.0 0.00443
8990.0 0.0042885
9010.0 0.0044042
9030.0 0.0041868
9050.0 0.0041655
9070.0 0.0041658
9090.0 0.0041652
9110.0 0.0041671
9130.0 0.0041651
9150.0 0.0041611
9170.0 0.0041457
9190.0 0.0041129
9210.0 0.0041761
9230.0 0.0041559
9250.0 0.0041435
9270.0 0.0041325
9290.0 0.0041224
9310.0 0.0041128
9330.0 0.0041034
9350.0 0.0040938
9370.0 0.004084
9390.0 0.0040738
9410.0 0.0040632
9430.0 0.0040524
9450.0 0.004041
9470.0 0.0040294
9490.0 0.0040175
9510.0 0.0040053
9530.0 0.0039928
9550.0 0.0039803
9570.0 0.0039675
9590.0 0.0039545
9610.0 0.0039413
9630.0 0.0039281
9650.0 0.0039149
9670.0 0.0039014
9690.0 0.003888
9710.0 0.0038746
9730.0 0.003861
9750.0 0.0038475
9770.0 0.0038344
9790.0 0.003821
9810.0 0.0038077
9830.0 0.0037946
9850.0 0.0037816
9870.0 0.0037686
9890.0 0.0037558
9910.0 0.0037433
9930.0 0.0037308
9950.0 0.0037117
9970.0 0.0037017
9990.0 0.0036917
10010.0 0.0036813
10030.0 0.0036707
10050.0 0.0036589
10070.0 0.0036408
10090.0 0.0036329
10110.0 0.0036248
10130.0 0.0036162
10150.0 0.0036076
10170.0 0.0035986
10190.0 0.0035894
10210.0 0.0035807
10230.0 0.0035723
10250.0 0.0035638
10270.0 0.0035556
10290.0 0.003548
10310.0 0.0035405
10330.0 0.003533
10350.0 0.0035262
10370.0 0.0035197
10390.0 0.0035133
10410.0 0.0035072
10430.0 0.0035017
10450.0 0.0034963
10470.0 0.0034911
10490.0 0.0034863
10510.0 0.0034819
10530.0 0.0034775
10550.0 0.0034735
10570.0 0.00347
10590.0 0.0034666
10610.0 0.0034634
10630.0 0.0034607
10650.0 0.0034583
10670.0 0.0034558
10690.0 0.0034538
10710.0 0.0034522
10730.0 0.0034507
10750.0 0.0034493
10770.0 0.0034484
10790.0 0.0034478
10810.0 0.0034472
10830.0 0.0034468
10850.0 0.0034465
10870.0 0.0034455
10890.0 0.0034433
10910.0 0.0034393
10930.0 0.0034315
10950.0 0.0034172
10970.0 0.0033951
10990.0 0.0033646
11010.0 0.0034039
11030.0 0.0033476
11050.0 0.0032813
11070.0 0.0032044
11090.0 0.0031151
11110.0 0.0030259
11130.0 0.0029365
11150.0 0.0028447
11170.0 0.0027553
11190.0 0.0026735
11210.0 0.0025941
11230.0 0.002518
11250.0 0.0024502
11270.0 0.002389
11290.0 0.0023311
11310.0 0.0022791
11330.0 0.0022349
11350.0 0.0021938
11370.0 0.0021555
11390.0 0.0021211
11410.0 0.002089
11430.0 0.0020561
11450.0 0.0020239
11470.0 0.0019924
11490.0 0.0019591
11510.0 0.0019233
11530.0 0.0018875
11550.0 0.0018504
11570.0 0.0018101
11590.0 0.0017687
11610.0 0.0017276
11630.0 0.0016839
11650.0 0.0016384
11670.0 0.0015947
11690.0 0.0015512
11710.0 0.0015066
11730.0 0.0014633
11750.0 0.0014228
11770.0 0.0013819
11790.0 0.001342
11810.0 0.0013051
11830.0 0.00127
11850.0 0.0012346
11870.0 0.0012021
11890.0 0.0011723
11910.0 0.0011429
11930.0 0.0011145
11950.0 0.0010885
11970.0 0.0010632
11990.0 0.0010376
12010.0 0.0010136
12030.0 0.00099095
12050.0 0.00096826
12070.0 0.00094586
12090.0 0.00092592
12110.0 0.00090668
12130.0 0.00088813
12150.0 0.00087166
12170.0 0.00085752
12190.0 0.00084457
12210.0 0.00083443
12230.0 0.00082761
12250.0 0.00082378
12270.0 0.00082333
12290.0 0.00082669
12310.0 0.00083357
12330.0 0.00084433
12350.0 0.00085875
12370.0 0.00087596
12390.0 0.00089613
12410.0 0.00091974
12430.0 0.00094401
12450.0 0.00096905
12470.0 0.00099525
12490.0 0.0010212
12510.0 0.0010454
12530.0 0.001069
12550.0 0.0010914
12570.0 0.0011113
12590.0 0.0011289
12610.0 0.0011447
12630.0 0.0011581
12650.0 0.0011689
12670.0 0.0011777
12690.0 0.0011846
12710.0 0.0011895
12730.0 0.0011928
12750.0 0.0011944
12770.0 0.0011944
12790.0 0.0011933
12810.0 0.0011907
12830.0 0.0011866
12850.0 0.0011816
12870.0 0.0011755
12890.0 0.0011676
12910.0 0.0011585
12930.0 0.0011484
12950.0 0.0011365
12970.0 0.0011226
12990.0 0.0011082
13010.0 0.0010924
13030.0 0.0010747
13050.0 0.0010562
13070.0 0.0010377
13090.0 0.0010177
13110.0 0.00099715
13130.0 0.00097749
13150.0 0.00095822
13170.0 0.00093866
13190.0 0.00092112
13210.0 0.00090572
13230.0 0.00089159
13250.0 0.00087951
13270.0 0.00087025
13290.0 0.00086307
13310.0 0.00085792
13330.0 0.00085519
13350.0 0.00085435
13370.0 0.00085492
13390.0 0.00085661
13410.0 0.00085888
13430.0 0.00086122
13450.0 0.00086317
13470.0 0.00086429
13490.0 0.00086434
13510.0 0.00086284
13530.0 0.00085976
13550.0 0.00085532
13570.0 0.00084939
13590.0 0.00084192
13610.0 0.0008337
13630.0 0.00082505
13650.0 0.00081556
13670.0 0.00080601
13690.0 0.00079695
13710.0 0.00078805
13730.0 0.00077922
13750.0 0.00077148
13770.0 0.00076434
13790.0 0.00075748
13810.0 0.0007511
13830.0 0.00074529
13850.0 0.00073946
13870.0 0.00073356
13890.0 0.00072778
13910.0 0.0007219
13930.0 0.00071557
13950.0 0.00070905
13970.0 0.00070266
13990.0 0.00069598
14010.0 0.00068919
14030.0 0.00068272
14050.0 0.00067653
14070.0 0.0006704
14090.0 0.00066492
14110.0 0.00066013
14130.0 0.00065587
14150.0 0.00065226
14170.0 0.00064946
14190.0 0.00064734
14210.0 0.00064588
14230.0 0.00064513
14250.0 0.00064502
14270.0 0.00064562
14290.0 0.00064696
14310.0 0.0006488
14330.0 0.00065123
14350.0 0.00065435
14370.0 0.00065788
14390.0 0.0006616
14410.0 0.00066584
14430.0 0.00067031
14450.0 0.00067463
14470.0 0.00067895
14490.0 0.00068347
14510.0 0.0006876
14530.0 0.0006914
14550.0 0.00069527
14570.0 0.00069914
14590.0 0.00070282
14610.0 0.0007068
14630.0 0.00071141
14650.0 0.00071635
14670.0 0.00072186
14690.0 0.0007285
14710.0 0.00073634
14730.0 0.00074463
14750.0 0.00075425
14770.0 0.00076535
14790.0 0.00077717
14810.0 0.00078954
14830.0 0.00080372
14850.0 0.00081823
14870.0 0.00083237
14890.0 0.00084671
14910.0 0.00086097
14930.0 0.00087359
14950.0 0.0008844
14970.0 0.00089377
14990.0 0.00090055
15010.0 0.00090456
15030.0 0.00090632
15050.0 0.000906
15070.0 0.00090377
15090.0 0.00090038
15110.0 0.00089616
15130.0 0.00089145
15150.0 0.00088653
15170.0 0.00088143
15190.0 0.00087624
15210.0 0.00087108
15230.0 0.00086594
15250.0 0.00086072
15270.0 0.00085553
15290.0 0.00085043
15310.0 0.00084529
15330.0 0.00084012
15350.0 0.00083504
15370.0 0.00082997
15390.0 0.00082482
15410.0 0.00081974
15430.0 0.00081471
15450.0 0.00080966
15470.0 0.00080459
15490.0 0.00079963
15510.0 0.00079467
15530.0 0.00078967
15550.0 0.00078473
15570.0 0.00077985
15590.0 0.00077493
15610.0 0.00077
15630.0 0.00076518
15650.0 0.00076036
15670.0 0.00075552
15690.0 0.00075074
15710.0 0.00074604
15730.0 0.00074129
15750.0 0.00073656
15770.0 0.00073191
15790.0 0.00072727
15810.0 0.00072259
15830.0 0.000718
15850.0 0.00071348
15870.0 0.00070892
15890.0 0.00070439
15910.0 0.00069996
15930.0 0.00069551
15950.0 0.00069104
15970.0 0.00068666
15990.0 0.00068233
16010.0 0.00067797
16030.0 0.00067362
16050.0 0.0006694
16070.0 0.00066517
16090.0 0.00066093
16110.0 0.00065676
16130.0 0.00065266
16150.0 0.00064849
16170.0 0.00064437
16190.0 0.00064035
16210.0 0.00063633
16230.0 0.00063229
16250.0 0.00062834
16270.0 0.00062445
16290.0 0.00062051
16310.0 0.00061663
16330.0 0.00061282
16350.0 0.00060901
16370.0 0.00060515
16390.0 0.00060143
16410.0 0.00059773
16430.0 0.00059401
16450.0 0.00059034
16470.0 0.00058676
16490.0 0.00058314
16510.0 0.00057953
16530.0 0.000576
16550.0 0.0005725
16570.0 0.00056897
16590.0 0.00056549
16610.0 0.00056211
16630.0 0.0005587
16650.0 0.0005553
16670.0 0.00055198
16690.0 0.00054869
16710.0 0.00054534
16730.0 0.00054207
16750.0 0.00053887
16770.0 0.00053564
16790.0 0.00053242
16810.0 0.0005293
16830.0 0.00052619
16850.0 0.00052305
16870.0 0.00051997
16890.0 0.00051695
16910.0 0.0005139
16930.0 0.00051084
16950.0 0.0005079
16970.0 0.00050495
16990.0 0.00050199
17010.0 0.00049909
17030.0 0.00049625
17050.0 0.00049336
17070.0 0.0004905
17090.0 0.00048771
17110.0 0.00048493
17130.0 0.0004821
17150.0 0.00047936
17170.0 0.00047668
17190.0 0.00047395
17210.0 0.00047126
17230.0 0.00046864
17250.0 0.000466
17270.0 0.00046333
17290.0 0.00046074
17310.0 0.00045819
17330.0 0.00045561
17350.0 0.00045304
17370.0 0.00045057
17390.0 0.00044807
17410.0 0.00044557
17430.0 0.00044312
17450.0 0.00044072
17470.0 0.00043824
17490.0 0.00043582
17510.0 0.00043346
17530.0 0.0004311
17550.0 0.00042871
17570.0 0.0004264
17590.0 0.00042412
17610.0 0.00042179
17630.0 0.00041949
17650.0 0.00041726
17670.0 0.00041501
17690.0 0.00041271
17710.0 0.00041053
17730.0 0.00040835
17750.0 0.00040614
17770.0 0.00040397
17790.0 0.00040187
17810.0 0.00039971
17830.0 0.00039755
17850.0 0.00039547
17870.0 0.00039339
17890.0 0.00039127
17910.0 0.00038919
17930.0 0.00038719
17950.0 0.00038515
17970.0 0.0003831
17990.0 0.00038112
18010.0 0.00037915
18030.0 0.00037712
18050.0 0.00037515
18070.0 0.00037323
18090.0 0.00037127
18110.0 0.00036931
18130.0 0.00036743
18150.0 0.00036555
18170.0 0.00036363
18190.0 0.00036175
18210.0 0.00035992
18230.0 0.00035804
18250.0 0.00035616
18270.0 0.00035436
18290.0 0.00035256
18310.0 0.00035072
18330.0 0.00034893
18350.0 0.00034719
18370.0 0.00034539
18390.0 0.00034361
18410.0 0.00034189
18430.0 0.00034016
18450.0 0.00033838
18470.0 0.00033667
18490.0 0.000335
18510.0 0.00033328
18530.0 0.00033158
18550.0 0.00032995
18570.0 0.00032828
18590.0 0.00032658
18610.0 0.00032495
18630.0 0.00032333
18650.0 0.00032168
18670.0 0.00032004
18690.0 0.00031848
18710.0 0.00031688
18730.0 0.00031527
18750.0 0.0003137
18770.0 0.00031217
18790.0 0.00031055
18810.0 0.00030899
18830.0 0.00030748
18850.0 0.00030594
18870.0 0.00030438
18890.0 0.00030289
18910.0 0.00030141
18930.0 0.00029988
18950.0 0.00029838
18970.0 0.00029692
18990.0 0.00029544
19010.0 0.00029391
19030.0 0.00029249
19050.0 0.00029106
19070.0 0.00028959
19090.0 0.00028815
19110.0 0.00028677
19130.0 0.00028532
19150.0 0.00028388
19170.0 0.00028249
19190.0 0.00028111
19210.0 0.00027968
19230.0 0.00027828
19250.0 0.00027695
19270.0 0.00027557
19290.0 0.00027418
19310.0 0.00027286
19330.0 0.00027152
19350.0 0.00027013
19370.0 0.00026879
19390.0 0.00026749
19410.0 0.00026615
19430.0 0.0002648
19450.0 0.00026353
19470.0 0.00026224
19490.0 0.00026091
19510.0 0.00025962
19530.0 0.00025837
19550.0 0.00025706
19570.0 0.00025574
19590.0 0.00025451
19610.0 0.00025325
19630.0 0.00025197
19650.0 0.00025073
19670.0 0.00024952
19690.0 0.00024824
19710.0 0.00024699
19730.0 0.00024579
19750.0 0.00024456
19770.0 0.0002433
19790.0 0.00024209
19810.0 0.00024091
19830.0 0.00023968
19850.0 0.00023845
19870.0 0.00023724
19890.0 0.00023595
19910.0 0.00023452
19930.0 0.00023299
19950.0 0.00023123
19970.0 0.00022907
19990.0 0.00022647
20010.0 0.00022357
20030.0 0.00022009
20050.0 0.00021611
20070.0 0.00021192
20090.0 0.00020754
20110.0 0.00020275
20130.0 0.0001981
20150.0 0.00019368
20170.0 0.00018927
20190.0 0.00018497
20210.0 0.00018107
20230.0 0.00017742
20250.0 0.00017388
20270.0 0.00017074
20290.0 0.00016799
20310.0 0.0001655
20330.0 0.0001633
20350.0 0.00016163
20370.0 0.0001603
20390.0 0.00015933
20410.0 0.00015879
20430.0 0.00015866
20450.0 0.00015893
20470.0 0.00015962
20490.0 0.00016069
20510.0 0.00016214
20530.0 0.00016402
20550.0 0.0001662
20570.0 0.0001686
20590.0 0.00017134
20610.0 0.00017431
20630.0 0.00017734
20650.0 0.00018049
20670.0 0.00018385
20690.0 0.00018704
20710.0 0.0001901
20730.0 0.00019313
20750.0 0.00019599
20770.0 0.00019852
20790.0 0.00020087
20810.0 0.00020303
20830.0 0.00020487
20850.0 0.00020645
20870.0 0.00020786
20890.0 0.00020904
20910.0 0.00020999
20930.0 0.00021079
20950.0 0.00021148
20970.0 0.00021201
20990.0 0.00021244
21010.0 0.00021277
21030.0 0.00021299
21050.0 0.00021309
21070.0 0.00021307
21090.0 0.00021292
21110.0 0.00021264
21130.0 0.00021224
21150.0 0.00021169
21170.0 0.00021102
21190.0 0.00021028
21210.0 0.0002094
21230.0 0.00020843
21250.0 0.00020744
21270.0 0.00020643
21290.0 0.00020537
21310.0 0.00020435
21330.0 0.00020341
21350.0 0.0002025
21370.0 0.00020165
21390.0 0.00020093
21410.0 0.00020033
21430.0 0.0001998
21450.0 0.00019943
21470.0 0.0001992
21490.0 0.0001991
21510.0 0.00019913
21530.0 0.00019929
21550.0 0.00019957
21570.0 0.00019999
21590.0 0.00020053
21610.0 0.00020117
21630.0 0.00020195
21650.0 0.00020287
21670.0 0.00020385
21690.0 0.00020495
21710.0 0.0002062
21730.0 0.00020755
21750.0 0.00020896
21770.0 0.00021058
21790.0 0.00021231
21810.0 0.0002141
21830.0 0.00021603
21850.0 0.00021814
21870.0 0.0002203
21890.0 0.0002225
21910.0 0.00022487
21930.0 0.00022733
21950.0 0.00022977
21970.0 0.00023229
21990.0 0.00023495
22010.0 0.00023749
22030.0 0.00023997
22050.0 0.00024248
22070.0 0.0002449
22090.0 0.00024711
22110.0 0.00024923
22130.0 0.00025122
22150.0 0.00025294
22170.0 0.0002544
22190.0 0.00025565
22210.0 0.00025658
22230.0 0.00025715
22250.0 0.0002574
22270.0 0.00025728
22290.0 0.00025679
22310.0 0.00025595
22330.0 0.00025467
22350.0 0.00025302
22370.0 0.00025106
22390.0 0.0002487
22410.0 0.00024591
22430.0 0.00024294
22450.0 0.00023972
22470.0 0.00023612
22490.0 0.00023235
22510.0 0.00022853
22530.0 0.00022441
22550.0 0.0002201
22570.0 0.00021591
22590.0 0.0002117
22610.0 0.00020735
22630.0 0.0002031
22650.0 0.00019909
22670.0 0.00019502
22690.0 0.00019104
22710.0 0.00018733
22730.0 0.00018377
22750.0 0.00018019
22770.0 0.00017693
22790.0 0.00017394
22810.0 0.00017106
22830.0 0.00016834
22850.0 0.00016595
22870.0 0.00016372
22890.0 0.00016162
22910.0 0.0001598
22930.0 0.00015822
22950.0 0.00015681
22970.0 0.0001556
22990.0 0.0001547
23010.0 0.00015399
23030.0 0.00015349
23050.0 0.00015324
23070.0 0.0001532
23090.0 0.00015337
23110.0 0.00015377
23130.0 0.00015433
