#lamb flux
1010.0 1.0109e-06
1030.0 1.1394e-06
1050.0 1.2871e-06
1070.0 1.4534e-06
1090.0 1.6423e-06
1110.0 1.836e-06
1130.0 2.031e-06
1150.0 2.2352e-06
1170.0 2.4459e-06
1190.0 2.6457e-06
1210.0 2.8482e-06
1230.0 3.0574e-06
1250.0 3.2624e-06
1270.0 3.4615e-06
1290.0 3.6719e-06
1310.0 3.8821e-06
1330.0 4.0837e-06
1350.0 4.2876e-06
1370.0 4.498e-06
1390.0 4.7032e-06
1410.0 4.9023e-06
1430.0 5.1104e-06
1450.0 5.3184e-06
1470.0 5.5195e-06
1490.0 5.7227e-06
1510.0 5.9373e-06
1530.0 6.1405e-06
1550.0 6.341e-06
1570.0 6.5483e-06
1590.0 6.7557e-06
1610.0 6.9538e-06
1630.0 7.1578e-06
1650.0 7.3671e-06
1670.0 7.5693e-06
1690.0 7.7687e-06
1710.0 7.9755e-06
1730.0 8.1832e-06
1750.0 8.378e-06
1770.0 8.5781e-06
1790.0 8.7818e-06
1810.0 8.9781e-06
1830.0 9.1703e-06
1850.0 9.3738e-06
1870.0 9.5708e-06
1890.0 9.7598e-06
1910.0 9.9516e-06
1930.0 1.0147e-05
1950.0 1.0331e-05
1970.0 1.0511e-05
1990.0 1.0696e-05
2010.0 1.0875e-05
2030.0 1.1045e-05
2050.0 1.1218e-05
2070.0 1.1392e-05
2090.0 1.1552e-05
2110.0 1.1707e-05
2130.0 1.1863e-05
2150.0 1.2012e-05
2170.0 1.2147e-05
2190.0 1.2284e-05
2210.0 1.2416e-05
2230.0 1.2535e-05
2250.0 1.2647e-05
2270.0 1.276e-05
2290.0 1.2861e-05
2310.0 1.2946e-05
2330.0 1.303e-05
2350.0 1.3108e-05
2370.0 1.3171e-05
2390.0 1.323e-05
2410.0 1.3294e-05
2430.0 1.3351e-05
2450.0 1.3408e-05
2470.0 1.348e-05
2490.0 1.3576e-05
2510.0 1.3689e-05
2530.0 1.3865e-05
2550.0 1.4173e-05
2570.0 1.4673e-05
2590.0 1.5452e-05
2610.0 1.6746e-05
2630.0 1.861e-05
2650.0 2.0938e-05
2670.0 2.3754e-05
2690.0 2.6935e-05
2710.0 2.9995e-05
2730.0 3.2695e-05
2750.0 3.5063e-05
2770.0 3.683e-05
2790.0 3.7974e-05
2810.0 3.8686e-05
2830.0 3.9092e-05
2850.0 3.9195e-05
2870.0 3.9153e-05
2890.0 3.9052e-05
2910.0 3.8904e-05
2930.0 3.8711e-05
2950.0 3.8531e-05
2970.0 3.8361e-05
2990.0 3.8177e-05
3010.0 0.00079005
3030.0 0.00078595
3050.0 0.00078188
3070.0 0.00077715
3090.0 0.00077213
3110.0 0.00076603
3130.0 0.00075788
3150.0 0.00074724
3170.0 0.00073328
3190.0 0.00071635
3210.0 0.0006979
3230.0 0.00067939
3250.0 0.00066399
3270.0 0.00065381
3290.0 0.00065148
3310.0 0.00065655
3330.0 0.00067057
3350.0 0.00069138
3370.0 0.00071945
3390.0 0.00075389
3410.0 0.00079095
3430.0 0.00083242
3450.0 0.00087984
3470.0 0.00093115
3490.0 0.00098495
3510.0 0.001045
3530.0 0.0011087
3550.0 0.0011724
3570.0 0.0012388
3590.0 0.0013128
3610.0 0.0013889
3630.0 0.0014689
3650.0 0.0015522
3670.0 0.0016305
3690.0 0.0016916
3710.0 0.0017297
3730.0 0.0017371
3750.0 0.0017137
3770.0 0.0015766
3790.0 0.0014225
3810.0 0.0013189
3830.0 0.0011519
3850.0 0.00085712
3870.0 0.00060935
3890.0 0.0010188
3910.0 0.0016568
3930.0 0.0020038
3950.0 0.0019689
3970.0 0.0020125
3990.0 0.0023638
4010.0 0.0030364
4030.0 0.003073
4050.0 0.0027235
4070.0 0.002414
4090.0 0.0022822
4110.0 0.0027508
4130.0 0.0028753
4150.0 0.0028059
4170.0 0.0028454
4190.0 0.0029008
4210.0 0.0028634
4230.0 0.0031628
4250.0 0.0034571
4270.0 0.0035069
4290.0 0.0035505
4310.0 0.0036416
4330.0 0.0040152
4350.0 0.0046304
4370.0 0.0052572
4390.0 0.0049906
4410.0 0.0040868
4430.0 0.0034294
4450.0 0.0029376
4470.0 0.0028515
4490.0 0.0031329
4510.0 0.0035143
4530.0 0.0038831
4550.0 0.0044975
4570.0 0.0053219
4590.0 0.0064519
4610.0 0.0082854
4630.0 0.010066
4650.0 0.01035
4670.0 0.0099939
4690.0 0.010651
4710.0 0.011247
4730.0 0.0095396
4750.0 0.0068161
4770.0 0.0055534
4790.0 0.0053667
4810.0 0.0049902
4830.0 0.0047091
4850.0 0.0053927
4870.0 0.0069605
4890.0 0.0080003
4910.0 0.0067878
4930.0 0.0060066
4950.0 0.0067248
4970.0 0.0090132
4990.0 0.011693
5010.0 0.012439
5030.0 0.01029
5050.0 0.0066426
5070.0 0.0045641
5090.0 0.0040503
5110.0 0.0042328
5130.0 0.0045571
5150.0 0.0047872
5170.0 0.0047817
5190.0 0.0046803
5210.0 0.0045319
5230.0 0.0046428
5250.0 0.0049601
5270.0 0.0057059
5290.0 0.0065812
5310.0 0.0072489
5330.0 0.0074349
5350.0 0.0074895
5370.0 0.0081371
5390.0 0.0087903
5410.0 0.0085472
5430.0 0.0073852
5450.0 0.0067899
5470.0 0.0076041
5490.0 0.0097509
5510.0 0.012454
5530.0 0.013842
5550.0 0.013419
5570.0 0.012159
5590.0 0.010841
5610.0 0.010014
5630.0 0.0095053
5650.0 0.0097177
5670.0 0.0094845
5690.0 0.0087999
5710.0 0.0083315
5730.0 0.0075579
5750.0 0.0054259
5770.0 0.0047091
5790.0 0.0052954
5810.0 0.0063985
5830.0 0.0072828
5850.0 0.0079872
5870.0 0.0082213
5890.0 0.0079406
5910.0 0.0075997
5930.0 0.0076183
5950.0 0.0079781
5970.0 0.0085005
5990.0 0.0080501
6010.0 0.0067723
6030.0 0.0056251
6050.0 0.0048816
6070.0 0.0048519
6090.0 0.0054691
6110.0 0.0060078
6130.0 0.0057902
6150.0 0.0053391
6170.0 0.0058051
6190.0 0.0069976
6210.0 0.0085366
6230.0 0.0098355
6250.0 0.0098609
6270.0 0.0088287
6290.0 0.0073123
6310.0 0.0058104
6330.0 0.0046193
6350.0 0.0041587
6370.0 0.0044994
6390.0 0.0053203
6410.0 0.0061449
6430.0 0.0071244
6450.0 0.0082913
6470.0 0.010138
6490.0 0.012483
6510.0 0.013808
6530.0 0.012841
6550.0 0.011789
6570.0 0.011449
6590.0 0.011005
6610.0 0.0098266
6630.0 0.0088478
6650.0 0.0081419
6670.0 0.0084385
6690.0 0.0083331
6710.0 0.0074027
6730.0 0.006727
6750.0 0.006028
6770.0 0.0058521
6790.0 0.0064469
6810.0 0.0066347
6830.0 0.0068123
6850.0 0.0066717
6870.0 0.0063849
6890.0 0.0062323
6910.0 0.0059985
6930.0 0.0056345
6950.0 0.0057312
6970.0 0.0058161
6990.0 0.0064952
7010.0 0.0069214
7030.0 0.006341
7050.0 0.0059464
7070.0 0.0057718
7090.0 0.0052837
7110.0 0.0049509
7130.0 0.0050584
7150.0 0.0053093
7170.0 0.0056329
7190.0 0.0056726
7210.0 0.0056279
7230.0 0.0058613
7250.0 0.0067174
7270.0 0.0078594
7290.0 0.0085219
7310.0 0.0083257
7330.0 0.0074092
7350.0 0.0066387
7370.0 0.0064019
7390.0 0.0064577
7410.0 0.0067485
7430.0 0.0073757
7450.0 0.0079866
7470.0 0.0087766
7490.0 0.0097209
7510.0 0.0094496
7530.0 0.0089477
7550.0 0.0074733
7570.0 0.0061137
7590.0 0.0048519
7610.0 0.0044033
7630.0 0.0046413
7650.0 0.0053131
7670.0 0.0058875
7690.0 0.006666
7710.0 0.0073322
7730.0 0.0076127
7750.0 0.0077079
7770.0 0.0076686
7790.0 0.0074786
7810.0 0.0076832
7830.0 0.0074541
7850.0 0.0066578
7870.0 0.0059972
7890.0 0.0055247
7910.0 0.0049034
7930.0 0.0042071
7950.0 0.0038352
7970.0 0.003798
7990.0 0.0039582
8010.0 0.0041982
8030.0 0.0042415
8050.0 0.0042395
8070.0 0.0041318
8090.0 0.0041555
8110.0 0.0039341
8130.0 0.0035839
8150.0 0.0033639
8170.0 0.0032152
8190.0 0.0032516
8210.0 0.0033327
8230.0 0.0035137
8250.0 0.0034186
8270.0 0.003057
8290.0 0.0023992
8310.0 0.001632
8330.0 0.0010685
8350.0 0.00076573
8370.0 0.0008846
8390.0 0.00099299
8410.0 0.0012698
8430.0 0.0015436
8450.0 0.001697
8470.0 0.0018018
8490.0 0.0018188
8510.0 0.0018744
8530.0 0.002049
8550.0 0.0023234
8570.0 0.0027753
8590.0 0.003338
8610.0 0.0039531
8630.0 0.0046115
8650.0 0.0050862
8670.0 0.0050595
8690.0 0.0048278
8710.0 0.0045473
8730.0 0.0043156
8750.0 0.0040785
8770.0 0.003944
8790.0 0.0038569
8810.0 0.0036234
8830.0 0.003186
8850.0 0.0027165
8870.0 0.0022948
8890.0 0.0021235
8910.0 0.0021923
8930.0 0.0022422
8950.0 0.00248
8970.0 0.0025344
8990.0 0.0025872
9010.0 0.0026165
9030.0 0.0026262
9050.0 0.0026426
9070.0 0.002655
9090.0 0.0026642
9110.0 0.0026709
9130.0 0.002678
9150.0 0.0026861
9170.0 0.0026945
9190.0 0.0027033
9210.0 0.0027137
9230.0 0.0027235
9250.0 0.0027342
9270.0 0.0027455
9290.0 0.0027573
9310.0 0.0027699
9330.0 0.0027832
9350.0 0.0027968
9370.0 0.0028111
9390.0 0.0028262
9410.0 0.0028417
9430.0 0.0028575
9450.0 0.0028743
9470.0 0.0028916
9490.0 0.0029093
9510.0 0.0029275
9530.0 0.0029465
9550.0 0.0029657
9570.0 0.0029853
9590.0 0.0030057
9610.0 0.0030265
9630.0 0.0030475
9650.0 0.0030691
9670.0 0.0030913
9690.0 0.0031137
9710.0 0.0031365
9730.0 0.0031599
9750.0 0.0031836
9770.0 0.0032072
9790.0 0.0032316
9810.0 0.0032563
9830.0 0.0032811
9850.0 0.0033062
9870.0 0.0033318
9890.0 0.0033576
9910.0 0.0033833
9930.0 0.0034094
9950.0 0.0034358
9970.0 0.0034621
9990.0 0.0034884
10010.0 0.0033982
10030.0 0.0034236
10050.0 0.0034488
10070.0 0.0034738
10090.0 0.0034997
10110.0 0.003525
10130.0 0.0035504
10150.0 0.003576
10170.0 0.0036013
10190.0 0.0036261
10210.0 0.0036512
10230.0 0.0036763
10250.0 0.0037008
10270.0 0.0037252
10290.0 0.0037497
10310.0 0.0037736
10330.0 0.0037969
10350.0 0.0038204
10370.0 0.0038436
10390.0 0.003866
10410.0 0.0038882
10430.0 0.0039104
10450.0 0.0039319
10470.0 0.0039527
10490.0 0.0039733
10510.0 0.0039936
10530.0 0.0040127
10550.0 0.0040315
10570.0 0.0040502
10590.0 0.004068
10610.0 0.004085
10630.0 0.0041018
10650.0 0.004118
10670.0 0.004133
10690.0 0.0041476
10710.0 0.0041617
10730.0 0.0041749
10750.0 0.0041869
10770.0 0.004199
10790.0 0.0042101
10810.0 0.0042201
10830.0 0.0042294
10850.0 0.0042379
10870.0 0.0042442
10890.0 0.004248
10910.0 0.0042488
10930.0 0.004244
10950.0 0.0042299
10970.0 0.0042054
10990.0 0.0041695
11010.0 0.0040231
11030.0 0.0039556
11050.0 0.0038764
11070.0 0.0037833
11090.0 0.0036721
11110.0 0.0035579
11130.0 0.0034393
11150.0 0.0033121
11170.0 0.0031824
11190.0 0.0030586
11210.0 0.0029329
11230.0 0.0028071
11250.0 0.0026903
11270.0 0.0025813
11290.0 0.0024755
11310.0 0.0023786
11330.0 0.0022959
11350.0 0.0022197
11370.0 0.0021508
11390.0 0.0020918
11410.0 0.0020401
11430.0 0.0019909
11450.0 0.0019465
11470.0 0.0019055
11490.0 0.0018642
11510.0 0.0018208
11530.0 0.0017774
11550.0 0.0017319
11570.0 0.0016816
11590.0 0.0016287
11610.0 0.0015749
11630.0 0.0015171
11650.0 0.0014564
11670.0 0.0013979
11690.0 0.0013401
11710.0 0.0012822
11730.0 0.0012274
11750.0 0.001178
11770.0 0.0011306
11790.0 0.0010871
11810.0 0.0010493
11830.0 0.0010158
11850.0 0.00098489
11870.0 0.00095861
11890.0 0.000936
11910.0 0.00091507
11930.0 0.00089563
11950.0 0.0008778
11970.0 0.00086018
11990.0 0.00084178
12010.0 0.00082325
12030.0 0.00080433
12050.0 0.00078411
12070.0 0.00076276
12090.0 0.00074211
12110.0 0.00072119
12130.0 0.00070022
12150.0 0.00068072
12170.0 0.00066324
12190.0 0.00064714
12210.0 0.00063408
12230.0 0.00062461
12250.0 0.00061857
12270.0 0.00061646
12290.0 0.00061839
12310.0 0.00062388
12330.0 0.00063353
12350.0 0.00064676
12370.0 0.00066242
12390.0 0.00068083
12410.0 0.00070257
12430.0 0.00072435
12450.0 0.0007465
12470.0 0.00076955
12490.0 0.00079194
12510.0 0.00081202
12530.0 0.00083112
12550.0 0.0008485
12570.0 0.00086257
12590.0 0.00087366
12610.0 0.00088222
12630.0 0.00088739
12650.0 0.00088895
12670.0 0.00088769
12690.0 0.00088345
12710.0 0.0008765
12730.0 0.00086725
12750.0 0.00085545
12770.0 0.00084184
12790.0 0.00082695
12810.0 0.00081048
12830.0 0.00079251
12850.0 0.00077427
12870.0 0.0007554
12890.0 0.00073531
12910.0 0.0007149
12930.0 0.00069461
12950.0 0.00067326
12970.0 0.00065117
12990.0 0.00062972
13010.0 0.00060807
13030.0 0.00058573
13050.0 0.00056376
13070.0 0.00054274
13090.0 0.00052137
13110.0 0.00050047
13130.0 0.00048103
13150.0 0.00046261
13170.0 0.00044472
13190.0 0.00042896
13210.0 0.00041532
13230.0 0.00040321
13250.0 0.00039319
13270.0 0.00038565
13290.0 0.00038024
13310.0 0.00037709
13330.0 0.00037633
13350.0 0.00037765
13370.0 0.00038114
13390.0 0.00038669
13410.0 0.00039339
13430.0 0.0004015
13450.0 0.00041094
13470.0 0.00042083
13490.0 0.00043077
13510.0 0.00044153
13530.0 0.00045192
13550.0 0.00046138
13570.0 0.00047033
13590.0 0.00047869
13610.0 0.00048571
13630.0 0.00049146
13650.0 0.00049638
13670.0 0.00050003
13690.0 0.00050238
13710.0 0.00050369
13730.0 0.00050396
13750.0 0.00050311
13770.0 0.00050136
13790.0 0.00049875
13810.0 0.00049534
13830.0 0.00049136
13850.0 0.00048666
13870.0 0.0004813
13890.0 0.00047557
13910.0 0.00046944
13930.0 0.00046269
13950.0 0.0004556
13970.0 0.00044857
13990.0 0.00044117
14010.0 0.00043353
14030.0 0.0004261
14050.0 0.0004188
14070.0 0.00041134
14090.0 0.00040437
14110.0 0.00039799
14130.0 0.000392
14150.0 0.00038656
14170.0 0.00038209
14190.0 0.00037841
14210.0 0.00037552
14230.0 0.00037363
14250.0 0.00037271
14270.0 0.00037274
14290.0 0.00037381
14310.0 0.00037572
14330.0 0.00037846
14350.0 0.0003821
14370.0 0.00038636
14390.0 0.00039101
14410.0 0.00039635
14430.0 0.0004021
14450.0 0.00040793
14470.0 0.000414
14490.0 0.00042057
14510.0 0.00042704
14530.0 0.0004335
14550.0 0.00044041
14570.0 0.00044766
14590.0 0.000455
14610.0 0.00046296
14630.0 0.0004719
14650.0 0.00048133
14670.0 0.00049141
14690.0 0.0005028
14710.0 0.0005154
14730.0 0.00052823
14750.0 0.00054226
14770.0 0.00055756
14790.0 0.00057318
14810.0 0.00058895
14830.0 0.00060609
14850.0 0.00062303
14870.0 0.00063912
14890.0 0.00065496
14910.0 0.00067028
14930.0 0.0006838
14950.0 0.00069548
14970.0 0.00070573
14990.0 0.0007137
15010.0 0.00071934
15030.0 0.00072313
15050.0 0.00072523
15070.0 0.00072588
15090.0 0.00072563
15110.0 0.00072474
15130.0 0.00072348
15150.0 0.00072211
15170.0 0.00072057
15190.0 0.00071897
15210.0 0.00071743
15230.0 0.0007159
15250.0 0.0007143
15270.0 0.00071273
15290.0 0.00071126
15310.0 0.00070974
15330.0 0.00070819
15350.0 0.00070672
15370.0 0.00070526
15390.0 0.0007037
15410.0 0.0007022
15430.0 0.00070076
15450.0 0.00069927
15470.0 0.00069774
15490.0 0.00069631
15510.0 0.00069488
15530.0 0.00069338
15550.0 0.00069191
15570.0 0.0006905
15590.0 0.00068901
15610.0 0.00068748
15630.0 0.00068606
15650.0 0.00068462
15670.0 0.00068311
15690.0 0.00068164
15710.0 0.00068023
15730.0 0.00067873
15750.0 0.00067722
15770.0 0.00067578
15790.0 0.00067431
15810.0 0.00067275
15830.0 0.00067125
15850.0 0.0006698
15870.0 0.00066828
15890.0 0.00066674
15910.0 0.00066527
15930.0 0.00066376
15950.0 0.00066216
15970.0 0.00066062
15990.0 0.00065911
16010.0 0.00065752
16030.0 0.0006559
16050.0 0.00065438
16070.0 0.00065281
16090.0 0.00065117
16110.0 0.00064958
16130.0 0.00064802
16150.0 0.00064633
16170.0 0.00064466
16190.0 0.00064305
16210.0 0.00064139
16230.0 0.00063967
16250.0 0.00063801
16270.0 0.00063637
16290.0 0.00063462
16310.0 0.00063288
16330.0 0.0006312
16350.0 0.00062945
16370.0 0.0006276
16390.0 0.00062587
16410.0 0.00062412
16430.0 0.00062229
16450.0 0.00062047
16470.0 0.00061871
16490.0 0.00061686
16510.0 0.00061496
16530.0 0.00061312
16550.0 0.00061127
16570.0 0.00060933
16590.0 0.00060739
16610.0 0.00060554
16630.0 0.0006036
16650.0 0.00060162
16670.0 0.0005997
16690.0 0.00059777
16710.0 0.00059571
16730.0 0.0005937
16750.0 0.00059173
16770.0 0.00058969
16790.0 0.0005876
16810.0 0.00058559
16830.0 0.00058355
16850.0 0.00058143
16870.0 0.00057934
16890.0 0.00057729
16910.0 0.00057513
16930.0 0.00057294
16950.0 0.00057083
16970.0 0.00056869
16990.0 0.00056648
17010.0 0.0005643
17030.0 0.00056217
17050.0 0.00055993
17070.0 0.00055768
17090.0 0.00055548
17110.0 0.00055325
17130.0 0.00055092
17150.0 0.00054866
17170.0 0.00054643
17190.0 0.00054412
17210.0 0.0005418
17230.0 0.00053954
17250.0 0.00053722
17270.0 0.00053483
17290.0 0.0005325
17310.0 0.00053018
17330.0 0.00052778
17350.0 0.00052537
17370.0 0.00052305
17390.0 0.00052067
17410.0 0.00051823
17430.0 0.00051584
17450.0 0.00051348
17470.0 0.00051098
17490.0 0.00050852
17510.0 0.00050613
17530.0 0.00050368
17550.0 0.00050117
17570.0 0.00049874
17590.0 0.00049631
17610.0 0.00049379
17630.0 0.0004913
17650.0 0.00048885
17670.0 0.00048635
17690.0 0.00048376
17710.0 0.0004813
17730.0 0.00047882
17750.0 0.00047627
17770.0 0.00047374
17790.0 0.00047128
17810.0 0.00046872
17830.0 0.00046614
17850.0 0.00046363
17870.0 0.00046111
17890.0 0.00045851
17910.0 0.00045594
17930.0 0.00045345
17950.0 0.00045089
17970.0 0.0004483
17990.0 0.00044578
18010.0 0.00044325
18030.0 0.00044061
18050.0 0.00043804
18070.0 0.00043552
18090.0 0.00043293
18110.0 0.00043032
18130.0 0.0004278
18150.0 0.00042526
18170.0 0.00042265
18190.0 0.00042008
18210.0 0.00041756
18230.0 0.00041496
18250.0 0.00041234
18270.0 0.00040982
18290.0 0.00040726
18310.0 0.00040466
18330.0 0.00040211
18350.0 0.00039961
18370.0 0.00039701
18390.0 0.00039443
18410.0 0.00039191
18430.0 0.00038937
18450.0 0.00038675
18470.0 0.00038422
18490.0 0.00038172
18510.0 0.00037916
18530.0 0.0003766
18550.0 0.00037413
18570.0 0.00037159
18590.0 0.00036901
18610.0 0.00036651
18630.0 0.00036402
18650.0 0.00036148
18670.0 0.00035893
18690.0 0.00035649
18710.0 0.000354
18730.0 0.00035147
18750.0 0.000349
18770.0 0.00034657
18790.0 0.00034402
18810.0 0.00034153
18830.0 0.00033911
18850.0 0.00033664
18870.0 0.00033415
18890.0 0.00033173
18910.0 0.00032933
18930.0 0.00032685
18950.0 0.00032441
18970.0 0.00032203
18990.0 0.00031961
19010.0 0.00031712
19030.0 0.00031476
19050.0 0.00031239
19070.0 0.00030997
19090.0 0.00030759
19110.0 0.00030528
19130.0 0.00030288
19150.0 0.00030048
19170.0 0.00029815
19190.0 0.00029583
19210.0 0.00029344
19230.0 0.0002911
19250.0 0.00028883
19270.0 0.0002865
19290.0 0.00028417
19310.0 0.00028191
19330.0 0.00027964
19350.0 0.00027729
19370.0 0.00027502
19390.0 0.00027279
19410.0 0.00027051
19430.0 0.00026822
19450.0 0.00026603
19470.0 0.00026381
19490.0 0.00026155
19510.0 0.00025934
19530.0 0.00025717
19550.0 0.00025493
19570.0 0.00025269
19590.0 0.00025055
19610.0 0.00024838
19630.0 0.00024618
19650.0 0.00024403
19670.0 0.00024193
19690.0 0.00023975
19710.0 0.00023759
19730.0 0.0002355
19750.0 0.00023338
19770.0 0.00023121
19790.0 0.00022913
19810.0 0.00022707
19830.0 0.00022496
19850.0 0.00022286
19870.0 0.0002208
19890.0 0.00021866
19910.0 0.0002164
19930.0 0.0002141
19950.0 0.00021164
19970.0 0.00020885
19990.0 0.00020573
20010.0 0.00020641
20030.0 0.00020256
20050.0 0.0001983
20070.0 0.00019388
20090.0 0.00018931
20110.0 0.00018436
20130.0 0.00017953
20150.0 0.00017489
20170.0 0.00017022
20190.0 0.00016563
20210.0 0.00016139
20230.0 0.00015734
20250.0 0.00015338
20270.0 0.00014976
20290.0 0.00014651
20310.0 0.00014348
20330.0 0.0001407
20350.0 0.00013842
20370.0 0.00013644
20390.0 0.00013476
20410.0 0.00013346
20430.0 0.00013252
20450.0 0.00013188
20470.0 0.00013158
20490.0 0.00013158
20510.0 0.00013185
20530.0 0.00013242
20550.0 0.0001332
20570.0 0.00013415
20590.0 0.00013532
20610.0 0.00013665
20630.0 0.00013806
20650.0 0.00013958
20670.0 0.00014127
20690.0 0.00014294
20710.0 0.00014462
20730.0 0.00014639
20750.0 0.00014819
20770.0 0.00014991
20790.0 0.00015167
20810.0 0.00015351
20830.0 0.00015529
20850.0 0.00015706
20870.0 0.00015894
20890.0 0.00016084
20910.0 0.00016267
20930.0 0.00016457
20950.0 0.00016655
20970.0 0.00016849
20990.0 0.00017042
21010.0 0.00017247
21030.0 0.00017449
21050.0 0.00017642
21070.0 0.00017837
21090.0 0.00018034
21110.0 0.00018214
21130.0 0.00018383
21150.0 0.0001855
21170.0 0.00018702
21190.0 0.00018836
21210.0 0.0001896
21230.0 0.0001907
21250.0 0.00019156
21270.0 0.00019223
21290.0 0.00019272
21310.0 0.00019298
21330.0 0.00019299
21350.0 0.00019277
21370.0 0.00019228
21390.0 0.00019154
21410.0 0.00019054
21430.0 0.00018918
21450.0 0.00018757
21470.0 0.00018573
21490.0 0.00018358
21510.0 0.00018114
21530.0 0.00017856
21550.0 0.00017578
21570.0 0.00017272
21590.0 0.0001696
21610.0 0.00016648
21630.0 0.00016324
21650.0 0.00015994
21670.0 0.00015693
21690.0 0.00015401
21710.0 0.00015119
21730.0 0.00014867
21750.0 0.00014649
21770.0 0.0001445
21790.0 0.00014288
21810.0 0.00014167
21830.0 0.00014082
21850.0 0.00014035
21870.0 0.00014029
21890.0 0.00014059
21910.0 0.00014127
21930.0 0.00014232
21950.0 0.00014365
21970.0 0.0001453
21990.0 0.00014734
22010.0 0.00014954
22030.0 0.00015193
22050.0 0.00015459
22070.0 0.00015742
22090.0 0.00016024
22110.0 0.00016322
22130.0 0.00016633
22150.0 0.00016936
22170.0 0.00017233
22190.0 0.00017537
22210.0 0.00017829
22230.0 0.00018093
22250.0 0.00018347
22270.0 0.00018585
22290.0 0.00018791
22310.0 0.00018968
22330.0 0.00019124
22350.0 0.00019243
22370.0 0.00019324
22390.0 0.00019372
22410.0 0.0001938
22430.0 0.0001935
22450.0 0.00019282
22470.0 0.00019173
22490.0 0.00019025
22510.0 0.00018846
22530.0 0.00018622
22550.0 0.00018356
22570.0 0.00018067
22590.0 0.00017746
22610.0 0.00017383
22630.0 0.00016995
22650.0 0.00016598
22670.0 0.00016164
22690.0 0.00015704
22710.0 0.00015243
22730.0 0.0001477
22750.0 0.00014259
22770.0 0.00013762
22790.0 0.00013279
22810.0 0.00012783
22830.0 0.00012291
22850.0 0.00011832
22870.0 0.00011384
22890.0 0.00010942
22910.0 0.00010539
22930.0 0.00010175
22950.0 9.8351e-05
22970.0 9.5287e-05
22990.0 9.2846e-05
23010.0 9.0792e-05
23030.0 8.9172e-05
23050.0 8.8092e-05
23070.0 8.7516e-05
