#lamb flux
1010.0 4.4948e-08
1030.0 4.9276e-08
1050.0 5.4253e-08
1070.0 5.9856e-08
1090.0 6.622e-08
1110.0 7.2748e-08
1130.0 7.9317e-08
1150.0 8.6199e-08
1170.0 9.3298e-08
1190.0 1.0003e-07
1210.0 1.0685e-07
1230.0 1.139e-07
1250.0 1.2081e-07
1270.0 1.2751e-07
1290.0 1.346e-07
1310.0 1.4168e-07
1330.0 1.4847e-07
1350.0 1.5534e-07
1370.0 1.6243e-07
1390.0 1.6934e-07
1410.0 1.7605e-07
1430.0 1.8306e-07
1450.0 1.9007e-07
1470.0 1.9684e-07
1490.0 2.0369e-07
1510.0 2.1092e-07
1530.0 2.1776e-07
1550.0 2.2452e-07
1570.0 2.315e-07
1590.0 2.3849e-07
1610.0 2.4517e-07
1630.0 2.5205e-07
1650.0 2.591e-07
1670.0 2.6592e-07
1690.0 2.7264e-07
1710.0 2.7962e-07
1730.0 2.8663e-07
1750.0 2.9321e-07
1770.0 2.9998e-07
1790.0 3.0687e-07
1810.0 3.1351e-07
1830.0 3.2003e-07
1850.0 3.2692e-07
1870.0 3.3362e-07
1890.0 3.4005e-07
1910.0 3.4658e-07
1930.0 3.5324e-07
1950.0 3.5953e-07
1970.0 3.657e-07
1990.0 3.7207e-07
2010.0 3.7826e-07
2030.0 3.8413e-07
2050.0 3.9014e-07
2070.0 3.9622e-07
2090.0 4.0182e-07
2110.0 4.073e-07
2130.0 4.1286e-07
2150.0 4.1818e-07
2170.0 4.2308e-07
2190.0 4.2807e-07
2210.0 4.3296e-07
2230.0 4.3742e-07
2250.0 4.4169e-07
2270.0 4.4605e-07
2290.0 4.5003e-07
2310.0 4.5357e-07
2330.0 4.5714e-07
2350.0 4.6067e-07
2370.0 4.6395e-07
2390.0 4.6752e-07
2410.0 4.7209e-07
2430.0 4.7759e-07
2450.0 4.8459e-07
2470.0 4.9432e-07
2490.0 5.0733e-07
2510.0 5.2245e-07
2530.0 5.414e-07
2550.0 5.6627e-07
2570.0 5.9831e-07
2590.0 6.4101e-07
2610.0 7.0624e-07
2630.0 7.989e-07
2650.0 9.1777e-07
2670.0 1.0682e-06
2690.0 1.2485e-06
2710.0 1.4345e-06
2730.0 1.6114e-06
2750.0 1.779e-06
2770.0 1.9165e-06
2790.0 2.0169e-06
2810.0 2.0884e-06
2830.0 2.136e-06
2850.0 2.1587e-06
2870.0 2.1674e-06
2890.0 2.1681e-06
2910.0 2.1631e-06
2930.0 2.1544e-06
2950.0 2.1451e-06
2970.0 2.1359e-06
2990.0 2.1262e-06
3010.0 6.783e-05
3030.0 6.7553e-05
3050.0 6.7279e-05
3070.0 6.6966e-05
3090.0 6.6618e-05
3110.0 6.6166e-05
3130.0 6.5527e-05
3150.0 6.4642e-05
3170.0 6.3383e-05
3190.0 6.1774e-05
3210.0 5.9919e-05
3230.0 5.7895e-05
3250.0 5.5827e-05
3270.0 5.4276e-05
3290.0 5.3094e-05
3310.0 5.282e-05
3330.0 5.3152e-05
3350.0 5.4077e-05
3370.0 5.5587e-05
3390.0 5.7605e-05
3410.0 5.9868e-05
3430.0 6.2457e-05
3450.0 6.5477e-05
3470.0 6.8814e-05
3490.0 7.2403e-05
3510.0 7.6497e-05
3530.0 8.0976e-05
3550.0 8.5784e-05
3570.0 9.1094e-05
3590.0 9.7029e-05
3610.0 0.00010365
3630.0 0.00011023
3650.0 0.00011721
3670.0 0.0001235
3690.0 0.00012817
3710.0 0.00013051
3730.0 0.0001291
3750.0 0.00012405
3770.0 0.00012689
3790.0 0.00012397
3810.0 9.557e-05
3830.0 9.181e-05
3850.0 0.00013532
3870.0 0.00013059
3890.0 9.881e-05
3910.0 9.6051e-05
3930.0 0.00012266
3950.0 0.00014678
3970.0 0.00016683
3990.0 0.00011476
4010.0 0.00021474
4030.0 0.00020716
4050.0 0.00021858
4070.0 0.00024787
4090.0 0.00023481
4110.0 0.00020709
4130.0 0.00025527
4150.0 0.00034226
4170.0 0.0002709
4190.0 0.00023888
4210.0 0.00026944
4230.0 0.00033431
4250.0 0.00039975
4270.0 0.00043468
4290.0 0.00038605
4310.0 0.00035648
4330.0 0.00035279
4350.0 0.00045244
4370.0 0.0005507
4390.0 0.00043695
4410.0 0.00024296
4430.0 0.00017154
4450.0 0.00016027
4470.0 9.8852e-05
4490.0 0.00017516
4510.0 0.00037776
4530.0 0.00046097
4550.0 0.00043446
4570.0 0.00038859
4590.0 0.00041573
4610.0 0.00082746
4630.0 0.0011618
4650.0 0.0010949
4670.0 0.00096163
4690.0 0.0009889
4710.0 0.0010353
4730.0 0.00084303
4750.0 0.00054226
4770.0 0.00037159
4790.0 0.00041598
4810.0 0.00043872
4830.0 0.00043489
4850.0 0.00047261
4870.0 0.00062617
4890.0 0.00072552
4910.0 0.00056086
4930.0 0.00054512
4950.0 0.00062924
4970.0 0.00084084
4990.0 0.0011346
5010.0 0.0013096
5030.0 0.0010409
5050.0 0.00063198
5070.0 0.00045062
5090.0 0.00034307
5110.0 0.00031993
5130.0 0.00038404
5150.0 0.00036935
5170.0 0.00034628
5190.0 0.00030741
5210.0 0.00034238
5230.0 0.00042971
5250.0 0.00050344
5270.0 0.00046295
5290.0 0.0004998
5310.0 0.00067617
5330.0 0.00072189
5350.0 0.00071095
5370.0 0.00080321
5390.0 0.0010046
5410.0 0.00085361
5430.0 0.00064744
5450.0 0.00065646
5470.0 0.00076951
5490.0 0.00096755
5510.0 0.0011793
5530.0 0.001368
5550.0 0.0012305
5570.0 0.0011013
5590.0 0.00090189
5610.0 0.0009207
5630.0 0.0010414
5650.0 0.00096134
5670.0 0.0008842
5690.0 0.00071099
5710.0 0.00073298
5730.0 0.00071508
5750.0 0.00038034
5770.0 0.00027135
5790.0 0.00033939
5810.0 0.00035828
5830.0 0.00056605
5850.0 0.00074165
5870.0 0.00079282
5890.0 0.00075122
5910.0 0.00072938
5930.0 0.00070424
5950.0 0.00072834
5970.0 0.00090815
5990.0 0.00074043
6010.0 0.00056592
6030.0 0.00045971
6050.0 0.00041076
6070.0 0.00049646
6090.0 0.00056154
6110.0 0.00056941
6130.0 0.00051932
6150.0 0.00040632
6170.0 0.00031685
6190.0 0.00039227
6210.0 0.00062754
6230.0 0.00092834
6250.0 0.00099559
6270.0 0.00075469
6290.0 0.00064645
6310.0 0.00049257
6330.0 0.00035797
6350.0 0.00035421
6370.0 0.00037202
6390.0 0.00044763
6410.0 0.00057946
6430.0 0.00069922
6450.0 0.00086326
6470.0 0.00090951
6490.0 0.0010914
6510.0 0.0012251
6530.0 0.0012483
6550.0 0.0011505
6570.0 0.00092741
6590.0 0.00089073
6610.0 0.00073638
6630.0 0.00077097
6650.0 0.00074792
6670.0 0.00065291
6690.0 0.00050495
6710.0 0.00049466
6730.0 0.00021342
6750.0 0.00029011
6770.0 0.00046302
6790.0 0.0006186
6810.0 0.00043741
6830.0 0.00044655
6850.0 0.00037067
6870.0 0.00034933
6890.0 0.00029306
6910.0 0.00035639
6930.0 0.00033511
6950.0 0.00040548
6970.0 0.00041841
6990.0 0.00046327
7010.0 0.00044944
7030.0 0.00051377
7050.0 0.00044169
7070.0 0.00036629
7090.0 0.00039243
7110.0 0.00041367
7130.0 0.00047686
7150.0 0.00054415
7170.0 0.0006095
7190.0 0.00064502
7210.0 0.00056862
7230.0 0.00057453
7250.0 0.00061865
7270.0 0.0006678
7290.0 0.00082038
7310.0 0.00085799
7330.0 0.00079399
7350.0 0.00070932
7370.0 0.00051791
7390.0 0.00054079
7410.0 0.00067381
7430.0 0.00076853
7450.0 0.00082667
7470.0 0.00075576
7490.0 0.00060977
7510.0 0.0010093
7530.0 0.00090796
7550.0 0.0008534
7570.0 0.00057128
7590.0 0.00024091
7610.0 0.00016513
7630.0 0.00026094
7650.0 0.00035569
7670.0 0.00057917
7690.0 0.0006482
7710.0 0.00057763
7730.0 0.00056753
7750.0 0.00075415
7770.0 0.00077446
7790.0 0.00070964
7810.0 0.00057007
7830.0 0.00061828
7850.0 0.0006828
7870.0 0.00067132
7890.0 0.00052299
7910.0 0.00034479
7930.0 0.00035786
7950.0 0.0003224
7970.0 0.00026942
7990.0 0.00024099
8010.0 0.00016388
8030.0 0.00015151
8050.0 0.00016323
8070.0 0.00018129
8090.0 0.00021781
8110.0 0.00020397
8130.0 0.00012534
8150.0 0.00012798
8170.0 7.5773e-05
8190.0 4.9626e-05
8210.0 0.00011431
8230.0 0.0001366
8250.0 5.9038e-05
8270.0 4.7311e-05
8290.0 8.1986e-05
8310.0 7.0384e-05
8330.0 4.3073e-05
8350.0 3.4633e-05
8370.0 9.8182e-06
8390.0 3.7296e-05
8410.0 4.3684e-05
8430.0 5.4391e-05
8450.0 6.1089e-05
8470.0 9.9723e-05
8490.0 8.1673e-05
8510.0 6.3681e-05
8530.0 3.3389e-05
8550.0 0.00011035
8570.0 0.00017113
8590.0 0.00012168
8610.0 0.00018069
8630.0 0.00019646
8650.0 0.00010888
8670.0 0.00015713
8690.0 0.00024097
8710.0 0.00020792
8730.0 0.00022342
8750.0 0.00017684
8770.0 0.00015787
8790.0 0.00017489
8810.0 0.00018873
8830.0 0.00010663
8850.0 4.8764e-05
8870.0 3.5341e-05
8890.0 8.2436e-05
8910.0 0.00012835
8930.0 0.00016825
8950.0 0.00018911
8970.0 0.0001827
8990.0 0.00013913
9010.0 0.00010995
9030.0 8.4133e-05
9050.0 8.7718e-05
9070.0 9.1323e-05
9090.0 9.4227e-05
9110.0 9.7697e-05
9130.0 0.00010021
9150.0 0.000102
9170.0 0.00010392
9190.0 0.00010597
9210.0 0.00010812
9230.0 0.00011039
9250.0 0.00011269
9270.0 0.00011507
9290.0 0.0001175
9310.0 0.00011994
9330.0 0.00012242
9350.0 0.00012497
9370.0 0.00012754
9390.0 0.00013013
9410.0 0.00013278
9430.0 0.0001355
9450.0 0.0001382
9470.0 0.00014094
9490.0 0.00014376
9510.0 0.0001466
9530.0 0.00014944
9550.0 0.00015239
9570.0 0.00015537
9590.0 0.00015836
9610.0 0.00016139
9630.0 0.0001645
9650.0 0.00016763
9670.0 0.00017076
9690.0 0.00017397
9710.0 0.00017723
9730.0 0.00018048
9750.0 0.00018379
9770.0 0.00018719
9790.0 0.00019058
9810.0 0.00019398
9830.0 0.00019746
9850.0 0.00020098
9870.0 0.00020448
9890.0 0.00020804
9910.0 0.00021166
9930.0 0.00021528
9950.0 0.00021892
9970.0 0.00022262
9990.0 0.00022637
10010.0 0.00020389
10030.0 0.00020719
10050.0 0.00021053
10070.0 0.00021383
10090.0 0.00021717
10110.0 0.00022058
10130.0 0.00022399
10150.0 0.00022737
10170.0 0.00023077
10190.0 0.00023422
10210.0 0.00023763
10230.0 0.00024103
10250.0 0.00024447
10270.0 0.00024791
10290.0 0.0002513
10310.0 0.00025472
10330.0 0.00025817
10350.0 0.00026157
10370.0 0.00026494
10390.0 0.00026835
10410.0 0.00027173
10430.0 0.00027504
10450.0 0.00027837
10470.0 0.00028171
10490.0 0.00028498
10510.0 0.00028822
10530.0 0.0002915
10550.0 0.00029471
10570.0 0.00029785
10590.0 0.000301
10610.0 0.00030412
10630.0 0.00030716
10650.0 0.00031017
10670.0 0.00031318
10690.0 0.00031613
10710.0 0.000319
10730.0 0.00032185
10750.0 0.00032469
10770.0 0.00032741
10790.0 0.00033008
10810.0 0.00033274
10830.0 0.0003353
10850.0 0.00033773
10870.0 0.00034008
10890.0 0.00034221
10910.0 0.00034394
10930.0 0.00034514
10950.0 0.00034552
10970.0 0.0003448
10990.0 0.00034287
11010.0 0.00034781
11030.0 0.00034256
11050.0 0.00033598
11070.0 0.00032797
11090.0 0.00031828
11110.0 0.0003082
11130.0 0.00029768
11150.0 0.00028638
11170.0 0.00027478
11190.0 0.00026357
11210.0 0.00025207
11230.0 0.00024037
11250.0 0.00022926
11270.0 0.00021864
11290.0 0.00020808
11310.0 0.00019812
11330.0 0.00018934
11350.0 0.00018106
11370.0 0.00017338
11390.0 0.00016667
11410.0 0.00016074
11430.0 0.00015514
11450.0 0.00015021
11470.0 0.00014584
11490.0 0.00014167
11510.0 0.00013759
11530.0 0.00013373
11550.0 0.00012987
11570.0 0.00012577
11590.0 0.00012156
11610.0 0.00011731
11630.0 0.00011275
11650.0 0.00010794
11670.0 0.00010324
11690.0 9.8515e-05
11710.0 9.368e-05
11730.0 8.9012e-05
11750.0 8.4686e-05
11770.0 8.0448e-05
11790.0 7.6462e-05
11810.0 7.2915e-05
11830.0 6.9706e-05
11850.0 6.6714e-05
11870.0 6.4149e-05
11890.0 6.1953e-05
11910.0 5.997e-05
11930.0 5.8208e-05
11950.0 5.6679e-05
11970.0 5.5272e-05
11990.0 5.3918e-05
12010.0 5.2643e-05
12030.0 5.1408e-05
12050.0 5.0144e-05
12070.0 4.8845e-05
12090.0 4.759e-05
12110.0 4.6318e-05
12130.0 4.5036e-05
12150.0 4.382e-05
12170.0 4.2702e-05
12190.0 4.1651e-05
12210.0 4.0765e-05
12230.0 4.0084e-05
12250.0 3.961e-05
12270.0 3.9385e-05
12290.0 3.9423e-05
12310.0 3.9705e-05
12330.0 4.028e-05
12350.0 4.112e-05
12370.0 4.2153e-05
12390.0 4.3411e-05
12410.0 4.4949e-05
12430.0 4.653e-05
12450.0 4.8183e-05
12470.0 4.9959e-05
12490.0 5.1743e-05
12510.0 5.3397e-05
12530.0 5.5037e-05
12550.0 5.6606e-05
12570.0 5.7957e-05
12590.0 5.9109e-05
12610.0 6.0108e-05
12630.0 6.0855e-05
12650.0 6.1295e-05
12670.0 6.1508e-05
12690.0 6.1461e-05
12710.0 6.1142e-05
12730.0 6.0586e-05
12750.0 5.9774e-05
12770.0 5.8745e-05
12790.0 5.7547e-05
12810.0 5.6166e-05
12830.0 5.461e-05
12850.0 5.3e-05
12870.0 5.1319e-05
12890.0 4.9528e-05
12910.0 4.7721e-05
12930.0 4.5947e-05
12950.0 4.4114e-05
12970.0 4.2261e-05
12990.0 4.0506e-05
13010.0 3.8776e-05
13030.0 3.7032e-05
13050.0 3.5352e-05
13070.0 3.377e-05
13090.0 3.218e-05
13110.0 3.0635e-05
13130.0 2.9195e-05
13150.0 2.782e-05
13170.0 2.6464e-05
13190.0 2.5238e-05
13210.0 2.4137e-05
13230.0 2.3112e-05
13250.0 2.2201e-05
13270.0 2.1447e-05
13290.0 2.0819e-05
13310.0 2.0324e-05
13330.0 2e-05
13350.0 1.9834e-05
13370.0 1.9831e-05
13390.0 2.0001e-05
13410.0 2.0308e-05
13430.0 2.0762e-05
13450.0 2.1369e-05
13470.0 2.2075e-05
13490.0 2.2847e-05
13510.0 2.3749e-05
13530.0 2.4686e-05
13550.0 2.5601e-05
13570.0 2.6522e-05
13590.0 2.7441e-05
13610.0 2.8273e-05
13630.0 2.9012e-05
13650.0 2.9704e-05
13670.0 3.0292e-05
13690.0 3.0756e-05
13710.0 3.1127e-05
13730.0 3.1407e-05
13750.0 3.156e-05
13770.0 3.1617e-05
13790.0 3.1584e-05
13810.0 3.1461e-05
13830.0 3.1261e-05
13850.0 3.0985e-05
13870.0 3.0631e-05
13890.0 3.0224e-05
13910.0 2.9765e-05
13930.0 2.9237e-05
13950.0 2.8664e-05
13970.0 2.808e-05
13990.0 2.745e-05
14010.0 2.6786e-05
14030.0 2.6128e-05
14050.0 2.5469e-05
14070.0 2.4779e-05
14090.0 2.4119e-05
14110.0 2.3501e-05
14130.0 2.2903e-05
14150.0 2.2339e-05
14170.0 2.1855e-05
14190.0 2.1433e-05
14210.0 2.1069e-05
14230.0 2.0792e-05
14250.0 2.0604e-05
14270.0 2.0496e-05
14290.0 2.0484e-05
14310.0 2.0561e-05
14330.0 2.0723e-05
14350.0 2.0977e-05
14370.0 2.1304e-05
14390.0 2.1687e-05
14410.0 2.2147e-05
14430.0 2.2665e-05
14450.0 2.3206e-05
14470.0 2.3779e-05
14490.0 2.4403e-05
14510.0 2.5016e-05
14530.0 2.5613e-05
14550.0 2.6225e-05
14570.0 2.683e-05
14590.0 2.7397e-05
14610.0 2.7961e-05
14630.0 2.8534e-05
14650.0 2.9082e-05
14670.0 2.9622e-05
14690.0 3.0189e-05
14710.0 3.0788e-05
14730.0 3.1386e-05
14750.0 3.2041e-05
14770.0 3.2773e-05
14790.0 3.3555e-05
14810.0 3.439e-05
14830.0 3.5361e-05
14850.0 3.6403e-05
14870.0 3.7478e-05
14890.0 3.8626e-05
14910.0 3.9834e-05
14930.0 4.0993e-05
14950.0 4.2076e-05
14970.0 4.3101e-05
14990.0 4.3969e-05
15010.0 4.4648e-05
15030.0 4.5167e-05
15050.0 4.5533e-05
15070.0 4.5746e-05
15090.0 4.5866e-05
15110.0 4.592e-05
15130.0 4.5932e-05
15150.0 4.5927e-05
15170.0 4.5907e-05
15190.0 4.5882e-05
15210.0 4.5859e-05
15230.0 4.5837e-05
15250.0 4.5811e-05
15270.0 4.5787e-05
15290.0 4.577e-05
15310.0 4.5749e-05
15330.0 4.5728e-05
15350.0 4.5712e-05
15370.0 4.5696e-05
15390.0 4.5676e-05
15410.0 4.5659e-05
15430.0 4.5646e-05
15450.0 4.563e-05
15470.0 4.5613e-05
15490.0 4.5601e-05
15510.0 4.559e-05
15530.0 4.5574e-05
15550.0 4.5561e-05
15570.0 4.5552e-05
15590.0 4.5538e-05
15610.0 4.5522e-05
15630.0 4.5513e-05
15650.0 4.5502e-05
15670.0 4.5488e-05
15690.0 4.5476e-05
15710.0 4.5467e-05
15730.0 4.5454e-05
15750.0 4.544e-05
15770.0 4.5429e-05
15790.0 4.5418e-05
15810.0 4.5401e-05
15830.0 4.5388e-05
15850.0 4.5377e-05
15870.0 4.5362e-05
15890.0 4.5346e-05
15910.0 4.5335e-05
15930.0 4.532e-05
15950.0 4.53e-05
15970.0 4.5284e-05
15990.0 4.5269e-05
16010.0 4.525e-05
16030.0 4.5228e-05
16050.0 4.5213e-05
16070.0 4.5193e-05
16090.0 4.517e-05
16110.0 4.515e-05
16130.0 4.5131e-05
16150.0 4.5103e-05
16170.0 4.5077e-05
16190.0 4.5054e-05
16210.0 4.5028e-05
16230.0 4.4998e-05
16250.0 4.4971e-05
16270.0 4.4944e-05
16290.0 4.4912e-05
16310.0 4.4879e-05
16330.0 4.4849e-05
16350.0 4.4815e-05
16370.0 4.4774e-05
16390.0 4.474e-05
16410.0 4.4704e-05
16430.0 4.4663e-05
16450.0 4.4622e-05
16470.0 4.4584e-05
16490.0 4.454e-05
16510.0 4.4493e-05
16530.0 4.4448e-05
16550.0 4.4403e-05
16570.0 4.4351e-05
16590.0 4.4299e-05
16610.0 4.4252e-05
16630.0 4.4198e-05
16650.0 4.4142e-05
16670.0 4.4088e-05
16690.0 4.4033e-05
16710.0 4.397e-05
16730.0 4.3909e-05
16750.0 4.385e-05
16770.0 4.3785e-05
16790.0 4.3717e-05
16810.0 4.3654e-05
16830.0 4.3587e-05
16850.0 4.3515e-05
16870.0 4.3444e-05
16890.0 4.3375e-05
16910.0 4.3298e-05
16930.0 4.3218e-05
16950.0 4.3143e-05
16970.0 4.3065e-05
16990.0 4.2982e-05
17010.0 4.29e-05
17030.0 4.282e-05
17050.0 4.2732e-05
17070.0 4.2643e-05
17090.0 4.2557e-05
17110.0 4.2468e-05
17130.0 4.2371e-05
17150.0 4.2279e-05
17170.0 4.2187e-05
17190.0 4.2089e-05
17210.0 4.199e-05
17230.0 4.1894e-05
17250.0 4.1793e-05
17270.0 4.1687e-05
17290.0 4.1583e-05
17310.0 4.148e-05
17330.0 4.1371e-05
17350.0 4.1259e-05
17370.0 4.1154e-05
17390.0 4.1043e-05
17410.0 4.0927e-05
17430.0 4.0814e-05
17450.0 4.0702e-05
17470.0 4.058e-05
17490.0 4.046e-05
17510.0 4.0343e-05
17530.0 4.0222e-05
17550.0 4.0096e-05
17570.0 3.9974e-05
17590.0 3.9852e-05
17610.0 3.9722e-05
17630.0 3.9593e-05
17650.0 3.9467e-05
17670.0 3.9337e-05
17690.0 3.9199e-05
17710.0 3.9069e-05
17730.0 3.8937e-05
17750.0 3.88e-05
17770.0 3.8663e-05
17790.0 3.853e-05
17810.0 3.8389e-05
17830.0 3.8247e-05
17850.0 3.8108e-05
17870.0 3.7967e-05
17890.0 3.7821e-05
17910.0 3.7675e-05
17930.0 3.7535e-05
17950.0 3.7388e-05
17970.0 3.7239e-05
17990.0 3.7094e-05
18010.0 3.6947e-05
18030.0 3.6793e-05
18050.0 3.6642e-05
18070.0 3.6494e-05
18090.0 3.634e-05
18110.0 3.6184e-05
18130.0 3.6034e-05
18150.0 3.5881e-05
18170.0 3.5722e-05
18190.0 3.5567e-05
18210.0 3.5413e-05
18230.0 3.5253e-05
18250.0 3.5091e-05
18270.0 3.4936e-05
18290.0 3.4777e-05
18310.0 3.4615e-05
18330.0 3.4455e-05
18350.0 3.4298e-05
18370.0 3.4134e-05
18390.0 3.397e-05
18410.0 3.381e-05
18430.0 3.3647e-05
18450.0 3.3479e-05
18470.0 3.3316e-05
18490.0 3.3154e-05
18510.0 3.2988e-05
18530.0 3.2822e-05
18550.0 3.266e-05
18570.0 3.2494e-05
18590.0 3.2324e-05
18610.0 3.2158e-05
18630.0 3.1994e-05
18650.0 3.1824e-05
18670.0 3.1654e-05
18690.0 3.1491e-05
18710.0 3.1324e-05
18730.0 3.1154e-05
18750.0 3.0987e-05
18770.0 3.0822e-05
18790.0 3.0649e-05
18810.0 3.0479e-05
18830.0 3.0314e-05
18850.0 3.0145e-05
18870.0 2.9974e-05
18890.0 2.9807e-05
18910.0 2.9641e-05
18930.0 2.947e-05
18950.0 2.93e-05
18970.0 2.9135e-05
18990.0 2.8966e-05
19010.0 2.8791e-05
19030.0 2.8626e-05
19050.0 2.846e-05
19070.0 2.8289e-05
19090.0 2.8121e-05
19110.0 2.7957e-05
19130.0 2.7787e-05
19150.0 2.7616e-05
19170.0 2.7451e-05
19190.0 2.7284e-05
19210.0 2.7114e-05
19230.0 2.6946e-05
19250.0 2.6783e-05
19270.0 2.6615e-05
19290.0 2.6447e-05
19310.0 2.6284e-05
19330.0 2.6119e-05
19350.0 2.5949e-05
19370.0 2.5784e-05
19390.0 2.5621e-05
19410.0 2.5455e-05
19430.0 2.5288e-05
19450.0 2.5128e-05
19470.0 2.4965e-05
19490.0 2.4799e-05
19510.0 2.4636e-05
19530.0 2.4477e-05
19550.0 2.4312e-05
19570.0 2.4146e-05
19590.0 2.3988e-05
19610.0 2.3828e-05
19630.0 2.3664e-05
19650.0 2.3505e-05
19670.0 2.3348e-05
19690.0 2.3186e-05
19710.0 2.3026e-05
19730.0 2.2869e-05
19750.0 2.2711e-05
19770.0 2.2549e-05
19790.0 2.2393e-05
19810.0 2.2239e-05
19830.0 2.208e-05
19850.0 2.1922e-05
19870.0 2.1767e-05
19890.0 2.1604e-05
19910.0 2.143e-05
19930.0 2.125e-05
19950.0 2.1053e-05
19970.0 2.0823e-05
19990.0 2.0559e-05
20010.0 1.9267e-05
20030.0 1.8944e-05
20050.0 1.8577e-05
20070.0 1.8188e-05
20090.0 1.7776e-05
20110.0 1.7318e-05
20130.0 1.6861e-05
20150.0 1.6412e-05
20170.0 1.5951e-05
20190.0 1.5489e-05
20210.0 1.5053e-05
20230.0 1.4631e-05
20250.0 1.421e-05
20270.0 1.3819e-05
20290.0 1.346e-05
20310.0 1.3119e-05
20330.0 1.2799e-05
20350.0 1.2529e-05
20370.0 1.2286e-05
20390.0 1.2069e-05
20410.0 1.1889e-05
20430.0 1.1743e-05
20450.0 1.1622e-05
20470.0 1.1533e-05
20490.0 1.1474e-05
20510.0 1.144e-05
20530.0 1.1432e-05
20550.0 1.1446e-05
20570.0 1.1479e-05
20590.0 1.1533e-05
20610.0 1.1604e-05
20630.0 1.1686e-05
20650.0 1.1782e-05
20670.0 1.1895e-05
20690.0 1.2012e-05
20710.0 1.2134e-05
20730.0 1.2268e-05
20750.0 1.2407e-05
20770.0 1.2543e-05
20790.0 1.2686e-05
20810.0 1.2835e-05
20830.0 1.2982e-05
20850.0 1.3127e-05
20870.0 1.3282e-05
20890.0 1.3437e-05
20910.0 1.3584e-05
20930.0 1.3734e-05
20950.0 1.3889e-05
20970.0 1.4038e-05
20990.0 1.4184e-05
21010.0 1.4337e-05
21030.0 1.4485e-05
21050.0 1.4624e-05
21070.0 1.4764e-05
21090.0 1.4904e-05
21110.0 1.503e-05
21130.0 1.5148e-05
21150.0 1.5264e-05
21170.0 1.5368e-05
21190.0 1.5458e-05
21210.0 1.554e-05
21230.0 1.5609e-05
21250.0 1.566e-05
21270.0 1.5693e-05
21290.0 1.5708e-05
21310.0 1.5702e-05
21330.0 1.5673e-05
21350.0 1.5621e-05
21370.0 1.5541e-05
21390.0 1.5437e-05
21410.0 1.5308e-05
21430.0 1.5143e-05
21450.0 1.4955e-05
21470.0 1.4747e-05
21490.0 1.451e-05
21510.0 1.4247e-05
21530.0 1.3977e-05
21550.0 1.3692e-05
21570.0 1.3385e-05
21590.0 1.3079e-05
21610.0 1.278e-05
21630.0 1.2478e-05
21650.0 1.2178e-05
21670.0 1.1913e-05
21690.0 1.1664e-05
21710.0 1.1433e-05
21730.0 1.1237e-05
21750.0 1.1076e-05
21770.0 1.0942e-05
21790.0 1.0847e-05
21810.0 1.0791e-05
21830.0 1.0771e-05
21850.0 1.0789e-05
21870.0 1.0842e-05
21890.0 1.0924e-05
21910.0 1.104e-05
21930.0 1.1185e-05
21950.0 1.1348e-05
21970.0 1.1534e-05
21990.0 1.1749e-05
22010.0 1.1968e-05
22030.0 1.2195e-05
22050.0 1.2437e-05
22070.0 1.2685e-05
22090.0 1.2922e-05
22110.0 1.3165e-05
22130.0 1.3411e-05
22150.0 1.3644e-05
22170.0 1.3865e-05
22190.0 1.4088e-05
22210.0 1.4298e-05
22230.0 1.4484e-05
22250.0 1.466e-05
22270.0 1.4825e-05
22290.0 1.4965e-05
22310.0 1.5086e-05
22330.0 1.5194e-05
22350.0 1.5278e-05
22370.0 1.5337e-05
22390.0 1.5374e-05
22410.0 1.5388e-05
22430.0 1.5374e-05
22450.0 1.5335e-05
22470.0 1.5268e-05
22490.0 1.5174e-05
22510.0 1.5056e-05
22530.0 1.4907e-05
22550.0 1.4725e-05
22570.0 1.4522e-05
22590.0 1.4295e-05
22610.0 1.4033e-05
22630.0 1.375e-05
22650.0 1.3456e-05
