#lamb flux
1010.0 3.8895e-05
1030.0 4.3278e-05
1050.0 4.9214e-05
1070.0 5.8091e-05
1090.0 6.9737e-05
1110.0 8.2231e-05
1130.0 9.5294e-05
1150.0 0.00010927
1170.0 0.00012377
1190.0 0.00013731
1210.0 0.00015039
1230.0 0.00016282
1250.0 0.00017433
1270.0 0.00018369
1290.0 0.00019154
1310.0 0.000197
1330.0 0.00019957
1350.0 0.00019991
1370.0 0.00019833
1390.0 0.00019453
1410.0 0.00018887
1430.0 0.00018227
1450.0 0.0001747
1470.0 0.00016632
1490.0 0.00015774
1510.0 0.00014942
1530.0 0.00014101
1550.0 0.00013295
1570.0 0.00012555
1590.0 0.00011877
1610.0 0.00011284
1630.0 0.0001091
1650.0 0.00010641
1670.0 0.00010468
1690.0 0.00010405
1710.0 0.00010471
1730.0 0.00010661
1750.0 0.00010964
1770.0 0.00011411
1790.0 0.00012007
1810.0 0.00012745
1830.0 0.00013635
1850.0 0.0001471
1870.0 0.00015949
1890.0 0.0001735
1910.0 0.00018934
1930.0 0.00020704
1950.0 0.00022626
1970.0 0.00024702
1990.0 0.00026945
2010.0 0.00029313
2030.0 0.00031772
2050.0 0.00034335
2070.0 0.00036979
2090.0 0.00039619
2110.0 0.00042259
2130.0 0.00044897
2150.0 0.00047469
2170.0 0.00049929
2190.0 0.00052319
2210.0 0.00054599
2230.0 0.00056716
2250.0 0.00058693
2270.0 0.00060572
2290.0 0.00062288
2310.0 0.00063841
2330.0 0.0006531
2350.0 0.00066697
2370.0 0.00067982
2390.0 0.00069255
2410.0 0.00070614
2430.0 0.00072048
2450.0 0.00073634
2470.0 0.00075533
2490.0 0.00077828
2510.0 0.00080418
2530.0 0.00083548
2550.0 0.00087482
2570.0 0.00092316
2590.0 0.00098319
2610.0 0.0010654
2630.0 0.0011709
2650.0 0.001296
2670.0 0.0014443
2690.0 0.0016141
2710.0 0.0017879
2730.0 0.0019583
2750.0 0.0021314
2770.0 0.0022977
2790.0 0.0024559
2810.0 0.0026174
2830.0 0.0027928
2850.0 0.002971
2870.0 0.0031595
2890.0 0.0033656
2910.0 0.0035828
2930.0 0.0038022
2950.0 0.0040367
2970.0 0.004284
2990.0 0.0045334
3010.0 0.0047892
3030.0 0.0050602
3050.0 0.0053383
3070.0 0.0056093
3090.0 0.0058853
3110.0 0.0061547
3130.0 0.0063991
3150.0 0.0066126
3170.0 0.0067879
3190.0 0.0069147
3210.0 0.0070069
3230.0 0.0070716
3250.0 0.007108
3270.0 0.0071343
3290.0 0.0071664
3310.0 0.0072155
3330.0 0.007283
3350.0 0.0073634
3370.0 0.0074508
3390.0 0.0074795
3410.0 0.0075268
3430.0 0.007754
3450.0 0.0079146
3470.0 0.0079458
3490.0 0.0082481
3510.0 0.0094607
3530.0 0.011648
3550.0 0.013193
3570.0 0.014427
3590.0 0.016239
3610.0 0.016183
3630.0 0.014914
3650.0 0.015663
3670.0 0.018482
3690.0 0.020737
3710.0 0.021494
3730.0 0.021669
3750.0 0.023145
3770.0 0.023272
3790.0 0.022171
3810.0 0.020901
3830.0 0.019813
3850.0 0.019945
3870.0 0.02083
3890.0 0.021465
3910.0 0.021782
3930.0 0.021794
3950.0 0.023324
3970.0 0.025129
3990.0 0.024432
4010.0 0.021797
4030.0 0.019639
4050.0 0.019474
4070.0 0.020355
4090.0 0.020176
4110.0 0.019417
4130.0 0.019308
4150.0 0.020209
4170.0 0.022334
4190.0 0.023464
4210.0 0.022105
4230.0 0.020336
4250.0 0.019246
4270.0 0.018564
4290.0 0.018686
4310.0 0.019186
4330.0 0.018256
4350.0 0.016179
4370.0 0.014432
4390.0 0.013217
4410.0 0.012549
4430.0 0.012908
4450.0 0.014204
4470.0 0.0156
4490.0 0.016682
4510.0 0.018459
4530.0 0.021695
4550.0 0.02509
4570.0 0.027164
4590.0 0.028947
4610.0 0.030508
4630.0 0.030768
4650.0 0.028554
4670.0 0.024857
4690.0 0.021968
4710.0 0.021004
4730.0 0.020069
4750.0 0.017661
4770.0 0.015797
4790.0 0.016277
4810.0 0.017644
4830.0 0.017251
4850.0 0.01533
4870.0 0.015683
4890.0 0.016086
4910.0 0.016316
4930.0 0.016051
4950.0 0.01575
4970.0 0.015052
4990.0 0.013903
5010.0 0.013088
5030.0 0.012861
5050.0 0.012792
5070.0 0.012771
5090.0 0.012752
5110.0 0.012736
5130.0 0.012996
5150.0 0.013639
5170.0 0.014848
5190.0 0.016442
5210.0 0.017728
5230.0 0.018497
5250.0 0.018929
5270.0 0.019544
5290.0 0.020028
5310.0 0.019926
5330.0 0.019237
5350.0 0.018561
5370.0 0.018587
5390.0 0.019074
5410.0 0.01943
5430.0 0.019274
5450.0 0.018997
5470.0 0.018578
5490.0 0.018152
5510.0 0.017996
5530.0 0.018086
5550.0 0.018277
5570.0 0.018348
5590.0 0.017861
5610.0 0.016967
5630.0 0.016133
5650.0 0.015384
5670.0 0.014863
5690.0 0.014267
5710.0 0.013921
5730.0 0.013986
5750.0 0.013843
5770.0 0.013597
5790.0 0.013725
5810.0 0.014125
5830.0 0.014433
5850.0 0.01452
5870.0 0.014161
5890.0 0.013595
5910.0 0.013092
5930.0 0.012435
5950.0 0.011879
5970.0 0.011945
5990.0 0.012236
6010.0 0.012231
6030.0 0.011811
6050.0 0.011735
6070.0 0.012143
6090.0 0.012559
6110.0 0.012525
6130.0 0.0119
6150.0 0.011081
6170.0 0.010628
6190.0 0.010382
6210.0 0.010164
6230.0 0.0099612
6250.0 0.0099543
6270.0 0.010237
6290.0 0.010647
6310.0 0.01111
6330.0 0.011597
6350.0 0.011893
6370.0 0.011929
6390.0 0.011862
6410.0 0.011956
6430.0 0.012107
6450.0 0.012101
6470.0 0.012126
6490.0 0.012196
6510.0 0.012193
6530.0 0.012045
6550.0 0.011739
6570.0 0.011365
6590.0 0.011038
6610.0 0.010782
6630.0 0.010572
6650.0 0.010228
6670.0 0.009848
6690.0 0.0095542
6710.0 0.0093859
6730.0 0.0092918
6750.0 0.0092017
6770.0 0.0090796
6790.0 0.0089152
6810.0 0.0087557
6830.0 0.0087048
6850.0 0.0086599
6870.0 0.0085858
6890.0 0.0085731
6910.0 0.0084575
6930.0 0.0083162
6950.0 0.0082966
6970.0 0.0082232
6990.0 0.0080523
7010.0 0.0079208
7030.0 0.0077796
7050.0 0.0076312
7070.0 0.0074499
7090.0 0.0072912
7110.0 0.0073968
7130.0 0.0076069
7150.0 0.0077724
7170.0 0.0078729
7190.0 0.0078599
7210.0 0.0077593
7230.0 0.0076329
7250.0 0.007554
7270.0 0.0074208
7290.0 0.0073107
7310.0 0.0072499
7330.0 0.0073252
7350.0 0.0073463
7370.0 0.0073228
7390.0 0.0072554
7410.0 0.0071429
7430.0 0.0070702
7450.0 0.0069962
7470.0 0.0067842
7490.0 0.0065571
7510.0 0.0062822
7530.0 0.0060612
7550.0 0.0059436
7570.0 0.0060235
7590.0 0.0059846
7610.0 0.0059184
7630.0 0.0058584
7650.0 0.0058877
7670.0 0.0060098
7690.0 0.0062543
7710.0 0.0064219
7730.0 0.0066612
7750.0 0.0068119
7770.0 0.0069344
7790.0 0.0069462
7810.0 0.0068129
7830.0 0.0068334
7850.0 0.0067697
7870.0 0.0065998
7890.0 0.006377
7910.0 0.006187
7930.0 0.0060442
7950.0 0.005957
7970.0 0.0059595
7990.0 0.006007
8010.0 0.0059901
8030.0 0.0059267
8050.0 0.0058175
8070.0 0.0057112
8090.0 0.0055942
8110.0 0.0056151
8130.0 0.0056644
8150.0 0.0056739
8170.0 0.0056263
8190.0 0.0055511
8210.0 0.0053331
8230.0 0.004989
8250.0 0.0047772
8270.0 0.0046544
8290.0 0.004595
8310.0 0.0046156
8330.0 0.0047196
8350.0 0.0046365
8370.0 0.0045355
8390.0 0.0045979
8410.0 0.0047422
8430.0 0.0049864
8450.0 0.0052103
8470.0 0.0052695
8490.0 0.0053179
8510.0 0.0052894
8530.0 0.0052578
8550.0 0.0052976
8570.0 0.0053036
8590.0 0.0052872
8610.0 0.005432
8630.0 0.0054726
8650.0 0.0053535
8670.0 0.0053426
8690.0 0.0053623
8710.0 0.0052882
8730.0 0.0052427
8750.0 0.0050823
8770.0 0.0050144
8790.0 0.00496
8810.0 0.0049105
8830.0 0.0046959
8850.0 0.004358
8870.0 0.0040966
8890.0 0.0039525
8910.0 0.0037104
8930.0 0.0034544
8950.0 0.0033629
8970.0 0.003338
8990.0 0.0033415
9010.0 0.003316
9030.0 0.0032923
9050.0 0.0032705
9070.0 0.0032493
9090.0 0.0032281
9110.0 0.003207
9130.0 0.0031859
9150.0 0.0031649
9170.0 0.0031439
9190.0 0.0031228
9210.0 0.0031018
9230.0 0.0030809
9250.0 0.0030602
9270.0 0.0030394
9290.0 0.0030187
9310.0 0.002998
9330.0 0.0029774
9350.0 0.0029569
9370.0 0.0029364
9390.0 0.0029161
9410.0 0.0028958
9430.0 0.0028755
9450.0 0.0028551
9470.0 0.0028352
9490.0 0.0028157
9510.0 0.0027958
9530.0 0.002776
9550.0 0.0027563
9570.0 0.0027367
9590.0 0.0027172
9610.0 0.0026979
9630.0 0.0026786
9650.0 0.0026595
9670.0 0.0026405
9690.0 0.0026215
9710.0 0.0026027
9730.0 0.0025841
9750.0 0.0025654
9770.0 0.002547
9790.0 0.0025286
9810.0 0.0025104
9830.0 0.0024918
9850.0 0.0024705
9870.0 0.0024532
9890.0 0.0024366
9910.0 0.0024197
9930.0 0.0024017
9950.0 0.0023848
9970.0 0.0023678
9990.0 0.0023505
10010.0 0.0023313
10030.0 0.0023135
10050.0 0.0022978
10070.0 0.0022819
10090.0 0.0022661
10110.0 0.0022492
10130.0 0.0022306
10150.0 0.0022148
10170.0 0.0021994
10190.0 0.0021833
10210.0 0.0021677
10230.0 0.0021522
10250.0 0.0021362
10270.0 0.0021203
10290.0 0.002105
10310.0 0.0020892
10330.0 0.0020732
10350.0 0.0020578
10370.0 0.0020426
10390.0 0.002027
10410.0 0.0020116
10430.0 0.0019968
10450.0 0.0019816
10470.0 0.0019663
10490.0 0.0019515
10510.0 0.0019368
10530.0 0.0019215
10550.0 0.0019065
10570.0 0.0018921
10590.0 0.0018774
10610.0 0.0018625
10630.0 0.0018482
10650.0 0.0018339
10670.0 0.0018191
10690.0 0.0018046
10710.0 0.0017905
10730.0 0.001776
10750.0 0.0017612
10770.0 0.0017473
10790.0 0.0017333
10810.0 0.0017189
10830.0 0.0017048
10850.0 0.0016912
10870.0 0.0016768
10890.0 0.0016626
10910.0 0.001649
10930.0 0.0016356
10950.0 0.0016219
10970.0 0.001609
10990.0 0.0015969
11010.0 0.0015834
11030.0 0.0015727
11050.0 0.0015628
11070.0 0.0015529
11090.0 0.0015426
11110.0 0.0015327
11130.0 0.0015228
11150.0 0.0015124
11170.0 0.0015018
11190.0 0.0014916
11210.0 0.0014811
11230.0 0.0014703
11250.0 0.0014599
11270.0 0.0014498
11290.0 0.0014395
11310.0 0.0014295
11330.0 0.0014203
11350.0 0.0014113
11370.0 0.0014024
11390.0 0.0013941
11410.0 0.0013863
11430.0 0.0013782
11450.0 0.0013705
11470.0 0.0013631
11490.0 0.0013556
11510.0 0.0013477
11530.0 0.0013401
11550.0 0.0013323
11570.0 0.001324
11590.0 0.0013154
11610.0 0.0013068
11630.0 0.0012976
11650.0 0.0012878
11670.0 0.0012782
11690.0 0.0012684
11710.0 0.0012581
11730.0 0.0012479
11750.0 0.0012381
11770.0 0.0012281
11790.0 0.001218
11810.0 0.0012085
11830.0 0.0011992
11850.0 0.0011898
11870.0 0.001181
11890.0 0.0011728
11910.0 0.0011647
11930.0 0.0011568
11950.0 0.0011497
11970.0 0.0011428
11990.0 0.0011361
12010.0 0.0011301
12030.0 0.0011246
12050.0 0.0011195
12070.0 0.0011148
12090.0 0.001111
12110.0 0.0011078
12130.0 0.001105
12150.0 0.001103
12170.0 0.0011017
12190.0 0.001101
12210.0 0.0011009
12230.0 0.0011016
12250.0 0.0011028
12270.0 0.0011046
12290.0 0.0011069
12310.0 0.0011096
12330.0 0.0011127
12350.0 0.0011161
12370.0 0.0011196
12390.0 0.0011232
12410.0 0.0011269
12430.0 0.0011303
12450.0 0.0011333
12470.0 0.0011361
12490.0 0.0011382
12510.0 0.0011398
12530.0 0.0011406
12550.0 0.0011406
12570.0 0.0011397
12590.0 0.0011378
12610.0 0.0011349
12630.0 0.0011309
12650.0 0.0011261
12670.0 0.0011203
12690.0 0.0011135
12710.0 0.001106
12730.0 0.001098
12750.0 0.0010888
12770.0 0.0010794
12790.0 0.0010699
12810.0 0.0010599
12830.0 0.0010494
12850.0 0.0010394
12870.0 0.0010294
12890.0 0.0010191
12910.0 0.0010091
12930.0 0.00099958
12950.0 0.00098984
12970.0 0.0009801
12990.0 0.00097104
13010.0 0.00096215
13030.0 0.00095317
13050.0 0.00094456
13070.0 0.00093653
13090.0 0.00092841
13110.0 0.00092052
13130.0 0.00091324
13150.0 0.00090629
13170.0 0.00089936
13190.0 0.00089308
13210.0 0.00088739
13230.0 0.00088189
13250.0 0.00087671
13270.0 0.00087208
13290.0 0.00086765
13310.0 0.00086327
13330.0 0.00085922
13350.0 0.00085535
13370.0 0.0008514
13390.0 0.00084737
13410.0 0.00084355
13430.0 0.00083956
13450.0 0.00083532
13470.0 0.00083105
13490.0 0.00082677
13510.0 0.00082202
13530.0 0.00081716
13550.0 0.00081236
13570.0 0.00080735
13590.0 0.00080204
13610.0 0.00079679
13630.0 0.00079159
13650.0 0.00078605
13670.0 0.00078048
13690.0 0.00077505
13710.0 0.00076946
13730.0 0.00076353
13750.0 0.0007579
13770.0 0.00075226
13790.0 0.00074637
13810.0 0.00074044
13830.0 0.00073471
13850.0 0.00072869
13870.0 0.00072244
13890.0 0.00071629
13910.0 0.00071009
13930.0 0.00070349
13950.0 0.00069678
13970.0 0.0006903
13990.0 0.00068348
14010.0 0.0006764
14030.0 0.00066947
14050.0 0.00066252
14070.0 0.0006551
14090.0 0.00064788
14110.0 0.00064089
14130.0 0.00063381
14150.0 0.00062668
14170.0 0.00062007
14190.0 0.00061366
14210.0 0.00060723
14230.0 0.00060117
14250.0 0.00059554
14270.0 0.00058991
14290.0 0.00058443
14310.0 0.00057942
14330.0 0.00057456
14350.0 0.00056969
14370.0 0.00056504
14390.0 0.00056065
14410.0 0.00055616
14430.0 0.00055175
14450.0 0.00054758
14470.0 0.00054348
14490.0 0.00053931
14510.0 0.00053542
14530.0 0.00053176
14550.0 0.00052813
14570.0 0.00052463
14590.0 0.00052141
14610.0 0.00051827
14630.0 0.00051515
14650.0 0.00051227
14670.0 0.00050956
14690.0 0.00050688
14710.0 0.00050429
14730.0 0.00050197
14750.0 0.00049974
14770.0 0.0004976
14790.0 0.00049569
14810.0 0.00049401
14830.0 0.00049246
14850.0 0.00049118
14870.0 0.00049019
14890.0 0.00048945
14910.0 0.00048893
14930.0 0.00048864
14950.0 0.00048848
14970.0 0.00048839
14990.0 0.00048829
15010.0 0.00048811
15030.0 0.00048782
15050.0 0.00048737
15070.0 0.00048681
15090.0 0.00048615
15110.0 0.0004854
15130.0 0.0004846
15150.0 0.0004838
15170.0 0.00048295
15190.0 0.00048209
15210.0 0.00048124
15230.0 0.00048039
15250.0 0.00047952
15270.0 0.00047865
15290.0 0.00047781
15310.0 0.00047695
15330.0 0.00047608
15350.0 0.00047523
15370.0 0.00047438
15390.0 0.0004735
15410.0 0.00047263
15430.0 0.00047179
15450.0 0.00047092
15470.0 0.00047004
15490.0 0.0004692
15510.0 0.00046835
15530.0 0.00046748
15550.0 0.00046663
15570.0 0.00046579
15590.0 0.00046493
15610.0 0.00046406
15630.0 0.00046322
15650.0 0.00046238
15670.0 0.00046152
15690.0 0.00046068
15710.0 0.00045986
15730.0 0.00045901
15750.0 0.00045816
15770.0 0.00045734
15790.0 0.00045652
15810.0 0.00045566
15830.0 0.00045484
15850.0 0.00045403
15870.0 0.00045321
15890.0 0.00045238
15910.0 0.00045159
15930.0 0.00045079
15950.0 0.00044996
15970.0 0.00044916
15990.0 0.00044838
16010.0 0.00044757
16030.0 0.00044676
16050.0 0.000446
16070.0 0.00044522
16090.0 0.00044443
16110.0 0.00044366
16130.0 0.00044291
16150.0 0.00044211
16170.0 0.00044134
16190.0 0.0004406
16210.0 0.00043985
16230.0 0.00043908
16250.0 0.00043834
16270.0 0.00043761
16290.0 0.00043686
16310.0 0.00043612
16330.0 0.00043541
16350.0 0.00043469
16370.0 0.00043393
16390.0 0.00043323
16410.0 0.00043253
16430.0 0.00043181
16450.0 0.0004311
16470.0 0.00043042
16490.0 0.00042972
16510.0 0.00042901
16530.0 0.00042833
16550.0 0.00042765
16570.0 0.00042695
16590.0 0.00042626
16610.0 0.00042561
16630.0 0.00042494
16650.0 0.00042426
16670.0 0.00042361
16690.0 0.00042296
16710.0 0.00042228
16730.0 0.00042162
16750.0 0.00042099
16770.0 0.00042033
16790.0 0.00041967
16810.0 0.00041905
16830.0 0.00041842
16850.0 0.00041776
16870.0 0.00041713
16890.0 0.00041652
16910.0 0.00041587
16930.0 0.00041523
16950.0 0.00041461
16970.0 0.000414
16990.0 0.00041336
17010.0 0.00041274
17030.0 0.00041214
17050.0 0.00041151
17070.0 0.00041088
17090.0 0.00041028
17110.0 0.00040967
17130.0 0.00040903
17150.0 0.00040842
17170.0 0.00040782
17190.0 0.0004072
17210.0 0.00040658
17230.0 0.00040599
17250.0 0.00040538
17270.0 0.00040474
17290.0 0.00040413
17310.0 0.00040353
17330.0 0.00040291
17350.0 0.00040227
17370.0 0.00040168
17390.0 0.00040106
17410.0 0.00040043
17430.0 0.00039982
17450.0 0.00039921
17470.0 0.00039856
17490.0 0.00039793
17510.0 0.00039732
17530.0 0.00039669
17550.0 0.00039604
17570.0 0.00039541
17590.0 0.00039479
17610.0 0.00039413
17630.0 0.00039349
17650.0 0.00039285
17670.0 0.0003922
17690.0 0.00039152
17710.0 0.00039088
17730.0 0.00039023
17750.0 0.00038955
17770.0 0.00038888
17790.0 0.00038823
17810.0 0.00038754
17830.0 0.00038684
17850.0 0.00038617
17870.0 0.00038548
17890.0 0.00038477
17910.0 0.00038406
17930.0 0.00038338
17950.0 0.00038267
17970.0 0.00038194
17990.0 0.00038123
18010.0 0.00038052
18030.0 0.00037976
18050.0 0.00037902
18070.0 0.00037829
18090.0 0.00037754
18110.0 0.00037677
18130.0 0.00037602
18150.0 0.00037526
18170.0 0.00037448
18190.0 0.0003737
18210.0 0.00037293
18230.0 0.00037212
18250.0 0.00037131
18270.0 0.00037052
18290.0 0.00036971
18310.0 0.00036888
18330.0 0.00036806
18350.0 0.00036725
18370.0 0.00036639
18390.0 0.00036554
18410.0 0.0003647
18430.0 0.00036384
18450.0 0.00036295
18470.0 0.00036209
18490.0 0.00036122
18510.0 0.00036033
18530.0 0.00035943
18550.0 0.00035855
18570.0 0.00035764
18590.0 0.0003567
18610.0 0.00035578
18630.0 0.00035487
18650.0 0.00035392
18670.0 0.00035296
18690.0 0.00035203
18710.0 0.00035108
18730.0 0.0003501
18750.0 0.00034914
18770.0 0.00034818
18790.0 0.00034717
18810.0 0.00034617
18830.0 0.00034518
18850.0 0.00034418
18870.0 0.00034315
18890.0 0.00034214
18910.0 0.00034113
18930.0 0.00034009
18950.0 0.00033905
18970.0 0.00033802
18990.0 0.00033696
19010.0 0.00033588
19030.0 0.00033483
19050.0 0.00033377
19070.0 0.00033268
19090.0 0.0003316
19110.0 0.00033053
19130.0 0.00032943
19150.0 0.00032832
19170.0 0.00032722
19190.0 0.00032612
19210.0 0.00032499
19230.0 0.00032386
19250.0 0.00032276
19270.0 0.00032162
19290.0 0.00032048
19310.0 0.00031935
19330.0 0.00031821
19350.0 0.00031704
19370.0 0.00031588
19390.0 0.00031474
19410.0 0.00031357
19430.0 0.00031239
19450.0 0.00031123
19470.0 0.00031007
19490.0 0.00030887
19510.0 0.00030769
19530.0 0.00030652
19550.0 0.00030532
19570.0 0.00030411
19590.0 0.00030293
19610.0 0.00030174
19630.0 0.00030053
19650.0 0.00029933
19670.0 0.00029814
19690.0 0.00029692
19710.0 0.0002957
19730.0 0.00029451
19750.0 0.00029329
19770.0 0.00029206
19790.0 0.00029085
19810.0 0.00028964
19830.0 0.00028841
19850.0 0.00028717
19870.0 0.00028595
19890.0 0.00028467
19910.0 0.00028332
19930.0 0.0002819
19950.0 0.00028036
19970.0 0.00027858
19990.0 0.00027656
20010.0 0.00027434
20030.0 0.00027179
20050.0 0.00026891
20070.0 0.00026587
20090.0 0.00026267
20110.0 0.00025917
20130.0 0.00025567
20150.0 0.00025225
20170.0 0.00024875
20190.0 0.00024524
20210.0 0.00024191
20230.0 0.00023866
20250.0 0.0002354
20270.0 0.00023231
20290.0 0.0002294
20310.0 0.00022656
20330.0 0.00022378
20350.0 0.00022129
20370.0 0.00021891
20390.0 0.00021662
20410.0 0.0002145
20430.0 0.00021256
20450.0 0.00021068
20470.0 0.00020893
20490.0 0.00020735
20510.0 0.00020588
20530.0 0.00020448
20550.0 0.00020322
20570.0 0.00020209
20590.0 0.00020101
20610.0 0.00020003
20630.0 0.00019914
20650.0 0.00019831
20670.0 0.00019752
20690.0 0.00019681
20710.0 0.00019613
20730.0 0.00019548
20750.0 0.00019483
20770.0 0.0001942
20790.0 0.00019355
20810.0 0.00019287
20830.0 0.00019216
20850.0 0.00019141
20870.0 0.00019058
20890.0 0.00018968
20910.0 0.00018872
20930.0 0.00018768
20950.0 0.00018654
20970.0 0.00018534
20990.0 0.00018407
21010.0 0.00018269
21030.0 0.00018124
21050.0 0.00017977
21070.0 0.00017822
21090.0 0.00017659
21110.0 0.00017498
21130.0 0.00017336
21150.0 0.00017167
21170.0 0.00016999
21190.0 0.00016837
21210.0 0.0001667
21230.0 0.00016502
21250.0 0.00016342
21270.0 0.00016185
21290.0 0.00016028
21310.0 0.00015875
21330.0 0.00015732
21350.0 0.0001559
21370.0 0.00015449
21390.0 0.00015318
21410.0 0.0001519
21430.0 0.00015061
21450.0 0.00014939
21470.0 0.00014824
21490.0 0.00014709
21510.0 0.00014596
21530.0 0.00014489
21550.0 0.00014383
21570.0 0.00014276
21590.0 0.00014172
21610.0 0.00014072
21630.0 0.0001397
21650.0 0.00013866
21670.0 0.00013769
21690.0 0.00013671
21710.0 0.0001357
21730.0 0.00013472
21750.0 0.00013377
21770.0 0.00013277
21790.0 0.00013177
21810.0 0.0001308
21830.0 0.00012982
21850.0 0.00012881
21870.0 0.00012782
21890.0 0.00012686
21910.0 0.00012585
21930.0 0.00012485
21950.0 0.00012387
21970.0 0.00012287
21990.0 0.00012183
22010.0 0.00012083
22030.0 0.00011985
22050.0 0.00011884
22070.0 0.00011784
22090.0 0.00011688
22110.0 0.00011592
22130.0 0.00011495
22150.0 0.00011402
22170.0 0.00011313
22190.0 0.00011222
22210.0 0.00011135
22230.0 0.00011055
22250.0 0.00010976
22270.0 0.00010899
22290.0 0.00010827
22310.0 0.0001076
22330.0 0.00010693
22350.0 0.00010631
22370.0 0.00010573
22390.0 0.00010517
22410.0 0.00010462
22430.0 0.00010412
22450.0 0.00010365
22470.0 0.00010318
22490.0 0.00010273
22510.0 0.00010232
22530.0 0.00010189
22550.0 0.00010148
22570.0 0.00010109
22590.0 0.00010072
22610.0 0.00010034
22630.0 9.9984e-05
22650.0 9.9661e-05
22670.0 9.9333e-05
22690.0 9.9017e-05
22710.0 9.8736e-05
22730.0 9.8474e-05
22750.0 9.821e-05
22770.0 9.7987e-05
22790.0 9.7801e-05
22810.0 9.7632e-05
22830.0 9.7491e-05
22850.0 9.7399e-05
22870.0 9.7339e-05
22890.0 9.731e-05
22910.0 9.7333e-05
22930.0 9.7406e-05
22950.0 9.7525e-05
22970.0 9.77e-05
22990.0 9.7936e-05
23010.0 9.8227e-05
23030.0 9.8581e-05
23050.0 9.8993e-05
23070.0 9.9457e-05
23090.0 9.9991e-05
23110.0 0.00010058
23130.0 0.0001012
23150.0 0.00010188
23170.0 0.00010261
23190.0 0.00010337
23210.0 0.00010415
23230.0 0.00010497
23250.0 0.00010582
23270.0 0.00010667
23290.0 0.00010755
23310.0 0.00010847
