#lamb flux
1010.0 2.5566e-06
1030.0 2.7812e-06
1050.0 3.0463e-06
1070.0 3.3447e-06
1090.0 3.6817e-06
1110.0 4.0278e-06
1130.0 4.3765e-06
1150.0 4.7418e-06
1170.0 5.1186e-06
1190.0 5.4754e-06
1210.0 5.8365e-06
1230.0 6.2086e-06
1250.0 6.5723e-06
1270.0 6.9241e-06
1290.0 7.2943e-06
1310.0 7.6624e-06
1330.0 8.0135e-06
1350.0 8.367e-06
1370.0 8.7309e-06
1390.0 9.0845e-06
1410.0 9.4265e-06
1430.0 9.7842e-06
1450.0 1.0142e-05
1470.0 1.0488e-05
1490.0 1.0838e-05
1510.0 1.121e-05
1530.0 1.1564e-05
1550.0 1.1914e-05
1570.0 1.2279e-05
1590.0 1.2646e-05
1610.0 1.2999e-05
1630.0 1.3365e-05
1650.0 1.3744e-05
1670.0 1.4112e-05
1690.0 1.4478e-05
1710.0 1.4859e-05
1730.0 1.5244e-05
1750.0 1.5607e-05
1770.0 1.5981e-05
1790.0 1.6363e-05
1810.0 1.6731e-05
1830.0 1.7092e-05
1850.0 1.7471e-05
1870.0 1.7837e-05
1890.0 1.8186e-05
1910.0 1.8537e-05
1930.0 1.889e-05
1950.0 1.9219e-05
1970.0 1.9536e-05
1990.0 1.9858e-05
2010.0 2.0165e-05
2030.0 2.045e-05
2050.0 2.0736e-05
2070.0 2.1022e-05
2090.0 2.1278e-05
2110.0 2.1525e-05
2130.0 2.1775e-05
2150.0 2.201e-05
2170.0 2.2224e-05
2190.0 2.2444e-05
2210.0 2.2662e-05
2230.0 2.2862e-05
2250.0 2.3057e-05
2270.0 2.3263e-05
2290.0 2.3457e-05
2310.0 2.3637e-05
2330.0 2.3825e-05
2350.0 2.4016e-05
2370.0 2.4194e-05
2390.0 2.4378e-05
2410.0 2.4581e-05
2430.0 2.4781e-05
2450.0 2.4982e-05
2470.0 2.5205e-05
2490.0 2.5455e-05
2510.0 2.572e-05
2530.0 2.607e-05
2550.0 2.6608e-05
2570.0 2.7441e-05
2590.0 2.871e-05
2610.0 3.078e-05
2630.0 3.3769e-05
2650.0 3.7555e-05
2670.0 4.2207e-05
2690.0 4.7569e-05
2710.0 5.2884e-05
2730.0 5.7701e-05
2750.0 6.1908e-05
2770.0 6.4892e-05
2790.0 6.6484e-05
2810.0 6.6829e-05
2830.0 6.5954e-05
2850.0 6.4208e-05
2870.0 6.1881e-05
2890.0 5.9068e-05
2910.0 5.6024e-05
2930.0 5.3013e-05
2950.0 4.985e-05
2970.0 4.6607e-05
2990.0 4.3494e-05
3010.0 5.8831e-05
3030.0 5.4235e-05
3050.0 4.9693e-05
3070.0 4.5518e-05
3090.0 4.134e-05
3110.0 3.735e-05
3130.0 3.3912e-05
3150.0 3.1592e-05
3170.0 2.9741e-05
3190.0 4.9089e-05
3210.0 0.00013816
3230.0 0.00028245
3250.0 0.0003584
3270.0 0.00031648
3290.0 0.00024292
3310.0 0.00020103
3330.0 0.00018836
3350.0 0.00019342
3370.0 0.00020368
3390.0 0.00021459
3410.0 0.00022561
3430.0 0.00023593
3450.0 0.00024711
3470.0 0.00025928
3490.0 0.00026757
3510.0 0.00025905
3530.0 0.00026459
3550.0 0.00033185
3570.0 0.00041673
3590.0 0.0004602
3610.0 0.00047459
3630.0 0.00048633
3650.0 0.00048567
3670.0 0.00051482
3690.0 0.00061608
3710.0 0.00073003
3730.0 0.00080455
3750.0 0.00085749
3770.0 0.00086799
3790.0 0.00083439
3810.0 0.0007713
3830.0 0.00067434
3850.0 0.00057166
3870.0 0.00051868
3890.0 0.00058021
3910.0 0.00073392
3930.0 0.00088764
3950.0 0.000979
3970.0 0.0010176
3990.0 0.0010601
4010.0 0.0010846
4030.0 0.00097857
4050.0 0.00077226
4070.0 0.00066644
4090.0 0.00070246
4110.0 0.00077335
4130.0 0.00081315
4150.0 0.00081752
4170.0 0.00079887
4190.0 0.00078528
4210.0 0.00080519
4230.0 0.00085214
4250.0 0.00089034
4270.0 0.00090453
4290.0 0.00089206
4310.0 0.00089781
4330.0 0.00095232
4350.0 0.0010168
4370.0 0.0010121
4390.0 0.00093866
4410.0 0.00082849
4430.0 0.00069358
4450.0 0.00059835
4470.0 0.00059525
4490.0 0.00065019
4510.0 0.00072046
4530.0 0.00079645
4550.0 0.00091542
4570.0 0.001144
4590.0 0.0014698
4610.0 0.0017361
4630.0 0.0018704
4650.0 0.0019808
4670.0 0.0020881
4690.0 0.0020424
4710.0 0.0017811
4730.0 0.0014356
4750.0 0.0011572
4770.0 0.00098923
4790.0 0.00092734
4810.0 0.00092712
4830.0 0.00099198
4850.0 0.0011216
4870.0 0.0012376
4890.0 0.0012755
4910.0 0.0013055
4930.0 0.001428
4950.0 0.0015933
4970.0 0.0016786
4990.0 0.0016322
5010.0 0.0014619
5030.0 0.0012243
5050.0 0.0010233
5070.0 0.00090033
5090.0 0.00084988
5110.0 0.00084989
5130.0 0.00085809
5150.0 0.00085046
5170.0 0.00083169
5190.0 0.00084087
5210.0 0.00090375
5230.0 0.0010182
5250.0 0.0011898
5270.0 0.0013693
5290.0 0.0014923
5310.0 0.0015914
5330.0 0.0017167
5350.0 0.0018104
5370.0 0.0017921
5390.0 0.001698
5410.0 0.0016292
5430.0 0.0016833
5450.0 0.0018853
5470.0 0.0021346
5490.0 0.0023086
5510.0 0.0023641
5530.0 0.0023358
5550.0 0.0022619
5570.0 0.0021712
5590.0 0.002086
5610.0 0.0020244
5630.0 0.0019979
5650.0 0.0019577
5670.0 0.0018368
5690.0 0.0016629
5710.0 0.0015069
5730.0 0.0013952
5750.0 0.0013559
5770.0 0.0013849
5790.0 0.0014196
5810.0 0.00143
5830.0 0.001428
5850.0 0.0013989
5870.0 0.0013531
5890.0 0.0013403
5910.0 0.0013563
5930.0 0.001334
5950.0 0.0012422
5970.0 0.0010967
5990.0 0.00093229
6010.0 0.0008121
6030.0 0.00077781
6050.0 0.00082015
6070.0 0.00085962
6090.0 0.00083078
6110.0 0.0007838
6130.0 0.00079973
6150.0 0.00086724
6170.0 0.00092922
6190.0 0.00096469
6210.0 0.00097569
6230.0 0.00094907
6250.0 0.00086475
6270.0 0.00074428
6290.0 0.0006452
6310.0 0.00061009
6330.0 0.00062864
6350.0 0.0006609
6370.0 0.00070241
6390.0 0.00079121
6410.0 0.00092468
6430.0 0.0010357
6450.0 0.0010911
6470.0 0.0011217
6490.0 0.0011442
6510.0 0.0011534
6530.0 0.0011596
6550.0 0.0011752
6570.0 0.0011948
6590.0 0.0012081
6610.0 0.0011936
6630.0 0.0011401
6650.0 0.0010591
6670.0 0.00098188
6690.0 0.00093213
6710.0 0.00089449
6730.0 0.00085463
6750.0 0.00083553
6770.0 0.0008547
6790.0 0.00088216
6810.0 0.00089065
6830.0 0.00087651
6850.0 0.00084221
6870.0 0.00080727
6890.0 0.00078764
6910.0 0.00078981
6930.0 0.0008032
6950.0 0.0008138
6970.0 0.00082308
6990.0 0.00082049
7010.0 0.00079449
7030.0 0.00074055
7050.0 0.00067031
7070.0 0.00062112
7090.0 0.00061462
7110.0 0.00062467
7130.0 0.00060325
7150.0 0.00056023
7170.0 0.00055474
7190.0 0.00060428
7210.0 0.00067371
7230.0 0.00073002
7250.0 0.00075302
7270.0 0.00073669
7290.0 0.00069876
7310.0 0.00066977
7330.0 0.00067084
7350.0 0.00068702
7370.0 0.00070012
7390.0 0.00073024
7410.0 0.00079057
7430.0 0.00085964
7450.0 0.00091327
7470.0 0.00092885
7490.0 0.00088436
7510.0 0.00082154
7530.0 0.0007872
7550.0 0.00074742
7570.0 0.00070531
7590.0 0.00068468
7610.0 0.00068581
7630.0 0.00071012
7650.0 0.0007599
7670.0 0.00082342
7690.0 0.00088127
7710.0 0.00092312
7730.0 0.00095841
7750.0 0.00098756
7770.0 0.0010011
7790.0 0.0010163
7810.0 0.0010179
7830.0 0.00098668
7850.0 0.00095197
7870.0 0.00093246
7890.0 0.00093263
7910.0 0.00093427
7930.0 0.00091328
7950.0 0.00088342
7970.0 0.00085213
7990.0 0.00082518
8010.0 0.00078678
8030.0 0.00078852
8050.0 0.0007876
8070.0 0.00077749
8090.0 0.00077028
8110.0 0.00075873
8130.0 0.00075964
8150.0 0.0007543
8170.0 0.00074135
8190.0 0.00072087
8210.0 0.00069748
8230.0 0.00067539
8250.0 0.00066775
8270.0 0.00062946
8290.0 0.00054678
8310.0 0.00045441
8330.0 0.00039151
8350.0 0.00037579
8370.0 0.00041651
8390.0 0.00047584
8410.0 0.00050802
8430.0 0.00052741
8450.0 0.00056376
8470.0 0.00060872
8490.0 0.00066983
8510.0 0.00074076
8530.0 0.00081478
8550.0 0.00087368
8570.0 0.00091738
8590.0 0.00095019
8610.0 0.00096904
8630.0 0.00096633
8650.0 0.00095025
8670.0 0.00095197
8690.0 0.0010011
8710.0 0.0010676
8730.0 0.0010997
8750.0 0.0010922
8770.0 0.0011038
8790.0 0.0011045
8810.0 0.0010565
8830.0 0.00098083
8850.0 0.00088571
8870.0 0.00081335
8890.0 0.00079136
8910.0 0.00077802
8930.0 0.00072876
8950.0 0.00067487
8970.0 0.00065297
8990.0 0.00065519
9010.0 0.00064382
9030.0 0.00063238
9050.0 0.00062652
9070.0 0.00062341
9090.0 0.00062067
9110.0 0.00061802
9130.0 0.00061538
9150.0 0.0006128
9170.0 0.00061014
9190.0 0.00060794
9210.0 0.00060661
9230.0 0.00060358
9250.0 0.00060083
9270.0 0.00059825
9290.0 0.0005958
9310.0 0.0005934
9330.0 0.00059106
9350.0 0.00058883
9370.0 0.00058662
9390.0 0.0005844
9410.0 0.00058224
9430.0 0.00057999
9450.0 0.00057697
9470.0 0.00057424
9490.0 0.00057302
9510.0 0.00057138
9530.0 0.00056967
9550.0 0.00056785
9570.0 0.00056597
9590.0 0.00056411
9610.0 0.00056225
9630.0 0.00056036
9650.0 0.00055849
9670.0 0.00055669
9690.0 0.00055486
9710.0 0.00055304
9730.0 0.00055127
9750.0 0.0005495
9770.0 0.00054769
9790.0 0.00054593
9810.0 0.0005442
9830.0 0.00054244
9850.0 0.00054067
9870.0 0.00053896
9890.0 0.00053724
9910.0 0.00053548
9930.0 0.00053372
9950.0 0.00053004
9970.0 0.00052885
9990.0 0.00052754
10010.0 0.00052622
10030.0 0.0005247
10050.0 0.00052301
10070.0 0.00052133
10090.0 0.00051966
10110.0 0.0005177
10130.0 0.00051527
10150.0 0.00051356
10170.0 0.0005119
10190.0 0.00050999
10210.0 0.00050819
10230.0 0.00050639
10250.0 0.00050437
10270.0 0.00050233
10290.0 0.00050042
10310.0 0.00049831
10330.0 0.00049604
10350.0 0.00049394
10370.0 0.00049181
10390.0 0.00048949
10410.0 0.00048716
10430.0 0.00048499
10450.0 0.00048261
10470.0 0.0004801
10490.0 0.00047771
10510.0 0.00047529
10530.0 0.00047255
10550.0 0.00046989
10570.0 0.00046735
10590.0 0.00046462
10610.0 0.00046175
10630.0 0.00045901
10650.0 0.00045621
10670.0 0.00045312
10690.0 0.0004501
10710.0 0.00044714
10730.0 0.00044396
10750.0 0.00044059
10770.0 0.00043746
10790.0 0.00043421
10810.0 0.00043073
10830.0 0.00042729
10850.0 0.00042394
10870.0 0.00042023
10890.0 0.00041647
10910.0 0.00041283
10930.0 0.00040906
10950.0 0.00040503
10970.0 0.00040104
10990.0 0.00039717
11010.0 0.0004254
11030.0 0.00042108
11050.0 0.00041693
11070.0 0.00041271
11090.0 0.00040819
11110.0 0.00040398
11130.0 0.00039987
11150.0 0.0003956
11170.0 0.00039134
11190.0 0.00038735
11210.0 0.00038326
11230.0 0.00037909
11250.0 0.00037513
11270.0 0.0003713
11290.0 0.00036735
11310.0 0.00036348
11330.0 0.00035992
11350.0 0.0003563
11370.0 0.00035263
11390.0 0.00034909
11410.0 0.00034557
11430.0 0.00034175
11450.0 0.00033787
11470.0 0.00033396
11490.0 0.00032976
11510.0 0.00032517
11530.0 0.00032054
11550.0 0.00031569
11570.0 0.00031041
11590.0 0.00030494
11610.0 0.00029945
11630.0 0.0002936
11650.0 0.00028746
11670.0 0.00028151
11690.0 0.0002755
11710.0 0.00026928
11730.0 0.00026314
11750.0 0.00025725
11770.0 0.0002512
11790.0 0.00024512
11810.0 0.0002393
11830.0 0.00023354
11850.0 0.00022759
11870.0 0.00022187
11890.0 0.0002164
11910.0 0.00021087
11930.0 0.0002054
11950.0 0.00020024
11970.0 0.00019518
11990.0 0.0001901
12010.0 0.00018533
12030.0 0.00018085
12050.0 0.00017649
12070.0 0.0001723
12090.0 0.00016858
12110.0 0.0001651
12130.0 0.00016183
12150.0 0.00015895
12170.0 0.00015645
12190.0 0.00015419
12210.0 0.00015232
12230.0 0.00015086
12250.0 0.00014975
12270.0 0.00014901
12290.0 0.00014863
12310.0 0.00014855
12330.0 0.00014882
12350.0 0.00014938
12370.0 0.00015013
12390.0 0.0001511
12410.0 0.00015235
12430.0 0.00015361
12450.0 0.00015492
12470.0 0.00015635
12490.0 0.00015779
12510.0 0.00015909
12530.0 0.00016039
12550.0 0.00016165
12570.0 0.00016271
12590.0 0.00016358
12610.0 0.00016435
12630.0 0.00016487
12650.0 0.00016507
12670.0 0.00016504
12690.0 0.00016474
12710.0 0.00016411
12730.0 0.00016319
12750.0 0.00016196
12770.0 0.00016043
12790.0 0.00015865
12810.0 0.00015661
12830.0 0.00015431
12850.0 0.0001519
12870.0 0.00014937
12890.0 0.00014668
12910.0 0.00014396
12930.0 0.00014128
12950.0 0.00013854
12970.0 0.00013579
12990.0 0.0001332
13010.0 0.00013067
13030.0 0.00012816
13050.0 0.00012576
13070.0 0.0001235
13090.0 0.00012126
13110.0 0.00011909
13130.0 0.00011704
13150.0 0.00011506
13170.0 0.00011308
13190.0 0.00011123
13210.0 0.00010948
13230.0 0.00010775
13250.0 0.00010609
13270.0 0.00010454
13290.0 0.00010303
13310.0 0.00010155
13330.0 0.00010017
13350.0 9.8861e-05
13370.0 9.7589e-05
13390.0 9.6365e-05
13410.0 9.5242e-05
13430.0 9.4159e-05
13450.0 9.3111e-05
13470.0 9.2125e-05
13490.0 9.1194e-05
13510.0 9.0267e-05
13530.0 8.9378e-05
13550.0 8.8528e-05
13570.0 8.7688e-05
13590.0 8.6844e-05
13610.0 8.602e-05
13630.0 8.521e-05
13650.0 8.4379e-05
13670.0 8.355e-05
13690.0 8.2738e-05
13710.0 8.1919e-05
13730.0 8.1078e-05
13750.0 8.0276e-05
13770.0 7.9488e-05
13790.0 7.8698e-05
13810.0 7.7928e-05
13830.0 7.7201e-05
13850.0 7.648e-05
13870.0 7.5775e-05
13890.0 7.511e-05
13910.0 7.4473e-05
13930.0 7.3841e-05
13950.0 7.3231e-05
13970.0 7.2659e-05
13990.0 7.2087e-05
14010.0 7.1513e-05
14030.0 7.0956e-05
14050.0 7.0401e-05
14070.0 6.9813e-05
14090.0 6.9227e-05
14110.0 6.8645e-05
14130.0 6.8039e-05
14150.0 6.7412e-05
14170.0 6.6806e-05
14190.0 6.6202e-05
14210.0 6.5586e-05
14230.0 6.4995e-05
14250.0 6.4444e-05
14270.0 6.3903e-05
14290.0 6.3395e-05
14310.0 6.2955e-05
14330.0 6.2559e-05
14350.0 6.2203e-05
14370.0 6.1905e-05
14390.0 6.1663e-05
14410.0 6.1456e-05
14430.0 6.1288e-05
14450.0 6.1159e-05
14470.0 6.1056e-05
14490.0 6.0967e-05
14510.0 6.0898e-05
14530.0 6.0843e-05
14550.0 6.0794e-05
14570.0 6.0755e-05
14590.0 6.0734e-05
14610.0 6.073e-05
14630.0 6.0752e-05
14650.0 6.0815e-05
14670.0 6.0928e-05
14690.0 6.1109e-05
14710.0 6.1375e-05
14730.0 6.1726e-05
14750.0 6.2188e-05
14770.0 6.2786e-05
14790.0 6.3512e-05
14810.0 6.4363e-05
14830.0 6.5426e-05
14850.0 6.6647e-05
14870.0 6.7986e-05
14890.0 6.9486e-05
14910.0 7.1141e-05
14930.0 7.2807e-05
14950.0 7.444e-05
14970.0 7.6059e-05
14990.0 7.7515e-05
15010.0 7.8741e-05
15030.0 7.9773e-05
15050.0 8.0612e-05
15070.0 8.1233e-05
15090.0 8.1725e-05
15110.0 8.2132e-05
15130.0 8.248e-05
15150.0 8.2799e-05
15170.0 8.3109e-05
15190.0 8.3416e-05
15210.0 8.3726e-05
15230.0 8.4042e-05
15250.0 8.4363e-05
15270.0 8.4691e-05
15290.0 8.5026e-05
15310.0 8.5367e-05
15330.0 8.5713e-05
15350.0 8.6067e-05
15370.0 8.6426e-05
15390.0 8.6791e-05
15410.0 8.7162e-05
15430.0 8.7539e-05
15450.0 8.7921e-05
15470.0 8.8309e-05
15490.0 8.8703e-05
15510.0 8.9103e-05
15530.0 8.9507e-05
15550.0 8.9916e-05
15570.0 9.0332e-05
15590.0 9.0751e-05
15610.0 9.1176e-05
15630.0 9.1605e-05
15650.0 9.204e-05
15670.0 9.2478e-05
15690.0 9.2921e-05
15710.0 9.3369e-05
15730.0 9.3821e-05
15750.0 9.4276e-05
15770.0 9.4736e-05
15790.0 9.52e-05
15810.0 9.5667e-05
15830.0 9.6138e-05
15850.0 9.6612e-05
15870.0 9.7089e-05
15890.0 9.757e-05
15910.0 9.8054e-05
15930.0 9.854e-05
15950.0 9.9029e-05
15970.0 9.952e-05
15990.0 0.00010001
16010.0 0.00010051
16030.0 0.00010101
16050.0 0.00010151
16070.0 0.00010201
16090.0 0.00010251
16110.0 0.00010302
16130.0 0.00010352
16150.0 0.00010403
16170.0 0.00010454
16190.0 0.00010505
16210.0 0.00010556
16230.0 0.00010607
16250.0 0.00010658
16270.0 0.00010709
16290.0 0.00010759
16310.0 0.0001081
16330.0 0.00010861
16350.0 0.00010912
16370.0 0.00010962
16390.0 0.00011013
16410.0 0.00011063
16430.0 0.00011114
16450.0 0.00011164
16470.0 0.00011214
16490.0 0.00011263
16510.0 0.00011312
16530.0 0.00011362
16550.0 0.00011411
16570.0 0.00011459
16590.0 0.00011507
16610.0 0.00011555
16630.0 0.00011603
16650.0 0.0001165
16670.0 0.00011697
16690.0 0.00011743
16710.0 0.00011789
16730.0 0.00011835
16750.0 0.0001188
16770.0 0.00011924
16790.0 0.00011968
16810.0 0.00012011
16830.0 0.00012054
16850.0 0.00012097
16870.0 0.00012138
16890.0 0.0001218
16910.0 0.0001222
16930.0 0.0001226
16950.0 0.00012299
16970.0 0.00012338
16990.0 0.00012375
17010.0 0.00012412
17030.0 0.00012449
17050.0 0.00012484
17070.0 0.00012519
17090.0 0.00012553
17110.0 0.00012587
17130.0 0.00012619
17150.0 0.00012651
17170.0 0.00012681
17190.0 0.00012711
17210.0 0.0001274
17230.0 0.00012768
17250.0 0.00012796
17270.0 0.00012822
17290.0 0.00012847
17310.0 0.00012872
17330.0 0.00012895
17350.0 0.00012918
17370.0 0.00012939
17390.0 0.0001296
17410.0 0.00012979
17430.0 0.00012998
17450.0 0.00013015
17470.0 0.00013032
17490.0 0.00013047
17510.0 0.00013062
17530.0 0.00013075
17550.0 0.00013087
17570.0 0.00013098
17590.0 0.00013109
17610.0 0.00013118
17630.0 0.00013126
17650.0 0.00013133
17670.0 0.00013139
17690.0 0.00013143
17710.0 0.00013147
17730.0 0.0001315
17750.0 0.00013151
17770.0 0.00013151
17790.0 0.00013151
17810.0 0.00013149
17830.0 0.00013146
17850.0 0.00013142
17870.0 0.00013137
17890.0 0.00013131
17910.0 0.00013123
17930.0 0.00013115
17950.0 0.00013106
17970.0 0.00013095
17990.0 0.00013083
18010.0 0.00013071
18030.0 0.00013057
18050.0 0.00013042
18070.0 0.00013026
18090.0 0.00013009
18110.0 0.00012991
18130.0 0.00012972
18150.0 0.00012952
18170.0 0.00012931
18190.0 0.00012909
18210.0 0.00012886
18230.0 0.00012862
18250.0 0.00012837
18270.0 0.00012811
18290.0 0.00012784
18310.0 0.00012756
18330.0 0.00012727
18350.0 0.00012697
18370.0 0.00012666
18390.0 0.00012635
18410.0 0.00012602
18430.0 0.00012569
18450.0 0.00012534
18470.0 0.00012499
18490.0 0.00012463
18510.0 0.00012426
18530.0 0.00012389
18550.0 0.0001235
18570.0 0.00012311
18590.0 0.00012271
18610.0 0.0001223
18630.0 0.00012189
18650.0 0.00012147
18670.0 0.00012104
18690.0 0.0001206
18710.0 0.00012016
18730.0 0.00011971
18750.0 0.00011925
18770.0 0.00011879
18790.0 0.00011832
18810.0 0.00011785
18830.0 0.00011737
18850.0 0.00011688
18870.0 0.00011639
18890.0 0.00011589
18910.0 0.00011539
18930.0 0.00011488
18950.0 0.00011437
18970.0 0.00011386
18990.0 0.00011333
19010.0 0.00011281
19030.0 0.00011228
19050.0 0.00011174
19070.0 0.00011121
19090.0 0.00011066
19110.0 0.00011012
19130.0 0.00010957
19150.0 0.00010902
19170.0 0.00010846
19190.0 0.0001079
19210.0 0.00010734
19230.0 0.00010678
19250.0 0.00010621
19270.0 0.00010564
19290.0 0.00010507
19310.0 0.0001045
19330.0 0.00010392
19350.0 0.00010335
19370.0 0.00010277
19390.0 0.00010219
19410.0 0.00010161
19430.0 0.00010102
19450.0 0.00010044
19470.0 9.9854e-05
19490.0 9.9268e-05
19510.0 9.8682e-05
19530.0 9.8095e-05
19550.0 9.7508e-05
19570.0 9.692e-05
19590.0 9.6332e-05
19610.0 9.5744e-05
19630.0 9.5156e-05
19650.0 9.4568e-05
19670.0 9.3981e-05
19690.0 9.3393e-05
19710.0 9.2807e-05
19730.0 9.2221e-05
19750.0 9.1635e-05
19770.0 9.105e-05
19790.0 9.0466e-05
19810.0 8.9883e-05
19830.0 8.9299e-05
19850.0 8.8712e-05
19870.0 8.8119e-05
19890.0 8.7509e-05
19910.0 8.6867e-05
19930.0 8.6178e-05
19950.0 8.5415e-05
19970.0 8.4538e-05
19990.0 8.3525e-05
20010.0 8.2395e-05
20030.0 8.1101e-05
20050.0 7.9652e-05
20070.0 7.8123e-05
20090.0 7.6527e-05
20110.0 7.4813e-05
20130.0 7.3116e-05
20150.0 7.1465e-05
20170.0 6.9804e-05
20190.0 6.816e-05
20210.0 6.6608e-05
20230.0 6.5104e-05
20250.0 6.3613e-05
20270.0 6.2207e-05
20290.0 6.0889e-05
20310.0 5.9613e-05
20330.0 5.8382e-05
20350.0 5.7275e-05
20370.0 5.6228e-05
20390.0 5.5232e-05
20410.0 5.4319e-05
20430.0 5.3487e-05
20450.0 5.2695e-05
20470.0 5.197e-05
20490.0 5.1315e-05
20510.0 5.0711e-05
20530.0 5.0151e-05
20550.0 4.9642e-05
20570.0 4.9177e-05
20590.0 4.8743e-05
20610.0 4.834e-05
20630.0 4.7963e-05
20650.0 4.7606e-05
20670.0 4.7264e-05
20690.0 4.6933e-05
20710.0 4.6607e-05
20730.0 4.6283e-05
20750.0 4.5956e-05
20770.0 4.5623e-05
20790.0 4.5281e-05
20810.0 4.4926e-05
20830.0 4.4558e-05
20850.0 4.4177e-05
20870.0 4.3775e-05
20890.0 4.3356e-05
20910.0 4.2927e-05
20930.0 4.248e-05
20950.0 4.2015e-05
20970.0 4.1543e-05
20990.0 4.1064e-05
21010.0 4.0565e-05
21030.0 4.0063e-05
21050.0 3.9564e-05
21070.0 3.9058e-05
21090.0 3.8544e-05
21110.0 3.8043e-05
21130.0 3.7549e-05
21150.0 3.7051e-05
21170.0 3.6562e-05
21190.0 3.6089e-05
21210.0 3.5617e-05
21230.0 3.515e-05
21250.0 3.4703e-05
21270.0 3.4268e-05
21290.0 3.3838e-05
21310.0 3.3423e-05
21330.0 3.303e-05
21350.0 3.2643e-05
21370.0 3.2269e-05
21390.0 3.1914e-05
21410.0 3.1574e-05
21430.0 3.1242e-05
21450.0 3.0929e-05
21470.0 3.0635e-05
21490.0 3.0352e-05
21510.0 3.0082e-05
21530.0 2.9829e-05
21550.0 2.9588e-05
21570.0 2.9358e-05
21590.0 2.914e-05
21610.0 2.8933e-05
21630.0 2.8735e-05
21650.0 2.8544e-05
21670.0 2.8362e-05
21690.0 2.8185e-05
21710.0 2.8013e-05
21730.0 2.7846e-05
21750.0 2.7683e-05
21770.0 2.7524e-05
21790.0 2.7367e-05
21810.0 2.7213e-05
21830.0 2.7062e-05
21850.0 2.6913e-05
21870.0 2.6766e-05
21890.0 2.662e-05
21910.0 2.6476e-05
21930.0 2.6333e-05
21950.0 2.619e-05
21970.0 2.6048e-05
21990.0 2.5906e-05
22010.0 2.5763e-05
22030.0 2.5619e-05
22050.0 2.5473e-05
22070.0 2.5325e-05
22090.0 2.5175e-05
22110.0 2.5022e-05
22130.0 2.4864e-05
22150.0 2.4704e-05
22170.0 2.4542e-05
22190.0 2.4373e-05
22210.0 2.4201e-05
22230.0 2.4028e-05
22250.0 2.3849e-05
22270.0 2.3665e-05
22290.0 2.3479e-05
22310.0 2.3289e-05
22330.0 2.3091e-05
22350.0 2.2888e-05
22370.0 2.2681e-05
22390.0 2.2467e-05
22410.0 2.2241e-05
22430.0 2.2013e-05
22450.0 2.1777e-05
22470.0 2.1528e-05
22490.0 2.1272e-05
22510.0 2.1013e-05
22530.0 2.0739e-05
22550.0 2.0453e-05
22570.0 2.0167e-05
22590.0 1.9876e-05
22610.0 1.9573e-05
22630.0 1.9269e-05
22650.0 1.8972e-05
22670.0 1.8668e-05
22690.0 1.8362e-05
