#lamb flux
1010.0 7.3774e-05
1030.0 9.0506e-05
1050.0 0.00010802
1070.0 0.0001255
1090.0 0.00014265
1110.0 0.00015627
1130.0 0.00016533
1150.0 0.00016797
1170.0 0.00016536
1190.0 0.00015779
1210.0 0.00017256
1230.0 0.00018798
1250.0 0.00020327
1270.0 0.00021818
1290.0 0.00023372
1310.0 0.00024901
1330.0 0.00026332
1350.0 0.00027725
1370.0 0.000291
1390.0 0.00030367
1410.0 0.00031516
1430.0 0.00032646
1450.0 0.00033698
1470.0 0.0003463
1490.0 0.00035512
1510.0 0.00042051
1530.0 0.00051156
1550.0 0.00060526
1570.0 0.00069198
1590.0 0.00078037
1610.0 0.0008679
1630.0 0.00095552
1650.0 0.0010425
1670.0 0.0011265
1690.0 0.0012073
1710.0 0.0012867
1730.0 0.0013632
1750.0 0.0014345
1770.0 0.0015037
1790.0 0.0015707
1810.0 0.0016335
1830.0 0.0016929
1850.0 0.001752
1870.0 0.0018075
1890.0 0.0018594
1910.0 0.0019098
1930.0 0.0019592
1950.0 0.0020048
1970.0 0.0020481
1990.0 0.0020911
2010.0 0.0021318
2030.0 0.0021695
2050.0 0.0022069
2070.0 0.002244
2090.0 0.0022774
2110.0 0.0023096
2130.0 0.0023418
2150.0 0.0023723
2170.0 0.0024002
2190.0 0.0024288
2210.0 0.002457
2230.0 0.0024831
2250.0 0.0025086
2270.0 0.0025355
2290.0 0.0025611
2310.0 0.0025851
2330.0 0.0026103
2350.0 0.002636
2370.0 0.0026604
2390.0 0.0026854
2410.0 0.0027126
2430.0 0.0027398
2450.0 0.0027682
2470.0 0.002802
2490.0 0.0028444
2510.0 0.0028964
2530.0 0.0029681
2550.0 0.0030719
2570.0 0.0032144
2590.0 0.0034044
2610.0 0.0036767
2630.0 0.0040352
2650.0 0.0044686
2670.0 0.004997
2690.0 0.0056272
2710.0 0.0063054
2730.0 0.0070056
2750.0 0.0077496
2770.0 0.0084734
2790.0 0.0091322
2810.0 0.009738
2830.0 0.010291
2850.0 0.01074
2870.0 0.011123
2890.0 0.011465
2910.0 0.01177
2930.0 0.012045
2950.0 0.012317
2970.0 0.012589
2990.0 0.012856
3010.0 0.013121
3030.0 0.013394
3050.0 0.013665
3070.0 0.013924
3090.0 0.014184
3110.0 0.014447
3130.0 0.01472
3150.0 0.015104
3170.0 0.015602
3190.0 0.016291
3210.0 0.01722
3230.0 0.018454
3250.0 0.019882
3270.0 0.020904
3290.0 0.023074
3310.0 0.028623
3330.0 0.029804
3350.0 0.029906
3370.0 0.029939
3390.0 0.029972
3410.0 0.030034
3430.0 0.030119
3450.0 0.030212
3470.0 0.03029
3490.0 0.030388
3510.0 0.030613
3530.0 0.030191
3550.0 0.028974
3570.0 0.028312
3590.0 0.02883
3610.0 0.030662
3630.0 0.030191
3650.0 0.028318
3670.0 0.026135
3690.0 0.025272
3710.0 0.025942
3730.0 0.02668
3750.0 0.027018
3770.0 0.027925
3790.0 0.02901
3810.0 0.028346
3830.0 0.026652
3850.0 0.025451
3870.0 0.025083
3890.0 0.02477
3910.0 0.024302
3930.0 0.024407
3950.0 0.025458
3970.0 0.026707
3990.0 0.027691
4010.0 0.027104
4030.0 0.02631
4050.0 0.026128
4070.0 0.026086
4090.0 0.026091
4110.0 0.025781
4130.0 0.024977
4150.0 0.024191
4170.0 0.024033
4190.0 0.023049
4210.0 0.021656
4230.0 0.020074
4250.0 0.018544
4270.0 0.017543
4290.0 0.016705
4310.0 0.016531
4330.0 0.017094
4350.0 0.017491
4370.0 0.018264
4390.0 0.019399
4410.0 0.020421
4430.0 0.02015
4450.0 0.018918
4470.0 0.01789
4490.0 0.017412
4510.0 0.017271
4530.0 0.017398
4550.0 0.017551
4570.0 0.017851
4590.0 0.018426
4610.0 0.019466
4630.0 0.020197
4650.0 0.020741
4670.0 0.020453
4690.0 0.019487
4710.0 0.018435
4730.0 0.017821
4750.0 0.01743
4770.0 0.017728
4790.0 0.017643
4810.0 0.017248
4830.0 0.017606
4850.0 0.017819
4870.0 0.01826
4890.0 0.017555
4910.0 0.016753
4930.0 0.015587
4950.0 0.014311
4970.0 0.013159
4990.0 0.012211
5010.0 0.012025
5030.0 0.012309
5050.0 0.01221
5070.0 0.012485
5090.0 0.013011
5110.0 0.012961
5130.0 0.012872
5150.0 0.01283
5170.0 0.012848
5190.0 0.013019
5210.0 0.01274
5230.0 0.01246
5250.0 0.01224
5270.0 0.012012
5290.0 0.011865
5310.0 0.011718
5330.0 0.011302
5350.0 0.011105
5370.0 0.010814
5390.0 0.010469
5410.0 0.010265
5430.0 0.010041
5450.0 0.010215
5470.0 0.010319
5490.0 0.010255
5510.0 0.010513
5530.0 0.010573
5550.0 0.010723
5570.0 0.010636
5590.0 0.010288
5610.0 0.010189
5630.0 0.010306
5650.0 0.010175
5670.0 0.0099741
5690.0 0.0096609
5710.0 0.0097548
5730.0 0.0098717
5750.0 0.0094992
5770.0 0.0090979
5790.0 0.0083158
5810.0 0.0072368
5830.0 0.007961
5850.0 0.0090791
5870.0 0.0094593
5890.0 0.0096381
5910.0 0.0097659
5930.0 0.009915
5950.0 0.0098523
5970.0 0.0098775
5990.0 0.0098401
6010.0 0.0097105
6030.0 0.0095028
6050.0 0.0095144
6070.0 0.0097038
6090.0 0.0096723
6110.0 0.0094742
6130.0 0.0093352
6150.0 0.0090955
6170.0 0.0088327
6190.0 0.0086845
6210.0 0.0084987
6230.0 0.0084728
6250.0 0.008426
6270.0 0.0083809
6290.0 0.0083952
6310.0 0.0084022
6330.0 0.0083227
6350.0 0.0081726
6370.0 0.0080979
6390.0 0.0080988
6410.0 0.0079387
6430.0 0.0078389
6450.0 0.0077249
6470.0 0.0076112
6490.0 0.0075514
6510.0 0.0075412
6530.0 0.0073891
6550.0 0.0072747
6570.0 0.0072391
6590.0 0.0072288
6610.0 0.0072104
6630.0 0.0069838
6650.0 0.0068344
6670.0 0.0067949
6690.0 0.0067026
6710.0 0.0065563
6730.0 0.0065091
6750.0 0.0065531
6770.0 0.0069795
6790.0 0.0079687
6810.0 0.0074747
6830.0 0.0064278
6850.0 0.0061765
6870.0 0.006045
6890.0 0.0060121
6910.0 0.0059877
6930.0 0.0059684
6950.0 0.0058773
6970.0 0.00568
6990.0 0.0055759
7010.0 0.0056045
7030.0 0.0055492
7050.0 0.0054068
7070.0 0.0053524
7090.0 0.0053782
7110.0 0.0054568
7130.0 0.0053824
7150.0 0.0053195
7170.0 0.0052797
7190.0 0.0053186
7210.0 0.0052454
7230.0 0.0051755
7250.0 0.0051775
7270.0 0.0051399
7290.0 0.0051228
7310.0 0.0051829
7330.0 0.005077
7350.0 0.0049037
7370.0 0.0047226
7390.0 0.0045905
7410.0 0.0046123
7430.0 0.0045896
7450.0 0.0045497
7470.0 0.0044988
7490.0 0.0043883
7510.0 0.0043056
7530.0 0.004266
7550.0 0.0044615
7570.0 0.0044159
7590.0 0.0040488
7610.0 0.0038963
7630.0 0.0041012
7650.0 0.0040899
7670.0 0.0041452
7690.0 0.0043482
7710.0 0.0043892
7730.0 0.0043052
7750.0 0.0045397
7770.0 0.0042783
7790.0 0.0040872
7810.0 0.0043358
7830.0 0.0044075
7850.0 0.0045379
7870.0 0.0045209
7890.0 0.0045447
7910.0 0.0044614
7930.0 0.0044973
7950.0 0.00471
7970.0 0.0046237
7990.0 0.0042151
8010.0 0.004252
8030.0 0.0041967
8050.0 0.0041192
8070.0 0.0040169
8090.0 0.0036455
8110.0 0.0036474
8130.0 0.0039615
8150.0 0.0041321
8170.0 0.0041898
8190.0 0.0043229
8210.0 0.0042239
8230.0 0.0041778
8250.0 0.0041717
8270.0 0.0040993
8290.0 0.0040168
8310.0 0.0038247
8330.0 0.003813
8350.0 0.0038854
8370.0 0.0039121
8390.0 0.0038761
8410.0 0.0038237
8430.0 0.0037447
8450.0 0.0037265
8470.0 0.0038975
8490.0 0.0039349
8510.0 0.0037593
8530.0 0.0036397
8550.0 0.0036148
8570.0 0.0034889
8590.0 0.0034475
8610.0 0.0035081
8630.0 0.0035327
8650.0 0.0035128
8670.0 0.0034927
8690.0 0.0034448
8710.0 0.0033002
8730.0 0.0032772
8750.0 0.0032089
8770.0 0.0032181
8790.0 0.0032094
8810.0 0.0031099
8830.0 0.0031133
8850.0 0.0031578
8870.0 0.0030057
8890.0 0.0028707
8910.0 0.002786
8930.0 0.0026799
8950.0 0.0025884
8970.0 0.0024806
8990.0 0.0024373
9010.0 0.0023395
9030.0 0.0023111
9050.0 0.0022975
9070.0 0.0022845
9090.0 0.0022713
9110.0 0.0022579
9130.0 0.0022444
9150.0 0.0022312
9170.0 0.0022178
9190.0 0.0022043
9210.0 0.0021907
9230.0 0.002177
9250.0 0.0021633
9270.0 0.0021495
9290.0 0.0021356
9310.0 0.0021221
9330.0 0.0021091
9350.0 0.002096
9370.0 0.002083
9390.0 0.0020699
9410.0 0.0020568
9430.0 0.0020436
9450.0 0.0020305
9470.0 0.0020187
9490.0 0.0020061
9510.0 0.0019923
9530.0 0.0019787
9550.0 0.0019654
9570.0 0.0019523
9590.0 0.0019391
9610.0 0.0019266
9630.0 0.0019142
9650.0 0.0019018
9670.0 0.0018893
9690.0 0.0018771
9710.0 0.0018648
9730.0 0.0018526
9750.0 0.0018405
9770.0 0.0018285
9790.0 0.0018165
9810.0 0.0018045
9830.0 0.0017927
9850.0 0.0017799
9870.0 0.0017668
9890.0 0.0017562
9910.0 0.0017454
9930.0 0.0017326
9950.0 0.0017212
9970.0 0.0017108
9990.0 0.0017002
10010.0 0.0016896
10030.0 0.0016788
10050.0 0.001668
10070.0 0.0016573
10090.0 0.0016468
10110.0 0.0016362
10130.0 0.0016257
10150.0 0.0016155
10170.0 0.0016053
10190.0 0.0015951
10210.0 0.0015852
10230.0 0.0015754
10250.0 0.0015656
10270.0 0.0015559
10290.0 0.0015465
10310.0 0.0015371
10330.0 0.0015277
10350.0 0.0015185
10370.0 0.0015095
10390.0 0.0015005
10410.0 0.0014907
10430.0 0.0014809
10450.0 0.0014733
10470.0 0.0014652
10490.0 0.0014572
10510.0 0.0014492
10530.0 0.001441
10550.0 0.001433
10570.0 0.0014252
10590.0 0.0014174
10610.0 0.0014096
10630.0 0.0014021
10650.0 0.0013947
10670.0 0.0013872
10690.0 0.0013799
10710.0 0.0013729
10730.0 0.0013658
10750.0 0.0013587
10770.0 0.001352
10790.0 0.0013453
10810.0 0.0013386
10830.0 0.001332
10850.0 0.0013258
10870.0 0.0013193
10890.0 0.0013129
10910.0 0.0013068
10930.0 0.0013007
10950.0 0.0012944
10970.0 0.0012882
10990.0 0.0012821
11010.0 0.0012888
11030.0 0.0012822
11050.0 0.001276
11070.0 0.0012697
11090.0 0.0012629
11110.0 0.0012565
11130.0 0.0012502
11150.0 0.0012434
11170.0 0.0012365
11190.0 0.0012299
11210.0 0.0012231
11230.0 0.0012159
11250.0 0.0012091
11270.0 0.0012025
11290.0 0.0011957
11310.0 0.0011892
11330.0 0.0011834
11350.0 0.0011778
11370.0 0.0011724
11390.0 0.0011676
11410.0 0.0011632
11430.0 0.0011589
11450.0 0.001155
11470.0 0.0011514
11490.0 0.001148
11510.0 0.0011444
11530.0 0.0011412
11550.0 0.0011379
11570.0 0.0011344
11590.0 0.0011308
11610.0 0.0011272
11630.0 0.0011232
11650.0 0.0011189
11670.0 0.0011147
11690.0 0.0011102
11710.0 0.0011054
11730.0 0.0011005
11750.0 0.0010958
11770.0 0.0010907
11790.0 0.0010854
11810.0 0.0010804
11830.0 0.0010754
11850.0 0.00107
11870.0 0.001065
11890.0 0.0010604
11910.0 0.0010558
11930.0 0.0010513
11950.0 0.0010474
11970.0 0.0010437
11990.0 0.00104
12010.0 0.0010368
12030.0 0.0010341
12050.0 0.0010315
12070.0 0.0010292
12090.0 0.0010275
12110.0 0.001026
12130.0 0.0010247
12150.0 0.0010237
12170.0 0.0010229
12190.0 0.0010221
12210.0 0.0010214
12230.0 0.0010208
12250.0 0.00102
12270.0 0.001019
12290.0 0.0010178
12310.0 0.0010164
12330.0 0.0010145
12350.0 0.0010121
12370.0 0.0010094
12390.0 0.0010061
12410.0 0.001002
12430.0 0.00099769
12450.0 0.00099294
12470.0 0.00098748
12490.0 0.00098155
12510.0 0.00097556
12530.0 0.00096898
12550.0 0.00096187
12570.0 0.00095476
12590.0 0.00094756
12610.0 0.00093983
12630.0 0.00093201
12650.0 0.00092464
12670.0 0.00091704
12690.0 0.00090935
12710.0 0.00090206
12730.0 0.00089505
12750.0 0.0008878
12770.0 0.00088103
12790.0 0.00087479
12810.0 0.00086871
12830.0 0.00086283
12850.0 0.00085764
12870.0 0.00085288
12890.0 0.00084832
12910.0 0.00084429
12930.0 0.00084084
12950.0 0.00083768
12970.0 0.00083495
12990.0 0.00083285
13010.0 0.00083119
13030.0 0.00082992
13050.0 0.0008291
13070.0 0.00082868
13090.0 0.00082852
13110.0 0.00082861
13130.0 0.00082886
13150.0 0.00082915
13170.0 0.00082938
13190.0 0.00082943
13210.0 0.00082924
13230.0 0.00082868
13250.0 0.00082766
13270.0 0.0008262
13290.0 0.00082421
13310.0 0.00082155
13330.0 0.00081838
13350.0 0.00081473
13370.0 0.00081041
13390.0 0.00080545
13410.0 0.00080031
13430.0 0.00079463
13450.0 0.00078837
13470.0 0.00078187
13490.0 0.00077522
13510.0 0.00076784
13530.0 0.00076026
13550.0 0.00075272
13570.0 0.00074487
13590.0 0.00073662
13610.0 0.00072847
13630.0 0.00072041
13650.0 0.00071191
13670.0 0.00070341
13690.0 0.00069516
13710.0 0.00068678
13730.0 0.00067805
13750.0 0.00066987
13770.0 0.00066185
13790.0 0.00065372
13810.0 0.0006458
13830.0 0.0006384
13850.0 0.00063097
13870.0 0.00062364
13890.0 0.00061678
13910.0 0.00061021
13930.0 0.00060364
13950.0 0.00059735
13970.0 0.00059157
13990.0 0.00058585
14010.0 0.00058025
14030.0 0.00057503
14050.0 0.00057004
14070.0 0.000565
14090.0 0.00056029
14110.0 0.00055588
14130.0 0.00055156
14150.0 0.00054733
14170.0 0.00054344
14190.0 0.00053969
14210.0 0.00053597
14230.0 0.00053243
14250.0 0.00052907
14270.0 0.00052569
14290.0 0.00052235
14310.0 0.00051919
14330.0 0.00051608
14350.0 0.00051293
14370.0 0.00050986
14390.0 0.00050691
14410.0 0.00050389
14430.0 0.00050088
14450.0 0.00049797
14470.0 0.00049508
14490.0 0.00049209
14510.0 0.00048919
14530.0 0.00048635
14550.0 0.00048344
14570.0 0.00048051
14590.0 0.00047766
14610.0 0.00047476
14630.0 0.00047176
14650.0 0.00046882
14670.0 0.00046589
14690.0 0.00046287
14710.0 0.00045979
14730.0 0.00045682
14750.0 0.00045378
14770.0 0.00045064
14790.0 0.00044754
14810.0 0.00044447
14830.0 0.00044121
14850.0 0.00043795
14870.0 0.00043477
14890.0 0.00043154
14910.0 0.00042825
14930.0 0.00042511
14950.0 0.00042212
14970.0 0.00041917
14990.0 0.00041642
15010.0 0.00041394
15030.0 0.00041163
15050.0 0.00040945
15070.0 0.00040751
15090.0 0.00040568
15110.0 0.0004039
15130.0 0.00040217
15150.0 0.00040052
15170.0 0.00039885
15190.0 0.00039718
15210.0 0.00039555
15230.0 0.00039393
15250.0 0.00039228
15270.0 0.00039065
15290.0 0.00038908
15310.0 0.00038747
15330.0 0.00038587
15350.0 0.0003843
15370.0 0.00038275
15390.0 0.00038115
15410.0 0.00037959
15430.0 0.00037806
15450.0 0.00037651
15470.0 0.00037496
15490.0 0.00037346
15510.0 0.00037196
15530.0 0.00037044
15550.0 0.00036895
15570.0 0.00036749
15590.0 0.00036601
15610.0 0.00036451
15630.0 0.00036308
15650.0 0.00036164
15670.0 0.00036019
15690.0 0.00035877
15710.0 0.00035738
15730.0 0.00035596
15750.0 0.00035455
15770.0 0.00035318
15790.0 0.00035182
15810.0 0.00035042
15830.0 0.00034906
15850.0 0.00034774
15870.0 0.0003464
15890.0 0.00034506
15910.0 0.00034377
15930.0 0.00034247
15950.0 0.00034114
15970.0 0.00033986
15990.0 0.0003386
16010.0 0.00033732
16030.0 0.00033604
16050.0 0.00033482
16070.0 0.00033359
16090.0 0.00033234
16110.0 0.00033113
16130.0 0.00032995
16150.0 0.00032872
16170.0 0.00032751
16190.0 0.00032635
16210.0 0.00032518
16230.0 0.00032399
16250.0 0.00032285
16270.0 0.00032173
16290.0 0.00032058
16310.0 0.00031944
16330.0 0.00031835
16350.0 0.00031724
16370.0 0.0003161
16390.0 0.00031502
16410.0 0.00031395
16430.0 0.00031286
16450.0 0.00031179
16470.0 0.00031076
16490.0 0.0003097
16510.0 0.00030864
16530.0 0.00030761
16550.0 0.0003066
16570.0 0.00030555
16590.0 0.00030453
16610.0 0.00030355
16630.0 0.00030255
16650.0 0.00030155
16670.0 0.00030058
16690.0 0.00029963
16710.0 0.00029862
16730.0 0.00029766
16750.0 0.00029672
16770.0 0.00029577
16790.0 0.00029481
16810.0 0.00029389
16830.0 0.00029298
16850.0 0.00029204
16870.0 0.00029112
16890.0 0.00029024
16910.0 0.00028932
16930.0 0.00028839
16950.0 0.00028752
16970.0 0.00028664
16990.0 0.00028574
17010.0 0.00028487
17030.0 0.00028402
17050.0 0.00028314
17070.0 0.00028227
17090.0 0.00028143
17110.0 0.00028059
17130.0 0.00027971
17150.0 0.00027887
17170.0 0.00027806
17190.0 0.00027722
17210.0 0.00027638
17230.0 0.00027558
17250.0 0.00027477
17270.0 0.00027392
17290.0 0.00027312
17310.0 0.00027233
17330.0 0.00027151
17350.0 0.00027069
17370.0 0.00026992
17390.0 0.00026914
17410.0 0.00026833
17430.0 0.00026755
17450.0 0.0002668
17470.0 0.00026599
17490.0 0.0002652
17510.0 0.00026445
17530.0 0.00026368
17550.0 0.00026289
17570.0 0.00026214
17590.0 0.00026139
17610.0 0.00026062
17630.0 0.00025985
17650.0 0.00025912
17670.0 0.00025837
17690.0 0.00025758
17710.0 0.00025685
17730.0 0.00025612
17750.0 0.00025536
17770.0 0.00025461
17790.0 0.0002539
17810.0 0.00025315
17830.0 0.00025239
17850.0 0.00025167
17870.0 0.00025094
17890.0 0.00025019
17910.0 0.00024944
17930.0 0.00024874
17950.0 0.00024801
17970.0 0.00024727
17990.0 0.00024656
18010.0 0.00024585
18030.0 0.00024508
18050.0 0.00024436
18070.0 0.00024365
18090.0 0.00024292
18110.0 0.00024218
18130.0 0.00024148
18150.0 0.00024077
18170.0 0.00024003
18190.0 0.00023931
18210.0 0.00023861
18230.0 0.00023787
18250.0 0.00023713
18270.0 0.00023643
18290.0 0.00023571
18310.0 0.00023497
18330.0 0.00023426
18350.0 0.00023357
18370.0 0.00023283
18390.0 0.00023209
18410.0 0.00023139
18430.0 0.00023067
18450.0 0.00022992
18470.0 0.0002292
18490.0 0.0002285
18510.0 0.00022777
18530.0 0.00022703
18550.0 0.00022634
18570.0 0.00022561
18590.0 0.00022485
18610.0 0.00022414
18630.0 0.00022342
18650.0 0.00022268
18670.0 0.00022193
18690.0 0.00022123
18710.0 0.0002205
18730.0 0.00021975
18750.0 0.00021903
18770.0 0.00021832
18790.0 0.00021755
18810.0 0.0002168
18830.0 0.00021608
18850.0 0.00021534
18870.0 0.00021458
18890.0 0.00021386
18910.0 0.00021313
18930.0 0.00021237
18950.0 0.00021162
18970.0 0.00021089
18990.0 0.00021014
19010.0 0.00020935
19030.0 0.00020862
19050.0 0.00020788
19070.0 0.00020711
19090.0 0.00020635
19110.0 0.00020562
19130.0 0.00020485
19150.0 0.00020406
19170.0 0.00020332
19190.0 0.00020256
19210.0 0.00020177
19230.0 0.00020099
19250.0 0.00020025
19270.0 0.00019947
19290.0 0.00019869
19310.0 0.00019793
19330.0 0.00019717
19350.0 0.00019635
19370.0 0.00019557
19390.0 0.00019481
19410.0 0.00019401
19430.0 0.00019321
19450.0 0.00019244
19470.0 0.00019166
19490.0 0.00019085
19510.0 0.00019006
19530.0 0.00018929
19550.0 0.00018846
19570.0 0.00018764
19590.0 0.00018686
19610.0 0.00018606
19630.0 0.00018524
19650.0 0.00018444
19670.0 0.00018365
19690.0 0.00018282
19710.0 0.00018199
19730.0 0.00018119
19750.0 0.00018038
19770.0 0.00017952
19790.0 0.00017871
19810.0 0.00017791
19830.0 0.00017707
19850.0 0.00017624
19870.0 0.00017544
19890.0 0.00017462
19910.0 0.0001738
19930.0 0.00017304
19950.0 0.00017234
19970.0 0.00017167
19990.0 0.0001711
20010.0 0.00017065
20030.0 0.00017028
20050.0 0.00016999
20070.0 0.00016981
20090.0 0.00016968
20110.0 0.00016959
20130.0 0.00016953
20150.0 0.0001695
20170.0 0.00016945
20190.0 0.00016941
20210.0 0.00016936
20230.0 0.0001693
20250.0 0.00016922
20270.0 0.00016913
20290.0 0.00016903
20310.0 0.00016891
20330.0 0.00016877
20350.0 0.00016863
20370.0 0.00016847
20390.0 0.00016829
20410.0 0.0001681
20430.0 0.00016792
20450.0 0.0001677
20470.0 0.00016748
20490.0 0.00016727
20510.0 0.00016706
20530.0 0.00016683
20550.0 0.00016662
20570.0 0.00016643
20590.0 0.00016622
20610.0 0.00016603
20630.0 0.00016585
20650.0 0.00016567
20670.0 0.00016549
20690.0 0.00016531
20710.0 0.00016514
20730.0 0.00016496
20750.0 0.00016476
20770.0 0.00016457
20790.0 0.00016434
20810.0 0.00016409
20830.0 0.00016382
20850.0 0.00016353
20870.0 0.00016319
20890.0 0.00016281
20910.0 0.00016244
20930.0 0.00016202
20950.0 0.00016157
20970.0 0.00016111
20990.0 0.00016065
21010.0 0.00016014
21030.0 0.00015963
21050.0 0.00015914
21070.0 0.00015863
21090.0 0.00015811
21110.0 0.00015762
21130.0 0.00015715
21150.0 0.00015665
21170.0 0.00015618
21190.0 0.00015573
21210.0 0.00015526
21230.0 0.00015478
21250.0 0.00015432
21270.0 0.00015387
21290.0 0.00015338
21310.0 0.00015289
21330.0 0.00015242
21350.0 0.00015192
21370.0 0.00015139
21390.0 0.00015086
21410.0 0.00015033
21430.0 0.00014973
21450.0 0.00014914
21470.0 0.00014856
21490.0 0.00014794
21510.0 0.00014729
21530.0 0.00014667
21550.0 0.00014603
21570.0 0.00014535
21590.0 0.00014468
21610.0 0.00014403
21630.0 0.00014334
21650.0 0.00014264
21670.0 0.00014199
21690.0 0.00014133
21710.0 0.00014064
21730.0 0.00013998
21750.0 0.00013935
21770.0 0.00013867
21790.0 0.000138
21810.0 0.00013737
21830.0 0.00013672
21850.0 0.00013605
21870.0 0.00013541
21890.0 0.00013479
21910.0 0.00013414
21930.0 0.0001335
21950.0 0.00013289
21970.0 0.00013228
21990.0 0.00013164
22010.0 0.00013105
22030.0 0.00013049
22050.0 0.00012992
22070.0 0.00012937
22090.0 0.00012889
22110.0 0.00012841
22130.0 0.00012795
22150.0 0.00012754
22170.0 0.00012716
22190.0 0.00012679
22210.0 0.00012645
22230.0 0.00012616
22250.0 0.00012589
22270.0 0.00012563
22290.0 0.0001254
22310.0 0.0001252
22330.0 0.00012499
22350.0 0.00012479
22370.0 0.00012461
22390.0 0.00012443
22410.0 0.00012424
22430.0 0.00012407
22450.0 0.0001239
22470.0 0.00012371
22490.0 0.00012352
22510.0 0.00012335
22530.0 0.00012315
22550.0 0.00012295
22570.0 0.00012276
22590.0 0.00012257
22610.0 0.00012238
22630.0 0.00012219
22650.0 0.00012203
22670.0 0.00012186
22690.0 0.00012171
22710.0 0.00012158
22730.0 0.00012147
22750.0 0.00012136
22770.0 0.00012129
22790.0 0.00012125
22810.0 0.00012123
22830.0 0.00012122
22850.0 0.00012126
22870.0 0.00012131
22890.0 0.00012138
22910.0 0.00012148
22930.0 0.00012161
22950.0 0.00012175
22970.0 0.00012191
22990.0 0.00012209
23010.0 0.00012229
23030.0 0.0001225
23050.0 0.00012274
23070.0 0.00012299
23090.0 0.00012326
23110.0 0.00012355
23130.0 0.00012387
23150.0 0.00012421
23170.0 0.00012457
23190.0 0.00012498
23210.0 0.00012541
23230.0 0.00012588
23250.0 0.00012639
23270.0 0.00012694
23290.0 0.00012752
23310.0 0.00012814
