#lamb flux
1010.0 1.6874e-09
1030.0 1.8663e-09
1050.0 2.072e-09
1070.0 2.3036e-09
1090.0 2.5667e-09
1110.0 2.8365e-09
1130.0 3.108e-09
1150.0 3.3925e-09
1170.0 3.6859e-09
1190.0 3.9642e-09
1210.0 4.2462e-09
1230.0 4.5376e-09
1250.0 4.8231e-09
1270.0 5.1004e-09
1290.0 5.3933e-09
1310.0 5.6861e-09
1330.0 5.9669e-09
1350.0 6.2508e-09
1370.0 6.5439e-09
1390.0 6.8298e-09
1410.0 7.1071e-09
1430.0 7.397e-09
1450.0 7.6869e-09
1470.0 7.9671e-09
1490.0 8.2504e-09
1510.0 8.5496e-09
1530.0 8.8332e-09
1550.0 9.1129e-09
1570.0 9.4024e-09
1590.0 9.6923e-09
1610.0 9.9693e-09
1630.0 1.0255e-08
1650.0 1.0548e-08
1670.0 1.0832e-08
1690.0 1.1113e-08
1710.0 1.1404e-08
1730.0 1.1697e-08
1750.0 1.1973e-08
1770.0 1.2258e-08
1790.0 1.2548e-08
1810.0 1.283e-08
1830.0 1.3107e-08
1850.0 1.3402e-08
1870.0 1.3689e-08
1890.0 1.3967e-08
1910.0 1.4252e-08
1930.0 1.4543e-08
1950.0 1.4822e-08
1970.0 1.5099e-08
1990.0 1.5386e-08
2010.0 1.567e-08
2030.0 1.5943e-08
2050.0 1.6226e-08
2070.0 1.6517e-08
2090.0 1.6792e-08
2110.0 1.7066e-08
2130.0 1.735e-08
2150.0 1.7628e-08
2170.0 1.7895e-08
2190.0 1.8173e-08
2210.0 1.8453e-08
2230.0 1.8722e-08
2250.0 1.899e-08
2270.0 1.927e-08
2290.0 1.9543e-08
2310.0 1.9804e-08
2330.0 2.0077e-08
2350.0 2.0356e-08
2370.0 2.0635e-08
2390.0 2.0936e-08
2410.0 2.1293e-08
2430.0 2.1704e-08
2450.0 2.2195e-08
2470.0 2.2825e-08
2490.0 2.3618e-08
2510.0 2.452e-08
2530.0 2.5605e-08
2550.0 2.6963e-08
2570.0 2.8653e-08
2590.0 3.0852e-08
2610.0 3.4143e-08
2630.0 3.8842e-08
2650.0 4.4987e-08
2670.0 5.2931e-08
2690.0 6.2693e-08
2710.0 7.3114e-08
2730.0 8.3411e-08
2750.0 9.3553e-08
2770.0 1.0238e-07
2790.0 1.0938e-07
2810.0 1.1494e-07
2830.0 1.1928e-07
2850.0 1.2225e-07
2870.0 1.2442e-07
2890.0 1.2615e-07
2910.0 1.2752e-07
2930.0 1.2865e-07
2950.0 1.2972e-07
2970.0 1.3077e-07
2990.0 1.3175e-07
3010.0 3.724e-06
3030.0 3.7519e-06
3050.0 3.7788e-06
3070.0 3.8018e-06
3090.0 3.8216e-06
3110.0 3.8339e-06
3130.0 3.8334e-06
3150.0 3.8164e-06
3170.0 3.7755e-06
3190.0 3.7113e-06
3210.0 3.6299e-06
3230.0 3.5368e-06
3250.0 3.4448e-06
3270.0 3.3776e-06
3290.0 3.3403e-06
3310.0 3.3463e-06
3330.0 3.3947e-06
3350.0 3.4791e-06
3370.0 3.5995e-06
3390.0 3.7512e-06
3410.0 3.9164e-06
3430.0 4.1018e-06
3450.0 4.3153e-06
3470.0 4.5484e-06
3490.0 4.7954e-06
3510.0 5.0746e-06
3530.0 5.3736e-06
3550.0 5.6763e-06
3570.0 5.9921e-06
3590.0 6.3356e-06
3610.0 6.6895e-06
3630.0 7.0423e-06
3650.0 7.4083e-06
3670.0 7.7424e-06
3690.0 7.9922e-06
3710.0 8.1354e-06
3730.0 8.1401e-06
3750.0 8.0268e-06
3770.0 7.9823e-06
3790.0 7.9349e-06
3810.0 7.7399e-06
3830.0 7.9795e-06
3850.0 8.922e-06
3870.0 9.4393e-06
3890.0 9.3963e-06
3910.0 9.4363e-06
3930.0 9.6847e-06
3950.0 9.8377e-06
3970.0 8.963e-06
3990.0 7.7123e-06
4010.0 2.3115e-05
4030.0 2.8007e-05
4050.0 3.2108e-05
4070.0 2.7859e-05
4090.0 2.5232e-05
4110.0 2.2265e-05
4130.0 2.0492e-05
4150.0 2.1798e-05
4170.0 2.1472e-05
4190.0 2.2887e-05
4210.0 2.2678e-05
4230.0 2.3987e-05
4250.0 2.8377e-05
4270.0 2.8711e-05
4290.0 2.6457e-05
4310.0 2.7491e-05
4330.0 2.9242e-05
4350.0 3.2787e-05
4370.0 3.7312e-05
4390.0 3.5014e-05
4410.0 2.5869e-05
4430.0 2.19e-05
4450.0 2.0123e-05
4470.0 1.5445e-05
4490.0 1.6668e-05
4510.0 2.5177e-05
4530.0 2.9036e-05
4550.0 2.9288e-05
4570.0 3.2957e-05
4590.0 3.7541e-05
4610.0 5.0633e-05
4630.0 6.5762e-05
4650.0 7.1318e-05
4670.0 6.6048e-05
4690.0 6.3021e-05
4710.0 6.6618e-05
4730.0 6.2868e-05
4750.0 4.7002e-05
4770.0 3.4478e-05
4790.0 3.2195e-05
4810.0 3.0687e-05
4830.0 2.8094e-05
4850.0 3.0828e-05
4870.0 4.0727e-05
4890.0 4.8029e-05
4910.0 4.2139e-05
4930.0 3.7287e-05
4950.0 4.0966e-05
4970.0 5.2536e-05
4990.0 7.1199e-05
5010.0 8.1905e-05
5030.0 7.2221e-05
5050.0 4.8862e-05
5070.0 3.2202e-05
5090.0 2.5966e-05
5110.0 2.6704e-05
5130.0 3.082e-05
5150.0 3.3392e-05
5170.0 3.2891e-05
5190.0 3.0734e-05
5210.0 3.2124e-05
5230.0 3.377e-05
5250.0 3.6394e-05
5270.0 3.9266e-05
5290.0 4.3515e-05
5310.0 5.065e-05
5330.0 5.6051e-05
5350.0 5.5693e-05
5370.0 5.85e-05
5390.0 6.713e-05
5410.0 6.707e-05
5430.0 5.9313e-05
5450.0 5.4495e-05
5470.0 5.7864e-05
5490.0 7.0693e-05
5510.0 8.8391e-05
5530.0 0.00010138
5550.0 9.7985e-05
5570.0 8.9075e-05
5590.0 7.7452e-05
5610.0 7.1428e-05
5630.0 6.9262e-05
5650.0 6.5966e-05
5670.0 6.2508e-05
5690.0 5.5882e-05
5710.0 5.4485e-05
5730.0 5.0189e-05
5750.0 3.5386e-05
5770.0 2.7607e-05
5790.0 3.1285e-05
5810.0 3.5326e-05
5830.0 4.335e-05
5850.0 5.1603e-05
5870.0 5.7254e-05
5890.0 5.8224e-05
5910.0 5.7121e-05
5930.0 5.4373e-05
5950.0 5.5405e-05
5970.0 6.3155e-05
5990.0 5.9382e-05
6010.0 4.978e-05
6030.0 4.2057e-05
6050.0 3.6626e-05
6070.0 3.6426e-05
6090.0 3.9498e-05
6110.0 4.4165e-05
6130.0 4.4842e-05
6150.0 3.8582e-05
6170.0 3.394e-05
6190.0 3.8195e-05
6210.0 5.0493e-05
6230.0 6.6261e-05
6250.0 7.177e-05
6270.0 6.2718e-05
6290.0 5.2768e-05
6310.0 4.1194e-05
6330.0 3.1563e-05
6350.0 2.8153e-05
6370.0 2.9606e-05
6390.0 3.4226e-05
6410.0 4.2202e-05
6430.0 4.9281e-05
6450.0 5.639e-05
6470.0 6.4568e-05
6490.0 7.7994e-05
6510.0 8.7207e-05
6530.0 8.5556e-05
6550.0 7.7365e-05
6570.0 6.5676e-05
6590.0 5.9222e-05
6610.0 5.1064e-05
6630.0 4.6262e-05
6650.0 4.3731e-05
6670.0 4.2484e-05
6690.0 3.8387e-05
6710.0 3.4894e-05
6730.0 2.5134e-05
6750.0 2.4917e-05
6770.0 2.7083e-05
6790.0 3.113e-05
6810.0 2.8485e-05
6830.0 2.9332e-05
6850.0 2.7434e-05
6870.0 2.5061e-05
6890.0 2.4063e-05
6910.0 2.5642e-05
6930.0 2.4017e-05
6950.0 2.471e-05
6970.0 2.599e-05
6990.0 2.9501e-05
7010.0 2.9752e-05
7030.0 3.0225e-05
7050.0 2.8824e-05
7070.0 2.7464e-05
7090.0 2.7545e-05
7110.0 2.8341e-05
7130.0 3.05e-05
7150.0 3.2393e-05
7170.0 3.5744e-05
7190.0 3.9292e-05
7210.0 3.861e-05
7230.0 3.9692e-05
7250.0 4.2655e-05
7270.0 4.6484e-05
7290.0 5.5171e-05
7310.0 5.9866e-05
7330.0 5.7865e-05
7350.0 5.2336e-05
7370.0 4.5537e-05
7390.0 4.4176e-05
7410.0 4.6946e-05
7430.0 5.2175e-05
7450.0 5.6828e-05
7470.0 5.6306e-05
7490.0 5.134e-05
7510.0 5.8156e-05
7530.0 5.7519e-05
7550.0 5.1699e-05
7570.0 4.0387e-05
7590.0 2.7764e-05
7610.0 2.383e-05
7630.0 2.7076e-05
7650.0 3.2014e-05
7670.0 3.9843e-05
7690.0 4.3845e-05
7710.0 4.5692e-05
7730.0 4.8016e-05
7750.0 5.3904e-05
7770.0 5.4751e-05
7790.0 5.0292e-05
7810.0 4.5888e-05
7830.0 4.7322e-05
7850.0 4.6001e-05
7870.0 4.2175e-05
7890.0 3.5435e-05
7910.0 2.8804e-05
7930.0 2.7504e-05
7950.0 2.5057e-05
7970.0 2.3195e-05
7990.0 2.3062e-05
8010.0 1.7081e-06
8030.0 1.6859e-06
8050.0 1.6631e-06
8070.0 1.6849e-06
8090.0 1.8104e-06
8110.0 1.7796e-06
8130.0 1.4679e-06
8150.0 1.4296e-06
8170.0 1.2314e-06
8190.0 1.167e-06
8210.0 1.5155e-06
8230.0 1.6873e-06
8250.0 1.5207e-06
8270.0 1.3236e-06
8290.0 1.2903e-06
8310.0 9.9304e-07
8330.0 6.6931e-07
8350.0 4.75e-07
8370.0 2.9927e-07
8390.0 5.4706e-07
8410.0 6.3748e-07
8430.0 7.8579e-07
8450.0 9.2274e-07
8470.0 1.1469e-06
8490.0 1.1388e-06
8510.0 1.1202e-06
8530.0 1.1691e-06
8550.0 1.5773e-06
8570.0 1.8674e-06
8590.0 2.0149e-06
8610.0 2.5452e-06
8630.0 3.0661e-06
8650.0 3.2075e-06
8670.0 3.4086e-06
8690.0 3.4277e-06
8710.0 3.1042e-06
8730.0 2.8874e-06
8750.0 2.5487e-06
8770.0 2.4183e-06
8790.0 2.3759e-06
8810.0 2.2766e-06
8830.0 1.8205e-06
8850.0 1.3328e-06
8870.0 1.0205e-06
8890.0 9.9768e-07
8910.0 1.1434e-06
8930.0 1.3005e-06
8950.0 1.3254e-06
8970.0 1.3317e-06
8990.0 1.1877e-06
9010.0 1.2446e-05
9030.0 1.1278e-05
9050.0 1.1332e-05
9070.0 1.1422e-05
9090.0 1.15e-05
9110.0 1.1597e-05
9130.0 1.1672e-05
9150.0 1.173e-05
9170.0 1.1792e-05
9190.0 1.1858e-05
9210.0 1.1928e-05
9230.0 1.2001e-05
9250.0 1.2076e-05
9270.0 1.2154e-05
9290.0 1.2233e-05
9310.0 1.2314e-05
9330.0 1.2396e-05
9350.0 1.2481e-05
9370.0 1.2567e-05
9390.0 1.2653e-05
9410.0 1.2743e-05
9430.0 1.2835e-05
9450.0 1.2926e-05
9470.0 1.302e-05
9490.0 1.3116e-05
9510.0 1.3214e-05
9530.0 1.3311e-05
9550.0 1.3413e-05
9570.0 1.3516e-05
9590.0 1.3619e-05
9610.0 1.3724e-05
9630.0 1.3832e-05
9650.0 1.3941e-05
9670.0 1.405e-05
9690.0 1.4162e-05
9710.0 1.4276e-05
9730.0 1.439e-05
9750.0 1.4505e-05
9770.0 1.4625e-05
9790.0 1.4743e-05
9810.0 1.4863e-05
9830.0 1.4985e-05
9850.0 1.5109e-05
9870.0 1.5232e-05
9890.0 1.5357e-05
9910.0 1.5484e-05
9930.0 1.5612e-05
9950.0 1.574e-05
9970.0 1.587e-05
9990.0 1.6002e-05
10010.0 1.3886e-05
10030.0 1.4e-05
10050.0 1.4116e-05
10070.0 1.4236e-05
10090.0 1.435e-05
10110.0 1.4466e-05
10130.0 1.4583e-05
10150.0 1.4699e-05
10170.0 1.4817e-05
10190.0 1.4936e-05
10210.0 1.5055e-05
10230.0 1.5173e-05
10250.0 1.5293e-05
10270.0 1.5412e-05
10290.0 1.5531e-05
10310.0 1.565e-05
10330.0 1.5771e-05
10350.0 1.589e-05
10370.0 1.6009e-05
10390.0 1.6129e-05
10410.0 1.6248e-05
10430.0 1.6365e-05
10450.0 1.6483e-05
10470.0 1.6602e-05
10490.0 1.6718e-05
10510.0 1.6834e-05
10530.0 1.6951e-05
10550.0 1.7067e-05
10570.0 1.718e-05
10590.0 1.7294e-05
10610.0 1.7408e-05
10630.0 1.7519e-05
10650.0 1.7629e-05
10670.0 1.774e-05
10690.0 1.7849e-05
10710.0 1.7955e-05
10730.0 1.8062e-05
10750.0 1.8169e-05
10770.0 1.8272e-05
10790.0 1.8374e-05
10810.0 1.8476e-05
10830.0 1.8574e-05
10850.0 1.8668e-05
10870.0 1.8758e-05
10890.0 1.8838e-05
10910.0 1.89e-05
10930.0 1.8934e-05
10950.0 1.8926e-05
10970.0 1.8862e-05
10990.0 1.8736e-05
11010.0 1.8526e-05
11030.0 1.8231e-05
11050.0 1.7872e-05
11070.0 1.7442e-05
11090.0 1.6926e-05
11110.0 1.6393e-05
11130.0 1.5836e-05
11150.0 1.5236e-05
11170.0 1.4618e-05
11190.0 1.4019e-05
11210.0 1.34e-05
11230.0 1.2765e-05
11250.0 1.2158e-05
11270.0 1.1576e-05
11290.0 1.0992e-05
11310.0 1.044e-05
11330.0 9.9526e-06
11350.0 9.4927e-06
11370.0 9.0677e-06
11390.0 8.7e-06
11410.0 8.3784e-06
11430.0 8.0795e-06
11450.0 7.8219e-06
11470.0 7.5992e-06
11490.0 7.392e-06
11510.0 7.1924e-06
11530.0 7.0071e-06
11550.0 6.8231e-06
11570.0 6.6267e-06
11590.0 6.4234e-06
11610.0 6.2164e-06
11630.0 5.9911e-06
11650.0 5.75e-06
11670.0 5.5123e-06
11690.0 5.2712e-06
11710.0 5.0226e-06
11730.0 4.7816e-06
11750.0 4.5586e-06
11770.0 4.3399e-06
11790.0 4.135e-06
11810.0 3.9546e-06
11830.0 3.7932e-06
11850.0 3.6446e-06
11870.0 3.5203e-06
11890.0 3.4169e-06
11910.0 3.3261e-06
11930.0 3.2481e-06
11950.0 3.1831e-06
11970.0 3.125e-06
11990.0 3.0701e-06
12010.0 3.0193e-06
12030.0 2.9704e-06
12050.0 2.9198e-06
12070.0 2.8672e-06
12090.0 2.8164e-06
12110.0 2.7649e-06
12130.0 2.7133e-06
12150.0 2.6658e-06
12170.0 2.6242e-06
12190.0 2.5883e-06
12210.0 2.5632e-06
12230.0 2.5511e-06
12250.0 2.5531e-06
12270.0 2.5723e-06
12290.0 2.6087e-06
12310.0 2.6609e-06
12330.0 2.734e-06
12350.0 2.8251e-06
12370.0 2.9289e-06
12390.0 3.0486e-06
12410.0 3.1888e-06
12430.0 3.3313e-06
12450.0 3.4788e-06
12470.0 3.6357e-06
12490.0 3.7933e-06
12510.0 3.9412e-06
12530.0 4.0883e-06
12550.0 4.2301e-06
12570.0 4.3554e-06
12590.0 4.4654e-06
12610.0 4.5634e-06
12630.0 4.6415e-06
12650.0 4.6954e-06
12670.0 4.7308e-06
12690.0 4.745e-06
12710.0 4.7372e-06
12730.0 4.7097e-06
12750.0 4.6607e-06
12770.0 4.5935e-06
12790.0 4.512e-06
12810.0 4.4146e-06
12830.0 4.302e-06
12850.0 4.1842e-06
12870.0 4.0596e-06
12890.0 3.9249e-06
12910.0 3.7879e-06
12930.0 3.6528e-06
12950.0 3.5119e-06
12970.0 3.3685e-06
12990.0 3.2328e-06
13010.0 3.0988e-06
13030.0 2.9633e-06
13050.0 2.8332e-06
13070.0 2.7113e-06
13090.0 2.5889e-06
13110.0 2.4706e-06
13130.0 2.3615e-06
13150.0 2.2581e-06
13170.0 2.1569e-06
13190.0 2.0669e-06
13210.0 1.9877e-06
13230.0 1.9152e-06
13250.0 1.8528e-06
13270.0 1.8036e-06
13290.0 1.7654e-06
13310.0 1.739e-06
13330.0 1.727e-06
13350.0 1.7284e-06
13370.0 1.7439e-06
13390.0 1.7743e-06
13410.0 1.8155e-06
13430.0 1.869e-06
13450.0 1.9351e-06
13470.0 2.0084e-06
13490.0 2.0861e-06
13510.0 2.1738e-06
13530.0 2.2626e-06
13550.0 2.3476e-06
13570.0 2.4315e-06
13590.0 2.5132e-06
13610.0 2.5859e-06
13630.0 2.6493e-06
13650.0 2.7073e-06
13670.0 2.7554e-06
13690.0 2.7926e-06
13710.0 2.8213e-06
13730.0 2.8419e-06
13750.0 2.8521e-06
13770.0 2.8545e-06
13790.0 2.8493e-06
13810.0 2.8367e-06
13830.0 2.8181e-06
13850.0 2.7929e-06
13870.0 2.7612e-06
13890.0 2.7249e-06
13910.0 2.684e-06
13930.0 2.6366e-06
13950.0 2.5848e-06
13970.0 2.532e-06
13990.0 2.4744e-06
14010.0 2.4131e-06
14030.0 2.352e-06
14050.0 2.2905e-06
14070.0 2.2255e-06
14090.0 2.1632e-06
14110.0 2.1046e-06
14130.0 2.0479e-06
14150.0 1.9945e-06
14170.0 1.9489e-06
14190.0 1.9095e-06
14210.0 1.8761e-06
14230.0 1.8513e-06
14250.0 1.8353e-06
14270.0 1.8276e-06
14290.0 1.8292e-06
14310.0 1.8394e-06
14330.0 1.8577e-06
14350.0 1.8847e-06
14370.0 1.9182e-06
14390.0 1.9564e-06
14410.0 2.0013e-06
14430.0 2.0506e-06
14450.0 2.1009e-06
14470.0 2.1532e-06
14490.0 2.2087e-06
14510.0 2.2619e-06
14530.0 2.3123e-06
14550.0 2.3627e-06
14570.0 2.4112e-06
14590.0 2.4552e-06
14610.0 2.4979e-06
14630.0 2.5401e-06
14650.0 2.5794e-06
14670.0 2.6173e-06
14690.0 2.6569e-06
14710.0 2.6985e-06
14730.0 2.7401e-06
14750.0 2.7862e-06
14770.0 2.8384e-06
14790.0 2.8951e-06
14810.0 2.9565e-06
14830.0 3.0292e-06
14850.0 3.1083e-06
14870.0 3.1908e-06
14890.0 3.2798e-06
14910.0 3.3744e-06
14930.0 3.4653e-06
14950.0 3.5502e-06
14970.0 3.6306e-06
14990.0 3.698e-06
15010.0 3.7496e-06
15030.0 3.7878e-06
15050.0 3.813e-06
15070.0 3.8254e-06
15090.0 3.8297e-06
15110.0 3.8284e-06
15130.0 3.8236e-06
15150.0 3.8172e-06
15170.0 3.8095e-06
15190.0 3.8013e-06
15210.0 3.7932e-06
15230.0 3.7852e-06
15250.0 3.7768e-06
15270.0 3.7685e-06
15290.0 3.7607e-06
15310.0 3.7527e-06
15330.0 3.7446e-06
15350.0 3.7368e-06
15370.0 3.729e-06
15390.0 3.7209e-06
15410.0 3.713e-06
15430.0 3.7054e-06
15450.0 3.6976e-06
15470.0 3.6897e-06
15490.0 3.6822e-06
15510.0 3.6747e-06
15530.0 3.6669e-06
15550.0 3.6593e-06
15570.0 3.652e-06
15590.0 3.6443e-06
15610.0 3.6366e-06
15630.0 3.6293e-06
15650.0 3.6219e-06
15670.0 3.6143e-06
15690.0 3.6069e-06
15710.0 3.5998e-06
15730.0 3.5924e-06
15750.0 3.5849e-06
15770.0 3.5777e-06
15790.0 3.5705e-06
15810.0 3.5629e-06
15830.0 3.5557e-06
15850.0 3.5487e-06
15870.0 3.5414e-06
15890.0 3.534e-06
15910.0 3.5271e-06
15930.0 3.5199e-06
15950.0 3.5125e-06
15970.0 3.5054e-06
15990.0 3.4983e-06
16010.0 3.4911e-06
16030.0 3.4837e-06
16050.0 3.4768e-06
16070.0 3.4698e-06
16090.0 3.4625e-06
16110.0 3.4554e-06
16130.0 3.4485e-06
16150.0 3.4411e-06
16170.0 3.4339e-06
16190.0 3.427e-06
16210.0 3.4199e-06
16230.0 3.4126e-06
16250.0 3.4055e-06
16270.0 3.3986e-06
16290.0 3.3914e-06
16310.0 3.3842e-06
16330.0 3.3772e-06
16350.0 3.3701e-06
16370.0 3.3626e-06
16390.0 3.3556e-06
16410.0 3.3486e-06
16430.0 3.3413e-06
16450.0 3.3341e-06
16470.0 3.3272e-06
16490.0 3.32e-06
16510.0 3.3126e-06
16530.0 3.3055e-06
16550.0 3.2984e-06
16570.0 3.2909e-06
16590.0 3.2836e-06
16610.0 3.2766e-06
16630.0 3.2693e-06
16650.0 3.2619e-06
16670.0 3.2548e-06
16690.0 3.2477e-06
16710.0 3.24e-06
16730.0 3.2327e-06
16750.0 3.2255e-06
16770.0 3.2181e-06
16790.0 3.2105e-06
16810.0 3.2033e-06
16830.0 3.196e-06
16850.0 3.1884e-06
16870.0 3.181e-06
16890.0 3.1738e-06
16910.0 3.1662e-06
16930.0 3.1584e-06
16950.0 3.1511e-06
16970.0 3.1436e-06
16990.0 3.1359e-06
17010.0 3.1284e-06
17030.0 3.1211e-06
17050.0 3.1133e-06
17070.0 3.1056e-06
17090.0 3.0981e-06
17110.0 3.0905e-06
17130.0 3.0825e-06
17150.0 3.0749e-06
17170.0 3.0673e-06
17190.0 3.0595e-06
17210.0 3.0517e-06
17230.0 3.0441e-06
17250.0 3.0363e-06
17270.0 3.0283e-06
17290.0 3.0205e-06
17310.0 3.0128e-06
17330.0 3.0048e-06
17350.0 2.9967e-06
17370.0 2.989e-06
17390.0 2.9811e-06
17410.0 2.973e-06
17430.0 2.9651e-06
17450.0 2.9574e-06
17470.0 2.949e-06
17490.0 2.9409e-06
17510.0 2.933e-06
17530.0 2.925e-06
17550.0 2.9167e-06
17570.0 2.9087e-06
17590.0 2.9007e-06
17610.0 2.8924e-06
17630.0 2.8842e-06
17650.0 2.8762e-06
17670.0 2.868e-06
17690.0 2.8594e-06
17710.0 2.8513e-06
17730.0 2.8432e-06
17750.0 2.8348e-06
17770.0 2.8264e-06
17790.0 2.8184e-06
17810.0 2.81e-06
17830.0 2.8014e-06
17850.0 2.7932e-06
17870.0 2.7849e-06
17890.0 2.7763e-06
17910.0 2.7678e-06
17930.0 2.7596e-06
17950.0 2.7511e-06
17970.0 2.7425e-06
17990.0 2.7342e-06
18010.0 2.7258e-06
18030.0 2.717e-06
18050.0 2.7085e-06
18070.0 2.7001e-06
18090.0 2.6915e-06
18110.0 2.6827e-06
18130.0 2.6744e-06
18150.0 2.6659e-06
18170.0 2.6571e-06
18190.0 2.6485e-06
18210.0 2.6401e-06
18230.0 2.6313e-06
18250.0 2.6224e-06
18270.0 2.6139e-06
18290.0 2.6053e-06
18310.0 2.5964e-06
18330.0 2.5878e-06
18350.0 2.5793e-06
18370.0 2.5704e-06
18390.0 2.5616e-06
18410.0 2.553e-06
18430.0 2.5443e-06
18450.0 2.5352e-06
18470.0 2.5265e-06
18490.0 2.5179e-06
18510.0 2.509e-06
18530.0 2.5002e-06
18550.0 2.4916e-06
18570.0 2.4828e-06
18590.0 2.4737e-06
18610.0 2.465e-06
18630.0 2.4563e-06
18650.0 2.4473e-06
18670.0 2.4383e-06
18690.0 2.4297e-06
18710.0 2.4209e-06
18730.0 2.4118e-06
18750.0 2.4031e-06
18770.0 2.3944e-06
18790.0 2.3852e-06
18810.0 2.3762e-06
18830.0 2.3676e-06
18850.0 2.3587e-06
18870.0 2.3496e-06
18890.0 2.3408e-06
18910.0 2.3321e-06
18930.0 2.323e-06
18950.0 2.3141e-06
18970.0 2.3054e-06
18990.0 2.2964e-06
19010.0 2.2871e-06
19030.0 2.2784e-06
19050.0 2.2696e-06
19070.0 2.2606e-06
19090.0 2.2517e-06
19110.0 2.243e-06
19130.0 2.234e-06
19150.0 2.2249e-06
19170.0 2.2161e-06
19190.0 2.2073e-06
19210.0 2.1981e-06
19230.0 2.1891e-06
19250.0 2.1805e-06
19270.0 2.1715e-06
19290.0 2.1625e-06
19310.0 2.1537e-06
19330.0 2.1449e-06
19350.0 2.1357e-06
19370.0 2.1268e-06
19390.0 2.1181e-06
19410.0 2.1091e-06
19430.0 2.1e-06
19450.0 2.0913e-06
19470.0 2.0825e-06
19490.0 2.0734e-06
19510.0 2.0646e-06
19530.0 2.0559e-06
19550.0 2.0468e-06
19570.0 2.0377e-06
19590.0 2.029e-06
19610.0 2.0202e-06
19630.0 2.0112e-06
19650.0 2.0024e-06
19670.0 1.9938e-06
19690.0 1.9847e-06
19710.0 1.9757e-06
19730.0 1.9671e-06
19750.0 1.9582e-06
19770.0 1.9491e-06
19790.0 1.9403e-06
19810.0 1.9317e-06
19830.0 1.9227e-06
19850.0 1.9137e-06
19870.0 1.9048e-06
19890.0 1.8953e-06
19910.0 1.8848e-06
19930.0 1.8737e-06
19950.0 1.8609e-06
19970.0 1.8451e-06
19990.0 1.8262e-06
20010.0 1.6247e-06
20030.0 1.6012e-06
20050.0 1.5737e-06
20070.0 1.5439e-06
20090.0 1.5118e-06
20110.0 1.4755e-06
20130.0 1.4388e-06
20150.0 1.4024e-06
20170.0 1.3646e-06
20190.0 1.3263e-06
20210.0 1.2902e-06
20230.0 1.2549e-06
20250.0 1.2196e-06
20270.0 1.1868e-06
20290.0 1.1568e-06
20310.0 1.1284e-06
20330.0 1.1018e-06
20350.0 1.0797e-06
20370.0 1.0601e-06
20390.0 1.0429e-06
20410.0 1.0291e-06
20430.0 1.0183e-06
20450.0 1.0099e-06
20470.0 1.0042e-06
20490.0 1.0011e-06
20510.0 1.0003e-06
20530.0 1.0015e-06
20550.0 1.0046e-06
20570.0 1.0091e-06
20590.0 1.0152e-06
20610.0 1.0226e-06
20630.0 1.0307e-06
20650.0 1.0398e-06
20670.0 1.0502e-06
20690.0 1.0607e-06
20710.0 1.0717e-06
20730.0 1.0835e-06
20750.0 1.0958e-06
20770.0 1.108e-06
20790.0 1.1207e-06
20810.0 1.1342e-06
20830.0 1.1476e-06
20850.0 1.161e-06
20870.0 1.1754e-06
20890.0 1.1901e-06
20910.0 1.2043e-06
20930.0 1.219e-06
20950.0 1.2343e-06
20970.0 1.2491e-06
20990.0 1.2638e-06
21010.0 1.2792e-06
21030.0 1.2943e-06
21050.0 1.3087e-06
21070.0 1.323e-06
21090.0 1.3375e-06
21110.0 1.3506e-06
21130.0 1.3629e-06
21150.0 1.3749e-06
21170.0 1.3857e-06
21190.0 1.395e-06
21210.0 1.4034e-06
21230.0 1.4104e-06
21250.0 1.4154e-06
21270.0 1.4185e-06
21290.0 1.4197e-06
21310.0 1.4186e-06
21330.0 1.4152e-06
21350.0 1.4093e-06
21370.0 1.4007e-06
21390.0 1.3897e-06
21410.0 1.3763e-06
21430.0 1.3593e-06
21450.0 1.3402e-06
21470.0 1.3194e-06
21490.0 1.2959e-06
21510.0 1.2701e-06
21530.0 1.2439e-06
21550.0 1.2164e-06
21570.0 1.1871e-06
21590.0 1.1583e-06
21610.0 1.1305e-06
21630.0 1.1026e-06
21650.0 1.0754e-06
21670.0 1.0518e-06
21690.0 1.0301e-06
21710.0 1.0105e-06
21730.0 9.9443e-07
21750.0 9.8205e-07
21770.0 9.7262e-07
21790.0 9.6719e-07
21810.0 9.6569e-07
21830.0 9.6783e-07
21850.0 9.7388e-07
21870.0 9.8331e-07
21890.0 9.955e-07
21910.0 1.0111e-06
21930.0 1.0295e-06
21950.0 1.0493e-06
21970.0 1.0713e-06
21990.0 1.096e-06
22010.0 1.1207e-06
22030.0 1.1458e-06
22050.0 1.1721e-06
22070.0 1.1986e-06
22090.0 1.2236e-06
22110.0 1.2489e-06
22130.0 1.2741e-06
22150.0 1.2977e-06
22170.0 1.3199e-06
22190.0 1.3419e-06
22210.0 1.3624e-06
22230.0 1.3804e-06
22250.0 1.3974e-06
22270.0 1.413e-06
22290.0 1.4264e-06
22310.0 1.4379e-06
22330.0 1.448e-06
22350.0 1.4558e-06
22370.0 1.4613e-06
22390.0 1.4647e-06
22410.0 1.4658e-06
22430.0 1.4644e-06
22450.0 1.4606e-06
22470.0 1.4541e-06
22490.0 1.445e-06
22510.0 1.4335e-06
22530.0 1.4189e-06
22550.0 1.4012e-06
22570.0 1.3815e-06
22590.0 1.3593e-06
22610.0 1.3337e-06
22630.0 1.306e-06
