#lamb flux
1010.0 1.3445e-06
1030.0 1.4716e-06
1050.0 1.6032e-06
1070.0 1.7515e-06
1090.0 1.9241e-06
1110.0 2.1003e-06
1130.0 2.2772e-06
1150.0 2.4624e-06
1170.0 2.6537e-06
1190.0 2.8362e-06
1210.0 3.0228e-06
1230.0 3.2178e-06
1250.0 3.4109e-06
1270.0 3.6021e-06
1290.0 3.8075e-06
1310.0 4.0168e-06
1330.0 4.2221e-06
1350.0 4.4332e-06
1370.0 4.6536e-06
1390.0 4.8715e-06
1410.0 5.0853e-06
1430.0 5.3085e-06
1450.0 5.5315e-06
1470.0 5.7467e-06
1490.0 5.9621e-06
1510.0 6.1857e-06
1530.0 6.3949e-06
1550.0 6.597e-06
1570.0 6.8011e-06
1590.0 7e-06
1610.0 7.1837e-06
1630.0 7.3655e-06
1650.0 7.546e-06
1670.0 7.713e-06
1690.0 7.8708e-06
1710.0 8.0294e-06
1730.0 8.1828e-06
1750.0 8.3186e-06
1770.0 8.455e-06
1790.0 8.5911e-06
1810.0 8.7179e-06
1830.0 8.8398e-06
1850.0 8.9723e-06
1870.0 9.1008e-06
1890.0 9.2256e-06
1910.0 9.3578e-06
1930.0 9.4996e-06
1950.0 9.6393e-06
1970.0 9.7843e-06
1990.0 9.944e-06
2010.0 1.0109e-05
2030.0 1.0276e-05
2050.0 1.0456e-05
2070.0 1.0648e-05
2090.0 1.0837e-05
2110.0 1.1029e-05
2130.0 1.1231e-05
2150.0 1.1432e-05
2170.0 1.1625e-05
2190.0 1.1823e-05
2210.0 1.202e-05
2230.0 1.2205e-05
2250.0 1.2383e-05
2270.0 1.2562e-05
2290.0 1.2726e-05
2310.0 1.2875e-05
2330.0 1.3018e-05
2350.0 1.3153e-05
2370.0 1.327e-05
2390.0 1.3378e-05
2410.0 1.3484e-05
2430.0 1.3574e-05
2450.0 1.3649e-05
2470.0 1.372e-05
2490.0 1.3787e-05
2510.0 1.3847e-05
2530.0 1.3934e-05
2550.0 1.4104e-05
2570.0 1.4416e-05
2590.0 1.4943e-05
2610.0 1.5868e-05
2630.0 1.7251e-05
2650.0 1.9026e-05
2670.0 2.1219e-05
2690.0 2.3746e-05
2710.0 2.6222e-05
2730.0 2.8412e-05
2750.0 3.0249e-05
2770.0 3.1412e-05
2790.0 3.1807e-05
2810.0 3.1488e-05
2830.0 3.0439e-05
2850.0 2.8871e-05
2870.0 2.6928e-05
2890.0 2.4642e-05
2910.0 2.2172e-05
2930.0 1.9688e-05
2950.0 1.7056e-05
2970.0 1.4324e-05
2990.0 1.1636e-05
3010.0 1.4142e-05
3030.0 9.6981e-06
3050.0 5.2311e-06
3070.0 1.5641e-06
3090.0 1.5641e-06
3110.0 1.5641e-06
3130.0 1.5641e-06
3150.0 1.5641e-06
3170.0 1.5641e-06
3190.0 1.5641e-06
3210.0 4.938e-05
3230.0 0.00013735
3250.0 0.00018686
3270.0 0.00016397
3290.0 0.00012429
3310.0 9.8458e-05
3330.0 9.1843e-05
3350.0 9.6336e-05
3370.0 0.00010422
3390.0 0.00011246
3410.0 0.0001211
3430.0 0.00013165
3450.0 0.00014174
3470.0 0.00015222
3490.0 0.00015416
3510.0 0.00013446
3530.0 0.00012589
3550.0 0.00016099
3570.0 0.00020501
3590.0 0.00022817
3610.0 0.00023622
3630.0 0.00025041
3650.0 0.00025064
3670.0 0.00026116
3690.0 0.00030715
3710.0 0.00035702
3730.0 0.00038978
3750.0 0.00041
3770.0 0.00041652
3790.0 0.00040394
3810.0 0.00037449
3830.0 0.00032783
3850.0 0.00025793
3870.0 0.00022933
3890.0 0.00025833
3910.0 0.00034221
3930.0 0.00042776
3950.0 0.00046765
3970.0 0.00048405
3990.0 0.00052201
4010.0 0.00053975
4030.0 0.000488
4050.0 0.0003679
4070.0 0.00031126
4090.0 0.00034858
4110.0 0.00038695
4130.0 0.00041328
4150.0 0.00041353
4170.0 0.00039761
4190.0 0.00037979
4210.0 0.00040438
4230.0 0.0004343
4250.0 0.00046027
4270.0 0.00046151
4290.0 0.00044699
4310.0 0.00044917
4330.0 0.00049376
4350.0 0.00054354
4370.0 0.00055063
4390.0 0.00051347
4410.0 0.00045645
4430.0 0.00036995
4450.0 0.00030561
4470.0 0.00030422
4490.0 0.00033762
4510.0 0.00036793
4530.0 0.00038682
4550.0 0.00041724
4570.0 0.00054247
4590.0 0.00074544
4610.0 0.00088581
4630.0 0.00094093
4650.0 0.0010232
4670.0 0.0011394
4690.0 0.0011598
4710.0 0.0010048
4730.0 0.0007884
4750.0 0.00061883
4770.0 0.00052053
4790.0 0.00047439
4810.0 0.00046092
4830.0 0.00050089
4850.0 0.00059047
4870.0 0.00065943
4890.0 0.00067643
4910.0 0.00067969
4930.0 0.00075111
4950.0 0.00086561
4970.0 0.00093976
4990.0 0.00093287
5010.0 0.00084032
5030.0 0.00069556
5050.0 0.000564
5070.0 0.00048169
5090.0 0.00045058
5110.0 0.00045104
5130.0 0.00045697
5150.0 0.00045118
5170.0 0.00042945
5190.0 0.00041933
5210.0 0.00043809
5230.0 0.00049515
5250.0 0.00059063
5270.0 0.00069029
5290.0 0.00075476
5310.0 0.00080578
5330.0 0.00088155
5350.0 0.00094514
5370.0 0.0009356
5390.0 0.0008613
5410.0 0.00079455
5430.0 0.00080391
5450.0 0.00091224
5470.0 0.0010578
5490.0 0.0011636
5510.0 0.0011972
5530.0 0.0011746
5550.0 0.0011243
5570.0 0.0010698
5590.0 0.0010178
5610.0 0.00098123
5630.0 0.00096795
5650.0 0.00095284
5670.0 0.00089405
5690.0 0.00079468
5710.0 0.00069662
5730.0 0.00063164
5750.0 0.0006073
5770.0 0.00061678
5790.0 0.00062752
5810.0 0.00062865
5830.0 0.00062184
5850.0 0.00059697
5870.0 0.00056718
5890.0 0.0005554
5910.0 0.00056055
5930.0 0.00055252
5950.0 0.00050914
5970.0 0.00043923
5990.0 0.00035838
6010.0 0.00029988
6030.0 0.00028554
6050.0 0.00030662
6070.0 0.00032216
6090.0 0.00030504
6110.0 0.00027995
6130.0 0.00028781
6150.0 0.00032189
6170.0 0.00035328
6190.0 0.0003724
6210.0 0.00037919
6230.0 0.0003722
6250.0 0.00033848
6270.0 0.00028541
6290.0 0.00024102
6310.0 0.00022261
6330.0 0.00022513
6350.0 0.00023283
6370.0 0.00024538
6390.0 0.00028096
6410.0 0.00033855
6430.0 0.00038967
6450.0 0.00041549
6470.0 0.00042692
6490.0 0.0004334
6510.0 0.00043723
6530.0 0.000441
6550.0 0.00044592
6570.0 0.00045715
6590.0 0.00046718
6610.0 0.00046595
6630.0 0.00044622
6650.0 0.00041265
6670.0 0.00038019
6690.0 0.00035835
6710.0 0.00034303
6730.0 0.00032877
6750.0 0.00032329
6770.0 0.00033187
6790.0 0.00034424
6810.0 0.0003499
6830.0 0.00034446
6850.0 0.00032787
6870.0 0.00031051
6890.0 0.00030286
6910.0 0.00030271
6930.0 0.0003101
6950.0 0.00031814
6970.0 0.00032432
6990.0 0.00032554
7010.0 0.00031492
7030.0 0.00029113
7050.0 0.00026105
7070.0 0.0002406
7090.0 0.00023637
7110.0 0.00023844
7130.0 0.00022738
7150.0 0.00020552
7170.0 0.00020064
7190.0 0.00022177
7210.0 0.00025415
7230.0 0.0002819
7250.0 0.00029214
7270.0 0.00028543
7290.0 0.00026809
7310.0 0.0002537
7330.0 0.00025128
7350.0 0.00025562
7370.0 0.00026002
7390.0 0.00027255
7410.0 0.00029937
7430.0 0.00033315
7450.0 0.00036131
7470.0 0.00037097
7490.0 0.00035393
7510.0 0.00032901
7530.0 0.00031216
7550.0 0.0002959
7570.0 0.0002777
7590.0 0.00026944
7610.0 0.00027323
7630.0 0.00028839
7650.0 0.00031403
7670.0 0.00034517
7690.0 0.00037309
7710.0 0.00039559
7730.0 0.00041576
7750.0 0.00043286
7770.0 0.00043921
7790.0 0.0004478
7810.0 0.00045215
7830.0 0.00044238
7850.0 0.00042983
7870.0 0.00042414
7890.0 0.00043017
7910.0 0.00043274
7930.0 0.00042567
7950.0 0.00041184
7970.0 0.00039939
7990.0 0.00038736
8010.0 0.00037604
8030.0 0.0003797
8050.0 0.00038193
8070.0 0.00037897
8090.0 0.00037757
8110.0 0.00037185
8130.0 0.00037405
8150.0 0.00037289
8170.0 0.00036735
8190.0 0.00035934
8210.0 0.00035217
8230.0 0.00034425
8250.0 0.0003423
8270.0 0.0003213
8290.0 0.00027515
8310.0 0.00022248
8330.0 0.0001865
8350.0 0.0001789
8370.0 0.00020407
8390.0 0.00023857
8410.0 0.00025585
8430.0 0.00026468
8450.0 0.0002828
8470.0 0.00030693
8490.0 0.00034184
8510.0 0.00038393
8530.0 0.00042931
8550.0 0.00046684
8570.0 0.00049566
8590.0 0.0005178
8610.0 0.00053042
8630.0 0.00053006
8650.0 0.00052342
8670.0 0.00052586
8690.0 0.00055605
8710.0 0.00059672
8730.0 0.00061911
8750.0 0.00061788
8770.0 0.00062768
8790.0 0.00062974
8810.0 0.00060087
8830.0 0.00056067
8850.0 0.00050886
8870.0 0.00046888
8890.0 0.00045789
8910.0 0.00045404
8930.0 0.0004274
8950.0 0.00039659
8970.0 0.00038429
8990.0 0.00038539
9010.0 0.00037661
9030.0 0.00036919
9050.0 0.00036574
9070.0 0.00036401
9090.0 0.00036251
9110.0 0.00036107
9130.0 0.00035962
9150.0 0.00035821
9170.0 0.00035674
9190.0 0.0003556
9210.0 0.00035515
9230.0 0.00035337
9250.0 0.0003518
9270.0 0.00035036
9290.0 0.00034901
9310.0 0.00034769
9330.0 0.00034642
9350.0 0.00034521
9370.0 0.00034402
9390.0 0.00034282
9410.0 0.00034165
9430.0 0.00034044
9450.0 0.00033875
9470.0 0.00033724
9490.0 0.00033664
9510.0 0.00033578
9530.0 0.00033488
9550.0 0.00033391
9570.0 0.00033292
9590.0 0.00033192
9610.0 0.00033092
9630.0 0.00032991
9650.0 0.00032892
9670.0 0.00032795
9690.0 0.00032697
9710.0 0.000326
9730.0 0.00032505
9750.0 0.0003241
9770.0 0.00032313
9790.0 0.00032219
9810.0 0.00032126
9830.0 0.00032032
9850.0 0.00031937
9870.0 0.00031845
9890.0 0.00031752
9910.0 0.00031657
9930.0 0.00031562
9950.0 0.00031316
9970.0 0.00031265
9990.0 0.00031205
10010.0 0.00031143
10030.0 0.00031067
10050.0 0.00030977
10070.0 0.00030888
10090.0 0.00030798
10110.0 0.00030691
10130.0 0.00030567
10150.0 0.00030472
10170.0 0.00030377
10190.0 0.00030268
10210.0 0.00030167
10230.0 0.00030067
10250.0 0.00029953
10270.0 0.00029839
10290.0 0.00029732
10310.0 0.00029614
10330.0 0.00029486
10350.0 0.00029368
10370.0 0.00029248
10390.0 0.00029116
10410.0 0.00028984
10430.0 0.00028861
10450.0 0.00028725
10470.0 0.00028582
10490.0 0.00028445
10510.0 0.00028307
10530.0 0.0002815
10550.0 0.00027997
10570.0 0.00027851
10590.0 0.00027693
10610.0 0.00027527
10630.0 0.00027369
10650.0 0.00027206
10670.0 0.00027027
10690.0 0.00026851
10710.0 0.00026679
10730.0 0.00026494
10750.0 0.00026296
10770.0 0.00026114
10790.0 0.00025924
10810.0 0.0002572
10830.0 0.00025518
10850.0 0.00025322
10870.0 0.00025103
10890.0 0.00024881
10910.0 0.00024666
10930.0 0.00024443
10950.0 0.00024203
10970.0 0.00023964
10990.0 0.00023731
11010.0 0.00025683
11030.0 0.0002542
11050.0 0.00025166
11070.0 0.00024906
11090.0 0.00024627
11110.0 0.00024366
11130.0 0.00024111
11150.0 0.00023846
11170.0 0.00023581
11190.0 0.00023332
11210.0 0.00023077
11230.0 0.00022815
11250.0 0.00022565
11270.0 0.00022321
11290.0 0.00022069
11310.0 0.0002182
11330.0 0.00021589
11350.0 0.00021353
11370.0 0.00021112
11390.0 0.00020878
11410.0 0.00020644
11430.0 0.0002039
11450.0 0.00020133
11470.0 0.00019872
11490.0 0.00019593
11510.0 0.00019288
11530.0 0.00018982
11550.0 0.00018662
11570.0 0.00018315
11590.0 0.00017958
11610.0 0.000176
11630.0 0.00017221
11650.0 0.00016825
11670.0 0.00016443
11690.0 0.00016061
11710.0 0.00015667
11730.0 0.00015281
11750.0 0.00014915
11770.0 0.00014541
11790.0 0.0001417
11810.0 0.00013817
11830.0 0.00013472
11850.0 0.00013118
11870.0 0.00012782
11890.0 0.00012463
11910.0 0.00012142
11930.0 0.00011826
11950.0 0.0001153
11970.0 0.0001124
11990.0 0.0001095
12010.0 0.00010678
12030.0 0.00010423
12050.0 0.00010174
12070.0 9.9349e-05
12090.0 9.7233e-05
12110.0 9.5248e-05
12130.0 9.3397e-05
12150.0 9.1766e-05
12170.0 9.0355e-05
12190.0 8.9093e-05
12210.0 8.8063e-05
12230.0 8.7269e-05
12250.0 8.6681e-05
12270.0 8.6313e-05
12290.0 8.6157e-05
12310.0 8.618e-05
12330.0 8.6409e-05
12350.0 8.681e-05
12370.0 8.7326e-05
12390.0 8.7977e-05
12410.0 8.8801e-05
12430.0 8.9636e-05
12450.0 9.0508e-05
12470.0 9.146e-05
12490.0 9.2422e-05
12510.0 9.3306e-05
12530.0 9.42e-05
12550.0 9.5072e-05
12570.0 9.582e-05
12590.0 9.6457e-05
12610.0 9.7022e-05
12630.0 9.7435e-05
12650.0 9.7638e-05
12670.0 9.7694e-05
12690.0 9.757e-05
12710.0 9.7237e-05
12730.0 9.6715e-05
12750.0 9.5994e-05
12770.0 9.508e-05
12790.0 9.4008e-05
12810.0 9.277e-05
12830.0 9.1372e-05
12850.0 8.9904e-05
12870.0 8.8361e-05
12890.0 8.6723e-05
12910.0 8.5065e-05
12930.0 8.3434e-05
12950.0 8.1769e-05
12970.0 8.0105e-05
12990.0 7.8532e-05
13010.0 7.7e-05
13030.0 7.5483e-05
13050.0 7.4033e-05
13070.0 7.2667e-05
13090.0 7.1311e-05
13110.0 6.9994e-05
13130.0 6.8749e-05
13150.0 6.7542e-05
13170.0 6.6334e-05
13190.0 6.5191e-05
13210.0 6.4107e-05
13230.0 6.3035e-05
13250.0 6.1994e-05
13270.0 6.1018e-05
13290.0 6.0072e-05
13310.0 5.9143e-05
13330.0 5.8277e-05
13350.0 5.7466e-05
13370.0 5.6687e-05
13390.0 5.5952e-05
13410.0 5.529e-05
13430.0 5.4669e-05
13450.0 5.4085e-05
13470.0 5.355e-05
13490.0 5.3058e-05
13510.0 5.258e-05
13530.0 5.2129e-05
13550.0 5.1699e-05
13570.0 5.1272e-05
13590.0 5.0838e-05
13610.0 5.0405e-05
13630.0 4.9968e-05
13650.0 4.9508e-05
13670.0 4.9037e-05
13690.0 4.8564e-05
13710.0 4.8079e-05
13730.0 4.7573e-05
13750.0 4.7085e-05
13770.0 4.6606e-05
13790.0 4.6125e-05
13810.0 4.5661e-05
13830.0 4.5227e-05
13850.0 4.4802e-05
13870.0 4.4394e-05
13890.0 4.4017e-05
13910.0 4.3661e-05
13930.0 4.3314e-05
13950.0 4.2983e-05
13970.0 4.2675e-05
13990.0 4.2367e-05
14010.0 4.2057e-05
14030.0 4.1753e-05
14050.0 4.1444e-05
14070.0 4.1113e-05
14090.0 4.0775e-05
14110.0 4.0431e-05
14130.0 4.0066e-05
14150.0 3.968e-05
14170.0 3.93e-05
14190.0 3.8915e-05
14210.0 3.8515e-05
14230.0 3.8126e-05
14250.0 3.7758e-05
14270.0 3.7394e-05
14290.0 3.7047e-05
14310.0 3.6744e-05
14330.0 3.6471e-05
14350.0 3.6226e-05
14370.0 3.6023e-05
14390.0 3.586e-05
14410.0 3.5725e-05
14430.0 3.5622e-05
14450.0 3.555e-05
14470.0 3.55e-05
14490.0 3.5467e-05
14510.0 3.5451e-05
14530.0 3.5448e-05
14550.0 3.5454e-05
14570.0 3.5472e-05
14590.0 3.5503e-05
14610.0 3.555e-05
14630.0 3.5621e-05
14650.0 3.5721e-05
14670.0 3.5854e-05
14690.0 3.6034e-05
14710.0 3.6271e-05
14730.0 3.6555e-05
14750.0 3.6907e-05
14770.0 3.7341e-05
14790.0 3.7842e-05
14810.0 3.8411e-05
14830.0 3.9102e-05
14850.0 3.9875e-05
14870.0 4.0707e-05
14890.0 4.1627e-05
14910.0 4.263e-05
14930.0 4.3632e-05
14950.0 4.4609e-05
14970.0 4.5574e-05
14990.0 4.6439e-05
15010.0 4.7166e-05
15030.0 4.7777e-05
15050.0 4.8273e-05
15070.0 4.864e-05
15090.0 4.893e-05
15110.0 4.9169e-05
15130.0 4.9373e-05
15150.0 4.9561e-05
15170.0 4.9742e-05
15190.0 4.9922e-05
15210.0 5.0104e-05
15230.0 5.0288e-05
15250.0 5.0476e-05
15270.0 5.0668e-05
15290.0 5.0864e-05
15310.0 5.1063e-05
15330.0 5.1266e-05
15350.0 5.1472e-05
15370.0 5.1682e-05
15390.0 5.1895e-05
15410.0 5.2111e-05
15430.0 5.2331e-05
15450.0 5.2555e-05
15470.0 5.2781e-05
15490.0 5.301e-05
15510.0 5.3243e-05
15530.0 5.3478e-05
15550.0 5.3716e-05
15570.0 5.3958e-05
15590.0 5.4202e-05
15610.0 5.4449e-05
15630.0 5.4698e-05
15650.0 5.4951e-05
15670.0 5.5205e-05
15690.0 5.5462e-05
15710.0 5.5722e-05
15730.0 5.5984e-05
15750.0 5.6248e-05
15770.0 5.6514e-05
15790.0 5.6783e-05
15810.0 5.7053e-05
15830.0 5.7325e-05
15850.0 5.76e-05
15870.0 5.7876e-05
15890.0 5.8153e-05
15910.0 5.8433e-05
15930.0 5.8713e-05
15950.0 5.8995e-05
15970.0 5.9279e-05
15990.0 5.9564e-05
16010.0 5.9849e-05
16030.0 6.0136e-05
16050.0 6.0424e-05
16070.0 6.0713e-05
16090.0 6.1002e-05
16110.0 6.1292e-05
16130.0 6.1583e-05
16150.0 6.1874e-05
16170.0 6.2165e-05
16190.0 6.2457e-05
16210.0 6.2748e-05
16230.0 6.304e-05
16250.0 6.3332e-05
16270.0 6.3623e-05
16290.0 6.3914e-05
16310.0 6.4205e-05
16330.0 6.4495e-05
16350.0 6.4785e-05
16370.0 6.5073e-05
16390.0 6.5362e-05
16410.0 6.5649e-05
16430.0 6.5934e-05
16450.0 6.6219e-05
16470.0 6.6503e-05
16490.0 6.6785e-05
16510.0 6.7065e-05
16530.0 6.7344e-05
16550.0 6.7621e-05
16570.0 6.7896e-05
16590.0 6.8169e-05
16610.0 6.844e-05
16630.0 6.8709e-05
16650.0 6.8975e-05
16670.0 6.9239e-05
16690.0 6.95e-05
16710.0 6.9758e-05
16730.0 7.0014e-05
16750.0 7.0267e-05
16770.0 7.0517e-05
16790.0 7.0763e-05
16810.0 7.1007e-05
16830.0 7.1247e-05
16850.0 7.1483e-05
16870.0 7.1716e-05
16890.0 7.1945e-05
16910.0 7.217e-05
16930.0 7.2391e-05
16950.0 7.2609e-05
16970.0 7.2822e-05
16990.0 7.3031e-05
17010.0 7.3236e-05
17030.0 7.3436e-05
17050.0 7.3632e-05
17070.0 7.3823e-05
17090.0 7.4009e-05
17110.0 7.4191e-05
17130.0 7.4367e-05
17150.0 7.4539e-05
17170.0 7.4706e-05
17190.0 7.4867e-05
17210.0 7.5023e-05
17230.0 7.5175e-05
17250.0 7.532e-05
17270.0 7.546e-05
17290.0 7.5595e-05
17310.0 7.5724e-05
17330.0 7.5847e-05
17350.0 7.5964e-05
17370.0 7.6076e-05
17390.0 7.6182e-05
17410.0 7.6282e-05
17430.0 7.6376e-05
17450.0 7.6465e-05
17470.0 7.6546e-05
17490.0 7.6622e-05
17510.0 7.6692e-05
17530.0 7.6756e-05
17550.0 7.6813e-05
17570.0 7.6865e-05
17590.0 7.691e-05
17610.0 7.6948e-05
17630.0 7.698e-05
17650.0 7.7007e-05
17670.0 7.7026e-05
17690.0 7.7039e-05
17710.0 7.7046e-05
17730.0 7.7046e-05
17750.0 7.704e-05
17770.0 7.7028e-05
17790.0 7.7009e-05
17810.0 7.6984e-05
17830.0 7.6952e-05
17850.0 7.6914e-05
17870.0 7.687e-05
17890.0 7.6819e-05
17910.0 7.6762e-05
17930.0 7.6699e-05
17950.0 7.6629e-05
17970.0 7.6553e-05
17990.0 7.6471e-05
18010.0 7.6383e-05
18030.0 7.6288e-05
18050.0 7.6187e-05
18070.0 7.608e-05
18090.0 7.5967e-05
18110.0 7.5848e-05
18130.0 7.5724e-05
18150.0 7.5593e-05
18170.0 7.5456e-05
18190.0 7.5314e-05
18210.0 7.5166e-05
18230.0 7.5012e-05
18250.0 7.4852e-05
18270.0 7.4688e-05
18290.0 7.4517e-05
18310.0 7.4341e-05
18330.0 7.416e-05
18350.0 7.3974e-05
18370.0 7.3782e-05
18390.0 7.3584e-05
18410.0 7.3383e-05
18430.0 7.3176e-05
18450.0 7.2963e-05
18470.0 7.2747e-05
18490.0 7.2526e-05
18510.0 7.23e-05
18530.0 7.2069e-05
18550.0 7.1834e-05
18570.0 7.1594e-05
18590.0 7.135e-05
18610.0 7.1102e-05
18630.0 7.085e-05
18650.0 7.0594e-05
18670.0 7.0333e-05
18690.0 7.007e-05
18710.0 6.9802e-05
18730.0 6.953e-05
18750.0 6.9255e-05
18770.0 6.8977e-05
18790.0 6.8695e-05
18810.0 6.841e-05
18830.0 6.8122e-05
18850.0 6.783e-05
18870.0 6.7535e-05
18890.0 6.7238e-05
18910.0 6.6938e-05
18930.0 6.6635e-05
18950.0 6.633e-05
18970.0 6.6022e-05
18990.0 6.5711e-05
19010.0 6.5398e-05
19030.0 6.5083e-05
19050.0 6.4766e-05
19070.0 6.4447e-05
19090.0 6.4126e-05
19110.0 6.3803e-05
19130.0 6.3478e-05
19150.0 6.3152e-05
19170.0 6.2824e-05
19190.0 6.2494e-05
19210.0 6.2163e-05
19230.0 6.1831e-05
19250.0 6.1498e-05
19270.0 6.1163e-05
19290.0 6.0827e-05
19310.0 6.0491e-05
19330.0 6.0154e-05
19350.0 5.9815e-05
19370.0 5.9476e-05
19390.0 5.9137e-05
19410.0 5.8796e-05
19430.0 5.8456e-05
19450.0 5.8115e-05
19470.0 5.7774e-05
19490.0 5.7432e-05
19510.0 5.709e-05
19530.0 5.6748e-05
19550.0 5.6406e-05
19570.0 5.6064e-05
19590.0 5.5723e-05
19610.0 5.5381e-05
19630.0 5.504e-05
19650.0 5.4699e-05
19670.0 5.4358e-05
19690.0 5.4018e-05
19710.0 5.3678e-05
19730.0 5.3339e-05
19750.0 5.3001e-05
19770.0 5.2663e-05
19790.0 5.2326e-05
19810.0 5.1989e-05
19830.0 5.1653e-05
19850.0 5.1314e-05
19870.0 5.0973e-05
19890.0 5.0621e-05
19910.0 5.0251e-05
19930.0 4.9853e-05
19950.0 4.9413e-05
19970.0 4.8904e-05
19990.0 4.8316e-05
20010.0 4.7659e-05
20030.0 4.6905e-05
20050.0 4.606e-05
20070.0 4.5167e-05
20090.0 4.4235e-05
20110.0 4.3233e-05
20130.0 4.2242e-05
20150.0 4.1278e-05
20170.0 4.0309e-05
20190.0 3.9351e-05
20210.0 3.8449e-05
20230.0 3.7575e-05
20250.0 3.671e-05
20270.0 3.5895e-05
20290.0 3.5133e-05
20310.0 3.4394e-05
20330.0 3.3682e-05
20350.0 3.3043e-05
20370.0 3.2437e-05
20390.0 3.186e-05
20410.0 3.1329e-05
20430.0 3.0846e-05
20450.0 3.0383e-05
20470.0 2.9958e-05
20490.0 2.9574e-05
20510.0 2.9218e-05
20530.0 2.8886e-05
20550.0 2.8584e-05
20570.0 2.8309e-05
20590.0 2.805e-05
20610.0 2.7811e-05
20630.0 2.7588e-05
20650.0 2.7378e-05
20670.0 2.7177e-05
20690.0 2.6985e-05
20710.0 2.6798e-05
20730.0 2.6614e-05
20750.0 2.6431e-05
20770.0 2.6247e-05
20790.0 2.6059e-05
20810.0 2.5867e-05
20830.0 2.5669e-05
20850.0 2.5465e-05
20870.0 2.5252e-05
20890.0 2.503e-05
20910.0 2.4803e-05
20930.0 2.4567e-05
20950.0 2.4321e-05
20970.0 2.4071e-05
20990.0 2.3817e-05
21010.0 2.3553e-05
21030.0 2.3285e-05
21050.0 2.3018e-05
21070.0 2.2746e-05
21090.0 2.2468e-05
21110.0 2.2196e-05
21130.0 2.1926e-05
21150.0 2.1653e-05
21170.0 2.1383e-05
21190.0 2.1121e-05
21210.0 2.0858e-05
21230.0 2.0596e-05
21250.0 2.0344e-05
21270.0 2.0098e-05
21290.0 1.9853e-05
21310.0 1.9615e-05
21330.0 1.9389e-05
21350.0 1.9166e-05
21370.0 1.8949e-05
21390.0 1.8742e-05
21410.0 1.8544e-05
21430.0 1.8349e-05
21450.0 1.8166e-05
21470.0 1.7994e-05
21490.0 1.7828e-05
21510.0 1.767e-05
21530.0 1.7523e-05
21550.0 1.7383e-05
21570.0 1.7251e-05
21590.0 1.7127e-05
21610.0 1.701e-05
21630.0 1.69e-05
21650.0 1.6796e-05
21670.0 1.6698e-05
21690.0 1.6606e-05
21710.0 1.6518e-05
21730.0 1.6434e-05
21750.0 1.6353e-05
21770.0 1.6277e-05
21790.0 1.6203e-05
21810.0 1.6131e-05
21830.0 1.6062e-05
21850.0 1.5994e-05
21870.0 1.5928e-05
21890.0 1.5861e-05
21910.0 1.5796e-05
21930.0 1.5731e-05
21950.0 1.5665e-05
21970.0 1.5598e-05
21990.0 1.5532e-05
22010.0 1.5463e-05
22030.0 1.5392e-05
22050.0 1.5321e-05
22070.0 1.5247e-05
22090.0 1.517e-05
22110.0 1.5092e-05
22130.0 1.5011e-05
22150.0 1.4929e-05
22170.0 1.4844e-05
22190.0 1.4757e-05
22210.0 1.4667e-05
22230.0 1.4576e-05
22250.0 1.4482e-05
22270.0 1.4386e-05
22290.0 1.4288e-05
22310.0 1.4188e-05
22330.0 1.4083e-05
22350.0 1.3975e-05
22370.0 1.3864e-05
22390.0 1.3748e-05
22410.0 1.3624e-05
22430.0 1.3498e-05
22450.0 1.3366e-05
22470.0 1.3225e-05
22490.0 1.3078e-05
22510.0 1.2928e-05
22530.0 1.2768e-05
22550.0 1.2598e-05
22570.0 1.2428e-05
22590.0 1.2252e-05
22610.0 1.2068e-05
22630.0 1.1882e-05
22650.0 1.17e-05
