#lamb flux
1010.0 1.3009e-08
1030.0 1.4388e-08
1050.0 1.5975e-08
1070.0 1.776e-08
1090.0 1.9788e-08
1110.0 2.1869e-08
1130.0 2.3962e-08
1150.0 2.6155e-08
1170.0 2.8418e-08
1190.0 3.0563e-08
1210.0 3.2737e-08
1230.0 3.4984e-08
1250.0 3.7185e-08
1270.0 3.9323e-08
1290.0 4.1581e-08
1310.0 4.3839e-08
1330.0 4.6003e-08
1350.0 4.8192e-08
1370.0 5.0452e-08
1390.0 5.2656e-08
1410.0 5.4794e-08
1430.0 5.7029e-08
1450.0 5.9264e-08
1470.0 6.1425e-08
1490.0 6.3608e-08
1510.0 6.5915e-08
1530.0 6.8102e-08
1550.0 7.0259e-08
1570.0 7.249e-08
1590.0 7.4725e-08
1610.0 7.6861e-08
1630.0 7.9063e-08
1650.0 8.1325e-08
1670.0 8.3513e-08
1690.0 8.5675e-08
1710.0 8.7922e-08
1730.0 9.0184e-08
1750.0 9.2312e-08
1770.0 9.4505e-08
1790.0 9.6745e-08
1810.0 9.8916e-08
1830.0 1.0105e-07
1850.0 1.0332e-07
1870.0 1.0554e-07
1890.0 1.0768e-07
1910.0 1.0988e-07
1930.0 1.1213e-07
1950.0 1.1428e-07
1970.0 1.1641e-07
1990.0 1.1862e-07
2010.0 1.2081e-07
2030.0 1.2292e-07
2050.0 1.251e-07
2070.0 1.2734e-07
2090.0 1.2946e-07
2110.0 1.3158e-07
2130.0 1.3376e-07
2150.0 1.3591e-07
2170.0 1.3797e-07
2190.0 1.4011e-07
2210.0 1.4227e-07
2230.0 1.4434e-07
2250.0 1.4641e-07
2270.0 1.4857e-07
2290.0 1.5067e-07
2310.0 1.5269e-07
2330.0 1.5479e-07
2350.0 1.5694e-07
2370.0 1.5909e-07
2390.0 1.6141e-07
2410.0 1.6417e-07
2430.0 1.6734e-07
2450.0 1.7112e-07
2470.0 1.7597e-07
2490.0 1.8209e-07
2510.0 1.8904e-07
2530.0 1.9741e-07
2550.0 2.0788e-07
2570.0 2.2091e-07
2590.0 2.3786e-07
2610.0 2.6324e-07
2630.0 2.9946e-07
2650.0 3.4684e-07
2670.0 4.0808e-07
2690.0 4.8335e-07
2710.0 5.6369e-07
2730.0 6.4308e-07
2750.0 7.2127e-07
2770.0 7.8929e-07
2790.0 8.433e-07
2810.0 8.8616e-07
2830.0 9.1965e-07
2850.0 9.425e-07
2870.0 9.5928e-07
2890.0 9.7257e-07
2910.0 9.8317e-07
2930.0 9.9183e-07
2950.0 1.0001e-06
2970.0 1.0082e-06
2990.0 1.0158e-06
3010.0 2.8711e-05
3030.0 2.8926e-05
3050.0 2.9133e-05
3070.0 2.9311e-05
3090.0 2.9464e-05
3110.0 2.9559e-05
3130.0 2.9555e-05
3150.0 2.9424e-05
3170.0 2.9108e-05
3190.0 2.8613e-05
3210.0 2.7986e-05
3230.0 2.7267e-05
3250.0 2.6558e-05
3270.0 2.604e-05
3290.0 2.5753e-05
3310.0 2.5799e-05
3330.0 2.6173e-05
3350.0 2.6823e-05
3370.0 2.7751e-05
3390.0 2.8921e-05
3410.0 3.0195e-05
3430.0 3.1624e-05
3450.0 3.327e-05
3470.0 3.5067e-05
3490.0 3.6971e-05
3510.0 3.9124e-05
3530.0 4.1429e-05
3550.0 4.3763e-05
3570.0 4.6198e-05
3590.0 4.8846e-05
3610.0 5.1574e-05
3630.0 5.4294e-05
3650.0 5.7116e-05
3670.0 5.9692e-05
3690.0 6.1618e-05
3710.0 6.2722e-05
3730.0 6.2758e-05
3750.0 6.1885e-05
3770.0 6.1542e-05
3790.0 6.1176e-05
3810.0 5.9673e-05
3830.0 6.152e-05
3850.0 6.8786e-05
3870.0 7.2775e-05
3890.0 7.2443e-05
3910.0 7.2752e-05
3930.0 7.4667e-05
3950.0 7.5846e-05
3970.0 6.9103e-05
3990.0 5.946e-05
4010.0 0.00017821
4030.0 0.00021593
4050.0 0.00024755
4070.0 0.00021479
4090.0 0.00019453
4110.0 0.00017166
4130.0 0.00015799
4150.0 0.00016805
4170.0 0.00016554
4190.0 0.00017646
4210.0 0.00017484
4230.0 0.00018494
4250.0 0.00021878
4270.0 0.00022135
4290.0 0.00020398
4310.0 0.00021195
4330.0 0.00022545
4350.0 0.00025278
4370.0 0.00028767
4390.0 0.00026995
4410.0 0.00019944
4430.0 0.00016884
4450.0 0.00015515
4470.0 0.00011908
4490.0 0.0001285
4510.0 0.00019411
4530.0 0.00022386
4550.0 0.0002258
4570.0 0.00025409
4590.0 0.00028943
4610.0 0.00039037
4630.0 0.00050701
4650.0 0.00054985
4670.0 0.00050921
4690.0 0.00048588
4710.0 0.00051361
4730.0 0.0004847
4750.0 0.00036238
4770.0 0.00026582
4790.0 0.00024822
4810.0 0.00023659
4830.0 0.0002166
4850.0 0.00023768
4870.0 0.000314
4890.0 0.00037029
4910.0 0.00032489
4930.0 0.00028748
4950.0 0.00031584
4970.0 0.00040504
4990.0 0.00054893
5010.0 0.00063147
5030.0 0.00055681
5050.0 0.00037672
5070.0 0.00024827
5090.0 0.00020019
5110.0 0.00020588
5130.0 0.00023762
5150.0 0.00025744
5170.0 0.00025358
5190.0 0.00023695
5210.0 0.00024767
5230.0 0.00026036
5250.0 0.00028059
5270.0 0.00030274
5290.0 0.0003355
5310.0 0.00039051
5330.0 0.00043215
5350.0 0.0004294
5370.0 0.00045104
5390.0 0.00051758
5410.0 0.00051712
5430.0 0.00045732
5450.0 0.00042017
5470.0 0.00044615
5490.0 0.00054507
5510.0 0.00068153
5530.0 0.00078168
5550.0 0.00075551
5570.0 0.00068682
5590.0 0.0005972
5610.0 0.00055075
5630.0 0.00053406
5650.0 0.00050864
5670.0 0.00048198
5690.0 0.00043089
5710.0 0.00042013
5730.0 0.000387
5750.0 0.00027286
5770.0 0.00021288
5790.0 0.00024123
5810.0 0.0002724
5830.0 0.00033427
5850.0 0.00039791
5870.0 0.00044149
5890.0 0.00044897
5910.0 0.00044047
5930.0 0.00041928
5950.0 0.00042724
5970.0 0.00048701
5990.0 0.00045792
6010.0 0.00038387
6030.0 0.00032432
6050.0 0.00028244
6070.0 0.00028089
6090.0 0.00030458
6110.0 0.00034057
6130.0 0.00034579
6150.0 0.00029752
6170.0 0.00026173
6190.0 0.00029454
6210.0 0.00038937
6230.0 0.00051097
6250.0 0.00055345
6270.0 0.00048364
6290.0 0.00040691
6310.0 0.00031766
6330.0 0.00024339
6350.0 0.0002171
6370.0 0.0002283
6390.0 0.00026393
6410.0 0.00032544
6430.0 0.00038002
6450.0 0.00043484
6470.0 0.00049791
6490.0 0.00060144
6510.0 0.00067249
6530.0 0.00065975
6550.0 0.00059659
6570.0 0.00050645
6590.0 0.00045668
6610.0 0.00039378
6630.0 0.00035675
6650.0 0.00033723
6670.0 0.00032761
6690.0 0.00029601
6710.0 0.00026908
6730.0 0.00019381
6750.0 0.00019215
6770.0 0.00020885
6790.0 0.00024006
6810.0 0.00021966
6830.0 0.00022619
6850.0 0.00021156
6870.0 0.00019326
6890.0 0.00018556
6910.0 0.00019773
6930.0 0.00018521
6950.0 0.00019055
6970.0 0.00020042
6990.0 0.00022749
7010.0 0.00022943
7030.0 0.00023308
7050.0 0.00022227
7070.0 0.00021179
7090.0 0.00021241
7110.0 0.00021855
7130.0 0.0002352
7150.0 0.0002498
7170.0 0.00027563
7190.0 0.000303
7210.0 0.00029774
7230.0 0.00030608
7250.0 0.00032893
7270.0 0.00035845
7290.0 0.00042545
7310.0 0.00046165
7330.0 0.00044622
7350.0 0.00040358
7370.0 0.00035115
7390.0 0.00034066
7410.0 0.00036202
7430.0 0.00040234
7450.0 0.00043822
7470.0 0.0004342
7490.0 0.0003959
7510.0 0.00044846
7530.0 0.00044355
7550.0 0.00039867
7570.0 0.00031144
7590.0 0.0002141
7610.0 0.00018376
7630.0 0.00020879
7650.0 0.00024686
7670.0 0.00030724
7690.0 0.00033809
7710.0 0.00035234
7730.0 0.00037026
7750.0 0.00041566
7770.0 0.00042219
7790.0 0.0003878
7810.0 0.00035385
7830.0 0.0003649
7850.0 0.00035471
7870.0 0.00032521
7890.0 0.00027324
7910.0 0.00022211
7930.0 0.00021208
7950.0 0.00019321
7970.0 0.00017885
7990.0 0.00017783
8010.0 1.3171e-05
8030.0 1.2999e-05
8050.0 1.2824e-05
8070.0 1.2992e-05
8090.0 1.3959e-05
8110.0 1.3722e-05
8130.0 1.1319e-05
8150.0 1.1023e-05
8170.0 9.4947e-06
8190.0 8.9983e-06
8210.0 1.1685e-05
8230.0 1.301e-05
8250.0 1.1726e-05
8270.0 1.0206e-05
8290.0 9.9486e-06
8310.0 7.6568e-06
8330.0 5.1607e-06
8350.0 3.6625e-06
8370.0 2.3075e-06
8390.0 4.2181e-06
8410.0 4.9152e-06
8430.0 6.0588e-06
8450.0 7.1146e-06
8470.0 8.843e-06
8490.0 8.7807e-06
8510.0 8.6371e-06
8530.0 9.014e-06
8550.0 1.2162e-05
8570.0 1.4398e-05
8590.0 1.5535e-05
8610.0 1.9624e-05
8630.0 2.364e-05
8650.0 2.473e-05
8670.0 2.628e-05
8690.0 2.6428e-05
8710.0 2.3934e-05
8730.0 2.2262e-05
8750.0 1.9651e-05
8770.0 1.8645e-05
8790.0 1.8318e-05
8810.0 1.7553e-05
8830.0 1.4036e-05
8850.0 1.0275e-05
8870.0 7.8678e-06
8890.0 7.692e-06
8910.0 8.8152e-06
8930.0 1.0027e-05
8950.0 1.0219e-05
8970.0 1.0267e-05
8990.0 9.1569e-06
9010.0 9.5959e-05
9030.0 8.6951e-05
9050.0 8.7371e-05
9070.0 8.806e-05
9090.0 8.8665e-05
9110.0 8.9412e-05
9130.0 8.9988e-05
9150.0 9.0437e-05
9170.0 9.0914e-05
9190.0 9.1424e-05
9210.0 9.1961e-05
9230.0 9.2528e-05
9250.0 9.3104e-05
9270.0 9.3701e-05
9290.0 9.4316e-05
9310.0 9.4936e-05
9330.0 9.5567e-05
9350.0 9.6222e-05
9370.0 9.6885e-05
9390.0 9.7554e-05
9410.0 9.8243e-05
9430.0 9.8952e-05
9450.0 9.9659e-05
9470.0 0.00010038
9490.0 0.00010112
9510.0 0.00010187
9530.0 0.00010263
9550.0 0.00010341
9570.0 0.0001042
9590.0 0.000105
9610.0 0.00010581
9630.0 0.00010664
9650.0 0.00010748
9670.0 0.00010832
9690.0 0.00010919
9710.0 0.00011006
9730.0 0.00011094
9750.0 0.00011183
9770.0 0.00011275
9790.0 0.00011367
9810.0 0.00011459
9830.0 0.00011553
9850.0 0.00011648
9870.0 0.00011743
9890.0 0.0001184
9910.0 0.00011938
9930.0 0.00012036
9950.0 0.00012135
9970.0 0.00012236
9990.0 0.00012337
10010.0 0.00010706
10030.0 0.00010793
10050.0 0.00010883
10070.0 0.00010976
10090.0 0.00011063
10110.0 0.00011153
10130.0 0.00011243
10150.0 0.00011332
10170.0 0.00011423
10190.0 0.00011516
10210.0 0.00011607
10230.0 0.00011698
10250.0 0.0001179
10270.0 0.00011882
10290.0 0.00011974
10310.0 0.00012066
10330.0 0.00012159
10350.0 0.00012251
10370.0 0.00012342
10390.0 0.00012435
10410.0 0.00012527
10430.0 0.00012617
10450.0 0.00012708
10470.0 0.00012799
10490.0 0.00012889
10510.0 0.00012978
10530.0 0.00013069
10550.0 0.00013158
10570.0 0.00013246
10590.0 0.00013333
10610.0 0.00013421
10630.0 0.00013506
10650.0 0.00013591
10670.0 0.00013677
10690.0 0.00013761
10710.0 0.00013843
10730.0 0.00013926
10750.0 0.00014008
10770.0 0.00014087
10790.0 0.00014166
10810.0 0.00014244
10830.0 0.0001432
10850.0 0.00014392
10870.0 0.00014462
10890.0 0.00014524
10910.0 0.00014571
10930.0 0.00014598
10950.0 0.00014592
10970.0 0.00014542
10990.0 0.00014445
11010.0 0.00014283
11030.0 0.00014056
11050.0 0.00013779
11070.0 0.00013448
11090.0 0.0001305
11110.0 0.00012638
11130.0 0.00012209
11150.0 0.00011747
11170.0 0.0001127
11190.0 0.00010808
11210.0 0.00010331
11230.0 9.8415e-05
11250.0 9.3738e-05
11270.0 8.9247e-05
11290.0 8.4748e-05
11310.0 8.0486e-05
11330.0 7.6732e-05
11350.0 7.3187e-05
11370.0 6.991e-05
11390.0 6.7075e-05
11410.0 6.4595e-05
11430.0 6.2291e-05
11450.0 6.0305e-05
11470.0 5.8588e-05
11490.0 5.6991e-05
11510.0 5.5452e-05
11530.0 5.4023e-05
11550.0 5.2604e-05
11570.0 5.109e-05
11590.0 4.9523e-05
11610.0 4.7927e-05
11630.0 4.619e-05
11650.0 4.4331e-05
11670.0 4.2498e-05
11690.0 4.064e-05
11710.0 3.8723e-05
11730.0 3.6865e-05
11750.0 3.5146e-05
11770.0 3.346e-05
11790.0 3.188e-05
11810.0 3.0489e-05
11830.0 2.9245e-05
11850.0 2.8099e-05
11870.0 2.714e-05
11890.0 2.6344e-05
11910.0 2.5644e-05
11930.0 2.5042e-05
11950.0 2.4541e-05
11970.0 2.4093e-05
11990.0 2.367e-05
12010.0 2.3278e-05
12030.0 2.2901e-05
12050.0 2.2511e-05
12070.0 2.2105e-05
12090.0 2.1714e-05
12110.0 2.1317e-05
12130.0 2.0919e-05
12150.0 2.0552e-05
12170.0 2.0232e-05
12190.0 1.9955e-05
12210.0 1.9762e-05
12230.0 1.9669e-05
12250.0 1.9684e-05
12270.0 1.9832e-05
12290.0 2.0113e-05
12310.0 2.0515e-05
12330.0 2.1078e-05
12350.0 2.1781e-05
12370.0 2.2581e-05
12390.0 2.3504e-05
12410.0 2.4585e-05
12430.0 2.5683e-05
12450.0 2.6821e-05
12470.0 2.8031e-05
12490.0 2.9246e-05
12510.0 3.0386e-05
12530.0 3.152e-05
12550.0 3.2613e-05
12570.0 3.3579e-05
12590.0 3.4427e-05
12610.0 3.5182e-05
12630.0 3.5785e-05
12650.0 3.62e-05
12670.0 3.6473e-05
12690.0 3.6583e-05
12710.0 3.6523e-05
12730.0 3.6311e-05
12750.0 3.5933e-05
12770.0 3.5415e-05
12790.0 3.4786e-05
12810.0 3.4036e-05
12830.0 3.3167e-05
12850.0 3.2259e-05
12870.0 3.1299e-05
12890.0 3.026e-05
12910.0 2.9203e-05
12930.0 2.8162e-05
12950.0 2.7076e-05
12970.0 2.597e-05
12990.0 2.4924e-05
13010.0 2.3891e-05
13030.0 2.2847e-05
13050.0 2.1843e-05
13070.0 2.0903e-05
13090.0 1.996e-05
13110.0 1.9048e-05
13130.0 1.8206e-05
13150.0 1.7409e-05
13170.0 1.6629e-05
13190.0 1.5935e-05
13210.0 1.5324e-05
13230.0 1.4766e-05
13250.0 1.4285e-05
13270.0 1.3906e-05
13290.0 1.361e-05
13310.0 1.3407e-05
13330.0 1.3315e-05
13350.0 1.3325e-05
13370.0 1.3445e-05
13390.0 1.368e-05
13410.0 1.3997e-05
13430.0 1.441e-05
13450.0 1.4919e-05
13470.0 1.5485e-05
13490.0 1.6084e-05
13510.0 1.6759e-05
13530.0 1.7444e-05
13550.0 1.81e-05
13570.0 1.8746e-05
13590.0 1.9376e-05
13610.0 1.9937e-05
13630.0 2.0426e-05
13650.0 2.0872e-05
13670.0 2.1243e-05
13690.0 2.153e-05
13710.0 2.1752e-05
13730.0 2.191e-05
13750.0 2.1989e-05
13770.0 2.2007e-05
13790.0 2.1967e-05
13810.0 2.187e-05
13830.0 2.1727e-05
13850.0 2.1533e-05
13870.0 2.1288e-05
13890.0 2.1008e-05
13910.0 2.0693e-05
13930.0 2.0327e-05
13950.0 1.9929e-05
13970.0 1.9521e-05
13990.0 1.9077e-05
14010.0 1.8605e-05
14030.0 1.8134e-05
14050.0 1.7659e-05
14070.0 1.7158e-05
14090.0 1.6678e-05
14110.0 1.6226e-05
14130.0 1.5789e-05
14150.0 1.5377e-05
14170.0 1.5026e-05
14190.0 1.4722e-05
14210.0 1.4464e-05
14230.0 1.4273e-05
14250.0 1.415e-05
14270.0 1.409e-05
14290.0 1.4103e-05
14310.0 1.4182e-05
14330.0 1.4323e-05
14350.0 1.453e-05
14370.0 1.4789e-05
14390.0 1.5083e-05
14410.0 1.5429e-05
14430.0 1.5809e-05
14450.0 1.6198e-05
14470.0 1.66e-05
14490.0 1.7029e-05
14510.0 1.7438e-05
14530.0 1.7827e-05
14550.0 1.8216e-05
14570.0 1.859e-05
14590.0 1.8929e-05
14610.0 1.9258e-05
14630.0 1.9583e-05
14650.0 1.9886e-05
14670.0 2.0179e-05
14690.0 2.0484e-05
14710.0 2.0805e-05
14730.0 2.1125e-05
14750.0 2.1481e-05
14770.0 2.1884e-05
14790.0 2.2321e-05
14810.0 2.2794e-05
14830.0 2.3355e-05
14850.0 2.3964e-05
14870.0 2.46e-05
14890.0 2.5287e-05
14910.0 2.6015e-05
14930.0 2.6716e-05
14950.0 2.7371e-05
14970.0 2.7991e-05
14990.0 2.8511e-05
15010.0 2.8908e-05
15030.0 2.9203e-05
15050.0 2.9398e-05
15070.0 2.9493e-05
15090.0 2.9526e-05
15110.0 2.9516e-05
15130.0 2.9479e-05
15150.0 2.9429e-05
15170.0 2.937e-05
15190.0 2.9307e-05
15210.0 2.9245e-05
15230.0 2.9183e-05
15250.0 2.9118e-05
15270.0 2.9055e-05
15290.0 2.8994e-05
15310.0 2.8932e-05
15330.0 2.887e-05
15350.0 2.8809e-05
15370.0 2.875e-05
15390.0 2.8687e-05
15410.0 2.8626e-05
15430.0 2.8568e-05
15450.0 2.8508e-05
15470.0 2.8446e-05
15490.0 2.8389e-05
15510.0 2.8331e-05
15530.0 2.8271e-05
15550.0 2.8212e-05
15570.0 2.8156e-05
15590.0 2.8097e-05
15610.0 2.8037e-05
15630.0 2.7981e-05
15650.0 2.7924e-05
15670.0 2.7866e-05
15690.0 2.7809e-05
15710.0 2.7754e-05
15730.0 2.7696e-05
15750.0 2.7639e-05
15770.0 2.7583e-05
15790.0 2.7528e-05
15810.0 2.7469e-05
15830.0 2.7414e-05
15850.0 2.7359e-05
15870.0 2.7303e-05
15890.0 2.7247e-05
15910.0 2.7193e-05
15930.0 2.7138e-05
15950.0 2.708e-05
15970.0 2.7025e-05
15990.0 2.6971e-05
16010.0 2.6915e-05
16030.0 2.6859e-05
16050.0 2.6806e-05
16070.0 2.6751e-05
16090.0 2.6695e-05
16110.0 2.6641e-05
16130.0 2.6587e-05
16150.0 2.653e-05
16170.0 2.6475e-05
16190.0 2.6421e-05
16210.0 2.6366e-05
16230.0 2.631e-05
16250.0 2.6256e-05
16270.0 2.6203e-05
16290.0 2.6147e-05
16310.0 2.6091e-05
16330.0 2.6038e-05
16350.0 2.5983e-05
16370.0 2.5925e-05
16390.0 2.5871e-05
16410.0 2.5817e-05
16430.0 2.5761e-05
16450.0 2.5705e-05
16470.0 2.5652e-05
16490.0 2.5596e-05
16510.0 2.5539e-05
16530.0 2.5484e-05
16550.0 2.543e-05
16570.0 2.5372e-05
16590.0 2.5316e-05
16610.0 2.5262e-05
16630.0 2.5206e-05
16650.0 2.5149e-05
16670.0 2.5094e-05
16690.0 2.5039e-05
16710.0 2.498e-05
16730.0 2.4923e-05
16750.0 2.4868e-05
16770.0 2.4811e-05
16790.0 2.4752e-05
16810.0 2.4697e-05
16830.0 2.4641e-05
16850.0 2.4582e-05
16870.0 2.4525e-05
16890.0 2.4469e-05
16910.0 2.441e-05
16930.0 2.4351e-05
16950.0 2.4294e-05
16970.0 2.4237e-05
16990.0 2.4177e-05
17010.0 2.4119e-05
17030.0 2.4063e-05
17050.0 2.4003e-05
17070.0 2.3943e-05
17090.0 2.3886e-05
17110.0 2.3827e-05
17130.0 2.3765e-05
17150.0 2.3706e-05
17170.0 2.3648e-05
17190.0 2.3588e-05
17210.0 2.3528e-05
17230.0 2.347e-05
17250.0 2.341e-05
17270.0 2.3347e-05
17290.0 2.3287e-05
17310.0 2.3228e-05
17330.0 2.3166e-05
17350.0 2.3104e-05
17370.0 2.3045e-05
17390.0 2.2984e-05
17410.0 2.2921e-05
17430.0 2.286e-05
17450.0 2.2801e-05
17470.0 2.2736e-05
17490.0 2.2674e-05
17510.0 2.2613e-05
17530.0 2.2551e-05
17550.0 2.2487e-05
17570.0 2.2425e-05
17590.0 2.2364e-05
17610.0 2.23e-05
17630.0 2.2236e-05
17650.0 2.2175e-05
17670.0 2.2111e-05
17690.0 2.2045e-05
17710.0 2.1983e-05
17730.0 2.192e-05
17750.0 2.1855e-05
17770.0 2.1791e-05
17790.0 2.1729e-05
17810.0 2.1664e-05
17830.0 2.1598e-05
17850.0 2.1535e-05
17870.0 2.1471e-05
17890.0 2.1404e-05
17910.0 2.1339e-05
17930.0 2.1276e-05
17950.0 2.121e-05
17970.0 2.1144e-05
17990.0 2.108e-05
18010.0 2.1016e-05
18030.0 2.0947e-05
18050.0 2.0882e-05
18070.0 2.0817e-05
18090.0 2.0751e-05
18110.0 2.0683e-05
18130.0 2.0619e-05
18150.0 2.0553e-05
18170.0 2.0486e-05
18190.0 2.0419e-05
18210.0 2.0354e-05
18230.0 2.0286e-05
18250.0 2.0218e-05
18270.0 2.0153e-05
18290.0 2.0086e-05
18310.0 2.0018e-05
18330.0 1.9951e-05
18350.0 1.9886e-05
18370.0 1.9817e-05
18390.0 1.9749e-05
18410.0 1.9683e-05
18430.0 1.9616e-05
18450.0 1.9546e-05
18470.0 1.9479e-05
18490.0 1.9413e-05
18510.0 1.9344e-05
18530.0 1.9276e-05
18550.0 1.921e-05
18570.0 1.9142e-05
18590.0 1.9072e-05
18610.0 1.9004e-05
18630.0 1.8937e-05
18650.0 1.8868e-05
18670.0 1.8798e-05
18690.0 1.8732e-05
18710.0 1.8664e-05
18730.0 1.8595e-05
18750.0 1.8527e-05
18770.0 1.846e-05
18790.0 1.8389e-05
18810.0 1.832e-05
18830.0 1.8253e-05
18850.0 1.8185e-05
18870.0 1.8115e-05
18890.0 1.8047e-05
18910.0 1.798e-05
18930.0 1.791e-05
18950.0 1.7841e-05
18970.0 1.7774e-05
18990.0 1.7705e-05
19010.0 1.7633e-05
19030.0 1.7566e-05
19050.0 1.7498e-05
19070.0 1.7429e-05
19090.0 1.736e-05
19110.0 1.7293e-05
19130.0 1.7223e-05
19150.0 1.7153e-05
19170.0 1.7085e-05
19190.0 1.7017e-05
19210.0 1.6947e-05
19230.0 1.6878e-05
19250.0 1.6811e-05
19270.0 1.6742e-05
19290.0 1.6672e-05
19310.0 1.6605e-05
19330.0 1.6537e-05
19350.0 1.6466e-05
19370.0 1.6397e-05
19390.0 1.633e-05
19410.0 1.626e-05
19430.0 1.619e-05
19450.0 1.6124e-05
19470.0 1.6056e-05
19490.0 1.5986e-05
19510.0 1.5917e-05
19530.0 1.585e-05
19550.0 1.578e-05
19570.0 1.571e-05
19590.0 1.5643e-05
19610.0 1.5575e-05
19630.0 1.5506e-05
19650.0 1.5438e-05
19670.0 1.5371e-05
19690.0 1.5302e-05
19710.0 1.5233e-05
19730.0 1.5166e-05
19750.0 1.5098e-05
19770.0 1.5027e-05
19790.0 1.496e-05
19810.0 1.4893e-05
19830.0 1.4823e-05
19850.0 1.4754e-05
19870.0 1.4686e-05
19890.0 1.4612e-05
19910.0 1.4532e-05
19930.0 1.4445e-05
19950.0 1.4347e-05
19970.0 1.4225e-05
19990.0 1.4079e-05
20010.0 1.2526e-05
20030.0 1.2345e-05
20050.0 1.2133e-05
20070.0 1.1903e-05
20090.0 1.1656e-05
20110.0 1.1376e-05
20130.0 1.1093e-05
20150.0 1.0812e-05
20170.0 1.0521e-05
20190.0 1.0226e-05
20210.0 9.947e-06
20230.0 9.6752e-06
20250.0 9.4027e-06
20270.0 9.1498e-06
20290.0 8.9189e-06
20310.0 8.6995e-06
20330.0 8.4945e-06
20350.0 8.3243e-06
20370.0 8.1732e-06
20390.0 8.0407e-06
20410.0 7.9337e-06
20430.0 7.8512e-06
20450.0 7.7859e-06
20470.0 7.7421e-06
20490.0 7.7186e-06
20510.0 7.7118e-06
20530.0 7.7213e-06
20550.0 7.7452e-06
20570.0 7.7798e-06
20590.0 7.8268e-06
20610.0 7.8837e-06
20630.0 7.9463e-06
20650.0 8.0164e-06
20670.0 8.0965e-06
20690.0 8.1781e-06
20710.0 8.2625e-06
20730.0 8.3536e-06
20750.0 8.4486e-06
20770.0 8.5421e-06
20790.0 8.6403e-06
20810.0 8.7441e-06
20830.0 8.8475e-06
20850.0 8.9513e-06
20870.0 9.0624e-06
20890.0 9.1757e-06
20910.0 9.2851e-06
20930.0 9.3985e-06
20950.0 9.516e-06
20970.0 9.6306e-06
20990.0 9.7437e-06
21010.0 9.8625e-06
21030.0 9.9788e-06
21050.0 1.009e-05
21070.0 1.02e-05
21090.0 1.0311e-05
21110.0 1.0413e-05
21130.0 1.0508e-05
21150.0 1.06e-05
21170.0 1.0684e-05
21190.0 1.0755e-05
21210.0 1.082e-05
21230.0 1.0874e-05
21250.0 1.0912e-05
21270.0 1.0936e-05
21290.0 1.0945e-05
21310.0 1.0937e-05
21330.0 1.0911e-05
21350.0 1.0866e-05
21370.0 1.0799e-05
21390.0 1.0715e-05
21410.0 1.0611e-05
21430.0 1.048e-05
21450.0 1.0333e-05
21470.0 1.0172e-05
21490.0 9.991e-06
21510.0 9.7921e-06
21530.0 9.59e-06
21550.0 9.3783e-06
21570.0 9.1525e-06
21590.0 8.9305e-06
21610.0 8.7159e-06
21630.0 8.5011e-06
21650.0 8.2913e-06
21670.0 8.1094e-06
21690.0 7.9417e-06
21710.0 7.7906e-06
21730.0 7.6668e-06
21750.0 7.5714e-06
21770.0 7.4986e-06
21790.0 7.4568e-06
21810.0 7.4452e-06
21830.0 7.4617e-06
21850.0 7.5084e-06
21870.0 7.5811e-06
21890.0 7.6751e-06
21910.0 7.7956e-06
21930.0 7.9369e-06
21950.0 8.0901e-06
21970.0 8.2597e-06
21990.0 8.4501e-06
22010.0 8.6404e-06
22030.0 8.8337e-06
22050.0 9.0367e-06
22070.0 9.2407e-06
22090.0 9.434e-06
22110.0 9.6288e-06
22130.0 9.8233e-06
22150.0 1.0005e-05
22170.0 1.0176e-05
22190.0 1.0346e-05
22210.0 1.0504e-05
22230.0 1.0643e-05
22250.0 1.0774e-05
22270.0 1.0894e-05
22290.0 1.0997e-05
22310.0 1.1086e-05
22330.0 1.1163e-05
22350.0 1.1224e-05
22370.0 1.1266e-05
22390.0 1.1293e-05
22410.0 1.1301e-05
22430.0 1.129e-05
22450.0 1.1261e-05
22470.0 1.1211e-05
22490.0 1.114e-05
22510.0 1.1052e-05
22530.0 1.094e-05
22550.0 1.0803e-05
22570.0 1.0651e-05
22590.0 1.048e-05
22610.0 1.0283e-05
22630.0 1.0069e-05
