#lamb flux
1010.0 5.1052e-11
1030.0 6.4213e-11
1050.0 7.9347e-11
1070.0 9.6384e-11
1090.0 1.1574e-10
1110.0 1.3559e-10
1130.0 1.5556e-10
1150.0 1.7649e-10
1170.0 1.9808e-10
1190.0 2.1855e-10
1210.0 2.3929e-10
1230.0 2.6073e-10
1250.0 2.8174e-10
1270.0 3.0214e-10
1290.0 3.2369e-10
1310.0 3.4523e-10
1330.0 3.6589e-10
1350.0 3.8678e-10
1370.0 4.0834e-10
1390.0 4.2937e-10
1410.0 4.4977e-10
1430.0 4.711e-10
1450.0 4.9243e-10
1470.0 5.1305e-10
1490.0 5.3389e-10
1510.0 5.559e-10
1530.0 5.7676e-10
1550.0 5.9735e-10
1570.0 6.1865e-10
1590.0 6.3998e-10
1610.0 6.6037e-10
1630.0 6.814e-10
1650.0 7.03e-10
1670.0 7.239e-10
1690.0 7.4456e-10
1710.0 7.6603e-10
1730.0 7.8764e-10
1750.0 8.08e-10
1770.0 8.2898e-10
1790.0 8.5042e-10
1810.0 8.7121e-10
1830.0 8.9169e-10
1850.0 9.1346e-10
1870.0 9.3473e-10
1890.0 9.5534e-10
1910.0 9.7642e-10
1930.0 9.9808e-10
1950.0 1.0188e-09
1970.0 1.0394e-09
1990.0 1.0608e-09
2010.0 1.082e-09
2030.0 1.1025e-09
2050.0 1.1238e-09
2070.0 1.1456e-09
2090.0 1.1664e-09
2110.0 1.1871e-09
2130.0 1.2087e-09
2150.0 1.2299e-09
2170.0 1.2504e-09
2190.0 1.2718e-09
2210.0 1.2934e-09
2230.0 1.3143e-09
2250.0 1.3354e-09
2270.0 1.3574e-09
2290.0 1.379e-09
2310.0 1.4e-09
2330.0 1.4217e-09
2350.0 1.4437e-09
2370.0 1.465e-09
2390.0 1.4866e-09
2410.0 1.5093e-09
2430.0 1.5318e-09
2450.0 1.5546e-09
2470.0 1.58e-09
2490.0 1.6094e-09
2510.0 1.6435e-09
2530.0 1.6875e-09
2550.0 1.7486e-09
2570.0 1.8306e-09
2590.0 1.9391e-09
2610.0 2.0942e-09
2630.0 2.2999e-09
2650.0 2.5515e-09
2670.0 2.8621e-09
2690.0 3.2383e-09
2710.0 3.6506e-09
2730.0 4.0842e-09
2750.0 4.5535e-09
2770.0 5.0193e-09
2790.0 5.4525e-09
2810.0 5.8594e-09
2830.0 6.2405e-09
2850.0 6.5607e-09
2870.0 6.8441e-09
2890.0 7.108e-09
2910.0 7.3546e-09
2930.0 7.5885e-09
2950.0 7.8289e-09
2970.0 8.0787e-09
2990.0 8.3338e-09
3010.0 8.5996e-09
3030.0 8.8834e-09
3050.0 9.1806e-09
3070.0 9.4831e-09
3090.0 9.8036e-09
3110.0 1.0145e-08
3130.0 1.051e-08
3150.0 1.0926e-08
3170.0 1.1457e-08
3190.0 1.2148e-08
3210.0 1.3052e-08
3230.0 1.4256e-08
3250.0 1.5784e-08
3270.0 1.7239e-08
3290.0 1.9548e-08
3310.0 2.4277e-08
3330.0 2.5848e-08
3350.0 2.6621e-08
3370.0 2.7364e-08
3390.0 2.8119e-08
3410.0 2.8883e-08
3430.0 2.9652e-08
3450.0 3.0421e-08
3470.0 3.1177e-08
3490.0 3.1906e-08
3510.0 3.2566e-08
3530.0 3.2276e-08
3550.0 3.1384e-08
3570.0 3.1846e-08
3590.0 3.3855e-08
3610.0 3.6898e-08
3630.0 3.8109e-08
3650.0 3.6604e-08
3670.0 3.3619e-08
3690.0 3.1883e-08
3710.0 3.2285e-08
3730.0 3.3348e-08
3750.0 3.3919e-08
3770.0 3.5061e-08
3790.0 3.6337e-08
3810.0 3.5822e-08
3830.0 3.3385e-08
3850.0 3.1204e-08
3870.0 3.0168e-08
3890.0 2.9824e-08
3910.0 2.9155e-08
3930.0 2.8818e-08
3950.0 2.963e-08
3970.0 3.0581e-08
3990.0 3.0857e-08
4010.0 2.9724e-08
4030.0 2.8106e-08
4050.0 2.7067e-08
4070.0 2.6187e-08
4090.0 2.5475e-08
4110.0 2.4544e-08
4130.0 2.3076e-08
4150.0 2.16e-08
4170.0 2.0724e-08
4190.0 1.9325e-08
4210.0 1.7495e-08
4230.0 1.5642e-08
4250.0 1.3883e-08
4270.0 1.257e-08
4290.0 1.1599e-08
4310.0 1.1085e-08
4330.0 1.1066e-08
4350.0 1.1121e-08
4370.0 1.1227e-08
4390.0 1.1642e-08
4410.0 1.1929e-08
4430.0 1.1516e-08
4450.0 1.0456e-08
4470.0 9.5293e-09
4490.0 9.0256e-09
4510.0 8.7019e-09
4530.0 8.5401e-09
4550.0 8.4013e-09
4570.0 8.3659e-09
4590.0 8.4808e-09
4610.0 8.7411e-09
4630.0 8.8963e-09
4650.0 8.9729e-09
4670.0 8.7547e-09
4690.0 8.2338e-09
4710.0 7.7149e-09
4730.0 7.3787e-09
4750.0 7.1723e-09
4770.0 7.1981e-09
4790.0 7.17e-09
4810.0 7.0162e-09
4830.0 7.0303e-09
4850.0 7.2495e-09
4870.0 7.3218e-09
4890.0 7.1901e-09
4910.0 7.0233e-09
4930.0 6.6234e-09
4950.0 6.0465e-09
4970.0 5.6513e-09
4990.0 5.3272e-09
5010.0 5.2577e-09
5030.0 5.4348e-09
5050.0 5.5742e-09
5070.0 5.7825e-09
5090.0 6.132e-09
5110.0 6.2254e-09
5130.0 6.2797e-09
5150.0 6.3956e-09
5170.0 6.4494e-09
5190.0 6.6185e-09
5210.0 6.6529e-09
5230.0 6.5843e-09
5250.0 6.6375e-09
5270.0 6.73e-09
5290.0 6.7482e-09
5310.0 6.6978e-09
5330.0 6.5706e-09
5350.0 6.4811e-09
5370.0 6.4121e-09
5390.0 6.3271e-09
5410.0 6.2569e-09
5430.0 6.2547e-09
5450.0 6.3464e-09
5470.0 6.4643e-09
5490.0 6.6477e-09
5510.0 6.849e-09
5530.0 6.9335e-09
5550.0 7.0367e-09
5570.0 7.0519e-09
5590.0 6.9059e-09
5610.0 6.8558e-09
5630.0 6.9074e-09
5650.0 6.8238e-09
5670.0 6.6728e-09
5690.0 6.4729e-09
5710.0 6.4558e-09
5730.0 6.5239e-09
5750.0 6.246e-09
5770.0 5.9255e-09
5790.0 5.4476e-09
5810.0 4.7653e-09
5830.0 5.1369e-09
5850.0 5.6868e-09
5870.0 5.81e-09
5890.0 5.8411e-09
5910.0 5.8889e-09
5930.0 5.8765e-09
5950.0 5.7793e-09
5970.0 5.7102e-09
5990.0 5.6279e-09
6010.0 5.4565e-09
6030.0 5.2696e-09
6050.0 5.1873e-09
6070.0 5.1638e-09
6090.0 5.0855e-09
6110.0 4.9161e-09
6130.0 4.7487e-09
6150.0 4.5582e-09
6170.0 4.3677e-09
6190.0 4.1719e-09
6210.0 4.0246e-09
6230.0 3.9663e-09
6250.0 3.8822e-09
6270.0 3.8011e-09
6290.0 3.7716e-09
6310.0 3.7472e-09
6330.0 3.6648e-09
6350.0 3.5457e-09
6370.0 3.4779e-09
6390.0 3.4094e-09
6410.0 3.3143e-09
6430.0 3.2244e-09
6450.0 3.1535e-09
6470.0 3.0861e-09
6490.0 3.0391e-09
6510.0 2.9865e-09
6530.0 2.9106e-09
6550.0 2.8462e-09
6570.0 2.8023e-09
6590.0 2.7977e-09
6610.0 2.7801e-09
6630.0 2.6871e-09
6650.0 2.6112e-09
6670.0 2.584e-09
6690.0 2.5434e-09
6710.0 2.4823e-09
6730.0 2.4604e-09
6750.0 2.4795e-09
6770.0 2.6268e-09
6790.0 2.9356e-09
6810.0 2.7877e-09
6830.0 2.4487e-09
6850.0 2.352e-09
6870.0 2.316e-09
6890.0 2.3163e-09
6910.0 2.3212e-09
6930.0 2.3265e-09
6950.0 2.3193e-09
6970.0 2.2604e-09
6990.0 2.24e-09
7010.0 2.2734e-09
7030.0 2.2841e-09
7050.0 2.2509e-09
7070.0 2.2281e-09
7090.0 2.2425e-09
7110.0 2.2948e-09
7130.0 2.3023e-09
7150.0 2.3108e-09
7170.0 2.3231e-09
7190.0 2.3553e-09
7210.0 2.3808e-09
7230.0 2.4064e-09
7250.0 2.4385e-09
7270.0 2.4614e-09
7290.0 2.5002e-09
7310.0 2.5462e-09
7330.0 2.5266e-09
7350.0 2.4735e-09
7370.0 2.4399e-09
7390.0 2.434e-09
7410.0 2.4441e-09
7430.0 2.4745e-09
7450.0 2.4899e-09
7470.0 2.5252e-09
7490.0 2.5107e-09
7510.0 2.4834e-09
7530.0 2.5125e-09
7550.0 2.5904e-09
7570.0 2.5839e-09
7590.0 2.4504e-09
7610.0 2.4301e-09
7630.0 2.5678e-09
7650.0 2.6192e-09
7670.0 2.6368e-09
7690.0 2.7542e-09
7710.0 2.8433e-09
7730.0 2.8706e-09
7750.0 3.0203e-09
7770.0 2.943e-09
7790.0 2.8731e-09
7810.0 3.0439e-09
7830.0 3.1605e-09
7850.0 3.2397e-09
7870.0 3.3035e-09
7890.0 3.3289e-09
7910.0 3.3044e-09
7930.0 3.3272e-09
7950.0 3.4773e-09
7970.0 3.4765e-09
7990.0 3.2382e-09
8010.0 3.1064e-09
8030.0 3.1686e-09
8050.0 3.2365e-09
8070.0 2.9278e-09
8090.0 1.9152e-09
8110.0 2e-09
8130.0 2.8562e-09
8150.0 3.076e-09
8170.0 3.1982e-09
8190.0 3.2676e-09
8210.0 3.2264e-09
8230.0 3.4979e-09
8250.0 3.5743e-09
8270.0 3.38e-09
8290.0 3.2464e-09
8310.0 3.1991e-09
8330.0 3.3738e-09
8350.0 3.5335e-09
8370.0 3.4667e-09
8390.0 3.3059e-09
8410.0 3.3028e-09
8430.0 3.0945e-09
8450.0 3.1624e-09
8470.0 3.4557e-09
8490.0 3.4662e-09
8510.0 3.2141e-09
8530.0 3.0122e-09
8550.0 2.8874e-09
8570.0 2.7213e-09
8590.0 2.799e-09
8610.0 2.9702e-09
8630.0 3.0497e-09
8650.0 3.1025e-09
8670.0 3.0173e-09
8690.0 2.947e-09
8710.0 2.7409e-09
8730.0 2.6425e-09
8750.0 2.7506e-09
8770.0 2.7937e-09
8790.0 2.7849e-09
8810.0 2.7717e-09
8830.0 2.8308e-09
8850.0 2.9725e-09
8870.0 2.7756e-09
8890.0 2.618e-09
8910.0 2.5794e-09
8930.0 2.4244e-09
8950.0 2.3357e-09
8970.0 2.3347e-09
8990.0 2.2349e-09
9010.0 2.0981e-09
9030.0 2.0505e-09
9050.0 2.0334e-09
9070.0 2.0182e-09
9090.0 2.0029e-09
9110.0 1.9875e-09
9130.0 1.972e-09
9150.0 1.9564e-09
9170.0 1.9408e-09
9190.0 1.9252e-09
9210.0 1.9095e-09
9230.0 1.8939e-09
9250.0 1.8782e-09
9270.0 1.8626e-09
9290.0 1.8469e-09
9310.0 1.8314e-09
9330.0 1.8158e-09
9350.0 1.8003e-09
9370.0 1.7849e-09
9390.0 1.7696e-09
9410.0 1.7543e-09
9430.0 1.7391e-09
9450.0 1.724e-09
9470.0 1.709e-09
9490.0 1.6941e-09
9510.0 1.6794e-09
9530.0 1.6647e-09
9550.0 1.6501e-09
9570.0 1.6357e-09
9590.0 1.6214e-09
9610.0 1.6073e-09
9630.0 1.5932e-09
9650.0 1.5794e-09
9670.0 1.5656e-09
9690.0 1.552e-09
9710.0 1.5385e-09
9730.0 1.5252e-09
9750.0 1.512e-09
9770.0 1.499e-09
9790.0 1.4861e-09
9810.0 1.4734e-09
9830.0 1.4608e-09
9850.0 1.4484e-09
9870.0 1.4361e-09
9890.0 1.4239e-09
9910.0 1.4119e-09
9930.0 1.4001e-09
9950.0 1.3884e-09
9970.0 1.3769e-09
9990.0 1.3655e-09
10010.0 1.3542e-09
10030.0 1.3431e-09
10050.0 1.3321e-09
10070.0 1.3213e-09
10090.0 1.3106e-09
10110.0 1.3001e-09
10130.0 1.2897e-09
10150.0 1.2794e-09
10170.0 1.2692e-09
10190.0 1.2592e-09
10210.0 1.2493e-09
10230.0 1.2396e-09
10250.0 1.23e-09
10270.0 1.2205e-09
10290.0 1.2111e-09
10310.0 1.2018e-09
10330.0 1.1927e-09
10350.0 1.1837e-09
10370.0 1.1748e-09
10390.0 1.1659e-09
10410.0 1.1554e-09
10430.0 1.1445e-09
10450.0 1.138e-09
10470.0 1.1305e-09
10490.0 1.123e-09
10510.0 1.1153e-09
10530.0 1.1073e-09
10550.0 1.0994e-09
10570.0 1.0917e-09
10590.0 1.084e-09
10610.0 1.0762e-09
10630.0 1.0687e-09
10650.0 1.0613e-09
10670.0 1.0538e-09
10690.0 1.0465e-09
10710.0 1.0394e-09
10730.0 1.0322e-09
10750.0 1.0249e-09
10770.0 1.0181e-09
10790.0 1.0112e-09
10810.0 1.0043e-09
10830.0 9.9752e-10
10850.0 9.9097e-10
10870.0 9.8422e-10
10890.0 9.7754e-10
10910.0 9.7107e-10
10930.0 9.6458e-10
10950.0 9.5793e-10
10970.0 9.5135e-10
10990.0 9.4489e-10
11010.0 9.3816e-10
11030.0 9.3131e-10
11050.0 9.2455e-10
11070.0 9.1765e-10
11090.0 9.1035e-10
11110.0 9.0325e-10
11130.0 8.9617e-10
11150.0 8.8881e-10
11170.0 8.8137e-10
11190.0 8.7415e-10
11210.0 8.6677e-10
11230.0 8.5921e-10
11250.0 8.519e-10
11270.0 8.4478e-10
11290.0 8.3756e-10
11310.0 8.3053e-10
11330.0 8.2406e-10
11350.0 8.1772e-10
11370.0 8.1156e-10
11390.0 8.0584e-10
11410.0 8.0047e-10
11430.0 7.9512e-10
11450.0 7.9009e-10
11470.0 7.8536e-10
11490.0 7.807e-10
11510.0 7.7601e-10
11530.0 7.7155e-10
11550.0 7.6713e-10
11570.0 7.6253e-10
11590.0 7.5792e-10
11610.0 7.5337e-10
11630.0 7.4858e-10
11650.0 7.4358e-10
11670.0 7.3868e-10
11690.0 7.3368e-10
11710.0 7.2844e-10
11730.0 7.2318e-10
11750.0 7.1805e-10
11770.0 7.127e-10
11790.0 7.0728e-10
11810.0 7.0203e-10
11830.0 6.9683e-10
11850.0 6.9145e-10
11870.0 6.8631e-10
11890.0 6.8145e-10
11910.0 6.7661e-10
11930.0 6.7189e-10
11950.0 6.6755e-10
11970.0 6.6338e-10
11990.0 6.5929e-10
12010.0 6.5555e-10
12030.0 6.5213e-10
12050.0 6.4887e-10
12070.0 6.458e-10
12090.0 6.4314e-10
12110.0 6.4065e-10
12130.0 6.3832e-10
12150.0 6.3622e-10
12170.0 6.3431e-10
12190.0 6.3243e-10
12210.0 6.3064e-10
12230.0 6.2894e-10
12250.0 6.272e-10
12270.0 6.2534e-10
12290.0 6.2341e-10
12310.0 6.2138e-10
12330.0 6.1906e-10
12350.0 6.165e-10
12370.0 6.1376e-10
12390.0 6.1073e-10
12410.0 6.0722e-10
12430.0 6.036e-10
12450.0 5.9975e-10
12470.0 5.955e-10
12490.0 5.9099e-10
12510.0 5.8646e-10
12530.0 5.8161e-10
12550.0 5.7646e-10
12570.0 5.7133e-10
12590.0 5.6616e-10
12610.0 5.607e-10
12630.0 5.5519e-10
12650.0 5.4997e-10
12670.0 5.4463e-10
12690.0 5.3925e-10
12710.0 5.3413e-10
12730.0 5.2918e-10
12750.0 5.2411e-10
12770.0 5.1933e-10
12790.0 5.1488e-10
12810.0 5.1055e-10
12830.0 5.0634e-10
12850.0 5.0257e-10
12870.0 4.9907e-10
12890.0 4.957e-10
12910.0 4.9267e-10
12930.0 4.9e-10
12950.0 4.8752e-10
12970.0 4.8532e-10
12990.0 4.8352e-10
13010.0 4.8201e-10
13030.0 4.8076e-10
13050.0 4.798e-10
13070.0 4.7912e-10
13090.0 4.7863e-10
13110.0 4.7831e-10
13130.0 4.7814e-10
13150.0 4.7802e-10
13170.0 4.7792e-10
13190.0 4.7776e-10
13210.0 4.775e-10
13230.0 4.7707e-10
13250.0 4.7642e-10
13270.0 4.7556e-10
13290.0 4.7443e-10
13310.0 4.7296e-10
13330.0 4.7122e-10
13350.0 4.6925e-10
13370.0 4.6691e-10
13390.0 4.6424e-10
13410.0 4.6147e-10
13430.0 4.5842e-10
13450.0 4.5505e-10
13470.0 4.5154e-10
13490.0 4.4795e-10
13510.0 4.4396e-10
13530.0 4.3985e-10
13550.0 4.3577e-10
13570.0 4.3153e-10
13590.0 4.2705e-10
13610.0 4.2263e-10
13630.0 4.1827e-10
13650.0 4.1367e-10
13670.0 4.0906e-10
13690.0 4.046e-10
13710.0 4.0006e-10
13730.0 3.9532e-10
13750.0 3.9089e-10
13770.0 3.8655e-10
13790.0 3.8213e-10
13810.0 3.7783e-10
13830.0 3.7381e-10
13850.0 3.6977e-10
13870.0 3.6578e-10
13890.0 3.6205e-10
13910.0 3.5848e-10
13930.0 3.549e-10
13950.0 3.5148e-10
13970.0 3.4837e-10
13990.0 3.4528e-10
14010.0 3.4226e-10
14030.0 3.3948e-10
14050.0 3.3683e-10
14070.0 3.3416e-10
14090.0 3.3169e-10
14110.0 3.294e-10
14130.0 3.2718e-10
14150.0 3.2501e-10
14170.0 3.2305e-10
14190.0 3.2118e-10
14210.0 3.1933e-10
14230.0 3.1759e-10
14250.0 3.1596e-10
14270.0 3.1433e-10
14290.0 3.1272e-10
14310.0 3.1122e-10
14330.0 3.0976e-10
14350.0 3.0827e-10
14370.0 3.0684e-10
14390.0 3.0549e-10
14410.0 3.041e-10
14430.0 3.0272e-10
14450.0 3.014e-10
14470.0 3.001e-10
14490.0 2.9875e-10
14510.0 2.9745e-10
14530.0 2.9619e-10
14550.0 2.949e-10
14570.0 2.9359e-10
14590.0 2.9233e-10
14610.0 2.9103e-10
14630.0 2.8968e-10
14650.0 2.8836e-10
14670.0 2.8704e-10
14690.0 2.8566e-10
14710.0 2.8425e-10
14730.0 2.829e-10
14750.0 2.815e-10
14770.0 2.8004e-10
14790.0 2.786e-10
14810.0 2.7716e-10
14830.0 2.756e-10
14850.0 2.7404e-10
14870.0 2.7252e-10
14890.0 2.7096e-10
14910.0 2.6936e-10
14930.0 2.6784e-10
14950.0 2.6641e-10
14970.0 2.65e-10
14990.0 2.6371e-10
15010.0 2.6259e-10
15030.0 2.6157e-10
15050.0 2.6063e-10
15070.0 2.5984e-10
15090.0 2.5912e-10
15110.0 2.5843e-10
15130.0 2.5777e-10
15150.0 2.5715e-10
15170.0 2.5651e-10
15190.0 2.5587e-10
15210.0 2.5525e-10
15230.0 2.5463e-10
15250.0 2.5399e-10
15270.0 2.5336e-10
15290.0 2.5275e-10
15310.0 2.5212e-10
15330.0 2.5149e-10
15350.0 2.5087e-10
15370.0 2.5026e-10
15390.0 2.4961e-10
15410.0 2.4899e-10
15430.0 2.4837e-10
15450.0 2.4775e-10
15470.0 2.471e-10
15490.0 2.4649e-10
15510.0 2.4588e-10
15530.0 2.4524e-10
15550.0 2.4462e-10
15570.0 2.4401e-10
15590.0 2.4337e-10
15610.0 2.4273e-10
15630.0 2.4212e-10
15650.0 2.415e-10
15670.0 2.4086e-10
15690.0 2.4024e-10
15710.0 2.3963e-10
15730.0 2.39e-10
15750.0 2.3836e-10
15770.0 2.3775e-10
15790.0 2.3713e-10
15810.0 2.3648e-10
15830.0 2.3586e-10
15850.0 2.3525e-10
15870.0 2.3462e-10
15890.0 2.3398e-10
15910.0 2.3338e-10
15930.0 2.3275e-10
15950.0 2.3211e-10
15970.0 2.3149e-10
15990.0 2.3088e-10
16010.0 2.3024e-10
16030.0 2.296e-10
16050.0 2.29e-10
16070.0 2.2837e-10
16090.0 2.2774e-10
16110.0 2.2712e-10
16130.0 2.2651e-10
16150.0 2.2587e-10
16170.0 2.2523e-10
16190.0 2.2462e-10
16210.0 2.24e-10
16230.0 2.2336e-10
16250.0 2.2274e-10
16270.0 2.2213e-10
16290.0 2.2149e-10
16310.0 2.2086e-10
16330.0 2.2025e-10
16350.0 2.1963e-10
16370.0 2.1898e-10
16390.0 2.1836e-10
16410.0 2.1775e-10
16430.0 2.1712e-10
16450.0 2.1649e-10
16470.0 2.1588e-10
16490.0 2.1525e-10
16510.0 2.1461e-10
16530.0 2.14e-10
16550.0 2.1338e-10
16570.0 2.1274e-10
16590.0 2.1211e-10
16610.0 2.115e-10
16630.0 2.1088e-10
16650.0 2.1024e-10
16670.0 2.0963e-10
16690.0 2.0901e-10
16710.0 2.0837e-10
16730.0 2.0774e-10
16750.0 2.0713e-10
16770.0 2.065e-10
16790.0 2.0586e-10
16810.0 2.0525e-10
16830.0 2.0463e-10
16850.0 2.04e-10
16870.0 2.0337e-10
16890.0 2.0276e-10
16910.0 2.0213e-10
16930.0 2.0149e-10
16950.0 2.0087e-10
16970.0 2.0026e-10
16990.0 1.9962e-10
17010.0 1.9899e-10
17030.0 1.9839e-10
17050.0 1.9775e-10
17070.0 1.9712e-10
17090.0 1.9651e-10
17110.0 1.9589e-10
17130.0 1.9524e-10
17150.0 1.9462e-10
17170.0 1.9401e-10
17190.0 1.9338e-10
17210.0 1.9275e-10
17230.0 1.9214e-10
17250.0 1.9151e-10
17270.0 1.9087e-10
17290.0 1.9025e-10
17310.0 1.8964e-10
17330.0 1.89e-10
17350.0 1.8836e-10
17370.0 1.8776e-10
17390.0 1.8714e-10
17410.0 1.865e-10
17430.0 1.8588e-10
17450.0 1.8527e-10
17470.0 1.8463e-10
17490.0 1.8399e-10
17510.0 1.8338e-10
17530.0 1.8276e-10
17550.0 1.8212e-10
17570.0 1.815e-10
17590.0 1.8089e-10
17610.0 1.8026e-10
17630.0 1.7963e-10
17650.0 1.7902e-10
17670.0 1.7839e-10
17690.0 1.7774e-10
17710.0 1.7713e-10
17730.0 1.7651e-10
17750.0 1.7588e-10
17770.0 1.7525e-10
17790.0 1.7465e-10
17810.0 1.7402e-10
17830.0 1.7338e-10
17850.0 1.7276e-10
17870.0 1.7214e-10
17890.0 1.715e-10
17910.0 1.7087e-10
17930.0 1.7027e-10
17950.0 1.6964e-10
17970.0 1.69e-10
17990.0 1.6839e-10
18010.0 1.6778e-10
18030.0 1.6713e-10
18050.0 1.665e-10
18070.0 1.6589e-10
18090.0 1.6526e-10
18110.0 1.6462e-10
18130.0 1.6401e-10
18150.0 1.634e-10
18170.0 1.6276e-10
18190.0 1.6214e-10
18210.0 1.6153e-10
18230.0 1.6089e-10
18250.0 1.6025e-10
18270.0 1.5964e-10
18290.0 1.5902e-10
18310.0 1.5838e-10
18330.0 1.5776e-10
18350.0 1.5715e-10
18370.0 1.5652e-10
18390.0 1.5588e-10
18410.0 1.5527e-10
18430.0 1.5465e-10
18450.0 1.54e-10
18470.0 1.5338e-10
18490.0 1.5277e-10
18510.0 1.5214e-10
18530.0 1.5151e-10
18550.0 1.509e-10
18570.0 1.5028e-10
18590.0 1.4964e-10
18610.0 1.4902e-10
18630.0 1.484e-10
18650.0 1.4777e-10
18670.0 1.4713e-10
18690.0 1.4652e-10
18710.0 1.459e-10
18730.0 1.4526e-10
18750.0 1.4465e-10
18770.0 1.4404e-10
18790.0 1.4339e-10
18810.0 1.4276e-10
18830.0 1.4215e-10
18850.0 1.4152e-10
18870.0 1.4088e-10
18890.0 1.4027e-10
18910.0 1.3966e-10
18930.0 1.3902e-10
18950.0 1.3839e-10
18970.0 1.3778e-10
18990.0 1.3716e-10
19010.0 1.365e-10
19030.0 1.3589e-10
19050.0 1.3528e-10
19070.0 1.3464e-10
19090.0 1.3402e-10
19110.0 1.3342e-10
19130.0 1.3278e-10
19150.0 1.3214e-10
19170.0 1.3153e-10
19190.0 1.3091e-10
19210.0 1.3027e-10
19230.0 1.2964e-10
19250.0 1.2903e-10
19270.0 1.284e-10
19290.0 1.2777e-10
19310.0 1.2716e-10
19330.0 1.2654e-10
19350.0 1.2589e-10
19370.0 1.2527e-10
19390.0 1.2466e-10
19410.0 1.2403e-10
19430.0 1.2339e-10
19450.0 1.2278e-10
19470.0 1.2216e-10
19490.0 1.2153e-10
19510.0 1.209e-10
19530.0 1.2029e-10
19550.0 1.1966e-10
19570.0 1.1901e-10
19590.0 1.1841e-10
19610.0 1.1778e-10
19630.0 1.1715e-10
19650.0 1.1653e-10
19670.0 1.1592e-10
19690.0 1.1528e-10
19710.0 1.1465e-10
19730.0 1.1404e-10
19750.0 1.1342e-10
19770.0 1.1277e-10
19790.0 1.1215e-10
19810.0 1.1154e-10
19830.0 1.1091e-10
19850.0 1.1028e-10
19870.0 1.0968e-10
19890.0 1.0906e-10
19910.0 1.0845e-10
19930.0 1.0787e-10
19950.0 1.0733e-10
19970.0 1.0681e-10
19990.0 1.0635e-10
20010.0 1.0597e-10
20030.0 1.0564e-10
20050.0 1.0536e-10
20070.0 1.0515e-10
20090.0 1.0497e-10
20110.0 1.0482e-10
20130.0 1.0469e-10
20150.0 1.0457e-10
20170.0 1.0446e-10
20190.0 1.0434e-10
20210.0 1.0422e-10
20230.0 1.041e-10
20250.0 1.0397e-10
20270.0 1.0383e-10
20290.0 1.0369e-10
20310.0 1.0354e-10
20330.0 1.0338e-10
20350.0 1.0321e-10
20370.0 1.0304e-10
20390.0 1.0285e-10
20410.0 1.0266e-10
20430.0 1.0247e-10
20450.0 1.0226e-10
20470.0 1.0205e-10
20490.0 1.0184e-10
20510.0 1.0163e-10
20530.0 1.0142e-10
20550.0 1.0121e-10
20570.0 1.0101e-10
20590.0 1.0081e-10
20610.0 1.0062e-10
20630.0 1.0043e-10
20650.0 1.0025e-10
20670.0 1.0006e-10
20690.0 9.9876e-11
20710.0 9.9697e-11
20730.0 9.951e-11
20750.0 9.9315e-11
20770.0 9.912e-11
20790.0 9.8911e-11
20810.0 9.8682e-11
20830.0 9.8444e-11
20850.0 9.8194e-11
20870.0 9.7913e-11
20890.0 9.7614e-11
20910.0 9.7312e-11
20930.0 9.6987e-11
20950.0 9.6639e-11
20970.0 9.6289e-11
20990.0 9.5934e-11
21010.0 9.5552e-11
21030.0 9.5171e-11
21050.0 9.4798e-11
21070.0 9.4417e-11
21090.0 9.4025e-11
21110.0 9.3654e-11
21130.0 9.329e-11
21150.0 9.2917e-11
21170.0 9.2551e-11
21190.0 9.2202e-11
21210.0 9.1842e-11
21230.0 9.1474e-11
21250.0 9.1122e-11
21270.0 9.0768e-11
21290.0 9.0398e-11
21310.0 9.0025e-11
21330.0 8.9662e-11
21350.0 8.9278e-11
21370.0 8.8879e-11
21390.0 8.8483e-11
21410.0 8.808e-11
21430.0 8.7641e-11
21450.0 8.7206e-11
21470.0 8.6774e-11
21490.0 8.6321e-11
21510.0 8.5852e-11
21530.0 8.5395e-11
21550.0 8.4928e-11
21570.0 8.4437e-11
21590.0 8.3953e-11
21610.0 8.3477e-11
21630.0 8.2985e-11
21650.0 8.2477e-11
21670.0 8.2002e-11
21690.0 8.152e-11
21710.0 8.1025e-11
21730.0 8.0542e-11
21750.0 8.0075e-11
21770.0 7.9582e-11
21790.0 7.9092e-11
21810.0 7.8622e-11
21830.0 7.8147e-11
21850.0 7.7656e-11
21870.0 7.7178e-11
21890.0 7.6717e-11
21910.0 7.6236e-11
21930.0 7.5758e-11
21950.0 7.53e-11
21970.0 7.4838e-11
21990.0 7.436e-11
22010.0 7.3913e-11
22030.0 7.348e-11
22050.0 7.3044e-11
22070.0 7.262e-11
22090.0 7.2229e-11
22110.0 7.1843e-11
22130.0 7.1464e-11
22150.0 7.1114e-11
22170.0 7.0784e-11
22190.0 7.0457e-11
22210.0 7.0149e-11
22230.0 6.9871e-11
22250.0 6.96e-11
22270.0 6.9336e-11
22290.0 6.9092e-11
22310.0 6.8859e-11
22330.0 6.8622e-11
22350.0 6.8395e-11
22370.0 6.8179e-11
22390.0 6.796e-11
22410.0 6.7735e-11
22430.0 6.7521e-11
22450.0 6.7306e-11
22470.0 6.7081e-11
22490.0 6.6857e-11
22510.0 6.6638e-11
22530.0 6.6408e-11
22550.0 6.6172e-11
22570.0 6.5944e-11
22590.0 6.5717e-11
22610.0 6.5482e-11
22630.0 6.5252e-11
