#lamb flux
1010.0 1.9793e-06
1030.0 2.1744e-06
1050.0 2.3987e-06
1070.0 2.6512e-06
1090.0 2.9381e-06
1110.0 3.2323e-06
1130.0 3.5284e-06
1150.0 3.8386e-06
1170.0 4.1585e-06
1190.0 4.4619e-06
1210.0 4.7694e-06
1230.0 5.0871e-06
1250.0 5.3984e-06
1270.0 5.7007e-06
1290.0 6.0201e-06
1310.0 6.3392e-06
1330.0 6.6453e-06
1350.0 6.9548e-06
1370.0 7.2744e-06
1390.0 7.5859e-06
1410.0 7.8881e-06
1430.0 8.2041e-06
1450.0 8.5199e-06
1470.0 8.8252e-06
1490.0 9.1337e-06
1510.0 9.4595e-06
1530.0 9.7682e-06
1550.0 1.0073e-05
1570.0 1.0387e-05
1590.0 1.0702e-05
1610.0 1.1003e-05
1630.0 1.1313e-05
1650.0 1.1632e-05
1670.0 1.1939e-05
1690.0 1.2242e-05
1710.0 1.2557e-05
1730.0 1.2873e-05
1750.0 1.317e-05
1770.0 1.3476e-05
1790.0 1.3786e-05
1810.0 1.4087e-05
1830.0 1.4381e-05
1850.0 1.4693e-05
1870.0 1.4995e-05
1890.0 1.5286e-05
1910.0 1.5582e-05
1930.0 1.5883e-05
1950.0 1.6168e-05
1970.0 1.6448e-05
1990.0 1.6737e-05
2010.0 1.7018e-05
2030.0 1.7286e-05
2050.0 1.7559e-05
2070.0 1.7836e-05
2090.0 1.8092e-05
2110.0 1.8342e-05
2130.0 1.8597e-05
2150.0 1.884e-05
2170.0 1.9065e-05
2190.0 1.9295e-05
2210.0 1.952e-05
2230.0 1.9726e-05
2250.0 1.9923e-05
2270.0 2.0125e-05
2290.0 2.0309e-05
2310.0 2.0472e-05
2330.0 2.0636e-05
2350.0 2.0792e-05
2370.0 2.0928e-05
2390.0 2.1059e-05
2410.0 2.1199e-05
2430.0 2.1331e-05
2450.0 2.1462e-05
2470.0 2.1623e-05
2490.0 2.1832e-05
2510.0 2.2094e-05
2530.0 2.2511e-05
2550.0 2.3235e-05
2570.0 2.4405e-05
2590.0 2.6182e-05
2610.0 2.9021e-05
2630.0 3.2972e-05
2650.0 3.7761e-05
2670.0 4.3397e-05
2690.0 4.9608e-05
2710.0 5.5482e-05
2730.0 6.0613e-05
2750.0 6.5101e-05
2770.0 6.8514e-05
2790.0 7.0866e-05
2810.0 7.2543e-05
2830.0 7.382e-05
2850.0 7.4665e-05
2870.0 7.5348e-05
2890.0 7.6026e-05
2910.0 7.6669e-05
2930.0 7.7218e-05
2950.0 7.7815e-05
2970.0 7.8435e-05
2990.0 7.8978e-05
3010.0 0.00078626
3030.0 0.00079171
3050.0 0.00079677
3070.0 0.00080026
3090.0 0.00080303
3110.0 0.0008039
3130.0 0.00080143
3150.0 0.00079516
3170.0 0.00078435
3190.0 0.00076926
3210.0 0.00075182
3230.0 0.0007339
3250.0 0.00071658
3270.0 0.00070757
3290.0 0.00070266
3310.0 0.00071197
3330.0 0.00072749
3350.0 0.00074944
3370.0 0.00077846
3390.0 0.00081329
3410.0 0.0008496
3430.0 0.0008887
3450.0 0.00093137
3470.0 0.00097521
3490.0 0.0010192
3510.0 0.0010658
3530.0 0.0011136
3550.0 0.0011637
3570.0 0.001218
3590.0 0.0012748
3610.0 0.0013387
3630.0 0.0013955
3650.0 0.0014525
3670.0 0.0014983
3690.0 0.0015314
3710.0 0.0015509
3730.0 0.0015496
3750.0 0.0015495
3770.0 0.001558
3790.0 0.0016037
3810.0 0.0016994
3830.0 0.0018276
3850.0 0.0020112
3870.0 0.0022566
3890.0 0.0025333
3910.0 0.002815
3930.0 0.0030447
3950.0 0.0031878
3970.0 0.0028416
3990.0 0.0022082
4010.0 0.00213
4030.0 0.0025851
4050.0 0.0030033
4070.0 0.0026513
4090.0 0.0018375
4110.0 0.0019123
4130.0 0.002415
4150.0 0.0026603
4170.0 0.0023623
4190.0 0.0021158
4210.0 0.0025486
4230.0 0.002766
4250.0 0.0027049
4270.0 0.0027532
4290.0 0.0025823
4310.0 0.0027823
4330.0 0.0031821
4350.0 0.0037344
4370.0 0.003871
4390.0 0.0036991
4410.0 0.0031831
4430.0 0.0026005
4450.0 0.0020305
4470.0 0.0020727
4490.0 0.0023144
4510.0 0.0030059
4530.0 0.0031843
4550.0 0.0032201
4570.0 0.0037143
4590.0 0.0047714
4610.0 0.0065656
4630.0 0.0078992
4650.0 0.0078748
4670.0 0.0080776
4690.0 0.0088546
4710.0 0.0087271
4730.0 0.0069831
4750.0 0.0050295
4770.0 0.0041959
4790.0 0.0038631
4810.0 0.0035745
4830.0 0.0037728
4850.0 0.004385
4870.0 0.0054413
4890.0 0.0057564
4910.0 0.0049642
4930.0 0.0049753
4950.0 0.0061466
4970.0 0.0079803
4990.0 0.0093269
5010.0 0.0093255
5030.0 0.0076819
5050.0 0.0053791
5070.0 0.003958
5090.0 0.0034493
5110.0 0.003516
5130.0 0.0038486
5150.0 0.0037131
5170.0 0.0037162
5190.0 0.0036662
5210.0 0.0036753
5230.0 0.0039219
5250.0 0.0040669
5270.0 0.0045562
5290.0 0.0054564
5310.0 0.0059912
5330.0 0.0062461
5350.0 0.0065382
5370.0 0.0070827
5390.0 0.0072771
5410.0 0.0066043
5430.0 0.0059069
5450.0 0.005938
5470.0 0.0071356
5490.0 0.0092459
5510.0 0.011147
5530.0 0.01182
5550.0 0.011408
5570.0 0.01063
5590.0 0.0098219
5610.0 0.009403
5630.0 0.0095228
5650.0 0.009761
5670.0 0.0094806
5690.0 0.0090091
5710.0 0.0087157
5730.0 0.0076345
5750.0 0.005896
5770.0 0.0053532
5790.0 0.006042
5810.0 0.0068526
5830.0 0.0076728
5850.0 0.0080086
5870.0 0.0078334
5890.0 0.0072615
5910.0 0.0068397
5930.0 0.0069492
5950.0 0.0073869
5970.0 0.007512
5990.0 0.006704
6010.0 0.0054387
6030.0 0.0043694
6050.0 0.0039704
6070.0 0.0042707
6090.0 0.0048167
6110.0 0.0048656
6130.0 0.0044932
6150.0 0.0044258
6170.0 0.0049407
6190.0 0.0058844
6210.0 0.0070909
6230.0 0.0079177
6250.0 0.0076166
6270.0 0.0066921
6290.0 0.0055307
6310.0 0.0043635
6330.0 0.0036543
6350.0 0.0035793
6370.0 0.0039444
6390.0 0.0043849
6410.0 0.005094
6430.0 0.0061695
6450.0 0.0075903
6470.0 0.0091302
6490.0 0.010513
6510.0 0.011074
6530.0 0.010597
6550.0 0.010176
6570.0 0.010199
6590.0 0.010036
6610.0 0.0094079
6630.0 0.0088259
6650.0 0.0083175
6670.0 0.0083067
6690.0 0.008101
6710.0 0.0073059
6730.0 0.0063619
6750.0 0.0057436
6770.0 0.0059897
6790.0 0.0063989
6810.0 0.0068499
6830.0 0.006981
6850.0 0.0066366
6870.0 0.0063776
6890.0 0.006231
6910.0 0.0058993
6930.0 0.0056424
6950.0 0.0057145
6970.0 0.0058929
6990.0 0.006322
7010.0 0.0067816
7030.0 0.0065972
7050.0 0.0059879
7070.0 0.0052755
7090.0 0.004461
7110.0 0.0040394
7130.0 0.004285
7150.0 0.0046191
7170.0 0.0046438
7190.0 0.0045106
7210.0 0.0044925
7230.0 0.0050755
7250.0 0.0058728
7270.0 0.0064273
7290.0 0.0065319
7310.0 0.0061208
7330.0 0.0055577
7350.0 0.0051225
7370.0 0.0049373
7390.0 0.0049615
7410.0 0.0052725
7430.0 0.0059864
7450.0 0.0067008
7470.0 0.0075421
7490.0 0.0084111
7510.0 0.0078051
7530.0 0.0068372
7550.0 0.0058222
7570.0 0.0048785
7590.0 0.0039893
7610.0 0.0038385
7630.0 0.004108
7650.0 0.0046026
7670.0 0.0052652
7690.0 0.0058084
7710.0 0.0065164
7730.0 0.0068976
7750.0 0.0071574
7770.0 0.0074089
7790.0 0.0074114
7810.0 0.0073861
7830.0 0.0071218
7850.0 0.0069088
7870.0 0.0066275
7890.0 0.0060616
7910.0 0.005487
7930.0 0.0049171
7950.0 0.0043234
7970.0 0.0041377
7990.0 0.0043102
8010.0 0.0048337
8030.0 0.004878
8050.0 0.0050227
8070.0 0.0049616
8090.0 0.0049597
8110.0 0.0048219
8130.0 0.0045275
8150.0 0.0042289
8170.0 0.0041939
8190.0 0.0042592
8210.0 0.004308
8230.0 0.0041193
8250.0 0.0039067
8270.0 0.0034429
8290.0 0.0027962
8310.0 0.0021501
8330.0 0.001504
8350.0 0.001111
8370.0 0.001061
8390.0 0.0012192
8410.0 0.0014804
8430.0 0.0018401
8450.0 0.0020324
8470.0 0.0021668
8490.0 0.0023399
8510.0 0.0024948
8530.0 0.0027636
8550.0 0.0032592
8570.0 0.0037661
8590.0 0.0041991
8610.0 0.0048633
8630.0 0.0056372
8650.0 0.0059932
8670.0 0.0060597
8690.0 0.0059724
8710.0 0.0057368
8730.0 0.0055039
8750.0 0.0052073
8770.0 0.005101
8790.0 0.0049199
8810.0 0.0045593
8830.0 0.0042533
8850.0 0.0036805
8870.0 0.0033342
8890.0 0.0030895
8910.0 0.0033475
8930.0 0.0032125
8950.0 0.0032802
8970.0 0.0033344
8990.0 0.0033353
9010.0 0.0033772
9030.0 0.0032821
9050.0 0.0032756
9070.0 0.0032786
9090.0 0.0032818
9110.0 0.0032856
9130.0 0.0032891
9150.0 0.0032928
9170.0 0.003293
9190.0 0.0032884
9210.0 0.0033168
9230.0 0.0033159
9250.0 0.0033184
9270.0 0.0033218
9290.0 0.0033261
9310.0 0.003331
9330.0 0.0033364
9350.0 0.0033422
9370.0 0.0033482
9390.0 0.0033545
9410.0 0.0033611
9430.0 0.003368
9450.0 0.003375
9470.0 0.0033822
9490.0 0.0033897
9510.0 0.0033974
9530.0 0.0034053
9550.0 0.0034135
9570.0 0.0034219
9590.0 0.0034305
9610.0 0.0034394
9630.0 0.0034484
9650.0 0.0034577
9670.0 0.0034672
9690.0 0.0034769
9710.0 0.0034868
9730.0 0.0034969
9750.0 0.0035072
9770.0 0.0035177
9790.0 0.0035284
9810.0 0.0035392
9830.0 0.0035502
9850.0 0.0035614
9870.0 0.0035727
9890.0 0.0035841
9910.0 0.0035958
9930.0 0.0036075
9950.0 0.0036175
9970.0 0.00363
9990.0 0.0036426
10010.0 0.0036538
10030.0 0.0036661
10050.0 0.0036773
10070.0 0.0036825
10090.0 0.0036973
10110.0 0.0037118
10130.0 0.0037257
10150.0 0.0037391
10170.0 0.0037521
10190.0 0.0037644
10210.0 0.0037769
10230.0 0.0037893
10250.0 0.0038013
10270.0 0.0038133
10290.0 0.0038254
10310.0 0.0038372
10330.0 0.0038485
10350.0 0.0038601
10370.0 0.0038716
10390.0 0.0038826
10410.0 0.0038934
10430.0 0.0039045
10450.0 0.003915
10470.0 0.0039251
10490.0 0.0039353
10510.0 0.0039453
10530.0 0.0039545
10550.0 0.0039636
10570.0 0.0039728
10590.0 0.0039814
10610.0 0.0039895
10630.0 0.0039977
10650.0 0.0040055
10670.0 0.0040126
10690.0 0.0040195
10710.0 0.0040262
10730.0 0.0040324
10750.0 0.0040378
10770.0 0.0040435
10790.0 0.0040486
10810.0 0.0040529
10830.0 0.0040569
10850.0 0.0040604
10870.0 0.004062
10890.0 0.0040614
10910.0 0.0040576
10930.0 0.0040482
10950.0 0.0040293
10970.0 0.0039994
10990.0 0.0039576
11010.0 0.0039213
11030.0 0.0038394
11050.0 0.0037457
11070.0 0.0036385
11090.0 0.0035147
11110.0 0.0033916
11130.0 0.0032685
11150.0 0.0031422
11170.0 0.0030195
11190.0 0.0029082
11210.0 0.0028015
11230.0 0.0027011
11250.0 0.0026138
11270.0 0.0025377
11290.0 0.0024685
11310.0 0.0024091
11330.0 0.002361
11350.0 0.0023181
11370.0 0.0022793
11390.0 0.002245
11410.0 0.0022124
11430.0 0.0021776
11450.0 0.0021415
11470.0 0.0021036
11490.0 0.0020612
11510.0 0.0020132
11530.0 0.0019633
11550.0 0.0019104
11570.0 0.0018527
11590.0 0.0017935
11610.0 0.0017353
11630.0 0.0016751
11650.0 0.0016147
11670.0 0.0015589
11690.0 0.0015057
11710.0 0.001454
11730.0 0.0014065
11750.0 0.0013642
11770.0 0.0013238
11790.0 0.0012863
11810.0 0.0012527
11830.0 0.0012216
11850.0 0.0011909
11870.0 0.0011624
11890.0 0.0011355
11910.0 0.0011081
11930.0 0.0010803
11950.0 0.001053
11970.0 0.0010249
11990.0 0.00099507
12010.0 0.00096529
12030.0 0.00093571
12050.0 0.00090525
12070.0 0.00087457
12090.0 0.00084647
12110.0 0.00081944
12130.0 0.00079387
12150.0 0.00077156
12170.0 0.00075293
12190.0 0.00073727
12210.0 0.00072623
12230.0 0.00072003
12250.0 0.00071846
12270.0 0.00072203
12290.0 0.00073027
12310.0 0.0007424
12330.0 0.0007593
12350.0 0.00077983
12370.0 0.0008023
12390.0 0.00082714
12410.0 0.00085486
12430.0 0.00088128
12450.0 0.0009069
12470.0 0.00093229
12490.0 0.00095565
12510.0 0.00097541
12530.0 0.00099301
12550.0 0.0010077
12570.0 0.0010183
12590.0 0.0010253
12610.0 0.001029
12630.0 0.001029
12650.0 0.0010256
12670.0 0.0010192
12690.0 0.0010099
12710.0 0.0009983
12730.0 0.00098479
12750.0 0.00096891
12770.0 0.00095174
12790.0 0.0009338
12810.0 0.0009146
12830.0 0.00089418
12850.0 0.00087384
12870.0 0.00085302
12890.0 0.00083097
12910.0 0.00080855
12930.0 0.00078613
12950.0 0.00076232
12970.0 0.00073737
12990.0 0.00071283
13010.0 0.00068776
13030.0 0.00066163
13050.0 0.00063577
13070.0 0.000611
13090.0 0.00058589
13110.0 0.00056156
13130.0 0.00053929
13150.0 0.00051864
13170.0 0.00049922
13190.0 0.00048279
13210.0 0.00046925
13230.0 0.00045796
13250.0 0.0004494
13270.0 0.00044367
13290.0 0.00044034
13310.0 0.00043938
13330.0 0.00044051
13350.0 0.00044326
13370.0 0.00044756
13390.0 0.00045308
13410.0 0.0004588
13430.0 0.00046497
13450.0 0.00047138
13470.0 0.00047736
13490.0 0.00048272
13510.0 0.00048793
13530.0 0.00049237
13550.0 0.0004959
13570.0 0.00049888
13590.0 0.00050137
13610.0 0.00050322
13630.0 0.00050456
13650.0 0.0005057
13670.0 0.00050654
13690.0 0.00050708
13710.0 0.00050746
13730.0 0.00050775
13750.0 0.00050772
13770.0 0.00050745
13790.0 0.00050693
13810.0 0.00050603
13830.0 0.00050469
13850.0 0.00050288
13870.0 0.00050048
13890.0 0.00049752
13910.0 0.00049402
13930.0 0.00048983
13950.0 0.00048512
13970.0 0.00048019
13990.0 0.00047485
14010.0 0.00046927
14030.0 0.00046383
14050.0 0.00045853
14070.0 0.00045324
14090.0 0.00044844
14110.0 0.00044418
14130.0 0.00044033
14150.0 0.00043697
14170.0 0.00043427
14190.0 0.0004321
14210.0 0.00043045
14230.0 0.00042938
14250.0 0.00042886
14270.0 0.00042894
14290.0 0.00042966
14310.0 0.00043092
14330.0 0.00043278
14350.0 0.00043532
14370.0 0.00043838
14390.0 0.00044179
14410.0 0.00044583
14430.0 0.00045031
14450.0 0.00045494
14470.0 0.00045987
14490.0 0.00046536
14510.0 0.00047092
14530.0 0.00047665
14550.0 0.00048301
14570.0 0.00048998
14590.0 0.00049733
14610.0 0.00050565
14630.0 0.00051536
14650.0 0.00052593
14670.0 0.00053753
14690.0 0.00055086
14710.0 0.00056576
14730.0 0.00058097
14750.0 0.00059756
14770.0 0.00061547
14790.0 0.00063349
14810.0 0.00065131
14830.0 0.00067019
14850.0 0.00068823
14870.0 0.00070472
14890.0 0.00072026
14910.0 0.00073456
14930.0 0.00074647
14950.0 0.00075615
14970.0 0.00076407
14990.0 0.00076969
15010.0 0.0007732
15030.0 0.0007751
15050.0 0.00077558
15070.0 0.00077502
15090.0 0.00077381
15110.0 0.00077213
15130.0 0.00077022
15150.0 0.00076828
15170.0 0.00076621
15190.0 0.00076408
15210.0 0.00076205
15230.0 0.00076003
15250.0 0.00075794
15270.0 0.00075588
15290.0 0.00075395
15310.0 0.00075196
15330.0 0.00074995
15350.0 0.00074803
15370.0 0.00074613
15390.0 0.00074412
15410.0 0.00074219
15430.0 0.00074033
15450.0 0.00073841
15470.0 0.00073646
15490.0 0.00073463
15510.0 0.0007328
15530.0 0.00073089
15550.0 0.00072904
15570.0 0.00072725
15590.0 0.00072537
15610.0 0.00072347
15630.0 0.00072169
15650.0 0.00071989
15670.0 0.00071802
15690.0 0.00071621
15710.0 0.00071447
15730.0 0.00071263
15750.0 0.00071078
15770.0 0.00070902
15790.0 0.00070725
15810.0 0.00070536
15830.0 0.00070356
15850.0 0.00070182
15870.0 0.0007
15890.0 0.00069817
15910.0 0.00069644
15930.0 0.00069465
15950.0 0.00069277
15970.0 0.00069098
15990.0 0.00068922
16010.0 0.00068737
16030.0 0.0006855
16050.0 0.00068375
16070.0 0.00068195
16090.0 0.00068008
16110.0 0.00067827
16130.0 0.00067651
16150.0 0.00067459
16170.0 0.00067271
16190.0 0.00067091
16210.0 0.00066906
16230.0 0.00066714
16250.0 0.0006653
16270.0 0.00066349
16290.0 0.00066156
16310.0 0.00065965
16330.0 0.00065781
16350.0 0.00065591
16370.0 0.00065389
16390.0 0.00065202
16410.0 0.00065013
16430.0 0.00064816
16450.0 0.0006462
16470.0 0.00064433
16490.0 0.00064234
16510.0 0.00064032
16530.0 0.00063837
16550.0 0.00063641
16570.0 0.00063435
16590.0 0.00063231
16610.0 0.00063037
16630.0 0.00062833
16650.0 0.00062625
16670.0 0.00062425
16690.0 0.00062224
16710.0 0.00062008
16730.0 0.00061799
16750.0 0.00061596
16770.0 0.00061384
16790.0 0.00061167
16810.0 0.00060961
16830.0 0.00060751
16850.0 0.00060532
16870.0 0.00060317
16890.0 0.00060107
16910.0 0.00059886
16930.0 0.0005966
16950.0 0.00059446
16970.0 0.00059228
16990.0 0.00059001
17010.0 0.0005878
17030.0 0.00058563
17050.0 0.00058335
17070.0 0.00058105
17090.0 0.00057883
17110.0 0.00057657
17130.0 0.00057419
17150.0 0.0005719
17170.0 0.00056966
17190.0 0.00056731
17210.0 0.00056495
17230.0 0.00056268
17250.0 0.00056034
17270.0 0.0005579
17290.0 0.00055555
17310.0 0.00055322
17330.0 0.00055079
17350.0 0.00054833
17370.0 0.00054601
17390.0 0.0005436
17410.0 0.00054113
17430.0 0.00053872
17450.0 0.00053634
17470.0 0.0005338
17490.0 0.00053131
17510.0 0.0005289
17530.0 0.00052642
17550.0 0.00052387
17570.0 0.00052141
17590.0 0.00051897
17610.0 0.00051641
17630.0 0.00051388
17650.0 0.00051141
17670.0 0.00050887
17690.0 0.00050622
17710.0 0.00050372
17730.0 0.00050121
17750.0 0.00049861
17770.0 0.00049603
17790.0 0.00049354
17810.0 0.00049092
17830.0 0.00048828
17850.0 0.00048572
17870.0 0.00048316
17890.0 0.00048048
17910.0 0.00047785
17930.0 0.00047531
17950.0 0.00047267
17970.0 0.00047001
17990.0 0.00046743
18010.0 0.00046483
18030.0 0.0004621
18050.0 0.00045945
18070.0 0.00045686
18090.0 0.00045418
18110.0 0.00045147
18130.0 0.00044887
18150.0 0.00044623
18170.0 0.00044351
18190.0 0.00044085
18210.0 0.00043824
18230.0 0.00043551
18250.0 0.00043276
18270.0 0.00043014
18290.0 0.00042747
18310.0 0.00042473
18330.0 0.00042206
18350.0 0.00041944
18370.0 0.0004167
18390.0 0.00041397
18410.0 0.00041133
18430.0 0.00040864
18450.0 0.00040585
18470.0 0.00040317
18490.0 0.00040053
18510.0 0.0003978
18530.0 0.00039508
18550.0 0.00039245
18570.0 0.00038974
18590.0 0.00038696
18610.0 0.00038428
18630.0 0.00038162
18650.0 0.00037888
18670.0 0.00037613
18690.0 0.00037351
18710.0 0.00037081
18730.0 0.00036807
18750.0 0.0003654
18770.0 0.00036277
18790.0 0.00035998
18810.0 0.00035726
18830.0 0.00035463
18850.0 0.00035193
18870.0 0.00034919
18890.0 0.00034655
18910.0 0.00034391
18930.0 0.00034118
18950.0 0.00033849
18970.0 0.00033586
18990.0 0.00033318
19010.0 0.0003304
19030.0 0.00032779
19050.0 0.00032516
19070.0 0.00032245
19090.0 0.00031979
19110.0 0.00031721
19130.0 0.00031452
19150.0 0.00031182
19170.0 0.0003092
19190.0 0.00030658
19210.0 0.00030388
19230.0 0.00030122
19250.0 0.00029866
19270.0 0.00029602
19290.0 0.00029336
19310.0 0.00029079
19330.0 0.0002882
19350.0 0.00028549
19370.0 0.00028289
19390.0 0.00028033
19410.0 0.0002777
19430.0 0.00027506
19450.0 0.00027253
19470.0 0.00026997
19490.0 0.00026733
19510.0 0.00026476
19530.0 0.00026224
19550.0 0.00025962
19570.0 0.000257
19590.0 0.0002545
19610.0 0.00025196
19630.0 0.00024936
19650.0 0.00024683
19670.0 0.00024436
19690.0 0.00024177
19710.0 0.00023921
19730.0 0.00023673
19750.0 0.00023422
19770.0 0.00023162
19790.0 0.00022913
19810.0 0.00022668
19830.0 0.00022414
19850.0 0.00022161
19870.0 0.00021914
19890.0 0.00021653
19910.0 0.00021376
19930.0 0.00021092
19950.0 0.00020785
19970.0 0.00020433
19990.0 0.00020039
20010.0 0.00019621
20030.0 0.00019148
20050.0 0.00018633
20070.0 0.00018114
20090.0 0.00017595
20110.0 0.00017055
20130.0 0.00016554
20150.0 0.000161
20170.0 0.00015671
20190.0 0.0001528
20210.0 0.00014946
20230.0 0.00014652
20250.0 0.00014391
20270.0 0.00014176
20290.0 0.00014005
20310.0 0.00013865
20330.0 0.00013758
20350.0 0.0001369
20370.0 0.00013651
20390.0 0.00013641
20410.0 0.00013659
20430.0 0.00013702
20450.0 0.00013776
20470.0 0.00013877
20490.0 0.00014
20510.0 0.00014148
20530.0 0.00014329
20550.0 0.00014529
20570.0 0.00014742
20590.0 0.00014983
20610.0 0.00015242
20630.0 0.00015504
20650.0 0.00015777
20670.0 0.0001607
20690.0 0.00016349
20710.0 0.00016621
20730.0 0.00016895
20750.0 0.00017162
20770.0 0.00017406
20790.0 0.00017646
20810.0 0.00017883
20830.0 0.00018106
20850.0 0.00018321
20870.0 0.00018545
20890.0 0.00018772
20910.0 0.00018992
20930.0 0.00019225
20950.0 0.00019473
20970.0 0.00019721
20990.0 0.00019971
21010.0 0.00020239
21030.0 0.00020502
21050.0 0.00020752
21070.0 0.00020996
21090.0 0.00021231
21110.0 0.00021433
21130.0 0.00021607
21150.0 0.00021759
21170.0 0.00021875
21190.0 0.00021953
21210.0 0.00021999
21230.0 0.00022008
21250.0 0.0002198
21270.0 0.00021919
21290.0 0.00021821
21310.0 0.00021692
21330.0 0.00021539
21350.0 0.00021356
21370.0 0.00021144
21390.0 0.00020918
21410.0 0.00020676
21430.0 0.00020403
21450.0 0.00020127
21470.0 0.00019852
21490.0 0.00019564
21510.0 0.00019273
21530.0 0.00018996
21550.0 0.00018725
21570.0 0.00018454
21590.0 0.00018206
21610.0 0.0001798
21630.0 0.0001777
21650.0 0.00017582
21670.0 0.00017432
21690.0 0.00017309
21710.0 0.00017215
21730.0 0.00017156
21750.0 0.0001713
21770.0 0.00017139
21790.0 0.00017183
21810.0 0.00017259
21830.0 0.00017367
21850.0 0.00017511
21870.0 0.00017682
21890.0 0.00017872
21910.0 0.00018096
21930.0 0.00018342
21950.0 0.00018599
21970.0 0.00018876
21990.0 0.00019182
22010.0 0.00019484
22030.0 0.00019789
22050.0 0.00020109
22070.0 0.0002043
22090.0 0.00020734
22110.0 0.0002104
22130.0 0.00021345
22150.0 0.00021626
22170.0 0.00021888
22190.0 0.00022141
22210.0 0.00022367
22230.0 0.00022554
22250.0 0.00022716
22270.0 0.00022846
22290.0 0.00022935
22310.0 0.00022986
22330.0 0.00022996
22350.0 0.00022961
22370.0 0.00022884
22390.0 0.00022761
22410.0 0.00022586
22430.0 0.00022376
22450.0 0.00022126
22470.0 0.00021826
22490.0 0.0002149
22510.0 0.00021132
22530.0 0.00020726
22550.0 0.00020283
22570.0 0.00019834
22590.0 0.00019365
22610.0 0.00018863
22630.0 0.00018354
22650.0 0.0001786
22670.0 0.00017342
22690.0 0.0001682
22710.0 0.00016319
22730.0 0.00015827
22750.0 0.00015319
22770.0 0.00014846
22790.0 0.00014405
22810.0 0.00013973
22830.0 0.00013563
22850.0 0.00013198
22870.0 0.0001286
22890.0 0.00012545
22910.0 0.00012276
22930.0 0.00012051
22950.0 0.0001186
22970.0 0.00011713
22990.0 0.00011619
23010.0 0.00011568
23030.0 0.00011563
23050.0 0.00011605
23070.0 0.00011688
23090.0 0.00011822
