#lamb flux
1010.0 2.7672e-06
1030.0 2.7672e-06
1050.0 2.7672e-06
1070.0 2.7672e-06
1090.0 2.7672e-06
1110.0 2.7672e-06
1130.0 2.7672e-06
1150.0 2.7672e-06
1170.0 2.7672e-06
1190.0 2.7672e-06
1210.0 2.7672e-06
1230.0 2.7672e-06
1250.0 2.7672e-06
1270.0 2.7672e-06
1290.0 2.7672e-06
1310.0 2.7672e-06
1330.0 2.7672e-06
1350.0 2.7672e-06
1370.0 2.7672e-06
1390.0 2.7672e-06
1410.0 2.7672e-06
1430.0 2.7672e-06
1450.0 2.7672e-06
1470.0 2.7672e-06
1490.0 2.7672e-06
1510.0 2.7672e-06
1530.0 2.7701e-06
1550.0 3.2863e-06
1570.0 3.8539e-06
1590.0 4.4741e-06
1610.0 5.1405e-06
1630.0 5.8548e-06
1650.0 6.6423e-06
1670.0 7.4986e-06
1690.0 8.4336e-06
1710.0 9.4671e-06
1730.0 1.0601e-05
1750.0 1.1822e-05
1770.0 1.3162e-05
1790.0 1.4623e-05
1810.0 1.6193e-05
1830.0 1.7876e-05
1850.0 1.9703e-05
1870.0 2.1638e-05
1890.0 2.3668e-05
1910.0 2.581e-05
1930.0 2.8057e-05
1950.0 3.0355e-05
1970.0 3.2703e-05
1990.0 3.5112e-05
2010.0 3.7527e-05
2030.0 3.9908e-05
2050.0 4.2277e-05
2070.0 4.4607e-05
2090.0 4.6808e-05
2110.0 4.8898e-05
2130.0 5.0882e-05
2150.0 5.2701e-05
2170.0 5.4315e-05
2190.0 5.5782e-05
2210.0 5.7065e-05
2230.0 5.8119e-05
2250.0 5.8972e-05
2270.0 5.967e-05
2290.0 6.0151e-05
2310.0 6.0415e-05
2330.0 6.0535e-05
2350.0 6.0504e-05
2370.0 6.0297e-05
2390.0 5.9974e-05
2410.0 5.9585e-05
2430.0 5.9086e-05
2450.0 5.8508e-05
2470.0 5.7916e-05
2490.0 5.7334e-05
2510.0 5.6751e-05
2530.0 5.6329e-05
2550.0 5.6278e-05
2570.0 5.6782e-05
2590.0 5.8076e-05
2610.0 6.0791e-05
2630.0 6.5047e-05
2650.0 7.0583e-05
2670.0 7.758e-05
2690.0 8.5963e-05
2710.0 9.4739e-05
2730.0 0.00010354
2750.0 0.00011289
2770.0 0.00012217
2790.0 0.00013108
2810.0 0.00014024
2830.0 0.00015016
2850.0 0.00015978
2870.0 0.00016966
2890.0 0.00018031
2910.0 0.00019137
2930.0 0.00020243
2950.0 0.00021438
2970.0 0.00022712
2990.0 0.00024006
3010.0 0.0002535
3030.0 0.00026794
3050.0 0.00028289
3070.0 0.0002975
3090.0 0.00031239
3110.0 0.00032678
3130.0 0.00033951
3150.0 0.00035016
3170.0 0.00035823
3190.0 0.00036296
3210.0 0.00036434
3230.0 0.00036381
3250.0 0.00036577
3270.0 0.000373
3290.0 0.00038476
3310.0 0.00040013
3330.0 0.0004191
3350.0 0.00044051
3370.0 0.00046435
3390.0 0.00049054
3410.0 0.00051641
3430.0 0.00056314
3450.0 0.00059853
3470.0 0.00063316
3490.0 0.00064639
3510.0 0.00063522
3530.0 0.00071135
3550.0 0.00085292
3570.0 0.00093773
3590.0 0.00098032
3610.0 0.00098978
3630.0 0.00095178
3650.0 0.0010279
3670.0 0.0012288
3690.0 0.0013825
3710.0 0.0014531
3730.0 0.0015032
3750.0 0.001573
3770.0 0.0015692
3790.0 0.0015001
3810.0 0.0014094
3830.0 0.0013099
3850.0 0.0013015
3870.0 0.0013962
3890.0 0.0014936
3910.0 0.0015665
3930.0 0.0015984
3950.0 0.0017169
3970.0 0.0018358
3990.0 0.0017605
4010.0 0.0015636
4030.0 0.0013781
4050.0 0.0013183
4070.0 0.0013644
4090.0 0.0013761
4110.0 0.0013428
4130.0 0.0013221
4150.0 0.0013443
4170.0 0.0014762
4190.0 0.0016148
4210.0 0.0015832
4230.0 0.0014877
4250.0 0.0014403
4270.0 0.0014216
4290.0 0.0014624
4310.0 0.0015142
4330.0 0.0014422
4350.0 0.0012605
4370.0 0.0011102
4390.0 0.0010062
4410.0 0.00091826
4430.0 0.00091288
4450.0 0.00099072
4470.0 0.0010638
4490.0 0.0011604
4510.0 0.0013223
4530.0 0.0016473
4550.0 0.0020394
4570.0 0.0022736
4590.0 0.0024276
4610.0 0.0026378
4630.0 0.0027672
4650.0 0.0025829
4670.0 0.0021349
4690.0 0.0017769
4710.0 0.0016443
4730.0 0.0015965
4750.0 0.0014517
4770.0 0.0013323
4790.0 0.0013917
4810.0 0.0015161
4830.0 0.001522
4850.0 0.0014181
4870.0 0.001372
4890.0 0.0014477
4910.0 0.0015316
4930.0 0.0015377
4950.0 0.0014875
4970.0 0.0014059
4990.0 0.0012826
5010.0 0.0011679
5030.0 0.0011
5050.0 0.0010691
5070.0 0.0010463
5090.0 0.0010221
5110.0 0.0010181
5130.0 0.0010294
5150.0 0.0010846
5170.0 0.0012034
5190.0 0.0013482
5210.0 0.0015099
5230.0 0.0016108
5250.0 0.0016617
5270.0 0.0017518
5290.0 0.0018488
5310.0 0.0018796
5330.0 0.0018069
5350.0 0.0017135
5370.0 0.001711
5390.0 0.0018216
5410.0 0.0019442
5430.0 0.0020061
5450.0 0.0020075
5470.0 0.001951
5490.0 0.0018724
5510.0 0.0018263
5530.0 0.0018255
5550.0 0.0018469
5570.0 0.0018604
5590.0 0.0018088
5610.0 0.0017122
5630.0 0.0016024
5650.0 0.0015037
5670.0 0.0014441
5690.0 0.0013941
5710.0 0.0013583
5730.0 0.001374
5750.0 0.0013677
5770.0 0.0013379
5790.0 0.0013459
5810.0 0.0013669
5830.0 0.0013899
5850.0 0.0014004
5870.0 0.0013727
5890.0 0.0013131
5910.0 0.0012386
5930.0 0.0011283
5950.0 0.0010452
5970.0 0.0010342
5990.0 0.0010701
6010.0 0.0010896
6030.0 0.0010522
6050.0 0.0010268
6070.0 0.0010661
6090.0 0.0011338
6110.0 0.0011687
6130.0 0.0011353
6150.0 0.0010698
6170.0 0.0010239
6190.0 0.00097774
6210.0 0.00092306
6230.0 0.00087523
6250.0 0.00085629
6270.0 0.00087807
6290.0 0.00091708
6310.0 0.00097149
6330.0 0.0010387
6350.0 0.0011031
6370.0 0.0011366
6390.0 0.0011427
6410.0 0.0011534
6430.0 0.0011653
6450.0 0.0011731
6470.0 0.0011928
6490.0 0.001215
6510.0 0.001226
6530.0 0.0012186
6550.0 0.0011901
6570.0 0.0011467
6590.0 0.001104
6610.0 0.0010735
6630.0 0.001052
6650.0 0.0010174
6670.0 0.00097288
6690.0 0.00093749
6710.0 0.00091713
6730.0 0.00091026
6750.0 0.00089781
6770.0 0.00087921
6790.0 0.00086523
6810.0 0.00085163
6830.0 0.00084628
6850.0 0.00085379
6870.0 0.00085438
6890.0 0.00084724
6910.0 0.00082826
6930.0 0.00080899
6950.0 0.00079952
6970.0 0.00077919
6990.0 0.00075157
7010.0 0.00073964
7030.0 0.00073209
7050.0 0.00071356
7070.0 0.0006887
7090.0 0.00067501
7110.0 0.00068585
7130.0 0.00072022
7150.0 0.00075915
7170.0 0.00078418
7190.0 0.00077739
7210.0 0.00075439
7230.0 0.00074015
7250.0 0.00073332
7270.0 0.00072984
7290.0 0.00072226
7310.0 0.00072224
7330.0 0.00073913
7350.0 0.00076087
7370.0 0.00077378
7390.0 0.00076818
7410.0 0.00074895
7430.0 0.00073335
7450.0 0.00071684
7470.0 0.00068058
7490.0 0.00065607
7510.0 0.00063214
7530.0 0.00061572
7550.0 0.0006174
7570.0 0.00062472
7590.0 0.00062499
7610.0 0.00062054
7630.0 0.00061796
7650.0 0.0006177
7670.0 0.00063085
7690.0 0.00065163
7710.0 0.00067798
7730.0 0.00069681
7750.0 0.00071805
7770.0 0.00073022
7790.0 0.00073271
7810.0 0.00072729
7830.0 0.00073223
7850.0 0.00072666
7870.0 0.00069893
7890.0 0.00067008
7910.0 0.00064862
7930.0 0.00062916
7950.0 0.00061369
7970.0 0.00060913
7990.0 0.00061541
8010.0 0.00060084
8030.0 0.00059404
8050.0 0.00058472
8070.0 0.0005739
8090.0 0.00056276
8110.0 0.0005629
8130.0 0.00056661
8150.0 0.00056492
8170.0 0.00056077
8190.0 0.0005475
8210.0 0.00051746
8230.0 0.00048241
8250.0 0.0004614
8270.0 0.00044694
8290.0 0.00043544
8310.0 0.00043345
8330.0 0.00043708
8350.0 0.00042682
8370.0 0.00041823
8390.0 0.00042821
8410.0 0.00045054
8430.0 0.0004813
8450.0 0.00051223
8470.0 0.00052729
8490.0 0.00053972
8510.0 0.00054625
8530.0 0.00055311
8550.0 0.0005617
8570.0 0.00056666
8590.0 0.00057143
8610.0 0.00058692
8630.0 0.0005934
8650.0 0.00058131
8670.0 0.00058133
8690.0 0.0005879
8710.0 0.00059143
8730.0 0.00058778
8750.0 0.00057226
8770.0 0.00056557
8790.0 0.0005621
8810.0 0.00055432
8830.0 0.00052034
8850.0 0.00047677
8870.0 0.00044538
8890.0 0.00042835
8910.0 0.00040413
8930.0 0.00037602
8950.0 0.00035982
8970.0 0.00035755
8990.0 0.00036025
9010.0 0.00035922
9030.0 0.00035667
9050.0 0.00035429
9070.0 0.00035218
9090.0 0.00035011
9110.0 0.00034807
9130.0 0.00034603
9150.0 0.000344
9170.0 0.00034198
9190.0 0.00033996
9210.0 0.00033793
9230.0 0.00033595
9250.0 0.00033397
9270.0 0.000332
9290.0 0.00033004
9310.0 0.00032808
9330.0 0.00032614
9350.0 0.00032421
9370.0 0.00032228
9390.0 0.00032037
9410.0 0.00031846
9430.0 0.00031655
9450.0 0.00031454
9470.0 0.00031259
9490.0 0.00031084
9510.0 0.00030904
9530.0 0.00030724
9550.0 0.00030542
9570.0 0.0003036
9590.0 0.0003018
9610.0 0.00030001
9630.0 0.00029821
9650.0 0.00029643
9670.0 0.00029467
9690.0 0.0002929
9710.0 0.00029114
9730.0 0.00028941
9750.0 0.00028767
9770.0 0.00028593
9790.0 0.00028421
9810.0 0.00028251
9830.0 0.00028077
9850.0 0.00027889
9870.0 0.00027725
9890.0 0.00027564
9910.0 0.000274
9930.0 0.00027234
9950.0 0.00027073
9970.0 0.00026907
9990.0 0.00026738
10010.0 0.00026551
10030.0 0.00026378
10050.0 0.00026227
10070.0 0.00026073
10090.0 0.00025918
10110.0 0.00025749
10130.0 0.00025538
10150.0 0.00025386
10170.0 0.00025244
10190.0 0.0002509
10210.0 0.00024938
10230.0 0.00024786
10250.0 0.00024625
10270.0 0.00024464
10290.0 0.00024308
10310.0 0.00024146
10330.0 0.00023979
10350.0 0.0002382
10370.0 0.00023661
10390.0 0.00023496
10410.0 0.00023332
10430.0 0.00023176
10450.0 0.00023013
10470.0 0.00022846
10490.0 0.00022686
10510.0 0.00022526
10530.0 0.00022355
10550.0 0.00022189
10570.0 0.0002203
10590.0 0.00021864
10610.0 0.00021694
10630.0 0.00021532
10650.0 0.00021369
10670.0 0.00021196
10690.0 0.00021028
10710.0 0.00020863
10730.0 0.00020692
10750.0 0.00020515
10770.0 0.0002035
10790.0 0.00020181
10810.0 0.00020005
10830.0 0.00019833
10850.0 0.00019666
10870.0 0.00019488
10890.0 0.0001931
10910.0 0.00019139
10930.0 0.00018968
10950.0 0.00018791
10970.0 0.00018622
10990.0 0.00018462
11010.0 0.00018457
11030.0 0.00018301
11050.0 0.00018153
11070.0 0.00018005
11090.0 0.0001785
11110.0 0.00017705
11130.0 0.00017563
11150.0 0.00017419
11170.0 0.00017278
11190.0 0.00017148
11210.0 0.0001702
11230.0 0.00016895
11250.0 0.00016781
11270.0 0.00016676
11290.0 0.00016574
11310.0 0.00016479
11330.0 0.00016396
11350.0 0.00016316
11370.0 0.0001624
11390.0 0.00016169
11410.0 0.00016102
11430.0 0.00016033
11450.0 0.00015964
11470.0 0.00015896
11490.0 0.00015825
11510.0 0.00015747
11530.0 0.00015667
11550.0 0.00015582
11570.0 0.00015487
11590.0 0.00015386
11610.0 0.0001528
11630.0 0.00015163
11650.0 0.00015035
11670.0 0.00014904
11690.0 0.00014765
11710.0 0.00014614
11730.0 0.00014458
11750.0 0.00014301
11770.0 0.00014133
11790.0 0.00013957
11810.0 0.00013783
11830.0 0.00013606
11850.0 0.00013418
11870.0 0.00013234
11890.0 0.00013054
11910.0 0.0001287
11930.0 0.00012686
11950.0 0.00012511
11970.0 0.00012339
11990.0 0.00012164
12010.0 0.00011998
12030.0 0.00011842
12050.0 0.00011687
12070.0 0.00011536
12090.0 0.000114
12110.0 0.00011269
12130.0 0.00011143
12150.0 0.00011027
12170.0 0.00010922
12190.0 0.0001082
12210.0 0.00010729
12230.0 0.00010651
12250.0 0.00010582
12270.0 0.00010523
12290.0 0.00010475
12310.0 0.00010438
12330.0 0.00010409
12350.0 0.0001039
12370.0 0.00010379
12390.0 0.00010375
12410.0 0.00010377
12430.0 0.00010382
12450.0 0.0001039
12470.0 0.00010401
12490.0 0.00010411
12510.0 0.00010419
12530.0 0.00010426
12550.0 0.00010429
12570.0 0.00010427
12590.0 0.00010418
12610.0 0.00010404
12630.0 0.00010381
12650.0 0.0001035
12670.0 0.0001031
12690.0 0.0001026
12710.0 0.00010203
12730.0 0.00010138
12750.0 0.00010061
12770.0 9.9779e-05
12790.0 9.89e-05
12810.0 9.795e-05
12830.0 9.693e-05
12850.0 9.5912e-05
12870.0 9.4876e-05
12890.0 9.3794e-05
12910.0 9.2718e-05
12930.0 9.1673e-05
12950.0 9.0603e-05
12970.0 8.9529e-05
12990.0 8.8514e-05
13010.0 8.7517e-05
13030.0 8.6513e-05
13050.0 8.5545e-05
13070.0 8.463e-05
13090.0 8.3708e-05
13110.0 8.2806e-05
13130.0 8.1957e-05
13150.0 8.1136e-05
13170.0 8.0315e-05
13190.0 7.9551e-05
13210.0 7.884e-05
13230.0 7.8147e-05
13250.0 7.7486e-05
13270.0 7.688e-05
13290.0 7.6299e-05
13310.0 7.5731e-05
13330.0 7.5199e-05
13350.0 7.4694e-05
13370.0 7.419e-05
13390.0 7.3687e-05
13410.0 7.3207e-05
13430.0 7.2718e-05
13450.0 7.221e-05
13470.0 7.1699e-05
13490.0 7.1186e-05
13510.0 7.0631e-05
13530.0 7.0062e-05
13550.0 6.9495e-05
13570.0 6.8905e-05
13590.0 6.8285e-05
13610.0 6.7669e-05
13630.0 6.7058e-05
13650.0 6.6416e-05
13670.0 6.5773e-05
13690.0 6.5146e-05
13710.0 6.451e-05
13730.0 6.3848e-05
13750.0 6.322e-05
13770.0 6.2599e-05
13790.0 6.1962e-05
13810.0 6.1331e-05
13830.0 6.0727e-05
13850.0 6.0109e-05
13870.0 5.9483e-05
13890.0 5.8882e-05
13910.0 5.8291e-05
13930.0 5.7685e-05
13950.0 5.7091e-05
13970.0 5.6532e-05
13990.0 5.5967e-05
14010.0 5.5403e-05
14030.0 5.4865e-05
14050.0 5.434e-05
14070.0 5.3797e-05
14090.0 5.3276e-05
14110.0 5.2778e-05
14130.0 5.2278e-05
14150.0 5.1777e-05
14170.0 5.1309e-05
14190.0 5.0854e-05
14210.0 5.0396e-05
14230.0 4.9961e-05
14250.0 4.9556e-05
14270.0 4.9152e-05
14290.0 4.8762e-05
14310.0 4.8411e-05
14330.0 4.8077e-05
14350.0 4.7752e-05
14370.0 4.7453e-05
14390.0 4.7182e-05
14410.0 4.6914e-05
14430.0 4.6661e-05
14450.0 4.643e-05
14470.0 4.6209e-05
14490.0 4.5986e-05
14510.0 4.578e-05
14530.0 4.5586e-05
14550.0 4.5389e-05
14570.0 4.5192e-05
14590.0 4.5005e-05
14610.0 4.4813e-05
14630.0 4.4612e-05
14650.0 4.4418e-05
14670.0 4.4229e-05
14690.0 4.4036e-05
14710.0 4.3849e-05
14730.0 4.3689e-05
14750.0 4.3544e-05
14770.0 4.3424e-05
14790.0 4.3345e-05
14810.0 4.3313e-05
14830.0 4.3332e-05
14850.0 4.3415e-05
14870.0 4.356e-05
14890.0 4.3769e-05
14910.0 4.4042e-05
14930.0 4.4352e-05
14950.0 4.4679e-05
14970.0 4.5021e-05
14990.0 4.5339e-05
15010.0 4.5613e-05
15030.0 4.5842e-05
15050.0 4.6024e-05
15070.0 4.6155e-05
15090.0 4.6252e-05
15110.0 4.6326e-05
15130.0 4.6385e-05
15150.0 4.6438e-05
15170.0 4.6487e-05
15190.0 4.6535e-05
15210.0 4.6584e-05
15230.0 4.6635e-05
15250.0 4.6686e-05
15270.0 4.674e-05
15290.0 4.6796e-05
15310.0 4.6853e-05
15330.0 4.6911e-05
15350.0 4.6972e-05
15370.0 4.7035e-05
15390.0 4.7097e-05
15410.0 4.7162e-05
15430.0 4.723e-05
15450.0 4.7298e-05
15470.0 4.7366e-05
15490.0 4.7438e-05
15510.0 4.7511e-05
15530.0 4.7584e-05
15550.0 4.766e-05
15570.0 4.7737e-05
15590.0 4.7815e-05
15610.0 4.7893e-05
15630.0 4.7974e-05
15650.0 4.8057e-05
15670.0 4.8139e-05
15690.0 4.8224e-05
15710.0 4.8311e-05
15730.0 4.8397e-05
15750.0 4.8484e-05
15770.0 4.8574e-05
15790.0 4.8664e-05
15810.0 4.8754e-05
15830.0 4.8846e-05
15850.0 4.894e-05
15870.0 4.9034e-05
15890.0 4.9129e-05
15910.0 4.9226e-05
15930.0 4.9323e-05
15950.0 4.942e-05
15970.0 4.9519e-05
15990.0 4.9619e-05
16010.0 4.9718e-05
16030.0 4.9818e-05
16050.0 4.9921e-05
16070.0 5.0024e-05
16090.0 5.0126e-05
16110.0 5.023e-05
16130.0 5.0335e-05
16150.0 5.0438e-05
16170.0 5.0543e-05
16190.0 5.065e-05
16210.0 5.0756e-05
16230.0 5.0861e-05
16250.0 5.0969e-05
16270.0 5.1077e-05
16290.0 5.1184e-05
16310.0 5.1291e-05
16330.0 5.14e-05
16350.0 5.1509e-05
16370.0 5.1615e-05
16390.0 5.1724e-05
16410.0 5.1834e-05
16430.0 5.1942e-05
16450.0 5.205e-05
16470.0 5.216e-05
16490.0 5.2269e-05
16510.0 5.2376e-05
16530.0 5.2485e-05
16550.0 5.2594e-05
16570.0 5.2701e-05
16590.0 5.2808e-05
16610.0 5.2917e-05
16630.0 5.3024e-05
16650.0 5.313e-05
16670.0 5.3238e-05
16690.0 5.3345e-05
16710.0 5.3448e-05
16730.0 5.3553e-05
16750.0 5.3659e-05
16770.0 5.3762e-05
16790.0 5.3864e-05
16810.0 5.3968e-05
16830.0 5.4071e-05
16850.0 5.4171e-05
16870.0 5.4272e-05
16890.0 5.4373e-05
16910.0 5.447e-05
16930.0 5.4567e-05
16950.0 5.4665e-05
16970.0 5.4761e-05
16990.0 5.4855e-05
17010.0 5.4949e-05
17030.0 5.5043e-05
17050.0 5.5134e-05
17070.0 5.5223e-05
17090.0 5.5314e-05
17110.0 5.5402e-05
17130.0 5.5487e-05
17150.0 5.5572e-05
17170.0 5.5657e-05
17190.0 5.5739e-05
17210.0 5.582e-05
17230.0 5.5901e-05
17250.0 5.5979e-05
17270.0 5.6054e-05
17290.0 5.6129e-05
17310.0 5.6203e-05
17330.0 5.6274e-05
17350.0 5.6342e-05
17370.0 5.6412e-05
17390.0 5.6478e-05
17410.0 5.6542e-05
17430.0 5.6605e-05
17450.0 5.6667e-05
17470.0 5.6724e-05
17490.0 5.678e-05
17510.0 5.6836e-05
17530.0 5.6888e-05
17550.0 5.6938e-05
17570.0 5.6987e-05
17590.0 5.7035e-05
17610.0 5.7078e-05
17630.0 5.7119e-05
17650.0 5.716e-05
17670.0 5.7197e-05
17690.0 5.723e-05
17710.0 5.7264e-05
17730.0 5.7295e-05
17750.0 5.7323e-05
17770.0 5.7348e-05
17790.0 5.7373e-05
17810.0 5.7393e-05
17830.0 5.741e-05
17850.0 5.7426e-05
17870.0 5.744e-05
17890.0 5.7449e-05
17910.0 5.7456e-05
17930.0 5.7463e-05
17950.0 5.7466e-05
17970.0 5.7465e-05
17990.0 5.7463e-05
18010.0 5.7458e-05
18030.0 5.7448e-05
18050.0 5.7437e-05
18070.0 5.7424e-05
18090.0 5.7407e-05
18110.0 5.7386e-05
18130.0 5.7366e-05
18150.0 5.7341e-05
18170.0 5.7312e-05
18190.0 5.7281e-05
18210.0 5.7249e-05
18230.0 5.7211e-05
18250.0 5.717e-05
18270.0 5.7129e-05
18290.0 5.7084e-05
18310.0 5.7034e-05
18330.0 5.6983e-05
18350.0 5.6931e-05
18370.0 5.6872e-05
18390.0 5.6811e-05
18410.0 5.6749e-05
18430.0 5.6683e-05
18450.0 5.6612e-05
18470.0 5.654e-05
18490.0 5.6466e-05
18510.0 5.6387e-05
18530.0 5.6306e-05
18550.0 5.6223e-05
18570.0 5.6136e-05
18590.0 5.6044e-05
18610.0 5.5951e-05
18630.0 5.5856e-05
18650.0 5.5756e-05
18670.0 5.5653e-05
18690.0 5.555e-05
18710.0 5.5442e-05
18730.0 5.533e-05
18750.0 5.5217e-05
18770.0 5.5102e-05
18790.0 5.498e-05
18810.0 5.4857e-05
18830.0 5.4733e-05
18850.0 5.4604e-05
18870.0 5.4472e-05
18890.0 5.4339e-05
18910.0 5.4203e-05
18930.0 5.4062e-05
18950.0 5.392e-05
18970.0 5.3776e-05
18990.0 5.3628e-05
19010.0 5.3475e-05
19030.0 5.3323e-05
19050.0 5.3168e-05
19070.0 5.3008e-05
19090.0 5.2847e-05
19110.0 5.2685e-05
19130.0 5.2517e-05
19150.0 5.2347e-05
19170.0 5.2176e-05
19190.0 5.2003e-05
19210.0 5.1825e-05
19230.0 5.1645e-05
19250.0 5.1466e-05
19270.0 5.1282e-05
19290.0 5.1095e-05
19310.0 5.0907e-05
19330.0 5.0717e-05
19350.0 5.0522e-05
19370.0 5.0327e-05
19390.0 5.0131e-05
19410.0 4.9931e-05
19430.0 4.9728e-05
19450.0 4.9525e-05
19470.0 4.932e-05
19490.0 4.9111e-05
19510.0 4.8901e-05
19530.0 4.8691e-05
19550.0 4.8476e-05
19570.0 4.8259e-05
19590.0 4.8043e-05
19610.0 4.7824e-05
19630.0 4.7602e-05
19650.0 4.7379e-05
19670.0 4.7156e-05
19690.0 4.6929e-05
19710.0 4.6701e-05
19730.0 4.6472e-05
19750.0 4.6242e-05
19770.0 4.6008e-05
19790.0 4.5774e-05
19810.0 4.554e-05
19830.0 4.5302e-05
19850.0 4.5061e-05
19870.0 4.4819e-05
19890.0 4.4567e-05
19910.0 4.43e-05
19930.0 4.4016e-05
19950.0 4.3704e-05
19970.0 4.3347e-05
19990.0 4.2939e-05
20010.0 4.2486e-05
20030.0 4.1968e-05
20050.0 4.1389e-05
20070.0 4.0776e-05
20090.0 4.0134e-05
20110.0 3.9438e-05
20130.0 3.8744e-05
20150.0 3.8063e-05
20170.0 3.737e-05
20190.0 3.6676e-05
20210.0 3.6014e-05
20230.0 3.5364e-05
20250.0 3.4711e-05
20270.0 3.4088e-05
20290.0 3.3496e-05
20310.0 3.2913e-05
20330.0 3.2342e-05
20350.0 3.1822e-05
20370.0 3.1322e-05
20390.0 3.0837e-05
20410.0 3.0385e-05
20430.0 2.9967e-05
20450.0 2.9562e-05
20470.0 2.9184e-05
20490.0 2.8838e-05
20510.0 2.8513e-05
20530.0 2.8207e-05
20550.0 2.7926e-05
20570.0 2.7669e-05
20590.0 2.7425e-05
20610.0 2.7199e-05
20630.0 2.699e-05
20650.0 2.6792e-05
20670.0 2.6605e-05
20690.0 2.6428e-05
20710.0 2.6258e-05
20730.0 2.6092e-05
20750.0 2.5929e-05
20770.0 2.5766e-05
20790.0 2.5602e-05
20810.0 2.5434e-05
20830.0 2.5261e-05
20850.0 2.5081e-05
20870.0 2.4893e-05
20890.0 2.4694e-05
20910.0 2.4487e-05
20930.0 2.4268e-05
20950.0 2.4037e-05
20970.0 2.3796e-05
20990.0 2.3546e-05
21010.0 2.328e-05
21030.0 2.3005e-05
21050.0 2.2724e-05
21070.0 2.2433e-05
21090.0 2.213e-05
21110.0 2.1827e-05
21130.0 2.1521e-05
21150.0 2.1206e-05
21170.0 2.089e-05
21190.0 2.0579e-05
21210.0 2.0262e-05
21230.0 1.9944e-05
21250.0 1.9634e-05
21270.0 1.9329e-05
21290.0 1.9023e-05
21310.0 1.8723e-05
21330.0 1.8436e-05
21350.0 1.815e-05
21370.0 1.7869e-05
21390.0 1.7599e-05
21410.0 1.7338e-05
21430.0 1.7076e-05
21450.0 1.6827e-05
21470.0 1.6588e-05
21490.0 1.6353e-05
21510.0 1.6123e-05
21530.0 1.5905e-05
21550.0 1.5692e-05
21570.0 1.5482e-05
21590.0 1.5279e-05
21610.0 1.5084e-05
21630.0 1.4891e-05
21650.0 1.4701e-05
21670.0 1.452e-05
21690.0 1.4341e-05
21710.0 1.4164e-05
21730.0 1.3991e-05
21750.0 1.3822e-05
21770.0 1.3652e-05
21790.0 1.3484e-05
21810.0 1.332e-05
21830.0 1.3155e-05
21850.0 1.299e-05
21870.0 1.2826e-05
21890.0 1.2663e-05
21910.0 1.2498e-05
21930.0 1.2333e-05
21950.0 1.217e-05
21970.0 1.2005e-05
21990.0 1.1836e-05
22010.0 1.167e-05
22030.0 1.1504e-05
22050.0 1.1336e-05
22070.0 1.1167e-05
22090.0 1.1002e-05
22110.0 1.0835e-05
22130.0 1.0666e-05
22150.0 1.0501e-05
22170.0 1.0337e-05
22190.0 1.0171e-05
22210.0 1.0007e-05
22230.0 9.8468e-06
22250.0 9.6868e-06
22270.0 9.5268e-06
22290.0 9.3705e-06
22310.0 9.2165e-06
22330.0 9.0606e-06
22350.0 8.9075e-06
22370.0 8.7576e-06
22390.0 8.6077e-06
22410.0 8.4569e-06
22430.0 8.3105e-06
22450.0 8.1656e-06
22470.0 8.0192e-06
22490.0 7.8745e-06
22510.0 7.7331e-06
22530.0 7.5899e-06
22550.0 7.4464e-06
22570.0 7.307e-06
22590.0 7.1687e-06
22610.0 7.0297e-06
22630.0 6.8931e-06
22650.0 6.761e-06
22670.0 6.6286e-06
22690.0 6.498e-06
22710.0 6.3721e-06
22730.0 6.2492e-06
22750.0 6.1264e-06
22770.0 6.0092e-06
