#lamb flux
1010.0 3.215e-09
1030.0 4.0358e-09
1050.0 4.9736e-09
1070.0 6.0216e-09
1090.0 7.2025e-09
1110.0 8.4001e-09
1130.0 9.5901e-09
1150.0 1.0822e-08
1170.0 1.2078e-08
1190.0 1.325e-08
1210.0 1.4424e-08
1230.0 1.563e-08
1250.0 1.6803e-08
1270.0 1.7939e-08
1290.0 1.9147e-08
1310.0 2.0364e-08
1330.0 2.1546e-08
1350.0 2.2764e-08
1370.0 2.4049e-08
1390.0 2.5334e-08
1410.0 2.6616e-08
1430.0 2.7987e-08
1450.0 2.9393e-08
1470.0 3.0788e-08
1490.0 3.2225e-08
1510.0 3.3759e-08
1530.0 3.5242e-08
1550.0 3.6724e-08
1570.0 3.8258e-08
1590.0 3.98e-08
1610.0 4.1285e-08
1630.0 4.2807e-08
1650.0 4.436e-08
1670.0 4.5862e-08
1690.0 4.734e-08
1710.0 4.8859e-08
1730.0 5.0378e-08
1750.0 5.1805e-08
1770.0 5.3261e-08
1790.0 5.4737e-08
1810.0 5.6161e-08
1830.0 5.7554e-08
1850.0 5.8983e-08
1870.0 6.0339e-08
1890.0 6.1655e-08
1910.0 6.3005e-08
1930.0 6.4394e-08
1950.0 6.5731e-08
1970.0 6.706e-08
1990.0 6.8443e-08
2010.0 6.9809e-08
2030.0 7.1132e-08
2050.0 7.2501e-08
2070.0 7.3917e-08
2090.0 7.5263e-08
2110.0 7.6615e-08
2130.0 7.8014e-08
2150.0 7.9398e-08
2170.0 8.0734e-08
2190.0 8.2127e-08
2210.0 8.3511e-08
2230.0 8.4817e-08
2250.0 8.6123e-08
2270.0 8.7496e-08
2290.0 8.8836e-08
2310.0 9.0131e-08
2330.0 9.1476e-08
2350.0 9.284e-08
2370.0 9.4158e-08
2390.0 9.5495e-08
2410.0 9.6904e-08
2430.0 9.8298e-08
2450.0 9.9719e-08
2470.0 1.013e-07
2490.0 1.0316e-07
2510.0 1.0531e-07
2530.0 1.0812e-07
2550.0 1.1202e-07
2570.0 1.1728e-07
2590.0 1.2424e-07
2610.0 1.342e-07
2630.0 1.4739e-07
2650.0 1.6352e-07
2670.0 1.8342e-07
2690.0 2.0749e-07
2710.0 2.3385e-07
2730.0 2.6157e-07
2750.0 2.9154e-07
2770.0 3.2128e-07
2790.0 3.4896e-07
2810.0 3.7498e-07
2830.0 3.9936e-07
2850.0 4.1989e-07
2870.0 4.3811e-07
2890.0 4.5511e-07
2910.0 4.7104e-07
2930.0 4.8618e-07
2950.0 5.0176e-07
2970.0 5.1796e-07
2990.0 5.3453e-07
3010.0 5.5179e-07
3030.0 5.7022e-07
3050.0 5.8953e-07
3070.0 6.0919e-07
3090.0 6.3e-07
3110.0 6.5214e-07
3130.0 6.7588e-07
3150.0 7.0307e-07
3170.0 7.376e-07
3190.0 7.8251e-07
3210.0 8.4119e-07
3230.0 9.1908e-07
3250.0 1.0175e-06
3270.0 1.1104e-06
3290.0 1.259e-06
3310.0 1.566e-06
3330.0 1.6676e-06
3350.0 1.7174e-06
3370.0 1.7652e-06
3390.0 1.8138e-06
3410.0 1.8631e-06
3430.0 1.9128e-06
3450.0 1.9625e-06
3470.0 2.0113e-06
3490.0 2.0585e-06
3510.0 2.1019e-06
3530.0 2.0839e-06
3550.0 2.0262e-06
3570.0 2.0549e-06
3590.0 2.1819e-06
3610.0 2.377e-06
3630.0 2.4514e-06
3650.0 2.3535e-06
3670.0 2.1629e-06
3690.0 2.0536e-06
3710.0 2.0812e-06
3730.0 2.1497e-06
3750.0 2.1863e-06
3770.0 2.26e-06
3790.0 2.3423e-06
3810.0 2.3078e-06
3830.0 2.151e-06
3850.0 2.0115e-06
3870.0 1.9455e-06
3890.0 1.9221e-06
3910.0 1.8781e-06
3930.0 1.8563e-06
3950.0 1.9083e-06
3970.0 1.9691e-06
3990.0 1.9873e-06
4010.0 1.9136e-06
4030.0 1.8094e-06
4050.0 1.7428e-06
4070.0 1.6863e-06
4090.0 1.6402e-06
4110.0 1.5798e-06
4130.0 1.4851e-06
4150.0 1.3902e-06
4170.0 1.3339e-06
4190.0 1.2433e-06
4210.0 1.1257e-06
4230.0 1.0065e-06
4250.0 8.9362e-07
4270.0 8.0959e-07
4290.0 7.4684e-07
4310.0 7.1375e-07
4330.0 7.1262e-07
4350.0 7.1521e-07
4370.0 7.2206e-07
4390.0 7.4818e-07
4410.0 7.6627e-07
4430.0 7.3912e-07
4450.0 6.7132e-07
4470.0 6.1235e-07
4490.0 5.8001e-07
4510.0 5.5941e-07
4530.0 5.4917e-07
4550.0 5.4044e-07
4570.0 5.3823e-07
4590.0 5.4561e-07
4610.0 5.6289e-07
4630.0 5.7321e-07
4650.0 5.7852e-07
4670.0 5.6444e-07
4690.0 5.3111e-07
4710.0 4.9778e-07
4730.0 4.764e-07
4750.0 4.6323e-07
4770.0 4.6473e-07
4790.0 4.6293e-07
4810.0 4.5299e-07
4830.0 4.5363e-07
4850.0 4.6789e-07
4870.0 4.7248e-07
4890.0 4.6394e-07
4910.0 4.5341e-07
4930.0 4.2765e-07
4950.0 3.9015e-07
4970.0 3.6469e-07
4990.0 3.4381e-07
5010.0 3.3928e-07
5030.0 3.5073e-07
5050.0 3.5975e-07
5070.0 3.7318e-07
5090.0 3.9575e-07
5110.0 4.0181e-07
5130.0 4.0529e-07
5150.0 4.1283e-07
5170.0 4.1619e-07
5190.0 4.2711e-07
5210.0 4.2936e-07
5230.0 4.249e-07
5250.0 4.2842e-07
5270.0 4.3447e-07
5290.0 4.3567e-07
5310.0 4.324e-07
5330.0 4.2421e-07
5350.0 4.1831e-07
5370.0 4.1389e-07
5390.0 4.0847e-07
5410.0 4.0391e-07
5430.0 4.0386e-07
5450.0 4.0967e-07
5470.0 4.1728e-07
5490.0 4.2874e-07
5510.0 4.4177e-07
5530.0 4.4719e-07
5550.0 4.5398e-07
5570.0 4.5471e-07
5590.0 4.4494e-07
5610.0 4.4168e-07
5630.0 4.4515e-07
5650.0 4.3971e-07
5670.0 4.2996e-07
5690.0 4.1694e-07
5710.0 4.1607e-07
5730.0 4.2034e-07
5750.0 4.0238e-07
5770.0 3.8178e-07
5790.0 3.5059e-07
5810.0 3.0631e-07
5830.0 3.3046e-07
5850.0 3.6641e-07
5870.0 3.7459e-07
5890.0 3.7662e-07
5910.0 3.7943e-07
5930.0 3.7873e-07
5950.0 3.7233e-07
5970.0 3.6786e-07
5990.0 3.624e-07
6010.0 3.5141e-07
6030.0 3.3927e-07
6050.0 3.3399e-07
6070.0 3.3272e-07
6090.0 3.2751e-07
6110.0 3.1649e-07
6130.0 3.0581e-07
6150.0 2.9348e-07
6170.0 2.8111e-07
6190.0 2.6886e-07
6210.0 2.593e-07
6230.0 2.5541e-07
6250.0 2.5e-07
6270.0 2.4477e-07
6290.0 2.4271e-07
6310.0 2.4094e-07
6330.0 2.3559e-07
6350.0 2.2795e-07
6370.0 2.2351e-07
6390.0 2.193e-07
6410.0 2.1309e-07
6430.0 2.0739e-07
6450.0 2.0275e-07
6470.0 1.9833e-07
6490.0 1.9526e-07
6510.0 1.9207e-07
6530.0 1.8712e-07
6550.0 1.8298e-07
6570.0 1.8026e-07
6590.0 1.7984e-07
6610.0 1.7869e-07
6630.0 1.7267e-07
6650.0 1.6787e-07
6670.0 1.6619e-07
6690.0 1.636e-07
6710.0 1.5972e-07
6730.0 1.5834e-07
6750.0 1.5957e-07
6770.0 1.6923e-07
6790.0 1.8965e-07
6810.0 1.7998e-07
6830.0 1.5771e-07
6850.0 1.5159e-07
6870.0 1.4926e-07
6890.0 1.493e-07
6910.0 1.4962e-07
6930.0 1.5001e-07
6950.0 1.4946e-07
6970.0 1.4568e-07
6990.0 1.4436e-07
7010.0 1.4653e-07
7030.0 1.4714e-07
7050.0 1.45e-07
7070.0 1.4374e-07
7090.0 1.4486e-07
7110.0 1.4821e-07
7130.0 1.487e-07
7150.0 1.4921e-07
7170.0 1.5001e-07
7190.0 1.5211e-07
7210.0 1.5367e-07
7230.0 1.5515e-07
7250.0 1.5724e-07
7270.0 1.587e-07
7290.0 1.6112e-07
7310.0 1.6424e-07
7330.0 1.63e-07
7350.0 1.5961e-07
7370.0 1.573e-07
7390.0 1.5676e-07
7410.0 1.5765e-07
7430.0 1.5958e-07
7450.0 1.6059e-07
7470.0 1.6271e-07
7490.0 1.6174e-07
7510.0 1.601e-07
7530.0 1.6189e-07
7550.0 1.6726e-07
7570.0 1.6681e-07
7590.0 1.5813e-07
7610.0 1.566e-07
7630.0 1.6563e-07
7650.0 1.6883e-07
7670.0 1.7026e-07
7690.0 1.7777e-07
7710.0 1.8355e-07
7730.0 1.8525e-07
7750.0 1.9498e-07
7770.0 1.8985e-07
7790.0 1.8521e-07
7810.0 1.9642e-07
7830.0 2.038e-07
7850.0 2.0916e-07
7870.0 2.1308e-07
7890.0 2.1485e-07
7910.0 2.1326e-07
7930.0 2.148e-07
7950.0 2.2443e-07
7970.0 2.2443e-07
7990.0 2.0902e-07
8010.0 2.0305e-07
8030.0 2.0689e-07
8050.0 2.112e-07
8070.0 1.913e-07
8090.0 1.2615e-07
8110.0 1.3145e-07
8130.0 1.8671e-07
8150.0 2.011e-07
8170.0 2.0911e-07
8190.0 2.1382e-07
8210.0 2.1093e-07
8230.0 2.2837e-07
8250.0 2.3321e-07
8270.0 2.2086e-07
8290.0 2.1229e-07
8310.0 2.0903e-07
8330.0 2.2002e-07
8350.0 2.3042e-07
8370.0 2.2624e-07
8390.0 2.1579e-07
8410.0 2.1555e-07
8430.0 2.0203e-07
8450.0 2.0622e-07
8470.0 2.2537e-07
8490.0 2.2606e-07
8510.0 2.0959e-07
8530.0 1.9673e-07
8550.0 1.8868e-07
8570.0 1.7767e-07
8590.0 1.8276e-07
8610.0 1.9371e-07
8630.0 1.9903e-07
8650.0 2.0245e-07
8670.0 1.9705e-07
8690.0 1.9245e-07
8710.0 1.792e-07
8730.0 1.7269e-07
8750.0 1.7953e-07
8770.0 1.8225e-07
8790.0 1.8196e-07
8810.0 1.8082e-07
8830.0 1.8453e-07
8850.0 1.9386e-07
8870.0 1.8105e-07
8890.0 1.7064e-07
8910.0 1.6815e-07
8930.0 1.5836e-07
8950.0 1.5236e-07
8970.0 1.5218e-07
8990.0 1.4571e-07
9010.0 1.3677e-07
9030.0 1.3367e-07
9050.0 1.3257e-07
9070.0 1.3159e-07
9090.0 1.3059e-07
9110.0 1.296e-07
9130.0 1.2859e-07
9150.0 1.2759e-07
9170.0 1.2658e-07
9190.0 1.2557e-07
9210.0 1.2455e-07
9230.0 1.2354e-07
9250.0 1.2253e-07
9270.0 1.2152e-07
9290.0 1.205e-07
9310.0 1.195e-07
9330.0 1.185e-07
9350.0 1.175e-07
9370.0 1.1651e-07
9390.0 1.1552e-07
9410.0 1.1453e-07
9430.0 1.1356e-07
9450.0 1.1258e-07
9470.0 1.1162e-07
9490.0 1.1066e-07
9510.0 1.097e-07
9530.0 1.0876e-07
9550.0 1.0782e-07
9570.0 1.0689e-07
9590.0 1.0597e-07
9610.0 1.0506e-07
9630.0 1.0416e-07
9650.0 1.0327e-07
9670.0 1.0238e-07
9690.0 1.0151e-07
9710.0 1.0064e-07
9730.0 9.9786e-08
9750.0 9.8938e-08
9770.0 9.8101e-08
9790.0 9.7272e-08
9810.0 9.6453e-08
9830.0 9.5643e-08
9850.0 9.4842e-08
9870.0 9.4049e-08
9890.0 9.3269e-08
9910.0 9.2498e-08
9930.0 9.1735e-08
9950.0 9.0982e-08
9970.0 9.0239e-08
9990.0 8.9504e-08
10010.0 8.8779e-08
10030.0 8.8062e-08
10050.0 8.7355e-08
10070.0 8.6657e-08
10090.0 8.5968e-08
10110.0 8.5287e-08
10130.0 8.4615e-08
10150.0 8.3952e-08
10170.0 8.3297e-08
10190.0 8.2651e-08
10210.0 8.2013e-08
10230.0 8.1383e-08
10250.0 8.0761e-08
10270.0 8.0147e-08
10290.0 7.9541e-08
10310.0 7.8943e-08
10330.0 7.8353e-08
10350.0 7.7769e-08
10370.0 7.7194e-08
10390.0 7.6617e-08
10410.0 7.5938e-08
10430.0 7.523e-08
10450.0 7.4811e-08
10470.0 7.4329e-08
10490.0 7.3838e-08
10510.0 7.3341e-08
10530.0 7.2823e-08
10550.0 7.2312e-08
10570.0 7.1814e-08
10590.0 7.1311e-08
10610.0 7.0809e-08
10630.0 7.0325e-08
10650.0 6.9845e-08
10670.0 6.9357e-08
10690.0 6.8881e-08
10710.0 6.8419e-08
10730.0 6.7952e-08
10750.0 6.7483e-08
10770.0 6.7036e-08
10790.0 6.6592e-08
10810.0 6.6142e-08
10830.0 6.5703e-08
10850.0 6.5277e-08
10870.0 6.4839e-08
10890.0 6.4404e-08
10910.0 6.3984e-08
10930.0 6.3561e-08
10950.0 6.3128e-08
10970.0 6.2699e-08
10990.0 6.2277e-08
11010.0 6.0199e-08
11030.0 5.9759e-08
11050.0 5.9326e-08
11070.0 5.8884e-08
11090.0 5.8417e-08
11110.0 5.7963e-08
11130.0 5.751e-08
11150.0 5.704e-08
11170.0 5.6565e-08
11190.0 5.6104e-08
11210.0 5.5632e-08
11230.0 5.515e-08
11250.0 5.4683e-08
11270.0 5.4228e-08
11290.0 5.3767e-08
11310.0 5.3318e-08
11330.0 5.2906e-08
11350.0 5.2501e-08
11370.0 5.2108e-08
11390.0 5.1743e-08
11410.0 5.1401e-08
11430.0 5.106e-08
11450.0 5.0739e-08
11470.0 5.0438e-08
11490.0 5.0141e-08
11510.0 4.9842e-08
11530.0 4.9558e-08
11550.0 4.9276e-08
11570.0 4.8983e-08
11590.0 4.869e-08
11610.0 4.8399e-08
11630.0 4.8094e-08
11650.0 4.7775e-08
11670.0 4.7462e-08
11690.0 4.7143e-08
11710.0 4.6808e-08
11730.0 4.6472e-08
11750.0 4.6145e-08
11770.0 4.5803e-08
11790.0 4.5457e-08
11810.0 4.5122e-08
11830.0 4.479e-08
11850.0 4.4446e-08
11870.0 4.4118e-08
11890.0 4.3808e-08
11910.0 4.3499e-08
11930.0 4.3198e-08
11950.0 4.2921e-08
11970.0 4.2655e-08
11990.0 4.2395e-08
12010.0 4.2156e-08
12030.0 4.1938e-08
12050.0 4.173e-08
12070.0 4.1535e-08
12090.0 4.1365e-08
12110.0 4.1207e-08
12130.0 4.1059e-08
12150.0 4.0925e-08
12170.0 4.0804e-08
12190.0 4.0684e-08
12210.0 4.057e-08
12230.0 4.0461e-08
12250.0 4.035e-08
12270.0 4.0232e-08
12290.0 4.0108e-08
12310.0 3.9978e-08
12330.0 3.9829e-08
12350.0 3.9665e-08
12370.0 3.949e-08
12390.0 3.9295e-08
12410.0 3.9069e-08
12430.0 3.8837e-08
12450.0 3.8589e-08
12470.0 3.8316e-08
12490.0 3.8027e-08
12510.0 3.7736e-08
12530.0 3.7424e-08
12550.0 3.7093e-08
12570.0 3.6764e-08
12590.0 3.6432e-08
12610.0 3.6081e-08
12630.0 3.5728e-08
12650.0 3.5393e-08
12670.0 3.505e-08
12690.0 3.4705e-08
12710.0 3.4376e-08
12730.0 3.4059e-08
12750.0 3.3734e-08
12770.0 3.3428e-08
12790.0 3.3144e-08
12810.0 3.2866e-08
12830.0 3.2597e-08
12850.0 3.2356e-08
12870.0 3.2132e-08
12890.0 3.1917e-08
12910.0 3.1724e-08
12930.0 3.1554e-08
12950.0 3.1396e-08
12970.0 3.1256e-08
12990.0 3.1142e-08
13010.0 3.1046e-08
13030.0 3.0967e-08
13050.0 3.0907e-08
13070.0 3.0864e-08
13090.0 3.0833e-08
13110.0 3.0814e-08
13130.0 3.0803e-08
13150.0 3.0797e-08
13170.0 3.0791e-08
13190.0 3.0781e-08
13210.0 3.0764e-08
13230.0 3.0737e-08
13250.0 3.0695e-08
13270.0 3.0639e-08
13290.0 3.0566e-08
13310.0 3.047e-08
13330.0 3.0358e-08
13350.0 3.0229e-08
13370.0 3.0078e-08
13390.0 2.9905e-08
13410.0 2.9726e-08
13430.0 2.9528e-08
13450.0 2.931e-08
13470.0 2.9083e-08
13490.0 2.8851e-08
13510.0 2.8593e-08
13530.0 2.8328e-08
13550.0 2.8064e-08
13570.0 2.779e-08
13590.0 2.75e-08
13610.0 2.7215e-08
13630.0 2.6933e-08
13650.0 2.6636e-08
13670.0 2.6339e-08
13690.0 2.6051e-08
13710.0 2.5758e-08
13730.0 2.5452e-08
13750.0 2.5166e-08
13770.0 2.4886e-08
13790.0 2.4601e-08
13810.0 2.4324e-08
13830.0 2.4065e-08
13850.0 2.3804e-08
13870.0 2.3547e-08
13890.0 2.3307e-08
13910.0 2.3077e-08
13930.0 2.2847e-08
13950.0 2.2626e-08
13970.0 2.2426e-08
13990.0 2.2227e-08
14010.0 2.2033e-08
14030.0 2.1854e-08
14050.0 2.1684e-08
14070.0 2.1512e-08
14090.0 2.1353e-08
14110.0 2.1206e-08
14130.0 2.1062e-08
14150.0 2.0923e-08
14170.0 2.0797e-08
14190.0 2.0676e-08
14210.0 2.0557e-08
14230.0 2.0445e-08
14250.0 2.034e-08
14270.0 2.0234e-08
14290.0 2.013e-08
14310.0 2.0034e-08
14330.0 1.9939e-08
14350.0 1.9844e-08
14370.0 1.9751e-08
14390.0 1.9664e-08
14410.0 1.9574e-08
14430.0 1.9485e-08
14450.0 1.94e-08
14470.0 1.9315e-08
14490.0 1.9228e-08
14510.0 1.9144e-08
14530.0 1.9062e-08
14550.0 1.8978e-08
14570.0 1.8894e-08
14590.0 1.8812e-08
14610.0 1.8728e-08
14630.0 1.864e-08
14650.0 1.8555e-08
14670.0 1.8469e-08
14690.0 1.838e-08
14710.0 1.8289e-08
14730.0 1.8201e-08
14750.0 1.8111e-08
14770.0 1.8016e-08
14790.0 1.7922e-08
14810.0 1.7829e-08
14830.0 1.7729e-08
14850.0 1.7628e-08
14870.0 1.7529e-08
14890.0 1.7428e-08
14910.0 1.7325e-08
14930.0 1.7227e-08
14950.0 1.7134e-08
14970.0 1.7043e-08
14990.0 1.696e-08
15010.0 1.6887e-08
15030.0 1.6821e-08
15050.0 1.676e-08
15070.0 1.6709e-08
15090.0 1.6662e-08
15110.0 1.6617e-08
15130.0 1.6574e-08
15150.0 1.6533e-08
15170.0 1.6492e-08
15190.0 1.645e-08
15210.0 1.641e-08
15230.0 1.637e-08
15250.0 1.6328e-08
15270.0 1.6287e-08
15290.0 1.6247e-08
15310.0 1.6207e-08
15330.0 1.6165e-08
15350.0 1.6125e-08
15370.0 1.6086e-08
15390.0 1.6044e-08
15410.0 1.6003e-08
15430.0 1.5963e-08
15450.0 1.5922e-08
15470.0 1.5881e-08
15490.0 1.5841e-08
15510.0 1.5801e-08
15530.0 1.576e-08
15550.0 1.5719e-08
15570.0 1.568e-08
15590.0 1.5639e-08
15610.0 1.5597e-08
15630.0 1.5557e-08
15650.0 1.5517e-08
15670.0 1.5476e-08
15690.0 1.5435e-08
15710.0 1.5396e-08
15730.0 1.5355e-08
15750.0 1.5314e-08
15770.0 1.5274e-08
15790.0 1.5234e-08
15810.0 1.5193e-08
15830.0 1.5152e-08
15850.0 1.5113e-08
15870.0 1.5072e-08
15890.0 1.5031e-08
15910.0 1.4992e-08
15930.0 1.4952e-08
15950.0 1.491e-08
15970.0 1.487e-08
15990.0 1.4831e-08
16010.0 1.479e-08
16030.0 1.4749e-08
16050.0 1.471e-08
16070.0 1.467e-08
16090.0 1.4629e-08
16110.0 1.4589e-08
16130.0 1.455e-08
16150.0 1.4508e-08
16170.0 1.4467e-08
16190.0 1.4428e-08
16210.0 1.4388e-08
16230.0 1.4347e-08
16250.0 1.4307e-08
16270.0 1.4268e-08
16290.0 1.4227e-08
16310.0 1.4187e-08
16330.0 1.4147e-08
16350.0 1.4107e-08
16370.0 1.4065e-08
16390.0 1.4026e-08
16410.0 1.3987e-08
16430.0 1.3946e-08
16450.0 1.3906e-08
16470.0 1.3867e-08
16490.0 1.3827e-08
16510.0 1.3786e-08
16530.0 1.3746e-08
16550.0 1.3707e-08
16570.0 1.3665e-08
16590.0 1.3625e-08
16610.0 1.3586e-08
16630.0 1.3546e-08
16650.0 1.3505e-08
16670.0 1.3466e-08
16690.0 1.3427e-08
16710.0 1.3385e-08
16730.0 1.3345e-08
16750.0 1.3306e-08
16770.0 1.3266e-08
16790.0 1.3225e-08
16810.0 1.3186e-08
16830.0 1.3147e-08
16850.0 1.3106e-08
16870.0 1.3066e-08
16890.0 1.3027e-08
16910.0 1.2986e-08
16930.0 1.2945e-08
16950.0 1.2906e-08
16970.0 1.2867e-08
16990.0 1.2826e-08
17010.0 1.2786e-08
17030.0 1.2747e-08
17050.0 1.2707e-08
17070.0 1.2666e-08
17090.0 1.2627e-08
17110.0 1.2588e-08
17130.0 1.2546e-08
17150.0 1.2507e-08
17170.0 1.2468e-08
17190.0 1.2427e-08
17210.0 1.2387e-08
17230.0 1.2348e-08
17250.0 1.2308e-08
17270.0 1.2267e-08
17290.0 1.2228e-08
17310.0 1.2189e-08
17330.0 1.2148e-08
17350.0 1.2107e-08
17370.0 1.2069e-08
17390.0 1.2029e-08
17410.0 1.1988e-08
17430.0 1.1949e-08
17450.0 1.191e-08
17470.0 1.1869e-08
17490.0 1.1828e-08
17510.0 1.1789e-08
17530.0 1.1749e-08
17550.0 1.1709e-08
17570.0 1.1669e-08
17590.0 1.163e-08
17610.0 1.159e-08
17630.0 1.155e-08
17650.0 1.1511e-08
17670.0 1.1471e-08
17690.0 1.1429e-08
17710.0 1.139e-08
17730.0 1.1351e-08
17750.0 1.131e-08
17770.0 1.127e-08
17790.0 1.1232e-08
17810.0 1.1191e-08
17830.0 1.115e-08
17850.0 1.1111e-08
17870.0 1.1072e-08
17890.0 1.1031e-08
17910.0 1.099e-08
17930.0 1.0952e-08
17950.0 1.0912e-08
17970.0 1.0871e-08
17990.0 1.0832e-08
18010.0 1.0793e-08
18030.0 1.0751e-08
18050.0 1.0711e-08
18070.0 1.0672e-08
18090.0 1.0632e-08
18110.0 1.0591e-08
18130.0 1.0552e-08
18150.0 1.0513e-08
18170.0 1.0472e-08
18190.0 1.0432e-08
18210.0 1.0393e-08
18230.0 1.0353e-08
18250.0 1.0312e-08
18270.0 1.0273e-08
18290.0 1.0233e-08
18310.0 1.0192e-08
18330.0 1.0153e-08
18350.0 1.0114e-08
18370.0 1.0073e-08
18390.0 1.0033e-08
18410.0 9.9933e-09
18430.0 9.9536e-09
18450.0 9.9121e-09
18470.0 9.8725e-09
18490.0 9.8335e-09
18510.0 9.793e-09
18530.0 9.7527e-09
18550.0 9.7139e-09
18570.0 9.6738e-09
18590.0 9.6326e-09
18610.0 9.5929e-09
18630.0 9.5536e-09
18650.0 9.5129e-09
18670.0 9.4721e-09
18690.0 9.4334e-09
18710.0 9.3935e-09
18730.0 9.3527e-09
18750.0 9.3132e-09
18770.0 9.2742e-09
18790.0 9.2326e-09
18810.0 9.1922e-09
18830.0 9.1531e-09
18850.0 9.113e-09
18870.0 9.0721e-09
18890.0 9.0328e-09
18910.0 8.9936e-09
18930.0 8.9526e-09
18950.0 8.9124e-09
18970.0 8.8733e-09
18990.0 8.8331e-09
19010.0 8.7913e-09
19030.0 8.7522e-09
19050.0 8.7127e-09
19070.0 8.672e-09
19090.0 8.6318e-09
19110.0 8.5931e-09
19130.0 8.5524e-09
19150.0 8.5114e-09
19170.0 8.472e-09
19190.0 8.4323e-09
19210.0 8.3911e-09
19230.0 8.3507e-09
19250.0 8.3119e-09
19270.0 8.2715e-09
19290.0 8.2309e-09
19310.0 8.1916e-09
19330.0 8.1521e-09
19350.0 8.1104e-09
19370.0 8.0704e-09
19390.0 8.0311e-09
19410.0 7.9905e-09
19430.0 7.9496e-09
19450.0 7.9105e-09
19470.0 7.8708e-09
19490.0 7.8298e-09
19510.0 7.7899e-09
19530.0 7.7507e-09
19550.0 7.7097e-09
19570.0 7.6685e-09
19590.0 7.6294e-09
19610.0 7.5895e-09
19630.0 7.5485e-09
19650.0 7.5087e-09
19670.0 7.4697e-09
19690.0 7.4287e-09
19710.0 7.388e-09
19730.0 7.3487e-09
19750.0 7.3086e-09
19770.0 7.267e-09
19790.0 7.2273e-09
19810.0 7.1881e-09
19830.0 7.1474e-09
19850.0 7.1071e-09
19870.0 7.0685e-09
19890.0 7.0289e-09
19910.0 6.989e-09
19930.0 6.9521e-09
19950.0 6.9173e-09
19970.0 6.884e-09
19990.0 6.8544e-09
20010.0 6.8299e-09
20030.0 6.8086e-09
20050.0 6.7909e-09
20070.0 6.7772e-09
20090.0 6.766e-09
20110.0 6.7562e-09
20130.0 6.7479e-09
20150.0 6.7404e-09
20170.0 6.733e-09
20190.0 6.7254e-09
20210.0 6.718e-09
20230.0 6.7102e-09
20250.0 6.7017e-09
20270.0 6.6929e-09
20290.0 6.6838e-09
20310.0 6.674e-09
20330.0 6.6632e-09
20350.0 6.6526e-09
20370.0 6.6414e-09
20390.0 6.6293e-09
20410.0 6.6169e-09
20430.0 6.6045e-09
20450.0 6.5912e-09
20470.0 6.5775e-09
20490.0 6.5642e-09
20510.0 6.5508e-09
20530.0 6.5369e-09
20550.0 6.5235e-09
20570.0 6.5108e-09
20590.0 6.4978e-09
20610.0 6.4851e-09
20630.0 6.4732e-09
20650.0 6.4614e-09
20670.0 6.4491e-09
20690.0 6.4375e-09
20710.0 6.426e-09
20730.0 6.4139e-09
20750.0 6.4013e-09
20770.0 6.3888e-09
20790.0 6.3754e-09
20810.0 6.3606e-09
20830.0 6.3453e-09
20850.0 6.3291e-09
20870.0 6.3111e-09
20890.0 6.2918e-09
20910.0 6.2724e-09
20930.0 6.2515e-09
20950.0 6.229e-09
20970.0 6.2065e-09
20990.0 6.1837e-09
21010.0 6.1591e-09
21030.0 6.1346e-09
21050.0 6.1106e-09
21070.0 6.0861e-09
21090.0 6.0609e-09
21110.0 6.0371e-09
21130.0 6.0137e-09
21150.0 5.9897e-09
21170.0 5.9663e-09
21190.0 5.9439e-09
21210.0 5.9207e-09
21230.0 5.8972e-09
21250.0 5.8745e-09
21270.0 5.8519e-09
21290.0 5.8281e-09
21310.0 5.8042e-09
21330.0 5.781e-09
21350.0 5.7563e-09
21370.0 5.7307e-09
21390.0 5.7051e-09
21410.0 5.679e-09
21430.0 5.6506e-09
21450.0 5.6224e-09
21470.0 5.5944e-09
21490.0 5.5651e-09
21510.0 5.5347e-09
21530.0 5.5051e-09
21550.0 5.4748e-09
21570.0 5.443e-09
21590.0 5.4116e-09
21610.0 5.3808e-09
21630.0 5.3489e-09
21650.0 5.316e-09
21670.0 5.2852e-09
21690.0 5.254e-09
21710.0 5.2219e-09
21730.0 5.1905e-09
21750.0 5.1603e-09
21770.0 5.1283e-09
21790.0 5.0966e-09
21810.0 5.066e-09
21830.0 5.0352e-09
21850.0 5.0034e-09
21870.0 4.9724e-09
21890.0 4.9425e-09
21910.0 4.9113e-09
21930.0 4.8803e-09
21950.0 4.8505e-09
21970.0 4.8206e-09
21990.0 4.7895e-09
22010.0 4.7605e-09
22030.0 4.7324e-09
22050.0 4.704e-09
22070.0 4.6766e-09
22090.0 4.6514e-09
22110.0 4.6266e-09
22130.0 4.6021e-09
22150.0 4.5795e-09
22170.0 4.5583e-09
22190.0 4.5373e-09
22210.0 4.5174e-09
22230.0 4.4995e-09
22250.0 4.482e-09
22270.0 4.465e-09
22290.0 4.4493e-09
22310.0 4.4343e-09
22330.0 4.4191e-09
22350.0 4.4045e-09
22370.0 4.3905e-09
22390.0 4.3765e-09
22410.0 4.362e-09
22430.0 4.3482e-09
22450.0 4.3343e-09
22470.0 4.3199e-09
22490.0 4.3055e-09
22510.0 4.2914e-09
22530.0 4.2765e-09
22550.0 4.2613e-09
22570.0 4.2467e-09
22590.0 4.232e-09
22610.0 4.2169e-09
22630.0 4.2022e-09
