#lamb flux
1010.0 1.8734e-06
1030.0 2.0042e-06
1050.0 2.1751e-06
1070.0 2.4444e-06
1090.0 2.8319e-06
1110.0 3.2345e-06
1130.0 3.6438e-06
1150.0 4.0751e-06
1170.0 4.5157e-06
1190.0 4.9179e-06
1210.0 5.3025e-06
1230.0 5.6668e-06
1250.0 5.9959e-06
1270.0 6.2582e-06
1290.0 6.4785e-06
1310.0 6.6284e-06
1330.0 6.6918e-06
1350.0 6.6915e-06
1370.0 6.6386e-06
1390.0 6.5218e-06
1410.0 6.3524e-06
1430.0 6.1616e-06
1450.0 5.9471e-06
1470.0 5.713e-06
1490.0 5.4803e-06
1510.0 5.2649e-06
1530.0 5.0537e-06
1550.0 4.8622e-06
1570.0 4.7026e-06
1590.0 4.5738e-06
1610.0 4.4815e-06
1630.0 4.4646e-06
1650.0 4.4972e-06
1670.0 4.5765e-06
1690.0 4.7092e-06
1710.0 4.9061e-06
1730.0 5.1674e-06
1750.0 5.4887e-06
1770.0 5.8868e-06
1790.0 6.3662e-06
1810.0 6.9235e-06
1830.0 7.5647e-06
1850.0 8.3074e-06
1870.0 9.1396e-06
1890.0 1.006e-05
1910.0 1.1079e-05
1930.0 1.2196e-05
1950.0 1.3391e-05
1970.0 1.4662e-05
1990.0 1.6015e-05
2010.0 1.7424e-05
2030.0 1.8868e-05
2050.0 2.0352e-05
2070.0 2.1862e-05
2090.0 2.3346e-05
2110.0 2.4808e-05
2130.0 2.6244e-05
2150.0 2.7618e-05
2170.0 2.8903e-05
2190.0 3.0124e-05
2210.0 3.1258e-05
2230.0 3.2274e-05
2250.0 3.3187e-05
2270.0 3.402e-05
2290.0 3.4736e-05
2310.0 3.5336e-05
2330.0 3.5864e-05
2350.0 3.6319e-05
2370.0 3.6688e-05
2390.0 3.7017e-05
2410.0 3.7348e-05
2430.0 3.7669e-05
2450.0 3.8011e-05
2470.0 3.8441e-05
2490.0 3.8991e-05
2510.0 3.9626e-05
2530.0 4.0465e-05
2550.0 4.1643e-05
2570.0 4.3239e-05
2590.0 4.5396e-05
2610.0 4.8596e-05
2630.0 5.2904e-05
2650.0 5.813e-05
2670.0 6.443e-05
2690.0 7.1727e-05
2710.0 7.9238e-05
2730.0 8.6655e-05
2750.0 9.4303e-05
2770.0 0.00010174
2790.0 0.00010885
2810.0 0.00011613
2830.0 0.00012403
2850.0 0.0001319
2870.0 0.00014012
2890.0 0.00014904
2910.0 0.00015836
2930.0 0.00016771
2950.0 0.00017772
2970.0 0.00018828
2990.0 0.00019892
3010.0 0.00020986
3030.0 0.00022148
3050.0 0.00023343
3070.0 0.00024506
3090.0 0.00025692
3110.0 0.00026847
3130.0 0.0002789
3150.0 0.00028795
3170.0 0.00029534
3190.0 0.00030074
3210.0 0.00030493
3230.0 0.0003084
3250.0 0.0003112
3270.0 0.00031415
3290.0 0.00031821
3310.0 0.00032417
3330.0 0.00033188
3350.0 0.00034078
3370.0 0.00035055
3390.0 0.000359
3410.0 0.00036814
3430.0 0.00039091
3450.0 0.00040742
3470.0 0.0004185
3490.0 0.00042805
3510.0 0.00045271
3530.0 0.00053653
3550.0 0.00062139
3570.0 0.00068
3590.0 0.00074938
3610.0 0.00075038
3630.0 0.0006998
3650.0 0.00074548
3670.0 0.00088816
3690.0 0.00099626
3710.0 0.0010345
3730.0 0.0010494
3750.0 0.0011161
3770.0 0.0011217
3790.0 0.0010713
3810.0 0.0010089
3830.0 0.00094969
3850.0 0.00095302
3870.0 0.0010013
3890.0 0.0010426
3910.0 0.0010714
3930.0 0.0010767
3950.0 0.0011493
3970.0 0.0012331
3990.0 0.0011934
4010.0 0.0010657
4030.0 0.00095395
4050.0 0.00093213
4070.0 0.00097344
4090.0 0.00097287
4110.0 0.00093971
4130.0 0.00093133
4150.0 0.00096688
4170.0 0.0010703
4190.0 0.001142
4210.0 0.00109
4230.0 0.00101
4250.0 0.00096393
4270.0 0.00093526
4290.0 0.00094598
4310.0 0.00097286
4330.0 0.00092522
4350.0 0.0008162
4370.0 0.00072447
4390.0 0.00066102
4410.0 0.00061876
4430.0 0.00062779
4450.0 0.00068741
4470.0 0.00075033
4490.0 0.00080968
4510.0 0.0009066
4530.0 0.0010878
4550.0 0.001284
4570.0 0.0014023
4590.0 0.0014987
4610.0 0.0015951
4630.0 0.0016269
4650.0 0.0015113
4670.0 0.001291
4690.0 0.0011201
4710.0 0.0010637
4730.0 0.001022
4750.0 0.00090516
4770.0 0.00081354
4790.0 0.00084147
4810.0 0.00091413
4830.0 0.00090094
4850.0 0.0008137
4870.0 0.0008178
4890.0 0.00084503
4910.0 0.00086967
4930.0 0.00086185
4950.0 0.00084288
4970.0 0.00080571
4990.0 0.00074308
5010.0 0.00069074
5030.0 0.00066665
5050.0 0.00065569
5070.0 0.00064898
5090.0 0.00064333
5110.0 0.00064219
5130.0 0.00065399
5150.0 0.00068928
5170.0 0.00075629
5190.0 0.00084094
5210.0 0.00091916
5230.0 0.00096638
5250.0 0.00099186
5270.0 0.0010347
5290.0 0.0010729
5310.0 0.0010764
5330.0 0.0010379
5350.0 0.00099714
5370.0 0.00099841
5390.0 0.0010384
5410.0 0.0010727
5430.0 0.0010754
5450.0 0.0010637
5470.0 0.0010353
5490.0 0.0010035
5510.0 0.00098978
5530.0 0.00099568
5550.0 0.0010098
5570.0 0.0010178
5590.0 0.00098795
5610.0 0.00093269
5630.0 0.00088196
5650.0 0.00084189
5670.0 0.00081606
5690.0 0.00078166
5710.0 0.00075747
5730.0 0.0007661
5750.0 0.0007625
5770.0 0.00074776
5790.0 0.00075476
5810.0 0.00077556
5830.0 0.00079284
5850.0 0.00079814
5870.0 0.0007798
5890.0 0.00074718
5910.0 0.00071393
5930.0 0.0006689
5950.0 0.00063509
5970.0 0.00063747
5990.0 0.00065529
6010.0 0.00065831
6030.0 0.00063477
6050.0 0.0006289
6070.0 0.00065269
6090.0 0.00067903
6110.0 0.00068303
6130.0 0.00065428
6150.0 0.00061319
6170.0 0.00058864
6190.0 0.00056893
6210.0 0.00054961
6230.0 0.00053483
6250.0 0.00053206
6270.0 0.00054642
6290.0 0.00057004
6310.0 0.00059825
6330.0 0.00062792
6350.0 0.00064905
6370.0 0.00065563
6390.0 0.0006544
6410.0 0.00066107
6430.0 0.00066987
6450.0 0.00067062
6470.0 0.00067572
6490.0 0.00068309
6510.0 0.00068392
6530.0 0.00067529
6550.0 0.00065594
6570.0 0.00063314
6590.0 0.00061611
6610.0 0.00060302
6630.0 0.00059121
6650.0 0.00057107
6670.0 0.00054823
6690.0 0.00053116
6710.0 0.00052079
6730.0 0.00051678
6750.0 0.00051117
6770.0 0.00050243
6790.0 0.00049408
6810.0 0.00048725
6830.0 0.00048597
6850.0 0.0004842
6870.0 0.00047915
6890.0 0.00047738
6910.0 0.00046893
6930.0 0.00045913
6950.0 0.000458
6970.0 0.00045283
6990.0 0.00044099
7010.0 0.00043407
7030.0 0.00042733
7050.0 0.00041864
7070.0 0.00040856
7090.0 0.00040006
7110.0 0.00040449
7130.0 0.00041748
7150.0 0.00043068
7170.0 0.00043903
7190.0 0.00043697
7210.0 0.00043081
7230.0 0.00042525
7250.0 0.00041973
7270.0 0.00041405
7290.0 0.00040812
7310.0 0.00040456
7330.0 0.00041004
7350.0 0.00041428
7370.0 0.00041556
7390.0 0.00041135
7410.0 0.00040286
7430.0 0.00039933
7450.0 0.00039624
7470.0 0.0003798
7490.0 0.00036584
7510.0 0.0003498
7530.0 0.00033758
7550.0 0.00033338
7570.0 0.0003378
7590.0 0.00033508
7610.0 0.00033136
7630.0 0.00032907
7650.0 0.0003286
7670.0 0.00033477
7690.0 0.00034807
7710.0 0.00036045
7730.0 0.00037269
7750.0 0.00038204
7770.0 0.00038755
7790.0 0.00038641
7810.0 0.00037882
7830.0 0.00038206
7850.0 0.00038077
7870.0 0.00037008
7890.0 0.0003575
7910.0 0.00034634
7930.0 0.00033586
7950.0 0.00032908
7970.0 0.00032865
7990.0 0.00033236
8010.0 0.00033107
8030.0 0.00032727
8050.0 0.00032132
8070.0 0.00031513
8090.0 0.00030856
8110.0 0.00030926
8130.0 0.00031182
8150.0 0.00031172
8170.0 0.00030926
8190.0 0.00030385
8210.0 0.00029005
8230.0 0.00027076
8250.0 0.00025875
8270.0 0.0002515
8290.0 0.00024766
8310.0 0.00024901
8330.0 0.00025405
8350.0 0.00024901
8370.0 0.00024309
8390.0 0.00024667
8410.0 0.00025613
8430.0 0.00027095
8450.0 0.00028489
8470.0 0.00028946
8490.0 0.00029296
8510.0 0.00029255
8530.0 0.00029233
8550.0 0.00029492
8570.0 0.00029563
8590.0 0.0002959
8610.0 0.00030402
8630.0 0.00030688
8650.0 0.00030024
8670.0 0.0002998
8690.0 0.0003013
8710.0 0.00029878
8730.0 0.00029593
8750.0 0.00028712
8770.0 0.0002832
8790.0 0.0002806
8810.0 0.00027752
8830.0 0.00026347
8850.0 0.00024344
8870.0 0.00022842
8890.0 0.00021984
8910.0 0.00020651
8930.0 0.00019228
8950.0 0.00018606
8970.0 0.00018499
8990.0 0.00018551
9010.0 0.00018426
9030.0 0.00018295
9050.0 0.00018175
9070.0 0.00018061
9090.0 0.00017948
9110.0 0.00017835
9130.0 0.00017722
9150.0 0.00017609
9170.0 0.00017497
9190.0 0.00017385
9210.0 0.00017272
9230.0 0.00017161
9250.0 0.00017051
9270.0 0.0001694
9290.0 0.0001683
9310.0 0.0001672
9330.0 0.00016611
9350.0 0.00016502
9370.0 0.00016393
9390.0 0.00016285
9410.0 0.00016177
9430.0 0.0001607
9450.0 0.0001596
9470.0 0.00015853
9490.0 0.00015751
9510.0 0.00015646
9530.0 0.00015542
9550.0 0.00015438
9570.0 0.00015334
9590.0 0.00015231
9610.0 0.00015129
9630.0 0.00015027
9650.0 0.00014925
9670.0 0.00014825
9690.0 0.00014724
9710.0 0.00014624
9730.0 0.00014525
9750.0 0.00014427
9770.0 0.00014329
9790.0 0.00014231
9810.0 0.00014134
9830.0 0.00014035
9850.0 0.00013924
9870.0 0.00013832
9890.0 0.00013743
9910.0 0.00013652
9930.0 0.00013557
9950.0 0.00013467
9970.0 0.00013375
9990.0 0.00013281
10010.0 0.00013177
10030.0 0.00013081
10050.0 0.00012997
10070.0 0.00012912
10090.0 0.00012827
10110.0 0.00012735
10130.0 0.0001263
10150.0 0.00012545
10170.0 0.00012464
10190.0 0.00012377
10210.0 0.00012293
10230.0 0.00012209
10250.0 0.00012122
10270.0 0.00012035
10290.0 0.00011952
10310.0 0.00011865
10330.0 0.00011777
10350.0 0.00011692
10370.0 0.00011609
10390.0 0.00011522
10410.0 0.00011437
10430.0 0.00011355
10450.0 0.0001127
10470.0 0.00011185
10490.0 0.00011102
10510.0 0.0001102
10530.0 0.00010934
10550.0 0.0001085
10570.0 0.00010769
10590.0 0.00010686
10610.0 0.00010601
10630.0 0.0001052
10650.0 0.00010439
10670.0 0.00010354
10690.0 0.00010272
10710.0 0.00010191
10730.0 0.00010108
10750.0 0.00010023
10770.0 9.9427e-05
10790.0 9.8617e-05
10810.0 9.7781e-05
10830.0 9.6961e-05
10850.0 9.617e-05
10870.0 9.5332e-05
10890.0 9.4499e-05
10910.0 9.3705e-05
10930.0 9.2911e-05
10950.0 9.2105e-05
10970.0 9.1335e-05
10990.0 9.0614e-05
11010.0 9.1968e-05
11030.0 9.1331e-05
11050.0 9.0724e-05
11070.0 9.0114e-05
11090.0 8.9466e-05
11110.0 8.8841e-05
11130.0 8.8214e-05
11150.0 8.7556e-05
11170.0 8.689e-05
11190.0 8.625e-05
11210.0 8.5598e-05
11230.0 8.4936e-05
11250.0 8.4307e-05
11270.0 8.3703e-05
11290.0 8.3095e-05
11310.0 8.2508e-05
11330.0 8.1975e-05
11350.0 8.145e-05
11370.0 8.0935e-05
11390.0 8.0454e-05
11410.0 7.9995e-05
11430.0 7.9521e-05
11450.0 7.9062e-05
11470.0 7.8616e-05
11490.0 7.8156e-05
11510.0 7.7671e-05
11530.0 7.7191e-05
11550.0 7.6697e-05
11570.0 7.6162e-05
11590.0 7.5606e-05
11610.0 7.5043e-05
11630.0 7.4434e-05
11650.0 7.3786e-05
11670.0 7.3143e-05
11690.0 7.2483e-05
11710.0 7.1787e-05
11730.0 7.109e-05
11750.0 7.0415e-05
11770.0 6.9717e-05
11790.0 6.9015e-05
11810.0 6.8345e-05
11830.0 6.7688e-05
11850.0 6.7014e-05
11870.0 6.6376e-05
11890.0 6.5776e-05
11910.0 6.5177e-05
11930.0 6.4593e-05
11950.0 6.4051e-05
11970.0 6.3526e-05
11990.0 6.3003e-05
12010.0 6.2518e-05
12030.0 6.2066e-05
12050.0 6.1628e-05
12070.0 6.121e-05
12090.0 6.0844e-05
12110.0 6.0502e-05
12130.0 6.0184e-05
12150.0 5.9907e-05
12170.0 5.9669e-05
12190.0 5.9458e-05
12210.0 5.9288e-05
12230.0 5.9161e-05
12250.0 5.9071e-05
12270.0 5.9018e-05
12290.0 5.9002e-05
12310.0 5.9017e-05
12330.0 5.9065e-05
12350.0 5.914e-05
12370.0 5.923e-05
12390.0 5.9337e-05
12410.0 5.9462e-05
12430.0 5.9579e-05
12450.0 5.9689e-05
12470.0 5.9792e-05
12490.0 5.9875e-05
12510.0 5.9927e-05
12530.0 5.995e-05
12550.0 5.9935e-05
12570.0 5.9874e-05
12590.0 5.9767e-05
12610.0 5.9605e-05
12630.0 5.9386e-05
12650.0 5.9124e-05
12670.0 5.8806e-05
12690.0 5.843e-05
12710.0 5.802e-05
12730.0 5.7576e-05
12750.0 5.7072e-05
12770.0 5.6548e-05
12790.0 5.6016e-05
12810.0 5.5456e-05
12830.0 5.4871e-05
12850.0 5.4304e-05
12870.0 5.3739e-05
12890.0 5.3156e-05
12910.0 5.2585e-05
12930.0 5.2036e-05
12950.0 5.1475e-05
12970.0 5.0911e-05
12990.0 5.038e-05
13010.0 4.9857e-05
13030.0 4.9326e-05
13050.0 4.8813e-05
13070.0 4.8328e-05
13090.0 4.7836e-05
13110.0 4.7354e-05
13130.0 4.6903e-05
13150.0 4.6468e-05
13170.0 4.6033e-05
13190.0 4.5633e-05
13210.0 4.5264e-05
13230.0 4.4906e-05
13250.0 4.4566e-05
13270.0 4.4258e-05
13290.0 4.3963e-05
13310.0 4.3674e-05
13330.0 4.3405e-05
13350.0 4.315e-05
13370.0 4.2894e-05
13390.0 4.2637e-05
13410.0 4.2395e-05
13430.0 4.2147e-05
13450.0 4.189e-05
13470.0 4.1634e-05
13490.0 4.138e-05
13510.0 4.1105e-05
13530.0 4.0827e-05
13550.0 4.0554e-05
13570.0 4.0273e-05
13590.0 3.9979e-05
13610.0 3.969e-05
13630.0 3.9406e-05
13650.0 3.9108e-05
13670.0 3.8809e-05
13690.0 3.8519e-05
13710.0 3.8223e-05
13730.0 3.7912e-05
13750.0 3.7616e-05
13770.0 3.7322e-05
13790.0 3.7016e-05
13810.0 3.6709e-05
13830.0 3.6411e-05
13850.0 3.6101e-05
13870.0 3.578e-05
13890.0 3.5466e-05
13910.0 3.5149e-05
13930.0 3.4814e-05
13950.0 3.4474e-05
13970.0 3.4146e-05
13990.0 3.3802e-05
14010.0 3.3447e-05
14030.0 3.3099e-05
14050.0 3.275e-05
14070.0 3.2378e-05
14090.0 3.2014e-05
14110.0 3.1661e-05
14130.0 3.1302e-05
14150.0 3.094e-05
14170.0 3.0601e-05
14190.0 3.0272e-05
14210.0 2.9941e-05
14230.0 2.9629e-05
14250.0 2.9339e-05
14270.0 2.9052e-05
14290.0 2.8775e-05
14310.0 2.8525e-05
14330.0 2.8287e-05
14350.0 2.8055e-05
14370.0 2.7838e-05
14390.0 2.7638e-05
14410.0 2.7439e-05
14430.0 2.7247e-05
14450.0 2.707e-05
14470.0 2.6898e-05
14490.0 2.6725e-05
14510.0 2.6564e-05
14530.0 2.6414e-05
14550.0 2.6264e-05
14570.0 2.6118e-05
14590.0 2.5984e-05
14610.0 2.5853e-05
14630.0 2.5721e-05
14650.0 2.56e-05
14670.0 2.5486e-05
14690.0 2.5374e-05
14710.0 2.5268e-05
14730.0 2.5176e-05
14750.0 2.509e-05
14770.0 2.5012e-05
14790.0 2.4948e-05
14810.0 2.4899e-05
14830.0 2.4862e-05
14850.0 2.4844e-05
14870.0 2.4844e-05
14890.0 2.4861e-05
14910.0 2.4895e-05
14930.0 2.4942e-05
14950.0 2.4996e-05
14970.0 2.5053e-05
14990.0 2.5107e-05
15010.0 2.5151e-05
15030.0 2.5184e-05
15050.0 2.5205e-05
15070.0 2.5215e-05
15090.0 2.5216e-05
15110.0 2.521e-05
15130.0 2.5201e-05
15150.0 2.5191e-05
15170.0 2.518e-05
15190.0 2.5167e-05
15210.0 2.5156e-05
15230.0 2.5145e-05
15250.0 2.5134e-05
15270.0 2.5123e-05
15290.0 2.5114e-05
15310.0 2.5105e-05
15330.0 2.5095e-05
15350.0 2.5087e-05
15370.0 2.508e-05
15390.0 2.5071e-05
15410.0 2.5064e-05
15430.0 2.5057e-05
15450.0 2.5051e-05
15470.0 2.5044e-05
15490.0 2.5039e-05
15510.0 2.5035e-05
15530.0 2.5029e-05
15550.0 2.5025e-05
15570.0 2.5022e-05
15590.0 2.5018e-05
15610.0 2.5014e-05
15630.0 2.5012e-05
15650.0 2.501e-05
15670.0 2.5008e-05
15690.0 2.5006e-05
15710.0 2.5007e-05
15730.0 2.5005e-05
15750.0 2.5005e-05
15770.0 2.5005e-05
15790.0 2.5006e-05
15810.0 2.5006e-05
15830.0 2.5007e-05
15850.0 2.501e-05
15870.0 2.5011e-05
15890.0 2.5013e-05
15910.0 2.5017e-05
15930.0 2.502e-05
15950.0 2.5022e-05
15970.0 2.5026e-05
15990.0 2.503e-05
16010.0 2.5034e-05
16030.0 2.5038e-05
16050.0 2.5044e-05
16070.0 2.5049e-05
16090.0 2.5054e-05
16110.0 2.506e-05
16130.0 2.5067e-05
16150.0 2.5072e-05
16170.0 2.5078e-05
16190.0 2.5085e-05
16210.0 2.5092e-05
16230.0 2.5099e-05
16250.0 2.5106e-05
16270.0 2.5115e-05
16290.0 2.5122e-05
16310.0 2.513e-05
16330.0 2.5139e-05
16350.0 2.5147e-05
16370.0 2.5154e-05
16390.0 2.5163e-05
16410.0 2.5173e-05
16430.0 2.5181e-05
16450.0 2.519e-05
16470.0 2.52e-05
16490.0 2.5209e-05
16510.0 2.5217e-05
16530.0 2.5227e-05
16550.0 2.5237e-05
16570.0 2.5245e-05
16590.0 2.5254e-05
16610.0 2.5265e-05
16630.0 2.5274e-05
16650.0 2.5283e-05
16670.0 2.5293e-05
16690.0 2.5303e-05
16710.0 2.5311e-05
16730.0 2.532e-05
16750.0 2.533e-05
16770.0 2.5339e-05
16790.0 2.5347e-05
16810.0 2.5357e-05
16830.0 2.5366e-05
16850.0 2.5374e-05
16870.0 2.5382e-05
16890.0 2.5391e-05
16910.0 2.5399e-05
16930.0 2.5406e-05
16950.0 2.5414e-05
16970.0 2.5422e-05
16990.0 2.5428e-05
17010.0 2.5435e-05
17030.0 2.5443e-05
17050.0 2.5449e-05
17070.0 2.5454e-05
17090.0 2.5461e-05
17110.0 2.5467e-05
17130.0 2.547e-05
17150.0 2.5475e-05
17170.0 2.5481e-05
17190.0 2.5484e-05
17210.0 2.5487e-05
17230.0 2.5491e-05
17250.0 2.5494e-05
17270.0 2.5495e-05
17290.0 2.5497e-05
17310.0 2.5499e-05
17330.0 2.55e-05
17350.0 2.5499e-05
17370.0 2.55e-05
17390.0 2.55e-05
17410.0 2.5498e-05
17430.0 2.5496e-05
17450.0 2.5495e-05
17470.0 2.5491e-05
17490.0 2.5487e-05
17510.0 2.5484e-05
17530.0 2.5479e-05
17550.0 2.5473e-05
17570.0 2.5467e-05
17590.0 2.5461e-05
17610.0 2.5453e-05
17630.0 2.5445e-05
17650.0 2.5437e-05
17670.0 2.5427e-05
17690.0 2.5416e-05
17710.0 2.5405e-05
17730.0 2.5394e-05
17750.0 2.5381e-05
17770.0 2.5368e-05
17790.0 2.5355e-05
17810.0 2.534e-05
17830.0 2.5324e-05
17850.0 2.5308e-05
17870.0 2.5291e-05
17890.0 2.5272e-05
17910.0 2.5253e-05
17930.0 2.5235e-05
17950.0 2.5214e-05
17970.0 2.5192e-05
17990.0 2.5171e-05
18010.0 2.5148e-05
18030.0 2.5123e-05
18050.0 2.5098e-05
18070.0 2.5073e-05
18090.0 2.5046e-05
18110.0 2.5017e-05
18130.0 2.499e-05
18150.0 2.4961e-05
18170.0 2.493e-05
18190.0 2.4898e-05
18210.0 2.4867e-05
18230.0 2.4833e-05
18250.0 2.4798e-05
18270.0 2.4764e-05
18290.0 2.4728e-05
18310.0 2.4691e-05
18330.0 2.4653e-05
18350.0 2.4615e-05
18370.0 2.4575e-05
18390.0 2.4533e-05
18410.0 2.4492e-05
18430.0 2.445e-05
18450.0 2.4405e-05
18470.0 2.436e-05
18490.0 2.4316e-05
18510.0 2.4269e-05
18530.0 2.4221e-05
18550.0 2.4173e-05
18570.0 2.4124e-05
18590.0 2.4072e-05
18610.0 2.4021e-05
18630.0 2.3969e-05
18650.0 2.3915e-05
18670.0 2.386e-05
18690.0 2.3806e-05
18710.0 2.375e-05
18730.0 2.3693e-05
18750.0 2.3635e-05
18770.0 2.3577e-05
18790.0 2.3516e-05
18810.0 2.3454e-05
18830.0 2.3394e-05
18850.0 2.3331e-05
18870.0 2.3266e-05
18890.0 2.3203e-05
18910.0 2.3138e-05
18930.0 2.3071e-05
18950.0 2.3004e-05
18970.0 2.2937e-05
18990.0 2.2868e-05
19010.0 2.2796e-05
19030.0 2.2727e-05
19050.0 2.2656e-05
19070.0 2.2583e-05
19090.0 2.251e-05
19110.0 2.2437e-05
19130.0 2.2362e-05
19150.0 2.2286e-05
19170.0 2.221e-05
19190.0 2.2134e-05
19210.0 2.2055e-05
19230.0 2.1976e-05
19250.0 2.1898e-05
19270.0 2.1818e-05
19290.0 2.1737e-05
19310.0 2.1656e-05
19330.0 2.1574e-05
19350.0 2.149e-05
19370.0 2.1407e-05
19390.0 2.1323e-05
19410.0 2.1238e-05
19430.0 2.1152e-05
19450.0 2.1067e-05
19470.0 2.0981e-05
19490.0 2.0893e-05
19510.0 2.0806e-05
19530.0 2.0718e-05
19550.0 2.0628e-05
19570.0 2.0538e-05
19590.0 2.0449e-05
19610.0 2.0359e-05
19630.0 2.0267e-05
19650.0 2.0176e-05
19670.0 2.0085e-05
19690.0 1.9992e-05
19710.0 1.9899e-05
19730.0 1.9806e-05
19750.0 1.9713e-05
19770.0 1.9618e-05
19790.0 1.9524e-05
19810.0 1.943e-05
19830.0 1.9334e-05
19850.0 1.9237e-05
19870.0 1.9141e-05
19890.0 1.904e-05
19910.0 1.8934e-05
19930.0 1.8823e-05
19950.0 1.8701e-05
19970.0 1.8563e-05
19990.0 1.8405e-05
20010.0 1.8232e-05
20030.0 1.8033e-05
20050.0 1.7811e-05
20070.0 1.7576e-05
20090.0 1.733e-05
20110.0 1.7062e-05
20130.0 1.6794e-05
20150.0 1.6531e-05
20170.0 1.6263e-05
20190.0 1.5995e-05
20210.0 1.574e-05
20230.0 1.549e-05
20250.0 1.5239e-05
20270.0 1.5e-05
20290.0 1.4775e-05
20310.0 1.4554e-05
20330.0 1.4339e-05
20350.0 1.4144e-05
20370.0 1.3957e-05
20390.0 1.3777e-05
20410.0 1.361e-05
20430.0 1.3457e-05
20450.0 1.3308e-05
20470.0 1.3169e-05
20490.0 1.3042e-05
20510.0 1.2924e-05
20530.0 1.2812e-05
20550.0 1.271e-05
20570.0 1.2616e-05
20590.0 1.2527e-05
20610.0 1.2444e-05
20630.0 1.2368e-05
20650.0 1.2295e-05
20670.0 1.2227e-05
20690.0 1.2162e-05
20710.0 1.2099e-05
20730.0 1.2038e-05
20750.0 1.1978e-05
20770.0 1.1918e-05
20790.0 1.1857e-05
20810.0 1.1794e-05
20830.0 1.1728e-05
20850.0 1.166e-05
20870.0 1.1587e-05
20890.0 1.151e-05
20910.0 1.1429e-05
20930.0 1.1343e-05
20950.0 1.125e-05
20970.0 1.1154e-05
20990.0 1.1054e-05
21010.0 1.0946e-05
21030.0 1.0834e-05
21050.0 1.0721e-05
21070.0 1.0603e-05
21090.0 1.048e-05
21110.0 1.0358e-05
21130.0 1.0235e-05
21150.0 1.0108e-05
21170.0 9.9811e-06
21190.0 9.8575e-06
21210.0 9.7316e-06
21230.0 9.6051e-06
21250.0 9.4836e-06
21270.0 9.3644e-06
21290.0 9.2449e-06
21310.0 9.1289e-06
21330.0 9.019e-06
21350.0 8.9096e-06
21370.0 8.8023e-06
21390.0 8.7004e-06
21410.0 8.6017e-06
21430.0 8.5026e-06
21450.0 8.4083e-06
21470.0 8.3183e-06
21490.0 8.229e-06
21510.0 8.1413e-06
21530.0 8.0575e-06
21550.0 7.9751e-06
21570.0 7.8923e-06
21590.0 7.8119e-06
21610.0 7.7338e-06
21630.0 7.6553e-06
21650.0 7.5764e-06
21670.0 7.5012e-06
21690.0 7.426e-06
21710.0 7.3502e-06
21730.0 7.2758e-06
21750.0 7.2032e-06
21770.0 7.1285e-06
21790.0 7.0544e-06
21810.0 6.9822e-06
21830.0 6.9097e-06
21850.0 6.8358e-06
21870.0 6.7632e-06
21890.0 6.692e-06
21910.0 6.6189e-06
21930.0 6.5458e-06
21950.0 6.4742e-06
21970.0 6.4018e-06
21990.0 6.3273e-06
22010.0 6.255e-06
22030.0 6.1835e-06
22050.0 6.1108e-06
22070.0 6.0384e-06
22090.0 5.9687e-06
22110.0 5.8986e-06
22130.0 5.8283e-06
22150.0 5.7605e-06
22170.0 5.6945e-06
22190.0 5.628e-06
22210.0 5.5633e-06
22230.0 5.5024e-06
22250.0 5.4422e-06
22270.0 5.383e-06
22290.0 5.327e-06
22310.0 5.273e-06
22330.0 5.219e-06
22350.0 5.1673e-06
22370.0 5.1182e-06
22390.0 5.0697e-06
22410.0 5.0215e-06
22430.0 4.9758e-06
22450.0 4.9313e-06
22470.0 4.8864e-06
22490.0 4.8426e-06
22510.0 4.8002e-06
22530.0 4.7572e-06
22550.0 4.7139e-06
22570.0 4.6722e-06
22590.0 4.6309e-06
22610.0 4.5889e-06
22630.0 4.5476e-06
22650.0 4.508e-06
22670.0 4.4679e-06
22690.0 4.4282e-06
