#lamb flux
1010.0 1.0933e-08
1030.0 1.1985e-08
1050.0 1.3196e-08
1070.0 1.4559e-08
1090.0 1.6107e-08
1110.0 1.7694e-08
1130.0 1.9292e-08
1150.0 2.0966e-08
1170.0 2.2693e-08
1190.0 2.433e-08
1210.0 2.5989e-08
1230.0 2.7704e-08
1250.0 2.9384e-08
1270.0 3.1015e-08
1290.0 3.2739e-08
1310.0 3.4461e-08
1330.0 3.6113e-08
1350.0 3.7783e-08
1370.0 3.9508e-08
1390.0 4.1189e-08
1410.0 4.282e-08
1430.0 4.4525e-08
1450.0 4.623e-08
1470.0 4.7877e-08
1490.0 4.9542e-08
1510.0 5.13e-08
1530.0 5.2966e-08
1550.0 5.4609e-08
1570.0 5.6308e-08
1590.0 5.8008e-08
1610.0 5.9631e-08
1630.0 6.1304e-08
1650.0 6.302e-08
1670.0 6.4679e-08
1690.0 6.6315e-08
1710.0 6.8012e-08
1730.0 6.9718e-08
1750.0 7.1318e-08
1770.0 7.2963e-08
1790.0 7.4638e-08
1810.0 7.6255e-08
1830.0 7.7839e-08
1850.0 7.9517e-08
1870.0 8.1144e-08
1890.0 8.2709e-08
1910.0 8.4297e-08
1930.0 8.5917e-08
1950.0 8.7448e-08
1970.0 8.8949e-08
1990.0 9.0497e-08
2010.0 9.2002e-08
2030.0 9.3432e-08
2050.0 9.4892e-08
2070.0 9.6372e-08
2090.0 9.7734e-08
2110.0 9.9067e-08
2130.0 1.0042e-07
2150.0 1.0171e-07
2170.0 1.029e-07
2190.0 1.0412e-07
2210.0 1.0531e-07
2230.0 1.0639e-07
2250.0 1.0743e-07
2270.0 1.0849e-07
2290.0 1.0946e-07
2310.0 1.1032e-07
2330.0 1.1119e-07
2350.0 1.1205e-07
2370.0 1.1284e-07
2390.0 1.1371e-07
2410.0 1.1482e-07
2430.0 1.1616e-07
2450.0 1.1787e-07
2470.0 1.2023e-07
2490.0 1.234e-07
2510.0 1.2707e-07
2530.0 1.3168e-07
2550.0 1.3773e-07
2570.0 1.4552e-07
2590.0 1.5591e-07
2610.0 1.7178e-07
2630.0 1.9431e-07
2650.0 2.2323e-07
2670.0 2.5982e-07
2690.0 3.0366e-07
2710.0 3.4891e-07
2730.0 3.9194e-07
2750.0 4.327e-07
2770.0 4.6616e-07
2790.0 4.9057e-07
2810.0 5.0795e-07
2830.0 5.1954e-07
2850.0 5.2505e-07
2870.0 5.2716e-07
2890.0 5.2734e-07
2910.0 5.2612e-07
2930.0 5.2401e-07
2950.0 5.2176e-07
2970.0 5.195e-07
2990.0 5.1714e-07
3010.0 1.6498e-05
3030.0 1.6431e-05
3050.0 1.6364e-05
3070.0 1.6288e-05
3090.0 1.6203e-05
3110.0 1.6093e-05
3130.0 1.5938e-05
3150.0 1.5723e-05
3170.0 1.5416e-05
3190.0 1.5025e-05
3210.0 1.4574e-05
3230.0 1.4082e-05
3250.0 1.3579e-05
3270.0 1.3201e-05
3290.0 1.2914e-05
3310.0 1.2847e-05
3330.0 1.2928e-05
3350.0 1.3153e-05
3370.0 1.352e-05
3390.0 1.4011e-05
3410.0 1.4561e-05
3430.0 1.5191e-05
3450.0 1.5926e-05
3470.0 1.6737e-05
3490.0 1.761e-05
3510.0 1.8606e-05
3530.0 1.9696e-05
3550.0 2.0865e-05
3570.0 2.2157e-05
3590.0 2.36e-05
3610.0 2.521e-05
3630.0 2.6811e-05
3650.0 2.8509e-05
3670.0 3.0038e-05
3690.0 3.1175e-05
3710.0 3.1743e-05
3730.0 3.1401e-05
3750.0 3.0172e-05
3770.0 3.0863e-05
3790.0 3.0153e-05
3810.0 2.3245e-05
3830.0 2.2331e-05
3850.0 3.2913e-05
3870.0 3.1763e-05
3890.0 2.4033e-05
3910.0 2.3362e-05
3930.0 2.9833e-05
3950.0 3.57e-05
3970.0 4.0579e-05
3990.0 2.7914e-05
4010.0 5.2232e-05
4030.0 5.0388e-05
4050.0 5.3166e-05
4070.0 6.0288e-05
4090.0 5.7112e-05
4110.0 5.0369e-05
4130.0 6.2089e-05
4150.0 8.3247e-05
4170.0 6.5889e-05
4190.0 5.8102e-05
4210.0 6.5536e-05
4230.0 8.1313e-05
4250.0 9.7231e-05
4270.0 0.00010573
4290.0 9.3898e-05
4310.0 8.6706e-05
4330.0 8.5807e-05
4350.0 0.00011005
4370.0 0.00013395
4390.0 0.00010628
4410.0 5.9094e-05
4430.0 4.1723e-05
4450.0 3.8983e-05
4470.0 2.4043e-05
4490.0 4.2603e-05
4510.0 9.1881e-05
4530.0 0.00011212
4550.0 0.00010567
4570.0 9.4517e-05
4590.0 0.00010112
4610.0 0.00020126
4630.0 0.00028257
4650.0 0.0002663
4670.0 0.0002339
4690.0 0.00024053
4710.0 0.00025181
4730.0 0.00020505
4750.0 0.00013189
4770.0 9.0381e-05
4790.0 0.00010118
4810.0 0.00010671
4830.0 0.00010578
4850.0 0.00011495
4870.0 0.0001523
4890.0 0.00017647
4910.0 0.00013642
4930.0 0.00013259
4950.0 0.00015305
4970.0 0.00020451
4990.0 0.00027596
5010.0 0.00031853
5030.0 0.00025318
5050.0 0.00015371
5070.0 0.0001096
5090.0 8.3445e-05
5110.0 7.7815e-05
5130.0 9.3408e-05
5150.0 8.9836e-05
5170.0 8.4225e-05
5190.0 7.4771e-05
5210.0 8.3277e-05
5230.0 0.00010452
5250.0 0.00012245
5270.0 0.00011261
5290.0 0.00012157
5310.0 0.00016447
5330.0 0.00017559
5350.0 0.00017293
5370.0 0.00019538
5390.0 0.00024437
5410.0 0.00020764
5430.0 0.00015749
5450.0 0.00015969
5470.0 0.00018719
5490.0 0.00023537
5510.0 0.00028689
5530.0 0.0003328
5550.0 0.00029934
5570.0 0.0002679
5590.0 0.0002194
5610.0 0.00022398
5630.0 0.00025334
5650.0 0.00023387
5670.0 0.00021511
5690.0 0.00017297
5710.0 0.00017832
5730.0 0.00017397
5750.0 9.2531e-05
5770.0 6.6017e-05
5790.0 8.2572e-05
5810.0 8.7167e-05
5830.0 0.00013772
5850.0 0.00018044
5870.0 0.00019289
5890.0 0.00018278
5910.0 0.00017746
5930.0 0.00017135
5950.0 0.00017721
5970.0 0.00022096
5990.0 0.00018016
6010.0 0.0001377
6030.0 0.00011185
6050.0 9.9944e-05
6070.0 0.0001208
6090.0 0.00013663
6110.0 0.00013855
6130.0 0.00012636
6150.0 9.8863e-05
6170.0 7.7093e-05
6190.0 9.5444e-05
6210.0 0.00015269
6230.0 0.00022588
6250.0 0.00024224
6270.0 0.00018363
6290.0 0.00015729
6310.0 0.00011985
6330.0 8.7099e-05
6350.0 8.6186e-05
6370.0 9.0519e-05
6390.0 0.00010892
6410.0 0.00014099
6430.0 0.00017013
6450.0 0.00021004
6470.0 0.0002213
6490.0 0.00026555
6510.0 0.00029809
6530.0 0.00030372
6550.0 0.00027993
6570.0 0.00022565
6590.0 0.00021673
6610.0 0.00017917
6630.0 0.00018759
6650.0 0.00018198
6670.0 0.00015886
6690.0 0.00012286
6710.0 0.00012036
6730.0 5.1929e-05
6750.0 7.0588e-05
6770.0 0.00011266
6790.0 0.00015051
6810.0 0.00010643
6830.0 0.00010865
6850.0 9.0189e-05
6870.0 8.4997e-05
6890.0 7.1306e-05
6910.0 8.6714e-05
6930.0 8.1538e-05
6950.0 9.866e-05
6970.0 0.0001018
6990.0 0.00011272
7010.0 0.00010936
7030.0 0.00012501
7050.0 0.00010747
7070.0 8.9125e-05
7090.0 9.5484e-05
7110.0 0.00010065
7130.0 0.00011603
7150.0 0.0001324
7170.0 0.0001483
7190.0 0.00015694
7210.0 0.00013835
7230.0 0.00013979
7250.0 0.00015053
7270.0 0.00016249
7290.0 0.00019961
7310.0 0.00020876
7330.0 0.00019319
7350.0 0.00017259
7370.0 0.00012602
7390.0 0.00013158
7410.0 0.00016395
7430.0 0.00018699
7450.0 0.00020114
7470.0 0.00018389
7490.0 0.00014837
7510.0 0.00024558
7530.0 0.00022092
7550.0 0.00020764
7570.0 0.000139
7590.0 5.8617e-05
7610.0 4.0177e-05
7630.0 6.3489e-05
7650.0 8.6541e-05
7670.0 0.00014092
7690.0 0.00015771
7710.0 0.00014054
7730.0 0.00013808
7750.0 0.00018349
7770.0 0.00018843
7790.0 0.00017265
7810.0 0.0001387
7830.0 0.00015042
7850.0 0.00016612
7870.0 0.00016333
7890.0 0.00012724
7910.0 8.3885e-05
7930.0 8.7064e-05
7950.0 7.8437e-05
7970.0 6.5547e-05
7990.0 5.8631e-05
8010.0 3.987e-05
8030.0 3.686e-05
8050.0 3.9712e-05
8070.0 4.4105e-05
8090.0 5.2989e-05
8110.0 4.9621e-05
8130.0 3.0492e-05
8150.0 3.1134e-05
8170.0 1.8434e-05
8190.0 1.2073e-05
8210.0 2.7808e-05
8230.0 3.323e-05
8250.0 1.4362e-05
8270.0 1.1509e-05
8290.0 1.9945e-05
8310.0 1.7122e-05
8330.0 1.0478e-05
8350.0 8.4249e-06
8370.0 2.3884e-06
8390.0 9.0727e-06
8410.0 1.0627e-05
8430.0 1.3231e-05
8450.0 1.486e-05
8470.0 2.4258e-05
8490.0 1.9868e-05
8510.0 1.5491e-05
8530.0 8.122e-06
8550.0 2.6843e-05
8570.0 4.1628e-05
8590.0 2.9598e-05
8610.0 4.3954e-05
8630.0 4.779e-05
8650.0 2.6484e-05
8670.0 3.8221e-05
8690.0 5.8615e-05
8710.0 5.0575e-05
8730.0 5.4346e-05
8750.0 4.3016e-05
8770.0 3.84e-05
8790.0 4.254e-05
8810.0 4.5906e-05
8830.0 2.5936e-05
8850.0 1.1861e-05
8870.0 8.5961e-06
8890.0 2.0051e-05
8910.0 3.122e-05
8930.0 4.0924e-05
8950.0 4.5998e-05
8970.0 4.4438e-05
8990.0 3.384e-05
9010.0 2.6742e-05
9030.0 2.0464e-05
9050.0 2.1335e-05
9070.0 2.2212e-05
9090.0 2.2919e-05
9110.0 2.3763e-05
9130.0 2.4373e-05
9150.0 2.481e-05
9170.0 2.5276e-05
9190.0 2.5774e-05
9210.0 2.6297e-05
9230.0 2.685e-05
9250.0 2.7409e-05
9270.0 2.7987e-05
9290.0 2.858e-05
9310.0 2.9173e-05
9330.0 2.9775e-05
9350.0 3.0396e-05
9370.0 3.1022e-05
9390.0 3.165e-05
9410.0 3.2295e-05
9430.0 3.2957e-05
9450.0 3.3613e-05
9470.0 3.428e-05
9490.0 3.4966e-05
9510.0 3.5657e-05
9530.0 3.6349e-05
9550.0 3.7065e-05
9570.0 3.7791e-05
9590.0 3.8517e-05
9610.0 3.9254e-05
9630.0 4.0011e-05
9650.0 4.0772e-05
9670.0 4.1533e-05
9690.0 4.2314e-05
9710.0 4.3106e-05
9730.0 4.3898e-05
9750.0 4.4702e-05
9770.0 4.553e-05
9790.0 4.6354e-05
9810.0 4.7182e-05
9830.0 4.8028e-05
9850.0 4.8884e-05
9870.0 4.9735e-05
9890.0 5.06e-05
9910.0 5.1482e-05
9930.0 5.2363e-05
9950.0 5.3246e-05
9970.0 5.4148e-05
9990.0 5.5059e-05
10010.0 4.9591e-05
10030.0 5.0394e-05
10050.0 5.1206e-05
10070.0 5.2009e-05
10090.0 5.2821e-05
10110.0 5.3651e-05
10130.0 5.4479e-05
10150.0 5.5302e-05
10170.0 5.6131e-05
10190.0 5.697e-05
10210.0 5.7799e-05
10230.0 5.8625e-05
10250.0 5.9462e-05
10270.0 6.0298e-05
10290.0 6.1123e-05
10310.0 6.1956e-05
10330.0 6.2795e-05
10350.0 6.362e-05
10370.0 6.4441e-05
10390.0 6.5269e-05
10410.0 6.6091e-05
10430.0 6.6897e-05
10450.0 6.7708e-05
10470.0 6.8519e-05
10490.0 6.9315e-05
10510.0 7.0103e-05
10530.0 7.09e-05
10550.0 7.1682e-05
10570.0 7.2446e-05
10590.0 7.3211e-05
10610.0 7.3971e-05
10630.0 7.4711e-05
10650.0 7.5442e-05
10670.0 7.6175e-05
10690.0 7.6891e-05
10710.0 7.7589e-05
10730.0 7.8283e-05
10750.0 7.8975e-05
10770.0 7.9635e-05
10790.0 8.0286e-05
10810.0 8.0931e-05
10830.0 8.1553e-05
10850.0 8.2144e-05
10870.0 8.2717e-05
10890.0 8.3234e-05
10910.0 8.3656e-05
10930.0 8.3948e-05
10950.0 8.4039e-05
10970.0 8.3864e-05
10990.0 8.3396e-05
11010.0 8.4597e-05
11030.0 8.3321e-05
11050.0 8.1719e-05
11070.0 7.9772e-05
11090.0 7.7414e-05
11110.0 7.4963e-05
11130.0 7.2405e-05
11150.0 6.9656e-05
11170.0 6.6834e-05
11190.0 6.4108e-05
11210.0 6.1312e-05
11230.0 5.8465e-05
11250.0 5.5761e-05
11270.0 5.318e-05
11290.0 5.0611e-05
11310.0 4.8187e-05
11330.0 4.6054e-05
11350.0 4.4038e-05
11370.0 4.217e-05
11390.0 4.054e-05
11410.0 3.9096e-05
11430.0 3.7736e-05
11450.0 3.6536e-05
11470.0 3.5472e-05
11490.0 3.4459e-05
11510.0 3.3465e-05
11530.0 3.2526e-05
11550.0 3.1587e-05
11570.0 3.0591e-05
11590.0 2.9567e-05
11610.0 2.8533e-05
11630.0 2.7425e-05
11650.0 2.6255e-05
11670.0 2.5111e-05
11690.0 2.3961e-05
11710.0 2.2786e-05
11730.0 2.165e-05
11750.0 2.0598e-05
11770.0 1.9567e-05
11790.0 1.8598e-05
11810.0 1.7735e-05
11830.0 1.6954e-05
11850.0 1.6227e-05
11870.0 1.5603e-05
11890.0 1.5069e-05
11910.0 1.4586e-05
11930.0 1.4158e-05
11950.0 1.3786e-05
11970.0 1.3444e-05
11990.0 1.3114e-05
12010.0 1.2804e-05
12030.0 1.2504e-05
12050.0 1.2196e-05
12070.0 1.188e-05
12090.0 1.1575e-05
12110.0 1.1266e-05
12130.0 1.0954e-05
12150.0 1.0658e-05
12170.0 1.0386e-05
12190.0 1.0131e-05
12210.0 9.9151e-06
12230.0 9.7495e-06
12250.0 9.6343e-06
12270.0 9.5796e-06
12290.0 9.5888e-06
12310.0 9.6573e-06
12330.0 9.7971e-06
12350.0 1.0002e-05
12370.0 1.0253e-05
12390.0 1.0559e-05
12410.0 1.0933e-05
12430.0 1.1317e-05
12450.0 1.172e-05
12470.0 1.2151e-05
12490.0 1.2585e-05
12510.0 1.2988e-05
12530.0 1.3387e-05
12550.0 1.3768e-05
12570.0 1.4097e-05
12590.0 1.4377e-05
12610.0 1.462e-05
12630.0 1.4802e-05
12650.0 1.4909e-05
12670.0 1.496e-05
12690.0 1.4949e-05
12710.0 1.4872e-05
12730.0 1.4736e-05
12750.0 1.4539e-05
12770.0 1.4288e-05
12790.0 1.3997e-05
12810.0 1.3661e-05
12830.0 1.3283e-05
12850.0 1.2891e-05
12870.0 1.2482e-05
12890.0 1.2047e-05
12910.0 1.1607e-05
12930.0 1.1175e-05
12950.0 1.073e-05
12970.0 1.0279e-05
12990.0 9.8521e-06
13010.0 9.4313e-06
13030.0 9.0072e-06
13050.0 8.5987e-06
13070.0 8.2138e-06
13090.0 7.8272e-06
13110.0 7.4512e-06
13130.0 7.1011e-06
13150.0 6.7667e-06
13170.0 6.4368e-06
13190.0 6.1385e-06
13210.0 5.8708e-06
13230.0 5.6214e-06
13250.0 5.3999e-06
13270.0 5.2166e-06
13290.0 5.0637e-06
13310.0 4.9435e-06
13330.0 4.8646e-06
13350.0 4.8243e-06
13370.0 4.8234e-06
13390.0 4.8649e-06
13410.0 4.9394e-06
13430.0 5.0499e-06
13450.0 5.1975e-06
13470.0 5.3692e-06
13490.0 5.5571e-06
13510.0 5.7765e-06
13530.0 6.0044e-06
13550.0 6.2268e-06
13570.0 6.4509e-06
13590.0 6.6744e-06
13610.0 6.8768e-06
13630.0 7.0566e-06
13650.0 7.2249e-06
13670.0 7.3678e-06
13690.0 7.4807e-06
13710.0 7.5709e-06
13730.0 7.6391e-06
13750.0 7.6763e-06
13770.0 7.6901e-06
13790.0 7.6821e-06
13810.0 7.6521e-06
13830.0 7.6036e-06
13850.0 7.5363e-06
13870.0 7.4504e-06
13890.0 7.3513e-06
13910.0 7.2397e-06
13930.0 7.1113e-06
13950.0 6.9718e-06
13970.0 6.8299e-06
13990.0 6.6767e-06
14010.0 6.5152e-06
14030.0 6.3551e-06
14050.0 6.1948e-06
14070.0 6.0269e-06
14090.0 5.8665e-06
14110.0 5.7161e-06
14130.0 5.5706e-06
14150.0 5.4335e-06
14170.0 5.3157e-06
14190.0 5.213e-06
14210.0 5.1246e-06
14230.0 5.0572e-06
14250.0 5.0113e-06
14270.0 4.9853e-06
14290.0 4.9824e-06
14310.0 5.0011e-06
14330.0 5.0405e-06
14350.0 5.1021e-06
14370.0 5.1818e-06
14390.0 5.2748e-06
14410.0 5.3869e-06
14430.0 5.5128e-06
14450.0 5.6443e-06
14470.0 5.7838e-06
14490.0 5.9355e-06
14510.0 6.0845e-06
14530.0 6.2297e-06
14550.0 6.3786e-06
14570.0 6.5257e-06
14590.0 6.6637e-06
14610.0 6.8009e-06
14630.0 6.9403e-06
14650.0 7.0736e-06
14670.0 7.2048e-06
14690.0 7.3429e-06
14710.0 7.4885e-06
14730.0 7.6339e-06
14750.0 7.7934e-06
14770.0 7.9714e-06
14790.0 8.1615e-06
14810.0 8.3647e-06
14830.0 8.6009e-06
14850.0 8.8541e-06
14870.0 9.1157e-06
14890.0 9.3949e-06
14910.0 9.6888e-06
14930.0 9.9706e-06
14950.0 1.0234e-05
14970.0 1.0483e-05
14990.0 1.0695e-05
15010.0 1.086e-05
15030.0 1.0986e-05
15050.0 1.1075e-05
15070.0 1.1127e-05
15090.0 1.1156e-05
15110.0 1.1169e-05
15130.0 1.1172e-05
15150.0 1.1171e-05
15170.0 1.1166e-05
15190.0 1.116e-05
15210.0 1.1154e-05
15230.0 1.1149e-05
15250.0 1.1143e-05
15270.0 1.1137e-05
15290.0 1.1132e-05
15310.0 1.1127e-05
15330.0 1.1122e-05
15350.0 1.1118e-05
15370.0 1.1115e-05
15390.0 1.111e-05
15410.0 1.1106e-05
15430.0 1.1102e-05
15450.0 1.1099e-05
15470.0 1.1094e-05
15490.0 1.1091e-05
15510.0 1.1089e-05
15530.0 1.1085e-05
15550.0 1.1082e-05
15570.0 1.1079e-05
15590.0 1.1076e-05
15610.0 1.1072e-05
15630.0 1.107e-05
15650.0 1.1067e-05
15670.0 1.1064e-05
15690.0 1.1061e-05
15710.0 1.1059e-05
15730.0 1.1056e-05
15750.0 1.1052e-05
15770.0 1.105e-05
15790.0 1.1047e-05
15810.0 1.1043e-05
15830.0 1.104e-05
15850.0 1.1037e-05
15870.0 1.1033e-05
15890.0 1.1029e-05
15910.0 1.1027e-05
15930.0 1.1023e-05
15950.0 1.1018e-05
15970.0 1.1014e-05
15990.0 1.1011e-05
16010.0 1.1006e-05
16030.0 1.1001e-05
16050.0 1.0997e-05
16070.0 1.0992e-05
16090.0 1.0987e-05
16110.0 1.0982e-05
16130.0 1.0977e-05
16150.0 1.097e-05
16170.0 1.0964e-05
16190.0 1.0958e-05
16210.0 1.0952e-05
16230.0 1.0945e-05
16250.0 1.0938e-05
16270.0 1.0932e-05
16290.0 1.0924e-05
16310.0 1.0916e-05
16330.0 1.0908e-05
16350.0 1.09e-05
16370.0 1.089e-05
16390.0 1.0882e-05
16410.0 1.0873e-05
16430.0 1.0863e-05
16450.0 1.0853e-05
16470.0 1.0844e-05
16490.0 1.0833e-05
16510.0 1.0822e-05
16530.0 1.0811e-05
16550.0 1.08e-05
16570.0 1.0787e-05
16590.0 1.0775e-05
16610.0 1.0763e-05
16630.0 1.075e-05
16650.0 1.0737e-05
16670.0 1.0724e-05
16690.0 1.071e-05
16710.0 1.0695e-05
16730.0 1.068e-05
16750.0 1.0665e-05
16770.0 1.065e-05
16790.0 1.0633e-05
16810.0 1.0618e-05
16830.0 1.0602e-05
16850.0 1.0584e-05
16870.0 1.0567e-05
16890.0 1.055e-05
16910.0 1.0531e-05
16930.0 1.0512e-05
16950.0 1.0494e-05
16970.0 1.0475e-05
16990.0 1.0454e-05
17010.0 1.0434e-05
17030.0 1.0415e-05
17050.0 1.0394e-05
17070.0 1.0372e-05
17090.0 1.0351e-05
17110.0 1.0329e-05
17130.0 1.0306e-05
17150.0 1.0283e-05
17170.0 1.0261e-05
17190.0 1.0237e-05
17210.0 1.0213e-05
17230.0 1.019e-05
17250.0 1.0165e-05
17270.0 1.0139e-05
17290.0 1.0114e-05
17310.0 1.0089e-05
17330.0 1.0063e-05
17350.0 1.0035e-05
17370.0 1.001e-05
17390.0 9.9827e-06
17410.0 9.9546e-06
17430.0 9.9272e-06
17450.0 9.8999e-06
17470.0 9.8702e-06
17490.0 9.8409e-06
17510.0 9.8125e-06
17530.0 9.783e-06
17550.0 9.7524e-06
17570.0 9.7227e-06
17590.0 9.693e-06
17610.0 9.6615e-06
17630.0 9.6302e-06
17650.0 9.5995e-06
17670.0 9.5678e-06
17690.0 9.5343e-06
17710.0 9.5027e-06
17730.0 9.4706e-06
17750.0 9.4372e-06
17770.0 9.4039e-06
17790.0 9.3715e-06
17810.0 9.3374e-06
17830.0 9.3026e-06
17850.0 9.2688e-06
17870.0 9.2347e-06
17890.0 9.1991e-06
17910.0 9.1637e-06
17930.0 9.1295e-06
17950.0 9.0938e-06
17970.0 9.0576e-06
17990.0 9.0223e-06
18010.0 8.9866e-06
18030.0 8.949e-06
18050.0 8.9124e-06
18070.0 8.8762e-06
18090.0 8.8389e-06
18110.0 8.8009e-06
18130.0 8.7643e-06
18150.0 8.7272e-06
18170.0 8.6887e-06
18190.0 8.6508e-06
18210.0 8.6135e-06
18230.0 8.5746e-06
18250.0 8.5352e-06
18270.0 8.4974e-06
18290.0 8.4588e-06
18310.0 8.4193e-06
18330.0 8.3804e-06
18350.0 8.3422e-06
18370.0 8.3022e-06
18390.0 8.2624e-06
18410.0 8.2234e-06
18430.0 8.1839e-06
18450.0 8.1429e-06
18470.0 8.1033e-06
18490.0 8.0641e-06
18510.0 8.0236e-06
18530.0 7.9831e-06
18550.0 7.9438e-06
18570.0 7.9034e-06
18590.0 7.862e-06
18610.0 7.8218e-06
18630.0 7.7817e-06
18650.0 7.7405e-06
18670.0 7.6992e-06
18690.0 7.6596e-06
18710.0 7.6188e-06
18730.0 7.5774e-06
18750.0 7.5369e-06
18770.0 7.4968e-06
18790.0 7.4547e-06
18810.0 7.4134e-06
18830.0 7.3732e-06
18850.0 7.3321e-06
18870.0 7.2904e-06
18890.0 7.25e-06
18910.0 7.2096e-06
18930.0 7.1679e-06
18950.0 7.1267e-06
18970.0 7.0864e-06
18990.0 7.0452e-06
19010.0 7.0029e-06
19030.0 6.9626e-06
19050.0 6.9222e-06
19070.0 6.8807e-06
19090.0 6.8397e-06
19110.0 6.7999e-06
19130.0 6.7585e-06
19150.0 6.717e-06
19170.0 6.6767e-06
19190.0 6.6363e-06
19210.0 6.5948e-06
19230.0 6.5539e-06
19250.0 6.5143e-06
19270.0 6.4736e-06
19290.0 6.4327e-06
19310.0 6.3929e-06
19330.0 6.353e-06
19350.0 6.3115e-06
19370.0 6.2713e-06
19390.0 6.2318e-06
19410.0 6.1914e-06
19430.0 6.1508e-06
19450.0 6.1117e-06
19470.0 6.0722e-06
19490.0 6.0318e-06
19510.0 5.9923e-06
19530.0 5.9534e-06
19550.0 5.9133e-06
19570.0 5.8731e-06
19590.0 5.8345e-06
19610.0 5.7955e-06
19630.0 5.7558e-06
19650.0 5.7171e-06
19670.0 5.679e-06
19690.0 5.6395e-06
19710.0 5.6005e-06
19730.0 5.5625e-06
19750.0 5.524e-06
19770.0 5.4846e-06
19790.0 5.4466e-06
19810.0 5.4091e-06
19830.0 5.3705e-06
19850.0 5.332e-06
19870.0 5.2943e-06
19890.0 5.2546e-06
19910.0 5.2124e-06
19930.0 5.1686e-06
19950.0 5.1207e-06
19970.0 5.0648e-06
19990.0 5.0006e-06
20010.0 4.6862e-06
20030.0 4.6077e-06
20050.0 4.5185e-06
20070.0 4.4237e-06
20090.0 4.3235e-06
20110.0 4.2123e-06
20130.0 4.101e-06
20150.0 3.9918e-06
20170.0 3.8798e-06
20190.0 3.7672e-06
20210.0 3.6614e-06
20230.0 3.5586e-06
20250.0 3.4562e-06
20270.0 3.361e-06
20290.0 3.274e-06
20310.0 3.191e-06
20330.0 3.1131e-06
20350.0 3.0474e-06
20370.0 2.9883e-06
20390.0 2.9355e-06
20410.0 2.8916e-06
20430.0 2.8563e-06
20450.0 2.8268e-06
20470.0 2.8051e-06
20490.0 2.7907e-06
20510.0 2.7825e-06
20530.0 2.7805e-06
20550.0 2.7841e-06
20570.0 2.7921e-06
20590.0 2.8051e-06
20610.0 2.8224e-06
20630.0 2.8424e-06
20650.0 2.8657e-06
20670.0 2.8932e-06
20690.0 2.9217e-06
20710.0 2.9514e-06
20730.0 2.9838e-06
20750.0 3.0178e-06
20770.0 3.0508e-06
20790.0 3.0855e-06
20810.0 3.1219e-06
20830.0 3.1576e-06
20850.0 3.1929e-06
20870.0 3.2305e-06
20890.0 3.2682e-06
20910.0 3.3039e-06
20930.0 3.3406e-06
20950.0 3.3783e-06
20970.0 3.4145e-06
20990.0 3.4499e-06
21010.0 3.4871e-06
21030.0 3.5231e-06
21050.0 3.5571e-06
21070.0 3.5909e-06
21090.0 3.625e-06
21110.0 3.6557e-06
21130.0 3.6845e-06
21150.0 3.7125e-06
21170.0 3.738e-06
21190.0 3.7598e-06
21210.0 3.7797e-06
21230.0 3.7966e-06
21250.0 3.8088e-06
21270.0 3.8169e-06
21290.0 3.8207e-06
21310.0 3.8191e-06
21330.0 3.8121e-06
21350.0 3.7993e-06
21370.0 3.78e-06
21390.0 3.7547e-06
21410.0 3.7233e-06
21430.0 3.6832e-06
21450.0 3.6374e-06
21470.0 3.5868e-06
21490.0 3.5292e-06
21510.0 3.4653e-06
21530.0 3.3996e-06
21550.0 3.3302e-06
21570.0 3.2555e-06
21590.0 3.1812e-06
21610.0 3.1085e-06
21630.0 3.0349e-06
21650.0 2.9621e-06
21670.0 2.8976e-06
21690.0 2.837e-06
21710.0 2.7809e-06
21730.0 2.7331e-06
21750.0 2.694e-06
21770.0 2.6614e-06
21790.0 2.6383e-06
21810.0 2.6247e-06
21830.0 2.6199e-06
21850.0 2.6243e-06
21870.0 2.6371e-06
21890.0 2.657e-06
21910.0 2.6853e-06
21930.0 2.7205e-06
21950.0 2.7602e-06
21970.0 2.8054e-06
21990.0 2.8578e-06
22010.0 2.911e-06
22030.0 2.9661e-06
22050.0 3.025e-06
22070.0 3.0852e-06
22090.0 3.143e-06
22110.0 3.202e-06
22130.0 3.2619e-06
22150.0 3.3185e-06
22170.0 3.3725e-06
22190.0 3.4267e-06
22210.0 3.4777e-06
22230.0 3.5229e-06
22250.0 3.5658e-06
22270.0 3.6057e-06
22290.0 3.64e-06
22310.0 3.6694e-06
22330.0 3.6957e-06
22350.0 3.716e-06
22370.0 3.7304e-06
22390.0 3.7395e-06
22410.0 3.7427e-06
22430.0 3.7393e-06
22450.0 3.7299e-06
22470.0 3.7137e-06
22490.0 3.6908e-06
22510.0 3.6621e-06
22530.0 3.6257e-06
22550.0 3.5814e-06
22570.0 3.5323e-06
22590.0 3.4769e-06
22610.0 3.4133e-06
