#lamb flux
1010.0 7.9401e-06
1030.0 8.2989e-06
1050.0 8.7137e-06
1070.0 9.1813e-06
1090.0 9.7128e-06
1110.0 1.0259e-05
1130.0 1.0811e-05
1150.0 1.1391e-05
1170.0 1.1991e-05
1190.0 1.2563e-05
1210.0 1.3144e-05
1230.0 1.3748e-05
1250.0 1.4342e-05
1270.0 1.4923e-05
1290.0 1.554e-05
1310.0 1.6159e-05
1330.0 1.6757e-05
1350.0 1.7366e-05
1370.0 1.7998e-05
1390.0 1.8619e-05
1410.0 1.9227e-05
1430.0 1.9865e-05
1450.0 2.0508e-05
1470.0 2.1135e-05
1490.0 2.1773e-05
1510.0 2.2448e-05
1530.0 2.3095e-05
1550.0 2.3737e-05
1570.0 2.4403e-05
1590.0 2.5073e-05
1610.0 2.5718e-05
1630.0 2.6382e-05
1650.0 2.7064e-05
1670.0 2.7725e-05
1690.0 2.8379e-05
1710.0 2.9054e-05
1730.0 2.9731e-05
1750.0 3.0367e-05
1770.0 3.1016e-05
1790.0 3.1673e-05
1810.0 3.2304e-05
1830.0 3.2919e-05
1850.0 3.3563e-05
1870.0 3.4182e-05
1890.0 3.4773e-05
1910.0 3.5367e-05
1930.0 3.5968e-05
1950.0 3.6531e-05
1970.0 3.7079e-05
1990.0 3.7642e-05
2010.0 3.8188e-05
2030.0 3.8706e-05
2050.0 3.9238e-05
2070.0 3.9781e-05
2090.0 4.0288e-05
2110.0 4.0794e-05
2130.0 4.1321e-05
2150.0 4.1842e-05
2170.0 4.2346e-05
2190.0 4.2882e-05
2210.0 4.3436e-05
2230.0 4.3984e-05
2250.0 4.4549e-05
2270.0 4.5163e-05
2290.0 4.5786e-05
2310.0 4.6415e-05
2330.0 4.7096e-05
2350.0 4.7818e-05
2370.0 4.8557e-05
2390.0 4.9345e-05
2410.0 5.0209e-05
2430.0 5.1102e-05
2450.0 5.2026e-05
2470.0 5.2998e-05
2490.0 5.3996e-05
2510.0 5.4977e-05
2530.0 5.6022e-05
2550.0 5.7266e-05
2570.0 5.8916e-05
2590.0 6.1273e-05
2610.0 6.4991e-05
2630.0 7.0481e-05
2650.0 7.7746e-05
2670.0 8.7078e-05
2690.0 9.8476e-05
2710.0 0.00011083
2730.0 0.0001235
2750.0 0.00013671
2770.0 0.00014955
2790.0 0.00016163
2810.0 0.00017351
2830.0 0.00018571
2850.0 0.00019755
2870.0 0.00020963
2890.0 0.00022246
2910.0 0.00023578
2930.0 0.00024921
2950.0 0.00026346
2970.0 0.00027843
2990.0 0.00029352
3010.0 0.00054572
3030.0 0.00057422
3050.0 0.00060294
3070.0 0.00062997
3090.0 0.00065521
3110.0 0.00067495
3130.0 0.00068433
3150.0 0.00067831
3170.0 0.00064694
3190.0 0.00058731
3210.0 0.00049946
3230.0 0.00039759
3250.0 0.00047305
3270.0 0.00029174
3290.0 0.00049755
3310.0 0.00022019
3330.0 0.00023565
3350.0 0.00028871
3370.0 0.00034675
3390.0 0.00040716
3410.0 0.00046728
3430.0 0.00052938
3450.0 0.00059111
3470.0 0.00064854
3490.0 0.00068777
3510.0 0.00079497
3530.0 0.0010073
3550.0 0.0010824
3570.0 0.0010795
3590.0 0.0014197
3610.0 0.0011765
3630.0 0.0014825
3650.0 0.0015508
3670.0 0.0018325
3690.0 0.0018791
3710.0 0.0016859
3730.0 0.0020682
3750.0 0.0021554
3770.0 0.0021907
3790.0 0.0020278
3810.0 0.0017583
3830.0 0.0019061
3850.0 0.0018143
3870.0 0.0021268
3890.0 0.002175
3910.0 0.0022687
3930.0 0.0025809
3950.0 0.0028666
3970.0 0.0035618
3990.0 0.003345
4010.0 0.0028202
4030.0 0.0031362
4050.0 0.0030447
4070.0 0.0031863
4090.0 0.003022
4110.0 0.0025024
4130.0 0.0028839
4150.0 0.0026927
4170.0 0.0027993
4190.0 0.0027884
4210.0 0.0031608
4230.0 0.0026187
4250.0 0.0029778
4270.0 0.0029742
4290.0 0.0030145
4310.0 0.0034004
4330.0 0.0035387
4350.0 0.0031677
4370.0 0.0029715
4390.0 0.0031113
4410.0 0.0029258
4430.0 0.0023699
4450.0 0.0022966
4470.0 0.0024849
4490.0 0.0021688
4510.0 0.0024957
4530.0 0.0027313
4550.0 0.003451
4570.0 0.0047586
4590.0 0.0052111
4610.0 0.0046689
4630.0 0.0060092
4650.0 0.007422
4670.0 0.0071682
4690.0 0.0054582
4710.0 0.0053545
4730.0 0.0056273
4750.0 0.0048508
4770.0 0.0038862
4790.0 0.0031164
4810.0 0.003856
4830.0 0.004348
4850.0 0.0044145
4870.0 0.0030961
4890.0 0.004772
4910.0 0.0056891
4930.0 0.0061399
4950.0 0.006616
4970.0 0.005743
4990.0 0.0062178
5010.0 0.006242
5030.0 0.005832
5050.0 0.0052249
5070.0 0.0039747
5090.0 0.0034334
5110.0 0.0032886
5130.0 0.0030837
5150.0 0.0033841
5170.0 0.0031252
5190.0 0.0035443
5210.0 0.0035656
5230.0 0.0038475
5250.0 0.0046928
5270.0 0.0045755
5290.0 0.0047398
5310.0 0.005919
5330.0 0.0065908
5350.0 0.0061978
5370.0 0.0058521
5390.0 0.0060394
5410.0 0.0066072
5430.0 0.0069676
5450.0 0.0076257
5470.0 0.0083115
5490.0 0.0088401
5510.0 0.010005
5530.0 0.010279
5550.0 0.010496
5570.0 0.010586
5590.0 0.010371
5610.0 0.010038
5630.0 0.0098422
5650.0 0.0099015
5670.0 0.0097632
5690.0 0.0087365
5710.0 0.0080952
5730.0 0.0076164
5750.0 0.0076647
5770.0 0.0069337
5790.0 0.0066831
5810.0 0.0068869
5830.0 0.0071253
5850.0 0.0067014
5870.0 0.0064987
5890.0 0.0069322
5910.0 0.0066594
5930.0 0.0059923
5950.0 0.0055271
5970.0 0.0055075
5990.0 0.0049405
6010.0 0.0044536
6030.0 0.004312
6050.0 0.0041185
6070.0 0.0035769
6090.0 0.0034091
6110.0 0.0038358
6130.0 0.0041269
6150.0 0.0043659
6170.0 0.0045569
6190.0 0.0046889
6210.0 0.0047637
6230.0 0.0050709
6250.0 0.0046766
6270.0 0.0042002
6290.0 0.0037204
6310.0 0.0033862
6330.0 0.0031797
6350.0 0.002938
6370.0 0.0030044
6390.0 0.0034596
6410.0 0.0041699
6430.0 0.0048727
6450.0 0.005076
6470.0 0.0052998
6490.0 0.0060449
6510.0 0.0065021
6530.0 0.0063198
6550.0 0.0062423
6570.0 0.0063212
6590.0 0.0061797
6610.0 0.0064528
6630.0 0.0062268
6650.0 0.005823
6670.0 0.0053799
6690.0 0.0050261
6710.0 0.0053748
6730.0 0.0050352
6750.0 0.0047295
6770.0 0.0046041
6790.0 0.0047833
6810.0 0.0050195
6830.0 0.0049056
6850.0 0.0046129
6870.0 0.0045855
6890.0 0.0044199
6910.0 0.0041969
6930.0 0.0045294
6950.0 0.0044122
6970.0 0.0043989
6990.0 0.0045019
7010.0 0.0043829
7030.0 0.0041138
7050.0 0.0037946
7070.0 0.0036671
7090.0 0.0033559
7110.0 0.0030328
7130.0 0.0026929
7150.0 0.00253
7170.0 0.0029147
7190.0 0.0030764
7210.0 0.0031253
7230.0 0.0033688
7250.0 0.0033953
7270.0 0.0033761
7290.0 0.0034901
7310.0 0.0035598
7330.0 0.0034086
7350.0 0.0032534
7370.0 0.0032131
7390.0 0.0033903
7410.0 0.0038407
7430.0 0.0042343
7450.0 0.0046587
7470.0 0.0048406
7490.0 0.0049625
7510.0 0.0047559
7530.0 0.0045838
7550.0 0.0042567
7570.0 0.0037022
7590.0 0.0035642
7610.0 0.0035369
7630.0 0.0035623
7650.0 0.0040033
7670.0 0.0044321
7690.0 0.0048466
7710.0 0.0053053
7730.0 0.0056563
7750.0 0.0059338
7770.0 0.0059935
7790.0 0.0063624
7810.0 0.0065635
7830.0 0.0063646
7850.0 0.0064143
7870.0 0.0061625
7890.0 0.006199
7910.0 0.0058783
7930.0 0.0058354
7950.0 0.0054569
7970.0 0.0055668
7990.0 0.0054463
8010.0 0.0053617
8030.0 0.0053723
8050.0 0.005585
8070.0 0.0054616
8090.0 0.0054827
8110.0 0.0053175
8130.0 0.0053118
8150.0 0.0051399
8170.0 0.0050064
8190.0 0.0049519
8210.0 0.0049994
8230.0 0.0045802
8250.0 0.0042433
8270.0 0.0037139
8290.0 0.003041
8310.0 0.0024828
8330.0 0.0019527
8350.0 0.0016846
8370.0 0.0018155
8390.0 0.0019808
8410.0 0.0021601
8430.0 0.0025208
8450.0 0.0026809
8470.0 0.0028184
8490.0 0.0031758
8510.0 0.0034986
8530.0 0.0040588
8550.0 0.0048005
8570.0 0.0054283
8590.0 0.0059193
8610.0 0.0064286
8630.0 0.0069183
8650.0 0.0070186
8670.0 0.0070728
8690.0 0.0073298
8710.0 0.0073576
8730.0 0.0074102
8750.0 0.0071614
8770.0 0.0071807
8790.0 0.0070879
8810.0 0.0065869
8830.0 0.0065099
8850.0 0.006158
8870.0 0.0059238
8890.0 0.0055566
8910.0 0.0058159
8930.0 0.0054162
8950.0 0.0052798
8970.0 0.0052502
8990.0 0.0051061
9010.0 0.0051106
9030.0 0.0049458
9050.0 0.0049177
9070.0 0.0049074
9090.0 0.0048966
9110.0 0.0048869
9130.0 0.0048749
9150.0 0.0048619
9170.0 0.0048401
9190.0 0.0048046
9210.0 0.0048422
9230.0 0.0048167
9250.0 0.0047969
9270.0 0.0047781
9290.0 0.0047598
9310.0 0.004742
9330.0 0.0047242
9350.0 0.0047062
9370.0 0.0046881
9390.0 0.0046696
9410.0 0.0046507
9430.0 0.0046314
9450.0 0.0046111
9470.0 0.0045908
9490.0 0.0045716
9510.0 0.0045517
9530.0 0.0045315
9550.0 0.004511
9570.0 0.0044902
9590.0 0.0044692
9610.0 0.0044481
9630.0 0.0044268
9650.0 0.0044054
9670.0 0.004384
9690.0 0.0043624
9710.0 0.0043408
9730.0 0.0043191
9750.0 0.0042975
9770.0 0.0042757
9790.0 0.004254
9810.0 0.0042324
9830.0 0.0042107
9850.0 0.0041891
9870.0 0.0041676
9890.0 0.0041461
9910.0 0.0041246
9930.0 0.004103
9950.0 0.0040634
9970.0 0.0040477
9990.0 0.004031
10010.0 0.004014
10030.0 0.0039956
10050.0 0.0039755
10070.0 0.0039532
10090.0 0.0039347
10110.0 0.0039151
10130.0 0.0038959
10150.0 0.0038768
10170.0 0.0038572
10190.0 0.0038369
10210.0 0.0038178
10230.0 0.0037991
10250.0 0.0037797
10270.0 0.0037607
10290.0 0.0037427
10310.0 0.0037241
10330.0 0.0037051
10350.0 0.0036872
10370.0 0.0036696
10390.0 0.0036515
10410.0 0.0036336
10430.0 0.0036169
10450.0 0.0035997
10470.0 0.0035822
10490.0 0.0035657
10510.0 0.0035494
10530.0 0.0035321
10550.0 0.0035156
10570.0 0.0035
10590.0 0.0034839
10610.0 0.0034676
10630.0 0.0034524
10650.0 0.0034372
10670.0 0.0034213
10690.0 0.003406
10710.0 0.0033914
10730.0 0.0033762
10750.0 0.0033607
10770.0 0.0033465
10790.0 0.0033323
10810.0 0.0033175
10830.0 0.0033031
10850.0 0.0032894
10870.0 0.0032742
10890.0 0.0032585
10910.0 0.0032424
10930.0 0.0032242
10950.0 0.0032018
10970.0 0.0031758
10990.0 0.0031459
11010.0 0.0029799
11030.0 0.0029408
11050.0 0.0028983
11070.0 0.0028511
11090.0 0.0027977
11110.0 0.0027455
11130.0 0.0026933
11150.0 0.0026391
11170.0 0.0025852
11190.0 0.0025349
11210.0 0.0024841
11230.0 0.002433
11250.0 0.0023852
11270.0 0.0023398
11290.0 0.0022943
11310.0 0.0022509
11330.0 0.0022126
11350.0 0.0021754
11370.0 0.0021397
11390.0 0.0021077
11410.0 0.0020783
11430.0 0.0020486
11450.0 0.002021
11470.0 0.0019953
11490.0 0.0019694
11510.0 0.0019423
11530.0 0.0019161
11550.0 0.0018893
11570.0 0.0018597
11590.0 0.0018289
11610.0 0.0017976
11630.0 0.001763
11650.0 0.0017254
11670.0 0.0016884
11690.0 0.0016503
11710.0 0.0016096
11730.0 0.001569
11750.0 0.0015305
11770.0 0.0014907
11790.0 0.0014513
11810.0 0.0014148
11830.0 0.0013801
11850.0 0.0013451
11870.0 0.0013136
11890.0 0.0012854
11910.0 0.0012581
11930.0 0.0012325
11950.0 0.00121
11970.0 0.0011889
11990.0 0.0011681
12010.0 0.0011493
12030.0 0.0011323
12050.0 0.0011155
12070.0 0.0010991
12090.0 0.001085
12110.0 0.0010713
12130.0 0.001058
12150.0 0.0010462
12170.0 0.001036
12190.0 0.0010261
12210.0 0.0010181
12230.0 0.0010125
12250.0 0.0010089
12270.0 0.0010075
12290.0 0.0010092
12310.0 0.0010139
12330.0 0.0010218
12350.0 0.0010329
12370.0 0.0010471
12390.0 0.0010643
12410.0 0.0010852
12430.0 0.0011078
12450.0 0.0011321
12470.0 0.0011585
12490.0 0.0011858
12510.0 0.0012126
12530.0 0.0012398
12550.0 0.0012669
12570.0 0.0012921
12590.0 0.0013158
12610.0 0.0013383
12630.0 0.0013587
12650.0 0.0013763
12670.0 0.001392
12690.0 0.0014056
12710.0 0.0014167
12730.0 0.0014257
12750.0 0.0014326
12770.0 0.0014373
12790.0 0.0014402
12810.0 0.0014411
12830.0 0.00144
12850.0 0.0014376
12870.0 0.0014337
12890.0 0.001428
12910.0 0.0014211
12930.0 0.0014133
12950.0 0.0014037
12970.0 0.0013926
12990.0 0.0013812
13010.0 0.0013686
13030.0 0.0013544
13050.0 0.0013395
13070.0 0.0013245
13090.0 0.0013078
13110.0 0.0012903
13130.0 0.001273
13150.0 0.0012556
13170.0 0.0012372
13190.0 0.00122
13210.0 0.0012045
13230.0 0.0011895
13250.0 0.0011763
13270.0 0.0011656
13290.0 0.0011571
13310.0 0.0011506
13330.0 0.0011471
13350.0 0.001146
13370.0 0.0011469
13390.0 0.0011498
13410.0 0.0011539
13430.0 0.0011586
13450.0 0.0011634
13470.0 0.0011676
13490.0 0.0011705
13510.0 0.0011715
13530.0 0.0011703
13550.0 0.0011667
13570.0 0.0011606
13590.0 0.0011515
13610.0 0.0011405
13630.0 0.0011278
13650.0 0.001113
13670.0 0.001097
13690.0 0.0010809
13710.0 0.0010642
13730.0 0.0010468
13750.0 0.0010309
13770.0 0.0010157
13790.0 0.0010009
13810.0 0.00098709
13830.0 0.00097478
13850.0 0.00096291
13870.0 0.00095168
13890.0 0.00094159
13910.0 0.0009322
13930.0 0.00092301
13950.0 0.0009144
13970.0 0.00090662
13990.0 0.000899
14010.0 0.00089166
14030.0 0.00088494
14050.0 0.00087865
14070.0 0.0008725
14090.0 0.00086697
14110.0 0.00086203
14130.0 0.00085747
14150.0 0.00085337
14170.0 0.0008499
14190.0 0.00084692
14210.0 0.00084439
14230.0 0.00084241
14250.0 0.00084094
14270.0 0.00084
14290.0 0.00083964
14310.0 0.00083973
14330.0 0.0008403
14350.0 0.00084141
14370.0 0.00084286
14390.0 0.00084446
14410.0 0.0008464
14430.0 0.00084843
14450.0 0.00085027
14470.0 0.00085196
14490.0 0.00085357
14510.0 0.00085469
14530.0 0.00085536
14550.0 0.00085578
14570.0 0.00085592
14590.0 0.00085575
14610.0 0.00085555
14630.0 0.00085555
14650.0 0.00085576
14670.0 0.00085637
14690.0 0.00085779
14710.0 0.0008602
14730.0 0.00086331
14750.0 0.00086768
14770.0 0.0008736
14790.0 0.00088067
14810.0 0.00088881
14830.0 0.00089916
14850.0 0.00091071
14870.0 0.00092282
14890.0 0.00093605
14910.0 0.00095017
14930.0 0.00096346
14950.0 0.00097551
14970.0 0.00098661
14990.0 0.00099519
15010.0 0.0010007
15030.0 0.0010038
15050.0 0.0010044
15070.0 0.0010025
15090.0 0.00099915
15110.0 0.00099474
15130.0 0.00098966
15150.0 0.00098426
15170.0 0.00097862
15190.0 0.00097288
15210.0 0.00096713
15230.0 0.00096138
15250.0 0.00095557
15270.0 0.00094977
15290.0 0.00094403
15310.0 0.00093825
15330.0 0.00093246
15350.0 0.00092671
15370.0 0.00092098
15390.0 0.00091518
15410.0 0.00090944
15430.0 0.00090373
15450.0 0.000898
15470.0 0.00089226
15490.0 0.0008866
15510.0 0.00088094
15530.0 0.00087525
15550.0 0.00086961
15570.0 0.00086401
15590.0 0.00085839
15610.0 0.00085276
15630.0 0.00084722
15650.0 0.00084168
15670.0 0.00083614
15690.0 0.00083064
15710.0 0.0008252
15730.0 0.00081973
15750.0 0.00081429
15770.0 0.00080891
15790.0 0.00080355
15810.0 0.00079817
15830.0 0.00079286
15850.0 0.0007876
15870.0 0.00078233
15890.0 0.00077709
15910.0 0.00077193
15930.0 0.00076677
15950.0 0.0007616
15970.0 0.00075651
15990.0 0.00075146
16010.0 0.00074641
16030.0 0.00074138
16050.0 0.00073645
16070.0 0.00073152
16090.0 0.00072661
16110.0 0.00072175
16130.0 0.00071695
16150.0 0.00071212
16170.0 0.00070735
16190.0 0.00070265
16210.0 0.00069797
16230.0 0.0006933
16250.0 0.0006887
16270.0 0.00068415
16290.0 0.00067959
16310.0 0.00067508
16330.0 0.00067064
16350.0 0.00066621
16370.0 0.00066178
16390.0 0.00065744
16410.0 0.00065314
16430.0 0.00064885
16450.0 0.0006446
16470.0 0.00064043
16490.0 0.00063626
16510.0 0.00063211
16530.0 0.00062803
16550.0 0.00062399
16570.0 0.00061995
16590.0 0.00061596
16610.0 0.00061205
16630.0 0.00060814
16650.0 0.00060426
16670.0 0.00060045
16690.0 0.00059667
16710.0 0.00059288
16730.0 0.00058916
16750.0 0.0005855
16770.0 0.00058184
16790.0 0.00057821
16810.0 0.00057466
16830.0 0.00057113
16850.0 0.00056762
16870.0 0.00056415
16890.0 0.00056074
16910.0 0.00055733
16930.0 0.00055395
16950.0 0.00055064
16970.0 0.00054736
16990.0 0.00054409
17010.0 0.00054087
17030.0 0.00053771
17050.0 0.00053454
17070.0 0.00053141
17090.0 0.00052834
17110.0 0.00052529
17130.0 0.00052224
17150.0 0.00051926
17170.0 0.00051632
17190.0 0.00051339
17210.0 0.00051049
17230.0 0.00050766
17250.0 0.00050483
17270.0 0.00050201
17290.0 0.00049926
17310.0 0.00049654
17330.0 0.00049382
17350.0 0.00049113
17370.0 0.00048851
17390.0 0.00048591
17410.0 0.00048331
17430.0 0.00048076
17450.0 0.00047826
17470.0 0.00047574
17490.0 0.00047326
17510.0 0.00047084
17530.0 0.00046843
17550.0 0.00046603
17570.0 0.00046368
17590.0 0.00046137
17610.0 0.00045905
17630.0 0.00045677
17650.0 0.00045454
17670.0 0.00045232
17690.0 0.00045009
17710.0 0.00044794
17730.0 0.0004458
17750.0 0.00044367
17770.0 0.00044157
17790.0 0.00043952
17810.0 0.00043747
17830.0 0.00043543
17850.0 0.00043344
17870.0 0.00043147
17890.0 0.0004295
17910.0 0.00042757
17930.0 0.00042568
17950.0 0.0004238
17970.0 0.00042192
17990.0 0.0004201
18010.0 0.00041829
18030.0 0.00041647
18050.0 0.0004147
18070.0 0.00041296
18090.0 0.00041122
18110.0 0.00040949
18130.0 0.00040781
18150.0 0.00040615
18170.0 0.00040448
18190.0 0.00040285
18210.0 0.00040126
18230.0 0.00039965
18250.0 0.00039806
18270.0 0.00039652
18290.0 0.00039498
18310.0 0.00039345
18330.0 0.00039195
18350.0 0.00039049
18370.0 0.00038901
18390.0 0.00038755
18410.0 0.00038613
18430.0 0.00038472
18450.0 0.0003833
18470.0 0.00038192
18490.0 0.00038057
18510.0 0.00037921
18530.0 0.00037787
18550.0 0.00037657
18570.0 0.00037527
18590.0 0.00037396
18610.0 0.00037269
18630.0 0.00037145
18650.0 0.00037019
18670.0 0.00036895
18690.0 0.00036776
18710.0 0.00036656
18730.0 0.00036536
18750.0 0.00036419
18770.0 0.00036305
18790.0 0.00036188
18810.0 0.00036074
18830.0 0.00035963
18850.0 0.00035852
18870.0 0.00035741
18890.0 0.00035634
18910.0 0.00035529
18930.0 0.00035421
18950.0 0.00035316
18970.0 0.00035214
18990.0 0.00035112
19010.0 0.00035008
19030.0 0.00034909
19050.0 0.00034811
19070.0 0.00034712
19090.0 0.00034615
19110.0 0.00034521
19130.0 0.00034425
19150.0 0.0003433
19170.0 0.00034238
19190.0 0.00034147
19210.0 0.00034055
19230.0 0.00033965
19250.0 0.00033878
19270.0 0.00033789
19290.0 0.00033701
19310.0 0.00033616
19330.0 0.00033532
19350.0 0.00033445
19370.0 0.00033362
19390.0 0.0003328
19410.0 0.00033198
19430.0 0.00033115
19450.0 0.00033037
19470.0 0.00032958
19490.0 0.00032878
19510.0 0.000328
19530.0 0.00032724
19550.0 0.00032647
19570.0 0.00032569
19590.0 0.00032496
19610.0 0.00032422
19630.0 0.00032347
19650.0 0.00032274
19670.0 0.00032204
19690.0 0.00032131
19710.0 0.00032059
19730.0 0.0003199
19750.0 0.0003192
19770.0 0.00031849
19790.0 0.00031781
19810.0 0.00031714
19830.0 0.00031645
19850.0 0.00031576
19870.0 0.00031507
19890.0 0.00031431
19910.0 0.00031343
19930.0 0.00031242
19950.0 0.00031117
19970.0 0.00030952
19990.0 0.0003074
20010.0 0.00030489
20030.0 0.00030174
20050.0 0.00029799
20070.0 0.00029387
20090.0 0.00028942
20110.0 0.00028438
20130.0 0.00027929
20150.0 0.00027425
20170.0 0.00026903
20190.0 0.00026374
20210.0 0.00025874
20230.0 0.00025385
20250.0 0.00024893
20270.0 0.00024435
20290.0 0.00024013
20310.0 0.00023609
20330.0 0.00023228
20350.0 0.00022909
20370.0 0.00022623
20390.0 0.00022372
20410.0 0.00022168
20430.0 0.00022013
20450.0 0.00021892
20470.0 0.00021818
20490.0 0.00021787
20510.0 0.00021794
20530.0 0.0002184
20550.0 0.0002192
20570.0 0.00022026
20590.0 0.00022161
20610.0 0.0002232
20630.0 0.0002249
20650.0 0.00022674
20670.0 0.00022876
20690.0 0.00023072
20710.0 0.00023263
20730.0 0.00023454
20750.0 0.00023635
20770.0 0.00023794
20790.0 0.0002394
20810.0 0.00024069
20830.0 0.00024173
20850.0 0.00024252
20870.0 0.00024308
20890.0 0.00024338
20910.0 0.00024341
20930.0 0.00024321
20950.0 0.00024275
20970.0 0.00024209
20990.0 0.00024124
21010.0 0.00024016
21030.0 0.00023892
21050.0 0.00023758
21070.0 0.0002361
21090.0 0.00023447
21110.0 0.00023284
21130.0 0.0002312
21150.0 0.00022947
21170.0 0.00022778
21190.0 0.00022617
21210.0 0.00022456
21230.0 0.00022301
21250.0 0.00022162
21270.0 0.00022036
21290.0 0.00021921
21310.0 0.00021823
21330.0 0.00021748
21350.0 0.00021687
21370.0 0.00021646
21390.0 0.00021626
21410.0 0.00021626
21430.0 0.00021646
21450.0 0.00021687
21470.0 0.00021745
21490.0 0.00021821
21510.0 0.00021917
21530.0 0.00022023
21550.0 0.00022143
21570.0 0.00022281
21590.0 0.00022427
21610.0 0.00022579
21630.0 0.00022744
21650.0 0.00022921
21670.0 0.00023093
21690.0 0.00023273
21710.0 0.00023462
21730.0 0.00023651
21750.0 0.00023837
21770.0 0.00024037
21790.0 0.00024237
21810.0 0.00024431
21830.0 0.00024629
21850.0 0.00024834
21870.0 0.00025033
21890.0 0.00025225
21910.0 0.00025424
21930.0 0.00025619
21950.0 0.00025805
21970.0 0.00025989
21990.0 0.00026175
22010.0 0.00026344
22030.0 0.00026502
22050.0 0.00026653
22070.0 0.00026791
22090.0 0.00026908
22110.0 0.00027012
22130.0 0.00027097
22150.0 0.0002716
22170.0 0.000272
22190.0 0.00027216
22210.0 0.00027205
22230.0 0.00027169
22250.0 0.00027105
22270.0 0.0002701
22290.0 0.00026892
22310.0 0.00026749
22330.0 0.00026571
22350.0 0.00026369
22370.0 0.0002615
22390.0 0.00025902
22410.0 0.00025625
22430.0 0.00025342
22450.0 0.00025046
22470.0 0.00024724
22490.0 0.00024395
22510.0 0.0002407
22530.0 0.00023724
22550.0 0.00023369
22570.0 0.0002303
22590.0 0.00022693
22610.0 0.00022349
22630.0 0.00022017
22650.0 0.00021708
22670.0 0.00021398
22690.0 0.00021096
22710.0 0.00020818
22730.0 0.00020555
22750.0 0.00020291
22770.0 0.00020052
22790.0 0.00019834
22810.0 0.00019624
22830.0 0.00019425
22850.0 0.00019248
22870.0 0.00019081
22890.0 0.0001892
22910.0 0.00018774
22930.0 0.00018641
22950.0 0.00018513
22970.0 0.00018393
22990.0 0.00018288
23010.0 0.0001819
23030.0 0.00018096
23050.0 0.00018013
23070.0 0.00017939
23090.0 0.00017867
23110.0 0.00017802
23130.0 0.00017746
23150.0 0.00017695
