#lamb flux
1010.0 7.2268e-07
1030.0 8.1356e-07
1050.0 9.1195e-07
1070.0 1.0233e-06
1090.0 1.1523e-06
1110.0 1.2853e-06
1130.0 1.4204e-06
1150.0 1.5632e-06
1170.0 1.7123e-06
1190.0 1.8565e-06
1210.0 2.0056e-06
1230.0 2.1627e-06
1250.0 2.3205e-06
1270.0 2.4785e-06
1290.0 2.6492e-06
1310.0 2.8249e-06
1330.0 2.9997e-06
1350.0 3.1812e-06
1370.0 3.3725e-06
1390.0 3.5648e-06
1410.0 3.757e-06
1430.0 3.9599e-06
1450.0 4.1665e-06
1470.0 4.3707e-06
1490.0 4.5789e-06
1510.0 4.7981e-06
1530.0 5.0095e-06
1550.0 5.2192e-06
1570.0 5.4342e-06
1590.0 5.6484e-06
1610.0 5.853e-06
1630.0 6.0593e-06
1650.0 6.2666e-06
1670.0 6.4639e-06
1690.0 6.6537e-06
1710.0 6.844e-06
1730.0 7.0285e-06
1750.0 7.1949e-06
1770.0 7.3581e-06
1790.0 7.5159e-06
1810.0 7.6589e-06
1830.0 7.7893e-06
1850.0 7.9199e-06
1870.0 8.0357e-06
1890.0 8.1355e-06
1910.0 8.2282e-06
1930.0 8.3143e-06
1950.0 8.3822e-06
1970.0 8.4378e-06
1990.0 8.4888e-06
2010.0 8.5264e-06
2030.0 8.5478e-06
2050.0 8.5631e-06
2070.0 8.5711e-06
2090.0 8.5593e-06
2110.0 8.536e-06
2130.0 8.5054e-06
2150.0 8.4605e-06
2170.0 8.3984e-06
2190.0 8.3295e-06
2210.0 8.2499e-06
2230.0 8.1538e-06
2250.0 8.0462e-06
2270.0 7.9332e-06
2290.0 7.8059e-06
2310.0 7.6646e-06
2330.0 7.5177e-06
2350.0 7.3628e-06
2370.0 7.1958e-06
2390.0 7.022e-06
2410.0 6.8443e-06
2430.0 6.6547e-06
2450.0 6.4538e-06
2470.0 6.2437e-06
2490.0 6.0224e-06
2510.0 5.7909e-06
2530.0 5.5619e-06
2550.0 5.3536e-06
2570.0 5.1893e-06
2590.0 5.0936e-06
2610.0 5.1144e-06
2630.0 5.2658e-06
2650.0 5.5219e-06
2670.0 5.881e-06
2690.0 6.3154e-06
2710.0 6.7243e-06
2730.0 7.0561e-06
2750.0 7.3107e-06
2770.0 7.4223e-06
2790.0 7.377e-06
2810.0 7.2026e-06
2830.0 6.9101e-06
2850.0 6.5195e-06
2870.0 6.0663e-06
2890.0 5.564e-06
2910.0 5.0327e-06
2930.0 4.4964e-06
2950.0 3.945e-06
2970.0 3.3852e-06
2990.0 2.836e-06
3010.0 5.1623e-06
3030.0 3.9255e-06
3050.0 2.6908e-06
3070.0 1.4912e-06
3090.0 1.123e-06
3110.0 1.123e-06
3130.0 1.123e-06
3150.0 1.123e-06
3170.0 1.123e-06
3190.0 1.123e-06
3210.0 4.7223e-06
3230.0 2.2036e-05
3250.0 4.4004e-05
3270.0 4.7844e-05
3290.0 5.9169e-05
3310.0 4.9864e-05
3330.0 5.1352e-05
3350.0 5.6808e-05
3370.0 6.4286e-05
3390.0 7.2907e-05
3410.0 8.2096e-05
3430.0 9.3295e-05
3450.0 0.00010511
3470.0 0.00011758
3490.0 0.00012686
3510.0 0.00013154
3530.0 0.0001391
3550.0 0.0001428
3570.0 0.00013908
3590.0 0.0001466
3610.0 0.00014019
3630.0 0.00017174
3650.0 0.00019448
3670.0 0.00020864
3690.0 0.0001922
3710.0 0.00015137
3730.0 0.00013727
3750.0 0.00011982
3770.0 0.0001064
3790.0 9.3185e-05
3810.0 9.0915e-05
3830.0 0.00011189
3850.0 4.4222e-05
3870.0 0.00010323
3890.0 0.00012558
3910.0 0.00013343
3930.0 0.00015876
3950.0 0.00017273
3970.0 0.00020545
3990.0 0.00025405
4010.0 0.00017789
4030.0 0.00014342
4050.0 0.00011891
4070.0 0.00012849
4090.0 0.00020012
4110.0 0.00018519
4130.0 0.0001958
4150.0 0.00018317
4170.0 0.0001754
4190.0 0.0001616
4210.0 0.00024028
4230.0 0.00025014
4250.0 0.00026897
4270.0 0.00025103
4290.0 0.00025899
4310.0 0.00029555
4330.0 0.00034554
4350.0 0.00033845
4370.0 0.00032414
4390.0 0.00028303
4410.0 0.00026275
4430.0 0.00021023
4450.0 0.00018143
4470.0 0.00020525
4490.0 0.0002483
4510.0 0.000258
4530.0 0.00027328
4550.0 0.00029175
4570.0 0.00040294
4590.0 0.00058572
4610.0 0.00069663
4630.0 0.000695
4650.0 0.00070224
4670.0 0.00078404
4690.0 0.00086186
4710.0 0.00070587
4730.0 0.00053583
4750.0 0.00042994
4770.0 0.00038929
4790.0 0.00037551
4810.0 0.00035942
4830.0 0.00039496
4850.0 0.00045254
4870.0 0.00049876
4890.0 0.00051171
4910.0 0.00046102
4930.0 0.00048529
4950.0 0.00060605
4970.0 0.00074145
4990.0 0.00077641
5010.0 0.00071228
5030.0 0.0005875
5050.0 0.00044244
5070.0 0.00035004
5090.0 0.00031409
5110.0 0.0003066
5130.0 0.00031414
5150.0 0.00031362
5170.0 0.00030714
5190.0 0.00029314
5210.0 0.00028788
5230.0 0.00031825
5250.0 0.00035701
5270.0 0.00042477
5290.0 0.00049444
5310.0 0.00051397
5330.0 0.00054572
5350.0 0.00060717
5370.0 0.00065163
5390.0 0.00059798
5410.0 0.00052948
5430.0 0.00050849
5450.0 0.00058613
5470.0 0.00073592
5490.0 0.00087791
5510.0 0.00094467
5530.0 0.00093525
5550.0 0.00089044
5570.0 0.00086221
5590.0 0.00083754
5610.0 0.00083461
5630.0 0.000831
5650.0 0.0008294
5670.0 0.00083195
5690.0 0.00078033
5710.0 0.0006602
5730.0 0.00058024
5750.0 0.000538
5770.0 0.00054776
5790.0 0.00057323
5810.0 0.00060625
5830.0 0.00062335
5850.0 0.00059814
5870.0 0.00055765
5890.0 0.00052264
5910.0 0.00053531
5930.0 0.00057134
5950.0 0.00054716
5970.0 0.00049102
5990.0 0.00041728
6010.0 0.00033934
6030.0 0.00030193
6050.0 0.00031786
6070.0 0.00034613
6090.0 0.0003461
6110.0 0.00030659
6130.0 0.0003034
6150.0 0.0003463
6170.0 0.00040596
6190.0 0.00045997
6210.0 0.00046826
6230.0 0.00045521
6250.0 0.00041803
6270.0 0.00035597
6290.0 0.00029656
6310.0 0.00025856
6330.0 0.00024838
6350.0 0.00025665
6370.0 0.00025845
6390.0 0.00027819
6410.0 0.00033759
6430.0 0.00042772
6450.0 0.00050415
6470.0 0.00053121
6490.0 0.0005208
6510.0 0.00053038
6530.0 0.00055318
6550.0 0.00054831
6570.0 0.00056646
6590.0 0.00057397
6610.0 0.0005817
6630.0 0.00058401
6650.0 0.00055886
6670.0 0.00051445
6690.0 0.00045763
6710.0 0.00041986
6730.0 0.00042093
6750.0 0.00044187
6770.0 0.0004582
6790.0 0.00046928
6810.0 0.00047475
6830.0 0.00046491
6850.0 0.00044861
6870.0 0.00042167
6890.0 0.00041025
6910.0 0.00038992
6930.0 0.00039804
6950.0 0.00042759
6970.0 0.0004428
6990.0 0.00045575
7010.0 0.0004478
7030.0 0.00041521
7050.0 0.00036537
7070.0 0.00031398
7090.0 0.00028066
7110.0 0.00027598
7130.0 0.0002822
7150.0 0.000263
7170.0 0.00024575
7190.0 0.00025768
7210.0 0.00028945
7230.0 0.00033589
7250.0 0.00036496
7270.0 0.00036851
7290.0 0.0003391
7310.0 0.00030826
7330.0 0.00028973
7350.0 0.0002886
7370.0 0.0002956
7390.0 0.00030754
7410.0 0.00033535
7430.0 0.00038893
7450.0 0.00044641
7470.0 0.00048339
7490.0 0.00048624
7510.0 0.0004606
7530.0 0.00038498
7550.0 0.000338
7570.0 0.00029362
7590.0 0.00027158
7610.0 0.00028318
7630.0 0.00031518
7650.0 0.00035435
7670.0 0.00039062
7690.0 0.00041386
7710.0 0.00044045
7730.0 0.00046944
7750.0 0.00049522
7770.0 0.00049246
7790.0 0.0004936
7810.0 0.00050591
7830.0 0.00051527
7850.0 0.00050198
7870.0 0.00048206
7890.0 0.00047266
7910.0 0.00044844
7930.0 0.00044103
7950.0 0.00042029
7970.0 0.00041228
7990.0 0.00040257
8010.0 0.0004178
8030.0 0.00042099
8050.0 0.00042648
8070.0 0.00042224
8090.0 0.00042057
8110.0 0.00040322
8130.0 0.00040136
8150.0 0.00039412
8170.0 0.0003833
8190.0 0.00037664
8210.0 0.000378
8230.0 0.00036526
8250.0 0.00035194
8270.0 0.00031272
8290.0 0.00025201
8310.0 0.00018767
8330.0 0.00014219
8350.0 0.0001304
8370.0 0.00015503
8390.0 0.00018851
8410.0 0.00020677
8430.0 0.00021655
8450.0 0.00022721
8470.0 0.00024069
8490.0 0.00026851
8510.0 0.00030571
8530.0 0.00035491
8550.0 0.00040695
8570.0 0.00045297
8590.0 0.0004894
8610.0 0.0005138
8630.0 0.00052216
8650.0 0.00052088
8670.0 0.00052112
8690.0 0.00054307
8710.0 0.00056959
8730.0 0.00059066
8750.0 0.00058683
8770.0 0.00059303
8790.0 0.00058829
8810.0 0.00055024
8830.0 0.00052489
8850.0 0.0004886
8870.0 0.00045921
8890.0 0.00044632
8910.0 0.00045026
8930.0 0.00042654
8950.0 0.00040321
8970.0 0.00039381
8990.0 0.0003885
9010.0 0.00037428
9030.0 0.00036574
9050.0 0.00036306
9070.0 0.0003618
9090.0 0.00036068
9110.0 0.00035959
9130.0 0.00035847
9150.0 0.00035736
9170.0 0.00035601
9190.0 0.00035478
9210.0 0.00035566
9230.0 0.00035385
9250.0 0.00035237
9270.0 0.00035105
9290.0 0.00034983
9310.0 0.00034865
9330.0 0.0003475
9350.0 0.00034642
9370.0 0.00034533
9390.0 0.00034422
9410.0 0.00034315
9430.0 0.00034205
9450.0 0.00034062
9470.0 0.0003393
9490.0 0.00033854
9510.0 0.00033761
9530.0 0.00033662
9550.0 0.00033562
9570.0 0.0003346
9590.0 0.00033355
9610.0 0.0003325
9630.0 0.00033145
9650.0 0.0003304
9670.0 0.00032934
9690.0 0.00032829
9710.0 0.00032725
9730.0 0.00032619
9750.0 0.00032514
9770.0 0.0003241
9790.0 0.00032304
9810.0 0.00032198
9830.0 0.00032093
9850.0 0.00031988
9870.0 0.00031881
9890.0 0.00031775
9910.0 0.00031668
9930.0 0.00031557
9950.0 0.00031192
9970.0 0.0003116
9990.0 0.00031114
10010.0 0.00031057
10030.0 0.0003098
10050.0 0.00030884
10070.0 0.00030783
10090.0 0.00030685
10110.0 0.0003057
10130.0 0.00030464
10150.0 0.00030354
10170.0 0.00030235
10190.0 0.00030107
10210.0 0.0002999
10230.0 0.00029876
10250.0 0.00029751
10270.0 0.00029626
10290.0 0.0002951
10310.0 0.00029383
10330.0 0.00029247
10350.0 0.00029122
10370.0 0.00028995
10390.0 0.00028858
10410.0 0.00028721
10430.0 0.00028594
10450.0 0.00028455
10470.0 0.0002831
10490.0 0.00028171
10510.0 0.00028032
10530.0 0.00027876
10550.0 0.00027725
10570.0 0.0002758
10590.0 0.00027426
10610.0 0.00027265
10630.0 0.00027112
10650.0 0.00026955
10670.0 0.00026784
10690.0 0.00026617
10710.0 0.00026454
10730.0 0.0002628
10750.0 0.00026095
10770.0 0.00025925
10790.0 0.00025748
10810.0 0.0002556
10830.0 0.00025374
10850.0 0.00025194
10870.0 0.00024993
10890.0 0.00024789
10910.0 0.00024589
10930.0 0.00024378
10950.0 0.00024146
10970.0 0.00023908
10990.0 0.00023667
11010.0 0.00023733
11030.0 0.00023433
11050.0 0.00023142
11070.0 0.00022848
11090.0 0.00022536
11110.0 0.00022252
11130.0 0.00021982
11150.0 0.0002171
11170.0 0.00021445
11190.0 0.00021203
11210.0 0.00020958
11230.0 0.0002071
11250.0 0.00020474
11270.0 0.00020246
11290.0 0.00020007
11310.0 0.00019769
11330.0 0.00019547
11350.0 0.00019319
11370.0 0.00019083
11390.0 0.00018853
11410.0 0.00018624
11430.0 0.00018373
11450.0 0.00018119
11470.0 0.00017865
11490.0 0.00017594
11510.0 0.000173
11530.0 0.00017009
11550.0 0.00016708
11570.0 0.00016381
11590.0 0.00016047
11610.0 0.00015715
11630.0 0.00015363
11650.0 0.00014995
11670.0 0.00014644
11690.0 0.00014292
11710.0 0.0001393
11730.0 0.00013577
11750.0 0.00013247
11770.0 0.00012911
11790.0 0.00012583
11810.0 0.00012277
11830.0 0.00011984
11850.0 0.00011688
11870.0 0.00011415
11890.0 0.00011164
11910.0 0.00010916
11930.0 0.00010676
11950.0 0.00010456
11970.0 0.00010244
11990.0 0.00010032
12010.0 9.8354e-05
12030.0 9.6516e-05
12050.0 9.471e-05
12070.0 9.2963e-05
12090.0 9.1423e-05
12110.0 8.9963e-05
12130.0 8.858e-05
12150.0 8.7358e-05
12170.0 8.6301e-05
12190.0 8.5329e-05
12210.0 8.4532e-05
12230.0 8.3925e-05
12250.0 8.3478e-05
12270.0 8.32e-05
12290.0 8.3113e-05
12310.0 8.32e-05
12330.0 8.3475e-05
12350.0 8.3936e-05
12370.0 8.4554e-05
12390.0 8.5348e-05
12410.0 8.6365e-05
12430.0 8.7482e-05
12450.0 8.8718e-05
12470.0 9.0119e-05
12490.0 9.162e-05
12510.0 9.3119e-05
12530.0 9.4705e-05
12550.0 9.6341e-05
12570.0 9.7892e-05
12590.0 9.936e-05
12610.0 0.00010079
12630.0 0.00010206
12650.0 0.00010309
12670.0 0.00010396
12690.0 0.00010462
12710.0 0.00010501
12730.0 0.00010516
12750.0 0.00010508
12770.0 0.00010474
12790.0 0.00010419
12810.0 0.00010344
12830.0 0.00010248
12850.0 0.00010141
12870.0 0.00010025
12890.0 9.8961e-05
12910.0 9.7641e-05
12930.0 9.6337e-05
12950.0 9.4986e-05
12970.0 9.3629e-05
12990.0 9.2361e-05
13010.0 9.1126e-05
13030.0 8.9894e-05
13050.0 8.8717e-05
13070.0 8.7611e-05
13090.0 8.6491e-05
13110.0 8.5382e-05
13130.0 8.4321e-05
13150.0 8.327e-05
13170.0 8.2178e-05
13190.0 8.1131e-05
13210.0 8.013e-05
13230.0 7.9124e-05
13250.0 7.815e-05
13270.0 7.7265e-05
13290.0 7.6437e-05
13310.0 7.5673e-05
13330.0 7.5035e-05
13350.0 7.4522e-05
13370.0 7.4121e-05
13390.0 7.3848e-05
13410.0 7.3702e-05
13430.0 7.3653e-05
13450.0 7.3687e-05
13470.0 7.3768e-05
13490.0 7.386e-05
13510.0 7.3942e-05
13530.0 7.3962e-05
13550.0 7.389e-05
13570.0 7.3705e-05
13590.0 7.3375e-05
13610.0 7.2906e-05
13630.0 7.2309e-05
13650.0 7.155e-05
13670.0 7.0667e-05
13690.0 6.9715e-05
13710.0 6.8675e-05
13730.0 6.7538e-05
13750.0 6.6444e-05
13770.0 6.5371e-05
13790.0 6.4301e-05
13810.0 6.3295e-05
13830.0 6.2398e-05
13850.0 6.1553e-05
13870.0 6.0785e-05
13890.0 6.0129e-05
13910.0 5.9562e-05
13930.0 5.9055e-05
13950.0 5.8626e-05
13970.0 5.8275e-05
13990.0 5.7964e-05
14010.0 5.7689e-05
14030.0 5.7449e-05
14050.0 5.7227e-05
14070.0 5.7002e-05
14090.0 5.6778e-05
14110.0 5.6546e-05
14130.0 5.6289e-05
14150.0 5.5999e-05
14170.0 5.569e-05
14190.0 5.5351e-05
14210.0 5.4971e-05
14230.0 5.4568e-05
14250.0 5.4156e-05
14270.0 5.3715e-05
14290.0 5.3263e-05
14310.0 5.2839e-05
14330.0 5.2429e-05
14350.0 5.2036e-05
14370.0 5.1686e-05
14390.0 5.1387e-05
14410.0 5.1122e-05
14430.0 5.0906e-05
14450.0 5.0742e-05
14470.0 5.0619e-05
14490.0 5.0534e-05
14510.0 5.0486e-05
14530.0 5.0467e-05
14550.0 5.0476e-05
14570.0 5.051e-05
14590.0 5.0565e-05
14610.0 5.0648e-05
14630.0 5.0766e-05
14650.0 5.0915e-05
14670.0 5.1097e-05
14690.0 5.1329e-05
14710.0 5.1616e-05
14730.0 5.1932e-05
14750.0 5.2306e-05
14770.0 5.2748e-05
14790.0 5.3236e-05
14810.0 5.3769e-05
14830.0 5.4406e-05
14850.0 5.5106e-05
14870.0 5.5847e-05
14890.0 5.6664e-05
14910.0 5.7557e-05
14930.0 5.8441e-05
14950.0 5.9293e-05
14970.0 6.0127e-05
14990.0 6.0852e-05
15010.0 6.1426e-05
15030.0 6.1872e-05
15050.0 6.219e-05
15070.0 6.2367e-05
15090.0 6.2458e-05
15110.0 6.2489e-05
15130.0 6.248e-05
15150.0 6.245e-05
15170.0 6.2408e-05
15190.0 6.2361e-05
15210.0 6.2313e-05
15230.0 6.2265e-05
15250.0 6.2216e-05
15270.0 6.2167e-05
15290.0 6.212e-05
15310.0 6.2072e-05
15330.0 6.2024e-05
15350.0 6.1977e-05
15370.0 6.1931e-05
15390.0 6.1883e-05
15410.0 6.1837e-05
15430.0 6.1791e-05
15450.0 6.1745e-05
15470.0 6.1699e-05
15490.0 6.1654e-05
15510.0 6.1609e-05
15530.0 6.1563e-05
15550.0 6.1518e-05
15570.0 6.1474e-05
15590.0 6.1429e-05
15610.0 6.1383e-05
15630.0 6.1339e-05
15650.0 6.1295e-05
15670.0 6.125e-05
15690.0 6.1205e-05
15710.0 6.1162e-05
15730.0 6.1117e-05
15750.0 6.1072e-05
15770.0 6.1028e-05
15790.0 6.0984e-05
15810.0 6.0938e-05
15830.0 6.0894e-05
15850.0 6.085e-05
15870.0 6.0805e-05
15890.0 6.076e-05
15910.0 6.0715e-05
15930.0 6.067e-05
15950.0 6.0624e-05
15970.0 6.0579e-05
15990.0 6.0534e-05
16010.0 6.0487e-05
16030.0 6.044e-05
16050.0 6.0395e-05
16070.0 6.0349e-05
16090.0 6.0301e-05
16110.0 6.0254e-05
16130.0 6.0208e-05
16150.0 6.0159e-05
16170.0 6.011e-05
16190.0 6.0062e-05
16210.0 6.0013e-05
16230.0 5.9963e-05
16250.0 5.9914e-05
16270.0 5.9865e-05
16290.0 5.9814e-05
16310.0 5.9762e-05
16330.0 5.9712e-05
16350.0 5.966e-05
16370.0 5.9606e-05
16390.0 5.9553e-05
16410.0 5.95e-05
16430.0 5.9446e-05
16450.0 5.9391e-05
16470.0 5.9336e-05
16490.0 5.928e-05
16510.0 5.9223e-05
16530.0 5.9166e-05
16550.0 5.9108e-05
16570.0 5.9049e-05
16590.0 5.8989e-05
16610.0 5.893e-05
16630.0 5.8869e-05
16650.0 5.8808e-05
16670.0 5.8746e-05
16690.0 5.8683e-05
16710.0 5.8618e-05
16730.0 5.8554e-05
16750.0 5.8489e-05
16770.0 5.8422e-05
16790.0 5.8354e-05
16810.0 5.8287e-05
16830.0 5.8218e-05
16850.0 5.8148e-05
16870.0 5.8077e-05
16890.0 5.8006e-05
16910.0 5.7933e-05
16930.0 5.7858e-05
16950.0 5.7784e-05
16970.0 5.7709e-05
16990.0 5.7632e-05
17010.0 5.7554e-05
17030.0 5.7476e-05
17050.0 5.7396e-05
17070.0 5.7315e-05
17090.0 5.7234e-05
17110.0 5.7151e-05
17130.0 5.7066e-05
17150.0 5.6981e-05
17170.0 5.6895e-05
17190.0 5.6808e-05
17210.0 5.6719e-05
17230.0 5.663e-05
17250.0 5.6539e-05
17270.0 5.6447e-05
17290.0 5.6354e-05
17310.0 5.626e-05
17330.0 5.6164e-05
17350.0 5.6067e-05
17370.0 5.597e-05
17390.0 5.5872e-05
17410.0 5.5771e-05
17430.0 5.567e-05
17450.0 5.5569e-05
17470.0 5.5464e-05
17490.0 5.5359e-05
17510.0 5.5253e-05
17530.0 5.5146e-05
17550.0 5.5037e-05
17570.0 5.4928e-05
17590.0 5.4818e-05
17610.0 5.4705e-05
17630.0 5.4592e-05
17650.0 5.4478e-05
17670.0 5.4363e-05
17690.0 5.4245e-05
17710.0 5.4128e-05
17730.0 5.4009e-05
17750.0 5.3888e-05
17770.0 5.3767e-05
17790.0 5.3645e-05
17810.0 5.3521e-05
17830.0 5.3396e-05
17850.0 5.327e-05
17870.0 5.3144e-05
17890.0 5.3015e-05
17910.0 5.2885e-05
17930.0 5.2756e-05
17950.0 5.2624e-05
17970.0 5.2491e-05
17990.0 5.2358e-05
18010.0 5.2224e-05
18030.0 5.2088e-05
18050.0 5.1951e-05
18070.0 5.1814e-05
18090.0 5.1675e-05
18110.0 5.1535e-05
18130.0 5.1395e-05
18150.0 5.1254e-05
18170.0 5.1111e-05
18190.0 5.0968e-05
18210.0 5.0824e-05
18230.0 5.0679e-05
18250.0 5.0532e-05
18270.0 5.0386e-05
18290.0 5.0238e-05
18310.0 5.0089e-05
18330.0 4.994e-05
18350.0 4.9791e-05
18370.0 4.964e-05
18390.0 4.9488e-05
18410.0 4.9336e-05
18430.0 4.9184e-05
18450.0 4.9029e-05
18470.0 4.8875e-05
18490.0 4.8721e-05
18510.0 4.8565e-05
18530.0 4.8409e-05
18550.0 4.8253e-05
18570.0 4.8096e-05
18590.0 4.7938e-05
18610.0 4.778e-05
18630.0 4.7622e-05
18650.0 4.7462e-05
18670.0 4.7302e-05
18690.0 4.7143e-05
18710.0 4.6983e-05
18730.0 4.6821e-05
18750.0 4.6661e-05
18770.0 4.65e-05
18790.0 4.6337e-05
18810.0 4.6175e-05
18830.0 4.6013e-05
18850.0 4.5851e-05
18870.0 4.5688e-05
18890.0 4.5525e-05
18910.0 4.5362e-05
18930.0 4.5199e-05
18950.0 4.5035e-05
18970.0 4.4872e-05
18990.0 4.4708e-05
19010.0 4.4544e-05
19030.0 4.4381e-05
19050.0 4.4217e-05
19070.0 4.4053e-05
19090.0 4.3889e-05
19110.0 4.3726e-05
19130.0 4.3562e-05
19150.0 4.3398e-05
19170.0 4.3235e-05
19190.0 4.3072e-05
19210.0 4.2908e-05
19230.0 4.2744e-05
19250.0 4.2582e-05
19270.0 4.2419e-05
19290.0 4.2256e-05
19310.0 4.2094e-05
19330.0 4.1932e-05
19350.0 4.177e-05
19370.0 4.1608e-05
19390.0 4.1447e-05
19410.0 4.1286e-05
19430.0 4.1124e-05
19450.0 4.0965e-05
19470.0 4.0805e-05
19490.0 4.0645e-05
19510.0 4.0485e-05
19530.0 4.0327e-05
19550.0 4.0168e-05
19570.0 4.0009e-05
19590.0 3.9852e-05
19610.0 3.9695e-05
19630.0 3.9538e-05
19650.0 3.9381e-05
19670.0 3.9226e-05
19690.0 3.907e-05
19710.0 3.8915e-05
19730.0 3.8761e-05
19750.0 3.8608e-05
19770.0 3.8454e-05
19790.0 3.8301e-05
19810.0 3.8149e-05
19830.0 3.7996e-05
19850.0 3.7842e-05
19870.0 3.7687e-05
19890.0 3.7523e-05
19910.0 3.7345e-05
19930.0 3.7147e-05
19950.0 3.6918e-05
19970.0 3.6637e-05
19990.0 3.6296e-05
20010.0 3.5902e-05
20030.0 3.5434e-05
20050.0 3.4895e-05
20070.0 3.4318e-05
20090.0 3.3708e-05
20110.0 3.3043e-05
20130.0 3.2384e-05
20150.0 3.1744e-05
20170.0 3.1098e-05
20190.0 3.0458e-05
20210.0 2.9858e-05
20230.0 2.9277e-05
20250.0 2.8698e-05
20270.0 2.8152e-05
20290.0 2.764e-05
20310.0 2.7138e-05
20330.0 2.6646e-05
20350.0 2.6201e-05
20370.0 2.5771e-05
20390.0 2.535e-05
20410.0 2.4956e-05
20430.0 2.4591e-05
20450.0 2.423e-05
20470.0 2.389e-05
20490.0 2.358e-05
20510.0 2.3289e-05
20530.0 2.3013e-05
20550.0 2.2765e-05
20570.0 2.2544e-05
20590.0 2.2341e-05
20610.0 2.216e-05
20630.0 2.2006e-05
20650.0 2.1873e-05
20670.0 2.1759e-05
20690.0 2.1668e-05
20710.0 2.1597e-05
20730.0 2.1542e-05
20750.0 2.1505e-05
20770.0 2.1479e-05
20790.0 2.1465e-05
20810.0 2.1464e-05
20830.0 2.1467e-05
20850.0 2.1474e-05
20870.0 2.1486e-05
20890.0 2.1498e-05
20910.0 2.1503e-05
20930.0 2.1505e-05
20950.0 2.1501e-05
20970.0 2.1485e-05
20990.0 2.1458e-05
21010.0 2.142e-05
21030.0 2.1367e-05
21050.0 2.13e-05
21070.0 2.1217e-05
21090.0 2.1118e-05
21110.0 2.1006e-05
21130.0 2.088e-05
21150.0 2.0738e-05
21170.0 2.0584e-05
21190.0 2.0422e-05
21210.0 2.0246e-05
21230.0 2.0057e-05
21250.0 1.9867e-05
21270.0 1.967e-05
21290.0 1.9464e-05
21310.0 1.9256e-05
21330.0 1.9053e-05
21350.0 1.8844e-05
21370.0 1.8634e-05
21390.0 1.8433e-05
21410.0 1.8236e-05
21430.0 1.8038e-05
21450.0 1.7853e-05
21470.0 1.7681e-05
21490.0 1.7517e-05
21510.0 1.7365e-05
21530.0 1.7231e-05
21550.0 1.7111e-05
21570.0 1.7005e-05
21590.0 1.6917e-05
21610.0 1.6848e-05
21630.0 1.6795e-05
21650.0 1.6762e-05
21670.0 1.6744e-05
21690.0 1.6742e-05
21710.0 1.6757e-05
21730.0 1.6785e-05
21750.0 1.6821e-05
21770.0 1.6873e-05
21790.0 1.6934e-05
21810.0 1.6996e-05
21830.0 1.7064e-05
21850.0 1.7137e-05
21870.0 1.7206e-05
21890.0 1.727e-05
21910.0 1.7335e-05
21930.0 1.7393e-05
21950.0 1.7441e-05
21970.0 1.7483e-05
21990.0 1.7519e-05
22010.0 1.7542e-05
22030.0 1.7555e-05
22050.0 1.756e-05
22070.0 1.7556e-05
22090.0 1.7541e-05
22110.0 1.7518e-05
22130.0 1.7487e-05
22150.0 1.7447e-05
22170.0 1.7401e-05
22190.0 1.7347e-05
22210.0 1.7287e-05
22230.0 1.7221e-05
22250.0 1.7149e-05
22270.0 1.7069e-05
22290.0 1.6985e-05
22310.0 1.6895e-05
22330.0 1.6795e-05
22350.0 1.6689e-05
22370.0 1.6577e-05
22390.0 1.6456e-05
22410.0 1.6323e-05
22430.0 1.6185e-05
22450.0 1.6039e-05
22470.0 1.5879e-05
22490.0 1.5711e-05
22510.0 1.5538e-05
22530.0 1.535e-05
22550.0 1.5151e-05
22570.0 1.4951e-05
22590.0 1.4745e-05
22610.0 1.4528e-05
22630.0 1.431e-05
22650.0 1.4098e-05
