#lamb flux
1010.0 1.4479e-08
1030.0 1.6014e-08
1050.0 1.7779e-08
1070.0 1.9766e-08
1090.0 2.2023e-08
1110.0 2.4339e-08
1130.0 2.6669e-08
1150.0 2.911e-08
1170.0 3.1627e-08
1190.0 3.4015e-08
1210.0 3.6435e-08
1230.0 3.8935e-08
1250.0 4.1385e-08
1270.0 4.3764e-08
1290.0 4.6278e-08
1310.0 4.879e-08
1330.0 5.1199e-08
1350.0 5.3635e-08
1370.0 5.6151e-08
1390.0 5.8603e-08
1410.0 6.0983e-08
1430.0 6.347e-08
1450.0 6.5958e-08
1470.0 6.8362e-08
1490.0 7.0793e-08
1510.0 7.336e-08
1530.0 7.5793e-08
1550.0 7.8194e-08
1570.0 8.0678e-08
1590.0 8.3165e-08
1610.0 8.5542e-08
1630.0 8.7993e-08
1650.0 9.051e-08
1670.0 9.2946e-08
1690.0 9.5352e-08
1710.0 9.7853e-08
1730.0 1.0037e-07
1750.0 1.0274e-07
1770.0 1.0518e-07
1790.0 1.0767e-07
1810.0 1.1009e-07
1830.0 1.1247e-07
1850.0 1.1499e-07
1870.0 1.1746e-07
1890.0 1.1985e-07
1910.0 1.2229e-07
1930.0 1.2479e-07
1950.0 1.2718e-07
1970.0 1.2956e-07
1990.0 1.3202e-07
2010.0 1.3445e-07
2030.0 1.368e-07
2050.0 1.3923e-07
2070.0 1.4172e-07
2090.0 1.4408e-07
2110.0 1.4644e-07
2130.0 1.4887e-07
2150.0 1.5126e-07
2170.0 1.5355e-07
2190.0 1.5593e-07
2210.0 1.5833e-07
2230.0 1.6064e-07
2250.0 1.6294e-07
2270.0 1.6535e-07
2290.0 1.6769e-07
2310.0 1.6993e-07
2330.0 1.7227e-07
2350.0 1.7467e-07
2370.0 1.7706e-07
2390.0 1.7964e-07
2410.0 1.8271e-07
2430.0 1.8623e-07
2450.0 1.9045e-07
2470.0 1.9585e-07
2490.0 2.0266e-07
2510.0 2.1039e-07
2530.0 2.197e-07
2550.0 2.3136e-07
2570.0 2.4586e-07
2590.0 2.6473e-07
2610.0 2.9297e-07
2630.0 3.3329e-07
2650.0 3.8601e-07
2670.0 4.5418e-07
2690.0 5.3794e-07
2710.0 6.2736e-07
2730.0 7.1571e-07
2750.0 8.0274e-07
2770.0 8.7843e-07
2790.0 9.3854e-07
2810.0 9.8625e-07
2830.0 1.0235e-06
2850.0 1.049e-06
2870.0 1.0676e-06
2890.0 1.0824e-06
2910.0 1.0942e-06
2930.0 1.1039e-06
2950.0 1.1131e-06
2970.0 1.1221e-06
2990.0 1.1305e-06
3010.0 3.1954e-05
3030.0 3.2193e-05
3050.0 3.2424e-05
3070.0 3.2622e-05
3090.0 3.2792e-05
3110.0 3.2897e-05
3130.0 3.2893e-05
3150.0 3.2747e-05
3170.0 3.2396e-05
3190.0 3.1845e-05
3210.0 3.1147e-05
3230.0 3.0347e-05
3250.0 2.9558e-05
3270.0 2.8981e-05
3290.0 2.8661e-05
3310.0 2.8713e-05
3330.0 2.9129e-05
3350.0 2.9852e-05
3370.0 3.0886e-05
3390.0 3.2188e-05
3410.0 3.3605e-05
3430.0 3.5196e-05
3450.0 3.7027e-05
3470.0 3.9028e-05
3490.0 4.1147e-05
3510.0 4.3543e-05
3530.0 4.6109e-05
3550.0 4.8706e-05
3570.0 5.1416e-05
3590.0 5.4363e-05
3610.0 5.7399e-05
3630.0 6.0426e-05
3650.0 6.3567e-05
3670.0 6.6434e-05
3690.0 6.8577e-05
3710.0 6.9806e-05
3730.0 6.9847e-05
3750.0 6.8875e-05
3770.0 6.8493e-05
3790.0 6.8085e-05
3810.0 6.6412e-05
3830.0 6.8468e-05
3850.0 7.6555e-05
3870.0 8.0995e-05
3890.0 8.0625e-05
3910.0 8.0969e-05
3930.0 8.31e-05
3950.0 8.4413e-05
3970.0 7.6907e-05
3990.0 6.6175e-05
4010.0 0.00019834
4030.0 0.00024031
4050.0 0.0002755
4070.0 0.00023905
4090.0 0.0002165
4110.0 0.00019104
4130.0 0.00017584
4150.0 0.00018704
4170.0 0.00018424
4190.0 0.00019639
4210.0 0.00019459
4230.0 0.00020582
4250.0 0.00024349
4270.0 0.00024636
4290.0 0.00022701
4310.0 0.00023588
4330.0 0.00025091
4350.0 0.00028133
4370.0 0.00032016
4390.0 0.00030044
4410.0 0.00022197
4430.0 0.00018791
4450.0 0.00017267
4470.0 0.00013253
4490.0 0.00014302
4510.0 0.00021603
4530.0 0.00024915
4550.0 0.00025131
4570.0 0.00028279
4590.0 0.00032212
4610.0 0.00043446
4630.0 0.00056428
4650.0 0.00061195
4670.0 0.00056672
4690.0 0.00054075
4710.0 0.00057162
4730.0 0.00053944
4750.0 0.0004033
4770.0 0.00029584
4790.0 0.00027625
4810.0 0.00026331
4830.0 0.00024106
4850.0 0.00026452
4870.0 0.00034946
4890.0 0.00041212
4910.0 0.00036158
4930.0 0.00031995
4950.0 0.00035151
4970.0 0.00045079
4990.0 0.00061092
5010.0 0.00070279
5030.0 0.0006197
5050.0 0.00041927
5070.0 0.00027631
5090.0 0.0002228
5110.0 0.00022913
5130.0 0.00026446
5150.0 0.00028652
5170.0 0.00028222
5190.0 0.00026372
5210.0 0.00027564
5230.0 0.00028976
5250.0 0.00031229
5270.0 0.00033693
5290.0 0.00037339
5310.0 0.00043462
5330.0 0.00048096
5350.0 0.0004779
5370.0 0.00050199
5390.0 0.00057604
5410.0 0.00057553
5430.0 0.00050897
5450.0 0.00046763
5470.0 0.00049654
5490.0 0.00060663
5510.0 0.00075851
5530.0 0.00086997
5550.0 0.00084084
5570.0 0.00076439
5590.0 0.00066465
5610.0 0.00061296
5630.0 0.00059438
5650.0 0.00056609
5670.0 0.00053642
5690.0 0.00047956
5710.0 0.00046758
5730.0 0.00043071
5750.0 0.00030368
5770.0 0.00023692
5790.0 0.00026848
5810.0 0.00030316
5830.0 0.00037202
5850.0 0.00044285
5870.0 0.00049135
5890.0 0.00049968
5910.0 0.00049022
5930.0 0.00046664
5950.0 0.0004755
5970.0 0.00054201
5990.0 0.00050964
6010.0 0.00042723
6030.0 0.00036095
6050.0 0.00031434
6070.0 0.00031262
6090.0 0.00033898
6110.0 0.00037904
6130.0 0.00038485
6150.0 0.00033113
6170.0 0.00029129
6190.0 0.0003278
6210.0 0.00043335
6230.0 0.00056868
6250.0 0.00061596
6270.0 0.00053826
6290.0 0.00045287
6310.0 0.00035354
6330.0 0.00027088
6350.0 0.00024162
6370.0 0.00025409
6390.0 0.00029374
6410.0 0.0003622
6430.0 0.00042295
6450.0 0.00048396
6470.0 0.00055414
6490.0 0.00066937
6510.0 0.00074844
6530.0 0.00073427
6550.0 0.00066397
6570.0 0.00056365
6590.0 0.00050826
6610.0 0.00043825
6630.0 0.00039704
6650.0 0.00037532
6670.0 0.00036461
6690.0 0.00032945
6710.0 0.00029947
6730.0 0.00021571
6750.0 0.00021385
6770.0 0.00023244
6790.0 0.00026717
6810.0 0.00024447
6830.0 0.00025173
6850.0 0.00023545
6870.0 0.00021508
6890.0 0.00020651
6910.0 0.00022007
6930.0 0.00020612
6950.0 0.00021207
6970.0 0.00022306
6990.0 0.00025319
7010.0 0.00025534
7030.0 0.0002594
7050.0 0.00024738
7070.0 0.00023571
7090.0 0.0002364
7110.0 0.00024324
7130.0 0.00026176
7150.0 0.00027801
7170.0 0.00030676
7190.0 0.00033722
7210.0 0.00033136
7230.0 0.00034065
7250.0 0.00036608
7270.0 0.00039894
7290.0 0.0004735
7310.0 0.00051379
7330.0 0.00049662
7350.0 0.00044916
7370.0 0.00039081
7390.0 0.00037914
7410.0 0.00040291
7430.0 0.00044778
7450.0 0.00048772
7470.0 0.00048324
7490.0 0.00044062
7510.0 0.00049911
7530.0 0.00049365
7550.0 0.0004437
7570.0 0.00034661
7590.0 0.00023828
7610.0 0.00020452
7630.0 0.00023237
7650.0 0.00027475
7670.0 0.00034194
7690.0 0.00037628
7710.0 0.00039213
7730.0 0.00041208
7750.0 0.0004626
7770.0 0.00046988
7790.0 0.0004316
7810.0 0.00039381
7830.0 0.00040611
7850.0 0.00039477
7870.0 0.00036194
7890.0 0.0003041
7910.0 0.00024719
7930.0 0.00023603
7950.0 0.00021503
7970.0 0.00019905
7990.0 0.00019791
8010.0 1.4658e-05
8030.0 1.4468e-05
8050.0 1.4272e-05
8070.0 1.4459e-05
8090.0 1.5536e-05
8110.0 1.5271e-05
8130.0 1.2597e-05
8150.0 1.2268e-05
8170.0 1.0567e-05
8190.0 1.0015e-05
8210.0 1.3005e-05
8230.0 1.4479e-05
8250.0 1.305e-05
8270.0 1.1358e-05
8290.0 1.1072e-05
8310.0 8.5216e-06
8330.0 5.7436e-06
8350.0 4.0761e-06
8370.0 2.5681e-06
8390.0 4.6945e-06
8410.0 5.4704e-06
8430.0 6.7431e-06
8450.0 7.9182e-06
8470.0 9.8418e-06
8490.0 9.7724e-06
8510.0 9.6126e-06
8530.0 1.0032e-05
8550.0 1.3535e-05
8570.0 1.6024e-05
8590.0 1.729e-05
8610.0 2.184e-05
8630.0 2.631e-05
8650.0 2.7523e-05
8670.0 2.9249e-05
8690.0 2.9412e-05
8710.0 2.6637e-05
8730.0 2.4777e-05
8750.0 2.187e-05
8770.0 2.0751e-05
8790.0 2.0387e-05
8810.0 1.9535e-05
8830.0 1.5621e-05
8850.0 1.1436e-05
8870.0 8.7564e-06
8890.0 8.5608e-06
8910.0 9.8108e-06
8930.0 1.1159e-05
8950.0 1.1373e-05
8970.0 1.1427e-05
8990.0 1.0191e-05
9010.0 0.0001068
9030.0 9.6772e-05
9050.0 9.7239e-05
9070.0 9.8006e-05
9090.0 9.868e-05
9110.0 9.9511e-05
9130.0 0.00010015
9150.0 0.00010065
9170.0 0.00010118
9190.0 0.00010175
9210.0 0.00010235
9230.0 0.00010298
9250.0 0.00010362
9270.0 0.00010428
9290.0 0.00010497
9310.0 0.00010566
9330.0 0.00010636
9350.0 0.00010709
9370.0 0.00010783
9390.0 0.00010857
9410.0 0.00010934
9430.0 0.00011013
9450.0 0.00011091
9470.0 0.00011172
9490.0 0.00011254
9510.0 0.00011338
9530.0 0.00011422
9550.0 0.00011509
9570.0 0.00011597
9590.0 0.00011686
9610.0 0.00011776
9630.0 0.00011869
9650.0 0.00011962
9670.0 0.00012056
9690.0 0.00012152
9710.0 0.00012249
9730.0 0.00012347
9750.0 0.00012446
9770.0 0.00012549
9790.0 0.00012651
9810.0 0.00012753
9830.0 0.00012858
9850.0 0.00012964
9870.0 0.0001307
9890.0 0.00013177
9910.0 0.00013286
9930.0 0.00013396
9950.0 0.00013506
9970.0 0.00013618
9990.0 0.00013731
10010.0 0.00011915
10030.0 0.00012013
10050.0 0.00012112
10070.0 0.00012216
10090.0 0.00012313
10110.0 0.00012413
10130.0 0.00012513
10150.0 0.00012612
10170.0 0.00012713
10190.0 0.00012816
10210.0 0.00012918
10230.0 0.00013019
10250.0 0.00013122
10270.0 0.00013225
10290.0 0.00013326
10310.0 0.00013429
10330.0 0.00013533
10350.0 0.00013635
10370.0 0.00013736
10390.0 0.00013839
10410.0 0.00013942
10430.0 0.00014042
10450.0 0.00014143
10470.0 0.00014245
10490.0 0.00014345
10510.0 0.00014444
10530.0 0.00014545
10550.0 0.00014644
10570.0 0.00014742
10590.0 0.00014839
10610.0 0.00014937
10630.0 0.00015032
10650.0 0.00015126
10670.0 0.00015222
10690.0 0.00015315
10710.0 0.00015407
10730.0 0.00015498
10750.0 0.0001559
10770.0 0.00015678
10790.0 0.00015766
10810.0 0.00015853
10830.0 0.00015938
10850.0 0.00016018
10870.0 0.00016096
10890.0 0.00016164
10910.0 0.00016217
10930.0 0.00016247
10950.0 0.0001624
10970.0 0.00016185
10990.0 0.00016077
11010.0 0.00015896
11030.0 0.00015643
11050.0 0.00015335
11070.0 0.00014967
11090.0 0.00014524
11110.0 0.00014066
11130.0 0.00013588
11150.0 0.00013074
11170.0 0.00012543
11190.0 0.00012029
11210.0 0.00011498
11230.0 0.00010953
11250.0 0.00010433
11270.0 9.9327e-05
11290.0 9.432e-05
11310.0 8.9577e-05
11330.0 8.5399e-05
11350.0 8.1453e-05
11370.0 7.7806e-05
11390.0 7.4651e-05
11410.0 7.1891e-05
11430.0 6.9326e-05
11450.0 6.7116e-05
11470.0 6.5205e-05
11490.0 6.3428e-05
11510.0 6.1715e-05
11530.0 6.0125e-05
11550.0 5.8546e-05
11570.0 5.6861e-05
11590.0 5.5116e-05
11610.0 5.334e-05
11630.0 5.1407e-05
11650.0 4.9338e-05
11670.0 4.7298e-05
11690.0 4.523e-05
11710.0 4.3096e-05
11730.0 4.1029e-05
11750.0 3.9115e-05
11770.0 3.7239e-05
11790.0 3.548e-05
11810.0 3.3932e-05
11830.0 3.2548e-05
11850.0 3.1273e-05
11870.0 3.0206e-05
11890.0 2.9319e-05
11910.0 2.854e-05
11930.0 2.787e-05
11950.0 2.7312e-05
11970.0 2.6814e-05
11990.0 2.6343e-05
12010.0 2.5907e-05
12030.0 2.5487e-05
12050.0 2.5053e-05
12070.0 2.4602e-05
12090.0 2.4166e-05
12110.0 2.3725e-05
12130.0 2.3282e-05
12150.0 2.2874e-05
12170.0 2.2517e-05
12190.0 2.2209e-05
12210.0 2.1994e-05
12230.0 2.189e-05
12250.0 2.1907e-05
12270.0 2.2072e-05
12290.0 2.2384e-05
12310.0 2.2832e-05
12330.0 2.3459e-05
12350.0 2.4241e-05
12370.0 2.5132e-05
12390.0 2.6158e-05
12410.0 2.7361e-05
12430.0 2.8584e-05
12450.0 2.985e-05
12470.0 3.1197e-05
12490.0 3.2549e-05
12510.0 3.3817e-05
12530.0 3.508e-05
12550.0 3.6297e-05
12570.0 3.7372e-05
12590.0 3.8315e-05
12610.0 3.9156e-05
12630.0 3.9826e-05
12650.0 4.0289e-05
12670.0 4.0593e-05
12690.0 4.0715e-05
12710.0 4.0648e-05
12730.0 4.0412e-05
12750.0 3.9992e-05
12770.0 3.9415e-05
12790.0 3.8715e-05
12810.0 3.788e-05
12830.0 3.6913e-05
12850.0 3.5903e-05
12870.0 3.4834e-05
12890.0 3.3677e-05
12910.0 3.2502e-05
12930.0 3.1343e-05
12950.0 3.0134e-05
12970.0 2.8904e-05
12990.0 2.7739e-05
13010.0 2.659e-05
13030.0 2.5427e-05
13050.0 2.431e-05
13070.0 2.3264e-05
13090.0 2.2215e-05
13110.0 2.1199e-05
13130.0 2.0263e-05
13150.0 1.9376e-05
13170.0 1.8508e-05
13190.0 1.7735e-05
13210.0 1.7055e-05
13230.0 1.6434e-05
13250.0 1.5898e-05
13270.0 1.5476e-05
13290.0 1.5148e-05
13310.0 1.4922e-05
13330.0 1.4819e-05
13350.0 1.483e-05
13370.0 1.4963e-05
13390.0 1.5225e-05
13410.0 1.5578e-05
13430.0 1.6037e-05
13450.0 1.6604e-05
13470.0 1.7234e-05
13490.0 1.79e-05
13510.0 1.8652e-05
13530.0 1.9414e-05
13550.0 2.0144e-05
13570.0 2.0863e-05
13590.0 2.1565e-05
13610.0 2.2188e-05
13630.0 2.2733e-05
13650.0 2.323e-05
13670.0 2.3643e-05
13690.0 2.3962e-05
13710.0 2.4209e-05
13730.0 2.4385e-05
13750.0 2.4473e-05
13770.0 2.4493e-05
13790.0 2.4449e-05
13810.0 2.434e-05
13830.0 2.4181e-05
13850.0 2.3965e-05
13870.0 2.3693e-05
13890.0 2.3381e-05
13910.0 2.303e-05
13930.0 2.2623e-05
13950.0 2.2179e-05
13970.0 2.1726e-05
13990.0 2.1231e-05
14010.0 2.0706e-05
14030.0 2.0182e-05
14050.0 1.9653e-05
14070.0 1.9096e-05
14090.0 1.8561e-05
14110.0 1.8059e-05
14130.0 1.7572e-05
14150.0 1.7114e-05
14170.0 1.6723e-05
14190.0 1.6385e-05
14210.0 1.6098e-05
14230.0 1.5885e-05
14250.0 1.5748e-05
14270.0 1.5682e-05
14290.0 1.5696e-05
14310.0 1.5783e-05
14330.0 1.594e-05
14350.0 1.6172e-05
14370.0 1.646e-05
14390.0 1.6787e-05
14410.0 1.7172e-05
14430.0 1.7595e-05
14450.0 1.8027e-05
14470.0 1.8475e-05
14490.0 1.8952e-05
14510.0 1.9408e-05
14530.0 1.9841e-05
14550.0 2.0274e-05
14570.0 2.0689e-05
14590.0 2.1067e-05
14610.0 2.1433e-05
14630.0 2.1795e-05
14650.0 2.2132e-05
14670.0 2.2458e-05
14690.0 2.2797e-05
14710.0 2.3154e-05
14730.0 2.3511e-05
14750.0 2.3907e-05
14770.0 2.4355e-05
14790.0 2.4841e-05
14810.0 2.5368e-05
14830.0 2.5993e-05
14850.0 2.6671e-05
14870.0 2.7379e-05
14890.0 2.8143e-05
14910.0 2.8954e-05
14930.0 2.9734e-05
14950.0 3.0462e-05
14970.0 3.1152e-05
14990.0 3.1731e-05
15010.0 3.2173e-05
15030.0 3.2501e-05
15050.0 3.2718e-05
15070.0 3.2824e-05
15090.0 3.2861e-05
15110.0 3.285e-05
15130.0 3.2809e-05
15150.0 3.2753e-05
15170.0 3.2688e-05
15190.0 3.2617e-05
15210.0 3.2548e-05
15230.0 3.2479e-05
15250.0 3.2407e-05
15270.0 3.2336e-05
15290.0 3.2269e-05
15310.0 3.22e-05
15330.0 3.213e-05
15350.0 3.2063e-05
15370.0 3.1997e-05
15390.0 3.1927e-05
15410.0 3.186e-05
15430.0 3.1794e-05
15450.0 3.1727e-05
15470.0 3.1659e-05
15490.0 3.1595e-05
15510.0 3.1531e-05
15530.0 3.1464e-05
15550.0 3.1399e-05
15570.0 3.1336e-05
15590.0 3.127e-05
15610.0 3.1204e-05
15630.0 3.1141e-05
15650.0 3.1078e-05
15670.0 3.1013e-05
15690.0 3.0949e-05
15710.0 3.0888e-05
15730.0 3.0824e-05
15750.0 3.076e-05
15770.0 3.0699e-05
15790.0 3.0637e-05
15810.0 3.0572e-05
15830.0 3.051e-05
15850.0 3.0449e-05
15870.0 3.0387e-05
15890.0 3.0324e-05
15910.0 3.0264e-05
15930.0 3.0203e-05
15950.0 3.0139e-05
15970.0 3.0078e-05
15990.0 3.0018e-05
16010.0 2.9955e-05
16030.0 2.9892e-05
16050.0 2.9833e-05
16070.0 2.9772e-05
16090.0 2.971e-05
16110.0 2.9649e-05
16130.0 2.959e-05
16150.0 2.9527e-05
16170.0 2.9465e-05
16190.0 2.9405e-05
16210.0 2.9344e-05
16230.0 2.9282e-05
16250.0 2.9221e-05
16270.0 2.9162e-05
16290.0 2.91e-05
16310.0 2.9038e-05
16330.0 2.8979e-05
16350.0 2.8917e-05
16370.0 2.8853e-05
16390.0 2.8793e-05
16410.0 2.8733e-05
16430.0 2.867e-05
16450.0 2.8608e-05
16470.0 2.8549e-05
16490.0 2.8487e-05
16510.0 2.8424e-05
16530.0 2.8363e-05
16550.0 2.8302e-05
16570.0 2.8238e-05
16590.0 2.8175e-05
16610.0 2.8115e-05
16630.0 2.8053e-05
16650.0 2.7989e-05
16670.0 2.7928e-05
16690.0 2.7867e-05
16710.0 2.7801e-05
16730.0 2.7738e-05
16750.0 2.7677e-05
16770.0 2.7613e-05
16790.0 2.7548e-05
16810.0 2.7486e-05
16830.0 2.7424e-05
16850.0 2.7359e-05
16870.0 2.7295e-05
16890.0 2.7233e-05
16910.0 2.7167e-05
16930.0 2.7101e-05
16950.0 2.7038e-05
16970.0 2.6974e-05
16990.0 2.6908e-05
17010.0 2.6843e-05
17030.0 2.678e-05
17050.0 2.6714e-05
17070.0 2.6648e-05
17090.0 2.6583e-05
17110.0 2.6518e-05
17130.0 2.645e-05
17150.0 2.6384e-05
17170.0 2.6319e-05
17190.0 2.6252e-05
17210.0 2.6185e-05
17230.0 2.612e-05
17250.0 2.6054e-05
17270.0 2.5984e-05
17290.0 2.5917e-05
17310.0 2.5851e-05
17330.0 2.5783e-05
17350.0 2.5713e-05
17370.0 2.5648e-05
17390.0 2.558e-05
17410.0 2.551e-05
17430.0 2.5442e-05
17450.0 2.5376e-05
17470.0 2.5304e-05
17490.0 2.5234e-05
17510.0 2.5167e-05
17530.0 2.5098e-05
17550.0 2.5027e-05
17570.0 2.4958e-05
17590.0 2.489e-05
17610.0 2.4819e-05
17630.0 2.4748e-05
17650.0 2.4679e-05
17670.0 2.4609e-05
17690.0 2.4535e-05
17710.0 2.4466e-05
17730.0 2.4396e-05
17750.0 2.4324e-05
17770.0 2.4252e-05
17790.0 2.4184e-05
17810.0 2.4111e-05
17830.0 2.4038e-05
17850.0 2.3967e-05
17870.0 2.3896e-05
17890.0 2.3822e-05
17910.0 2.3749e-05
17930.0 2.3679e-05
17950.0 2.3606e-05
17970.0 2.3532e-05
17990.0 2.3461e-05
18010.0 2.3389e-05
18030.0 2.3313e-05
18050.0 2.324e-05
18070.0 2.3169e-05
18090.0 2.3094e-05
18110.0 2.3019e-05
18130.0 2.2947e-05
18150.0 2.2875e-05
18170.0 2.2799e-05
18190.0 2.2726e-05
18210.0 2.2653e-05
18230.0 2.2578e-05
18250.0 2.2501e-05
18270.0 2.2429e-05
18290.0 2.2355e-05
18310.0 2.2279e-05
18330.0 2.2204e-05
18350.0 2.2132e-05
18370.0 2.2056e-05
18390.0 2.198e-05
18410.0 2.1906e-05
18430.0 2.1831e-05
18450.0 2.1753e-05
18470.0 2.1679e-05
18490.0 2.1605e-05
18510.0 2.1529e-05
18530.0 2.1453e-05
18550.0 2.1379e-05
18570.0 2.1304e-05
18590.0 2.1226e-05
18610.0 2.1151e-05
18630.0 2.1076e-05
18650.0 2.0999e-05
18670.0 2.0922e-05
18690.0 2.0848e-05
18710.0 2.0772e-05
18730.0 2.0695e-05
18750.0 2.062e-05
18770.0 2.0545e-05
18790.0 2.0466e-05
18810.0 2.0389e-05
18830.0 2.0315e-05
18850.0 2.0239e-05
18870.0 2.0161e-05
18890.0 2.0086e-05
18910.0 2.0011e-05
18930.0 1.9933e-05
18950.0 1.9856e-05
18970.0 1.9781e-05
18990.0 1.9705e-05
19010.0 1.9625e-05
19030.0 1.955e-05
19050.0 1.9475e-05
19070.0 1.9397e-05
19090.0 1.932e-05
19110.0 1.9246e-05
19130.0 1.9169e-05
19150.0 1.9091e-05
19170.0 1.9015e-05
19190.0 1.8939e-05
19210.0 1.8861e-05
19230.0 1.8784e-05
19250.0 1.871e-05
19270.0 1.8633e-05
19290.0 1.8555e-05
19310.0 1.848e-05
19330.0 1.8405e-05
19350.0 1.8325e-05
19370.0 1.8249e-05
19390.0 1.8174e-05
19410.0 1.8097e-05
19430.0 1.8019e-05
19450.0 1.7945e-05
19470.0 1.7869e-05
19490.0 1.7791e-05
19510.0 1.7715e-05
19530.0 1.7641e-05
19550.0 1.7563e-05
19570.0 1.7485e-05
19590.0 1.741e-05
19610.0 1.7335e-05
19630.0 1.7257e-05
19650.0 1.7182e-05
19670.0 1.7107e-05
19690.0 1.703e-05
19710.0 1.6953e-05
19730.0 1.6878e-05
19750.0 1.6803e-05
19770.0 1.6724e-05
19790.0 1.6649e-05
19810.0 1.6575e-05
19830.0 1.6498e-05
19850.0 1.642e-05
19870.0 1.6344e-05
19890.0 1.6263e-05
19910.0 1.6173e-05
19930.0 1.6077e-05
19950.0 1.5967e-05
19970.0 1.5832e-05
19990.0 1.5669e-05
20010.0 1.3941e-05
20030.0 1.3739e-05
20050.0 1.3503e-05
20070.0 1.3247e-05
20090.0 1.2972e-05
20110.0 1.2661e-05
20130.0 1.2345e-05
20150.0 1.2033e-05
20170.0 1.1709e-05
20190.0 1.1381e-05
20210.0 1.1071e-05
20230.0 1.0768e-05
20250.0 1.0465e-05
20270.0 1.0183e-05
20290.0 9.9263e-06
20310.0 9.6821e-06
20330.0 9.4539e-06
20350.0 9.2645e-06
20370.0 9.0963e-06
20390.0 8.9489e-06
20410.0 8.8298e-06
20430.0 8.738e-06
20450.0 8.6653e-06
20470.0 8.6165e-06
20490.0 8.5904e-06
20510.0 8.5828e-06
20530.0 8.5934e-06
20550.0 8.6199e-06
20570.0 8.6585e-06
20590.0 8.7108e-06
20610.0 8.7741e-06
20630.0 8.8438e-06
20650.0 8.9218e-06
20670.0 9.0109e-06
20690.0 9.1018e-06
20710.0 9.1957e-06
20730.0 9.2971e-06
20750.0 9.4029e-06
20770.0 9.5069e-06
20790.0 9.6162e-06
20810.0 9.7317e-06
20830.0 9.8468e-06
20850.0 9.9623e-06
20870.0 1.0086e-05
20890.0 1.0212e-05
20910.0 1.0334e-05
20930.0 1.046e-05
20950.0 1.0591e-05
20970.0 1.0718e-05
20990.0 1.0844e-05
21010.0 1.0976e-05
21030.0 1.1106e-05
21050.0 1.1229e-05
21070.0 1.1352e-05
21090.0 1.1476e-05
21110.0 1.1589e-05
21130.0 1.1695e-05
21150.0 1.1797e-05
21170.0 1.189e-05
21190.0 1.197e-05
21210.0 1.2042e-05
21230.0 1.2102e-05
21250.0 1.2145e-05
21270.0 1.2172e-05
21290.0 1.2182e-05
21310.0 1.2172e-05
21330.0 1.2143e-05
21350.0 1.2093e-05
21370.0 1.2019e-05
21390.0 1.1925e-05
21410.0 1.1809e-05
21430.0 1.1663e-05
21450.0 1.15e-05
21470.0 1.1321e-05
21490.0 1.1119e-05
21510.0 1.0898e-05
21530.0 1.0673e-05
21550.0 1.0438e-05
21570.0 1.0186e-05
21590.0 9.9391e-06
21610.0 9.7004e-06
21630.0 9.4613e-06
21650.0 9.2278e-06
21670.0 9.0253e-06
21690.0 8.8386e-06
21710.0 8.6705e-06
21730.0 8.5328e-06
21750.0 8.4265e-06
21770.0 8.3456e-06
21790.0 8.299e-06
21810.0 8.2861e-06
21830.0 8.3045e-06
21850.0 8.3564e-06
21870.0 8.4374e-06
21890.0 8.5419e-06
21910.0 8.6761e-06
21930.0 8.8334e-06
21950.0 9.0038e-06
21970.0 9.1926e-06
21990.0 9.4045e-06
22010.0 9.6163e-06
22030.0 9.8314e-06
22050.0 1.0057e-05
22070.0 1.0284e-05
22090.0 1.0499e-05
22110.0 1.0716e-05
22130.0 1.0933e-05
22150.0 1.1135e-05
22170.0 1.1326e-05
22190.0 1.1514e-05
22210.0 1.169e-05
22230.0 1.1845e-05
22250.0 1.1991e-05
22270.0 1.2125e-05
22290.0 1.2239e-05
22310.0 1.2338e-05
22330.0 1.2424e-05
22350.0 1.2491e-05
22370.0 1.2538e-05
22390.0 1.2568e-05
22410.0 1.2577e-05
22430.0 1.2565e-05
22450.0 1.2533e-05
22470.0 1.2477e-05
22490.0 1.2398e-05
22510.0 1.2301e-05
22530.0 1.2175e-05
22550.0 1.2023e-05
22570.0 1.1854e-05
22590.0 1.1663e-05
