#lamb flux
1010.0 5.7304e-07
1030.0 6.3507e-07
1050.0 7.0642e-07
1070.0 7.8675e-07
1090.0 8.78e-07
1110.0 9.7159e-07
1130.0 1.0658e-06
1150.0 1.1645e-06
1170.0 1.2663e-06
1190.0 1.3629e-06
1210.0 1.4608e-06
1230.0 1.562e-06
1250.0 1.6611e-06
1270.0 1.7574e-06
1290.0 1.8592e-06
1310.0 1.9609e-06
1330.0 2.0585e-06
1350.0 2.1572e-06
1370.0 2.2591e-06
1390.0 2.3585e-06
1410.0 2.455e-06
1430.0 2.5558e-06
1450.0 2.6567e-06
1470.0 2.7542e-06
1490.0 2.8528e-06
1510.0 2.9569e-06
1530.0 3.0556e-06
1550.0 3.1529e-06
1570.0 3.2536e-06
1590.0 3.3544e-06
1610.0 3.4506e-06
1630.0 3.5498e-06
1650.0 3.6515e-06
1670.0 3.7499e-06
1690.0 3.8468e-06
1710.0 3.9474e-06
1730.0 4.0484e-06
1750.0 4.1432e-06
1770.0 4.2405e-06
1790.0 4.3396e-06
1810.0 4.4351e-06
1830.0 4.5287e-06
1850.0 4.6277e-06
1870.0 4.7235e-06
1890.0 4.8156e-06
1910.0 4.9089e-06
1930.0 5.004e-06
1950.0 5.0937e-06
1970.0 5.1815e-06
1990.0 5.2719e-06
2010.0 5.3596e-06
2030.0 5.4427e-06
2050.0 5.5274e-06
2070.0 5.6131e-06
2090.0 5.6917e-06
2110.0 5.7684e-06
2130.0 5.8461e-06
2150.0 5.92e-06
2170.0 5.9878e-06
2190.0 6.0568e-06
2210.0 6.1241e-06
2230.0 6.1851e-06
2250.0 6.2431e-06
2270.0 6.3023e-06
2290.0 6.3557e-06
2310.0 6.4024e-06
2330.0 6.4487e-06
2350.0 6.4927e-06
2370.0 6.53e-06
2390.0 6.5656e-06
2410.0 6.6036e-06
2430.0 6.6387e-06
2450.0 6.6736e-06
2470.0 6.7167e-06
2490.0 6.7735e-06
2510.0 6.8445e-06
2530.0 6.9579e-06
2550.0 7.1561e-06
2570.0 7.4771e-06
2590.0 7.9663e-06
2610.0 8.7524e-06
2630.0 9.8503e-06
2650.0 1.1183e-05
2670.0 1.2753e-05
2690.0 1.4481e-05
2710.0 1.6108e-05
2730.0 1.7519e-05
2750.0 1.8741e-05
2770.0 1.9653e-05
2790.0 2.0261e-05
2810.0 2.0672e-05
2830.0 2.0962e-05
2850.0 2.1128e-05
2870.0 2.1245e-05
2890.0 2.1357e-05
2910.0 2.1459e-05
2930.0 2.1541e-05
2950.0 2.1638e-05
2970.0 2.1745e-05
2990.0 2.1839e-05
3010.0 0.00028601
3030.0 0.00028656
3050.0 0.00028706
3070.0 0.00028714
3090.0 0.00028702
3110.0 0.0002863
3130.0 0.00028447
3150.0 0.00028131
3170.0 0.0002764
3190.0 0.00026981
3210.0 0.00026217
3230.0 0.00025433
3250.0 0.00025153
3270.0 0.00024673
3290.0 0.00025149
3310.0 0.00024967
3330.0 0.00025597
3350.0 0.00026538
3370.0 0.00027758
3390.0 0.00029213
3410.0 0.00030746
3430.0 0.00032426
3450.0 0.00034298
3470.0 0.00036268
3490.0 0.00038267
3510.0 0.00040582
3530.0 0.00043127
3550.0 0.00045271
3570.0 0.00047259
3590.0 0.00050102
3610.0 0.00051999
3630.0 0.00055144
3650.0 0.00057949
3670.0 0.00060781
3690.0 0.00062378
3710.0 0.00062776
3730.0 0.00063665
3750.0 0.00063677
3770.0 0.00059011
3790.0 0.0005415
3810.0 0.00050572
3830.0 0.00045778
3850.0 0.00039813
3870.0 0.00039502
3890.0 0.00051153
3910.0 0.00068475
3930.0 0.00081944
3950.0 0.00086812
3970.0 0.00085021
3990.0 0.00086662
4010.0 0.00097971
4030.0 0.0010503
4050.0 0.0010174
4070.0 0.00090059
4090.0 0.00079533
4110.0 0.00089246
4130.0 0.0009663
4150.0 0.00094875
4170.0 0.00094866
4190.0 0.00094438
4210.0 0.00097986
4230.0 0.0010427
4250.0 0.0011257
4270.0 0.0011466
4290.0 0.0011361
4310.0 0.0011962
4330.0 0.0013138
4350.0 0.0014911
4370.0 0.001664
4390.0 0.0016036
4410.0 0.0013548
4430.0 0.0011278
4450.0 0.00094474
4470.0 0.00092589
4490.0 0.001013
4510.0 0.0011698
4530.0 0.0012728
4550.0 0.0014301
4570.0 0.0017061
4590.0 0.0020983
4610.0 0.0026872
4630.0 0.0032338
4650.0 0.0033258
4670.0 0.0033164
4690.0 0.003509
4710.0 0.0035751
4730.0 0.0030128
4750.0 0.0022277
4770.0 0.0018229
4790.0 0.001716
4810.0 0.0016269
4830.0 0.0015979
4850.0 0.0018384
4870.0 0.0022683
4890.0 0.0025219
4910.0 0.0022096
4930.0 0.002066
4950.0 0.0023758
4970.0 0.0030854
4990.0 0.003825
5010.0 0.0039326
5030.0 0.0032425
5050.0 0.0022159
5070.0 0.001577
5090.0 0.0013768
5110.0 0.00141
5130.0 0.0015176
5150.0 0.0015665
5170.0 0.0015549
5190.0 0.0015352
5210.0 0.0015079
5230.0 0.0015622
5250.0 0.0016751
5270.0 0.00192
5290.0 0.0022141
5310.0 0.0024276
5330.0 0.0025079
5350.0 0.002572
5370.0 0.002795
5390.0 0.0029388
5410.0 0.0027813
5430.0 0.0024603
5450.0 0.0023704
5470.0 0.0027356
5490.0 0.0034712
5510.0 0.0042844
5530.0 0.0046475
5550.0 0.0045385
5570.0 0.0041993
5590.0 0.0038179
5610.0 0.0035763
5630.0 0.0034968
5650.0 0.0035658
5670.0 0.0034821
5690.0 0.0032704
5710.0 0.0031031
5730.0 0.0027615
5750.0 0.0021378
5770.0 0.0018846
5790.0 0.0020795
5810.0 0.0024389
5830.0 0.0027313
5850.0 0.0028932
5870.0 0.0029131
5890.0 0.0027796
5910.0 0.0026562
5930.0 0.0026652
5950.0 0.0027956
5970.0 0.0028919
5990.0 0.0026735
6010.0 0.0022448
6030.0 0.0018637
6050.0 0.0016583
6070.0 0.0016828
6090.0 0.0018711
6110.0 0.0019787
6130.0 0.0018831
6150.0 0.0018109
6170.0 0.0020087
6190.0 0.0023958
6210.0 0.0028558
6230.0 0.0031904
6250.0 0.0031435
6270.0 0.0027999
6290.0 0.0023274
6310.0 0.0018649
6330.0 0.0015235
6350.0 0.0014268
6370.0 0.0015684
6390.0 0.0018119
6410.0 0.0020858
6430.0 0.0024315
6450.0 0.0028547
6470.0 0.0034932
6490.0 0.0042152
6510.0 0.0045556
6530.0 0.004292
6550.0 0.0040261
6570.0 0.0039809
6590.0 0.0038448
6610.0 0.0035474
6630.0 0.0032479
6650.0 0.0030439
6670.0 0.0030874
6690.0 0.0030336
6710.0 0.002732
6730.0 0.002473
6750.0 0.0022167
6770.0 0.0022133
6790.0 0.0023628
6810.0 0.0024942
6830.0 0.002541
6850.0 0.0024622
6870.0 0.0023705
6890.0 0.0023126
6910.0 0.0021884
6930.0 0.0021
6950.0 0.0021054
6970.0 0.0021657
6990.0 0.0023779
7010.0 0.0025064
7030.0 0.0023346
7050.0 0.0021546
7070.0 0.0019915
7090.0 0.0017496
7110.0 0.001621
7130.0 0.0016648
7150.0 0.0017275
7170.0 0.0018066
7190.0 0.0017959
7210.0 0.0018024
7230.0 0.0019475
7250.0 0.0022394
7270.0 0.0025543
7290.0 0.0027031
7310.0 0.002591
7330.0 0.0023188
7350.0 0.0021024
7370.0 0.0020558
7390.0 0.0020916
7410.0 0.002204
7430.0 0.0024444
7450.0 0.0026636
7470.0 0.0029286
7490.0 0.0031386
7510.0 0.0028019
7530.0 0.0026737
7550.0 0.0023214
7570.0 0.0019812
7590.0 0.0016421
7610.0 0.0015256
7630.0 0.0016154
7650.0 0.0018618
7670.0 0.0020725
7690.0 0.002314
7710.0 0.0025755
7730.0 0.0027163
7750.0 0.0027783
7770.0 0.0027977
7790.0 0.0027958
7810.0 0.0028662
7830.0 0.0027791
7850.0 0.0025758
7870.0 0.002388
7890.0 0.0022201
7910.0 0.0019963
7930.0 0.0017506
7950.0 0.001595
7970.0 0.0015657
7990.0 0.0016255
8010.0 0.0017349
8030.0 0.0017613
8050.0 0.0017682
8070.0 0.0017269
8090.0 0.0017146
8110.0 0.0016455
8130.0 0.0015549
8150.0 0.0014659
8170.0 0.0014502
8190.0 0.0014829
8210.0 0.00148
8230.0 0.0014883
8250.0 0.0014695
8270.0 0.0013066
8290.0 0.0010115
8310.0 0.00071858
8330.0 0.00048559
8350.0 0.00034783
8370.0 0.00038748
8390.0 0.00043678
8410.0 0.00055032
8430.0 0.00067022
8450.0 0.00073382
8470.0 0.00075969
8490.0 0.00079903
8510.0 0.00084411
8530.0 0.00095053
8550.0 0.0010675
8570.0 0.0012413
8590.0 0.0014833
8610.0 0.0017233
8630.0 0.0020092
8650.0 0.0022356
8670.0 0.0022119
8690.0 0.0020944
8710.0 0.0019898
8730.0 0.0018909
8750.0 0.0018146
8770.0 0.0017687
8790.0 0.0017043
8810.0 0.0015804
8830.0 0.0014564
8850.0 0.0012681
8870.0 0.0011119
8890.0 0.0010056
8910.0 0.0010333
8930.0 0.0010083
8950.0 0.0010574
8970.0 0.0010781
8990.0 0.001112
9010.0 0.0011547
9030.0 0.0011512
9050.0 0.0011517
9070.0 0.001153
9090.0 0.0011541
9110.0 0.0011544
9130.0 0.0011554
9150.0 0.0011571
9170.0 0.0011584
9190.0 0.0011589
9210.0 0.0011646
9230.0 0.0011658
9250.0 0.0011678
9270.0 0.0011699
9290.0 0.0011723
9310.0 0.001175
9330.0 0.0011779
9350.0 0.0011809
9370.0 0.0011842
9390.0 0.0011876
9410.0 0.0011911
9430.0 0.0011948
9450.0 0.0011987
9470.0 0.0012027
9490.0 0.0012069
9510.0 0.0012112
9530.0 0.0012157
9550.0 0.0012202
9570.0 0.0012249
9590.0 0.0012298
9610.0 0.0012348
9630.0 0.0012399
9650.0 0.0012451
9670.0 0.0012505
9690.0 0.0012559
9710.0 0.0012615
9730.0 0.0012672
9750.0 0.001273
9770.0 0.0012787
9790.0 0.0012847
9810.0 0.0012908
9830.0 0.0012969
9850.0 0.001303
9870.0 0.0013093
9890.0 0.0013156
9910.0 0.0013219
9930.0 0.0013284
9950.0 0.0013346
9970.0 0.0013411
9990.0 0.0013476
10010.0 0.0013427
10030.0 0.0013492
10050.0 0.0013554
10070.0 0.0013608
10090.0 0.0013677
10110.0 0.0013744
10130.0 0.0013811
10150.0 0.0013877
10170.0 0.0013942
10190.0 0.0014004
10210.0 0.0014068
10230.0 0.0014131
10250.0 0.0014193
10270.0 0.0014253
10290.0 0.0014315
10310.0 0.0014374
10330.0 0.0014431
10350.0 0.0014489
10370.0 0.0014546
10390.0 0.0014601
10410.0 0.0014654
10430.0 0.0014708
10450.0 0.001476
10470.0 0.0014809
10490.0 0.0014858
10510.0 0.0014906
10530.0 0.001495
10550.0 0.0014994
10570.0 0.0015037
10590.0 0.0015077
10610.0 0.0015115
10630.0 0.0015153
10650.0 0.0015189
10670.0 0.001522
10690.0 0.0015251
10710.0 0.0015281
10730.0 0.0015307
10750.0 0.001533
10770.0 0.0015354
10790.0 0.0015374
10810.0 0.0015391
10830.0 0.0015406
10850.0 0.0015419
10870.0 0.0015424
10890.0 0.001542
10910.0 0.0015405
10930.0 0.001537
10950.0 0.00153
10970.0 0.001519
10990.0 0.0015039
11010.0 0.0014758
11030.0 0.0014475
11050.0 0.0014149
11070.0 0.0013771
11090.0 0.0013328
11110.0 0.001288
11130.0 0.0012424
11150.0 0.0011946
11170.0 0.0011469
11190.0 0.0011026
11210.0 0.0010588
11230.0 0.0010163
11250.0 0.00097809
11270.0 0.00094355
11290.0 0.00091109
11310.0 0.00088228
11330.0 0.00085835
11350.0 0.00083675
11370.0 0.00081739
11390.0 0.00080072
11410.0 0.00078573
11430.0 0.00077082
11450.0 0.00075647
11470.0 0.00074228
11490.0 0.00072708
11510.0 0.00071032
11530.0 0.00069302
11550.0 0.00067464
11570.0 0.00065434
11590.0 0.0006332
11610.0 0.00061202
11630.0 0.00058968
11650.0 0.00056678
11670.0 0.00054525
11690.0 0.00052442
11710.0 0.00050396
11730.0 0.00048503
11750.0 0.00046818
11770.0 0.00045222
11790.0 0.00043766
11810.0 0.000425
11830.0 0.00041365
11850.0 0.00040297
11870.0 0.00039354
11890.0 0.00038504
11910.0 0.00037675
11930.0 0.00036859
11950.0 0.00036073
11970.0 0.00035266
11990.0 0.00034405
12010.0 0.00033531
12030.0 0.00032646
12050.0 0.00031715
12070.0 0.00030753
12090.0 0.0002985
12110.0 0.0002896
12130.0 0.00028097
12150.0 0.00027323
12170.0 0.00026658
12190.0 0.00026077
12210.0 0.00025641
12230.0 0.00025364
12250.0 0.00025237
12270.0 0.0002528
12290.0 0.00025483
12310.0 0.00025822
12330.0 0.00026324
12350.0 0.00026956
12370.0 0.00027666
12390.0 0.00028466
12410.0 0.00029377
12430.0 0.0003026
12450.0 0.00031132
12470.0 0.00032011
12490.0 0.00032838
12510.0 0.00033553
12530.0 0.00034205
12550.0 0.00034768
12570.0 0.00035191
12590.0 0.0003549
12610.0 0.00035678
12630.0 0.00035733
12650.0 0.00035659
12670.0 0.00035477
12690.0 0.00035187
12710.0 0.00034808
12730.0 0.00034355
12750.0 0.00033813
12770.0 0.0003322
12790.0 0.00032595
12810.0 0.00031924
12830.0 0.00031208
12850.0 0.00030495
12870.0 0.00029767
12890.0 0.00028999
12910.0 0.00028224
12930.0 0.00027455
12950.0 0.00026646
12970.0 0.00025806
12990.0 0.00024988
13010.0 0.0002416
13030.0 0.00023302
13050.0 0.00022459
13070.0 0.00021653
13090.0 0.00020836
13110.0 0.00020043
13130.0 0.00019314
13150.0 0.00018633
13170.0 0.00017985
13190.0 0.00017429
13210.0 0.00016963
13230.0 0.00016568
13250.0 0.00016261
13270.0 0.00016052
13290.0 0.00015926
13310.0 0.00015888
13330.0 0.00015933
13350.0 0.00016048
13370.0 0.00016234
13390.0 0.00016482
13410.0 0.00016754
13430.0 0.00017062
13450.0 0.000174
13470.0 0.00017735
13490.0 0.00018058
13510.0 0.00018391
13530.0 0.00018699
13550.0 0.00018966
13570.0 0.00019209
13590.0 0.00019426
13610.0 0.00019599
13630.0 0.00019734
13650.0 0.00019842
13670.0 0.00019917
13690.0 0.00019956
13710.0 0.0001997
13730.0 0.00019957
13750.0 0.00019917
13770.0 0.00019855
13790.0 0.00019769
13810.0 0.00019662
13830.0 0.00019538
13850.0 0.00019393
13870.0 0.00019224
13890.0 0.00019042
13910.0 0.00018843
13930.0 0.00018622
13950.0 0.00018386
13970.0 0.0001815
13990.0 0.00017899
14010.0 0.00017641
14030.0 0.0001739
14050.0 0.00017145
14070.0 0.00016896
14090.0 0.00016667
14110.0 0.00016461
14130.0 0.0001627
14150.0 0.00016101
14170.0 0.00015965
14190.0 0.00015857
14210.0 0.00015776
14230.0 0.00015727
14250.0 0.0001571
14270.0 0.00015725
14290.0 0.00015775
14310.0 0.0001585
14330.0 0.00015953
14350.0 0.00016085
14370.0 0.00016237
14390.0 0.00016401
14410.0 0.00016587
14430.0 0.00016785
14450.0 0.00016984
14470.0 0.0001719
14490.0 0.00017411
14510.0 0.0001763
14530.0 0.00017849
14550.0 0.00018086
14570.0 0.00018341
14590.0 0.00018604
14610.0 0.00018897
14630.0 0.00019236
14650.0 0.00019602
14670.0 0.00020002
14690.0 0.00020462
14710.0 0.00020976
14730.0 0.00021502
14750.0 0.00022078
14770.0 0.00022704
14790.0 0.00023338
14810.0 0.0002397
14830.0 0.00024646
14850.0 0.00025301
14870.0 0.00025908
14890.0 0.00026488
14910.0 0.00027032
14930.0 0.00027495
14950.0 0.0002788
14970.0 0.00028203
14990.0 0.00028441
15010.0 0.00028597
15030.0 0.0002869
15050.0 0.00028727
15070.0 0.00028719
15090.0 0.00028683
15110.0 0.00028628
15130.0 0.00028563
15150.0 0.00028495
15170.0 0.00028422
15190.0 0.00028346
15210.0 0.00028273
15230.0 0.00028201
15250.0 0.00028126
15270.0 0.00028053
15290.0 0.00027983
15310.0 0.00027912
15330.0 0.00027839
15350.0 0.0002777
15370.0 0.00027701
15390.0 0.00027628
15410.0 0.00027558
15430.0 0.0002749
15450.0 0.0002742
15470.0 0.00027349
15490.0 0.00027282
15510.0 0.00027214
15530.0 0.00027144
15550.0 0.00027076
15570.0 0.0002701
15590.0 0.00026941
15610.0 0.0002687
15630.0 0.00026804
15650.0 0.00026737
15670.0 0.00026667
15690.0 0.000266
15710.0 0.00026535
15730.0 0.00026466
15750.0 0.00026397
15770.0 0.0002633
15790.0 0.00026263
15810.0 0.00026192
15830.0 0.00026124
15850.0 0.00026059
15870.0 0.0002599
15890.0 0.0002592
15910.0 0.00025854
15930.0 0.00025786
15950.0 0.00025715
15970.0 0.00025646
15990.0 0.00025579
16010.0 0.00025508
16030.0 0.00025436
16050.0 0.00025369
16070.0 0.000253
16090.0 0.00025228
16110.0 0.00025158
16130.0 0.0002509
16150.0 0.00025016
16170.0 0.00024944
16190.0 0.00024874
16210.0 0.00024802
16230.0 0.00024728
16250.0 0.00024657
16270.0 0.00024586
16290.0 0.00024511
16310.0 0.00024437
16330.0 0.00024365
16350.0 0.00024291
16370.0 0.00024213
16390.0 0.0002414
16410.0 0.00024066
16430.0 0.00023989
16450.0 0.00023913
16470.0 0.00023839
16490.0 0.00023762
16510.0 0.00023682
16530.0 0.00023606
16550.0 0.00023529
16570.0 0.00023449
16590.0 0.00023369
16610.0 0.00023293
16630.0 0.00023213
16650.0 0.00023132
16670.0 0.00023053
16690.0 0.00022974
16710.0 0.00022889
16730.0 0.00022808
16750.0 0.00022728
16770.0 0.00022645
16790.0 0.0002256
16810.0 0.00022479
16830.0 0.00022396
16850.0 0.00022311
16870.0 0.00022226
16890.0 0.00022144
16910.0 0.00022057
16930.0 0.00021969
16950.0 0.00021885
16970.0 0.000218
16990.0 0.00021711
17010.0 0.00021624
17030.0 0.00021539
17050.0 0.0002145
17070.0 0.00021361
17090.0 0.00021274
17110.0 0.00021185
17130.0 0.00021093
17150.0 0.00021003
17170.0 0.00020916
17190.0 0.00020824
17210.0 0.00020732
17230.0 0.00020644
17250.0 0.00020553
17270.0 0.00020458
17290.0 0.00020367
17310.0 0.00020276
17330.0 0.00020182
17350.0 0.00020087
17370.0 0.00019996
17390.0 0.00019903
17410.0 0.00019807
17430.0 0.00019714
17450.0 0.00019622
17470.0 0.00019524
17490.0 0.00019428
17510.0 0.00019335
17530.0 0.00019239
17550.0 0.00019141
17570.0 0.00019047
17590.0 0.00018952
17610.0 0.00018854
17630.0 0.00018757
17650.0 0.00018662
17670.0 0.00018565
17690.0 0.00018464
17710.0 0.00018368
17730.0 0.00018272
17750.0 0.00018173
17770.0 0.00018074
17790.0 0.00017979
17810.0 0.0001788
17830.0 0.00017779
17850.0 0.00017682
17870.0 0.00017584
17890.0 0.00017483
17910.0 0.00017383
17930.0 0.00017287
17950.0 0.00017187
17970.0 0.00017087
17990.0 0.00016989
18010.0 0.00016891
18030.0 0.00016788
18050.0 0.00016689
18070.0 0.00016591
18090.0 0.00016491
18110.0 0.00016389
18130.0 0.00016291
18150.0 0.00016193
18170.0 0.00016091
18190.0 0.00015992
18210.0 0.00015894
18230.0 0.00015792
18250.0 0.0001569
18270.0 0.00015593
18290.0 0.00015493
18310.0 0.00015392
18330.0 0.00015293
18350.0 0.00015195
18370.0 0.00015094
18390.0 0.00014994
18410.0 0.00014896
18430.0 0.00014797
18450.0 0.00014694
18470.0 0.00014595
18490.0 0.00014498
18510.0 0.00014398
18530.0 0.00014298
18550.0 0.00014202
18570.0 0.00014103
18590.0 0.00014001
18610.0 0.00013903
18630.0 0.00013806
18650.0 0.00013706
18670.0 0.00013607
18690.0 0.00013511
18710.0 0.00013413
18730.0 0.00013314
18750.0 0.00013217
18770.0 0.00013122
18790.0 0.00013021
18810.0 0.00012923
18830.0 0.00012828
18850.0 0.00012731
18870.0 0.00012632
18890.0 0.00012537
18910.0 0.00012442
18930.0 0.00012345
18950.0 0.00012248
18970.0 0.00012154
18990.0 0.00012058
19010.0 0.00011959
19030.0 0.00011866
19050.0 0.00011772
19070.0 0.00011676
19090.0 0.00011581
19110.0 0.0001149
19130.0 0.00011394
19150.0 0.00011299
19170.0 0.00011206
19190.0 0.00011114
19210.0 0.00011018
19230.0 0.00010925
19250.0 0.00010834
19270.0 0.00010741
19290.0 0.00010648
19310.0 0.00010557
19330.0 0.00010467
19350.0 0.00010372
19370.0 0.00010281
19390.0 0.00010191
19410.0 0.000101
19430.0 0.00010007
19450.0 9.919e-05
19470.0 9.8297e-05
19490.0 9.7382e-05
19510.0 9.6489e-05
19530.0 9.5614e-05
19550.0 9.4706e-05
19570.0 9.3798e-05
19590.0 9.2931e-05
19610.0 9.2053e-05
19630.0 9.1156e-05
19650.0 9.0285e-05
19670.0 8.9431e-05
19690.0 8.8541e-05
19710.0 8.7662e-05
19730.0 8.6809e-05
19750.0 8.5946e-05
19770.0 8.5056e-05
19790.0 8.4204e-05
19810.0 8.3363e-05
19830.0 8.2496e-05
19850.0 8.1631e-05
19870.0 8.079e-05
19890.0 7.991e-05
19910.0 7.8981e-05
19930.0 7.8038e-05
19950.0 7.7031e-05
19970.0 7.5892e-05
19990.0 7.4632e-05
20010.0 7.365e-05
20030.0 7.2146e-05
20050.0 7.0502e-05
20070.0 6.8827e-05
20090.0 6.7127e-05
20110.0 6.5322e-05
20130.0 6.3601e-05
20150.0 6.1992e-05
20170.0 6.0418e-05
20190.0 5.8914e-05
20210.0 5.7571e-05
20230.0 5.633e-05
20250.0 5.5157e-05
20270.0 5.4129e-05
20290.0 5.3241e-05
20310.0 5.2449e-05
20330.0 5.1765e-05
20350.0 5.1244e-05
20370.0 5.0832e-05
20390.0 5.0532e-05
20410.0 5.0356e-05
20430.0 5.0293e-05
20450.0 5.0342e-05
20470.0 5.0505e-05
20490.0 5.0762e-05
20510.0 5.1114e-05
20530.0 5.1576e-05
20550.0 5.2109e-05
20570.0 5.2689e-05
20590.0 5.3358e-05
20610.0 5.4082e-05
20630.0 5.4818e-05
20650.0 5.5591e-05
20670.0 5.6428e-05
20690.0 5.7234e-05
20710.0 5.8025e-05
20730.0 5.8837e-05
20750.0 5.964e-05
20770.0 6.039e-05
20790.0 6.1141e-05
20810.0 6.1903e-05
20830.0 6.2632e-05
20850.0 6.3343e-05
20870.0 6.4093e-05
20890.0 6.4852e-05
20910.0 6.5582e-05
20930.0 6.6347e-05
20950.0 6.7152e-05
20970.0 6.7947e-05
20990.0 6.8741e-05
21010.0 6.9588e-05
21030.0 7.0421e-05
21050.0 7.1213e-05
21070.0 7.1999e-05
21090.0 7.2776e-05
21110.0 7.3463e-05
21130.0 7.4086e-05
21150.0 7.4664e-05
21170.0 7.5155e-05
21190.0 7.5544e-05
21210.0 7.5861e-05
21230.0 7.6085e-05
21250.0 7.6199e-05
21270.0 7.6218e-05
21290.0 7.6137e-05
21310.0 7.5953e-05
21330.0 7.5682e-05
21350.0 7.531e-05
21370.0 7.4837e-05
21390.0 7.4289e-05
21410.0 7.3663e-05
21430.0 7.2918e-05
21450.0 7.212e-05
21470.0 7.1281e-05
21490.0 7.0365e-05
21510.0 6.9388e-05
21530.0 6.8417e-05
21550.0 6.7419e-05
21570.0 6.6375e-05
21590.0 6.5362e-05
21610.0 6.4394e-05
21630.0 6.3434e-05
21650.0 6.2504e-05
21670.0 6.1701e-05
21690.0 6.0963e-05
21710.0 6.03e-05
21730.0 5.9756e-05
21750.0 5.9334e-05
21770.0 5.9011e-05
21790.0 5.8821e-05
21810.0 5.8763e-05
21830.0 5.883e-05
21850.0 5.9033e-05
21870.0 5.9357e-05
21890.0 5.9783e-05
21910.0 6.034e-05
21930.0 6.1006e-05
21950.0 6.1743e-05
21970.0 6.2577e-05
21990.0 6.3537e-05
22010.0 6.452e-05
22030.0 6.5543e-05
22050.0 6.6646e-05
22070.0 6.7784e-05
22090.0 6.8888e-05
22110.0 7.0027e-05
22130.0 7.1188e-05
22150.0 7.2293e-05
22170.0 7.3348e-05
22190.0 7.4402e-05
22210.0 7.5384e-05
22230.0 7.624e-05
22250.0 7.703e-05
22270.0 7.773e-05
22290.0 7.8291e-05
22310.0 7.8726e-05
22330.0 7.9045e-05
22350.0 7.9209e-05
22370.0 7.9222e-05
22390.0 7.9083e-05
22410.0 7.8774e-05
22430.0 7.8323e-05
22450.0 7.7727e-05
22470.0 7.6957e-05
22490.0 7.6047e-05
22510.0 7.5036e-05
22530.0 7.3852e-05
22550.0 7.2517e-05
22570.0 7.1129e-05
22590.0 6.9645e-05
22610.0 6.8021e-05
22630.0 6.634e-05
22650.0 6.4672e-05
22670.0 6.2892e-05
22690.0 6.1057e-05
22710.0 5.9265e-05
22730.0 5.747e-05
22750.0 5.5578e-05
22770.0 5.3781e-05
22790.0 5.207e-05
22810.0 5.0358e-05
22830.0 4.8695e-05
22850.0 4.7181e-05
22870.0 4.574e-05
22890.0 4.4354e-05
22910.0 4.3129e-05
22930.0 4.2059e-05
22950.0 4.1099e-05
22970.0 4.0282e-05
22990.0 3.968e-05
