#lamb flux
1010.0 1.2243e-08
1030.0 1.354e-08
1050.0 1.5033e-08
1070.0 1.6714e-08
1090.0 1.8622e-08
1110.0 2.058e-08
1130.0 2.255e-08
1150.0 2.4614e-08
1170.0 2.6743e-08
1190.0 2.8762e-08
1210.0 3.0808e-08
1230.0 3.2922e-08
1250.0 3.4993e-08
1270.0 3.7005e-08
1290.0 3.9131e-08
1310.0 4.1255e-08
1330.0 4.3292e-08
1350.0 4.5352e-08
1370.0 4.7479e-08
1390.0 4.9553e-08
1410.0 5.1565e-08
1430.0 5.3668e-08
1450.0 5.5772e-08
1470.0 5.7805e-08
1490.0 5.986e-08
1510.0 6.2031e-08
1530.0 6.4088e-08
1550.0 6.6118e-08
1570.0 6.8218e-08
1590.0 7.0321e-08
1610.0 7.2331e-08
1630.0 7.4404e-08
1650.0 7.6532e-08
1670.0 7.8592e-08
1690.0 8.0626e-08
1710.0 8.2741e-08
1730.0 8.4869e-08
1750.0 8.6872e-08
1770.0 8.8936e-08
1790.0 9.1044e-08
1810.0 9.3087e-08
1830.0 9.5097e-08
1850.0 9.7234e-08
1870.0 9.9319e-08
1890.0 1.0134e-07
1910.0 1.034e-07
1930.0 1.0552e-07
1950.0 1.0754e-07
1970.0 1.0955e-07
1990.0 1.1163e-07
2010.0 1.1369e-07
2030.0 1.1568e-07
2050.0 1.1773e-07
2070.0 1.1984e-07
2090.0 1.2183e-07
2110.0 1.2382e-07
2130.0 1.2588e-07
2150.0 1.279e-07
2170.0 1.2984e-07
2190.0 1.3185e-07
2210.0 1.3388e-07
2230.0 1.3583e-07
2250.0 1.3778e-07
2270.0 1.3981e-07
2290.0 1.4179e-07
2310.0 1.4369e-07
2330.0 1.4566e-07
2350.0 1.4769e-07
2370.0 1.4971e-07
2390.0 1.519e-07
2410.0 1.5449e-07
2430.0 1.5747e-07
2450.0 1.6104e-07
2470.0 1.656e-07
2490.0 1.7136e-07
2510.0 1.779e-07
2530.0 1.8577e-07
2550.0 1.9563e-07
2570.0 2.0789e-07
2590.0 2.2384e-07
2610.0 2.4772e-07
2630.0 2.8182e-07
2650.0 3.264e-07
2670.0 3.8403e-07
2690.0 4.5486e-07
2710.0 5.3047e-07
2730.0 6.0518e-07
2750.0 6.7876e-07
2770.0 7.4277e-07
2790.0 7.936e-07
2810.0 8.3393e-07
2830.0 8.6545e-07
2850.0 8.8696e-07
2870.0 9.0275e-07
2890.0 9.1525e-07
2910.0 9.2522e-07
2930.0 9.3338e-07
2950.0 9.4116e-07
2970.0 9.4877e-07
2990.0 9.559e-07
3010.0 2.7019e-05
3030.0 2.7221e-05
3050.0 2.7416e-05
3070.0 2.7584e-05
3090.0 2.7727e-05
3110.0 2.7817e-05
3130.0 2.7813e-05
3150.0 2.7689e-05
3170.0 2.7393e-05
3190.0 2.6927e-05
3210.0 2.6337e-05
3230.0 2.566e-05
3250.0 2.4993e-05
3270.0 2.4506e-05
3290.0 2.4235e-05
3310.0 2.4279e-05
3330.0 2.463e-05
3350.0 2.5242e-05
3370.0 2.6116e-05
3390.0 2.7217e-05
3410.0 2.8415e-05
3430.0 2.976e-05
3450.0 3.1309e-05
3470.0 3.3e-05
3490.0 3.4792e-05
3510.0 3.6818e-05
3530.0 3.8988e-05
3550.0 4.1184e-05
3570.0 4.3475e-05
3590.0 4.5967e-05
3610.0 4.8535e-05
3630.0 5.1094e-05
3650.0 5.375e-05
3670.0 5.6174e-05
3690.0 5.7986e-05
3710.0 5.9025e-05
3730.0 5.906e-05
3750.0 5.8238e-05
3770.0 5.7915e-05
3790.0 5.757e-05
3810.0 5.6155e-05
3830.0 5.7894e-05
3850.0 6.4732e-05
3870.0 6.8486e-05
3890.0 6.8173e-05
3910.0 6.8464e-05
3930.0 7.0266e-05
3950.0 7.1376e-05
3970.0 6.503e-05
3990.0 5.5955e-05
4010.0 0.0001677
4030.0 0.0002032
4050.0 0.00023295
4070.0 0.00020213
4090.0 0.00018307
4110.0 0.00016154
4130.0 0.00014868
4150.0 0.00015815
4170.0 0.00015578
4190.0 0.00016605
4210.0 0.00016454
4230.0 0.00017404
4250.0 0.00020589
4270.0 0.00020831
4290.0 0.00019195
4310.0 0.00019945
4330.0 0.00021216
4350.0 0.00023788
4370.0 0.00027071
4390.0 0.00025404
4410.0 0.00018769
4430.0 0.00015889
4450.0 0.000146
4470.0 0.00011206
4490.0 0.00012093
4510.0 0.00018267
4530.0 0.00021067
4550.0 0.0002125
4570.0 0.00023911
4590.0 0.00027237
4610.0 0.00036736
4630.0 0.00047713
4650.0 0.00051744
4670.0 0.0004792
4690.0 0.00045724
4710.0 0.00048334
4730.0 0.00045613
4750.0 0.00034102
4770.0 0.00025015
4790.0 0.00023359
4810.0 0.00022265
4830.0 0.00020383
4850.0 0.00022367
4870.0 0.00029549
4890.0 0.00034847
4910.0 0.00030574
4930.0 0.00027053
4950.0 0.00029722
4970.0 0.00038117
4990.0 0.00051657
5010.0 0.00059425
5030.0 0.00052399
5050.0 0.00035451
5070.0 0.00023364
5090.0 0.00018839
5110.0 0.00019375
5130.0 0.00022361
5150.0 0.00024227
5170.0 0.00023863
5190.0 0.00022299
5210.0 0.00023307
5230.0 0.00024501
5250.0 0.00026405
5270.0 0.00028489
5290.0 0.00031571
5310.0 0.00036748
5330.0 0.00040666
5350.0 0.00040407
5370.0 0.00042443
5390.0 0.00048704
5410.0 0.0004866
5430.0 0.00043033
5450.0 0.00039537
5470.0 0.00041981
5490.0 0.00051289
5510.0 0.00064129
5530.0 0.00073552
5550.0 0.00071088
5570.0 0.00064624
5590.0 0.00056191
5610.0 0.00051821
5630.0 0.0005025
5650.0 0.00047858
5670.0 0.00045349
5690.0 0.00040542
5710.0 0.00039529
5730.0 0.00036412
5750.0 0.00025672
5770.0 0.00020028
5790.0 0.00022696
5810.0 0.00025628
5830.0 0.00031449
5850.0 0.00037437
5870.0 0.00041536
5890.0 0.0004224
5910.0 0.0004144
5930.0 0.00039446
5950.0 0.00040194
5970.0 0.00045817
5990.0 0.0004308
6010.0 0.00036114
6030.0 0.00030511
6050.0 0.00026571
6070.0 0.00026426
6090.0 0.00028654
6110.0 0.0003204
6130.0 0.00032531
6150.0 0.0002799
6170.0 0.00024622
6190.0 0.00027709
6210.0 0.00036631
6230.0 0.0004807
6250.0 0.00052067
6270.0 0.00045499
6290.0 0.00038281
6310.0 0.00029885
6330.0 0.00022898
6350.0 0.00020424
6370.0 0.00021478
6390.0 0.0002483
6410.0 0.00030616
6430.0 0.00035752
6450.0 0.00040909
6470.0 0.00046842
6490.0 0.00056582
6510.0 0.00063266
6530.0 0.00062068
6550.0 0.00056126
6570.0 0.00047646
6590.0 0.00042963
6610.0 0.00037045
6630.0 0.00033562
6650.0 0.00031726
6670.0 0.00030821
6690.0 0.00027848
6710.0 0.00025314
6730.0 0.00018233
6750.0 0.00018077
6770.0 0.00019648
6790.0 0.00022584
6810.0 0.00020665
6830.0 0.00021279
6850.0 0.00019903
6870.0 0.00018181
6890.0 0.00017457
6910.0 0.00018602
6930.0 0.00017424
6950.0 0.00017926
6970.0 0.00018855
6990.0 0.00021402
7010.0 0.00021584
7030.0 0.00021927
7050.0 0.00020911
7070.0 0.00019924
7090.0 0.00019983
7110.0 0.00020561
7130.0 0.00022127
7150.0 0.000235
7170.0 0.00025931
7190.0 0.00028505
7210.0 0.0002801
7230.0 0.00028795
7250.0 0.00030945
7270.0 0.00033722
7290.0 0.00040025
7310.0 0.00043431
7330.0 0.00041979
7350.0 0.00037968
7370.0 0.00033035
7390.0 0.00032048
7410.0 0.00034058
7430.0 0.00037851
7450.0 0.00041227
7470.0 0.00040848
7490.0 0.00037245
7510.0 0.0004219
7530.0 0.00041728
7550.0 0.00037506
7570.0 0.00029299
7590.0 0.00020142
7610.0 0.00017288
7630.0 0.00019643
7650.0 0.00023225
7670.0 0.00028905
7690.0 0.00031808
7710.0 0.00033148
7730.0 0.00034835
7750.0 0.00039106
7770.0 0.00039721
7790.0 0.00036486
7810.0 0.00033291
7830.0 0.00034331
7850.0 0.00033373
7870.0 0.00030598
7890.0 0.00025708
7910.0 0.00020897
7930.0 0.00019954
7950.0 0.00018178
7970.0 0.00016827
7990.0 0.00016731
8010.0 1.2527e-05
8030.0 1.2348e-05
8050.0 1.2197e-05
8070.0 1.2385e-05
8090.0 1.3348e-05
8110.0 1.3113e-05
8130.0 1.0748e-05
8150.0 1.0484e-05
8170.0 8.9752e-06
8190.0 8.467e-06
8210.0 1.1093e-05
8230.0 1.2368e-05
8250.0 1.1048e-05
8270.0 9.6034e-06
8290.0 9.4305e-06
8310.0 7.2754e-06
8330.0 4.8988e-06
8350.0 3.4811e-06
8370.0 2.1649e-06
8390.0 4.0065e-06
8410.0 4.6662e-06
8430.0 5.7514e-06
8450.0 6.7513e-06
8470.0 8.4322e-06
8490.0 8.3489e-06
8510.0 8.1867e-06
8530.0 8.4938e-06
8550.0 1.1569e-05
8570.0 1.3753e-05
8590.0 1.4741e-05
8610.0 1.8666e-05
8630.0 2.246e-05
8650.0 2.3353e-05
8670.0 2.4884e-05
8690.0 2.5146e-05
8710.0 2.2752e-05
8730.0 2.1204e-05
8750.0 1.8683e-05
8770.0 1.771e-05
8790.0 1.7426e-05
8810.0 1.6731e-05
8830.0 1.331e-05
8850.0 9.6923e-06
8870.0 7.4132e-06
8890.0 7.3195e-06
8910.0 8.4398e-06
8930.0 9.6371e-06
8950.0 9.8364e-06
8970.0 9.8702e-06
8990.0 8.7592e-06
9010.0 9.0176e-05
9030.0 8.1657e-05
9050.0 8.2058e-05
9070.0 8.2712e-05
9090.0 8.3286e-05
9110.0 8.3994e-05
9130.0 8.4541e-05
9150.0 8.4965e-05
9170.0 8.5417e-05
9190.0 8.59e-05
9210.0 8.6408e-05
9230.0 8.6945e-05
9250.0 8.749e-05
9270.0 8.8055e-05
9290.0 8.8638e-05
9310.0 8.9223e-05
9330.0 8.9821e-05
9350.0 9.0441e-05
9370.0 9.1068e-05
9390.0 9.1701e-05
9410.0 9.2352e-05
9430.0 9.3023e-05
9450.0 9.3692e-05
9470.0 9.4374e-05
9490.0 9.5076e-05
9510.0 9.5786e-05
9530.0 9.65e-05
9550.0 9.7239e-05
9570.0 9.799e-05
9590.0 9.8743e-05
9610.0 9.9509e-05
9630.0 0.0001003
9650.0 0.00010109
9670.0 0.00010188
9690.0 0.0001027
9710.0 0.00010353
9730.0 0.00010436
9750.0 0.0001052
9770.0 0.00010607
9790.0 0.00010694
9810.0 0.00010781
9830.0 0.0001087
9850.0 0.0001096
9870.0 0.0001105
9890.0 0.00011141
9910.0 0.00011234
9930.0 0.00011327
9950.0 0.0001142
9970.0 0.00011515
9990.0 0.00011611
10010.0 0.00010076
10030.0 0.00010159
10050.0 0.00010244
10070.0 0.00010331
10090.0 0.00010414
10110.0 0.00010499
10130.0 0.00010584
10150.0 0.00010668
10170.0 0.00010754
10190.0 0.00010841
10210.0 0.00010928
10230.0 0.00011014
10250.0 0.00011101
10270.0 0.00011188
10290.0 0.00011275
10310.0 0.00011362
10330.0 0.0001145
10350.0 0.00011537
10370.0 0.00011623
10390.0 0.0001171
10410.0 0.00011797
10430.0 0.00011883
10450.0 0.00011969
10470.0 0.00012055
10490.0 0.0001214
10510.0 0.00012224
10530.0 0.0001231
10550.0 0.00012394
10570.0 0.00012477
10590.0 0.0001256
10610.0 0.00012643
10630.0 0.00012724
10650.0 0.00012804
10670.0 0.00012885
10690.0 0.00012964
10710.0 0.00013042
10730.0 0.0001312
10750.0 0.00013198
10770.0 0.00013273
10790.0 0.00013347
10810.0 0.00013421
10830.0 0.00013493
10850.0 0.00013561
10870.0 0.00013627
10890.0 0.00013685
10910.0 0.0001373
10930.0 0.00013755
10950.0 0.0001375
10970.0 0.00013703
10990.0 0.00013612
11010.0 0.00013441
11030.0 0.00013227
11050.0 0.00012967
11070.0 0.00012655
11090.0 0.00012281
11110.0 0.00011893
11130.0 0.00011489
11150.0 0.00011055
11170.0 0.00010606
11190.0 0.00010171
11210.0 9.722e-05
11230.0 9.2615e-05
11250.0 8.8214e-05
11270.0 8.3988e-05
11290.0 7.9754e-05
11310.0 7.5743e-05
11330.0 7.221e-05
11350.0 6.8873e-05
11370.0 6.579e-05
11390.0 6.3122e-05
11410.0 6.0788e-05
11430.0 5.862e-05
11450.0 5.6751e-05
11470.0 5.5135e-05
11490.0 5.3632e-05
11510.0 5.2184e-05
11530.0 5.0839e-05
11550.0 4.9504e-05
11570.0 4.8079e-05
11590.0 4.6604e-05
11610.0 4.5102e-05
11630.0 4.3468e-05
11650.0 4.1718e-05
11670.0 3.9994e-05
11690.0 3.8245e-05
11710.0 3.6441e-05
11730.0 3.4692e-05
11750.0 3.3075e-05
11770.0 3.1488e-05
11790.0 3.0001e-05
11810.0 2.8692e-05
11830.0 2.7521e-05
11850.0 2.6443e-05
11870.0 2.5541e-05
11890.0 2.4791e-05
11910.0 2.4132e-05
11930.0 2.3566e-05
11950.0 2.3094e-05
11970.0 2.2673e-05
11990.0 2.2275e-05
12010.0 2.1906e-05
12030.0 2.1551e-05
12050.0 2.1184e-05
12070.0 2.0802e-05
12090.0 2.0434e-05
12110.0 2.0061e-05
12130.0 1.9686e-05
12150.0 1.9341e-05
12170.0 1.904e-05
12190.0 1.8779e-05
12210.0 1.8597e-05
12230.0 1.8509e-05
12250.0 1.8524e-05
12270.0 1.8663e-05
12290.0 1.8927e-05
12310.0 1.9306e-05
12330.0 1.9836e-05
12350.0 2.0497e-05
12370.0 2.125e-05
12390.0 2.2118e-05
12410.0 2.3136e-05
12430.0 2.4169e-05
12450.0 2.524e-05
12470.0 2.6379e-05
12490.0 2.7522e-05
12510.0 2.8595e-05
12530.0 2.9662e-05
12550.0 3.0691e-05
12570.0 3.16e-05
12590.0 3.2398e-05
12610.0 3.3109e-05
12630.0 3.3675e-05
12650.0 3.4067e-05
12670.0 3.4324e-05
12690.0 3.4427e-05
12710.0 3.437e-05
12730.0 3.4171e-05
12750.0 3.3815e-05
12770.0 3.3327e-05
12790.0 3.2736e-05
12810.0 3.203e-05
12830.0 3.1212e-05
12850.0 3.0358e-05
12870.0 2.9454e-05
12890.0 2.8476e-05
12910.0 2.7482e-05
12930.0 2.6503e-05
12950.0 2.548e-05
12970.0 2.444e-05
12990.0 2.3455e-05
13010.0 2.2483e-05
13030.0 2.15e-05
13050.0 2.0556e-05
13070.0 1.9671e-05
13090.0 1.8784e-05
13110.0 1.7925e-05
13130.0 1.7133e-05
13150.0 1.6383e-05
13170.0 1.5649e-05
13190.0 1.4996e-05
13210.0 1.4421e-05
13230.0 1.3895e-05
13250.0 1.3443e-05
13270.0 1.3086e-05
13290.0 1.2808e-05
13310.0 1.2617e-05
13330.0 1.253e-05
13350.0 1.254e-05
13370.0 1.2652e-05
13390.0 1.2873e-05
13410.0 1.3172e-05
13430.0 1.356e-05
13450.0 1.404e-05
13470.0 1.4572e-05
13490.0 1.5136e-05
13510.0 1.5771e-05
13530.0 1.6416e-05
13550.0 1.7033e-05
13570.0 1.7641e-05
13590.0 1.8234e-05
13610.0 1.8761e-05
13630.0 1.9222e-05
13650.0 1.9642e-05
13670.0 1.9991e-05
13690.0 2.0261e-05
13710.0 2.047e-05
13730.0 2.0619e-05
13750.0 2.0693e-05
13770.0 2.071e-05
13790.0 2.0673e-05
13810.0 2.0581e-05
13830.0 2.0446e-05
13850.0 2.0264e-05
13870.0 2.0033e-05
13890.0 1.977e-05
13910.0 1.9473e-05
13930.0 1.9129e-05
13950.0 1.8754e-05
13970.0 1.837e-05
13990.0 1.7952e-05
14010.0 1.7508e-05
14030.0 1.7065e-05
14050.0 1.6618e-05
14070.0 1.6146e-05
14090.0 1.5695e-05
14110.0 1.527e-05
14130.0 1.4858e-05
14150.0 1.4471e-05
14170.0 1.414e-05
14190.0 1.3854e-05
14210.0 1.3612e-05
14230.0 1.3432e-05
14250.0 1.3316e-05
14270.0 1.326e-05
14290.0 1.3272e-05
14310.0 1.3346e-05
14330.0 1.3478e-05
14350.0 1.3674e-05
14370.0 1.3917e-05
14390.0 1.4194e-05
14410.0 1.452e-05
14430.0 1.4878e-05
14450.0 1.5243e-05
14470.0 1.5622e-05
14490.0 1.6025e-05
14510.0 1.641e-05
14530.0 1.6777e-05
14550.0 1.7142e-05
14570.0 1.7494e-05
14590.0 1.7814e-05
14610.0 1.8123e-05
14630.0 1.8429e-05
14650.0 1.8714e-05
14670.0 1.8989e-05
14690.0 1.9276e-05
14710.0 1.9578e-05
14730.0 1.988e-05
14750.0 2.0214e-05
14770.0 2.0594e-05
14790.0 2.1005e-05
14810.0 2.145e-05
14830.0 2.1978e-05
14850.0 2.2552e-05
14870.0 2.315e-05
14890.0 2.3796e-05
14910.0 2.4482e-05
14930.0 2.5142e-05
14950.0 2.5758e-05
14970.0 2.6341e-05
14990.0 2.683e-05
15010.0 2.7204e-05
15030.0 2.7482e-05
15050.0 2.7665e-05
15070.0 2.7754e-05
15090.0 2.7786e-05
15110.0 2.7777e-05
15130.0 2.7742e-05
15150.0 2.7695e-05
15170.0 2.7639e-05
15190.0 2.758e-05
15210.0 2.7521e-05
15230.0 2.7463e-05
15250.0 2.7402e-05
15270.0 2.7342e-05
15290.0 2.7285e-05
15310.0 2.7227e-05
15330.0 2.7168e-05
15350.0 2.7111e-05
15370.0 2.7055e-05
15390.0 2.6996e-05
15410.0 2.6939e-05
15430.0 2.6884e-05
15450.0 2.6827e-05
15470.0 2.677e-05
15490.0 2.6715e-05
15510.0 2.6661e-05
15530.0 2.6604e-05
15550.0 2.6549e-05
15570.0 2.6496e-05
15590.0 2.6441e-05
15610.0 2.6385e-05
15630.0 2.6332e-05
15650.0 2.6278e-05
15670.0 2.6223e-05
15690.0 2.617e-05
15710.0 2.6118e-05
15730.0 2.6064e-05
15750.0 2.601e-05
15770.0 2.5958e-05
15790.0 2.5905e-05
15810.0 2.585e-05
15830.0 2.5798e-05
15850.0 2.5747e-05
15870.0 2.5694e-05
15890.0 2.5641e-05
15910.0 2.559e-05
15930.0 2.5538e-05
15950.0 2.5484e-05
15970.0 2.5433e-05
15990.0 2.5382e-05
16010.0 2.5329e-05
16030.0 2.5276e-05
16050.0 2.5226e-05
16070.0 2.5174e-05
16090.0 2.5121e-05
16110.0 2.507e-05
16130.0 2.502e-05
16150.0 2.4967e-05
16170.0 2.4914e-05
16190.0 2.4864e-05
16210.0 2.4812e-05
16230.0 2.4759e-05
16250.0 2.4708e-05
16270.0 2.4658e-05
16290.0 2.4606e-05
16310.0 2.4553e-05
16330.0 2.4503e-05
16350.0 2.4451e-05
16370.0 2.4397e-05
16390.0 2.4346e-05
16410.0 2.4295e-05
16430.0 2.4242e-05
16450.0 2.419e-05
16470.0 2.414e-05
16490.0 2.4087e-05
16510.0 2.4034e-05
16530.0 2.3982e-05
16550.0 2.3931e-05
16570.0 2.3877e-05
16590.0 2.3824e-05
16610.0 2.3773e-05
16630.0 2.372e-05
16650.0 2.3666e-05
16670.0 2.3615e-05
16690.0 2.3563e-05
16710.0 2.3508e-05
16730.0 2.3454e-05
16750.0 2.3402e-05
16770.0 2.3348e-05
16790.0 2.3293e-05
16810.0 2.3241e-05
16830.0 2.3188e-05
16850.0 2.3133e-05
16870.0 2.3079e-05
16890.0 2.3027e-05
16910.0 2.2972e-05
16930.0 2.2915e-05
16950.0 2.2862e-05
16970.0 2.2808e-05
16990.0 2.2752e-05
17010.0 2.2698e-05
17030.0 2.2644e-05
17050.0 2.2588e-05
17070.0 2.2532e-05
17090.0 2.2478e-05
17110.0 2.2423e-05
17130.0 2.2365e-05
17150.0 2.2309e-05
17170.0 2.2255e-05
17190.0 2.2198e-05
17210.0 2.2141e-05
17230.0 2.2086e-05
17250.0 2.203e-05
17270.0 2.1971e-05
17290.0 2.1915e-05
17310.0 2.1859e-05
17330.0 2.1801e-05
17350.0 2.1742e-05
17370.0 2.1686e-05
17390.0 2.1629e-05
17410.0 2.157e-05
17430.0 2.1513e-05
17450.0 2.1457e-05
17470.0 2.1396e-05
17490.0 2.1337e-05
17510.0 2.128e-05
17530.0 2.1222e-05
17550.0 2.1161e-05
17570.0 2.1103e-05
17590.0 2.1046e-05
17610.0 2.0986e-05
17630.0 2.0926e-05
17650.0 2.0868e-05
17670.0 2.0808e-05
17690.0 2.0746e-05
17710.0 2.0687e-05
17730.0 2.0628e-05
17750.0 2.0567e-05
17770.0 2.0507e-05
17790.0 2.0449e-05
17810.0 2.0387e-05
17830.0 2.0325e-05
17850.0 2.0266e-05
17870.0 2.0205e-05
17890.0 2.0143e-05
17910.0 2.0081e-05
17930.0 2.0022e-05
17950.0 1.996e-05
17970.0 1.9898e-05
17990.0 1.9838e-05
18010.0 1.9777e-05
18030.0 1.9713e-05
18050.0 1.9651e-05
18070.0 1.959e-05
18090.0 1.9528e-05
18110.0 1.9464e-05
18130.0 1.9403e-05
18150.0 1.9342e-05
18170.0 1.9278e-05
18190.0 1.9216e-05
18210.0 1.9155e-05
18230.0 1.9091e-05
18250.0 1.9026e-05
18270.0 1.8965e-05
18290.0 1.8902e-05
18310.0 1.8838e-05
18330.0 1.8775e-05
18350.0 1.8714e-05
18370.0 1.8649e-05
18390.0 1.8585e-05
18410.0 1.8523e-05
18430.0 1.846e-05
18450.0 1.8394e-05
18470.0 1.8331e-05
18490.0 1.8268e-05
18510.0 1.8204e-05
18530.0 1.814e-05
18550.0 1.8078e-05
18570.0 1.8013e-05
18590.0 1.7948e-05
18610.0 1.7884e-05
18630.0 1.7821e-05
18650.0 1.7756e-05
18670.0 1.769e-05
18690.0 1.7628e-05
18710.0 1.7564e-05
18730.0 1.7499e-05
18750.0 1.7435e-05
18770.0 1.7372e-05
18790.0 1.7306e-05
18810.0 1.724e-05
18830.0 1.7177e-05
18850.0 1.7113e-05
18870.0 1.7047e-05
18890.0 1.6984e-05
18910.0 1.692e-05
18930.0 1.6854e-05
18950.0 1.6789e-05
18970.0 1.6726e-05
18990.0 1.6661e-05
19010.0 1.6594e-05
19030.0 1.6531e-05
19050.0 1.6467e-05
19070.0 1.6401e-05
19090.0 1.6337e-05
19110.0 1.6274e-05
19130.0 1.6208e-05
19150.0 1.6142e-05
19170.0 1.6078e-05
19190.0 1.6014e-05
19210.0 1.5948e-05
19230.0 1.5883e-05
19250.0 1.582e-05
19270.0 1.5755e-05
19290.0 1.5689e-05
19310.0 1.5626e-05
19330.0 1.5562e-05
19350.0 1.5495e-05
19370.0 1.5431e-05
19390.0 1.5367e-05
19410.0 1.5302e-05
19430.0 1.5236e-05
19450.0 1.5173e-05
19470.0 1.5109e-05
19490.0 1.5043e-05
19510.0 1.4979e-05
19530.0 1.4916e-05
19550.0 1.485e-05
19570.0 1.4784e-05
19590.0 1.4721e-05
19610.0 1.4657e-05
19630.0 1.4592e-05
19650.0 1.4528e-05
19670.0 1.4465e-05
19690.0 1.44e-05
19710.0 1.4335e-05
19730.0 1.4272e-05
19750.0 1.4208e-05
19770.0 1.4141e-05
19790.0 1.4078e-05
19810.0 1.4015e-05
19830.0 1.395e-05
19850.0 1.3884e-05
19870.0 1.382e-05
19890.0 1.3751e-05
19910.0 1.3675e-05
19930.0 1.3594e-05
19950.0 1.3501e-05
19970.0 1.3387e-05
19990.0 1.3249e-05
20010.0 1.1788e-05
20030.0 1.1617e-05
20050.0 1.1418e-05
20070.0 1.1201e-05
20090.0 1.0969e-05
20110.0 1.0705e-05
20130.0 1.0439e-05
20150.0 1.0175e-05
20170.0 9.9008e-06
20190.0 9.6231e-06
20210.0 9.3607e-06
20230.0 9.1049e-06
20250.0 8.8485e-06
20270.0 8.6105e-06
20290.0 8.3932e-06
20310.0 8.1867e-06
20330.0 7.9938e-06
20350.0 7.8336e-06
20370.0 7.6915e-06
20390.0 7.5668e-06
20410.0 7.4661e-06
20430.0 7.3885e-06
20450.0 7.327e-06
20470.0 7.2858e-06
20490.0 7.2636e-06
20510.0 7.2573e-06
20530.0 7.2662e-06
20550.0 7.2886e-06
20570.0 7.3213e-06
20590.0 7.3655e-06
20610.0 7.419e-06
20630.0 7.4779e-06
20650.0 7.5439e-06
20670.0 7.6192e-06
20690.0 7.6961e-06
20710.0 7.7755e-06
20730.0 7.8612e-06
20750.0 7.9507e-06
20770.0 8.0386e-06
20790.0 8.131e-06
20810.0 8.2287e-06
20830.0 8.326e-06
20850.0 8.4237e-06
20870.0 8.5283e-06
20890.0 8.6349e-06
20910.0 8.7378e-06
20930.0 8.8445e-06
20950.0 8.9551e-06
20970.0 9.063e-06
20990.0 9.1694e-06
21010.0 9.2812e-06
21030.0 9.3906e-06
21050.0 9.495e-06
21070.0 9.5991e-06
21090.0 9.7037e-06
21110.0 9.799e-06
21130.0 9.8885e-06
21150.0 9.9753e-06
21170.0 1.0054e-05
21190.0 1.0121e-05
21210.0 1.0182e-05
21230.0 1.0233e-05
21250.0 1.0269e-05
21270.0 1.0292e-05
21290.0 1.03e-05
21310.0 1.0292e-05
21330.0 1.0268e-05
21350.0 1.0225e-05
21370.0 1.0163e-05
21390.0 1.0083e-05
21410.0 9.9855e-06
21430.0 9.8621e-06
21450.0 9.7236e-06
21470.0 9.5727e-06
21490.0 9.4021e-06
21510.0 9.2149e-06
21530.0 9.0247e-06
21550.0 8.8255e-06
21570.0 8.6131e-06
21590.0 8.4041e-06
21610.0 8.2022e-06
21630.0 8.0001e-06
21650.0 7.8026e-06
21670.0 7.6314e-06
21690.0 7.4736e-06
21710.0 7.3314e-06
21730.0 7.2149e-06
21750.0 7.1251e-06
21770.0 7.0567e-06
21790.0 7.0173e-06
21810.0 7.0064e-06
21830.0 7.0219e-06
21850.0 7.0658e-06
21870.0 7.1343e-06
21890.0 7.2227e-06
21910.0 7.3361e-06
21930.0 7.4691e-06
21950.0 7.6133e-06
21970.0 7.7729e-06
21990.0 7.9521e-06
22010.0 8.1311e-06
22030.0 8.313e-06
22050.0 8.504e-06
22070.0 8.6961e-06
22090.0 8.8779e-06
22110.0 9.0612e-06
22130.0 9.2443e-06
22150.0 9.4152e-06
22170.0 9.5764e-06
22190.0 9.7361e-06
22210.0 9.8847e-06
22230.0 1.0015e-05
22250.0 1.0139e-05
22270.0 1.0252e-05
22290.0 1.0349e-05
22310.0 1.0432e-05
22330.0 1.0505e-05
22350.0 1.0562e-05
22370.0 1.0602e-05
22390.0 1.0627e-05
22410.0 1.0635e-05
22430.0 1.0625e-05
22450.0 1.0597e-05
22470.0 1.055e-05
22490.0 1.0484e-05
22510.0 1.0401e-05
22530.0 1.0295e-05
22550.0 1.0166e-05
22570.0 1.0023e-05
22590.0 9.8619e-06
22610.0 9.6764e-06
22630.0 9.4757e-06
