#lamb flux
1010.0 3.3415e-10
1030.0 4.2092e-10
1050.0 5.2116e-10
1070.0 6.346e-10
1090.0 7.6419e-10
1110.0 8.9816e-10
1130.0 1.0342e-09
1150.0 1.1778e-09
1170.0 1.3271e-09
1190.0 1.4702e-09
1210.0 1.6161e-09
1230.0 1.7676e-09
1250.0 1.9166e-09
1270.0 2.0617e-09
1290.0 2.2143e-09
1310.0 2.3661e-09
1330.0 2.5105e-09
1350.0 2.6547e-09
1370.0 2.8015e-09
1390.0 2.9422e-09
1410.0 3.076e-09
1430.0 3.2134e-09
1450.0 3.3482e-09
1470.0 3.4756e-09
1490.0 3.6024e-09
1510.0 3.7351e-09
1530.0 3.8586e-09
1550.0 3.979e-09
1570.0 4.1035e-09
1590.0 4.2278e-09
1610.0 4.3458e-09
1630.0 4.4681e-09
1650.0 4.5946e-09
1670.0 4.7171e-09
1690.0 4.8386e-09
1710.0 4.9662e-09
1730.0 5.0955e-09
1750.0 5.2176e-09
1770.0 5.3445e-09
1790.0 5.4751e-09
1810.0 5.6024e-09
1830.0 5.7284e-09
1850.0 5.8665e-09
1870.0 6.0044e-09
1890.0 6.1378e-09
1910.0 6.2741e-09
1930.0 6.4139e-09
1950.0 6.5474e-09
1970.0 6.6796e-09
1990.0 6.8173e-09
2010.0 6.9533e-09
2030.0 7.0852e-09
2050.0 7.2217e-09
2070.0 7.3617e-09
2090.0 7.4943e-09
2110.0 7.6272e-09
2130.0 7.7646e-09
2150.0 7.9002e-09
2170.0 8.0307e-09
2190.0 8.1668e-09
2210.0 8.3067e-09
2230.0 8.445e-09
2250.0 8.5839e-09
2270.0 8.7298e-09
2290.0 8.8727e-09
2310.0 9.0114e-09
2330.0 9.1553e-09
2350.0 9.3013e-09
2370.0 9.4426e-09
2390.0 9.5858e-09
2410.0 9.7361e-09
2430.0 9.8845e-09
2450.0 1.0035e-08
2470.0 1.0202e-08
2490.0 1.0395e-08
2510.0 1.0617e-08
2530.0 1.0903e-08
2550.0 1.1298e-08
2570.0 1.1828e-08
2590.0 1.2528e-08
2610.0 1.3529e-08
2630.0 1.4857e-08
2650.0 1.6482e-08
2670.0 1.8489e-08
2690.0 2.0921e-08
2710.0 2.3589e-08
2730.0 2.6396e-08
2750.0 2.9435e-08
2770.0 3.2452e-08
2790.0 3.5257e-08
2810.0 3.7891e-08
2830.0 4.0355e-08
2850.0 4.2422e-08
2870.0 4.4249e-08
2890.0 4.5947e-08
2910.0 4.753e-08
2930.0 4.9029e-08
2950.0 5.0569e-08
2970.0 5.2168e-08
2990.0 5.3799e-08
3010.0 5.5498e-08
3030.0 5.7312e-08
3050.0 5.9212e-08
3070.0 6.1145e-08
3090.0 6.3194e-08
3110.0 6.5375e-08
3130.0 6.7716e-08
3150.0 7.0361e-08
3170.0 7.3746e-08
3190.0 7.8161e-08
3210.0 8.3946e-08
3230.0 9.1661e-08
3250.0 1.015e-07
3270.0 1.1093e-07
3290.0 1.2579e-07
3310.0 1.5604e-07
3330.0 1.6611e-07
3350.0 1.7108e-07
3370.0 1.7587e-07
3390.0 1.8073e-07
3410.0 1.8564e-07
3430.0 1.9058e-07
3450.0 1.9552e-07
3470.0 2.0037e-07
3490.0 2.0504e-07
3510.0 2.0922e-07
3530.0 2.0729e-07
3550.0 2.0158e-07
3570.0 2.0462e-07
3590.0 2.1775e-07
3610.0 2.374e-07
3630.0 2.4547e-07
3650.0 2.3586e-07
3670.0 2.1652e-07
3690.0 2.0516e-07
3710.0 2.0761e-07
3730.0 2.1444e-07
3750.0 2.1813e-07
3770.0 2.2548e-07
3790.0 2.3368e-07
3810.0 2.3047e-07
3830.0 2.1477e-07
3850.0 2.0065e-07
3870.0 1.9394e-07
3890.0 1.9181e-07
3910.0 1.8758e-07
3930.0 1.8542e-07
3950.0 1.9068e-07
3970.0 1.9682e-07
3990.0 1.9857e-07
4010.0 1.9134e-07
4030.0 1.8092e-07
4050.0 1.7421e-07
4070.0 1.6853e-07
4090.0 1.6396e-07
4110.0 1.5801e-07
4130.0 1.4858e-07
4150.0 1.3907e-07
4170.0 1.3343e-07
4190.0 1.2446e-07
4210.0 1.1266e-07
4230.0 1.0073e-07
4250.0 8.9378e-08
4270.0 8.0883e-08
4290.0 7.4651e-08
4310.0 7.1342e-08
4330.0 7.122e-08
4350.0 7.1643e-08
4370.0 7.2327e-08
4390.0 7.5044e-08
4410.0 7.6919e-08
4430.0 7.4302e-08
4450.0 6.7444e-08
4470.0 6.1428e-08
4490.0 5.8179e-08
4510.0 5.6077e-08
4530.0 5.5022e-08
4550.0 5.4112e-08
4570.0 5.3879e-08
4590.0 5.462e-08
4610.0 5.6255e-08
4630.0 5.7229e-08
4650.0 5.7693e-08
4670.0 5.6291e-08
4690.0 5.2921e-08
4710.0 4.9576e-08
4730.0 4.7391e-08
4750.0 4.6053e-08
4770.0 4.6232e-08
4790.0 4.605e-08
4810.0 4.5064e-08
4830.0 4.5175e-08
4850.0 4.6575e-08
4870.0 4.7045e-08
4890.0 4.6202e-08
4910.0 4.5112e-08
4930.0 4.2539e-08
4950.0 3.8853e-08
4970.0 3.6311e-08
4990.0 3.4225e-08
5010.0 3.3783e-08
5030.0 3.492e-08
5050.0 3.5812e-08
5070.0 3.7152e-08
5090.0 3.9397e-08
5110.0 3.9994e-08
5130.0 4.0345e-08
5150.0 4.1084e-08
5170.0 4.1439e-08
5190.0 4.2525e-08
5210.0 4.2743e-08
5230.0 4.2305e-08
5250.0 4.264e-08
5270.0 4.3229e-08
5290.0 4.3343e-08
5310.0 4.3021e-08
5330.0 4.2202e-08
5350.0 4.1637e-08
5370.0 4.1191e-08
5390.0 4.064e-08
5410.0 4.0191e-08
5430.0 4.017e-08
5450.0 4.0767e-08
5470.0 4.1525e-08
5490.0 4.2732e-08
5510.0 4.4023e-08
5530.0 4.4568e-08
5550.0 4.5221e-08
5570.0 4.5338e-08
5590.0 4.4427e-08
5610.0 4.4107e-08
5630.0 4.4428e-08
5650.0 4.3895e-08
5670.0 4.2924e-08
5690.0 4.165e-08
5710.0 4.1521e-08
5730.0 4.1969e-08
5750.0 4.0185e-08
5770.0 3.812e-08
5790.0 3.5076e-08
5810.0 3.0712e-08
5830.0 3.3086e-08
5850.0 3.6583e-08
5870.0 3.7357e-08
5890.0 3.7555e-08
5910.0 3.7883e-08
5930.0 3.7795e-08
5950.0 3.718e-08
5970.0 3.6739e-08
5990.0 3.6221e-08
6010.0 3.5114e-08
6030.0 3.3919e-08
6050.0 3.3387e-08
6070.0 3.3219e-08
6090.0 3.2727e-08
6110.0 3.1645e-08
6130.0 3.0561e-08
6150.0 2.934e-08
6170.0 2.8121e-08
6190.0 2.6833e-08
6210.0 2.5891e-08
6230.0 2.5526e-08
6250.0 2.4985e-08
6270.0 2.4463e-08
6290.0 2.4285e-08
6310.0 2.4144e-08
6330.0 2.3618e-08
6350.0 2.2849e-08
6370.0 2.2419e-08
6390.0 2.1961e-08
6410.0 2.1357e-08
6430.0 2.0771e-08
6450.0 2.032e-08
6470.0 1.9891e-08
6490.0 1.9593e-08
6510.0 1.9239e-08
6530.0 1.8756e-08
6550.0 1.8341e-08
6570.0 1.805e-08
6590.0 1.803e-08
6610.0 1.7918e-08
6630.0 1.7322e-08
6650.0 1.6826e-08
6670.0 1.6647e-08
6690.0 1.6382e-08
6710.0 1.5986e-08
6730.0 1.5842e-08
6750.0 1.5965e-08
6770.0 1.69e-08
6790.0 1.8846e-08
6810.0 1.7905e-08
6830.0 1.5757e-08
6850.0 1.5127e-08
6870.0 1.4896e-08
6890.0 1.4896e-08
6910.0 1.4927e-08
6930.0 1.4957e-08
6950.0 1.4918e-08
6970.0 1.4539e-08
6990.0 1.4408e-08
7010.0 1.4621e-08
7030.0 1.4695e-08
7050.0 1.4483e-08
7070.0 1.432e-08
7090.0 1.4398e-08
7110.0 1.4735e-08
7130.0 1.4782e-08
7150.0 1.484e-08
7170.0 1.4919e-08
7190.0 1.5124e-08
7210.0 1.5295e-08
7230.0 1.5473e-08
7250.0 1.5677e-08
7270.0 1.5826e-08
7290.0 1.6081e-08
7310.0 1.6366e-08
7330.0 1.6237e-08
7350.0 1.5894e-08
7370.0 1.5688e-08
7390.0 1.5663e-08
7410.0 1.5709e-08
7430.0 1.5907e-08
7450.0 1.6005e-08
7470.0 1.6243e-08
7490.0 1.6154e-08
7510.0 1.5969e-08
7530.0 1.6163e-08
7550.0 1.6637e-08
7570.0 1.6597e-08
7590.0 1.5745e-08
7610.0 1.5631e-08
7630.0 1.6504e-08
7650.0 1.6845e-08
7670.0 1.6935e-08
7690.0 1.7694e-08
7710.0 1.8263e-08
7730.0 1.8444e-08
7750.0 1.94e-08
7770.0 1.8915e-08
7790.0 1.8476e-08
7810.0 1.9558e-08
7830.0 2.0319e-08
7850.0 2.0808e-08
7870.0 2.1233e-08
7890.0 2.1386e-08
7910.0 2.123e-08
7930.0 2.137e-08
7950.0 2.234e-08
7970.0 2.2331e-08
7990.0 2.0802e-08
8010.0 1.976e-08
8030.0 2.0173e-08
8050.0 2.0615e-08
8070.0 1.863e-08
8090.0 1.2108e-08
8110.0 1.2666e-08
8130.0 1.8166e-08
8150.0 1.9564e-08
8170.0 2.0338e-08
8190.0 2.0767e-08
8210.0 2.052e-08
8230.0 2.2271e-08
8250.0 2.2768e-08
8270.0 2.1505e-08
8290.0 2.0643e-08
8310.0 2.0355e-08
8330.0 2.15e-08
8350.0 2.2518e-08
8370.0 2.208e-08
8390.0 2.1052e-08
8410.0 2.1035e-08
8430.0 1.9702e-08
8450.0 2.0154e-08
8470.0 2.2021e-08
8490.0 2.2087e-08
8510.0 2.0483e-08
8530.0 1.9173e-08
8550.0 1.837e-08
8570.0 1.7326e-08
8590.0 1.782e-08
8610.0 1.8927e-08
8630.0 1.9423e-08
8650.0 1.9761e-08
8670.0 1.9206e-08
8690.0 1.8759e-08
8710.0 1.7431e-08
8730.0 1.6812e-08
8750.0 1.7516e-08
8770.0 1.7798e-08
8790.0 1.772e-08
8810.0 1.7657e-08
8830.0 1.8046e-08
8850.0 1.8941e-08
8870.0 1.7685e-08
8890.0 1.669e-08
8910.0 1.6442e-08
8930.0 1.543e-08
8950.0 1.4882e-08
8970.0 1.4884e-08
8990.0 1.4245e-08
9010.0 1.3375e-08
9030.0 1.307e-08
9050.0 1.2961e-08
9070.0 1.2863e-08
9090.0 1.2765e-08
9110.0 1.2666e-08
9130.0 1.2567e-08
9150.0 1.2467e-08
9170.0 1.2367e-08
9190.0 1.2267e-08
9210.0 1.2167e-08
9230.0 1.2066e-08
9250.0 1.1966e-08
9270.0 1.1865e-08
9290.0 1.1765e-08
9310.0 1.1665e-08
9330.0 1.1565e-08
9350.0 1.1466e-08
9370.0 1.1366e-08
9390.0 1.1268e-08
9410.0 1.1169e-08
9430.0 1.1072e-08
9450.0 1.0975e-08
9470.0 1.0878e-08
9490.0 1.0782e-08
9510.0 1.0687e-08
9530.0 1.0593e-08
9550.0 1.05e-08
9570.0 1.0407e-08
9590.0 1.0315e-08
9610.0 1.0224e-08
9630.0 1.0133e-08
9650.0 1.0044e-08
9670.0 9.955e-09
9690.0 9.8672e-09
9710.0 9.7804e-09
9730.0 9.6946e-09
9750.0 9.6097e-09
9770.0 9.5257e-09
9790.0 9.4427e-09
9810.0 9.3607e-09
9830.0 9.2797e-09
9850.0 9.1997e-09
9870.0 9.1208e-09
9890.0 9.0425e-09
9910.0 8.9653e-09
9930.0 8.8891e-09
9950.0 8.8138e-09
9970.0 8.7395e-09
9990.0 8.6661e-09
10010.0 8.5937e-09
10030.0 8.5223e-09
10050.0 8.4518e-09
10070.0 8.3822e-09
10090.0 8.3135e-09
10110.0 8.2457e-09
10130.0 8.1788e-09
10150.0 8.1127e-09
10170.0 8.0476e-09
10190.0 7.9833e-09
10210.0 7.9199e-09
10230.0 7.8573e-09
10250.0 7.7955e-09
10270.0 7.7345e-09
10290.0 7.6744e-09
10310.0 7.615e-09
10330.0 7.5564e-09
10350.0 7.4986e-09
10370.0 7.4415e-09
10390.0 7.3843e-09
10410.0 7.3172e-09
10430.0 7.2471e-09
10450.0 7.2056e-09
10470.0 7.1578e-09
10490.0 7.1093e-09
10510.0 7.0601e-09
10530.0 7.0088e-09
10550.0 6.9583e-09
10570.0 6.9091e-09
10590.0 6.8595e-09
10610.0 6.8099e-09
10630.0 6.7621e-09
10650.0 6.7147e-09
10670.0 6.6666e-09
10690.0 6.6197e-09
10710.0 6.5741e-09
10730.0 6.5281e-09
10750.0 6.4818e-09
10770.0 6.4378e-09
10790.0 6.394e-09
10810.0 6.3498e-09
10830.0 6.3065e-09
10850.0 6.2647e-09
10870.0 6.2215e-09
10890.0 6.1788e-09
10910.0 6.1375e-09
10930.0 6.096e-09
10950.0 6.0536e-09
10970.0 6.0117e-09
10990.0 5.9705e-09
11010.0 6.0544e-09
11030.0 6.0102e-09
11050.0 5.9665e-09
11070.0 5.9219e-09
11090.0 5.8747e-09
11110.0 5.8288e-09
11130.0 5.7829e-09
11150.0 5.7352e-09
11170.0 5.687e-09
11190.0 5.6403e-09
11210.0 5.5925e-09
11230.0 5.5435e-09
11250.0 5.4962e-09
11270.0 5.4501e-09
11290.0 5.4033e-09
11310.0 5.3578e-09
11330.0 5.3159e-09
11350.0 5.2747e-09
11370.0 5.2348e-09
11390.0 5.1977e-09
11410.0 5.1629e-09
11430.0 5.1282e-09
11450.0 5.0955e-09
11470.0 5.0649e-09
11490.0 5.0346e-09
11510.0 5.0042e-09
11530.0 4.9752e-09
11550.0 4.9466e-09
11570.0 4.9168e-09
11590.0 4.8869e-09
11610.0 4.8573e-09
11630.0 4.8263e-09
11650.0 4.7939e-09
11670.0 4.7621e-09
11690.0 4.7298e-09
11710.0 4.6958e-09
11730.0 4.6617e-09
11750.0 4.6285e-09
11770.0 4.5938e-09
11790.0 4.5587e-09
11810.0 4.5247e-09
11830.0 4.491e-09
11850.0 4.4562e-09
11870.0 4.4229e-09
11890.0 4.3914e-09
11910.0 4.36e-09
11930.0 4.3295e-09
11950.0 4.3013e-09
11970.0 4.2742e-09
11990.0 4.2477e-09
12010.0 4.2235e-09
12030.0 4.2013e-09
12050.0 4.1801e-09
12070.0 4.1602e-09
12090.0 4.1429e-09
12110.0 4.1268e-09
12130.0 4.1116e-09
12150.0 4.098e-09
12170.0 4.0856e-09
12190.0 4.0734e-09
12210.0 4.0618e-09
12230.0 4.0508e-09
12250.0 4.0395e-09
12270.0 4.0275e-09
12290.0 4.015e-09
12310.0 4.0018e-09
12330.0 3.9868e-09
12350.0 3.9703e-09
12370.0 3.9527e-09
12390.0 3.9331e-09
12410.0 3.9105e-09
12430.0 3.8871e-09
12450.0 3.8623e-09
12470.0 3.8349e-09
12490.0 3.8058e-09
12510.0 3.7766e-09
12530.0 3.7453e-09
12550.0 3.7121e-09
12570.0 3.6791e-09
12590.0 3.6457e-09
12610.0 3.6105e-09
12630.0 3.575e-09
12650.0 3.5413e-09
12670.0 3.5068e-09
12690.0 3.472e-09
12710.0 3.439e-09
12730.0 3.407e-09
12750.0 3.3742e-09
12770.0 3.3434e-09
12790.0 3.3146e-09
12810.0 3.2866e-09
12830.0 3.2594e-09
12850.0 3.235e-09
12870.0 3.2123e-09
12890.0 3.1905e-09
12910.0 3.1708e-09
12930.0 3.1535e-09
12950.0 3.1374e-09
12970.0 3.1231e-09
12990.0 3.1114e-09
13010.0 3.1016e-09
13030.0 3.0934e-09
13050.0 3.0871e-09
13070.0 3.0827e-09
13090.0 3.0794e-09
13110.0 3.0773e-09
13130.0 3.0761e-09
13150.0 3.0753e-09
13170.0 3.0746e-09
13190.0 3.0736e-09
13210.0 3.0719e-09
13230.0 3.0691e-09
13250.0 3.065e-09
13270.0 3.0594e-09
13290.0 3.0522e-09
13310.0 3.0428e-09
13330.0 3.0317e-09
13350.0 3.019e-09
13370.0 3.0041e-09
13390.0 2.987e-09
13410.0 2.9692e-09
13430.0 2.9496e-09
13450.0 2.928e-09
13470.0 2.9055e-09
13490.0 2.8825e-09
13510.0 2.8569e-09
13530.0 2.8306e-09
13550.0 2.8044e-09
13570.0 2.7771e-09
13590.0 2.7483e-09
13610.0 2.72e-09
13630.0 2.692e-09
13650.0 2.6624e-09
13670.0 2.6328e-09
13690.0 2.6042e-09
13710.0 2.575e-09
13730.0 2.5446e-09
13750.0 2.5161e-09
13770.0 2.4882e-09
13790.0 2.4598e-09
13810.0 2.4322e-09
13830.0 2.4063e-09
13850.0 2.3803e-09
13870.0 2.3546e-09
13890.0 2.3306e-09
13910.0 2.3077e-09
13930.0 2.2846e-09
13950.0 2.2626e-09
13970.0 2.2425e-09
13990.0 2.2226e-09
14010.0 2.2033e-09
14030.0 2.1853e-09
14050.0 2.1683e-09
14070.0 2.1511e-09
14090.0 2.1352e-09
14110.0 2.1205e-09
14130.0 2.1061e-09
14150.0 2.0922e-09
14170.0 2.0796e-09
14190.0 2.0675e-09
14210.0 2.0556e-09
14230.0 2.0444e-09
14250.0 2.034e-09
14270.0 2.0235e-09
14290.0 2.0131e-09
14310.0 2.0035e-09
14330.0 1.9941e-09
14350.0 1.9846e-09
14370.0 1.9754e-09
14390.0 1.9667e-09
14410.0 1.9577e-09
14430.0 1.9489e-09
14450.0 1.9405e-09
14470.0 1.9321e-09
14490.0 1.9234e-09
14510.0 1.9151e-09
14530.0 1.9071e-09
14550.0 1.8988e-09
14570.0 1.8904e-09
14590.0 1.8823e-09
14610.0 1.874e-09
14630.0 1.8654e-09
14650.0 1.8569e-09
14670.0 1.8485e-09
14690.0 1.8396e-09
14710.0 1.8306e-09
14730.0 1.8219e-09
14750.0 1.813e-09
14770.0 1.8036e-09
14790.0 1.7943e-09
14810.0 1.7851e-09
14830.0 1.7752e-09
14850.0 1.7651e-09
14870.0 1.7554e-09
14890.0 1.7454e-09
14910.0 1.7351e-09
14930.0 1.7254e-09
14950.0 1.7162e-09
14970.0 1.7071e-09
14990.0 1.6989e-09
15010.0 1.6917e-09
15030.0 1.6852e-09
15050.0 1.6792e-09
15070.0 1.6741e-09
15090.0 1.6695e-09
15110.0 1.6651e-09
15130.0 1.6609e-09
15150.0 1.6569e-09
15170.0 1.6529e-09
15190.0 1.6488e-09
15210.0 1.6448e-09
15230.0 1.6409e-09
15250.0 1.6368e-09
15270.0 1.6327e-09
15290.0 1.6288e-09
15310.0 1.6248e-09
15330.0 1.6208e-09
15350.0 1.6169e-09
15370.0 1.613e-09
15390.0 1.6088e-09
15410.0 1.6048e-09
15430.0 1.6009e-09
15450.0 1.5969e-09
15470.0 1.5928e-09
15490.0 1.5888e-09
15510.0 1.5849e-09
15530.0 1.5808e-09
15550.0 1.5768e-09
15570.0 1.5729e-09
15590.0 1.5689e-09
15610.0 1.5647e-09
15630.0 1.5608e-09
15650.0 1.5569e-09
15670.0 1.5528e-09
15690.0 1.5488e-09
15710.0 1.5449e-09
15730.0 1.5408e-09
15750.0 1.5368e-09
15770.0 1.5328e-09
15790.0 1.5289e-09
15810.0 1.5247e-09
15830.0 1.5207e-09
15850.0 1.5168e-09
15870.0 1.5127e-09
15890.0 1.5087e-09
15910.0 1.5048e-09
15930.0 1.5008e-09
15950.0 1.4966e-09
15970.0 1.4926e-09
15990.0 1.4887e-09
16010.0 1.4846e-09
16030.0 1.4805e-09
16050.0 1.4766e-09
16070.0 1.4726e-09
16090.0 1.4685e-09
16110.0 1.4645e-09
16130.0 1.4606e-09
16150.0 1.4564e-09
16170.0 1.4524e-09
16190.0 1.4484e-09
16210.0 1.4444e-09
16230.0 1.4403e-09
16250.0 1.4363e-09
16270.0 1.4324e-09
16290.0 1.4283e-09
16310.0 1.4242e-09
16330.0 1.4203e-09
16350.0 1.4163e-09
16370.0 1.412e-09
16390.0 1.4081e-09
16410.0 1.4041e-09
16430.0 1.4e-09
16450.0 1.396e-09
16470.0 1.3921e-09
16490.0 1.388e-09
16510.0 1.3839e-09
16530.0 1.3799e-09
16550.0 1.3759e-09
16570.0 1.3718e-09
16590.0 1.3677e-09
16610.0 1.3638e-09
16630.0 1.3597e-09
16650.0 1.3556e-09
16670.0 1.3517e-09
16690.0 1.3477e-09
16710.0 1.3435e-09
16730.0 1.3395e-09
16750.0 1.3355e-09
16770.0 1.3314e-09
16790.0 1.3273e-09
16810.0 1.3233e-09
16830.0 1.3194e-09
16850.0 1.3152e-09
16870.0 1.3112e-09
16890.0 1.3073e-09
16910.0 1.3031e-09
16930.0 1.299e-09
16950.0 1.295e-09
16970.0 1.291e-09
16990.0 1.2869e-09
17010.0 1.2829e-09
17030.0 1.2789e-09
17050.0 1.2748e-09
17070.0 1.2707e-09
17090.0 1.2668e-09
17110.0 1.2627e-09
17130.0 1.2585e-09
17150.0 1.2545e-09
17170.0 1.2506e-09
17190.0 1.2465e-09
17210.0 1.2424e-09
17230.0 1.2385e-09
17250.0 1.2344e-09
17270.0 1.2302e-09
17290.0 1.2262e-09
17310.0 1.2223e-09
17330.0 1.2181e-09
17350.0 1.214e-09
17370.0 1.2101e-09
17390.0 1.2061e-09
17410.0 1.2019e-09
17430.0 1.1979e-09
17450.0 1.194e-09
17470.0 1.1898e-09
17490.0 1.1857e-09
17510.0 1.1817e-09
17530.0 1.1777e-09
17550.0 1.1735e-09
17570.0 1.1696e-09
17590.0 1.1656e-09
17610.0 1.1615e-09
17630.0 1.1574e-09
17650.0 1.1535e-09
17670.0 1.1494e-09
17690.0 1.1452e-09
17710.0 1.1412e-09
17730.0 1.1372e-09
17750.0 1.1331e-09
17770.0 1.1291e-09
17790.0 1.1252e-09
17810.0 1.121e-09
17830.0 1.1169e-09
17850.0 1.1129e-09
17870.0 1.1089e-09
17890.0 1.1048e-09
17910.0 1.1007e-09
17930.0 1.0968e-09
17950.0 1.0927e-09
17970.0 1.0886e-09
17990.0 1.0846e-09
18010.0 1.0807e-09
18030.0 1.0765e-09
18050.0 1.0724e-09
18070.0 1.0684e-09
18090.0 1.0644e-09
18110.0 1.0602e-09
18130.0 1.0563e-09
18150.0 1.0523e-09
18170.0 1.0482e-09
18190.0 1.0441e-09
18210.0 1.0402e-09
18230.0 1.0361e-09
18250.0 1.0319e-09
18270.0 1.028e-09
18290.0 1.024e-09
18310.0 1.0198e-09
18330.0 1.0158e-09
18350.0 1.0119e-09
18370.0 1.0078e-09
18390.0 1.0037e-09
18410.0 9.9972e-10
18430.0 9.957e-10
18450.0 9.9151e-10
18470.0 9.875e-10
18490.0 9.8356e-10
18510.0 9.7947e-10
18530.0 9.7539e-10
18550.0 9.7147e-10
18570.0 9.6743e-10
18590.0 9.6326e-10
18610.0 9.5926e-10
18630.0 9.5529e-10
18650.0 9.5118e-10
18670.0 9.4706e-10
18690.0 9.4316e-10
18710.0 9.3913e-10
18730.0 9.3502e-10
18750.0 9.3103e-10
18770.0 9.2709e-10
18790.0 9.2291e-10
18810.0 9.1883e-10
18830.0 9.1489e-10
18850.0 9.1085e-10
18870.0 9.0672e-10
18890.0 9.0276e-10
18910.0 8.9881e-10
18930.0 8.9468e-10
18950.0 8.9063e-10
18970.0 8.8669e-10
18990.0 8.8264e-10
19010.0 8.7843e-10
19030.0 8.745e-10
19050.0 8.7052e-10
19070.0 8.6642e-10
19090.0 8.6238e-10
19110.0 8.5849e-10
19130.0 8.5439e-10
19150.0 8.5027e-10
19170.0 8.463e-10
19190.0 8.4231e-10
19210.0 8.3817e-10
19230.0 8.3411e-10
19250.0 8.3021e-10
19270.0 8.2615e-10
19290.0 8.2206e-10
19310.0 8.1812e-10
19330.0 8.1414e-10
19350.0 8.0996e-10
19370.0 8.0594e-10
19390.0 8.0199e-10
19410.0 7.9792e-10
19430.0 7.9381e-10
19450.0 7.8989e-10
19470.0 7.859e-10
19490.0 7.8179e-10
19510.0 7.7778e-10
19530.0 7.7385e-10
19550.0 7.6973e-10
19570.0 7.656e-10
19590.0 7.6167e-10
19610.0 7.5767e-10
19630.0 7.5356e-10
19650.0 7.4957e-10
19670.0 7.4566e-10
19690.0 7.4154e-10
19710.0 7.3747e-10
19730.0 7.3352e-10
19750.0 7.2951e-10
19770.0 7.2534e-10
19790.0 7.2136e-10
19810.0 7.1743e-10
19830.0 7.1335e-10
19850.0 7.0931e-10
19870.0 7.0545e-10
19890.0 7.0148e-10
19910.0 6.9749e-10
19930.0 6.9379e-10
19950.0 6.903e-10
19970.0 6.8696e-10
19990.0 6.8399e-10
20010.0 6.8153e-10
20030.0 6.7939e-10
20050.0 6.7761e-10
20070.0 6.7622e-10
20090.0 6.751e-10
20110.0 6.741e-10
20130.0 6.7326e-10
20150.0 6.7251e-10
20170.0 6.7177e-10
20190.0 6.7101e-10
20210.0 6.7026e-10
20230.0 6.6948e-10
20250.0 6.6863e-10
20270.0 6.6776e-10
20290.0 6.6686e-10
20310.0 6.6588e-10
20330.0 6.6481e-10
20350.0 6.6376e-10
20370.0 6.6264e-10
20390.0 6.6143e-10
20410.0 6.602e-10
20430.0 6.5897e-10
20450.0 6.5764e-10
20470.0 6.5628e-10
20490.0 6.5495e-10
20510.0 6.5361e-10
20530.0 6.5223e-10
20550.0 6.5089e-10
20570.0 6.4963e-10
20590.0 6.4834e-10
20610.0 6.4707e-10
20630.0 6.4588e-10
20650.0 6.447e-10
20670.0 6.4348e-10
20690.0 6.4232e-10
20710.0 6.4117e-10
20730.0 6.3996e-10
20750.0 6.3871e-10
20770.0 6.3746e-10
20790.0 6.3611e-10
20810.0 6.3464e-10
20830.0 6.3311e-10
20850.0 6.315e-10
20870.0 6.2969e-10
20890.0 6.2776e-10
20910.0 6.2582e-10
20930.0 6.2373e-10
20950.0 6.2149e-10
20970.0 6.1923e-10
20990.0 6.1695e-10
21010.0 6.1449e-10
21030.0 6.1203e-10
21050.0 6.0963e-10
21070.0 6.0718e-10
21090.0 6.0465e-10
21110.0 6.0225e-10
21130.0 5.9991e-10
21150.0 5.975e-10
21170.0 5.9514e-10
21190.0 5.9289e-10
21210.0 5.9056e-10
21230.0 5.8819e-10
21250.0 5.8592e-10
21270.0 5.8363e-10
21290.0 5.8124e-10
21310.0 5.7883e-10
21330.0 5.7649e-10
21350.0 5.7401e-10
21370.0 5.7143e-10
21390.0 5.689e-10
21410.0 5.6631e-10
21430.0 5.635e-10
21450.0 5.6071e-10
21470.0 5.5795e-10
21490.0 5.5505e-10
21510.0 5.5204e-10
21530.0 5.4911e-10
21550.0 5.4613e-10
21570.0 5.4298e-10
21590.0 5.3988e-10
21610.0 5.3683e-10
21630.0 5.3368e-10
21650.0 5.3042e-10
21670.0 5.2739e-10
21690.0 5.243e-10
21710.0 5.2113e-10
21730.0 5.1803e-10
21750.0 5.1505e-10
21770.0 5.1189e-10
21790.0 5.0876e-10
21810.0 5.0575e-10
21830.0 5.0271e-10
21850.0 4.9956e-10
21870.0 4.9651e-10
21890.0 4.9355e-10
21910.0 4.9048e-10
21930.0 4.8742e-10
21950.0 4.8449e-10
21970.0 4.8154e-10
21990.0 4.7848e-10
22010.0 4.7562e-10
22030.0 4.7285e-10
22050.0 4.7006e-10
22070.0 4.6735e-10
22090.0 4.6483e-10
22110.0 4.6235e-10
22130.0 4.5991e-10
22150.0 4.5766e-10
22170.0 4.5554e-10
22190.0 4.5344e-10
22210.0 4.5145e-10
22230.0 4.4966e-10
22250.0 4.4792e-10
22270.0 4.4622e-10
22290.0 4.4465e-10
22310.0 4.4315e-10
22330.0 4.4163e-10
22350.0 4.4017e-10
22370.0 4.3877e-10
22390.0 4.3736e-10
22410.0 4.3592e-10
22430.0 4.3454e-10
22450.0 4.3315e-10
22470.0 4.3171e-10
22490.0 4.3026e-10
22510.0 4.2886e-10
22530.0 4.2737e-10
22550.0 4.2585e-10
22570.0 4.2439e-10
22590.0 4.2292e-10
22610.0 4.2141e-10
