#lamb flux
1010.0 6.3935e-06
1030.0 6.8988e-06
1050.0 7.4812e-06
1070.0 8.1371e-06
1090.0 8.8824e-06
1110.0 9.6476e-06
1130.0 1.0419e-05
1150.0 1.1228e-05
1170.0 1.2063e-05
1190.0 1.2857e-05
1210.0 1.3663e-05
1230.0 1.4497e-05
1250.0 1.5316e-05
1270.0 1.6113e-05
1290.0 1.6957e-05
1310.0 1.7803e-05
1330.0 1.8616e-05
1350.0 1.9441e-05
1370.0 2.0294e-05
1390.0 2.1128e-05
1410.0 2.1941e-05
1430.0 2.2793e-05
1450.0 2.3646e-05
1470.0 2.4475e-05
1490.0 2.5314e-05
1510.0 2.6202e-05
1530.0 2.7046e-05
1550.0 2.7882e-05
1570.0 2.8746e-05
1590.0 2.9613e-05
1610.0 3.0443e-05
1630.0 3.1299e-05
1650.0 3.2176e-05
1670.0 3.3024e-05
1690.0 3.3861e-05
1710.0 3.4727e-05
1730.0 3.5595e-05
1750.0 3.6409e-05
1770.0 3.7242e-05
1790.0 3.8086e-05
1810.0 3.8897e-05
1830.0 3.9688e-05
1850.0 4.0519e-05
1870.0 4.132e-05
1890.0 4.2083e-05
1910.0 4.2852e-05
1930.0 4.363e-05
1950.0 4.4358e-05
1970.0 4.5063e-05
1990.0 4.5786e-05
2010.0 4.6481e-05
2030.0 4.7132e-05
2050.0 4.7794e-05
2070.0 4.846e-05
2090.0 4.9064e-05
2110.0 4.9652e-05
2130.0 5.0247e-05
2150.0 5.0812e-05
2170.0 5.1329e-05
2190.0 5.1858e-05
2210.0 5.2378e-05
2230.0 5.2853e-05
2250.0 5.3311e-05
2270.0 5.3789e-05
2290.0 5.423e-05
2310.0 5.4627e-05
2330.0 5.5036e-05
2350.0 5.5439e-05
2370.0 5.58e-05
2390.0 5.616e-05
2410.0 5.6545e-05
2430.0 5.6902e-05
2450.0 5.7245e-05
2470.0 5.7624e-05
2490.0 5.8069e-05
2510.0 5.8597e-05
2530.0 5.9433e-05
2550.0 6.0937e-05
2570.0 6.349e-05
2590.0 6.7535e-05
2610.0 7.4215e-05
2630.0 8.382e-05
2650.0 9.5825e-05
2670.0 0.00011035
2690.0 0.00012687
2710.0 0.00014309
2730.0 0.00015793
2750.0 0.00017164
2770.0 0.00018297
2790.0 0.0001918
2810.0 0.00019912
2830.0 0.0002057
2850.0 0.00021123
2870.0 0.00021652
2890.0 0.00022204
2910.0 0.00022766
2930.0 0.00023315
2950.0 0.00023903
2970.0 0.00024522
2990.0 0.00025134
3010.0 0.0014266
3030.0 0.0014626
3050.0 0.001498
3070.0 0.0015289
3090.0 0.0015548
3110.0 0.0015679
3130.0 0.0015593
3150.0 0.0015203
3170.0 0.0014332
3190.0 0.001297
3210.0 0.0011158
3230.0 0.00091406
3250.0 0.0010989
3270.0 0.0008865
3290.0 0.0013451
3310.0 0.00085996
3330.0 0.00086506
3350.0 0.00094045
3370.0 0.0010333
3390.0 0.0011374
3410.0 0.0012425
3430.0 0.0013537
3450.0 0.0014677
3470.0 0.0015753
3490.0 0.0016588
3510.0 0.001874
3530.0 0.0022297
3550.0 0.0022151
3570.0 0.0019916
3590.0 0.0024296
3610.0 0.0019157
3630.0 0.0025994
3650.0 0.0029197
3670.0 0.0034711
3690.0 0.0032958
3710.0 0.0025232
3730.0 0.002939
3750.0 0.0029752
3770.0 0.0032256
3790.0 0.003321
3810.0 0.0036764
3830.0 0.0054376
3850.0 0.0068189
3870.0 0.0082241
3890.0 0.0083203
3910.0 0.007763
3930.0 0.0078103
3950.0 0.0082423
3970.0 0.0080823
3990.0 0.0049053
4010.0 0.0029835
4030.0 0.0052079
4050.0 0.0071235
4070.0 0.0070302
4090.0 0.0043624
4110.0 0.0031265
4130.0 0.0052748
4150.0 0.0057692
4170.0 0.0049496
4190.0 0.0042318
4210.0 0.0061337
4230.0 0.0052131
4250.0 0.0051909
4270.0 0.0051564
4290.0 0.004699
4310.0 0.0058611
4330.0 0.0066286
4350.0 0.0063569
4370.0 0.0056696
4390.0 0.0062681
4410.0 0.0060893
4430.0 0.0045086
4450.0 0.003702
4470.0 0.0045162
4490.0 0.0039474
4510.0 0.0056947
4530.0 0.0058589
4550.0 0.0062423
4570.0 0.0081504
4590.0 0.008916
4610.0 0.0093561
4630.0 0.013157
4650.0 0.01542
4670.0 0.01533
4690.0 0.013425
4710.0 0.013559
4730.0 0.012933
4750.0 0.0098818
4770.0 0.007857
4790.0 0.0058339
4810.0 0.00682
4830.0 0.0079498
4850.0 0.0076066
4870.0 0.005533
4890.0 0.0090946
4910.0 0.01021
4930.0 0.011128
4950.0 0.012495
4970.0 0.011426
4990.0 0.013046
5010.0 0.013974
5030.0 0.013563
5050.0 0.011473
5070.0 0.0082031
5090.0 0.0068101
5110.0 0.0068061
5130.0 0.0069088
5150.0 0.0067172
5170.0 0.0063055
5190.0 0.0069342
5210.0 0.0071126
5230.0 0.0078469
5250.0 0.0086882
5270.0 0.0078704
5290.0 0.0087976
5310.0 0.011645
5330.0 0.012954
5350.0 0.011656
5370.0 0.011286
5390.0 0.012498
5410.0 0.013285
5430.0 0.01334
5450.0 0.01392
5470.0 0.014821
5490.0 0.016753
5510.0 0.020039
5530.0 0.020807
5550.0 0.021138
5570.0 0.02129
5590.0 0.020567
5610.0 0.019349
5630.0 0.019234
5650.0 0.019928
5670.0 0.019285
5690.0 0.017084
5710.0 0.016865
5730.0 0.016029
5750.0 0.015138
5770.0 0.01328
5790.0 0.013534
5810.0 0.014209
5830.0 0.015532
5850.0 0.014967
5870.0 0.014748
5890.0 0.015855
5910.0 0.014641
5930.0 0.012929
5950.0 0.01249
5970.0 0.01322
5990.0 0.011738
6010.0 0.010186
6030.0 0.0092571
6050.0 0.0084034
6070.0 0.0073634
6090.0 0.0075791
6110.0 0.0088454
6130.0 0.0092586
6150.0 0.0094211
6170.0 0.0095946
6190.0 0.0098924
6210.0 0.011026
6230.0 0.013059
6250.0 0.012117
6270.0 0.010691
6290.0 0.0094011
6310.0 0.0080344
6330.0 0.0072073
6350.0 0.0067494
6370.0 0.0070781
6390.0 0.0080028
6410.0 0.0097258
6430.0 0.011817
6450.0 0.013079
6470.0 0.014048
6490.0 0.016305
6510.0 0.018098
6530.0 0.017408
6550.0 0.0166
6570.0 0.016788
6590.0 0.016732
6610.0 0.016966
6630.0 0.015916
6650.0 0.014155
6670.0 0.01347
6690.0 0.013263
6710.0 0.014185
6730.0 0.012468
6750.0 0.010508
6770.0 0.010022
6790.0 0.01068
6810.0 0.012087
6830.0 0.012185
6850.0 0.011088
6870.0 0.011204
6890.0 0.01109
6910.0 0.010434
6930.0 0.010915
6950.0 0.01049
6970.0 0.010135
6990.0 0.010303
7010.0 0.010783
7030.0 0.010593
7050.0 0.0098588
7070.0 0.0098375
7090.0 0.0088583
7110.0 0.0075959
7130.0 0.0071523
7150.0 0.0074321
7170.0 0.0085008
7190.0 0.0086982
7210.0 0.0083654
7230.0 0.0090423
7250.0 0.0094217
7270.0 0.0095748
7290.0 0.0099499
7310.0 0.010266
7330.0 0.0097909
7350.0 0.0090799
7370.0 0.0084123
7390.0 0.0082795
7410.0 0.0092323
7430.0 0.010609
7450.0 0.011523
7470.0 0.012303
7490.0 0.014147
7510.0 0.014023
7530.0 0.011951
7550.0 0.010669
7570.0 0.009036
7590.0 0.0081561
7610.0 0.0079198
7630.0 0.0076404
7650.0 0.0082394
7670.0 0.0093024
7690.0 0.010191
7710.0 0.011652
7730.0 0.012129
7750.0 0.012578
7770.0 0.013406
7790.0 0.014181
7810.0 0.014064
7830.0 0.012787
7850.0 0.012764
7870.0 0.012411
7890.0 0.012173
7910.0 0.011364
7930.0 0.010973
7950.0 0.00916
7970.0 0.0089699
7990.0 0.0088831
8010.0 0.010136
8030.0 0.01014
8050.0 0.010753
8070.0 0.010415
8090.0 0.01046
8110.0 0.010302
8130.0 0.01002
8150.0 0.0093341
8170.0 0.0092229
8190.0 0.0092772
8210.0 0.0093804
8230.0 0.0083526
8250.0 0.0077002
8270.0 0.0068019
8290.0 0.0057563
8310.0 0.0049409
8330.0 0.0038012
8350.0 0.0030051
8370.0 0.0028345
8390.0 0.0028206
8410.0 0.0030557
8430.0 0.0039345
8450.0 0.0043241
8470.0 0.004676
8490.0 0.0054059
8510.0 0.0058777
8530.0 0.006621
8550.0 0.00784
8570.0 0.0086863
8590.0 0.0092044
8610.0 0.010372
8630.0 0.011924
8650.0 0.012338
8670.0 0.012621
8690.0 0.012947
8710.0 0.012662
8730.0 0.01219
8750.0 0.011237
8770.0 0.011192
8790.0 0.010974
8810.0 0.010115
8830.0 0.0099697
8850.0 0.0089625
8870.0 0.00846
8890.0 0.0076301
8910.0 0.0085507
8930.0 0.0078184
8950.0 0.0079068
8970.0 0.0081048
8990.0 0.0079328
9010.0 0.0081091
9030.0 0.007711
9050.0 0.0076793
9070.0 0.0076863
9090.0 0.0076923
9110.0 0.0077039
9130.0 0.0077087
9150.0 0.0077098
9170.0 0.0076927
9190.0 0.0076496
9210.0 0.0077644
9230.0 0.0077394
9250.0 0.007728
9270.0 0.0077199
9290.0 0.0077138
9310.0 0.007709
9330.0 0.0077047
9350.0 0.0077009
9370.0 0.007697
9390.0 0.0076925
9410.0 0.007688
9430.0 0.0076835
9450.0 0.0076782
9470.0 0.0076727
9490.0 0.0076672
9510.0 0.0076614
9530.0 0.0076552
9550.0 0.0076494
9570.0 0.0076435
9590.0 0.0076373
9610.0 0.007631
9630.0 0.0076252
9650.0 0.0076193
9670.0 0.007613
9690.0 0.0076073
9710.0 0.0076019
9730.0 0.0075961
9750.0 0.0075906
9770.0 0.0075861
9790.0 0.0075812
9810.0 0.0075763
9830.0 0.0075722
9850.0 0.0075684
9870.0 0.0075643
9890.0 0.0075607
9910.0 0.007558
9930.0 0.0075551
9950.0 0.0075435
9970.0 0.0075444
9990.0 0.0075454
10010.0 0.0075453
10030.0 0.0075453
10050.0 0.0075425
10070.0 0.0075233
10090.0 0.00753
10110.0 0.0075366
10130.0 0.0075416
10150.0 0.0075457
10170.0 0.007549
10190.0 0.0075514
10210.0 0.0075542
10230.0 0.0075574
10250.0 0.0075603
10270.0 0.0075636
10290.0 0.0075676
10310.0 0.0075715
10330.0 0.0075753
10350.0 0.00758
10370.0 0.007585
10390.0 0.0075898
10410.0 0.0075949
10430.0 0.0076009
10450.0 0.0076066
10470.0 0.0076123
10490.0 0.0076186
10510.0 0.0076251
10530.0 0.0076312
10550.0 0.0076378
10570.0 0.0076449
10590.0 0.0076517
10610.0 0.0076586
10630.0 0.0076659
10650.0 0.0076733
10670.0 0.0076804
10690.0 0.0076877
10710.0 0.0076953
10730.0 0.0077027
10750.0 0.0077099
10770.0 0.0077176
10790.0 0.0077252
10810.0 0.0077325
10830.0 0.0077395
10850.0 0.0077461
10870.0 0.0077505
10890.0 0.0077515
10910.0 0.0077469
10930.0 0.0077324
10950.0 0.0077011
10970.0 0.0076495
10990.0 0.0075759
11010.0 0.0077488
11030.0 0.0076006
11050.0 0.0074282
11070.0 0.0072296
11090.0 0.0069999
11110.0 0.0067718
11130.0 0.0065441
11150.0 0.0063118
11170.0 0.0060871
11190.0 0.0058839
11210.0 0.0056895
11230.0 0.0055066
11250.0 0.005347
11270.0 0.0052067
11290.0 0.0050779
11310.0 0.0049653
11330.0 0.0048721
11350.0 0.0047871
11370.0 0.0047084
11390.0 0.0046372
11410.0 0.0045692
11430.0 0.004497
11450.0 0.0044233
11470.0 0.0043476
11490.0 0.004265
11510.0 0.0041738
11530.0 0.0040808
11550.0 0.0039838
11570.0 0.0038789
11590.0 0.0037721
11610.0 0.0036672
11630.0 0.0035582
11650.0 0.0034476
11670.0 0.0033441
11690.0 0.0032434
11710.0 0.0031431
11730.0 0.003048
11750.0 0.0029608
11770.0 0.0028745
11790.0 0.0027914
11810.0 0.0027148
11830.0 0.0026418
11850.0 0.0025681
11870.0 0.0024993
11890.0 0.0024348
11910.0 0.0023698
11930.0 0.0023053
11950.0 0.0022442
11970.0 0.0021832
11990.0 0.0021203
12010.0 0.0020597
12030.0 0.0020012
12050.0 0.0019421
12070.0 0.0018836
12090.0 0.0018308
12110.0 0.0017803
12130.0 0.0017322
12150.0 0.0016899
12170.0 0.0016542
12190.0 0.0016229
12210.0 0.0015994
12230.0 0.0015847
12250.0 0.001578
12270.0 0.0015804
12290.0 0.0015917
12310.0 0.0016111
12330.0 0.0016396
12350.0 0.0016759
12370.0 0.0017172
12390.0 0.0017642
12410.0 0.0018179
12430.0 0.0018708
12450.0 0.0019237
12470.0 0.0019774
12490.0 0.0020286
12510.0 0.0020742
12530.0 0.0021169
12550.0 0.0021553
12570.0 0.0021868
12590.0 0.0022124
12610.0 0.002233
12630.0 0.0022474
12650.0 0.0022557
12670.0 0.0022593
12690.0 0.0022582
12710.0 0.0022528
12730.0 0.0022439
12750.0 0.0022311
12770.0 0.0022155
12790.0 0.0021978
12810.0 0.0021773
12830.0 0.0021539
12850.0 0.0021294
12870.0 0.002103
12890.0 0.0020732
12910.0 0.0020413
12930.0 0.0020081
12950.0 0.001971
12970.0 0.0019302
12990.0 0.0018887
13010.0 0.0018449
13030.0 0.0017976
13050.0 0.0017494
13070.0 0.0017021
13090.0 0.0016527
13110.0 0.0016034
13130.0 0.0015573
13150.0 0.0015134
13170.0 0.0014704
13190.0 0.001433
13210.0 0.001401
13230.0 0.0013728
13250.0 0.0013497
13270.0 0.0013326
13290.0 0.0013202
13310.0 0.0013121
13330.0 0.0013086
13350.0 0.0013085
13370.0 0.0013111
13390.0 0.0013156
13410.0 0.0013206
13430.0 0.0013257
13450.0 0.00133
13470.0 0.0013329
13490.0 0.0013339
13510.0 0.0013328
13530.0 0.0013294
13550.0 0.001324
13570.0 0.0013167
13590.0 0.0013078
13610.0 0.0012982
13630.0 0.0012883
13650.0 0.001278
13670.0 0.001268
13690.0 0.001259
13710.0 0.0012506
13730.0 0.0012429
13750.0 0.0012364
13770.0 0.0012307
13790.0 0.0012253
13810.0 0.0012202
13830.0 0.0012153
13850.0 0.0012099
13870.0 0.0012039
13890.0 0.0011972
13910.0 0.0011896
13930.0 0.0011809
13950.0 0.0011711
13970.0 0.0011611
13990.0 0.0011503
14010.0 0.0011391
14030.0 0.0011282
14050.0 0.0011178
14070.0 0.0011075
14090.0 0.0010983
14110.0 0.0010904
14130.0 0.0010834
14150.0 0.0010775
14170.0 0.001073
14190.0 0.0010695
14210.0 0.0010671
14230.0 0.0010658
14250.0 0.0010655
14270.0 0.0010663
14290.0 0.0010684
14310.0 0.0010714
14330.0 0.0010755
14350.0 0.001081
14370.0 0.0010874
14390.0 0.0010945
14410.0 0.0011028
14430.0 0.001112
14450.0 0.0011213
14470.0 0.0011311
14490.0 0.0011418
14510.0 0.0011524
14530.0 0.0011629
14550.0 0.0011743
14570.0 0.0011864
14590.0 0.0011988
14610.0 0.0012125
14630.0 0.0012284
14650.0 0.0012456
14670.0 0.0012643
14690.0 0.0012861
14710.0 0.0013107
14730.0 0.001336
14750.0 0.001364
14770.0 0.001395
14790.0 0.0014268
14810.0 0.0014588
14830.0 0.0014939
14850.0 0.0015283
14870.0 0.0015607
14890.0 0.0015922
14910.0 0.0016224
14930.0 0.0016483
14950.0 0.0016699
14970.0 0.0016882
14990.0 0.0017014
15010.0 0.0017096
15030.0 0.0017137
15050.0 0.0017143
15070.0 0.0017118
15090.0 0.0017074
15110.0 0.0017017
15130.0 0.0016952
15150.0 0.0016886
15170.0 0.0016815
15190.0 0.0016744
15210.0 0.0016674
15230.0 0.0016604
15250.0 0.0016532
15270.0 0.0016461
15290.0 0.0016392
15310.0 0.0016323
15330.0 0.0016253
15350.0 0.0016184
15370.0 0.0016116
15390.0 0.0016046
15410.0 0.0015978
15430.0 0.001591
15450.0 0.0015842
15470.0 0.0015774
15490.0 0.0015708
15510.0 0.0015641
15530.0 0.0015574
15550.0 0.0015508
15570.0 0.0015443
15590.0 0.0015376
15610.0 0.001531
15630.0 0.0015245
15650.0 0.0015181
15670.0 0.0015115
15690.0 0.0015051
15710.0 0.0014988
15730.0 0.0014924
15750.0 0.001486
15770.0 0.0014798
15790.0 0.0014735
15810.0 0.0014671
15830.0 0.0014609
15850.0 0.0014548
15870.0 0.0014486
15890.0 0.0014424
15910.0 0.0014364
15930.0 0.0014303
15950.0 0.0014241
15970.0 0.0014181
15990.0 0.0014121
16010.0 0.0014061
16030.0 0.0014
16050.0 0.0013942
16070.0 0.0013883
16090.0 0.0013823
16110.0 0.0013765
16130.0 0.0013708
16150.0 0.0013648
16170.0 0.001359
16190.0 0.0013533
16210.0 0.0013476
16230.0 0.0013417
16250.0 0.0013361
16270.0 0.0013305
16290.0 0.0013248
16310.0 0.0013191
16330.0 0.0013136
16350.0 0.001308
16370.0 0.0013022
16390.0 0.0012967
16410.0 0.0012912
16430.0 0.0012857
16450.0 0.0012801
16470.0 0.0012748
16490.0 0.0012693
16510.0 0.0012637
16530.0 0.0012583
16550.0 0.001253
16570.0 0.0012474
16590.0 0.001242
16610.0 0.0012368
16630.0 0.0012314
16650.0 0.001226
16670.0 0.0012207
16690.0 0.0012155
16710.0 0.00121
16730.0 0.0012047
16750.0 0.0011995
16770.0 0.0011942
16790.0 0.0011888
16810.0 0.0011837
16830.0 0.0011785
16850.0 0.0011732
16870.0 0.001168
16890.0 0.0011629
16910.0 0.0011577
16930.0 0.0011523
16950.0 0.0011473
16970.0 0.0011421
16990.0 0.0011369
17010.0 0.0011318
17030.0 0.0011268
17050.0 0.0011216
17070.0 0.0011164
17090.0 0.0011114
17110.0 0.0011063
17130.0 0.001101
17150.0 0.001096
17170.0 0.001091
17190.0 0.0010859
17210.0 0.0010808
17230.0 0.0010758
17250.0 0.0010708
17270.0 0.0010656
17290.0 0.0010606
17310.0 0.0010556
17330.0 0.0010505
17350.0 0.0010454
17370.0 0.0010405
17390.0 0.0010355
17410.0 0.0010304
17430.0 0.0010255
17450.0 0.0010206
17470.0 0.0010155
17490.0 0.0010104
17510.0 0.0010056
17530.0 0.0010006
17550.0 0.00099552
17570.0 0.00099062
17590.0 0.00098576
17610.0 0.00098072
17630.0 0.00097575
17650.0 0.00097091
17670.0 0.00096596
17690.0 0.00096084
17710.0 0.00095601
17730.0 0.00095116
17750.0 0.00094617
17770.0 0.00094125
17790.0 0.00093649
17810.0 0.00093153
17830.0 0.00092654
17850.0 0.00092171
17870.0 0.00091688
17890.0 0.00091189
17910.0 0.00090697
17930.0 0.00090224
17950.0 0.00089736
17970.0 0.00089244
17990.0 0.00088767
18010.0 0.0008829
18030.0 0.0008779
18050.0 0.00087307
18070.0 0.00086833
18090.0 0.00086347
18110.0 0.00085856
18130.0 0.00085386
18150.0 0.00084911
18170.0 0.00084423
18190.0 0.00083946
18210.0 0.00083478
18230.0 0.00082992
18250.0 0.00082504
18270.0 0.00082038
18290.0 0.00081566
18310.0 0.00081082
18330.0 0.00080611
18350.0 0.0008015
18370.0 0.0007967
18390.0 0.00079193
18410.0 0.0007873
18430.0 0.00078262
18450.0 0.00077777
18470.0 0.00077312
18490.0 0.00076855
18510.0 0.00076383
18530.0 0.00075913
18550.0 0.0007546
18570.0 0.00074995
18590.0 0.00074519
18610.0 0.0007406
18630.0 0.00073605
18650.0 0.00073137
18670.0 0.00072669
18690.0 0.00072224
18710.0 0.00071767
18730.0 0.00071302
18750.0 0.00070851
18770.0 0.00070406
18790.0 0.00069936
18810.0 0.00069479
18830.0 0.00069036
18850.0 0.00068584
18870.0 0.00068125
18890.0 0.00067683
18910.0 0.00067243
18930.0 0.00066787
18950.0 0.00066339
18970.0 0.00065903
18990.0 0.00065457
19010.0 0.00064997
19030.0 0.00064565
19050.0 0.0006413
19070.0 0.00063683
19090.0 0.00063244
19110.0 0.0006282
19130.0 0.00062376
19150.0 0.00061932
19170.0 0.00061504
19190.0 0.00061075
19210.0 0.00060632
19230.0 0.00060198
19250.0 0.00059781
19270.0 0.00059349
19290.0 0.00058916
19310.0 0.00058498
19330.0 0.00058078
19350.0 0.00057638
19370.0 0.00057216
19390.0 0.00056802
19410.0 0.00056377
19430.0 0.00055949
19450.0 0.00055541
19470.0 0.00055128
19490.0 0.00054703
19510.0 0.0005429
19530.0 0.00053885
19550.0 0.00053464
19570.0 0.00053042
19590.0 0.00052642
19610.0 0.00052235
19630.0 0.00051819
19650.0 0.00051415
19670.0 0.0005102
19690.0 0.00050607
19710.0 0.00050199
19730.0 0.00049804
19750.0 0.00049404
19770.0 0.0004899
19790.0 0.00048595
19810.0 0.00048205
19830.0 0.00047802
19850.0 0.00047398
19870.0 0.00047004
19890.0 0.00046585
19910.0 0.00046131
19930.0 0.00045656
19950.0 0.00045127
19970.0 0.00044499
19990.0 0.00043773
20010.0 0.00042982
20030.0 0.00042065
20050.0 0.00041044
20070.0 0.00039997
20090.0 0.00038933
20110.0 0.00037808
20130.0 0.0003675
20150.0 0.00035777
20170.0 0.00034843
20190.0 0.00033972
20210.0 0.00033215
20230.0 0.00032534
20250.0 0.00031909
20270.0 0.00031381
20290.0 0.00030943
20310.0 0.00030569
20330.0 0.00030266
20350.0 0.00030055
20370.0 0.00029912
20390.0 0.00029837
20410.0 0.00029836
20430.0 0.00029901
20450.0 0.00030043
20470.0 0.00030259
20490.0 0.00030537
20510.0 0.00030884
20530.0 0.00031314
20550.0 0.00031799
20570.0 0.00032321
20590.0 0.00032915
20610.0 0.00033555
20630.0 0.00034204
20650.0 0.00034879
20670.0 0.000356
20690.0 0.00036284
20710.0 0.00036943
20730.0 0.00037599
20750.0 0.00038223
20770.0 0.00038781
20790.0 0.0003931
20810.0 0.00039811
20830.0 0.00040259
20850.0 0.00040665
20870.0 0.00041062
20890.0 0.00041437
20910.0 0.00041778
20930.0 0.00042121
20950.0 0.00042468
20970.0 0.00042803
20990.0 0.00043129
21010.0 0.00043468
21030.0 0.0004379
21050.0 0.00044083
21070.0 0.00044357
21090.0 0.00044605
21110.0 0.000448
21130.0 0.00044948
21150.0 0.0004505
21170.0 0.00045097
21190.0 0.00045091
21210.0 0.00045034
21230.0 0.00044922
21250.0 0.00044767
21270.0 0.00044573
21290.0 0.00044335
21310.0 0.00044067
21330.0 0.00043786
21350.0 0.00043476
21370.0 0.00043147
21390.0 0.00042819
21410.0 0.0004249
21430.0 0.00042142
21450.0 0.00041811
21470.0 0.00041498
21490.0 0.0004119
21510.0 0.00040896
21530.0 0.00040634
21550.0 0.00040392
21570.0 0.0004017
21590.0 0.00039982
21610.0 0.00039831
21630.0 0.00039711
21650.0 0.00039629
21670.0 0.00039592
21690.0 0.00039595
21710.0 0.00039644
21730.0 0.00039738
21750.0 0.00039873
21770.0 0.00040064
21790.0 0.00040305
21810.0 0.00040582
21830.0 0.00040906
21850.0 0.00041288
21870.0 0.00041702
21890.0 0.00042139
21910.0 0.0004263
21930.0 0.00043153
21950.0 0.00043684
21970.0 0.00044243
21990.0 0.00044847
22010.0 0.00045434
22030.0 0.00046016
22050.0 0.00046615
22070.0 0.00047205
22090.0 0.00047752
22110.0 0.00048291
22130.0 0.00048811
22150.0 0.00049278
22170.0 0.00049694
22190.0 0.00050075
22210.0 0.00050392
22230.0 0.00050628
22250.0 0.00050801
22270.0 0.00050899
22290.0 0.00050913
22310.0 0.00050848
22330.0 0.0005069
22350.0 0.00050445
22370.0 0.00050122
22390.0 0.00049708
22410.0 0.00049191
22430.0 0.0004862
22450.0 0.00047982
22470.0 0.0004725
22490.0 0.00046464
22510.0 0.00045654
22530.0 0.00044763
22550.0 0.00043815
22570.0 0.00042877
22590.0 0.0004192
22610.0 0.00040916
22630.0 0.00039919
22650.0 0.00038967
22670.0 0.00037987
22690.0 0.00037013
22710.0 0.00036094
22730.0 0.00035203
22750.0 0.00034294
22770.0 0.00033459
22790.0 0.00032687
22810.0 0.00031936
22830.0 0.00031228
22850.0 0.00030601
22870.0 0.00030021
22890.0 0.00029479
22910.0 0.00029015
22930.0 0.00028623
22950.0 0.00028286
22970.0 0.00028016
22990.0 0.00027834
23010.0 0.00027718
23030.0 0.00027673
23050.0 0.00027704
23070.0 0.000278
23090.0 0.00027973
23110.0 0.00028214
23130.0 0.00028506
23150.0 0.00028855
23170.0 0.00029264
23190.0 0.00029701
23210.0 0.00030154
23230.0 0.00030647
23250.0 0.00031149
23270.0 0.00031635
23290.0 0.00032122
23310.0 0.00032613
23330.0 0.00033052
23350.0 0.00033455
23370.0 0.0003383
23390.0 0.00034156
23410.0 0.0003442
23430.0 0.00034639
23450.0 0.00034805
23470.0 0.00034909
23490.0 0.00034957
23510.0 0.00034948
23530.0 0.00034882
