#lamb flux
1010.0 1.0679e-05
1030.0 1.113e-05
1050.0 1.1653e-05
1070.0 1.2244e-05
1090.0 1.2916e-05
1110.0 1.3609e-05
1130.0 1.431e-05
1150.0 1.5048e-05
1170.0 1.5813e-05
1190.0 1.6546e-05
1210.0 1.7293e-05
1230.0 1.8071e-05
1250.0 1.8841e-05
1270.0 1.9596e-05
1290.0 2.0399e-05
1310.0 2.121e-05
1330.0 2.1998e-05
1350.0 2.2802e-05
1370.0 2.364e-05
1390.0 2.4469e-05
1410.0 2.5284e-05
1430.0 2.6143e-05
1450.0 2.7012e-05
1470.0 2.7866e-05
1490.0 2.8736e-05
1510.0 2.966e-05
1530.0 3.055e-05
1550.0 3.1438e-05
1570.0 3.2359e-05
1590.0 3.3287e-05
1610.0 3.4184e-05
1630.0 3.5108e-05
1650.0 3.6054e-05
1670.0 3.6974e-05
1690.0 3.7881e-05
1710.0 3.8814e-05
1730.0 3.9745e-05
1750.0 4.0618e-05
1770.0 4.1502e-05
1790.0 4.239e-05
1810.0 4.3235e-05
1830.0 4.4048e-05
1850.0 4.4889e-05
1870.0 4.5687e-05
1890.0 4.6435e-05
1910.0 4.7173e-05
1930.0 4.7906e-05
1950.0 4.8575e-05
1970.0 4.9209e-05
1990.0 4.9848e-05
2010.0 5.0448e-05
2030.0 5.0998e-05
2050.0 5.1551e-05
2070.0 5.2105e-05
2090.0 5.2599e-05
2110.0 5.308e-05
2130.0 5.3577e-05
2150.0 5.4058e-05
2170.0 5.451e-05
2190.0 5.4997e-05
2210.0 5.5504e-05
2230.0 5.6002e-05
2250.0 5.6523e-05
2270.0 5.711e-05
2290.0 5.7714e-05
2310.0 5.8335e-05
2330.0 5.9031e-05
2350.0 5.9794e-05
2370.0 6.0593e-05
2390.0 6.1472e-05
2410.0 6.2466e-05
2430.0 6.3521e-05
2450.0 6.4647e-05
2470.0 6.5879e-05
2490.0 6.7205e-05
2510.0 6.8596e-05
2530.0 7.0189e-05
2550.0 7.2209e-05
2570.0 7.4959e-05
2590.0 7.8856e-05
2610.0 8.4864e-05
2630.0 9.3509e-05
2650.0 0.00010472
2670.0 0.00011887
2690.0 0.0001359
2710.0 0.00015412
2730.0 0.00017262
2750.0 0.00019172
2770.0 0.00021013
2790.0 0.00022739
2810.0 0.00024437
2830.0 0.00026179
2850.0 0.00027885
2870.0 0.00029638
2890.0 0.0003151
2910.0 0.00033471
2930.0 0.00035471
2950.0 0.00037607
2970.0 0.00039867
2990.0 0.0004217
3010.0 0.00077228
3030.0 0.00081537
3050.0 0.00085867
3070.0 0.00089896
3090.0 0.0009347
3110.0 0.0009583
3130.0 0.00096047
3150.0 0.00093084
3170.0 0.00084855
3190.0 0.00071031
3210.0 0.00051729
3230.0 0.00029786
3250.0 0.00052219
3270.0 0.00022571
3290.0 0.00075604
3310.0 0.00015046
3330.0 0.0001535
3350.0 0.00023535
3370.0 0.00032856
3390.0 0.00042741
3410.0 0.00052584
3430.0 0.00062867
3450.0 0.00073115
3470.0 0.00082508
3490.0 0.00088663
3510.0 0.0011037
3530.0 0.0015117
3550.0 0.0015154
3570.0 0.0012868
3590.0 0.001844
3610.0 0.0011886
3630.0 0.0019163
3650.0 0.0021753
3670.0 0.0027963
3690.0 0.0026738
3710.0 0.0019081
3730.0 0.0025489
3750.0 0.0026504
3770.0 0.0027305
3790.0 0.0024702
3810.0 0.002171
3830.0 0.0030017
3850.0 0.0032291
3870.0 0.0040103
3890.0 0.0037849
3910.0 0.0034363
3930.0 0.0037196
3950.0 0.0041864
3970.0 0.0054597
3990.0 0.0043966
4010.0 0.0029051
4030.0 0.0039126
4050.0 0.0042795
4070.0 0.0048629
4090.0 0.0042678
4110.0 0.0029186
4130.0 0.0038477
4150.0 0.0035369
4170.0 0.003748
4190.0 0.0037297
4210.0 0.0046322
4230.0 0.0032398
4250.0 0.0038713
4270.0 0.003867
4290.0 0.0039097
4310.0 0.0047622
4330.0 0.0048837
4350.0 0.0037872
4370.0 0.0032795
4390.0 0.003979
4410.0 0.0040533
4430.0 0.0031322
4450.0 0.0031514
4470.0 0.003652
4490.0 0.0027254
4510.0 0.0033174
4530.0 0.0035824
4550.0 0.0047896
4570.0 0.0070134
4590.0 0.0068112
4610.0 0.0045576
4630.0 0.0072458
4650.0 0.010368
4670.0 0.009591
4690.0 0.0056991
4710.0 0.0061578
4730.0 0.0079558
4750.0 0.0071115
4770.0 0.0053858
4790.0 0.0037242
4810.0 0.0053753
4830.0 0.0062002
4850.0 0.0055418
4870.0 0.0020095
4890.0 0.0059489
4910.0 0.008248
4930.0 0.0088449
4950.0 0.0087244
4970.0 0.0055085
4990.0 0.0063196
5010.0 0.0073435
5030.0 0.0079784
5050.0 0.0078637
5070.0 0.0056891
5090.0 0.0046698
5110.0 0.0043678
5130.0 0.0038958
5150.0 0.0044529
5170.0 0.0038819
5190.0 0.0048073
5210.0 0.0048002
5230.0 0.0052489
5250.0 0.0066514
5270.0 0.0056469
5290.0 0.0055421
5310.0 0.0080818
5330.0 0.0093536
5350.0 0.0079102
5370.0 0.006907
5390.0 0.0078143
5410.0 0.009759
5430.0 0.010734
5450.0 0.011502
5470.0 0.011588
5490.0 0.011361
5510.0 0.01325
5530.0 0.013728
5550.0 0.014671
5570.0 0.015536
5590.0 0.01539
5610.0 0.01458
5630.0 0.014068
5650.0 0.014322
5670.0 0.014166
5690.0 0.012111
5710.0 0.011606
5730.0 0.011721
5750.0 0.012758
5770.0 0.011082
5790.0 0.010156
5810.0 0.010292
5830.0 0.010799
5850.0 0.0098774
5870.0 0.0099274
5890.0 0.011766
5910.0 0.01122
5930.0 0.0092285
5950.0 0.0080243
5970.0 0.0085637
5990.0 0.0078954
6010.0 0.0074421
6030.0 0.0076181
6050.0 0.0071468
6070.0 0.0054093
6090.0 0.0048656
6110.0 0.0062604
6130.0 0.007212
6150.0 0.00759
6170.0 0.0074044
6190.0 0.0069748
6210.0 0.0068346
6230.0 0.0078978
6250.0 0.0073004
6270.0 0.0066766
6290.0 0.0061348
6310.0 0.005803
6330.0 0.0055218
6350.0 0.0048402
6370.0 0.0048091
6390.0 0.0056992
6410.0 0.0070783
6430.0 0.0081282
6450.0 0.0076652
6470.0 0.0075213
6490.0 0.0093648
6510.0 0.010714
6530.0 0.01015
6550.0 0.0097703
6570.0 0.0099208
6590.0 0.0096117
6610.0 0.010441
6630.0 0.0098312
6650.0 0.008713
6670.0 0.0078537
6690.0 0.0076051
6710.0 0.009287
6730.0 0.0085406
6750.0 0.0073532
6770.0 0.0066315
6790.0 0.0069499
6810.0 0.0076864
6830.0 0.0075027
6850.0 0.0068292
6870.0 0.007053
6890.0 0.0069249
6910.0 0.0065378
6930.0 0.0074898
6950.0 0.0069494
6970.0 0.0065181
6990.0 0.006511
7010.0 0.0062322
7030.0 0.0058695
7050.0 0.0056615
7070.0 0.0061164
7090.0 0.0057956
7110.0 0.0050292
7130.0 0.0040731
7150.0 0.0036975
7170.0 0.004896
7190.0 0.0053353
7210.0 0.0051609
7230.0 0.0053711
7250.0 0.0050067
7270.0 0.0047695
7290.0 0.0052714
7310.0 0.0058722
7330.0 0.0057632
7350.0 0.0054106
7370.0 0.0051732
7390.0 0.0054197
7410.0 0.0063169
7430.0 0.0069083
7450.0 0.0073565
7470.0 0.0072337
7490.0 0.0074279
7510.0 0.0071314
7530.0 0.0071393
7550.0 0.0070499
7570.0 0.0062168
7590.0 0.0061608
7610.0 0.0059907
7630.0 0.0055854
7650.0 0.0061344
7670.0 0.0067015
7690.0 0.0072816
7710.0 0.0081223
7730.0 0.0086606
7750.0 0.0090578
7770.0 0.009066
7790.0 0.0098986
7810.0 0.010225
7830.0 0.0094676
7850.0 0.0095421
7870.0 0.0090958
7890.0 0.0095024
7910.0 0.0090172
7930.0 0.0090891
7950.0 0.0080789
7970.0 0.0082922
7990.0 0.0079597
8010.0 0.0079637
8030.0 0.007938
8050.0 0.0083266
8070.0 0.0080397
8090.0 0.0080673
8110.0 0.0078705
8130.0 0.0078732
8150.0 0.0075455
8170.0 0.0073439
8190.0 0.0072597
8210.0 0.0073202
8230.0 0.006526
8250.0 0.0059822
8270.0 0.0052532
8290.0 0.0043702
8310.0 0.0037314
8330.0 0.0029788
8350.0 0.0025103
8370.0 0.0025919
8390.0 0.0026585
8410.0 0.0028247
8430.0 0.0034429
8450.0 0.0036851
8470.0 0.0038962
8490.0 0.0044647
8510.0 0.0048722
8530.0 0.005618
8550.0 0.0066463
8570.0 0.0074154
8590.0 0.0079646
8610.0 0.0086968
8630.0 0.0095607
8650.0 0.0097227
8670.0 0.009831
8690.0 0.010217
8710.0 0.010121
8730.0 0.010032
8750.0 0.0095065
8770.0 0.0095196
8790.0 0.0093954
8810.0 0.0086805
8830.0 0.0086702
8850.0 0.0081483
8870.0 0.007835
8890.0 0.0071836
8910.0 0.0076895
8930.0 0.00705
8950.0 0.0069316
8970.0 0.0069502
8990.0 0.0067271
9010.0 0.006837
9030.0 0.0065646
9050.0 0.0065285
9070.0 0.0065203
9090.0 0.006511
9110.0 0.0065038
9130.0 0.0064923
9150.0 0.0064786
9170.0 0.0064497
9190.0 0.0063966
9210.0 0.006469
9230.0 0.0064345
9250.0 0.0064097
9270.0 0.0063863
9290.0 0.0063637
9310.0 0.0063417
9330.0 0.0063198
9350.0 0.0062974
9370.0 0.0062746
9390.0 0.0062513
9410.0 0.0062274
9430.0 0.0062028
9450.0 0.0061775
9470.0 0.0061517
9490.0 0.0061261
9510.0 0.0060998
9530.0 0.0060733
9550.0 0.0060461
9570.0 0.0060186
9590.0 0.005991
9610.0 0.005963
9630.0 0.0059348
9650.0 0.0059064
9670.0 0.0058779
9690.0 0.0058492
9710.0 0.0058205
9730.0 0.0057918
9750.0 0.0057629
9770.0 0.0057341
9790.0 0.0057054
9810.0 0.0056767
9830.0 0.005648
9850.0 0.0056195
9870.0 0.0055911
9890.0 0.0055629
9910.0 0.0055348
9930.0 0.0055067
9950.0 0.0054624
9970.0 0.0054399
9990.0 0.0054167
10010.0 0.0053933
10030.0 0.0053687
10050.0 0.0053423
10070.0 0.0053108
10090.0 0.005288
10110.0 0.0052643
10130.0 0.0052407
10150.0 0.0052173
10170.0 0.0051934
10190.0 0.005169
10210.0 0.0051457
10230.0 0.0051231
10250.0 0.0051
10270.0 0.0050775
10290.0 0.0050561
10310.0 0.0050344
10330.0 0.0050125
10350.0 0.004992
10370.0 0.004972
10390.0 0.0049517
10410.0 0.004932
10430.0 0.0049136
10450.0 0.0048948
10470.0 0.0048762
10490.0 0.0048587
10510.0 0.0048416
10530.0 0.0048239
10550.0 0.0048072
10570.0 0.0047915
10590.0 0.0047757
10610.0 0.00476
10630.0 0.0047455
10650.0 0.0047313
10670.0 0.0047167
10690.0 0.0047029
10710.0 0.00469
10730.0 0.0046769
10750.0 0.0046636
10770.0 0.0046519
10790.0 0.0046403
10810.0 0.0046285
10830.0 0.0046172
10850.0 0.0046066
10870.0 0.0045947
10890.0 0.0045817
10910.0 0.0045674
10930.0 0.0045493
10950.0 0.0045242
10970.0 0.0044917
10990.0 0.0044512
11010.0 0.0043709
11030.0 0.0043093
11050.0 0.0042382
11070.0 0.0041567
11090.0 0.0040625
11110.0 0.0039685
11130.0 0.0038742
11150.0 0.0037765
11170.0 0.0036801
11190.0 0.0035906
11210.0 0.003502
11230.0 0.0034147
11250.0 0.0033346
11270.0 0.0032602
11290.0 0.0031873
11310.0 0.0031196
11330.0 0.0030607
11350.0 0.0030048
11370.0 0.0029519
11390.0 0.0029048
11410.0 0.0028616
11430.0 0.0028181
11450.0 0.0027775
11470.0 0.0027393
11490.0 0.0027002
11510.0 0.0026592
11530.0 0.0026192
11550.0 0.002578
11570.0 0.0025328
11590.0 0.0024857
11610.0 0.0024383
11630.0 0.0023865
11650.0 0.0023309
11670.0 0.0022764
11690.0 0.0022207
11710.0 0.002162
11730.0 0.002104
11750.0 0.002049
11770.0 0.0019927
11790.0 0.0019373
11810.0 0.001886
11830.0 0.0018373
11850.0 0.0017883
11870.0 0.0017441
11890.0 0.0017043
11910.0 0.0016658
11930.0 0.0016294
11950.0 0.0015971
11970.0 0.0015665
11990.0 0.0015361
12010.0 0.0015084
12030.0 0.0014829
12050.0 0.0014576
12070.0 0.0014327
12090.0 0.001411
12110.0 0.0013899
12130.0 0.0013693
12150.0 0.0013508
12170.0 0.0013348
12190.0 0.0013196
12210.0 0.0013072
12230.0 0.0012986
12250.0 0.0012931
12270.0 0.0012913
12290.0 0.001294
12310.0 0.0013013
12330.0 0.0013133
12350.0 0.0013303
12370.0 0.0013514
12390.0 0.0013768
12410.0 0.0014073
12430.0 0.0014399
12450.0 0.0014745
12470.0 0.0015116
12490.0 0.0015494
12510.0 0.0015861
12530.0 0.0016228
12550.0 0.0016588
12570.0 0.0016921
12590.0 0.0017228
12610.0 0.0017518
12630.0 0.0017777
12650.0 0.0017999
12670.0 0.0018197
12690.0 0.0018367
12710.0 0.0018507
12730.0 0.0018621
12750.0 0.001871
12770.0 0.0018774
12790.0 0.0018815
12810.0 0.0018834
12830.0 0.0018828
12850.0 0.0018805
12870.0 0.0018764
12890.0 0.0018697
12910.0 0.0018612
12930.0 0.0018514
12950.0 0.001839
12970.0 0.001824
12990.0 0.0018083
13010.0 0.0017908
13030.0 0.0017707
13050.0 0.0017493
13070.0 0.0017276
13090.0 0.0017036
13110.0 0.0016783
13130.0 0.0016535
13150.0 0.0016287
13170.0 0.0016026
13190.0 0.0015787
13210.0 0.0015571
13230.0 0.0015368
13250.0 0.0015188
13270.0 0.0015047
13290.0 0.0014934
13310.0 0.001485
13330.0 0.0014803
13350.0 0.0014788
13370.0 0.0014798
13390.0 0.0014828
13410.0 0.0014873
13430.0 0.0014922
13450.0 0.0014968
13470.0 0.0015003
13490.0 0.0015022
13510.0 0.0015015
13530.0 0.0014979
13550.0 0.0014916
13570.0 0.0014823
13590.0 0.0014697
13610.0 0.0014551
13630.0 0.001439
13650.0 0.0014206
13670.0 0.0014013
13690.0 0.0013823
13710.0 0.0013631
13730.0 0.0013433
13750.0 0.0013254
13770.0 0.0013086
13790.0 0.0012922
13810.0 0.0012769
13830.0 0.0012632
13850.0 0.0012498
13870.0 0.0012368
13890.0 0.0012248
13910.0 0.0012132
13930.0 0.0012015
13950.0 0.00119
13970.0 0.0011793
13990.0 0.0011684
14010.0 0.0011577
14030.0 0.0011477
14050.0 0.0011381
14070.0 0.0011287
14090.0 0.0011203
14110.0 0.0011128
14130.0 0.0011061
14150.0 0.0011002
14170.0 0.0010954
14190.0 0.0010916
14210.0 0.0010888
14230.0 0.0010869
14250.0 0.001086
14270.0 0.0010861
14290.0 0.0010873
14310.0 0.0010892
14330.0 0.0010919
14350.0 0.0010955
14370.0 0.0010996
14390.0 0.0011039
14410.0 0.0011088
14430.0 0.0011138
14450.0 0.0011184
14470.0 0.0011229
14490.0 0.0011273
14510.0 0.0011309
14530.0 0.0011339
14550.0 0.0011365
14570.0 0.0011389
14590.0 0.0011407
14610.0 0.0011425
14630.0 0.0011448
14650.0 0.0011474
14670.0 0.0011506
14690.0 0.001155
14710.0 0.0011609
14730.0 0.0011677
14750.0 0.0011762
14770.0 0.001187
14790.0 0.0011991
14810.0 0.0012126
14830.0 0.001229
14850.0 0.0012466
14870.0 0.0012646
14890.0 0.0012836
14910.0 0.0013034
14930.0 0.0013216
14950.0 0.0013376
14970.0 0.0013519
14990.0 0.0013626
15010.0 0.0013691
15030.0 0.0013721
15050.0 0.0013718
15070.0 0.0013683
15090.0 0.0013628
15110.0 0.001356
15130.0 0.0013483
15150.0 0.0013401
15170.0 0.0013317
15190.0 0.0013232
15210.0 0.0013146
15230.0 0.0013061
15250.0 0.0012975
15270.0 0.0012889
15290.0 0.0012804
15310.0 0.0012718
15330.0 0.0012633
15350.0 0.0012548
15370.0 0.0012463
15390.0 0.0012377
15410.0 0.0012293
15430.0 0.0012209
15450.0 0.0012124
15470.0 0.001204
15490.0 0.0011956
15510.0 0.0011873
15530.0 0.001179
15550.0 0.0011707
15570.0 0.0011625
15590.0 0.0011542
15610.0 0.001146
15630.0 0.0011379
15650.0 0.0011298
15670.0 0.0011217
15690.0 0.0011136
15710.0 0.0011057
15730.0 0.0010977
15750.0 0.0010898
15770.0 0.0010819
15790.0 0.0010741
15810.0 0.0010663
15830.0 0.0010586
15850.0 0.001051
15870.0 0.0010433
15890.0 0.0010357
15910.0 0.0010282
15930.0 0.0010208
15950.0 0.0010133
15970.0 0.0010059
15990.0 0.00099865
16010.0 0.00099136
16030.0 0.0009841
16050.0 0.000977
16070.0 0.0009699
16090.0 0.00096282
16110.0 0.00095585
16130.0 0.00094896
16150.0 0.00094202
16170.0 0.00093517
16190.0 0.00092844
16210.0 0.00092173
16230.0 0.00091503
16250.0 0.00090845
16270.0 0.00090196
16290.0 0.00089544
16310.0 0.000889
16330.0 0.00088267
16350.0 0.00087636
16370.0 0.00087004
16390.0 0.00086387
16410.0 0.00085776
16430.0 0.00085166
16450.0 0.00084562
16470.0 0.00083971
16490.0 0.00083379
16510.0 0.0008279
16530.0 0.00082213
16550.0 0.00081641
16570.0 0.00081069
16590.0 0.00080504
16610.0 0.00079952
16630.0 0.00079401
16650.0 0.00078853
16670.0 0.00078315
16690.0 0.00077784
16710.0 0.00077249
16730.0 0.00076725
16750.0 0.0007621
16770.0 0.00075696
16790.0 0.00075185
16810.0 0.00074687
16830.0 0.00074193
16850.0 0.00073698
16870.0 0.00073212
16890.0 0.00072736
16910.0 0.00072257
16930.0 0.00071782
16950.0 0.0007132
16970.0 0.00070861
16990.0 0.00070403
17010.0 0.00069954
17030.0 0.00069513
17050.0 0.0006907
17070.0 0.00068632
17090.0 0.00068205
17110.0 0.0006778
17130.0 0.00067353
17150.0 0.00066938
17170.0 0.0006653
17190.0 0.00066121
17210.0 0.00065717
17230.0 0.00065324
17250.0 0.00064931
17270.0 0.00064537
17290.0 0.00064154
17310.0 0.00063776
17330.0 0.00063398
17350.0 0.00063024
17370.0 0.00062661
17390.0 0.00062299
17410.0 0.00061938
17430.0 0.00061585
17450.0 0.00061238
17470.0 0.00060886
17490.0 0.00060542
17510.0 0.00060207
17530.0 0.00059872
17550.0 0.00059538
17570.0 0.00059214
17590.0 0.00058894
17610.0 0.00058572
17630.0 0.00058255
17650.0 0.00057946
17670.0 0.00057638
17690.0 0.00057327
17710.0 0.00057029
17730.0 0.00056733
17750.0 0.00056437
17770.0 0.00056146
17790.0 0.00055863
17810.0 0.00055577
17830.0 0.00055293
17850.0 0.00055018
17870.0 0.00054745
17890.0 0.0005447
17910.0 0.00054201
17930.0 0.0005394
17950.0 0.00053678
17970.0 0.00053417
17990.0 0.00053164
18010.0 0.00052914
18030.0 0.00052659
18050.0 0.00052412
18070.0 0.0005217
18090.0 0.00051928
18110.0 0.00051686
18130.0 0.00051454
18150.0 0.00051223
18170.0 0.0005099
18190.0 0.00050762
18210.0 0.0005054
18230.0 0.00050315
18250.0 0.00050092
18270.0 0.00049877
18290.0 0.00049663
18310.0 0.00049448
18330.0 0.00049238
18350.0 0.00049034
18370.0 0.00048826
18390.0 0.00048621
18410.0 0.00048423
18430.0 0.00048225
18450.0 0.00048024
18470.0 0.00047831
18490.0 0.00047642
18510.0 0.0004745
18530.0 0.00047261
18550.0 0.00047079
18570.0 0.00046895
18590.0 0.00046709
18610.0 0.00046531
18630.0 0.00046355
18650.0 0.00046177
18670.0 0.00046
18690.0 0.00045832
18710.0 0.00045662
18730.0 0.00045491
18750.0 0.00045326
18770.0 0.00045164
18790.0 0.00044997
18810.0 0.00044834
18830.0 0.00044677
18850.0 0.00044519
18870.0 0.00044359
18890.0 0.00044207
18910.0 0.00044056
18930.0 0.00043902
18950.0 0.00043751
18970.0 0.00043605
18990.0 0.00043457
19010.0 0.00043306
19030.0 0.00043165
19050.0 0.00043024
19070.0 0.0004288
19090.0 0.0004274
19110.0 0.00042606
19130.0 0.00042466
19150.0 0.00042328
19170.0 0.00042195
19190.0 0.00042062
19210.0 0.00041927
19230.0 0.00041795
19250.0 0.00041669
19270.0 0.00041539
19290.0 0.0004141
19310.0 0.00041287
19330.0 0.00041163
19350.0 0.00041034
19370.0 0.00040911
19390.0 0.00040792
19410.0 0.0004067
19430.0 0.00040547
19450.0 0.00040432
19470.0 0.00040315
19490.0 0.00040196
19510.0 0.0004008
19530.0 0.00039968
19550.0 0.00039852
19570.0 0.00039735
19590.0 0.00039626
19610.0 0.00039515
19630.0 0.00039402
19650.0 0.00039294
19670.0 0.00039188
19690.0 0.00039077
19710.0 0.00038969
19730.0 0.00038864
19750.0 0.00038759
19770.0 0.0003865
19790.0 0.00038546
19810.0 0.00038445
19830.0 0.0003834
19850.0 0.00038234
19870.0 0.0003813
19890.0 0.00038016
19910.0 0.00037886
19930.0 0.00037741
19950.0 0.00037566
19970.0 0.00037338
19990.0 0.00037052
20010.0 0.00036717
20030.0 0.00036303
20050.0 0.00035812
20070.0 0.00035279
20090.0 0.00034706
20110.0 0.0003406
20130.0 0.00033411
20150.0 0.00032774
20170.0 0.00032118
20190.0 0.00031458
20210.0 0.00030839
20230.0 0.00030238
20250.0 0.00029639
20270.0 0.00029085
20290.0 0.00028584
20310.0 0.00028111
20330.0 0.00027674
20350.0 0.00027319
20370.0 0.00027014
20390.0 0.00026759
20410.0 0.00026572
20430.0 0.00026449
20450.0 0.00026383
20470.0 0.00026381
20490.0 0.00026439
20510.0 0.00026553
20530.0 0.00026726
20550.0 0.00026945
20570.0 0.00027198
20590.0 0.00027497
20610.0 0.00027829
20630.0 0.00028171
20650.0 0.00028532
20670.0 0.00028919
20690.0 0.00029289
20710.0 0.00029646
20730.0 0.00029999
20750.0 0.00030332
20770.0 0.00030625
20790.0 0.00030893
20810.0 0.00031133
20830.0 0.0003133
20850.0 0.00031488
20870.0 0.00031612
20890.0 0.00031697
20910.0 0.00031743
20930.0 0.00031756
20950.0 0.00031737
20970.0 0.0003169
20990.0 0.00031619
21010.0 0.00031519
21030.0 0.00031399
21050.0 0.00031265
21070.0 0.00031111
21090.0 0.00030937
21110.0 0.00030762
21130.0 0.0003058
21150.0 0.00030385
21170.0 0.00030189
21190.0 0.00030001
21210.0 0.00029809
21230.0 0.0002962
21250.0 0.0002945
21270.0 0.00029293
21290.0 0.00029147
21310.0 0.00029023
21330.0 0.00028925
21350.0 0.00028846
21370.0 0.00028791
21390.0 0.00028765
21410.0 0.00028765
21430.0 0.00028792
21450.0 0.00028847
21470.0 0.00028925
21490.0 0.00029029
21510.0 0.00029158
21530.0 0.00029302
21550.0 0.00029466
21570.0 0.00029653
21590.0 0.00029852
21610.0 0.00030059
21630.0 0.00030284
21650.0 0.00030526
21670.0 0.00030763
21690.0 0.0003101
21710.0 0.00031272
21730.0 0.00031535
21750.0 0.00031797
21770.0 0.00032079
21790.0 0.00032366
21810.0 0.00032649
21830.0 0.00032939
21850.0 0.00033245
21870.0 0.00033548
21890.0 0.00033846
21910.0 0.00034158
21930.0 0.00034473
21950.0 0.00034777
21970.0 0.00035084
21990.0 0.00035401
22010.0 0.00035697
22030.0 0.0003598
22050.0 0.00036258
22070.0 0.00036521
22090.0 0.00036753
22110.0 0.00036968
22130.0 0.0003716
22150.0 0.00037316
22170.0 0.00037437
22190.0 0.00037525
22210.0 0.0003757
22230.0 0.00037572
22250.0 0.00037531
22270.0 0.00037441
22290.0 0.00037309
22310.0 0.00037136
22330.0 0.00036905
22350.0 0.00036633
22370.0 0.00036327
22390.0 0.00035976
22410.0 0.00035573
22430.0 0.00035156
22450.0 0.00034714
22470.0 0.0003423
22490.0 0.0003373
22510.0 0.00033233
22530.0 0.00032703
22550.0 0.00032155
22570.0 0.0003163
22590.0 0.00031108
22610.0 0.00030574
22630.0 0.00030057
22650.0 0.00029576
22670.0 0.00029092
22690.0 0.00028623
22710.0 0.0002819
22730.0 0.00027779
22750.0 0.00027368
22770.0 0.00026997
22790.0 0.0002666
22810.0 0.00026334
22830.0 0.00026029
22850.0 0.00025758
22870.0 0.00025504
22890.0 0.00025262
22910.0 0.00025046
22930.0 0.00024853
22950.0 0.00024672
22970.0 0.00024507
22990.0 0.0002437
23010.0 0.00024246
23030.0 0.00024137
23050.0 0.00024048
23070.0 0.00023976
23090.0 0.00023917
23110.0 0.00023875
23130.0 0.00023848
23150.0 0.00023834
23170.0 0.00023832
23190.0 0.00023842
23210.0 0.0002386
23230.0 0.00023888
23250.0 0.00023922
23270.0 0.00023962
23290.0 0.00024007
23310.0 0.00024059
23330.0 0.00024112
