#lamb flux
1010.0 1.1128e-06
1030.0 1.1174e-06
1050.0 1.1225e-06
1070.0 1.1488e-06
1090.0 1.2212e-06
1110.0 1.2774e-06
1130.0 1.3175e-06
1150.0 1.3497e-06
1170.0 1.3732e-06
1190.0 1.38e-06
1210.0 1.3816e-06
1230.0 1.3811e-06
1250.0 1.3753e-06
1270.0 1.3647e-06
1290.0 1.3579e-06
1310.0 1.3506e-06
1330.0 1.341e-06
1350.0 1.3344e-06
1370.0 1.3328e-06
1390.0 1.3336e-06
1410.0 1.3377e-06
1430.0 1.3508e-06
1450.0 1.3711e-06
1470.0 1.3983e-06
1490.0 1.4361e-06
1510.0 1.4884e-06
1530.0 1.5508e-06
1550.0 1.6272e-06
1570.0 1.7221e-06
1590.0 1.8359e-06
1610.0 1.9683e-06
1630.0 2.1272e-06
1650.0 2.3146e-06
1670.0 2.5296e-06
1690.0 2.7768e-06
1710.0 3.0635e-06
1730.0 3.3916e-06
1750.0 3.7586e-06
1770.0 4.1757e-06
1790.0 4.6468e-06
1810.0 5.1691e-06
1830.0 5.7463e-06
1850.0 6.3908e-06
1870.0 7.093e-06
1890.0 7.8505e-06
1910.0 8.67e-06
1930.0 9.5511e-06
1950.0 1.0476e-05
1970.0 1.1443e-05
1990.0 1.2458e-05
2010.0 1.3499e-05
2030.0 1.455e-05
2050.0 1.5616e-05
2070.0 1.6687e-05
2090.0 1.7725e-05
2110.0 1.8733e-05
2130.0 1.9711e-05
2150.0 2.0632e-05
2170.0 2.1477e-05
2190.0 2.2265e-05
2210.0 2.2981e-05
2230.0 2.3603e-05
2250.0 2.414e-05
2270.0 2.461e-05
2290.0 2.4986e-05
2310.0 2.5268e-05
2330.0 2.5485e-05
2350.0 2.5636e-05
2370.0 2.5709e-05
2390.0 2.5734e-05
2410.0 2.5732e-05
2430.0 2.569e-05
2450.0 2.5622e-05
2470.0 2.5564e-05
2490.0 2.5528e-05
2510.0 2.5504e-05
2530.0 2.5566e-05
2550.0 2.5805e-05
2570.0 2.6292e-05
2590.0 2.7126e-05
2610.0 2.8595e-05
2630.0 3.0747e-05
2650.0 3.3464e-05
2670.0 3.683e-05
2690.0 4.0807e-05
2710.0 4.4938e-05
2730.0 4.9054e-05
2750.0 5.3376e-05
2770.0 5.7627e-05
2790.0 6.1698e-05
2810.0 6.5866e-05
2830.0 7.0367e-05
2850.0 7.4754e-05
2870.0 7.9265e-05
2890.0 8.4122e-05
2910.0 8.9162e-05
2930.0 9.4187e-05
2950.0 9.9587e-05
2970.0 0.00010531
2990.0 0.0001111
3010.0 0.00011708
3030.0 0.00012347
3050.0 0.00013007
3070.0 0.0001365
3090.0 0.00014306
3110.0 0.00014944
3130.0 0.00015514
3150.0 0.00016002
3170.0 0.00016391
3190.0 0.00016662
3210.0 0.00016857
3230.0 0.0001702
3250.0 0.0001721
3270.0 0.00017501
3290.0 0.00017929
3310.0 0.00018532
3330.0 0.00019291
3350.0 0.00020158
3370.0 0.00021117
3390.0 0.00022103
3410.0 0.00023106
3430.0 0.00025136
3450.0 0.00026637
3470.0 0.00027963
3490.0 0.00028391
3510.0 0.00028019
3530.0 0.00031749
3550.0 0.00037768
3570.0 0.00041524
3590.0 0.00044372
3610.0 0.00044746
3630.0 0.00042445
3650.0 0.00045617
3670.0 0.00054566
3690.0 0.00061315
3710.0 0.00064021
3730.0 0.00065537
3750.0 0.00068947
3770.0 0.00069104
3790.0 0.00066233
3810.0 0.00062338
3830.0 0.00058146
3850.0 0.00057983
3870.0 0.00061526
3890.0 0.00064999
3910.0 0.00067689
3930.0 0.00068502
3950.0 0.000731
3970.0 0.00078094
3990.0 0.00075235
4010.0 0.00067204
4030.0 0.00059686
4050.0 0.00057455
4070.0 0.00059813
4090.0 0.00060297
4110.0 0.00058604
4130.0 0.00057864
4150.0 0.00059398
4170.0 0.00065568
4190.0 0.00071004
4210.0 0.00068779
4230.0 0.00064201
4250.0 0.00061733
4270.0 0.00060331
4290.0 0.00061402
4310.0 0.00063241
4330.0 0.00060227
4350.0 0.0005298
4370.0 0.00046899
4390.0 0.00042726
4410.0 0.00039442
4430.0 0.00039457
4450.0 0.00042919
4470.0 0.00046409
4490.0 0.00050506
4510.0 0.00057136
4530.0 0.00069897
4550.0 0.00084365
4570.0 0.0009305
4590.0 0.00099504
4610.0 0.0010699
4630.0 0.0011062
4650.0 0.0010304
4670.0 0.00086445
4690.0 0.00073476
4710.0 0.00069022
4730.0 0.0006672
4750.0 0.00059787
4770.0 0.0005425
4790.0 0.0005634
4810.0 0.00061226
4830.0 0.00060963
4850.0 0.00056199
4870.0 0.00055047
4890.0 0.00057429
4910.0 0.00060081
4930.0 0.00060012
4950.0 0.0005835
4970.0 0.0005558
4990.0 0.00051086
5010.0 0.0004692
5030.0 0.00044554
5050.0 0.00043459
5070.0 0.00042722
5090.0 0.00042037
5110.0 0.00041976
5130.0 0.00042622
5150.0 0.00045016
5170.0 0.00049711
5190.0 0.00055413
5210.0 0.00061395
5230.0 0.00065049
5250.0 0.00066952
5270.0 0.00070391
5290.0 0.00073738
5310.0 0.00074543
5330.0 0.00071765
5350.0 0.00068536
5370.0 0.00068544
5390.0 0.00072244
5410.0 0.0007582
5430.0 0.0007706
5450.0 0.00076616
5470.0 0.00074388
5490.0 0.00071647
5510.0 0.00070259
5530.0 0.00070562
5550.0 0.00071616
5570.0 0.00072317
5590.0 0.00070173
5610.0 0.0006617
5630.0 0.00062242
5650.0 0.00059157
5670.0 0.00057269
5690.0 0.00054952
5710.0 0.0005318
5730.0 0.00053959
5750.0 0.00053843
5770.0 0.00052717
5790.0 0.00053182
5810.0 0.00054408
5830.0 0.00055557
5850.0 0.00055969
5870.0 0.0005481
5890.0 0.00052464
5910.0 0.00049782
5930.0 0.00045973
5950.0 0.00043246
5970.0 0.00043182
5990.0 0.00044539
6010.0 0.00045033
6030.0 0.00043441
6050.0 0.0004279
6070.0 0.0004444
6090.0 0.00046642
6110.0 0.00047462
6130.0 0.00045839
6150.0 0.00043168
6170.0 0.00041411
6190.0 0.00039673
6210.0 0.00037815
6230.0 0.00036401
6250.0 0.00035968
6270.0 0.00036898
6290.0 0.00038568
6310.0 0.00040715
6330.0 0.00043072
6350.0 0.00045028
6370.0 0.00045904
6390.0 0.00045996
6410.0 0.00046477
6430.0 0.00047047
6450.0 0.00047205
6470.0 0.00047811
6490.0 0.00048543
6510.0 0.00048744
6530.0 0.00048223
6550.0 0.00046858
6570.0 0.00045137
6590.0 0.00043821
6610.0 0.00042848
6630.0 0.00041993
6650.0 0.00040549
6670.0 0.00038836
6690.0 0.00037554
6710.0 0.0003676
6730.0 0.00036515
6750.0 0.00036067
6770.0 0.00035344
6790.0 0.00034795
6810.0 0.00034357
6830.0 0.00034267
6850.0 0.00034293
6870.0 0.00034028
6890.0 0.00033814
6910.0 0.00033106
6930.0 0.00032333
6950.0 0.00032154
6970.0 0.00031612
6990.0 0.00030626
7010.0 0.00030157
7030.0 0.00029778
7050.0 0.00029108
7070.0 0.00028314
7090.0 0.00027749
7110.0 0.0002804
7130.0 0.00029132
7150.0 0.00030378
7170.0 0.00031182
7190.0 0.00030948
7210.0 0.00030348
7230.0 0.00029954
7250.0 0.00029558
7270.0 0.00029301
7290.0 0.00028923
7310.0 0.00028738
7330.0 0.00029236
7350.0 0.00029809
7370.0 0.00030113
7390.0 0.00029818
7410.0 0.00029089
7430.0 0.00028736
7450.0 0.00028413
7470.0 0.0002703
7490.0 0.00026023
7510.0 0.00024928
7530.0 0.00024122
7550.0 0.00024014
7570.0 0.00024291
7590.0 0.00024142
7610.0 0.00023897
7630.0 0.0002379
7650.0 0.00023687
7670.0 0.00024132
7690.0 0.00025003
7710.0 0.00026036
7730.0 0.0002682
7750.0 0.00027585
7770.0 0.00027962
7790.0 0.00027884
7810.0 0.00027454
7830.0 0.00027739
7850.0 0.00027692
7870.0 0.00026787
7890.0 0.00025816
7910.0 0.0002499
7930.0 0.00024151
7950.0 0.00023564
7970.0 0.00023468
7990.0 0.00023754
8010.0 0.00023487
8030.0 0.00023209
8050.0 0.00022805
8070.0 0.00022362
8090.0 0.000219
8110.0 0.00021922
8130.0 0.00022084
8150.0 0.0002204
8170.0 0.00021872
8190.0 0.00021412
8210.0 0.00020322
8230.0 0.00018943
8250.0 0.00018093
8270.0 0.0001755
8290.0 0.00017207
8310.0 0.00017252
8330.0 0.00017521
8350.0 0.00017138
8370.0 0.00016734
8390.0 0.00017032
8410.0 0.00017803
8430.0 0.00018934
8450.0 0.00020031
8470.0 0.00020471
8490.0 0.00020814
8510.0 0.00020903
8530.0 0.00021011
8550.0 0.0002125
8570.0 0.00021354
8590.0 0.00021452
8610.0 0.00022037
8630.0 0.00022268
8650.0 0.00021795
8670.0 0.00021776
8690.0 0.00021936
8710.0 0.00021894
8730.0 0.00021701
8750.0 0.00021083
8770.0 0.00020804
8790.0 0.00020643
8810.0 0.00020389
8830.0 0.00019234
8850.0 0.00017694
8870.0 0.00016566
8890.0 0.00015926
8910.0 0.00014983
8930.0 0.00013945
8950.0 0.00013416
8970.0 0.00013342
8990.0 0.00013408
9010.0 0.00013341
9030.0 0.00013246
9050.0 0.0001316
9070.0 0.00013079
9090.0 0.00013
9110.0 0.00012921
9130.0 0.00012842
9150.0 0.00012764
9170.0 0.00012686
9190.0 0.00012608
9210.0 0.00012529
9230.0 0.00012452
9250.0 0.00012376
9270.0 0.00012299
9290.0 0.00012223
9310.0 0.00012147
9330.0 0.00012071
9350.0 0.00011996
9370.0 0.00011921
9390.0 0.00011847
9410.0 0.00011772
9430.0 0.00011698
9450.0 0.00011621
9470.0 0.00011546
9490.0 0.00011477
9510.0 0.00011405
9530.0 0.00011334
9550.0 0.00011263
9570.0 0.00011191
9590.0 0.00011121
9610.0 0.0001105
9630.0 0.0001098
9650.0 0.0001091
9670.0 0.00010841
9690.0 0.00010772
9710.0 0.00010703
9730.0 0.00010635
9750.0 0.00010567
9770.0 0.00010499
9790.0 0.00010432
9810.0 0.00010365
9830.0 0.00010297
9850.0 0.00010222
9870.0 0.00010158
9890.0 0.00010095
9910.0 0.00010032
9930.0 9.967e-05
9950.0 9.9045e-05
9970.0 9.8403e-05
9990.0 9.7749e-05
10010.0 9.7018e-05
10030.0 9.6347e-05
10050.0 9.5762e-05
10070.0 9.5169e-05
10090.0 9.4572e-05
10110.0 9.3928e-05
10130.0 9.3152e-05
10150.0 9.2563e-05
10170.0 9.2002e-05
10190.0 9.1402e-05
10210.0 9.0816e-05
10230.0 9.0228e-05
10250.0 8.9612e-05
10270.0 8.8997e-05
10290.0 8.8403e-05
10310.0 8.7789e-05
10330.0 8.7156e-05
10350.0 8.6554e-05
10370.0 8.5954e-05
10390.0 8.5333e-05
10410.0 8.4717e-05
10430.0 8.413e-05
10450.0 8.3521e-05
10470.0 8.2901e-05
10490.0 8.2302e-05
10510.0 8.1707e-05
10530.0 8.1076e-05
10550.0 8.0462e-05
10570.0 7.9871e-05
10590.0 7.9261e-05
10610.0 7.8639e-05
10630.0 7.8044e-05
10650.0 7.7445e-05
10670.0 7.6816e-05
10690.0 7.6203e-05
10710.0 7.5605e-05
10730.0 7.4986e-05
10750.0 7.4347e-05
10770.0 7.3749e-05
10790.0 7.3141e-05
10810.0 7.2512e-05
10830.0 7.1894e-05
10850.0 7.1297e-05
10870.0 7.0661e-05
10890.0 7.0028e-05
10910.0 6.9423e-05
10930.0 6.8817e-05
10950.0 6.8197e-05
10970.0 6.7604e-05
10990.0 6.7045e-05
11010.0 6.8375e-05
11030.0 6.7864e-05
11050.0 6.7376e-05
11070.0 6.6884e-05
11090.0 6.6361e-05
11110.0 6.5859e-05
11130.0 6.536e-05
11150.0 6.4842e-05
11170.0 6.4324e-05
11190.0 6.3833e-05
11210.0 6.334e-05
11230.0 6.2848e-05
11250.0 6.2388e-05
11270.0 6.1952e-05
11290.0 6.152e-05
11310.0 6.1109e-05
11330.0 6.074e-05
11350.0 6.0379e-05
11370.0 6.0029e-05
11390.0 5.9702e-05
11410.0 5.9389e-05
11430.0 5.9065e-05
11450.0 5.8749e-05
11470.0 5.8438e-05
11490.0 5.8114e-05
11510.0 5.7769e-05
11530.0 5.7421e-05
11550.0 5.7058e-05
11570.0 5.6661e-05
11590.0 5.6244e-05
11610.0 5.5817e-05
11630.0 5.535e-05
11650.0 5.4847e-05
11670.0 5.4343e-05
11690.0 5.382e-05
11710.0 5.3262e-05
11730.0 5.2695e-05
11750.0 5.2139e-05
11770.0 5.1556e-05
11790.0 5.0961e-05
11810.0 5.0384e-05
11830.0 4.981e-05
11850.0 4.9212e-05
11870.0 4.8637e-05
11890.0 4.8088e-05
11910.0 4.7534e-05
11930.0 4.6986e-05
11950.0 4.6471e-05
11970.0 4.5966e-05
11990.0 4.5459e-05
12010.0 4.4982e-05
12030.0 4.4532e-05
12050.0 4.4089e-05
12070.0 4.366e-05
12090.0 4.3274e-05
12110.0 4.2905e-05
12130.0 4.2551e-05
12150.0 4.2229e-05
12170.0 4.1941e-05
12190.0 4.1667e-05
12210.0 4.1428e-05
12230.0 4.1226e-05
12250.0 4.1054e-05
12270.0 4.0913e-05
12290.0 4.0807e-05
12310.0 4.0732e-05
12330.0 4.0685e-05
12350.0 4.0665e-05
12370.0 4.0667e-05
12390.0 4.0687e-05
12410.0 4.0727e-05
12430.0 4.0771e-05
12450.0 4.0817e-05
12470.0 4.0865e-05
12490.0 4.0907e-05
12510.0 4.0932e-05
12530.0 4.0944e-05
12550.0 4.0936e-05
12570.0 4.09e-05
12590.0 4.0835e-05
12610.0 4.0737e-05
12630.0 4.0602e-05
12650.0 4.0436e-05
12670.0 4.0232e-05
12690.0 3.999e-05
12710.0 3.972e-05
12730.0 3.9423e-05
12750.0 3.9085e-05
12770.0 3.8727e-05
12790.0 3.836e-05
12810.0 3.797e-05
12830.0 3.7559e-05
12850.0 3.7157e-05
12870.0 3.6753e-05
12890.0 3.6334e-05
12910.0 3.592e-05
12930.0 3.5521e-05
12950.0 3.5112e-05
12970.0 3.4701e-05
12990.0 3.4312e-05
13010.0 3.3927e-05
13030.0 3.3538e-05
13050.0 3.3161e-05
13070.0 3.2802e-05
13090.0 3.2439e-05
13110.0 3.2082e-05
13130.0 3.1746e-05
13150.0 3.142e-05
13170.0 3.1094e-05
13190.0 3.079e-05
13210.0 3.0509e-05
13230.0 3.0234e-05
13250.0 2.9973e-05
13270.0 2.9734e-05
13290.0 2.9505e-05
13310.0 2.9281e-05
13330.0 2.9072e-05
13350.0 2.8874e-05
13370.0 2.8677e-05
13390.0 2.848e-05
13410.0 2.8295e-05
13430.0 2.8106e-05
13450.0 2.7912e-05
13470.0 2.772e-05
13490.0 2.7528e-05
13510.0 2.7323e-05
13530.0 2.7116e-05
13550.0 2.6912e-05
13570.0 2.6702e-05
13590.0 2.6484e-05
13610.0 2.627e-05
13630.0 2.6058e-05
13650.0 2.5837e-05
13670.0 2.5617e-05
13690.0 2.5403e-05
13710.0 2.5186e-05
13730.0 2.4959e-05
13750.0 2.4744e-05
13770.0 2.453e-05
13790.0 2.431e-05
13810.0 2.409e-05
13830.0 2.3878e-05
13850.0 2.3659e-05
13870.0 2.3435e-05
13890.0 2.3216e-05
13910.0 2.2998e-05
13930.0 2.277e-05
13950.0 2.2541e-05
13970.0 2.2323e-05
13990.0 2.2097e-05
14010.0 2.1866e-05
14030.0 2.1641e-05
14050.0 2.1418e-05
14070.0 2.1181e-05
14090.0 2.0951e-05
14110.0 2.0728e-05
14130.0 2.0502e-05
14150.0 2.0273e-05
14170.0 2.0059e-05
14190.0 1.985e-05
14210.0 1.964e-05
14230.0 1.9441e-05
14250.0 1.9257e-05
14270.0 1.9074e-05
14290.0 1.8899e-05
14310.0 1.8742e-05
14330.0 1.8594e-05
14350.0 1.8451e-05
14370.0 1.8321e-05
14390.0 1.8203e-05
14410.0 1.8088e-05
14430.0 1.7979e-05
14450.0 1.788e-05
14470.0 1.7786e-05
14490.0 1.7691e-05
14510.0 1.7604e-05
14530.0 1.7522e-05
14550.0 1.744e-05
14570.0 1.7359e-05
14590.0 1.7284e-05
14610.0 1.7209e-05
14630.0 1.7133e-05
14650.0 1.7061e-05
14670.0 1.6993e-05
14690.0 1.6926e-05
14710.0 1.6862e-05
14730.0 1.6808e-05
14750.0 1.6759e-05
14770.0 1.6718e-05
14790.0 1.669e-05
14810.0 1.6674e-05
14830.0 1.6672e-05
14850.0 1.6688e-05
14870.0 1.672e-05
14890.0 1.677e-05
14910.0 1.6837e-05
14930.0 1.6913e-05
14950.0 1.6996e-05
14970.0 1.7082e-05
14990.0 1.7162e-05
15010.0 1.7231e-05
15030.0 1.7289e-05
15050.0 1.7333e-05
15070.0 1.7364e-05
15090.0 1.7387e-05
15110.0 1.7403e-05
15130.0 1.7416e-05
15150.0 1.7427e-05
15170.0 1.7437e-05
15190.0 1.7446e-05
15210.0 1.7456e-05
15230.0 1.7467e-05
15250.0 1.7478e-05
15270.0 1.749e-05
15290.0 1.7503e-05
15310.0 1.7515e-05
15330.0 1.7529e-05
15350.0 1.7543e-05
15370.0 1.7558e-05
15390.0 1.7572e-05
15410.0 1.7588e-05
15430.0 1.7604e-05
15450.0 1.7621e-05
15470.0 1.7637e-05
15490.0 1.7655e-05
15510.0 1.7674e-05
15530.0 1.7692e-05
15550.0 1.7711e-05
15570.0 1.7731e-05
15590.0 1.7751e-05
15610.0 1.7771e-05
15630.0 1.7792e-05
15650.0 1.7814e-05
15670.0 1.7835e-05
15690.0 1.7858e-05
15710.0 1.7881e-05
15730.0 1.7904e-05
15750.0 1.7927e-05
15770.0 1.7951e-05
15790.0 1.7975e-05
15810.0 1.7999e-05
15830.0 1.8024e-05
15850.0 1.805e-05
15870.0 1.8076e-05
15890.0 1.8101e-05
15910.0 1.8128e-05
15930.0 1.8155e-05
15950.0 1.8181e-05
15970.0 1.8209e-05
15990.0 1.8237e-05
16010.0 1.8264e-05
16030.0 1.8292e-05
16050.0 1.8321e-05
16070.0 1.8349e-05
16090.0 1.8378e-05
16110.0 1.8407e-05
16130.0 1.8437e-05
16150.0 1.8466e-05
16170.0 1.8495e-05
16190.0 1.8525e-05
16210.0 1.8555e-05
16230.0 1.8585e-05
16250.0 1.8616e-05
16270.0 1.8647e-05
16290.0 1.8677e-05
16310.0 1.8707e-05
16330.0 1.8739e-05
16350.0 1.877e-05
16370.0 1.88e-05
16390.0 1.8831e-05
16410.0 1.8863e-05
16430.0 1.8893e-05
16450.0 1.8924e-05
16470.0 1.8956e-05
16490.0 1.8987e-05
16510.0 1.9018e-05
16530.0 1.9049e-05
16550.0 1.9081e-05
16570.0 1.9111e-05
16590.0 1.9142e-05
16610.0 1.9173e-05
16630.0 1.9204e-05
16650.0 1.9234e-05
16670.0 1.9265e-05
16690.0 1.9296e-05
16710.0 1.9326e-05
16730.0 1.9356e-05
16750.0 1.9386e-05
16770.0 1.9416e-05
16790.0 1.9445e-05
16810.0 1.9475e-05
16830.0 1.9504e-05
16850.0 1.9533e-05
16870.0 1.9561e-05
16890.0 1.959e-05
16910.0 1.9618e-05
16930.0 1.9645e-05
16950.0 1.9673e-05
16970.0 1.9701e-05
16990.0 1.9727e-05
17010.0 1.9753e-05
17030.0 1.978e-05
17050.0 1.9806e-05
17070.0 1.9831e-05
17090.0 1.9856e-05
17110.0 1.9881e-05
17130.0 1.9904e-05
17150.0 1.9928e-05
17170.0 1.9952e-05
17190.0 1.9974e-05
17210.0 1.9996e-05
17230.0 2.0018e-05
17250.0 2.004e-05
17270.0 2.006e-05
17290.0 2.008e-05
17310.0 2.01e-05
17330.0 2.0118e-05
17350.0 2.0136e-05
17370.0 2.0155e-05
17390.0 2.0172e-05
17410.0 2.0188e-05
17430.0 2.0205e-05
17450.0 2.0221e-05
17470.0 2.0235e-05
17490.0 2.0248e-05
17510.0 2.0262e-05
17530.0 2.0275e-05
17550.0 2.0286e-05
17570.0 2.0298e-05
17590.0 2.0309e-05
17610.0 2.0318e-05
17630.0 2.0327e-05
17650.0 2.0336e-05
17670.0 2.0343e-05
17690.0 2.0349e-05
17710.0 2.0355e-05
17730.0 2.0361e-05
17750.0 2.0365e-05
17770.0 2.0368e-05
17790.0 2.0372e-05
17810.0 2.0373e-05
17830.0 2.0374e-05
17850.0 2.0374e-05
17870.0 2.0374e-05
17890.0 2.0371e-05
17910.0 2.0368e-05
17930.0 2.0366e-05
17950.0 2.0362e-05
17970.0 2.0356e-05
17990.0 2.035e-05
18010.0 2.0344e-05
18030.0 2.0335e-05
18050.0 2.0326e-05
18070.0 2.0317e-05
18090.0 2.0306e-05
18110.0 2.0293e-05
18130.0 2.0281e-05
18150.0 2.0268e-05
18170.0 2.0253e-05
18190.0 2.0237e-05
18210.0 2.0222e-05
18230.0 2.0203e-05
18250.0 2.0184e-05
18270.0 2.0165e-05
18290.0 2.0145e-05
18310.0 2.0123e-05
18330.0 2.0101e-05
18350.0 2.0078e-05
18370.0 2.0053e-05
18390.0 2.0028e-05
18410.0 2.0002e-05
18430.0 1.9974e-05
18450.0 1.9945e-05
18470.0 1.9916e-05
18490.0 1.9886e-05
18510.0 1.9854e-05
18530.0 1.9822e-05
18550.0 1.9789e-05
18570.0 1.9755e-05
18590.0 1.9718e-05
18610.0 1.9682e-05
18630.0 1.9645e-05
18650.0 1.9607e-05
18670.0 1.9567e-05
18690.0 1.9527e-05
18710.0 1.9486e-05
18730.0 1.9443e-05
18750.0 1.94e-05
18770.0 1.9357e-05
18790.0 1.9311e-05
18810.0 1.9264e-05
18830.0 1.9218e-05
18850.0 1.917e-05
18870.0 1.912e-05
18890.0 1.9071e-05
18910.0 1.9021e-05
18930.0 1.8969e-05
18950.0 1.8916e-05
18970.0 1.8863e-05
18990.0 1.8808e-05
19010.0 1.8752e-05
19030.0 1.8696e-05
19050.0 1.864e-05
19070.0 1.8581e-05
19090.0 1.8522e-05
19110.0 1.8464e-05
19130.0 1.8403e-05
19150.0 1.8341e-05
19170.0 1.8279e-05
19190.0 1.8217e-05
19210.0 1.8152e-05
19230.0 1.8087e-05
19250.0 1.8023e-05
19270.0 1.7957e-05
19290.0 1.7889e-05
19310.0 1.7822e-05
19330.0 1.7754e-05
19350.0 1.7684e-05
19370.0 1.7615e-05
19390.0 1.7545e-05
19410.0 1.7473e-05
19430.0 1.7401e-05
19450.0 1.7329e-05
19470.0 1.7256e-05
19490.0 1.7182e-05
19510.0 1.7107e-05
19530.0 1.7033e-05
19550.0 1.6957e-05
19570.0 1.688e-05
19590.0 1.6804e-05
19610.0 1.6726e-05
19630.0 1.6648e-05
19650.0 1.657e-05
19670.0 1.6491e-05
19690.0 1.6411e-05
19710.0 1.6331e-05
19730.0 1.6251e-05
19750.0 1.617e-05
19770.0 1.6087e-05
19790.0 1.6006e-05
19810.0 1.5924e-05
19830.0 1.584e-05
19850.0 1.5756e-05
19870.0 1.5672e-05
19890.0 1.5584e-05
19910.0 1.5491e-05
19930.0 1.5393e-05
19950.0 1.5286e-05
19970.0 1.5164e-05
19990.0 1.5025e-05
20010.0 1.4871e-05
20030.0 1.4696e-05
20050.0 1.45e-05
20070.0 1.4293e-05
20090.0 1.4076e-05
20110.0 1.384e-05
20130.0 1.3605e-05
20150.0 1.3374e-05
20170.0 1.3139e-05
20190.0 1.2904e-05
20210.0 1.2679e-05
20230.0 1.2459e-05
20250.0 1.2238e-05
20270.0 1.2028e-05
20290.0 1.1828e-05
20310.0 1.1632e-05
20330.0 1.1441e-05
20350.0 1.1267e-05
20370.0 1.11e-05
20390.0 1.0939e-05
20410.0 1.0789e-05
20430.0 1.0651e-05
20450.0 1.0516e-05
20470.0 1.0391e-05
20490.0 1.0277e-05
20510.0 1.017e-05
20530.0 1.0068e-05
20550.0 9.9753e-06
20570.0 9.8897e-06
20590.0 9.8087e-06
20610.0 9.7331e-06
20630.0 9.6629e-06
20650.0 9.5965e-06
20670.0 9.5332e-06
20690.0 9.4732e-06
20710.0 9.4153e-06
20730.0 9.3586e-06
20750.0 9.3026e-06
20770.0 9.2466e-06
20790.0 9.1899e-06
20810.0 9.1318e-06
20830.0 9.0717e-06
20850.0 9.0094e-06
20870.0 8.9436e-06
20890.0 8.8741e-06
20910.0 8.8018e-06
20930.0 8.7253e-06
20950.0 8.6441e-06
20970.0 8.5597e-06
20990.0 8.4722e-06
21010.0 8.379e-06
21030.0 8.2826e-06
21050.0 8.1846e-06
21070.0 8.0828e-06
21090.0 7.9767e-06
21110.0 7.8713e-06
21130.0 7.765e-06
21150.0 7.6556e-06
21170.0 7.5462e-06
21190.0 7.4389e-06
21210.0 7.3297e-06
21230.0 7.22e-06
21250.0 7.1141e-06
21270.0 7.0099e-06
21290.0 6.9055e-06
21310.0 6.8038e-06
21330.0 6.7068e-06
21350.0 6.6103e-06
21370.0 6.5157e-06
21390.0 6.4252e-06
21410.0 6.3375e-06
21430.0 6.2498e-06
21450.0 6.166e-06
21470.0 6.0858e-06
21490.0 6.0066e-06
21510.0 5.929e-06
21530.0 5.8547e-06
21550.0 5.7819e-06
21570.0 5.7094e-06
21590.0 5.6391e-06
21610.0 5.5708e-06
21630.0 5.5029e-06
21650.0 5.4352e-06
21670.0 5.3704e-06
21690.0 5.306e-06
21710.0 5.2416e-06
21730.0 5.1786e-06
21750.0 5.1169e-06
21770.0 5.0544e-06
21790.0 4.9924e-06
21810.0 4.9318e-06
21830.0 4.8712e-06
21850.0 4.8099e-06
21870.0 4.7495e-06
21890.0 4.6899e-06
21910.0 4.6292e-06
21930.0 4.5686e-06
21950.0 4.5088e-06
21970.0 4.4485e-06
21990.0 4.3869e-06
22010.0 4.3265e-06
22030.0 4.2666e-06
22050.0 4.2059e-06
22070.0 4.1453e-06
22090.0 4.0864e-06
22110.0 4.0271e-06
22130.0 3.9677e-06
22150.0 3.9097e-06
22170.0 3.8529e-06
22190.0 3.7956e-06
22210.0 3.7394e-06
22230.0 3.6855e-06
22250.0 3.6319e-06
22270.0 3.5789e-06
22290.0 3.5277e-06
22310.0 3.4778e-06
22330.0 3.4277e-06
22350.0 3.3789e-06
22370.0 3.3317e-06
22390.0 3.2847e-06
22410.0 3.2377e-06
22430.0 3.1924e-06
22450.0 3.1476e-06
22470.0 3.1025e-06
22490.0 3.058e-06
22510.0 3.0145e-06
22530.0 2.9703e-06
22550.0 2.9259e-06
22570.0 2.8826e-06
22590.0 2.8395e-06
22610.0 2.7959e-06
22630.0 2.7529e-06
