#lamb flux
1010.0 1.2212e-05
1030.0 1.3001e-05
1050.0 1.3913e-05
1070.0 1.4941e-05
1090.0 1.6109e-05
1110.0 1.731e-05
1130.0 1.8521e-05
1150.0 1.9794e-05
1170.0 2.1111e-05
1190.0 2.2365e-05
1210.0 2.3641e-05
1230.0 2.4964e-05
1250.0 2.6266e-05
1270.0 2.7538e-05
1290.0 2.8886e-05
1310.0 3.024e-05
1330.0 3.1548e-05
1350.0 3.2877e-05
1370.0 3.4256e-05
1390.0 3.561e-05
1410.0 3.6933e-05
1430.0 3.8323e-05
1450.0 3.9721e-05
1470.0 4.1083e-05
1490.0 4.2467e-05
1510.0 4.3933e-05
1530.0 4.5333e-05
1550.0 4.6723e-05
1570.0 4.8163e-05
1590.0 4.9609e-05
1610.0 5.0999e-05
1630.0 5.2431e-05
1650.0 5.3898e-05
1670.0 5.5319e-05
1690.0 5.672e-05
1710.0 5.8166e-05
1730.0 5.9613e-05
1750.0 6.0968e-05
1770.0 6.2349e-05
1790.0 6.3742e-05
1810.0 6.5075e-05
1830.0 6.6365e-05
1850.0 6.7714e-05
1870.0 6.9003e-05
1890.0 7.0222e-05
1910.0 7.1439e-05
1930.0 7.2659e-05
1950.0 7.3787e-05
1970.0 7.4868e-05
1990.0 7.5965e-05
2010.0 7.7009e-05
2030.0 7.7973e-05
2050.0 7.8945e-05
2070.0 7.9918e-05
2090.0 8.0787e-05
2110.0 8.1625e-05
2130.0 8.2475e-05
2150.0 8.3278e-05
2170.0 8.4007e-05
2190.0 8.4764e-05
2210.0 8.5516e-05
2230.0 8.6208e-05
2250.0 8.6888e-05
2270.0 8.7619e-05
2290.0 8.8313e-05
2310.0 8.8964e-05
2330.0 8.9661e-05
2350.0 9.038e-05
2370.0 9.1069e-05
2390.0 9.179e-05
2410.0 9.2588e-05
2430.0 9.338e-05
2450.0 9.4184e-05
2470.0 9.5074e-05
2490.0 9.6084e-05
2510.0 9.7235e-05
2530.0 9.8857e-05
2550.0 0.00010149
2570.0 0.00010573
2590.0 0.00011231
2610.0 0.00012301
2630.0 0.00013844
2650.0 0.00015791
2670.0 0.00018176
2690.0 0.00020929
2710.0 0.000237
2730.0 0.00026317
2750.0 0.00028821
2770.0 0.00031007
2790.0 0.00032839
2810.0 0.00034477
2830.0 0.00036044
2850.0 0.00037473
2870.0 0.00038896
2890.0 0.00040403
2910.0 0.00041966
2930.0 0.00043537
2950.0 0.0004522
2970.0 0.00047002
2990.0 0.00048801
3010.0 0.0017268
3030.0 0.0017927
3050.0 0.0018583
3070.0 0.0019175
3090.0 0.0019676
3110.0 0.001995
3130.0 0.0019831
3150.0 0.0019146
3170.0 0.001754
3190.0 0.0014983
3210.0 0.0011522
3230.0 0.00076389
3250.0 0.0011711
3270.0 0.00073236
3290.0 0.0016858
3310.0 0.00066456
3330.0 0.00065789
3350.0 0.00078791
3370.0 0.00094343
3390.0 0.0011135
3410.0 0.0012839
3430.0 0.0014635
3450.0 0.0016447
3470.0 0.001812
3490.0 0.0019291
3510.0 0.0023164
3530.0 0.0029996
3550.0 0.002922
3570.0 0.0024095
3590.0 0.0032615
3610.0 0.0021108
3630.0 0.0034374
3650.0 0.0040039
3670.0 0.0050911
3690.0 0.004727
3710.0 0.0031653
3730.0 0.0040852
3750.0 0.004183
3770.0 0.0044894
3790.0 0.0043564
3810.0 0.0044847
3830.0 0.0070486
3850.0 0.0086521
3870.0 0.010669
3890.0 0.010369
3910.0 0.0092673
3930.0 0.0093867
3950.0 0.010139
3970.0 0.01118
3990.0 0.0071683
4010.0 0.0038803
4030.0 0.0069002
4050.0 0.0091271
4070.0 0.0097641
4090.0 0.0068296
4110.0 0.0043229
4130.0 0.0071098
4150.0 0.0072587
4170.0 0.0067566
4190.0 0.0061309
4210.0 0.0086777
4230.0 0.0063931
4250.0 0.0069265
4270.0 0.0068813
4290.0 0.0065195
4310.0 0.0083575
4330.0 0.0090308
4350.0 0.0075244
4370.0 0.006352
4390.0 0.0077416
4410.0 0.0079287
4430.0 0.0058297
4450.0 0.0052896
4470.0 0.0065371
4490.0 0.0050015
4510.0 0.0069813
4530.0 0.0072557
4550.0 0.0086106
4570.0 0.012139
4590.0 0.012005
4610.0 0.0095183
4630.0 0.015191
4650.0 0.020243
4670.0 0.019305
4690.0 0.013652
4710.0 0.014476
4730.0 0.016398
4750.0 0.013509
4770.0 0.010327
4790.0 0.0069698
4810.0 0.0095134
4830.0 0.011204
4850.0 0.0098485
4870.0 0.0041401
4890.0 0.011176
4910.0 0.014652
4930.0 0.015925
4950.0 0.016409
4970.0 0.011526
4990.0 0.013413
5010.0 0.01558
5030.0 0.016699
5050.0 0.01559
5070.0 0.011024
5090.0 0.0089443
5110.0 0.0086467
5130.0 0.0082155
5150.0 0.0085575
5170.0 0.0076361
5190.0 0.009104
5210.0 0.0092344
5230.0 0.010207
5250.0 0.012094
5270.0 0.010005
5290.0 0.010382
5310.0 0.015227
5330.0 0.017465
5350.0 0.014625
5370.0 0.01312
5390.0 0.015187
5410.0 0.018082
5430.0 0.019217
5450.0 0.020167
5470.0 0.020255
5490.0 0.020809
5510.0 0.024847
5530.0 0.025747
5550.0 0.027119
5570.0 0.028403
5590.0 0.027845
5610.0 0.026004
5630.0 0.025322
5650.0 0.02612
5670.0 0.025455
5690.0 0.021735
5710.0 0.021443
5730.0 0.021418
5750.0 0.022211
5770.0 0.019078
5790.0 0.018149
5810.0 0.018542
5830.0 0.019955
5850.0 0.018526
5870.0 0.018562
5890.0 0.021583
5910.0 0.020078
5930.0 0.016532
5950.0 0.01489
5970.0 0.016179
5990.0 0.014646
6010.0 0.013368
6030.0 0.013109
6050.0 0.012007
6070.0 0.0093033
6090.0 0.0088476
6110.0 0.011351
6130.0 0.012738
6150.0 0.013156
6170.0 0.012795
6190.0 0.012204
6210.0 0.012724
6230.0 0.015441
6250.0 0.014268
6270.0 0.012828
6290.0 0.011661
6310.0 0.010562
6330.0 0.0097979
6350.0 0.008757
6370.0 0.0088757
6390.0 0.010328
6410.0 0.012824
6430.0 0.015158
6450.0 0.015217
6470.0 0.015386
6490.0 0.018791
6510.0 0.021574
6530.0 0.020501
6550.0 0.019452
6570.0 0.019732
6590.0 0.019448
6610.0 0.020584
6630.0 0.019195
6650.0 0.016678
6670.0 0.015385
6690.0 0.015252
6710.0 0.018053
6730.0 0.016074
6750.0 0.013221
6770.0 0.011935
6790.0 0.01268
6810.0 0.014561
6830.0 0.014493
6850.0 0.012999
6870.0 0.013463
6890.0 0.013381
6910.0 0.012575
6930.0 0.013961
6950.0 0.012987
6970.0 0.012098
6990.0 0.01206
7010.0 0.012149
7030.0 0.011801
7050.0 0.011299
7070.0 0.012119
7090.0 0.011288
7110.0 0.0095707
7130.0 0.0082206
7150.0 0.0080728
7170.0 0.010193
7190.0 0.010806
7210.0 0.010246
7230.0 0.010776
7250.0 0.010466
7270.0 0.010209
7290.0 0.01106
7310.0 0.012124
7330.0 0.011812
7350.0 0.010959
7370.0 0.010138
7390.0 0.010168
7410.0 0.011683
7430.0 0.013154
7450.0 0.014005
7470.0 0.014206
7490.0 0.015803
7510.0 0.01563
7530.0 0.01418
7550.0 0.013449
7570.0 0.011644
7590.0 0.011107
7610.0 0.010748
7630.0 0.0099191
7650.0 0.010676
7670.0 0.011849
7690.0 0.012923
7710.0 0.014772
7730.0 0.015522
7750.0 0.016157
7770.0 0.016824
7790.0 0.018282
7810.0 0.01845
7830.0 0.016587
7850.0 0.016683
7870.0 0.016092
7890.0 0.016505
7910.0 0.015572
7930.0 0.015485
7950.0 0.013025
7970.0 0.013089
7990.0 0.012671
8010.0 0.013789
8030.0 0.013753
8050.0 0.014631
8070.0 0.014058
8090.0 0.014136
8110.0 0.013937
8130.0 0.013797
8150.0 0.012972
8170.0 0.012742
8190.0 0.012724
8210.0 0.012862
8230.0 0.011264
8250.0 0.01031
8270.0 0.0091222
8290.0 0.0077646
8310.0 0.0068474
8330.0 0.0054299
8350.0 0.0044009
8370.0 0.0042537
8390.0 0.0041283
8410.0 0.0043251
8430.0 0.005569
8450.0 0.0060714
8470.0 0.0065413
8490.0 0.0076626
8510.0 0.0083472
8530.0 0.0095013
8550.0 0.01125
8570.0 0.01237
8590.0 0.013023
8610.0 0.014478
8630.0 0.016487
8650.0 0.016929
8670.0 0.017298
8690.0 0.017967
8710.0 0.017634
8730.0 0.017094
8750.0 0.015765
8770.0 0.015784
8790.0 0.015574
8810.0 0.014335
8830.0 0.014365
8850.0 0.013167
8870.0 0.012566
8890.0 0.011267
8910.0 0.01257
8930.0 0.011379
8950.0 0.011418
8970.0 0.011669
8990.0 0.011342
9010.0 0.011653
9030.0 0.011062
9050.0 0.011009
9070.0 0.011013
9090.0 0.011016
9110.0 0.011026
9130.0 0.011025
9150.0 0.011019
9170.0 0.010983
9190.0 0.010902
9210.0 0.011075
9230.0 0.011026
9250.0 0.010998
9270.0 0.010974
9290.0 0.010953
9310.0 0.010933
9330.0 0.010914
9350.0 0.010895
9370.0 0.010875
9390.0 0.010854
9410.0 0.010833
9430.0 0.010811
9450.0 0.010787
9470.0 0.010763
9490.0 0.010739
9510.0 0.010714
9530.0 0.010688
9550.0 0.010662
9570.0 0.010635
9590.0 0.010608
9610.0 0.010581
9630.0 0.010554
9650.0 0.010526
9670.0 0.010498
9690.0 0.01047
9710.0 0.010443
9730.0 0.010415
9750.0 0.010387
9770.0 0.01036
9790.0 0.010333
9810.0 0.010306
9830.0 0.01028
9850.0 0.010254
9870.0 0.010227
9890.0 0.010202
9910.0 0.010177
9930.0 0.010152
9950.0 0.010112
9970.0 0.010093
9990.0 0.010075
10010.0 0.010055
10030.0 0.010035
10050.0 0.010012
10070.0 0.009969
10090.0 0.0099571
10110.0 0.009945
10130.0 0.0099314
10150.0 0.0099171
10170.0 0.0099019
10190.0 0.0098858
10210.0 0.0098709
10230.0 0.0098566
10250.0 0.0098422
10270.0 0.0098286
10290.0 0.0098163
10310.0 0.0098042
10330.0 0.0097922
10350.0 0.0097818
10370.0 0.0097721
10390.0 0.0097626
10410.0 0.0097539
10430.0 0.0097466
10450.0 0.0097395
10470.0 0.0097327
10490.0 0.0097272
10510.0 0.0097223
10530.0 0.0097173
10550.0 0.0097134
10570.0 0.0097106
10590.0 0.009708
10610.0 0.0097058
10630.0 0.0097048
10650.0 0.0097043
10670.0 0.0097038
10690.0 0.0097042
10710.0 0.0097054
10730.0 0.0097068
10750.0 0.0097085
10770.0 0.0097114
10790.0 0.0097146
10810.0 0.0097178
10830.0 0.0097214
10850.0 0.009725
10870.0 0.0097264
10890.0 0.0097242
10910.0 0.0097161
10930.0 0.0096966
10950.0 0.0096577
10970.0 0.0095954
10990.0 0.0095075
11010.0 0.0096722
11030.0 0.0095035
11050.0 0.0093052
11070.0 0.0090757
11090.0 0.0088095
11110.0 0.008544
11130.0 0.0082784
11150.0 0.0080064
11170.0 0.0077421
11190.0 0.0075015
11210.0 0.0072694
11230.0 0.0070486
11250.0 0.0068532
11270.0 0.0066787
11290.0 0.0065155
11310.0 0.0063701
11330.0 0.0062478
11350.0 0.0061346
11370.0 0.0060294
11390.0 0.0059348
11410.0 0.0058457
11430.0 0.0057532
11450.0 0.0056615
11470.0 0.0055701
11490.0 0.0054724
11510.0 0.0053663
11530.0 0.0052595
11550.0 0.0051487
11570.0 0.0050285
11590.0 0.0049056
11610.0 0.0047841
11630.0 0.004656
11650.0 0.0045238
11670.0 0.0043982
11690.0 0.0042742
11710.0 0.004148
11730.0 0.0040266
11750.0 0.0039137
11770.0 0.0038005
11790.0 0.0036903
11810.0 0.0035886
11830.0 0.0034915
11850.0 0.0033937
11870.0 0.0033033
11890.0 0.0032197
11910.0 0.0031367
11930.0 0.0030558
11950.0 0.0029807
11970.0 0.0029071
11990.0 0.0028321
12010.0 0.0027612
12030.0 0.0026937
12050.0 0.0026259
12070.0 0.0025589
12090.0 0.0024989
12110.0 0.0024413
12130.0 0.002386
12150.0 0.002337
12170.0 0.0022952
12190.0 0.0022575
12210.0 0.0022284
12230.0 0.0022092
12250.0 0.0021991
12270.0 0.0021991
12290.0 0.0022102
12310.0 0.0022312
12330.0 0.0022634
12350.0 0.0023058
12370.0 0.0023555
12390.0 0.0024132
12410.0 0.0024802
12430.0 0.0025481
12450.0 0.0026174
12470.0 0.0026892
12490.0 0.0027595
12510.0 0.0028241
12530.0 0.0028864
12550.0 0.0029445
12570.0 0.0029949
12590.0 0.0030385
12610.0 0.0030769
12630.0 0.0031082
12650.0 0.0031318
12670.0 0.00315
12690.0 0.0031626
12710.0 0.0031697
12730.0 0.0031723
12750.0 0.0031701
12770.0 0.003164
12790.0 0.0031548
12810.0 0.0031417
12830.0 0.0031246
12850.0 0.0031053
12870.0 0.003083
12890.0 0.0030561
12910.0 0.0030259
12930.0 0.0029934
12950.0 0.0029555
12970.0 0.0029124
12990.0 0.002868
13010.0 0.0028199
13030.0 0.0027667
13050.0 0.0027116
13070.0 0.0026568
13090.0 0.0025983
13110.0 0.0025388
13130.0 0.0024823
13150.0 0.0024274
13170.0 0.0023724
13190.0 0.0023236
13210.0 0.0022811
13230.0 0.0022426
13250.0 0.0022101
13270.0 0.0021854
13290.0 0.0021666
13310.0 0.0021534
13330.0 0.0021467
13350.0 0.0021449
13370.0 0.0021468
13390.0 0.0021515
13410.0 0.0021574
13430.0 0.0021635
13450.0 0.0021684
13470.0 0.0021712
13490.0 0.0021711
13510.0 0.0021672
13530.0 0.0021593
13550.0 0.0021482
13570.0 0.0021335
13590.0 0.0021154
13610.0 0.0020956
13630.0 0.0020751
13650.0 0.0020529
13670.0 0.0020309
13690.0 0.0020103
13710.0 0.0019903
13730.0 0.0019709
13750.0 0.0019541
13770.0 0.0019387
13790.0 0.0019241
13810.0 0.0019104
13830.0 0.0018979
13850.0 0.0018851
13870.0 0.0018719
13890.0 0.0018586
13910.0 0.0018446
13930.0 0.0018293
13950.0 0.0018131
13970.0 0.0017971
13990.0 0.0017801
14010.0 0.0017627
14030.0 0.001746
14050.0 0.00173
14070.0 0.0017142
14090.0 0.0017001
14110.0 0.0016878
14130.0 0.0016769
14150.0 0.0016678
14170.0 0.0016607
14190.0 0.0016554
14210.0 0.0016518
14230.0 0.0016499
14250.0 0.0016497
14270.0 0.0016513
14290.0 0.0016549
14310.0 0.0016597
14330.0 0.0016662
14350.0 0.0016745
14370.0 0.001684
14390.0 0.0016941
14410.0 0.0017058
14430.0 0.0017182
14450.0 0.0017304
14470.0 0.0017428
14490.0 0.001756
14510.0 0.0017684
14530.0 0.0017802
14550.0 0.0017925
14570.0 0.001805
14590.0 0.0018174
14610.0 0.0018308
14630.0 0.0018464
14650.0 0.0018631
14670.0 0.0018815
14690.0 0.0019034
14710.0 0.0019286
14730.0 0.0019551
14750.0 0.0019851
14770.0 0.0020192
14790.0 0.0020549
14810.0 0.0020918
14830.0 0.0021333
14850.0 0.0021752
14870.0 0.0022155
14890.0 0.0022558
14910.0 0.0022952
14930.0 0.0023298
14950.0 0.0023592
14970.0 0.0023844
14990.0 0.0024026
15010.0 0.0024135
15030.0 0.0024185
15050.0 0.002418
15070.0 0.0024127
15090.0 0.0024044
15110.0 0.002394
15130.0 0.0023824
15150.0 0.0023703
15170.0 0.0023578
15190.0 0.002345
15210.0 0.0023323
15230.0 0.0023196
15250.0 0.0023068
15270.0 0.002294
15290.0 0.0022815
15310.0 0.0022689
15330.0 0.0022562
15350.0 0.0022437
15370.0 0.0022313
15390.0 0.0022186
15410.0 0.0022062
15430.0 0.0021939
15450.0 0.0021815
15470.0 0.002169
15490.0 0.0021569
15510.0 0.0021448
15530.0 0.0021325
15550.0 0.0021204
15570.0 0.0021085
15590.0 0.0020964
15610.0 0.0020843
15630.0 0.0020725
15650.0 0.0020607
15670.0 0.0020489
15690.0 0.0020371
15710.0 0.0020256
15730.0 0.002014
15750.0 0.0020024
15770.0 0.001991
15790.0 0.0019797
15810.0 0.0019681
15830.0 0.0019569
15850.0 0.0019458
15870.0 0.0019346
15890.0 0.0019235
15910.0 0.0019126
15930.0 0.0019017
15950.0 0.0018906
15970.0 0.0018799
15990.0 0.0018692
16010.0 0.0018585
16030.0 0.0018477
16050.0 0.0018374
16070.0 0.0018269
16090.0 0.0018164
16110.0 0.0018061
16130.0 0.001796
16150.0 0.0017857
16170.0 0.0017755
16190.0 0.0017655
16210.0 0.0017555
16230.0 0.0017455
16250.0 0.0017357
16270.0 0.001726
16290.0 0.0017162
16310.0 0.0017065
16330.0 0.001697
16350.0 0.0016875
16370.0 0.0016779
16390.0 0.0016686
16410.0 0.0016593
16430.0 0.00165
16450.0 0.0016407
16470.0 0.0016318
16490.0 0.0016226
16510.0 0.0016135
16530.0 0.0016046
16550.0 0.0015958
16570.0 0.0015869
16590.0 0.001578
16610.0 0.0015695
16630.0 0.0015608
16650.0 0.0015522
16670.0 0.0015437
16690.0 0.0015354
16710.0 0.0015268
16730.0 0.0015184
16750.0 0.0015102
16770.0 0.0015019
16790.0 0.0014936
16810.0 0.0014856
16830.0 0.0014776
16850.0 0.0014695
16870.0 0.0014615
16890.0 0.0014537
16910.0 0.0014458
16930.0 0.0014378
16950.0 0.0014301
16970.0 0.0014225
16990.0 0.0014147
17010.0 0.0014071
17030.0 0.0013997
17050.0 0.0013921
17070.0 0.0013845
17090.0 0.0013772
17110.0 0.0013698
17130.0 0.0013623
17150.0 0.0013551
17170.0 0.0013479
17190.0 0.0013407
17210.0 0.0013335
17230.0 0.0013265
17250.0 0.0013194
17270.0 0.0013122
17290.0 0.0013053
17310.0 0.0012984
17330.0 0.0012914
17350.0 0.0012845
17370.0 0.0012778
17390.0 0.001271
17410.0 0.0012642
17430.0 0.0012575
17450.0 0.0012509
17470.0 0.0012441
17490.0 0.0012375
17510.0 0.001231
17530.0 0.0012245
17550.0 0.0012179
17570.0 0.0012115
17590.0 0.0012052
17610.0 0.0011987
17630.0 0.0011923
17650.0 0.0011861
17670.0 0.0011798
17690.0 0.0011733
17710.0 0.0011672
17730.0 0.0011611
17750.0 0.0011549
17770.0 0.0011487
17790.0 0.0011428
17810.0 0.0011366
17830.0 0.0011305
17850.0 0.0011246
17870.0 0.0011186
17890.0 0.0011126
17910.0 0.0011066
17930.0 0.0011009
17950.0 0.001095
17970.0 0.0010891
17990.0 0.0010834
18010.0 0.0010777
18030.0 0.0010717
18050.0 0.001066
18070.0 0.0010604
18090.0 0.0010547
18110.0 0.001049
18130.0 0.0010435
18150.0 0.0010379
18170.0 0.0010323
18190.0 0.0010268
18210.0 0.0010214
18230.0 0.0010158
18250.0 0.0010102
18270.0 0.0010049
18290.0 0.00099951
18310.0 0.00099403
18330.0 0.0009887
18350.0 0.0009835
18370.0 0.0009781
18390.0 0.00097276
18410.0 0.00096758
18430.0 0.00096236
18450.0 0.00095698
18470.0 0.00095183
18490.0 0.00094677
18510.0 0.00094157
18530.0 0.0009364
18550.0 0.00093143
18570.0 0.00092634
18590.0 0.00092115
18610.0 0.00091616
18630.0 0.00091122
18650.0 0.00090615
18670.0 0.0009011
18690.0 0.00089629
18710.0 0.00089138
18730.0 0.00088639
18750.0 0.00088156
18770.0 0.00087681
18790.0 0.0008718
18810.0 0.00086694
18830.0 0.00086224
18850.0 0.00085746
18870.0 0.0008526
18890.0 0.00084794
18910.0 0.00084331
18930.0 0.00083852
18950.0 0.00083382
18970.0 0.00082926
18990.0 0.0008246
19010.0 0.0008198
19030.0 0.0008153
19050.0 0.00081079
19070.0 0.00080615
19090.0 0.0008016
19110.0 0.00079723
19130.0 0.00079265
19150.0 0.00078807
19170.0 0.00078367
19190.0 0.00077926
19210.0 0.00077471
19230.0 0.00077027
19250.0 0.00076601
19270.0 0.0007616
19290.0 0.00075718
19310.0 0.00075293
19330.0 0.00074866
19350.0 0.00074418
19370.0 0.0007399
19390.0 0.00073571
19410.0 0.00073141
19430.0 0.00072709
19450.0 0.00072297
19470.0 0.00071881
19490.0 0.00071453
19510.0 0.00071037
19530.0 0.00070631
19550.0 0.00070208
19570.0 0.00069784
19590.0 0.00069384
19610.0 0.00068977
19630.0 0.0006856
19650.0 0.00068157
19670.0 0.00067764
19690.0 0.00067351
19710.0 0.00066944
19730.0 0.00066552
19750.0 0.00066154
19770.0 0.00065741
19790.0 0.00065349
19810.0 0.00064963
19830.0 0.00064562
19850.0 0.0006416
19870.0 0.00063769
19890.0 0.00063349
19910.0 0.00062889
19930.0 0.00062401
19950.0 0.00061849
19970.0 0.00061177
19990.0 0.00060384
20010.0 0.00059504
20030.0 0.00058465
20050.0 0.00057287
20070.0 0.00056059
20090.0 0.0005479
20110.0 0.0005342
20130.0 0.00052104
20150.0 0.00050867
20170.0 0.0004965
20190.0 0.00048482
20210.0 0.00047438
20230.0 0.00046472
20250.0 0.00045554
20270.0 0.0004475
20290.0 0.00044058
20310.0 0.00043442
20330.0 0.00042912
20350.0 0.00042519
20370.0 0.0004222
20390.0 0.00042017
20410.0 0.00041926
20430.0 0.00041939
20450.0 0.0004206
20470.0 0.00042293
20490.0 0.00042622
20510.0 0.00043052
20530.0 0.00043599
20550.0 0.00044227
20570.0 0.00044909
20590.0 0.00045689
20610.0 0.00046531
20630.0 0.00047386
20650.0 0.00048277
20670.0 0.00049225
20690.0 0.00050125
20710.0 0.0005099
20730.0 0.00051847
20750.0 0.00052658
20770.0 0.00053376
20790.0 0.00054048
20810.0 0.00054672
20830.0 0.00055212
20850.0 0.00055684
20870.0 0.00056119
20890.0 0.00056503
20910.0 0.00056828
20930.0 0.00057127
20950.0 0.00057405
20970.0 0.0005765
20990.0 0.00057871
21010.0 0.00058079
21030.0 0.00058259
21050.0 0.00058405
21070.0 0.00058521
21090.0 0.000586
21110.0 0.00058633
21130.0 0.00058622
21150.0 0.00058565
21170.0 0.0005846
21190.0 0.00058318
21210.0 0.0005813
21230.0 0.000579
21250.0 0.00057649
21270.0 0.00057377
21290.0 0.00057078
21310.0 0.00056772
21330.0 0.00056477
21350.0 0.00056175
21370.0 0.00055879
21390.0 0.00055607
21410.0 0.00055355
21430.0 0.00055112
21450.0 0.00054905
21470.0 0.00054733
21490.0 0.00054587
21510.0 0.00054472
21530.0 0.00054395
21550.0 0.0005435
21570.0 0.00054339
21590.0 0.00054366
21610.0 0.00054427
21630.0 0.00054526
21650.0 0.00054668
21670.0 0.0005484
21690.0 0.00055052
21710.0 0.00055311
21730.0 0.00055607
21750.0 0.00055932
21770.0 0.00056319
21790.0 0.00056749
21810.0 0.00057205
21830.0 0.00057705
21850.0 0.00058265
21870.0 0.0005885
21890.0 0.00059449
21910.0 0.00060106
21930.0 0.00060792
21950.0 0.00061477
21970.0 0.0006219
21990.0 0.00062949
22010.0 0.00063678
22030.0 0.00064394
22050.0 0.00065123
22070.0 0.00065832
22090.0 0.00066482
22110.0 0.00067112
22130.0 0.00067709
22150.0 0.00068232
22170.0 0.00068686
22190.0 0.00069085
22210.0 0.00069395
22230.0 0.00069603
22250.0 0.00069724
22270.0 0.00069742
22290.0 0.00069657
22310.0 0.0006947
22330.0 0.00069161
22350.0 0.00068745
22370.0 0.00068237
22390.0 0.00067615
22410.0 0.00066868
22430.0 0.00066064
22450.0 0.00065185
22470.0 0.00064194
22490.0 0.00063148
22510.0 0.00062083
22530.0 0.00060927
22550.0 0.00059712
22570.0 0.00058525
22590.0 0.00057325
22610.0 0.00056079
22630.0 0.00054856
22650.0 0.00053698
22670.0 0.00052518
22690.0 0.00051356
22710.0 0.00050269
22730.0 0.00049224
22750.0 0.00048167
22770.0 0.00047201
22790.0 0.00046314
22810.0 0.00045455
22830.0 0.00044648
22850.0 0.00043933
22870.0 0.00043271
22890.0 0.00042649
22910.0 0.00042111
22930.0 0.00041651
22950.0 0.00041245
22970.0 0.00040906
22990.0 0.00040661
23010.0 0.00040481
23030.0 0.00040372
23050.0 0.00040339
23070.0 0.00040375
23090.0 0.00040485
23110.0 0.00040664
23130.0 0.00040897
23150.0 0.00041187
23170.0 0.00041539
23190.0 0.00041921
23210.0 0.00042324
23230.0 0.00042767
23250.0 0.00043224
23270.0 0.00043671
23290.0 0.00044123
23310.0 0.00044583
23330.0 0.00045001
23350.0 0.0004539
23370.0 0.00045759
23390.0 0.00046089
23410.0 0.00046364
23430.0 0.00046604
23450.0 0.000468
23470.0 0.00046941
23490.0 0.00047031
23510.0 0.00047074
23530.0 0.00047064
23550.0 0.00047008
23570.0 0.00046907
23590.0 0.00046762
23610.0 0.00046586
23630.0 0.00046382
23650.0 0.00046142
23670.0 0.00045891
