#lamb flux
1010.0 1.1748e-06
1030.0 1.31e-06
1050.0 1.4654e-06
1070.0 1.6404e-06
1090.0 1.8392e-06
1110.0 2.043e-06
1130.0 2.2482e-06
1150.0 2.4631e-06
1170.0 2.6848e-06
1190.0 2.8951e-06
1210.0 3.1081e-06
1230.0 3.3283e-06
1250.0 3.544e-06
1270.0 3.7535e-06
1290.0 3.9748e-06
1310.0 4.196e-06
1330.0 4.4081e-06
1350.0 4.6226e-06
1370.0 4.844e-06
1390.0 5.0599e-06
1410.0 5.2694e-06
1430.0 5.4883e-06
1450.0 5.7072e-06
1470.0 5.9187e-06
1490.0 6.1325e-06
1510.0 6.3582e-06
1530.0 6.5721e-06
1550.0 6.783e-06
1570.0 7.001e-06
1590.0 7.2192e-06
1610.0 7.4276e-06
1630.0 7.6422e-06
1650.0 7.8623e-06
1670.0 8.075e-06
1690.0 8.2847e-06
1710.0 8.5022e-06
1730.0 8.7206e-06
1750.0 8.9254e-06
1770.0 9.1358e-06
1790.0 9.35e-06
1810.0 9.5564e-06
1830.0 9.7584e-06
1850.0 9.9723e-06
1870.0 1.0179e-05
1890.0 1.0378e-05
1910.0 1.0579e-05
1930.0 1.0784e-05
1950.0 1.0978e-05
1970.0 1.1167e-05
1990.0 1.1361e-05
2010.0 1.1549e-05
2030.0 1.1727e-05
2050.0 1.1908e-05
2070.0 1.2091e-05
2090.0 1.2258e-05
2110.0 1.2421e-05
2130.0 1.2585e-05
2150.0 1.274e-05
2170.0 1.2881e-05
2190.0 1.3024e-05
2210.0 1.3162e-05
2230.0 1.3286e-05
2250.0 1.3402e-05
2270.0 1.352e-05
2290.0 1.3624e-05
2310.0 1.3712e-05
2330.0 1.38e-05
2350.0 1.3882e-05
2370.0 1.3951e-05
2390.0 1.4021e-05
2410.0 1.4105e-05
2430.0 1.4197e-05
2450.0 1.4307e-05
2470.0 1.4459e-05
2490.0 1.4665e-05
2510.0 1.4902e-05
2530.0 1.5219e-05
2550.0 1.5677e-05
2570.0 1.6326e-05
2590.0 1.7261e-05
2610.0 1.8768e-05
2630.0 2.0948e-05
2650.0 2.3733e-05
2670.0 2.7207e-05
2690.0 3.1281e-05
2710.0 3.5365e-05
2730.0 3.9124e-05
2750.0 4.2567e-05
2770.0 4.5267e-05
2790.0 4.7115e-05
2810.0 4.8325e-05
2830.0 4.9036e-05
2850.0 4.924e-05
2870.0 4.9171e-05
2890.0 4.8956e-05
2910.0 4.8638e-05
2930.0 4.825e-05
2950.0 4.7859e-05
2970.0 4.7475e-05
2990.0 4.7083e-05
3010.0 0.0013268
3030.0 0.0013165
3050.0 0.0013064
3070.0 0.0012956
3090.0 0.0012844
3110.0 0.0012713
3130.0 0.0012551
3150.0 0.0012346
3170.0 0.0012078
3190.0 0.0011755
3210.0 0.0011396
3230.0 0.0011019
3250.0 0.0010657
3270.0 0.0010391
3290.0 0.0010214
3310.0 0.0010194
3330.0 0.0010298
3350.0 0.0010514
3370.0 0.0010843
3390.0 0.0011271
3410.0 0.0011747
3430.0 0.0012289
3450.0 0.001292
3470.0 0.0013615
3490.0 0.0014358
3510.0 0.0015202
3530.0 0.0016118
3550.0 0.0017085
3570.0 0.0018141
3590.0 0.0019333
3610.0 0.0020644
3630.0 0.0021987
3650.0 0.0023413
3670.0 0.0024724
3690.0 0.0025722
3710.0 0.002626
3730.0 0.0026083
3750.0 0.002517
3770.0 0.0024694
3790.0 0.0023267
3810.0 0.0018904
3830.0 0.0017173
3850.0 0.0020005
3870.0 0.0016363
3890.0 0.0015523
3910.0 0.0020604
3930.0 0.0026523
3950.0 0.0028686
3970.0 0.0032641
3990.0 0.0029534
4010.0 0.0042951
4030.0 0.0040177
4050.0 0.0036318
4070.0 0.0038759
4090.0 0.0037196
4110.0 0.0039742
4130.0 0.0046923
4150.0 0.005592
4170.0 0.0048272
4190.0 0.0044684
4210.0 0.004775
4230.0 0.0057666
4250.0 0.0065897
4270.0 0.0070083
4290.0 0.0066085
4310.0 0.0062874
4330.0 0.0065413
4350.0 0.0081219
4370.0 0.0096105
4390.0 0.008145
4410.0 0.0054379
4430.0 0.0042073
4450.0 0.0037257
4470.0 0.003133
4490.0 0.0041884
4510.0 0.0064903
4530.0 0.0076341
4550.0 0.0079159
4570.0 0.0080043
4590.0 0.0091151
4610.0 0.014905
4630.0 0.019796
4650.0 0.019118
4670.0 0.01733
4690.0 0.018351
4710.0 0.019466
4730.0 0.015909
4750.0 0.010497
4770.0 0.0078956
4790.0 0.0083514
4810.0 0.0082784
4830.0 0.0080325
4850.0 0.0089343
4870.0 0.011777
4890.0 0.013721
4910.0 0.010896
4930.0 0.010066
4950.0 0.011446
4970.0 0.015465
4990.0 0.020641
5010.0 0.023099
5030.0 0.018515
5050.0 0.011276
5070.0 0.0079176
5090.0 0.0065164
5110.0 0.0064236
5130.0 0.0072807
5150.0 0.007245
5170.0 0.0070116
5190.0 0.0065639
5210.0 0.0067395
5230.0 0.0077487
5250.0 0.0087481
5270.0 0.0088143
5290.0 0.009873
5310.0 0.012231
5330.0 0.012709
5350.0 0.012574
5370.0 0.014039
5390.0 0.016657
5410.0 0.014884
5430.0 0.011762
5450.0 0.011372
5470.0 0.013119
5490.0 0.016763
5510.0 0.021041
5530.0 0.024042
5550.0 0.022191
5570.0 0.019844
5590.0 0.016793
5610.0 0.01645
5630.0 0.017309
5650.0 0.016739
5670.0 0.015799
5690.0 0.01345
5710.0 0.013372
5730.0 0.012759
5750.0 0.0075185
5770.0 0.0059539
5790.0 0.0070972
5810.0 0.0081373
5830.0 0.01097
5850.0 0.013345
5870.0 0.013982
5890.0 0.0133
5910.0 0.012787
5930.0 0.012585
5950.0 0.013103
5970.0 0.015411
5990.0 0.013357
6010.0 0.010596
6030.0 0.0086678
6050.0 0.007607
6070.0 0.008475
6090.0 0.0096615
6110.0 0.010174
6130.0 0.009439
6150.0 0.0079063
6170.0 0.0074059
6190.0 0.0091383
6210.0 0.012764
6230.0 0.016877
6250.0 0.017507
6270.0 0.014237
6290.0 0.011984
6310.0 0.0092951
6330.0 0.0070256
6350.0 0.0066071
6370.0 0.0069992
6390.0 0.0084366
6410.0 0.010377
6430.0 0.01233
6450.0 0.0149
6470.0 0.016705
6490.0 0.020403
6510.0 0.022869
6530.0 0.02223
6550.0 0.020407
6570.0 0.017971
6590.0 0.0174
6610.0 0.014808
6630.0 0.014469
6650.0 0.013608
6670.0 0.012921
6690.0 0.011361
6710.0 0.010572
6730.0 0.0071817
6750.0 0.0074383
6770.0 0.0090614
6790.0 0.01127
6810.0 0.0094392
6830.0 0.009687
6850.0 0.0088059
6870.0 0.0083896
6890.0 0.0076797
6910.0 0.0081915
6930.0 0.0076516
6950.0 0.0085359
6970.0 0.0086413
6990.0 0.0096192
7010.0 0.0098793
7030.0 0.010072
7050.0 0.009034
7070.0 0.0082218
7090.0 0.0081627
7110.0 0.0080724
7130.0 0.008779
7150.0 0.0097429
7170.0 0.010674
7190.0 0.011002
7210.0 0.010086
7230.0 0.010254
7250.0 0.011386
7270.0 0.012864
7290.0 0.014918
7310.0 0.015055
7330.0 0.013572
7350.0 0.012095
7370.0 0.0099394
7390.0 0.010263
7410.0 0.011893
7430.0 0.013273
7450.0 0.014307
7470.0 0.014263
7490.0 0.013903
7510.0 0.018307
7530.0 0.016603
7550.0 0.014648
7570.0 0.010494
7590.0 0.0060148
7610.0 0.0048864
7630.0 0.0060221
7650.0 0.0074329
7670.0 0.010142
7690.0 0.01148
7710.0 0.011179
7730.0 0.011182
7750.0 0.013107
7770.0 0.013226
7790.0 0.012404
7810.0 0.011166
7830.0 0.011449
7850.0 0.011466
7870.0 0.010861
7890.0 0.00904
7910.0 0.0067652
7930.0 0.0063738
7950.0 0.0057336
7970.0 0.005195
7990.0 0.0050145
8010.0 0.0050072
8030.0 0.0048825
8050.0 0.0050457
8070.0 0.0051655
8090.0 0.0056192
8110.0 0.0052718
8130.0 0.0040543
8150.0 0.0038827
8170.0 0.0031335
8190.0 0.0028231
8210.0 0.0036633
8230.0 0.0040761
8250.0 0.0030774
8270.0 0.0026872
8290.0 0.00267
8310.0 0.0019708
8330.0 0.0012484
8350.0 0.00095081
8370.0 0.00070734
8390.0 0.0011087
8410.0 0.0013726
8430.0 0.0016979
8450.0 0.0018923
8470.0 0.0024314
8490.0 0.0022122
8510.0 0.0020342
8530.0 0.0017645
8550.0 0.0028455
8570.0 0.0038738
8590.0 0.0036731
8610.0 0.0047814
8630.0 0.0054078
8650.0 0.0046735
8670.0 0.0052301
8690.0 0.0060785
8710.0 0.0055251
8730.0 0.0055469
8750.0 0.0048165
8770.0 0.0045076
8790.0 0.0046759
8810.0 0.0046829
8830.0 0.0033934
8850.0 0.0024045
8870.0 0.0019344
8890.0 0.0023967
8910.0 0.0030075
8930.0 0.0035249
8950.0 0.0040048
8970.0 0.003981
8990.0 0.0035108
9010.0 0.0028717
9030.0 0.0026447
9050.0 0.0027015
9070.0 0.002752
9090.0 0.0027911
9110.0 0.0028336
9130.0 0.002866
9150.0 0.0028913
9170.0 0.0029182
9190.0 0.002947
9210.0 0.0029771
9230.0 0.003009
9250.0 0.0030419
9270.0 0.003076
9290.0 0.0031112
9310.0 0.003147
9330.0 0.0031838
9350.0 0.0032217
9370.0 0.0032603
9390.0 0.0032998
9410.0 0.0033402
9430.0 0.0033817
9450.0 0.0034237
9470.0 0.0034667
9490.0 0.0035107
9510.0 0.0035555
9530.0 0.0036009
9550.0 0.0036475
9570.0 0.0036949
9590.0 0.003743
9610.0 0.0037919
9630.0 0.0038418
9650.0 0.0038924
9670.0 0.0039436
9690.0 0.0039957
9710.0 0.0040486
9730.0 0.0041021
9750.0 0.0041564
9770.0 0.0042116
9790.0 0.0042672
9810.0 0.0043234
9830.0 0.0043804
9850.0 0.0044381
9870.0 0.004496
9890.0 0.0045547
9910.0 0.004614
9930.0 0.0046737
9950.0 0.0047337
9970.0 0.0047944
9990.0 0.0048555
10010.0 0.0045531
10030.0 0.0046089
10050.0 0.004665
10070.0 0.0047207
10090.0 0.0047773
10110.0 0.0048342
10130.0 0.0048911
10150.0 0.004948
10170.0 0.0050049
10190.0 0.0050619
10210.0 0.0051187
10230.0 0.0051754
10250.0 0.0052321
10270.0 0.0052886
10290.0 0.0053447
10310.0 0.0054008
10330.0 0.0054566
10350.0 0.0055119
10370.0 0.0055668
10390.0 0.0056214
10410.0 0.0056756
10430.0 0.0057291
10450.0 0.0057821
10470.0 0.0058346
10490.0 0.0058863
10510.0 0.0059374
10530.0 0.0059879
10550.0 0.0060375
10570.0 0.0060863
10590.0 0.0061343
10610.0 0.0061814
10630.0 0.0062275
10650.0 0.0062727
10670.0 0.0063169
10690.0 0.0063601
10710.0 0.0064022
10730.0 0.0064432
10750.0 0.0064831
10770.0 0.0065218
10790.0 0.0065592
10810.0 0.0065954
10830.0 0.0066301
10850.0 0.0066629
10870.0 0.006693
10890.0 0.0067189
10910.0 0.0067386
10930.0 0.0067487
10950.0 0.0067436
10970.0 0.0067197
10990.0 0.0066752
11010.0 0.0066794
11030.0 0.0065777
11050.0 0.0064535
11070.0 0.006304
11090.0 0.0061231
11110.0 0.0059355
11130.0 0.0057392
11150.0 0.0055275
11170.0 0.0053096
11190.0 0.0050993
11210.0 0.0048836
11230.0 0.0046643
11250.0 0.0044572
11270.0 0.0042606
11290.0 0.0040661
11310.0 0.003884
11330.0 0.0037253
11350.0 0.0035766
11370.0 0.0034398
11390.0 0.0033214
11410.0 0.0032172
11430.0 0.003119
11450.0 0.0030323
11470.0 0.0029547
11490.0 0.0028798
11510.0 0.0028047
11530.0 0.0027324
11550.0 0.0026587
11570.0 0.0025791
11590.0 0.0024963
11610.0 0.0024121
11630.0 0.0023212
11650.0 0.0022252
11670.0 0.0021316
11690.0 0.0020377
11710.0 0.001942
11730.0 0.0018503
11750.0 0.0017659
11770.0 0.0016837
11790.0 0.0016071
11810.0 0.0015395
11830.0 0.0014788
11850.0 0.0014225
11870.0 0.0013746
11890.0 0.0013336
11910.0 0.0012966
11930.0 0.0012633
11950.0 0.001234
11970.0 0.0012064
11990.0 0.0011789
12010.0 0.0011524
12030.0 0.0011259
12050.0 0.0010982
12070.0 0.0010691
12090.0 0.0010408
12110.0 0.0010119
12130.0 0.00098246
12150.0 0.00095449
12170.0 0.00092877
12190.0 0.00090438
12210.0 0.00088365
12230.0 0.00086753
12250.0 0.00085587
12270.0 0.00084947
12290.0 0.00084873
12310.0 0.00085318
12330.0 0.00086364
12350.0 0.00087955
12370.0 0.00089943
12390.0 0.00092378
12410.0 0.00095358
12430.0 0.00098417
12450.0 0.001016
12470.0 0.00105
12490.0 0.0010838
12510.0 0.0011149
12530.0 0.0011453
12550.0 0.001174
12570.0 0.0011982
12590.0 0.0012183
12610.0 0.0012352
12630.0 0.0012473
12650.0 0.0012536
12670.0 0.0012556
12690.0 0.001253
12710.0 0.0012456
12730.0 0.0012341
12750.0 0.0012183
12770.0 0.0011989
12790.0 0.0011768
12810.0 0.0011516
12830.0 0.0011236
12850.0 0.0010948
12870.0 0.0010647
12890.0 0.0010326
12910.0 0.00099996
12930.0 0.00096769
12950.0 0.00093404
12970.0 0.0008996
12990.0 0.00086651
13010.0 0.00083346
13030.0 0.00079972
13050.0 0.0007668
13070.0 0.00073544
13090.0 0.00070366
13110.0 0.00067253
13130.0 0.00064342
13150.0 0.00061557
13170.0 0.00058816
13190.0 0.00056347
13210.0 0.00054152
13230.0 0.00052131
13250.0 0.0005037
13270.0 0.00048946
13290.0 0.00047798
13310.0 0.00046943
13330.0 0.00046437
13350.0 0.00046248
13370.0 0.0004638
13390.0 0.00046841
13410.0 0.00047535
13430.0 0.00048487
13450.0 0.00049696
13470.0 0.00051049
13490.0 0.00052484
13510.0 0.00054115
13530.0 0.00055766
13550.0 0.00057339
13570.0 0.0005889
13590.0 0.00060403
13610.0 0.00061739
13630.0 0.00062894
13650.0 0.00063945
13670.0 0.000648
13690.0 0.00065436
13710.0 0.00065901
13730.0 0.00066198
13750.0 0.00066282
13770.0 0.00066203
13790.0 0.00065968
13810.0 0.00065584
13830.0 0.00065081
13850.0 0.00064451
13870.0 0.00063698
13890.0 0.00062868
13910.0 0.00061961
13930.0 0.00060946
13950.0 0.00059867
13970.0 0.00058787
13990.0 0.00057638
14010.0 0.00056443
14030.0 0.00055271
14050.0 0.0005411
14070.0 0.00052908
14090.0 0.00051773
14110.0 0.00050719
14130.0 0.00049711
14150.0 0.00048775
14170.0 0.00047984
14190.0 0.00047306
14210.0 0.0004674
14230.0 0.00046325
14250.0 0.00046063
14270.0 0.00045945
14290.0 0.0004599
14310.0 0.0004618
14330.0 0.00046511
14350.0 0.00046994
14370.0 0.00047593
14390.0 0.00048276
14410.0 0.00049087
14430.0 0.00049987
14450.0 0.00050922
14470.0 0.00051911
14490.0 0.00052992
14510.0 0.00054064
14530.0 0.00055126
14550.0 0.00056242
14570.0 0.00057382
14590.0 0.00058495
14610.0 0.00059653
14630.0 0.00060894
14650.0 0.00062144
14670.0 0.00063433
14690.0 0.00064843
14710.0 0.0006637
14730.0 0.0006791
14750.0 0.00069592
14770.0 0.00071442
14790.0 0.00073365
14810.0 0.00075353
14830.0 0.00077577
14850.0 0.00079861
14870.0 0.00082122
14890.0 0.00084441
14910.0 0.0008679
14930.0 0.00088961
14950.0 0.00090925
14970.0 0.00092731
14990.0 0.00094213
15010.0 0.00095334
15030.0 0.00096159
15050.0 0.00096706
15070.0 0.0009699
15090.0 0.00097113
15110.0 0.00097123
15130.0 0.00097064
15150.0 0.00096977
15170.0 0.00096865
15190.0 0.00096742
15210.0 0.00096626
15230.0 0.00096511
15250.0 0.00096388
15270.0 0.00096269
15290.0 0.00096164
15310.0 0.00096052
15330.0 0.00095937
15350.0 0.00095833
15370.0 0.00095731
15390.0 0.00095616
15410.0 0.0009551
15430.0 0.00095411
15450.0 0.00095306
15470.0 0.00095197
15490.0 0.00095101
15510.0 0.00095004
15530.0 0.00094898
15550.0 0.00094798
15570.0 0.00094705
15590.0 0.00094601
15610.0 0.00094494
15630.0 0.00094399
15650.0 0.00094302
15670.0 0.00094197
15690.0 0.00094097
15710.0 0.00094004
15730.0 0.000939
15750.0 0.00093794
15770.0 0.00093696
15790.0 0.00093596
15810.0 0.00093483
15830.0 0.00093379
15850.0 0.0009328
15870.0 0.00093171
15890.0 0.0009306
15910.0 0.00092958
15930.0 0.00092849
15950.0 0.0009273
15970.0 0.00092619
15990.0 0.00092509
16010.0 0.0009239
16030.0 0.00092266
16050.0 0.00092155
16070.0 0.00092036
16090.0 0.00091909
16110.0 0.00091787
16130.0 0.00091668
16150.0 0.00091532
16170.0 0.00091398
16190.0 0.00091272
16210.0 0.00091138
16230.0 0.00090995
16250.0 0.0009086
16270.0 0.00090726
16290.0 0.00090578
16310.0 0.0009043
16330.0 0.00090289
16350.0 0.00090139
16370.0 0.00089975
16390.0 0.00089825
16410.0 0.00089672
16430.0 0.00089508
16450.0 0.00089343
16470.0 0.00089187
16490.0 0.00089017
16510.0 0.0008884
16530.0 0.0008867
16550.0 0.00088498
16570.0 0.00088313
16590.0 0.00088128
16610.0 0.00087952
16630.0 0.00087765
16650.0 0.00087571
16670.0 0.00087383
16690.0 0.00087193
16710.0 0.00086985
16730.0 0.00086783
16750.0 0.00086585
16770.0 0.00086377
16790.0 0.00086161
16810.0 0.00085955
16830.0 0.00085744
16850.0 0.0008552
16870.0 0.000853
16890.0 0.00085083
16910.0 0.00084852
16930.0 0.00084615
16950.0 0.00084388
16970.0 0.00084156
16990.0 0.00083913
17010.0 0.00083673
17030.0 0.00083438
17050.0 0.00083187
17070.0 0.00082934
17090.0 0.00082688
17110.0 0.00082436
17130.0 0.00082168
17150.0 0.0008191
17170.0 0.00081654
17190.0 0.00081386
17210.0 0.00081116
17230.0 0.00080853
17250.0 0.00080581
17270.0 0.00080297
17290.0 0.00080021
17310.0 0.00079746
17330.0 0.00079459
17350.0 0.00079167
17370.0 0.00078889
17390.0 0.000786
17410.0 0.00078302
17430.0 0.00078011
17450.0 0.00077721
17470.0 0.00077412
17490.0 0.00077107
17510.0 0.0007681
17530.0 0.00076505
17550.0 0.00076191
17570.0 0.00075885
17590.0 0.0007558
17610.0 0.0007526
17630.0 0.00074943
17650.0 0.00074632
17670.0 0.00074312
17690.0 0.00073978
17710.0 0.00073661
17730.0 0.00073341
17750.0 0.0007301
17770.0 0.00072681
17790.0 0.0007236
17810.0 0.00072025
17830.0 0.00071687
17850.0 0.00071356
17870.0 0.00071024
17890.0 0.00070679
17910.0 0.00070338
17930.0 0.00070007
17950.0 0.00069664
17970.0 0.00069318
17990.0 0.0006898
18010.0 0.00068639
18030.0 0.00068283
18050.0 0.00067936
18070.0 0.00067594
18090.0 0.00067243
18110.0 0.00066887
18130.0 0.00066543
18150.0 0.00066195
18170.0 0.00065837
18190.0 0.00065485
18210.0 0.00065138
18230.0 0.00064778
18250.0 0.00064415
18270.0 0.00064066
18290.0 0.00063712
18310.0 0.00063349
18330.0 0.00062994
18350.0 0.00062644
18370.0 0.00062281
18390.0 0.00061919
18410.0 0.00061565
18430.0 0.00061207
18450.0 0.00060838
18470.0 0.00060481
18490.0 0.00060128
18510.0 0.00059765
18530.0 0.00059402
18550.0 0.0005905
18570.0 0.0005869
18590.0 0.00058322
18610.0 0.00057964
18630.0 0.00057609
18650.0 0.00057244
18670.0 0.0005688
18690.0 0.00056529
18710.0 0.00056171
18730.0 0.00055807
18750.0 0.00055452
18770.0 0.000551
18790.0 0.00054732
18810.0 0.00054372
18830.0 0.00054021
18850.0 0.00053664
18870.0 0.00053302
18890.0 0.00052951
18910.0 0.00052601
18930.0 0.00052241
18950.0 0.00051886
18970.0 0.00051538
18990.0 0.00051184
19010.0 0.00050821
19030.0 0.00050476
19050.0 0.00050129
19070.0 0.00049774
19090.0 0.00049425
19110.0 0.00049085
19130.0 0.00048732
19150.0 0.0004838
19170.0 0.00048038
19190.0 0.00047695
19210.0 0.00047344
19230.0 0.00046999
19250.0 0.00046664
19270.0 0.00046321
19290.0 0.00045977
19310.0 0.00045642
19330.0 0.00045307
19350.0 0.00044959
19370.0 0.00044623
19390.0 0.00044292
19410.0 0.00043955
19430.0 0.00043617
19450.0 0.0004329
19470.0 0.00042961
19490.0 0.00042626
19510.0 0.00042298
19530.0 0.00041975
19550.0 0.00041643
19570.0 0.00041311
19590.0 0.00040992
19610.0 0.0004067
19630.0 0.00040343
19650.0 0.00040024
19670.0 0.0003971
19690.0 0.00039386
19710.0 0.00039066
19730.0 0.00038754
19750.0 0.00038439
19770.0 0.00038117
19790.0 0.00037807
19810.0 0.000375
19830.0 0.00037186
19850.0 0.00036873
19870.0 0.00036566
19890.0 0.00036246
19910.0 0.00035909
19930.0 0.00035561
19950.0 0.00035187
19970.0 0.00034757
19990.0 0.00034273
20010.0 0.00033824
20030.0 0.0003322
20050.0 0.00032541
20070.0 0.0003183
20090.0 0.00031085
20110.0 0.00030267
20130.0 0.00029457
20150.0 0.00028667
20170.0 0.00027864
20190.0 0.00027062
20210.0 0.00026312
20230.0 0.00025587
20250.0 0.00024867
20270.0 0.00024201
20290.0 0.00023592
20310.0 0.00023014
20330.0 0.00022473
20350.0 0.00022017
20370.0 0.00021609
20390.0 0.00021247
20410.0 0.00020948
20430.0 0.0002071
20450.0 0.00020517
20470.0 0.00020379
20490.0 0.00020294
20510.0 0.00020254
20530.0 0.0002026
20550.0 0.00020307
20570.0 0.00020385
20590.0 0.00020499
20610.0 0.00020644
20630.0 0.00020807
20650.0 0.00020992
20670.0 0.00021209
20690.0 0.00021429
20710.0 0.00021657
20730.0 0.00021903
20750.0 0.00022159
20770.0 0.00022406
20790.0 0.00022664
20810.0 0.00022933
20830.0 0.00023197
20850.0 0.00023457
20870.0 0.00023733
20890.0 0.00024011
20910.0 0.00024274
20930.0 0.00024545
20950.0 0.00024824
20970.0 0.00025094
20990.0 0.00025358
21010.0 0.00025638
21030.0 0.0002591
21050.0 0.0002617
21070.0 0.0002643
21090.0 0.00026695
21110.0 0.00026937
21130.0 0.00027166
21150.0 0.00027394
21170.0 0.00027605
21190.0 0.00027791
21210.0 0.00027969
21230.0 0.0002813
21250.0 0.00028258
21270.0 0.00028361
21290.0 0.0002844
21310.0 0.00028484
21330.0 0.0002849
21350.0 0.00028462
21370.0 0.0002839
21390.0 0.00028277
21410.0 0.00028121
21430.0 0.00027907
21450.0 0.00027649
21470.0 0.00027352
21490.0 0.00027003
21510.0 0.00026603
21530.0 0.0002618
21550.0 0.00025722
21570.0 0.00025217
21590.0 0.00024702
21610.0 0.00024186
21630.0 0.00023651
21650.0 0.00023107
21670.0 0.00022612
21690.0 0.00022131
21710.0 0.00021669
21730.0 0.00021257
21750.0 0.000209
21770.0 0.00020576
21790.0 0.00020314
21810.0 0.00020118
21830.0 0.00019981
21850.0 0.00019905
21870.0 0.00019892
21890.0 0.00019936
21910.0 0.00020039
21930.0 0.00020198
21950.0 0.00020398
21970.0 0.00020646
21990.0 0.00020952
22010.0 0.00021278
22030.0 0.00021629
22050.0 0.00022019
22070.0 0.00022431
22090.0 0.00022837
22110.0 0.00023264
22130.0 0.00023709
22150.0 0.0002414
22170.0 0.0002456
22190.0 0.00024992
22210.0 0.00025406
22230.0 0.0002578
22250.0 0.00026142
22270.0 0.00026484
22290.0 0.00026782
22310.0 0.00027044
22330.0 0.00027281
22350.0 0.00027471
22370.0 0.0002761
22390.0 0.00027707
22410.0 0.00027756
22430.0 0.0002775
22450.0 0.00027695
22470.0 0.00027586
22490.0 0.00027422
22510.0 0.00027214
22530.0 0.00026944
22550.0 0.00026613
22570.0 0.00026244
22590.0 0.00025828
22610.0 0.00025348
22630.0 0.00024827
22650.0 0.00024287
22670.0 0.00023689
22690.0 0.00023048
22710.0 0.00022398
22730.0 0.00021725
22750.0 0.00020992
22770.0 0.00020271
22790.0 0.00019564
22810.0 0.00018834
22830.0 0.00018103
22850.0 0.00017415
22870.0 0.00016738
22890.0 0.00016064
22910.0 0.00015441
22930.0 0.00014871
22950.0 0.00014328
22970.0 0.00013828
22990.0 0.00013416
23010.0 0.00013054
23030.0 0.00012748
23050.0 0.00012516
23070.0 0.00012355
23090.0 0.00012255
23110.0 0.00012229
23130.0 0.0001227
23150.0 0.00012375
23170.0 0.00012549
23190.0 0.00012775
23210.0 0.00013045
23230.0 0.00013373
23250.0 0.00013741
