#lamb flux
1010.0 5.7193e-10
1030.0 7.1941e-10
1050.0 8.8902e-10
1070.0 1.08e-09
1090.0 1.297e-09
1110.0 1.5196e-09
1130.0 1.7437e-09
1150.0 1.9785e-09
1170.0 2.2209e-09
1190.0 2.4507e-09
1210.0 2.6837e-09
1230.0 2.9246e-09
1250.0 3.1606e-09
1270.0 3.3898e-09
1290.0 3.632e-09
1310.0 3.8739e-09
1330.0 4.1059e-09
1350.0 4.3403e-09
1370.0 4.5823e-09
1390.0 4.818e-09
1410.0 5.0466e-09
1430.0 5.2854e-09
1450.0 5.5241e-09
1470.0 5.7546e-09
1490.0 5.9875e-09
1510.0 6.2334e-09
1530.0 6.4664e-09
1550.0 6.6961e-09
1570.0 6.9339e-09
1590.0 7.172e-09
1610.0 7.3995e-09
1630.0 7.6342e-09
1650.0 7.8752e-09
1670.0 8.1086e-09
1690.0 8.3391e-09
1710.0 8.5789e-09
1730.0 8.8203e-09
1750.0 9.0477e-09
1770.0 9.2822e-09
1790.0 9.5218e-09
1810.0 9.7542e-09
1830.0 9.9831e-09
1850.0 1.0227e-08
1870.0 1.0465e-08
1890.0 1.0696e-08
1910.0 1.0932e-08
1930.0 1.1174e-08
1950.0 1.1407e-08
1970.0 1.1637e-08
1990.0 1.1877e-08
2010.0 1.2114e-08
2030.0 1.2344e-08
2050.0 1.2581e-08
2070.0 1.2826e-08
2090.0 1.3058e-08
2110.0 1.3291e-08
2130.0 1.3532e-08
2150.0 1.377e-08
2170.0 1.3999e-08
2190.0 1.4238e-08
2210.0 1.448e-08
2230.0 1.4715e-08
2250.0 1.4951e-08
2270.0 1.5198e-08
2290.0 1.544e-08
2310.0 1.5675e-08
2330.0 1.5918e-08
2350.0 1.6165e-08
2370.0 1.6404e-08
2390.0 1.6646e-08
2410.0 1.69e-08
2430.0 1.7152e-08
2450.0 1.7408e-08
2470.0 1.7692e-08
2490.0 1.8022e-08
2510.0 1.8403e-08
2530.0 1.8897e-08
2550.0 1.958e-08
2570.0 2.0499e-08
2590.0 2.1714e-08
2610.0 2.3451e-08
2630.0 2.5754e-08
2650.0 2.8571e-08
2670.0 3.205e-08
2690.0 3.6262e-08
2710.0 4.0879e-08
2730.0 4.5735e-08
2750.0 5.099e-08
2770.0 5.6207e-08
2790.0 6.1058e-08
2810.0 6.5616e-08
2830.0 6.9883e-08
2850.0 7.3468e-08
2870.0 7.6641e-08
2890.0 7.9596e-08
2910.0 8.2357e-08
2930.0 8.4975e-08
2950.0 8.7666e-08
2970.0 9.0463e-08
2990.0 9.3319e-08
3010.0 9.6293e-08
3030.0 9.947e-08
3050.0 1.028e-07
3070.0 1.0618e-07
3090.0 1.0977e-07
3110.0 1.1359e-07
3130.0 1.1768e-07
3150.0 1.2234e-07
3170.0 1.2828e-07
3190.0 1.3601e-07
3210.0 1.4613e-07
3230.0 1.5961e-07
3250.0 1.7673e-07
3270.0 1.9302e-07
3290.0 2.1887e-07
3310.0 2.718e-07
3330.0 2.8939e-07
3350.0 2.9805e-07
3370.0 3.0636e-07
3390.0 3.1482e-07
3410.0 3.2337e-07
3430.0 3.3198e-07
3450.0 3.406e-07
3470.0 3.4906e-07
3490.0 3.5722e-07
3510.0 3.6461e-07
3530.0 3.6135e-07
3550.0 3.5137e-07
3570.0 3.5654e-07
3590.0 3.7905e-07
3610.0 4.1313e-07
3630.0 4.267e-07
3650.0 4.0985e-07
3670.0 3.7642e-07
3690.0 3.5698e-07
3710.0 3.6147e-07
3730.0 3.7336e-07
3750.0 3.7976e-07
3770.0 3.9255e-07
3790.0 4.0684e-07
3810.0 4.0108e-07
3830.0 3.7379e-07
3850.0 3.4936e-07
3870.0 3.3776e-07
3890.0 3.3391e-07
3910.0 3.2643e-07
3930.0 3.2266e-07
3950.0 3.3175e-07
3970.0 3.424e-07
3990.0 3.4549e-07
4010.0 3.328e-07
4030.0 3.1469e-07
4050.0 3.0305e-07
4070.0 2.932e-07
4090.0 2.8523e-07
4110.0 2.7481e-07
4130.0 2.5838e-07
4150.0 2.4185e-07
4170.0 2.3204e-07
4190.0 2.1637e-07
4210.0 1.9588e-07
4230.0 1.7514e-07
4250.0 1.5544e-07
4270.0 1.4073e-07
4290.0 1.2986e-07
4310.0 1.2411e-07
4330.0 1.239e-07
4350.0 1.2452e-07
4370.0 1.2571e-07
4390.0 1.3036e-07
4410.0 1.3357e-07
4430.0 1.2895e-07
4450.0 1.1708e-07
4470.0 1.067e-07
4490.0 1.0106e-07
4510.0 9.7435e-08
4530.0 9.5622e-08
4550.0 9.4067e-08
4570.0 9.3671e-08
4590.0 9.4957e-08
4610.0 9.7869e-08
4630.0 9.9605e-08
4650.0 1.0046e-07
4670.0 9.8019e-08
4690.0 9.2185e-08
4710.0 8.6375e-08
4730.0 8.261e-08
4750.0 8.0297e-08
4770.0 8.0587e-08
4790.0 8.0272e-08
4810.0 7.8551e-08
4830.0 7.871e-08
4850.0 8.1164e-08
4870.0 8.1974e-08
4890.0 8.0499e-08
4910.0 7.863e-08
4930.0 7.4153e-08
4950.0 6.7695e-08
4970.0 6.3271e-08
4990.0 5.9642e-08
5010.0 5.8865e-08
5030.0 6.0848e-08
5050.0 6.2407e-08
5070.0 6.474e-08
5090.0 6.8653e-08
5110.0 6.9699e-08
5130.0 7.0306e-08
5150.0 7.1603e-08
5170.0 7.2206e-08
5190.0 7.41e-08
5210.0 7.4484e-08
5230.0 7.3717e-08
5250.0 7.4311e-08
5270.0 7.5347e-08
5290.0 7.555e-08
5310.0 7.4987e-08
5330.0 7.3562e-08
5350.0 7.2561e-08
5370.0 7.1788e-08
5390.0 7.0837e-08
5410.0 7.005e-08
5430.0 7.0025e-08
5450.0 7.1053e-08
5470.0 7.2373e-08
5490.0 7.4428e-08
5510.0 7.6681e-08
5530.0 7.7627e-08
5550.0 7.8782e-08
5570.0 7.8953e-08
5590.0 7.732e-08
5610.0 7.676e-08
5630.0 7.7337e-08
5650.0 7.6401e-08
5670.0 7.471e-08
5690.0 7.2473e-08
5710.0 7.228e-08
5730.0 7.3044e-08
5750.0 6.9932e-08
5770.0 6.6344e-08
5790.0 6.0995e-08
5810.0 5.3357e-08
5830.0 5.7517e-08
5850.0 6.3671e-08
5870.0 6.5049e-08
5890.0 6.5398e-08
5910.0 6.5934e-08
5930.0 6.5794e-08
5950.0 6.4706e-08
5970.0 6.3934e-08
5990.0 6.3013e-08
6010.0 6.1094e-08
6030.0 5.9001e-08
6050.0 5.8079e-08
6070.0 5.7816e-08
6090.0 5.6939e-08
6110.0 5.5043e-08
6130.0 5.3169e-08
6150.0 5.1036e-08
6170.0 4.8903e-08
6190.0 4.6709e-08
6210.0 4.5061e-08
6230.0 4.4408e-08
6250.0 4.3467e-08
6270.0 4.2558e-08
6290.0 4.2229e-08
6310.0 4.1957e-08
6330.0 4.1035e-08
6350.0 3.9701e-08
6370.0 3.8943e-08
6390.0 3.8174e-08
6410.0 3.711e-08
6430.0 3.6103e-08
6450.0 3.5309e-08
6470.0 3.4555e-08
6490.0 3.4029e-08
6510.0 3.3439e-08
6530.0 3.259e-08
6550.0 3.1869e-08
6570.0 3.1376e-08
6590.0 3.1326e-08
6610.0 3.1129e-08
6630.0 3.0088e-08
6650.0 2.9237e-08
6670.0 2.8933e-08
6690.0 2.8478e-08
6710.0 2.7794e-08
6730.0 2.7548e-08
6750.0 2.7762e-08
6770.0 2.9411e-08
6790.0 3.2866e-08
6810.0 3.121e-08
6830.0 2.7417e-08
6850.0 2.6333e-08
6870.0 2.593e-08
6890.0 2.5933e-08
6910.0 2.5988e-08
6930.0 2.6047e-08
6950.0 2.5968e-08
6970.0 2.5308e-08
6990.0 2.508e-08
7010.0 2.5453e-08
7030.0 2.5573e-08
7050.0 2.5202e-08
7070.0 2.4946e-08
7090.0 2.5106e-08
7110.0 2.5691e-08
7130.0 2.5775e-08
7150.0 2.5871e-08
7170.0 2.6009e-08
7190.0 2.6369e-08
7210.0 2.6655e-08
7230.0 2.6943e-08
7250.0 2.7301e-08
7270.0 2.7558e-08
7290.0 2.7993e-08
7310.0 2.8508e-08
7330.0 2.8287e-08
7350.0 2.7693e-08
7370.0 2.7317e-08
7390.0 2.7252e-08
7410.0 2.7363e-08
7430.0 2.7705e-08
7450.0 2.7877e-08
7470.0 2.8273e-08
7490.0 2.8111e-08
7510.0 2.7804e-08
7530.0 2.8131e-08
7550.0 2.9001e-08
7570.0 2.8928e-08
7590.0 2.7435e-08
7610.0 2.7208e-08
7630.0 2.8748e-08
7650.0 2.9325e-08
7670.0 2.9521e-08
7690.0 3.0835e-08
7710.0 3.1832e-08
7730.0 3.2139e-08
7750.0 3.3814e-08
7770.0 3.295e-08
7790.0 3.2168e-08
7810.0 3.4078e-08
7830.0 3.5385e-08
7850.0 3.627e-08
7870.0 3.6985e-08
7890.0 3.7269e-08
7910.0 3.6995e-08
7930.0 3.725e-08
7950.0 3.8931e-08
7970.0 3.8922e-08
7990.0 3.6254e-08
8010.0 3.4767e-08
8030.0 3.5464e-08
8050.0 3.6225e-08
8070.0 3.2769e-08
8090.0 2.1431e-08
8110.0 2.238e-08
8130.0 3.1966e-08
8150.0 3.4427e-08
8170.0 3.5794e-08
8190.0 3.657e-08
8210.0 3.611e-08
8230.0 3.915e-08
8250.0 4.0006e-08
8270.0 3.7829e-08
8290.0 3.6333e-08
8310.0 3.5805e-08
8330.0 3.7762e-08
8350.0 3.9549e-08
8370.0 3.8801e-08
8390.0 3.7001e-08
8410.0 3.6966e-08
8430.0 3.4634e-08
8450.0 3.5396e-08
8470.0 3.8679e-08
8490.0 3.8796e-08
8510.0 3.5975e-08
8530.0 3.3714e-08
8550.0 3.2316e-08
8570.0 3.0458e-08
8590.0 3.1328e-08
8610.0 3.3244e-08
8630.0 3.4134e-08
8650.0 3.4725e-08
8670.0 3.377e-08
8690.0 3.2984e-08
8710.0 3.0676e-08
8730.0 2.9575e-08
8750.0 3.0785e-08
8770.0 3.1268e-08
8790.0 3.1169e-08
8810.0 3.1022e-08
8830.0 3.1685e-08
8850.0 3.327e-08
8870.0 3.1067e-08
8890.0 2.9303e-08
8910.0 2.8871e-08
8930.0 2.7135e-08
8950.0 2.6143e-08
8970.0 2.6132e-08
8990.0 2.5015e-08
9010.0 2.3484e-08
9030.0 2.2951e-08
9050.0 2.2759e-08
9070.0 2.2589e-08
9090.0 2.2417e-08
9110.0 2.2245e-08
9130.0 2.2072e-08
9150.0 2.1898e-08
9170.0 2.1723e-08
9190.0 2.1548e-08
9210.0 2.1373e-08
9230.0 2.1197e-08
9250.0 2.1022e-08
9270.0 2.0847e-08
9290.0 2.0672e-08
9310.0 2.0498e-08
9330.0 2.0324e-08
9350.0 2.015e-08
9370.0 1.9978e-08
9390.0 1.9806e-08
9410.0 1.9635e-08
9430.0 1.9465e-08
9450.0 1.9296e-08
9470.0 1.9128e-08
9490.0 1.8961e-08
9510.0 1.8796e-08
9530.0 1.8631e-08
9550.0 1.8469e-08
9570.0 1.8307e-08
9590.0 1.8147e-08
9610.0 1.7989e-08
9630.0 1.7832e-08
9650.0 1.7676e-08
9670.0 1.7522e-08
9690.0 1.737e-08
9710.0 1.7219e-08
9730.0 1.707e-08
9750.0 1.6922e-08
9770.0 1.6776e-08
9790.0 1.6632e-08
9810.0 1.6489e-08
9830.0 1.6349e-08
9850.0 1.6209e-08
9870.0 1.6072e-08
9890.0 1.5936e-08
9910.0 1.5802e-08
9930.0 1.5669e-08
9950.0 1.5538e-08
9970.0 1.5409e-08
9990.0 1.5281e-08
10010.0 1.5155e-08
10030.0 1.5031e-08
10050.0 1.4908e-08
10070.0 1.4787e-08
10090.0 1.4667e-08
10110.0 1.4549e-08
10130.0 1.4432e-08
10150.0 1.4317e-08
10170.0 1.4204e-08
10190.0 1.4092e-08
10210.0 1.3981e-08
10230.0 1.3872e-08
10250.0 1.3764e-08
10270.0 1.3658e-08
10290.0 1.3553e-08
10310.0 1.3449e-08
10330.0 1.3347e-08
10350.0 1.3246e-08
10370.0 1.3146e-08
10390.0 1.3047e-08
10410.0 1.2929e-08
10430.0 1.2807e-08
10450.0 1.2734e-08
10470.0 1.2651e-08
10490.0 1.2566e-08
10510.0 1.248e-08
10530.0 1.2391e-08
10550.0 1.2302e-08
10570.0 1.2216e-08
10590.0 1.213e-08
10610.0 1.2043e-08
10630.0 1.1959e-08
10650.0 1.1876e-08
10670.0 1.1792e-08
10690.0 1.171e-08
10710.0 1.163e-08
10730.0 1.155e-08
10750.0 1.1469e-08
10770.0 1.1392e-08
10790.0 1.1315e-08
10810.0 1.1238e-08
10830.0 1.1162e-08
10850.0 1.1089e-08
10870.0 1.1013e-08
10890.0 1.0938e-08
10910.0 1.0866e-08
10930.0 1.0793e-08
10950.0 1.0719e-08
10970.0 1.0645e-08
10990.0 1.0573e-08
11010.0 1.0505e-08
11030.0 1.0428e-08
11050.0 1.0353e-08
11070.0 1.0275e-08
11090.0 1.0194e-08
11110.0 1.0114e-08
11130.0 1.0035e-08
11150.0 9.9524e-09
11170.0 9.8691e-09
11190.0 9.7883e-09
11210.0 9.7055e-09
11230.0 9.6209e-09
11250.0 9.5391e-09
11270.0 9.4593e-09
11290.0 9.3784e-09
11310.0 9.2997e-09
11330.0 9.2273e-09
11350.0 9.1563e-09
11370.0 9.0872e-09
11390.0 9.0233e-09
11410.0 8.9631e-09
11430.0 8.9032e-09
11450.0 8.8468e-09
11470.0 8.7939e-09
11490.0 8.7417e-09
11510.0 8.6892e-09
11530.0 8.6392e-09
11550.0 8.5897e-09
11570.0 8.5382e-09
11590.0 8.4866e-09
11610.0 8.4356e-09
11630.0 8.382e-09
11650.0 8.326e-09
11670.0 8.2711e-09
11690.0 8.2151e-09
11710.0 8.1564e-09
11730.0 8.0975e-09
11750.0 8.04e-09
11770.0 7.9801e-09
11790.0 7.9194e-09
11810.0 7.8606e-09
11830.0 7.8024e-09
11850.0 7.7421e-09
11870.0 7.6846e-09
11890.0 7.6302e-09
11910.0 7.5759e-09
11930.0 7.5231e-09
11950.0 7.4745e-09
11970.0 7.4278e-09
11990.0 7.382e-09
12010.0 7.3401e-09
12030.0 7.3018e-09
12050.0 7.2652e-09
12070.0 7.2309e-09
12090.0 7.2011e-09
12110.0 7.1733e-09
12130.0 7.1471e-09
12150.0 7.1236e-09
12170.0 7.1023e-09
12190.0 7.0812e-09
12210.0 7.0611e-09
12230.0 7.0421e-09
12250.0 7.0226e-09
12270.0 7.0018e-09
12290.0 6.9801e-09
12310.0 6.9574e-09
12330.0 6.9314e-09
12350.0 6.9027e-09
12370.0 6.8721e-09
12390.0 6.8381e-09
12410.0 6.7989e-09
12430.0 6.7583e-09
12450.0 6.7152e-09
12470.0 6.6676e-09
12490.0 6.6171e-09
12510.0 6.5664e-09
12530.0 6.5121e-09
12550.0 6.4544e-09
12570.0 6.397e-09
12590.0 6.3391e-09
12610.0 6.2779e-09
12630.0 6.2163e-09
12650.0 6.1579e-09
12670.0 6.098e-09
12690.0 6.0377e-09
12710.0 5.9804e-09
12730.0 5.925e-09
12750.0 5.8682e-09
12770.0 5.8147e-09
12790.0 5.7649e-09
12810.0 5.7164e-09
12830.0 5.6693e-09
12850.0 5.6271e-09
12870.0 5.5878e-09
12890.0 5.5501e-09
12910.0 5.5161e-09
12930.0 5.4862e-09
12950.0 5.4585e-09
12970.0 5.4338e-09
12990.0 5.4137e-09
13010.0 5.3968e-09
13030.0 5.3827e-09
13050.0 5.372e-09
13070.0 5.3644e-09
13090.0 5.3589e-09
13110.0 5.3554e-09
13130.0 5.3534e-09
13150.0 5.3521e-09
13170.0 5.3509e-09
13190.0 5.3492e-09
13210.0 5.3462e-09
13230.0 5.3414e-09
13250.0 5.3342e-09
13270.0 5.3245e-09
13290.0 5.3119e-09
13310.0 5.2954e-09
13330.0 5.276e-09
13350.0 5.2538e-09
13370.0 5.2277e-09
13390.0 5.1978e-09
13410.0 5.1668e-09
13430.0 5.1326e-09
13450.0 5.0949e-09
13470.0 5.0556e-09
13490.0 5.0155e-09
13510.0 4.9708e-09
13530.0 4.9248e-09
13550.0 4.8791e-09
13570.0 4.8315e-09
13590.0 4.7814e-09
13610.0 4.732e-09
13630.0 4.6831e-09
13650.0 4.6316e-09
13670.0 4.58e-09
13690.0 4.5301e-09
13710.0 4.4793e-09
13730.0 4.4262e-09
13750.0 4.3766e-09
13770.0 4.328e-09
13790.0 4.2786e-09
13810.0 4.2304e-09
13830.0 4.1854e-09
13850.0 4.1402e-09
13870.0 4.0954e-09
13890.0 4.0537e-09
13910.0 4.0137e-09
13930.0 3.9737e-09
13950.0 3.9354e-09
13970.0 3.9005e-09
13990.0 3.8659e-09
14010.0 3.8322e-09
14030.0 3.801e-09
14050.0 3.7713e-09
14070.0 3.7414e-09
14090.0 3.7138e-09
14110.0 3.6882e-09
14130.0 3.6632e-09
14150.0 3.639e-09
14170.0 3.617e-09
14190.0 3.5961e-09
14210.0 3.5754e-09
14230.0 3.5559e-09
14250.0 3.5377e-09
14270.0 3.5194e-09
14290.0 3.5013e-09
14310.0 3.4846e-09
14330.0 3.4682e-09
14350.0 3.4516e-09
14370.0 3.4356e-09
14390.0 3.4204e-09
14410.0 3.4048e-09
14430.0 3.3894e-09
14450.0 3.3747e-09
14470.0 3.3601e-09
14490.0 3.3449e-09
14510.0 3.3304e-09
14530.0 3.3164e-09
14550.0 3.3018e-09
14570.0 3.2872e-09
14590.0 3.2731e-09
14610.0 3.2586e-09
14630.0 3.2434e-09
14650.0 3.2286e-09
14670.0 3.2139e-09
14690.0 3.1985e-09
14710.0 3.1827e-09
14730.0 3.1676e-09
14750.0 3.1519e-09
14770.0 3.1355e-09
14790.0 3.1194e-09
14810.0 3.1033e-09
14830.0 3.0858e-09
14850.0 3.0684e-09
14870.0 3.0513e-09
14890.0 3.0338e-09
14910.0 3.0159e-09
14930.0 2.999e-09
14950.0 2.9829e-09
14970.0 2.9671e-09
14990.0 2.9527e-09
15010.0 2.9402e-09
15030.0 2.9288e-09
15050.0 2.9183e-09
15070.0 2.9094e-09
15090.0 2.9014e-09
15110.0 2.8936e-09
15130.0 2.8862e-09
15150.0 2.8792e-09
15170.0 2.8721e-09
15190.0 2.8649e-09
15210.0 2.858e-09
15230.0 2.8511e-09
15250.0 2.8439e-09
15270.0 2.8368e-09
15290.0 2.83e-09
15310.0 2.823e-09
15330.0 2.8159e-09
15350.0 2.809e-09
15370.0 2.8022e-09
15390.0 2.7949e-09
15410.0 2.7879e-09
15430.0 2.7811e-09
15450.0 2.774e-09
15470.0 2.7668e-09
15490.0 2.76e-09
15510.0 2.7531e-09
15530.0 2.746e-09
15550.0 2.739e-09
15570.0 2.7322e-09
15590.0 2.7251e-09
15610.0 2.7178e-09
15630.0 2.711e-09
15650.0 2.7041e-09
15670.0 2.6969e-09
15690.0 2.6899e-09
15710.0 2.6832e-09
15730.0 2.6761e-09
15750.0 2.669e-09
15770.0 2.6621e-09
15790.0 2.6552e-09
15810.0 2.6479e-09
15830.0 2.6409e-09
15850.0 2.6341e-09
15870.0 2.627e-09
15890.0 2.62e-09
15910.0 2.6131e-09
15930.0 2.6062e-09
15950.0 2.599e-09
15970.0 2.592e-09
15990.0 2.5852e-09
16010.0 2.5781e-09
16030.0 2.5709e-09
16050.0 2.5641e-09
16070.0 2.5571e-09
16090.0 2.55e-09
16110.0 2.5431e-09
16130.0 2.5363e-09
16150.0 2.5291e-09
16170.0 2.522e-09
16190.0 2.5151e-09
16210.0 2.5081e-09
16230.0 2.501e-09
16250.0 2.4941e-09
16270.0 2.4872e-09
16290.0 2.4801e-09
16310.0 2.4731e-09
16330.0 2.4662e-09
16350.0 2.4592e-09
16370.0 2.4519e-09
16390.0 2.4451e-09
16410.0 2.4382e-09
16430.0 2.4311e-09
16450.0 2.424e-09
16470.0 2.4173e-09
16490.0 2.4102e-09
16510.0 2.4031e-09
16530.0 2.3962e-09
16550.0 2.3893e-09
16570.0 2.3821e-09
16590.0 2.375e-09
16610.0 2.3682e-09
16630.0 2.3612e-09
16650.0 2.3541e-09
16670.0 2.3472e-09
16690.0 2.3404e-09
16710.0 2.3331e-09
16730.0 2.3261e-09
16750.0 2.3192e-09
16770.0 2.3122e-09
16790.0 2.305e-09
16810.0 2.2982e-09
16830.0 2.2913e-09
16850.0 2.2842e-09
16870.0 2.2772e-09
16890.0 2.2704e-09
16910.0 2.2633e-09
16930.0 2.256e-09
16950.0 2.2492e-09
16970.0 2.2423e-09
16990.0 2.2351e-09
17010.0 2.2282e-09
17030.0 2.2214e-09
17050.0 2.2143e-09
17070.0 2.2072e-09
17090.0 2.2003e-09
17110.0 2.1934e-09
17130.0 2.1861e-09
17150.0 2.1791e-09
17170.0 2.1723e-09
17190.0 2.1652e-09
17210.0 2.1582e-09
17230.0 2.1514e-09
17250.0 2.1444e-09
17270.0 2.1372e-09
17290.0 2.1302e-09
17310.0 2.1234e-09
17330.0 2.1163e-09
17350.0 2.1091e-09
17370.0 2.1023e-09
17390.0 2.0954e-09
17410.0 2.0882e-09
17430.0 2.0813e-09
17450.0 2.0745e-09
17470.0 2.0673e-09
17490.0 2.0602e-09
17510.0 2.0533e-09
17530.0 2.0463e-09
17550.0 2.0392e-09
17570.0 2.0323e-09
17590.0 2.0255e-09
17610.0 2.0183e-09
17630.0 2.0113e-09
17650.0 2.0044e-09
17670.0 1.9974e-09
17690.0 1.9901e-09
17710.0 1.9833e-09
17730.0 1.9764e-09
17750.0 1.9693e-09
17770.0 1.9623e-09
17790.0 1.9555e-09
17810.0 1.9484e-09
17830.0 1.9413e-09
17850.0 1.9344e-09
17870.0 1.9275e-09
17890.0 1.9203e-09
17910.0 1.9132e-09
17930.0 1.9064e-09
17950.0 1.8994e-09
17970.0 1.8923e-09
17990.0 1.8855e-09
18010.0 1.8786e-09
18030.0 1.8713e-09
18050.0 1.8643e-09
18070.0 1.8575e-09
18090.0 1.8504e-09
18110.0 1.8432e-09
18130.0 1.8364e-09
18150.0 1.8295e-09
18170.0 1.8224e-09
18190.0 1.8154e-09
18210.0 1.8086e-09
18230.0 1.8014e-09
18250.0 1.7943e-09
18270.0 1.7874e-09
18290.0 1.7805e-09
18310.0 1.7733e-09
18330.0 1.7664e-09
18350.0 1.7596e-09
18370.0 1.7525e-09
18390.0 1.7454e-09
18410.0 1.7385e-09
18430.0 1.7316e-09
18450.0 1.7243e-09
18470.0 1.7174e-09
18490.0 1.7105e-09
18510.0 1.7035e-09
18530.0 1.6964e-09
18550.0 1.6896e-09
18570.0 1.6826e-09
18590.0 1.6754e-09
18610.0 1.6685e-09
18630.0 1.6616e-09
18650.0 1.6545e-09
18670.0 1.6473e-09
18690.0 1.6406e-09
18710.0 1.6336e-09
18730.0 1.6265e-09
18750.0 1.6195e-09
18770.0 1.6127e-09
18790.0 1.6055e-09
18810.0 1.5984e-09
18830.0 1.5916e-09
18850.0 1.5846e-09
18870.0 1.5774e-09
18890.0 1.5705e-09
18910.0 1.5637e-09
18930.0 1.5565e-09
18950.0 1.5495e-09
18970.0 1.5427e-09
18990.0 1.5357e-09
19010.0 1.5284e-09
19030.0 1.5215e-09
19050.0 1.5146e-09
19070.0 1.5075e-09
19090.0 1.5005e-09
19110.0 1.4938e-09
19130.0 1.4867e-09
19150.0 1.4795e-09
19170.0 1.4726e-09
19190.0 1.4657e-09
19210.0 1.4585e-09
19230.0 1.4515e-09
19250.0 1.4447e-09
19270.0 1.4377e-09
19290.0 1.4306e-09
19310.0 1.4237e-09
19330.0 1.4168e-09
19350.0 1.4095e-09
19370.0 1.4026e-09
19390.0 1.3957e-09
19410.0 1.3886e-09
19430.0 1.3815e-09
19450.0 1.3747e-09
19470.0 1.3678e-09
19490.0 1.3606e-09
19510.0 1.3537e-09
19530.0 1.3468e-09
19550.0 1.3397e-09
19570.0 1.3325e-09
19590.0 1.3257e-09
19610.0 1.3187e-09
19630.0 1.3116e-09
19650.0 1.3047e-09
19670.0 1.2979e-09
19690.0 1.2907e-09
19710.0 1.2837e-09
19730.0 1.2768e-09
19750.0 1.2698e-09
19770.0 1.2626e-09
19790.0 1.2557e-09
19810.0 1.2488e-09
19830.0 1.2417e-09
19850.0 1.2347e-09
19870.0 1.228e-09
19890.0 1.2211e-09
19910.0 1.2142e-09
19930.0 1.2077e-09
19950.0 1.2017e-09
19970.0 1.1959e-09
19990.0 1.1907e-09
20010.0 1.1865e-09
20030.0 1.1827e-09
20050.0 1.1797e-09
20070.0 1.1772e-09
20090.0 1.1753e-09
20110.0 1.1736e-09
20130.0 1.1721e-09
20150.0 1.1708e-09
20170.0 1.1695e-09
20190.0 1.1682e-09
20210.0 1.1669e-09
20230.0 1.1656e-09
20250.0 1.1641e-09
20270.0 1.1625e-09
20290.0 1.161e-09
20310.0 1.1593e-09
20330.0 1.1574e-09
20350.0 1.1556e-09
20370.0 1.1536e-09
20390.0 1.1515e-09
20410.0 1.1494e-09
20430.0 1.1472e-09
20450.0 1.1449e-09
20470.0 1.1425e-09
20490.0 1.1402e-09
20510.0 1.1379e-09
20530.0 1.1355e-09
20550.0 1.1332e-09
20570.0 1.131e-09
20590.0 1.1287e-09
20610.0 1.1265e-09
20630.0 1.1244e-09
20650.0 1.1224e-09
20670.0 1.1202e-09
20690.0 1.1182e-09
20710.0 1.1162e-09
20730.0 1.1141e-09
20750.0 1.1119e-09
20770.0 1.1098e-09
20790.0 1.1074e-09
20810.0 1.1049e-09
20830.0 1.1022e-09
20850.0 1.0994e-09
20870.0 1.0963e-09
20890.0 1.0929e-09
20910.0 1.0895e-09
20930.0 1.0859e-09
20950.0 1.082e-09
20970.0 1.0781e-09
20990.0 1.0741e-09
21010.0 1.0698e-09
21030.0 1.0655e-09
21050.0 1.0614e-09
21070.0 1.0571e-09
21090.0 1.0527e-09
21110.0 1.0486e-09
21130.0 1.0445e-09
21150.0 1.0403e-09
21170.0 1.0362e-09
21190.0 1.0323e-09
21210.0 1.0283e-09
21230.0 1.0242e-09
21250.0 1.0202e-09
21270.0 1.0162e-09
21290.0 1.0121e-09
21310.0 1.0079e-09
21330.0 1.0039e-09
21350.0 9.9956e-10
21370.0 9.9509e-10
21390.0 9.9066e-10
21410.0 9.8615e-10
21430.0 9.8123e-10
21450.0 9.7636e-10
21470.0 9.7153e-10
21490.0 9.6646e-10
21510.0 9.612e-10
21530.0 9.5609e-10
21550.0 9.5087e-10
21570.0 9.4537e-10
21590.0 9.3995e-10
21610.0 9.3462e-10
21630.0 9.2911e-10
21650.0 9.2342e-10
21670.0 9.1811e-10
21690.0 9.1272e-10
21710.0 9.0717e-10
21730.0 9.0176e-10
21750.0 8.9654e-10
21770.0 8.9101e-10
21790.0 8.8554e-10
21810.0 8.8027e-10
21830.0 8.7495e-10
21850.0 8.6945e-10
21870.0 8.6411e-10
21890.0 8.5894e-10
21910.0 8.5357e-10
21930.0 8.4821e-10
21950.0 8.4308e-10
21970.0 8.3791e-10
21990.0 8.3257e-10
22010.0 8.2755e-10
22030.0 8.2271e-10
22050.0 8.1783e-10
22070.0 8.1308e-10
22090.0 8.0871e-10
22110.0 8.0439e-10
22130.0 8.0014e-10
22150.0 7.9622e-10
22170.0 7.9253e-10
22190.0 7.8887e-10
22210.0 7.8542e-10
22230.0 7.823e-10
22250.0 7.7927e-10
22270.0 7.7631e-10
22290.0 7.7358e-10
22310.0 7.7098e-10
22330.0 7.6832e-10
22350.0 7.6578e-10
22370.0 7.6336e-10
22390.0 7.6091e-10
22410.0 7.5839e-10
22430.0 7.5599e-10
22450.0 7.5359e-10
22470.0 7.5107e-10
22490.0 7.4856e-10
22510.0 7.4611e-10
22530.0 7.4353e-10
22550.0 7.4089e-10
22570.0 7.3834e-10
22590.0 7.3579e-10
22610.0 7.3316e-10
