#lamb flux
1010.0 2.3607e-06
1030.0 2.5983e-06
1050.0 2.8716e-06
1070.0 3.1793e-06
1090.0 3.5288e-06
1110.0 3.8872e-06
1130.0 4.248e-06
1150.0 4.6259e-06
1170.0 5.0157e-06
1190.0 5.3852e-06
1210.0 5.7598e-06
1230.0 6.1469e-06
1250.0 6.526e-06
1270.0 6.8943e-06
1290.0 7.2834e-06
1310.0 7.6722e-06
1330.0 8.045e-06
1350.0 8.4219e-06
1370.0 8.8111e-06
1390.0 9.1905e-06
1410.0 9.5586e-06
1430.0 9.9434e-06
1450.0 1.0328e-05
1470.0 1.07e-05
1490.0 1.1075e-05
1510.0 1.1472e-05
1530.0 1.1848e-05
1550.0 1.2219e-05
1570.0 1.2602e-05
1590.0 1.2986e-05
1610.0 1.3352e-05
1630.0 1.373e-05
1650.0 1.4117e-05
1670.0 1.4492e-05
1690.0 1.4861e-05
1710.0 1.5244e-05
1730.0 1.563e-05
1750.0 1.5991e-05
1770.0 1.6363e-05
1790.0 1.6742e-05
1810.0 1.7108e-05
1830.0 1.7466e-05
1850.0 1.7847e-05
1870.0 1.8215e-05
1890.0 1.857e-05
1910.0 1.8931e-05
1930.0 1.9299e-05
1950.0 1.9648e-05
1970.0 1.999e-05
1990.0 2.0343e-05
2010.0 2.0687e-05
2030.0 2.1014e-05
2050.0 2.1348e-05
2070.0 2.1688e-05
2090.0 2.2001e-05
2110.0 2.2309e-05
2130.0 2.2621e-05
2150.0 2.2921e-05
2170.0 2.3198e-05
2190.0 2.3481e-05
2210.0 2.3758e-05
2230.0 2.4013e-05
2250.0 2.4257e-05
2270.0 2.4507e-05
2290.0 2.4736e-05
2310.0 2.494e-05
2330.0 2.5145e-05
2350.0 2.5341e-05
2370.0 2.5513e-05
2390.0 2.5682e-05
2410.0 2.5866e-05
2430.0 2.6045e-05
2450.0 2.6232e-05
2470.0 2.6468e-05
2490.0 2.6781e-05
2510.0 2.7176e-05
2530.0 2.7783e-05
2550.0 2.8795e-05
2570.0 3.0376e-05
2590.0 3.2721e-05
2610.0 3.6393e-05
2630.0 4.1432e-05
2650.0 4.7473e-05
2670.0 5.4514e-05
2690.0 6.2202e-05
2710.0 6.9404e-05
2730.0 7.5634e-05
2750.0 8.1019e-05
2770.0 8.5052e-05
2790.0 8.7771e-05
2810.0 8.9652e-05
2830.0 9.1031e-05
2850.0 9.1893e-05
2870.0 9.256e-05
2890.0 9.3216e-05
2910.0 9.3832e-05
2930.0 9.4346e-05
2950.0 9.4915e-05
2970.0 9.5513e-05
2990.0 9.6029e-05
3010.0 0.0010376
3030.0 0.0010433
3050.0 0.0010486
3070.0 0.001052
3090.0 0.0010546
3110.0 0.001055
3130.0 0.0010514
3150.0 0.0010435
3170.0 0.0010302
3190.0 0.001012
3210.0 0.00099142
3230.0 0.00097046
3250.0 0.00094636
3270.0 0.00093749
3290.0 0.00092735
3310.0 0.00094629
3330.0 0.00096877
3350.0 0.0009994
3370.0 0.0010397
3390.0 0.001088
3410.0 0.0011387
3430.0 0.0011934
3450.0 0.0012537
3470.0 0.0013163
3490.0 0.0013799
3510.0 0.0014463
3530.0 0.001513
3550.0 0.001586
3570.0 0.0016658
3590.0 0.0017413
3610.0 0.0018349
3630.0 0.0019069
3650.0 0.0019841
3670.0 0.0020467
3690.0 0.002103
3710.0 0.0021495
3730.0 0.0021543
3750.0 0.0021577
3770.0 0.0020807
3790.0 0.0020356
3810.0 0.0019803
3830.0 0.001793
3850.0 0.0016587
3870.0 0.0017719
3890.0 0.0020954
3910.0 0.0026554
3930.0 0.0031107
3950.0 0.0033353
3970.0 0.0031942
3990.0 0.0029819
4010.0 0.0031251
4030.0 0.0033726
4050.0 0.003499
4070.0 0.0031511
4090.0 0.0026086
4110.0 0.0027873
4130.0 0.0030949
4150.0 0.0032304
4170.0 0.003127
4190.0 0.0029936
4210.0 0.0032693
4230.0 0.0035563
4250.0 0.0036741
4270.0 0.0037862
4290.0 0.003682
4310.0 0.0038331
4330.0 0.0042354
4350.0 0.0049514
4370.0 0.0053513
4390.0 0.0050715
4410.0 0.0042761
4430.0 0.0036163
4450.0 0.0029557
4470.0 0.002849
4490.0 0.0031924
4510.0 0.0038938
4530.0 0.0042161
4550.0 0.0044916
4570.0 0.0052422
4590.0 0.0065856
4610.0 0.0087731
4630.0 0.01051
4650.0 0.010571
4670.0 0.010655
4690.0 0.011535
4710.0 0.011536
4730.0 0.00941
4750.0 0.0069623
4770.0 0.0057371
4790.0 0.005444
4810.0 0.0050656
4830.0 0.0051657
4850.0 0.006094
4870.0 0.0076385
4890.0 0.0080995
4910.0 0.0069762
4930.0 0.0067098
4950.0 0.0080228
4970.0 0.010572
4990.0 0.012666
5010.0 0.012809
5030.0 0.010379
5050.0 0.0071443
5070.0 0.0052585
5090.0 0.0045835
5110.0 0.0045969
5130.0 0.0050036
5150.0 0.00503
5170.0 0.0050099
5190.0 0.0049636
5210.0 0.0048834
5230.0 0.0051404
5250.0 0.0054627
5270.0 0.0062467
5290.0 0.0073724
5310.0 0.007988
5330.0 0.0082751
5350.0 0.0087722
5370.0 0.0095564
5390.0 0.009796
5410.0 0.0089842
5430.0 0.0079994
5450.0 0.0079133
5470.0 0.0094826
5490.0 0.012173
5510.0 0.014765
5530.0 0.015818
5550.0 0.015296
5570.0 0.014175
5590.0 0.012952
5610.0 0.012395
5630.0 0.012446
5650.0 0.012639
5670.0 0.012359
5690.0 0.011763
5710.0 0.011295
5730.0 0.009939
5750.0 0.0076375
5770.0 0.006831
5790.0 0.0075446
5810.0 0.0087117
5830.0 0.0097926
5850.0 0.010357
5870.0 0.01026
5890.0 0.0095038
5910.0 0.0090983
5930.0 0.0092531
5950.0 0.0097794
5970.0 0.0099929
5990.0 0.0090724
6010.0 0.0074245
6030.0 0.0060514
6050.0 0.0055311
6070.0 0.0058332
6090.0 0.0065137
6110.0 0.0066111
6130.0 0.0061286
6150.0 0.0060113
6170.0 0.0066701
6190.0 0.0079764
6210.0 0.0095819
6230.0 0.010643
6250.0 0.010411
6270.0 0.0092313
6290.0 0.0075953
6310.0 0.0060377
6330.0 0.0050299
6350.0 0.0048186
6370.0 0.0052934
6390.0 0.0059853
6410.0 0.0069419
6430.0 0.0081866
6450.0 0.0098309
6470.0 0.01207
6490.0 0.014358
6510.0 0.015131
6530.0 0.014309
6550.0 0.013706
6570.0 0.013682
6590.0 0.013268
6610.0 0.012306
6630.0 0.011469
6650.0 0.01092
6670.0 0.010947
6690.0 0.010694
6710.0 0.0095842
6730.0 0.0083603
6750.0 0.0076014
6770.0 0.0079415
6790.0 0.0084966
6810.0 0.0089516
6830.0 0.009098
6850.0 0.0087378
6870.0 0.008343
6890.0 0.0081281
6910.0 0.0077142
6930.0 0.0074008
6950.0 0.0074772
6970.0 0.0077333
6990.0 0.0084141
7010.0 0.0089229
7030.0 0.008585
7050.0 0.0078466
7070.0 0.0068583
7090.0 0.0057835
7110.0 0.0053281
7130.0 0.0056061
7150.0 0.0059464
7170.0 0.0060072
7190.0 0.0058457
7210.0 0.0058359
7230.0 0.0065919
7250.0 0.0076735
7270.0 0.0085272
7290.0 0.0088176
7310.0 0.0082183
7330.0 0.0073908
7350.0 0.0067765
7370.0 0.0066258
7390.0 0.0068095
7410.0 0.007246
7430.0 0.0080585
7450.0 0.0089924
7470.0 0.0099933
7490.0 0.010702
7510.0 0.009532
7530.0 0.0089123
7550.0 0.007801
7570.0 0.0066194
7590.0 0.0053968
7610.0 0.0051305
7630.0 0.0055327
7650.0 0.0063047
7670.0 0.0071786
7690.0 0.0079214
7710.0 0.0088147
7730.0 0.0094652
7750.0 0.009864
7770.0 0.0099002
7790.0 0.0098502
7810.0 0.0099699
7830.0 0.0097626
7850.0 0.0093973
7870.0 0.0088969
7890.0 0.0081732
7910.0 0.0073378
7930.0 0.0065188
7950.0 0.0058793
7970.0 0.0057027
7990.0 0.0059382
8010.0 0.0063086
8030.0 0.0063795
8050.0 0.0065051
8070.0 0.0064367
8090.0 0.0064257
8110.0 0.0062204
8130.0 0.0058177
8150.0 0.0054628
8170.0 0.0054107
8190.0 0.0054994
8210.0 0.0055596
8230.0 0.0054179
8250.0 0.0051843
8270.0 0.004572
8290.0 0.0036644
8310.0 0.0027379
8330.0 0.001874
8350.0 0.0013601
8370.0 0.0013325
8390.0 0.0015827
8410.0 0.0019658
8430.0 0.00242
8450.0 0.0026671
8470.0 0.002823
8490.0 0.0029981
8510.0 0.003175
8530.0 0.0035164
8550.0 0.0041273
8570.0 0.0048175
8590.0 0.0054648
8610.0 0.0063577
8630.0 0.0073775
8650.0 0.0079177
8670.0 0.007964
8690.0 0.0077672
8710.0 0.0074154
8730.0 0.007113
8750.0 0.0067814
8770.0 0.0066188
8790.0 0.0063675
8810.0 0.0059073
8830.0 0.0054476
8850.0 0.0046883
8870.0 0.0041963
8890.0 0.0038985
8910.0 0.0041614
8930.0 0.0040432
8950.0 0.0041399
8970.0 0.0041968
8990.0 0.0042256
9010.0 0.0042836
9030.0 0.0041942
9050.0 0.0041882
9070.0 0.0041916
9090.0 0.0041953
9110.0 0.0041988
9130.0 0.0042031
9150.0 0.0042085
9170.0 0.0042106
9190.0 0.0042084
9210.0 0.0042377
9230.0 0.0042391
9250.0 0.004244
9270.0 0.00425
9290.0 0.0042569
9310.0 0.0042647
9330.0 0.0042732
9350.0 0.0042822
9370.0 0.0042917
9390.0 0.0043016
9410.0 0.0043119
9430.0 0.0043226
9450.0 0.0043338
9470.0 0.0043453
9490.0 0.0043572
9510.0 0.0043694
9530.0 0.0043821
9550.0 0.0043951
9570.0 0.0044085
9590.0 0.0044222
9610.0 0.0044363
9630.0 0.0044507
9650.0 0.0044654
9670.0 0.0044805
9690.0 0.0044959
9710.0 0.0045116
9730.0 0.0045275
9750.0 0.0045438
9770.0 0.0045603
9790.0 0.0045771
9810.0 0.0045941
9830.0 0.0046114
9850.0 0.0046288
9870.0 0.0046465
9890.0 0.0046643
9910.0 0.0046823
9930.0 0.0047005
9950.0 0.0047171
9970.0 0.004736
9990.0 0.004755
10010.0 0.0047709
10030.0 0.0047897
10050.0 0.0048072
10070.0 0.0048181
10090.0 0.0048397
10110.0 0.0048607
10130.0 0.004881
10150.0 0.004901
10170.0 0.0049202
10190.0 0.0049386
10210.0 0.0049572
10230.0 0.0049758
10250.0 0.0049937
10270.0 0.0050115
10290.0 0.0050295
10310.0 0.0050469
10330.0 0.0050637
10350.0 0.0050808
10370.0 0.0050976
10390.0 0.0051137
10410.0 0.0051296
10430.0 0.0051456
10450.0 0.0051609
10470.0 0.0051756
10490.0 0.0051902
10510.0 0.0052046
10530.0 0.0052177
10550.0 0.0052308
10570.0 0.0052438
10590.0 0.005256
10610.0 0.0052674
10630.0 0.0052788
10650.0 0.0052897
10670.0 0.0052994
10690.0 0.0053089
10710.0 0.0053181
10730.0 0.0053263
10750.0 0.0053336
10770.0 0.005341
10790.0 0.0053477
10810.0 0.0053532
10830.0 0.0053581
10850.0 0.0053623
10870.0 0.0053639
10890.0 0.0053625
10910.0 0.005357
10930.0 0.005344
10950.0 0.0053184
10970.0 0.0052784
10990.0 0.0052228
11010.0 0.0050721
11030.0 0.0049669
11050.0 0.0048465
11070.0 0.0047087
11090.0 0.004549
11110.0 0.0043897
11130.0 0.0042297
11150.0 0.0040647
11170.0 0.0039035
11190.0 0.0037564
11210.0 0.0036145
11230.0 0.00348
11250.0 0.0033623
11270.0 0.003259
11290.0 0.0031646
11310.0 0.0030832
11330.0 0.0030173
11350.0 0.0029588
11370.0 0.0029064
11390.0 0.0028607
11410.0 0.0028181
11430.0 0.0027733
11450.0 0.0027275
11470.0 0.0026797
11490.0 0.0026263
11510.0 0.0025658
11530.0 0.0025025
11550.0 0.0024351
11570.0 0.0023609
11590.0 0.0022844
11610.0 0.0022088
11630.0 0.0021301
11650.0 0.0020508
11670.0 0.0019775
11690.0 0.0019076
11710.0 0.0018398
11730.0 0.0017779
11750.0 0.0017231
11770.0 0.0016713
11790.0 0.001624
11810.0 0.0015823
11830.0 0.0015443
11850.0 0.0015075
11870.0 0.0014738
11890.0 0.0014423
11910.0 0.0014105
11930.0 0.0013781
11950.0 0.0013461
11970.0 0.001313
11990.0 0.0012773
12010.0 0.0012414
12030.0 0.0012053
12050.0 0.0011678
12070.0 0.0011297
12090.0 0.0010946
12110.0 0.0010606
12130.0 0.0010284
12150.0 0.0010002
12170.0 0.00097674
12190.0 0.00095708
12210.0 0.00094338
12230.0 0.00093591
12250.0 0.00093444
12270.0 0.0009396
12290.0 0.00095075
12310.0 0.00096689
12330.0 0.00098916
12350.0 0.001016
12370.0 0.0010454
12390.0 0.0010777
12410.0 0.0011138
12430.0 0.0011481
12450.0 0.0011813
12470.0 0.0012143
12490.0 0.0012446
12510.0 0.0012702
12530.0 0.001293
12550.0 0.0013119
12570.0 0.0013254
12590.0 0.001334
12610.0 0.0013383
12630.0 0.0013375
12650.0 0.0013321
12670.0 0.0013227
12690.0 0.0013094
12710.0 0.0012929
12730.0 0.0012739
12750.0 0.0012517
12770.0 0.0012278
12790.0 0.001203
12810.0 0.0011766
12830.0 0.0011487
12850.0 0.0011211
12870.0 0.0010931
12890.0 0.0010637
12910.0 0.001034
12930.0 0.0010046
12950.0 0.00097372
12970.0 0.00094159
12990.0 0.00091028
13010.0 0.00087852
13030.0 0.00084563
13050.0 0.00081329
13070.0 0.00078244
13090.0 0.00075132
13110.0 0.00072128
13130.0 0.00069388
13150.0 0.00066856
13170.0 0.00064485
13190.0 0.00062488
13210.0 0.00060854
13230.0 0.00059509
13250.0 0.00058512
13270.0 0.00057877
13290.0 0.00057553
13310.0 0.00057548
13330.0 0.00057821
13350.0 0.00058316
13370.0 0.00059036
13390.0 0.00059941
13410.0 0.00060883
13430.0 0.00061911
13450.0 0.00063
13470.0 0.00064045
13490.0 0.00065016
13510.0 0.00065995
13530.0 0.00066869
13550.0 0.00067608
13570.0 0.00068264
13590.0 0.00068842
13610.0 0.00069299
13630.0 0.00069652
13650.0 0.0006995
13670.0 0.00070168
13690.0 0.00070304
13710.0 0.00070386
13730.0 0.00070418
13750.0 0.00070378
13770.0 0.0007028
13790.0 0.00070125
13810.0 0.00069904
13830.0 0.00069619
13850.0 0.0006926
13870.0 0.00068819
13890.0 0.00068309
13910.0 0.00067729
13930.0 0.00067059
13950.0 0.00066324
13970.0 0.0006557
13990.0 0.00064762
14010.0 0.00063922
14030.0 0.00063103
14050.0 0.00062304
14070.0 0.00061501
14090.0 0.00060766
14110.0 0.00060108
14130.0 0.00059506
14150.0 0.00058977
14170.0 0.0005855
14190.0 0.00058207
14210.0 0.00057947
14230.0 0.00057784
14250.0 0.00057712
14270.0 0.00057736
14290.0 0.00057863
14310.0 0.0005807
14330.0 0.00058364
14350.0 0.00058756
14370.0 0.00059213
14390.0 0.00059713
14410.0 0.00060292
14430.0 0.00060919
14450.0 0.00061555
14470.0 0.00062219
14490.0 0.00062947
14510.0 0.00063673
14530.0 0.0006441
14550.0 0.00065222
14570.0 0.00066108
14590.0 0.00067038
14610.0 0.00068092
14630.0 0.00069327
14650.0 0.00070674
14670.0 0.00072157
14690.0 0.00073867
14710.0 0.00075787
14730.0 0.00077749
14750.0 0.00079893
14770.0 0.00082212
14790.0 0.00084547
14810.0 0.00086856
14830.0 0.00089303
14850.0 0.00091638
14870.0 0.00093769
14890.0 0.00095773
14910.0 0.0009761
14930.0 0.00099132
14950.0 0.0010036
14970.0 0.0010136
14990.0 0.0010205
15010.0 0.0010247
15030.0 0.0010268
15050.0 0.0010271
15070.0 0.001026
15090.0 0.0010241
15110.0 0.0010215
15130.0 0.0010187
15150.0 0.0010159
15170.0 0.0010128
15190.0 0.0010097
15210.0 0.0010068
15230.0 0.0010038
15250.0 0.0010008
15270.0 0.00099777
15290.0 0.00099494
15310.0 0.00099203
15330.0 0.00098909
15350.0 0.00098627
15370.0 0.00098348
15390.0 0.00098054
15410.0 0.00097771
15430.0 0.00097498
15450.0 0.00097217
15470.0 0.00096932
15490.0 0.00096662
15510.0 0.00096393
15530.0 0.00096114
15550.0 0.00095842
15570.0 0.00095579
15590.0 0.00095304
15610.0 0.00095026
15630.0 0.00094764
15650.0 0.000945
15670.0 0.00094227
15690.0 0.00093961
15710.0 0.00093706
15730.0 0.00093437
15750.0 0.00093168
15770.0 0.0009291
15790.0 0.00092649
15810.0 0.00092375
15830.0 0.00092113
15850.0 0.00091858
15870.0 0.00091593
15890.0 0.00091327
15910.0 0.00091074
15930.0 0.00090814
15950.0 0.00090542
15970.0 0.00090282
15990.0 0.00090026
16010.0 0.00089759
16030.0 0.00089489
16050.0 0.00089236
16070.0 0.00088975
16090.0 0.00088706
16110.0 0.00088446
16130.0 0.00088191
16150.0 0.00087916
16170.0 0.00087647
16190.0 0.00087389
16210.0 0.00087124
16230.0 0.0008685
16250.0 0.00086587
16270.0 0.00086327
16290.0 0.00086053
16310.0 0.00085782
16330.0 0.0008552
16350.0 0.00085251
16370.0 0.00084966
16390.0 0.000847
16410.0 0.00084433
16430.0 0.00084155
16450.0 0.00083879
16470.0 0.00083615
16490.0 0.00083336
16510.0 0.00083053
16530.0 0.00082779
16550.0 0.00082505
16570.0 0.00082217
16590.0 0.00081933
16610.0 0.00081662
16630.0 0.00081378
16650.0 0.0008109
16670.0 0.00080812
16690.0 0.00080532
16710.0 0.00080234
16730.0 0.00079946
16750.0 0.00079665
16770.0 0.00079373
16790.0 0.00079074
16810.0 0.0007879
16830.0 0.00078503
16850.0 0.00078203
16870.0 0.00077908
16890.0 0.00077621
16910.0 0.00077318
16930.0 0.00077011
16950.0 0.00076719
16970.0 0.00076422
16990.0 0.00076114
17010.0 0.00075813
17030.0 0.0007552
17050.0 0.0007521
17070.0 0.000749
17090.0 0.000746
17110.0 0.00074295
17130.0 0.00073974
17150.0 0.00073666
17170.0 0.00073364
17190.0 0.00073049
17210.0 0.00072732
17230.0 0.00072428
17250.0 0.00072114
17270.0 0.00071789
17290.0 0.00071474
17310.0 0.00071162
17330.0 0.00070838
17350.0 0.00070512
17370.0 0.00070202
17390.0 0.00069881
17410.0 0.00069553
17430.0 0.00069233
17450.0 0.00068918
17470.0 0.00068582
17490.0 0.00068252
17510.0 0.00067933
17530.0 0.00067605
17550.0 0.00067269
17570.0 0.00066945
17590.0 0.00066623
17610.0 0.00066286
17630.0 0.00065952
17650.0 0.00065628
17670.0 0.00065294
17690.0 0.00064947
17710.0 0.00064619
17730.0 0.0006429
17750.0 0.00063949
17770.0 0.00063611
17790.0 0.00063285
17810.0 0.00062944
17830.0 0.00062599
17850.0 0.00062264
17870.0 0.00061929
17890.0 0.00061581
17910.0 0.00061237
17930.0 0.00060907
17950.0 0.00060564
17970.0 0.00060218
17990.0 0.00059882
18010.0 0.00059545
18030.0 0.0005919
18050.0 0.00058846
18070.0 0.00058509
18090.0 0.00058163
18110.0 0.00057811
18130.0 0.00057474
18150.0 0.00057133
18170.0 0.00056782
18190.0 0.00056437
18210.0 0.00056099
18230.0 0.00055747
18250.0 0.00055392
18270.0 0.00055053
18290.0 0.00054709
18310.0 0.00054356
18330.0 0.00054011
18350.0 0.00053673
18370.0 0.0005332
18390.0 0.00052969
18410.0 0.00052628
18430.0 0.00052282
18450.0 0.00051924
18470.0 0.00051579
18490.0 0.00051239
18510.0 0.00050888
18530.0 0.00050538
18550.0 0.000502
18570.0 0.00049852
18590.0 0.00049496
18610.0 0.00049151
18630.0 0.0004881
18650.0 0.00048457
18670.0 0.00048105
18690.0 0.00047769
18710.0 0.00047423
18730.0 0.00047071
18750.0 0.00046729
18770.0 0.00046391
18790.0 0.00046034
18810.0 0.00045686
18830.0 0.00045348
18850.0 0.00045003
18870.0 0.00044652
18890.0 0.00044313
18910.0 0.00043976
18930.0 0.00043626
18950.0 0.00043281
18970.0 0.00042945
18990.0 0.00042602
19010.0 0.00042247
19030.0 0.00041912
19050.0 0.00041575
19070.0 0.00041229
19090.0 0.00040888
19110.0 0.00040559
19130.0 0.00040214
19150.0 0.00039868
19170.0 0.00039534
19190.0 0.00039199
19210.0 0.00038853
19230.0 0.00038513
19250.0 0.00038186
19270.0 0.00037847
19290.0 0.00037507
19310.0 0.00037178
19330.0 0.00036847
19350.0 0.000365
19370.0 0.00036167
19390.0 0.0003584
19410.0 0.00035504
19430.0 0.00035165
19450.0 0.00034842
19470.0 0.00034513
19490.0 0.00034176
19510.0 0.00033848
19530.0 0.00033525
19550.0 0.0003319
19570.0 0.00032853
19590.0 0.00032533
19610.0 0.00032208
19630.0 0.00031875
19650.0 0.00031552
19670.0 0.00031234
19690.0 0.00030903
19710.0 0.00030575
19730.0 0.00030257
19750.0 0.00029935
19770.0 0.00029602
19790.0 0.00029283
19810.0 0.00028968
19830.0 0.00028643
19850.0 0.00028318
19870.0 0.00028002
19890.0 0.0002767
19910.0 0.00027318
19930.0 0.0002696
19950.0 0.00026577
19970.0 0.00026142
19990.0 0.00025659
20010.0 0.00025152
20030.0 0.00024582
20050.0 0.00023963
20070.0 0.00023339
20090.0 0.00022714
20110.0 0.00022061
20130.0 0.00021452
20150.0 0.00020897
20170.0 0.00020368
20190.0 0.0001988
20210.0 0.00019458
20230.0 0.00019084
20250.0 0.00018746
20270.0 0.00018464
20290.0 0.00018235
20310.0 0.00018045
20330.0 0.00017896
20350.0 0.00017798
20370.0 0.00017736
20390.0 0.00017712
20410.0 0.00017726
20430.0 0.00017773
20450.0 0.00017858
20470.0 0.00017979
20490.0 0.00018128
20510.0 0.00018309
20530.0 0.00018528
20550.0 0.00018771
20570.0 0.0001903
20590.0 0.00019321
20610.0 0.00019634
20630.0 0.00019948
20650.0 0.00020277
20670.0 0.00020629
20690.0 0.00020966
20710.0 0.00021294
20730.0 0.00021628
20750.0 0.00021954
20770.0 0.00022254
20790.0 0.00022552
20810.0 0.0002285
20830.0 0.00023133
20850.0 0.00023407
20870.0 0.00023695
20890.0 0.00023987
20910.0 0.0002427
20930.0 0.00024569
20950.0 0.00024886
20970.0 0.00025203
20990.0 0.00025521
21010.0 0.00025861
21030.0 0.00026196
21050.0 0.00026513
21070.0 0.00026825
21090.0 0.00027128
21110.0 0.0002739
21130.0 0.0002762
21150.0 0.00027823
21170.0 0.00027984
21190.0 0.00028099
21210.0 0.00028175
21230.0 0.00028205
21250.0 0.00028187
21270.0 0.00028127
21290.0 0.00028021
21310.0 0.00027872
21330.0 0.00027692
21350.0 0.0002747
21370.0 0.00027209
21390.0 0.00026927
21410.0 0.00026621
21430.0 0.00026272
21450.0 0.00025916
21470.0 0.00025557
21490.0 0.0002518
21510.0 0.00024794
21530.0 0.00024426
21550.0 0.00024063
21570.0 0.00023699
21590.0 0.00023362
21610.0 0.00023055
21630.0 0.00022767
21650.0 0.00022505
21670.0 0.00022296
21690.0 0.00022122
21710.0 0.00021985
21730.0 0.00021896
21750.0 0.00021851
21770.0 0.00021851
21790.0 0.00021898
21810.0 0.00021988
21830.0 0.00022121
21850.0 0.00022302
21870.0 0.00022519
21890.0 0.00022763
21910.0 0.0002305
21930.0 0.00023369
21950.0 0.00023703
21970.0 0.00024064
21990.0 0.00024464
22010.0 0.00024861
22030.0 0.00025263
22050.0 0.00025685
22070.0 0.00026112
22090.0 0.00026517
22110.0 0.00026926
22130.0 0.00027336
22150.0 0.00027717
22170.0 0.00028073
22190.0 0.00028421
22210.0 0.00028735
22230.0 0.00029
22250.0 0.00029233
22270.0 0.00029427
22290.0 0.00029567
22310.0 0.00029658
22330.0 0.00029699
22350.0 0.00029681
22370.0 0.00029608
22390.0 0.00029475
22410.0 0.00029276
22430.0 0.00029029
22450.0 0.0002873
22470.0 0.00028364
22490.0 0.00027951
22510.0 0.00027506
22530.0 0.00026999
22550.0 0.0002644
22570.0 0.00025871
22590.0 0.00025274
22610.0 0.00024632
22630.0 0.00023979
22650.0 0.00023341
22670.0 0.00022672
22690.0 0.00021994
22710.0 0.00021343
22730.0 0.00020702
22750.0 0.00020038
22770.0 0.00019419
22790.0 0.0001884
22810.0 0.00018272
22830.0 0.00017732
22850.0 0.00017251
22870.0 0.00016804
22890.0 0.00016386
22910.0 0.00016029
22930.0 0.00015729
22950.0 0.00015475
22970.0 0.00015275
22990.0 0.00015147
23010.0 0.00015074
23030.0 0.00015061
23050.0 0.0001511
23070.0 0.00015214
23090.0 0.00015383
23110.0 0.00015609
23130.0 0.00015876
23150.0 0.00016192
23170.0 0.0001656
23190.0 0.00016951
