#lamb flux
1010.0 3.5124e-05
1030.0 4.4641e-05
1050.0 5.5932e-05
1070.0 6.909e-05
1090.0 8.4576e-05
1110.0 0.00010125
1130.0 0.00011881
1150.0 0.00013678
1170.0 0.00015581
1190.0 0.00017447
1210.0 0.00019427
1230.0 0.00021503
1250.0 0.0002357
1270.0 0.00025592
1290.0 0.00027696
1310.0 0.0002976
1330.0 0.00031686
1350.0 0.00033547
1370.0 0.00035363
1390.0 0.00037012
1410.0 0.0003848
1430.0 0.00039896
1450.0 0.00041181
1470.0 0.00042286
1490.0 0.00043301
1510.0 0.00044418
1530.0 0.00045415
1550.0 0.00046248
1570.0 0.00046602
1590.0 0.00046926
1610.0 0.00047174
1630.0 0.00047482
1650.0 0.00047857
1670.0 0.00048225
1690.0 0.00048629
1710.0 0.00049142
1730.0 0.00049724
1750.0 0.00050289
1770.0 0.00050955
1790.0 0.00051709
1810.0 0.00052483
1830.0 0.00053294
1850.0 0.00054254
1870.0 0.00055249
1890.0 0.00056248
1910.0 0.00057316
1930.0 0.00058455
1950.0 0.00059551
1970.0 0.00060671
1990.0 0.00061891
2010.0 0.00063143
2030.0 0.00064402
2050.0 0.00065746
2070.0 0.00067126
2090.0 0.00068461
2110.0 0.00069824
2130.0 0.00071252
2150.0 0.00072686
2170.0 0.00074094
2190.0 0.00075572
2210.0 0.00077094
2230.0 0.00078606
2250.0 0.00080134
2270.0 0.00081736
2290.0 0.00083315
2310.0 0.00084857
2330.0 0.00086447
2350.0 0.00088052
2370.0 0.00089606
2390.0 0.00091167
2410.0 0.00092779
2430.0 0.00094354
2450.0 0.00095925
2470.0 0.00097611
2490.0 0.00099504
2510.0 0.0010162
2530.0 0.0010428
2550.0 0.0010789
2570.0 0.001127
2590.0 0.0011905
2610.0 0.0012813
2630.0 0.0014022
2650.0 0.0015501
2670.0 0.001733
2690.0 0.0019545
2710.0 0.0021965
2730.0 0.0024491
2750.0 0.0027204
2770.0 0.0029855
2790.0 0.0032255
2810.0 0.0034437
2830.0 0.0036401
2850.0 0.003793
2870.0 0.0039174
2890.0 0.004024
2910.0 0.0041138
2930.0 0.0041895
2950.0 0.0042625
2970.0 0.0043339
2990.0 0.0044011
3010.0 0.004467
3030.0 0.0045356
3050.0 0.0046039
3070.0 0.0046675
3090.0 0.0047331
3110.0 0.0048017
3130.0 0.0048745
3150.0 0.0049497
3170.0 0.0050699
3190.0 0.0052472
3210.0 0.005502
3230.0 0.0058698
3250.0 0.0063767
3270.0 0.0068737
3290.0 0.0076382
3310.0 0.0091549
3330.0 0.0095281
3350.0 0.009616
3370.0 0.0096914
3390.0 0.0097672
3410.0 0.009838
3430.0 0.0099053
3450.0 0.0099719
3470.0 0.010038
3490.0 0.010092
3510.0 0.010093
3530.0 0.0097784
3550.0 0.0093596
3570.0 0.0095047
3590.0 0.010152
3610.0 0.011021
3630.0 0.011503
3650.0 0.011046
3670.0 0.010023
3690.0 0.0093423
3710.0 0.0093484
3730.0 0.0096611
3750.0 0.0098606
3770.0 0.010234
3790.0 0.010666
3810.0 0.010671
3830.0 0.010027
3850.0 0.0094121
3870.0 0.0091766
3890.0 0.0092725
3910.0 0.0092657
3930.0 0.0093258
3950.0 0.0097955
3970.0 0.010342
3990.0 0.01064
4010.0 0.010532
4030.0 0.010201
4050.0 0.010057
4070.0 0.0099731
4090.0 0.0099769
4110.0 0.0099086
4130.0 0.0095914
4150.0 0.0092308
4170.0 0.0091084
4190.0 0.0087684
4210.0 0.0081586
4230.0 0.0075018
4250.0 0.006832
4270.0 0.0063301
4290.0 0.0060148
4310.0 0.0059025
4330.0 0.0060444
4350.0 0.0062809
4370.0 0.0064922
4390.0 0.0069189
4410.0 0.0072613
4430.0 0.0071862
4450.0 0.0066328
4470.0 0.0061196
4490.0 0.005886
4510.0 0.0057441
4530.0 0.0056989
4550.0 0.0056557
4570.0 0.0056803
4590.0 0.0058021
4610.0 0.0059835
4630.0 0.0060958
4650.0 0.0061407
4670.0 0.0059956
4690.0 0.0056172
4710.0 0.0052405
4730.0 0.0049719
4750.0 0.0047945
4770.0 0.0047395
4790.0 0.0046817
4810.0 0.0045321
4830.0 0.0044196
4850.0 0.0045449
4870.0 0.0044439
4890.0 0.0043561
4910.0 0.004228
4930.0 0.0039301
4950.0 0.0034839
4970.0 0.0032058
4990.0 0.0029711
5010.0 0.0028444
5030.0 0.0028676
5050.0 0.0029327
5070.0 0.00298
5090.0 0.0030995
5110.0 0.0030907
5130.0 0.0030546
5150.0 0.0030615
5170.0 0.0030058
5190.0 0.003014
5210.0 0.0030046
5230.0 0.0029108
5250.0 0.0029098
5270.0 0.0029421
5290.0 0.0029067
5310.0 0.0028263
5330.0 0.0027439
5350.0 0.0026578
5370.0 0.0026085
5390.0 0.0025633
5410.0 0.0025121
5430.0 0.0025151
5450.0 0.0025182
5470.0 0.0025557
5490.0 0.0026747
5510.0 0.0027517
5530.0 0.002789
5550.0 0.002829
5570.0 0.0028594
5590.0 0.0028339
5610.0 0.0028322
5630.0 0.0028662
5650.0 0.0028588
5670.0 0.0028234
5690.0 0.0027775
5710.0 0.0027893
5730.0 0.0028633
5750.0 0.0027834
5770.0 0.002678
5790.0 0.0025248
5810.0 0.0022671
5830.0 0.0024711
5850.0 0.002753
5870.0 0.0028527
5890.0 0.0029239
5910.0 0.0030239
5930.0 0.0030749
5950.0 0.0030964
5970.0 0.0031274
5990.0 0.0031591
6010.0 0.0031277
6030.0 0.0030933
6050.0 0.0031116
6070.0 0.003153
6090.0 0.0031836
6110.0 0.0031519
6130.0 0.0031058
6150.0 0.0030491
6170.0 0.0029895
6190.0 0.0028943
6210.0 0.0028534
6230.0 0.0028756
6250.0 0.002869
6270.0 0.0028619
6290.0 0.0029002
6310.0 0.0029432
6330.0 0.0029291
6350.0 0.0028775
6370.0 0.0028696
6390.0 0.0028408
6410.0 0.002804
6430.0 0.0027565
6450.0 0.002731
6470.0 0.0027051
6490.0 0.0026921
6510.0 0.002657
6530.0 0.0026126
6550.0 0.0025716
6570.0 0.0025395
6590.0 0.0025536
6610.0 0.0025472
6630.0 0.0024705
6650.0 0.0023988
6670.0 0.0023713
6690.0 0.0023307
6710.0 0.0022686
6730.0 0.0022404
6750.0 0.0022496
6770.0 0.0023626
6790.0 0.0025888
6810.0 0.002455
6830.0 0.0021624
6850.0 0.0020539
6870.0 0.0020046
6890.0 0.001984
6910.0 0.0019664
6930.0 0.0019456
6950.0 0.001921
6970.0 0.0018478
6990.0 0.0018064
7010.0 0.0018063
7030.0 0.0017924
7050.0 0.0017398
7070.0 0.0016828
7090.0 0.0016546
7110.0 0.0016608
7130.0 0.0016415
7150.0 0.0016205
7170.0 0.0015991
7190.0 0.0015842
7210.0 0.0015818
7230.0 0.001578
7250.0 0.0015669
7270.0 0.0015522
7290.0 0.00155
7310.0 0.0015388
7330.0 0.0014945
7350.0 0.0014322
7370.0 0.0013922
7390.0 0.0013706
7410.0 0.0013345
7430.0 0.0013261
7450.0 0.0013069
7470.0 0.0013078
7490.0 0.0012772
7510.0 0.001232
7530.0 0.0012275
7550.0 0.0012162
7570.0 0.0011854
7590.0 0.0011166
7610.0 0.0010992
7630.0 0.0011314
7650.0 0.0011403
7670.0 0.0011108
7690.0 0.0011268
7710.0 0.0011494
7730.0 0.0011538
7750.0 0.0011808
7770.0 0.0011492
7790.0 0.001112
7810.0 0.0011486
7830.0 0.0011835
7850.0 0.0011811
7870.0 0.0011992
7890.0 0.0011844
7910.0 0.001161
7930.0 0.0011449
7950.0 0.0011724
7970.0 0.0011656
7990.0 0.0010832
8010.0 0.0015867
8030.0 0.001553
8050.0 0.0015278
8070.0 0.0014811
8090.0 0.0013325
8110.0 0.0013168
8130.0 0.001464
8150.0 0.0015467
8170.0 0.0015878
8190.0 0.0016524
8210.0 0.0015953
8230.0 0.0015978
8250.0 0.0015916
8270.0 0.0015816
8290.0 0.0015568
8310.0 0.0014813
8330.0 0.0014532
8350.0 0.0014956
8370.0 0.0015125
8390.0 0.0014792
8410.0 0.0014616
8430.0 0.0014143
8450.0 0.0013892
8470.0 0.0014825
8490.0 0.0014918
8510.0 0.0014043
8530.0 0.0013834
8550.0 0.0013668
8570.0 0.0012852
8590.0 0.0012921
8610.0 0.0013062
8630.0 0.001344
8650.0 0.0013461
8670.0 0.0013474
8690.0 0.0013218
8710.0 0.0012804
8730.0 0.0012442
8750.0 0.001221
8770.0 0.0012188
8790.0 0.0012532
8810.0 0.0011915
8830.0 0.0011809
8850.0 0.0012314
8870.0 0.0011679
8890.0 0.0010898
8910.0 0.0010701
8930.0 0.0010647
8950.0 0.00099843
8970.0 0.00095759
8990.0 0.00093667
9010.0 0.0008854
9030.0 0.00087256
9050.0 0.0008681
9070.0 0.00086405
9090.0 0.00085995
9110.0 0.00085577
9130.0 0.00085157
9150.0 0.00084741
9170.0 0.00084319
9190.0 0.00083895
9210.0 0.00083465
9230.0 0.00083033
9250.0 0.00082599
9270.0 0.00082162
9290.0 0.00081723
9310.0 0.00081317
9330.0 0.00080963
9350.0 0.00080607
9370.0 0.00080249
9390.0 0.00079887
9410.0 0.00079524
9430.0 0.0007916
9450.0 0.00078793
9470.0 0.00078466
9490.0 0.00078116
9510.0 0.00077722
9530.0 0.00077332
9550.0 0.00076951
9570.0 0.00076573
9590.0 0.00076194
9610.0 0.00075867
9630.0 0.00075549
9650.0 0.00075226
9670.0 0.00074899
9690.0 0.00074575
9710.0 0.00074252
9730.0 0.00073924
9750.0 0.00073596
9770.0 0.00073275
9790.0 0.00072948
9810.0 0.00072618
9830.0 0.00072293
9850.0 0.0007193
9870.0 0.00071538
9890.0 0.00071255
9910.0 0.00070957
9930.0 0.00070604
9950.0 0.00070283
9970.0 0.00069983
9990.0 0.00069674
10010.0 0.00069362
10030.0 0.00069047
10050.0 0.00068729
10070.0 0.00068413
10090.0 0.00068097
10110.0 0.00067781
10130.0 0.00067466
10150.0 0.00067155
10170.0 0.00066844
10190.0 0.00066534
10210.0 0.00066227
10230.0 0.00065923
10250.0 0.00065619
10270.0 0.00065317
10290.0 0.00065018
10310.0 0.0006472
10330.0 0.00064423
10350.0 0.0006413
10370.0 0.00063839
10390.0 0.00063546
10410.0 0.00063211
10430.0 0.00062865
10450.0 0.00062635
10470.0 0.00062377
10490.0 0.00062118
10510.0 0.00061855
10530.0 0.00061582
10550.0 0.00061313
10570.0 0.0006105
10590.0 0.00060784
10610.0 0.00060518
10630.0 0.0006026
10650.0 0.00060005
10670.0 0.00059745
10690.0 0.00059491
10710.0 0.00059243
10730.0 0.00058993
10750.0 0.00058742
10770.0 0.00058502
10790.0 0.00058264
10810.0 0.00058022
10830.0 0.00057786
10850.0 0.00057558
10870.0 0.00057321
10890.0 0.00057086
10910.0 0.00056856
10930.0 0.00056623
10950.0 0.00056377
10970.0 0.00056126
10990.0 0.00055871
11010.0 0.00054069
11030.0 0.00053789
11050.0 0.00053505
11070.0 0.00053206
11090.0 0.00052877
11110.0 0.00052554
11130.0 0.00052226
11150.0 0.00051879
11170.0 0.00051522
11190.0 0.00051175
11210.0 0.00050814
11230.0 0.0005044
11250.0 0.00050076
11270.0 0.00049721
11290.0 0.00049356
11310.0 0.00048999
11330.0 0.00048673
11350.0 0.00048351
11370.0 0.00048037
11390.0 0.00047747
11410.0 0.00047476
11430.0 0.00047203
11450.0 0.00046947
11470.0 0.00046707
11490.0 0.0004647
11510.0 0.00046229
11530.0 0.00045999
11550.0 0.00045771
11570.0 0.00045531
11590.0 0.00045288
11610.0 0.00045047
11630.0 0.00044791
11650.0 0.0004452
11670.0 0.00044253
11690.0 0.0004398
11710.0 0.00043691
11730.0 0.00043398
11750.0 0.00043112
11770.0 0.00042811
11790.0 0.00042505
11810.0 0.00042207
11830.0 0.00041911
11850.0 0.00041602
11870.0 0.00041308
11890.0 0.00041028
11910.0 0.00040749
11930.0 0.00040476
11950.0 0.00040225
11970.0 0.00039984
11990.0 0.00039747
12010.0 0.0003953
12030.0 0.00039333
12050.0 0.00039144
12070.0 0.00038967
12090.0 0.00038815
12110.0 0.00038673
12130.0 0.0003854
12150.0 0.00038421
12170.0 0.00038315
12190.0 0.0003821
12210.0 0.0003811
12230.0 0.00038016
12250.0 0.00037919
12270.0 0.00037816
12290.0 0.00037708
12310.0 0.00037593
12330.0 0.00037461
12350.0 0.00037315
12370.0 0.00037158
12390.0 0.00036982
12410.0 0.00036779
12430.0 0.00036567
12450.0 0.0003634
12470.0 0.0003609
12490.0 0.00035823
12510.0 0.00035554
12530.0 0.00035265
12550.0 0.00034958
12570.0 0.0003465
12590.0 0.0003434
12610.0 0.0003401
12630.0 0.00033678
12650.0 0.00033362
12670.0 0.00033038
12690.0 0.00032711
12710.0 0.00032398
12730.0 0.00032096
12750.0 0.00031785
12770.0 0.00031492
12790.0 0.00031218
12810.0 0.0003095
12830.0 0.0003069
12850.0 0.00030456
12870.0 0.00030237
12890.0 0.00030027
12910.0 0.00029837
12930.0 0.00029669
12950.0 0.00029512
12970.0 0.00029372
12990.0 0.00029258
13010.0 0.00029161
13030.0 0.00029079
13050.0 0.00029017
13070.0 0.00028971
13090.0 0.00028938
13110.0 0.00028916
13130.0 0.00028904
13150.0 0.00028896
13170.0 0.00028889
13190.0 0.00028881
13210.0 0.00028866
13230.0 0.00028843
13250.0 0.00028807
13270.0 0.00028759
13290.0 0.00028695
13310.0 0.00028612
13330.0 0.00028513
13350.0 0.000284
13370.0 0.00028266
13390.0 0.00028112
13410.0 0.00027952
13430.0 0.00027775
13450.0 0.00027578
13470.0 0.00027373
13490.0 0.00027163
13510.0 0.00026928
13530.0 0.00026687
13550.0 0.00026446
13570.0 0.00026195
13590.0 0.0002593
13610.0 0.00025669
13630.0 0.0002541
13650.0 0.00025137
13670.0 0.00024864
13690.0 0.00024599
13710.0 0.00024329
13730.0 0.00024046
13750.0 0.00023782
13770.0 0.00023523
13790.0 0.00023259
13810.0 0.00023001
13830.0 0.0002276
13850.0 0.00022517
13870.0 0.00022276
13890.0 0.00022051
13910.0 0.00021835
13930.0 0.00021618
13950.0 0.00021411
13970.0 0.00021222
13990.0 0.00021034
14010.0 0.00020852
14030.0 0.00020683
14050.0 0.00020522
14070.0 0.0002036
14090.0 0.00020211
14110.0 0.00020073
14130.0 0.00019939
14150.0 0.00019808
14170.0 0.0001969
14190.0 0.00019578
14210.0 0.00019467
14230.0 0.00019363
14250.0 0.00019266
14270.0 0.00019169
14290.0 0.00019073
14310.0 0.00018984
14330.0 0.00018897
14350.0 0.00018809
14370.0 0.00018725
14390.0 0.00018645
14410.0 0.00018564
14430.0 0.00018483
14450.0 0.00018406
14470.0 0.0001833
14490.0 0.00018251
14510.0 0.00018176
14530.0 0.00018103
14550.0 0.00018028
14570.0 0.00017953
14590.0 0.0001788
14610.0 0.00017805
14630.0 0.00017727
14650.0 0.0001765
14670.0 0.00017574
14690.0 0.00017495
14710.0 0.00017413
14730.0 0.00017334
14750.0 0.00017253
14770.0 0.00017168
14790.0 0.00017084
14810.0 0.00017
14830.0 0.00016909
14850.0 0.00016817
14870.0 0.00016728
14890.0 0.00016636
14910.0 0.00016542
14930.0 0.00016453
14950.0 0.00016369
14970.0 0.00016286
14990.0 0.00016211
15010.0 0.00016145
15030.0 0.00016087
15050.0 0.00016033
15070.0 0.00015988
15090.0 0.00015948
15110.0 0.00015909
15130.0 0.00015872
15150.0 0.00015837
15170.0 0.00015802
15190.0 0.00015766
15210.0 0.00015732
15230.0 0.00015697
15250.0 0.00015661
15270.0 0.00015626
15290.0 0.00015592
15310.0 0.00015557
15330.0 0.00015521
15350.0 0.00015486
15370.0 0.00015452
15390.0 0.00015415
15410.0 0.00015379
15430.0 0.00015345
15450.0 0.00015309
15470.0 0.00015272
15490.0 0.00015237
15510.0 0.00015202
15530.0 0.00015166
15550.0 0.0001513
15570.0 0.00015095
15590.0 0.00015058
15610.0 0.00015021
15630.0 0.00014986
15650.0 0.0001495
15670.0 0.00014913
15690.0 0.00014877
15710.0 0.00014841
15730.0 0.00014804
15750.0 0.00014767
15770.0 0.00014731
15790.0 0.00014695
15810.0 0.00014657
15830.0 0.0001462
15850.0 0.00014584
15870.0 0.00014547
15890.0 0.00014509
15910.0 0.00014473
15930.0 0.00014436
15950.0 0.00014398
15970.0 0.0001436
15990.0 0.00014324
16010.0 0.00014286
16030.0 0.00014247
16050.0 0.00014211
16070.0 0.00014173
16090.0 0.00014135
16110.0 0.00014097
16130.0 0.0001406
16150.0 0.00014021
16170.0 0.00013983
16190.0 0.00013945
16210.0 0.00013907
16230.0 0.00013868
16250.0 0.0001383
16270.0 0.00013793
16290.0 0.00013754
16310.0 0.00013715
16330.0 0.00013678
16350.0 0.00013639
16370.0 0.00013599
16390.0 0.00013561
16410.0 0.00013523
16430.0 0.00013483
16450.0 0.00013444
16470.0 0.00013406
16490.0 0.00013367
16510.0 0.00013327
16530.0 0.00013289
16550.0 0.0001325
16570.0 0.0001321
16590.0 0.0001317
16610.0 0.00013132
16630.0 0.00013093
16650.0 0.00013053
16670.0 0.00013014
16690.0 0.00012976
16710.0 0.00012935
16730.0 0.00012895
16750.0 0.00012856
16770.0 0.00012816
16790.0 0.00012776
16810.0 0.00012737
16830.0 0.00012698
16850.0 0.00012658
16870.0 0.00012618
16890.0 0.00012579
16910.0 0.00012539
16930.0 0.00012498
16950.0 0.00012459
16970.0 0.00012419
16990.0 0.00012378
17010.0 0.00012338
17030.0 0.000123
17050.0 0.00012259
17070.0 0.00012218
17090.0 0.00012179
17110.0 0.00012139
17130.0 0.00012098
17150.0 0.00012058
17170.0 0.00012019
17190.0 0.00011978
17210.0 0.00011938
17230.0 0.00011899
17250.0 0.00011858
17270.0 0.00011817
17290.0 0.00011777
17310.0 0.00011738
17330.0 0.00011697
17350.0 0.00011656
17370.0 0.00011617
17390.0 0.00011576
17410.0 0.00011535
17430.0 0.00011496
17450.0 0.00011456
17470.0 0.00011415
17490.0 0.00011374
17510.0 0.00011335
17530.0 0.00011294
17550.0 0.00011253
17570.0 0.00011213
17590.0 0.00011174
17610.0 0.00011133
17630.0 0.00011092
17650.0 0.00011053
17670.0 0.00011012
17690.0 0.0001097
17710.0 0.00010931
17730.0 0.00010891
17750.0 0.0001085
17770.0 0.0001081
17790.0 0.00010771
17810.0 0.0001073
17830.0 0.00010689
17850.0 0.00010649
17870.0 0.00010609
17890.0 0.00010568
17910.0 0.00010528
17930.0 0.00010489
17950.0 0.00010448
17970.0 0.00010407
17990.0 0.00010368
18010.0 0.00010328
18030.0 0.00010287
18050.0 0.00010246
18070.0 0.00010207
18090.0 0.00010167
18110.0 0.00010126
18130.0 0.00010086
18150.0 0.00010047
18170.0 0.00010006
18190.0 9.9658e-05
18210.0 9.9267e-05
18230.0 9.8859e-05
18250.0 9.8447e-05
18270.0 9.8056e-05
18290.0 9.7659e-05
18310.0 9.7251e-05
18330.0 9.6853e-05
18350.0 9.6465e-05
18370.0 9.6058e-05
18390.0 9.5653e-05
18410.0 9.5261e-05
18430.0 9.4864e-05
18450.0 9.4451e-05
18470.0 9.4055e-05
18490.0 9.3666e-05
18510.0 9.3262e-05
18530.0 9.2861e-05
18550.0 9.2474e-05
18570.0 9.2075e-05
18590.0 9.1666e-05
18610.0 9.1271e-05
18630.0 9.0881e-05
18650.0 9.0476e-05
18670.0 9.0072e-05
18690.0 8.9688e-05
18710.0 8.9292e-05
18730.0 8.8888e-05
18750.0 8.8497e-05
18770.0 8.811e-05
18790.0 8.77e-05
18810.0 8.73e-05
18830.0 8.6914e-05
18850.0 8.6518e-05
18870.0 8.6114e-05
18890.0 8.5726e-05
18910.0 8.5339e-05
18930.0 8.4936e-05
18950.0 8.454e-05
18970.0 8.4155e-05
18990.0 8.3759e-05
19010.0 8.3349e-05
19030.0 8.2965e-05
19050.0 8.2577e-05
19070.0 8.2177e-05
19090.0 8.1784e-05
19110.0 8.1404e-05
19130.0 8.1005e-05
19150.0 8.0604e-05
19170.0 8.0218e-05
19190.0 7.983e-05
19210.0 7.9428e-05
19230.0 7.9033e-05
19250.0 7.8654e-05
19270.0 7.826e-05
19290.0 7.7863e-05
19310.0 7.7481e-05
19330.0 7.7095e-05
19350.0 7.6689e-05
19370.0 7.63e-05
19390.0 7.5918e-05
19410.0 7.5524e-05
19430.0 7.5126e-05
19450.0 7.4746e-05
19470.0 7.4361e-05
19490.0 7.3963e-05
19510.0 7.3576e-05
19530.0 7.3196e-05
19550.0 7.2799e-05
19570.0 7.24e-05
19590.0 7.2021e-05
19610.0 7.1635e-05
19630.0 7.1239e-05
19650.0 7.0855e-05
19670.0 7.0478e-05
19690.0 7.0082e-05
19710.0 6.9689e-05
19730.0 6.931e-05
19750.0 6.8923e-05
19770.0 6.8522e-05
19790.0 6.814e-05
19810.0 6.7762e-05
19830.0 6.7371e-05
19850.0 6.6982e-05
19870.0 6.6611e-05
19890.0 6.623e-05
19910.0 6.5847e-05
19930.0 6.5491e-05
19950.0 6.5155e-05
19970.0 6.4833e-05
19990.0 6.4547e-05
20010.0 6.4309e-05
20030.0 6.41e-05
20050.0 6.3926e-05
20070.0 6.3789e-05
20090.0 6.3677e-05
20110.0 6.3578e-05
20130.0 6.3494e-05
20150.0 6.3419e-05
20170.0 6.3345e-05
20190.0 6.327e-05
20210.0 6.3197e-05
20230.0 6.3121e-05
20250.0 6.3039e-05
20270.0 6.2955e-05
20290.0 6.2869e-05
20310.0 6.2776e-05
20330.0 6.2674e-05
20350.0 6.2574e-05
20370.0 6.2467e-05
20390.0 6.2353e-05
20410.0 6.2236e-05
20430.0 6.2119e-05
20450.0 6.1992e-05
20470.0 6.1863e-05
20490.0 6.1736e-05
20510.0 6.1608e-05
20530.0 6.1476e-05
20550.0 6.1349e-05
20570.0 6.1227e-05
20590.0 6.1104e-05
20610.0 6.0983e-05
20630.0 6.0869e-05
20650.0 6.0755e-05
20670.0 6.0638e-05
20690.0 6.0527e-05
20710.0 6.0417e-05
20730.0 6.0301e-05
20750.0 6.0181e-05
20770.0 6.0061e-05
20790.0 5.9933e-05
20810.0 5.9792e-05
20830.0 5.9645e-05
20850.0 5.9491e-05
20870.0 5.9318e-05
20890.0 5.9134e-05
20910.0 5.8948e-05
20930.0 5.8748e-05
20950.0 5.8534e-05
20970.0 5.8317e-05
20990.0 5.8098e-05
21010.0 5.7863e-05
21030.0 5.7627e-05
21050.0 5.7396e-05
21070.0 5.716e-05
21090.0 5.6917e-05
21110.0 5.6686e-05
21130.0 5.6459e-05
21150.0 5.6227e-05
21170.0 5.5998e-05
21190.0 5.578e-05
21210.0 5.5554e-05
21230.0 5.5324e-05
21250.0 5.5102e-05
21270.0 5.488e-05
21290.0 5.4647e-05
21310.0 5.4412e-05
21330.0 5.4183e-05
21350.0 5.3941e-05
21370.0 5.3689e-05
21390.0 5.3441e-05
21410.0 5.3187e-05
21430.0 5.2912e-05
21450.0 5.2638e-05
21470.0 5.2367e-05
21490.0 5.2082e-05
21510.0 5.1787e-05
21530.0 5.1499e-05
21550.0 5.1205e-05
21570.0 5.0896e-05
21590.0 5.059e-05
21610.0 5.029e-05
21630.0 4.9979e-05
21650.0 4.9658e-05
21670.0 4.9357e-05
21690.0 4.9052e-05
21710.0 4.8737e-05
21730.0 4.843e-05
21750.0 4.8132e-05
21770.0 4.7818e-05
21790.0 4.7506e-05
21810.0 4.7205e-05
21830.0 4.69e-05
21850.0 4.6586e-05
21870.0 4.6279e-05
21890.0 4.5982e-05
21910.0 4.5673e-05
21930.0 4.5365e-05
21950.0 4.5068e-05
21970.0 4.477e-05
21990.0 4.4461e-05
22010.0 4.417e-05
22030.0 4.3888e-05
22050.0 4.3603e-05
22070.0 4.332e-05
22090.0 4.3049e-05
22110.0 4.2779e-05
22130.0 4.2514e-05
22150.0 4.2265e-05
22170.0 4.2029e-05
22190.0 4.1795e-05
22210.0 4.1571e-05
22230.0 4.1366e-05
22250.0 4.1164e-05
22270.0 4.0967e-05
22290.0 4.0781e-05
22310.0 4.0603e-05
22330.0 4.0421e-05
22350.0 4.0246e-05
22370.0 4.0077e-05
22390.0 3.9906e-05
22410.0 3.9731e-05
22430.0 3.9562e-05
22450.0 3.9392e-05
22470.0 3.9217e-05
22490.0 3.9041e-05
22510.0 3.8868e-05
22530.0 3.8687e-05
22550.0 3.8503e-05
22570.0 3.8323e-05
22590.0 3.8142e-05
22610.0 3.7957e-05
22630.0 3.7774e-05
22650.0 3.7597e-05
22670.0 3.7417e-05
22690.0 3.7239e-05
22710.0 3.7068e-05
22730.0 3.6901e-05
22750.0 3.6732e-05
22770.0 3.6573e-05
22790.0 3.6422e-05
22810.0 3.6273e-05
22830.0 3.6129e-05
22850.0 3.5994e-05
22870.0 3.5864e-05
22890.0 3.5736e-05
22910.0 3.5614e-05
22930.0 3.5498e-05
22950.0 3.5384e-05
22970.0 3.5271e-05
