#lamb flux
1010.0 1.6738e-05
1030.0 1.8842e-05
1050.0 2.1121e-05
1070.0 2.3699e-05
1090.0 2.6687e-05
1110.0 2.9768e-05
1130.0 3.2897e-05
1150.0 3.6203e-05
1170.0 3.9657e-05
1190.0 4.2998e-05
1210.0 4.6449e-05
1230.0 5.0089e-05
1250.0 5.3743e-05
1270.0 5.7404e-05
1290.0 6.1357e-05
1310.0 6.5426e-05
1330.0 6.9474e-05
1350.0 7.3677e-05
1370.0 7.8108e-05
1390.0 8.2563e-05
1410.0 8.7013e-05
1430.0 9.1714e-05
1450.0 9.6498e-05
1470.0 0.00010123
1490.0 0.00010605
1510.0 0.00011113
1530.0 0.00011602
1550.0 0.00012088
1570.0 0.00012586
1590.0 0.00013082
1610.0 0.00013556
1630.0 0.00014034
1650.0 0.00014514
1670.0 0.00014971
1690.0 0.0001541
1710.0 0.00015851
1730.0 0.00016278
1750.0 0.00016664
1770.0 0.00017042
1790.0 0.00017407
1810.0 0.00017738
1830.0 0.0001804
1850.0 0.00018343
1870.0 0.00018611
1890.0 0.00018842
1910.0 0.00019057
1930.0 0.00019256
1950.0 0.00019414
1970.0 0.00019542
1990.0 0.0001966
2010.0 0.00019747
2030.0 0.00019797
2050.0 0.00019833
2070.0 0.00019851
2090.0 0.00019824
2110.0 0.0001977
2130.0 0.00019699
2150.0 0.00019595
2170.0 0.00019451
2190.0 0.00019292
2210.0 0.00019107
2230.0 0.00018884
2250.0 0.00018635
2270.0 0.00018373
2290.0 0.00018079
2310.0 0.00017752
2330.0 0.00017411
2350.0 0.00017053
2370.0 0.00016666
2390.0 0.00016263
2410.0 0.00015852
2430.0 0.00015413
2450.0 0.00014947
2470.0 0.00014461
2490.0 0.00013948
2510.0 0.00013412
2530.0 0.00012882
2550.0 0.00012399
2570.0 0.00012019
2590.0 0.00011797
2610.0 0.00011845
2630.0 0.00012196
2650.0 0.00012789
2670.0 0.00013621
2690.0 0.00014627
2710.0 0.00015574
2730.0 0.00016342
2750.0 0.00016932
2770.0 0.0001719
2790.0 0.00017085
2810.0 0.00016682
2830.0 0.00016004
2850.0 0.00015099
2870.0 0.0001405
2890.0 0.00012886
2910.0 0.00011656
2930.0 0.00010414
2950.0 9.1367e-05
2970.0 7.8403e-05
2990.0 6.5684e-05
3010.0 0.00011956
3030.0 9.0917e-05
3050.0 6.2319e-05
3070.0 3.4536e-05
3090.0 2.6008e-05
3110.0 2.6008e-05
3130.0 2.6008e-05
3150.0 2.6008e-05
3170.0 2.6008e-05
3190.0 2.6008e-05
3210.0 0.00010937
3230.0 0.00051037
3250.0 0.0010191
3270.0 0.0011081
3290.0 0.0013704
3310.0 0.0011549
3330.0 0.0011893
3350.0 0.0013157
3370.0 0.0014889
3390.0 0.0016885
3410.0 0.0019014
3430.0 0.0021607
3450.0 0.0024345
3470.0 0.0027232
3490.0 0.002938
3510.0 0.0030465
3530.0 0.0032215
3550.0 0.0033074
3570.0 0.0032212
3590.0 0.0033953
3610.0 0.0032468
3630.0 0.0039775
3650.0 0.0045042
3670.0 0.0048323
3690.0 0.0044514
3710.0 0.0035057
3730.0 0.0031793
3750.0 0.002775
3770.0 0.0024642
3790.0 0.0021582
3810.0 0.0021056
3830.0 0.0025913
3850.0 0.0010242
3870.0 0.0023909
3890.0 0.0029085
3910.0 0.0030904
3930.0 0.0036769
3950.0 0.0040005
3970.0 0.0047582
3990.0 0.005884
4010.0 0.0041201
4030.0 0.0033217
4050.0 0.002754
4070.0 0.002976
4090.0 0.0046349
4110.0 0.0042891
4130.0 0.0045349
4150.0 0.0042423
4170.0 0.0040623
4190.0 0.0037428
4210.0 0.005565
4230.0 0.0057933
4250.0 0.0062295
4270.0 0.005814
4290.0 0.0059983
4310.0 0.0068451
4330.0 0.0080028
4350.0 0.0078386
4370.0 0.0075073
4390.0 0.006555
4410.0 0.0060855
4430.0 0.0048691
4450.0 0.0042021
4470.0 0.0047537
4490.0 0.0057507
4510.0 0.0059753
4530.0 0.0063292
4550.0 0.006757
4570.0 0.0093323
4590.0 0.013566
4610.0 0.016134
4630.0 0.016096
4650.0 0.016264
4670.0 0.018159
4690.0 0.019961
4710.0 0.016348
4730.0 0.01241
4750.0 0.0099576
4770.0 0.0090162
4790.0 0.008697
4810.0 0.0083244
4830.0 0.0091473
4850.0 0.010481
4870.0 0.011552
4890.0 0.011852
4910.0 0.010677
4930.0 0.011239
4950.0 0.014036
4970.0 0.017172
4990.0 0.017982
5010.0 0.016497
5030.0 0.013607
5050.0 0.010247
5070.0 0.0081071
5090.0 0.0072745
5110.0 0.007101
5130.0 0.0072757
5150.0 0.0072635
5170.0 0.0071136
5190.0 0.0067892
5210.0 0.0066624
5230.0 0.0073538
5250.0 0.0082362
5270.0 0.0097835
5290.0 0.011369
5310.0 0.011798
5330.0 0.012505
5350.0 0.013889
5370.0 0.014879
5390.0 0.013629
5410.0 0.012045
5430.0 0.011545
5450.0 0.013281
5470.0 0.016641
5490.0 0.019811
5510.0 0.021272
5530.0 0.021013
5550.0 0.019962
5570.0 0.019284
5590.0 0.018688
5610.0 0.018578
5630.0 0.018452
5650.0 0.018369
5670.0 0.018377
5690.0 0.01719
5710.0 0.014504
5730.0 0.012711
5750.0 0.011751
5770.0 0.011928
5790.0 0.012444
5810.0 0.013118
5830.0 0.013444
5850.0 0.012856
5870.0 0.011944
5890.0 0.011153
5910.0 0.011381
5930.0 0.0121
5950.0 0.011541
5970.0 0.010314
5990.0 0.0087277
6010.0 0.0070818
6030.0 0.0063012
6050.0 0.0066335
6070.0 0.0072235
6090.0 0.007223
6110.0 0.0063984
6130.0 0.0063319
6150.0 0.0072271
6170.0 0.0084721
6190.0 0.0095993
6210.0 0.0097724
6230.0 0.0095001
6250.0 0.0087241
6270.0 0.0074289
6290.0 0.0061891
6310.0 0.005396
6330.0 0.0051836
6350.0 0.0053562
6370.0 0.0053937
6390.0 0.0058057
6410.0 0.0070453
6430.0 0.0089264
6450.0 0.010521
6470.0 0.011086
6490.0 0.010869
6510.0 0.011069
6530.0 0.011545
6550.0 0.011443
6570.0 0.011822
6590.0 0.011979
6610.0 0.01214
6630.0 0.012188
6650.0 0.011663
6670.0 0.010736
6690.0 0.0095506
6710.0 0.0087622
6730.0 0.0087846
6750.0 0.0092217
6770.0 0.0095625
6790.0 0.0097937
6810.0 0.0099078
6830.0 0.0097026
6850.0 0.0093623
6870.0 0.0088
6890.0 0.0085617
6910.0 0.0081374
6930.0 0.008307
6950.0 0.0089237
6970.0 0.0092411
6990.0 0.0095113
7010.0 0.0093455
7030.0 0.0086653
7050.0 0.007625
7070.0 0.0065526
7090.0 0.0058573
7110.0 0.0057596
7130.0 0.0058894
7150.0 0.0054887
7170.0 0.0051288
7190.0 0.0053777
7210.0 0.0060407
7230.0 0.0070099
7250.0 0.0076166
7270.0 0.0076907
7290.0 0.0070769
7310.0 0.0064333
7330.0 0.0060465
7350.0 0.006023
7370.0 0.006169
7390.0 0.0064182
7410.0 0.0069986
7430.0 0.0081169
7450.0 0.0093164
7470.0 0.010088
7490.0 0.010148
7510.0 0.009624
7530.0 0.0080627
7550.0 0.007095
7570.0 0.0061773
7590.0 0.005726
7610.0 0.0059836
7630.0 0.0066739
7650.0 0.007519
7670.0 0.0083057
7690.0 0.0088177
7710.0 0.0094028
7730.0 0.010041
7750.0 0.010613
7770.0 0.010574
7790.0 0.010618
7810.0 0.010902
7830.0 0.011124
7850.0 0.010856
7870.0 0.010443
7890.0 0.010257
7910.0 0.009748
7930.0 0.0096028
7950.0 0.009166
7970.0 0.0090058
7990.0 0.0088075
8010.0 0.009155
8030.0 0.0092389
8050.0 0.0093736
8070.0 0.0092941
8090.0 0.009271
8110.0 0.0089013
8130.0 0.0088727
8150.0 0.0087249
8170.0 0.0084972
8190.0 0.0083607
8210.0 0.0084022
8230.0 0.0081298
8250.0 0.0078435
8270.0 0.0069785
8290.0 0.0056309
8310.0 0.0041985
8330.0 0.0031849
8350.0 0.0029244
8370.0 0.0034809
8390.0 0.0042377
8410.0 0.0046535
8430.0 0.0048793
8450.0 0.0051254
8470.0 0.0054355
8490.0 0.0060704
8510.0 0.006919
8530.0 0.0080413
8550.0 0.0092302
8570.0 0.010285
8590.0 0.011124
8610.0 0.01169
8630.0 0.011892
8650.0 0.011875
8670.0 0.011892
8690.0 0.012406
8710.0 0.013024
8730.0 0.013519
8750.0 0.013444
8770.0 0.013598
8790.0 0.013502
8810.0 0.01264
8830.0 0.012069
8850.0 0.011244
8870.0 0.010577
8890.0 0.010289
8910.0 0.010389
8930.0 0.0098502
8950.0 0.0093194
8970.0 0.0091096
8990.0 0.008994
9010.0 0.0086684
9030.0 0.0084707
9050.0 0.0084086
9070.0 0.0083795
9090.0 0.0083534
9110.0 0.0083283
9130.0 0.0083024
9150.0 0.0082767
9170.0 0.0082454
9190.0 0.0082168
9210.0 0.0082372
9230.0 0.0081953
9250.0 0.0081611
9270.0 0.0081305
9290.0 0.0081023
9310.0 0.0080748
9330.0 0.0080482
9350.0 0.0080231
9370.0 0.007998
9390.0 0.0079723
9410.0 0.0079474
9430.0 0.0079219
9450.0 0.0078889
9470.0 0.0078584
9490.0 0.0078407
9510.0 0.0078192
9530.0 0.0077963
9550.0 0.0077732
9570.0 0.0077494
9590.0 0.0077252
9610.0 0.0077008
9630.0 0.0076766
9650.0 0.0076523
9670.0 0.0076277
9690.0 0.0076034
9710.0 0.0075792
9730.0 0.0075547
9750.0 0.0075303
9770.0 0.0075062
9790.0 0.0074818
9810.0 0.0074572
9830.0 0.0074329
9850.0 0.0074086
9870.0 0.0073838
9890.0 0.0073591
9910.0 0.0073345
9930.0 0.0073088
9950.0 0.0072241
9970.0 0.0072168
9990.0 0.007206
10010.0 0.007193
10030.0 0.0071751
10050.0 0.0071529
10070.0 0.0071295
10090.0 0.0071067
10110.0 0.0070801
10130.0 0.0070556
10150.0 0.00703
10170.0 0.0070025
10190.0 0.0069729
10210.0 0.0069458
10230.0 0.0069193
10250.0 0.0068904
10270.0 0.0068616
10290.0 0.0068345
10310.0 0.0068052
10330.0 0.0067738
10350.0 0.0067447
10370.0 0.0067155
10390.0 0.0066837
10410.0 0.0066519
10430.0 0.0066224
10450.0 0.0065903
10470.0 0.0065567
10490.0 0.0065246
10510.0 0.0064924
10530.0 0.0064562
10550.0 0.0064211
10570.0 0.0063877
10590.0 0.0063519
10610.0 0.0063146
10630.0 0.0062792
10650.0 0.006243
10670.0 0.0062033
10690.0 0.0061646
10710.0 0.0061268
10730.0 0.0060865
10750.0 0.0060436
10770.0 0.0060042
10790.0 0.0059634
10810.0 0.0059197
10830.0 0.0058767
10850.0 0.005835
10870.0 0.0057886
10890.0 0.0057411
10910.0 0.0056949
10930.0 0.0056461
10950.0 0.0055923
10970.0 0.0055371
10990.0 0.0054814
11010.0 0.0054967
11030.0 0.0054272
11050.0 0.0053598
11070.0 0.0052916
11090.0 0.0052194
11110.0 0.0051537
11130.0 0.0050912
11150.0 0.005028
11170.0 0.0049668
11190.0 0.0049107
11210.0 0.0048541
11230.0 0.0047965
11250.0 0.004742
11270.0 0.004689
11290.0 0.0046337
11310.0 0.0045785
11330.0 0.0045273
11350.0 0.0044743
11370.0 0.0044196
11390.0 0.0043665
11410.0 0.0043134
11430.0 0.0042552
11450.0 0.0041964
11470.0 0.0041377
11490.0 0.0040749
11510.0 0.0040069
11530.0 0.0039393
11550.0 0.0038696
11570.0 0.0037939
11590.0 0.0037164
11610.0 0.0036397
11630.0 0.0035581
11650.0 0.003473
11670.0 0.0033915
11690.0 0.00331
11710.0 0.0032262
11730.0 0.0031445
11750.0 0.0030679
11770.0 0.0029903
11790.0 0.0029142
11810.0 0.0028434
11830.0 0.0027756
11850.0 0.0027071
11870.0 0.0026439
11890.0 0.0025856
11910.0 0.0025281
11930.0 0.0024726
11950.0 0.0024217
11970.0 0.0023726
11990.0 0.0023235
12010.0 0.0022779
12030.0 0.0022354
12050.0 0.0021935
12070.0 0.0021531
12090.0 0.0021174
12110.0 0.0020836
12130.0 0.0020516
12150.0 0.0020232
12170.0 0.0019988
12190.0 0.0019763
12210.0 0.0019578
12230.0 0.0019437
12250.0 0.0019334
12270.0 0.0019269
12290.0 0.0019249
12310.0 0.0019269
12330.0 0.0019333
12350.0 0.001944
12370.0 0.0019583
12390.0 0.0019767
12410.0 0.0020002
12430.0 0.0020261
12450.0 0.0020547
12470.0 0.0020872
12490.0 0.0021219
12510.0 0.0021567
12530.0 0.0021934
12550.0 0.0022313
12570.0 0.0022672
12590.0 0.0023012
12610.0 0.0023343
12630.0 0.0023638
12650.0 0.0023877
12670.0 0.0024078
12690.0 0.002423
12710.0 0.0024321
12730.0 0.0024357
12750.0 0.0024336
12770.0 0.0024258
12790.0 0.0024131
12810.0 0.0023956
12830.0 0.0023734
12850.0 0.0023487
12870.0 0.0023218
12890.0 0.002292
12910.0 0.0022614
12930.0 0.0022312
12950.0 0.0021999
12970.0 0.0021685
12990.0 0.0021391
13010.0 0.0021105
13030.0 0.002082
13050.0 0.0020547
13070.0 0.0020291
13090.0 0.0020032
13110.0 0.0019775
13130.0 0.0019529
13150.0 0.0019286
13170.0 0.0019033
13190.0 0.001879
13210.0 0.0018558
13230.0 0.0018325
13250.0 0.00181
13270.0 0.0017895
13290.0 0.0017703
13310.0 0.0017526
13330.0 0.0017378
13350.0 0.001726
13370.0 0.0017167
13390.0 0.0017104
13410.0 0.001707
13430.0 0.0017058
13450.0 0.0017066
13470.0 0.0017085
13490.0 0.0017106
13510.0 0.0017125
13530.0 0.001713
13550.0 0.0017113
13570.0 0.001707
13590.0 0.0016994
13610.0 0.0016885
13630.0 0.0016747
13650.0 0.0016571
13670.0 0.0016367
13690.0 0.0016146
13710.0 0.0015905
13730.0 0.0015642
13750.0 0.0015389
13770.0 0.001514
13790.0 0.0014892
13810.0 0.0014659
13830.0 0.0014452
13850.0 0.0014256
13870.0 0.0014078
13890.0 0.0013926
13910.0 0.0013795
13930.0 0.0013677
13950.0 0.0013578
13970.0 0.0013497
13990.0 0.0013425
14010.0 0.0013361
14030.0 0.0013305
14050.0 0.0013254
14070.0 0.0013202
14090.0 0.001315
14110.0 0.0013096
14130.0 0.0013037
14150.0 0.001297
14170.0 0.0012898
14190.0 0.001282
14210.0 0.0012731
14230.0 0.0012638
14250.0 0.0012543
14270.0 0.0012441
14290.0 0.0012336
14310.0 0.0012238
14330.0 0.0012143
14350.0 0.0012052
14370.0 0.0011971
14390.0 0.0011901
14410.0 0.001184
14430.0 0.001179
14450.0 0.0011752
14470.0 0.0011724
14490.0 0.0011704
14510.0 0.0011693
14530.0 0.0011688
14550.0 0.001169
14570.0 0.0011698
14590.0 0.0011711
14610.0 0.001173
14630.0 0.0011758
14650.0 0.0011792
14670.0 0.0011834
14690.0 0.0011888
14710.0 0.0011954
14730.0 0.0012028
14750.0 0.0012114
14770.0 0.0012217
14790.0 0.001233
14810.0 0.0012453
14830.0 0.0012601
14850.0 0.0012763
14870.0 0.0012934
14890.0 0.0013124
14910.0 0.001333
14930.0 0.0013535
14950.0 0.0013733
14970.0 0.0013926
14990.0 0.0014094
15010.0 0.0014227
15030.0 0.001433
15050.0 0.0014403
15070.0 0.0014444
15090.0 0.0014465
15110.0 0.0014473
15130.0 0.0014471
15150.0 0.0014464
15170.0 0.0014454
15190.0 0.0014443
15210.0 0.0014432
15230.0 0.0014421
15250.0 0.0014409
15270.0 0.0014398
15290.0 0.0014387
15310.0 0.0014376
15330.0 0.0014365
15350.0 0.0014354
15370.0 0.0014343
15390.0 0.0014332
15410.0 0.0014322
15430.0 0.0014311
15450.0 0.00143
15470.0 0.001429
15490.0 0.0014279
15510.0 0.0014269
15530.0 0.0014258
15550.0 0.0014248
15570.0 0.0014238
15590.0 0.0014227
15610.0 0.0014217
15630.0 0.0014206
15650.0 0.0014196
15670.0 0.0014186
15690.0 0.0014175
15710.0 0.0014165
15730.0 0.0014155
15750.0 0.0014145
15770.0 0.0014134
15790.0 0.0014124
15810.0 0.0014114
15830.0 0.0014103
15850.0 0.0014093
15870.0 0.0014083
15890.0 0.0014072
15910.0 0.0014062
15930.0 0.0014051
15950.0 0.0014041
15970.0 0.001403
15990.0 0.001402
16010.0 0.0014009
16030.0 0.0013998
16050.0 0.0013988
16070.0 0.0013977
16090.0 0.0013966
16110.0 0.0013955
16130.0 0.0013944
16150.0 0.0013933
16170.0 0.0013922
16190.0 0.0013911
16210.0 0.0013899
16230.0 0.0013888
16250.0 0.0013876
16270.0 0.0013865
16290.0 0.0013853
16310.0 0.0013841
16330.0 0.0013829
16350.0 0.0013817
16370.0 0.0013805
16390.0 0.0013793
16410.0 0.001378
16430.0 0.0013768
16450.0 0.0013755
16470.0 0.0013743
16490.0 0.0013729
16510.0 0.0013716
16530.0 0.0013703
16550.0 0.001369
16570.0 0.0013676
16590.0 0.0013662
16610.0 0.0013648
16630.0 0.0013634
16650.0 0.001362
16670.0 0.0013606
16690.0 0.0013591
16710.0 0.0013576
16730.0 0.0013561
16750.0 0.0013546
16770.0 0.0013531
16790.0 0.0013515
16810.0 0.0013499
16830.0 0.0013484
16850.0 0.0013467
16870.0 0.0013451
16890.0 0.0013434
16910.0 0.0013417
16930.0 0.00134
16950.0 0.0013383
16970.0 0.0013366
16990.0 0.0013348
17010.0 0.001333
17030.0 0.0013312
17050.0 0.0013293
17070.0 0.0013274
17090.0 0.0013256
17110.0 0.0013236
17130.0 0.0013217
17150.0 0.0013197
17170.0 0.0013177
17190.0 0.0013157
17210.0 0.0013136
17230.0 0.0013116
17250.0 0.0013095
17270.0 0.0013073
17290.0 0.0013052
17310.0 0.001303
17330.0 0.0013008
17350.0 0.0012985
17370.0 0.0012963
17390.0 0.001294
17410.0 0.0012917
17430.0 0.0012893
17450.0 0.001287
17470.0 0.0012846
17490.0 0.0012821
17510.0 0.0012797
17530.0 0.0012772
17550.0 0.0012747
17570.0 0.0012722
17590.0 0.0012696
17610.0 0.001267
17630.0 0.0012644
17650.0 0.0012617
17670.0 0.0012591
17690.0 0.0012563
17710.0 0.0012536
17730.0 0.0012509
17750.0 0.0012481
17770.0 0.0012453
17790.0 0.0012424
17810.0 0.0012396
17830.0 0.0012367
17850.0 0.0012338
17870.0 0.0012308
17890.0 0.0012278
17910.0 0.0012248
17930.0 0.0012218
17950.0 0.0012188
17970.0 0.0012157
17990.0 0.0012126
18010.0 0.0012095
18030.0 0.0012064
18050.0 0.0012032
18070.0 0.0012
18090.0 0.0011968
18110.0 0.0011936
18130.0 0.0011903
18150.0 0.0011871
18170.0 0.0011838
18190.0 0.0011804
18210.0 0.0011771
18230.0 0.0011737
18250.0 0.0011703
18270.0 0.001167
18290.0 0.0011635
18310.0 0.0011601
18330.0 0.0011566
18350.0 0.0011532
18370.0 0.0011497
18390.0 0.0011462
18410.0 0.0011427
18430.0 0.0011391
18450.0 0.0011355
18470.0 0.001132
18490.0 0.0011284
18510.0 0.0011248
18530.0 0.0011212
18550.0 0.0011176
18570.0 0.0011139
18590.0 0.0011103
18610.0 0.0011066
18630.0 0.0011029
18650.0 0.0010992
18670.0 0.0010955
18690.0 0.0010918
18710.0 0.0010881
18730.0 0.0010844
18750.0 0.0010807
18770.0 0.001077
18790.0 0.0010732
18810.0 0.0010694
18830.0 0.0010657
18850.0 0.0010619
18870.0 0.0010581
18890.0 0.0010544
18910.0 0.0010506
18930.0 0.0010468
18950.0 0.001043
18970.0 0.0010393
18990.0 0.0010355
19010.0 0.0010317
19030.0 0.0010279
19050.0 0.0010241
19070.0 0.0010203
19090.0 0.0010165
19110.0 0.0010127
19130.0 0.0010089
19150.0 0.0010051
19170.0 0.0010013
19190.0 0.00099756
19210.0 0.00099376
19230.0 0.00098998
19250.0 0.00098622
19270.0 0.00098244
19290.0 0.00097867
19310.0 0.00097492
19330.0 0.00097117
19350.0 0.0009674
19370.0 0.00096366
19390.0 0.00095993
19410.0 0.00095619
19430.0 0.00095246
19450.0 0.00094876
19470.0 0.00094505
19490.0 0.00094134
19510.0 0.00093765
19530.0 0.00093399
19550.0 0.0009303
19570.0 0.00092663
19590.0 0.00092299
19610.0 0.00091935
19630.0 0.00091571
19650.0 0.00091209
19670.0 0.0009085
19690.0 0.00090489
19710.0 0.0009013
19730.0 0.00089773
19750.0 0.00089417
19770.0 0.0008906
19790.0 0.00088707
19810.0 0.00088355
19830.0 0.00088001
19850.0 0.00087645
19870.0 0.00087284
19890.0 0.00086905
19910.0 0.00086493
19930.0 0.00086035
19950.0 0.00085503
19970.0 0.00084852
19990.0 0.00084062
20010.0 0.00083151
20030.0 0.00082067
20050.0 0.00080818
20070.0 0.00079481
20090.0 0.0007807
20110.0 0.00076529
20130.0 0.00075003
20150.0 0.0007352
20170.0 0.00072024
20190.0 0.00070541
20210.0 0.00069152
20230.0 0.00067806
20250.0 0.00066465
20270.0 0.00065202
20290.0 0.00064016
20310.0 0.00062853
20330.0 0.00061712
20350.0 0.00060682
20370.0 0.00059686
20390.0 0.00058712
20410.0 0.00057799
20430.0 0.00056953
20450.0 0.00056117
20470.0 0.0005533
20490.0 0.00054612
20510.0 0.00053938
20530.0 0.00053299
20550.0 0.00052724
20570.0 0.00052213
20590.0 0.00051742
20610.0 0.00051324
20630.0 0.00050967
20650.0 0.00050658
20670.0 0.00050395
20690.0 0.00050185
20710.0 0.00050018
20730.0 0.00049893
20750.0 0.00049806
20770.0 0.00049746
20790.0 0.00049715
20810.0 0.0004971
20830.0 0.00049718
20850.0 0.00049734
20870.0 0.00049763
20890.0 0.00049791
20910.0 0.00049803
20930.0 0.00049807
20950.0 0.00049797
20970.0 0.00049761
20990.0 0.00049698
21010.0 0.0004961
21030.0 0.00049487
21050.0 0.00049331
21070.0 0.00049141
21090.0 0.00048911
21110.0 0.0004865
21130.0 0.00048359
21150.0 0.0004803
21170.0 0.00047673
21190.0 0.00047298
21210.0 0.0004689
21230.0 0.00046454
21250.0 0.00046012
21270.0 0.00045557
21290.0 0.0004508
21310.0 0.00044597
21330.0 0.00044127
21350.0 0.00043643
21370.0 0.00043158
21390.0 0.00042691
21410.0 0.00042236
21430.0 0.00041777
21450.0 0.00041348
21470.0 0.00040951
21490.0 0.00040571
21510.0 0.00040218
21530.0 0.00039908
21550.0 0.0003963
21570.0 0.00039384
21590.0 0.00039182
21610.0 0.0003902
21630.0 0.00038899
21650.0 0.00038821
21670.0 0.00038779
21690.0 0.00038775
21710.0 0.0003881
21730.0 0.00038874
21750.0 0.00038958
21770.0 0.00039079
21790.0 0.00039219
21810.0 0.00039364
21830.0 0.0003952
21850.0 0.0003969
21870.0 0.00039851
21890.0 0.00039998
21910.0 0.00040147
21930.0 0.00040283
21950.0 0.00040394
21970.0 0.00040491
21990.0 0.00040575
22010.0 0.00040629
22030.0 0.00040659
22050.0 0.00040671
22070.0 0.0004066
22090.0 0.00040625
22110.0 0.00040572
22130.0 0.000405
22150.0 0.00040409
22170.0 0.00040301
22190.0 0.00040177
22210.0 0.00040037
22230.0 0.00039884
22250.0 0.00039717
22270.0 0.00039533
22290.0 0.00039337
22310.0 0.00039129
22330.0 0.00038898
22350.0 0.00038652
22370.0 0.00038394
22390.0 0.00038113
22410.0 0.00037804
22430.0 0.00037485
22450.0 0.00037147
22470.0 0.00036776
22490.0 0.00036386
22510.0 0.00035986
22530.0 0.00035552
22550.0 0.0003509
22570.0 0.00034627
22590.0 0.0003415
22610.0 0.00033648
22630.0 0.00033143
22650.0 0.00032652
22670.0 0.00032145
22690.0 0.00031638
22710.0 0.00031154
22730.0 0.00030683
22750.0 0.00030205
22770.0 0.00029761
22790.0 0.00029349
22810.0 0.0002895
22830.0 0.00028571
22850.0 0.00028231
22870.0 0.00027912
22890.0 0.00027608
22910.0 0.00027334
22930.0 0.00027087
22950.0 0.00026854
22970.0 0.00026636
22990.0 0.00026445
23010.0 0.00026264
23030.0 0.0002609
23050.0 0.00025926
23070.0 0.00025771
23090.0 0.00025613
23110.0 0.00025455
23130.0 0.000253
23150.0 0.0002514
23170.0 0.00024971
23190.0 0.00024801
23210.0 0.0002463
23230.0 0.00024448
23250.0 0.00024263
23270.0 0.00024081
23290.0 0.00023897
23310.0 0.00023707
23330.0 0.00023527
23350.0 0.00023354
23370.0 0.00023181
23390.0 0.00023016
23410.0 0.00022862
23430.0 0.00022711
23450.0 0.00022565
23470.0 0.00022427
23490.0 0.00022295
23510.0 0.00022163
23530.0 0.00022034
23550.0 0.00021912
23570.0 0.00021789
