#lamb flux
1010.0 6.5761e-07
1030.0 7.0498e-07
1050.0 7.5963e-07
1070.0 8.2121e-07
1090.0 8.9118e-07
1110.0 9.6306e-07
1130.0 1.0356e-06
1150.0 1.1116e-06
1170.0 1.1903e-06
1190.0 1.265e-06
1210.0 1.341e-06
1230.0 1.4198e-06
1250.0 1.4972e-06
1270.0 1.5726e-06
1290.0 1.6525e-06
1310.0 1.7327e-06
1330.0 1.8099e-06
1350.0 1.8884e-06
1370.0 1.9696e-06
1390.0 2.0492e-06
1410.0 2.1268e-06
1430.0 2.2082e-06
1450.0 2.29e-06
1470.0 2.3695e-06
1490.0 2.4501e-06
1510.0 2.5354e-06
1530.0 2.6168e-06
1550.0 2.6974e-06
1570.0 2.7808e-06
1590.0 2.8645e-06
1610.0 2.9449e-06
1630.0 3.0276e-06
1650.0 3.1124e-06
1670.0 3.1946e-06
1690.0 3.2755e-06
1710.0 3.3592e-06
1730.0 3.443e-06
1750.0 3.5215e-06
1770.0 3.6017e-06
1790.0 3.6828e-06
1810.0 3.7606e-06
1830.0 3.8362e-06
1850.0 3.9155e-06
1870.0 3.9915e-06
1890.0 4.0637e-06
1910.0 4.1362e-06
1930.0 4.2092e-06
1950.0 4.2771e-06
1970.0 4.3426e-06
1990.0 4.4094e-06
2010.0 4.4734e-06
2030.0 4.5329e-06
2050.0 4.5932e-06
2070.0 4.6537e-06
2090.0 4.7082e-06
2110.0 4.761e-06
2130.0 4.8145e-06
2150.0 4.8651e-06
2170.0 4.9112e-06
2190.0 4.9588e-06
2210.0 5.0056e-06
2230.0 5.0486e-06
2250.0 5.0903e-06
2270.0 5.1343e-06
2290.0 5.1754e-06
2310.0 5.2131e-06
2330.0 5.2526e-06
2350.0 5.2923e-06
2370.0 5.3291e-06
2390.0 5.3665e-06
2410.0 5.4072e-06
2430.0 5.4463e-06
2450.0 5.4848e-06
2470.0 5.5273e-06
2490.0 5.5762e-06
2510.0 5.6331e-06
2530.0 5.7185e-06
2550.0 5.8654e-06
2570.0 6.1099e-06
2590.0 6.4942e-06
2610.0 7.126e-06
2630.0 8.0361e-06
2650.0 9.1796e-06
2670.0 1.0571e-05
2690.0 1.2165e-05
2710.0 1.3749e-05
2730.0 1.522e-05
2750.0 1.6601e-05
2770.0 1.7774e-05
2790.0 1.8722e-05
2810.0 1.9539e-05
2830.0 2.0298e-05
2850.0 2.0965e-05
2870.0 2.1618e-05
2890.0 2.2305e-05
2910.0 2.3013e-05
2930.0 2.3715e-05
2950.0 2.4468e-05
2970.0 2.5263e-05
2990.0 2.6058e-05
3010.0 0.00011783
3030.0 0.00012156
3050.0 0.00012526
3070.0 0.00012854
3090.0 0.00013131
3110.0 0.00013277
3130.0 0.00013198
3150.0 0.00012799
3170.0 0.00011884
3190.0 0.00010441
3210.0 8.5025e-05
3230.0 6.3341e-05
3250.0 8.5051e-05
3270.0 6.1337e-05
3290.0 0.00011316
3310.0 5.8017e-05
3330.0 5.7946e-05
3350.0 6.5472e-05
3370.0 7.4597e-05
3390.0 8.4682e-05
3410.0 9.4822e-05
3430.0 0.00010553
3450.0 0.0001164
3470.0 0.00012653
3490.0 0.00013395
3510.0 0.0001561
3530.0 0.00019416
3550.0 0.00019063
3570.0 0.00016344
3590.0 0.00021053
3610.0 0.00014958
3630.0 0.00022349
3650.0 0.00025634
3670.0 0.00031646
3690.0 0.00029633
3710.0 0.00021017
3730.0 0.0002586
3750.0 0.00026331
3770.0 0.00028467
3790.0 0.00028479
3810.0 0.00030533
3830.0 0.00046896
3850.0 0.00058401
3870.0 0.00071277
3890.0 0.0007062
3910.0 0.00064348
3930.0 0.00064816
3950.0 0.0006915
3970.0 0.00071834
3990.0 0.00044466
4010.0 0.00025046
4030.0 0.00044867
4050.0 0.00060767
4070.0 0.00062533
4090.0 0.00041074
4110.0 0.00027285
4130.0 0.00045966
4150.0 0.00048654
4170.0 0.0004336
4190.0 0.00038128
4210.0 0.00054926
4230.0 0.00043255
4250.0 0.00044861
4270.0 0.00044539
4290.0 0.00041322
4310.0 0.00052505
4330.0 0.00058042
4350.0 0.00051729
4370.0 0.00044737
4390.0 0.00052061
4410.0 0.00052079
4430.0 0.00038302
4450.0 0.00033073
4470.0 0.00040827
4490.0 0.00033167
4510.0 0.00047315
4530.0 0.00048856
4550.0 0.00054905
4570.0 0.0007476
4590.0 0.00077345
4610.0 0.00070643
4630.0 0.0010585
4650.0 0.0013249
4670.0 0.0012897
4690.0 0.0010178
4710.0 0.0010515
4730.0 0.0010919
4750.0 0.00086651
4770.0 0.00067462
4790.0 0.0004749
4810.0 0.00060298
4830.0 0.00070833
4850.0 0.00064588
4870.0 0.00036269
4890.0 0.00075162
4910.0 0.0009177
4930.0 0.0010004
4950.0 0.0010735
4970.0 0.00085956
4990.0 0.00098955
5010.0 0.0011029
5030.0 0.0011276
5050.0 0.0010053
5070.0 0.00071396
5090.0 0.00058507
5110.0 0.00057515
5130.0 0.00056485
5150.0 0.00056729
5170.0 0.00051876
5190.0 0.00059498
5210.0 0.00060768
5230.0 0.00067247
5250.0 0.00077175
5270.0 0.00066486
5290.0 0.00071696
5310.0 0.0010043
5330.0 0.0011376
5350.0 0.00098486
5370.0 0.00091771
5390.0 0.0010423
5410.0 0.0011778
5430.0 0.0012216
5450.0 0.0012803
5470.0 0.0013208
5490.0 0.0014216
5510.0 0.001702
5530.0 0.0017672
5550.0 0.0018322
5570.0 0.0018878
5590.0 0.0018413
5610.0 0.0017269
5630.0 0.0017007
5650.0 0.0017616
5670.0 0.0017127
5690.0 0.0014892
5710.0 0.0014734
5730.0 0.0014406
5750.0 0.0014346
5770.0 0.0012451
5790.0 0.0012248
5810.0 0.0012686
5830.0 0.0013781
5850.0 0.0013037
5870.0 0.0012978
5890.0 0.0014585
5910.0 0.0013531
5930.0 0.0011512
5950.0 0.001074
5970.0 0.0011553
5990.0 0.0010372
6010.0 0.00092511
6030.0 0.00087617
6050.0 0.00079865
6070.0 0.00065395
6090.0 0.00064645
6110.0 0.00079376
6130.0 0.00086304
6150.0 0.00088523
6170.0 0.00087836
6190.0 0.00086784
6210.0 0.00093539
6230.0 0.001124
6250.0 0.00104
6270.0 0.00092605
6290.0 0.00082896
6310.0 0.00073037
6330.0 0.0006672
6350.0 0.00060951
6370.0 0.00062779
6390.0 0.00072032
6410.0 0.00088595
6430.0 0.0010619
6450.0 0.0011181
6470.0 0.0011639
6490.0 0.0013847
6510.0 0.0015648
6530.0 0.0014963
6550.0 0.0014226
6570.0 0.0014412
6590.0 0.0014293
6610.0 0.0014822
6630.0 0.0013859
6650.0 0.0012163
6670.0 0.0011393
6690.0 0.0011264
6710.0 0.0012711
6730.0 0.0011241
6750.0 0.00093333
6770.0 0.00086423
6790.0 0.00091982
6810.0 0.0010508
6830.0 0.0010528
6850.0 0.00094997
6870.0 0.00097287
6890.0 0.00096545
6910.0 0.00090762
6930.0 0.00097956
6950.0 0.00092499
6970.0 0.00087615
6990.0 0.00088103
7010.0 0.00090546
7030.0 0.00088541
7050.0 0.00083589
7070.0 0.00086673
7090.0 0.00079463
7110.0 0.00067644
7130.0 0.00060758
7150.0 0.00061474
7170.0 0.00073933
7190.0 0.00077048
7210.0 0.00073488
7230.0 0.00078298
7250.0 0.00078707
7270.0 0.00078331
7290.0 0.00083056
7310.0 0.00088443
7330.0 0.00085329
7350.0 0.00079137
7370.0 0.00073153
7390.0 0.00072587
7410.0 0.00082239
7430.0 0.00093605
7450.0 0.0010058
7470.0 0.0010464
7490.0 0.0011866
7510.0 0.0011766
7530.0 0.0010305
7550.0 0.00094774
7570.0 0.00081095
7590.0 0.0007533
7610.0 0.00072949
7630.0 0.00068559
7650.0 0.00073701
7670.0 0.00082418
7690.0 0.00090002
7710.0 0.001029
7730.0 0.0010747
7750.0 0.0011155
7770.0 0.0011755
7790.0 0.0012608
7810.0 0.0012599
7830.0 0.0011357
7850.0 0.0011377
7870.0 0.0011013
7890.0 0.0011055
7910.0 0.0010373
7930.0 0.0010173
7950.0 0.00084999
7970.0 0.00084311
7990.0 0.00082363
8010.0 0.00091779
8030.0 0.0009158
8050.0 0.00097295
8070.0 0.00093716
8090.0 0.00094122
8110.0 0.00092727
8130.0 0.00090981
8150.0 0.00085038
8170.0 0.00083717
8190.0 0.00083835
8210.0 0.00084698
8230.0 0.00074564
8250.0 0.00068393
8270.0 0.00060433
8290.0 0.00051334
8310.0 0.00044785
8330.0 0.00035033
8350.0 0.00028043
8370.0 0.00026723
8390.0 0.00026108
8410.0 0.0002769
8430.0 0.00035708
8450.0 0.00039066
8470.0 0.0004217
8490.0 0.00049159
8510.0 0.00053487
8530.0 0.00060534
8550.0 0.00071627
8570.0 0.00078879
8590.0 0.000831
8610.0 0.00092912
8630.0 0.001063
8650.0 0.0010945
8670.0 0.0011188
8690.0 0.0011552
8710.0 0.0011313
8730.0 0.0010916
8750.0 0.0010044
8770.0 0.0010027
8790.0 0.00098612
8810.0 0.00090745
8830.0 0.00090265
8850.0 0.00081918
8870.0 0.00077758
8890.0 0.00069779
8910.0 0.00078113
8930.0 0.00070907
8950.0 0.00071404
8970.0 0.00073088
8990.0 0.00071211
9010.0 0.00072994
9030.0 0.00069293
9050.0 0.0006898
9070.0 0.0006903
9090.0 0.00069068
9110.0 0.00069155
9130.0 0.00069177
9150.0 0.00069164
9170.0 0.00068971
9190.0 0.0006852
9210.0 0.00069596
9230.0 0.00069326
9250.0 0.00069185
9270.0 0.00069073
9290.0 0.00068978
9310.0 0.00068894
9330.0 0.00068813
9350.0 0.00068735
9370.0 0.00068654
9390.0 0.00068568
9410.0 0.00068479
9430.0 0.00068388
9450.0 0.00068289
9470.0 0.00068187
9490.0 0.00068084
9510.0 0.00067976
9530.0 0.00067863
9550.0 0.00067753
9570.0 0.00067641
9590.0 0.00067525
9610.0 0.00067409
9630.0 0.00067295
9650.0 0.00067179
9670.0 0.00067059
9690.0 0.00066943
9710.0 0.0006683
9730.0 0.00066712
9750.0 0.00066597
9770.0 0.00066491
9790.0 0.0006638
9810.0 0.00066269
9830.0 0.00066164
9850.0 0.00066062
9870.0 0.00065957
9890.0 0.00065857
9910.0 0.00065765
9930.0 0.0006567
9950.0 0.00065489
9970.0 0.00065432
9990.0 0.00065375
10010.0 0.0006531
10030.0 0.00065244
10050.0 0.00065155
10070.0 0.0006493
10090.0 0.0006492
10110.0 0.0006491
10130.0 0.00064887
10150.0 0.00064859
10170.0 0.00064823
10190.0 0.00064781
10210.0 0.00064745
10230.0 0.00064713
10250.0 0.00064679
10270.0 0.00064649
10290.0 0.00064627
10310.0 0.00064604
10330.0 0.00064582
10350.0 0.00064569
10370.0 0.0006456
10390.0 0.00064551
10410.0 0.00064546
10430.0 0.00064549
10450.0 0.00064552
10470.0 0.00064556
10490.0 0.00064567
10510.0 0.00064581
10530.0 0.00064593
10550.0 0.00064611
10570.0 0.00064634
10590.0 0.00064657
10610.0 0.00064682
10630.0 0.00064713
10650.0 0.00064745
10670.0 0.00064777
10690.0 0.00064813
10710.0 0.00064853
10730.0 0.00064892
10750.0 0.00064932
10770.0 0.00064978
10790.0 0.00065025
10810.0 0.00065071
10830.0 0.00065117
10850.0 0.0006516
10870.0 0.00065188
10890.0 0.00065189
10910.0 0.00065147
10930.0 0.00065024
10950.0 0.00064765
10970.0 0.00064341
10990.0 0.00063738
11010.0 0.00065084
11030.0 0.00063892
11050.0 0.00062498
11070.0 0.00060887
11090.0 0.00059022
11110.0 0.00057165
11130.0 0.0005531
11150.0 0.00053415
11170.0 0.00051578
11190.0 0.00049912
11210.0 0.00048312
11230.0 0.000468
11250.0 0.00045472
11270.0 0.00044296
11290.0 0.00043207
11310.0 0.00042246
11330.0 0.00041445
11350.0 0.00040708
11370.0 0.00040025
11390.0 0.00039408
11410.0 0.00038823
11430.0 0.00038208
11450.0 0.0003759
11470.0 0.00036963
11490.0 0.00036287
11510.0 0.00035545
11530.0 0.00034794
11550.0 0.00034012
11570.0 0.00033166
11590.0 0.00032303
11610.0 0.00031453
11630.0 0.00030564
11650.0 0.00029655
11670.0 0.00028798
11690.0 0.00027959
11710.0 0.00027114
11730.0 0.00026307
11750.0 0.00025561
11770.0 0.00024818
11790.0 0.00024099
11810.0 0.00023435
11830.0 0.00022801
11850.0 0.00022162
11870.0 0.00021568
11890.0 0.00021015
11910.0 0.00020461
11930.0 0.00019916
11950.0 0.00019405
11970.0 0.000189
11990.0 0.00018382
12010.0 0.00017887
12030.0 0.00017413
12050.0 0.00016935
12070.0 0.00016463
12090.0 0.00016039
12110.0 0.00015631
12130.0 0.00015242
12150.0 0.000149
12170.0 0.00014608
12190.0 0.00014349
12210.0 0.00014152
12230.0 0.00014025
12250.0 0.00013963
12270.0 0.00013973
12290.0 0.00014058
12310.0 0.00014209
12330.0 0.00014437
12350.0 0.00014732
12370.0 0.00015073
12390.0 0.00015465
12410.0 0.00015915
12430.0 0.00016366
12450.0 0.0001682
12470.0 0.00017286
12490.0 0.00017737
12510.0 0.00018145
12530.0 0.00018532
12550.0 0.00018888
12570.0 0.00019188
12590.0 0.00019441
12610.0 0.00019655
12630.0 0.0001982
12650.0 0.00019934
12670.0 0.00020009
12690.0 0.00020046
12710.0 0.00020047
12730.0 0.00020019
12750.0 0.00019958
12770.0 0.00019872
12790.0 0.00019766
12810.0 0.00019637
12830.0 0.00019482
12850.0 0.00019315
12870.0 0.00019129
12890.0 0.00018914
12910.0 0.0001868
12930.0 0.00018431
12950.0 0.00018148
12970.0 0.00017832
12990.0 0.00017508
13010.0 0.00017162
13030.0 0.00016784
13050.0 0.00016395
13070.0 0.00016012
13090.0 0.00015607
13110.0 0.00015199
13130.0 0.00014815
13150.0 0.00014445
13170.0 0.0001408
13190.0 0.00013758
13210.0 0.0001348
13230.0 0.00013232
13250.0 0.00013026
13270.0 0.00012871
13290.0 0.00012755
13310.0 0.00012677
13330.0 0.00012639
13350.0 0.00012632
13370.0 0.00012648
13390.0 0.00012681
13410.0 0.00012721
13430.0 0.00012761
13450.0 0.00012794
13470.0 0.00012813
13490.0 0.00012815
13510.0 0.00012795
13530.0 0.00012752
13550.0 0.0001269
13570.0 0.00012609
13590.0 0.0001251
13610.0 0.00012402
13630.0 0.00012292
13650.0 0.00012174
13670.0 0.00012059
13690.0 0.00011953
13710.0 0.00011853
13730.0 0.00011757
13750.0 0.00011675
13770.0 0.00011601
13790.0 0.00011531
13810.0 0.00011466
13830.0 0.00011406
13850.0 0.00011342
13870.0 0.00011274
13890.0 0.00011202
13910.0 0.00011125
13930.0 0.00011038
13950.0 0.00010944
13970.0 0.00010849
13990.0 0.00010747
14010.0 0.00010642
14030.0 0.00010542
14050.0 0.00010445
14070.0 0.00010349
14090.0 0.00010263
14110.0 0.00010189
14130.0 0.00010124
14150.0 0.00010069
14170.0 0.00010027
14190.0 9.9949e-05
14210.0 9.9732e-05
14230.0 9.962e-05
14250.0 9.9604e-05
14270.0 9.9697e-05
14290.0 9.9905e-05
14310.0 0.0001002
14330.0 0.00010059
14350.0 0.0001011
14370.0 0.00010169
14390.0 0.00010233
14410.0 0.00010307
14430.0 0.00010388
14450.0 0.00010468
14470.0 0.00010551
14490.0 0.00010641
14510.0 0.00010728
14530.0 0.00010812
14550.0 0.00010902
14570.0 0.00010996
14590.0 0.0001109
14610.0 0.00011194
14630.0 0.00011314
14650.0 0.00011443
14670.0 0.00011585
14690.0 0.0001175
14710.0 0.0001194
14730.0 0.00012135
14750.0 0.00012355
14770.0 0.00012601
14790.0 0.00012855
14810.0 0.00013114
14830.0 0.00013401
14850.0 0.00013687
14870.0 0.00013958
14890.0 0.00014226
14910.0 0.00014485
14930.0 0.0001471
14950.0 0.00014899
14970.0 0.00015061
14990.0 0.00015177
15010.0 0.00015248
15030.0 0.00015282
15050.0 0.00015282
15070.0 0.00015254
15090.0 0.00015208
15110.0 0.00015149
15130.0 0.00015083
15150.0 0.00015015
15170.0 0.00014944
15190.0 0.00014871
15210.0 0.00014799
15230.0 0.00014727
15250.0 0.00014654
15270.0 0.00014582
15290.0 0.00014511
15310.0 0.0001444
15330.0 0.00014368
15350.0 0.00014298
15370.0 0.00014228
15390.0 0.00014156
15410.0 0.00014086
15430.0 0.00014016
15450.0 0.00013946
15470.0 0.00013876
15490.0 0.00013808
15510.0 0.00013739
15530.0 0.0001367
15550.0 0.00013602
15570.0 0.00013535
15590.0 0.00013467
15610.0 0.00013398
15630.0 0.00013332
15650.0 0.00013266
15670.0 0.00013199
15690.0 0.00013133
15710.0 0.00013068
15730.0 0.00013002
15750.0 0.00012936
15770.0 0.00012872
15790.0 0.00012808
15810.0 0.00012743
15830.0 0.00012679
15850.0 0.00012616
15870.0 0.00012553
15890.0 0.0001249
15910.0 0.00012428
15930.0 0.00012366
15950.0 0.00012304
15970.0 0.00012242
15990.0 0.00012182
16010.0 0.00012121
16030.0 0.00012059
16050.0 0.00012
16070.0 0.00011941
16090.0 0.00011881
16110.0 0.00011822
16130.0 0.00011764
16150.0 0.00011705
16170.0 0.00011646
16190.0 0.00011589
16210.0 0.00011532
16230.0 0.00011474
16250.0 0.00011417
16270.0 0.00011362
16290.0 0.00011305
16310.0 0.00011249
16330.0 0.00011194
16350.0 0.00011139
16370.0 0.00011082
16390.0 0.00011028
16410.0 0.00010974
16430.0 0.0001092
16450.0 0.00010866
16470.0 0.00010813
16490.0 0.0001076
16510.0 0.00010706
16530.0 0.00010654
16550.0 0.00010602
16570.0 0.00010549
16590.0 0.00010497
16610.0 0.00010446
16630.0 0.00010395
16650.0 0.00010343
16670.0 0.00010293
16690.0 0.00010243
16710.0 0.00010191
16730.0 0.00010141
16750.0 0.00010092
16770.0 0.00010042
16790.0 9.9917e-05
16810.0 9.9433e-05
16830.0 9.8949e-05
16850.0 9.8455e-05
16870.0 9.797e-05
16890.0 9.7496e-05
16910.0 9.7009e-05
16930.0 9.6521e-05
16950.0 9.6052e-05
16970.0 9.558e-05
16990.0 9.5101e-05
17010.0 9.4632e-05
17030.0 9.4174e-05
17050.0 9.3701e-05
17070.0 9.3232e-05
17090.0 9.2775e-05
17110.0 9.2317e-05
17130.0 9.1845e-05
17150.0 9.1389e-05
17170.0 9.0942e-05
17190.0 9.0485e-05
17210.0 9.0029e-05
17230.0 8.9588e-05
17250.0 8.914e-05
17270.0 8.8683e-05
17290.0 8.8239e-05
17310.0 8.7801e-05
17330.0 8.7353e-05
17350.0 8.6905e-05
17370.0 8.6477e-05
17390.0 8.6041e-05
17410.0 8.5598e-05
17430.0 8.5167e-05
17450.0 8.4743e-05
17470.0 8.4299e-05
17490.0 8.3864e-05
17510.0 8.3443e-05
17530.0 8.3016e-05
17550.0 8.2582e-05
17570.0 8.2162e-05
17590.0 8.1746e-05
17610.0 8.1317e-05
17630.0 8.0895e-05
17650.0 8.0483e-05
17670.0 8.0064e-05
17690.0 7.9633e-05
17710.0 7.9224e-05
17730.0 7.8816e-05
17750.0 7.8397e-05
17770.0 7.7984e-05
17790.0 7.7585e-05
17810.0 7.7171e-05
17830.0 7.6756e-05
17850.0 7.6354e-05
17870.0 7.5952e-05
17890.0 7.5539e-05
17910.0 7.5132e-05
17930.0 7.474e-05
17950.0 7.4338e-05
17970.0 7.3933e-05
17990.0 7.3541e-05
18010.0 7.3149e-05
18030.0 7.274e-05
18050.0 7.2345e-05
18070.0 7.1958e-05
18090.0 7.1562e-05
18110.0 7.1163e-05
18130.0 7.0781e-05
18150.0 7.0396e-05
18170.0 7.0001e-05
18190.0 6.9615e-05
18210.0 6.9237e-05
18230.0 6.8845e-05
18250.0 6.8453e-05
18270.0 6.8078e-05
18290.0 6.7699e-05
18310.0 6.7312e-05
18330.0 6.6934e-05
18350.0 6.6566e-05
18370.0 6.6182e-05
18390.0 6.5802e-05
18410.0 6.5433e-05
18430.0 6.5061e-05
18450.0 6.4677e-05
18470.0 6.4308e-05
18490.0 6.3945e-05
18510.0 6.3572e-05
18530.0 6.3201e-05
18550.0 6.2843e-05
18570.0 6.2476e-05
18590.0 6.2102e-05
18610.0 6.174e-05
18630.0 6.1383e-05
18650.0 6.1016e-05
18670.0 6.0649e-05
18690.0 6.03e-05
18710.0 5.9942e-05
18730.0 5.9579e-05
18750.0 5.9227e-05
18770.0 5.888e-05
18790.0 5.8514e-05
18810.0 5.8158e-05
18830.0 5.7813e-05
18850.0 5.7462e-05
18870.0 5.7105e-05
18890.0 5.6763e-05
18910.0 5.6422e-05
18930.0 5.6068e-05
18950.0 5.5722e-05
18970.0 5.5385e-05
18990.0 5.5041e-05
19010.0 5.4685e-05
19030.0 5.4352e-05
19050.0 5.4017e-05
19070.0 5.3673e-05
19090.0 5.3335e-05
19110.0 5.3009e-05
19130.0 5.2668e-05
19150.0 5.2327e-05
19170.0 5.1999e-05
19190.0 5.167e-05
19210.0 5.133e-05
19230.0 5.0998e-05
19250.0 5.0679e-05
19270.0 5.0349e-05
19290.0 5.0017e-05
19310.0 4.9698e-05
19330.0 4.9378e-05
19350.0 4.9042e-05
19370.0 4.872e-05
19390.0 4.8405e-05
19410.0 4.8081e-05
19430.0 4.7755e-05
19450.0 4.7445e-05
19470.0 4.713e-05
19490.0 4.6807e-05
19510.0 4.6493e-05
19530.0 4.6186e-05
19550.0 4.5866e-05
19570.0 4.5546e-05
19590.0 4.5243e-05
19610.0 4.4934e-05
19630.0 4.4619e-05
19650.0 4.4313e-05
19670.0 4.4014e-05
19690.0 4.3701e-05
19710.0 4.3392e-05
19730.0 4.3094e-05
19750.0 4.2791e-05
19770.0 4.2478e-05
19790.0 4.218e-05
19810.0 4.1885e-05
19830.0 4.158e-05
19850.0 4.1275e-05
19870.0 4.0978e-05
19890.0 4.0659e-05
19910.0 4.0313e-05
19930.0 3.9949e-05
19950.0 3.954e-05
19970.0 3.9049e-05
19990.0 3.8476e-05
20010.0 3.7847e-05
20030.0 3.7111e-05
20050.0 3.6284e-05
20070.0 3.5431e-05
20090.0 3.4557e-05
20110.0 3.3623e-05
20130.0 3.2736e-05
20150.0 3.1913e-05
20170.0 3.1113e-05
20190.0 3.0356e-05
20210.0 2.969e-05
20230.0 2.9083e-05
20250.0 2.8515e-05
20270.0 2.8026e-05
20290.0 2.7614e-05
20310.0 2.7254e-05
20330.0 2.6952e-05
20350.0 2.6736e-05
20370.0 2.6578e-05
20390.0 2.6483e-05
20410.0 2.6455e-05
20430.0 2.6491e-05
20450.0 2.6594e-05
20470.0 2.6767e-05
20490.0 2.6998e-05
20510.0 2.7292e-05
20530.0 2.766e-05
20550.0 2.8078e-05
20570.0 2.853e-05
20590.0 2.9046e-05
20610.0 2.9601e-05
20630.0 3.0165e-05
20650.0 3.0752e-05
20670.0 3.1376e-05
20690.0 3.197e-05
20710.0 3.2541e-05
20730.0 3.3107e-05
20750.0 3.3645e-05
20770.0 3.4123e-05
20790.0 3.4573e-05
20810.0 3.4995e-05
20830.0 3.5366e-05
20850.0 3.5697e-05
20870.0 3.6012e-05
20890.0 3.63e-05
20910.0 3.6554e-05
20930.0 3.68e-05
20950.0 3.7042e-05
20970.0 3.7267e-05
20990.0 3.748e-05
21010.0 3.7695e-05
21030.0 3.7893e-05
21050.0 3.8069e-05
21070.0 3.8225e-05
21090.0 3.8359e-05
21110.0 3.8454e-05
21130.0 3.8514e-05
21150.0 3.854e-05
21170.0 3.8526e-05
21190.0 3.8477e-05
21210.0 3.839e-05
21230.0 3.8266e-05
21250.0 3.8117e-05
21270.0 3.7943e-05
21290.0 3.7743e-05
21310.0 3.7526e-05
21330.0 3.7309e-05
21350.0 3.7076e-05
21370.0 3.6837e-05
21390.0 3.6607e-05
21410.0 3.6383e-05
21430.0 3.6154e-05
21450.0 3.5945e-05
21470.0 3.5755e-05
21490.0 3.5576e-05
21510.0 3.5413e-05
21530.0 3.5276e-05
21550.0 3.5159e-05
21570.0 3.5061e-05
21590.0 3.4991e-05
21610.0 3.4947e-05
21630.0 3.493e-05
21650.0 3.4943e-05
21670.0 3.4985e-05
21690.0 3.5057e-05
21710.0 3.5164e-05
21730.0 3.5303e-05
21750.0 3.5468e-05
21770.0 3.5679e-05
21790.0 3.5924e-05
21810.0 3.6193e-05
21830.0 3.6498e-05
21850.0 3.6847e-05
21870.0 3.7217e-05
21890.0 3.7603e-05
21910.0 3.8031e-05
21930.0 3.8482e-05
21950.0 3.8935e-05
21970.0 3.9411e-05
21990.0 3.9921e-05
22010.0 4.0413e-05
22030.0 4.0899e-05
22050.0 4.1397e-05
22070.0 4.1885e-05
22090.0 4.2334e-05
22110.0 4.2773e-05
22130.0 4.3194e-05
22150.0 4.3566e-05
22170.0 4.3895e-05
22190.0 4.419e-05
22210.0 4.4428e-05
22230.0 4.4598e-05
22250.0 4.4712e-05
22270.0 4.4759e-05
22290.0 4.4736e-05
22310.0 4.4646e-05
22330.0 4.4476e-05
22350.0 4.4233e-05
22370.0 4.3926e-05
22390.0 4.3542e-05
22410.0 4.3072e-05
22430.0 4.2561e-05
22450.0 4.1996e-05
22470.0 4.1355e-05
22490.0 4.0671e-05
22510.0 3.9972e-05
22530.0 3.9207e-05
22550.0 3.8399e-05
22570.0 3.7605e-05
22590.0 3.6798e-05
22610.0 3.5956e-05
22630.0 3.5125e-05
22650.0 3.4335e-05
22670.0 3.3525e-05
22690.0 3.2725e-05
