#lamb flux
1010.0 5.5541e-05
1030.0 7.3637e-05
1050.0 9.7267e-05
1070.0 0.00012752
1090.0 0.00016626
1110.0 0.00021244
1130.0 0.00026612
1150.0 0.00032944
1170.0 0.00040207
1190.0 0.0004801
1210.0 0.00056493
1230.0 0.00065651
1250.0 0.00075033
1270.0 0.00084325
1290.0 0.00093732
1310.0 0.0010266
1330.0 0.0011055
1350.0 0.0011744
1370.0 0.0012322
1390.0 0.0012736
1410.0 0.0012971
1430.0 0.0013067
1450.0 0.0013001
1470.0 0.0012764
1490.0 0.0012397
1510.0 0.0011935
1530.0 0.0011351
1550.0 0.0010695
1570.0 0.0010022
1590.0 0.0009322
1610.0 0.00086035
1630.0 0.0007905
1650.0 0.00072351
1670.0 0.00065913
1690.0 0.00059874
1710.0 0.00054361
1730.0 0.00049337
1750.0 0.00044741
1770.0 0.00040691
1790.0 0.00037152
1810.0 0.00034061
1830.0 0.0003142
1850.0 0.0002916
1870.0 0.00027214
1890.0 0.00025669
1910.0 0.00024533
1930.0 0.00023786
1950.0 0.00023525
1970.0 0.00023603
1990.0 0.00023935
2010.0 0.00024485
2030.0 0.00025234
2050.0 0.00026204
2070.0 0.00027618
2090.0 0.00029302
2110.0 0.00031234
2130.0 0.00033419
2150.0 0.00035817
2170.0 0.00038395
2190.0 0.00041186
2210.0 0.00044086
2230.0 0.00047027
2250.0 0.00050091
2270.0 0.00053301
2290.0 0.00056581
2310.0 0.00059897
2330.0 0.00063292
2350.0 0.00066727
2370.0 0.00070132
2390.0 0.00073529
2410.0 0.00076935
2430.0 0.0008025
2450.0 0.00083463
2470.0 0.00086628
2490.0 0.00089758
2510.0 0.00092827
2530.0 0.00096056
2550.0 0.00099749
2570.0 0.0010418
2590.0 0.0010973
2610.0 0.0011754
2630.0 0.0012813
2650.0 0.0014157
2670.0 0.0015884
2690.0 0.0018069
2710.0 0.0020555
2730.0 0.0023236
2750.0 0.0026196
2770.0 0.0029133
2790.0 0.0031777
2810.0 0.0034137
2830.0 0.0036197
2850.0 0.0037653
2870.0 0.0038688
2890.0 0.0039447
2910.0 0.0039933
2930.0 0.0040166
2950.0 0.0040313
2970.0 0.0040387
2990.0 0.0040342
3010.0 0.0040232
3030.0 0.0040129
3050.0 0.004
3070.0 0.0039787
3090.0 0.0039602
3110.0 0.0039451
3130.0 0.0039332
3150.0 0.0038267
3170.0 0.0037694
3190.0 0.0037338
3210.0 0.0037464
3230.0 0.0038685
3250.0 0.0042872
3270.0 0.0050257
3290.0 0.0056372
3310.0 0.005765
3330.0 0.0058785
3350.0 0.0059768
3370.0 0.0060874
3390.0 0.0061916
3410.0 0.0062487
3430.0 0.0062685
3450.0 0.006278
3470.0 0.0063062
3490.0 0.0062633
3510.0 0.0059195
3530.0 0.0051049
3550.0 0.0046995
3570.0 0.0058004
3590.0 0.0073792
3610.0 0.0084657
3630.0 0.010383
3650.0 0.010465
3670.0 0.0089581
3690.0 0.0073799
3710.0 0.0066553
3730.0 0.0068814
3750.0 0.007111
3770.0 0.0073801
3790.0 0.0076678
3810.0 0.008226
3830.0 0.0076315
3850.0 0.0066763
3870.0 0.0061939
3890.0 0.0067519
3910.0 0.0071277
3930.0 0.007183
3950.0 0.0076802
3970.0 0.0082484
3990.0 0.0082688
4010.0 0.0084751
4030.0 0.0081607
4050.0 0.0078905
4070.0 0.0076881
4090.0 0.0077389
4110.0 0.0078598
4130.0 0.0076532
4150.0 0.0072907
4170.0 0.0071217
4190.0 0.0070239
4210.0 0.0064256
4230.0 0.0058497
4250.0 0.0051745
4270.0 0.0045465
4290.0 0.0043867
4310.0 0.0042765
4330.0 0.0043379
4350.0 0.0048812
4370.0 0.0050063
4390.0 0.0055451
4410.0 0.0059236
4430.0 0.0060811
4450.0 0.0054745
4470.0 0.0048031
4490.0 0.0045825
4510.0 0.0043656
4530.0 0.0042426
4550.0 0.0041062
4570.0 0.0040826
4590.0 0.004161
4610.0 0.0040469
4630.0 0.0039734
4650.0 0.0038295
4670.0 0.0037347
4690.0 0.0033755
4710.0 0.0030818
4730.0 0.00278
4750.0 0.0026034
4770.0 0.0022386
4790.0 0.0022318
4810.0 0.0021375
4830.0 0.0015701
4850.0 0.0019072
4870.0 0.0014108
4890.0 0.0016292
4910.0 0.0019379
4930.0 0.0018858
4950.0 0.0012989
4970.0 0.0012589
4990.0 0.0012137
5010.0 0.0009698
5030.0 0.00090697
5050.0 0.0011888
5070.0 0.0011805
5090.0 0.001236
5110.0 0.0012781
5130.0 0.0012329
5150.0 0.0013201
5170.0 0.0010948
5190.0 0.0010307
5210.0 0.0011785
5230.0 0.0010519
5250.0 0.001221
5270.0 0.0015598
5290.0 0.0015264
5310.0 0.001299
5330.0 0.0013037
5350.0 0.0010847
5370.0 0.0011083
5390.0 0.0011947
5410.0 0.0011325
5430.0 0.0013083
5450.0 0.0011122
5470.0 0.0011239
5490.0 0.0016127
5510.0 0.0016452
5530.0 0.0016808
5550.0 0.0016517
5570.0 0.0017831
5590.0 0.0019232
5610.0 0.0019375
5630.0 0.0019013
5650.0 0.0019207
5670.0 0.0019036
5690.0 0.0019373
5710.0 0.0018409
5730.0 0.0019451
5750.0 0.0019143
5770.0 0.0018219
5790.0 0.0018887
5810.0 0.0018506
5830.0 0.0018958
5850.0 0.0018645
5870.0 0.001825
5890.0 0.0018606
5910.0 0.0020417
5930.0 0.0020318
5950.0 0.002102
5970.0 0.0021339
5990.0 0.0022208
6010.0 0.0021741
6030.0 0.0021888
6050.0 0.0021879
6070.0 0.0021132
6090.0 0.0022006
6110.0 0.0022234
6130.0 0.0021472
6150.0 0.0021304
6170.0 0.0021281
6190.0 0.0019037
6210.0 0.0019058
6230.0 0.0019745
6250.0 0.0019666
6270.0 0.0019608
6290.0 0.0020528
6310.0 0.0021667
6330.0 0.0021747
6350.0 0.0021243
6370.0 0.0021513
6390.0 0.0020381
6410.0 0.0020527
6430.0 0.001978
6450.0 0.0019893
6470.0 0.0020023
6490.0 0.0020129
6510.0 0.0019046
6530.0 0.0018988
6550.0 0.0018696
6570.0 0.0017994
6590.0 0.001861
6610.0 0.0018629
6630.0 0.0018256
6650.0 0.0017347
6670.0 0.0016888
6690.0 0.0016465
6710.0 0.0015849
6730.0 0.0015479
6750.0 0.0015539
6770.0 0.0015595
6790.0 0.0014237
6810.0 0.0014515
6830.0 0.0014425
6850.0 0.0013256
6870.0 0.0012959
6890.0 0.0012747
6910.0 0.0012589
6930.0 0.0012244
6950.0 0.0012457
6970.0 0.0011955
6990.0 0.0011691
7010.0 0.0011614
7030.0 0.0011856
7050.0 0.0011546
7070.0 0.0010264
7090.0 0.00092426
7110.0 0.0008938
7130.0 0.00091957
7150.0 0.00092417
7170.0 0.00090772
7190.0 0.0008385
7210.0 0.00092344
7230.0 0.00099357
7250.0 0.00097692
7270.0 0.00097732
7290.0 0.0010084
7310.0 0.00093714
7330.0 0.00089523
7350.0 0.00084462
7370.0 0.00087911
7390.0 0.00093799
7410.0 0.00080744
7430.0 0.00081788
7450.0 0.00079924
7470.0 0.00086453
7490.0 0.00086315
7510.0 0.00078307
7530.0 0.00081911
7550.0 0.00061975
7570.0 0.00056193
7590.0 0.00064429
7610.0 0.00072815
7630.0 0.000683
7650.0 0.00074044
7670.0 0.00059456
7690.0 0.00048213
7710.0 0.00054737
7730.0 0.00065697
7750.0 0.00055909
7770.0 0.00068365
7790.0 0.00071798
7810.0 0.00065401
7830.0 0.00073766
7850.0 0.00062513
7870.0 0.00072199
7890.0 0.00065424
7910.0 0.00064506
7930.0 0.00055809
7950.0 0.00048012
7970.0 0.00054411
7990.0 0.00058845
8010.0 0.001312
8030.0 0.0012765
8050.0 0.0012559
8070.0 0.0012188
8090.0 0.0011109
8110.0 0.0010879
8130.0 0.0012083
8150.0 0.0012842
8170.0 0.0013258
8190.0 0.001388
8210.0 0.0013303
8230.0 0.0013336
8250.0 0.0013246
8270.0 0.0013289
8290.0 0.0013137
8310.0 0.0012472
8330.0 0.0012087
8350.0 0.0012488
8370.0 0.0012685
8390.0 0.0012352
8410.0 0.0012212
8430.0 0.0011774
8450.0 0.0011463
8470.0 0.0012341
8490.0 0.0012404
8510.0 0.0011602
8530.0 0.0011567
8550.0 0.0011424
8570.0 0.0010599
8590.0 0.0010737
8610.0 0.0010789
8630.0 0.0011228
8650.0 0.0011274
8670.0 0.0011347
8690.0 0.0011105
8710.0 0.0010839
8730.0 0.0010427
8750.0 0.0010203
8770.0 0.0010146
8790.0 0.0010616
8810.0 0.00099691
8830.0 0.00098177
8850.0 0.0010361
8870.0 0.00098113
8890.0 0.00090541
8910.0 0.00089284
8930.0 0.00090532
8950.0 0.00083556
8970.0 0.00080039
8990.0 0.00078178
9010.0 0.00073468
9030.0 0.00072343
9050.0 0.00071999
9070.0 0.00071695
9090.0 0.00071387
9110.0 0.00071075
9130.0 0.0007076
9150.0 0.00070446
9170.0 0.00070127
9190.0 0.00069806
9210.0 0.00069482
9230.0 0.00069155
9250.0 0.00068827
9270.0 0.00068496
9290.0 0.00068163
9310.0 0.0006787
9330.0 0.00067638
9350.0 0.00067405
9370.0 0.00067169
9390.0 0.00066929
9410.0 0.00066687
9430.0 0.00066445
9450.0 0.00066198
9470.0 0.00065983
9490.0 0.0006575
9510.0 0.00065479
9530.0 0.0006521
9550.0 0.00064949
9570.0 0.00064689
9590.0 0.00064427
9610.0 0.00064229
9630.0 0.00064039
9650.0 0.00063844
9670.0 0.00063642
9690.0 0.00063444
9710.0 0.00063244
9730.0 0.00063038
9750.0 0.00062831
9770.0 0.0006263
9790.0 0.00062421
9810.0 0.00062208
9830.0 0.00061999
9850.0 0.00061754
9870.0 0.00061477
9890.0 0.00061302
9910.0 0.00061112
9930.0 0.0006088
9950.0 0.00060666
9970.0 0.00060466
9990.0 0.00060257
10010.0 0.00060045
10030.0 0.00059828
10050.0 0.0005961
10070.0 0.0005939
10090.0 0.0005917
10110.0 0.00058949
10130.0 0.00058727
10150.0 0.00058507
10170.0 0.00058286
10190.0 0.00058065
10210.0 0.00057845
10230.0 0.00057625
10250.0 0.00057405
10270.0 0.00057185
10290.0 0.00056967
10310.0 0.00056748
10330.0 0.0005653
10350.0 0.00056312
10370.0 0.00056096
10390.0 0.00055877
10410.0 0.00055619
10430.0 0.00055349
10450.0 0.00055182
10470.0 0.00054991
10490.0 0.00054796
10510.0 0.00054596
10530.0 0.00054388
10550.0 0.00054181
10570.0 0.00053978
10590.0 0.00053772
10610.0 0.00053565
10630.0 0.00053364
10650.0 0.00053163
10670.0 0.00052959
10690.0 0.00052759
10710.0 0.00052563
10730.0 0.00052364
10750.0 0.00052164
10770.0 0.00051973
10790.0 0.00051781
10810.0 0.00051587
10830.0 0.00051397
10850.0 0.00051212
10870.0 0.0005102
10890.0 0.00050828
10910.0 0.00050639
10930.0 0.00050444
10950.0 0.00050236
10970.0 0.00050021
10990.0 0.00049799
11010.0 0.0004849
11030.0 0.00048225
11050.0 0.00047924
11070.0 0.00047587
11090.0 0.00047206
11110.0 0.00046816
11130.0 0.00046413
11150.0 0.00045989
11170.0 0.00045555
11190.0 0.00045128
11210.0 0.00044689
11230.0 0.00044238
11250.0 0.00043797
11270.0 0.00043362
11290.0 0.0004292
11310.0 0.00042486
11330.0 0.00042077
11350.0 0.00041673
11370.0 0.00041278
11390.0 0.00040904
11410.0 0.00040546
11430.0 0.0004019
11450.0 0.0003985
11470.0 0.00039526
11490.0 0.00039206
11510.0 0.00038887
11530.0 0.00038578
11550.0 0.00038273
11570.0 0.00037961
11590.0 0.0003765
11610.0 0.00037341
11630.0 0.00037022
11650.0 0.00036694
11670.0 0.0003637
11690.0 0.00036041
11710.0 0.00035701
11730.0 0.00035358
11750.0 0.00035021
11770.0 0.00034672
11790.0 0.00034318
11810.0 0.00033971
11830.0 0.00033625
11850.0 0.0003327
11870.0 0.00032925
11890.0 0.00032593
11910.0 0.00032262
11930.0 0.00031938
11950.0 0.00031633
11970.0 0.00031338
11990.0 0.0003105
12010.0 0.00030781
12030.0 0.0003053
12050.0 0.00030291
12070.0 0.00030065
12090.0 0.00029863
12110.0 0.00029674
12130.0 0.00029498
12150.0 0.00029337
12170.0 0.0002919
12190.0 0.0002905
12210.0 0.0002892
12230.0 0.00028797
12250.0 0.00028677
12270.0 0.00028558
12290.0 0.00028437
12310.0 0.00028314
12330.0 0.00028183
12350.0 0.00028044
12370.0 0.00027897
12390.0 0.00027739
12410.0 0.00027564
12430.0 0.00027381
12450.0 0.00027187
12470.0 0.00026976
12490.0 0.00026752
12510.0 0.00026523
12530.0 0.00026279
12550.0 0.0002602
12570.0 0.00025758
12590.0 0.0002549
12610.0 0.00025206
12630.0 0.00024917
12650.0 0.00024636
12670.0 0.00024346
12690.0 0.0002405
12710.0 0.00023763
12730.0 0.0002348
12750.0 0.00023187
12770.0 0.00022905
12790.0 0.00022635
12810.0 0.00022368
12830.0 0.00022103
12850.0 0.00021858
12870.0 0.00021624
12890.0 0.00021393
12910.0 0.00021178
12930.0 0.00020982
12950.0 0.00020794
12970.0 0.00020618
12990.0 0.00020466
13010.0 0.00020329
13030.0 0.00020206
13050.0 0.00020103
13070.0 0.00020017
13090.0 0.00019945
13110.0 0.00019887
13130.0 0.00019842
13150.0 0.00019807
13170.0 0.00019779
13190.0 0.00019758
13210.0 0.00019739
13230.0 0.00019722
13250.0 0.00019703
13270.0 0.00019681
13290.0 0.00019655
13310.0 0.00019623
13330.0 0.00019585
13350.0 0.0001954
13370.0 0.00019485
13390.0 0.00019421
13410.0 0.00019351
13430.0 0.00019271
13450.0 0.00019179
13470.0 0.00019079
13490.0 0.00018974
13510.0 0.00018853
13530.0 0.00018725
13550.0 0.00018596
13570.0 0.00018458
13590.0 0.00018311
13610.0 0.00018164
13630.0 0.00018018
13650.0 0.00017862
13670.0 0.00017705
13690.0 0.00017551
13710.0 0.00017393
13730.0 0.00017225
13750.0 0.00017066
13770.0 0.00016907
13790.0 0.00016742
13810.0 0.00016577
13830.0 0.0001642
13850.0 0.00016258
13870.0 0.00016094
13890.0 0.00015939
13910.0 0.00015787
13930.0 0.00015631
13950.0 0.00015481
13970.0 0.00015343
13990.0 0.00015206
14010.0 0.00015071
14030.0 0.00014947
14050.0 0.00014831
14070.0 0.00014714
14090.0 0.00014607
14110.0 0.0001451
14130.0 0.00014417
14150.0 0.00014327
14170.0 0.00014248
14190.0 0.00014175
14210.0 0.00014103
14230.0 0.00014036
14250.0 0.00013976
14270.0 0.00013916
14290.0 0.00013857
14310.0 0.00013806
14330.0 0.00013756
14350.0 0.00013706
14370.0 0.00013659
14390.0 0.00013618
14410.0 0.00013576
14430.0 0.00013536
14450.0 0.000135
14470.0 0.00013467
14490.0 0.00013432
14510.0 0.00013401
14530.0 0.00013373
14550.0 0.00013344
14570.0 0.00013315
14590.0 0.00013288
14610.0 0.00013261
14630.0 0.00013231
14650.0 0.00013202
14670.0 0.00013174
14690.0 0.00013143
14710.0 0.00013109
14730.0 0.00013079
14750.0 0.00013046
14770.0 0.0001301
14790.0 0.00012974
14810.0 0.00012938
14830.0 0.00012896
14850.0 0.00012852
14870.0 0.0001281
14890.0 0.00012765
14910.0 0.00012718
14930.0 0.00012674
14950.0 0.00012634
14970.0 0.00012594
14990.0 0.0001256
15010.0 0.00012534
15030.0 0.00012513
15050.0 0.00012495
15070.0 0.00012485
15090.0 0.00012478
15110.0 0.00012472
15130.0 0.00012468
15150.0 0.00012465
15170.0 0.00012461
15190.0 0.00012456
15210.0 0.00012453
15230.0 0.00012449
15250.0 0.00012443
15270.0 0.00012437
15290.0 0.00012433
15310.0 0.00012427
15330.0 0.0001242
15350.0 0.00012413
15370.0 0.00012407
15390.0 0.00012398
15410.0 0.0001239
15430.0 0.00012382
15450.0 0.00012372
15470.0 0.00012362
15490.0 0.00012352
15510.0 0.00012342
15530.0 0.0001233
15550.0 0.00012319
15570.0 0.00012308
15590.0 0.00012294
15610.0 0.0001228
15630.0 0.00012267
15650.0 0.00012253
15670.0 0.00012238
15690.0 0.00012223
15710.0 0.00012208
15730.0 0.00012191
15750.0 0.00012174
15770.0 0.00012157
15790.0 0.00012139
15810.0 0.00012119
15830.0 0.000121
15850.0 0.00012082
15870.0 0.00012061
15890.0 0.0001204
15910.0 0.0001202
15930.0 0.00011998
15950.0 0.00011975
15970.0 0.00011953
15990.0 0.0001193
16010.0 0.00011906
16030.0 0.0001188
16050.0 0.00011857
16070.0 0.00011831
16090.0 0.00011805
16110.0 0.00011779
16130.0 0.00011753
16150.0 0.00011724
16170.0 0.00011696
16190.0 0.00011669
16210.0 0.0001164
16230.0 0.0001161
16250.0 0.0001158
16270.0 0.00011551
16290.0 0.0001152
16310.0 0.00011488
16330.0 0.00011458
16350.0 0.00011426
16370.0 0.00011392
16390.0 0.00011359
16410.0 0.00011327
16430.0 0.00011293
16450.0 0.00011258
16470.0 0.00011225
16490.0 0.0001119
16510.0 0.00011154
16530.0 0.00011119
16550.0 0.00011083
16570.0 0.00011046
16590.0 0.00011009
16610.0 0.00010973
16630.0 0.00010935
16650.0 0.00010897
16670.0 0.0001086
16690.0 0.00010822
16710.0 0.00010783
16730.0 0.00010744
16750.0 0.00010705
16770.0 0.00010665
16790.0 0.00010625
16810.0 0.00010586
16830.0 0.00010546
16850.0 0.00010505
16870.0 0.00010464
16890.0 0.00010424
16910.0 0.00010383
16930.0 0.0001034
16950.0 0.00010299
16970.0 0.00010258
16990.0 0.00010215
17010.0 0.00010173
17030.0 0.00010132
17050.0 0.00010089
17070.0 0.00010046
17090.0 0.00010004
17110.0 9.9612e-05
17130.0 9.9169e-05
17150.0 9.8739e-05
17170.0 9.8314e-05
17190.0 9.7876e-05
17210.0 9.7438e-05
17230.0 9.701e-05
17250.0 9.6574e-05
17270.0 9.6126e-05
17290.0 9.5689e-05
17310.0 9.5255e-05
17330.0 9.4809e-05
17350.0 9.4361e-05
17370.0 9.393e-05
17390.0 9.3489e-05
17410.0 9.304e-05
17430.0 9.26e-05
17450.0 9.2166e-05
17470.0 9.1711e-05
17490.0 9.1263e-05
17510.0 9.0826e-05
17530.0 9.0382e-05
17550.0 8.993e-05
17570.0 8.9491e-05
17590.0 8.9054e-05
17610.0 8.8604e-05
17630.0 8.8158e-05
17650.0 8.7721e-05
17670.0 8.7277e-05
17690.0 8.682e-05
17710.0 8.6384e-05
17730.0 8.5947e-05
17750.0 8.55e-05
17770.0 8.5057e-05
17790.0 8.4626e-05
17810.0 8.4182e-05
17830.0 8.3735e-05
17850.0 8.33e-05
17870.0 8.2865e-05
17890.0 8.2419e-05
17910.0 8.1978e-05
17930.0 8.1552e-05
17950.0 8.1114e-05
17970.0 8.0675e-05
17990.0 8.0247e-05
18010.0 7.9819e-05
18030.0 7.9375e-05
18050.0 7.8944e-05
18070.0 7.852e-05
18090.0 7.8088e-05
18110.0 7.7653e-05
18130.0 7.7234e-05
18150.0 7.6812e-05
18170.0 7.6381e-05
18190.0 7.5958e-05
18210.0 7.5543e-05
18230.0 7.5116e-05
18250.0 7.4688e-05
18270.0 7.4276e-05
18290.0 7.3861e-05
18310.0 7.3438e-05
18330.0 7.3025e-05
18350.0 7.262e-05
18370.0 7.2202e-05
18390.0 7.1787e-05
18410.0 7.1384e-05
18430.0 7.0977e-05
18450.0 7.0559e-05
18470.0 7.0156e-05
18490.0 6.9759e-05
18510.0 6.9353e-05
18530.0 6.895e-05
18550.0 6.8558e-05
18570.0 6.816e-05
18590.0 6.7754e-05
18610.0 6.7362e-05
18630.0 6.6973e-05
18650.0 6.6575e-05
18670.0 6.6179e-05
18690.0 6.58e-05
18710.0 6.5412e-05
18730.0 6.5021e-05
18750.0 6.464e-05
18770.0 6.4264e-05
18790.0 6.3872e-05
18810.0 6.3489e-05
18830.0 6.3117e-05
18850.0 6.274e-05
18870.0 6.2358e-05
18890.0 6.199e-05
18910.0 6.1623e-05
18930.0 6.1246e-05
18950.0 6.0876e-05
18970.0 6.0515e-05
18990.0 6.0148e-05
19010.0 5.9771e-05
19030.0 5.9415e-05
19050.0 5.9058e-05
19070.0 5.8693e-05
19090.0 5.8334e-05
19110.0 5.7987e-05
19130.0 5.7627e-05
19150.0 5.7267e-05
19170.0 5.6919e-05
19190.0 5.6572e-05
19210.0 5.6215e-05
19230.0 5.5865e-05
19250.0 5.5527e-05
19270.0 5.518e-05
19290.0 5.4833e-05
19310.0 5.4497e-05
19330.0 5.416e-05
19350.0 5.381e-05
19370.0 5.3472e-05
19390.0 5.3142e-05
19410.0 5.2804e-05
19430.0 5.2464e-05
19450.0 5.2139e-05
19470.0 5.1811e-05
19490.0 5.1476e-05
19510.0 5.1149e-05
19530.0 5.0828e-05
19550.0 5.0496e-05
19570.0 5.0165e-05
19590.0 4.9848e-05
19610.0 4.9528e-05
19630.0 4.9202e-05
19650.0 4.8884e-05
19670.0 4.8573e-05
19690.0 4.825e-05
19710.0 4.7931e-05
19730.0 4.7621e-05
19750.0 4.7308e-05
19770.0 4.6985e-05
19790.0 4.6677e-05
19810.0 4.6372e-05
19830.0 4.6059e-05
19850.0 4.5749e-05
19870.0 4.5452e-05
19890.0 4.5148e-05
19910.0 4.4843e-05
19930.0 4.4558e-05
19950.0 4.4286e-05
19970.0 4.4023e-05
19990.0 4.3783e-05
20010.0 4.3577e-05
20030.0 4.3391e-05
20050.0 4.3229e-05
20070.0 4.3094e-05
20090.0 4.298e-05
20110.0 4.2878e-05
20130.0 4.2791e-05
20150.0 4.2714e-05
20170.0 4.2643e-05
20190.0 4.2576e-05
20210.0 4.2514e-05
20230.0 4.2454e-05
20250.0 4.2394e-05
20270.0 4.2335e-05
20290.0 4.2276e-05
20310.0 4.2214e-05
20330.0 4.2149e-05
20350.0 4.2083e-05
20370.0 4.2014e-05
20390.0 4.194e-05
20410.0 4.1862e-05
20430.0 4.1784e-05
20450.0 4.1699e-05
20470.0 4.1611e-05
20490.0 4.1524e-05
20510.0 4.1434e-05
20530.0 4.1342e-05
20550.0 4.1252e-05
20570.0 4.1165e-05
20590.0 4.1076e-05
20610.0 4.0989e-05
20630.0 4.0905e-05
20650.0 4.0822e-05
20670.0 4.0738e-05
20690.0 4.0656e-05
20710.0 4.0575e-05
20730.0 4.049e-05
20750.0 4.0402e-05
20770.0 4.0313e-05
20790.0 4.0218e-05
20810.0 4.0115e-05
20830.0 4.0006e-05
20850.0 3.9891e-05
20870.0 3.9764e-05
20890.0 3.9627e-05
20910.0 3.9486e-05
20930.0 3.9334e-05
20950.0 3.9172e-05
20970.0 3.9005e-05
20990.0 3.8834e-05
21010.0 3.865e-05
21030.0 3.8463e-05
21050.0 3.8278e-05
21070.0 3.8086e-05
21090.0 3.7888e-05
21110.0 3.7695e-05
21130.0 3.7503e-05
21150.0 3.7305e-05
21170.0 3.7107e-05
21190.0 3.6914e-05
21210.0 3.6714e-05
21230.0 3.6508e-05
21250.0 3.6307e-05
21270.0 3.6102e-05
21290.0 3.5888e-05
21310.0 3.567e-05
21330.0 3.5454e-05
21350.0 3.5226e-05
21370.0 3.499e-05
21390.0 3.4744e-05
21410.0 3.4493e-05
21430.0 3.4224e-05
21450.0 3.3953e-05
21470.0 3.368e-05
21490.0 3.3395e-05
21510.0 3.3101e-05
21530.0 3.2808e-05
21550.0 3.2508e-05
21570.0 3.2195e-05
21590.0 3.1881e-05
21610.0 3.1568e-05
21630.0 3.1244e-05
21650.0 3.0909e-05
21670.0 3.0585e-05
21690.0 3.0254e-05
21710.0 2.9913e-05
21730.0 2.9573e-05
21750.0 2.9237e-05
21770.0 2.8885e-05
21790.0 2.8531e-05
21810.0 2.818e-05
21830.0 2.7825e-05
21850.0 2.7458e-05
21870.0 2.7093e-05
21890.0 2.6732e-05
21910.0 2.6359e-05
21930.0 2.5983e-05
21950.0 2.5613e-05
21970.0 2.5237e-05
21990.0 2.4851e-05
22010.0 2.4474e-05
22030.0 2.41e-05
22050.0 2.3722e-05
22070.0 2.3372e-05
22090.0 2.3083e-05
22110.0 2.2793e-05
22130.0 2.2503e-05
22150.0 2.2222e-05
22170.0 2.1947e-05
22190.0 2.167e-05
22210.0 2.1399e-05
22230.0 2.1138e-05
22250.0 2.0877e-05
22270.0 2.0618e-05
22290.0 2.0364e-05
22310.0 2.0114e-05
22330.0 1.9861e-05
22350.0 1.9611e-05
22370.0 1.9363e-05
22390.0 1.9113e-05
22410.0 1.8861e-05
22430.0 1.861e-05
22450.0 1.8357e-05
22470.0 1.81e-05
22490.0 1.7841e-05
22510.0 1.7582e-05
22530.0 1.7317e-05
22550.0 1.7048e-05
22570.0 1.6778e-05
22590.0 1.6505e-05
22610.0 1.6228e-05
22630.0 1.5948e-05
22650.0 1.5667e-05
22670.0 1.5382e-05
22690.0 1.5094e-05
22710.0 1.4805e-05
22730.0 1.4514e-05
22750.0 1.4219e-05
22770.0 1.3923e-05
22790.0 1.3626e-05
22810.0 1.3326e-05
22830.0 1.3023e-05
22850.0 1.2719e-05
22870.0 1.2411e-05
22890.0 1.21e-05
22910.0 1.1786e-05
22930.0 1.1468e-05
