#lamb flux
1010.0 1.2074e-06
1030.0 1.327e-06
1050.0 1.4646e-06
1070.0 1.6196e-06
1090.0 1.7956e-06
1110.0 1.9762e-06
1130.0 2.158e-06
1150.0 2.3485e-06
1170.0 2.5451e-06
1190.0 2.7316e-06
1210.0 2.9207e-06
1230.0 3.1162e-06
1250.0 3.3078e-06
1270.0 3.494e-06
1290.0 3.6908e-06
1310.0 3.8877e-06
1330.0 4.0765e-06
1350.0 4.2677e-06
1370.0 4.4651e-06
1390.0 4.6577e-06
1410.0 4.8448e-06
1430.0 5.0405e-06
1450.0 5.2363e-06
1470.0 5.4257e-06
1490.0 5.6172e-06
1510.0 5.8195e-06
1530.0 6.0114e-06
1550.0 6.2008e-06
1570.0 6.3967e-06
1590.0 6.5928e-06
1610.0 6.7803e-06
1630.0 6.9734e-06
1650.0 7.1715e-06
1670.0 7.363e-06
1690.0 7.5519e-06
1710.0 7.7478e-06
1730.0 7.9444e-06
1750.0 8.1289e-06
1770.0 8.3183e-06
1790.0 8.511e-06
1810.0 8.6967e-06
1830.0 8.8784e-06
1850.0 9.0705e-06
1870.0 9.2565e-06
1890.0 9.4349e-06
1910.0 9.6156e-06
1930.0 9.7995e-06
1950.0 9.9729e-06
1970.0 1.0142e-05
1990.0 1.0317e-05
2010.0 1.0486e-05
2030.0 1.0646e-05
2050.0 1.0809e-05
2070.0 1.0974e-05
2090.0 1.1126e-05
2110.0 1.1273e-05
2130.0 1.1423e-05
2150.0 1.1566e-05
2170.0 1.1697e-05
2190.0 1.1831e-05
2210.0 1.1961e-05
2230.0 1.208e-05
2250.0 1.2194e-05
2270.0 1.2311e-05
2290.0 1.2417e-05
2310.0 1.2511e-05
2330.0 1.2605e-05
2350.0 1.2695e-05
2370.0 1.2773e-05
2390.0 1.2849e-05
2410.0 1.293e-05
2430.0 1.3007e-05
2450.0 1.3084e-05
2470.0 1.3177e-05
2490.0 1.3298e-05
2510.0 1.3449e-05
2530.0 1.3686e-05
2550.0 1.4095e-05
2570.0 1.4755e-05
2590.0 1.5758e-05
2610.0 1.7364e-05
2630.0 1.9604e-05
2650.0 2.2328e-05
2670.0 2.554e-05
2690.0 2.9087e-05
2710.0 3.2447e-05
2730.0 3.5391e-05
2750.0 3.7972e-05
2770.0 3.9947e-05
2790.0 4.1321e-05
2810.0 4.2315e-05
2830.0 4.3085e-05
2850.0 4.3614e-05
2870.0 4.4057e-05
2890.0 4.4504e-05
2910.0 4.4943e-05
2930.0 4.5342e-05
2950.0 4.5783e-05
2970.0 4.6253e-05
2990.0 4.6696e-05
3010.0 0.00050453
3030.0 0.00050725
3050.0 0.00050983
3070.0 0.00051156
3090.0 0.00051276
3110.0 0.00051254
3130.0 0.00050979
3150.0 0.00050385
3170.0 0.00049351
3190.0 0.00047887
3210.0 0.00046106
3230.0 0.00044225
3250.0 0.00044294
3270.0 0.00042857
3290.0 0.00044964
3310.0 0.00043218
3330.0 0.00044247
3350.0 0.00045987
3370.0 0.0004823
3390.0 0.00050881
3410.0 0.00053651
3430.0 0.00056662
3450.0 0.00059971
3470.0 0.00063395
3490.0 0.00066774
3510.0 0.00071032
3530.0 0.00076071
3550.0 0.00079381
3570.0 0.0008183
3590.0 0.00087617
3610.0 0.00089034
3630.0 0.00095976
3650.0 0.0010124
3670.0 0.0010722
3690.0 0.0010907
3710.0 0.0010727
3730.0 0.0010989
3750.0 0.0011015
3770.0 0.001047
3790.0 0.00098712
3810.0 0.00094396
3830.0 0.00093314
3850.0 0.00092209
3870.0 0.00099623
3890.0 0.001157
3910.0 0.0013842
3930.0 0.0016003
3950.0 0.0017164
3970.0 0.0016693
3990.0 0.001518
4010.0 0.001587
4030.0 0.0017839
4050.0 0.0018421
4070.0 0.0016669
4090.0 0.0013789
4110.0 0.0014569
4130.0 0.0016701
4150.0 0.001695
4170.0 0.0016371
4190.0 0.0015808
4210.0 0.0017326
4230.0 0.001807
4250.0 0.0019216
4270.0 0.0019622
4290.0 0.0019093
4310.0 0.0020381
4330.0 0.0022414
4350.0 0.0025218
4370.0 0.0027514
4390.0 0.0026607
4410.0 0.0022642
4430.0 0.0018596
4450.0 0.0015431
4470.0 0.0015353
4490.0 0.001666
4510.0 0.0020191
4530.0 0.0021855
4550.0 0.0023958
4570.0 0.0028508
4590.0 0.0034839
4610.0 0.0044817
4630.0 0.0054695
4650.0 0.0056418
4670.0 0.005646
4690.0 0.0059017
4710.0 0.0059554
4730.0 0.0050213
4750.0 0.0037244
4770.0 0.0030366
4790.0 0.0028096
4810.0 0.0027146
4830.0 0.0027438
4850.0 0.0031154
4870.0 0.0037071
4890.0 0.0041643
4910.0 0.0037165
4930.0 0.0035823
4950.0 0.004158
4970.0 0.0052353
4990.0 0.0063792
5010.0 0.0065385
5030.0 0.0054308
5050.0 0.0038081
5070.0 0.0027418
5090.0 0.0023684
5110.0 0.0024006
5130.0 0.0025812
5150.0 0.0026221
5170.0 0.0025867
5190.0 0.0025754
5210.0 0.0025544
5230.0 0.0026889
5250.0 0.0028959
5270.0 0.0032276
5290.0 0.0037227
5310.0 0.004161
5330.0 0.0043381
5350.0 0.0044244
5370.0 0.0047723
5390.0 0.0050255
5410.0 0.0047379
5430.0 0.0042435
5450.0 0.0041814
5470.0 0.0048406
5490.0 0.0060799
5510.0 0.0074205
5530.0 0.0079837
5550.0 0.0078024
5570.0 0.007299
5590.0 0.0066897
5610.0 0.0063188
5630.0 0.0062703
5650.0 0.0063873
5670.0 0.006224
5690.0 0.0058128
5710.0 0.0055614
5730.0 0.0049728
5750.0 0.0039492
5770.0 0.0034885
5790.0 0.0038145
5810.0 0.0043801
5830.0 0.004912
5850.0 0.0051458
5870.0 0.0051434
5890.0 0.0049372
5910.0 0.0046994
5930.0 0.0046621
5950.0 0.0048608
5970.0 0.005031
5990.0 0.0045826
6010.0 0.0038331
6030.0 0.0031981
6050.0 0.0028736
6070.0 0.002918
6090.0 0.0032222
6110.0 0.0033891
6130.0 0.0032299
6150.0 0.0031405
6170.0 0.0034476
6190.0 0.0040559
6210.0 0.0048209
6230.0 0.0054155
6250.0 0.005294
6270.0 0.004679
6290.0 0.0039082
6310.0 0.0031456
6330.0 0.0026051
6350.0 0.0024698
6370.0 0.0027071
6390.0 0.0031017
6410.0 0.0036006
6430.0 0.0042343
6450.0 0.0049806
6470.0 0.0059983
6490.0 0.0071644
6510.0 0.0077093
6530.0 0.0073138
6550.0 0.0069134
6570.0 0.0068479
6590.0 0.0066482
6610.0 0.0062123
6630.0 0.0057503
6650.0 0.0053901
6670.0 0.0053909
6690.0 0.0052657
6710.0 0.0048355
6730.0 0.0043005
6750.0 0.0038554
6770.0 0.0039037
6790.0 0.0041713
6810.0 0.0044121
6830.0 0.0044843
6850.0 0.004295
6870.0 0.004153
6890.0 0.0040478
6910.0 0.003833
6930.0 0.0037195
6950.0 0.0037232
6970.0 0.0038162
6990.0 0.0041426
7010.0 0.0043568
7030.0 0.0041248
7050.0 0.0037872
7070.0 0.0034655
7090.0 0.0030264
7110.0 0.0027803
7130.0 0.0028541
7150.0 0.0029768
7170.0 0.0031211
7190.0 0.0030997
7210.0 0.0030876
7230.0 0.0033708
7250.0 0.0038438
7270.0 0.0043003
7290.0 0.0045234
7310.0 0.0043391
7330.0 0.0039139
7350.0 0.0035676
7370.0 0.0034498
7390.0 0.0035108
7410.0 0.0037464
7430.0 0.0041872
7450.0 0.00458
7470.0 0.0050105
7490.0 0.0053559
7510.0 0.0048477
7530.0 0.0045402
7550.0 0.0039878
7570.0 0.0033927
7590.0 0.0028096
7610.0 0.0026319
7630.0 0.0027834
7650.0 0.003193
7670.0 0.0036041
7690.0 0.0040025
7710.0 0.0044495
7730.0 0.0046986
7750.0 0.0048592
7770.0 0.0049338
7790.0 0.0049632
7810.0 0.005032
7830.0 0.0048627
7850.0 0.0046063
7870.0 0.0043294
7890.0 0.0040271
7910.0 0.0036203
7930.0 0.0032336
7950.0 0.0029091
7970.0 0.0028373
7990.0 0.0029239
8010.0 0.0031499
8030.0 0.0031892
8050.0 0.0032338
8070.0 0.0031655
8090.0 0.0031504
8110.0 0.0030402
8130.0 0.002879
8150.0 0.0027099
8170.0 0.0026826
8190.0 0.0027328
8210.0 0.0027393
8230.0 0.0026913
8250.0 0.0026174
8270.0 0.0023198
8290.0 0.0018276
8310.0 0.0013467
8330.0 0.00093041
8350.0 0.00067877
8370.0 0.00071522
8390.0 0.00080441
8410.0 0.00099148
8430.0 0.0012173
8450.0 0.0013345
8470.0 0.0013949
8490.0 0.0014891
8510.0 0.0015802
8530.0 0.0017738
8550.0 0.0020288
8570.0 0.0023454
8590.0 0.0027242
8610.0 0.0031526
8630.0 0.0036635
8650.0 0.0040072
8670.0 0.0039941
8690.0 0.0038447
8710.0 0.0036691
8730.0 0.0035018
8750.0 0.0033411
8770.0 0.003266
8790.0 0.0031511
8810.0 0.0029195
8830.0 0.0027159
8850.0 0.0023691
8870.0 0.0021107
8890.0 0.0019206
8910.0 0.0020154
8930.0 0.0019446
8950.0 0.0020125
8970.0 0.0020491
8990.0 0.0020856
9010.0 0.0021489
9030.0 0.0021197
9050.0 0.002118
9070.0 0.0021199
9090.0 0.0021216
9110.0 0.0021226
9130.0 0.0021243
9150.0 0.0021269
9170.0 0.0021279
9190.0 0.0021265
9210.0 0.0021406
9230.0 0.0021412
9250.0 0.0021435
9270.0 0.0021463
9290.0 0.0021495
9310.0 0.0021533
9330.0 0.0021573
9350.0 0.0021616
9370.0 0.0021662
9390.0 0.002171
9410.0 0.002176
9430.0 0.0021812
9450.0 0.0021867
9470.0 0.0021924
9490.0 0.0021982
9510.0 0.0022043
9530.0 0.0022106
9550.0 0.002217
9570.0 0.0022236
9590.0 0.0022305
9610.0 0.0022376
9630.0 0.0022448
9650.0 0.0022521
9670.0 0.0022598
9690.0 0.0022675
9710.0 0.0022754
9730.0 0.0022835
9750.0 0.0022917
9770.0 0.0023
9790.0 0.0023085
9810.0 0.0023171
9830.0 0.0023259
9850.0 0.0023347
9870.0 0.0023437
9890.0 0.0023528
9910.0 0.0023619
9930.0 0.0023712
9950.0 0.0023797
9970.0 0.0023893
9990.0 0.0023989
10010.0 0.0023975
10030.0 0.002407
10050.0 0.002416
10070.0 0.0024226
10090.0 0.0024333
10110.0 0.0024436
10130.0 0.0024536
10150.0 0.0024636
10170.0 0.0024733
10190.0 0.0024826
10210.0 0.0024921
10230.0 0.0025015
10250.0 0.0025106
10270.0 0.0025196
10290.0 0.0025288
10310.0 0.0025377
10330.0 0.0025462
10350.0 0.0025549
10370.0 0.0025634
10390.0 0.0025716
10410.0 0.0025797
10430.0 0.0025879
10450.0 0.0025956
10470.0 0.002603
10490.0 0.0026105
10510.0 0.0026178
10530.0 0.0026244
10550.0 0.002631
10570.0 0.0026377
10590.0 0.0026438
10610.0 0.0026496
10630.0 0.0026554
10650.0 0.0026608
10670.0 0.0026657
10690.0 0.0026705
10710.0 0.0026751
10730.0 0.0026792
10750.0 0.0026828
10770.0 0.0026865
10790.0 0.0026898
10810.0 0.0026924
10830.0 0.0026948
10850.0 0.0026969
10870.0 0.0026976
10890.0 0.0026969
10910.0 0.0026942
10930.0 0.0026879
10950.0 0.0026754
10970.0 0.002656
10990.0 0.0026291
11010.0 0.0026003
11030.0 0.0025494
11050.0 0.0024905
11070.0 0.0024226
11090.0 0.0023433
11110.0 0.0022637
11130.0 0.002183
11150.0 0.002099
11170.0 0.0020161
11190.0 0.0019396
11210.0 0.0018648
11230.0 0.0017928
11250.0 0.0017287
11270.0 0.0016714
11290.0 0.0016181
11310.0 0.0015712
11330.0 0.0015324
11350.0 0.0014976
11370.0 0.0014663
11390.0 0.0014392
11410.0 0.0014144
11430.0 0.0013892
11450.0 0.0013645
11470.0 0.0013395
11490.0 0.0013124
11510.0 0.0012823
11530.0 0.0012511
11550.0 0.001218
11570.0 0.0011816
11590.0 0.0011438
11610.0 0.0011063
11630.0 0.0010669
11650.0 0.0010267
11670.0 0.0009892
11690.0 0.00095304
11710.0 0.00091761
11730.0 0.00088488
11750.0 0.00085572
11770.0 0.000828
11790.0 0.00080256
11810.0 0.00078022
11830.0 0.00075994
11850.0 0.00074056
11870.0 0.00072314
11890.0 0.00070719
11910.0 0.00069138
11930.0 0.00067566
11950.0 0.00066043
11970.0 0.00064482
11990.0 0.00062818
12010.0 0.00061145
12030.0 0.00059465
12050.0 0.00057713
12070.0 0.00055921
12090.0 0.00054256
12110.0 0.0005263
12130.0 0.00051067
12150.0 0.0004968
12170.0 0.00048499
12190.0 0.00047479
12210.0 0.00046729
12230.0 0.00046268
12250.0 0.00046083
12270.0 0.00046206
12290.0 0.00046618
12310.0 0.00047275
12330.0 0.00048225
12350.0 0.00049407
12370.0 0.00050724
12390.0 0.00052201
12410.0 0.00053871
12430.0 0.00055485
12450.0 0.0005707
12470.0 0.00058662
12490.0 0.0006015
12510.0 0.00061431
12530.0 0.00062595
12550.0 0.00063594
12570.0 0.0006434
12590.0 0.00064862
12610.0 0.00065188
12630.0 0.00065277
12650.0 0.00065142
12670.0 0.00064818
12690.0 0.00064306
12710.0 0.00063642
12730.0 0.0006285
12750.0 0.00061905
12770.0 0.00060872
12790.0 0.00059786
12810.0 0.00058619
12830.0 0.00057373
12850.0 0.00056133
12870.0 0.00054864
12890.0 0.00053521
12910.0 0.00052161
12930.0 0.00050807
12950.0 0.00049374
12970.0 0.0004788
12990.0 0.00046418
13010.0 0.00044932
13030.0 0.00043386
13050.0 0.0004186
13070.0 0.00040399
13090.0 0.00038915
13110.0 0.00037472
13130.0 0.00036145
13150.0 0.00034907
13170.0 0.0003373
13190.0 0.00032724
13210.0 0.00031885
13230.0 0.00031175
13250.0 0.00030627
13270.0 0.00030256
13290.0 0.00030034
13310.0 0.00029967
13330.0 0.00030044
13350.0 0.00030239
13370.0 0.00030552
13390.0 0.00030964
13410.0 0.00031409
13430.0 0.00031904
13450.0 0.00032437
13470.0 0.00032955
13490.0 0.00033442
13510.0 0.00033934
13530.0 0.00034374
13550.0 0.00034745
13570.0 0.00035069
13590.0 0.00035349
13610.0 0.00035561
13630.0 0.00035715
13650.0 0.00035832
13670.0 0.00035902
13690.0 0.00035926
13710.0 0.00035917
13730.0 0.00035875
13750.0 0.00035798
13770.0 0.00035692
13790.0 0.00035555
13810.0 0.00035388
13830.0 0.00035194
13850.0 0.00034965
13870.0 0.00034699
13890.0 0.00034406
13910.0 0.00034083
13930.0 0.00033719
13950.0 0.00033329
13970.0 0.00032934
13990.0 0.00032514
14010.0 0.00032079
14030.0 0.00031657
14050.0 0.00031245
14070.0 0.00030831
14090.0 0.0003045
14110.0 0.00030109
14130.0 0.00029797
14150.0 0.00029522
14170.0 0.00029302
14190.0 0.00029127
14210.0 0.00028997
14230.0 0.0002892
14250.0 0.00028893
14270.0 0.00028919
14290.0 0.00029
14310.0 0.00029124
14330.0 0.00029293
14350.0 0.00029513
14370.0 0.00029766
14390.0 0.00030039
14410.0 0.00030352
14430.0 0.00030687
14450.0 0.00031025
14470.0 0.00031375
14490.0 0.00031754
14510.0 0.00032128
14530.0 0.00032504
14550.0 0.00032913
14570.0 0.00033354
14590.0 0.00033811
14610.0 0.00034323
14630.0 0.00034917
14650.0 0.00035561
14670.0 0.00036266
14690.0 0.00037078
14710.0 0.00037989
14730.0 0.00038921
14750.0 0.00039944
14770.0 0.00041055
14790.0 0.0004218
14810.0 0.00043301
14830.0 0.000445
14850.0 0.00045657
14870.0 0.00046727
14890.0 0.00047748
14910.0 0.00048701
14930.0 0.00049507
14950.0 0.00050173
14970.0 0.00050728
14990.0 0.00051131
15010.0 0.00051389
15030.0 0.00051536
15050.0 0.00051583
15070.0 0.00051553
15090.0 0.00051476
15110.0 0.00051364
15130.0 0.00051233
15150.0 0.00051099
15170.0 0.00050956
15190.0 0.00050809
15210.0 0.00050667
15230.0 0.00050526
15250.0 0.0005038
15270.0 0.00050236
15290.0 0.000501
15310.0 0.00049959
15330.0 0.00049818
15350.0 0.00049682
15370.0 0.00049548
15390.0 0.00049405
15410.0 0.00049268
15430.0 0.00049136
15450.0 0.00049
15470.0 0.00048861
15490.0 0.0004873
15510.0 0.00048599
15530.0 0.00048463
15550.0 0.0004833
15570.0 0.00048201
15590.0 0.00048067
15610.0 0.0004793
15630.0 0.00047802
15650.0 0.00047672
15670.0 0.00047538
15690.0 0.00047407
15710.0 0.00047281
15730.0 0.00047149
15750.0 0.00047016
15770.0 0.00046888
15790.0 0.0004676
15810.0 0.00046624
15830.0 0.00046494
15850.0 0.00046368
15870.0 0.00046236
15890.0 0.00046104
15910.0 0.00045978
15930.0 0.00045848
15950.0 0.00045713
15970.0 0.00045583
15990.0 0.00045456
16010.0 0.00045322
16030.0 0.00045187
16050.0 0.00045061
16070.0 0.0004493
16090.0 0.00044795
16110.0 0.00044665
16130.0 0.00044537
16150.0 0.00044399
16170.0 0.00044263
16190.0 0.00044133
16210.0 0.00044
16230.0 0.00043862
16250.0 0.0004373
16270.0 0.00043599
16290.0 0.0004346
16310.0 0.00043324
16330.0 0.00043191
16350.0 0.00043055
16370.0 0.00042911
16390.0 0.00042776
16410.0 0.00042641
16430.0 0.000425
16450.0 0.0004236
16470.0 0.00042226
16490.0 0.00042084
16510.0 0.0004194
16530.0 0.00041801
16550.0 0.00041662
16570.0 0.00041516
16590.0 0.00041371
16610.0 0.00041233
16630.0 0.00041089
16650.0 0.00040942
16670.0 0.000408
16690.0 0.00040657
16710.0 0.00040506
16730.0 0.00040359
16750.0 0.00040215
16770.0 0.00040066
16790.0 0.00039914
16810.0 0.00039768
16830.0 0.00039621
16850.0 0.00039468
16870.0 0.00039317
16890.0 0.0003917
16910.0 0.00039016
16930.0 0.00038859
16950.0 0.00038709
16970.0 0.00038557
16990.0 0.00038399
17010.0 0.00038245
17030.0 0.00038095
17050.0 0.00037936
17070.0 0.00037778
17090.0 0.00037623
17110.0 0.00037467
17130.0 0.00037303
17150.0 0.00037145
17170.0 0.0003699
17190.0 0.00036829
17210.0 0.00036667
17230.0 0.0003651
17250.0 0.00036349
17270.0 0.00036183
17290.0 0.00036022
17310.0 0.00035862
17330.0 0.00035696
17350.0 0.00035529
17370.0 0.0003537
17390.0 0.00035206
17410.0 0.00035038
17430.0 0.00034874
17450.0 0.00034712
17470.0 0.0003454
17490.0 0.00034371
17510.0 0.00034208
17530.0 0.0003404
17550.0 0.00033868
17570.0 0.00033702
17590.0 0.00033537
17610.0 0.00033365
17630.0 0.00033195
17650.0 0.00033028
17670.0 0.00032858
17690.0 0.00032681
17710.0 0.00032513
17730.0 0.00032345
17750.0 0.00032171
17770.0 0.00031999
17790.0 0.00031832
17810.0 0.00031658
17830.0 0.00031483
17850.0 0.00031312
17870.0 0.00031141
17890.0 0.00030964
17910.0 0.0003079
17930.0 0.00030621
17950.0 0.00030447
17970.0 0.00030271
17990.0 0.000301
18010.0 0.00029929
18030.0 0.00029749
18050.0 0.00029575
18070.0 0.00029403
18090.0 0.00029228
18110.0 0.0002905
18130.0 0.00028879
18150.0 0.00028706
18170.0 0.00028529
18190.0 0.00028354
18210.0 0.00028183
18230.0 0.00028006
18250.0 0.00027827
18270.0 0.00027656
18290.0 0.00027482
18310.0 0.00027304
18330.0 0.00027131
18350.0 0.0002696
18370.0 0.00026783
18390.0 0.00026606
18410.0 0.00026435
18430.0 0.00026261
18450.0 0.00026082
18470.0 0.00025909
18490.0 0.00025738
18510.0 0.00025562
18530.0 0.00025387
18550.0 0.00025218
18570.0 0.00025044
18590.0 0.00024866
18610.0 0.00024694
18630.0 0.00024524
18650.0 0.00024348
18670.0 0.00024173
18690.0 0.00024005
18710.0 0.00023834
18730.0 0.00023659
18750.0 0.00023489
18770.0 0.00023321
18790.0 0.00023144
18810.0 0.00022972
18830.0 0.00022804
18850.0 0.00022634
18870.0 0.0002246
18890.0 0.00022293
18910.0 0.00022126
18930.0 0.00021953
18950.0 0.00021784
18970.0 0.00021618
18990.0 0.00021449
19010.0 0.00021274
19030.0 0.0002111
19050.0 0.00020945
19070.0 0.00020775
19090.0 0.00020608
19110.0 0.00020446
19130.0 0.00020277
19150.0 0.00020108
19170.0 0.00019945
19190.0 0.00019781
19210.0 0.00019613
19230.0 0.00019447
19250.0 0.00019288
19270.0 0.00019123
19290.0 0.00018957
19310.0 0.00018798
19330.0 0.00018637
19350.0 0.00018469
19370.0 0.00018308
19390.0 0.00018149
19410.0 0.00017986
19430.0 0.00017823
19450.0 0.00017666
19470.0 0.00017508
19490.0 0.00017346
19510.0 0.00017187
19530.0 0.00017032
19550.0 0.00016871
19570.0 0.00016709
19590.0 0.00016555
19610.0 0.00016399
19630.0 0.0001624
19650.0 0.00016085
19670.0 0.00015933
19690.0 0.00015774
19710.0 0.00015618
19730.0 0.00015466
19750.0 0.00015312
19770.0 0.00015154
19790.0 0.00015002
19810.0 0.00014852
19830.0 0.00014697
19850.0 0.00014543
19870.0 0.00014393
19890.0 0.00014235
19910.0 0.00014069
19930.0 0.00013899
19950.0 0.00013717
19970.0 0.00013509
19990.0 0.00013279
20010.0 0.00013061
20030.0 0.00012785
20050.0 0.00012484
20070.0 0.00012178
20090.0 0.00011869
20110.0 0.00011542
20130.0 0.00011233
20150.0 0.00010947
20170.0 0.00010669
20190.0 0.00010407
20210.0 0.00010175
20230.0 9.9641e-05
20250.0 9.7673e-05
20270.0 9.5974e-05
20290.0 9.4534e-05
20310.0 9.3276e-05
20330.0 9.2217e-05
20350.0 9.1439e-05
20370.0 9.0855e-05
20390.0 9.047e-05
20410.0 9.03e-05
20430.0 9.032e-05
20450.0 9.0546e-05
20470.0 9.0971e-05
20490.0 9.1558e-05
20510.0 9.2318e-05
20530.0 9.328e-05
20550.0 9.4372e-05
20570.0 9.5549e-05
20590.0 9.6893e-05
20610.0 9.8341e-05
20630.0 9.9808e-05
20650.0 0.00010134
20670.0 0.000103
20690.0 0.00010458
20710.0 0.00010613
20730.0 0.0001077
20750.0 0.00010925
20770.0 0.00011067
20790.0 0.00011209
20810.0 0.0001135
20830.0 0.00011484
20850.0 0.00011613
20870.0 0.00011749
20890.0 0.00011884
20910.0 0.00012014
20930.0 0.0001215
20950.0 0.00012293
20970.0 0.00012435
20990.0 0.00012576
21010.0 0.00012726
21030.0 0.00012874
21050.0 0.00013013
21070.0 0.00013151
21090.0 0.00013285
21110.0 0.00013402
21130.0 0.00013506
21150.0 0.00013599
21170.0 0.00013676
21190.0 0.00013733
21210.0 0.00013775
21230.0 0.00013798
21250.0 0.00013802
21270.0 0.00013788
21290.0 0.00013755
21310.0 0.00013704
21330.0 0.00013639
21350.0 0.00013556
21370.0 0.00013456
21390.0 0.00013345
21410.0 0.00013223
21430.0 0.00013081
21450.0 0.00012932
21470.0 0.0001278
21490.0 0.00012618
21510.0 0.00012448
21530.0 0.00012282
21550.0 0.00012115
21570.0 0.00011944
21590.0 0.00011781
21610.0 0.00011628
21630.0 0.00011481
21650.0 0.00011341
21670.0 0.00011225
21690.0 0.00011121
21710.0 0.00011033
21730.0 0.00010966
21750.0 0.00010919
21770.0 0.00010892
21790.0 0.00010887
21810.0 0.00010904
21830.0 0.00010942
21850.0 0.00011003
21870.0 0.00011084
21890.0 0.00011179
21910.0 0.00011298
21930.0 0.00011433
21950.0 0.00011578
21970.0 0.00011739
21990.0 0.0001192
22010.0 0.00012103
22030.0 0.0001229
22050.0 0.00012489
22070.0 0.00012693
22090.0 0.00012888
22110.0 0.00013087
22130.0 0.00013288
22150.0 0.00013477
22170.0 0.00013655
22190.0 0.00013831
22210.0 0.00013992
22230.0 0.00014129
22250.0 0.00014253
22270.0 0.00014358
22290.0 0.00014439
22310.0 0.00014495
22330.0 0.00014529
22350.0 0.00014535
22370.0 0.00014513
22390.0 0.00014464
22410.0 0.00014384
22430.0 0.00014279
22450.0 0.00014149
22470.0 0.00013988
22490.0 0.00013803
22510.0 0.00013602
22530.0 0.00013371
22550.0 0.00013114
22570.0 0.0001285
22590.0 0.00012571
22610.0 0.0001227
22630.0 0.00011961
22650.0 0.00011657
22670.0 0.00011336
22690.0 0.00011008
22710.0 0.00010691
22730.0 0.00010375
22750.0 0.00010046
22770.0 9.7353e-05
22790.0 9.4424e-05
22810.0 9.1515e-05
22830.0 8.8715e-05
22850.0 8.6189e-05
22870.0 8.3805e-05
22890.0 8.1535e-05
22910.0 7.9552e-05
22930.0 7.7842e-05
22950.0 7.6334e-05
22970.0 7.5082e-05
22990.0 7.4192e-05
23010.0 7.3565e-05
23030.0 7.3229e-05
