#lamb flux
1010.0 1.4178e-05
1030.0 1.5639e-05
1050.0 1.7061e-05
1070.0 1.8664e-05
1090.0 2.0561e-05
1110.0 2.2496e-05
1130.0 2.4438e-05
1150.0 2.6473e-05
1170.0 2.8581e-05
1190.0 3.0606e-05
1210.0 3.2691e-05
1230.0 3.4892e-05
1250.0 3.7091e-05
1270.0 3.9298e-05
1290.0 4.1696e-05
1310.0 4.4173e-05
1330.0 4.6639e-05
1350.0 4.9203e-05
1370.0 5.1901e-05
1390.0 5.4597e-05
1410.0 5.7266e-05
1430.0 6.0054e-05
1450.0 6.2851e-05
1470.0 6.5559e-05
1490.0 6.8264e-05
1510.0 7.1058e-05
1530.0 7.3668e-05
1550.0 7.6178e-05
1570.0 7.8686e-05
1590.0 8.1106e-05
1610.0 8.3314e-05
1630.0 8.5455e-05
1650.0 8.754e-05
1670.0 8.9427e-05
1690.0 9.1163e-05
1710.0 9.2864e-05
1730.0 9.4461e-05
1750.0 9.581e-05
1770.0 9.7126e-05
1790.0 9.8401e-05
1810.0 9.9538e-05
1830.0 0.00010059
1850.0 0.00010175
1870.0 0.00010285
1890.0 0.00010391
1910.0 0.00010505
1930.0 0.00010632
1950.0 0.00010758
1970.0 0.00010893
1990.0 0.00011048
2010.0 0.00011211
2030.0 0.00011381
2050.0 0.00011569
2070.0 0.00011773
2090.0 0.00011975
2110.0 0.00012184
2130.0 0.00012404
2150.0 0.00012623
2170.0 0.00012833
2190.0 0.00013048
2210.0 0.00013257
2230.0 0.0001345
2250.0 0.00013631
2270.0 0.00013808
2290.0 0.00013964
2310.0 0.00014096
2330.0 0.00014217
2350.0 0.00014321
2370.0 0.000144
2390.0 0.00014461
2410.0 0.00014511
2430.0 0.00014535
2450.0 0.00014535
2470.0 0.00014519
2490.0 0.00014486
2510.0 0.00014434
2530.0 0.00014401
2550.0 0.0001444
2570.0 0.00014615
2590.0 0.00014999
2610.0 0.00015769
2630.0 0.0001698
2650.0 0.00018564
2670.0 0.00020539
2690.0 0.00022816
2710.0 0.00025018
2730.0 0.0002692
2750.0 0.00028447
2770.0 0.00029287
2790.0 0.00029348
2810.0 0.00028669
2830.0 0.00027221
2850.0 0.00025226
2870.0 0.0002282
2890.0 0.00020026
2910.0 0.00017013
2930.0 0.00013971
2950.0 0.00010743
2970.0 7.3823e-05
2990.0 4.0562e-05
3010.0 1.7454e-05
3030.0 1.7454e-05
3050.0 1.7454e-05
3070.0 1.7454e-05
3090.0 1.7454e-05
3110.0 1.7454e-05
3130.0 1.7454e-05
3150.0 1.7454e-05
3170.0 1.7454e-05
3190.0 1.7454e-05
3210.0 0.00030086
3230.0 0.0012716
3250.0 0.0018656
3270.0 0.0016473
3290.0 0.0012836
3310.0 0.00098421
3330.0 0.00092153
3350.0 0.00098708
3370.0 0.001094
3390.0 0.0012068
3410.0 0.0013268
3430.0 0.0014851
3450.0 0.0016337
3470.0 0.0017864
3490.0 0.0018057
3510.0 0.0015192
3530.0 0.0013716
3550.0 0.0017106
3570.0 0.0021151
3590.0 0.0023515
3610.0 0.0024099
3630.0 0.0026709
3650.0 0.0027274
3670.0 0.0028285
3690.0 0.0031831
3710.0 0.0034994
3730.0 0.0037424
3750.0 0.0038502
3770.0 0.0038937
3790.0 0.003781
3810.0 0.0035234
3830.0 0.0031613
3850.0 0.0022556
3870.0 0.0020897
3890.0 0.0023717
3910.0 0.0031966
3930.0 0.0040941
3950.0 0.0044485
3970.0 0.00465
3990.0 0.0052011
4010.0 0.0052389
4030.0 0.0047088
4050.0 0.0034319
4070.0 0.0029145
4090.0 0.0035418
4110.0 0.0038752
4130.0 0.0041891
4150.0 0.0041506
4170.0 0.0039475
4190.0 0.0036804
4210.0 0.0041689
4230.0 0.0044933
4250.0 0.0048238
4270.0 0.0047595
4290.0 0.0045809
4310.0 0.0046693
4330.0 0.0052949
4350.0 0.0058487
4370.0 0.0059515
4390.0 0.0055451
4410.0 0.0049829
4430.0 0.003948
4450.0 0.0031837
4470.0 0.0032218
4490.0 0.003641
4510.0 0.0038979
4530.0 0.003957
4550.0 0.0040638
4570.0 0.0055143
4590.0 0.0079894
4610.0 0.0094857
4630.0 0.00991
4650.0 0.010916
4670.0 0.012592
4690.0 0.013201
4710.0 0.011312
4730.0 0.0087299
4750.0 0.00677
4770.0 0.0056771
4790.0 0.0051029
4810.0 0.004865
4830.0 0.0053514
4850.0 0.006435
4870.0 0.0071881
4890.0 0.0073983
4910.0 0.0072819
4930.0 0.0080509
4950.0 0.0095159
4970.0 0.010602
4990.0 0.010713
5010.0 0.0097251
5030.0 0.0080264
5050.0 0.0063611
5070.0 0.0052835
5090.0 0.0048848
5110.0 0.0048748
5130.0 0.0049503
5150.0 0.0048852
5170.0 0.0045753
5190.0 0.0043555
5210.0 0.0044331
5230.0 0.0050356
5250.0 0.0060906
5270.0 0.0072174
5290.0 0.0079821
5310.0 0.0085555
5330.0 0.0094647
5350.0 0.010312
5370.0 0.010317
5390.0 0.0093667
5410.0 0.0084471
5430.0 0.0084336
5450.0 0.0097097
5470.0 0.011548
5490.0 0.012966
5510.0 0.013487
5530.0 0.01324
5550.0 0.012645
5570.0 0.012069
5590.0 0.011499
5610.0 0.011131
5630.0 0.011036
5650.0 0.010967
5670.0 0.010423
5690.0 0.0092604
5710.0 0.0079718
5730.0 0.007182
5750.0 0.0069116
5770.0 0.0070469
5790.0 0.007198
5810.0 0.007277
5830.0 0.007244
5850.0 0.0069212
5870.0 0.0065575
5890.0 0.0064304
5910.0 0.0065594
5930.0 0.0065802
5950.0 0.0060986
5970.0 0.005271
5990.0 0.0042694
6010.0 0.0035024
6030.0 0.003309
6050.0 0.0035907
6070.0 0.0037823
6090.0 0.0035503
6110.0 0.0031921
6130.0 0.0032939
6150.0 0.0037677
6170.0 0.0042158
6190.0 0.0045062
6210.0 0.0045942
6230.0 0.0045301
6250.0 0.0041199
6270.0 0.0034376
6290.0 0.0028575
6310.0 0.0025925
6330.0 0.002583
6350.0 0.0026414
6370.0 0.0027496
6390.0 0.0031638
6410.0 0.0038959
6430.0 0.0046013
6450.0 0.0049772
6470.0 0.0051112
6490.0 0.0051554
6510.0 0.005218
6530.0 0.0052941
6550.0 0.0053285
6570.0 0.0054974
6590.0 0.0056478
6610.0 0.0056805
6630.0 0.0054751
6650.0 0.0050609
6670.0 0.0046385
6690.0 0.004327
6710.0 0.0041337
6730.0 0.0039932
6750.0 0.003963
6770.0 0.0040717
6790.0 0.0042279
6810.0 0.0043151
6830.0 0.0042449
6850.0 0.0040239
6870.0 0.0037833
6890.0 0.0036927
6910.0 0.0036628
6930.0 0.0037748
6950.0 0.0039189
6970.0 0.0040109
6990.0 0.0040484
7010.0 0.0039166
7030.0 0.0036037
7050.0 0.0032108
7070.0 0.0029357
7090.0 0.0028488
7110.0 0.0028548
7130.0 0.0027187
7150.0 0.0024196
7170.0 0.0023346
7190.0 0.0025949
7210.0 0.0030162
7230.0 0.0034056
7250.0 0.0035491
7270.0 0.003472
7290.0 0.0032352
7310.0 0.003031
7330.0 0.0029697
7350.0 0.0030038
7370.0 0.0030539
7390.0 0.0032077
7410.0 0.003553
7430.0 0.0040237
7450.0 0.0044361
7470.0 0.0045941
7490.0 0.0044053
7510.0 0.0040894
7530.0 0.0037816
7550.0 0.0035432
7570.0 0.0032749
7590.0 0.0031483
7610.0 0.0032057
7630.0 0.0034141
7650.0 0.0037436
7670.0 0.0041236
7690.0 0.0044447
7710.0 0.0047237
7730.0 0.0049843
7750.0 0.0052038
7770.0 0.0052398
7790.0 0.0053234
7810.0 0.0053882
7830.0 0.0052959
7850.0 0.0051413
7870.0 0.0050556
7890.0 0.0051404
7910.0 0.0051337
7930.0 0.0050548
7950.0 0.0048567
7970.0 0.0047115
7990.0 0.0045547
8010.0 0.0044867
8030.0 0.0045338
8050.0 0.0045648
8070.0 0.0045263
8090.0 0.0045085
8110.0 0.0044119
8130.0 0.0044327
8150.0 0.0044102
8170.0 0.0043314
8190.0 0.0042405
8210.0 0.0041859
8230.0 0.0041012
8250.0 0.0040707
8270.0 0.0037818
8290.0 0.0031832
8310.0 0.002501
8330.0 0.0020339
8350.0 0.0019389
8370.0 0.0022595
8390.0 0.0026857
8410.0 0.0028848
8430.0 0.0029678
8450.0 0.0031556
8470.0 0.0034203
8490.0 0.0038307
8510.0 0.004342
8530.0 0.0049109
8550.0 0.0053974
8570.0 0.0057781
8590.0 0.0060703
8610.0 0.0062317
8630.0 0.0062263
8650.0 0.0061549
8670.0 0.0061788
8690.0 0.0065349
8710.0 0.0070152
8730.0 0.0072992
8750.0 0.0072909
8770.0 0.007414
8790.0 0.0074297
8810.0 0.0070519
8830.0 0.0065998
8850.0 0.0060103
8870.0 0.0055477
8890.0 0.0054199
8910.0 0.0053999
8930.0 0.0050935
8950.0 0.0047308
8970.0 0.0045844
8990.0 0.0045825
9010.0 0.0044492
9030.0 0.0043552
9050.0 0.004315
9070.0 0.0042957
9090.0 0.0042792
9110.0 0.0042633
9130.0 0.0042474
9150.0 0.0042318
9170.0 0.0042152
9190.0 0.0042031
9210.0 0.0042016
9230.0 0.0041805
9250.0 0.0041624
9270.0 0.004146
9290.0 0.0041309
9310.0 0.0041161
9330.0 0.004102
9350.0 0.0040887
9370.0 0.0040756
9390.0 0.0040623
9410.0 0.0040495
9430.0 0.0040362
9450.0 0.0040171
9470.0 0.0040002
9490.0 0.003994
9510.0 0.0039847
9530.0 0.0039748
9550.0 0.0039642
9570.0 0.0039533
9590.0 0.0039423
9610.0 0.0039313
9630.0 0.0039202
9650.0 0.0039092
9670.0 0.0038985
9690.0 0.0038877
9710.0 0.0038769
9730.0 0.0038664
9750.0 0.0038558
9770.0 0.0038452
9790.0 0.0038347
9810.0 0.0038243
9830.0 0.0038139
9850.0 0.0038034
9870.0 0.003793
9890.0 0.0037826
9910.0 0.003772
9930.0 0.0037612
9950.0 0.0037282
9970.0 0.0037242
9990.0 0.0037188
10010.0 0.0037128
10030.0 0.0037049
10050.0 0.0036951
10070.0 0.0036851
10090.0 0.0036752
10110.0 0.0036632
10130.0 0.0036501
10150.0 0.0036393
10170.0 0.0036279
10190.0 0.0036152
10210.0 0.0036034
10230.0 0.0035918
10250.0 0.0035787
10270.0 0.0035656
10290.0 0.0035533
10310.0 0.0035397
10330.0 0.0035248
10350.0 0.0035111
10370.0 0.0034973
10390.0 0.003482
10410.0 0.0034666
10430.0 0.0034523
10450.0 0.0034366
10470.0 0.0034199
10490.0 0.003404
10510.0 0.0033878
10530.0 0.0033694
10550.0 0.0033515
10570.0 0.0033344
10590.0 0.0033159
10610.0 0.0032964
10630.0 0.0032779
10650.0 0.0032588
10670.0 0.0032378
10690.0 0.0032171
10710.0 0.0031968
10730.0 0.003175
10750.0 0.0031517
10770.0 0.0031301
10790.0 0.0031077
10810.0 0.0030836
10830.0 0.0030597
10850.0 0.0030366
10870.0 0.0030107
10890.0 0.0029843
10910.0 0.0029588
10930.0 0.0029322
10950.0 0.0029034
10970.0 0.0028747
10990.0 0.0028465
11010.0 0.0030789
11030.0 0.0030464
11050.0 0.0030149
11070.0 0.0029827
11090.0 0.0029481
11110.0 0.0029158
11130.0 0.0028844
11150.0 0.0028519
11170.0 0.0028195
11190.0 0.0027892
11210.0 0.002758
11230.0 0.0027261
11250.0 0.0026956
11270.0 0.0026658
11290.0 0.0026348
11310.0 0.0026041
11330.0 0.0025755
11350.0 0.0025461
11370.0 0.0025159
11390.0 0.0024865
11410.0 0.002457
11430.0 0.0024249
11450.0 0.0023921
11470.0 0.0023591
11490.0 0.0023236
11510.0 0.002285
11530.0 0.0022463
11550.0 0.002206
11570.0 0.0021622
11590.0 0.0021173
11610.0 0.0020726
11630.0 0.0020252
11650.0 0.001976
11670.0 0.0019287
11690.0 0.0018815
11710.0 0.0018331
11730.0 0.001786
11750.0 0.0017414
11770.0 0.0016962
11790.0 0.0016516
11810.0 0.0016096
11830.0 0.0015687
11850.0 0.0015271
11870.0 0.0014878
11890.0 0.0014508
11910.0 0.0014138
11930.0 0.0013776
11950.0 0.0013437
11970.0 0.0013106
11990.0 0.0012775
12010.0 0.0012465
12030.0 0.0012174
12050.0 0.0011891
12070.0 0.0011618
12090.0 0.0011377
12110.0 0.0011151
12130.0 0.0010939
12150.0 0.0010753
12170.0 0.0010593
12190.0 0.001045
12210.0 0.0010333
12230.0 0.0010244
12250.0 0.0010179
12270.0 0.001014
12290.0 0.0010125
12310.0 0.0010132
12330.0 0.0010162
12350.0 0.0010214
12370.0 0.0010279
12390.0 0.0010362
12410.0 0.0010466
12430.0 0.0010572
12450.0 0.0010685
12470.0 0.0010809
12490.0 0.0010936
12510.0 0.0011055
12530.0 0.0011177
12550.0 0.0011298
12570.0 0.0011405
12590.0 0.0011499
12610.0 0.0011584
12630.0 0.0011651
12650.0 0.0011691
12670.0 0.0011713
12690.0 0.0011711
12710.0 0.0011683
12730.0 0.001163
12750.0 0.0011552
12770.0 0.0011448
12790.0 0.0011325
12810.0 0.001118
12830.0 0.0011014
12850.0 0.001084
12870.0 0.0010656
12890.0 0.001046
12910.0 0.0010263
12930.0 0.0010068
12950.0 0.00098698
12970.0 0.0009672
12990.0 0.00094857
13010.0 0.00093048
13030.0 0.00091259
13050.0 0.00089554
13070.0 0.00087951
13090.0 0.0008636
13110.0 0.00084812
13130.0 0.00083347
13150.0 0.00081922
13170.0 0.00080488
13190.0 0.00079123
13210.0 0.00077822
13230.0 0.00076527
13250.0 0.00075263
13270.0 0.00074075
13290.0 0.00072922
13310.0 0.00071792
13330.0 0.00070746
13350.0 0.00069778
13370.0 0.00068863
13390.0 0.00068018
13410.0 0.00067279
13430.0 0.00066607
13450.0 0.00065997
13470.0 0.00065459
13490.0 0.00064976
13510.0 0.00064521
13530.0 0.00064093
13550.0 0.00063677
13570.0 0.00063253
13590.0 0.00062803
13610.0 0.00062329
13630.0 0.00061828
13650.0 0.00061276
13670.0 0.00060687
13690.0 0.00060079
13710.0 0.00059438
13730.0 0.00058757
13750.0 0.00058096
13770.0 0.00057443
13790.0 0.0005679
13810.0 0.00056163
13830.0 0.00055586
13850.0 0.00055029
13870.0 0.00054505
13890.0 0.00054032
13910.0 0.00053597
13930.0 0.00053185
13950.0 0.00052802
13970.0 0.00052454
13990.0 0.00052111
14010.0 0.00051771
14030.0 0.00051438
14050.0 0.000511
14070.0 0.00050733
14090.0 0.00050353
14110.0 0.0004996
14130.0 0.00049536
14150.0 0.00049078
14170.0 0.00048618
14190.0 0.00048142
14210.0 0.0004764
14230.0 0.00047141
14250.0 0.00046662
14270.0 0.00046177
14290.0 0.00045709
14310.0 0.00045294
14330.0 0.00044914
14350.0 0.00044568
14370.0 0.00044277
14390.0 0.00044042
14410.0 0.00043847
14430.0 0.00043699
14450.0 0.00043597
14470.0 0.00043532
14490.0 0.00043496
14510.0 0.00043489
14530.0 0.00043504
14550.0 0.00043539
14570.0 0.00043595
14590.0 0.0004367
14610.0 0.00043772
14630.0 0.00043909
14650.0 0.00044083
14670.0 0.000443
14690.0 0.00044577
14710.0 0.00044924
14730.0 0.00045322
14750.0 0.000458
14770.0 0.0004637
14790.0 0.00047014
14810.0 0.00047728
14830.0 0.00048579
14850.0 0.00049518
14870.0 0.00050516
14890.0 0.00051611
14910.0 0.00052799
14930.0 0.00053982
14950.0 0.0005513
14970.0 0.00056263
14990.0 0.00057276
15010.0 0.00058124
15030.0 0.00058833
15050.0 0.00059405
15070.0 0.00059823
15090.0 0.00060149
15110.0 0.00060414
15130.0 0.00060637
15150.0 0.0006084
15170.0 0.00061035
15190.0 0.00061228
15210.0 0.00061422
15230.0 0.0006162
15250.0 0.0006182
15270.0 0.00062025
15290.0 0.00062234
15310.0 0.00062447
15330.0 0.00062663
15350.0 0.00062883
15370.0 0.00063107
15390.0 0.00063334
15410.0 0.00063565
15430.0 0.00063799
15450.0 0.00064037
15470.0 0.00064277
15490.0 0.00064522
15510.0 0.00064769
15530.0 0.00065019
15550.0 0.00065272
15570.0 0.00065529
15590.0 0.00065788
15610.0 0.0006605
15630.0 0.00066315
15650.0 0.00066582
15670.0 0.00066852
15690.0 0.00067124
15710.0 0.00067399
15730.0 0.00067676
15750.0 0.00067955
15770.0 0.00068237
15790.0 0.00068521
15810.0 0.00068806
15830.0 0.00069093
15850.0 0.00069383
15870.0 0.00069673
15890.0 0.00069965
15910.0 0.0007026
15930.0 0.00070555
15950.0 0.00070851
15970.0 0.00071149
15990.0 0.00071448
16010.0 0.00071748
16030.0 0.00072049
16050.0 0.00072351
16070.0 0.00072653
16090.0 0.00072956
16110.0 0.00073259
16130.0 0.00073563
16150.0 0.00073867
16170.0 0.00074171
16190.0 0.00074475
16210.0 0.00074779
16230.0 0.00075082
16250.0 0.00075386
16270.0 0.00075689
16290.0 0.00075992
16310.0 0.00076293
16330.0 0.00076595
16350.0 0.00076895
16370.0 0.00077193
16390.0 0.00077491
16410.0 0.00077788
16430.0 0.00078083
16450.0 0.00078376
16470.0 0.00078669
16490.0 0.00078959
16510.0 0.00079247
16530.0 0.00079533
16550.0 0.00079817
16570.0 0.00080099
16590.0 0.00080378
16610.0 0.00080655
16630.0 0.00080929
16650.0 0.00081201
16670.0 0.0008147
16690.0 0.00081735
16710.0 0.00081997
16730.0 0.00082256
16750.0 0.00082512
16770.0 0.00082765
16790.0 0.00083013
16810.0 0.00083258
16830.0 0.00083499
16850.0 0.00083736
16870.0 0.00083969
16890.0 0.00084198
16910.0 0.00084422
16930.0 0.00084642
16950.0 0.00084858
16970.0 0.00085069
16990.0 0.00085275
17010.0 0.00085476
17030.0 0.00085673
17050.0 0.00085864
17070.0 0.0008605
17090.0 0.00086231
17110.0 0.00086406
17130.0 0.00086576
17150.0 0.0008674
17170.0 0.00086899
17190.0 0.00087052
17210.0 0.000872
17230.0 0.00087342
17250.0 0.00087477
17270.0 0.00087606
17290.0 0.00087729
17310.0 0.00087847
17330.0 0.00087958
17350.0 0.00088062
17370.0 0.00088161
17390.0 0.00088253
17410.0 0.00088338
17430.0 0.00088417
17450.0 0.0008849
17470.0 0.00088554
17490.0 0.00088613
17510.0 0.00088666
17530.0 0.00088711
17550.0 0.0008875
17570.0 0.00088782
17590.0 0.00088807
17610.0 0.00088825
17630.0 0.00088836
17650.0 0.00088841
17670.0 0.00088838
17690.0 0.00088828
17710.0 0.00088812
17730.0 0.00088789
17750.0 0.00088758
17770.0 0.0008872
17790.0 0.00088677
17810.0 0.00088625
17830.0 0.00088567
17850.0 0.00088502
17870.0 0.0008843
17890.0 0.00088351
17910.0 0.00088265
17930.0 0.00088173
17950.0 0.00088074
17970.0 0.00087967
17990.0 0.00087855
18010.0 0.00087736
18030.0 0.00087609
18050.0 0.00087476
18070.0 0.00087337
18090.0 0.00087191
18110.0 0.00087039
18130.0 0.00086881
18150.0 0.00086716
18170.0 0.00086544
18190.0 0.00086367
18210.0 0.00086184
18230.0 0.00085994
18250.0 0.00085798
18270.0 0.00085597
18290.0 0.0008539
18310.0 0.00085176
18330.0 0.00084958
18350.0 0.00084734
18370.0 0.00084503
18390.0 0.00084268
18410.0 0.00084027
18430.0 0.00083781
18450.0 0.00083529
18470.0 0.00083273
18490.0 0.00083012
18510.0 0.00082746
18530.0 0.00082475
18550.0 0.00082199
18570.0 0.00081919
18590.0 0.00081634
18610.0 0.00081345
18630.0 0.00081051
18650.0 0.00080753
18670.0 0.00080451
18690.0 0.00080146
18710.0 0.00079836
18730.0 0.00079522
18750.0 0.00079205
18770.0 0.00078884
18790.0 0.00078559
18810.0 0.00078231
18830.0 0.00077901
18850.0 0.00077566
18870.0 0.00077229
18890.0 0.00076889
18910.0 0.00076546
18930.0 0.000762
18950.0 0.00075851
18970.0 0.00075501
18990.0 0.00075147
19010.0 0.0007479
19030.0 0.00074433
19050.0 0.00074073
19070.0 0.00073711
19090.0 0.00073347
19110.0 0.00072981
19130.0 0.00072613
19150.0 0.00072244
19170.0 0.00071873
19190.0 0.00071502
19210.0 0.00071128
19230.0 0.00070753
19250.0 0.00070378
19270.0 0.00070001
19290.0 0.00069623
19310.0 0.00069245
19330.0 0.00068866
19350.0 0.00068485
19370.0 0.00068104
19390.0 0.00067724
19410.0 0.00067342
19430.0 0.0006696
19450.0 0.00066578
19470.0 0.00066197
19490.0 0.00065814
19510.0 0.00065432
19530.0 0.0006505
19550.0 0.00064668
19570.0 0.00064286
19590.0 0.00063905
19610.0 0.00063524
19630.0 0.00063143
19650.0 0.00062764
19670.0 0.00062385
19690.0 0.00062006
19710.0 0.00061628
19730.0 0.00061251
19750.0 0.00060875
19770.0 0.00060499
19790.0 0.00060125
19810.0 0.00059751
19830.0 0.00059377
19850.0 0.00059002
19870.0 0.00058622
19890.0 0.00058232
19910.0 0.0005782
19930.0 0.00057375
19950.0 0.00056881
19970.0 0.00056309
19990.0 0.00055643
20010.0 0.00054897
20030.0 0.00054038
20050.0 0.00053072
20070.0 0.0005205
20090.0 0.00050983
20110.0 0.00049834
20130.0 0.00048698
20150.0 0.00047594
20170.0 0.00046485
20190.0 0.00045388
20210.0 0.00044356
20230.0 0.00043359
20250.0 0.00042371
20270.0 0.00041441
20290.0 0.00040571
20310.0 0.00039728
20330.0 0.00038912
20350.0 0.00038179
20370.0 0.00037483
20390.0 0.00036816
20410.0 0.00036201
20430.0 0.00035638
20450.0 0.00035095
20470.0 0.00034594
20490.0 0.00034138
20510.0 0.00033714
20530.0 0.00033315
20550.0 0.00032952
20570.0 0.00032621
20590.0 0.0003231
20610.0 0.00032022
20630.0 0.00031758
20650.0 0.0003151
20670.0 0.00031276
20690.0 0.00031057
20710.0 0.00030848
20730.0 0.00030646
20750.0 0.0003045
20770.0 0.00030257
20790.0 0.00030064
20810.0 0.0002987
20830.0 0.00029673
20850.0 0.00029472
20870.0 0.00029265
20890.0 0.0002905
20910.0 0.0002883
20930.0 0.00028601
20950.0 0.00028362
20970.0 0.00028117
20990.0 0.00027866
21010.0 0.00027603
21030.0 0.00027334
21050.0 0.00027063
21070.0 0.00026784
21090.0 0.00026495
21110.0 0.00026209
21130.0 0.00025921
21150.0 0.00025627
21170.0 0.00025332
21190.0 0.00025043
21210.0 0.00024749
21230.0 0.00024453
21250.0 0.00024165
21270.0 0.00023881
21290.0 0.00023596
21310.0 0.00023316
21330.0 0.00023048
21350.0 0.00022781
21370.0 0.00022519
21390.0 0.00022268
21410.0 0.00022026
21430.0 0.00021787
21450.0 0.00021561
21470.0 0.00021348
21490.0 0.00021144
21510.0 0.00020949
21530.0 0.00020769
21550.0 0.000206
21570.0 0.0002044
21590.0 0.00020293
21610.0 0.00020158
21630.0 0.00020034
21650.0 0.0001992
21670.0 0.00019816
21690.0 0.00019721
21710.0 0.00019635
21730.0 0.00019556
21750.0 0.00019483
21770.0 0.00019418
21790.0 0.00019358
21810.0 0.00019301
21830.0 0.00019247
21850.0 0.00019197
21870.0 0.00019148
21890.0 0.00019097
21910.0 0.00019048
21930.0 0.00018997
21950.0 0.00018944
21970.0 0.00018888
21990.0 0.00018832
22010.0 0.0001877
22030.0 0.00018705
22050.0 0.00018636
22070.0 0.00018564
22090.0 0.00018487
22110.0 0.00018407
22130.0 0.00018323
22150.0 0.00018236
22170.0 0.00018146
22190.0 0.00018053
22210.0 0.00017957
22230.0 0.00017859
22250.0 0.00017758
22270.0 0.00017654
22290.0 0.00017548
22310.0 0.00017438
22330.0 0.00017323
22350.0 0.00017203
22370.0 0.0001708
22390.0 0.00016949
22410.0 0.00016808
22430.0 0.00016664
22450.0 0.00016511
22470.0 0.00016346
22490.0 0.00016173
22510.0 0.00015994
22530.0 0.00015801
22550.0 0.00015595
22570.0 0.00015388
22590.0 0.00015172
22610.0 0.00014945
22630.0 0.00014715
22650.0 0.00014489
22670.0 0.00014254
22690.0 0.00014017
22710.0 0.00013788
22730.0 0.00013563
22750.0 0.00013332
22770.0 0.00013115
22790.0 0.0001291
22810.0 0.00012709
22830.0 0.00012516
22850.0 0.00012339
22870.0 0.0001217
22890.0 0.00012008
22910.0 0.00011859
22930.0 0.00011721
22950.0 0.00011591
22970.0 0.00011466
22990.0 0.00011356
23010.0 0.0001125
23030.0 0.00011148
23050.0 0.00011053
23070.0 0.00010963
23090.0 0.00010872
23110.0 0.00010784
23130.0 0.00010699
23150.0 0.00010614
