#lamb flux
1010.0 3.2679e-07
1030.0 3.6192e-07
1050.0 4.0232e-07
1070.0 4.478e-07
1090.0 4.9947e-07
1110.0 5.5246e-07
1130.0 6.0579e-07
1150.0 6.6166e-07
1170.0 7.1928e-07
1190.0 7.7392e-07
1210.0 8.293e-07
1230.0 8.8653e-07
1250.0 9.426e-07
1270.0 9.9705e-07
1290.0 1.0546e-06
1310.0 1.1121e-06
1330.0 1.1672e-06
1350.0 1.223e-06
1370.0 1.2805e-06
1390.0 1.3366e-06
1410.0 1.3911e-06
1430.0 1.448e-06
1450.0 1.5049e-06
1470.0 1.5598e-06
1490.0 1.6154e-06
1510.0 1.6741e-06
1530.0 1.7297e-06
1550.0 1.7845e-06
1570.0 1.8412e-06
1590.0 1.8979e-06
1610.0 1.952e-06
1630.0 2.0078e-06
1650.0 2.065e-06
1670.0 2.1203e-06
1690.0 2.1748e-06
1710.0 2.2314e-06
1730.0 2.2882e-06
1750.0 2.3414e-06
1770.0 2.3962e-06
1790.0 2.4519e-06
1810.0 2.5056e-06
1830.0 2.5581e-06
1850.0 2.6138e-06
1870.0 2.6677e-06
1890.0 2.7194e-06
1910.0 2.7719e-06
1930.0 2.8253e-06
1950.0 2.8756e-06
1970.0 2.9249e-06
1990.0 2.9756e-06
2010.0 3.0247e-06
2030.0 3.0712e-06
2050.0 3.1186e-06
2070.0 3.1664e-06
2090.0 3.2101e-06
2110.0 3.2527e-06
2130.0 3.2957e-06
2150.0 3.3364e-06
2170.0 3.3736e-06
2190.0 3.4113e-06
2210.0 3.4478e-06
2230.0 3.4806e-06
2250.0 3.5115e-06
2270.0 3.5429e-06
2290.0 3.5708e-06
2310.0 3.5948e-06
2330.0 3.6185e-06
2350.0 3.6412e-06
2370.0 3.6609e-06
2390.0 3.6814e-06
2410.0 3.7072e-06
2430.0 3.7368e-06
2450.0 3.7734e-06
2470.0 3.8249e-06
2490.0 3.8944e-06
2510.0 3.975e-06
2530.0 4.0796e-06
2550.0 4.2241e-06
2570.0 4.4206e-06
2590.0 4.6945e-06
2610.0 5.127e-06
2630.0 5.7486e-06
2650.0 6.544e-06
2670.0 7.5421e-06
2690.0 8.722e-06
2710.0 9.9176e-06
2730.0 1.1031e-05
2750.0 1.2064e-05
2770.0 1.2886e-05
2790.0 1.346e-05
2810.0 1.3847e-05
2830.0 1.4082e-05
2850.0 1.4163e-05
2870.0 1.4159e-05
2890.0 1.4109e-05
2910.0 1.4026e-05
2930.0 1.3921e-05
2950.0 1.3814e-05
2970.0 1.3708e-05
2990.0 1.36e-05
3010.0 0.00040843
3030.0 0.00040548
3050.0 0.00040259
3070.0 0.00039949
3090.0 0.00039623
3110.0 0.00039241
3130.0 0.00038756
3150.0 0.00038136
3170.0 0.00037314
3190.0 0.00036306
3210.0 0.00035176
3230.0 0.00033973
3250.0 0.0003278
3270.0 0.00031893
3290.0 0.0003125
3310.0 0.00031119
3330.0 0.00031356
3350.0 0.00031938
3370.0 0.00032867
3390.0 0.00034099
3410.0 0.00035476
3430.0 0.00037054
3450.0 0.00038895
3470.0 0.00040929
3490.0 0.00043113
3510.0 0.000456
3530.0 0.00048318
3550.0 0.00051222
3570.0 0.00054427
3590.0 0.00058042
3610.0 0.00062069
3630.0 0.00066146
3650.0 0.00070482
3670.0 0.00074433
3690.0 0.00077409
3710.0 0.00078949
3730.0 0.00078194
3750.0 0.00075113
3770.0 0.00075224
3790.0 0.00071904
3810.0 0.00055854
3830.0 0.00051515
3850.0 0.0006873
3870.0 0.00060152
3890.0 0.00049242
3910.0 0.00057587
3930.0 0.00075804
3950.0 0.00086513
3970.0 0.0010043
3990.0 0.00080493
4010.0 0.001246
4030.0 0.0011446
4050.0 0.0010772
4070.0 0.0012256
4090.0 0.0011768
4110.0 0.0011697
4130.0 0.001442
4150.0 0.0018346
4170.0 0.0015039
4190.0 0.0013441
4210.0 0.0014833
4230.0 0.0018352
4250.0 0.0021374
4270.0 0.0023063
4290.0 0.0021164
4310.0 0.001971
4330.0 0.0020002
4350.0 0.0025422
4370.0 0.0030557
4390.0 0.0024916
4410.0 0.0015199
4430.0 0.0011227
4450.0 0.0010128
4470.0 0.00076576
4490.0 0.0011585
4510.0 0.0020781
4530.0 0.0024918
4550.0 0.0024751
4570.0 0.0023505
4590.0 0.0026045
4610.0 0.0047068
4630.0 0.0064276
4650.0 0.0060932
4670.0 0.0054291
4690.0 0.0057112
4710.0 0.00603
4730.0 0.0048736
4750.0 0.0031442
4770.0 0.0022743
4790.0 0.0024913
4810.0 0.0025442
4830.0 0.0025009
4850.0 0.0027539
4870.0 0.0036415
4890.0 0.0042342
4910.0 0.0032973
4930.0 0.0031221
4950.0 0.0035808
4970.0 0.0048315
4990.0 0.0064816
5010.0 0.0073532
5030.0 0.0058357
5050.0 0.0035169
5070.0 0.0024972
5090.0 0.0019862
5110.0 0.0019046
5130.0 0.0022118
5150.0 0.0021525
5170.0 0.002051
5190.0 0.0018765
5210.0 0.0019927
5230.0 0.0024036
5250.0 0.0027712
5270.0 0.0026597
5290.0 0.0029337
5310.0 0.0038048
5330.0 0.0039852
5350.0 0.0039309
5370.0 0.0044332
5390.0 0.0054127
5410.0 0.0046859
5430.0 0.0035957
5450.0 0.0035687
5470.0 0.0041735
5490.0 0.0053111
5510.0 0.0065829
5530.0 0.0075787
5550.0 0.0068844
5570.0 0.0061477
5590.0 0.0051096
5610.0 0.0051276
5630.0 0.0056165
5650.0 0.0053175
5670.0 0.0049566
5690.0 0.0040926
5710.0 0.0041454
5730.0 0.0040109
5750.0 0.0022165
5770.0 0.0016776
5790.0 0.0020524
5810.0 0.0022763
5830.0 0.0033153
5850.0 0.0041846
5870.0 0.0044106
5890.0 0.004169
5910.0 0.0040207
5930.0 0.0039308
5950.0 0.0040857
5970.0 0.0049574
5990.0 0.0041509
6010.0 0.0032211
6030.0 0.0026193
6050.0 0.0023182
6070.0 0.0027072
6090.0 0.003087
6110.0 0.0031826
6130.0 0.0029089
6150.0 0.0023527
6170.0 0.0020452
6190.0 0.0025476
6210.0 0.003788
6230.0 0.0052772
6250.0 0.0055447
6270.0 0.0043416
6290.0 0.0036836
6310.0 0.0028317
6330.0 0.0020994
6350.0 0.0020261
6370.0 0.0021371
6390.0 0.0025837
6410.0 0.0032548
6430.0 0.0039006
6450.0 0.0047785
6470.0 0.0051943
6490.0 0.0063013
6510.0 0.0070734
6530.0 0.007019
6550.0 0.006459
6570.0 0.0054734
6590.0 0.0053047
6610.0 0.0044487
6630.0 0.0045017
6650.0 0.0042898
6670.0 0.0039186
6690.0 0.0032575
6710.0 0.0031014
6730.0 0.0017725
6750.0 0.0020249
6770.0 0.0027735
6790.0 0.0035822
6810.0 0.0027705
6830.0 0.0028374
6850.0 0.0024819
6870.0 0.0023597
6890.0 0.0020832
6910.0 0.0023406
6930.0 0.0021902
6950.0 0.0025405
6970.0 0.0025849
6990.0 0.0028687
7010.0 0.0028818
7030.0 0.0030855
7050.0 0.0027092
7070.0 0.0023687
7090.0 0.0024287
7110.0 0.0024629
7130.0 0.0027506
7150.0 0.003102
7170.0 0.0034328
7190.0 0.0035693
7210.0 0.0031966
7230.0 0.0032358
7250.0 0.0035496
7270.0 0.0039393
7290.0 0.004684
7310.0 0.0047847
7330.0 0.0043454
7350.0 0.003872
7370.0 0.0029957
7390.0 0.003124
7410.0 0.0037674
7430.0 0.0042472
7450.0 0.0045709
7470.0 0.0043796
7490.0 0.0039637
7510.0 0.0058273
7530.0 0.0052355
7550.0 0.0047452
7570.0 0.0032712
7590.0 0.0016187
7610.0 0.0012266
7630.0 0.0016748
7650.0 0.0021613
7670.0 0.0032186
7690.0 0.0036318
7710.0 0.003377
7730.0 0.0033363
7750.0 0.0041582
7770.0 0.0042275
7790.0 0.003923
7810.0 0.0033448
7830.0 0.0035171
7850.0 0.0036962
7870.0 0.0035719
7890.0 0.0028748
7910.0 0.0020131
7930.0 0.0019819
7950.0 0.0017808
7970.0 0.0015504
7990.0 0.0014417
8010.0 0.0013396
8030.0 0.0012831
8050.0 0.0013461
8070.0 0.001416
8090.0 0.0015963
8110.0 0.0014951
8130.0 0.0010621
8150.0 0.0010362
8170.0 0.00075953
8190.0 0.00063062
8210.0 0.00095714
8230.0 0.0010911
8250.0 0.00070033
8270.0 0.00059919
8290.0 0.00069409
8310.0 0.00053842
8330.0 0.00033634
8350.0 0.000262
8370.0 0.00014788
8390.0 0.00029501
8410.0 0.00035871
8430.0 0.00044562
8450.0 0.00049827
8470.0 0.00069917
8490.0 0.00060985
8510.0 0.00052882
8530.0 0.00039561
8550.0 0.00079581
8570.0 0.0011434
8590.0 0.00097031
8610.0 0.0013248
8630.0 0.0014751
8650.0 0.0011014
8670.0 0.0013317
8690.0 0.0017135
8710.0 0.0015284
8730.0 0.0015763
8750.0 0.0013204
8770.0 0.0012148
8790.0 0.0012928
8810.0 0.0013324
8830.0 0.00088056
8850.0 0.00055032
8870.0 0.00043096
8890.0 0.0006439
8910.0 0.00087873
8930.0 0.0010793
8950.0 0.0012246
8970.0 0.0012033
8990.0 0.0010017
9010.0 0.00075968
9030.0 0.00065797
9050.0 0.00067761
9070.0 0.00069588
9090.0 0.00071025
9110.0 0.00072659
9130.0 0.00073868
9150.0 0.00074771
9170.0 0.00075731
9190.0 0.00076759
9210.0 0.00077836
9230.0 0.00078977
9250.0 0.00080143
9270.0 0.00081349
9290.0 0.0008259
9310.0 0.00083844
9330.0 0.00085123
9350.0 0.00086443
9370.0 0.00087781
9390.0 0.00089136
9410.0 0.00090526
9430.0 0.00091953
9450.0 0.00093384
9470.0 0.00094844
9490.0 0.00096341
9510.0 0.00097857
9530.0 0.00099388
9550.0 0.0010096
9570.0 0.0010256
9590.0 0.0010418
9610.0 0.0010581
9630.0 0.0010749
9650.0 0.0010919
9670.0 0.0011089
9690.0 0.0011263
9710.0 0.001144
9730.0 0.0011618
9750.0 0.0011799
9770.0 0.0011983
9790.0 0.0012168
9810.0 0.0012355
9830.0 0.0012545
9850.0 0.0012737
9870.0 0.0012929
9890.0 0.0013123
9910.0 0.0013321
9930.0 0.0013519
9950.0 0.0013719
9970.0 0.0013921
9990.0 0.0014125
10010.0 0.0013061
10030.0 0.0013244
10050.0 0.0013429
10070.0 0.0013612
10090.0 0.0013798
10110.0 0.0013987
10130.0 0.0014175
10150.0 0.0014362
10170.0 0.001455
10190.0 0.001474
10210.0 0.0014928
10230.0 0.0015115
10250.0 0.0015304
10270.0 0.0015492
10290.0 0.0015678
10310.0 0.0015865
10330.0 0.0016052
10350.0 0.0016237
10370.0 0.0016421
10390.0 0.0016605
10410.0 0.0016787
10430.0 0.0016967
10450.0 0.0017146
10470.0 0.0017324
10490.0 0.0017499
10510.0 0.0017672
10530.0 0.0017845
10550.0 0.0018015
10570.0 0.0018181
10590.0 0.0018346
10610.0 0.0018509
10630.0 0.0018668
10650.0 0.0018825
10670.0 0.001898
10690.0 0.0019131
10710.0 0.0019278
10730.0 0.0019423
10750.0 0.0019565
10770.0 0.0019703
10790.0 0.0019836
10810.0 0.0019967
10830.0 0.0020093
10850.0 0.0020213
10870.0 0.0020325
10890.0 0.0020424
10910.0 0.0020503
10930.0 0.0020552
10950.0 0.0020552
10970.0 0.0020493
10990.0 0.0020367
11010.0 0.0020669
11030.0 0.0020358
11050.0 0.0019973
11070.0 0.0019507
11090.0 0.0018942
11110.0 0.0018355
11130.0 0.0017741
11150.0 0.001708
11170.0 0.0016401
11190.0 0.0015744
11210.0 0.001507
11230.0 0.0014385
11250.0 0.0013735
11270.0 0.0013118
11290.0 0.0012504
11310.0 0.0011929
11330.0 0.0011424
11350.0 0.001095
11370.0 0.0010512
11390.0 0.0010132
11410.0 0.0009796
11430.0 0.00094796
11450.0 0.00092002
11470.0 0.00089511
11490.0 0.00087121
11510.0 0.00084748
11530.0 0.0008248
11550.0 0.00080189
11570.0 0.00077733
11590.0 0.00075189
11610.0 0.00072611
11630.0 0.00069838
11650.0 0.00066908
11670.0 0.00064045
11690.0 0.00061172
11710.0 0.0005824
11730.0 0.00055418
11750.0 0.00052813
11770.0 0.0005027
11790.0 0.00047888
11810.0 0.00045778
11830.0 0.00043877
11850.0 0.0004211
11870.0 0.00040599
11890.0 0.00039307
11910.0 0.00038137
11930.0 0.00037092
11950.0 0.00036178
11970.0 0.00035324
11990.0 0.00034488
12010.0 0.00033687
12030.0 0.00032899
12050.0 0.0003208
12070.0 0.00031228
12090.0 0.00030399
12110.0 0.00029554
12130.0 0.00028697
12150.0 0.00027881
12170.0 0.00027128
12190.0 0.00026413
12210.0 0.00025803
12230.0 0.00025325
12250.0 0.00024977
12270.0 0.00024782
12290.0 0.00024753
12310.0 0.00024876
12330.0 0.00025178
12350.0 0.00025641
12370.0 0.00026224
12390.0 0.00026941
12410.0 0.00027823
12430.0 0.00028732
12450.0 0.00029681
12470.0 0.00030698
12490.0 0.00031716
12510.0 0.00032654
12530.0 0.00033578
12550.0 0.00034454
12570.0 0.00035199
12590.0 0.00035824
12610.0 0.00036357
12630.0 0.00036743
12650.0 0.00036953
12670.0 0.00037035
12690.0 0.00036971
12710.0 0.00036759
12730.0 0.00036418
12750.0 0.0003594
12770.0 0.00035347
12790.0 0.00034665
12810.0 0.00033887
12830.0 0.00033017
12850.0 0.00032119
12870.0 0.00031182
12890.0 0.00030183
12910.0 0.00029173
12930.0 0.00028176
12950.0 0.0002714
12970.0 0.00026086
12990.0 0.00025079
13010.0 0.00024078
13030.0 0.00023061
13050.0 0.00022074
13070.0 0.00021136
13090.0 0.0002019
13110.0 0.00019264
13130.0 0.00018399
13150.0 0.00017571
13170.0 0.00016754
13190.0 0.00016015
13210.0 0.00015355
13230.0 0.00014743
13250.0 0.00014204
13270.0 0.00013762
13290.0 0.00013398
13310.0 0.00013118
13330.0 0.0001294
13350.0 0.00012856
13370.0 0.00012867
13390.0 0.00012978
13410.0 0.00013163
13430.0 0.00013429
13450.0 0.00013777
13470.0 0.00014174
13490.0 0.00014603
13510.0 0.00015098
13530.0 0.00015606
13550.0 0.00016095
13570.0 0.00016584
13590.0 0.00017066
13610.0 0.00017497
13630.0 0.00017876
13650.0 0.00018225
13670.0 0.00018515
13690.0 0.00018738
13710.0 0.00018909
13730.0 0.00019028
13750.0 0.0001908
13770.0 0.00019079
13790.0 0.0001903
13810.0 0.00018933
13830.0 0.00018797
13850.0 0.0001862
13870.0 0.00018403
13890.0 0.0001816
13910.0 0.00017891
13930.0 0.00017588
13950.0 0.00017263
13970.0 0.00016936
13990.0 0.00016586
14010.0 0.00016221
14030.0 0.00015861
14050.0 0.00015503
14070.0 0.00015132
14090.0 0.00014779
14110.0 0.0001445
14130.0 0.00014134
14150.0 0.00013839
14170.0 0.00013588
14190.0 0.0001337
14210.0 0.00013186
14230.0 0.00013048
14250.0 0.00012956
14270.0 0.00012909
14290.0 0.00012913
14310.0 0.00012962
14330.0 0.00013055
14350.0 0.00013197
14370.0 0.00013376
14390.0 0.00013584
14410.0 0.00013832
14430.0 0.0001411
14450.0 0.000144
14470.0 0.00014708
14490.0 0.00015044
14510.0 0.00015378
14530.0 0.00015707
14550.0 0.0001605
14570.0 0.00016397
14590.0 0.0001673
14610.0 0.00017072
14630.0 0.00017432
14650.0 0.00017788
14670.0 0.00018149
14690.0 0.00018538
14710.0 0.00018956
14730.0 0.00019376
14750.0 0.00019836
14770.0 0.00020343
14790.0 0.00020874
14810.0 0.0002143
14830.0 0.0002206
14850.0 0.00022716
14870.0 0.00023376
14890.0 0.00024064
14910.0 0.0002477
14930.0 0.00025433
14950.0 0.00026042
14970.0 0.00026608
14990.0 0.0002708
15010.0 0.00027442
15030.0 0.00027714
15050.0 0.00027901
15070.0 0.00028005
15090.0 0.00028058
15110.0 0.00028076
15130.0 0.00028071
15150.0 0.00028057
15170.0 0.00028036
15190.0 0.00028012
15210.0 0.00027989
15230.0 0.00027966
15250.0 0.00027942
15270.0 0.00027918
15290.0 0.00027899
15310.0 0.00027877
15330.0 0.00027855
15350.0 0.00027836
15370.0 0.00027818
15390.0 0.00027796
15410.0 0.00027777
15430.0 0.00027759
15450.0 0.00027741
15470.0 0.00027721
15490.0 0.00027704
15510.0 0.00027688
15530.0 0.00027669
15550.0 0.00027651
15570.0 0.00027636
15590.0 0.00027618
15610.0 0.00027598
15630.0 0.00027582
15650.0 0.00027566
15670.0 0.00027547
15690.0 0.0002753
15710.0 0.00027515
15730.0 0.00027497
15750.0 0.00027478
15770.0 0.00027461
15790.0 0.00027444
15810.0 0.00027423
15830.0 0.00027405
15850.0 0.00027388
15870.0 0.00027368
15890.0 0.00027348
15910.0 0.0002733
15930.0 0.0002731
15950.0 0.00027287
15970.0 0.00027267
15990.0 0.00027247
16010.0 0.00027224
16030.0 0.000272
16050.0 0.00027179
16070.0 0.00027156
16090.0 0.00027131
16110.0 0.00027107
16130.0 0.00027084
16150.0 0.00027056
16170.0 0.00027029
16190.0 0.00027003
16210.0 0.00026976
16230.0 0.00026946
16250.0 0.00026918
16270.0 0.0002689
16290.0 0.00026858
16310.0 0.00026826
16330.0 0.00026796
16350.0 0.00026764
16370.0 0.00026727
16390.0 0.00026694
16410.0 0.00026661
16430.0 0.00026624
16450.0 0.00026587
16470.0 0.00026552
16490.0 0.00026513
16510.0 0.00026472
16530.0 0.00026433
16550.0 0.00026393
16570.0 0.00026349
16590.0 0.00026306
16610.0 0.00026265
16630.0 0.0002622
16650.0 0.00026173
16670.0 0.00026129
16690.0 0.00026083
16710.0 0.00026032
16730.0 0.00025983
16750.0 0.00025935
16770.0 0.00025883
16790.0 0.00025829
16810.0 0.00025779
16830.0 0.00025726
16850.0 0.0002567
16870.0 0.00025614
16890.0 0.0002556
16910.0 0.00025501
16930.0 0.00025441
16950.0 0.00025383
16970.0 0.00025324
16990.0 0.00025261
17010.0 0.00025199
17030.0 0.00025138
17050.0 0.00025073
17070.0 0.00025007
17090.0 0.00024943
17110.0 0.00024877
17130.0 0.00024806
17150.0 0.00024738
17170.0 0.00024671
17190.0 0.00024599
17210.0 0.00024527
17230.0 0.00024458
17250.0 0.00024385
17270.0 0.00024309
17290.0 0.00024234
17310.0 0.0002416
17330.0 0.00024083
17350.0 0.00024003
17370.0 0.00023928
17390.0 0.0002385
17410.0 0.00023768
17430.0 0.00023689
17450.0 0.0002361
17470.0 0.00023525
17490.0 0.00023441
17510.0 0.00023359
17530.0 0.00023275
17550.0 0.00023188
17570.0 0.00023103
17590.0 0.00023019
17610.0 0.0002293
17630.0 0.00022841
17650.0 0.00022755
17670.0 0.00022665
17690.0 0.00022572
17710.0 0.00022483
17730.0 0.00022393
17750.0 0.000223
17770.0 0.00022207
17790.0 0.00022117
17810.0 0.00022022
17830.0 0.00021926
17850.0 0.00021833
17870.0 0.00021739
17890.0 0.00021641
17910.0 0.00021543
17930.0 0.00021449
17950.0 0.00021352
17970.0 0.00021253
17990.0 0.00021156
18010.0 0.00021059
18030.0 0.00020956
18050.0 0.00020857
18070.0 0.00020759
18090.0 0.00020657
18110.0 0.00020555
18130.0 0.00020456
18150.0 0.00020355
18170.0 0.00020252
18190.0 0.0002015
18210.0 0.0002005
18230.0 0.00019945
18250.0 0.0001984
18270.0 0.00019739
18290.0 0.00019636
18310.0 0.0001953
18330.0 0.00019427
18350.0 0.00019325
18370.0 0.00019219
18390.0 0.00019113
18410.0 0.00019009
18430.0 0.00018905
18450.0 0.00018797
18470.0 0.00018692
18490.0 0.00018588
18510.0 0.00018482
18530.0 0.00018375
18550.0 0.00018272
18570.0 0.00018166
18590.0 0.00018057
18610.0 0.00017952
18630.0 0.00017847
18650.0 0.0001774
18670.0 0.00017632
18690.0 0.00017528
18710.0 0.00017422
18730.0 0.00017314
18750.0 0.00017209
18770.0 0.00017105
18790.0 0.00016996
18810.0 0.00016889
18830.0 0.00016785
18850.0 0.00016679
18870.0 0.00016571
18890.0 0.00016467
18910.0 0.00016362
18930.0 0.00016255
18950.0 0.00016149
18970.0 0.00016046
18990.0 0.0001594
19010.0 0.00015832
19030.0 0.00015728
19050.0 0.00015625
19070.0 0.00015519
19090.0 0.00015414
19110.0 0.00015312
19130.0 0.00015207
19150.0 0.00015101
19170.0 0.00014999
19190.0 0.00014896
19210.0 0.00014791
19230.0 0.00014687
19250.0 0.00014587
19270.0 0.00014483
19290.0 0.0001438
19310.0 0.00014279
19330.0 0.00014178
19350.0 0.00014074
19370.0 0.00013973
19390.0 0.00013873
19410.0 0.00013771
19430.0 0.00013669
19450.0 0.00013571
19470.0 0.00013472
19490.0 0.0001337
19510.0 0.00013271
19530.0 0.00013174
19550.0 0.00013074
19570.0 0.00012973
19590.0 0.00012877
19610.0 0.0001278
19630.0 0.00012681
19650.0 0.00012584
19670.0 0.00012489
19690.0 0.00012391
19710.0 0.00012294
19730.0 0.000122
19750.0 0.00012104
19770.0 0.00012007
19790.0 0.00011912
19810.0 0.00011819
19830.0 0.00011724
19850.0 0.00011629
19870.0 0.00011536
19890.0 0.00011439
19910.0 0.00011336
19930.0 0.0001123
19950.0 0.00011115
19970.0 0.00010983
19990.0 0.00010834
20010.0 0.00010524
20030.0 0.00010338
20050.0 0.0001013
20070.0 9.9102e-05
20090.0 9.6795e-05
20110.0 9.4256e-05
20130.0 9.1731e-05
20150.0 8.9264e-05
20170.0 8.6747e-05
20190.0 8.4229e-05
20210.0 8.1867e-05
20230.0 7.9581e-05
20250.0 7.7307e-05
20270.0 7.5198e-05
20290.0 7.3269e-05
20310.0 7.1433e-05
20330.0 6.9709e-05
20350.0 6.8254e-05
20370.0 6.6945e-05
20390.0 6.5778e-05
20410.0 6.4807e-05
20430.0 6.4027e-05
20450.0 6.3381e-05
20470.0 6.2907e-05
20490.0 6.2598e-05
20510.0 6.243e-05
20530.0 6.2403e-05
20550.0 6.2502e-05
20570.0 6.2701e-05
20590.0 6.3015e-05
20610.0 6.3424e-05
20630.0 6.3893e-05
20650.0 6.4435e-05
20670.0 6.5076e-05
20690.0 6.5733e-05
20710.0 6.6416e-05
20730.0 6.7159e-05
20750.0 6.7934e-05
20770.0 6.8685e-05
20790.0 6.9469e-05
20810.0 7.0292e-05
20830.0 7.1095e-05
20850.0 7.1888e-05
20870.0 7.273e-05
20890.0 7.3575e-05
20910.0 7.4372e-05
20930.0 7.5192e-05
20950.0 7.6035e-05
20970.0 7.6846e-05
20990.0 7.7639e-05
21010.0 7.8474e-05
21030.0 7.9286e-05
21050.0 8.0056e-05
21070.0 8.0827e-05
21090.0 8.1607e-05
21110.0 8.2316e-05
21130.0 8.2986e-05
21150.0 8.3649e-05
21170.0 8.4259e-05
21190.0 8.4793e-05
21210.0 8.5297e-05
21230.0 8.5745e-05
21250.0 8.6094e-05
21270.0 8.6362e-05
21290.0 8.655e-05
21310.0 8.6628e-05
21330.0 8.659e-05
21350.0 8.6438e-05
21370.0 8.6151e-05
21390.0 8.5734e-05
21410.0 8.5182e-05
21430.0 8.445e-05
21450.0 8.3584e-05
21470.0 8.2601e-05
21490.0 8.1456e-05
21510.0 8.0162e-05
21530.0 7.8806e-05
21550.0 7.7348e-05
21570.0 7.5756e-05
21590.0 7.4144e-05
21610.0 7.2541e-05
21630.0 7.0893e-05
21650.0 6.923e-05
21670.0 6.7727e-05
21690.0 6.6283e-05
21710.0 6.4911e-05
21730.0 6.37e-05
21750.0 6.2668e-05
21770.0 6.175e-05
21790.0 6.1028e-05
21810.0 6.0514e-05
21830.0 6.0183e-05
21850.0 6.0043e-05
21870.0 6.0098e-05
21890.0 6.0319e-05
21910.0 6.0723e-05
21930.0 6.1291e-05
21950.0 6.1978e-05
21970.0 6.2804e-05
21990.0 6.3798e-05
22010.0 6.4843e-05
22030.0 6.5952e-05
22050.0 6.7167e-05
22070.0 6.8438e-05
22090.0 6.9681e-05
22110.0 7.0976e-05
22130.0 7.2314e-05
22150.0 7.36e-05
22170.0 7.4845e-05
22190.0 7.6116e-05
22210.0 7.7329e-05
22230.0 7.8419e-05
22250.0 7.9468e-05
22270.0 8.0455e-05
22290.0 8.1313e-05
22310.0 8.2062e-05
22330.0 8.2739e-05
22350.0 8.3276e-05
22370.0 8.3668e-05
22390.0 8.3937e-05
22410.0 8.4066e-05
22430.0 8.4036e-05
22450.0 8.3862e-05
22470.0 8.3528e-05
22490.0 8.3037e-05
22510.0 8.241e-05
22530.0 8.1603e-05
22550.0 8.0616e-05
22570.0 7.9515e-05
22590.0 7.8269e-05
22610.0 7.6835e-05
22630.0 7.5278e-05
22650.0 7.3663e-05
22670.0 7.1872e-05
22690.0 6.9954e-05
22710.0 6.801e-05
22730.0 6.5997e-05
22750.0 6.3806e-05
22770.0 6.1653e-05
22790.0 5.9539e-05
22810.0 5.736e-05
22830.0 5.5176e-05
22850.0 5.3122e-05
22870.0 5.1102e-05
22890.0 4.9087e-05
22910.0 4.7225e-05
22930.0 4.5516e-05
22950.0 4.3887e-05
