#lamb flux
1010.0 6.6388e-05
1030.0 8.8382e-05
1050.0 0.00011621
1070.0 0.00015068
1090.0 0.00019349
1110.0 0.00024264
1130.0 0.00029773
1150.0 0.00036038
1170.0 0.00043021
1190.0 0.00050288
1210.0 0.00058057
1230.0 0.00066303
1250.0 0.00074597
1270.0 0.00082685
1290.0 0.00090834
1310.0 0.0009852
1330.0 0.0010527
1350.0 0.001112
1370.0 0.0011626
1390.0 0.0011997
1410.0 0.0012225
1430.0 0.0012349
1450.0 0.0012344
1470.0 0.0012202
1490.0 0.0011959
1510.0 0.0011654
1530.0 0.0011251
1550.0 0.0010784
1570.0 0.0010287
1590.0 0.00097631
1610.0 0.00092141
1630.0 0.00086762
1650.0 0.00081555
1670.0 0.00076453
1690.0 0.00071583
1710.0 0.00067082
1730.0 0.00062901
1750.0 0.00058982
1770.0 0.0005545
1790.0 0.00052274
1810.0 0.00049373
1830.0 0.00046762
1850.0 0.00044499
1870.0 0.00042473
1890.0 0.00040666
1910.0 0.00039113
1930.0 0.00037798
1950.0 0.00036652
1970.0 0.00035698
1990.0 0.0003496
2010.0 0.00034395
2030.0 0.00033993
2050.0 0.00033795
2070.0 0.00033803
2090.0 0.00033974
2110.0 0.00034351
2130.0 0.00034968
2150.0 0.0003581
2170.0 0.00036879
2190.0 0.00038243
2210.0 0.00039904
2230.0 0.00041853
2250.0 0.00044132
2270.0 0.00046795
2290.0 0.00049809
2310.0 0.00053181
2330.0 0.00056975
2350.0 0.00061188
2370.0 0.00065778
2390.0 0.00070787
2410.0 0.00076247
2430.0 0.00082074
2450.0 0.00088254
2470.0 0.00094839
2490.0 0.0010183
2510.0 0.0010915
2530.0 0.0011703
2550.0 0.0012581
2570.0 0.0013582
2590.0 0.0014763
2610.0 0.0016282
2630.0 0.0018243
2650.0 0.0020685
2670.0 0.0023782
2690.0 0.0027686
2710.0 0.0032206
2730.0 0.0037202
2750.0 0.004281
2770.0 0.0048568
2790.0 0.0054031
2810.0 0.0059162
2830.0 0.0063871
2850.0 0.0067647
2870.0 0.0070736
2890.0 0.0073325
2910.0 0.0075426
2930.0 0.0077093
2950.0 0.0078554
2970.0 0.0079837
2990.0 0.0080892
3010.0 0.0081779
3030.0 0.0082577
3050.0 0.0083232
3070.0 0.0083658
3090.0 0.0083976
3110.0 0.008415
3130.0 0.008411
3150.0 0.0084154
3170.0 0.0084087
3190.0 0.0083957
3210.0 0.0083804
3230.0 0.0083652
3250.0 0.00831
3270.0 0.008191
3290.0 0.0081039
3310.0 0.0081202
3330.0 0.0081349
3350.0 0.0081178
3370.0 0.0080654
3390.0 0.0079809
3410.0 0.0078769
3430.0 0.0077647
3450.0 0.0077138
3470.0 0.0078201
3490.0 0.0077793
3510.0 0.0074241
3530.0 0.0074592
3550.0 0.007958
3570.0 0.0099765
3590.0 0.011408
3610.0 0.012507
3630.0 0.013852
3650.0 0.013478
3670.0 0.011803
3690.0 0.010355
3710.0 0.0099058
3730.0 0.010252
3750.0 0.010483
3770.0 0.010649
3790.0 0.010751
3810.0 0.010923
3830.0 0.010084
3850.0 0.0089372
3870.0 0.0084298
3890.0 0.0088619
3910.0 0.0091778
3930.0 0.0091936
3950.0 0.0095362
3970.0 0.010037
3990.0 0.010196
4010.0 0.010367
4030.0 0.010063
4050.0 0.0097979
4070.0 0.0096345
4090.0 0.0097125
4110.0 0.0097593
4130.0 0.0095686
4150.0 0.0092336
4170.0 0.0091328
4190.0 0.0090709
4210.0 0.0085353
4230.0 0.0078976
4250.0 0.0071284
4270.0 0.0063938
4290.0 0.0060834
4310.0 0.005913
4330.0 0.0061144
4350.0 0.0067258
4370.0 0.0071068
4390.0 0.0078194
4410.0 0.0084018
4430.0 0.0086294
4450.0 0.0081402
4470.0 0.007599
4490.0 0.007471
4510.0 0.0073865
4530.0 0.0073892
4550.0 0.0073622
4570.0 0.0074664
4590.0 0.0077096
4610.0 0.0078938
4630.0 0.0080704
4650.0 0.0081672
4670.0 0.0081142
4690.0 0.0076736
4710.0 0.0072754
4730.0 0.0069807
4750.0 0.0067762
4770.0 0.0065308
4790.0 0.006502
4810.0 0.0063906
4830.0 0.0066692
4850.0 0.0064613
4870.0 0.0067192
4890.0 0.0064122
4910.0 0.0060426
4930.0 0.0057386
4950.0 0.0051991
4970.0 0.0047212
4990.0 0.0044951
5010.0 0.0042173
5030.0 0.0042261
5050.0 0.0043008
5070.0 0.0045494
5090.0 0.0047219
5110.0 0.0049128
5130.0 0.0050242
5150.0 0.0050919
5170.0 0.0050436
5190.0 0.0050704
5210.0 0.0050489
5230.0 0.0049302
5250.0 0.0049934
5270.0 0.0052195
5290.0 0.0051541
5310.0 0.0049891
5330.0 0.0048094
5350.0 0.004571
5370.0 0.0044434
5390.0 0.0043005
5410.0 0.0043608
5430.0 0.0043303
5450.0 0.0042597
5470.0 0.0042371
5490.0 0.00451
5510.0 0.004639
5530.0 0.0045639
5550.0 0.0045957
5570.0 0.0046585
5590.0 0.0046968
5610.0 0.0045851
5630.0 0.0044972
5650.0 0.0043759
5670.0 0.0043786
5690.0 0.0042347
5710.0 0.0041974
5730.0 0.004161
5750.0 0.0040756
5770.0 0.0039883
5790.0 0.0038406
5810.0 0.0037104
5830.0 0.0037377
5850.0 0.0037641
5870.0 0.0037423
5890.0 0.0037543
5910.0 0.003835
5930.0 0.003898
5950.0 0.0038683
5970.0 0.0039378
5990.0 0.0039601
6010.0 0.0039452
6030.0 0.0038973
6050.0 0.0038029
6070.0 0.0038144
6090.0 0.0038565
6110.0 0.0037759
6130.0 0.0036674
6150.0 0.0035603
6170.0 0.0034171
6190.0 0.0031868
6210.0 0.0031634
6230.0 0.0031395
6250.0 0.0030984
6270.0 0.0031504
6290.0 0.0031976
6310.0 0.0032197
6330.0 0.0032553
6350.0 0.0032668
6370.0 0.0032427
6390.0 0.0031082
6410.0 0.0030661
6430.0 0.0030021
6450.0 0.0029343
6470.0 0.0028946
6490.0 0.002914
6510.0 0.0028676
6530.0 0.0028638
6550.0 0.0028209
6570.0 0.0027802
6590.0 0.002779
6610.0 0.0027457
6630.0 0.0027274
6650.0 0.0026876
6670.0 0.0026257
6690.0 0.0025198
6710.0 0.0024502
6730.0 0.002431
6750.0 0.0024363
6770.0 0.0024659
6790.0 0.002389
6810.0 0.0023832
6830.0 0.0023434
6850.0 0.0022974
6870.0 0.0022365
6890.0 0.0022035
6910.0 0.0022185
6930.0 0.0021603
6950.0 0.0021953
6970.0 0.0021654
6990.0 0.0021501
7010.0 0.0020864
7030.0 0.0020925
7050.0 0.0020797
7070.0 0.0019917
7090.0 0.0018867
7110.0 0.001883
7130.0 0.0019092
7150.0 0.0019108
7170.0 0.0019288
7190.0 0.0019274
7210.0 0.0020042
7230.0 0.0020257
7250.0 0.002074
7270.0 0.0020129
7290.0 0.0020494
7310.0 0.0020061
7330.0 0.0019922
7350.0 0.0019336
7370.0 0.0019199
7390.0 0.0019562
7410.0 0.0019004
7430.0 0.0019419
7450.0 0.0018855
7470.0 0.0019027
7490.0 0.0018151
7510.0 0.0017046
7530.0 0.0017599
7550.0 0.001649
7570.0 0.001703
7590.0 0.0016163
7610.0 0.0017104
7630.0 0.0016706
7650.0 0.0017283
7670.0 0.0016221
7690.0 0.0016417
7710.0 0.0016053
7730.0 0.0017118
7750.0 0.0016275
7770.0 0.001726
7790.0 0.0017646
7810.0 0.0017466
7830.0 0.0018634
7850.0 0.0017617
7870.0 0.0019084
7890.0 0.0018414
7910.0 0.0018166
7930.0 0.0017701
7950.0 0.001748
7970.0 0.0017831
7990.0 0.0017658
8010.0 0.0016917
8030.0 0.0016765
8050.0 0.001642
8070.0 0.0016153
8090.0 0.0015095
8110.0 0.0015173
8130.0 0.0015943
8150.0 0.001646
8170.0 0.0016512
8190.0 0.0016956
8210.0 0.001668
8230.0 0.0016213
8250.0 0.0016148
8270.0 0.0015838
8290.0 0.0015517
8310.0 0.0014769
8330.0 0.0014821
8350.0 0.0014957
8370.0 0.0015049
8390.0 0.0015106
8410.0 0.0014898
8430.0 0.0014785
8450.0 0.0014814
8470.0 0.001523
8490.0 0.001542
8510.0 0.001492
8530.0 0.0014345
8550.0 0.001435
8570.0 0.0014111
8590.0 0.0013761
8610.0 0.0014025
8630.0 0.0013924
8650.0 0.0013754
8670.0 0.0013652
8690.0 0.001353
8710.0 0.0012912
8730.0 0.0013025
8750.0 0.0012669
8770.0 0.0012703
8790.0 0.0012445
8810.0 0.0012179
8830.0 0.0012247
8850.0 0.0012114
8870.0 0.0011551
8890.0 0.0011236
8910.0 0.0010772
8930.0 0.0010135
8950.0 0.0009985
8970.0 0.00095601
8990.0 0.00094339
9010.0 0.00091912
9030.0 0.00091019
9050.0 0.00090425
9070.0 0.00089842
9090.0 0.00089253
9110.0 0.00088651
9130.0 0.0008805
9150.0 0.00087459
9170.0 0.00086863
9190.0 0.00086262
9210.0 0.00085657
9230.0 0.0008505
9250.0 0.00084441
9270.0 0.0008383
9290.0 0.00083217
9310.0 0.00082609
9330.0 0.00082008
9350.0 0.00081406
9370.0 0.00080803
9390.0 0.00080202
9410.0 0.000796
9430.0 0.00078999
9450.0 0.000784
9470.0 0.00077856
9490.0 0.00077284
9510.0 0.00076659
9530.0 0.00076043
9550.0 0.00075441
9570.0 0.00074846
9590.0 0.00074255
9610.0 0.00073674
9630.0 0.00073101
9650.0 0.0007253
9670.0 0.00071959
9690.0 0.00071395
9710.0 0.00070835
9730.0 0.00070277
9750.0 0.00069723
9770.0 0.00069177
9790.0 0.00068633
9810.0 0.00068091
9830.0 0.00067553
9850.0 0.00066968
9870.0 0.00066395
9890.0 0.00065918
9910.0 0.00065432
9930.0 0.00064843
9950.0 0.00064336
9970.0 0.00063878
9990.0 0.00063408
10010.0 0.00062942
10030.0 0.00062469
10050.0 0.00061992
10070.0 0.00061522
10090.0 0.00061059
10110.0 0.00060593
10130.0 0.00060132
10150.0 0.00059685
10170.0 0.00059241
10190.0 0.00058797
10210.0 0.00058365
10230.0 0.00057942
10250.0 0.00057518
10270.0 0.000571
10290.0 0.00056694
10310.0 0.00056289
10330.0 0.00055885
10350.0 0.00055493
10370.0 0.00055108
10390.0 0.00054722
10410.0 0.00054324
10430.0 0.00053932
10450.0 0.00053589
10470.0 0.00053237
10490.0 0.00052893
10510.0 0.00052553
10530.0 0.00052205
10550.0 0.00051867
10570.0 0.00051541
10590.0 0.00051214
10610.0 0.00050889
10630.0 0.00050577
10650.0 0.0005027
10670.0 0.00049959
10690.0 0.00049657
10710.0 0.00049366
10730.0 0.00049073
10750.0 0.0004878
10770.0 0.00048504
10790.0 0.00048231
10810.0 0.00047956
10830.0 0.00047689
10850.0 0.00047433
10870.0 0.00047171
10890.0 0.00046914
10910.0 0.00046669
10930.0 0.00046427
10950.0 0.00046183
10970.0 0.00045948
10990.0 0.00045723
11010.0 0.00049734
11030.0 0.00049444
11050.0 0.00049137
11070.0 0.0004881
11090.0 0.00048453
11110.0 0.00048097
11130.0 0.00047736
11150.0 0.00047361
11170.0 0.00046981
11190.0 0.00046612
11210.0 0.00046236
11230.0 0.00045853
11250.0 0.00045482
11270.0 0.00045123
11290.0 0.00044759
11310.0 0.00044407
11330.0 0.00044084
11350.0 0.0004377
11370.0 0.00043467
11390.0 0.00043189
11410.0 0.0004293
11430.0 0.00042675
11450.0 0.00042439
11470.0 0.00042221
11490.0 0.00042008
11510.0 0.00041797
11530.0 0.000416
11550.0 0.00041408
11570.0 0.00041209
11590.0 0.00041012
11610.0 0.0004082
11630.0 0.00040619
11650.0 0.00040409
11670.0 0.00040205
11690.0 0.00039999
11710.0 0.0003978
11730.0 0.00039562
11750.0 0.0003935
11770.0 0.00039128
11790.0 0.00038901
11810.0 0.00038682
11830.0 0.00038465
11850.0 0.00038238
11870.0 0.00038023
11890.0 0.00037823
11910.0 0.00037624
11930.0 0.00037433
11950.0 0.00037264
11970.0 0.00037108
11990.0 0.00036958
12010.0 0.00036833
12030.0 0.0003673
12050.0 0.00036641
12070.0 0.0003657
12090.0 0.00036528
12110.0 0.00036503
12130.0 0.00036495
12150.0 0.00036506
12170.0 0.00036534
12190.0 0.00036573
12210.0 0.00036623
12230.0 0.00036682
12250.0 0.00036746
12270.0 0.00036809
12290.0 0.0003687
12310.0 0.00036927
12330.0 0.00036974
12350.0 0.00037008
12370.0 0.00037031
12390.0 0.00037038
12410.0 0.00037022
12430.0 0.00036992
12450.0 0.00036945
12470.0 0.00036873
12490.0 0.00036781
12510.0 0.00036679
12530.0 0.00036552
12550.0 0.00036401
12570.0 0.0003624
12590.0 0.00036066
12610.0 0.00035866
12630.0 0.00035651
12650.0 0.00035442
12670.0 0.00035214
12690.0 0.00034972
12710.0 0.00034735
12730.0 0.00034498
12750.0 0.0003424
12770.0 0.00033991
12790.0 0.00033755
12810.0 0.00033514
12830.0 0.00033272
12850.0 0.00033052
12870.0 0.00032844
12890.0 0.00032636
12910.0 0.00032445
12930.0 0.00032278
12950.0 0.00032117
12970.0 0.00031971
12990.0 0.00031856
13010.0 0.0003176
13030.0 0.0003168
13050.0 0.00031623
13070.0 0.00031592
13090.0 0.00031574
13110.0 0.00031574
13130.0 0.00031592
13150.0 0.0003162
13170.0 0.00031656
13190.0 0.00031699
13210.0 0.00031745
13230.0 0.00031789
13250.0 0.00031829
13270.0 0.00031864
13290.0 0.00031891
13310.0 0.00031906
13330.0 0.0003191
13350.0 0.00031903
13370.0 0.00031879
13390.0 0.00031836
13410.0 0.00031783
13430.0 0.00031711
13450.0 0.00031617
13470.0 0.00031508
13490.0 0.00031387
13510.0 0.00031238
13530.0 0.00031074
13550.0 0.00030903
13570.0 0.00030716
13590.0 0.00030509
13610.0 0.00030299
13630.0 0.00030087
13650.0 0.00029854
13670.0 0.00029615
13690.0 0.00029378
13710.0 0.0002913
13730.0 0.00028862
13750.0 0.00028604
13770.0 0.00028344
13790.0 0.0002807
13810.0 0.00027793
13830.0 0.00027526
13850.0 0.00027248
13870.0 0.00026964
13890.0 0.00026691
13910.0 0.00026422
13930.0 0.00026145
13950.0 0.00025873
13970.0 0.00025621
13990.0 0.00025367
14010.0 0.00025115
14030.0 0.00024879
14050.0 0.00024652
14070.0 0.0002442
14090.0 0.00024202
14110.0 0.00023998
14130.0 0.00023795
14150.0 0.00023595
14170.0 0.00023409
14190.0 0.00023227
14210.0 0.00023044
14230.0 0.00022868
14250.0 0.00022698
14270.0 0.00022526
14290.0 0.00022353
14310.0 0.00022191
14330.0 0.0002203
14350.0 0.00021867
14370.0 0.0002171
14390.0 0.0002156
14410.0 0.00021409
14430.0 0.0002126
14450.0 0.00021119
14470.0 0.0002098
14490.0 0.00020838
14510.0 0.00020703
14530.0 0.00020571
14550.0 0.00020437
14570.0 0.00020302
14590.0 0.0002017
14610.0 0.00020036
14630.0 0.00019897
14650.0 0.00019759
14670.0 0.0001962
14690.0 0.00019477
14710.0 0.0001933
14730.0 0.00019187
14750.0 0.00019039
14770.0 0.00018887
14790.0 0.00018734
14810.0 0.00018582
14830.0 0.00018421
14850.0 0.00018258
14870.0 0.00018098
14890.0 0.00017934
14910.0 0.00017766
14930.0 0.00017604
14950.0 0.00017446
14970.0 0.0001729
14990.0 0.00017142
15010.0 0.00017005
15030.0 0.00016874
15050.0 0.00016748
15070.0 0.00016632
15090.0 0.00016521
15110.0 0.0001641
15130.0 0.00016302
15150.0 0.00016196
15170.0 0.00016089
15190.0 0.00015982
15210.0 0.00015875
15230.0 0.00015769
15250.0 0.00015661
15270.0 0.00015553
15290.0 0.00015447
15310.0 0.00015339
15330.0 0.00015231
15350.0 0.00015124
15370.0 0.00015017
15390.0 0.00014908
15410.0 0.00014801
15430.0 0.00014694
15450.0 0.00014587
15470.0 0.00014478
15490.0 0.00014372
15510.0 0.00014266
15530.0 0.00014158
15550.0 0.00014052
15570.0 0.00013946
15590.0 0.0001384
15610.0 0.00013733
15630.0 0.00013628
15650.0 0.00013523
15670.0 0.00013417
15690.0 0.00013313
15710.0 0.0001321
15730.0 0.00013105
15750.0 0.00013001
15770.0 0.00012899
15790.0 0.00012796
15810.0 0.00012693
15830.0 0.00012591
15850.0 0.00012491
15870.0 0.0001239
15890.0 0.00012289
15910.0 0.0001219
15930.0 0.00012091
15950.0 0.00011991
15970.0 0.00011893
15990.0 0.00011796
16010.0 0.00011699
16030.0 0.00011601
16050.0 0.00011507
16070.0 0.00011412
16090.0 0.00011316
16110.0 0.00011223
16130.0 0.0001113
16150.0 0.00011036
16170.0 0.00010944
16190.0 0.00010853
16210.0 0.00010762
16230.0 0.00010671
16250.0 0.00010582
16270.0 0.00010494
16290.0 0.00010405
16310.0 0.00010318
16330.0 0.00010231
16350.0 0.00010145
16370.0 0.00010059
16390.0 9.9746e-05
16410.0 9.8912e-05
16430.0 9.8075e-05
16450.0 9.7248e-05
16470.0 9.6439e-05
16490.0 9.5626e-05
16510.0 9.4815e-05
16530.0 9.4022e-05
16550.0 9.3237e-05
16570.0 9.2447e-05
16590.0 9.1668e-05
16610.0 9.0909e-05
16630.0 9.0148e-05
16650.0 8.939e-05
16670.0 8.8649e-05
16690.0 8.7915e-05
16710.0 8.7173e-05
16730.0 8.6448e-05
16750.0 8.5737e-05
16770.0 8.5024e-05
16790.0 8.4315e-05
16810.0 8.3625e-05
16830.0 8.294e-05
16850.0 8.2253e-05
16870.0 8.1579e-05
16890.0 8.0918e-05
16910.0 8.0253e-05
16930.0 7.9592e-05
16950.0 7.8951e-05
16970.0 7.8313e-05
16990.0 7.7675e-05
17010.0 7.705e-05
17030.0 7.6439e-05
17050.0 7.5822e-05
17070.0 7.5213e-05
17090.0 7.4619e-05
17110.0 7.4028e-05
17130.0 7.3433e-05
17150.0 7.2856e-05
17170.0 7.2289e-05
17190.0 7.172e-05
17210.0 7.1158e-05
17230.0 7.0612e-05
17250.0 7.0065e-05
17270.0 6.9518e-05
17290.0 6.8985e-05
17310.0 6.8461e-05
17330.0 6.7935e-05
17350.0 6.7415e-05
17370.0 6.6912e-05
17390.0 6.641e-05
17410.0 6.5908e-05
17430.0 6.5418e-05
17450.0 6.4938e-05
17470.0 6.445e-05
17490.0 6.3973e-05
17510.0 6.351e-05
17530.0 6.3047e-05
17550.0 6.2584e-05
17570.0 6.2136e-05
17590.0 6.1695e-05
17610.0 6.125e-05
17630.0 6.0813e-05
17650.0 6.0388e-05
17670.0 5.9963e-05
17690.0 5.9534e-05
17710.0 5.9124e-05
17730.0 5.8719e-05
17750.0 5.8311e-05
17770.0 5.7911e-05
17790.0 5.7524e-05
17810.0 5.7132e-05
17830.0 5.6743e-05
17850.0 5.6367e-05
17870.0 5.5995e-05
17890.0 5.5619e-05
17910.0 5.5252e-05
17930.0 5.4898e-05
17950.0 5.4541e-05
17970.0 5.4186e-05
17990.0 5.3843e-05
18010.0 5.3503e-05
18030.0 5.3157e-05
18050.0 5.2823e-05
18070.0 5.2498e-05
18090.0 5.217e-05
18110.0 5.1844e-05
18130.0 5.1532e-05
18150.0 5.1221e-05
18170.0 5.0908e-05
18190.0 5.0603e-05
18210.0 5.0306e-05
18230.0 5.0005e-05
18250.0 4.9706e-05
18270.0 4.942e-05
18290.0 4.9136e-05
18310.0 4.8849e-05
18330.0 4.8571e-05
18350.0 4.8302e-05
18370.0 4.8026e-05
18390.0 4.7755e-05
18410.0 4.7494e-05
18430.0 4.7234e-05
18450.0 4.6968e-05
18470.0 4.6715e-05
18490.0 4.6468e-05
18510.0 4.6217e-05
18530.0 4.5971e-05
18550.0 4.5734e-05
18570.0 4.5495e-05
18590.0 4.5253e-05
18610.0 4.5022e-05
18630.0 4.4795e-05
18650.0 4.4565e-05
18670.0 4.4337e-05
18690.0 4.4122e-05
18710.0 4.3904e-05
18730.0 4.3685e-05
18750.0 4.3474e-05
18770.0 4.3269e-05
18790.0 4.3054e-05
18810.0 4.2847e-05
18830.0 4.2649e-05
18850.0 4.2449e-05
18870.0 4.2247e-05
18890.0 4.2056e-05
18910.0 4.1867e-05
18930.0 4.1673e-05
18950.0 4.1484e-05
18970.0 4.1303e-05
18990.0 4.1119e-05
19010.0 4.093e-05
19030.0 4.0755e-05
19050.0 4.0582e-05
19070.0 4.0404e-05
19090.0 4.0231e-05
19110.0 4.0067e-05
19130.0 3.9896e-05
19150.0 3.9725e-05
19170.0 3.9564e-05
19190.0 3.9403e-05
19210.0 3.9237e-05
19230.0 3.9077e-05
19250.0 3.8926e-05
19270.0 3.877e-05
19290.0 3.8614e-05
19310.0 3.8466e-05
19330.0 3.8319e-05
19350.0 3.8163e-05
19370.0 3.8016e-05
19390.0 3.7875e-05
19410.0 3.773e-05
19430.0 3.7584e-05
19450.0 3.7448e-05
19470.0 3.7311e-05
19490.0 3.7169e-05
19510.0 3.7034e-05
19530.0 3.6904e-05
19550.0 3.6766e-05
19570.0 3.6629e-05
19590.0 3.6503e-05
19610.0 3.6374e-05
19630.0 3.6242e-05
19650.0 3.6116e-05
19670.0 3.5996e-05
19690.0 3.5867e-05
19710.0 3.574e-05
19730.0 3.5622e-05
19750.0 3.55e-05
19770.0 3.5372e-05
19790.0 3.5255e-05
19810.0 3.5141e-05
19830.0 3.502e-05
19850.0 3.4903e-05
19870.0 3.4794e-05
19890.0 3.4681e-05
19910.0 3.4568e-05
19930.0 3.4468e-05
19950.0 3.438e-05
19970.0 3.4298e-05
19990.0 3.4235e-05
20010.0 3.4198e-05
20030.0 3.4176e-05
20050.0 3.4175e-05
20070.0 3.4196e-05
20090.0 3.4234e-05
20110.0 3.4284e-05
20130.0 3.4347e-05
20150.0 3.442e-05
20170.0 3.45e-05
20190.0 3.4585e-05
20210.0 3.4676e-05
20230.0 3.4771e-05
20250.0 3.4867e-05
20270.0 3.4966e-05
20290.0 3.5067e-05
20310.0 3.5168e-05
20330.0 3.5267e-05
20350.0 3.5368e-05
20370.0 3.5467e-05
20390.0 3.5564e-05
20410.0 3.5659e-05
20430.0 3.5755e-05
20450.0 3.5848e-05
20470.0 3.5939e-05
20490.0 3.6032e-05
20510.0 3.6126e-05
20530.0 3.6218e-05
20550.0 3.6314e-05
20570.0 3.6414e-05
20590.0 3.6515e-05
20610.0 3.6619e-05
20630.0 3.6729e-05
20650.0 3.6841e-05
20670.0 3.6955e-05
20690.0 3.7073e-05
20710.0 3.7193e-05
20730.0 3.7314e-05
20750.0 3.7434e-05
20770.0 3.7555e-05
20790.0 3.7674e-05
20810.0 3.7787e-05
20830.0 3.7898e-05
20850.0 3.8005e-05
20870.0 3.8103e-05
20890.0 3.8194e-05
20910.0 3.8283e-05
20930.0 3.8364e-05
20950.0 3.8436e-05
20970.0 3.8506e-05
20990.0 3.8573e-05
21010.0 3.863e-05
21030.0 3.8685e-05
21050.0 3.8742e-05
21070.0 3.8795e-05
21090.0 3.8843e-05
21110.0 3.8897e-05
21130.0 3.8953e-05
21150.0 3.9005e-05
21170.0 3.9058e-05
21190.0 3.9118e-05
21210.0 3.9172e-05
21230.0 3.9222e-05
21250.0 3.9278e-05
21270.0 3.9333e-05
21290.0 3.9379e-05
21310.0 3.9424e-05
21330.0 3.9472e-05
21350.0 3.951e-05
21370.0 3.9539e-05
21390.0 3.957e-05
21410.0 3.9596e-05
21430.0 3.9603e-05
21450.0 3.9612e-05
21470.0 3.9621e-05
21490.0 3.9618e-05
21510.0 3.9607e-05
21530.0 3.9599e-05
21550.0 3.9586e-05
21570.0 3.9558e-05
21590.0 3.9533e-05
21610.0 3.9509e-05
21630.0 3.9475e-05
21650.0 3.9429e-05
21670.0 3.9398e-05
21690.0 3.9361e-05
21710.0 3.9313e-05
21730.0 3.9269e-05
21750.0 3.9231e-05
21770.0 3.9175e-05
21790.0 3.9117e-05
21810.0 3.9068e-05
21830.0 3.9013e-05
21850.0 3.8946e-05
21870.0 3.8884e-05
21890.0 3.8831e-05
21910.0 3.8763e-05
21930.0 3.8695e-05
21950.0 3.8637e-05
21970.0 3.8575e-05
21990.0 3.85e-05
22010.0 3.8443e-05
22030.0 3.8393e-05
22050.0 3.8339e-05
22070.0 3.829e-05
22090.0 3.826e-05
22110.0 3.8232e-05
22130.0 3.8205e-05
22150.0 3.8195e-05
22170.0 3.8198e-05
22190.0 3.8199e-05
22210.0 3.8212e-05
22230.0 3.8246e-05
22250.0 3.8283e-05
22270.0 3.8324e-05
22290.0 3.838e-05
22310.0 3.8444e-05
22330.0 3.8506e-05
22350.0 3.8576e-05
22370.0 3.8656e-05
22390.0 3.8736e-05
22410.0 3.8813e-05
22430.0 3.8901e-05
22450.0 3.8993e-05
22470.0 3.9079e-05
22490.0 3.9169e-05
22510.0 3.9267e-05
22530.0 3.9359e-05
22550.0 3.9449e-05
22570.0 3.9549e-05
22590.0 3.965e-05
22610.0 3.9749e-05
22630.0 3.9852e-05
22650.0 3.9966e-05
22670.0 4.0077e-05
22690.0 4.0189e-05
22710.0 4.0312e-05
22730.0 4.0439e-05
22750.0 4.0563e-05
22770.0 4.0698e-05
22790.0 4.0843e-05
22810.0 4.099e-05
22830.0 4.1142e-05
22850.0 4.1308e-05
22870.0 4.148e-05
22890.0 4.1657e-05
22910.0 4.1846e-05
22930.0 4.2047e-05
22950.0 4.2255e-05
22970.0 4.2473e-05
22990.0 4.2708e-05
