#lamb flux
1010.0 2.3606e-05
1030.0 2.4817e-05
1050.0 2.6214e-05
1070.0 2.7786e-05
1090.0 2.9573e-05
1110.0 3.1408e-05
1130.0 3.3256e-05
1150.0 3.5195e-05
1170.0 3.7197e-05
1190.0 3.9099e-05
1210.0 4.103e-05
1230.0 4.3028e-05
1250.0 4.499e-05
1270.0 4.69e-05
1290.0 4.8921e-05
1310.0 5.0945e-05
1330.0 5.2892e-05
1350.0 5.4866e-05
1370.0 5.6908e-05
1390.0 5.8905e-05
1410.0 6.085e-05
1430.0 6.2887e-05
1450.0 6.4929e-05
1470.0 6.6911e-05
1490.0 6.892e-05
1510.0 7.1044e-05
1530.0 7.3065e-05
1550.0 7.5066e-05
1570.0 7.7138e-05
1590.0 7.9216e-05
1610.0 8.1209e-05
1630.0 8.3265e-05
1650.0 8.5375e-05
1670.0 8.7421e-05
1690.0 8.9443e-05
1710.0 9.154e-05
1730.0 9.3648e-05
1750.0 9.5634e-05
1770.0 9.7674e-05
1790.0 9.9751e-05
1810.0 0.00010176
1830.0 0.00010373
1850.0 0.00010582
1870.0 0.00010785
1890.0 0.0001098
1910.0 0.0001118
1930.0 0.00011383
1950.0 0.00011577
1970.0 0.00011769
1990.0 0.00011968
2010.0 0.00012164
2030.0 0.00012353
2050.0 0.00012549
2070.0 0.0001275
2090.0 0.00012942
2110.0 0.00013134
2130.0 0.00013334
2150.0 0.00013533
2170.0 0.00013726
2190.0 0.0001393
2210.0 0.00014138
2230.0 0.00014343
2250.0 0.00014552
2270.0 0.00014775
2290.0 0.00014997
2310.0 0.00015217
2330.0 0.00015451
2350.0 0.00015693
2370.0 0.00015935
2390.0 0.00016188
2410.0 0.00016459
2430.0 0.00016731
2450.0 0.00017005
2470.0 0.00017285
2490.0 0.00017562
2510.0 0.00017821
2530.0 0.00018087
2550.0 0.00018402
2570.0 0.00018833
2590.0 0.00019477
2610.0 0.00020537
2630.0 0.0002214
2650.0 0.00024284
2670.0 0.0002705
2690.0 0.00030432
2710.0 0.00034075
2730.0 0.00037776
2750.0 0.00041601
2770.0 0.00045263
2790.0 0.00048641
2810.0 0.00051912
2830.0 0.00055231
2850.0 0.00058392
2870.0 0.00061578
2890.0 0.00064937
2910.0 0.00068392
2930.0 0.00071825
2950.0 0.00075446
2970.0 0.00079218
2990.0 0.00082975
3010.0 0.0016511
3030.0 0.0017267
3050.0 0.001803
3070.0 0.0018752
3090.0 0.0019458
3110.0 0.0020083
3130.0 0.0020532
3150.0 0.0020718
3170.0 0.0020485
3190.0 0.0019736
3210.0 0.001846
3230.0 0.0016907
3250.0 0.0016926
3270.0 0.0012581
3290.0 0.0014125
3310.0 0.0010148
3330.0 0.0010921
3350.0 0.0012301
3370.0 0.0013755
3390.0 0.0015244
3410.0 0.0016726
3430.0 0.0018238
3450.0 0.001974
3470.0 0.0021164
3490.0 0.0022197
3510.0 0.0024086
3530.0 0.0028154
3550.0 0.0032069
3570.0 0.0035942
3590.0 0.0044123
3610.0 0.0042881
3630.0 0.0046338
3650.0 0.0045506
3670.0 0.0049496
3690.0 0.0054053
3710.0 0.0057192
3730.0 0.0065986
3750.0 0.0068752
3770.0 0.006964
3790.0 0.0066241
3810.0 0.0058406
3830.0 0.0053694
3850.0 0.0047214
3870.0 0.0051459
3890.0 0.005855
3910.0 0.0069038
3930.0 0.0080101
3950.0 0.0087036
3970.0 0.0099022
3990.0 0.010188
4010.0 0.0099052
4030.0 0.010063
4050.0 0.0092346
4070.0 0.0088399
4090.0 0.0086057
4110.0 0.0082108
4130.0 0.0088596
4150.0 0.0085408
4170.0 0.0085291
4190.0 0.0083629
4210.0 0.0089651
4230.0 0.0085943
4250.0 0.0092672
4270.0 0.0092421
4290.0 0.0092844
4310.0 0.0099097
4330.0 0.010553
4350.0 0.010629
4370.0 0.01041
4390.0 0.0099161
4410.0 0.0087755
4430.0 0.0073092
4450.0 0.0067447
4470.0 0.0069445
4490.0 0.0069398
4510.0 0.0078558
4530.0 0.0086174
4550.0 0.010169
4570.0 0.013168
4590.0 0.016098
4610.0 0.017615
4630.0 0.020208
4650.0 0.022103
4670.0 0.022255
4690.0 0.020301
4710.0 0.018854
4730.0 0.016746
4750.0 0.013732
4770.0 0.0116
4790.0 0.010336
4810.0 0.01128
4830.0 0.012531
4850.0 0.014072
4870.0 0.013444
4890.0 0.015386
4910.0 0.016071
4930.0 0.017532
4950.0 0.020556
4970.0 0.021857
4990.0 0.023024
5010.0 0.021302
5030.0 0.017882
5050.0 0.014583
5070.0 0.011578
5090.0 0.010427
5110.0 0.010243
5130.0 0.010072
5150.0 0.010545
5170.0 0.010196
5190.0 0.010755
5210.0 0.010938
5230.0 0.011733
5250.0 0.013713
5270.0 0.014866
5290.0 0.016104
5310.0 0.018092
5330.0 0.019535
5350.0 0.019952
5370.0 0.019933
5390.0 0.019468
5410.0 0.019062
5430.0 0.019267
5450.0 0.021524
5470.0 0.025182
5490.0 0.028712
5510.0 0.031984
5530.0 0.032721
5550.0 0.03231
5570.0 0.031381
5590.0 0.030511
5610.0 0.03008
5630.0 0.03001
5650.0 0.030063
5670.0 0.029578
5690.0 0.027455
5710.0 0.024996
5730.0 0.022252
5750.0 0.020744
5770.0 0.019549
5790.0 0.019876
5810.0 0.020835
5830.0 0.021471
5850.0 0.02072
5870.0 0.019601
5890.0 0.019133
5910.0 0.018487
5930.0 0.018004
5950.0 0.017469
5970.0 0.016667
5990.0 0.014636
6010.0 0.012677
6030.0 0.011582
6050.0 0.011204
6070.0 0.010942
6090.0 0.01093
6110.0 0.011153
6130.0 0.011257
6150.0 0.011931
6170.0 0.013204
6190.0 0.014548
6210.0 0.015266
6230.0 0.015473
6250.0 0.014231
6270.0 0.012569
6290.0 0.010802
6310.0 0.0094433
6330.0 0.0087268
6350.0 0.0084785
6370.0 0.0089022
6390.0 0.0099808
6410.0 0.011728
6430.0 0.013996
6450.0 0.015898
6470.0 0.017337
6490.0 0.018572
6510.0 0.01908
6530.0 0.018943
6550.0 0.019032
6570.0 0.019234
6590.0 0.018994
6610.0 0.019186
6630.0 0.018839
6650.0 0.018242
6670.0 0.017187
6690.0 0.015727
6710.0 0.015097
6730.0 0.014287
6750.0 0.014281
6770.0 0.014668
6790.0 0.015178
6810.0 0.015452
6830.0 0.01516
6850.0 0.014541
6870.0 0.014086
6890.0 0.013422
6910.0 0.012789
6930.0 0.013109
6950.0 0.013276
6970.0 0.013813
6990.0 0.014354
7010.0 0.014229
7030.0 0.013391
7050.0 0.011983
7070.0 0.010654
7090.0 0.0094392
7110.0 0.0087862
7130.0 0.0084415
7150.0 0.0082172
7170.0 0.0085007
7190.0 0.0086879
7210.0 0.0091595
7230.0 0.010163
7250.0 0.010883
7270.0 0.011143
7290.0 0.010997
7310.0 0.010496
7330.0 0.0098445
7350.0 0.009506
7370.0 0.0095677
7390.0 0.010069
7410.0 0.011127
7430.0 0.012419
7450.0 0.014016
7470.0 0.015226
7490.0 0.015813
7510.0 0.01523
7530.0 0.014007
7550.0 0.012278
7570.0 0.010492
7590.0 0.0097546
7610.0 0.0098361
7630.0 0.010535
7650.0 0.011989
7670.0 0.01342
7690.0 0.014729
7710.0 0.015928
7730.0 0.016902
7750.0 0.017729
7770.0 0.018138
7790.0 0.018792
7810.0 0.019245
7830.0 0.019229
7850.0 0.019348
7870.0 0.018714
7890.0 0.018184
7910.0 0.017193
7930.0 0.016788
7950.0 0.016207
7970.0 0.01637
7990.0 0.016256
8010.0 0.016034
8030.0 0.016098
8050.0 0.016646
8070.0 0.016365
8090.0 0.016416
8110.0 0.015863
8130.0 0.015818
8150.0 0.015362
8170.0 0.014962
8190.0 0.014794
8210.0 0.014935
8230.0 0.013868
8250.0 0.012931
8270.0 0.011308
8290.0 0.0091908
8310.0 0.0073164
8330.0 0.0056931
8350.0 0.0049714
8370.0 0.0054807
8390.0 0.0061691
8410.0 0.0067914
8430.0 0.0077377
8450.0 0.0081994
8470.0 0.0086053
8490.0 0.0096294
8510.0 0.010675
8530.0 0.01241
8550.0 0.014643
8570.0 0.016614
8590.0 0.018191
8610.0 0.019669
8630.0 0.020916
8650.0 0.02117
8670.0 0.021293
8690.0 0.022041
8710.0 0.022298
8730.0 0.022626
8750.0 0.022047
8770.0 0.022125
8790.0 0.02184
8810.0 0.020337
8830.0 0.019963
8850.0 0.018889
8870.0 0.018133
8890.0 0.017188
8910.0 0.017806
8930.0 0.016691
8950.0 0.016188
8970.0 0.016032
8990.0 0.015635
9010.0 0.015506
9030.0 0.015057
9050.0 0.014969
9070.0 0.014932
9090.0 0.014895
9110.0 0.014861
9130.0 0.014821
9150.0 0.014779
9170.0 0.014714
9190.0 0.014616
9210.0 0.014708
9230.0 0.014631
9250.0 0.014571
9270.0 0.014513
9290.0 0.014457
9310.0 0.014403
9330.0 0.014349
9350.0 0.014295
9370.0 0.01424
9390.0 0.014185
9410.0 0.014128
9430.0 0.014071
9450.0 0.014009
9470.0 0.013948
9490.0 0.013893
9510.0 0.013835
9530.0 0.013776
9550.0 0.013716
9570.0 0.013655
9590.0 0.013594
9610.0 0.013532
9630.0 0.01347
9650.0 0.013408
9670.0 0.013345
9690.0 0.013282
9710.0 0.01322
9730.0 0.013157
9750.0 0.013093
9770.0 0.01303
9790.0 0.012967
9810.0 0.012904
9830.0 0.012841
9850.0 0.012778
9870.0 0.012715
9890.0 0.012652
9910.0 0.012589
9930.0 0.012525
9950.0 0.012396
9970.0 0.012353
9990.0 0.012307
10010.0 0.01226
10030.0 0.012207
10050.0 0.012148
10070.0 0.012085
10090.0 0.012029
10110.0 0.01197
10130.0 0.011912
10150.0 0.011855
10170.0 0.011795
10190.0 0.011733
10210.0 0.011675
10230.0 0.011618
10250.0 0.011558
10270.0 0.0115
10290.0 0.011444
10310.0 0.011387
10330.0 0.011327
10350.0 0.011271
10370.0 0.011216
10390.0 0.011158
10410.0 0.011101
10430.0 0.011048
10450.0 0.010993
10470.0 0.010936
10490.0 0.010883
10510.0 0.010829
10530.0 0.010772
10550.0 0.010718
10570.0 0.010666
10590.0 0.010612
10610.0 0.010557
10630.0 0.010505
10650.0 0.010453
10670.0 0.010398
10690.0 0.010345
10710.0 0.010294
10730.0 0.010241
10750.0 0.010186
10770.0 0.010136
10790.0 0.010085
10810.0 0.010031
10830.0 0.0099788
10850.0 0.0099288
10870.0 0.0098734
10890.0 0.0098164
10910.0 0.0097594
10930.0 0.0096964
10950.0 0.009622
10970.0 0.0095389
10990.0 0.0094472
11010.0 0.0087385
11030.0 0.0086245
11050.0 0.008507
11070.0 0.0083811
11090.0 0.0082412
11110.0 0.0081072
11130.0 0.0079747
11150.0 0.0078371
11170.0 0.0077
11190.0 0.0075718
11210.0 0.0074413
11230.0 0.0073083
11250.0 0.0071828
11270.0 0.0070625
11290.0 0.0069396
11310.0 0.006821
11330.0 0.0067153
11350.0 0.0066114
11370.0 0.0065103
11390.0 0.0064188
11410.0 0.0063339
11430.0 0.0062471
11450.0 0.006166
11470.0 0.0060905
11490.0 0.0060138
11510.0 0.0059333
11530.0 0.0058558
11550.0 0.0057765
11570.0 0.0056888
11590.0 0.0055976
11610.0 0.0055054
11630.0 0.0054033
11650.0 0.0052925
11670.0 0.0051834
11690.0 0.0050708
11710.0 0.0049506
11730.0 0.0048306
11750.0 0.0047165
11770.0 0.0045984
11790.0 0.0044811
11810.0 0.0043723
11830.0 0.0042684
11850.0 0.0041635
11870.0 0.0040686
11890.0 0.0039835
11910.0 0.0039011
11930.0 0.0038234
11950.0 0.0037551
11970.0 0.0036909
11990.0 0.0036277
12010.0 0.0035709
12030.0 0.0035193
12050.0 0.0034687
12070.0 0.0034197
12090.0 0.0033776
12110.0 0.0033372
12130.0 0.0032982
12150.0 0.0032636
12170.0 0.003234
12190.0 0.0032057
12210.0 0.0031829
12230.0 0.0031671
12250.0 0.0031571
12270.0 0.0031537
12290.0 0.0031591
12310.0 0.0031731
12330.0 0.0031961
12350.0 0.0032289
12370.0 0.0032702
12390.0 0.0033207
12410.0 0.0033819
12430.0 0.0034484
12450.0 0.0035201
12470.0 0.0035983
12490.0 0.0036797
12510.0 0.0037596
12530.0 0.0038413
12550.0 0.0039228
12570.0 0.0039991
12590.0 0.0040706
12610.0 0.0041389
12630.0 0.0042006
12650.0 0.0042536
12670.0 0.0043006
12690.0 0.0043407
12710.0 0.0043729
12730.0 0.004398
12750.0 0.0044162
12770.0 0.0044272
12790.0 0.0044322
12810.0 0.0044308
12830.0 0.0044229
12850.0 0.0044109
12870.0 0.0043945
12890.0 0.0043723
12910.0 0.0043466
12930.0 0.0043189
12950.0 0.0042861
12970.0 0.004249
12990.0 0.0042116
13010.0 0.0041714
13030.0 0.0041268
13050.0 0.0040805
13070.0 0.0040342
13090.0 0.0039834
13110.0 0.0039304
13130.0 0.0038783
13150.0 0.0038258
13170.0 0.0037704
13190.0 0.0037188
13210.0 0.0036716
13230.0 0.0036265
13250.0 0.003586
13270.0 0.0035535
13290.0 0.0035272
13310.0 0.0035075
13330.0 0.0034965
13350.0 0.0034933
13370.0 0.0034968
13390.0 0.0035065
13410.0 0.0035203
13430.0 0.0035366
13450.0 0.0035537
13470.0 0.0035689
13490.0 0.0035805
13510.0 0.0035869
13530.0 0.0035861
13550.0 0.0035777
13570.0 0.003561
13590.0 0.0035349
13610.0 0.0035019
13630.0 0.0034633
13650.0 0.0034172
13670.0 0.0033669
13690.0 0.0033156
13710.0 0.003262
13730.0 0.0032057
13750.0 0.0031538
13770.0 0.0031042
13790.0 0.0030556
13810.0 0.0030104
13830.0 0.0029702
13850.0 0.0029318
13870.0 0.0028959
13890.0 0.0028642
13910.0 0.0028352
13930.0 0.0028075
13950.0 0.0027821
13970.0 0.0027597
13990.0 0.0027383
14010.0 0.0027182
14030.0 0.0027
14050.0 0.0026832
14070.0 0.002667
14090.0 0.0026525
14110.0 0.0026393
14130.0 0.0026271
14150.0 0.0026157
14170.0 0.0026057
14190.0 0.0025966
14210.0 0.0025883
14230.0 0.002581
14250.0 0.0025749
14270.0 0.0025697
14290.0 0.0025658
14310.0 0.0025631
14330.0 0.0025615
14350.0 0.0025612
14370.0 0.0025619
14390.0 0.0025632
14410.0 0.0025654
14430.0 0.002568
14450.0 0.0025702
14470.0 0.0025722
14490.0 0.0025739
14510.0 0.0025745
14530.0 0.002574
14550.0 0.0025729
14570.0 0.0025711
14590.0 0.0025686
14610.0 0.002566
14630.0 0.0025641
14650.0 0.0025628
14670.0 0.0025629
14690.0 0.0025653
14710.0 0.0025706
14730.0 0.0025781
14750.0 0.0025893
14770.0 0.0026051
14790.0 0.0026243
14810.0 0.002647
14830.0 0.0026762
14850.0 0.0027093
14870.0 0.0027446
14890.0 0.0027836
14910.0 0.0028258
14930.0 0.0028661
14950.0 0.0029032
14970.0 0.0029379
14990.0 0.0029654
15010.0 0.002984
15030.0 0.0029952
15050.0 0.0029991
15070.0 0.0029956
15090.0 0.0029875
15110.0 0.0029763
15130.0 0.002963
15150.0 0.0029486
15170.0 0.0029336
15190.0 0.0029182
15210.0 0.0029029
15230.0 0.0028875
15250.0 0.0028719
15270.0 0.0028563
15290.0 0.0028409
15310.0 0.0028254
15330.0 0.0028099
15350.0 0.0027944
15370.0 0.002779
15390.0 0.0027635
15410.0 0.002748
15430.0 0.0027326
15450.0 0.0027172
15470.0 0.0027017
15490.0 0.0026864
15510.0 0.0026712
15530.0 0.0026558
15550.0 0.0026405
15570.0 0.0026254
15590.0 0.0026102
15610.0 0.002595
15630.0 0.0025799
15650.0 0.0025649
15670.0 0.0025499
15690.0 0.0025349
15710.0 0.0025201
15730.0 0.0025053
15750.0 0.0024905
15770.0 0.0024758
15790.0 0.0024612
15810.0 0.0024465
15830.0 0.002432
15850.0 0.0024176
15870.0 0.0024032
15890.0 0.0023888
15910.0 0.0023747
15930.0 0.0023605
15950.0 0.0023464
15970.0 0.0023324
15990.0 0.0023185
16010.0 0.0023046
16030.0 0.0022907
16050.0 0.0022771
16070.0 0.0022635
16090.0 0.0022499
16110.0 0.0022365
16130.0 0.0022232
16150.0 0.0022098
16170.0 0.0021966
16190.0 0.0021835
16210.0 0.0021705
16230.0 0.0021575
16250.0 0.0021447
16270.0 0.002132
16290.0 0.0021193
16310.0 0.0021067
16330.0 0.0020943
16350.0 0.0020819
16370.0 0.0020695
16390.0 0.0020573
16410.0 0.0020452
16430.0 0.0020332
16450.0 0.0020212
16470.0 0.0020095
16490.0 0.0019977
16510.0 0.001986
16530.0 0.0019744
16550.0 0.001963
16570.0 0.0019516
16590.0 0.0019403
16610.0 0.0019291
16630.0 0.001918
16650.0 0.001907
16670.0 0.0018961
16690.0 0.0018854
16710.0 0.0018746
16730.0 0.0018639
16750.0 0.0018534
16770.0 0.001843
16790.0 0.0018326
16810.0 0.0018224
16830.0 0.0018122
16850.0 0.0018021
16870.0 0.0017921
16890.0 0.0017823
16910.0 0.0017725
16930.0 0.0017627
16950.0 0.0017531
16970.0 0.0017436
16990.0 0.0017341
17010.0 0.0017247
17030.0 0.0017155
17050.0 0.0017063
17070.0 0.0016972
17090.0 0.0016882
17110.0 0.0016793
17130.0 0.0016704
17150.0 0.0016617
17170.0 0.0016531
17190.0 0.0016445
17210.0 0.001636
17230.0 0.0016276
17250.0 0.0016193
17270.0 0.001611
17290.0 0.0016028
17310.0 0.0015948
17330.0 0.0015867
17350.0 0.0015788
17370.0 0.001571
17390.0 0.0015632
17410.0 0.0015555
17430.0 0.0015479
17450.0 0.0015405
17470.0 0.0015329
17490.0 0.0015255
17510.0 0.0015183
17530.0 0.001511
17550.0 0.0015039
17570.0 0.0014968
17590.0 0.0014898
17610.0 0.0014829
17630.0 0.001476
17650.0 0.0014693
17670.0 0.0014625
17690.0 0.0014558
17710.0 0.0014493
17730.0 0.0014428
17750.0 0.0014363
17770.0 0.0014299
17790.0 0.0014237
17810.0 0.0014174
17830.0 0.0014112
17850.0 0.0014051
17870.0 0.0013991
17890.0 0.0013931
17910.0 0.0013871
17930.0 0.0013813
17950.0 0.0013755
17970.0 0.0013698
17990.0 0.0013641
18010.0 0.0013586
18030.0 0.0013529
18050.0 0.0013475
18070.0 0.0013421
18090.0 0.0013367
18110.0 0.0013313
18130.0 0.0013261
18150.0 0.0013209
18170.0 0.0013157
18190.0 0.0013106
18210.0 0.0013056
18230.0 0.0013006
18250.0 0.0012956
18270.0 0.0012908
18290.0 0.001286
18310.0 0.0012812
18330.0 0.0012765
18350.0 0.0012718
18370.0 0.0012672
18390.0 0.0012626
18410.0 0.0012581
18430.0 0.0012536
18450.0 0.0012491
18470.0 0.0012448
18490.0 0.0012405
18510.0 0.0012362
18530.0 0.0012319
18550.0 0.0012277
18570.0 0.0012236
18590.0 0.0012194
18610.0 0.0012154
18630.0 0.0012114
18650.0 0.0012074
18670.0 0.0012034
18690.0 0.0011995
18710.0 0.0011957
18730.0 0.0011918
18750.0 0.0011881
18770.0 0.0011844
18790.0 0.0011806
18810.0 0.0011769
18830.0 0.0011734
18850.0 0.0011698
18870.0 0.0011662
18890.0 0.0011627
18910.0 0.0011593
18930.0 0.0011558
18950.0 0.0011524
18970.0 0.001149
18990.0 0.0011457
19010.0 0.0011423
19030.0 0.0011391
19050.0 0.0011359
19070.0 0.0011327
19090.0 0.0011295
19110.0 0.0011264
19130.0 0.0011233
19150.0 0.0011202
19170.0 0.0011172
19190.0 0.0011142
19210.0 0.0011111
19230.0 0.0011082
19250.0 0.0011053
19270.0 0.0011024
19290.0 0.0010995
19310.0 0.0010967
19330.0 0.0010939
19350.0 0.0010911
19370.0 0.0010883
19390.0 0.0010856
19410.0 0.0010829
19430.0 0.0010802
19450.0 0.0010775
19470.0 0.0010749
19490.0 0.0010723
19510.0 0.0010697
19530.0 0.0010672
19550.0 0.0010646
19570.0 0.0010621
19590.0 0.0010596
19610.0 0.0010572
19630.0 0.0010547
19650.0 0.0010523
19670.0 0.0010499
19690.0 0.0010475
19710.0 0.0010451
19730.0 0.0010428
19750.0 0.0010405
19770.0 0.0010382
19790.0 0.0010359
19810.0 0.0010337
19830.0 0.0010314
19850.0 0.0010291
19870.0 0.0010268
19890.0 0.0010243
19910.0 0.0010214
19930.0 0.001018
19950.0 0.0010139
19970.0 0.0010084
19990.0 0.0010014
20010.0 0.00099313
20030.0 0.00098279
20050.0 0.00097048
20070.0 0.00095702
20090.0 0.00094249
20110.0 0.00092612
20130.0 0.0009096
20150.0 0.00089331
20170.0 0.0008765
20190.0 0.0008595
20210.0 0.00084345
20230.0 0.00082778
20250.0 0.00081201
20270.0 0.00079726
20290.0 0.00078366
20310.0 0.00077055
20330.0 0.00075809
20350.0 0.00074751
20370.0 0.0007379
20390.0 0.00072921
20410.0 0.00072194
20430.0 0.00071607
20450.0 0.00071114
20470.0 0.00070751
20490.0 0.00070518
20510.0 0.00070393
20530.0 0.00070375
20550.0 0.00070457
20570.0 0.00070619
20590.0 0.00070865
20610.0 0.00071179
20630.0 0.00071534
20650.0 0.00071933
20670.0 0.00072384
20690.0 0.0007283
20710.0 0.00073272
20730.0 0.00073719
20750.0 0.00074147
20770.0 0.00074526
20790.0 0.00074874
20810.0 0.00075182
20830.0 0.00075426
20850.0 0.00075608
20870.0 0.00075732
20890.0 0.00075785
20910.0 0.00075767
20930.0 0.00075683
20950.0 0.00075529
20970.0 0.00075316
20990.0 0.00075049
21010.0 0.00074712
21030.0 0.00074329
21050.0 0.00073915
21070.0 0.00073458
21090.0 0.00072954
21110.0 0.00072452
21130.0 0.00071942
21150.0 0.00071406
21170.0 0.00070877
21190.0 0.00070376
21210.0 0.00069871
21230.0 0.0006938
21250.0 0.00068938
21270.0 0.00068533
21290.0 0.00068156
21310.0 0.00067829
21330.0 0.00067565
21350.0 0.00067343
21370.0 0.00067175
21390.0 0.00067068
21410.0 0.00067016
21430.0 0.00067021
21450.0 0.00067084
21470.0 0.00067197
21490.0 0.00067364
21510.0 0.00067584
21530.0 0.00067838
21550.0 0.00068134
21570.0 0.00068482
21590.0 0.00068856
21610.0 0.00069252
21630.0 0.00069688
21650.0 0.00070163
21670.0 0.00070628
21690.0 0.00071118
21710.0 0.00071639
21730.0 0.00072162
21750.0 0.00072679
21770.0 0.00073235
21790.0 0.00073794
21810.0 0.00074337
21830.0 0.00074886
21850.0 0.00075453
21870.0 0.00076001
21890.0 0.00076526
21910.0 0.00077063
21930.0 0.00077587
21950.0 0.00078078
21970.0 0.00078557
21990.0 0.00079033
22010.0 0.00079459
22030.0 0.00079847
22050.0 0.00080211
22070.0 0.00080532
22090.0 0.00080795
22110.0 0.00081014
22130.0 0.00081181
22150.0 0.00081282
22170.0 0.00081322
22190.0 0.00081294
22210.0 0.00081192
22230.0 0.00081026
22250.0 0.00080785
22270.0 0.00080463
22290.0 0.0008008
22310.0 0.00079634
22330.0 0.00079093
22350.0 0.00078492
22370.0 0.00077849
22390.0 0.00077134
22410.0 0.00076339
22430.0 0.00075535
22450.0 0.00074696
22470.0 0.00073789
22490.0 0.00072863
22510.0 0.00071949
22530.0 0.0007098
22550.0 0.00069985
22570.0 0.00069032
22590.0 0.00068085
22610.0 0.00067117
22630.0 0.00066179
22650.0 0.00065304
22670.0 0.00064422
22690.0 0.00063563
22710.0 0.00062768
22730.0 0.0006201
22750.0 0.0006125
22770.0 0.00060559
22790.0 0.00059926
22810.0 0.00059312
22830.0 0.00058731
22850.0 0.0005821
22870.0 0.00057716
22890.0 0.00057236
22910.0 0.00056801
22930.0 0.00056402
22950.0 0.00056017
22970.0 0.00055648
22990.0 0.00055327
23010.0 0.00055019
23030.0 0.00054724
23050.0 0.00054454
23070.0 0.00054208
23090.0 0.00053963
23110.0 0.00053736
23130.0 0.00053531
23150.0 0.00053335
23170.0 0.00053143
23190.0 0.00052968
23210.0 0.00052808
23230.0 0.0005265
23250.0 0.00052503
23270.0 0.00052373
23290.0 0.00052253
23310.0 0.00052143
23330.0 0.00052056
23350.0 0.00051986
23370.0 0.00051935
23390.0 0.00051904
23410.0 0.00051895
23430.0 0.00051905
23450.0 0.00051936
23470.0 0.00051983
23490.0 0.00052044
23510.0 0.0005212
23530.0 0.00052207
23550.0 0.00052295
23570.0 0.00052391
23590.0 0.00052489
23610.0 0.00052585
23630.0 0.00052679
23650.0 0.00052778
23670.0 0.00052874
23690.0 0.0005297
23710.0 0.00053073
23730.0 0.0005319
23750.0 0.00053316
23770.0 0.00053462
23790.0 0.00053642
23810.0 0.00053855
