#lamb flux
1010.0 9.2397e-07
1030.0 1.2341e-06
1050.0 1.6445e-06
1070.0 2.176e-06
1090.0 2.8633e-06
1110.0 3.6909e-06
1130.0 4.6608e-06
1150.0 5.8107e-06
1170.0 7.1359e-06
1190.0 8.5665e-06
1210.0 1.0126e-05
1230.0 1.1812e-05
1250.0 1.3542e-05
1270.0 1.5256e-05
1290.0 1.6989e-05
1310.0 1.8631e-05
1330.0 2.0078e-05
1350.0 2.1334e-05
1370.0 2.2379e-05
1390.0 2.3111e-05
1410.0 2.3505e-05
1430.0 2.3635e-05
1450.0 2.3453e-05
1470.0 2.295e-05
1490.0 2.22e-05
1510.0 2.1266e-05
1530.0 2.0103e-05
1550.0 1.8805e-05
1570.0 1.7466e-05
1590.0 1.6077e-05
1610.0 1.4655e-05
1630.0 1.3269e-05
1650.0 1.1937e-05
1670.0 1.0655e-05
1690.0 9.4509e-06
1710.0 8.3444e-06
1730.0 7.3307e-06
1750.0 6.4019e-06
1770.0 5.5754e-06
1790.0 4.8451e-06
1810.0 4.2017e-06
1830.0 3.6448e-06
1850.0 3.1381e-06
1870.0 2.6772e-06
1890.0 2.2999e-06
1910.0 2.0044e-06
1930.0 1.7864e-06
1950.0 1.7151e-06
1970.0 1.7145e-06
1990.0 1.7351e-06
2010.0 1.7744e-06
2030.0 1.831e-06
2050.0 1.9062e-06
2070.0 2.1168e-06
2090.0 2.3965e-06
2110.0 2.7266e-06
2130.0 3.1059e-06
2150.0 3.5296e-06
2170.0 3.9923e-06
2190.0 4.4958e-06
2210.0 5.0079e-06
2230.0 5.5139e-06
2250.0 6.0435e-06
2270.0 6.5982e-06
2290.0 7.1676e-06
2310.0 7.7462e-06
2330.0 8.3378e-06
2350.0 8.9366e-06
2370.0 9.5319e-06
2390.0 1.0125e-05
2410.0 1.0718e-05
2430.0 1.1295e-05
2450.0 1.1852e-05
2470.0 1.2394e-05
2490.0 1.292e-05
2510.0 1.3423e-05
2530.0 1.3932e-05
2550.0 1.4487e-05
2570.0 1.513e-05
2590.0 1.5922e-05
2610.0 1.7025e-05
2630.0 1.8535e-05
2650.0 2.0476e-05
2670.0 2.3005e-05
2690.0 2.625e-05
2710.0 2.999e-05
2730.0 3.4063e-05
2750.0 3.8596e-05
2770.0 4.3113e-05
2790.0 4.7174e-05
2810.0 5.078e-05
2830.0 5.3901e-05
2850.0 5.6039e-05
2870.0 5.7487e-05
2890.0 5.8477e-05
2910.0 5.901e-05
2930.0 5.9112e-05
2950.0 5.9058e-05
2970.0 5.8869e-05
2990.0 5.8465e-05
3010.0 5.794e-05
3030.0 5.7415e-05
3050.0 5.6839e-05
3070.0 5.6121e-05
3090.0 5.5448e-05
3110.0 5.4829e-05
3130.0 5.425e-05
3150.0 5.1802e-05
3170.0 5.0109e-05
3190.0 4.857e-05
3210.0 4.7613e-05
3230.0 4.8272e-05
3250.0 5.4097e-05
3270.0 6.624e-05
3290.0 7.4631e-05
3310.0 6.9975e-05
3330.0 7.0429e-05
3350.0 7.1927e-05
3370.0 7.3725e-05
3390.0 7.5396e-05
3410.0 7.6162e-05
3430.0 7.6212e-05
3450.0 7.6063e-05
3470.0 7.6279e-05
3490.0 7.5162e-05
3510.0 6.838e-05
3530.0 5.3527e-05
3550.0 4.7298e-05
3570.0 6.8743e-05
3590.0 9.6638e-05
3610.0 0.00011381
3630.0 0.00014912
3650.0 0.00015288
3670.0 0.00012814
3690.0 0.00010037
3710.0 8.6089e-05
3730.0 8.9009e-05
3750.0 9.254e-05
3770.0 9.6011e-05
3790.0 9.9568e-05
3810.0 0.00011048
3830.0 0.00010186
3850.0 8.6024e-05
3870.0 7.7657e-05
3890.0 8.8133e-05
3910.0 9.5527e-05
3930.0 9.6309e-05
3950.0 0.0001038
3970.0 0.00011232
3990.0 0.00011127
4010.0 0.00011583
4030.0 0.00011124
4050.0 0.00010662
4070.0 0.00010305
4090.0 0.00010402
4110.0 0.00010673
4130.0 0.0001042
4150.0 9.8821e-05
4170.0 9.61e-05
4190.0 9.5825e-05
4210.0 8.7018e-05
4230.0 7.8879e-05
4250.0 6.8848e-05
4270.0 5.8941e-05
4290.0 5.7331e-05
4310.0 5.5726e-05
4330.0 5.6274e-05
4350.0 6.5837e-05
4370.0 6.7311e-05
4390.0 7.5887e-05
4410.0 8.172e-05
4430.0 8.5208e-05
4450.0 7.5967e-05
4470.0 6.5259e-05
4490.0 6.2072e-05
4510.0 5.8523e-05
4530.0 5.6358e-05
4550.0 5.3923e-05
4570.0 5.3382e-05
4590.0 5.4389e-05
4610.0 5.134e-05
4630.0 4.9416e-05
4650.0 4.6428e-05
4670.0 4.5293e-05
4690.0 4.0055e-05
4710.0 3.6087e-05
4730.0 3.1455e-05
4750.0 2.8849e-05
4770.0 2.1594e-05
4790.0 2.1805e-05
4810.0 2.0671e-05
4830.0 1.0763e-05
4850.0 1.5878e-05
4870.0 9.3703e-06
4890.0 1.1325e-05
4910.0 1.8302e-05
4930.0 1.8809e-05
4950.0 9.0428e-06
4970.0 9.5549e-06
4990.0 9.8571e-06
5010.0 6.6146e-06
5030.0 6.0563e-06
5050.0 9.5918e-06
5070.0 9.1881e-06
5090.0 9.7423e-06
5110.0 1.0679e-05
5130.0 9.9328e-06
5150.0 1.1726e-05
5170.0 7.6073e-06
5190.0 7.0485e-06
5210.0 9.0784e-06
5230.0 7.3018e-06
5250.0 1.0458e-05
5270.0 1.7296e-05
5290.0 1.6798e-05
5310.0 1.2506e-05
5330.0 1.3025e-05
5350.0 8.8896e-06
5370.0 9.6295e-06
5390.0 1.1658e-05
5410.0 1.0613e-05
5430.0 1.4243e-05
5450.0 1.0132e-05
5470.0 1.0168e-05
5490.0 1.945e-05
5510.0 1.9723e-05
5530.0 2.0235e-05
5550.0 1.9467e-05
5570.0 2.1888e-05
5590.0 2.4735e-05
5610.0 2.5007e-05
5630.0 2.4124e-05
5650.0 2.4521e-05
5670.0 2.433e-05
5690.0 2.5186e-05
5710.0 2.3222e-05
5730.0 2.4904e-05
5750.0 2.4653e-05
5770.0 2.331e-05
5790.0 2.5317e-05
5810.0 2.5753e-05
5830.0 2.5675e-05
5850.0 2.3729e-05
5870.0 2.2471e-05
5890.0 2.2819e-05
5910.0 2.5886e-05
5930.0 2.5434e-05
5950.0 2.6694e-05
5970.0 2.7156e-05
5990.0 2.8696e-05
6010.0 2.791e-05
6030.0 2.8346e-05
6050.0 2.8228e-05
6070.0 2.655e-05
6090.0 2.8105e-05
6110.0 2.8691e-05
6130.0 2.7401e-05
6150.0 2.7329e-05
6170.0 2.7556e-05
6190.0 2.3593e-05
6210.0 2.3819e-05
6230.0 2.5055e-05
6250.0 2.4923e-05
6270.0 2.4834e-05
6290.0 2.6451e-05
6310.0 2.8475e-05
6330.0 2.8694e-05
6350.0 2.7947e-05
6370.0 2.851e-05
6390.0 2.6421e-05
6410.0 2.688e-05
6430.0 2.5639e-05
6450.0 2.5981e-05
6470.0 2.6359e-05
6490.0 2.6627e-05
6510.0 2.4667e-05
6530.0 2.4766e-05
6550.0 2.439e-05
6570.0 2.3166e-05
6590.0 2.4309e-05
6610.0 2.4379e-05
6630.0 2.4015e-05
6650.0 2.2576e-05
6670.0 2.181e-05
6690.0 2.1175e-05
6710.0 2.0266e-05
6730.0 1.9679e-05
6750.0 1.9757e-05
6770.0 1.933e-05
6790.0 1.5532e-05
6810.0 1.6779e-05
6830.0 1.8005e-05
6850.0 1.6232e-05
6870.0 1.5889e-05
6890.0 1.5576e-05
6910.0 1.5355e-05
6930.0 1.4782e-05
6950.0 1.5324e-05
6970.0 1.4691e-05
6990.0 1.4376e-05
7010.0 1.4231e-05
7030.0 1.4779e-05
7050.0 1.4424e-05
7070.0 1.2186e-05
7090.0 1.032e-05
7110.0 9.658e-06
7130.0 1.0302e-05
7150.0 1.0498e-05
7170.0 1.0282e-05
7190.0 8.9507e-06
7210.0 1.0685e-05
7230.0 1.2086e-05
7250.0 1.1818e-05
7270.0 1.1901e-05
7290.0 1.2527e-05
7310.0 1.1188e-05
7330.0 1.058e-05
7350.0 9.884e-06
7370.0 1.0754e-05
7390.0 1.2016e-05
7410.0 9.6281e-06
7430.0 9.8774e-06
7450.0 9.6068e-06
7470.0 1.0889e-05
7490.0 1.101e-05
7510.0 9.654e-06
7530.0 1.0387e-05
7550.0 6.4925e-06
7570.0 5.4537e-06
7590.0 7.4845e-06
7610.0 9.2139e-06
7630.0 8.1845e-06
7650.0 9.2749e-06
7670.0 6.5538e-06
7690.0 4.1334e-06
7710.0 5.3831e-06
7730.0 7.5927e-06
7750.0 5.4746e-06
7770.0 8.1459e-06
7790.0 8.993e-06
7810.0 7.5749e-06
7830.0 9.0591e-06
7850.0 6.8673e-06
7870.0 8.6876e-06
7890.0 7.4298e-06
7910.0 7.3596e-06
7930.0 5.6845e-06
7950.0 3.9171e-06
7970.0 5.2921e-06
7990.0 6.6142e-06
8010.0 1.8438e-05
8030.0 1.7894e-05
8050.0 1.7603e-05
8070.0 1.71e-05
8090.0 1.5706e-05
8110.0 1.5324e-05
8130.0 1.6976e-05
8150.0 1.8083e-05
8170.0 1.8706e-05
8190.0 1.9633e-05
8210.0 1.8763e-05
8230.0 1.8799e-05
8250.0 1.8648e-05
8270.0 1.8786e-05
8290.0 1.8607e-05
8310.0 1.7645e-05
8330.0 1.7011e-05
8350.0 1.7598e-05
8370.0 1.7911e-05
8390.0 1.7419e-05
8410.0 1.7223e-05
8430.0 1.6591e-05
8450.0 1.6093e-05
8470.0 1.7379e-05
8490.0 1.7462e-05
8510.0 1.6297e-05
8530.0 1.6327e-05
8550.0 1.6129e-05
8570.0 1.489e-05
8590.0 1.5122e-05
8610.0 1.5156e-05
8630.0 1.5839e-05
8650.0 1.5917e-05
8670.0 1.6056e-05
8690.0 1.5702e-05
8710.0 1.5374e-05
8730.0 1.4736e-05
8750.0 1.4395e-05
8770.0 1.4292e-05
8790.0 1.5055e-05
8810.0 1.4066e-05
8830.0 1.3817e-05
8850.0 1.4643e-05
8870.0 1.3859e-05
8890.0 1.2738e-05
8910.0 1.2578e-05
8930.0 1.2848e-05
8950.0 1.1786e-05
8970.0 1.1281e-05
8990.0 1.1015e-05
9010.0 1.0331e-05
9030.0 1.017e-05
9050.0 1.0123e-05
9070.0 1.0082e-05
9090.0 1.004e-05
9110.0 9.9981e-06
9130.0 9.9555e-06
9150.0 9.9127e-06
9170.0 9.8694e-06
9190.0 9.8257e-06
9210.0 9.7817e-06
9230.0 9.7373e-06
9250.0 9.6927e-06
9270.0 9.6477e-06
9290.0 9.6025e-06
9310.0 9.5635e-06
9330.0 9.5341e-06
9350.0 9.5046e-06
9370.0 9.4746e-06
9390.0 9.444e-06
9410.0 9.4132e-06
9430.0 9.3823e-06
9450.0 9.3506e-06
9470.0 9.3235e-06
9490.0 9.2936e-06
9510.0 9.2586e-06
9530.0 9.2236e-06
9550.0 9.1897e-06
9570.0 9.1561e-06
9590.0 9.122e-06
9610.0 9.0981e-06
9630.0 9.0755e-06
9650.0 9.0521e-06
9670.0 9.0275e-06
9690.0 9.0035e-06
9710.0 8.9792e-06
9730.0 8.9539e-06
9750.0 8.9284e-06
9770.0 8.9037e-06
9790.0 8.8777e-06
9810.0 8.8512e-06
9830.0 8.8251e-06
9850.0 8.7937e-06
9870.0 8.7573e-06
9890.0 8.7361e-06
9910.0 8.7126e-06
9930.0 8.6832e-06
9950.0 8.656e-06
9970.0 8.6305e-06
9990.0 8.6039e-06
10010.0 8.5765e-06
10030.0 8.5487e-06
10050.0 8.5204e-06
10070.0 8.4919e-06
10090.0 8.4632e-06
10110.0 8.4344e-06
10130.0 8.4055e-06
10150.0 8.3765e-06
10170.0 8.3475e-06
10190.0 8.3184e-06
10210.0 8.2893e-06
10230.0 8.2602e-06
10250.0 8.2311e-06
10270.0 8.2019e-06
10290.0 8.1728e-06
10310.0 8.1436e-06
10330.0 8.1145e-06
10350.0 8.0853e-06
10370.0 8.0563e-06
10390.0 8.0268e-06
10410.0 7.9917e-06
10430.0 7.9547e-06
10450.0 7.9326e-06
10470.0 7.9069e-06
10490.0 7.8805e-06
10510.0 7.8535e-06
10530.0 7.8251e-06
10550.0 7.7969e-06
10570.0 7.7692e-06
10590.0 7.7411e-06
10610.0 7.7127e-06
10630.0 7.6852e-06
10650.0 7.6576e-06
10670.0 7.6295e-06
10690.0 7.602e-06
10710.0 7.5749e-06
10730.0 7.5476e-06
10750.0 7.5199e-06
10770.0 7.4934e-06
10790.0 7.4669e-06
10810.0 7.4399e-06
10830.0 7.4135e-06
10850.0 7.3877e-06
10870.0 7.361e-06
10890.0 7.3341e-06
10910.0 7.3076e-06
10930.0 7.2802e-06
10950.0 7.2508e-06
10970.0 7.2202e-06
10990.0 7.1883e-06
11010.0 6.9034e-06
11030.0 6.8649e-06
11050.0 6.8196e-06
11070.0 6.7678e-06
11090.0 6.7091e-06
11110.0 6.648e-06
11130.0 6.5849e-06
11150.0 6.5186e-06
11170.0 6.4507e-06
11190.0 6.3837e-06
11210.0 6.315e-06
11230.0 6.2448e-06
11250.0 6.1758e-06
11270.0 6.1078e-06
11290.0 6.0388e-06
11310.0 5.9709e-06
11330.0 5.9066e-06
11350.0 5.8431e-06
11370.0 5.7808e-06
11390.0 5.7216e-06
11410.0 5.6648e-06
11430.0 5.6083e-06
11450.0 5.5542e-06
11470.0 5.5024e-06
11490.0 5.4513e-06
11510.0 5.4004e-06
11530.0 5.3512e-06
11550.0 5.3026e-06
11570.0 5.2533e-06
11590.0 5.2041e-06
11610.0 5.1554e-06
11630.0 5.1055e-06
11650.0 5.0544e-06
11670.0 5.0039e-06
11690.0 4.9529e-06
11710.0 4.9004e-06
11730.0 4.8476e-06
11750.0 4.7954e-06
11770.0 4.7418e-06
11790.0 4.6874e-06
11810.0 4.6339e-06
11830.0 4.5806e-06
11850.0 4.526e-06
11870.0 4.4729e-06
11890.0 4.4215e-06
11910.0 4.3704e-06
11930.0 4.3202e-06
11950.0 4.2728e-06
11970.0 4.2268e-06
11990.0 4.1819e-06
12010.0 4.1398e-06
12030.0 4.1004e-06
12050.0 4.0628e-06
12070.0 4.0274e-06
12090.0 3.9954e-06
12110.0 3.9654e-06
12130.0 3.9375e-06
12150.0 3.9119e-06
12170.0 3.8885e-06
12190.0 3.8665e-06
12210.0 3.846e-06
12230.0 3.8267e-06
12250.0 3.8081e-06
12270.0 3.7899e-06
12290.0 3.7718e-06
12310.0 3.7534e-06
12330.0 3.7343e-06
12350.0 3.7143e-06
12370.0 3.6933e-06
12390.0 3.671e-06
12410.0 3.6467e-06
12430.0 3.6211e-06
12450.0 3.5941e-06
12470.0 3.565e-06
12490.0 3.5341e-06
12510.0 3.5024e-06
12530.0 3.4686e-06
12550.0 3.4327e-06
12570.0 3.3961e-06
12590.0 3.3587e-06
12610.0 3.319e-06
12630.0 3.2783e-06
12650.0 3.2385e-06
12670.0 3.1973e-06
12690.0 3.1551e-06
12710.0 3.1138e-06
12730.0 3.0729e-06
12750.0 3.0305e-06
12770.0 2.9893e-06
12790.0 2.9496e-06
12810.0 2.91e-06
12830.0 2.8707e-06
12850.0 2.8339e-06
12870.0 2.7984e-06
12890.0 2.7634e-06
12910.0 2.7304e-06
12930.0 2.7e-06
12950.0 2.6706e-06
12970.0 2.6429e-06
12990.0 2.6186e-06
13010.0 2.5965e-06
13030.0 2.5764e-06
13050.0 2.559e-06
13070.0 2.5445e-06
13090.0 2.5319e-06
13110.0 2.5216e-06
13130.0 2.5134e-06
13150.0 2.507e-06
13170.0 2.502e-06
13190.0 2.4982e-06
13210.0 2.4953e-06
13230.0 2.493e-06
13250.0 2.491e-06
13270.0 2.4891e-06
13290.0 2.487e-06
13310.0 2.4847e-06
13330.0 2.4819e-06
13350.0 2.4784e-06
13370.0 2.4742e-06
13390.0 2.4688e-06
13410.0 2.4627e-06
13430.0 2.4554e-06
13450.0 2.4467e-06
13470.0 2.4369e-06
13490.0 2.4262e-06
13510.0 2.4137e-06
13530.0 2.4001e-06
13550.0 2.3861e-06
13570.0 2.371e-06
13590.0 2.3547e-06
13610.0 2.3384e-06
13630.0 2.322e-06
13650.0 2.3044e-06
13670.0 2.2865e-06
13690.0 2.2689e-06
13710.0 2.2507e-06
13730.0 2.2311e-06
13750.0 2.2124e-06
13770.0 2.1935e-06
13790.0 2.1736e-06
13810.0 2.1535e-06
13830.0 2.1341e-06
13850.0 2.1139e-06
13870.0 2.0931e-06
13890.0 2.0732e-06
13910.0 2.0536e-06
13930.0 2.0333e-06
13950.0 2.0136e-06
13970.0 1.9955e-06
13990.0 1.9774e-06
14010.0 1.9596e-06
14030.0 1.9433e-06
14050.0 1.928e-06
14070.0 1.9126e-06
14090.0 1.8986e-06
14110.0 1.8861e-06
14130.0 1.8741e-06
14150.0 1.8626e-06
14170.0 1.8527e-06
14190.0 1.8436e-06
14210.0 1.8346e-06
14230.0 1.8264e-06
14250.0 1.8191e-06
14270.0 1.8119e-06
14290.0 1.8048e-06
14310.0 1.7987e-06
14330.0 1.793e-06
14350.0 1.7872e-06
14370.0 1.7821e-06
14390.0 1.7776e-06
14410.0 1.7732e-06
14430.0 1.7691e-06
14450.0 1.7656e-06
14470.0 1.7625e-06
14490.0 1.7593e-06
14510.0 1.7567e-06
14530.0 1.7546e-06
14550.0 1.7523e-06
14570.0 1.7501e-06
14590.0 1.7483e-06
14610.0 1.7464e-06
14630.0 1.7441e-06
14650.0 1.742e-06
14670.0 1.74e-06
14690.0 1.7375e-06
14710.0 1.7349e-06
14730.0 1.7325e-06
14750.0 1.7298e-06
14770.0 1.7267e-06
14790.0 1.7236e-06
14810.0 1.7204e-06
14830.0 1.7163e-06
14850.0 1.7121e-06
14870.0 1.708e-06
14890.0 1.7035e-06
14910.0 1.6987e-06
14930.0 1.6942e-06
14950.0 1.6902e-06
14970.0 1.6863e-06
14990.0 1.6831e-06
15010.0 1.681e-06
15030.0 1.6796e-06
15050.0 1.6786e-06
15070.0 1.6786e-06
15090.0 1.6791e-06
15110.0 1.6797e-06
15130.0 1.6804e-06
15150.0 1.6815e-06
15170.0 1.6823e-06
15190.0 1.683e-06
15210.0 1.6838e-06
15230.0 1.6846e-06
15250.0 1.6851e-06
15270.0 1.6856e-06
15290.0 1.6862e-06
15310.0 1.6866e-06
15330.0 1.6869e-06
15350.0 1.6872e-06
15370.0 1.6875e-06
15390.0 1.6874e-06
15410.0 1.6874e-06
15430.0 1.6874e-06
15450.0 1.6872e-06
15470.0 1.6868e-06
15490.0 1.6865e-06
15510.0 1.6861e-06
15530.0 1.6855e-06
15550.0 1.6848e-06
15570.0 1.6842e-06
15590.0 1.6833e-06
15610.0 1.6823e-06
15630.0 1.6813e-06
15650.0 1.6802e-06
15670.0 1.6789e-06
15690.0 1.6776e-06
15710.0 1.6763e-06
15730.0 1.6747e-06
15750.0 1.673e-06
15770.0 1.6714e-06
15790.0 1.6696e-06
15810.0 1.6675e-06
15830.0 1.6655e-06
15850.0 1.6635e-06
15870.0 1.6612e-06
15890.0 1.6588e-06
15910.0 1.6565e-06
15930.0 1.654e-06
15950.0 1.6513e-06
15970.0 1.6485e-06
15990.0 1.6458e-06
16010.0 1.6428e-06
16030.0 1.6397e-06
16050.0 1.6367e-06
16070.0 1.6335e-06
16090.0 1.6301e-06
16110.0 1.6268e-06
16130.0 1.6234e-06
16150.0 1.6197e-06
16170.0 1.6159e-06
16190.0 1.6123e-06
16210.0 1.6084e-06
16230.0 1.6043e-06
16250.0 1.6004e-06
16270.0 1.5964e-06
16290.0 1.5921e-06
16310.0 1.5878e-06
16330.0 1.5835e-06
16350.0 1.579e-06
16370.0 1.5743e-06
16390.0 1.5698e-06
16410.0 1.5652e-06
16430.0 1.5603e-06
16450.0 1.5555e-06
16470.0 1.5507e-06
16490.0 1.5457e-06
16510.0 1.5405e-06
16530.0 1.5355e-06
16550.0 1.5303e-06
16570.0 1.525e-06
16590.0 1.5196e-06
16610.0 1.5143e-06
16630.0 1.5089e-06
16650.0 1.5033e-06
16670.0 1.4978e-06
16690.0 1.4923e-06
16710.0 1.4864e-06
16730.0 1.4807e-06
16750.0 1.475e-06
16770.0 1.4692e-06
16790.0 1.4632e-06
16810.0 1.4573e-06
16830.0 1.4514e-06
16850.0 1.4453e-06
16870.0 1.4392e-06
16890.0 1.4333e-06
16910.0 1.427e-06
16930.0 1.4207e-06
16950.0 1.4146e-06
16970.0 1.4084e-06
16990.0 1.402e-06
17010.0 1.3956e-06
17030.0 1.3894e-06
17050.0 1.3829e-06
17070.0 1.3765e-06
17090.0 1.3701e-06
17110.0 1.3636e-06
17130.0 1.357e-06
17150.0 1.3505e-06
17170.0 1.344e-06
17190.0 1.3374e-06
17210.0 1.3308e-06
17230.0 1.3243e-06
17250.0 1.3177e-06
17270.0 1.3109e-06
17290.0 1.3043e-06
17310.0 1.2977e-06
17330.0 1.2909e-06
17350.0 1.2841e-06
17370.0 1.2776e-06
17390.0 1.2709e-06
17410.0 1.2641e-06
17430.0 1.2574e-06
17450.0 1.2508e-06
17470.0 1.2439e-06
17490.0 1.2371e-06
17510.0 1.2304e-06
17530.0 1.2237e-06
17550.0 1.2168e-06
17570.0 1.2102e-06
17590.0 1.2035e-06
17610.0 1.1967e-06
17630.0 1.1899e-06
17650.0 1.1833e-06
17670.0 1.1766e-06
17690.0 1.1697e-06
17710.0 1.163e-06
17730.0 1.1564e-06
17750.0 1.1496e-06
17770.0 1.1429e-06
17790.0 1.1364e-06
17810.0 1.1297e-06
17830.0 1.1229e-06
17850.0 1.1163e-06
17870.0 1.1097e-06
17890.0 1.103e-06
17910.0 1.0964e-06
17930.0 1.0899e-06
17950.0 1.0833e-06
17970.0 1.0767e-06
17990.0 1.0703e-06
18010.0 1.0638e-06
18030.0 1.0571e-06
18050.0 1.0507e-06
18070.0 1.0443e-06
18090.0 1.0378e-06
18110.0 1.0313e-06
18130.0 1.025e-06
18150.0 1.0187e-06
18170.0 1.0122e-06
18190.0 1.0059e-06
18210.0 9.9967e-07
18230.0 9.933e-07
18250.0 9.8692e-07
18270.0 9.8077e-07
18290.0 9.7458e-07
18310.0 9.6831e-07
18330.0 9.6216e-07
18350.0 9.5613e-07
18370.0 9.4994e-07
18390.0 9.4379e-07
18410.0 9.378e-07
18430.0 9.3178e-07
18450.0 9.2562e-07
18470.0 9.1966e-07
18490.0 9.138e-07
18510.0 9.0782e-07
18530.0 9.0188e-07
18550.0 8.9611e-07
18570.0 8.9026e-07
18590.0 8.8432e-07
18610.0 8.7856e-07
18630.0 8.7286e-07
18650.0 8.6706e-07
18670.0 8.6128e-07
18690.0 8.5573e-07
18710.0 8.5008e-07
18730.0 8.444e-07
18750.0 8.3885e-07
18770.0 8.3338e-07
18790.0 8.2771e-07
18810.0 8.2217e-07
18830.0 8.1679e-07
18850.0 8.1134e-07
18870.0 8.0584e-07
18890.0 8.0052e-07
18910.0 7.9524e-07
18930.0 7.8984e-07
18950.0 7.8452e-07
18970.0 7.7934e-07
18990.0 7.7409e-07
19010.0 7.6872e-07
19030.0 7.6363e-07
19050.0 7.5853e-07
19070.0 7.5335e-07
19090.0 7.4825e-07
19110.0 7.4331e-07
19130.0 7.3821e-07
19150.0 7.3313e-07
19170.0 7.2821e-07
19190.0 7.233e-07
19210.0 7.1827e-07
19230.0 7.1335e-07
19250.0 7.086e-07
19270.0 7.0374e-07
19290.0 6.9887e-07
19310.0 6.9417e-07
19330.0 6.8946e-07
19350.0 6.8458e-07
19370.0 6.7989e-07
19390.0 6.7528e-07
19410.0 6.7059e-07
19430.0 6.6589e-07
19450.0 6.6139e-07
19470.0 6.5685e-07
19490.0 6.5222e-07
19510.0 6.4771e-07
19530.0 6.4329e-07
19550.0 6.3873e-07
19570.0 6.3419e-07
19590.0 6.2985e-07
19610.0 6.2546e-07
19630.0 6.21e-07
19650.0 6.1667e-07
19670.0 6.1243e-07
19690.0 6.0803e-07
19710.0 6.0369e-07
19730.0 5.9949e-07
19750.0 5.9524e-07
19770.0 5.9088e-07
19790.0 5.867e-07
19810.0 5.8259e-07
19830.0 5.7837e-07
19850.0 5.7419e-07
19870.0 5.7018e-07
19890.0 5.6609e-07
19910.0 5.6199e-07
19930.0 5.5814e-07
19950.0 5.5445e-07
19970.0 5.5087e-07
19990.0 5.4759e-07
20010.0 5.4472e-07
20030.0 5.4211e-07
20050.0 5.398e-07
20070.0 5.3786e-07
20090.0 5.3618e-07
20110.0 5.3469e-07
20130.0 5.3341e-07
20150.0 5.323e-07
20170.0 5.3129e-07
20190.0 5.3037e-07
20210.0 5.2954e-07
20230.0 5.2875e-07
20250.0 5.28e-07
20270.0 5.2728e-07
20290.0 5.2656e-07
20310.0 5.2583e-07
20330.0 5.2508e-07
20350.0 5.243e-07
20370.0 5.2348e-07
20390.0 5.2261e-07
20410.0 5.2169e-07
20430.0 5.2074e-07
20450.0 5.1971e-07
20470.0 5.1865e-07
20490.0 5.1757e-07
20510.0 5.1646e-07
20530.0 5.1532e-07
20550.0 5.1419e-07
20570.0 5.1309e-07
20590.0 5.1198e-07
20610.0 5.1088e-07
20630.0 5.0981e-07
20650.0 5.0876e-07
20670.0 5.0769e-07
20690.0 5.0665e-07
20710.0 5.0561e-07
20730.0 5.0454e-07
20750.0 5.0342e-07
20770.0 5.0228e-07
20790.0 5.0106e-07
20810.0 4.9974e-07
20830.0 4.9834e-07
20850.0 4.9685e-07
20870.0 4.9521e-07
20890.0 4.9344e-07
20910.0 4.9159e-07
20930.0 4.8961e-07
20950.0 4.8747e-07
20970.0 4.8526e-07
20990.0 4.8298e-07
21010.0 4.8054e-07
21030.0 4.7803e-07
21050.0 4.7552e-07
21070.0 4.7292e-07
21090.0 4.7022e-07
21110.0 4.6757e-07
21130.0 4.6491e-07
21150.0 4.6217e-07
21170.0 4.5941e-07
21190.0 4.5669e-07
21210.0 4.5387e-07
21230.0 4.5097e-07
21250.0 4.481e-07
21270.0 4.4517e-07
21290.0 4.4212e-07
21310.0 4.39e-07
21330.0 4.3587e-07
21350.0 4.3259e-07
21370.0 4.2917e-07
21390.0 4.2544e-07
21410.0 4.2161e-07
21430.0 4.1753e-07
21450.0 4.1341e-07
21470.0 4.0923e-07
21490.0 4.0488e-07
21510.0 4.0037e-07
21530.0 3.9587e-07
21550.0 3.9125e-07
21570.0 3.8643e-07
21590.0 3.8158e-07
21610.0 3.7671e-07
21630.0 3.7168e-07
21650.0 3.6648e-07
21670.0 3.6139e-07
21690.0 3.5618e-07
21710.0 3.5081e-07
21730.0 3.4543e-07
21750.0 3.4006e-07
21770.0 3.3445e-07
21790.0 3.2879e-07
21810.0 3.2315e-07
21830.0 3.1741e-07
21850.0 3.1149e-07
21870.0 3.0558e-07
21890.0 2.9969e-07
21910.0 2.9362e-07
21930.0 2.8748e-07
21950.0 2.8139e-07
21970.0 2.752e-07
21990.0 2.6885e-07
22010.0 2.6259e-07
22030.0 2.5636e-07
22050.0 2.5002e-07
22070.0 2.4508e-07
22090.0 2.4275e-07
22110.0 2.4042e-07
22130.0 2.3808e-07
22150.0 2.3581e-07
22170.0 2.3358e-07
22190.0 2.3134e-07
22210.0 2.2914e-07
22230.0 2.2701e-07
22250.0 2.2488e-07
22270.0 2.2276e-07
22290.0 2.2069e-07
22310.0 2.1864e-07
22330.0 2.1657e-07
22350.0 2.1451e-07
22370.0 2.1248e-07
22390.0 2.1042e-07
22410.0 2.0835e-07
22430.0 2.0629e-07
22450.0 2.0421e-07
22470.0 2.021e-07
22490.0 1.9997e-07
22510.0 1.9783e-07
22530.0 1.9566e-07
22550.0 1.9345e-07
22570.0 1.9123e-07
22590.0 1.8898e-07
22610.0 1.867e-07
