#lamb flux
1010.0 0.00020123
1030.0 0.0002179
1050.0 0.00024143
1070.0 0.00026792
1090.0 0.0002968
1110.0 0.00032668
1130.0 0.00035693
1150.0 0.0003887
1170.0 0.00042144
1190.0 0.00045225
1210.0 0.0004831
1230.0 0.00051442
1250.0 0.00054464
1270.0 0.00057309
1290.0 0.00060228
1310.0 0.00063042
1330.0 0.00065628
1350.0 0.0006816
1370.0 0.00070716
1390.0 0.00073138
1410.0 0.00075444
1430.0 0.00077876
1450.0 0.00080327
1470.0 0.00082727
1490.0 0.00085231
1510.0 0.00087989
1530.0 0.00090704
1550.0 0.00093514
1570.0 0.00096567
1590.0 0.00099783
1610.0 0.0010305
1630.0 0.0010662
1650.0 0.0011045
1670.0 0.0011436
1690.0 0.0011841
1710.0 0.0012274
1730.0 0.0012723
1750.0 0.0013166
1770.0 0.0013627
1790.0 0.00141
1810.0 0.0014565
1830.0 0.0015022
1850.0 0.0015491
1870.0 0.0015939
1890.0 0.0016358
1910.0 0.001676
1930.0 0.0017144
1950.0 0.001748
1970.0 0.0017776
1990.0 0.0018047
2010.0 0.0018272
2030.0 0.0018446
2050.0 0.0018588
2070.0 0.0018701
2090.0 0.0018758
2110.0 0.0018782
2130.0 0.0018787
2150.0 0.0018762
2170.0 0.0018706
2190.0 0.0018648
2210.0 0.0018583
2230.0 0.0018503
2250.0 0.0018425
2270.0 0.0018364
2290.0 0.0018305
2310.0 0.0018249
2330.0 0.0018218
2350.0 0.0018207
2370.0 0.0018209
2390.0 0.0018237
2410.0 0.0018305
2430.0 0.0018398
2450.0 0.0018521
2470.0 0.0018694
2490.0 0.0018921
2510.0 0.0019192
2530.0 0.0019562
2550.0 0.0020108
2570.0 0.0020907
2590.0 0.0022065
2610.0 0.0023876
2630.0 0.0026429
2650.0 0.0029631
2670.0 0.003355
2690.0 0.0038077
2710.0 0.0042618
2730.0 0.0046831
2750.0 0.0050668
2770.0 0.005367
2790.0 0.0055727
2810.0 0.0057
2830.0 0.0057578
2850.0 0.0057651
2870.0 0.0057456
2890.0 0.0057098
2910.0 0.0056713
2930.0 0.005642
2950.0 0.0056169
2970.0 0.0055998
2990.0 0.0055974
3010.0 0.0075061
3030.0 0.0075292
3050.0 0.0075663
3070.0 0.0076221
3090.0 0.0076811
3110.0 0.0077391
3130.0 0.0077946
3150.0 0.0078688
3170.0 0.0079009
3190.0 0.0091283
3210.0 0.014486
3230.0 0.023103
3250.0 0.027383
3270.0 0.024604
3290.0 0.019774
3310.0 0.017181
3330.0 0.016268
3350.0 0.016406
3370.0 0.016848
3390.0 0.017362
3410.0 0.017832
3430.0 0.01787
3450.0 0.018154
3470.0 0.018549
3490.0 0.01982
3510.0 0.022212
3530.0 0.025026
3550.0 0.030061
3570.0 0.03619
3590.0 0.039428
3610.0 0.040106
3630.0 0.040218
3650.0 0.040705
3670.0 0.044253
3690.0 0.052621
3710.0 0.061729
3730.0 0.068072
3750.0 0.073006
3770.0 0.073265
3790.0 0.069502
3810.0 0.064167
3830.0 0.05695
3850.0 0.051137
3870.0 0.048834
3890.0 0.05427
3910.0 0.064794
3930.0 0.075518
3950.0 0.084088
3970.0 0.08855
3990.0 0.089452
4010.0 0.088206
4030.0 0.078952
4050.0 0.065734
4070.0 0.058715
4090.0 0.059453
4110.0 0.063828
4130.0 0.065934
4150.0 0.066337
4170.0 0.06616
4190.0 0.067066
4210.0 0.067586
4230.0 0.069896
4250.0 0.071978
4270.0 0.07381
4290.0 0.074653
4310.0 0.076124
4330.0 0.07796
4350.0 0.079018
4370.0 0.076373
4390.0 0.070069
4410.0 0.061662
4430.0 0.053779
4450.0 0.049139
4470.0 0.049498
4490.0 0.053415
4510.0 0.059994
4530.0 0.070001
4550.0 0.085462
4570.0 0.10364
4590.0 0.1247
4610.0 0.1456
4630.0 0.1584
4650.0 0.16226
4670.0 0.15993
4690.0 0.14898
4710.0 0.13021
4730.0 0.10891
4750.0 0.091226
4770.0 0.079996
4790.0 0.077724
4810.0 0.080189
4830.0 0.084469
4850.0 0.090468
4870.0 0.097618
4890.0 0.10182
4910.0 0.10581
4930.0 0.11372
4950.0 0.12225
4970.0 0.12455
4990.0 0.11838
5010.0 0.10576
5030.0 0.09048
5050.0 0.078408
5070.0 0.070999
5090.0 0.067425
5110.0 0.067121
5130.0 0.067483
5150.0 0.067344
5170.0 0.068107
5190.0 0.071524
5210.0 0.07838
5230.0 0.087007
5250.0 0.097987
5270.0 0.1094
5290.0 0.11782
5310.0 0.12387
5330.0 0.12937
5350.0 0.13188
5370.0 0.12946
5390.0 0.12549
5410.0 0.12438
5430.0 0.12937
5450.0 0.14059
5470.0 0.15268
5490.0 0.15944
5510.0 0.15985
5530.0 0.15647
5550.0 0.151
5570.0 0.1443
5590.0 0.13794
5610.0 0.13249
5630.0 0.12793
5650.0 0.12184
5670.0 0.11239
5690.0 0.10223
5710.0 0.093973
5730.0 0.08717
5750.0 0.083745
5770.0 0.083773
5790.0 0.084232
5810.0 0.083253
5830.0 0.081824
5850.0 0.079524
5870.0 0.076012
5890.0 0.073656
5910.0 0.072129
5930.0 0.068245
5950.0 0.061774
5970.0 0.054065
5990.0 0.046634
6010.0 0.041751
6030.0 0.040162
6050.0 0.041335
6070.0 0.043206
6090.0 0.043022
6110.0 0.041892
6130.0 0.042326
6150.0 0.044276
6170.0 0.046144
6190.0 0.047113
6210.0 0.04704
6230.0 0.045149
6250.0 0.041317
6270.0 0.036665
6290.0 0.032932
6310.0 0.032009
6330.0 0.033665
6350.0 0.03605
6370.0 0.038458
6390.0 0.042286
6410.0 0.047663
6430.0 0.05194
6450.0 0.054169
6470.0 0.05568
6490.0 0.056958
6510.0 0.057539
6530.0 0.057818
6550.0 0.058569
6570.0 0.058953
6590.0 0.058691
6610.0 0.057431
6630.0 0.054945
6650.0 0.051457
6670.0 0.048022
6690.0 0.045756
6710.0 0.044072
6730.0 0.042205
6750.0 0.041172
6770.0 0.04184
6790.0 0.042799
6810.0 0.042827
6830.0 0.042087
6850.0 0.041028
6870.0 0.039968
6890.0 0.039064
6910.0 0.03911
6930.0 0.039464
6950.0 0.039496
6970.0 0.039466
6990.0 0.039014
7010.0 0.037846
7030.0 0.035686
7050.0 0.032705
7070.0 0.030402
7090.0 0.030145
7110.0 0.030884
7130.0 0.030504
7150.0 0.02934
7170.0 0.029499
7190.0 0.03147
7210.0 0.033776
7230.0 0.03559
7250.0 0.036558
7270.0 0.035892
7290.0 0.03443
7310.0 0.033507
7330.0 0.033933
7350.0 0.035006
7370.0 0.035771
7390.0 0.037034
7410.0 0.039313
7430.0 0.041567
7450.0 0.043077
7470.0 0.043335
7490.0 0.041294
7510.0 0.038911
7530.0 0.03827
7550.0 0.03723
7570.0 0.036092
7590.0 0.035817
7610.0 0.0362
7630.0 0.037462
7650.0 0.040091
7670.0 0.043474
7690.0 0.046697
7710.0 0.049113
7730.0 0.051249
7750.0 0.05318
7770.0 0.054655
7790.0 0.056123
7810.0 0.056738
7830.0 0.055472
7850.0 0.053892
7870.0 0.052943
7890.0 0.052755
7910.0 0.05309
7930.0 0.052359
7950.0 0.051241
7970.0 0.049869
7990.0 0.048881
8010.0 0.046512
8030.0 0.046802
8050.0 0.046957
8070.0 0.046641
8090.0 0.046454
8110.0 0.046231
8130.0 0.046561
8150.0 0.046523
8170.0 0.046084
8190.0 0.045011
8210.0 0.043431
8230.0 0.042003
8250.0 0.041599
8270.0 0.039704
8290.0 0.03535
8310.0 0.030523
8330.0 0.027271
8350.0 0.026399
8370.0 0.028654
8390.0 0.032235
8410.0 0.034574
8430.0 0.036353
8450.0 0.039162
8470.0 0.04231
8490.0 0.046279
8510.0 0.050707
8530.0 0.055241
8550.0 0.05888
8570.0 0.061642
8590.0 0.063799
8610.0 0.065315
8630.0 0.06551
8650.0 0.064617
8670.0 0.06498
8690.0 0.068295
8710.0 0.0727
8730.0 0.074771
8750.0 0.074336
8770.0 0.075152
8790.0 0.075438
8810.0 0.072797
8830.0 0.067715
8850.0 0.061288
8870.0 0.056491
8890.0 0.055063
8910.0 0.053947
8930.0 0.050573
8950.0 0.047078
8970.0 0.045798
8990.0 0.046224
9010.0 0.045779
9030.0 0.045067
9050.0 0.044662
9070.0 0.04443
9090.0 0.044224
9110.0 0.044023
9130.0 0.043823
9150.0 0.043627
9170.0 0.043427
9190.0 0.043252
9210.0 0.04312
9230.0 0.042904
9250.0 0.042702
9270.0 0.04251
9290.0 0.042324
9310.0 0.042143
9330.0 0.041964
9350.0 0.041792
9370.0 0.041622
9390.0 0.041451
9410.0 0.041284
9430.0 0.041111
9450.0 0.040888
9470.0 0.040684
9490.0 0.040579
9510.0 0.040448
9530.0 0.040312
9550.0 0.040167
9570.0 0.04002
9590.0 0.039874
9610.0 0.039728
9630.0 0.03958
9650.0 0.039435
9670.0 0.039294
9690.0 0.03915
9710.0 0.039007
9730.0 0.038869
9750.0 0.03873
9770.0 0.038588
9790.0 0.03845
9810.0 0.038314
9830.0 0.038176
9850.0 0.038036
9870.0 0.037903
9890.0 0.037769
9910.0 0.037631
9930.0 0.037495
9950.0 0.037264
9970.0 0.037155
9990.0 0.037039
10010.0 0.036923
10030.0 0.036798
10050.0 0.036666
10070.0 0.036534
10090.0 0.036403
10110.0 0.036251
10130.0 0.036055
10150.0 0.035925
10170.0 0.035802
10190.0 0.03566
10210.0 0.035525
10230.0 0.035389
10250.0 0.035237
10270.0 0.035084
10290.0 0.034939
10310.0 0.034781
10330.0 0.034612
10350.0 0.034455
10370.0 0.034297
10390.0 0.034124
10410.0 0.033952
10430.0 0.033791
10450.0 0.033616
10470.0 0.033432
10490.0 0.033256
10510.0 0.033079
10530.0 0.03288
10550.0 0.032687
10570.0 0.032502
10590.0 0.032304
10610.0 0.032097
10630.0 0.031899
10650.0 0.031697
10670.0 0.031476
10690.0 0.031259
10710.0 0.031047
10730.0 0.030821
10750.0 0.030581
10770.0 0.030358
10790.0 0.030127
10810.0 0.02988
10830.0 0.029637
10850.0 0.0294
10870.0 0.029139
10890.0 0.028874
10910.0 0.028619
10930.0 0.028356
10950.0 0.028075
10970.0 0.027799
10990.0 0.027532
11010.0 0.028824
11030.0 0.028527
11050.0 0.028244
11070.0 0.027959
11090.0 0.027656
11110.0 0.027376
11130.0 0.027104
11150.0 0.026825
11170.0 0.026549
11190.0 0.026292
11210.0 0.026031
11230.0 0.025768
11250.0 0.025521
11270.0 0.025285
11290.0 0.025045
11310.0 0.024812
11330.0 0.024599
11350.0 0.024386
11370.0 0.024171
11390.0 0.023964
11410.0 0.02376
11430.0 0.023539
11450.0 0.023316
11470.0 0.023089
11490.0 0.022845
11510.0 0.022578
11530.0 0.022306
11550.0 0.02202
11570.0 0.021707
11590.0 0.021381
11610.0 0.021051
11630.0 0.020697
11650.0 0.020323
11670.0 0.019957
11690.0 0.019584
11710.0 0.019194
11730.0 0.018803
11750.0 0.018425
11770.0 0.01803
11790.0 0.01763
11810.0 0.01724
11830.0 0.01685
11850.0 0.016441
11870.0 0.016045
11890.0 0.015662
11910.0 0.015272
11930.0 0.014883
11950.0 0.014514
11970.0 0.014152
11990.0 0.013787
12010.0 0.013443
12030.0 0.01312
12050.0 0.012805
12070.0 0.012502
12090.0 0.012233
12110.0 0.01198
12130.0 0.011742
12150.0 0.01153
12170.0 0.011345
12190.0 0.011176
12210.0 0.011034
12230.0 0.01092
12250.0 0.01083
12270.0 0.010765
12290.0 0.010726
12310.0 0.010708
12330.0 0.010713
12350.0 0.010738
12370.0 0.010777
12390.0 0.010831
12410.0 0.010903
12430.0 0.010977
12450.0 0.011055
12470.0 0.01114
12490.0 0.011225
12510.0 0.011303
12530.0 0.011381
12550.0 0.011456
12570.0 0.011519
12590.0 0.011571
12610.0 0.011616
12630.0 0.011647
12650.0 0.011657
12670.0 0.011654
12690.0 0.011633
12710.0 0.011591
12730.0 0.011531
12750.0 0.011451
12770.0 0.011351
12790.0 0.011234
12810.0 0.0111
12830.0 0.010949
12850.0 0.01079
12870.0 0.010623
12890.0 0.010445
12910.0 0.010265
12930.0 0.010088
12950.0 0.0099057
12970.0 0.0097238
12990.0 0.0095519
13010.0 0.0093844
13030.0 0.0092186
13050.0 0.0090604
13070.0 0.0089119
13090.0 0.0087649
13110.0 0.0086228
13130.0 0.0084894
13150.0 0.008361
13170.0 0.0082336
13190.0 0.0081143
13210.0 0.0080023
13230.0 0.0078927
13250.0 0.0077872
13270.0 0.007689
13290.0 0.007594
13310.0 0.0075008
13330.0 0.0074131
13350.0 0.0073297
13370.0 0.0072477
13390.0 0.0071675
13410.0 0.0070925
13430.0 0.0070187
13450.0 0.0069454
13470.0 0.0068746
13490.0 0.0068062
13510.0 0.0067362
13530.0 0.0066674
13550.0 0.0066009
13570.0 0.0065342
13590.0 0.0064665
13610.0 0.0064005
13630.0 0.006336
13650.0 0.0062698
13670.0 0.0062042
13690.0 0.0061407
13710.0 0.006077
13730.0 0.0060117
13750.0 0.0059499
13770.0 0.0058893
13790.0 0.0058282
13810.0 0.0057685
13830.0 0.0057119
13850.0 0.0056553
13870.0 0.0055993
13890.0 0.0055464
13910.0 0.0054954
13930.0 0.0054446
13950.0 0.0053958
13970.0 0.0053505
13990.0 0.0053056
14010.0 0.0052614
14030.0 0.0052195
14050.0 0.0051787
14070.0 0.0051366
14090.0 0.005096
14110.0 0.0050566
14130.0 0.0050166
14150.0 0.0049762
14170.0 0.0049379
14190.0 0.0049003
14210.0 0.0048624
14230.0 0.0048264
14250.0 0.0047929
14270.0 0.0047602
14290.0 0.0047292
14310.0 0.0047022
14330.0 0.0046774
14350.0 0.0046545
14370.0 0.0046345
14390.0 0.0046175
14410.0 0.0046018
14430.0 0.0045879
14450.0 0.0045759
14470.0 0.0045651
14490.0 0.0045545
14510.0 0.004545
14530.0 0.0045361
14550.0 0.0045272
14570.0 0.0045184
14590.0 0.0045106
14610.0 0.0045032
14630.0 0.0044966
14650.0 0.0044922
14670.0 0.0044906
14690.0 0.0044923
14710.0 0.004499
14730.0 0.0045116
14750.0 0.0045312
14770.0 0.0045599
14790.0 0.0045979
14810.0 0.0046455
14830.0 0.0047079
14850.0 0.0047828
14870.0 0.0048673
14890.0 0.0049643
14910.0 0.0050732
14930.0 0.0051844
14950.0 0.0052943
14970.0 0.0054039
14990.0 0.005503
15010.0 0.0055865
15030.0 0.0056567
15050.0 0.0057136
15070.0 0.0057555
15090.0 0.0057883
15110.0 0.0058152
15130.0 0.005838
15150.0 0.0058588
15170.0 0.0058788
15190.0 0.0058987
15210.0 0.0059187
15230.0 0.0059391
15250.0 0.0059599
15270.0 0.005981
15290.0 0.0060027
15310.0 0.0060247
15330.0 0.0060471
15350.0 0.00607
15370.0 0.0060932
15390.0 0.0061168
15410.0 0.0061409
15430.0 0.0061653
15450.0 0.0061901
15470.0 0.0062152
15490.0 0.0062407
15510.0 0.0062666
15530.0 0.0062928
15550.0 0.0063194
15570.0 0.0063464
15590.0 0.0063736
15610.0 0.0064012
15630.0 0.0064291
15650.0 0.0064573
15670.0 0.0064858
15690.0 0.0065146
15710.0 0.0065437
15730.0 0.0065731
15750.0 0.0066028
15770.0 0.0066327
15790.0 0.0066629
15810.0 0.0066933
15830.0 0.006724
15850.0 0.0067549
15870.0 0.0067861
15890.0 0.0068174
15910.0 0.006849
15930.0 0.0068808
15950.0 0.0069127
15970.0 0.0069448
15990.0 0.0069771
16010.0 0.0070095
16030.0 0.0070421
16050.0 0.0070748
16070.0 0.0071077
16090.0 0.0071406
16110.0 0.0071737
16130.0 0.0072069
16150.0 0.0072401
16170.0 0.0072734
16190.0 0.0073067
16210.0 0.0073402
16230.0 0.0073736
16250.0 0.0074071
16270.0 0.0074406
16290.0 0.007474
16310.0 0.0075075
16330.0 0.007541
16350.0 0.0075744
16370.0 0.0076077
16390.0 0.007641
16410.0 0.0076743
16430.0 0.0077074
16450.0 0.0077404
16470.0 0.0077734
16490.0 0.0078062
16510.0 0.0078388
16530.0 0.0078713
16550.0 0.0079037
16570.0 0.0079358
16590.0 0.0079678
16610.0 0.0079996
16630.0 0.0080312
16650.0 0.0080625
16670.0 0.0080936
16690.0 0.0081245
16710.0 0.008155
16730.0 0.0081853
16750.0 0.0082153
16770.0 0.008245
16790.0 0.0082744
16810.0 0.0083034
16830.0 0.0083321
16850.0 0.0083605
16870.0 0.0083884
16890.0 0.0084161
16910.0 0.0084432
16930.0 0.00847
16950.0 0.0084964
16970.0 0.0085224
16990.0 0.0085478
17010.0 0.0085729
17030.0 0.0085975
17050.0 0.0086216
17070.0 0.0086452
17090.0 0.0086684
17110.0 0.008691
17130.0 0.0087131
17150.0 0.0087346
17170.0 0.0087557
17190.0 0.0087762
17210.0 0.0087961
17230.0 0.0088154
17250.0 0.0088342
17270.0 0.0088524
17290.0 0.00887
17310.0 0.008887
17330.0 0.0089034
17350.0 0.0089191
17370.0 0.0089343
17390.0 0.0089488
17410.0 0.0089626
17430.0 0.0089758
17450.0 0.0089884
17470.0 0.0090002
17490.0 0.0090114
17510.0 0.009022
17530.0 0.0090319
17550.0 0.0090411
17570.0 0.0090496
17590.0 0.0090574
17610.0 0.0090645
17630.0 0.0090709
17650.0 0.0090766
17670.0 0.0090816
17690.0 0.0090858
17710.0 0.0090894
17730.0 0.0090923
17750.0 0.0090944
17770.0 0.0090959
17790.0 0.0090966
17810.0 0.0090966
17830.0 0.0090958
17850.0 0.0090944
17870.0 0.0090922
17890.0 0.0090893
17910.0 0.0090856
17930.0 0.0090813
17950.0 0.0090763
17970.0 0.0090705
17990.0 0.009064
18010.0 0.0090568
18030.0 0.0090489
18050.0 0.0090403
18070.0 0.009031
18090.0 0.009021
18110.0 0.0090103
18130.0 0.0089989
18150.0 0.0089868
18170.0 0.008974
18190.0 0.0089606
18210.0 0.0089465
18230.0 0.0089317
18250.0 0.0089162
18270.0 0.0089001
18290.0 0.0088833
18310.0 0.0088659
18330.0 0.0088479
18350.0 0.0088292
18370.0 0.0088099
18390.0 0.00879
18410.0 0.0087695
18430.0 0.0087484
18450.0 0.0087266
18470.0 0.0087043
18490.0 0.0086815
18510.0 0.008658
18530.0 0.008634
18550.0 0.0086095
18570.0 0.0085843
18590.0 0.0085587
18610.0 0.0085325
18630.0 0.0085058
18650.0 0.0084786
18670.0 0.0084509
18690.0 0.0084228
18710.0 0.0083941
18730.0 0.0083649
18750.0 0.0083354
18770.0 0.0083053
18790.0 0.0082748
18810.0 0.0082439
18830.0 0.0082126
18850.0 0.0081808
18870.0 0.0081487
18890.0 0.0081161
18910.0 0.0080832
18930.0 0.0080499
18950.0 0.0080163
18970.0 0.0079823
18990.0 0.0079479
19010.0 0.0079132
19030.0 0.0078783
19050.0 0.007843
19070.0 0.0078074
19090.0 0.0077715
19110.0 0.0077353
19130.0 0.0076989
19150.0 0.0076622
19170.0 0.0076252
19190.0 0.0075881
19210.0 0.0075506
19230.0 0.007513
19250.0 0.0074752
19270.0 0.0074372
19290.0 0.0073989
19310.0 0.0073605
19330.0 0.007322
19350.0 0.0072832
19370.0 0.0072443
19390.0 0.0072053
19410.0 0.0071661
19430.0 0.0071269
19450.0 0.0070875
19470.0 0.007048
19490.0 0.0070084
19510.0 0.0069687
19530.0 0.0069289
19550.0 0.0068891
19570.0 0.0068491
19590.0 0.0068092
19610.0 0.0067692
19630.0 0.0067291
19650.0 0.0066891
19670.0 0.006649
19690.0 0.0066089
19710.0 0.0065687
19730.0 0.0065286
19750.0 0.0064885
19770.0 0.0064484
19790.0 0.0064083
19810.0 0.0063682
19830.0 0.006328
19850.0 0.0062876
19870.0 0.0062467
19890.0 0.0062047
19910.0 0.0061604
19930.0 0.0061127
19950.0 0.00606
19970.0 0.0059993
19990.0 0.0059293
20010.0 0.0058512
20030.0 0.0057617
20050.0 0.0056616
20070.0 0.0055558
20090.0 0.0054455
20110.0 0.0053269
20130.0 0.0052095
20150.0 0.0050951
20170.0 0.00498
20190.0 0.0048658
20210.0 0.0047578
20230.0 0.0046529
20250.0 0.0045487
20270.0 0.0044503
20290.0 0.0043577
20310.0 0.0042678
20330.0 0.004181
20350.0 0.0041027
20370.0 0.0040285
20390.0 0.0039578
20410.0 0.0038928
20430.0 0.0038336
20450.0 0.0037772
20470.0 0.0037255
20490.0 0.0036788
20510.0 0.0036358
20530.0 0.0035959
20550.0 0.0035598
20570.0 0.0035268
20590.0 0.003496
20610.0 0.0034675
20630.0 0.0034409
20650.0 0.0034157
20670.0 0.0033916
20690.0 0.0033682
20710.0 0.0033453
20730.0 0.0033223
20750.0 0.0032992
20770.0 0.0032755
20790.0 0.0032512
20810.0 0.0032258
20830.0 0.0031995
20850.0 0.0031721
20870.0 0.0031431
20890.0 0.0031128
20910.0 0.0030817
20930.0 0.0030492
20950.0 0.0030153
20970.0 0.0029808
20990.0 0.0029458
21010.0 0.0029093
21030.0 0.0028724
21050.0 0.0028357
21070.0 0.0027985
21090.0 0.0027606
21110.0 0.0027237
21130.0 0.0026872
21150.0 0.0026504
21170.0 0.0026142
21190.0 0.0025792
21210.0 0.0025442
21230.0 0.0025096
21250.0 0.0024764
21270.0 0.0024441
21290.0 0.0024122
21310.0 0.0023813
21330.0 0.002352
21350.0 0.0023232
21370.0 0.0022952
21390.0 0.0022687
21410.0 0.0022433
21430.0 0.0022184
21450.0 0.0021949
21470.0 0.0021728
21490.0 0.0021515
21510.0 0.0021312
21530.0 0.0021121
21550.0 0.0020939
21570.0 0.0020764
21590.0 0.0020598
21610.0 0.002044
21630.0 0.0020288
21650.0 0.0020141
21670.0 0.002
21690.0 0.0019863
21710.0 0.0019728
21730.0 0.0019597
21750.0 0.0019467
21770.0 0.0019339
21790.0 0.0019213
21810.0 0.0019088
21830.0 0.0018965
21850.0 0.0018842
21870.0 0.0018721
21890.0 0.0018601
21910.0 0.0018481
21930.0 0.0018362
21950.0 0.0018244
21970.0 0.0018126
21990.0 0.0018008
22010.0 0.0017891
22030.0 0.0017772
22050.0 0.0017653
22070.0 0.0017531
22090.0 0.0017409
22110.0 0.0017285
22130.0 0.0017157
22150.0 0.0017028
22170.0 0.0016897
22190.0 0.0016761
22210.0 0.0016622
22230.0 0.0016482
22250.0 0.0016338
22270.0 0.001619
22290.0 0.001604
22310.0 0.0015888
22330.0 0.001573
22350.0 0.0015569
22370.0 0.0015406
22390.0 0.0015238
22410.0 0.0015063
22430.0 0.0014888
22450.0 0.001471
22470.0 0.0014524
22490.0 0.0014334
22510.0 0.0014145
22530.0 0.0013947
22550.0 0.0013743
22570.0 0.0013542
22590.0 0.0013338
22610.0 0.0013129
22630.0 0.0012921
22650.0 0.0012719
22670.0 0.0012514
22690.0 0.001231
22710.0 0.0012113
22730.0 0.0011922
22750.0 0.0011728
22770.0 0.0011545
22790.0 0.0011372
22810.0 0.0011203
22830.0 0.001104
22850.0 0.0010889
22870.0 0.0010744
22890.0 0.0010604
22910.0 0.0010473
22930.0 0.0010351
22950.0 0.0010234
22970.0 0.0010121
22990.0 0.0010018
23010.0 0.00099192
23030.0 0.00098231
23050.0 0.00097324
23070.0 0.00096464
23090.0 0.00095605
23110.0 0.00094778
23130.0 0.00093989
23150.0 0.00093214
23170.0 0.00092444
23190.0 0.00091702
23210.0 0.00090986
23230.0 0.00090269
23250.0 0.00089568
23270.0 0.00088895
23290.0 0.00088232
23310.0 0.0008757
23330.0 0.00086944
23350.0 0.0008634
23370.0 0.00085745
23390.0 0.00085172
23410.0 0.00084633
23430.0 0.00084107
23450.0 0.00083601
23470.0 0.00083126
23490.0 0.00082678
23510.0 0.00082245
23530.0 0.00081841
23550.0 0.00081472
23570.0 0.00081128
23590.0 0.00080813
23610.0 0.00080536
23630.0 0.00080296
23650.0 0.00080098
23670.0 0.00079949
23690.0 0.0007985
23710.0 0.00079813
23730.0 0.00079851
23750.0 0.00079953
23770.0 0.00080132
23790.0 0.00080415
23810.0 0.00080789
23830.0 0.0008124
23850.0 0.00081822
23870.0 0.00082526
23890.0 0.00083291
23910.0 0.00084148
23930.0 0.00085126
23950.0 0.00086154
23970.0 0.00087186
23990.0 0.000883
24010.0 0.00089439
24030.0 0.0009053
24050.0 0.00091603
24070.0 0.00092706
24090.0 0.00093711
24110.0 0.00094635
24130.0 0.00095536
24150.0 0.00096386
24170.0 0.0009714
24190.0 0.00097861
24210.0 0.00098566
24230.0 0.00099208
24250.0 0.00099804
24270.0 0.001004
24290.0 0.0010099
24310.0 0.0010151
24330.0 0.0010205
24350.0 0.0010259
