#lamb flux
1010.0 3.6735e-07
1030.0 4.1216e-07
1050.0 4.637e-07
1070.0 5.2172e-07
1090.0 5.8762e-07
1110.0 6.5522e-07
1130.0 7.2325e-07
1150.0 7.9451e-07
1170.0 8.6802e-07
1190.0 9.3773e-07
1210.0 1.0084e-06
1230.0 1.0814e-06
1250.0 1.1529e-06
1270.0 1.2224e-06
1290.0 1.2958e-06
1310.0 1.3691e-06
1330.0 1.4394e-06
1350.0 1.5105e-06
1370.0 1.584e-06
1390.0 1.6555e-06
1410.0 1.725e-06
1430.0 1.7976e-06
1450.0 1.8702e-06
1470.0 1.9403e-06
1490.0 2.0112e-06
1510.0 2.0861e-06
1530.0 2.157e-06
1550.0 2.2269e-06
1570.0 2.2992e-06
1590.0 2.3715e-06
1610.0 2.4406e-06
1630.0 2.5118e-06
1650.0 2.5848e-06
1670.0 2.6553e-06
1690.0 2.7248e-06
1710.0 2.797e-06
1730.0 2.8694e-06
1750.0 2.9373e-06
1770.0 3.007e-06
1790.0 3.078e-06
1810.0 3.1465e-06
1830.0 3.2135e-06
1850.0 3.2844e-06
1870.0 3.353e-06
1890.0 3.4188e-06
1910.0 3.4856e-06
1930.0 3.5535e-06
1950.0 3.6176e-06
1970.0 3.6802e-06
1990.0 3.7446e-06
2010.0 3.807e-06
2030.0 3.8659e-06
2050.0 3.9259e-06
2070.0 3.9864e-06
2090.0 4.0417e-06
2110.0 4.0954e-06
2130.0 4.1496e-06
2150.0 4.2009e-06
2170.0 4.2475e-06
2190.0 4.2947e-06
2210.0 4.3403e-06
2230.0 4.3811e-06
2250.0 4.4194e-06
2270.0 4.4581e-06
2290.0 4.4923e-06
2310.0 4.5213e-06
2330.0 4.5498e-06
2350.0 4.5763e-06
2370.0 4.5982e-06
2390.0 4.6194e-06
2410.0 4.6441e-06
2430.0 4.6692e-06
2450.0 4.6973e-06
2470.0 4.7356e-06
2490.0 4.787e-06
2510.0 4.8463e-06
2530.0 4.9288e-06
2550.0 5.0553e-06
2570.0 5.2443e-06
2590.0 5.5259e-06
2610.0 5.9885e-06
2630.0 6.6607e-06
2650.0 7.5157e-06
2670.0 8.5742e-06
2690.0 9.8023e-06
2710.0 1.1018e-05
2730.0 1.2123e-05
2750.0 1.3121e-05
2770.0 1.3891e-05
2790.0 1.4407e-05
2810.0 1.4738e-05
2830.0 1.4926e-05
2850.0 1.4973e-05
2870.0 1.4944e-05
2890.0 1.4878e-05
2910.0 1.4784e-05
2930.0 1.4671e-05
2950.0 1.4558e-05
2970.0 1.4448e-05
2990.0 1.4335e-05
3010.0 0.00037144
3030.0 0.00036864
3050.0 0.00036587
3070.0 0.00036289
3090.0 0.00035979
3110.0 0.0003562
3130.0 0.0003517
3150.0 0.00034606
3170.0 0.00033876
3190.0 0.00032998
3210.0 0.00032033
3230.0 0.00031036
3250.0 0.00030113
3270.0 0.00029453
3290.0 0.00029078
3310.0 0.00029111
3330.0 0.00029511
3350.0 0.00030225
3370.0 0.00031261
3390.0 0.00032581
3410.0 0.00034031
3430.0 0.00035676
3450.0 0.00037581
3470.0 0.00039668
3490.0 0.00041887
3510.0 0.00044393
3530.0 0.00047095
3550.0 0.00049896
3570.0 0.00052912
3590.0 0.00056306
3610.0 0.00059971
3630.0 0.00063767
3650.0 0.00067779
3670.0 0.00071505
3690.0 0.00074372
3710.0 0.00076001
3730.0 0.00075767
3750.0 0.00073613
3770.0 0.00070531
3790.0 0.00065421
3810.0 0.00056163
3830.0 0.00050383
3850.0 0.00049622
3870.0 0.00037677
3890.0 0.00043955
3910.0 0.00065033
3930.0 0.00081303
3950.0 0.00083451
3970.0 0.00091759
3990.0 0.00093491
4010.0 0.001295
4030.0 0.0012465
4050.0 0.0011038
4070.0 0.0010914
4090.0 0.0010433
4110.0 0.001185
4130.0 0.0013305
4150.0 0.0014697
4170.0 0.0013489
4190.0 0.0012993
4210.0 0.0013416
4230.0 0.00157
4250.0 0.0017601
4270.0 0.0018385
4290.0 0.0017852
4310.0 0.0017447
4330.0 0.001862
4350.0 0.0022484
4370.0 0.0026152
4390.0 0.0023161
4410.0 0.0016877
4430.0 0.0013583
4450.0 0.0011855
4470.0 0.0010738
4490.0 0.001303
4510.0 0.0017545
4530.0 0.0020171
4550.0 0.0021894
4570.0 0.0023628
4590.0 0.0027613
4610.0 0.0040768
4630.0 0.0052417
4650.0 0.0051829
4670.0 0.0047983
4690.0 0.0051018
4710.0 0.0054257
4730.0 0.0045
4750.0 0.0030536
4770.0 0.0023803
4790.0 0.0024266
4810.0 0.002336
4830.0 0.0022357
4850.0 0.0025136
4870.0 0.0032972
4890.0 0.0038401
4910.0 0.0031227
4930.0 0.0028183
4950.0 0.0031769
4970.0 0.0042889
4990.0 0.0056836
5010.0 0.0062587
5030.0 0.0050809
5050.0 0.0031471
5070.0 0.0021834
5090.0 0.0018586
5110.0 0.0018824
5130.0 0.0020855
5150.0 0.0021249
5170.0 0.0020868
5190.0 0.0019938
5210.0 0.0019889
5230.0 0.0021765
5250.0 0.0024014
5270.0 0.0025515
5290.0 0.0028982
5310.0 0.0034225
5330.0 0.003534
5350.0 0.003513
5370.0 0.0038765
5390.0 0.0044467
5410.0 0.0041206
5430.0 0.0033712
5450.0 0.0031763
5470.0 0.0036086
5490.0 0.004624
5510.0 0.0058706
5530.0 0.0066489
5550.0 0.0062533
5570.0 0.0056097
5590.0 0.0048437
5610.0 0.0046247
5630.0 0.0046555
5650.0 0.0046067
5670.0 0.0044076
5690.0 0.0038819
5710.0 0.0037835
5730.0 0.0035485
5750.0 0.0022519
5770.0 0.001858
5790.0 0.0021602
5810.0 0.0025459
5830.0 0.0031871
5850.0 0.0037261
5870.0 0.003882
5890.0 0.0037215
5910.0 0.0035695
5930.0 0.0035372
5950.0 0.0036893
5970.0 0.0041856
5990.0 0.0037683
6010.0 0.0030622
6030.0 0.0025218
6050.0 0.0021969
6070.0 0.0023275
6090.0 0.0026467
6110.0 0.0028487
6130.0 0.0026882
6150.0 0.0023365
6170.0 0.0023372
6190.0 0.0028545
6210.0 0.0037608
6230.0 0.0047108
6250.0 0.0048239
6270.0 0.004084
6290.0 0.0034123
6310.0 0.0026716
6330.0 0.0020598
6350.0 0.0018912
6370.0 0.0020152
6390.0 0.0024161
6410.0 0.002898
6430.0 0.0034101
6450.0 0.0040569
6470.0 0.0047057
6490.0 0.0057797
6510.0 0.0064601
6530.0 0.0061537
6550.0 0.0056378
6570.0 0.0051649
6590.0 0.0049874
6610.0 0.0043159
6630.0 0.0040678
6650.0 0.0037796
6670.0 0.0037321
6690.0 0.0034587
6710.0 0.0031507
6730.0 0.0024605
6750.0 0.0023686
6770.0 0.002594
6790.0 0.0030868
6810.0 0.002811
6830.0 0.0028888
6850.0 0.0027187
6870.0 0.0025939
6890.0 0.0024485
6910.0 0.0024958
6930.0 0.0023309
6950.0 0.0025016
6970.0 0.0025265
6990.0 0.0028199
7010.0 0.0029518
7030.0 0.0028706
7050.0 0.0026298
7070.0 0.0024787
7090.0 0.0023846
7110.0 0.0023037
7130.0 0.002439
7150.0 0.0026545
7170.0 0.0028753
7190.0 0.0029385
7210.0 0.0027715
7230.0 0.0028355
7250.0 0.0031878
7270.0 0.0036619
7290.0 0.0041375
7310.0 0.0041267
7330.0 0.0036979
7350.0 0.0032988
7370.0 0.002891
7390.0 0.0029529
7410.0 0.0032781
7430.0 0.0036214
7450.0 0.0039109
7470.0 0.0040613
7490.0 0.0042204
7510.0 0.0049509
7530.0 0.0045504
7550.0 0.0039095
7570.0 0.0029336
7590.0 0.0019331
7610.0 0.0016565
7630.0 0.0018865
7650.0 0.0022416
7670.0 0.002798
7690.0 0.003173
7710.0 0.0032465
7730.0 0.0032933
7750.0 0.0036245
7770.0 0.0036308
7790.0 0.0034488
7810.0 0.0032829
7830.0 0.003284
7850.0 0.003126
7870.0 0.0028949
7890.0 0.0025056
7910.0 0.0020132
7930.0 0.001817
7950.0 0.0016394
7970.0 0.0015461
7990.0 0.001546
8010.0 0.0016027
8030.0 0.0015871
8050.0 0.0016172
8070.0 0.0016178
8090.0 0.0017026
8110.0 0.0016013
8130.0 0.0013232
8150.0 0.0012512
8170.0 0.0010906
8190.0 0.0010404
8210.0 0.0012039
8230.0 0.0013112
8250.0 0.0011187
8270.0 0.00098985
8290.0 0.00087819
8310.0 0.00062239
8330.0 0.00039954
8350.0 0.00029727
8370.0 0.0002732
8390.0 0.00036042
8410.0 0.0004529
8430.0 0.00055697
8450.0 0.00061803
8470.0 0.00073199
8490.0 0.00069442
8510.0 0.00067185
8530.0 0.00065096
8550.0 0.00088491
8570.0 0.001141
8590.0 0.0012009
8610.0 0.0014988
8630.0 0.0017193
8650.0 0.0016691
8670.0 0.0017631
8690.0 0.0018738
8710.0 0.0017314
8730.0 0.0016948
8750.0 0.0015236
8770.0 0.0014471
8790.0 0.0014651
8810.0 0.0014278
8830.0 0.0011249
8850.0 0.00087339
8870.0 0.00071708
8890.0 0.00077109
8910.0 0.00089145
8930.0 0.00099264
8950.0 0.0011242
8970.0 0.0011308
8990.0 0.0010576
9010.0 0.00094406
9030.0 0.00090876
9050.0 0.00092217
9070.0 0.00093347
9090.0 0.00094209
9110.0 0.00095081
9130.0 0.0009578
9150.0 0.00096369
9170.0 0.00096993
9190.0 0.0009766
9210.0 0.00098361
9230.0 0.00099101
9250.0 0.00099873
9270.0 0.0010068
9290.0 0.0010151
9310.0 0.0010236
9330.0 0.0010325
9350.0 0.0010416
9370.0 0.001051
9390.0 0.0010606
9410.0 0.0010705
9430.0 0.0010807
9450.0 0.0010911
9470.0 0.0011018
9490.0 0.0011127
9510.0 0.0011238
9530.0 0.0011353
9550.0 0.0011469
9570.0 0.0011588
9590.0 0.0011709
9610.0 0.0011833
9630.0 0.0011959
9650.0 0.0012086
9670.0 0.0012217
9690.0 0.0012349
9710.0 0.0012483
9730.0 0.001262
9750.0 0.0012758
9770.0 0.0012898
9790.0 0.001304
9810.0 0.0013183
9830.0 0.0013328
9850.0 0.0013475
9870.0 0.0013624
9890.0 0.0013773
9910.0 0.0013924
9930.0 0.0014077
9950.0 0.001423
9970.0 0.0014385
9990.0 0.001454
10010.0 0.0013823
10030.0 0.0013967
10050.0 0.0014111
10070.0 0.0014255
10090.0 0.0014401
10110.0 0.0014547
10130.0 0.0014693
10150.0 0.0014839
10170.0 0.0014985
10190.0 0.0015131
10210.0 0.0015276
10230.0 0.0015421
10250.0 0.0015566
10270.0 0.0015709
10290.0 0.0015853
10310.0 0.0015995
10330.0 0.0016135
10350.0 0.0016275
10370.0 0.0016414
10390.0 0.0016551
10410.0 0.0016687
10430.0 0.0016821
10450.0 0.0016954
10470.0 0.0017084
10490.0 0.0017213
10510.0 0.0017339
10530.0 0.0017463
10550.0 0.0017585
10570.0 0.0017705
10590.0 0.0017822
10610.0 0.0017936
10630.0 0.0018048
10650.0 0.0018157
10670.0 0.0018262
10690.0 0.0018365
10710.0 0.0018465
10730.0 0.0018561
10750.0 0.0018654
10770.0 0.0018744
10790.0 0.001883
10810.0 0.0018913
10830.0 0.0018991
10850.0 0.0019064
10870.0 0.0019129
10890.0 0.0019183
10910.0 0.001922
10930.0 0.001923
10950.0 0.0019199
10970.0 0.0019116
10990.0 0.0018978
11010.0 0.0018681
11030.0 0.001839
11050.0 0.001804
11070.0 0.0017622
11090.0 0.0017118
11110.0 0.0016596
11130.0 0.0016051
11150.0 0.0015463
11170.0 0.0014858
11190.0 0.0014275
11210.0 0.0013678
11230.0 0.0013073
11250.0 0.0012503
11270.0 0.0011965
11290.0 0.0011434
11310.0 0.001094
11330.0 0.0010512
11350.0 0.0010113
11370.0 0.00097476
11390.0 0.00094328
11410.0 0.00091562
11430.0 0.00088957
11450.0 0.00086648
11470.0 0.00084572
11490.0 0.00082546
11510.0 0.00080491
11530.0 0.00078491
11550.0 0.00076433
11570.0 0.00074191
11590.0 0.00071846
11610.0 0.00069457
11630.0 0.00066877
11650.0 0.00064149
11670.0 0.00061496
11690.0 0.00058844
11710.0 0.00056152
11730.0 0.00053579
11750.0 0.00051223
11770.0 0.0004894
11790.0 0.0004682
11810.0 0.0004496
11830.0 0.00043297
11850.0 0.00041761
11870.0 0.00040456
11890.0 0.00039342
11910.0 0.00038329
11930.0 0.00037414
11950.0 0.00036601
11970.0 0.00035825
11990.0 0.00035042
12010.0 0.00034272
12030.0 0.00033499
12050.0 0.0003268
12070.0 0.00031816
12090.0 0.00030974
12110.0 0.00030113
12130.0 0.0002924
12150.0 0.00028413
12170.0 0.00027657
12190.0 0.00026944
12210.0 0.00026345
12230.0 0.00025885
12250.0 0.00025561
12270.0 0.00025394
12290.0 0.00025397
12310.0 0.00025552
12330.0 0.00025884
12350.0 0.00026375
12370.0 0.0002698
12390.0 0.00027713
12410.0 0.00028602
12430.0 0.00029509
12450.0 0.00030447
12470.0 0.00031442
12490.0 0.00032426
12510.0 0.00033325
12530.0 0.00034199
12550.0 0.00035015
12570.0 0.00035698
12590.0 0.00036259
12610.0 0.00036723
12630.0 0.00037043
12650.0 0.00037199
12670.0 0.00037233
12690.0 0.00037133
12710.0 0.00036902
12730.0 0.00036558
12750.0 0.00036093
12770.0 0.00035532
12790.0 0.000349
12810.0 0.00034187
12830.0 0.00033395
12850.0 0.00032582
12870.0 0.00031735
12890.0 0.0003083
12910.0 0.0002991
12930.0 0.00028996
12950.0 0.0002804
12970.0 0.00027056
12990.0 0.00026105
13010.0 0.00025152
13030.0 0.00024174
13050.0 0.00023215
13070.0 0.000223
13090.0 0.0002137
13110.0 0.00020459
13130.0 0.00019607
13150.0 0.00018794
13170.0 0.00017996
13190.0 0.00017281
13210.0 0.0001665
13230.0 0.00016076
13250.0 0.00015581
13270.0 0.00015189
13290.0 0.00014882
13310.0 0.00014666
13330.0 0.00014553
13350.0 0.00014533
13370.0 0.00014607
13390.0 0.00014776
13410.0 0.00015007
13430.0 0.0001531
13450.0 0.00015683
13470.0 0.0001609
13490.0 0.00016513
13510.0 0.00016987
13530.0 0.00017459
13550.0 0.00017902
13570.0 0.00018332
13590.0 0.00018747
13610.0 0.00019106
13630.0 0.00019412
13650.0 0.00019685
13670.0 0.00019901
13690.0 0.00020055
13710.0 0.00020161
13730.0 0.00020218
13750.0 0.00020217
13770.0 0.00020172
13790.0 0.00020084
13810.0 0.00019955
13830.0 0.00019796
13850.0 0.00019601
13870.0 0.00019374
13890.0 0.00019126
13910.0 0.00018859
13930.0 0.00018562
13950.0 0.00018248
13970.0 0.00017936
13990.0 0.00017604
14010.0 0.00017261
14030.0 0.00016926
14050.0 0.00016595
14070.0 0.00016254
14090.0 0.00015933
14110.0 0.00015636
14130.0 0.00015354
14150.0 0.00015094
14170.0 0.00014876
14190.0 0.00014692
14210.0 0.00014541
14230.0 0.00014434
14250.0 0.0001437
14270.0 0.00014348
14290.0 0.00014372
14310.0 0.00014437
14330.0 0.00014541
14350.0 0.00014687
14370.0 0.00014865
14390.0 0.00015064
14410.0 0.00015298
14430.0 0.00015556
14450.0 0.00015821
14470.0 0.000161
14490.0 0.00016404
14510.0 0.00016705
14530.0 0.00017005
14550.0 0.00017322
14570.0 0.00017649
14590.0 0.00017972
14610.0 0.00018314
14630.0 0.00018687
14650.0 0.00019069
14670.0 0.00019468
14690.0 0.00019911
14710.0 0.00020394
14730.0 0.00020883
14750.0 0.00021417
14770.0 0.00022003
14790.0 0.00022607
14810.0 0.00023225
14830.0 0.0002391
14850.0 0.00024602
14870.0 0.00025278
14890.0 0.0002596
14910.0 0.00026641
14930.0 0.0002726
14950.0 0.00027812
14970.0 0.00028311
14990.0 0.00028715
15010.0 0.00029014
15030.0 0.00029228
15050.0 0.00029364
15070.0 0.00029427
15090.0 0.00029446
15110.0 0.00029433
15130.0 0.00029402
15150.0 0.00029363
15170.0 0.00029318
15190.0 0.00029269
15210.0 0.00029222
15230.0 0.00029176
15250.0 0.00029127
15270.0 0.00029079
15290.0 0.00029036
15310.0 0.0002899
15330.0 0.00028944
15350.0 0.000289
15370.0 0.00028858
15390.0 0.00028811
15410.0 0.00028767
15430.0 0.00028725
15450.0 0.00028681
15470.0 0.00028636
15490.0 0.00028594
15510.0 0.00028553
15530.0 0.00028509
15550.0 0.00028466
15570.0 0.00028426
15590.0 0.00028382
15610.0 0.00028337
15630.0 0.00028296
15650.0 0.00028254
15670.0 0.0002821
15690.0 0.00028167
15710.0 0.00028127
15730.0 0.00028083
15750.0 0.00028039
15770.0 0.00027997
15790.0 0.00027954
15810.0 0.00027907
15830.0 0.00027863
15850.0 0.00027821
15870.0 0.00027776
15890.0 0.0002773
15910.0 0.00027687
15930.0 0.00027642
15950.0 0.00027594
15970.0 0.00027548
15990.0 0.00027503
16010.0 0.00027454
16030.0 0.00027405
16050.0 0.00027359
16070.0 0.00027311
16090.0 0.00027261
16110.0 0.00027212
16130.0 0.00027164
16150.0 0.00027111
16170.0 0.00027059
16190.0 0.00027009
16210.0 0.00026957
16230.0 0.00026902
16250.0 0.0002685
16270.0 0.00026798
16290.0 0.00026742
16310.0 0.00026686
16330.0 0.00026633
16350.0 0.00026576
16370.0 0.00026516
16390.0 0.00026459
16410.0 0.00026402
16430.0 0.00026342
16450.0 0.00026282
16470.0 0.00026224
16490.0 0.00026162
16510.0 0.00026098
16530.0 0.00026037
16550.0 0.00025975
16570.0 0.00025909
16590.0 0.00025843
16610.0 0.0002578
16630.0 0.00025714
16650.0 0.00025645
16670.0 0.00025579
16690.0 0.00025513
16710.0 0.00025441
16730.0 0.00025371
16750.0 0.00025302
16770.0 0.0002523
16790.0 0.00025156
16810.0 0.00025085
16830.0 0.00025013
16850.0 0.00024937
16870.0 0.00024862
16890.0 0.00024789
16910.0 0.00024711
16930.0 0.00024632
16950.0 0.00024556
16970.0 0.00024478
16990.0 0.00024397
17010.0 0.00024317
17030.0 0.00024239
17050.0 0.00024156
17070.0 0.00024073
17090.0 0.00023992
17110.0 0.00023909
17130.0 0.00023822
17150.0 0.00023738
17170.0 0.00023655
17190.0 0.00023568
17210.0 0.0002348
17230.0 0.00023395
17250.0 0.00023307
17270.0 0.00023216
17290.0 0.00023128
17310.0 0.00023039
17330.0 0.00022947
17350.0 0.00022855
17370.0 0.00022766
17390.0 0.00022674
17410.0 0.0002258
17430.0 0.00022487
17450.0 0.00022396
17470.0 0.00022299
17490.0 0.00022203
17510.0 0.00022109
17530.0 0.00022014
17550.0 0.00021915
17570.0 0.0002182
17590.0 0.00021724
17610.0 0.00021625
17630.0 0.00021526
17650.0 0.0002143
17670.0 0.0002133
17690.0 0.00021227
17710.0 0.00021129
17730.0 0.0002103
17750.0 0.00020928
17770.0 0.00020827
17790.0 0.00020729
17810.0 0.00020626
17830.0 0.00020522
17850.0 0.00020421
17870.0 0.00020319
17890.0 0.00020214
17910.0 0.0002011
17930.0 0.00020009
17950.0 0.00019905
17970.0 0.000198
17990.0 0.00019697
18010.0 0.00019594
18030.0 0.00019486
18050.0 0.00019381
18070.0 0.00019278
18090.0 0.00019172
18110.0 0.00019065
18130.0 0.00018961
18150.0 0.00018856
18170.0 0.00018749
18190.0 0.00018643
18210.0 0.00018539
18230.0 0.00018431
18250.0 0.00018323
18270.0 0.00018218
18290.0 0.00018113
18310.0 0.00018004
18330.0 0.00017898
18350.0 0.00017794
18370.0 0.00017686
18390.0 0.00017578
18410.0 0.00017473
18430.0 0.00017367
18450.0 0.00017258
18470.0 0.00017152
18490.0 0.00017047
18510.0 0.00016939
18530.0 0.00016832
18550.0 0.00016728
18570.0 0.00016622
18590.0 0.00016513
18610.0 0.00016408
18630.0 0.00016303
18650.0 0.00016196
18670.0 0.00016088
18690.0 0.00015985
18710.0 0.0001588
18730.0 0.00015773
18750.0 0.00015668
18770.0 0.00015565
18790.0 0.00015457
18810.0 0.00015352
18830.0 0.00015249
18850.0 0.00015145
18870.0 0.00015039
18890.0 0.00014936
18910.0 0.00014834
18930.0 0.00014728
18950.0 0.00014625
18970.0 0.00014523
18990.0 0.0001442
19010.0 0.00014314
19030.0 0.00014214
19050.0 0.00014113
19070.0 0.00014009
19090.0 0.00013908
19110.0 0.00013809
19130.0 0.00013706
19150.0 0.00013604
19170.0 0.00013505
19190.0 0.00013405
19210.0 0.00013303
19230.0 0.00013203
19250.0 0.00013106
19270.0 0.00013006
19290.0 0.00012906
19310.0 0.0001281
19330.0 0.00012712
19350.0 0.00012612
19370.0 0.00012514
19390.0 0.00012419
19410.0 0.00012321
19430.0 0.00012223
19450.0 0.00012129
19470.0 0.00012034
19490.0 0.00011937
19510.0 0.00011842
19530.0 0.00011749
19550.0 0.00011653
19570.0 0.00011557
19590.0 0.00011465
19610.0 0.00011372
19630.0 0.00011278
19650.0 0.00011186
19670.0 0.00011095
19690.0 0.00011002
19710.0 0.0001091
19730.0 0.0001082
19750.0 0.00010729
19770.0 0.00010636
19790.0 0.00010547
19810.0 0.00010459
19830.0 0.00010368
19850.0 0.00010278
19870.0 0.0001019
19890.0 0.00010098
19910.0 0.00010001
19930.0 9.9011e-05
19950.0 9.794e-05
19970.0 9.6717e-05
19990.0 9.5341e-05
20010.0 9.5188e-05
20030.0 9.3465e-05
20050.0 9.1539e-05
20070.0 8.9526e-05
20090.0 8.7425e-05
20110.0 8.5129e-05
20130.0 8.2861e-05
20150.0 8.0659e-05
20170.0 7.8425e-05
20190.0 7.6202e-05
20210.0 7.4129e-05
20230.0 7.2131e-05
20250.0 7.0154e-05
20270.0 6.8328e-05
20290.0 6.6666e-05
20310.0 6.5093e-05
20330.0 6.3626e-05
20350.0 6.2399e-05
20370.0 6.1307e-05
20390.0 6.0347e-05
20410.0 5.9565e-05
20430.0 5.8955e-05
20450.0 5.8472e-05
20470.0 5.8148e-05
20490.0 5.7971e-05
20510.0 5.7921e-05
20530.0 5.8003e-05
20550.0 5.8195e-05
20570.0 5.8471e-05
20590.0 5.8851e-05
20610.0 5.9313e-05
20630.0 5.982e-05
20650.0 6.0389e-05
20670.0 6.1042e-05
20690.0 6.1701e-05
20710.0 6.2375e-05
20730.0 6.3099e-05
20750.0 6.3847e-05
20770.0 6.4567e-05
20790.0 6.5315e-05
20810.0 6.6097e-05
20830.0 6.686e-05
20850.0 6.7614e-05
20870.0 6.8416e-05
20890.0 6.9225e-05
20910.0 6.9993e-05
20930.0 7.0788e-05
20950.0 7.161e-05
20970.0 7.2408e-05
20990.0 7.3193e-05
21010.0 7.4025e-05
21030.0 7.4841e-05
21050.0 7.5619e-05
21070.0 7.6403e-05
21090.0 7.72e-05
21110.0 7.7929e-05
21130.0 7.8624e-05
21150.0 7.9313e-05
21170.0 7.9954e-05
21190.0 8.0522e-05
21210.0 8.1064e-05
21230.0 8.1557e-05
21250.0 8.1956e-05
21270.0 8.2281e-05
21290.0 8.2538e-05
21310.0 8.2696e-05
21330.0 8.2747e-05
21350.0 8.27e-05
21370.0 8.2534e-05
21390.0 8.2248e-05
21410.0 8.1841e-05
21430.0 8.1274e-05
21450.0 8.058e-05
21470.0 7.9774e-05
21490.0 7.8817e-05
21510.0 7.7717e-05
21530.0 7.6546e-05
21550.0 7.5272e-05
21570.0 7.386e-05
21590.0 7.2414e-05
21610.0 7.0958e-05
21630.0 6.9442e-05
21650.0 6.789e-05
21670.0 6.647e-05
21690.0 6.5084e-05
21710.0 6.3745e-05
21730.0 6.254e-05
21750.0 6.1488e-05
21770.0 6.0524e-05
21790.0 5.973e-05
21810.0 5.9126e-05
21830.0 5.8686e-05
21850.0 5.8416e-05
21870.0 5.8333e-05
21890.0 5.8413e-05
21910.0 5.8664e-05
21930.0 5.9079e-05
21950.0 5.962e-05
21970.0 6.0303e-05
21990.0 6.1156e-05
22010.0 6.2079e-05
22030.0 6.3081e-05
22050.0 6.4202e-05
22070.0 6.5395e-05
22090.0 6.6581e-05
22110.0 6.7834e-05
22130.0 6.9146e-05
22150.0 7.0422e-05
22170.0 7.1673e-05
22190.0 7.2961e-05
22210.0 7.4202e-05
22230.0 7.5326e-05
22250.0 7.6415e-05
22270.0 7.7445e-05
22290.0 7.8346e-05
22310.0 7.9136e-05
22330.0 7.985e-05
22350.0 8.0418e-05
22370.0 8.0836e-05
22390.0 8.1123e-05
22410.0 8.1261e-05
22430.0 8.1236e-05
22450.0 8.1062e-05
22470.0 8.0721e-05
22490.0 8.0221e-05
22510.0 7.9585e-05
22530.0 7.8766e-05
22550.0 7.7768e-05
22570.0 7.666e-05
22590.0 7.541e-05
22610.0 7.3976e-05
22630.0 7.2422e-05
22650.0 7.0817e-05
22670.0 6.9039e-05
22690.0 6.7139e-05
22710.0 6.5215e-05
22730.0 6.3227e-05
22750.0 6.1063e-05
22770.0 5.8939e-05
22790.0 5.6855e-05
22810.0 5.4708e-05
22830.0 5.2558e-05
22850.0 5.0539e-05
22870.0 4.8556e-05
22890.0 4.6581e-05
22910.0 4.4764e-05
22930.0 4.3103e-05
22950.0 4.1529e-05
22970.0 4.0086e-05
