#lamb flux
1010.0 9.3467e-08
1030.0 1.0268e-07
1050.0 1.1327e-07
1070.0 1.252e-07
1090.0 1.3874e-07
1110.0 1.5263e-07
1130.0 1.6662e-07
1150.0 1.8126e-07
1170.0 1.9637e-07
1190.0 2.107e-07
1210.0 2.2522e-07
1230.0 2.4022e-07
1250.0 2.5492e-07
1270.0 2.6919e-07
1290.0 2.8428e-07
1310.0 2.9935e-07
1330.0 3.138e-07
1350.0 3.2842e-07
1370.0 3.4351e-07
1390.0 3.5822e-07
1410.0 3.7249e-07
1430.0 3.8741e-07
1450.0 4.0232e-07
1470.0 4.1674e-07
1490.0 4.3131e-07
1510.0 4.4669e-07
1530.0 4.6127e-07
1550.0 4.7564e-07
1570.0 4.9051e-07
1590.0 5.0539e-07
1610.0 5.196e-07
1630.0 5.3424e-07
1650.0 5.4926e-07
1670.0 5.6378e-07
1690.0 5.781e-07
1710.0 5.9297e-07
1730.0 6.079e-07
1750.0 6.2192e-07
1770.0 6.3633e-07
1790.0 6.5102e-07
1810.0 6.652e-07
1830.0 6.7909e-07
1850.0 6.9381e-07
1870.0 7.0809e-07
1890.0 7.2183e-07
1910.0 7.3579e-07
1930.0 7.5002e-07
1950.0 7.635e-07
1970.0 7.7671e-07
1990.0 7.9036e-07
2010.0 8.0363e-07
2030.0 8.1626e-07
2050.0 8.2916e-07
2070.0 8.4225e-07
2090.0 8.5432e-07
2110.0 8.6615e-07
2130.0 8.7816e-07
2150.0 8.8965e-07
2170.0 9.0028e-07
2190.0 9.1113e-07
2210.0 9.2174e-07
2230.0 9.3147e-07
2250.0 9.4078e-07
2270.0 9.5032e-07
2290.0 9.5901e-07
2310.0 9.6674e-07
2330.0 9.7445e-07
2350.0 9.8182e-07
2370.0 9.8824e-07
2390.0 9.9444e-07
2410.0 1.0011e-06
2430.0 1.0073e-06
2450.0 1.0135e-06
2470.0 1.0211e-06
2490.0 1.0309e-06
2510.0 1.0433e-06
2530.0 1.063e-06
2550.0 1.0972e-06
2570.0 1.1524e-06
2590.0 1.2364e-06
2610.0 1.3704e-06
2630.0 1.557e-06
2650.0 1.7831e-06
2670.0 2.0493e-06
2690.0 2.3426e-06
2710.0 2.6199e-06
2730.0 2.8622e-06
2750.0 3.0742e-06
2770.0 3.2353e-06
2790.0 3.3464e-06
2810.0 3.4256e-06
2830.0 3.4859e-06
2850.0 3.5258e-06
2870.0 3.5581e-06
2890.0 3.5901e-06
2910.0 3.6204e-06
2930.0 3.6463e-06
2950.0 3.6745e-06
2970.0 3.7038e-06
2990.0 3.7295e-06
3010.0 3.7128e-05
3030.0 3.7386e-05
3050.0 3.7625e-05
3070.0 3.779e-05
3090.0 3.792e-05
3110.0 3.7962e-05
3130.0 3.7845e-05
3150.0 3.7549e-05
3170.0 3.7038e-05
3190.0 3.6325e-05
3210.0 3.5502e-05
3230.0 3.4656e-05
3250.0 3.3838e-05
3270.0 3.3412e-05
3290.0 3.3181e-05
3310.0 3.362e-05
3330.0 3.4353e-05
3350.0 3.539e-05
3370.0 3.676e-05
3390.0 3.8405e-05
3410.0 4.0119e-05
3430.0 4.1966e-05
3450.0 4.3981e-05
3470.0 4.6051e-05
3490.0 4.8128e-05
3510.0 5.0331e-05
3530.0 5.2586e-05
3550.0 5.4953e-05
3570.0 5.7516e-05
3590.0 6.0199e-05
3610.0 6.3214e-05
3630.0 6.59e-05
3650.0 6.8591e-05
3670.0 7.0752e-05
3690.0 7.2316e-05
3710.0 7.3234e-05
3730.0 7.3177e-05
3750.0 7.3168e-05
3770.0 7.3569e-05
3790.0 7.5728e-05
3810.0 8.0249e-05
3830.0 8.6304e-05
3850.0 9.4974e-05
3870.0 0.00010656
3890.0 0.00011962
3910.0 0.00013293
3930.0 0.00014378
3950.0 0.00015053
3970.0 0.00013419
3990.0 0.00010428
4010.0 0.00010058
4030.0 0.00012207
4050.0 0.00014182
4070.0 0.0001252
4090.0 8.677e-05
4110.0 9.0301e-05
4130.0 0.00011404
4150.0 0.00012562
4170.0 0.00011155
4190.0 9.9911e-05
4210.0 0.00012035
4230.0 0.00013062
4250.0 0.00012773
4270.0 0.00013001
4290.0 0.00012194
4310.0 0.00013139
4330.0 0.00015026
4350.0 0.00017635
4370.0 0.00018279
4390.0 0.00017468
4410.0 0.00015031
4430.0 0.0001228
4450.0 9.5885e-05
4470.0 9.7876e-05
4490.0 0.00010929
4510.0 0.00014194
4530.0 0.00015037
4550.0 0.00015206
4570.0 0.0001754
4590.0 0.00022531
4610.0 0.00031004
4630.0 0.00037301
4650.0 0.00037186
4670.0 0.00038144
4690.0 0.00041813
4710.0 0.00041211
4730.0 0.00032975
4750.0 0.0002375
4770.0 0.00019814
4790.0 0.00018242
4810.0 0.00016879
4830.0 0.00017816
4850.0 0.00020707
4870.0 0.00025695
4890.0 0.00027183
4910.0 0.00023441
4930.0 0.00023494
4950.0 0.00029025
4970.0 0.00037684
4990.0 0.00044043
5010.0 0.00044036
5030.0 0.00036275
5050.0 0.00025401
5070.0 0.0001869
5090.0 0.00016288
5110.0 0.00016603
5130.0 0.00018174
5150.0 0.00017534
5170.0 0.00017548
5190.0 0.00017312
5210.0 0.0001737
5230.0 0.00018567
5250.0 0.00019286
5270.0 0.00021643
5290.0 0.00025963
5310.0 0.00028557
5330.0 0.00029822
5350.0 0.0003127
5370.0 0.00033932
5390.0 0.00034923
5410.0 0.00031749
5430.0 0.00028445
5450.0 0.00028644
5470.0 0.00034481
5490.0 0.00044756
5510.0 0.00054053
5530.0 0.00057416
5550.0 0.00055509
5570.0 0.00051812
5590.0 0.00047958
5610.0 0.00045993
5630.0 0.00046661
5650.0 0.00047912
5670.0 0.00046617
5690.0 0.00044376
5710.0 0.00043007
5730.0 0.00037738
5750.0 0.00029196
5770.0 0.00026555
5790.0 0.00030025
5810.0 0.00034114
5830.0 0.00038265
5850.0 0.00040011
5870.0 0.00039205
5890.0 0.00036408
5910.0 0.00034355
5930.0 0.00034967
5950.0 0.00037236
5970.0 0.00037935
5990.0 0.00033916
6010.0 0.0002754
6030.0 0.00022125
6050.0 0.00020105
6070.0 0.00021625
6090.0 0.0002439
6110.0 0.00024638
6130.0 0.00022752
6150.0 0.0002241
6170.0 0.00025018
6190.0 0.00029797
6210.0 0.00035906
6230.0 0.00040092
6250.0 0.00038568
6270.0 0.00033887
6290.0 0.00028006
6310.0 0.00022095
6330.0 0.00018504
6350.0 0.00018125
6370.0 0.00019973
6390.0 0.00022204
6410.0 0.00025794
6430.0 0.0003124
6450.0 0.00038434
6470.0 0.00046232
6490.0 0.00053233
6510.0 0.00056074
6530.0 0.00053658
6550.0 0.00051529
6570.0 0.00051644
6590.0 0.00050821
6610.0 0.00047638
6630.0 0.00044691
6650.0 0.00042117
6670.0 0.00042062
6690.0 0.00041021
6710.0 0.00036995
6730.0 0.00032214
6750.0 0.00029084
6770.0 0.00030329
6790.0 0.00032402
6810.0 0.00034686
6830.0 0.00035349
6850.0 0.00033605
6870.0 0.00032294
6890.0 0.00031551
6910.0 0.00029872
6930.0 0.00028571
6950.0 0.00028936
6970.0 0.0002984
6990.0 0.00032012
7010.0 0.00034339
7030.0 0.00033406
7050.0 0.0003032
7070.0 0.00026713
7090.0 0.00022589
7110.0 0.00020454
7130.0 0.00021698
7150.0 0.00023389
7170.0 0.00023514
7190.0 0.0002284
7210.0 0.00022748
7230.0 0.000257
7250.0 0.00029738
7270.0 0.00032545
7290.0 0.00033075
7310.0 0.00030993
7330.0 0.00028142
7350.0 0.00025938
7370.0 0.00025001
7390.0 0.00025123
7410.0 0.00026698
7430.0 0.00030313
7450.0 0.0003393
7470.0 0.0003819
7490.0 0.00042591
7510.0 0.00039503
7530.0 0.00034571
7550.0 0.00029411
7570.0 0.0002462
7590.0 0.00020113
7610.0 0.00019335
7630.0 0.00020672
7650.0 0.00023139
7670.0 0.00026445
7690.0 0.00029145
7710.0 0.00032666
7730.0 0.00034544
7750.0 0.00035811
7770.0 0.00037035
7790.0 0.00037012
7810.0 0.00036851
7830.0 0.00035498
7850.0 0.00034404
7870.0 0.00032972
7890.0 0.00030128
7910.0 0.00027246
7930.0 0.00024393
7950.0 0.00021428
7970.0 0.00020488
7990.0 0.00021322
8010.0 0.00023889
8030.0 0.00024085
8050.0 0.00024777
8070.0 0.00024452
8090.0 0.0002442
8110.0 0.00023719
8130.0 0.0002225
8150.0 0.00020763
8170.0 0.00020572
8190.0 0.00020873
8210.0 0.00021093
8230.0 0.0002015
8250.0 0.00019092
8270.0 0.0001681
8290.0 0.0001364
8310.0 0.00010478
8330.0 7.3229e-05
8350.0 5.4045e-05
8370.0 5.1565e-05
8390.0 5.9196e-05
8410.0 7.1816e-05
8430.0 8.9181e-05
8450.0 9.8407e-05
8470.0 0.00010482
8490.0 0.00011309
8510.0 0.00012046
8530.0 0.00013332
8550.0 0.00015709
8570.0 0.00018135
8590.0 0.00020201
8610.0 0.00023375
8630.0 0.00027071
8650.0 0.00028754
8670.0 0.00029046
8690.0 0.00028602
8710.0 0.00027448
8730.0 0.0002631
8750.0 0.0002487
8770.0 0.0002434
8790.0 0.00023454
8810.0 0.00021715
8830.0 0.0002024
8850.0 0.00017498
8870.0 0.00015837
8890.0 0.00014662
8910.0 0.00015872
8930.0 0.00015218
8950.0 0.00015525
8970.0 0.00015767
8990.0 0.00015757
9010.0 0.00015948
9030.0 0.00015498
9050.0 0.00015468
9070.0 0.00015482
9090.0 0.00015497
9110.0 0.00015515
9130.0 0.00015531
9150.0 0.00015549
9170.0 0.0001555
9190.0 0.00015528
9210.0 0.00015662
9230.0 0.00015658
9250.0 0.0001567
9270.0 0.00015686
9290.0 0.00015706
9310.0 0.0001573
9330.0 0.00015755
9350.0 0.00015782
9370.0 0.00015811
9390.0 0.00015841
9410.0 0.00015872
9430.0 0.00015904
9450.0 0.00015937
9470.0 0.00015971
9490.0 0.00016007
9510.0 0.00016043
9530.0 0.0001608
9550.0 0.00016119
9570.0 0.00016159
9590.0 0.000162
9610.0 0.00016241
9630.0 0.00016284
9650.0 0.00016328
9670.0 0.00016373
9690.0 0.00016418
9710.0 0.00016465
9730.0 0.00016513
9750.0 0.00016561
9770.0 0.00016611
9790.0 0.00016662
9810.0 0.00016713
9830.0 0.00016765
9850.0 0.00016818
9870.0 0.00016871
9890.0 0.00016925
9910.0 0.0001698
9930.0 0.00017035
9950.0 0.00017083
9970.0 0.00017142
9990.0 0.00017201
10010.0 0.00017254
10030.0 0.00017312
10050.0 0.00017365
10070.0 0.00017389
10090.0 0.00017459
10110.0 0.00017528
10130.0 0.00017593
10150.0 0.00017657
10170.0 0.00017718
10190.0 0.00017776
10210.0 0.00017835
10230.0 0.00017894
10250.0 0.0001795
10270.0 0.00018007
10290.0 0.00018064
10310.0 0.0001812
10330.0 0.00018173
10350.0 0.00018228
10370.0 0.00018282
10390.0 0.00018334
10410.0 0.00018385
10430.0 0.00018437
10450.0 0.00018487
10470.0 0.00018535
10490.0 0.00018583
10510.0 0.0001863
10530.0 0.00018674
10550.0 0.00018717
10570.0 0.0001876
10590.0 0.00018801
10610.0 0.00018839
10630.0 0.00018878
10650.0 0.00018915
10670.0 0.00018948
10690.0 0.00018981
10710.0 0.00019013
10730.0 0.00019041
10750.0 0.00019067
10770.0 0.00019094
10790.0 0.00019118
10810.0 0.00019139
10830.0 0.00019157
10850.0 0.00019174
10870.0 0.00019181
10890.0 0.00019178
10910.0 0.00019161
10930.0 0.00019116
10950.0 0.00019027
10970.0 0.00018886
10990.0 0.00018688
11010.0 0.00018517
11030.0 0.0001813
11050.0 0.00017688
11070.0 0.00017182
11090.0 0.00016597
11110.0 0.00016016
11130.0 0.00015434
11150.0 0.00014838
11170.0 0.00014259
11190.0 0.00013733
11210.0 0.00013229
11230.0 0.00012755
11250.0 0.00012343
11270.0 0.00011983
11290.0 0.00011656
11310.0 0.00011376
11330.0 0.00011149
11350.0 0.00010946
11370.0 0.00010763
11390.0 0.00010601
11410.0 0.00010447
11430.0 0.00010283
11450.0 0.00010112
11470.0 9.9334e-05
11490.0 9.7332e-05
11510.0 9.5067e-05
11530.0 9.271e-05
11550.0 9.0213e-05
11570.0 8.7486e-05
11590.0 8.4692e-05
11610.0 8.1944e-05
11630.0 7.9102e-05
11650.0 7.6247e-05
11670.0 7.3611e-05
11690.0 7.1099e-05
11710.0 6.8659e-05
11730.0 6.6416e-05
11750.0 6.4417e-05
11770.0 6.251e-05
11790.0 6.0739e-05
11810.0 5.9156e-05
11830.0 5.7685e-05
11850.0 5.6237e-05
11870.0 5.4891e-05
11890.0 5.362e-05
11910.0 5.2326e-05
11930.0 5.1012e-05
11950.0 4.9724e-05
11970.0 4.8398e-05
11990.0 4.6989e-05
12010.0 4.5582e-05
12030.0 4.4186e-05
12050.0 4.2747e-05
12070.0 4.1298e-05
12090.0 3.9972e-05
12110.0 3.8695e-05
12130.0 3.7488e-05
12150.0 3.6434e-05
12170.0 3.5555e-05
12190.0 3.4815e-05
12210.0 3.4294e-05
12230.0 3.4001e-05
12250.0 3.3927e-05
12270.0 3.4095e-05
12290.0 3.4484e-05
12310.0 3.5057e-05
12330.0 3.5855e-05
12350.0 3.6825e-05
12370.0 3.7886e-05
12390.0 3.9059e-05
12410.0 4.0368e-05
12430.0 4.1616e-05
12450.0 4.2825e-05
12470.0 4.4024e-05
12490.0 4.5127e-05
12510.0 4.606e-05
12530.0 4.6892e-05
12550.0 4.7587e-05
12570.0 4.8087e-05
12590.0 4.8415e-05
12610.0 4.8591e-05
12630.0 4.8592e-05
12650.0 4.8429e-05
12670.0 4.8127e-05
12690.0 4.7689e-05
12710.0 4.7141e-05
12730.0 4.6503e-05
12750.0 4.5754e-05
12770.0 4.4943e-05
12790.0 4.4095e-05
12810.0 4.3189e-05
12830.0 4.2224e-05
12850.0 4.1264e-05
12870.0 4.0281e-05
12890.0 3.924e-05
12910.0 3.8181e-05
12930.0 3.7122e-05
12950.0 3.5998e-05
12970.0 3.482e-05
12990.0 3.3661e-05
13010.0 3.2477e-05
13030.0 3.1243e-05
13050.0 3.0022e-05
13070.0 2.8852e-05
13090.0 2.7667e-05
13110.0 2.6518e-05
13130.0 2.5466e-05
13150.0 2.4491e-05
13170.0 2.3574e-05
13190.0 2.2798e-05
13210.0 2.2159e-05
13230.0 2.1626e-05
13250.0 2.1221e-05
13270.0 2.0951e-05
13290.0 2.0793e-05
13310.0 2.0748e-05
13330.0 2.0801e-05
13350.0 2.0931e-05
13370.0 2.1134e-05
13390.0 2.1395e-05
13410.0 2.1665e-05
13430.0 2.1957e-05
13450.0 2.226e-05
13470.0 2.2542e-05
13490.0 2.2795e-05
13510.0 2.3041e-05
13530.0 2.325e-05
13550.0 2.3417e-05
13570.0 2.3558e-05
13590.0 2.3676e-05
13610.0 2.3763e-05
13630.0 2.3826e-05
13650.0 2.388e-05
13670.0 2.392e-05
13690.0 2.3945e-05
13710.0 2.3963e-05
13730.0 2.3977e-05
13750.0 2.3975e-05
13770.0 2.3963e-05
13790.0 2.3938e-05
13810.0 2.3895e-05
13830.0 2.3832e-05
13850.0 2.3747e-05
13870.0 2.3633e-05
13890.0 2.3494e-05
13910.0 2.3328e-05
13930.0 2.3131e-05
13950.0 2.2908e-05
13970.0 2.2675e-05
13990.0 2.2423e-05
14010.0 2.216e-05
14030.0 2.1903e-05
14050.0 2.1652e-05
14070.0 2.1403e-05
14090.0 2.1176e-05
14110.0 2.0975e-05
14130.0 2.0793e-05
14150.0 2.0634e-05
14170.0 2.0507e-05
14190.0 2.0405e-05
14210.0 2.0326e-05
14230.0 2.0276e-05
14250.0 2.0251e-05
14270.0 2.0255e-05
14290.0 2.0289e-05
14310.0 2.0349e-05
14330.0 2.0436e-05
14350.0 2.0557e-05
14370.0 2.0701e-05
14390.0 2.0862e-05
14410.0 2.1053e-05
14430.0 2.1264e-05
14450.0 2.1483e-05
14470.0 2.1716e-05
14490.0 2.1975e-05
14510.0 2.2238e-05
14530.0 2.2508e-05
14550.0 2.2808e-05
14570.0 2.3138e-05
14590.0 2.3485e-05
14610.0 2.3877e-05
14630.0 2.4336e-05
14650.0 2.4835e-05
14670.0 2.5383e-05
14690.0 2.6012e-05
14710.0 2.6716e-05
14730.0 2.7434e-05
14750.0 2.8218e-05
14770.0 2.9064e-05
14790.0 2.9914e-05
14810.0 3.0756e-05
14830.0 3.1647e-05
14850.0 3.2499e-05
14870.0 3.3278e-05
14890.0 3.4012e-05
14910.0 3.4687e-05
14930.0 3.5249e-05
14950.0 3.5707e-05
14970.0 3.6081e-05
14990.0 3.6346e-05
15010.0 3.6512e-05
15030.0 3.6601e-05
15050.0 3.6624e-05
15070.0 3.6598e-05
15090.0 3.6541e-05
15110.0 3.6461e-05
15130.0 3.6371e-05
15150.0 3.6279e-05
15170.0 3.6181e-05
15190.0 3.6081e-05
15210.0 3.5985e-05
15230.0 3.589e-05
15250.0 3.5791e-05
15270.0 3.5694e-05
15290.0 3.5603e-05
15310.0 3.5509e-05
15330.0 3.5414e-05
15350.0 3.5323e-05
15370.0 3.5234e-05
15390.0 3.5138e-05
15410.0 3.5047e-05
15430.0 3.4959e-05
15450.0 3.4869e-05
15470.0 3.4777e-05
15490.0 3.469e-05
15510.0 3.4604e-05
15530.0 3.4514e-05
15550.0 3.4426e-05
15570.0 3.4342e-05
15590.0 3.4253e-05
15610.0 3.4163e-05
15630.0 3.4079e-05
15650.0 3.3994e-05
15670.0 3.3906e-05
15690.0 3.382e-05
15710.0 3.3738e-05
15730.0 3.3651e-05
15750.0 3.3564e-05
15770.0 3.3481e-05
15790.0 3.3397e-05
15810.0 3.3308e-05
15830.0 3.3223e-05
15850.0 3.3141e-05
15870.0 3.3055e-05
15890.0 3.2969e-05
15910.0 3.2887e-05
15930.0 3.2802e-05
15950.0 3.2714e-05
15970.0 3.2629e-05
15990.0 3.2546e-05
16010.0 3.2459e-05
16030.0 3.237e-05
16050.0 3.2288e-05
16070.0 3.2203e-05
16090.0 3.2114e-05
16110.0 3.2029e-05
16130.0 3.1946e-05
16150.0 3.1855e-05
16170.0 3.1766e-05
16190.0 3.1681e-05
16210.0 3.1594e-05
16230.0 3.1503e-05
16250.0 3.1416e-05
16270.0 3.1331e-05
16290.0 3.124e-05
16310.0 3.115e-05
16330.0 3.1063e-05
16350.0 3.0973e-05
16370.0 3.0878e-05
16390.0 3.0789e-05
16410.0 3.07e-05
16430.0 3.0607e-05
16450.0 3.0515e-05
16470.0 3.0426e-05
16490.0 3.0332e-05
16510.0 3.0237e-05
16530.0 3.0145e-05
16550.0 3.0052e-05
16570.0 2.9955e-05
16590.0 2.9858e-05
16610.0 2.9767e-05
16630.0 2.9671e-05
16650.0 2.9573e-05
16670.0 2.9478e-05
16690.0 2.9383e-05
16710.0 2.9281e-05
16730.0 2.9183e-05
16750.0 2.9086e-05
16770.0 2.8986e-05
16790.0 2.8884e-05
16810.0 2.8787e-05
16830.0 2.8688e-05
16850.0 2.8584e-05
16870.0 2.8483e-05
16890.0 2.8384e-05
16910.0 2.8279e-05
16930.0 2.8172e-05
16950.0 2.8071e-05
16970.0 2.7968e-05
16990.0 2.7861e-05
17010.0 2.7757e-05
17030.0 2.7655e-05
17050.0 2.7547e-05
17070.0 2.7438e-05
17090.0 2.7333e-05
17110.0 2.7227e-05
17130.0 2.7114e-05
17150.0 2.7006e-05
17170.0 2.69e-05
17190.0 2.6789e-05
17210.0 2.6678e-05
17230.0 2.6571e-05
17250.0 2.646e-05
17270.0 2.6345e-05
17290.0 2.6234e-05
17310.0 2.6124e-05
17330.0 2.6009e-05
17350.0 2.5893e-05
17370.0 2.5783e-05
17390.0 2.567e-05
17410.0 2.5553e-05
17430.0 2.5439e-05
17450.0 2.5327e-05
17470.0 2.5207e-05
17490.0 2.5089e-05
17510.0 2.4975e-05
17530.0 2.4858e-05
17550.0 2.4738e-05
17570.0 2.4622e-05
17590.0 2.4507e-05
17610.0 2.4386e-05
17630.0 2.4266e-05
17650.0 2.4149e-05
17670.0 2.403e-05
17690.0 2.3904e-05
17710.0 2.3787e-05
17730.0 2.3668e-05
17750.0 2.3545e-05
17770.0 2.3423e-05
17790.0 2.3306e-05
17810.0 2.3182e-05
17830.0 2.3057e-05
17850.0 2.2937e-05
17870.0 2.2815e-05
17890.0 2.2689e-05
17910.0 2.2565e-05
17930.0 2.2445e-05
17950.0 2.232e-05
17970.0 2.2195e-05
17990.0 2.2073e-05
18010.0 2.195e-05
18030.0 2.1821e-05
18050.0 2.1696e-05
18070.0 2.1573e-05
18090.0 2.1447e-05
18110.0 2.1319e-05
18130.0 2.1196e-05
18150.0 2.1072e-05
18170.0 2.0943e-05
18190.0 2.0818e-05
18210.0 2.0694e-05
18230.0 2.0565e-05
18250.0 2.0436e-05
18270.0 2.0312e-05
18290.0 2.0186e-05
18310.0 2.0057e-05
18330.0 1.993e-05
18350.0 1.9807e-05
18370.0 1.9677e-05
18390.0 1.9548e-05
18410.0 1.9423e-05
18430.0 1.9297e-05
18450.0 1.9165e-05
18470.0 1.9038e-05
18490.0 1.8914e-05
18510.0 1.8785e-05
18530.0 1.8656e-05
18550.0 1.8532e-05
18570.0 1.8404e-05
18590.0 1.8273e-05
18610.0 1.8146e-05
18630.0 1.8021e-05
18650.0 1.7891e-05
18670.0 1.7761e-05
18690.0 1.7638e-05
18710.0 1.751e-05
18730.0 1.7381e-05
18750.0 1.7255e-05
18770.0 1.713e-05
18790.0 1.6999e-05
18810.0 1.687e-05
18830.0 1.6746e-05
18850.0 1.6619e-05
18870.0 1.6489e-05
18890.0 1.6364e-05
18910.0 1.624e-05
18930.0 1.6111e-05
18950.0 1.5984e-05
18970.0 1.586e-05
18990.0 1.5733e-05
19010.0 1.5602e-05
19030.0 1.5479e-05
19050.0 1.5355e-05
19070.0 1.5227e-05
19090.0 1.5101e-05
19110.0 1.4979e-05
19130.0 1.4852e-05
19150.0 1.4724e-05
19170.0 1.4601e-05
19190.0 1.4477e-05
19210.0 1.435e-05
19230.0 1.4224e-05
19250.0 1.4103e-05
19270.0 1.3978e-05
19290.0 1.3853e-05
19310.0 1.3731e-05
19330.0 1.3609e-05
19350.0 1.3481e-05
19370.0 1.3358e-05
19390.0 1.3238e-05
19410.0 1.3114e-05
19430.0 1.2989e-05
19450.0 1.2869e-05
19470.0 1.2748e-05
19490.0 1.2624e-05
19510.0 1.2503e-05
19530.0 1.2384e-05
19550.0 1.226e-05
19570.0 1.2136e-05
19590.0 1.2018e-05
19610.0 1.1898e-05
19630.0 1.1775e-05
19650.0 1.1656e-05
19670.0 1.1539e-05
19690.0 1.1417e-05
19710.0 1.1296e-05
19730.0 1.1179e-05
19750.0 1.106e-05
19770.0 1.0938e-05
19790.0 1.082e-05
19810.0 1.0704e-05
19830.0 1.0584e-05
19850.0 1.0465e-05
19870.0 1.0348e-05
19890.0 1.0225e-05
19910.0 1.0094e-05
19930.0 9.9601e-06
19950.0 9.8152e-06
19970.0 9.6488e-06
19990.0 9.4627e-06
20010.0 9.2652e-06
20030.0 9.0421e-06
20050.0 8.799e-06
20070.0 8.5539e-06
20090.0 8.3087e-06
20110.0 8.0535e-06
20130.0 7.8169e-06
20150.0 7.6025e-06
20170.0 7.4003e-06
20190.0 7.2153e-06
20210.0 7.0575e-06
20230.0 6.9191e-06
20250.0 6.7955e-06
20270.0 6.6943e-06
20290.0 6.6132e-06
20310.0 6.5472e-06
20330.0 6.497e-06
20350.0 6.4649e-06
20370.0 6.4463e-06
20390.0 6.4415e-06
20410.0 6.4502e-06
20430.0 6.4704e-06
20450.0 6.5051e-06
20470.0 6.5529e-06
20490.0 6.6109e-06
20510.0 6.6811e-06
20530.0 6.7663e-06
20550.0 6.8608e-06
20570.0 6.9613e-06
20590.0 7.0753e-06
20610.0 7.1976e-06
20630.0 7.3211e-06
20650.0 7.4501e-06
20670.0 7.5884e-06
20690.0 7.7205e-06
20710.0 7.8487e-06
20730.0 7.9783e-06
20750.0 8.1043e-06
20770.0 8.2194e-06
20790.0 8.3325e-06
20810.0 8.4447e-06
20830.0 8.55e-06
20850.0 8.6514e-06
20870.0 8.7574e-06
20890.0 8.8646e-06
20910.0 8.9685e-06
20930.0 9.0784e-06
20950.0 9.1954e-06
20970.0 9.3125e-06
20990.0 9.4306e-06
21010.0 9.557e-06
21030.0 9.6814e-06
21050.0 9.7992e-06
21070.0 9.9144e-06
21090.0 1.0026e-05
21110.0 1.0121e-05
21130.0 1.0203e-05
21150.0 1.0275e-05
21170.0 1.033e-05
21190.0 1.0367e-05
21210.0 1.0388e-05
21230.0 1.0393e-05
21250.0 1.0379e-05
21270.0 1.035e-05
21290.0 1.0304e-05
21310.0 1.0243e-05
21330.0 1.0171e-05
21350.0 1.0084e-05
21370.0 9.9846e-06
21390.0 9.8778e-06
21410.0 9.7633e-06
21430.0 9.6347e-06
21450.0 9.5044e-06
21470.0 9.3743e-06
21490.0 9.2386e-06
21510.0 9.1008e-06
21530.0 8.9702e-06
21550.0 8.8421e-06
21570.0 8.7145e-06
21590.0 8.597e-06
21610.0 8.4906e-06
21630.0 8.3915e-06
21650.0 8.3023e-06
21670.0 8.2316e-06
21690.0 8.1734e-06
21710.0 8.129e-06
21730.0 8.1012e-06
21750.0 8.0891e-06
21770.0 8.0932e-06
21790.0 8.1141e-06
21810.0 8.1498e-06
21830.0 8.2008e-06
21850.0 8.2691e-06
21870.0 8.3496e-06
21890.0 8.4395e-06
21910.0 8.5451e-06
21930.0 8.6616e-06
21950.0 8.7828e-06
21970.0 8.9137e-06
21990.0 9.0581e-06
22010.0 9.2007e-06
22030.0 9.3448e-06
22050.0 9.4958e-06
22070.0 9.6476e-06
22090.0 9.7911e-06
22110.0 9.9356e-06
22130.0 1.0079e-05
22150.0 1.0212e-05
22170.0 1.0336e-05
22190.0 1.0455e-05
22210.0 1.0562e-05
22230.0 1.065e-05
22250.0 1.0727e-05
22270.0 1.0788e-05
22290.0 1.083e-05
22310.0 1.0854e-05
22330.0 1.0859e-05
22350.0 1.0843e-05
22370.0 1.0806e-05
22390.0 1.0748e-05
22410.0 1.0666e-05
22430.0 1.0566e-05
22450.0 1.0448e-05
22470.0 1.0307e-05
22490.0 1.0148e-05
22510.0 9.9787e-06
22530.0 9.7873e-06
22550.0 9.5779e-06
22570.0 9.3658e-06
22590.0 9.1443e-06
22610.0 8.9072e-06
