#lamb flux
1010.0 1.5439e-05
1030.0 1.9183e-05
1050.0 2.3307e-05
1070.0 2.7711e-05
1090.0 3.2425e-05
1110.0 3.6837e-05
1130.0 4.0761e-05
1150.0 4.3913e-05
1170.0 4.6518e-05
1190.0 4.8404e-05
1210.0 5.3587e-05
1230.0 5.9023e-05
1250.0 6.4434e-05
1270.0 6.9722e-05
1290.0 7.5213e-05
1310.0 8.059e-05
1330.0 8.5592e-05
1350.0 9.0407e-05
1370.0 9.5083e-05
1390.0 9.9306e-05
1410.0 0.00010304
1430.0 0.00010661
1450.0 0.00010982
1470.0 0.00011254
1490.0 0.000115
1510.0 0.00012546
1530.0 0.00013928
1550.0 0.00015323
1570.0 0.00016567
1590.0 0.00017829
1610.0 0.00019067
1630.0 0.00020315
1650.0 0.00021564
1670.0 0.0002277
1690.0 0.00023938
1710.0 0.00025102
1730.0 0.00026237
1750.0 0.00027297
1770.0 0.00028344
1790.0 0.00029373
1810.0 0.00030347
1830.0 0.00031279
1850.0 0.00032226
1870.0 0.00033128
1890.0 0.00033979
1910.0 0.00034822
1930.0 0.00035661
1950.0 0.00036446
1970.0 0.00037203
1990.0 0.0003797
2010.0 0.00038707
2030.0 0.00039401
2050.0 0.00040104
2070.0 0.00040811
2090.0 0.00041464
2110.0 0.00042104
2130.0 0.00042756
2150.0 0.00043385
2170.0 0.00043977
2190.0 0.00044589
2210.0 0.00045203
2230.0 0.00045785
2250.0 0.00046363
2270.0 0.00046975
2290.0 0.00047567
2310.0 0.00048134
2330.0 0.00048728
2350.0 0.00049333
2370.0 0.00049916
2390.0 0.00050512
2410.0 0.0005115
2430.0 0.00051785
2450.0 0.0005244
2470.0 0.00053191
2490.0 0.00054096
2510.0 0.0005517
2530.0 0.00056601
2550.0 0.00058624
2570.0 0.00061365
2590.0 0.00064997
2610.0 0.00070187
2630.0 0.00077029
2650.0 0.00085325
2670.0 0.00095476
2690.0 0.0010764
2710.0 0.0012079
2730.0 0.0013443
2750.0 0.0014897
2770.0 0.0016315
2790.0 0.0017606
2810.0 0.0018791
2830.0 0.0019869
2850.0 0.0020736
2870.0 0.0021466
2890.0 0.0022111
2910.0 0.0022678
2930.0 0.0023181
2950.0 0.0023673
2970.0 0.0024161
2990.0 0.0024633
3010.0 0.0025099
3030.0 0.0025577
3050.0 0.0026051
3070.0 0.0026497
3090.0 0.0026945
3110.0 0.00274
3130.0 0.0027871
3150.0 0.0028497
3170.0 0.0029344
3190.0 0.0030538
3210.0 0.0032173
3230.0 0.0034389
3250.0 0.0037065
3270.0 0.0039149
3290.0 0.0043204
3310.0 0.0053021
3330.0 0.0055108
3350.0 0.0055282
3370.0 0.0055333
3390.0 0.005538
3410.0 0.0055457
3430.0 0.0055558
3450.0 0.0055671
3470.0 0.0055775
3490.0 0.0055879
3510.0 0.0056078
3530.0 0.0054993
3550.0 0.005269
3570.0 0.0052002
3590.0 0.0053516
3610.0 0.0057123
3630.0 0.0057033
3650.0 0.0053739
3670.0 0.0049266
3690.0 0.0047077
3710.0 0.0047905
3730.0 0.0049237
3750.0 0.0049872
3770.0 0.0051512
3790.0 0.0053468
3810.0 0.0052511
3830.0 0.0049305
3850.0 0.0046808
3870.0 0.0045959
3890.0 0.004562
3910.0 0.0044941
3930.0 0.0045129
3950.0 0.0047132
3970.0 0.004951
3990.0 0.0051217
4010.0 0.0050283
4030.0 0.0048789
4050.0 0.004838
4070.0 0.0048238
4090.0 0.0048284
4110.0 0.0047809
4130.0 0.004636
4150.0 0.004488
4170.0 0.0044571
4190.0 0.0042852
4210.0 0.0040224
4230.0 0.0037278
4250.0 0.0034379
4270.0 0.0032418
4290.0 0.003093
4310.0 0.0030617
4330.0 0.003167
4350.0 0.003263
4370.0 0.0034081
4390.0 0.003635
4410.0 0.0038357
4430.0 0.0038004
4450.0 0.0035638
4470.0 0.0033599
4490.0 0.0032715
4510.0 0.0032425
4530.0 0.0032648
4550.0 0.0032914
4570.0 0.0033491
4590.0 0.0034601
4610.0 0.0036462
4630.0 0.0037794
4650.0 0.0038763
4670.0 0.0038262
4690.0 0.003643
4710.0 0.0034468
4730.0 0.0033281
4750.0 0.0032543
4770.0 0.003297
4790.0 0.0032855
4810.0 0.003214
4830.0 0.0032602
4850.0 0.0033152
4870.0 0.0033755
4890.0 0.0032624
4910.0 0.0031309
4930.0 0.0029193
4950.0 0.0026649
4970.0 0.0024542
4990.0 0.0022811
5010.0 0.0022364
5030.0 0.0022858
5050.0 0.0022828
5070.0 0.0023344
5090.0 0.0024333
5110.0 0.0024272
5130.0 0.0024101
5150.0 0.0024064
5170.0 0.0024003
5190.0 0.0024281
5210.0 0.0023846
5230.0 0.0023272
5250.0 0.0022945
5270.0 0.0022674
5290.0 0.0022386
5310.0 0.0022016
5330.0 0.0021249
5350.0 0.0020787
5370.0 0.0020254
5390.0 0.0019642
5410.0 0.001924
5430.0 0.0018889
5450.0 0.0019113
5470.0 0.0019292
5490.0 0.0019377
5510.0 0.0019852
5530.0 0.0019957
5550.0 0.0020203
5570.0 0.0020084
5590.0 0.0019499
5610.0 0.0019303
5630.0 0.0019477
5650.0 0.0019225
5670.0 0.001884
5690.0 0.0018267
5710.0 0.0018377
5730.0 0.0018609
5750.0 0.0017907
5770.0 0.0017131
5790.0 0.0015735
5810.0 0.001377
5830.0 0.0015065
5850.0 0.001703
5870.0 0.0017672
5890.0 0.0017986
5910.0 0.001827
5930.0 0.0018515
5950.0 0.0018411
5970.0 0.0018454
5990.0 0.0018405
6010.0 0.0018139
6030.0 0.0017759
6050.0 0.0017759
6070.0 0.001805
6090.0 0.0018015
6110.0 0.0017656
6130.0 0.0017364
6150.0 0.0016919
6170.0 0.0016441
6190.0 0.0016074
6210.0 0.001574
6230.0 0.0015711
6250.0 0.0015615
6270.0 0.0015527
6290.0 0.001558
6310.0 0.0015628
6330.0 0.0015487
6350.0 0.0015199
6370.0 0.0015073
6390.0 0.0015022
6410.0 0.0014743
6430.0 0.0014536
6450.0 0.0014336
6470.0 0.001414
6490.0 0.001404
6510.0 0.0013979
6530.0 0.0013712
6550.0 0.00135
6570.0 0.0013412
6590.0 0.0013419
6610.0 0.0013389
6630.0 0.0012982
6650.0 0.0012689
6670.0 0.0012604
6690.0 0.0012426
6710.0 0.0012148
6730.0 0.0012056
6750.0 0.0012142
6770.0 0.0012899
6790.0 0.0014585
6810.0 0.0013735
6830.0 0.0011899
6850.0 0.0011418
6870.0 0.001118
6890.0 0.0011119
6910.0 0.0011078
6930.0 0.0011036
6950.0 0.0010893
6970.0 0.0010531
6990.0 0.0010344
7010.0 0.0010396
7030.0 0.0010315
7050.0 0.0010059
7070.0 0.00099155
7090.0 0.00099232
7110.0 0.0010058
7130.0 0.00099443
7150.0 0.00098416
7170.0 0.00097725
7190.0 0.00098215
7210.0 0.00097348
7230.0 0.00096459
7250.0 0.00096526
7270.0 0.00095898
7290.0 0.00095816
7310.0 0.00096658
7330.0 0.00094676
7350.0 0.00091428
7370.0 0.00088394
7390.0 0.00086357
7410.0 0.00086251
7430.0 0.00085975
7450.0 0.00085216
7470.0 0.00084638
7490.0 0.00082664
7510.0 0.00080849
7530.0 0.0008037
7550.0 0.00083069
7570.0 0.00082118
7590.0 0.00075845
7610.0 0.00073542
7630.0 0.0007706
7650.0 0.00077162
7670.0 0.00077544
7690.0 0.00080817
7710.0 0.00081824
7730.0 0.00080828
7750.0 0.00084649
7770.0 0.00080504
7790.0 0.00077236
7810.0 0.00081471
7830.0 0.00083196
7850.0 0.00085054
7870.0 0.00085253
7890.0 0.00085396
7910.0 0.00083874
7930.0 0.0008418
7950.0 0.00087745
7970.0 0.00086475
7990.0 0.00079261
8010.0 0.00079191
8030.0 0.00078192
8050.0 0.00076732
8070.0 0.00074875
8090.0 0.00068078
8110.0 0.00068148
8130.0 0.00073841
8150.0 0.00076959
8170.0 0.00077968
8190.0 0.00080414
8210.0 0.0007862
8230.0 0.00077669
8250.0 0.00077553
8270.0 0.0007618
8290.0 0.00074639
8310.0 0.00071065
8330.0 0.00070895
8350.0 0.00072189
8370.0 0.00072678
8390.0 0.00072079
8410.0 0.00071098
8430.0 0.00069696
8450.0 0.00069401
8470.0 0.00072487
8490.0 0.000732
8510.0 0.00070003
8530.0 0.00067723
8550.0 0.00067295
8570.0 0.00065052
8590.0 0.00064209
8610.0 0.0006535
8630.0 0.00065726
8650.0 0.00065323
8670.0 0.00064933
8690.0 0.00064066
8710.0 0.00061348
8730.0 0.00061003
8750.0 0.00059705
8770.0 0.00059884
8790.0 0.00059624
8810.0 0.00057829
8830.0 0.0005792
8850.0 0.00058636
8870.0 0.00055824
8890.0 0.00053395
8910.0 0.00051774
8930.0 0.00049709
8950.0 0.00048092
8970.0 0.00046084
8990.0 0.00045294
9010.0 0.00043526
9030.0 0.00043005
9050.0 0.00042749
9070.0 0.00042504
9090.0 0.00042257
9110.0 0.00042004
9130.0 0.00041751
9150.0 0.00041502
9170.0 0.0004125
9190.0 0.00040997
9210.0 0.00040741
9230.0 0.00040483
9250.0 0.00040225
9270.0 0.00039966
9290.0 0.00039705
9310.0 0.0003945
9330.0 0.00039205
9350.0 0.00038958
9370.0 0.00038711
9390.0 0.00038464
9410.0 0.00038216
9430.0 0.00037969
9450.0 0.00037721
9470.0 0.00037497
9490.0 0.0003726
9510.0 0.00037
9530.0 0.00036744
9550.0 0.00036493
9570.0 0.00036244
9590.0 0.00035997
9610.0 0.00035759
9630.0 0.00035525
9650.0 0.00035291
9670.0 0.00035056
9690.0 0.00034824
9710.0 0.00034593
9730.0 0.00034362
9750.0 0.00034132
9770.0 0.00033906
9790.0 0.0003368
9810.0 0.00033454
9830.0 0.0003323
9850.0 0.00032988
9870.0 0.00032742
9890.0 0.00032543
9910.0 0.00032339
9930.0 0.00032096
9950.0 0.00031883
9970.0 0.00031687
9990.0 0.00031487
10010.0 0.00031287
10030.0 0.00031086
10050.0 0.00030882
10070.0 0.00030681
10090.0 0.00030483
10110.0 0.00030283
10130.0 0.00030086
10150.0 0.00029893
10170.0 0.00029702
10190.0 0.00029511
10210.0 0.00029324
10230.0 0.0002914
10250.0 0.00028956
10270.0 0.00028775
10290.0 0.00028598
10310.0 0.00028421
10330.0 0.00028245
10350.0 0.00028073
10370.0 0.00027904
10390.0 0.00027735
10410.0 0.00027553
10430.0 0.0002737
10450.0 0.00027226
10470.0 0.00027074
10490.0 0.00026924
10510.0 0.00026774
10530.0 0.0002662
10550.0 0.0002647
10570.0 0.00026325
10590.0 0.00026179
10610.0 0.00026033
10630.0 0.00025893
10650.0 0.00025755
10670.0 0.00025615
10690.0 0.00025479
10710.0 0.00025347
10730.0 0.00025215
10750.0 0.00025082
10770.0 0.00024956
10790.0 0.00024832
10810.0 0.00024706
10830.0 0.00024584
10850.0 0.00024467
10870.0 0.00024347
10890.0 0.00024228
10910.0 0.00024114
10930.0 0.00024
10950.0 0.00023883
10970.0 0.00023768
10990.0 0.00023656
11010.0 0.00024076
11030.0 0.00023953
11050.0 0.00023834
11070.0 0.00023713
11090.0 0.00023582
11110.0 0.00023457
11130.0 0.00023333
11150.0 0.00023201
11170.0 0.00023067
11190.0 0.00022939
11210.0 0.00022805
11230.0 0.00022667
11250.0 0.00022534
11270.0 0.00022406
11290.0 0.00022275
11310.0 0.00022148
11330.0 0.00022036
11350.0 0.00021926
11370.0 0.00021821
11390.0 0.00021727
11410.0 0.00021642
11430.0 0.00021556
11450.0 0.00021479
11470.0 0.0002141
11490.0 0.00021341
11510.0 0.00021272
11530.0 0.00021208
11550.0 0.00021144
11570.0 0.00021075
11590.0 0.00021005
11610.0 0.00020936
11630.0 0.0002086
11650.0 0.00020777
11670.0 0.00020696
11690.0 0.00020611
11710.0 0.00020519
11730.0 0.00020426
11750.0 0.00020336
11770.0 0.00020238
11790.0 0.00020138
11810.0 0.00020042
11830.0 0.00019947
11850.0 0.00019846
11870.0 0.00019751
11890.0 0.00019663
11910.0 0.00019575
11930.0 0.00019489
11950.0 0.00019414
11970.0 0.00019342
11990.0 0.00019272
12010.0 0.00019211
12030.0 0.00019159
12050.0 0.0001911
12070.0 0.00019066
12090.0 0.00019033
12110.0 0.00019004
12130.0 0.00018979
12150.0 0.0001896
12170.0 0.00018945
12190.0 0.0001893
12210.0 0.00018917
12230.0 0.00018906
12250.0 0.00018893
12270.0 0.00018875
12290.0 0.00018854
12310.0 0.00018829
12330.0 0.00018795
12350.0 0.00018752
12370.0 0.00018703
12390.0 0.00018644
12410.0 0.00018569
12430.0 0.00018491
12450.0 0.00018404
12470.0 0.00018304
12490.0 0.00018195
12510.0 0.00018085
12530.0 0.00017964
12550.0 0.00017833
12570.0 0.00017702
12590.0 0.00017568
12610.0 0.00017425
12630.0 0.0001728
12650.0 0.00017143
12670.0 0.00017001
12690.0 0.00016858
12710.0 0.00016721
12730.0 0.0001659
12750.0 0.00016454
12770.0 0.00016326
12790.0 0.00016208
12810.0 0.00016093
12830.0 0.00015982
12850.0 0.00015883
12870.0 0.00015792
12890.0 0.00015705
12910.0 0.00015627
12930.0 0.0001556
12950.0 0.00015499
12970.0 0.00015445
12990.0 0.00015404
13010.0 0.0001537
13030.0 0.00015344
13050.0 0.00015327
13070.0 0.00015317
13090.0 0.00015312
13110.0 0.00015312
13130.0 0.00015315
13150.0 0.0001532
13170.0 0.00015323
13190.0 0.00015324
13210.0 0.0001532
13230.0 0.0001531
13250.0 0.00015291
13270.0 0.00015265
13290.0 0.00015229
13310.0 0.00015182
13330.0 0.00015124
13350.0 0.00015059
13370.0 0.00014981
13390.0 0.00014891
13410.0 0.00014798
13430.0 0.00014695
13450.0 0.00014581
13470.0 0.00014462
13490.0 0.00014341
13510.0 0.00014206
13530.0 0.00014068
13550.0 0.0001393
13570.0 0.00013786
13590.0 0.00013635
13610.0 0.00013485
13630.0 0.00013337
13650.0 0.00013181
13670.0 0.00013024
13690.0 0.00012873
13710.0 0.00012718
13730.0 0.00012558
13750.0 0.00012407
13770.0 0.00012259
13790.0 0.00012108
13810.0 0.00011962
13830.0 0.00011825
13850.0 0.00011687
13870.0 0.0001155
13890.0 0.00011423
13910.0 0.000113
13930.0 0.00011177
13950.0 0.0001106
13970.0 0.00010951
13990.0 0.00010844
14010.0 0.00010739
14030.0 0.00010641
14050.0 0.00010548
14070.0 0.00010453
14090.0 0.00010365
14110.0 0.00010282
14130.0 0.00010201
14150.0 0.00010122
14170.0 0.00010049
14190.0 9.9786e-05
14210.0 9.9089e-05
14230.0 9.8425e-05
14250.0 9.7796e-05
14270.0 9.7163e-05
14290.0 9.6537e-05
14310.0 9.5947e-05
14330.0 9.5364e-05
14350.0 9.4776e-05
14370.0 9.4203e-05
14390.0 9.3652e-05
14410.0 9.3089e-05
14430.0 9.253e-05
14450.0 9.1989e-05
14470.0 9.1451e-05
14490.0 9.0897e-05
14510.0 9.0359e-05
14530.0 8.9834e-05
14550.0 8.9296e-05
14570.0 8.8755e-05
14590.0 8.8229e-05
14610.0 8.7693e-05
14630.0 8.7139e-05
14650.0 8.6595e-05
14670.0 8.6055e-05
14690.0 8.5497e-05
14710.0 8.493e-05
14730.0 8.4382e-05
14750.0 8.3821e-05
14770.0 8.3243e-05
14790.0 8.267e-05
14810.0 8.2102e-05
14830.0 8.15e-05
14850.0 8.0899e-05
14870.0 8.0311e-05
14890.0 7.9714e-05
14910.0 7.9107e-05
14930.0 7.8527e-05
14950.0 7.7973e-05
14970.0 7.7427e-05
14990.0 7.6919e-05
15010.0 7.6461e-05
15030.0 7.6034e-05
15050.0 7.563e-05
15070.0 7.5272e-05
15090.0 7.4934e-05
15110.0 7.4605e-05
15130.0 7.4287e-05
15150.0 7.3982e-05
15170.0 7.3674e-05
15190.0 7.3365e-05
15210.0 7.3064e-05
15230.0 7.2766e-05
15250.0 7.2461e-05
15270.0 7.2159e-05
15290.0 7.1868e-05
15310.0 7.1572e-05
15330.0 7.1275e-05
15350.0 7.0985e-05
15370.0 7.0698e-05
15390.0 7.0402e-05
15410.0 7.0113e-05
15430.0 6.983e-05
15450.0 6.9544e-05
15470.0 6.9256e-05
15490.0 6.8978e-05
15510.0 6.8701e-05
15530.0 6.8419e-05
15550.0 6.8142e-05
15570.0 6.7872e-05
15590.0 6.7596e-05
15610.0 6.7319e-05
15630.0 6.7052e-05
15650.0 6.6786e-05
15670.0 6.6516e-05
15690.0 6.6251e-05
15710.0 6.5993e-05
15730.0 6.5729e-05
15750.0 6.5467e-05
15770.0 6.5212e-05
15790.0 6.4957e-05
15810.0 6.4696e-05
15830.0 6.4443e-05
15850.0 6.4197e-05
15870.0 6.3946e-05
15890.0 6.3696e-05
15910.0 6.3455e-05
15930.0 6.3211e-05
15950.0 6.2964e-05
15970.0 6.2724e-05
15990.0 6.2488e-05
16010.0 6.2248e-05
16030.0 6.2008e-05
16050.0 6.178e-05
16070.0 6.1549e-05
16090.0 6.1315e-05
16110.0 6.1087e-05
16130.0 6.0865e-05
16150.0 6.0634e-05
16170.0 6.0408e-05
16190.0 6.0189e-05
16210.0 5.9969e-05
16230.0 5.9746e-05
16250.0 5.953e-05
16270.0 5.9319e-05
16290.0 5.9102e-05
16310.0 5.8888e-05
16330.0 5.8681e-05
16350.0 5.8471e-05
16370.0 5.8256e-05
16390.0 5.8052e-05
16410.0 5.785e-05
16430.0 5.7644e-05
16450.0 5.7441e-05
16470.0 5.7247e-05
16490.0 5.7046e-05
16510.0 5.6845e-05
16530.0 5.665e-05
16550.0 5.6458e-05
16570.0 5.626e-05
16590.0 5.6066e-05
16610.0 5.5881e-05
16630.0 5.5691e-05
16650.0 5.55e-05
16670.0 5.5317e-05
16690.0 5.5135e-05
16710.0 5.4944e-05
16730.0 5.4761e-05
16750.0 5.4583e-05
16770.0 5.4402e-05
16790.0 5.4218e-05
16810.0 5.4044e-05
16830.0 5.387e-05
16850.0 5.3691e-05
16870.0 5.3517e-05
16890.0 5.3348e-05
16910.0 5.3173e-05
16930.0 5.2997e-05
16950.0 5.2831e-05
16970.0 5.2663e-05
16990.0 5.2492e-05
17010.0 5.2325e-05
17030.0 5.2165e-05
17050.0 5.1997e-05
17070.0 5.1831e-05
17090.0 5.1671e-05
17110.0 5.151e-05
17130.0 5.1343e-05
17150.0 5.1183e-05
17170.0 5.1028e-05
17190.0 5.0868e-05
17210.0 5.0708e-05
17230.0 5.0556e-05
17250.0 5.0401e-05
17270.0 5.0241e-05
17290.0 5.0087e-05
17310.0 4.9937e-05
17330.0 4.9781e-05
17350.0 4.9625e-05
17370.0 4.9479e-05
17390.0 4.9329e-05
17410.0 4.9176e-05
17430.0 4.9029e-05
17450.0 4.8884e-05
17470.0 4.873e-05
17490.0 4.8581e-05
17510.0 4.8438e-05
17530.0 4.8292e-05
17550.0 4.8142e-05
17570.0 4.8e-05
17590.0 4.7859e-05
17610.0 4.7712e-05
17630.0 4.7567e-05
17650.0 4.7428e-05
17670.0 4.7285e-05
17690.0 4.7136e-05
17710.0 4.6998e-05
17730.0 4.686e-05
17750.0 4.6716e-05
17770.0 4.6575e-05
17790.0 4.6441e-05
17810.0 4.6299e-05
17830.0 4.6157e-05
17850.0 4.602e-05
17870.0 4.5884e-05
17890.0 4.5741e-05
17910.0 4.5602e-05
17930.0 4.547e-05
17950.0 4.5332e-05
17970.0 4.5192e-05
17990.0 4.5059e-05
18010.0 4.4925e-05
18030.0 4.4783e-05
18050.0 4.4647e-05
18070.0 4.4515e-05
18090.0 4.4378e-05
18110.0 4.4239e-05
18130.0 4.4108e-05
18150.0 4.3975e-05
18170.0 4.3837e-05
18190.0 4.3702e-05
18210.0 4.3572e-05
18230.0 4.3434e-05
18250.0 4.3295e-05
18270.0 4.3165e-05
18290.0 4.3032e-05
18310.0 4.2895e-05
18330.0 4.2762e-05
18350.0 4.2633e-05
18370.0 4.2496e-05
18390.0 4.236e-05
18410.0 4.2229e-05
18430.0 4.2096e-05
18450.0 4.1956e-05
18470.0 4.1824e-05
18490.0 4.1694e-05
18510.0 4.1558e-05
18530.0 4.1423e-05
18550.0 4.1294e-05
18570.0 4.116e-05
18590.0 4.1021e-05
18610.0 4.0888e-05
18630.0 4.0757e-05
18650.0 4.0619e-05
18670.0 4.0482e-05
18690.0 4.0353e-05
18710.0 4.0219e-05
18730.0 4.0081e-05
18750.0 3.9948e-05
18770.0 3.9818e-05
18790.0 3.9676e-05
18810.0 3.9539e-05
18830.0 3.9408e-05
18850.0 3.9272e-05
18870.0 3.9133e-05
18890.0 3.9e-05
18910.0 3.8868e-05
18930.0 3.8728e-05
18950.0 3.859e-05
18970.0 3.8458e-05
18990.0 3.832e-05
19010.0 3.8176e-05
19030.0 3.8043e-05
19050.0 3.7908e-05
19070.0 3.7767e-05
19090.0 3.7629e-05
19110.0 3.7497e-05
19130.0 3.7355e-05
19150.0 3.7213e-05
19170.0 3.7077e-05
19190.0 3.6939e-05
19210.0 3.6795e-05
19230.0 3.6654e-05
19250.0 3.652e-05
19270.0 3.6378e-05
19290.0 3.6235e-05
19310.0 3.6098e-05
19330.0 3.5959e-05
19350.0 3.5811e-05
19370.0 3.5669e-05
19390.0 3.5531e-05
19410.0 3.5387e-05
19430.0 3.524e-05
19450.0 3.5102e-05
19470.0 3.496e-05
19490.0 3.4813e-05
19510.0 3.467e-05
19530.0 3.453e-05
19550.0 3.4381e-05
19570.0 3.4231e-05
19590.0 3.4091e-05
19610.0 3.3946e-05
19630.0 3.3796e-05
19650.0 3.3652e-05
19670.0 3.351e-05
19690.0 3.3359e-05
19710.0 3.3209e-05
19730.0 3.3065e-05
19750.0 3.2917e-05
19770.0 3.2762e-05
19790.0 3.2615e-05
19810.0 3.247e-05
19830.0 3.2319e-05
19850.0 3.2168e-05
19870.0 3.2025e-05
19890.0 3.1877e-05
19910.0 3.1727e-05
19930.0 3.1591e-05
19950.0 3.1463e-05
19970.0 3.1343e-05
19990.0 3.1239e-05
20010.0 3.1158e-05
20030.0 3.1092e-05
20050.0 3.1041e-05
20070.0 3.1009e-05
20090.0 3.0988e-05
20110.0 3.0973e-05
20130.0 3.0964e-05
20150.0 3.0959e-05
20170.0 3.0954e-05
20190.0 3.0948e-05
20210.0 3.0942e-05
20230.0 3.0934e-05
20250.0 3.0922e-05
20270.0 3.0909e-05
20290.0 3.0894e-05
20310.0 3.0876e-05
20330.0 3.0853e-05
20350.0 3.0831e-05
20370.0 3.0806e-05
20390.0 3.0776e-05
20410.0 3.0746e-05
20430.0 3.0715e-05
20450.0 3.0679e-05
20470.0 3.0642e-05
20490.0 3.0607e-05
20510.0 3.0571e-05
20530.0 3.0533e-05
20550.0 3.0497e-05
20570.0 3.0464e-05
20590.0 3.043e-05
20610.0 3.0397e-05
20630.0 3.0367e-05
20650.0 3.0338e-05
20670.0 3.0306e-05
20690.0 3.0277e-05
20710.0 3.0249e-05
20730.0 3.0218e-05
20750.0 3.0185e-05
20770.0 3.0151e-05
20790.0 3.0113e-05
20810.0 3.0069e-05
20830.0 3.0022e-05
20850.0 2.9971e-05
20870.0 2.9911e-05
20890.0 2.9845e-05
20910.0 2.9778e-05
20930.0 2.9704e-05
20950.0 2.9623e-05
20970.0 2.9541e-05
20990.0 2.9458e-05
21010.0 2.9366e-05
21030.0 2.9274e-05
21050.0 2.9185e-05
21070.0 2.9094e-05
21090.0 2.8999e-05
21110.0 2.891e-05
21130.0 2.8823e-05
21150.0 2.8734e-05
21170.0 2.8647e-05
21190.0 2.8564e-05
21210.0 2.8478e-05
21230.0 2.839e-05
21250.0 2.8307e-05
21270.0 2.8223e-05
21290.0 2.8134e-05
21310.0 2.8044e-05
21330.0 2.7957e-05
21350.0 2.7863e-05
21370.0 2.7765e-05
21390.0 2.7668e-05
21410.0 2.7568e-05
21430.0 2.7457e-05
21450.0 2.7347e-05
21470.0 2.7238e-05
21490.0 2.7123e-05
21510.0 2.7002e-05
21530.0 2.6885e-05
21550.0 2.6765e-05
21570.0 2.6637e-05
21590.0 2.6512e-05
21610.0 2.6388e-05
21630.0 2.626e-05
21650.0 2.6127e-05
21670.0 2.6004e-05
21690.0 2.5879e-05
21710.0 2.5749e-05
21730.0 2.5623e-05
21750.0 2.5503e-05
21770.0 2.5374e-05
21790.0 2.5246e-05
21810.0 2.5124e-05
21830.0 2.5001e-05
21850.0 2.4873e-05
21870.0 2.4749e-05
21890.0 2.463e-05
21910.0 2.4505e-05
21930.0 2.438e-05
21950.0 2.4262e-05
21970.0 2.4143e-05
21990.0 2.4018e-05
22010.0 2.3903e-05
22030.0 2.3793e-05
22050.0 2.3682e-05
22070.0 2.3574e-05
22090.0 2.3478e-05
22110.0 2.3383e-05
22130.0 2.329e-05
22150.0 2.3206e-05
22170.0 2.3129e-05
22190.0 2.3052e-05
22210.0 2.2982e-05
22230.0 2.2921e-05
22250.0 2.2863e-05
22270.0 2.2807e-05
22290.0 2.2757e-05
22310.0 2.271e-05
22330.0 2.2663e-05
22350.0 2.2618e-05
22370.0 2.2577e-05
22390.0 2.2535e-05
22410.0 2.2491e-05
22430.0 2.2451e-05
22450.0 2.241e-05
22470.0 2.2366e-05
22490.0 2.2322e-05
22510.0 2.2281e-05
22530.0 2.2235e-05
22550.0 2.2187e-05
22570.0 2.2143e-05
22590.0 2.2099e-05
22610.0 2.2052e-05
22630.0 2.2007e-05
22650.0 2.1967e-05
22670.0 2.1926e-05
22690.0 2.1886e-05
22710.0 2.1851e-05
22730.0 2.1819e-05
22750.0 2.1787e-05
22770.0 2.1761e-05
22790.0 2.174e-05
22810.0 2.1722e-05
22830.0 2.1708e-05
22850.0 2.17e-05
22870.0 2.1695e-05
