#lamb flux
1010.0 5.013e-05
1030.0 5.0338e-05
1050.0 5.0566e-05
1070.0 5.1752e-05
1090.0 5.5011e-05
1110.0 5.7543e-05
1130.0 5.9351e-05
1150.0 6.0799e-05
1170.0 6.1856e-05
1190.0 6.2167e-05
1210.0 6.2236e-05
1230.0 6.2216e-05
1250.0 6.1952e-05
1270.0 6.1478e-05
1290.0 6.1169e-05
1310.0 6.0839e-05
1330.0 6.0409e-05
1350.0 6.0111e-05
1370.0 6.0041e-05
1390.0 6.0073e-05
1410.0 6.0261e-05
1430.0 6.0847e-05
1450.0 6.1764e-05
1470.0 6.2989e-05
1490.0 6.4693e-05
1510.0 6.7046e-05
1530.0 6.9857e-05
1550.0 7.33e-05
1570.0 7.7574e-05
1590.0 8.27e-05
1610.0 8.8668e-05
1630.0 9.5826e-05
1650.0 0.00010427
1670.0 0.00011395
1690.0 0.00012509
1710.0 0.000138
1730.0 0.00015278
1750.0 0.00016931
1770.0 0.0001881
1790.0 0.00020932
1810.0 0.00023285
1830.0 0.00025885
1850.0 0.00028789
1870.0 0.00031952
1890.0 0.00035364
1910.0 0.00039056
1930.0 0.00043025
1950.0 0.0004719
1970.0 0.00051549
1990.0 0.00056119
2010.0 0.00060807
2030.0 0.00065541
2050.0 0.00070346
2070.0 0.0007517
2090.0 0.00079846
2110.0 0.00084388
2130.0 0.00088792
2150.0 0.0009294
2170.0 0.00096747
2190.0 0.001003
2210.0 0.0010352
2230.0 0.0010632
2250.0 0.0010874
2270.0 0.0011086
2290.0 0.0011255
2310.0 0.0011382
2330.0 0.001148
2350.0 0.0011548
2370.0 0.0011581
2390.0 0.0011592
2410.0 0.0011592
2430.0 0.0011573
2450.0 0.0011542
2470.0 0.0011516
2490.0 0.00115
2510.0 0.0011489
2530.0 0.0011517
2550.0 0.0011624
2570.0 0.0011844
2590.0 0.0012219
2610.0 0.0012881
2630.0 0.0013851
2650.0 0.0015074
2670.0 0.0016591
2690.0 0.0018382
2710.0 0.0020243
2730.0 0.0022097
2750.0 0.0024044
2770.0 0.0025959
2790.0 0.0027793
2810.0 0.0029671
2830.0 0.0031698
2850.0 0.0033675
2870.0 0.0035707
2890.0 0.0037895
2910.0 0.0040165
2930.0 0.0042429
2950.0 0.0044861
2970.0 0.0047441
2990.0 0.0050048
3010.0 0.005274
3030.0 0.0055621
3050.0 0.0058593
3070.0 0.006149
3090.0 0.0064446
3110.0 0.0067316
3130.0 0.0069885
3150.0 0.0072083
3170.0 0.0073835
3190.0 0.007506
3210.0 0.0075937
3230.0 0.0076668
3250.0 0.0077527
3270.0 0.0078835
3290.0 0.0080766
3310.0 0.0083482
3330.0 0.0086902
3350.0 0.0090807
3370.0 0.0095128
3390.0 0.0099569
3410.0 0.010409
3430.0 0.011323
3450.0 0.011999
3470.0 0.012597
3490.0 0.012789
3510.0 0.012622
3530.0 0.014302
3550.0 0.017014
3570.0 0.018705
3590.0 0.019988
3610.0 0.020157
3630.0 0.01912
3650.0 0.020549
3670.0 0.02458
3690.0 0.027621
3710.0 0.02884
3730.0 0.029523
3750.0 0.031059
3770.0 0.031129
3790.0 0.029836
3810.0 0.028082
3830.0 0.026193
3850.0 0.02612
3870.0 0.027716
3890.0 0.02928
3910.0 0.030492
3930.0 0.030858
3950.0 0.032929
3970.0 0.035179
3990.0 0.033891
4010.0 0.030274
4030.0 0.026887
4050.0 0.025882
4070.0 0.026944
4090.0 0.027162
4110.0 0.026399
4130.0 0.026066
4150.0 0.026757
4170.0 0.029536
4190.0 0.031985
4210.0 0.030983
4230.0 0.028921
4250.0 0.027809
4270.0 0.027177
4290.0 0.02766
4310.0 0.028488
4330.0 0.02713
4350.0 0.023866
4370.0 0.021127
4390.0 0.019247
4410.0 0.017767
4430.0 0.017774
4450.0 0.019334
4470.0 0.020906
4490.0 0.022752
4510.0 0.025738
4530.0 0.031487
4550.0 0.038004
4570.0 0.041916
4590.0 0.044824
4610.0 0.048197
4630.0 0.049829
4650.0 0.046417
4670.0 0.038941
4690.0 0.033099
4710.0 0.031092
4730.0 0.030055
4750.0 0.026933
4770.0 0.024438
4790.0 0.025379
4810.0 0.027581
4830.0 0.027462
4850.0 0.025316
4870.0 0.024797
4890.0 0.02587
4910.0 0.027065
4930.0 0.027034
4950.0 0.026285
4970.0 0.025037
4990.0 0.023013
5010.0 0.021136
5030.0 0.02007
5050.0 0.019577
5070.0 0.019245
5090.0 0.018937
5110.0 0.018909
5130.0 0.0192
5150.0 0.020278
5170.0 0.022393
5190.0 0.024962
5210.0 0.027661
5230.0 0.029318
5250.0 0.030186
5270.0 0.031747
5290.0 0.033268
5310.0 0.033643
5330.0 0.032401
5350.0 0.030953
5370.0 0.030968
5390.0 0.032651
5410.0 0.034279
5430.0 0.034851
5450.0 0.034663
5470.0 0.033666
5490.0 0.032437
5510.0 0.03182
5530.0 0.031968
5550.0 0.032457
5570.0 0.032786
5590.0 0.031825
5610.0 0.03002
5630.0 0.028248
5650.0 0.026857
5670.0 0.026009
5690.0 0.024966
5710.0 0.024169
5730.0 0.024532
5750.0 0.024488
5770.0 0.023984
5790.0 0.024204
5810.0 0.024771
5830.0 0.025303
5850.0 0.0255
5870.0 0.02498
5890.0 0.02392
5910.0 0.022705
5930.0 0.020975
5950.0 0.019738
5970.0 0.019716
5990.0 0.020343
6010.0 0.020572
6030.0 0.019845
6050.0 0.019547
6070.0 0.020301
6090.0 0.021307
6110.0 0.021681
6130.0 0.02094
6150.0 0.01972
6170.0 0.018917
6190.0 0.018123
6210.0 0.017274
6230.0 0.016629
6250.0 0.016431
6270.0 0.016856
6290.0 0.017619
6310.0 0.0186
6330.0 0.019676
6350.0 0.02057
6370.0 0.02097
6390.0 0.021012
6410.0 0.021232
6430.0 0.021492
6450.0 0.021564
6470.0 0.021841
6490.0 0.022175
6510.0 0.022267
6530.0 0.022029
6550.0 0.021406
6570.0 0.020619
6590.0 0.020018
6610.0 0.019573
6630.0 0.019183
6650.0 0.018523
6670.0 0.017741
6690.0 0.017155
6710.0 0.016792
6730.0 0.016681
6750.0 0.016476
6770.0 0.016146
6790.0 0.015895
6810.0 0.015695
6830.0 0.015654
6850.0 0.015666
6870.0 0.015544
6890.0 0.015447
6910.0 0.015123
6930.0 0.01477
6950.0 0.014688
6970.0 0.014441
6990.0 0.01399
7010.0 0.013776
7030.0 0.013603
7050.0 0.013297
7070.0 0.012934
7090.0 0.012676
7110.0 0.012809
7130.0 0.013308
7150.0 0.013877
7170.0 0.014244
7190.0 0.014138
7210.0 0.013863
7230.0 0.013684
7250.0 0.013502
7270.0 0.013385
7290.0 0.013213
7310.0 0.013128
7330.0 0.013356
7350.0 0.013617
7370.0 0.013756
7390.0 0.013621
7410.0 0.013288
7430.0 0.013127
7450.0 0.012979
7470.0 0.012348
7490.0 0.011888
7510.0 0.011387
7530.0 0.011016
7550.0 0.010965
7570.0 0.011089
7590.0 0.011019
7610.0 0.010905
7630.0 0.010854
7650.0 0.010805
7670.0 0.011006
7690.0 0.011401
7710.0 0.01187
7730.0 0.012225
7750.0 0.012571
7770.0 0.012741
7790.0 0.012703
7810.0 0.012505
7830.0 0.012632
7850.0 0.012608
7870.0 0.012194
7890.0 0.01175
7910.0 0.011372
7930.0 0.010988
7950.0 0.010719
7970.0 0.010673
7990.0 0.010801
8010.0 0.010678
8030.0 0.010549
8050.0 0.010364
8070.0 0.01016
8090.0 0.0099489
8110.0 0.0099567
8130.0 0.010029
8150.0 0.010007
8170.0 0.0099287
8190.0 0.0097179
8210.0 0.0092215
8230.0 0.0085944
8250.0 0.0082069
8270.0 0.0079593
8290.0 0.0078024
8310.0 0.007821
8330.0 0.0079416
8350.0 0.0077664
8370.0 0.007582
8390.0 0.0077155
8410.0 0.0080633
8430.0 0.0085742
8450.0 0.0090692
8470.0 0.0092669
8490.0 0.0094203
8510.0 0.0094586
8530.0 0.009506
8550.0 0.0096124
8570.0 0.0096575
8590.0 0.0097
8610.0 0.0099626
8630.0 0.010065
8650.0 0.0098496
8670.0 0.009839
8690.0 0.0099099
8710.0 0.0098891
8730.0 0.0098002
8750.0 0.0095193
8770.0 0.0093915
8790.0 0.0093169
8810.0 0.0092004
8830.0 0.0086781
8850.0 0.0079816
8870.0 0.0074715
8890.0 0.0071815
8910.0 0.006755
8930.0 0.0062858
8950.0 0.0060462
8970.0 0.0060118
8990.0 0.0060406
9010.0 0.0060095
9030.0 0.0059672
9050.0 0.005928
9070.0 0.0058917
9090.0 0.005856
9110.0 0.0058205
9130.0 0.005785
9150.0 0.0057498
9170.0 0.0057146
9190.0 0.0056794
9210.0 0.0056441
9230.0 0.0056095
9250.0 0.005575
9270.0 0.0055405
9290.0 0.0055061
9310.0 0.0054719
9330.0 0.0054379
9350.0 0.005404
9370.0 0.0053701
9390.0 0.0053366
9410.0 0.0053031
9430.0 0.0052695
9450.0 0.005235
9470.0 0.0052013
9490.0 0.0051699
9510.0 0.0051377
9530.0 0.0051057
9550.0 0.0050735
9570.0 0.0050414
9590.0 0.0050096
9610.0 0.0049778
9630.0 0.0049462
9650.0 0.0049147
9670.0 0.0048836
9690.0 0.0048524
9710.0 0.0048214
9730.0 0.0047907
9750.0 0.0047601
9770.0 0.0047295
9790.0 0.0046992
9810.0 0.0046691
9830.0 0.0046385
9850.0 0.0046046
9870.0 0.0045758
9890.0 0.0045477
9910.0 0.0045191
9930.0 0.0044899
9950.0 0.0044617
9970.0 0.0044328
9990.0 0.0044033
10010.0 0.0043704
10030.0 0.0043402
10050.0 0.0043138
10070.0 0.0042871
10090.0 0.0042602
10110.0 0.0042312
10130.0 0.0041962
10150.0 0.0041697
10170.0 0.0041444
10190.0 0.0041174
10210.0 0.004091
10230.0 0.0040645
10250.0 0.0040367
10270.0 0.004009
10290.0 0.0039823
10310.0 0.0039546
10330.0 0.0039261
10350.0 0.003899
10370.0 0.003872
10390.0 0.003844
10410.0 0.0038163
10430.0 0.0037898
10450.0 0.0037624
10470.0 0.0037344
10490.0 0.0037075
10510.0 0.0036807
10530.0 0.0036522
10550.0 0.0036246
10570.0 0.003598
10590.0 0.0035705
10610.0 0.0035425
10630.0 0.0035156
10650.0 0.0034887
10670.0 0.0034604
10690.0 0.0034327
10710.0 0.0034058
10730.0 0.0033779
10750.0 0.0033491
10770.0 0.0033222
10790.0 0.0032948
10810.0 0.0032664
10830.0 0.0032386
10850.0 0.0032117
10870.0 0.0031831
10890.0 0.0031546
10910.0 0.0031273
10930.0 0.0031
10950.0 0.0030721
10970.0 0.0030453
10990.0 0.0030202
11010.0 0.0030801
11030.0 0.0030571
11050.0 0.0030351
11070.0 0.0030129
11090.0 0.0029894
11110.0 0.0029668
11130.0 0.0029443
11150.0 0.0029209
11170.0 0.0028976
11190.0 0.0028755
11210.0 0.0028533
11230.0 0.0028311
11250.0 0.0028104
11270.0 0.0027908
11290.0 0.0027713
11310.0 0.0027528
11330.0 0.0027361
11350.0 0.0027199
11370.0 0.0027041
11390.0 0.0026894
11410.0 0.0026753
11430.0 0.0026607
11450.0 0.0026465
11470.0 0.0026325
11490.0 0.0026179
11510.0 0.0026023
11530.0 0.0025867
11550.0 0.0025703
11570.0 0.0025524
11590.0 0.0025336
11610.0 0.0025144
11630.0 0.0024934
11650.0 0.0024707
11670.0 0.002448
11690.0 0.0024244
11710.0 0.0023993
11730.0 0.0023738
11750.0 0.0023487
11770.0 0.0023224
11790.0 0.0022957
11810.0 0.0022696
11830.0 0.0022438
11850.0 0.0022168
11870.0 0.002191
11890.0 0.0021662
11910.0 0.0021413
11930.0 0.0021166
11950.0 0.0020934
11970.0 0.0020706
11990.0 0.0020478
12010.0 0.0020263
12030.0 0.002006
12050.0 0.0019861
12070.0 0.0019667
12090.0 0.0019494
12110.0 0.0019327
12130.0 0.0019168
12150.0 0.0019023
12170.0 0.0018893
12190.0 0.001877
12210.0 0.0018662
12230.0 0.0018571
12250.0 0.0018494
12270.0 0.001843
12290.0 0.0018382
12310.0 0.0018348
12330.0 0.0018327
12350.0 0.0018319
12370.0 0.0018319
12390.0 0.0018328
12410.0 0.0018346
12430.0 0.0018366
12450.0 0.0018387
12470.0 0.0018409
12490.0 0.0018427
12510.0 0.0018439
12530.0 0.0018444
12550.0 0.001844
12570.0 0.0018424
12590.0 0.0018395
12610.0 0.0018351
12630.0 0.001829
12650.0 0.0018215
12670.0 0.0018123
12690.0 0.0018014
12710.0 0.0017893
12730.0 0.0017759
12750.0 0.0017606
12770.0 0.0017446
12790.0 0.001728
12810.0 0.0017104
12830.0 0.0016919
12850.0 0.0016738
12870.0 0.0016556
12890.0 0.0016367
12910.0 0.0016181
12930.0 0.0016001
12950.0 0.0015817
12970.0 0.0015632
12990.0 0.0015456
13010.0 0.0015283
13030.0 0.0015108
13050.0 0.0014938
13070.0 0.0014776
13090.0 0.0014613
13110.0 0.0014452
13130.0 0.0014301
13150.0 0.0014154
13170.0 0.0014007
13190.0 0.001387
13210.0 0.0013743
13230.0 0.001362
13250.0 0.0013502
13270.0 0.0013394
13290.0 0.0013291
13310.0 0.001319
13330.0 0.0013096
13350.0 0.0013007
13370.0 0.0012918
13390.0 0.001283
13410.0 0.0012746
13430.0 0.0012661
13450.0 0.0012574
13470.0 0.0012487
13490.0 0.0012401
13510.0 0.0012308
13530.0 0.0012215
13550.0 0.0012123
13570.0 0.0012029
13590.0 0.001193
13610.0 0.0011834
13630.0 0.0011738
13650.0 0.0011639
13670.0 0.001154
13690.0 0.0011443
13710.0 0.0011345
13730.0 0.0011243
13750.0 0.0011146
13770.0 0.001105
13790.0 0.0010951
13810.0 0.0010852
13830.0 0.0010757
13850.0 0.0010658
13870.0 0.0010557
13890.0 0.0010458
13910.0 0.001036
13930.0 0.0010257
13950.0 0.0010154
13970.0 0.0010056
13990.0 0.0009954
14010.0 0.00098499
14030.0 0.00097487
14050.0 0.0009648
14070.0 0.00095416
14090.0 0.0009438
14110.0 0.00093375
14130.0 0.00092355
14150.0 0.00091324
14170.0 0.00090359
14190.0 0.00089418
14210.0 0.00088472
14230.0 0.00087577
14250.0 0.00086745
14270.0 0.00085922
14290.0 0.00085132
14310.0 0.00084427
14330.0 0.00083761
14350.0 0.00083119
14370.0 0.00082531
14390.0 0.00082
14410.0 0.00081481
14430.0 0.00080991
14450.0 0.00080545
14470.0 0.0008012
14490.0 0.00079693
14510.0 0.000793
14530.0 0.00078932
14550.0 0.00078562
14570.0 0.00078199
14590.0 0.0007786
14610.0 0.00077522
14630.0 0.00077178
14650.0 0.00076855
14670.0 0.00076549
14690.0 0.00076246
14710.0 0.00075958
14730.0 0.00075715
14750.0 0.00075496
14770.0 0.00075311
14790.0 0.00075183
14810.0 0.00075113
14830.0 0.00075104
14850.0 0.00075174
14870.0 0.0007532
14890.0 0.00075544
14910.0 0.00075844
14930.0 0.0007619
14950.0 0.00076561
14970.0 0.00076949
14990.0 0.00077311
15010.0 0.00077622
15030.0 0.0007788
15050.0 0.0007808
15070.0 0.00078221
15090.0 0.00078323
15110.0 0.00078396
15130.0 0.00078452
15150.0 0.00078502
15170.0 0.00078546
15190.0 0.00078589
15210.0 0.00078636
15230.0 0.00078685
15250.0 0.00078734
15270.0 0.00078785
15290.0 0.00078844
15310.0 0.00078902
15330.0 0.00078961
15350.0 0.00079026
15370.0 0.00079093
15390.0 0.00079158
15410.0 0.00079228
15430.0 0.00079302
15450.0 0.00079377
15470.0 0.00079451
15490.0 0.00079533
15510.0 0.00079616
15530.0 0.00079698
15550.0 0.00079784
15570.0 0.00079875
15590.0 0.00079964
15610.0 0.00080053
15630.0 0.00080149
15650.0 0.00080247
15670.0 0.00080343
15690.0 0.00080443
15710.0 0.00080548
15730.0 0.00080651
15750.0 0.00080755
15770.0 0.00080864
15790.0 0.00080974
15810.0 0.00081081
15830.0 0.00081194
15850.0 0.00081311
15870.0 0.00081425
15890.0 0.00081541
15910.0 0.00081662
15930.0 0.00081783
15950.0 0.00081902
15970.0 0.00082025
15990.0 0.00082151
16010.0 0.00082275
16030.0 0.00082399
16050.0 0.00082529
16070.0 0.00082659
16090.0 0.00082787
16110.0 0.00082919
16130.0 0.00083053
16150.0 0.00083183
16170.0 0.00083315
16190.0 0.00083452
16210.0 0.00083587
16230.0 0.00083721
16250.0 0.00083858
16270.0 0.00083998
16290.0 0.00084134
16310.0 0.00084272
16330.0 0.00084413
16350.0 0.00084552
16370.0 0.00084687
16390.0 0.00084828
16410.0 0.0008497
16430.0 0.00085109
16450.0 0.00085248
16470.0 0.00085392
16490.0 0.00085532
16510.0 0.00085669
16530.0 0.00085811
16550.0 0.00085952
16570.0 0.00086089
16590.0 0.00086227
16610.0 0.0008637
16630.0 0.00086508
16650.0 0.00086645
16670.0 0.00086785
16690.0 0.00086924
16710.0 0.00087056
16730.0 0.00087192
16750.0 0.00087329
16770.0 0.00087462
16790.0 0.00087593
16810.0 0.00087728
16830.0 0.00087861
16850.0 0.00087989
16870.0 0.00088118
16890.0 0.00088249
16910.0 0.00088373
16930.0 0.00088496
16950.0 0.00088622
16970.0 0.00088745
16990.0 0.00088864
17010.0 0.00088984
17030.0 0.00089105
17050.0 0.00089219
17070.0 0.00089331
17090.0 0.00089446
17110.0 0.00089557
17130.0 0.00089662
17150.0 0.00089769
17170.0 0.00089876
17190.0 0.00089977
17210.0 0.00090076
17230.0 0.00090177
17250.0 0.00090273
17270.0 0.00090362
17290.0 0.00090454
17310.0 0.00090544
17330.0 0.00090628
17350.0 0.00090708
17370.0 0.00090792
17390.0 0.0009087
17410.0 0.00090943
17430.0 0.00091016
17450.0 0.00091089
17470.0 0.00091151
17490.0 0.00091212
17510.0 0.00091275
17530.0 0.00091332
17550.0 0.00091383
17570.0 0.00091435
17590.0 0.00091486
17610.0 0.00091527
17630.0 0.00091567
17650.0 0.00091607
17670.0 0.00091641
17690.0 0.00091666
17710.0 0.00091695
17730.0 0.0009172
17750.0 0.00091737
17770.0 0.00091752
17790.0 0.00091768
17810.0 0.00091775
17830.0 0.00091777
17850.0 0.00091779
17870.0 0.00091777
17890.0 0.00091767
17910.0 0.00091754
17930.0 0.00091743
17950.0 0.00091723
17970.0 0.00091697
17990.0 0.00091672
18010.0 0.00091643
18030.0 0.00091602
18050.0 0.00091562
18070.0 0.0009152
18090.0 0.00091471
18110.0 0.00091415
18130.0 0.00091361
18150.0 0.00091301
18170.0 0.00091233
18190.0 0.00091163
18210.0 0.00091092
18230.0 0.00091011
18250.0 0.00090924
18270.0 0.00090839
18290.0 0.00090748
18310.0 0.00090649
18330.0 0.00090549
18350.0 0.00090447
18370.0 0.00090334
18390.0 0.00090218
18410.0 0.00090102
18430.0 0.00089979
18450.0 0.00089846
18470.0 0.00089715
18490.0 0.00089581
18510.0 0.00089438
18530.0 0.00089291
18550.0 0.00089144
18570.0 0.00088989
18590.0 0.00088826
18610.0 0.00088663
18630.0 0.00088497
18650.0 0.00088322
18670.0 0.00088143
18690.0 0.00087965
18710.0 0.00087779
18730.0 0.00087587
18750.0 0.00087394
18770.0 0.00087197
18790.0 0.0008699
18810.0 0.00086781
18830.0 0.00086572
18850.0 0.00086355
18870.0 0.00086132
18890.0 0.0008591
18910.0 0.00085683
18930.0 0.00085448
18950.0 0.0008521
18970.0 0.00084972
18990.0 0.00084726
19010.0 0.00084472
19030.0 0.00084222
19050.0 0.00083966
19070.0 0.00083703
19090.0 0.00083438
19110.0 0.00083174
19130.0 0.00082899
19150.0 0.00082621
19170.0 0.00082342
19190.0 0.0008206
19210.0 0.0008177
19230.0 0.00081478
19250.0 0.00081188
19270.0 0.00080889
19290.0 0.00080586
19310.0 0.00080284
19330.0 0.00079978
19350.0 0.00079662
19370.0 0.00079348
19390.0 0.00079033
19410.0 0.00078712
19430.0 0.00078386
19450.0 0.00078062
19470.0 0.00077733
19490.0 0.00077398
19510.0 0.00077064
19530.0 0.00076728
19550.0 0.00076385
19570.0 0.00076038
19590.0 0.00075695
19610.0 0.00075347
19630.0 0.00074993
19650.0 0.00074641
19670.0 0.00074288
19690.0 0.00073927
19710.0 0.00073565
19730.0 0.00073204
19750.0 0.0007284
19770.0 0.00072469
19790.0 0.00072101
19810.0 0.00071732
19830.0 0.00071356
19850.0 0.00070977
19870.0 0.00070597
19890.0 0.00070201
19910.0 0.00069784
19930.0 0.00069342
19950.0 0.0006886
19970.0 0.00068309
19990.0 0.00067682
20010.0 0.00066991
20030.0 0.00066202
20050.0 0.00065319
20070.0 0.00064386
20090.0 0.00063408
20110.0 0.00062347
20130.0 0.00061288
20150.0 0.00060247
20170.0 0.00059188
20190.0 0.00058127
20210.0 0.00057115
20230.0 0.00056124
20250.0 0.00055129
20270.0 0.0005418
20290.0 0.00053282
20310.0 0.000524
20330.0 0.00051538
20350.0 0.00050754
20370.0 0.00050002
20390.0 0.00049277
20410.0 0.00048601
20430.0 0.00047978
20450.0 0.00047373
20470.0 0.0004681
20490.0 0.00046294
20510.0 0.00045812
20530.0 0.00045355
20550.0 0.00044936
20570.0 0.0004455
20590.0 0.00044185
20610.0 0.00043845
20630.0 0.00043529
20650.0 0.0004323
20670.0 0.00042944
20690.0 0.00042674
20710.0 0.00042413
20730.0 0.00042158
20750.0 0.00041905
20770.0 0.00041653
20790.0 0.00041398
20810.0 0.00041136
20830.0 0.00040866
20850.0 0.00040585
20870.0 0.00040288
20890.0 0.00039975
20910.0 0.0003965
20930.0 0.00039305
20950.0 0.00038939
20970.0 0.00038559
20990.0 0.00038165
21010.0 0.00037745
21030.0 0.00037311
21050.0 0.00036869
21070.0 0.00036411
21090.0 0.00035933
21110.0 0.00035458
21130.0 0.00034979
21150.0 0.00034486
21170.0 0.00033993
21190.0 0.0003351
21210.0 0.00033018
21230.0 0.00032524
21250.0 0.00032047
21270.0 0.00031577
21290.0 0.00031107
21310.0 0.00030649
21330.0 0.00030212
21350.0 0.00029777
21370.0 0.00029351
21390.0 0.00028944
21410.0 0.00028549
21430.0 0.00028153
21450.0 0.00027776
21470.0 0.00027415
21490.0 0.00027058
21510.0 0.00026708
21530.0 0.00026374
21550.0 0.00026046
21570.0 0.00025719
21590.0 0.00025402
21610.0 0.00025095
21630.0 0.00024789
21650.0 0.00024484
21670.0 0.00024192
21690.0 0.00023902
21710.0 0.00023612
21730.0 0.00023328
21750.0 0.0002305
21770.0 0.00022768
21790.0 0.00022489
21810.0 0.00022216
21830.0 0.00021943
21850.0 0.00021667
21870.0 0.00021395
21890.0 0.00021126
21910.0 0.00020853
21930.0 0.0002058
21950.0 0.00020311
21970.0 0.00020039
21990.0 0.00019761
22010.0 0.0001949
22030.0 0.0001922
22050.0 0.00018946
22070.0 0.00018673
22090.0 0.00018408
22110.0 0.00018141
22130.0 0.00017873
22150.0 0.00017612
22170.0 0.00017356
22190.0 0.00017098
22210.0 0.00016845
22230.0 0.00016602
22250.0 0.00016361
22270.0 0.00016122
22290.0 0.00015891
22310.0 0.00015667
22330.0 0.00015441
22350.0 0.00015221
22370.0 0.00015008
22390.0 0.00014797
22410.0 0.00014585
22430.0 0.00014381
22450.0 0.00014179
22470.0 0.00013976
22490.0 0.00013775
22510.0 0.00013579
22530.0 0.0001338
22550.0 0.0001318
22570.0 0.00012985
22590.0 0.00012791
22610.0 0.00012595
22630.0 0.00012401
22650.0 0.00012213
22670.0 0.00012023
22690.0 0.00011834
22710.0 0.00011652
22730.0 0.00011473
22750.0 0.00011294
22770.0 0.00011122
22790.0 0.00010957
22810.0 0.00010796
22830.0 0.0001064
22850.0 0.00010494
22870.0 0.00010354
22890.0 0.00010219
22910.0 0.00010095
22930.0 9.9801e-05
22950.0 9.8731e-05
22970.0 9.7754e-05
22990.0 9.6885e-05
23010.0 9.6103e-05
23030.0 9.5411e-05
23050.0 9.4801e-05
23070.0 9.4258e-05
23090.0 9.3791e-05
23110.0 9.3375e-05
23130.0 9.2984e-05
23150.0 9.262e-05
23170.0 9.2279e-05
23190.0 9.1925e-05
23210.0 9.1551e-05
23230.0 9.1171e-05
23250.0 9.0764e-05
23270.0 9.0319e-05
23290.0 8.9848e-05
23310.0 8.935e-05
23330.0 8.881e-05
23350.0 8.8238e-05
23370.0 8.7641e-05
23390.0 8.7016e-05
23410.0 8.6369e-05
23430.0 8.5703e-05
23450.0 8.5022e-05
23470.0 8.4332e-05
23490.0 8.3636e-05
23510.0 8.2933e-05
