#lamb flux
1010.0 2.4806e-08
1030.0 2.7958e-08
1050.0 3.1583e-08
1070.0 3.5663e-08
1090.0 4.0298e-08
1110.0 4.5052e-08
1130.0 4.9836e-08
1150.0 5.4848e-08
1170.0 6.0018e-08
1190.0 6.4921e-08
1210.0 6.9889e-08
1230.0 7.5024e-08
1250.0 8.0054e-08
1270.0 8.4939e-08
1290.0 9.0101e-08
1310.0 9.5259e-08
1330.0 1.0021e-07
1350.0 1.0521e-07
1370.0 1.1037e-07
1390.0 1.1541e-07
1410.0 1.2029e-07
1430.0 1.254e-07
1450.0 1.305e-07
1470.0 1.3544e-07
1490.0 1.4042e-07
1510.0 1.4569e-07
1530.0 1.5068e-07
1550.0 1.556e-07
1570.0 1.6068e-07
1590.0 1.6577e-07
1610.0 1.7063e-07
1630.0 1.7564e-07
1650.0 1.8077e-07
1670.0 1.8574e-07
1690.0 1.9063e-07
1710.0 1.957e-07
1730.0 2.008e-07
1750.0 2.0558e-07
1770.0 2.1049e-07
1790.0 2.1549e-07
1810.0 2.2031e-07
1830.0 2.2502e-07
1850.0 2.3001e-07
1870.0 2.3485e-07
1890.0 2.3949e-07
1910.0 2.4419e-07
1930.0 2.4898e-07
1950.0 2.535e-07
1970.0 2.5791e-07
1990.0 2.6245e-07
2010.0 2.6686e-07
2030.0 2.7102e-07
2050.0 2.7526e-07
2070.0 2.7954e-07
2090.0 2.8346e-07
2110.0 2.8726e-07
2130.0 2.911e-07
2150.0 2.9474e-07
2170.0 2.9806e-07
2190.0 3.0142e-07
2210.0 3.0467e-07
2230.0 3.0759e-07
2250.0 3.1033e-07
2270.0 3.1312e-07
2290.0 3.1558e-07
2310.0 3.1768e-07
2330.0 3.1973e-07
2350.0 3.2164e-07
2370.0 3.2319e-07
2390.0 3.2464e-07
2410.0 3.262e-07
2430.0 3.2761e-07
2450.0 3.29e-07
2470.0 3.3078e-07
2490.0 3.3313e-07
2510.0 3.359e-07
2530.0 3.4023e-07
2550.0 3.4777e-07
2570.0 3.6005e-07
2590.0 3.7916e-07
2610.0 4.1091e-07
2630.0 4.5666e-07
2650.0 5.1378e-07
2670.0 5.8287e-07
2690.0 6.6092e-07
2710.0 7.3602e-07
2730.0 8.0227e-07
2750.0 8.6038e-07
2770.0 9.0374e-07
2790.0 9.3181e-07
2810.0 9.4927e-07
2830.0 9.5923e-07
2850.0 9.6177e-07
2870.0 9.6074e-07
2890.0 9.5825e-07
2910.0 9.5461e-07
2930.0 9.499e-07
2950.0 9.4547e-07
2970.0 9.413e-07
2990.0 9.3679e-07
3010.0 1.9386e-05
3030.0 1.9286e-05
3050.0 1.9186e-05
3070.0 1.907e-05
3090.0 1.8947e-05
3110.0 1.8797e-05
3130.0 1.8597e-05
3150.0 1.8336e-05
3170.0 1.7993e-05
3190.0 1.7578e-05
3210.0 1.7125e-05
3230.0 1.6671e-05
3250.0 1.6293e-05
3270.0 1.6043e-05
3290.0 1.5986e-05
3310.0 1.611e-05
3330.0 1.6455e-05
3350.0 1.6965e-05
3370.0 1.7654e-05
3390.0 1.8499e-05
3410.0 1.9408e-05
3430.0 2.0426e-05
3450.0 2.159e-05
3470.0 2.2848e-05
3490.0 2.4169e-05
3510.0 2.5643e-05
3530.0 2.7206e-05
3550.0 2.8769e-05
3570.0 3.0399e-05
3590.0 3.2213e-05
3610.0 3.408e-05
3630.0 3.6045e-05
3650.0 3.8088e-05
3670.0 4.0008e-05
3690.0 4.1509e-05
3710.0 4.2443e-05
3730.0 4.2625e-05
3750.0 4.2051e-05
3770.0 3.8686e-05
3790.0 3.4905e-05
3810.0 3.2362e-05
3830.0 2.8264e-05
3850.0 2.1032e-05
3870.0 1.4952e-05
3890.0 2.4999e-05
3910.0 4.0655e-05
3930.0 4.9169e-05
3950.0 4.8313e-05
3970.0 4.9382e-05
3990.0 5.8003e-05
4010.0 7.4507e-05
4030.0 7.5406e-05
4050.0 6.683e-05
4070.0 5.9235e-05
4090.0 5.6e-05
4110.0 6.75e-05
4130.0 7.0553e-05
4150.0 6.885e-05
4170.0 6.9821e-05
4190.0 7.1181e-05
4210.0 7.0262e-05
4230.0 7.7608e-05
4250.0 8.483e-05
4270.0 8.6051e-05
4290.0 8.7123e-05
4310.0 8.9358e-05
4330.0 9.8526e-05
4350.0 0.00011362
4370.0 0.000129
4390.0 0.00012246
4410.0 0.00010028
4430.0 8.4151e-05
4450.0 7.2082e-05
4470.0 6.9971e-05
4490.0 7.6875e-05
4510.0 8.6235e-05
4530.0 9.5282e-05
4550.0 0.00011036
4570.0 0.00013059
4590.0 0.00015832
4610.0 0.00020331
4630.0 0.000247
4650.0 0.00025398
4670.0 0.00024523
4690.0 0.00026135
4710.0 0.00027599
4730.0 0.00023408
4750.0 0.00016725
4770.0 0.00013627
4790.0 0.00013169
4810.0 0.00012245
4830.0 0.00011555
4850.0 0.00013233
4870.0 0.0001708
4890.0 0.00019631
4910.0 0.00016656
4930.0 0.00014739
4950.0 0.00016501
4970.0 0.00022117
4990.0 0.00028692
5010.0 0.00030524
5030.0 0.00025249
5050.0 0.000163
5070.0 0.00011199
5090.0 9.9386e-05
5110.0 0.00010387
5130.0 0.00011182
5150.0 0.00011747
5170.0 0.00011733
5190.0 0.00011485
5210.0 0.00011123
5230.0 0.000114
5250.0 0.00012185
5270.0 0.00014024
5290.0 0.00016182
5310.0 0.00017832
5330.0 0.00018298
5350.0 0.00018441
5370.0 0.00020045
5390.0 0.00021664
5410.0 0.00021074
5430.0 0.00018218
5450.0 0.00016757
5470.0 0.00018775
5490.0 0.00024086
5510.0 0.00030778
5530.0 0.00034224
5550.0 0.00033194
5570.0 0.00030091
5590.0 0.00026841
5610.0 0.00024804
5630.0 0.00023556
5650.0 0.00024093
5670.0 0.00023526
5690.0 0.00021838
5710.0 0.00020685
5730.0 0.00018773
5750.0 0.00013484
5770.0 0.00011708
5790.0 0.00013172
5810.0 0.00015923
5830.0 0.00018132
5850.0 0.00019895
5870.0 0.00020488
5890.0 0.00019798
5910.0 0.00018957
5930.0 0.00019012
5950.0 0.00019919
5970.0 0.00021233
5990.0 0.00020118
6010.0 0.00016928
6030.0 0.00014061
6050.0 0.00012202
6070.0 0.00012128
6090.0 0.00013671
6110.0 0.00015017
6130.0 0.00014474
6150.0 0.00013346
6170.0 0.00014511
6190.0 0.00017492
6210.0 0.00021339
6230.0 0.00024585
6250.0 0.00024649
6270.0 0.00022069
6290.0 0.00018278
6310.0 0.00014524
6330.0 0.00011547
6350.0 0.00010395
6370.0 0.00011247
6390.0 0.00013299
6410.0 0.0001536
6430.0 0.00017808
6450.0 0.00020725
6470.0 0.00025343
6490.0 0.00031203
6510.0 0.00034514
6530.0 0.00032097
6550.0 0.00029468
6570.0 0.00028619
6590.0 0.00027509
6610.0 0.00024563
6630.0 0.00022116
6650.0 0.00020352
6670.0 0.00021093
6690.0 0.0002083
6710.0 0.00018504
6730.0 0.00016815
6750.0 0.00015068
6770.0 0.00014628
6790.0 0.00016115
6810.0 0.00016584
6830.0 0.00017028
6850.0 0.00016677
6870.0 0.0001596
6890.0 0.00015579
6910.0 0.00014994
6930.0 0.00014084
6950.0 0.00014326
6970.0 0.00014538
6990.0 0.00016236
7010.0 0.00017301
7030.0 0.0001585
7050.0 0.00014864
7070.0 0.00014427
7090.0 0.00013207
7110.0 0.00012376
7130.0 0.00012644
7150.0 0.00013271
7170.0 0.0001408
7190.0 0.0001418
7210.0 0.00014068
7230.0 0.00014651
7250.0 0.00016791
7270.0 0.00019646
7290.0 0.00021302
7310.0 0.00020811
7330.0 0.0001852
7350.0 0.00016594
7370.0 0.00016003
7390.0 0.00016142
7410.0 0.00016869
7430.0 0.00018437
7450.0 0.00019964
7470.0 0.00021938
7490.0 0.00024299
7510.0 0.00023618
7530.0 0.00022358
7550.0 0.00018669
7570.0 0.00015269
7590.0 0.00012114
7610.0 0.00010992
7630.0 0.00011583
7650.0 0.00013256
7670.0 0.00014685
7690.0 0.00016623
7710.0 0.0001828
7730.0 0.00018974
7750.0 0.00019207
7770.0 0.00019104
7790.0 0.00018626
7810.0 0.00019131
7830.0 0.00018556
7850.0 0.0001657
7870.0 0.00014922
7890.0 0.00013743
7910.0 0.00012194
7930.0 0.0001046
7950.0 9.533e-05
7970.0 9.4382e-05
7990.0 9.8338e-05
8010.0 0.00010427
8030.0 0.00010533
8050.0 0.00010525
8070.0 0.00010255
8090.0 0.00010311
8110.0 9.7595e-05
8130.0 8.8886e-05
8150.0 8.3408e-05
8170.0 7.9702e-05
8190.0 8.0584e-05
8210.0 8.2573e-05
8230.0 8.7038e-05
8250.0 8.4659e-05
8270.0 7.5686e-05
8290.0 5.9386e-05
8310.0 4.0385e-05
8330.0 2.6435e-05
8350.0 1.894e-05
8370.0 2.1874e-05
8390.0 2.4548e-05
8410.0 3.1385e-05
8430.0 3.8142e-05
8450.0 4.1921e-05
8470.0 4.45e-05
8490.0 4.4908e-05
8510.0 4.627e-05
8530.0 5.0567e-05
8550.0 5.7325e-05
8570.0 6.846e-05
8590.0 8.2319e-05
8610.0 9.7464e-05
8630.0 0.00011367
8650.0 0.00012534
8670.0 0.00012465
8690.0 0.00011891
8710.0 0.00011198
8730.0 0.00010625
8750.0 0.00010038
8770.0 9.705e-05
8790.0 9.4883e-05
8810.0 8.9117e-05
8830.0 7.8341e-05
8850.0 6.678e-05
8870.0 5.6399e-05
8890.0 5.2177e-05
8910.0 5.3854e-05
8930.0 5.5067e-05
8950.0 6.0892e-05
8970.0 6.2211e-05
8990.0 6.3493e-05
9010.0 6.4203e-05
9030.0 6.4441e-05
9050.0 6.4844e-05
9070.0 6.5149e-05
9090.0 6.5374e-05
9110.0 6.5538e-05
9130.0 6.5714e-05
9150.0 6.5912e-05
9170.0 6.6119e-05
9190.0 6.6333e-05
9210.0 6.6589e-05
9230.0 6.6829e-05
9250.0 6.7093e-05
9270.0 6.7369e-05
9290.0 6.7658e-05
9310.0 6.7968e-05
9330.0 6.8293e-05
9350.0 6.8627e-05
9370.0 6.8979e-05
9390.0 6.9349e-05
9410.0 6.9729e-05
9430.0 7.0118e-05
9450.0 7.053e-05
9470.0 7.0955e-05
9490.0 7.1387e-05
9510.0 7.1835e-05
9530.0 7.2301e-05
9550.0 7.2771e-05
9570.0 7.3253e-05
9590.0 7.3753e-05
9610.0 7.4263e-05
9630.0 7.4779e-05
9650.0 7.5308e-05
9670.0 7.5855e-05
9690.0 7.6405e-05
9710.0 7.6963e-05
9730.0 7.7537e-05
9750.0 7.8119e-05
9770.0 7.8699e-05
9790.0 7.9296e-05
9810.0 7.9904e-05
9830.0 8.0513e-05
9850.0 8.1127e-05
9870.0 8.1757e-05
9890.0 8.2388e-05
9910.0 8.3019e-05
9930.0 8.366e-05
9950.0 8.4307e-05
9970.0 8.4952e-05
9990.0 8.5598e-05
10010.0 8.3386e-05
10030.0 8.4009e-05
10050.0 8.4627e-05
10070.0 8.524e-05
10090.0 8.5874e-05
10110.0 8.6497e-05
10130.0 8.712e-05
10150.0 8.7747e-05
10170.0 8.8368e-05
10190.0 8.8978e-05
10210.0 8.9594e-05
10230.0 9.0209e-05
10250.0 9.081e-05
10270.0 9.1408e-05
10290.0 9.2009e-05
10310.0 9.2596e-05
10330.0 9.3168e-05
10350.0 9.3745e-05
10370.0 9.4314e-05
10390.0 9.4865e-05
10410.0 9.5409e-05
10430.0 9.5954e-05
10450.0 9.648e-05
10470.0 9.699e-05
10490.0 9.7497e-05
10510.0 9.7994e-05
10530.0 9.8463e-05
10550.0 9.8926e-05
10570.0 9.9384e-05
10590.0 9.9821e-05
10610.0 0.00010024
10630.0 0.00010065
10650.0 0.00010105
10670.0 0.00010142
10690.0 0.00010177
10710.0 0.00010212
10730.0 0.00010244
10750.0 0.00010274
10770.0 0.00010303
10790.0 0.00010331
10810.0 0.00010355
10830.0 0.00010378
10850.0 0.00010399
10870.0 0.00010414
10890.0 0.00010424
10910.0 0.00010426
10930.0 0.00010414
10950.0 0.00010379
10970.0 0.00010319
10990.0 0.00010231
11010.0 9.8718e-05
11030.0 9.7062e-05
11050.0 9.5119e-05
11070.0 9.2834e-05
11090.0 9.0105e-05
11110.0 8.7303e-05
11130.0 8.4392e-05
11150.0 8.1273e-05
11170.0 7.809e-05
11190.0 7.5051e-05
11210.0 7.1969e-05
11230.0 6.8881e-05
11250.0 6.6014e-05
11270.0 6.3341e-05
11290.0 6.0745e-05
11310.0 5.8366e-05
11330.0 5.6337e-05
11350.0 5.4468e-05
11370.0 5.2777e-05
11390.0 5.133e-05
11410.0 5.006e-05
11430.0 4.8852e-05
11450.0 4.7763e-05
11470.0 4.6757e-05
11490.0 4.5743e-05
11510.0 4.4679e-05
11530.0 4.3614e-05
11550.0 4.2497e-05
11570.0 4.1263e-05
11590.0 3.9966e-05
11610.0 3.8646e-05
11630.0 3.7226e-05
11650.0 3.5736e-05
11670.0 3.4302e-05
11690.0 3.2885e-05
11710.0 3.1461e-05
11730.0 3.0119e-05
11750.0 2.8906e-05
11770.0 2.7743e-05
11790.0 2.6675e-05
11810.0 2.5748e-05
11830.0 2.4925e-05
11850.0 2.4167e-05
11870.0 2.3522e-05
11890.0 2.2967e-05
11910.0 2.2454e-05
11930.0 2.1977e-05
11950.0 2.1539e-05
11970.0 2.1107e-05
11990.0 2.0656e-05
12010.0 2.0201e-05
12030.0 1.9737e-05
12050.0 1.9241e-05
12070.0 1.8717e-05
12090.0 1.821e-05
12110.0 1.7697e-05
12130.0 1.7182e-05
12150.0 1.6703e-05
12170.0 1.6275e-05
12190.0 1.5879e-05
12210.0 1.5559e-05
12230.0 1.5327e-05
12250.0 1.5178e-05
12270.0 1.5127e-05
12290.0 1.5174e-05
12310.0 1.5309e-05
12330.0 1.5545e-05
12350.0 1.587e-05
12370.0 1.6254e-05
12390.0 1.6706e-05
12410.0 1.724e-05
12430.0 1.7774e-05
12450.0 1.8318e-05
12470.0 1.8883e-05
12490.0 1.9433e-05
12510.0 1.9925e-05
12530.0 2.0394e-05
12550.0 2.0821e-05
12570.0 2.1166e-05
12590.0 2.1438e-05
12610.0 2.1648e-05
12630.0 2.1775e-05
12650.0 2.1813e-05
12670.0 2.1782e-05
12690.0 2.1678e-05
12710.0 2.1508e-05
12730.0 2.1281e-05
12750.0 2.0991e-05
12770.0 2.0657e-05
12790.0 2.0292e-05
12810.0 1.9888e-05
12830.0 1.9447e-05
12850.0 1.8999e-05
12870.0 1.8536e-05
12890.0 1.8043e-05
12910.0 1.7542e-05
12930.0 1.7044e-05
12950.0 1.652e-05
12970.0 1.5978e-05
12990.0 1.5452e-05
13010.0 1.4921e-05
13030.0 1.4373e-05
13050.0 1.3833e-05
13070.0 1.3318e-05
13090.0 1.2793e-05
13110.0 1.2281e-05
13130.0 1.1804e-05
13150.0 1.1351e-05
13170.0 1.0913e-05
13190.0 1.0526e-05
13210.0 1.0191e-05
13230.0 9.8939e-06
13250.0 9.648e-06
13270.0 9.4631e-06
13290.0 9.3303e-06
13310.0 9.253e-06
13330.0 9.2343e-06
13350.0 9.2669e-06
13370.0 9.3523e-06
13390.0 9.4886e-06
13410.0 9.6529e-06
13430.0 9.852e-06
13450.0 1.0084e-05
13470.0 1.0326e-05
13490.0 1.057e-05
13510.0 1.0834e-05
13530.0 1.1089e-05
13550.0 1.1321e-05
13570.0 1.1541e-05
13590.0 1.1746e-05
13610.0 1.1918e-05
13630.0 1.2059e-05
13650.0 1.218e-05
13670.0 1.227e-05
13690.0 1.2327e-05
13710.0 1.2359e-05
13730.0 1.2366e-05
13750.0 1.2345e-05
13770.0 1.2302e-05
13790.0 1.2238e-05
13810.0 1.2155e-05
13830.0 1.2057e-05
13850.0 1.1942e-05
13870.0 1.181e-05
13890.0 1.167e-05
13910.0 1.1519e-05
13930.0 1.1353e-05
13950.0 1.118e-05
13970.0 1.1007e-05
13990.0 1.0825e-05
14010.0 1.0638e-05
14030.0 1.0456e-05
14050.0 1.0277e-05
14070.0 1.0093e-05
14090.0 9.9224e-06
14110.0 9.7658e-06
14130.0 9.6188e-06
14150.0 9.4855e-06
14170.0 9.3758e-06
14190.0 9.2855e-06
14210.0 9.2146e-06
14230.0 9.1682e-06
14250.0 9.1455e-06
14270.0 9.1463e-06
14290.0 9.1726e-06
14310.0 9.2194e-06
14330.0 9.2867e-06
14350.0 9.3761e-06
14370.0 9.4806e-06
14390.0 9.5946e-06
14410.0 9.7256e-06
14430.0 9.8668e-06
14450.0 1.001e-05
14470.0 1.0159e-05
14490.0 1.032e-05
14510.0 1.0479e-05
14530.0 1.0637e-05
14550.0 1.0807e-05
14570.0 1.0985e-05
14590.0 1.1165e-05
14610.0 1.136e-05
14630.0 1.158e-05
14650.0 1.1811e-05
14670.0 1.2058e-05
14690.0 1.2338e-05
14710.0 1.2647e-05
14730.0 1.2962e-05
14750.0 1.3306e-05
14770.0 1.3681e-05
14790.0 1.4065e-05
14810.0 1.4452e-05
14830.0 1.4872e-05
14850.0 1.5288e-05
14870.0 1.5683e-05
14890.0 1.6071e-05
14910.0 1.6447e-05
14930.0 1.6779e-05
14950.0 1.7066e-05
14970.0 1.7317e-05
14990.0 1.7513e-05
15010.0 1.7651e-05
15030.0 1.7744e-05
15050.0 1.7796e-05
15070.0 1.7812e-05
15090.0 1.7806e-05
15110.0 1.7784e-05
15130.0 1.7753e-05
15150.0 1.7719e-05
15170.0 1.7681e-05
15190.0 1.7642e-05
15210.0 1.7604e-05
15230.0 1.7567e-05
15250.0 1.7528e-05
15270.0 1.7489e-05
15290.0 1.7453e-05
15310.0 1.7416e-05
15330.0 1.7378e-05
15350.0 1.7341e-05
15370.0 1.7306e-05
15390.0 1.7267e-05
15410.0 1.7231e-05
15430.0 1.7195e-05
15450.0 1.7159e-05
15470.0 1.7121e-05
15490.0 1.7086e-05
15510.0 1.7051e-05
15530.0 1.7014e-05
15550.0 1.6978e-05
15570.0 1.6944e-05
15590.0 1.6907e-05
15610.0 1.6869e-05
15630.0 1.6835e-05
15650.0 1.6799e-05
15670.0 1.6762e-05
15690.0 1.6726e-05
15710.0 1.6692e-05
15730.0 1.6655e-05
15750.0 1.6618e-05
15770.0 1.6582e-05
15790.0 1.6546e-05
15810.0 1.6508e-05
15830.0 1.6471e-05
15850.0 1.6436e-05
15870.0 1.6398e-05
15890.0 1.636e-05
15910.0 1.6324e-05
15930.0 1.6287e-05
15950.0 1.6248e-05
15970.0 1.621e-05
15990.0 1.6173e-05
16010.0 1.6134e-05
16030.0 1.6094e-05
16050.0 1.6057e-05
16070.0 1.6019e-05
16090.0 1.5978e-05
16110.0 1.5939e-05
16130.0 1.5901e-05
16150.0 1.586e-05
16170.0 1.5819e-05
16190.0 1.5779e-05
16210.0 1.5739e-05
16230.0 1.5696e-05
16250.0 1.5655e-05
16270.0 1.5615e-05
16290.0 1.5572e-05
16310.0 1.553e-05
16330.0 1.5488e-05
16350.0 1.5445e-05
16370.0 1.54e-05
16390.0 1.5358e-05
16410.0 1.5315e-05
16430.0 1.527e-05
16450.0 1.5225e-05
16470.0 1.5182e-05
16490.0 1.5136e-05
16510.0 1.509e-05
16530.0 1.5045e-05
16550.0 1.4999e-05
16570.0 1.4952e-05
16590.0 1.4904e-05
16610.0 1.4859e-05
16630.0 1.4811e-05
16650.0 1.4763e-05
16670.0 1.4716e-05
16690.0 1.4668e-05
16710.0 1.4617e-05
16730.0 1.4568e-05
16750.0 1.452e-05
16770.0 1.447e-05
16790.0 1.4418e-05
16810.0 1.4369e-05
16830.0 1.4319e-05
16850.0 1.4267e-05
16870.0 1.4216e-05
16890.0 1.4165e-05
16910.0 1.4113e-05
16930.0 1.4059e-05
16950.0 1.4007e-05
16970.0 1.3955e-05
16990.0 1.39e-05
17010.0 1.3847e-05
17030.0 1.3794e-05
17050.0 1.3739e-05
17070.0 1.3684e-05
17090.0 1.363e-05
17110.0 1.3576e-05
17130.0 1.3518e-05
17150.0 1.3463e-05
17170.0 1.3408e-05
17190.0 1.3352e-05
17210.0 1.3295e-05
17230.0 1.3239e-05
17250.0 1.3182e-05
17270.0 1.3124e-05
17290.0 1.3066e-05
17310.0 1.301e-05
17330.0 1.2951e-05
17350.0 1.2891e-05
17370.0 1.2835e-05
17390.0 1.2776e-05
17410.0 1.2716e-05
17430.0 1.2658e-05
17450.0 1.26e-05
17470.0 1.2538e-05
17490.0 1.2478e-05
17510.0 1.2419e-05
17530.0 1.2359e-05
17550.0 1.2298e-05
17570.0 1.2238e-05
17590.0 1.2179e-05
17610.0 1.2117e-05
17630.0 1.2055e-05
17650.0 1.1996e-05
17670.0 1.1934e-05
17690.0 1.1871e-05
17710.0 1.181e-05
17730.0 1.1749e-05
17750.0 1.1687e-05
17770.0 1.1625e-05
17790.0 1.1564e-05
17810.0 1.1501e-05
17830.0 1.1438e-05
17850.0 1.1377e-05
17870.0 1.1315e-05
17890.0 1.1251e-05
17910.0 1.1188e-05
17930.0 1.1127e-05
17950.0 1.1064e-05
17970.0 1.1e-05
17990.0 1.0938e-05
18010.0 1.0876e-05
18030.0 1.0812e-05
18050.0 1.0749e-05
18070.0 1.0687e-05
18090.0 1.0623e-05
18110.0 1.0559e-05
18130.0 1.0497e-05
18150.0 1.0435e-05
18170.0 1.0371e-05
18190.0 1.0308e-05
18210.0 1.0246e-05
18230.0 1.0182e-05
18250.0 1.0118e-05
18270.0 1.0056e-05
18290.0 9.9935e-06
18310.0 9.9296e-06
18330.0 9.867e-06
18350.0 9.8055e-06
18370.0 9.7418e-06
18390.0 9.6785e-06
18410.0 9.6167e-06
18430.0 9.5543e-06
18450.0 9.4901e-06
18470.0 9.4279e-06
18490.0 9.3667e-06
18510.0 9.3038e-06
18530.0 9.2411e-06
18550.0 9.1803e-06
18570.0 9.1182e-06
18590.0 9.0548e-06
18610.0 8.9933e-06
18630.0 8.9324e-06
18650.0 8.8699e-06
18670.0 8.8075e-06
18690.0 8.7476e-06
18710.0 8.6863e-06
18730.0 8.6243e-06
18750.0 8.5638e-06
18770.0 8.504e-06
18790.0 8.4415e-06
18810.0 8.3804e-06
18830.0 8.321e-06
18850.0 8.2605e-06
18870.0 8.1993e-06
18890.0 8.14e-06
18910.0 8.081e-06
18930.0 8.0203e-06
18950.0 7.9605e-06
18970.0 7.902e-06
18990.0 7.8426e-06
19010.0 7.7815e-06
19030.0 7.7236e-06
19050.0 7.6655e-06
19070.0 7.6061e-06
19090.0 7.5476e-06
19110.0 7.4908e-06
19130.0 7.432e-06
19150.0 7.3732e-06
19170.0 7.3161e-06
19190.0 7.259e-06
19210.0 7.2005e-06
19230.0 7.143e-06
19250.0 7.0874e-06
19270.0 7.0303e-06
19290.0 6.973e-06
19310.0 6.9175e-06
19330.0 6.8619e-06
19350.0 6.8042e-06
19370.0 6.7484e-06
19390.0 6.6937e-06
19410.0 6.6378e-06
19430.0 6.5817e-06
19450.0 6.5278e-06
19470.0 6.4734e-06
19490.0 6.4178e-06
19510.0 6.3636e-06
19530.0 6.3104e-06
19550.0 6.2554e-06
19570.0 6.2005e-06
19590.0 6.1479e-06
19610.0 6.0948e-06
19630.0 6.0407e-06
19650.0 5.9881e-06
19670.0 5.9364e-06
19690.0 5.8829e-06
19710.0 5.83e-06
19730.0 5.7786e-06
19750.0 5.7268e-06
19770.0 5.6735e-06
19790.0 5.6224e-06
19810.0 5.5719e-06
19830.0 5.5201e-06
19850.0 5.4684e-06
19870.0 5.418e-06
19890.0 5.3655e-06
19910.0 5.3101e-06
19930.0 5.2536e-06
19950.0 5.1932e-06
19970.0 5.1247e-06
19990.0 5.0482e-06
20010.0 5.065e-06
20030.0 4.9705e-06
20050.0 4.8658e-06
20070.0 4.7574e-06
20090.0 4.6453e-06
20110.0 4.5239e-06
20130.0 4.4053e-06
20150.0 4.2913e-06
20170.0 4.1768e-06
20190.0 4.0641e-06
20210.0 3.9601e-06
20230.0 3.8608e-06
20250.0 3.7636e-06
20270.0 3.6749e-06
20290.0 3.5951e-06
20310.0 3.5206e-06
20330.0 3.4524e-06
20350.0 3.3964e-06
20370.0 3.3479e-06
20390.0 3.3067e-06
20410.0 3.2749e-06
20430.0 3.2518e-06
20450.0 3.2361e-06
20470.0 3.2287e-06
20490.0 3.2287e-06
20510.0 3.2354e-06
20530.0 3.2493e-06
20550.0 3.2685e-06
20570.0 3.2918e-06
20590.0 3.3205e-06
20610.0 3.3532e-06
20630.0 3.3876e-06
20650.0 3.4249e-06
20670.0 3.4664e-06
20690.0 3.5074e-06
20710.0 3.5486e-06
20730.0 3.5921e-06
20750.0 3.6362e-06
20770.0 3.6784e-06
20790.0 3.7217e-06
20810.0 3.7667e-06
20830.0 3.8106e-06
20850.0 3.8539e-06
20870.0 3.9e-06
20890.0 3.9467e-06
20910.0 3.9915e-06
20930.0 4.0382e-06
20950.0 4.0868e-06
20970.0 4.1344e-06
20990.0 4.1817e-06
21010.0 4.232e-06
21030.0 4.2816e-06
21050.0 4.329e-06
21070.0 4.3768e-06
21090.0 4.4251e-06
21110.0 4.4693e-06
21130.0 4.5109e-06
21150.0 4.5518e-06
21170.0 4.5892e-06
21190.0 4.6219e-06
21210.0 4.6524e-06
21230.0 4.6793e-06
21250.0 4.7005e-06
21270.0 4.717e-06
21290.0 4.7291e-06
21310.0 4.7354e-06
21330.0 4.7357e-06
21350.0 4.7303e-06
21370.0 4.7183e-06
21390.0 4.7e-06
21410.0 4.6754e-06
21430.0 4.6421e-06
21450.0 4.6026e-06
21470.0 4.5575e-06
21490.0 4.5047e-06
21510.0 4.4447e-06
21530.0 4.3816e-06
21550.0 4.3133e-06
21570.0 4.2382e-06
21590.0 4.1617e-06
21610.0 4.0851e-06
21630.0 4.0057e-06
21650.0 3.9246e-06
21670.0 3.8508e-06
21690.0 3.7791e-06
21710.0 3.71e-06
21730.0 3.6481e-06
21750.0 3.5945e-06
21770.0 3.5456e-06
21790.0 3.5059e-06
21810.0 3.4763e-06
21830.0 3.4555e-06
21850.0 3.444e-06
21870.0 3.4425e-06
21890.0 3.4498e-06
21910.0 3.4665e-06
21930.0 3.4922e-06
21950.0 3.5248e-06
21970.0 3.5653e-06
21990.0 3.6154e-06
22010.0 3.6695e-06
22030.0 3.728e-06
22050.0 3.7934e-06
22070.0 3.8629e-06
22090.0 3.932e-06
22110.0 4.0051e-06
22130.0 4.0814e-06
22150.0 4.1558e-06
22170.0 4.2285e-06
22190.0 4.3032e-06
22210.0 4.375e-06
22230.0 4.4398e-06
22250.0 4.5021e-06
22270.0 4.5604e-06
22290.0 4.6109e-06
22310.0 4.6544e-06
22330.0 4.6926e-06
22350.0 4.7218e-06
22370.0 4.7418e-06
22390.0 4.7534e-06
22410.0 4.7556e-06
22430.0 4.7481e-06
22450.0 4.7315e-06
22470.0 4.7047e-06
22490.0 4.6684e-06
22510.0 4.6245e-06
22530.0 4.5696e-06
22550.0 4.5043e-06
22570.0 4.4333e-06
22590.0 4.3546e-06
22610.0 4.2654e-06
22630.0 4.1702e-06
