#lamb flux
1010.0 6.0054e-05
1030.0 7.9446e-05
1050.0 0.00010277
1070.0 0.00013003
1090.0 0.00016179
1110.0 0.00019526
1130.0 0.00022928
1150.0 0.00026438
1170.0 0.00029933
1190.0 0.0003305
1210.0 0.00035913
1230.0 0.00038501
1250.0 0.00040572
1270.0 0.00042057
1290.0 0.00043172
1310.0 0.00043731
1330.0 0.00043649
1350.0 0.00043102
1370.0 0.00042165
1390.0 0.00040799
1410.0 0.00039089
1430.0 0.00037247
1450.0 0.00035254
1470.0 0.00033134
1490.0 0.00031018
1510.0 0.00029025
1530.0 0.00027067
1550.0 0.00025192
1570.0 0.00023459
1590.0 0.00021842
1610.0 0.00020309
1630.0 0.00018927
1650.0 0.00017682
1670.0 0.00016536
1690.0 0.00015495
1710.0 0.00014572
1730.0 0.00013748
1750.0 0.00013064
1770.0 0.00012481
1790.0 0.00011984
1810.0 0.00011551
1830.0 0.00011184
1850.0 0.00010918
1870.0 0.000107
1890.0 0.00010533
1910.0 0.00010427
1930.0 0.00010382
1950.0 0.00010385
1970.0 0.00010446
1990.0 0.00010579
2010.0 0.00010779
2030.0 0.00011049
2050.0 0.00011411
2070.0 0.00011875
2090.0 0.00012435
2110.0 0.00013114
2130.0 0.00013934
2150.0 0.00014899
2170.0 0.00016016
2190.0 0.0001732
2210.0 0.0001882
2230.0 0.00020514
2250.0 0.00022424
2270.0 0.00024578
2290.0 0.00026957
2310.0 0.0002956
2330.0 0.00032414
2350.0 0.00035509
2370.0 0.00038807
2390.0 0.00042313
2410.0 0.00046017
2430.0 0.00049831
2450.0 0.00053699
2470.0 0.00057572
2490.0 0.00061358
2510.0 0.00064993
2530.0 0.00068508
2550.0 0.00072019
2570.0 0.00075795
2590.0 0.00080218
2610.0 0.00086092
2630.0 0.00094206
2650.0 0.0010497
2670.0 0.0011929
2690.0 0.0013801
2710.0 0.0016022
2730.0 0.0018519
2750.0 0.0021367
2770.0 0.0024338
2790.0 0.0027204
2810.0 0.0029956
2830.0 0.0032557
2850.0 0.0034717
2870.0 0.0036562
2890.0 0.0038197
2910.0 0.0039615
2930.0 0.0040836
2950.0 0.0041997
2970.0 0.0043111
2990.0 0.0044142
3010.0 0.0045127
3030.0 0.0046118
3050.0 0.0047076
3070.0 0.0047936
3090.0 0.0048776
3110.0 0.004956
3130.0 0.0050223
3150.0 0.0050769
3170.0 0.0051239
3190.0 0.0051588
3210.0 0.0051861
3230.0 0.0052131
3250.0 0.0052449
3270.0 0.0052813
3290.0 0.005322
3310.0 0.0053658
3330.0 0.0054081
3350.0 0.005446
3370.0 0.0054807
3390.0 0.0055107
3410.0 0.0055333
3430.0 0.0055513
3450.0 0.0055669
3470.0 0.0056965
3490.0 0.0056066
3510.0 0.005194
3530.0 0.0058106
3550.0 0.0066637
3570.0 0.0074788
3590.0 0.0084189
3610.0 0.0091423
3630.0 0.0095102
3650.0 0.0085689
3670.0 0.0075319
3690.0 0.0071751
3710.0 0.0077156
3730.0 0.008864
3750.0 0.0092126
3770.0 0.009273
3790.0 0.0093873
3810.0 0.0088334
3830.0 0.007962
3850.0 0.0072191
3870.0 0.0067814
3890.0 0.007512
3910.0 0.0080532
3930.0 0.0081498
3950.0 0.0081541
3970.0 0.0085457
3990.0 0.0091143
4010.0 0.0091966
4030.0 0.0087247
4050.0 0.0080153
4070.0 0.0079283
4090.0 0.0082955
4110.0 0.0086438
4130.0 0.0084052
4150.0 0.0081738
4170.0 0.008119
4190.0 0.0084563
4210.0 0.008317
4230.0 0.0077254
4250.0 0.0069375
4270.0 0.0061983
4290.0 0.0056493
4310.0 0.0052604
4330.0 0.005204
4350.0 0.0057123
4370.0 0.0058704
4390.0 0.0060874
4410.0 0.0064762
4430.0 0.0066715
4450.0 0.0064761
4470.0 0.0063293
4490.0 0.0064641
4510.0 0.0065782
4530.0 0.0066879
4550.0 0.0067878
4570.0 0.0068151
4590.0 0.0070616
4610.0 0.0072419
4630.0 0.0074941
4650.0 0.0076109
4670.0 0.0075154
4690.0 0.0070366
4710.0 0.0064372
4730.0 0.0062068
4750.0 0.006149
4770.0 0.0058929
4790.0 0.0056001
4810.0 0.0054762
4830.0 0.0055574
4850.0 0.0053524
4870.0 0.0052128
4890.0 0.0050902
4910.0 0.0048112
4930.0 0.0049035
4950.0 0.0045549
4970.0 0.0041236
4990.0 0.0040415
5010.0 0.0037491
5030.0 0.0035603
5050.0 0.0035677
5070.0 0.0038727
5090.0 0.0040278
5110.0 0.0044531
5130.0 0.0045699
5150.0 0.0047345
5170.0 0.0048508
5190.0 0.0047809
5210.0 0.0047976
5230.0 0.0048697
5250.0 0.0048807
5270.0 0.0049763
5290.0 0.0049562
5310.0 0.0048444
5330.0 0.0046037
5350.0 0.0043464
5370.0 0.0040923
5390.0 0.0041649
5410.0 0.0042201
5430.0 0.0042286
5450.0 0.0042544
5470.0 0.0042246
5490.0 0.0041772
5510.0 0.0041191
5530.0 0.0040522
5550.0 0.0040606
5570.0 0.0040967
5590.0 0.0041482
5610.0 0.0041074
5630.0 0.0040187
5650.0 0.0039875
5670.0 0.0038906
5690.0 0.0037946
5710.0 0.0036605
5730.0 0.0036233
5750.0 0.0036064
5770.0 0.0035273
5790.0 0.0034592
5810.0 0.0034353
5830.0 0.0034944
5850.0 0.0035566
5870.0 0.0035415
5890.0 0.0034957
5910.0 0.0034951
5930.0 0.0035185
5950.0 0.0035057
5970.0 0.0034588
5990.0 0.0034267
6010.0 0.0034851
6030.0 0.0034796
6050.0 0.0034106
6070.0 0.0034032
6090.0 0.0033946
6110.0 0.0034014
6130.0 0.0033877
6150.0 0.0032901
6170.0 0.003063
6190.0 0.002834
6210.0 0.0027357
6230.0 0.0026943
6250.0 0.0027075
6270.0 0.0027956
6290.0 0.0028771
6310.0 0.0029702
6330.0 0.0030534
6350.0 0.0030813
6370.0 0.0030896
6390.0 0.0030139
6410.0 0.002954
6430.0 0.0028599
6450.0 0.0027973
6470.0 0.0027605
6490.0 0.0027558
6510.0 0.0027502
6530.0 0.0027354
6550.0 0.0026838
6570.0 0.0026434
6590.0 0.0026194
6610.0 0.0025613
6630.0 0.0025262
6650.0 0.0024748
6670.0 0.0024006
6690.0 0.0023343
6710.0 0.0022843
6730.0 0.0022564
6750.0 0.0022177
6770.0 0.0021932
6790.0 0.0021916
6810.0 0.0021591
6830.0 0.0021367
6850.0 0.0021031
6870.0 0.0020533
6890.0 0.0020492
6910.0 0.0020254
6930.0 0.0019915
6950.0 0.0019856
6970.0 0.0019652
6990.0 0.0019603
7010.0 0.0019371
7030.0 0.0019175
7050.0 0.0019015
7070.0 0.0018658
7090.0 0.0018083
7110.0 0.001766
7130.0 0.0017754
7150.0 0.0017898
7170.0 0.0017994
7190.0 0.0018273
7210.0 0.0018508
7230.0 0.001875
7250.0 0.0018957
7270.0 0.0018622
7290.0 0.0018484
7310.0 0.0018085
7330.0 0.0017472
7350.0 0.0017191
7370.0 0.0016867
7390.0 0.0016728
7410.0 0.0016737
7430.0 0.0016599
7450.0 0.0016365
7470.0 0.0016082
7490.0 0.0015633
7510.0 0.0014685
7530.0 0.0015152
7550.0 0.0015209
7570.0 0.0014901
7590.0 0.0013848
7610.0 0.0014085
7630.0 0.0014009
7650.0 0.0014118
7670.0 0.0014156
7690.0 0.0014352
7710.0 0.0014195
7730.0 0.0014727
7750.0 0.0015076
7770.0 0.0015739
7790.0 0.0016329
7810.0 0.0016766
7830.0 0.001734
7850.0 0.0017377
7870.0 0.0017619
7890.0 0.0017441
7910.0 0.0016933
7930.0 0.0016646
7950.0 0.0016443
7970.0 0.0016305
7990.0 0.0016303
8010.0 0.0014855
8030.0 0.0014763
8050.0 0.0014463
8070.0 0.0014323
8090.0 0.0013854
8110.0 0.0013958
8130.0 0.0014186
8150.0 0.0014468
8170.0 0.0014347
8190.0 0.0014607
8210.0 0.0014419
8230.0 0.0013729
8250.0 0.0013535
8270.0 0.0013296
8290.0 0.0013061
8310.0 0.001253
8330.0 0.001266
8350.0 0.0012627
8370.0 0.0012664
8390.0 0.0012874
8410.0 0.0012772
8430.0 0.00129
8450.0 0.0013031
8470.0 0.0013162
8490.0 0.0013332
8510.0 0.0013072
8530.0 0.0012586
8550.0 0.0012681
8570.0 0.0012672
8590.0 0.0012273
8610.0 0.0012528
8630.0 0.0012346
8650.0 0.0012113
8670.0 0.0012029
8690.0 0.0011994
8710.0 0.0011484
8730.0 0.0011673
8750.0 0.0011286
8770.0 0.0011251
8790.0 0.0010927
8810.0 0.0010782
8830.0 0.0010806
8850.0 0.0010373
8870.0 0.00098621
8890.0 0.00097326
8910.0 0.00091933
8930.0 0.0008499
8950.0 0.0008494
8970.0 0.00081801
8990.0 0.00081127
9010.0 0.00080268
9030.0 0.00079692
9050.0 0.0007913
9070.0 0.00078564
9090.0 0.00077994
9110.0 0.00077415
9130.0 0.00076837
9150.0 0.00076266
9170.0 0.0007569
9190.0 0.00075113
9210.0 0.00074533
9230.0 0.00073952
9250.0 0.0007337
9270.0 0.00072788
9290.0 0.00072205
9310.0 0.00071623
9330.0 0.00071043
9350.0 0.00070463
9370.0 0.00069883
9390.0 0.00069306
9410.0 0.00068729
9430.0 0.00068153
9450.0 0.0006758
9470.0 0.00067054
9490.0 0.00066506
9510.0 0.00065914
9530.0 0.00065332
9550.0 0.00064761
9570.0 0.00064198
9590.0 0.00063638
9610.0 0.00063085
9630.0 0.00062538
9650.0 0.00061994
9670.0 0.00061452
9690.0 0.00060916
9710.0 0.00060385
9730.0 0.00059855
9750.0 0.00059331
9770.0 0.00058814
9790.0 0.00058299
9810.0 0.00057787
9830.0 0.00057275
9850.0 0.00056699
9870.0 0.00056182
9890.0 0.00055734
9910.0 0.00055279
9930.0 0.00054723
9950.0 0.00054247
9970.0 0.00053819
9990.0 0.00053377
10010.0 0.00052937
10030.0 0.00052492
10050.0 0.00052047
10070.0 0.00051609
10090.0 0.00051178
10110.0 0.00050741
10130.0 0.00050309
10150.0 0.00049891
10170.0 0.00049477
10190.0 0.0004906
10210.0 0.00048658
10230.0 0.00048263
10250.0 0.00047865
10270.0 0.00047475
10290.0 0.00047097
10310.0 0.00046718
10330.0 0.00046338
10350.0 0.00045973
10370.0 0.00045614
10390.0 0.00045253
10410.0 0.00044893
10430.0 0.00044546
10450.0 0.0004421
10470.0 0.00043873
10490.0 0.00043546
10510.0 0.00043225
10530.0 0.00042897
10550.0 0.00042579
10570.0 0.00042273
10590.0 0.00041966
10610.0 0.0004166
10630.0 0.00041368
10650.0 0.00041078
10670.0 0.00040785
10690.0 0.00040502
10710.0 0.00040227
10730.0 0.00039951
10750.0 0.00039674
10770.0 0.00039413
10790.0 0.00039154
10810.0 0.00038893
10830.0 0.00038641
10850.0 0.00038398
10870.0 0.00038149
10890.0 0.00037906
10910.0 0.00037676
10930.0 0.0003745
10950.0 0.00037226
10970.0 0.00037015
10990.0 0.00036818
11010.0 0.00039091
11030.0 0.00038941
11050.0 0.00038797
11070.0 0.00038649
11090.0 0.00038484
11110.0 0.00038317
11130.0 0.00038143
11150.0 0.00037951
11170.0 0.00037749
11190.0 0.00037549
11210.0 0.00037338
11230.0 0.00037116
11250.0 0.00036902
11270.0 0.00036694
11290.0 0.0003648
11310.0 0.00036273
11330.0 0.00036087
11350.0 0.00035906
11370.0 0.0003573
11390.0 0.0003557
11410.0 0.00035422
11430.0 0.00035271
11450.0 0.00035129
11470.0 0.00034995
11490.0 0.00034859
11510.0 0.00034714
11530.0 0.00034574
11550.0 0.0003443
11570.0 0.00034273
11590.0 0.00034111
11610.0 0.0003395
11630.0 0.00033775
11650.0 0.0003359
11670.0 0.00033412
11690.0 0.00033232
11710.0 0.00033044
11730.0 0.00032859
11750.0 0.00032686
11770.0 0.00032507
11790.0 0.00032327
11810.0 0.00032159
11830.0 0.00031995
11850.0 0.00031823
11870.0 0.00031663
11890.0 0.00031516
11910.0 0.00031368
11930.0 0.00031226
11950.0 0.00031102
11970.0 0.00030986
11990.0 0.00030877
12010.0 0.00030787
12030.0 0.00030717
12050.0 0.00030662
12070.0 0.00030623
12090.0 0.00030611
12110.0 0.00030616
12130.0 0.00030638
12150.0 0.00030679
12170.0 0.00030737
12190.0 0.00030807
12210.0 0.0003089
12230.0 0.00030981
12250.0 0.00031079
12270.0 0.0003118
12290.0 0.00031282
12310.0 0.0003138
12330.0 0.00031477
12350.0 0.00031566
12370.0 0.00031648
12390.0 0.00031719
12410.0 0.00031779
12430.0 0.00031824
12450.0 0.00031856
12470.0 0.00031869
12490.0 0.00031862
12510.0 0.00031839
12530.0 0.00031793
12550.0 0.00031721
12570.0 0.0003163
12590.0 0.00031518
12610.0 0.00031376
12630.0 0.00031211
12650.0 0.00031037
12670.0 0.00030839
12690.0 0.00030618
12710.0 0.00030391
12730.0 0.00030156
12750.0 0.00029894
12770.0 0.00029632
12790.0 0.00029374
12810.0 0.00029108
12830.0 0.00028834
12850.0 0.00028578
12870.0 0.00028329
12890.0 0.00028076
12910.0 0.00027837
12930.0 0.00027616
12950.0 0.00027397
12970.0 0.00027186
12990.0 0.00026998
13010.0 0.0002682
13030.0 0.00026647
13050.0 0.00026488
13070.0 0.00026344
13090.0 0.00026201
13110.0 0.00026063
13130.0 0.00025937
13150.0 0.00025815
13170.0 0.00025692
13190.0 0.00025576
13210.0 0.00025467
13230.0 0.00025357
13250.0 0.00025248
13270.0 0.00025145
13290.0 0.0002504
13310.0 0.00024931
13330.0 0.00024823
13350.0 0.00024714
13370.0 0.00024597
13390.0 0.00024474
13410.0 0.00024351
13430.0 0.00024219
13450.0 0.00024077
13470.0 0.0002393
13490.0 0.00023781
13510.0 0.00023614
13530.0 0.00023443
13550.0 0.00023272
13570.0 0.00023092
13590.0 0.00022902
13610.0 0.00022713
13630.0 0.00022525
13650.0 0.00022325
13670.0 0.00022122
13690.0 0.00021922
13710.0 0.00021717
13730.0 0.000215
13750.0 0.00021292
13770.0 0.00021083
13790.0 0.00020867
13810.0 0.00020651
13830.0 0.00020442
13850.0 0.00020228
13870.0 0.00020011
13890.0 0.00019802
13910.0 0.00019596
13930.0 0.00019386
13950.0 0.00019181
13970.0 0.00018988
13990.0 0.00018793
14010.0 0.000186
14030.0 0.00018416
14050.0 0.00018236
14070.0 0.00018052
14090.0 0.00017875
14110.0 0.00017704
14130.0 0.00017532
14150.0 0.00017359
14170.0 0.00017194
14190.0 0.0001703
14210.0 0.00016863
14230.0 0.000167
14250.0 0.00016542
14270.0 0.00016381
14290.0 0.00016221
14310.0 0.00016069
14330.0 0.00015921
14350.0 0.00015773
14370.0 0.00015631
14390.0 0.00015497
14410.0 0.00015364
14430.0 0.00015235
14450.0 0.00015114
14470.0 0.00014996
14490.0 0.00014878
14510.0 0.00014766
14530.0 0.00014659
14550.0 0.00014551
14570.0 0.00014445
14590.0 0.00014342
14610.0 0.00014239
14630.0 0.00014134
14650.0 0.00014031
14670.0 0.0001393
14690.0 0.00013827
14710.0 0.00013724
14730.0 0.00013626
14750.0 0.00013527
14770.0 0.00013427
14790.0 0.00013329
14810.0 0.00013234
14830.0 0.00013136
14850.0 0.0001304
14870.0 0.00012947
14890.0 0.00012854
14910.0 0.00012761
14930.0 0.00012671
14950.0 0.00012584
14970.0 0.00012497
14990.0 0.00012415
15010.0 0.00012338
15030.0 0.00012264
15050.0 0.00012191
15070.0 0.00012124
15090.0 0.00012059
15110.0 0.00011995
15130.0 0.00011932
15150.0 0.00011871
15170.0 0.0001181
15190.0 0.00011749
15210.0 0.00011689
15230.0 0.00011629
15250.0 0.00011569
15270.0 0.00011509
15290.0 0.00011451
15310.0 0.00011393
15330.0 0.00011334
15350.0 0.00011277
15370.0 0.00011221
15390.0 0.00011163
15410.0 0.00011106
15430.0 0.00011051
15450.0 0.00010995
15470.0 0.00010939
15490.0 0.00010885
15510.0 0.00010831
15530.0 0.00010777
15550.0 0.00010723
15570.0 0.00010671
15590.0 0.00010618
15610.0 0.00010565
15630.0 0.00010514
15650.0 0.00010463
15670.0 0.00010412
15690.0 0.00010362
15710.0 0.00010313
15730.0 0.00010263
15750.0 0.00010213
15770.0 0.00010165
15790.0 0.00010117
15810.0 0.00010069
15830.0 0.00010022
15850.0 9.9757e-05
15870.0 9.9291e-05
15890.0 9.883e-05
15910.0 9.8383e-05
15930.0 9.7935e-05
15950.0 9.7482e-05
15970.0 9.7043e-05
15990.0 9.6612e-05
16010.0 9.6177e-05
16030.0 9.5743e-05
16050.0 9.5328e-05
16070.0 9.4912e-05
16090.0 9.4493e-05
16110.0 9.4086e-05
16130.0 9.3688e-05
16150.0 9.3278e-05
16170.0 9.2878e-05
16190.0 9.2491e-05
16210.0 9.2104e-05
16230.0 9.1714e-05
16250.0 9.1337e-05
16270.0 9.0968e-05
16290.0 9.0591e-05
16310.0 9.0222e-05
16330.0 8.9865e-05
16350.0 8.9506e-05
16370.0 8.9139e-05
16390.0 8.8793e-05
16410.0 8.845e-05
16430.0 8.8102e-05
16450.0 8.7761e-05
16470.0 8.7434e-05
16490.0 8.7099e-05
16510.0 8.6766e-05
16530.0 8.6444e-05
16550.0 8.6127e-05
16570.0 8.5803e-05
16590.0 8.5486e-05
16610.0 8.5184e-05
16630.0 8.4877e-05
16650.0 8.457e-05
16670.0 8.4275e-05
16690.0 8.3983e-05
16710.0 8.3681e-05
16730.0 8.3391e-05
16750.0 8.311e-05
16770.0 8.2825e-05
16790.0 8.2539e-05
16810.0 8.2268e-05
16830.0 8.1998e-05
16850.0 8.1722e-05
16870.0 8.1455e-05
16890.0 8.1197e-05
16910.0 8.093e-05
16930.0 8.0664e-05
16950.0 8.0413e-05
16970.0 8.0162e-05
16990.0 7.9906e-05
17010.0 7.9659e-05
17030.0 7.9421e-05
17050.0 7.9174e-05
17070.0 7.893e-05
17090.0 7.8697e-05
17110.0 7.8463e-05
17130.0 7.8221e-05
17150.0 7.7991e-05
17170.0 7.7768e-05
17190.0 7.7539e-05
17210.0 7.7312e-05
17230.0 7.7097e-05
17250.0 7.6878e-05
17270.0 7.6652e-05
17290.0 7.6438e-05
17310.0 7.6228e-05
17330.0 7.6011e-05
17350.0 7.5795e-05
17370.0 7.5594e-05
17390.0 7.5388e-05
17410.0 7.5178e-05
17430.0 7.4977e-05
17450.0 7.4782e-05
17470.0 7.4572e-05
17490.0 7.437e-05
17510.0 7.4178e-05
17530.0 7.3981e-05
17550.0 7.378e-05
17570.0 7.359e-05
17590.0 7.3403e-05
17610.0 7.3206e-05
17630.0 7.3014e-05
17650.0 7.2831e-05
17670.0 7.2642e-05
17690.0 7.2444e-05
17710.0 7.2262e-05
17730.0 7.2081e-05
17750.0 7.1892e-05
17770.0 7.1707e-05
17790.0 7.1532e-05
17810.0 7.1346e-05
17830.0 7.1158e-05
17850.0 7.098e-05
17870.0 7.0802e-05
17890.0 7.0615e-05
17910.0 7.0432e-05
17930.0 7.026e-05
17950.0 7.0079e-05
17970.0 6.9896e-05
17990.0 6.9722e-05
18010.0 6.9547e-05
18030.0 6.9359e-05
18050.0 6.918e-05
18070.0 6.9007e-05
18090.0 6.8826e-05
18110.0 6.8642e-05
18130.0 6.847e-05
18150.0 6.8294e-05
18170.0 6.811e-05
18190.0 6.7931e-05
18210.0 6.7758e-05
18230.0 6.7573e-05
18250.0 6.7386e-05
18270.0 6.7211e-05
18290.0 6.7032e-05
18310.0 6.6846e-05
18330.0 6.6665e-05
18350.0 6.649e-05
18370.0 6.6302e-05
18390.0 6.6115e-05
18410.0 6.5935e-05
18430.0 6.5751e-05
18450.0 6.5556e-05
18470.0 6.5371e-05
18490.0 6.5189e-05
18510.0 6.4998e-05
18530.0 6.4806e-05
18550.0 6.4623e-05
18570.0 6.4432e-05
18590.0 6.4232e-05
18610.0 6.404e-05
18630.0 6.385e-05
18650.0 6.365e-05
18670.0 6.3449e-05
18690.0 6.3259e-05
18710.0 6.3061e-05
18730.0 6.2856e-05
18750.0 6.2657e-05
18770.0 6.2461e-05
18790.0 6.2247e-05
18810.0 6.2039e-05
18830.0 6.1839e-05
18850.0 6.163e-05
18870.0 6.1415e-05
18890.0 6.1208e-05
18910.0 6.1001e-05
18930.0 6.0782e-05
18950.0 6.0565e-05
18970.0 6.0354e-05
18990.0 6.0134e-05
19010.0 5.9903e-05
19030.0 5.9688e-05
19050.0 5.9468e-05
19070.0 5.9239e-05
19090.0 5.9012e-05
19110.0 5.8793e-05
19130.0 5.8559e-05
19150.0 5.8322e-05
19170.0 5.8092e-05
19190.0 5.786e-05
19210.0 5.7617e-05
19230.0 5.7377e-05
19250.0 5.7145e-05
19270.0 5.6901e-05
19290.0 5.6654e-05
19310.0 5.6414e-05
19330.0 5.6171e-05
19350.0 5.5912e-05
19370.0 5.5662e-05
19390.0 5.5415e-05
19410.0 5.5158e-05
19430.0 5.4897e-05
19450.0 5.4646e-05
19470.0 5.439e-05
19490.0 5.4123e-05
19510.0 5.3861e-05
19530.0 5.3603e-05
19550.0 5.3331e-05
19570.0 5.3056e-05
19590.0 5.2793e-05
19610.0 5.2523e-05
19630.0 5.2244e-05
19650.0 5.1971e-05
19670.0 5.1702e-05
19690.0 5.1418e-05
19710.0 5.1134e-05
19730.0 5.0858e-05
19750.0 5.0575e-05
19770.0 5.028e-05
19790.0 4.9996e-05
19810.0 4.9714e-05
19830.0 4.9421e-05
19850.0 4.9128e-05
19870.0 4.8843e-05
19890.0 4.8549e-05
19910.0 4.8248e-05
19930.0 4.796e-05
19950.0 4.7675e-05
19970.0 4.7387e-05
19990.0 4.7106e-05
20010.0 4.6843e-05
20030.0 4.658e-05
20050.0 4.6321e-05
20070.0 4.6075e-05
20090.0 4.5835e-05
20110.0 4.5587e-05
20130.0 4.5346e-05
20150.0 4.5113e-05
20170.0 4.4875e-05
20190.0 4.4634e-05
20210.0 4.4401e-05
20230.0 4.4169e-05
20250.0 4.393e-05
20270.0 4.3696e-05
20290.0 4.3469e-05
20310.0 4.3239e-05
20330.0 4.3007e-05
20350.0 4.2788e-05
20370.0 4.2571e-05
20390.0 4.2354e-05
20410.0 4.2144e-05
20430.0 4.1943e-05
20450.0 4.1741e-05
20470.0 4.1545e-05
20490.0 4.1359e-05
20510.0 4.1179e-05
20530.0 4.1004e-05
20550.0 4.0839e-05
20570.0 4.0684e-05
20590.0 4.0535e-05
20610.0 4.0396e-05
20630.0 4.0268e-05
20650.0 4.0148e-05
20670.0 4.0038e-05
20690.0 3.9937e-05
20710.0 3.9843e-05
20730.0 3.9756e-05
20750.0 3.9674e-05
20770.0 3.9594e-05
20790.0 3.9516e-05
20810.0 3.9438e-05
20830.0 3.9356e-05
20850.0 3.9268e-05
20870.0 3.9174e-05
20890.0 3.907e-05
20910.0 3.8954e-05
20930.0 3.8824e-05
20950.0 3.868e-05
20970.0 3.8521e-05
20990.0 3.8347e-05
21010.0 3.8154e-05
21030.0 3.7945e-05
21050.0 3.7723e-05
21070.0 3.7483e-05
21090.0 3.7225e-05
21110.0 3.696e-05
21130.0 3.6685e-05
21150.0 3.6395e-05
21170.0 3.6098e-05
21190.0 3.58e-05
21210.0 3.549e-05
21230.0 3.5173e-05
21250.0 3.4861e-05
21270.0 3.4548e-05
21290.0 3.4228e-05
21310.0 3.3909e-05
21330.0 3.3598e-05
21350.0 3.3281e-05
21370.0 3.2962e-05
21390.0 3.2647e-05
21410.0 3.2333e-05
21430.0 3.2007e-05
21450.0 3.1685e-05
21470.0 3.1366e-05
21490.0 3.1039e-05
21510.0 3.0707e-05
21530.0 3.0379e-05
21550.0 3.0048e-05
21570.0 2.9707e-05
21590.0 2.9367e-05
21610.0 2.9031e-05
21630.0 2.8687e-05
21650.0 2.8337e-05
21670.0 2.8e-05
21690.0 2.7661e-05
21710.0 2.7317e-05
21730.0 2.698e-05
21750.0 2.6652e-05
21770.0 2.6315e-05
21790.0 2.5984e-05
21810.0 2.5663e-05
21830.0 2.5345e-05
21850.0 2.5025e-05
21870.0 2.4714e-05
21890.0 2.4414e-05
21910.0 2.411e-05
21930.0 2.3811e-05
21950.0 2.3521e-05
21970.0 2.3232e-05
21990.0 2.2939e-05
22010.0 2.2656e-05
22030.0 2.2377e-05
22050.0 2.2095e-05
22070.0 2.1814e-05
22090.0 2.1541e-05
22110.0 2.1265e-05
22130.0 2.0985e-05
22150.0 2.071e-05
22170.0 2.0437e-05
22190.0 2.0158e-05
22210.0 1.9878e-05
22230.0 1.9607e-05
22250.0 1.9333e-05
22270.0 1.9056e-05
22290.0 1.8784e-05
22310.0 1.8516e-05
22330.0 1.8242e-05
22350.0 1.7972e-05
22370.0 1.7709e-05
22390.0 1.7445e-05
22410.0 1.718e-05
22430.0 1.6926e-05
22450.0 1.6677e-05
22470.0 1.6427e-05
22490.0 1.6183e-05
22510.0 1.5949e-05
22530.0 1.5715e-05
22550.0 1.5485e-05
22570.0 1.5265e-05
22590.0 1.5051e-05
22610.0 1.4839e-05
22630.0 1.4634e-05
22650.0 1.4438e-05
22670.0 1.4244e-05
22690.0 1.4054e-05
22710.0 1.3871e-05
22730.0 1.3693e-05
22750.0 1.3515e-05
22770.0 1.3343e-05
22790.0 1.3179e-05
22810.0 1.3016e-05
22830.0 1.2856e-05
22850.0 1.2704e-05
22870.0 1.2556e-05
22890.0 1.241e-05
22910.0 1.2271e-05
22930.0 1.2138e-05
