#lamb flux
1010.0 5.0706e-08
1030.0 5.6081e-08
1050.0 6.2263e-08
1070.0 6.9223e-08
1090.0 7.7128e-08
1110.0 8.5236e-08
1130.0 9.3396e-08
1150.0 1.0194e-07
1170.0 1.1076e-07
1190.0 1.1912e-07
1210.0 1.276e-07
1230.0 1.3635e-07
1250.0 1.4493e-07
1270.0 1.5327e-07
1290.0 1.6207e-07
1310.0 1.7087e-07
1330.0 1.793e-07
1350.0 1.8784e-07
1370.0 1.9664e-07
1390.0 2.0523e-07
1410.0 2.1357e-07
1430.0 2.2228e-07
1450.0 2.3099e-07
1470.0 2.3941e-07
1490.0 2.4792e-07
1510.0 2.5691e-07
1530.0 2.6544e-07
1550.0 2.7384e-07
1570.0 2.8254e-07
1590.0 2.9125e-07
1610.0 2.9958e-07
1630.0 3.0816e-07
1650.0 3.1697e-07
1670.0 3.2551e-07
1690.0 3.3393e-07
1710.0 3.4269e-07
1730.0 3.515e-07
1750.0 3.598e-07
1770.0 3.6835e-07
1790.0 3.7708e-07
1810.0 3.8554e-07
1830.0 3.9387e-07
1850.0 4.0272e-07
1870.0 4.1135e-07
1890.0 4.1971e-07
1910.0 4.2826e-07
1930.0 4.3702e-07
1950.0 4.4541e-07
1970.0 4.5372e-07
1990.0 4.6235e-07
2010.0 4.7087e-07
2030.0 4.791e-07
2050.0 4.876e-07
2070.0 4.9633e-07
2090.0 5.0459e-07
2110.0 5.1284e-07
2130.0 5.2135e-07
2150.0 5.2973e-07
2170.0 5.3775e-07
2190.0 5.4609e-07
2210.0 5.545e-07
2230.0 5.6259e-07
2250.0 5.7064e-07
2270.0 5.7907e-07
2290.0 5.8725e-07
2310.0 5.9512e-07
2330.0 6.033e-07
2350.0 6.117e-07
2370.0 6.2007e-07
2390.0 6.2913e-07
2410.0 6.3986e-07
2430.0 6.5221e-07
2450.0 6.6697e-07
2470.0 6.8588e-07
2490.0 7.0972e-07
2510.0 7.3681e-07
2530.0 7.6942e-07
2550.0 8.1024e-07
2570.0 8.6103e-07
2590.0 9.2709e-07
2610.0 1.026e-06
2630.0 1.1672e-06
2650.0 1.3518e-06
2670.0 1.5906e-06
2690.0 1.8839e-06
2710.0 2.1971e-06
2730.0 2.5065e-06
2750.0 2.8113e-06
2770.0 3.0764e-06
2790.0 3.2869e-06
2810.0 3.4539e-06
2830.0 3.5844e-06
2850.0 3.6735e-06
2870.0 3.7389e-06
2890.0 3.7907e-06
2910.0 3.832e-06
2930.0 3.8658e-06
2950.0 3.898e-06
2970.0 3.9295e-06
2990.0 3.9591e-06
3010.0 0.00011191
3030.0 0.00011274
3050.0 0.00011355
3070.0 0.00011424
3090.0 0.00011484
3110.0 0.00011521
3130.0 0.00011519
3150.0 0.00011468
3170.0 0.00011345
3190.0 0.00011152
3210.0 0.00010908
3230.0 0.00010628
3250.0 0.00010352
3270.0 0.0001015
3290.0 0.00010037
3310.0 0.00010056
3330.0 0.00010201
3350.0 0.00010455
3370.0 0.00010816
3390.0 0.00011272
3410.0 0.00011769
3430.0 0.00012326
3450.0 0.00012967
3470.0 0.00013668
3490.0 0.0001441
3510.0 0.00015249
3530.0 0.00016148
3550.0 0.00017057
3570.0 0.00018006
3590.0 0.00019038
3610.0 0.00020102
3630.0 0.00021162
3650.0 0.00022262
3670.0 0.00023266
3690.0 0.00024016
3710.0 0.00024447
3730.0 0.00024461
3750.0 0.00024121
3770.0 0.00023987
3790.0 0.00023844
3810.0 0.00023258
3830.0 0.00023978
3850.0 0.0002681
3870.0 0.00028365
3890.0 0.00028236
3910.0 0.00028356
3930.0 0.00029102
3950.0 0.00029562
3970.0 0.00026934
3990.0 0.00023175
4010.0 0.00069459
4030.0 0.0008416
4050.0 0.00096484
4070.0 0.00083716
4090.0 0.00075821
4110.0 0.00066905
4130.0 0.00061579
4150.0 0.00065502
4170.0 0.00064522
4190.0 0.00068776
4210.0 0.00068147
4230.0 0.00072081
4250.0 0.00085273
4270.0 0.00086276
4290.0 0.00079503
4310.0 0.00082609
4330.0 0.00087871
4350.0 0.00098525
4370.0 0.0011212
4390.0 0.0010522
4410.0 0.00077736
4430.0 0.00065808
4450.0 0.0006047
4470.0 0.00046413
4490.0 0.00050086
4510.0 0.00075655
4530.0 0.00087253
4550.0 0.0008801
4570.0 0.00099034
4590.0 0.0011281
4610.0 0.0015215
4630.0 0.0019761
4650.0 0.0021431
4670.0 0.0019847
4690.0 0.0018938
4710.0 0.0020019
4730.0 0.0018892
4750.0 0.0014124
4770.0 0.0010361
4790.0 0.00096747
4810.0 0.00092215
4830.0 0.00084422
4850.0 0.00092639
4870.0 0.0012239
4890.0 0.0014433
4910.0 0.0012663
4930.0 0.0011205
4950.0 0.001231
4970.0 0.0015787
4990.0 0.0021395
5010.0 0.0024612
5030.0 0.0021702
5050.0 0.0014683
5070.0 0.00096767
5090.0 0.00078028
5110.0 0.00080245
5130.0 0.00092615
5150.0 0.0010034
5170.0 0.00098836
5190.0 0.00092356
5210.0 0.00096532
5230.0 0.0010148
5250.0 0.0010937
5270.0 0.00118
5290.0 0.0013077
5310.0 0.0015221
5330.0 0.0016844
5350.0 0.0016736
5370.0 0.001758
5390.0 0.0020173
5410.0 0.0020155
5430.0 0.0017825
5450.0 0.0016377
5470.0 0.0017389
5490.0 0.0021245
5510.0 0.0026564
5530.0 0.0030467
5550.0 0.0029447
5570.0 0.002677
5590.0 0.0023277
5610.0 0.0021466
5630.0 0.0020816
5650.0 0.0019825
5670.0 0.0018786
5690.0 0.0016795
5710.0 0.0016375
5730.0 0.0015084
5750.0 0.0010635
5770.0 0.00082971
5790.0 0.00094024
5810.0 0.0010617
5830.0 0.0013029
5850.0 0.0015509
5870.0 0.0017208
5890.0 0.0017499
5910.0 0.0017168
5930.0 0.0016342
5950.0 0.0016652
5970.0 0.0018982
5990.0 0.0017848
6010.0 0.0014962
6030.0 0.0012641
6050.0 0.0011008
6070.0 0.0010948
6090.0 0.0011872
6110.0 0.0013274
6130.0 0.0013478
6150.0 0.0011596
6170.0 0.0010201
6190.0 0.001148
6210.0 0.0015176
6230.0 0.0019916
6250.0 0.0021571
6270.0 0.0018851
6290.0 0.001586
6310.0 0.0012381
6330.0 0.00094866
6350.0 0.00084617
6370.0 0.00088984
6390.0 0.0010287
6410.0 0.0012684
6430.0 0.0014812
6450.0 0.0016949
6470.0 0.0019407
6490.0 0.0023442
6510.0 0.0026211
6530.0 0.0025715
6550.0 0.0023253
6570.0 0.001974
6590.0 0.00178
6610.0 0.0015348
6630.0 0.0013905
6650.0 0.0013144
6670.0 0.0012769
6690.0 0.0011538
6710.0 0.0010488
6730.0 0.00075542
6750.0 0.00074892
6770.0 0.00081402
6790.0 0.00093566
6810.0 0.00085615
6830.0 0.0008816
6850.0 0.00082457
6870.0 0.00075325
6890.0 0.00072323
6910.0 0.0007707
6930.0 0.00072187
6950.0 0.00074268
6970.0 0.00078116
6990.0 0.00088668
7010.0 0.00089424
7030.0 0.00090844
7050.0 0.00086635
7070.0 0.00082547
7090.0 0.00082789
7110.0 0.00085184
7130.0 0.00091671
7150.0 0.00097362
7170.0 0.0010743
7190.0 0.001181
7210.0 0.0011605
7230.0 0.001193
7250.0 0.001282
7270.0 0.0013971
7290.0 0.0016582
7310.0 0.0017993
7330.0 0.0017392
7350.0 0.001573
7370.0 0.0013687
7390.0 0.0013278
7410.0 0.001411
7430.0 0.0015682
7450.0 0.001708
7470.0 0.0016923
7490.0 0.0015431
7510.0 0.0017479
7530.0 0.0017288
7550.0 0.0015539
7570.0 0.0012139
7590.0 0.00083448
7610.0 0.00071624
7630.0 0.00081378
7650.0 0.00096219
7670.0 0.0011975
7690.0 0.0013178
7710.0 0.0013733
7730.0 0.0014431
7750.0 0.0016201
7770.0 0.0016456
7790.0 0.0015115
7810.0 0.0013792
7830.0 0.0014222
7850.0 0.0013825
7870.0 0.0012676
7890.0 0.001065
7910.0 0.00086569
7930.0 0.00082661
7950.0 0.00075306
7970.0 0.00069709
7990.0 0.00069312
8010.0 5.1334e-05
8030.0 5.0667e-05
8050.0 4.9983e-05
8070.0 5.0638e-05
8090.0 5.4409e-05
8110.0 5.3482e-05
8130.0 4.4116e-05
8150.0 4.2964e-05
8170.0 3.7007e-05
8190.0 3.5072e-05
8210.0 4.5544e-05
8230.0 5.0708e-05
8250.0 4.5702e-05
8270.0 3.9778e-05
8290.0 3.8776e-05
8310.0 2.9844e-05
8330.0 2.0114e-05
8350.0 1.4275e-05
8370.0 8.9939e-06
8390.0 1.6441e-05
8410.0 1.9158e-05
8430.0 2.3615e-05
8450.0 2.773e-05
8470.0 3.4467e-05
8490.0 3.4224e-05
8510.0 3.3664e-05
8530.0 3.5133e-05
8550.0 4.7402e-05
8570.0 5.6117e-05
8590.0 6.055e-05
8610.0 7.6487e-05
8630.0 9.214e-05
8650.0 9.6388e-05
8670.0 0.00010243
8690.0 0.00010301
8710.0 9.3285e-05
8730.0 8.677e-05
8750.0 7.6591e-05
8770.0 7.2673e-05
8790.0 7.1397e-05
8810.0 6.8414e-05
8830.0 5.4708e-05
8850.0 4.005e-05
8870.0 3.0666e-05
8890.0 2.9981e-05
8910.0 3.4358e-05
8930.0 3.908e-05
8950.0 3.9829e-05
8970.0 4.0017e-05
8990.0 3.569e-05
9010.0 0.00037402
9030.0 0.0003389
9050.0 0.00034054
9070.0 0.00034323
9090.0 0.00034559
9110.0 0.0003485
9130.0 0.00035074
9150.0 0.00035249
9170.0 0.00035435
9190.0 0.00035634
9210.0 0.00035843
9230.0 0.00036064
9250.0 0.00036288
9270.0 0.00036521
9290.0 0.00036761
9310.0 0.00037002
9330.0 0.00037249
9350.0 0.00037504
9370.0 0.00037762
9390.0 0.00038023
9410.0 0.00038291
9430.0 0.00038568
9450.0 0.00038843
9470.0 0.00039125
9490.0 0.00039414
9510.0 0.00039707
9530.0 0.00040001
9550.0 0.00040305
9570.0 0.00040615
9590.0 0.00040925
9610.0 0.00041241
9630.0 0.00041566
9650.0 0.00041893
9670.0 0.0004222
9690.0 0.00042557
9710.0 0.00042899
9730.0 0.00043241
9750.0 0.00043589
9770.0 0.00043946
9790.0 0.00044304
9810.0 0.00044663
9830.0 0.00045029
9850.0 0.00045401
9870.0 0.00045771
9890.0 0.00046147
9910.0 0.0004653
9930.0 0.00046913
9950.0 0.00047298
9970.0 0.0004769
9990.0 0.00048087
10010.0 0.00041726
10030.0 0.00042069
10050.0 0.00042419
10070.0 0.0004278
10090.0 0.00043121
10110.0 0.0004347
10130.0 0.00043821
10150.0 0.0004417
10170.0 0.00044524
10190.0 0.00044883
10210.0 0.00045239
10230.0 0.00045593
10250.0 0.00045954
10270.0 0.00046314
10290.0 0.00046669
10310.0 0.00047029
10330.0 0.00047393
10350.0 0.0004775
10370.0 0.00048106
10390.0 0.00048466
10410.0 0.00048825
10430.0 0.00049177
10450.0 0.00049532
10470.0 0.00049888
10490.0 0.00050238
10510.0 0.00050585
10530.0 0.00050939
10550.0 0.00051286
10570.0 0.00051626
10590.0 0.00051968
10610.0 0.0005231
10630.0 0.00052643
10650.0 0.00052974
10670.0 0.00053308
10690.0 0.00053635
10710.0 0.00053956
10730.0 0.00054277
10750.0 0.00054599
10770.0 0.00054907
10790.0 0.00055213
10810.0 0.00055519
10830.0 0.00055815
10850.0 0.00056096
10870.0 0.00056368
10890.0 0.00056608
10910.0 0.00056793
10930.0 0.00056897
10950.0 0.00056873
10970.0 0.0005668
10990.0 0.00056302
11010.0 0.0005567
11030.0 0.00054784
11050.0 0.00053705
11070.0 0.00052414
11090.0 0.00050864
11110.0 0.00049259
11130.0 0.00047586
11150.0 0.00045785
11170.0 0.00043928
11190.0 0.00042126
11210.0 0.00040266
11230.0 0.00038358
11250.0 0.00036536
11270.0 0.00034785
11290.0 0.00033032
11310.0 0.00031371
11330.0 0.00029907
11350.0 0.00028525
11370.0 0.00027248
11390.0 0.00026143
11410.0 0.00025177
11430.0 0.00024279
11450.0 0.00023505
11470.0 0.00022836
11490.0 0.00022213
11510.0 0.00021613
11530.0 0.00021056
11550.0 0.00020503
11570.0 0.00019913
11590.0 0.00019302
11610.0 0.0001868
11630.0 0.00018003
11650.0 0.00017279
11670.0 0.00016564
11690.0 0.0001584
11710.0 0.00015093
11730.0 0.00014369
11750.0 0.00013699
11770.0 0.00013041
11790.0 0.00012426
11810.0 0.00011883
11830.0 0.00011399
11850.0 0.00010952
11870.0 0.00010578
11890.0 0.00010268
11910.0 9.9949e-05
11930.0 9.7604e-05
11950.0 9.565e-05
11970.0 9.3905e-05
11990.0 9.2256e-05
12010.0 9.073e-05
12030.0 8.9259e-05
12050.0 8.7739e-05
12070.0 8.6158e-05
12090.0 8.4633e-05
12110.0 8.3086e-05
12130.0 8.1535e-05
12150.0 8.0105e-05
12170.0 7.8857e-05
12190.0 7.7778e-05
12210.0 7.7025e-05
12230.0 7.6661e-05
12250.0 7.672e-05
12270.0 7.7298e-05
12290.0 7.8392e-05
12310.0 7.996e-05
12330.0 8.2155e-05
12350.0 8.4894e-05
12370.0 8.8013e-05
12390.0 9.1609e-05
12410.0 9.5822e-05
12430.0 0.0001001
12450.0 0.00010454
12470.0 0.00010925
12490.0 0.00011399
12510.0 0.00011843
12530.0 0.00012285
12550.0 0.00012712
12570.0 0.00013088
12590.0 0.00013418
12610.0 0.00013713
12630.0 0.00013948
12650.0 0.0001411
12670.0 0.00014216
12690.0 0.00014259
12710.0 0.00014235
12730.0 0.00014153
12750.0 0.00014005
12770.0 0.00013803
12790.0 0.00013558
12810.0 0.00013266
12830.0 0.00012927
12850.0 0.00012573
12870.0 0.00012199
12890.0 0.00011794
12910.0 0.00011382
12930.0 0.00010977
12950.0 0.00010553
12970.0 0.00010122
12990.0 9.7146e-05
13010.0 9.3119e-05
13030.0 8.9048e-05
13050.0 8.5137e-05
13070.0 8.1474e-05
13090.0 7.7797e-05
13110.0 7.4241e-05
13130.0 7.0961e-05
13150.0 6.7856e-05
13170.0 6.4816e-05
13190.0 6.211e-05
13210.0 5.9729e-05
13230.0 5.7552e-05
13250.0 5.5677e-05
13270.0 5.4199e-05
13290.0 5.3049e-05
13310.0 5.2257e-05
13330.0 5.1896e-05
13350.0 5.1938e-05
13370.0 5.2404e-05
13390.0 5.3319e-05
13410.0 5.4555e-05
13430.0 5.6163e-05
13450.0 5.8149e-05
13470.0 6.0353e-05
13490.0 6.2688e-05
13510.0 6.5322e-05
13530.0 6.7991e-05
13550.0 7.0546e-05
13570.0 7.3066e-05
13590.0 7.5521e-05
13610.0 7.7705e-05
13630.0 7.9612e-05
13650.0 8.1353e-05
13670.0 8.2798e-05
13690.0 8.3916e-05
13710.0 8.478e-05
13730.0 8.5398e-05
13750.0 8.5706e-05
13770.0 8.5777e-05
13790.0 8.5621e-05
13810.0 8.5243e-05
13830.0 8.4685e-05
13850.0 8.3928e-05
13870.0 8.2973e-05
13890.0 8.1882e-05
13910.0 8.0652e-05
13930.0 7.9229e-05
13950.0 7.7674e-05
13970.0 7.6085e-05
13990.0 7.4354e-05
14010.0 7.2514e-05
14030.0 7.0678e-05
14050.0 6.8828e-05
14070.0 6.6875e-05
14090.0 6.5003e-05
14110.0 6.3244e-05
14130.0 6.1539e-05
14150.0 5.9935e-05
14170.0 5.8565e-05
14190.0 5.7381e-05
14210.0 5.6376e-05
14230.0 5.5632e-05
14250.0 5.5152e-05
14270.0 5.4918e-05
14290.0 5.4968e-05
14310.0 5.5274e-05
14330.0 5.5824e-05
14350.0 5.6634e-05
14370.0 5.7643e-05
14390.0 5.8789e-05
14410.0 6.0138e-05
14430.0 6.1619e-05
14450.0 6.3133e-05
14470.0 6.4702e-05
14490.0 6.6372e-05
14510.0 6.7968e-05
14530.0 6.9485e-05
14550.0 7.1e-05
14570.0 7.2455e-05
14590.0 7.378e-05
14610.0 7.5061e-05
14630.0 7.6328e-05
14650.0 7.751e-05
14670.0 7.865e-05
14690.0 7.9838e-05
14710.0 8.1089e-05
14730.0 8.2338e-05
14750.0 8.3723e-05
14770.0 8.5294e-05
14790.0 8.6997e-05
14810.0 8.8842e-05
14830.0 9.1028e-05
14850.0 9.3405e-05
14870.0 9.5884e-05
14890.0 9.8558e-05
14910.0 0.0001014
14930.0 0.00010413
14950.0 0.00010668
14970.0 0.0001091
14990.0 0.00011113
15010.0 0.00011267
15030.0 0.00011382
15050.0 0.00011458
15070.0 0.00011495
15090.0 0.00011508
15110.0 0.00011504
15130.0 0.0001149
15150.0 0.00011471
15170.0 0.00011448
15190.0 0.00011423
15210.0 0.00011399
15230.0 0.00011374
15250.0 0.00011349
15270.0 0.00011324
15290.0 0.00011301
15310.0 0.00011277
15330.0 0.00011252
15350.0 0.00011229
15370.0 0.00011206
15390.0 0.00011181
15410.0 0.00011158
15430.0 0.00011135
15450.0 0.00011111
15470.0 0.00011087
15490.0 0.00011065
15510.0 0.00011042
15530.0 0.00011019
15550.0 0.00010996
15570.0 0.00010974
15590.0 0.00010951
15610.0 0.00010928
15630.0 0.00010906
15650.0 0.00010884
15670.0 0.00010861
15690.0 0.00010839
15710.0 0.00010817
15730.0 0.00010795
15750.0 0.00010773
15770.0 0.00010751
15790.0 0.00010729
15810.0 0.00010707
15830.0 0.00010685
15850.0 0.00010664
15870.0 0.00010642
15890.0 0.0001062
15910.0 0.00010599
15930.0 0.00010577
15950.0 0.00010555
15970.0 0.00010534
15990.0 0.00010512
16010.0 0.00010491
16030.0 0.00010469
16050.0 0.00010448
16070.0 0.00010427
16090.0 0.00010405
16110.0 0.00010383
16130.0 0.00010363
16150.0 0.00010341
16170.0 0.00010319
16190.0 0.00010298
16210.0 0.00010277
16230.0 0.00010255
16250.0 0.00010234
16270.0 0.00010213
16290.0 0.00010191
16310.0 0.00010169
16330.0 0.00010149
16350.0 0.00010127
16370.0 0.00010105
16390.0 0.00010084
16410.0 0.00010063
16430.0 0.00010041
16450.0 0.00010019
16470.0 9.9982e-05
16490.0 9.9764e-05
16510.0 9.9542e-05
16530.0 9.9329e-05
16550.0 9.9116e-05
16570.0 9.8892e-05
16590.0 9.8671e-05
16610.0 9.8462e-05
16630.0 9.8243e-05
16650.0 9.802e-05
16670.0 9.7806e-05
16690.0 9.7591e-05
16710.0 9.7362e-05
16730.0 9.7142e-05
16750.0 9.6926e-05
16770.0 9.6703e-05
16790.0 9.6475e-05
16810.0 9.6259e-05
16830.0 9.604e-05
16850.0 9.5812e-05
16870.0 9.5589e-05
16890.0 9.5372e-05
16910.0 9.5143e-05
16930.0 9.491e-05
16950.0 9.469e-05
16970.0 9.4466e-05
16990.0 9.4234e-05
17010.0 9.4008e-05
17030.0 9.3788e-05
17050.0 9.3555e-05
17070.0 9.3322e-05
17090.0 9.3097e-05
17110.0 9.2869e-05
17130.0 9.2629e-05
17150.0 9.2399e-05
17170.0 9.2173e-05
17190.0 9.1938e-05
17210.0 9.1702e-05
17230.0 9.1476e-05
17250.0 9.1242e-05
17270.0 9.0999e-05
17290.0 9.0765e-05
17310.0 9.0534e-05
17330.0 9.0293e-05
17350.0 9.005e-05
17370.0 8.982e-05
17390.0 8.9583e-05
17410.0 8.9339e-05
17430.0 8.9102e-05
17450.0 8.8868e-05
17470.0 8.8618e-05
17490.0 8.8374e-05
17510.0 8.8137e-05
17530.0 8.7895e-05
17550.0 8.7645e-05
17570.0 8.7405e-05
17590.0 8.7167e-05
17610.0 8.6917e-05
17630.0 8.667e-05
17650.0 8.6429e-05
17670.0 8.6182e-05
17690.0 8.5924e-05
17710.0 8.5682e-05
17730.0 8.5438e-05
17750.0 8.5184e-05
17770.0 8.4934e-05
17790.0 8.4693e-05
17810.0 8.4439e-05
17830.0 8.4182e-05
17850.0 8.3935e-05
17870.0 8.3686e-05
17890.0 8.3426e-05
17910.0 8.3171e-05
17930.0 8.2926e-05
17950.0 8.267e-05
17970.0 8.2412e-05
17990.0 8.2162e-05
18010.0 8.1911e-05
18030.0 8.1646e-05
18050.0 8.1389e-05
18070.0 8.1138e-05
18090.0 8.0879e-05
18110.0 8.0616e-05
18130.0 8.0364e-05
18150.0 8.0109e-05
18170.0 7.9845e-05
18190.0 7.9587e-05
18210.0 7.9334e-05
18230.0 7.9069e-05
18250.0 7.8802e-05
18270.0 7.8547e-05
18290.0 7.8289e-05
18310.0 7.8022e-05
18330.0 7.7762e-05
18350.0 7.7508e-05
18370.0 7.7241e-05
18390.0 7.6975e-05
18410.0 7.6717e-05
18430.0 7.6455e-05
18450.0 7.6183e-05
18470.0 7.5921e-05
18490.0 7.5663e-05
18510.0 7.5396e-05
18530.0 7.513e-05
18550.0 7.4873e-05
18570.0 7.4607e-05
18590.0 7.4335e-05
18610.0 7.4071e-05
18630.0 7.381e-05
18650.0 7.354e-05
18670.0 7.3269e-05
18690.0 7.3012e-05
18710.0 7.2746e-05
18730.0 7.2475e-05
18750.0 7.2212e-05
18770.0 7.1952e-05
18790.0 7.1675e-05
18810.0 7.1406e-05
18830.0 7.1145e-05
18850.0 7.0877e-05
18870.0 7.0604e-05
18890.0 7.0341e-05
18910.0 7.0079e-05
18930.0 6.9806e-05
18950.0 6.9538e-05
18970.0 6.9276e-05
18990.0 6.9007e-05
19010.0 6.8728e-05
19030.0 6.8467e-05
19050.0 6.8203e-05
19070.0 6.793e-05
19090.0 6.7662e-05
19110.0 6.7403e-05
19130.0 6.713e-05
19150.0 6.6857e-05
19170.0 6.6593e-05
19190.0 6.6328e-05
19210.0 6.6053e-05
19230.0 6.5783e-05
19250.0 6.5523e-05
19270.0 6.5253e-05
19290.0 6.4982e-05
19310.0 6.4719e-05
19330.0 6.4455e-05
19350.0 6.4177e-05
19370.0 6.391e-05
19390.0 6.3647e-05
19410.0 6.3377e-05
19430.0 6.3104e-05
19450.0 6.2844e-05
19470.0 6.2579e-05
19490.0 6.2306e-05
19510.0 6.204e-05
19530.0 6.1779e-05
19550.0 6.1506e-05
19570.0 6.1233e-05
19590.0 6.0972e-05
19610.0 6.0707e-05
19630.0 6.0435e-05
19650.0 6.0171e-05
19670.0 5.9912e-05
19690.0 5.964e-05
19710.0 5.9371e-05
19730.0 5.911e-05
19750.0 5.8845e-05
19770.0 5.857e-05
19790.0 5.8307e-05
19810.0 5.8047e-05
19830.0 5.7776e-05
19850.0 5.7505e-05
19870.0 5.7239e-05
19890.0 5.6953e-05
19910.0 5.6639e-05
19930.0 5.6303e-05
19950.0 5.5919e-05
19970.0 5.5445e-05
19990.0 5.4876e-05
20010.0 4.8822e-05
20030.0 4.8116e-05
20050.0 4.7289e-05
20070.0 4.6393e-05
20090.0 4.5429e-05
20110.0 4.4339e-05
20130.0 4.3235e-05
20150.0 4.2141e-05
20170.0 4.1007e-05
20190.0 3.9857e-05
20210.0 3.877e-05
20230.0 3.771e-05
20250.0 3.6648e-05
20270.0 3.5663e-05
20290.0 3.4763e-05
20310.0 3.3907e-05
20330.0 3.3108e-05
20350.0 3.2445e-05
20370.0 3.1856e-05
20390.0 3.134e-05
20410.0 3.0923e-05
20430.0 3.0601e-05
20450.0 3.0347e-05
20470.0 3.0176e-05
20490.0 3.0084e-05
20510.0 3.0058e-05
20530.0 3.0095e-05
20550.0 3.0188e-05
20570.0 3.0323e-05
20590.0 3.0506e-05
20610.0 3.0728e-05
20630.0 3.0972e-05
20650.0 3.1245e-05
20670.0 3.1557e-05
20690.0 3.1875e-05
20710.0 3.2204e-05
20730.0 3.2559e-05
20750.0 3.293e-05
20770.0 3.3294e-05
20790.0 3.3677e-05
20810.0 3.4081e-05
20830.0 3.4484e-05
20850.0 3.4889e-05
20870.0 3.5322e-05
20890.0 3.5764e-05
20910.0 3.619e-05
20930.0 3.6632e-05
20950.0 3.709e-05
20970.0 3.7537e-05
20990.0 3.7977e-05
21010.0 3.8441e-05
21030.0 3.8894e-05
21050.0 3.9326e-05
21070.0 3.9757e-05
21090.0 4.019e-05
21110.0 4.0585e-05
21130.0 4.0956e-05
21150.0 4.1315e-05
21170.0 4.1641e-05
21190.0 4.1921e-05
21210.0 4.2173e-05
21230.0 4.2382e-05
21250.0 4.2531e-05
21270.0 4.2626e-05
21290.0 4.2661e-05
21310.0 4.2627e-05
21330.0 4.2527e-05
21350.0 4.235e-05
21370.0 4.2091e-05
21390.0 4.1761e-05
21410.0 4.1358e-05
21430.0 4.0847e-05
21450.0 4.0273e-05
21470.0 3.9648e-05
21490.0 3.8941e-05
21510.0 3.8166e-05
21530.0 3.7378e-05
21550.0 3.6553e-05
21570.0 3.5673e-05
21590.0 3.4808e-05
21610.0 3.3972e-05
21630.0 3.3134e-05
21650.0 3.2316e-05
21670.0 3.1608e-05
21690.0 3.0954e-05
21710.0 3.0365e-05
21730.0 2.9883e-05
21750.0 2.951e-05
21770.0 2.9227e-05
21790.0 2.9064e-05
21810.0 2.9019e-05
21830.0 2.9083e-05
21850.0 2.9265e-05
21870.0 2.9548e-05
21890.0 2.9915e-05
21910.0 3.0384e-05
21930.0 3.0935e-05
21950.0 3.1532e-05
21970.0 3.2193e-05
21990.0 3.2936e-05
22010.0 3.3677e-05
22030.0 3.443e-05
22050.0 3.5222e-05
22070.0 3.6017e-05
22090.0 3.677e-05
22110.0 3.7529e-05
22130.0 3.8288e-05
22150.0 3.8996e-05
22170.0 3.9663e-05
22190.0 4.0325e-05
22210.0 4.094e-05
22230.0 4.1482e-05
22250.0 4.1992e-05
22270.0 4.2461e-05
22290.0 4.2863e-05
22310.0 4.3208e-05
22330.0 4.3511e-05
22350.0 4.3746e-05
22370.0 4.3911e-05
22390.0 4.4014e-05
22410.0 4.4047e-05
22430.0 4.4005e-05
22450.0 4.3892e-05
22470.0 4.3696e-05
22490.0 4.3421e-05
22510.0 4.3078e-05
22530.0 4.2639e-05
22550.0 4.2105e-05
22570.0 4.1513e-05
22590.0 4.0846e-05
22610.0 4.0078e-05
22630.0 3.9246e-05
22650.0 3.8387e-05
22670.0 3.7436e-05
22690.0 3.6422e-05
22710.0 3.5398e-05
22730.0 3.4344e-05
22750.0 3.32e-05
