#lamb flux
1010.0 1.2782e-06
1030.0 1.3016e-06
1050.0 1.3991e-06
1070.0 1.5048e-06
1090.0 1.6186e-06
1110.0 1.7209e-06
1130.0 1.8103e-06
1150.0 1.8956e-06
1170.0 1.9755e-06
1190.0 2.0385e-06
1210.0 2.0985e-06
1230.0 2.1602e-06
1250.0 2.2179e-06
1270.0 2.2732e-06
1290.0 2.3396e-06
1310.0 2.4112e-06
1330.0 2.4851e-06
1350.0 2.57e-06
1370.0 2.6704e-06
1390.0 2.7812e-06
1410.0 2.9039e-06
1430.0 3.0496e-06
1450.0 3.215e-06
1470.0 3.3981e-06
1490.0 3.6067e-06
1510.0 3.8495e-06
1530.0 4.1146e-06
1550.0 4.4094e-06
1570.0 4.7434e-06
1590.0 5.1147e-06
1610.0 5.5181e-06
1630.0 5.9673e-06
1650.0 6.4643e-06
1670.0 7e-06
1690.0 7.5779e-06
1710.0 8.2082e-06
1730.0 8.8842e-06
1750.0 9.5882e-06
1770.0 1.0337e-05
1790.0 1.1125e-05
1810.0 1.1933e-05
1830.0 1.2757e-05
1850.0 1.3612e-05
1870.0 1.4464e-05
1890.0 1.5301e-05
1910.0 1.6129e-05
1930.0 1.694e-05
1950.0 1.77e-05
1970.0 1.841e-05
1990.0 1.9079e-05
2010.0 1.968e-05
2030.0 2.02e-05
2050.0 2.0657e-05
2070.0 2.1046e-05
2090.0 2.1336e-05
2110.0 2.1547e-05
2130.0 2.1692e-05
2150.0 2.1758e-05
2170.0 2.1739e-05
2190.0 2.1671e-05
2210.0 2.1548e-05
2230.0 2.1361e-05
2250.0 2.1132e-05
2270.0 2.0881e-05
2290.0 2.0593e-05
2310.0 2.0273e-05
2330.0 1.9949e-05
2350.0 1.9621e-05
2370.0 1.9282e-05
2390.0 1.8953e-05
2410.0 1.8652e-05
2430.0 1.8364e-05
2450.0 1.8102e-05
2470.0 1.7888e-05
2490.0 1.7731e-05
2510.0 1.7622e-05
2530.0 1.7617e-05
2550.0 1.7785e-05
2570.0 1.8184e-05
2590.0 1.8896e-05
2610.0 2.0154e-05
2630.0 2.201e-05
2650.0 2.4377e-05
2670.0 2.733e-05
2690.0 3.0834e-05
2710.0 3.4499e-05
2730.0 3.8162e-05
2750.0 4.1981e-05
2770.0 4.572e-05
2790.0 4.931e-05
2810.0 5.3001e-05
2830.0 5.702e-05
2850.0 6.1065e-05
2870.0 6.5343e-05
2890.0 7.0044e-05
2910.0 7.5041e-05
2930.0 8.0159e-05
2950.0 8.5717e-05
2970.0 9.1677e-05
2990.0 9.7799e-05
3010.0 0.00010419
3030.0 0.00011104
3050.0 0.00011815
3070.0 0.00012515
3090.0 0.00013224
3110.0 0.00013903
3130.0 0.00014496
3150.0 0.00014976
3170.0 0.000153
3190.0 0.0001545
3210.0 0.00015463
3230.0 0.00015376
3250.0 0.00015263
3270.0 0.0001523
3290.0 0.00015298
3310.0 0.00015475
3330.0 0.00015763
3350.0 0.00016122
3370.0 0.00016549
3390.0 0.00017105
3410.0 0.00017589
3430.0 0.00018063
3450.0 0.00018534
3470.0 0.00019098
3490.0 0.00020501
3510.0 0.00023887
3530.0 0.0002869
3550.0 0.00033131
3570.0 0.00036104
3590.0 0.0003759
3610.0 0.00037406
3630.0 0.0003641
3650.0 0.00039189
3670.0 0.00046166
3690.0 0.00052113
3710.0 0.0005584
3730.0 0.00059197
3750.0 0.0006257
3770.0 0.00061746
3790.0 0.00057831
3810.0 0.00053913
3830.0 0.000504
3850.0 0.00049972
3870.0 0.00054233
3890.0 0.00058895
3910.0 0.00062019
3930.0 0.00064771
3950.0 0.0007151
3970.0 0.00077364
3990.0 0.00073882
4010.0 0.00064679
4030.0 0.00056464
4050.0 0.00054036
4070.0 0.00054594
4090.0 0.00053959
4110.0 0.00052991
4130.0 0.00052202
4150.0 0.0005255
4170.0 0.00056629
4190.0 0.00062014
4210.0 0.00061649
4230.0 0.00058833
4250.0 0.0005779
4270.0 0.00058504
4290.0 0.00061739
4310.0 0.00064912
4330.0 0.00061896
4350.0 0.00053675
4370.0 0.00046948
4390.0 0.00041868
4410.0 0.00037545
4430.0 0.00037239
4450.0 0.00040217
4470.0 0.00042825
4490.0 0.00046167
4510.0 0.00052889
4530.0 0.00067532
4550.0 0.0008765
4570.0 0.00099972
4590.0 0.0010681
4610.0 0.001186
4630.0 0.0012782
4650.0 0.0012016
4670.0 0.0009889
4690.0 0.00080435
4710.0 0.00071885
4730.0 0.00069126
4750.0 0.00064174
4770.0 0.00059868
4790.0 0.00063024
4810.0 0.00069029
4830.0 0.00070067
4850.0 0.00065738
4870.0 0.00064632
4890.0 0.0006945
4910.0 0.0007397
4930.0 0.00074885
4950.0 0.00072627
4970.0 0.00067868
4990.0 0.00061013
5010.0 0.00055007
5030.0 0.00051417
5050.0 0.00049614
5070.0 0.0004815
5090.0 0.00046463
5110.0 0.00045842
5130.0 0.00045922
5150.0 0.00047631
5170.0 0.00052746
5190.0 0.00059679
5210.0 0.00067855
5230.0 0.00073949
5250.0 0.00077669
5270.0 0.00082659
5290.0 0.00088815
5310.0 0.00091925
5330.0 0.00089654
5350.0 0.00085361
5370.0 0.00085655
5390.0 0.00092256
5410.0 0.0010151
5430.0 0.0010838
5450.0 0.0011141
5470.0 0.0011096
5490.0 0.001082
5510.0 0.0010613
5530.0 0.0010583
5550.0 0.0010661
5570.0 0.001069
5590.0 0.0010535
5610.0 0.00102
5630.0 0.00096071
5650.0 0.00088697
5670.0 0.00083963
5690.0 0.00082508
5710.0 0.00082382
5730.0 0.00082505
5750.0 0.00081903
5770.0 0.00081129
5790.0 0.00081904
5810.0 0.00082685
5830.0 0.00083859
5850.0 0.00085078
5870.0 0.00084068
5890.0 0.00081409
5910.0 0.00077406
5930.0 0.00070375
5950.0 0.00063902
5970.0 0.00061946
5990.0 0.00063933
6010.0 0.00065429
6030.0 0.00063293
6050.0 0.00060933
6070.0 0.00063221
6090.0 0.00068552
6110.0 0.00071775
6130.0 0.0007027
6150.0 0.0006649
6170.0 0.00063788
6190.0 0.00061491
6210.0 0.00057959
6230.0 0.00053571
6250.0 0.00051059
6270.0 0.000516
6290.0 0.00052873
6310.0 0.00055697
6330.0 0.000607
6350.0 0.00066433
6370.0 0.00069836
6390.0 0.00071043
6410.0 0.00072157
6430.0 0.0007312
6450.0 0.00074264
6470.0 0.00075896
6490.0 0.00077624
6510.0 0.00079033
6530.0 0.00079388
6550.0 0.00078794
6570.0 0.00076498
6590.0 0.00072584
6610.0 0.00069678
6630.0 0.00068078
6650.0 0.00065905
6670.0 0.00062792
6690.0 0.00060053
6710.0 0.00058691
6730.0 0.00057807
6750.0 0.00056815
6770.0 0.00055969
6790.0 0.00055166
6810.0 0.00053843
6830.0 0.00052927
6850.0 0.00054067
6870.0 0.00054993
6890.0 0.0005433
6910.0 0.00053274
6930.0 0.00052366
6950.0 0.00051164
6970.0 0.00049207
6990.0 0.00047334
7010.0 0.0004641
7030.0 0.00045804
7050.0 0.00044155
7070.0 0.00041746
7090.0 0.00040939
7110.0 0.00042329
7130.0 0.00045095
7150.0 0.00047866
7170.0 0.00049741
7190.0 0.00049656
7210.0 0.00047631
7230.0 0.0004629
7250.0 0.00046559
7270.0 0.0004645
7290.0 0.00046059
7310.0 0.00046593
7330.0 0.00048178
7350.0 0.00050287
7370.0 0.00051596
7390.0 0.00051748
7410.0 0.00051045
7430.0 0.00049504
7450.0 0.00047524
7470.0 0.00045592
7490.0 0.0004402
7510.0 0.0004266
7530.0 0.00041937
7550.0 0.00041993
7570.0 0.00042178
7590.0 0.00042484
7610.0 0.00042261
7630.0 0.00041906
7650.0 0.00042473
7670.0 0.00043653
7690.0 0.00044911
7710.0 0.0004612
7730.0 0.00047139
7750.0 0.00048333
7770.0 0.0004936
7790.0 0.00050076
7810.0 0.00050195
7830.0 0.00049555
7850.0 0.00048007
7870.0 0.00045648
7890.0 0.00043255
7910.0 0.00041878
7930.0 0.00040985
7950.0 0.00039951
7970.0 0.00039133
7990.0 0.00038971
8010.0 0.00036857
8030.0 0.0003637
8050.0 0.00035801
8070.0 0.00035086
8090.0 0.00034383
8110.0 0.00034188
8130.0 0.00034186
8150.0 0.00033887
8170.0 0.00033462
8190.0 0.00032405
8210.0 0.000304
8230.0 0.00028363
8250.0 0.00027211
8270.0 0.00026164
8290.0 0.00024834
8310.0 0.00023872
8330.0 0.00023359
8350.0 0.00022636
8370.0 0.00022482
8390.0 0.0002339
8410.0 0.00024753
8430.0 0.00026397
8450.0 0.00028216
8470.0 0.00029395
8490.0 0.00030497
8510.0 0.00031379
8530.0 0.00032229
8550.0 0.00032967
8570.0 0.00033447
8590.0 0.00033829
8610.0 0.00034542
8630.0 0.00034718
8650.0 0.00033923
8670.0 0.00033829
8690.0 0.00034437
8710.0 0.00035137
8730.0 0.00035079
8750.0 0.00034195
8770.0 0.00033831
8790.0 0.00033583
8810.0 0.00032802
8830.0 0.00030438
8850.0 0.00027566
8870.0 0.00025495
8890.0 0.00024495
8910.0 0.00023219
8930.0 0.00021509
8950.0 0.00020274
8970.0 0.00019943
8990.0 0.00020086
9010.0 0.00020051
9030.0 0.00019887
9050.0 0.00019743
9070.0 0.0001963
9090.0 0.00019523
9110.0 0.00019417
9130.0 0.00019311
9150.0 0.00019206
9170.0 0.00019101
9190.0 0.00018998
9210.0 0.00018897
9230.0 0.00018794
9250.0 0.00018692
9270.0 0.00018591
9290.0 0.00018491
9310.0 0.00018392
9330.0 0.00018293
9350.0 0.00018195
9370.0 0.00018098
9390.0 0.00018002
9410.0 0.00017906
9430.0 0.00017808
9450.0 0.00017701
9470.0 0.00017598
9490.0 0.00017517
9510.0 0.00017429
9530.0 0.00017342
9550.0 0.00017253
9570.0 0.00017163
9590.0 0.00017074
9610.0 0.00016985
9630.0 0.00016896
9650.0 0.00016807
9670.0 0.00016721
9690.0 0.00016633
9710.0 0.00016546
9730.0 0.0001646
9750.0 0.00016375
9770.0 0.00016288
9790.0 0.00016203
9810.0 0.00016119
9830.0 0.00016034
9850.0 0.00015944
9870.0 0.00015862
9890.0 0.00015781
9910.0 0.00015698
9930.0 0.00015616
9950.0 0.00015532
9970.0 0.00015449
9990.0 0.00015366
10010.0 0.00015276
10030.0 0.00015191
10050.0 0.00015113
10070.0 0.00015035
10090.0 0.00014956
10110.0 0.00014869
10130.0 0.00014753
10150.0 0.00014677
10170.0 0.00014607
10190.0 0.0001453
10210.0 0.00014453
10230.0 0.00014376
10250.0 0.00014293
10270.0 0.00014209
10290.0 0.00014128
10310.0 0.00014044
10330.0 0.00013955
10350.0 0.00013871
10370.0 0.00013787
10390.0 0.00013699
10410.0 0.00013611
10430.0 0.00013528
10450.0 0.0001344
10470.0 0.00013349
10490.0 0.00013262
10510.0 0.00013175
10530.0 0.0001308
10550.0 0.00012989
10570.0 0.000129
10590.0 0.00012808
10610.0 0.00012713
10630.0 0.00012622
10650.0 0.00012529
10670.0 0.00012431
10690.0 0.00012335
10710.0 0.00012241
10730.0 0.00012142
10750.0 0.00012039
10770.0 0.00011943
10790.0 0.00011845
10810.0 0.00011741
10830.0 0.0001164
10850.0 0.00011541
10870.0 0.00011435
10890.0 0.00011328
10910.0 0.00011225
10930.0 0.00011121
10950.0 0.00011013
10970.0 0.00010909
10990.0 0.00010809
11010.0 0.00010302
11030.0 0.00010193
11050.0 0.00010091
11070.0 9.9923e-05
11090.0 9.8914e-05
11110.0 9.8001e-05
11130.0 9.7144e-05
11150.0 9.6305e-05
11170.0 9.5517e-05
11190.0 9.4819e-05
11210.0 9.4159e-05
11230.0 9.3541e-05
11250.0 9.3003e-05
11270.0 9.253e-05
11290.0 9.2092e-05
11310.0 9.1706e-05
11330.0 9.1386e-05
11350.0 9.1093e-05
11370.0 9.0824e-05
11390.0 9.0583e-05
11410.0 9.0356e-05
11430.0 9.012e-05
11450.0 8.9881e-05
11470.0 8.9634e-05
11490.0 8.936e-05
11510.0 8.9047e-05
11530.0 8.8711e-05
11550.0 8.834e-05
11570.0 8.7908e-05
11590.0 8.7431e-05
11610.0 8.6918e-05
11630.0 8.6332e-05
11650.0 8.5668e-05
11670.0 8.4972e-05
11690.0 8.4213e-05
11710.0 8.3361e-05
11730.0 8.2448e-05
11750.0 8.1505e-05
11770.0 8.0459e-05
11790.0 7.9331e-05
11810.0 7.8176e-05
11830.0 7.6967e-05
11850.0 7.5643e-05
11870.0 7.4312e-05
11890.0 7.2993e-05
11910.0 7.1615e-05
11930.0 7.0214e-05
11950.0 6.8871e-05
11970.0 6.7534e-05
11990.0 6.6172e-05
12010.0 6.4883e-05
12030.0 6.3664e-05
12050.0 6.2462e-05
12070.0 6.1292e-05
12090.0 6.0247e-05
12110.0 5.9245e-05
12130.0 5.828e-05
12150.0 5.7401e-05
12170.0 5.6609e-05
12190.0 5.5844e-05
12210.0 5.5163e-05
12230.0 5.4578e-05
12250.0 5.4063e-05
12270.0 5.3616e-05
12290.0 5.3258e-05
12310.0 5.2981e-05
12330.0 5.2766e-05
12350.0 5.262e-05
12370.0 5.2535e-05
12390.0 5.2501e-05
12410.0 5.2517e-05
12430.0 5.2564e-05
12450.0 5.2638e-05
12470.0 5.2737e-05
12490.0 5.2852e-05
12510.0 5.2965e-05
12530.0 5.3086e-05
12550.0 5.3209e-05
12570.0 5.3315e-05
12590.0 5.3404e-05
12610.0 5.3477e-05
12630.0 5.3519e-05
12650.0 5.3518e-05
12670.0 5.3479e-05
12690.0 5.3389e-05
12710.0 5.3247e-05
12730.0 5.3051e-05
12750.0 5.2788e-05
12770.0 5.2467e-05
12790.0 5.2098e-05
12810.0 5.1672e-05
12830.0 5.1188e-05
12850.0 5.0684e-05
12870.0 5.0155e-05
12890.0 4.9589e-05
12910.0 4.9018e-05
12930.0 4.8459e-05
12950.0 4.7886e-05
12970.0 4.7314e-05
12990.0 4.6781e-05
13010.0 4.6265e-05
13030.0 4.5756e-05
13050.0 4.5275e-05
13070.0 4.4829e-05
13090.0 4.4389e-05
13110.0 4.3967e-05
13130.0 4.3577e-05
13150.0 4.3204e-05
13170.0 4.2835e-05
13190.0 4.2494e-05
13210.0 4.2179e-05
13230.0 4.1873e-05
13250.0 4.1581e-05
13270.0 4.1313e-05
13290.0 4.1056e-05
13310.0 4.0804e-05
13330.0 4.0566e-05
13350.0 4.0338e-05
13370.0 4.0107e-05
13390.0 3.9872e-05
13410.0 3.9643e-05
13430.0 3.9403e-05
13450.0 3.9147e-05
13470.0 3.8882e-05
13490.0 3.8608e-05
13510.0 3.8302e-05
13530.0 3.7979e-05
13550.0 3.765e-05
13570.0 3.7299e-05
13590.0 3.6922e-05
13610.0 3.6542e-05
13630.0 3.616e-05
13650.0 3.5753e-05
13670.0 3.5342e-05
13690.0 3.494e-05
13710.0 3.453e-05
13730.0 3.4103e-05
13750.0 3.3699e-05
13770.0 3.3301e-05
13790.0 3.2896e-05
13810.0 3.2498e-05
13830.0 3.2122e-05
13850.0 3.1742e-05
13870.0 3.1364e-05
13890.0 3.1009e-05
13910.0 3.0669e-05
13930.0 3.033e-05
13950.0 3.0009e-05
13970.0 2.972e-05
13990.0 2.9439e-05
14010.0 2.9171e-05
14030.0 2.893e-05
14050.0 2.8706e-05
14070.0 2.8487e-05
14090.0 2.8289e-05
14110.0 2.8108e-05
14130.0 2.7935e-05
14150.0 2.7768e-05
14170.0 2.7617e-05
14190.0 2.7472e-05
14210.0 2.7327e-05
14230.0 2.7188e-05
14250.0 2.7057e-05
14270.0 2.6922e-05
14290.0 2.6786e-05
14310.0 2.6658e-05
14330.0 2.6529e-05
14350.0 2.6397e-05
14370.0 2.6267e-05
14390.0 2.6143e-05
14410.0 2.6014e-05
14430.0 2.5886e-05
14450.0 2.5764e-05
14470.0 2.5643e-05
14490.0 2.5519e-05
14510.0 2.5402e-05
14530.0 2.529e-05
14550.0 2.5174e-05
14570.0 2.5057e-05
14590.0 2.4943e-05
14610.0 2.4823e-05
14630.0 2.4693e-05
14650.0 2.4564e-05
14670.0 2.4434e-05
14690.0 2.4298e-05
14710.0 2.4163e-05
14730.0 2.4046e-05
14750.0 2.394e-05
14770.0 2.3854e-05
14790.0 2.3802e-05
14810.0 2.3788e-05
14830.0 2.3819e-05
14850.0 2.3906e-05
14870.0 2.4044e-05
14890.0 2.4238e-05
14910.0 2.4486e-05
14930.0 2.4763e-05
14950.0 2.5052e-05
14970.0 2.5353e-05
14990.0 2.5631e-05
15010.0 2.5867e-05
15030.0 2.6064e-05
15050.0 2.6219e-05
15070.0 2.6327e-05
15090.0 2.6405e-05
15110.0 2.6464e-05
15130.0 2.6508e-05
15150.0 2.6546e-05
15170.0 2.658e-05
15190.0 2.6613e-05
15210.0 2.6646e-05
15230.0 2.668e-05
15250.0 2.6714e-05
15270.0 2.6749e-05
15290.0 2.6786e-05
15310.0 2.6823e-05
15330.0 2.686e-05
15350.0 2.6899e-05
15370.0 2.6939e-05
15390.0 2.6979e-05
15410.0 2.702e-05
15430.0 2.7062e-05
15450.0 2.7104e-05
15470.0 2.7147e-05
15490.0 2.7191e-05
15510.0 2.7236e-05
15530.0 2.7282e-05
15550.0 2.7328e-05
15570.0 2.7375e-05
15590.0 2.7423e-05
15610.0 2.7471e-05
15630.0 2.752e-05
15650.0 2.757e-05
15670.0 2.762e-05
15690.0 2.7671e-05
15710.0 2.7723e-05
15730.0 2.7775e-05
15750.0 2.7827e-05
15770.0 2.7881e-05
15790.0 2.7935e-05
15810.0 2.7989e-05
15830.0 2.8044e-05
15850.0 2.81e-05
15870.0 2.8156e-05
15890.0 2.8212e-05
15910.0 2.827e-05
15930.0 2.8327e-05
15950.0 2.8385e-05
15970.0 2.8443e-05
15990.0 2.8502e-05
16010.0 2.8561e-05
16030.0 2.862e-05
16050.0 2.8681e-05
16070.0 2.8741e-05
16090.0 2.8801e-05
16110.0 2.8862e-05
16130.0 2.8924e-05
16150.0 2.8985e-05
16170.0 2.9047e-05
16190.0 2.9109e-05
16210.0 2.9171e-05
16230.0 2.9233e-05
16250.0 2.9296e-05
16270.0 2.9359e-05
16290.0 2.9422e-05
16310.0 2.9485e-05
16330.0 2.9548e-05
16350.0 2.9611e-05
16370.0 2.9674e-05
16390.0 2.9738e-05
16410.0 2.9801e-05
16430.0 2.9864e-05
16450.0 2.9928e-05
16470.0 2.9991e-05
16490.0 3.0055e-05
16510.0 3.0118e-05
16530.0 3.0181e-05
16550.0 3.0244e-05
16570.0 3.0307e-05
16590.0 3.0369e-05
16610.0 3.0432e-05
16630.0 3.0494e-05
16650.0 3.0556e-05
16670.0 3.0618e-05
16690.0 3.068e-05
16710.0 3.0741e-05
16730.0 3.0802e-05
16750.0 3.0862e-05
16770.0 3.0923e-05
16790.0 3.0982e-05
16810.0 3.1042e-05
16830.0 3.1101e-05
16850.0 3.1159e-05
16870.0 3.1217e-05
16890.0 3.1275e-05
16910.0 3.1332e-05
16930.0 3.1388e-05
16950.0 3.1444e-05
16970.0 3.15e-05
16990.0 3.1554e-05
17010.0 3.1608e-05
17030.0 3.1662e-05
17050.0 3.1715e-05
17070.0 3.1767e-05
17090.0 3.1818e-05
17110.0 3.1869e-05
17130.0 3.1918e-05
17150.0 3.1967e-05
17170.0 3.2015e-05
17190.0 3.2063e-05
17210.0 3.2109e-05
17230.0 3.2155e-05
17250.0 3.2199e-05
17270.0 3.2243e-05
17290.0 3.2286e-05
17310.0 3.2328e-05
17330.0 3.2368e-05
17350.0 3.2408e-05
17370.0 3.2447e-05
17390.0 3.2484e-05
17410.0 3.2521e-05
17430.0 3.2556e-05
17450.0 3.2591e-05
17470.0 3.2624e-05
17490.0 3.2656e-05
17510.0 3.2687e-05
17530.0 3.2716e-05
17550.0 3.2745e-05
17570.0 3.2772e-05
17590.0 3.2798e-05
17610.0 3.2822e-05
17630.0 3.2846e-05
17650.0 3.2868e-05
17670.0 3.2889e-05
17690.0 3.2908e-05
17710.0 3.2926e-05
17730.0 3.2943e-05
17750.0 3.2957e-05
17770.0 3.2971e-05
17790.0 3.2984e-05
17810.0 3.2995e-05
17830.0 3.3004e-05
17850.0 3.3012e-05
17870.0 3.3019e-05
17890.0 3.3023e-05
17910.0 3.3027e-05
17930.0 3.3029e-05
17950.0 3.3029e-05
17970.0 3.3028e-05
17990.0 3.3025e-05
18010.0 3.3021e-05
18030.0 3.3015e-05
18050.0 3.3007e-05
18070.0 3.2999e-05
18090.0 3.2988e-05
18110.0 3.2975e-05
18130.0 3.2962e-05
18150.0 3.2946e-05
18170.0 3.2929e-05
18190.0 3.291e-05
18210.0 3.289e-05
18230.0 3.2867e-05
18250.0 3.2843e-05
18270.0 3.2818e-05
18290.0 3.279e-05
18310.0 3.2761e-05
18330.0 3.2731e-05
18350.0 3.2699e-05
18370.0 3.2664e-05
18390.0 3.2629e-05
18410.0 3.2591e-05
18430.0 3.2552e-05
18450.0 3.2511e-05
18470.0 3.2469e-05
18490.0 3.2425e-05
18510.0 3.2379e-05
18530.0 3.2331e-05
18550.0 3.2282e-05
18570.0 3.2231e-05
18590.0 3.2178e-05
18610.0 3.2124e-05
18630.0 3.2069e-05
18650.0 3.2011e-05
18670.0 3.1951e-05
18690.0 3.1891e-05
18710.0 3.1828e-05
18730.0 3.1764e-05
18750.0 3.1698e-05
18770.0 3.1631e-05
18790.0 3.1561e-05
18810.0 3.149e-05
18830.0 3.1418e-05
18850.0 3.1344e-05
18870.0 3.1268e-05
18890.0 3.1191e-05
18910.0 3.1113e-05
18930.0 3.1032e-05
18950.0 3.0951e-05
18970.0 3.0868e-05
18990.0 3.0783e-05
19010.0 3.0696e-05
19030.0 3.0608e-05
19050.0 3.0519e-05
19070.0 3.0428e-05
19090.0 3.0336e-05
19110.0 3.0243e-05
19130.0 3.0148e-05
19150.0 3.0051e-05
19170.0 2.9954e-05
19190.0 2.9854e-05
19210.0 2.9754e-05
19230.0 2.9652e-05
19250.0 2.9549e-05
19270.0 2.9444e-05
19290.0 2.9339e-05
19310.0 2.9232e-05
19330.0 2.9124e-05
19350.0 2.9014e-05
19370.0 2.8903e-05
19390.0 2.8792e-05
19410.0 2.8679e-05
19430.0 2.8564e-05
19450.0 2.845e-05
19470.0 2.8333e-05
19490.0 2.8216e-05
19510.0 2.8097e-05
19530.0 2.7978e-05
19550.0 2.7857e-05
19570.0 2.7735e-05
19590.0 2.7613e-05
19610.0 2.749e-05
19630.0 2.7365e-05
19650.0 2.724e-05
19670.0 2.7114e-05
19690.0 2.6987e-05
19710.0 2.6859e-05
19730.0 2.6731e-05
19750.0 2.6601e-05
19770.0 2.6471e-05
19790.0 2.634e-05
19810.0 2.6208e-05
19830.0 2.6075e-05
19850.0 2.594e-05
19870.0 2.5803e-05
19890.0 2.5662e-05
19910.0 2.5511e-05
19930.0 2.5348e-05
19950.0 2.5168e-05
19970.0 2.4959e-05
19990.0 2.4717e-05
20010.0 2.4447e-05
20030.0 2.4137e-05
20050.0 2.3788e-05
20070.0 2.3419e-05
20090.0 2.3032e-05
20110.0 2.2615e-05
20130.0 2.22e-05
20150.0 2.1793e-05
20170.0 2.138e-05
20190.0 2.0968e-05
20210.0 2.0574e-05
20230.0 2.0188e-05
20250.0 1.98e-05
20270.0 1.9429e-05
20290.0 1.9076e-05
20310.0 1.8728e-05
20330.0 1.8387e-05
20350.0 1.8074e-05
20370.0 1.7773e-05
20390.0 1.7482e-05
20410.0 1.7209e-05
20430.0 1.6958e-05
20450.0 1.6713e-05
20470.0 1.6486e-05
20490.0 1.6279e-05
20510.0 1.6085e-05
20530.0 1.5903e-05
20550.0 1.5737e-05
20570.0 1.5586e-05
20590.0 1.5445e-05
20610.0 1.5315e-05
20630.0 1.5196e-05
20650.0 1.5084e-05
20670.0 1.498e-05
20690.0 1.4882e-05
20710.0 1.4788e-05
20730.0 1.4698e-05
20750.0 1.461e-05
20770.0 1.4521e-05
20790.0 1.4432e-05
20810.0 1.4342e-05
20830.0 1.4248e-05
20850.0 1.415e-05
20870.0 1.4048e-05
20890.0 1.394e-05
20910.0 1.3827e-05
20930.0 1.3708e-05
20950.0 1.3582e-05
20970.0 1.345e-05
20990.0 1.3314e-05
21010.0 1.3169e-05
21030.0 1.3018e-05
21050.0 1.2865e-05
21070.0 1.2706e-05
21090.0 1.254e-05
21110.0 1.2374e-05
21130.0 1.2206e-05
21150.0 1.2034e-05
21170.0 1.186e-05
21190.0 1.1689e-05
21210.0 1.1515e-05
21230.0 1.1338e-05
21250.0 1.1167e-05
21270.0 1.0997e-05
21290.0 1.0825e-05
21310.0 1.0657e-05
21330.0 1.0495e-05
21350.0 1.0334e-05
21370.0 1.0174e-05
21390.0 1.0021e-05
21410.0 9.8727e-06
21430.0 9.7244e-06
21450.0 9.5834e-06
21470.0 9.4491e-06
21490.0 9.3181e-06
21510.0 9.1917e-06
21530.0 9.0725e-06
21550.0 8.9579e-06
21570.0 8.8469e-06
21590.0 8.7417e-06
21610.0 8.6418e-06
21630.0 8.5453e-06
21650.0 8.4521e-06
21670.0 8.364e-06
21690.0 8.2786e-06
21710.0 8.1953e-06
21730.0 8.1145e-06
21750.0 8.0359e-06
21770.0 7.958e-06
21790.0 7.8812e-06
21810.0 7.8054e-06
21830.0 7.7299e-06
21850.0 7.6541e-06
21870.0 7.5785e-06
21890.0 7.503e-06
21910.0 7.4265e-06
21930.0 7.3495e-06
21950.0 7.2724e-06
21970.0 7.1944e-06
21990.0 7.1147e-06
22010.0 7.035e-06
22030.0 6.9548e-06
22050.0 6.873e-06
22070.0 6.7902e-06
22090.0 6.7076e-06
22110.0 6.6234e-06
22130.0 6.5374e-06
22150.0 6.4513e-06
22170.0 6.3647e-06
22190.0 6.2755e-06
22210.0 6.1854e-06
22230.0 6.0963e-06
22250.0 6.0054e-06
22270.0 5.9128e-06
22290.0 5.821e-06
22310.0 5.729e-06
22330.0 5.6344e-06
22350.0 5.5401e-06
22370.0 5.447e-06
22390.0 5.3528e-06
22410.0 5.2569e-06
22430.0 5.1637e-06
22450.0 5.0711e-06
22470.0 4.9772e-06
22490.0 4.8844e-06
22510.0 4.7942e-06
22530.0 4.7029e-06
22550.0 4.6119e-06
22570.0 4.5245e-06
22590.0 4.4385e-06
22610.0 4.3528e-06
22630.0 4.2697e-06
22650.0 4.1906e-06
