#lamb flux
1010.0 4.379e-05
1030.0 4.3971e-05
1050.0 4.4171e-05
1070.0 4.5206e-05
1090.0 4.8053e-05
1110.0 5.0265e-05
1130.0 5.1844e-05
1150.0 5.3109e-05
1170.0 5.4033e-05
1190.0 5.4304e-05
1210.0 5.4365e-05
1230.0 5.4347e-05
1250.0 5.4117e-05
1270.0 5.3702e-05
1290.0 5.3433e-05
1310.0 5.3144e-05
1330.0 5.2768e-05
1350.0 5.2509e-05
1370.0 5.2447e-05
1390.0 5.2476e-05
1410.0 5.2639e-05
1430.0 5.3152e-05
1450.0 5.3953e-05
1470.0 5.5023e-05
1490.0 5.6511e-05
1510.0 5.8567e-05
1530.0 6.1022e-05
1550.0 6.4029e-05
1570.0 6.7763e-05
1590.0 7.224e-05
1610.0 7.7454e-05
1630.0 8.3707e-05
1650.0 9.1078e-05
1670.0 9.9541e-05
1690.0 0.00010927
1710.0 0.00012055
1730.0 0.00013346
1750.0 0.0001479
1770.0 0.00016431
1790.0 0.00018285
1810.0 0.0002034
1830.0 0.00022612
1850.0 0.00025148
1870.0 0.00027911
1890.0 0.00030891
1910.0 0.00034116
1930.0 0.00037583
1950.0 0.00041222
1970.0 0.00045029
1990.0 0.00049021
2010.0 0.00053117
2030.0 0.00057252
2050.0 0.00061449
2070.0 0.00065663
2090.0 0.00069748
2110.0 0.00073715
2130.0 0.00077562
2150.0 0.00081185
2170.0 0.00084511
2190.0 0.00087614
2210.0 0.0009043
2230.0 0.00092876
2250.0 0.0009499
2270.0 0.0009684
2290.0 0.00098319
2310.0 0.00099427
2330.0 0.0010028
2350.0 0.0010088
2370.0 0.0010117
2390.0 0.0010126
2410.0 0.0010126
2430.0 0.0010109
2450.0 0.0010082
2470.0 0.0010059
2490.0 0.0010045
2510.0 0.0010036
2530.0 0.001006
2550.0 0.0010154
2570.0 0.0010346
2590.0 0.0010674
2610.0 0.0011252
2630.0 0.0012099
2650.0 0.0013168
2670.0 0.0014493
2690.0 0.0016057
2710.0 0.0017683
2730.0 0.0019302
2750.0 0.0021003
2770.0 0.0022676
2790.0 0.0024278
2810.0 0.0025918
2830.0 0.0027689
2850.0 0.0029416
2870.0 0.0031191
2890.0 0.0033102
2910.0 0.0035085
2930.0 0.0037062
2950.0 0.0039187
2970.0 0.0041441
2990.0 0.0043718
3010.0 0.004607
3030.0 0.0048586
3050.0 0.0051183
3070.0 0.0053713
3090.0 0.0056295
3110.0 0.0058803
3130.0 0.0061046
3150.0 0.0062966
3170.0 0.0064496
3190.0 0.0065567
3210.0 0.0066333
3230.0 0.0066972
3250.0 0.0067722
3270.0 0.0068864
3290.0 0.0070552
3310.0 0.0072923
3330.0 0.0075911
3350.0 0.0079322
3370.0 0.0083097
3390.0 0.0086976
3410.0 0.0090923
3430.0 0.0098908
3450.0 0.010482
3470.0 0.011003
3490.0 0.011172
3510.0 0.011025
3530.0 0.012493
3550.0 0.014862
3570.0 0.01634
3590.0 0.01746
3610.0 0.017607
3630.0 0.016702
3650.0 0.01795
3670.0 0.021472
3690.0 0.024127
3710.0 0.025192
3730.0 0.025789
3750.0 0.02713
3770.0 0.027192
3790.0 0.026062
3810.0 0.02453
3830.0 0.02288
3850.0 0.022816
3870.0 0.02421
3890.0 0.025577
3910.0 0.026635
3930.0 0.026956
3950.0 0.028765
3970.0 0.03073
3990.0 0.029605
4010.0 0.026445
4030.0 0.023486
4050.0 0.022608
4070.0 0.023536
4090.0 0.023727
4110.0 0.02306
4130.0 0.022769
4150.0 0.023373
4170.0 0.025801
4190.0 0.02794
4210.0 0.027065
4230.0 0.025263
4250.0 0.024292
4270.0 0.02374
4290.0 0.024162
4310.0 0.024885
4330.0 0.023699
4350.0 0.020847
4370.0 0.018455
4390.0 0.016813
4410.0 0.01552
4430.0 0.015526
4450.0 0.016889
4470.0 0.018262
4490.0 0.019874
4510.0 0.022483
4530.0 0.027504
4550.0 0.033197
4570.0 0.036615
4590.0 0.039155
4610.0 0.042101
4630.0 0.043527
4650.0 0.040546
4670.0 0.034016
4690.0 0.028913
4710.0 0.02716
4730.0 0.026254
4750.0 0.023526
4770.0 0.021347
4790.0 0.02217
4810.0 0.024092
4830.0 0.023989
4850.0 0.022114
4870.0 0.021661
4890.0 0.022598
4910.0 0.023642
4930.0 0.023615
4950.0 0.022961
4970.0 0.021871
4990.0 0.020102
5010.0 0.018463
5030.0 0.017532
5050.0 0.017101
5070.0 0.016811
5090.0 0.016542
5110.0 0.016517
5130.0 0.016772
5150.0 0.017714
5170.0 0.019561
5190.0 0.021805
5210.0 0.024163
5230.0 0.025612
5250.0 0.026371
5270.0 0.027737
5290.0 0.029067
5310.0 0.029396
5330.0 0.028311
5350.0 0.027048
5370.0 0.027062
5390.0 0.028534
5410.0 0.029958
5430.0 0.03046
5450.0 0.030297
5470.0 0.029427
5490.0 0.028354
5510.0 0.027816
5530.0 0.027947
5550.0 0.028375
5570.0 0.028664
5590.0 0.027826
5610.0 0.026249
5630.0 0.024701
5650.0 0.023486
5670.0 0.022745
5690.0 0.021834
5710.0 0.021138
5730.0 0.021456
5750.0 0.021419
5770.0 0.020979
5790.0 0.021173
5810.0 0.02167
5830.0 0.022136
5850.0 0.022309
5870.0 0.021856
5890.0 0.020929
5910.0 0.019867
5930.0 0.018354
5950.0 0.017272
5970.0 0.017254
5990.0 0.017803
6010.0 0.018004
6030.0 0.017368
6050.0 0.017108
6070.0 0.017767
6090.0 0.018648
6110.0 0.018975
6130.0 0.018327
6150.0 0.017259
6170.0 0.016556
6190.0 0.015861
6210.0 0.015118
6230.0 0.014554
6250.0 0.01438
6270.0 0.014752
6290.0 0.01542
6310.0 0.016278
6330.0 0.01722
6350.0 0.018002
6370.0 0.018353
6390.0 0.018389
6410.0 0.018582
6430.0 0.01881
6450.0 0.018873
6470.0 0.019115
6490.0 0.019408
6510.0 0.019488
6530.0 0.01928
6550.0 0.018734
6570.0 0.018046
6590.0 0.01752
6610.0 0.017131
6630.0 0.016789
6650.0 0.016212
6670.0 0.015527
6690.0 0.015014
6710.0 0.014697
6730.0 0.014599
6750.0 0.01442
6770.0 0.014131
6790.0 0.013911
6810.0 0.013736
6830.0 0.0137
6850.0 0.01371
6870.0 0.013604
6890.0 0.013519
6910.0 0.013236
6930.0 0.012927
6950.0 0.012855
6970.0 0.012638
6990.0 0.012244
7010.0 0.012057
7030.0 0.011906
7050.0 0.011638
7070.0 0.01132
7090.0 0.011094
7110.0 0.011211
7130.0 0.011647
7150.0 0.012145
7170.0 0.012467
7190.0 0.012373
7210.0 0.012133
7230.0 0.011976
7250.0 0.011817
7270.0 0.011715
7290.0 0.011564
7310.0 0.011489
7330.0 0.011689
7350.0 0.011918
7370.0 0.012039
7390.0 0.011921
7410.0 0.01163
7430.0 0.011489
7450.0 0.01136
7470.0 0.010807
7490.0 0.010404
7510.0 0.0099654
7530.0 0.009641
7550.0 0.0095957
7570.0 0.0097044
7590.0 0.0096429
7610.0 0.009543
7630.0 0.009498
7650.0 0.0094547
7670.0 0.0096305
7690.0 0.009976
7710.0 0.010386
7730.0 0.010696
7750.0 0.010999
7770.0 0.011147
7790.0 0.011114
7810.0 0.01094
7830.0 0.011051
7850.0 0.01103
7870.0 0.010667
7890.0 0.010278
7910.0 0.0099471
7930.0 0.0096113
7950.0 0.0093756
7970.0 0.0093356
7990.0 0.0094471
8010.0 0.009339
8030.0 0.0092263
8050.0 0.0090639
8070.0 0.0088859
8090.0 0.0087007
8110.0 0.0087072
8130.0 0.0087699
8150.0 0.0087505
8170.0 0.0086821
8190.0 0.0084976
8210.0 0.0080633
8230.0 0.0075148
8250.0 0.0071757
8270.0 0.0069591
8290.0 0.0068218
8310.0 0.0068379
8330.0 0.0069431
8350.0 0.0067897
8370.0 0.0066284
8390.0 0.0067449
8410.0 0.0070487
8430.0 0.0074952
8450.0 0.0079277
8470.0 0.0081003
8490.0 0.0082342
8510.0 0.0082675
8530.0 0.0083087
8550.0 0.0084014
8570.0 0.0084407
8590.0 0.0084776
8610.0 0.0087069
8630.0 0.0087965
8650.0 0.0086077
8670.0 0.0085982
8690.0 0.0086599
8710.0 0.0086415
8730.0 0.0085636
8750.0 0.008318
8770.0 0.0082061
8790.0 0.0081407
8810.0 0.0080388
8830.0 0.0075822
8850.0 0.0069735
8870.0 0.0065276
8890.0 0.0062741
8910.0 0.0059014
8930.0 0.0054913
8950.0 0.0052818
8970.0 0.0052517
8990.0 0.0052767
9010.0 0.0052495
9030.0 0.0052125
9050.0 0.0051782
9070.0 0.0051466
9090.0 0.0051154
9110.0 0.0050844
9130.0 0.0050534
9150.0 0.0050226
9170.0 0.0049918
9190.0 0.0049611
9210.0 0.0049303
9230.0 0.0049
9250.0 0.0048699
9270.0 0.0048397
9290.0 0.0048098
9310.0 0.0047799
9330.0 0.0047501
9350.0 0.0047205
9370.0 0.004691
9390.0 0.0046617
9410.0 0.0046324
9430.0 0.0046031
9450.0 0.0045729
9470.0 0.0045435
9490.0 0.004516
9510.0 0.0044879
9530.0 0.0044599
9550.0 0.0044318
9570.0 0.0044038
9590.0 0.004376
9610.0 0.0043482
9630.0 0.0043206
9650.0 0.0042931
9670.0 0.0042659
9690.0 0.0042387
9710.0 0.0042116
9730.0 0.0041848
9750.0 0.0041581
9770.0 0.0041314
9790.0 0.0041049
9810.0 0.0040786
9830.0 0.0040518
9850.0 0.0040222
9870.0 0.0039971
9890.0 0.0039725
9910.0 0.0039476
9930.0 0.003922
9950.0 0.0038974
9970.0 0.0038721
9990.0 0.0038464
10010.0 0.0038177
10030.0 0.0037912
10050.0 0.0037682
10070.0 0.0037449
10090.0 0.0037214
10110.0 0.003696
10130.0 0.0036655
10150.0 0.0036423
10170.0 0.0036203
10190.0 0.0035967
10210.0 0.0035736
10230.0 0.0035505
10250.0 0.0035262
10270.0 0.003502
10290.0 0.0034787
10310.0 0.0034545
10330.0 0.0034296
10350.0 0.0034059
10370.0 0.0033823
10390.0 0.0033578
10410.0 0.0033336
10430.0 0.0033105
10450.0 0.0032865
10470.0 0.0032621
10490.0 0.0032386
10510.0 0.0032151
10530.0 0.0031903
10550.0 0.0031662
10570.0 0.0031429
10590.0 0.0031189
10610.0 0.0030944
10630.0 0.003071
10650.0 0.0030474
10670.0 0.0030227
10690.0 0.0029986
10710.0 0.002975
10730.0 0.0029507
10750.0 0.0029256
10770.0 0.002902
10790.0 0.0028781
10810.0 0.0028533
10830.0 0.002829
10850.0 0.0028055
10870.0 0.0027805
10890.0 0.0027556
10910.0 0.0027318
10930.0 0.0027079
10950.0 0.0026835
10970.0 0.0026602
10990.0 0.0026382
11010.0 0.0026906
11030.0 0.0026704
11050.0 0.0026512
11070.0 0.0026319
11090.0 0.0026113
11110.0 0.0025915
11130.0 0.0025719
11150.0 0.0025515
11170.0 0.0025311
11190.0 0.0025118
11210.0 0.0024924
11230.0 0.0024731
11250.0 0.0024549
11270.0 0.0024378
11290.0 0.0024208
11310.0 0.0024046
11330.0 0.0023901
11350.0 0.0023759
11370.0 0.0023621
11390.0 0.0023493
11410.0 0.0023369
11430.0 0.0023242
11450.0 0.0023118
11470.0 0.0022995
11490.0 0.0022868
11510.0 0.0022732
11530.0 0.0022595
11550.0 0.0022452
11570.0 0.0022296
11590.0 0.0022132
11610.0 0.0021964
11630.0 0.002178
11650.0 0.0021582
11670.0 0.0021384
11690.0 0.0021178
11710.0 0.0020958
11730.0 0.0020735
11750.0 0.0020516
11770.0 0.0020287
11790.0 0.0020053
11810.0 0.0019826
11830.0 0.00196
11850.0 0.0019365
11870.0 0.0019139
11890.0 0.0018923
11910.0 0.0018704
11930.0 0.0018489
11950.0 0.0018286
11970.0 0.0018088
11990.0 0.0017888
12010.0 0.00177
12030.0 0.0017523
12050.0 0.0017349
12070.0 0.001718
12090.0 0.0017028
12110.0 0.0016883
12130.0 0.0016744
12150.0 0.0016617
12170.0 0.0016504
12190.0 0.0016396
12210.0 0.0016302
12230.0 0.0016222
12250.0 0.0016155
12270.0 0.0016099
12290.0 0.0016057
12310.0 0.0016028
12330.0 0.0016009
12350.0 0.0016002
12370.0 0.0016002
12390.0 0.001601
12410.0 0.0016026
12430.0 0.0016043
12450.0 0.0016061
12470.0 0.001608
12490.0 0.0016097
12510.0 0.0016107
12530.0 0.0016111
12550.0 0.0016108
12570.0 0.0016094
12590.0 0.0016068
12610.0 0.001603
12630.0 0.0015977
12650.0 0.0015911
12670.0 0.0015831
12690.0 0.0015736
12710.0 0.001563
12730.0 0.0015513
12750.0 0.001538
12770.0 0.0015239
12790.0 0.0015095
12810.0 0.0014941
12830.0 0.001478
12850.0 0.0014621
12870.0 0.0014462
12890.0 0.0014297
12910.0 0.0014135
12930.0 0.0013977
12950.0 0.0013817
12970.0 0.0013655
12990.0 0.0013502
13010.0 0.001335
13030.0 0.0013197
13050.0 0.0013049
13070.0 0.0012908
13090.0 0.0012765
13110.0 0.0012624
13130.0 0.0012492
13150.0 0.0012364
13170.0 0.0012235
13190.0 0.0012116
13210.0 0.0012005
13230.0 0.0011897
13250.0 0.0011794
13270.0 0.00117
13290.0 0.001161
13310.0 0.0011522
13330.0 0.001144
13350.0 0.0011362
13370.0 0.0011284
13390.0 0.0011207
13410.0 0.0011134
13430.0 0.001106
13450.0 0.0010983
13470.0 0.0010908
13490.0 0.0010832
13510.0 0.0010752
13530.0 0.001067
13550.0 0.001059
13570.0 0.0010507
13590.0 0.0010422
13610.0 0.0010337
13630.0 0.0010254
13650.0 0.0010167
13670.0 0.001008
13690.0 0.00099959
13710.0 0.00099104
13730.0 0.00098213
13750.0 0.00097367
13770.0 0.00096526
13790.0 0.0009566
13810.0 0.00094795
13830.0 0.00093961
13850.0 0.00093098
13870.0 0.00092214
13890.0 0.00091353
13910.0 0.00090495
13930.0 0.00089598
13950.0 0.000887
13970.0 0.0008784
13990.0 0.0008695
14010.0 0.00086042
14030.0 0.00085158
14050.0 0.00084278
14070.0 0.00083349
14090.0 0.00082443
14110.0 0.00081566
14130.0 0.00080674
14150.0 0.00079774
14170.0 0.00078931
14190.0 0.00078109
14210.0 0.00077283
14230.0 0.00076501
14250.0 0.00075774
14270.0 0.00075055
14290.0 0.00074365
14310.0 0.00073749
14330.0 0.00073167
14350.0 0.00072606
14370.0 0.00072093
14390.0 0.00071629
14410.0 0.00071176
14430.0 0.00070748
14450.0 0.00070358
14470.0 0.00069987
14490.0 0.00069614
14510.0 0.00069271
14530.0 0.00068949
14550.0 0.00068625
14570.0 0.00068308
14590.0 0.00068013
14610.0 0.00067717
14630.0 0.00067417
14650.0 0.00067135
14670.0 0.00066868
14690.0 0.00066603
14710.0 0.00066351
14730.0 0.00066139
14750.0 0.00065948
14770.0 0.00065786
14790.0 0.00065674
14810.0 0.00065613
14830.0 0.00065605
14850.0 0.00065666
14870.0 0.00065794
14890.0 0.00065989
14910.0 0.00066251
14930.0 0.00066554
14950.0 0.00066878
14970.0 0.00067217
14990.0 0.00067533
15010.0 0.00067804
15030.0 0.0006803
15050.0 0.00068205
15070.0 0.00068328
15090.0 0.00068417
15110.0 0.00068481
15130.0 0.0006853
15150.0 0.00068574
15170.0 0.00068612
15190.0 0.00068649
15210.0 0.0006869
15230.0 0.00068734
15250.0 0.00068776
15270.0 0.00068821
15290.0 0.00068872
15310.0 0.00068923
15330.0 0.00068974
15350.0 0.00069031
15370.0 0.0006909
15390.0 0.00069146
15410.0 0.00069207
15430.0 0.00069272
15450.0 0.00069337
15470.0 0.00069403
15490.0 0.00069474
15510.0 0.00069547
15530.0 0.00069618
15550.0 0.00069694
15570.0 0.00069773
15590.0 0.0006985
15610.0 0.00069928
15630.0 0.00070012
15650.0 0.00070097
15670.0 0.00070182
15690.0 0.00070269
15710.0 0.00070361
15730.0 0.0007045
15750.0 0.00070541
15770.0 0.00070637
15790.0 0.00070733
15810.0 0.00070827
15830.0 0.00070925
15850.0 0.00071027
15870.0 0.00071127
15890.0 0.00071228
15910.0 0.00071334
15930.0 0.0007144
15950.0 0.00071543
15970.0 0.00071651
15990.0 0.00071761
16010.0 0.00071869
16030.0 0.00071977
16050.0 0.00072092
16070.0 0.00072205
16090.0 0.00072316
16110.0 0.00072432
16130.0 0.00072549
16150.0 0.00072662
16170.0 0.00072778
16190.0 0.00072897
16210.0 0.00073015
16230.0 0.00073132
16250.0 0.00073252
16270.0 0.00073375
16290.0 0.00073493
16310.0 0.00073613
16330.0 0.00073737
16350.0 0.00073858
16370.0 0.00073976
16390.0 0.000741
16410.0 0.00074224
16430.0 0.00074345
16450.0 0.00074467
16470.0 0.00074592
16490.0 0.00074714
16510.0 0.00074834
16530.0 0.00074958
16550.0 0.00075082
16570.0 0.00075201
16590.0 0.00075322
16610.0 0.00075446
16630.0 0.00075567
16650.0 0.00075687
16670.0 0.00075809
16690.0 0.0007593
16710.0 0.00076046
16730.0 0.00076164
16750.0 0.00076284
16770.0 0.00076401
16790.0 0.00076515
16810.0 0.00076633
16830.0 0.00076749
16850.0 0.00076861
16870.0 0.00076973
16890.0 0.00077088
16910.0 0.00077197
16930.0 0.00077303
16950.0 0.00077414
16970.0 0.00077521
16990.0 0.00077625
17010.0 0.0007773
17030.0 0.00077835
17050.0 0.00077935
17070.0 0.00078033
17090.0 0.00078133
17110.0 0.0007823
17130.0 0.00078322
17150.0 0.00078415
17170.0 0.00078509
17190.0 0.00078597
17210.0 0.00078684
17230.0 0.00078772
17250.0 0.00078855
17270.0 0.00078934
17290.0 0.00079014
17310.0 0.00079093
17330.0 0.00079166
17350.0 0.00079236
17370.0 0.00079309
17390.0 0.00079378
17410.0 0.00079441
17430.0 0.00079505
17450.0 0.00079568
17470.0 0.00079622
17490.0 0.00079676
17510.0 0.00079731
17530.0 0.00079781
17550.0 0.00079826
17570.0 0.00079871
17590.0 0.00079915
17610.0 0.00079951
17630.0 0.00079986
17650.0 0.00080021
17670.0 0.0008005
17690.0 0.00080072
17710.0 0.00080098
17730.0 0.0008012
17750.0 0.00080135
17770.0 0.00080148
17790.0 0.00080162
17810.0 0.00080168
17830.0 0.00080169
17850.0 0.00080171
17870.0 0.0008017
17890.0 0.00080161
17910.0 0.0008015
17930.0 0.0008014
17950.0 0.00080122
17970.0 0.000801
17990.0 0.00080078
18010.0 0.00080052
18030.0 0.00080017
18050.0 0.00079982
18070.0 0.00079945
18090.0 0.00079902
18110.0 0.00079854
18130.0 0.00079806
18150.0 0.00079754
18170.0 0.00079695
18190.0 0.00079634
18210.0 0.00079571
18230.0 0.000795
18250.0 0.00079425
18270.0 0.00079351
18290.0 0.00079271
18310.0 0.00079184
18330.0 0.00079097
18350.0 0.00079008
18370.0 0.00078909
18390.0 0.00078808
18410.0 0.00078706
18430.0 0.00078599
18450.0 0.00078483
18470.0 0.00078368
18490.0 0.00078251
18510.0 0.00078126
18530.0 0.00077998
18550.0 0.0007787
18570.0 0.00077734
18590.0 0.00077592
18610.0 0.0007745
18630.0 0.00077304
18650.0 0.00077152
18670.0 0.00076995
18690.0 0.0007684
18710.0 0.00076678
18730.0 0.00076509
18750.0 0.00076341
18770.0 0.00076169
18790.0 0.00075988
18810.0 0.00075805
18830.0 0.00075623
18850.0 0.00075434
18870.0 0.00075239
18890.0 0.00075044
18910.0 0.00074847
18930.0 0.00074641
18950.0 0.00074433
18970.0 0.00074225
18990.0 0.00074011
19010.0 0.00073788
19030.0 0.0007357
19050.0 0.00073347
19070.0 0.00073117
19090.0 0.00072886
19110.0 0.00072654
19130.0 0.00072415
19150.0 0.00072171
19170.0 0.00071928
19190.0 0.00071682
19210.0 0.00071428
19230.0 0.00071173
19250.0 0.0007092
19270.0 0.00070659
19290.0 0.00070394
19310.0 0.0007013
19330.0 0.00069863
19350.0 0.00069587
19370.0 0.00069313
19390.0 0.00069038
19410.0 0.00068757
19430.0 0.00068472
19450.0 0.00068189
19470.0 0.00067902
19490.0 0.0006761
19510.0 0.00067317
19530.0 0.00067024
19550.0 0.00066724
19570.0 0.00066421
19590.0 0.00066122
19610.0 0.00065817
19630.0 0.00065509
19650.0 0.00065201
19670.0 0.00064892
19690.0 0.00064577
19710.0 0.00064261
19730.0 0.00063946
19750.0 0.00063627
19770.0 0.00063303
19790.0 0.00062982
19810.0 0.0006266
19830.0 0.00062332
19850.0 0.00062001
19870.0 0.00061668
19890.0 0.00061323
19910.0 0.00060958
19930.0 0.00060572
19950.0 0.00060151
19970.0 0.0005967
19990.0 0.00059122
20010.0 0.00058519
20030.0 0.00057829
20050.0 0.00057058
20070.0 0.00056243
20090.0 0.00055389
20110.0 0.00054462
20130.0 0.00053536
20150.0 0.00052627
20170.0 0.00051702
20190.0 0.00050775
20210.0 0.00049892
20230.0 0.00049026
20250.0 0.00048157
20270.0 0.00047328
20290.0 0.00046543
20310.0 0.00045773
20330.0 0.00045019
20350.0 0.00044335
20370.0 0.00043678
20390.0 0.00043044
20410.0 0.00042454
20430.0 0.0004191
20450.0 0.00041382
20470.0 0.0004089
20490.0 0.00040439
20510.0 0.00040018
20530.0 0.00039619
20550.0 0.00039252
20570.0 0.00038916
20590.0 0.00038597
20610.0 0.000383
20630.0 0.00038023
20650.0 0.00037762
20670.0 0.00037513
20690.0 0.00037277
20710.0 0.00037049
20730.0 0.00036826
20750.0 0.00036605
20770.0 0.00036385
20790.0 0.00036162
20810.0 0.00035933
20830.0 0.00035697
20850.0 0.00035452
20870.0 0.00035193
20890.0 0.00034919
20910.0 0.00034635
20930.0 0.00034334
20950.0 0.00034014
20970.0 0.00033682
20990.0 0.00033338
21010.0 0.00032971
21030.0 0.00032592
21050.0 0.00032206
21070.0 0.00031806
21090.0 0.00031388
21110.0 0.00030973
21130.0 0.00030555
21150.0 0.00030125
21170.0 0.00029694
21190.0 0.00029272
21210.0 0.00028842
21230.0 0.00028411
21250.0 0.00027994
21270.0 0.00027584
21290.0 0.00027173
21310.0 0.00026773
21330.0 0.00026391
21350.0 0.00026011
21370.0 0.00025639
21390.0 0.00025283
21410.0 0.00024938
21430.0 0.00024593
21450.0 0.00024263
21470.0 0.00023947
21490.0 0.00023636
21510.0 0.0002333
21530.0 0.00023038
21550.0 0.00022751
21570.0 0.00022466
21590.0 0.0002219
21610.0 0.00021921
21630.0 0.00021654
21650.0 0.00021387
21670.0 0.00021132
21690.0 0.00020879
21710.0 0.00020626
21730.0 0.00020378
21750.0 0.00020135
21770.0 0.00019889
21790.0 0.00019645
21810.0 0.00019406
21830.0 0.00019168
21850.0 0.00018927
21870.0 0.00018689
21890.0 0.00018455
21910.0 0.00018216
21930.0 0.00017977
21950.0 0.00017742
21970.0 0.00017505
21990.0 0.00017262
22010.0 0.00017025
22030.0 0.00016789
22050.0 0.0001655
22070.0 0.00016312
22090.0 0.0001608
22110.0 0.00015847
22130.0 0.00015613
22150.0 0.00015385
22170.0 0.00015161
22190.0 0.00014936
22210.0 0.00014714
22230.0 0.00014502
22250.0 0.00014292
22270.0 0.00014083
22290.0 0.00013882
22310.0 0.00013685
22330.0 0.00013488
22350.0 0.00013296
22370.0 0.0001311
22390.0 0.00012925
22410.0 0.0001274
22430.0 0.00012562
22450.0 0.00012386
22470.0 0.00012208
22490.0 0.00012033
22510.0 0.00011862
22530.0 0.00011688
22550.0 0.00011513
22570.0 0.00011343
22590.0 0.00011173
22610.0 0.00011002
22630.0 0.00010832
22650.0 0.00010668
22670.0 0.00010502
22690.0 0.00010338
22710.0 0.00010178
22730.0 0.00010022
22750.0 9.8653e-05
22770.0 9.7152e-05
22790.0 9.5715e-05
22810.0 9.4306e-05
22830.0 9.2944e-05
22850.0 9.1667e-05
22870.0 9.0443e-05
22890.0 8.927e-05
22910.0 8.8183e-05
22930.0 8.7179e-05
22950.0 8.6244e-05
22970.0 8.539e-05
22990.0 8.4631e-05
23010.0 8.3948e-05
23030.0 8.3344e-05
23050.0 8.2811e-05
23070.0 8.2337e-05
23090.0 8.1929e-05
23110.0 8.1565e-05
23130.0 8.1224e-05
23150.0 8.0906e-05
23170.0 8.0608e-05
23190.0 8.0299e-05
23210.0 7.9972e-05
23230.0 7.964e-05
23250.0 7.9285e-05
23270.0 7.8896e-05
23290.0 7.8484e-05
23310.0 7.8049e-05
23330.0 7.7577e-05
23350.0 7.7079e-05
23370.0 7.6557e-05
23390.0 7.6011e-05
23410.0 7.5445e-05
23430.0 7.4864e-05
23450.0 7.4269e-05
