#lamb flux
1010.0 4.8204e-08
1030.0 5.3076e-08
1050.0 5.868e-08
1070.0 6.4988e-08
1090.0 7.2154e-08
1110.0 7.9503e-08
1130.0 8.6899e-08
1150.0 9.4648e-08
1170.0 1.0264e-07
1190.0 1.1022e-07
1210.0 1.179e-07
1230.0 1.2584e-07
1250.0 1.3361e-07
1270.0 1.4116e-07
1290.0 1.4914e-07
1310.0 1.5712e-07
1330.0 1.6477e-07
1350.0 1.725e-07
1370.0 1.8048e-07
1390.0 1.8827e-07
1410.0 1.9582e-07
1430.0 2.0371e-07
1450.0 2.1161e-07
1470.0 2.1924e-07
1490.0 2.2695e-07
1510.0 2.351e-07
1530.0 2.4282e-07
1550.0 2.5044e-07
1570.0 2.5832e-07
1590.0 2.6621e-07
1610.0 2.7375e-07
1630.0 2.8152e-07
1650.0 2.895e-07
1670.0 2.9723e-07
1690.0 3.0485e-07
1710.0 3.1277e-07
1730.0 3.2074e-07
1750.0 3.2824e-07
1770.0 3.3597e-07
1790.0 3.4385e-07
1810.0 3.5149e-07
1830.0 3.59e-07
1850.0 3.6697e-07
1870.0 3.7474e-07
1890.0 3.8226e-07
1910.0 3.8993e-07
1930.0 3.978e-07
1950.0 4.0531e-07
1970.0 4.1273e-07
1990.0 4.2044e-07
2010.0 4.2802e-07
2030.0 4.3532e-07
2050.0 4.4286e-07
2070.0 4.5058e-07
2090.0 4.5785e-07
2110.0 4.6509e-07
2130.0 4.7255e-07
2150.0 4.7984e-07
2170.0 4.868e-07
2190.0 4.9401e-07
2210.0 5.0125e-07
2230.0 5.0816e-07
2250.0 5.1501e-07
2270.0 5.2216e-07
2290.0 5.2904e-07
2310.0 5.356e-07
2330.0 5.4241e-07
2350.0 5.4938e-07
2370.0 5.5629e-07
2390.0 5.6381e-07
2410.0 5.7284e-07
2430.0 5.8335e-07
2450.0 5.9608e-07
2470.0 6.1264e-07
2490.0 6.3373e-07
2510.0 6.5783e-07
2530.0 6.8701e-07
2550.0 7.2371e-07
2570.0 7.6945e-07
2590.0 8.2893e-07
2610.0 9.1794e-07
2630.0 1.0446e-06
2650.0 1.2096e-06
2670.0 1.422e-06
2690.0 1.6821e-06
2710.0 1.9583e-06
2730.0 2.2298e-06
2750.0 2.4958e-06
2770.0 2.7253e-06
2790.0 2.9055e-06
2810.0 3.0465e-06
2830.0 3.1546e-06
2850.0 3.2259e-06
2870.0 3.2762e-06
2890.0 3.3145e-06
2910.0 3.3436e-06
2930.0 3.3662e-06
2950.0 3.3875e-06
2970.0 3.4083e-06
2990.0 3.4275e-06
3010.0 0.00010021
3030.0 0.00010076
3050.0 0.0001013
3070.0 0.00010173
3090.0 0.00010209
3110.0 0.00010224
3130.0 0.00010207
3150.0 0.00010147
3170.0 0.00010023
3190.0 9.838e-05
3210.0 9.608e-05
3230.0 9.3468e-05
3250.0 9.0857e-05
3270.0 8.8935e-05
3290.0 8.7756e-05
3310.0 8.7793e-05
3330.0 8.8919e-05
3350.0 9.0996e-05
3370.0 9.4023e-05
3390.0 9.7877e-05
3410.0 0.00010209
3430.0 0.00010684
3450.0 0.00011231
3470.0 0.0001183
3490.0 0.00012466
3510.0 0.00013186
3530.0 0.00013961
3550.0 0.00014753
3570.0 0.00015589
3590.0 0.00016502
3610.0 0.00017458
3630.0 0.00018408
3650.0 0.00019397
3670.0 0.00020296
3690.0 0.00020966
3710.0 0.00021339
3730.0 0.00021303
3750.0 0.00020909
3770.0 0.00020951
3790.0 0.00020806
3810.0 0.00019464
3830.0 0.00019918
3850.0 0.00023583
3870.0 0.00024745
3890.0 0.0002338
3910.0 0.00023032
3930.0 0.00024325
3950.0 0.00025551
3970.0 0.00024249
3990.0 0.00019575
4010.0 0.00055128
4030.0 0.00065137
4050.0 0.00074583
4070.0 0.00067058
4090.0 0.00061078
4110.0 0.00053263
4130.0 0.00051445
4150.0 0.00057817
4170.0 0.00054144
4190.0 0.00055739
4210.0 0.00056615
4230.0 0.00061771
4250.0 0.00073518
4270.0 0.00075642
4290.0 0.00068807
4310.0 0.00069725
4330.0 0.00072922
4350.0 0.00083981
4370.0 0.00097111
4390.0 0.000878
4410.0 0.00061285
4430.0 0.00050461
4450.0 0.00046617
4470.0 0.00034288
4490.0 0.00039826
4510.0 0.00065857
4530.0 0.00077116
4550.0 0.00076002
4570.0 0.00081154
4590.0 0.00091085
4610.0 0.0013431
4630.0 0.0017849
4650.0 0.0018713
4670.0 0.0017102
4690.0 0.0016525
4710.0 0.00174
4730.0 0.0015947
4750.0 0.0011599
4770.0 0.00083562
4790.0 0.000807
4810.0 0.00078842
4830.0 0.00073516
4850.0 0.00080342
4870.0 0.001062
4890.0 0.0012463
4910.0 0.001065
4930.0 0.00096452
4950.0 0.0010722
4970.0 0.0013853
4990.0 0.0018766
5010.0 0.0021656
5030.0 0.001867
5050.0 0.0012378
5070.0 0.00082937
5090.0 0.00065698
5110.0 0.00066098
5130.0 0.00077171
5150.0 0.00081759
5170.0 0.00079732
5190.0 0.00073656
5210.0 0.000782
5230.0 0.00085218
5250.0 0.00093574
5270.0 0.00097394
5290.0 0.0010714
5310.0 0.0012888
5330.0 0.0014199
5350.0 0.0014084
5370.0 0.0015013
5390.0 0.00176
5410.0 0.0016957
5430.0 0.0014567
5450.0 0.0013658
5470.0 0.0014789
5490.0 0.0018143
5510.0 0.0022509
5530.0 0.0025896
5550.0 0.002465
5570.0 0.0022353
5590.0 0.0019193
5610.0 0.0018075
5630.0 0.0018178
5650.0 0.0017133
5670.0 0.0016102
5690.0 0.0014048
5710.0 0.0013876
5730.0 0.0012942
5750.0 0.00086269
5770.0 0.00065943
5790.0 0.00076044
5810.0 0.00084454
5830.0 0.0010923
5850.0 0.0013318
5870.0 0.001469
5890.0 0.0014732
5910.0 0.0014436
5930.0 0.0013758
5950.0 0.0014051
5970.0 0.0016367
5990.0 0.00149
6010.0 0.0012262
6030.0 0.0010289
6050.0 0.00090114
6070.0 0.00093387
6090.0 0.0010203
6110.0 0.0011156
6130.0 0.00111
6150.0 0.00093657
6170.0 0.0007995
6190.0 0.00091108
6210.0 0.0012539
6230.0 0.0016974
6250.0 0.0018399
6270.0 0.0015576
6290.0 0.0013165
6310.0 0.0010222
6330.0 0.00077414
6350.0 0.00070597
6370.0 0.00074204
6390.0 0.00086361
6410.0 0.001079
6430.0 0.0012697
6450.0 0.0014786
6470.0 0.0016558
6490.0 0.0019939
6510.0 0.0022307
6530.0 0.0022147
6550.0 0.0020117
6570.0 0.0016771
6590.0 0.0015299
6610.0 0.0013054
6630.0 0.0012271
6650.0 0.0011709
6670.0 0.0011019
6690.0 0.00095461
6710.0 0.00088395
6730.0 0.00056745
6750.0 0.00060011
6770.0 0.00071995
6790.0 0.00086366
6810.0 0.00073226
6830.0 0.00075217
6850.0 0.00068156
6870.0 0.00062528
6890.0 0.00058183
6910.0 0.00064215
6930.0 0.00060259
6950.0 0.00064511
6970.0 0.00067769
6990.0 0.00076471
7010.0 0.00076022
7030.0 0.00080133
7050.0 0.00074405
7070.0 0.00068358
7090.0 0.00069876
7110.0 0.00072698
7130.0 0.00079797
7150.0 0.00086289
7170.0 0.00095738
7190.0 0.001046
7210.0 0.0010009
7230.0 0.0010252
7250.0 0.0010992
7270.0 0.0011903
7290.0 0.0014299
7310.0 0.0015447
7330.0 0.0014836
7350.0 0.0013391
7370.0 0.0011193
7390.0 0.0011003
7410.0 0.0012117
7430.0 0.0013566
7450.0 0.0014735
7470.0 0.0014264
7490.0 0.0012504
7510.0 0.0015556
7530.0 0.0015062
7550.0 0.0013765
7570.0 0.0010354
7590.0 0.00064468
7610.0 0.00053445
7630.0 0.00064101
7650.0 0.00077982
7670.0 0.0010329
7690.0 0.0011393
7710.0 0.001144
7730.0 0.0011871
7750.0 0.0013881
7770.0 0.0014154
7790.0 0.0012976
7810.0 0.0011458
7830.0 0.0011978
7850.0 0.0012038
7870.0 0.0011243
7890.0 0.00092457
7910.0 0.00071563
7930.0 0.00069873
7950.0 0.00063558
7970.0 0.00057445
7990.0 0.00055873
8010.0 0.00010614
8030.0 9.7127e-05
8050.0 0.00010375
8070.0 0.00011792
8090.0 0.00014517
8110.0 0.00013791
8130.0 8.211e-05
8150.0 8.6606e-05
8170.0 4.8869e-05
8190.0 3.0173e-05
8210.0 8.0458e-05
8230.0 9.7323e-05
8250.0 4.2171e-05
8270.0 3.3086e-05
8290.0 6.104e-05
8310.0 5.4339e-05
8330.0 3.4134e-05
8350.0 2.6577e-05
8370.0 6.3103e-06
8390.0 2.8973e-05
8410.0 3.2918e-05
8430.0 4.0626e-05
8450.0 4.6431e-05
8470.0 7.6358e-05
8490.0 6.4246e-05
8510.0 5.1172e-05
8530.0 3.0666e-05
8550.0 9.0192e-05
8570.0 0.0001339
8590.0 9.8741e-05
8610.0 0.00014546
8630.0 0.00016202
8650.0 0.00010218
8670.0 0.00013942
8690.0 0.0001984
8710.0 0.00017039
8730.0 0.00017831
8750.0 0.00014166
8770.0 0.00012681
8790.0 0.00013761
8810.0 0.00014701
8830.0 8.5456e-05
8850.0 3.9088e-05
8870.0 2.7324e-05
8890.0 5.9899e-05
8910.0 9.2996e-05
8930.0 0.00012293
8950.0 0.00013377
8970.0 0.00012866
8990.0 9.5116e-05
9010.0 0.00026953
9030.0 0.00022724
9050.0 0.00023068
9070.0 0.00023489
9090.0 0.00023844
9110.0 0.00024281
9130.0 0.00024603
9150.0 0.00024837
9170.0 0.00025087
9190.0 0.00025354
9210.0 0.00025635
9230.0 0.00025932
9250.0 0.00026231
9270.0 0.0002654
9290.0 0.00026858
9310.0 0.00027175
9330.0 0.00027497
9350.0 0.0002783
9370.0 0.00028165
9390.0 0.00028501
9410.0 0.00028846
9430.0 0.00029201
9450.0 0.00029552
9470.0 0.00029909
9490.0 0.00030277
9510.0 0.00030647
9530.0 0.00031017
9550.0 0.000314
9570.0 0.00031789
9590.0 0.00032178
9610.0 0.00032572
9630.0 0.00032978
9650.0 0.00033385
9670.0 0.00033791
9690.0 0.0003421
9710.0 0.00034634
9730.0 0.00035057
9750.0 0.00035487
9770.0 0.00035931
9790.0 0.00036372
9810.0 0.00036815
9830.0 0.00037268
9850.0 0.00037726
9870.0 0.00038181
9890.0 0.00038644
9910.0 0.00039117
9930.0 0.00039588
9950.0 0.00040061
9970.0 0.00040545
9990.0 0.00041034
10010.0 0.00035828
10030.0 0.00036251
10050.0 0.00036681
10070.0 0.00037114
10090.0 0.00037538
10110.0 0.00037974
10130.0 0.0003841
10150.0 0.00038843
10170.0 0.0003928
10190.0 0.00039726
10210.0 0.00040165
10230.0 0.00040602
10250.0 0.00041048
10270.0 0.00041492
10290.0 0.0004193
10310.0 0.00042375
10330.0 0.00042824
10350.0 0.00043265
10370.0 0.00043705
10390.0 0.0004415
10410.0 0.00044593
10430.0 0.00045026
10450.0 0.00045464
10470.0 0.00045903
10490.0 0.00046334
10510.0 0.00046762
10530.0 0.00047198
10550.0 0.00047626
10570.0 0.00048044
10590.0 0.00048465
10610.0 0.00048886
10630.0 0.00049294
10650.0 0.000497
10670.0 0.0005011
10690.0 0.00050511
10710.0 0.00050903
10730.0 0.00051296
10750.0 0.0005169
10770.0 0.00052066
10790.0 0.00052439
10810.0 0.00052811
10830.0 0.00053172
10850.0 0.00053514
10870.0 0.00053849
10890.0 0.0005415
10910.0 0.00054392
10930.0 0.00054552
10950.0 0.00054583
10970.0 0.00054443
10990.0 0.00054114
11010.0 0.00050495
11030.0 0.00049701
11050.0 0.00048723
11070.0 0.00047548
11090.0 0.00046135
11110.0 0.00044671
11130.0 0.00043144
11150.0 0.00041503
11170.0 0.00039814
11190.0 0.00038177
11210.0 0.00036491
11230.0 0.00034765
11250.0 0.00033118
11270.0 0.00031538
11290.0 0.00029957
11310.0 0.00028461
11330.0 0.00027142
11350.0 0.00025895
11370.0 0.00024742
11390.0 0.00023741
11410.0 0.00022862
11430.0 0.00022042
11450.0 0.00021332
11470.0 0.00020713
11490.0 0.00020135
11510.0 0.00019576
11530.0 0.00019055
11550.0 0.00018538
11570.0 0.00017988
11590.0 0.00017421
11610.0 0.00016845
11630.0 0.00016221
11650.0 0.00015557
11670.0 0.00014903
11690.0 0.00014242
11710.0 0.00013561
11730.0 0.00012901
11750.0 0.00012291
11770.0 0.00011691
11790.0 0.00011129
11810.0 0.00010633
11830.0 0.00010187
11850.0 9.7744e-05
11870.0 9.427e-05
11890.0 9.1358e-05
11910.0 8.8779e-05
11930.0 8.6543e-05
11950.0 8.466e-05
11970.0 8.2966e-05
11990.0 8.1361e-05
12010.0 7.9874e-05
12030.0 7.8444e-05
12050.0 7.6975e-05
12070.0 7.5457e-05
12090.0 7.3996e-05
12110.0 7.2518e-05
12130.0 7.1037e-05
12150.0 6.9662e-05
12170.0 6.8447e-05
12190.0 6.7372e-05
12210.0 6.6578e-05
12230.0 6.612e-05
12250.0 6.6022e-05
12270.0 6.6367e-05
12290.0 6.7154e-05
12310.0 6.8349e-05
12330.0 7.0075e-05
12350.0 7.2266e-05
12370.0 7.4782e-05
12390.0 7.7704e-05
12410.0 8.1147e-05
12430.0 8.4651e-05
12450.0 8.8285e-05
12470.0 9.2155e-05
12490.0 9.6042e-05
12510.0 9.9684e-05
12530.0 0.00010331
12550.0 0.0001068
12570.0 0.00010987
12590.0 0.00011256
12610.0 0.00011494
12630.0 0.00011683
12650.0 0.00011811
12670.0 0.00011892
12690.0 0.00011921
12710.0 0.00011893
12730.0 0.00011817
12750.0 0.00011686
12770.0 0.0001151
12790.0 0.00011298
12810.0 0.00011047
12830.0 0.00010757
12850.0 0.00010455
12870.0 0.00010137
12890.0 9.793e-05
12910.0 9.4444e-05
12930.0 9.1013e-05
12950.0 8.7443e-05
12970.0 8.3816e-05
12990.0 8.0388e-05
13010.0 7.7008e-05
13030.0 7.3596e-05
13050.0 7.032e-05
13070.0 6.7252e-05
13090.0 6.4175e-05
13110.0 6.1198e-05
13130.0 5.845e-05
13150.0 5.5844e-05
13170.0 5.329e-05
13190.0 5.1011e-05
13210.0 4.8997e-05
13230.0 4.7148e-05
13250.0 4.5545e-05
13270.0 4.4267e-05
13290.0 4.3257e-05
13310.0 4.2537e-05
13330.0 4.2172e-05
13350.0 4.2138e-05
13370.0 4.2452e-05
13390.0 4.3137e-05
13410.0 4.4091e-05
13430.0 4.5354e-05
13450.0 4.6934e-05
13470.0 4.8701e-05
13490.0 5.0585e-05
13510.0 5.2722e-05
13530.0 5.49e-05
13550.0 5.6994e-05
13570.0 5.9068e-05
13590.0 6.1099e-05
13610.0 6.2913e-05
13630.0 6.4505e-05
13650.0 6.5966e-05
13670.0 6.7187e-05
13690.0 6.8138e-05
13710.0 6.8882e-05
13730.0 6.9423e-05
13750.0 6.9706e-05
13770.0 6.9789e-05
13790.0 6.9684e-05
13810.0 6.9392e-05
13830.0 6.8948e-05
13850.0 6.8338e-05
13870.0 6.7564e-05
13890.0 6.6674e-05
13910.0 6.5669e-05
13930.0 6.4505e-05
13950.0 6.3232e-05
13970.0 6.1931e-05
13990.0 6.0514e-05
14010.0 5.9008e-05
14030.0 5.7506e-05
14050.0 5.5993e-05
14070.0 5.4397e-05
14090.0 5.2867e-05
14110.0 5.1429e-05
14130.0 5.0035e-05
14150.0 4.8721e-05
14170.0 4.7599e-05
14190.0 4.6625e-05
14210.0 4.5797e-05
14230.0 4.5179e-05
14250.0 4.4775e-05
14270.0 4.4572e-05
14290.0 4.4597e-05
14310.0 4.4833e-05
14330.0 4.5268e-05
14350.0 4.5916e-05
14370.0 4.6729e-05
14390.0 4.7657e-05
14410.0 4.8754e-05
14430.0 4.9963e-05
14450.0 5.1203e-05
14470.0 5.2494e-05
14490.0 5.3871e-05
14510.0 5.5193e-05
14530.0 5.6452e-05
14550.0 5.7714e-05
14570.0 5.8929e-05
14590.0 6.0038e-05
14610.0 6.1111e-05
14630.0 6.2174e-05
14650.0 6.3164e-05
14670.0 6.4119e-05
14690.0 6.5113e-05
14710.0 6.6156e-05
14730.0 6.7197e-05
14750.0 6.8349e-05
14770.0 6.9655e-05
14790.0 7.107e-05
14810.0 7.2605e-05
14830.0 7.4424e-05
14850.0 7.6404e-05
14870.0 7.8473e-05
14890.0 8.0708e-05
14910.0 8.3084e-05
14930.0 8.5373e-05
14950.0 8.7516e-05
14970.0 8.9549e-05
14990.0 9.1261e-05
15010.0 9.2578e-05
15030.0 9.3561e-05
15050.0 9.4223e-05
15070.0 9.4561e-05
15090.0 9.47e-05
15110.0 9.47e-05
15130.0 9.4611e-05
15150.0 9.4481e-05
15170.0 9.4321e-05
15190.0 9.4148e-05
15210.0 9.3978e-05
15230.0 9.3809e-05
15250.0 9.3632e-05
15270.0 9.3459e-05
15290.0 9.3296e-05
15310.0 9.3128e-05
15330.0 9.2958e-05
15350.0 9.2796e-05
15370.0 9.2636e-05
15390.0 9.2466e-05
15410.0 9.2303e-05
15430.0 9.2146e-05
15450.0 9.1985e-05
15470.0 9.182e-05
15490.0 9.1666e-05
15510.0 9.1512e-05
15530.0 9.1352e-05
15550.0 9.1196e-05
15570.0 9.1046e-05
15590.0 9.0889e-05
15610.0 9.0729e-05
15630.0 9.058e-05
15650.0 9.043e-05
15670.0 9.0273e-05
15690.0 9.0122e-05
15710.0 8.9978e-05
15730.0 8.9824e-05
15750.0 8.9671e-05
15770.0 8.9525e-05
15790.0 8.9377e-05
15810.0 8.922e-05
15830.0 8.9072e-05
15850.0 8.8929e-05
15870.0 8.8778e-05
15890.0 8.8627e-05
15910.0 8.8485e-05
15930.0 8.8338e-05
15950.0 8.8183e-05
15970.0 8.8036e-05
15990.0 8.7892e-05
16010.0 8.7741e-05
16030.0 8.7587e-05
16050.0 8.7445e-05
16070.0 8.7298e-05
16090.0 8.7146e-05
16110.0 8.6999e-05
16130.0 8.6856e-05
16150.0 8.6699e-05
16170.0 8.6547e-05
16190.0 8.6402e-05
16210.0 8.6252e-05
16230.0 8.6096e-05
16250.0 8.5948e-05
16270.0 8.5802e-05
16290.0 8.5646e-05
16310.0 8.5492e-05
16330.0 8.5345e-05
16350.0 8.5192e-05
16370.0 8.5028e-05
16390.0 8.4878e-05
16410.0 8.4727e-05
16430.0 8.4568e-05
16450.0 8.4411e-05
16470.0 8.4262e-05
16490.0 8.4102e-05
16510.0 8.3939e-05
16530.0 8.3784e-05
16550.0 8.3627e-05
16570.0 8.3462e-05
16590.0 8.3298e-05
16610.0 8.3143e-05
16630.0 8.298e-05
16650.0 8.2814e-05
16670.0 8.2654e-05
16690.0 8.2493e-05
16710.0 8.2319e-05
16730.0 8.2153e-05
16750.0 8.199e-05
16770.0 8.182e-05
16790.0 8.1646e-05
16810.0 8.1481e-05
16830.0 8.1314e-05
16850.0 8.1138e-05
16870.0 8.0965e-05
16890.0 8.0798e-05
16910.0 8.0619e-05
16930.0 8.0438e-05
16950.0 8.0266e-05
16970.0 8.0091e-05
16990.0 7.9908e-05
17010.0 7.973e-05
17030.0 7.9557e-05
17050.0 7.9372e-05
17070.0 7.9187e-05
17090.0 7.9008e-05
17110.0 7.8826e-05
17130.0 7.8633e-05
17150.0 7.8448e-05
17170.0 7.8266e-05
17190.0 7.8076e-05
17210.0 7.7885e-05
17230.0 7.7702e-05
17250.0 7.7511e-05
17270.0 7.7313e-05
17290.0 7.7121e-05
17310.0 7.6932e-05
17330.0 7.6733e-05
17350.0 7.6533e-05
17370.0 7.6343e-05
17390.0 7.6147e-05
17410.0 7.5944e-05
17430.0 7.5747e-05
17450.0 7.5553e-05
17470.0 7.5343e-05
17490.0 7.5138e-05
17510.0 7.494e-05
17530.0 7.4736e-05
17550.0 7.4526e-05
17570.0 7.4323e-05
17590.0 7.4122e-05
17610.0 7.3909e-05
17630.0 7.3699e-05
17650.0 7.3495e-05
17670.0 7.3284e-05
17690.0 7.3063e-05
17710.0 7.2856e-05
17730.0 7.2647e-05
17750.0 7.2429e-05
17770.0 7.2214e-05
17790.0 7.2006e-05
17810.0 7.1787e-05
17830.0 7.1565e-05
17850.0 7.1351e-05
17870.0 7.1135e-05
17890.0 7.091e-05
17910.0 7.0688e-05
17930.0 7.0474e-05
17950.0 7.0252e-05
17970.0 7.0026e-05
17990.0 6.9808e-05
18010.0 6.9588e-05
18030.0 6.9355e-05
18050.0 6.913e-05
18070.0 6.891e-05
18090.0 6.8681e-05
18110.0 6.845e-05
18130.0 6.8228e-05
18150.0 6.8003e-05
18170.0 6.777e-05
18190.0 6.7541e-05
18210.0 6.7317e-05
18230.0 6.7083e-05
18250.0 6.6846e-05
18270.0 6.662e-05
18290.0 6.639e-05
18310.0 6.6153e-05
18330.0 6.5922e-05
18350.0 6.5695e-05
18370.0 6.5457e-05
18390.0 6.522e-05
18410.0 6.499e-05
18430.0 6.4756e-05
18450.0 6.4512e-05
18470.0 6.4278e-05
18490.0 6.4048e-05
18510.0 6.3808e-05
18530.0 6.357e-05
18550.0 6.3339e-05
18570.0 6.3101e-05
18590.0 6.2857e-05
18610.0 6.262e-05
18630.0 6.2386e-05
18650.0 6.2143e-05
18670.0 6.19e-05
18690.0 6.1668e-05
18710.0 6.1429e-05
18730.0 6.1185e-05
18750.0 6.0948e-05
18770.0 6.0714e-05
18790.0 6.0465e-05
18810.0 6.0223e-05
18830.0 5.9987e-05
18850.0 5.9746e-05
18870.0 5.95e-05
18890.0 5.9263e-05
18910.0 5.9027e-05
18930.0 5.8781e-05
18950.0 5.8538e-05
18970.0 5.8302e-05
18990.0 5.806e-05
19010.0 5.7809e-05
19030.0 5.7572e-05
19050.0 5.7334e-05
19070.0 5.7088e-05
19090.0 5.6846e-05
19110.0 5.6612e-05
19130.0 5.6367e-05
19150.0 5.612e-05
19170.0 5.5882e-05
19190.0 5.5643e-05
19210.0 5.5395e-05
19230.0 5.5152e-05
19250.0 5.4917e-05
19270.0 5.4674e-05
19290.0 5.4429e-05
19310.0 5.4193e-05
19330.0 5.3954e-05
19350.0 5.3704e-05
19370.0 5.3464e-05
19390.0 5.3227e-05
19410.0 5.2984e-05
19430.0 5.2738e-05
19450.0 5.2504e-05
19470.0 5.2265e-05
19490.0 5.202e-05
19510.0 5.1781e-05
19530.0 5.1546e-05
19550.0 5.1301e-05
19570.0 5.1056e-05
19590.0 5.0821e-05
19610.0 5.0583e-05
19630.0 5.034e-05
19650.0 5.0102e-05
19670.0 4.987e-05
19690.0 4.9626e-05
19710.0 4.9385e-05
19730.0 4.9151e-05
19750.0 4.8914e-05
19770.0 4.8668e-05
19790.0 4.8432e-05
19810.0 4.82e-05
19830.0 4.7958e-05
19850.0 4.7716e-05
19870.0 4.7479e-05
19890.0 4.7225e-05
19910.0 4.6948e-05
19930.0 4.6653e-05
19950.0 4.6318e-05
19970.0 4.591e-05
19990.0 4.5423e-05
20010.0 4.0633e-05
20030.0 4.0032e-05
20050.0 3.9331e-05
20070.0 3.8575e-05
20090.0 3.7763e-05
20110.0 3.6847e-05
20130.0 3.5922e-05
20150.0 3.5006e-05
20170.0 3.4057e-05
20190.0 3.3097e-05
20210.0 3.219e-05
20230.0 3.1307e-05
20250.0 3.0422e-05
20270.0 2.96e-05
20290.0 2.885e-05
20310.0 2.8137e-05
20330.0 2.747e-05
20350.0 2.6915e-05
20370.0 2.6421e-05
20390.0 2.5987e-05
20410.0 2.5634e-05
20430.0 2.536e-05
20450.0 2.5141e-05
20470.0 2.4991e-05
20490.0 2.4906e-05
20510.0 2.4876e-05
20530.0 2.4898e-05
20550.0 2.4967e-05
20570.0 2.5072e-05
20590.0 2.5218e-05
20610.0 2.5396e-05
20630.0 2.5593e-05
20650.0 2.5816e-05
20670.0 2.6072e-05
20690.0 2.6333e-05
20710.0 2.6604e-05
20730.0 2.6897e-05
20750.0 2.7202e-05
20770.0 2.7503e-05
20790.0 2.7818e-05
20810.0 2.8151e-05
20830.0 2.8482e-05
20850.0 2.8814e-05
20870.0 2.9168e-05
20890.0 2.9529e-05
20910.0 2.9876e-05
20930.0 3.0235e-05
20950.0 3.0607e-05
20970.0 3.0969e-05
20990.0 3.1326e-05
21010.0 3.1701e-05
21030.0 3.2066e-05
21050.0 3.2415e-05
21070.0 3.2762e-05
21090.0 3.3111e-05
21110.0 3.3428e-05
21130.0 3.3725e-05
21150.0 3.4013e-05
21170.0 3.4273e-05
21190.0 3.4496e-05
21210.0 3.4696e-05
21230.0 3.4862e-05
21250.0 3.4979e-05
21270.0 3.5052e-05
21290.0 3.5077e-05
21310.0 3.5046e-05
21330.0 3.496e-05
21350.0 3.4813e-05
21370.0 3.4599e-05
21390.0 3.4327e-05
21410.0 3.3995e-05
21430.0 3.3575e-05
21450.0 3.3104e-05
21470.0 3.2591e-05
21490.0 3.2012e-05
21510.0 3.1376e-05
21530.0 3.0731e-05
21550.0 3.0055e-05
21570.0 2.9334e-05
21590.0 2.8625e-05
21610.0 2.794e-05
21630.0 2.7254e-05
21650.0 2.6583e-05
21670.0 2.6002e-05
21690.0 2.5465e-05
21710.0 2.4982e-05
21730.0 2.4585e-05
21750.0 2.4278e-05
21770.0 2.4042e-05
21790.0 2.3905e-05
21810.0 2.3863e-05
21830.0 2.391e-05
21850.0 2.4052e-05
21870.0 2.4277e-05
21890.0 2.4569e-05
21910.0 2.4945e-05
21930.0 2.5386e-05
21950.0 2.5865e-05
21970.0 2.6396e-05
21990.0 2.6993e-05
22010.0 2.759e-05
22030.0 2.8196e-05
22050.0 2.8834e-05
22070.0 2.9475e-05
22090.0 3.0082e-05
22110.0 3.0694e-05
22130.0 3.1306e-05
22150.0 3.1877e-05
22170.0 3.2416e-05
22190.0 3.295e-05
22210.0 3.3446e-05
22230.0 3.3884e-05
22250.0 3.4295e-05
22270.0 3.4674e-05
22290.0 3.4997e-05
22310.0 3.5274e-05
22330.0 3.5518e-05
22350.0 3.5706e-05
22370.0 3.5837e-05
22390.0 3.5918e-05
22410.0 3.5942e-05
22430.0 3.5905e-05
22450.0 3.5811e-05
22470.0 3.5649e-05
22490.0 3.5423e-05
22510.0 3.5142e-05
22530.0 3.4784e-05
22550.0 3.4349e-05
22570.0 3.3867e-05
22590.0 3.3323e-05
22610.0 3.2699e-05
22630.0 3.2023e-05
22650.0 3.1325e-05
22670.0 3.0553e-05
22690.0 2.9729e-05
22710.0 2.8898e-05
22730.0 2.8041e-05
