#lamb flux
1010.0 2.5158e-08
1030.0 2.7825e-08
1050.0 3.0892e-08
1070.0 3.4345e-08
1090.0 3.8268e-08
1110.0 4.229e-08
1130.0 4.6339e-08
1150.0 5.058e-08
1170.0 5.4955e-08
1190.0 5.9104e-08
1210.0 6.3308e-08
1230.0 6.7653e-08
1250.0 7.191e-08
1270.0 7.6044e-08
1290.0 8.0412e-08
1310.0 8.4777e-08
1330.0 8.8963e-08
1350.0 9.3196e-08
1370.0 9.7567e-08
1390.0 1.0183e-07
1410.0 1.0596e-07
1430.0 1.1029e-07
1450.0 1.1461e-07
1470.0 1.1879e-07
1490.0 1.2301e-07
1510.0 1.2747e-07
1530.0 1.317e-07
1550.0 1.3587e-07
1570.0 1.4019e-07
1590.0 1.4451e-07
1610.0 1.4864e-07
1630.0 1.529e-07
1650.0 1.5727e-07
1670.0 1.615e-07
1690.0 1.6568e-07
1710.0 1.7003e-07
1730.0 1.744e-07
1750.0 1.7852e-07
1770.0 1.8276e-07
1790.0 1.8709e-07
1810.0 1.9129e-07
1830.0 1.9542e-07
1850.0 1.9981e-07
1870.0 2.041e-07
1890.0 2.0824e-07
1910.0 2.1248e-07
1930.0 2.1683e-07
1950.0 2.2099e-07
1970.0 2.2511e-07
1990.0 2.294e-07
2010.0 2.3362e-07
2030.0 2.3771e-07
2050.0 2.4193e-07
2070.0 2.4626e-07
2090.0 2.5035e-07
2110.0 2.5445e-07
2130.0 2.5867e-07
2150.0 2.6283e-07
2170.0 2.6681e-07
2190.0 2.7095e-07
2210.0 2.7512e-07
2230.0 2.7913e-07
2250.0 2.8313e-07
2270.0 2.8731e-07
2290.0 2.9137e-07
2310.0 2.9527e-07
2330.0 2.9933e-07
2350.0 3.035e-07
2370.0 3.0765e-07
2390.0 3.1215e-07
2410.0 3.1747e-07
2430.0 3.236e-07
2450.0 3.3092e-07
2470.0 3.4031e-07
2490.0 3.5213e-07
2510.0 3.6557e-07
2530.0 3.8175e-07
2550.0 4.0201e-07
2570.0 4.2721e-07
2590.0 4.5998e-07
2610.0 5.0906e-07
2630.0 5.7912e-07
2650.0 6.7073e-07
2670.0 7.8917e-07
2690.0 9.3472e-07
2710.0 1.0901e-06
2730.0 1.2436e-06
2750.0 1.3948e-06
2770.0 1.5264e-06
2790.0 1.6308e-06
2810.0 1.7137e-06
2830.0 1.7785e-06
2850.0 1.8227e-06
2870.0 1.8551e-06
2890.0 1.8808e-06
2910.0 1.9013e-06
2930.0 1.918e-06
2950.0 1.934e-06
2970.0 1.9497e-06
2990.0 1.9643e-06
3010.0 5.5523e-05
3030.0 5.5938e-05
3050.0 5.6339e-05
3070.0 5.6683e-05
3090.0 5.6978e-05
3110.0 5.7162e-05
3130.0 5.7154e-05
3150.0 5.69e-05
3170.0 5.6291e-05
3190.0 5.5334e-05
3210.0 5.412e-05
3230.0 5.2731e-05
3250.0 5.136e-05
3270.0 5.0358e-05
3290.0 4.9801e-05
3310.0 4.9891e-05
3330.0 5.0614e-05
3350.0 5.1871e-05
3370.0 5.3666e-05
3390.0 5.5929e-05
3410.0 5.8391e-05
3430.0 6.1156e-05
3450.0 6.4338e-05
3470.0 6.7814e-05
3490.0 7.1497e-05
3510.0 7.566e-05
3530.0 8.0118e-05
3550.0 8.4631e-05
3570.0 8.9339e-05
3590.0 9.446e-05
3610.0 9.9736e-05
3630.0 0.000105
3650.0 0.00011045
3670.0 0.00011544
3690.0 0.00011916
3710.0 0.00012129
3730.0 0.00012136
3750.0 0.00011968
3770.0 0.00011901
3790.0 0.0001183
3810.0 0.0001154
3830.0 0.00011897
3850.0 0.00013302
3870.0 0.00014074
3890.0 0.00014009
3910.0 0.00014069
3930.0 0.00014439
3950.0 0.00014667
3970.0 0.00013363
3990.0 0.00011499
4010.0 0.00034463
4030.0 0.00041757
4050.0 0.00047871
4070.0 0.00041536
4090.0 0.00037619
4110.0 0.00033195
4130.0 0.00030553
4150.0 0.00032499
4170.0 0.00032013
4190.0 0.00034124
4210.0 0.00033812
4230.0 0.00035764
4250.0 0.00042309
4270.0 0.00042806
4290.0 0.00039446
4310.0 0.00040987
4330.0 0.00043598
4350.0 0.00048884
4370.0 0.00055631
4390.0 0.00052203
4410.0 0.00038569
4430.0 0.00032651
4450.0 0.00030003
4470.0 0.00023028
4490.0 0.0002485
4510.0 0.00037537
4530.0 0.00043291
4550.0 0.00043667
4570.0 0.00049136
4590.0 0.00055971
4610.0 0.00075492
4630.0 0.00098048
4650.0 0.0010633
4670.0 0.00098473
4690.0 0.00093961
4710.0 0.00099323
4730.0 0.00093733
4750.0 0.00070078
4770.0 0.00051404
4790.0 0.00048002
4810.0 0.00045753
4830.0 0.00041887
4850.0 0.00045963
4870.0 0.00060722
4890.0 0.00071609
4910.0 0.00062828
4930.0 0.00055593
4950.0 0.00061078
4970.0 0.00078328
4990.0 0.0010615
5010.0 0.0012212
5030.0 0.0010768
5050.0 0.00072851
5070.0 0.00048012
5090.0 0.00038714
5110.0 0.00039814
5130.0 0.00045952
5150.0 0.00049785
5170.0 0.00049038
5190.0 0.00045823
5210.0 0.00047895
5230.0 0.00050349
5250.0 0.00054262
5270.0 0.00058545
5290.0 0.0006488
5310.0 0.00075519
5330.0 0.00083571
5350.0 0.00083039
5370.0 0.00087224
5390.0 0.0010009
5410.0 0.001
5430.0 0.00088438
5450.0 0.00081254
5470.0 0.00086277
5490.0 0.0010541
5510.0 0.001318
5530.0 0.0015116
5550.0 0.001461
5570.0 0.0013282
5590.0 0.0011549
5610.0 0.0010651
5630.0 0.0010328
5650.0 0.00098362
5670.0 0.00093206
5690.0 0.00083326
5710.0 0.00081245
5730.0 0.00074839
5750.0 0.00052766
5770.0 0.00041166
5790.0 0.0004665
5810.0 0.00052676
5830.0 0.00064641
5850.0 0.00076948
5870.0 0.00085375
5890.0 0.00086822
5910.0 0.00085179
5930.0 0.0008108
5950.0 0.0008262
5970.0 0.00094178
5990.0 0.00088552
6010.0 0.00074233
6030.0 0.00062716
6050.0 0.00054618
6070.0 0.00054319
6090.0 0.000589
6110.0 0.0006586
6130.0 0.00066869
6150.0 0.00057535
6170.0 0.00050613
6190.0 0.00056957
6210.0 0.00075297
6230.0 0.00098811
6250.0 0.0010703
6270.0 0.00093526
6290.0 0.00078688
6310.0 0.0006143
6330.0 0.00047067
6350.0 0.00041983
6370.0 0.00044149
6390.0 0.00051039
6410.0 0.00062933
6430.0 0.00073489
6450.0 0.0008409
6470.0 0.00096285
6490.0 0.0011631
6510.0 0.0013005
6530.0 0.0012758
6550.0 0.0011537
6570.0 0.00097938
6590.0 0.00088313
6610.0 0.00076149
6630.0 0.00068988
6650.0 0.00065213
6670.0 0.00063353
6690.0 0.00057243
6710.0 0.00052035
6730.0 0.0003748
6750.0 0.00037157
6770.0 0.00040387
6790.0 0.00046422
6810.0 0.00042477
6830.0 0.0004374
6850.0 0.00040911
6870.0 0.00037372
6890.0 0.00035883
6910.0 0.00038238
6930.0 0.00035815
6950.0 0.00036848
6970.0 0.00038757
6990.0 0.00043992
7010.0 0.00044367
7030.0 0.00045072
7050.0 0.00042983
7070.0 0.00040956
7090.0 0.00041075
7110.0 0.00042264
7130.0 0.00045482
7150.0 0.00048306
7170.0 0.00053302
7190.0 0.00058594
7210.0 0.00057576
7230.0 0.00059189
7250.0 0.00063608
7270.0 0.00069317
7290.0 0.00082273
7310.0 0.00089274
7330.0 0.0008629
7350.0 0.00078044
7370.0 0.00067906
7390.0 0.00065877
7410.0 0.00070007
7430.0 0.00077804
7450.0 0.00084743
7470.0 0.00083965
7490.0 0.00076559
7510.0 0.00086723
7530.0 0.00085773
7550.0 0.00077095
7570.0 0.00060225
7590.0 0.00041403
7610.0 0.00035536
7630.0 0.00040376
7650.0 0.00047739
7670.0 0.00059414
7690.0 0.00065381
7710.0 0.00068135
7730.0 0.00071601
7750.0 0.0008038
7770.0 0.00081644
7790.0 0.00074994
7810.0 0.00068427
7830.0 0.00070564
7850.0 0.00068594
7870.0 0.0006289
7890.0 0.0005284
7910.0 0.00042951
7930.0 0.00041012
7950.0 0.00037363
7970.0 0.00034586
7990.0 0.00034389
8010.0 2.5469e-05
8030.0 2.5138e-05
8050.0 2.4799e-05
8070.0 2.5124e-05
8090.0 2.6995e-05
8110.0 2.6535e-05
8130.0 2.1888e-05
8150.0 2.1316e-05
8170.0 1.8361e-05
8190.0 1.7401e-05
8210.0 2.2597e-05
8230.0 2.5159e-05
8250.0 2.2675e-05
8270.0 1.9736e-05
8290.0 1.9239e-05
8310.0 1.4807e-05
8330.0 9.9799e-06
8350.0 7.0826e-06
8370.0 4.4623e-06
8390.0 8.157e-06
8410.0 9.5052e-06
8430.0 1.1717e-05
8450.0 1.3758e-05
8470.0 1.7101e-05
8490.0 1.698e-05
8510.0 1.6703e-05
8530.0 1.7432e-05
8550.0 2.3519e-05
8570.0 2.7843e-05
8590.0 3.0042e-05
8610.0 3.7949e-05
8630.0 4.5716e-05
8650.0 4.7823e-05
8670.0 5.0822e-05
8690.0 5.1107e-05
8710.0 4.6284e-05
8730.0 4.3052e-05
8750.0 3.8001e-05
8770.0 3.6057e-05
8790.0 3.5424e-05
8810.0 3.3944e-05
8830.0 2.7144e-05
8850.0 1.9871e-05
8870.0 1.5215e-05
8890.0 1.4875e-05
8910.0 1.7047e-05
8930.0 1.939e-05
8950.0 1.9761e-05
8970.0 1.9855e-05
8990.0 1.7708e-05
9010.0 0.00018557
9030.0 0.00016815
9050.0 0.00016896
9070.0 0.00017029
9090.0 0.00017146
9110.0 0.00017291
9130.0 0.00017402
9150.0 0.00017489
9170.0 0.00017581
9190.0 0.0001768
9210.0 0.00017784
9230.0 0.00017893
9250.0 0.00018005
9270.0 0.0001812
9290.0 0.00018239
9310.0 0.00018359
9330.0 0.00018481
9350.0 0.00018608
9370.0 0.00018736
9390.0 0.00018865
9410.0 0.00018999
9430.0 0.00019136
9450.0 0.00019272
9470.0 0.00019412
9490.0 0.00019555
9510.0 0.00019701
9530.0 0.00019847
9550.0 0.00019998
9570.0 0.00020151
9590.0 0.00020305
9610.0 0.00020462
9630.0 0.00020623
9650.0 0.00020785
9670.0 0.00020948
9690.0 0.00021115
9710.0 0.00021284
9730.0 0.00021454
9750.0 0.00021627
9770.0 0.00021804
9790.0 0.00021982
9810.0 0.0002216
9830.0 0.00022342
9850.0 0.00022526
9870.0 0.0002271
9890.0 0.00022896
9910.0 0.00023086
9930.0 0.00023276
9950.0 0.00023467
9970.0 0.00023662
9990.0 0.00023859
10010.0 0.00020703
10030.0 0.00020873
10050.0 0.00021046
10070.0 0.00021226
10090.0 0.00021395
10110.0 0.00021568
10130.0 0.00021742
10150.0 0.00021915
10170.0 0.00022091
10190.0 0.00022269
10210.0 0.00022446
10230.0 0.00022622
10250.0 0.000228
10270.0 0.00022979
10290.0 0.00023155
10310.0 0.00023334
10330.0 0.00023514
10350.0 0.00023691
10370.0 0.00023868
10390.0 0.00024047
10410.0 0.00024225
10430.0 0.00024399
10450.0 0.00024575
10470.0 0.00024752
10490.0 0.00024926
10510.0 0.00025098
10530.0 0.00025274
10550.0 0.00025446
10570.0 0.00025615
10590.0 0.00025784
10610.0 0.00025954
10630.0 0.00026119
10650.0 0.00026283
10670.0 0.00026449
10690.0 0.00026612
10710.0 0.00026771
10730.0 0.0002693
10750.0 0.0002709
10770.0 0.00027243
10790.0 0.00027394
10810.0 0.00027546
10830.0 0.00027693
10850.0 0.00027833
10870.0 0.00027968
10890.0 0.00028087
10910.0 0.00028178
10930.0 0.0002823
10950.0 0.00028218
10970.0 0.00028122
10990.0 0.00027935
11010.0 0.00027621
11030.0 0.00027182
11050.0 0.00026646
11070.0 0.00026006
11090.0 0.00025236
11110.0 0.0002444
11130.0 0.0002361
11150.0 0.00022716
11170.0 0.00021795
11190.0 0.00020901
11210.0 0.00019978
11230.0 0.00019032
11250.0 0.00018127
11270.0 0.00017259
11290.0 0.00016389
11310.0 0.00015565
11330.0 0.00014839
11350.0 0.00014153
11370.0 0.00013519
11390.0 0.00012971
11410.0 0.00012492
11430.0 0.00012046
11450.0 0.00011662
11470.0 0.0001133
11490.0 0.00011021
11510.0 0.00010723
11530.0 0.00010447
11550.0 0.00010173
11570.0 9.88e-05
11590.0 9.5769e-05
11610.0 9.2683e-05
11630.0 8.9324e-05
11650.0 8.5729e-05
11670.0 8.2185e-05
11690.0 7.8591e-05
11710.0 7.4884e-05
11730.0 7.1291e-05
11750.0 6.7967e-05
11770.0 6.4706e-05
11790.0 6.165e-05
11810.0 5.896e-05
11830.0 5.6555e-05
11850.0 5.4339e-05
11870.0 5.2485e-05
11890.0 5.0945e-05
11910.0 4.959e-05
11930.0 4.8427e-05
11950.0 4.7458e-05
11970.0 4.6592e-05
11990.0 4.5773e-05
12010.0 4.5016e-05
12030.0 4.4287e-05
12050.0 4.3532e-05
12070.0 4.2748e-05
12090.0 4.1991e-05
12110.0 4.1224e-05
12130.0 4.0454e-05
12150.0 3.9745e-05
12170.0 3.9126e-05
12190.0 3.859e-05
12210.0 3.8217e-05
12230.0 3.8036e-05
12250.0 3.8065e-05
12270.0 3.8352e-05
12290.0 3.8895e-05
12310.0 3.9673e-05
12330.0 4.0762e-05
12350.0 4.2121e-05
12370.0 4.3668e-05
12390.0 4.5452e-05
12410.0 4.7543e-05
12430.0 4.9667e-05
12450.0 5.1867e-05
12470.0 5.4207e-05
12490.0 5.6556e-05
12510.0 5.8761e-05
12530.0 6.0954e-05
12550.0 6.3069e-05
12570.0 6.4937e-05
12590.0 6.6576e-05
12610.0 6.8037e-05
12630.0 6.9202e-05
12650.0 7.0005e-05
12670.0 7.0534e-05
12690.0 7.0746e-05
12710.0 7.0629e-05
12730.0 7.0219e-05
12750.0 6.9489e-05
12770.0 6.8486e-05
12790.0 6.7271e-05
12810.0 6.5819e-05
12830.0 6.414e-05
12850.0 6.2384e-05
12870.0 6.0527e-05
12890.0 5.8517e-05
12910.0 5.6475e-05
12930.0 5.4462e-05
12950.0 5.2361e-05
12970.0 5.0223e-05
12990.0 4.82e-05
13010.0 4.6202e-05
13030.0 4.4182e-05
13050.0 4.2241e-05
13070.0 4.0424e-05
13090.0 3.86e-05
13110.0 3.6835e-05
13130.0 3.5208e-05
13150.0 3.3667e-05
13170.0 3.2159e-05
13190.0 3.0816e-05
13210.0 2.9635e-05
13230.0 2.8555e-05
13250.0 2.7625e-05
13270.0 2.6891e-05
13290.0 2.632e-05
13310.0 2.5927e-05
13330.0 2.5749e-05
13350.0 2.5769e-05
13370.0 2.6e-05
13390.0 2.6454e-05
13410.0 2.7068e-05
13430.0 2.7866e-05
13450.0 2.8851e-05
13470.0 2.9945e-05
13490.0 3.1103e-05
13510.0 3.241e-05
13530.0 3.3734e-05
13550.0 3.5002e-05
13570.0 3.6252e-05
13590.0 3.747e-05
13610.0 3.8554e-05
13630.0 3.95e-05
13650.0 4.0364e-05
13670.0 4.1081e-05
13690.0 4.1636e-05
13710.0 4.2064e-05
13730.0 4.2371e-05
13750.0 4.2524e-05
13770.0 4.2559e-05
13790.0 4.2481e-05
13810.0 4.2294e-05
13830.0 4.2017e-05
13850.0 4.1641e-05
13870.0 4.1168e-05
13890.0 4.0626e-05
13910.0 4.0016e-05
13930.0 3.931e-05
13950.0 3.8539e-05
13970.0 3.775e-05
13990.0 3.6891e-05
14010.0 3.5978e-05
14030.0 3.5067e-05
14050.0 3.4149e-05
14070.0 3.318e-05
14090.0 3.2252e-05
14110.0 3.1379e-05
14130.0 3.0533e-05
14150.0 2.9737e-05
14170.0 2.9058e-05
14190.0 2.847e-05
14210.0 2.7972e-05
14230.0 2.7602e-05
14250.0 2.7364e-05
14270.0 2.7248e-05
14290.0 2.7273e-05
14310.0 2.7425e-05
14330.0 2.7698e-05
14350.0 2.8099e-05
14370.0 2.86e-05
14390.0 2.9168e-05
14410.0 2.9838e-05
14430.0 3.0573e-05
14450.0 3.1324e-05
14470.0 3.2102e-05
14490.0 3.2931e-05
14510.0 3.3723e-05
14530.0 3.4475e-05
14550.0 3.5227e-05
14570.0 3.5949e-05
14590.0 3.6606e-05
14610.0 3.7242e-05
14630.0 3.7871e-05
14650.0 3.8457e-05
14670.0 3.9023e-05
14690.0 3.9612e-05
14710.0 4.0233e-05
14730.0 4.0853e-05
14750.0 4.154e-05
14770.0 4.2319e-05
14790.0 4.3164e-05
14810.0 4.408e-05
14830.0 4.5164e-05
14850.0 4.6343e-05
14870.0 4.7573e-05
14890.0 4.89e-05
14910.0 5.031e-05
14930.0 5.1665e-05
14950.0 5.2931e-05
14970.0 5.413e-05
14990.0 5.5136e-05
15010.0 5.5904e-05
15030.0 5.6474e-05
15050.0 5.685e-05
15070.0 5.7034e-05
15090.0 5.7099e-05
15110.0 5.708e-05
15130.0 5.7008e-05
15150.0 5.6912e-05
15170.0 5.6798e-05
15190.0 5.6675e-05
15210.0 5.6555e-05
15230.0 5.6435e-05
15250.0 5.631e-05
15270.0 5.6187e-05
15290.0 5.607e-05
15310.0 5.595e-05
15330.0 5.5829e-05
15350.0 5.5713e-05
15370.0 5.5598e-05
15390.0 5.5476e-05
15410.0 5.5359e-05
15430.0 5.5245e-05
15450.0 5.5129e-05
15470.0 5.5011e-05
15490.0 5.4899e-05
15510.0 5.4787e-05
15530.0 5.4671e-05
15550.0 5.4558e-05
15570.0 5.4449e-05
15590.0 5.4335e-05
15610.0 5.4219e-05
15630.0 5.411e-05
15650.0 5.4001e-05
15670.0 5.3888e-05
15690.0 5.3777e-05
15710.0 5.3671e-05
15730.0 5.356e-05
15750.0 5.3449e-05
15770.0 5.3342e-05
15790.0 5.3234e-05
15810.0 5.3121e-05
15830.0 5.3013e-05
15850.0 5.2909e-05
15870.0 5.28e-05
15890.0 5.269e-05
15910.0 5.2586e-05
15930.0 5.248e-05
15950.0 5.2369e-05
15970.0 5.2263e-05
15990.0 5.2158e-05
16010.0 5.205e-05
16030.0 5.194e-05
16050.0 5.1838e-05
16070.0 5.1732e-05
16090.0 5.1624e-05
16110.0 5.1518e-05
16130.0 5.1416e-05
16150.0 5.1306e-05
16170.0 5.1198e-05
16190.0 5.1094e-05
16210.0 5.0989e-05
16230.0 5.0879e-05
16250.0 5.0775e-05
16270.0 5.0672e-05
16290.0 5.0563e-05
16310.0 5.0456e-05
16330.0 5.0353e-05
16350.0 5.0247e-05
16370.0 5.0135e-05
16390.0 5.003e-05
16410.0 4.9926e-05
16430.0 4.9817e-05
16450.0 4.971e-05
16470.0 4.9607e-05
16490.0 4.9499e-05
16510.0 4.9389e-05
16530.0 4.9283e-05
16550.0 4.9177e-05
16570.0 4.9066e-05
16590.0 4.8957e-05
16610.0 4.8852e-05
16630.0 4.8744e-05
16650.0 4.8633e-05
16670.0 4.8527e-05
16690.0 4.8421e-05
16710.0 4.8307e-05
16730.0 4.8197e-05
16750.0 4.8091e-05
16770.0 4.798e-05
16790.0 4.7867e-05
16810.0 4.776e-05
16830.0 4.7651e-05
16850.0 4.7538e-05
16870.0 4.7427e-05
16890.0 4.7319e-05
16910.0 4.7206e-05
16930.0 4.709e-05
16950.0 4.6981e-05
16970.0 4.687e-05
16990.0 4.6755e-05
17010.0 4.6643e-05
17030.0 4.6533e-05
17050.0 4.6418e-05
17070.0 4.6302e-05
17090.0 4.6191e-05
17110.0 4.6078e-05
17130.0 4.5959e-05
17150.0 4.5844e-05
17170.0 4.5732e-05
17190.0 4.5616e-05
17210.0 4.5499e-05
17230.0 4.5386e-05
17250.0 4.527e-05
17270.0 4.515e-05
17290.0 4.5034e-05
17310.0 4.4919e-05
17330.0 4.4799e-05
17350.0 4.4679e-05
17370.0 4.4565e-05
17390.0 4.4447e-05
17410.0 4.4326e-05
17430.0 4.4208e-05
17450.0 4.4093e-05
17470.0 4.3969e-05
17490.0 4.3847e-05
17510.0 4.373e-05
17530.0 4.361e-05
17550.0 4.3486e-05
17570.0 4.3367e-05
17590.0 4.3249e-05
17610.0 4.3124e-05
17630.0 4.3002e-05
17650.0 4.2883e-05
17670.0 4.276e-05
17690.0 4.2632e-05
17710.0 4.2512e-05
17730.0 4.239e-05
17750.0 4.2265e-05
17770.0 4.2141e-05
17790.0 4.2021e-05
17810.0 4.1895e-05
17830.0 4.1768e-05
17850.0 4.1645e-05
17870.0 4.1521e-05
17890.0 4.1393e-05
17910.0 4.1266e-05
17930.0 4.1144e-05
17950.0 4.1017e-05
17970.0 4.0889e-05
17990.0 4.0765e-05
18010.0 4.0641e-05
18030.0 4.0509e-05
18050.0 4.0382e-05
18070.0 4.0257e-05
18090.0 4.0129e-05
18110.0 3.9998e-05
18130.0 3.9873e-05
18150.0 3.9747e-05
18170.0 3.9616e-05
18190.0 3.9488e-05
18210.0 3.9362e-05
18230.0 3.9231e-05
18250.0 3.9098e-05
18270.0 3.8972e-05
18290.0 3.8843e-05
18310.0 3.8711e-05
18330.0 3.8582e-05
18350.0 3.8456e-05
18370.0 3.8324e-05
18390.0 3.8192e-05
18410.0 3.8064e-05
18430.0 3.7934e-05
18450.0 3.7799e-05
18470.0 3.7669e-05
18490.0 3.7541e-05
18510.0 3.7408e-05
18530.0 3.7276e-05
18550.0 3.7149e-05
18570.0 3.7017e-05
18590.0 3.6882e-05
18610.0 3.6751e-05
18630.0 3.6622e-05
18650.0 3.6487e-05
18670.0 3.6353e-05
18690.0 3.6225e-05
18710.0 3.6094e-05
18730.0 3.5959e-05
18750.0 3.5828e-05
18770.0 3.5699e-05
18790.0 3.5562e-05
18810.0 3.5428e-05
18830.0 3.5299e-05
18850.0 3.5166e-05
18870.0 3.5031e-05
18890.0 3.49e-05
18910.0 3.477e-05
18930.0 3.4635e-05
18950.0 3.4502e-05
18970.0 3.4372e-05
18990.0 3.4238e-05
19010.0 3.41e-05
19030.0 3.397e-05
19050.0 3.3839e-05
19070.0 3.3704e-05
19090.0 3.3571e-05
19110.0 3.3442e-05
19130.0 3.3307e-05
19150.0 3.3172e-05
19170.0 3.3041e-05
19190.0 3.2909e-05
19210.0 3.2772e-05
19230.0 3.2639e-05
19250.0 3.251e-05
19270.0 3.2376e-05
19290.0 3.2241e-05
19310.0 3.2111e-05
19330.0 3.198e-05
19350.0 3.1842e-05
19370.0 3.1709e-05
19390.0 3.1579e-05
19410.0 3.1445e-05
19430.0 3.131e-05
19450.0 3.118e-05
19470.0 3.1049e-05
19490.0 3.0914e-05
19510.0 3.0782e-05
19530.0 3.0652e-05
19550.0 3.0517e-05
19570.0 3.0381e-05
19590.0 3.0252e-05
19610.0 3.012e-05
19630.0 2.9985e-05
19650.0 2.9854e-05
19670.0 2.9726e-05
19690.0 2.9591e-05
19710.0 2.9457e-05
19730.0 2.9328e-05
19750.0 2.9196e-05
19770.0 2.906e-05
19790.0 2.8929e-05
19810.0 2.88e-05
19830.0 2.8666e-05
19850.0 2.8532e-05
19870.0 2.84e-05
19890.0 2.8258e-05
19910.0 2.8102e-05
19930.0 2.7935e-05
19950.0 2.7744e-05
19970.0 2.751e-05
19990.0 2.7227e-05
20010.0 2.4224e-05
20030.0 2.3873e-05
20050.0 2.3463e-05
20070.0 2.3018e-05
20090.0 2.254e-05
20110.0 2.1999e-05
20130.0 2.1451e-05
20150.0 2.0909e-05
20170.0 2.0346e-05
20190.0 1.9775e-05
20210.0 1.9236e-05
20230.0 1.871e-05
20250.0 1.8183e-05
20270.0 1.7694e-05
20290.0 1.7248e-05
20310.0 1.6823e-05
20330.0 1.6427e-05
20350.0 1.6098e-05
20370.0 1.5806e-05
20390.0 1.5549e-05
20410.0 1.5343e-05
20430.0 1.5183e-05
20450.0 1.5057e-05
20470.0 1.4972e-05
20490.0 1.4927e-05
20510.0 1.4913e-05
20530.0 1.4932e-05
20550.0 1.4978e-05
20570.0 1.5045e-05
20590.0 1.5136e-05
20610.0 1.5246e-05
20630.0 1.5367e-05
20650.0 1.5502e-05
20670.0 1.5657e-05
20690.0 1.5815e-05
20710.0 1.5978e-05
20730.0 1.6154e-05
20750.0 1.6338e-05
20770.0 1.6519e-05
20790.0 1.6709e-05
20810.0 1.691e-05
20830.0 1.711e-05
20850.0 1.731e-05
20870.0 1.7525e-05
20890.0 1.7744e-05
20910.0 1.7956e-05
20930.0 1.8175e-05
20950.0 1.8402e-05
20970.0 1.8624e-05
20990.0 1.8843e-05
21010.0 1.9073e-05
21030.0 1.9297e-05
21050.0 1.9512e-05
21070.0 1.9726e-05
21090.0 1.9941e-05
21110.0 2.0137e-05
21130.0 2.0321e-05
21150.0 2.0499e-05
21170.0 2.066e-05
21190.0 2.0799e-05
21210.0 2.0924e-05
21230.0 2.1028e-05
21250.0 2.1102e-05
21270.0 2.1149e-05
21290.0 2.1167e-05
21310.0 2.115e-05
21330.0 2.11e-05
21350.0 2.1012e-05
21370.0 2.0884e-05
21390.0 2.072e-05
21410.0 2.052e-05
21430.0 2.0266e-05
21450.0 1.9982e-05
21470.0 1.9672e-05
21490.0 1.9321e-05
21510.0 1.8936e-05
21530.0 1.8546e-05
21550.0 1.8136e-05
21570.0 1.77e-05
21590.0 1.727e-05
21610.0 1.6855e-05
21630.0 1.644e-05
21650.0 1.6034e-05
21670.0 1.5682e-05
21690.0 1.5358e-05
21710.0 1.5066e-05
21730.0 1.4826e-05
21750.0 1.4642e-05
21770.0 1.4501e-05
21790.0 1.442e-05
21810.0 1.4398e-05
21830.0 1.443e-05
21850.0 1.452e-05
21870.0 1.4661e-05
21890.0 1.4842e-05
21910.0 1.5075e-05
21930.0 1.5349e-05
21950.0 1.5645e-05
21970.0 1.5973e-05
21990.0 1.6341e-05
22010.0 1.6709e-05
22030.0 1.7083e-05
22050.0 1.7475e-05
22070.0 1.787e-05
22090.0 1.8244e-05
22110.0 1.8621e-05
22130.0 1.8997e-05
22150.0 1.9348e-05
22170.0 1.9679e-05
22190.0 2.0007e-05
22210.0 2.0313e-05
22230.0 2.0581e-05
22250.0 2.0835e-05
22270.0 2.1068e-05
22290.0 2.1267e-05
22310.0 2.1438e-05
22330.0 2.1588e-05
22350.0 2.1705e-05
22370.0 2.1787e-05
22390.0 2.1838e-05
22410.0 2.1854e-05
22430.0 2.1834e-05
22450.0 2.1777e-05
22470.0 2.168e-05
22490.0 2.1543e-05
22510.0 2.1373e-05
22530.0 2.1156e-05
22550.0 2.0891e-05
22570.0 2.0597e-05
22590.0 2.0266e-05
22610.0 1.9885e-05
22630.0 1.9472e-05
22650.0 1.9046e-05
22670.0 1.8574e-05
