#lamb flux
1010.0 6.0098e-05
1030.0 6.7649e-05
1050.0 7.5463e-05
1070.0 8.4299e-05
1090.0 9.4642e-05
1110.0 0.00010528
1130.0 0.00011605
1150.0 0.00012742
1170.0 0.00013929
1190.0 0.00015077
1210.0 0.00016266
1230.0 0.00017523
1250.0 0.00018787
1270.0 0.0002006
1290.0 0.00021441
1310.0 0.00022869
1330.0 0.00024297
1350.0 0.00025783
1370.0 0.00027354
1390.0 0.00028935
1410.0 0.00030516
1430.0 0.00032181
1450.0 0.00033871
1470.0 0.00035536
1490.0 0.00037225
1510.0 0.00038992
1530.0 0.00040685
1550.0 0.0004235
1570.0 0.00044044
1590.0 0.00045717
1610.0 0.00047297
1630.0 0.0004887
1650.0 0.00050436
1670.0 0.00051906
1690.0 0.00053302
1710.0 0.00054689
1730.0 0.00056018
1750.0 0.00057194
1770.0 0.00058339
1790.0 0.00059438
1810.0 0.00060421
1830.0 0.0006131
1850.0 0.0006221
1870.0 0.00063007
1890.0 0.00063697
1910.0 0.00064355
1930.0 0.00064988
1950.0 0.0006551
1970.0 0.0006597
1990.0 0.0006643
2010.0 0.00066824
2030.0 0.00067129
2050.0 0.00067423
2070.0 0.00067695
2090.0 0.00067845
2110.0 0.00067935
2130.0 0.00067993
2150.0 0.0006796
2170.0 0.00067806
2190.0 0.00067611
2210.0 0.00067338
2230.0 0.00066934
2250.0 0.00066437
2270.0 0.0006589
2290.0 0.00065218
2310.0 0.00064419
2330.0 0.00063559
2350.0 0.00062617
2370.0 0.00061555
2390.0 0.00060417
2410.0 0.00059227
2430.0 0.00057917
2450.0 0.00056491
2470.0 0.0005497
2490.0 0.00053342
2510.0 0.00051617
2530.0 0.00049913
2550.0 0.00048403
2570.0 0.00047304
2590.0 0.00046843
2610.0 0.00047486
2630.0 0.00049362
2650.0 0.00052226
2670.0 0.00056064
2690.0 0.00060591
2710.0 0.00064803
2730.0 0.00068151
2750.0 0.00070529
2770.0 0.0007121
2790.0 0.00070017
2810.0 0.00067126
2830.0 0.00062518
2850.0 0.00056635
2870.0 0.00049822
2890.0 0.00042153
2910.0 0.00033985
2930.0 0.00025738
2950.0 0.00017105
2970.0 8.2007e-05
2990.0 4.0997e-05
3010.0 9.0483e-05
3030.0 9.0483e-05
3050.0 9.0483e-05
3070.0 9.0483e-05
3090.0 9.0483e-05
3110.0 9.0483e-05
3130.0 9.0483e-05
3150.0 9.0483e-05
3170.0 9.0483e-05
3190.0 9.0483e-05
3210.0 9.0483e-05
3230.0 0.002464
3250.0 0.0048983
3270.0 0.0049009
3290.0 0.0052809
3310.0 0.0041583
3330.0 0.0041543
3350.0 0.0046106
3370.0 0.005265
3390.0 0.0060034
3410.0 0.0067939
3430.0 0.0078024
3450.0 0.0088254
3470.0 0.0098944
3490.0 0.010482
3510.0 0.010195
3530.0 0.010326
3550.0 0.010885
3570.0 0.010962
3590.0 0.011688
3610.0 0.011184
3630.0 0.013845
3650.0 0.015532
3670.0 0.016591
3690.0 0.015672
3710.0 0.012896
3730.0 0.012105
3750.0 0.010918
3770.0 0.010085
3790.0 0.0091499
3810.0 0.0088402
3830.0 0.010162
3850.0 0.0044653
3870.0 0.0082114
3890.0 0.0097014
3910.0 0.010924
3930.0 0.013591
3950.0 0.014774
3970.0 0.017228
3990.0 0.02112
4010.0 0.015877
4030.0 0.013154
4050.0 0.0099829
4070.0 0.010267
4090.0 0.016115
4110.0 0.015292
4130.0 0.016486
4150.0 0.015529
4170.0 0.014786
4190.0 0.01345
4210.0 0.019531
4230.0 0.020361
4250.0 0.022145
4270.0 0.020788
4290.0 0.02099
4310.0 0.023554
4330.0 0.027719
4350.0 0.027823
4370.0 0.027093
4390.0 0.024232
4410.0 0.022557
4430.0 0.017719
4450.0 0.014827
4470.0 0.016521
4490.0 0.019693
4510.0 0.020395
4530.0 0.02101
4550.0 0.021803
4570.0 0.030869
4590.0 0.045641
4610.0 0.053652
4630.0 0.053804
4650.0 0.056342
4670.0 0.064521
4690.0 0.070499
4710.0 0.058074
4730.0 0.044251
4750.0 0.035135
4770.0 0.03103
4790.0 0.029086
4810.0 0.027736
4830.0 0.030644
4850.0 0.035508
4870.0 0.03875
4890.0 0.040427
4910.0 0.037244
4930.0 0.039646
4950.0 0.048913
4970.0 0.058292
4990.0 0.06089
5010.0 0.056173
5030.0 0.046687
5050.0 0.035589
5070.0 0.028132
5090.0 0.025234
5110.0 0.024682
5130.0 0.02519
5150.0 0.025108
5170.0 0.024026
5190.0 0.022702
5210.0 0.022225
5230.0 0.024993
5250.0 0.029056
5270.0 0.034733
5290.0 0.040228
5310.0 0.042704
5330.0 0.046501
5350.0 0.051884
5370.0 0.054979
5390.0 0.050298
5410.0 0.04484
5430.0 0.043661
5450.0 0.050901
5470.0 0.06368
5490.0 0.075318
5510.0 0.080964
5530.0 0.080313
5550.0 0.077042
5570.0 0.075147
5590.0 0.073161
5610.0 0.072781
5630.0 0.072855
5650.0 0.0734
5670.0 0.073437
5690.0 0.068071
5710.0 0.057721
5730.0 0.051668
5750.0 0.049318
5770.0 0.050708
5790.0 0.052968
5810.0 0.055866
5830.0 0.057535
5850.0 0.055368
5870.0 0.052382
5890.0 0.050658
5910.0 0.052716
5930.0 0.055988
5950.0 0.053453
5970.0 0.047966
5990.0 0.040529
6010.0 0.033002
6030.0 0.029976
6050.0 0.032098
6070.0 0.034437
6090.0 0.033531
6110.0 0.029599
6130.0 0.029887
6150.0 0.034584
6170.0 0.040155
6190.0 0.044725
6210.0 0.045324
6230.0 0.044379
6250.0 0.040648
6270.0 0.034262
6290.0 0.028405
6310.0 0.025008
6330.0 0.02425
6350.0 0.024827
6370.0 0.024974
6390.0 0.027479
6410.0 0.033962
6430.0 0.042592
6450.0 0.04889
6470.0 0.050791
6490.0 0.050074
6510.0 0.051182
6530.0 0.053131
6550.0 0.052671
6570.0 0.054609
6590.0 0.055694
6610.0 0.056685
6630.0 0.056356
6650.0 0.053183
6670.0 0.048635
6690.0 0.043685
6710.0 0.04087
6730.0 0.040765
6750.0 0.042128
6770.0 0.043389
6790.0 0.044603
6810.0 0.045393
6830.0 0.044472
6850.0 0.042586
6870.0 0.039953
6890.0 0.039013
6910.0 0.037411
6930.0 0.038567
6950.0 0.041187
6970.0 0.042386
6990.0 0.043376
7010.0 0.042329
7030.0 0.03905
7050.0 0.034468
7070.0 0.03024
7090.0 0.027677
7110.0 0.027318
7130.0 0.027249
7150.0 0.024777
7170.0 0.023344
7190.0 0.025064
7210.0 0.028593
7230.0 0.033122
7250.0 0.035462
7270.0 0.035376
7290.0 0.032557
7310.0 0.029846
7330.0 0.028347
7350.0 0.02833
7370.0 0.028934
7390.0 0.030206
7410.0 0.033251
7430.0 0.038569
7450.0 0.043931
7470.0 0.046876
7490.0 0.0464
7510.0 0.043468
7530.0 0.036798
7550.0 0.032832
7570.0 0.028824
7590.0 0.026834
7610.0 0.02767
7630.0 0.0302
7650.0 0.03354
7670.0 0.036712
7690.0 0.038737
7710.0 0.041029
7730.0 0.043482
7750.0 0.045569
7770.0 0.044964
7790.0 0.044988
7810.0 0.045816
7830.0 0.045965
7850.0 0.044414
7870.0 0.042626
7890.0 0.042288
7910.0 0.040466
7930.0 0.039753
7950.0 0.037551
7970.0 0.036535
7990.0 0.035267
8010.0 0.036169
8030.0 0.036339
8050.0 0.036571
8070.0 0.036072
8090.0 0.035767
8110.0 0.03426
8130.0 0.03405
8150.0 0.033429
8170.0 0.032438
8190.0 0.031719
8210.0 0.03164
8230.0 0.030661
8250.0 0.02972
8270.0 0.026583
8290.0 0.021482
8310.0 0.015971
8330.0 0.012149
8350.0 0.011233
8370.0 0.0134
8390.0 0.016287
8410.0 0.017689
8430.0 0.018251
8450.0 0.019114
8470.0 0.020319
8490.0 0.022678
8510.0 0.025834
8530.0 0.029796
8550.0 0.033718
8570.0 0.037051
8590.0 0.039621
8610.0 0.041168
8630.0 0.04141
8650.0 0.041063
8670.0 0.040983
8690.0 0.042792
8710.0 0.045147
8730.0 0.046831
8750.0 0.046519
8770.0 0.047007
8790.0 0.046638
8810.0 0.043611
8830.0 0.041253
8850.0 0.038069
8870.0 0.035479
8890.0 0.034487
8910.0 0.034598
8930.0 0.032687
8950.0 0.030639
8970.0 0.029773
8990.0 0.029396
9010.0 0.028236
9030.0 0.027597
9050.0 0.027379
9070.0 0.027278
9090.0 0.02719
9110.0 0.027105
9130.0 0.027018
9150.0 0.026933
9170.0 0.026833
9190.0 0.026753
9210.0 0.026803
9230.0 0.026667
9250.0 0.026556
9270.0 0.026457
9290.0 0.026366
9310.0 0.026278
9330.0 0.026194
9350.0 0.026115
9370.0 0.026037
9390.0 0.025956
9410.0 0.025879
9430.0 0.0258
9450.0 0.025691
9470.0 0.025593
9490.0 0.025545
9510.0 0.025482
9530.0 0.025415
9550.0 0.025346
9570.0 0.025276
9590.0 0.025203
9610.0 0.02513
9630.0 0.025058
9650.0 0.024986
9670.0 0.024913
9690.0 0.024841
9710.0 0.024769
9730.0 0.024697
9750.0 0.024625
9770.0 0.024553
9790.0 0.024482
9810.0 0.024409
9830.0 0.024337
9850.0 0.024266
9870.0 0.024193
9890.0 0.02412
9910.0 0.024047
9930.0 0.023971
9950.0 0.023702
9970.0 0.023685
9990.0 0.023658
10010.0 0.023623
10030.0 0.023572
10050.0 0.023507
10070.0 0.023438
10090.0 0.02337
10110.0 0.02329
10130.0 0.023215
10150.0 0.023138
10170.0 0.023054
10190.0 0.022964
10210.0 0.022881
10230.0 0.0228
10250.0 0.022711
10270.0 0.022621
10290.0 0.022538
10310.0 0.022447
10330.0 0.022348
10350.0 0.022257
10370.0 0.022165
10390.0 0.022064
10410.0 0.021963
10430.0 0.02187
10450.0 0.021767
10470.0 0.021659
10490.0 0.021556
10510.0 0.021452
10530.0 0.021334
10550.0 0.02122
10570.0 0.021111
10590.0 0.020994
10610.0 0.020871
10630.0 0.020754
10650.0 0.020635
10670.0 0.020503
10690.0 0.020374
10710.0 0.020248
10730.0 0.020113
10750.0 0.01997
10770.0 0.019837
10790.0 0.0197
10810.0 0.019552
10830.0 0.019406
10850.0 0.019265
10870.0 0.019107
10890.0 0.018946
10910.0 0.01879
10930.0 0.018625
10950.0 0.018445
10970.0 0.018262
10990.0 0.018078
11010.0 0.018657
11030.0 0.018431
11050.0 0.018212
11070.0 0.017989
11090.0 0.017753
11110.0 0.017536
11130.0 0.017329
11150.0 0.01712
11170.0 0.016915
11190.0 0.016727
11210.0 0.016537
11230.0 0.016344
11250.0 0.01616
11270.0 0.015981
11290.0 0.015795
11310.0 0.015608
11330.0 0.015434
11350.0 0.015255
11370.0 0.015068
11390.0 0.014886
11410.0 0.014703
11430.0 0.014502
11450.0 0.014298
11470.0 0.014093
11490.0 0.013872
11510.0 0.013633
11530.0 0.013395
11550.0 0.013148
11570.0 0.012881
11590.0 0.012608
11610.0 0.012337
11630.0 0.01205
11650.0 0.011752
11670.0 0.011467
11690.0 0.011183
11710.0 0.010891
11730.0 0.010609
11750.0 0.010344
11770.0 0.010076
11790.0 0.0098138
11810.0 0.0095696
11830.0 0.0093352
11850.0 0.0090986
11870.0 0.008879
11890.0 0.0086754
11910.0 0.0084741
11930.0 0.0082789
11950.0 0.0080988
11970.0 0.0079243
11990.0 0.0077498
12010.0 0.0075871
12030.0 0.0074347
12050.0 0.0072852
12070.0 0.0071409
12090.0 0.0070132
12110.0 0.0068925
12130.0 0.0067788
12150.0 0.0066784
12170.0 0.0065915
12190.0 0.0065125
12210.0 0.0064478
12230.0 0.0063984
12250.0 0.0063619
12270.0 0.0063392
12290.0 0.0063311
12310.0 0.006336
12330.0 0.0063553
12350.0 0.0063883
12370.0 0.0064322
12390.0 0.0064887
12410.0 0.0065613
12430.0 0.0066401
12450.0 0.0067267
12470.0 0.0068248
12490.0 0.0069295
12510.0 0.0070331
12530.0 0.0071427
12550.0 0.0072554
12570.0 0.0073613
12590.0 0.0074606
12610.0 0.0075566
12630.0 0.0076409
12650.0 0.0077068
12670.0 0.0077602
12690.0 0.0077974
12710.0 0.0078148
12730.0 0.0078141
12750.0 0.007795
12770.0 0.0077571
12790.0 0.0077033
12810.0 0.0076338
12830.0 0.0075493
12850.0 0.0074572
12870.0 0.0073578
12890.0 0.0072498
12910.0 0.0071397
12930.0 0.0070315
12950.0 0.0069205
12970.0 0.0068098
12990.0 0.0067067
13010.0 0.0066068
13030.0 0.0065081
13050.0 0.0064144
13070.0 0.0063267
13090.0 0.0062389
13110.0 0.0061528
13130.0 0.0060708
13150.0 0.0059899
13170.0 0.0059066
13190.0 0.0058266
13210.0 0.0057495
13230.0 0.0056719
13250.0 0.005596
13270.0 0.0055256
13290.0 0.0054585
13310.0 0.0053946
13330.0 0.0053388
13350.0 0.005291
13370.0 0.0052502
13390.0 0.0052178
13410.0 0.0051948
13430.0 0.0051786
13450.0 0.0051688
13470.0 0.0051636
13490.0 0.0051606
13510.0 0.0051584
13530.0 0.0051538
13550.0 0.0051448
13570.0 0.0051298
13590.0 0.0051065
13610.0 0.0050751
13630.0 0.0050358
13650.0 0.0049866
13670.0 0.0049294
13690.0 0.0048675
13710.0 0.0047999
13730.0 0.0047257
13750.0 0.0046539
13770.0 0.0045832
13790.0 0.0045125
13810.0 0.0044457
13830.0 0.0043859
13850.0 0.0043295
13870.0 0.0042781
13890.0 0.0042341
13910.0 0.0041958
13930.0 0.0041616
13950.0 0.0041323
13970.0 0.0041081
13990.0 0.0040862
14010.0 0.0040665
14030.0 0.0040487
14050.0 0.0040317
14070.0 0.0040139
14090.0 0.0039956
14110.0 0.0039763
14130.0 0.0039549
14150.0 0.0039306
14170.0 0.0039049
14190.0 0.0038769
14210.0 0.0038458
14230.0 0.0038131
14250.0 0.00378
14270.0 0.0037449
14290.0 0.0037093
14310.0 0.0036761
14330.0 0.0036444
14350.0 0.0036141
14370.0 0.0035874
14390.0 0.0035648
14410.0 0.0035451
14430.0 0.0035292
14450.0 0.0035174
14470.0 0.003509
14490.0 0.0035037
14510.0 0.0035013
14530.0 0.0035014
14550.0 0.0035036
14570.0 0.003508
14590.0 0.0035142
14610.0 0.0035226
14630.0 0.0035338
14650.0 0.0035474
14670.0 0.0035636
14690.0 0.0035837
14710.0 0.003608
14730.0 0.0036345
14750.0 0.0036654
14770.0 0.0037013
14790.0 0.0037406
14810.0 0.0037832
14830.0 0.0038335
14850.0 0.0038883
14870.0 0.003946
14890.0 0.0040094
14910.0 0.0040784
14930.0 0.0041467
14950.0 0.0042129
14970.0 0.0042778
14990.0 0.004335
15010.0 0.0043813
15030.0 0.0044184
15050.0 0.0044462
15070.0 0.0044639
15090.0 0.0044754
15110.0 0.0044826
15130.0 0.004487
15150.0 0.0044898
15170.0 0.0044919
15190.0 0.0044936
15210.0 0.0044953
15230.0 0.004497
15250.0 0.0044988
15270.0 0.0045006
15290.0 0.0045026
15310.0 0.0045046
15330.0 0.0045067
15350.0 0.0045089
15370.0 0.0045111
15390.0 0.0045134
15410.0 0.0045157
15430.0 0.0045182
15450.0 0.0045207
15470.0 0.0045232
15490.0 0.0045258
15510.0 0.0045285
15530.0 0.0045312
15550.0 0.0045339
15570.0 0.0045368
15590.0 0.0045396
15610.0 0.0045424
15630.0 0.0045454
15650.0 0.0045484
15670.0 0.0045514
15690.0 0.0045544
15710.0 0.0045576
15730.0 0.0045606
15750.0 0.0045637
15770.0 0.0045669
15790.0 0.0045701
15810.0 0.0045732
15830.0 0.0045764
15850.0 0.0045797
15870.0 0.0045829
15890.0 0.0045861
15910.0 0.0045894
15930.0 0.0045927
15950.0 0.0045959
15970.0 0.0045991
15990.0 0.0046024
16010.0 0.0046056
16030.0 0.0046088
16050.0 0.004612
16070.0 0.0046152
16090.0 0.0046183
16110.0 0.0046215
16130.0 0.0046247
16150.0 0.0046277
16170.0 0.0046307
16190.0 0.0046338
16210.0 0.0046368
16230.0 0.0046397
16250.0 0.0046426
16270.0 0.0046455
16290.0 0.0046483
16310.0 0.0046511
16330.0 0.0046538
16350.0 0.0046565
16370.0 0.004659
16390.0 0.0046615
16410.0 0.004664
16430.0 0.0046664
16450.0 0.0046687
16470.0 0.004671
16490.0 0.0046732
16510.0 0.0046752
16530.0 0.0046773
16550.0 0.0046792
16570.0 0.004681
16590.0 0.0046827
16610.0 0.0046844
16630.0 0.0046859
16650.0 0.0046873
16670.0 0.0046887
16690.0 0.00469
16710.0 0.004691
16730.0 0.004692
16750.0 0.0046929
16770.0 0.0046937
16790.0 0.0046943
16810.0 0.0046949
16830.0 0.0046953
16850.0 0.0046955
16870.0 0.0046957
16890.0 0.0046957
16910.0 0.0046956
16930.0 0.0046952
16950.0 0.0046949
16970.0 0.0046943
16990.0 0.0046936
17010.0 0.0046927
17030.0 0.0046918
17050.0 0.0046906
17070.0 0.0046893
17090.0 0.0046878
17110.0 0.0046862
17130.0 0.0046843
17150.0 0.0046824
17170.0 0.0046803
17190.0 0.004678
17210.0 0.0046755
17230.0 0.004673
17250.0 0.0046702
17270.0 0.0046672
17290.0 0.004664
17310.0 0.0046607
17330.0 0.0046572
17350.0 0.0046535
17370.0 0.0046497
17390.0 0.0046457
17410.0 0.0046414
17430.0 0.004637
17450.0 0.0046325
17470.0 0.0046276
17490.0 0.0046227
17510.0 0.0046176
17530.0 0.0046122
17550.0 0.0046067
17570.0 0.004601
17590.0 0.0045952
17610.0 0.0045891
17630.0 0.0045828
17650.0 0.0045764
17670.0 0.0045698
17690.0 0.0045629
17710.0 0.0045559
17730.0 0.0045487
17750.0 0.0045413
17770.0 0.0045337
17790.0 0.0045261
17810.0 0.0045181
17830.0 0.0045099
17850.0 0.0045017
17870.0 0.0044932
17890.0 0.0044845
17910.0 0.0044757
17930.0 0.0044667
17950.0 0.0044575
17970.0 0.0044481
17990.0 0.0044386
18010.0 0.0044289
18030.0 0.004419
18050.0 0.0044089
18070.0 0.0043987
18090.0 0.0043883
18110.0 0.0043778
18130.0 0.0043671
18150.0 0.0043562
18170.0 0.0043452
18190.0 0.004334
18210.0 0.0043227
18230.0 0.0043112
18250.0 0.0042995
18270.0 0.0042878
18290.0 0.0042759
18310.0 0.0042638
18330.0 0.0042516
18350.0 0.0042393
18370.0 0.0042267
18390.0 0.0042141
18410.0 0.0042014
18430.0 0.0041885
18450.0 0.0041755
18470.0 0.0041624
18490.0 0.0041492
18510.0 0.0041358
18530.0 0.0041224
18550.0 0.0041089
18570.0 0.0040952
18590.0 0.0040814
18610.0 0.0040675
18630.0 0.0040535
18650.0 0.0040394
18670.0 0.0040253
18690.0 0.0040111
18710.0 0.0039967
18730.0 0.0039823
18750.0 0.0039678
18770.0 0.0039533
18790.0 0.0039385
18810.0 0.0039238
18830.0 0.0039091
18850.0 0.0038942
18870.0 0.0038792
18890.0 0.0038643
18910.0 0.0038493
18930.0 0.0038342
18950.0 0.0038191
18970.0 0.0038039
18990.0 0.0037887
19010.0 0.0037734
19030.0 0.0037581
19050.0 0.0037428
19070.0 0.0037274
19090.0 0.003712
19110.0 0.0036966
19130.0 0.0036811
19150.0 0.0036656
19170.0 0.0036502
19190.0 0.0036347
19210.0 0.0036191
19230.0 0.0036036
19250.0 0.0035881
19270.0 0.0035726
19290.0 0.003557
19310.0 0.0035415
19330.0 0.003526
19350.0 0.0035104
19370.0 0.0034949
19390.0 0.0034794
19410.0 0.0034639
19430.0 0.0034484
19450.0 0.0034329
19470.0 0.0034175
19490.0 0.003402
19510.0 0.0033866
19530.0 0.0033713
19550.0 0.0033559
19570.0 0.0033406
19590.0 0.0033253
19610.0 0.0033101
19630.0 0.0032948
19650.0 0.0032797
19670.0 0.0032645
19690.0 0.0032494
19710.0 0.0032343
19730.0 0.0032194
19750.0 0.0032044
19770.0 0.0031894
19790.0 0.0031746
19810.0 0.0031597
19830.0 0.0031449
19850.0 0.0031299
19870.0 0.0031148
19890.0 0.003099
19910.0 0.0030821
19930.0 0.0030635
19950.0 0.0030422
19970.0 0.0030167
19990.0 0.0029862
20010.0 0.0029514
20030.0 0.0029104
20050.0 0.0028635
20070.0 0.0028136
20090.0 0.0027611
20110.0 0.002704
20130.0 0.0026476
20150.0 0.0025928
20170.0 0.0025377
20190.0 0.0024831
20210.0 0.0024319
20230.0 0.0023824
20250.0 0.0023332
20270.0 0.0022868
20290.0 0.0022433
20310.0 0.0022008
20330.0 0.0021591
20350.0 0.0021215
20370.0 0.0020851
20390.0 0.0020497
20410.0 0.0020165
20430.0 0.0019858
20450.0 0.0019554
20470.0 0.0019268
20490.0 0.0019006
20510.0 0.0018759
20530.0 0.0018523
20550.0 0.001831
20570.0 0.0018118
20590.0 0.0017938
20610.0 0.0017776
20630.0 0.0017634
20650.0 0.0017508
20670.0 0.0017395
20690.0 0.00173
20710.0 0.0017219
20730.0 0.001715
20750.0 0.0017094
20770.0 0.0017046
20790.0 0.0017008
20810.0 0.0016977
20830.0 0.001695
20850.0 0.0016927
20870.0 0.0016907
20890.0 0.0016886
20910.0 0.0016862
20930.0 0.0016835
20950.0 0.0016804
20970.0 0.0016765
20990.0 0.0016719
21010.0 0.0016665
21030.0 0.0016602
21050.0 0.0016528
21070.0 0.0016444
21090.0 0.0016349
21110.0 0.0016245
21130.0 0.0016132
21150.0 0.0016008
21170.0 0.0015875
21190.0 0.0015738
21210.0 0.0015591
21230.0 0.0015435
21250.0 0.0015277
21270.0 0.0015116
21290.0 0.0014948
21310.0 0.0014778
21330.0 0.0014612
21350.0 0.0014442
21370.0 0.0014271
21390.0 0.0014106
21410.0 0.0013945
21430.0 0.0013782
21450.0 0.0013629
21470.0 0.0013486
21490.0 0.0013348
21510.0 0.0013218
21530.0 0.0013102
21550.0 0.0012997
21570.0 0.0012901
21590.0 0.0012818
21610.0 0.0012749
21630.0 0.0012692
21650.0 0.0012648
21670.0 0.0012617
21690.0 0.0012597
21710.0 0.0012589
21730.0 0.001259
21750.0 0.0012598
21770.0 0.0012617
21790.0 0.0012642
21810.0 0.0012669
21830.0 0.00127
21850.0 0.0012735
21870.0 0.0012768
21890.0 0.0012798
21910.0 0.0012828
21930.0 0.0012854
21950.0 0.0012873
21970.0 0.0012888
21990.0 0.00129
22010.0 0.0012903
22030.0 0.0012899
22050.0 0.001289
22070.0 0.0012875
22090.0 0.0012853
22110.0 0.0012826
22130.0 0.0012795
22150.0 0.0012758
22170.0 0.0012717
22190.0 0.0012672
22210.0 0.0012623
22230.0 0.0012571
22250.0 0.0012516
22270.0 0.0012457
22290.0 0.0012394
22310.0 0.0012329
22330.0 0.0012258
22350.0 0.0012182
22370.0 0.0012103
22390.0 0.0012017
22410.0 0.0011923
22430.0 0.0011826
22450.0 0.0011722
22470.0 0.0011607
22490.0 0.0011487
22510.0 0.0011362
22530.0 0.0011226
22550.0 0.0011081
22570.0 0.0010934
22590.0 0.0010782
22610.0 0.0010621
22630.0 0.0010459
22650.0 0.00103
22670.0 0.0010135
22690.0 0.00099698
22710.0 0.00098112
22730.0 0.00096562
22750.0 0.00094984
22770.0 0.00093516
22790.0 0.00092146
22810.0 0.00090813
22830.0 0.00089549
22850.0 0.00088408
22870.0 0.00087336
22890.0 0.00086313
22910.0 0.00085392
22930.0 0.00084557
22950.0 0.0008377
22970.0 0.00083034
22990.0 0.00082385
23010.0 0.0008177
23030.0 0.0008118
23050.0 0.00080626
23070.0 0.000801
23090.0 0.00079562
23110.0 0.00079029
23130.0 0.00078503
23150.0 0.00077962
23170.0 0.00077394
23190.0 0.0007682
23210.0 0.00076242
23230.0 0.00075633
23250.0 0.00075013
23270.0 0.00074404
23290.0 0.00073786
23310.0 0.00073153
23330.0 0.00072553
23350.0 0.00071972
23370.0 0.00071396
23390.0 0.00070841
23410.0 0.00070325
23430.0 0.00069817
23450.0 0.00069321
23470.0 0.00068853
23490.0 0.00068401
23510.0 0.00067947
23530.0 0.00067504
23550.0 0.00067082
23570.0 0.00066655
23590.0 0.00066227
23610.0 0.00065812
23630.0 0.00065403
23650.0 0.00064987
23670.0 0.00064588
23690.0 0.00064208
23710.0 0.00063843
23730.0 0.00063498
23750.0 0.00063197
23770.0 0.00062936
23790.0 0.00062722
23810.0 0.00062572
23830.0 0.0006249
23850.0 0.00062492
23870.0 0.00062593
23890.0 0.00062782
23910.0 0.00063072
23930.0 0.00063486
23950.0 0.00064
23970.0 0.00064587
23990.0 0.00065299
24010.0 0.00066108
24030.0 0.0006696
24050.0 0.00067874
24070.0 0.00068902
