#lamb flux
1010.0 1.6741e-08
1030.0 1.8433e-08
1050.0 2.0379e-08
1070.0 2.257e-08
1090.0 2.5059e-08
1110.0 2.7611e-08
1130.0 3.018e-08
1150.0 3.2871e-08
1170.0 3.5646e-08
1190.0 3.8278e-08
1210.0 4.0946e-08
1230.0 4.3702e-08
1250.0 4.6403e-08
1270.0 4.9026e-08
1290.0 5.1797e-08
1310.0 5.4566e-08
1330.0 5.7222e-08
1350.0 5.9908e-08
1370.0 6.2681e-08
1390.0 6.5384e-08
1410.0 6.8007e-08
1430.0 7.0749e-08
1450.0 7.3491e-08
1470.0 7.6141e-08
1490.0 7.882e-08
1510.0 8.165e-08
1530.0 8.4331e-08
1550.0 8.6976e-08
1570.0 8.9714e-08
1590.0 9.2453e-08
1610.0 9.5072e-08
1630.0 9.7772e-08
1650.0 1.0054e-07
1670.0 1.0323e-07
1690.0 1.0587e-07
1710.0 1.0863e-07
1730.0 1.1139e-07
1750.0 1.14e-07
1770.0 1.1668e-07
1790.0 1.1942e-07
1810.0 1.2207e-07
1830.0 1.2468e-07
1850.0 1.2745e-07
1870.0 1.3015e-07
1890.0 1.3276e-07
1910.0 1.3542e-07
1930.0 1.3815e-07
1950.0 1.4076e-07
1970.0 1.4334e-07
1990.0 1.4602e-07
2010.0 1.4865e-07
2030.0 1.5119e-07
2050.0 1.538e-07
2070.0 1.5648e-07
2090.0 1.5901e-07
2110.0 1.6152e-07
2130.0 1.6411e-07
2150.0 1.6665e-07
2170.0 1.6906e-07
2190.0 1.7157e-07
2210.0 1.7408e-07
2230.0 1.7648e-07
2250.0 1.7886e-07
2270.0 1.8134e-07
2290.0 1.8373e-07
2310.0 1.8601e-07
2330.0 1.8838e-07
2350.0 1.908e-07
2370.0 1.932e-07
2390.0 1.9581e-07
2410.0 1.9895e-07
2430.0 2.026e-07
2450.0 2.0702e-07
2470.0 2.1277e-07
2490.0 2.2009e-07
2510.0 2.2846e-07
2530.0 2.386e-07
2550.0 2.5134e-07
2570.0 2.6723e-07
2590.0 2.8788e-07
2610.0 3.188e-07
2630.0 3.6279e-07
2650.0 4.2007e-07
2670.0 4.9386e-07
2690.0 5.8418e-07
2710.0 6.8012e-07
2730.0 7.7441e-07
2750.0 8.6678e-07
2770.0 9.4648e-07
2790.0 1.0091e-06
2810.0 1.058e-06
2830.0 1.0956e-06
2850.0 1.1203e-06
2870.0 1.1378e-06
2890.0 1.1511e-06
2910.0 1.1612e-06
2930.0 1.1691e-06
2950.0 1.1765e-06
2970.0 1.1837e-06
2990.0 1.1904e-06
3010.0 3.4804e-05
3030.0 3.4995e-05
3050.0 3.518e-05
3070.0 3.5331e-05
3090.0 3.5454e-05
3110.0 3.5509e-05
3130.0 3.5449e-05
3150.0 3.5238e-05
3170.0 3.4809e-05
3190.0 3.4167e-05
3210.0 3.3368e-05
3230.0 3.2461e-05
3250.0 3.1554e-05
3270.0 3.0887e-05
3290.0 3.0477e-05
3310.0 3.049e-05
3330.0 3.0881e-05
3350.0 3.1602e-05
3370.0 3.2654e-05
3390.0 3.3992e-05
3410.0 3.5456e-05
3430.0 3.7104e-05
3450.0 3.9004e-05
3470.0 4.1084e-05
3490.0 4.3294e-05
3510.0 4.5796e-05
3530.0 4.8485e-05
3550.0 5.1238e-05
3570.0 5.4141e-05
3590.0 5.7311e-05
3610.0 6.0631e-05
3630.0 6.393e-05
3650.0 6.7366e-05
3670.0 7.0489e-05
3690.0 7.2815e-05
3710.0 7.4109e-05
3730.0 7.3984e-05
3750.0 7.2615e-05
3770.0 7.2761e-05
3790.0 7.2257e-05
3810.0 6.7596e-05
3830.0 6.9173e-05
3850.0 8.1904e-05
3870.0 8.5937e-05
3890.0 8.1198e-05
3910.0 7.9989e-05
3930.0 8.448e-05
3950.0 8.8738e-05
3970.0 8.4217e-05
3990.0 6.7983e-05
4010.0 0.00019146
4030.0 0.00022622
4050.0 0.00025902
4070.0 0.00023289
4090.0 0.00021212
4110.0 0.00018498
4130.0 0.00017867
4150.0 0.0002008
4170.0 0.00018804
4190.0 0.00019358
4210.0 0.00019662
4230.0 0.00021453
4250.0 0.00025532
4270.0 0.0002627
4290.0 0.00023896
4310.0 0.00024215
4330.0 0.00025325
4350.0 0.00029166
4370.0 0.00033726
4390.0 0.00030493
4410.0 0.00021284
4430.0 0.00017525
4450.0 0.0001619
4470.0 0.00011908
4490.0 0.00013831
4510.0 0.00022872
4530.0 0.00026782
4550.0 0.00026395
4570.0 0.00028184
4590.0 0.00031633
4610.0 0.00046645
4630.0 0.0006199
4650.0 0.00064991
4670.0 0.00059396
4690.0 0.00057392
4710.0 0.0006043
4730.0 0.00055383
4750.0 0.00040282
4770.0 0.00029021
4790.0 0.00028027
4810.0 0.00027381
4830.0 0.00025532
4850.0 0.00027902
4870.0 0.00036883
4890.0 0.00043285
4910.0 0.00036988
4930.0 0.00033497
4950.0 0.00037239
4970.0 0.00048111
4990.0 0.00065173
5010.0 0.00075209
5030.0 0.00064841
5050.0 0.00042987
5070.0 0.00028804
5090.0 0.00022817
5110.0 0.00022956
5130.0 0.00026801
5150.0 0.00028395
5170.0 0.00027691
5190.0 0.0002558
5210.0 0.00027158
5230.0 0.00029596
5250.0 0.00032498
5270.0 0.00033825
5290.0 0.00037208
5310.0 0.00044761
5330.0 0.00049313
5350.0 0.00048912
5370.0 0.00052139
5390.0 0.00061125
5410.0 0.00058892
5430.0 0.00050591
5450.0 0.00047433
5470.0 0.00051362
5490.0 0.0006301
5510.0 0.00078174
5530.0 0.00089936
5550.0 0.0008561
5570.0 0.0007763
5590.0 0.00066657
5610.0 0.00062773
5630.0 0.00063133
5650.0 0.00059502
5670.0 0.00055921
5690.0 0.00048788
5710.0 0.00048192
5730.0 0.00044948
5750.0 0.00029961
5770.0 0.00022902
5790.0 0.0002641
5810.0 0.00029331
5830.0 0.00037935
5850.0 0.00046254
5870.0 0.00051016
5890.0 0.00051162
5910.0 0.00050136
5930.0 0.0004778
5950.0 0.00048798
5970.0 0.00056843
5990.0 0.00051746
6010.0 0.00042585
6030.0 0.00035735
6050.0 0.00031296
6070.0 0.00032433
6090.0 0.00035433
6110.0 0.00038744
6130.0 0.00038551
6150.0 0.00032526
6170.0 0.00027766
6190.0 0.00031641
6210.0 0.00043548
6230.0 0.00058948
6250.0 0.000639
6270.0 0.00054096
6290.0 0.00045721
6310.0 0.00035499
6330.0 0.00026886
6350.0 0.00024518
6370.0 0.00025771
6390.0 0.00029993
6410.0 0.00037474
6430.0 0.00044097
6450.0 0.00051352
6470.0 0.00057507
6490.0 0.00069247
6510.0 0.0007747
6530.0 0.00076915
6550.0 0.00069864
6570.0 0.00058245
6590.0 0.00053133
6610.0 0.00045335
6630.0 0.00042617
6650.0 0.00040665
6670.0 0.00038269
6690.0 0.00033153
6710.0 0.00030699
6730.0 0.00019707
6750.0 0.00020842
6770.0 0.00025003
6790.0 0.00029995
6810.0 0.00025431
6830.0 0.00026123
6850.0 0.0002367
6870.0 0.00021716
6890.0 0.00020207
6910.0 0.00022301
6930.0 0.00020928
6950.0 0.00022404
6970.0 0.00023536
6990.0 0.00026558
7010.0 0.00026402
7030.0 0.0002783
7050.0 0.0002584
7070.0 0.0002374
7090.0 0.00024268
7110.0 0.00025248
7130.0 0.00027713
7150.0 0.00029968
7170.0 0.00033249
7190.0 0.00036326
7210.0 0.00034761
7230.0 0.00035603
7250.0 0.00038175
7270.0 0.00041339
7290.0 0.00049659
7310.0 0.00053647
7330.0 0.00051526
7350.0 0.00046505
7370.0 0.00038874
7390.0 0.00038213
7410.0 0.00042082
7430.0 0.00047115
7450.0 0.00051173
7470.0 0.00049539
7490.0 0.00043425
7510.0 0.00054026
7530.0 0.0005231
7550.0 0.00047806
7570.0 0.00035958
7590.0 0.00022389
7610.0 0.00018561
7630.0 0.00022262
7650.0 0.00027083
7670.0 0.00035873
7690.0 0.00039567
7710.0 0.00039732
7730.0 0.00041228
7750.0 0.00048209
7770.0 0.00049155
7790.0 0.00045065
7810.0 0.00039793
7830.0 0.00041598
7850.0 0.00041806
7870.0 0.00039046
7890.0 0.0003211
7910.0 0.00024853
7930.0 0.00024267
7950.0 0.00022073
7970.0 0.0001995
7990.0 0.00019405
8010.0 3.6862e-05
8030.0 3.3732e-05
8050.0 3.6032e-05
8070.0 4.0951e-05
8090.0 5.0418e-05
8110.0 4.7896e-05
8130.0 2.8516e-05
8150.0 3.0078e-05
8170.0 1.6972e-05
8190.0 1.0479e-05
8210.0 2.7943e-05
8230.0 3.38e-05
8250.0 1.4646e-05
8270.0 1.1491e-05
8290.0 2.1199e-05
8310.0 1.8872e-05
8330.0 1.1855e-05
8350.0 9.23e-06
8370.0 2.1915e-06
8390.0 1.0062e-05
8410.0 1.1432e-05
8430.0 1.4109e-05
8450.0 1.6125e-05
8470.0 2.6519e-05
8490.0 2.2312e-05
8510.0 1.7772e-05
8530.0 1.065e-05
8550.0 3.1323e-05
8570.0 4.6503e-05
8590.0 3.4292e-05
8610.0 5.0518e-05
8630.0 5.6269e-05
8650.0 3.5487e-05
8670.0 4.8419e-05
8690.0 6.8902e-05
8710.0 5.9175e-05
8730.0 6.1927e-05
8750.0 4.9199e-05
8770.0 4.4042e-05
8790.0 4.7792e-05
8810.0 5.1056e-05
8830.0 2.9679e-05
8850.0 1.3575e-05
8870.0 9.4895e-06
8890.0 2.0803e-05
8910.0 3.2297e-05
8930.0 4.2692e-05
8950.0 4.6458e-05
8970.0 4.4684e-05
8990.0 3.3033e-05
9010.0 9.3607e-05
9030.0 7.892e-05
9050.0 8.0115e-05
9070.0 8.1578e-05
9090.0 8.2808e-05
9110.0 8.4326e-05
9130.0 8.5443e-05
9150.0 8.6259e-05
9170.0 8.7126e-05
9190.0 8.8054e-05
9210.0 8.9029e-05
9230.0 9.0059e-05
9250.0 9.1098e-05
9270.0 9.2173e-05
9290.0 9.3277e-05
9310.0 9.4378e-05
9330.0 9.5495e-05
9350.0 9.6653e-05
9370.0 9.7816e-05
9390.0 9.8983e-05
9410.0 0.00010018
9430.0 0.00010142
9450.0 0.00010263
9470.0 0.00010387
9490.0 0.00010515
9510.0 0.00010644
9530.0 0.00010772
9550.0 0.00010905
9570.0 0.0001104
9590.0 0.00011175
9610.0 0.00011312
9630.0 0.00011453
9650.0 0.00011594
9670.0 0.00011736
9690.0 0.00011881
9710.0 0.00012028
9730.0 0.00012175
9750.0 0.00012324
9770.0 0.00012479
9790.0 0.00012632
9810.0 0.00012786
9830.0 0.00012943
9850.0 0.00013102
9870.0 0.0001326
9890.0 0.00013421
9910.0 0.00013585
9930.0 0.00013749
9950.0 0.00013913
9970.0 0.00014081
9990.0 0.00014251
10010.0 0.00012443
10030.0 0.0001259
10050.0 0.00012739
10070.0 0.0001289
10090.0 0.00013037
10110.0 0.00013188
10130.0 0.0001334
10150.0 0.0001349
10170.0 0.00013642
10190.0 0.00013797
10210.0 0.00013949
10230.0 0.00014101
10250.0 0.00014256
10270.0 0.0001441
10290.0 0.00014562
10310.0 0.00014717
10330.0 0.00014873
10350.0 0.00015026
10370.0 0.00015178
10390.0 0.00015333
10410.0 0.00015487
10430.0 0.00015637
10450.0 0.00015789
10470.0 0.00015942
10490.0 0.00016092
10510.0 0.0001624
10530.0 0.00016392
10550.0 0.0001654
10570.0 0.00016686
10590.0 0.00016832
10610.0 0.00016978
10630.0 0.0001712
10650.0 0.00017261
10670.0 0.00017403
10690.0 0.00017542
10710.0 0.00017678
10730.0 0.00017815
10750.0 0.00017952
10770.0 0.00018082
10790.0 0.00018212
10810.0 0.00018341
10830.0 0.00018466
10850.0 0.00018585
10870.0 0.00018702
10890.0 0.00018806
10910.0 0.0001889
10930.0 0.00018946
10950.0 0.00018957
10970.0 0.00018908
10990.0 0.00018793
11010.0 0.00017537
11030.0 0.00017261
11050.0 0.00016921
11070.0 0.00016513
11090.0 0.00016022
11110.0 0.00015514
11130.0 0.00014984
11150.0 0.00014414
11170.0 0.00013827
11190.0 0.00013259
11210.0 0.00012673
11230.0 0.00012074
11250.0 0.00011502
11270.0 0.00010953
11290.0 0.00010404
11310.0 9.8843e-05
11330.0 9.4262e-05
11350.0 8.9933e-05
11370.0 8.5927e-05
11390.0 8.2451e-05
11410.0 7.9399e-05
11430.0 7.6552e-05
11450.0 7.4085e-05
11470.0 7.1937e-05
11490.0 6.9928e-05
11510.0 6.7986e-05
11530.0 6.6178e-05
11550.0 6.4382e-05
11570.0 6.2472e-05
11590.0 6.0501e-05
11610.0 5.8502e-05
11630.0 5.6336e-05
11650.0 5.4028e-05
11670.0 5.1758e-05
11690.0 4.946e-05
11710.0 4.7096e-05
11730.0 4.4806e-05
11750.0 4.2684e-05
11770.0 4.0604e-05
11790.0 3.8651e-05
11810.0 3.6926e-05
11830.0 3.5378e-05
11850.0 3.3946e-05
11870.0 3.274e-05
11890.0 3.1728e-05
11910.0 3.0833e-05
11930.0 3.0056e-05
11950.0 2.9402e-05
11970.0 2.8814e-05
11990.0 2.8256e-05
12010.0 2.774e-05
12030.0 2.7243e-05
12050.0 2.6733e-05
12070.0 2.6206e-05
12090.0 2.5699e-05
12110.0 2.5185e-05
12130.0 2.4671e-05
12150.0 2.4193e-05
12170.0 2.3771e-05
12190.0 2.3398e-05
12210.0 2.3122e-05
12230.0 2.2963e-05
12250.0 2.2929e-05
12270.0 2.3049e-05
12290.0 2.3322e-05
12310.0 2.3737e-05
12330.0 2.4337e-05
12350.0 2.5098e-05
12370.0 2.5972e-05
12390.0 2.6986e-05
12410.0 2.8182e-05
12430.0 2.9399e-05
12450.0 3.0661e-05
12470.0 3.2005e-05
12490.0 3.3355e-05
12510.0 3.462e-05
12530.0 3.5878e-05
12550.0 3.709e-05
12570.0 3.8157e-05
12590.0 3.909e-05
12610.0 3.9919e-05
12630.0 4.0575e-05
12650.0 4.1019e-05
12670.0 4.1302e-05
12690.0 4.14e-05
12710.0 4.1305e-05
12730.0 4.1039e-05
12750.0 4.0587e-05
12770.0 3.9975e-05
12790.0 3.9239e-05
12810.0 3.8365e-05
12830.0 3.736e-05
12850.0 3.6311e-05
12870.0 3.5204e-05
12890.0 3.4011e-05
12910.0 3.28e-05
12930.0 3.1608e-05
12950.0 3.0368e-05
12970.0 2.9109e-05
12990.0 2.7919e-05
13010.0 2.6745e-05
13030.0 2.556e-05
13050.0 2.4422e-05
13070.0 2.3356e-05
13090.0 2.2288e-05
13110.0 2.1254e-05
13130.0 2.0299e-05
13150.0 1.9394e-05
13170.0 1.8507e-05
13190.0 1.7716e-05
13210.0 1.7016e-05
13230.0 1.6374e-05
13250.0 1.5818e-05
13270.0 1.5374e-05
13290.0 1.5023e-05
13310.0 1.4773e-05
13330.0 1.4646e-05
13350.0 1.4634e-05
13370.0 1.4743e-05
13390.0 1.4981e-05
13410.0 1.5313e-05
13430.0 1.5751e-05
13450.0 1.63e-05
13470.0 1.6914e-05
13490.0 1.7568e-05
13510.0 1.831e-05
13530.0 1.9067e-05
13550.0 1.9794e-05
13570.0 2.0514e-05
13590.0 2.1219e-05
13610.0 2.185e-05
13630.0 2.2402e-05
13650.0 2.291e-05
13670.0 2.3334e-05
13690.0 2.3664e-05
13710.0 2.3922e-05
13730.0 2.411e-05
13750.0 2.4208e-05
13770.0 2.4237e-05
13790.0 2.4201e-05
13810.0 2.41e-05
13830.0 2.3945e-05
13850.0 2.3734e-05
13870.0 2.3465e-05
13890.0 2.3156e-05
13910.0 2.2807e-05
13930.0 2.2402e-05
13950.0 2.196e-05
13970.0 2.1508e-05
13990.0 2.1016e-05
14010.0 2.0493e-05
14030.0 1.9972e-05
14050.0 1.9446e-05
14070.0 1.8892e-05
14090.0 1.836e-05
14110.0 1.7861e-05
14130.0 1.7377e-05
14150.0 1.6921e-05
14170.0 1.6531e-05
14190.0 1.6193e-05
14210.0 1.5905e-05
14230.0 1.5691e-05
14250.0 1.555e-05
14270.0 1.5479e-05
14290.0 1.5488e-05
14310.0 1.557e-05
14330.0 1.5721e-05
14350.0 1.5947e-05
14370.0 1.6229e-05
14390.0 1.6551e-05
14410.0 1.6932e-05
14430.0 1.7352e-05
14450.0 1.7783e-05
14470.0 1.8231e-05
14490.0 1.8709e-05
14510.0 1.9168e-05
14530.0 1.9606e-05
14550.0 2.0044e-05
14570.0 2.0466e-05
14590.0 2.0851e-05
14610.0 2.1224e-05
14630.0 2.1593e-05
14650.0 2.1937e-05
14670.0 2.2268e-05
14690.0 2.2613e-05
14710.0 2.2976e-05
14730.0 2.3337e-05
14750.0 2.3737e-05
14770.0 2.4191e-05
14790.0 2.4682e-05
14810.0 2.5216e-05
14830.0 2.5847e-05
14850.0 2.6535e-05
14870.0 2.7253e-05
14890.0 2.8029e-05
14910.0 2.8855e-05
14930.0 2.965e-05
14950.0 3.0394e-05
14970.0 3.11e-05
14990.0 3.1695e-05
15010.0 3.2152e-05
15030.0 3.2493e-05
15050.0 3.2723e-05
15070.0 3.2841e-05
15090.0 3.2889e-05
15110.0 3.2889e-05
15130.0 3.2858e-05
15150.0 3.2813e-05
15170.0 3.2757e-05
15190.0 3.2697e-05
15210.0 3.2638e-05
15230.0 3.2579e-05
15250.0 3.2518e-05
15270.0 3.2458e-05
15290.0 3.2401e-05
15310.0 3.2343e-05
15330.0 3.2284e-05
15350.0 3.2228e-05
15370.0 3.2172e-05
15390.0 3.2113e-05
15410.0 3.2056e-05
15430.0 3.2002e-05
15450.0 3.1946e-05
15470.0 3.1889e-05
15490.0 3.1835e-05
15510.0 3.1782e-05
15530.0 3.1726e-05
15550.0 3.1672e-05
15570.0 3.162e-05
15590.0 3.1565e-05
15610.0 3.151e-05
15630.0 3.1458e-05
15650.0 3.1406e-05
15670.0 3.1352e-05
15690.0 3.1299e-05
15710.0 3.1249e-05
15730.0 3.1196e-05
15750.0 3.1142e-05
15770.0 3.1092e-05
15790.0 3.104e-05
15810.0 3.0986e-05
15830.0 3.0934e-05
15850.0 3.0884e-05
15870.0 3.0832e-05
15890.0 3.078e-05
15910.0 3.073e-05
15930.0 3.0679e-05
15950.0 3.0626e-05
15970.0 3.0575e-05
15990.0 3.0524e-05
16010.0 3.0472e-05
16030.0 3.0419e-05
16050.0 3.0369e-05
16070.0 3.0318e-05
16090.0 3.0265e-05
16110.0 3.0214e-05
16130.0 3.0165e-05
16150.0 3.011e-05
16170.0 3.0057e-05
16190.0 3.0007e-05
16210.0 2.9955e-05
16230.0 2.9901e-05
16250.0 2.9849e-05
16270.0 2.9799e-05
16290.0 2.9745e-05
16310.0 2.9691e-05
16330.0 2.964e-05
16350.0 2.9587e-05
16370.0 2.953e-05
16390.0 2.9478e-05
16410.0 2.9425e-05
16430.0 2.937e-05
16450.0 2.9316e-05
16470.0 2.9264e-05
16490.0 2.9208e-05
16510.0 2.9152e-05
16530.0 2.9098e-05
16550.0 2.9043e-05
16570.0 2.8986e-05
16590.0 2.8929e-05
16610.0 2.8875e-05
16630.0 2.8819e-05
16650.0 2.8761e-05
16670.0 2.8705e-05
16690.0 2.8649e-05
16710.0 2.8589e-05
16730.0 2.8531e-05
16750.0 2.8475e-05
16770.0 2.8416e-05
16790.0 2.8355e-05
16810.0 2.8298e-05
16830.0 2.824e-05
16850.0 2.8179e-05
16870.0 2.8119e-05
16890.0 2.8061e-05
16910.0 2.7999e-05
16930.0 2.7936e-05
16950.0 2.7876e-05
16970.0 2.7815e-05
16990.0 2.7752e-05
17010.0 2.769e-05
17030.0 2.763e-05
17050.0 2.7566e-05
17070.0 2.7501e-05
17090.0 2.7439e-05
17110.0 2.7376e-05
17130.0 2.7309e-05
17150.0 2.7245e-05
17170.0 2.7182e-05
17190.0 2.7116e-05
17210.0 2.7049e-05
17230.0 2.6985e-05
17250.0 2.6919e-05
17270.0 2.685e-05
17290.0 2.6784e-05
17310.0 2.6718e-05
17330.0 2.6649e-05
17350.0 2.6579e-05
17370.0 2.6514e-05
17390.0 2.6445e-05
17410.0 2.6375e-05
17430.0 2.6307e-05
17450.0 2.6239e-05
17470.0 2.6166e-05
17490.0 2.6095e-05
17510.0 2.6026e-05
17530.0 2.5956e-05
17550.0 2.5882e-05
17570.0 2.5812e-05
17590.0 2.5742e-05
17610.0 2.5668e-05
17630.0 2.5595e-05
17650.0 2.5525e-05
17670.0 2.5451e-05
17690.0 2.5375e-05
17710.0 2.5303e-05
17730.0 2.523e-05
17750.0 2.5154e-05
17770.0 2.508e-05
17790.0 2.5008e-05
17810.0 2.4931e-05
17830.0 2.4854e-05
17850.0 2.478e-05
17870.0 2.4705e-05
17890.0 2.4627e-05
17910.0 2.4549e-05
17930.0 2.4475e-05
17950.0 2.4398e-05
17970.0 2.432e-05
17990.0 2.4244e-05
18010.0 2.4168e-05
18030.0 2.4087e-05
18050.0 2.4009e-05
18070.0 2.3932e-05
18090.0 2.3853e-05
18110.0 2.3772e-05
18130.0 2.3695e-05
18150.0 2.3617e-05
18170.0 2.3536e-05
18190.0 2.3457e-05
18210.0 2.3379e-05
18230.0 2.3297e-05
18250.0 2.3215e-05
18270.0 2.3137e-05
18290.0 2.3057e-05
18310.0 2.2975e-05
18330.0 2.2894e-05
18350.0 2.2816e-05
18370.0 2.2733e-05
18390.0 2.2651e-05
18410.0 2.2571e-05
18430.0 2.2489e-05
18450.0 2.2405e-05
18470.0 2.2324e-05
18490.0 2.2243e-05
18510.0 2.216e-05
18530.0 2.2077e-05
18550.0 2.1997e-05
18570.0 2.1915e-05
18590.0 2.183e-05
18610.0 2.1748e-05
18630.0 2.1666e-05
18650.0 2.1582e-05
18670.0 2.1498e-05
18690.0 2.1417e-05
18710.0 2.1334e-05
18730.0 2.1249e-05
18750.0 2.1167e-05
18770.0 2.1086e-05
18790.0 2.0999e-05
18810.0 2.0915e-05
18830.0 2.0833e-05
18850.0 2.075e-05
18870.0 2.0664e-05
18890.0 2.0582e-05
18910.0 2.05e-05
18930.0 2.0414e-05
18950.0 2.033e-05
18970.0 2.0248e-05
18990.0 2.0164e-05
19010.0 2.0077e-05
19030.0 1.9995e-05
19050.0 1.9912e-05
19070.0 1.9827e-05
19090.0 1.9742e-05
19110.0 1.9661e-05
19130.0 1.9576e-05
19150.0 1.949e-05
19170.0 1.9408e-05
19190.0 1.9324e-05
19210.0 1.9238e-05
19230.0 1.9154e-05
19250.0 1.9072e-05
19270.0 1.8988e-05
19290.0 1.8903e-05
19310.0 1.8821e-05
19330.0 1.8738e-05
19350.0 1.8651e-05
19370.0 1.8568e-05
19390.0 1.8486e-05
19410.0 1.8401e-05
19430.0 1.8316e-05
19450.0 1.8234e-05
19470.0 1.8151e-05
19490.0 1.8066e-05
19510.0 1.7983e-05
19530.0 1.7902e-05
19550.0 1.7817e-05
19570.0 1.7731e-05
19590.0 1.765e-05
19610.0 1.7567e-05
19630.0 1.7483e-05
19650.0 1.74e-05
19670.0 1.7319e-05
19690.0 1.7235e-05
19710.0 1.7151e-05
19730.0 1.707e-05
19750.0 1.6987e-05
19770.0 1.6902e-05
19790.0 1.682e-05
19810.0 1.6739e-05
19830.0 1.6656e-05
19850.0 1.6572e-05
19870.0 1.6489e-05
19890.0 1.6401e-05
19910.0 1.6305e-05
19930.0 1.6202e-05
19950.0 1.6086e-05
19970.0 1.5944e-05
19990.0 1.5775e-05
20010.0 1.4111e-05
20030.0 1.3903e-05
20050.0 1.366e-05
20070.0 1.3397e-05
20090.0 1.3115e-05
20110.0 1.2797e-05
20130.0 1.2475e-05
20150.0 1.2157e-05
20170.0 1.1828e-05
20190.0 1.1494e-05
20210.0 1.118e-05
20230.0 1.0873e-05
20250.0 1.0565e-05
20270.0 1.028e-05
20290.0 1.002e-05
20310.0 9.7719e-06
20330.0 9.5403e-06
20350.0 9.3475e-06
20370.0 9.176e-06
20390.0 9.0252e-06
20410.0 8.9027e-06
20430.0 8.8075e-06
20450.0 8.7313e-06
20470.0 8.6792e-06
20490.0 8.6499e-06
20510.0 8.6393e-06
20530.0 8.6471e-06
20550.0 8.6711e-06
20570.0 8.7075e-06
20590.0 8.7579e-06
20610.0 8.8198e-06
20630.0 8.8885e-06
20650.0 8.9657e-06
20670.0 9.0546e-06
20690.0 9.1454e-06
20710.0 9.2394e-06
20730.0 9.3411e-06
20750.0 9.4473e-06
20770.0 9.5515e-06
20790.0 9.661e-06
20810.0 9.7767e-06
20830.0 9.8916e-06
20850.0 1.0007e-05
20870.0 1.013e-05
20890.0 1.0255e-05
20910.0 1.0376e-05
20930.0 1.0501e-05
20950.0 1.063e-05
20970.0 1.0756e-05
20990.0 1.0879e-05
21010.0 1.101e-05
21030.0 1.1137e-05
21050.0 1.1258e-05
21070.0 1.1378e-05
21090.0 1.1499e-05
21110.0 1.1609e-05
21130.0 1.1712e-05
21150.0 1.1812e-05
21170.0 1.1903e-05
21190.0 1.198e-05
21210.0 1.205e-05
21230.0 1.2108e-05
21250.0 1.2148e-05
21270.0 1.2174e-05
21290.0 1.2182e-05
21310.0 1.2171e-05
21330.0 1.2142e-05
21350.0 1.209e-05
21370.0 1.2016e-05
21390.0 1.1922e-05
21410.0 1.1806e-05
21430.0 1.166e-05
21450.0 1.1497e-05
21470.0 1.1319e-05
21490.0 1.1118e-05
21510.0 1.0897e-05
21530.0 1.0673e-05
21550.0 1.0438e-05
21570.0 1.0188e-05
21590.0 9.9412e-06
21610.0 9.7033e-06
21630.0 9.4651e-06
21650.0 9.2323e-06
21670.0 9.0304e-06
21690.0 8.844e-06
21710.0 8.6761e-06
21730.0 8.5382e-06
21750.0 8.4315e-06
21770.0 8.3498e-06
21790.0 8.302e-06
21810.0 8.2875e-06
21830.0 8.3039e-06
21850.0 8.3533e-06
21870.0 8.4314e-06
21890.0 8.5327e-06
21910.0 8.6632e-06
21930.0 8.8166e-06
21950.0 8.9829e-06
21970.0 9.1674e-06
21990.0 9.3747e-06
22010.0 9.5819e-06
22030.0 9.7925e-06
22050.0 1.0014e-05
22070.0 1.0236e-05
22090.0 1.0447e-05
22110.0 1.066e-05
22130.0 1.0872e-05
22150.0 1.1071e-05
22170.0 1.1258e-05
22190.0 1.1443e-05
22210.0 1.1616e-05
22230.0 1.1768e-05
22250.0 1.191e-05
22270.0 1.2042e-05
22290.0 1.2154e-05
22310.0 1.2251e-05
22330.0 1.2335e-05
22350.0 1.24e-05
22370.0 1.2446e-05
22390.0 1.2474e-05
22410.0 1.2483e-05
22430.0 1.247e-05
22450.0 1.2437e-05
22470.0 1.2381e-05
22490.0 1.2302e-05
22510.0 1.2205e-05
22530.0 1.208e-05
22550.0 1.1929e-05
22570.0 1.1762e-05
22590.0 1.1573e-05
22610.0 1.1356e-05
22630.0 1.1121e-05
