#lamb flux
1010.0 1.783e-05
1030.0 1.8581e-05
1050.0 1.9451e-05
1070.0 2.0433e-05
1090.0 2.1549e-05
1110.0 2.2699e-05
1130.0 2.3861e-05
1150.0 2.5084e-05
1170.0 2.6352e-05
1190.0 2.7563e-05
1210.0 2.8798e-05
1230.0 3.0082e-05
1250.0 3.135e-05
1270.0 3.2593e-05
1290.0 3.3914e-05
1310.0 3.5245e-05
1330.0 3.6537e-05
1350.0 3.7854e-05
1370.0 3.9224e-05
1390.0 4.0576e-05
1410.0 4.1905e-05
1430.0 4.3304e-05
1450.0 4.4716e-05
1470.0 4.61e-05
1490.0 4.7511e-05
1510.0 4.9007e-05
1530.0 5.0446e-05
1550.0 5.1878e-05
1570.0 5.3365e-05
1590.0 5.4862e-05
1610.0 5.6307e-05
1630.0 5.7796e-05
1650.0 5.9323e-05
1670.0 6.0806e-05
1690.0 6.2269e-05
1710.0 6.3776e-05
1730.0 6.5283e-05
1750.0 6.6697e-05
1770.0 6.8134e-05
1790.0 6.958e-05
1810.0 7.0961e-05
1830.0 7.2296e-05
1850.0 7.3684e-05
1870.0 7.5008e-05
1890.0 7.6257e-05
1910.0 7.7499e-05
1930.0 7.874e-05
1950.0 7.9887e-05
1970.0 8.0985e-05
1990.0 8.21e-05
2010.0 8.3163e-05
2030.0 8.4153e-05
2050.0 8.5157e-05
2070.0 8.6174e-05
2090.0 8.7101e-05
2110.0 8.8017e-05
2130.0 8.8968e-05
2150.0 8.9899e-05
2170.0 9.079e-05
2190.0 9.1748e-05
2210.0 9.2743e-05
2230.0 9.3728e-05
2250.0 9.4756e-05
2270.0 9.5896e-05
2290.0 9.7065e-05
2310.0 9.8263e-05
2330.0 9.9586e-05
2350.0 0.00010102
2370.0 0.00010251
2390.0 0.00010413
2410.0 0.00010593
2430.0 0.00010784
2450.0 0.00010984
2470.0 0.00011201
2490.0 0.00011428
2510.0 0.00011661
2530.0 0.00011917
2550.0 0.0001223
2570.0 0.00012645
2590.0 0.0001323
2610.0 0.00014134
2630.0 0.00015446
2650.0 0.00017163
2670.0 0.00019352
2690.0 0.0002201
2710.0 0.00024884
2730.0 0.00027829
2750.0 0.00030898
2770.0 0.00033886
2790.0 0.00036711
2810.0 0.00039503
2830.0 0.00042379
2850.0 0.00045194
2870.0 0.00048086
2890.0 0.00051166
2910.0 0.00054383
2930.0 0.00057653
2950.0 0.00061136
2970.0 0.0006481
2990.0 0.00068543
3010.0 0.0012318
3030.0 0.0013001
3050.0 0.0013689
3070.0 0.0014332
3090.0 0.0014915
3110.0 0.001533
3130.0 0.0015442
3150.0 0.0015103
3170.0 0.0014018
3190.0 0.0012128
3210.0 0.00094435
3230.0 0.00063714
3250.0 0.00092529
3270.0 0.00046756
3290.0 0.0011735
3310.0 0.0003268
3330.0 0.00034412
3350.0 0.00047282
3370.0 0.00061693
3390.0 0.00076853
3410.0 0.00091941
3430.0 0.0010763
3450.0 0.0012325
3470.0 0.0013764
3490.0 0.0014718
3510.0 0.0017814
3530.0 0.0023749
3550.0 0.0024493
3570.0 0.0022258
3590.0 0.0030845
3610.0 0.0022209
3630.0 0.0032098
3650.0 0.0035215
3670.0 0.0043858
3690.0 0.0043131
3710.0 0.0033947
3730.0 0.0043771
3750.0 0.0045586
3770.0 0.0046598
3790.0 0.004241
3810.0 0.0036729
3830.0 0.0045681
3850.0 0.0046489
3870.0 0.0056652
3890.0 0.0054803
3910.0 0.0052453
3930.0 0.0058229
3950.0 0.0065417
3970.0 0.0084783
3990.0 0.0073445
4010.0 0.0054392
4030.0 0.0066522
4050.0 0.0068536
4070.0 0.0075758
4090.0 0.0069375
4110.0 0.0051503
4130.0 0.0063481
4150.0 0.0058357
4170.0 0.0061846
4190.0 0.0061876
4210.0 0.0073611
4230.0 0.0054961
4250.0 0.0064691
4270.0 0.0064645
4290.0 0.0065647
4310.0 0.0077325
4330.0 0.0079525
4350.0 0.00652
4370.0 0.0058611
4390.0 0.0066683
4410.0 0.0065721
4430.0 0.0051918
4450.0 0.0051731
4470.0 0.0058153
4490.0 0.0046149
4510.0 0.0054435
4530.0 0.0059253
4550.0 0.0077972
4570.0 0.011176
4590.0 0.011368
4610.0 0.0085887
4630.0 0.012393
4650.0 0.016756
4670.0 0.01574
4690.0 0.010318
4710.0 0.010682
4730.0 0.012761
4750.0 0.011301
4770.0 0.0087428
4790.0 0.0064391
4810.0 0.0087439
4830.0 0.009982
4850.0 0.0094021
4870.0 0.0047209
4890.0 0.0101
4910.0 0.01321
4930.0 0.014184
4950.0 0.014452
4970.0 0.010467
4990.0 0.011677
5010.0 0.012697
5030.0 0.012954
5050.0 0.012337
5070.0 0.0091099
5090.0 0.0076345
5110.0 0.0071953
5130.0 0.0065282
5150.0 0.0073788
5170.0 0.0065804
5190.0 0.007875
5210.0 0.0078782
5230.0 0.0085618
5250.0 0.010726
5270.0 0.0096505
5290.0 0.0096699
5310.0 0.013202
5330.0 0.015051
5350.0 0.013301
5370.0 0.012
5390.0 0.013034
5410.0 0.015468
5430.0 0.016767
5450.0 0.018127
5470.0 0.01884
5490.0 0.019065
5510.0 0.021933
5530.0 0.02265
5550.0 0.023772
5570.0 0.024696
5590.0 0.024367
5610.0 0.023301
5630.0 0.022619
5650.0 0.022901
5670.0 0.022644
5690.0 0.019732
5710.0 0.018622
5730.0 0.018288
5750.0 0.019357
5770.0 0.017086
5790.0 0.015944
5810.0 0.016266
5830.0 0.016951
5850.0 0.015677
5870.0 0.015534
5890.0 0.017678
5910.0 0.016932
5930.0 0.014437
5950.0 0.012849
5970.0 0.013317
5990.0 0.012158
6010.0 0.011277
6030.0 0.01132
6050.0 0.010706
6070.0 0.008555
6090.0 0.0078671
6110.0 0.0095711
6130.0 0.010747
6150.0 0.011343
6170.0 0.011366
6190.0 0.011099
6210.0 0.011014
6230.0 0.012259
6250.0 0.011324
6270.0 0.01029
6290.0 0.00932
6310.0 0.008702
6330.0 0.0082475
6350.0 0.0073721
6370.0 0.0074028
6390.0 0.0086813
6410.0 0.010654
6430.0 0.012298
6450.0 0.012037
6470.0 0.012116
6490.0 0.014553
6510.0 0.01623
6530.0 0.015531
6550.0 0.015121
6570.0 0.015336
6590.0 0.014897
6610.0 0.015942
6630.0 0.015169
6650.0 0.013764
6670.0 0.012525
6690.0 0.01193
6710.0 0.013825
6730.0 0.01283
6750.0 0.011468
6770.0 0.010682
6790.0 0.011146
6810.0 0.012031
6830.0 0.011737
6850.0 0.010841
6870.0 0.011015
6890.0 0.010725
6910.0 0.010152
6930.0 0.01137
6950.0 0.010758
6970.0 0.010356
6990.0 0.010456
7010.0 0.010055
7030.0 0.0094394
7050.0 0.0089355
7070.0 0.0092224
7090.0 0.0086275
7110.0 0.0076185
7130.0 0.0063871
7150.0 0.0058565
7170.0 0.0073399
7190.0 0.0079113
7210.0 0.0078116
7230.0 0.0082417
7250.0 0.0079213
7270.0 0.00768
7290.0 0.0082578
7310.0 0.0088766
7330.0 0.0086286
7350.0 0.0081592
7370.0 0.00792
7390.0 0.008343
7410.0 0.0096196
7430.0 0.010536
7450.0 0.011369
7470.0 0.01142
7490.0 0.011661
7510.0 0.01116
7530.0 0.011065
7550.0 0.010682
7570.0 0.0093779
7590.0 0.0092063
7610.0 0.0090232
7630.0 0.008679
7650.0 0.0096314
7670.0 0.01057
7690.0 0.011511
7710.0 0.012723
7730.0 0.013577
7750.0 0.014219
7770.0 0.01425
7790.0 0.015383
7810.0 0.015902
7830.0 0.015025
7850.0 0.015141
7870.0 0.014468
7890.0 0.014896
7910.0 0.014134
7930.0 0.014167
7950.0 0.012885
7970.0 0.013204
7990.0 0.012768
8010.0 0.01263
8030.0 0.012617
8050.0 0.013173
8070.0 0.012794
8090.0 0.012838
8110.0 0.012485
8130.0 0.012481
8150.0 0.012018
8170.0 0.011696
8190.0 0.01156
8210.0 0.01166
8230.0 0.01053
8250.0 0.0096953
8270.0 0.0084951
8290.0 0.0070085
8310.0 0.0058583
8330.0 0.0046463
8350.0 0.0039592
8370.0 0.0041725
8390.0 0.0044077
8410.0 0.0047452
8430.0 0.0056626
8450.0 0.0060397
8470.0 0.0063632
8490.0 0.0072263
8510.0 0.0079155
8530.0 0.009154
8550.0 0.01083
8570.0 0.012168
8590.0 0.013174
8610.0 0.014347
8630.0 0.015607
8650.0 0.015851
8670.0 0.015995
8690.0 0.016595
8710.0 0.016534
8730.0 0.016515
8750.0 0.015804
8770.0 0.01583
8790.0 0.01562
8810.0 0.014471
8830.0 0.014382
8850.0 0.013567
8870.0 0.013053
8890.0 0.012101
8910.0 0.012802
8930.0 0.011828
8950.0 0.011578
8970.0 0.011556
8990.0 0.011207
9010.0 0.011309
9030.0 0.010902
9050.0 0.010841
9070.0 0.010823
9090.0 0.010803
9110.0 0.010786
9130.0 0.010763
9150.0 0.010737
9170.0 0.010688
9190.0 0.010604
9210.0 0.010705
9230.0 0.010648
9250.0 0.010606
9270.0 0.010565
9290.0 0.010526
9310.0 0.010487
9330.0 0.010449
9350.0 0.01041
9370.0 0.01037
9390.0 0.01033
9410.0 0.010289
9430.0 0.010247
9450.0 0.010203
9470.0 0.010158
9490.0 0.010115
9510.0 0.010071
9530.0 0.010026
9550.0 0.0099797
9570.0 0.0099332
9590.0 0.0098864
9610.0 0.0098392
9630.0 0.0097914
9650.0 0.0097435
9670.0 0.0096956
9690.0 0.0096472
9710.0 0.0095987
9730.0 0.0095503
9750.0 0.0095017
9770.0 0.009453
9790.0 0.0094044
9810.0 0.009356
9830.0 0.0093075
9850.0 0.0092593
9870.0 0.0092112
9890.0 0.0091632
9910.0 0.0091155
9930.0 0.0090676
9950.0 0.0089872
9970.0 0.0089501
9990.0 0.0089116
10010.0 0.0088725
10030.0 0.008831
10050.0 0.0087862
10070.0 0.0087349
10090.0 0.0086948
10110.0 0.0086526
10130.0 0.0086111
10150.0 0.0085699
10170.0 0.0085278
10190.0 0.0084845
10210.0 0.0084435
10230.0 0.0084034
10250.0 0.0083623
10270.0 0.0083221
10290.0 0.0082838
10310.0 0.0082447
10330.0 0.008205
10350.0 0.0081678
10370.0 0.0081313
10390.0 0.0080939
10410.0 0.0080574
10430.0 0.0080232
10450.0 0.0079882
10470.0 0.007953
10490.0 0.0079198
10510.0 0.0078873
10530.0 0.0078532
10550.0 0.0078207
10570.0 0.0077902
10590.0 0.007759
10610.0 0.0077278
10630.0 0.0076987
10650.0 0.0076699
10670.0 0.00764
10690.0 0.0076115
10710.0 0.0075844
10730.0 0.0075567
10750.0 0.0075285
10770.0 0.0075031
10790.0 0.0074776
10810.0 0.0074514
10830.0 0.0074262
10850.0 0.0074023
10870.0 0.0073757
10890.0 0.0073476
10910.0 0.0073182
10930.0 0.0072832
10950.0 0.0072381
10970.0 0.0071828
10990.0 0.0071169
11010.0 0.0068771
11030.0 0.0067842
11050.0 0.0066794
11070.0 0.0065609
11090.0 0.0064249
11110.0 0.0062901
11130.0 0.006155
11150.0 0.0060149
11170.0 0.0058759
11190.0 0.0057465
11210.0 0.0056171
11230.0 0.0054884
11250.0 0.0053691
11270.0 0.0052572
11290.0 0.0051462
11310.0 0.0050418
11330.0 0.0049504
11350.0 0.0048627
11370.0 0.0047793
11390.0 0.0047047
11410.0 0.0046365
11430.0 0.0045679
11450.0 0.0045041
11470.0 0.0044447
11490.0 0.0043845
11510.0 0.0043214
11530.0 0.0042603
11550.0 0.0041975
11570.0 0.0041283
11590.0 0.0040563
11610.0 0.0039833
11630.0 0.003903
11650.0 0.0038162
11670.0 0.0037309
11690.0 0.0036431
11710.0 0.00355
11730.0 0.0034574
11750.0 0.0033697
11770.0 0.0032793
11790.0 0.0031901
11810.0 0.0031076
11830.0 0.0030291
11850.0 0.0029503
11870.0 0.0028792
11890.0 0.0028156
11910.0 0.002754
11930.0 0.0026962
11950.0 0.0026451
11970.0 0.002597
11990.0 0.0025496
12010.0 0.0025066
12030.0 0.0024673
12050.0 0.0024285
12070.0 0.0023904
12090.0 0.0023574
12110.0 0.0023254
12130.0 0.0022941
12150.0 0.0022661
12170.0 0.0022418
12190.0 0.0022185
12210.0 0.0021995
12230.0 0.0021862
12250.0 0.0021775
12270.0 0.0021744
12290.0 0.0021784
12310.0 0.0021894
12330.0 0.0022078
12350.0 0.0022339
12370.0 0.0022667
12390.0 0.0023066
12410.0 0.0023547
12430.0 0.0024065
12450.0 0.0024619
12470.0 0.0025217
12490.0 0.0025833
12510.0 0.0026432
12530.0 0.0027038
12550.0 0.0027637
12570.0 0.0028194
12590.0 0.0028712
12610.0 0.0029204
12630.0 0.0029647
12650.0 0.003003
12670.0 0.0030373
12690.0 0.0030669
12710.0 0.0030913
12730.0 0.0031114
12750.0 0.003127
12770.0 0.0031382
12790.0 0.0031456
12810.0 0.003149
12830.0 0.0031481
12850.0 0.0031444
12870.0 0.0031375
12890.0 0.0031265
12910.0 0.0031126
12930.0 0.0030967
12950.0 0.0030766
12970.0 0.0030527
12990.0 0.0030278
13010.0 0.0030002
13030.0 0.0029684
13050.0 0.0029349
13070.0 0.0029009
13090.0 0.0028631
13110.0 0.0028232
13130.0 0.002784
13150.0 0.0027445
13170.0 0.0027029
13190.0 0.0026643
13210.0 0.0026294
13230.0 0.0025961
13250.0 0.0025667
13270.0 0.0025433
13290.0 0.0025245
13310.0 0.0025104
13330.0 0.0025026
13350.0 0.0025001
13370.0 0.002502
13390.0 0.0025076
13410.0 0.0025157
13430.0 0.002525
13450.0 0.002534
13470.0 0.0025414
13490.0 0.002546
13510.0 0.0025465
13530.0 0.002542
13550.0 0.0025327
13570.0 0.002518
13590.0 0.0024973
13610.0 0.0024728
13630.0 0.0024454
13650.0 0.0024136
13670.0 0.0023798
13690.0 0.0023462
13710.0 0.0023117
13730.0 0.002276
13750.0 0.0022436
13770.0 0.0022128
13790.0 0.0021828
13810.0 0.0021548
13830.0 0.0021298
13850.0 0.0021055
13870.0 0.0020822
13890.0 0.002061
13910.0 0.0020409
13930.0 0.0020209
13950.0 0.0020017
13970.0 0.001984
13990.0 0.0019664
14010.0 0.0019492
14030.0 0.0019332
14050.0 0.0019182
14070.0 0.0019033
14090.0 0.00189
14110.0 0.0018782
14130.0 0.0018674
14150.0 0.0018579
14170.0 0.00185
14190.0 0.0018435
14210.0 0.0018384
14230.0 0.0018348
14250.0 0.0018325
14270.0 0.0018317
14290.0 0.0018325
14310.0 0.0018343
14330.0 0.0018374
14350.0 0.0018419
14370.0 0.0018472
14390.0 0.0018527
14410.0 0.0018592
14430.0 0.0018658
14450.0 0.0018718
14470.0 0.0018775
14490.0 0.0018831
14510.0 0.0018874
14530.0 0.0018906
14550.0 0.0018933
14570.0 0.0018953
14590.0 0.0018965
14610.0 0.0018977
14630.0 0.0018995
14650.0 0.0019017
14670.0 0.0019047
14690.0 0.0019097
14710.0 0.0019171
14730.0 0.0019258
14750.0 0.0019375
14770.0 0.0019527
14790.0 0.0019704
14810.0 0.0019903
14830.0 0.0020151
14850.0 0.0020423
14870.0 0.0020704
14890.0 0.0021007
14910.0 0.0021326
14930.0 0.0021622
14950.0 0.0021887
14970.0 0.0022127
14990.0 0.0022309
15010.0 0.0022423
15030.0 0.0022479
15050.0 0.0022481
15070.0 0.002243
15090.0 0.0022345
15110.0 0.0022237
15130.0 0.0022115
15150.0 0.0021986
15170.0 0.0021852
15190.0 0.0021715
15210.0 0.0021579
15230.0 0.0021442
15250.0 0.0021304
15270.0 0.0021166
15290.0 0.002103
15310.0 0.0020893
15330.0 0.0020756
15350.0 0.002062
15370.0 0.0020484
15390.0 0.0020347
15410.0 0.0020211
15430.0 0.0020076
15450.0 0.001994
15470.0 0.0019804
15490.0 0.0019671
15510.0 0.0019537
15530.0 0.0019403
15550.0 0.0019269
15570.0 0.0019137
15590.0 0.0019005
15610.0 0.0018872
15630.0 0.0018742
15650.0 0.0018611
15670.0 0.0018481
15690.0 0.0018351
15710.0 0.0018223
15730.0 0.0018095
15750.0 0.0017967
15770.0 0.0017841
15790.0 0.0017715
15810.0 0.0017589
15830.0 0.0017464
15850.0 0.0017341
15870.0 0.0017217
15890.0 0.0017095
15910.0 0.0016974
15930.0 0.0016853
15950.0 0.0016732
15970.0 0.0016613
15990.0 0.0016495
16010.0 0.0016377
16030.0 0.001626
16050.0 0.0016145
16070.0 0.001603
16090.0 0.0015916
16110.0 0.0015802
16130.0 0.0015691
16150.0 0.0015578
16170.0 0.0015467
16190.0 0.0015358
16210.0 0.001525
16230.0 0.0015141
16250.0 0.0015034
16270.0 0.0014929
16290.0 0.0014823
16310.0 0.0014719
16330.0 0.0014616
16350.0 0.0014513
16370.0 0.0014411
16390.0 0.0014311
16410.0 0.0014211
16430.0 0.0014112
16450.0 0.0014014
16470.0 0.0013918
16490.0 0.0013822
16510.0 0.0013726
16530.0 0.0013632
16550.0 0.0013539
16570.0 0.0013446
16590.0 0.0013354
16610.0 0.0013265
16630.0 0.0013175
16650.0 0.0013086
16670.0 0.0012998
16690.0 0.0012912
16710.0 0.0012825
16730.0 0.0012739
16750.0 0.0012656
16770.0 0.0012572
16790.0 0.0012489
16810.0 0.0012408
16830.0 0.0012327
16850.0 0.0012247
16870.0 0.0012168
16890.0 0.001209
16910.0 0.0012012
16930.0 0.0011935
16950.0 0.001186
16970.0 0.0011785
16990.0 0.001171
17010.0 0.0011637
17030.0 0.0011565
17050.0 0.0011493
17070.0 0.0011422
17090.0 0.0011353
17110.0 0.0011283
17130.0 0.0011214
17150.0 0.0011147
17170.0 0.001108
17190.0 0.0011014
17210.0 0.0010948
17230.0 0.0010884
17250.0 0.001082
17270.0 0.0010756
17290.0 0.0010694
17310.0 0.0010633
17330.0 0.0010571
17350.0 0.0010511
17370.0 0.0010452
17390.0 0.0010393
17410.0 0.0010334
17430.0 0.0010277
17450.0 0.0010221
17470.0 0.0010164
17490.0 0.0010108
17510.0 0.0010054
17530.0 0.00099993
17550.0 0.00099453
17570.0 0.00098927
17590.0 0.00098408
17610.0 0.00097888
17630.0 0.00097376
17650.0 0.00096876
17670.0 0.00096378
17690.0 0.00095877
17710.0 0.00095395
17730.0 0.00094917
17750.0 0.00094439
17770.0 0.0009397
17790.0 0.00093513
17810.0 0.00093052
17830.0 0.00092596
17850.0 0.00092152
17870.0 0.00091713
17890.0 0.00091272
17910.0 0.00090839
17930.0 0.00090419
17950.0 0.00089998
17970.0 0.0008958
17990.0 0.00089174
18010.0 0.00088771
18030.0 0.00088364
18050.0 0.00087968
18070.0 0.00087581
18090.0 0.00087194
18110.0 0.00086808
18130.0 0.00086436
18150.0 0.00086066
18170.0 0.00085695
18190.0 0.00085332
18210.0 0.00084978
18230.0 0.0008462
18250.0 0.00084265
18270.0 0.00083923
18290.0 0.00083583
18310.0 0.00083241
18330.0 0.00082909
18350.0 0.00082584
18370.0 0.00082255
18390.0 0.00081931
18410.0 0.00081617
18430.0 0.00081303
18450.0 0.00080987
18470.0 0.00080681
18490.0 0.00080382
18510.0 0.00080081
18530.0 0.00079783
18550.0 0.00079496
18570.0 0.00079207
18590.0 0.00078916
18610.0 0.00078635
18630.0 0.00078359
18650.0 0.0007808
18670.0 0.00077805
18690.0 0.00077541
18710.0 0.00077275
18730.0 0.00077009
18750.0 0.00076751
18770.0 0.00076498
18790.0 0.00076237
18810.0 0.00075984
18830.0 0.0007574
18850.0 0.00075494
18870.0 0.00075248
18890.0 0.0007501
18910.0 0.00074777
18930.0 0.00074538
18950.0 0.00074305
18970.0 0.00074079
18990.0 0.00073852
19010.0 0.0007362
19030.0 0.00073402
19050.0 0.00073185
19070.0 0.00072964
19090.0 0.00072749
19110.0 0.00072542
19130.0 0.00072329
19150.0 0.00072117
19170.0 0.00071913
19190.0 0.00071711
19210.0 0.00071505
19230.0 0.00071304
19250.0 0.00071112
19270.0 0.00070915
19290.0 0.00070719
19310.0 0.00070531
19330.0 0.00070343
19350.0 0.00070148
19370.0 0.00069963
19390.0 0.00069782
19410.0 0.00069598
19430.0 0.00069413
19450.0 0.00069239
19470.0 0.00069063
19490.0 0.00068884
19510.0 0.0006871
19530.0 0.00068542
19550.0 0.00068367
19570.0 0.00068194
19590.0 0.0006803
19610.0 0.00067864
19630.0 0.00067696
19650.0 0.00067534
19670.0 0.00067376
19690.0 0.00067212
19710.0 0.0006705
19730.0 0.00066896
19750.0 0.00066739
19770.0 0.00066578
19790.0 0.00066425
19810.0 0.00066275
19830.0 0.00066119
19850.0 0.00065963
19870.0 0.00065808
19890.0 0.00065638
19910.0 0.00065442
19930.0 0.0006522
19950.0 0.00064948
19970.0 0.00064588
19990.0 0.0006413
20010.0 0.0006359
20030.0 0.00062916
20050.0 0.00062112
20070.0 0.00061234
20090.0 0.00060286
20110.0 0.00059211
20130.0 0.00058126
20150.0 0.00057055
20170.0 0.00055946
20190.0 0.00054824
20210.0 0.00053767
20230.0 0.00052736
20250.0 0.000517
20270.0 0.00050738
20290.0 0.0004986
20310.0 0.00049023
20330.0 0.00048241
20350.0 0.00047597
20370.0 0.00047031
20390.0 0.00046545
20410.0 0.00046168
20430.0 0.00045898
20450.0 0.00045715
20470.0 0.00045636
20490.0 0.00045655
20510.0 0.00045764
20530.0 0.00045964
20550.0 0.00046241
20570.0 0.00046574
20590.0 0.00046978
20610.0 0.00047434
20630.0 0.00047912
20650.0 0.0004842
20670.0 0.00048969
20690.0 0.00049497
20710.0 0.00050009
20730.0 0.00050516
20750.0 0.00050996
20770.0 0.00051417
20790.0 0.00051803
20810.0 0.00052146
20830.0 0.00052423
20850.0 0.0005264
20870.0 0.00052804
20890.0 0.00052903
20910.0 0.00052941
20930.0 0.00052923
20950.0 0.0005285
20970.0 0.0005273
20990.0 0.00052569
21010.0 0.00052356
21030.0 0.00052109
21050.0 0.00051841
21070.0 0.0005154
21090.0 0.00051206
21110.0 0.00050873
21130.0 0.00050533
21150.0 0.00050174
21170.0 0.00049819
21190.0 0.00049484
21210.0 0.00049145
21230.0 0.00048815
21250.0 0.00048522
21270.0 0.00048256
21290.0 0.00048011
21310.0 0.00047805
21330.0 0.00047647
21350.0 0.00047523
21370.0 0.00047442
21390.0 0.00047409
21410.0 0.0004742
21430.0 0.00047478
21450.0 0.00047582
21470.0 0.00047724
21490.0 0.0004791
21510.0 0.00048137
21530.0 0.00048389
21550.0 0.00048672
21570.0 0.00048995
21590.0 0.00049335
21610.0 0.00049688
21630.0 0.0005007
21650.0 0.00050479
21670.0 0.00050876
21690.0 0.0005129
21710.0 0.00051726
21730.0 0.00052161
21750.0 0.00052591
21770.0 0.00053052
21790.0 0.00053516
21810.0 0.0005397
21830.0 0.00054433
21850.0 0.00054916
21870.0 0.0005539
21890.0 0.00055852
21910.0 0.00056332
21930.0 0.00056811
21950.0 0.0005727
21970.0 0.00057729
21990.0 0.00058198
22010.0 0.00058632
22030.0 0.00059042
22050.0 0.00059441
22070.0 0.00059812
22090.0 0.00060135
22110.0 0.00060428
22130.0 0.00060683
22150.0 0.00060882
22170.0 0.00061026
22190.0 0.00061117
22210.0 0.00061141
22230.0 0.00061103
22250.0 0.00060997
22270.0 0.00060818
22290.0 0.00060576
22310.0 0.00060273
22330.0 0.00059883
22350.0 0.00059432
22370.0 0.00058935
22390.0 0.00058368
22410.0 0.00057725
22430.0 0.00057067
22450.0 0.00056372
22470.0 0.00055614
22490.0 0.00054836
22510.0 0.00054064
22530.0 0.00053244
22550.0 0.00052399
22570.0 0.00051591
22590.0 0.00050788
22610.0 0.00049969
22630.0 0.00049178
22650.0 0.00048442
22670.0 0.00047703
22690.0 0.00046986
22710.0 0.00046326
22730.0 0.000457
22750.0 0.00045074
22770.0 0.0004451
22790.0 0.00043996
22810.0 0.000435
22830.0 0.00043034
22850.0 0.00042619
22870.0 0.0004223
22890.0 0.00041855
22910.0 0.00041519
22930.0 0.00041216
22950.0 0.00040928
22970.0 0.00040658
22990.0 0.0004043
23010.0 0.00040219
23030.0 0.00040025
23050.0 0.00039856
23070.0 0.00039713
23090.0 0.00039581
23110.0 0.0003947
23130.0 0.00039381
23150.0 0.00039308
23170.0 0.00039248
23190.0 0.00039204
23210.0 0.00039173
23230.0 0.00039153
23250.0 0.00039144
23270.0 0.00039145
23290.0 0.00039156
23310.0 0.00039177
23330.0 0.00039207
23350.0 0.00039246
23370.0 0.00039296
23390.0 0.00039356
23410.0 0.00039421
23430.0 0.00039494
23450.0 0.00039576
23470.0 0.00039659
23490.0 0.00039744
23510.0 0.00039832
23530.0 0.00039918
23550.0 0.00039996
23570.0 0.00040073
23590.0 0.00040144
