#lamb flux
1010.0 2.6752e-10
1030.0 3.3648e-10
1050.0 4.1579e-10
1070.0 5.0506e-10
1090.0 6.0647e-10
1110.0 7.1047e-10
1130.0 8.1516e-10
1150.0 9.2481e-10
1170.0 1.0379e-09
1190.0 1.1452e-09
1210.0 1.2539e-09
1230.0 1.3662e-09
1250.0 1.4763e-09
1270.0 1.5832e-09
1290.0 1.6961e-09
1310.0 1.809e-09
1330.0 1.9172e-09
1350.0 2.0266e-09
1370.0 2.1396e-09
1390.0 2.2498e-09
1410.0 2.3567e-09
1430.0 2.4685e-09
1450.0 2.5803e-09
1470.0 2.6883e-09
1490.0 2.7975e-09
1510.0 2.9129e-09
1530.0 3.0222e-09
1550.0 3.1301e-09
1570.0 3.2418e-09
1590.0 3.3536e-09
1610.0 3.4604e-09
1630.0 3.5706e-09
1650.0 3.6838e-09
1670.0 3.7934e-09
1690.0 3.9016e-09
1710.0 4.0142e-09
1730.0 4.1274e-09
1750.0 4.2341e-09
1770.0 4.3441e-09
1790.0 4.4564e-09
1810.0 4.5654e-09
1830.0 4.6727e-09
1850.0 4.7868e-09
1870.0 4.8982e-09
1890.0 5.0063e-09
1910.0 5.1167e-09
1930.0 5.2302e-09
1950.0 5.339e-09
1970.0 5.4468e-09
1990.0 5.5591e-09
2010.0 5.6701e-09
2030.0 5.7776e-09
2050.0 5.8888e-09
2070.0 6.0033e-09
2090.0 6.112e-09
2110.0 6.221e-09
2130.0 6.3338e-09
2150.0 6.4451e-09
2170.0 6.5524e-09
2190.0 6.6644e-09
2210.0 6.7777e-09
2230.0 6.8875e-09
2250.0 6.9977e-09
2270.0 7.1134e-09
2290.0 7.2266e-09
2310.0 7.3362e-09
2330.0 7.45e-09
2350.0 7.5654e-09
2370.0 7.6771e-09
2390.0 7.7903e-09
2410.0 7.9093e-09
2430.0 8.0269e-09
2450.0 8.1466e-09
2470.0 8.2793e-09
2490.0 8.4339e-09
2510.0 8.6121e-09
2530.0 8.8431e-09
2550.0 9.1628e-09
2570.0 9.5927e-09
2590.0 1.0161e-08
2610.0 1.0974e-08
2630.0 1.2052e-08
2650.0 1.3371e-08
2670.0 1.4998e-08
2690.0 1.697e-08
2710.0 1.913e-08
2730.0 2.1402e-08
2750.0 2.3861e-08
2770.0 2.6302e-08
2790.0 2.8572e-08
2810.0 3.0705e-08
2830.0 3.2702e-08
2850.0 3.4379e-08
2870.0 3.5865e-08
2890.0 3.7247e-08
2910.0 3.854e-08
2930.0 3.9765e-08
2950.0 4.1025e-08
2970.0 4.2334e-08
2990.0 4.3671e-08
3010.0 4.5064e-08
3030.0 4.6551e-08
3050.0 4.8109e-08
3070.0 4.9694e-08
3090.0 5.1373e-08
3110.0 5.316e-08
3130.0 5.5077e-08
3150.0 5.7257e-08
3170.0 6.0037e-08
3190.0 6.3658e-08
3210.0 6.8396e-08
3230.0 7.4703e-08
3250.0 8.2715e-08
3270.0 9.0339e-08
3290.0 1.0244e-07
3310.0 1.2722e-07
3330.0 1.3545e-07
3350.0 1.395e-07
3370.0 1.4339e-07
3390.0 1.4735e-07
3410.0 1.5135e-07
3430.0 1.5539e-07
3450.0 1.5942e-07
3470.0 1.6338e-07
3490.0 1.672e-07
3510.0 1.7066e-07
3530.0 1.6913e-07
3550.0 1.6446e-07
3570.0 1.6688e-07
3590.0 1.7741e-07
3610.0 1.9336e-07
3630.0 1.997e-07
3650.0 1.9182e-07
3670.0 1.7617e-07
3690.0 1.6708e-07
3710.0 1.6918e-07
3730.0 1.7475e-07
3750.0 1.7774e-07
3770.0 1.8373e-07
3790.0 1.9042e-07
3810.0 1.8772e-07
3830.0 1.7495e-07
3850.0 1.6352e-07
3870.0 1.5809e-07
3890.0 1.5628e-07
3910.0 1.5278e-07
3930.0 1.5101e-07
3950.0 1.5527e-07
3970.0 1.6025e-07
3990.0 1.617e-07
4010.0 1.5576e-07
4030.0 1.4729e-07
4050.0 1.4184e-07
4070.0 1.3723e-07
4090.0 1.3349e-07
4110.0 1.2862e-07
4130.0 1.2093e-07
4150.0 1.1319e-07
4170.0 1.086e-07
4190.0 1.0127e-07
4210.0 9.1676e-08
4230.0 8.1968e-08
4250.0 7.2751e-08
4270.0 6.5869e-08
4290.0 6.078e-08
4310.0 5.8087e-08
4330.0 5.7991e-08
4350.0 5.8277e-08
4370.0 5.8834e-08
4390.0 6.1008e-08
4410.0 6.2511e-08
4430.0 6.0346e-08
4450.0 5.4791e-08
4470.0 4.9936e-08
4490.0 4.7297e-08
4510.0 4.56e-08
4530.0 4.4752e-08
4550.0 4.4025e-08
4570.0 4.384e-08
4590.0 4.4441e-08
4610.0 4.5805e-08
4630.0 4.6619e-08
4650.0 4.702e-08
4670.0 4.5877e-08
4690.0 4.3147e-08
4710.0 4.0428e-08
4730.0 3.8667e-08
4750.0 3.7585e-08
4770.0 3.772e-08
4790.0 3.7573e-08
4810.0 3.6767e-08
4830.0 3.6841e-08
4850.0 3.799e-08
4870.0 3.8368e-08
4890.0 3.7678e-08
4910.0 3.6804e-08
4930.0 3.4708e-08
4950.0 3.1685e-08
4970.0 2.9615e-08
4990.0 2.7916e-08
5010.0 2.7552e-08
5030.0 2.848e-08
5050.0 2.921e-08
5070.0 3.0302e-08
5090.0 3.2134e-08
5110.0 3.2623e-08
5130.0 3.2908e-08
5150.0 3.3515e-08
5170.0 3.3797e-08
5190.0 3.4683e-08
5210.0 3.4863e-08
5230.0 3.4504e-08
5250.0 3.4782e-08
5270.0 3.5267e-08
5290.0 3.5362e-08
5310.0 3.5098e-08
5330.0 3.4432e-08
5350.0 3.3963e-08
5370.0 3.3601e-08
5390.0 3.3156e-08
5410.0 3.2788e-08
5430.0 3.2776e-08
5450.0 3.3257e-08
5470.0 3.3875e-08
5490.0 3.4836e-08
5510.0 3.5891e-08
5530.0 3.6333e-08
5550.0 3.6874e-08
5570.0 3.6954e-08
5590.0 3.6189e-08
5610.0 3.5926e-08
5630.0 3.6197e-08
5650.0 3.5759e-08
5670.0 3.4967e-08
5690.0 3.392e-08
5710.0 3.383e-08
5730.0 3.4187e-08
5750.0 3.2731e-08
5770.0 3.1051e-08
5790.0 2.8547e-08
5810.0 2.4972e-08
5830.0 2.6919e-08
5850.0 2.98e-08
5870.0 3.0446e-08
5890.0 3.0609e-08
5910.0 3.0859e-08
5930.0 3.0794e-08
5950.0 3.0285e-08
5970.0 2.9923e-08
5990.0 2.9492e-08
6010.0 2.8594e-08
6030.0 2.7614e-08
6050.0 2.7183e-08
6070.0 2.706e-08
6090.0 2.6649e-08
6110.0 2.5761e-08
6130.0 2.4885e-08
6150.0 2.3886e-08
6170.0 2.2888e-08
6190.0 2.1862e-08
6210.0 2.109e-08
6230.0 2.0784e-08
6250.0 2.0344e-08
6270.0 1.9919e-08
6290.0 1.9764e-08
6310.0 1.9636e-08
6330.0 1.9205e-08
6350.0 1.8581e-08
6370.0 1.8225e-08
6390.0 1.7866e-08
6410.0 1.7368e-08
6430.0 1.6897e-08
6450.0 1.6525e-08
6470.0 1.6172e-08
6490.0 1.5926e-08
6510.0 1.565e-08
6530.0 1.5252e-08
6550.0 1.4915e-08
6570.0 1.4685e-08
6590.0 1.4661e-08
6610.0 1.4568e-08
6630.0 1.4081e-08
6650.0 1.3683e-08
6670.0 1.3541e-08
6690.0 1.3328e-08
6710.0 1.3008e-08
6730.0 1.2893e-08
6750.0 1.2993e-08
6770.0 1.3765e-08
6790.0 1.5384e-08
6810.0 1.4608e-08
6830.0 1.2832e-08
6850.0 1.2325e-08
6870.0 1.2136e-08
6890.0 1.2138e-08
6910.0 1.2164e-08
6930.0 1.2191e-08
6950.0 1.2154e-08
6970.0 1.1845e-08
6990.0 1.1738e-08
7010.0 1.1913e-08
7030.0 1.1969e-08
7050.0 1.1795e-08
7070.0 1.1676e-08
7090.0 1.1752e-08
7110.0 1.2025e-08
7130.0 1.2065e-08
7150.0 1.2109e-08
7170.0 1.2174e-08
7190.0 1.2342e-08
7210.0 1.2476e-08
7230.0 1.261e-08
7250.0 1.2778e-08
7270.0 1.2898e-08
7290.0 1.3102e-08
7310.0 1.3343e-08
7330.0 1.324e-08
7350.0 1.2962e-08
7370.0 1.2786e-08
7390.0 1.2755e-08
7410.0 1.2808e-08
7430.0 1.2967e-08
7450.0 1.3048e-08
7470.0 1.3233e-08
7490.0 1.3157e-08
7510.0 1.3014e-08
7530.0 1.3166e-08
7550.0 1.3574e-08
7570.0 1.354e-08
7590.0 1.2841e-08
7610.0 1.2734e-08
7630.0 1.3456e-08
7650.0 1.3726e-08
7670.0 1.3818e-08
7690.0 1.4433e-08
7710.0 1.49e-08
7730.0 1.5043e-08
7750.0 1.5827e-08
7770.0 1.5422e-08
7790.0 1.5056e-08
7810.0 1.5951e-08
7830.0 1.6562e-08
7850.0 1.6977e-08
7870.0 1.7311e-08
7890.0 1.7444e-08
7910.0 1.7316e-08
7930.0 1.7435e-08
7950.0 1.8222e-08
7970.0 1.8218e-08
7990.0 1.6969e-08
8010.0 1.6279e-08
8030.0 1.6605e-08
8050.0 1.6961e-08
8070.0 1.5343e-08
8090.0 1.0037e-08
8110.0 1.0481e-08
8130.0 1.4967e-08
8150.0 1.6119e-08
8170.0 1.676e-08
8190.0 1.7123e-08
8210.0 1.6908e-08
8230.0 1.833e-08
8250.0 1.8731e-08
8270.0 1.7712e-08
8290.0 1.7012e-08
8310.0 1.6764e-08
8330.0 1.768e-08
8350.0 1.8517e-08
8370.0 1.8167e-08
8390.0 1.7324e-08
8410.0 1.7308e-08
8430.0 1.6216e-08
8450.0 1.6572e-08
8470.0 1.8109e-08
8490.0 1.8164e-08
8510.0 1.6843e-08
8530.0 1.5785e-08
8550.0 1.5131e-08
8570.0 1.426e-08
8590.0 1.4668e-08
8610.0 1.5565e-08
8630.0 1.5982e-08
8650.0 1.6258e-08
8670.0 1.5812e-08
8690.0 1.5443e-08
8710.0 1.4363e-08
8730.0 1.3848e-08
8750.0 1.4414e-08
8770.0 1.464e-08
8790.0 1.4594e-08
8810.0 1.4524e-08
8830.0 1.4834e-08
8850.0 1.5577e-08
8870.0 1.4545e-08
8890.0 1.3719e-08
8910.0 1.3517e-08
8930.0 1.2705e-08
8950.0 1.224e-08
8970.0 1.2235e-08
8990.0 1.1712e-08
9010.0 1.0995e-08
9030.0 1.0745e-08
9050.0 1.0656e-08
9070.0 1.0576e-08
9090.0 1.0496e-08
9110.0 1.0415e-08
9130.0 1.0334e-08
9150.0 1.0252e-08
9170.0 1.0171e-08
9190.0 1.0089e-08
9210.0 1.0007e-08
9230.0 9.9246e-09
9250.0 9.8425e-09
9270.0 9.7605e-09
9290.0 9.6786e-09
9310.0 9.597e-09
9330.0 9.5155e-09
9350.0 9.4344e-09
9370.0 9.3536e-09
9390.0 9.2731e-09
9410.0 9.1931e-09
9430.0 9.1135e-09
9450.0 9.0344e-09
9470.0 8.9559e-09
9490.0 8.8778e-09
9510.0 8.8004e-09
9530.0 8.7236e-09
9550.0 8.6474e-09
9570.0 8.5718e-09
9590.0 8.4969e-09
9610.0 8.4227e-09
9630.0 8.3492e-09
9650.0 8.2764e-09
9670.0 8.2043e-09
9690.0 8.133e-09
9710.0 8.0624e-09
9730.0 7.9926e-09
9750.0 7.9236e-09
9770.0 7.8553e-09
9790.0 7.7878e-09
9810.0 7.721e-09
9830.0 7.6551e-09
9850.0 7.5899e-09
9870.0 7.5255e-09
9890.0 7.4619e-09
9910.0 7.3991e-09
9930.0 7.3371e-09
9950.0 7.2758e-09
9970.0 7.2153e-09
9990.0 7.1555e-09
10010.0 7.0965e-09
10030.0 7.0383e-09
10050.0 6.9808e-09
10070.0 6.9241e-09
10090.0 6.8681e-09
10110.0 6.8128e-09
10130.0 6.7583e-09
10150.0 6.7044e-09
10170.0 6.6512e-09
10190.0 6.5988e-09
10210.0 6.547e-09
10230.0 6.4959e-09
10250.0 6.4455e-09
10270.0 6.3957e-09
10290.0 6.3466e-09
10310.0 6.2981e-09
10330.0 6.2503e-09
10350.0 6.203e-09
10370.0 6.1563e-09
10390.0 6.1096e-09
10410.0 6.0547e-09
10430.0 5.9974e-09
10450.0 5.9635e-09
10470.0 5.9244e-09
10490.0 5.8847e-09
10510.0 5.8445e-09
10530.0 5.8026e-09
10550.0 5.7612e-09
10570.0 5.721e-09
10590.0 5.6804e-09
10610.0 5.6398e-09
10630.0 5.6006e-09
10650.0 5.5618e-09
10670.0 5.5224e-09
10690.0 5.484e-09
10710.0 5.4467e-09
10730.0 5.409e-09
10750.0 5.3711e-09
10770.0 5.3351e-09
10790.0 5.2991e-09
10810.0 5.2629e-09
10830.0 5.2274e-09
10850.0 5.1931e-09
10870.0 5.1577e-09
10890.0 5.1227e-09
10910.0 5.0888e-09
10930.0 5.0548e-09
10950.0 5.0199e-09
10970.0 4.9854e-09
10990.0 4.9516e-09
11010.0 4.9162e-09
11030.0 4.8803e-09
11050.0 4.8449e-09
11070.0 4.8087e-09
11090.0 4.7705e-09
11110.0 4.7333e-09
11130.0 4.6961e-09
11150.0 4.6576e-09
11170.0 4.6186e-09
11190.0 4.5808e-09
11210.0 4.5421e-09
11230.0 4.5025e-09
11250.0 4.4642e-09
11270.0 4.4269e-09
11290.0 4.389e-09
11310.0 4.3522e-09
11330.0 4.3183e-09
11350.0 4.2851e-09
11370.0 4.2528e-09
11390.0 4.2228e-09
11410.0 4.1947e-09
11430.0 4.1666e-09
11450.0 4.1403e-09
11470.0 4.1155e-09
11490.0 4.0911e-09
11510.0 4.0665e-09
11530.0 4.0431e-09
11550.0 4.0199e-09
11570.0 3.9959e-09
11590.0 3.9717e-09
11610.0 3.9479e-09
11630.0 3.9228e-09
11650.0 3.8966e-09
11670.0 3.8709e-09
11690.0 3.8447e-09
11710.0 3.8172e-09
11730.0 3.7896e-09
11750.0 3.7628e-09
11770.0 3.7347e-09
11790.0 3.7063e-09
11810.0 3.6788e-09
11830.0 3.6516e-09
11850.0 3.6234e-09
11870.0 3.5964e-09
11890.0 3.571e-09
11910.0 3.5456e-09
11930.0 3.5209e-09
11950.0 3.4981e-09
11970.0 3.4763e-09
11990.0 3.4549e-09
12010.0 3.4353e-09
12030.0 3.4173e-09
12050.0 3.4002e-09
12070.0 3.3842e-09
12090.0 3.3702e-09
12110.0 3.3572e-09
12130.0 3.345e-09
12150.0 3.3339e-09
12170.0 3.324e-09
12190.0 3.3141e-09
12210.0 3.3047e-09
12230.0 3.2958e-09
12250.0 3.2867e-09
12270.0 3.277e-09
12290.0 3.2668e-09
12310.0 3.2562e-09
12330.0 3.244e-09
12350.0 3.2306e-09
12370.0 3.2163e-09
12390.0 3.2004e-09
12410.0 3.182e-09
12430.0 3.163e-09
12450.0 3.1428e-09
12470.0 3.1206e-09
12490.0 3.097e-09
12510.0 3.0732e-09
12530.0 3.0478e-09
12550.0 3.0208e-09
12570.0 2.9939e-09
12590.0 2.9668e-09
12610.0 2.9382e-09
12630.0 2.9094e-09
12650.0 2.882e-09
12670.0 2.854e-09
12690.0 2.8258e-09
12710.0 2.799e-09
12730.0 2.773e-09
12750.0 2.7465e-09
12770.0 2.7214e-09
12790.0 2.6981e-09
12810.0 2.6754e-09
12830.0 2.6534e-09
12850.0 2.6336e-09
12870.0 2.6153e-09
12890.0 2.5976e-09
12910.0 2.5817e-09
12930.0 2.5677e-09
12950.0 2.5548e-09
12970.0 2.5432e-09
12990.0 2.5338e-09
13010.0 2.5259e-09
13030.0 2.5193e-09
13050.0 2.5143e-09
13070.0 2.5107e-09
13090.0 2.5081e-09
13110.0 2.5065e-09
13130.0 2.5056e-09
13150.0 2.505e-09
13170.0 2.5044e-09
13190.0 2.5036e-09
13210.0 2.5022e-09
13230.0 2.5e-09
13250.0 2.4966e-09
13270.0 2.4921e-09
13290.0 2.4861e-09
13310.0 2.4784e-09
13330.0 2.4693e-09
13350.0 2.459e-09
13370.0 2.4468e-09
13390.0 2.4328e-09
13410.0 2.4183e-09
13430.0 2.4023e-09
13450.0 2.3846e-09
13470.0 2.3662e-09
13490.0 2.3474e-09
13510.0 2.3265e-09
13530.0 2.305e-09
13550.0 2.2836e-09
13570.0 2.2613e-09
13590.0 2.2378e-09
13610.0 2.2147e-09
13630.0 2.1918e-09
13650.0 2.1677e-09
13670.0 2.1436e-09
13690.0 2.1202e-09
13710.0 2.0964e-09
13730.0 2.0716e-09
13750.0 2.0484e-09
13770.0 2.0256e-09
13790.0 2.0025e-09
13810.0 1.9799e-09
13830.0 1.9589e-09
13850.0 1.9377e-09
13870.0 1.9168e-09
13890.0 1.8972e-09
13910.0 1.8785e-09
13930.0 1.8598e-09
13950.0 1.8419e-09
13970.0 1.8255e-09
13990.0 1.8093e-09
14010.0 1.7936e-09
14030.0 1.779e-09
14050.0 1.7651e-09
14070.0 1.7511e-09
14090.0 1.7381e-09
14110.0 1.7262e-09
14130.0 1.7145e-09
14150.0 1.7031e-09
14170.0 1.6929e-09
14190.0 1.6831e-09
14210.0 1.6734e-09
14230.0 1.6643e-09
14250.0 1.6557e-09
14270.0 1.6472e-09
14290.0 1.6387e-09
14310.0 1.6309e-09
14330.0 1.6232e-09
14350.0 1.6154e-09
14370.0 1.6079e-09
14390.0 1.6008e-09
14410.0 1.5935e-09
14430.0 1.5863e-09
14450.0 1.5794e-09
14470.0 1.5726e-09
14490.0 1.5655e-09
14510.0 1.5587e-09
14530.0 1.5521e-09
14550.0 1.5453e-09
14570.0 1.5385e-09
14590.0 1.5319e-09
14610.0 1.5251e-09
14630.0 1.518e-09
14650.0 1.5111e-09
14670.0 1.5042e-09
14690.0 1.497e-09
14710.0 1.4896e-09
14730.0 1.4825e-09
14750.0 1.4751e-09
14770.0 1.4675e-09
14790.0 1.4599e-09
14810.0 1.4524e-09
14830.0 1.4442e-09
14850.0 1.4361e-09
14870.0 1.4281e-09
14890.0 1.4199e-09
14910.0 1.4115e-09
14930.0 1.4036e-09
14950.0 1.396e-09
14970.0 1.3887e-09
14990.0 1.3819e-09
15010.0 1.3761e-09
15030.0 1.3707e-09
15050.0 1.3658e-09
15070.0 1.3616e-09
15090.0 1.3579e-09
15110.0 1.3542e-09
15130.0 1.3508e-09
15150.0 1.3475e-09
15170.0 1.3442e-09
15190.0 1.3408e-09
15210.0 1.3376e-09
15230.0 1.3343e-09
15250.0 1.331e-09
15270.0 1.3277e-09
15290.0 1.3245e-09
15310.0 1.3212e-09
15330.0 1.3179e-09
15350.0 1.3146e-09
15370.0 1.3114e-09
15390.0 1.308e-09
15410.0 1.3048e-09
15430.0 1.3015e-09
15450.0 1.2983e-09
15470.0 1.2949e-09
15490.0 1.2917e-09
15510.0 1.2885e-09
15530.0 1.2851e-09
15550.0 1.2819e-09
15570.0 1.2787e-09
15590.0 1.2753e-09
15610.0 1.272e-09
15630.0 1.2688e-09
15650.0 1.2655e-09
15670.0 1.2622e-09
15690.0 1.2589e-09
15710.0 1.2557e-09
15730.0 1.2524e-09
15750.0 1.2491e-09
15770.0 1.2459e-09
15790.0 1.2426e-09
15810.0 1.2392e-09
15830.0 1.236e-09
15850.0 1.2328e-09
15870.0 1.2295e-09
15890.0 1.2261e-09
15910.0 1.223e-09
15930.0 1.2197e-09
15950.0 1.2163e-09
15970.0 1.2131e-09
15990.0 1.2098e-09
16010.0 1.2065e-09
16030.0 1.2032e-09
16050.0 1.2e-09
16070.0 1.1967e-09
16090.0 1.1934e-09
16110.0 1.1902e-09
16130.0 1.187e-09
16150.0 1.1836e-09
16170.0 1.1803e-09
16190.0 1.1771e-09
16210.0 1.1738e-09
16230.0 1.1704e-09
16250.0 1.1672e-09
16270.0 1.164e-09
16290.0 1.1607e-09
16310.0 1.1574e-09
16330.0 1.1542e-09
16350.0 1.1509e-09
16370.0 1.1475e-09
16390.0 1.1443e-09
16410.0 1.1411e-09
16430.0 1.1377e-09
16450.0 1.1344e-09
16470.0 1.1313e-09
16490.0 1.128e-09
16510.0 1.1246e-09
16530.0 1.1214e-09
16550.0 1.1182e-09
16570.0 1.1148e-09
16590.0 1.1115e-09
16610.0 1.1083e-09
16630.0 1.105e-09
16650.0 1.1017e-09
16670.0 1.0985e-09
16690.0 1.0953e-09
16710.0 1.0919e-09
16730.0 1.0886e-09
16750.0 1.0854e-09
16770.0 1.0821e-09
16790.0 1.0788e-09
16810.0 1.0756e-09
16830.0 1.0723e-09
16850.0 1.069e-09
16870.0 1.0657e-09
16890.0 1.0625e-09
16910.0 1.0592e-09
16930.0 1.0558e-09
16950.0 1.0526e-09
16970.0 1.0494e-09
16990.0 1.046e-09
17010.0 1.0428e-09
17030.0 1.0396e-09
17050.0 1.0363e-09
17070.0 1.033e-09
17090.0 1.0298e-09
17110.0 1.0265e-09
17130.0 1.0231e-09
17150.0 1.0198e-09
17170.0 1.0167e-09
17190.0 1.0133e-09
17210.0 1.01e-09
17230.0 1.0069e-09
17250.0 1.0036e-09
17270.0 1.0002e-09
17290.0 9.9696e-10
17310.0 9.9375e-10
17330.0 9.9042e-10
17350.0 9.8707e-10
17370.0 9.839e-10
17390.0 9.8064e-10
17410.0 9.7731e-10
17430.0 9.7407e-10
17450.0 9.7088e-10
17470.0 9.6749e-10
17490.0 9.6418e-10
17510.0 9.6098e-10
17530.0 9.5771e-10
17550.0 9.5436e-10
17570.0 9.5113e-10
17590.0 9.4793e-10
17610.0 9.4459e-10
17630.0 9.413e-10
17650.0 9.381e-10
17670.0 9.3482e-10
17690.0 9.314e-10
17710.0 9.282e-10
17730.0 9.2498e-10
17750.0 9.2165e-10
17770.0 9.1837e-10
17790.0 9.1521e-10
17810.0 9.1189e-10
17830.0 9.0854e-10
17850.0 9.0532e-10
17870.0 9.0208e-10
17890.0 8.9872e-10
17910.0 8.9541e-10
17930.0 8.9224e-10
17950.0 8.8895e-10
17970.0 8.8563e-10
17990.0 8.8242e-10
18010.0 8.792e-10
18030.0 8.758e-10
18050.0 8.7253e-10
18070.0 8.6932e-10
18090.0 8.6602e-10
18110.0 8.6267e-10
18130.0 8.5948e-10
18150.0 8.5625e-10
18170.0 8.5291e-10
18190.0 8.4964e-10
18210.0 8.4645e-10
18230.0 8.4311e-10
18250.0 8.3975e-10
18270.0 8.3655e-10
18290.0 8.3331e-10
18310.0 8.2996e-10
18330.0 8.2671e-10
18350.0 8.2353e-10
18370.0 8.202e-10
18390.0 8.1688e-10
18410.0 8.1367e-10
18430.0 8.1041e-10
18450.0 8.0702e-10
18470.0 8.0377e-10
18490.0 8.0058e-10
18510.0 7.9726e-10
18530.0 7.9396e-10
18550.0 7.9078e-10
18570.0 7.875e-10
18590.0 7.8413e-10
18610.0 7.8088e-10
18630.0 7.7767e-10
18650.0 7.7433e-10
18670.0 7.71e-10
18690.0 7.6783e-10
18710.0 7.6456e-10
18730.0 7.6123e-10
18750.0 7.5799e-10
18770.0 7.548e-10
18790.0 7.514e-10
18810.0 7.481e-10
18830.0 7.449e-10
18850.0 7.4162e-10
18870.0 7.3828e-10
18890.0 7.3506e-10
18910.0 7.3186e-10
18930.0 7.2851e-10
18950.0 7.2522e-10
18970.0 7.2202e-10
18990.0 7.1874e-10
19010.0 7.1532e-10
19030.0 7.1213e-10
19050.0 7.089e-10
19070.0 7.0557e-10
19090.0 7.0229e-10
19110.0 6.9913e-10
19130.0 6.958e-10
19150.0 6.9246e-10
19170.0 6.8924e-10
19190.0 6.86e-10
19210.0 6.8263e-10
19230.0 6.7934e-10
19250.0 6.7617e-10
19270.0 6.7287e-10
19290.0 6.6955e-10
19310.0 6.6635e-10
19330.0 6.6312e-10
19350.0 6.5972e-10
19370.0 6.5645e-10
19390.0 6.5325e-10
19410.0 6.4994e-10
19430.0 6.466e-10
19450.0 6.4341e-10
19470.0 6.4017e-10
19490.0 6.3683e-10
19510.0 6.3357e-10
19530.0 6.3037e-10
19550.0 6.2703e-10
19570.0 6.2367e-10
19590.0 6.2048e-10
19610.0 6.1722e-10
19630.0 6.1388e-10
19650.0 6.1064e-10
19670.0 6.0746e-10
19690.0 6.0411e-10
19710.0 6.008e-10
19730.0 5.9759e-10
19750.0 5.9433e-10
19770.0 5.9093e-10
19790.0 5.877e-10
19810.0 5.845e-10
19830.0 5.8119e-10
19850.0 5.779e-10
19870.0 5.7475e-10
19890.0 5.7153e-10
19910.0 5.6828e-10
19930.0 5.6527e-10
19950.0 5.6243e-10
19970.0 5.5972e-10
19990.0 5.573e-10
20010.0 5.5531e-10
20030.0 5.5357e-10
20050.0 5.5213e-10
20070.0 5.51e-10
20090.0 5.5009e-10
20110.0 5.4928e-10
20130.0 5.486e-10
20150.0 5.4799e-10
20170.0 5.4739e-10
20190.0 5.4677e-10
20210.0 5.4616e-10
20230.0 5.4553e-10
20250.0 5.4484e-10
20270.0 5.4412e-10
20290.0 5.4339e-10
20310.0 5.4259e-10
20330.0 5.4172e-10
20350.0 5.4086e-10
20370.0 5.3994e-10
20390.0 5.3896e-10
20410.0 5.3796e-10
20430.0 5.3695e-10
20450.0 5.3587e-10
20470.0 5.3476e-10
20490.0 5.3368e-10
20510.0 5.3258e-10
20530.0 5.3146e-10
20550.0 5.3037e-10
20570.0 5.2933e-10
20590.0 5.2828e-10
20610.0 5.2725e-10
20630.0 5.2628e-10
20650.0 5.2532e-10
20670.0 5.2432e-10
20690.0 5.2338e-10
20710.0 5.2244e-10
20730.0 5.2146e-10
20750.0 5.2044e-10
20770.0 5.1942e-10
20790.0 5.1832e-10
20810.0 5.1712e-10
20830.0 5.1587e-10
20850.0 5.1456e-10
20870.0 5.1309e-10
20890.0 5.1152e-10
20910.0 5.0994e-10
20930.0 5.0824e-10
20950.0 5.0642e-10
20970.0 5.0458e-10
20990.0 5.0272e-10
21010.0 5.0072e-10
21030.0 4.9872e-10
21050.0 4.9677e-10
21070.0 4.9477e-10
21090.0 4.9272e-10
21110.0 4.9077e-10
21130.0 4.8887e-10
21150.0 4.8691e-10
21170.0 4.8499e-10
21190.0 4.8316e-10
21210.0 4.8128e-10
21230.0 4.7935e-10
21250.0 4.775e-10
21270.0 4.7565e-10
21290.0 4.7371e-10
21310.0 4.7175e-10
21330.0 4.6985e-10
21350.0 4.6784e-10
21370.0 4.6575e-10
21390.0 4.6368e-10
21410.0 4.6156e-10
21430.0 4.5926e-10
21450.0 4.5698e-10
21470.0 4.5472e-10
21490.0 4.5235e-10
21510.0 4.4989e-10
21530.0 4.4749e-10
21550.0 4.4505e-10
21570.0 4.4247e-10
21590.0 4.3994e-10
21610.0 4.3744e-10
21630.0 4.3486e-10
21650.0 4.322e-10
21670.0 4.2971e-10
21690.0 4.2719e-10
21710.0 4.2459e-10
21730.0 4.2206e-10
21750.0 4.1962e-10
21770.0 4.1703e-10
21790.0 4.1447e-10
21810.0 4.12e-10
21830.0 4.0951e-10
21850.0 4.0694e-10
21870.0 4.0444e-10
21890.0 4.0202e-10
21910.0 3.995e-10
21930.0 3.9699e-10
21950.0 3.9459e-10
21970.0 3.9217e-10
21990.0 3.8967e-10
22010.0 3.8732e-10
22030.0 3.8505e-10
22050.0 3.8277e-10
22070.0 3.8055e-10
22090.0 3.785e-10
22110.0 3.7648e-10
22130.0 3.7449e-10
22150.0 3.7265e-10
22170.0 3.7093e-10
22190.0 3.6922e-10
22210.0 3.676e-10
22230.0 3.6614e-10
22250.0 3.6472e-10
22270.0 3.6334e-10
22290.0 3.6206e-10
22310.0 3.6084e-10
22330.0 3.596e-10
22350.0 3.5841e-10
22370.0 3.5728e-10
22390.0 3.5613e-10
22410.0 3.5495e-10
22430.0 3.5383e-10
22450.0 3.527e-10
22470.0 3.5153e-10
22490.0 3.5035e-10
22510.0 3.492e-10
22530.0 3.48e-10
22550.0 3.4676e-10
22570.0 3.4557e-10
22590.0 3.4437e-10
22610.0 3.4314e-10
22630.0 3.4194e-10
