#lamb flux
1010.0 1.3188e-07
1030.0 1.4616e-07
1050.0 1.6258e-07
1070.0 1.8107e-07
1090.0 2.0206e-07
1110.0 2.2361e-07
1130.0 2.4529e-07
1150.0 2.68e-07
1170.0 2.9144e-07
1190.0 3.1366e-07
1210.0 3.3619e-07
1230.0 3.5947e-07
1250.0 3.8229e-07
1270.0 4.0446e-07
1290.0 4.2788e-07
1310.0 4.5129e-07
1330.0 4.7375e-07
1350.0 4.9646e-07
1370.0 5.1992e-07
1390.0 5.4279e-07
1410.0 5.6499e-07
1430.0 5.8821e-07
1450.0 6.1142e-07
1470.0 6.3386e-07
1490.0 6.5655e-07
1510.0 6.8051e-07
1530.0 7.0322e-07
1550.0 7.2563e-07
1570.0 7.488e-07
1590.0 7.7199e-07
1610.0 7.9414e-07
1630.0 8.1697e-07
1650.0 8.4038e-07
1670.0 8.6301e-07
1690.0 8.8532e-07
1710.0 9.0847e-07
1730.0 9.3171e-07
1750.0 9.5352e-07
1770.0 9.7592e-07
1790.0 9.9873e-07
1810.0 1.0207e-06
1830.0 1.0422e-06
1850.0 1.065e-06
1870.0 1.0871e-06
1890.0 1.1083e-06
1910.0 1.1298e-06
1930.0 1.1516e-06
1950.0 1.1723e-06
1970.0 1.1925e-06
1990.0 1.2133e-06
2010.0 1.2335e-06
2030.0 1.2526e-06
2050.0 1.2721e-06
2070.0 1.2918e-06
2090.0 1.3099e-06
2110.0 1.3276e-06
2130.0 1.3454e-06
2150.0 1.3624e-06
2170.0 1.3781e-06
2190.0 1.3939e-06
2210.0 1.4094e-06
2230.0 1.4235e-06
2250.0 1.4368e-06
2270.0 1.4504e-06
2290.0 1.4627e-06
2310.0 1.4735e-06
2330.0 1.4841e-06
2350.0 1.4942e-06
2370.0 1.5028e-06
2390.0 1.511e-06
2410.0 1.5198e-06
2430.0 1.5279e-06
2450.0 1.5359e-06
2470.0 1.5458e-06
2490.0 1.5589e-06
2510.0 1.5752e-06
2530.0 1.6013e-06
2550.0 1.6469e-06
2570.0 1.7208e-06
2590.0 1.8334e-06
2610.0 2.0143e-06
2630.0 2.267e-06
2650.0 2.5738e-06
2670.0 2.935e-06
2690.0 3.3327e-06
2710.0 3.7072e-06
2730.0 4.032e-06
2750.0 4.3132e-06
2770.0 4.523e-06
2790.0 4.6629e-06
2810.0 4.7575e-06
2830.0 4.8242e-06
2850.0 4.8624e-06
2870.0 4.8895e-06
2890.0 4.9152e-06
2910.0 4.9387e-06
2930.0 4.9576e-06
2950.0 4.9799e-06
2970.0 5.0045e-06
2990.0 5.026e-06
3010.0 6.5824e-05
3030.0 6.595e-05
3050.0 6.6064e-05
3070.0 6.6083e-05
3090.0 6.6056e-05
3110.0 6.5889e-05
3130.0 6.5469e-05
3150.0 6.4742e-05
3170.0 6.3611e-05
3190.0 6.2095e-05
3210.0 6.0337e-05
3230.0 5.8533e-05
3250.0 5.7888e-05
3270.0 5.6783e-05
3290.0 5.7879e-05
3310.0 5.746e-05
3330.0 5.891e-05
3350.0 6.1074e-05
3370.0 6.3882e-05
3390.0 6.7233e-05
3410.0 7.0761e-05
3430.0 7.4627e-05
3450.0 7.8935e-05
3470.0 8.3468e-05
3490.0 8.8069e-05
3510.0 9.3396e-05
3530.0 9.9254e-05
3550.0 0.00010419
3570.0 0.00010876
3590.0 0.00011531
3610.0 0.00011967
3630.0 0.00012691
3650.0 0.00013337
3670.0 0.00013988
3690.0 0.00014356
3710.0 0.00014447
3730.0 0.00014652
3750.0 0.00014655
3770.0 0.00013581
3790.0 0.00012462
3810.0 0.00011639
3830.0 0.00010535
3850.0 9.1628e-05
3870.0 9.091e-05
3890.0 0.00011772
3910.0 0.00015759
3930.0 0.00018859
3950.0 0.00019979
3970.0 0.00019567
3990.0 0.00019945
4010.0 0.00022547
4030.0 0.00024172
4050.0 0.00023414
4070.0 0.00020726
4090.0 0.00018304
4110.0 0.00020539
4130.0 0.00022239
4150.0 0.00021835
4170.0 0.00021833
4190.0 0.00021734
4210.0 0.00022551
4230.0 0.00023998
4250.0 0.00025907
4270.0 0.00026389
4290.0 0.00026147
4310.0 0.0002753
4330.0 0.00030237
4350.0 0.00034316
4370.0 0.00038295
4390.0 0.00036907
4410.0 0.00031179
4430.0 0.00025955
4450.0 0.00021743
4470.0 0.00021309
4490.0 0.00023313
4510.0 0.00026923
4530.0 0.00029292
4550.0 0.00032912
4570.0 0.00039264
4590.0 0.00048291
4610.0 0.00061843
4630.0 0.00074424
4650.0 0.0007654
4670.0 0.00076324
4690.0 0.00080757
4710.0 0.00082279
4730.0 0.00069337
4750.0 0.0005127
4770.0 0.00041953
4790.0 0.00039494
4810.0 0.00037443
4830.0 0.00036775
4850.0 0.00042309
4870.0 0.00052202
4890.0 0.00058039
4910.0 0.00050852
4930.0 0.00047547
4950.0 0.00054679
4970.0 0.00071008
4990.0 0.00088029
5010.0 0.00090505
5030.0 0.00074623
5050.0 0.00050998
5070.0 0.00036294
5090.0 0.00031687
5110.0 0.00032449
5130.0 0.00034926
5150.0 0.00036051
5170.0 0.00035786
5190.0 0.00035332
5210.0 0.00034716
5230.0 0.00035996
5250.0 0.0003863
5270.0 0.00044314
5290.0 0.00051143
5310.0 0.0005612
5330.0 0.00058023
5350.0 0.00059556
5370.0 0.00064772
5390.0 0.00068159
5410.0 0.0006456
5430.0 0.00057156
5450.0 0.00055114
5470.0 0.00063658
5490.0 0.00080841
5510.0 0.00099863
5530.0 0.0010842
5550.0 0.0010596
5570.0 0.00098125
5590.0 0.00089288
5610.0 0.00083707
5630.0 0.00081915
5650.0 0.00083601
5670.0 0.00081709
5690.0 0.00076807
5710.0 0.00072939
5730.0 0.00064964
5750.0 0.00050335
5770.0 0.00044412
5790.0 0.00049045
5810.0 0.00057571
5830.0 0.00064529
5850.0 0.00068411
5870.0 0.00068941
5890.0 0.00065838
5910.0 0.00062971
5930.0 0.00063238
5950.0 0.00066391
5970.0 0.00068737
5990.0 0.00063601
6010.0 0.00053426
6030.0 0.00044355
6050.0 0.00039468
6070.0 0.0004005
6090.0 0.00044532
6110.0 0.00047092
6130.0 0.00044817
6150.0 0.00043099
6170.0 0.00047807
6190.0 0.0005702
6210.0 0.00067966
6230.0 0.0007593
6250.0 0.00074814
6270.0 0.00066637
6290.0 0.00055391
6310.0 0.00044385
6330.0 0.00036259
6350.0 0.00033958
6370.0 0.00037327
6390.0 0.00043121
6410.0 0.00049641
6430.0 0.00057869
6450.0 0.0006794
6470.0 0.00083136
6490.0 0.0010032
6510.0 0.0010842
6530.0 0.0010215
6550.0 0.00095819
6570.0 0.00094743
6590.0 0.00091505
6610.0 0.00084427
6630.0 0.00077299
6650.0 0.00072443
6670.0 0.0007348
6690.0 0.00072198
6710.0 0.00065021
6730.0 0.00058857
6750.0 0.00052756
6770.0 0.00052675
6790.0 0.00056233
6810.0 0.00059362
6830.0 0.00060475
6850.0 0.000586
6870.0 0.00056416
6890.0 0.00055039
6910.0 0.00052082
6930.0 0.00049979
6950.0 0.00050108
6970.0 0.00051542
6990.0 0.00056593
7010.0 0.00059652
7030.0 0.00055564
7050.0 0.00051279
7070.0 0.00047398
7090.0 0.00041639
7110.0 0.00038579
7130.0 0.00039621
7150.0 0.00041115
7170.0 0.00042996
7190.0 0.00042741
7210.0 0.00042897
7230.0 0.00046349
7250.0 0.00053297
7270.0 0.00060792
7290.0 0.00064334
7310.0 0.00061665
7330.0 0.00055186
7350.0 0.00050037
7370.0 0.00048928
7390.0 0.0004978
7410.0 0.00052454
7430.0 0.00058176
7450.0 0.00063392
7470.0 0.000697
7490.0 0.00074699
7510.0 0.00066668
7530.0 0.00063588
7550.0 0.00055185
7570.0 0.00047075
7590.0 0.00039001
7610.0 0.00036216
7630.0 0.0003833
7650.0 0.00044157
7670.0 0.00049131
7690.0 0.0005483
7710.0 0.00060999
7730.0 0.00064305
7750.0 0.00065743
7770.0 0.0006617
7790.0 0.00066095
7810.0 0.0006773
7830.0 0.00065641
7850.0 0.00060811
7870.0 0.00056352
7890.0 0.00052367
7910.0 0.00047066
7930.0 0.00041255
7950.0 0.0003757
7970.0 0.00036863
7990.0 0.00038254
8010.0 0.00040811
8030.0 0.00041412
8050.0 0.00041555
8070.0 0.00040568
8090.0 0.00040259
8110.0 0.00038619
8130.0 0.00036477
8150.0 0.00034375
8170.0 0.00033991
8190.0 0.0003474
8210.0 0.00034657
8230.0 0.00034836
8250.0 0.00034382
8270.0 0.00030556
8290.0 0.00023643
8310.0 0.0001679
8330.0 0.00011341
8350.0 8.1198e-05
8370.0 9.0413e-05
8390.0 0.00010187
8410.0 0.0001283
8430.0 0.00015618
8450.0 0.00017092
8470.0 0.00017687
8490.0 0.00018595
8510.0 0.00019635
8530.0 0.00022101
8550.0 0.00024809
8570.0 0.00028836
8590.0 0.00034444
8610.0 0.00039998
8630.0 0.00046614
8650.0 0.00051843
8670.0 0.00051272
8690.0 0.00048528
8710.0 0.00046084
8730.0 0.00043773
8750.0 0.00041989
8770.0 0.0004091
8790.0 0.00039401
8810.0 0.00036521
8830.0 0.00033641
8850.0 0.00029279
8870.0 0.00025661
8890.0 0.00023199
8910.0 0.00023827
8930.0 0.00023239
8950.0 0.00024361
8970.0 0.00024827
8990.0 0.00025597
9010.0 0.00026576
9030.0 0.00026495
9050.0 0.00026506
9070.0 0.00026536
9090.0 0.00026561
9110.0 0.00026568
9130.0 0.00026591
9150.0 0.00026631
9170.0 0.00026659
9190.0 0.00026672
9210.0 0.00026802
9230.0 0.00026831
9250.0 0.00026875
9270.0 0.00026925
9290.0 0.0002698
9310.0 0.00027042
9330.0 0.00027109
9350.0 0.00027178
9370.0 0.00027253
9390.0 0.00027332
9410.0 0.00027413
9430.0 0.00027497
9450.0 0.00027587
9470.0 0.0002768
9490.0 0.00027775
9510.0 0.00027874
9530.0 0.00027978
9550.0 0.00028083
9570.0 0.00028191
9590.0 0.00028303
9610.0 0.00028418
9630.0 0.00028535
9650.0 0.00028655
9670.0 0.00028779
9690.0 0.00028905
9710.0 0.00029032
9730.0 0.00029163
9750.0 0.00029297
9770.0 0.00029429
9790.0 0.00029566
9810.0 0.00029706
9830.0 0.00029846
9850.0 0.00029988
9870.0 0.00030133
9890.0 0.00030278
9910.0 0.00030424
9930.0 0.00030571
9950.0 0.00030715
9970.0 0.00030865
9990.0 0.00031015
10010.0 0.000309
10030.0 0.0003105
10050.0 0.00031194
10070.0 0.00031317
10090.0 0.00031477
10110.0 0.00031632
10130.0 0.00031784
10150.0 0.00031937
10170.0 0.00032086
10190.0 0.0003223
10210.0 0.00032377
10230.0 0.00032522
10250.0 0.00032663
10270.0 0.00032803
10290.0 0.00032944
10310.0 0.00033081
10330.0 0.00033212
10350.0 0.00033345
10370.0 0.00033477
10390.0 0.00033602
10410.0 0.00033726
10430.0 0.00033851
10450.0 0.00033969
10470.0 0.00034082
10490.0 0.00034196
10510.0 0.00034306
10530.0 0.00034407
10550.0 0.00034507
10570.0 0.00034607
10590.0 0.000347
10610.0 0.00034787
10630.0 0.00034874
10650.0 0.00034956
10670.0 0.00035028
10690.0 0.00035099
10710.0 0.00035168
10730.0 0.00035228
10750.0 0.00035281
10770.0 0.00035335
10790.0 0.00035383
10810.0 0.00035422
10830.0 0.00035456
10850.0 0.00035486
10870.0 0.00035497
10890.0 0.00035488
10910.0 0.00035454
10930.0 0.00035372
10950.0 0.00035211
10970.0 0.0003496
10990.0 0.00034611
11010.0 0.00033964
11030.0 0.00033314
11050.0 0.00032563
11070.0 0.00031693
11090.0 0.00030673
11110.0 0.00029643
11130.0 0.00028593
11150.0 0.00027492
11170.0 0.00026396
11190.0 0.00025375
11210.0 0.00024368
11230.0 0.0002339
11250.0 0.0002251
11270.0 0.00021715
11290.0 0.00020968
11310.0 0.00020305
11330.0 0.00019754
11350.0 0.00019257
11370.0 0.00018812
11390.0 0.00018428
11410.0 0.00018083
11430.0 0.0001774
11450.0 0.0001741
11470.0 0.00017083
11490.0 0.00016733
11510.0 0.00016348
11530.0 0.00015949
11550.0 0.00015526
11570.0 0.00015059
11590.0 0.00014573
11610.0 0.00014085
11630.0 0.00013571
11650.0 0.00013044
11670.0 0.00012548
11690.0 0.00012069
11710.0 0.00011598
11730.0 0.00011163
11750.0 0.00010775
11770.0 0.00010408
11790.0 0.00010072
11810.0 9.7811e-05
11830.0 9.5198e-05
11850.0 9.274e-05
11870.0 9.057e-05
11890.0 8.8615e-05
11910.0 8.6706e-05
11930.0 8.4829e-05
11950.0 8.3019e-05
11970.0 8.1163e-05
11990.0 7.918e-05
12010.0 7.717e-05
12030.0 7.5134e-05
12050.0 7.2989e-05
12070.0 7.0776e-05
12090.0 6.8697e-05
12110.0 6.6649e-05
12130.0 6.4663e-05
12150.0 6.2883e-05
12170.0 6.1352e-05
12190.0 6.0015e-05
12210.0 5.9012e-05
12230.0 5.8373e-05
12250.0 5.8082e-05
12270.0 5.818e-05
12290.0 5.8647e-05
12310.0 5.9428e-05
12330.0 6.0583e-05
12350.0 6.2038e-05
12370.0 6.3671e-05
12390.0 6.5512e-05
12410.0 6.7608e-05
12430.0 6.9641e-05
12450.0 7.1647e-05
12470.0 7.3672e-05
12490.0 7.5574e-05
12510.0 7.7219e-05
12530.0 7.8721e-05
12550.0 8.0017e-05
12570.0 8.0991e-05
12590.0 8.1677e-05
12610.0 8.2111e-05
12630.0 8.2237e-05
12650.0 8.2066e-05
12670.0 8.1648e-05
12690.0 8.098e-05
12710.0 8.0108e-05
12730.0 7.9065e-05
12750.0 7.7818e-05
12770.0 7.6453e-05
12790.0 7.5016e-05
12810.0 7.3471e-05
12830.0 7.1823e-05
12850.0 7.0182e-05
12870.0 6.8507e-05
12890.0 6.674e-05
12910.0 6.4956e-05
12930.0 6.3186e-05
12950.0 6.1323e-05
12970.0 5.939e-05
12990.0 5.7508e-05
13010.0 5.5602e-05
13030.0 5.3629e-05
13050.0 5.1687e-05
13070.0 4.9832e-05
13090.0 4.7953e-05
13110.0 4.6128e-05
13130.0 4.445e-05
13150.0 4.2882e-05
13170.0 4.1391e-05
13190.0 4.0111e-05
13210.0 3.904e-05
13230.0 3.813e-05
13250.0 3.7424e-05
13270.0 3.6942e-05
13290.0 3.6653e-05
13310.0 3.6566e-05
13330.0 3.667e-05
13350.0 3.6933e-05
13370.0 3.7361e-05
13390.0 3.7933e-05
13410.0 3.8559e-05
13430.0 3.9267e-05
13450.0 4.0044e-05
13470.0 4.0817e-05
13490.0 4.1558e-05
13510.0 4.2326e-05
13530.0 4.3034e-05
13550.0 4.365e-05
13570.0 4.4209e-05
13590.0 4.4708e-05
13610.0 4.5106e-05
13630.0 4.5415e-05
13650.0 4.5666e-05
13670.0 4.5837e-05
13690.0 4.5928e-05
13710.0 4.5959e-05
13730.0 4.593e-05
13750.0 4.5838e-05
13770.0 4.5694e-05
13790.0 4.5498e-05
13810.0 4.5252e-05
13830.0 4.4966e-05
13850.0 4.4631e-05
13870.0 4.4244e-05
13890.0 4.3823e-05
13910.0 4.3367e-05
13930.0 4.2856e-05
13950.0 4.2314e-05
13970.0 4.177e-05
13990.0 4.1194e-05
14010.0 4.0599e-05
14030.0 4.0021e-05
14050.0 3.9457e-05
14070.0 3.8886e-05
14090.0 3.8359e-05
14110.0 3.7884e-05
14130.0 3.7445e-05
14150.0 3.7056e-05
14170.0 3.6743e-05
14190.0 3.6493e-05
14210.0 3.6307e-05
14230.0 3.6196e-05
14250.0 3.6156e-05
14270.0 3.6191e-05
14290.0 3.6304e-05
14310.0 3.6478e-05
14330.0 3.6714e-05
14350.0 3.7019e-05
14370.0 3.7369e-05
14390.0 3.7745e-05
14410.0 3.8173e-05
14430.0 3.863e-05
14450.0 3.9087e-05
14470.0 3.9561e-05
14490.0 4.0071e-05
14510.0 4.0574e-05
14530.0 4.1078e-05
14550.0 4.1624e-05
14570.0 4.221e-05
14590.0 4.2815e-05
14610.0 4.3491e-05
14630.0 4.4271e-05
14650.0 4.5114e-05
14670.0 4.6034e-05
14690.0 4.7091e-05
14710.0 4.8274e-05
14730.0 4.9485e-05
14750.0 5.0811e-05
14770.0 5.2251e-05
14790.0 5.371e-05
14810.0 5.5165e-05
14830.0 5.6722e-05
14850.0 5.8228e-05
14870.0 5.9624e-05
14890.0 6.0961e-05
14910.0 6.2213e-05
14930.0 6.3278e-05
14950.0 6.4164e-05
14970.0 6.4908e-05
14990.0 6.5455e-05
15010.0 6.5815e-05
15030.0 6.6028e-05
15050.0 6.6112e-05
15070.0 6.6094e-05
15090.0 6.6013e-05
15110.0 6.5886e-05
15130.0 6.5735e-05
15150.0 6.5579e-05
15170.0 6.541e-05
15190.0 6.5237e-05
15210.0 6.5069e-05
15230.0 6.4904e-05
15250.0 6.4731e-05
15270.0 6.4561e-05
15290.0 6.4402e-05
15310.0 6.4237e-05
15330.0 6.407e-05
15350.0 6.391e-05
15370.0 6.3752e-05
15390.0 6.3584e-05
15410.0 6.3422e-05
15430.0 6.3266e-05
15450.0 6.3105e-05
15470.0 6.2941e-05
15490.0 6.2787e-05
15510.0 6.2632e-05
15530.0 6.247e-05
15550.0 6.2313e-05
15570.0 6.2161e-05
15590.0 6.2002e-05
15610.0 6.1839e-05
15630.0 6.1687e-05
15650.0 6.1533e-05
15670.0 6.1373e-05
15690.0 6.1217e-05
15710.0 6.1067e-05
15730.0 6.0909e-05
15750.0 6.075e-05
15770.0 6.0597e-05
15790.0 6.0443e-05
15810.0 6.028e-05
15830.0 6.0124e-05
15850.0 5.9972e-05
15870.0 5.9813e-05
15890.0 5.9654e-05
15910.0 5.9501e-05
15930.0 5.9345e-05
15950.0 5.9181e-05
15970.0 5.9023e-05
15990.0 5.8868e-05
16010.0 5.8705e-05
16030.0 5.854e-05
16050.0 5.8386e-05
16070.0 5.8226e-05
16090.0 5.8061e-05
16110.0 5.79e-05
16130.0 5.7743e-05
16150.0 5.7573e-05
16170.0 5.7406e-05
16190.0 5.7246e-05
16210.0 5.7081e-05
16230.0 5.691e-05
16250.0 5.6746e-05
16270.0 5.6583e-05
16290.0 5.6411e-05
16310.0 5.6241e-05
16330.0 5.6075e-05
16350.0 5.5905e-05
16370.0 5.5725e-05
16390.0 5.5556e-05
16410.0 5.5386e-05
16430.0 5.5209e-05
16450.0 5.5033e-05
16470.0 5.4864e-05
16490.0 5.4686e-05
16510.0 5.4504e-05
16530.0 5.4328e-05
16550.0 5.4151e-05
16570.0 5.3966e-05
16590.0 5.3782e-05
16610.0 5.3606e-05
16630.0 5.3423e-05
16650.0 5.3236e-05
16670.0 5.3055e-05
16690.0 5.2872e-05
16710.0 5.2679e-05
16730.0 5.249e-05
16750.0 5.2306e-05
16770.0 5.2115e-05
16790.0 5.192e-05
16810.0 5.1733e-05
16830.0 5.1544e-05
16850.0 5.1347e-05
16870.0 5.1153e-05
16890.0 5.0963e-05
16910.0 5.0763e-05
16930.0 5.0561e-05
16950.0 5.0367e-05
16970.0 5.017e-05
16990.0 4.9967e-05
17010.0 4.9767e-05
17030.0 4.9572e-05
17050.0 4.9366e-05
17070.0 4.916e-05
17090.0 4.896e-05
17110.0 4.8756e-05
17130.0 4.8544e-05
17150.0 4.8338e-05
17170.0 4.8136e-05
17190.0 4.7925e-05
17210.0 4.7714e-05
17230.0 4.751e-05
17250.0 4.73e-05
17270.0 4.7083e-05
17290.0 4.6872e-05
17310.0 4.6663e-05
17330.0 4.6447e-05
17350.0 4.6228e-05
17370.0 4.602e-05
17390.0 4.5805e-05
17410.0 4.5585e-05
17430.0 4.537e-05
17450.0 4.5158e-05
17470.0 4.4933e-05
17490.0 4.4712e-05
17510.0 4.4497e-05
17530.0 4.4277e-05
17550.0 4.4052e-05
17570.0 4.3834e-05
17590.0 4.3618e-05
17610.0 4.3391e-05
17630.0 4.3168e-05
17650.0 4.2949e-05
17670.0 4.2726e-05
17690.0 4.2493e-05
17710.0 4.2273e-05
17730.0 4.2052e-05
17750.0 4.1823e-05
17770.0 4.1597e-05
17790.0 4.1378e-05
17810.0 4.1149e-05
17830.0 4.0918e-05
17850.0 4.0694e-05
17870.0 4.0469e-05
17890.0 4.0236e-05
17910.0 4.0007e-05
17930.0 3.9785e-05
17950.0 3.9556e-05
17970.0 3.9324e-05
17990.0 3.91e-05
18010.0 3.8874e-05
18030.0 3.8638e-05
18050.0 3.8408e-05
18070.0 3.8183e-05
18090.0 3.7952e-05
18110.0 3.7718e-05
18130.0 3.7494e-05
18150.0 3.7266e-05
18170.0 3.7033e-05
18190.0 3.6804e-05
18210.0 3.6579e-05
18230.0 3.6345e-05
18250.0 3.611e-05
18270.0 3.5885e-05
18290.0 3.5657e-05
18310.0 3.5423e-05
18330.0 3.5195e-05
18350.0 3.4971e-05
18370.0 3.4738e-05
18390.0 3.4507e-05
18410.0 3.4281e-05
18430.0 3.4053e-05
18450.0 3.3818e-05
18470.0 3.359e-05
18490.0 3.3367e-05
18510.0 3.3136e-05
18530.0 3.2906e-05
18550.0 3.2684e-05
18570.0 3.2456e-05
18590.0 3.2223e-05
18610.0 3.1998e-05
18630.0 3.1774e-05
18650.0 3.1544e-05
18670.0 3.1315e-05
18690.0 3.1095e-05
18710.0 3.087e-05
18730.0 3.0641e-05
18750.0 3.0418e-05
18770.0 3.0198e-05
18790.0 2.9967e-05
18810.0 2.9742e-05
18830.0 2.9523e-05
18850.0 2.9299e-05
18870.0 2.9072e-05
18890.0 2.8853e-05
18910.0 2.8636e-05
18930.0 2.841e-05
18950.0 2.8188e-05
18970.0 2.7972e-05
18990.0 2.7751e-05
19010.0 2.7524e-05
19030.0 2.7309e-05
19050.0 2.7093e-05
19070.0 2.6872e-05
19090.0 2.6654e-05
19110.0 2.6443e-05
19130.0 2.6223e-05
19150.0 2.6003e-05
19170.0 2.579e-05
19190.0 2.5577e-05
19210.0 2.5358e-05
19230.0 2.5142e-05
19250.0 2.4934e-05
19270.0 2.472e-05
19290.0 2.4505e-05
19310.0 2.4297e-05
19330.0 2.4088e-05
19350.0 2.387e-05
19370.0 2.366e-05
19390.0 2.3454e-05
19410.0 2.3243e-05
19430.0 2.3031e-05
19450.0 2.2828e-05
19470.0 2.2622e-05
19490.0 2.2412e-05
19510.0 2.2206e-05
19530.0 2.2005e-05
19550.0 2.1796e-05
19570.0 2.1587e-05
19590.0 2.1388e-05
19610.0 2.1185e-05
19630.0 2.0979e-05
19650.0 2.0779e-05
19670.0 2.0582e-05
19690.0 2.0377e-05
19710.0 2.0175e-05
19730.0 1.9978e-05
19750.0 1.978e-05
19770.0 1.9575e-05
19790.0 1.9379e-05
19810.0 1.9185e-05
19830.0 1.8986e-05
19850.0 1.8787e-05
19870.0 1.8593e-05
19890.0 1.8391e-05
19910.0 1.8177e-05
19930.0 1.796e-05
19950.0 1.7728e-05
19970.0 1.7466e-05
19990.0 1.7176e-05
20010.0 1.695e-05
20030.0 1.6604e-05
20050.0 1.6225e-05
20070.0 1.584e-05
20090.0 1.5449e-05
20110.0 1.5033e-05
20130.0 1.4637e-05
20150.0 1.4267e-05
20170.0 1.3905e-05
20190.0 1.3559e-05
20210.0 1.325e-05
20230.0 1.2964e-05
20250.0 1.2694e-05
20270.0 1.2457e-05
20290.0 1.2253e-05
20310.0 1.2071e-05
20330.0 1.1913e-05
20350.0 1.1793e-05
20370.0 1.1699e-05
20390.0 1.163e-05
20410.0 1.1589e-05
20430.0 1.1574e-05
20450.0 1.1586e-05
20470.0 1.1623e-05
20490.0 1.1682e-05
20510.0 1.1764e-05
20530.0 1.187e-05
20550.0 1.1992e-05
20570.0 1.2126e-05
20590.0 1.228e-05
20610.0 1.2447e-05
20630.0 1.2616e-05
20650.0 1.2794e-05
20670.0 1.2986e-05
20690.0 1.3172e-05
20710.0 1.3354e-05
20730.0 1.3541e-05
20750.0 1.3726e-05
20770.0 1.3898e-05
20790.0 1.4071e-05
20810.0 1.4247e-05
20830.0 1.4414e-05
20850.0 1.4578e-05
20870.0 1.4751e-05
20890.0 1.4925e-05
20910.0 1.5093e-05
20930.0 1.5269e-05
20950.0 1.5455e-05
20970.0 1.5638e-05
20990.0 1.582e-05
21010.0 1.6015e-05
21030.0 1.6207e-05
21050.0 1.6389e-05
21070.0 1.657e-05
21090.0 1.6749e-05
21110.0 1.6907e-05
21130.0 1.705e-05
21150.0 1.7183e-05
21170.0 1.7296e-05
21190.0 1.7386e-05
21210.0 1.7459e-05
21230.0 1.7511e-05
21250.0 1.7537e-05
21270.0 1.7541e-05
21290.0 1.7522e-05
21310.0 1.748e-05
21330.0 1.7418e-05
21350.0 1.7332e-05
21370.0 1.7223e-05
21390.0 1.7097e-05
21410.0 1.6953e-05
21430.0 1.6782e-05
21450.0 1.6598e-05
21470.0 1.6405e-05
21490.0 1.6194e-05
21510.0 1.5969e-05
21530.0 1.5746e-05
21550.0 1.5516e-05
21570.0 1.5276e-05
21590.0 1.5043e-05
21610.0 1.482e-05
21630.0 1.4599e-05
21650.0 1.4385e-05
21670.0 1.42e-05
21690.0 1.403e-05
21710.0 1.3878e-05
21730.0 1.3752e-05
21750.0 1.3655e-05
21770.0 1.3581e-05
21790.0 1.3537e-05
21810.0 1.3524e-05
21830.0 1.3539e-05
21850.0 1.3586e-05
21870.0 1.3661e-05
21890.0 1.3759e-05
21910.0 1.3887e-05
21930.0 1.404e-05
21950.0 1.421e-05
21970.0 1.4402e-05
21990.0 1.4623e-05
22010.0 1.4849e-05
22030.0 1.5084e-05
22050.0 1.5338e-05
22070.0 1.56e-05
22090.0 1.5854e-05
22110.0 1.6116e-05
22130.0 1.6384e-05
22150.0 1.6638e-05
22170.0 1.6881e-05
22190.0 1.7123e-05
22210.0 1.7349e-05
22230.0 1.7546e-05
22250.0 1.7728e-05
22270.0 1.7889e-05
22290.0 1.8018e-05
22310.0 1.8118e-05
22330.0 1.8192e-05
22350.0 1.8229e-05
22370.0 1.8232e-05
22390.0 1.82e-05
22410.0 1.8129e-05
22430.0 1.8025e-05
22450.0 1.7888e-05
22470.0 1.7711e-05
22490.0 1.7502e-05
22510.0 1.7269e-05
22530.0 1.6997e-05
22550.0 1.6689e-05
22570.0 1.637e-05
22590.0 1.6028e-05
22610.0 1.5655e-05
22630.0 1.5268e-05
