#lamb flux
1010.0 4.7263e-09
1030.0 5.2273e-09
1050.0 5.8036e-09
1070.0 6.4523e-09
1090.0 7.1892e-09
1110.0 7.9449e-09
1130.0 8.7056e-09
1150.0 9.5023e-09
1170.0 1.0324e-08
1190.0 1.1104e-08
1210.0 1.1893e-08
1230.0 1.271e-08
1250.0 1.3509e-08
1270.0 1.4286e-08
1290.0 1.5107e-08
1310.0 1.5927e-08
1330.0 1.6713e-08
1350.0 1.7508e-08
1370.0 1.8329e-08
1390.0 1.913e-08
1410.0 1.9907e-08
1430.0 2.0719e-08
1450.0 2.1531e-08
1470.0 2.2316e-08
1490.0 2.3109e-08
1510.0 2.3947e-08
1530.0 2.4741e-08
1550.0 2.5525e-08
1570.0 2.6336e-08
1590.0 2.7148e-08
1610.0 2.7924e-08
1630.0 2.8724e-08
1650.0 2.9545e-08
1670.0 3.0341e-08
1690.0 3.1126e-08
1710.0 3.1942e-08
1730.0 3.2764e-08
1750.0 3.3537e-08
1770.0 3.4334e-08
1790.0 3.5148e-08
1810.0 3.5937e-08
1830.0 3.6713e-08
1850.0 3.7538e-08
1870.0 3.8342e-08
1890.0 3.9122e-08
1910.0 3.9918e-08
1930.0 4.0735e-08
1950.0 4.1517e-08
1970.0 4.2291e-08
1990.0 4.3096e-08
2010.0 4.389e-08
2030.0 4.4657e-08
2050.0 4.5449e-08
2070.0 4.6263e-08
2090.0 4.7033e-08
2110.0 4.7802e-08
2130.0 4.8596e-08
2150.0 4.9376e-08
2170.0 5.0124e-08
2190.0 5.0902e-08
2210.0 5.1686e-08
2230.0 5.2439e-08
2250.0 5.319e-08
2270.0 5.3976e-08
2290.0 5.4738e-08
2310.0 5.5471e-08
2330.0 5.6234e-08
2350.0 5.7017e-08
2370.0 5.7797e-08
2390.0 5.8642e-08
2410.0 5.9642e-08
2430.0 6.0793e-08
2450.0 6.2169e-08
2470.0 6.3932e-08
2490.0 6.6153e-08
2510.0 6.8679e-08
2530.0 7.1719e-08
2550.0 7.5524e-08
2570.0 8.0258e-08
2590.0 8.6415e-08
2610.0 9.5634e-08
2630.0 1.088e-07
2650.0 1.2601e-07
2670.0 1.4826e-07
2690.0 1.756e-07
2710.0 2.0479e-07
2730.0 2.3363e-07
2750.0 2.6204e-07
2770.0 2.8675e-07
2790.0 3.0637e-07
2810.0 3.2194e-07
2830.0 3.3411e-07
2850.0 3.4241e-07
2870.0 3.4851e-07
2890.0 3.5334e-07
2910.0 3.5719e-07
2930.0 3.6033e-07
2950.0 3.6334e-07
2970.0 3.6628e-07
2990.0 3.6903e-07
3010.0 1.0431e-05
3030.0 1.0509e-05
3050.0 1.0584e-05
3070.0 1.0649e-05
3090.0 1.0704e-05
3110.0 1.0739e-05
3130.0 1.0737e-05
3150.0 1.069e-05
3170.0 1.0575e-05
3190.0 1.0395e-05
3210.0 1.0167e-05
3230.0 9.9063e-06
3250.0 9.6487e-06
3270.0 9.4605e-06
3290.0 9.356e-06
3310.0 9.3729e-06
3330.0 9.5086e-06
3350.0 9.7448e-06
3370.0 1.0082e-05
3390.0 1.0507e-05
3410.0 1.097e-05
3430.0 1.1489e-05
3450.0 1.2087e-05
3470.0 1.274e-05
3490.0 1.3432e-05
3510.0 1.4214e-05
3530.0 1.5051e-05
3550.0 1.5899e-05
3570.0 1.6784e-05
3590.0 1.7746e-05
3610.0 1.8737e-05
3630.0 1.9725e-05
3650.0 2.075e-05
3670.0 2.1686e-05
3690.0 2.2386e-05
3710.0 2.2787e-05
3730.0 2.28e-05
3750.0 2.2483e-05
3770.0 2.2358e-05
3790.0 2.2225e-05
3810.0 2.1679e-05
3830.0 2.235e-05
3850.0 2.499e-05
3870.0 2.6439e-05
3890.0 2.6319e-05
3910.0 2.6431e-05
3930.0 2.7127e-05
3950.0 2.7555e-05
3970.0 2.5105e-05
3990.0 2.1602e-05
4010.0 6.4744e-05
4030.0 7.8446e-05
4050.0 8.9934e-05
4070.0 7.8032e-05
4090.0 7.0674e-05
4110.0 6.2363e-05
4130.0 5.7399e-05
4150.0 6.1055e-05
4170.0 6.0141e-05
4190.0 6.4107e-05
4210.0 6.352e-05
4230.0 6.7187e-05
4250.0 7.9484e-05
4270.0 8.0419e-05
4290.0 7.4105e-05
4310.0 7.7e-05
4330.0 8.1905e-05
4350.0 9.1836e-05
4370.0 0.00010451
4390.0 9.8072e-05
4410.0 7.2459e-05
4430.0 6.1341e-05
4450.0 5.6365e-05
4470.0 4.3262e-05
4490.0 4.6685e-05
4510.0 7.0519e-05
4530.0 8.1329e-05
4550.0 8.2035e-05
4570.0 9.231e-05
4590.0 0.00010515
4610.0 0.00014182
4630.0 0.0001842
4650.0 0.00019976
4670.0 0.000185
4690.0 0.00017652
4710.0 0.00018659
4730.0 0.00017609
4750.0 0.00013165
4770.0 9.6571e-05
4790.0 9.0179e-05
4810.0 8.5955e-05
4830.0 7.8691e-05
4850.0 8.6349e-05
4870.0 0.00011408
4890.0 0.00013453
4910.0 0.00011803
4930.0 0.00010444
4950.0 0.00011474
4970.0 0.00014715
4990.0 0.00019943
5010.0 0.00022941
5030.0 0.00020229
5050.0 0.00013686
5070.0 9.0197e-05
5090.0 7.2731e-05
5110.0 7.4797e-05
5130.0 8.6327e-05
5150.0 9.3529e-05
5170.0 9.2126e-05
5190.0 8.6085e-05
5210.0 8.9979e-05
5230.0 9.4588e-05
5250.0 0.00010194
5270.0 0.00010999
5290.0 0.00012189
5310.0 0.00014187
5330.0 0.000157
5350.0 0.000156
5370.0 0.00016386
5390.0 0.00018804
5410.0 0.00018787
5430.0 0.00016614
5450.0 0.00015265
5470.0 0.00016209
5490.0 0.00019802
5510.0 0.0002476
5530.0 0.00028399
5550.0 0.00027448
5570.0 0.00024952
5590.0 0.00021696
5610.0 0.00020009
5630.0 0.00019402
5650.0 0.00018479
5670.0 0.0001751
5690.0 0.00015654
5710.0 0.00015263
5730.0 0.0001406
5750.0 9.9129e-05
5770.0 7.7338e-05
5790.0 8.7641e-05
5810.0 9.8962e-05
5830.0 0.00012144
5850.0 0.00014456
5870.0 0.00016039
5890.0 0.00016311
5910.0 0.00016002
5930.0 0.00015232
5950.0 0.00015522
5970.0 0.00017693
5990.0 0.00016636
6010.0 0.00013946
6030.0 0.00011782
6050.0 0.00010261
6070.0 0.00010205
6090.0 0.00011066
6110.0 0.00012373
6130.0 0.00012563
6150.0 0.00010809
6170.0 9.5086e-05
6190.0 0.00010701
6210.0 0.00014146
6230.0 0.00018563
6250.0 0.00020107
6270.0 0.00017571
6290.0 0.00014783
6310.0 0.00011541
6330.0 8.8424e-05
6350.0 7.8872e-05
6370.0 8.2942e-05
6390.0 9.5886e-05
6410.0 0.00011823
6430.0 0.00013806
6450.0 0.00015798
6470.0 0.00018089
6490.0 0.0002185
6510.0 0.00024431
6530.0 0.00023969
6550.0 0.00021674
6570.0 0.00018399
6590.0 0.00016591
6610.0 0.00014306
6630.0 0.00012961
6650.0 0.00012252
6670.0 0.00011902
6690.0 0.00010754
6710.0 9.7758e-05
6730.0 7.0413e-05
6750.0 6.9807e-05
6770.0 7.5875e-05
6790.0 8.7213e-05
6810.0 7.9802e-05
6830.0 8.2174e-05
6850.0 7.6859e-05
6870.0 7.021e-05
6890.0 6.7413e-05
6910.0 7.1837e-05
6930.0 6.7285e-05
6950.0 6.9225e-05
6970.0 7.2813e-05
6990.0 8.2648e-05
7010.0 8.3352e-05
7030.0 8.4676e-05
7050.0 8.0752e-05
7070.0 7.6943e-05
7090.0 7.7168e-05
7110.0 7.94e-05
7130.0 8.5447e-05
7150.0 9.0751e-05
7170.0 0.00010014
7190.0 0.00011008
7210.0 0.00010817
7230.0 0.0001112
7250.0 0.0001195
7270.0 0.00013023
7290.0 0.00015456
7310.0 0.00016772
7330.0 0.00016211
7350.0 0.00014662
7370.0 0.00012757
7390.0 0.00012376
7410.0 0.00013152
7430.0 0.00014617
7450.0 0.00015921
7470.0 0.00015774
7490.0 0.00014383
7510.0 0.00016293
7530.0 0.00016114
7550.0 0.00014484
7570.0 0.00011314
7590.0 7.7783e-05
7610.0 6.6761e-05
7630.0 7.5853e-05
7650.0 8.9686e-05
7670.0 0.00011162
7690.0 0.00012283
7710.0 0.000128
7730.0 0.00013452
7750.0 0.00015101
7770.0 0.00015338
7790.0 0.00014089
7810.0 0.00012855
7830.0 0.00013257
7850.0 0.00012887
7870.0 0.00011815
7890.0 9.9268e-05
7910.0 8.0692e-05
7930.0 7.7048e-05
7950.0 7.0193e-05
7970.0 6.4977e-05
7990.0 6.4606e-05
8010.0 4.7849e-06
8030.0 4.7227e-06
8050.0 4.659e-06
8070.0 4.72e-06
8090.0 5.0715e-06
8110.0 4.9851e-06
8130.0 4.1121e-06
8150.0 4.0047e-06
8170.0 3.4494e-06
8190.0 3.2691e-06
8210.0 4.2452e-06
8230.0 4.7265e-06
8250.0 4.2599e-06
8270.0 3.7077e-06
8290.0 3.6143e-06
8310.0 2.7817e-06
8330.0 1.8749e-06
8350.0 1.3306e-06
8370.0 8.3833e-07
8390.0 1.5324e-06
8410.0 1.7857e-06
8430.0 2.2012e-06
8450.0 2.5848e-06
8470.0 3.2127e-06
8490.0 3.19e-06
8510.0 3.1379e-06
8530.0 3.2748e-06
8550.0 4.4184e-06
8570.0 5.2307e-06
8590.0 5.6439e-06
8610.0 7.1294e-06
8630.0 8.5884e-06
8650.0 8.9844e-06
8670.0 9.5477e-06
8690.0 9.6012e-06
8710.0 8.6952e-06
8730.0 8.0879e-06
8750.0 7.1391e-06
8770.0 6.7739e-06
8790.0 6.655e-06
8810.0 6.377e-06
8830.0 5.0994e-06
8850.0 3.7331e-06
8870.0 2.8584e-06
8890.0 2.7945e-06
8910.0 3.2026e-06
8930.0 3.6427e-06
8950.0 3.7125e-06
8970.0 3.73e-06
8990.0 3.3267e-06
9010.0 3.4862e-05
9030.0 3.1589e-05
9050.0 3.1742e-05
9070.0 3.1992e-05
9090.0 3.2212e-05
9110.0 3.2484e-05
9130.0 3.2693e-05
9150.0 3.2856e-05
9170.0 3.3029e-05
9190.0 3.3215e-05
9210.0 3.341e-05
9230.0 3.3616e-05
9250.0 3.3825e-05
9270.0 3.4042e-05
9290.0 3.4265e-05
9310.0 3.449e-05
9330.0 3.472e-05
9350.0 3.4958e-05
9370.0 3.5199e-05
9390.0 3.5442e-05
9410.0 3.5692e-05
9430.0 3.5949e-05
9450.0 3.6206e-05
9470.0 3.6468e-05
9490.0 3.6738e-05
9510.0 3.7011e-05
9530.0 3.7285e-05
9550.0 3.7569e-05
9570.0 3.7857e-05
9590.0 3.8147e-05
9610.0 3.8441e-05
9630.0 3.8744e-05
9650.0 3.9048e-05
9670.0 3.9354e-05
9690.0 3.9668e-05
9710.0 3.9986e-05
9730.0 4.0305e-05
9750.0 4.0629e-05
9770.0 4.0963e-05
9790.0 4.1296e-05
9810.0 4.163e-05
9830.0 4.1972e-05
9850.0 4.2318e-05
9870.0 4.2663e-05
9890.0 4.3014e-05
9910.0 4.3371e-05
9930.0 4.3728e-05
9950.0 4.4087e-05
9970.0 4.4453e-05
9990.0 4.4822e-05
10010.0 3.8894e-05
10030.0 3.9213e-05
10050.0 3.9539e-05
10070.0 3.9876e-05
10090.0 4.0193e-05
10110.0 4.0519e-05
10130.0 4.0846e-05
10150.0 4.1171e-05
10170.0 4.1501e-05
10190.0 4.1836e-05
10210.0 4.2167e-05
10230.0 4.2498e-05
10250.0 4.2834e-05
10270.0 4.3169e-05
10290.0 4.3501e-05
10310.0 4.3836e-05
10330.0 4.4175e-05
10350.0 4.4508e-05
10370.0 4.484e-05
10390.0 4.5176e-05
10410.0 4.551e-05
10430.0 4.5838e-05
10450.0 4.6169e-05
10470.0 4.6501e-05
10490.0 4.6827e-05
10510.0 4.7151e-05
10530.0 4.748e-05
10550.0 4.7804e-05
10570.0 4.8121e-05
10590.0 4.844e-05
10610.0 4.8759e-05
10630.0 4.9069e-05
10650.0 4.9377e-05
10670.0 4.9689e-05
10690.0 4.9994e-05
10710.0 5.0293e-05
10730.0 5.0592e-05
10750.0 5.0892e-05
10770.0 5.1179e-05
10790.0 5.1465e-05
10810.0 5.175e-05
10830.0 5.2025e-05
10850.0 5.2288e-05
10870.0 5.2542e-05
10890.0 5.2765e-05
10910.0 5.2937e-05
10930.0 5.3034e-05
10950.0 5.3012e-05
10970.0 5.2832e-05
10990.0 5.248e-05
11010.0 5.189e-05
11030.0 5.1065e-05
11050.0 5.0059e-05
11070.0 4.8856e-05
11090.0 4.741e-05
11110.0 4.5915e-05
11130.0 4.4355e-05
11150.0 4.2676e-05
11170.0 4.0945e-05
11190.0 3.9266e-05
11210.0 3.7532e-05
11230.0 3.5754e-05
11250.0 3.4055e-05
11270.0 3.2424e-05
11290.0 3.0789e-05
11310.0 2.9241e-05
11330.0 2.7877e-05
11350.0 2.6589e-05
11370.0 2.5398e-05
11390.0 2.4368e-05
11410.0 2.3468e-05
11430.0 2.263e-05
11450.0 2.1909e-05
11470.0 2.1285e-05
11490.0 2.0705e-05
11510.0 2.0146e-05
11530.0 1.9627e-05
11550.0 1.9111e-05
11570.0 1.8561e-05
11590.0 1.7992e-05
11610.0 1.7412e-05
11630.0 1.6781e-05
11650.0 1.6105e-05
11670.0 1.544e-05
11690.0 1.4765e-05
11710.0 1.4068e-05
11730.0 1.3393e-05
11750.0 1.2769e-05
11770.0 1.2156e-05
11790.0 1.1582e-05
11810.0 1.1077e-05
11830.0 1.0625e-05
11850.0 1.0208e-05
11870.0 9.8602e-06
11890.0 9.5707e-06
11910.0 9.3163e-06
11930.0 9.0977e-06
11950.0 8.9157e-06
11970.0 8.753e-06
11990.0 8.5992e-06
12010.0 8.457e-06
12030.0 8.3199e-06
12050.0 8.1782e-06
12070.0 8.0308e-06
12090.0 7.8887e-06
12110.0 7.7445e-06
12130.0 7.5999e-06
12150.0 7.4667e-06
12170.0 7.3504e-06
12190.0 7.2498e-06
12210.0 7.1796e-06
12230.0 7.1456e-06
12250.0 7.1511e-06
12270.0 7.205e-06
12290.0 7.307e-06
12310.0 7.4532e-06
12330.0 7.6578e-06
12350.0 7.9131e-06
12370.0 8.2038e-06
12390.0 8.5389e-06
12410.0 8.9316e-06
12430.0 9.3308e-06
12450.0 9.7441e-06
12470.0 1.0184e-05
12490.0 1.0625e-05
12510.0 1.1039e-05
12530.0 1.1451e-05
12550.0 1.1849e-05
12570.0 1.2199e-05
12590.0 1.2507e-05
12610.0 1.2782e-05
12630.0 1.3001e-05
12650.0 1.3152e-05
12670.0 1.3251e-05
12690.0 1.3291e-05
12710.0 1.3269e-05
12730.0 1.3192e-05
12750.0 1.3055e-05
12770.0 1.2866e-05
12790.0 1.2638e-05
12810.0 1.2365e-05
12830.0 1.205e-05
12850.0 1.172e-05
12870.0 1.1371e-05
12890.0 1.0993e-05
12910.0 1.061e-05
12930.0 1.0231e-05
12950.0 9.8368e-06
12970.0 9.4351e-06
12990.0 9.0551e-06
13010.0 8.6797e-06
13030.0 8.3002e-06
13050.0 7.9357e-06
13070.0 7.5943e-06
13090.0 7.2516e-06
13110.0 6.92e-06
13130.0 6.6144e-06
13150.0 6.3249e-06
13170.0 6.0415e-06
13190.0 5.7893e-06
13210.0 5.5674e-06
13230.0 5.3645e-06
13250.0 5.1897e-06
13270.0 5.0519e-06
13290.0 4.9447e-06
13310.0 4.8709e-06
13330.0 4.8373e-06
13350.0 4.8412e-06
13370.0 4.8846e-06
13390.0 4.9699e-06
13410.0 5.0852e-06
13430.0 5.235e-06
13450.0 5.4201e-06
13470.0 5.6256e-06
13490.0 5.8432e-06
13510.0 6.0887e-06
13530.0 6.3375e-06
13550.0 6.5757e-06
13570.0 6.8105e-06
13590.0 7.0394e-06
13610.0 7.243e-06
13630.0 7.4207e-06
13650.0 7.583e-06
13670.0 7.7177e-06
13690.0 7.8219e-06
13710.0 7.9025e-06
13730.0 7.96e-06
13750.0 7.9888e-06
13770.0 7.9953e-06
13790.0 7.9808e-06
13810.0 7.9455e-06
13830.0 7.8935e-06
13850.0 7.823e-06
13870.0 7.734e-06
13890.0 7.6323e-06
13910.0 7.5177e-06
13930.0 7.385e-06
13950.0 7.2401e-06
13970.0 7.092e-06
13990.0 6.9306e-06
14010.0 6.7591e-06
14030.0 6.5879e-06
14050.0 6.4155e-06
14070.0 6.2334e-06
14090.0 6.059e-06
14110.0 5.895e-06
14130.0 5.7361e-06
14150.0 5.5866e-06
14170.0 5.4589e-06
14190.0 5.3485e-06
14210.0 5.2549e-06
14230.0 5.1855e-06
14250.0 5.1407e-06
14270.0 5.119e-06
14290.0 5.1236e-06
14310.0 5.1522e-06
14330.0 5.2034e-06
14350.0 5.2789e-06
14370.0 5.3729e-06
14390.0 5.4797e-06
14410.0 5.6055e-06
14430.0 5.7436e-06
14450.0 5.8846e-06
14470.0 6.031e-06
14490.0 6.1866e-06
14510.0 6.3354e-06
14530.0 6.4767e-06
14550.0 6.618e-06
14570.0 6.7536e-06
14590.0 6.8771e-06
14610.0 6.9965e-06
14630.0 7.1146e-06
14650.0 7.2247e-06
14670.0 7.331e-06
14690.0 7.4418e-06
14710.0 7.5583e-06
14730.0 7.6748e-06
14750.0 7.8039e-06
14770.0 7.9504e-06
14790.0 8.1091e-06
14810.0 8.2811e-06
14830.0 8.4848e-06
14850.0 8.7063e-06
14870.0 8.9374e-06
14890.0 9.1867e-06
14910.0 9.4515e-06
14930.0 9.7061e-06
14950.0 9.944e-06
14970.0 1.0169e-05
14990.0 1.0358e-05
15010.0 1.0502e-05
15030.0 1.0609e-05
15050.0 1.068e-05
15070.0 1.0715e-05
15090.0 1.0727e-05
15110.0 1.0723e-05
15130.0 1.071e-05
15150.0 1.0692e-05
15170.0 1.067e-05
15190.0 1.0647e-05
15210.0 1.0625e-05
15230.0 1.0602e-05
15250.0 1.0579e-05
15270.0 1.0556e-05
15290.0 1.0534e-05
15310.0 1.0511e-05
15330.0 1.0488e-05
15350.0 1.0467e-05
15370.0 1.0445e-05
15390.0 1.0422e-05
15410.0 1.04e-05
15430.0 1.0379e-05
15450.0 1.0357e-05
15470.0 1.0335e-05
15490.0 1.0314e-05
15510.0 1.0293e-05
15530.0 1.0271e-05
15550.0 1.025e-05
15570.0 1.0229e-05
15590.0 1.0208e-05
15610.0 1.0186e-05
15630.0 1.0165e-05
15650.0 1.0145e-05
15670.0 1.0124e-05
15690.0 1.0103e-05
15710.0 1.0083e-05
15730.0 1.0062e-05
15750.0 1.0041e-05
15770.0 1.0021e-05
15790.0 1.0001e-05
15810.0 9.9797e-06
15830.0 9.9594e-06
15850.0 9.9397e-06
15870.0 9.9192e-06
15890.0 9.8987e-06
15910.0 9.8792e-06
15930.0 9.8592e-06
15950.0 9.8384e-06
15970.0 9.8184e-06
15990.0 9.7988e-06
16010.0 9.7784e-06
16030.0 9.7578e-06
16050.0 9.7385e-06
16070.0 9.7187e-06
16090.0 9.6983e-06
16110.0 9.6786e-06
16130.0 9.6593e-06
16150.0 9.6386e-06
16170.0 9.6183e-06
16190.0 9.5989e-06
16210.0 9.579e-06
16230.0 9.5585e-06
16250.0 9.5388e-06
16270.0 9.5195e-06
16290.0 9.4991e-06
16310.0 9.479e-06
16330.0 9.4596e-06
16350.0 9.4396e-06
16370.0 9.4186e-06
16390.0 9.399e-06
16410.0 9.3794e-06
16430.0 9.359e-06
16450.0 9.3388e-06
16470.0 9.3194e-06
16490.0 9.2991e-06
16510.0 9.2784e-06
16530.0 9.2586e-06
16550.0 9.2387e-06
16570.0 9.2178e-06
16590.0 9.1972e-06
16610.0 9.1777e-06
16630.0 9.1573e-06
16650.0 9.1365e-06
16670.0 9.1166e-06
16690.0 9.0966e-06
16710.0 9.0752e-06
16730.0 9.0546e-06
16750.0 9.0346e-06
16770.0 9.0138e-06
16790.0 8.9926e-06
16810.0 8.9724e-06
16830.0 8.952e-06
16850.0 8.9307e-06
16870.0 8.9099e-06
16890.0 8.8897e-06
16910.0 8.8683e-06
16930.0 8.8467e-06
16950.0 8.8261e-06
16970.0 8.8053e-06
16990.0 8.7836e-06
17010.0 8.7625e-06
17030.0 8.742e-06
17050.0 8.7203e-06
17070.0 8.6986e-06
17090.0 8.6777e-06
17110.0 8.6564e-06
17130.0 8.634e-06
17150.0 8.6126e-06
17170.0 8.5915e-06
17190.0 8.5696e-06
17210.0 8.5476e-06
17230.0 8.5265e-06
17250.0 8.5047e-06
17270.0 8.4821e-06
17290.0 8.4603e-06
17310.0 8.4387e-06
17330.0 8.4163e-06
17350.0 8.3936e-06
17370.0 8.3722e-06
17390.0 8.3501e-06
17410.0 8.3273e-06
17430.0 8.3052e-06
17450.0 8.2835e-06
17470.0 8.2602e-06
17490.0 8.2374e-06
17510.0 8.2154e-06
17530.0 8.1927e-06
17550.0 8.1695e-06
17570.0 8.1471e-06
17590.0 8.1249e-06
17610.0 8.1016e-06
17630.0 8.0785e-06
17650.0 8.0562e-06
17670.0 8.0331e-06
17690.0 8.009e-06
17710.0 7.9865e-06
17730.0 7.9637e-06
17750.0 7.9401e-06
17770.0 7.9168e-06
17790.0 7.8943e-06
17810.0 7.8706e-06
17830.0 7.8467e-06
17850.0 7.8236e-06
17870.0 7.8004e-06
17890.0 7.7762e-06
17910.0 7.7524e-06
17930.0 7.7296e-06
17950.0 7.7058e-06
17970.0 7.6817e-06
17990.0 7.6584e-06
18010.0 7.635e-06
18030.0 7.6103e-06
18050.0 7.5864e-06
18070.0 7.563e-06
18090.0 7.5388e-06
18110.0 7.5142e-06
18130.0 7.4908e-06
18150.0 7.467e-06
18170.0 7.4424e-06
18190.0 7.4184e-06
18210.0 7.3948e-06
18230.0 7.3701e-06
18250.0 7.3452e-06
18270.0 7.3215e-06
18290.0 7.2973e-06
18310.0 7.2725e-06
18330.0 7.2483e-06
18350.0 7.2246e-06
18370.0 7.1997e-06
18390.0 7.1749e-06
18410.0 7.1509e-06
18430.0 7.1265e-06
18450.0 7.101e-06
18470.0 7.0767e-06
18490.0 7.0527e-06
18510.0 7.0278e-06
18530.0 7.0029e-06
18550.0 6.9789e-06
18570.0 6.9542e-06
18590.0 6.9288e-06
18610.0 6.9043e-06
18630.0 6.8799e-06
18650.0 6.8547e-06
18670.0 6.8295e-06
18690.0 6.8055e-06
18710.0 6.7807e-06
18730.0 6.7555e-06
18750.0 6.7309e-06
18770.0 6.7067e-06
18790.0 6.6809e-06
18810.0 6.6558e-06
18830.0 6.6315e-06
18850.0 6.6065e-06
18870.0 6.5811e-06
18890.0 6.5566e-06
18910.0 6.5322e-06
18930.0 6.5067e-06
18950.0 6.4817e-06
18970.0 6.4573e-06
18990.0 6.4322e-06
19010.0 6.4062e-06
19030.0 6.3818e-06
19050.0 6.3572e-06
19070.0 6.3318e-06
19090.0 6.3068e-06
19110.0 6.2827e-06
19130.0 6.2573e-06
19150.0 6.2318e-06
19170.0 6.2072e-06
19190.0 6.1825e-06
19210.0 6.1568e-06
19230.0 6.1317e-06
19250.0 6.1074e-06
19270.0 6.0823e-06
19290.0 6.057e-06
19310.0 6.0325e-06
19330.0 6.0079e-06
19350.0 5.982e-06
19370.0 5.9571e-06
19390.0 5.9326e-06
19410.0 5.9074e-06
19430.0 5.882e-06
19450.0 5.8577e-06
19470.0 5.833e-06
19490.0 5.8076e-06
19510.0 5.7828e-06
19530.0 5.7585e-06
19550.0 5.7331e-06
19570.0 5.7076e-06
19590.0 5.6833e-06
19610.0 5.6586e-06
19630.0 5.6332e-06
19650.0 5.6086e-06
19670.0 5.5844e-06
19690.0 5.5591e-06
19710.0 5.534e-06
19730.0 5.5097e-06
19750.0 5.485e-06
19770.0 5.4593e-06
19790.0 5.4348e-06
19810.0 5.4106e-06
19830.0 5.3854e-06
19850.0 5.3601e-06
19870.0 5.3353e-06
19890.0 5.3087e-06
19910.0 5.2794e-06
19930.0 5.2481e-06
19950.0 5.2122e-06
19970.0 5.1681e-06
19990.0 5.115e-06
20010.0 4.5508e-06
20030.0 4.4849e-06
20050.0 4.4078e-06
20070.0 4.3243e-06
20090.0 4.2345e-06
20110.0 4.1328e-06
20130.0 4.03e-06
20150.0 3.928e-06
20170.0 3.8223e-06
20190.0 3.7151e-06
20210.0 3.6138e-06
20230.0 3.515e-06
20250.0 3.416e-06
20270.0 3.3241e-06
20290.0 3.2403e-06
20310.0 3.1605e-06
20330.0 3.0861e-06
20350.0 3.0242e-06
20370.0 2.9693e-06
20390.0 2.9212e-06
20410.0 2.8823e-06
20430.0 2.8524e-06
20450.0 2.8286e-06
20470.0 2.8127e-06
20490.0 2.8042e-06
20510.0 2.8017e-06
20530.0 2.8052e-06
20550.0 2.8138e-06
20570.0 2.8264e-06
20590.0 2.8435e-06
20610.0 2.8642e-06
20630.0 2.8869e-06
20650.0 2.9124e-06
20670.0 2.9415e-06
20690.0 2.9711e-06
20710.0 3.0018e-06
20730.0 3.0349e-06
20750.0 3.0694e-06
20770.0 3.1034e-06
20790.0 3.139e-06
20810.0 3.1768e-06
20830.0 3.2143e-06
20850.0 3.252e-06
20870.0 3.2924e-06
20890.0 3.3336e-06
20910.0 3.3733e-06
20930.0 3.4145e-06
20950.0 3.4572e-06
20970.0 3.4988e-06
20990.0 3.5399e-06
21010.0 3.5831e-06
21030.0 3.6253e-06
21050.0 3.6656e-06
21070.0 3.7058e-06
21090.0 3.7462e-06
21110.0 3.783e-06
21130.0 3.8175e-06
21150.0 3.851e-06
21170.0 3.8814e-06
21190.0 3.9075e-06
21210.0 3.9309e-06
21230.0 3.9505e-06
21250.0 3.9644e-06
21270.0 3.9732e-06
21290.0 3.9765e-06
21310.0 3.9733e-06
21330.0 3.964e-06
21350.0 3.9475e-06
21370.0 3.9233e-06
21390.0 3.8926e-06
21410.0 3.855e-06
21430.0 3.8073e-06
21450.0 3.7539e-06
21470.0 3.6956e-06
21490.0 3.6297e-06
21510.0 3.5575e-06
21530.0 3.4841e-06
21550.0 3.4072e-06
21570.0 3.3251e-06
21590.0 3.2445e-06
21610.0 3.1665e-06
21630.0 3.0885e-06
21650.0 3.0122e-06
21670.0 2.9462e-06
21690.0 2.8852e-06
21710.0 2.8303e-06
21730.0 2.7854e-06
21750.0 2.7507e-06
21770.0 2.7243e-06
21790.0 2.7091e-06
21810.0 2.7049e-06
21830.0 2.7109e-06
21850.0 2.7278e-06
21870.0 2.7542e-06
21890.0 2.7884e-06
21910.0 2.8322e-06
21930.0 2.8835e-06
21950.0 2.9392e-06
21970.0 3.0008e-06
21990.0 3.07e-06
22010.0 3.1391e-06
22030.0 3.2093e-06
22050.0 3.283e-06
22070.0 3.3572e-06
22090.0 3.4274e-06
22110.0 3.4982e-06
22130.0 3.5688e-06
22150.0 3.6348e-06
22170.0 3.697e-06
22190.0 3.7587e-06
22210.0 3.8161e-06
22230.0 3.8666e-06
22250.0 3.9141e-06
22270.0 3.9579e-06
22290.0 3.9953e-06
22310.0 4.0274e-06
22330.0 4.0557e-06
22350.0 4.0776e-06
22370.0 4.093e-06
22390.0 4.1026e-06
22410.0 4.1057e-06
22430.0 4.1018e-06
22450.0 4.0912e-06
22470.0 4.0729e-06
22490.0 4.0473e-06
22510.0 4.0153e-06
22530.0 3.9744e-06
22550.0 3.9247e-06
22570.0 3.8695e-06
22590.0 3.8073e-06
22610.0 3.7357e-06
22630.0 3.6581e-06
