#lamb flux
1010.0 1.8821e-08
1030.0 2.0816e-08
1050.0 2.3111e-08
1070.0 2.5694e-08
1090.0 2.8628e-08
1110.0 3.1638e-08
1130.0 3.4667e-08
1150.0 3.784e-08
1170.0 4.1113e-08
1190.0 4.4216e-08
1210.0 4.7361e-08
1230.0 5.0612e-08
1250.0 5.3796e-08
1270.0 5.6889e-08
1290.0 6.0157e-08
1310.0 6.3422e-08
1330.0 6.6554e-08
1350.0 6.9721e-08
1370.0 7.299e-08
1390.0 7.6178e-08
1410.0 7.9271e-08
1430.0 8.2505e-08
1450.0 8.5739e-08
1470.0 8.8864e-08
1490.0 9.2024e-08
1510.0 9.5361e-08
1530.0 9.8524e-08
1550.0 1.0164e-07
1570.0 1.0487e-07
1590.0 1.0811e-07
1610.0 1.112e-07
1630.0 1.1438e-07
1650.0 1.1765e-07
1670.0 1.2082e-07
1690.0 1.2395e-07
1710.0 1.272e-07
1730.0 1.3047e-07
1750.0 1.3355e-07
1770.0 1.3672e-07
1790.0 1.3996e-07
1810.0 1.431e-07
1830.0 1.462e-07
1850.0 1.4948e-07
1870.0 1.5269e-07
1890.0 1.5579e-07
1910.0 1.5896e-07
1930.0 1.6221e-07
1950.0 1.6533e-07
1970.0 1.6841e-07
1990.0 1.7162e-07
2010.0 1.7478e-07
2030.0 1.7783e-07
2050.0 1.8099e-07
2070.0 1.8423e-07
2090.0 1.8729e-07
2110.0 1.9035e-07
2130.0 1.9352e-07
2150.0 1.9662e-07
2170.0 1.996e-07
2190.0 2.027e-07
2210.0 2.0582e-07
2230.0 2.0882e-07
2250.0 2.1181e-07
2270.0 2.1494e-07
2290.0 2.1798e-07
2310.0 2.209e-07
2330.0 2.2393e-07
2350.0 2.2705e-07
2370.0 2.3016e-07
2390.0 2.3352e-07
2410.0 2.375e-07
2430.0 2.4209e-07
2450.0 2.4757e-07
2470.0 2.5459e-07
2490.0 2.6343e-07
2510.0 2.7349e-07
2530.0 2.8559e-07
2550.0 3.0075e-07
2570.0 3.196e-07
2590.0 3.4412e-07
2610.0 3.8083e-07
2630.0 4.3324e-07
2650.0 5.0178e-07
2670.0 5.9038e-07
2690.0 6.9927e-07
2710.0 8.1551e-07
2730.0 9.3036e-07
2750.0 1.0435e-06
2770.0 1.1419e-06
2790.0 1.22e-06
2810.0 1.282e-06
2830.0 1.3305e-06
2850.0 1.3635e-06
2870.0 1.3878e-06
2890.0 1.407e-06
2910.0 1.4224e-06
2930.0 1.4349e-06
2950.0 1.4469e-06
2970.0 1.4586e-06
2990.0 1.4695e-06
3010.0 4.1537e-05
3030.0 4.1848e-05
3050.0 4.2148e-05
3070.0 4.2405e-05
3090.0 4.2626e-05
3110.0 4.2763e-05
3130.0 4.2758e-05
3150.0 4.2568e-05
3170.0 4.2112e-05
3190.0 4.1396e-05
3210.0 4.0488e-05
3230.0 3.9448e-05
3250.0 3.8423e-05
3270.0 3.7673e-05
3290.0 3.7257e-05
3310.0 3.7324e-05
3330.0 3.7864e-05
3350.0 3.8805e-05
3370.0 4.0148e-05
3390.0 4.1841e-05
3410.0 4.3683e-05
3430.0 4.5751e-05
3450.0 4.8132e-05
3470.0 5.0732e-05
3490.0 5.3487e-05
3510.0 5.6602e-05
3530.0 5.9937e-05
3550.0 6.3313e-05
3570.0 6.6836e-05
3590.0 7.0666e-05
3610.0 7.4613e-05
3630.0 7.8548e-05
3650.0 8.2631e-05
3670.0 8.6358e-05
3690.0 8.9144e-05
3710.0 9.0741e-05
3730.0 9.0794e-05
3750.0 8.953e-05
3770.0 8.9034e-05
3790.0 8.8505e-05
3810.0 8.633e-05
3830.0 8.9002e-05
3850.0 9.9514e-05
3870.0 0.00010529
3890.0 0.0001048
3910.0 0.00010525
3930.0 0.00010802
3950.0 0.00010973
3970.0 9.9972e-05
3990.0 8.6022e-05
4010.0 0.00025782
4030.0 0.00031238
4050.0 0.00035813
4070.0 0.00031074
4090.0 0.00028143
4110.0 0.00024834
4130.0 0.00022857
4150.0 0.00024313
4170.0 0.00023949
4190.0 0.00025528
4210.0 0.00025295
4230.0 0.00026755
4250.0 0.00031652
4270.0 0.00032024
4290.0 0.0002951
4310.0 0.00030663
4330.0 0.00032616
4350.0 0.0003657
4370.0 0.00041618
4390.0 0.00039054
4410.0 0.00028854
4430.0 0.00024427
4450.0 0.00022445
4470.0 0.00017228
4490.0 0.00018591
4510.0 0.00028082
4530.0 0.00032387
4550.0 0.00032667
4570.0 0.00036759
4590.0 0.00041872
4610.0 0.00056476
4630.0 0.0007335
4650.0 0.00079547
4670.0 0.00073669
4690.0 0.00070293
4710.0 0.00074304
4730.0 0.00070123
4750.0 0.00052426
4770.0 0.00038456
4790.0 0.0003591
4810.0 0.00034228
4830.0 0.00031336
4850.0 0.00034386
4870.0 0.00045427
4890.0 0.00053571
4910.0 0.00047002
4930.0 0.0004159
4950.0 0.00045693
4970.0 0.00058598
4990.0 0.00079414
5010.0 0.00091356
5030.0 0.00080554
5050.0 0.000545
5070.0 0.00035918
5090.0 0.00028962
5110.0 0.00029785
5130.0 0.00034377
5150.0 0.00037245
5170.0 0.00036686
5190.0 0.0003428
5210.0 0.00035831
5230.0 0.00037666
5250.0 0.00040593
5270.0 0.00043797
5290.0 0.00048536
5310.0 0.00056494
5330.0 0.00062518
5350.0 0.00062119
5370.0 0.0006525
5390.0 0.00074875
5410.0 0.00074807
5430.0 0.00066156
5450.0 0.00060782
5470.0 0.00064539
5490.0 0.00078848
5510.0 0.00098588
5530.0 0.0011307
5550.0 0.0010929
5570.0 0.0009935
5590.0 0.00086386
5610.0 0.00079667
5630.0 0.00077251
5650.0 0.00073574
5670.0 0.00069717
5690.0 0.00062327
5710.0 0.00060769
5730.0 0.00055978
5750.0 0.00039467
5770.0 0.00030791
5790.0 0.00034893
5810.0 0.000394
5830.0 0.00048349
5850.0 0.00057553
5870.0 0.00063856
5890.0 0.00064938
5910.0 0.00063708
5930.0 0.00060642
5950.0 0.00061793
5970.0 0.00070437
5990.0 0.00066229
6010.0 0.0005552
6030.0 0.00046906
6050.0 0.00040849
6070.0 0.00040626
6090.0 0.00044052
6110.0 0.00049258
6130.0 0.00050012
6150.0 0.00043031
6170.0 0.00037854
6190.0 0.00042599
6210.0 0.00056315
6230.0 0.00073902
6250.0 0.00080046
6270.0 0.00069949
6290.0 0.00058852
6310.0 0.00045944
6330.0 0.00035202
6350.0 0.00031399
6370.0 0.0003302
6390.0 0.00038173
6410.0 0.00047069
6430.0 0.00054963
6450.0 0.00062892
6470.0 0.00072013
6490.0 0.00086987
6510.0 0.00097262
6530.0 0.0009542
6550.0 0.00086286
6570.0 0.00073249
6590.0 0.0006605
6610.0 0.00056952
6630.0 0.00051597
6650.0 0.00048774
6670.0 0.00047383
6690.0 0.00042813
6710.0 0.00038918
6730.0 0.00028032
6750.0 0.0002779
6770.0 0.00030206
6790.0 0.0003472
6810.0 0.00031769
6830.0 0.00032714
6850.0 0.00030598
6870.0 0.00027951
6890.0 0.00026837
6910.0 0.00028599
6930.0 0.00026787
6950.0 0.00027559
6970.0 0.00028987
6990.0 0.00032902
7010.0 0.00033183
7030.0 0.0003371
7050.0 0.00032148
7070.0 0.00030631
7090.0 0.00030721
7110.0 0.00031609
7130.0 0.00034017
7150.0 0.00036128
7170.0 0.00039865
7190.0 0.00043823
7210.0 0.00043062
7230.0 0.00044268
7250.0 0.00047573
7270.0 0.00051843
7290.0 0.00061533
7310.0 0.00066769
7330.0 0.00064538
7350.0 0.0005837
7370.0 0.00050787
7390.0 0.0004927
7410.0 0.00052359
7430.0 0.00058191
7450.0 0.0006338
7470.0 0.00062798
7490.0 0.0005726
7510.0 0.00064861
7530.0 0.00064151
7550.0 0.0005766
7570.0 0.00045044
7590.0 0.00030966
7610.0 0.00026578
7630.0 0.00030198
7650.0 0.00035705
7670.0 0.00044438
7690.0 0.00048901
7710.0 0.00050961
7730.0 0.00053553
7750.0 0.0006012
7770.0 0.00061065
7790.0 0.00056092
7810.0 0.0005118
7830.0 0.00052779
7850.0 0.00051306
7870.0 0.00047039
7890.0 0.00039522
7910.0 0.00032126
7930.0 0.00030676
7950.0 0.00027947
7970.0 0.0002587
7990.0 0.00025722
8010.0 1.9051e-05
8030.0 1.8803e-05
8050.0 1.855e-05
8070.0 1.8793e-05
8090.0 2.0192e-05
8110.0 1.9848e-05
8130.0 1.6372e-05
8150.0 1.5945e-05
8170.0 1.3734e-05
8190.0 1.3016e-05
8210.0 1.6903e-05
8230.0 1.8819e-05
8250.0 1.6961e-05
8270.0 1.4763e-05
8290.0 1.4391e-05
8310.0 1.1076e-05
8330.0 7.4652e-06
8350.0 5.298e-06
8370.0 3.3379e-06
8390.0 6.1017e-06
8410.0 7.1102e-06
8430.0 8.7644e-06
8450.0 1.0292e-05
8470.0 1.2792e-05
8490.0 1.2702e-05
8510.0 1.2494e-05
8530.0 1.304e-05
8550.0 1.7593e-05
8570.0 2.0828e-05
8590.0 2.2473e-05
8610.0 2.8389e-05
8630.0 3.4198e-05
8650.0 3.5775e-05
8670.0 3.8018e-05
8690.0 3.8231e-05
8710.0 3.4624e-05
8730.0 3.2206e-05
8750.0 2.8428e-05
8770.0 2.6974e-05
8790.0 2.65e-05
8810.0 2.5393e-05
8830.0 2.0306e-05
8850.0 1.4865e-05
8870.0 1.1382e-05
8890.0 1.1128e-05
8910.0 1.2753e-05
8930.0 1.4506e-05
8950.0 1.4784e-05
8970.0 1.4853e-05
8990.0 1.3248e-05
9010.0 0.00013883
9030.0 0.00012579
9050.0 0.0001264
9070.0 0.0001274
9090.0 0.00012827
9110.0 0.00012935
9130.0 0.00013019
9150.0 0.00013084
9170.0 0.00013153
9190.0 0.00013226
9210.0 0.00013304
9230.0 0.00013386
9250.0 0.00013469
9270.0 0.00013556
9290.0 0.00013645
9310.0 0.00013735
9330.0 0.00013826
9350.0 0.00013921
9370.0 0.00014017
9390.0 0.00014113
9410.0 0.00014213
9430.0 0.00014316
9450.0 0.00014418
9470.0 0.00014522
9490.0 0.0001463
9510.0 0.00014738
9530.0 0.00014847
9550.0 0.0001496
9570.0 0.00015075
9590.0 0.00015191
9610.0 0.00015308
9630.0 0.00015428
9650.0 0.0001555
9670.0 0.00015671
9690.0 0.00015796
9710.0 0.00015923
9730.0 0.0001605
9750.0 0.00016179
9770.0 0.00016312
9790.0 0.00016445
9810.0 0.00016578
9830.0 0.00016714
9850.0 0.00016852
9870.0 0.00016989
9890.0 0.00017129
9910.0 0.00017271
9930.0 0.00017413
9950.0 0.00017556
9970.0 0.00017702
9990.0 0.00017849
10010.0 0.00015488
10030.0 0.00015615
10050.0 0.00015745
10070.0 0.00015879
10090.0 0.00016006
10110.0 0.00016135
10130.0 0.00016265
10150.0 0.00016395
10170.0 0.00016526
10190.0 0.0001666
10210.0 0.00016792
10230.0 0.00016923
10250.0 0.00017057
10270.0 0.00017191
10290.0 0.00017323
10310.0 0.00017456
10330.0 0.00017591
10350.0 0.00017724
10370.0 0.00017856
10390.0 0.0001799
10410.0 0.00018123
10430.0 0.00018253
10450.0 0.00018385
10470.0 0.00018517
10490.0 0.00018647
10510.0 0.00018776
10530.0 0.00018907
10550.0 0.00019036
10570.0 0.00019163
10590.0 0.0001929
10610.0 0.00019416
10630.0 0.0001954
10650.0 0.00019663
10670.0 0.00019787
10690.0 0.00019908
10710.0 0.00020027
10730.0 0.00020146
10750.0 0.00020266
10770.0 0.0002038
10790.0 0.00020494
10810.0 0.00020607
10830.0 0.00020717
10850.0 0.00020822
10870.0 0.00020923
10890.0 0.00021012
10910.0 0.0002108
10930.0 0.00021119
10950.0 0.0002111
10970.0 0.00021038
10990.0 0.00020898
11010.0 0.00020663
11030.0 0.00020335
11050.0 0.00019934
11070.0 0.00019455
11090.0 0.00018879
11110.0 0.00018284
11130.0 0.00017663
11150.0 0.00016994
11170.0 0.00016305
11190.0 0.00015636
11210.0 0.00014946
11230.0 0.00014238
11250.0 0.00013561
11270.0 0.00012912
11290.0 0.00012261
11310.0 0.00011644
11330.0 0.00011101
11350.0 0.00010588
11370.0 0.00010114
11390.0 9.7039e-05
11410.0 9.3451e-05
11430.0 9.0117e-05
11450.0 8.7245e-05
11470.0 8.4761e-05
11490.0 8.245e-05
11510.0 8.0223e-05
11530.0 7.8157e-05
11550.0 7.6104e-05
11570.0 7.3913e-05
11590.0 7.1645e-05
11610.0 6.9337e-05
11630.0 6.6824e-05
11650.0 6.4134e-05
11670.0 6.1483e-05
11690.0 5.8795e-05
11710.0 5.6021e-05
11730.0 5.3334e-05
11750.0 5.0846e-05
11770.0 4.8407e-05
11790.0 4.6121e-05
11810.0 4.4109e-05
11830.0 4.2309e-05
11850.0 4.0651e-05
11870.0 3.9265e-05
11890.0 3.8112e-05
11910.0 3.7099e-05
11930.0 3.6228e-05
11950.0 3.5503e-05
11970.0 3.4856e-05
11990.0 3.4243e-05
12010.0 3.3677e-05
12030.0 3.3131e-05
12050.0 3.2567e-05
12070.0 3.198e-05
12090.0 3.1414e-05
12110.0 3.084e-05
12130.0 3.0264e-05
12150.0 2.9733e-05
12170.0 2.927e-05
12190.0 2.887e-05
12210.0 2.859e-05
12230.0 2.8455e-05
12250.0 2.8477e-05
12270.0 2.8692e-05
12290.0 2.9097e-05
12310.0 2.968e-05
12330.0 3.0494e-05
12350.0 3.1511e-05
12370.0 3.2669e-05
12390.0 3.4003e-05
12410.0 3.5567e-05
12430.0 3.7157e-05
12450.0 3.8802e-05
12470.0 4.0553e-05
12490.0 4.231e-05
12510.0 4.3959e-05
12530.0 4.56e-05
12550.0 4.7183e-05
12570.0 4.858e-05
12590.0 4.9806e-05
12610.0 5.0899e-05
12630.0 5.177e-05
12650.0 5.2372e-05
12670.0 5.2767e-05
12690.0 5.2925e-05
12710.0 5.2838e-05
12730.0 5.2532e-05
12750.0 5.1985e-05
12770.0 5.1235e-05
12790.0 5.0326e-05
12810.0 4.924e-05
12830.0 4.7984e-05
12850.0 4.667e-05
12870.0 4.5281e-05
12890.0 4.3777e-05
12910.0 4.2249e-05
12930.0 4.0743e-05
12950.0 3.9172e-05
12970.0 3.7572e-05
12990.0 3.6059e-05
13010.0 3.4564e-05
13030.0 3.3053e-05
13050.0 3.1601e-05
13070.0 3.0241e-05
13090.0 2.8877e-05
13110.0 2.7557e-05
13130.0 2.6339e-05
13150.0 2.5187e-05
13170.0 2.4058e-05
13190.0 2.3054e-05
13210.0 2.217e-05
13230.0 2.1362e-05
13250.0 2.0666e-05
13270.0 2.0117e-05
13290.0 1.9691e-05
13310.0 1.9397e-05
13330.0 1.9263e-05
13350.0 1.9278e-05
13370.0 1.9451e-05
13390.0 1.9791e-05
13410.0 2.025e-05
13430.0 2.0847e-05
13450.0 2.1584e-05
13470.0 2.2402e-05
13490.0 2.3269e-05
13510.0 2.4246e-05
13530.0 2.5237e-05
13550.0 2.6185e-05
13570.0 2.712e-05
13590.0 2.8032e-05
13610.0 2.8843e-05
13630.0 2.955e-05
13650.0 3.0197e-05
13670.0 3.0733e-05
13690.0 3.1148e-05
13710.0 3.1469e-05
13730.0 3.1698e-05
13750.0 3.1812e-05
13770.0 3.1839e-05
13790.0 3.1781e-05
13810.0 3.164e-05
13830.0 3.1433e-05
13850.0 3.1152e-05
13870.0 3.0798e-05
13890.0 3.0393e-05
13910.0 2.9936e-05
13930.0 2.9408e-05
13950.0 2.8831e-05
13970.0 2.8241e-05
13990.0 2.7599e-05
14010.0 2.6916e-05
14030.0 2.6234e-05
14050.0 2.5547e-05
14070.0 2.4822e-05
14090.0 2.4128e-05
14110.0 2.3475e-05
14130.0 2.2842e-05
14150.0 2.2247e-05
14170.0 2.1738e-05
14190.0 2.1299e-05
14210.0 2.0926e-05
14230.0 2.065e-05
14250.0 2.0471e-05
14270.0 2.0385e-05
14290.0 2.0403e-05
14310.0 2.0517e-05
14330.0 2.0721e-05
14350.0 2.1021e-05
14370.0 2.1396e-05
14390.0 2.1821e-05
14410.0 2.2322e-05
14430.0 2.2872e-05
14450.0 2.3433e-05
14470.0 2.4016e-05
14490.0 2.4636e-05
14510.0 2.5228e-05
14530.0 2.5791e-05
14550.0 2.6354e-05
14570.0 2.6894e-05
14590.0 2.7385e-05
14610.0 2.7861e-05
14630.0 2.8332e-05
14650.0 2.877e-05
14670.0 2.9193e-05
14690.0 2.9634e-05
14710.0 3.0098e-05
14730.0 3.0562e-05
14750.0 3.1076e-05
14770.0 3.1659e-05
14790.0 3.2292e-05
14810.0 3.2976e-05
14830.0 3.3788e-05
14850.0 3.467e-05
14870.0 3.559e-05
14890.0 3.6583e-05
14910.0 3.7637e-05
14930.0 3.8651e-05
14950.0 3.9598e-05
14970.0 4.0495e-05
14990.0 4.1247e-05
15010.0 4.1822e-05
15030.0 4.2248e-05
15050.0 4.253e-05
15070.0 4.2668e-05
15090.0 4.2716e-05
15110.0 4.2702e-05
15130.0 4.2648e-05
15150.0 4.2576e-05
15170.0 4.2491e-05
15190.0 4.2399e-05
15210.0 4.2309e-05
15230.0 4.2219e-05
15250.0 4.2126e-05
15270.0 4.2034e-05
15290.0 4.1947e-05
15310.0 4.1857e-05
15330.0 4.1766e-05
15350.0 4.1679e-05
15370.0 4.1593e-05
15390.0 4.1502e-05
15410.0 4.1414e-05
15430.0 4.133e-05
15450.0 4.1243e-05
15470.0 4.1154e-05
15490.0 4.107e-05
15510.0 4.0987e-05
15530.0 4.09e-05
15550.0 4.0815e-05
15570.0 4.0734e-05
15590.0 4.0648e-05
15610.0 4.0562e-05
15630.0 4.048e-05
15650.0 4.0398e-05
15670.0 4.0314e-05
15690.0 4.0231e-05
15710.0 4.0152e-05
15730.0 4.0069e-05
15750.0 3.9985e-05
15770.0 3.9906e-05
15790.0 3.9825e-05
15810.0 3.974e-05
15830.0 3.966e-05
15850.0 3.9581e-05
15870.0 3.95e-05
15890.0 3.9418e-05
15910.0 3.934e-05
15930.0 3.9261e-05
15950.0 3.9178e-05
15970.0 3.9098e-05
15990.0 3.902e-05
16010.0 3.8939e-05
16030.0 3.8857e-05
16050.0 3.878e-05
16070.0 3.8701e-05
16090.0 3.862e-05
16110.0 3.8541e-05
16130.0 3.8465e-05
16150.0 3.8382e-05
16170.0 3.8301e-05
16190.0 3.8224e-05
16210.0 3.8145e-05
16230.0 3.8063e-05
16250.0 3.7985e-05
16270.0 3.7908e-05
16290.0 3.7827e-05
16310.0 3.7747e-05
16330.0 3.7669e-05
16350.0 3.759e-05
16370.0 3.7506e-05
16390.0 3.7428e-05
16410.0 3.735e-05
16430.0 3.7269e-05
16450.0 3.7188e-05
16470.0 3.7111e-05
16490.0 3.703e-05
16510.0 3.6948e-05
16530.0 3.6869e-05
16550.0 3.679e-05
16570.0 3.6707e-05
16590.0 3.6625e-05
16610.0 3.6547e-05
16630.0 3.6466e-05
16650.0 3.6383e-05
16670.0 3.6304e-05
16690.0 3.6224e-05
16710.0 3.6139e-05
16730.0 3.6057e-05
16750.0 3.5977e-05
16770.0 3.5894e-05
16790.0 3.581e-05
16810.0 3.5729e-05
16830.0 3.5648e-05
16850.0 3.5564e-05
16870.0 3.5481e-05
16890.0 3.54e-05
16910.0 3.5315e-05
16930.0 3.5229e-05
16950.0 3.5147e-05
16970.0 3.5064e-05
16990.0 3.4978e-05
17010.0 3.4894e-05
17030.0 3.4812e-05
17050.0 3.4726e-05
17070.0 3.4639e-05
17090.0 3.4556e-05
17110.0 3.4471e-05
17130.0 3.4382e-05
17150.0 3.4296e-05
17170.0 3.4213e-05
17190.0 3.4125e-05
17210.0 3.4038e-05
17230.0 3.3954e-05
17250.0 3.3867e-05
17270.0 3.3777e-05
17290.0 3.369e-05
17310.0 3.3604e-05
17330.0 3.3515e-05
17350.0 3.3425e-05
17370.0 3.3339e-05
17390.0 3.3251e-05
17410.0 3.3161e-05
17430.0 3.3073e-05
17450.0 3.2986e-05
17470.0 3.2893e-05
17490.0 3.2802e-05
17510.0 3.2715e-05
17530.0 3.2625e-05
17550.0 3.2532e-05
17570.0 3.2443e-05
17590.0 3.2355e-05
17610.0 3.2262e-05
17630.0 3.217e-05
17650.0 3.2081e-05
17670.0 3.1989e-05
17690.0 3.1893e-05
17710.0 3.1803e-05
17730.0 3.1713e-05
17750.0 3.1619e-05
17770.0 3.1526e-05
17790.0 3.1436e-05
17810.0 3.1342e-05
17830.0 3.1247e-05
17850.0 3.1155e-05
17870.0 3.1062e-05
17890.0 3.0966e-05
17910.0 3.0871e-05
17930.0 3.078e-05
17950.0 3.0685e-05
17970.0 3.059e-05
17990.0 3.0497e-05
18010.0 3.0404e-05
18030.0 3.0305e-05
18050.0 3.021e-05
18070.0 3.0117e-05
18090.0 3.0021e-05
18110.0 2.9923e-05
18130.0 2.983e-05
18150.0 2.9735e-05
18170.0 2.9637e-05
18190.0 2.9541e-05
18210.0 2.9447e-05
18230.0 2.9349e-05
18250.0 2.925e-05
18270.0 2.9155e-05
18290.0 2.9059e-05
18310.0 2.896e-05
18330.0 2.8864e-05
18350.0 2.8769e-05
18370.0 2.867e-05
18390.0 2.8571e-05
18410.0 2.8476e-05
18430.0 2.8379e-05
18450.0 2.8277e-05
18470.0 2.818e-05
18490.0 2.8085e-05
18510.0 2.7986e-05
18530.0 2.7887e-05
18550.0 2.7791e-05
18570.0 2.7693e-05
18590.0 2.7591e-05
18610.0 2.7494e-05
18630.0 2.7397e-05
18650.0 2.7297e-05
18670.0 2.7196e-05
18690.0 2.71e-05
18710.0 2.7002e-05
18730.0 2.6901e-05
18750.0 2.6803e-05
18770.0 2.6707e-05
18790.0 2.6604e-05
18810.0 2.6504e-05
18830.0 2.6407e-05
18850.0 2.6308e-05
18870.0 2.6207e-05
18890.0 2.6109e-05
18910.0 2.6012e-05
18930.0 2.5911e-05
18950.0 2.5811e-05
18970.0 2.5714e-05
18990.0 2.5614e-05
19010.0 2.551e-05
19030.0 2.5413e-05
19050.0 2.5315e-05
19070.0 2.5214e-05
19090.0 2.5115e-05
19110.0 2.5018e-05
19130.0 2.4917e-05
19150.0 2.4816e-05
19170.0 2.4718e-05
19190.0 2.4619e-05
19210.0 2.4517e-05
19230.0 2.4417e-05
19250.0 2.4321e-05
19270.0 2.4221e-05
19290.0 2.412e-05
19310.0 2.4022e-05
19330.0 2.3924e-05
19350.0 2.3821e-05
19370.0 2.3722e-05
19390.0 2.3625e-05
19410.0 2.3524e-05
19430.0 2.3423e-05
19450.0 2.3326e-05
19470.0 2.3228e-05
19490.0 2.3127e-05
19510.0 2.3028e-05
19530.0 2.2931e-05
19550.0 2.283e-05
19570.0 2.2728e-05
19590.0 2.2632e-05
19610.0 2.2533e-05
19630.0 2.2432e-05
19650.0 2.2334e-05
19670.0 2.2238e-05
19690.0 2.2137e-05
19710.0 2.2037e-05
19730.0 2.194e-05
19750.0 2.1842e-05
19770.0 2.174e-05
19790.0 2.1642e-05
19810.0 2.1546e-05
19830.0 2.1445e-05
19850.0 2.1345e-05
19870.0 2.1246e-05
19890.0 2.114e-05
19910.0 2.1023e-05
19930.0 2.0899e-05
19950.0 2.0756e-05
19970.0 2.058e-05
19990.0 2.0369e-05
20010.0 1.8122e-05
20030.0 1.786e-05
20050.0 1.7553e-05
20070.0 1.722e-05
20090.0 1.6862e-05
20110.0 1.6458e-05
20130.0 1.6048e-05
20150.0 1.5642e-05
20170.0 1.5221e-05
20190.0 1.4794e-05
20210.0 1.4391e-05
20230.0 1.3997e-05
20250.0 1.3603e-05
20270.0 1.3237e-05
20290.0 1.2903e-05
20310.0 1.2586e-05
20330.0 1.2289e-05
20350.0 1.2043e-05
20370.0 1.1824e-05
20390.0 1.1633e-05
20410.0 1.1478e-05
20430.0 1.1359e-05
20450.0 1.1264e-05
20470.0 1.1201e-05
20490.0 1.1167e-05
20510.0 1.1157e-05
20530.0 1.1171e-05
20550.0 1.1205e-05
20570.0 1.1255e-05
20590.0 1.1323e-05
20610.0 1.1405e-05
20630.0 1.1496e-05
20650.0 1.1597e-05
20670.0 1.1713e-05
20690.0 1.1831e-05
20710.0 1.1954e-05
20730.0 1.2085e-05
20750.0 1.2223e-05
20770.0 1.2358e-05
20790.0 1.25e-05
20810.0 1.265e-05
20830.0 1.28e-05
20850.0 1.295e-05
20870.0 1.3111e-05
20890.0 1.3275e-05
20910.0 1.3433e-05
20930.0 1.3597e-05
20950.0 1.3767e-05
20970.0 1.3933e-05
20990.0 1.4096e-05
21010.0 1.4268e-05
21030.0 1.4436e-05
21050.0 1.4597e-05
21070.0 1.4757e-05
21090.0 1.4918e-05
21110.0 1.5064e-05
21130.0 1.5202e-05
21150.0 1.5335e-05
21170.0 1.5456e-05
21190.0 1.556e-05
21210.0 1.5654e-05
21230.0 1.5731e-05
21250.0 1.5787e-05
21270.0 1.5822e-05
21290.0 1.5835e-05
21310.0 1.5822e-05
21330.0 1.5785e-05
21350.0 1.5719e-05
21370.0 1.5623e-05
21390.0 1.5501e-05
21410.0 1.5351e-05
21430.0 1.5161e-05
21450.0 1.4948e-05
21470.0 1.4717e-05
21490.0 1.4454e-05
21510.0 1.4166e-05
21530.0 1.3874e-05
21550.0 1.3568e-05
21570.0 1.3241e-05
21590.0 1.292e-05
21610.0 1.261e-05
21630.0 1.2299e-05
21650.0 1.1995e-05
21670.0 1.1732e-05
21690.0 1.1489e-05
21710.0 1.1271e-05
21730.0 1.1092e-05
21750.0 1.0954e-05
21770.0 1.0848e-05
21790.0 1.0788e-05
21810.0 1.0771e-05
21830.0 1.0795e-05
21850.0 1.0863e-05
21870.0 1.0968e-05
21890.0 1.1104e-05
21910.0 1.1278e-05
21930.0 1.1483e-05
21950.0 1.1704e-05
21970.0 1.1949e-05
21990.0 1.2225e-05
22010.0 1.25e-05
22030.0 1.278e-05
22050.0 1.3074e-05
22070.0 1.3369e-05
22090.0 1.3648e-05
22110.0 1.393e-05
22130.0 1.4212e-05
22150.0 1.4474e-05
22170.0 1.4722e-05
22190.0 1.4968e-05
22210.0 1.5196e-05
22230.0 1.5397e-05
22250.0 1.5586e-05
22270.0 1.5761e-05
22290.0 1.591e-05
22310.0 1.6038e-05
22330.0 1.615e-05
22350.0 1.6237e-05
22370.0 1.6299e-05
22390.0 1.6337e-05
22410.0 1.6349e-05
22430.0 1.6334e-05
22450.0 1.6292e-05
22470.0 1.6219e-05
22490.0 1.6117e-05
22510.0 1.599e-05
22530.0 1.5827e-05
22550.0 1.5629e-05
22570.0 1.5409e-05
22590.0 1.5161e-05
22610.0 1.4876e-05
22630.0 1.4567e-05
22650.0 1.4248e-05
