#lamb flux
1010.0 1.6369e-08
1030.0 1.8105e-08
1050.0 2.01e-08
1070.0 2.2347e-08
1090.0 2.4899e-08
1110.0 2.7517e-08
1130.0 3.0151e-08
1150.0 3.2911e-08
1170.0 3.5757e-08
1190.0 3.8456e-08
1210.0 4.1192e-08
1230.0 4.4019e-08
1250.0 4.6789e-08
1270.0 4.9479e-08
1290.0 5.2321e-08
1310.0 5.5161e-08
1330.0 5.7884e-08
1350.0 6.0639e-08
1370.0 6.3483e-08
1390.0 6.6255e-08
1410.0 6.8946e-08
1430.0 7.1758e-08
1450.0 7.4571e-08
1470.0 7.7289e-08
1490.0 8.0037e-08
1510.0 8.2939e-08
1530.0 8.569e-08
1550.0 8.8404e-08
1570.0 9.1213e-08
1590.0 9.4024e-08
1610.0 9.6712e-08
1630.0 9.9483e-08
1650.0 1.0233e-07
1670.0 1.0508e-07
1690.0 1.078e-07
1710.0 1.1063e-07
1730.0 1.1348e-07
1750.0 1.1615e-07
1770.0 1.1891e-07
1790.0 1.2173e-07
1810.0 1.2446e-07
1830.0 1.2715e-07
1850.0 1.3001e-07
1870.0 1.328e-07
1890.0 1.355e-07
1910.0 1.3825e-07
1930.0 1.4108e-07
1950.0 1.4379e-07
1970.0 1.4647e-07
1990.0 1.4926e-07
2010.0 1.5201e-07
2030.0 1.5467e-07
2050.0 1.5741e-07
2070.0 1.6023e-07
2090.0 1.629e-07
2110.0 1.6556e-07
2130.0 1.6831e-07
2150.0 1.7101e-07
2170.0 1.736e-07
2190.0 1.763e-07
2210.0 1.7901e-07
2230.0 1.8162e-07
2250.0 1.8422e-07
2270.0 1.8694e-07
2290.0 1.8958e-07
2310.0 1.9212e-07
2330.0 1.9476e-07
2350.0 1.9748e-07
2370.0 2.0018e-07
2390.0 2.031e-07
2410.0 2.0657e-07
2430.0 2.1055e-07
2450.0 2.1532e-07
2470.0 2.2142e-07
2490.0 2.2912e-07
2510.0 2.3786e-07
2530.0 2.4839e-07
2550.0 2.6157e-07
2570.0 2.7797e-07
2590.0 2.9929e-07
2610.0 3.3122e-07
2630.0 3.7681e-07
2650.0 4.3641e-07
2670.0 5.1348e-07
2690.0 6.0819e-07
2710.0 7.0928e-07
2730.0 8.0917e-07
2750.0 9.0756e-07
2770.0 9.9314e-07
2790.0 1.0611e-06
2810.0 1.115e-06
2830.0 1.1572e-06
2850.0 1.1859e-06
2870.0 1.207e-06
2890.0 1.2238e-06
2910.0 1.2371e-06
2930.0 1.248e-06
2950.0 1.2584e-06
2970.0 1.2686e-06
2990.0 1.2781e-06
3010.0 3.6127e-05
3030.0 3.6397e-05
3050.0 3.6658e-05
3070.0 3.6881e-05
3090.0 3.7073e-05
3110.0 3.7193e-05
3130.0 3.7188e-05
3150.0 3.7023e-05
3170.0 3.6626e-05
3190.0 3.6004e-05
3210.0 3.5214e-05
3230.0 3.431e-05
3250.0 3.3418e-05
3270.0 3.2766e-05
3290.0 3.2404e-05
3310.0 3.2462e-05
3330.0 3.2932e-05
3350.0 3.375e-05
3370.0 3.4919e-05
3390.0 3.6391e-05
3410.0 3.7993e-05
3430.0 3.9792e-05
3450.0 4.1862e-05
3470.0 4.4124e-05
3490.0 4.652e-05
3510.0 4.9229e-05
3530.0 5.2129e-05
3550.0 5.5066e-05
3570.0 5.813e-05
3590.0 6.1461e-05
3610.0 6.4894e-05
3630.0 6.8317e-05
3650.0 7.1867e-05
3670.0 7.5109e-05
3690.0 7.7532e-05
3710.0 7.8921e-05
3730.0 7.8967e-05
3750.0 7.7868e-05
3770.0 7.7436e-05
3790.0 7.6976e-05
3810.0 7.5084e-05
3830.0 7.7408e-05
3850.0 8.6552e-05
3870.0 9.1571e-05
3890.0 9.1153e-05
3910.0 9.1541e-05
3930.0 9.3951e-05
3950.0 9.5435e-05
3970.0 8.695e-05
3990.0 7.4816e-05
4010.0 0.00022423
4030.0 0.00027169
4050.0 0.00031148
4070.0 0.00027026
4090.0 0.00024477
4110.0 0.00021599
4130.0 0.0001988
4150.0 0.00021146
4170.0 0.0002083
4190.0 0.00022203
4210.0 0.00022
4230.0 0.0002327
4250.0 0.00027529
4270.0 0.00027852
4290.0 0.00025666
4310.0 0.00026668
4330.0 0.00028367
4350.0 0.00031807
4370.0 0.00036197
4390.0 0.00033967
4410.0 0.00025096
4430.0 0.00021245
4450.0 0.00019522
4470.0 0.00014984
4490.0 0.00016169
4510.0 0.00024424
4530.0 0.00028168
4550.0 0.00028412
4570.0 0.00031971
4590.0 0.00036418
4610.0 0.00049119
4630.0 0.00063796
4650.0 0.00069186
4670.0 0.00064072
4690.0 0.00061136
4710.0 0.00064626
4730.0 0.00060988
4750.0 0.00045597
4770.0 0.00033447
4790.0 0.00031233
4810.0 0.0002977
4830.0 0.00027254
4850.0 0.00029906
4870.0 0.00039509
4890.0 0.00046593
4910.0 0.00040879
4930.0 0.00036172
4950.0 0.00039741
4970.0 0.00050965
4990.0 0.0006907
5010.0 0.00079456
5030.0 0.00070061
5050.0 0.00047401
5070.0 0.00031239
5090.0 0.0002519
5110.0 0.00025905
5130.0 0.00029899
5150.0 0.00032393
5170.0 0.00031907
5190.0 0.00029815
5210.0 0.00031164
5230.0 0.0003276
5250.0 0.00035306
5270.0 0.00038093
5290.0 0.00042215
5310.0 0.00049137
5330.0 0.00054377
5350.0 0.0005403
5370.0 0.00056754
5390.0 0.00065126
5410.0 0.00065068
5430.0 0.00057543
5450.0 0.00052869
5470.0 0.00056138
5490.0 0.00068585
5510.0 0.00085755
5530.0 0.00098357
5550.0 0.00095064
5570.0 0.0008642
5590.0 0.00075144
5610.0 0.00069299
5630.0 0.00067199
5650.0 0.00064001
5670.0 0.00060646
5690.0 0.00054218
5710.0 0.00052863
5730.0 0.00048695
5750.0 0.00034333
5770.0 0.00026785
5790.0 0.00030354
5810.0 0.00034275
5830.0 0.0004206
5850.0 0.00050068
5870.0 0.00055551
5890.0 0.00056493
5910.0 0.00055423
5930.0 0.00052757
5950.0 0.00053759
5970.0 0.00061279
5990.0 0.00057618
6010.0 0.00048302
6030.0 0.00040808
6050.0 0.00035538
6070.0 0.00035344
6090.0 0.00038325
6110.0 0.00042853
6130.0 0.0004351
6150.0 0.00037436
6170.0 0.00032932
6190.0 0.00037061
6210.0 0.00048993
6230.0 0.00064294
6250.0 0.00069639
6270.0 0.00060855
6290.0 0.000512
6310.0 0.00039971
6330.0 0.00030625
6350.0 0.00027317
6370.0 0.00028727
6390.0 0.0003321
6410.0 0.00040949
6430.0 0.00047817
6450.0 0.00054715
6470.0 0.0006265
6490.0 0.00075677
6510.0 0.00084617
6530.0 0.00083015
6550.0 0.00075068
6570.0 0.00063725
6590.0 0.00057463
6610.0 0.00049548
6630.0 0.00044888
6650.0 0.00042432
6670.0 0.00041222
6690.0 0.00037247
6710.0 0.00033858
6730.0 0.00024387
6750.0 0.00024177
6770.0 0.00026279
6790.0 0.00030206
6810.0 0.00027639
6830.0 0.0002846
6850.0 0.0002662
6870.0 0.00024317
6890.0 0.00023348
6910.0 0.0002488
6930.0 0.00023304
6950.0 0.00023976
6970.0 0.00025218
6990.0 0.00028625
7010.0 0.00028869
7030.0 0.00029327
7050.0 0.00027968
7070.0 0.00026649
7090.0 0.00026727
7110.0 0.000275
7130.0 0.00029594
7150.0 0.00031431
7170.0 0.00034682
7190.0 0.00038125
7210.0 0.00037463
7230.0 0.00038513
7250.0 0.00041388
7270.0 0.00045103
7290.0 0.00053533
7310.0 0.00058088
7330.0 0.00056147
7350.0 0.00050781
7370.0 0.00044184
7390.0 0.00042864
7410.0 0.00045552
7430.0 0.00050625
7450.0 0.0005514
7470.0 0.00054634
7490.0 0.00049815
7510.0 0.00056428
7530.0 0.00055811
7550.0 0.00050163
7570.0 0.00039187
7590.0 0.0002694
7610.0 0.00023122
7630.0 0.00026271
7650.0 0.00031062
7670.0 0.00038659
7690.0 0.00042541
7710.0 0.00044333
7730.0 0.00046589
7750.0 0.00052301
7770.0 0.00053123
7790.0 0.00048796
7810.0 0.00044524
7830.0 0.00045914
7850.0 0.00044632
7870.0 0.00040921
7890.0 0.00034381
7910.0 0.00027947
7930.0 0.00026685
7950.0 0.00024311
7970.0 0.00022504
7990.0 0.00022376
8010.0 1.6572e-05
8030.0 1.6357e-05
8050.0 1.6136e-05
8070.0 1.6347e-05
8090.0 1.7565e-05
8110.0 1.7266e-05
8130.0 1.4242e-05
8150.0 1.387e-05
8170.0 1.1947e-05
8190.0 1.1322e-05
8210.0 1.4703e-05
8230.0 1.637e-05
8250.0 1.4754e-05
8270.0 1.2841e-05
8290.0 1.2518e-05
8310.0 9.6344e-06
8330.0 6.4935e-06
8350.0 4.6084e-06
8370.0 2.9035e-06
8390.0 5.3075e-06
8410.0 6.1847e-06
8430.0 7.6236e-06
8450.0 8.9522e-06
8470.0 1.1127e-05
8490.0 1.1048e-05
8510.0 1.0868e-05
8530.0 1.1342e-05
8550.0 1.5303e-05
8570.0 1.8116e-05
8590.0 1.9547e-05
8610.0 2.4692e-05
8630.0 2.9745e-05
8650.0 3.1117e-05
8670.0 3.3068e-05
8690.0 3.3253e-05
8710.0 3.0115e-05
8730.0 2.8012e-05
8750.0 2.4726e-05
8770.0 2.3461e-05
8790.0 2.3049e-05
8810.0 2.2086e-05
8830.0 1.7661e-05
8850.0 1.2929e-05
8870.0 9.8998e-06
8890.0 9.6786e-06
8910.0 1.1092e-05
8930.0 1.2616e-05
8950.0 1.2858e-05
8970.0 1.2919e-05
8990.0 1.1522e-05
9010.0 0.00012074
9030.0 0.00010941
9050.0 0.00010994
9070.0 0.0001108
9090.0 0.00011157
9110.0 0.0001125
9130.0 0.00011323
9150.0 0.00011379
9170.0 0.00011439
9190.0 0.00011504
9210.0 0.00011571
9230.0 0.00011643
9250.0 0.00011715
9270.0 0.0001179
9290.0 0.00011868
9310.0 0.00011945
9330.0 0.00012025
9350.0 0.00012107
9370.0 0.00012191
9390.0 0.00012275
9410.0 0.00012362
9430.0 0.00012451
9450.0 0.0001254
9470.0 0.00012631
9490.0 0.00012724
9510.0 0.00012818
9530.0 0.00012913
9550.0 0.00013012
9570.0 0.00013112
9590.0 0.00013212
9610.0 0.00013314
9630.0 0.00013419
9650.0 0.00013524
9670.0 0.0001363
9690.0 0.00013739
9710.0 0.00013849
9730.0 0.00013959
9750.0 0.00014072
9770.0 0.00014187
9790.0 0.00014302
9810.0 0.00014418
9830.0 0.00014537
9850.0 0.00014657
9870.0 0.00014776
9890.0 0.00014898
9910.0 0.00015021
9930.0 0.00015145
9950.0 0.00015269
9970.0 0.00015396
9990.0 0.00015524
10010.0 0.00013471
10030.0 0.00013581
10050.0 0.00013694
10070.0 0.00013811
10090.0 0.00013921
10110.0 0.00014033
10130.0 0.00014147
10150.0 0.00014259
10170.0 0.00014374
10190.0 0.0001449
10210.0 0.00014604
10230.0 0.00014719
10250.0 0.00014835
10270.0 0.00014951
10290.0 0.00015066
10310.0 0.00015182
10330.0 0.000153
10350.0 0.00015415
10370.0 0.0001553
10390.0 0.00015646
10410.0 0.00015762
10430.0 0.00015876
10450.0 0.0001599
10470.0 0.00016105
10490.0 0.00016218
10510.0 0.0001633
10530.0 0.00016444
10550.0 0.00016557
10570.0 0.00016666
10590.0 0.00016777
10610.0 0.00016887
10630.0 0.00016995
10650.0 0.00017102
10670.0 0.00017209
10690.0 0.00017315
10710.0 0.00017418
10730.0 0.00017522
10750.0 0.00017626
10770.0 0.00017726
10790.0 0.00017824
10810.0 0.00017923
10830.0 0.00018019
10850.0 0.0001811
10870.0 0.00018197
10890.0 0.00018275
10910.0 0.00018334
10930.0 0.00018368
10950.0 0.0001836
10970.0 0.00018298
10990.0 0.00018176
11010.0 0.00017972
11030.0 0.00017686
11050.0 0.00017338
11070.0 0.00016921
11090.0 0.0001642
11110.0 0.00015902
11130.0 0.00015362
11150.0 0.00014781
11170.0 0.00014181
11190.0 0.000136
11210.0 0.00012999
11230.0 0.00012383
11250.0 0.00011795
11270.0 0.0001123
11290.0 0.00010664
11310.0 0.00010127
11330.0 9.655e-05
11350.0 9.2089e-05
11370.0 8.7966e-05
11390.0 8.4398e-05
11410.0 8.1278e-05
11430.0 7.8379e-05
11450.0 7.588e-05
11470.0 7.372e-05
11490.0 7.171e-05
11510.0 6.9773e-05
11530.0 6.7976e-05
11550.0 6.619e-05
11570.0 6.4285e-05
11590.0 6.2313e-05
11610.0 6.0305e-05
11630.0 5.812e-05
11650.0 5.578e-05
11670.0 5.3474e-05
11690.0 5.1136e-05
11710.0 4.8724e-05
11730.0 4.6386e-05
11750.0 4.4223e-05
11770.0 4.2102e-05
11790.0 4.0113e-05
11810.0 3.8363e-05
11830.0 3.6798e-05
11850.0 3.5356e-05
11870.0 3.415e-05
11890.0 3.3148e-05
11910.0 3.2267e-05
11930.0 3.1509e-05
11950.0 3.0879e-05
11970.0 3.0315e-05
11990.0 2.9783e-05
12010.0 2.929e-05
12030.0 2.8815e-05
12050.0 2.8325e-05
12070.0 2.7814e-05
12090.0 2.7322e-05
12110.0 2.6822e-05
12130.0 2.6322e-05
12150.0 2.586e-05
12170.0 2.5458e-05
12190.0 2.5109e-05
12210.0 2.4866e-05
12230.0 2.4748e-05
12250.0 2.4767e-05
12270.0 2.4954e-05
12290.0 2.5307e-05
12310.0 2.5814e-05
12330.0 2.6522e-05
12350.0 2.7406e-05
12370.0 2.8413e-05
12390.0 2.9574e-05
12410.0 3.0934e-05
12430.0 3.2317e-05
12450.0 3.3748e-05
12470.0 3.527e-05
12490.0 3.6799e-05
12510.0 3.8233e-05
12530.0 3.966e-05
12550.0 4.1037e-05
12570.0 4.2252e-05
12590.0 4.3318e-05
12610.0 4.4269e-05
12630.0 4.5027e-05
12650.0 4.555e-05
12670.0 4.5894e-05
12690.0 4.6031e-05
12710.0 4.5955e-05
12730.0 4.5689e-05
12750.0 4.5214e-05
12770.0 4.4561e-05
12790.0 4.3771e-05
12810.0 4.2826e-05
12830.0 4.1733e-05
12850.0 4.0591e-05
12870.0 3.9382e-05
12890.0 3.8075e-05
12910.0 3.6746e-05
12930.0 3.5436e-05
12950.0 3.4069e-05
12970.0 3.2678e-05
12990.0 3.1362e-05
13010.0 3.0062e-05
13030.0 2.8747e-05
13050.0 2.7485e-05
13070.0 2.6302e-05
13090.0 2.5115e-05
13110.0 2.3967e-05
13130.0 2.2908e-05
13150.0 2.1906e-05
13170.0 2.0924e-05
13190.0 2.0051e-05
13210.0 1.9282e-05
13230.0 1.8579e-05
13250.0 1.7974e-05
13270.0 1.7497e-05
13290.0 1.7126e-05
13310.0 1.687e-05
13330.0 1.6754e-05
13350.0 1.6767e-05
13370.0 1.6917e-05
13390.0 1.7213e-05
13410.0 1.7612e-05
13430.0 1.8131e-05
13450.0 1.8772e-05
13470.0 1.9484e-05
13490.0 2.0238e-05
13510.0 2.1088e-05
13530.0 2.1949e-05
13550.0 2.2774e-05
13570.0 2.3588e-05
13590.0 2.438e-05
13610.0 2.5086e-05
13630.0 2.5701e-05
13650.0 2.6263e-05
13670.0 2.673e-05
13690.0 2.7091e-05
13710.0 2.737e-05
13730.0 2.7569e-05
13750.0 2.7669e-05
13770.0 2.7691e-05
13790.0 2.7641e-05
13810.0 2.7519e-05
13830.0 2.7339e-05
13850.0 2.7094e-05
13870.0 2.6786e-05
13890.0 2.6434e-05
13910.0 2.6037e-05
13930.0 2.5577e-05
13950.0 2.5076e-05
13970.0 2.4563e-05
13990.0 2.4004e-05
14010.0 2.341e-05
14030.0 2.2817e-05
14050.0 2.222e-05
14070.0 2.1589e-05
14090.0 2.0985e-05
14110.0 2.0417e-05
14130.0 1.9867e-05
14150.0 1.9349e-05
14170.0 1.8907e-05
14190.0 1.8524e-05
14210.0 1.82e-05
14230.0 1.796e-05
14250.0 1.7805e-05
14270.0 1.7729e-05
14290.0 1.7745e-05
14310.0 1.7844e-05
14330.0 1.8022e-05
14350.0 1.8283e-05
14370.0 1.8609e-05
14390.0 1.8979e-05
14410.0 1.9414e-05
14430.0 1.9893e-05
14450.0 2.0381e-05
14470.0 2.0888e-05
14490.0 2.1427e-05
14510.0 2.1942e-05
14530.0 2.2432e-05
14550.0 2.2921e-05
14570.0 2.3391e-05
14590.0 2.3818e-05
14610.0 2.4232e-05
14630.0 2.4641e-05
14650.0 2.5022e-05
14670.0 2.539e-05
14690.0 2.5774e-05
14710.0 2.6178e-05
14730.0 2.6581e-05
14750.0 2.7028e-05
14770.0 2.7536e-05
14790.0 2.8085e-05
14810.0 2.8681e-05
14830.0 2.9387e-05
14850.0 3.0154e-05
14870.0 3.0954e-05
14890.0 3.1818e-05
14910.0 3.2735e-05
14930.0 3.3616e-05
14950.0 3.444e-05
14970.0 3.522e-05
14990.0 3.5874e-05
15010.0 3.6375e-05
15030.0 3.6745e-05
15050.0 3.699e-05
15070.0 3.711e-05
15090.0 3.7152e-05
15110.0 3.714e-05
15130.0 3.7093e-05
15150.0 3.703e-05
15170.0 3.6956e-05
15190.0 3.6876e-05
15210.0 3.6798e-05
15230.0 3.672e-05
15250.0 3.6639e-05
15270.0 3.6559e-05
15290.0 3.6483e-05
15310.0 3.6405e-05
15330.0 3.6326e-05
15350.0 3.625e-05
15370.0 3.6175e-05
15390.0 3.6096e-05
15410.0 3.602e-05
15430.0 3.5946e-05
15450.0 3.587e-05
15470.0 3.5793e-05
15490.0 3.5721e-05
15510.0 3.5648e-05
15530.0 3.5572e-05
15550.0 3.5499e-05
15570.0 3.5428e-05
15590.0 3.5353e-05
15610.0 3.5278e-05
15630.0 3.5207e-05
15650.0 3.5136e-05
15670.0 3.5062e-05
15690.0 3.4991e-05
15710.0 3.4922e-05
15730.0 3.4849e-05
15750.0 3.4777e-05
15770.0 3.4707e-05
15790.0 3.4637e-05
15810.0 3.4564e-05
15830.0 3.4494e-05
15850.0 3.4425e-05
15870.0 3.4355e-05
15890.0 3.4284e-05
15910.0 3.4216e-05
15930.0 3.4147e-05
15950.0 3.4075e-05
15970.0 3.4005e-05
15990.0 3.3937e-05
16010.0 3.3867e-05
16030.0 3.3795e-05
16050.0 3.3729e-05
16070.0 3.366e-05
16090.0 3.3589e-05
16110.0 3.3521e-05
16130.0 3.3454e-05
16150.0 3.3382e-05
16170.0 3.3312e-05
16190.0 3.3245e-05
16210.0 3.3176e-05
16230.0 3.3105e-05
16250.0 3.3037e-05
16270.0 3.297e-05
16290.0 3.29e-05
16310.0 3.283e-05
16330.0 3.2763e-05
16350.0 3.2693e-05
16370.0 3.2621e-05
16390.0 3.2553e-05
16410.0 3.2485e-05
16430.0 3.2414e-05
16450.0 3.2344e-05
16470.0 3.2277e-05
16490.0 3.2207e-05
16510.0 3.2135e-05
16530.0 3.2066e-05
16550.0 3.1998e-05
16570.0 3.1925e-05
16590.0 3.1854e-05
16610.0 3.1786e-05
16630.0 3.1716e-05
16650.0 3.1644e-05
16670.0 3.1575e-05
16690.0 3.1505e-05
16710.0 3.1431e-05
16730.0 3.136e-05
16750.0 3.1291e-05
16770.0 3.1219e-05
16790.0 3.1145e-05
16810.0 3.1075e-05
16830.0 3.1005e-05
16850.0 3.0931e-05
16870.0 3.0859e-05
16890.0 3.0789e-05
16910.0 3.0715e-05
16930.0 3.064e-05
16950.0 3.0569e-05
16970.0 3.0496e-05
16990.0 3.0422e-05
17010.0 3.0348e-05
17030.0 3.0277e-05
17050.0 3.0202e-05
17070.0 3.0127e-05
17090.0 3.0055e-05
17110.0 2.9981e-05
17130.0 2.9903e-05
17150.0 2.9829e-05
17170.0 2.9756e-05
17190.0 2.968e-05
17210.0 2.9604e-05
17230.0 2.9531e-05
17250.0 2.9456e-05
17270.0 2.9377e-05
17290.0 2.9302e-05
17310.0 2.9227e-05
17330.0 2.9149e-05
17350.0 2.9071e-05
17370.0 2.8997e-05
17390.0 2.892e-05
17410.0 2.8841e-05
17430.0 2.8765e-05
17450.0 2.8689e-05
17470.0 2.8609e-05
17490.0 2.853e-05
17510.0 2.8453e-05
17530.0 2.8375e-05
17550.0 2.8295e-05
17570.0 2.8217e-05
17590.0 2.814e-05
17610.0 2.8059e-05
17630.0 2.7979e-05
17650.0 2.7902e-05
17670.0 2.7822e-05
17690.0 2.7739e-05
17710.0 2.7661e-05
17730.0 2.7582e-05
17750.0 2.75e-05
17770.0 2.7419e-05
17790.0 2.7341e-05
17810.0 2.7259e-05
17830.0 2.7177e-05
17850.0 2.7097e-05
17870.0 2.7016e-05
17890.0 2.6932e-05
17910.0 2.685e-05
17930.0 2.6771e-05
17950.0 2.6688e-05
17970.0 2.6605e-05
17990.0 2.6524e-05
18010.0 2.6443e-05
18030.0 2.6358e-05
18050.0 2.6275e-05
18070.0 2.6194e-05
18090.0 2.611e-05
18110.0 2.6025e-05
18130.0 2.5944e-05
18150.0 2.5862e-05
18170.0 2.5776e-05
18190.0 2.5693e-05
18210.0 2.5611e-05
18230.0 2.5526e-05
18250.0 2.544e-05
18270.0 2.5357e-05
18290.0 2.5274e-05
18310.0 2.5188e-05
18330.0 2.5104e-05
18350.0 2.5022e-05
18370.0 2.4936e-05
18390.0 2.485e-05
18410.0 2.4767e-05
18430.0 2.4682e-05
18450.0 2.4594e-05
18470.0 2.451e-05
18490.0 2.4426e-05
18510.0 2.434e-05
18530.0 2.4254e-05
18550.0 2.4171e-05
18570.0 2.4085e-05
18590.0 2.3997e-05
18610.0 2.3912e-05
18630.0 2.3828e-05
18650.0 2.3741e-05
18670.0 2.3654e-05
18690.0 2.357e-05
18710.0 2.3485e-05
18730.0 2.3397e-05
18750.0 2.3312e-05
18770.0 2.3228e-05
18790.0 2.3139e-05
18810.0 2.3052e-05
18830.0 2.2968e-05
18850.0 2.2881e-05
18870.0 2.2793e-05
18890.0 2.2708e-05
18910.0 2.2624e-05
18930.0 2.2536e-05
18950.0 2.2449e-05
18970.0 2.2364e-05
18990.0 2.2277e-05
19010.0 2.2187e-05
19030.0 2.2103e-05
19050.0 2.2018e-05
19070.0 2.193e-05
19090.0 2.1843e-05
19110.0 2.176e-05
19130.0 2.1672e-05
19150.0 2.1583e-05
19170.0 2.1498e-05
19190.0 2.1412e-05
19210.0 2.1324e-05
19230.0 2.1237e-05
19250.0 2.1153e-05
19270.0 2.1066e-05
19290.0 2.0978e-05
19310.0 2.0893e-05
19330.0 2.0808e-05
19350.0 2.0718e-05
19370.0 2.0632e-05
19390.0 2.0547e-05
19410.0 2.046e-05
19430.0 2.0372e-05
19450.0 2.0288e-05
19470.0 2.0202e-05
19490.0 2.0114e-05
19510.0 2.0028e-05
19530.0 1.9944e-05
19550.0 1.9856e-05
19570.0 1.9768e-05
19590.0 1.9684e-05
19610.0 1.9598e-05
19630.0 1.951e-05
19650.0 1.9425e-05
19670.0 1.9341e-05
19690.0 1.9254e-05
19710.0 1.9167e-05
19730.0 1.9082e-05
19750.0 1.8997e-05
19770.0 1.8908e-05
19790.0 1.8823e-05
19810.0 1.8739e-05
19830.0 1.8652e-05
19850.0 1.8564e-05
19870.0 1.8478e-05
19890.0 1.8386e-05
19910.0 1.8285e-05
19930.0 1.8176e-05
19950.0 1.8052e-05
19970.0 1.7899e-05
19990.0 1.7715e-05
20010.0 1.5761e-05
20030.0 1.5533e-05
20050.0 1.5266e-05
20070.0 1.4977e-05
20090.0 1.4666e-05
20110.0 1.4314e-05
20130.0 1.3957e-05
20150.0 1.3604e-05
20170.0 1.3238e-05
20190.0 1.2867e-05
20210.0 1.2516e-05
20230.0 1.2174e-05
20250.0 1.1831e-05
20270.0 1.1513e-05
20290.0 1.1222e-05
20310.0 1.0946e-05
20330.0 1.0688e-05
20350.0 1.0474e-05
20370.0 1.0284e-05
20390.0 1.0117e-05
20410.0 9.9828e-06
20430.0 9.879e-06
20450.0 9.7967e-06
20470.0 9.7417e-06
20490.0 9.7121e-06
20510.0 9.7035e-06
20530.0 9.7156e-06
20550.0 9.7455e-06
20570.0 9.7892e-06
20590.0 9.8482e-06
20610.0 9.9198e-06
20630.0 9.9986e-06
20650.0 1.0087e-05
20670.0 1.0188e-05
20690.0 1.029e-05
20710.0 1.0396e-05
20730.0 1.0511e-05
20750.0 1.0631e-05
20770.0 1.0748e-05
20790.0 1.0872e-05
20810.0 1.1003e-05
20830.0 1.1133e-05
20850.0 1.1263e-05
20870.0 1.1403e-05
20890.0 1.1546e-05
20910.0 1.1683e-05
20930.0 1.1826e-05
20950.0 1.1974e-05
20970.0 1.2118e-05
20990.0 1.226e-05
21010.0 1.241e-05
21030.0 1.2556e-05
21050.0 1.2696e-05
21070.0 1.2835e-05
21090.0 1.2975e-05
21110.0 1.3102e-05
21130.0 1.3222e-05
21150.0 1.3338e-05
21170.0 1.3443e-05
21190.0 1.3533e-05
21210.0 1.3615e-05
21230.0 1.3682e-05
21250.0 1.373e-05
21270.0 1.3761e-05
21290.0 1.3772e-05
21310.0 1.3761e-05
21330.0 1.3729e-05
21350.0 1.3672e-05
21370.0 1.3588e-05
21390.0 1.3482e-05
21410.0 1.3351e-05
21430.0 1.3186e-05
21450.0 1.3001e-05
21470.0 1.28e-05
21490.0 1.2571e-05
21510.0 1.2321e-05
21530.0 1.2067e-05
21550.0 1.18e-05
21570.0 1.1516e-05
21590.0 1.1237e-05
21610.0 1.0967e-05
21630.0 1.0697e-05
21650.0 1.0433e-05
21670.0 1.0204e-05
21690.0 9.9928e-06
21710.0 9.8027e-06
21730.0 9.6469e-06
21750.0 9.5268e-06
21770.0 9.4353e-06
21790.0 9.3827e-06
21810.0 9.3681e-06
21830.0 9.3889e-06
21850.0 9.4476e-06
21870.0 9.5391e-06
21890.0 9.6573e-06
21910.0 9.809e-06
21930.0 9.9868e-06
21950.0 1.018e-05
21970.0 1.0393e-05
21990.0 1.0633e-05
22010.0 1.0872e-05
22030.0 1.1115e-05
22050.0 1.1371e-05
22070.0 1.1627e-05
22090.0 1.187e-05
22110.0 1.2116e-05
22130.0 1.236e-05
22150.0 1.2589e-05
22170.0 1.2804e-05
22190.0 1.3018e-05
22210.0 1.3217e-05
22230.0 1.3392e-05
22250.0 1.3556e-05
22270.0 1.3708e-05
22290.0 1.3837e-05
22310.0 1.3949e-05
22330.0 1.4047e-05
22350.0 1.4122e-05
22370.0 1.4176e-05
22390.0 1.4209e-05
22410.0 1.422e-05
22430.0 1.4206e-05
22450.0 1.417e-05
22470.0 1.4106e-05
22490.0 1.4017e-05
22510.0 1.3907e-05
22530.0 1.3765e-05
22550.0 1.3593e-05
22570.0 1.3402e-05
22590.0 1.3186e-05
22610.0 1.2938e-05
22630.0 1.267e-05
