#lamb flux
1010.0 1.6118e-07
1030.0 1.7747e-07
1050.0 1.9621e-07
1070.0 2.173e-07
1090.0 2.4126e-07
1110.0 2.6584e-07
1130.0 2.9057e-07
1150.0 3.1648e-07
1170.0 3.432e-07
1190.0 3.6854e-07
1210.0 3.9422e-07
1230.0 4.2076e-07
1250.0 4.4676e-07
1270.0 4.7201e-07
1290.0 4.987e-07
1310.0 5.2536e-07
1330.0 5.5093e-07
1350.0 5.7679e-07
1370.0 6.0348e-07
1390.0 6.2951e-07
1410.0 6.5476e-07
1430.0 6.8117e-07
1450.0 7.0757e-07
1470.0 7.3308e-07
1490.0 7.5887e-07
1510.0 7.8611e-07
1530.0 8.1193e-07
1550.0 8.374e-07
1570.0 8.6375e-07
1590.0 8.9013e-07
1610.0 9.1534e-07
1630.0 9.4134e-07
1650.0 9.6802e-07
1670.0 9.9384e-07
1690.0 1.0193e-06
1710.0 1.0458e-06
1730.0 1.0725e-06
1750.0 1.0976e-06
1770.0 1.1234e-06
1790.0 1.1497e-06
1810.0 1.1753e-06
1830.0 1.2004e-06
1850.0 1.227e-06
1870.0 1.253e-06
1890.0 1.2782e-06
1910.0 1.3038e-06
1930.0 1.3301e-06
1950.0 1.3552e-06
1970.0 1.38e-06
1990.0 1.4058e-06
2010.0 1.4312e-06
2030.0 1.4556e-06
2050.0 1.4808e-06
2070.0 1.5066e-06
2090.0 1.5309e-06
2110.0 1.5551e-06
2130.0 1.5801e-06
2150.0 1.6045e-06
2170.0 1.6277e-06
2190.0 1.6518e-06
2210.0 1.676e-06
2230.0 1.6991e-06
2250.0 1.722e-06
2270.0 1.746e-06
2290.0 1.769e-06
2310.0 1.7909e-06
2330.0 1.8137e-06
2350.0 1.837e-06
2370.0 1.8601e-06
2390.0 1.8852e-06
2410.0 1.9154e-06
2430.0 1.9506e-06
2450.0 1.9931e-06
2470.0 2.0485e-06
2490.0 2.119e-06
2510.0 2.1996e-06
2530.0 2.2972e-06
2550.0 2.4199e-06
2570.0 2.5728e-06
2590.0 2.7717e-06
2610.0 3.0693e-06
2630.0 3.4929e-06
2650.0 4.0444e-06
2670.0 4.7548e-06
2690.0 5.6244e-06
2710.0 6.5481e-06
2730.0 7.4559e-06
2750.0 8.3452e-06
2770.0 9.1126e-06
2790.0 9.715e-06
2810.0 1.0186e-05
2830.0 1.0548e-05
2850.0 1.0787e-05
2870.0 1.0955e-05
2890.0 1.1083e-05
2910.0 1.118e-05
2930.0 1.1256e-05
2950.0 1.1327e-05
2970.0 1.1396e-05
2990.0 1.1461e-05
3010.0 0.00033509
3030.0 0.00033693
3050.0 0.0003387
3070.0 0.00034016
3090.0 0.00034135
3110.0 0.00034188
3130.0 0.0003413
3150.0 0.00033927
3170.0 0.00033514
3190.0 0.00032895
3210.0 0.00032127
3230.0 0.00031253
3250.0 0.0003038
3270.0 0.00029737
3290.0 0.00029343
3310.0 0.00029355
3330.0 0.00029732
3350.0 0.00030426
3370.0 0.00031439
3390.0 0.00032727
3410.0 0.00034136
3430.0 0.00035723
3450.0 0.00037553
3470.0 0.00039556
3490.0 0.00041683
3510.0 0.00044092
3530.0 0.00046681
3550.0 0.00049331
3570.0 0.00052126
3590.0 0.00055178
3610.0 0.00058375
3630.0 0.00061551
3650.0 0.0006486
3670.0 0.00067866
3690.0 0.00070106
3710.0 0.00071351
3730.0 0.00071231
3750.0 0.00069913
3770.0 0.00070054
3790.0 0.00069568
3810.0 0.00065081
3830.0 0.00066599
3850.0 0.00078856
3870.0 0.00082739
3890.0 0.00078176
3910.0 0.00077013
3930.0 0.00081336
3950.0 0.00085436
3970.0 0.00081083
3990.0 0.00065453
4010.0 0.0018433
4030.0 0.002178
4050.0 0.0024939
4070.0 0.0022422
4090.0 0.0020423
4110.0 0.001781
4130.0 0.0017202
4150.0 0.0019333
4170.0 0.0018104
4190.0 0.0018638
4210.0 0.0018931
4230.0 0.0020654
4250.0 0.0024582
4270.0 0.0025293
4290.0 0.0023007
4310.0 0.0023314
4330.0 0.0024383
4350.0 0.0028081
4370.0 0.0032471
4390.0 0.0029358
4410.0 0.0020492
4430.0 0.0016873
4450.0 0.0015587
4470.0 0.0011465
4490.0 0.0013317
4510.0 0.0022021
4530.0 0.0025785
4550.0 0.0025413
4570.0 0.0027136
4590.0 0.0030456
4610.0 0.0044909
4630.0 0.0059683
4650.0 0.0062572
4670.0 0.0057186
4690.0 0.0055256
4710.0 0.0058181
4730.0 0.0053322
4750.0 0.0038783
4770.0 0.0027941
4790.0 0.0026984
4810.0 0.0026363
4830.0 0.0024582
4850.0 0.0026864
4870.0 0.0035511
4890.0 0.0041674
4910.0 0.0035612
4930.0 0.0032251
4950.0 0.0035853
4970.0 0.0046321
4990.0 0.0062748
5010.0 0.007241
5030.0 0.0062428
5050.0 0.0041388
5070.0 0.0027732
5090.0 0.0021967
5110.0 0.0022101
5130.0 0.0025804
5150.0 0.0027338
5170.0 0.002666
5190.0 0.0024629
5210.0 0.0026148
5230.0 0.0028495
5250.0 0.0031289
5270.0 0.0032566
5290.0 0.0035824
5310.0 0.0043096
5330.0 0.0047478
5350.0 0.0047092
5370.0 0.0050199
5390.0 0.0058851
5410.0 0.0056701
5430.0 0.0048709
5450.0 0.0045668
5470.0 0.0049452
5490.0 0.0060666
5510.0 0.0075266
5530.0 0.008659
5550.0 0.0082425
5570.0 0.0074742
5590.0 0.0064177
5610.0 0.0060438
5630.0 0.0060784
5650.0 0.0057288
5670.0 0.0053841
5690.0 0.0046974
5710.0 0.0046399
5730.0 0.0043276
5750.0 0.0028846
5770.0 0.002205
5790.0 0.0025428
5810.0 0.002824
5830.0 0.0036524
5850.0 0.0044533
5870.0 0.0049119
5890.0 0.0049259
5910.0 0.0048271
5930.0 0.0046003
5950.0 0.0046983
5970.0 0.0054729
5990.0 0.0049822
6010.0 0.0041002
6030.0 0.0034406
6050.0 0.0030132
6070.0 0.0031227
6090.0 0.0034116
6110.0 0.0037303
6130.0 0.0037117
6150.0 0.0031317
6170.0 0.0026734
6190.0 0.0030465
6210.0 0.0041929
6230.0 0.0056756
6250.0 0.0061524
6270.0 0.0052084
6290.0 0.0044021
6310.0 0.0034179
6330.0 0.0025886
6350.0 0.0023606
6370.0 0.0024813
6390.0 0.0028877
6410.0 0.003608
6430.0 0.0042457
6450.0 0.0049443
6470.0 0.0055368
6490.0 0.0066672
6510.0 0.0074589
6530.0 0.0074055
6550.0 0.0067266
6570.0 0.0056079
6590.0 0.0051157
6610.0 0.004365
6630.0 0.0041032
6650.0 0.0039152
6670.0 0.0036846
6690.0 0.003192
6710.0 0.0029558
6730.0 0.0018974
6750.0 0.0020067
6770.0 0.0024074
6790.0 0.0028879
6810.0 0.0024485
6830.0 0.0025151
6850.0 0.002279
6870.0 0.0020908
6890.0 0.0019455
6910.0 0.0021472
6930.0 0.0020149
6950.0 0.0021571
6970.0 0.0022661
6990.0 0.002557
7010.0 0.002542
7030.0 0.0026795
7050.0 0.0024879
7070.0 0.0022857
7090.0 0.0023365
7110.0 0.0024309
7130.0 0.0026683
7150.0 0.0028853
7170.0 0.0032013
7190.0 0.0034975
7210.0 0.0033468
7230.0 0.0034279
7250.0 0.0036755
7270.0 0.0039802
7290.0 0.0047812
7310.0 0.0051652
7330.0 0.004961
7350.0 0.0044776
7370.0 0.0037428
7390.0 0.0036792
7410.0 0.0040517
7430.0 0.0045363
7450.0 0.004927
7470.0 0.0047697
7490.0 0.004181
7510.0 0.0052017
7530.0 0.0050365
7550.0 0.0046029
7570.0 0.0034621
7590.0 0.0021557
7610.0 0.0017871
7630.0 0.0021434
7650.0 0.0026076
7670.0 0.0034539
7690.0 0.0038096
7710.0 0.0038254
7730.0 0.0039695
7750.0 0.0046416
7770.0 0.0047327
7790.0 0.0043389
7810.0 0.0038313
7830.0 0.0040051
7850.0 0.0040251
7870.0 0.0037594
7890.0 0.0030916
7910.0 0.0023929
7930.0 0.0023364
7950.0 0.0021252
7970.0 0.0019208
7990.0 0.0018683
8010.0 0.00035491
8030.0 0.00032477
8050.0 0.00034691
8070.0 0.00039428
8090.0 0.00048543
8110.0 0.00046114
8130.0 0.00027456
8150.0 0.00028959
8170.0 0.00016341
8190.0 0.00010089
8210.0 0.00026903
8230.0 0.00032543
8250.0 0.00014101
8270.0 0.00011063
8290.0 0.0002041
8310.0 0.0001817
8330.0 0.00011414
8350.0 8.8867e-05
8370.0 2.11e-05
8390.0 9.6878e-05
8410.0 0.00011007
8430.0 0.00013584
8450.0 0.00015525
8470.0 0.00025532
8490.0 0.00021482
8510.0 0.00017111
8530.0 0.00010254
8550.0 0.00030158
8570.0 0.00044773
8590.0 0.00033016
8610.0 0.00048639
8630.0 0.00054175
8650.0 0.00034166
8670.0 0.00046617
8690.0 0.00066339
8710.0 0.00056973
8730.0 0.00059623
8750.0 0.00047368
8770.0 0.00042403
8790.0 0.00046013
8810.0 0.00049156
8830.0 0.00028574
8850.0 0.0001307
8870.0 9.1364e-05
8890.0 0.00020029
8910.0 0.00031095
8930.0 0.00041103
8950.0 0.00044729
8970.0 0.00043021
8990.0 0.00031804
9010.0 0.00090124
9030.0 0.00075984
9050.0 0.00077134
9070.0 0.00078542
9090.0 0.00079726
9110.0 0.00081188
9130.0 0.00082264
9150.0 0.00083049
9170.0 0.00083884
9190.0 0.00084777
9210.0 0.00085717
9230.0 0.00086708
9250.0 0.00087708
9270.0 0.00088743
9290.0 0.00089806
9310.0 0.00090866
9330.0 0.00091942
9350.0 0.00093056
9370.0 0.00094176
9390.0 0.000953
9410.0 0.00096454
9430.0 0.00097641
9450.0 0.00098814
9470.0 0.0010001
9490.0 0.0010124
9510.0 0.0010247
9530.0 0.0010371
9550.0 0.0010499
9570.0 0.0010629
9590.0 0.0010759
9610.0 0.0010891
9630.0 0.0011027
9650.0 0.0011163
9670.0 0.0011299
9690.0 0.0011439
9710.0 0.0011581
9730.0 0.0011722
9750.0 0.0011866
9770.0 0.0012014
9790.0 0.0012162
9810.0 0.001231
9830.0 0.0012461
9850.0 0.0012615
9870.0 0.0012767
9890.0 0.0012922
9910.0 0.001308
9930.0 0.0013237
9950.0 0.0013395
9970.0 0.0013557
9990.0 0.0013721
10010.0 0.001198
10030.0 0.0012121
10050.0 0.0012265
10070.0 0.001241
10090.0 0.0012552
10110.0 0.0012697
10130.0 0.0012843
10150.0 0.0012988
10170.0 0.0013134
10190.0 0.0013283
10210.0 0.001343
10230.0 0.0013576
10250.0 0.0013725
10270.0 0.0013874
10290.0 0.001402
10310.0 0.0014169
10330.0 0.0014319
10350.0 0.0014467
10370.0 0.0014614
10390.0 0.0014762
10410.0 0.001491
10430.0 0.0015055
10450.0 0.0015202
10470.0 0.0015349
10490.0 0.0015493
10510.0 0.0015636
10530.0 0.0015782
10550.0 0.0015925
10570.0 0.0016065
10590.0 0.0016205
10610.0 0.0016346
10630.0 0.0016483
10650.0 0.0016618
10670.0 0.0016755
10690.0 0.001689
10710.0 0.0017021
10730.0 0.0017152
10750.0 0.0017284
10770.0 0.0017409
10790.0 0.0017534
10810.0 0.0017659
10830.0 0.0017779
10850.0 0.0017894
10870.0 0.0018006
10890.0 0.0018106
10910.0 0.0018187
10930.0 0.0018241
10950.0 0.0018251
10970.0 0.0018204
10990.0 0.0018094
11010.0 0.0016884
11030.0 0.0016618
11050.0 0.0016292
11070.0 0.0015899
11090.0 0.0015426
11110.0 0.0014937
11130.0 0.0014426
11150.0 0.0013877
11170.0 0.0013313
11190.0 0.0012765
11210.0 0.0012201
11230.0 0.0011624
11250.0 0.0011074
11270.0 0.0010545
11290.0 0.0010017
11310.0 0.00095165
11330.0 0.00090755
11350.0 0.00086586
11370.0 0.0008273
11390.0 0.00079383
11410.0 0.00076444
11430.0 0.00073704
11450.0 0.00071328
11470.0 0.0006926
11490.0 0.00067326
11510.0 0.00065456
11530.0 0.00063715
11550.0 0.00061986
11570.0 0.00060148
11590.0 0.0005825
11610.0 0.00056325
11630.0 0.0005424
11650.0 0.00052018
11670.0 0.00049832
11690.0 0.0004762
11710.0 0.00045343
11730.0 0.00043138
11750.0 0.00041096
11770.0 0.00039093
11790.0 0.00037213
11810.0 0.00035552
11830.0 0.00034061
11850.0 0.00032683
11870.0 0.00031521
11890.0 0.00030548
11910.0 0.00029685
11930.0 0.00028937
11950.0 0.00028308
11970.0 0.00027742
11990.0 0.00027205
12010.0 0.00026708
12030.0 0.00026229
12050.0 0.00025738
12070.0 0.00025231
12090.0 0.00024742
12110.0 0.00024248
12130.0 0.00023753
12150.0 0.00023293
12170.0 0.00022887
12190.0 0.00022527
12210.0 0.00022262
12230.0 0.00022109
12250.0 0.00022076
12270.0 0.00022191
12290.0 0.00022454
12310.0 0.00022854
12330.0 0.00023431
12350.0 0.00024164
12370.0 0.00025005
12390.0 0.00025982
12410.0 0.00027133
12430.0 0.00028305
12450.0 0.0002952
12470.0 0.00030814
12490.0 0.00032114
12510.0 0.00033332
12530.0 0.00034543
12550.0 0.0003571
12570.0 0.00036737
12590.0 0.00037636
12610.0 0.00038434
12630.0 0.00039065
12650.0 0.00039492
12670.0 0.00039765
12690.0 0.00039859
12710.0 0.00039768
12730.0 0.00039512
12750.0 0.00039076
12770.0 0.00038487
12790.0 0.00037779
12810.0 0.00036938
12830.0 0.0003597
12850.0 0.0003496
12870.0 0.00033894
12890.0 0.00032745
12910.0 0.00031579
12930.0 0.00030432
12950.0 0.00029238
12970.0 0.00028026
12990.0 0.0002688
13010.0 0.00025749
13030.0 0.00024608
13050.0 0.00023513
13070.0 0.00022487
13090.0 0.00021458
13110.0 0.00020463
13130.0 0.00019544
13150.0 0.00018673
13170.0 0.00017819
13190.0 0.00017057
13210.0 0.00016383
13230.0 0.00015765
13250.0 0.00015229
13270.0 0.00014802
13290.0 0.00014464
13310.0 0.00014223
13330.0 0.00014101
13350.0 0.0001409
13370.0 0.00014195
13390.0 0.00014424
13410.0 0.00014743
13430.0 0.00015165
13450.0 0.00015693
13470.0 0.00016284
13490.0 0.00016914
13510.0 0.00017629
13530.0 0.00018357
13550.0 0.00019057
13570.0 0.00019751
13590.0 0.0002043
13610.0 0.00021036
13630.0 0.00021569
13650.0 0.00022057
13670.0 0.00022466
13690.0 0.00022784
13710.0 0.00023032
13730.0 0.00023213
13750.0 0.00023308
13770.0 0.00023335
13790.0 0.000233
13810.0 0.00023203
13830.0 0.00023054
13850.0 0.0002285
13870.0 0.00022592
13890.0 0.00022294
13910.0 0.00021958
13930.0 0.00021569
13950.0 0.00021143
13970.0 0.00020708
13990.0 0.00020234
14010.0 0.00019731
14030.0 0.00019228
14050.0 0.00018723
14070.0 0.00018189
14090.0 0.00017677
14110.0 0.00017196
14130.0 0.0001673
14150.0 0.00016291
14170.0 0.00015916
14190.0 0.0001559
14210.0 0.00015313
14230.0 0.00015107
14250.0 0.00014972
14270.0 0.00014903
14290.0 0.00014912
14310.0 0.00014991
14330.0 0.00015136
14350.0 0.00015353
14370.0 0.00015625
14390.0 0.00015935
14410.0 0.00016302
14430.0 0.00016706
14450.0 0.00017121
14470.0 0.00017553
14490.0 0.00018013
14510.0 0.00018455
14530.0 0.00018876
14550.0 0.00019298
14570.0 0.00019704
14590.0 0.00020075
14610.0 0.00020434
14630.0 0.00020789
14650.0 0.0002112
14670.0 0.0002144
14690.0 0.00021772
14710.0 0.00022121
14730.0 0.00022469
14750.0 0.00022854
14770.0 0.00023291
14790.0 0.00023764
14810.0 0.00024277
14830.0 0.00024885
14850.0 0.00025547
14870.0 0.00026239
14890.0 0.00026986
14910.0 0.00027781
14930.0 0.00028546
14950.0 0.00029263
14970.0 0.00029943
14990.0 0.00030515
15010.0 0.00030955
15030.0 0.00031284
15050.0 0.00031506
15070.0 0.00031619
15090.0 0.00031665
15110.0 0.00031665
15130.0 0.00031635
15150.0 0.00031592
15170.0 0.00031538
15190.0 0.00031481
15210.0 0.00031424
15230.0 0.00031367
15250.0 0.00031308
15270.0 0.0003125
15290.0 0.00031196
15310.0 0.00031139
15330.0 0.00031083
15350.0 0.00031028
15370.0 0.00030975
15390.0 0.00030918
15410.0 0.00030863
15430.0 0.00030811
15450.0 0.00030757
15470.0 0.00030702
15490.0 0.00030651
15510.0 0.00030599
15530.0 0.00030545
15550.0 0.00030493
15570.0 0.00030443
15590.0 0.00030391
15610.0 0.00030337
15630.0 0.00030287
15650.0 0.00030237
15670.0 0.00030185
15690.0 0.00030134
15710.0 0.00030086
15730.0 0.00030035
15750.0 0.00029983
15770.0 0.00029935
15790.0 0.00029885
15810.0 0.00029833
15830.0 0.00029783
15850.0 0.00029735
15870.0 0.00029685
15890.0 0.00029634
15910.0 0.00029587
15930.0 0.00029538
15950.0 0.00029486
15970.0 0.00029437
15990.0 0.00029389
16010.0 0.00029338
16030.0 0.00029287
16050.0 0.00029239
16070.0 0.0002919
16090.0 0.00029139
16110.0 0.0002909
16130.0 0.00029042
16150.0 0.0002899
16170.0 0.00028939
16190.0 0.0002889
16210.0 0.0002884
16230.0 0.00028788
16250.0 0.00028739
16270.0 0.0002869
16290.0 0.00028638
16310.0 0.00028586
16330.0 0.00028537
16350.0 0.00028486
16370.0 0.00028431
16390.0 0.00028381
16410.0 0.0002833
16430.0 0.00028277
16450.0 0.00028225
16470.0 0.00028175
16490.0 0.00028121
16510.0 0.00028067
16530.0 0.00028015
16550.0 0.00027963
16570.0 0.00027907
16590.0 0.00027852
16610.0 0.00027801
16630.0 0.00027746
16650.0 0.00027691
16670.0 0.00027637
16690.0 0.00027583
16710.0 0.00027525
16730.0 0.0002747
16750.0 0.00027415
16770.0 0.00027358
16790.0 0.000273
16810.0 0.00027245
16830.0 0.00027189
16850.0 0.0002713
16870.0 0.00027073
16890.0 0.00027017
16910.0 0.00026957
16930.0 0.00026896
16950.0 0.00026839
16970.0 0.0002678
16990.0 0.00026719
17010.0 0.0002666
17030.0 0.00026602
17050.0 0.0002654
17070.0 0.00026478
17090.0 0.00026418
17110.0 0.00026357
17130.0 0.00026293
17150.0 0.00026231
17170.0 0.0002617
17190.0 0.00026107
17210.0 0.00026043
17230.0 0.00025981
17250.0 0.00025918
17270.0 0.00025851
17290.0 0.00025787
17310.0 0.00025724
17330.0 0.00025657
17350.0 0.0002559
17370.0 0.00025527
17390.0 0.00025461
17410.0 0.00025394
17430.0 0.00025328
17450.0 0.00025263
17470.0 0.00025193
17490.0 0.00025124
17510.0 0.00025058
17530.0 0.0002499
17550.0 0.00024919
17570.0 0.00024852
17590.0 0.00024784
17610.0 0.00024713
17630.0 0.00024643
17650.0 0.00024575
17670.0 0.00024504
17690.0 0.0002443
17710.0 0.00024361
17730.0 0.00024291
17750.0 0.00024218
17770.0 0.00024146
17790.0 0.00024077
17810.0 0.00024004
17830.0 0.0002393
17850.0 0.00023858
17870.0 0.00023786
17890.0 0.0002371
17910.0 0.00023636
17930.0 0.00023565
17950.0 0.0002349
17970.0 0.00023415
17990.0 0.00023342
18010.0 0.00023268
18030.0 0.0002319
18050.0 0.00023115
18070.0 0.00023041
18090.0 0.00022965
18110.0 0.00022888
18130.0 0.00022814
18150.0 0.00022738
18170.0 0.0002266
18190.0 0.00022584
18210.0 0.00022509
18230.0 0.00022431
18250.0 0.00022351
18270.0 0.00022276
18290.0 0.00022199
18310.0 0.0002212
18330.0 0.00022042
18350.0 0.00021967
18370.0 0.00021887
18390.0 0.00021808
18410.0 0.00021731
18430.0 0.00021653
18450.0 0.00021571
18470.0 0.00021493
18490.0 0.00021416
18510.0 0.00021336
18530.0 0.00021256
18550.0 0.00021179
18570.0 0.00021099
18590.0 0.00021017
18610.0 0.00020939
18630.0 0.0002086
18650.0 0.00020779
18670.0 0.00020698
18690.0 0.0002062
18710.0 0.0002054
18730.0 0.00020459
18750.0 0.00020379
18770.0 0.00020301
18790.0 0.00020218
18810.0 0.00020137
18830.0 0.00020058
18850.0 0.00019977
18870.0 0.00019895
18890.0 0.00019816
18910.0 0.00019737
18930.0 0.00019655
18950.0 0.00019574
18970.0 0.00019495
18990.0 0.00019414
19010.0 0.0001933
19030.0 0.00019251
19050.0 0.00019171
19070.0 0.00019089
19090.0 0.00019008
19110.0 0.0001893
19130.0 0.00018847
19150.0 0.00018765
19170.0 0.00018685
19190.0 0.00018605
19210.0 0.00018522
19230.0 0.00018441
19250.0 0.00018363
19270.0 0.00018281
19290.0 0.000182
19310.0 0.0001812
19330.0 0.00018041
19350.0 0.00017957
19370.0 0.00017877
19390.0 0.00017798
19410.0 0.00017716
19430.0 0.00017634
19450.0 0.00017556
19470.0 0.00017476
19490.0 0.00017394
19510.0 0.00017314
19530.0 0.00017236
19550.0 0.00017154
19570.0 0.00017072
19590.0 0.00016993
19610.0 0.00016914
19630.0 0.00016832
19650.0 0.00016753
19670.0 0.00016675
19690.0 0.00016594
19710.0 0.00016513
19730.0 0.00016435
19750.0 0.00016355
19770.0 0.00016273
19790.0 0.00016194
19810.0 0.00016117
19830.0 0.00016036
19850.0 0.00015955
19870.0 0.00015876
19890.0 0.00015791
19910.0 0.00015698
19930.0 0.00015599
19950.0 0.00015488
19970.0 0.00015351
19990.0 0.00015188
20010.0 0.00013586
20030.0 0.00013385
20050.0 0.00013151
20070.0 0.00012898
20090.0 0.00012627
20110.0 0.00012321
20130.0 0.00012011
20150.0 0.00011705
20170.0 0.00011388
20190.0 0.00011067
20210.0 0.00010764
20230.0 0.00010468
20250.0 0.00010172
20270.0 9.8976e-05
20290.0 9.6467e-05
20310.0 9.4083e-05
20330.0 9.1853e-05
20350.0 8.9997e-05
20370.0 8.8346e-05
20390.0 8.6893e-05
20410.0 8.5714e-05
20430.0 8.4798e-05
20450.0 8.4064e-05
20470.0 8.3563e-05
20490.0 8.328e-05
20510.0 8.3178e-05
20530.0 8.3253e-05
20550.0 8.3484e-05
20570.0 8.3835e-05
20590.0 8.432e-05
20610.0 8.4916e-05
20630.0 8.5577e-05
20650.0 8.6321e-05
20670.0 8.7176e-05
20690.0 8.8051e-05
20710.0 8.8956e-05
20730.0 8.9935e-05
20750.0 9.0957e-05
20770.0 9.1961e-05
20790.0 9.3015e-05
20810.0 9.4129e-05
20830.0 9.5236e-05
20850.0 9.6344e-05
20870.0 9.753e-05
20890.0 9.8736e-05
20910.0 9.9897e-05
20930.0 0.0001011
20950.0 0.00010234
20970.0 0.00010355
20990.0 0.00010475
21010.0 0.000106
21030.0 0.00010722
21050.0 0.00010839
21070.0 0.00010955
21090.0 0.00011071
21110.0 0.00011177
21130.0 0.00011277
21150.0 0.00011373
21170.0 0.0001146
21190.0 0.00011534
21210.0 0.00011601
21230.0 0.00011657
21250.0 0.00011696
21270.0 0.00011721
21290.0 0.00011729
21310.0 0.00011718
21330.0 0.0001169
21350.0 0.00011641
21370.0 0.00011569
21390.0 0.00011478
21410.0 0.00011367
21430.0 0.00011227
21450.0 0.00011069
21470.0 0.00010898
21490.0 0.00010704
21510.0 0.00010491
21530.0 0.00010276
21550.0 0.00010049
21570.0 9.8084e-05
21590.0 9.5713e-05
21610.0 9.3422e-05
21630.0 9.1128e-05
21650.0 8.8888e-05
21670.0 8.6943e-05
21690.0 8.5149e-05
21710.0 8.3532e-05
21730.0 8.2205e-05
21750.0 8.1178e-05
21770.0 8.0391e-05
21790.0 7.9931e-05
21810.0 7.9792e-05
21830.0 7.9949e-05
21850.0 8.0425e-05
21870.0 8.1176e-05
21890.0 8.2152e-05
21910.0 8.3408e-05
21930.0 8.4885e-05
21950.0 8.6487e-05
21970.0 8.8262e-05
21990.0 9.0258e-05
22010.0 9.2254e-05
22030.0 9.4281e-05
22050.0 9.6412e-05
22070.0 9.8555e-05
22090.0 0.00010058
22110.0 0.00010263
22130.0 0.00010468
22150.0 0.00010659
22170.0 0.00010839
22190.0 0.00011017
22210.0 0.00011184
22230.0 0.0001133
22250.0 0.00011467
22270.0 0.00011594
22290.0 0.00011702
22310.0 0.00011795
22330.0 0.00011876
22350.0 0.00011939
22370.0 0.00011983
22390.0 0.0001201
22410.0 0.00012018
22430.0 0.00012006
22450.0 0.00011974
22470.0 0.0001192
22490.0 0.00011844
22510.0 0.00011751
22530.0 0.00011631
22550.0 0.00011485
22570.0 0.00011324
22590.0 0.00011142
22610.0 0.00010934
22630.0 0.00010708
22650.0 0.00010474
22670.0 0.00010216
22690.0 9.9405e-05
22710.0 9.6626e-05
22730.0 9.3763e-05
22750.0 9.066e-05
22770.0 8.7627e-05
22790.0 8.4666e-05
22810.0 8.1626e-05
22830.0 7.8595e-05
22850.0 7.5757e-05
22870.0 7.2975e-05
22890.0 7.0207e-05
22910.0 6.7658e-05
22930.0 6.5321e-05
