#lamb flux
1010.0 4.3888e-06
1030.0 4.8038e-06
1050.0 5.2335e-06
1070.0 5.7174e-06
1090.0 6.2808e-06
1110.0 6.8561e-06
1130.0 7.4336e-06
1150.0 8.038e-06
1170.0 8.6625e-06
1190.0 9.2582e-06
1210.0 9.8672e-06
1230.0 1.0504e-05
1250.0 1.1134e-05
1270.0 1.1758e-05
1290.0 1.2429e-05
1310.0 1.3112e-05
1330.0 1.3782e-05
1350.0 1.4471e-05
1370.0 1.5191e-05
1390.0 1.5902e-05
1410.0 1.66e-05
1430.0 1.7328e-05
1450.0 1.8057e-05
1470.0 1.8759e-05
1490.0 1.9462e-05
1510.0 2.0192e-05
1530.0 2.0875e-05
1550.0 2.1535e-05
1570.0 2.2201e-05
1590.0 2.285e-05
1610.0 2.345e-05
1630.0 2.4043e-05
1650.0 2.4632e-05
1670.0 2.5178e-05
1690.0 2.5693e-05
1710.0 2.621e-05
1730.0 2.6711e-05
1750.0 2.7155e-05
1770.0 2.76e-05
1790.0 2.8044e-05
1810.0 2.8458e-05
1830.0 2.8856e-05
1850.0 2.9288e-05
1870.0 2.9708e-05
1890.0 3.0115e-05
1910.0 3.0547e-05
1930.0 3.101e-05
1950.0 3.1466e-05
1970.0 3.1939e-05
1990.0 3.246e-05
2010.0 3.2999e-05
2030.0 3.3544e-05
2050.0 3.4132e-05
2070.0 3.476e-05
2090.0 3.5374e-05
2110.0 3.6003e-05
2130.0 3.6662e-05
2150.0 3.7317e-05
2170.0 3.7947e-05
2190.0 3.8595e-05
2210.0 3.9237e-05
2230.0 3.984e-05
2250.0 4.0422e-05
2270.0 4.1005e-05
2290.0 4.1543e-05
2310.0 4.2026e-05
2330.0 4.2496e-05
2350.0 4.2936e-05
2370.0 4.3318e-05
2390.0 4.367e-05
2410.0 4.4015e-05
2430.0 4.4308e-05
2450.0 4.4555e-05
2470.0 4.4787e-05
2490.0 4.5005e-05
2510.0 4.5199e-05
2530.0 4.5486e-05
2550.0 4.6041e-05
2570.0 4.7057e-05
2590.0 4.8778e-05
2610.0 5.1798e-05
2630.0 5.6312e-05
2650.0 6.2105e-05
2670.0 6.9266e-05
2690.0 7.7516e-05
2710.0 8.5595e-05
2730.0 9.2747e-05
2750.0 9.8743e-05
2770.0 0.00010254
2790.0 0.00010383
2810.0 0.00010278
2830.0 9.9362e-05
2850.0 9.4245e-05
2870.0 8.7902e-05
2890.0 8.044e-05
2910.0 7.2375e-05
2930.0 6.4269e-05
2950.0 5.5678e-05
2970.0 4.6756e-05
2990.0 3.7985e-05
3010.0 4.6163e-05
3030.0 3.1657e-05
3050.0 1.7076e-05
3070.0 5.1056e-06
3090.0 5.1056e-06
3110.0 5.1056e-06
3130.0 5.1056e-06
3150.0 5.1056e-06
3170.0 5.1056e-06
3190.0 5.1056e-06
3210.0 0.00016119
3230.0 0.00044835
3250.0 0.00060997
3270.0 0.00053526
3290.0 0.00040571
3310.0 0.0003214
3330.0 0.0002998
3350.0 0.00031447
3370.0 0.0003402
3390.0 0.0003671
3410.0 0.0003953
3430.0 0.00042974
3450.0 0.00046268
3470.0 0.00049688
3490.0 0.00050324
3510.0 0.00043891
3530.0 0.00041095
3550.0 0.00052553
3570.0 0.00066923
3590.0 0.00074482
3610.0 0.00077109
3630.0 0.00081742
3650.0 0.00081816
3670.0 0.00085251
3690.0 0.0010026
3710.0 0.0011654
3730.0 0.0012723
3750.0 0.0013384
3770.0 0.0013597
3790.0 0.0013186
3810.0 0.0012225
3830.0 0.0010701
3850.0 0.00084198
3870.0 0.0007486
3890.0 0.00084328
3910.0 0.0011171
3930.0 0.0013963
3950.0 0.0015266
3970.0 0.0015801
3990.0 0.001704
4010.0 0.0017619
4030.0 0.001593
4050.0 0.0012009
4070.0 0.001016
4090.0 0.0011379
4110.0 0.0012631
4130.0 0.0013491
4150.0 0.0013499
4170.0 0.0012979
4190.0 0.0012398
4210.0 0.00132
4230.0 0.0014177
4250.0 0.0015025
4270.0 0.0015065
4290.0 0.0014591
4310.0 0.0014662
4330.0 0.0016118
4350.0 0.0017743
4370.0 0.0017974
4390.0 0.0016761
4410.0 0.00149
4430.0 0.0012076
4450.0 0.0009976
4470.0 0.00099306
4490.0 0.0011021
4510.0 0.001201
4530.0 0.0012627
4550.0 0.001362
4570.0 0.0017708
4590.0 0.0024333
4610.0 0.0028915
4630.0 0.0030715
4650.0 0.0033401
4670.0 0.0037194
4690.0 0.003786
4710.0 0.0032799
4730.0 0.0025736
4750.0 0.0020201
4770.0 0.0016992
4790.0 0.0015485
4810.0 0.0015046
4830.0 0.0016351
4850.0 0.0019275
4870.0 0.0021526
4890.0 0.0022081
4910.0 0.0022187
4930.0 0.0024518
4950.0 0.0028256
4970.0 0.0030677
4990.0 0.0030452
5010.0 0.002743
5030.0 0.0022705
5050.0 0.0018411
5070.0 0.0015724
5090.0 0.0014708
5110.0 0.0014723
5130.0 0.0014917
5150.0 0.0014728
5170.0 0.0014018
5190.0 0.0013688
5210.0 0.0014358
5230.0 0.001636
5250.0 0.0019677
5270.0 0.0023193
5290.0 0.002558
5310.0 0.0027552
5330.0 0.0030418
5350.0 0.0032917
5370.0 0.0032897
5390.0 0.0030582
5410.0 0.0028496
5430.0 0.0029129
5450.0 0.0033404
5470.0 0.0039154
5490.0 0.0043552
5510.0 0.0045322
5530.0 0.0044992
5550.0 0.0043587
5570.0 0.004199
5590.0 0.0040459
5610.0 0.0039521
5630.0 0.0039516
5650.0 0.0039445
5670.0 0.0037546
5690.0 0.003387
5710.0 0.0030148
5730.0 0.0027771
5750.0 0.002714
5770.0 0.0028032
5790.0 0.0029023
5810.0 0.0029606
5830.0 0.002984
5850.0 0.002921
5870.0 0.0028319
5890.0 0.002832
5910.0 0.0029214
5930.0 0.0029459
5950.0 0.0027798
5970.0 0.0024583
5990.0 0.0020585
6010.0 0.0017458
6030.0 0.0016622
6050.0 0.001785
6070.0 0.0018754
6090.0 0.0017758
6110.0 0.0016297
6130.0 0.0016755
6150.0 0.0018738
6170.0 0.0020566
6190.0 0.0021679
6210.0 0.0022075
6230.0 0.0021667
6250.0 0.0019704
6270.0 0.0016615
6290.0 0.0014031
6310.0 0.0012959
6330.0 0.0013106
6350.0 0.0013554
6370.0 0.0014285
6390.0 0.0016356
6410.0 0.0019708
6430.0 0.0022685
6450.0 0.0024187
6470.0 0.0024853
6490.0 0.002523
6510.0 0.0025453
6530.0 0.0025673
6550.0 0.0025959
6570.0 0.0026613
6590.0 0.0027197
6610.0 0.0027125
6630.0 0.0025976
6650.0 0.0024022
6670.0 0.0022133
6690.0 0.0020861
6710.0 0.0019969
6730.0 0.0019139
6750.0 0.001882
6770.0 0.0019319
6790.0 0.002004
6810.0 0.0020369
6830.0 0.0020052
6850.0 0.0019087
6870.0 0.0018076
6890.0 0.0017631
6910.0 0.0017622
6930.0 0.0018052
6950.0 0.001852
6970.0 0.001888
6990.0 0.0018951
7010.0 0.0018333
7030.0 0.0016948
7050.0 0.0015197
7070.0 0.0014007
7090.0 0.001376
7110.0 0.0013881
7130.0 0.0013237
7150.0 0.0011964
7170.0 0.001168
7190.0 0.001291
7210.0 0.0014795
7230.0 0.0016411
7250.0 0.0017007
7270.0 0.0016616
7290.0 0.0015607
7310.0 0.0014769
7330.0 0.0014628
7350.0 0.0014881
7370.0 0.0015137
7390.0 0.0015866
7410.0 0.0017428
7430.0 0.0019394
7450.0 0.0021033
7470.0 0.0021596
7490.0 0.0020604
7510.0 0.0019016
7530.0 0.0017789
7550.0 0.0016632
7570.0 0.00154
7590.0 0.0014747
7610.0 0.0014764
7630.0 0.0015388
7650.0 0.0016552
7670.0 0.0017976
7690.0 0.0019203
7710.0 0.0020128
7730.0 0.0020917
7750.0 0.0021539
7770.0 0.002162
7790.0 0.002181
7810.0 0.0021795
7830.0 0.0021108
7850.0 0.0020305
7870.0 0.0019842
7890.0 0.0019931
7910.0 0.0019862
7930.0 0.0019358
7950.0 0.001856
7970.0 0.0017838
7990.0 0.0017151
8010.0 0.0016507
8030.0 0.0016527
8050.0 0.0016486
8070.0 0.0016225
8090.0 0.0016036
8110.0 0.0015669
8130.0 0.001564
8150.0 0.0015473
8170.0 0.0015129
8190.0 0.001469
8210.0 0.0014293
8230.0 0.0013872
8250.0 0.0013696
8270.0 0.0012767
8290.0 0.0010859
8310.0 0.00087215
8330.0 0.00072626
8350.0 0.00069213
8370.0 0.00078444
8390.0 0.00091126
8410.0 0.0009712
8430.0 0.00099854
8450.0 0.0010605
8470.0 0.0011441
8490.0 0.0012667
8510.0 0.0014144
8530.0 0.0015726
8550.0 0.0017004
8570.0 0.0017953
8590.0 0.0018653
8610.0 0.0019004
8630.0 0.0018889
8650.0 0.0018554
8670.0 0.0018544
8690.0 0.0019508
8710.0 0.0020828
8730.0 0.0021502
8750.0 0.0021353
8770.0 0.0021586
8790.0 0.0021552
8810.0 0.0020467
8830.0 0.0019007
8850.0 0.0017171
8870.0 0.0015749
8890.0 0.0015311
8910.0 0.0015114
8930.0 0.0014164
8950.0 0.0013086
8970.0 0.0012625
8990.0 0.0012607
9010.0 0.0012294
9030.0 0.0012052
9050.0 0.0011939
9070.0 0.0011882
9090.0 0.0011834
9110.0 0.0011786
9130.0 0.0011739
9150.0 0.0011693
9170.0 0.0011645
9190.0 0.0011608
9210.0 0.0011593
9230.0 0.0011535
9250.0 0.0011484
9270.0 0.0011437
9290.0 0.0011393
9310.0 0.001135
9330.0 0.0011308
9350.0 0.0011269
9370.0 0.001123
9390.0 0.0011191
9410.0 0.0011153
9430.0 0.0011113
9450.0 0.0011058
9470.0 0.0011008
9490.0 0.0010989
9510.0 0.0010961
9530.0 0.0010931
9550.0 0.00109
9570.0 0.0010867
9590.0 0.0010835
9610.0 0.0010802
9630.0 0.0010769
9650.0 0.0010737
9670.0 0.0010705
9690.0 0.0010673
9710.0 0.0010642
9730.0 0.0010611
9750.0 0.001058
9770.0 0.0010548
9790.0 0.0010517
9810.0 0.0010487
9830.0 0.0010456
9850.0 0.0010425
9870.0 0.0010395
9890.0 0.0010365
9910.0 0.0010334
9930.0 0.0010303
9950.0 0.0010222
9970.0 0.0010206
9990.0 0.0010186
10010.0 0.0010166
10030.0 0.0010141
10050.0 0.0010112
10070.0 0.0010083
10090.0 0.0010053
10110.0 0.0010019
10130.0 0.00099779
10150.0 0.0009947
10170.0 0.00099159
10190.0 0.00098804
10210.0 0.00098475
10230.0 0.00098146
10250.0 0.00097776
10270.0 0.00097404
10290.0 0.00097055
10310.0 0.0009667
10330.0 0.00096251
10350.0 0.00095865
10370.0 0.00095474
10390.0 0.00095044
10410.0 0.00094612
10430.0 0.0009421
10450.0 0.00093768
10470.0 0.00093301
10490.0 0.00092855
10510.0 0.00092403
10530.0 0.0009189
10550.0 0.0009139
10570.0 0.00090914
10590.0 0.00090398
10610.0 0.00089856
10630.0 0.00089341
10650.0 0.0008881
10670.0 0.00088225
10690.0 0.00087651
10710.0 0.00087089
10730.0 0.00086485
10750.0 0.0008584
10770.0 0.00085244
10790.0 0.00084623
10810.0 0.00083957
10830.0 0.00083298
10850.0 0.00082658
10870.0 0.00081945
10890.0 0.0008122
10910.0 0.00080518
10930.0 0.00079789
10950.0 0.00079005
10970.0 0.00078226
10990.0 0.00077465
11010.0 0.00083838
11030.0 0.0008298
11050.0 0.0008215
11070.0 0.00081301
11090.0 0.00080389
11110.0 0.00079538
11130.0 0.00078705
11150.0 0.0007784
11170.0 0.00076976
11190.0 0.00076164
11210.0 0.0007533
11230.0 0.00074475
11250.0 0.00073658
11270.0 0.00072864
11290.0 0.0007204
11310.0 0.00071226
11330.0 0.00070473
11350.0 0.00069702
11370.0 0.00068915
11390.0 0.00068152
11410.0 0.0006739
11430.0 0.00066561
11450.0 0.00065719
11470.0 0.00064868
11490.0 0.00063956
11510.0 0.00062963
11530.0 0.00061962
11550.0 0.0006092
11570.0 0.00059787
11590.0 0.00058619
11610.0 0.00057452
11630.0 0.00056213
11650.0 0.00054922
11670.0 0.00053676
11690.0 0.00052427
11710.0 0.00051143
11730.0 0.00049883
11750.0 0.00048687
11770.0 0.00047467
11790.0 0.00046255
11810.0 0.00045104
11830.0 0.00043978
11850.0 0.00042822
11870.0 0.00041724
11890.0 0.00040682
11910.0 0.00039635
11930.0 0.00038604
11950.0 0.00037637
11970.0 0.00036692
11990.0 0.00035745
12010.0 0.00034856
12030.0 0.00034023
12050.0 0.0003321
12070.0 0.0003243
12090.0 0.0003174
12110.0 0.00031092
12130.0 0.00030488
12150.0 0.00029955
12170.0 0.00029495
12190.0 0.00029083
12210.0 0.00028746
12230.0 0.00028487
12250.0 0.00028295
12270.0 0.00028175
12290.0 0.00028124
12310.0 0.00028132
12330.0 0.00028206
12350.0 0.00028338
12370.0 0.00028506
12390.0 0.00028718
12410.0 0.00028987
12430.0 0.0002926
12450.0 0.00029545
12470.0 0.00029855
12490.0 0.00030169
12510.0 0.00030458
12530.0 0.0003075
12550.0 0.00031034
12570.0 0.00031279
12590.0 0.00031487
12610.0 0.00031671
12630.0 0.00031806
12650.0 0.00031872
12670.0 0.0003189
12690.0 0.0003185
12710.0 0.00031741
12730.0 0.00031571
12750.0 0.00031335
12770.0 0.00031037
12790.0 0.00030687
12810.0 0.00030283
12830.0 0.00029827
12850.0 0.00029347
12870.0 0.00028844
12890.0 0.00028309
12910.0 0.00027768
12930.0 0.00027236
12950.0 0.00026692
12970.0 0.00026149
12990.0 0.00025635
13010.0 0.00025135
13030.0 0.0002464
13050.0 0.00024167
13070.0 0.00023721
13090.0 0.00023278
13110.0 0.00022848
13130.0 0.00022442
13150.0 0.00022048
13170.0 0.00021653
13190.0 0.0002128
13210.0 0.00020926
13230.0 0.00020576
13250.0 0.00020237
13270.0 0.00019918
13290.0 0.00019609
13310.0 0.00019306
13330.0 0.00019023
13350.0 0.00018759
13370.0 0.00018504
13390.0 0.00018264
13410.0 0.00018048
13430.0 0.00017846
13450.0 0.00017655
13470.0 0.0001748
13490.0 0.0001732
13510.0 0.00017164
13530.0 0.00017016
13550.0 0.00016876
13570.0 0.00016737
13590.0 0.00016595
13610.0 0.00016454
13630.0 0.00016311
13650.0 0.00016161
13670.0 0.00016007
13690.0 0.00015853
13710.0 0.00015694
13730.0 0.00015529
13750.0 0.0001537
13770.0 0.00015213
13790.0 0.00015057
13810.0 0.00014905
13830.0 0.00014763
13850.0 0.00014625
13870.0 0.00014492
13890.0 0.00014368
13910.0 0.00014252
13930.0 0.00014139
13950.0 0.00014031
13970.0 0.0001393
13990.0 0.0001383
14010.0 0.00013729
14030.0 0.00013629
14050.0 0.00013529
14070.0 0.0001342
14090.0 0.0001331
14110.0 0.00013198
14130.0 0.00013079
14150.0 0.00012953
14170.0 0.00012829
14190.0 0.00012703
14210.0 0.00012573
14230.0 0.00012446
14250.0 0.00012326
14270.0 0.00012206
14290.0 0.00012093
14310.0 0.00011994
14330.0 0.00011905
14350.0 0.00011825
14370.0 0.00011759
14390.0 0.00011706
14410.0 0.00011662
14430.0 0.00011628
14450.0 0.00011605
14470.0 0.00011588
14490.0 0.00011577
14510.0 0.00011572
14530.0 0.00011571
14550.0 0.00011573
14570.0 0.00011579
14590.0 0.00011589
14610.0 0.00011605
14630.0 0.00011628
14650.0 0.0001166
14670.0 0.00011704
14690.0 0.00011763
14710.0 0.0001184
14730.0 0.00011933
14750.0 0.00012048
14770.0 0.00012189
14790.0 0.00012353
14810.0 0.00012539
14830.0 0.00012764
14850.0 0.00013016
14870.0 0.00013288
14890.0 0.00013588
14910.0 0.00013916
14930.0 0.00014243
14950.0 0.00014562
14970.0 0.00014877
14990.0 0.00015159
15010.0 0.00015397
15030.0 0.00015596
15050.0 0.00015758
15070.0 0.00015878
15090.0 0.00015972
15110.0 0.0001605
15130.0 0.00016117
15150.0 0.00016178
15170.0 0.00016237
15190.0 0.00016296
15210.0 0.00016355
15230.0 0.00016416
15250.0 0.00016477
15270.0 0.0001654
15290.0 0.00016604
15310.0 0.00016669
15330.0 0.00016735
15350.0 0.00016802
15370.0 0.00016871
15390.0 0.0001694
15410.0 0.00017011
15430.0 0.00017083
15450.0 0.00017155
15470.0 0.00017229
15490.0 0.00017304
15510.0 0.0001738
15530.0 0.00017457
15550.0 0.00017535
15570.0 0.00017614
15590.0 0.00017693
15610.0 0.00017774
15630.0 0.00017855
15650.0 0.00017938
15670.0 0.00018021
15690.0 0.00018105
15710.0 0.00018189
15730.0 0.00018275
15750.0 0.00018361
15770.0 0.00018448
15790.0 0.00018536
15810.0 0.00018624
15830.0 0.00018713
15850.0 0.00018802
15870.0 0.00018892
15890.0 0.00018983
15910.0 0.00019074
15930.0 0.00019166
15950.0 0.00019258
15970.0 0.0001935
15990.0 0.00019443
16010.0 0.00019537
16030.0 0.0001963
16050.0 0.00019724
16070.0 0.00019818
16090.0 0.00019913
16110.0 0.00020008
16130.0 0.00020103
16150.0 0.00020197
16170.0 0.00020292
16190.0 0.00020388
16210.0 0.00020483
16230.0 0.00020578
16250.0 0.00020673
16270.0 0.00020769
16290.0 0.00020864
16310.0 0.00020958
16330.0 0.00021053
16350.0 0.00021148
16370.0 0.00021242
16390.0 0.00021336
16410.0 0.0002143
16430.0 0.00021523
16450.0 0.00021616
16470.0 0.00021709
16490.0 0.00021801
16510.0 0.00021892
16530.0 0.00021983
16550.0 0.00022074
16570.0 0.00022163
16590.0 0.00022252
16610.0 0.00022341
16630.0 0.00022429
16650.0 0.00022515
16670.0 0.00022602
16690.0 0.00022687
16710.0 0.00022771
16730.0 0.00022855
16750.0 0.00022937
16770.0 0.00023019
16790.0 0.00023099
16810.0 0.00023179
16830.0 0.00023257
16850.0 0.00023334
16870.0 0.0002341
16890.0 0.00023485
16910.0 0.00023559
16930.0 0.00023631
16950.0 0.00023702
16970.0 0.00023771
16990.0 0.00023839
17010.0 0.00023906
17030.0 0.00023972
17050.0 0.00024036
17070.0 0.00024098
17090.0 0.00024159
17110.0 0.00024218
17130.0 0.00024276
17150.0 0.00024332
17170.0 0.00024386
17190.0 0.00024439
17210.0 0.0002449
17230.0 0.00024539
17250.0 0.00024587
17270.0 0.00024632
17290.0 0.00024676
17310.0 0.00024719
17330.0 0.00024759
17350.0 0.00024797
17370.0 0.00024834
17390.0 0.00024868
17410.0 0.00024901
17430.0 0.00024932
17450.0 0.0002496
17470.0 0.00024987
17490.0 0.00025012
17510.0 0.00025035
17530.0 0.00025056
17550.0 0.00025074
17570.0 0.00025091
17590.0 0.00025106
17610.0 0.00025118
17630.0 0.00025129
17650.0 0.00025137
17670.0 0.00025144
17690.0 0.00025148
17710.0 0.0002515
17730.0 0.0002515
17750.0 0.00025148
17770.0 0.00025144
17790.0 0.00025138
17810.0 0.0002513
17830.0 0.0002512
17850.0 0.00025107
17870.0 0.00025093
17890.0 0.00025076
17910.0 0.00025057
17930.0 0.00025037
17950.0 0.00025014
17970.0 0.00024989
17990.0 0.00024962
18010.0 0.00024934
18030.0 0.00024903
18050.0 0.0002487
18070.0 0.00024835
18090.0 0.00024798
18110.0 0.00024759
18130.0 0.00024719
18150.0 0.00024676
18170.0 0.00024631
18190.0 0.00024585
18210.0 0.00024537
18230.0 0.00024486
18250.0 0.00024434
18270.0 0.0002438
18290.0 0.00024325
18310.0 0.00024267
18330.0 0.00024208
18350.0 0.00024147
18370.0 0.00024085
18390.0 0.0002402
18410.0 0.00023954
18430.0 0.00023887
18450.0 0.00023818
18470.0 0.00023747
18490.0 0.00023675
18510.0 0.00023601
18530.0 0.00023525
18550.0 0.00023449
18570.0 0.00023371
18590.0 0.00023291
18610.0 0.0002321
18630.0 0.00023128
18650.0 0.00023044
18670.0 0.00022959
18690.0 0.00022873
18710.0 0.00022786
18730.0 0.00022697
18750.0 0.00022607
18770.0 0.00022516
18790.0 0.00022424
18810.0 0.00022331
18830.0 0.00022237
18850.0 0.00022142
18870.0 0.00022046
18890.0 0.00021949
18910.0 0.00021851
18930.0 0.00021752
18950.0 0.00021652
18970.0 0.00021552
18990.0 0.0002145
19010.0 0.00021348
19030.0 0.00021245
19050.0 0.00021142
19070.0 0.00021037
19090.0 0.00020933
19110.0 0.00020827
19130.0 0.00020721
19150.0 0.00020615
19170.0 0.00020508
19190.0 0.000204
19210.0 0.00020292
19230.0 0.00020184
19250.0 0.00020075
19270.0 0.00019966
19290.0 0.00019856
19310.0 0.00019746
19330.0 0.00019636
19350.0 0.00019525
19370.0 0.00019415
19390.0 0.00019304
19410.0 0.00019193
19430.0 0.00019082
19450.0 0.0001897
19470.0 0.00018859
19490.0 0.00018747
19510.0 0.00018636
19530.0 0.00018524
19550.0 0.00018413
19570.0 0.00018301
19590.0 0.0001819
19610.0 0.00018078
19630.0 0.00017967
19650.0 0.00017855
19670.0 0.00017744
19690.0 0.00017633
19710.0 0.00017522
19730.0 0.00017412
19750.0 0.00017301
19770.0 0.00017191
19790.0 0.00017081
19810.0 0.00016971
19830.0 0.00016861
19850.0 0.00016751
19870.0 0.00016639
19890.0 0.00016524
19910.0 0.00016404
19930.0 0.00016274
19950.0 0.0001613
19970.0 0.00015964
19990.0 0.00015772
20010.0 0.00015557
20030.0 0.00015311
20050.0 0.00015035
20070.0 0.00014744
20090.0 0.0001444
20110.0 0.00014112
20130.0 0.00013789
20150.0 0.00013474
20170.0 0.00013158
20190.0 0.00012845
20210.0 0.00012551
20230.0 0.00012266
20250.0 0.00011983
20270.0 0.00011717
20290.0 0.00011468
20310.0 0.00011227
20330.0 0.00010995
20350.0 0.00010786
20370.0 0.00010588
20390.0 0.000104
20410.0 0.00010227
20430.0 0.00010069
20450.0 9.9181e-05
20470.0 9.7793e-05
20490.0 9.6538e-05
20510.0 9.5377e-05
20530.0 9.4293e-05
20550.0 9.3308e-05
20570.0 9.2408e-05
20590.0 9.1565e-05
20610.0 9.0782e-05
20630.0 9.0055e-05
20650.0 8.9369e-05
20670.0 8.8713e-05
20690.0 8.8087e-05
20710.0 8.7478e-05
20730.0 8.6877e-05
20750.0 8.6279e-05
20770.0 8.5677e-05
20790.0 8.5066e-05
20810.0 8.4437e-05
20830.0 8.3791e-05
20850.0 8.3125e-05
20870.0 8.2429e-05
20890.0 8.1704e-05
20910.0 8.0963e-05
20930.0 8.0193e-05
20950.0 7.9391e-05
20970.0 7.8576e-05
20990.0 7.7747e-05
21010.0 7.6883e-05
21030.0 7.6009e-05
21050.0 7.5136e-05
21070.0 7.4249e-05
21090.0 7.3342e-05
21110.0 7.2455e-05
21130.0 7.1574e-05
21150.0 7.0682e-05
21170.0 6.9801e-05
21190.0 6.8946e-05
21210.0 6.8086e-05
21230.0 6.7231e-05
21250.0 6.6409e-05
21270.0 6.5605e-05
21290.0 6.4805e-05
21310.0 6.403e-05
21330.0 6.3292e-05
21350.0 6.2563e-05
21370.0 6.1854e-05
21390.0 6.1181e-05
21410.0 6.0534e-05
21430.0 5.9898e-05
21450.0 5.93e-05
21470.0 5.8737e-05
21490.0 5.8195e-05
21510.0 5.768e-05
21530.0 5.72e-05
21550.0 5.6744e-05
21570.0 5.6311e-05
21590.0 5.5906e-05
21610.0 5.5526e-05
21630.0 5.5167e-05
21650.0 5.4828e-05
21670.0 5.4509e-05
21690.0 5.4206e-05
21710.0 5.3919e-05
21730.0 5.3646e-05
21750.0 5.3383e-05
21770.0 5.3133e-05
21790.0 5.2892e-05
21810.0 5.2658e-05
21830.0 5.243e-05
21850.0 5.221e-05
21870.0 5.1992e-05
21890.0 5.1775e-05
21910.0 5.1562e-05
21930.0 5.135e-05
21950.0 5.1134e-05
21970.0 5.0918e-05
21990.0 5.07e-05
22010.0 5.0476e-05
22030.0 5.0246e-05
22050.0 5.0011e-05
22070.0 4.9769e-05
22090.0 4.9521e-05
22110.0 4.9265e-05
22130.0 4.9002e-05
22150.0 4.8732e-05
22170.0 4.8455e-05
22190.0 4.817e-05
22210.0 4.7877e-05
22230.0 4.758e-05
22250.0 4.7275e-05
22270.0 4.6961e-05
22290.0 4.6641e-05
22310.0 4.6314e-05
22330.0 4.5971e-05
22350.0 4.5618e-05
22370.0 4.5257e-05
22390.0 4.4877e-05
22410.0 4.4473e-05
22430.0 4.4061e-05
22450.0 4.3631e-05
22470.0 4.3171e-05
22490.0 4.2692e-05
22510.0 4.2202e-05
22530.0 4.1678e-05
22550.0 4.1124e-05
22570.0 4.0568e-05
22590.0 3.9995e-05
22610.0 3.9394e-05
22630.0 3.8787e-05
22650.0 3.8192e-05
22670.0 3.7577e-05
22690.0 3.6957e-05
22710.0 3.6358e-05
22730.0 3.5769e-05
22750.0 3.5166e-05
22770.0 3.4598e-05
22790.0 3.406e-05
22810.0 3.3531e-05
22830.0 3.3022e-05
22850.0 3.2553e-05
22870.0 3.2105e-05
22890.0 3.167e-05
22910.0 3.127e-05
22930.0 3.09e-05
22950.0 3.0544e-05
22970.0 3.0206e-05
