#lamb flux
1010.0 1.3774e-05
1030.0 1.4397e-05
1050.0 1.5116e-05
1070.0 1.5927e-05
1090.0 1.6849e-05
1110.0 1.7797e-05
1130.0 1.8755e-05
1150.0 1.976e-05
1170.0 2.0801e-05
1190.0 2.1793e-05
1210.0 2.2802e-05
1230.0 2.3849e-05
1250.0 2.488e-05
1270.0 2.5888e-05
1290.0 2.6957e-05
1310.0 2.8031e-05
1330.0 2.907e-05
1350.0 3.0126e-05
1370.0 3.1222e-05
1390.0 3.2299e-05
1410.0 3.3354e-05
1430.0 3.4461e-05
1450.0 3.5576e-05
1470.0 3.6664e-05
1490.0 3.7771e-05
1510.0 3.8942e-05
1530.0 4.0064e-05
1550.0 4.1178e-05
1570.0 4.2334e-05
1590.0 4.3495e-05
1610.0 4.4613e-05
1630.0 4.5766e-05
1650.0 4.6949e-05
1670.0 4.8097e-05
1690.0 4.923e-05
1710.0 5.0401e-05
1730.0 5.1575e-05
1750.0 5.2678e-05
1770.0 5.3805e-05
1790.0 5.4945e-05
1810.0 5.604e-05
1830.0 5.7106e-05
1850.0 5.8223e-05
1870.0 5.9298e-05
1890.0 6.0323e-05
1910.0 6.1354e-05
1930.0 6.2395e-05
1950.0 6.3373e-05
1970.0 6.4324e-05
1990.0 6.53e-05
2010.0 6.6247e-05
2030.0 6.7145e-05
2050.0 6.8067e-05
2070.0 6.901e-05
2090.0 6.989e-05
2110.0 7.0768e-05
2130.0 7.1682e-05
2150.0 7.2586e-05
2170.0 7.346e-05
2190.0 7.439e-05
2210.0 7.5351e-05
2230.0 7.63e-05
2250.0 7.7281e-05
2270.0 7.8347e-05
2290.0 7.9427e-05
2310.0 8.0518e-05
2330.0 8.1699e-05
2350.0 8.2952e-05
2370.0 8.4234e-05
2390.0 8.5602e-05
2410.0 8.71e-05
2430.0 8.8649e-05
2450.0 9.0251e-05
2470.0 9.1939e-05
2490.0 9.3669e-05
2510.0 9.5372e-05
2530.0 9.7185e-05
2550.0 9.9342e-05
2570.0 0.0001022
2590.0 0.00010629
2610.0 0.00011274
2630.0 0.00012227
2650.0 0.00013487
2670.0 0.00015106
2690.0 0.00017083
2710.0 0.00019226
2730.0 0.00021424
2750.0 0.00023716
2770.0 0.00025943
2790.0 0.00028038
2810.0 0.00030099
2830.0 0.00032215
2850.0 0.00034269
2870.0 0.00036366
2890.0 0.00038591
2910.0 0.00040902
2930.0 0.00043232
2950.0 0.00045704
2970.0 0.000483
2990.0 0.00050918
3010.0 0.00094669
3030.0 0.00099613
3050.0 0.001046
3070.0 0.0010928
3090.0 0.0011366
3110.0 0.0011709
3130.0 0.0011871
3150.0 0.0011767
3170.0 0.0011223
3190.0 0.0010188
3210.0 0.00086644
3230.0 0.00068972
3250.0 0.00082063
3270.0 0.00050609
3290.0 0.00086313
3310.0 0.00038198
3330.0 0.00040879
3350.0 0.00050084
3370.0 0.00060152
3390.0 0.00070632
3410.0 0.00081061
3430.0 0.00091834
3450.0 0.0010254
3470.0 0.0011251
3490.0 0.0011931
3510.0 0.0013791
3530.0 0.0017474
3550.0 0.0018777
3570.0 0.0018726
3590.0 0.0024628
3610.0 0.0020409
3630.0 0.0025718
3650.0 0.0026903
3670.0 0.0031789
3690.0 0.0032598
3710.0 0.0029246
3730.0 0.0035879
3750.0 0.0037391
3770.0 0.0038003
3790.0 0.0035176
3810.0 0.0030502
3830.0 0.0033066
3850.0 0.0031474
3870.0 0.0036895
3890.0 0.003773
3910.0 0.0039357
3930.0 0.0044772
3950.0 0.0049728
3970.0 0.0061788
3990.0 0.0058028
4010.0 0.0048923
4030.0 0.0054404
4050.0 0.0052818
4070.0 0.0055274
4090.0 0.0052423
4110.0 0.004341
4130.0 0.0050029
4150.0 0.0046711
4170.0 0.004856
4190.0 0.0048372
4210.0 0.0054833
4230.0 0.0045428
4250.0 0.0051658
4270.0 0.0051595
4290.0 0.0052294
4310.0 0.0058988
4330.0 0.0061388
4350.0 0.0054951
4370.0 0.0051549
4390.0 0.0053973
4410.0 0.0050756
4430.0 0.0041112
4450.0 0.003984
4470.0 0.0043107
4490.0 0.0037624
4510.0 0.0043294
4530.0 0.0047381
4550.0 0.0059866
4570.0 0.008255
4590.0 0.00904
4610.0 0.0080994
4630.0 0.010424
4650.0 0.012875
4670.0 0.012435
4690.0 0.0094685
4710.0 0.0092888
4730.0 0.009762
4750.0 0.0084148
4770.0 0.0067416
4790.0 0.0054062
4810.0 0.0066892
4830.0 0.0075427
4850.0 0.007658
4870.0 0.0053709
4890.0 0.0082782
4910.0 0.0098691
4930.0 0.010651
4950.0 0.011477
4970.0 0.0099626
4990.0 0.010786
5010.0 0.010828
5030.0 0.010117
5050.0 0.0090638
5070.0 0.0068951
5090.0 0.0059561
5110.0 0.0057048
5130.0 0.0053494
5150.0 0.0058706
5170.0 0.0054215
5190.0 0.0061485
5210.0 0.0061946
5230.0 0.0067042
5250.0 0.0082018
5270.0 0.0080214
5290.0 0.0083353
5310.0 0.010442
5330.0 0.011664
5350.0 0.011005
5370.0 0.010425
5390.0 0.010795
5410.0 0.01185
5430.0 0.01254
5450.0 0.013773
5470.0 0.015065
5490.0 0.016081
5510.0 0.018267
5530.0 0.018837
5550.0 0.019308
5570.0 0.019549
5590.0 0.019228
5610.0 0.018685
5630.0 0.018396
5650.0 0.018583
5670.0 0.018401
5690.0 0.016536
5710.0 0.015389
5730.0 0.014544
5750.0 0.014702
5770.0 0.013361
5790.0 0.012938
5810.0 0.013397
5830.0 0.013928
5850.0 0.013164
5870.0 0.012831
5890.0 0.013757
5910.0 0.013285
5930.0 0.012018
5950.0 0.011146
5970.0 0.011168
5990.0 0.010075
6010.0 0.0091085
6030.0 0.008819
6050.0 0.0084232
6070.0 0.0073155
6090.0 0.0069722
6110.0 0.0078449
6130.0 0.0084404
6150.0 0.0089292
6170.0 0.0093197
6190.0 0.0095897
6210.0 0.0097427
6230.0 0.010371
6250.0 0.0095646
6270.0 0.0085903
6290.0 0.007609
6310.0 0.0069254
6330.0 0.0065032
6350.0 0.0060088
6370.0 0.0061446
6390.0 0.0070756
6410.0 0.0085283
6430.0 0.0099657
6450.0 0.010381
6470.0 0.010839
6490.0 0.012363
6510.0 0.013298
6530.0 0.012925
6550.0 0.012767
6570.0 0.012928
6590.0 0.012639
6610.0 0.013197
6630.0 0.012735
6650.0 0.011909
6670.0 0.011003
6690.0 0.01028
6710.0 0.010992
6730.0 0.010298
6750.0 0.0096728
6770.0 0.0094164
6790.0 0.0097828
6810.0 0.010266
6830.0 0.010033
6850.0 0.0094344
6870.0 0.0093783
6890.0 0.0090396
6910.0 0.0085835
6930.0 0.0092635
6950.0 0.0090238
6970.0 0.0089966
6990.0 0.0092073
7010.0 0.0089639
7030.0 0.0084136
7050.0 0.0077608
7070.0 0.0075
7090.0 0.0068635
7110.0 0.0062027
7130.0 0.0055075
7150.0 0.0051744
7170.0 0.0059611
7190.0 0.0062918
7210.0 0.0063919
7230.0 0.0068899
7250.0 0.0069442
7270.0 0.0069048
7290.0 0.0071381
7310.0 0.0072806
7330.0 0.0069713
7350.0 0.006654
7370.0 0.0065714
7390.0 0.0069338
7410.0 0.0078551
7430.0 0.0086599
7450.0 0.0095281
7470.0 0.0099001
7490.0 0.010149
7510.0 0.0097119
7530.0 0.0093319
7550.0 0.0086399
7570.0 0.0074919
7590.0 0.0071915
7610.0 0.0071154
7630.0 0.0071459
7650.0 0.0080075
7670.0 0.0088401
7690.0 0.0096399
7710.0 0.010523
7730.0 0.011188
7750.0 0.011705
7770.0 0.011791
7790.0 0.012484
7810.0 0.012844
7830.0 0.012423
7850.0 0.012487
7870.0 0.011967
7890.0 0.012007
7910.0 0.011357
7930.0 0.011246
7950.0 0.010491
7970.0 0.010676
7990.0 0.01042
8010.0 0.010234
8030.0 0.010229
8050.0 0.01061
8070.0 0.010351
8090.0 0.010367
8110.0 0.010032
8130.0 0.0099984
8150.0 0.0096532
8170.0 0.0093817
8190.0 0.009259
8210.0 0.0093276
8230.0 0.008527
8250.0 0.0078828
8270.0 0.0068848
8290.0 0.0056255
8310.0 0.0045833
8330.0 0.0035974
8350.0 0.003097
8370.0 0.003331
8390.0 0.0036269
8410.0 0.0039474
8430.0 0.0045974
8450.0 0.0048798
8470.0 0.0051202
8490.0 0.0057582
8510.0 0.0063314
8530.0 0.0073313
8550.0 0.0086547
8570.0 0.0097683
8590.0 0.010632
8610.0 0.011526
8630.0 0.012381
8650.0 0.012538
8670.0 0.012612
8690.0 0.013048
8710.0 0.013074
8730.0 0.013144
8750.0 0.012681
8770.0 0.012693
8790.0 0.012508
8810.0 0.011604
8830.0 0.011449
8850.0 0.010812
8870.0 0.010384
8890.0 0.0097245
8910.0 0.010162
8930.0 0.0094481
8950.0 0.0091953
8970.0 0.0091293
8990.0 0.0088648
9010.0 0.0088656
9030.0 0.0085797
9050.0 0.008531
9070.0 0.0085131
9090.0 0.0084944
9110.0 0.0084776
9130.0 0.0084568
9150.0 0.0084343
9170.0 0.0083963
9190.0 0.0083347
9210.0 0.0084
9230.0 0.0083557
9250.0 0.0083214
9270.0 0.0082888
9290.0 0.0082571
9310.0 0.0082262
9330.0 0.0081954
9350.0 0.0081642
9370.0 0.0081326
9390.0 0.0081005
9410.0 0.0080679
9430.0 0.0080343
9450.0 0.0079991
9470.0 0.0079639
9490.0 0.0079305
9510.0 0.007896
9530.0 0.0078611
9550.0 0.0078254
9570.0 0.0077893
9590.0 0.007753
9610.0 0.0077164
9630.0 0.0076794
9650.0 0.0076422
9670.0 0.0076051
9690.0 0.0075677
9710.0 0.0075301
9730.0 0.0074926
9750.0 0.007455
9770.0 0.0074173
9790.0 0.0073797
9810.0 0.0073421
9830.0 0.0073045
9850.0 0.007267
9870.0 0.0072297
9890.0 0.0071924
9910.0 0.0071551
9930.0 0.0071177
9950.0 0.007049
9970.0 0.0070217
9990.0 0.0069928
10010.0 0.0069633
10030.0 0.0069313
10050.0 0.0068965
10070.0 0.0068579
10090.0 0.0068258
10110.0 0.0067917
10130.0 0.0067584
10150.0 0.0067253
10170.0 0.0066912
10190.0 0.0066561
10210.0 0.0066229
10230.0 0.0065904
10250.0 0.0065569
10270.0 0.0065239
10290.0 0.0064926
10310.0 0.0064604
10330.0 0.0064274
10350.0 0.0063964
10370.0 0.0063659
10390.0 0.0063344
10410.0 0.0063035
10430.0 0.0062745
10450.0 0.0062446
10470.0 0.0062143
10490.0 0.0061856
10510.0 0.0061573
10530.0 0.0061273
10550.0 0.0060986
10570.0 0.0060716
10590.0 0.0060437
10610.0 0.0060155
10630.0 0.005989
10650.0 0.0059627
10670.0 0.005935
10690.0 0.0059085
10710.0 0.0058832
10730.0 0.0058569
10750.0 0.0058299
10770.0 0.0058054
10790.0 0.0057807
10810.0 0.005755
10830.0 0.0057301
10850.0 0.0057063
10870.0 0.00568
10890.0 0.0056527
10910.0 0.0056248
10930.0 0.0055932
10950.0 0.0055543
10970.0 0.0055091
10990.0 0.0054574
11010.0 0.0051695
11030.0 0.0051016
11050.0 0.0050277
11070.0 0.004946
11090.0 0.0048534
11110.0 0.0047627
11130.0 0.0046723
11150.0 0.0045782
11170.0 0.0044848
11190.0 0.0043974
11210.0 0.0043093
11230.0 0.0042206
11250.0 0.0041377
11270.0 0.0040591
11290.0 0.00398
11310.0 0.0039047
11330.0 0.0038382
11350.0 0.0037738
11370.0 0.0037119
11390.0 0.0036564
11410.0 0.0036053
11430.0 0.0035537
11450.0 0.0035059
11470.0 0.0034614
11490.0 0.0034164
11510.0 0.0033694
11530.0 0.003324
11550.0 0.0032775
11570.0 0.0032262
11590.0 0.0031726
11610.0 0.0031184
11630.0 0.0030584
11650.0 0.0029932
11670.0 0.002929
11690.0 0.0028628
11710.0 0.0027922
11730.0 0.0027219
11750.0 0.002655
11770.0 0.002586
11790.0 0.0025176
11810.0 0.0024544
11830.0 0.0023941
11850.0 0.0023335
11870.0 0.0022788
11890.0 0.0022298
11910.0 0.0021826
11930.0 0.0021381
11950.0 0.0020991
11970.0 0.0020624
11990.0 0.0020263
12010.0 0.0019938
12030.0 0.0019642
12050.0 0.0019351
12070.0 0.0019067
12090.0 0.0018822
12110.0 0.0018585
12130.0 0.0018354
12150.0 0.0018149
12170.0 0.0017971
12190.0 0.0017801
12210.0 0.0017662
12230.0 0.0017564
12250.0 0.0017501
12270.0 0.0017478
12290.0 0.0017508
12310.0 0.0017589
12330.0 0.0017725
12350.0 0.0017919
12370.0 0.0018164
12390.0 0.0018463
12410.0 0.0018825
12430.0 0.0019217
12450.0 0.0019639
12470.0 0.0020097
12490.0 0.0020571
12510.0 0.0021036
12530.0 0.0021508
12550.0 0.0021977
12570.0 0.0022415
12590.0 0.0022826
12610.0 0.0023216
12630.0 0.002357
12650.0 0.0023875
12670.0 0.0024148
12690.0 0.0024384
12710.0 0.0024577
12730.0 0.0024732
12750.0 0.0024852
12770.0 0.0024933
12790.0 0.0024983
12810.0 0.0024999
12830.0 0.002498
12850.0 0.0024939
12870.0 0.0024872
12890.0 0.0024773
12910.0 0.0024652
12930.0 0.0024517
12950.0 0.0024351
12970.0 0.0024158
12990.0 0.002396
13010.0 0.0023742
13030.0 0.0023496
13050.0 0.0023237
13070.0 0.0022976
13090.0 0.0022687
13110.0 0.0022383
13130.0 0.0022084
13150.0 0.0021781
13170.0 0.0021462
13190.0 0.0021165
13210.0 0.0020894
13230.0 0.0020636
13250.0 0.0020405
13270.0 0.0020221
13290.0 0.0020072
13310.0 0.001996
13330.0 0.0019899
13350.0 0.001988
13370.0 0.0019897
13390.0 0.0019946
13410.0 0.0020017
13430.0 0.0020099
13450.0 0.0020183
13470.0 0.0020254
13490.0 0.0020305
13510.0 0.0020323
13530.0 0.0020302
13550.0 0.002024
13570.0 0.0020133
13590.0 0.0019976
13610.0 0.0019784
13630.0 0.0019565
13650.0 0.0019307
13670.0 0.001903
13690.0 0.001875
13710.0 0.0018461
13730.0 0.001816
13750.0 0.0017883
13770.0 0.0017621
13790.0 0.0017363
13810.0 0.0017124
13830.0 0.001691
13850.0 0.0016704
13870.0 0.0016509
13890.0 0.0016334
13910.0 0.0016171
13930.0 0.0016012
13950.0 0.0015862
13970.0 0.0015728
13990.0 0.0015595
14010.0 0.0015468
14030.0 0.0015351
14050.0 0.0015242
14070.0 0.0015136
14090.0 0.001504
14110.0 0.0014954
14130.0 0.0014875
14150.0 0.0014804
14170.0 0.0014744
14190.0 0.0014692
14210.0 0.0014648
14230.0 0.0014614
14250.0 0.0014588
14270.0 0.0014572
14290.0 0.0014566
14310.0 0.0014567
14330.0 0.0014577
14350.0 0.0014596
14370.0 0.0014621
14390.0 0.0014649
14410.0 0.0014683
14430.0 0.0014718
14450.0 0.001475
14470.0 0.0014779
14490.0 0.0014807
14510.0 0.0014827
14530.0 0.0014838
14550.0 0.0014846
14570.0 0.0014848
14590.0 0.0014845
14610.0 0.0014842
14630.0 0.0014842
14650.0 0.0014845
14670.0 0.0014856
14690.0 0.001488
14710.0 0.0014922
14730.0 0.0014976
14750.0 0.0015052
14770.0 0.0015155
14790.0 0.0015277
14810.0 0.0015419
14830.0 0.0015598
14850.0 0.0015798
14870.0 0.0016009
14890.0 0.0016238
14910.0 0.0016483
14930.0 0.0016714
14950.0 0.0016923
14970.0 0.0017115
14990.0 0.0017264
15010.0 0.001736
15030.0 0.0017413
15050.0 0.0017423
15070.0 0.0017391
15090.0 0.0017333
15110.0 0.0017256
15130.0 0.0017168
15150.0 0.0017074
15170.0 0.0016977
15190.0 0.0016877
15210.0 0.0016777
15230.0 0.0016677
15250.0 0.0016577
15270.0 0.0016476
15290.0 0.0016376
15310.0 0.0016276
15330.0 0.0016176
15350.0 0.0016076
15370.0 0.0015977
15390.0 0.0015876
15410.0 0.0015776
15430.0 0.0015677
15450.0 0.0015578
15470.0 0.0015479
15490.0 0.001538
15510.0 0.0015282
15530.0 0.0015183
15550.0 0.0015086
15570.0 0.0014988
15590.0 0.0014891
15610.0 0.0014793
15630.0 0.0014697
15650.0 0.0014601
15670.0 0.0014505
15690.0 0.001441
15710.0 0.0014315
15730.0 0.001422
15750.0 0.0014126
15770.0 0.0014033
15790.0 0.001394
15810.0 0.0013846
15830.0 0.0013754
15850.0 0.0013663
15870.0 0.0013571
15890.0 0.0013481
15910.0 0.0013391
15930.0 0.0013301
15950.0 0.0013212
15970.0 0.0013124
15990.0 0.0013036
16010.0 0.0012948
16030.0 0.0012861
16050.0 0.0012776
16070.0 0.001269
16090.0 0.0012605
16110.0 0.0012521
16130.0 0.0012437
16150.0 0.0012354
16170.0 0.0012271
16190.0 0.0012189
16210.0 0.0012108
16230.0 0.0012027
16250.0 0.0011947
16270.0 0.0011868
16290.0 0.0011789
16310.0 0.0011711
16330.0 0.0011634
16350.0 0.0011557
16370.0 0.001148
16390.0 0.0011405
16410.0 0.001133
16430.0 0.0011256
16450.0 0.0011182
16470.0 0.001111
16490.0 0.0011037
16510.0 0.0010965
16530.0 0.0010895
16550.0 0.0010825
16570.0 0.0010755
16590.0 0.0010685
16610.0 0.0010617
16630.0 0.001055
16650.0 0.0010482
16670.0 0.0010416
16690.0 0.0010351
16710.0 0.0010285
16730.0 0.001022
16750.0 0.0010157
16770.0 0.0010094
16790.0 0.0010031
16810.0 0.00099689
16830.0 0.00099077
16850.0 0.00098467
16870.0 0.00097866
16890.0 0.00097275
16910.0 0.00096683
16930.0 0.00096096
16950.0 0.00095522
16970.0 0.00094953
16990.0 0.00094385
17010.0 0.00093827
17030.0 0.00093278
17050.0 0.00092729
17070.0 0.00092186
17090.0 0.00091653
17110.0 0.00091125
17130.0 0.00090596
17150.0 0.00090078
17170.0 0.00089569
17190.0 0.00089061
17210.0 0.00088558
17230.0 0.00088066
17250.0 0.00087576
17270.0 0.00087087
17290.0 0.00086608
17310.0 0.00086137
17330.0 0.00085666
17350.0 0.00085199
17370.0 0.00084745
17390.0 0.00084292
17410.0 0.00083842
17430.0 0.000834
17450.0 0.00082966
17470.0 0.00082528
17490.0 0.00082099
17510.0 0.00081679
17530.0 0.0008126
17550.0 0.00080844
17570.0 0.00080437
17590.0 0.00080036
17610.0 0.00079634
17630.0 0.00079239
17650.0 0.00078852
17670.0 0.00078466
17690.0 0.00078079
17710.0 0.00077706
17730.0 0.00077335
17750.0 0.00076966
17770.0 0.00076602
17790.0 0.00076246
17810.0 0.0007589
17830.0 0.00075536
17850.0 0.00075191
17870.0 0.0007485
17890.0 0.00074508
17910.0 0.00074172
17930.0 0.00073845
17950.0 0.00073518
17970.0 0.00073193
17990.0 0.00072877
18010.0 0.00072563
18030.0 0.00072247
18050.0 0.00071939
18070.0 0.00071638
18090.0 0.00071336
18110.0 0.00071036
18130.0 0.00070746
18150.0 0.00070457
18170.0 0.00070168
18190.0 0.00069885
18210.0 0.00069608
18230.0 0.00069329
18250.0 0.00069053
18270.0 0.00068786
18290.0 0.0006852
18310.0 0.00068254
18330.0 0.00067994
18350.0 0.0006774
18370.0 0.00067483
18390.0 0.0006723
18410.0 0.00066984
18430.0 0.00066739
18450.0 0.00066492
18470.0 0.00066253
18490.0 0.00066019
18510.0 0.00065784
18530.0 0.00065551
18550.0 0.00065326
18570.0 0.000651
18590.0 0.00064873
18610.0 0.00064653
18630.0 0.00064437
18650.0 0.00064219
18670.0 0.00064004
18690.0 0.00063796
18710.0 0.00063588
18730.0 0.0006338
18750.0 0.00063178
18770.0 0.0006298
18790.0 0.00062777
18810.0 0.00062579
18830.0 0.00062387
18850.0 0.00062195
18870.0 0.00062002
18890.0 0.00061817
18910.0 0.00061633
18930.0 0.00061447
18950.0 0.00061265
18970.0 0.00061088
18990.0 0.0006091
19010.0 0.00060729
19030.0 0.00060558
19050.0 0.00060388
19070.0 0.00060216
19090.0 0.00060048
19110.0 0.00059886
19130.0 0.00059719
19150.0 0.00059554
19170.0 0.00059395
19190.0 0.00059237
19210.0 0.00059077
19230.0 0.0005892
19250.0 0.00058769
19270.0 0.00058616
19290.0 0.00058463
19310.0 0.00058316
19330.0 0.0005817
19350.0 0.00058019
19370.0 0.00057874
19390.0 0.00057733
19410.0 0.0005759
19430.0 0.00057447
19450.0 0.0005731
19470.0 0.00057174
19490.0 0.00057035
19510.0 0.000569
19530.0 0.00056769
19550.0 0.00056634
19570.0 0.00056499
19590.0 0.00056372
19610.0 0.00056244
19630.0 0.00056114
19650.0 0.00055988
19670.0 0.00055866
19690.0 0.00055739
19710.0 0.00055614
19730.0 0.00055494
19750.0 0.00055374
19770.0 0.0005525
19790.0 0.00055132
19810.0 0.00055016
19830.0 0.00054896
19850.0 0.00054776
19870.0 0.00054656
19890.0 0.00054524
19910.0 0.00054372
19930.0 0.00054197
19950.0 0.00053981
19970.0 0.00053694
19990.0 0.00053327
20010.0 0.0005289
20030.0 0.00052345
20050.0 0.00051693
20070.0 0.0005098
20090.0 0.00050208
20110.0 0.00049333
20130.0 0.00048449
20150.0 0.00047575
20170.0 0.00046669
20190.0 0.00045752
20210.0 0.00044884
20230.0 0.00044037
20250.0 0.00043184
20270.0 0.00042388
20290.0 0.00041656
20310.0 0.00040955
20330.0 0.00040294
20350.0 0.00039741
20370.0 0.00039246
20390.0 0.00038809
20410.0 0.00038456
20430.0 0.00038187
20450.0 0.00037978
20470.0 0.00037848
20490.0 0.00037795
20510.0 0.00037807
20530.0 0.00037887
20550.0 0.00038026
20570.0 0.00038209
20590.0 0.00038444
20610.0 0.0003872
20630.0 0.00039015
20650.0 0.00039334
20670.0 0.00039684
20690.0 0.00040023
20710.0 0.00040355
20730.0 0.00040686
20750.0 0.00041
20770.0 0.00041277
20790.0 0.0004153
20810.0 0.00041754
20830.0 0.00041934
20850.0 0.0004207
20870.0 0.00042169
20890.0 0.0004222
20910.0 0.00042226
20930.0 0.0004219
20950.0 0.00042111
20970.0 0.00041996
20990.0 0.0004185
21010.0 0.00041662
21030.0 0.00041447
21050.0 0.00041215
21070.0 0.00040958
21090.0 0.00040674
21110.0 0.00040393
21130.0 0.00040107
21150.0 0.00039808
21170.0 0.00039513
21190.0 0.00039235
21210.0 0.00038956
21230.0 0.00038686
21250.0 0.00038446
21270.0 0.00038228
21290.0 0.00038027
21310.0 0.00037858
21330.0 0.00037727
21350.0 0.00037621
21370.0 0.0003755
21390.0 0.00037516
21410.0 0.00037515
21430.0 0.00037551
21450.0 0.00037621
21470.0 0.00037721
21490.0 0.00037855
21510.0 0.0003802
21530.0 0.00038204
21550.0 0.00038413
21570.0 0.00038652
21590.0 0.00038905
21610.0 0.00039169
21630.0 0.00039455
21650.0 0.00039762
21670.0 0.00040061
21690.0 0.00040373
21710.0 0.00040701
21730.0 0.00041029
21750.0 0.00041352
21770.0 0.00041697
21790.0 0.00042045
21810.0 0.00042382
21830.0 0.00042725
21850.0 0.0004308
21870.0 0.00043425
21890.0 0.00043759
21910.0 0.00044103
21930.0 0.00044443
21950.0 0.00044766
21970.0 0.00045085
21990.0 0.00045407
22010.0 0.000457
22030.0 0.00045974
22050.0 0.00046237
22070.0 0.00046476
22090.0 0.00046679
22110.0 0.00046858
22130.0 0.00047007
22150.0 0.00047115
22170.0 0.00047185
22190.0 0.00047213
22210.0 0.00047193
22230.0 0.00047131
22250.0 0.0004702
22270.0 0.00046856
22290.0 0.00046651
22310.0 0.00046403
22330.0 0.00046094
22350.0 0.00045744
22370.0 0.00045363
22390.0 0.00044934
22410.0 0.00044453
22430.0 0.00043963
22450.0 0.00043449
22470.0 0.00042891
22490.0 0.0004232
22510.0 0.00041755
22530.0 0.00041156
22550.0 0.0004054
22570.0 0.00039951
22590.0 0.00039367
22610.0 0.0003877
22630.0 0.00038195
22650.0 0.00037659
22670.0 0.0003712
22690.0 0.00036597
22710.0 0.00036115
22730.0 0.00035657
22750.0 0.00035199
22770.0 0.00034785
22790.0 0.00034407
22810.0 0.00034042
22830.0 0.00033698
22850.0 0.00033391
22870.0 0.00033101
22890.0 0.00032821
22910.0 0.00032568
22930.0 0.00032337
22950.0 0.00032116
22970.0 0.00031906
22990.0 0.00031726
23010.0 0.00031555
23030.0 0.00031393
23050.0 0.00031248
23070.0 0.00031119
23090.0 0.00030994
23110.0 0.00030883
23130.0 0.00030785
23150.0 0.00030696
23170.0 0.00030613
23190.0 0.00030541
23210.0 0.00030479
23230.0 0.00030421
23250.0 0.00030371
23270.0 0.0003033
23290.0 0.00030296
23310.0 0.00030269
23330.0 0.00030253
23350.0 0.00030247
23370.0 0.0003025
23390.0 0.00030264
23410.0 0.00030286
23430.0 0.00030319
23450.0 0.00030361
