#lamb flux
1010.0 9.7917e-05
1030.0 0.00010895
1050.0 0.00012389
1070.0 0.00014624
1090.0 0.00017556
1110.0 0.00020701
1130.0 0.0002399
1150.0 0.00027509
1170.0 0.00031158
1190.0 0.00034568
1210.0 0.00037859
1230.0 0.0004099
1250.0 0.00043887
1270.0 0.00046243
1290.0 0.00048219
1310.0 0.00049593
1330.0 0.00050241
1350.0 0.00050325
1370.0 0.00049929
1390.0 0.00048973
1410.0 0.00047546
1430.0 0.00045886
1450.0 0.00043981
1470.0 0.00041869
1490.0 0.00039709
1510.0 0.00037615
1530.0 0.00035498
1550.0 0.0003347
1570.0 0.00031608
1590.0 0.000299
1610.0 0.00028406
1630.0 0.00027465
1650.0 0.00026787
1670.0 0.00026353
1690.0 0.00026195
1710.0 0.00026361
1730.0 0.0002684
1750.0 0.00027601
1770.0 0.00028726
1790.0 0.00030227
1810.0 0.00032085
1830.0 0.00034327
1850.0 0.00037033
1870.0 0.0004015
1890.0 0.00043677
1910.0 0.00047665
1930.0 0.00052122
1950.0 0.00056959
1970.0 0.00062185
1990.0 0.00067832
2010.0 0.00073793
2030.0 0.00079984
2050.0 0.00086438
2070.0 0.00093093
2090.0 0.00099738
2110.0 0.0010639
2130.0 0.0011303
2150.0 0.001195
2170.0 0.0012569
2190.0 0.0013171
2210.0 0.0013745
2230.0 0.0014278
2250.0 0.0014776
2270.0 0.0015249
2290.0 0.0015681
2310.0 0.0016072
2330.0 0.0016442
2350.0 0.0016791
2370.0 0.0017114
2390.0 0.0017435
2410.0 0.0017777
2430.0 0.0018138
2450.0 0.0018537
2470.0 0.0019015
2490.0 0.0019593
2510.0 0.0020245
2530.0 0.0021033
2550.0 0.0022023
2570.0 0.002324
2590.0 0.0024752
2610.0 0.002682
2630.0 0.0029476
2650.0 0.0032625
2670.0 0.003636
2690.0 0.0040634
2710.0 0.0045008
2730.0 0.00493
2750.0 0.0053657
2770.0 0.0057844
2790.0 0.0061827
2810.0 0.0065892
2830.0 0.0070308
2850.0 0.0074793
2870.0 0.007954
2890.0 0.0084728
2910.0 0.0090195
2930.0 0.0095719
2950.0 0.010162
2970.0 0.010785
2990.0 0.011413
3010.0 0.012057
3030.0 0.012739
3050.0 0.013439
3070.0 0.014121
3090.0 0.014816
3110.0 0.015494
3130.0 0.01611
3150.0 0.016647
3170.0 0.017088
3190.0 0.017408
3210.0 0.01764
3230.0 0.017802
3250.0 0.017894
3270.0 0.01796
3290.0 0.018041
3310.0 0.018165
3330.0 0.018335
3350.0 0.018537
3370.0 0.018757
3390.0 0.018829
3410.0 0.018948
3430.0 0.01952
3450.0 0.019925
3470.0 0.020003
3490.0 0.020764
3510.0 0.023817
3530.0 0.029323
3550.0 0.033214
3570.0 0.03632
3590.0 0.040881
3610.0 0.040741
3630.0 0.037547
3650.0 0.039431
3670.0 0.046528
3690.0 0.052205
3710.0 0.05411
3730.0 0.054552
3750.0 0.058266
3770.0 0.058586
3790.0 0.055815
3810.0 0.052618
3830.0 0.049879
3850.0 0.050212
3870.0 0.052438
3890.0 0.054038
3910.0 0.054835
3930.0 0.054867
3950.0 0.058718
3970.0 0.063261
3990.0 0.061506
4010.0 0.054872
4030.0 0.04944
4050.0 0.049025
4070.0 0.051243
4090.0 0.050792
4110.0 0.048881
4130.0 0.048607
4150.0 0.050875
4170.0 0.056224
4190.0 0.059069
4210.0 0.055649
4230.0 0.051195
4250.0 0.048451
4270.0 0.046733
4290.0 0.047041
4310.0 0.048299
4330.0 0.045957
4350.0 0.04073
4370.0 0.036332
4390.0 0.033273
4410.0 0.031592
4430.0 0.032496
4450.0 0.035758
4470.0 0.039273
4490.0 0.041997
4510.0 0.04647
4530.0 0.054615
4550.0 0.063162
4570.0 0.068385
4590.0 0.072874
4610.0 0.076803
4630.0 0.077458
4650.0 0.071884
4670.0 0.062577
4690.0 0.055305
4710.0 0.052878
4730.0 0.050522
4750.0 0.044462
4770.0 0.039768
4790.0 0.040977
4810.0 0.044418
4830.0 0.043427
4850.0 0.038592
4870.0 0.039482
4890.0 0.040495
4910.0 0.041075
4930.0 0.040407
4950.0 0.03965
4970.0 0.037894
4990.0 0.035001
5010.0 0.032949
5030.0 0.032378
5050.0 0.032203
5070.0 0.03215
5090.0 0.032103
5110.0 0.032063
5130.0 0.032717
5150.0 0.034335
5170.0 0.037379
5190.0 0.041391
5210.0 0.044627
5230.0 0.046563
5250.0 0.047649
5270.0 0.049195
5290.0 0.05041
5310.0 0.050151
5330.0 0.048415
5350.0 0.046712
5370.0 0.046775
5390.0 0.047998
5410.0 0.048894
5430.0 0.048498
5450.0 0.047799
5470.0 0.046743
5490.0 0.04567
5510.0 0.045275
5530.0 0.0455
5550.0 0.045978
5570.0 0.046154
5590.0 0.044927
5610.0 0.042678
5630.0 0.040579
5650.0 0.038694
5670.0 0.03738
5690.0 0.035881
5710.0 0.035009
5730.0 0.035171
5750.0 0.034809
5770.0 0.03419
5790.0 0.034509
5810.0 0.035515
5830.0 0.036286
5850.0 0.036505
5870.0 0.0356
5890.0 0.034176
5910.0 0.032911
5930.0 0.031257
5950.0 0.029859
5970.0 0.030024
5990.0 0.030754
6010.0 0.030739
6030.0 0.029685
6050.0 0.029493
6070.0 0.03052
6090.0 0.031565
6110.0 0.031479
6130.0 0.029908
6150.0 0.02785
6170.0 0.02671
6190.0 0.026092
6210.0 0.025546
6230.0 0.025035
6250.0 0.025018
6270.0 0.025729
6290.0 0.02676
6310.0 0.027921
6330.0 0.029146
6350.0 0.029891
6370.0 0.02998
6390.0 0.029811
6410.0 0.03005
6430.0 0.030428
6450.0 0.030413
6470.0 0.030475
6490.0 0.030653
6510.0 0.030644
6530.0 0.030272
6550.0 0.029503
6570.0 0.028564
6590.0 0.027741
6610.0 0.027099
6630.0 0.02657
6650.0 0.025706
6670.0 0.024751
6690.0 0.024012
6710.0 0.023589
6730.0 0.023353
6750.0 0.023126
6770.0 0.02282
6790.0 0.022406
6810.0 0.022006
6830.0 0.021878
6850.0 0.021765
6870.0 0.021579
6890.0 0.021547
6910.0 0.021256
6930.0 0.020901
6950.0 0.020852
6970.0 0.020667
6990.0 0.020238
7010.0 0.019907
7030.0 0.019552
7050.0 0.019179
7070.0 0.018724
7090.0 0.018325
7110.0 0.01859
7130.0 0.019118
7150.0 0.019534
7170.0 0.019787
7190.0 0.019754
7210.0 0.019501
7230.0 0.019184
7250.0 0.018985
7270.0 0.018651
7290.0 0.018374
7310.0 0.018221
7330.0 0.01841
7350.0 0.018463
7370.0 0.018404
7390.0 0.018235
7410.0 0.017952
7430.0 0.017769
7450.0 0.017584
7470.0 0.017051
7490.0 0.01648
7510.0 0.015789
7530.0 0.015234
7550.0 0.014939
7570.0 0.01514
7590.0 0.015043
7610.0 0.014876
7630.0 0.014726
7650.0 0.0148
7670.0 0.015107
7690.0 0.015722
7710.0 0.016144
7730.0 0.016746
7750.0 0.017125
7770.0 0.017433
7790.0 0.017463
7810.0 0.017129
7830.0 0.017181
7850.0 0.017021
7870.0 0.016594
7890.0 0.016034
7910.0 0.015557
7930.0 0.015198
7950.0 0.014979
7970.0 0.014986
7990.0 0.015106
8010.0 0.015063
8030.0 0.014904
8050.0 0.01463
8070.0 0.014363
8090.0 0.014069
8110.0 0.014122
8130.0 0.014246
8150.0 0.01427
8170.0 0.014151
8190.0 0.013962
8210.0 0.013414
8230.0 0.012549
8250.0 0.012016
8270.0 0.011708
8290.0 0.011559
8310.0 0.011611
8330.0 0.011873
8350.0 0.011664
8370.0 0.01141
8390.0 0.011567
8410.0 0.011931
8430.0 0.012545
8450.0 0.013109
8470.0 0.013258
8490.0 0.01338
8510.0 0.013309
8530.0 0.01323
8550.0 0.01333
8570.0 0.013345
8590.0 0.013304
8610.0 0.013669
8630.0 0.013771
8650.0 0.013472
8670.0 0.013445
8690.0 0.013495
8710.0 0.013309
8730.0 0.013194
8750.0 0.012791
8770.0 0.01262
8790.0 0.012484
8810.0 0.012359
8830.0 0.01182
8850.0 0.010969
8870.0 0.010311
8890.0 0.0099492
8910.0 0.0093399
8930.0 0.0086956
8950.0 0.0084655
8970.0 0.0084031
8990.0 0.0084121
9010.0 0.0083479
9030.0 0.0082882
9050.0 0.0082333
9070.0 0.0081799
9090.0 0.0081266
9110.0 0.0080735
9130.0 0.0080204
9150.0 0.0079674
9170.0 0.0079146
9190.0 0.0078616
9210.0 0.0078086
9230.0 0.0077561
9250.0 0.0077039
9270.0 0.0076515
9290.0 0.0075994
9310.0 0.0075474
9330.0 0.0074956
9350.0 0.007444
9370.0 0.0073924
9390.0 0.0073412
9410.0 0.00729
9430.0 0.007239
9450.0 0.0071876
9470.0 0.0071375
9490.0 0.0070884
9510.0 0.0070382
9530.0 0.0069884
9550.0 0.0069388
9570.0 0.0068895
9590.0 0.0068405
9610.0 0.0067918
9630.0 0.0067434
9650.0 0.0066951
9670.0 0.0066473
9690.0 0.0065996
9710.0 0.0065523
9730.0 0.0065052
9750.0 0.0064584
9770.0 0.0064119
9790.0 0.0063657
9810.0 0.0063197
9830.0 0.0062729
9850.0 0.0062194
9870.0 0.0061758
9890.0 0.006134
9910.0 0.0060915
9930.0 0.0060463
9950.0 0.0060036
9970.0 0.0059609
9990.0 0.0059172
10010.0 0.0058689
10030.0 0.0058241
10050.0 0.0057846
10070.0 0.0057447
10090.0 0.0057047
10110.0 0.0056624
10130.0 0.0056155
10150.0 0.0055758
10170.0 0.0055369
10190.0 0.0054965
10210.0 0.0054572
10230.0 0.0054182
10250.0 0.0053778
10270.0 0.0053378
10290.0 0.0052992
10310.0 0.0052596
10330.0 0.0052191
10350.0 0.0051805
10370.0 0.0051422
10390.0 0.0051029
10410.0 0.005064
10430.0 0.0050268
10450.0 0.0049887
10470.0 0.0049501
10490.0 0.0049128
10510.0 0.0048759
10530.0 0.0048372
10550.0 0.0047996
10570.0 0.0047634
10590.0 0.0047263
10610.0 0.0046888
10630.0 0.0046528
10650.0 0.0046168
10670.0 0.0045794
10690.0 0.004543
10710.0 0.0045075
10730.0 0.0044711
10750.0 0.0044339
10770.0 0.0043989
10790.0 0.0043636
10810.0 0.0043272
10830.0 0.0042917
10850.0 0.0042574
10870.0 0.0042213
10890.0 0.0041855
10910.0 0.0041514
10930.0 0.0041174
10950.0 0.0040831
10970.0 0.0040505
10990.0 0.00402
11010.0 0.0039861
11030.0 0.0039593
11050.0 0.0039343
11070.0 0.0039094
11090.0 0.0038834
11110.0 0.0038585
11130.0 0.0038336
11150.0 0.0038075
11170.0 0.0037808
11190.0 0.0037551
11210.0 0.0037286
11230.0 0.0037013
11250.0 0.0036752
11270.0 0.0036497
11290.0 0.0036239
11310.0 0.0035987
11330.0 0.0035757
11350.0 0.0035529
11370.0 0.0035305
11390.0 0.0035097
11410.0 0.0034899
11430.0 0.0034696
11450.0 0.0034502
11470.0 0.0034316
11490.0 0.0034126
11510.0 0.0033929
11530.0 0.0033736
11550.0 0.0033541
11570.0 0.0033331
11590.0 0.0033115
11610.0 0.0032899
11630.0 0.0032666
11650.0 0.003242
11670.0 0.0032178
11690.0 0.0031932
11710.0 0.0031673
11730.0 0.0031416
11750.0 0.003117
11770.0 0.0030916
11790.0 0.0030663
11810.0 0.0030423
11830.0 0.0030191
11850.0 0.0029953
11870.0 0.0029731
11890.0 0.0029524
11910.0 0.002932
11930.0 0.0029122
11950.0 0.0028942
11970.0 0.002877
11990.0 0.0028601
12010.0 0.0028449
12030.0 0.0028311
12050.0 0.0028182
12070.0 0.0028065
12090.0 0.002797
12110.0 0.0027887
12130.0 0.0027818
12150.0 0.0027768
12170.0 0.0027735
12190.0 0.0027716
12210.0 0.0027716
12230.0 0.0027731
12250.0 0.0027762
12270.0 0.0027808
12290.0 0.0027866
12310.0 0.0027933
12330.0 0.0028012
12350.0 0.0028098
12370.0 0.0028185
12390.0 0.0028276
12410.0 0.0028369
12430.0 0.0028454
12450.0 0.0028531
12470.0 0.00286
12490.0 0.0028655
12510.0 0.0028693
12530.0 0.0028714
12550.0 0.0028713
12570.0 0.002869
12590.0 0.0028645
12610.0 0.0028571
12630.0 0.002847
12650.0 0.002835
12670.0 0.0028204
12690.0 0.0028031
12710.0 0.0027844
12730.0 0.0027642
12750.0 0.0027411
12770.0 0.0027173
12790.0 0.0026933
12810.0 0.0026681
12830.0 0.0026418
12850.0 0.0026165
12870.0 0.0025915
12890.0 0.0025656
12910.0 0.0025404
12930.0 0.0025164
12950.0 0.0024919
12970.0 0.0024674
12990.0 0.0024445
13010.0 0.0024222
13030.0 0.0023996
13050.0 0.0023779
13070.0 0.0023577
13090.0 0.0023372
13110.0 0.0023174
13130.0 0.002299
13150.0 0.0022815
13170.0 0.0022641
13190.0 0.0022483
13210.0 0.002234
13230.0 0.0022201
13250.0 0.0022071
13270.0 0.0021954
13290.0 0.0021843
13310.0 0.0021733
13330.0 0.002163
13350.0 0.0021533
13370.0 0.0021434
13390.0 0.0021332
13410.0 0.0021236
13430.0 0.0021136
13450.0 0.0021029
13470.0 0.0020921
13490.0 0.0020814
13510.0 0.0020694
13530.0 0.0020572
13550.0 0.0020451
13570.0 0.0020325
13590.0 0.0020191
13610.0 0.0020059
13630.0 0.0019928
13650.0 0.0019789
13670.0 0.0019648
13690.0 0.0019511
13710.0 0.0019371
13730.0 0.0019222
13750.0 0.001908
13770.0 0.0018938
13790.0 0.001879
13810.0 0.001864
13830.0 0.0018496
13850.0 0.0018344
13870.0 0.0018187
13890.0 0.0018032
13910.0 0.0017876
13930.0 0.001771
13950.0 0.0017541
13970.0 0.0017378
13990.0 0.0017206
14010.0 0.0017028
14030.0 0.0016854
14050.0 0.0016679
14070.0 0.0016492
14090.0 0.001631
14110.0 0.0016134
14130.0 0.0015956
14150.0 0.0015777
14170.0 0.001561
14190.0 0.0015449
14210.0 0.0015287
14230.0 0.0015134
14250.0 0.0014992
14270.0 0.0014851
14290.0 0.0014713
14310.0 0.0014587
14330.0 0.0014464
14350.0 0.0014342
14370.0 0.0014225
14390.0 0.0014114
14410.0 0.0014001
14430.0 0.001389
14450.0 0.0013785
14470.0 0.0013682
14490.0 0.0013577
14510.0 0.0013479
14530.0 0.0013387
14550.0 0.0013295
14570.0 0.0013207
14590.0 0.0013126
14610.0 0.0013047
14630.0 0.0012969
14650.0 0.0012896
14670.0 0.0012828
14690.0 0.001276
14710.0 0.0012695
14730.0 0.0012637
14750.0 0.0012581
14770.0 0.0012527
14790.0 0.0012479
14810.0 0.0012437
14830.0 0.0012397
14850.0 0.0012365
14870.0 0.001234
14890.0 0.0012322
14910.0 0.0012309
14930.0 0.0012301
14950.0 0.0012297
14970.0 0.0012295
14990.0 0.0012292
15010.0 0.0012288
15030.0 0.0012281
15050.0 0.0012269
15070.0 0.0012255
15090.0 0.0012239
15110.0 0.001222
15130.0 0.00122
15150.0 0.0012179
15170.0 0.0012158
15190.0 0.0012136
15210.0 0.0012115
15230.0 0.0012094
15250.0 0.0012072
15270.0 0.001205
15290.0 0.0012029
15310.0 0.0012007
15330.0 0.0011985
15350.0 0.0011964
15370.0 0.0011942
15390.0 0.001192
15410.0 0.0011898
15430.0 0.0011877
15450.0 0.0011855
15470.0 0.0011833
15490.0 0.0011812
15510.0 0.0011791
15530.0 0.0011769
15550.0 0.0011747
15570.0 0.0011726
15590.0 0.0011704
15610.0 0.0011682
15630.0 0.0011661
15650.0 0.001164
15670.0 0.0011619
15690.0 0.0011597
15710.0 0.0011577
15730.0 0.0011555
15750.0 0.0011534
15770.0 0.0011513
15790.0 0.0011493
15810.0 0.0011471
15830.0 0.001145
15850.0 0.001143
15870.0 0.0011409
15890.0 0.0011389
15910.0 0.0011369
15930.0 0.0011348
15950.0 0.0011328
15970.0 0.0011307
15990.0 0.0011288
16010.0 0.0011267
16030.0 0.0011247
16050.0 0.0011228
16070.0 0.0011208
16090.0 0.0011188
16110.0 0.0011169
16130.0 0.001115
16150.0 0.001113
16170.0 0.0011111
16190.0 0.0011092
16210.0 0.0011073
16230.0 0.0011054
16250.0 0.0011035
16270.0 0.0011017
16290.0 0.0010998
16310.0 0.0010979
16330.0 0.0010961
16350.0 0.0010943
16370.0 0.0010924
16390.0 0.0010906
16410.0 0.0010889
16430.0 0.0010871
16450.0 0.0010853
16470.0 0.0010836
16490.0 0.0010818
16510.0 0.00108
16530.0 0.0010783
16550.0 0.0010766
16570.0 0.0010748
16590.0 0.0010731
16610.0 0.0010715
16630.0 0.0010698
16650.0 0.0010681
16670.0 0.0010664
16690.0 0.0010648
16710.0 0.0010631
16730.0 0.0010614
16750.0 0.0010598
16770.0 0.0010582
16790.0 0.0010565
16810.0 0.0010549
16830.0 0.0010533
16850.0 0.0010517
16870.0 0.0010501
16890.0 0.0010486
16910.0 0.0010469
16930.0 0.0010453
16950.0 0.0010438
16970.0 0.0010422
16990.0 0.0010406
17010.0 0.0010391
17030.0 0.0010375
17050.0 0.001036
17070.0 0.0010344
17090.0 0.0010329
17110.0 0.0010313
17130.0 0.0010297
17150.0 0.0010282
17170.0 0.0010267
17190.0 0.0010251
17210.0 0.0010236
17230.0 0.0010221
17250.0 0.0010205
17270.0 0.0010189
17290.0 0.0010174
17310.0 0.0010159
17330.0 0.0010143
17350.0 0.0010127
17370.0 0.0010112
17390.0 0.0010097
17410.0 0.0010081
17430.0 0.0010065
17450.0 0.001005
17470.0 0.0010034
17490.0 0.0010018
17510.0 0.0010002
17530.0 0.00099864
17550.0 0.00099701
17570.0 0.00099543
17590.0 0.00099387
17610.0 0.00099222
17630.0 0.00099059
17650.0 0.000989
17670.0 0.00098735
17690.0 0.00098563
17710.0 0.00098401
17730.0 0.00098238
17750.0 0.00098067
17770.0 0.00097898
17790.0 0.00097735
17810.0 0.00097562
17830.0 0.00097387
17850.0 0.00097216
17870.0 0.00097044
17890.0 0.00096865
17910.0 0.00096686
17930.0 0.00096514
17950.0 0.00096335
17970.0 0.00096152
17990.0 0.00095974
18010.0 0.00095794
18030.0 0.00095603
18050.0 0.00095417
18070.0 0.00095233
18090.0 0.00095043
18110.0 0.00094849
18130.0 0.00094662
18150.0 0.00094471
18170.0 0.00094273
18190.0 0.00094077
18210.0 0.00093884
18230.0 0.00093681
18250.0 0.00093475
18270.0 0.00093276
18290.0 0.00093073
18310.0 0.00092864
18330.0 0.00092657
18350.0 0.00092453
18370.0 0.00092238
18390.0 0.00092023
18410.0 0.00091812
18430.0 0.00091596
18450.0 0.00091372
18470.0 0.00091154
18490.0 0.00090936
18510.0 0.00090711
18530.0 0.00090484
18550.0 0.00090262
18570.0 0.00090034
18590.0 0.00089798
18610.0 0.00089567
18630.0 0.00089336
18650.0 0.00089097
18670.0 0.00088857
18690.0 0.00088623
18710.0 0.00088382
18730.0 0.00088137
18750.0 0.00087894
18770.0 0.00087652
18790.0 0.00087398
18810.0 0.00087146
18830.0 0.00086899
18850.0 0.00086646
18870.0 0.00086387
18890.0 0.00086134
18910.0 0.00085879
18930.0 0.00085615
18950.0 0.00085353
18970.0 0.00085094
18990.0 0.00084829
19010.0 0.00084556
19030.0 0.00084292
19050.0 0.00084025
19070.0 0.00083751
19090.0 0.00083479
19110.0 0.00083211
19130.0 0.00082933
19150.0 0.00082653
19170.0 0.00082377
19190.0 0.00082099
19210.0 0.00081814
19230.0 0.00081531
19250.0 0.00081252
19270.0 0.00080967
19290.0 0.00080678
19310.0 0.00080395
19330.0 0.00080108
19350.0 0.00079813
19370.0 0.00079522
19390.0 0.00079234
19410.0 0.0007894
19430.0 0.00078643
19450.0 0.00078352
19470.0 0.00078058
19490.0 0.00077758
19510.0 0.00077461
19530.0 0.00077166
19550.0 0.00076864
19570.0 0.00076559
19590.0 0.00076263
19610.0 0.00075962
19630.0 0.00075657
19650.0 0.00075355
19670.0 0.00075056
19690.0 0.00074749
19710.0 0.00074442
19730.0 0.00074141
19750.0 0.00073836
19770.0 0.00073524
19790.0 0.00073219
19810.0 0.00072916
19830.0 0.00072606
19850.0 0.00072295
19870.0 0.00071986
19890.0 0.00071664
19910.0 0.00071324
19930.0 0.00070968
19950.0 0.00070579
19970.0 0.00070133
19990.0 0.00069624
20010.0 0.00069065
20030.0 0.00068421
20050.0 0.00067697
20070.0 0.00066931
20090.0 0.00066126
20110.0 0.00065245
20130.0 0.00064365
20150.0 0.00063502
20170.0 0.00062621
20190.0 0.00061738
20210.0 0.00060901
20230.0 0.00060082
20250.0 0.00059261
20270.0 0.00058483
20290.0 0.00057751
20310.0 0.00057035
20330.0 0.00056336
20350.0 0.00055709
20370.0 0.0005511
20390.0 0.00054532
20410.0 0.00053999
20430.0 0.00053511
20450.0 0.00053037
20470.0 0.00052597
20490.0 0.00052199
20510.0 0.00051829
20530.0 0.00051478
20550.0 0.00051161
20570.0 0.00050874
20590.0 0.00050604
20610.0 0.00050356
20630.0 0.00050132
20650.0 0.00049923
20670.0 0.00049726
20690.0 0.00049546
20710.0 0.00049376
20730.0 0.0004921
20750.0 0.00049048
20770.0 0.00048889
20790.0 0.00048726
20810.0 0.00048555
20830.0 0.00048376
20850.0 0.00048187
20870.0 0.00047978
20890.0 0.0004775
20910.0 0.0004751
20930.0 0.00047248
20950.0 0.0004696
20970.0 0.00046658
20990.0 0.0004634
21010.0 0.00045991
21030.0 0.00045627
21050.0 0.00045256
21070.0 0.00044867
21090.0 0.00044455
21110.0 0.0004405
21130.0 0.00043642
21150.0 0.00043218
21170.0 0.00042795
21190.0 0.00042385
21210.0 0.00041965
21230.0 0.00041542
21250.0 0.0004114
21270.0 0.00040746
21290.0 0.00040349
21310.0 0.00039965
21330.0 0.00039606
21350.0 0.00039246
21370.0 0.00038893
21390.0 0.00038561
21410.0 0.00038241
21430.0 0.00037916
21450.0 0.00037609
21470.0 0.00037319
21490.0 0.0003703
21510.0 0.00036744
21530.0 0.00036475
21550.0 0.00036209
21570.0 0.00035939
21590.0 0.00035678
21610.0 0.00035425
21630.0 0.00035168
21650.0 0.00034907
21670.0 0.00034662
21690.0 0.00034415
21710.0 0.00034163
21730.0 0.00033916
21750.0 0.00033676
21770.0 0.00033423
21790.0 0.00033172
21810.0 0.00032929
21830.0 0.00032683
21850.0 0.00032428
21870.0 0.00032179
21890.0 0.00031936
21910.0 0.00031683
21930.0 0.00031429
21950.0 0.00031183
21970.0 0.00030932
21990.0 0.0003067
22010.0 0.00030419
22030.0 0.00030172
22050.0 0.00029918
22070.0 0.00029665
22090.0 0.00029425
22110.0 0.00029183
22130.0 0.00028938
22150.0 0.00028705
22170.0 0.0002848
22190.0 0.00028252
22210.0 0.00028032
22230.0 0.0002783
22250.0 0.00027631
22270.0 0.00027437
22290.0 0.00027258
22310.0 0.00027089
22330.0 0.0002692
22350.0 0.00026762
22370.0 0.00026618
22390.0 0.00026477
22410.0 0.00026338
22430.0 0.00026213
22450.0 0.00026094
22470.0 0.00025975
22490.0 0.00025862
22510.0 0.00025758
22530.0 0.00025651
22550.0 0.00025546
22570.0 0.00025449
22590.0 0.00025356
22610.0 0.00025261
22630.0 0.00025171
22650.0 0.00025089
22670.0 0.00025007
22690.0 0.00024927
22710.0 0.00024856
22730.0 0.0002479
22750.0 0.00024724
22770.0 0.00024668
22790.0 0.00024621
22810.0 0.00024578
22830.0 0.00024543
22850.0 0.0002452
22870.0 0.00024505
22890.0 0.00024497
22910.0 0.00024503
22930.0 0.00024522
22950.0 0.00024552
22970.0 0.00024596
22990.0 0.00024655
23010.0 0.00024728
23030.0 0.00024817
23050.0 0.00024921
23070.0 0.00025038
23090.0 0.00025172
23110.0 0.0002532
23130.0 0.00025478
23150.0 0.00025648
23170.0 0.00025832
23190.0 0.00026023
23210.0 0.00026218
23230.0 0.00026426
23250.0 0.0002664
23270.0 0.00026854
23290.0 0.00027076
23310.0 0.00027307
23330.0 0.00027534
23350.0 0.00027762
23370.0 0.00027997
23390.0 0.00028232
23410.0 0.00028462
23430.0 0.00028696
23450.0 0.00028943
23470.0 0.00029188
23490.0 0.00029433
23510.0 0.00029684
23530.0 0.00029935
23550.0 0.00030181
23570.0 0.00030432
23590.0 0.00030687
23610.0 0.00030939
23630.0 0.00031193
23650.0 0.00031455
23670.0 0.00031719
23690.0 0.00031983
23710.0 0.00032256
23730.0 0.0003254
23750.0 0.00032825
