#lamb flux
1010.0 1.0191e-09
1030.0 1.286e-09
1050.0 1.5961e-09
1070.0 1.9494e-09
1090.0 2.3555e-09
1110.0 2.7793e-09
1130.0 3.2139e-09
1150.0 3.6767e-09
1170.0 4.1621e-09
1190.0 4.6326e-09
1210.0 5.1159e-09
1230.0 5.6197e-09
1250.0 6.1178e-09
1270.0 6.6036e-09
1290.0 7.1123e-09
1310.0 7.6155e-09
1330.0 8.0905e-09
1350.0 8.5588e-09
1370.0 9.0276e-09
1390.0 9.468e-09
1410.0 9.8768e-09
1430.0 1.0288e-08
1450.0 1.0681e-08
1470.0 1.1041e-08
1490.0 1.1391e-08
1510.0 1.1754e-08
1530.0 1.2081e-08
1550.0 1.2395e-08
1570.0 1.2718e-08
1590.0 1.304e-08
1610.0 1.3341e-08
1630.0 1.3657e-08
1650.0 1.3986e-08
1670.0 1.4306e-08
1690.0 1.4625e-08
1710.0 1.4966e-08
1730.0 1.5315e-08
1750.0 1.5645e-08
1770.0 1.5993e-08
1790.0 1.6355e-08
1810.0 1.671e-08
1830.0 1.7064e-08
1850.0 1.7468e-08
1870.0 1.7884e-08
1890.0 1.8285e-08
1910.0 1.8695e-08
1930.0 1.9114e-08
1950.0 1.9512e-08
1970.0 1.9906e-08
1990.0 2.0316e-08
2010.0 2.0721e-08
2030.0 2.1114e-08
2050.0 2.1521e-08
2070.0 2.1937e-08
2090.0 2.233e-08
2110.0 2.2723e-08
2130.0 2.3129e-08
2150.0 2.3529e-08
2170.0 2.3914e-08
2190.0 2.4315e-08
2210.0 2.4735e-08
2230.0 2.5161e-08
2250.0 2.559e-08
2270.0 2.604e-08
2290.0 2.6481e-08
2310.0 2.6911e-08
2330.0 2.7357e-08
2350.0 2.7808e-08
2370.0 2.8246e-08
2390.0 2.869e-08
2410.0 2.9154e-08
2430.0 2.9613e-08
2450.0 3.0078e-08
2470.0 3.0589e-08
2490.0 3.1178e-08
2510.0 3.1851e-08
2530.0 3.2715e-08
2550.0 3.3902e-08
2570.0 3.5491e-08
2590.0 3.759e-08
2610.0 4.0589e-08
2630.0 4.4568e-08
2650.0 4.944e-08
2670.0 5.5464e-08
2690.0 6.2771e-08
2710.0 7.0789e-08
2730.0 7.9234e-08
2750.0 8.838e-08
2770.0 9.7463e-08
2790.0 1.059e-07
2810.0 1.1382e-07
2830.0 1.2123e-07
2850.0 1.2742e-07
2870.0 1.3288e-07
2890.0 1.3795e-07
2910.0 1.4267e-07
2930.0 1.4712e-07
2950.0 1.5168e-07
2970.0 1.5642e-07
2990.0 1.6126e-07
3010.0 1.6628e-07
3030.0 1.7165e-07
3050.0 1.7728e-07
3070.0 1.83e-07
3090.0 1.8906e-07
3110.0 1.9552e-07
3130.0 2.0246e-07
3150.0 2.1023e-07
3170.0 2.2023e-07
3190.0 2.3329e-07
3210.0 2.5043e-07
3230.0 2.7335e-07
3250.0 3.0275e-07
3270.0 3.3114e-07
3290.0 3.7551e-07
3310.0 4.651e-07
3330.0 4.9504e-07
3350.0 5.0988e-07
3370.0 5.2418e-07
3390.0 5.387e-07
3410.0 5.5333e-07
3430.0 5.6803e-07
3450.0 5.8271e-07
3470.0 5.9716e-07
3490.0 6.1101e-07
3510.0 6.2323e-07
3530.0 6.173e-07
3550.0 6.0032e-07
3570.0 6.0969e-07
3590.0 6.496e-07
3610.0 7.0852e-07
3630.0 7.3366e-07
3650.0 7.0527e-07
3670.0 6.4704e-07
3690.0 6.124e-07
3710.0 6.192e-07
3730.0 6.3958e-07
3750.0 6.5063e-07
3770.0 6.7255e-07
3790.0 6.9699e-07
3810.0 6.8781e-07
3830.0 6.409e-07
3850.0 5.9843e-07
3870.0 5.782e-07
3890.0 5.722e-07
3910.0 5.5986e-07
3930.0 5.5343e-07
3950.0 5.6923e-07
3970.0 5.877e-07
3990.0 5.9279e-07
4010.0 5.7143e-07
4030.0 5.4033e-07
4050.0 5.2021e-07
4070.0 5.0318e-07
4090.0 4.896e-07
4110.0 4.7198e-07
4130.0 4.4388e-07
4150.0 4.1545e-07
4170.0 3.9858e-07
4190.0 3.7193e-07
4210.0 3.3663e-07
4230.0 3.0095e-07
4250.0 2.6697e-07
4270.0 2.4144e-07
4290.0 2.229e-07
4310.0 2.1302e-07
4330.0 2.1264e-07
4350.0 2.1418e-07
4370.0 2.1622e-07
4390.0 2.2451e-07
4410.0 2.3022e-07
4430.0 2.2256e-07
4450.0 2.0195e-07
4470.0 1.8379e-07
4490.0 1.7406e-07
4510.0 1.6771e-07
4530.0 1.6451e-07
4550.0 1.6172e-07
4570.0 1.6101e-07
4590.0 1.6323e-07
4610.0 1.6796e-07
4630.0 1.7077e-07
4650.0 1.7204e-07
4670.0 1.6787e-07
4690.0 1.5774e-07
4710.0 1.4773e-07
4730.0 1.4113e-07
4750.0 1.371e-07
4770.0 1.3768e-07
4790.0 1.3713e-07
4810.0 1.342e-07
4830.0 1.3461e-07
4850.0 1.3875e-07
4870.0 1.4017e-07
4890.0 1.3767e-07
4910.0 1.3435e-07
4930.0 1.2667e-07
4950.0 1.1577e-07
4970.0 1.0818e-07
4990.0 1.0196e-07
5010.0 1.0066e-07
5030.0 1.0404e-07
5050.0 1.0669e-07
5070.0 1.1068e-07
5090.0 1.1737e-07
5110.0 1.1914e-07
5130.0 1.2019e-07
5150.0 1.2237e-07
5170.0 1.2346e-07
5190.0 1.2669e-07
5210.0 1.2734e-07
5230.0 1.2604e-07
5250.0 1.2701e-07
5270.0 1.2875e-07
5290.0 1.2908e-07
5310.0 1.2813e-07
5330.0 1.2568e-07
5350.0 1.2403e-07
5370.0 1.227e-07
5390.0 1.2103e-07
5410.0 1.197e-07
5430.0 1.1961e-07
5450.0 1.2142e-07
5470.0 1.2368e-07
5490.0 1.2739e-07
5510.0 1.3122e-07
5530.0 1.3286e-07
5550.0 1.3476e-07
5570.0 1.3519e-07
5590.0 1.3258e-07
5610.0 1.3163e-07
5630.0 1.3255e-07
5650.0 1.3097e-07
5670.0 1.2808e-07
5690.0 1.2432e-07
5710.0 1.2386e-07
5730.0 1.2524e-07
5750.0 1.1993e-07
5770.0 1.1375e-07
5790.0 1.0479e-07
5810.0 9.186e-08
5830.0 9.888e-08
5850.0 1.0916e-07
5870.0 1.114e-07
5890.0 1.1199e-07
5910.0 1.1304e-07
5930.0 1.1275e-07
5950.0 1.1096e-07
5970.0 1.0965e-07
5990.0 1.0815e-07
6010.0 1.0483e-07
6030.0 1.0129e-07
6050.0 9.9696e-08
6070.0 9.9123e-08
6090.0 9.7704e-08
6110.0 9.4507e-08
6130.0 9.1243e-08
6150.0 8.7614e-08
6170.0 8.4005e-08
6190.0 8.0051e-08
6210.0 7.7262e-08
6230.0 7.621e-08
6250.0 7.4594e-08
6270.0 7.3037e-08
6290.0 7.2554e-08
6310.0 7.2192e-08
6330.0 7.0635e-08
6350.0 6.833e-08
6370.0 6.707e-08
6390.0 6.564e-08
6410.0 6.3865e-08
6430.0 6.2088e-08
6450.0 6.0762e-08
6470.0 5.9505e-08
6490.0 5.8628e-08
6510.0 5.7516e-08
6530.0 5.609e-08
6550.0 5.4851e-08
6570.0 5.3949e-08
6590.0 5.3926e-08
6610.0 5.3597e-08
6630.0 5.1829e-08
6650.0 5.0318e-08
6670.0 4.9765e-08
6690.0 4.8966e-08
6710.0 4.7768e-08
6730.0 4.7326e-08
6750.0 4.7693e-08
6770.0 5.0438e-08
6790.0 5.6091e-08
6810.0 5.3322e-08
6830.0 4.7038e-08
6850.0 4.5125e-08
6870.0 4.4437e-08
6890.0 4.4433e-08
6910.0 4.4523e-08
6930.0 4.4599e-08
6950.0 4.4507e-08
6970.0 4.3374e-08
6990.0 4.2983e-08
7010.0 4.3614e-08
7030.0 4.3859e-08
7050.0 4.3227e-08
7070.0 4.2678e-08
7090.0 4.2853e-08
7110.0 4.3862e-08
7130.0 4.4003e-08
7150.0 4.4188e-08
7170.0 4.4421e-08
7190.0 4.5027e-08
7210.0 4.556e-08
7230.0 4.614e-08
7250.0 4.6743e-08
7270.0 4.7194e-08
7290.0 4.7978e-08
7310.0 4.8783e-08
7330.0 4.8388e-08
7350.0 4.7358e-08
7370.0 4.6785e-08
7390.0 4.6761e-08
7410.0 4.6822e-08
7430.0 4.7425e-08
7450.0 4.7712e-08
7470.0 4.8467e-08
7490.0 4.8211e-08
7510.0 4.7624e-08
7530.0 4.823e-08
7550.0 4.9539e-08
7570.0 4.943e-08
7590.0 4.6911e-08
7610.0 4.6636e-08
7630.0 4.9196e-08
7650.0 5.0245e-08
7670.0 5.0428e-08
7690.0 5.2708e-08
7710.0 5.4391e-08
7730.0 5.4951e-08
7750.0 5.7779e-08
7770.0 5.6375e-08
7790.0 5.5105e-08
7810.0 5.8272e-08
7830.0 6.0583e-08
7850.0 6.1965e-08
7870.0 6.3291e-08
7890.0 6.3707e-08
7910.0 6.3244e-08
7930.0 6.3643e-08
7950.0 6.6549e-08
7970.0 6.6509e-08
7990.0 6.1964e-08
8010.0 5.8108e-08
8030.0 5.939e-08
8050.0 6.0728e-08
8070.0 5.4807e-08
8090.0 3.5317e-08
8110.0 3.703e-08
8130.0 5.3417e-08
8150.0 5.7521e-08
8170.0 5.979e-08
8190.0 6.0999e-08
8210.0 6.0331e-08
8230.0 6.5575e-08
8250.0 6.708e-08
8270.0 6.3262e-08
8290.0 6.0678e-08
8310.0 5.9881e-08
8330.0 6.3377e-08
8350.0 6.6382e-08
8370.0 6.5038e-08
8390.0 6.1998e-08
8410.0 6.1957e-08
8430.0 5.801e-08
8450.0 5.9411e-08
8470.0 6.4908e-08
8490.0 6.5104e-08
8510.0 6.0382e-08
8530.0 5.6431e-08
8550.0 5.4038e-08
8570.0 5.101e-08
8590.0 5.2464e-08
8610.0 5.5788e-08
8630.0 5.721e-08
8650.0 5.8213e-08
8670.0 5.6529e-08
8690.0 5.5219e-08
8710.0 5.1246e-08
8730.0 4.945e-08
8750.0 5.1588e-08
8770.0 5.2445e-08
8790.0 5.2132e-08
8810.0 5.2029e-08
8830.0 5.3218e-08
8850.0 5.5829e-08
8870.0 5.2119e-08
8890.0 4.9225e-08
8910.0 4.8487e-08
8930.0 4.541e-08
8950.0 4.3859e-08
8970.0 4.3896e-08
8990.0 4.2001e-08
9010.0 3.9442e-08
9030.0 3.8541e-08
9050.0 3.8216e-08
9070.0 3.7926e-08
9090.0 3.7634e-08
9110.0 3.734e-08
9130.0 3.7045e-08
9150.0 3.6749e-08
9170.0 3.6452e-08
9190.0 3.6154e-08
9210.0 3.5856e-08
9230.0 3.5558e-08
9250.0 3.5259e-08
9270.0 3.4962e-08
9290.0 3.4664e-08
9310.0 3.4366e-08
9330.0 3.4068e-08
9350.0 3.377e-08
9370.0 3.3474e-08
9390.0 3.3179e-08
9410.0 3.2886e-08
9430.0 3.2595e-08
9450.0 3.2305e-08
9470.0 3.2017e-08
9490.0 3.1731e-08
9510.0 3.1448e-08
9530.0 3.1167e-08
9550.0 3.0888e-08
9570.0 3.0612e-08
9590.0 3.0338e-08
9610.0 3.0065e-08
9630.0 2.9794e-08
9650.0 2.9526e-08
9670.0 2.926e-08
9690.0 2.8998e-08
9710.0 2.8738e-08
9730.0 2.8481e-08
9750.0 2.8228e-08
9770.0 2.7976e-08
9790.0 2.7728e-08
9810.0 2.7483e-08
9830.0 2.7241e-08
9850.0 2.7002e-08
9870.0 2.6768e-08
9890.0 2.6533e-08
9910.0 2.6302e-08
9930.0 2.6075e-08
9950.0 2.585e-08
9970.0 2.5628e-08
9990.0 2.5409e-08
10010.0 2.5193e-08
10030.0 2.498e-08
10050.0 2.477e-08
10070.0 2.4562e-08
10090.0 2.4358e-08
10110.0 2.4156e-08
10130.0 2.3956e-08
10150.0 2.376e-08
10170.0 2.3566e-08
10190.0 2.3374e-08
10210.0 2.3185e-08
10230.0 2.2999e-08
10250.0 2.2815e-08
10270.0 2.2634e-08
10290.0 2.2455e-08
10310.0 2.2278e-08
10330.0 2.2104e-08
10350.0 2.1932e-08
10370.0 2.1763e-08
10390.0 2.1593e-08
10410.0 2.1393e-08
10430.0 2.1185e-08
10450.0 2.1062e-08
10470.0 2.092e-08
10490.0 2.0776e-08
10510.0 2.063e-08
10530.0 2.0478e-08
10550.0 2.0328e-08
10570.0 2.0182e-08
10590.0 2.0035e-08
10610.0 1.9888e-08
10630.0 1.9746e-08
10650.0 1.9605e-08
10670.0 1.9463e-08
10690.0 1.9324e-08
10710.0 1.9189e-08
10730.0 1.9052e-08
10750.0 1.8915e-08
10770.0 1.8785e-08
10790.0 1.8655e-08
10810.0 1.8524e-08
10830.0 1.8396e-08
10850.0 1.8272e-08
10870.0 1.8145e-08
10890.0 1.8018e-08
10910.0 1.7896e-08
10930.0 1.7774e-08
10950.0 1.7648e-08
10970.0 1.7525e-08
10990.0 1.7404e-08
11010.0 1.814e-08
11030.0 1.8007e-08
11050.0 1.7876e-08
11070.0 1.7742e-08
11090.0 1.7601e-08
11110.0 1.7462e-08
11130.0 1.7324e-08
11150.0 1.7181e-08
11170.0 1.7036e-08
11190.0 1.6895e-08
11210.0 1.6751e-08
11230.0 1.6604e-08
11250.0 1.6462e-08
11270.0 1.6323e-08
11290.0 1.6182e-08
11310.0 1.6045e-08
11330.0 1.5919e-08
11350.0 1.5795e-08
11370.0 1.5674e-08
11390.0 1.5563e-08
11410.0 1.5458e-08
11430.0 1.5353e-08
11450.0 1.5255e-08
11470.0 1.5162e-08
11490.0 1.5071e-08
11510.0 1.4979e-08
11530.0 1.4892e-08
11550.0 1.4805e-08
11570.0 1.4715e-08
11590.0 1.4625e-08
11610.0 1.4536e-08
11630.0 1.4443e-08
11650.0 1.4345e-08
11670.0 1.4249e-08
11690.0 1.4152e-08
11710.0 1.405e-08
11730.0 1.3947e-08
11750.0 1.3847e-08
11770.0 1.3743e-08
11790.0 1.3637e-08
11810.0 1.3535e-08
11830.0 1.3433e-08
11850.0 1.3328e-08
11870.0 1.3228e-08
11890.0 1.3133e-08
11910.0 1.3039e-08
11930.0 1.2947e-08
11950.0 1.2862e-08
11970.0 1.278e-08
11990.0 1.27e-08
12010.0 1.2627e-08
12030.0 1.256e-08
12050.0 1.2496e-08
12070.0 1.2436e-08
12090.0 1.2384e-08
12110.0 1.2335e-08
12130.0 1.229e-08
12150.0 1.2248e-08
12170.0 1.2211e-08
12190.0 1.2174e-08
12210.0 1.2139e-08
12230.0 1.2106e-08
12250.0 1.2072e-08
12270.0 1.2036e-08
12290.0 1.1998e-08
12310.0 1.1959e-08
12330.0 1.1914e-08
12350.0 1.1864e-08
12370.0 1.1811e-08
12390.0 1.1753e-08
12410.0 1.1685e-08
12430.0 1.1615e-08
12450.0 1.1541e-08
12470.0 1.1459e-08
12490.0 1.1372e-08
12510.0 1.1285e-08
12530.0 1.1191e-08
12550.0 1.1092e-08
12570.0 1.0993e-08
12590.0 1.0893e-08
12610.0 1.0787e-08
12630.0 1.0681e-08
12650.0 1.058e-08
12670.0 1.0476e-08
12690.0 1.0372e-08
12710.0 1.0273e-08
12730.0 1.0177e-08
12750.0 1.0079e-08
12770.0 9.9863e-09
12790.0 9.9e-09
12810.0 9.8158e-09
12830.0 9.7341e-09
12850.0 9.6607e-09
12870.0 9.5924e-09
12890.0 9.5267e-09
12910.0 9.4674e-09
12930.0 9.4153e-09
12950.0 9.3668e-09
12970.0 9.3235e-09
12990.0 9.2882e-09
13010.0 9.2583e-09
13030.0 9.2334e-09
13050.0 9.2143e-09
13070.0 9.2006e-09
13090.0 9.1906e-09
13110.0 9.1841e-09
13130.0 9.1802e-09
13150.0 9.1777e-09
13170.0 9.1754e-09
13190.0 9.1722e-09
13210.0 9.1671e-09
13230.0 9.1589e-09
13250.0 9.1465e-09
13270.0 9.1301e-09
13290.0 9.1086e-09
13310.0 9.0806e-09
13330.0 9.0477e-09
13350.0 9.0101e-09
13370.0 8.9658e-09
13390.0 8.915e-09
13410.0 8.8624e-09
13430.0 8.8042e-09
13450.0 8.7399e-09
13470.0 8.6731e-09
13490.0 8.6047e-09
13510.0 8.5285e-09
13530.0 8.4502e-09
13550.0 8.3723e-09
13570.0 8.2911e-09
13590.0 8.2055e-09
13610.0 8.1211e-09
13630.0 8.0377e-09
13650.0 7.9497e-09
13670.0 7.8616e-09
13690.0 7.7763e-09
13710.0 7.6895e-09
13730.0 7.5988e-09
13750.0 7.514e-09
13770.0 7.4308e-09
13790.0 7.3462e-09
13810.0 7.2637e-09
13830.0 7.1867e-09
13850.0 7.1091e-09
13870.0 7.0324e-09
13890.0 6.9608e-09
13910.0 6.8922e-09
13930.0 6.8234e-09
13950.0 6.7576e-09
13970.0 6.6976e-09
13990.0 6.6382e-09
14010.0 6.5802e-09
14030.0 6.5266e-09
14050.0 6.4757e-09
14070.0 6.4243e-09
14090.0 6.3768e-09
14110.0 6.3328e-09
14130.0 6.29e-09
14150.0 6.2484e-09
14170.0 6.2108e-09
14190.0 6.1749e-09
14210.0 6.1394e-09
14230.0 6.106e-09
14250.0 6.0748e-09
14270.0 6.0435e-09
14290.0 6.0126e-09
14310.0 5.984e-09
14330.0 5.9559e-09
14350.0 5.9275e-09
14370.0 5.9002e-09
14390.0 5.8743e-09
14410.0 5.8477e-09
14430.0 5.8214e-09
14450.0 5.7964e-09
14470.0 5.7715e-09
14490.0 5.7457e-09
14510.0 5.721e-09
14530.0 5.6972e-09
14550.0 5.6725e-09
14570.0 5.6476e-09
14590.0 5.6236e-09
14610.0 5.5991e-09
14630.0 5.5734e-09
14650.0 5.5482e-09
14670.0 5.5232e-09
14690.0 5.4971e-09
14710.0 5.4702e-09
14730.0 5.4445e-09
14750.0 5.4179e-09
14770.0 5.3901e-09
14790.0 5.3626e-09
14810.0 5.3352e-09
14830.0 5.3055e-09
14850.0 5.2758e-09
14870.0 5.2468e-09
14890.0 5.217e-09
14910.0 5.1865e-09
14930.0 5.1575e-09
14950.0 5.1302e-09
14970.0 5.1033e-09
14990.0 5.0789e-09
15010.0 5.0575e-09
15030.0 5.0382e-09
15050.0 5.0203e-09
15070.0 5.0054e-09
15090.0 4.9918e-09
15110.0 4.9787e-09
15130.0 4.9662e-09
15150.0 4.9545e-09
15170.0 4.9426e-09
15190.0 4.9304e-09
15210.0 4.9188e-09
15230.0 4.9072e-09
15250.0 4.8951e-09
15270.0 4.883e-09
15290.0 4.8716e-09
15310.0 4.8598e-09
15330.0 4.8478e-09
15350.0 4.8362e-09
15370.0 4.8246e-09
15390.0 4.8124e-09
15410.0 4.8005e-09
15430.0 4.7889e-09
15450.0 4.777e-09
15470.0 4.7648e-09
15490.0 4.7532e-09
15510.0 4.7416e-09
15530.0 4.7295e-09
15550.0 4.7176e-09
15570.0 4.7061e-09
15590.0 4.694e-09
15610.0 4.6818e-09
15630.0 4.6701e-09
15650.0 4.6584e-09
15670.0 4.6462e-09
15690.0 4.6344e-09
15710.0 4.6228e-09
15730.0 4.6108e-09
15750.0 4.5986e-09
15770.0 4.5869e-09
15790.0 4.5751e-09
15810.0 4.5628e-09
15830.0 4.5508e-09
15850.0 4.5392e-09
15870.0 4.5272e-09
15890.0 4.515e-09
15910.0 4.5034e-09
15930.0 4.4915e-09
15950.0 4.4792e-09
15970.0 4.4673e-09
15990.0 4.4555e-09
16010.0 4.4433e-09
16030.0 4.431e-09
16050.0 4.4194e-09
16070.0 4.4075e-09
16090.0 4.3953e-09
16110.0 4.3834e-09
16130.0 4.3717e-09
16150.0 4.3593e-09
16170.0 4.3471e-09
16190.0 4.3353e-09
16210.0 4.3233e-09
16230.0 4.311e-09
16250.0 4.2991e-09
16270.0 4.2873e-09
16290.0 4.275e-09
16310.0 4.2629e-09
16330.0 4.2511e-09
16350.0 4.2391e-09
16370.0 4.2264e-09
16390.0 4.2146e-09
16410.0 4.2027e-09
16430.0 4.1904e-09
16450.0 4.1783e-09
16470.0 4.1666e-09
16490.0 4.1544e-09
16510.0 4.142e-09
16530.0 4.1301e-09
16550.0 4.1181e-09
16570.0 4.1057e-09
16590.0 4.0934e-09
16610.0 4.0817e-09
16630.0 4.0695e-09
16650.0 4.0572e-09
16670.0 4.0453e-09
16690.0 4.0334e-09
16710.0 4.0208e-09
16730.0 4.0087e-09
16750.0 3.9968e-09
16770.0 3.9845e-09
16790.0 3.9721e-09
16810.0 3.9602e-09
16830.0 3.9483e-09
16850.0 3.9359e-09
16870.0 3.9237e-09
16890.0 3.9119e-09
16910.0 3.8995e-09
16930.0 3.887e-09
16950.0 3.8751e-09
16970.0 3.8631e-09
16990.0 3.8506e-09
17010.0 3.8385e-09
17030.0 3.8267e-09
17050.0 3.8143e-09
17070.0 3.802e-09
17090.0 3.79e-09
17110.0 3.778e-09
17130.0 3.7653e-09
17150.0 3.7532e-09
17170.0 3.7413e-09
17190.0 3.729e-09
17210.0 3.7167e-09
17230.0 3.7049e-09
17250.0 3.6927e-09
17270.0 3.6802e-09
17290.0 3.6681e-09
17310.0 3.6561e-09
17330.0 3.6437e-09
17350.0 3.6312e-09
17370.0 3.6195e-09
17390.0 3.6073e-09
17410.0 3.5949e-09
17430.0 3.5828e-09
17450.0 3.571e-09
17470.0 3.5584e-09
17490.0 3.546e-09
17510.0 3.5341e-09
17530.0 3.5219e-09
17550.0 3.5095e-09
17570.0 3.4974e-09
17590.0 3.4855e-09
17610.0 3.4731e-09
17630.0 3.4609e-09
17650.0 3.4489e-09
17670.0 3.4367e-09
17690.0 3.424e-09
17710.0 3.4121e-09
17730.0 3.4001e-09
17750.0 3.3877e-09
17770.0 3.3755e-09
17790.0 3.3637e-09
17810.0 3.3514e-09
17830.0 3.3389e-09
17850.0 3.3269e-09
17870.0 3.3149e-09
17890.0 3.3024e-09
17910.0 3.2901e-09
17930.0 3.2783e-09
17950.0 3.2661e-09
17970.0 3.2537e-09
17990.0 3.2418e-09
18010.0 3.2298e-09
18030.0 3.2172e-09
18050.0 3.205e-09
18070.0 3.1931e-09
18090.0 3.1808e-09
18110.0 3.1684e-09
18130.0 3.1565e-09
18150.0 3.1445e-09
18170.0 3.1321e-09
18190.0 3.12e-09
18210.0 3.1081e-09
18230.0 3.0957e-09
18250.0 3.0832e-09
18270.0 3.0714e-09
18290.0 3.0593e-09
18310.0 3.0469e-09
18330.0 3.0348e-09
18350.0 3.023e-09
18370.0 3.0107e-09
18390.0 2.9984e-09
18410.0 2.9864e-09
18430.0 2.9744e-09
18450.0 2.9618e-09
18470.0 2.9497e-09
18490.0 2.9379e-09
18510.0 2.9256e-09
18530.0 2.9134e-09
18550.0 2.9016e-09
18570.0 2.8894e-09
18590.0 2.8769e-09
18610.0 2.8649e-09
18630.0 2.853e-09
18650.0 2.8407e-09
18670.0 2.8283e-09
18690.0 2.8166e-09
18710.0 2.8045e-09
18730.0 2.7921e-09
18750.0 2.7802e-09
18770.0 2.7684e-09
18790.0 2.7558e-09
18810.0 2.7436e-09
18830.0 2.7317e-09
18850.0 2.7196e-09
18870.0 2.7072e-09
18890.0 2.6953e-09
18910.0 2.6835e-09
18930.0 2.6711e-09
18950.0 2.659e-09
18970.0 2.6472e-09
18990.0 2.635e-09
19010.0 2.6224e-09
19030.0 2.6106e-09
19050.0 2.5987e-09
19070.0 2.5864e-09
19090.0 2.5743e-09
19110.0 2.5626e-09
19130.0 2.5503e-09
19150.0 2.538e-09
19170.0 2.5261e-09
19190.0 2.5142e-09
19210.0 2.5018e-09
19230.0 2.4896e-09
19250.0 2.4779e-09
19270.0 2.4657e-09
19290.0 2.4535e-09
19310.0 2.4417e-09
19330.0 2.4298e-09
19350.0 2.4173e-09
19370.0 2.4052e-09
19390.0 2.3934e-09
19410.0 2.3812e-09
19430.0 2.3689e-09
19450.0 2.3572e-09
19470.0 2.3452e-09
19490.0 2.3329e-09
19510.0 2.3209e-09
19530.0 2.3092e-09
19550.0 2.2968e-09
19570.0 2.2845e-09
19590.0 2.2727e-09
19610.0 2.2608e-09
19630.0 2.2485e-09
19650.0 2.2365e-09
19670.0 2.2248e-09
19690.0 2.2125e-09
19710.0 2.2003e-09
19730.0 2.1885e-09
19750.0 2.1765e-09
19770.0 2.1641e-09
19790.0 2.1522e-09
19810.0 2.1404e-09
19830.0 2.1282e-09
19850.0 2.1162e-09
19870.0 2.1046e-09
19890.0 2.0927e-09
19910.0 2.0808e-09
19930.0 2.0697e-09
19950.0 2.0593e-09
19970.0 2.0493e-09
19990.0 2.0404e-09
20010.0 2.0331e-09
20030.0 2.0267e-09
20050.0 2.0213e-09
20070.0 2.0172e-09
20090.0 2.0138e-09
20110.0 2.0108e-09
20130.0 2.0083e-09
20150.0 2.006e-09
20170.0 2.0038e-09
20190.0 2.0015e-09
20210.0 1.9993e-09
20230.0 1.997e-09
20250.0 1.9944e-09
20270.0 1.9918e-09
20290.0 1.9891e-09
20310.0 1.9862e-09
20330.0 1.983e-09
20350.0 1.9799e-09
20370.0 1.9766e-09
20390.0 1.973e-09
20410.0 1.9693e-09
20430.0 1.9657e-09
20450.0 1.9617e-09
20470.0 1.9576e-09
20490.0 1.9537e-09
20510.0 1.9497e-09
20530.0 1.9456e-09
20550.0 1.9416e-09
20570.0 1.9378e-09
20590.0 1.9339e-09
20610.0 1.9302e-09
20630.0 1.9266e-09
20650.0 1.9231e-09
20670.0 1.9194e-09
20690.0 1.916e-09
20710.0 1.9126e-09
20730.0 1.909e-09
20750.0 1.9052e-09
20770.0 1.9015e-09
20790.0 1.8975e-09
20810.0 1.8931e-09
20830.0 1.8885e-09
20850.0 1.8837e-09
20870.0 1.8783e-09
20890.0 1.8725e-09
20910.0 1.8667e-09
20930.0 1.8605e-09
20950.0 1.8538e-09
20970.0 1.8471e-09
20990.0 1.8402e-09
21010.0 1.8329e-09
21030.0 1.8255e-09
21050.0 1.8184e-09
21070.0 1.811e-09
21090.0 1.8035e-09
21110.0 1.7963e-09
21130.0 1.7893e-09
21150.0 1.7821e-09
21170.0 1.775e-09
21190.0 1.7683e-09
21210.0 1.7613e-09
21230.0 1.7542e-09
21250.0 1.7474e-09
21270.0 1.7405e-09
21290.0 1.7334e-09
21310.0 1.7261e-09
21330.0 1.7191e-09
21350.0 1.7117e-09
21370.0 1.7039e-09
21390.0 1.6964e-09
21410.0 1.6887e-09
21430.0 1.6804e-09
21450.0 1.6721e-09
21470.0 1.6639e-09
21490.0 1.6553e-09
21510.0 1.6464e-09
21530.0 1.6377e-09
21550.0 1.6288e-09
21570.0 1.6195e-09
21590.0 1.6103e-09
21610.0 1.6012e-09
21630.0 1.5919e-09
21650.0 1.5822e-09
21670.0 1.5732e-09
21690.0 1.5641e-09
21710.0 1.5547e-09
21730.0 1.5455e-09
21750.0 1.5366e-09
21770.0 1.5273e-09
21790.0 1.518e-09
21810.0 1.5091e-09
21830.0 1.5e-09
21850.0 1.4907e-09
21870.0 1.4817e-09
21890.0 1.4729e-09
21910.0 1.4638e-09
21930.0 1.4548e-09
21950.0 1.4461e-09
21970.0 1.4373e-09
21990.0 1.4283e-09
22010.0 1.4198e-09
22030.0 1.4116e-09
22050.0 1.4033e-09
22070.0 1.3953e-09
22090.0 1.3878e-09
22110.0 1.3804e-09
22130.0 1.3731e-09
22150.0 1.3664e-09
22170.0 1.3601e-09
22190.0 1.3538e-09
22210.0 1.3478e-09
22230.0 1.3425e-09
22250.0 1.3373e-09
22270.0 1.3322e-09
22290.0 1.3275e-09
22310.0 1.3231e-09
22330.0 1.3185e-09
22350.0 1.3142e-09
22370.0 1.31e-09
22390.0 1.3058e-09
22410.0 1.3015e-09
22430.0 1.2973e-09
22450.0 1.2932e-09
22470.0 1.2889e-09
22490.0 1.2846e-09
22510.0 1.2804e-09
22530.0 1.2759e-09
22550.0 1.2714e-09
22570.0 1.267e-09
22590.0 1.2626e-09
22610.0 1.2581e-09
22630.0 1.2537e-09
