#lamb flux
1010.0 0.00048903
1030.0 0.00064864
1050.0 0.00084538
1070.0 0.0010828
1090.0 0.0013704
1110.0 0.0016905
1130.0 0.0020388
1150.0 0.0024259
1170.0 0.0028473
1190.0 0.0032737
1210.0 0.0037186
1230.0 0.0041832
1250.0 0.004642
1270.0 0.005082
1290.0 0.0055229
1310.0 0.0059352
1330.0 0.0062937
1350.0 0.0066087
1370.0 0.0068797
1390.0 0.0070807
1410.0 0.0072079
1430.0 0.0072851
1450.0 0.0072983
1470.0 0.0072413
1490.0 0.0071338
1510.0 0.0069916
1530.0 0.0067927
1550.0 0.0065604
1570.0 0.0063139
1590.0 0.006052
1610.0 0.005774
1630.0 0.0055009
1650.0 0.0052357
1670.0 0.0049733
1690.0 0.0047213
1710.0 0.0044887
1730.0 0.0042718
1750.0 0.0040623
1770.0 0.0038734
1790.0 0.0037036
1810.0 0.0035479
1830.0 0.003408
1850.0 0.0032892
1870.0 0.003184
1890.0 0.0030918
1910.0 0.0030159
1930.0 0.0029558
1950.0 0.0029068
1970.0 0.0028713
1990.0 0.0028517
2010.0 0.0028452
2030.0 0.0028512
2050.0 0.0028736
2070.0 0.0029129
2090.0 0.0029655
2110.0 0.0030354
2130.0 0.0031255
2150.0 0.0032348
2170.0 0.0033632
2190.0 0.0035168
2210.0 0.0036958
2230.0 0.003899
2250.0 0.0041303
2270.0 0.0043945
2290.0 0.0046885
2310.0 0.0050125
2330.0 0.0053728
2350.0 0.0057688
2370.0 0.0061967
2390.0 0.00666
2410.0 0.0071612
2430.0 0.007691
2450.0 0.0082471
2470.0 0.0088305
2490.0 0.0094371
2510.0 0.01006
2530.0 0.010715
2550.0 0.011429
2570.0 0.012235
2590.0 0.013189
2610.0 0.014426
2630.0 0.016052
2650.0 0.018118
2670.0 0.020781
2690.0 0.024182
2710.0 0.028168
2730.0 0.032619
2750.0 0.03765
2770.0 0.042854
2790.0 0.047831
2810.0 0.052535
2830.0 0.056871
2850.0 0.060391
2870.0 0.063302
2890.0 0.065763
2910.0 0.067792
2930.0 0.069449
2950.0 0.070921
2970.0 0.072237
2990.0 0.073366
3010.0 0.074353
3030.0 0.075254
3050.0 0.076024
3070.0 0.076596
3090.0 0.077053
3110.0 0.077349
3130.0 0.077392
3150.0 0.078105
3170.0 0.078396
3190.0 0.078473
3210.0 0.078241
3230.0 0.077403
3250.0 0.074476
3270.0 0.069345
3290.0 0.065186
3310.0 0.064099
3330.0 0.065615
3350.0 0.067604
3370.0 0.069435
3390.0 0.071097
3410.0 0.072621
3430.0 0.074063
3450.0 0.075669
3470.0 0.077765
3490.0 0.078684
3510.0 0.07735
3530.0 0.078897
3550.0 0.083931
3570.0 0.095109
3590.0 0.10559
3610.0 0.11377
3630.0 0.12205
3650.0 0.118
3670.0 0.1049
3690.0 0.094978
3710.0 0.094379
3730.0 0.10017
3750.0 0.10397
3770.0 0.10612
3790.0 0.10757
3810.0 0.10564
3830.0 0.097019
3850.0 0.087244
3870.0 0.082518
3890.0 0.085945
3910.0 0.089211
3930.0 0.089767
3950.0 0.092375
3970.0 0.096645
3990.0 0.099341
4010.0 0.10101
4030.0 0.098506
4050.0 0.095322
4070.0 0.09413
4090.0 0.094961
4110.0 0.095781
4130.0 0.093742
4150.0 0.090857
4170.0 0.089921
4190.0 0.090187
4210.0 0.086295
4230.0 0.079913
4250.0 0.072053
4270.0 0.06455
4290.0 0.059797
4310.0 0.057351
4330.0 0.058631
4350.0 0.063865
4370.0 0.067791
4390.0 0.073215
4410.0 0.078105
4430.0 0.080005
4450.0 0.076687
4470.0 0.072715
4490.0 0.071726
4510.0 0.071738
4530.0 0.072169
4550.0 0.071938
4570.0 0.072297
4590.0 0.07434
4610.0 0.07624
4630.0 0.077923
4650.0 0.079161
4670.0 0.07867
4690.0 0.074696
4710.0 0.070263
4730.0 0.067644
4750.0 0.065969
4770.0 0.063745
4790.0 0.062747
4810.0 0.061564
4830.0 0.062443
4850.0 0.062414
4870.0 0.064427
4890.0 0.061588
4910.0 0.058186
4930.0 0.054765
4950.0 0.049855
4970.0 0.04604
4990.0 0.043691
5010.0 0.041376
5030.0 0.040992
5050.0 0.042107
5070.0 0.044347
5090.0 0.046688
5110.0 0.048737
5130.0 0.050047
5150.0 0.050794
5170.0 0.050758
5190.0 0.050911
5210.0 0.050716
5230.0 0.050119
5250.0 0.050205
5270.0 0.050933
5290.0 0.050275
5310.0 0.048696
5330.0 0.046625
5350.0 0.044513
5370.0 0.043402
5390.0 0.042692
5410.0 0.043083
5430.0 0.043092
5450.0 0.042868
5470.0 0.0427
5490.0 0.043407
5510.0 0.043602
5530.0 0.042953
5550.0 0.043025
5570.0 0.043473
5590.0 0.043808
5610.0 0.043145
5630.0 0.042467
5650.0 0.041535
5670.0 0.041185
5690.0 0.040179
5710.0 0.03962
5730.0 0.039148
5750.0 0.038486
5770.0 0.03778
5790.0 0.036878
5810.0 0.036469
5830.0 0.036628
5850.0 0.03681
5870.0 0.03672
5890.0 0.036704
5910.0 0.037084
5930.0 0.037614
5950.0 0.037463
5970.0 0.037756
5990.0 0.037958
6010.0 0.037989
6030.0 0.037579
6050.0 0.036915
6070.0 0.036913
6090.0 0.037019
6110.0 0.036559
6130.0 0.035889
6150.0 0.034866
6170.0 0.033327
6190.0 0.031521
6210.0 0.030843
6230.0 0.030426
6250.0 0.030277
6270.0 0.030832
6290.0 0.031396
6310.0 0.031848
6330.0 0.032305
6350.0 0.032556
6370.0 0.03234
6390.0 0.031504
6410.0 0.030874
6430.0 0.030218
6450.0 0.029631
6470.0 0.029248
6490.0 0.029249
6510.0 0.028991
6530.0 0.028798
6550.0 0.028409
6570.0 0.028072
6590.0 0.027843
6610.0 0.027434
6630.0 0.027112
6650.0 0.02665
6670.0 0.026046
6690.0 0.025285
6710.0 0.024731
6730.0 0.024394
6750.0 0.024182
6770.0 0.02412
6790.0 0.023591
6810.0 0.023465
6830.0 0.023265
6850.0 0.022902
6870.0 0.022419
6890.0 0.022116
6910.0 0.021991
6930.0 0.021545
6950.0 0.02157
6970.0 0.021378
6990.0 0.021209
7010.0 0.020774
7030.0 0.020631
7050.0 0.020484
7070.0 0.019967
7090.0 0.019341
7110.0 0.019206
7130.0 0.019304
7150.0 0.019352
7170.0 0.01946
7190.0 0.019612
7210.0 0.02
7230.0 0.020129
7250.0 0.020351
7270.0 0.019922
7290.0 0.019828
7310.0 0.019383
7330.0 0.019054
7350.0 0.018576
7370.0 0.018382
7390.0 0.018375
7410.0 0.018106
7430.0 0.018115
7450.0 0.017726
7470.0 0.017615
7490.0 0.017076
7510.0 0.016561
7530.0 0.016689
7550.0 0.016126
7570.0 0.016094
7590.0 0.015452
7610.0 0.015814
7630.0 0.015617
7650.0 0.015835
7670.0 0.015388
7690.0 0.015512
7710.0 0.015329
7730.0 0.015995
7750.0 0.01588
7770.0 0.016623
7790.0 0.017113
7810.0 0.017258
7830.0 0.017961
7850.0 0.017694
7870.0 0.018399
7890.0 0.018045
7910.0 0.017731
7930.0 0.017382
7950.0 0.017157
7970.0 0.017189
7990.0 0.017077
8010.0 0.016424
8030.0 0.016289
8050.0 0.015949
8070.0 0.01572
8090.0 0.014807
8110.0 0.014893
8130.0 0.015524
8150.0 0.015987
8170.0 0.015996
8190.0 0.016406
8210.0 0.016159
8230.0 0.015635
8250.0 0.015552
8270.0 0.015255
8290.0 0.014951
8310.0 0.014237
8330.0 0.014304
8350.0 0.014401
8370.0 0.014486
8390.0 0.014586
8410.0 0.014391
8430.0 0.014332
8450.0 0.014381
8470.0 0.014726
8490.0 0.014917
8510.0 0.014477
8530.0 0.013909
8550.0 0.013939
8570.0 0.013762
8590.0 0.013386
8610.0 0.013645
8630.0 0.013512
8650.0 0.013326
8670.0 0.013226
8690.0 0.013124
8710.0 0.012523
8730.0 0.012669
8750.0 0.012303
8770.0 0.012327
8790.0 0.012039
8810.0 0.011805
8830.0 0.011875
8850.0 0.011673
8870.0 0.01113
8890.0 0.010871
8910.0 0.010389
8930.0 0.0097295
8950.0 0.009624
8970.0 0.0092171
8990.0 0.0091048
9010.0 0.0089027
9030.0 0.0088215
9050.0 0.0087628
9070.0 0.0087047
9090.0 0.0086461
9110.0 0.0085863
9130.0 0.0085265
9150.0 0.0084678
9170.0 0.0084085
9190.0 0.0083488
9210.0 0.0082887
9230.0 0.0082284
9250.0 0.008168
9270.0 0.0081073
9290.0 0.0080466
9310.0 0.0079862
9330.0 0.0079262
9350.0 0.0078662
9370.0 0.0078062
9390.0 0.0077463
9410.0 0.0076864
9430.0 0.0076266
9450.0 0.007567
9470.0 0.0075128
9490.0 0.007456
9510.0 0.0073939
9530.0 0.0073327
9550.0 0.0072729
9570.0 0.0072139
9590.0 0.0071553
9610.0 0.0070975
9630.0 0.0070405
9650.0 0.0069836
9670.0 0.0069269
9690.0 0.0068709
9710.0 0.0068153
9730.0 0.0067598
9750.0 0.0067048
9770.0 0.0066507
9790.0 0.0065967
9810.0 0.006543
9830.0 0.0064895
9850.0 0.0064312
9870.0 0.0063748
9890.0 0.0063275
9910.0 0.0062795
9930.0 0.0062209
9950.0 0.0061707
9970.0 0.0061256
9990.0 0.0060791
10010.0 0.0060331
10030.0 0.0059864
10050.0 0.0059392
10070.0 0.0058928
10090.0 0.0058471
10110.0 0.005801
10130.0 0.0057556
10150.0 0.0057114
10170.0 0.0056676
10190.0 0.0056238
10210.0 0.0055813
10230.0 0.0055395
10250.0 0.0054977
10270.0 0.0054566
10290.0 0.0054166
10310.0 0.0053766
10330.0 0.0053368
10350.0 0.0052983
10370.0 0.0052604
10390.0 0.0052224
10410.0 0.0051836
10430.0 0.0051455
10450.0 0.0051114
10470.0 0.0050765
10490.0 0.0050426
10510.0 0.0050091
10530.0 0.0049749
10550.0 0.0049417
10570.0 0.0049096
10590.0 0.0048775
10610.0 0.0048456
10630.0 0.0048149
10650.0 0.0047848
10670.0 0.0047542
10690.0 0.0047246
10710.0 0.0046961
10730.0 0.0046674
10750.0 0.0046386
10770.0 0.0046116
10790.0 0.0045847
10810.0 0.0045577
10830.0 0.0045316
10850.0 0.0045066
10870.0 0.0044809
10890.0 0.0044557
10910.0 0.0044318
10930.0 0.0044082
10950.0 0.0043845
10970.0 0.0043618
10990.0 0.0043402
11010.0 0.0043745
11030.0 0.004348
11050.0 0.0043217
11070.0 0.0042947
11090.0 0.004266
11110.0 0.0042379
11130.0 0.0042098
11150.0 0.0041807
11170.0 0.0041511
11190.0 0.0041226
11210.0 0.0040935
11230.0 0.0040637
11250.0 0.0040351
11270.0 0.0040075
11290.0 0.0039795
11310.0 0.0039525
11330.0 0.0039281
11350.0 0.0039044
11370.0 0.0038816
11390.0 0.003861
11410.0 0.0038421
11430.0 0.0038233
11450.0 0.0038061
11470.0 0.0037904
11490.0 0.0037751
11510.0 0.0037598
11530.0 0.0037456
11550.0 0.0037318
11570.0 0.0037172
11590.0 0.0037028
11610.0 0.0036889
11630.0 0.0036741
11650.0 0.0036585
11670.0 0.0036436
11690.0 0.0036286
11710.0 0.0036126
11730.0 0.0035967
11750.0 0.0035816
11770.0 0.0035657
11790.0 0.0035494
11810.0 0.003534
11830.0 0.003519
11850.0 0.0035029
11870.0 0.0034882
11890.0 0.0034749
11910.0 0.0034618
11930.0 0.0034494
11950.0 0.0034392
11970.0 0.0034302
11990.0 0.0034219
12010.0 0.003416
12030.0 0.0034123
12050.0 0.0034101
12070.0 0.0034098
12090.0 0.0034122
12110.0 0.0034164
12130.0 0.0034224
12150.0 0.0034304
12170.0 0.00344
12190.0 0.0034509
12210.0 0.003463
12230.0 0.0034759
12250.0 0.0034893
12270.0 0.0035029
12290.0 0.0035164
12310.0 0.0035294
12330.0 0.0035416
12350.0 0.0035528
12370.0 0.0035629
12390.0 0.0035716
12410.0 0.0035782
12430.0 0.0035835
12450.0 0.0035871
12470.0 0.0035886
12490.0 0.003588
12510.0 0.0035863
12530.0 0.0035823
12550.0 0.0035757
12570.0 0.0035681
12590.0 0.003559
12610.0 0.0035471
12630.0 0.0035336
12650.0 0.0035204
12670.0 0.003505
12690.0 0.0034879
12710.0 0.003471
12730.0 0.0034538
12750.0 0.0034342
12770.0 0.003415
12790.0 0.0033969
12810.0 0.003378
12830.0 0.0033586
12850.0 0.0033413
12870.0 0.0033248
12890.0 0.0033081
12910.0 0.003293
12930.0 0.0032801
12950.0 0.0032676
12970.0 0.0032563
12990.0 0.0032481
13010.0 0.0032416
13030.0 0.0032366
13050.0 0.0032338
13070.0 0.0032334
13090.0 0.0032343
13110.0 0.0032368
13130.0 0.0032411
13150.0 0.0032465
13170.0 0.0032525
13190.0 0.0032594
13210.0 0.0032668
13230.0 0.0032742
13250.0 0.0032813
13270.0 0.0032883
13290.0 0.0032947
13310.0 0.0033
13330.0 0.0033045
13350.0 0.0033081
13370.0 0.0033101
13390.0 0.0033103
13410.0 0.0033096
13430.0 0.0033069
13450.0 0.0033021
13470.0 0.0032957
13490.0 0.0032879
13510.0 0.0032771
13530.0 0.0032647
13550.0 0.0032515
13570.0 0.0032364
13590.0 0.0032192
13610.0 0.0032015
13630.0 0.0031833
13650.0 0.0031628
13670.0 0.0031415
13690.0 0.0031202
13710.0 0.0030975
13730.0 0.0030725
13750.0 0.0030483
13770.0 0.0030237
13790.0 0.0029973
13810.0 0.0029705
13830.0 0.0029446
13850.0 0.0029173
13870.0 0.0028892
13890.0 0.002862
13910.0 0.0028352
13930.0 0.0028073
13950.0 0.00278
13970.0 0.0027547
13990.0 0.0027289
14010.0 0.0027034
14030.0 0.0026794
14050.0 0.0026562
14070.0 0.0026323
14090.0 0.0026098
14110.0 0.0025884
14130.0 0.0025671
14150.0 0.0025457
14170.0 0.0025257
14190.0 0.0025059
14210.0 0.0024857
14230.0 0.002466
14250.0 0.002447
14270.0 0.0024274
14290.0 0.0024077
14310.0 0.002389
14330.0 0.0023704
14350.0 0.0023516
14370.0 0.0023334
14390.0 0.0023161
14410.0 0.0022985
14430.0 0.0022813
14450.0 0.0022648
14470.0 0.0022487
14490.0 0.0022323
14510.0 0.0022165
14530.0 0.002201
14550.0 0.0021853
14570.0 0.0021695
14590.0 0.002154
14610.0 0.0021381
14630.0 0.0021216
14650.0 0.0021052
14670.0 0.0020887
14690.0 0.0020716
14710.0 0.0020541
14730.0 0.0020369
14750.0 0.0020192
14770.0 0.0020009
14790.0 0.0019826
14810.0 0.0019643
14830.0 0.001945
14850.0 0.0019257
14870.0 0.0019065
14890.0 0.0018869
14910.0 0.0018669
14930.0 0.0018475
14950.0 0.0018286
14970.0 0.0018097
14990.0 0.0017917
15010.0 0.0017747
15030.0 0.0017584
15050.0 0.0017426
15070.0 0.0017277
15090.0 0.0017133
15110.0 0.001699
15130.0 0.001685
15150.0 0.0016711
15170.0 0.0016571
15190.0 0.001643
15210.0 0.0016291
15230.0 0.0016151
15250.0 0.001601
15270.0 0.0015869
15290.0 0.0015729
15310.0 0.0015588
15330.0 0.0015447
15350.0 0.0015307
15370.0 0.0015167
15390.0 0.0015025
15410.0 0.0014884
15430.0 0.0014744
15450.0 0.0014604
15470.0 0.0014463
15490.0 0.0014324
15510.0 0.0014185
15530.0 0.0014046
15550.0 0.0013907
15570.0 0.001377
15590.0 0.0013631
15610.0 0.0013493
15630.0 0.0013357
15650.0 0.0013221
15670.0 0.0013085
15690.0 0.001295
15710.0 0.0012817
15730.0 0.0012682
15750.0 0.0012549
15770.0 0.0012417
15790.0 0.0012286
15810.0 0.0012154
15830.0 0.0012024
15850.0 0.0011896
15870.0 0.0011767
15890.0 0.0011639
15910.0 0.0011513
15930.0 0.0011387
15950.0 0.0011261
15970.0 0.0011138
15990.0 0.0011015
16010.0 0.0010893
16030.0 0.0010771
16050.0 0.0010651
16070.0 0.0010532
16090.0 0.0010414
16110.0 0.0010297
16130.0 0.0010181
16150.0 0.0010065
16170.0 0.00099508
16190.0 0.00098384
16210.0 0.00097265
16230.0 0.00096149
16250.0 0.00095054
16270.0 0.00093973
16290.0 0.00092892
16310.0 0.00091824
16330.0 0.00090775
16350.0 0.00089731
16370.0 0.00088686
16390.0 0.00087669
16410.0 0.00086662
16430.0 0.00085658
16450.0 0.00084668
16470.0 0.00083698
16490.0 0.00082728
16510.0 0.00081767
16530.0 0.00080825
16550.0 0.00079894
16570.0 0.00078965
16590.0 0.00078049
16610.0 0.00077156
16630.0 0.00076265
16650.0 0.00075381
16670.0 0.00074517
16690.0 0.00073663
16710.0 0.00072808
16730.0 0.0007197
16750.0 0.00071149
16770.0 0.00070332
16790.0 0.00069522
16810.0 0.00068732
16830.0 0.00067951
16850.0 0.00067173
16870.0 0.0006641
16890.0 0.00065662
16910.0 0.00064914
16930.0 0.00064175
16950.0 0.00063456
16970.0 0.00062745
16990.0 0.00062037
17010.0 0.00061344
17030.0 0.00060665
17050.0 0.00059987
17070.0 0.00059319
17090.0 0.00058666
17110.0 0.00058021
17130.0 0.00057377
17150.0 0.00056749
17170.0 0.00056135
17190.0 0.00055522
17210.0 0.00054919
17230.0 0.00054331
17250.0 0.00053748
17270.0 0.00053167
17290.0 0.00052601
17310.0 0.00052046
17330.0 0.00051492
17350.0 0.00050947
17370.0 0.00050418
17390.0 0.00049893
17410.0 0.00049372
17430.0 0.00048864
17450.0 0.00048366
17470.0 0.00047866
17490.0 0.00047377
17510.0 0.00046901
17530.0 0.00046429
17550.0 0.00045961
17570.0 0.00045506
17590.0 0.00045059
17610.0 0.00044613
17630.0 0.00044176
17650.0 0.0004375
17670.0 0.00043327
17690.0 0.00042904
17710.0 0.00042498
17730.0 0.00042098
17750.0 0.00041699
17770.0 0.00041309
17790.0 0.0004093
17810.0 0.00040551
17830.0 0.00040176
17850.0 0.00039813
17870.0 0.00039456
17890.0 0.00039098
17910.0 0.00038749
17930.0 0.00038412
17950.0 0.00038075
17970.0 0.00037742
17990.0 0.0003742
18010.0 0.00037102
18030.0 0.00036783
18050.0 0.00036473
18070.0 0.00036172
18090.0 0.00035872
18110.0 0.00035575
18130.0 0.0003529
18150.0 0.00035008
18170.0 0.00034726
18190.0 0.00034452
18210.0 0.00034186
18230.0 0.00033919
18250.0 0.00033655
18270.0 0.00033402
18290.0 0.00033152
18310.0 0.00032902
18330.0 0.0003266
18350.0 0.00032426
18370.0 0.00032189
18390.0 0.00031958
18410.0 0.00031734
18430.0 0.00031513
18450.0 0.00031291
18470.0 0.00031078
18490.0 0.00030871
18510.0 0.00030663
18530.0 0.00030459
18550.0 0.00030264
18570.0 0.00030069
18590.0 0.00029873
18610.0 0.00029687
18630.0 0.00029504
18650.0 0.00029321
18670.0 0.00029141
18690.0 0.00028971
18710.0 0.000288
18730.0 0.0002863
18750.0 0.00028467
18770.0 0.00028309
18790.0 0.00028146
18810.0 0.0002799
18830.0 0.00027841
18850.0 0.00027691
18870.0 0.00027542
18890.0 0.00027402
18910.0 0.00027264
18930.0 0.00027124
18950.0 0.00026988
18970.0 0.00026859
18990.0 0.0002673
19010.0 0.00026598
19030.0 0.00026477
19050.0 0.00026357
19070.0 0.00026236
19090.0 0.0002612
19110.0 0.00026011
19130.0 0.00025897
19150.0 0.00025786
19170.0 0.00025681
19190.0 0.00025578
19210.0 0.00025473
19230.0 0.00025373
19250.0 0.0002528
19270.0 0.00025184
19290.0 0.00025089
19310.0 0.00025001
19330.0 0.00024915
19350.0 0.00024823
19370.0 0.00024739
19390.0 0.0002466
19410.0 0.00024578
19430.0 0.00024497
19450.0 0.00024424
19470.0 0.00024351
19490.0 0.00024276
19510.0 0.00024206
19530.0 0.00024141
19550.0 0.00024071
19570.0 0.00024002
19590.0 0.00023942
19610.0 0.00023882
19630.0 0.00023819
19650.0 0.00023762
19670.0 0.0002371
19690.0 0.00023652
19710.0 0.00023597
19730.0 0.00023548
19750.0 0.00023499
19770.0 0.00023445
19790.0 0.000234
19810.0 0.00023357
19830.0 0.00023312
19850.0 0.00023269
19870.0 0.00023233
19890.0 0.00023194
19910.0 0.00023156
19930.0 0.00023128
19950.0 0.00023108
19970.0 0.00023093
19990.0 0.0002309
20010.0 0.00023105
20030.0 0.00023131
20050.0 0.00023171
20070.0 0.00023228
20090.0 0.00023297
20110.0 0.00023374
20130.0 0.00023462
20150.0 0.0002356
20170.0 0.00023663
20190.0 0.00023772
20210.0 0.00023887
20230.0 0.00024007
20250.0 0.0002413
20270.0 0.00024256
20290.0 0.00024386
20310.0 0.00024517
20330.0 0.0002465
20350.0 0.00024785
20370.0 0.00024921
20390.0 0.00025058
20410.0 0.00025195
20430.0 0.00025334
20450.0 0.00025473
20470.0 0.00025613
20490.0 0.00025755
20510.0 0.000259
20530.0 0.00026046
20550.0 0.00026197
20570.0 0.00026352
20590.0 0.00026511
20610.0 0.00026674
20630.0 0.00026843
20650.0 0.00027016
20670.0 0.00027193
20690.0 0.00027376
20710.0 0.00027563
20730.0 0.00027753
20750.0 0.00027945
20770.0 0.00028141
20790.0 0.00028337
20810.0 0.00028532
20830.0 0.00028728
20850.0 0.00028924
20870.0 0.00029115
20890.0 0.00029303
20910.0 0.00029492
20930.0 0.00029676
20950.0 0.00029856
20970.0 0.00030036
20990.0 0.00030214
21010.0 0.00030387
21030.0 0.00030558
21050.0 0.00030733
21070.0 0.00030905
21090.0 0.00031074
21110.0 0.00031248
21130.0 0.00031425
21150.0 0.00031599
21170.0 0.00031775
21190.0 0.00031957
21210.0 0.00032136
21230.0 0.00032313
21250.0 0.00032495
21270.0 0.00032678
21290.0 0.00032855
21310.0 0.00033032
21330.0 0.00033214
21350.0 0.00033389
21370.0 0.00033558
21390.0 0.00033731
21410.0 0.00033901
21430.0 0.00034057
21450.0 0.00034216
21470.0 0.00034377
21490.0 0.00034529
21510.0 0.00034676
21530.0 0.00034828
21550.0 0.00034976
21570.0 0.00035113
21590.0 0.00035252
21610.0 0.00035396
21630.0 0.00035531
21650.0 0.00035656
21670.0 0.00035797
21690.0 0.00035933
21710.0 0.0003606
21730.0 0.00036191
21750.0 0.00036329
21770.0 0.00036451
21790.0 0.00036573
21810.0 0.00036705
21830.0 0.00036832
21850.0 0.00036949
21870.0 0.00037074
21890.0 0.00037208
21910.0 0.0003733
21930.0 0.00037453
21950.0 0.00037589
21970.0 0.00037723
21990.0 0.00037846
22010.0 0.00037988
22030.0 0.00038138
22050.0 0.00038286
22070.0 0.0003844
22090.0 0.00038616
22110.0 0.00038792
22130.0 0.00038971
22150.0 0.00039168
22170.0 0.00039378
22190.0 0.00039587
22210.0 0.00039807
22230.0 0.00040049
22250.0 0.00040295
22270.0 0.00040544
22290.0 0.0004081
22310.0 0.00041085
22330.0 0.00041357
22350.0 0.00041638
22370.0 0.00041932
22390.0 0.00042227
22410.0 0.00042519
22430.0 0.00042827
22450.0 0.0004314
22470.0 0.0004345
22490.0 0.00043766
22510.0 0.00044095
22530.0 0.0004442
22550.0 0.00044746
22570.0 0.00045088
22590.0 0.00045435
22610.0 0.00045782
22630.0 0.00046138
22650.0 0.00046511
22670.0 0.00046882
22690.0 0.0004726
22710.0 0.00047652
22730.0 0.00048053
22750.0 0.00048452
22770.0 0.00048867
22790.0 0.00049299
22810.0 0.00049735
22830.0 0.00050182
22850.0 0.00050649
22870.0 0.00051127
22890.0 0.00051615
22910.0 0.00052125
22930.0 0.00052655
22950.0 0.00053201
22970.0 0.00053765
22990.0 0.0005436
23010.0 0.00054976
23030.0 0.00055616
23050.0 0.00056284
23070.0 0.00056979
23090.0 0.00057703
23110.0 0.00058457
23130.0 0.00059241
23150.0 0.00060057
23170.0 0.00060906
23190.0 0.00061786
23210.0 0.00062693
23230.0 0.00063637
23250.0 0.0006461
23270.0 0.00065606
23290.0 0.00066632
23310.0 0.00067691
23330.0 0.00068764
23350.0 0.00069853
23370.0 0.00070965
23390.0 0.00072091
23410.0 0.00073219
23430.0 0.00074362
23450.0 0.00075515
23470.0 0.00076667
23490.0 0.00077823
23510.0 0.00078991
23530.0 0.00080163
23550.0 0.00081337
23570.0 0.00082525
23590.0 0.00083728
23610.0 0.00084943
23630.0 0.00086177
23650.0 0.0008744
23670.0 0.00088727
23690.0 0.00090037
23710.0 0.00091382
23730.0 0.00092765
23750.0 0.00094174
23770.0 0.00095618
