#lamb flux
1010.0 5.6414e-07
1030.0 6.3197e-07
1050.0 6.9929e-07
1070.0 7.7537e-07
1090.0 8.6522e-07
1110.0 9.5732e-07
1130.0 1.0503e-06
1150.0 1.1482e-06
1170.0 1.2502e-06
1190.0 1.3488e-06
1210.0 1.451e-06
1230.0 1.5592e-06
1250.0 1.6681e-06
1270.0 1.7781e-06
1290.0 1.8978e-06
1310.0 2.022e-06
1330.0 2.1465e-06
1350.0 2.2765e-06
1370.0 2.4138e-06
1390.0 2.5521e-06
1410.0 2.6901e-06
1430.0 2.8352e-06
1450.0 2.9819e-06
1470.0 3.1257e-06
1490.0 3.2706e-06
1510.0 3.4214e-06
1530.0 3.5646e-06
1550.0 3.7041e-06
1570.0 3.845e-06
1590.0 3.9826e-06
1610.0 4.1108e-06
1630.0 4.2368e-06
1650.0 4.3609e-06
1670.0 4.4755e-06
1690.0 4.5826e-06
1710.0 4.688e-06
1730.0 4.7878e-06
1750.0 4.874e-06
1770.0 4.9573e-06
1790.0 5.0368e-06
1810.0 5.107e-06
1830.0 5.1701e-06
1850.0 5.2354e-06
1870.0 5.2938e-06
1890.0 5.3454e-06
1910.0 5.3968e-06
1930.0 5.4492e-06
1950.0 5.4957e-06
1970.0 5.5406e-06
1990.0 5.5893e-06
2010.0 5.6364e-06
2030.0 5.6801e-06
2050.0 5.7269e-06
2070.0 5.7756e-06
2090.0 5.8176e-06
2110.0 5.8577e-06
2130.0 5.8981e-06
2150.0 5.9332e-06
2170.0 5.96e-06
2190.0 5.9849e-06
2210.0 6.0042e-06
2230.0 6.0129e-06
2250.0 6.0138e-06
2270.0 6.0104e-06
2290.0 5.9958e-06
2310.0 5.969e-06
2330.0 5.936e-06
2350.0 5.8947e-06
2370.0 5.8412e-06
2390.0 5.7796e-06
2410.0 5.712e-06
2430.0 5.6321e-06
2450.0 5.5402e-06
2470.0 5.4387e-06
2490.0 5.3268e-06
2510.0 5.2051e-06
2530.0 5.0861e-06
2550.0 4.988e-06
2570.0 4.9331e-06
2590.0 4.9459e-06
2610.0 5.0785e-06
2630.0 5.3461e-06
2650.0 5.7236e-06
2670.0 6.2115e-06
2690.0 6.7791e-06
2710.0 7.3127e-06
2730.0 7.7472e-06
2750.0 8.0638e-06
2770.0 8.174e-06
2790.0 8.0538e-06
2810.0 7.7165e-06
2830.0 7.1531e-06
2850.0 6.4272e-06
2870.0 5.5779e-06
2890.0 4.6109e-06
2910.0 3.5756e-06
2930.0 2.5292e-06
2950.0 1.4253e-06
2970.0 3.8733e-07
2990.0 3.8733e-07
3010.0 7.8652e-07
3030.0 7.8652e-07
3050.0 7.8652e-07
3070.0 7.8652e-07
3090.0 7.8652e-07
3110.0 7.8652e-07
3130.0 7.8652e-07
3150.0 7.8652e-07
3170.0 7.8652e-07
3190.0 7.8652e-07
3210.0 7.8652e-07
3230.0 3.1973e-05
3250.0 5.6956e-05
3270.0 5.3427e-05
3290.0 4.9873e-05
3310.0 3.7909e-05
3330.0 3.6792e-05
3350.0 4.0633e-05
3370.0 4.6361e-05
3390.0 5.2667e-05
3410.0 5.943e-05
3430.0 6.8343e-05
3450.0 7.7068e-05
3470.0 8.6106e-05
3490.0 8.942e-05
3510.0 8.1219e-05
3530.0 7.8116e-05
3550.0 8.6433e-05
3570.0 9.2816e-05
3590.0 0.00010059
3610.0 9.8217e-05
3630.0 0.00011899
3650.0 0.00012991
3670.0 0.00013719
3690.0 0.00013631
3710.0 0.0001234
3730.0 0.00012186
3750.0 0.00011576
3770.0 0.00011181
3790.0 0.0001053
3810.0 0.00010015
3830.0 0.00010334
3850.0 5.4761e-05
3870.0 7.3463e-05
3890.0 8.5169e-05
3910.0 0.0001047
3930.0 0.00013439
3950.0 0.00014568
3970.0 0.00016274
3990.0 0.00019495
4010.0 0.0001653
4030.0 0.00014221
4050.0 0.0001027
4070.0 9.6789e-05
4090.0 0.00014266
4110.0 0.00014266
4130.0 0.00015528
4150.0 0.00014882
4170.0 0.00014092
4190.0 0.0001279
4210.0 0.00017232
4230.0 0.00018198
4250.0 0.00019833
4270.0 0.00018882
4290.0 0.00018614
4310.0 0.0002022
4330.0 0.00023749
4350.0 0.00024789
4370.0 0.0002464
4390.0 0.00022482
4410.0 0.00020742
4430.0 0.00016169
4450.0 0.00013166
4470.0 0.00014216
4490.0 0.0001667
4510.0 0.00017353
4530.0 0.0001749
4550.0 0.00017694
4570.0 0.00025211
4590.0 0.00037736
4610.0 0.00044339
4630.0 0.00044913
4650.0 0.00048432
4670.0 0.00056468
4690.0 0.0006121
4710.0 0.00051026
4730.0 0.00038921
4750.0 0.00030489
4770.0 0.00026288
4790.0 0.00024046
4810.0 0.00022796
4830.0 0.00025267
4850.0 0.00029857
4870.0 0.00032739
4890.0 0.00034193
4910.0 0.00032204
4930.0 0.00034819
4950.0 0.00042496
4970.0 0.00049508
4990.0 0.00051343
5010.0 0.00047279
5030.0 0.00039265
5050.0 0.00030243
5070.0 0.00024121
5090.0 0.00021784
5110.0 0.00021443
5130.0 0.00021838
5150.0 0.00021684
5170.0 0.00020391
5190.0 0.00019129
5210.0 0.00018804
5230.0 0.00021336
5250.0 0.00025466
5270.0 0.00030499
5290.0 0.0003483
5310.0 0.00037323
5330.0 0.00041237
5350.0 0.00045858
5370.0 0.0004762
5390.0 0.0004325
5410.0 0.00038526
5430.0 0.00037813
5450.0 0.00044193
5470.0 0.00054664
5490.0 0.00063721
5510.0 0.00067904
5530.0 0.00067155
5550.0 0.00064406
5570.0 0.00062524
5590.0 0.0006049
5610.0 0.00059662
5630.0 0.00059683
5650.0 0.00060139
5670.0 0.00059303
5690.0 0.0005404
5710.0 0.00045874
5730.0 0.00041289
5750.0 0.00039833
5770.0 0.00040996
5790.0 0.00042542
5810.0 0.00044331
5830.0 0.00045257
5850.0 0.00043453
5870.0 0.00041283
5890.0 0.00040478
5910.0 0.00042159
5930.0 0.00044113
5950.0 0.00041775
5970.0 0.00037086
5990.0 0.00030844
6010.0 0.00025081
6030.0 0.00023158
6050.0 0.0002508
6070.0 0.0002666
6090.0 0.00025417
6110.0 0.00022433
6130.0 0.00022956
6150.0 0.00026708
6170.0 0.00030706
6190.0 0.00033705
6210.0 0.00034191
6230.0 0.00033653
6250.0 0.00030732
6270.0 0.00025688
6290.0 0.00021208
6310.0 0.00018822
6330.0 0.00018389
6350.0 0.00018719
6370.0 0.00018974
6390.0 0.00021339
6410.0 0.00026617
6430.0 0.00032849
6450.0 0.00036854
6470.0 0.00037994
6490.0 0.00037734
6510.0 0.00038515
6530.0 0.00039694
6550.0 0.00039501
6570.0 0.00040989
6590.0 0.00042026
6610.0 0.00042742
6630.0 0.00042027
6650.0 0.00039248
6670.0 0.0003581
6690.0 0.00032563
6710.0 0.00030819
6730.0 0.0003044
6750.0 0.00030992
6770.0 0.00031841
6790.0 0.00032875
6810.0 0.00033573
6830.0 0.00032932
6850.0 0.00031342
6870.0 0.00029362
6890.0 0.00028701
6910.0 0.00027837
6930.0 0.00028809
6950.0 0.00030526
6970.0 0.00031333
6990.0 0.00031915
7010.0 0.00031002
7030.0 0.00028507
7050.0 0.00025223
7070.0 0.00022506
7090.0 0.00021061
7110.0 0.00020878
7130.0 0.00020377
7150.0 0.00018213
7170.0 0.0001728
7190.0 0.00018906
7210.0 0.00021862
7230.0 0.00025209
7250.0 0.00026686
7270.0 0.00026378
7290.0 0.00024328
7310.0 0.00022457
7330.0 0.0002155
7350.0 0.0002161
7370.0 0.00022018
7390.0 0.00023064
7410.0 0.00025556
7430.0 0.00029535
7450.0 0.00033345
7470.0 0.00035172
7490.0 0.00034352
7510.0 0.00031973
7530.0 0.00027761
7550.0 0.0002519
7570.0 0.00022456
7590.0 0.00021103
7610.0 0.00021617
7630.0 0.00023326
7650.0 0.00025746
7670.0 0.00028188
7690.0 0.00029885
7710.0 0.00031654
7730.0 0.00033469
7750.0 0.00034985
7770.0 0.00034604
7790.0 0.00034741
7810.0 0.00035265
7830.0 0.00035037
7850.0 0.00033819
7870.0 0.00032675
7890.0 0.00032792
7910.0 0.00031831
7930.0 0.00031289
7950.0 0.00029599
7970.0 0.00028709
7990.0 0.00027618
8010.0 0.00027964
8030.0 0.00028131
8050.0 0.00028271
8070.0 0.000279
8090.0 0.00027669
8110.0 0.00026639
8130.0 0.00026554
8150.0 0.00026171
8170.0 0.00025462
8190.0 0.00024883
8210.0 0.00024743
8230.0 0.00024098
8250.0 0.00023569
8270.0 0.00021329
8290.0 0.00017408
8310.0 0.00013079
8330.0 0.00010102
8350.0 9.4422e-05
8370.0 0.00011253
8390.0 0.00013635
8410.0 0.00014722
8430.0 0.00015095
8450.0 0.00015862
8470.0 0.00016982
8490.0 0.0001901
8510.0 0.0002168
8530.0 0.00024878
8550.0 0.00027866
8570.0 0.00030322
8590.0 0.00032199
8610.0 0.00033257
8630.0 0.00033291
8650.0 0.00032942
8670.0 0.0003292
8690.0 0.00034546
8710.0 0.00036724
8730.0 0.00038172
8750.0 0.00038001
8770.0 0.00038498
8790.0 0.00038322
8810.0 0.00035968
8830.0 0.00033864
8850.0 0.00031078
8870.0 0.00028827
8890.0 0.00028078
8910.0 0.00028104
8930.0 0.00026538
8950.0 0.00024759
8970.0 0.00024014
8990.0 0.00023798
9010.0 0.00022884
9030.0 0.0002237
9050.0 0.00022181
9070.0 0.00022094
9090.0 0.00022019
9110.0 0.00021947
9130.0 0.00021874
9150.0 0.00021802
9170.0 0.00021721
9190.0 0.00021663
9210.0 0.00021689
9230.0 0.00021579
9250.0 0.00021488
9270.0 0.00021408
9290.0 0.00021335
9310.0 0.00021264
9330.0 0.00021195
9350.0 0.00021132
9370.0 0.00021069
9390.0 0.00021005
9410.0 0.00020944
9430.0 0.0002088
9450.0 0.0002079
9470.0 0.00020709
9490.0 0.00020676
9510.0 0.00020629
9530.0 0.00020578
9550.0 0.00020526
9570.0 0.00020471
9590.0 0.00020416
9610.0 0.0002036
9630.0 0.00020305
9650.0 0.0002025
9670.0 0.00020194
9690.0 0.00020139
9710.0 0.00020085
9730.0 0.0002003
9750.0 0.00019975
9770.0 0.00019921
9790.0 0.00019867
9810.0 0.00019813
9830.0 0.00019759
9850.0 0.00019705
9870.0 0.0001965
9890.0 0.00019595
9910.0 0.0001954
9930.0 0.00019483
9950.0 0.00019276
9970.0 0.00019265
9990.0 0.00019244
10010.0 0.00019219
10030.0 0.00019181
10050.0 0.00019131
10070.0 0.0001908
10090.0 0.00019029
10110.0 0.00018966
10130.0 0.00018907
10150.0 0.00018848
10170.0 0.00018785
10190.0 0.00018716
10210.0 0.00018652
10230.0 0.0001859
10250.0 0.00018521
10270.0 0.00018452
10290.0 0.00018387
10310.0 0.00018315
10330.0 0.00018238
10350.0 0.00018166
10370.0 0.00018094
10390.0 0.00018014
10410.0 0.00017934
10430.0 0.0001786
10450.0 0.00017779
10470.0 0.00017692
10490.0 0.0001761
10510.0 0.00017526
10530.0 0.00017431
10550.0 0.00017339
10570.0 0.00017251
10590.0 0.00017156
10610.0 0.00017056
10630.0 0.00016962
10650.0 0.00016864
10670.0 0.00016756
10690.0 0.00016651
10710.0 0.00016547
10730.0 0.00016437
10750.0 0.00016318
10770.0 0.00016209
10790.0 0.00016095
10810.0 0.00015973
10830.0 0.00015852
10850.0 0.00015735
10870.0 0.00015604
10890.0 0.0001547
10910.0 0.0001534
10930.0 0.00015204
10950.0 0.00015056
10970.0 0.00014906
10990.0 0.00014757
11010.0 0.00015572
11030.0 0.00015392
11050.0 0.00015218
11070.0 0.0001504
11090.0 0.0001485
11110.0 0.00014675
11130.0 0.00014507
11150.0 0.00014336
11170.0 0.00014168
11190.0 0.00014012
11210.0 0.00013854
11230.0 0.00013692
11250.0 0.00013538
11270.0 0.00013388
11290.0 0.00013231
11310.0 0.00013075
11330.0 0.00012929
11350.0 0.00012778
11370.0 0.00012622
11390.0 0.00012469
11410.0 0.00012316
11430.0 0.00012147
11450.0 0.00011975
11470.0 0.00011802
11490.0 0.00011616
11510.0 0.00011414
11530.0 0.00011211
11550.0 0.00011002
11570.0 0.00010775
11590.0 0.00010542
11610.0 0.00010312
11630.0 0.00010068
11650.0 9.815e-05
11670.0 9.5731e-05
11690.0 9.3324e-05
11710.0 9.0862e-05
11730.0 8.8472e-05
11750.0 8.6229e-05
11770.0 8.3965e-05
11790.0 8.1746e-05
11810.0 7.9673e-05
11830.0 7.7678e-05
11850.0 7.5662e-05
11870.0 7.378e-05
11890.0 7.2027e-05
11910.0 7.0288e-05
11930.0 6.8596e-05
11950.0 6.7027e-05
11970.0 6.5502e-05
11990.0 6.3979e-05
12010.0 6.2554e-05
12030.0 6.1218e-05
12050.0 5.9909e-05
12070.0 5.8649e-05
12090.0 5.7533e-05
12110.0 5.6481e-05
12130.0 5.5494e-05
12150.0 5.4624e-05
12170.0 5.3873e-05
12190.0 5.3196e-05
12210.0 5.2643e-05
12230.0 5.2222e-05
12250.0 5.1912e-05
12270.0 5.1722e-05
12290.0 5.1654e-05
12310.0 5.1691e-05
12330.0 5.1849e-05
12350.0 5.2115e-05
12370.0 5.2464e-05
12390.0 5.2909e-05
12410.0 5.3479e-05
12430.0 5.4085e-05
12450.0 5.4744e-05
12470.0 5.5486e-05
12490.0 5.627e-05
12510.0 5.7034e-05
12530.0 5.7836e-05
12550.0 5.8655e-05
12570.0 5.9412e-05
12590.0 6.0112e-05
12610.0 6.0779e-05
12630.0 6.135e-05
12650.0 6.1773e-05
12670.0 6.2095e-05
12690.0 6.2288e-05
12710.0 6.2324e-05
12730.0 6.2217e-05
12750.0 6.1965e-05
12770.0 6.1564e-05
12790.0 6.104e-05
12810.0 6.0393e-05
12830.0 5.9628e-05
12850.0 5.8806e-05
12870.0 5.7929e-05
12890.0 5.6985e-05
12910.0 5.6027e-05
12930.0 5.5087e-05
12950.0 5.4127e-05
12970.0 5.3172e-05
12990.0 5.2279e-05
13010.0 5.1417e-05
13030.0 5.0567e-05
13050.0 4.9761e-05
13070.0 4.9006e-05
13090.0 4.8255e-05
13110.0 4.7522e-05
13130.0 4.6826e-05
13150.0 4.6143e-05
13170.0 4.5446e-05
13190.0 4.4777e-05
13210.0 4.4133e-05
13230.0 4.3485e-05
13250.0 4.285e-05
13270.0 4.2254e-05
13290.0 4.168e-05
13310.0 4.1124e-05
13330.0 4.0625e-05
13350.0 4.0181e-05
13370.0 3.9783e-05
13390.0 3.9442e-05
13410.0 3.9172e-05
13430.0 3.8953e-05
13450.0 3.8781e-05
13470.0 3.865e-05
13490.0 3.8545e-05
13510.0 3.8452e-05
13530.0 3.8356e-05
13550.0 3.8242e-05
13570.0 3.8096e-05
13590.0 3.7906e-05
13610.0 3.7668e-05
13630.0 3.7383e-05
13650.0 3.7037e-05
13670.0 3.6642e-05
13690.0 3.6216e-05
13710.0 3.5752e-05
13730.0 3.5246e-05
13750.0 3.4754e-05
13770.0 3.4268e-05
13790.0 3.3782e-05
13810.0 3.3321e-05
13830.0 3.2905e-05
13850.0 3.2511e-05
13870.0 3.215e-05
13890.0 3.1838e-05
13910.0 3.1563e-05
13930.0 3.1315e-05
13950.0 3.1098e-05
13970.0 3.0914e-05
13990.0 3.0743e-05
14010.0 3.0584e-05
14030.0 3.0435e-05
14050.0 3.0288e-05
14070.0 3.0131e-05
14090.0 2.9967e-05
14110.0 2.9795e-05
14130.0 2.9603e-05
14150.0 2.9388e-05
14170.0 2.9164e-05
14190.0 2.8924e-05
14210.0 2.866e-05
14230.0 2.8389e-05
14250.0 2.8117e-05
14270.0 2.7834e-05
14290.0 2.7549e-05
14310.0 2.7288e-05
14330.0 2.7041e-05
14350.0 2.6809e-05
14370.0 2.6607e-05
14390.0 2.6438e-05
14410.0 2.6292e-05
14430.0 2.6178e-05
14450.0 2.6095e-05
14470.0 2.6039e-05
14490.0 2.6006e-05
14510.0 2.5996e-05
14530.0 2.6004e-05
14550.0 2.6029e-05
14570.0 2.6071e-05
14590.0 2.6126e-05
14610.0 2.62e-05
14630.0 2.6295e-05
14650.0 2.6411e-05
14670.0 2.6549e-05
14690.0 2.6719e-05
14710.0 2.6923e-05
14730.0 2.7148e-05
14750.0 2.741e-05
14770.0 2.7715e-05
14790.0 2.8048e-05
14810.0 2.841e-05
14830.0 2.8836e-05
14850.0 2.93e-05
14870.0 2.9788e-05
14890.0 3.0322e-05
14910.0 3.0901e-05
14930.0 3.1476e-05
14950.0 3.2032e-05
14970.0 3.258e-05
14990.0 3.3066e-05
15010.0 3.3466e-05
15030.0 3.3793e-05
15050.0 3.4048e-05
15070.0 3.4222e-05
15090.0 3.4347e-05
15110.0 3.4439e-05
15130.0 3.4508e-05
15150.0 3.4566e-05
15170.0 3.4618e-05
15190.0 3.4669e-05
15210.0 3.472e-05
15230.0 3.4771e-05
15250.0 3.4823e-05
15270.0 3.4876e-05
15290.0 3.4931e-05
15310.0 3.4987e-05
15330.0 3.5043e-05
15350.0 3.5101e-05
15370.0 3.516e-05
15390.0 3.522e-05
15410.0 3.528e-05
15430.0 3.5342e-05
15450.0 3.5405e-05
15470.0 3.5468e-05
15490.0 3.5533e-05
15510.0 3.5599e-05
15530.0 3.5664e-05
15550.0 3.5731e-05
15570.0 3.5799e-05
15590.0 3.5868e-05
15610.0 3.5937e-05
15630.0 3.6007e-05
15650.0 3.6077e-05
15670.0 3.6148e-05
15690.0 3.622e-05
15710.0 3.6293e-05
15730.0 3.6365e-05
15750.0 3.6438e-05
15770.0 3.6512e-05
15790.0 3.6587e-05
15810.0 3.6661e-05
15830.0 3.6736e-05
15850.0 3.6812e-05
15870.0 3.6888e-05
15890.0 3.6964e-05
15910.0 3.704e-05
15930.0 3.7117e-05
15950.0 3.7193e-05
15970.0 3.727e-05
15990.0 3.7347e-05
16010.0 3.7424e-05
16030.0 3.7501e-05
16050.0 3.7579e-05
16070.0 3.7656e-05
16090.0 3.7733e-05
16110.0 3.781e-05
16130.0 3.7887e-05
16150.0 3.7964e-05
16170.0 3.804e-05
16190.0 3.8117e-05
16210.0 3.8193e-05
16230.0 3.8268e-05
16250.0 3.8344e-05
16270.0 3.8419e-05
16290.0 3.8494e-05
16310.0 3.8568e-05
16330.0 3.8642e-05
16350.0 3.8715e-05
16370.0 3.8787e-05
16390.0 3.8859e-05
16410.0 3.8931e-05
16430.0 3.9001e-05
16450.0 3.9071e-05
16470.0 3.9141e-05
16490.0 3.9209e-05
16510.0 3.9276e-05
16530.0 3.9343e-05
16550.0 3.9409e-05
16570.0 3.9473e-05
16590.0 3.9537e-05
16610.0 3.96e-05
16630.0 3.9661e-05
16650.0 3.9722e-05
16670.0 3.9781e-05
16690.0 3.984e-05
16710.0 3.9896e-05
16730.0 3.9952e-05
16750.0 4.0007e-05
16770.0 4.006e-05
16790.0 4.0111e-05
16810.0 4.0162e-05
16830.0 4.0211e-05
16850.0 4.0258e-05
16870.0 4.0304e-05
16890.0 4.0348e-05
16910.0 4.0391e-05
16930.0 4.0431e-05
16950.0 4.0471e-05
16970.0 4.0509e-05
16990.0 4.0545e-05
17010.0 4.0579e-05
17030.0 4.0612e-05
17050.0 4.0643e-05
17070.0 4.0672e-05
17090.0 4.0699e-05
17110.0 4.0724e-05
17130.0 4.0747e-05
17150.0 4.0768e-05
17170.0 4.0788e-05
17190.0 4.0805e-05
17210.0 4.082e-05
17230.0 4.0834e-05
17250.0 4.0845e-05
17270.0 4.0854e-05
17290.0 4.0861e-05
17310.0 4.0866e-05
17330.0 4.0869e-05
17350.0 4.0869e-05
17370.0 4.0868e-05
17390.0 4.0864e-05
17410.0 4.0858e-05
17430.0 4.085e-05
17450.0 4.084e-05
17470.0 4.0826e-05
17490.0 4.0811e-05
17510.0 4.0794e-05
17530.0 4.0775e-05
17550.0 4.0753e-05
17570.0 4.0729e-05
17590.0 4.0703e-05
17610.0 4.0674e-05
17630.0 4.0643e-05
17650.0 4.061e-05
17670.0 4.0574e-05
17690.0 4.0536e-05
17710.0 4.0496e-05
17730.0 4.0454e-05
17750.0 4.0408e-05
17770.0 4.0361e-05
17790.0 4.0312e-05
17810.0 4.026e-05
17830.0 4.0206e-05
17850.0 4.015e-05
17870.0 4.0092e-05
17890.0 4.0031e-05
17910.0 3.9967e-05
17930.0 3.9903e-05
17950.0 3.9835e-05
17970.0 3.9765e-05
17990.0 3.9694e-05
18010.0 3.962e-05
18030.0 3.9543e-05
18050.0 3.9465e-05
18070.0 3.9385e-05
18090.0 3.9302e-05
18110.0 3.9217e-05
18130.0 3.9131e-05
18150.0 3.9042e-05
18170.0 3.8951e-05
18190.0 3.8859e-05
18210.0 3.8764e-05
18230.0 3.8667e-05
18250.0 3.8568e-05
18270.0 3.8468e-05
18290.0 3.8366e-05
18310.0 3.8262e-05
18330.0 3.8156e-05
18350.0 3.8049e-05
18370.0 3.7939e-05
18390.0 3.7828e-05
18410.0 3.7715e-05
18430.0 3.7601e-05
18450.0 3.7484e-05
18470.0 3.7367e-05
18490.0 3.7248e-05
18510.0 3.7127e-05
18530.0 3.7005e-05
18550.0 3.6881e-05
18570.0 3.6756e-05
18590.0 3.663e-05
18610.0 3.6502e-05
18630.0 3.6373e-05
18650.0 3.6242e-05
18670.0 3.611e-05
18690.0 3.5978e-05
18710.0 3.5844e-05
18730.0 3.5709e-05
18750.0 3.5572e-05
18770.0 3.5435e-05
18790.0 3.5297e-05
18810.0 3.5157e-05
18830.0 3.5017e-05
18850.0 3.4876e-05
18870.0 3.4734e-05
18890.0 3.4591e-05
18910.0 3.4447e-05
18930.0 3.4302e-05
18950.0 3.4157e-05
18970.0 3.4011e-05
18990.0 3.3865e-05
19010.0 3.3717e-05
19030.0 3.3569e-05
19050.0 3.3421e-05
19070.0 3.3272e-05
19090.0 3.3122e-05
19110.0 3.2973e-05
19130.0 3.2822e-05
19150.0 3.2671e-05
19170.0 3.252e-05
19190.0 3.2369e-05
19210.0 3.2217e-05
19230.0 3.2065e-05
19250.0 3.1913e-05
19270.0 3.1761e-05
19290.0 3.1608e-05
19310.0 3.1455e-05
19330.0 3.1303e-05
19350.0 3.1149e-05
19370.0 3.0996e-05
19390.0 3.0844e-05
19410.0 3.0691e-05
19430.0 3.0537e-05
19450.0 3.0385e-05
19470.0 3.0232e-05
19490.0 3.0079e-05
19510.0 2.9927e-05
19530.0 2.9775e-05
19550.0 2.9623e-05
19570.0 2.947e-05
19590.0 2.9319e-05
19610.0 2.9168e-05
19630.0 2.9016e-05
19650.0 2.8866e-05
19670.0 2.8716e-05
19690.0 2.8565e-05
19710.0 2.8416e-05
19730.0 2.8267e-05
19750.0 2.8118e-05
19770.0 2.7969e-05
19790.0 2.7821e-05
19810.0 2.7674e-05
19830.0 2.7526e-05
19850.0 2.7377e-05
19870.0 2.7227e-05
19890.0 2.7072e-05
19910.0 2.6906e-05
19930.0 2.6725e-05
19950.0 2.6521e-05
19970.0 2.628e-05
19990.0 2.5996e-05
20010.0 2.5673e-05
20030.0 2.5297e-05
20050.0 2.4871e-05
20070.0 2.4417e-05
20090.0 2.3942e-05
20110.0 2.3428e-05
20130.0 2.2919e-05
20150.0 2.2425e-05
20170.0 2.1929e-05
20190.0 2.1438e-05
20210.0 2.0978e-05
20230.0 2.0532e-05
20250.0 2.009e-05
20270.0 1.9674e-05
20290.0 1.9284e-05
20310.0 1.8904e-05
20330.0 1.8534e-05
20350.0 1.8199e-05
20370.0 1.7878e-05
20390.0 1.7567e-05
20410.0 1.7276e-05
20430.0 1.7007e-05
20450.0 1.6744e-05
20470.0 1.6497e-05
20490.0 1.6271e-05
20510.0 1.6058e-05
20530.0 1.5856e-05
20550.0 1.5672e-05
20570.0 1.5505e-05
20590.0 1.5348e-05
20610.0 1.5205e-05
20630.0 1.5077e-05
20650.0 1.4961e-05
20670.0 1.4855e-05
20690.0 1.4761e-05
20710.0 1.4677e-05
20730.0 1.4602e-05
20750.0 1.4535e-05
20770.0 1.4474e-05
20790.0 1.4418e-05
20810.0 1.4367e-05
20830.0 1.4318e-05
20850.0 1.4271e-05
20870.0 1.4224e-05
20890.0 1.4178e-05
20910.0 1.4128e-05
20930.0 1.4075e-05
20950.0 1.4019e-05
20970.0 1.3958e-05
20990.0 1.3892e-05
21010.0 1.382e-05
21030.0 1.3741e-05
21050.0 1.3656e-05
21070.0 1.3565e-05
21090.0 1.3465e-05
21110.0 1.3361e-05
21130.0 1.3251e-05
21150.0 1.3134e-05
21170.0 1.3012e-05
21190.0 1.2888e-05
21210.0 1.2757e-05
21230.0 1.262e-05
21250.0 1.2484e-05
21270.0 1.2347e-05
21290.0 1.2204e-05
21310.0 1.2062e-05
21330.0 1.1923e-05
21350.0 1.1782e-05
21370.0 1.1641e-05
21390.0 1.1505e-05
21410.0 1.1372e-05
21430.0 1.1238e-05
21450.0 1.1112e-05
21470.0 1.0994e-05
21490.0 1.088e-05
21510.0 1.0772e-05
21530.0 1.0674e-05
21550.0 1.0584e-05
21570.0 1.0501e-05
21590.0 1.0427e-05
21610.0 1.0363e-05
21630.0 1.0308e-05
21650.0 1.0262e-05
21670.0 1.0225e-05
21690.0 1.0196e-05
21710.0 1.0175e-05
21730.0 1.0161e-05
21750.0 1.0152e-05
21770.0 1.015e-05
21790.0 1.0153e-05
21810.0 1.0157e-05
21830.0 1.0165e-05
21850.0 1.0175e-05
21870.0 1.0184e-05
21890.0 1.0192e-05
21910.0 1.0199e-05
21930.0 1.0205e-05
21950.0 1.0206e-05
21970.0 1.0204e-05
21990.0 1.02e-05
22010.0 1.0191e-05
22030.0 1.0177e-05
22050.0 1.016e-05
22070.0 1.0139e-05
22090.0 1.0114e-05
22110.0 1.0085e-05
22130.0 1.0053e-05
22150.0 1.0019e-05
22170.0 9.9812e-06
22190.0 9.9412e-06
22210.0 9.8989e-06
22230.0 9.8548e-06
22250.0 9.8086e-06
22270.0 9.7599e-06
22290.0 9.7095e-06
22310.0 9.6569e-06
22330.0 9.6005e-06
22350.0 9.5411e-06
22370.0 9.4791e-06
22390.0 9.4123e-06
22410.0 9.3395e-06
22430.0 9.2637e-06
22450.0 9.183e-06
22470.0 9.0946e-06
22490.0 9.0008e-06
22510.0 8.9036e-06
22530.0 8.7976e-06
22550.0 8.6842e-06
22570.0 8.5692e-06
22590.0 8.4497e-06
22610.0 8.3231e-06
