#lamb flux
1010.0 7.1584e-05
1030.0 7.7873e-05
1050.0 8.5296e-05
1070.0 9.3652e-05
1090.0 0.00010309
1110.0 0.00011278
1130.0 0.00012254
1150.0 0.00013277
1170.0 0.00014332
1190.0 0.00015331
1210.0 0.00016342
1230.0 0.00017384
1250.0 0.00018403
1270.0 0.00019388
1290.0 0.00020424
1310.0 0.00021455
1330.0 0.00022438
1350.0 0.00023428
1370.0 0.00024447
1390.0 0.00025437
1410.0 0.00026394
1430.0 0.00027396
1450.0 0.00028398
1470.0 0.00029366
1490.0 0.00030348
1510.0 0.00031389
1530.0 0.00032379
1550.0 0.0003336
1570.0 0.00034381
1590.0 0.00035408
1610.0 0.00036396
1630.0 0.00037423
1650.0 0.00038482
1670.0 0.00039514
1690.0 0.00040538
1710.0 0.00041606
1730.0 0.00042683
1750.0 0.00043701
1770.0 0.00044748
1790.0 0.00045816
1810.0 0.00046848
1830.0 0.00047857
1850.0 0.00048919
1870.0 0.00049944
1890.0 0.00050922
1910.0 0.00051904
1930.0 0.00052893
1950.0 0.00053815
1970.0 0.00054702
1990.0 0.00055603
2010.0 0.00056462
2030.0 0.0005726
2050.0 0.00058061
2070.0 0.00058862
2090.0 0.0005958
2110.0 0.00060271
2130.0 0.00060969
2150.0 0.00061628
2170.0 0.00062227
2190.0 0.00062845
2210.0 0.00063454
2230.0 0.00064014
2250.0 0.00064559
2270.0 0.00065138
2290.0 0.00065681
2310.0 0.00066183
2330.0 0.00066711
2350.0 0.00067245
2370.0 0.00067745
2390.0 0.0006826
2410.0 0.00068828
2430.0 0.00069387
2450.0 0.0006995
2470.0 0.00070576
2490.0 0.00071274
2510.0 0.00072017
2530.0 0.00072998
2550.0 0.00074504
2570.0 0.00076834
2590.0 0.00080387
2610.0 0.00086184
2630.0 0.00094555
2650.0 0.0010515
2670.0 0.0011818
2690.0 0.0013319
2710.0 0.0014808
2730.0 0.0016156
2750.0 0.0017334
2770.0 0.001817
2790.0 0.0018616
2810.0 0.0018712
2830.0 0.0018467
2850.0 0.0017978
2870.0 0.0017327
2890.0 0.0016539
2910.0 0.0015687
2930.0 0.0014844
2950.0 0.0013958
2970.0 0.001305
2990.0 0.0012179
3010.0 0.0016473
3030.0 0.0015186
3050.0 0.0013914
3070.0 0.0012745
3090.0 0.0011575
3110.0 0.0010458
3130.0 0.00094954
3150.0 0.00088458
3170.0 0.00083275
3190.0 0.0013745
3210.0 0.0038686
3230.0 0.0079087
3250.0 0.010035
3270.0 0.0088616
3290.0 0.0068019
3310.0 0.005629
3330.0 0.0052741
3350.0 0.0054157
3370.0 0.005703
3390.0 0.0060086
3410.0 0.0063173
3430.0 0.0066061
3450.0 0.0069193
3470.0 0.0072598
3490.0 0.0074919
3510.0 0.0072533
3530.0 0.0074087
3550.0 0.0092919
3570.0 0.011668
3590.0 0.012886
3610.0 0.013289
3630.0 0.013617
3650.0 0.013599
3670.0 0.014415
3690.0 0.01725
3710.0 0.020441
3730.0 0.022528
3750.0 0.02401
3770.0 0.024304
3790.0 0.023363
3810.0 0.021597
3830.0 0.018882
3850.0 0.016007
3870.0 0.014523
3890.0 0.016246
3910.0 0.02055
3930.0 0.024854
3950.0 0.027412
3970.0 0.028494
3990.0 0.029683
4010.0 0.03037
4030.0 0.0274
4050.0 0.021624
4070.0 0.01866
4090.0 0.019669
4110.0 0.021654
4130.0 0.022768
4150.0 0.022891
4170.0 0.022369
4190.0 0.021988
4210.0 0.022546
4230.0 0.02386
4250.0 0.02493
4270.0 0.025327
4290.0 0.024978
4310.0 0.025139
4330.0 0.026665
4350.0 0.02847
4370.0 0.028338
4390.0 0.026283
4410.0 0.023198
4430.0 0.01942
4450.0 0.016754
4470.0 0.016667
4490.0 0.018206
4510.0 0.020173
4530.0 0.022301
4550.0 0.025632
4570.0 0.032031
4590.0 0.041155
4610.0 0.048612
4630.0 0.052371
4650.0 0.055464
4670.0 0.058469
4690.0 0.057187
4710.0 0.049871
4730.0 0.040197
4750.0 0.032402
4770.0 0.027699
4790.0 0.025966
4810.0 0.02596
4830.0 0.027776
4850.0 0.031404
4870.0 0.034654
4890.0 0.035714
4910.0 0.036553
4930.0 0.039984
4950.0 0.044613
4970.0 0.047001
4990.0 0.045701
5010.0 0.040933
5030.0 0.034281
5050.0 0.028652
5070.0 0.025209
5090.0 0.023797
5110.0 0.023797
5130.0 0.024027
5150.0 0.023813
5170.0 0.023288
5190.0 0.023545
5210.0 0.0253
5230.0 0.028493
5250.0 0.033282
5270.0 0.038287
5290.0 0.041711
5310.0 0.044463
5330.0 0.047941
5350.0 0.050536
5370.0 0.050004
5390.0 0.047356
5410.0 0.045416
5430.0 0.0469
5450.0 0.052503
5470.0 0.059417
5490.0 0.064227
5510.0 0.065737
5530.0 0.064915
5550.0 0.062825
5570.0 0.060273
5590.0 0.057875
5610.0 0.05613
5630.0 0.055364
5650.0 0.054215
5670.0 0.050833
5690.0 0.04599
5710.0 0.041647
5730.0 0.038533
5750.0 0.037422
5770.0 0.038194
5790.0 0.039119
5810.0 0.039377
5830.0 0.039289
5850.0 0.038455
5870.0 0.037166
5890.0 0.036781
5910.0 0.037187
5930.0 0.036541
5950.0 0.033993
5970.0 0.02998
5990.0 0.025459
6010.0 0.022165
6030.0 0.021229
6050.0 0.022385
6070.0 0.023462
6090.0 0.022675
6110.0 0.021393
6130.0 0.021828
6150.0 0.02367
6170.0 0.025362
6190.0 0.02633
6210.0 0.02663
6230.0 0.025904
6250.0 0.023602
6270.0 0.020314
6290.0 0.01761
6310.0 0.016652
6330.0 0.017158
6350.0 0.018038
6370.0 0.019171
6390.0 0.021595
6410.0 0.025238
6430.0 0.028268
6450.0 0.029779
6470.0 0.030615
6490.0 0.031228
6510.0 0.031481
6530.0 0.031649
6550.0 0.032075
6570.0 0.032609
6590.0 0.032973
6610.0 0.032579
6630.0 0.031118
6650.0 0.028906
6670.0 0.026799
6690.0 0.025441
6710.0 0.024414
6730.0 0.023326
6750.0 0.022805
6770.0 0.023328
6790.0 0.024077
6810.0 0.024309
6830.0 0.023923
6850.0 0.022987
6870.0 0.022033
6890.0 0.021498
6910.0 0.021557
6930.0 0.021922
6950.0 0.022212
6970.0 0.022465
6990.0 0.022394
7010.0 0.021685
7030.0 0.020212
7050.0 0.018295
7070.0 0.016953
7090.0 0.016775
7110.0 0.01705
7130.0 0.016465
7150.0 0.015291
7170.0 0.015141
7190.0 0.016493
7210.0 0.018388
7230.0 0.019925
7250.0 0.020553
7270.0 0.020107
7290.0 0.019072
7310.0 0.018281
7330.0 0.01831
7350.0 0.018751
7370.0 0.019109
7390.0 0.019931
7410.0 0.021578
7430.0 0.023463
7450.0 0.024926
7470.0 0.025352
7490.0 0.024137
7510.0 0.022429
7530.0 0.021504
7550.0 0.020429
7570.0 0.019288
7590.0 0.018734
7610.0 0.018775
7630.0 0.019451
7650.0 0.020825
7670.0 0.022577
7690.0 0.024175
7710.0 0.025335
7730.0 0.026316
7750.0 0.027129
7770.0 0.027512
7790.0 0.027944
7810.0 0.028
7830.0 0.027153
7850.0 0.02621
7870.0 0.025683
7890.0 0.025699
7910.0 0.025755
7930.0 0.025186
7950.0 0.024372
7970.0 0.023518
7990.0 0.022783
8010.0 0.021731
8030.0 0.021788
8050.0 0.02177
8070.0 0.021499
8090.0 0.021307
8110.0 0.020995
8130.0 0.021027
8150.0 0.020887
8170.0 0.020535
8190.0 0.019974
8210.0 0.019333
8230.0 0.018727
8250.0 0.01852
8270.0 0.017464
8290.0 0.015175
8310.0 0.012615
8330.0 0.010872
8350.0 0.010439
8370.0 0.011573
8390.0 0.013226
8410.0 0.014124
8430.0 0.014668
8450.0 0.015683
8470.0 0.016938
8490.0 0.018644
8510.0 0.020624
8530.0 0.022691
8550.0 0.024337
8570.0 0.025561
8590.0 0.026482
8610.0 0.027015
8630.0 0.026946
8650.0 0.026504
8670.0 0.026558
8690.0 0.027934
8710.0 0.029798
8730.0 0.030701
8750.0 0.0305
8770.0 0.03083
8790.0 0.030858
8810.0 0.029524
8830.0 0.027414
8850.0 0.024761
8870.0 0.022743
8890.0 0.022133
8910.0 0.021764
8930.0 0.020391
8950.0 0.018887
8970.0 0.018278
8990.0 0.018344
9010.0 0.018027
9030.0 0.017707
9050.0 0.017543
9070.0 0.017456
9090.0 0.017379
9110.0 0.017305
9130.0 0.017231
9150.0 0.017159
9170.0 0.017084
9190.0 0.017023
9210.0 0.016985
9230.0 0.0169
9250.0 0.016823
9270.0 0.016751
9290.0 0.016682
9310.0 0.016615
9330.0 0.01655
9350.0 0.016487
9370.0 0.016425
9390.0 0.016363
9410.0 0.016303
9430.0 0.01624
9450.0 0.016155
9470.0 0.016079
9490.0 0.016045
9510.0 0.015999
9530.0 0.015951
9550.0 0.0159
9570.0 0.015847
9590.0 0.015795
9610.0 0.015743
9630.0 0.01569
9650.0 0.015638
9670.0 0.015588
9690.0 0.015536
9710.0 0.015485
9730.0 0.015436
9750.0 0.015386
9770.0 0.015335
9790.0 0.015286
9810.0 0.015238
9830.0 0.015189
9850.0 0.015139
9870.0 0.015091
9890.0 0.015043
9910.0 0.014994
9930.0 0.014944
9950.0 0.014841
9970.0 0.014808
9990.0 0.014771
10010.0 0.014734
10030.0 0.014692
10050.0 0.014644
10070.0 0.014597
10090.0 0.014551
10110.0 0.014496
10130.0 0.014428
10150.0 0.01438
10170.0 0.014333
10190.0 0.01428
10210.0 0.01423
10230.0 0.014179
10250.0 0.014122
10270.0 0.014065
10290.0 0.014012
10310.0 0.013953
10330.0 0.013889
10350.0 0.01383
10370.0 0.013771
10390.0 0.013706
10410.0 0.013641
10430.0 0.01358
10450.0 0.013513
10470.0 0.013443
10490.0 0.013376
10510.0 0.013308
10530.0 0.013232
10550.0 0.013157
10570.0 0.013086
10590.0 0.013009
10610.0 0.012929
10630.0 0.012852
10650.0 0.012774
10670.0 0.012688
10690.0 0.012603
10710.0 0.01252
10730.0 0.012431
10750.0 0.012336
10770.0 0.012249
10790.0 0.012158
10810.0 0.012061
10830.0 0.011964
10850.0 0.011871
10870.0 0.011767
10890.0 0.011661
10910.0 0.011559
10930.0 0.011454
10950.0 0.011341
10970.0 0.011229
10990.0 0.011121
11010.0 0.011911
11030.0 0.01179
11050.0 0.011674
11070.0 0.011556
11090.0 0.01143
11110.0 0.011312
11130.0 0.011196
11150.0 0.011077
11170.0 0.010958
11190.0 0.010846
11210.0 0.010731
11230.0 0.010615
11250.0 0.010504
11270.0 0.010396
11290.0 0.010286
11310.0 0.010178
11330.0 0.010078
11350.0 0.0099766
11370.0 0.0098738
11390.0 0.0097746
11410.0 0.0096759
11430.0 0.009569
11450.0 0.0094606
11470.0 0.009351
11490.0 0.0092332
11510.0 0.0091049
11530.0 0.0089751
11550.0 0.0088395
11570.0 0.0086915
11590.0 0.0085384
11610.0 0.0083847
11630.0 0.0082208
11650.0 0.008049
11670.0 0.0078823
11690.0 0.0077142
11710.0 0.00754
11730.0 0.007368
11750.0 0.0072031
11770.0 0.0070336
11790.0 0.0068636
11810.0 0.0067004
11830.0 0.0065393
11850.0 0.0063725
11870.0 0.0062123
11890.0 0.0060592
11910.0 0.0059044
11930.0 0.0057512
11950.0 0.0056067
11970.0 0.005465
11990.0 0.0053229
12010.0 0.0051894
12030.0 0.005064
12050.0 0.0049416
12070.0 0.0048243
12090.0 0.0047204
12110.0 0.0046227
12130.0 0.0045314
12150.0 0.0044506
12170.0 0.0043805
12190.0 0.0043173
12210.0 0.0042651
12230.0 0.0042242
12250.0 0.004193
12270.0 0.0041722
12290.0 0.0041616
12310.0 0.0041596
12330.0 0.0041671
12350.0 0.0041827
12370.0 0.0042037
12390.0 0.004231
12410.0 0.0042658
12430.0 0.0043012
12450.0 0.0043379
12470.0 0.0043779
12490.0 0.004418
12510.0 0.0044545
12530.0 0.0044909
12550.0 0.0045262
12570.0 0.0045558
12590.0 0.0045804
12610.0 0.0046017
12630.0 0.0046164
12650.0 0.004622
12670.0 0.0046213
12690.0 0.0046127
12710.0 0.0045952
12730.0 0.0045694
12750.0 0.0045349
12770.0 0.004492
12790.0 0.0044422
12810.0 0.004385
12830.0 0.0043207
12850.0 0.0042532
12870.0 0.0041823
12890.0 0.0041071
12910.0 0.0040309
12930.0 0.0039558
12950.0 0.0038791
12970.0 0.0038023
12990.0 0.0037296
13010.0 0.0036587
13030.0 0.0035885
13050.0 0.0035213
13070.0 0.003458
13090.0 0.0033953
13110.0 0.0033344
13130.0 0.003277
13150.0 0.0032216
13170.0 0.0031664
13190.0 0.0031144
13210.0 0.0030654
13230.0 0.0030171
13250.0 0.0029706
13270.0 0.002927
13290.0 0.0028849
13310.0 0.0028435
13330.0 0.0028048
13350.0 0.0027681
13370.0 0.0027325
13390.0 0.0026983
13410.0 0.0026668
13430.0 0.0026365
13450.0 0.0026071
13470.0 0.0025795
13490.0 0.0025534
13510.0 0.0025275
13530.0 0.0025026
13550.0 0.0024788
13570.0 0.0024553
13590.0 0.0024317
13610.0 0.0024086
13630.0 0.0023859
13650.0 0.0023626
13670.0 0.0023394
13690.0 0.0023167
13710.0 0.0022938
13730.0 0.0022702
13750.0 0.0022477
13770.0 0.0022257
13790.0 0.0022036
13810.0 0.002182
13830.0 0.0021617
13850.0 0.0021415
13870.0 0.0021217
13890.0 0.0021031
13910.0 0.0020853
13930.0 0.0020676
13950.0 0.0020505
13970.0 0.0020345
13990.0 0.0020184
14010.0 0.0020024
14030.0 0.0019868
14050.0 0.0019712
14070.0 0.0019548
14090.0 0.0019384
14110.0 0.0019221
14130.0 0.0019051
14150.0 0.0018875
14170.0 0.0018706
14190.0 0.0018537
14210.0 0.0018364
14230.0 0.0018199
14250.0 0.0018044
14270.0 0.0017893
14290.0 0.0017751
14310.0 0.0017627
14330.0 0.0017517
14350.0 0.0017417
14370.0 0.0017334
14390.0 0.0017266
14410.0 0.0017208
14430.0 0.0017161
14450.0 0.0017125
14470.0 0.0017096
14490.0 0.0017071
14510.0 0.0017052
14530.0 0.0017036
14550.0 0.0017023
14570.0 0.0017012
14590.0 0.0017006
14610.0 0.0017004
14630.0 0.0017011
14650.0 0.0017028
14670.0 0.001706
14690.0 0.0017111
14710.0 0.0017185
14730.0 0.0017283
14750.0 0.0017413
14770.0 0.001758
14790.0 0.0017783
14810.0 0.0018022
14830.0 0.0018319
14850.0 0.0018661
14870.0 0.0019036
14890.0 0.0019456
14910.0 0.001992
14930.0 0.0020386
14950.0 0.0020843
14970.0 0.0021297
14990.0 0.0021704
15010.0 0.0022048
15030.0 0.0022337
15050.0 0.0022571
15070.0 0.0022746
15090.0 0.0022883
15110.0 0.0022997
15130.0 0.0023095
15150.0 0.0023184
15170.0 0.0023271
15190.0 0.0023357
15210.0 0.0023444
15230.0 0.0023532
15250.0 0.0023622
15270.0 0.0023714
15290.0 0.0023807
15310.0 0.0023903
15330.0 0.0024
15350.0 0.0024099
15370.0 0.00242
15390.0 0.0024302
15410.0 0.0024406
15430.0 0.0024511
15450.0 0.0024618
15470.0 0.0024727
15490.0 0.0024837
15510.0 0.0024949
15530.0 0.0025062
15550.0 0.0025177
15570.0 0.0025293
15590.0 0.0025411
15610.0 0.0025529
15630.0 0.002565
15650.0 0.0025771
15670.0 0.0025894
15690.0 0.0026018
15710.0 0.0026144
15730.0 0.002627
15750.0 0.0026398
15770.0 0.0026526
15790.0 0.0026656
15810.0 0.0026787
15830.0 0.0026919
15850.0 0.0027052
15870.0 0.0027185
15890.0 0.002732
15910.0 0.0027455
15930.0 0.0027591
15950.0 0.0027728
15970.0 0.0027866
15990.0 0.0028004
16010.0 0.0028143
16030.0 0.0028283
16050.0 0.0028423
16070.0 0.0028563
16090.0 0.0028704
16110.0 0.0028845
16130.0 0.0028987
16150.0 0.0029129
16170.0 0.0029271
16190.0 0.0029414
16210.0 0.0029556
16230.0 0.0029699
16250.0 0.0029841
16270.0 0.0029984
16290.0 0.0030127
16310.0 0.0030269
16330.0 0.0030411
16350.0 0.0030553
16370.0 0.0030695
16390.0 0.0030837
16410.0 0.0030978
16430.0 0.0031118
16450.0 0.0031258
16470.0 0.0031398
16490.0 0.0031537
16510.0 0.0031675
16530.0 0.0031813
16550.0 0.003195
16570.0 0.0032086
16590.0 0.0032221
16610.0 0.0032355
16630.0 0.0032488
16650.0 0.003262
16670.0 0.0032751
16690.0 0.0032881
16710.0 0.003301
16730.0 0.0033137
16750.0 0.0033263
16770.0 0.0033388
16790.0 0.0033511
16810.0 0.0033632
16830.0 0.0033753
16850.0 0.0033871
16870.0 0.0033988
16890.0 0.0034103
16910.0 0.0034217
16930.0 0.0034328
16950.0 0.0034438
16970.0 0.0034546
16990.0 0.0034651
17010.0 0.0034755
17030.0 0.0034857
17050.0 0.0034957
17070.0 0.0035054
17090.0 0.003515
17110.0 0.0035243
17130.0 0.0035333
17150.0 0.0035422
17170.0 0.0035508
17190.0 0.0035592
17210.0 0.0035673
17230.0 0.0035752
17250.0 0.0035828
17270.0 0.0035901
17290.0 0.0035972
17310.0 0.0036041
17330.0 0.0036107
17350.0 0.0036169
17370.0 0.003623
17390.0 0.0036287
17410.0 0.0036342
17430.0 0.0036394
17450.0 0.0036443
17470.0 0.0036489
17490.0 0.0036532
17510.0 0.0036573
17530.0 0.003661
17550.0 0.0036644
17570.0 0.0036676
17590.0 0.0036705
17610.0 0.003673
17630.0 0.0036752
17650.0 0.0036772
17670.0 0.0036788
17690.0 0.0036802
17710.0 0.0036812
17730.0 0.0036819
17750.0 0.0036823
17770.0 0.0036824
17790.0 0.0036823
17810.0 0.0036817
17830.0 0.0036809
17850.0 0.0036798
17870.0 0.0036784
17890.0 0.0036766
17910.0 0.0036746
17930.0 0.0036722
17950.0 0.0036696
17970.0 0.0036666
17990.0 0.0036634
18010.0 0.0036598
18030.0 0.003656
18050.0 0.0036518
18070.0 0.0036474
18090.0 0.0036426
18110.0 0.0036376
18130.0 0.0036323
18150.0 0.0036266
18170.0 0.0036207
18190.0 0.0036146
18210.0 0.0036081
18230.0 0.0036013
18250.0 0.0035943
18270.0 0.003587
18290.0 0.0035795
18310.0 0.0035716
18330.0 0.0035636
18350.0 0.0035552
18370.0 0.0035466
18390.0 0.0035377
18410.0 0.0035286
18430.0 0.0035193
18450.0 0.0035097
18470.0 0.0034998
18490.0 0.0034898
18510.0 0.0034794
18530.0 0.0034689
18550.0 0.0034582
18570.0 0.0034472
18590.0 0.003436
18610.0 0.0034246
18630.0 0.003413
18650.0 0.0034011
18670.0 0.0033891
18690.0 0.0033769
18710.0 0.0033645
18730.0 0.0033519
18750.0 0.0033392
18770.0 0.0033262
18790.0 0.0033131
18810.0 0.0032998
18830.0 0.0032863
18850.0 0.0032727
18870.0 0.003259
18890.0 0.0032451
18910.0 0.003231
18930.0 0.0032168
18950.0 0.0032024
18970.0 0.003188
18990.0 0.0031734
19010.0 0.0031586
19030.0 0.0031438
19050.0 0.0031288
19070.0 0.0031138
19090.0 0.0030986
19110.0 0.0030833
19130.0 0.003068
19150.0 0.0030525
19170.0 0.0030369
19190.0 0.0030213
19210.0 0.0030056
19230.0 0.0029898
19250.0 0.0029739
19270.0 0.002958
19290.0 0.002942
19310.0 0.002926
19330.0 0.0029099
19350.0 0.0028937
19370.0 0.0028775
19390.0 0.0028613
19410.0 0.002845
19430.0 0.0028287
19450.0 0.0028123
19470.0 0.0027959
19490.0 0.0027795
19510.0 0.0027631
19530.0 0.0027467
19550.0 0.0027302
19570.0 0.0027138
19590.0 0.0026973
19610.0 0.0026809
19630.0 0.0026644
19650.0 0.0026479
19670.0 0.0026315
19690.0 0.002615
19710.0 0.0025986
19730.0 0.0025822
19750.0 0.0025658
19770.0 0.0025494
19790.0 0.0025331
19810.0 0.0025168
19830.0 0.0025004
19850.0 0.002484
19870.0 0.0024673
19890.0 0.0024503
19910.0 0.0024323
19930.0 0.002413
19950.0 0.0023916
19970.0 0.0023671
19990.0 0.0023387
20010.0 0.0023071
20030.0 0.0022708
20050.0 0.0022303
20070.0 0.0021875
20090.0 0.0021428
20110.0 0.0020948
20130.0 0.0020473
20150.0 0.002001
20170.0 0.0019545
20190.0 0.0019085
20210.0 0.001865
20230.0 0.0018229
20250.0 0.0017812
20270.0 0.0017418
20290.0 0.0017049
20310.0 0.0016692
20330.0 0.0016347
20350.0 0.0016037
20370.0 0.0015744
20390.0 0.0015465
20410.0 0.0015209
20430.0 0.0014977
20450.0 0.0014755
20470.0 0.0014552
20490.0 0.0014368
20510.0 0.0014199
20530.0 0.0014042
20550.0 0.00139
20570.0 0.001377
20590.0 0.0013648
20610.0 0.0013535
20630.0 0.001343
20650.0 0.001333
20670.0 0.0013234
20690.0 0.0013141
20710.0 0.001305
20730.0 0.0012959
20750.0 0.0012868
20770.0 0.0012775
20790.0 0.0012679
20810.0 0.0012579
20830.0 0.0012476
20850.0 0.001237
20870.0 0.0012257
20890.0 0.001214
20910.0 0.001202
20930.0 0.0011895
20950.0 0.0011764
20970.0 0.0011632
20990.0 0.0011498
21010.0 0.0011358
21030.0 0.0011218
21050.0 0.0011078
21070.0 0.0010936
21090.0 0.0010792
21110.0 0.0010652
21130.0 0.0010514
21150.0 0.0010374
21170.0 0.0010237
21190.0 0.0010105
21210.0 0.00099728
21230.0 0.0009842
21250.0 0.00097169
21270.0 0.00095951
21290.0 0.00094748
21310.0 0.00093586
21330.0 0.00092484
21350.0 0.00091402
21370.0 0.00090353
21390.0 0.0008936
21410.0 0.00088408
21430.0 0.00087477
21450.0 0.00086602
21470.0 0.00085777
21490.0 0.00084985
21510.0 0.0008423
21530.0 0.00083522
21550.0 0.00082848
21570.0 0.00082203
21590.0 0.00081594
21610.0 0.00081014
21630.0 0.00080458
21650.0 0.00079924
21670.0 0.00079413
21690.0 0.00078918
21710.0 0.00078438
21730.0 0.00077971
21750.0 0.00077514
21770.0 0.00077067
21790.0 0.0007663
21810.0 0.00076198
21830.0 0.00075774
21850.0 0.00075357
21870.0 0.00074945
21890.0 0.00074536
21910.0 0.00074133
21930.0 0.00073733
21950.0 0.00073334
21970.0 0.00072936
21990.0 0.00072538
22010.0 0.00072138
22030.0 0.00071734
22050.0 0.00071326
22070.0 0.00070911
22090.0 0.0007049
22110.0 0.00070061
22130.0 0.00069621
22150.0 0.00069173
22170.0 0.00068717
22190.0 0.00068246
22210.0 0.00067764
22230.0 0.00067278
22250.0 0.00066778
22270.0 0.00066263
22290.0 0.00065741
22310.0 0.0006521
22330.0 0.00064654
22350.0 0.00064086
22370.0 0.00063509
22390.0 0.00062907
22410.0 0.00062275
22430.0 0.00061636
22450.0 0.00060977
22470.0 0.0006028
22490.0 0.00059563
22510.0 0.00058837
22530.0 0.00058069
22550.0 0.00057268
22570.0 0.00056469
22590.0 0.00055654
22610.0 0.00054805
22630.0 0.00053953
22650.0 0.00053123
22670.0 0.0005227
22690.0 0.00051414
22710.0 0.00050589
22730.0 0.00049779
22750.0 0.00048954
22770.0 0.00048175
22790.0 0.00047438
22810.0 0.00046713
22830.0 0.00046014
22850.0 0.00045368
22870.0 0.00044749
22890.0 0.00044148
22910.0 0.00043592
22930.0 0.00043074
22950.0 0.00042576
22970.0 0.00042099
22990.0 0.00041669
23010.0 0.00041255
23030.0 0.00040855
23050.0 0.00040479
23070.0 0.00040124
23090.0 0.00039769
23110.0 0.00039427
23130.0 0.00039101
23150.0 0.0003878
23170.0 0.0003846
23190.0 0.00038151
23210.0 0.00037852
23230.0 0.00037553
23250.0 0.0003726
23270.0 0.0003698
23290.0 0.00036705
23310.0 0.00036433
23330.0 0.00036179
23350.0 0.00035937
23370.0 0.00035702
23390.0 0.00035479
23410.0 0.00035274
23430.0 0.00035077
23450.0 0.0003489
23470.0 0.00034717
23490.0 0.00034555
23510.0 0.000344
23530.0 0.00034256
23550.0 0.00034122
23570.0 0.00033997
23590.0 0.00033881
23610.0 0.00033776
23630.0 0.00033683
23650.0 0.00033603
23670.0 0.0003354
23690.0 0.00033495
23710.0 0.00033472
23730.0 0.00033478
23750.0 0.0003351
23770.0 0.00033573
23790.0 0.00033679
23810.0 0.00033823
23830.0 0.00034
23850.0 0.00034232
23870.0 0.00034517
23890.0 0.00034829
23910.0 0.00035181
23930.0 0.00035586
23950.0 0.00036015
23970.0 0.00036449
23990.0 0.00036919
24010.0 0.00037404
24030.0 0.00037872
