#lamb flux
1010.0 3.4421e-06
1030.0 3.862e-06
1050.0 4.3449e-06
1070.0 4.8886e-06
1090.0 5.5061e-06
1110.0 6.1395e-06
1130.0 6.7769e-06
1150.0 7.4447e-06
1170.0 8.1335e-06
1190.0 8.7866e-06
1210.0 9.4486e-06
1230.0 1.0133e-05
1250.0 1.0803e-05
1270.0 1.1454e-05
1290.0 1.2141e-05
1310.0 1.2829e-05
1330.0 1.3488e-05
1350.0 1.4154e-05
1370.0 1.4842e-05
1390.0 1.5513e-05
1410.0 1.6163e-05
1430.0 1.6844e-05
1450.0 1.7524e-05
1470.0 1.8181e-05
1490.0 1.8845e-05
1510.0 1.9547e-05
1530.0 2.0211e-05
1550.0 2.0866e-05
1570.0 2.1544e-05
1590.0 2.2222e-05
1610.0 2.2869e-05
1630.0 2.3536e-05
1650.0 2.422e-05
1670.0 2.4881e-05
1690.0 2.5532e-05
1710.0 2.6208e-05
1730.0 2.6886e-05
1750.0 2.7523e-05
1770.0 2.8176e-05
1790.0 2.8842e-05
1810.0 2.9483e-05
1830.0 3.0111e-05
1850.0 3.0775e-05
1870.0 3.1418e-05
1890.0 3.2035e-05
1910.0 3.2661e-05
1930.0 3.3297e-05
1950.0 3.3897e-05
1970.0 3.4484e-05
1990.0 3.5087e-05
2010.0 3.5672e-05
2030.0 3.6224e-05
2050.0 3.6786e-05
2070.0 3.7353e-05
2090.0 3.7871e-05
2110.0 3.8374e-05
2130.0 3.8882e-05
2150.0 3.9363e-05
2170.0 3.98e-05
2190.0 4.0242e-05
2210.0 4.0669e-05
2230.0 4.1051e-05
2250.0 4.141e-05
2270.0 4.1773e-05
2290.0 4.2094e-05
2310.0 4.2365e-05
2330.0 4.2632e-05
2350.0 4.288e-05
2370.0 4.3085e-05
2390.0 4.3284e-05
2410.0 4.3516e-05
2430.0 4.3751e-05
2450.0 4.4014e-05
2470.0 4.4373e-05
2490.0 4.4855e-05
2510.0 4.541e-05
2530.0 4.6183e-05
2550.0 4.7369e-05
2570.0 4.914e-05
2590.0 5.1778e-05
2610.0 5.6113e-05
2630.0 6.2411e-05
2650.0 7.0423e-05
2670.0 8.0341e-05
2690.0 9.1849e-05
2710.0 0.00010324
2730.0 0.0001136
2750.0 0.00012295
2770.0 0.00013016
2790.0 0.000135
2810.0 0.00013809
2830.0 0.00013986
2850.0 0.0001403
2870.0 0.00014003
2890.0 0.00013941
2910.0 0.00013853
2930.0 0.00013747
2950.0 0.00013641
2970.0 0.00013538
2990.0 0.00013432
3010.0 0.0034805
3030.0 0.0034542
3050.0 0.0034283
3070.0 0.0034003
3090.0 0.0033713
3110.0 0.0033376
3130.0 0.0032955
3150.0 0.0032426
3170.0 0.0031742
3190.0 0.0030919
3210.0 0.0030015
3230.0 0.0029081
3250.0 0.0028217
3270.0 0.0027598
3290.0 0.0027247
3310.0 0.0027277
3330.0 0.0027652
3350.0 0.0028321
3370.0 0.0029292
3390.0 0.0030529
3410.0 0.0031887
3430.0 0.0033429
3450.0 0.0035214
3470.0 0.0037169
3490.0 0.0039249
3510.0 0.0041597
3530.0 0.0044129
3550.0 0.0046753
3570.0 0.0049579
3590.0 0.005276
3610.0 0.0056193
3630.0 0.005975
3650.0 0.006351
3670.0 0.0067001
3690.0 0.0069687
3710.0 0.0071214
3730.0 0.0070995
3750.0 0.0068976
3770.0 0.0066088
3790.0 0.0061301
3810.0 0.0052625
3830.0 0.0047209
3850.0 0.0046496
3870.0 0.0035303
3890.0 0.0041186
3910.0 0.0060937
3930.0 0.0076182
3950.0 0.0078195
3970.0 0.0085979
3990.0 0.0087602
4010.0 0.012134
4030.0 0.011679
4050.0 0.010343
4070.0 0.010227
4090.0 0.0097757
4110.0 0.011103
4130.0 0.012467
4150.0 0.013772
4170.0 0.012639
4190.0 0.012175
4210.0 0.012571
4230.0 0.014711
4250.0 0.016492
4270.0 0.017227
4290.0 0.016728
4310.0 0.016348
4330.0 0.017447
4350.0 0.021068
4370.0 0.024504
4390.0 0.021702
4410.0 0.015814
4430.0 0.012727
4450.0 0.011108
4470.0 0.010062
4490.0 0.012209
4510.0 0.01644
4530.0 0.018901
4550.0 0.020515
4570.0 0.022139
4590.0 0.025873
4610.0 0.0382
4630.0 0.049115
4650.0 0.048565
4670.0 0.044961
4690.0 0.047804
4710.0 0.05084
4730.0 0.042166
4750.0 0.028613
4770.0 0.022304
4790.0 0.022737
4810.0 0.021889
4830.0 0.020949
4850.0 0.023553
4870.0 0.030895
4890.0 0.035982
4910.0 0.02926
4930.0 0.026407
4950.0 0.029768
4970.0 0.040187
4990.0 0.053256
5010.0 0.058644
5030.0 0.047609
5050.0 0.029489
5070.0 0.020459
5090.0 0.017416
5110.0 0.017639
5130.0 0.019541
5150.0 0.01991
5170.0 0.019554
5190.0 0.018682
5210.0 0.018635
5230.0 0.020389
5250.0 0.022493
5270.0 0.023895
5290.0 0.027139
5310.0 0.032043
5330.0 0.033082
5350.0 0.032881
5370.0 0.036278
5390.0 0.041608
5410.0 0.038551
5430.0 0.031535
5450.0 0.029708
5470.0 0.033746
5490.0 0.043235
5510.0 0.054884
5530.0 0.06215
5550.0 0.058444
5570.0 0.052421
5590.0 0.045256
5610.0 0.043203
5630.0 0.043485
5650.0 0.043023
5670.0 0.041158
5690.0 0.036243
5710.0 0.035319
5730.0 0.033121
5750.0 0.021015
5770.0 0.017337
5790.0 0.020154
5810.0 0.023748
5830.0 0.029725
5850.0 0.034747
5870.0 0.036196
5890.0 0.034694
5910.0 0.033271
5930.0 0.032966
5950.0 0.034378
5970.0 0.038997
5990.0 0.035103
6010.0 0.028524
6030.0 0.02349
6050.0 0.020463
6070.0 0.02168
6090.0 0.024653
6110.0 0.026535
6130.0 0.02504
6150.0 0.021764
6170.0 0.021771
6190.0 0.026589
6210.0 0.035031
6230.0 0.04388
6250.0 0.044934
6270.0 0.038041
6290.0 0.031785
6310.0 0.024885
6330.0 0.019187
6350.0 0.017616
6370.0 0.018771
6390.0 0.022506
6410.0 0.026994
6430.0 0.031765
6450.0 0.03779
6470.0 0.043833
6490.0 0.053837
6510.0 0.060175
6530.0 0.057321
6550.0 0.052515
6570.0 0.04811
6590.0 0.046457
6610.0 0.040202
6630.0 0.037891
6650.0 0.035206
6670.0 0.034764
6690.0 0.032217
6710.0 0.029348
6730.0 0.022919
6750.0 0.022063
6770.0 0.024163
6790.0 0.028753
6810.0 0.026184
6830.0 0.026909
6850.0 0.025324
6870.0 0.024162
6890.0 0.022808
6910.0 0.023248
6930.0 0.021712
6950.0 0.023302
6970.0 0.023534
6990.0 0.026267
7010.0 0.027496
7030.0 0.026739
7050.0 0.024496
7070.0 0.023088
7090.0 0.022212
7110.0 0.021459
7130.0 0.022719
7150.0 0.024726
7170.0 0.026783
7190.0 0.027371
7210.0 0.025816
7230.0 0.026412
7250.0 0.029694
7270.0 0.03411
7290.0 0.03854
7310.0 0.03844
7330.0 0.034445
7350.0 0.030728
7370.0 0.026929
7390.0 0.027506
7410.0 0.030535
7430.0 0.033732
7450.0 0.036429
7470.0 0.03783
7490.0 0.039313
7510.0 0.046118
7530.0 0.042391
7550.0 0.036424
7570.0 0.027333
7590.0 0.018013
7610.0 0.015437
7630.0 0.017582
7650.0 0.020892
7670.0 0.026081
7690.0 0.029579
7710.0 0.030266
7730.0 0.030705
7750.0 0.033795
7770.0 0.033857
7790.0 0.032162
7810.0 0.030618
7830.0 0.03063
7850.0 0.029158
7870.0 0.027006
7890.0 0.023375
7910.0 0.018783
7930.0 0.016954
7950.0 0.015298
7970.0 0.014429
7990.0 0.014429
8010.0 0.014959
8030.0 0.014814
8050.0 0.015097
8070.0 0.015104
8090.0 0.015897
8110.0 0.014952
8130.0 0.012356
8150.0 0.011685
8170.0 0.010186
8190.0 0.0097176
8210.0 0.011246
8230.0 0.012249
8250.0 0.010451
8270.0 0.0092485
8290.0 0.0082059
8310.0 0.0058162
8330.0 0.0037339
8350.0 0.0027784
8370.0 0.0025536
8390.0 0.0033692
8410.0 0.0042339
8430.0 0.0052073
8450.0 0.0057786
8470.0 0.0068447
8490.0 0.0064939
8510.0 0.0062833
8530.0 0.0060884
8550.0 0.0082772
8570.0 0.010673
8590.0 0.011235
8610.0 0.014022
8630.0 0.016086
8650.0 0.015618
8670.0 0.016499
8690.0 0.017536
8710.0 0.016206
8730.0 0.015864
8750.0 0.014262
8770.0 0.013548
8790.0 0.013716
8810.0 0.013369
8830.0 0.010533
8850.0 0.008179
8870.0 0.0067158
8890.0 0.0072221
8910.0 0.0083501
8930.0 0.0092986
8950.0 0.010532
8970.0 0.010594
8990.0 0.0099094
9010.0 0.008846
9030.0 0.0085152
9050.0 0.0086408
9070.0 0.0087467
9090.0 0.0088275
9110.0 0.0089092
9130.0 0.0089747
9150.0 0.0090298
9170.0 0.0090884
9190.0 0.0091508
9210.0 0.0092165
9230.0 0.0092858
9250.0 0.0093583
9270.0 0.0094334
9290.0 0.0095112
9310.0 0.0095916
9330.0 0.0096745
9350.0 0.0097599
9370.0 0.0098478
9390.0 0.0099381
9410.0 0.010031
9430.0 0.010126
9450.0 0.010224
9470.0 0.010324
9490.0 0.010426
9510.0 0.010531
9530.0 0.010638
9550.0 0.010747
9570.0 0.010858
9590.0 0.010972
9610.0 0.011088
9630.0 0.011205
9650.0 0.011325
9670.0 0.011447
9690.0 0.011571
9710.0 0.011697
9730.0 0.011825
9750.0 0.011954
9770.0 0.012085
9790.0 0.012218
9810.0 0.012353
9830.0 0.012489
9850.0 0.012626
9870.0 0.012766
9890.0 0.012906
9910.0 0.013047
9930.0 0.01319
9950.0 0.013334
9970.0 0.013478
9990.0 0.013624
10010.0 0.012952
10030.0 0.013087
10050.0 0.013222
10070.0 0.013357
10090.0 0.013494
10110.0 0.013631
10130.0 0.013768
10150.0 0.013905
10170.0 0.014041
10190.0 0.014178
10210.0 0.014314
10230.0 0.01445
10250.0 0.014585
10270.0 0.01472
10290.0 0.014854
10310.0 0.014987
10330.0 0.015119
10350.0 0.01525
10370.0 0.01538
10390.0 0.015509
10410.0 0.015636
10430.0 0.015762
10450.0 0.015886
10470.0 0.016008
10490.0 0.016129
10510.0 0.016247
10530.0 0.016363
10550.0 0.016477
10570.0 0.01659
10590.0 0.016699
10610.0 0.016806
10630.0 0.016911
10650.0 0.017013
10670.0 0.017112
10690.0 0.017208
10710.0 0.017302
10730.0 0.017392
10750.0 0.017479
10770.0 0.017563
10790.0 0.017644
10810.0 0.017721
10830.0 0.017794
10850.0 0.017863
10870.0 0.017924
10890.0 0.017974
10910.0 0.018009
10930.0 0.018019
10950.0 0.017989
10970.0 0.017912
10990.0 0.017783
11010.0 0.017504
11030.0 0.017232
11050.0 0.016904
11070.0 0.016512
11090.0 0.01604
11110.0 0.015551
11130.0 0.01504
11150.0 0.014489
11170.0 0.013922
11190.0 0.013376
11210.0 0.012816
11230.0 0.012249
11250.0 0.011716
11270.0 0.011211
11290.0 0.010714
11310.0 0.010251
11330.0 0.0098501
11350.0 0.009476
11370.0 0.0091336
11390.0 0.0088386
11410.0 0.0085795
11430.0 0.0083353
11450.0 0.008119
11470.0 0.0079244
11490.0 0.0077347
11510.0 0.0075421
11530.0 0.0073547
11550.0 0.0071619
11570.0 0.0069518
11590.0 0.006732
11610.0 0.0065082
11630.0 0.0062664
11650.0 0.0060109
11670.0 0.0057623
11690.0 0.0055138
11710.0 0.0052615
11730.0 0.0050204
11750.0 0.0047997
11770.0 0.0045858
11790.0 0.0043871
11810.0 0.0042128
11830.0 0.004057
11850.0 0.003913
11870.0 0.0037907
11890.0 0.0036864
11910.0 0.0035915
11930.0 0.0035058
11950.0 0.0034296
11970.0 0.0033568
11990.0 0.0032835
12010.0 0.0032114
12030.0 0.0031389
12050.0 0.0030621
12070.0 0.0029812
12090.0 0.0029023
12110.0 0.0028216
12130.0 0.0027398
12150.0 0.0026624
12170.0 0.0025915
12190.0 0.0025247
12210.0 0.0024685
12230.0 0.0024254
12250.0 0.0023951
12270.0 0.0023795
12290.0 0.0023797
12310.0 0.0023943
12330.0 0.0024254
12350.0 0.0024714
12370.0 0.0025281
12390.0 0.0025968
12410.0 0.00268
12430.0 0.002765
12450.0 0.0028529
12470.0 0.0029461
12490.0 0.0030384
12510.0 0.0031226
12530.0 0.0032045
12550.0 0.003281
12570.0 0.0033449
12590.0 0.0033975
12610.0 0.003441
12630.0 0.0034709
12650.0 0.0034856
12670.0 0.0034888
12690.0 0.0034794
12710.0 0.0034577
12730.0 0.0034255
12750.0 0.0033819
12770.0 0.0033294
12790.0 0.0032702
12810.0 0.0032033
12830.0 0.0031292
12850.0 0.003053
12870.0 0.0029736
12890.0 0.0028888
12910.0 0.0028026
12930.0 0.002717
12950.0 0.0026274
12970.0 0.0025351
12990.0 0.0024461
13010.0 0.0023568
13030.0 0.0022651
13050.0 0.0021753
13070.0 0.0020895
13090.0 0.0020024
13110.0 0.0019171
13130.0 0.0018372
13150.0 0.001761
13170.0 0.0016862
13190.0 0.0016193
13210.0 0.0015602
13230.0 0.0015063
13250.0 0.00146
13270.0 0.0014233
13290.0 0.0013945
13310.0 0.0013742
13330.0 0.0013636
13350.0 0.0013617
13370.0 0.0013686
13390.0 0.0013845
13410.0 0.0014062
13430.0 0.0014346
13450.0 0.0014695
13470.0 0.0015076
13490.0 0.0015473
13510.0 0.0015917
13530.0 0.0016359
13550.0 0.0016774
13570.0 0.0017178
13590.0 0.0017566
13610.0 0.0017903
13630.0 0.001819
13650.0 0.0018445
13670.0 0.0018648
13690.0 0.0018792
13710.0 0.0018891
13730.0 0.0018944
13750.0 0.0018944
13770.0 0.0018902
13790.0 0.0018819
13810.0 0.0018698
13830.0 0.0018549
13850.0 0.0018367
13870.0 0.0018153
13890.0 0.0017922
13910.0 0.0017671
13930.0 0.0017393
13950.0 0.0017099
13970.0 0.0016806
13990.0 0.0016496
14010.0 0.0016174
14030.0 0.001586
14050.0 0.001555
14070.0 0.001523
14090.0 0.0014929
14110.0 0.0014651
14130.0 0.0014387
14150.0 0.0014144
14170.0 0.0013939
14190.0 0.0013767
14210.0 0.0013625
14230.0 0.0013524
14250.0 0.0013465
14270.0 0.0013444
14290.0 0.0013467
14310.0 0.0013528
14330.0 0.0013625
14350.0 0.0013762
14370.0 0.0013929
14390.0 0.0014116
14410.0 0.0014335
14430.0 0.0014576
14450.0 0.0014824
14470.0 0.0015086
14490.0 0.0015371
14510.0 0.0015653
14530.0 0.0015934
14550.0 0.0016231
14570.0 0.0016537
14590.0 0.001684
14610.0 0.0017161
14630.0 0.001751
14650.0 0.0017868
14670.0 0.0018242
14690.0 0.0018657
14710.0 0.0019109
14730.0 0.0019568
14750.0 0.0020068
14770.0 0.0020617
14790.0 0.0021183
14810.0 0.0021762
14830.0 0.0022404
14850.0 0.0023053
14870.0 0.0023685
14890.0 0.0024325
14910.0 0.0024963
14930.0 0.0025543
14950.0 0.002606
14970.0 0.0026528
14990.0 0.0026906
15010.0 0.0027186
15030.0 0.0027387
15050.0 0.0027514
15070.0 0.0027573
15090.0 0.0027591
15110.0 0.0027579
15130.0 0.002755
15150.0 0.0027514
15170.0 0.0027471
15190.0 0.0027425
15210.0 0.0027381
15230.0 0.0027338
15250.0 0.0027292
15270.0 0.0027248
15290.0 0.0027207
15310.0 0.0027164
15330.0 0.0027121
15350.0 0.002708
15370.0 0.002704
15390.0 0.0026996
15410.0 0.0026955
15430.0 0.0026915
15450.0 0.0026874
15470.0 0.0026832
15490.0 0.0026793
15510.0 0.0026754
15530.0 0.0026713
15550.0 0.0026673
15570.0 0.0026635
15590.0 0.0026594
15610.0 0.0026552
15630.0 0.0026514
15650.0 0.0026475
15670.0 0.0026433
15690.0 0.0026393
15710.0 0.0026355
15730.0 0.0026314
15750.0 0.0026272
15770.0 0.0026233
15790.0 0.0026193
15810.0 0.0026149
15830.0 0.0026108
15850.0 0.0026069
15870.0 0.0026026
15890.0 0.0025983
15910.0 0.0025943
15930.0 0.0025901
15950.0 0.0025856
15970.0 0.0025812
15990.0 0.002577
16010.0 0.0025725
16030.0 0.0025678
16050.0 0.0025636
16070.0 0.0025591
16090.0 0.0025544
16110.0 0.0025498
16130.0 0.0025453
16150.0 0.0025403
16170.0 0.0025355
16190.0 0.0025308
16210.0 0.0025259
16230.0 0.0025208
16250.0 0.0025159
16270.0 0.002511
16290.0 0.0025058
16310.0 0.0025005
16330.0 0.0024955
16350.0 0.0024902
16370.0 0.0024845
16390.0 0.0024793
16410.0 0.0024739
16430.0 0.0024683
16450.0 0.0024626
16470.0 0.0024572
16490.0 0.0024514
16510.0 0.0024454
16530.0 0.0024397
16550.0 0.0024339
16570.0 0.0024277
16590.0 0.0024215
16610.0 0.0024156
16630.0 0.0024094
16650.0 0.002403
16670.0 0.0023968
16690.0 0.0023906
16710.0 0.0023838
16730.0 0.0023773
16750.0 0.0023708
16770.0 0.0023641
16790.0 0.0023571
16810.0 0.0023505
16830.0 0.0023437
16850.0 0.0023366
16870.0 0.0023296
16890.0 0.0023227
16910.0 0.0023154
16930.0 0.002308
16950.0 0.0023009
16970.0 0.0022936
16990.0 0.002286
17010.0 0.0022786
17030.0 0.0022712
17050.0 0.0022635
17070.0 0.0022557
17090.0 0.0022481
17110.0 0.0022403
17130.0 0.0022322
17150.0 0.0022243
17170.0 0.0022165
17190.0 0.0022083
17210.0 0.0022001
17230.0 0.0021921
17250.0 0.0021839
17270.0 0.0021754
17290.0 0.0021671
17310.0 0.0021588
17330.0 0.0021502
17350.0 0.0021415
17370.0 0.0021332
17390.0 0.0021246
17410.0 0.0021158
17430.0 0.0021071
17450.0 0.0020985
17470.0 0.0020894
17490.0 0.0020804
17510.0 0.0020717
17530.0 0.0020627
17550.0 0.0020535
17570.0 0.0020445
17590.0 0.0020356
17610.0 0.0020263
17630.0 0.002017
17650.0 0.002008
17670.0 0.0019987
17690.0 0.001989
17710.0 0.0019798
17730.0 0.0019706
17750.0 0.001961
17770.0 0.0019515
17790.0 0.0019423
17810.0 0.0019327
17830.0 0.0019229
17850.0 0.0019135
17870.0 0.0019039
17890.0 0.0018941
17910.0 0.0018843
17930.0 0.0018749
17950.0 0.0018651
17970.0 0.0018553
17990.0 0.0018456
18010.0 0.001836
18030.0 0.0018259
18050.0 0.0018161
18070.0 0.0018064
18090.0 0.0017964
18110.0 0.0017864
18130.0 0.0017767
18150.0 0.0017669
18170.0 0.0017568
18190.0 0.0017469
18210.0 0.0017371
18230.0 0.001727
18250.0 0.0017169
18270.0 0.0017071
18290.0 0.0016972
18310.0 0.001687
18330.0 0.0016771
18350.0 0.0016673
18370.0 0.0016572
18390.0 0.0016471
18410.0 0.0016373
18430.0 0.0016273
18450.0 0.0016171
18470.0 0.0016071
18490.0 0.0015973
18510.0 0.0015872
18530.0 0.0015772
18550.0 0.0015674
18570.0 0.0015575
18590.0 0.0015473
18610.0 0.0015374
18630.0 0.0015276
18650.0 0.0015175
18670.0 0.0015075
18690.0 0.0014978
18710.0 0.0014879
18730.0 0.0014779
18750.0 0.0014682
18770.0 0.0014585
18790.0 0.0014484
18810.0 0.0014385
18830.0 0.0014289
18850.0 0.0014191
18870.0 0.0014091
18890.0 0.0013995
18910.0 0.0013899
18930.0 0.0013801
18950.0 0.0013704
18970.0 0.0013609
18990.0 0.0013512
19010.0 0.0013413
19030.0 0.0013318
19050.0 0.0013224
19070.0 0.0013127
19090.0 0.0013032
19110.0 0.0012939
19130.0 0.0012843
19150.0 0.0012747
19170.0 0.0012654
19190.0 0.0012561
19210.0 0.0012465
19230.0 0.0012371
19250.0 0.001228
19270.0 0.0012187
19290.0 0.0012093
19310.0 0.0012003
19330.0 0.0011912
19350.0 0.0011817
19370.0 0.0011726
19390.0 0.0011636
19410.0 0.0011545
19430.0 0.0011453
19450.0 0.0011365
19470.0 0.0011276
19490.0 0.0011185
19510.0 0.0011096
19530.0 0.0011009
19550.0 0.0010919
19570.0 0.0010829
19590.0 0.0010743
19610.0 0.0010656
19630.0 0.0010567
19650.0 0.0010481
19670.0 0.0010396
19690.0 0.0010309
19710.0 0.0010222
19730.0 0.0010138
19750.0 0.0010053
19770.0 0.00099662
19790.0 0.00098824
19810.0 0.00097997
19830.0 0.00097149
19850.0 0.00096304
19870.0 0.00095478
19890.0 0.00094616
19910.0 0.00093707
19930.0 0.00092774
19950.0 0.0009177
19970.0 0.00090624
19990.0 0.00089336
20010.0 0.00089192
20030.0 0.00087578
20050.0 0.00085773
20070.0 0.00083887
20090.0 0.00081918
20110.0 0.00079767
20130.0 0.00077641
20150.0 0.00075578
20170.0 0.00073485
20190.0 0.00071402
20210.0 0.0006946
20230.0 0.00067588
20250.0 0.00065735
20270.0 0.00064024
20290.0 0.00062467
20310.0 0.00060993
20330.0 0.00059619
20350.0 0.00058469
20370.0 0.00057445
20390.0 0.00056546
20410.0 0.00055813
20430.0 0.00055241
20450.0 0.00054789
20470.0 0.00054485
20490.0 0.00054319
20510.0 0.00054273
20530.0 0.00054349
20550.0 0.00054529
20570.0 0.00054788
20590.0 0.00055144
20610.0 0.00055577
20630.0 0.00056052
20650.0 0.00056585
20670.0 0.00057197
20690.0 0.00057814
20710.0 0.00058446
20730.0 0.00059125
20750.0 0.00059825
20770.0 0.000605
20790.0 0.00061201
20810.0 0.00061933
20830.0 0.00062648
20850.0 0.00063355
20870.0 0.00064107
20890.0 0.00064865
20910.0 0.00065585
20930.0 0.00066329
20950.0 0.000671
20970.0 0.00067847
20990.0 0.00068583
21010.0 0.00069362
21030.0 0.00070126
21050.0 0.00070856
21070.0 0.0007159
21090.0 0.00072337
21110.0 0.00073021
21130.0 0.00073671
21150.0 0.00074318
21170.0 0.00074918
21190.0 0.0007545
21210.0 0.00075958
21230.0 0.0007642
21250.0 0.00076794
21270.0 0.00077099
21290.0 0.00077339
21310.0 0.00077487
21330.0 0.00077535
21350.0 0.00077491
21370.0 0.00077335
21390.0 0.00077067
21410.0 0.00076686
21430.0 0.00076154
21450.0 0.00075505
21470.0 0.00074749
21490.0 0.00073853
21510.0 0.00072822
21530.0 0.00071725
21550.0 0.0007053
21570.0 0.00069208
21590.0 0.00067852
21610.0 0.00066489
21630.0 0.00065068
21650.0 0.00063614
21670.0 0.00062283
21690.0 0.00060985
21710.0 0.0005973
21730.0 0.00058601
21750.0 0.00057615
21770.0 0.00056711
21790.0 0.00055967
21810.0 0.00055402
21830.0 0.00054989
21850.0 0.00054737
21870.0 0.00054658
21890.0 0.00054733
21910.0 0.00054969
21930.0 0.00055357
21950.0 0.00055864
21970.0 0.00056504
21990.0 0.00057304
22010.0 0.00058169
22030.0 0.00059108
22050.0 0.00060158
22070.0 0.00061276
22090.0 0.00062387
22110.0 0.00063562
22130.0 0.0006479
22150.0 0.00065987
22170.0 0.00067158
22190.0 0.00068365
22210.0 0.00069528
22230.0 0.00070581
22250.0 0.00071602
22270.0 0.00072567
22290.0 0.00073411
22310.0 0.00074151
22330.0 0.0007482
22350.0 0.00075353
22370.0 0.00075744
22390.0 0.00076013
22410.0 0.00076143
22430.0 0.00076119
22450.0 0.00075956
22470.0 0.00075637
22490.0 0.00075168
22510.0 0.00074572
22530.0 0.00073805
22550.0 0.0007287
22570.0 0.00071831
22590.0 0.0007066
22610.0 0.00069316
22630.0 0.00067861
22650.0 0.00066356
22670.0 0.00064691
22690.0 0.0006291
22710.0 0.00061108
22730.0 0.00059244
22750.0 0.00057217
22770.0 0.00055226
22790.0 0.00053274
22810.0 0.00051262
22830.0 0.00049247
22850.0 0.00047355
22870.0 0.00045497
22890.0 0.00043647
22910.0 0.00041944
22930.0 0.00040388
22950.0 0.00038913
22970.0 0.00037561
22990.0 0.00036456
23010.0 0.00035496
23030.0 0.00034697
23050.0 0.00034109
23070.0 0.0003372
23090.0 0.00033511
23110.0 0.00033511
23130.0 0.000337
23150.0 0.00034071
23170.0 0.00034638
23190.0 0.00035351
23210.0 0.00036182
23230.0 0.00037176
23250.0 0.00038278
23270.0 0.00039425
23290.0 0.00040654
23310.0 0.00041983
23330.0 0.00043261
23350.0 0.00044519
23370.0 0.00045787
23390.0 0.00046998
23410.0 0.00048085
23430.0 0.00049116
23450.0 0.00050058
23470.0 0.00050847
23490.0 0.00051499
23510.0 0.00052032
23530.0 0.00052399
23550.0 0.00052598
23570.0 0.00052648
23590.0 0.00052535
23610.0 0.00052274
23630.0 0.00051873
23650.0 0.00051304
23670.0 0.00050611
23690.0 0.00049823
23710.0 0.00048915
23730.0 0.00047892
23750.0 0.0004686
23770.0 0.00045791
23790.0 0.0004467
23810.0 0.00043579
23830.0 0.00042562
