#lamb flux
1010.0 2.7253e-06
1030.0 3.0041e-06
1050.0 3.3945e-06
1070.0 3.997e-06
1090.0 4.7502e-06
1110.0 5.5449e-06
1130.0 6.3651e-06
1150.0 7.2374e-06
1170.0 8.1371e-06
1190.0 8.9715e-06
1210.0 9.7752e-06
1230.0 1.0538e-05
1250.0 1.1277e-05
1270.0 1.1882e-05
1290.0 1.239e-05
1310.0 1.2747e-05
1330.0 1.2921e-05
1350.0 1.2951e-05
1370.0 1.2858e-05
1390.0 1.2623e-05
1410.0 1.2268e-05
1430.0 1.185e-05
1450.0 1.1368e-05
1470.0 1.0832e-05
1490.0 1.0279e-05
1510.0 9.7371e-06
1530.0 9.186e-06
1550.0 8.6518e-06
1570.0 8.1525e-06
1590.0 7.6853e-06
1610.0 7.2776e-06
1630.0 7.055e-06
1650.0 6.8977e-06
1670.0 6.8033e-06
1690.0 6.7801e-06
1710.0 6.8408e-06
1730.0 6.983e-06
1750.0 7.1991e-06
1770.0 7.5107e-06
1790.0 7.9221e-06
1810.0 8.4292e-06
1830.0 9.0405e-06
1850.0 9.7787e-06
1870.0 1.0632e-05
1890.0 1.1602e-05
1910.0 1.2706e-05
1930.0 1.3948e-05
1950.0 1.5308e-05
1970.0 1.6793e-05
1990.0 1.8415e-05
2010.0 2.0149e-05
2030.0 2.1976e-05
2050.0 2.3908e-05
2070.0 2.5932e-05
2090.0 2.7993e-05
2110.0 3.0094e-05
2130.0 3.2235e-05
2150.0 3.4373e-05
2170.0 3.647e-05
2190.0 3.8558e-05
2210.0 4.0605e-05
2230.0 4.2567e-05
2250.0 4.4456e-05
2270.0 4.63e-05
2290.0 4.8045e-05
2310.0 4.9682e-05
2330.0 5.1267e-05
2350.0 5.2796e-05
2370.0 5.4248e-05
2390.0 5.5689e-05
2410.0 5.7197e-05
2430.0 5.8762e-05
2450.0 6.0448e-05
2470.0 6.2392e-05
2490.0 6.4668e-05
2510.0 6.7185e-05
2530.0 7.0146e-05
2550.0 7.3765e-05
2570.0 7.8103e-05
2590.0 8.3373e-05
2610.0 9.0449e-05
2630.0 9.9447e-05
2650.0 0.00011008
2670.0 0.00012267
2690.0 0.00013708
2710.0 0.00015181
2730.0 0.00016621
2750.0 0.00018069
2770.0 0.00019444
2790.0 0.00020734
2810.0 0.00022038
2830.0 0.00023446
2850.0 0.00024881
2870.0 0.00026407
2890.0 0.00028084
2910.0 0.00029862
2930.0 0.00031669
2950.0 0.00033608
2970.0 0.00035657
2990.0 0.0003773
3010.0 0.00039862
3030.0 0.00042122
3050.0 0.00044445
3070.0 0.00046715
3090.0 0.00049029
3110.0 0.00051291
3130.0 0.00053348
3150.0 0.00055147
3170.0 0.00056621
3190.0 0.00057669
3210.0 0.0005837
3230.0 0.00058777
3250.0 0.0005894
3270.0 0.00059034
3290.0 0.0005914
3310.0 0.00059292
3330.0 0.00059536
3350.0 0.00059851
3370.0 0.00060204
3390.0 0.00059977
3410.0 0.00059886
3430.0 0.00060408
3450.0 0.00060788
3470.0 0.0006056
3490.0 0.00063817
3510.0 0.00076258
3530.0 0.00094331
3550.0 0.0010652
3570.0 0.0011756
3590.0 0.0013233
3610.0 0.0013223
3630.0 0.0012167
3650.0 0.0012516
3670.0 0.0014532
3690.0 0.0016374
3710.0 0.0017043
3730.0 0.0017138
3750.0 0.0018093
3770.0 0.0018161
3790.0 0.0017369
3810.0 0.0016423
3830.0 0.0015555
3850.0 0.001559
3870.0 0.0016267
3890.0 0.0016738
3910.0 0.0016878
3930.0 0.0016877
3950.0 0.0018083
3970.0 0.001947
3990.0 0.0019019
4010.0 0.0017026
4030.0 0.0015401
4050.0 0.001539
4070.0 0.0016069
4090.0 0.0015904
4110.0 0.0015345
4130.0 0.0015289
4150.0 0.0016026
4170.0 0.0017578
4190.0 0.0018219
4210.0 0.0017026
4230.0 0.0015568
4250.0 0.0014592
4270.0 0.0013991
4290.0 0.0013992
4310.0 0.0014286
4330.0 0.0013668
4350.0 0.0012258
4370.0 0.0011064
4390.0 0.0010244
4410.0 0.00098461
4430.0 0.0010189
4450.0 0.0011193
4470.0 0.0012277
4490.0 0.0013058
4510.0 0.0014267
4530.0 0.0016392
4550.0 0.0018577
4570.0 0.0019956
4590.0 0.0021156
4610.0 0.0022091
4630.0 0.0022099
4650.0 0.0020596
4670.0 0.0018256
4690.0 0.0016385
4710.0 0.0015706
4730.0 0.0014959
4750.0 0.0013175
4770.0 0.0011812
4790.0 0.0012107
4810.0 0.0013016
4830.0 0.0012707
4850.0 0.0011339
4870.0 0.0011447
4890.0 0.001168
4910.0 0.0011787
4930.0 0.0011564
4950.0 0.0011319
4970.0 0.0010785
4990.0 0.00099869
5010.0 0.00094942
5030.0 0.00094506
5050.0 0.00095147
5070.0 0.00095938
5090.0 0.00096469
5110.0 0.00096817
5130.0 0.00098932
5150.0 0.0010336
5170.0 0.0011151
5190.0 0.0012224
5210.0 0.0013032
5230.0 0.0013509
5250.0 0.0013789
5270.0 0.0014099
5290.0 0.0014273
5310.0 0.0014087
5330.0 0.0013606
5350.0 0.001316
5370.0 0.0013155
5390.0 0.0013359
5410.0 0.0013454
5430.0 0.0013266
5450.0 0.0013058
5470.0 0.0012841
5490.0 0.001265
5510.0 0.0012581
5530.0 0.0012608
5550.0 0.0012676
5570.0 0.0012676
5590.0 0.0012407
5610.0 0.0011912
5630.0 0.0011397
5650.0 0.0010849
5670.0 0.0010426
5690.0 0.0010057
5710.0 0.00098912
5730.0 0.00098701
5750.0 0.00097084
5770.0 0.00095417
5790.0 0.00096487
5810.0 0.00099198
5830.0 0.0010131
5850.0 0.0010192
5870.0 0.00099487
5890.0 0.00095833
5910.0 0.00093087
5930.0 0.0008941
5950.0 0.00085995
5970.0 0.00086351
5990.0 0.00088047
6010.0 0.00087698
6030.0 0.00085121
6050.0 0.00084647
6070.0 0.00087025
6090.0 0.00089509
6110.0 0.00088876
6130.0 0.00084034
6150.0 0.00077926
6170.0 0.00074593
6190.0 0.00073421
6210.0 0.00072537
6230.0 0.0007141
6250.0 0.0007158
6270.0 0.0007367
6290.0 0.00076413
6310.0 0.00079485
6330.0 0.00082639
6350.0 0.0008425
6370.0 0.0008413
6390.0 0.00083433
6410.0 0.00083761
6430.0 0.00084534
6450.0 0.00084375
6470.0 0.00084154
6490.0 0.00084217
6510.0 0.00084097
6530.0 0.00083255
6550.0 0.00081578
6570.0 0.00079154
6590.0 0.00076653
6610.0 0.00074709
6630.0 0.00073172
6650.0 0.00070911
6670.0 0.0006849
6690.0 0.00066594
6710.0 0.00065488
6730.0 0.00064646
6750.0 0.00064051
6770.0 0.00063387
6790.0 0.00062225
6810.0 0.00060839
6830.0 0.00060148
6850.0 0.00059833
6870.0 0.00059565
6890.0 0.00059522
6910.0 0.00058968
6930.0 0.00058264
6950.0 0.00057997
6970.0 0.00057471
6990.0 0.00056584
7010.0 0.00055656
7030.0 0.0005465
7050.0 0.00053602
7070.0 0.00052298
7090.0 0.00051252
7110.0 0.00052093
7130.0 0.00053415
7150.0 0.00054163
7170.0 0.00054611
7190.0 0.00054603
7210.0 0.00053888
7230.0 0.00052863
7250.0 0.00052434
7270.0 0.0005145
7290.0 0.00050679
7310.0 0.00050294
7330.0 0.00050565
7350.0 0.0005048
7370.0 0.00050111
7390.0 0.00049687
7410.0 0.00049115
7430.0 0.00048424
7450.0 0.00047655
7470.0 0.0004685
7490.0 0.00045615
7510.0 0.00043927
7530.0 0.0004238
7550.0 0.00041388
7570.0 0.00041684
7590.0 0.00041536
7610.0 0.00041054
7630.0 0.00040566
7650.0 0.00040979
7670.0 0.00041972
7690.0 0.00043467
7710.0 0.00044355
7730.0 0.00046022
7750.0 0.00047155
7770.0 0.00048202
7790.0 0.00048635
7810.0 0.00047969
7830.0 0.00047819
7850.0 0.00047158
7870.0 0.00046027
7890.0 0.00044487
7910.0 0.00043252
7930.0 0.00042537
7950.0 0.00042098
7970.0 0.00042139
7990.0 0.00042263
8010.0 0.00041898
8030.0 0.00041494
8050.0 0.00040726
8070.0 0.00040039
8090.0 0.00039237
8110.0 0.00039433
8130.0 0.00039773
8150.0 0.00039921
8170.0 0.00039548
8190.0 0.00039192
8210.0 0.00037889
8230.0 0.0003552
8250.0 0.00034109
8270.0 0.00033309
8290.0 0.00032915
8310.0 0.00032927
8330.0 0.00033678
8350.0 0.00033152
8370.0 0.00032537
8390.0 0.00032995
8410.0 0.000338
8430.0 0.0003531
8450.0 0.00036661
8470.0 0.00036945
8490.0 0.00037226
8510.0 0.00036917
8530.0 0.00036508
8550.0 0.00036765
8570.0 0.0003679
8590.0 0.00036508
8610.0 0.00037486
8630.0 0.00037655
8650.0 0.0003683
8670.0 0.00036726
8690.0 0.00036829
8710.0 0.00036138
8730.0 0.00035908
8750.0 0.0003478
8770.0 0.00034336
8790.0 0.00033886
8810.0 0.00033564
8830.0 0.00032344
8850.0 0.00030139
8870.0 0.0002837
8890.0 0.00027468
8910.0 0.00025775
8930.0 0.00023972
8950.0 0.00023475
8970.0 0.00023232
8990.0 0.00023219
9010.0 0.00023034
9030.0 0.0002287
9050.0 0.00022716
9070.0 0.00022564
9090.0 0.00022412
9110.0 0.0002226
9130.0 0.00022108
9150.0 0.00021957
9170.0 0.00021805
9190.0 0.00021654
9210.0 0.00021502
9230.0 0.00021351
9250.0 0.00021201
9270.0 0.00021051
9290.0 0.00020901
9310.0 0.00020751
9330.0 0.00020602
9350.0 0.00020453
9370.0 0.00020305
9390.0 0.00020157
9410.0 0.0002001
9430.0 0.00019863
9450.0 0.00019716
9470.0 0.00019573
9490.0 0.00019431
9510.0 0.00019285
9530.0 0.00019141
9550.0 0.00018997
9570.0 0.00018855
9590.0 0.00018714
9610.0 0.00018573
9630.0 0.00018433
9650.0 0.00018294
9670.0 0.00018156
9690.0 0.00018019
9710.0 0.00017883
9730.0 0.00017747
9750.0 0.00017613
9770.0 0.00017479
9790.0 0.00017346
9810.0 0.00017214
9830.0 0.0001708
9850.0 0.00016924
9870.0 0.00016799
9890.0 0.00016681
9910.0 0.0001656
9930.0 0.00016428
9950.0 0.00016306
9970.0 0.00016185
9990.0 0.00016062
10010.0 0.00015927
10030.0 0.00015801
10050.0 0.00015688
10070.0 0.00015574
10090.0 0.0001546
10110.0 0.00015341
10130.0 0.00015213
10150.0 0.000151
10170.0 0.00014989
10190.0 0.00014874
10210.0 0.00014762
10230.0 0.00014652
10250.0 0.00014539
10270.0 0.00014427
10290.0 0.00014319
10310.0 0.00014209
10330.0 0.00014097
10350.0 0.00013989
10370.0 0.00013883
10390.0 0.00013774
10410.0 0.00013667
10430.0 0.00013564
10450.0 0.0001346
10470.0 0.00013354
10490.0 0.00013252
10510.0 0.00013151
10530.0 0.00013045
10550.0 0.00012943
10570.0 0.00012845
10590.0 0.00012744
10610.0 0.00012643
10630.0 0.00012546
10650.0 0.00012449
10670.0 0.00012349
10690.0 0.00012251
10710.0 0.00012156
10730.0 0.00012059
10750.0 0.0001196
10770.0 0.00011867
10790.0 0.00011774
10810.0 0.00011678
10830.0 0.00011584
10850.0 0.00011494
10870.0 0.00011399
10890.0 0.00011306
10910.0 0.00011217
10930.0 0.00011128
10950.0 0.0001104
10970.0 0.00010955
10990.0 0.00010877
11010.0 0.00010474
11030.0 0.00010405
11050.0 0.00010341
11070.0 0.0001028
11090.0 0.00010216
11110.0 0.00010157
11130.0 0.00010098
11150.0 0.00010036
11170.0 9.9729e-05
11190.0 9.9116e-05
11210.0 9.8481e-05
11230.0 9.7824e-05
11250.0 9.7185e-05
11270.0 9.656e-05
11290.0 9.5918e-05
11310.0 9.529e-05
11330.0 9.4714e-05
11350.0 9.4144e-05
11370.0 9.3585e-05
11390.0 9.3068e-05
11410.0 9.258e-05
11430.0 9.2085e-05
11450.0 9.1618e-05
11470.0 9.1179e-05
11490.0 9.0738e-05
11510.0 9.0286e-05
11530.0 8.9853e-05
11550.0 8.942e-05
11570.0 8.8958e-05
11590.0 8.8489e-05
11610.0 8.8025e-05
11630.0 8.7527e-05
11650.0 8.7001e-05
11670.0 8.6489e-05
11690.0 8.5971e-05
11710.0 8.5426e-05
11730.0 8.4887e-05
11750.0 8.4375e-05
11770.0 8.3846e-05
11790.0 8.3319e-05
11810.0 8.2824e-05
11830.0 8.2343e-05
11850.0 8.185e-05
11870.0 8.1392e-05
11890.0 8.097e-05
11910.0 8.0553e-05
11930.0 8.0153e-05
11950.0 7.9797e-05
11970.0 7.9463e-05
11990.0 7.9142e-05
12010.0 7.8867e-05
12030.0 7.8635e-05
12050.0 7.8434e-05
12070.0 7.8273e-05
12090.0 7.8174e-05
12110.0 7.8117e-05
12130.0 7.8107e-05
12150.0 7.815e-05
12170.0 7.8242e-05
12190.0 7.8381e-05
12210.0 7.8569e-05
12230.0 7.8795e-05
12250.0 7.906e-05
12270.0 7.9364e-05
12290.0 7.9691e-05
12310.0 8.0032e-05
12330.0 8.0398e-05
12350.0 8.077e-05
12370.0 8.1135e-05
12390.0 8.1495e-05
12410.0 8.185e-05
12430.0 8.2169e-05
12450.0 8.2456e-05
12470.0 8.2709e-05
12490.0 8.2913e-05
12510.0 8.3064e-05
12530.0 8.3158e-05
12550.0 8.3184e-05
12570.0 8.3145e-05
12590.0 8.3041e-05
12610.0 8.2852e-05
12630.0 8.2587e-05
12650.0 8.2276e-05
12670.0 8.1888e-05
12690.0 8.1426e-05
12710.0 8.0927e-05
12730.0 8.039e-05
12750.0 7.977e-05
12770.0 7.9133e-05
12790.0 7.8494e-05
12810.0 7.7819e-05
12830.0 7.7112e-05
12850.0 7.644e-05
12870.0 7.5775e-05
12890.0 7.5088e-05
12910.0 7.4423e-05
12930.0 7.3797e-05
12950.0 7.3158e-05
12970.0 7.2522e-05
12990.0 7.1941e-05
13010.0 7.1376e-05
13030.0 7.0808e-05
13050.0 7.0272e-05
13070.0 6.978e-05
13090.0 6.9286e-05
13110.0 6.8811e-05
13130.0 6.8381e-05
13150.0 6.7976e-05
13170.0 6.7574e-05
13190.0 6.7218e-05
13210.0 6.6902e-05
13230.0 6.6598e-05
13250.0 6.6314e-05
13270.0 6.6065e-05
13290.0 6.5827e-05
13310.0 6.5588e-05
13330.0 6.5366e-05
13350.0 6.5153e-05
13370.0 6.4928e-05
13390.0 6.4691e-05
13410.0 6.4465e-05
13430.0 6.4221e-05
13450.0 6.3954e-05
13470.0 6.3679e-05
13490.0 6.3399e-05
13510.0 6.3078e-05
13530.0 6.2745e-05
13550.0 6.2413e-05
13570.0 6.206e-05
13590.0 6.168e-05
13610.0 6.1301e-05
13630.0 6.0924e-05
13650.0 6.0516e-05
13670.0 6.0103e-05
13690.0 5.9698e-05
13710.0 5.9279e-05
13730.0 5.883e-05
13750.0 5.8404e-05
13770.0 5.7977e-05
13790.0 5.7529e-05
13810.0 5.7078e-05
13830.0 5.6643e-05
13850.0 5.6184e-05
13870.0 5.5708e-05
13890.0 5.5242e-05
13910.0 5.4772e-05
13930.0 5.4271e-05
13950.0 5.3762e-05
13970.0 5.3273e-05
13990.0 5.2758e-05
14010.0 5.2225e-05
14030.0 5.1704e-05
14050.0 5.1184e-05
14070.0 5.0631e-05
14090.0 5.0094e-05
14110.0 4.9579e-05
14130.0 4.9058e-05
14150.0 4.8536e-05
14170.0 4.8054e-05
14190.0 4.7588e-05
14210.0 4.7122e-05
14230.0 4.6682e-05
14250.0 4.6271e-05
14270.0 4.5857e-05
14290.0 4.545e-05
14310.0 4.5072e-05
14330.0 4.4698e-05
14350.0 4.4316e-05
14370.0 4.3943e-05
14390.0 4.3584e-05
14410.0 4.3211e-05
14430.0 4.2837e-05
14450.0 4.248e-05
14470.0 4.2125e-05
14490.0 4.1762e-05
14510.0 4.1421e-05
14530.0 4.11e-05
14550.0 4.0781e-05
14570.0 4.0474e-05
14590.0 4.019e-05
14610.0 3.9914e-05
14630.0 3.964e-05
14650.0 3.9385e-05
14670.0 3.9143e-05
14690.0 3.8902e-05
14710.0 3.8667e-05
14730.0 3.8451e-05
14750.0 3.8238e-05
14770.0 3.803e-05
14790.0 3.7836e-05
14810.0 3.7657e-05
14830.0 3.7482e-05
14850.0 3.7324e-05
14870.0 3.7186e-05
14890.0 3.7061e-05
14910.0 3.6949e-05
14930.0 3.6853e-05
14950.0 3.6768e-05
14970.0 3.6688e-05
14990.0 3.661e-05
15010.0 3.6533e-05
15030.0 3.6452e-05
15050.0 3.6363e-05
15070.0 3.6271e-05
15090.0 3.6175e-05
15110.0 3.6074e-05
15130.0 3.597e-05
15150.0 3.5866e-05
15170.0 3.5759e-05
15190.0 3.565e-05
15210.0 3.5542e-05
15230.0 3.5433e-05
15250.0 3.5321e-05
15270.0 3.5209e-05
15290.0 3.5099e-05
15310.0 3.4987e-05
15330.0 3.4873e-05
15350.0 3.4761e-05
15370.0 3.4648e-05
15390.0 3.4531e-05
15410.0 3.4416e-05
15430.0 3.4302e-05
15450.0 3.4185e-05
15470.0 3.4067e-05
15490.0 3.3952e-05
15510.0 3.3835e-05
15530.0 3.3716e-05
15550.0 3.3598e-05
15570.0 3.3482e-05
15590.0 3.3362e-05
15610.0 3.3242e-05
15630.0 3.3124e-05
15650.0 3.3005e-05
15670.0 3.2884e-05
15690.0 3.2764e-05
15710.0 3.2646e-05
15730.0 3.2525e-05
15750.0 3.2404e-05
15770.0 3.2285e-05
15790.0 3.2165e-05
15810.0 3.2043e-05
15830.0 3.1923e-05
15850.0 3.1804e-05
15870.0 3.1683e-05
15890.0 3.1562e-05
15910.0 3.1443e-05
15930.0 3.1323e-05
15950.0 3.1201e-05
15970.0 3.1082e-05
15990.0 3.0963e-05
16010.0 3.0842e-05
16030.0 3.0721e-05
16050.0 3.0604e-05
16070.0 3.0485e-05
16090.0 3.0365e-05
16110.0 3.0247e-05
16130.0 3.013e-05
16150.0 3.001e-05
16170.0 2.9891e-05
16190.0 2.9775e-05
16210.0 2.9657e-05
16230.0 2.9539e-05
16250.0 2.9423e-05
16270.0 2.9308e-05
16290.0 2.9191e-05
16310.0 2.9075e-05
16330.0 2.8961e-05
16350.0 2.8847e-05
16370.0 2.873e-05
16390.0 2.8617e-05
16410.0 2.8504e-05
16430.0 2.839e-05
16450.0 2.8278e-05
16470.0 2.8167e-05
16490.0 2.8055e-05
16510.0 2.7943e-05
16530.0 2.7833e-05
16550.0 2.7723e-05
16570.0 2.7612e-05
16590.0 2.7502e-05
16610.0 2.7395e-05
16630.0 2.7287e-05
16650.0 2.7178e-05
16670.0 2.7072e-05
16690.0 2.6966e-05
16710.0 2.6859e-05
16730.0 2.6753e-05
16750.0 2.6649e-05
16770.0 2.6544e-05
16790.0 2.6439e-05
16810.0 2.6337e-05
16830.0 2.6235e-05
16850.0 2.6132e-05
16870.0 2.6031e-05
16890.0 2.5931e-05
16910.0 2.583e-05
16930.0 2.5729e-05
16950.0 2.5631e-05
16970.0 2.5532e-05
16990.0 2.5433e-05
17010.0 2.5336e-05
17030.0 2.5241e-05
17050.0 2.5143e-05
17070.0 2.5047e-05
17090.0 2.4953e-05
17110.0 2.4858e-05
17130.0 2.4763e-05
17150.0 2.4669e-05
17170.0 2.4578e-05
17190.0 2.4485e-05
17210.0 2.4393e-05
17230.0 2.4303e-05
17250.0 2.4212e-05
17270.0 2.4121e-05
17290.0 2.4032e-05
17310.0 2.3943e-05
17330.0 2.3854e-05
17350.0 2.3765e-05
17370.0 2.368e-05
17390.0 2.3593e-05
17410.0 2.3506e-05
17430.0 2.3421e-05
17450.0 2.3337e-05
17470.0 2.3251e-05
17490.0 2.3166e-05
17510.0 2.3083e-05
17530.0 2.3e-05
17550.0 2.2917e-05
17570.0 2.2835e-05
17590.0 2.2755e-05
17610.0 2.2673e-05
17630.0 2.2592e-05
17650.0 2.2513e-05
17670.0 2.2433e-05
17690.0 2.2352e-05
17710.0 2.2274e-05
17730.0 2.2196e-05
17750.0 2.2118e-05
17770.0 2.204e-05
17790.0 2.1965e-05
17810.0 2.1888e-05
17830.0 2.1811e-05
17850.0 2.1736e-05
17870.0 2.1661e-05
17890.0 2.1585e-05
17910.0 2.1511e-05
17930.0 2.1438e-05
17950.0 2.1364e-05
17970.0 2.1291e-05
17990.0 2.1219e-05
18010.0 2.1147e-05
18030.0 2.1073e-05
18050.0 2.1002e-05
18070.0 2.0931e-05
18090.0 2.086e-05
18110.0 2.0789e-05
18130.0 2.072e-05
18150.0 2.065e-05
18170.0 2.058e-05
18190.0 2.0511e-05
18210.0 2.0443e-05
18230.0 2.0374e-05
18250.0 2.0305e-05
18270.0 2.0238e-05
18290.0 2.0171e-05
18310.0 2.0103e-05
18330.0 2.0036e-05
18350.0 1.9971e-05
18370.0 1.9904e-05
18390.0 1.9838e-05
18410.0 1.9773e-05
18430.0 1.9708e-05
18450.0 1.9641e-05
18470.0 1.9577e-05
18490.0 1.9513e-05
18510.0 1.9448e-05
18530.0 1.9384e-05
18550.0 1.9321e-05
18570.0 1.9258e-05
18590.0 1.9194e-05
18610.0 1.9131e-05
18630.0 1.9069e-05
18650.0 1.9006e-05
18670.0 1.8943e-05
18690.0 1.8883e-05
18710.0 1.8821e-05
18730.0 1.8759e-05
18750.0 1.8698e-05
18770.0 1.8638e-05
18790.0 1.8576e-05
18810.0 1.8515e-05
18830.0 1.8456e-05
18850.0 1.8396e-05
18870.0 1.8335e-05
18890.0 1.8276e-05
18910.0 1.8218e-05
18930.0 1.8158e-05
18950.0 1.8099e-05
18970.0 1.8041e-05
18990.0 1.7983e-05
19010.0 1.7923e-05
19030.0 1.7866e-05
19050.0 1.7809e-05
19070.0 1.7751e-05
19090.0 1.7693e-05
19110.0 1.7637e-05
19130.0 1.758e-05
19150.0 1.7523e-05
19170.0 1.7467e-05
19190.0 1.7411e-05
19210.0 1.7354e-05
19230.0 1.7298e-05
19250.0 1.7244e-05
19270.0 1.7188e-05
19290.0 1.7133e-05
19310.0 1.7079e-05
19330.0 1.7024e-05
19350.0 1.6969e-05
19370.0 1.6915e-05
19390.0 1.6861e-05
19410.0 1.6807e-05
19430.0 1.6753e-05
19450.0 1.6701e-05
19470.0 1.6648e-05
19490.0 1.6595e-05
19510.0 1.6542e-05
19530.0 1.6491e-05
19550.0 1.6438e-05
19570.0 1.6385e-05
19590.0 1.6335e-05
19610.0 1.6284e-05
19630.0 1.6232e-05
19650.0 1.6181e-05
19670.0 1.6132e-05
19690.0 1.6081e-05
19710.0 1.603e-05
19730.0 1.5981e-05
19750.0 1.5932e-05
19770.0 1.5881e-05
19790.0 1.5833e-05
19810.0 1.5785e-05
19830.0 1.5736e-05
19850.0 1.5687e-05
19870.0 1.5639e-05
19890.0 1.5589e-05
19910.0 1.5535e-05
19930.0 1.548e-05
19950.0 1.5419e-05
19970.0 1.5348e-05
19990.0 1.5266e-05
20010.0 1.5176e-05
20030.0 1.5071e-05
20050.0 1.4951e-05
20070.0 1.4823e-05
20090.0 1.4689e-05
20110.0 1.454e-05
20130.0 1.4391e-05
20150.0 1.4246e-05
20170.0 1.4097e-05
20190.0 1.3947e-05
20210.0 1.3807e-05
20230.0 1.3669e-05
20250.0 1.3531e-05
20270.0 1.3402e-05
20290.0 1.3281e-05
20310.0 1.3162e-05
20330.0 1.3047e-05
20350.0 1.2945e-05
20370.0 1.2848e-05
20390.0 1.2755e-05
20410.0 1.2669e-05
20430.0 1.2592e-05
20450.0 1.2517e-05
20470.0 1.2448e-05
20490.0 1.2387e-05
20510.0 1.233e-05
20530.0 1.2278e-05
20550.0 1.2232e-05
20570.0 1.2192e-05
20590.0 1.2156e-05
20610.0 1.2124e-05
20630.0 1.2097e-05
20650.0 1.2074e-05
20670.0 1.2054e-05
20690.0 1.2038e-05
20710.0 1.2025e-05
20730.0 1.2013e-05
20750.0 1.2002e-05
20770.0 1.1992e-05
20790.0 1.1982e-05
20810.0 1.197e-05
20830.0 1.1956e-05
20850.0 1.1941e-05
20870.0 1.192e-05
20890.0 1.1896e-05
20910.0 1.1869e-05
20930.0 1.1836e-05
20950.0 1.1797e-05
20970.0 1.1754e-05
20990.0 1.1708e-05
21010.0 1.1654e-05
21030.0 1.1596e-05
21050.0 1.1536e-05
21070.0 1.1472e-05
21090.0 1.1403e-05
21110.0 1.1335e-05
21130.0 1.1266e-05
21150.0 1.1193e-05
21170.0 1.112e-05
21190.0 1.1051e-05
21210.0 1.0978e-05
21230.0 1.0905e-05
21250.0 1.0836e-05
21270.0 1.0769e-05
21290.0 1.07e-05
21310.0 1.0634e-05
21330.0 1.0574e-05
21350.0 1.0513e-05
21370.0 1.0453e-05
21390.0 1.0397e-05
21410.0 1.0344e-05
21430.0 1.0288e-05
21450.0 1.0237e-05
21470.0 1.019e-05
21490.0 1.0142e-05
21510.0 1.0094e-05
21530.0 1.005e-05
21550.0 1.0007e-05
21570.0 9.962e-06
21590.0 9.919e-06
21610.0 9.878e-06
21630.0 9.8354e-06
21650.0 9.791e-06
21670.0 9.7511e-06
21690.0 9.7101e-06
21710.0 9.667e-06
21730.0 9.6251e-06
21750.0 9.585e-06
21770.0 9.5408e-06
21790.0 9.4965e-06
21810.0 9.4543e-06
21830.0 9.4109e-06
21850.0 9.3647e-06
21870.0 9.3198e-06
21890.0 9.2767e-06
21910.0 9.2302e-06
21930.0 9.1832e-06
21950.0 9.1384e-06
21970.0 9.0922e-06
21990.0 9.0421e-06
22010.0 8.9954e-06
22030.0 8.9495e-06
22050.0 8.9012e-06
22070.0 8.8529e-06
22090.0 8.8083e-06
22110.0 8.7624e-06
22130.0 8.7152e-06
22150.0 8.6711e-06
22170.0 8.6292e-06
22190.0 8.5853e-06
22210.0 8.5433e-06
22230.0 8.5066e-06
22250.0 8.4701e-06
22270.0 8.4343e-06
22290.0 8.4028e-06
22310.0 8.3742e-06
22330.0 8.3449e-06
22350.0 8.319e-06
22370.0 8.2969e-06
22390.0 8.2757e-06
22410.0 8.2551e-06
22430.0 8.239e-06
22450.0 8.2248e-06
22470.0 8.2107e-06
22490.0 8.1988e-06
22510.0 8.1899e-06
22530.0 8.1807e-06
22550.0 8.1723e-06
22570.0 8.1671e-06
22590.0 8.1632e-06
22610.0 8.1595e-06
22630.0 8.1577e-06
22650.0 8.1589e-06
22670.0 8.1602e-06
22690.0 8.1628e-06
22710.0 8.1681e-06
22730.0 8.1751e-06
