#lamb flux
1010.0 5.8152e-08
1030.0 6.3828e-08
1050.0 7.0358e-08
1070.0 7.7708e-08
1090.0 8.6057e-08
1110.0 9.462e-08
1130.0 1.0324e-07
1150.0 1.1227e-07
1170.0 1.2158e-07
1190.0 1.3041e-07
1210.0 1.3936e-07
1230.0 1.4861e-07
1250.0 1.5767e-07
1270.0 1.6647e-07
1290.0 1.7576e-07
1310.0 1.8505e-07
1330.0 1.9396e-07
1350.0 2.0297e-07
1370.0 2.1228e-07
1390.0 2.2135e-07
1410.0 2.3014e-07
1430.0 2.3934e-07
1450.0 2.4854e-07
1470.0 2.5743e-07
1490.0 2.6642e-07
1510.0 2.7591e-07
1530.0 2.849e-07
1550.0 2.9377e-07
1570.0 3.0295e-07
1590.0 3.1214e-07
1610.0 3.2092e-07
1630.0 3.2997e-07
1650.0 3.3926e-07
1670.0 3.4824e-07
1690.0 3.5711e-07
1710.0 3.6633e-07
1730.0 3.7559e-07
1750.0 3.8431e-07
1770.0 3.9328e-07
1790.0 4.0243e-07
1810.0 4.1129e-07
1830.0 4.1999e-07
1850.0 4.2923e-07
1870.0 4.3822e-07
1890.0 4.4691e-07
1910.0 4.5577e-07
1930.0 4.6484e-07
1950.0 4.7348e-07
1970.0 4.8201e-07
1990.0 4.9085e-07
2010.0 4.9952e-07
2030.0 5.0786e-07
2050.0 5.1644e-07
2070.0 5.2521e-07
2090.0 5.3344e-07
2110.0 5.416e-07
2130.0 5.4998e-07
2150.0 5.5815e-07
2170.0 5.6588e-07
2190.0 5.7388e-07
2210.0 5.8187e-07
2230.0 5.8944e-07
2250.0 5.969e-07
2270.0 6.0466e-07
2290.0 6.1206e-07
2310.0 6.1905e-07
2330.0 6.2628e-07
2350.0 6.3365e-07
2370.0 6.4091e-07
2390.0 6.4884e-07
2410.0 6.5849e-07
2430.0 6.6986e-07
2450.0 6.8379e-07
2470.0 7.0217e-07
2490.0 7.2584e-07
2510.0 7.53e-07
2530.0 7.8608e-07
2550.0 8.2793e-07
2570.0 8.8022e-07
2590.0 9.4831e-07
2610.0 1.0503e-06
2630.0 1.1951e-06
2650.0 1.3829e-06
2670.0 1.6239e-06
2690.0 1.9178e-06
2710.0 2.2284e-06
2730.0 2.5319e-06
2750.0 2.8275e-06
2770.0 3.0805e-06
2790.0 3.2767e-06
2810.0 3.4279e-06
2830.0 3.5414e-06
2850.0 3.6134e-06
2870.0 3.6617e-06
2890.0 3.6963e-06
2910.0 3.7208e-06
2930.0 3.7382e-06
2950.0 3.7542e-06
2970.0 3.7697e-06
2990.0 3.7837e-06
3010.0 0.00011387
3030.0 0.00011428
3050.0 0.00011466
3070.0 0.00011495
3090.0 0.00011515
3110.0 0.00011514
3130.0 0.00011477
3150.0 0.00011391
3170.0 0.00011236
3190.0 0.00011012
3210.0 0.00010739
3230.0 0.00010432
3250.0 0.00010121
3270.0 9.8911e-05
3290.0 9.7392e-05
3310.0 9.7303e-05
3330.0 9.8397e-05
3350.0 0.00010056
3370.0 0.00010377
3390.0 0.00010791
3410.0 0.00011245
3430.0 0.00011759
3450.0 0.00012352
3470.0 0.00013003
3490.0 0.00013696
3510.0 0.00014482
3530.0 0.0001533
3550.0 0.00016207
3570.0 0.00017143
3590.0 0.00018168
3610.0 0.00019259
3630.0 0.0002034
3650.0 0.00021471
3670.0 0.00022494
3690.0 0.00023255
3710.0 0.00023666
3730.0 0.00023575
3750.0 0.00023032
3770.0 0.00023236
3790.0 0.0002304
3810.0 0.00020672
3830.0 0.0002097
3850.0 0.00026227
3870.0 0.00027239
3890.0 0.00024464
3910.0 0.00023696
3930.0 0.00025837
3950.0 0.00028037
3970.0 0.00027682
3990.0 0.00021118
4010.0 0.00055651
4030.0 0.00063855
4050.0 0.00072832
4070.0 0.00068062
4090.0 0.00062377
4110.0 0.00053901
4130.0 0.00054685
4150.0 0.0006453
4170.0 0.00057771
4190.0 0.00057474
4210.0 0.00059806
4230.0 0.00067204
4250.0 0.00080346
4270.0 0.00083894
4290.0 0.00075533
4310.0 0.00074801
4330.0 0.00077031
4350.0 0.00090996
4370.0 0.0010672
4390.0 0.00093268
4410.0 0.00061567
4430.0 0.00049185
4450.0 0.00045674
4470.0 0.000321
4490.0 0.00040485
4510.0 0.00072674
4530.0 0.00086191
4550.0 0.00083389
4570.0 0.00084857
4590.0 0.00093914
4610.0 0.0015026
4630.0 0.0020342
4650.0 0.0020719
4670.0 0.0018718
4690.0 0.0018311
4710.0 0.0019223
4730.0 0.001714
4750.0 0.0012133
4770.0 0.00085975
4790.0 0.00085857
4810.0 0.00085762
4830.0 0.00081287
4850.0 0.00088553
4870.0 0.0011712
4890.0 0.0013689
4910.0 0.0011414
4930.0 0.0010551
4950.0 0.0011852
4970.0 0.0015421
4990.0 0.002088
5010.0 0.0024148
5030.0 0.0020402
5050.0 0.0013265
5070.0 0.00090254
5090.0 0.00070429
5110.0 0.00069427
5130.0 0.00081885
5150.0 0.00084868
5170.0 0.0008196
5190.0 0.00074879
5210.0 0.00080684
5230.0 0.0009102
5250.0 0.0010166
5270.0 0.0010238
5290.0 0.0011188
5310.0 0.0013882
5330.0 0.0015219
5350.0 0.001507
5370.0 0.0016288
5390.0 0.0019455
5410.0 0.0018143
5430.0 0.0015154
5450.0 0.0014485
5470.0 0.0015978
5490.0 0.0019686
5510.0 0.0024266
5530.0 0.0027993
5550.0 0.0026274
5570.0 0.0023765
5590.0 0.0020165
5610.0 0.0019371
5630.0 0.0020122
5650.0 0.0018806
5670.0 0.0017552
5690.0 0.0014979
5710.0 0.0014972
5730.0 0.0014126
5750.0 0.00089243
5770.0 0.00066892
5790.0 0.00078533
5810.0 0.00085859
5830.0 0.0011685
5850.0 0.0014555
5870.0 0.001596
5890.0 0.0015798
5910.0 0.0015461
5930.0 0.0014758
5950.0 0.0015108
5970.0 0.0017941
5990.0 0.0015863
6010.0 0.0012826
6030.0 0.0010689
6050.0 0.00094112
6070.0 0.0010135
6090.0 0.0011153
6110.0 0.0011953
6130.0 0.0011663
6150.0 0.00096558
6170.0 0.00080089
6190.0 0.00092568
6210.0 0.001325
6230.0 0.001844
6250.0 0.0019989
6270.0 0.0016435
6290.0 0.0013948
6310.0 0.0010775
6330.0 0.00080712
6350.0 0.0007516
6370.0 0.00078965
6390.0 0.00092522
6410.0 0.0011694
6430.0 0.0013856
6450.0 0.0016388
6470.0 0.0018006
6490.0 0.002163
6510.0 0.0024214
6530.0 0.0024279
6550.0 0.002214
6570.0 0.0018188
6590.0 0.0016778
6610.0 0.0014183
6630.0 0.0013765
6650.0 0.001323
6670.0 0.001213
6690.0 0.0010126
6710.0 0.00095363
6730.0 0.0005462
6750.0 0.00061787
6770.0 0.00080987
6790.0 0.0010056
6810.0 0.00080135
6830.0 0.00082142
6850.0 0.00072351
6870.0 0.00066689
6890.0 0.00060224
6910.0 0.00068659
6930.0 0.00064524
6950.0 0.0007159
6970.0 0.00075055
6990.0 0.00084252
7010.0 0.00082792
7030.0 0.00089973
7050.0 0.00081643
7070.0 0.00072622
7090.0 0.00075493
7110.0 0.00079231
7130.0 0.00088431
7150.0 0.00097111
7170.0 0.001082
7190.0 0.0011751
7210.0 0.001099
7230.0 0.0011218
7250.0 0.0012011
7270.0 0.0012946
7290.0 0.0015705
7310.0 0.0016883
7330.0 0.001611
7350.0 0.001451
7370.0 0.001169
7390.0 0.0011643
7410.0 0.0013247
7430.0 0.0014923
7450.0 0.0016169
7470.0 0.0015346
7490.0 0.0013
7510.0 0.0017589
7530.0 0.0016712
7550.0 0.0015471
7570.0 0.0011259
7590.0 0.00063625
7610.0 0.00050743
7630.0 0.0006455
7650.0 0.00080787
7670.0 0.0011329
7690.0 0.0012527
7710.0 0.0012166
7730.0 0.0012469
7750.0 0.0015126
7770.0 0.001547
7790.0 0.0014163
7810.0 0.0012147
7830.0 0.0012852
7850.0 0.0013294
7870.0 0.001261
7890.0 0.0010187
7910.0 0.00075443
7930.0 0.00075132
7950.0 0.00068226
7970.0 0.00060328
7990.0 0.00057443
8010.0 0.00015527
8030.0 0.00014079
8050.0 0.00015234
8070.0 0.00017501
8090.0 0.00021788
8110.0 0.00020578
8130.0 0.00011805
8150.0 0.00012526
8170.0 6.5934e-05
8190.0 3.6241e-05
8210.0 0.00011332
8230.0 0.00013864
8250.0 5.0355e-05
8270.0 3.8252e-05
8290.0 8.3605e-05
8310.0 7.5947e-05
8330.0 4.6966e-05
8350.0 3.7318e-05
8370.0 6.9043e-06
8390.0 4.0174e-05
8410.0 4.5634e-05
8430.0 5.6441e-05
8450.0 6.4077e-05
8470.0 0.00010987
8490.0 8.994e-05
8510.0 6.8792e-05
8530.0 3.4476e-05
8550.0 0.00012582
8570.0 0.00019377
8590.0 0.00013427
8610.0 0.00020327
8630.0 0.00022285
8650.0 0.00012243
8670.0 0.0001804
8690.0 0.00027701
8710.0 0.0002361
8730.0 0.00025241
8750.0 0.00019725
8770.0 0.00017482
8790.0 0.00019334
8810.0 0.00021005
8830.0 0.00011544
8850.0 4.6594e-05
8870.0 3.172e-05
8890.0 8.5501e-05
8910.0 0.00013791
8930.0 0.0001847
8950.0 0.00020308
8970.0 0.00019476
8990.0 0.0001421
9010.0 0.00026567
9030.0 0.00021506
9050.0 0.00021983
9070.0 0.00022532
9090.0 0.00022987
9110.0 0.00023548
9130.0 0.00023956
9150.0 0.0002425
9170.0 0.00024562
9190.0 0.00024897
9210.0 0.00025248
9230.0 0.0002562
9250.0 0.00025994
9270.0 0.00026381
9290.0 0.00026777
9310.0 0.00027173
9330.0 0.00027574
9350.0 0.00027988
9370.0 0.00028405
9390.0 0.00028823
9410.0 0.00029251
9430.0 0.00029692
9450.0 0.00030127
9470.0 0.00030569
9490.0 0.00031024
9510.0 0.00031482
9530.0 0.00031939
9550.0 0.00032414
9570.0 0.00032895
9590.0 0.00033374
9610.0 0.00033861
9630.0 0.00034362
9650.0 0.00034865
9670.0 0.00035366
9690.0 0.00035882
9710.0 0.00036405
9730.0 0.00036927
9750.0 0.00037456
9770.0 0.00038003
9790.0 0.00038547
9810.0 0.00039092
9830.0 0.00039649
9850.0 0.00040214
9870.0 0.00040775
9890.0 0.00041344
9910.0 0.00041926
9930.0 0.00042507
9950.0 0.00043089
9970.0 0.00043684
9990.0 0.00044286
10010.0 0.00038845
10030.0 0.00039366
10050.0 0.00039897
10070.0 0.00040427
10090.0 0.00040952
10110.0 0.00041491
10130.0 0.00042029
10150.0 0.00042564
10170.0 0.00043104
10190.0 0.00043653
10210.0 0.00044195
10230.0 0.00044734
10250.0 0.00045283
10270.0 0.00045831
10290.0 0.00046371
10310.0 0.00046919
10330.0 0.00047473
10350.0 0.00048016
10370.0 0.00048558
10390.0 0.00049106
10410.0 0.00049651
10430.0 0.00050184
10450.0 0.00050723
10470.0 0.00051264
10490.0 0.00051794
10510.0 0.0005232
10530.0 0.00052856
10550.0 0.00053381
10570.0 0.00053895
10590.0 0.00054411
10610.0 0.00054927
10630.0 0.00055428
10650.0 0.00055926
10670.0 0.00056428
10690.0 0.00056919
10710.0 0.00057398
10730.0 0.00057879
10750.0 0.0005836
10770.0 0.00058819
10790.0 0.00059273
10810.0 0.00059728
10830.0 0.00060167
10850.0 0.00060584
10870.0 0.00060993
10890.0 0.00061362
10910.0 0.00061661
10930.0 0.00061866
10950.0 0.00061923
10970.0 0.00061782
10990.0 0.00061422
11010.0 0.00057891
11030.0 0.00056988
11050.0 0.0005587
11070.0 0.00054522
11090.0 0.00052897
11110.0 0.00051212
11130.0 0.00049456
11150.0 0.00047569
11170.0 0.00045629
11190.0 0.00043752
11210.0 0.0004182
11230.0 0.00039846
11250.0 0.00037965
11270.0 0.00036162
11290.0 0.0003436
11310.0 0.00032656
11330.0 0.00031152
11350.0 0.00029731
11370.0 0.00028415
11390.0 0.0002727
11410.0 0.00026262
11430.0 0.00025319
11450.0 0.00024498
11470.0 0.00023779
11490.0 0.00023104
11510.0 0.00022449
11530.0 0.00021838
11550.0 0.00021231
11570.0 0.00020586
11590.0 0.00019923
11610.0 0.00019251
11630.0 0.00018527
11650.0 0.00017757
11670.0 0.00017001
11690.0 0.00016238
11710.0 0.00015453
11730.0 0.00014694
11750.0 0.0001399
11770.0 0.000133
11790.0 0.00012651
11810.0 0.00012077
11830.0 0.0001156
11850.0 0.0001108
11870.0 0.00010674
11890.0 0.00010331
11910.0 0.00010025
11930.0 9.7582e-05
11950.0 9.5317e-05
11970.0 9.3269e-05
11990.0 9.1323e-05
12010.0 8.9516e-05
12030.0 8.7779e-05
12050.0 8.6003e-05
12070.0 8.4176e-05
12090.0 8.2418e-05
12110.0 8.0641e-05
12130.0 7.8861e-05
12150.0 7.72e-05
12170.0 7.5715e-05
12190.0 7.4379e-05
12210.0 7.335e-05
12230.0 7.2691e-05
12250.0 7.2424e-05
12270.0 7.2637e-05
12290.0 7.3334e-05
12310.0 7.4477e-05
12330.0 7.6196e-05
12350.0 7.8418e-05
12370.0 8.0998e-05
12390.0 8.4015e-05
12410.0 8.7594e-05
12430.0 9.1243e-05
12450.0 9.5031e-05
12470.0 9.9074e-05
12490.0 0.00010313
12510.0 0.00010693
12530.0 0.00011071
12550.0 0.00011435
12570.0 0.00011754
12590.0 0.00012031
12610.0 0.00012277
12630.0 0.0001247
12650.0 0.00012598
12670.0 0.00012677
12690.0 0.00012699
12710.0 0.00012662
12730.0 0.00012573
12750.0 0.00012427
12770.0 0.00012232
12790.0 0.00011999
12810.0 0.00011725
12830.0 0.00011411
12850.0 0.00011083
12870.0 0.00010739
12890.0 0.00010369
12910.0 9.9935e-05
12930.0 9.6249e-05
12950.0 9.2421e-05
12970.0 8.8541e-05
12990.0 8.4875e-05
13010.0 8.1264e-05
13030.0 7.7624e-05
13050.0 7.4131e-05
13070.0 7.0858e-05
13090.0 6.7576e-05
13110.0 6.44e-05
13130.0 6.1464e-05
13150.0 5.8677e-05
13170.0 5.5942e-05
13190.0 5.3494e-05
13210.0 5.1323e-05
13230.0 4.9322e-05
13250.0 4.7577e-05
13270.0 4.6171e-05
13290.0 4.5043e-05
13310.0 4.4217e-05
13330.0 4.3762e-05
13350.0 4.3654e-05
13370.0 4.391e-05
13390.0 4.4555e-05
13410.0 4.5488e-05
13430.0 4.6748e-05
13450.0 4.8344e-05
13470.0 5.0144e-05
13490.0 5.2075e-05
13510.0 5.428e-05
13530.0 5.6537e-05
13550.0 5.8716e-05
13570.0 6.0884e-05
13590.0 6.3017e-05
13610.0 6.493e-05
13630.0 6.6615e-05
13650.0 6.8171e-05
13670.0 6.9477e-05
13690.0 7.0502e-05
13710.0 7.131e-05
13730.0 7.1907e-05
13750.0 7.2228e-05
13770.0 7.2338e-05
13790.0 7.2248e-05
13810.0 7.196e-05
13830.0 7.1508e-05
13850.0 7.0881e-05
13870.0 7.008e-05
13890.0 6.9156e-05
13910.0 6.811e-05
13930.0 6.6897e-05
13950.0 6.5572e-05
13970.0 6.4216e-05
13990.0 6.2741e-05
14010.0 6.1175e-05
14030.0 5.9613e-05
14050.0 5.8041e-05
14070.0 5.6384e-05
14090.0 5.4796e-05
14110.0 5.3303e-05
14130.0 5.1855e-05
14150.0 5.049e-05
14170.0 4.9322e-05
14190.0 4.8307e-05
14210.0 4.744e-05
14230.0 4.679e-05
14250.0 4.636e-05
14270.0 4.6135e-05
14290.0 4.6147e-05
14310.0 4.6378e-05
14330.0 4.6815e-05
14350.0 4.7473e-05
14370.0 4.8304e-05
14390.0 4.9259e-05
14410.0 5.0392e-05
14430.0 5.1646e-05
14450.0 5.2936e-05
14470.0 5.4284e-05
14490.0 5.5727e-05
14510.0 5.7118e-05
14530.0 5.8447e-05
14550.0 5.9784e-05
14570.0 6.1075e-05
14590.0 6.2256e-05
14610.0 6.3403e-05
14630.0 6.454e-05
14650.0 6.5601e-05
14670.0 6.6625e-05
14690.0 6.7689e-05
14710.0 6.8804e-05
14730.0 6.9916e-05
14750.0 7.1146e-05
14770.0 7.2536e-05
14790.0 7.4043e-05
14810.0 7.5677e-05
14830.0 7.7611e-05
14850.0 7.9716e-05
14870.0 8.1918e-05
14890.0 8.4297e-05
14910.0 8.6828e-05
14930.0 8.9269e-05
14950.0 9.1558e-05
14970.0 9.3733e-05
14990.0 9.5569e-05
15010.0 9.6989e-05
15030.0 9.8058e-05
15050.0 9.8787e-05
15070.0 9.9175e-05
15090.0 9.9352e-05
15110.0 9.9383e-05
15130.0 9.932e-05
15150.0 9.9214e-05
15170.0 9.9077e-05
15190.0 9.8925e-05
15210.0 9.8778e-05
15230.0 9.8631e-05
15250.0 9.8477e-05
15270.0 9.8325e-05
15290.0 9.8186e-05
15310.0 9.8042e-05
15330.0 9.7895e-05
15350.0 9.7757e-05
15370.0 9.7621e-05
15390.0 9.7475e-05
15410.0 9.7336e-05
15430.0 9.7204e-05
15450.0 9.7067e-05
15470.0 9.6926e-05
15490.0 9.6797e-05
15510.0 9.6668e-05
15530.0 9.6532e-05
15550.0 9.6401e-05
15570.0 9.6277e-05
15590.0 9.6144e-05
15610.0 9.6009e-05
15630.0 9.5885e-05
15650.0 9.576e-05
15670.0 9.5628e-05
15690.0 9.5501e-05
15710.0 9.5382e-05
15730.0 9.5253e-05
15750.0 9.5123e-05
15770.0 9.5002e-05
15790.0 9.4879e-05
15810.0 9.4745e-05
15830.0 9.4621e-05
15850.0 9.4501e-05
15870.0 9.4374e-05
15890.0 9.4246e-05
15910.0 9.4127e-05
15930.0 9.4003e-05
15950.0 9.3871e-05
15970.0 9.3746e-05
15990.0 9.3625e-05
16010.0 9.3495e-05
16030.0 9.3362e-05
16050.0 9.3243e-05
16070.0 9.3117e-05
16090.0 9.2984e-05
16110.0 9.2858e-05
16130.0 9.2735e-05
16150.0 9.2598e-05
16170.0 9.2465e-05
16190.0 9.2339e-05
16210.0 9.2207e-05
16230.0 9.2069e-05
16250.0 9.1939e-05
16270.0 9.1811e-05
16290.0 9.1672e-05
16310.0 9.1534e-05
16330.0 9.1403e-05
16350.0 9.1266e-05
16370.0 9.1117e-05
16390.0 9.0982e-05
16410.0 9.0845e-05
16430.0 9.07e-05
16450.0 9.0556e-05
16470.0 9.042e-05
16490.0 9.0273e-05
16510.0 9.0121e-05
16530.0 8.9977e-05
16550.0 8.9832e-05
16570.0 8.9676e-05
16590.0 8.9522e-05
16610.0 8.9377e-05
16630.0 8.9223e-05
16650.0 8.9064e-05
16670.0 8.8912e-05
16690.0 8.8759e-05
16710.0 8.8591e-05
16730.0 8.8431e-05
16750.0 8.8274e-05
16770.0 8.8109e-05
16790.0 8.7938e-05
16810.0 8.7778e-05
16830.0 8.7614e-05
16850.0 8.744e-05
16870.0 8.727e-05
16890.0 8.7105e-05
16910.0 8.6927e-05
16930.0 8.6745e-05
16950.0 8.6574e-05
16970.0 8.6399e-05
16990.0 8.6214e-05
17010.0 8.6034e-05
17030.0 8.5859e-05
17050.0 8.5671e-05
17070.0 8.5482e-05
17090.0 8.5299e-05
17110.0 8.5113e-05
17130.0 8.4913e-05
17150.0 8.4723e-05
17170.0 8.4536e-05
17190.0 8.4338e-05
17210.0 8.4139e-05
17230.0 8.3948e-05
17250.0 8.375e-05
17270.0 8.3541e-05
17290.0 8.334e-05
17310.0 8.3141e-05
17330.0 8.2931e-05
17350.0 8.2719e-05
17370.0 8.2518e-05
17390.0 8.2309e-05
17410.0 8.2093e-05
17430.0 8.1883e-05
17450.0 8.1676e-05
17470.0 8.1451e-05
17490.0 8.1231e-05
17510.0 8.1018e-05
17530.0 8.0798e-05
17550.0 8.057e-05
17570.0 8.0351e-05
17590.0 8.0133e-05
17610.0 7.9902e-05
17630.0 7.9673e-05
17650.0 7.9451e-05
17670.0 7.9221e-05
17690.0 7.8979e-05
17710.0 7.8752e-05
17730.0 7.8522e-05
17750.0 7.8284e-05
17770.0 7.8047e-05
17790.0 7.7818e-05
17810.0 7.7576e-05
17830.0 7.7331e-05
17850.0 7.7093e-05
17870.0 7.6854e-05
17890.0 7.6604e-05
17910.0 7.6358e-05
17930.0 7.612e-05
17950.0 7.5872e-05
17970.0 7.5621e-05
17990.0 7.5377e-05
18010.0 7.5132e-05
18030.0 7.4872e-05
18050.0 7.462e-05
18070.0 7.4372e-05
18090.0 7.4117e-05
18110.0 7.3856e-05
18130.0 7.3607e-05
18150.0 7.3354e-05
18170.0 7.3092e-05
18190.0 7.2834e-05
18210.0 7.2582e-05
18230.0 7.2317e-05
18250.0 7.205e-05
18270.0 7.1794e-05
18290.0 7.1534e-05
18310.0 7.1266e-05
18330.0 7.1004e-05
18350.0 7.0747e-05
18370.0 7.0478e-05
18390.0 7.0209e-05
18410.0 6.9948e-05
18430.0 6.9682e-05
18450.0 6.9406e-05
18470.0 6.914e-05
18490.0 6.8877e-05
18510.0 6.8605e-05
18530.0 6.8334e-05
18550.0 6.8071e-05
18570.0 6.78e-05
18590.0 6.7522e-05
18610.0 6.7252e-05
18630.0 6.6985e-05
18650.0 6.6708e-05
18670.0 6.6431e-05
18690.0 6.6166e-05
18710.0 6.5893e-05
18730.0 6.5615e-05
18750.0 6.5345e-05
18770.0 6.5077e-05
18790.0 6.4793e-05
18810.0 6.4516e-05
18830.0 6.4247e-05
18850.0 6.3972e-05
18870.0 6.3691e-05
18890.0 6.342e-05
18910.0 6.3149e-05
18930.0 6.2868e-05
18950.0 6.2591e-05
18970.0 6.2321e-05
18990.0 6.2044e-05
19010.0 6.1757e-05
19030.0 6.1487e-05
19050.0 6.1214e-05
19070.0 6.0934e-05
19090.0 6.0657e-05
19110.0 6.0389e-05
19130.0 6.0109e-05
19150.0 5.9827e-05
19170.0 5.9555e-05
19190.0 5.9281e-05
19210.0 5.8999e-05
19230.0 5.8721e-05
19250.0 5.8453e-05
19270.0 5.8175e-05
19290.0 5.7896e-05
19310.0 5.7626e-05
19330.0 5.7353e-05
19350.0 5.7069e-05
19370.0 5.6794e-05
19390.0 5.6524e-05
19410.0 5.6247e-05
19430.0 5.5967e-05
19450.0 5.5699e-05
19470.0 5.5428e-05
19490.0 5.5149e-05
19510.0 5.4876e-05
19530.0 5.4609e-05
19550.0 5.433e-05
19570.0 5.4051e-05
19590.0 5.3785e-05
19610.0 5.3514e-05
19630.0 5.3237e-05
19650.0 5.2967e-05
19670.0 5.2703e-05
19690.0 5.2426e-05
19710.0 5.2153e-05
19730.0 5.1887e-05
19750.0 5.1618e-05
19770.0 5.134e-05
19790.0 5.1073e-05
19810.0 5.0809e-05
19830.0 5.0536e-05
19850.0 5.0262e-05
19870.0 4.9994e-05
19890.0 4.9708e-05
19910.0 4.9398e-05
19930.0 4.907e-05
19950.0 4.87e-05
19970.0 4.8254e-05
19990.0 4.7725e-05
20010.0 4.2961e-05
20030.0 4.2311e-05
20050.0 4.1557e-05
20070.0 4.0746e-05
20090.0 3.9877e-05
20110.0 3.8899e-05
20130.0 3.7913e-05
20150.0 3.6939e-05
20170.0 3.5931e-05
20190.0 3.4913e-05
20210.0 3.3951e-05
20230.0 3.3015e-05
20250.0 3.2078e-05
20270.0 3.1209e-05
20290.0 3.0414e-05
20310.0 2.9659e-05
20330.0 2.8951e-05
20350.0 2.8361e-05
20370.0 2.7835e-05
20390.0 2.7371e-05
20410.0 2.6992e-05
20430.0 2.6695e-05
20450.0 2.6455e-05
20470.0 2.6288e-05
20490.0 2.619e-05
20510.0 2.6149e-05
20530.0 2.6163e-05
20550.0 2.6228e-05
20570.0 2.6331e-05
20590.0 2.6477e-05
20610.0 2.6659e-05
20630.0 2.6862e-05
20650.0 2.7092e-05
20670.0 2.7358e-05
20690.0 2.7631e-05
20710.0 2.7914e-05
20730.0 2.8221e-05
20750.0 2.8542e-05
20770.0 2.8856e-05
20790.0 2.9186e-05
20810.0 2.9534e-05
20830.0 2.9879e-05
20850.0 3.0225e-05
20870.0 3.0593e-05
20890.0 3.0967e-05
20910.0 3.1326e-05
20930.0 3.1698e-05
20950.0 3.2081e-05
20970.0 3.2454e-05
20990.0 3.282e-05
21010.0 3.3204e-05
21030.0 3.3579e-05
21050.0 3.3936e-05
21070.0 3.4291e-05
21090.0 3.4647e-05
21110.0 3.497e-05
21130.0 3.5272e-05
21150.0 3.5565e-05
21170.0 3.583e-05
21190.0 3.6056e-05
21210.0 3.6259e-05
21230.0 3.6427e-05
21250.0 3.6545e-05
21270.0 3.6617e-05
21290.0 3.664e-05
21310.0 3.6605e-05
21330.0 3.6515e-05
21350.0 3.6361e-05
21370.0 3.6137e-05
21390.0 3.5855e-05
21410.0 3.551e-05
21430.0 3.5074e-05
21450.0 3.4586e-05
21470.0 3.4053e-05
21490.0 3.3452e-05
21510.0 3.2792e-05
21530.0 3.2121e-05
21550.0 3.1418e-05
21570.0 3.0669e-05
21590.0 2.9932e-05
21610.0 2.9219e-05
21630.0 2.8504e-05
21650.0 2.7806e-05
21670.0 2.7199e-05
21690.0 2.6639e-05
21710.0 2.6132e-05
21730.0 2.5715e-05
21750.0 2.5391e-05
21770.0 2.514e-05
21790.0 2.499e-05
21810.0 2.4938e-05
21830.0 2.4978e-05
21850.0 2.5116e-05
21870.0 2.5339e-05
21890.0 2.5631e-05
21910.0 2.601e-05
21930.0 2.6456e-05
21950.0 2.6941e-05
21970.0 2.748e-05
21990.0 2.8087e-05
22010.0 2.8695e-05
22030.0 2.9312e-05
22050.0 2.9963e-05
22070.0 3.0618e-05
22090.0 3.1238e-05
22110.0 3.1864e-05
22130.0 3.2491e-05
22150.0 3.3076e-05
22170.0 3.3629e-05
22190.0 3.4177e-05
22210.0 3.4687e-05
22230.0 3.5135e-05
22250.0 3.5558e-05
22270.0 3.5947e-05
22290.0 3.6279e-05
22310.0 3.6563e-05
22330.0 3.6813e-05
22350.0 3.7005e-05
22370.0 3.7138e-05
22390.0 3.722e-05
22410.0 3.7243e-05
22430.0 3.7203e-05
22450.0 3.7103e-05
22470.0 3.6935e-05
22490.0 3.67e-05
22510.0 3.6409e-05
22530.0 3.6038e-05
22550.0 3.5588e-05
22570.0 3.509e-05
22590.0 3.4529e-05
22610.0 3.3884e-05
22630.0 3.3186e-05
22650.0 3.2466e-05
22670.0 3.1669e-05
22690.0 3.082e-05
22710.0 2.9962e-05
22730.0 2.9079e-05
