#lamb flux
1010.0 3.4911e-06
1030.0 4.4764e-06
1050.0 5.673e-06
1070.0 7.1022e-06
1090.0 8.8242e-06
1110.0 1.0735e-05
1130.0 1.282e-05
1150.0 1.5157e-05
1170.0 1.7731e-05
1190.0 2.0373e-05
1210.0 2.3166e-05
1230.0 2.6136e-05
1250.0 2.9135e-05
1270.0 3.2087e-05
1290.0 3.5116e-05
1310.0 3.804e-05
1330.0 4.0697e-05
1350.0 4.3146e-05
1370.0 4.5384e-05
1390.0 4.7238e-05
1410.0 4.8674e-05
1430.0 4.985e-05
1450.0 5.0669e-05
1470.0 5.1085e-05
1490.0 5.1228e-05
1510.0 5.1186e-05
1530.0 5.081e-05
1550.0 5.0259e-05
1570.0 4.9676e-05
1590.0 4.9035e-05
1610.0 4.831e-05
1630.0 4.7658e-05
1650.0 4.7096e-05
1670.0 4.6563e-05
1690.0 4.6108e-05
1710.0 4.5808e-05
1730.0 4.5624e-05
1750.0 4.5482e-05
1770.0 4.549e-05
1790.0 4.5634e-05
1810.0 4.5851e-05
1830.0 4.6156e-05
1850.0 4.6627e-05
1870.0 4.7164e-05
1890.0 4.7758e-05
1910.0 4.8459e-05
1930.0 4.927e-05
1950.0 5.0112e-05
1970.0 5.1019e-05
1990.0 5.2039e-05
2010.0 5.3113e-05
2030.0 5.422e-05
2050.0 5.5424e-05
2070.0 5.672e-05
2090.0 5.8018e-05
2110.0 5.9374e-05
2130.0 6.0818e-05
2150.0 6.2299e-05
2170.0 6.3787e-05
2190.0 6.5362e-05
2210.0 6.6991e-05
2230.0 6.8621e-05
2250.0 7.0285e-05
2270.0 7.2033e-05
2290.0 7.3778e-05
2310.0 7.5504e-05
2330.0 7.7286e-05
2350.0 7.9094e-05
2370.0 8.0863e-05
2390.0 8.2645e-05
2410.0 8.4478e-05
2430.0 8.6276e-05
2450.0 8.8066e-05
2470.0 8.9951e-05
2490.0 9.2006e-05
2510.0 9.4239e-05
2530.0 9.6945e-05
2550.0 0.00010049
2570.0 0.00010513
2590.0 0.00011117
2610.0 0.00011976
2630.0 0.00013118
2650.0 0.00014523
2670.0 0.00016267
2690.0 0.00018393
2710.0 0.00020731
2730.0 0.00023187
2750.0 0.00025839
2770.0 0.0002844
2790.0 0.000308
2810.0 0.00032945
2830.0 0.00034871
2850.0 0.00036358
2870.0 0.00037551
2890.0 0.00038556
2910.0 0.00039381
2930.0 0.00040051
2950.0 0.00040678
2970.0 0.00041276
2990.0 0.00041813
3010.0 0.0004232
3030.0 0.00042839
3050.0 0.0004334
3070.0 0.00043776
3090.0 0.00044219
3110.0 0.00044673
3130.0 0.0004515
3150.0 0.00045514
3170.0 0.00046285
3190.0 0.00047525
3210.0 0.00049423
3230.0 0.00052331
3250.0 0.00056674
3270.0 0.00061278
3290.0 0.00067782
3310.0 0.00079502
3330.0 0.00082104
3350.0 0.00082415
3370.0 0.00082616
3390.0 0.00082785
3410.0 0.00082828
3430.0 0.00082771
3450.0 0.00082671
3470.0 0.00082574
3490.0 0.00082263
3510.0 0.00081149
3530.0 0.00077125
3550.0 0.00072959
3570.0 0.00074883
3590.0 0.00080979
3610.0 0.00087845
3630.0 0.00093156
3650.0 0.00089503
3670.0 0.00079858
3690.0 0.0007251
3710.0 0.00070991
3730.0 0.00072864
3750.0 0.00074001
3770.0 0.00076309
3790.0 0.00079007
3810.0 0.00079401
3830.0 0.0007407
3850.0 0.00068471
3870.0 0.00065995
3890.0 0.00067176
3910.0 0.00067498
3930.0 0.00067782
3950.0 0.00071262
3970.0 0.00075355
3990.0 0.00077161
4010.0 0.00076833
4030.0 0.00074407
4050.0 0.00073231
4070.0 0.00072579
4090.0 0.00072898
4110.0 0.00072935
4130.0 0.00070982
4150.0 0.00068556
4170.0 0.00067939
4190.0 0.00066094
4210.0 0.00061793
4230.0 0.00057188
4250.0 0.00052309
4270.0 0.00048558
4290.0 0.00046694
4310.0 0.00046267
4330.0 0.00047852
4350.0 0.00050838
4370.0 0.00053135
4390.0 0.00057626
4410.0 0.00061398
4430.0 0.00061864
4450.0 0.00057693
4470.0 0.00053648
4490.0 0.00052289
4510.0 0.00051638
4530.0 0.00051876
4550.0 0.00052121
4570.0 0.00053082
4590.0 0.00055027
4610.0 0.00057314
4630.0 0.00059103
4650.0 0.00060246
4670.0 0.00059709
4690.0 0.00056641
4710.0 0.00053548
4730.0 0.0005139
4750.0 0.00050185
4770.0 0.00049938
4790.0 0.00050025
4810.0 0.00049048
4830.0 0.00047951
4850.0 0.00050189
4870.0 0.00049316
4890.0 0.00049038
4910.0 0.00048446
4930.0 0.00045563
4950.0 0.00040417
4970.0 0.00037577
4990.0 0.00035152
5010.0 0.0003377
5030.0 0.00034243
5050.0 0.00035384
5070.0 0.00036119
5090.0 0.00037747
5110.0 0.00037825
5130.0 0.00037475
5150.0 0.0003772
5170.0 0.00036929
5190.0 0.00037036
5210.0 0.00037007
5230.0 0.0003577
5250.0 0.00035841
5270.0 0.00036447
5290.0 0.00035901
5310.0 0.00034632
5330.0 0.00033525
5350.0 0.00032163
5370.0 0.00031442
5390.0 0.00030818
5410.0 0.00029979
5430.0 0.00029973
5450.0 0.00029607
5470.0 0.00029806
5490.0 0.00031331
5510.0 0.00031943
5530.0 0.00032101
5550.0 0.00032211
5570.0 0.00032353
5590.0 0.00031901
5610.0 0.0003158
5630.0 0.00031574
5650.0 0.00031188
5670.0 0.00030483
5690.0 0.00029732
5710.0 0.00029425
5730.0 0.00029929
5750.0 0.000288
5770.0 0.00027384
5790.0 0.00025725
5810.0 0.00023031
5830.0 0.0002469
5850.0 0.00026918
5870.0 0.00027462
5890.0 0.00027827
5910.0 0.00028607
5930.0 0.0002873
5950.0 0.00028699
5970.0 0.00028706
5990.0 0.00028791
6010.0 0.00028202
6030.0 0.00027681
6050.0 0.00027573
6070.0 0.00027561
6090.0 0.00027676
6110.0 0.00027236
6130.0 0.00026572
6150.0 0.00025921
6170.0 0.00025284
6190.0 0.00024105
6210.0 0.00023649
6230.0 0.00023761
6250.0 0.0002357
6270.0 0.0002339
6290.0 0.00023681
6310.0 0.00024043
6330.0 0.00023862
6350.0 0.00023346
6370.0 0.00023256
6390.0 0.00022834
6410.0 0.00022544
6430.0 0.00022066
6450.0 0.00021871
6470.0 0.00021686
6490.0 0.00021597
6510.0 0.00021197
6530.0 0.00020883
6550.0 0.00020568
6570.0 0.00020265
6590.0 0.00020475
6610.0 0.00020466
6630.0 0.00019917
6650.0 0.00019332
6670.0 0.00019126
6690.0 0.00018837
6710.0 0.00018373
6730.0 0.00018186
6750.0 0.00018331
6770.0 0.00019232
6790.0 0.00020775
6810.0 0.00019939
6830.0 0.00017882
6850.0 0.00017017
6870.0 0.00016704
6890.0 0.00016617
6910.0 0.00016562
6930.0 0.00016459
6950.0 0.00016402
6970.0 0.00015878
6990.0 0.00015626
7010.0 0.00015721
7030.0 0.00015749
7050.0 0.00015399
7070.0 0.00014887
7090.0 0.00014638
7110.0 0.00014758
7130.0 0.00014742
7150.0 0.00014684
7170.0 0.00014595
7190.0 0.00014496
7210.0 0.0001469
7230.0 0.00014852
7250.0 0.00014847
7270.0 0.00014829
7290.0 0.00014955
7310.0 0.00014882
7330.0 0.00014544
7350.0 0.00014027
7370.0 0.00013801
7390.0 0.00013766
7410.0 0.00013382
7430.0 0.00013409
7450.0 0.000133
7470.0 0.00013469
7490.0 0.00013264
7510.0 0.00012827
7530.0 0.00012904
7550.0 0.00012666
7570.0 0.00012379
7590.0 0.00011858
7610.0 0.0001184
7630.0 0.0001219
7650.0 0.00012407
7670.0 0.00012029
7690.0 0.00012143
7710.0 0.00012513
7730.0 0.00012736
7750.0 0.00012986
7770.0 0.00012839
7790.0 0.00012537
7810.0 0.00012924
7830.0 0.00013433
7850.0 0.00013358
7870.0 0.00013695
7890.0 0.00013523
7910.0 0.00013306
7930.0 0.00013092
7950.0 0.00013357
7970.0 0.00013386
7990.0 0.00012555
8010.0 0.00012252
8030.0 0.00012113
8050.0 0.00011879
8070.0 0.00011618
8090.0 0.00010639
8110.0 0.00010666
8130.0 0.00011459
8150.0 0.00011909
8170.0 0.00012031
8190.0 0.00012392
8210.0 0.0001214
8230.0 0.0001194
8250.0 0.00011919
8270.0 0.00011697
8290.0 0.00011458
8310.0 0.00010907
8330.0 0.00010903
8350.0 0.00011074
8370.0 0.00011146
8390.0 0.00011092
8410.0 0.00010938
8430.0 0.00010759
8450.0 0.00010735
8470.0 0.00011161
8490.0 0.0001128
8510.0 0.00010824
8530.0 0.00010447
8550.0 0.000104
8570.0 0.00010106
8590.0 9.9377e-05
8610.0 0.0001012
8630.0 0.00010136
8650.0 0.00010056
8670.0 9.9894e-05
8690.0 9.8686e-05
8710.0 9.4366e-05
8730.0 9.4262e-05
8750.0 9.2101e-05
8770.0 9.2402e-05
8790.0 9.1509e-05
8810.0 8.9017e-05
8830.0 8.9291e-05
8850.0 8.9799e-05
8870.0 8.5548e-05
8890.0 8.2241e-05
8910.0 7.9494e-05
8930.0 7.5843e-05
8950.0 7.3792e-05
8970.0 7.0681e-05
8990.0 6.9551e-05
9010.0 6.7098e-05
9030.0 6.6339e-05
9050.0 6.5932e-05
9070.0 6.554e-05
9090.0 6.5145e-05
9110.0 6.4739e-05
9130.0 6.4334e-05
9150.0 6.3937e-05
9170.0 6.3534e-05
9190.0 6.3129e-05
9210.0 6.272e-05
9230.0 6.2309e-05
9250.0 6.1897e-05
9270.0 6.1483e-05
9290.0 6.1068e-05
9310.0 6.0659e-05
9330.0 6.0261e-05
9350.0 5.9862e-05
9370.0 5.9462e-05
9390.0 5.9062e-05
9410.0 5.8662e-05
9430.0 5.8262e-05
9450.0 5.7862e-05
9470.0 5.75e-05
9490.0 5.7118e-05
9510.0 5.6699e-05
9530.0 5.6286e-05
9550.0 5.5882e-05
9570.0 5.5483e-05
9590.0 5.5086e-05
9610.0 5.47e-05
9630.0 5.4319e-05
9650.0 5.394e-05
9670.0 5.3559e-05
9690.0 5.3184e-05
9710.0 5.281e-05
9730.0 5.2437e-05
9750.0 5.2066e-05
9770.0 5.1701e-05
9790.0 5.1336e-05
9810.0 5.0972e-05
9830.0 5.0611e-05
9850.0 5.0222e-05
9870.0 4.9828e-05
9890.0 4.9507e-05
9910.0 4.9179e-05
9930.0 4.8788e-05
9950.0 4.8445e-05
9970.0 4.8132e-05
9990.0 4.7811e-05
10010.0 4.7493e-05
10030.0 4.7171e-05
10050.0 4.6845e-05
10070.0 4.6524e-05
10090.0 4.6208e-05
10110.0 4.589e-05
10130.0 4.5575e-05
10150.0 4.5269e-05
10170.0 4.4964e-05
10190.0 4.466e-05
10210.0 4.4363e-05
10230.0 4.4071e-05
10250.0 4.3779e-05
10270.0 4.3491e-05
10290.0 4.321e-05
10310.0 4.293e-05
10330.0 4.2651e-05
10350.0 4.238e-05
10370.0 4.2113e-05
10390.0 4.1844e-05
10410.0 4.156e-05
10430.0 4.1277e-05
10450.0 4.1046e-05
10470.0 4.0805e-05
10490.0 4.0567e-05
10510.0 4.0331e-05
10530.0 4.0089e-05
10550.0 3.9853e-05
10570.0 3.9624e-05
10590.0 3.9395e-05
10610.0 3.9166e-05
10630.0 3.8947e-05
10650.0 3.873e-05
10670.0 3.8511e-05
10690.0 3.8298e-05
10710.0 3.8093e-05
10730.0 3.7886e-05
10750.0 3.7678e-05
10770.0 3.7483e-05
10790.0 3.7289e-05
10810.0 3.7093e-05
10830.0 3.6904e-05
10850.0 3.6721e-05
10870.0 3.6534e-05
10890.0 3.635e-05
10910.0 3.6174e-05
10930.0 3.5998e-05
10950.0 3.5819e-05
10970.0 3.5644e-05
10990.0 3.5474e-05
11010.0 3.797e-05
11030.0 3.777e-05
11050.0 3.7566e-05
11070.0 3.7351e-05
11090.0 3.7116e-05
11110.0 3.6886e-05
11130.0 3.6653e-05
11150.0 3.641e-05
11170.0 3.6162e-05
11190.0 3.5922e-05
11210.0 3.5676e-05
11230.0 3.5422e-05
11250.0 3.5179e-05
11270.0 3.4943e-05
11290.0 3.4702e-05
11310.0 3.4469e-05
11330.0 3.4259e-05
11350.0 3.4054e-05
11370.0 3.3857e-05
11390.0 3.3678e-05
11410.0 3.3513e-05
11430.0 3.335e-05
11450.0 3.32e-05
11470.0 3.3063e-05
11490.0 3.2929e-05
11510.0 3.2795e-05
11530.0 3.267e-05
11550.0 3.2546e-05
11570.0 3.2416e-05
11590.0 3.2286e-05
11610.0 3.2157e-05
11630.0 3.2019e-05
11650.0 3.1871e-05
11670.0 3.1727e-05
11690.0 3.1578e-05
11710.0 3.1418e-05
11730.0 3.1256e-05
11750.0 3.1099e-05
11770.0 3.0932e-05
11790.0 3.076e-05
11810.0 3.0594e-05
11830.0 3.0429e-05
11850.0 3.0254e-05
11870.0 3.009e-05
11890.0 2.9936e-05
11910.0 2.9782e-05
11930.0 2.9633e-05
11950.0 2.9499e-05
11970.0 2.9372e-05
11990.0 2.9248e-05
12010.0 2.9139e-05
12030.0 2.9044e-05
12050.0 2.8957e-05
12070.0 2.8878e-05
12090.0 2.8817e-05
12110.0 2.8764e-05
12130.0 2.8718e-05
12150.0 2.8683e-05
12170.0 2.8657e-05
12190.0 2.8632e-05
12210.0 2.8612e-05
12230.0 2.8596e-05
12250.0 2.8578e-05
12270.0 2.8554e-05
12290.0 2.8527e-05
12310.0 2.8495e-05
12330.0 2.8449e-05
12350.0 2.8392e-05
12370.0 2.8325e-05
12390.0 2.8244e-05
12410.0 2.814e-05
12430.0 2.8028e-05
12450.0 2.7904e-05
12470.0 2.7761e-05
12490.0 2.7603e-05
12510.0 2.7441e-05
12530.0 2.7262e-05
12550.0 2.7067e-05
12570.0 2.687e-05
12590.0 2.6668e-05
12610.0 2.645e-05
12630.0 2.6227e-05
12650.0 2.6014e-05
12670.0 2.5793e-05
12690.0 2.5567e-05
12710.0 2.535e-05
12730.0 2.514e-05
12750.0 2.492e-05
12770.0 2.4712e-05
12790.0 2.4518e-05
12810.0 2.4327e-05
12830.0 2.4139e-05
12850.0 2.3971e-05
12870.0 2.3813e-05
12890.0 2.366e-05
12910.0 2.3522e-05
12930.0 2.34e-05
12950.0 2.3286e-05
12970.0 2.3184e-05
12990.0 2.3101e-05
13010.0 2.3032e-05
13030.0 2.2974e-05
13050.0 2.2931e-05
13070.0 2.2901e-05
13090.0 2.288e-05
13110.0 2.2868e-05
13130.0 2.2863e-05
13150.0 2.2861e-05
13170.0 2.2861e-05
13190.0 2.2858e-05
13210.0 2.2851e-05
13230.0 2.2837e-05
13250.0 2.2813e-05
13270.0 2.2778e-05
13290.0 2.2732e-05
13310.0 2.2669e-05
13330.0 2.2595e-05
13350.0 2.2507e-05
13370.0 2.2404e-05
13390.0 2.2283e-05
13410.0 2.2157e-05
13430.0 2.2017e-05
13450.0 2.186e-05
13470.0 2.1696e-05
13490.0 2.1526e-05
13510.0 2.1337e-05
13530.0 2.114e-05
13550.0 2.0944e-05
13570.0 2.0738e-05
13590.0 2.0521e-05
13610.0 2.0305e-05
13630.0 2.0092e-05
13650.0 1.9866e-05
13670.0 1.9639e-05
13690.0 1.9418e-05
13710.0 1.9193e-05
13730.0 1.8957e-05
13750.0 1.8735e-05
13770.0 1.8515e-05
13790.0 1.8292e-05
13810.0 1.8072e-05
13830.0 1.7865e-05
13850.0 1.7655e-05
13870.0 1.7446e-05
13890.0 1.7249e-05
13910.0 1.7059e-05
13930.0 1.6868e-05
13950.0 1.6683e-05
13970.0 1.6513e-05
13990.0 1.6343e-05
14010.0 1.6177e-05
14030.0 1.6022e-05
14050.0 1.5874e-05
14070.0 1.5724e-05
14090.0 1.5584e-05
14110.0 1.5453e-05
14130.0 1.5325e-05
14150.0 1.52e-05
14170.0 1.5084e-05
14190.0 1.4974e-05
14210.0 1.4864e-05
14230.0 1.4759e-05
14250.0 1.4661e-05
14270.0 1.4561e-05
14290.0 1.4463e-05
14310.0 1.4371e-05
14330.0 1.428e-05
14350.0 1.4188e-05
14370.0 1.4099e-05
14390.0 1.4014e-05
14410.0 1.3928e-05
14430.0 1.3842e-05
14450.0 1.376e-05
14470.0 1.3679e-05
14490.0 1.3596e-05
14510.0 1.3515e-05
14530.0 1.3437e-05
14550.0 1.3358e-05
14570.0 1.3278e-05
14590.0 1.32e-05
14610.0 1.3121e-05
14630.0 1.304e-05
14650.0 1.296e-05
14670.0 1.2881e-05
14690.0 1.2799e-05
14710.0 1.2716e-05
14730.0 1.2636e-05
14750.0 1.2553e-05
14770.0 1.2469e-05
14790.0 1.2385e-05
14810.0 1.2301e-05
14830.0 1.2212e-05
14850.0 1.2124e-05
14870.0 1.2037e-05
14890.0 1.1948e-05
14910.0 1.1858e-05
14930.0 1.1772e-05
14950.0 1.169e-05
14970.0 1.1609e-05
14990.0 1.1533e-05
15010.0 1.1466e-05
15030.0 1.1403e-05
15050.0 1.1343e-05
15070.0 1.1291e-05
15090.0 1.1241e-05
15110.0 1.1193e-05
15130.0 1.1147e-05
15150.0 1.1102e-05
15170.0 1.1057e-05
15190.0 1.1012e-05
15210.0 1.0968e-05
15230.0 1.0925e-05
15250.0 1.088e-05
15270.0 1.0836e-05
15290.0 1.0793e-05
15310.0 1.075e-05
15330.0 1.0706e-05
15350.0 1.0663e-05
15370.0 1.0621e-05
15390.0 1.0577e-05
15410.0 1.0534e-05
15430.0 1.0493e-05
15450.0 1.045e-05
15470.0 1.0407e-05
15490.0 1.0366e-05
15510.0 1.0325e-05
15530.0 1.0283e-05
15550.0 1.0241e-05
15570.0 1.0201e-05
15590.0 1.0159e-05
15610.0 1.0118e-05
15630.0 1.0078e-05
15650.0 1.0037e-05
15670.0 9.9964e-06
15690.0 9.9563e-06
15710.0 9.9172e-06
15730.0 9.877e-06
15750.0 9.837e-06
15770.0 9.798e-06
15790.0 9.759e-06
15810.0 9.719e-06
15830.0 9.6802e-06
15850.0 9.6421e-06
15870.0 9.6033e-06
15890.0 9.5647e-06
15910.0 9.5272e-06
15930.0 9.4894e-06
15950.0 9.4508e-06
15970.0 9.4133e-06
15990.0 9.3763e-06
16010.0 9.3387e-06
16030.0 9.3009e-06
16050.0 9.2648e-06
16070.0 9.2283e-06
16090.0 9.1912e-06
16110.0 9.1551e-06
16130.0 9.1197e-06
16150.0 9.0828e-06
16170.0 9.0466e-06
16190.0 9.0116e-06
16210.0 8.9761e-06
16230.0 8.9402e-06
16250.0 8.9054e-06
16270.0 8.8712e-06
16290.0 8.836e-06
16310.0 8.8012e-06
16330.0 8.7674e-06
16350.0 8.7332e-06
16370.0 8.6981e-06
16390.0 8.6647e-06
16410.0 8.6315e-06
16430.0 8.5976e-06
16450.0 8.5641e-06
16470.0 8.5318e-06
16490.0 8.4986e-06
16510.0 8.4652e-06
16530.0 8.4329e-06
16550.0 8.4008e-06
16570.0 8.3679e-06
16590.0 8.3354e-06
16610.0 8.3043e-06
16630.0 8.2725e-06
16650.0 8.2405e-06
16670.0 8.2096e-06
16690.0 8.1788e-06
16710.0 8.1468e-06
16730.0 8.1158e-06
16750.0 8.0856e-06
16770.0 8.0549e-06
16790.0 8.0238e-06
16810.0 7.9942e-06
16830.0 7.9645e-06
16850.0 7.9341e-06
16870.0 7.9044e-06
16890.0 7.8754e-06
16910.0 7.8456e-06
16930.0 7.8156e-06
16950.0 7.787e-06
16970.0 7.7583e-06
16990.0 7.729e-06
17010.0 7.7005e-06
17030.0 7.6728e-06
17050.0 7.6441e-06
17070.0 7.6156e-06
17090.0 7.588e-06
17110.0 7.5603e-06
17130.0 7.5317e-06
17150.0 7.5043e-06
17170.0 7.4775e-06
17190.0 7.45e-06
17210.0 7.4226e-06
17230.0 7.3964e-06
17250.0 7.3696e-06
17270.0 7.3422e-06
17290.0 7.3158e-06
17310.0 7.2898e-06
17330.0 7.2632e-06
17350.0 7.2365e-06
17370.0 7.2113e-06
17390.0 7.1856e-06
17410.0 7.1594e-06
17430.0 7.1341e-06
17450.0 7.1093e-06
17470.0 7.0831e-06
17490.0 7.0577e-06
17510.0 7.0332e-06
17530.0 7.0082e-06
17550.0 6.9829e-06
17570.0 6.9585e-06
17590.0 6.9345e-06
17610.0 6.9096e-06
17630.0 6.8851e-06
17650.0 6.8615e-06
17670.0 6.8374e-06
17690.0 6.8123e-06
17710.0 6.789e-06
17730.0 6.7656e-06
17750.0 6.7416e-06
17770.0 6.718e-06
17790.0 6.6954e-06
17810.0 6.6717e-06
17830.0 6.648e-06
17850.0 6.6252e-06
17870.0 6.6025e-06
17890.0 6.579e-06
17910.0 6.5559e-06
17930.0 6.5339e-06
17950.0 6.5112e-06
17970.0 6.4883e-06
17990.0 6.4663e-06
18010.0 6.4444e-06
18030.0 6.4212e-06
18050.0 6.399e-06
18070.0 6.3774e-06
18090.0 6.3552e-06
18110.0 6.3327e-06
18130.0 6.3115e-06
18150.0 6.29e-06
18170.0 6.2678e-06
18190.0 6.2463e-06
18210.0 6.2254e-06
18230.0 6.2034e-06
18250.0 6.1813e-06
18270.0 6.1606e-06
18290.0 6.1395e-06
18310.0 6.1178e-06
18330.0 6.0968e-06
18350.0 6.0764e-06
18370.0 6.055e-06
18390.0 6.0337e-06
18410.0 6.0132e-06
18430.0 5.9925e-06
18450.0 5.9708e-06
18470.0 5.9503e-06
18490.0 5.9302e-06
18510.0 5.9093e-06
18530.0 5.8885e-06
18550.0 5.8686e-06
18570.0 5.8481e-06
18590.0 5.8269e-06
18610.0 5.8067e-06
18630.0 5.7867e-06
18650.0 5.766e-06
18670.0 5.7452e-06
18690.0 5.7257e-06
18710.0 5.7055e-06
18730.0 5.6849e-06
18750.0 5.665e-06
18770.0 5.6455e-06
18790.0 5.6245e-06
18810.0 5.6041e-06
18830.0 5.5847e-06
18850.0 5.5646e-06
18870.0 5.544e-06
18890.0 5.5245e-06
18910.0 5.505e-06
18930.0 5.4845e-06
18950.0 5.4644e-06
18970.0 5.4451e-06
18990.0 5.4251e-06
19010.0 5.4041e-06
19030.0 5.3848e-06
19050.0 5.3653e-06
19070.0 5.345e-06
19090.0 5.3251e-06
19110.0 5.3061e-06
19130.0 5.2858e-06
19150.0 5.2654e-06
19170.0 5.2459e-06
19190.0 5.2263e-06
19210.0 5.2057e-06
19230.0 5.1857e-06
19250.0 5.1666e-06
19270.0 5.1465e-06
19290.0 5.1263e-06
19310.0 5.1069e-06
19330.0 5.0873e-06
19350.0 5.0664e-06
19370.0 5.0465e-06
19390.0 5.0271e-06
19410.0 5.0069e-06
19430.0 4.9864e-06
19450.0 4.967e-06
19470.0 4.9473e-06
19490.0 4.9267e-06
19510.0 4.9067e-06
19530.0 4.8873e-06
19550.0 4.8666e-06
19570.0 4.8458e-06
19590.0 4.8262e-06
19610.0 4.8062e-06
19630.0 4.7854e-06
19650.0 4.7654e-06
19670.0 4.7458e-06
19690.0 4.725e-06
19710.0 4.7043e-06
19730.0 4.6844e-06
19750.0 4.6641e-06
19770.0 4.6427e-06
19790.0 4.6224e-06
19810.0 4.6025e-06
19830.0 4.5816e-06
19850.0 4.5609e-06
19870.0 4.5412e-06
19890.0 4.5208e-06
19910.0 4.5003e-06
19930.0 4.4815e-06
19950.0 4.4641e-06
19970.0 4.4475e-06
19990.0 4.4333e-06
20010.0 4.4224e-06
20030.0 4.4135e-06
20050.0 4.4069e-06
20070.0 4.4029e-06
20090.0 4.4007e-06
20110.0 4.3994e-06
20130.0 4.3992e-06
20150.0 4.3996e-06
20170.0 4.4002e-06
20190.0 4.4008e-06
20210.0 4.4016e-06
20230.0 4.4022e-06
20250.0 4.4024e-06
20270.0 4.4025e-06
20290.0 4.4025e-06
20310.0 4.4019e-06
20330.0 4.4008e-06
20350.0 4.3998e-06
20370.0 4.3983e-06
20390.0 4.3962e-06
20410.0 4.3939e-06
20430.0 4.3915e-06
20450.0 4.3884e-06
20470.0 4.3851e-06
20490.0 4.382e-06
20510.0 4.3787e-06
20530.0 4.3751e-06
20550.0 4.3717e-06
20570.0 4.3687e-06
20590.0 4.3656e-06
20610.0 4.3626e-06
20630.0 4.36e-06
20650.0 4.3575e-06
20670.0 4.3547e-06
20690.0 4.3523e-06
20710.0 4.3499e-06
20730.0 4.3471e-06
20750.0 4.3439e-06
20770.0 4.3407e-06
20790.0 4.3368e-06
20810.0 4.332e-06
20830.0 4.3267e-06
20850.0 4.3209e-06
20870.0 4.3136e-06
20890.0 4.3055e-06
20910.0 4.2971e-06
20930.0 4.2876e-06
20950.0 4.277e-06
20970.0 4.2662e-06
20990.0 4.2551e-06
21010.0 4.2427e-06
21030.0 4.2302e-06
21050.0 4.2179e-06
21070.0 4.2052e-06
21090.0 4.1919e-06
21110.0 4.1794e-06
21130.0 4.1671e-06
21150.0 4.1543e-06
21170.0 4.1418e-06
21190.0 4.1298e-06
21210.0 4.1173e-06
21230.0 4.1043e-06
21250.0 4.0919e-06
21270.0 4.0794e-06
21290.0 4.0659e-06
21310.0 4.0523e-06
21330.0 4.039e-06
21350.0 4.0246e-06
21370.0 4.0094e-06
21390.0 3.9943e-06
21410.0 3.9786e-06
21430.0 3.9613e-06
21450.0 3.9439e-06
21470.0 3.9267e-06
21490.0 3.9083e-06
21510.0 3.889e-06
21530.0 3.8702e-06
21550.0 3.8508e-06
21570.0 3.8301e-06
21590.0 3.8097e-06
21610.0 3.7895e-06
21630.0 3.7684e-06
21650.0 3.7464e-06
21670.0 3.7258e-06
21690.0 3.7047e-06
21710.0 3.6829e-06
21730.0 3.6615e-06
21750.0 3.6407e-06
21770.0 3.6185e-06
21790.0 3.5964e-06
21810.0 3.575e-06
21830.0 3.5533e-06
21850.0 3.5306e-06
21870.0 3.5085e-06
21890.0 3.4869e-06
21910.0 3.4644e-06
21930.0 3.4418e-06
21950.0 3.42e-06
21970.0 3.398e-06
21990.0 3.375e-06
22010.0 3.3534e-06
22030.0 3.3323e-06
22050.0 3.3109e-06
22070.0 3.29e-06
22090.0 3.2705e-06
22110.0 3.2512e-06
22130.0 3.2321e-06
22150.0 3.2142e-06
22170.0 3.1972e-06
22190.0 3.1802e-06
22210.0 3.164e-06
22230.0 3.1492e-06
22250.0 3.1346e-06
22270.0 3.1203e-06
22290.0 3.1069e-06
22310.0 3.0939e-06
22330.0 3.0807e-06
22350.0 3.0679e-06
22370.0 3.0555e-06
22390.0 3.0429e-06
22410.0 3.03e-06
22430.0 3.0175e-06
22450.0 3.005e-06
22470.0 2.9919e-06
22490.0 2.9787e-06
22510.0 2.9656e-06
22530.0 2.952e-06
22550.0 2.938e-06
22570.0 2.9243e-06
22590.0 2.9104e-06
22610.0 2.8961e-06
22630.0 2.8819e-06
