#lamb flux
1010.0 1.1898e-10
1030.0 1.4959e-10
1050.0 1.8474e-10
1070.0 2.2425e-10
1090.0 2.6905e-10
1110.0 3.1489e-10
1130.0 3.6091e-10
1150.0 4.09e-10
1170.0 4.5849e-10
1190.0 5.0526e-10
1210.0 5.5256e-10
1230.0 6.0137e-10
1250.0 6.4913e-10
1270.0 6.9548e-10
1290.0 7.4453e-10
1310.0 7.9362e-10
1330.0 8.4081e-10
1350.0 8.8872e-10
1370.0 9.384e-10
1390.0 9.8709e-10
1410.0 1.0346e-09
1430.0 1.0846e-09
1450.0 1.1348e-09
1470.0 1.1836e-09
1490.0 1.2332e-09
1510.0 1.2856e-09
1530.0 1.3356e-09
1550.0 1.3851e-09
1570.0 1.4363e-09
1590.0 1.4875e-09
1610.0 1.5367e-09
1630.0 1.5873e-09
1650.0 1.6391e-09
1670.0 1.6893e-09
1690.0 1.7389e-09
1710.0 1.7903e-09
1730.0 1.8419e-09
1750.0 1.8905e-09
1770.0 1.9405e-09
1790.0 1.9914e-09
1810.0 2.0408e-09
1830.0 2.0894e-09
1850.0 2.1406e-09
1870.0 2.1903e-09
1890.0 2.2385e-09
1910.0 2.2878e-09
1930.0 2.3384e-09
1950.0 2.387e-09
1970.0 2.4353e-09
1990.0 2.4855e-09
2010.0 2.5351e-09
2030.0 2.5832e-09
2050.0 2.6329e-09
2070.0 2.6841e-09
2090.0 2.7328e-09
2110.0 2.7816e-09
2130.0 2.8321e-09
2150.0 2.882e-09
2170.0 2.9301e-09
2190.0 2.9803e-09
2210.0 3.0309e-09
2230.0 3.0796e-09
2250.0 3.1284e-09
2270.0 3.1797e-09
2290.0 3.2299e-09
2310.0 3.2785e-09
2330.0 3.3289e-09
2350.0 3.3801e-09
2370.0 3.4296e-09
2390.0 3.4797e-09
2410.0 3.5325e-09
2430.0 3.5846e-09
2450.0 3.6377e-09
2470.0 3.6967e-09
2490.0 3.7654e-09
2510.0 3.8448e-09
2530.0 3.9478e-09
2550.0 4.0904e-09
2570.0 4.2823e-09
2590.0 4.5363e-09
2610.0 4.8993e-09
2630.0 5.3807e-09
2650.0 5.9693e-09
2670.0 6.6959e-09
2690.0 7.5757e-09
2710.0 8.5397e-09
2730.0 9.5536e-09
2750.0 1.0651e-08
2770.0 1.174e-08
2790.0 1.2752e-08
2810.0 1.3704e-08
2830.0 1.4595e-08
2850.0 1.5344e-08
2870.0 1.6008e-08
2890.0 1.6626e-08
2910.0 1.7204e-08
2930.0 1.7752e-08
2950.0 1.8316e-08
2970.0 1.8902e-08
2990.0 1.95e-08
3010.0 2.0124e-08
3030.0 2.079e-08
3050.0 2.1487e-08
3070.0 2.2197e-08
3090.0 2.2949e-08
3110.0 2.3749e-08
3130.0 2.4607e-08
3150.0 2.5585e-08
3170.0 2.683e-08
3190.0 2.8452e-08
3210.0 3.0573e-08
3230.0 3.3395e-08
3250.0 3.6975e-08
3270.0 4.0376e-08
3290.0 4.5782e-08
3310.0 5.6877e-08
3330.0 6.056e-08
3350.0 6.237e-08
3370.0 6.4109e-08
3390.0 6.5878e-08
3410.0 6.7667e-08
3430.0 6.9471e-08
3450.0 7.1274e-08
3470.0 7.3045e-08
3490.0 7.4754e-08
3510.0 7.6308e-08
3530.0 7.5632e-08
3550.0 7.3542e-08
3570.0 7.4615e-08
3590.0 7.9303e-08
3610.0 8.6422e-08
3630.0 8.923e-08
3650.0 8.5697e-08
3670.0 7.8718e-08
3690.0 7.4673e-08
3710.0 7.5628e-08
3730.0 7.8117e-08
3750.0 7.9453e-08
3770.0 8.213e-08
3790.0 8.5119e-08
3810.0 8.3903e-08
3830.0 7.8195e-08
3850.0 7.3095e-08
3870.0 7.0676e-08
3890.0 6.9859e-08
3910.0 6.8286e-08
3930.0 6.7496e-08
3950.0 6.9395e-08
3970.0 7.1617e-08
3990.0 7.2268e-08
4010.0 6.9608e-08
4030.0 6.582e-08
4050.0 6.3388e-08
4070.0 6.1328e-08
4090.0 5.9659e-08
4110.0 5.7475e-08
4130.0 5.4037e-08
4150.0 5.058e-08
4170.0 4.853e-08
4190.0 4.5249e-08
4210.0 4.0965e-08
4230.0 3.6627e-08
4250.0 3.2511e-08
4270.0 2.9439e-08
4290.0 2.7163e-08
4310.0 2.5959e-08
4330.0 2.5917e-08
4350.0 2.6037e-08
4370.0 2.6286e-08
4390.0 2.7253e-08
4410.0 2.7922e-08
4430.0 2.695e-08
4450.0 2.4471e-08
4470.0 2.2307e-08
4490.0 2.1128e-08
4510.0 2.0372e-08
4530.0 1.9994e-08
4550.0 1.9671e-08
4570.0 1.9589e-08
4590.0 1.9858e-08
4610.0 2.0471e-08
4630.0 2.0837e-08
4650.0 2.102e-08
4670.0 2.0509e-08
4690.0 1.929e-08
4710.0 1.8076e-08
4730.0 1.7291e-08
4750.0 1.6808e-08
4770.0 1.6867e-08
4790.0 1.6801e-08
4810.0 1.6441e-08
4830.0 1.6472e-08
4850.0 1.6987e-08
4870.0 1.7155e-08
4890.0 1.6846e-08
4910.0 1.6457e-08
4930.0 1.5521e-08
4950.0 1.4167e-08
4970.0 1.3241e-08
4990.0 1.2482e-08
5010.0 1.2319e-08
5030.0 1.2734e-08
5050.0 1.3061e-08
5070.0 1.3549e-08
5090.0 1.4368e-08
5110.0 1.4587e-08
5130.0 1.4714e-08
5150.0 1.4986e-08
5170.0 1.5111e-08
5190.0 1.5508e-08
5210.0 1.5588e-08
5230.0 1.5427e-08
5250.0 1.5553e-08
5270.0 1.577e-08
5290.0 1.5813e-08
5310.0 1.5695e-08
5330.0 1.5397e-08
5350.0 1.5186e-08
5370.0 1.5025e-08
5390.0 1.4826e-08
5410.0 1.4661e-08
5430.0 1.4657e-08
5450.0 1.4871e-08
5470.0 1.5147e-08
5490.0 1.5574e-08
5510.0 1.6046e-08
5530.0 1.6244e-08
5550.0 1.6487e-08
5570.0 1.652e-08
5590.0 1.6175e-08
5610.0 1.6058e-08
5630.0 1.618e-08
5650.0 1.5983e-08
5670.0 1.563e-08
5690.0 1.516e-08
5710.0 1.5122e-08
5730.0 1.5281e-08
5750.0 1.4629e-08
5770.0 1.3879e-08
5790.0 1.2756e-08
5810.0 1.1156e-08
5830.0 1.2028e-08
5850.0 1.332e-08
5870.0 1.361e-08
5890.0 1.3684e-08
5910.0 1.3793e-08
5930.0 1.3765e-08
5950.0 1.3536e-08
5970.0 1.3374e-08
5990.0 1.318e-08
6010.0 1.2779e-08
6030.0 1.2341e-08
6050.0 1.2148e-08
6070.0 1.2095e-08
6090.0 1.191e-08
6110.0 1.1513e-08
6130.0 1.1121e-08
6150.0 1.0675e-08
6170.0 1.0228e-08
6190.0 9.7721e-09
6210.0 9.4266e-09
6230.0 9.2889e-09
6250.0 9.092e-09
6270.0 8.9019e-09
6290.0 8.8316e-09
6310.0 8.7729e-09
6330.0 8.5797e-09
6350.0 8.3009e-09
6370.0 8.1416e-09
6390.0 7.9826e-09
6410.0 7.7593e-09
6430.0 7.5495e-09
6450.0 7.3829e-09
6470.0 7.2243e-09
6490.0 7.1139e-09
6510.0 6.9923e-09
6530.0 6.8141e-09
6550.0 6.6633e-09
6570.0 6.5612e-09
6590.0 6.5495e-09
6610.0 6.5082e-09
6630.0 6.2902e-09
6650.0 6.113e-09
6670.0 6.05e-09
6690.0 5.9551e-09
6710.0 5.8124e-09
6730.0 5.7614e-09
6750.0 5.8061e-09
6770.0 6.1525e-09
6790.0 6.88e-09
6810.0 6.5324e-09
6830.0 5.735e-09
6850.0 5.5093e-09
6870.0 5.4249e-09
6890.0 5.4257e-09
6910.0 5.4373e-09
6930.0 5.4501e-09
6950.0 5.4326e-09
6970.0 5.2948e-09
6990.0 5.247e-09
7010.0 5.3252e-09
7030.0 5.3496e-09
7050.0 5.272e-09
7070.0 5.2203e-09
7090.0 5.2556e-09
7110.0 5.3778e-09
7130.0 5.3955e-09
7150.0 5.4151e-09
7170.0 5.444e-09
7190.0 5.5195e-09
7210.0 5.5786e-09
7230.0 5.6373e-09
7250.0 5.7125e-09
7270.0 5.766e-09
7290.0 5.8563e-09
7310.0 5.9654e-09
7330.0 5.9195e-09
7350.0 5.7955e-09
7370.0 5.7156e-09
7390.0 5.7005e-09
7410.0 5.726e-09
7430.0 5.7971e-09
7450.0 5.8332e-09
7470.0 5.9147e-09
7490.0 5.8805e-09
7510.0 5.8174e-09
7530.0 5.885e-09
7550.0 6.0701e-09
7570.0 6.0546e-09
7590.0 5.7415e-09
7610.0 5.6921e-09
7630.0 6.0158e-09
7650.0 6.1354e-09
7670.0 6.179e-09
7690.0 6.4535e-09
7710.0 6.6625e-09
7730.0 6.726e-09
7750.0 7.0773e-09
7770.0 6.895e-09
7790.0 6.7304e-09
7810.0 7.1319e-09
7830.0 7.4041e-09
7850.0 7.5915e-09
7870.0 7.7394e-09
7890.0 7.8e-09
7910.0 7.7426e-09
7930.0 7.7964e-09
7950.0 8.1479e-09
7970.0 8.1463e-09
7990.0 7.5877e-09
8010.0 7.2992e-09
8030.0 7.4435e-09
8050.0 7.6021e-09
8070.0 6.8789e-09
8090.0 4.5079e-09
8110.0 4.7051e-09
8130.0 6.7113e-09
8150.0 7.228e-09
8170.0 7.5153e-09
8190.0 7.6797e-09
8210.0 7.5814e-09
8230.0 8.2169e-09
8250.0 8.3952e-09
8270.0 7.9413e-09
8290.0 7.6288e-09
8310.0 7.5163e-09
8330.0 7.9235e-09
8350.0 8.2982e-09
8370.0 8.1429e-09
8390.0 7.7655e-09
8410.0 7.7579e-09
8430.0 7.2691e-09
8450.0 7.4268e-09
8470.0 8.1158e-09
8490.0 8.1404e-09
8510.0 7.5482e-09
8530.0 7.0765e-09
8550.0 6.784e-09
8570.0 6.3925e-09
8590.0 6.5753e-09
8610.0 6.9755e-09
8630.0 7.1634e-09
8650.0 7.2872e-09
8670.0 7.0883e-09
8690.0 6.9231e-09
8710.0 6.4406e-09
8730.0 6.2089e-09
8750.0 6.4609e-09
8770.0 6.5614e-09
8790.0 6.5431e-09
8810.0 6.5098e-09
8830.0 6.6475e-09
8850.0 6.9809e-09
8870.0 6.5189e-09
8890.0 6.1477e-09
8910.0 6.0572e-09
8930.0 5.6958e-09
8950.0 5.4857e-09
8970.0 5.4825e-09
8990.0 5.2484e-09
9010.0 4.927e-09
9030.0 4.8152e-09
9050.0 4.7751e-09
9070.0 4.7395e-09
9090.0 4.7035e-09
9110.0 4.6674e-09
9130.0 4.6311e-09
9150.0 4.5947e-09
9170.0 4.5581e-09
9190.0 4.5215e-09
9210.0 4.4847e-09
9230.0 4.448e-09
9250.0 4.4113e-09
9270.0 4.3746e-09
9290.0 4.338e-09
9310.0 4.3015e-09
9330.0 4.2651e-09
9350.0 4.2288e-09
9370.0 4.1927e-09
9390.0 4.1567e-09
9410.0 4.121e-09
9430.0 4.0854e-09
9450.0 4.05e-09
9470.0 4.0149e-09
9490.0 3.9801e-09
9510.0 3.9455e-09
9530.0 3.9111e-09
9550.0 3.877e-09
9570.0 3.8432e-09
9590.0 3.8098e-09
9610.0 3.7766e-09
9630.0 3.7438e-09
9650.0 3.7113e-09
9670.0 3.6791e-09
9690.0 3.6472e-09
9710.0 3.6157e-09
9730.0 3.5845e-09
9750.0 3.5536e-09
9770.0 3.5231e-09
9790.0 3.493e-09
9810.0 3.4632e-09
9830.0 3.4337e-09
9850.0 3.4046e-09
9870.0 3.3758e-09
9890.0 3.3474e-09
9910.0 3.3193e-09
9930.0 3.2916e-09
9950.0 3.2642e-09
9970.0 3.2371e-09
9990.0 3.2104e-09
10010.0 3.1841e-09
10030.0 3.158e-09
10050.0 3.1323e-09
10070.0 3.107e-09
10090.0 3.0819e-09
10110.0 3.0572e-09
10130.0 3.0328e-09
10150.0 3.0087e-09
10170.0 2.985e-09
10190.0 2.9615e-09
10210.0 2.9384e-09
10230.0 2.9155e-09
10250.0 2.893e-09
10270.0 2.8707e-09
10290.0 2.8487e-09
10310.0 2.827e-09
10330.0 2.8056e-09
10350.0 2.7845e-09
10370.0 2.7636e-09
10390.0 2.7427e-09
10410.0 2.7181e-09
10430.0 2.6925e-09
10450.0 2.6773e-09
10470.0 2.6599e-09
10490.0 2.6421e-09
10510.0 2.6241e-09
10530.0 2.6053e-09
10550.0 2.5868e-09
10570.0 2.5688e-09
10590.0 2.5506e-09
10610.0 2.5325e-09
10630.0 2.5149e-09
10650.0 2.4976e-09
10670.0 2.4799e-09
10690.0 2.4627e-09
10710.0 2.446e-09
10730.0 2.4292e-09
10750.0 2.4122e-09
10770.0 2.3961e-09
10790.0 2.38e-09
10810.0 2.3637e-09
10830.0 2.3479e-09
10850.0 2.3325e-09
10870.0 2.3167e-09
10890.0 2.301e-09
10910.0 2.2858e-09
10930.0 2.2706e-09
10950.0 2.2549e-09
10970.0 2.2395e-09
10990.0 2.2243e-09
11010.0 2.1954e-09
11030.0 2.1794e-09
11050.0 2.1636e-09
11070.0 2.1474e-09
11090.0 2.1304e-09
11110.0 2.1138e-09
11130.0 2.0972e-09
11150.0 2.08e-09
11170.0 2.0626e-09
11190.0 2.0457e-09
11210.0 2.0285e-09
11230.0 2.0108e-09
11250.0 1.9937e-09
11270.0 1.9771e-09
11290.0 1.9602e-09
11310.0 1.9438e-09
11330.0 1.9286e-09
11350.0 1.9138e-09
11370.0 1.8994e-09
11390.0 1.8861e-09
11410.0 1.8735e-09
11430.0 1.861e-09
11450.0 1.8492e-09
11470.0 1.8382e-09
11490.0 1.8273e-09
11510.0 1.8164e-09
11530.0 1.8059e-09
11550.0 1.7956e-09
11570.0 1.7849e-09
11590.0 1.7741e-09
11610.0 1.7635e-09
11630.0 1.7523e-09
11650.0 1.7406e-09
11670.0 1.7291e-09
11690.0 1.7174e-09
11710.0 1.7052e-09
11730.0 1.6929e-09
11750.0 1.6809e-09
11770.0 1.6684e-09
11790.0 1.6557e-09
11810.0 1.6434e-09
11830.0 1.6313e-09
11850.0 1.6187e-09
11870.0 1.6067e-09
11890.0 1.5953e-09
11910.0 1.584e-09
11930.0 1.573e-09
11950.0 1.5629e-09
11970.0 1.5531e-09
11990.0 1.5435e-09
12010.0 1.5348e-09
12030.0 1.5268e-09
12050.0 1.5192e-09
12070.0 1.512e-09
12090.0 1.5058e-09
12110.0 1.5e-09
12130.0 1.4946e-09
12150.0 1.4896e-09
12170.0 1.4852e-09
12190.0 1.4808e-09
12210.0 1.4766e-09
12230.0 1.4726e-09
12250.0 1.4686e-09
12270.0 1.4642e-09
12290.0 1.4597e-09
12310.0 1.455e-09
12330.0 1.4495e-09
12350.0 1.4435e-09
12370.0 1.4371e-09
12390.0 1.43e-09
12410.0 1.4218e-09
12430.0 1.4134e-09
12450.0 1.4043e-09
12470.0 1.3944e-09
12490.0 1.3838e-09
12510.0 1.3732e-09
12530.0 1.3619e-09
12550.0 1.3498e-09
12570.0 1.3378e-09
12590.0 1.3257e-09
12610.0 1.3129e-09
12630.0 1.3001e-09
12650.0 1.2878e-09
12670.0 1.2753e-09
12690.0 1.2627e-09
12710.0 1.2508e-09
12730.0 1.2392e-09
12750.0 1.2273e-09
12770.0 1.2161e-09
12790.0 1.2057e-09
12810.0 1.1956e-09
12830.0 1.1858e-09
12850.0 1.177e-09
12870.0 1.1688e-09
12890.0 1.1609e-09
12910.0 1.1538e-09
12930.0 1.1476e-09
12950.0 1.1418e-09
12970.0 1.1366e-09
12990.0 1.1324e-09
13010.0 1.1289e-09
13030.0 1.126e-09
13050.0 1.1238e-09
13070.0 1.1222e-09
13090.0 1.121e-09
13110.0 1.1203e-09
13130.0 1.1199e-09
13150.0 1.1196e-09
13170.0 1.1194e-09
13190.0 1.119e-09
13210.0 1.1184e-09
13230.0 1.1174e-09
13250.0 1.1159e-09
13270.0 1.1139e-09
13290.0 1.1112e-09
13310.0 1.1078e-09
13330.0 1.1037e-09
13350.0 1.0991e-09
13370.0 1.0936e-09
13390.0 1.0873e-09
13410.0 1.0808e-09
13430.0 1.0737e-09
13450.0 1.0658e-09
13470.0 1.0575e-09
13490.0 1.0491e-09
13510.0 1.0398e-09
13530.0 1.0301e-09
13550.0 1.0206e-09
13570.0 1.0106e-09
13590.0 1.0001e-09
13610.0 9.8978e-10
13630.0 9.7956e-10
13650.0 9.6878e-10
13670.0 9.5798e-10
13690.0 9.4752e-10
13710.0 9.369e-10
13730.0 9.2579e-10
13750.0 9.1541e-10
13770.0 9.0524e-10
13790.0 8.9489e-10
13810.0 8.8481e-10
13830.0 8.754e-10
13850.0 8.6593e-10
13870.0 8.5658e-10
13890.0 8.4784e-10
13910.0 8.3949e-10
13930.0 8.3111e-10
13950.0 8.231e-10
13970.0 8.158e-10
13990.0 8.0857e-10
14010.0 8.0151e-10
14030.0 7.9499e-10
14050.0 7.8879e-10
14070.0 7.8254e-10
14090.0 7.7676e-10
14110.0 7.714e-10
14130.0 7.6618e-10
14150.0 7.6111e-10
14170.0 7.5652e-10
14190.0 7.5215e-10
14210.0 7.4781e-10
14230.0 7.4373e-10
14250.0 7.3992e-10
14270.0 7.3609e-10
14290.0 7.3231e-10
14310.0 7.2882e-10
14330.0 7.2538e-10
14350.0 7.219e-10
14370.0 7.1855e-10
14390.0 7.1538e-10
14410.0 7.1211e-10
14430.0 7.0888e-10
14450.0 7.058e-10
14470.0 7.0275e-10
14490.0 6.9957e-10
14510.0 6.9653e-10
14530.0 6.9359e-10
14550.0 6.9054e-10
14570.0 6.8747e-10
14590.0 6.8452e-10
14610.0 6.8148e-10
14630.0 6.7831e-10
14650.0 6.752e-10
14670.0 6.7212e-10
14690.0 6.6889e-10
14710.0 6.6558e-10
14730.0 6.6241e-10
14750.0 6.5913e-10
14770.0 6.5571e-10
14790.0 6.5232e-10
14810.0 6.4895e-10
14830.0 6.453e-10
14850.0 6.4164e-10
14870.0 6.3807e-10
14890.0 6.3441e-10
14910.0 6.3066e-10
14930.0 6.2711e-10
14950.0 6.2375e-10
14970.0 6.2044e-10
14990.0 6.1743e-10
15010.0 6.148e-10
15030.0 6.1241e-10
15050.0 6.1021e-10
15070.0 6.0835e-10
15090.0 6.0667e-10
15110.0 6.0503e-10
15130.0 6.0348e-10
15150.0 6.0202e-10
15170.0 6.0053e-10
15190.0 5.9902e-10
15210.0 5.9757e-10
15230.0 5.9612e-10
15250.0 5.9462e-10
15270.0 5.9313e-10
15290.0 5.9171e-10
15310.0 5.9024e-10
15330.0 5.8874e-10
15350.0 5.873e-10
15370.0 5.8587e-10
15390.0 5.8435e-10
15410.0 5.8287e-10
15430.0 5.8144e-10
15450.0 5.7996e-10
15470.0 5.7845e-10
15490.0 5.7702e-10
15510.0 5.7558e-10
15530.0 5.7408e-10
15550.0 5.7262e-10
15570.0 5.7119e-10
15590.0 5.697e-10
15610.0 5.6819e-10
15630.0 5.6676e-10
15650.0 5.6531e-10
15670.0 5.6381e-10
15690.0 5.6235e-10
15710.0 5.6093e-10
15730.0 5.5944e-10
15750.0 5.5795e-10
15770.0 5.5651e-10
15790.0 5.5506e-10
15810.0 5.5354e-10
15830.0 5.5208e-10
15850.0 5.5065e-10
15870.0 5.4918e-10
15890.0 5.4769e-10
15910.0 5.4627e-10
15930.0 5.4481e-10
15950.0 5.433e-10
15970.0 5.4185e-10
15990.0 5.4041e-10
16010.0 5.3892e-10
16030.0 5.3742e-10
16050.0 5.3601e-10
16070.0 5.3455e-10
16090.0 5.3306e-10
16110.0 5.3161e-10
16130.0 5.3019e-10
16150.0 5.2868e-10
16170.0 5.2719e-10
16190.0 5.2576e-10
16210.0 5.243e-10
16230.0 5.228e-10
16250.0 5.2136e-10
16270.0 5.1993e-10
16290.0 5.1844e-10
16310.0 5.1697e-10
16330.0 5.1554e-10
16350.0 5.1408e-10
16370.0 5.1255e-10
16390.0 5.1112e-10
16410.0 5.0968e-10
16430.0 5.082e-10
16450.0 5.0673e-10
16470.0 5.0531e-10
16490.0 5.0384e-10
16510.0 5.0234e-10
16530.0 5.009e-10
16550.0 4.9946e-10
16570.0 4.9796e-10
16590.0 4.9648e-10
16610.0 4.9506e-10
16630.0 4.936e-10
16650.0 4.9211e-10
16670.0 4.9068e-10
16690.0 4.8924e-10
16710.0 4.8773e-10
16730.0 4.8626e-10
16750.0 4.8483e-10
16770.0 4.8336e-10
16790.0 4.8186e-10
16810.0 4.8044e-10
16830.0 4.79e-10
16850.0 4.7751e-10
16870.0 4.7605e-10
16890.0 4.7463e-10
16910.0 4.7314e-10
16930.0 4.7164e-10
16950.0 4.7021e-10
16970.0 4.6876e-10
16990.0 4.6727e-10
17010.0 4.6581e-10
17030.0 4.644e-10
17050.0 4.6291e-10
17070.0 4.6143e-10
17090.0 4.6e-10
17110.0 4.5855e-10
17130.0 4.5703e-10
17150.0 4.5558e-10
17170.0 4.5416e-10
17190.0 4.5268e-10
17210.0 4.512e-10
17230.0 4.4978e-10
17250.0 4.4833e-10
17270.0 4.4682e-10
17290.0 4.4537e-10
17310.0 4.4394e-10
17330.0 4.4245e-10
17350.0 4.4096e-10
17370.0 4.3955e-10
17390.0 4.3809e-10
17410.0 4.366e-10
17430.0 4.3516e-10
17450.0 4.3374e-10
17470.0 4.3223e-10
17490.0 4.3075e-10
17510.0 4.2932e-10
17530.0 4.2786e-10
17550.0 4.2637e-10
17570.0 4.2493e-10
17590.0 4.235e-10
17610.0 4.2201e-10
17630.0 4.2054e-10
17650.0 4.1912e-10
17670.0 4.1765e-10
17690.0 4.1613e-10
17710.0 4.147e-10
17730.0 4.1326e-10
17750.0 4.1178e-10
17770.0 4.1031e-10
17790.0 4.089e-10
17810.0 4.0742e-10
17830.0 4.0593e-10
17850.0 4.0449e-10
17870.0 4.0305e-10
17890.0 4.0155e-10
17910.0 4.0007e-10
17930.0 3.9866e-10
17950.0 3.9719e-10
17970.0 3.9571e-10
17990.0 3.9428e-10
18010.0 3.9284e-10
18030.0 3.9132e-10
18050.0 3.8986e-10
18070.0 3.8843e-10
18090.0 3.8696e-10
18110.0 3.8546e-10
18130.0 3.8404e-10
18150.0 3.826e-10
18170.0 3.8111e-10
18190.0 3.7965e-10
18210.0 3.7823e-10
18230.0 3.7674e-10
18250.0 3.7524e-10
18270.0 3.7381e-10
18290.0 3.7236e-10
18310.0 3.7087e-10
18330.0 3.6942e-10
18350.0 3.68e-10
18370.0 3.6651e-10
18390.0 3.6503e-10
18410.0 3.636e-10
18430.0 3.6214e-10
18450.0 3.6063e-10
18470.0 3.5918e-10
18490.0 3.5776e-10
18510.0 3.5628e-10
18530.0 3.548e-10
18550.0 3.5338e-10
18570.0 3.5192e-10
18590.0 3.5041e-10
18610.0 3.4897e-10
18630.0 3.4753e-10
18650.0 3.4604e-10
18670.0 3.4455e-10
18690.0 3.4314e-10
18710.0 3.4168e-10
18730.0 3.4019e-10
18750.0 3.3875e-10
18770.0 3.3732e-10
18790.0 3.3581e-10
18810.0 3.3433e-10
18830.0 3.329e-10
18850.0 3.3144e-10
18870.0 3.2995e-10
18890.0 3.2851e-10
18910.0 3.2708e-10
18930.0 3.2559e-10
18950.0 3.2412e-10
18970.0 3.2269e-10
18990.0 3.2122e-10
19010.0 3.197e-10
19030.0 3.1827e-10
19050.0 3.1683e-10
19070.0 3.1534e-10
19090.0 3.1388e-10
19110.0 3.1247e-10
19130.0 3.1098e-10
19150.0 3.0949e-10
19170.0 3.0805e-10
19190.0 3.066e-10
19210.0 3.051e-10
19230.0 3.0363e-10
19250.0 3.0221e-10
19270.0 3.0074e-10
19290.0 2.9926e-10
19310.0 2.9783e-10
19330.0 2.9639e-10
19350.0 2.9487e-10
19370.0 2.9341e-10
19390.0 2.9197e-10
19410.0 2.905e-10
19430.0 2.89e-10
19450.0 2.8758e-10
19470.0 2.8613e-10
19490.0 2.8464e-10
19510.0 2.8319e-10
19530.0 2.8176e-10
19550.0 2.8026e-10
19570.0 2.7876e-10
19590.0 2.7734e-10
19610.0 2.7588e-10
19630.0 2.7439e-10
19650.0 2.7294e-10
19670.0 2.7152e-10
19690.0 2.7003e-10
19710.0 2.6855e-10
19730.0 2.6711e-10
19750.0 2.6566e-10
19770.0 2.6414e-10
19790.0 2.6269e-10
19810.0 2.6127e-10
19830.0 2.5979e-10
19850.0 2.5832e-10
19870.0 2.5691e-10
19890.0 2.5547e-10
19910.0 2.5402e-10
19930.0 2.5268e-10
19950.0 2.5141e-10
19970.0 2.5019e-10
19990.0 2.4912e-10
20010.0 2.4822e-10
20030.0 2.4745e-10
20050.0 2.468e-10
20070.0 2.463e-10
20090.0 2.4589e-10
20110.0 2.4553e-10
20130.0 2.4523e-10
20150.0 2.4496e-10
20170.0 2.4469e-10
20190.0 2.4441e-10
20210.0 2.4414e-10
20230.0 2.4386e-10
20250.0 2.4355e-10
20270.0 2.4323e-10
20290.0 2.429e-10
20310.0 2.4254e-10
20330.0 2.4215e-10
20350.0 2.4177e-10
20370.0 2.4136e-10
20390.0 2.4092e-10
20410.0 2.4047e-10
20430.0 2.4002e-10
20450.0 2.3954e-10
20470.0 2.3904e-10
20490.0 2.3856e-10
20510.0 2.3807e-10
20530.0 2.3756e-10
20550.0 2.3708e-10
20570.0 2.3662e-10
20590.0 2.3615e-10
20610.0 2.3568e-10
20630.0 2.3525e-10
20650.0 2.3482e-10
20670.0 2.3438e-10
20690.0 2.3395e-10
20710.0 2.3354e-10
20730.0 2.331e-10
20750.0 2.3264e-10
20770.0 2.3218e-10
20790.0 2.3169e-10
20810.0 2.3116e-10
20830.0 2.306e-10
20850.0 2.3001e-10
20870.0 2.2936e-10
20890.0 2.2866e-10
20910.0 2.2795e-10
20930.0 2.2719e-10
20950.0 2.2637e-10
20970.0 2.2555e-10
20990.0 2.2472e-10
21010.0 2.2383e-10
21030.0 2.2293e-10
21050.0 2.2206e-10
21070.0 2.2117e-10
21090.0 2.2025e-10
21110.0 2.1938e-10
21130.0 2.1853e-10
21150.0 2.1766e-10
21170.0 2.168e-10
21190.0 2.1599e-10
21210.0 2.1514e-10
21230.0 2.1428e-10
21250.0 2.1346e-10
21270.0 2.1263e-10
21290.0 2.1176e-10
21310.0 2.1089e-10
21330.0 2.1004e-10
21350.0 2.0914e-10
21370.0 2.0821e-10
21390.0 2.0728e-10
21410.0 2.0634e-10
21430.0 2.0531e-10
21450.0 2.0429e-10
21470.0 2.0327e-10
21490.0 2.0221e-10
21510.0 2.0111e-10
21530.0 2.0004e-10
21550.0 1.9895e-10
21570.0 1.9779e-10
21590.0 1.9666e-10
21610.0 1.9554e-10
21630.0 1.9439e-10
21650.0 1.932e-10
21670.0 1.9208e-10
21690.0 1.9095e-10
21710.0 1.8979e-10
21730.0 1.8866e-10
21750.0 1.8756e-10
21770.0 1.8641e-10
21790.0 1.8526e-10
21810.0 1.8415e-10
21830.0 1.8304e-10
21850.0 1.8189e-10
21870.0 1.8077e-10
21890.0 1.7969e-10
21910.0 1.7856e-10
21930.0 1.7744e-10
21950.0 1.7636e-10
21970.0 1.7528e-10
21990.0 1.7416e-10
22010.0 1.7311e-10
22030.0 1.7209e-10
22050.0 1.7107e-10
22070.0 1.7007e-10
22090.0 1.6916e-10
22110.0 1.6826e-10
22130.0 1.6737e-10
22150.0 1.6655e-10
22170.0 1.6578e-10
22190.0 1.6501e-10
22210.0 1.6429e-10
22230.0 1.6364e-10
22250.0 1.63e-10
22270.0 1.6238e-10
22290.0 1.6181e-10
22310.0 1.6127e-10
22330.0 1.6071e-10
22350.0 1.6018e-10
22370.0 1.5967e-10
22390.0 1.5916e-10
22410.0 1.5863e-10
22430.0 1.5813e-10
22450.0 1.5763e-10
22470.0 1.571e-10
22490.0 1.5658e-10
22510.0 1.5607e-10
22530.0 1.5553e-10
22550.0 1.5497e-10
22570.0 1.5444e-10
22590.0 1.5391e-10
22610.0 1.5336e-10
22630.0 1.5282e-10
