#lamb flux
1010.0 1.9316e-07
1030.0 2.1176e-07
1050.0 2.3315e-07
1070.0 2.5723e-07
1090.0 2.8458e-07
1110.0 3.1263e-07
1130.0 3.4086e-07
1150.0 3.7044e-07
1170.0 4.0095e-07
1190.0 4.2987e-07
1210.0 4.5919e-07
1230.0 4.8948e-07
1250.0 5.1916e-07
1270.0 5.4799e-07
1290.0 5.7845e-07
1310.0 6.0888e-07
1330.0 6.3806e-07
1350.0 6.6758e-07
1370.0 6.9804e-07
1390.0 7.2775e-07
1410.0 7.5657e-07
1430.0 7.8669e-07
1450.0 8.1681e-07
1470.0 8.4592e-07
1490.0 8.7534e-07
1510.0 9.064e-07
1530.0 9.3583e-07
1550.0 9.6486e-07
1570.0 9.9488e-07
1590.0 1.0249e-06
1610.0 1.0536e-06
1630.0 1.0832e-06
1650.0 1.1135e-06
1670.0 1.1428e-06
1690.0 1.1717e-06
1710.0 1.2017e-06
1730.0 1.2318e-06
1750.0 1.2601e-06
1770.0 1.2891e-06
1790.0 1.3187e-06
1810.0 1.3473e-06
1830.0 1.3753e-06
1850.0 1.4049e-06
1870.0 1.4337e-06
1890.0 1.4613e-06
1910.0 1.4894e-06
1930.0 1.518e-06
1950.0 1.5451e-06
1970.0 1.5716e-06
1990.0 1.5989e-06
2010.0 1.6255e-06
2030.0 1.6508e-06
2050.0 1.6766e-06
2070.0 1.7028e-06
2090.0 1.7268e-06
2110.0 1.7504e-06
2130.0 1.7743e-06
2150.0 1.7971e-06
2170.0 1.8182e-06
2190.0 1.8396e-06
2210.0 1.8606e-06
2230.0 1.8798e-06
2250.0 1.8981e-06
2270.0 1.9169e-06
2290.0 1.934e-06
2310.0 1.9492e-06
2330.0 1.9646e-06
2350.0 1.9797e-06
2370.0 1.9938e-06
2390.0 2.0092e-06
2410.0 2.0288e-06
2430.0 2.0524e-06
2450.0 2.0825e-06
2470.0 2.1243e-06
2490.0 2.1802e-06
2510.0 2.2452e-06
2530.0 2.3267e-06
2550.0 2.4335e-06
2570.0 2.5712e-06
2590.0 2.7547e-06
2610.0 3.035e-06
2630.0 3.4333e-06
2650.0 3.9441e-06
2670.0 4.5907e-06
2690.0 5.3653e-06
2710.0 6.1647e-06
2730.0 6.925e-06
2750.0 7.6451e-06
2770.0 8.2363e-06
2790.0 8.6677e-06
2810.0 8.9747e-06
2830.0 9.1795e-06
2850.0 9.2769e-06
2870.0 9.3142e-06
2890.0 9.3173e-06
2910.0 9.2958e-06
2930.0 9.2585e-06
2950.0 9.2187e-06
2970.0 9.1788e-06
2990.0 9.1372e-06
3010.0 0.0002915
3030.0 0.00029031
3050.0 0.00028913
3070.0 0.00028778
3090.0 0.00028629
3110.0 0.00028435
3130.0 0.0002816
3150.0 0.0002778
3170.0 0.00027239
3190.0 0.00026547
3210.0 0.0002575
3230.0 0.0002488
3250.0 0.00023991
3270.0 0.00023325
3290.0 0.00022817
3310.0 0.00022699
3330.0 0.00022842
3350.0 0.00023239
3370.0 0.00023888
3390.0 0.00024756
3410.0 0.00025728
3430.0 0.00026841
3450.0 0.00028138
3470.0 0.00029573
3490.0 0.00031115
3510.0 0.00032875
3530.0 0.00034799
3550.0 0.00036865
3570.0 0.00039147
3590.0 0.00041698
3610.0 0.00044543
3630.0 0.00047372
3650.0 0.00050371
3670.0 0.00053073
3690.0 0.00055082
3710.0 0.00056086
3730.0 0.00055482
3750.0 0.00053309
3770.0 0.00054531
3790.0 0.00053275
3810.0 0.00041071
3830.0 0.00039455
3850.0 0.00058152
3870.0 0.0005612
3890.0 0.00042463
3910.0 0.00041277
3930.0 0.00052711
3950.0 0.00063076
3970.0 0.00071696
3990.0 0.0004932
4010.0 0.00092286
4030.0 0.00089028
4050.0 0.00093936
4070.0 0.0010652
4090.0 0.0010091
4110.0 0.00088995
4130.0 0.001097
4150.0 0.0014709
4170.0 0.0011642
4190.0 0.0010266
4210.0 0.0011579
4230.0 0.0014367
4250.0 0.0017179
4270.0 0.001868
4290.0 0.001659
4310.0 0.001532
4330.0 0.0015161
4350.0 0.0019443
4370.0 0.0023666
4390.0 0.0018778
4410.0 0.0010441
4430.0 0.00073719
4450.0 0.00068877
4470.0 0.00042481
4490.0 0.00075273
4510.0 0.0016234
4530.0 0.001981
4550.0 0.0018671
4570.0 0.00167
4590.0 0.0017866
4610.0 0.003556
4630.0 0.0049926
4650.0 0.0047052
4670.0 0.0041326
4690.0 0.0042498
4710.0 0.0044491
4730.0 0.0036229
4750.0 0.0023303
4770.0 0.0015969
4790.0 0.0017877
4810.0 0.0018854
4830.0 0.0018689
4850.0 0.002031
4870.0 0.002691
4890.0 0.0031179
4910.0 0.0024103
4930.0 0.0023426
4950.0 0.0027041
4970.0 0.0036135
4990.0 0.0048759
5010.0 0.005628
5030.0 0.0044734
5050.0 0.0027159
5070.0 0.0019365
5090.0 0.0014743
5110.0 0.0013749
5130.0 0.0016504
5150.0 0.0015873
5170.0 0.0014881
5190.0 0.0013211
5210.0 0.0014713
5230.0 0.0018464
5250.0 0.002163
5270.0 0.0019889
5290.0 0.002147
5310.0 0.0029044
5330.0 0.0031004
5350.0 0.0030532
5370.0 0.0034491
5390.0 0.0043136
5410.0 0.0036648
5430.0 0.0027794
5450.0 0.0028179
5470.0 0.0033028
5490.0 0.0041525
5510.0 0.0050609
5530.0 0.0058702
5550.0 0.0052796
5570.0 0.0047245
5590.0 0.0038689
5610.0 0.0039492
5630.0 0.0044664
5650.0 0.0041228
5670.0 0.0037916
5690.0 0.0030486
5710.0 0.0031426
5730.0 0.0030655
5750.0 0.0016303
5770.0 0.0011631
5790.0 0.0014546
5810.0 0.0015354
5830.0 0.0024255
5850.0 0.0031777
5870.0 0.0033966
5890.0 0.0032181
5910.0 0.0031242
5930.0 0.0030163
5950.0 0.0031192
5970.0 0.0038889
5990.0 0.0031704
6010.0 0.002423
6030.0 0.0019683
6050.0 0.0017587
6070.0 0.0021257
6090.0 0.0024043
6110.0 0.002438
6130.0 0.0022235
6150.0 0.0017397
6170.0 0.0013566
6190.0 0.0016795
6210.0 0.0026869
6230.0 0.0039748
6250.0 0.0042627
6270.0 0.0032313
6290.0 0.0027678
6310.0 0.002109
6330.0 0.0015327
6350.0 0.0015166
6370.0 0.0015929
6390.0 0.0019166
6410.0 0.002481
6430.0 0.0029938
6450.0 0.0036961
6470.0 0.0038942
6490.0 0.0046729
6510.0 0.0052455
6530.0 0.0053446
6550.0 0.0049259
6570.0 0.0039708
6590.0 0.0038138
6610.0 0.0031529
6630.0 0.003301
6650.0 0.0032023
6670.0 0.0027955
6690.0 0.002162
6710.0 0.002118
6730.0 0.0009138
6750.0 0.0012421
6770.0 0.0019825
6790.0 0.0026486
6810.0 0.0018728
6830.0 0.0019119
6850.0 0.0015871
6870.0 0.0014957
6890.0 0.0012548
6910.0 0.0015259
6930.0 0.0014348
6950.0 0.0017361
6970.0 0.0017915
6990.0 0.0019835
7010.0 0.0019243
7030.0 0.0021998
7050.0 0.0018911
7070.0 0.0015683
7090.0 0.0016802
7110.0 0.0017712
7130.0 0.0020417
7150.0 0.0023298
7170.0 0.0026096
7190.0 0.0027617
7210.0 0.0024346
7230.0 0.0024599
7250.0 0.0026488
7270.0 0.0028593
7290.0 0.0035126
7310.0 0.0036736
7330.0 0.0033996
7350.0 0.003037
7370.0 0.0022175
7390.0 0.0023155
7410.0 0.002885
7430.0 0.0032905
7450.0 0.0035395
7470.0 0.0032359
7490.0 0.0026108
7510.0 0.0043216
7530.0 0.0038878
7550.0 0.0036544
7570.0 0.0024464
7590.0 0.0010317
7610.0 0.0007072
7630.0 0.0011176
7650.0 0.0015235
7670.0 0.0024808
7690.0 0.0027767
7710.0 0.0024745
7730.0 0.0024313
7750.0 0.003231
7770.0 0.0033182
7790.0 0.0030406
7810.0 0.0024427
7830.0 0.0026494
7850.0 0.002926
7870.0 0.0028769
7890.0 0.0022414
7910.0 0.0014778
7930.0 0.0015338
7950.0 0.0013819
7970.0 0.0011549
7990.0 0.0010331
8010.0 0.00070256
8030.0 0.00064955
8050.0 0.00069985
8070.0 0.00077731
8090.0 0.00093394
8110.0 0.00087463
8130.0 0.00053749
8150.0 0.00054884
8170.0 0.00032497
8190.0 0.00021284
8210.0 0.00049029
8230.0 0.00058591
8250.0 0.00025324
8270.0 0.00020295
8290.0 0.00035172
8310.0 0.00030196
8330.0 0.0001848
8350.0 0.00014859
8370.0 4.2128e-05
8390.0 0.00016004
8410.0 0.00018746
8430.0 0.00023342
8450.0 0.00026217
8470.0 0.000428
8490.0 0.00035055
8510.0 0.00027334
8530.0 0.00014332
8550.0 0.0004737
8570.0 0.00073466
8590.0 0.00052238
8610.0 0.00077578
8630.0 0.00084353
8650.0 0.00046749
8670.0 0.00067472
8690.0 0.0010348
8710.0 0.00089288
8730.0 0.00095952
8750.0 0.00075951
8770.0 0.00067805
8790.0 0.0007512
8810.0 0.00081067
8830.0 0.00045803
8850.0 0.00020949
8870.0 0.00015183
8890.0 0.00035417
8910.0 0.00055148
8930.0 0.00072294
8950.0 0.00081262
8970.0 0.00078508
8990.0 0.00059788
9010.0 0.00047249
9030.0 0.00036156
9050.0 0.00037696
9070.0 0.00039246
9090.0 0.00040494
9110.0 0.00041985
9130.0 0.00043063
9150.0 0.00043836
9170.0 0.00044659
9190.0 0.00045539
9210.0 0.00046463
9230.0 0.0004744
9250.0 0.00048428
9270.0 0.0004945
9290.0 0.00050497
9310.0 0.00051545
9330.0 0.00052608
9350.0 0.00053706
9370.0 0.00054811
9390.0 0.00055921
9410.0 0.0005706
9430.0 0.0005823
9450.0 0.00059389
9470.0 0.00060569
9490.0 0.0006178
9510.0 0.00063001
9530.0 0.00064223
9550.0 0.00065488
9570.0 0.00066771
9590.0 0.00068054
9610.0 0.00069357
9630.0 0.00070693
9650.0 0.00072039
9670.0 0.00073382
9690.0 0.00074762
9710.0 0.00076162
9730.0 0.00077562
9750.0 0.00078981
9770.0 0.00080445
9790.0 0.00081901
9810.0 0.00083364
9830.0 0.00084858
9850.0 0.0008637
9870.0 0.00087875
9890.0 0.00089403
9910.0 0.0009096
9930.0 0.00092517
9950.0 0.00094078
9970.0 0.00095672
9990.0 0.0009728
10010.0 0.00087621
10030.0 0.00089039
10050.0 0.00090474
10070.0 0.00091892
10090.0 0.00093327
10110.0 0.00094793
10130.0 0.00096257
10150.0 0.0009771
10170.0 0.00099174
10190.0 0.0010066
10210.0 0.0010212
10230.0 0.0010358
10250.0 0.0010506
10270.0 0.0010654
10290.0 0.0010799
10310.0 0.0010947
10330.0 0.0011095
10350.0 0.0011241
10370.0 0.0011386
10390.0 0.0011532
10410.0 0.0011677
10430.0 0.001182
10450.0 0.0011963
10470.0 0.0012106
10490.0 0.0012247
10510.0 0.0012386
10530.0 0.0012527
10550.0 0.0012665
10570.0 0.00128
10590.0 0.0012935
10610.0 0.001307
10630.0 0.00132
10650.0 0.0013329
10670.0 0.0013459
10690.0 0.0013585
10710.0 0.0013709
10730.0 0.0013832
10750.0 0.0013954
10770.0 0.001407
10790.0 0.0014185
10810.0 0.0014299
10830.0 0.0014409
10850.0 0.0014514
10870.0 0.0014615
10890.0 0.0014706
10910.0 0.0014781
10930.0 0.0014832
10950.0 0.0014849
10970.0 0.0014818
10990.0 0.0014735
11010.0 0.0014947
11030.0 0.0014722
11050.0 0.0014439
11070.0 0.0014095
11090.0 0.0013678
11110.0 0.0013245
11130.0 0.0012793
11150.0 0.0012307
11170.0 0.0011809
11190.0 0.0011327
11210.0 0.0010833
11230.0 0.001033
11250.0 0.00098522
11270.0 0.00093962
11290.0 0.00089422
11310.0 0.0008514
11330.0 0.0008137
11350.0 0.00077809
11370.0 0.00074509
11390.0 0.00071628
11410.0 0.00069076
11430.0 0.00066673
11450.0 0.00064554
11470.0 0.00062673
11490.0 0.00060884
11510.0 0.00059128
11530.0 0.00057468
11550.0 0.00055809
11570.0 0.00054049
11590.0 0.0005224
11610.0 0.00050413
11630.0 0.00048455
11650.0 0.00046389
11670.0 0.00044368
11690.0 0.00042336
11710.0 0.00040259
11730.0 0.00038253
11750.0 0.00036393
11770.0 0.00034572
11790.0 0.00032859
11810.0 0.00031335
11830.0 0.00029956
11850.0 0.0002867
11870.0 0.00027568
11890.0 0.00026624
11910.0 0.00025772
11930.0 0.00025015
11950.0 0.00024358
11970.0 0.00023753
11990.0 0.00023171
12010.0 0.00022623
12030.0 0.00022092
12050.0 0.00021549
12070.0 0.00020991
12090.0 0.00020452
12110.0 0.00019905
12130.0 0.00019354
12150.0 0.00018831
12170.0 0.00018351
12190.0 0.00017899
12210.0 0.00017518
12230.0 0.00017226
12250.0 0.00017022
12270.0 0.00016926
12290.0 0.00016942
12310.0 0.00017063
12330.0 0.0001731
12350.0 0.00017671
12370.0 0.00018115
12390.0 0.00018656
12410.0 0.00019317
12430.0 0.00019996
12450.0 0.00020707
12470.0 0.0002147
12490.0 0.00022236
12510.0 0.00022947
12530.0 0.00023652
12550.0 0.00024326
12570.0 0.00024907
12590.0 0.00025402
12610.0 0.00025831
12630.0 0.00026152
12650.0 0.00026341
12670.0 0.00026433
12690.0 0.00026412
12710.0 0.00026276
12730.0 0.00026037
12750.0 0.00025688
12770.0 0.00025245
12790.0 0.00024731
12810.0 0.00024137
12830.0 0.00023469
12850.0 0.00022777
12870.0 0.00022054
12890.0 0.00021284
12910.0 0.00020508
12930.0 0.00019745
12950.0 0.00018958
12970.0 0.00018162
12990.0 0.00017407
13010.0 0.00016664
13030.0 0.00015914
13050.0 0.00015193
13070.0 0.00014513
13090.0 0.00013829
13110.0 0.00013165
13130.0 0.00012547
13150.0 0.00011956
13170.0 0.00011373
13190.0 0.00010846
13210.0 0.00010373
13230.0 9.9322e-05
13250.0 9.5409e-05
13270.0 9.2169e-05
13290.0 8.9469e-05
13310.0 8.7344e-05
13330.0 8.595e-05
13350.0 8.5238e-05
13370.0 8.5222e-05
13390.0 8.5955e-05
13410.0 8.7272e-05
13430.0 8.9224e-05
13450.0 9.1832e-05
13470.0 9.4867e-05
13490.0 9.8186e-05
13510.0 0.00010206
13530.0 0.00010609
13550.0 0.00011002
13570.0 0.00011398
13590.0 0.00011793
13610.0 0.0001215
13630.0 0.00012468
13650.0 0.00012765
13670.0 0.00013018
13690.0 0.00013217
13710.0 0.00013377
13730.0 0.00013497
13750.0 0.00013563
13770.0 0.00013587
13790.0 0.00013573
13810.0 0.0001352
13830.0 0.00013434
13850.0 0.00013316
13870.0 0.00013164
13890.0 0.00012989
13910.0 0.00012791
13930.0 0.00012565
13950.0 0.00012318
13970.0 0.00012067
13990.0 0.00011797
14010.0 0.00011511
14030.0 0.00011229
14050.0 0.00010945
14070.0 0.00010649
14090.0 0.00010365
14110.0 0.000101
14130.0 9.8425e-05
14150.0 9.6001e-05
14170.0 9.3921e-05
14190.0 9.2106e-05
14210.0 9.0544e-05
14230.0 8.9354e-05
14250.0 8.8543e-05
14270.0 8.8083e-05
14290.0 8.8031e-05
14310.0 8.8362e-05
14330.0 8.9058e-05
14350.0 9.0147e-05
14370.0 9.1555e-05
14390.0 9.3198e-05
14410.0 9.5178e-05
14430.0 9.7403e-05
14450.0 9.9727e-05
14470.0 0.00010219
14490.0 0.00010487
14510.0 0.0001075
14530.0 0.00011007
14550.0 0.0001127
14570.0 0.0001153
14590.0 0.00011774
14610.0 0.00012016
14630.0 0.00012262
14650.0 0.00012498
14670.0 0.0001273
14690.0 0.00012974
14710.0 0.00013231
14730.0 0.00013488
14750.0 0.0001377
14770.0 0.00014084
14790.0 0.0001442
14810.0 0.00014779
14830.0 0.00015196
14850.0 0.00015644
14870.0 0.00016106
14890.0 0.00016599
14910.0 0.00017119
14930.0 0.00017617
14950.0 0.00018082
14970.0 0.00018523
14990.0 0.00018896
15010.0 0.00019187
15030.0 0.0001941
15050.0 0.00019568
15070.0 0.00019659
15090.0 0.00019711
15110.0 0.00019734
15130.0 0.00019739
15150.0 0.00019737
15170.0 0.00019729
15190.0 0.00019718
15210.0 0.00019708
15230.0 0.00019698
15250.0 0.00019687
15270.0 0.00019677
15290.0 0.00019669
15310.0 0.00019661
15330.0 0.00019652
15350.0 0.00019645
15370.0 0.00019638
15390.0 0.00019629
15410.0 0.00019622
15430.0 0.00019616
15450.0 0.00019609
15470.0 0.00019602
15490.0 0.00019597
15510.0 0.00019592
15530.0 0.00019585
15550.0 0.0001958
15570.0 0.00019576
15590.0 0.0001957
15610.0 0.00019563
15630.0 0.00019559
15650.0 0.00019554
15670.0 0.00019548
15690.0 0.00019543
15710.0 0.00019539
15730.0 0.00019534
15750.0 0.00019528
15770.0 0.00019523
15790.0 0.00019518
15810.0 0.00019511
15830.0 0.00019505
15850.0 0.00019501
15870.0 0.00019494
15890.0 0.00019487
15910.0 0.00019482
15930.0 0.00019476
15950.0 0.00019468
15970.0 0.00019461
15990.0 0.00019454
16010.0 0.00019446
16030.0 0.00019437
16050.0 0.0001943
16070.0 0.00019422
16090.0 0.00019412
16110.0 0.00019403
16130.0 0.00019395
16150.0 0.00019383
16170.0 0.00019372
16190.0 0.00019362
16210.0 0.00019351
16230.0 0.00019338
16250.0 0.00019326
16270.0 0.00019315
16290.0 0.00019301
16310.0 0.00019287
16330.0 0.00019274
16350.0 0.00019259
16370.0 0.00019241
16390.0 0.00019227
16410.0 0.00019211
16430.0 0.00019194
16450.0 0.00019176
16470.0 0.0001916
16490.0 0.00019141
16510.0 0.00019121
16530.0 0.00019102
16550.0 0.00019082
16570.0 0.0001906
16590.0 0.00019037
16610.0 0.00019017
16630.0 0.00018994
16650.0 0.0001897
16670.0 0.00018947
16690.0 0.00018923
16710.0 0.00018896
16730.0 0.0001887
16750.0 0.00018844
16770.0 0.00018817
16790.0 0.00018787
16810.0 0.0001876
16830.0 0.00018732
16850.0 0.000187
16870.0 0.0001867
16890.0 0.0001864
16910.0 0.00018607
16930.0 0.00018573
16950.0 0.00018541
16970.0 0.00018507
16990.0 0.00018471
17010.0 0.00018436
17030.0 0.00018402
17050.0 0.00018364
17070.0 0.00018326
17090.0 0.00018289
17110.0 0.00018251
17130.0 0.00018209
17150.0 0.00018169
17170.0 0.0001813
17190.0 0.00018088
17210.0 0.00018045
17230.0 0.00018004
17250.0 0.00017961
17270.0 0.00017915
17290.0 0.0001787
17310.0 0.00017826
17330.0 0.00017779
17350.0 0.00017731
17370.0 0.00017686
17390.0 0.00017638
17410.0 0.00017588
17430.0 0.0001754
17450.0 0.00017492
17470.0 0.00017439
17490.0 0.00017387
17510.0 0.00017337
17530.0 0.00017285
17550.0 0.00017231
17570.0 0.00017179
17590.0 0.00017126
17610.0 0.0001707
17630.0 0.00017015
17650.0 0.00016961
17670.0 0.00016905
17690.0 0.00016846
17710.0 0.0001679
17730.0 0.00016733
17750.0 0.00016674
17770.0 0.00016615
17790.0 0.00016558
17810.0 0.00016498
17830.0 0.00016436
17850.0 0.00016377
17870.0 0.00016316
17890.0 0.00016253
17910.0 0.00016191
17930.0 0.0001613
17950.0 0.00016067
17970.0 0.00016003
17990.0 0.00015941
18010.0 0.00015878
18030.0 0.00015812
18050.0 0.00015747
18070.0 0.00015683
18090.0 0.00015617
18110.0 0.0001555
18130.0 0.00015485
18150.0 0.0001542
18170.0 0.00015352
18190.0 0.00015285
18210.0 0.00015219
18230.0 0.0001515
18250.0 0.0001508
18270.0 0.00015014
18290.0 0.00014946
18310.0 0.00014876
18330.0 0.00014807
18350.0 0.00014739
18370.0 0.00014669
18390.0 0.00014598
18410.0 0.0001453
18430.0 0.0001446
18450.0 0.00014387
18470.0 0.00014317
18490.0 0.00014248
18510.0 0.00014176
18530.0 0.00014105
18550.0 0.00014035
18570.0 0.00013964
18590.0 0.00013891
18610.0 0.0001382
18630.0 0.00013749
18650.0 0.00013676
18670.0 0.00013603
18690.0 0.00013533
18710.0 0.00013461
18730.0 0.00013388
18750.0 0.00013317
18770.0 0.00013246
18790.0 0.00013171
18810.0 0.00013098
18830.0 0.00013027
18850.0 0.00012955
18870.0 0.00012881
18890.0 0.0001281
18910.0 0.00012738
18930.0 0.00012665
18950.0 0.00012592
18970.0 0.00012521
18990.0 0.00012448
19010.0 0.00012373
19030.0 0.00012302
19050.0 0.0001223
19070.0 0.00012157
19090.0 0.00012085
19110.0 0.00012014
19130.0 0.00011941
19150.0 0.00011868
19170.0 0.00011797
19190.0 0.00011725
19210.0 0.00011652
19230.0 0.0001158
19250.0 0.0001151
19270.0 0.00011438
19290.0 0.00011366
19310.0 0.00011295
19330.0 0.00011225
19350.0 0.00011151
19370.0 0.00011081
19390.0 0.00011011
19410.0 0.00010939
19430.0 0.00010868
19450.0 0.00010799
19470.0 0.00010729
19490.0 0.00010657
19510.0 0.00010587
19530.0 0.00010519
19550.0 0.00010448
19570.0 0.00010377
19590.0 0.00010309
19610.0 0.0001024
19630.0 0.0001017
19650.0 0.00010101
19670.0 0.00010034
19690.0 9.9642e-05
19710.0 9.8952e-05
19730.0 9.828e-05
19750.0 9.7602e-05
19770.0 9.6905e-05
19790.0 9.6234e-05
19810.0 9.5571e-05
19830.0 9.4889e-05
19850.0 9.4209e-05
19870.0 9.3542e-05
19890.0 9.2842e-05
19910.0 9.2096e-05
19930.0 9.1322e-05
19950.0 9.0475e-05
19970.0 8.9488e-05
19990.0 8.8353e-05
20010.0 8.2798e-05
20030.0 8.1412e-05
20050.0 7.9835e-05
20070.0 7.8161e-05
20090.0 7.639e-05
20110.0 7.4425e-05
20130.0 7.2459e-05
20150.0 7.053e-05
20170.0 6.8551e-05
20190.0 6.6562e-05
20210.0 6.4691e-05
20230.0 6.2876e-05
20250.0 6.1065e-05
20270.0 5.9385e-05
20290.0 5.7846e-05
20310.0 5.638e-05
20330.0 5.5004e-05
20350.0 5.3843e-05
20370.0 5.2799e-05
20390.0 5.1866e-05
20410.0 5.1091e-05
20430.0 5.0466e-05
20450.0 4.9946e-05
20470.0 4.9561e-05
20490.0 4.9308e-05
20510.0 4.9163e-05
20530.0 4.9127e-05
20550.0 4.919e-05
20570.0 4.9332e-05
20590.0 4.9563e-05
20610.0 4.9868e-05
20630.0 5.0221e-05
20650.0 5.0632e-05
20670.0 5.1119e-05
20690.0 5.1622e-05
20710.0 5.2147e-05
20730.0 5.272e-05
20750.0 5.332e-05
20770.0 5.3904e-05
20790.0 5.4516e-05
20810.0 5.5159e-05
20830.0 5.579e-05
20850.0 5.6414e-05
20870.0 5.7078e-05
20890.0 5.7744e-05
20910.0 5.8375e-05
20930.0 5.9023e-05
20950.0 5.9689e-05
20970.0 6.033e-05
20990.0 6.0955e-05
21010.0 6.1611e-05
21030.0 6.2247e-05
21050.0 6.2848e-05
21070.0 6.3447e-05
21090.0 6.4048e-05
21110.0 6.4591e-05
21130.0 6.5099e-05
21150.0 6.5595e-05
21170.0 6.6044e-05
21190.0 6.6429e-05
21210.0 6.6782e-05
21230.0 6.7081e-05
21250.0 6.7296e-05
21270.0 6.7439e-05
21290.0 6.7506e-05
21310.0 6.7479e-05
21330.0 6.7355e-05
21350.0 6.7129e-05
21370.0 6.6787e-05
21390.0 6.634e-05
21410.0 6.5784e-05
21430.0 6.5076e-05
21450.0 6.4267e-05
21470.0 6.3374e-05
21490.0 6.2355e-05
21510.0 6.1227e-05
21530.0 6.0067e-05
21550.0 5.8839e-05
21570.0 5.752e-05
21590.0 5.6207e-05
21610.0 5.4923e-05
21630.0 5.3623e-05
21650.0 5.2336e-05
21670.0 5.1197e-05
21690.0 5.0125e-05
21710.0 4.9135e-05
21730.0 4.829e-05
21750.0 4.7599e-05
21770.0 4.7023e-05
21790.0 4.6615e-05
21810.0 4.6375e-05
21830.0 4.6289e-05
21850.0 4.6367e-05
21870.0 4.6594e-05
21890.0 4.6946e-05
21910.0 4.7446e-05
21930.0 4.8068e-05
21950.0 4.8768e-05
21970.0 4.9568e-05
21990.0 5.0493e-05
22010.0 5.1434e-05
22030.0 5.2407e-05
22050.0 5.3448e-05
22070.0 5.4512e-05
22090.0 5.5531e-05
22110.0 5.6575e-05
22130.0 5.7634e-05
22150.0 5.8633e-05
22170.0 5.9586e-05
22190.0 6.0545e-05
22210.0 6.1446e-05
22230.0 6.2244e-05
22250.0 6.3003e-05
22270.0 6.3708e-05
22290.0 6.4313e-05
22310.0 6.4834e-05
22330.0 6.5297e-05
22350.0 6.5657e-05
22370.0 6.591e-05
22390.0 6.6071e-05
22410.0 6.6127e-05
22430.0 6.6068e-05
22450.0 6.5902e-05
22470.0 6.5615e-05
22490.0 6.5211e-05
22510.0 6.4705e-05
22530.0 6.4061e-05
22550.0 6.3279e-05
22570.0 6.241e-05
22590.0 6.1431e-05
22610.0 6.0307e-05
22630.0 5.9089e-05
22650.0 5.7829e-05
22670.0 5.6435e-05
22690.0 5.4946e-05
22710.0 5.344e-05
22730.0 5.1884e-05
22750.0 5.0198e-05
22770.0 4.8544e-05
22790.0 4.6924e-05
22810.0 4.526e-05
22830.0 4.3596e-05
22850.0 4.2034e-05
22870.0 4.0501e-05
22890.0 3.8973e-05
