#lamb flux
1010.0 4.0947e-08
1030.0 4.5287e-08
1050.0 5.028e-08
1070.0 5.59e-08
1090.0 6.2284e-08
1110.0 6.8831e-08
1130.0 7.5421e-08
1150.0 8.2324e-08
1170.0 8.9445e-08
1190.0 9.6197e-08
1210.0 1.0304e-07
1230.0 1.1011e-07
1250.0 1.1704e-07
1270.0 1.2377e-07
1290.0 1.3088e-07
1310.0 1.3798e-07
1330.0 1.4479e-07
1350.0 1.5168e-07
1370.0 1.588e-07
1390.0 1.6573e-07
1410.0 1.7246e-07
1430.0 1.795e-07
1450.0 1.8653e-07
1470.0 1.9333e-07
1490.0 2.0021e-07
1510.0 2.0747e-07
1530.0 2.1435e-07
1550.0 2.2114e-07
1570.0 2.2816e-07
1590.0 2.352e-07
1610.0 2.4192e-07
1630.0 2.4885e-07
1650.0 2.5597e-07
1670.0 2.6286e-07
1690.0 2.6966e-07
1710.0 2.7674e-07
1730.0 2.8385e-07
1750.0 2.9055e-07
1770.0 2.9745e-07
1790.0 3.0451e-07
1810.0 3.1134e-07
1830.0 3.1806e-07
1850.0 3.2521e-07
1870.0 3.3218e-07
1890.0 3.3893e-07
1910.0 3.4583e-07
1930.0 3.5291e-07
1950.0 3.5969e-07
1970.0 3.6639e-07
1990.0 3.7337e-07
2010.0 3.8024e-07
2030.0 3.8689e-07
2050.0 3.9375e-07
2070.0 4.0081e-07
2090.0 4.0747e-07
2110.0 4.1414e-07
2130.0 4.2101e-07
2150.0 4.2777e-07
2170.0 4.3425e-07
2190.0 4.4099e-07
2210.0 4.4778e-07
2230.0 4.5431e-07
2250.0 4.6082e-07
2270.0 4.6763e-07
2290.0 4.7423e-07
2310.0 4.8058e-07
2330.0 4.8719e-07
2350.0 4.9397e-07
2370.0 5.0073e-07
2390.0 5.0805e-07
2410.0 5.1671e-07
2430.0 5.2669e-07
2450.0 5.386e-07
2470.0 5.5388e-07
2490.0 5.7312e-07
2510.0 5.95e-07
2530.0 6.2134e-07
2550.0 6.543e-07
2570.0 6.9532e-07
2590.0 7.4866e-07
2610.0 8.2853e-07
2630.0 9.4256e-07
2650.0 1.0917e-06
2670.0 1.2844e-06
2690.0 1.5213e-06
2710.0 1.7742e-06
2730.0 2.0241e-06
2750.0 2.2702e-06
2770.0 2.4843e-06
2790.0 2.6543e-06
2810.0 2.7892e-06
2830.0 2.8946e-06
2850.0 2.9665e-06
2870.0 3.0193e-06
2890.0 3.0612e-06
2910.0 3.0945e-06
2930.0 3.1218e-06
2950.0 3.1478e-06
2970.0 3.1733e-06
2990.0 3.1971e-06
3010.0 9.0368e-05
3030.0 9.1044e-05
3050.0 9.1697e-05
3070.0 9.2256e-05
3090.0 9.2737e-05
3110.0 9.3036e-05
3130.0 9.3024e-05
3150.0 9.261e-05
3170.0 9.1619e-05
3190.0 9.0061e-05
3210.0 8.8086e-05
3230.0 8.5824e-05
3250.0 8.3592e-05
3270.0 8.1962e-05
3290.0 8.1056e-05
3310.0 8.1203e-05
3330.0 8.2378e-05
3350.0 8.4425e-05
3370.0 8.7347e-05
3390.0 9.1029e-05
3410.0 9.5037e-05
3430.0 9.9536e-05
3450.0 0.00010472
3470.0 0.00011037
3490.0 0.00011637
3510.0 0.00012314
3530.0 0.0001304
3550.0 0.00013774
3570.0 0.00014541
3590.0 0.00015374
3610.0 0.00016233
3630.0 0.00017089
3650.0 0.00017977
3670.0 0.00018788
3690.0 0.00019394
3710.0 0.00019742
3730.0 0.00019753
3750.0 0.00019478
3770.0 0.0001937
3790.0 0.00019255
3810.0 0.00018782
3830.0 0.00019363
3850.0 0.0002165
3870.0 0.00022906
3890.0 0.00022801
3910.0 0.00022899
3930.0 0.00023501
3950.0 0.00023872
3970.0 0.0002175
3990.0 0.00018715
4010.0 0.00056091
4030.0 0.00067963
4050.0 0.00077915
4070.0 0.00067604
4090.0 0.00061229
4110.0 0.00054029
4130.0 0.00049728
4150.0 0.00052895
4170.0 0.00052104
4190.0 0.00055539
4210.0 0.00055031
4230.0 0.00058208
4250.0 0.00068862
4270.0 0.00069671
4290.0 0.00064201
4310.0 0.0006671
4330.0 0.00070959
4350.0 0.00079563
4370.0 0.00090544
4390.0 0.00084966
4410.0 0.00062775
4430.0 0.00053143
4450.0 0.00048832
4470.0 0.00037481
4490.0 0.00040446
4510.0 0.00061095
4530.0 0.0007046
4550.0 0.00071072
4570.0 0.00079974
4590.0 0.00091098
4610.0 0.0012287
4630.0 0.0015958
4650.0 0.0017306
4670.0 0.0016027
4690.0 0.0015293
4710.0 0.0016166
4730.0 0.0015256
4750.0 0.0011406
4770.0 0.00083665
4790.0 0.00078127
4810.0 0.00074467
4830.0 0.00068174
4850.0 0.00074809
4870.0 0.00098831
4890.0 0.0011655
4910.0 0.0010226
4930.0 0.00090483
4950.0 0.00099409
4970.0 0.0012749
4990.0 0.0017277
5010.0 0.0019875
5030.0 0.0017525
5050.0 0.0011857
5070.0 0.00078143
5090.0 0.00063011
5110.0 0.00064801
5130.0 0.0007479
5150.0 0.00081029
5170.0 0.00079814
5190.0 0.00074581
5210.0 0.00077954
5230.0 0.00081947
5250.0 0.00088316
5270.0 0.00095286
5290.0 0.001056
5310.0 0.0012291
5330.0 0.0013602
5350.0 0.0013515
5370.0 0.0014196
5390.0 0.001629
5410.0 0.0016276
5430.0 0.0014393
5450.0 0.0013224
5470.0 0.0014042
5490.0 0.0017155
5510.0 0.002145
5530.0 0.0024602
5550.0 0.0023778
5570.0 0.0021616
5590.0 0.0018795
5610.0 0.0017333
5630.0 0.0016808
5650.0 0.0016008
5670.0 0.0015169
5690.0 0.0013561
5710.0 0.0013222
5730.0 0.0012179
5750.0 0.00085871
5770.0 0.00066994
5790.0 0.00075918
5810.0 0.00085725
5830.0 0.001052
5850.0 0.0012522
5870.0 0.0013894
5890.0 0.0014129
5910.0 0.0013862
5930.0 0.0013195
5950.0 0.0013445
5970.0 0.0015326
5990.0 0.001441
6010.0 0.001208
6030.0 0.0010206
6050.0 0.00088881
6070.0 0.00088395
6090.0 0.0009585
6110.0 0.0010718
6130.0 0.0010882
6150.0 0.00093627
6170.0 0.00082363
6190.0 0.00092688
6210.0 0.0012253
6230.0 0.001608
6250.0 0.0017417
6270.0 0.001522
6290.0 0.0012805
6310.0 0.00099966
6330.0 0.00076593
6350.0 0.00068319
6370.0 0.00071845
6390.0 0.00083057
6410.0 0.0010241
6430.0 0.0011959
6450.0 0.0013684
6470.0 0.0015669
6490.0 0.0018927
6510.0 0.0021163
6530.0 0.0020762
6550.0 0.0018774
6570.0 0.0015938
6590.0 0.0014371
6610.0 0.0012392
6630.0 0.0011226
6650.0 0.0010612
6670.0 0.001031
6690.0 0.00093153
6710.0 0.00084678
6730.0 0.00060992
6750.0 0.00060467
6770.0 0.00065724
6790.0 0.00075544
6810.0 0.00069124
6830.0 0.00071179
6850.0 0.00066575
6870.0 0.00060816
6890.0 0.00058393
6910.0 0.00062225
6930.0 0.00058283
6950.0 0.00059963
6970.0 0.0006307
6990.0 0.0007159
7010.0 0.000722
7030.0 0.00073347
7050.0 0.00069948
7070.0 0.00066648
7090.0 0.00066843
7110.0 0.00068776
7130.0 0.00074014
7150.0 0.00078609
7170.0 0.00086739
7190.0 0.00095351
7210.0 0.00093695
7230.0 0.0009632
7250.0 0.0010351
7270.0 0.001128
7290.0 0.0013388
7310.0 0.0014528
7330.0 0.0014042
7350.0 0.00127
7370.0 0.001105
7390.0 0.001072
7410.0 0.0011392
7430.0 0.0012661
7450.0 0.001379
7470.0 0.0013664
7490.0 0.0012459
7510.0 0.0014113
7530.0 0.0013958
7550.0 0.0012546
7570.0 0.00098007
7590.0 0.00067376
7610.0 0.00057829
7630.0 0.00065705
7650.0 0.00077687
7670.0 0.00096688
7690.0 0.001064
7710.0 0.0011088
7730.0 0.0011652
7750.0 0.0013081
7770.0 0.0013287
7790.0 0.0012204
7810.0 0.0011136
7830.0 0.0011483
7850.0 0.0011163
7870.0 0.0010235
7890.0 0.00085991
7910.0 0.00069899
7930.0 0.00066743
7950.0 0.00060805
7970.0 0.00056286
7990.0 0.00055965
8010.0 4.1449e-05
8030.0 4.091e-05
8050.0 4.0359e-05
8070.0 4.0887e-05
8090.0 4.3932e-05
8110.0 4.3184e-05
8130.0 3.5622e-05
8150.0 3.4691e-05
8170.0 2.9882e-05
8190.0 2.8319e-05
8210.0 3.6775e-05
8230.0 4.0945e-05
8250.0 3.6903e-05
8270.0 3.2119e-05
8290.0 3.131e-05
8310.0 2.4098e-05
8330.0 1.6242e-05
8350.0 1.1527e-05
8370.0 7.2624e-06
8390.0 1.3275e-05
8410.0 1.547e-05
8430.0 1.9069e-05
8450.0 2.2392e-05
8470.0 2.7832e-05
8490.0 2.7635e-05
8510.0 2.7184e-05
8530.0 2.837e-05
8550.0 3.8277e-05
8570.0 4.5314e-05
8590.0 4.8894e-05
8610.0 6.1763e-05
8630.0 7.4403e-05
8650.0 7.7834e-05
8670.0 8.2714e-05
8690.0 8.3178e-05
8710.0 7.5329e-05
8730.0 7.0068e-05
8750.0 6.1848e-05
8770.0 5.8685e-05
8790.0 5.7655e-05
8810.0 5.5246e-05
8830.0 4.4178e-05
8850.0 3.2341e-05
8870.0 2.4763e-05
8890.0 2.421e-05
8910.0 2.7745e-05
8930.0 3.1558e-05
8950.0 3.2163e-05
8970.0 3.2315e-05
8990.0 2.8821e-05
9010.0 0.00030203
9030.0 0.00027368
9050.0 0.000275
9070.0 0.00027717
9090.0 0.00027907
9110.0 0.00028142
9130.0 0.00028324
9150.0 0.00028465
9170.0 0.00028615
9190.0 0.00028776
9210.0 0.00028945
9230.0 0.00029123
9250.0 0.00029304
9270.0 0.00029492
9290.0 0.00029686
9310.0 0.00029881
9330.0 0.0003008
9350.0 0.00030286
9370.0 0.00030495
9390.0 0.00030705
9410.0 0.00030922
9430.0 0.00031145
9450.0 0.00031368
9470.0 0.00031595
9490.0 0.00031828
9510.0 0.00032065
9530.0 0.00032302
9550.0 0.00032548
9570.0 0.00032798
9590.0 0.00033049
9610.0 0.00033304
9630.0 0.00033566
9650.0 0.0003383
9670.0 0.00034095
9690.0 0.00034366
9710.0 0.00034642
9730.0 0.00034919
9750.0 0.00035199
9770.0 0.00035488
9790.0 0.00035777
9810.0 0.00036067
9830.0 0.00036363
9850.0 0.00036663
9870.0 0.00036962
9890.0 0.00037265
9910.0 0.00037575
9930.0 0.00037884
9950.0 0.00038195
9970.0 0.00038512
9990.0 0.00038832
10010.0 0.00033696
10030.0 0.00033972
10050.0 0.00034255
10070.0 0.00034546
10090.0 0.00034822
10110.0 0.00035104
10130.0 0.00035387
10150.0 0.00035669
10170.0 0.00035955
10190.0 0.00036245
10210.0 0.00036532
10230.0 0.00036818
10250.0 0.00037109
10270.0 0.000374
10290.0 0.00037687
10310.0 0.00037978
10330.0 0.00038271
10350.0 0.0003856
10370.0 0.00038848
10390.0 0.00039139
10410.0 0.00039428
10430.0 0.00039712
10450.0 0.00039999
10470.0 0.00040286
10490.0 0.00040569
10510.0 0.00040849
10530.0 0.00041135
10550.0 0.00041415
10570.0 0.0004169
10590.0 0.00041966
10610.0 0.00042242
10630.0 0.00042511
10650.0 0.00042778
10670.0 0.00043048
10690.0 0.00043313
10710.0 0.00043571
10730.0 0.00043831
10750.0 0.00044091
10770.0 0.0004434
10790.0 0.00044587
10810.0 0.00044834
10830.0 0.00045073
10850.0 0.000453
10870.0 0.0004552
10890.0 0.00045713
10910.0 0.00045862
10930.0 0.00045947
10950.0 0.00045927
10970.0 0.00045771
10990.0 0.00045466
11010.0 0.00044955
11030.0 0.0004424
11050.0 0.00043369
11070.0 0.00042326
11090.0 0.00041074
11110.0 0.00039779
11130.0 0.00038428
11150.0 0.00036973
11170.0 0.00035473
11190.0 0.00034019
11210.0 0.00032516
11230.0 0.00030976
11250.0 0.00029504
11270.0 0.00028091
11290.0 0.00026674
11310.0 0.00025333
11330.0 0.00024151
11350.0 0.00023035
11370.0 0.00022004
11390.0 0.00021112
11410.0 0.00020331
11430.0 0.00019606
11450.0 0.00018981
11470.0 0.00018441
11490.0 0.00017938
11510.0 0.00017453
11530.0 0.00017004
11550.0 0.00016557
11570.0 0.00016081
11590.0 0.00015587
11610.0 0.00015085
11630.0 0.00014538
11650.0 0.00013953
11670.0 0.00013376
11690.0 0.00012791
11710.0 0.00012188
11730.0 0.00011603
11750.0 0.00011062
11770.0 0.00010531
11790.0 0.00010034
11810.0 9.5963e-05
11830.0 9.2048e-05
11850.0 8.8441e-05
11870.0 8.5424e-05
11890.0 8.2917e-05
11910.0 8.0713e-05
11930.0 7.8819e-05
11950.0 7.7241e-05
11970.0 7.5832e-05
11990.0 7.45e-05
12010.0 7.3268e-05
12030.0 7.208e-05
12050.0 7.0853e-05
12070.0 6.9576e-05
12090.0 6.8345e-05
12110.0 6.7095e-05
12130.0 6.5843e-05
12150.0 6.4688e-05
12170.0 6.368e-05
12190.0 6.2809e-05
12210.0 6.2201e-05
12230.0 6.1907e-05
12250.0 6.1954e-05
12270.0 6.2421e-05
12290.0 6.3304e-05
12310.0 6.4571e-05
12330.0 6.6343e-05
12350.0 6.8555e-05
12370.0 7.1074e-05
12390.0 7.3977e-05
12410.0 7.738e-05
12430.0 8.0838e-05
12450.0 8.4419e-05
12470.0 8.8226e-05
12490.0 9.205e-05
12510.0 9.5638e-05
12530.0 9.9208e-05
12550.0 0.00010265
12570.0 0.00010569
12590.0 0.00010836
12610.0 0.00011074
12630.0 0.00011263
12650.0 0.00011394
12670.0 0.0001148
12690.0 0.00011514
12710.0 0.00011495
12730.0 0.00011429
12750.0 0.0001131
12770.0 0.00011147
12790.0 0.00010949
12810.0 0.00010713
12830.0 0.00010439
12850.0 0.00010154
12870.0 9.8513e-05
12890.0 9.5242e-05
12910.0 9.1918e-05
12930.0 8.8641e-05
12950.0 8.5222e-05
12970.0 8.1742e-05
12990.0 7.8449e-05
13010.0 7.5197e-05
13030.0 7.191e-05
13050.0 6.8751e-05
13070.0 6.5793e-05
13090.0 6.2824e-05
13110.0 5.9952e-05
13130.0 5.7304e-05
13150.0 5.4796e-05
13170.0 5.2341e-05
13190.0 5.0156e-05
13210.0 4.8233e-05
13230.0 4.6475e-05
13250.0 4.4962e-05
13270.0 4.3768e-05
13290.0 4.2839e-05
13310.0 4.2199e-05
13330.0 4.1908e-05
13350.0 4.1942e-05
13370.0 4.2318e-05
13390.0 4.3057e-05
13410.0 4.4056e-05
13430.0 4.5354e-05
13450.0 4.6957e-05
13470.0 4.8738e-05
13490.0 5.0623e-05
13510.0 5.275e-05
13530.0 5.4905e-05
13550.0 5.6969e-05
13570.0 5.9003e-05
13590.0 6.0986e-05
13610.0 6.275e-05
13630.0 6.429e-05
13650.0 6.5696e-05
13670.0 6.6863e-05
13690.0 6.7766e-05
13710.0 6.8464e-05
13730.0 6.8962e-05
13750.0 6.9211e-05
13770.0 6.9268e-05
13790.0 6.9142e-05
13810.0 6.8837e-05
13830.0 6.8386e-05
13850.0 6.7775e-05
13870.0 6.7004e-05
13890.0 6.6123e-05
13910.0 6.513e-05
13930.0 6.398e-05
13950.0 6.2725e-05
13970.0 6.1442e-05
13990.0 6.0044e-05
14010.0 5.8558e-05
14030.0 5.7075e-05
14050.0 5.5581e-05
14070.0 5.4004e-05
14090.0 5.2493e-05
14110.0 5.1072e-05
14130.0 4.9695e-05
14150.0 4.84e-05
14170.0 4.7294e-05
14190.0 4.6337e-05
14210.0 4.5526e-05
14230.0 4.4925e-05
14250.0 4.4537e-05
14270.0 4.4349e-05
14290.0 4.4389e-05
14310.0 4.4636e-05
14330.0 4.508e-05
14350.0 4.5734e-05
14370.0 4.6549e-05
14390.0 4.7474e-05
14410.0 4.8564e-05
14430.0 4.976e-05
14450.0 5.0982e-05
14470.0 5.225e-05
14490.0 5.3598e-05
14510.0 5.4887e-05
14530.0 5.6111e-05
14550.0 5.7335e-05
14570.0 5.8511e-05
14590.0 5.958e-05
14610.0 6.0615e-05
14630.0 6.1638e-05
14650.0 6.2592e-05
14670.0 6.3513e-05
14690.0 6.4473e-05
14710.0 6.5482e-05
14730.0 6.6491e-05
14750.0 6.761e-05
14770.0 6.8879e-05
14790.0 7.0254e-05
14810.0 7.1744e-05
14830.0 7.3509e-05
14850.0 7.5428e-05
14870.0 7.743e-05
14890.0 7.959e-05
14910.0 8.1884e-05
14930.0 8.4089e-05
14950.0 8.615e-05
14970.0 8.8101e-05
14990.0 8.9738e-05
15010.0 9.0989e-05
15030.0 9.1916e-05
15050.0 9.2529e-05
15070.0 9.2828e-05
15090.0 9.2933e-05
15110.0 9.2903e-05
15130.0 9.2786e-05
15150.0 9.2629e-05
15170.0 9.2443e-05
15190.0 9.2244e-05
15210.0 9.2048e-05
15230.0 9.1853e-05
15250.0 9.165e-05
15270.0 9.1449e-05
15290.0 9.1259e-05
15310.0 9.1064e-05
15330.0 9.0867e-05
15350.0 9.0678e-05
15370.0 9.049e-05
15390.0 9.0292e-05
15410.0 9.0101e-05
15430.0 8.9917e-05
15450.0 8.9727e-05
15470.0 8.9535e-05
15490.0 8.9353e-05
15510.0 8.9171e-05
15530.0 8.8982e-05
15550.0 8.8798e-05
15570.0 8.862e-05
15590.0 8.8434e-05
15610.0 8.8247e-05
15630.0 8.8069e-05
15650.0 8.7891e-05
15670.0 8.7707e-05
15690.0 8.7527e-05
15710.0 8.7355e-05
15730.0 8.7174e-05
15750.0 8.6992e-05
15770.0 8.6819e-05
15790.0 8.6644e-05
15810.0 8.646e-05
15830.0 8.6284e-05
15850.0 8.6113e-05
15870.0 8.5936e-05
15890.0 8.5758e-05
15910.0 8.5589e-05
15930.0 8.5416e-05
15950.0 8.5235e-05
15970.0 8.5062e-05
15990.0 8.4892e-05
16010.0 8.4716e-05
16030.0 8.4537e-05
16050.0 8.437e-05
16070.0 8.4199e-05
16090.0 8.4022e-05
16110.0 8.3851e-05
16130.0 8.3684e-05
16150.0 8.3504e-05
16170.0 8.3329e-05
16190.0 8.3161e-05
16210.0 8.2988e-05
16230.0 8.2811e-05
16250.0 8.264e-05
16270.0 8.2473e-05
16290.0 8.2296e-05
16310.0 8.2122e-05
16330.0 8.1954e-05
16350.0 8.1781e-05
16370.0 8.1599e-05
16390.0 8.1429e-05
16410.0 8.1259e-05
16430.0 8.1082e-05
16450.0 8.0907e-05
16470.0 8.074e-05
16490.0 8.0563e-05
16510.0 8.0384e-05
16530.0 8.0212e-05
16550.0 8.004e-05
16570.0 7.9859e-05
16590.0 7.9681e-05
16610.0 7.9512e-05
16630.0 7.9335e-05
16650.0 7.9155e-05
16670.0 7.8982e-05
16690.0 7.8809e-05
16710.0 7.8624e-05
16730.0 7.8446e-05
16750.0 7.8272e-05
16770.0 7.8092e-05
16790.0 7.7908e-05
16810.0 7.7733e-05
16830.0 7.7556e-05
16850.0 7.7372e-05
16870.0 7.7192e-05
16890.0 7.7016e-05
16910.0 7.6831e-05
16930.0 7.6644e-05
16950.0 7.6466e-05
16970.0 7.6285e-05
16990.0 7.6098e-05
17010.0 7.5915e-05
17030.0 7.5737e-05
17050.0 7.5549e-05
17070.0 7.5361e-05
17090.0 7.518e-05
17110.0 7.4995e-05
17130.0 7.4801e-05
17150.0 7.4616e-05
17170.0 7.4433e-05
17190.0 7.4243e-05
17210.0 7.4053e-05
17230.0 7.387e-05
17250.0 7.3681e-05
17270.0 7.3485e-05
17290.0 7.3296e-05
17310.0 7.311e-05
17330.0 7.2915e-05
17350.0 7.2719e-05
17370.0 7.2533e-05
17390.0 7.2341e-05
17410.0 7.2144e-05
17430.0 7.1953e-05
17450.0 7.1765e-05
17470.0 7.1563e-05
17490.0 7.1365e-05
17510.0 7.1174e-05
17530.0 7.0978e-05
17550.0 7.0777e-05
17570.0 7.0583e-05
17590.0 7.0391e-05
17610.0 7.0189e-05
17630.0 6.9989e-05
17650.0 6.9795e-05
17670.0 6.9596e-05
17690.0 6.9387e-05
17710.0 6.9191e-05
17730.0 6.8994e-05
17750.0 6.879e-05
17770.0 6.8588e-05
17790.0 6.8393e-05
17810.0 6.8188e-05
17830.0 6.7981e-05
17850.0 6.778e-05
17870.0 6.758e-05
17890.0 6.737e-05
17910.0 6.7164e-05
17930.0 6.6966e-05
17950.0 6.6759e-05
17970.0 6.6551e-05
17990.0 6.6349e-05
18010.0 6.6147e-05
18030.0 6.5932e-05
18050.0 6.5725e-05
18070.0 6.5522e-05
18090.0 6.5313e-05
18110.0 6.51e-05
18130.0 6.4897e-05
18150.0 6.4691e-05
18170.0 6.4478e-05
18190.0 6.427e-05
18210.0 6.4065e-05
18230.0 6.3851e-05
18250.0 6.3635e-05
18270.0 6.343e-05
18290.0 6.3221e-05
18310.0 6.3006e-05
18330.0 6.2796e-05
18350.0 6.2591e-05
18370.0 6.2375e-05
18390.0 6.216e-05
18410.0 6.1952e-05
18430.0 6.1741e-05
18450.0 6.152e-05
18470.0 6.1309e-05
18490.0 6.1101e-05
18510.0 6.0885e-05
18530.0 6.067e-05
18550.0 6.0462e-05
18570.0 6.0248e-05
18590.0 6.0028e-05
18610.0 5.9816e-05
18630.0 5.9605e-05
18650.0 5.9387e-05
18670.0 5.9168e-05
18690.0 5.896e-05
18710.0 5.8745e-05
18730.0 5.8526e-05
18750.0 5.8314e-05
18770.0 5.8104e-05
18790.0 5.788e-05
18810.0 5.7663e-05
18830.0 5.7452e-05
18850.0 5.7236e-05
18870.0 5.7016e-05
18890.0 5.6803e-05
18910.0 5.6592e-05
18930.0 5.6371e-05
18950.0 5.6154e-05
18970.0 5.5943e-05
18990.0 5.5726e-05
19010.0 5.5501e-05
19030.0 5.5289e-05
19050.0 5.5076e-05
19070.0 5.4856e-05
19090.0 5.464e-05
19110.0 5.443e-05
19130.0 5.421e-05
19150.0 5.399e-05
19170.0 5.3776e-05
19190.0 5.3562e-05
19210.0 5.334e-05
19230.0 5.3122e-05
19250.0 5.2912e-05
19270.0 5.2694e-05
19290.0 5.2475e-05
19310.0 5.2263e-05
19330.0 5.205e-05
19350.0 5.1825e-05
19370.0 5.161e-05
19390.0 5.1398e-05
19410.0 5.1179e-05
19430.0 5.0959e-05
19450.0 5.0749e-05
19470.0 5.0535e-05
19490.0 5.0315e-05
19510.0 5.01e-05
19530.0 4.9889e-05
19550.0 4.9669e-05
19570.0 4.9448e-05
19590.0 4.9238e-05
19610.0 4.9023e-05
19630.0 4.8804e-05
19650.0 4.8591e-05
19670.0 4.8381e-05
19690.0 4.8162e-05
19710.0 4.7944e-05
19730.0 4.7734e-05
19750.0 4.7519e-05
19770.0 4.7297e-05
19790.0 4.7085e-05
19810.0 4.6875e-05
19830.0 4.6657e-05
19850.0 4.6438e-05
19870.0 4.6223e-05
19890.0 4.5992e-05
19910.0 4.5738e-05
19930.0 4.5467e-05
19950.0 4.5156e-05
19970.0 4.4774e-05
19990.0 4.4314e-05
20010.0 3.9426e-05
20030.0 3.8856e-05
20050.0 3.8188e-05
20070.0 3.7464e-05
20090.0 3.6686e-05
20110.0 3.5805e-05
20130.0 3.4914e-05
20150.0 3.4031e-05
20170.0 3.3115e-05
20190.0 3.2186e-05
20210.0 3.1308e-05
20230.0 3.0452e-05
20250.0 2.9595e-05
20270.0 2.8799e-05
20290.0 2.8072e-05
20310.0 2.7382e-05
20330.0 2.6736e-05
20350.0 2.6201e-05
20370.0 2.5725e-05
20390.0 2.5308e-05
20410.0 2.4971e-05
20430.0 2.4712e-05
20450.0 2.4506e-05
20470.0 2.4368e-05
20490.0 2.4294e-05
20510.0 2.4273e-05
20530.0 2.4303e-05
20550.0 2.4378e-05
20570.0 2.4487e-05
20590.0 2.4635e-05
20610.0 2.4814e-05
20630.0 2.5011e-05
20650.0 2.5232e-05
20670.0 2.5484e-05
20690.0 2.5741e-05
20710.0 2.6006e-05
20730.0 2.6293e-05
20750.0 2.6592e-05
20770.0 2.6886e-05
20790.0 2.7195e-05
20810.0 2.7522e-05
20830.0 2.7847e-05
20850.0 2.8174e-05
20870.0 2.8524e-05
20890.0 2.8881e-05
20910.0 2.9225e-05
20930.0 2.9582e-05
20950.0 2.9952e-05
20970.0 3.0312e-05
20990.0 3.0668e-05
21010.0 3.1042e-05
21030.0 3.1408e-05
21050.0 3.1757e-05
21070.0 3.2106e-05
21090.0 3.2455e-05
21110.0 3.2774e-05
21130.0 3.3074e-05
21150.0 3.3364e-05
21170.0 3.3626e-05
21190.0 3.3853e-05
21210.0 3.4056e-05
21230.0 3.4225e-05
21250.0 3.4346e-05
21270.0 3.4422e-05
21290.0 3.4451e-05
21310.0 3.4423e-05
21330.0 3.4342e-05
21350.0 3.4199e-05
21370.0 3.399e-05
21390.0 3.3724e-05
21410.0 3.3398e-05
21430.0 3.2985e-05
21450.0 3.2522e-05
21470.0 3.2017e-05
21490.0 3.1447e-05
21510.0 3.082e-05
21530.0 3.0184e-05
21550.0 2.9518e-05
21570.0 2.8808e-05
21590.0 2.8109e-05
21610.0 2.7433e-05
21630.0 2.6757e-05
21650.0 2.6097e-05
21670.0 2.5524e-05
21690.0 2.4996e-05
21710.0 2.4521e-05
21730.0 2.4131e-05
21750.0 2.3831e-05
21770.0 2.3602e-05
21790.0 2.347e-05
21810.0 2.3434e-05
21830.0 2.3486e-05
21850.0 2.3633e-05
21870.0 2.3861e-05
21890.0 2.4157e-05
21910.0 2.4537e-05
21930.0 2.4981e-05
21950.0 2.5464e-05
21970.0 2.5997e-05
21990.0 2.6597e-05
22010.0 2.7196e-05
22030.0 2.7804e-05
22050.0 2.8443e-05
22070.0 2.9085e-05
22090.0 2.9693e-05
22110.0 3.0307e-05
22130.0 3.0919e-05
22150.0 3.149e-05
22170.0 3.2029e-05
22190.0 3.2564e-05
22210.0 3.3061e-05
22230.0 3.3498e-05
22250.0 3.391e-05
22270.0 3.4289e-05
22290.0 3.4614e-05
22310.0 3.4892e-05
22330.0 3.5137e-05
22350.0 3.5326e-05
22370.0 3.546e-05
22390.0 3.5543e-05
22410.0 3.557e-05
22430.0 3.5536e-05
22450.0 3.5444e-05
22470.0 3.5286e-05
22490.0 3.5064e-05
22510.0 3.4787e-05
22530.0 3.4433e-05
22550.0 3.4002e-05
22570.0 3.3524e-05
22590.0 3.2984e-05
22610.0 3.2364e-05
22630.0 3.1693e-05
22650.0 3.0999e-05
22670.0 3.0231e-05
22690.0 2.9412e-05
22710.0 2.8586e-05
22730.0 2.7734e-05
