#lamb flux
1010.0 2.5834e-07
1030.0 2.8729e-07
1050.0 3.1528e-07
1070.0 3.4687e-07
1090.0 3.8439e-07
1110.0 4.2271e-07
1130.0 4.6126e-07
1150.0 5.0175e-07
1170.0 5.4385e-07
1190.0 5.8444e-07
1210.0 6.2644e-07
1230.0 6.7092e-07
1250.0 7.156e-07
1270.0 7.607e-07
1290.0 8.0986e-07
1310.0 8.6089e-07
1330.0 9.1202e-07
1350.0 9.6537e-07
1370.0 1.0217e-06
1390.0 1.0783e-06
1410.0 1.1347e-06
1430.0 1.1937e-06
1450.0 1.2531e-06
1470.0 1.3111e-06
1490.0 1.3691e-06
1510.0 1.4292e-06
1530.0 1.4857e-06
1550.0 1.5404e-06
1570.0 1.5951e-06
1590.0 1.6481e-06
1610.0 1.6968e-06
1630.0 1.7441e-06
1650.0 1.7902e-06
1670.0 1.8322e-06
1690.0 1.8708e-06
1710.0 1.9086e-06
1730.0 1.9439e-06
1750.0 1.9738e-06
1770.0 2.0026e-06
1790.0 2.0301e-06
1810.0 2.0541e-06
1830.0 2.0759e-06
1850.0 2.0991e-06
1870.0 2.1205e-06
1890.0 2.1401e-06
1910.0 2.1607e-06
1930.0 2.183e-06
1950.0 2.2043e-06
1970.0 2.2265e-06
1990.0 2.2517e-06
2010.0 2.2779e-06
2030.0 2.3044e-06
2050.0 2.3336e-06
2070.0 2.3653e-06
2090.0 2.3956e-06
2110.0 2.4265e-06
2130.0 2.4588e-06
2150.0 2.49e-06
2170.0 2.5187e-06
2190.0 2.5475e-06
2210.0 2.5746e-06
2230.0 2.5978e-06
2250.0 2.6181e-06
2270.0 2.6369e-06
2290.0 2.651e-06
2310.0 2.66e-06
2330.0 2.6663e-06
2350.0 2.6689e-06
2370.0 2.6661e-06
2390.0 2.6595e-06
2410.0 2.6503e-06
2430.0 2.6355e-06
2450.0 2.6153e-06
2470.0 2.5911e-06
2490.0 2.5626e-06
2510.0 2.5298e-06
2530.0 2.4989e-06
2550.0 2.4793e-06
2570.0 2.4817e-06
2590.0 2.5189e-06
2610.0 2.6188e-06
2630.0 2.7901e-06
2650.0 3.0207e-06
2670.0 3.3121e-06
2690.0 3.649e-06
2710.0 3.9703e-06
2730.0 4.2402e-06
2750.0 4.4469e-06
2770.0 4.5407e-06
2790.0 4.5076e-06
2810.0 4.3533e-06
2830.0 4.0722e-06
2850.0 3.7006e-06
2870.0 3.2602e-06
2890.0 2.7538e-06
2910.0 2.2093e-06
2930.0 1.6589e-06
2950.0 1.0759e-06
2970.0 4.6921e-07
2990.0 1.8059e-07
3010.0 3.3739e-07
3030.0 3.3739e-07
3050.0 3.3739e-07
3070.0 3.3739e-07
3090.0 3.3739e-07
3110.0 3.3739e-07
3130.0 3.3739e-07
3150.0 3.3739e-07
3170.0 3.3739e-07
3190.0 3.3739e-07
3210.0 2.1954e-06
3230.0 1.9105e-05
3250.0 3.0612e-05
3270.0 2.7596e-05
3290.0 2.305e-05
3310.0 1.7397e-05
3330.0 1.6508e-05
3350.0 1.8005e-05
3370.0 2.033e-05
3390.0 2.283e-05
3410.0 2.5506e-05
3430.0 2.9086e-05
3450.0 3.2495e-05
3470.0 3.6003e-05
3490.0 3.6755e-05
3510.0 3.1578e-05
3530.0 2.8995e-05
3550.0 3.4148e-05
3570.0 3.9585e-05
3590.0 4.3577e-05
3610.0 4.3694e-05
3630.0 5.0808e-05
3650.0 5.3575e-05
3670.0 5.5907e-05
3690.0 5.9177e-05
3710.0 5.9563e-05
3730.0 6.159e-05
3750.0 6.1264e-05
3770.0 6.0994e-05
3790.0 5.8727e-05
3810.0 5.5174e-05
3830.0 5.2227e-05
3850.0 3.2729e-05
3870.0 3.4569e-05
3890.0 3.9585e-05
3910.0 5.2075e-05
3930.0 6.7421e-05
3950.0 7.3044e-05
3970.0 7.837e-05
3990.0 9.0896e-05
4010.0 8.563e-05
4030.0 7.5757e-05
4050.0 5.4246e-05
4070.0 4.7698e-05
4090.0 6.3882e-05
4110.0 6.7358e-05
4130.0 7.3327e-05
4150.0 7.1582e-05
4170.0 6.7729e-05
4190.0 6.2026e-05
4210.0 7.6305e-05
4230.0 8.168e-05
4250.0 8.8568e-05
4270.0 8.583e-05
4290.0 8.3137e-05
4310.0 8.7158e-05
4330.0 0.00010111
4350.0 0.00010943
4370.0 0.00011056
4390.0 0.00010227
4410.0 9.3118e-05
4430.0 7.2816e-05
4450.0 5.8469e-05
4470.0 6.0933e-05
4490.0 7.0169e-05
4510.0 7.3914e-05
4530.0 7.3988e-05
4550.0 7.4329e-05
4570.0 0.00010434
4590.0 0.00015555
4610.0 0.00018371
4630.0 0.00018876
4650.0 0.00020727
4670.0 0.00024262
4690.0 0.00025959
4710.0 0.00021947
4730.0 0.00016792
4750.0 0.00013029
4770.0 0.00011026
4790.0 9.931e-05
4810.0 9.3979e-05
4830.0 0.00010406
4850.0 0.00012495
4870.0 0.00013844
4890.0 0.00014361
4910.0 0.00013829
4930.0 0.00015164
4950.0 0.00018261
4970.0 0.00020817
4990.0 0.00021347
5010.0 0.00019535
5030.0 0.00016162
5050.0 0.00012599
5070.0 0.00010222
5090.0 9.3333e-05
5110.0 9.2566e-05
5130.0 9.4145e-05
5150.0 9.3117e-05
5170.0 8.687e-05
5190.0 8.1607e-05
5210.0 8.1739e-05
5230.0 9.4041e-05
5250.0 0.00011508
5270.0 0.00013903
5290.0 0.00015792
5310.0 0.00017157
5330.0 0.00019274
5350.0 0.00021513
5370.0 0.00022151
5390.0 0.00020283
5410.0 0.00018325
5430.0 0.00018349
5450.0 0.00021619
5470.0 0.00026626
5490.0 0.00030891
5510.0 0.00032967
5530.0 0.00032909
5550.0 0.00031916
5570.0 0.00031137
5590.0 0.00030294
5610.0 0.00030005
5630.0 0.00030345
5650.0 0.0003087
5670.0 0.00030329
5690.0 0.00027632
5710.0 0.00023928
5730.0 0.0002189
5750.0 0.0002148
5770.0 0.00022392
5790.0 0.00023441
5810.0 0.0002447
5830.0 0.00025099
5850.0 0.00024452
5870.0 0.0002364
5890.0 0.00023685
5910.0 0.00024941
5930.0 0.00026079
5950.0 0.0002493
5970.0 0.00022267
5990.0 0.00018601
6010.0 0.00015305
6030.0 0.00014315
6050.0 0.00015576
6070.0 0.00016464
6090.0 0.00015496
6110.0 0.00013754
6130.0 0.00014175
6150.0 0.0001643
6170.0 0.00018665
6190.0 0.00020216
6210.0 0.00020568
6230.0 0.00020296
6250.0 0.00018487
6270.0 0.0001539
6290.0 0.00012706
6310.0 0.00011381
6330.0 0.00011213
6350.0 0.00011406
6370.0 0.00011708
6390.0 0.00013383
6410.0 0.00016674
6430.0 0.00020162
6450.0 0.0002218
6470.0 0.00022791
6490.0 0.00022816
6510.0 0.00023196
6530.0 0.00023713
6550.0 0.0002373
6570.0 0.00024582
6590.0 0.00025275
6610.0 0.00025594
6630.0 0.00024897
6650.0 0.0002309
6670.0 0.00021089
6690.0 0.0001943
6710.0 0.00018504
6730.0 0.00018068
6750.0 0.00018144
6770.0 0.00018638
6790.0 0.00019315
6810.0 0.00019744
6830.0 0.00019397
6850.0 0.00018392
6870.0 0.00017236
6890.0 0.0001684
6910.0 0.00016528
6930.0 0.00017097
6950.0 0.00017944
6970.0 0.00018397
6990.0 0.00018656
7010.0 0.00018072
7030.0 0.00016601
7050.0 0.0001473
7070.0 0.00013324
7090.0 0.00012718
7110.0 0.00012671
7130.0 0.00012168
7150.0 0.00010793
7170.0 0.00010317
7190.0 0.00011425
7210.0 0.00013309
7230.0 0.0001522
7250.0 0.00015971
7270.0 0.00015684
7290.0 0.00014526
7310.0 0.00013501
7330.0 0.0001309
7350.0 0.00013178
7370.0 0.00013405
7390.0 0.00014075
7410.0 0.00015632
7430.0 0.00017924
7450.0 0.00020023
7470.0 0.00020917
7490.0 0.00020215
7510.0 0.00018655
7530.0 0.00016523
7550.0 0.00015074
7570.0 0.00013529
7590.0 0.00012716
7610.0 0.00012839
7630.0 0.00013609
7650.0 0.00014815
7670.0 0.00016104
7690.0 0.00017043
7710.0 0.00017904
7730.0 0.00018725
7750.0 0.00019366
7770.0 0.0001912
7790.0 0.00019121
7810.0 0.00019191
7830.0 0.00018768
7850.0 0.00017991
7870.0 0.00017382
7890.0 0.00017438
7910.0 0.00017034
7930.0 0.00016611
7950.0 0.00015682
7970.0 0.0001507
7990.0 0.00014391
8010.0 0.00014251
8030.0 0.00014251
8050.0 0.00014213
8070.0 0.00013941
8090.0 0.00013741
8110.0 0.00013226
8130.0 0.00013133
8150.0 0.00012904
8170.0 0.00012513
8190.0 0.00012143
8210.0 0.00011946
8230.0 0.00011593
8250.0 0.00011349
8270.0 0.0001033
8290.0 8.4874e-05
8310.0 6.4525e-05
8330.0 5.0631e-05
8350.0 4.748e-05
8370.0 5.5743e-05
8390.0 6.6568e-05
8410.0 7.1121e-05
8430.0 7.2381e-05
8450.0 7.5952e-05
8470.0 8.1332e-05
8490.0 9.058e-05
8510.0 0.00010246
8530.0 0.00011607
8550.0 0.00012792
8570.0 0.0001371
8590.0 0.00014382
8610.0 0.00014702
8630.0 0.00014595
8650.0 0.00014339
8670.0 0.00014272
8690.0 0.00014954
8710.0 0.00015895
8730.0 0.00016441
8750.0 0.00016301
8770.0 0.00016453
8790.0 0.00016339
8810.0 0.00015324
8830.0 0.00014293
8850.0 0.00012984
8870.0 0.00011937
8890.0 0.0001158
8910.0 0.00011501
8930.0 0.00010794
8950.0 9.9838e-05
8970.0 9.6208e-05
8990.0 9.5216e-05
9010.0 9.1657e-05
9030.0 8.9638e-05
9050.0 8.8838e-05
9070.0 8.8466e-05
9090.0 8.8147e-05
9110.0 8.784e-05
9130.0 8.7532e-05
9150.0 8.7232e-05
9170.0 8.6902e-05
9190.0 8.6668e-05
9210.0 8.6711e-05
9230.0 8.6273e-05
9250.0 8.5905e-05
9270.0 8.5577e-05
9290.0 8.5277e-05
9310.0 8.4986e-05
9330.0 8.4707e-05
9350.0 8.4448e-05
9370.0 8.4191e-05
9390.0 8.3929e-05
9410.0 8.3679e-05
9430.0 8.3419e-05
9450.0 8.3043e-05
9470.0 8.271e-05
9490.0 8.2587e-05
9510.0 8.2403e-05
9530.0 8.2204e-05
9550.0 8.1996e-05
9570.0 8.178e-05
9590.0 8.156e-05
9610.0 8.134e-05
9630.0 8.112e-05
9650.0 8.0902e-05
9670.0 8.0685e-05
9690.0 8.0469e-05
9710.0 8.0254e-05
9730.0 8.0041e-05
9750.0 7.9828e-05
9770.0 7.9616e-05
9790.0 7.9404e-05
9810.0 7.9193e-05
9830.0 7.8982e-05
9850.0 7.8772e-05
9870.0 7.856e-05
9890.0 7.8348e-05
9910.0 7.8134e-05
9930.0 7.7913e-05
9950.0 7.7153e-05
9970.0 7.7097e-05
9990.0 7.7008e-05
10010.0 7.6903e-05
10030.0 7.675e-05
10050.0 7.6556e-05
10070.0 7.6356e-05
10090.0 7.6155e-05
10110.0 7.5911e-05
10130.0 7.5665e-05
10150.0 7.544e-05
10170.0 7.5199e-05
10190.0 7.4931e-05
10210.0 7.4687e-05
10230.0 7.4447e-05
10250.0 7.4176e-05
10270.0 7.3905e-05
10290.0 7.3652e-05
10310.0 7.3372e-05
10330.0 7.3066e-05
10350.0 7.2785e-05
10370.0 7.25e-05
10390.0 7.2185e-05
10410.0 7.1869e-05
10430.0 7.1576e-05
10450.0 7.1252e-05
10470.0 7.0908e-05
10490.0 7.0581e-05
10510.0 7.0249e-05
10530.0 6.987e-05
10550.0 6.9502e-05
10570.0 6.9152e-05
10590.0 6.8771e-05
10610.0 6.8371e-05
10630.0 6.799e-05
10650.0 6.7599e-05
10670.0 6.7165e-05
10690.0 6.674e-05
10710.0 6.6324e-05
10730.0 6.5877e-05
10750.0 6.5398e-05
10770.0 6.4956e-05
10790.0 6.4496e-05
10810.0 6.4001e-05
10830.0 6.3512e-05
10850.0 6.3036e-05
10870.0 6.2505e-05
10890.0 6.1963e-05
10910.0 6.1438e-05
10930.0 6.0888e-05
10950.0 6.0292e-05
10970.0 5.9694e-05
10990.0 5.9104e-05
11010.0 6.336e-05
11030.0 6.2664e-05
11050.0 6.1987e-05
11070.0 6.1295e-05
11090.0 6.0554e-05
11110.0 5.9868e-05
11130.0 5.9203e-05
11150.0 5.8519e-05
11170.0 5.7844e-05
11190.0 5.7213e-05
11210.0 5.657e-05
11230.0 5.591e-05
11250.0 5.5281e-05
11270.0 5.4667e-05
11290.0 5.4027e-05
11310.0 5.3389e-05
11330.0 5.2794e-05
11350.0 5.218e-05
11370.0 5.1547e-05
11390.0 5.0929e-05
11410.0 5.0307e-05
11430.0 4.9627e-05
11450.0 4.8934e-05
11470.0 4.8233e-05
11490.0 4.7481e-05
11510.0 4.6664e-05
11530.0 4.5844e-05
11550.0 4.4994e-05
11570.0 4.4073e-05
11590.0 4.3129e-05
11610.0 4.219e-05
11630.0 4.1198e-05
11650.0 4.0168e-05
11670.0 3.9182e-05
11690.0 3.8199e-05
11710.0 3.7194e-05
11730.0 3.6218e-05
11750.0 3.5299e-05
11770.0 3.437e-05
11790.0 3.3457e-05
11810.0 3.2601e-05
11830.0 3.1774e-05
11850.0 3.0936e-05
11870.0 3.0149e-05
11890.0 2.9412e-05
11910.0 2.8678e-05
11930.0 2.7962e-05
11950.0 2.7295e-05
11970.0 2.6646e-05
11990.0 2.5997e-05
12010.0 2.5389e-05
12030.0 2.4819e-05
12050.0 2.4261e-05
12070.0 2.3726e-05
12090.0 2.3251e-05
12110.0 2.2805e-05
12130.0 2.2388e-05
12150.0 2.2021e-05
12170.0 2.1704e-05
12190.0 2.142e-05
12210.0 2.119e-05
12230.0 2.1014e-05
12250.0 2.0886e-05
12270.0 2.0808e-05
12290.0 2.078e-05
12310.0 2.0796e-05
12330.0 2.086e-05
12350.0 2.0968e-05
12370.0 2.1106e-05
12390.0 2.1281e-05
12410.0 2.1503e-05
12430.0 2.1735e-05
12450.0 2.1984e-05
12470.0 2.2261e-05
12490.0 2.2549e-05
12510.0 2.2824e-05
12530.0 2.3111e-05
12550.0 2.3399e-05
12570.0 2.366e-05
12590.0 2.3896e-05
12610.0 2.4117e-05
12630.0 2.4299e-05
12650.0 2.4423e-05
12670.0 2.4507e-05
12690.0 2.4542e-05
12710.0 2.4516e-05
12730.0 2.4437e-05
12750.0 2.4301e-05
12770.0 2.411e-05
12790.0 2.3873e-05
12810.0 2.3589e-05
12830.0 2.326e-05
12850.0 2.291e-05
12870.0 2.254e-05
12890.0 2.2144e-05
12910.0 2.1743e-05
12930.0 2.1349e-05
12950.0 2.0948e-05
12970.0 2.0549e-05
12990.0 2.0174e-05
13010.0 1.9812e-05
13030.0 1.9454e-05
13050.0 1.9114e-05
13070.0 1.8795e-05
13090.0 1.8478e-05
13110.0 1.817e-05
13130.0 1.7878e-05
13150.0 1.7592e-05
13170.0 1.7303e-05
13190.0 1.7027e-05
13210.0 1.6762e-05
13230.0 1.6496e-05
13250.0 1.6236e-05
13270.0 1.5992e-05
13290.0 1.5755e-05
13310.0 1.5523e-05
13330.0 1.5312e-05
13350.0 1.5119e-05
13370.0 1.494e-05
13390.0 1.4781e-05
13410.0 1.4647e-05
13430.0 1.453e-05
13450.0 1.4429e-05
13470.0 1.4344e-05
13490.0 1.4272e-05
13510.0 1.4205e-05
13530.0 1.4141e-05
13550.0 1.4076e-05
13570.0 1.4004e-05
13590.0 1.3922e-05
13610.0 1.3828e-05
13630.0 1.3722e-05
13650.0 1.3599e-05
13670.0 1.3462e-05
13690.0 1.3318e-05
13710.0 1.3162e-05
13730.0 1.2994e-05
13750.0 1.2831e-05
13770.0 1.2669e-05
13790.0 1.2507e-05
13810.0 1.2353e-05
13830.0 1.2213e-05
13850.0 1.2079e-05
13870.0 1.1955e-05
13890.0 1.1846e-05
13910.0 1.1748e-05
13930.0 1.1657e-05
13950.0 1.1576e-05
13970.0 1.1505e-05
13990.0 1.1437e-05
14010.0 1.1371e-05
14030.0 1.1307e-05
14050.0 1.1243e-05
14070.0 1.1174e-05
14090.0 1.1102e-05
14110.0 1.1026e-05
14130.0 1.0943e-05
14150.0 1.0851e-05
14170.0 1.0758e-05
14190.0 1.0659e-05
14210.0 1.0552e-05
14230.0 1.0445e-05
14250.0 1.0339e-05
14270.0 1.0231e-05
14290.0 1.0124e-05
14310.0 1.0028e-05
14330.0 9.9377e-06
14350.0 9.8543e-06
14370.0 9.7831e-06
14390.0 9.7247e-06
14410.0 9.6752e-06
14430.0 9.6369e-06
14450.0 9.6104e-06
14470.0 9.5929e-06
14490.0 9.5834e-06
14510.0 9.5817e-06
14530.0 9.5861e-06
14550.0 9.5961e-06
14570.0 9.6117e-06
14590.0 9.6324e-06
14610.0 9.6594e-06
14630.0 9.6948e-06
14650.0 9.7382e-06
14670.0 9.7906e-06
14690.0 9.8559e-06
14710.0 9.9355e-06
14730.0 1.0024e-05
14750.0 1.0129e-05
14770.0 1.0252e-05
14790.0 1.0387e-05
14810.0 1.0536e-05
14830.0 1.0712e-05
14850.0 1.0903e-05
14870.0 1.1106e-05
14890.0 1.1327e-05
14910.0 1.1567e-05
14930.0 1.1805e-05
14950.0 1.2036e-05
14970.0 1.2264e-05
14990.0 1.2467e-05
15010.0 1.2635e-05
15030.0 1.2775e-05
15050.0 1.2887e-05
15070.0 1.2966e-05
15090.0 1.3026e-05
15110.0 1.3074e-05
15130.0 1.3112e-05
15150.0 1.3147e-05
15170.0 1.3179e-05
15190.0 1.3211e-05
15210.0 1.3243e-05
15230.0 1.3275e-05
15250.0 1.3308e-05
15270.0 1.3341e-05
15290.0 1.3376e-05
15310.0 1.3411e-05
15330.0 1.3446e-05
15350.0 1.3482e-05
15370.0 1.3519e-05
15390.0 1.3556e-05
15410.0 1.3594e-05
15430.0 1.3633e-05
15450.0 1.3672e-05
15470.0 1.3711e-05
15490.0 1.3751e-05
15510.0 1.3792e-05
15530.0 1.3833e-05
15550.0 1.3874e-05
15570.0 1.3916e-05
15590.0 1.3959e-05
15610.0 1.4002e-05
15630.0 1.4045e-05
15650.0 1.4089e-05
15670.0 1.4133e-05
15690.0 1.4177e-05
15710.0 1.4222e-05
15730.0 1.4268e-05
15750.0 1.4313e-05
15770.0 1.4359e-05
15790.0 1.4405e-05
15810.0 1.4452e-05
15830.0 1.4498e-05
15850.0 1.4545e-05
15870.0 1.4593e-05
15890.0 1.464e-05
15910.0 1.4688e-05
15930.0 1.4736e-05
15950.0 1.4784e-05
15970.0 1.4832e-05
15990.0 1.488e-05
16010.0 1.4929e-05
16030.0 1.4977e-05
16050.0 1.5026e-05
16070.0 1.5075e-05
16090.0 1.5123e-05
16110.0 1.5172e-05
16130.0 1.5221e-05
16150.0 1.527e-05
16170.0 1.5319e-05
16190.0 1.5367e-05
16210.0 1.5416e-05
16230.0 1.5464e-05
16250.0 1.5513e-05
16270.0 1.5561e-05
16290.0 1.5609e-05
16310.0 1.5657e-05
16330.0 1.5705e-05
16350.0 1.5753e-05
16370.0 1.58e-05
16390.0 1.5847e-05
16410.0 1.5894e-05
16430.0 1.5941e-05
16450.0 1.5987e-05
16470.0 1.6033e-05
16490.0 1.6078e-05
16510.0 1.6123e-05
16530.0 1.6168e-05
16550.0 1.6212e-05
16570.0 1.6256e-05
16590.0 1.63e-05
16610.0 1.6343e-05
16630.0 1.6385e-05
16650.0 1.6427e-05
16670.0 1.6468e-05
16690.0 1.6509e-05
16710.0 1.6549e-05
16730.0 1.6589e-05
16750.0 1.6628e-05
16770.0 1.6666e-05
16790.0 1.6704e-05
16810.0 1.6741e-05
16830.0 1.6777e-05
16850.0 1.6812e-05
16870.0 1.6847e-05
16890.0 1.6881e-05
16910.0 1.6914e-05
16930.0 1.6946e-05
16950.0 1.6978e-05
16970.0 1.7009e-05
16990.0 1.7039e-05
17010.0 1.7068e-05
17030.0 1.7096e-05
17050.0 1.7123e-05
17070.0 1.7149e-05
17090.0 1.7175e-05
17110.0 1.7199e-05
17130.0 1.7222e-05
17150.0 1.7245e-05
17170.0 1.7266e-05
17190.0 1.7286e-05
17210.0 1.7306e-05
17230.0 1.7324e-05
17250.0 1.7341e-05
17270.0 1.7357e-05
17290.0 1.7372e-05
17310.0 1.7387e-05
17330.0 1.7399e-05
17350.0 1.7411e-05
17370.0 1.7422e-05
17390.0 1.7431e-05
17410.0 1.744e-05
17430.0 1.7447e-05
17450.0 1.7453e-05
17470.0 1.7458e-05
17490.0 1.7461e-05
17510.0 1.7464e-05
17530.0 1.7465e-05
17550.0 1.7465e-05
17570.0 1.7464e-05
17590.0 1.7462e-05
17610.0 1.7459e-05
17630.0 1.7454e-05
17650.0 1.7448e-05
17670.0 1.7441e-05
17690.0 1.7433e-05
17710.0 1.7423e-05
17730.0 1.7413e-05
17750.0 1.7401e-05
17770.0 1.7388e-05
17790.0 1.7374e-05
17810.0 1.7358e-05
17830.0 1.7341e-05
17850.0 1.7323e-05
17870.0 1.7304e-05
17890.0 1.7284e-05
17910.0 1.7262e-05
17930.0 1.724e-05
17950.0 1.7216e-05
17970.0 1.7191e-05
17990.0 1.7165e-05
18010.0 1.7137e-05
18030.0 1.7109e-05
18050.0 1.7079e-05
18070.0 1.7048e-05
18090.0 1.7017e-05
18110.0 1.6983e-05
18130.0 1.695e-05
18150.0 1.6914e-05
18170.0 1.6878e-05
18190.0 1.6841e-05
18210.0 1.6803e-05
18230.0 1.6763e-05
18250.0 1.6723e-05
18270.0 1.6681e-05
18290.0 1.6639e-05
18310.0 1.6595e-05
18330.0 1.6551e-05
18350.0 1.6506e-05
18370.0 1.6459e-05
18390.0 1.6412e-05
18410.0 1.6364e-05
18430.0 1.6315e-05
18450.0 1.6265e-05
18470.0 1.6214e-05
18490.0 1.6163e-05
18510.0 1.611e-05
18530.0 1.6057e-05
18550.0 1.6003e-05
18570.0 1.5949e-05
18590.0 1.5893e-05
18610.0 1.5837e-05
18630.0 1.578e-05
18650.0 1.5722e-05
18670.0 1.5663e-05
18690.0 1.5604e-05
18710.0 1.5545e-05
18730.0 1.5484e-05
18750.0 1.5423e-05
18770.0 1.5362e-05
18790.0 1.5299e-05
18810.0 1.5237e-05
18830.0 1.5174e-05
18850.0 1.511e-05
18870.0 1.5045e-05
18890.0 1.4981e-05
18910.0 1.4916e-05
18930.0 1.485e-05
18950.0 1.4784e-05
18970.0 1.4717e-05
18990.0 1.465e-05
19010.0 1.4583e-05
19030.0 1.4515e-05
19050.0 1.4448e-05
19070.0 1.4379e-05
19090.0 1.4311e-05
19110.0 1.4242e-05
19130.0 1.4173e-05
19150.0 1.4103e-05
19170.0 1.4034e-05
19190.0 1.3964e-05
19210.0 1.3894e-05
19230.0 1.3824e-05
19250.0 1.3753e-05
19270.0 1.3683e-05
19290.0 1.3612e-05
19310.0 1.3542e-05
19330.0 1.3471e-05
19350.0 1.34e-05
19370.0 1.3329e-05
19390.0 1.3258e-05
19410.0 1.3187e-05
19430.0 1.3116e-05
19450.0 1.3045e-05
19470.0 1.2974e-05
19490.0 1.2902e-05
19510.0 1.2831e-05
19530.0 1.2761e-05
19550.0 1.269e-05
19570.0 1.2619e-05
19590.0 1.2548e-05
19610.0 1.2477e-05
19630.0 1.2407e-05
19650.0 1.2336e-05
19670.0 1.2266e-05
19690.0 1.2196e-05
19710.0 1.2126e-05
19730.0 1.2056e-05
19750.0 1.1987e-05
19770.0 1.1917e-05
19790.0 1.1848e-05
19810.0 1.1779e-05
19830.0 1.171e-05
19850.0 1.164e-05
19870.0 1.157e-05
19890.0 1.1498e-05
19910.0 1.1421e-05
19930.0 1.1338e-05
19950.0 1.1245e-05
19970.0 1.1136e-05
19990.0 1.1009e-05
20010.0 1.0866e-05
20030.0 1.0701e-05
20050.0 1.0514e-05
20070.0 1.0315e-05
20090.0 1.0108e-05
20110.0 9.8845e-06
20130.0 9.6634e-06
20150.0 9.4486e-06
20170.0 9.2328e-06
20190.0 9.0195e-06
20210.0 8.8191e-06
20230.0 8.6254e-06
20250.0 8.4334e-06
20270.0 8.2527e-06
20290.0 8.0836e-06
20310.0 7.9191e-06
20330.0 7.7596e-06
20350.0 7.6159e-06
20370.0 7.4787e-06
20390.0 7.3466e-06
20410.0 7.2239e-06
20430.0 7.1111e-06
20450.0 7.0015e-06
20470.0 6.8993e-06
20490.0 6.8061e-06
20510.0 6.7188e-06
20530.0 6.6363e-06
20550.0 6.561e-06
20570.0 6.4925e-06
20590.0 6.4282e-06
20610.0 6.369e-06
20630.0 6.3152e-06
20650.0 6.2654e-06
20670.0 6.2192e-06
20690.0 6.177e-06
20710.0 6.1379e-06
20730.0 6.1013e-06
20750.0 6.0669e-06
20770.0 6.034e-06
20790.0 6.0024e-06
20810.0 5.9715e-06
20830.0 5.9409e-06
20850.0 5.9102e-06
20870.0 5.8791e-06
20890.0 5.8471e-06
20910.0 5.8141e-06
20930.0 5.7797e-06
20950.0 5.7435e-06
20970.0 5.7058e-06
20990.0 5.6665e-06
21010.0 5.6247e-06
21030.0 5.581e-06
21050.0 5.5359e-06
21070.0 5.4886e-06
21090.0 5.4388e-06
21110.0 5.3882e-06
21130.0 5.3365e-06
21150.0 5.2826e-06
21170.0 5.2276e-06
21190.0 5.1728e-06
21210.0 5.1161e-06
21230.0 5.0581e-06
21250.0 5.0011e-06
21270.0 4.944e-06
21290.0 4.8858e-06
21310.0 4.8281e-06
21330.0 4.7724e-06
21350.0 4.7163e-06
21370.0 4.6606e-06
21390.0 4.6072e-06
21410.0 4.5554e-06
21430.0 4.5034e-06
21450.0 4.4545e-06
21470.0 4.4085e-06
21490.0 4.3641e-06
21510.0 4.322e-06
21530.0 4.2834e-06
21550.0 4.2474e-06
21570.0 4.2138e-06
21590.0 4.1835e-06
21610.0 4.1564e-06
21630.0 4.1321e-06
21650.0 4.1107e-06
21670.0 4.0922e-06
21690.0 4.0762e-06
21710.0 4.0629e-06
21730.0 4.0516e-06
21750.0 4.042e-06
21770.0 4.0347e-06
21790.0 4.0288e-06
21810.0 4.0236e-06
21830.0 4.0193e-06
21850.0 4.0161e-06
21870.0 4.0126e-06
21890.0 4.0087e-06
21910.0 4.005e-06
21930.0 4.0007e-06
21950.0 3.9953e-06
21970.0 3.9891e-06
21990.0 3.9824e-06
22010.0 3.9741e-06
22030.0 3.9645e-06
22050.0 3.9539e-06
22070.0 3.9421e-06
22090.0 3.9291e-06
22110.0 3.9151e-06
22130.0 3.9001e-06
22150.0 3.8842e-06
22170.0 3.8675e-06
22190.0 3.85e-06
22210.0 3.8318e-06
22230.0 3.8131e-06
22250.0 3.7937e-06
22270.0 3.7735e-06
22290.0 3.7527e-06
22310.0 3.7313e-06
22330.0 3.7085e-06
22350.0 3.6846e-06
22370.0 3.6599e-06
22390.0 3.6335e-06
22410.0 3.6048e-06
22430.0 3.5751e-06
22450.0 3.5436e-06
22470.0 3.5092e-06
22490.0 3.4728e-06
22510.0 3.4352e-06
22530.0 3.3942e-06
22550.0 3.3504e-06
22570.0 3.306e-06
22590.0 3.2599e-06
22610.0 3.2111e-06
