#lamb flux
1010.0 0.00016158
1030.0 0.0002149
1050.0 0.00028097
1070.0 0.00036111
1090.0 0.00045863
1110.0 0.00056779
1130.0 0.00068719
1150.0 0.00082035
1170.0 0.00096585
1190.0 0.0011137
1210.0 0.0012685
1230.0 0.0014305
1250.0 0.0015909
1270.0 0.0017451
1290.0 0.0018996
1310.0 0.0020442
1330.0 0.0021702
1350.0 0.0022807
1370.0 0.0023757
1390.0 0.002446
1410.0 0.0024902
1430.0 0.0025165
1450.0 0.0025201
1470.0 0.0024988
1490.0 0.0024597
1510.0 0.0024085
1530.0 0.0023377
1550.0 0.0022551
1570.0 0.0021672
1590.0 0.0020739
1610.0 0.0019749
1630.0 0.0018774
1650.0 0.0017826
1670.0 0.0016886
1690.0 0.0015982
1710.0 0.0015143
1730.0 0.0014357
1750.0 0.0013602
1770.0 0.0012916
1790.0 0.0012294
1810.0 0.0011719
1830.0 0.0011196
1850.0 0.0010741
1870.0 0.001033
1890.0 0.000996
1910.0 0.00096409
1930.0 0.00093708
1950.0 0.00091346
1970.0 0.0008939
1990.0 0.00087919
2010.0 0.00086838
2030.0 0.00086131
2050.0 0.00085923
2070.0 0.00086227
2090.0 0.00086946
2110.0 0.00088206
2130.0 0.00090103
2150.0 0.00092616
2170.0 0.00095764
2190.0 0.00099734
2210.0 0.0010455
2230.0 0.0011019
2250.0 0.0011679
2270.0 0.0012451
2290.0 0.0013327
2310.0 0.0014309
2330.0 0.0015418
2350.0 0.0016652
2370.0 0.0018001
2390.0 0.0019477
2410.0 0.0021088
2430.0 0.0022808
2450.0 0.0024628
2470.0 0.0026555
2490.0 0.0028575
2510.0 0.0030668
2530.0 0.003288
2550.0 0.0035293
2570.0 0.0038014
2590.0 0.0041208
2610.0 0.004531
2630.0 0.0050652
2650.0 0.0057402
2670.0 0.0066059
2690.0 0.0077091
2710.0 0.009001
2730.0 0.010444
2750.0 0.012075
2770.0 0.013764
2790.0 0.015382
2810.0 0.016913
2830.0 0.018327
2850.0 0.019477
2870.0 0.020431
2890.0 0.021238
2910.0 0.021905
2930.0 0.02245
2950.0 0.022933
2970.0 0.023364
2990.0 0.023733
3010.0 0.024054
3030.0 0.024345
3050.0 0.024592
3070.0 0.024773
3090.0 0.024915
3110.0 0.025004
3130.0 0.02501
3150.0 0.025215
3170.0 0.025287
3190.0 0.025289
3210.0 0.025191
3230.0 0.024901
3250.0 0.023963
3270.0 0.022336
3290.0 0.020986
3310.0 0.020543
3330.0 0.020866
3350.0 0.02131
3370.0 0.021679
3390.0 0.021979
3410.0 0.022244
3430.0 0.022495
3450.0 0.022852
3470.0 0.02348
3490.0 0.023705
3510.0 0.023178
3530.0 0.023907
3550.0 0.025809
3570.0 0.030193
3590.0 0.033613
3610.0 0.036302
3630.0 0.039016
3650.0 0.03771
3670.0 0.033478
3690.0 0.030236
3710.0 0.029908
3730.0 0.031577
3750.0 0.032661
3770.0 0.033267
3790.0 0.033635
3810.0 0.033188
3830.0 0.030524
3850.0 0.027387
3870.0 0.025931
3890.0 0.027009
3910.0 0.027993
3930.0 0.028131
3950.0 0.028932
3970.0 0.030262
3990.0 0.031055
4010.0 0.031556
4030.0 0.030759
4050.0 0.029818
4070.0 0.029428
4090.0 0.029674
4110.0 0.029861
4130.0 0.029239
4150.0 0.028321
4170.0 0.028032
4190.0 0.028049
4210.0 0.026771
4230.0 0.024794
4250.0 0.022367
4270.0 0.02004
4290.0 0.018635
4310.0 0.017894
4330.0 0.018343
4350.0 0.019981
4370.0 0.021209
4390.0 0.022972
4410.0 0.02453
4430.0 0.025121
4450.0 0.024041
4470.0 0.022775
4490.0 0.022465
4510.0 0.022426
4530.0 0.022533
4550.0 0.022455
4570.0 0.022605
4590.0 0.023246
4610.0 0.023843
4630.0 0.024375
4650.0 0.024752
4670.0 0.024588
4690.0 0.023335
4710.0 0.022001
4730.0 0.021189
4750.0 0.020636
4770.0 0.019938
4790.0 0.019649
4810.0 0.019284
4830.0 0.019946
4850.0 0.019549
4870.0 0.020455
4890.0 0.019374
4910.0 0.01811
4930.0 0.017069
4950.0 0.015641
4970.0 0.01433
4990.0 0.013615
5010.0 0.012889
5030.0 0.012809
5050.0 0.013022
5070.0 0.013782
5090.0 0.014446
5110.0 0.015111
5130.0 0.015555
5150.0 0.01577
5170.0 0.015794
5190.0 0.015877
5210.0 0.015763
5230.0 0.015574
5250.0 0.015612
5270.0 0.015912
5290.0 0.015717
5310.0 0.015274
5330.0 0.014635
5350.0 0.013991
5370.0 0.013617
5390.0 0.013305
5410.0 0.013505
5430.0 0.013438
5450.0 0.01338
5470.0 0.013315
5490.0 0.013595
5510.0 0.013754
5530.0 0.013518
5550.0 0.013582
5570.0 0.013721
5590.0 0.013823
5610.0 0.013566
5630.0 0.013336
5650.0 0.013006
5670.0 0.012959
5690.0 0.012593
5710.0 0.012468
5730.0 0.012288
5750.0 0.01209
5770.0 0.011903
5790.0 0.011566
5810.0 0.011415
5830.0 0.011442
5850.0 0.011485
5870.0 0.011453
5890.0 0.011456
5910.0 0.011571
5930.0 0.011774
5950.0 0.011699
5970.0 0.011842
5990.0 0.011897
6010.0 0.011924
6030.0 0.011792
6050.0 0.011551
6070.0 0.011595
6090.0 0.011645
6110.0 0.011463
6130.0 0.011235
6150.0 0.010906
6170.0 0.010411
6190.0 0.0098399
6210.0 0.0096669
6230.0 0.0095271
6250.0 0.0094606
6270.0 0.0096551
6290.0 0.0098102
6310.0 0.0099053
6330.0 0.010054
6350.0 0.01015
6370.0 0.01007
6390.0 0.0097777
6410.0 0.0095858
6430.0 0.009395
6450.0 0.0091862
6470.0 0.0090535
6490.0 0.0090717
6510.0 0.0090014
6530.0 0.0089565
6550.0 0.008832
6570.0 0.0087346
6590.0 0.0086563
6610.0 0.0085228
6630.0 0.008443
6650.0 0.0083251
6670.0 0.0081328
6690.0 0.0078578
6710.0 0.0076767
6730.0 0.0075874
6750.0 0.0075354
6770.0 0.0075351
6790.0 0.0073504
6810.0 0.007312
6830.0 0.0072474
6850.0 0.0071571
6870.0 0.0069893
6890.0 0.0068871
6910.0 0.006874
6930.0 0.0067162
6950.0 0.0067475
6970.0 0.0066897
6990.0 0.0066414
7010.0 0.0064693
7030.0 0.0064291
7050.0 0.0063917
7070.0 0.0062218
7090.0 0.0059966
7110.0 0.0059626
7130.0 0.0060014
7150.0 0.0060096
7170.0 0.0060557
7190.0 0.0061076
7210.0 0.0062457
7230.0 0.0062702
7250.0 0.0063727
7270.0 0.0062045
7290.0 0.0062035
7310.0 0.0060719
7330.0 0.0059946
7350.0 0.0058429
7370.0 0.005774
7390.0 0.0057895
7410.0 0.0057114
7430.0 0.0057486
7450.0 0.0056034
7470.0 0.0055686
7490.0 0.0053534
7510.0 0.0051487
7530.0 0.0052203
7550.0 0.0050327
7570.0 0.0050999
7590.0 0.0048471
7610.0 0.0050035
7630.0 0.0049177
7650.0 0.0050044
7670.0 0.0048385
7690.0 0.0049123
7710.0 0.0048028
7730.0 0.0050322
7750.0 0.0049367
7770.0 0.0051819
7790.0 0.0053341
7810.0 0.0053563
7830.0 0.0056036
7850.0 0.0054684
7870.0 0.0057475
7890.0 0.0056172
7910.0 0.0055244
7930.0 0.0054221
7950.0 0.0053574
7970.0 0.0053822
7990.0 0.0053488
8010.0 0.0051386
8030.0 0.0050956
8050.0 0.0049896
8070.0 0.0049168
8090.0 0.0046265
8110.0 0.004653
8130.0 0.004855
8150.0 0.0050015
8170.0 0.0050061
8190.0 0.0051352
8210.0 0.0050571
8230.0 0.004896
8250.0 0.004871
8270.0 0.0047779
8290.0 0.0046824
8310.0 0.0044582
8330.0 0.0044787
8350.0 0.0045103
8370.0 0.0045371
8390.0 0.0045668
8410.0 0.0045054
8430.0 0.0044848
8450.0 0.0044994
8470.0 0.0046096
8490.0 0.0046692
8510.0 0.0045296
8530.0 0.0043523
8550.0 0.0043606
8570.0 0.004303
8590.0 0.0041868
8610.0 0.0042678
8630.0 0.0042275
8650.0 0.0041699
8670.0 0.0041388
8690.0 0.0041061
8710.0 0.003918
8730.0 0.0039626
8750.0 0.0038488
8770.0 0.0038568
8790.0 0.0037681
8810.0 0.0036939
8830.0 0.0037157
8850.0 0.0036553
8870.0 0.0034854
8890.0 0.0034025
8910.0 0.003253
8930.0 0.0030483
8950.0 0.0030138
8970.0 0.0028862
8990.0 0.0028507
9010.0 0.0027861
9030.0 0.0027605
9050.0 0.0027421
9070.0 0.002724
9090.0 0.0027057
9110.0 0.0026871
9130.0 0.0026684
9150.0 0.0026501
9170.0 0.0026316
9190.0 0.002613
9210.0 0.0025943
9230.0 0.0025754
9250.0 0.0025566
9270.0 0.0025377
9290.0 0.0025187
9310.0 0.0024999
9330.0 0.0024812
9350.0 0.0024624
9370.0 0.0024437
9390.0 0.0024251
9410.0 0.0024064
9430.0 0.0023877
9450.0 0.0023691
9470.0 0.0023522
9490.0 0.0023345
9510.0 0.0023151
9530.0 0.002296
9550.0 0.0022774
9570.0 0.002259
9590.0 0.0022407
9610.0 0.0022226
9630.0 0.0022049
9650.0 0.0021871
9670.0 0.0021694
9690.0 0.002152
9710.0 0.0021346
9730.0 0.0021173
9750.0 0.0021001
9770.0 0.0020833
9790.0 0.0020664
9810.0 0.0020496
9830.0 0.002033
9850.0 0.0020148
9870.0 0.0019971
9890.0 0.0019824
9910.0 0.0019674
9930.0 0.0019491
9950.0 0.0019335
9970.0 0.0019194
9990.0 0.0019049
10010.0 0.0018905
10030.0 0.0018759
10050.0 0.0018612
10070.0 0.0018467
10090.0 0.0018324
10110.0 0.001818
10130.0 0.0018038
10150.0 0.0017901
10170.0 0.0017764
10190.0 0.0017627
10210.0 0.0017494
10230.0 0.0017364
10250.0 0.0017233
10270.0 0.0017105
10290.0 0.001698
10310.0 0.0016855
10330.0 0.0016731
10350.0 0.001661
10370.0 0.0016492
10390.0 0.0016373
10410.0 0.0016252
10430.0 0.0016133
10450.0 0.0016026
10470.0 0.0015918
10490.0 0.0015812
10510.0 0.0015707
10530.0 0.00156
10550.0 0.0015497
10570.0 0.0015396
10590.0 0.0015296
10610.0 0.0015196
10630.0 0.0015101
10650.0 0.0015006
10670.0 0.0014911
10690.0 0.0014819
10710.0 0.0014729
10730.0 0.001464
10750.0 0.001455
10770.0 0.0014465
10790.0 0.0014382
10810.0 0.0014297
10830.0 0.0014216
10850.0 0.0014137
10870.0 0.0014057
10890.0 0.0013978
10910.0 0.0013904
10930.0 0.001383
10950.0 0.0013756
10970.0 0.0013685
10990.0 0.0013617
11010.0 0.0013872
11030.0 0.0013789
11050.0 0.0013705
11070.0 0.0013618
11090.0 0.0013525
11110.0 0.0013435
11130.0 0.0013344
11150.0 0.0013249
11170.0 0.0013153
11190.0 0.0013061
11210.0 0.0012966
11230.0 0.001287
11250.0 0.0012777
11270.0 0.0012687
11290.0 0.0012596
11310.0 0.0012509
11330.0 0.0012429
11350.0 0.0012352
11370.0 0.0012278
11390.0 0.001221
11410.0 0.0012148
11430.0 0.0012087
11450.0 0.001203
11470.0 0.0011979
11490.0 0.0011929
11510.0 0.0011878
11530.0 0.0011832
11550.0 0.0011786
11570.0 0.0011739
11590.0 0.0011692
11610.0 0.0011646
11630.0 0.0011598
11650.0 0.0011547
11670.0 0.0011498
11690.0 0.0011449
11710.0 0.0011397
11730.0 0.0011345
11750.0 0.0011296
11770.0 0.0011243
11790.0 0.001119
11810.0 0.0011139
11830.0 0.001109
11850.0 0.0011037
11870.0 0.0010988
11890.0 0.0010944
11910.0 0.0010901
11930.0 0.0010859
11950.0 0.0010825
11970.0 0.0010794
11990.0 0.0010766
12010.0 0.0010744
12030.0 0.001073
12050.0 0.0010721
12070.0 0.0010717
12090.0 0.0010722
12110.0 0.0010732
12130.0 0.0010748
12150.0 0.0010771
12170.0 0.0010798
12190.0 0.0010829
12210.0 0.0010864
12230.0 0.0010902
12250.0 0.0010941
12270.0 0.0010981
12290.0 0.001102
12310.0 0.0011058
12330.0 0.0011093
12350.0 0.0011125
12370.0 0.0011154
12390.0 0.0011178
12410.0 0.0011195
12430.0 0.0011209
12450.0 0.0011217
12470.0 0.0011218
12490.0 0.0011213
12510.0 0.0011205
12530.0 0.0011189
12550.0 0.0011166
12570.0 0.0011139
12590.0 0.0011107
12610.0 0.0011068
12630.0 0.0011023
12650.0 0.0010978
12670.0 0.0010928
12690.0 0.0010872
12710.0 0.0010817
12730.0 0.0010761
12750.0 0.0010698
12770.0 0.0010636
12790.0 0.0010578
12810.0 0.0010517
12830.0 0.0010455
12850.0 0.00104
12870.0 0.0010347
12890.0 0.0010293
12910.0 0.0010245
12930.0 0.0010204
12950.0 0.0010164
12970.0 0.0010128
12990.0 0.0010101
13010.0 0.001008
13030.0 0.0010064
13050.0 0.0010054
13070.0 0.0010053
13090.0 0.0010055
13110.0 0.0010062
13130.0 0.0010075
13150.0 0.0010092
13170.0 0.001011
13190.0 0.0010131
13210.0 0.0010154
13230.0 0.0010176
13250.0 0.0010198
13270.0 0.0010219
13290.0 0.0010238
13310.0 0.0010254
13330.0 0.0010267
13350.0 0.0010277
13370.0 0.0010283
13390.0 0.0010282
13410.0 0.0010279
13430.0 0.0010269
13450.0 0.0010253
13470.0 0.0010232
13490.0 0.0010206
13510.0 0.0010172
13530.0 0.0010132
13550.0 0.001009
13570.0 0.0010042
13590.0 0.00099873
13610.0 0.00099311
13630.0 0.00098735
13650.0 0.0009809
13670.0 0.00097419
13690.0 0.00096748
13710.0 0.00096035
13730.0 0.00095251
13750.0 0.00094494
13770.0 0.00093722
13790.0 0.00092899
13810.0 0.00092062
13830.0 0.00091251
13850.0 0.00090399
13870.0 0.00089522
13890.0 0.00088675
13910.0 0.00087839
13930.0 0.00086972
13950.0 0.00086121
13970.0 0.00085331
13990.0 0.0008453
14010.0 0.00083735
14030.0 0.00082987
14050.0 0.00082265
14070.0 0.00081524
14090.0 0.00080824
14110.0 0.00080161
14130.0 0.00079499
14150.0 0.00078839
14170.0 0.00078219
14190.0 0.00077609
14210.0 0.00076987
14230.0 0.00076381
14250.0 0.00075795
14270.0 0.00075194
14290.0 0.00074589
14310.0 0.00074015
14330.0 0.00073445
14350.0 0.00072869
14370.0 0.00072311
14390.0 0.00071779
14410.0 0.0007124
14430.0 0.00070712
14450.0 0.00070207
14470.0 0.00069711
14490.0 0.00069207
14510.0 0.00068722
14530.0 0.00068249
14550.0 0.00067767
14570.0 0.00067282
14590.0 0.00066805
14610.0 0.00066318
14630.0 0.00065813
14650.0 0.0006531
14670.0 0.00064804
14690.0 0.0006428
14710.0 0.00063743
14730.0 0.00063215
14750.0 0.00062672
14770.0 0.00062112
14790.0 0.00061552
14810.0 0.0006099
14830.0 0.00060399
14850.0 0.00059805
14870.0 0.00059215
14890.0 0.00058614
14910.0 0.00058002
14930.0 0.00057405
14950.0 0.00056823
14970.0 0.00056245
14990.0 0.00055692
15010.0 0.00055172
15030.0 0.00054673
15050.0 0.0005419
15070.0 0.00053737
15090.0 0.00053297
15110.0 0.00052862
15130.0 0.00052432
15150.0 0.0005201
15170.0 0.00051583
15190.0 0.00051154
15210.0 0.00050729
15230.0 0.00050303
15250.0 0.00049872
15270.0 0.00049441
15290.0 0.00049016
15310.0 0.00048586
15330.0 0.00048154
15350.0 0.00047727
15370.0 0.000473
15390.0 0.00046866
15410.0 0.00046437
15430.0 0.00046011
15450.0 0.00045582
15470.0 0.00045152
15490.0 0.00044728
15510.0 0.00044304
15530.0 0.00043878
15550.0 0.00043454
15570.0 0.00043035
15590.0 0.00042612
15610.0 0.0004219
15630.0 0.00041774
15650.0 0.00041359
15670.0 0.00040942
15690.0 0.0004053
15710.0 0.00040122
15730.0 0.00039712
15750.0 0.00039303
15770.0 0.000389
15790.0 0.00038498
15810.0 0.00038094
15830.0 0.00037696
15850.0 0.00037303
15870.0 0.00036909
15890.0 0.00036518
15910.0 0.00036132
15930.0 0.00035747
15950.0 0.00035362
15970.0 0.00034982
15990.0 0.00034607
16010.0 0.00034231
16030.0 0.00033857
16050.0 0.00033492
16070.0 0.00033127
16090.0 0.00032762
16110.0 0.00032404
16130.0 0.0003205
16150.0 0.00031693
16170.0 0.00031342
16190.0 0.00030997
16210.0 0.00030653
16230.0 0.0003031
16250.0 0.00029974
16270.0 0.00029642
16290.0 0.00029309
16310.0 0.00028981
16330.0 0.00028658
16350.0 0.00028337
16370.0 0.00028016
16390.0 0.00027703
16410.0 0.00027393
16430.0 0.00027084
16450.0 0.00026779
16470.0 0.0002648
16490.0 0.00026182
16510.0 0.00025885
16530.0 0.00025595
16550.0 0.00025308
16570.0 0.00025022
16590.0 0.00024739
16610.0 0.00024464
16630.0 0.00024189
16650.0 0.00023916
16670.0 0.0002365
16690.0 0.00023386
16710.0 0.00023122
16730.0 0.00022863
16750.0 0.00022609
16770.0 0.00022357
16790.0 0.00022106
16810.0 0.00021862
16830.0 0.00021621
16850.0 0.0002138
16870.0 0.00021144
16890.0 0.00020912
16910.0 0.00020681
16930.0 0.00020452
16950.0 0.00020229
16970.0 0.00020009
16990.0 0.0001979
17010.0 0.00019575
17030.0 0.00019364
17050.0 0.00019154
17070.0 0.00018947
17090.0 0.00018744
17110.0 0.00018544
17130.0 0.00018344
17150.0 0.00018149
17170.0 0.00017958
17190.0 0.00017768
17210.0 0.0001758
17230.0 0.00017398
17250.0 0.00017216
17270.0 0.00017035
17290.0 0.00016859
17310.0 0.00016687
17330.0 0.00016514
17350.0 0.00016344
17370.0 0.0001618
17390.0 0.00016016
17410.0 0.00015854
17430.0 0.00015695
17450.0 0.0001554
17470.0 0.00015384
17490.0 0.00015231
17510.0 0.00015083
17530.0 0.00014935
17550.0 0.00014789
17570.0 0.00014647
17590.0 0.00014507
17610.0 0.00014368
17630.0 0.00014231
17650.0 0.00014098
17670.0 0.00013965
17690.0 0.00013833
17710.0 0.00013706
17730.0 0.0001358
17750.0 0.00013455
17770.0 0.00013333
17790.0 0.00013214
17810.0 0.00013095
17830.0 0.00012978
17850.0 0.00012864
17870.0 0.00012751
17890.0 0.00012639
17910.0 0.00012529
17930.0 0.00012423
17950.0 0.00012317
17970.0 0.00012213
17990.0 0.00012111
18010.0 0.00012011
18030.0 0.00011911
18050.0 0.00011813
18070.0 0.00011718
18090.0 0.00011624
18110.0 0.0001153
18130.0 0.0001144
18150.0 0.00011351
18170.0 0.00011262
18190.0 0.00011175
18210.0 0.00011091
18230.0 0.00011006
18250.0 0.00010923
18270.0 0.00010843
18290.0 0.00010763
18310.0 0.00010684
18330.0 0.00010608
18350.0 0.00010533
18370.0 0.00010458
18390.0 0.00010385
18410.0 0.00010314
18430.0 0.00010243
18450.0 0.00010173
18470.0 0.00010105
18490.0 0.00010039
18510.0 9.9727e-05
18530.0 9.9077e-05
18550.0 9.8455e-05
18570.0 9.7832e-05
18590.0 9.7207e-05
18610.0 9.661e-05
18630.0 9.6027e-05
18650.0 9.5441e-05
18670.0 9.4864e-05
18690.0 9.4319e-05
18710.0 9.3772e-05
18730.0 9.3226e-05
18750.0 9.2703e-05
18770.0 9.2194e-05
18790.0 9.167e-05
18810.0 9.1167e-05
18830.0 9.0686e-05
18850.0 9.0205e-05
18870.0 8.9724e-05
18890.0 8.9269e-05
18910.0 8.8824e-05
18930.0 8.837e-05
18950.0 8.7932e-05
18970.0 8.7513e-05
18990.0 8.7092e-05
19010.0 8.6663e-05
19030.0 8.627e-05
19050.0 8.5881e-05
19070.0 8.5487e-05
19090.0 8.5107e-05
19110.0 8.4749e-05
19130.0 8.4378e-05
19150.0 8.4013e-05
19170.0 8.367e-05
19190.0 8.3333e-05
19210.0 8.2987e-05
19230.0 8.2656e-05
19250.0 8.2348e-05
19270.0 8.2031e-05
19290.0 8.1718e-05
19310.0 8.1427e-05
19330.0 8.1138e-05
19350.0 8.0835e-05
19370.0 8.0554e-05
19390.0 8.0288e-05
19410.0 8.0015e-05
19430.0 7.9744e-05
19450.0 7.9499e-05
19470.0 7.9253e-05
19490.0 7.8999e-05
19510.0 7.8762e-05
19530.0 7.8539e-05
19550.0 7.8302e-05
19570.0 7.8069e-05
19590.0 7.7863e-05
19610.0 7.7654e-05
19630.0 7.7439e-05
19650.0 7.7242e-05
19670.0 7.7059e-05
19690.0 7.6858e-05
19710.0 7.6667e-05
19730.0 7.6495e-05
19750.0 7.632e-05
19770.0 7.6133e-05
19790.0 7.5971e-05
19810.0 7.5819e-05
19830.0 7.5656e-05
19850.0 7.55e-05
19870.0 7.5367e-05
19890.0 7.5227e-05
19910.0 7.5087e-05
19930.0 7.4981e-05
19950.0 7.4899e-05
19970.0 7.4833e-05
19990.0 7.4807e-05
20010.0 7.484e-05
20030.0 7.491e-05
20050.0 7.5023e-05
20070.0 7.5189e-05
20090.0 7.5396e-05
20110.0 7.563e-05
20130.0 7.5899e-05
20150.0 7.6197e-05
20170.0 7.6513e-05
20190.0 7.6848e-05
20210.0 7.7201e-05
20230.0 7.7567e-05
20250.0 7.7944e-05
20270.0 7.8332e-05
20290.0 7.8729e-05
20310.0 7.9131e-05
20330.0 7.9537e-05
20350.0 7.995e-05
20370.0 8.0364e-05
20390.0 8.0779e-05
20410.0 8.1197e-05
20430.0 8.1619e-05
20450.0 8.204e-05
20470.0 8.2463e-05
20490.0 8.2895e-05
20510.0 8.3333e-05
20530.0 8.3775e-05
20550.0 8.4229e-05
20570.0 8.4699e-05
20590.0 8.5177e-05
20610.0 8.567e-05
20630.0 8.618e-05
20650.0 8.6704e-05
20670.0 8.7239e-05
20690.0 8.7791e-05
20710.0 8.8356e-05
20730.0 8.8929e-05
20750.0 8.9509e-05
20770.0 9.0098e-05
20790.0 9.0688e-05
20810.0 9.1275e-05
20830.0 9.1862e-05
20850.0 9.2446e-05
20870.0 9.3017e-05
20890.0 9.3578e-05
20910.0 9.4138e-05
20930.0 9.4685e-05
20950.0 9.5216e-05
20970.0 9.5746e-05
20990.0 9.6273e-05
21010.0 9.6779e-05
21030.0 9.7284e-05
21050.0 9.7797e-05
21070.0 9.8302e-05
21090.0 9.8797e-05
21110.0 9.9311e-05
21130.0 9.9831e-05
21150.0 0.00010034
21170.0 0.00010086
21190.0 0.0001014
21210.0 0.00010193
21230.0 0.00010245
21250.0 0.00010299
21270.0 0.00010353
21290.0 0.00010405
21310.0 0.00010457
21330.0 0.00010511
21350.0 0.00010562
21370.0 0.00010612
21390.0 0.00010662
21410.0 0.00010712
21430.0 0.00010757
21450.0 0.00010803
21470.0 0.0001085
21490.0 0.00010894
21510.0 0.00010936
21530.0 0.00010979
21550.0 0.00011022
21570.0 0.00011061
21590.0 0.00011101
21610.0 0.00011142
21630.0 0.0001118
21650.0 0.00011215
21670.0 0.00011255
21690.0 0.00011293
21710.0 0.00011329
21730.0 0.00011366
21750.0 0.00011405
21770.0 0.00011439
21790.0 0.00011473
21810.0 0.0001151
21830.0 0.00011546
21850.0 0.00011578
21870.0 0.00011613
21890.0 0.0001165
21910.0 0.00011684
21930.0 0.00011718
21950.0 0.00011756
21970.0 0.00011793
21990.0 0.00011827
22010.0 0.00011867
22030.0 0.00011909
22050.0 0.00011951
22070.0 0.00011994
22090.0 0.00012044
22110.0 0.00012095
22130.0 0.00012146
22150.0 0.00012203
22170.0 0.00012264
22190.0 0.00012324
22210.0 0.00012388
22230.0 0.0001246
22250.0 0.00012532
22270.0 0.00012605
22290.0 0.00012684
22310.0 0.00012766
22330.0 0.00012846
22350.0 0.0001293
22370.0 0.00013018
22390.0 0.00013106
22410.0 0.00013193
22430.0 0.00013285
22450.0 0.00013379
22470.0 0.00013471
22490.0 0.00013566
22510.0 0.00013664
22530.0 0.00013762
22550.0 0.00013859
22570.0 0.00013961
22590.0 0.00014065
22610.0 0.00014169
22630.0 0.00014275
22650.0 0.00014387
22670.0 0.00014498
22690.0 0.00014611
22710.0 0.00014728
22730.0 0.00014848
22750.0 0.00014968
22770.0 0.00015092
22790.0 0.00015222
22810.0 0.00015353
22830.0 0.00015487
22850.0 0.00015627
22870.0 0.00015771
22890.0 0.00015917
22910.0 0.00016071
22930.0 0.0001623
22950.0 0.00016394
22970.0 0.00016564
22990.0 0.00016743
23010.0 0.00016928
23030.0 0.0001712
23050.0 0.00017321
23070.0 0.00017531
23090.0 0.00017748
23110.0 0.00017975
23130.0 0.00018211
23150.0 0.00018456
23170.0 0.00018712
23190.0 0.00018976
23210.0 0.00019249
23230.0 0.00019533
23250.0 0.00019827
23270.0 0.00020127
23290.0 0.00020436
23310.0 0.00020756
23330.0 0.00021079
23350.0 0.00021408
23370.0 0.00021744
23390.0 0.00022084
23410.0 0.00022425
23430.0 0.0002277
