#lamb flux
1010.0 8.7895e-07
1030.0 9.9013e-07
1050.0 1.118e-06
1070.0 1.262e-06
1090.0 1.4255e-06
1110.0 1.5932e-06
1130.0 1.762e-06
1150.0 1.9388e-06
1170.0 2.1212e-06
1190.0 2.2941e-06
1210.0 2.4694e-06
1230.0 2.6505e-06
1250.0 2.828e-06
1270.0 3.0003e-06
1290.0 3.1824e-06
1310.0 3.3644e-06
1330.0 3.5389e-06
1350.0 3.7154e-06
1370.0 3.8975e-06
1390.0 4.0752e-06
1410.0 4.2475e-06
1430.0 4.4276e-06
1450.0 4.6077e-06
1470.0 4.7817e-06
1490.0 4.9576e-06
1510.0 5.1434e-06
1530.0 5.3193e-06
1550.0 5.4928e-06
1570.0 5.6722e-06
1590.0 5.8518e-06
1610.0 6.0232e-06
1630.0 6.1998e-06
1650.0 6.3809e-06
1670.0 6.5559e-06
1690.0 6.7284e-06
1710.0 6.9074e-06
1730.0 7.0871e-06
1750.0 7.2556e-06
1770.0 7.4288e-06
1790.0 7.605e-06
1810.0 7.7749e-06
1830.0 7.9411e-06
1850.0 8.1171e-06
1870.0 8.2874e-06
1890.0 8.4509e-06
1910.0 8.6166e-06
1930.0 8.7853e-06
1950.0 8.9444e-06
1970.0 9.0998e-06
1990.0 9.2597e-06
2010.0 9.4146e-06
2030.0 9.5611e-06
2050.0 9.7101e-06
2070.0 9.8606e-06
2090.0 9.9979e-06
2110.0 1.0131e-05
2130.0 1.0266e-05
2150.0 1.0394e-05
2170.0 1.051e-05
2190.0 1.0627e-05
2210.0 1.0741e-05
2230.0 1.0843e-05
2250.0 1.0938e-05
2270.0 1.1035e-05
2290.0 1.112e-05
2310.0 1.1193e-05
2330.0 1.1263e-05
2350.0 1.1329e-05
2370.0 1.1383e-05
2390.0 1.1434e-05
2410.0 1.149e-05
2430.0 1.1544e-05
2450.0 1.1599e-05
2470.0 1.1673e-05
2490.0 1.1771e-05
2510.0 1.1885e-05
2530.0 1.2053e-05
2550.0 1.2329e-05
2570.0 1.2763e-05
2590.0 1.3428e-05
2610.0 1.4534e-05
2630.0 1.6138e-05
2650.0 1.8164e-05
2670.0 2.0646e-05
2690.0 2.3489e-05
2710.0 2.6265e-05
2730.0 2.875e-05
2750.0 3.0962e-05
2770.0 3.2639e-05
2790.0 3.3742e-05
2810.0 3.4435e-05
2830.0 3.4826e-05
2850.0 3.4915e-05
2870.0 3.4853e-05
2890.0 3.472e-05
2910.0 3.4533e-05
2930.0 3.4304e-05
2950.0 3.4082e-05
2970.0 3.3867e-05
2990.0 3.3643e-05
3010.0 0.00078618
3030.0 0.00078093
3050.0 0.00077575
3070.0 0.00077002
3090.0 0.00076404
3110.0 0.00075701
3130.0 0.00074803
3150.0 0.00073664
3170.0 0.00072189
3190.0 0.00070414
3210.0 0.00068477
3230.0 0.00066507
3250.0 0.0006477
3270.0 0.00063573
3290.0 0.00063064
3310.0 0.00063357
3330.0 0.00064479
3350.0 0.00066267
3370.0 0.00068756
3390.0 0.00071863
3410.0 0.00075239
3430.0 0.00079043
3450.0 0.00083422
3470.0 0.00088191
3490.0 0.00093228
3510.0 0.00098883
3530.0 0.0010493
3550.0 0.0011108
3570.0 0.001176
3590.0 0.0012489
3610.0 0.0013259
3630.0 0.0014063
3650.0 0.0014908
3670.0 0.0015698
3690.0 0.0016313
3710.0 0.001668
3730.0 0.0016694
3750.0 0.0016346
3770.0 0.0015308
3790.0 0.0013984
3810.0 0.0012598
3830.0 0.001116
3850.0 0.00093307
3870.0 0.00066729
3890.0 0.0009662
3910.0 0.0015332
3930.0 0.0018733
3950.0 0.0018567
3970.0 0.0019632
3990.0 0.0021944
4010.0 0.0029199
4030.0 0.0028901
4050.0 0.0025463
4070.0 0.0023575
4090.0 0.0022417
4110.0 0.0026534
4130.0 0.0028528
4150.0 0.0029341
4170.0 0.0028532
4190.0 0.0028448
4210.0 0.0028553
4230.0 0.0032372
4250.0 0.0035723
4270.0 0.0036676
4290.0 0.003654
4310.0 0.0036679
4330.0 0.003996
4350.0 0.0047003
4370.0 0.0053871
4390.0 0.0049671
4410.0 0.0038823
4430.0 0.0032103
4450.0 0.0027722
4470.0 0.0026279
4490.0 0.0029905
4510.0 0.0035994
4530.0 0.0040468
4550.0 0.0045704
4570.0 0.0052118
4590.0 0.0062217
4610.0 0.0084401
4630.0 0.010513
4650.0 0.010636
4670.0 0.010066
4690.0 0.010724
4710.0 0.011392
4730.0 0.0095773
4750.0 0.0066825
4770.0 0.0053528
4790.0 0.0052886
4810.0 0.0049777
4830.0 0.0047148
4850.0 0.0053545
4870.0 0.0069745
4890.0 0.0080888
4910.0 0.0067321
4930.0 0.0059809
4950.0 0.0067022
4970.0 0.0090232
4990.0 0.011845
5010.0 0.012818
5030.0 0.010528
5050.0 0.0066549
5070.0 0.0045785
5090.0 0.0040027
5110.0 0.0041387
5130.0 0.0045043
5150.0 0.0046785
5170.0 0.0046452
5190.0 0.0045054
5210.0 0.0044056
5230.0 0.0046286
5250.0 0.0050063
5270.0 0.0055734
5290.0 0.0063941
5310.0 0.0072453
5330.0 0.0074477
5350.0 0.0074475
5370.0 0.0081357
5390.0 0.0090263
5410.0 0.0086266
5430.0 0.0072832
5450.0 0.0067366
5470.0 0.0075664
5490.0 0.0097057
5510.0 0.012402
5530.0 0.013912
5550.0 0.013312
5570.0 0.011995
5590.0 0.010546
5610.0 0.0098581
5630.0 0.0095578
5650.0 0.0096469
5670.0 0.0093394
5690.0 0.0084773
5710.0 0.0081201
5730.0 0.0074809
5750.0 0.0050863
5770.0 0.004328
5790.0 0.0049327
5810.0 0.0059166
5830.0 0.0069876
5850.0 0.0078775
5870.0 0.0081585
5890.0 0.0078662
5910.0 0.0075322
5930.0 0.0075101
5950.0 0.007847
5970.0 0.0085971
5990.0 0.0079903
6010.0 0.006629
6030.0 0.0054888
6050.0 0.0047618
6070.0 0.0048425
6090.0 0.0054845
6110.0 0.0059967
6130.0 0.0057381
6150.0 0.005155
6170.0 0.0054213
6190.0 0.006568
6210.0 0.0082638
6230.0 0.0098688
6250.0 0.0099881
6270.0 0.0087493
6290.0 0.0072691
6310.0 0.0057391
6330.0 0.0045021
6350.0 0.0040694
6370.0 0.0043677
6390.0 0.0052018
6410.0 0.006103
6430.0 0.007119
6450.0 0.0083537
6470.0 0.0099927
6490.0 0.01231
6510.0 0.013699
6530.0 0.012845
6550.0 0.011765
6570.0 0.011153
6590.0 0.01074
6610.0 0.0094487
6630.0 0.0086502
6650.0 0.007973
6670.0 0.0081226
6690.0 0.007836
6710.0 0.0070249
6730.0 0.006042
6750.0 0.0055494
6770.0 0.0056204
6790.0 0.0064071
6810.0 0.0062733
6830.0 0.0064483
6850.0 0.0062256
6870.0 0.0059484
6890.0 0.0057375
6910.0 0.0056497
6930.0 0.0052863
6950.0 0.0054951
6970.0 0.0055546
6990.0 0.0062078
7010.0 0.0065814
7030.0 0.0061656
7050.0 0.0057387
7070.0 0.0055332
7090.0 0.0051791
7110.0 0.0049115
7130.0 0.0050865
7150.0 0.0054278
7170.0 0.005814
7190.0 0.0058949
7210.0 0.0057187
7230.0 0.0058983
7250.0 0.0067042
7270.0 0.0077974
7290.0 0.0086072
7310.0 0.0084913
7330.0 0.0075758
7350.0 0.0067706
7370.0 0.0062764
7390.0 0.0063567
7410.0 0.0068022
7430.0 0.0074577
7450.0 0.0080665
7470.0 0.0086698
7490.0 0.0094142
7510.0 0.0099459
7530.0 0.0092817
7550.0 0.0078168
7570.0 0.0061463
7590.0 0.0045276
7610.0 0.0040214
7630.0 0.0043525
7650.0 0.005042
7670.0 0.005851
7690.0 0.0066368
7710.0 0.0070894
7730.0 0.0072857
7750.0 0.007615
7770.0 0.0075902
7790.0 0.0073085
7810.0 0.0072889
7830.0 0.0071524
7850.0 0.0065333
7870.0 0.0059386
7890.0 0.0053315
7910.0 0.0045506
7930.0 0.0039745
7950.0 0.0036034
7970.0 0.0035065
7990.0 0.0036006
8010.0 0.0037964
8030.0 0.0038049
8050.0 0.0038333
8070.0 0.0037716
8090.0 0.0038643
8110.0 0.0036458
8130.0 0.0031914
8150.0 0.0029989
8170.0 0.0027644
8190.0 0.0027366
8210.0 0.0029344
8230.0 0.0031398
8250.0 0.0029103
8270.0 0.0025948
8290.0 0.0021323
8310.0 0.0014699
8330.0 0.0009542
8350.0 0.00069516
8370.0 0.00073902
8390.0 0.00087538
8410.0 0.0011122
8430.0 0.0013593
8450.0 0.0015011
8470.0 0.0016658
8490.0 0.0016379
8510.0 0.0016466
8530.0 0.0017201
8550.0 0.0020827
8570.0 0.0025661
8590.0 0.0029327
8610.0 0.0035454
8630.0 0.0041106
8650.0 0.0043259
8670.0 0.0043986
8690.0 0.0043731
8710.0 0.00409
8730.0 0.0039266
8750.0 0.0036344
8770.0 0.0034905
8790.0 0.0034636
8810.0 0.0033025
8830.0 0.0027786
8850.0 0.0022901
8870.0 0.0019102
8890.0 0.0018675
8910.0 0.0020174
8930.0 0.0021415
8950.0 0.0024038
8970.0 0.0024421
8990.0 0.0024046
9010.0 0.0023126
9030.0 0.0022883
9050.0 0.0023107
9070.0 0.0023286
9090.0 0.0023419
9110.0 0.002354
9130.0 0.0023646
9150.0 0.0023746
9170.0 0.0023853
9190.0 0.0023965
9210.0 0.0024087
9230.0 0.0024212
9250.0 0.0024345
9270.0 0.0024484
9290.0 0.0024628
9310.0 0.002478
9330.0 0.0024938
9350.0 0.00251
9370.0 0.0025269
9390.0 0.0025444
9410.0 0.0025625
9430.0 0.0025809
9450.0 0.0026002
9470.0 0.0026199
9490.0 0.0026401
9510.0 0.0026609
9530.0 0.0026823
9550.0 0.002704
9570.0 0.0027263
9590.0 0.0027491
9610.0 0.0027725
9630.0 0.0027961
9650.0 0.0028203
9670.0 0.0028451
9690.0 0.0028701
9710.0 0.0028956
9730.0 0.0029216
9750.0 0.0029479
9770.0 0.0029744
9790.0 0.0030014
9810.0 0.0030289
9830.0 0.0030565
9850.0 0.0030844
9870.0 0.0031129
9890.0 0.0031414
9910.0 0.0031701
9930.0 0.0031992
9950.0 0.0032285
9970.0 0.0032578
9990.0 0.0032873
10010.0 0.0031656
10030.0 0.0031935
10050.0 0.0032212
10070.0 0.003249
10090.0 0.0032772
10110.0 0.0033052
10130.0 0.0033332
10150.0 0.0033614
10170.0 0.0033893
10190.0 0.003417
10210.0 0.0034448
10230.0 0.0034726
10250.0 0.0035
10270.0 0.0035273
10290.0 0.0035546
10310.0 0.0035814
10330.0 0.0036078
10350.0 0.0036342
10370.0 0.0036603
10390.0 0.0036859
10410.0 0.0037112
10430.0 0.0037364
10450.0 0.0037609
10470.0 0.0037849
10490.0 0.0038087
10510.0 0.0038321
10530.0 0.0038545
10550.0 0.0038766
10570.0 0.0038985
10590.0 0.0039195
10610.0 0.0039399
10630.0 0.0039599
10650.0 0.0039793
10670.0 0.0039977
10690.0 0.0040157
10710.0 0.0040331
10730.0 0.0040496
10750.0 0.0040652
10770.0 0.0040805
10790.0 0.004095
10810.0 0.0041083
10830.0 0.004121
10850.0 0.0041328
10870.0 0.0041425
10890.0 0.0041498
10910.0 0.0041539
10930.0 0.0041524
10950.0 0.0041419
10970.0 0.0041209
10990.0 0.0040884
11010.0 0.0039706
11030.0 0.0039068
11050.0 0.003831
11070.0 0.0037412
11090.0 0.0036334
11110.0 0.0035222
11130.0 0.0034062
11150.0 0.0032813
11170.0 0.0031533
11190.0 0.0030304
11210.0 0.0029049
11230.0 0.0027783
11250.0 0.0026599
11270.0 0.0025486
11290.0 0.0024395
11310.0 0.0023388
11330.0 0.0022521
11350.0 0.0021717
11370.0 0.0020985
11390.0 0.0020357
11410.0 0.0019806
11430.0 0.0019286
11450.0 0.0018822
11470.0 0.00184
11490.0 0.0017983
11510.0 0.0017553
11530.0 0.0017129
11550.0 0.0016688
11570.0 0.0016205
11590.0 0.0015696
11610.0 0.0015179
11630.0 0.001462
11650.0 0.001403
11670.0 0.0013459
11690.0 0.0012891
11710.0 0.0012317
11730.0 0.0011772
11750.0 0.0011276
11770.0 0.0010798
11790.0 0.0010356
11810.0 0.00099701
11830.0 0.00096269
11850.0 0.00093107
11870.0 0.00090422
11890.0 0.00088127
11910.0 0.00086026
11930.0 0.00084107
11950.0 0.00082376
11970.0 0.00080698
11990.0 0.00078974
12010.0 0.00077258
12030.0 0.00075517
12050.0 0.0007366
12070.0 0.00071697
12090.0 0.00069788
12110.0 0.00067842
12130.0 0.00065877
12150.0 0.0006403
12170.0 0.00062355
12190.0 0.00060792
12210.0 0.00059497
12230.0 0.00058527
12250.0 0.00057871
12270.0 0.00057576
12290.0 0.00057661
12310.0 0.00058087
12330.0 0.00058908
12350.0 0.00060077
12370.0 0.0006149
12390.0 0.00063178
12410.0 0.00065199
12430.0 0.00067244
12450.0 0.00069344
12470.0 0.00071552
12490.0 0.00073719
12510.0 0.00075682
12530.0 0.00077572
12550.0 0.00079318
12570.0 0.00080758
12590.0 0.00081922
12610.0 0.00082858
12630.0 0.00083473
12650.0 0.00083734
12670.0 0.00083726
12690.0 0.00083427
12710.0 0.00082853
12730.0 0.00082045
12750.0 0.00080982
12770.0 0.00079727
12790.0 0.0007833
12810.0 0.00076769
12830.0 0.00075049
12850.0 0.0007329
12870.0 0.00071462
12890.0 0.00069512
12910.0 0.00067528
12930.0 0.00065555
12950.0 0.00063482
12970.0 0.00061341
12990.0 0.00059267
13010.0 0.00057178
13030.0 0.00055027
13050.0 0.00052914
13070.0 0.00050893
13090.0 0.00048838
13110.0 0.00046824
13130.0 0.00044945
13150.0 0.00043157
13170.0 0.0004141
13190.0 0.00039857
13210.0 0.00038499
13230.0 0.00037276
13250.0 0.00036243
13270.0 0.00035443
13290.0 0.0003484
13310.0 0.00034446
13330.0 0.00034283
13350.0 0.00034324
13370.0 0.00034574
13390.0 0.00035029
13410.0 0.0003561
13430.0 0.00036338
13450.0 0.00037206
13470.0 0.00038135
13490.0 0.00039084
13510.0 0.00040127
13530.0 0.0004115
13550.0 0.00042096
13570.0 0.00043002
13590.0 0.0004386
13610.0 0.00044594
13630.0 0.00045205
13650.0 0.00045739
13670.0 0.00046149
13690.0 0.00046427
13710.0 0.000466
13730.0 0.0004667
13750.0 0.00046622
13770.0 0.00046481
13790.0 0.00046251
13810.0 0.00045939
13830.0 0.00045565
13850.0 0.00045119
13870.0 0.00044605
13890.0 0.00044052
13910.0 0.00043458
13930.0 0.00042803
13950.0 0.00042114
13970.0 0.00041429
13990.0 0.00040706
14010.0 0.00039959
14030.0 0.00039232
14050.0 0.00038515
14070.0 0.00037779
14090.0 0.0003709
14110.0 0.00036456
14130.0 0.00035857
14150.0 0.00035309
14170.0 0.00034854
14190.0 0.00034474
14210.0 0.00034169
14230.0 0.00033961
14250.0 0.00033847
14270.0 0.00033826
14290.0 0.00033906
14310.0 0.0003407
14330.0 0.00034318
14350.0 0.00034656
14370.0 0.00035057
14390.0 0.000355
14410.0 0.00036015
14430.0 0.00036576
14450.0 0.00037148
14470.0 0.00037746
14490.0 0.00038397
14510.0 0.00039041
14530.0 0.00039681
14550.0 0.00040363
14570.0 0.00041073
14590.0 0.00041784
14610.0 0.00042546
14630.0 0.0004339
14650.0 0.00044268
14670.0 0.00045197
14690.0 0.00046238
14710.0 0.00047382
14730.0 0.00048544
14750.0 0.00049814
14770.0 0.00051202
14790.0 0.00052626
14810.0 0.00054073
14830.0 0.00055657
14850.0 0.00057241
14870.0 0.00058764
14890.0 0.00060282
14910.0 0.00061772
14930.0 0.00063106
14950.0 0.00064277
14970.0 0.00065322
14990.0 0.00066149
15010.0 0.00066748
15030.0 0.00067165
15050.0 0.00067414
15070.0 0.00067512
15090.0 0.00067518
15110.0 0.00067459
15130.0 0.00067361
15150.0 0.0006725
15170.0 0.00067123
15190.0 0.00066989
15210.0 0.00066861
15230.0 0.00066733
15250.0 0.000666
15270.0 0.00066468
15290.0 0.00066347
15310.0 0.0006622
15330.0 0.00066092
15350.0 0.0006597
15370.0 0.0006585
15390.0 0.0006572
15410.0 0.00065596
15430.0 0.00065478
15450.0 0.00065355
15470.0 0.00065228
15490.0 0.00065111
15510.0 0.00064993
15530.0 0.00064869
15550.0 0.00064748
15570.0 0.00064633
15590.0 0.0006451
15610.0 0.00064384
15630.0 0.00064267
15650.0 0.00064148
15670.0 0.00064024
15690.0 0.00063903
15710.0 0.00063787
15730.0 0.00063663
15750.0 0.00063539
15770.0 0.0006342
15790.0 0.00063299
15810.0 0.00063169
15830.0 0.00063045
15850.0 0.00062926
15870.0 0.00062799
15890.0 0.00062671
15910.0 0.0006255
15930.0 0.00062424
15950.0 0.00062291
15970.0 0.00062163
15990.0 0.00062037
16010.0 0.00061904
16030.0 0.00061768
16050.0 0.00061642
16070.0 0.0006151
16090.0 0.00061373
16110.0 0.00061239
16130.0 0.00061108
16150.0 0.00060965
16170.0 0.00060824
16190.0 0.00060689
16210.0 0.00060548
16230.0 0.00060402
16250.0 0.00060261
16270.0 0.00060122
16290.0 0.00059973
16310.0 0.00059825
16330.0 0.00059681
16350.0 0.00059532
16370.0 0.00059373
16390.0 0.00059224
16410.0 0.00059074
16430.0 0.00058917
16450.0 0.0005876
16470.0 0.00058609
16490.0 0.00058448
16510.0 0.00058284
16530.0 0.00058124
16550.0 0.00057964
16570.0 0.00057795
16590.0 0.00057626
16610.0 0.00057465
16630.0 0.00057296
16650.0 0.00057122
16670.0 0.00056954
16690.0 0.00056785
16710.0 0.00056604
16730.0 0.00056427
16750.0 0.00056254
16770.0 0.00056074
16790.0 0.00055889
16810.0 0.00055712
16830.0 0.00055531
16850.0 0.00055343
16870.0 0.00055158
16890.0 0.00054975
16910.0 0.00054783
16930.0 0.00054588
16950.0 0.000544
16970.0 0.00054209
16990.0 0.00054011
17010.0 0.00053817
17030.0 0.00053625
17050.0 0.00053424
17070.0 0.00053222
17090.0 0.00053025
17110.0 0.00052824
17130.0 0.00052614
17150.0 0.0005241
17170.0 0.00052209
17190.0 0.00052
17210.0 0.0005179
17230.0 0.00051586
17250.0 0.00051375
17270.0 0.00051158
17290.0 0.00050946
17310.0 0.00050736
17330.0 0.00050518
17350.0 0.00050297
17370.0 0.00050086
17390.0 0.00049869
17410.0 0.00049646
17430.0 0.00049428
17450.0 0.00049211
17470.0 0.00048983
17490.0 0.00048757
17510.0 0.00048538
17530.0 0.00048313
17550.0 0.00048083
17570.0 0.00047859
17590.0 0.00047636
17610.0 0.00047404
17630.0 0.00047174
17650.0 0.00046949
17670.0 0.00046718
17690.0 0.00046479
17710.0 0.00046251
17730.0 0.00046022
17750.0 0.00045786
17770.0 0.00045552
17790.0 0.00045324
17810.0 0.00045087
17830.0 0.00044847
17850.0 0.00044614
17870.0 0.0004438
17890.0 0.00044139
17910.0 0.000439
17930.0 0.00043668
17950.0 0.00043429
17970.0 0.00043188
17990.0 0.00042954
18010.0 0.00042718
18030.0 0.00042472
18050.0 0.00042232
18070.0 0.00041996
18090.0 0.00041755
18110.0 0.00041511
18130.0 0.00041275
18150.0 0.00041037
18170.0 0.00040793
18190.0 0.00040553
18210.0 0.00040317
18230.0 0.00040073
18250.0 0.00039827
18270.0 0.00039591
18290.0 0.00039351
18310.0 0.00039107
18330.0 0.00038868
18350.0 0.00038632
18370.0 0.00038388
18390.0 0.00038146
18410.0 0.00037909
18430.0 0.0003767
18450.0 0.00037424
18470.0 0.00037185
18490.0 0.0003695
18510.0 0.00036709
18530.0 0.00036468
18550.0 0.00036235
18570.0 0.00035996
18590.0 0.00035753
18610.0 0.00035517
18630.0 0.00035282
18650.0 0.00035042
18670.0 0.00034802
18690.0 0.00034571
18710.0 0.00034336
18730.0 0.00034097
18750.0 0.00033864
18770.0 0.00033634
18790.0 0.00033394
18810.0 0.00033158
18830.0 0.00032929
18850.0 0.00032696
18870.0 0.00032461
18890.0 0.00032232
18910.0 0.00032005
18930.0 0.0003177
18950.0 0.0003154
18970.0 0.00031314
18990.0 0.00031085
19010.0 0.0003085
19030.0 0.00030626
19050.0 0.00030402
19070.0 0.00030173
19090.0 0.00029947
19110.0 0.00029728
19130.0 0.00029501
19150.0 0.00029274
19170.0 0.00029054
19190.0 0.00028833
19210.0 0.00028608
19230.0 0.00028386
19250.0 0.00028171
19270.0 0.0002795
19290.0 0.0002773
19310.0 0.00027515
19330.0 0.000273
19350.0 0.00027078
19370.0 0.00026863
19390.0 0.00026651
19410.0 0.00026435
19430.0 0.00026219
19450.0 0.00026011
19470.0 0.000258
19490.0 0.00025586
19510.0 0.00025377
19530.0 0.00025171
19550.0 0.00024959
19570.0 0.00024747
19590.0 0.00024544
19610.0 0.00024339
19630.0 0.00024131
19650.0 0.00023928
19670.0 0.00023728
19690.0 0.00023522
19710.0 0.00023318
19730.0 0.0002312
19750.0 0.0002292
19770.0 0.00022715
19790.0 0.00022517
19810.0 0.00022323
19830.0 0.00022123
19850.0 0.00021924
19870.0 0.0002173
19890.0 0.00021527
19910.0 0.00021313
19930.0 0.00021095
19950.0 0.0002086
19970.0 0.00020593
19990.0 0.00020294
20010.0 0.00020374
20030.0 0.0002
20050.0 0.00019584
20070.0 0.00019151
20090.0 0.00018701
20110.0 0.00018211
20130.0 0.0001773
20150.0 0.00017264
20170.0 0.00016794
20190.0 0.00016328
20210.0 0.00015896
20230.0 0.00015481
20250.0 0.00015072
20270.0 0.00014696
20290.0 0.00014355
20310.0 0.00014035
20330.0 0.00013738
20350.0 0.00013492
20370.0 0.00013275
20390.0 0.00013087
20410.0 0.00012937
20430.0 0.00012823
20450.0 0.00012738
20470.0 0.00012687
20490.0 0.00012666
20510.0 0.00012673
20530.0 0.00012708
20550.0 0.00012766
20570.0 0.0001284
20590.0 0.00012937
20610.0 0.00013051
20630.0 0.00013173
20650.0 0.00013308
20670.0 0.0001346
20690.0 0.00013612
20710.0 0.00013765
20730.0 0.00013929
20750.0 0.00014097
20770.0 0.00014258
20790.0 0.00014425
20810.0 0.00014598
20830.0 0.00014767
20850.0 0.00014935
20870.0 0.00015113
20890.0 0.00015293
20910.0 0.00015465
20930.0 0.00015644
20950.0 0.00015829
20970.0 0.0001601
20990.0 0.00016189
21010.0 0.00016379
21030.0 0.00016565
21050.0 0.00016744
21070.0 0.00016924
21090.0 0.00017106
21110.0 0.00017274
21130.0 0.00017433
21150.0 0.0001759
21170.0 0.00017736
21190.0 0.00017864
21210.0 0.00017986
21230.0 0.00018096
21250.0 0.00018185
21270.0 0.00018257
21290.0 0.00018313
21310.0 0.00018347
21330.0 0.00018358
21350.0 0.00018347
21370.0 0.0001831
21390.0 0.00018248
21410.0 0.0001816
21430.0 0.00018037
21450.0 0.00017888
21470.0 0.00017715
21490.0 0.00017509
21510.0 0.00017274
21530.0 0.00017024
21550.0 0.00016751
21570.0 0.00016449
21590.0 0.0001614
21610.0 0.00015829
21630.0 0.00015504
21650.0 0.00015172
21670.0 0.00014868
21690.0 0.00014571
21710.0 0.00014283
21730.0 0.00014024
21750.0 0.00013798
21770.0 0.0001359
21790.0 0.00013418
21810.0 0.00013288
21830.0 0.00013193
21850.0 0.00013134
21870.0 0.00013116
21890.0 0.00013134
21910.0 0.00013189
21930.0 0.0001328
21950.0 0.00013399
21970.0 0.0001355
21990.0 0.00013738
22010.0 0.00013943
22030.0 0.00014166
22050.0 0.00014416
22070.0 0.00014682
22090.0 0.00014948
22110.0 0.00015229
22130.0 0.00015523
22150.0 0.00015811
22170.0 0.00016092
22190.0 0.00016383
22210.0 0.00016662
22230.0 0.00016916
22250.0 0.00017161
22270.0 0.00017392
22290.0 0.00017593
22310.0 0.00017769
22330.0 0.00017926
22350.0 0.0001805
22370.0 0.00018139
22390.0 0.00018197
22410.0 0.0001822
22430.0 0.00018206
22450.0 0.00018158
22470.0 0.00018072
22490.0 0.00017949
22510.0 0.00017796
22530.0 0.00017602
22550.0 0.00017367
22570.0 0.00017108
22590.0 0.00016819
22610.0 0.00016488
22630.0 0.00016132
22650.0 0.00015765
22670.0 0.00015361
22690.0 0.00014931
22710.0 0.00014497
22730.0 0.0001405
22750.0 0.00013565
22770.0 0.0001309
22790.0 0.00012626
22810.0 0.00012149
22830.0 0.00011672
22850.0 0.00011226
22870.0 0.00010788
22890.0 0.00010354
22910.0 9.9567e-05
22930.0 9.5948e-05
22950.0 9.2538e-05
22970.0 8.9435e-05
22990.0 8.6928e-05
23010.0 8.4777e-05
23030.0 8.3027e-05
23050.0 8.179e-05
23070.0 8.1035e-05
