#lamb flux
1010.0 2.1247e-06
1030.0 2.2142e-06
1050.0 2.3179e-06
1070.0 2.4349e-06
1090.0 2.5679e-06
1110.0 2.7049e-06
1130.0 2.8434e-06
1150.0 2.9892e-06
1170.0 3.1403e-06
1190.0 3.2846e-06
1210.0 3.4318e-06
1230.0 3.5848e-06
1250.0 3.7359e-06
1270.0 3.8841e-06
1290.0 4.0414e-06
1310.0 4.2001e-06
1330.0 4.354e-06
1350.0 4.5109e-06
1370.0 4.6742e-06
1390.0 4.8354e-06
1410.0 4.9937e-06
1430.0 5.1603e-06
1450.0 5.3287e-06
1470.0 5.4936e-06
1490.0 5.6617e-06
1510.0 5.84e-06
1530.0 6.0114e-06
1550.0 6.1822e-06
1570.0 6.3593e-06
1590.0 6.5377e-06
1610.0 6.7099e-06
1630.0 6.8874e-06
1650.0 7.0693e-06
1670.0 7.246e-06
1690.0 7.4203e-06
1710.0 7.6e-06
1730.0 7.7796e-06
1750.0 7.9481e-06
1770.0 8.1193e-06
1790.0 8.2916e-06
1810.0 8.4562e-06
1830.0 8.6153e-06
1850.0 8.7807e-06
1870.0 8.9385e-06
1890.0 9.0873e-06
1910.0 9.2353e-06
1930.0 9.3832e-06
1950.0 9.5198e-06
1970.0 9.6507e-06
1990.0 9.7836e-06
2010.0 9.9103e-06
2030.0 1.0028e-05
2050.0 1.0148e-05
2070.0 1.0269e-05
2090.0 1.038e-05
2110.0 1.0489e-05
2130.0 1.0602e-05
2150.0 1.0713e-05
2170.0 1.0819e-05
2190.0 1.0933e-05
2210.0 1.1052e-05
2230.0 1.1169e-05
2250.0 1.1292e-05
2270.0 1.1428e-05
2290.0 1.1567e-05
2310.0 1.171e-05
2330.0 1.1867e-05
2350.0 1.2038e-05
2370.0 1.2215e-05
2390.0 1.2408e-05
2410.0 1.2624e-05
2430.0 1.2851e-05
2450.0 1.309e-05
2470.0 1.3347e-05
2490.0 1.3619e-05
2510.0 1.3896e-05
2530.0 1.4202e-05
2550.0 1.4574e-05
2570.0 1.5069e-05
2590.0 1.5766e-05
2610.0 1.6843e-05
2630.0 1.8406e-05
2650.0 2.0452e-05
2670.0 2.3061e-05
2690.0 2.6228e-05
2710.0 2.9653e-05
2730.0 3.3163e-05
2750.0 3.682e-05
2770.0 4.0381e-05
2790.0 4.3747e-05
2810.0 4.7074e-05
2830.0 5.0502e-05
2850.0 5.3857e-05
2870.0 5.7302e-05
2890.0 6.0973e-05
2910.0 6.4806e-05
2930.0 6.8703e-05
2950.0 7.2854e-05
2970.0 7.7232e-05
2990.0 8.168e-05
3010.0 0.00014679
3030.0 0.00015493
3050.0 0.00016313
3070.0 0.00017079
3090.0 0.00017774
3110.0 0.00018268
3130.0 0.00018401
3150.0 0.00017998
3170.0 0.00016705
3190.0 0.00014453
3210.0 0.00011254
3230.0 7.5926e-05
3250.0 0.00011026
3270.0 5.5718e-05
3290.0 0.00013984
3310.0 3.8943e-05
3330.0 4.1008e-05
3350.0 5.6345e-05
3370.0 7.3518e-05
3390.0 9.1583e-05
3410.0 0.00010956
3430.0 0.00012826
3450.0 0.00014687
3470.0 0.00016402
3490.0 0.00017539
3510.0 0.00021229
3530.0 0.00028301
3550.0 0.00029187
3570.0 0.00026524
3590.0 0.00036757
3610.0 0.00026466
3630.0 0.0003825
3650.0 0.00041965
3670.0 0.00052264
3690.0 0.00051398
3710.0 0.00040454
3730.0 0.0005216
3750.0 0.00054323
3770.0 0.00055529
3790.0 0.00050539
3810.0 0.00043768
3830.0 0.00054437
3850.0 0.000554
3870.0 0.00067511
3890.0 0.00065307
3910.0 0.00062507
3930.0 0.0006939
3950.0 0.00077955
3970.0 0.0010103
3990.0 0.00087522
4010.0 0.00064818
4030.0 0.00079273
4050.0 0.00081672
4070.0 0.00090279
4090.0 0.00082672
4110.0 0.00061374
4130.0 0.00075648
4150.0 0.00069542
4170.0 0.000737
4190.0 0.00073735
4210.0 0.0008772
4230.0 0.00065495
4250.0 0.00077091
4270.0 0.00077035
4290.0 0.0007823
4310.0 0.00092145
4330.0 0.00094767
4350.0 0.00077697
4370.0 0.00069845
4390.0 0.00079464
4410.0 0.00078318
4430.0 0.00061868
4450.0 0.00061646
4470.0 0.00069298
4490.0 0.00054994
4510.0 0.00064869
4530.0 0.00070609
4550.0 0.00092916
4570.0 0.0013319
4590.0 0.0013547
4610.0 0.0010235
4630.0 0.0014769
4650.0 0.0019968
4670.0 0.0018756
4690.0 0.0012295
4710.0 0.001273
4730.0 0.0015206
4750.0 0.0013468
4770.0 0.0010419
4790.0 0.00076733
4810.0 0.001042
4830.0 0.0011895
4850.0 0.0011204
4870.0 0.00056257
4890.0 0.0012035
4910.0 0.0015742
4930.0 0.0016903
4950.0 0.0017222
4970.0 0.0012473
4990.0 0.0013915
5010.0 0.0015131
5030.0 0.0015437
5050.0 0.0014702
5070.0 0.0010856
5090.0 0.00090978
5110.0 0.00085744
5130.0 0.00077795
5150.0 0.00087931
5170.0 0.00078416
5190.0 0.00093843
5210.0 0.00094047
5230.0 0.0010257
5250.0 0.0012896
5270.0 0.0011645
5290.0 0.001171
5310.0 0.0016047
5330.0 0.0018362
5350.0 0.0016288
5370.0 0.0014751
5390.0 0.0016083
5410.0 0.001916
5430.0 0.0020851
5450.0 0.0022631
5470.0 0.0023615
5490.0 0.0023993
5510.0 0.0027715
5530.0 0.0028738
5550.0 0.0030288
5570.0 0.0031596
5590.0 0.0031308
5610.0 0.0030066
5630.0 0.0029312
5650.0 0.0029809
5670.0 0.0029604
5690.0 0.0025913
5710.0 0.0024565
5730.0 0.0024236
5750.0 0.0025771
5770.0 0.0022853
5790.0 0.0021427
5810.0 0.0021964
5830.0 0.0023
5850.0 0.0021376
5870.0 0.0021286
5890.0 0.0024345
5910.0 0.0023435
5930.0 0.0020084
5950.0 0.0017968
5970.0 0.0018719
5990.0 0.0017182
6010.0 0.0015979
6030.0 0.0016041
6050.0 0.0015171
6070.0 0.0012122
6090.0 0.0011147
6110.0 0.0013562
6130.0 0.0015228
6150.0 0.0016073
6170.0 0.0016105
6190.0 0.0015727
6210.0 0.0015606
6230.0 0.0017371
6250.0 0.0016046
6270.0 0.0014581
6290.0 0.0013206
6310.0 0.001233
6330.0 0.0011687
6350.0 0.0010446
6370.0 0.001049
6390.0 0.0012301
6410.0 0.0015097
6430.0 0.0017425
6450.0 0.0017056
6470.0 0.0017168
6490.0 0.0020621
6510.0 0.0022998
6530.0 0.0022007
6550.0 0.0021426
6570.0 0.0021731
6590.0 0.0021109
6610.0 0.0022589
6630.0 0.0021493
6650.0 0.0019504
6670.0 0.0017747
6690.0 0.0016904
6710.0 0.001959
6730.0 0.0018179
6750.0 0.001625
6770.0 0.0015136
6790.0 0.0015794
6810.0 0.0017047
6830.0 0.0016631
6850.0 0.0015362
6870.0 0.0015608
6890.0 0.0015197
6910.0 0.0014386
6930.0 0.0016112
6950.0 0.0015245
6970.0 0.0014674
6990.0 0.0014816
7010.0 0.0014248
7030.0 0.0013375
7050.0 0.0012661
7070.0 0.0013068
7090.0 0.0012225
7110.0 0.0010795
7130.0 0.00090504
7150.0 0.00082985
7170.0 0.00104
7190.0 0.001121
7210.0 0.0011069
7230.0 0.0011678
7250.0 0.0011224
7270.0 0.0010882
7290.0 0.0011701
7310.0 0.0012578
7330.0 0.0012227
7350.0 0.0011561
7370.0 0.0011222
7390.0 0.0011822
7410.0 0.0013631
7430.0 0.0014929
7450.0 0.001611
7470.0 0.0016182
7490.0 0.0016524
7510.0 0.0015791
7530.0 0.0015612
7550.0 0.0015029
7570.0 0.0013157
7590.0 0.0012881
7610.0 0.001259
7630.0 0.0012076
7650.0 0.0013365
7670.0 0.0014627
7690.0 0.0015887
7710.0 0.0017513
7730.0 0.0018637
7750.0 0.0019467
7770.0 0.0019459
7790.0 0.0020951
7810.0 0.0021601
7830.0 0.0020357
7850.0 0.0020462
7870.0 0.0019502
7890.0 0.0020029
7910.0 0.0018955
7930.0 0.0018952
7950.0 0.0017194
7970.0 0.0017577
7990.0 0.0016954
8010.0 0.001673
8030.0 0.0016671
8050.0 0.0017364
8070.0 0.0016824
8090.0 0.0016841
8110.0 0.001634
8130.0 0.0016295
8150.0 0.0015654
8170.0 0.0015199
8190.0 0.0014988
8210.0 0.0015083
8230.0 0.0013589
8250.0 0.0012483
8270.0 0.0010913
8290.0 0.00089832
8310.0 0.0007492
8330.0 0.00059288
8350.0 0.00050408
8370.0 0.00053006
8390.0 0.00055871
8410.0 0.00060018
8430.0 0.00071465
8450.0 0.00076059
8470.0 0.00079961
8490.0 0.00090613
8510.0 0.00099044
8530.0 0.001143
8550.0 0.0013494
8570.0 0.001513
8590.0 0.0016347
8610.0 0.0017765
8630.0 0.0019285
8650.0 0.0019546
8670.0 0.0019684
8690.0 0.0020381
8710.0 0.0020265
8730.0 0.0020201
8750.0 0.0019293
8770.0 0.0019286
8790.0 0.0018992
8810.0 0.0017561
8830.0 0.0017419
8850.0 0.0016401
8870.0 0.0015748
8890.0 0.0014572
8910.0 0.0015386
8930.0 0.0014188
8950.0 0.0013862
8970.0 0.001381
8990.0 0.0013367
9010.0 0.0013476
9030.0 0.0012992
9050.0 0.0012919
9070.0 0.0012897
9090.0 0.0012873
9110.0 0.0012853
9130.0 0.0012826
9150.0 0.0012795
9170.0 0.0012737
9190.0 0.0012636
9210.0 0.0012757
9230.0 0.0012689
9250.0 0.0012638
9270.0 0.001259
9290.0 0.0012543
9310.0 0.0012497
9330.0 0.0012452
9350.0 0.0012405
9370.0 0.0012358
9390.0 0.001231
9410.0 0.0012261
9430.0 0.001221
9450.0 0.0012158
9470.0 0.0012105
9490.0 0.0012054
9510.0 0.0012001
9530.0 0.0011947
9550.0 0.0011892
9570.0 0.0011837
9590.0 0.0011781
9610.0 0.0011725
9630.0 0.0011668
9650.0 0.0011611
9670.0 0.0011554
9690.0 0.0011496
9710.0 0.0011439
9730.0 0.0011381
9750.0 0.0011323
9770.0 0.0011265
9790.0 0.0011207
9810.0 0.0011149
9830.0 0.0011091
9850.0 0.0011034
9870.0 0.0010977
9890.0 0.001092
9910.0 0.0010863
9930.0 0.0010806
9950.0 0.001071
9970.0 0.0010666
9990.0 0.001062
10010.0 0.0010573
10030.0 0.0010524
10050.0 0.001047
10070.0 0.0010409
10090.0 0.0010361
10110.0 0.0010311
10130.0 0.0010262
10150.0 0.0010212
10170.0 0.0010162
10190.0 0.0010111
10210.0 0.0010062
10230.0 0.0010014
10250.0 0.00099651
10270.0 0.00099171
10290.0 0.00098715
10310.0 0.0009825
10330.0 0.00097777
10350.0 0.00097333
10370.0 0.00096897
10390.0 0.00096452
10410.0 0.00096017
10430.0 0.0009561
10450.0 0.00095192
10470.0 0.00094774
10490.0 0.00094377
10510.0 0.0009399
10530.0 0.00093584
10550.0 0.00093197
10570.0 0.00092833
10590.0 0.00092462
10610.0 0.0009209
10630.0 0.00091742
10650.0 0.000914
10670.0 0.00091043
10690.0 0.00090703
10710.0 0.00090381
10730.0 0.00090051
10750.0 0.00089714
10770.0 0.00089412
10790.0 0.00089109
10810.0 0.00088796
10830.0 0.00088496
10850.0 0.00088211
10870.0 0.00087894
10890.0 0.00087559
10910.0 0.00087208
10930.0 0.00086792
10950.0 0.00086254
10970.0 0.00085595
10990.0 0.0008481
11010.0 0.00081952
11030.0 0.00080845
11050.0 0.00079597
11070.0 0.00078184
11090.0 0.00076563
11110.0 0.00074957
11130.0 0.00073347
11150.0 0.00071677
11170.0 0.00070021
11190.0 0.00068479
11210.0 0.00066937
11230.0 0.00065403
11250.0 0.00063982
11270.0 0.00062648
11290.0 0.00061326
11310.0 0.00060082
11330.0 0.00058992
11350.0 0.00057947
11370.0 0.00056953
11390.0 0.00056065
11410.0 0.00055251
11430.0 0.00054434
11450.0 0.00053674
11470.0 0.00052966
11490.0 0.00052248
11510.0 0.00051497
11530.0 0.00050768
11550.0 0.0005002
11570.0 0.00049196
11590.0 0.00048337
11610.0 0.00047468
11630.0 0.00046511
11650.0 0.00045477
11670.0 0.00044459
11690.0 0.00043413
11710.0 0.00042304
11730.0 0.00041201
11750.0 0.00040155
11770.0 0.00039078
11790.0 0.00038015
11810.0 0.00037033
11830.0 0.00036097
11850.0 0.00035158
11870.0 0.00034311
11890.0 0.00033552
11910.0 0.00032819
11930.0 0.00032129
11950.0 0.00031521
11970.0 0.00030948
11990.0 0.00030382
12010.0 0.00029871
12030.0 0.00029402
12050.0 0.00028939
12070.0 0.00028486
12090.0 0.00028092
12110.0 0.00027711
12130.0 0.00027338
12150.0 0.00027004
12170.0 0.00026715
12190.0 0.00026437
12210.0 0.00026211
12230.0 0.00026052
12250.0 0.00025949
12270.0 0.00025912
12290.0 0.0002596
12310.0 0.00026091
12330.0 0.00026309
12350.0 0.0002662
12370.0 0.00027012
12390.0 0.00027487
12410.0 0.00028061
12430.0 0.00028677
12450.0 0.00029337
12470.0 0.0003005
12490.0 0.00030784
12510.0 0.00031498
12530.0 0.00032221
12550.0 0.00032934
12570.0 0.00033597
12590.0 0.00034215
12610.0 0.00034801
12630.0 0.0003533
12650.0 0.00035786
12670.0 0.00036194
12690.0 0.00036547
12710.0 0.00036838
12730.0 0.00037077
12750.0 0.00037264
12770.0 0.00037397
12790.0 0.00037485
12810.0 0.00037525
12830.0 0.00037514
12850.0 0.0003747
12870.0 0.00037389
12890.0 0.00037257
12910.0 0.00037091
12930.0 0.00036902
12950.0 0.00036663
12970.0 0.00036378
12990.0 0.00036081
13010.0 0.00035752
13030.0 0.00035374
13050.0 0.00034974
13070.0 0.00034569
13090.0 0.00034118
13110.0 0.00033643
13130.0 0.00033176
13150.0 0.00032705
13170.0 0.00032209
13190.0 0.0003175
13210.0 0.00031334
13230.0 0.00030937
13250.0 0.00030586
13270.0 0.00030307
13290.0 0.00030083
13310.0 0.00029915
13330.0 0.00029823
13350.0 0.00029793
13370.0 0.00029815
13390.0 0.00029882
13410.0 0.00029979
13430.0 0.00030089
13450.0 0.00030197
13470.0 0.00030285
13490.0 0.0003034
13510.0 0.00030345
13530.0 0.00030292
13550.0 0.00030181
13570.0 0.00030006
13590.0 0.0002976
13610.0 0.00029468
13630.0 0.00029141
13650.0 0.00028761
13670.0 0.00028359
13690.0 0.00027959
13710.0 0.00027548
13730.0 0.00027122
13750.0 0.00026736
13770.0 0.0002637
13790.0 0.00026012
13810.0 0.00025678
13830.0 0.0002538
13850.0 0.0002509
13870.0 0.00024813
13890.0 0.0002456
13910.0 0.00024321
13930.0 0.00024082
13950.0 0.00023853
13970.0 0.00023643
13990.0 0.00023433
14010.0 0.00023228
14030.0 0.00023037
14050.0 0.00022858
14070.0 0.00022682
14090.0 0.00022523
14110.0 0.00022382
14130.0 0.00022253
14150.0 0.00022139
14170.0 0.00022046
14190.0 0.00021969
14210.0 0.00021908
14230.0 0.00021864
14250.0 0.00021837
14270.0 0.00021828
14290.0 0.00021837
14310.0 0.00021859
14330.0 0.00021896
14350.0 0.0002195
14370.0 0.00022012
14390.0 0.00022079
14410.0 0.00022155
14430.0 0.00022234
14450.0 0.00022306
14470.0 0.00022374
14490.0 0.0002244
14510.0 0.00022491
14530.0 0.0002253
14550.0 0.00022562
14570.0 0.00022586
14590.0 0.000226
14610.0 0.00022615
14630.0 0.00022636
14650.0 0.00022661
14670.0 0.00022698
14690.0 0.00022758
14710.0 0.00022845
14730.0 0.00022949
14750.0 0.00023089
14770.0 0.0002327
14790.0 0.0002348
14810.0 0.00023717
14830.0 0.00024013
14850.0 0.00024338
14870.0 0.00024673
14890.0 0.00025034
14910.0 0.00025414
14930.0 0.00025766
14950.0 0.00026082
14970.0 0.00026368
14990.0 0.00026585
15010.0 0.0002672
15030.0 0.00026788
15050.0 0.0002679
15070.0 0.00026729
15090.0 0.00026628
15110.0 0.000265
15130.0 0.00026354
15150.0 0.000262
15170.0 0.0002604
15190.0 0.00025877
15210.0 0.00025714
15230.0 0.00025552
15250.0 0.00025387
15270.0 0.00025223
15290.0 0.00025061
15310.0 0.00024898
15330.0 0.00024734
15350.0 0.00024572
15370.0 0.0002441
15390.0 0.00024246
15410.0 0.00024084
15430.0 0.00023923
15450.0 0.00023762
15470.0 0.000236
15490.0 0.00023441
15510.0 0.00023281
15530.0 0.00023122
15550.0 0.00022963
15570.0 0.00022805
15590.0 0.00022647
15610.0 0.00022489
15630.0 0.00022334
15650.0 0.00022178
15670.0 0.00022023
15690.0 0.00021869
15710.0 0.00021716
15730.0 0.00021563
15750.0 0.00021411
15770.0 0.0002126
15790.0 0.0002111
15810.0 0.0002096
15830.0 0.00020811
15850.0 0.00020664
15870.0 0.00020517
15890.0 0.00020371
15910.0 0.00020227
15930.0 0.00020083
15950.0 0.00019939
15970.0 0.00019797
15990.0 0.00019657
16010.0 0.00019516
16030.0 0.00019377
16050.0 0.00019239
16070.0 0.00019103
16090.0 0.00018966
16110.0 0.00018831
16130.0 0.00018698
16150.0 0.00018564
16170.0 0.00018432
16190.0 0.00018302
16210.0 0.00018172
16230.0 0.00018043
16250.0 0.00017916
16270.0 0.0001779
16290.0 0.00017664
16310.0 0.0001754
16330.0 0.00017417
16350.0 0.00017295
16370.0 0.00017173
16390.0 0.00017053
16410.0 0.00016935
16430.0 0.00016817
16450.0 0.000167
16470.0 0.00016586
16490.0 0.00016471
16510.0 0.00016357
16530.0 0.00016245
16550.0 0.00016134
16570.0 0.00016023
16590.0 0.00015914
16610.0 0.00015807
16630.0 0.000157
16650.0 0.00015594
16670.0 0.0001549
16690.0 0.00015386
16710.0 0.00015283
16730.0 0.00015181
16750.0 0.00015081
16770.0 0.00014982
16790.0 0.00014883
16810.0 0.00014786
16830.0 0.0001469
16850.0 0.00014594
16870.0 0.000145
16890.0 0.00014407
16910.0 0.00014315
16930.0 0.00014223
16950.0 0.00014133
16970.0 0.00014044
16990.0 0.00013955
17010.0 0.00013868
17030.0 0.00013782
17050.0 0.00013696
17070.0 0.00013612
17090.0 0.00013529
17110.0 0.00013446
17130.0 0.00013364
17150.0 0.00013283
17170.0 0.00013204
17190.0 0.00013125
17210.0 0.00013047
17230.0 0.0001297
17250.0 0.00012894
17270.0 0.00012818
17290.0 0.00012744
17310.0 0.00012671
17330.0 0.00012597
17350.0 0.00012525
17370.0 0.00012455
17390.0 0.00012385
17410.0 0.00012315
17430.0 0.00012247
17450.0 0.00012179
17470.0 0.00012112
17490.0 0.00012045
17510.0 0.0001198
17530.0 0.00011916
17550.0 0.00011851
17570.0 0.00011789
17590.0 0.00011727
17610.0 0.00011665
17630.0 0.00011604
17650.0 0.00011544
17670.0 0.00011485
17690.0 0.00011425
17710.0 0.00011368
17730.0 0.00011311
17750.0 0.00011254
17770.0 0.00011198
17790.0 0.00011144
17810.0 0.00011089
17830.0 0.00011034
17850.0 0.00010981
17870.0 0.00010929
17890.0 0.00010877
17910.0 0.00010825
17930.0 0.00010775
17950.0 0.00010725
17970.0 0.00010675
17990.0 0.00010627
18010.0 0.00010579
18030.0 0.0001053
18050.0 0.00010483
18070.0 0.00010437
18090.0 0.00010391
18110.0 0.00010345
18130.0 0.000103
18150.0 0.00010256
18170.0 0.00010212
18190.0 0.00010169
18210.0 0.00010127
18230.0 0.00010084
18250.0 0.00010042
18270.0 0.00010001
18290.0 9.9603e-05
18310.0 9.9196e-05
18330.0 9.88e-05
18350.0 9.8413e-05
18370.0 9.8021e-05
18390.0 9.7635e-05
18410.0 9.726e-05
18430.0 9.6887e-05
18450.0 9.6509e-05
18470.0 9.6145e-05
18490.0 9.5789e-05
18510.0 9.543e-05
18530.0 9.5075e-05
18550.0 9.4733e-05
18570.0 9.4388e-05
18590.0 9.4041e-05
18610.0 9.3707e-05
18630.0 9.3378e-05
18650.0 9.3046e-05
18670.0 9.2717e-05
18690.0 9.2403e-05
18710.0 9.2086e-05
18730.0 9.1769e-05
18750.0 9.1461e-05
18770.0 9.116e-05
18790.0 9.085e-05
18810.0 9.0548e-05
18830.0 9.0257e-05
18850.0 8.9964e-05
18870.0 8.967e-05
18890.0 8.9387e-05
18910.0 8.9109e-05
18930.0 8.8825e-05
18950.0 8.8547e-05
18970.0 8.8278e-05
18990.0 8.8007e-05
19010.0 8.773e-05
19030.0 8.747e-05
19050.0 8.7212e-05
19070.0 8.6949e-05
19090.0 8.6693e-05
19110.0 8.6446e-05
19130.0 8.6192e-05
19150.0 8.5939e-05
19170.0 8.5697e-05
19190.0 8.5456e-05
19210.0 8.521e-05
19230.0 8.4971e-05
19250.0 8.4741e-05
19270.0 8.4507e-05
19290.0 8.4273e-05
19310.0 8.4049e-05
19330.0 8.3825e-05
19350.0 8.3594e-05
19370.0 8.3372e-05
19390.0 8.3157e-05
19410.0 8.2937e-05
19430.0 8.2718e-05
19450.0 8.251e-05
19470.0 8.23e-05
19490.0 8.2086e-05
19510.0 8.188e-05
19530.0 8.1679e-05
19550.0 8.1471e-05
19570.0 8.1264e-05
19590.0 8.1069e-05
19610.0 8.0872e-05
19630.0 8.0671e-05
19650.0 8.0478e-05
19670.0 8.029e-05
19690.0 8.0094e-05
19710.0 7.9902e-05
19730.0 7.9717e-05
19750.0 7.9531e-05
19770.0 7.9338e-05
19790.0 7.9156e-05
19810.0 7.8977e-05
19830.0 7.8792e-05
19850.0 7.8606e-05
19870.0 7.8422e-05
19890.0 7.8219e-05
19910.0 7.7985e-05
19930.0 7.772e-05
19950.0 7.7396e-05
19970.0 7.6968e-05
19990.0 7.6422e-05
20010.0 7.5778e-05
20030.0 7.4975e-05
20050.0 7.4017e-05
20070.0 7.2971e-05
20090.0 7.1841e-05
20110.0 7.056e-05
20130.0 6.9267e-05
20150.0 6.799e-05
20170.0 6.667e-05
20190.0 6.5332e-05
20210.0 6.4072e-05
20230.0 6.2843e-05
20250.0 6.1609e-05
20270.0 6.0463e-05
20290.0 5.9416e-05
20310.0 5.8419e-05
20330.0 5.7488e-05
20350.0 5.672e-05
20370.0 5.6046e-05
20390.0 5.5466e-05
20410.0 5.5016e-05
20430.0 5.4696e-05
20450.0 5.4477e-05
20470.0 5.4383e-05
20490.0 5.4406e-05
20510.0 5.4535e-05
20530.0 5.4774e-05
20550.0 5.5104e-05
20570.0 5.55e-05
20590.0 5.5982e-05
20610.0 5.6526e-05
20630.0 5.7095e-05
20650.0 5.7701e-05
20670.0 5.8355e-05
20690.0 5.8984e-05
20710.0 5.9594e-05
20730.0 6.0199e-05
20750.0 6.077e-05
20770.0 6.1272e-05
20790.0 6.1732e-05
20810.0 6.214e-05
20830.0 6.2471e-05
20850.0 6.273e-05
20870.0 6.2924e-05
20890.0 6.3043e-05
20910.0 6.3087e-05
20930.0 6.3067e-05
20950.0 6.2979e-05
20970.0 6.2836e-05
20990.0 6.2645e-05
21010.0 6.2391e-05
21030.0 6.2097e-05
21050.0 6.1777e-05
21070.0 6.1419e-05
21090.0 6.102e-05
21110.0 6.0623e-05
21130.0 6.0218e-05
21150.0 5.9791e-05
21170.0 5.9368e-05
21190.0 5.8968e-05
21210.0 5.8564e-05
21230.0 5.8171e-05
21250.0 5.7822e-05
21270.0 5.7505e-05
21290.0 5.7213e-05
21310.0 5.6968e-05
21330.0 5.678e-05
21350.0 5.6632e-05
21370.0 5.6535e-05
21390.0 5.6496e-05
21410.0 5.6509e-05
21430.0 5.6578e-05
21450.0 5.6702e-05
21470.0 5.6871e-05
21490.0 5.7092e-05
21510.0 5.7363e-05
21530.0 5.7663e-05
21550.0 5.8001e-05
21570.0 5.8385e-05
21590.0 5.8791e-05
21610.0 5.9212e-05
21630.0 5.9667e-05
21650.0 6.0155e-05
21670.0 6.0628e-05
21690.0 6.1121e-05
21710.0 6.164e-05
21730.0 6.2159e-05
21750.0 6.2671e-05
21770.0 6.322e-05
21790.0 6.3773e-05
21810.0 6.4315e-05
21830.0 6.4867e-05
21850.0 6.5442e-05
21870.0 6.6007e-05
21890.0 6.6557e-05
21910.0 6.7129e-05
21930.0 6.77e-05
21950.0 6.8247e-05
21970.0 6.8794e-05
21990.0 6.9352e-05
22010.0 6.9869e-05
22030.0 7.0358e-05
22050.0 7.0834e-05
22070.0 7.1276e-05
22090.0 7.1661e-05
22110.0 7.201e-05
22130.0 7.2314e-05
22150.0 7.2551e-05
22170.0 7.2723e-05
22190.0 7.2831e-05
22210.0 7.286e-05
22230.0 7.2814e-05
22250.0 7.2688e-05
22270.0 7.2474e-05
22290.0 7.2187e-05
22310.0 7.1825e-05
22330.0 7.136e-05
22350.0 7.0823e-05
22370.0 7.023e-05
22390.0 6.9555e-05
22410.0 6.879e-05
22430.0 6.8005e-05
22450.0 6.7177e-05
22470.0 6.6274e-05
22490.0 6.5346e-05
22510.0 6.4426e-05
22530.0 6.3449e-05
22550.0 6.2443e-05
22570.0 6.1479e-05
22590.0 6.0523e-05
22610.0 5.9546e-05
22630.0 5.8604e-05
22650.0 5.7727e-05
22670.0 5.6846e-05
22690.0 5.5991e-05
22710.0 5.5205e-05
22730.0 5.4459e-05
22750.0 5.3713e-05
22770.0 5.3041e-05
22790.0 5.2428e-05
22810.0 5.1837e-05
22830.0 5.1282e-05
22850.0 5.0788e-05
22870.0 5.0324e-05
22890.0 4.9877e-05
22910.0 4.9477e-05
