#lamb flux
1010.0 1.9757e-05
1030.0 2.0772e-05
1050.0 2.194e-05
1070.0 2.3257e-05
1090.0 2.4752e-05
1110.0 2.6288e-05
1130.0 2.7835e-05
1150.0 2.9457e-05
1170.0 3.1133e-05
1190.0 3.2725e-05
1210.0 3.4341e-05
1230.0 3.6014e-05
1250.0 3.7656e-05
1270.0 3.9254e-05
1290.0 4.0946e-05
1310.0 4.264e-05
1330.0 4.427e-05
1350.0 4.5922e-05
1370.0 4.7631e-05
1390.0 4.9302e-05
1410.0 5.093e-05
1430.0 5.2635e-05
1450.0 5.4345e-05
1470.0 5.6004e-05
1490.0 5.7685e-05
1510.0 5.9462e-05
1530.0 6.1154e-05
1550.0 6.2829e-05
1570.0 6.4563e-05
1590.0 6.6302e-05
1610.0 6.7971e-05
1630.0 6.9691e-05
1650.0 7.1457e-05
1670.0 7.317e-05
1690.0 7.4862e-05
1710.0 7.6617e-05
1730.0 7.8382e-05
1750.0 8.0044e-05
1770.0 8.1751e-05
1790.0 8.349e-05
1810.0 8.5172e-05
1830.0 8.6822e-05
1850.0 8.8568e-05
1870.0 9.0266e-05
1890.0 9.1904e-05
1910.0 9.3571e-05
1930.0 9.5275e-05
1950.0 9.6901e-05
1970.0 9.8505e-05
1990.0 0.00010017
2010.0 0.00010181
2030.0 0.00010339
2050.0 0.00010503
2070.0 0.00010672
2090.0 0.00010832
2110.0 0.00010993
2130.0 0.0001116
2150.0 0.00011327
2170.0 0.00011488
2190.0 0.00011659
2210.0 0.00011833
2230.0 0.00012005
2250.0 0.0001218
2270.0 0.00012366
2290.0 0.00012552
2310.0 0.00012737
2330.0 0.00012932
2350.0 0.00013135
2370.0 0.00013338
2390.0 0.00013549
2410.0 0.00013776
2430.0 0.00014004
2450.0 0.00014233
2470.0 0.00014467
2490.0 0.00014699
2510.0 0.00014916
2530.0 0.00015138
2550.0 0.00015402
2570.0 0.00015763
2590.0 0.00016302
2610.0 0.00017189
2630.0 0.00018531
2650.0 0.00020325
2670.0 0.00022641
2690.0 0.00025471
2710.0 0.00028521
2730.0 0.00031618
2750.0 0.0003482
2770.0 0.00037884
2790.0 0.00040712
2810.0 0.0004345
2830.0 0.00046227
2850.0 0.00048873
2870.0 0.0005154
2890.0 0.00054352
2910.0 0.00057243
2930.0 0.00060116
2950.0 0.00063147
2970.0 0.00066304
2990.0 0.00069448
3010.0 0.001382
3030.0 0.0014452
3050.0 0.001509
3070.0 0.0015695
3090.0 0.0016286
3110.0 0.001681
3130.0 0.0017185
3150.0 0.0017341
3170.0 0.0017145
3190.0 0.0016519
3210.0 0.001545
3230.0 0.0014151
3250.0 0.0014167
3270.0 0.001053
3290.0 0.0011822
3310.0 0.00084941
3330.0 0.00091406
3350.0 0.0010296
3370.0 0.0011513
3390.0 0.0012759
3410.0 0.0013999
3430.0 0.0015265
3450.0 0.0016522
3470.0 0.0017714
3490.0 0.0018579
3510.0 0.002016
3530.0 0.0023565
3550.0 0.0026841
3570.0 0.0030082
3590.0 0.003693
3610.0 0.003589
3630.0 0.0038784
3650.0 0.0038088
3670.0 0.0041427
3690.0 0.0045242
3710.0 0.0047869
3730.0 0.0055229
3750.0 0.0057544
3770.0 0.0058288
3790.0 0.0055442
3810.0 0.0048885
3830.0 0.0044941
3850.0 0.0039517
3870.0 0.004307
3890.0 0.0049006
3910.0 0.0057784
3930.0 0.0067043
3950.0 0.0072848
3970.0 0.008288
3990.0 0.0085273
4010.0 0.0082905
4030.0 0.0084222
4050.0 0.0077292
4070.0 0.0073989
4090.0 0.0072028
4110.0 0.0068723
4130.0 0.0074153
4150.0 0.0071485
4170.0 0.0071387
4190.0 0.0069996
4210.0 0.0075036
4230.0 0.0071933
4250.0 0.0077565
4270.0 0.0077355
4290.0 0.0077709
4310.0 0.0082942
4330.0 0.0088329
4350.0 0.0088964
4370.0 0.0087133
4390.0 0.0082996
4410.0 0.0073449
4430.0 0.0061177
4450.0 0.0056452
4470.0 0.0058124
4490.0 0.0058085
4510.0 0.0065752
4530.0 0.0072126
4550.0 0.0085113
4570.0 0.011022
4590.0 0.013474
4610.0 0.014744
4630.0 0.016913
4650.0 0.0185
4670.0 0.018627
4690.0 0.016992
4710.0 0.015781
4730.0 0.014016
4750.0 0.011494
4770.0 0.0097087
4790.0 0.0086514
4810.0 0.0094414
4830.0 0.010488
4850.0 0.011778
4870.0 0.011252
4890.0 0.012878
4910.0 0.013451
4930.0 0.014674
4950.0 0.017205
4970.0 0.018294
4990.0 0.019271
5010.0 0.01783
5030.0 0.014967
5050.0 0.012206
5070.0 0.0096903
5090.0 0.0087269
5110.0 0.0085732
5130.0 0.0084301
5150.0 0.0088258
5170.0 0.0085339
5190.0 0.0090015
5210.0 0.009178
5230.0 0.0098957
5250.0 0.011625
5270.0 0.012668
5290.0 0.013797
5310.0 0.015583
5330.0 0.016919
5350.0 0.017376
5370.0 0.017457
5390.0 0.017148
5410.0 0.016888
5430.0 0.01717
5450.0 0.019297
5470.0 0.022713
5490.0 0.026058
5510.0 0.029209
5530.0 0.030073
5550.0 0.029887
5570.0 0.029218
5590.0 0.028599
5610.0 0.028386
5630.0 0.028515
5650.0 0.028767
5670.0 0.028505
5690.0 0.026651
5710.0 0.024443
5730.0 0.021924
5750.0 0.020594
5770.0 0.019559
5790.0 0.020044
5810.0 0.021181
5830.0 0.022006
5850.0 0.021414
5870.0 0.02043
5890.0 0.020116
5910.0 0.019609
5930.0 0.019269
5950.0 0.018869
5970.0 0.018172
5990.0 0.01611
6010.0 0.014021
6030.0 0.012811
6050.0 0.012393
6070.0 0.012103
6090.0 0.012089
6110.0 0.012337
6130.0 0.012451
6150.0 0.013196
6170.0 0.014605
6190.0 0.016091
6210.0 0.016885
6230.0 0.017114
6250.0 0.015741
6270.0 0.013902
6290.0 0.011948
6310.0 0.010445
6330.0 0.0096524
6350.0 0.0093779
6370.0 0.0098465
6390.0 0.011039
6410.0 0.012972
6430.0 0.015481
6450.0 0.017584
6470.0 0.019176
6490.0 0.020542
6510.0 0.021104
6530.0 0.020952
6550.0 0.02105
6570.0 0.021274
6590.0 0.021008
6610.0 0.021221
6630.0 0.020837
6650.0 0.020177
6670.0 0.01901
6690.0 0.017396
6710.0 0.016698
6730.0 0.015802
6750.0 0.015796
6770.0 0.016224
6790.0 0.016788
6810.0 0.017091
6830.0 0.016768
6850.0 0.016084
6870.0 0.01558
6890.0 0.014846
6910.0 0.014145
6930.0 0.0145
6950.0 0.014684
6970.0 0.015278
6990.0 0.015877
7010.0 0.015739
7030.0 0.014812
7050.0 0.013254
7070.0 0.011785
7090.0 0.01044
7110.0 0.0097182
7130.0 0.0093369
7150.0 0.0090888
7170.0 0.0094024
7190.0 0.0096095
7210.0 0.010131
7230.0 0.011241
7250.0 0.012038
7270.0 0.012325
7290.0 0.012164
7310.0 0.011609
7330.0 0.010889
7350.0 0.010514
7370.0 0.010583
7390.0 0.011137
7410.0 0.012307
7430.0 0.013737
7450.0 0.015503
7470.0 0.016842
7490.0 0.017491
7510.0 0.016802
7530.0 0.015373
7550.0 0.013408
7570.0 0.0114
7590.0 0.010546
7610.0 0.010582
7630.0 0.011279
7650.0 0.012774
7670.0 0.01423
7690.0 0.015545
7710.0 0.016732
7730.0 0.017674
7750.0 0.018453
7770.0 0.018793
7790.0 0.019384
7810.0 0.019763
7830.0 0.019659
7850.0 0.019696
7870.0 0.018968
7890.0 0.018352
7910.0 0.017278
7930.0 0.0168
7950.0 0.016152
7970.0 0.016247
7990.0 0.016069
8010.0 0.015785
8030.0 0.015785
8050.0 0.016257
8070.0 0.015921
8090.0 0.015908
8110.0 0.015313
8130.0 0.015211
8150.0 0.014716
8170.0 0.01428
8190.0 0.014067
8210.0 0.014149
8230.0 0.01309
8250.0 0.012161
8270.0 0.010597
8290.0 0.0085821
8310.0 0.0068077
8330.0 0.0052788
8350.0 0.0045936
8370.0 0.0050468
8390.0 0.0056613
8410.0 0.0062113
8430.0 0.0070531
8450.0 0.007449
8470.0 0.007792
8490.0 0.0086908
8510.0 0.0096034
8530.0 0.011128
8550.0 0.013088
8570.0 0.014803
8590.0 0.016157
8610.0 0.017415
8630.0 0.018463
8650.0 0.01863
8670.0 0.018681
8690.0 0.019278
8710.0 0.019445
8730.0 0.019672
8750.0 0.019112
8770.0 0.019123
8790.0 0.018822
8810.0 0.017477
8830.0 0.017106
8850.0 0.01614
8870.0 0.01545
8890.0 0.014604
8910.0 0.015087
8930.0 0.014104
8950.0 0.013641
8970.0 0.013473
8990.0 0.013104
9010.0 0.012979
9030.0 0.012602
9050.0 0.012529
9070.0 0.012498
9090.0 0.012467
9110.0 0.012438
9130.0 0.012405
9150.0 0.01237
9170.0 0.012315
9190.0 0.012234
9210.0 0.01231
9230.0 0.012246
9250.0 0.012195
9270.0 0.012147
9290.0 0.012101
9310.0 0.012055
9330.0 0.01201
9350.0 0.011964
9370.0 0.011919
9390.0 0.011872
9410.0 0.011825
9430.0 0.011777
9450.0 0.011725
9470.0 0.011674
9490.0 0.011628
9510.0 0.011579
9530.0 0.01153
9550.0 0.01148
9570.0 0.011429
9590.0 0.011378
9610.0 0.011326
9630.0 0.011274
9650.0 0.011222
9670.0 0.01117
9690.0 0.011117
9710.0 0.011065
9730.0 0.011012
9750.0 0.010959
9770.0 0.010906
9790.0 0.010853
9810.0 0.0108
9830.0 0.010747
9850.0 0.010695
9870.0 0.010642
9890.0 0.010589
9910.0 0.010537
9930.0 0.010484
9950.0 0.010375
9970.0 0.010339
9990.0 0.010301
10010.0 0.010261
10030.0 0.010217
10050.0 0.010168
10070.0 0.010115
10090.0 0.010068
10110.0 0.010019
10130.0 0.0099705
10150.0 0.0099222
10170.0 0.0098723
10190.0 0.0098204
10210.0 0.0097716
10230.0 0.009724
10250.0 0.0096742
10270.0 0.0096252
10290.0 0.0095787
10310.0 0.0095304
10330.0 0.0094804
10350.0 0.0094337
10370.0 0.0093875
10390.0 0.0093392
10410.0 0.0092917
10430.0 0.0092473
10450.0 0.0092008
10470.0 0.0091535
10490.0 0.0091085
10510.0 0.009064
10530.0 0.0090163
10550.0 0.0089704
10570.0 0.008927
10590.0 0.0088818
10610.0 0.0088359
10630.0 0.0087926
10650.0 0.0087493
10670.0 0.0087032
10690.0 0.0086589
10710.0 0.0086162
10730.0 0.0085717
10750.0 0.0085255
10770.0 0.0084834
10790.0 0.0084406
10810.0 0.0083957
10830.0 0.0083521
10850.0 0.0083102
10870.0 0.0082639
10890.0 0.0082162
10910.0 0.0081684
10930.0 0.0081157
10950.0 0.0080535
10970.0 0.0079839
10990.0 0.0079072
11010.0 0.0073139
11030.0 0.0072186
11050.0 0.0071202
11070.0 0.0070148
11090.0 0.0068977
11110.0 0.0067856
11130.0 0.0066747
11150.0 0.0065595
11170.0 0.0064448
11190.0 0.0063375
11210.0 0.0062282
11230.0 0.006117
11250.0 0.0060119
11270.0 0.0059112
11290.0 0.0058084
11310.0 0.005709
11330.0 0.0056206
11350.0 0.0055337
11370.0 0.005449
11390.0 0.0053724
11410.0 0.0053014
11430.0 0.0052287
11450.0 0.0051608
11470.0 0.0050977
11490.0 0.0050334
11510.0 0.004966
11530.0 0.0049012
11550.0 0.0048348
11570.0 0.0047615
11590.0 0.0046851
11610.0 0.0046079
11630.0 0.0045225
11650.0 0.0044297
11670.0 0.0043384
11690.0 0.0042442
11710.0 0.0041436
11730.0 0.0040432
11750.0 0.0039477
11770.0 0.0038488
11790.0 0.0037506
11810.0 0.0036596
11830.0 0.0035726
11850.0 0.0034848
11870.0 0.0034053
11890.0 0.0033341
11910.0 0.0032651
11930.0 0.0032002
11950.0 0.003143
11970.0 0.0030892
11990.0 0.0030363
12010.0 0.0029888
12030.0 0.0029456
12050.0 0.0029032
12070.0 0.0028622
12090.0 0.002827
12110.0 0.0027932
12130.0 0.0027605
12150.0 0.0027316
12170.0 0.0027068
12190.0 0.0026831
12210.0 0.002664
12230.0 0.0026508
12250.0 0.0026424
12270.0 0.0026396
12290.0 0.0026441
12310.0 0.0026558
12330.0 0.0026751
12350.0 0.0027025
12370.0 0.0027371
12390.0 0.0027793
12410.0 0.0028306
12430.0 0.0028862
12450.0 0.0029463
12470.0 0.0030117
12490.0 0.0030798
12510.0 0.0031468
12530.0 0.0032151
12550.0 0.0032833
12570.0 0.0033472
12590.0 0.0034071
12610.0 0.0034642
12630.0 0.0035159
12650.0 0.0035602
12670.0 0.0035996
12690.0 0.0036331
12710.0 0.00366
12730.0 0.0036811
12750.0 0.0036962
12770.0 0.0037055
12790.0 0.0037097
12810.0 0.0037085
12830.0 0.0037019
12850.0 0.0036918
12870.0 0.0036781
12890.0 0.0036596
12910.0 0.0036381
12930.0 0.0036148
12950.0 0.0035874
12970.0 0.0035563
12990.0 0.003525
13010.0 0.0034914
13030.0 0.003454
13050.0 0.0034153
13070.0 0.0033766
13090.0 0.0033341
13110.0 0.0032896
13130.0 0.0032461
13150.0 0.0032021
13170.0 0.0031558
13190.0 0.0031126
13210.0 0.0030731
13230.0 0.0030353
13250.0 0.0030015
13270.0 0.0029743
13290.0 0.0029522
13310.0 0.0029357
13330.0 0.0029265
13350.0 0.0029239
13370.0 0.0029268
13390.0 0.0029349
13410.0 0.0029464
13430.0 0.0029601
13450.0 0.0029744
13470.0 0.0029871
13490.0 0.0029968
13510.0 0.0030022
13530.0 0.0030015
13550.0 0.0029945
13570.0 0.0029805
13590.0 0.0029587
13610.0 0.0029311
13630.0 0.0028988
13650.0 0.0028601
13670.0 0.002818
13690.0 0.0027751
13710.0 0.0027303
13730.0 0.0026831
13750.0 0.0026397
13770.0 0.0025982
13790.0 0.0025575
13810.0 0.0025196
13830.0 0.002486
13850.0 0.0024539
13870.0 0.0024238
13890.0 0.0023973
13910.0 0.002373
13930.0 0.0023498
13950.0 0.0023286
13970.0 0.0023098
13990.0 0.0022919
14010.0 0.002275
14030.0 0.0022599
14050.0 0.0022458
14070.0 0.0022323
14090.0 0.0022201
14110.0 0.0022091
14130.0 0.0021988
14150.0 0.0021893
14170.0 0.0021809
14190.0 0.0021733
14210.0 0.0021663
14230.0 0.0021603
14250.0 0.0021551
14270.0 0.0021508
14290.0 0.0021475
14310.0 0.0021453
14330.0 0.0021439
14350.0 0.0021437
14370.0 0.0021443
14390.0 0.0021454
14410.0 0.0021472
14430.0 0.0021493
14450.0 0.0021512
14470.0 0.0021529
14490.0 0.0021543
14510.0 0.0021548
14530.0 0.0021544
14550.0 0.0021535
14570.0 0.0021519
14590.0 0.0021498
14610.0 0.0021477
14630.0 0.0021461
14650.0 0.0021451
14670.0 0.0021451
14690.0 0.0021471
14710.0 0.0021516
14730.0 0.0021578
14750.0 0.0021672
14770.0 0.0021804
14790.0 0.0021965
14810.0 0.0022155
14830.0 0.0022399
14850.0 0.0022676
14870.0 0.0022972
14890.0 0.0023298
14910.0 0.0023651
14930.0 0.0023989
14950.0 0.0024299
14970.0 0.002459
14990.0 0.002482
15010.0 0.0024976
15030.0 0.0025069
15050.0 0.0025102
15070.0 0.0025072
15090.0 0.0025005
15110.0 0.0024911
15130.0 0.0024799
15150.0 0.0024679
15170.0 0.0024554
15190.0 0.0024425
15210.0 0.0024297
15230.0 0.0024168
15250.0 0.0024037
15270.0 0.0023907
15290.0 0.0023778
15310.0 0.0023648
15330.0 0.0023518
15350.0 0.0023389
15370.0 0.002326
15390.0 0.002313
15410.0 0.0023
15430.0 0.0022872
15450.0 0.0022742
15470.0 0.0022613
15490.0 0.0022485
15510.0 0.0022357
15530.0 0.0022229
15550.0 0.0022101
15570.0 0.0021974
15590.0 0.0021847
15610.0 0.0021719
15630.0 0.0021594
15650.0 0.0021468
15670.0 0.0021342
15690.0 0.0021217
15710.0 0.0021093
15730.0 0.0020969
15750.0 0.0020845
15770.0 0.0020722
15790.0 0.00206
15810.0 0.0020477
15830.0 0.0020355
15850.0 0.0020235
15870.0 0.0020114
15890.0 0.0019994
15910.0 0.0019876
15930.0 0.0019757
15950.0 0.0019639
15970.0 0.0019521
15990.0 0.0019405
16010.0 0.0019289
16030.0 0.0019173
16050.0 0.0019059
16070.0 0.0018945
16090.0 0.0018831
16110.0 0.0018719
16130.0 0.0018608
16150.0 0.0018496
16170.0 0.0018385
16190.0 0.0018276
16210.0 0.0018167
16230.0 0.0018058
16250.0 0.0017951
16270.0 0.0017845
16290.0 0.0017738
16310.0 0.0017633
16330.0 0.0017529
16350.0 0.0017425
16370.0 0.0017321
16390.0 0.0017219
16410.0 0.0017118
16430.0 0.0017017
16450.0 0.0016917
16470.0 0.0016819
16490.0 0.001672
16510.0 0.0016622
16530.0 0.0016526
16550.0 0.001643
16570.0 0.0016334
16590.0 0.001624
16610.0 0.0016147
16630.0 0.0016054
16650.0 0.0015961
16670.0 0.001587
16690.0 0.001578
16710.0 0.001569
16730.0 0.0015601
16750.0 0.0015513
16770.0 0.0015425
16790.0 0.0015338
16810.0 0.0015253
16830.0 0.0015168
16850.0 0.0015083
16870.0 0.0015
16890.0 0.0014918
16910.0 0.0014835
16930.0 0.0014753
16950.0 0.0014673
16970.0 0.0014594
16990.0 0.0014514
17010.0 0.0014436
17030.0 0.0014359
17050.0 0.0014282
17070.0 0.0014205
17090.0 0.001413
17110.0 0.0014056
17130.0 0.0013981
17150.0 0.0013908
17170.0 0.0013836
17190.0 0.0013764
17210.0 0.0013693
17230.0 0.0013623
17250.0 0.0013553
17270.0 0.0013484
17290.0 0.0013415
17310.0 0.0013348
17330.0 0.0013281
17350.0 0.0013214
17370.0 0.0013149
17390.0 0.0013084
17410.0 0.0013019
17430.0 0.0012956
17450.0 0.0012893
17470.0 0.001283
17490.0 0.0012768
17510.0 0.0012708
17530.0 0.0012647
17550.0 0.0012587
17570.0 0.0012528
17590.0 0.001247
17610.0 0.0012411
17630.0 0.0012354
17650.0 0.0012297
17670.0 0.0012241
17690.0 0.0012185
17710.0 0.001213
17730.0 0.0012076
17750.0 0.0012022
17770.0 0.0011968
17790.0 0.0011916
17810.0 0.0011864
17830.0 0.0011812
17850.0 0.0011761
17870.0 0.001171
17890.0 0.001166
17910.0 0.001161
17930.0 0.0011562
17950.0 0.0011513
17970.0 0.0011465
17990.0 0.0011418
18010.0 0.0011371
18030.0 0.0011324
18050.0 0.0011278
18070.0 0.0011233
18090.0 0.0011188
18110.0 0.0011143
18130.0 0.0011099
18150.0 0.0011056
18170.0 0.0011012
18190.0 0.001097
18210.0 0.0010928
18230.0 0.0010886
18250.0 0.0010844
18270.0 0.0010804
18290.0 0.0010764
18310.0 0.0010723
18330.0 0.0010684
18350.0 0.0010645
18370.0 0.0010606
18390.0 0.0010568
18410.0 0.001053
18430.0 0.0010493
18450.0 0.0010455
18470.0 0.0010418
18490.0 0.0010382
18510.0 0.0010346
18530.0 0.0010311
18550.0 0.0010276
18570.0 0.0010241
18590.0 0.0010206
18610.0 0.0010172
18630.0 0.0010139
18650.0 0.0010105
18670.0 0.0010072
18690.0 0.001004
18710.0 0.0010008
18730.0 0.00099755
18750.0 0.0009944
18770.0 0.00099131
18790.0 0.00098816
18810.0 0.00098508
18830.0 0.00098208
18850.0 0.00097908
18870.0 0.00097608
18890.0 0.00097317
18910.0 0.00097029
18930.0 0.00096738
18950.0 0.00096452
18970.0 0.00096174
18990.0 0.00095894
19010.0 0.00095612
19030.0 0.00095342
19050.0 0.00095073
19070.0 0.00094803
19090.0 0.00094537
19110.0 0.00094279
19130.0 0.00094017
19150.0 0.00093757
19170.0 0.00093504
19190.0 0.00093254
19210.0 0.00093
19230.0 0.00092752
19250.0 0.00092511
19270.0 0.00092268
19290.0 0.00092026
19310.0 0.00091791
19330.0 0.00091558
19350.0 0.00091319
19370.0 0.00091088
19390.0 0.00090863
19410.0 0.00090635
19430.0 0.00090407
19450.0 0.00090189
19470.0 0.0008997
19490.0 0.00089749
19510.0 0.00089533
19530.0 0.00089322
19550.0 0.00089107
19570.0 0.00088894
19590.0 0.00088689
19610.0 0.00088483
19630.0 0.00088276
19650.0 0.00088074
19670.0 0.00087877
19690.0 0.00087675
19710.0 0.00087476
19730.0 0.00087283
19750.0 0.0008709
19770.0 0.00086892
19790.0 0.00086703
19810.0 0.00086516
19830.0 0.00086325
19850.0 0.00086133
19870.0 0.0008594
19890.0 0.00085729
19910.0 0.00085487
19930.0 0.00085206
19950.0 0.0008486
19970.0 0.00084404
19990.0 0.00083819
20010.0 0.00083123
20030.0 0.00082258
20050.0 0.00081227
20070.0 0.00080101
20090.0 0.00078885
20110.0 0.00077515
20130.0 0.00076132
20150.0 0.00074769
20170.0 0.00073361
20190.0 0.00071939
20210.0 0.00070596
20230.0 0.00069284
20250.0 0.00067964
20270.0 0.0006673
20290.0 0.00065591
20310.0 0.00064494
20330.0 0.00063451
20350.0 0.00062566
20370.0 0.00061761
20390.0 0.00061034
20410.0 0.00060425
20430.0 0.00059934
20450.0 0.00059521
20470.0 0.00059218
20490.0 0.00059022
20510.0 0.00058918
20530.0 0.00058902
20550.0 0.00058971
20570.0 0.00059107
20590.0 0.00059313
20610.0 0.00059576
20630.0 0.00059873
20650.0 0.00060207
20670.0 0.00060584
20690.0 0.00060958
20710.0 0.00061327
20730.0 0.00061702
20750.0 0.0006206
20770.0 0.00062377
20790.0 0.00062668
20810.0 0.00062926
20830.0 0.0006313
20850.0 0.00063283
20870.0 0.00063387
20890.0 0.0006343
20910.0 0.00063416
20930.0 0.00063346
20950.0 0.00063216
20970.0 0.00063038
20990.0 0.00062815
21010.0 0.00062533
21030.0 0.00062212
21050.0 0.00061866
21070.0 0.00061483
21090.0 0.00061061
21110.0 0.00060641
21130.0 0.00060214
21150.0 0.00059766
21170.0 0.00059323
21190.0 0.00058904
21210.0 0.00058481
21230.0 0.0005807
21250.0 0.000577
21270.0 0.00057361
21290.0 0.00057045
21310.0 0.00056772
21330.0 0.00056551
21350.0 0.00056365
21370.0 0.00056224
21390.0 0.00056135
21410.0 0.00056092
21430.0 0.00056096
21450.0 0.00056149
21470.0 0.00056243
21490.0 0.00056383
21510.0 0.00056566
21530.0 0.00056779
21550.0 0.00057027
21570.0 0.00057318
21590.0 0.00057632
21610.0 0.00057963
21630.0 0.00058328
21650.0 0.00058725
21670.0 0.00059115
21690.0 0.00059525
21710.0 0.00059961
21730.0 0.00060399
21750.0 0.00060831
21770.0 0.00061297
21790.0 0.00061765
21810.0 0.00062219
21830.0 0.00062679
21850.0 0.00063153
21870.0 0.00063612
21890.0 0.00064051
21910.0 0.00064501
21930.0 0.00064939
21950.0 0.0006535
21970.0 0.00065751
21990.0 0.00066149
22010.0 0.00066505
22030.0 0.00066831
22050.0 0.00067136
22070.0 0.00067404
22090.0 0.00067624
22110.0 0.00067807
22130.0 0.00067947
22150.0 0.00068032
22170.0 0.00068065
22190.0 0.00068042
22210.0 0.00067956
22230.0 0.00067818
22250.0 0.00067616
22270.0 0.00067346
22290.0 0.00067025
22310.0 0.00066652
22330.0 0.00066199
22350.0 0.00065697
22370.0 0.00065159
22390.0 0.0006456
22410.0 0.00063894
22430.0 0.00063221
22450.0 0.00062519
22470.0 0.0006176
22490.0 0.00060985
22510.0 0.0006022
22530.0 0.00059409
22550.0 0.00058576
22570.0 0.00057779
22590.0 0.00056986
22610.0 0.00056175
22630.0 0.00055391
22650.0 0.00054658
22670.0 0.0005392
22690.0 0.00053201
22710.0 0.00052536
22730.0 0.00051902
22750.0 0.00051265
22770.0 0.00050687
22790.0 0.00050157
22810.0 0.00049643
22830.0 0.00049157
22850.0 0.00048721
22870.0 0.00048307
22890.0 0.00047906
22910.0 0.00047541
22930.0 0.00047208
22950.0 0.00046885
22970.0 0.00046577
22990.0 0.00046308
23010.0 0.0004605
23030.0 0.00045803
23050.0 0.00045577
23070.0 0.00045371
23090.0 0.00045166
23110.0 0.00044976
23130.0 0.00044805
23150.0 0.0004464
23170.0 0.0004448
23190.0 0.00044334
23210.0 0.00044199
23230.0 0.00044067
23250.0 0.00043944
23270.0 0.00043835
23290.0 0.00043735
23310.0 0.00043643
23330.0 0.0004357
23350.0 0.00043512
23370.0 0.00043468
23390.0 0.00043443
23410.0 0.00043435
23430.0 0.00043444
23450.0 0.00043469
23470.0 0.00043509
23490.0 0.0004356
23510.0 0.00043624
23530.0 0.00043696
23550.0 0.0004377
23570.0 0.0004385
23590.0 0.00043933
23610.0 0.00044013
23630.0 0.00044092
23650.0 0.00044174
23670.0 0.00044255
23690.0 0.00044335
23710.0 0.00044421
