#lamb flux
1010.0 1.9257e-09
1030.0 2.1298e-09
1050.0 2.3646e-09
1070.0 2.6289e-09
1090.0 2.9292e-09
1110.0 3.2371e-09
1130.0 3.547e-09
1150.0 3.8716e-09
1170.0 4.2065e-09
1190.0 4.524e-09
1210.0 4.8459e-09
1230.0 5.1784e-09
1250.0 5.5043e-09
1270.0 5.8207e-09
1290.0 6.155e-09
1310.0 6.4892e-09
1330.0 6.8096e-09
1350.0 7.1336e-09
1370.0 7.4681e-09
1390.0 7.7943e-09
1410.0 8.1108e-09
1430.0 8.4417e-09
1450.0 8.7725e-09
1470.0 9.0923e-09
1490.0 9.4156e-09
1510.0 9.7571e-09
1530.0 1.0081e-08
1550.0 1.04e-08
1570.0 1.073e-08
1590.0 1.1061e-08
1610.0 1.1377e-08
1630.0 1.1703e-08
1650.0 1.2038e-08
1670.0 1.2362e-08
1690.0 1.2682e-08
1710.0 1.3015e-08
1730.0 1.3349e-08
1750.0 1.3664e-08
1770.0 1.3989e-08
1790.0 1.4321e-08
1810.0 1.4642e-08
1830.0 1.4958e-08
1850.0 1.5294e-08
1870.0 1.5622e-08
1890.0 1.594e-08
1910.0 1.6264e-08
1930.0 1.6597e-08
1950.0 1.6916e-08
1970.0 1.7231e-08
1990.0 1.7559e-08
2010.0 1.7883e-08
2030.0 1.8195e-08
2050.0 1.8518e-08
2070.0 1.885e-08
2090.0 1.9163e-08
2110.0 1.9476e-08
2130.0 1.98e-08
2150.0 2.0118e-08
2170.0 2.0423e-08
2190.0 2.0739e-08
2210.0 2.1059e-08
2230.0 2.1366e-08
2250.0 2.1672e-08
2270.0 2.1992e-08
2290.0 2.2303e-08
2310.0 2.2601e-08
2330.0 2.2912e-08
2350.0 2.3231e-08
2370.0 2.3549e-08
2390.0 2.3893e-08
2410.0 2.4301e-08
2430.0 2.477e-08
2450.0 2.533e-08
2470.0 2.6048e-08
2490.0 2.6954e-08
2510.0 2.7982e-08
2530.0 2.9221e-08
2550.0 3.0771e-08
2570.0 3.27e-08
2590.0 3.5209e-08
2610.0 3.8965e-08
2630.0 4.4328e-08
2650.0 5.134e-08
2670.0 6.0406e-08
2690.0 7.1547e-08
2710.0 8.344e-08
2730.0 9.5191e-08
2750.0 1.0677e-07
2770.0 1.1683e-07
2790.0 1.2483e-07
2810.0 1.3117e-07
2830.0 1.3613e-07
2850.0 1.3951e-07
2870.0 1.42e-07
2890.0 1.4396e-07
2910.0 1.4553e-07
2930.0 1.4682e-07
2950.0 1.4804e-07
2970.0 1.4924e-07
2990.0 1.5036e-07
3010.0 4.2499e-06
3030.0 4.2817e-06
3050.0 4.3124e-06
3070.0 4.3387e-06
3090.0 4.3613e-06
3110.0 4.3754e-06
3130.0 4.3748e-06
3150.0 4.3554e-06
3170.0 4.3088e-06
3190.0 4.2355e-06
3210.0 4.1426e-06
3230.0 4.0362e-06
3250.0 3.9313e-06
3270.0 3.8546e-06
3290.0 3.812e-06
3310.0 3.8189e-06
3330.0 3.8742e-06
3350.0 3.9704e-06
3370.0 4.1078e-06
3390.0 4.281e-06
3410.0 4.4695e-06
3430.0 4.6811e-06
3450.0 4.9247e-06
3470.0 5.1908e-06
3490.0 5.4727e-06
3510.0 5.7913e-06
3530.0 6.1325e-06
3550.0 6.478e-06
3570.0 6.8384e-06
3590.0 7.2304e-06
3610.0 7.6342e-06
3630.0 8.0368e-06
3650.0 8.4545e-06
3670.0 8.8359e-06
3690.0 9.1209e-06
3710.0 9.2844e-06
3730.0 9.2897e-06
3750.0 9.1605e-06
3770.0 9.1097e-06
3790.0 9.0555e-06
3810.0 8.833e-06
3830.0 9.1064e-06
3850.0 1.0182e-05
3870.0 1.0772e-05
3890.0 1.0723e-05
3910.0 1.0769e-05
3930.0 1.1053e-05
3950.0 1.1227e-05
3970.0 1.0229e-05
3990.0 8.8015e-06
4010.0 2.6379e-05
4030.0 3.1962e-05
4050.0 3.6643e-05
4070.0 3.1794e-05
4090.0 2.8795e-05
4110.0 2.5409e-05
4130.0 2.3387e-05
4150.0 2.4876e-05
4170.0 2.4504e-05
4190.0 2.612e-05
4210.0 2.5881e-05
4230.0 2.7375e-05
4250.0 3.2385e-05
4270.0 3.2766e-05
4290.0 3.0193e-05
4310.0 3.1373e-05
4330.0 3.3371e-05
4350.0 3.7418e-05
4370.0 4.2582e-05
4390.0 3.9959e-05
4410.0 2.9523e-05
4430.0 2.4993e-05
4450.0 2.2965e-05
4470.0 1.7627e-05
4490.0 1.9021e-05
4510.0 2.8732e-05
4530.0 3.3137e-05
4550.0 3.3424e-05
4570.0 3.7611e-05
4590.0 4.2843e-05
4610.0 5.7784e-05
4630.0 7.505e-05
4650.0 8.1391e-05
4670.0 7.5375e-05
4690.0 7.1921e-05
4710.0 7.6026e-05
4730.0 7.1747e-05
4750.0 5.364e-05
4770.0 3.9347e-05
4790.0 3.6742e-05
4810.0 3.5021e-05
4830.0 3.2062e-05
4850.0 3.5182e-05
4870.0 4.6479e-05
4890.0 5.4812e-05
4910.0 4.8091e-05
4930.0 4.2553e-05
4950.0 4.6751e-05
4970.0 5.9956e-05
4990.0 8.1254e-05
5010.0 9.3472e-05
5030.0 8.2421e-05
5050.0 5.5763e-05
5070.0 3.675e-05
5090.0 2.9633e-05
5110.0 3.0475e-05
5130.0 3.5173e-05
5150.0 3.8107e-05
5170.0 3.7536e-05
5190.0 3.5075e-05
5210.0 3.6661e-05
5230.0 3.8539e-05
5250.0 4.1535e-05
5270.0 4.4813e-05
5290.0 4.9662e-05
5310.0 5.7805e-05
5330.0 6.3969e-05
5350.0 6.3561e-05
5370.0 6.6765e-05
5390.0 7.6615e-05
5410.0 7.6546e-05
5430.0 6.7694e-05
5450.0 6.2195e-05
5470.0 6.6041e-05
5490.0 8.0683e-05
5510.0 0.00010088
5530.0 0.00011571
5550.0 0.00011183
5570.0 0.00010167
5590.0 8.8399e-05
5610.0 8.1524e-05
5630.0 7.9053e-05
5650.0 7.5291e-05
5670.0 7.1344e-05
5690.0 6.3782e-05
5710.0 6.2189e-05
5730.0 5.7285e-05
5750.0 4.0389e-05
5770.0 3.1511e-05
5790.0 3.5708e-05
5810.0 4.0321e-05
5830.0 4.948e-05
5850.0 5.8901e-05
5870.0 6.5351e-05
5890.0 6.6459e-05
5910.0 6.5201e-05
5930.0 6.2063e-05
5950.0 6.3242e-05
5970.0 7.2089e-05
5990.0 6.7783e-05
6010.0 5.6822e-05
6030.0 4.8006e-05
6050.0 4.1808e-05
6070.0 4.1579e-05
6090.0 4.5086e-05
6110.0 5.0413e-05
6130.0 5.1185e-05
6150.0 4.404e-05
6170.0 3.8742e-05
6190.0 4.3599e-05
6210.0 5.7636e-05
6230.0 7.5635e-05
6250.0 8.1924e-05
6270.0 7.159e-05
6290.0 6.0233e-05
6310.0 4.7022e-05
6330.0 3.6028e-05
6350.0 3.2136e-05
6370.0 3.3794e-05
6390.0 3.9068e-05
6410.0 4.8173e-05
6430.0 5.6253e-05
6450.0 6.4367e-05
6470.0 7.3702e-05
6490.0 8.9027e-05
6510.0 9.9544e-05
6530.0 9.7659e-05
6550.0 8.831e-05
6570.0 7.4967e-05
6590.0 6.76e-05
6610.0 5.8289e-05
6630.0 5.2807e-05
6650.0 4.9918e-05
6670.0 4.8494e-05
6690.0 4.3817e-05
6710.0 3.9831e-05
6730.0 2.8689e-05
6750.0 2.8442e-05
6770.0 3.0915e-05
6790.0 3.5534e-05
6810.0 3.2515e-05
6830.0 3.3481e-05
6850.0 3.1316e-05
6870.0 2.8607e-05
6890.0 2.7467e-05
6910.0 2.9269e-05
6930.0 2.7415e-05
6950.0 2.8205e-05
6970.0 2.9667e-05
6990.0 3.3674e-05
7010.0 3.3961e-05
7030.0 3.4501e-05
7050.0 3.2902e-05
7070.0 3.135e-05
7090.0 3.1442e-05
7110.0 3.2351e-05
7130.0 3.4815e-05
7150.0 3.6976e-05
7170.0 4.08e-05
7190.0 4.4851e-05
7210.0 4.4072e-05
7230.0 4.5307e-05
7250.0 4.8689e-05
7270.0 5.306e-05
7290.0 6.2976e-05
7310.0 6.8335e-05
7330.0 6.6052e-05
7350.0 5.974e-05
7370.0 5.1979e-05
7390.0 5.0426e-05
7410.0 5.3587e-05
7430.0 5.9556e-05
7450.0 6.4867e-05
7470.0 6.4271e-05
7490.0 5.8603e-05
7510.0 6.6383e-05
7530.0 6.5656e-05
7550.0 5.9013e-05
7570.0 4.61e-05
7590.0 3.1692e-05
7610.0 2.7201e-05
7630.0 3.0906e-05
7650.0 3.6542e-05
7670.0 4.5479e-05
7690.0 5.0046e-05
7710.0 5.2154e-05
7730.0 5.4807e-05
7750.0 6.1527e-05
7770.0 6.2495e-05
7790.0 5.7404e-05
7810.0 5.2378e-05
7830.0 5.4014e-05
7850.0 5.2506e-05
7870.0 4.8139e-05
7890.0 4.0446e-05
7910.0 3.2877e-05
7930.0 3.1393e-05
7950.0 2.86e-05
7970.0 2.6474e-05
7990.0 2.6323e-05
8010.0 1.9496e-06
8030.0 1.9242e-06
8050.0 1.8983e-06
8070.0 1.9231e-06
8090.0 2.0663e-06
8110.0 2.0311e-06
8130.0 1.6754e-06
8150.0 1.6317e-06
8170.0 1.4055e-06
8190.0 1.332e-06
8210.0 1.7297e-06
8230.0 1.9258e-06
8250.0 1.7357e-06
8270.0 1.5107e-06
8290.0 1.4726e-06
8310.0 1.1334e-06
8330.0 7.6391e-07
8350.0 5.4214e-07
8370.0 3.4157e-07
8390.0 6.2438e-07
8410.0 7.2757e-07
8430.0 8.9684e-07
8450.0 1.0531e-06
8470.0 1.309e-06
8490.0 1.2998e-06
8510.0 1.2785e-06
8530.0 1.3343e-06
8550.0 1.8002e-06
8570.0 2.1312e-06
8590.0 2.2996e-06
8610.0 2.9048e-06
8630.0 3.4993e-06
8650.0 3.6606e-06
8670.0 3.8901e-06
8690.0 3.9119e-06
8710.0 3.5428e-06
8730.0 3.2954e-06
8750.0 2.9088e-06
8770.0 2.76e-06
8790.0 2.7115e-06
8810.0 2.5982e-06
8830.0 2.0777e-06
8850.0 1.521e-06
8870.0 1.1646e-06
8890.0 1.1386e-06
8910.0 1.3049e-06
8930.0 1.4842e-06
8950.0 1.5126e-06
8970.0 1.5198e-06
8990.0 1.3554e-06
9010.0 1.4204e-05
9030.0 1.2871e-05
9050.0 1.2933e-05
9070.0 1.3035e-05
9090.0 1.3125e-05
9110.0 1.3235e-05
9130.0 1.332e-05
9150.0 1.3387e-05
9170.0 1.3457e-05
9190.0 1.3533e-05
9210.0 1.3612e-05
9230.0 1.3696e-05
9250.0 1.3782e-05
9270.0 1.387e-05
9290.0 1.3961e-05
9310.0 1.4053e-05
9330.0 1.4146e-05
9350.0 1.4243e-05
9370.0 1.4341e-05
9390.0 1.444e-05
9410.0 1.4542e-05
9430.0 1.4647e-05
9450.0 1.4752e-05
9470.0 1.4859e-05
9490.0 1.4969e-05
9510.0 1.508e-05
9530.0 1.5191e-05
9550.0 1.5307e-05
9570.0 1.5425e-05
9590.0 1.5543e-05
9610.0 1.5663e-05
9630.0 1.5786e-05
9650.0 1.591e-05
9670.0 1.6034e-05
9690.0 1.6162e-05
9710.0 1.6292e-05
9730.0 1.6422e-05
9750.0 1.6554e-05
9770.0 1.669e-05
9790.0 1.6826e-05
9810.0 1.6962e-05
9830.0 1.7101e-05
9850.0 1.7242e-05
9870.0 1.7383e-05
9890.0 1.7526e-05
9910.0 1.7671e-05
9930.0 1.7817e-05
9950.0 1.7963e-05
9970.0 1.8112e-05
9990.0 1.8262e-05
10010.0 1.5847e-05
10030.0 1.5977e-05
10050.0 1.611e-05
10070.0 1.6247e-05
10090.0 1.6376e-05
10110.0 1.6509e-05
10130.0 1.6642e-05
10150.0 1.6775e-05
10170.0 1.6909e-05
10190.0 1.7046e-05
10210.0 1.7181e-05
10230.0 1.7315e-05
10250.0 1.7452e-05
10270.0 1.7589e-05
10290.0 1.7724e-05
10310.0 1.7861e-05
10330.0 1.7999e-05
10350.0 1.8134e-05
10370.0 1.827e-05
10390.0 1.8407e-05
10410.0 1.8543e-05
10430.0 1.8676e-05
10450.0 1.8811e-05
10470.0 1.8946e-05
10490.0 1.9079e-05
10510.0 1.9211e-05
10530.0 1.9345e-05
10550.0 1.9477e-05
10570.0 1.9607e-05
10590.0 1.9736e-05
10610.0 1.9866e-05
10630.0 1.9993e-05
10650.0 2.0118e-05
10670.0 2.0245e-05
10690.0 2.037e-05
10710.0 2.0491e-05
10730.0 2.0613e-05
10750.0 2.0735e-05
10770.0 2.0853e-05
10790.0 2.0969e-05
10810.0 2.1085e-05
10830.0 2.1197e-05
10850.0 2.1304e-05
10870.0 2.1408e-05
10890.0 2.1499e-05
10910.0 2.1569e-05
10930.0 2.1608e-05
10950.0 2.1599e-05
10970.0 2.1526e-05
10990.0 2.1382e-05
11010.0 2.1142e-05
11030.0 2.0806e-05
11050.0 2.0396e-05
11070.0 1.9906e-05
11090.0 1.9317e-05
11110.0 1.8708e-05
11130.0 1.8072e-05
11150.0 1.7388e-05
11170.0 1.6683e-05
11190.0 1.5999e-05
11210.0 1.5292e-05
11230.0 1.4568e-05
11250.0 1.3875e-05
11270.0 1.3211e-05
11290.0 1.2545e-05
11310.0 1.1914e-05
11330.0 1.1358e-05
11350.0 1.0833e-05
11370.0 1.0348e-05
11390.0 9.9287e-06
11410.0 9.5616e-06
11430.0 9.2205e-06
11450.0 8.9266e-06
11470.0 8.6725e-06
11490.0 8.436e-06
11510.0 8.2082e-06
11530.0 7.9967e-06
11550.0 7.7867e-06
11570.0 7.5626e-06
11590.0 7.3305e-06
11610.0 7.0943e-06
11630.0 6.8373e-06
11650.0 6.562e-06
11670.0 6.2908e-06
11690.0 6.0157e-06
11710.0 5.7319e-06
11730.0 5.4569e-06
11750.0 5.2024e-06
11770.0 4.9529e-06
11790.0 4.719e-06
11810.0 4.5131e-06
11830.0 4.3289e-06
11850.0 4.1593e-06
11870.0 4.0174e-06
11890.0 3.8995e-06
11910.0 3.7959e-06
11930.0 3.7068e-06
11950.0 3.6326e-06
11970.0 3.5663e-06
11990.0 3.5037e-06
12010.0 3.4457e-06
12030.0 3.3899e-06
12050.0 3.3321e-06
12070.0 3.2721e-06
12090.0 3.2142e-06
12110.0 3.1554e-06
12130.0 3.0965e-06
12150.0 3.0422e-06
12170.0 2.9948e-06
12190.0 2.9538e-06
12210.0 2.9253e-06
12230.0 2.9114e-06
12250.0 2.9137e-06
12270.0 2.9356e-06
12290.0 2.9772e-06
12310.0 3.0367e-06
12330.0 3.1201e-06
12350.0 3.2241e-06
12370.0 3.3425e-06
12390.0 3.4791e-06
12410.0 3.6391e-06
12430.0 3.8017e-06
12450.0 3.9701e-06
12470.0 4.1492e-06
12490.0 4.329e-06
12510.0 4.4978e-06
12530.0 4.6656e-06
12550.0 4.8276e-06
12570.0 4.9705e-06
12590.0 5.096e-06
12610.0 5.2078e-06
12630.0 5.297e-06
12650.0 5.3585e-06
12670.0 5.3989e-06
12690.0 5.4152e-06
12710.0 5.4062e-06
12730.0 5.3749e-06
12750.0 5.319e-06
12770.0 5.2422e-06
12790.0 5.1492e-06
12810.0 5.0381e-06
12830.0 4.9095e-06
12850.0 4.7751e-06
12870.0 4.633e-06
12890.0 4.4792e-06
12910.0 4.3228e-06
12930.0 4.1687e-06
12950.0 4.0079e-06
12970.0 3.8442e-06
12990.0 3.6894e-06
13010.0 3.5365e-06
13030.0 3.3818e-06
13050.0 3.2333e-06
13070.0 3.0942e-06
13090.0 2.9546e-06
13110.0 2.8195e-06
13130.0 2.695e-06
13150.0 2.577e-06
13170.0 2.4616e-06
13190.0 2.3588e-06
13210.0 2.2684e-06
13230.0 2.1857e-06
13250.0 2.1145e-06
13270.0 2.0584e-06
13290.0 2.0147e-06
13310.0 1.9846e-06
13330.0 1.9709e-06
13350.0 1.9725e-06
13370.0 1.9902e-06
13390.0 2.0249e-06
13410.0 2.0719e-06
13430.0 2.133e-06
13450.0 2.2084e-06
13470.0 2.2921e-06
13490.0 2.3808e-06
13510.0 2.4808e-06
13530.0 2.5821e-06
13550.0 2.6792e-06
13570.0 2.7749e-06
13590.0 2.8681e-06
13610.0 2.9511e-06
13630.0 3.0235e-06
13650.0 3.0896e-06
13670.0 3.1445e-06
13690.0 3.187e-06
13710.0 3.2198e-06
13730.0 3.2432e-06
13750.0 3.2549e-06
13770.0 3.2576e-06
13790.0 3.2517e-06
13810.0 3.2373e-06
13830.0 3.2161e-06
13850.0 3.1874e-06
13870.0 3.1512e-06
13890.0 3.1097e-06
13910.0 3.063e-06
13930.0 3.0089e-06
13950.0 2.9499e-06
13970.0 2.8896e-06
13990.0 2.8238e-06
14010.0 2.7539e-06
14030.0 2.6842e-06
14050.0 2.6139e-06
14070.0 2.5398e-06
14090.0 2.4687e-06
14110.0 2.4019e-06
14130.0 2.3371e-06
14150.0 2.2762e-06
14170.0 2.2242e-06
14190.0 2.1792e-06
14210.0 2.1411e-06
14230.0 2.1128e-06
14250.0 2.0945e-06
14270.0 2.0857e-06
14290.0 2.0876e-06
14310.0 2.0992e-06
14330.0 2.1201e-06
14350.0 2.1508e-06
14370.0 2.1892e-06
14390.0 2.2327e-06
14410.0 2.2839e-06
14430.0 2.3402e-06
14450.0 2.3976e-06
14470.0 2.4573e-06
14490.0 2.5207e-06
14510.0 2.5813e-06
14530.0 2.6389e-06
14550.0 2.6964e-06
14570.0 2.7517e-06
14590.0 2.802e-06
14610.0 2.8506e-06
14630.0 2.8988e-06
14650.0 2.9436e-06
14670.0 2.9869e-06
14690.0 3.0321e-06
14710.0 3.0796e-06
14730.0 3.127e-06
14750.0 3.1796e-06
14770.0 3.2393e-06
14790.0 3.304e-06
14810.0 3.374e-06
14830.0 3.4571e-06
14850.0 3.5473e-06
14870.0 3.6415e-06
14890.0 3.743e-06
14910.0 3.8509e-06
14930.0 3.9547e-06
14950.0 4.0516e-06
14970.0 4.1433e-06
14990.0 4.2203e-06
15010.0 4.2791e-06
15030.0 4.3227e-06
15050.0 4.3516e-06
15070.0 4.3656e-06
15090.0 4.3706e-06
15110.0 4.3691e-06
15130.0 4.3636e-06
15150.0 4.3563e-06
15170.0 4.3475e-06
15190.0 4.3382e-06
15210.0 4.329e-06
15230.0 4.3198e-06
15250.0 4.3102e-06
15270.0 4.3008e-06
15290.0 4.2919e-06
15310.0 4.2827e-06
15330.0 4.2734e-06
15350.0 4.2645e-06
15370.0 4.2557e-06
15390.0 4.2464e-06
15410.0 4.2374e-06
15430.0 4.2287e-06
15450.0 4.2198e-06
15470.0 4.2108e-06
15490.0 4.2022e-06
15510.0 4.1936e-06
15530.0 4.1848e-06
15550.0 4.1761e-06
15570.0 4.1677e-06
15590.0 4.159e-06
15610.0 4.1502e-06
15630.0 4.1418e-06
15650.0 4.1334e-06
15670.0 4.1248e-06
15690.0 4.1163e-06
15710.0 4.1082e-06
15730.0 4.0997e-06
15750.0 4.0912e-06
15770.0 4.083e-06
15790.0 4.0748e-06
15810.0 4.0661e-06
15830.0 4.0579e-06
15850.0 4.0498e-06
15870.0 4.0415e-06
15890.0 4.0331e-06
15910.0 4.0252e-06
15930.0 4.017e-06
15950.0 4.0085e-06
15970.0 4.0004e-06
15990.0 3.9924e-06
16010.0 3.9841e-06
16030.0 3.9757e-06
16050.0 3.9679e-06
16070.0 3.9598e-06
16090.0 3.9515e-06
16110.0 3.9434e-06
16130.0 3.9356e-06
16150.0 3.9271e-06
16170.0 3.9189e-06
16190.0 3.911e-06
16210.0 3.9029e-06
16230.0 3.8945e-06
16250.0 3.8865e-06
16270.0 3.8786e-06
16290.0 3.8703e-06
16310.0 3.8621e-06
16330.0 3.8542e-06
16350.0 3.8461e-06
16370.0 3.8375e-06
16390.0 3.8295e-06
16410.0 3.8215e-06
16430.0 3.8132e-06
16450.0 3.805e-06
16470.0 3.7971e-06
16490.0 3.7888e-06
16510.0 3.7804e-06
16530.0 3.7723e-06
16550.0 3.7642e-06
16570.0 3.7557e-06
16590.0 3.7473e-06
16610.0 3.7394e-06
16630.0 3.7311e-06
16650.0 3.7226e-06
16670.0 3.7145e-06
16690.0 3.7063e-06
16710.0 3.6976e-06
16730.0 3.6892e-06
16750.0 3.6811e-06
16770.0 3.6726e-06
16790.0 3.6639e-06
16810.0 3.6557e-06
16830.0 3.6474e-06
16850.0 3.6387e-06
16870.0 3.6303e-06
16890.0 3.622e-06
16910.0 3.6133e-06
16930.0 3.6045e-06
16950.0 3.5961e-06
16970.0 3.5876e-06
16990.0 3.5788e-06
17010.0 3.5702e-06
17030.0 3.5619e-06
17050.0 3.553e-06
17070.0 3.5442e-06
17090.0 3.5356e-06
17110.0 3.527e-06
17130.0 3.5179e-06
17150.0 3.5091e-06
17170.0 3.5005e-06
17190.0 3.4916e-06
17210.0 3.4827e-06
17230.0 3.474e-06
17250.0 3.4652e-06
17270.0 3.456e-06
17290.0 3.4471e-06
17310.0 3.4383e-06
17330.0 3.4291e-06
17350.0 3.4199e-06
17370.0 3.4112e-06
17390.0 3.4022e-06
17410.0 3.3929e-06
17430.0 3.3839e-06
17450.0 3.375e-06
17470.0 3.3655e-06
17490.0 3.3562e-06
17510.0 3.3473e-06
17530.0 3.3381e-06
17550.0 3.3286e-06
17570.0 3.3195e-06
17590.0 3.3104e-06
17610.0 3.3009e-06
17630.0 3.2915e-06
17650.0 3.2824e-06
17670.0 3.273e-06
17690.0 3.2632e-06
17710.0 3.254e-06
17730.0 3.2447e-06
17750.0 3.2351e-06
17770.0 3.2256e-06
17790.0 3.2165e-06
17810.0 3.2068e-06
17830.0 3.1971e-06
17850.0 3.1877e-06
17870.0 3.1782e-06
17890.0 3.1684e-06
17910.0 3.1586e-06
17930.0 3.1493e-06
17950.0 3.1396e-06
17970.0 3.1298e-06
17990.0 3.1204e-06
18010.0 3.1108e-06
18030.0 3.1007e-06
18050.0 3.091e-06
18070.0 3.0815e-06
18090.0 3.0716e-06
18110.0 3.0616e-06
18130.0 3.0521e-06
18150.0 3.0424e-06
18170.0 3.0323e-06
18190.0 3.0225e-06
18210.0 3.0129e-06
18230.0 3.0029e-06
18250.0 2.9927e-06
18270.0 2.9831e-06
18290.0 2.9732e-06
18310.0 2.9631e-06
18330.0 2.9532e-06
18350.0 2.9436e-06
18370.0 2.9334e-06
18390.0 2.9233e-06
18410.0 2.9136e-06
18430.0 2.9036e-06
18450.0 2.8933e-06
18470.0 2.8833e-06
18490.0 2.8735e-06
18510.0 2.8634e-06
18530.0 2.8533e-06
18550.0 2.8435e-06
18570.0 2.8334e-06
18590.0 2.8231e-06
18610.0 2.8131e-06
18630.0 2.8032e-06
18650.0 2.7929e-06
18670.0 2.7826e-06
18690.0 2.7728e-06
18710.0 2.7627e-06
18730.0 2.7525e-06
18750.0 2.7425e-06
18770.0 2.7326e-06
18790.0 2.7221e-06
18810.0 2.7118e-06
18830.0 2.7019e-06
18850.0 2.6918e-06
18870.0 2.6814e-06
18890.0 2.6714e-06
18910.0 2.6615e-06
18930.0 2.6511e-06
18950.0 2.6409e-06
18970.0 2.6309e-06
18990.0 2.6207e-06
19010.0 2.6102e-06
19030.0 2.6002e-06
19050.0 2.5902e-06
19070.0 2.5798e-06
19090.0 2.5697e-06
19110.0 2.5598e-06
19130.0 2.5495e-06
19150.0 2.5391e-06
19170.0 2.5291e-06
19190.0 2.519e-06
19210.0 2.5085e-06
19230.0 2.4983e-06
19250.0 2.4884e-06
19270.0 2.4782e-06
19290.0 2.4679e-06
19310.0 2.4579e-06
19330.0 2.4479e-06
19350.0 2.4373e-06
19370.0 2.4272e-06
19390.0 2.4172e-06
19410.0 2.4069e-06
19430.0 2.3966e-06
19450.0 2.3867e-06
19470.0 2.3766e-06
19490.0 2.3663e-06
19510.0 2.3561e-06
19530.0 2.3462e-06
19550.0 2.3359e-06
19570.0 2.3255e-06
19590.0 2.3156e-06
19610.0 2.3055e-06
19630.0 2.2952e-06
19650.0 2.2852e-06
19670.0 2.2753e-06
19690.0 2.265e-06
19710.0 2.2548e-06
19730.0 2.2449e-06
19750.0 2.2348e-06
19770.0 2.2244e-06
19790.0 2.2144e-06
19810.0 2.2045e-06
19830.0 2.1942e-06
19850.0 2.1839e-06
19870.0 2.1738e-06
19890.0 2.163e-06
19910.0 2.151e-06
19930.0 2.1383e-06
19950.0 2.1237e-06
19970.0 2.1057e-06
19990.0 2.0841e-06
20010.0 1.8542e-06
20030.0 1.8273e-06
20050.0 1.7959e-06
20070.0 1.7619e-06
20090.0 1.7253e-06
20110.0 1.6839e-06
20130.0 1.642e-06
20150.0 1.6004e-06
20170.0 1.5574e-06
20190.0 1.5137e-06
20210.0 1.4724e-06
20230.0 1.4322e-06
20250.0 1.3918e-06
20270.0 1.3544e-06
20290.0 1.3202e-06
20310.0 1.2877e-06
20330.0 1.2574e-06
20350.0 1.2322e-06
20370.0 1.2098e-06
20390.0 1.1902e-06
20410.0 1.1744e-06
20430.0 1.1622e-06
20450.0 1.1525e-06
20470.0 1.146e-06
20490.0 1.1425e-06
20510.0 1.1415e-06
20530.0 1.1429e-06
20550.0 1.1465e-06
20570.0 1.1516e-06
20590.0 1.1586e-06
20610.0 1.167e-06
20630.0 1.1762e-06
20650.0 1.1866e-06
20670.0 1.1985e-06
20690.0 1.2106e-06
20710.0 1.2231e-06
20730.0 1.2365e-06
20750.0 1.2506e-06
20770.0 1.2644e-06
20790.0 1.279e-06
20810.0 1.2943e-06
20830.0 1.3096e-06
20850.0 1.325e-06
20870.0 1.3415e-06
20890.0 1.3582e-06
20910.0 1.3744e-06
20930.0 1.3912e-06
20950.0 1.4086e-06
20970.0 1.4256e-06
20990.0 1.4423e-06
21010.0 1.4599e-06
21030.0 1.4771e-06
21050.0 1.4935e-06
21070.0 1.5099e-06
21090.0 1.5263e-06
21110.0 1.5413e-06
21130.0 1.5554e-06
21150.0 1.5691e-06
21170.0 1.5814e-06
21190.0 1.5921e-06
21210.0 1.6016e-06
21230.0 1.6096e-06
21250.0 1.6152e-06
21270.0 1.6188e-06
21290.0 1.6202e-06
21310.0 1.6189e-06
21330.0 1.6151e-06
21350.0 1.6084e-06
21370.0 1.5985e-06
21390.0 1.586e-06
21410.0 1.5707e-06
21430.0 1.5513e-06
21450.0 1.5295e-06
21470.0 1.5057e-06
21490.0 1.4789e-06
21510.0 1.4495e-06
21530.0 1.4195e-06
21550.0 1.3882e-06
21570.0 1.3548e-06
21590.0 1.3219e-06
21610.0 1.2902e-06
21630.0 1.2584e-06
21650.0 1.2273e-06
21670.0 1.2004e-06
21690.0 1.1756e-06
21710.0 1.1532e-06
21730.0 1.1349e-06
21750.0 1.1207e-06
21770.0 1.11e-06
21790.0 1.1038e-06
21810.0 1.1021e-06
21830.0 1.1045e-06
21850.0 1.1114e-06
21870.0 1.1222e-06
21890.0 1.1361e-06
21910.0 1.1539e-06
21930.0 1.1749e-06
21950.0 1.1975e-06
21970.0 1.2226e-06
21990.0 1.2508e-06
22010.0 1.279e-06
22030.0 1.3076e-06
22050.0 1.3376e-06
22070.0 1.3678e-06
22090.0 1.3965e-06
22110.0 1.4253e-06
22130.0 1.4541e-06
22150.0 1.481e-06
22170.0 1.5063e-06
22190.0 1.5314e-06
22210.0 1.5548e-06
22230.0 1.5754e-06
22250.0 1.5948e-06
22270.0 1.6126e-06
22290.0 1.6278e-06
22310.0 1.6409e-06
22330.0 1.6525e-06
22350.0 1.6614e-06
22370.0 1.6676e-06
22390.0 1.6716e-06
22410.0 1.6728e-06
22430.0 1.6712e-06
22450.0 1.6669e-06
22470.0 1.6595e-06
22490.0 1.649e-06
22510.0 1.636e-06
22530.0 1.6193e-06
22550.0 1.5991e-06
22570.0 1.5766e-06
22590.0 1.5512e-06
22610.0 1.5221e-06
