#lamb flux
1010.0 0.00014084
1030.0 0.00014142
1050.0 0.00014206
1070.0 0.00014539
1090.0 0.00015455
1110.0 0.00016166
1130.0 0.00016674
1150.0 0.00017081
1170.0 0.00017378
1190.0 0.00017465
1210.0 0.00017485
1230.0 0.00017479
1250.0 0.00017405
1270.0 0.00017271
1290.0 0.00017185
1310.0 0.00017092
1330.0 0.00016971
1350.0 0.00016888
1370.0 0.00016868
1390.0 0.00016877
1410.0 0.0001693
1430.0 0.00017094
1450.0 0.00017352
1470.0 0.00017696
1490.0 0.00018175
1510.0 0.00018836
1530.0 0.00019626
1550.0 0.00020593
1570.0 0.00021794
1590.0 0.00023234
1610.0 0.0002491
1630.0 0.00026921
1650.0 0.00029292
1670.0 0.00032014
1690.0 0.00035141
1710.0 0.0003877
1730.0 0.00042923
1750.0 0.00047566
1770.0 0.00052846
1790.0 0.00058807
1810.0 0.00065418
1830.0 0.00072722
1850.0 0.00080879
1870.0 0.00089766
1890.0 0.00099351
1910.0 0.0010972
1930.0 0.0012087
1950.0 0.0013258
1970.0 0.0014482
1990.0 0.0015766
2010.0 0.0017083
2030.0 0.0018413
2050.0 0.0019763
2070.0 0.0021118
2090.0 0.0022432
2110.0 0.0023708
2130.0 0.0024945
2150.0 0.002611
2170.0 0.002718
2190.0 0.0028178
2210.0 0.0029084
2230.0 0.002987
2250.0 0.003055
2270.0 0.0031145
2290.0 0.0031621
2310.0 0.0031977
2330.0 0.0032252
2350.0 0.0032443
2370.0 0.0032537
2390.0 0.0032567
2410.0 0.0032565
2430.0 0.0032512
2450.0 0.0032426
2470.0 0.0032352
2490.0 0.0032307
2510.0 0.0032277
2530.0 0.0032355
2550.0 0.0032657
2570.0 0.0033273
2590.0 0.0034329
2610.0 0.0036188
2630.0 0.0038912
2650.0 0.004235
2670.0 0.004661
2690.0 0.0051643
2710.0 0.0056871
2730.0 0.006208
2750.0 0.0067549
2770.0 0.007293
2790.0 0.0078082
2810.0 0.0083356
2830.0 0.0089053
2850.0 0.0094605
2870.0 0.010031
2890.0 0.010646
2910.0 0.011284
2930.0 0.01192
2950.0 0.012603
2970.0 0.013328
2990.0 0.01406
3010.0 0.014817
3030.0 0.015626
3050.0 0.016461
3070.0 0.017275
3090.0 0.018105
3110.0 0.018912
3130.0 0.019633
3150.0 0.020251
3170.0 0.020743
3190.0 0.021087
3210.0 0.021334
3230.0 0.021539
3250.0 0.02178
3270.0 0.022148
3290.0 0.02269
3310.0 0.023453
3330.0 0.024414
3350.0 0.025511
3370.0 0.026725
3390.0 0.027973
3410.0 0.029242
3430.0 0.03181
3450.0 0.03371
3470.0 0.035389
3490.0 0.03593
3510.0 0.035459
3530.0 0.040179
3550.0 0.047798
3570.0 0.05255
3590.0 0.056155
3610.0 0.056628
3630.0 0.053716
3650.0 0.057731
3670.0 0.069056
3690.0 0.077597
3710.0 0.081022
3730.0 0.08294
3750.0 0.087256
3770.0 0.087455
3790.0 0.083821
3810.0 0.078892
3830.0 0.073586
3850.0 0.073381
3870.0 0.077864
3890.0 0.08226
3910.0 0.085663
3930.0 0.086693
3950.0 0.092511
3970.0 0.098832
3990.0 0.095214
4010.0 0.08505
4030.0 0.075535
4050.0 0.072712
4070.0 0.075696
4090.0 0.076309
4110.0 0.074166
4130.0 0.07323
4150.0 0.075171
4170.0 0.082979
4190.0 0.089859
4210.0 0.087044
4230.0 0.081249
4250.0 0.078127
4270.0 0.076351
4290.0 0.077707
4310.0 0.080034
4330.0 0.07622
4350.0 0.067048
4370.0 0.059353
4390.0 0.054072
4410.0 0.049916
4430.0 0.049934
4450.0 0.054316
4470.0 0.058732
4490.0 0.063918
4510.0 0.072308
4530.0 0.088458
4550.0 0.10677
4570.0 0.11776
4590.0 0.12593
4610.0 0.1354
4630.0 0.13999
4650.0 0.1304
4670.0 0.1094
4690.0 0.092988
4710.0 0.08735
4730.0 0.084437
4750.0 0.075664
4770.0 0.068656
4790.0 0.071301
4810.0 0.077485
4830.0 0.077152
4850.0 0.071123
4870.0 0.069664
4890.0 0.072679
4910.0 0.076035
4930.0 0.075948
4950.0 0.073845
4970.0 0.070339
4990.0 0.064652
5010.0 0.059379
5030.0 0.056385
5050.0 0.055
5070.0 0.054066
5090.0 0.0532
5110.0 0.053122
5130.0 0.05394
5150.0 0.056969
5170.0 0.062912
5190.0 0.070127
5210.0 0.077672
5230.0 0.08224
5250.0 0.084589
5270.0 0.088874
5290.0 0.093038
5310.0 0.093989
5330.0 0.090426
5350.0 0.086299
5370.0 0.08625
5390.0 0.090844
5410.0 0.095277
5430.0 0.096769
5450.0 0.096145
5470.0 0.093285
5490.0 0.089786
5510.0 0.087986
5530.0 0.088305
5550.0 0.089562
5570.0 0.090375
5590.0 0.087636
5610.0 0.082579
5630.0 0.077623
5650.0 0.073725
5670.0 0.071321
5690.0 0.068388
5710.0 0.066137
5730.0 0.067058
5750.0 0.066866
5770.0 0.065423
5790.0 0.065953
5810.0 0.067425
5830.0 0.0688
5850.0 0.069261
5870.0 0.067778
5890.0 0.064831
5910.0 0.061473
5930.0 0.056728
5950.0 0.053325
5970.0 0.053208
5990.0 0.05484
6010.0 0.055428
6030.0 0.053469
6050.0 0.052668
6070.0 0.054699
6090.0 0.057409
6110.0 0.058418
6130.0 0.056421
6150.0 0.053133
6170.0 0.05097
6190.0 0.048831
6210.0 0.046544
6230.0 0.044804
6250.0 0.044271
6270.0 0.045415
6290.0 0.047471
6310.0 0.050114
6330.0 0.053014
6350.0 0.055422
6370.0 0.056501
6390.0 0.056613
6410.0 0.057206
6430.0 0.057908
6450.0 0.058102
6470.0 0.058848
6490.0 0.059749
6510.0 0.059997
6530.0 0.059355
6550.0 0.057675
6570.0 0.055556
6590.0 0.053937
6610.0 0.052739
6630.0 0.051687
6650.0 0.049909
6670.0 0.047801
6690.0 0.046223
6710.0 0.045245
6730.0 0.044944
6750.0 0.044393
6770.0 0.043502
6790.0 0.042827
6810.0 0.042288
6830.0 0.042177
6850.0 0.042209
6870.0 0.041883
6890.0 0.04162
6910.0 0.040748
6930.0 0.039797
6950.0 0.039576
6970.0 0.038909
6990.0 0.037695
7010.0 0.037118
7030.0 0.036652
7050.0 0.035828
7070.0 0.03485
7090.0 0.034155
7110.0 0.034513
7130.0 0.035857
7150.0 0.037391
7170.0 0.03838
7190.0 0.038092
7210.0 0.037354
7230.0 0.036869
7250.0 0.036381
7270.0 0.036065
7290.0 0.0356
7310.0 0.035371
7330.0 0.035985
7350.0 0.03669
7370.0 0.037064
7390.0 0.036701
7410.0 0.035804
7430.0 0.035369
7450.0 0.034971
7470.0 0.03327
7490.0 0.03203
7510.0 0.030689
7530.0 0.029707
7550.0 0.029586
7570.0 0.029939
7590.0 0.029767
7610.0 0.029476
7630.0 0.029355
7650.0 0.029239
7670.0 0.0298
7690.0 0.030887
7710.0 0.032175
7730.0 0.033157
7750.0 0.034115
7770.0 0.034595
7790.0 0.034512
7810.0 0.033993
7830.0 0.034359
7850.0 0.034313
7870.0 0.033204
7890.0 0.032013
7910.0 0.031
7930.0 0.029971
7950.0 0.029253
7970.0 0.029146
7990.0 0.029511
8010.0 0.029191
8030.0 0.028855
8050.0 0.028364
8070.0 0.027823
8090.0 0.027259
8110.0 0.027296
8130.0 0.027508
8150.0 0.027464
8170.0 0.027265
8190.0 0.026701
8210.0 0.025351
8230.0 0.023641
8250.0 0.022587
8270.0 0.021918
8290.0 0.021498
8310.0 0.021561
8330.0 0.021906
8350.0 0.021434
8370.0 0.020937
8390.0 0.021318
8410.0 0.022291
8430.0 0.023716
8450.0 0.025099
8470.0 0.025661
8490.0 0.0261
8510.0 0.02622
8530.0 0.026366
8550.0 0.026676
8570.0 0.026816
8590.0 0.026949
8610.0 0.027694
8630.0 0.027995
8650.0 0.027409
8670.0 0.027395
8690.0 0.027607
8710.0 0.027564
8730.0 0.027332
8750.0 0.026563
8770.0 0.02622
8790.0 0.026026
8810.0 0.025715
8830.0 0.024268
8850.0 0.022333
8870.0 0.020917
8890.0 0.020116
8910.0 0.018931
8930.0 0.017626
8950.0 0.016963
8970.0 0.016876
8990.0 0.016966
9010.0 0.016883
9030.0 0.016764
9050.0 0.016654
9070.0 0.016552
9090.0 0.016452
9110.0 0.016352
9130.0 0.016252
9150.0 0.016153
9170.0 0.016054
9190.0 0.015956
9210.0 0.015857
9230.0 0.015759
9250.0 0.015662
9270.0 0.015565
9290.0 0.015469
9310.0 0.015373
9330.0 0.015277
9350.0 0.015182
9370.0 0.015087
9390.0 0.014993
9410.0 0.014898
9430.0 0.014804
9450.0 0.014707
9470.0 0.014612
9490.0 0.014524
9510.0 0.014434
9530.0 0.014344
9550.0 0.014253
9570.0 0.014163
9590.0 0.014074
9610.0 0.013985
9630.0 0.013896
9650.0 0.013807
9670.0 0.01372
9690.0 0.013632
9710.0 0.013545
9730.0 0.013459
9750.0 0.013373
9770.0 0.013287
9790.0 0.013202
9810.0 0.013117
9830.0 0.013031
9850.0 0.012936
9870.0 0.012855
9890.0 0.012776
9910.0 0.012696
9930.0 0.012614
9950.0 0.012535
9970.0 0.012453
9990.0 0.012371
10010.0 0.012278
10030.0 0.012193
10050.0 0.012119
10070.0 0.012044
10090.0 0.011969
10110.0 0.011887
10130.0 0.011789
10150.0 0.011714
10170.0 0.011643
10190.0 0.011567
10210.0 0.011493
10230.0 0.011419
10250.0 0.011341
10270.0 0.011263
10290.0 0.011188
10310.0 0.01111
10330.0 0.01103
10350.0 0.010954
10370.0 0.010878
10390.0 0.010799
10410.0 0.010721
10430.0 0.010647
10450.0 0.01057
10470.0 0.010491
10490.0 0.010416
10510.0 0.01034
10530.0 0.010261
10550.0 0.010183
10570.0 0.010108
10590.0 0.010031
10610.0 0.0099522
10630.0 0.0098768
10650.0 0.009801
10670.0 0.0097215
10690.0 0.0096438
10710.0 0.0095681
10730.0 0.0094898
10750.0 0.009409
10770.0 0.0093333
10790.0 0.0092564
10810.0 0.0091767
10830.0 0.0090985
10850.0 0.0090229
10870.0 0.0089425
10890.0 0.0088624
10910.0 0.0087858
10930.0 0.0087091
10950.0 0.0086307
10970.0 0.0085556
10990.0 0.0084849
11010.0 0.0086532
11030.0 0.0085885
11050.0 0.0085268
11070.0 0.0084645
11090.0 0.0083983
11110.0 0.0083348
11130.0 0.0082716
11150.0 0.0082061
11170.0 0.0081405
11190.0 0.0080784
11210.0 0.008016
11230.0 0.0079537
11250.0 0.0078954
11270.0 0.0078403
11290.0 0.0077856
11310.0 0.0077336
11330.0 0.0076869
11350.0 0.0076413
11370.0 0.0075969
11390.0 0.0075555
11410.0 0.0075159
11430.0 0.007475
11450.0 0.0074349
11470.0 0.0073956
11490.0 0.0073546
11510.0 0.0073109
11530.0 0.0072669
11550.0 0.007221
11570.0 0.0071708
11590.0 0.007118
11610.0 0.0070638
11630.0 0.0070048
11650.0 0.0069412
11670.0 0.0068774
11690.0 0.0068111
11710.0 0.0067405
11730.0 0.0066688
11750.0 0.0065984
11770.0 0.0065246
11790.0 0.0064494
11810.0 0.0063763
11830.0 0.0063036
11850.0 0.006228
11870.0 0.0061553
11890.0 0.0060858
11910.0 0.0060156
11930.0 0.0059463
11950.0 0.0058811
11970.0 0.0058173
11990.0 0.0057531
12010.0 0.0056927
12030.0 0.0056358
12050.0 0.0055797
12070.0 0.0055254
12090.0 0.0054765
12110.0 0.0054298
12130.0 0.005385
12150.0 0.0053443
12170.0 0.0053078
12190.0 0.0052732
12210.0 0.0052429
12230.0 0.0052174
12250.0 0.0051956
12270.0 0.0051778
12290.0 0.0051643
12310.0 0.0051548
12330.0 0.0051489
12350.0 0.0051464
12370.0 0.0051465
12390.0 0.0051491
12410.0 0.0051542
12430.0 0.0051597
12450.0 0.0051656
12470.0 0.0051717
12490.0 0.005177
12510.0 0.0051802
12530.0 0.0051817
12550.0 0.0051806
12570.0 0.005176
12590.0 0.0051678
12610.0 0.0051554
12630.0 0.0051384
12650.0 0.0051173
12670.0 0.0050916
12690.0 0.0050609
12710.0 0.0050267
12730.0 0.0049892
12750.0 0.0049463
12770.0 0.0049011
12790.0 0.0048546
12810.0 0.0048053
12830.0 0.0047533
12850.0 0.0047024
12870.0 0.0046512
12890.0 0.0045982
12910.0 0.0045459
12930.0 0.0044953
12950.0 0.0044436
12970.0 0.0043916
12990.0 0.0043423
13010.0 0.0042937
13030.0 0.0042444
13050.0 0.0041967
13070.0 0.0041513
13090.0 0.0041053
13110.0 0.0040602
13130.0 0.0040176
13150.0 0.0039764
13170.0 0.003935
13190.0 0.0038967
13210.0 0.003861
13230.0 0.0038263
13250.0 0.0037932
13270.0 0.003763
13290.0 0.003734
13310.0 0.0037056
13330.0 0.0036792
13350.0 0.0036541
13370.0 0.0036292
13390.0 0.0036043
13410.0 0.0035808
13430.0 0.003557
13450.0 0.0035324
13470.0 0.0035081
13490.0 0.0034838
13510.0 0.0034579
13530.0 0.0034317
13550.0 0.0034059
13570.0 0.0033793
13590.0 0.0033517
13610.0 0.0033245
13630.0 0.0032978
13650.0 0.0032698
13670.0 0.0032419
13690.0 0.0032148
13710.0 0.0031873
13730.0 0.0031587
13750.0 0.0031315
13770.0 0.0031044
13790.0 0.0030766
13810.0 0.0030487
13830.0 0.0030219
13850.0 0.0029942
13870.0 0.0029658
13890.0 0.0029381
13910.0 0.0029104
13930.0 0.0028816
13950.0 0.0028527
13970.0 0.0028251
13990.0 0.0027965
14010.0 0.0027672
14030.0 0.0027388
14050.0 0.0027105
14070.0 0.0026806
14090.0 0.0026515
14110.0 0.0026233
14130.0 0.0025946
14150.0 0.0025657
14170.0 0.0025385
14190.0 0.0025121
14210.0 0.0024855
14230.0 0.0024604
14250.0 0.002437
14270.0 0.0024139
14290.0 0.0023917
14310.0 0.0023719
14330.0 0.0023532
14350.0 0.0023351
14370.0 0.0023186
14390.0 0.0023037
14410.0 0.0022891
14430.0 0.0022753
14450.0 0.0022628
14470.0 0.0022509
14490.0 0.0022389
14510.0 0.0022278
14530.0 0.0022175
14550.0 0.0022071
14570.0 0.0021969
14590.0 0.0021874
14610.0 0.0021779
14630.0 0.0021682
14650.0 0.0021591
14670.0 0.0021506
14690.0 0.002142
14710.0 0.002134
14730.0 0.0021271
14750.0 0.002121
14770.0 0.0021158
14790.0 0.0021122
14810.0 0.0021102
14830.0 0.0021099
14850.0 0.0021119
14870.0 0.002116
14890.0 0.0021223
14910.0 0.0021307
14930.0 0.0021405
14950.0 0.0021509
14970.0 0.0021618
14990.0 0.002172
15010.0 0.0021807
15030.0 0.0021879
15050.0 0.0021936
15070.0 0.0021975
15090.0 0.0022004
15110.0 0.0022025
15130.0 0.002204
15150.0 0.0022054
15170.0 0.0022067
15190.0 0.0022079
15210.0 0.0022092
15230.0 0.0022106
15250.0 0.0022119
15270.0 0.0022134
15290.0 0.002215
15310.0 0.0022167
15330.0 0.0022183
15350.0 0.0022201
15370.0 0.002222
15390.0 0.0022238
15410.0 0.0022258
15430.0 0.0022279
15450.0 0.00223
15470.0 0.0022321
15490.0 0.0022344
15510.0 0.0022367
15530.0 0.002239
15550.0 0.0022414
15570.0 0.002244
15590.0 0.0022465
15610.0 0.002249
15630.0 0.0022517
15650.0 0.0022544
15670.0 0.0022571
15690.0 0.00226
15710.0 0.0022629
15730.0 0.0022658
15750.0 0.0022687
15770.0 0.0022718
15790.0 0.0022749
15810.0 0.0022779
15830.0 0.0022811
15850.0 0.0022843
15870.0 0.0022876
15890.0 0.0022908
15910.0 0.0022942
15930.0 0.0022976
15950.0 0.0023009
15970.0 0.0023044
15990.0 0.0023079
16010.0 0.0023114
16030.0 0.0023149
16050.0 0.0023186
16070.0 0.0023222
16090.0 0.0023258
16110.0 0.0023295
16130.0 0.0023333
16150.0 0.0023369
16170.0 0.0023406
16190.0 0.0023445
16210.0 0.0023483
16230.0 0.002352
16250.0 0.0023559
16270.0 0.0023598
16290.0 0.0023637
16310.0 0.0023675
16330.0 0.0023715
16350.0 0.0023754
16370.0 0.0023792
16390.0 0.0023832
16410.0 0.0023871
16430.0 0.002391
16450.0 0.002395
16470.0 0.002399
16490.0 0.0024029
16510.0 0.0024068
16530.0 0.0024108
16550.0 0.0024147
16570.0 0.0024186
16590.0 0.0024225
16610.0 0.0024265
16630.0 0.0024304
16650.0 0.0024342
16670.0 0.0024381
16690.0 0.002442
16710.0 0.0024458
16730.0 0.0024496
16750.0 0.0024534
16770.0 0.0024572
16790.0 0.0024608
16810.0 0.0024646
16830.0 0.0024684
16850.0 0.0024719
16870.0 0.0024756
16890.0 0.0024793
16910.0 0.0024828
16930.0 0.0024862
16950.0 0.0024897
16970.0 0.0024932
16990.0 0.0024965
17010.0 0.0024999
17030.0 0.0025033
17050.0 0.0025065
17070.0 0.0025097
17090.0 0.0025129
17110.0 0.002516
17130.0 0.0025189
17150.0 0.0025219
17170.0 0.002525
17190.0 0.0025278
17210.0 0.0025306
17230.0 0.0025334
17250.0 0.0025361
17270.0 0.0025386
17290.0 0.0025412
17310.0 0.0025437
17330.0 0.0025461
17350.0 0.0025483
17370.0 0.0025507
17390.0 0.0025529
17410.0 0.0025549
17430.0 0.002557
17450.0 0.002559
17470.0 0.0025608
17490.0 0.0025625
17510.0 0.0025643
17530.0 0.0025659
17550.0 0.0025673
17570.0 0.0025688
17590.0 0.0025702
17610.0 0.0025714
17630.0 0.0025725
17650.0 0.0025736
17670.0 0.0025745
17690.0 0.0025752
17710.0 0.0025761
17730.0 0.0025768
17750.0 0.0025773
17770.0 0.0025777
17790.0 0.0025781
17810.0 0.0025783
17830.0 0.0025784
17850.0 0.0025784
17870.0 0.0025784
17890.0 0.0025781
17910.0 0.0025777
17930.0 0.0025774
17950.0 0.0025768
17970.0 0.0025761
17990.0 0.0025754
18010.0 0.0025746
18030.0 0.0025735
18050.0 0.0025723
18070.0 0.0025712
18090.0 0.0025698
18110.0 0.0025682
18130.0 0.0025667
18150.0 0.002565
18170.0 0.0025631
18190.0 0.0025611
18210.0 0.0025591
18230.0 0.0025568
18250.0 0.0025544
18270.0 0.002552
18290.0 0.0025495
18310.0 0.0025467
18330.0 0.0025439
18350.0 0.002541
18370.0 0.0025378
18390.0 0.0025346
18410.0 0.0025313
18430.0 0.0025279
18450.0 0.0025241
18470.0 0.0025204
18490.0 0.0025167
18510.0 0.0025127
18530.0 0.0025085
18550.0 0.0025044
18570.0 0.0025
18590.0 0.0024955
18610.0 0.0024909
18630.0 0.0024862
18650.0 0.0024813
18670.0 0.0024763
18690.0 0.0024713
18710.0 0.0024661
18730.0 0.0024606
18750.0 0.0024552
18770.0 0.0024497
18790.0 0.0024439
18810.0 0.002438
18830.0 0.0024321
18850.0 0.0024261
18870.0 0.0024198
18890.0 0.0024135
18910.0 0.0024072
18930.0 0.0024006
18950.0 0.0023939
18970.0 0.0023872
18990.0 0.0023803
19010.0 0.0023731
19030.0 0.0023661
19050.0 0.0023589
19070.0 0.0023515
19090.0 0.0023441
19110.0 0.0023367
19130.0 0.002329
19150.0 0.0023211
19170.0 0.0023133
19190.0 0.0023054
19210.0 0.0022972
19230.0 0.002289
19250.0 0.0022809
19270.0 0.0022725
19290.0 0.002264
19310.0 0.0022555
19330.0 0.0022469
19350.0 0.002238
19370.0 0.0022292
19390.0 0.0022204
19410.0 0.0022113
19430.0 0.0022022
19450.0 0.0021931
19470.0 0.0021838
19490.0 0.0021744
19510.0 0.002165
19530.0 0.0021556
19550.0 0.0021459
19570.0 0.0021362
19590.0 0.0021266
19610.0 0.0021168
19630.0 0.0021069
19650.0 0.0020969
19670.0 0.002087
19690.0 0.0020769
19710.0 0.0020667
19730.0 0.0020566
19750.0 0.0020464
19770.0 0.0020359
19790.0 0.0020256
19810.0 0.0020152
19830.0 0.0020047
19850.0 0.001994
19870.0 0.0019833
19890.0 0.0019722
19910.0 0.0019605
19930.0 0.0019481
19950.0 0.0019345
19970.0 0.0019191
19990.0 0.0019015
20010.0 0.001882
20030.0 0.0018599
20050.0 0.0018351
20070.0 0.0018089
20090.0 0.0017814
20110.0 0.0017516
20130.0 0.0017218
20150.0 0.0016926
20170.0 0.0016628
20190.0 0.001633
20210.0 0.0016046
20230.0 0.0015767
20250.0 0.0015488
20270.0 0.0015221
20290.0 0.0014969
20310.0 0.0014721
20330.0 0.0014479
20350.0 0.0014259
20370.0 0.0014048
20390.0 0.0013844
20410.0 0.0013654
20430.0 0.0013479
20450.0 0.0013309
20470.0 0.0013151
20490.0 0.0013006
20510.0 0.001287
20530.0 0.0012742
20550.0 0.0012624
20570.0 0.0012516
20590.0 0.0012413
20610.0 0.0012318
20630.0 0.0012229
20650.0 0.0012145
20670.0 0.0012065
20690.0 0.0011989
20710.0 0.0011915
20730.0 0.0011844
20750.0 0.0011773
20770.0 0.0011702
20790.0 0.001163
20810.0 0.0011557
20830.0 0.0011481
20850.0 0.0011402
20870.0 0.0011319
20890.0 0.0011231
20910.0 0.0011139
20930.0 0.0011042
20950.0 0.001094
20970.0 0.0010833
20990.0 0.0010722
21010.0 0.0010604
21030.0 0.0010482
21050.0 0.0010358
21070.0 0.0010229
21090.0 0.0010095
21110.0 0.00099615
21130.0 0.00098269
21150.0 0.00096885
21170.0 0.000955
21190.0 0.00094142
21210.0 0.00092761
21230.0 0.00091373
21250.0 0.00090032
21270.0 0.00088713
21290.0 0.00087392
21310.0 0.00086105
21330.0 0.00084878
21350.0 0.00083656
21370.0 0.00082459
21390.0 0.00081314
21410.0 0.00080204
21430.0 0.00079094
21450.0 0.00078034
21470.0 0.00077018
21490.0 0.00076016
21510.0 0.00075034
21530.0 0.00074094
21550.0 0.00073172
21570.0 0.00072255
21590.0 0.00071365
21610.0 0.00070501
21630.0 0.00069641
21650.0 0.00068785
21670.0 0.00067965
21690.0 0.0006715
21710.0 0.00066335
21730.0 0.00065537
21750.0 0.00064757
21770.0 0.00063965
21790.0 0.00063182
21810.0 0.00062414
21830.0 0.00061647
21850.0 0.00060872
21870.0 0.00060107
21890.0 0.00059352
21910.0 0.00058585
21930.0 0.00057817
21950.0 0.0005706
21970.0 0.00056298
21990.0 0.00055518
22010.0 0.00054754
22030.0 0.00053996
22050.0 0.00053227
22070.0 0.00052461
22090.0 0.00051715
22110.0 0.00050965
22130.0 0.00050213
22150.0 0.00049479
22170.0 0.0004876
22190.0 0.00048035
22210.0 0.00047324
22230.0 0.00046642
22250.0 0.00045964
22270.0 0.00045293
22290.0 0.00044645
22310.0 0.00044013
22330.0 0.00043379
22350.0 0.00042762
22370.0 0.00042164
22390.0 0.00041569
22410.0 0.00040975
22430.0 0.00040401
22450.0 0.00039835
22470.0 0.00039264
22490.0 0.000387
22510.0 0.00038149
22530.0 0.0003759
22550.0 0.00037028
22570.0 0.00036481
22590.0 0.00035935
22610.0 0.00035383
22630.0 0.00034839
22650.0 0.0003431
22670.0 0.00033777
22690.0 0.00033247
22710.0 0.00032735
22730.0 0.00032233
22750.0 0.00031728
22770.0 0.00031245
22790.0 0.00030783
22810.0 0.0003033
22830.0 0.00029892
22850.0 0.00029481
22870.0 0.00029088
22890.0 0.0002871
22910.0 0.00028361
22930.0 0.00028038
22950.0 0.00027737
22970.0 0.00027463
22990.0 0.00027219
23010.0 0.00026999
23030.0 0.00026805
23050.0 0.00026633
23070.0 0.00026481
23090.0 0.0002635
23110.0 0.00026233
23130.0 0.00026123
23150.0 0.00026021
23170.0 0.00025925
23190.0 0.00025825
23210.0 0.0002572
23230.0 0.00025613
23250.0 0.00025499
23270.0 0.00025374
23290.0 0.00025242
23310.0 0.00025102
23330.0 0.0002495
23350.0 0.0002479
23370.0 0.00024622
23390.0 0.00024446
23410.0 0.00024264
23430.0 0.00024077
23450.0 0.00023886
23470.0 0.00023692
23490.0 0.00023497
23510.0 0.00023299
23530.0 0.00023102
23550.0 0.00022908
23570.0 0.00022717
23590.0 0.00022531
23610.0 0.00022353
23630.0 0.00022185
23650.0 0.00022031
23670.0 0.00021896
23690.0 0.00021782
23710.0 0.00021695
23730.0 0.00021642
23750.0 0.00021618
23770.0 0.00021627
23790.0 0.0002168
23810.0 0.00021768
23830.0 0.0002188
23850.0 0.00022036
23870.0 0.00022227
23890.0 0.00022425
23910.0 0.00022641
23930.0 0.00022883
23950.0 0.00023124
23970.0 0.00023351
23990.0 0.00023588
24010.0 0.00023818
24030.0 0.00024021
24050.0 0.00024206
24070.0 0.00024385
