#lamb flux
1010.0 3.1976e-08
1030.0 3.5366e-08
1050.0 3.9265e-08
1070.0 4.3654e-08
1090.0 4.8639e-08
1110.0 5.3752e-08
1130.0 5.8898e-08
1150.0 6.4289e-08
1170.0 6.985e-08
1190.0 7.5122e-08
1210.0 8.0466e-08
1230.0 8.5988e-08
1250.0 9.1399e-08
1270.0 9.6653e-08
1290.0 1.0221e-07
1310.0 1.0775e-07
1330.0 1.1307e-07
1350.0 1.1845e-07
1370.0 1.2401e-07
1390.0 1.2943e-07
1410.0 1.3468e-07
1430.0 1.4018e-07
1450.0 1.4567e-07
1470.0 1.5098e-07
1490.0 1.5635e-07
1510.0 1.6202e-07
1530.0 1.6739e-07
1550.0 1.7269e-07
1570.0 1.7818e-07
1590.0 1.8367e-07
1610.0 1.8892e-07
1630.0 1.9433e-07
1650.0 1.9989e-07
1670.0 2.0527e-07
1690.0 2.1059e-07
1710.0 2.1611e-07
1730.0 2.2167e-07
1750.0 2.269e-07
1770.0 2.3229e-07
1790.0 2.378e-07
1810.0 2.4313e-07
1830.0 2.4838e-07
1850.0 2.5396e-07
1870.0 2.5941e-07
1890.0 2.6468e-07
1910.0 2.7007e-07
1930.0 2.756e-07
1950.0 2.8089e-07
1970.0 2.8613e-07
1990.0 2.9157e-07
2010.0 2.9694e-07
2030.0 3.0213e-07
2050.0 3.0749e-07
2070.0 3.13e-07
2090.0 3.1821e-07
2110.0 3.2341e-07
2130.0 3.2878e-07
2150.0 3.3406e-07
2170.0 3.3912e-07
2190.0 3.4438e-07
2210.0 3.4968e-07
2230.0 3.5478e-07
2250.0 3.5986e-07
2270.0 3.6518e-07
2290.0 3.7034e-07
2310.0 3.753e-07
2330.0 3.8046e-07
2350.0 3.8576e-07
2370.0 3.9103e-07
2390.0 3.9675e-07
2410.0 4.0351e-07
2430.0 4.113e-07
2450.0 4.2061e-07
2470.0 4.3254e-07
2490.0 4.4757e-07
2510.0 4.6465e-07
2530.0 4.8522e-07
2550.0 5.1096e-07
2570.0 5.4299e-07
2590.0 5.8465e-07
2610.0 6.4702e-07
2630.0 7.3607e-07
2650.0 8.5251e-07
2670.0 1.0031e-06
2690.0 1.1881e-06
2710.0 1.3855e-06
2730.0 1.5807e-06
2750.0 1.7729e-06
2770.0 1.94e-06
2790.0 2.0728e-06
2810.0 2.1781e-06
2830.0 2.2604e-06
2850.0 2.3166e-06
2870.0 2.3579e-06
2890.0 2.3905e-06
2910.0 2.4166e-06
2930.0 2.4379e-06
2950.0 2.4582e-06
2970.0 2.4781e-06
2990.0 2.4967e-06
3010.0 7.0571e-05
3030.0 7.1099e-05
3050.0 7.1609e-05
3070.0 7.2045e-05
3090.0 7.2421e-05
3110.0 7.2654e-05
3130.0 7.2644e-05
3150.0 7.2322e-05
3170.0 7.1547e-05
3190.0 7.0331e-05
3210.0 6.8788e-05
3230.0 6.7022e-05
3250.0 6.5279e-05
3270.0 6.4006e-05
3290.0 6.3299e-05
3310.0 6.3413e-05
3330.0 6.4331e-05
3350.0 6.5929e-05
3370.0 6.8211e-05
3390.0 7.1087e-05
3410.0 7.4217e-05
3430.0 7.773e-05
3450.0 8.1775e-05
3470.0 8.6193e-05
3490.0 9.0874e-05
3510.0 9.6165e-05
3530.0 0.00010183
3550.0 0.00010757
3570.0 0.00011355
3590.0 0.00012006
3610.0 0.00012677
3630.0 0.00013345
3650.0 0.00014039
3670.0 0.00014672
3690.0 0.00015145
3710.0 0.00015417
3730.0 0.00015426
3750.0 0.00015211
3770.0 0.00015127
3790.0 0.00015037
3810.0 0.00014667
3830.0 0.00015121
3850.0 0.00016907
3870.0 0.00017888
3890.0 0.00017806
3910.0 0.00017882
3930.0 0.00018353
3950.0 0.00018643
3970.0 0.00016985
3990.0 0.00014615
4010.0 0.00043803
4030.0 0.00053074
4050.0 0.00060845
4070.0 0.00052794
4090.0 0.00047815
4110.0 0.00042192
4130.0 0.00038834
4150.0 0.00041307
4170.0 0.00040689
4190.0 0.00043372
4210.0 0.00042975
4230.0 0.00045456
4250.0 0.00053776
4270.0 0.00054408
4290.0 0.00050136
4310.0 0.00052095
4330.0 0.00055414
4350.0 0.00062132
4370.0 0.00070708
4390.0 0.00066352
4410.0 0.00049023
4430.0 0.00041501
4450.0 0.00038134
4470.0 0.00029269
4490.0 0.00031585
4510.0 0.0004771
4530.0 0.00055024
4550.0 0.00055501
4570.0 0.00062453
4590.0 0.0007114
4610.0 0.00095951
4630.0 0.0012462
4650.0 0.0013515
4670.0 0.0012516
4690.0 0.0011943
4710.0 0.0012624
4730.0 0.0011914
4750.0 0.0008907
4770.0 0.00065336
4790.0 0.00061011
4810.0 0.00058153
4830.0 0.00053239
4850.0 0.0005842
4870.0 0.00077179
4890.0 0.00091016
4910.0 0.00079855
4930.0 0.0007066
4950.0 0.00077631
4970.0 0.00099557
4990.0 0.0013492
5010.0 0.0015521
5030.0 0.0013686
5050.0 0.00092595
5070.0 0.00061024
5090.0 0.00049207
5110.0 0.00050604
5130.0 0.00058405
5150.0 0.00063278
5170.0 0.00062328
5190.0 0.00058242
5210.0 0.00060876
5230.0 0.00063995
5250.0 0.00068969
5270.0 0.00074412
5290.0 0.00082465
5310.0 0.00095986
5330.0 0.0010622
5350.0 0.0010554
5370.0 0.0011086
5390.0 0.0012722
5410.0 0.0012711
5430.0 0.0011241
5450.0 0.0010328
5470.0 0.0010966
5490.0 0.0013398
5510.0 0.0016752
5530.0 0.0019213
5550.0 0.001857
5570.0 0.0016882
5590.0 0.0014679
5610.0 0.0013537
5630.0 0.0013127
5650.0 0.0012502
5670.0 0.0011847
5690.0 0.0010591
5710.0 0.0010326
5730.0 0.00095123
5750.0 0.00067067
5770.0 0.00052324
5790.0 0.00059294
5810.0 0.00066954
5830.0 0.00082162
5850.0 0.00097805
5870.0 0.0010852
5890.0 0.0011036
5910.0 0.0010827
5930.0 0.0010306
5950.0 0.0010501
5970.0 0.001197
5990.0 0.0011255
6010.0 0.00094354
6030.0 0.00079715
6050.0 0.00069422
6070.0 0.00069042
6090.0 0.00074865
6110.0 0.00083712
6130.0 0.00084994
6150.0 0.00073129
6170.0 0.00064331
6190.0 0.00072396
6210.0 0.00095706
6230.0 0.0012559
6250.0 0.0013604
6270.0 0.0011888
6290.0 0.0010002
6310.0 0.00078081
6330.0 0.00059825
6350.0 0.00053362
6370.0 0.00056116
6390.0 0.00064873
6410.0 0.00079991
6430.0 0.00093408
6450.0 0.0010688
6470.0 0.0012238
6490.0 0.0014783
6510.0 0.0016529
6530.0 0.0016216
6550.0 0.0014664
6570.0 0.0012448
6590.0 0.0011225
6610.0 0.00096789
6630.0 0.00087687
6650.0 0.00082889
6670.0 0.00080525
6690.0 0.00072759
6710.0 0.00066139
6730.0 0.00047639
6750.0 0.00047229
6770.0 0.00051335
6790.0 0.00059005
6810.0 0.00053991
6830.0 0.00055596
6850.0 0.00052
6870.0 0.00047502
6890.0 0.00045609
6910.0 0.00048602
6930.0 0.00045523
6950.0 0.00046835
6970.0 0.00049262
6990.0 0.00055917
7010.0 0.00056393
7030.0 0.00057289
7050.0 0.00054634
7070.0 0.00052057
7090.0 0.00052209
7110.0 0.00053719
7130.0 0.0005781
7150.0 0.00061399
7170.0 0.00067749
7190.0 0.00074476
7210.0 0.00073182
7230.0 0.00075233
7250.0 0.00080849
7270.0 0.00088106
7290.0 0.0010457
7310.0 0.0011347
7330.0 0.0010968
7350.0 0.00099198
7370.0 0.00086312
7390.0 0.00083733
7410.0 0.00088983
7430.0 0.00098893
7450.0 0.0010771
7470.0 0.0010672
7490.0 0.00097311
7510.0 0.0011023
7530.0 0.0010902
7550.0 0.00097991
7570.0 0.00076549
7590.0 0.00052625
7610.0 0.00045168
7630.0 0.00051319
7650.0 0.00060678
7670.0 0.00075518
7690.0 0.00083102
7710.0 0.00086602
7730.0 0.00091008
7750.0 0.0010217
7770.0 0.0010377
7790.0 0.00095321
7810.0 0.00086974
7830.0 0.0008969
7850.0 0.00087186
7870.0 0.00079936
7890.0 0.00067161
7910.0 0.00054593
7930.0 0.00052128
7950.0 0.0004749
7970.0 0.00043961
7990.0 0.0004371
8010.0 3.2373e-05
8030.0 3.1952e-05
8050.0 3.1521e-05
8070.0 3.1934e-05
8090.0 3.4312e-05
8110.0 3.3727e-05
8130.0 2.7821e-05
8150.0 2.7094e-05
8170.0 2.3338e-05
8190.0 2.2117e-05
8210.0 2.8722e-05
8230.0 3.1978e-05
8250.0 2.8821e-05
8270.0 2.5085e-05
8290.0 2.4453e-05
8310.0 1.882e-05
8330.0 1.2685e-05
8350.0 9.0022e-06
8370.0 5.6718e-06
8390.0 1.0368e-05
8410.0 1.2081e-05
8430.0 1.4892e-05
8450.0 1.7487e-05
8470.0 2.1736e-05
8490.0 2.1583e-05
8510.0 2.123e-05
8530.0 2.2156e-05
8550.0 2.9893e-05
8570.0 3.5389e-05
8590.0 3.8184e-05
8610.0 4.8235e-05
8630.0 5.8106e-05
8650.0 6.0785e-05
8670.0 6.4596e-05
8690.0 6.4958e-05
8710.0 5.8828e-05
8730.0 5.472e-05
8750.0 4.83e-05
8770.0 4.583e-05
8790.0 4.5025e-05
8810.0 4.3144e-05
8830.0 3.45e-05
8850.0 2.5257e-05
8870.0 1.9339e-05
8890.0 1.8907e-05
8910.0 2.1667e-05
8930.0 2.4645e-05
8950.0 2.5117e-05
8970.0 2.5236e-05
8990.0 2.2507e-05
9010.0 0.00023586
9030.0 0.00021372
9050.0 0.00021475
9070.0 0.00021645
9090.0 0.00021794
9110.0 0.00021977
9130.0 0.00022119
9150.0 0.00022229
9170.0 0.00022346
9190.0 0.00022472
9210.0 0.00022604
9230.0 0.00022743
9250.0 0.00022884
9270.0 0.00023031
9290.0 0.00023183
9310.0 0.00023335
9330.0 0.0002349
9350.0 0.00023651
9370.0 0.00023814
9390.0 0.00023978
9410.0 0.00024148
9430.0 0.00024322
9450.0 0.00024496
9470.0 0.00024673
9490.0 0.00024855
9510.0 0.0002504
9530.0 0.00025225
9550.0 0.00025418
9570.0 0.00025613
9590.0 0.00025809
9610.0 0.00026008
9630.0 0.00026212
9650.0 0.00026419
9670.0 0.00026625
9690.0 0.00026838
9710.0 0.00027053
9730.0 0.00027269
9750.0 0.00027488
9770.0 0.00027714
9790.0 0.00027939
9810.0 0.00028165
9830.0 0.00028397
9850.0 0.00028631
9870.0 0.00028864
9890.0 0.00029101
9910.0 0.00029343
9930.0 0.00029585
9950.0 0.00029827
9970.0 0.00030075
9990.0 0.00030325
10010.0 0.00026314
10030.0 0.0002653
10050.0 0.0002675
10070.0 0.00026978
10090.0 0.00027193
10110.0 0.00027413
10130.0 0.00027634
10150.0 0.00027855
10170.0 0.00028078
10190.0 0.00028305
10210.0 0.00028529
10230.0 0.00028752
10250.0 0.0002898
10270.0 0.00029207
10290.0 0.00029431
10310.0 0.00029658
10330.0 0.00029887
10350.0 0.00030112
10370.0 0.00030337
10390.0 0.00030564
10410.0 0.0003079
10430.0 0.00031012
10450.0 0.00031236
10470.0 0.00031461
10490.0 0.00031681
10510.0 0.000319
10530.0 0.00032123
10550.0 0.00032342
10570.0 0.00032557
10590.0 0.00032773
10610.0 0.00032988
10630.0 0.00033198
10650.0 0.00033407
10670.0 0.00033617
10690.0 0.00033824
10710.0 0.00034026
10730.0 0.00034228
10750.0 0.00034431
10770.0 0.00034626
10790.0 0.00034819
10810.0 0.00035012
10830.0 0.00035198
10850.0 0.00035376
10870.0 0.00035547
10890.0 0.00035699
10910.0 0.00035815
10930.0 0.00035881
10950.0 0.00035865
10970.0 0.00035744
10990.0 0.00035506
11010.0 0.00035107
11030.0 0.00034548
11050.0 0.00033868
11070.0 0.00033054
11090.0 0.00032076
11110.0 0.00031064
11130.0 0.00030009
11150.0 0.00028873
11170.0 0.00027702
11190.0 0.00026566
11210.0 0.00025393
11230.0 0.0002419
11250.0 0.0002304
11270.0 0.00021937
11290.0 0.00020831
11310.0 0.00019783
11330.0 0.0001886
11350.0 0.00017989
11370.0 0.00017184
11390.0 0.00016487
11410.0 0.00015877
11430.0 0.00015311
11450.0 0.00014823
11470.0 0.00014401
11490.0 0.00014008
11510.0 0.0001363
11530.0 0.00013279
11550.0 0.0001293
11570.0 0.00012558
11590.0 0.00012172
11610.0 0.0001178
11630.0 0.00011353
11650.0 0.00010896
11670.0 0.00010446
11690.0 9.9891e-05
11710.0 9.5179e-05
11730.0 9.0613e-05
11750.0 8.6387e-05
11770.0 8.2243e-05
11790.0 7.8359e-05
11810.0 7.494e-05
11830.0 7.1882e-05
11850.0 6.9066e-05
11870.0 6.671e-05
11890.0 6.4752e-05
11910.0 6.3031e-05
11930.0 6.1551e-05
11950.0 6.032e-05
11970.0 5.9219e-05
11990.0 5.8179e-05
12010.0 5.7217e-05
12030.0 5.6289e-05
12050.0 5.5331e-05
12070.0 5.4333e-05
12090.0 5.3372e-05
12110.0 5.2396e-05
12130.0 5.1418e-05
12150.0 5.0517e-05
12170.0 4.973e-05
12190.0 4.9049e-05
12210.0 4.8574e-05
12230.0 4.8344e-05
12250.0 4.8382e-05
12270.0 4.8746e-05
12290.0 4.9436e-05
12310.0 5.0425e-05
12330.0 5.1809e-05
12350.0 5.3537e-05
12370.0 5.5503e-05
12390.0 5.7771e-05
12410.0 6.0428e-05
12430.0 6.3128e-05
12450.0 6.5925e-05
12470.0 6.8898e-05
12490.0 7.1884e-05
12510.0 7.4686e-05
12530.0 7.7474e-05
12550.0 8.0162e-05
12570.0 8.2536e-05
12590.0 8.462e-05
12610.0 8.6477e-05
12630.0 8.7957e-05
12650.0 8.8978e-05
12670.0 8.965e-05
12690.0 8.9919e-05
12710.0 8.9771e-05
12730.0 8.925e-05
12750.0 8.8322e-05
12770.0 8.7048e-05
12790.0 8.5503e-05
12810.0 8.3658e-05
12830.0 8.1524e-05
12850.0 7.9291e-05
12870.0 7.6931e-05
12890.0 7.4377e-05
12910.0 7.1781e-05
12930.0 6.9222e-05
12950.0 6.6552e-05
12970.0 6.3834e-05
12990.0 6.1263e-05
13010.0 5.8724e-05
13030.0 5.6156e-05
13050.0 5.369e-05
13070.0 5.138e-05
13090.0 4.9061e-05
13110.0 4.6818e-05
13130.0 4.475e-05
13150.0 4.2792e-05
13170.0 4.0874e-05
13190.0 3.9168e-05
13210.0 3.7666e-05
13230.0 3.6294e-05
13250.0 3.5112e-05
13270.0 3.4179e-05
13290.0 3.3454e-05
13310.0 3.2954e-05
13330.0 3.2727e-05
13350.0 3.2753e-05
13370.0 3.3047e-05
13390.0 3.3624e-05
13410.0 3.4404e-05
13430.0 3.5418e-05
13450.0 3.667e-05
13470.0 3.806e-05
13490.0 3.9533e-05
13510.0 4.1194e-05
13530.0 4.2877e-05
13550.0 4.4488e-05
13570.0 4.6077e-05
13590.0 4.7626e-05
13610.0 4.9003e-05
13630.0 5.0206e-05
13650.0 5.1304e-05
13670.0 5.2215e-05
13690.0 5.292e-05
13710.0 5.3465e-05
13730.0 5.3854e-05
13750.0 5.4049e-05
13770.0 5.4093e-05
13790.0 5.3995e-05
13810.0 5.3756e-05
13830.0 5.3404e-05
13850.0 5.2927e-05
13870.0 5.2325e-05
13890.0 5.1637e-05
13910.0 5.0862e-05
13930.0 4.9964e-05
13950.0 4.8983e-05
13970.0 4.7981e-05
13990.0 4.689e-05
14010.0 4.5729e-05
14030.0 4.4571e-05
14050.0 4.3405e-05
14070.0 4.2173e-05
14090.0 4.0993e-05
14110.0 3.9883e-05
14130.0 3.8808e-05
14150.0 3.7796e-05
14170.0 3.6933e-05
14190.0 3.6186e-05
14210.0 3.5552e-05
14230.0 3.5083e-05
14250.0 3.478e-05
14270.0 3.4633e-05
14290.0 3.4664e-05
14310.0 3.4858e-05
14330.0 3.5204e-05
14350.0 3.5715e-05
14370.0 3.6351e-05
14390.0 3.7074e-05
14410.0 3.7924e-05
14430.0 3.8859e-05
14450.0 3.9813e-05
14470.0 4.0803e-05
14490.0 4.1856e-05
14510.0 4.2863e-05
14530.0 4.3819e-05
14550.0 4.4775e-05
14570.0 4.5692e-05
14590.0 4.6527e-05
14610.0 4.7335e-05
14630.0 4.8135e-05
14650.0 4.888e-05
14670.0 4.9599e-05
14690.0 5.0348e-05
14710.0 5.1137e-05
14730.0 5.1925e-05
14750.0 5.2798e-05
14770.0 5.3789e-05
14790.0 5.4863e-05
14810.0 5.6026e-05
14830.0 5.7405e-05
14850.0 5.8903e-05
14870.0 6.0467e-05
14890.0 6.2154e-05
14910.0 6.3945e-05
14930.0 6.5667e-05
14950.0 6.7277e-05
14970.0 6.8801e-05
14990.0 7.0078e-05
15010.0 7.1055e-05
15030.0 7.1779e-05
15050.0 7.2258e-05
15070.0 7.2492e-05
15090.0 7.2574e-05
15110.0 7.255e-05
15130.0 7.2458e-05
15150.0 7.2336e-05
15170.0 7.2191e-05
15190.0 7.2036e-05
15210.0 7.1883e-05
15230.0 7.173e-05
15250.0 7.1571e-05
15270.0 7.1415e-05
15290.0 7.1267e-05
15310.0 7.1114e-05
15330.0 7.096e-05
15350.0 7.0812e-05
15370.0 7.0666e-05
15390.0 7.0511e-05
15410.0 7.0362e-05
15430.0 7.0218e-05
15450.0 7.007e-05
15470.0 6.992e-05
15490.0 6.9778e-05
15510.0 6.9636e-05
15530.0 6.9488e-05
15550.0 6.9345e-05
15570.0 6.9206e-05
15590.0 6.9061e-05
15610.0 6.8914e-05
15630.0 6.8775e-05
15650.0 6.8636e-05
15670.0 6.8492e-05
15690.0 6.8352e-05
15710.0 6.8217e-05
15730.0 6.8076e-05
15750.0 6.7935e-05
15770.0 6.7799e-05
15790.0 6.7662e-05
15810.0 6.7518e-05
15830.0 6.7381e-05
15850.0 6.7248e-05
15870.0 6.7109e-05
15890.0 6.6971e-05
15910.0 6.6839e-05
15930.0 6.6703e-05
15950.0 6.6562e-05
15970.0 6.6427e-05
15990.0 6.6294e-05
16010.0 6.6157e-05
16030.0 6.6017e-05
16050.0 6.5887e-05
16070.0 6.5753e-05
16090.0 6.5615e-05
16110.0 6.5481e-05
16130.0 6.5351e-05
16150.0 6.5211e-05
16170.0 6.5073e-05
16190.0 6.4942e-05
16210.0 6.4808e-05
16230.0 6.4669e-05
16250.0 6.4536e-05
16270.0 6.4405e-05
16290.0 6.4267e-05
16310.0 6.4131e-05
16330.0 6.4e-05
16350.0 6.3865e-05
16370.0 6.3722e-05
16390.0 6.359e-05
16410.0 6.3457e-05
16430.0 6.3319e-05
16450.0 6.3182e-05
16470.0 6.3052e-05
16490.0 6.2914e-05
16510.0 6.2774e-05
16530.0 6.264e-05
16550.0 6.2505e-05
16570.0 6.2364e-05
16590.0 6.2225e-05
16610.0 6.2093e-05
16630.0 6.1955e-05
16650.0 6.1814e-05
16670.0 6.1679e-05
16690.0 6.1544e-05
16710.0 6.1399e-05
16730.0 6.126e-05
16750.0 6.1124e-05
16770.0 6.0984e-05
16790.0 6.084e-05
16810.0 6.0704e-05
16830.0 6.0566e-05
16850.0 6.0422e-05
16870.0 6.0281e-05
16890.0 6.0144e-05
16910.0 5.9999e-05
16930.0 5.9853e-05
16950.0 5.9714e-05
16970.0 5.9573e-05
16990.0 5.9427e-05
17010.0 5.9284e-05
17030.0 5.9145e-05
17050.0 5.8998e-05
17070.0 5.8851e-05
17090.0 5.871e-05
17110.0 5.8566e-05
17130.0 5.8414e-05
17150.0 5.8269e-05
17170.0 5.8127e-05
17190.0 5.7979e-05
17210.0 5.783e-05
17230.0 5.7687e-05
17250.0 5.754e-05
17270.0 5.7386e-05
17290.0 5.7239e-05
17310.0 5.7093e-05
17330.0 5.6941e-05
17350.0 5.6788e-05
17370.0 5.6643e-05
17390.0 5.6493e-05
17410.0 5.6339e-05
17430.0 5.619e-05
17450.0 5.6043e-05
17470.0 5.5885e-05
17490.0 5.5731e-05
17510.0 5.5582e-05
17530.0 5.5429e-05
17550.0 5.5272e-05
17570.0 5.512e-05
17590.0 5.497e-05
17610.0 5.4812e-05
17630.0 5.4656e-05
17650.0 5.4505e-05
17670.0 5.4349e-05
17690.0 5.4186e-05
17710.0 5.4033e-05
17730.0 5.3879e-05
17750.0 5.372e-05
17770.0 5.3562e-05
17790.0 5.341e-05
17810.0 5.3249e-05
17830.0 5.3088e-05
17850.0 5.2931e-05
17870.0 5.2775e-05
17890.0 5.2611e-05
17910.0 5.245e-05
17930.0 5.2295e-05
17950.0 5.2134e-05
17970.0 5.1971e-05
17990.0 5.1814e-05
18010.0 5.1655e-05
18030.0 5.1488e-05
18050.0 5.1326e-05
18070.0 5.1168e-05
18090.0 5.1004e-05
18110.0 5.0838e-05
18130.0 5.068e-05
18150.0 5.0519e-05
18170.0 5.0352e-05
18190.0 5.019e-05
18210.0 5.003e-05
18230.0 4.9863e-05
18250.0 4.9694e-05
18270.0 4.9534e-05
18290.0 4.9371e-05
18310.0 4.9203e-05
18330.0 4.9039e-05
18350.0 4.8879e-05
18370.0 4.871e-05
18390.0 4.8542e-05
18410.0 4.838e-05
18430.0 4.8215e-05
18450.0 4.8043e-05
18470.0 4.7878e-05
18490.0 4.7715e-05
18510.0 4.7547e-05
18530.0 4.7379e-05
18550.0 4.7217e-05
18570.0 4.7049e-05
18590.0 4.6877e-05
18610.0 4.6711e-05
18630.0 4.6547e-05
18650.0 4.6376e-05
18670.0 4.6206e-05
18690.0 4.6043e-05
18710.0 4.5876e-05
18730.0 4.5705e-05
18750.0 4.5539e-05
18770.0 4.5375e-05
18790.0 4.52e-05
18810.0 4.503e-05
18830.0 4.4866e-05
18850.0 4.4697e-05
18870.0 4.4525e-05
18890.0 4.4359e-05
18910.0 4.4194e-05
18930.0 4.4022e-05
18950.0 4.3852e-05
18970.0 4.3687e-05
18990.0 4.3518e-05
19010.0 4.3342e-05
19030.0 4.3177e-05
19050.0 4.301e-05
19070.0 4.2839e-05
19090.0 4.2669e-05
19110.0 4.2506e-05
19130.0 4.2334e-05
19150.0 4.2162e-05
19170.0 4.1995e-05
19190.0 4.1828e-05
19210.0 4.1654e-05
19230.0 4.1484e-05
19250.0 4.132e-05
19270.0 4.115e-05
19290.0 4.0979e-05
19310.0 4.0814e-05
19330.0 4.0647e-05
19350.0 4.0472e-05
19370.0 4.0303e-05
19390.0 4.0138e-05
19410.0 3.9967e-05
19430.0 3.9795e-05
19450.0 3.9631e-05
19470.0 3.9464e-05
19490.0 3.9292e-05
19510.0 3.9124e-05
19530.0 3.8959e-05
19550.0 3.8788e-05
19570.0 3.8615e-05
19590.0 3.8451e-05
19610.0 3.8284e-05
19630.0 3.8112e-05
19650.0 3.7946e-05
19670.0 3.7782e-05
19690.0 3.7611e-05
19710.0 3.7441e-05
19730.0 3.7276e-05
19750.0 3.7109e-05
19770.0 3.6936e-05
19790.0 3.677e-05
19810.0 3.6606e-05
19830.0 3.6435e-05
19850.0 3.6264e-05
19870.0 3.6096e-05
19890.0 3.5916e-05
19910.0 3.5718e-05
19930.0 3.5506e-05
19950.0 3.5264e-05
19970.0 3.4965e-05
19990.0 3.4606e-05
20010.0 3.0789e-05
20030.0 3.0343e-05
20050.0 2.9822e-05
20070.0 2.9257e-05
20090.0 2.8649e-05
20110.0 2.7961e-05
20130.0 2.7265e-05
20150.0 2.6575e-05
20170.0 2.586e-05
20190.0 2.5135e-05
20210.0 2.4449e-05
20230.0 2.3781e-05
20250.0 2.3111e-05
20270.0 2.249e-05
20290.0 2.1922e-05
20310.0 2.1383e-05
20330.0 2.0879e-05
20350.0 2.0461e-05
20370.0 2.0089e-05
20390.0 1.9764e-05
20410.0 1.9501e-05
20430.0 1.9298e-05
20450.0 1.9137e-05
20470.0 1.903e-05
20490.0 1.8972e-05
20510.0 1.8955e-05
20530.0 1.8979e-05
20550.0 1.9037e-05
20570.0 1.9122e-05
20590.0 1.9238e-05
20610.0 1.9378e-05
20630.0 1.9532e-05
20650.0 1.9704e-05
20670.0 1.9901e-05
20690.0 2.0101e-05
20710.0 2.0309e-05
20730.0 2.0533e-05
20750.0 2.0766e-05
20770.0 2.0996e-05
20790.0 2.1237e-05
20810.0 2.1493e-05
20830.0 2.1747e-05
20850.0 2.2002e-05
20870.0 2.2275e-05
20890.0 2.2554e-05
20910.0 2.2822e-05
20930.0 2.3101e-05
20950.0 2.339e-05
20970.0 2.3672e-05
20990.0 2.3949e-05
21010.0 2.4242e-05
21030.0 2.4527e-05
21050.0 2.48e-05
21070.0 2.5072e-05
21090.0 2.5345e-05
21110.0 2.5594e-05
21130.0 2.5828e-05
21150.0 2.6055e-05
21170.0 2.626e-05
21190.0 2.6436e-05
21210.0 2.6595e-05
21230.0 2.6727e-05
21250.0 2.6821e-05
21270.0 2.6881e-05
21290.0 2.6903e-05
21310.0 2.6882e-05
21330.0 2.6819e-05
21350.0 2.6707e-05
21370.0 2.6544e-05
21390.0 2.6336e-05
21410.0 2.6081e-05
21430.0 2.5759e-05
21450.0 2.5397e-05
21470.0 2.5003e-05
21490.0 2.4557e-05
21510.0 2.4068e-05
21530.0 2.3572e-05
21550.0 2.3051e-05
21570.0 2.2496e-05
21590.0 2.1951e-05
21610.0 2.1423e-05
21630.0 2.0895e-05
21650.0 2.038e-05
21670.0 1.9933e-05
21690.0 1.952e-05
21710.0 1.9149e-05
21730.0 1.8845e-05
21750.0 1.861e-05
21770.0 1.8431e-05
21790.0 1.8328e-05
21810.0 1.83e-05
21830.0 1.8341e-05
21850.0 1.8455e-05
21870.0 1.8634e-05
21890.0 1.8865e-05
21910.0 1.9161e-05
21930.0 1.9509e-05
21950.0 1.9885e-05
21970.0 2.0302e-05
21990.0 2.077e-05
22010.0 2.1238e-05
22030.0 2.1713e-05
22050.0 2.2212e-05
22070.0 2.2713e-05
22090.0 2.3188e-05
22110.0 2.3667e-05
22130.0 2.4145e-05
22150.0 2.4592e-05
22170.0 2.5013e-05
22190.0 2.543e-05
22210.0 2.5818e-05
22230.0 2.616e-05
22250.0 2.6481e-05
22270.0 2.6777e-05
22290.0 2.7031e-05
22310.0 2.7248e-05
22330.0 2.7439e-05
22350.0 2.7587e-05
22370.0 2.7691e-05
22390.0 2.7757e-05
22410.0 2.7777e-05
22430.0 2.7751e-05
22450.0 2.7679e-05
22470.0 2.7556e-05
22490.0 2.7382e-05
22510.0 2.7166e-05
22530.0 2.6889e-05
22550.0 2.6553e-05
22570.0 2.6179e-05
22590.0 2.5758e-05
22610.0 2.5274e-05
22630.0 2.475e-05
22650.0 2.4208e-05
22670.0 2.3608e-05
