#lamb flux
1010.0 2.1601e-06
1030.0 2.3308e-06
1050.0 2.5276e-06
1070.0 2.7492e-06
1090.0 3.001e-06
1110.0 3.2595e-06
1130.0 3.5201e-06
1150.0 3.7933e-06
1170.0 4.0756e-06
1190.0 4.3438e-06
1210.0 4.616e-06
1230.0 4.8978e-06
1250.0 5.1746e-06
1270.0 5.444e-06
1290.0 5.7292e-06
1310.0 6.0148e-06
1330.0 6.2896e-06
1350.0 6.5682e-06
1370.0 6.8564e-06
1390.0 7.1384e-06
1410.0 7.4131e-06
1430.0 7.7007e-06
1450.0 7.9891e-06
1470.0 8.269e-06
1490.0 8.5526e-06
1510.0 8.8525e-06
1530.0 9.1378e-06
1550.0 9.42e-06
1570.0 9.7122e-06
1590.0 1.0005e-05
1610.0 1.0286e-05
1630.0 1.0575e-05
1650.0 1.0871e-05
1670.0 1.1158e-05
1690.0 1.144e-05
1710.0 1.1733e-05
1730.0 1.2026e-05
1750.0 1.2301e-05
1770.0 1.2582e-05
1790.0 1.2868e-05
1810.0 1.3142e-05
1830.0 1.3409e-05
1850.0 1.369e-05
1870.0 1.396e-05
1890.0 1.4218e-05
1910.0 1.4478e-05
1930.0 1.4741e-05
1950.0 1.4987e-05
1970.0 1.5225e-05
1990.0 1.5469e-05
2010.0 1.5704e-05
2030.0 1.5924e-05
2050.0 1.6147e-05
2070.0 1.6373e-05
2090.0 1.6577e-05
2110.0 1.6775e-05
2130.0 1.6976e-05
2150.0 1.7167e-05
2170.0 1.7342e-05
2190.0 1.7521e-05
2210.0 1.7696e-05
2230.0 1.7857e-05
2250.0 1.8012e-05
2270.0 1.8173e-05
2290.0 1.8322e-05
2310.0 1.8456e-05
2330.0 1.8594e-05
2350.0 1.873e-05
2370.0 1.8853e-05
2390.0 1.8974e-05
2410.0 1.9104e-05
2430.0 1.9225e-05
2450.0 1.9341e-05
2470.0 1.9469e-05
2490.0 1.9619e-05
2510.0 1.9797e-05
2530.0 2.008e-05
2550.0 2.0588e-05
2570.0 2.1451e-05
2590.0 2.2817e-05
2610.0 2.5074e-05
2630.0 2.8319e-05
2650.0 3.2375e-05
2670.0 3.7284e-05
2690.0 4.2862e-05
2710.0 4.8344e-05
2730.0 5.3357e-05
2750.0 5.7989e-05
2770.0 6.1816e-05
2790.0 6.48e-05
2810.0 6.7275e-05
2830.0 6.9496e-05
2850.0 7.1367e-05
2870.0 7.3152e-05
2890.0 7.5017e-05
2910.0 7.6916e-05
2930.0 7.877e-05
2950.0 8.0758e-05
2970.0 8.2851e-05
2990.0 8.4916e-05
3010.0 0.00048198
3030.0 0.00049414
3050.0 0.00050611
3070.0 0.00051656
3090.0 0.0005253
3110.0 0.00052974
3130.0 0.00052684
3150.0 0.00051364
3170.0 0.00048421
3190.0 0.0004382
3210.0 0.00037698
3230.0 0.00030882
3250.0 0.00037129
3270.0 0.00029951
3290.0 0.00045444
3310.0 0.00029055
3330.0 0.00029227
3350.0 0.00031774
3370.0 0.00034912
3390.0 0.00038427
3410.0 0.00041979
3430.0 0.00045736
3450.0 0.00049589
3470.0 0.00053222
3490.0 0.00056044
3510.0 0.00063316
3530.0 0.00075331
3550.0 0.00074838
3570.0 0.00067286
3590.0 0.00082085
3610.0 0.00064722
3630.0 0.00087823
3650.0 0.00098645
3670.0 0.0011727
3690.0 0.0011135
3710.0 0.00085248
3730.0 0.00099296
3750.0 0.0010052
3770.0 0.0010898
3790.0 0.001122
3810.0 0.0012421
3830.0 0.0018371
3850.0 0.0023038
3870.0 0.0027786
3890.0 0.0028111
3910.0 0.0026228
3930.0 0.0026388
3950.0 0.0027847
3970.0 0.0027307
3990.0 0.0016573
4010.0 0.001008
4030.0 0.0017595
4050.0 0.0024068
4070.0 0.0023752
4090.0 0.0014739
4110.0 0.0010563
4130.0 0.0017821
4150.0 0.0019492
4170.0 0.0016723
4190.0 0.0014297
4210.0 0.0020723
4230.0 0.0017613
4250.0 0.0017538
4270.0 0.0017421
4290.0 0.0015876
4310.0 0.0019802
4330.0 0.0022395
4350.0 0.0021477
4370.0 0.0019155
4390.0 0.0021177
4410.0 0.0020573
4430.0 0.0015233
4450.0 0.0012507
4470.0 0.0015259
4490.0 0.0013336
4510.0 0.001924
4530.0 0.0019795
4550.0 0.002109
4570.0 0.0027537
4590.0 0.0030124
4610.0 0.003161
4630.0 0.0044452
4650.0 0.0052097
4670.0 0.0051793
4690.0 0.0045359
4710.0 0.0045809
4730.0 0.0043695
4750.0 0.0033387
4770.0 0.0026545
4790.0 0.001971
4810.0 0.0023042
4830.0 0.0026859
4850.0 0.00257
4870.0 0.0018694
4890.0 0.0030727
4910.0 0.0034496
4930.0 0.0037597
4950.0 0.0042214
4970.0 0.0038603
4990.0 0.0044075
5010.0 0.0047211
5030.0 0.0045825
5050.0 0.0038761
5070.0 0.0027715
5090.0 0.0023008
5110.0 0.0022995
5130.0 0.0023342
5150.0 0.0022695
5170.0 0.0021304
5190.0 0.0023428
5210.0 0.0024052
5230.0 0.0026584
5250.0 0.0029488
5270.0 0.0026762
5290.0 0.0029971
5310.0 0.0039745
5330.0 0.0044298
5350.0 0.0039935
5370.0 0.0038741
5390.0 0.0042984
5410.0 0.004578
5430.0 0.0046056
5450.0 0.0048154
5470.0 0.0051375
5490.0 0.0058184
5510.0 0.0069737
5530.0 0.0072557
5550.0 0.0073862
5570.0 0.0074546
5590.0 0.0072162
5610.0 0.0068028
5630.0 0.0067767
5650.0 0.0070358
5670.0 0.0068233
5690.0 0.0060574
5710.0 0.0059926
5730.0 0.0057077
5750.0 0.0054024
5770.0 0.0047494
5790.0 0.0048511
5810.0 0.0051045
5830.0 0.005592
5850.0 0.0054009
5870.0 0.0053338
5890.0 0.0057472
5910.0 0.0053195
5930.0 0.0047084
5950.0 0.004559
5970.0 0.0048369
5990.0 0.0043049
6010.0 0.0037404
6030.0 0.0033991
6050.0 0.0030856
6070.0 0.0027037
6090.0 0.0027829
6110.0 0.0032479
6130.0 0.0033997
6150.0 0.0034593
6170.0 0.003523
6190.0 0.0036324
6210.0 0.0040485
6230.0 0.0047951
6250.0 0.0044492
6270.0 0.0039257
6290.0 0.003452
6310.0 0.0029502
6330.0 0.0026464
6350.0 0.0024783
6370.0 0.002599
6390.0 0.0029385
6410.0 0.0035712
6430.0 0.0043392
6450.0 0.0048026
6470.0 0.0051584
6490.0 0.0059872
6510.0 0.0066453
6530.0 0.006392
6550.0 0.0060954
6570.0 0.0061642
6590.0 0.0061437
6610.0 0.0062297
6630.0 0.0058441
6650.0 0.0051974
6670.0 0.0049461
6690.0 0.00487
6710.0 0.0052087
6730.0 0.0045782
6750.0 0.0038585
6770.0 0.00368
6790.0 0.0039215
6810.0 0.0044381
6830.0 0.0044742
6850.0 0.0040715
6870.0 0.0041141
6890.0 0.0040723
6910.0 0.0038313
6930.0 0.0040078
6950.0 0.0038517
6970.0 0.0037214
6990.0 0.0037832
7010.0 0.0039594
7030.0 0.0038896
7050.0 0.0036201
7070.0 0.0036122
7090.0 0.0032527
7110.0 0.0027891
7130.0 0.0026262
7150.0 0.002729
7170.0 0.0031214
7190.0 0.0031939
7210.0 0.0030717
7230.0 0.0033202
7250.0 0.0034596
7270.0 0.0035158
7290.0 0.0036535
7310.0 0.0037695
7330.0 0.0035951
7350.0 0.003334
7370.0 0.0030889
7390.0 0.0030401
7410.0 0.00339
7430.0 0.0038954
7450.0 0.004231
7470.0 0.0045174
7490.0 0.0051946
7510.0 0.0051458
7530.0 0.00438
7550.0 0.003905
7570.0 0.0033033
7590.0 0.0029779
7610.0 0.002888
7630.0 0.0027827
7650.0 0.0029971
7670.0 0.0033796
7690.0 0.0036979
7710.0 0.0042228
7730.0 0.0043904
7750.0 0.0045474
7770.0 0.0048407
7790.0 0.0051145
7810.0 0.0050664
7830.0 0.0046007
7850.0 0.004587
7870.0 0.0044547
7890.0 0.0043641
7910.0 0.0040694
7930.0 0.0039247
7950.0 0.0032725
7970.0 0.0032008
7990.0 0.0031662
8010.0 0.0036087
8030.0 0.0036059
8050.0 0.0038193
8070.0 0.003695
8090.0 0.0037069
8110.0 0.0036469
8130.0 0.0035429
8150.0 0.0032967
8170.0 0.0032537
8190.0 0.0032692
8210.0 0.0033019
8230.0 0.0029369
8250.0 0.0027045
8270.0 0.0023863
8290.0 0.0020173
8310.0 0.0017296
8330.0 0.0013292
8350.0 0.0010497
8370.0 0.00098905
8390.0 0.00098314
8410.0 0.0010639
8430.0 0.0013684
8450.0 0.0015023
8470.0 0.0016228
8490.0 0.0018742
8510.0 0.0020356
8530.0 0.0022906
8550.0 0.0027095
8570.0 0.0029989
8590.0 0.0031744
8610.0 0.0035733
8630.0 0.0041038
8650.0 0.0042421
8670.0 0.0043347
8690.0 0.0044422
8710.0 0.0043401
8730.0 0.0041742
8750.0 0.0038436
8770.0 0.0038246
8790.0 0.0037463
8810.0 0.0034496
8830.0 0.0033966
8850.0 0.0030504
8870.0 0.0028765
8890.0 0.0025918
8910.0 0.0029017
8930.0 0.0026505
8950.0 0.0026779
8970.0 0.0027423
8990.0 0.0026815
9010.0 0.0027397
9030.0 0.0026052
9050.0 0.0025945
9070.0 0.0025969
9090.0 0.0025989
9110.0 0.0026028
9130.0 0.0026044
9150.0 0.0026048
9170.0 0.002599
9190.0 0.0025845
9210.0 0.0026233
9230.0 0.0026148
9250.0 0.002611
9270.0 0.0026082
9290.0 0.0026062
9310.0 0.0026045
9330.0 0.0026031
9350.0 0.0026018
9370.0 0.0026005
9390.0 0.002599
9410.0 0.0025975
9430.0 0.0025959
9450.0 0.0025941
9470.0 0.0025923
9490.0 0.0025904
9510.0 0.0025885
9530.0 0.0025864
9550.0 0.0025844
9570.0 0.0025824
9590.0 0.0025803
9610.0 0.0025782
9630.0 0.0025762
9650.0 0.0025743
9670.0 0.0025721
9690.0 0.0025702
9710.0 0.0025684
9730.0 0.0025664
9750.0 0.0025645
9770.0 0.002563
9790.0 0.0025614
9810.0 0.0025597
9830.0 0.0025583
9850.0 0.0025571
9870.0 0.0025557
9890.0 0.0025545
9910.0 0.0025535
9930.0 0.0025525
9950.0 0.0025486
9970.0 0.0025489
9990.0 0.0025493
10010.0 0.0025492
10030.0 0.0025492
10050.0 0.0025483
10070.0 0.0025418
10090.0 0.0025441
10110.0 0.0025463
10130.0 0.002548
10150.0 0.0025494
10170.0 0.0025505
10190.0 0.0025513
10210.0 0.0025523
10230.0 0.0025533
10250.0 0.0025543
10270.0 0.0025554
10290.0 0.0025568
10310.0 0.0025581
10330.0 0.0025594
10350.0 0.002561
10370.0 0.0025626
10390.0 0.0025643
10410.0 0.002566
10430.0 0.002568
10450.0 0.0025699
10470.0 0.0025719
10490.0 0.002574
10510.0 0.0025762
10530.0 0.0025783
10550.0 0.0025805
10570.0 0.0025829
10590.0 0.0025852
10610.0 0.0025875
10630.0 0.00259
10650.0 0.0025925
10670.0 0.0025949
10690.0 0.0025974
10710.0 0.0025999
10730.0 0.0026024
10750.0 0.0026049
10770.0 0.0026075
10790.0 0.00261
10810.0 0.0026125
10830.0 0.0026149
10850.0 0.0026171
10870.0 0.0026186
10890.0 0.0026189
10910.0 0.0026174
10930.0 0.0026125
10950.0 0.0026019
10970.0 0.0025844
10990.0 0.0025596
11010.0 0.002618
11030.0 0.0025679
11050.0 0.0025097
11070.0 0.0024426
11090.0 0.002365
11110.0 0.0022879
11130.0 0.002211
11150.0 0.0021325
11170.0 0.0020566
11190.0 0.0019879
11210.0 0.0019222
11230.0 0.0018604
11250.0 0.0018065
11270.0 0.0017591
11290.0 0.0017156
11310.0 0.0016776
11330.0 0.0016461
11350.0 0.0016173
11370.0 0.0015908
11390.0 0.0015667
11410.0 0.0015438
11430.0 0.0015193
11450.0 0.0014944
11470.0 0.0014689
11490.0 0.001441
11510.0 0.0014101
11530.0 0.0013787
11550.0 0.001346
11570.0 0.0013105
11590.0 0.0012744
11610.0 0.001239
11630.0 0.0012022
11650.0 0.0011648
11670.0 0.0011298
11690.0 0.0010958
11710.0 0.0010619
11730.0 0.0010298
11750.0 0.0010003
11770.0 0.00097116
11790.0 0.00094308
11810.0 0.00091721
11830.0 0.00089254
11850.0 0.00086767
11870.0 0.00084442
11890.0 0.0008226
11910.0 0.00080065
11930.0 0.00077886
11950.0 0.00075822
11970.0 0.00073761
11990.0 0.00071636
12010.0 0.00069587
12030.0 0.00067611
12050.0 0.00065616
12070.0 0.00063638
12090.0 0.00061856
12110.0 0.00060148
12130.0 0.00058524
12150.0 0.00057096
12170.0 0.00055888
12190.0 0.00054829
12210.0 0.00054038
12230.0 0.0005354
12250.0 0.00053314
12270.0 0.00053394
12290.0 0.00053779
12310.0 0.00054431
12330.0 0.00055395
12350.0 0.00056621
12370.0 0.00058018
12390.0 0.00059606
12410.0 0.00061419
12430.0 0.00063207
12450.0 0.00064992
12470.0 0.00066807
12490.0 0.00068539
12510.0 0.00070079
12530.0 0.00071521
12550.0 0.0007282
12570.0 0.00073884
12590.0 0.00074746
12610.0 0.00075442
12630.0 0.00075931
12650.0 0.00076211
12670.0 0.00076333
12690.0 0.00076294
12710.0 0.00076113
12730.0 0.00075813
12750.0 0.0007538
12770.0 0.00074852
12790.0 0.00074253
12810.0 0.00073562
12830.0 0.00072772
12850.0 0.00071944
12870.0 0.0007105
12890.0 0.00070044
12910.0 0.00068968
12930.0 0.00067846
12950.0 0.0006659
12970.0 0.00065212
12990.0 0.00063812
13010.0 0.00062333
13030.0 0.00060732
13050.0 0.00059104
13070.0 0.00057507
13090.0 0.00055837
13110.0 0.00054173
13130.0 0.00052615
13150.0 0.0005113
13170.0 0.0004968
13190.0 0.00048414
13210.0 0.00047334
13230.0 0.00046381
13250.0 0.00045601
13270.0 0.00045024
13290.0 0.00044603
13310.0 0.00044332
13330.0 0.00044213
13350.0 0.0004421
13370.0 0.00044296
13390.0 0.00044447
13410.0 0.00044617
13430.0 0.00044788
13450.0 0.00044937
13470.0 0.00045034
13490.0 0.00045068
13510.0 0.0004503
13530.0 0.00044913
13550.0 0.00044731
13570.0 0.00044487
13590.0 0.00044186
13610.0 0.0004386
13630.0 0.00043527
13650.0 0.00043177
13670.0 0.00042841
13690.0 0.00042536
13710.0 0.00042254
13730.0 0.00041992
13750.0 0.00041773
13770.0 0.00041579
13790.0 0.00041398
13810.0 0.00041226
13830.0 0.0004106
13850.0 0.00040878
13870.0 0.00040673
13890.0 0.00040447
13910.0 0.00040193
13930.0 0.00039896
13950.0 0.00039568
13970.0 0.0003923
13990.0 0.00038865
14010.0 0.00038485
14030.0 0.00038119
14050.0 0.00037766
14070.0 0.00037418
14090.0 0.00037108
14110.0 0.00036839
14130.0 0.00036603
14150.0 0.00036404
14170.0 0.00036251
14190.0 0.00036134
14210.0 0.00036053
14230.0 0.00036009
14250.0 0.00035999
14270.0 0.00036027
14290.0 0.00036097
14310.0 0.00036198
14330.0 0.00036337
14350.0 0.00036522
14370.0 0.00036739
14390.0 0.00036978
14410.0 0.0003726
14430.0 0.00037569
14450.0 0.00037884
14470.0 0.00038214
14490.0 0.00038577
14510.0 0.00038934
14530.0 0.00039289
14550.0 0.00039674
14570.0 0.00040084
14590.0 0.00040501
14610.0 0.00040966
14630.0 0.00041504
14650.0 0.00042082
14670.0 0.00042716
14690.0 0.00043451
14710.0 0.00044282
14730.0 0.00045137
14750.0 0.00046085
14770.0 0.00047131
14790.0 0.00048204
14810.0 0.00049288
14830.0 0.00050471
14850.0 0.00051635
14870.0 0.00052729
14890.0 0.00053795
14910.0 0.00054813
14930.0 0.00055688
14950.0 0.0005642
14970.0 0.00057038
14990.0 0.00057485
15010.0 0.0005776
15030.0 0.000579
15050.0 0.00057918
15070.0 0.00057834
15090.0 0.00057686
15110.0 0.00057493
15130.0 0.00057275
15150.0 0.00057049
15170.0 0.00056812
15190.0 0.0005657
15210.0 0.00056333
15230.0 0.00056096
15250.0 0.00055855
15270.0 0.00055615
15290.0 0.00055383
15310.0 0.00055148
15330.0 0.00054911
15350.0 0.0005468
15370.0 0.0005445
15390.0 0.00054213
15410.0 0.00053982
15430.0 0.00053755
15450.0 0.00053525
15470.0 0.00053293
15490.0 0.00053069
15510.0 0.00052846
15530.0 0.00052618
15550.0 0.00052394
15570.0 0.00052175
15590.0 0.0005195
15610.0 0.00051725
15630.0 0.00051507
15650.0 0.0005129
15670.0 0.00051069
15690.0 0.00050851
15710.0 0.0005064
15730.0 0.00050422
15750.0 0.00050206
15770.0 0.00049995
15790.0 0.00049784
15810.0 0.00049567
15830.0 0.00049357
15850.0 0.00049151
15870.0 0.00048941
15890.0 0.00048731
15910.0 0.00048529
15930.0 0.00048323
15950.0 0.00048114
15970.0 0.00047911
15990.0 0.0004771
16010.0 0.00047506
16030.0 0.000473
16050.0 0.00047104
16070.0 0.00046905
16090.0 0.00046704
16110.0 0.00046507
16130.0 0.00046314
16150.0 0.00046112
16170.0 0.00045914
16190.0 0.00045723
16210.0 0.00045529
16230.0 0.00045332
16250.0 0.00045141
16270.0 0.00044952
16290.0 0.00044758
16310.0 0.00044567
16330.0 0.0004438
16350.0 0.00044191
16370.0 0.00043996
16390.0 0.00043811
16410.0 0.00043626
16430.0 0.00043437
16450.0 0.0004325
16470.0 0.00043069
16490.0 0.00042883
16510.0 0.00042695
16530.0 0.00042513
16550.0 0.00042332
16570.0 0.00042146
16590.0 0.00041962
16610.0 0.00041785
16630.0 0.00041603
16650.0 0.0004142
16670.0 0.00041243
16690.0 0.00041065
16710.0 0.00040881
16730.0 0.00040702
16750.0 0.00040526
16770.0 0.00040347
16790.0 0.00040166
16810.0 0.00039992
16830.0 0.00039817
16850.0 0.00039638
16870.0 0.00039462
16890.0 0.0003929
16910.0 0.00039112
16930.0 0.00038933
16950.0 0.00038761
16970.0 0.00038588
16990.0 0.00038411
17010.0 0.00038238
17030.0 0.00038069
17050.0 0.00037893
17070.0 0.00037718
17090.0 0.00037548
17110.0 0.00037377
17130.0 0.00037199
17150.0 0.00037028
17170.0 0.0003686
17190.0 0.00036687
17210.0 0.00036514
17230.0 0.00036347
17250.0 0.00036177
17270.0 0.00036002
17290.0 0.00035833
17310.0 0.00035665
17330.0 0.00035493
17350.0 0.0003532
17370.0 0.00035155
17390.0 0.00034986
17410.0 0.00034814
17430.0 0.00034647
17450.0 0.00034482
17470.0 0.00034308
17490.0 0.00034138
17510.0 0.00033973
17530.0 0.00033806
17550.0 0.00033634
17570.0 0.00033469
17590.0 0.00033305
17610.0 0.00033134
17630.0 0.00032966
17650.0 0.00032803
17670.0 0.00032636
17690.0 0.00032463
17710.0 0.000323
17730.0 0.00032136
17750.0 0.00031967
17770.0 0.00031801
17790.0 0.0003164
17810.0 0.00031473
17830.0 0.00031304
17850.0 0.00031141
17870.0 0.00030978
17890.0 0.00030809
17910.0 0.00030643
17930.0 0.00030483
17950.0 0.00030318
17970.0 0.00030152
17990.0 0.00029991
18010.0 0.00029829
18030.0 0.00029661
18050.0 0.00029497
18070.0 0.00029337
18090.0 0.00029173
18110.0 0.00029007
18130.0 0.00028848
18150.0 0.00028688
18170.0 0.00028523
18190.0 0.00028362
18210.0 0.00028204
18230.0 0.0002804
18250.0 0.00027875
18270.0 0.00027717
18290.0 0.00027558
18310.0 0.00027394
18330.0 0.00027235
18350.0 0.00027079
18370.0 0.00026917
18390.0 0.00026756
18410.0 0.000266
18430.0 0.00026441
18450.0 0.00026278
18470.0 0.00026121
18490.0 0.00025966
18510.0 0.00025807
18530.0 0.00025648
18550.0 0.00025495
18570.0 0.00025338
18590.0 0.00025177
18610.0 0.00025022
18630.0 0.00024868
18650.0 0.0002471
18670.0 0.00024552
18690.0 0.00024401
18710.0 0.00024247
18730.0 0.0002409
18750.0 0.00023937
18770.0 0.00023787
18790.0 0.00023628
18810.0 0.00023474
18830.0 0.00023324
18850.0 0.00023172
18870.0 0.00023017
18890.0 0.00022867
18910.0 0.00022719
18930.0 0.00022564
18950.0 0.00022413
18970.0 0.00022266
18990.0 0.00022115
19010.0 0.0002196
19030.0 0.00021814
19050.0 0.00021667
19070.0 0.00021516
19090.0 0.00021367
19110.0 0.00021224
19130.0 0.00021074
19150.0 0.00020924
19170.0 0.0002078
19190.0 0.00020635
19210.0 0.00020485
19230.0 0.00020338
19250.0 0.00020197
19270.0 0.00020052
19290.0 0.00019905
19310.0 0.00019764
19330.0 0.00019622
19350.0 0.00019473
19370.0 0.00019331
19390.0 0.00019191
19410.0 0.00019047
19430.0 0.00018903
19450.0 0.00018765
19470.0 0.00018625
19490.0 0.00018482
19510.0 0.00018342
19530.0 0.00018206
19550.0 0.00018063
19570.0 0.00017921
19590.0 0.00017785
19610.0 0.00017648
19630.0 0.00017507
19650.0 0.00017371
19670.0 0.00017238
19690.0 0.00017098
19710.0 0.0001696
19730.0 0.00016827
19750.0 0.00016692
19770.0 0.00016552
19790.0 0.00016418
19810.0 0.00016287
19830.0 0.0001615
19850.0 0.00016014
19870.0 0.00015881
19890.0 0.00015739
19910.0 0.00015586
19930.0 0.00015425
19950.0 0.00015247
19970.0 0.00015034
19990.0 0.00014789
20010.0 0.00014522
20030.0 0.00014212
20050.0 0.00013867
20070.0 0.00013513
20090.0 0.00013154
20110.0 0.00012774
20130.0 0.00012416
20150.0 0.00012088
20170.0 0.00011772
20190.0 0.00011478
20210.0 0.00011222
20230.0 0.00010992
20250.0 0.00010781
20270.0 0.00010602
20290.0 0.00010454
20310.0 0.00010328
20330.0 0.00010225
20350.0 0.00010154
20370.0 0.00010106
20390.0 0.00010081
20410.0 0.0001008
20430.0 0.00010102
20450.0 0.0001015
20470.0 0.00010223
20490.0 0.00010317
20510.0 0.00010434
20530.0 0.0001058
20550.0 0.00010743
20570.0 0.0001092
20590.0 0.00011121
20610.0 0.00011337
20630.0 0.00011556
20650.0 0.00011784
20670.0 0.00012028
20690.0 0.00012259
20710.0 0.00012482
20730.0 0.00012703
20750.0 0.00012914
20770.0 0.00013102
20790.0 0.00013281
20810.0 0.00013451
20830.0 0.00013602
20850.0 0.00013739
20870.0 0.00013873
20890.0 0.00014
20910.0 0.00014115
20930.0 0.00014231
20950.0 0.00014348
20970.0 0.00014461
20990.0 0.00014572
21010.0 0.00014686
21030.0 0.00014795
21050.0 0.00014894
21070.0 0.00014986
21090.0 0.0001507
21110.0 0.00015136
21130.0 0.00015186
21150.0 0.00015221
21170.0 0.00015237
21190.0 0.00015234
21210.0 0.00015215
21230.0 0.00015177
21250.0 0.00015125
21270.0 0.00015059
21290.0 0.00014979
21310.0 0.00014888
21330.0 0.00014793
21350.0 0.00014689
21370.0 0.00014578
21390.0 0.00014467
21410.0 0.00014356
21430.0 0.00014238
21450.0 0.00014126
21470.0 0.00014021
21490.0 0.00013917
21510.0 0.00013817
21530.0 0.00013728
21550.0 0.00013647
21570.0 0.00013572
21590.0 0.00013508
21610.0 0.00013457
21630.0 0.00013417
21650.0 0.00013389
21670.0 0.00013377
21690.0 0.00013378
21710.0 0.00013394
21730.0 0.00013426
21750.0 0.00013471
21770.0 0.00013536
21790.0 0.00013617
21810.0 0.00013711
21830.0 0.00013821
21850.0 0.0001395
21870.0 0.00014089
21890.0 0.00014237
21910.0 0.00014403
21930.0 0.0001458
21950.0 0.00014759
21970.0 0.00014948
21990.0 0.00015152
22010.0 0.0001535
22030.0 0.00015547
22050.0 0.00015749
22070.0 0.00015949
22090.0 0.00016134
22110.0 0.00016315
22130.0 0.00016491
22150.0 0.00016649
22170.0 0.00016789
22190.0 0.00016918
22210.0 0.00017025
22230.0 0.00017105
22250.0 0.00017164
22270.0 0.00017197
22290.0 0.00017201
22310.0 0.00017179
22330.0 0.00017126
22350.0 0.00017043
22370.0 0.00016934
22390.0 0.00016794
22410.0 0.0001662
22430.0 0.00016427
22450.0 0.00016211
22470.0 0.00015964
22490.0 0.00015698
22510.0 0.00015425
22530.0 0.00015123
22550.0 0.00014803
22570.0 0.00014487
22590.0 0.00014163
22610.0 0.00013824
22630.0 0.00013487
22650.0 0.00013165
22670.0 0.00012834
22690.0 0.00012505
22710.0 0.00012195
22730.0 0.00011893
22750.0 0.00011587
22770.0 0.00011304
22790.0 0.00011044
22810.0 0.0001079
22830.0 0.00010551
22850.0 0.00010339
22870.0 0.00010143
22890.0 9.9597e-05
22910.0 9.8029e-05
22930.0 9.6705e-05
22950.0 9.5566e-05
22970.0 9.4654e-05
22990.0 9.4039e-05
23010.0 9.3646e-05
23030.0 9.3497e-05
23050.0 9.3599e-05
