#lamb flux
1010.0 3.8724e-05
1030.0 5.1494e-05
1050.0 6.7312e-05
1070.0 8.6492e-05
1090.0 0.00010982
1110.0 0.00013593
1130.0 0.00016447
1150.0 0.0001963
1170.0 0.00023106
1190.0 0.00026638
1210.0 0.00030334
1230.0 0.00034203
1250.0 0.00038031
1270.0 0.00041711
1290.0 0.00045399
1310.0 0.00048851
1330.0 0.00051856
1350.0 0.00054494
1370.0 0.00056761
1390.0 0.00058439
1410.0 0.00059494
1430.0 0.00060123
1450.0 0.00060211
1470.0 0.00059706
1490.0 0.00058774
1510.0 0.00057554
1530.0 0.00055867
1550.0 0.00053898
1570.0 0.00051803
1590.0 0.00049578
1610.0 0.00047216
1630.0 0.00044893
1650.0 0.00042633
1670.0 0.00040394
1690.0 0.00038239
1710.0 0.0003624
1730.0 0.00034368
1750.0 0.00032568
1770.0 0.00030935
1790.0 0.00029454
1810.0 0.00028086
1830.0 0.00026842
1850.0 0.00025762
1870.0 0.00024787
1890.0 0.0002391
1910.0 0.00023156
1930.0 0.0002252
1950.0 0.00021965
1970.0 0.00021508
1990.0 0.00021168
2010.0 0.00020923
2030.0 0.00020767
2050.0 0.00020732
2070.0 0.0002082
2090.0 0.00021008
2110.0 0.00021326
2130.0 0.00021797
2150.0 0.00022416
2170.0 0.00023187
2190.0 0.00024156
2210.0 0.00025326
2230.0 0.00026696
2250.0 0.00028294
2270.0 0.00030159
2290.0 0.00032273
2310.0 0.00034642
2330.0 0.00037312
2350.0 0.00040282
2370.0 0.00043527
2390.0 0.00047073
2410.0 0.00050942
2430.0 0.00055069
2450.0 0.00059436
2470.0 0.00064054
2490.0 0.00068896
2510.0 0.00073908
2530.0 0.00079204
2550.0 0.0008498
2570.0 0.00091494
2590.0 0.00099143
2610.0 0.0010897
2630.0 0.0012178
2650.0 0.0013797
2670.0 0.0015875
2690.0 0.0018523
2710.0 0.0021623
2730.0 0.0025087
2750.0 0.0029002
2770.0 0.0033055
2790.0 0.0036938
2810.0 0.0040612
2830.0 0.0044005
2850.0 0.0046765
2870.0 0.0049053
2890.0 0.005099
2910.0 0.0052589
2930.0 0.0053895
2950.0 0.0055055
2970.0 0.0056089
2990.0 0.0056974
3010.0 0.0057743
3030.0 0.0058442
3050.0 0.0059036
3070.0 0.0059471
3090.0 0.0059814
3110.0 0.0060028
3130.0 0.0060044
3150.0 0.0060541
3170.0 0.0060719
3190.0 0.0060727
3210.0 0.0060495
3230.0 0.00598
3250.0 0.0057544
3270.0 0.005363
3290.0 0.0050384
3310.0 0.0049334
3330.0 0.0050136
3350.0 0.0051235
3370.0 0.0052158
3390.0 0.0052917
3410.0 0.0053591
3430.0 0.0054229
3450.0 0.0055113
3470.0 0.005663
3490.0 0.0057182
3510.0 0.0055933
3530.0 0.0057649
3550.0 0.0062175
3570.0 0.0072574
3590.0 0.0080776
3610.0 0.0087222
3630.0 0.0093729
3650.0 0.0090591
3670.0 0.0080433
3690.0 0.007266
3710.0 0.0071896
3730.0 0.0075938
3750.0 0.0078564
3770.0 0.0080032
3790.0 0.0080932
3810.0 0.0079829
3830.0 0.0073413
3850.0 0.006588
3870.0 0.0062372
3890.0 0.0064966
3910.0 0.0067337
3930.0 0.0067676
3950.0 0.0069605
3970.0 0.0072806
3990.0 0.0074723
4010.0 0.0075931
4030.0 0.0074016
4050.0 0.0071744
4070.0 0.0070808
4090.0 0.0071402
4110.0 0.0071863
4130.0 0.0070365
4150.0 0.0068159
4170.0 0.0067463
4190.0 0.0067514
4210.0 0.0064451
4230.0 0.005969
4250.0 0.0053846
4270.0 0.0048243
4290.0 0.0044848
4310.0 0.004306
4330.0 0.0044133
4350.0 0.0048072
4370.0 0.0051027
4390.0 0.0055258
4410.0 0.0059
4430.0 0.0060423
4450.0 0.0057833
4470.0 0.0054792
4490.0 0.0054046
4510.0 0.0053959
4530.0 0.0054221
4550.0 0.0054036
4570.0 0.0054389
4590.0 0.0055932
4610.0 0.0057366
4630.0 0.0058645
4650.0 0.0059556
4670.0 0.0059162
4690.0 0.0056149
4710.0 0.0052932
4730.0 0.0050976
4750.0 0.0049652
4770.0 0.0047972
4790.0 0.0047273
4810.0 0.0046394
4830.0 0.0047923
4850.0 0.0047031
4870.0 0.0049168
4890.0 0.0046598
4910.0 0.0043586
4930.0 0.0041077
4950.0 0.0037624
4970.0 0.0034489
4990.0 0.0032767
5010.0 0.003102
5030.0 0.0030822
5050.0 0.0031355
5070.0 0.0033174
5090.0 0.0034784
5110.0 0.0036379
5130.0 0.0037443
5150.0 0.0037963
5170.0 0.0038016
5190.0 0.003821
5210.0 0.0037943
5230.0 0.003749
5250.0 0.0037579
5270.0 0.0038289
5290.0 0.0037818
5310.0 0.0036743
5330.0 0.0035204
5350.0 0.0033652
5370.0 0.0032758
5390.0 0.0032021
5410.0 0.003249
5430.0 0.0032339
5450.0 0.0032198
5470.0 0.0032043
5490.0 0.0032706
5510.0 0.0033074
5530.0 0.0032511
5550.0 0.0032657
5570.0 0.0032993
5590.0 0.0033237
5610.0 0.0032628
5630.0 0.0032077
5650.0 0.003129
5670.0 0.0031166
5690.0 0.0030293
5710.0 0.0029985
5730.0 0.0029557
5750.0 0.0029079
5770.0 0.0028624
5790.0 0.0027823
5810.0 0.0027465
5830.0 0.0027532
5850.0 0.0027639
5870.0 0.0027563
5890.0 0.0027567
5910.0 0.0027845
5930.0 0.0028327
5950.0 0.0028152
5970.0 0.0028486
5990.0 0.0028619
6010.0 0.0028682
6030.0 0.0028367
6050.0 0.0027791
6070.0 0.0027891
6090.0 0.0028008
6110.0 0.0027576
6130.0 0.0027031
6150.0 0.002624
6170.0 0.0025052
6190.0 0.0023679
6210.0 0.0023256
6230.0 0.0022921
6250.0 0.0022764
6270.0 0.0023229
6290.0 0.0023606
6310.0 0.0023842
6330.0 0.0024199
6350.0 0.0024428
6370.0 0.0024238
6390.0 0.0023539
6410.0 0.0023076
6430.0 0.0022615
6450.0 0.0022116
6470.0 0.0021799
6490.0 0.002184
6510.0 0.002167
6530.0 0.0021559
6550.0 0.002126
6570.0 0.0021024
6590.0 0.0020837
6610.0 0.0020516
6630.0 0.0020321
6650.0 0.0020033
6670.0 0.0019571
6690.0 0.0018915
6710.0 0.0018481
6730.0 0.0018263
6750.0 0.0018135
6770.0 0.0018131
6790.0 0.001769
6810.0 0.0017598
6830.0 0.0017443
6850.0 0.0017222
6870.0 0.0016821
6890.0 0.0016576
6910.0 0.001654
6930.0 0.0016164
6950.0 0.0016235
6970.0 0.0016096
6990.0 0.0015979
7010.0 0.001557
7030.0 0.0015473
7050.0 0.0015381
7070.0 0.0014974
7090.0 0.0014437
7110.0 0.0014354
7130.0 0.0014446
7150.0 0.0014467
7170.0 0.0014576
7190.0 0.00147
7210.0 0.0015029
7230.0 0.0015091
7250.0 0.0015332
7270.0 0.0014933
7290.0 0.0014925
7310.0 0.0014608
7330.0 0.0014417
7350.0 0.0014053
7370.0 0.0013888
7390.0 0.0013922
7410.0 0.0013734
7430.0 0.0013818
7450.0 0.0013472
7470.0 0.0013388
7490.0 0.0012878
7510.0 0.0012393
7530.0 0.001256
7550.0 0.0012111
7570.0 0.001226
7590.0 0.001166
7610.0 0.0012029
7630.0 0.0011826
7650.0 0.0012032
7670.0 0.0011637
7690.0 0.0011809
7710.0 0.0011554
7730.0 0.0012102
7750.0 0.0011883
7770.0 0.0012471
7790.0 0.0012837
7810.0 0.0012894
7830.0 0.0013485
7850.0 0.0013168
7870.0 0.001383
7890.0 0.001352
7910.0 0.0013295
7930.0 0.0013048
7950.0 0.0012892
7970.0 0.0012949
7990.0 0.0012868
8010.0 0.0012363
8030.0 0.001226
8050.0 0.0012005
8070.0 0.001183
8090.0 0.0011132
8110.0 0.0011196
8130.0 0.0011681
8150.0 0.0012034
8170.0 0.0012044
8190.0 0.0012355
8210.0 0.0012167
8230.0 0.0011779
8250.0 0.0011719
8270.0 0.0011495
8290.0 0.0011265
8310.0 0.0010726
8330.0 0.0010775
8350.0 0.0010851
8370.0 0.0010915
8390.0 0.0010987
8410.0 0.0010839
8430.0 0.001079
8450.0 0.0010826
8470.0 0.001109
8490.0 0.0011234
8510.0 0.0010898
8530.0 0.0010471
8550.0 0.0010492
8570.0 0.0010353
8590.0 0.0010074
8610.0 0.0010269
8630.0 0.0010171
8650.0 0.0010033
8670.0 0.00099578
8690.0 0.00098793
8710.0 0.00094268
8730.0 0.00095342
8750.0 0.00092602
8770.0 0.00092794
8790.0 0.00090657
8810.0 0.00088873
8830.0 0.00089399
8850.0 0.00087941
8870.0 0.00083852
8890.0 0.00081862
8910.0 0.00078261
8930.0 0.00073335
8950.0 0.00072506
8970.0 0.00069437
8990.0 0.00068583
9010.0 0.00067032
9030.0 0.00066416
9050.0 0.00065974
9070.0 0.00065539
9090.0 0.00065099
9110.0 0.0006465
9130.0 0.00064201
9150.0 0.0006376
9170.0 0.00063315
9190.0 0.00062867
9210.0 0.00062416
9230.0 0.00061963
9250.0 0.00061509
9270.0 0.00061054
9290.0 0.00060598
9310.0 0.00060144
9330.0 0.00059694
9350.0 0.00059244
9370.0 0.00058793
9390.0 0.00058344
9410.0 0.00057894
9430.0 0.00057445
9450.0 0.00056998
9470.0 0.00056592
9490.0 0.00056165
9510.0 0.00055699
9530.0 0.00055239
9550.0 0.0005479
9570.0 0.00054347
9590.0 0.00053907
9610.0 0.00053473
9630.0 0.00053045
9650.0 0.00052618
9670.0 0.00052192
9690.0 0.00051772
9710.0 0.00051354
9730.0 0.00050938
9750.0 0.00050525
9770.0 0.00050119
9790.0 0.00049713
9810.0 0.00049309
9830.0 0.00048908
9850.0 0.0004847
9870.0 0.00048046
9890.0 0.00047691
9910.0 0.0004733
9930.0 0.00046891
9950.0 0.00046514
9970.0 0.00046174
9990.0 0.00045825
10010.0 0.0004548
10030.0 0.00045129
10050.0 0.00044774
10070.0 0.00044426
10090.0 0.00044082
10110.0 0.00043736
10130.0 0.00043395
10150.0 0.00043063
10170.0 0.00042734
10190.0 0.00042405
10210.0 0.00042085
10230.0 0.00041771
10250.0 0.00041457
10270.0 0.00041148
10290.0 0.00040848
10310.0 0.00040547
10330.0 0.00040248
10350.0 0.00039959
10370.0 0.00039674
10390.0 0.00039388
10410.0 0.00039096
10430.0 0.00038809
10450.0 0.00038553
10470.0 0.00038292
10490.0 0.00038037
10510.0 0.00037785
10530.0 0.00037528
10550.0 0.00037278
10570.0 0.00037037
10590.0 0.00036796
10610.0 0.00036556
10630.0 0.00036326
10650.0 0.00036099
10670.0 0.00035869
10690.0 0.00035647
10710.0 0.00035432
10730.0 0.00035216
10750.0 0.00035
10770.0 0.00034797
10790.0 0.00034595
10810.0 0.00034392
10830.0 0.00034196
10850.0 0.00034007
10870.0 0.00033814
10890.0 0.00033625
10910.0 0.00033445
10930.0 0.00033268
10950.0 0.00033089
10970.0 0.00032918
10990.0 0.00032756
11010.0 0.00033343
11030.0 0.00033142
11050.0 0.0003294
11070.0 0.00032731
11090.0 0.00032509
11110.0 0.00032291
11130.0 0.00032073
11150.0 0.00031846
11170.0 0.00031616
11190.0 0.00031395
11210.0 0.00031168
11230.0 0.00030936
11250.0 0.00030714
11270.0 0.00030498
11290.0 0.0003028
11310.0 0.00030069
11330.0 0.00029879
11350.0 0.00029694
11370.0 0.00029515
11390.0 0.00029354
11410.0 0.00029205
11430.0 0.00029058
11450.0 0.00028923
11470.0 0.00028799
11490.0 0.00028679
11510.0 0.00028558
11530.0 0.00028447
11550.0 0.00028338
11570.0 0.00028224
11590.0 0.00028111
11610.0 0.00028001
11630.0 0.00027885
11650.0 0.00027763
11670.0 0.00027647
11690.0 0.00027529
11710.0 0.00027404
11730.0 0.00027279
11750.0 0.00027161
11770.0 0.00027035
11790.0 0.00026907
11810.0 0.00026786
11830.0 0.00026667
11850.0 0.00026541
11870.0 0.00026424
11890.0 0.00026319
11910.0 0.00026214
11930.0 0.00026115
11950.0 0.00026032
11970.0 0.00025959
11990.0 0.00025891
12010.0 0.00025841
12030.0 0.00025807
12050.0 0.00025784
12070.0 0.00025776
12090.0 0.00025788
12110.0 0.00025814
12130.0 0.00025853
12150.0 0.00025907
12170.0 0.00025973
12190.0 0.00026049
12210.0 0.00026133
12230.0 0.00026225
12250.0 0.00026319
12270.0 0.00026415
12290.0 0.0002651
12310.0 0.00026602
12330.0 0.00026687
12350.0 0.00026765
12370.0 0.00026834
12390.0 0.00026893
12410.0 0.00026935
12430.0 0.00026968
12450.0 0.00026989
12470.0 0.00026993
12490.0 0.00026981
12510.0 0.00026962
12530.0 0.00026924
12550.0 0.00026869
12570.0 0.00026804
12590.0 0.00026729
12610.0 0.00026634
12630.0 0.00026526
12650.0 0.0002642
12670.0 0.00026299
12690.0 0.00026166
12710.0 0.00026033
12730.0 0.00025899
12750.0 0.00025747
12770.0 0.00025599
12790.0 0.00025459
12810.0 0.00025314
12830.0 0.00025164
12850.0 0.00025031
12870.0 0.00024905
12890.0 0.00024776
12910.0 0.0002466
12930.0 0.00024561
12950.0 0.00024465
12970.0 0.00024378
12990.0 0.00024314
13010.0 0.00024264
13030.0 0.00024224
13050.0 0.00024202
13070.0 0.00024198
13090.0 0.00024204
13110.0 0.00024222
13130.0 0.00024253
13150.0 0.00024293
13170.0 0.00024337
13190.0 0.00024388
13210.0 0.00024443
13230.0 0.00024497
13250.0 0.0002455
13270.0 0.000246
13290.0 0.00024647
13310.0 0.00024685
13330.0 0.00024717
13350.0 0.00024741
13370.0 0.00024754
13390.0 0.00024753
13410.0 0.00024745
13430.0 0.00024723
13450.0 0.00024684
13470.0 0.00024633
13490.0 0.00024572
13510.0 0.00024489
13530.0 0.00024394
13550.0 0.00024292
13570.0 0.00024177
13590.0 0.00024046
13610.0 0.00023911
13630.0 0.00023772
13650.0 0.00023617
13670.0 0.00023456
13690.0 0.00023294
13710.0 0.00023123
13730.0 0.00022934
13750.0 0.00022752
13770.0 0.00022566
13790.0 0.00022368
13810.0 0.00022167
13830.0 0.00021972
13850.0 0.00021767
13870.0 0.00021556
13890.0 0.00021352
13910.0 0.00021151
13930.0 0.00020942
13950.0 0.00020737
13970.0 0.00020547
13990.0 0.00020354
14010.0 0.00020163
14030.0 0.00019983
14050.0 0.00019809
14070.0 0.00019631
14090.0 0.00019462
14110.0 0.00019303
14130.0 0.00019143
14150.0 0.00018984
14170.0 0.00018835
14190.0 0.00018688
14210.0 0.00018538
14230.0 0.00018392
14250.0 0.00018251
14270.0 0.00018106
14290.0 0.0001796
14310.0 0.00017822
14330.0 0.00017685
14350.0 0.00017546
14370.0 0.00017412
14390.0 0.00017283
14410.0 0.00017153
14430.0 0.00017026
14450.0 0.00016904
14470.0 0.00016785
14490.0 0.00016664
14510.0 0.00016547
14530.0 0.00016433
14550.0 0.00016317
14570.0 0.000162
14590.0 0.00016085
14610.0 0.00015967
14630.0 0.00015846
14650.0 0.00015724
14670.0 0.00015603
14690.0 0.00015476
14710.0 0.00015347
14730.0 0.00015219
14750.0 0.00015089
14770.0 0.00014954
14790.0 0.00014819
14810.0 0.00014683
14830.0 0.00014541
14850.0 0.00014398
14870.0 0.00014256
14890.0 0.00014111
14910.0 0.00013963
14930.0 0.00013819
14950.0 0.00013679
14970.0 0.0001354
14990.0 0.00013407
15010.0 0.00013281
15030.0 0.00013161
15050.0 0.00013044
15070.0 0.00012935
15090.0 0.00012829
15110.0 0.00012724
15130.0 0.00012621
15150.0 0.00012519
15170.0 0.00012416
15190.0 0.00012313
15210.0 0.0001221
15230.0 0.00012107
15250.0 0.00012003
15270.0 0.000119
15290.0 0.00011797
15310.0 0.00011693
15330.0 0.00011589
15350.0 0.00011486
15370.0 0.00011383
15390.0 0.00011279
15410.0 0.00011175
15430.0 0.00011073
15450.0 0.00010969
15470.0 0.00010866
15490.0 0.00010763
15510.0 0.00010661
15530.0 0.00010558
15550.0 0.00010456
15570.0 0.00010355
15590.0 0.00010253
15610.0 0.00010151
15630.0 0.00010051
15650.0 9.9512e-05
15670.0 9.8507e-05
15690.0 9.7512e-05
15710.0 9.653e-05
15730.0 9.5541e-05
15750.0 9.4556e-05
15770.0 9.3585e-05
15790.0 9.2617e-05
15810.0 9.1642e-05
15830.0 9.0684e-05
15850.0 8.9736e-05
15870.0 8.8786e-05
15890.0 8.7842e-05
15910.0 8.6913e-05
15930.0 8.5985e-05
15950.0 8.5056e-05
15970.0 8.4141e-05
15990.0 8.3237e-05
16010.0 8.2331e-05
16030.0 8.143e-05
16050.0 8.0549e-05
16070.0 7.9669e-05
16090.0 7.8791e-05
16110.0 7.7927e-05
16130.0 7.7074e-05
16150.0 7.6215e-05
16170.0 7.5368e-05
16190.0 7.4537e-05
16210.0 7.3708e-05
16230.0 7.2882e-05
16250.0 7.2072e-05
16270.0 7.1272e-05
16290.0 7.047e-05
16310.0 6.9679e-05
16330.0 6.8902e-05
16350.0 6.8129e-05
16370.0 6.7354e-05
16390.0 6.66e-05
16410.0 6.5854e-05
16430.0 6.5109e-05
16450.0 6.4374e-05
16470.0 6.3655e-05
16490.0 6.2935e-05
16510.0 6.2222e-05
16530.0 6.1522e-05
16550.0 6.0831e-05
16570.0 6.0141e-05
16590.0 5.9461e-05
16610.0 5.8797e-05
16630.0 5.8135e-05
16650.0 5.7478e-05
16670.0 5.6836e-05
16690.0 5.6201e-05
16710.0 5.5564e-05
16730.0 5.4941e-05
16750.0 5.433e-05
16770.0 5.3722e-05
16790.0 5.3119e-05
16810.0 5.2531e-05
16830.0 5.1949e-05
16850.0 5.1369e-05
16870.0 5.0801e-05
16890.0 5.0243e-05
16910.0 4.9686e-05
16930.0 4.9135e-05
16950.0 4.8599e-05
16970.0 4.8068e-05
16990.0 4.7539e-05
17010.0 4.7022e-05
17030.0 4.6516e-05
17050.0 4.6009e-05
17070.0 4.551e-05
17090.0 4.5023e-05
17110.0 4.4541e-05
17130.0 4.4059e-05
17150.0 4.359e-05
17170.0 4.313e-05
17190.0 4.2672e-05
17210.0 4.222e-05
17230.0 4.1781e-05
17250.0 4.1344e-05
17270.0 4.0909e-05
17290.0 4.0485e-05
17310.0 4.0069e-05
17330.0 3.9654e-05
17350.0 3.9245e-05
17370.0 3.8849e-05
17390.0 3.8455e-05
17410.0 3.8064e-05
17430.0 3.7683e-05
17450.0 3.7309e-05
17470.0 3.6934e-05
17490.0 3.6566e-05
17510.0 3.6209e-05
17530.0 3.5854e-05
17550.0 3.5502e-05
17570.0 3.516e-05
17590.0 3.4824e-05
17610.0 3.4488e-05
17630.0 3.4159e-05
17650.0 3.3839e-05
17670.0 3.352e-05
17690.0 3.3202e-05
17710.0 3.2896e-05
17730.0 3.2594e-05
17750.0 3.2293e-05
17770.0 3.1999e-05
17790.0 3.1714e-05
17810.0 3.1427e-05
17830.0 3.1144e-05
17850.0 3.087e-05
17870.0 3.06e-05
17890.0 3.033e-05
17910.0 3.0066e-05
17930.0 2.9811e-05
17950.0 2.9556e-05
17970.0 2.9304e-05
17990.0 2.906e-05
18010.0 2.882e-05
18030.0 2.8577e-05
18050.0 2.8343e-05
18070.0 2.8115e-05
18090.0 2.7887e-05
18110.0 2.7662e-05
18130.0 2.7446e-05
18150.0 2.7231e-05
18170.0 2.7017e-05
18190.0 2.6809e-05
18210.0 2.6607e-05
18230.0 2.6403e-05
18250.0 2.6203e-05
18270.0 2.601e-05
18290.0 2.582e-05
18310.0 2.563e-05
18330.0 2.5445e-05
18350.0 2.5267e-05
18370.0 2.5086e-05
18390.0 2.4909e-05
18410.0 2.4739e-05
18430.0 2.457e-05
18450.0 2.4399e-05
18470.0 2.4237e-05
18490.0 2.4078e-05
18510.0 2.3919e-05
18530.0 2.3763e-05
18550.0 2.3614e-05
18570.0 2.3464e-05
18590.0 2.3314e-05
18610.0 2.3171e-05
18630.0 2.3031e-05
18650.0 2.289e-05
18670.0 2.2751e-05
18690.0 2.262e-05
18710.0 2.2489e-05
18730.0 2.2358e-05
18750.0 2.2232e-05
18770.0 2.211e-05
18790.0 2.1984e-05
18810.0 2.1864e-05
18830.0 2.1748e-05
18850.0 2.1633e-05
18870.0 2.1517e-05
18890.0 2.1408e-05
18910.0 2.1301e-05
18930.0 2.1192e-05
18950.0 2.1087e-05
18970.0 2.0987e-05
18990.0 2.0886e-05
19010.0 2.0783e-05
19030.0 2.0689e-05
19050.0 2.0595e-05
19070.0 2.0501e-05
19090.0 2.041e-05
19110.0 2.0324e-05
19130.0 2.0235e-05
19150.0 2.0147e-05
19170.0 2.0065e-05
19190.0 1.9984e-05
19210.0 1.9901e-05
19230.0 1.9822e-05
19250.0 1.9748e-05
19270.0 1.9672e-05
19290.0 1.9597e-05
19310.0 1.9528e-05
19330.0 1.9459e-05
19350.0 1.9386e-05
19370.0 1.9319e-05
19390.0 1.9255e-05
19410.0 1.919e-05
19430.0 1.9125e-05
19450.0 1.9066e-05
19470.0 1.9007e-05
19490.0 1.8947e-05
19510.0 1.889e-05
19530.0 1.8837e-05
19550.0 1.878e-05
19570.0 1.8724e-05
19590.0 1.8675e-05
19610.0 1.8625e-05
19630.0 1.8574e-05
19650.0 1.8527e-05
19670.0 1.8483e-05
19690.0 1.8435e-05
19710.0 1.839e-05
19730.0 1.8349e-05
19750.0 1.8307e-05
19770.0 1.8262e-05
19790.0 1.8224e-05
19810.0 1.8187e-05
19830.0 1.8149e-05
19850.0 1.8112e-05
19870.0 1.808e-05
19890.0 1.8047e-05
19910.0 1.8013e-05
19930.0 1.7988e-05
19950.0 1.7969e-05
19970.0 1.7953e-05
19990.0 1.7947e-05
20010.0 1.7956e-05
20030.0 1.7973e-05
20050.0 1.8e-05
20070.0 1.804e-05
20090.0 1.809e-05
20110.0 1.8147e-05
20130.0 1.8212e-05
20150.0 1.8283e-05
20170.0 1.836e-05
20190.0 1.844e-05
20210.0 1.8525e-05
20230.0 1.8614e-05
20250.0 1.8704e-05
20270.0 1.8798e-05
20290.0 1.8894e-05
20310.0 1.8991e-05
20330.0 1.9088e-05
20350.0 1.9188e-05
20370.0 1.9288e-05
20390.0 1.9388e-05
20410.0 1.9489e-05
20430.0 1.9591e-05
20450.0 1.9692e-05
20470.0 1.9794e-05
20490.0 1.9898e-05
20510.0 2.0004e-05
20530.0 2.0111e-05
20550.0 2.022e-05
20570.0 2.0334e-05
20590.0 2.0449e-05
20610.0 2.0568e-05
20630.0 2.0691e-05
20650.0 2.0817e-05
20670.0 2.0946e-05
20690.0 2.108e-05
20710.0 2.1216e-05
20730.0 2.1354e-05
20750.0 2.1494e-05
20770.0 2.1636e-05
20790.0 2.1779e-05
20810.0 2.192e-05
20830.0 2.2062e-05
20850.0 2.2203e-05
20870.0 2.2341e-05
20890.0 2.2477e-05
20910.0 2.2612e-05
20930.0 2.2744e-05
20950.0 2.2873e-05
20970.0 2.3001e-05
20990.0 2.3128e-05
21010.0 2.3251e-05
21030.0 2.3373e-05
21050.0 2.3497e-05
21070.0 2.3619e-05
21090.0 2.3739e-05
21110.0 2.3863e-05
21130.0 2.3989e-05
21150.0 2.4113e-05
21170.0 2.4238e-05
21190.0 2.4368e-05
21210.0 2.4496e-05
21230.0 2.4622e-05
21250.0 2.4752e-05
21270.0 2.4882e-05
21290.0 2.5009e-05
21310.0 2.5135e-05
21330.0 2.5265e-05
21350.0 2.5389e-05
21370.0 2.5509e-05
21390.0 2.5631e-05
21410.0 2.5751e-05
21430.0 2.5861e-05
21450.0 2.5972e-05
21470.0 2.6086e-05
21490.0 2.6192e-05
21510.0 2.6294e-05
21530.0 2.64e-05
21550.0 2.6503e-05
21570.0 2.6597e-05
21590.0 2.6694e-05
21610.0 2.6793e-05
21630.0 2.6886e-05
21650.0 2.6971e-05
21670.0 2.7068e-05
21690.0 2.7162e-05
21710.0 2.7248e-05
21730.0 2.7338e-05
21750.0 2.7433e-05
21770.0 2.7515e-05
21790.0 2.7598e-05
21810.0 2.7688e-05
21830.0 2.7775e-05
21850.0 2.7853e-05
21870.0 2.7937e-05
21890.0 2.8029e-05
21910.0 2.8111e-05
21930.0 2.8194e-05
21950.0 2.8286e-05
21970.0 2.8376e-05
21990.0 2.8459e-05
22010.0 2.8555e-05
22030.0 2.8658e-05
22050.0 2.8759e-05
22070.0 2.8864e-05
22090.0 2.8986e-05
22110.0 2.9108e-05
22130.0 2.9232e-05
22150.0 2.937e-05
22170.0 2.9518e-05
22190.0 2.9665e-05
22210.0 2.982e-05
22230.0 2.9992e-05
22250.0 3.0167e-05
22270.0 3.0345e-05
22290.0 3.0535e-05
22310.0 3.0733e-05
22330.0 3.0928e-05
22350.0 3.113e-05
22370.0 3.1342e-05
22390.0 3.1555e-05
22410.0 3.1765e-05
22430.0 3.1988e-05
22450.0 3.2214e-05
22470.0 3.2437e-05
22490.0 3.2666e-05
22510.0 3.2904e-05
22530.0 3.3139e-05
22550.0 3.3374e-05
22570.0 3.3621e-05
22590.0 3.3872e-05
22610.0 3.4123e-05
22630.0 3.438e-05
22650.0 3.4649e-05
22670.0 3.4918e-05
22690.0 3.519e-05
22710.0 3.5474e-05
22730.0 3.5764e-05
22750.0 3.6053e-05
22770.0 3.6354e-05
22790.0 3.6666e-05
22810.0 3.6982e-05
22830.0 3.7306e-05
22850.0 3.7645e-05
22870.0 3.7992e-05
22890.0 3.8346e-05
22910.0 3.8716e-05
22930.0 3.9101e-05
