#lamb flux
1010.0 6.4505e-06
1030.0 6.8674e-06
1050.0 7.349e-06
1070.0 7.8919e-06
1090.0 8.5089e-06
1110.0 9.1432e-06
1130.0 9.7834e-06
1150.0 1.0456e-05
1170.0 1.1151e-05
1190.0 1.1814e-05
1210.0 1.2487e-05
1230.0 1.3186e-05
1250.0 1.3874e-05
1270.0 1.4546e-05
1290.0 1.5258e-05
1310.0 1.5973e-05
1330.0 1.6664e-05
1350.0 1.7366e-05
1370.0 1.8094e-05
1390.0 1.881e-05
1410.0 1.9509e-05
1430.0 2.0243e-05
1450.0 2.0981e-05
1470.0 2.1701e-05
1490.0 2.2432e-05
1510.0 2.3206e-05
1530.0 2.3946e-05
1550.0 2.468e-05
1570.0 2.5441e-05
1590.0 2.6205e-05
1610.0 2.6939e-05
1630.0 2.7695e-05
1650.0 2.847e-05
1670.0 2.9221e-05
1690.0 2.9961e-05
1710.0 3.0725e-05
1730.0 3.1489e-05
1750.0 3.2204e-05
1770.0 3.2934e-05
1790.0 3.367e-05
1810.0 3.4374e-05
1830.0 3.5055e-05
1850.0 3.5768e-05
1870.0 3.6449e-05
1890.0 3.7092e-05
1910.0 3.7735e-05
1930.0 3.838e-05
1950.0 3.8975e-05
1970.0 3.9547e-05
1990.0 4.0126e-05
2010.0 4.0677e-05
2030.0 4.1187e-05
2050.0 4.17e-05
2070.0 4.2214e-05
2090.0 4.2673e-05
2110.0 4.3116e-05
2130.0 4.3565e-05
2150.0 4.3989e-05
2170.0 4.4374e-05
2190.0 4.4774e-05
2210.0 4.5171e-05
2230.0 4.5536e-05
2250.0 4.5896e-05
2270.0 4.6282e-05
2290.0 4.6648e-05
2310.0 4.6992e-05
2330.0 4.7361e-05
2350.0 4.774e-05
2370.0 4.8104e-05
2390.0 4.8485e-05
2410.0 4.8907e-05
2430.0 4.9325e-05
2450.0 4.975e-05
2470.0 5.022e-05
2490.0 5.0753e-05
2510.0 5.1361e-05
2530.0 5.2218e-05
2550.0 5.3609e-05
2570.0 5.5851e-05
2590.0 5.9323e-05
2610.0 6.4979e-05
2630.0 7.3125e-05
2650.0 8.3412e-05
2670.0 9.6007e-05
2690.0 0.00011055
2710.0 0.00012519
2730.0 0.00013901
2750.0 0.00015224
2770.0 0.00016378
2790.0 0.00017346
2810.0 0.00018211
2830.0 0.00019039
2850.0 0.00019794
2870.0 0.00020545
2890.0 0.00021341
2910.0 0.00022167
2930.0 0.00022997
2950.0 0.00023886
2970.0 0.00024827
2990.0 0.00025777
3010.0 0.00091211
3030.0 0.00094695
3050.0 0.0009816
3070.0 0.0010129
3090.0 0.0010393
3110.0 0.0010538
3130.0 0.0010475
3150.0 0.0010113
3170.0 0.00092651
3190.0 0.00079142
3210.0 0.00060863
3230.0 0.0004035
3250.0 0.00061859
3270.0 0.00038685
3290.0 0.00089048
3310.0 0.00035103
3330.0 0.00034751
3350.0 0.00041619
3370.0 0.00049834
3390.0 0.00058817
3410.0 0.00067818
3430.0 0.00077304
3450.0 0.00086878
3470.0 0.00095712
3490.0 0.001019
3510.0 0.0012236
3530.0 0.0015844
3550.0 0.0015434
3570.0 0.0012727
3590.0 0.0017228
3610.0 0.001115
3630.0 0.0018157
3650.0 0.0021149
3670.0 0.0026892
3690.0 0.0024969
3710.0 0.001672
3730.0 0.0021579
3750.0 0.0022095
3770.0 0.0023714
3790.0 0.0023011
3810.0 0.0023689
3830.0 0.0037232
3850.0 0.0045702
3870.0 0.0056358
3890.0 0.005477
3910.0 0.0048951
3930.0 0.0049582
3950.0 0.0053557
3970.0 0.0059052
3990.0 0.0037864
4010.0 0.0020496
4030.0 0.0036448
4050.0 0.0048211
4070.0 0.0051576
4090.0 0.0036075
4110.0 0.0022835
4130.0 0.0037555
4150.0 0.0038342
4170.0 0.003569
4190.0 0.0032384
4210.0 0.0045837
4230.0 0.0033769
4250.0 0.0036587
4270.0 0.0036348
4290.0 0.0034437
4310.0 0.0044146
4330.0 0.0047703
4350.0 0.0039745
4370.0 0.0033552
4390.0 0.0040893
4410.0 0.0041881
4430.0 0.0030794
4450.0 0.0027941
4470.0 0.003453
4490.0 0.0026419
4510.0 0.0036877
4530.0 0.0038326
4550.0 0.0045483
4570.0 0.0064121
4590.0 0.0063411
4610.0 0.0050278
4630.0 0.0080239
4650.0 0.010693
4670.0 0.010197
4690.0 0.007211
4710.0 0.0076467
4730.0 0.0086616
4750.0 0.0071354
4770.0 0.0054549
4790.0 0.0036815
4810.0 0.0050251
4830.0 0.0059183
4850.0 0.0052021
4870.0 0.0021869
4890.0 0.0059032
4910.0 0.0077394
4930.0 0.0084116
4950.0 0.0086675
4970.0 0.0060884
4990.0 0.0070852
5010.0 0.0082294
5030.0 0.0088209
5050.0 0.0082348
5070.0 0.0058232
5090.0 0.0047246
5110.0 0.0045674
5130.0 0.0043396
5150.0 0.0045202
5170.0 0.0040335
5190.0 0.0048089
5210.0 0.0048841
5230.0 0.0054125
5250.0 0.0064297
5270.0 0.0053333
5290.0 0.0055489
5310.0 0.0081597
5330.0 0.0093844
5350.0 0.0078797
5370.0 0.007088
5390.0 0.0082276
5410.0 0.0098228
5430.0 0.010469
5450.0 0.011018
5470.0 0.011097
5490.0 0.011433
5510.0 0.013691
5530.0 0.014228
5550.0 0.015031
5570.0 0.015789
5590.0 0.015525
5610.0 0.014542
5630.0 0.014204
5650.0 0.014697
5670.0 0.014367
5690.0 0.012306
5710.0 0.012178
5730.0 0.012203
5750.0 0.012695
5770.0 0.010939
5790.0 0.010441
5810.0 0.010702
5830.0 0.011555
5850.0 0.010764
5870.0 0.010821
5890.0 0.012625
5910.0 0.011785
5930.0 0.0097373
5950.0 0.0088007
5970.0 0.0095962
5990.0 0.0087181
6010.0 0.0079715
6030.0 0.0078172
6050.0 0.0071597
6070.0 0.0055477
6090.0 0.0052759
6110.0 0.0067685
6130.0 0.0075956
6150.0 0.0078454
6170.0 0.0076299
6190.0 0.0072772
6210.0 0.0075877
6230.0 0.0092079
6250.0 0.0085082
6270.0 0.0076497
6290.0 0.0069537
6310.0 0.0062983
6330.0 0.0058426
6350.0 0.005222
6370.0 0.0052927
6390.0 0.0061587
6410.0 0.007647
6430.0 0.0090391
6450.0 0.0090739
6470.0 0.0091751
6490.0 0.011205
6510.0 0.012865
6530.0 0.012225
6550.0 0.011599
6570.0 0.011767
6590.0 0.011597
6610.0 0.012275
6630.0 0.011446
6650.0 0.0099451
6670.0 0.0091741
6690.0 0.0090947
6710.0 0.010765
6730.0 0.0095854
6750.0 0.0078841
6770.0 0.007117
6790.0 0.0075612
6810.0 0.0086832
6830.0 0.0086427
6850.0 0.0077514
6870.0 0.0080284
6890.0 0.007979
6910.0 0.0074987
6930.0 0.0083254
6950.0 0.0077445
6970.0 0.0072145
6990.0 0.0071919
7010.0 0.0072446
7030.0 0.007037
7050.0 0.006738
7070.0 0.0072269
7090.0 0.0067311
7110.0 0.0057072
7130.0 0.0049021
7150.0 0.0048139
7170.0 0.0060781
7190.0 0.0064439
7210.0 0.00611
7230.0 0.0064258
7250.0 0.0062412
7270.0 0.006088
7290.0 0.0065951
7310.0 0.0072295
7330.0 0.0070438
7350.0 0.006535
7370.0 0.0060453
7390.0 0.0060634
7410.0 0.0069667
7430.0 0.0078442
7450.0 0.0083517
7470.0 0.0084713
7490.0 0.0094235
7510.0 0.0093116
7530.0 0.0084313
7550.0 0.0079815
7570.0 0.0068976
7590.0 0.0065669
7610.0 0.0063429
7630.0 0.0058429
7650.0 0.0062769
7670.0 0.0069539
7690.0 0.0075705
7710.0 0.0086382
7730.0 0.0090603
7750.0 0.0094135
7770.0 0.0097849
7790.0 0.010614
7810.0 0.010692
7830.0 0.0095954
7850.0 0.0096342
7870.0 0.0092765
7890.0 0.0094979
7910.0 0.0089453
7930.0 0.0088801
7950.0 0.0074566
7970.0 0.0074806
7990.0 0.0072291
8010.0 0.0078536
8030.0 0.0078196
8050.0 0.0083052
8070.0 0.0079665
8090.0 0.0079976
8110.0 0.0078718
8130.0 0.0077797
8150.0 0.0073024
8170.0 0.0071611
8190.0 0.0071393
8210.0 0.0072055
8230.0 0.0062998
8250.0 0.0057571
8270.0 0.0050857
8290.0 0.0043219
8310.0 0.0038053
8330.0 0.0030128
8350.0 0.002438
8370.0 0.0023528
8390.0 0.0022799
8410.0 0.0023848
8430.0 0.003066
8450.0 0.0033374
8470.0 0.0035902
8490.0 0.0041993
8510.0 0.0045675
8530.0 0.0051911
8550.0 0.0061376
8570.0 0.0067383
8590.0 0.0070833
8610.0 0.007863
8630.0 0.0089406
8650.0 0.009167
8670.0 0.0093532
8690.0 0.0097007
8710.0 0.0095072
8730.0 0.0092022
8750.0 0.0084749
8770.0 0.0084728
8790.0 0.0083481
8810.0 0.007673
8830.0 0.007678
8850.0 0.0070279
8870.0 0.0066974
8890.0 0.0059969
8910.0 0.006681
8930.0 0.0060398
8950.0 0.0060521
8970.0 0.0061766
8990.0 0.0059951
9010.0 0.0061555
9030.0 0.0058432
9050.0 0.0058149
9070.0 0.0058175
9090.0 0.0058188
9110.0 0.0058241
9130.0 0.0058237
9150.0 0.0058205
9170.0 0.0058013
9190.0 0.0057589
9210.0 0.00585
9230.0 0.0058241
9250.0 0.0058093
9270.0 0.0057967
9290.0 0.0057855
9310.0 0.0057752
9330.0 0.005765
9350.0 0.0057549
9370.0 0.0057444
9390.0 0.0057334
9410.0 0.0057221
9430.0 0.0057105
9450.0 0.0056981
9470.0 0.0056854
9490.0 0.0056725
9510.0 0.0056592
9530.0 0.0056454
9550.0 0.0056317
9570.0 0.0056177
9590.0 0.0056034
9610.0 0.005589
9630.0 0.0055746
9650.0 0.0055601
9670.0 0.0055452
9690.0 0.0055306
9710.0 0.0055161
9730.0 0.0055013
9750.0 0.0054866
9770.0 0.0054726
9790.0 0.0054582
9810.0 0.0054438
9830.0 0.0054298
9850.0 0.0054161
9870.0 0.0054022
9890.0 0.0053886
9910.0 0.0053756
9930.0 0.0053625
9950.0 0.0053412
9970.0 0.0053315
9990.0 0.0053217
10010.0 0.0053113
10030.0 0.0053008
10050.0 0.0052884
10070.0 0.0052658
10090.0 0.0052595
10110.0 0.0052531
10130.0 0.0052459
10150.0 0.0052384
10170.0 0.0052304
10190.0 0.0052219
10210.0 0.005214
10230.0 0.0052064
10250.0 0.0051988
10270.0 0.0051916
10290.0 0.0051852
10310.0 0.0051787
10330.0 0.0051724
10350.0 0.0051669
10370.0 0.0051618
10390.0 0.0051568
10410.0 0.0051522
10430.0 0.0051484
10450.0 0.0051446
10470.0 0.005141
10490.0 0.0051381
10510.0 0.0051355
10530.0 0.0051329
10550.0 0.0051308
10570.0 0.0051293
10590.0 0.0051279
10610.0 0.0051268
10630.0 0.0051262
10650.0 0.005126
10670.0 0.0051257
10690.0 0.0051259
10710.0 0.0051266
10730.0 0.0051273
10750.0 0.0051282
10770.0 0.0051297
10790.0 0.0051314
10810.0 0.0051331
10830.0 0.005135
10850.0 0.0051369
10870.0 0.0051377
10890.0 0.0051365
10910.0 0.0051322
10930.0 0.0051219
10950.0 0.0051014
10970.0 0.0050685
10990.0 0.005022
11010.0 0.005109
11030.0 0.0050199
11050.0 0.0049152
11070.0 0.004794
11090.0 0.0046533
11110.0 0.0045131
11130.0 0.0043728
11150.0 0.0042291
11170.0 0.0040895
11190.0 0.0039624
11210.0 0.0038399
11230.0 0.0037232
11250.0 0.00362
11270.0 0.0035278
11290.0 0.0034416
11310.0 0.0033648
11330.0 0.0033002
11350.0 0.0032404
11370.0 0.0031849
11390.0 0.0031349
11410.0 0.0030878
11430.0 0.0030389
11450.0 0.0029905
11470.0 0.0029422
11490.0 0.0028906
11510.0 0.0028346
11530.0 0.0027782
11550.0 0.0027196
11570.0 0.0026562
11590.0 0.0025912
11610.0 0.002527
11630.0 0.0024594
11650.0 0.0023896
11670.0 0.0023232
11690.0 0.0022577
11710.0 0.0021911
11730.0 0.0021269
11750.0 0.0020673
11770.0 0.0020075
11790.0 0.0019493
11810.0 0.0018956
11830.0 0.0018443
11850.0 0.0017926
11870.0 0.0017449
11890.0 0.0017007
11910.0 0.0016569
11930.0 0.0016141
11950.0 0.0015745
11970.0 0.0015356
11990.0 0.001496
12010.0 0.0014585
12030.0 0.0014228
12050.0 0.001387
12070.0 0.0013516
12090.0 0.00132
12110.0 0.0012895
12130.0 0.0012603
12150.0 0.0012345
12170.0 0.0012124
12190.0 0.0011924
12210.0 0.0011771
12230.0 0.001167
12250.0 0.0011616
12270.0 0.0011616
12290.0 0.0011674
12310.0 0.0011785
12330.0 0.0011956
12350.0 0.0012179
12370.0 0.0012442
12390.0 0.0012747
12410.0 0.0013101
12430.0 0.001346
12450.0 0.0013826
12470.0 0.0014205
12490.0 0.0014576
12510.0 0.0014918
12530.0 0.0015246
12550.0 0.0015553
12570.0 0.001582
12590.0 0.001605
12610.0 0.0016253
12630.0 0.0016418
12650.0 0.0016543
12670.0 0.0016639
12690.0 0.0016705
12710.0 0.0016743
12730.0 0.0016757
12750.0 0.0016745
12770.0 0.0016713
12790.0 0.0016664
12810.0 0.0016595
12830.0 0.0016505
12850.0 0.0016403
12870.0 0.0016285
12890.0 0.0016143
12910.0 0.0015983
12930.0 0.0015812
12950.0 0.0015611
12970.0 0.0015384
12990.0 0.0015149
13010.0 0.0014895
13030.0 0.0014614
13050.0 0.0014323
13070.0 0.0014034
13090.0 0.0013725
13110.0 0.0013411
13130.0 0.0013112
13150.0 0.0012822
13170.0 0.0012532
13190.0 0.0012274
13210.0 0.0012049
13230.0 0.0011846
13250.0 0.0011674
13270.0 0.0011544
13290.0 0.0011444
13310.0 0.0011375
13330.0 0.0011339
13350.0 0.001133
13370.0 0.001134
13390.0 0.0011364
13410.0 0.0011396
13430.0 0.0011428
13450.0 0.0011454
13470.0 0.0011468
13490.0 0.0011468
13510.0 0.0011447
13530.0 0.0011406
13550.0 0.0011347
13570.0 0.001127
13590.0 0.0011174
13610.0 0.0011069
13630.0 0.0010961
13650.0 0.0010844
13670.0 0.0010727
13690.0 0.0010619
13710.0 0.0010513
13730.0 0.0010411
13750.0 0.0010322
13770.0 0.0010241
13790.0 0.0010163
13810.0 0.0010091
13830.0 0.0010025
13850.0 0.00099575
13870.0 0.00098876
13890.0 0.00098172
13910.0 0.00097437
13930.0 0.00096626
13950.0 0.00095773
13970.0 0.00094924
13990.0 0.00094026
14010.0 0.00093107
14030.0 0.00092227
14050.0 0.00091382
14070.0 0.00090547
14090.0 0.00089803
14110.0 0.00089154
14130.0 0.00088579
14150.0 0.00088095
14170.0 0.00087722
14190.0 0.0008744
14210.0 0.00087249
14230.0 0.00087153
14250.0 0.00087142
14270.0 0.00087227
14290.0 0.00087414
14310.0 0.0008767
14330.0 0.00088011
14350.0 0.0008845
14370.0 0.00088952
14390.0 0.00089487
14410.0 0.00090102
14430.0 0.00090758
14450.0 0.00091403
14470.0 0.00092059
14490.0 0.00092756
14510.0 0.00093411
14530.0 0.00094032
14550.0 0.00094681
14570.0 0.00095345
14590.0 0.00095996
14610.0 0.00096708
14630.0 0.0009753
14650.0 0.00098412
14670.0 0.00099386
14690.0 0.0010054
14710.0 0.0010187
14730.0 0.0010327
14750.0 0.0010486
14770.0 0.0010666
14790.0 0.0010855
14810.0 0.0011049
14830.0 0.0011269
14850.0 0.001149
14870.0 0.0011703
14890.0 0.0011915
14910.0 0.0012124
14930.0 0.0012307
14950.0 0.0012462
14970.0 0.0012595
14990.0 0.0012691
15010.0 0.0012749
15030.0 0.0012775
15050.0 0.0012772
15070.0 0.0012744
15090.0 0.0012701
15110.0 0.0012646
15130.0 0.0012584
15150.0 0.0012521
15170.0 0.0012454
15190.0 0.0012386
15210.0 0.0012319
15230.0 0.0012253
15250.0 0.0012185
15270.0 0.0012117
15290.0 0.0012051
15310.0 0.0011985
15330.0 0.0011918
15350.0 0.0011852
15370.0 0.0011786
15390.0 0.0011719
15410.0 0.0011653
15430.0 0.0011588
15450.0 0.0011523
15470.0 0.0011457
15490.0 0.0011393
15510.0 0.0011329
15530.0 0.0011264
15550.0 0.00112
15570.0 0.0011137
15590.0 0.0011074
15610.0 0.001101
15630.0 0.0010947
15650.0 0.0010885
15670.0 0.0010822
15690.0 0.0010761
15710.0 0.00107
15730.0 0.0010638
15750.0 0.0010577
15770.0 0.0010517
15790.0 0.0010457
15810.0 0.0010396
15830.0 0.0010337
15850.0 0.0010278
15870.0 0.0010219
15890.0 0.001016
15910.0 0.0010103
15930.0 0.0010045
15950.0 0.00099867
15970.0 0.00099298
15990.0 0.00098735
16010.0 0.00098168
16030.0 0.00097601
16050.0 0.00097052
16070.0 0.00096501
16090.0 0.00095947
16110.0 0.00095404
16130.0 0.00094869
16150.0 0.00094322
16170.0 0.00093783
16190.0 0.00093258
16210.0 0.0009273
16230.0 0.000922
16250.0 0.00091682
16270.0 0.00091172
16290.0 0.00090653
16310.0 0.00090142
16330.0 0.00089641
16350.0 0.00089138
16370.0 0.00088627
16390.0 0.00088136
16410.0 0.00087648
16430.0 0.00087154
16450.0 0.00086667
16470.0 0.00086193
16490.0 0.00085711
16510.0 0.0008523
16530.0 0.0008476
16550.0 0.00084294
16570.0 0.00083822
16590.0 0.00083355
16610.0 0.00082903
16630.0 0.00082446
16650.0 0.00081989
16670.0 0.00081543
16690.0 0.000811
16710.0 0.00080647
16730.0 0.00080205
16750.0 0.00079772
16770.0 0.00079335
16790.0 0.00078896
16810.0 0.00078472
16830.0 0.00078049
16850.0 0.0007762
16870.0 0.00077199
16890.0 0.00076788
16910.0 0.00076368
16930.0 0.00075947
16950.0 0.00075543
16970.0 0.00075137
16990.0 0.00074727
17010.0 0.00074326
17030.0 0.00073933
17050.0 0.00073532
17070.0 0.00073134
17090.0 0.00072746
17110.0 0.00072358
17130.0 0.00071961
17150.0 0.00071577
17170.0 0.000712
17190.0 0.00070817
17210.0 0.00070436
17230.0 0.00070067
17250.0 0.00069694
17270.0 0.00069315
17290.0 0.00068948
17310.0 0.00068585
17330.0 0.00068216
17350.0 0.00067847
17370.0 0.00067495
17390.0 0.00067137
17410.0 0.00066776
17430.0 0.00066423
17450.0 0.00066077
17470.0 0.00065718
17490.0 0.00065366
17510.0 0.00065025
17530.0 0.0006468
17550.0 0.00064331
17570.0 0.00063993
17590.0 0.0006366
17610.0 0.00063317
17630.0 0.0006298
17650.0 0.00062651
17670.0 0.00062319
17690.0 0.00061978
17710.0 0.00061654
17730.0 0.00061331
17750.0 0.00061001
17770.0 0.00060677
17790.0 0.00060363
17810.0 0.00060039
17830.0 0.00059715
17850.0 0.00059401
17870.0 0.00059088
17890.0 0.00058768
17910.0 0.00058452
17930.0 0.00058149
17950.0 0.00057838
17970.0 0.00057527
17990.0 0.00057225
18010.0 0.00056924
18030.0 0.00056611
18050.0 0.00056309
18070.0 0.00056013
18090.0 0.00055712
18110.0 0.00055408
18130.0 0.00055118
18150.0 0.00054826
18170.0 0.00054527
18190.0 0.00054235
18210.0 0.0005395
18230.0 0.00053656
18250.0 0.00053361
18270.0 0.0005308
18290.0 0.00052796
18310.0 0.00052507
18330.0 0.00052225
18350.0 0.0005195
18370.0 0.00051665
18390.0 0.00051383
18410.0 0.00051109
18430.0 0.00050834
18450.0 0.0005055
18470.0 0.00050277
18490.0 0.0005001
18510.0 0.00049735
18530.0 0.00049462
18550.0 0.000492
18570.0 0.00048931
18590.0 0.00048657
18610.0 0.00048393
18630.0 0.00048132
18650.0 0.00047864
18670.0 0.00047598
18690.0 0.00047344
18710.0 0.00047084
18730.0 0.00046821
18750.0 0.00046566
18770.0 0.00046315
18790.0 0.0004605
18810.0 0.00045793
18830.0 0.00045545
18850.0 0.00045293
18870.0 0.00045036
18890.0 0.0004479
18910.0 0.00044545
18930.0 0.00044292
18950.0 0.00044044
18970.0 0.00043803
18990.0 0.00043557
19010.0 0.00043303
19030.0 0.00043066
19050.0 0.00042827
19070.0 0.00042582
19090.0 0.00042342
19110.0 0.00042111
19130.0 0.00041869
19150.0 0.00041627
19170.0 0.00041395
19190.0 0.00041162
19210.0 0.00040922
19230.0 0.00040687
19250.0 0.00040462
19270.0 0.00040229
19290.0 0.00039996
19310.0 0.00039771
19330.0 0.00039545
19350.0 0.00039309
19370.0 0.00039083
19390.0 0.00038862
19410.0 0.00038635
19430.0 0.00038406
19450.0 0.00038189
19470.0 0.00037969
19490.0 0.00037743
19510.0 0.00037523
19530.0 0.00037309
19550.0 0.00037085
19570.0 0.00036861
19590.0 0.0003665
19610.0 0.00036435
19630.0 0.00036215
19650.0 0.00036002
19670.0 0.00035794
19690.0 0.00035576
19710.0 0.00035361
19730.0 0.00035154
19750.0 0.00034944
19770.0 0.00034726
19790.0 0.00034518
19810.0 0.00034315
19830.0 0.00034103
19850.0 0.00033891
19870.0 0.00033684
19890.0 0.00033462
19910.0 0.00033219
19930.0 0.00032961
19950.0 0.0003267
19970.0 0.00032315
19990.0 0.00031896
20010.0 0.00031431
20030.0 0.00030882
20050.0 0.0003026
20070.0 0.00029611
20090.0 0.00028941
20110.0 0.00028217
20130.0 0.00027522
20150.0 0.00026869
20170.0 0.00026226
20190.0 0.00025609
20210.0 0.00025058
20230.0 0.00024547
20250.0 0.00024062
20270.0 0.00023638
20290.0 0.00023272
20310.0 0.00022947
20330.0 0.00022667
20350.0 0.0002246
20370.0 0.00022301
20390.0 0.00022194
20410.0 0.00022146
20430.0 0.00022153
20450.0 0.00022217
20470.0 0.0002234
20490.0 0.00022514
20510.0 0.00022741
20530.0 0.0002303
20550.0 0.00023361
20570.0 0.00023722
20590.0 0.00024134
20610.0 0.00024579
20630.0 0.0002503
20650.0 0.00025501
20670.0 0.00026001
20690.0 0.00026477
20710.0 0.00026934
20730.0 0.00027386
20750.0 0.00027815
20770.0 0.00028194
20790.0 0.00028549
20810.0 0.00028879
20830.0 0.00029164
20850.0 0.00029413
20870.0 0.00029643
20890.0 0.00029846
20910.0 0.00030018
20930.0 0.00030176
20950.0 0.00030322
20970.0 0.00030452
20990.0 0.00030568
21010.0 0.00030678
21030.0 0.00030773
21050.0 0.0003085
21070.0 0.00030912
21090.0 0.00030953
21110.0 0.00030971
21130.0 0.00030965
21150.0 0.00030935
21170.0 0.0003088
21190.0 0.00030805
21210.0 0.00030705
21230.0 0.00030584
21250.0 0.00030451
21270.0 0.00030307
21290.0 0.0003015
21310.0 0.00029988
21330.0 0.00029832
21350.0 0.00029673
21370.0 0.00029516
21390.0 0.00029372
21410.0 0.00029239
21430.0 0.00029111
21450.0 0.00029002
21470.0 0.00028911
21490.0 0.00028834
21510.0 0.00028773
21530.0 0.00028732
21550.0 0.00028709
21570.0 0.00028703
21590.0 0.00028717
21610.0 0.00028749
21630.0 0.00028802
21650.0 0.00028877
21670.0 0.00028968
21690.0 0.0002908
21710.0 0.00029216
21730.0 0.00029372
21750.0 0.00029544
21770.0 0.00029749
21790.0 0.00029976
21810.0 0.00030217
21830.0 0.00030481
21850.0 0.00030777
21870.0 0.00031085
21890.0 0.00031402
21910.0 0.00031749
21930.0 0.00032112
21950.0 0.00032473
21970.0 0.0003285
21990.0 0.00033251
22010.0 0.00033636
22030.0 0.00034014
22050.0 0.00034399
22070.0 0.00034774
22090.0 0.00035117
22110.0 0.0003545
22130.0 0.00035765
22150.0 0.00036042
22170.0 0.00036281
22190.0 0.00036492
22210.0 0.00036656
22230.0 0.00036766
22250.0 0.00036829
22270.0 0.00036839
22290.0 0.00036794
22310.0 0.00036695
22330.0 0.00036532
22350.0 0.00036312
22370.0 0.00036044
22390.0 0.00035716
22410.0 0.00035321
22430.0 0.00034896
22450.0 0.00034432
22470.0 0.00033909
22490.0 0.00033356
22510.0 0.00032793
22530.0 0.00032183
22550.0 0.00031541
22570.0 0.00030914
22590.0 0.0003028
22610.0 0.00029622
22630.0 0.00028976
22650.0 0.00028365
22670.0 0.00027741
22690.0 0.00027127
22710.0 0.00026553
22730.0 0.00026001
22750.0 0.00025442
22770.0 0.00024932
22790.0 0.00024464
22810.0 0.0002401
22830.0 0.00023584
22850.0 0.00023206
22870.0 0.00022856
22890.0 0.00022528
22910.0 0.00022244
22930.0 0.00022001
22950.0 0.00021786
22970.0 0.00021607
22990.0 0.00021478
23010.0 0.00021383
23030.0 0.00021325
23050.0 0.00021308
23070.0 0.00021327
23090.0 0.00021385
23110.0 0.00021479
23130.0 0.00021603
23150.0 0.00021756
23170.0 0.00021942
23190.0 0.00022143
23210.0 0.00022356
23230.0 0.0002259
23250.0 0.00022832
23270.0 0.00023068
