#lamb flux
1010.0 0.00059416
1030.0 0.00076966
1050.0 0.00098831
1070.0 0.0012563
1090.0 0.0015869
1110.0 0.0019646
1130.0 0.002388
1150.0 0.0028743
1170.0 0.00342
1190.0 0.0039918
1210.0 0.0045922
1230.0 0.0052349
1250.0 0.0058876
1270.0 0.0065318
1290.0 0.0071894
1310.0 0.0078201
1330.0 0.008387
1350.0 0.0088991
1370.0 0.0093531
1390.0 0.0097109
1410.0 0.0099646
1430.0 0.010146
1450.0 0.010235
1470.0 0.010224
1490.0 0.010142
1510.0 0.0099835
1530.0 0.0097352
1550.0 0.0094427
1570.0 0.0091443
1590.0 0.0088303
1610.0 0.0085005
1630.0 0.0081864
1650.0 0.0078928
1670.0 0.0076118
1690.0 0.007354
1710.0 0.0071326
1730.0 0.0069417
1750.0 0.0067701
1770.0 0.006635
1790.0 0.0065335
1810.0 0.0064563
1830.0 0.0064051
1850.0 0.0063899
1870.0 0.0063965
1890.0 0.006423
1910.0 0.0064757
1930.0 0.0065541
1950.0 0.0066476
1970.0 0.0067601
1990.0 0.0068973
2010.0 0.0070513
2030.0 0.0072189
2050.0 0.0074081
2070.0 0.0076178
2090.0 0.0078358
2110.0 0.0080689
2130.0 0.0083209
2150.0 0.0085842
2170.0 0.0088543
2190.0 0.0091415
2210.0 0.0094409
2230.0 0.0097441
2250.0 0.010055
2270.0 0.010381
2290.0 0.010708
2310.0 0.011034
2330.0 0.011367
2350.0 0.011705
2370.0 0.012035
2390.0 0.012366
2410.0 0.012702
2430.0 0.013029
2450.0 0.01335
2470.0 0.013679
2490.0 0.014025
2510.0 0.014388
2530.0 0.014811
2550.0 0.015347
2570.0 0.016035
2590.0 0.016927
2610.0 0.018197
2630.0 0.019898
2650.0 0.022006
2670.0 0.024647
2690.0 0.027896
2710.0 0.031497
2730.0 0.035306
2750.0 0.039438
2770.0 0.043502
2790.0 0.04718
2810.0 0.050505
2830.0 0.053468
2850.0 0.055706
2870.0 0.057452
2890.0 0.058881
2910.0 0.060004
2930.0 0.060855
2950.0 0.061626
2970.0 0.062335
2990.0 0.062929
3010.0 0.063463
3030.0 0.064009
3050.0 0.064521
3070.0 0.064926
3090.0 0.065342
3110.0 0.06578
3130.0 0.06625
3150.0 0.066255
3170.0 0.066901
3190.0 0.068163
3210.0 0.070353
3230.0 0.07409
3250.0 0.080519
3270.0 0.088357
3290.0 0.097933
3310.0 0.11178
3330.0 0.11508
3350.0 0.11571
3370.0 0.11626
3390.0 0.11676
3410.0 0.11692
3430.0 0.1168
3450.0 0.11654
3470.0 0.11621
3490.0 0.11541
3510.0 0.11264
3530.0 0.10464
3550.0 0.097911
3570.0 0.10273
3590.0 0.11477
3610.0 0.12572
3630.0 0.13812
3650.0 0.13418
3670.0 0.11796
3690.0 0.10397
3710.0 0.099425
3730.0 0.10209
3750.0 0.10397
3770.0 0.10717
3790.0 0.11085
3810.0 0.11296
3830.0 0.10492
3850.0 0.095367
3870.0 0.090747
3890.0 0.093954
3910.0 0.095668
3930.0 0.096107
3950.0 0.10149
3970.0 0.10777
3990.0 0.10968
4010.0 0.11021
4030.0 0.10662
4050.0 0.1044
4070.0 0.10308
4090.0 0.10376
4110.0 0.10454
4130.0 0.10195
4150.0 0.098329
4170.0 0.097299
4190.0 0.095392
4210.0 0.089009
4230.0 0.08229
4250.0 0.074861
4270.0 0.068783
4290.0 0.066401
4310.0 0.065802
4330.0 0.067995
4350.0 0.073611
4370.0 0.076953
4390.0 0.084222
4410.0 0.090208
4430.0 0.091757
4450.0 0.085309
4470.0 0.078694
4490.0 0.076724
4510.0 0.07562
4530.0 0.075871
4550.0 0.076059
4570.0 0.07745
4590.0 0.080425
4610.0 0.083161
4630.0 0.085464
4650.0 0.086779
4670.0 0.086205
4690.0 0.081582
4710.0 0.077033
4730.0 0.073624
4750.0 0.071844
4770.0 0.070667
4790.0 0.070997
4810.0 0.069689
4830.0 0.066236
4850.0 0.070923
4870.0 0.067908
4890.0 0.06892
4910.0 0.069456
4930.0 0.065638
4950.0 0.057118
4970.0 0.053497
4990.0 0.050231
5010.0 0.047636
5030.0 0.048019
5050.0 0.050792
5070.0 0.051748
5090.0 0.054206
5110.0 0.054458
5130.0 0.053859
5150.0 0.054489
5170.0 0.052715
5190.0 0.05256
5210.0 0.053123
5230.0 0.051047
5250.0 0.051656
5270.0 0.053386
5290.0 0.052511
5310.0 0.050046
5330.0 0.048528
5350.0 0.045995
5370.0 0.045076
5390.0 0.04453
5410.0 0.043093
5430.0 0.043613
5450.0 0.042452
5470.0 0.042682
5490.0 0.046063
5510.0 0.046772
5530.0 0.047019
5550.0 0.046917
5570.0 0.047418
5590.0 0.047184
5610.0 0.046745
5630.0 0.046509
5650.0 0.04599
5670.0 0.04485
5690.0 0.043935
5710.0 0.043047
5730.0 0.043923
5750.0 0.042268
5770.0 0.040035
5790.0 0.038139
5810.0 0.034608
5830.0 0.036703
5850.0 0.039195
5870.0 0.039585
5890.0 0.040004
5910.0 0.041434
5930.0 0.041371
5950.0 0.041465
5970.0 0.041397
5990.0 0.041676
6010.0 0.040669
6030.0 0.039987
6050.0 0.039765
6070.0 0.039318
6090.0 0.039628
6110.0 0.039129
6130.0 0.038005
6150.0 0.037109
6170.0 0.036294
6190.0 0.034064
6210.0 0.033439
6230.0 0.033747
6250.0 0.033453
6270.0 0.033147
6290.0 0.033768
6310.0 0.034576
6330.0 0.03435
6350.0 0.033536
6370.0 0.033509
6390.0 0.032621
6410.0 0.032325
6430.0 0.031488
6450.0 0.031324
6470.0 0.03117
6490.0 0.031089
6510.0 0.030238
6530.0 0.029862
6550.0 0.029419
6570.0 0.028831
6590.0 0.029312
6610.0 0.029333
6630.0 0.028598
6650.0 0.027623
6670.0 0.027258
6690.0 0.026851
6710.0 0.026155
6730.0 0.025834
6750.0 0.026043
6770.0 0.027084
6790.0 0.028374
6810.0 0.027589
6830.0 0.02532
6850.0 0.023952
6870.0 0.023558
6890.0 0.023441
6910.0 0.023348
6930.0 0.023177
6950.0 0.023222
6970.0 0.022494
6990.0 0.02216
7010.0 0.022329
7030.0 0.022498
7050.0 0.022029
7070.0 0.021037
7090.0 0.020464
7110.0 0.02055
7130.0 0.02066
7150.0 0.020669
7170.0 0.020546
7190.0 0.020245
7210.0 0.020799
7230.0 0.021305
7250.0 0.02126
7270.0 0.021322
7290.0 0.021603
7310.0 0.021311
7330.0 0.020778
7350.0 0.020019
7370.0 0.019914
7390.0 0.020097
7410.0 0.019216
7430.0 0.019291
7450.0 0.019154
7470.0 0.019623
7490.0 0.019443
7510.0 0.018707
7530.0 0.018927
7550.0 0.01801
7570.0 0.017424
7590.0 0.017107
7610.0 0.017352
7630.0 0.017694
7650.0 0.018172
7670.0 0.017257
7690.0 0.01705
7710.0 0.0178
7730.0 0.01844
7750.0 0.018532
7770.0 0.018753
7790.0 0.018502
7810.0 0.018832
7830.0 0.019756
7850.0 0.019359
7870.0 0.020074
7890.0 0.019667
7910.0 0.019366
7930.0 0.018824
7950.0 0.018944
7970.0 0.019173
7990.0 0.018237
8010.0 0.017674
8030.0 0.017482
8050.0 0.017139
8070.0 0.016784
8090.0 0.015433
8110.0 0.015483
8130.0 0.016555
8150.0 0.017182
8170.0 0.017332
8190.0 0.01784
8210.0 0.017495
8230.0 0.017165
8250.0 0.017129
8270.0 0.016805
8290.0 0.016461
8310.0 0.015667
8330.0 0.015676
8350.0 0.0159
8370.0 0.016002
8390.0 0.015955
8410.0 0.015732
8430.0 0.015503
8450.0 0.015483
8470.0 0.016058
8490.0 0.016236
8510.0 0.015608
8530.0 0.015049
8550.0 0.014996
8570.0 0.014611
8590.0 0.01434
8610.0 0.014607
8630.0 0.0146
8650.0 0.014471
8670.0 0.014372
8690.0 0.014207
8710.0 0.013577
8730.0 0.013593
8750.0 0.013269
8770.0 0.013312
8790.0 0.01315
8810.0 0.01281
8830.0 0.012858
8850.0 0.012886
8870.0 0.01228
8890.0 0.011836
8910.0 0.011421
8930.0 0.010862
8950.0 0.010598
8970.0 0.01015
8990.0 0.0099935
9010.0 0.0096611
9030.0 0.0095551
9050.0 0.0094956
9070.0 0.0094382
9090.0 0.0093801
9110.0 0.0093206
9130.0 0.0092613
9150.0 0.0092029
9170.0 0.009144
9190.0 0.0090846
9210.0 0.0090247
9230.0 0.0089644
9250.0 0.0089041
9270.0 0.0088434
9290.0 0.0087826
9310.0 0.0087226
9330.0 0.0086639
9350.0 0.0086051
9370.0 0.0085462
9390.0 0.0084873
9410.0 0.0084284
9430.0 0.0083695
9450.0 0.0083106
9470.0 0.0082573
9490.0 0.0082012
9510.0 0.0081396
9530.0 0.0080789
9550.0 0.0080195
9570.0 0.0079609
9590.0 0.0079025
9610.0 0.0078457
9630.0 0.0077896
9650.0 0.0077336
9670.0 0.0076776
9690.0 0.0076223
9710.0 0.0075673
9730.0 0.0075124
9750.0 0.0074578
9770.0 0.0074042
9790.0 0.0073504
9810.0 0.007297
9830.0 0.007244
9850.0 0.0071866
9870.0 0.0071291
9890.0 0.0070819
9910.0 0.0070338
9930.0 0.0069761
9950.0 0.0069258
9970.0 0.00688
9990.0 0.0068331
10010.0 0.0067865
10030.0 0.0067393
10050.0 0.0066916
10070.0 0.0066447
10090.0 0.0065984
10110.0 0.0065518
10130.0 0.0065058
10150.0 0.006461
10170.0 0.0064164
10190.0 0.0063719
10210.0 0.0063286
10230.0 0.0062859
10250.0 0.0062433
10270.0 0.0062013
10290.0 0.0061604
10310.0 0.0061195
10330.0 0.0060788
10350.0 0.0060393
10370.0 0.0060003
10390.0 0.0059612
10410.0 0.0059201
10430.0 0.0058792
10450.0 0.0058454
10470.0 0.0058101
10490.0 0.0057754
10510.0 0.0057411
10530.0 0.0057058
10550.0 0.0056714
10570.0 0.0056382
10590.0 0.0056049
10610.0 0.0055717
10630.0 0.0055399
10650.0 0.0055085
10670.0 0.0054767
10690.0 0.0054458
10710.0 0.005416
10730.0 0.005386
10750.0 0.0053559
10770.0 0.0053276
10790.0 0.0052995
10810.0 0.0052712
10830.0 0.0052438
10850.0 0.0052174
10870.0 0.0051903
10890.0 0.0051637
10910.0 0.0051383
10930.0 0.005113
10950.0 0.0050873
10970.0 0.0050622
10990.0 0.0050379
11010.0 0.0055435
11030.0 0.0055139
11050.0 0.0054828
11070.0 0.0054494
11090.0 0.0054126
11110.0 0.0053761
11130.0 0.0053392
11150.0 0.0053005
11170.0 0.0052612
11190.0 0.0052232
11210.0 0.0051841
11230.0 0.0051442
11250.0 0.0051057
11270.0 0.0050683
11290.0 0.0050303
11310.0 0.0049935
11330.0 0.00496
11350.0 0.0049274
11370.0 0.0048958
11390.0 0.0048671
11410.0 0.0048404
11430.0 0.0048141
11450.0 0.0047897
11470.0 0.0047673
11490.0 0.0047455
11510.0 0.0047236
11530.0 0.0047033
11550.0 0.0046832
11570.0 0.0046623
11590.0 0.0046414
11610.0 0.0046209
11630.0 0.0045991
11650.0 0.0045759
11670.0 0.0045534
11690.0 0.0045302
11710.0 0.0045055
11730.0 0.0044806
11750.0 0.0044563
11770.0 0.0044305
11790.0 0.0044041
11810.0 0.0043786
11830.0 0.0043532
11850.0 0.0043264
11870.0 0.004301
11890.0 0.0042773
11910.0 0.0042534
11930.0 0.0042303
11950.0 0.0042094
11970.0 0.0041897
11990.0 0.0041704
12010.0 0.0041534
12030.0 0.0041385
12050.0 0.0041247
12070.0 0.0041124
12090.0 0.0041027
12110.0 0.0040944
12130.0 0.0040872
12150.0 0.0040817
12170.0 0.0040776
12190.0 0.004074
12210.0 0.0040711
12230.0 0.0040689
12250.0 0.0040665
12270.0 0.0040636
12290.0 0.0040602
12310.0 0.0040561
12330.0 0.0040503
12350.0 0.0040429
12370.0 0.0040341
12390.0 0.0040233
12410.0 0.0040094
12430.0 0.0039944
12450.0 0.0039775
12470.0 0.0039577
12490.0 0.003936
12510.0 0.0039135
12530.0 0.0038885
12550.0 0.0038612
12570.0 0.0038334
12590.0 0.0038047
12610.0 0.0037736
12630.0 0.0037417
12650.0 0.0037111
12670.0 0.0036791
12690.0 0.0036462
12710.0 0.0036146
12730.0 0.0035836
12750.0 0.0035512
12770.0 0.0035204
12790.0 0.0034913
12810.0 0.0034626
12830.0 0.0034342
12850.0 0.0034086
12870.0 0.0033844
12890.0 0.0033608
12910.0 0.0033393
12930.0 0.0033201
12950.0 0.003302
12970.0 0.0032856
12990.0 0.0032721
13010.0 0.0032606
13030.0 0.0032507
13050.0 0.003243
13070.0 0.0032374
13090.0 0.0032332
13110.0 0.0032304
13130.0 0.0032288
13150.0 0.0032279
13170.0 0.0032273
13190.0 0.0032267
13210.0 0.0032257
13230.0 0.0032238
13250.0 0.0032207
13270.0 0.0032164
13290.0 0.0032106
13310.0 0.0032027
13330.0 0.0031932
13350.0 0.003182
13370.0 0.0031687
13390.0 0.0031531
13410.0 0.0031366
13430.0 0.0031182
13450.0 0.0030974
13470.0 0.0030756
13490.0 0.0030528
13510.0 0.0030273
13530.0 0.0030007
13550.0 0.002974
13570.0 0.0029459
13590.0 0.0029162
13610.0 0.0028867
13630.0 0.0028573
13650.0 0.0028262
13670.0 0.0027949
13690.0 0.0027643
13710.0 0.0027331
13730.0 0.0027004
13750.0 0.0026693
13770.0 0.0026386
13790.0 0.0026072
13810.0 0.0025762
13830.0 0.0025468
13850.0 0.0025169
13870.0 0.0024871
13890.0 0.0024588
13910.0 0.0024313
13930.0 0.0024036
13950.0 0.0023768
13970.0 0.002352
13990.0 0.0023272
14010.0 0.002303
14030.0 0.0022803
14050.0 0.0022586
14070.0 0.0022367
14090.0 0.0022162
14110.0 0.0021971
14130.0 0.0021784
14150.0 0.0021601
14170.0 0.0021433
14190.0 0.0021272
14210.0 0.0021112
14230.0 0.0020959
14250.0 0.0020815
14270.0 0.002067
14290.0 0.0020527
14310.0 0.0020392
14330.0 0.002026
14350.0 0.0020127
14370.0 0.0019999
14390.0 0.0019876
14410.0 0.0019752
14430.0 0.0019629
14450.0 0.0019512
14470.0 0.0019396
14490.0 0.0019278
14510.0 0.0019165
14530.0 0.0019055
14550.0 0.0018943
14570.0 0.0018832
14590.0 0.0018723
14610.0 0.0018613
14630.0 0.0018499
14650.0 0.0018388
14670.0 0.0018277
14690.0 0.0018163
14710.0 0.0018047
14730.0 0.0017935
14750.0 0.001782
14770.0 0.0017701
14790.0 0.0017583
14810.0 0.0017466
14830.0 0.0017342
14850.0 0.0017217
14870.0 0.0017095
14890.0 0.001697
14910.0 0.0016843
14930.0 0.0016721
14950.0 0.0016605
14970.0 0.0016491
14990.0 0.0016385
15010.0 0.001629
15030.0 0.0016201
15050.0 0.0016117
15070.0 0.0016044
15090.0 0.0015975
15110.0 0.0015908
15130.0 0.0015843
15150.0 0.0015781
15170.0 0.0015718
15190.0 0.0015654
15210.0 0.0015593
15230.0 0.0015532
15250.0 0.0015469
15270.0 0.0015407
15290.0 0.0015347
15310.0 0.0015286
15330.0 0.0015224
15350.0 0.0015164
15370.0 0.0015105
15390.0 0.0015043
15410.0 0.0014983
15430.0 0.0014923
15450.0 0.0014863
15470.0 0.0014803
15490.0 0.0014744
15510.0 0.0014685
15530.0 0.0014626
15550.0 0.0014567
15570.0 0.0014509
15590.0 0.001445
15610.0 0.001439
15630.0 0.0014333
15650.0 0.0014275
15670.0 0.0014217
15690.0 0.0014159
15710.0 0.0014103
15730.0 0.0014045
15750.0 0.0013987
15770.0 0.0013931
15790.0 0.0013874
15810.0 0.0013816
15830.0 0.001376
15850.0 0.0013705
15870.0 0.0013648
15890.0 0.0013592
15910.0 0.0013537
15930.0 0.0013482
15950.0 0.0013426
15970.0 0.0013371
15990.0 0.0013317
16010.0 0.0013261
16030.0 0.0013206
16050.0 0.0013153
16070.0 0.0013099
16090.0 0.0013044
16110.0 0.0012991
16130.0 0.0012938
16150.0 0.0012883
16170.0 0.001283
16190.0 0.0012778
16210.0 0.0012725
16230.0 0.0012671
16250.0 0.0012619
16270.0 0.0012568
16290.0 0.0012515
16310.0 0.0012463
16330.0 0.0012413
16350.0 0.0012361
16370.0 0.0012309
16390.0 0.0012258
16410.0 0.0012208
16430.0 0.0012157
16450.0 0.0012106
16470.0 0.0012058
16490.0 0.0012007
16510.0 0.0011957
16530.0 0.0011908
16550.0 0.0011859
16570.0 0.0011809
16590.0 0.001176
16610.0 0.0011712
16630.0 0.0011664
16650.0 0.0011615
16670.0 0.0011568
16690.0 0.0011521
16710.0 0.0011472
16730.0 0.0011424
16750.0 0.0011378
16770.0 0.0011331
16790.0 0.0011284
16810.0 0.0011238
16830.0 0.0011192
16850.0 0.0011146
16870.0 0.00111
16890.0 0.0011055
16910.0 0.001101
16930.0 0.0010964
16950.0 0.001092
16970.0 0.0010875
16990.0 0.001083
17010.0 0.0010786
17030.0 0.0010743
17050.0 0.0010699
17070.0 0.0010655
17090.0 0.0010613
17110.0 0.001057
17130.0 0.0010526
17150.0 0.0010484
17170.0 0.0010442
17190.0 0.00104
17210.0 0.0010357
17230.0 0.0010317
17250.0 0.0010275
17270.0 0.0010233
17290.0 0.0010193
17310.0 0.0010152
17330.0 0.0010111
17350.0 0.001007
17370.0 0.0010031
17390.0 0.00099917
17410.0 0.00099514
17430.0 0.00099124
17450.0 0.00098742
17470.0 0.0009834
17490.0 0.00097948
17510.0 0.00097571
17530.0 0.00097188
17550.0 0.00096799
17570.0 0.00096425
17590.0 0.00096056
17610.0 0.00095674
17630.0 0.000953
17650.0 0.00094937
17670.0 0.00094568
17690.0 0.00094186
17710.0 0.00093829
17730.0 0.00093472
17750.0 0.00093106
17770.0 0.00092746
17790.0 0.00092401
17810.0 0.00092042
17830.0 0.00091682
17850.0 0.00091336
17870.0 0.00090991
17890.0 0.00090635
17910.0 0.00090286
17930.0 0.00089953
17950.0 0.0008961
17970.0 0.00089265
17990.0 0.00088934
18010.0 0.00088603
18030.0 0.00088255
18050.0 0.00087922
18070.0 0.00087598
18090.0 0.00087266
18110.0 0.0008693
18130.0 0.00086612
18150.0 0.00086292
18170.0 0.00085962
18190.0 0.00085641
18210.0 0.0008533
18230.0 0.00085005
18250.0 0.00084678
18270.0 0.00084371
18290.0 0.00084059
18310.0 0.0008374
18330.0 0.00083431
18350.0 0.00083131
18370.0 0.00082816
18390.0 0.00082504
18410.0 0.00082205
18430.0 0.00081902
18450.0 0.00081586
18470.0 0.00081287
18490.0 0.00080994
18510.0 0.0008069
18530.0 0.00080389
18550.0 0.00080101
18570.0 0.00079805
18590.0 0.00079499
18610.0 0.00079208
18630.0 0.00078921
18650.0 0.00078623
18670.0 0.00078325
18690.0 0.00078046
18710.0 0.00077758
18730.0 0.00077463
18750.0 0.0007718
18770.0 0.00076902
18790.0 0.00076604
18810.0 0.00076316
18830.0 0.0007604
18850.0 0.00075756
18870.0 0.00075466
18890.0 0.00075191
18910.0 0.00074917
18930.0 0.00074629
18950.0 0.00074348
18970.0 0.00074077
18990.0 0.00073797
19010.0 0.00073505
19030.0 0.00073236
19050.0 0.00072964
19070.0 0.00072682
19090.0 0.00072405
19110.0 0.00072142
19130.0 0.00071861
19150.0 0.00071579
19170.0 0.00071311
19190.0 0.00071041
19210.0 0.00070758
19230.0 0.00070482
19250.0 0.0007022
19270.0 0.00069945
19290.0 0.00069668
19310.0 0.00069403
19330.0 0.00069136
19350.0 0.0006885
19370.0 0.00068579
19390.0 0.00068315
19410.0 0.0006804
19430.0 0.00067761
19450.0 0.00067499
19470.0 0.00067231
19490.0 0.00066952
19510.0 0.00066682
19530.0 0.00066419
19550.0 0.0006614
19570.0 0.00065859
19590.0 0.00065596
19610.0 0.00065326
19630.0 0.00065047
19650.0 0.00064777
19670.0 0.00064515
19690.0 0.00064234
19710.0 0.00063957
19730.0 0.0006369
19750.0 0.00063417
19770.0 0.0006313
19790.0 0.00062859
19810.0 0.00062593
19830.0 0.00062313
19850.0 0.00062036
19870.0 0.00061773
19890.0 0.00061501
19910.0 0.00061226
19930.0 0.00060976
19950.0 0.00060743
19970.0 0.00060522
19990.0 0.00060333
20010.0 0.00060189
20030.0 0.00060071
20050.0 0.00059986
20070.0 0.00059936
20090.0 0.00059912
20110.0 0.00059901
20130.0 0.00059906
20150.0 0.00059923
20170.0 0.00059942
20190.0 0.00059964
20210.0 0.00059988
20230.0 0.00060013
20250.0 0.00060033
20270.0 0.00060052
20290.0 0.0006007
20310.0 0.00060082
20330.0 0.00060086
20350.0 0.00060091
20370.0 0.0006009
20390.0 0.00060081
20410.0 0.00060068
20430.0 0.00060054
20450.0 0.00060031
20470.0 0.00060004
20490.0 0.00059979
20510.0 0.00059951
20530.0 0.00059918
20550.0 0.00059889
20570.0 0.00059865
20590.0 0.00059838
20610.0 0.00059814
20630.0 0.00059794
20650.0 0.00059776
20670.0 0.00059754
20690.0 0.00059736
20710.0 0.00059719
20730.0 0.00059696
20750.0 0.00059669
20770.0 0.0005964
20790.0 0.00059602
20810.0 0.00059551
20830.0 0.00059494
20850.0 0.00059427
20870.0 0.00059342
20890.0 0.00059243
20910.0 0.00059141
20930.0 0.00059022
20950.0 0.00058888
20970.0 0.0005875
20990.0 0.00058607
21010.0 0.00058445
21030.0 0.0005828
21050.0 0.00058119
21070.0 0.0005795
21090.0 0.00057772
21110.0 0.00057604
21130.0 0.00057438
21150.0 0.00057264
21170.0 0.00057093
21190.0 0.00056929
21210.0 0.00056756
21230.0 0.00056576
21250.0 0.00056404
21270.0 0.00056228
21290.0 0.00056039
21310.0 0.00055846
21330.0 0.00055657
21350.0 0.00055452
21370.0 0.00055235
21390.0 0.00055018
21410.0 0.00054793
21430.0 0.00054543
21450.0 0.00054292
21470.0 0.00054041
21490.0 0.00053773
21510.0 0.00053493
21530.0 0.00053217
21550.0 0.00052932
21570.0 0.00052629
21590.0 0.00052327
21610.0 0.00052028
21630.0 0.00051715
21650.0 0.00051389
21670.0 0.00051081
21690.0 0.00050765
21710.0 0.00050437
21730.0 0.00050114
21750.0 0.00049798
21770.0 0.00049461
21790.0 0.00049124
21810.0 0.00048796
21830.0 0.00048461
21850.0 0.00048113
21870.0 0.00047771
21890.0 0.00047436
21910.0 0.00047086
21930.0 0.00046734
21950.0 0.00046393
21970.0 0.00046046
21990.0 0.00045686
22010.0 0.00045342
22030.0 0.00045006
22050.0 0.00044665
22070.0 0.00044329
22090.0 0.00044012
22110.0 0.00043696
22130.0 0.00043382
22150.0 0.00043084
22170.0 0.00042799
22190.0 0.00042512
22210.0 0.00042236
22230.0 0.00041978
22250.0 0.00041723
22270.0 0.00041471
22290.0 0.00041231
22310.0 0.00040996
22330.0 0.00040758
22350.0 0.00040525
22370.0 0.00040297
22390.0 0.00040066
22410.0 0.0003983
22430.0 0.00039599
22450.0 0.00039366
22470.0 0.00039125
22490.0 0.00038882
22510.0 0.00038641
22530.0 0.0003839
22550.0 0.00038133
22570.0 0.00037879
22590.0 0.00037622
22610.0 0.00037358
22630.0 0.00037093
22650.0 0.00036833
22670.0 0.00036567
22690.0 0.00036299
22710.0 0.00036036
22730.0 0.00035774
22750.0 0.00035508
22770.0 0.00035248
22790.0 0.00034992
22810.0 0.00034736
22830.0 0.00034482
22850.0 0.00034233
22870.0 0.00033986
22890.0 0.00033737
22910.0 0.00033491
22930.0 0.00033247
22950.0 0.00033001
22970.0 0.00032753
22990.0 0.00032505
23010.0 0.00032254
23030.0 0.00032
23050.0 0.00031743
23070.0 0.00031483
23090.0 0.00031218
23110.0 0.0003095
23130.0 0.0003068
23150.0 0.00030407
23170.0 0.00030131
23190.0 0.00029854
23210.0 0.00029575
23230.0 0.00029296
23250.0 0.00029017
23270.0 0.00028736
23290.0 0.00028454
23310.0 0.00028173
23330.0 0.00027888
23350.0 0.000276
23370.0 0.00027309
23390.0 0.00027013
23410.0 0.00026708
23430.0 0.00026396
23450.0 0.00026076
23470.0 0.00025742
23490.0 0.00025396
23510.0 0.0002504
23530.0 0.00024668
23550.0 0.00024279
23570.0 0.00023876
23590.0 0.00023457
23610.0 0.00023021
23630.0 0.0002257
23650.0 0.00022103
23670.0 0.00021619
23690.0 0.0002112
23710.0 0.00020605
23730.0 0.00020073
23750.0 0.00019527
23770.0 0.00018965
23790.0 0.00018384
23810.0 0.00017786
23830.0 0.00017169
23850.0 0.00016528
23870.0 0.00015862
