#lamb flux
1010.0 5.9006e-05
1030.0 5.9251e-05
1050.0 5.9519e-05
1070.0 6.0915e-05
1090.0 6.4751e-05
1110.0 6.7732e-05
1130.0 6.9859e-05
1150.0 7.1564e-05
1170.0 7.2809e-05
1190.0 7.3174e-05
1210.0 7.3256e-05
1230.0 7.3232e-05
1250.0 7.2921e-05
1270.0 7.2363e-05
1290.0 7.2e-05
1310.0 7.1611e-05
1330.0 7.1104e-05
1350.0 7.0754e-05
1370.0 7.0672e-05
1390.0 7.071e-05
1410.0 7.093e-05
1430.0 7.1621e-05
1450.0 7.27e-05
1470.0 7.4142e-05
1490.0 7.6147e-05
1510.0 7.8918e-05
1530.0 8.2226e-05
1550.0 8.6278e-05
1570.0 9.1309e-05
1590.0 9.7342e-05
1610.0 0.00010437
1630.0 0.00011279
1650.0 0.00012273
1670.0 0.00013413
1690.0 0.00014723
1710.0 0.00016244
1730.0 0.00017983
1750.0 0.00019929
1770.0 0.00022141
1790.0 0.00024639
1810.0 0.00027408
1830.0 0.00030469
1850.0 0.00033886
1870.0 0.00037609
1890.0 0.00041625
1910.0 0.00045971
1930.0 0.00050643
1950.0 0.00055546
1970.0 0.00060676
1990.0 0.00066055
2010.0 0.00071574
2030.0 0.00077146
2050.0 0.00082801
2070.0 0.0008848
2090.0 0.00093984
2110.0 0.0009933
2130.0 0.0010451
2150.0 0.001094
2170.0 0.0011388
2190.0 0.0011806
2210.0 0.0012185
2230.0 0.0012515
2250.0 0.00128
2270.0 0.0013049
2290.0 0.0013248
2310.0 0.0013398
2330.0 0.0013513
2350.0 0.0013593
2370.0 0.0013632
2390.0 0.0013645
2410.0 0.0013644
2430.0 0.0013622
2450.0 0.0013586
2470.0 0.0013555
2490.0 0.0013536
2510.0 0.0013523
2530.0 0.0013556
2550.0 0.0013683
2570.0 0.0013941
2590.0 0.0014383
2610.0 0.0015162
2630.0 0.0016303
2650.0 0.0017744
2670.0 0.0019528
2690.0 0.0021637
2710.0 0.0023828
2730.0 0.002601
2750.0 0.0028301
2770.0 0.0030556
2790.0 0.0032714
2810.0 0.0034924
2830.0 0.0037311
2850.0 0.0039637
2870.0 0.0042029
2890.0 0.0044604
2910.0 0.0047276
2930.0 0.0049941
2950.0 0.0052804
2970.0 0.0055841
2990.0 0.005891
3010.0 0.0062078
3030.0 0.0065469
3050.0 0.0068968
3070.0 0.0072378
3090.0 0.0075856
3110.0 0.0079235
3130.0 0.0082259
3150.0 0.0084845
3170.0 0.0086907
3190.0 0.008835
3210.0 0.0089382
3230.0 0.0090243
3250.0 0.0091254
3270.0 0.0092793
3290.0 0.0095067
3310.0 0.0098263
3330.0 0.010229
3350.0 0.010689
3370.0 0.011197
3390.0 0.01172
3410.0 0.012252
3430.0 0.013328
3450.0 0.014124
3470.0 0.014827
3490.0 0.015054
3510.0 0.014857
3530.0 0.016834
3550.0 0.020026
3570.0 0.022017
3590.0 0.023528
3610.0 0.023726
3630.0 0.022505
3650.0 0.024188
3670.0 0.028933
3690.0 0.032511
3710.0 0.033946
3730.0 0.03475
3750.0 0.036558
3770.0 0.036641
3790.0 0.035119
3810.0 0.033054
3830.0 0.030831
3850.0 0.030745
3870.0 0.032623
3890.0 0.034465
3910.0 0.035891
3930.0 0.036322
3950.0 0.03876
3970.0 0.041408
3990.0 0.039892
4010.0 0.035634
4030.0 0.031647
4050.0 0.030464
4070.0 0.031715
4090.0 0.031971
4110.0 0.031073
4130.0 0.030681
4150.0 0.031495
4170.0 0.034766
4190.0 0.037648
4210.0 0.036469
4230.0 0.034041
4250.0 0.032733
4270.0 0.031989
4290.0 0.032557
4310.0 0.033532
4330.0 0.031934
4350.0 0.028091
4370.0 0.024867
4390.0 0.022655
4410.0 0.020913
4430.0 0.020921
4450.0 0.022757
4470.0 0.024607
4490.0 0.02678
4510.0 0.030295
4530.0 0.037062
4550.0 0.044733
4570.0 0.049338
4590.0 0.05276
4610.0 0.056731
4630.0 0.058652
4650.0 0.054635
4670.0 0.045836
4690.0 0.038959
4710.0 0.036597
4730.0 0.035377
4750.0 0.031701
4770.0 0.028765
4790.0 0.029873
4810.0 0.032464
4830.0 0.032324
4850.0 0.029798
4870.0 0.029188
4890.0 0.030451
4910.0 0.031857
4930.0 0.03182
4950.0 0.030939
4970.0 0.02947
4990.0 0.027087
5010.0 0.024878
5030.0 0.023624
5050.0 0.023043
5070.0 0.022652
5090.0 0.022289
5110.0 0.022257
5130.0 0.022599
5150.0 0.023869
5170.0 0.026358
5190.0 0.029381
5210.0 0.032546
5230.0 0.034468
5250.0 0.035461
5270.0 0.037266
5290.0 0.03902
5310.0 0.039428
5330.0 0.037942
5350.0 0.036219
5370.0 0.036207
5390.0 0.038144
5410.0 0.040014
5430.0 0.04065
5450.0 0.040398
5470.0 0.039205
5490.0 0.037743
5510.0 0.036995
5530.0 0.037138
5550.0 0.037675
5570.0 0.038027
5590.0 0.036883
5610.0 0.034763
5630.0 0.032684
5650.0 0.03105
5670.0 0.030045
5690.0 0.028816
5710.0 0.027874
5730.0 0.02827
5750.0 0.028196
5770.0 0.027593
5790.0 0.027824
5810.0 0.028452
5830.0 0.029039
5850.0 0.029241
5870.0 0.028622
5890.0 0.027384
5910.0 0.025972
5930.0 0.023973
5950.0 0.02254
5970.0 0.022496
5990.0 0.023192
6010.0 0.023444
6030.0 0.022616
6050.0 0.022276
6070.0 0.023135
6090.0 0.024282
6110.0 0.024708
6130.0 0.023864
6150.0 0.022473
6170.0 0.021558
6190.0 0.020654
6210.0 0.019686
6230.0 0.018951
6250.0 0.018725
6270.0 0.019209
6290.0 0.020079
6310.0 0.021196
6330.0 0.022423
6350.0 0.023442
6370.0 0.023898
6390.0 0.023945
6410.0 0.024196
6430.0 0.024493
6450.0 0.024575
6470.0 0.02489
6490.0 0.025272
6510.0 0.025376
6530.0 0.025105
6550.0 0.024394
6570.0 0.023498
6590.0 0.022813
6610.0 0.022306
6630.0 0.021862
6650.0 0.02111
6670.0 0.020218
6690.0 0.019551
6710.0 0.019137
6730.0 0.01901
6750.0 0.018777
6770.0 0.0184
6790.0 0.018114
6810.0 0.017886
6830.0 0.017839
6850.0 0.017853
6870.0 0.017715
6890.0 0.017604
6910.0 0.017235
6930.0 0.016832
6950.0 0.016739
6970.0 0.016457
6990.0 0.015944
7010.0 0.0157
7030.0 0.015503
7050.0 0.015154
7070.0 0.01474
7090.0 0.014446
7110.0 0.014598
7130.0 0.015166
7150.0 0.015815
7170.0 0.016233
7190.0 0.016111
7210.0 0.015799
7230.0 0.015594
7250.0 0.015388
7270.0 0.015254
7290.0 0.015058
7310.0 0.014961
7330.0 0.01522
7350.0 0.015518
7370.0 0.015677
7390.0 0.015523
7410.0 0.015144
7430.0 0.01496
7450.0 0.014792
7470.0 0.014072
7490.0 0.013547
7510.0 0.012979
7530.0 0.012563
7550.0 0.012509
7570.0 0.012657
7590.0 0.012583
7610.0 0.012458
7630.0 0.012405
7650.0 0.012355
7670.0 0.01259
7690.0 0.013048
7710.0 0.01359
7730.0 0.014003
7750.0 0.014406
7770.0 0.014606
7790.0 0.01457
7810.0 0.014348
7830.0 0.014501
7850.0 0.01448
7870.0 0.01401
7890.0 0.013506
7910.0 0.013077
7930.0 0.012641
7950.0 0.012337
7970.0 0.01229
7990.0 0.012442
8010.0 0.012306
8030.0 0.012163
8050.0 0.011954
8070.0 0.011725
8090.0 0.011486
8110.0 0.011499
8130.0 0.011588
8150.0 0.011567
8170.0 0.011482
8190.0 0.011243
8210.0 0.010673
8230.0 0.0099519
8250.0 0.0095072
8270.0 0.0092244
8290.0 0.0090465
8310.0 0.009072
8330.0 0.0092158
8350.0 0.0090164
8370.0 0.0088061
8390.0 0.008965
8410.0 0.0093731
8430.0 0.0099713
8450.0 0.010551
8470.0 0.010786
8490.0 0.010969
8510.0 0.011019
8530.0 0.011079
8550.0 0.011207
8570.0 0.011265
8590.0 0.011319
8610.0 0.01163
8630.0 0.011755
8650.0 0.011508
8670.0 0.011501
8690.0 0.011589
8710.0 0.011569
8730.0 0.01147
8750.0 0.011146
8770.0 0.011001
8790.0 0.010918
8810.0 0.010786
8830.0 0.010178
8850.0 0.0093652
8870.0 0.0087704
8890.0 0.0084335
8910.0 0.007936
8930.0 0.0073879
8950.0 0.0071092
8970.0 0.0070718
8990.0 0.0071086
9010.0 0.0070736
9030.0 0.0070237
9050.0 0.0069776
9070.0 0.0069349
9090.0 0.0068929
9110.0 0.0068511
9130.0 0.0068093
9150.0 0.0067678
9170.0 0.0067264
9190.0 0.006685
9210.0 0.0066435
9230.0 0.0066026
9250.0 0.006562
9270.0 0.0065214
9290.0 0.006481
9310.0 0.0064408
9330.0 0.0064007
9350.0 0.0063608
9370.0 0.006321
9390.0 0.0062815
9410.0 0.006242
9430.0 0.0062025
9450.0 0.0061619
9470.0 0.0061222
9490.0 0.0060853
9510.0 0.0060473
9530.0 0.0060097
9550.0 0.0059718
9570.0 0.005934
9590.0 0.0058965
9610.0 0.0058592
9630.0 0.0058219
9650.0 0.0057848
9670.0 0.0057482
9690.0 0.0057115
9710.0 0.0056751
9730.0 0.0056389
9750.0 0.0056029
9770.0 0.0055669
9790.0 0.0055312
9810.0 0.0054958
9830.0 0.0054598
9850.0 0.0054199
9870.0 0.005386
9890.0 0.0053529
9910.0 0.0053193
9930.0 0.0052848
9950.0 0.0052517
9970.0 0.0052176
9990.0 0.0051829
10010.0 0.0051442
10030.0 0.0051086
10050.0 0.0050776
10070.0 0.0050461
10090.0 0.0050145
10110.0 0.0049803
10130.0 0.0049392
10150.0 0.004908
10170.0 0.0048782
10190.0 0.0048464
10210.0 0.0048153
10230.0 0.0047842
10250.0 0.0047515
10270.0 0.0047189
10290.0 0.0046874
10310.0 0.0046548
10330.0 0.0046213
10350.0 0.0045893
10370.0 0.0045576
10390.0 0.0045246
10410.0 0.004492
10430.0 0.0044608
10450.0 0.0044285
10470.0 0.0043956
10490.0 0.0043639
10510.0 0.0043323
10530.0 0.0042989
10550.0 0.0042663
10570.0 0.004235
10590.0 0.0042026
10610.0 0.0041697
10630.0 0.0041381
10650.0 0.0041063
10670.0 0.004073
10690.0 0.0040405
10710.0 0.0040088
10730.0 0.003976
10750.0 0.0039421
10770.0 0.0039104
10790.0 0.0038782
10810.0 0.0038448
10830.0 0.003812
10850.0 0.0037804
10870.0 0.0037467
10890.0 0.0037131
10910.0 0.003681
10930.0 0.0036489
10950.0 0.003616
10970.0 0.0035845
10990.0 0.0035549
11010.0 0.0036255
11030.0 0.0035984
11050.0 0.0035725
11070.0 0.0035464
11090.0 0.0035187
11110.0 0.0034921
11130.0 0.0034656
11150.0 0.0034381
11170.0 0.0034106
11190.0 0.0033846
11210.0 0.0033585
11230.0 0.0033324
11250.0 0.003308
11270.0 0.0032849
11290.0 0.003262
11310.0 0.0032402
11330.0 0.0032206
11350.0 0.0032015
11370.0 0.0031829
11390.0 0.0031656
11410.0 0.003149
11430.0 0.0031318
11450.0 0.003115
11470.0 0.0030986
11490.0 0.0030814
11510.0 0.0030631
11530.0 0.0030446
11550.0 0.0030254
11570.0 0.0030044
11590.0 0.0029822
11610.0 0.0029596
11630.0 0.0029348
11650.0 0.0029082
11670.0 0.0028814
11690.0 0.0028537
11710.0 0.0028241
11730.0 0.002794
11750.0 0.0027646
11770.0 0.0027336
11790.0 0.0027021
11810.0 0.0026715
11830.0 0.0026411
11850.0 0.0026094
11870.0 0.0025789
11890.0 0.0025498
11910.0 0.0025204
11930.0 0.0024913
11950.0 0.002464
11970.0 0.0024373
11990.0 0.0024104
12010.0 0.0023851
12030.0 0.0023612
12050.0 0.0023378
12070.0 0.002315
12090.0 0.0022945
12110.0 0.0022749
12130.0 0.0022562
12150.0 0.0022391
12170.0 0.0022238
12190.0 0.0022093
12210.0 0.0021966
12230.0 0.0021859
12250.0 0.0021768
12270.0 0.0021693
12290.0 0.0021637
12310.0 0.0021597
12330.0 0.0021572
12350.0 0.0021562
12370.0 0.0021563
12390.0 0.0021573
12410.0 0.0021595
12430.0 0.0021618
12450.0 0.0021642
12470.0 0.0021668
12490.0 0.002169
12510.0 0.0021704
12530.0 0.002171
12550.0 0.0021705
12570.0 0.0021686
12590.0 0.0021652
12610.0 0.00216
12630.0 0.0021528
12650.0 0.002144
12670.0 0.0021332
12690.0 0.0021204
12710.0 0.0021061
12730.0 0.0020903
12750.0 0.0020724
12770.0 0.0020534
12790.0 0.002034
12810.0 0.0020133
12830.0 0.0019915
12850.0 0.0019702
12870.0 0.0019487
12890.0 0.0019265
12910.0 0.0019046
12930.0 0.0018834
12950.0 0.0018618
12970.0 0.00184
12990.0 0.0018193
13010.0 0.0017989
13030.0 0.0017783
13050.0 0.0017583
13070.0 0.0017393
13090.0 0.00172
13110.0 0.0017011
13130.0 0.0016833
13150.0 0.001666
13170.0 0.0016487
13190.0 0.0016326
13210.0 0.0016177
13230.0 0.0016031
13250.0 0.0015893
13270.0 0.0015766
13290.0 0.0015644
13310.0 0.0015526
13330.0 0.0015415
13350.0 0.001531
13370.0 0.0015205
13390.0 0.0015101
13410.0 0.0015003
13430.0 0.0014903
13450.0 0.00148
13470.0 0.0014698
13490.0 0.0014596
13510.0 0.0014488
13530.0 0.0014378
13550.0 0.001427
13570.0 0.0014158
13590.0 0.0014043
13610.0 0.0013929
13630.0 0.0013817
13650.0 0.00137
13670.0 0.0013583
13690.0 0.0013469
13710.0 0.0013354
13730.0 0.0013234
13750.0 0.001312
13770.0 0.0013007
13790.0 0.001289
13810.0 0.0012773
13830.0 0.0012661
13850.0 0.0012545
13870.0 0.0012426
13890.0 0.001231
13910.0 0.0012194
13930.0 0.0012073
13950.0 0.0011952
13970.0 0.0011836
13990.0 0.0011716
14010.0 0.0011594
14030.0 0.0011475
14050.0 0.0011356
14070.0 0.0011231
14090.0 0.0011109
14110.0 0.0010991
14130.0 0.0010871
14150.0 0.0010749
14170.0 0.0010636
14190.0 0.0010525
14210.0 0.0010414
14230.0 0.0010308
14250.0 0.001021
14270.0 0.0010114
14290.0 0.0010021
14310.0 0.00099375
14330.0 0.00098591
14350.0 0.00097835
14370.0 0.00097144
14390.0 0.00096519
14410.0 0.00095908
14430.0 0.00095331
14450.0 0.00094806
14470.0 0.00094306
14490.0 0.00093804
14510.0 0.00093341
14530.0 0.00092907
14550.0 0.00092471
14570.0 0.00092044
14590.0 0.00091646
14610.0 0.00091248
14630.0 0.00090843
14650.0 0.00090462
14670.0 0.00090103
14690.0 0.00089746
14710.0 0.00089407
14730.0 0.00089121
14750.0 0.00088863
14770.0 0.00088646
14790.0 0.00088494
14810.0 0.00088412
14830.0 0.00088401
14850.0 0.00088484
14870.0 0.00088656
14890.0 0.00088919
14910.0 0.00089272
14930.0 0.0008968
14950.0 0.00090117
14970.0 0.00090574
14990.0 0.00091
15010.0 0.00091365
15030.0 0.00091669
15050.0 0.00091905
15070.0 0.00092071
15090.0 0.00092191
15110.0 0.00092277
15130.0 0.00092342
15150.0 0.00092402
15170.0 0.00092454
15190.0 0.00092504
15210.0 0.00092559
15230.0 0.00092617
15250.0 0.00092674
15270.0 0.00092735
15290.0 0.00092804
15310.0 0.00092872
15330.0 0.00092942
15350.0 0.00093018
15370.0 0.00093097
15390.0 0.00093173
15410.0 0.00093255
15430.0 0.00093343
15450.0 0.00093431
15470.0 0.00093519
15490.0 0.00093615
15510.0 0.00093713
15530.0 0.00093809
15550.0 0.00093911
15570.0 0.00094017
15590.0 0.00094122
15610.0 0.00094227
15630.0 0.0009434
15650.0 0.00094455
15670.0 0.00094568
15690.0 0.00094686
15710.0 0.0009481
15730.0 0.00094931
15750.0 0.00095053
15770.0 0.00095182
15790.0 0.00095311
15810.0 0.00095438
15830.0 0.0009557
15850.0 0.00095707
15870.0 0.00095842
15890.0 0.00095979
15910.0 0.00096121
15930.0 0.00096263
15950.0 0.00096403
15970.0 0.00096548
15990.0 0.00096696
16010.0 0.00096842
16030.0 0.00096988
16050.0 0.00097142
16070.0 0.00097294
16090.0 0.00097445
16110.0 0.000976
16130.0 0.00097759
16150.0 0.00097911
16170.0 0.00098067
16190.0 0.00098227
16210.0 0.00098387
16230.0 0.00098544
16250.0 0.00098706
16270.0 0.00098871
16290.0 0.00099031
16310.0 0.00099192
16330.0 0.00099358
16350.0 0.00099522
16370.0 0.00099681
16390.0 0.00099848
16410.0 0.0010001
16430.0 0.0010018
16450.0 0.0010034
16470.0 0.0010051
16490.0 0.0010068
16510.0 0.0010084
16530.0 0.00101
16550.0 0.0010117
16570.0 0.0010133
16590.0 0.0010149
16610.0 0.0010166
16630.0 0.0010183
16650.0 0.0010199
16670.0 0.0010215
16690.0 0.0010231
16710.0 0.0010247
16730.0 0.0010263
16750.0 0.0010279
16770.0 0.0010295
16790.0 0.001031
16810.0 0.0010326
16830.0 0.0010342
16850.0 0.0010357
16870.0 0.0010372
16890.0 0.0010387
16910.0 0.0010402
16930.0 0.0010416
16950.0 0.0010431
16970.0 0.0010446
16990.0 0.001046
17010.0 0.0010474
17030.0 0.0010488
17050.0 0.0010502
17070.0 0.0010515
17090.0 0.0010528
17110.0 0.0010541
17130.0 0.0010554
17150.0 0.0010566
17170.0 0.0010579
17190.0 0.0010591
17210.0 0.0010602
17230.0 0.0010614
17250.0 0.0010626
17270.0 0.0010636
17290.0 0.0010647
17310.0 0.0010658
17330.0 0.0010667
17350.0 0.0010677
17370.0 0.0010687
17390.0 0.0010696
17410.0 0.0010705
17430.0 0.0010713
17450.0 0.0010722
17470.0 0.0010729
17490.0 0.0010736
17510.0 0.0010744
17530.0 0.001075
17550.0 0.0010756
17570.0 0.0010762
17590.0 0.0010768
17610.0 0.0010773
17630.0 0.0010778
17650.0 0.0010783
17670.0 0.0010787
17690.0 0.001079
17710.0 0.0010793
17730.0 0.0010796
17750.0 0.0010798
17770.0 0.00108
17790.0 0.0010802
17810.0 0.0010802
17830.0 0.0010803
17850.0 0.0010803
17870.0 0.0010803
17890.0 0.0010801
17910.0 0.00108
17930.0 0.0010799
17950.0 0.0010796
17970.0 0.0010793
17990.0 0.001079
18010.0 0.0010787
18030.0 0.0010782
18050.0 0.0010777
18070.0 0.0010772
18090.0 0.0010767
18110.0 0.001076
18130.0 0.0010754
18150.0 0.0010747
18170.0 0.0010739
18190.0 0.001073
18210.0 0.0010722
18230.0 0.0010712
18250.0 0.0010702
18270.0 0.0010692
18290.0 0.0010682
18310.0 0.001067
18330.0 0.0010658
18350.0 0.0010646
18370.0 0.0010633
18390.0 0.0010619
18410.0 0.0010605
18430.0 0.0010591
18450.0 0.0010575
18470.0 0.001056
18490.0 0.0010544
18510.0 0.0010527
18530.0 0.001051
18550.0 0.0010493
18570.0 0.0010475
18590.0 0.0010455
18610.0 0.0010436
18630.0 0.0010417
18650.0 0.0010396
18670.0 0.0010375
18690.0 0.0010354
18710.0 0.0010332
18730.0 0.0010309
18750.0 0.0010287
18770.0 0.0010264
18790.0 0.0010239
18810.0 0.0010215
18830.0 0.001019
18850.0 0.0010165
18870.0 0.0010138
18890.0 0.0010112
18910.0 0.0010085
18930.0 0.0010058
18950.0 0.001003
18970.0 0.0010002
18990.0 0.00099728
19010.0 0.00099428
19030.0 0.00099134
19050.0 0.00098833
19070.0 0.00098524
19090.0 0.00098212
19110.0 0.000979
19130.0 0.00097577
19150.0 0.00097249
19170.0 0.00096922
19190.0 0.0009659
19210.0 0.00096248
19230.0 0.00095905
19250.0 0.00095563
19270.0 0.00095211
19290.0 0.00094855
19310.0 0.00094499
19330.0 0.00094139
19350.0 0.00093767
19370.0 0.00093398
19390.0 0.00093027
19410.0 0.00092648
19430.0 0.00092264
19450.0 0.00091883
19470.0 0.00091497
19490.0 0.00091102
19510.0 0.00090708
19530.0 0.00090313
19550.0 0.00089909
19570.0 0.00089502
19590.0 0.00089097
19610.0 0.00088688
19630.0 0.00088272
19650.0 0.00087857
19670.0 0.00087441
19690.0 0.00087016
19710.0 0.0008659
19730.0 0.00086166
19750.0 0.00085737
19770.0 0.000853
19790.0 0.00084867
19810.0 0.00084433
19830.0 0.0008399
19850.0 0.00083544
19870.0 0.00083096
19890.0 0.00082631
19910.0 0.00082139
19930.0 0.0008162
19950.0 0.00081052
19970.0 0.00080404
19990.0 0.00079666
20010.0 0.00078853
20030.0 0.00077924
20050.0 0.00076885
20070.0 0.00075786
20090.0 0.00074635
20110.0 0.00073386
20130.0 0.00072139
20150.0 0.00070914
20170.0 0.00069668
20190.0 0.00068419
20210.0 0.00067228
20230.0 0.00066061
20250.0 0.0006489
20270.0 0.00063773
20290.0 0.00062716
20310.0 0.00061678
20330.0 0.00060663
20350.0 0.00059741
20370.0 0.00058856
20390.0 0.00058001
20410.0 0.00057206
20430.0 0.00056472
20450.0 0.00055761
20470.0 0.00055098
20490.0 0.00054491
20510.0 0.00053923
20530.0 0.00053385
20550.0 0.00052892
20570.0 0.00052438
20590.0 0.00052009
20610.0 0.00051608
20630.0 0.00051236
20650.0 0.00050884
20670.0 0.00050548
20690.0 0.0005023
20710.0 0.00049923
20730.0 0.00049622
20750.0 0.00049325
20770.0 0.00049028
20790.0 0.00048728
20810.0 0.00048419
20830.0 0.00048101
20850.0 0.00047771
20870.0 0.00047422
20890.0 0.00047053
20910.0 0.0004667
20930.0 0.00046264
20950.0 0.00045834
20970.0 0.00045386
20990.0 0.00044922
21010.0 0.00044428
21030.0 0.00043917
21050.0 0.00043397
21070.0 0.00042858
21090.0 0.00042295
21110.0 0.00041736
21130.0 0.00041172
21150.0 0.00040592
21170.0 0.00040012
21190.0 0.00039443
21210.0 0.00038864
21230.0 0.00038283
21250.0 0.00037721
21270.0 0.00037168
21290.0 0.00036615
21310.0 0.00036076
21330.0 0.00035561
21350.0 0.0003505
21370.0 0.00034548
21390.0 0.00034068
21410.0 0.00033603
21430.0 0.00033138
21450.0 0.00032694
21470.0 0.00032269
21490.0 0.00031849
21510.0 0.00031437
21530.0 0.00031043
21550.0 0.00030657
21570.0 0.00030273
21590.0 0.000299
21610.0 0.00029538
21630.0 0.00029178
21650.0 0.00028819
21670.0 0.00028475
21690.0 0.00028134
21710.0 0.00027793
21730.0 0.00027458
21750.0 0.00027131
21770.0 0.000268
21790.0 0.00026471
21810.0 0.0002615
21830.0 0.00025828
21850.0 0.00025504
21870.0 0.00025183
21890.0 0.00024867
21910.0 0.00024546
21930.0 0.00024224
21950.0 0.00023907
21970.0 0.00023587
21990.0 0.0002326
22010.0 0.00022941
22030.0 0.00022623
22050.0 0.00022301
22070.0 0.0002198
22090.0 0.00021667
22110.0 0.00021353
22130.0 0.00021038
22150.0 0.0002073
22170.0 0.00020429
22190.0 0.00020125
22210.0 0.00019827
22230.0 0.00019542
22250.0 0.00019258
22270.0 0.00018976
22290.0 0.00018705
22310.0 0.0001844
22330.0 0.00018175
22350.0 0.00017916
22370.0 0.00017665
22390.0 0.00017416
22410.0 0.00017167
22430.0 0.00016927
22450.0 0.0001669
22470.0 0.00016451
22490.0 0.00016214
22510.0 0.00015984
22530.0 0.00015749
22550.0 0.00015514
22570.0 0.00015284
22590.0 0.00015056
22610.0 0.00014825
22630.0 0.00014597
22650.0 0.00014375
22670.0 0.00014152
22690.0 0.0001393
22710.0 0.00013715
22730.0 0.00013505
22750.0 0.00013293
22770.0 0.00013091
22790.0 0.00012897
22810.0 0.00012708
22830.0 0.00012524
22850.0 0.00012352
22870.0 0.00012187
22890.0 0.00012029
22910.0 0.00011882
22930.0 0.00011747
22950.0 0.00011621
22970.0 0.00011506
22990.0 0.00011404
23010.0 0.00011312
23030.0 0.0001123
23050.0 0.00011159
23070.0 0.00011095
23090.0 0.0001104
23110.0 0.00010991
23130.0 0.00010945
23150.0 0.00010902
23170.0 0.00010862
23190.0 0.0001082
23210.0 0.00010776
23230.0 0.00010731
23250.0 0.00010683
23270.0 0.00010631
23290.0 0.00010576
23310.0 0.00010517
23330.0 0.00010453
23350.0 0.00010386
23370.0 0.00010316
23390.0 0.00010242
23410.0 0.00010166
23430.0 0.00010088
23450.0 0.00010008
23470.0 9.9263e-05
23490.0 9.8445e-05
23510.0 9.7617e-05
23530.0 9.6792e-05
23550.0 9.598e-05
23570.0 9.5179e-05
23590.0 9.4398e-05
23610.0 9.3653e-05
23630.0 9.295e-05
23650.0 9.2306e-05
23670.0 9.1739e-05
23690.0 9.126e-05
23710.0 9.0895e-05
