#lamb flux
1010.0 1.2591e-08
1030.0 1.3862e-08
1050.0 1.5323e-08
1070.0 1.6968e-08
1090.0 1.8836e-08
1110.0 2.0753e-08
1130.0 2.2681e-08
1150.0 2.4702e-08
1170.0 2.6786e-08
1190.0 2.8762e-08
1210.0 3.0765e-08
1230.0 3.2835e-08
1250.0 3.4862e-08
1270.0 3.6832e-08
1290.0 3.8912e-08
1310.0 4.0991e-08
1330.0 4.2985e-08
1350.0 4.5001e-08
1370.0 4.7083e-08
1390.0 4.9112e-08
1410.0 5.1081e-08
1430.0 5.3139e-08
1450.0 5.5197e-08
1470.0 5.7185e-08
1490.0 5.9194e-08
1510.0 6.1317e-08
1530.0 6.3327e-08
1550.0 6.5309e-08
1570.0 6.736e-08
1590.0 6.9411e-08
1610.0 7.137e-08
1630.0 7.3388e-08
1650.0 7.5458e-08
1670.0 7.7458e-08
1690.0 7.9431e-08
1710.0 8.1478e-08
1730.0 8.3533e-08
1750.0 8.5461e-08
1770.0 8.7442e-08
1790.0 8.946e-08
1810.0 9.1406e-08
1830.0 9.331e-08
1850.0 9.5328e-08
1870.0 9.7283e-08
1890.0 9.916e-08
1910.0 1.0106e-07
1930.0 1.03e-07
1950.0 1.0484e-07
1970.0 1.0663e-07
1990.0 1.0848e-07
2010.0 1.1027e-07
2030.0 1.1197e-07
2050.0 1.137e-07
2070.0 1.1545e-07
2090.0 1.1705e-07
2110.0 1.1862e-07
2130.0 1.202e-07
2150.0 1.2171e-07
2170.0 1.2309e-07
2190.0 1.2449e-07
2210.0 1.2585e-07
2230.0 1.2709e-07
2250.0 1.2826e-07
2270.0 1.2945e-07
2290.0 1.3052e-07
2310.0 1.3145e-07
2330.0 1.3238e-07
2350.0 1.3328e-07
2370.0 1.341e-07
2390.0 1.3497e-07
2410.0 1.3608e-07
2430.0 1.374e-07
2450.0 1.3908e-07
2470.0 1.4142e-07
2490.0 1.4458e-07
2510.0 1.4826e-07
2530.0 1.5293e-07
2550.0 1.5919e-07
2570.0 1.6744e-07
2590.0 1.7865e-07
2610.0 1.9602e-07
2630.0 2.2082e-07
2650.0 2.5259e-07
2670.0 2.9263e-07
2690.0 3.4029e-07
2710.0 3.8905e-07
2730.0 4.3496e-07
2750.0 4.7798e-07
2770.0 5.1278e-07
2790.0 5.3761e-07
2810.0 5.5478e-07
2830.0 5.6571e-07
2850.0 5.7018e-07
2870.0 5.7105e-07
2890.0 5.6992e-07
2910.0 5.6736e-07
2930.0 5.6386e-07
2950.0 5.6026e-07
2970.0 5.5667e-07
2990.0 5.53e-07
3010.0 1.7316e-05
3030.0 1.7212e-05
3050.0 1.7111e-05
3070.0 1.7e-05
3090.0 1.6881e-05
3110.0 1.6738e-05
3130.0 1.6549e-05
3150.0 1.63e-05
3170.0 1.5961e-05
3190.0 1.5537e-05
3210.0 1.5057e-05
3230.0 1.4538e-05
3250.0 1.4014e-05
3270.0 1.3621e-05
3290.0 1.3324e-05
3310.0 1.3254e-05
3330.0 1.3338e-05
3350.0 1.3569e-05
3370.0 1.3949e-05
3390.0 1.4456e-05
3410.0 1.5026e-05
3430.0 1.5679e-05
3450.0 1.6442e-05
3470.0 1.7285e-05
3490.0 1.8193e-05
3510.0 1.9228e-05
3530.0 2.0362e-05
3550.0 2.1582e-05
3570.0 2.2933e-05
3590.0 2.4451e-05
3610.0 2.6151e-05
3630.0 2.7854e-05
3650.0 2.9664e-05
3670.0 3.1302e-05
3690.0 3.2526e-05
3710.0 3.3142e-05
3730.0 3.2778e-05
3750.0 3.1439e-05
3770.0 3.1942e-05
3790.0 3.0907e-05
3810.0 2.3537e-05
3830.0 2.2125e-05
3850.0 3.1992e-05
3870.0 2.9582e-05
3890.0 2.2517e-05
3910.0 2.3526e-05
3930.0 3.0964e-05
3950.0 3.6695e-05
3970.0 4.2604e-05
3990.0 3.0945e-05
4010.0 5.2041e-05
4030.0 4.8173e-05
4050.0 4.7972e-05
4070.0 5.5921e-05
4090.0 5.3462e-05
4110.0 4.9595e-05
4130.0 6.2293e-05
4150.0 8.2658e-05
4170.0 6.5679e-05
4190.0 5.7591e-05
4210.0 6.4872e-05
4230.0 8.1101e-05
4250.0 9.5961e-05
4270.0 0.00010437
4290.0 9.3804e-05
4310.0 8.6406e-05
4330.0 8.61e-05
4350.0 0.00011079
4370.0 0.00013455
4390.0 0.00010709
4410.0 6.0951e-05
4430.0 4.3354e-05
4450.0 3.9905e-05
4470.0 2.6719e-05
4490.0 4.5443e-05
4510.0 9.202e-05
4530.0 0.00011177
4550.0 0.00010737
4570.0 9.7442e-05
4590.0 0.0001055
4610.0 0.00020517
4630.0 0.00028564
4650.0 0.00026832
4670.0 0.00023646
4690.0 0.00024635
4710.0 0.00025883
4730.0 0.00020867
4750.0 0.00013326
4770.0 9.3146e-05
4790.0 0.00010435
4810.0 0.00010903
4830.0 0.00010806
4850.0 0.00011803
4870.0 0.00015632
4890.0 0.00018133
4910.0 0.00013976
4930.0 0.00013486
4950.0 0.00015556
4970.0 0.00020913
4990.0 0.00028153
5010.0 0.00032274
5030.0 0.0002552
5050.0 0.00015356
5070.0 0.00010971
5090.0 8.4868e-05
5110.0 7.9708e-05
5130.0 9.4508e-05
5150.0 9.0746e-05
5170.0 8.543e-05
5190.0 7.6618e-05
5210.0 8.3869e-05
5230.0 0.00010454
5250.0 0.00012217
5270.0 0.00011341
5290.0 0.00012342
5310.0 0.00016533
5330.0 0.00017475
5350.0 0.0001721
5370.0 0.000195
5390.0 0.00024251
5410.0 0.00020606
5430.0 0.00015564
5450.0 0.00015726
5470.0 0.00018511
5490.0 0.00023426
5510.0 0.00028727
5530.0 0.00033242
5550.0 0.00029909
5570.0 0.00026714
5590.0 0.00021937
5610.0 0.00022357
5630.0 0.00025136
5650.0 0.00023415
5670.0 0.00021626
5690.0 0.00017489
5710.0 0.00017948
5730.0 0.00017503
5750.0 9.3088e-05
5770.0 6.7764e-05
5790.0 8.4473e-05
5810.0 9.0813e-05
5830.0 0.00014045
5850.0 0.00018202
5870.0 0.00019311
5890.0 0.00018216
5910.0 0.00017626
5930.0 0.00017118
5950.0 0.00017754
5970.0 0.00021989
5990.0 0.00018002
6010.0 0.00013775
6030.0 0.00011168
6050.0 9.9524e-05
6070.0 0.00011981
6090.0 0.00013627
6110.0 0.00013852
6130.0 0.00012571
6150.0 9.9159e-05
6170.0 8.0524e-05
6190.0 0.00010061
6210.0 0.00015748
6230.0 0.00022843
6250.0 0.00024277
6270.0 0.00018523
6290.0 0.00015816
6310.0 0.0001208
6330.0 8.8276e-05
6350.0 8.6874e-05
6370.0 9.1374e-05
6390.0 0.00011043
6410.0 0.00014166
6430.0 0.00017072
6450.0 0.00021081
6470.0 0.00022416
6490.0 0.00027021
6510.0 0.00030344
6530.0 0.00030621
6550.0 0.00028223
6570.0 0.00023183
6590.0 0.00022418
6610.0 0.00018608
6630.0 0.00019314
6650.0 0.00018609
6670.0 0.00016494
6690.0 0.00013081
6710.0 0.00012695
6730.0 6.1027e-05
6750.0 7.746e-05
6770.0 0.00011733
6790.0 0.00015543
6810.0 0.00011313
6830.0 0.00011564
6850.0 9.7794e-05
6870.0 9.2663e-05
6890.0 7.9129e-05
6910.0 9.3339e-05
6930.0 8.7562e-05
6950.0 0.00010469
6970.0 0.00010725
6990.0 0.00011876
7010.0 0.00011686
7030.0 0.00013039
7050.0 0.00011269
7070.0 9.5161e-05
7090.0 0.00010029
7110.0 0.00010404
7130.0 0.00011865
7150.0 0.00013514
7170.0 0.0001507
7190.0 0.00015807
7210.0 0.0001396
7230.0 0.00014102
7250.0 0.00015306
7270.0 0.00016715
7290.0 0.00020282
7310.0 0.00020968
7330.0 0.00019211
7350.0 0.00017132
7370.0 0.00012698
7390.0 0.00013305
7410.0 0.00016481
7430.0 0.00018726
7450.0 0.00020136
7470.0 0.00018708
7490.0 0.00015801
7510.0 0.00025259
7530.0 0.00022621
7550.0 0.00020967
7570.0 0.0001411
7590.0 6.2109e-05
7610.0 4.3923e-05
7630.0 6.63e-05
7650.0 8.8917e-05
7670.0 0.00014131
7690.0 0.00015884
7710.0 0.00014301
7730.0 0.00014031
7750.0 0.00018304
7770.0 0.00018727
7790.0 0.00017243
7810.0 0.00014113
7830.0 0.00015145
7850.0 0.00016483
7870.0 0.0001614
7890.0 0.00012697
7910.0 8.4924e-05
7930.0 8.6584e-05
7950.0 7.7852e-05
7970.0 6.5813e-05
7990.0 5.9475e-05
8010.0 4.8853e-05
8030.0 4.5934e-05
8050.0 4.8896e-05
8070.0 5.2916e-05
8090.0 6.1737e-05
8110.0 5.7787e-05
8130.0 3.7982e-05
8150.0 3.7896e-05
8170.0 2.4941e-05
8190.0 1.8585e-05
8210.0 3.4337e-05
8230.0 4.0129e-05
8250.0 2.122e-05
8270.0 1.7642e-05
8290.0 2.4743e-05
8310.0 2.0235e-05
8330.0 1.2487e-05
8350.0 9.9137e-06
8370.0 4.0188e-06
8390.0 1.0865e-05
8410.0 1.296e-05
8430.0 1.6136e-05
8450.0 1.8087e-05
8470.0 2.7585e-05
8490.0 2.3198e-05
8510.0 1.8981e-05
8530.0 1.1896e-05
8550.0 3.0804e-05
8570.0 4.6308e-05
8590.0 3.5542e-05
8610.0 5.0828e-05
8630.0 5.5811e-05
8650.0 3.5572e-05
8670.0 4.7088e-05
8690.0 6.6845e-05
8710.0 5.8547e-05
8730.0 6.1844e-05
8750.0 5.0168e-05
8770.0 4.5398e-05
8790.0 4.9438e-05
8810.0 5.2301e-05
8830.0 3.1676e-05
8850.0 1.6987e-05
8870.0 1.2845e-05
8890.0 2.3937e-05
8910.0 3.5197e-05
8930.0 4.4897e-05
8950.0 5.0741e-05
8970.0 4.938e-05
8990.0 3.9101e-05
9010.0 2.8905e-05
9030.0 2.335e-05
9050.0 2.4242e-05
9070.0 2.5106e-05
9090.0 2.5794e-05
9110.0 2.6601e-05
9130.0 2.7188e-05
9150.0 2.7615e-05
9170.0 2.807e-05
9190.0 2.8556e-05
9210.0 2.9066e-05
9230.0 2.9606e-05
9250.0 3.0155e-05
9270.0 3.0722e-05
9290.0 3.1304e-05
9310.0 3.1888e-05
9330.0 3.2483e-05
9350.0 3.3096e-05
9370.0 3.3716e-05
9390.0 3.434e-05
9410.0 3.4981e-05
9430.0 3.5638e-05
9450.0 3.6293e-05
9470.0 3.696e-05
9490.0 3.7644e-05
9510.0 3.8336e-05
9530.0 3.903e-05
9550.0 3.9747e-05
9570.0 4.0475e-05
9590.0 4.1204e-05
9610.0 4.1946e-05
9630.0 4.2706e-05
9650.0 4.3472e-05
9670.0 4.4239e-05
9690.0 4.5026e-05
9710.0 4.5824e-05
9730.0 4.6624e-05
9750.0 4.7435e-05
9770.0 4.8269e-05
9790.0 4.9101e-05
9810.0 4.9939e-05
9830.0 5.0792e-05
9850.0 5.1656e-05
9870.0 5.2518e-05
9890.0 5.3392e-05
9910.0 5.4282e-05
9930.0 5.5172e-05
9950.0 5.6066e-05
9970.0 5.6976e-05
9990.0 5.7894e-05
10010.0 5.2808e-05
10030.0 5.3625e-05
10050.0 5.4451e-05
10070.0 5.5266e-05
10090.0 5.6094e-05
10110.0 5.6936e-05
10130.0 5.7778e-05
10150.0 5.8614e-05
10170.0 5.9455e-05
10190.0 6.0305e-05
10210.0 6.1146e-05
10230.0 6.1985e-05
10250.0 6.2832e-05
10270.0 6.3676e-05
10290.0 6.4512e-05
10310.0 6.5354e-05
10330.0 6.6199e-05
10350.0 6.7032e-05
10370.0 6.786e-05
10390.0 6.8692e-05
10410.0 6.9519e-05
10430.0 7.033e-05
10450.0 7.1144e-05
10470.0 7.1955e-05
10490.0 7.2753e-05
10510.0 7.3542e-05
10530.0 7.4335e-05
10550.0 7.5114e-05
10570.0 7.5877e-05
10590.0 7.6636e-05
10610.0 7.7389e-05
10630.0 7.8123e-05
10650.0 7.8847e-05
10670.0 7.9569e-05
10690.0 8.0273e-05
10710.0 8.096e-05
10730.0 8.1641e-05
10750.0 8.2315e-05
10770.0 8.296e-05
10790.0 8.3594e-05
10810.0 8.4219e-05
10830.0 8.4821e-05
10850.0 8.5392e-05
10870.0 8.594e-05
10890.0 8.643e-05
10910.0 8.6827e-05
10930.0 8.7092e-05
10950.0 8.715e-05
10970.0 8.6942e-05
10990.0 8.6439e-05
11010.0 8.8255e-05
11030.0 8.6929e-05
11050.0 8.5273e-05
11070.0 8.3262e-05
11090.0 8.0824e-05
11110.0 7.8291e-05
11130.0 7.5644e-05
11150.0 7.2796e-05
11170.0 6.987e-05
11190.0 6.7045e-05
11210.0 6.4144e-05
11230.0 6.1193e-05
11250.0 5.8395e-05
11270.0 5.5726e-05
11290.0 5.3073e-05
11310.0 5.0575e-05
11330.0 4.838e-05
11350.0 4.6311e-05
11370.0 4.4396e-05
11390.0 4.2727e-05
11410.0 4.125e-05
11430.0 3.9858e-05
11450.0 3.863e-05
11470.0 3.7537e-05
11490.0 3.6493e-05
11510.0 3.5464e-05
11530.0 3.4486e-05
11550.0 3.3504e-05
11570.0 3.2458e-05
11590.0 3.138e-05
11610.0 3.0289e-05
11630.0 2.9119e-05
11650.0 2.7884e-05
11670.0 2.6676e-05
11690.0 2.5463e-05
11710.0 2.4224e-05
11730.0 2.3029e-05
11750.0 2.1923e-05
11770.0 2.0841e-05
11790.0 1.9825e-05
11810.0 1.8922e-05
11830.0 1.8107e-05
11850.0 1.7347e-05
11870.0 1.6696e-05
11890.0 1.6138e-05
11910.0 1.5634e-05
11930.0 1.5185e-05
11950.0 1.4793e-05
11970.0 1.4431e-05
11990.0 1.4079e-05
12010.0 1.3745e-05
12030.0 1.342e-05
12050.0 1.3085e-05
12070.0 1.2739e-05
12090.0 1.2403e-05
12110.0 1.2062e-05
12130.0 1.1717e-05
12150.0 1.1389e-05
12170.0 1.1086e-05
12190.0 1.0799e-05
12210.0 1.0555e-05
12230.0 1.0365e-05
12250.0 1.0227e-05
12270.0 1.0153e-05
12290.0 1.0147e-05
12310.0 1.0203e-05
12330.0 1.0334e-05
12350.0 1.0532e-05
12370.0 1.078e-05
12390.0 1.1084e-05
12410.0 1.1458e-05
12430.0 1.1844e-05
12450.0 1.2247e-05
12470.0 1.268e-05
12490.0 1.3115e-05
12510.0 1.3516e-05
12530.0 1.3914e-05
12550.0 1.4292e-05
12570.0 1.4616e-05
12590.0 1.489e-05
12610.0 1.5126e-05
12630.0 1.5299e-05
12650.0 1.5397e-05
12670.0 1.544e-05
12690.0 1.542e-05
12710.0 1.5334e-05
12730.0 1.5191e-05
12750.0 1.4988e-05
12770.0 1.4733e-05
12790.0 1.4438e-05
12810.0 1.4099e-05
12830.0 1.372e-05
12850.0 1.3328e-05
12870.0 1.2919e-05
12890.0 1.2483e-05
12910.0 1.2043e-05
12930.0 1.161e-05
12950.0 1.1162e-05
12970.0 1.0708e-05
12990.0 1.0276e-05
13010.0 9.8495e-06
13030.0 9.4178e-06
13050.0 9.0004e-06
13070.0 8.6058e-06
13090.0 8.2083e-06
13110.0 7.8208e-06
13130.0 7.4591e-06
13150.0 7.1131e-06
13170.0 6.7716e-06
13190.0 6.4625e-06
13210.0 6.1852e-06
13230.0 5.9271e-06
13250.0 5.6983e-06
13270.0 5.5091e-06
13290.0 5.3517e-06
13310.0 5.2281e-06
13330.0 5.147e-06
13350.0 5.1054e-06
13370.0 5.1037e-06
13390.0 5.1446e-06
13410.0 5.2184e-06
13430.0 5.3277e-06
13450.0 5.4734e-06
13470.0 5.6424e-06
13490.0 5.8267e-06
13510.0 6.0413e-06
13530.0 6.2637e-06
13550.0 6.48e-06
13570.0 6.6973e-06
13590.0 6.9135e-06
13610.0 7.1086e-06
13630.0 7.2813e-06
13650.0 7.4422e-06
13670.0 7.578e-06
13690.0 7.6842e-06
13710.0 7.7679e-06
13730.0 7.8296e-06
13750.0 7.861e-06
13770.0 7.8694e-06
13790.0 7.8563e-06
13810.0 7.8216e-06
13830.0 7.7691e-06
13850.0 7.6984e-06
13870.0 7.6097e-06
13890.0 7.5086e-06
13910.0 7.3956e-06
13930.0 7.2667e-06
13950.0 7.1276e-06
13970.0 6.9867e-06
13990.0 6.8354e-06
14010.0 6.6765e-06
14030.0 6.5196e-06
14050.0 6.363e-06
14070.0 6.1995e-06
14090.0 6.0438e-06
14110.0 5.8982e-06
14130.0 5.7577e-06
14150.0 5.6257e-06
14170.0 5.5127e-06
14190.0 5.4144e-06
14210.0 5.3301e-06
14230.0 5.2662e-06
14250.0 5.223e-06
14270.0 5.1991e-06
14290.0 5.1974e-06
14310.0 5.2165e-06
14330.0 5.2553e-06
14350.0 5.3156e-06
14370.0 5.3932e-06
14390.0 5.4835e-06
14410.0 5.5923e-06
14430.0 5.7145e-06
14450.0 5.8424e-06
14470.0 5.9783e-06
14490.0 6.1268e-06
14510.0 6.2732e-06
14530.0 6.4169e-06
14550.0 6.5656e-06
14570.0 6.7141e-06
14590.0 6.8551e-06
14610.0 6.9973e-06
14630.0 7.1441e-06
14650.0 7.2868e-06
14670.0 7.4293e-06
14690.0 7.5811e-06
14710.0 7.7424e-06
14730.0 7.9039e-06
14750.0 8.0807e-06
14770.0 8.2769e-06
14790.0 8.4845e-06
14810.0 8.7041e-06
14830.0 8.9562e-06
14850.0 9.2231e-06
14870.0 9.4954e-06
14890.0 9.783e-06
14910.0 1.0083e-05
14930.0 1.0367e-05
14950.0 1.0631e-05
14970.0 1.0879e-05
14990.0 1.1088e-05
15010.0 1.1251e-05
15030.0 1.1374e-05
15050.0 1.1461e-05
15070.0 1.1511e-05
15090.0 1.1538e-05
15110.0 1.155e-05
15130.0 1.1552e-05
15150.0 1.155e-05
15170.0 1.1544e-05
15190.0 1.1537e-05
15210.0 1.1531e-05
15230.0 1.1525e-05
15250.0 1.1518e-05
15270.0 1.1511e-05
15290.0 1.1506e-05
15310.0 1.1501e-05
15330.0 1.1495e-05
15350.0 1.149e-05
15370.0 1.1486e-05
15390.0 1.148e-05
15410.0 1.1475e-05
15430.0 1.1472e-05
15450.0 1.1467e-05
15470.0 1.1462e-05
15490.0 1.1459e-05
15510.0 1.1455e-05
15530.0 1.1451e-05
15550.0 1.1447e-05
15570.0 1.1444e-05
15590.0 1.144e-05
15610.0 1.1435e-05
15630.0 1.1432e-05
15650.0 1.1429e-05
15670.0 1.1424e-05
15690.0 1.1421e-05
15710.0 1.1418e-05
15730.0 1.1414e-05
15750.0 1.1409e-05
15770.0 1.1406e-05
15790.0 1.1402e-05
15810.0 1.1397e-05
15830.0 1.1393e-05
15850.0 1.139e-05
15870.0 1.1385e-05
15890.0 1.138e-05
15910.0 1.1376e-05
15930.0 1.1372e-05
15950.0 1.1366e-05
15970.0 1.1361e-05
15990.0 1.1356e-05
16010.0 1.135e-05
16030.0 1.1344e-05
16050.0 1.1339e-05
16070.0 1.1333e-05
16090.0 1.1326e-05
16110.0 1.132e-05
16130.0 1.1314e-05
16150.0 1.1306e-05
16170.0 1.1298e-05
16190.0 1.1291e-05
16210.0 1.1283e-05
16230.0 1.1275e-05
16250.0 1.1266e-05
16270.0 1.1259e-05
16290.0 1.1249e-05
16310.0 1.1239e-05
16330.0 1.123e-05
16350.0 1.1221e-05
16370.0 1.1209e-05
16390.0 1.1199e-05
16410.0 1.1188e-05
16430.0 1.1177e-05
16450.0 1.1165e-05
16470.0 1.1154e-05
16490.0 1.1141e-05
16510.0 1.1128e-05
16530.0 1.1115e-05
16550.0 1.1102e-05
16570.0 1.1087e-05
16590.0 1.1073e-05
16610.0 1.1059e-05
16630.0 1.1044e-05
16650.0 1.1028e-05
16670.0 1.1013e-05
16690.0 1.0997e-05
16710.0 1.098e-05
16730.0 1.0962e-05
16750.0 1.0946e-05
16770.0 1.0928e-05
16790.0 1.0909e-05
16810.0 1.0891e-05
16830.0 1.0872e-05
16850.0 1.0852e-05
16870.0 1.0833e-05
16890.0 1.0813e-05
16910.0 1.0792e-05
16930.0 1.077e-05
16950.0 1.0749e-05
16970.0 1.0728e-05
16990.0 1.0705e-05
17010.0 1.0682e-05
17030.0 1.066e-05
17050.0 1.0636e-05
17070.0 1.0612e-05
17090.0 1.0588e-05
17110.0 1.0563e-05
17130.0 1.0537e-05
17150.0 1.0512e-05
17170.0 1.0486e-05
17190.0 1.046e-05
17210.0 1.0433e-05
17230.0 1.0406e-05
17250.0 1.0379e-05
17270.0 1.035e-05
17290.0 1.0322e-05
17310.0 1.0294e-05
17330.0 1.0264e-05
17350.0 1.0234e-05
17370.0 1.0205e-05
17390.0 1.0175e-05
17410.0 1.0144e-05
17430.0 1.0113e-05
17450.0 1.0083e-05
17470.0 1.005e-05
17490.0 1.0018e-05
17510.0 9.9861e-06
17530.0 9.9535e-06
17550.0 9.9196e-06
17570.0 9.8868e-06
17590.0 9.8539e-06
17610.0 9.8191e-06
17630.0 9.7846e-06
17650.0 9.7507e-06
17670.0 9.7157e-06
17690.0 9.6789e-06
17710.0 9.644e-06
17730.0 9.6087e-06
17750.0 9.572e-06
17770.0 9.5354e-06
17790.0 9.4998e-06
17810.0 9.4623e-06
17830.0 9.4243e-06
17850.0 9.3872e-06
17870.0 9.3499e-06
17890.0 9.3109e-06
17910.0 9.2722e-06
17930.0 9.2347e-06
17950.0 9.1957e-06
17970.0 9.1562e-06
17990.0 9.1176e-06
18010.0 9.0787e-06
18030.0 9.0377e-06
18050.0 8.9978e-06
18070.0 8.9584e-06
18090.0 8.9178e-06
18110.0 8.8765e-06
18130.0 8.8367e-06
18150.0 8.7963e-06
18170.0 8.7545e-06
18190.0 8.7134e-06
18210.0 8.6729e-06
18230.0 8.6307e-06
18250.0 8.588e-06
18270.0 8.547e-06
18290.0 8.5053e-06
18310.0 8.4625e-06
18330.0 8.4205e-06
18350.0 8.3791e-06
18370.0 8.3359e-06
18390.0 8.2929e-06
18410.0 8.2508e-06
18430.0 8.2082e-06
18450.0 8.164e-06
18470.0 8.1213e-06
18490.0 8.079e-06
18510.0 8.0354e-06
18530.0 7.9919e-06
18550.0 7.9495e-06
18570.0 7.9061e-06
18590.0 7.8617e-06
18610.0 7.8184e-06
18630.0 7.7754e-06
18650.0 7.7312e-06
18670.0 7.687e-06
18690.0 7.6444e-06
18710.0 7.6007e-06
18730.0 7.5564e-06
18750.0 7.513e-06
18770.0 7.4701e-06
18790.0 7.4251e-06
18810.0 7.3809e-06
18830.0 7.3379e-06
18850.0 7.2941e-06
18870.0 7.2496e-06
18890.0 7.2063e-06
18910.0 7.1633e-06
18930.0 7.1188e-06
18950.0 7.0749e-06
18970.0 7.032e-06
18990.0 6.9881e-06
19010.0 6.9431e-06
19030.0 6.9003e-06
19050.0 6.8572e-06
19070.0 6.8131e-06
19090.0 6.7696e-06
19110.0 6.7273e-06
19130.0 6.6834e-06
19150.0 6.6394e-06
19170.0 6.5967e-06
19190.0 6.5538e-06
19210.0 6.5098e-06
19230.0 6.4666e-06
19250.0 6.4246e-06
19270.0 6.3815e-06
19290.0 6.3383e-06
19310.0 6.2962e-06
19330.0 6.254e-06
19350.0 6.2102e-06
19370.0 6.1678e-06
19390.0 6.1261e-06
19410.0 6.0835e-06
19430.0 6.0407e-06
19450.0 5.9995e-06
19470.0 5.9578e-06
19490.0 5.9153e-06
19510.0 5.8737e-06
19530.0 5.8328e-06
19550.0 5.7906e-06
19570.0 5.7484e-06
19590.0 5.7079e-06
19610.0 5.6669e-06
19630.0 5.6252e-06
19650.0 5.5846e-06
19670.0 5.5446e-06
19690.0 5.5033e-06
19710.0 5.4623e-06
19730.0 5.4225e-06
19750.0 5.3823e-06
19770.0 5.341e-06
19790.0 5.3013e-06
19810.0 5.2621e-06
19830.0 5.2218e-06
19850.0 5.1815e-06
19870.0 5.1422e-06
19890.0 5.101e-06
19910.0 5.0572e-06
19930.0 5.012e-06
19950.0 4.9629e-06
19970.0 4.9061e-06
19990.0 4.8413e-06
20010.0 4.6193e-06
20030.0 4.5397e-06
20050.0 4.4497e-06
20070.0 4.3545e-06
20090.0 4.2543e-06
20110.0 4.1435e-06
20130.0 4.033e-06
20150.0 3.9248e-06
20170.0 3.8141e-06
20190.0 3.7031e-06
20210.0 3.5988e-06
20230.0 3.4977e-06
20250.0 3.3971e-06
20270.0 3.3037e-06
20290.0 3.2181e-06
20310.0 3.1367e-06
20330.0 3.0601e-06
20350.0 2.9955e-06
20370.0 2.9373e-06
20390.0 2.8852e-06
20410.0 2.8418e-06
20430.0 2.8069e-06
20450.0 2.7777e-06
20470.0 2.756e-06
20490.0 2.7417e-06
20510.0 2.7334e-06
20530.0 2.7313e-06
20550.0 2.7347e-06
20570.0 2.7426e-06
20590.0 2.7554e-06
20610.0 2.7725e-06
20630.0 2.7922e-06
20650.0 2.8153e-06
20670.0 2.8426e-06
20690.0 2.8708e-06
20710.0 2.9002e-06
20730.0 2.9323e-06
20750.0 2.9658e-06
20770.0 2.9984e-06
20790.0 3.0325e-06
20810.0 3.0683e-06
20830.0 3.1033e-06
20850.0 3.1378e-06
20870.0 3.1745e-06
20890.0 3.2114e-06
20910.0 3.2461e-06
20930.0 3.2818e-06
20950.0 3.3185e-06
20970.0 3.3537e-06
20990.0 3.3881e-06
21010.0 3.4242e-06
21030.0 3.4592e-06
21050.0 3.4923e-06
21070.0 3.5254e-06
21090.0 3.5587e-06
21110.0 3.5889e-06
21130.0 3.6172e-06
21150.0 3.6451e-06
21170.0 3.6705e-06
21190.0 3.6925e-06
21210.0 3.713e-06
21230.0 3.7307e-06
21250.0 3.7441e-06
21270.0 3.7536e-06
21290.0 3.7593e-06
21310.0 3.76e-06
21330.0 3.7556e-06
21350.0 3.7458e-06
21370.0 3.7298e-06
21390.0 3.7081e-06
21410.0 3.6805e-06
21430.0 3.6447e-06
21450.0 3.6032e-06
21470.0 3.5567e-06
21490.0 3.5033e-06
21510.0 3.4437e-06
21530.0 3.3817e-06
21550.0 3.3157e-06
21570.0 3.2442e-06
21590.0 3.1725e-06
21610.0 3.1018e-06
21630.0 3.0297e-06
21650.0 2.9577e-06
21670.0 2.8933e-06
21690.0 2.8321e-06
21710.0 2.7747e-06
21730.0 2.7249e-06
21750.0 2.6832e-06
21770.0 2.6472e-06
21790.0 2.6202e-06
21810.0 2.6023e-06
21830.0 2.5927e-06
21850.0 2.5918e-06
21870.0 2.5992e-06
21890.0 2.6137e-06
21910.0 2.6362e-06
21930.0 2.6658e-06
21950.0 2.7e-06
21970.0 2.7399e-06
21990.0 2.787e-06
22010.0 2.8356e-06
22030.0 2.8864e-06
22050.0 2.9414e-06
22070.0 2.9982e-06
22090.0 3.0532e-06
22110.0 3.11e-06
22130.0 3.1681e-06
22150.0 3.2234e-06
22170.0 3.2765e-06
22190.0 3.3304e-06
22210.0 3.3814e-06
22230.0 3.4268e-06
22250.0 3.4704e-06
22270.0 3.5111e-06
22290.0 3.5462e-06
22310.0 3.5767e-06
22330.0 3.604e-06
22350.0 3.6255e-06
22370.0 3.6409e-06
22390.0 3.6511e-06
22410.0 3.6554e-06
22430.0 3.6531e-06
22450.0 3.6447e-06
22470.0 3.6296e-06
22490.0 3.6078e-06
22510.0 3.5803e-06
22530.0 3.5451e-06
22550.0 3.5022e-06
22570.0 3.4544e-06
22590.0 3.4004e-06
22610.0 3.3384e-06
