#lamb flux
1010.0 5.0459e-09
1030.0 6.4711e-09
1050.0 8.2026e-09
1070.0 1.0272e-08
1090.0 1.2767e-08
1110.0 1.5537e-08
1130.0 1.8562e-08
1150.0 2.1952e-08
1170.0 2.5686e-08
1190.0 2.9523e-08
1210.0 3.3604e-08
1230.0 3.7947e-08
1250.0 4.2336e-08
1270.0 4.6657e-08
1290.0 5.1089e-08
1310.0 5.5364e-08
1330.0 5.9245e-08
1350.0 6.2816e-08
1370.0 6.6071e-08
1390.0 6.8754e-08
1410.0 7.0818e-08
1430.0 7.2491e-08
1450.0 7.3633e-08
1470.0 7.4175e-08
1490.0 7.431e-08
1510.0 7.4219e-08
1530.0 7.3662e-08
1550.0 7.2846e-08
1570.0 7.1974e-08
1590.0 7.1017e-08
1610.0 6.9939e-08
1630.0 6.8967e-08
1650.0 6.8125e-08
1670.0 6.7326e-08
1690.0 6.6641e-08
1710.0 6.6182e-08
1730.0 6.5892e-08
1750.0 6.5664e-08
1770.0 6.5655e-08
1790.0 6.5842e-08
1810.0 6.6137e-08
1830.0 6.6559e-08
1850.0 6.7822e-08
1870.0 6.9664e-08
1890.0 7.1415e-08
1910.0 7.316e-08
1930.0 7.491e-08
1950.0 7.6491e-08
1970.0 7.8024e-08
1990.0 7.9626e-08
2010.0 8.1215e-08
2030.0 8.2759e-08
2050.0 8.4362e-08
2070.0 8.5918e-08
2090.0 8.7349e-08
2110.0 8.8758e-08
2130.0 9.0197e-08
2150.0 9.1593e-08
2170.0 9.2912e-08
2190.0 9.4277e-08
2210.0 9.6082e-08
2230.0 9.8375e-08
2250.0 1.0071e-07
2270.0 1.0317e-07
2290.0 1.0562e-07
2310.0 1.0804e-07
2330.0 1.1053e-07
2350.0 1.1306e-07
2370.0 1.1554e-07
2390.0 1.1804e-07
2410.0 1.2061e-07
2430.0 1.2313e-07
2450.0 1.2565e-07
2470.0 1.2832e-07
2490.0 1.3124e-07
2510.0 1.3444e-07
2530.0 1.3832e-07
2550.0 1.4344e-07
2570.0 1.5014e-07
2590.0 1.589e-07
2610.0 1.7136e-07
2630.0 1.8797e-07
2650.0 2.0845e-07
2670.0 2.3397e-07
2690.0 2.6521e-07
2710.0 2.9978e-07
2730.0 3.3643e-07
2750.0 3.7634e-07
2770.0 4.1605e-07
2790.0 4.528e-07
2810.0 4.8705e-07
2830.0 5.1875e-07
2850.0 5.4466e-07
2870.0 5.6694e-07
2890.0 5.8715e-07
2910.0 6.0544e-07
2930.0 6.2219e-07
2950.0 6.3916e-07
2970.0 6.5662e-07
2990.0 6.7414e-07
3010.0 6.9225e-07
3030.0 7.1167e-07
3050.0 7.32e-07
3070.0 7.5253e-07
3090.0 7.7445e-07
3110.0 7.9797e-07
3130.0 8.2336e-07
3150.0 8.4909e-07
3170.0 8.8418e-07
3190.0 9.3083e-07
3210.0 9.9352e-07
3230.0 1.0801e-06
3250.0 1.1986e-06
3270.0 1.3231e-06
3290.0 1.5013e-06
3310.0 1.8275e-06
3330.0 1.941e-06
3350.0 2.0003e-06
3370.0 2.0581e-06
3390.0 2.1165e-06
3410.0 2.174e-06
3430.0 2.2306e-06
3450.0 2.2869e-06
3470.0 2.3429e-06
3490.0 2.3945e-06
3510.0 2.4315e-06
3530.0 2.399e-06
3550.0 2.3349e-06
3570.0 2.3852e-06
3590.0 2.5775e-06
3610.0 2.8249e-06
3630.0 2.9731e-06
3650.0 2.8729e-06
3670.0 2.6178e-06
3690.0 2.4463e-06
3710.0 2.4503e-06
3730.0 2.5309e-06
3750.0 2.5772e-06
3770.0 2.664e-06
3790.0 2.7601e-06
3810.0 2.7411e-06
3830.0 2.5514e-06
3850.0 2.3674e-06
3870.0 2.2778e-06
3890.0 2.2696e-06
3910.0 2.233e-06
3930.0 2.2083e-06
3950.0 2.2764e-06
3970.0 2.3557e-06
3990.0 2.3706e-06
4010.0 2.2954e-06
4030.0 2.1704e-06
4050.0 2.0861e-06
4070.0 2.0149e-06
4090.0 1.9634e-06
4110.0 1.8996e-06
4130.0 1.7894e-06
4150.0 1.674e-06
4170.0 1.6053e-06
4190.0 1.5046e-06
4210.0 1.3598e-06
4230.0 1.2152e-06
4250.0 1.0743e-06
4270.0 9.6475e-07
4290.0 8.9341e-07
4310.0 8.5364e-07
4330.0 8.5157e-07
4350.0 8.7007e-07
4370.0 8.7814e-07
4390.0 9.1941e-07
4410.0 9.4724e-07
4430.0 9.2384e-07
4450.0 8.3512e-07
4470.0 7.5319e-07
4490.0 7.1293e-07
4510.0 6.8431e-07
4530.0 6.6909e-07
4550.0 6.5507e-07
4570.0 6.5138e-07
4590.0 6.6051e-07
4610.0 6.7248e-07
4630.0 6.7949e-07
4650.0 6.7955e-07
4670.0 6.6324e-07
4690.0 6.1971e-07
4710.0 5.7856e-07
4730.0 5.4855e-07
4750.0 5.3077e-07
4770.0 5.3529e-07
4790.0 5.3295e-07
4810.0 5.2174e-07
4830.0 5.2687e-07
4850.0 5.4157e-07
4870.0 5.4817e-07
4890.0 5.3894e-07
4910.0 5.2277e-07
4930.0 4.9209e-07
4950.0 4.5311e-07
4970.0 4.2291e-07
4990.0 3.9811e-07
5010.0 3.9366e-07
5030.0 4.0669e-07
5050.0 4.1656e-07
5070.0 4.3237e-07
5090.0 4.5837e-07
5110.0 4.6483e-07
5130.0 4.6918e-07
5150.0 4.7691e-07
5170.0 4.8275e-07
5190.0 4.9518e-07
5210.0 4.9732e-07
5230.0 4.9272e-07
5250.0 4.9528e-07
5270.0 5.011e-07
5290.0 5.0194e-07
5310.0 4.9858e-07
5330.0 4.8867e-07
5350.0 4.8395e-07
5370.0 4.7834e-07
5390.0 4.7088e-07
5410.0 4.6609e-07
5430.0 4.6458e-07
5450.0 4.7303e-07
5470.0 4.8188e-07
5490.0 5.013e-07
5510.0 5.1587e-07
5530.0 5.2259e-07
5550.0 5.2837e-07
5570.0 5.3342e-07
5590.0 5.2783e-07
5610.0 5.2449e-07
5630.0 5.2626e-07
5650.0 5.207e-07
5670.0 5.0937e-07
5690.0 4.9641e-07
5710.0 4.9134e-07
5730.0 4.9848e-07
5750.0 4.7809e-07
5770.0 4.5286e-07
5790.0 4.225e-07
5810.0 3.753e-07
5830.0 4.0038e-07
5850.0 4.3444e-07
5870.0 4.4006e-07
5890.0 4.4204e-07
5910.0 4.4981e-07
5930.0 4.4733e-07
5950.0 4.4197e-07
5970.0 4.3715e-07
5990.0 4.3329e-07
6010.0 4.1934e-07
6030.0 4.0649e-07
6050.0 3.998e-07
6070.0 3.9441e-07
6090.0 3.9089e-07
6110.0 3.796e-07
6130.0 3.6527e-07
6150.0 3.5154e-07
6170.0 3.384e-07
6190.0 3.1773e-07
6210.0 3.076e-07
6230.0 3.0513e-07
6250.0 2.9865e-07
6270.0 2.9246e-07
6290.0 2.9265e-07
6310.0 2.939e-07
6330.0 2.8829e-07
6350.0 2.7866e-07
6370.0 2.7469e-07
6390.0 2.6612e-07
6410.0 2.603e-07
6430.0 2.5193e-07
6450.0 2.4756e-07
6470.0 2.4353e-07
6490.0 2.4066e-07
6510.0 2.3363e-07
6530.0 2.2871e-07
6550.0 2.2374e-07
6570.0 2.1866e-07
6590.0 2.2021e-07
6610.0 2.1912e-07
6630.0 2.1251e-07
6650.0 2.0516e-07
6670.0 2.0212e-07
6690.0 1.9847e-07
6710.0 1.9308e-07
6730.0 1.9076e-07
6750.0 1.9224e-07
6770.0 2.0105e-07
6790.0 2.1656e-07
6810.0 2.0734e-07
6830.0 1.8799e-07
6850.0 1.7897e-07
6870.0 1.7632e-07
6890.0 1.7607e-07
6910.0 1.7629e-07
6930.0 1.7595e-07
6950.0 1.7674e-07
6970.0 1.7216e-07
6990.0 1.7062e-07
7010.0 1.7289e-07
7030.0 1.7489e-07
7050.0 1.7248e-07
7070.0 1.6748e-07
7090.0 1.6557e-07
7110.0 1.6978e-07
7130.0 1.7025e-07
7150.0 1.7154e-07
7170.0 1.7238e-07
7190.0 1.7447e-07
7210.0 1.7771e-07
7230.0 1.8224e-07
7250.0 1.8433e-07
7270.0 1.8642e-07
7290.0 1.9052e-07
7310.0 1.9172e-07
7330.0 1.8973e-07
7350.0 1.8531e-07
7370.0 1.8489e-07
7390.0 1.8702e-07
7410.0 1.8394e-07
7430.0 1.868e-07
7450.0 1.8773e-07
7470.0 1.9271e-07
7490.0 1.9224e-07
7510.0 1.8833e-07
7530.0 1.9192e-07
7550.0 1.9243e-07
7570.0 1.9241e-07
7590.0 1.8345e-07
7610.0 1.8528e-07
7630.0 1.9336e-07
7650.0 1.991e-07
7670.0 1.9588e-07
7690.0 2.0564e-07
7710.0 2.1168e-07
7730.0 2.148e-07
7750.0 2.2489e-07
7770.0 2.2132e-07
7790.0 2.1808e-07
7810.0 2.2788e-07
7830.0 2.389e-07
7850.0 2.4091e-07
7870.0 2.4878e-07
7890.0 2.486e-07
7910.0 2.4693e-07
7930.0 2.4756e-07
7950.0 2.5971e-07
7970.0 2.5893e-07
7990.0 2.416e-07
8010.0 1.9261e-07
8030.0 1.9994e-07
8050.0 2.0615e-07
8070.0 1.827e-07
8090.0 1.0383e-07
8110.0 1.1284e-07
8130.0 1.7681e-07
8150.0 1.9019e-07
8170.0 1.973e-07
8190.0 1.9899e-07
8210.0 1.9942e-07
8230.0 2.2112e-07
8250.0 2.2809e-07
8270.0 2.1068e-07
8290.0 1.9988e-07
8310.0 1.9952e-07
8330.0 2.1702e-07
8350.0 2.2751e-07
8370.0 2.2055e-07
8390.0 2.0965e-07
8410.0 2.0996e-07
8430.0 1.9558e-07
8450.0 2.036e-07
8470.0 2.2209e-07
8490.0 2.2275e-07
8510.0 2.0691e-07
8530.0 1.8928e-07
8550.0 1.7987e-07
8570.0 1.7188e-07
8590.0 1.7665e-07
8610.0 1.9088e-07
8630.0 1.9389e-07
8650.0 1.9761e-07
8670.0 1.897e-07
8690.0 1.8547e-07
8710.0 1.6923e-07
8730.0 1.6442e-07
8750.0 1.7457e-07
8770.0 1.7872e-07
8790.0 1.738e-07
8810.0 1.7724e-07
8830.0 1.8331e-07
8850.0 1.9098e-07
8870.0 1.7793e-07
8890.0 1.6977e-07
8910.0 1.6691e-07
8930.0 1.5207e-07
8950.0 1.4974e-07
8970.0 1.5132e-07
8990.0 1.4431e-07
9010.0 1.3583e-07
9030.0 1.3258e-07
9050.0 1.3136e-07
9070.0 1.3026e-07
9090.0 1.2915e-07
9110.0 1.2803e-07
9130.0 1.2691e-07
9150.0 1.2579e-07
9170.0 1.2467e-07
9190.0 1.2354e-07
9210.0 1.2242e-07
9230.0 1.2129e-07
9250.0 1.2016e-07
9270.0 1.1904e-07
9290.0 1.1792e-07
9310.0 1.1677e-07
9330.0 1.1557e-07
9350.0 1.1438e-07
9370.0 1.132e-07
9390.0 1.1202e-07
9410.0 1.1085e-07
9430.0 1.0969e-07
9450.0 1.0854e-07
9470.0 1.0739e-07
9490.0 1.0625e-07
9510.0 1.0513e-07
9530.0 1.0403e-07
9550.0 1.0293e-07
9570.0 1.0184e-07
9590.0 1.0077e-07
9610.0 9.9643e-08
9630.0 9.8525e-08
9650.0 9.7421e-08
9670.0 9.6336e-08
9690.0 9.5259e-08
9710.0 9.4195e-08
9730.0 9.3149e-08
9750.0 9.2115e-08
9770.0 9.109e-08
9790.0 9.0084e-08
9810.0 8.9093e-08
9830.0 8.8113e-08
9850.0 8.7166e-08
9870.0 8.6255e-08
9890.0 8.5293e-08
9910.0 8.4354e-08
9930.0 8.3444e-08
9950.0 8.2545e-08
9970.0 8.1655e-08
9990.0 8.0781e-08
10010.0 7.9924e-08
10030.0 7.908e-08
10050.0 7.8249e-08
10070.0 7.7432e-08
10090.0 7.6629e-08
10110.0 7.5836e-08
10130.0 7.5056e-08
10150.0 7.4289e-08
10170.0 7.3534e-08
10190.0 7.279e-08
10210.0 7.2059e-08
10230.0 7.1339e-08
10250.0 7.063e-08
10270.0 6.9932e-08
10290.0 6.9247e-08
10310.0 6.857e-08
10330.0 6.7905e-08
10350.0 6.725e-08
10370.0 6.6605e-08
10390.0 6.5961e-08
10410.0 6.5212e-08
10430.0 6.4435e-08
10450.0 6.3965e-08
10470.0 6.3429e-08
10490.0 6.2888e-08
10510.0 6.2341e-08
10530.0 6.1772e-08
10550.0 6.1214e-08
10570.0 6.0672e-08
10590.0 6.0127e-08
10610.0 5.9583e-08
10630.0 5.906e-08
10650.0 5.8543e-08
10670.0 5.8018e-08
10690.0 5.7509e-08
10710.0 5.7014e-08
10730.0 5.6517e-08
10750.0 5.6016e-08
10770.0 5.5543e-08
10790.0 5.5072e-08
10810.0 5.4596e-08
10830.0 5.4133e-08
10850.0 5.3686e-08
10870.0 5.3226e-08
10890.0 5.2772e-08
10910.0 5.2337e-08
10930.0 5.1905e-08
10950.0 5.1468e-08
10970.0 5.1045e-08
10990.0 5.0639e-08
11010.0 7.5496e-08
11030.0 7.4951e-08
11050.0 7.44e-08
11070.0 7.383e-08
11090.0 7.3221e-08
11110.0 7.2623e-08
11130.0 7.2022e-08
11150.0 7.1399e-08
11170.0 7.0767e-08
11190.0 7.0153e-08
11210.0 6.9524e-08
11230.0 6.8882e-08
11250.0 6.826e-08
11270.0 6.7652e-08
11290.0 6.7036e-08
11310.0 6.6436e-08
11330.0 6.588e-08
11350.0 6.5334e-08
11370.0 6.4803e-08
11390.0 6.4308e-08
11410.0 6.3841e-08
11430.0 6.3376e-08
11450.0 6.2937e-08
11470.0 6.2523e-08
11490.0 6.2115e-08
11510.0 6.1705e-08
11530.0 6.1314e-08
11550.0 6.0927e-08
11570.0 6.0528e-08
11590.0 6.0128e-08
11610.0 5.9733e-08
11630.0 5.932e-08
11650.0 5.8891e-08
11670.0 5.847e-08
11690.0 5.8042e-08
11710.0 5.7595e-08
11730.0 5.7146e-08
11750.0 5.6707e-08
11770.0 5.6252e-08
11790.0 5.579e-08
11810.0 5.5342e-08
11830.0 5.4897e-08
11850.0 5.4438e-08
11870.0 5.3999e-08
11890.0 5.3581e-08
11910.0 5.3165e-08
11930.0 5.2759e-08
11950.0 5.2383e-08
11970.0 5.2022e-08
11990.0 5.1668e-08
12010.0 5.1342e-08
12030.0 5.1043e-08
12050.0 5.0758e-08
12070.0 5.0489e-08
12090.0 5.0254e-08
12110.0 5.0034e-08
12130.0 4.9829e-08
12150.0 4.9643e-08
12170.0 4.9474e-08
12190.0 4.9309e-08
12210.0 4.9153e-08
12230.0 4.9004e-08
12250.0 4.8855e-08
12270.0 4.8699e-08
12290.0 4.8537e-08
12310.0 4.8368e-08
12330.0 4.8179e-08
12350.0 4.7973e-08
12370.0 4.7752e-08
12390.0 4.7509e-08
12410.0 4.7231e-08
12430.0 4.6944e-08
12450.0 4.6637e-08
12470.0 4.6301e-08
12490.0 4.5944e-08
12510.0 4.5585e-08
12530.0 4.5199e-08
12550.0 4.4791e-08
12570.0 4.4382e-08
12590.0 4.3969e-08
12610.0 4.3533e-08
12630.0 4.3092e-08
12650.0 4.2672e-08
12670.0 4.2241e-08
12690.0 4.1805e-08
12710.0 4.1389e-08
12730.0 4.0985e-08
12750.0 4.057e-08
12770.0 4.0177e-08
12790.0 3.9809e-08
12810.0 3.9449e-08
12830.0 3.9098e-08
12850.0 3.878e-08
12870.0 3.8483e-08
12890.0 3.8195e-08
12910.0 3.7934e-08
12930.0 3.7702e-08
12950.0 3.7484e-08
12970.0 3.7288e-08
12990.0 3.7125e-08
13010.0 3.6985e-08
13030.0 3.6866e-08
13050.0 3.6771e-08
13070.0 3.67e-08
13090.0 3.6645e-08
13110.0 3.6606e-08
13130.0 3.658e-08
13150.0 3.6561e-08
13170.0 3.6546e-08
13190.0 3.6528e-08
13210.0 3.6506e-08
13230.0 3.6472e-08
13250.0 3.6425e-08
13270.0 3.6363e-08
13290.0 3.6283e-08
13310.0 3.618e-08
13330.0 3.6058e-08
13350.0 3.5918e-08
13370.0 3.5753e-08
13390.0 3.5563e-08
13410.0 3.5366e-08
13430.0 3.5147e-08
13450.0 3.4904e-08
13470.0 3.465e-08
13490.0 3.4389e-08
13510.0 3.4098e-08
13530.0 3.3797e-08
13550.0 3.3497e-08
13570.0 3.3184e-08
13590.0 3.2854e-08
13610.0 3.2527e-08
13630.0 3.2204e-08
13650.0 3.1863e-08
13670.0 3.152e-08
13690.0 3.1189e-08
13710.0 3.0851e-08
13730.0 3.0497e-08
13750.0 3.0165e-08
13770.0 2.9839e-08
13790.0 2.9506e-08
13810.0 2.9181e-08
13830.0 2.8876e-08
13850.0 2.8568e-08
13870.0 2.8262e-08
13890.0 2.7975e-08
13910.0 2.77e-08
13930.0 2.7423e-08
13950.0 2.7158e-08
13970.0 2.6916e-08
13990.0 2.6676e-08
14010.0 2.6441e-08
14030.0 2.6225e-08
14050.0 2.6019e-08
14070.0 2.5812e-08
14090.0 2.562e-08
14110.0 2.5444e-08
14130.0 2.5272e-08
14150.0 2.5105e-08
14170.0 2.4955e-08
14190.0 2.4813e-08
14210.0 2.4672e-08
14230.0 2.4539e-08
14250.0 2.4417e-08
14270.0 2.4293e-08
14290.0 2.4171e-08
14310.0 2.4059e-08
14330.0 2.395e-08
14350.0 2.3839e-08
14370.0 2.3733e-08
14390.0 2.3633e-08
14410.0 2.3531e-08
14430.0 2.343e-08
14450.0 2.3335e-08
14470.0 2.324e-08
14490.0 2.3143e-08
14510.0 2.305e-08
14530.0 2.2961e-08
14550.0 2.2869e-08
14570.0 2.2776e-08
14590.0 2.2687e-08
14610.0 2.2596e-08
14630.0 2.25e-08
14650.0 2.2406e-08
14670.0 2.2313e-08
14690.0 2.2216e-08
14710.0 2.2115e-08
14730.0 2.2019e-08
14750.0 2.192e-08
14770.0 2.1815e-08
14790.0 2.1711e-08
14810.0 2.1608e-08
14830.0 2.1496e-08
14850.0 2.1383e-08
14870.0 2.1272e-08
14890.0 2.1159e-08
14910.0 2.1042e-08
14930.0 2.0931e-08
14950.0 2.0827e-08
14970.0 2.0725e-08
14990.0 2.0632e-08
15010.0 2.0552e-08
15030.0 2.0481e-08
15050.0 2.0415e-08
15070.0 2.0361e-08
15090.0 2.0313e-08
15110.0 2.0266e-08
15130.0 2.0222e-08
15150.0 2.0181e-08
15170.0 2.0139e-08
15190.0 2.0097e-08
15210.0 2.0056e-08
15230.0 2.0015e-08
15250.0 1.9972e-08
15270.0 1.9929e-08
15290.0 1.9889e-08
15310.0 1.9847e-08
15330.0 1.9804e-08
15350.0 1.9762e-08
15370.0 1.9721e-08
15390.0 1.9677e-08
15410.0 1.9634e-08
15430.0 1.9592e-08
15450.0 1.9549e-08
15470.0 1.9504e-08
15490.0 1.9462e-08
15510.0 1.9419e-08
15530.0 1.9375e-08
15550.0 1.9331e-08
15570.0 1.9288e-08
15590.0 1.9244e-08
15610.0 1.9198e-08
15630.0 1.9155e-08
15650.0 1.9111e-08
15670.0 1.9065e-08
15690.0 1.902e-08
15710.0 1.8977e-08
15730.0 1.8931e-08
15750.0 1.8885e-08
15770.0 1.884e-08
15790.0 1.8795e-08
15810.0 1.8747e-08
15830.0 1.8701e-08
15850.0 1.8656e-08
15870.0 1.861e-08
15890.0 1.8563e-08
15910.0 1.8517e-08
15930.0 1.8471e-08
15950.0 1.8422e-08
15970.0 1.8376e-08
15990.0 1.8329e-08
16010.0 1.8281e-08
16030.0 1.8232e-08
16050.0 1.8186e-08
16070.0 1.8138e-08
16090.0 1.8089e-08
16110.0 1.8042e-08
16130.0 1.7995e-08
16150.0 1.7945e-08
16170.0 1.7895e-08
16190.0 1.7848e-08
16210.0 1.7799e-08
16230.0 1.7748e-08
16250.0 1.77e-08
16270.0 1.7652e-08
16290.0 1.7601e-08
16310.0 1.7551e-08
16330.0 1.7503e-08
16350.0 1.7453e-08
16370.0 1.7401e-08
16390.0 1.7351e-08
16410.0 1.7302e-08
16430.0 1.7251e-08
16450.0 1.72e-08
16470.0 1.7151e-08
16490.0 1.71e-08
16510.0 1.7048e-08
16530.0 1.6997e-08
16550.0 1.6947e-08
16570.0 1.6895e-08
16590.0 1.6843e-08
16610.0 1.6793e-08
16630.0 1.6741e-08
16650.0 1.6689e-08
16670.0 1.6638e-08
16690.0 1.6587e-08
16710.0 1.6533e-08
16730.0 1.6481e-08
16750.0 1.643e-08
16770.0 1.6378e-08
16790.0 1.6325e-08
16810.0 1.6273e-08
16830.0 1.6222e-08
16850.0 1.6169e-08
16870.0 1.6116e-08
16890.0 1.6065e-08
16910.0 1.6011e-08
16930.0 1.5957e-08
16950.0 1.5906e-08
16970.0 1.5853e-08
16990.0 1.58e-08
17010.0 1.5747e-08
17030.0 1.5695e-08
17050.0 1.5642e-08
17070.0 1.5588e-08
17090.0 1.5536e-08
17110.0 1.5483e-08
17130.0 1.5428e-08
17150.0 1.5375e-08
17170.0 1.5323e-08
17190.0 1.5269e-08
17210.0 1.5216e-08
17230.0 1.5164e-08
17250.0 1.5111e-08
17270.0 1.5056e-08
17290.0 1.5003e-08
17310.0 1.495e-08
17330.0 1.4896e-08
17350.0 1.4841e-08
17370.0 1.479e-08
17390.0 1.4736e-08
17410.0 1.4682e-08
17430.0 1.4629e-08
17450.0 1.4577e-08
17470.0 1.4522e-08
17490.0 1.4468e-08
17510.0 1.4415e-08
17530.0 1.4362e-08
17550.0 1.4307e-08
17570.0 1.4255e-08
17590.0 1.4202e-08
17610.0 1.4148e-08
17630.0 1.4094e-08
17650.0 1.4042e-08
17670.0 1.3989e-08
17690.0 1.3933e-08
17710.0 1.3881e-08
17730.0 1.3828e-08
17750.0 1.3774e-08
17770.0 1.3721e-08
17790.0 1.3669e-08
17810.0 1.3615e-08
17830.0 1.3561e-08
17850.0 1.3508e-08
17870.0 1.3456e-08
17890.0 1.3401e-08
17910.0 1.3347e-08
17930.0 1.3296e-08
17950.0 1.3243e-08
17970.0 1.3189e-08
17990.0 1.3137e-08
18010.0 1.3085e-08
18030.0 1.303e-08
18050.0 1.2977e-08
18070.0 1.2925e-08
18090.0 1.2872e-08
18110.0 1.2818e-08
18130.0 1.2766e-08
18150.0 1.2714e-08
18170.0 1.2661e-08
18190.0 1.2608e-08
18210.0 1.2557e-08
18230.0 1.2503e-08
18250.0 1.2449e-08
18270.0 1.2398e-08
18290.0 1.2346e-08
18310.0 1.2292e-08
18330.0 1.224e-08
18350.0 1.219e-08
18370.0 1.2136e-08
18390.0 1.2084e-08
18410.0 1.2032e-08
18430.0 1.198e-08
18450.0 1.1927e-08
18470.0 1.1875e-08
18490.0 1.1824e-08
18510.0 1.1772e-08
18530.0 1.1719e-08
18550.0 1.1669e-08
18570.0 1.1617e-08
18590.0 1.1564e-08
18610.0 1.1513e-08
18630.0 1.1462e-08
18650.0 1.1409e-08
18670.0 1.1357e-08
18690.0 1.1307e-08
18710.0 1.1256e-08
18730.0 1.1203e-08
18750.0 1.1153e-08
18770.0 1.1102e-08
18790.0 1.1049e-08
18810.0 1.0998e-08
18830.0 1.0948e-08
18850.0 1.0897e-08
18870.0 1.0844e-08
18890.0 1.0794e-08
18910.0 1.0744e-08
18930.0 1.0692e-08
18950.0 1.0641e-08
18970.0 1.0592e-08
18990.0 1.0541e-08
19010.0 1.0488e-08
19030.0 1.0439e-08
19050.0 1.0389e-08
19070.0 1.0337e-08
19090.0 1.0287e-08
19110.0 1.0238e-08
19130.0 1.0187e-08
19150.0 1.0135e-08
19170.0 1.0086e-08
19190.0 1.0036e-08
19210.0 9.9846e-09
19230.0 9.9341e-09
19250.0 9.8855e-09
19270.0 9.8351e-09
19290.0 9.7844e-09
19310.0 9.7355e-09
19330.0 9.6862e-09
19350.0 9.6344e-09
19370.0 9.5847e-09
19390.0 9.5359e-09
19410.0 9.4856e-09
19430.0 9.435e-09
19450.0 9.3866e-09
19470.0 9.3375e-09
19490.0 9.2868e-09
19510.0 9.2375e-09
19530.0 9.1892e-09
19550.0 9.1387e-09
19570.0 9.088e-09
19590.0 9.0398e-09
19610.0 8.9908e-09
19630.0 8.9405e-09
19650.0 8.8916e-09
19670.0 8.8438e-09
19690.0 8.7935e-09
19710.0 8.7438e-09
19730.0 8.6956e-09
19750.0 8.6466e-09
19770.0 8.5958e-09
19790.0 8.5473e-09
19810.0 8.4995e-09
19830.0 8.4499e-09
19850.0 8.4008e-09
19870.0 8.3537e-09
19890.0 8.3055e-09
19910.0 8.257e-09
19930.0 8.212e-09
19950.0 8.1694e-09
19970.0 8.1286e-09
19990.0 8.0922e-09
20010.0 8.0619e-09
20030.0 8.0353e-09
20050.0 8.013e-09
20070.0 7.9954e-09
20090.0 7.981e-09
20110.0 7.9683e-09
20130.0 7.9575e-09
20150.0 7.948e-09
20170.0 7.9387e-09
20190.0 7.9294e-09
20210.0 7.9204e-09
20230.0 7.9111e-09
20250.0 7.9011e-09
20270.0 7.8909e-09
20290.0 7.8804e-09
20310.0 7.8692e-09
20330.0 7.8568e-09
20350.0 7.8447e-09
20370.0 7.8318e-09
20390.0 7.8178e-09
20410.0 7.8035e-09
20430.0 7.7892e-09
20450.0 7.7737e-09
20470.0 7.7578e-09
20490.0 7.7423e-09
20510.0 7.7266e-09
20530.0 7.7103e-09
20550.0 7.6946e-09
20570.0 7.6796e-09
20590.0 7.6644e-09
20610.0 7.6494e-09
20630.0 7.6353e-09
20650.0 7.6213e-09
20670.0 7.6069e-09
20690.0 7.5932e-09
20710.0 7.5796e-09
20730.0 7.5653e-09
20750.0 7.5504e-09
20770.0 7.5356e-09
20790.0 7.5196e-09
20810.0 7.5021e-09
20830.0 7.4838e-09
20850.0 7.4646e-09
20870.0 7.4431e-09
20890.0 7.42e-09
20910.0 7.3967e-09
20930.0 7.3716e-09
20950.0 7.3447e-09
20970.0 7.3174e-09
20990.0 7.2898e-09
21010.0 7.2601e-09
21030.0 7.2302e-09
21050.0 7.201e-09
21070.0 7.1711e-09
21090.0 7.1401e-09
21110.0 7.1108e-09
21130.0 7.0819e-09
21150.0 7.0522e-09
21170.0 7.0229e-09
21190.0 6.9949e-09
21210.0 6.9659e-09
21230.0 6.9364e-09
21250.0 6.9078e-09
21270.0 6.8791e-09
21290.0 6.8491e-09
21310.0 6.8187e-09
21330.0 6.7891e-09
21350.0 6.7577e-09
21370.0 6.7251e-09
21390.0 6.697e-09
21410.0 6.6683e-09
21430.0 6.6371e-09
21450.0 6.6062e-09
21470.0 6.5756e-09
21490.0 6.5434e-09
21510.0 6.5101e-09
21530.0 6.4777e-09
21550.0 6.4447e-09
21570.0 6.4098e-09
21590.0 6.3756e-09
21610.0 6.342e-09
21630.0 6.3072e-09
21650.0 6.2713e-09
21670.0 6.2378e-09
21690.0 6.2039e-09
21710.0 6.1691e-09
21730.0 6.1351e-09
21750.0 6.1025e-09
21770.0 6.0679e-09
21790.0 6.0336e-09
21810.0 6.0008e-09
21830.0 5.9677e-09
21850.0 5.9334e-09
21870.0 5.9002e-09
21890.0 5.8682e-09
21910.0 5.8348e-09
21930.0 5.8016e-09
21950.0 5.7699e-09
21970.0 5.7381e-09
21990.0 5.705e-09
22010.0 5.6742e-09
22030.0 5.6446e-09
22050.0 5.6147e-09
22070.0 5.5846e-09
22090.0 5.5548e-09
22110.0 5.5253e-09
22130.0 5.4964e-09
22150.0 5.4696e-09
22170.0 5.4445e-09
22190.0 5.4194e-09
22210.0 5.3958e-09
22230.0 5.3745e-09
22250.0 5.3536e-09
22270.0 5.3333e-09
22290.0 5.3145e-09
22310.0 5.2966e-09
22330.0 5.2784e-09
22350.0 5.2609e-09
22370.0 5.2441e-09
22390.0 5.2272e-09
22410.0 5.2099e-09
22430.0 5.1933e-09
22450.0 5.1767e-09
22470.0 5.1593e-09
22490.0 5.142e-09
22510.0 5.1251e-09
22530.0 5.1073e-09
22550.0 5.089e-09
22570.0 5.0714e-09
22590.0 5.0538e-09
22610.0 5.0356e-09
