#lamb flux
1010.0 5.7616e-10
1030.0 7.2467e-10
1050.0 8.9543e-10
1070.0 1.0876e-09
1090.0 1.306e-09
1110.0 1.5298e-09
1130.0 1.7551e-09
1150.0 1.9911e-09
1170.0 2.2344e-09
1190.0 2.4651e-09
1210.0 2.6989e-09
1230.0 2.9405e-09
1250.0 3.1772e-09
1270.0 3.407e-09
1290.0 3.6499e-09
1310.0 3.8926e-09
1330.0 4.1254e-09
1350.0 4.3609e-09
1370.0 4.6041e-09
1390.0 4.8413e-09
1410.0 5.0716e-09
1430.0 5.3124e-09
1450.0 5.5533e-09
1470.0 5.7862e-09
1490.0 6.0217e-09
1510.0 6.2705e-09
1530.0 6.5064e-09
1550.0 6.7392e-09
1570.0 6.9802e-09
1590.0 7.2214e-09
1610.0 7.4521e-09
1630.0 7.6899e-09
1650.0 7.9341e-09
1670.0 8.1705e-09
1690.0 8.4041e-09
1710.0 8.6469e-09
1730.0 8.8912e-09
1750.0 9.1213e-09
1770.0 9.3585e-09
1790.0 9.6008e-09
1810.0 9.8358e-09
1830.0 1.0067e-08
1850.0 1.0313e-08
1870.0 1.0553e-08
1890.0 1.0786e-08
1910.0 1.1024e-08
1930.0 1.1268e-08
1950.0 1.1502e-08
1970.0 1.1735e-08
1990.0 1.1977e-08
2010.0 1.2216e-08
2030.0 1.2447e-08
2050.0 1.2687e-08
2070.0 1.2934e-08
2090.0 1.3168e-08
2110.0 1.3403e-08
2130.0 1.3646e-08
2150.0 1.3886e-08
2170.0 1.4117e-08
2190.0 1.4358e-08
2210.0 1.4602e-08
2230.0 1.4839e-08
2250.0 1.5076e-08
2270.0 1.5325e-08
2290.0 1.5569e-08
2310.0 1.5805e-08
2330.0 1.605e-08
2350.0 1.6299e-08
2370.0 1.6539e-08
2390.0 1.6783e-08
2410.0 1.7039e-08
2430.0 1.7292e-08
2450.0 1.755e-08
2470.0 1.7836e-08
2490.0 1.8169e-08
2510.0 1.8553e-08
2530.0 1.905e-08
2550.0 1.9739e-08
2570.0 2.0665e-08
2590.0 2.189e-08
2610.0 2.3641e-08
2630.0 2.5964e-08
2650.0 2.8803e-08
2670.0 3.231e-08
2690.0 3.6556e-08
2710.0 4.121e-08
2730.0 4.6105e-08
2750.0 5.1402e-08
2770.0 5.666e-08
2790.0 6.155e-08
2810.0 6.6144e-08
2830.0 7.0446e-08
2850.0 7.406e-08
2870.0 7.726e-08
2890.0 8.0239e-08
2910.0 8.3023e-08
2930.0 8.5664e-08
2950.0 8.8378e-08
2970.0 9.1199e-08
2990.0 9.408e-08
3010.0 9.708e-08
3030.0 1.0028e-07
3050.0 1.0364e-07
3070.0 1.0706e-07
3090.0 1.1067e-07
3110.0 1.1452e-07
3130.0 1.1866e-07
3150.0 1.2335e-07
3170.0 1.2934e-07
3190.0 1.3714e-07
3210.0 1.4735e-07
3230.0 1.6094e-07
3250.0 1.782e-07
3270.0 1.9463e-07
3290.0 2.2069e-07
3310.0 2.7408e-07
3330.0 2.9182e-07
3350.0 3.0055e-07
3370.0 3.0893e-07
3390.0 3.1746e-07
3410.0 3.2608e-07
3430.0 3.3477e-07
3450.0 3.4345e-07
3470.0 3.5199e-07
3490.0 3.6021e-07
3510.0 3.6767e-07
3530.0 3.6439e-07
3550.0 3.5433e-07
3570.0 3.5954e-07
3590.0 3.8222e-07
3610.0 4.1657e-07
3630.0 4.3023e-07
3650.0 4.1324e-07
3670.0 3.7954e-07
3690.0 3.5995e-07
3710.0 3.6449e-07
3730.0 3.7649e-07
3750.0 3.8293e-07
3770.0 3.9583e-07
3790.0 4.1024e-07
3810.0 4.0442e-07
3830.0 3.769e-07
3850.0 3.5228e-07
3870.0 3.4059e-07
3890.0 3.367e-07
3910.0 3.2915e-07
3930.0 3.2534e-07
3950.0 3.3451e-07
3970.0 3.4524e-07
3990.0 3.4836e-07
4010.0 3.3557e-07
4030.0 3.1731e-07
4050.0 3.0557e-07
4070.0 2.9564e-07
4090.0 2.876e-07
4110.0 2.7709e-07
4130.0 2.6052e-07
4150.0 2.4385e-07
4170.0 2.3396e-07
4190.0 2.1817e-07
4210.0 1.975e-07
4230.0 1.7659e-07
4250.0 1.5673e-07
4270.0 1.4191e-07
4290.0 1.3094e-07
4310.0 1.2514e-07
4330.0 1.2493e-07
4350.0 1.2555e-07
4370.0 1.2675e-07
4390.0 1.3143e-07
4410.0 1.3467e-07
4430.0 1.3e-07
4450.0 1.1804e-07
4470.0 1.0758e-07
4490.0 1.0189e-07
4510.0 9.8238e-08
4530.0 9.6412e-08
4550.0 9.4845e-08
4570.0 9.4446e-08
4590.0 9.5743e-08
4610.0 9.8683e-08
4630.0 1.0044e-07
4650.0 1.013e-07
4670.0 9.8839e-08
4690.0 9.2958e-08
4710.0 8.71e-08
4730.0 8.3306e-08
4750.0 8.0975e-08
4770.0 8.1266e-08
4790.0 8.0949e-08
4810.0 7.9213e-08
4830.0 7.9372e-08
4850.0 8.1847e-08
4870.0 8.2663e-08
4890.0 8.1175e-08
4910.0 7.9293e-08
4930.0 7.4778e-08
4950.0 6.8264e-08
4970.0 6.3803e-08
4990.0 6.0143e-08
5010.0 5.9359e-08
5030.0 6.1359e-08
5050.0 6.2932e-08
5070.0 6.5284e-08
5090.0 6.923e-08
5110.0 7.0285e-08
5130.0 7.0898e-08
5150.0 7.2205e-08
5170.0 7.2813e-08
5190.0 7.4722e-08
5210.0 7.511e-08
5230.0 7.4336e-08
5250.0 7.4937e-08
5270.0 7.5981e-08
5290.0 7.6187e-08
5310.0 7.5618e-08
5330.0 7.4182e-08
5350.0 7.3171e-08
5370.0 7.2393e-08
5390.0 7.1433e-08
5410.0 7.064e-08
5430.0 7.0616e-08
5450.0 7.1651e-08
5470.0 7.2982e-08
5490.0 7.5051e-08
5510.0 7.7324e-08
5530.0 7.8278e-08
5550.0 7.9444e-08
5570.0 7.9614e-08
5590.0 7.7965e-08
5610.0 7.7399e-08
5630.0 7.7983e-08
5650.0 7.7039e-08
5670.0 7.5333e-08
5690.0 7.3077e-08
5710.0 7.2884e-08
5730.0 7.3653e-08
5750.0 7.0515e-08
5770.0 6.6897e-08
5790.0 6.1501e-08
5810.0 5.3797e-08
5830.0 5.7993e-08
5850.0 6.4202e-08
5870.0 6.5593e-08
5890.0 6.5945e-08
5910.0 6.6484e-08
5930.0 6.6344e-08
5950.0 6.5246e-08
5970.0 6.4466e-08
5990.0 6.3537e-08
6010.0 6.1602e-08
6030.0 5.9491e-08
6050.0 5.8562e-08
6070.0 5.8298e-08
6090.0 5.7413e-08
6110.0 5.55e-08
6130.0 5.3611e-08
6150.0 5.146e-08
6170.0 4.9309e-08
6190.0 4.7099e-08
6210.0 4.5437e-08
6230.0 4.4777e-08
6250.0 4.3828e-08
6270.0 4.2912e-08
6290.0 4.2579e-08
6310.0 4.2303e-08
6330.0 4.1373e-08
6350.0 4.0029e-08
6370.0 3.9263e-08
6390.0 3.8489e-08
6410.0 3.7416e-08
6430.0 3.6402e-08
6450.0 3.5601e-08
6470.0 3.4839e-08
6490.0 3.4309e-08
6510.0 3.3715e-08
6530.0 3.2859e-08
6550.0 3.2132e-08
6570.0 3.1636e-08
6590.0 3.1584e-08
6610.0 3.1385e-08
6630.0 3.0335e-08
6650.0 2.9478e-08
6670.0 2.9172e-08
6690.0 2.8713e-08
6710.0 2.8024e-08
6730.0 2.7776e-08
6750.0 2.7992e-08
6770.0 2.9656e-08
6790.0 3.3144e-08
6810.0 3.1473e-08
6830.0 2.7645e-08
6850.0 2.6553e-08
6870.0 2.6147e-08
6890.0 2.615e-08
6910.0 2.6206e-08
6930.0 2.6265e-08
6950.0 2.6184e-08
6970.0 2.552e-08
6990.0 2.5289e-08
7010.0 2.5666e-08
7030.0 2.5786e-08
7050.0 2.5412e-08
7070.0 2.5155e-08
7090.0 2.5319e-08
7110.0 2.5908e-08
7130.0 2.5993e-08
7150.0 2.6089e-08
7170.0 2.6228e-08
7190.0 2.6592e-08
7210.0 2.6879e-08
7230.0 2.7168e-08
7250.0 2.753e-08
7270.0 2.7788e-08
7290.0 2.8226e-08
7310.0 2.8747e-08
7330.0 2.8524e-08
7350.0 2.7926e-08
7370.0 2.7546e-08
7390.0 2.7479e-08
7410.0 2.7593e-08
7430.0 2.7937e-08
7450.0 2.811e-08
7470.0 2.8509e-08
7490.0 2.8345e-08
7510.0 2.8037e-08
7530.0 2.8366e-08
7550.0 2.9245e-08
7570.0 2.9172e-08
7590.0 2.7665e-08
7610.0 2.7435e-08
7630.0 2.899e-08
7650.0 2.957e-08
7670.0 2.977e-08
7690.0 3.1095e-08
7710.0 3.21e-08
7730.0 3.2409e-08
7750.0 3.4099e-08
7770.0 3.3226e-08
7790.0 3.2437e-08
7810.0 3.4365e-08
7830.0 3.5682e-08
7850.0 3.6576e-08
7870.0 3.7295e-08
7890.0 3.7583e-08
7910.0 3.7306e-08
7930.0 3.7564e-08
7950.0 3.9259e-08
7970.0 3.925e-08
7990.0 3.6559e-08
8010.0 3.5078e-08
8030.0 3.578e-08
8050.0 3.6546e-08
8070.0 3.3061e-08
8090.0 2.1629e-08
8110.0 2.2586e-08
8130.0 3.2252e-08
8150.0 3.4735e-08
8170.0 3.6114e-08
8190.0 3.6898e-08
8210.0 3.6433e-08
8230.0 3.9498e-08
8250.0 4.036e-08
8270.0 3.8167e-08
8290.0 3.6659e-08
8310.0 3.6124e-08
8330.0 3.8096e-08
8350.0 3.9899e-08
8370.0 3.9146e-08
8390.0 3.733e-08
8410.0 3.7294e-08
8430.0 3.4942e-08
8450.0 3.5709e-08
8470.0 3.9021e-08
8490.0 3.9139e-08
8510.0 3.6293e-08
8530.0 3.4014e-08
8550.0 3.2604e-08
8570.0 3.0728e-08
8590.0 3.1607e-08
8610.0 3.3538e-08
8630.0 3.4437e-08
8650.0 3.5033e-08
8670.0 3.4071e-08
8690.0 3.3277e-08
8710.0 3.0951e-08
8730.0 2.984e-08
8750.0 3.1059e-08
8770.0 3.1545e-08
8790.0 3.1447e-08
8810.0 3.1297e-08
8830.0 3.1964e-08
8850.0 3.3564e-08
8870.0 3.1342e-08
8890.0 2.9561e-08
8910.0 2.9125e-08
8930.0 2.7377e-08
8950.0 2.6375e-08
8970.0 2.6363e-08
8990.0 2.5236e-08
9010.0 2.3691e-08
9030.0 2.3153e-08
9050.0 2.296e-08
9070.0 2.2789e-08
9090.0 2.2616e-08
9110.0 2.2442e-08
9130.0 2.2267e-08
9150.0 2.2091e-08
9170.0 2.1915e-08
9190.0 2.1739e-08
9210.0 2.1562e-08
9230.0 2.1385e-08
9250.0 2.1208e-08
9270.0 2.1032e-08
9290.0 2.0855e-08
9310.0 2.0679e-08
9330.0 2.0504e-08
9350.0 2.0329e-08
9370.0 2.0155e-08
9390.0 1.9982e-08
9410.0 1.9809e-08
9430.0 1.9638e-08
9450.0 1.9467e-08
9470.0 1.9298e-08
9490.0 1.913e-08
9510.0 1.8963e-08
9530.0 1.8798e-08
9550.0 1.8634e-08
9570.0 1.8471e-08
9590.0 1.8309e-08
9610.0 1.8149e-08
9630.0 1.7991e-08
9650.0 1.7834e-08
9670.0 1.7679e-08
9690.0 1.7525e-08
9710.0 1.7373e-08
9730.0 1.7223e-08
9750.0 1.7074e-08
9770.0 1.6927e-08
9790.0 1.6782e-08
9810.0 1.6638e-08
9830.0 1.6496e-08
9850.0 1.6355e-08
9870.0 1.6217e-08
9890.0 1.608e-08
9910.0 1.5944e-08
9930.0 1.5811e-08
9950.0 1.5679e-08
9970.0 1.5548e-08
9990.0 1.542e-08
10010.0 1.5292e-08
10030.0 1.5167e-08
10050.0 1.5043e-08
10070.0 1.4921e-08
10090.0 1.48e-08
10110.0 1.4681e-08
10130.0 1.4564e-08
10150.0 1.4448e-08
10170.0 1.4333e-08
10190.0 1.422e-08
10210.0 1.4109e-08
10230.0 1.3998e-08
10250.0 1.389e-08
10270.0 1.3783e-08
10290.0 1.3677e-08
10310.0 1.3572e-08
10330.0 1.3469e-08
10350.0 1.3367e-08
10370.0 1.3267e-08
10390.0 1.3166e-08
10410.0 1.3048e-08
10430.0 1.2924e-08
10450.0 1.2851e-08
10470.0 1.2767e-08
10490.0 1.2682e-08
10510.0 1.2595e-08
10530.0 1.2505e-08
10550.0 1.2416e-08
10570.0 1.2329e-08
10590.0 1.2241e-08
10610.0 1.2154e-08
10630.0 1.207e-08
10650.0 1.1986e-08
10670.0 1.1901e-08
10690.0 1.1818e-08
10710.0 1.1738e-08
10730.0 1.1657e-08
10750.0 1.1575e-08
10770.0 1.1497e-08
10790.0 1.142e-08
10810.0 1.1342e-08
10830.0 1.1265e-08
10850.0 1.1191e-08
10870.0 1.1115e-08
10890.0 1.104e-08
10910.0 1.0967e-08
10930.0 1.0893e-08
10950.0 1.0818e-08
10970.0 1.0744e-08
10990.0 1.0671e-08
11010.0 1.0591e-08
11030.0 1.0514e-08
11050.0 1.0437e-08
11070.0 1.0359e-08
11090.0 1.0277e-08
11110.0 1.0197e-08
11130.0 1.0117e-08
11150.0 1.0034e-08
11170.0 9.9497e-09
11190.0 9.8683e-09
11210.0 9.7849e-09
11230.0 9.6996e-09
11250.0 9.6171e-09
11270.0 9.5368e-09
11290.0 9.4552e-09
11310.0 9.3759e-09
11330.0 9.3029e-09
11350.0 9.2313e-09
11370.0 9.1617e-09
11390.0 9.0972e-09
11410.0 9.0366e-09
11430.0 8.9762e-09
11450.0 8.9194e-09
11470.0 8.8661e-09
11490.0 8.8134e-09
11510.0 8.7605e-09
11530.0 8.7101e-09
11550.0 8.6602e-09
11570.0 8.6083e-09
11590.0 8.5563e-09
11610.0 8.5049e-09
11630.0 8.4509e-09
11650.0 8.3944e-09
11670.0 8.3391e-09
11690.0 8.2827e-09
11710.0 8.2235e-09
11730.0 8.1641e-09
11750.0 8.1062e-09
11770.0 8.0458e-09
11790.0 7.9846e-09
11810.0 7.9254e-09
11830.0 7.8667e-09
11850.0 7.8059e-09
11870.0 7.7479e-09
11890.0 7.6931e-09
11910.0 7.6384e-09
11930.0 7.5852e-09
11950.0 7.5362e-09
11970.0 7.4891e-09
11990.0 7.4429e-09
12010.0 7.4007e-09
12030.0 7.3621e-09
12050.0 7.3253e-09
12070.0 7.2906e-09
12090.0 7.2606e-09
12110.0 7.2326e-09
12130.0 7.2062e-09
12150.0 7.1825e-09
12170.0 7.161e-09
12190.0 7.1398e-09
12210.0 7.1196e-09
12230.0 7.1003e-09
12250.0 7.0807e-09
12270.0 7.0598e-09
12290.0 7.0379e-09
12310.0 7.015e-09
12330.0 6.9888e-09
12350.0 6.9599e-09
12370.0 6.929e-09
12390.0 6.8947e-09
12410.0 6.8552e-09
12430.0 6.8143e-09
12450.0 6.7708e-09
12470.0 6.7228e-09
12490.0 6.672e-09
12510.0 6.6208e-09
12530.0 6.566e-09
12550.0 6.5079e-09
12570.0 6.45e-09
12590.0 6.3916e-09
12610.0 6.3299e-09
12630.0 6.2678e-09
12650.0 6.2089e-09
12670.0 6.1486e-09
12690.0 6.0878e-09
12710.0 6.03e-09
12730.0 5.9741e-09
12750.0 5.9169e-09
12770.0 5.863e-09
12790.0 5.8128e-09
12810.0 5.7638e-09
12830.0 5.7164e-09
12850.0 5.6738e-09
12870.0 5.6342e-09
12890.0 5.5962e-09
12910.0 5.562e-09
12930.0 5.5319e-09
12950.0 5.5039e-09
12970.0 5.4791e-09
12990.0 5.4588e-09
13010.0 5.4417e-09
13030.0 5.4275e-09
13050.0 5.4168e-09
13070.0 5.4091e-09
13090.0 5.4035e-09
13110.0 5.4e-09
13130.0 5.398e-09
13150.0 5.3967e-09
13170.0 5.3955e-09
13190.0 5.3938e-09
13210.0 5.3908e-09
13230.0 5.386e-09
13250.0 5.3786e-09
13270.0 5.3689e-09
13290.0 5.3561e-09
13310.0 5.3395e-09
13330.0 5.32e-09
13350.0 5.2976e-09
13370.0 5.2713e-09
13390.0 5.2411e-09
13410.0 5.2099e-09
13430.0 5.1754e-09
13450.0 5.1373e-09
13470.0 5.0977e-09
13490.0 5.0572e-09
13510.0 5.0121e-09
13530.0 4.9658e-09
13550.0 4.9197e-09
13570.0 4.8717e-09
13590.0 4.8212e-09
13610.0 4.7713e-09
13630.0 4.7221e-09
13650.0 4.6701e-09
13670.0 4.6181e-09
13690.0 4.5677e-09
13710.0 4.5165e-09
13730.0 4.463e-09
13750.0 4.413e-09
13770.0 4.364e-09
13790.0 4.3141e-09
13810.0 4.2655e-09
13830.0 4.2202e-09
13850.0 4.1745e-09
13870.0 4.1294e-09
13890.0 4.0873e-09
13910.0 4.0471e-09
13930.0 4.0067e-09
13950.0 3.9681e-09
13970.0 3.9329e-09
13990.0 3.898e-09
14010.0 3.864e-09
14030.0 3.8325e-09
14050.0 3.8027e-09
14070.0 3.7725e-09
14090.0 3.7446e-09
14110.0 3.7188e-09
14130.0 3.6937e-09
14150.0 3.6692e-09
14170.0 3.6471e-09
14190.0 3.626e-09
14210.0 3.6051e-09
14230.0 3.5854e-09
14250.0 3.5671e-09
14270.0 3.5486e-09
14290.0 3.5304e-09
14310.0 3.5136e-09
14330.0 3.497e-09
14350.0 3.4802e-09
14370.0 3.4641e-09
14390.0 3.4488e-09
14410.0 3.4331e-09
14430.0 3.4175e-09
14450.0 3.4027e-09
14470.0 3.388e-09
14490.0 3.3727e-09
14510.0 3.358e-09
14530.0 3.3439e-09
14550.0 3.3292e-09
14570.0 3.3144e-09
14590.0 3.3002e-09
14610.0 3.2856e-09
14630.0 3.2703e-09
14650.0 3.2554e-09
14670.0 3.2405e-09
14690.0 3.225e-09
14710.0 3.209e-09
14730.0 3.1938e-09
14750.0 3.178e-09
14770.0 3.1615e-09
14790.0 3.1452e-09
14810.0 3.129e-09
14830.0 3.1114e-09
14850.0 3.0938e-09
14870.0 3.0766e-09
14890.0 3.0589e-09
14910.0 3.0409e-09
14930.0 3.0237e-09
14950.0 3.0076e-09
14970.0 2.9916e-09
14990.0 2.9771e-09
15010.0 2.9645e-09
15030.0 2.953e-09
15050.0 2.9424e-09
15070.0 2.9335e-09
15090.0 2.9253e-09
15110.0 2.9175e-09
15130.0 2.91e-09
15150.0 2.903e-09
15170.0 2.8958e-09
15190.0 2.8886e-09
15210.0 2.8816e-09
15230.0 2.8746e-09
15250.0 2.8674e-09
15270.0 2.8602e-09
15290.0 2.8534e-09
15310.0 2.8463e-09
15330.0 2.8391e-09
15350.0 2.8322e-09
15370.0 2.8253e-09
15390.0 2.818e-09
15410.0 2.8109e-09
15430.0 2.804e-09
15450.0 2.7969e-09
15470.0 2.7896e-09
15490.0 2.7827e-09
15510.0 2.7758e-09
15530.0 2.7686e-09
15550.0 2.7615e-09
15570.0 2.7546e-09
15590.0 2.7475e-09
15610.0 2.7402e-09
15630.0 2.7333e-09
15650.0 2.7263e-09
15670.0 2.7191e-09
15690.0 2.7121e-09
15710.0 2.7052e-09
15730.0 2.6981e-09
15750.0 2.6909e-09
15770.0 2.684e-09
15790.0 2.677e-09
15810.0 2.6697e-09
15830.0 2.6626e-09
15850.0 2.6557e-09
15870.0 2.6486e-09
15890.0 2.6415e-09
15910.0 2.6346e-09
15930.0 2.6276e-09
15950.0 2.6203e-09
15970.0 2.6133e-09
15990.0 2.6064e-09
16010.0 2.5992e-09
16030.0 2.592e-09
16050.0 2.5852e-09
16070.0 2.5781e-09
16090.0 2.571e-09
16110.0 2.564e-09
16130.0 2.5571e-09
16150.0 2.5498e-09
16170.0 2.5427e-09
16190.0 2.5358e-09
16210.0 2.5287e-09
16230.0 2.5215e-09
16250.0 2.5145e-09
16270.0 2.5077e-09
16290.0 2.5005e-09
16310.0 2.4934e-09
16330.0 2.4865e-09
16350.0 2.4794e-09
16370.0 2.4721e-09
16390.0 2.4651e-09
16410.0 2.4582e-09
16430.0 2.4511e-09
16450.0 2.444e-09
16470.0 2.4371e-09
16490.0 2.43e-09
16510.0 2.4228e-09
16530.0 2.4158e-09
16550.0 2.4089e-09
16570.0 2.4016e-09
16590.0 2.3945e-09
16610.0 2.3877e-09
16630.0 2.3806e-09
16650.0 2.3734e-09
16670.0 2.3665e-09
16690.0 2.3596e-09
16710.0 2.3523e-09
16730.0 2.3452e-09
16750.0 2.3383e-09
16770.0 2.3312e-09
16790.0 2.324e-09
16810.0 2.3171e-09
16830.0 2.3101e-09
16850.0 2.3029e-09
16870.0 2.2959e-09
16890.0 2.289e-09
16910.0 2.2819e-09
16930.0 2.2746e-09
16950.0 2.2677e-09
16970.0 2.2607e-09
16990.0 2.2535e-09
17010.0 2.2465e-09
17030.0 2.2397e-09
17050.0 2.2325e-09
17070.0 2.2253e-09
17090.0 2.2184e-09
17110.0 2.2114e-09
17130.0 2.2041e-09
17150.0 2.1971e-09
17170.0 2.1902e-09
17190.0 2.1831e-09
17210.0 2.1759e-09
17230.0 2.1691e-09
17250.0 2.1621e-09
17270.0 2.1548e-09
17290.0 2.1478e-09
17310.0 2.1409e-09
17330.0 2.1337e-09
17350.0 2.1265e-09
17370.0 2.1196e-09
17390.0 2.1126e-09
17410.0 2.1054e-09
17430.0 2.0985e-09
17450.0 2.0916e-09
17470.0 2.0843e-09
17490.0 2.0772e-09
17510.0 2.0703e-09
17530.0 2.0632e-09
17550.0 2.056e-09
17570.0 2.0491e-09
17590.0 2.0422e-09
17610.0 2.035e-09
17630.0 2.0279e-09
17650.0 2.021e-09
17670.0 2.0139e-09
17690.0 2.0066e-09
17710.0 1.9997e-09
17730.0 1.9927e-09
17750.0 1.9856e-09
17770.0 1.9785e-09
17790.0 1.9717e-09
17810.0 1.9645e-09
17830.0 1.9573e-09
17850.0 1.9504e-09
17870.0 1.9434e-09
17890.0 1.9362e-09
17910.0 1.929e-09
17930.0 1.9222e-09
17950.0 1.9151e-09
17970.0 1.908e-09
17990.0 1.901e-09
18010.0 1.8941e-09
18030.0 1.8868e-09
18050.0 1.8797e-09
18070.0 1.8728e-09
18090.0 1.8657e-09
18110.0 1.8585e-09
18130.0 1.8516e-09
18150.0 1.8447e-09
18170.0 1.8375e-09
18190.0 1.8304e-09
18210.0 1.8236e-09
18230.0 1.8164e-09
18250.0 1.8091e-09
18270.0 1.8022e-09
18290.0 1.7952e-09
18310.0 1.788e-09
18330.0 1.781e-09
18350.0 1.7742e-09
18370.0 1.767e-09
18390.0 1.7599e-09
18410.0 1.7529e-09
18430.0 1.7459e-09
18450.0 1.7386e-09
18470.0 1.7316e-09
18490.0 1.7247e-09
18510.0 1.7176e-09
18530.0 1.7105e-09
18550.0 1.7036e-09
18570.0 1.6966e-09
18590.0 1.6893e-09
18610.0 1.6823e-09
18630.0 1.6754e-09
18650.0 1.6682e-09
18670.0 1.661e-09
18690.0 1.6542e-09
18710.0 1.6472e-09
18730.0 1.64e-09
18750.0 1.633e-09
18770.0 1.6261e-09
18790.0 1.6188e-09
18810.0 1.6117e-09
18830.0 1.6048e-09
18850.0 1.5977e-09
18870.0 1.5905e-09
18890.0 1.5836e-09
18910.0 1.5767e-09
18930.0 1.5695e-09
18950.0 1.5624e-09
18970.0 1.5555e-09
18990.0 1.5484e-09
19010.0 1.5411e-09
19030.0 1.5342e-09
19050.0 1.5273e-09
19070.0 1.5201e-09
19090.0 1.513e-09
19110.0 1.5062e-09
19130.0 1.499e-09
19150.0 1.4918e-09
19170.0 1.4849e-09
19190.0 1.4779e-09
19210.0 1.4707e-09
19230.0 1.4636e-09
19250.0 1.4567e-09
19270.0 1.4496e-09
19290.0 1.4425e-09
19310.0 1.4356e-09
19330.0 1.4286e-09
19350.0 1.4213e-09
19370.0 1.4143e-09
19390.0 1.4073e-09
19410.0 1.4002e-09
19430.0 1.393e-09
19450.0 1.3862e-09
19470.0 1.3792e-09
19490.0 1.372e-09
19510.0 1.365e-09
19530.0 1.3581e-09
19550.0 1.3509e-09
19570.0 1.3436e-09
19590.0 1.3368e-09
19610.0 1.3297e-09
19630.0 1.3226e-09
19650.0 1.3156e-09
19670.0 1.3087e-09
19690.0 1.3015e-09
19710.0 1.2944e-09
19730.0 1.2875e-09
19750.0 1.2804e-09
19770.0 1.2731e-09
19790.0 1.2661e-09
19810.0 1.2593e-09
19830.0 1.2521e-09
19850.0 1.245e-09
19870.0 1.2383e-09
19890.0 1.2313e-09
19910.0 1.2243e-09
19930.0 1.2178e-09
19950.0 1.2117e-09
19970.0 1.2059e-09
19990.0 1.2007e-09
20010.0 1.1964e-09
20030.0 1.1926e-09
20050.0 1.1895e-09
20070.0 1.1871e-09
20090.0 1.1851e-09
20110.0 1.1834e-09
20130.0 1.1819e-09
20150.0 1.1806e-09
20170.0 1.1793e-09
20190.0 1.178e-09
20210.0 1.1767e-09
20230.0 1.1753e-09
20250.0 1.1738e-09
20270.0 1.1723e-09
20290.0 1.1707e-09
20310.0 1.169e-09
20330.0 1.1671e-09
20350.0 1.1652e-09
20370.0 1.1633e-09
20390.0 1.1611e-09
20410.0 1.159e-09
20430.0 1.1568e-09
20450.0 1.1545e-09
20470.0 1.1521e-09
20490.0 1.1498e-09
20510.0 1.1474e-09
20530.0 1.145e-09
20550.0 1.1426e-09
20570.0 1.1404e-09
20590.0 1.1381e-09
20610.0 1.1359e-09
20630.0 1.1338e-09
20650.0 1.1317e-09
20670.0 1.1296e-09
20690.0 1.1276e-09
20710.0 1.1256e-09
20730.0 1.1234e-09
20750.0 1.1212e-09
20770.0 1.119e-09
20790.0 1.1167e-09
20810.0 1.1141e-09
20830.0 1.1114e-09
20850.0 1.1086e-09
20870.0 1.1054e-09
20890.0 1.102e-09
20910.0 1.0986e-09
20930.0 1.095e-09
20950.0 1.091e-09
20970.0 1.0871e-09
20990.0 1.0831e-09
21010.0 1.0788e-09
21030.0 1.0744e-09
21050.0 1.0702e-09
21070.0 1.0659e-09
21090.0 1.0615e-09
21110.0 1.0573e-09
21130.0 1.0532e-09
21150.0 1.049e-09
21170.0 1.0449e-09
21190.0 1.0409e-09
21210.0 1.0369e-09
21230.0 1.0327e-09
21250.0 1.0287e-09
21270.0 1.0247e-09
21290.0 1.0206e-09
21310.0 1.0164e-09
21330.0 1.0123e-09
21350.0 1.0079e-09
21370.0 1.0034e-09
21390.0 9.9895e-10
21410.0 9.944e-10
21430.0 9.8944e-10
21450.0 9.8453e-10
21470.0 9.7966e-10
21490.0 9.7454e-10
21510.0 9.6924e-10
21530.0 9.6408e-10
21550.0 9.5882e-10
21570.0 9.5327e-10
21590.0 9.478e-10
21610.0 9.4243e-10
21630.0 9.3688e-10
21650.0 9.3114e-10
21670.0 9.2578e-10
21690.0 9.2034e-10
21710.0 9.1475e-10
21730.0 9.0929e-10
21750.0 9.0402e-10
21770.0 8.9845e-10
21790.0 8.9293e-10
21810.0 8.8761e-10
21830.0 8.8225e-10
21850.0 8.767e-10
21870.0 8.7131e-10
21890.0 8.661e-10
21910.0 8.6068e-10
21930.0 8.5528e-10
21950.0 8.501e-10
21970.0 8.4489e-10
21990.0 8.395e-10
22010.0 8.3444e-10
22030.0 8.2956e-10
22050.0 8.2463e-10
22070.0 8.1985e-10
22090.0 8.1543e-10
22110.0 8.1108e-10
22130.0 8.068e-10
22150.0 8.0284e-10
22170.0 7.9912e-10
22190.0 7.9543e-10
22210.0 7.9195e-10
22230.0 7.8881e-10
22250.0 7.8575e-10
22270.0 7.8277e-10
22290.0 7.8001e-10
22310.0 7.7739e-10
22330.0 7.7471e-10
22350.0 7.7215e-10
22370.0 7.6971e-10
22390.0 7.6724e-10
22410.0 7.647e-10
22430.0 7.6228e-10
22450.0 7.5986e-10
22470.0 7.5732e-10
22490.0 7.5479e-10
22510.0 7.5232e-10
22530.0 7.4972e-10
22550.0 7.4705e-10
22570.0 7.4448e-10
22590.0 7.4191e-10
22610.0 7.3926e-10
22630.0 7.3667e-10
22650.0 7.3422e-10
