#lamb flux
1010.0 1.4932e-06
1030.0 1.6454e-06
1050.0 1.8206e-06
1070.0 2.0177e-06
1090.0 2.2417e-06
1110.0 2.4714e-06
1130.0 2.7025e-06
1150.0 2.9447e-06
1170.0 3.1945e-06
1190.0 3.4313e-06
1210.0 3.6714e-06
1230.0 3.9195e-06
1250.0 4.1625e-06
1270.0 4.3986e-06
1290.0 4.648e-06
1310.0 4.8972e-06
1330.0 5.1362e-06
1350.0 5.3779e-06
1370.0 5.6274e-06
1390.0 5.8707e-06
1410.0 6.1068e-06
1430.0 6.3535e-06
1450.0 6.6002e-06
1470.0 6.8387e-06
1490.0 7.0796e-06
1510.0 7.3341e-06
1530.0 7.5752e-06
1550.0 7.813e-06
1570.0 8.059e-06
1590.0 8.3051e-06
1610.0 8.5402e-06
1630.0 8.7825e-06
1650.0 9.031e-06
1670.0 9.2713e-06
1690.0 9.5082e-06
1710.0 9.7542e-06
1730.0 1.0001e-05
1750.0 1.0233e-05
1770.0 1.0472e-05
1790.0 1.0715e-05
1810.0 1.0949e-05
1830.0 1.1179e-05
1850.0 1.1423e-05
1870.0 1.1659e-05
1890.0 1.1886e-05
1910.0 1.2117e-05
1930.0 1.2353e-05
1950.0 1.2576e-05
1970.0 1.2795e-05
1990.0 1.3021e-05
2010.0 1.324e-05
2030.0 1.3449e-05
2050.0 1.3663e-05
2070.0 1.388e-05
2090.0 1.408e-05
2110.0 1.4276e-05
2130.0 1.4475e-05
2150.0 1.4666e-05
2170.0 1.4843e-05
2190.0 1.5023e-05
2210.0 1.5199e-05
2230.0 1.5361e-05
2250.0 1.5516e-05
2270.0 1.5676e-05
2290.0 1.5821e-05
2310.0 1.595e-05
2330.0 1.608e-05
2350.0 1.6205e-05
2370.0 1.6315e-05
2390.0 1.6424e-05
2410.0 1.6543e-05
2430.0 1.6663e-05
2450.0 1.6791e-05
2470.0 1.6956e-05
2490.0 1.7179e-05
2510.0 1.7461e-05
2530.0 1.7888e-05
2550.0 1.8584e-05
2570.0 1.9651e-05
2590.0 2.1211e-05
2610.0 2.3623e-05
2630.0 2.69e-05
2650.0 3.0799e-05
2670.0 3.531e-05
2690.0 4.02e-05
2710.0 4.4744e-05
2730.0 4.864e-05
2750.0 5.1972e-05
2770.0 5.443e-05
2790.0 5.605e-05
2810.0 5.7137e-05
2830.0 5.79e-05
2850.0 5.8343e-05
2870.0 5.8666e-05
2890.0 5.898e-05
2910.0 5.9272e-05
2930.0 5.9509e-05
2950.0 5.9782e-05
2970.0 6.0075e-05
2990.0 6.0325e-05
3010.0 0.00070767
3030.0 0.0007108
3050.0 0.00071369
3070.0 0.00071546
3090.0 0.00071669
3110.0 0.00071645
3130.0 0.00071355
3150.0 0.00070756
3170.0 0.0006977
3190.0 0.0006842
3210.0 0.00066864
3230.0 0.00065272
3250.0 0.00064003
3270.0 0.0006322
3290.0 0.0006326
3310.0 0.00063973
3330.0 0.00065593
3350.0 0.00067866
3370.0 0.00070828
3390.0 0.00074371
3410.0 0.00078085
3430.0 0.00082124
3450.0 0.00086591
3470.0 0.00091258
3490.0 0.00095997
3510.0 0.0010116
3530.0 0.0010653
3550.0 0.0011178
3570.0 0.0011713
3590.0 0.0012301
3610.0 0.0012876
3630.0 0.001347
3650.0 0.0014058
3670.0 0.0014595
3690.0 0.0015007
3710.0 0.0015284
3730.0 0.0015432
3750.0 0.001548
3770.0 0.0014422
3790.0 0.0013385
3810.0 0.0011759
3830.0 0.00087903
3850.0 0.00064016
3870.0 0.00062646
3890.0 0.00078667
3910.0 0.0012223
3930.0 0.0016256
3950.0 0.0018337
3970.0 0.0019254
3990.0 0.0020557
4010.0 0.0022765
4030.0 0.0022744
4050.0 0.0021406
4070.0 0.0019865
4090.0 0.0019014
4110.0 0.0020408
4130.0 0.0020976
4150.0 0.0020995
4170.0 0.0021579
4190.0 0.0021582
4210.0 0.0022049
4230.0 0.0023846
4250.0 0.0026072
4270.0 0.0027176
4290.0 0.0026919
4310.0 0.0027425
4330.0 0.002931
4350.0 0.0033957
4370.0 0.0038182
4390.0 0.0035878
4410.0 0.0029539
4430.0 0.0025278
4450.0 0.002139
4470.0 0.0019801
4490.0 0.0022364
4510.0 0.0026564
4530.0 0.002939
4550.0 0.0032451
4570.0 0.0037939
4590.0 0.0046497
4610.0 0.0061057
4630.0 0.0073664
4650.0 0.007461
4670.0 0.0073993
4690.0 0.0078537
4710.0 0.0079298
4730.0 0.006594
4750.0 0.0049744
4770.0 0.0040309
4790.0 0.0039012
4810.0 0.0037074
4830.0 0.0036969
4850.0 0.0043613
4870.0 0.0054246
4890.0 0.0058173
4910.0 0.0050418
4930.0 0.0047502
4950.0 0.0055109
4970.0 0.0072555
4990.0 0.0088829
5010.0 0.0090862
5030.0 0.0072867
5050.0 0.0049797
5070.0 0.0036637
5090.0 0.0031625
5110.0 0.0031203
5130.0 0.0033828
5150.0 0.0035034
5170.0 0.0034571
5190.0 0.0034306
5210.0 0.0033531
5230.0 0.0035233
5250.0 0.0038497
5270.0 0.0044057
5290.0 0.0050961
5310.0 0.0055456
5330.0 0.0057289
5350.0 0.0060759
5370.0 0.0066544
5390.0 0.0068892
5410.0 0.0063414
5430.0 0.0056018
5450.0 0.0055137
5470.0 0.0065684
5490.0 0.0083157
5510.0 0.010103
5530.0 0.010919
5550.0 0.010575
5570.0 0.0097921
5590.0 0.0088581
5610.0 0.0084832
5630.0 0.0085115
5650.0 0.0085491
5670.0 0.0083796
5690.0 0.0079138
5710.0 0.0075573
5730.0 0.0067055
5750.0 0.0051526
5770.0 0.0045196
5790.0 0.0048917
5810.0 0.0057072
5830.0 0.0064784
5850.0 0.0069324
5870.0 0.0069508
5890.0 0.0064761
5910.0 0.006273
5930.0 0.006342
5950.0 0.0066513
5970.0 0.0068687
5990.0 0.0062693
6010.0 0.0051762
6030.0 0.0042848
6050.0 0.0039269
6070.0 0.0040854
6090.0 0.0045134
6110.0 0.004605
6130.0 0.0042905
6150.0 0.0041776
6170.0 0.0045832
6190.0 0.0054843
6210.0 0.0065868
6230.0 0.0073412
6250.0 0.0072801
6270.0 0.0064402
6290.0 0.0053114
6310.0 0.0042567
6330.0 0.003521
6350.0 0.0033345
6370.0 0.0036593
6390.0 0.0042052
6410.0 0.0048849
6430.0 0.0056451
6450.0 0.0066331
6470.0 0.0082013
6490.0 0.010001
6510.0 0.010587
6530.0 0.0099779
6550.0 0.0095201
6570.0 0.009409
6590.0 0.0090266
6610.0 0.0083186
6630.0 0.0077427
6650.0 0.00743
6670.0 0.0074166
6690.0 0.007205
6710.0 0.0064821
6730.0 0.0056215
6750.0 0.005156
6770.0 0.0054263
6790.0 0.0058301
6810.0 0.0060094
6830.0 0.0060888
6850.0 0.0058686
6870.0 0.0055964
6890.0 0.0054208
6910.0 0.0051648
6930.0 0.0049912
6950.0 0.0050363
6970.0 0.0052208
6990.0 0.0057371
7010.0 0.0059902
7030.0 0.0057188
7050.0 0.0052399
7070.0 0.0045637
7090.0 0.0038787
7110.0 0.0036342
7130.0 0.0037936
7150.0 0.0039569
7170.0 0.0040622
7190.0 0.0039847
7210.0 0.0039648
7230.0 0.0044396
7250.0 0.0051592
7270.0 0.0057966
7290.0 0.0061231
7310.0 0.0057279
7330.0 0.0051187
7350.0 0.0046676
7370.0 0.0045562
7390.0 0.0047684
7410.0 0.0051255
7430.0 0.0056373
7450.0 0.0062344
7470.0 0.0067779
7490.0 0.0069004
7510.0 0.0059997
7530.0 0.0059485
7550.0 0.0053886
7570.0 0.0046014
7590.0 0.0037027
7610.0 0.00346
7630.0 0.0037705
7650.0 0.0043935
7670.0 0.0050364
7690.0 0.0055637
7710.0 0.0061092
7730.0 0.0065978
7750.0 0.0069483
7770.0 0.0068451
7790.0 0.0068054
7810.0 0.0069295
7830.0 0.0068642
7850.0 0.0065933
7870.0 0.0061945
7890.0 0.0057025
7910.0 0.0050498
7930.0 0.0044816
7950.0 0.004126
7970.0 0.0040309
7990.0 0.0041719
8010.0 0.0042642
8030.0 0.0043211
8050.0 0.0043656
8070.0 0.0043185
8090.0 0.0043051
8110.0 0.0041509
8130.0 0.0038785
8150.0 0.003663
8170.0 0.0036237
8190.0 0.0036864
8210.0 0.0037216
8230.0 0.00369
8250.0 0.0035656
8270.0 0.0031485
8290.0 0.0024896
8310.0 0.0018122
8330.0 0.0012192
8350.0 0.00087117
8370.0 0.00088459
8390.0 0.0010728
8410.0 0.0013554
8430.0 0.0016549
8450.0 0.0018185
8470.0 0.0019093
8490.0 0.0020016
8510.0 0.0021077
8530.0 0.0023396
8550.0 0.0027248
8570.0 0.0032043
8590.0 0.0037018
8610.0 0.00432
8630.0 0.0050191
8650.0 0.0054451
8670.0 0.0054462
8690.0 0.0052567
8710.0 0.0049912
8730.0 0.0047843
8750.0 0.0045915
8770.0 0.0044691
8790.0 0.0042931
8810.0 0.0039866
8830.0 0.0036462
8850.0 0.0031301
8870.0 0.0027707
8890.0 0.0025712
8910.0 0.0027008
8930.0 0.0026508
8950.0 0.0027246
8970.0 0.0027574
8990.0 0.0027968
9010.0 0.002845
9030.0 0.0028066
9050.0 0.002804
9070.0 0.002806
9090.0 0.0028082
9110.0 0.0028096
9130.0 0.0028122
9150.0 0.0028161
9170.0 0.0028186
9190.0 0.0028191
9210.0 0.0028346
9230.0 0.002837
9250.0 0.0028411
9270.0 0.002846
9290.0 0.0028514
9310.0 0.0028574
9330.0 0.0028639
9350.0 0.0028707
9370.0 0.002878
9390.0 0.0028856
9410.0 0.0028935
9430.0 0.0029017
9450.0 0.0029103
9470.0 0.0029193
9490.0 0.0029284
9510.0 0.0029379
9530.0 0.0029478
9550.0 0.0029579
9570.0 0.0029682
9590.0 0.0029789
9610.0 0.0029899
9630.0 0.003001
9650.0 0.0030124
9670.0 0.0030242
9690.0 0.0030361
9710.0 0.0030482
9730.0 0.0030606
9750.0 0.0030732
9770.0 0.0030858
9790.0 0.0030988
9810.0 0.003112
9830.0 0.0031252
9850.0 0.0031386
9870.0 0.0031523
9890.0 0.003166
9910.0 0.0031797
9930.0 0.0031936
9950.0 0.0032069
9970.0 0.0032211
9990.0 0.0032354
10010.0 0.0032461
10030.0 0.0032603
10050.0 0.0032738
10070.0 0.0032838
10090.0 0.0032996
10110.0 0.0033149
10130.0 0.0033299
10150.0 0.0033447
10170.0 0.003359
10190.0 0.0033728
10210.0 0.0033867
10230.0 0.0034006
10250.0 0.003414
10270.0 0.0034273
10290.0 0.0034407
10310.0 0.0034536
10330.0 0.0034661
10350.0 0.0034787
10370.0 0.0034912
10390.0 0.0035031
10410.0 0.0035148
10430.0 0.0035266
10450.0 0.0035378
10470.0 0.0035485
10490.0 0.0035593
10510.0 0.0035697
10530.0 0.0035793
10550.0 0.0035887
10570.0 0.0035981
10590.0 0.0036069
10610.0 0.0036151
10630.0 0.0036232
10650.0 0.003631
10670.0 0.0036378
10690.0 0.0036445
10710.0 0.0036509
10730.0 0.0036566
10750.0 0.0036615
10770.0 0.0036666
10790.0 0.0036711
10810.0 0.0036747
10830.0 0.0036778
10850.0 0.0036805
10870.0 0.0036813
10890.0 0.00368
10910.0 0.0036759
10930.0 0.0036667
10950.0 0.0036488
10970.0 0.0036212
10990.0 0.003583
11010.0 0.0034636
11030.0 0.0033928
11050.0 0.0033115
11070.0 0.0032181
11090.0 0.0031094
11110.0 0.0030006
11130.0 0.0028906
11150.0 0.0027767
11170.0 0.0026646
11190.0 0.0025617
11210.0 0.0024617
11230.0 0.0023662
11250.0 0.0022819
11270.0 0.0022073
11290.0 0.0021387
11310.0 0.0020792
11330.0 0.0020308
11350.0 0.0019878
11370.0 0.0019496
11390.0 0.0019166
11410.0 0.0018864
11430.0 0.0018553
11450.0 0.001824
11470.0 0.0017918
11490.0 0.0017561
11510.0 0.0017157
11530.0 0.0016733
11550.0 0.001628
11570.0 0.0015779
11590.0 0.0015259
11610.0 0.0014742
11630.0 0.0014202
11650.0 0.0013656
11670.0 0.0013148
11690.0 0.0012664
11710.0 0.0012195
11730.0 0.0011767
11750.0 0.0011391
11770.0 0.0011039
11790.0 0.001072
11810.0 0.0010444
11830.0 0.0010196
11850.0 0.00099603
11870.0 0.00097487
11890.0 0.00095535
11910.0 0.00093575
11930.0 0.0009159
11950.0 0.00089629
11970.0 0.0008758
11990.0 0.00085359
12010.0 0.00083094
12030.0 0.00080799
12050.0 0.00078392
12070.0 0.00075925
12090.0 0.00073635
12110.0 0.0007141
12130.0 0.00069288
12150.0 0.00067428
12170.0 0.00065872
12190.0 0.00064567
12210.0 0.00063657
12230.0 0.0006316
12250.0 0.00063061
12270.0 0.00063402
12290.0 0.00064141
12310.0 0.00065211
12330.0 0.00066685
12350.0 0.00068465
12370.0 0.00070408
12390.0 0.00072551
12410.0 0.00074941
12430.0 0.00077218
12450.0 0.00079429
12470.0 0.0008162
12490.0 0.00083639
12510.0 0.00085346
12530.0 0.00086863
12550.0 0.00088122
12570.0 0.00089012
12590.0 0.00089572
12610.0 0.00089833
12630.0 0.00089749
12650.0 0.00089349
12670.0 0.00088671
12690.0 0.00087719
12710.0 0.00086558
12730.0 0.00085221
12750.0 0.00083661
12770.0 0.00081993
12790.0 0.00080267
12810.0 0.00078437
12830.0 0.00076511
12850.0 0.00074618
12870.0 0.00072707
12890.0 0.00070712
12910.0 0.00068716
12930.0 0.00066754
12950.0 0.00064702
12970.0 0.00062588
12990.0 0.00060542
13010.0 0.00058481
13030.0 0.00056358
13050.0 0.00054281
13070.0 0.00052308
13090.0 0.00050324
13110.0 0.00048414
13130.0 0.00046676
13150.0 0.00045072
13170.0 0.00043572
13190.0 0.00042313
13210.0 0.00041286
13230.0 0.00040448
13250.0 0.00039837
13270.0 0.00039464
13290.0 0.00039299
13310.0 0.00039352
13330.0 0.00039596
13350.0 0.00039996
13370.0 0.00040561
13390.0 0.00041266
13410.0 0.00042006
13430.0 0.00042819
13450.0 0.00043691
13470.0 0.00044541
13490.0 0.00045346
13510.0 0.0004617
13530.0 0.00046922
13550.0 0.00047572
13570.0 0.00048159
13590.0 0.00048683
13610.0 0.00049104
13630.0 0.00049432
13650.0 0.00049705
13670.0 0.00049899
13690.0 0.00050015
13710.0 0.00050073
13730.0 0.00050076
13750.0 0.00050013
13770.0 0.00049897
13790.0 0.0004973
13810.0 0.00049509
13830.0 0.00049242
13850.0 0.00048921
13870.0 0.00048541
13890.0 0.00048119
13910.0 0.00047653
13930.0 0.00047126
13950.0 0.00046559
13970.0 0.00045985
13990.0 0.00045374
14010.0 0.00044742
14030.0 0.00044127
14050.0 0.00043526
14070.0 0.00042919
14090.0 0.00042361
14110.0 0.00041858
14130.0 0.00041396
14150.0 0.00040988
14170.0 0.00040659
14190.0 0.00040395
14210.0 0.00040199
14230.0 0.0004008
14250.0 0.00040035
14270.0 0.00040066
14290.0 0.00040178
14310.0 0.00040351
14330.0 0.00040589
14350.0 0.00040896
14370.0 0.00041248
14390.0 0.00041626
14410.0 0.00042054
14430.0 0.0004251
14450.0 0.00042964
14470.0 0.00043431
14490.0 0.00043934
14510.0 0.00044428
14530.0 0.00044922
14550.0 0.00045462
14570.0 0.00046046
14590.0 0.00046657
14610.0 0.00047348
14630.0 0.00048157
14650.0 0.00049042
14670.0 0.00050018
14690.0 0.00051147
14710.0 0.00052418
14730.0 0.00053721
14750.0 0.00055147
14770.0 0.00056694
14790.0 0.00058255
14810.0 0.000598
14830.0 0.0006144
14850.0 0.00063008
14870.0 0.00064439
14890.0 0.00065786
14910.0 0.00067022
14930.0 0.00068045
14950.0 0.0006887
14970.0 0.00069538
14990.0 0.00070002
15010.0 0.00070278
15030.0 0.00070412
15050.0 0.0007042
15070.0 0.00070337
15090.0 0.00070196
15110.0 0.00070014
15130.0 0.00069811
15150.0 0.00069607
15170.0 0.0006939
15190.0 0.00069169
15210.0 0.00068956
15230.0 0.00068745
15250.0 0.00068527
15270.0 0.00068312
15290.0 0.00068109
15310.0 0.000679
15330.0 0.00067689
15350.0 0.00067486
15370.0 0.00067286
15390.0 0.00067075
15410.0 0.00066871
15430.0 0.00066674
15450.0 0.00066472
15470.0 0.00066267
15490.0 0.00066073
15510.0 0.00065879
15530.0 0.00065678
15550.0 0.00065482
15570.0 0.00065293
15590.0 0.00065095
15610.0 0.00064894
15630.0 0.00064705
15650.0 0.00064515
15670.0 0.00064318
15690.0 0.00064127
15710.0 0.00063942
15730.0 0.00063749
15750.0 0.00063555
15770.0 0.00063369
15790.0 0.00063181
15810.0 0.00062984
15830.0 0.00062795
15850.0 0.00062611
15870.0 0.0006242
15890.0 0.00062229
15910.0 0.00062046
15930.0 0.00061859
15950.0 0.00061664
15970.0 0.00061477
15990.0 0.00061292
16010.0 0.00061101
16030.0 0.00060907
16050.0 0.00060725
16070.0 0.00060538
16090.0 0.00060345
16110.0 0.00060158
16130.0 0.00059975
16150.0 0.00059778
16170.0 0.00059585
16190.0 0.000594
16210.0 0.00059211
16230.0 0.00059015
16250.0 0.00058827
16270.0 0.00058641
16290.0 0.00058446
16310.0 0.00058252
16330.0 0.00058065
16350.0 0.00057873
16370.0 0.0005767
16390.0 0.00057481
16410.0 0.00057291
16430.0 0.00057093
16450.0 0.00056897
16470.0 0.00056709
16490.0 0.00056511
16510.0 0.0005631
16530.0 0.00056116
16550.0 0.00055921
16570.0 0.00055718
16590.0 0.00055516
16610.0 0.00055324
16630.0 0.00055124
16650.0 0.0005492
16670.0 0.00054724
16690.0 0.00054526
16710.0 0.00054316
16730.0 0.00054113
16750.0 0.00053915
16770.0 0.00053709
16790.0 0.000535
16810.0 0.000533
16830.0 0.00053098
16850.0 0.00052887
16870.0 0.00052681
16890.0 0.00052479
16910.0 0.00052267
16930.0 0.00052052
16950.0 0.00051847
16970.0 0.00051639
16990.0 0.00051424
17010.0 0.00051214
17030.0 0.00051009
17050.0 0.00050793
17070.0 0.00050577
17090.0 0.00050367
17110.0 0.00050155
17130.0 0.00049932
17150.0 0.00049717
17170.0 0.00049507
17190.0 0.00049288
17210.0 0.00049068
17230.0 0.00048857
17250.0 0.00048639
17270.0 0.00048413
17290.0 0.00048195
17310.0 0.00047979
17330.0 0.00047755
17350.0 0.00047529
17370.0 0.00047315
17390.0 0.00047093
17410.0 0.00046867
17430.0 0.00046646
17450.0 0.00046428
17470.0 0.00046196
17490.0 0.00045969
17510.0 0.00045749
17530.0 0.00045524
17550.0 0.00045293
17570.0 0.00045069
17590.0 0.00044848
17610.0 0.00044616
17630.0 0.00044387
17650.0 0.00044164
17670.0 0.00043935
17690.0 0.00043697
17710.0 0.00043473
17730.0 0.00043247
17750.0 0.00043013
17770.0 0.00042782
17790.0 0.00042559
17810.0 0.00042326
17830.0 0.0004209
17850.0 0.00041861
17870.0 0.00041632
17890.0 0.00041395
17910.0 0.0004116
17930.0 0.00040935
17950.0 0.00040701
17970.0 0.00040465
17990.0 0.00040236
18010.0 0.00040006
18030.0 0.00039765
18050.0 0.00039531
18070.0 0.00039302
18090.0 0.00039066
18110.0 0.00038827
18130.0 0.00038598
18150.0 0.00038367
18170.0 0.00038128
18190.0 0.00037894
18210.0 0.00037665
18230.0 0.00037426
18250.0 0.00037185
18270.0 0.00036956
18290.0 0.00036723
18310.0 0.00036483
18330.0 0.0003625
18350.0 0.00036021
18370.0 0.00035782
18390.0 0.00035545
18410.0 0.00035314
18430.0 0.00035081
18450.0 0.00034838
18470.0 0.00034605
18490.0 0.00034376
18510.0 0.00034139
18530.0 0.00033903
18550.0 0.00033674
18570.0 0.0003344
18590.0 0.000332
18610.0 0.00032968
18630.0 0.00032737
18650.0 0.000325
18670.0 0.00032263
18690.0 0.00032036
18710.0 0.00031803
18730.0 0.00031567
18750.0 0.00031336
18770.0 0.00031109
18790.0 0.00030869
18810.0 0.00030635
18830.0 0.00030408
18850.0 0.00030176
18870.0 0.0002994
18890.0 0.00029712
18910.0 0.00029486
18930.0 0.00029251
18950.0 0.00029019
18970.0 0.00028794
18990.0 0.00028563
19010.0 0.00028325
19030.0 0.00028101
19050.0 0.00027875
19070.0 0.00027643
19090.0 0.00027414
19110.0 0.00027193
19130.0 0.00026962
19150.0 0.00026731
19170.0 0.00026507
19190.0 0.00026282
19210.0 0.0002605
19230.0 0.00025823
19250.0 0.00025604
19270.0 0.00025377
19290.0 0.00025149
19310.0 0.00024929
19330.0 0.00024708
19350.0 0.00024476
19370.0 0.00024253
19390.0 0.00024034
19410.0 0.0002381
19430.0 0.00023583
19450.0 0.00023367
19470.0 0.00023147
19490.0 0.00022922
19510.0 0.00022702
19530.0 0.00022487
19550.0 0.00022263
19570.0 0.00022038
19590.0 0.00021824
19610.0 0.00021607
19630.0 0.00021384
19650.0 0.00021168
19670.0 0.00020957
19690.0 0.00020735
19710.0 0.00020516
19730.0 0.00020304
19750.0 0.00020089
19770.0 0.00019866
19790.0 0.00019654
19810.0 0.00019444
19830.0 0.00019226
19850.0 0.0001901
19870.0 0.00018799
19890.0 0.00018579
19910.0 0.00018346
19930.0 0.00018111
19950.0 0.00017862
19970.0 0.00017582
19990.0 0.00017274
20010.0 0.00016953
20030.0 0.00016594
20050.0 0.00016206
20070.0 0.00015814
20090.0 0.0001542
20110.0 0.00015007
20130.0 0.00014618
20150.0 0.0001426
20170.0 0.00013915
20190.0 0.00013592
20210.0 0.0001331
20230.0 0.00013055
20250.0 0.00012821
20270.0 0.00012622
20290.0 0.00012457
20310.0 0.00012316
20330.0 0.00012203
20350.0 0.00012124
20370.0 0.0001207
20390.0 0.00012043
20410.0 0.00012041
20430.0 0.00012063
20450.0 0.00012111
20470.0 0.00012184
20490.0 0.00012276
20510.0 0.00012389
20530.0 0.00012526
20550.0 0.00012679
20570.0 0.00012841
20590.0 0.00013024
20610.0 0.0001322
20630.0 0.00013417
20650.0 0.00013622
20670.0 0.00013842
20690.0 0.00014054
20710.0 0.0001426
20730.0 0.0001447
20750.0 0.00014677
20770.0 0.00014869
20790.0 0.00015061
20810.0 0.00015255
20830.0 0.0001544
20850.0 0.0001562
20870.0 0.0001581
20890.0 0.00016003
20910.0 0.00016189
20930.0 0.00016385
20950.0 0.00016592
20970.0 0.00016798
20990.0 0.00017004
21010.0 0.00017223
21030.0 0.00017439
21050.0 0.00017644
21070.0 0.00017846
21090.0 0.00018043
21110.0 0.00018215
21130.0 0.00018368
21150.0 0.00018505
21170.0 0.00018617
21190.0 0.000187
21210.0 0.00018759
21230.0 0.0001879
21250.0 0.0001879
21270.0 0.00018763
21290.0 0.00018705
21310.0 0.00018619
21330.0 0.00018512
21350.0 0.00018375
21370.0 0.00018213
21390.0 0.00018034
21410.0 0.00017838
21430.0 0.00017611
21450.0 0.00017378
21470.0 0.00017141
21490.0 0.00016889
21510.0 0.0001663
21530.0 0.00016381
21550.0 0.00016134
21570.0 0.00015884
21590.0 0.00015651
21610.0 0.00015437
21630.0 0.00015234
21650.0 0.00015048
21670.0 0.00014898
21690.0 0.00014771
21710.0 0.00014668
21730.0 0.00014598
21750.0 0.00014558
21770.0 0.00014547
21790.0 0.0001457
21810.0 0.00014621
21830.0 0.00014702
21850.0 0.00014816
21870.0 0.00014955
21890.0 0.00015113
21910.0 0.00015301
21930.0 0.00015512
21950.0 0.00015733
21970.0 0.00015974
21990.0 0.00016242
22010.0 0.00016509
22030.0 0.00016781
22050.0 0.00017068
22070.0 0.00017359
22090.0 0.00017636
22110.0 0.00017918
22130.0 0.00018201
22150.0 0.00018466
22170.0 0.00018715
22190.0 0.0001896
22210.0 0.00019183
22230.0 0.00019373
22250.0 0.00019544
22270.0 0.00019688
22290.0 0.00019798
22310.0 0.00019874
22330.0 0.00019918
22350.0 0.00019923
22370.0 0.0001989
22390.0 0.00019818
22410.0 0.00019701
22430.0 0.00019551
22450.0 0.00019366
22470.0 0.00019136
22490.0 0.00018872
22510.0 0.00018587
22530.0 0.00018258
22550.0 0.00017894
22570.0 0.00017522
22590.0 0.00017129
22610.0 0.00016704
22630.0 0.00016271
22650.0 0.00015846
22670.0 0.00015399
22690.0 0.00014945
22710.0 0.00014506
22730.0 0.00014074
22750.0 0.00013625
22770.0 0.00013205
22790.0 0.00012812
22810.0 0.00012424
22830.0 0.00012055
22850.0 0.00011725
22870.0 0.00011417
22890.0 0.00011129
22910.0 0.00010881
22930.0 0.00010671
22950.0 0.00010492
22970.0 0.00010349
22990.0 0.00010254
23010.0 0.00010197
23030.0 0.0001018
23050.0 0.00010205
23070.0 0.00010267
