#lamb flux
1010.0 1.8866e-07
1030.0 2.0725e-07
1050.0 2.2863e-07
1070.0 2.527e-07
1090.0 2.8004e-07
1110.0 3.0808e-07
1130.0 3.363e-07
1150.0 3.6587e-07
1170.0 3.9636e-07
1190.0 4.2528e-07
1210.0 4.5458e-07
1230.0 4.8487e-07
1250.0 5.1453e-07
1270.0 5.4335e-07
1290.0 5.7379e-07
1310.0 6.0421e-07
1330.0 6.3338e-07
1350.0 6.6289e-07
1370.0 6.9334e-07
1390.0 7.2303e-07
1410.0 7.5184e-07
1430.0 7.8195e-07
1450.0 8.1206e-07
1470.0 8.4116e-07
1490.0 8.7056e-07
1510.0 9.0161e-07
1530.0 9.3103e-07
1550.0 9.6005e-07
1570.0 9.9006e-07
1590.0 1.0201e-06
1610.0 1.0488e-06
1630.0 1.0783e-06
1650.0 1.1086e-06
1670.0 1.1379e-06
1690.0 1.1669e-06
1710.0 1.1969e-06
1730.0 1.227e-06
1750.0 1.2553e-06
1770.0 1.2844e-06
1790.0 1.314e-06
1810.0 1.3426e-06
1830.0 1.3707e-06
1850.0 1.4004e-06
1870.0 1.4292e-06
1890.0 1.457e-06
1910.0 1.4851e-06
1930.0 1.5139e-06
1950.0 1.5411e-06
1970.0 1.5677e-06
1990.0 1.5953e-06
2010.0 1.6221e-06
2030.0 1.6476e-06
2050.0 1.6736e-06
2070.0 1.7e-06
2090.0 1.7244e-06
2110.0 1.7482e-06
2130.0 1.7725e-06
2150.0 1.7957e-06
2170.0 1.8171e-06
2190.0 1.839e-06
2210.0 1.8605e-06
2230.0 1.8801e-06
2250.0 1.8989e-06
2270.0 1.9181e-06
2290.0 1.9357e-06
2310.0 1.9513e-06
2330.0 1.9668e-06
2350.0 1.9817e-06
2370.0 1.9947e-06
2390.0 2.0072e-06
2410.0 2.0205e-06
2430.0 2.0331e-06
2450.0 2.0456e-06
2470.0 2.0609e-06
2490.0 2.0808e-06
2510.0 2.1059e-06
2530.0 2.1456e-06
2550.0 2.2146e-06
2570.0 2.3261e-06
2590.0 2.4955e-06
2610.0 2.766e-06
2630.0 3.1426e-06
2650.0 3.5991e-06
2670.0 4.1363e-06
2690.0 4.7283e-06
2710.0 5.2881e-06
2730.0 5.7772e-06
2750.0 6.2049e-06
2770.0 6.5303e-06
2790.0 6.7544e-06
2810.0 6.9143e-06
2830.0 7.036e-06
2850.0 7.1166e-06
2870.0 7.1817e-06
2890.0 7.2463e-06
2910.0 7.3076e-06
2930.0 7.3599e-06
2950.0 7.4168e-06
2970.0 7.4758e-06
2990.0 7.5276e-06
3010.0 7.4941e-05
3030.0 7.546e-05
3050.0 7.5942e-05
3070.0 7.6276e-05
3090.0 7.6539e-05
3110.0 7.6622e-05
3130.0 7.6386e-05
3150.0 7.5789e-05
3170.0 7.4759e-05
3190.0 7.332e-05
3210.0 7.1659e-05
3230.0 6.9951e-05
3250.0 6.83e-05
3270.0 6.744e-05
3290.0 6.6973e-05
3310.0 6.786e-05
3330.0 6.9339e-05
3350.0 7.1431e-05
3370.0 7.4198e-05
3390.0 7.7517e-05
3410.0 8.0978e-05
3430.0 8.4704e-05
3450.0 8.8771e-05
3470.0 9.295e-05
3490.0 9.7143e-05
3510.0 0.00010159
3530.0 0.00010614
3550.0 0.00011092
3570.0 0.00011609
3590.0 0.00012151
3610.0 0.00012759
3630.0 0.00013301
3650.0 0.00013845
3670.0 0.00014281
3690.0 0.00014596
3710.0 0.00014782
3730.0 0.0001477
3750.0 0.00014768
3770.0 0.00014849
3790.0 0.00015285
3810.0 0.00016198
3830.0 0.0001742
3850.0 0.0001917
3870.0 0.00021508
3890.0 0.00024145
3910.0 0.0002683
3930.0 0.0002902
3950.0 0.00030384
3970.0 0.00027085
3990.0 0.00021047
4010.0 0.00020302
4030.0 0.00024639
4050.0 0.00028625
4070.0 0.00025271
4090.0 0.00017514
4110.0 0.00018227
4130.0 0.00023018
4150.0 0.00025356
4170.0 0.00022516
4190.0 0.00020166
4210.0 0.00024291
4230.0 0.00026364
4250.0 0.00025782
4270.0 0.00026241
4290.0 0.00024613
4310.0 0.00026519
4330.0 0.0003033
4350.0 0.00035594
4370.0 0.00036896
4390.0 0.00035257
4410.0 0.00030339
4430.0 0.00024786
4450.0 0.00019354
4470.0 0.00019755
4490.0 0.00022059
4510.0 0.0002865
4530.0 0.0003035
4550.0 0.00030692
4570.0 0.00035402
4590.0 0.00045477
4610.0 0.00062579
4630.0 0.0007529
4650.0 0.00075057
4670.0 0.0007699
4690.0 0.00084396
4710.0 0.00083181
4730.0 0.00066558
4750.0 0.00047938
4770.0 0.00039993
4790.0 0.00036821
4810.0 0.00034069
4830.0 0.0003596
4850.0 0.00041795
4870.0 0.00051862
4890.0 0.00054866
4910.0 0.00047315
4930.0 0.00047421
4950.0 0.00058585
4970.0 0.00076062
4990.0 0.00088898
5010.0 0.00088884
5030.0 0.00073219
5050.0 0.0005127
5070.0 0.00037725
5090.0 0.00032876
5110.0 0.00033512
5130.0 0.00036682
5150.0 0.00035391
5170.0 0.0003542
5190.0 0.00034944
5210.0 0.00035031
5230.0 0.00037383
5250.0 0.00038767
5270.0 0.00043433
5290.0 0.00052018
5310.0 0.00057119
5330.0 0.00059552
5350.0 0.0006234
5370.0 0.00067535
5390.0 0.00069392
5410.0 0.0006298
5430.0 0.00056332
5450.0 0.00056631
5470.0 0.00068056
5490.0 0.00088188
5510.0 0.0010633
5530.0 0.0011275
5550.0 0.0010883
5570.0 0.0010141
5590.0 0.00093705
5610.0 0.00089714
5630.0 0.00090861
5650.0 0.00093139
5670.0 0.00090467
5690.0 0.00085973
5710.0 0.00083178
5730.0 0.00072863
5750.0 0.00056274
5770.0 0.00051095
5790.0 0.00057673
5810.0 0.00065414
5830.0 0.00073248
5850.0 0.00076458
5870.0 0.00074789
5890.0 0.00069332
5910.0 0.00065308
5930.0 0.00066357
5950.0 0.00070541
5970.0 0.00071739
5990.0 0.00064026
6010.0 0.00051944
6030.0 0.00041731
6050.0 0.0003792
6070.0 0.00040788
6090.0 0.00046003
6110.0 0.0004647
6130.0 0.00042914
6150.0 0.00042269
6170.0 0.00047188
6190.0 0.000562
6210.0 0.00067723
6230.0 0.0007562
6250.0 0.00072744
6270.0 0.00063915
6290.0 0.00052822
6310.0 0.00041674
6330.0 0.00034901
6350.0 0.00034185
6370.0 0.00037672
6390.0 0.00041879
6410.0 0.00048651
6430.0 0.00058923
6450.0 0.00072493
6470.0 0.000872
6490.0 0.0010041
6510.0 0.0010576
6530.0 0.0010121
6550.0 0.0009719
6570.0 0.00097407
6590.0 0.00095856
6610.0 0.00089853
6630.0 0.00084293
6650.0 0.00079438
6670.0 0.00079335
6690.0 0.00077371
6710.0 0.00069777
6730.0 0.00060761
6750.0 0.00054856
6770.0 0.00057206
6790.0 0.00061114
6810.0 0.00065422
6830.0 0.00066674
6850.0 0.00063384
6870.0 0.00060911
6890.0 0.00059511
6910.0 0.00056343
6930.0 0.00053889
6950.0 0.00054578
6970.0 0.00056282
6990.0 0.0006038
7010.0 0.00064769
7030.0 0.00063008
7050.0 0.00057189
7070.0 0.00050385
7090.0 0.00042606
7110.0 0.00038579
7130.0 0.00040925
7150.0 0.00044116
7170.0 0.00044351
7190.0 0.0004308
7210.0 0.00042906
7230.0 0.00048474
7250.0 0.0005609
7270.0 0.00061385
7290.0 0.00062384
7310.0 0.00058458
7330.0 0.0005308
7350.0 0.00048924
7370.0 0.00047155
7390.0 0.00047386
7410.0 0.00050356
7430.0 0.00057175
7450.0 0.00063997
7470.0 0.00072032
7490.0 0.00080332
7510.0 0.00074544
7530.0 0.00065297
7550.0 0.00055602
7570.0 0.00046589
7590.0 0.00038096
7610.0 0.00036655
7630.0 0.00039227
7650.0 0.00043948
7670.0 0.00050274
7690.0 0.0005546
7710.0 0.00062218
7730.0 0.00065856
7750.0 0.00068334
7770.0 0.00070734
7790.0 0.00070755
7810.0 0.00070512
7830.0 0.00067986
7850.0 0.00065951
7870.0 0.00063264
7890.0 0.0005786
7910.0 0.00052374
7930.0 0.00046933
7950.0 0.00041265
7970.0 0.00039492
7990.0 0.00041137
8010.0 0.00046132
8030.0 0.00046553
8050.0 0.00047933
8070.0 0.00047348
8090.0 0.0004733
8110.0 0.00046013
8130.0 0.00043202
8150.0 0.00040352
8170.0 0.00040017
8190.0 0.00040639
8210.0 0.00041104
8230.0 0.00039302
8250.0 0.00037273
8270.0 0.00032847
8290.0 0.00026676
8310.0 0.00020512
8330.0 0.00014348
8350.0 0.00010598
8370.0 0.00010121
8390.0 0.0001163
8410.0 0.00014121
8430.0 0.00017552
8450.0 0.00019385
8470.0 0.00020667
8490.0 0.00022317
8510.0 0.00023793
8530.0 0.00026357
8550.0 0.00031083
8570.0 0.00035916
8590.0 0.00040044
8610.0 0.00046377
8630.0 0.00053756
8650.0 0.00057149
8670.0 0.00057782
8690.0 0.00056947
8710.0 0.00054699
8730.0 0.00052478
8750.0 0.00049649
8770.0 0.00048634
8790.0 0.00046905
8810.0 0.00043467
8830.0 0.00040548
8850.0 0.00035087
8870.0 0.00031785
8890.0 0.00029451
8910.0 0.0003191
8930.0 0.00030622
8950.0 0.00031267
8970.0 0.00031782
8990.0 0.0003179
9010.0 0.00032189
9030.0 0.00031282
9050.0 0.00031221
9070.0 0.00031249
9090.0 0.00031279
9110.0 0.00031316
9130.0 0.00031349
9150.0 0.00031384
9170.0 0.00031386
9190.0 0.00031343
9210.0 0.00031614
9230.0 0.00031605
9250.0 0.00031628
9270.0 0.00031661
9290.0 0.00031702
9310.0 0.00031749
9330.0 0.000318
9350.0 0.00031855
9370.0 0.00031913
9390.0 0.00031973
9410.0 0.00032036
9430.0 0.00032101
9450.0 0.00032168
9470.0 0.00032237
9490.0 0.00032308
9510.0 0.00032382
9530.0 0.00032457
9550.0 0.00032535
9570.0 0.00032615
9590.0 0.00032697
9610.0 0.00032782
9630.0 0.00032868
9650.0 0.00032957
9670.0 0.00033047
9690.0 0.00033139
9710.0 0.00033234
9730.0 0.0003333
9750.0 0.00033428
9770.0 0.00033529
9790.0 0.0003363
9810.0 0.00033733
9830.0 0.00033838
9850.0 0.00033945
9870.0 0.00034052
9890.0 0.00034162
9910.0 0.00034273
9930.0 0.00034384
9950.0 0.0003448
9970.0 0.00034599
9990.0 0.00034718
10010.0 0.00034825
10030.0 0.00034943
10050.0 0.0003505
10070.0 0.00035099
10090.0 0.0003524
10110.0 0.00035378
10130.0 0.0003551
10150.0 0.00035639
10170.0 0.00035762
10190.0 0.0003588
10210.0 0.00035998
10230.0 0.00036117
10250.0 0.00036232
10270.0 0.00036345
10290.0 0.00036461
10310.0 0.00036573
10330.0 0.00036681
10350.0 0.00036792
10370.0 0.00036901
10390.0 0.00037006
10410.0 0.00037109
10430.0 0.00037215
10450.0 0.00037315
10470.0 0.00037411
10490.0 0.00037508
10510.0 0.00037603
10530.0 0.00037691
10550.0 0.00037778
10570.0 0.00037866
10590.0 0.00037948
10610.0 0.00038026
10630.0 0.00038103
10650.0 0.00038178
10670.0 0.00038245
10690.0 0.00038311
10710.0 0.00038375
10730.0 0.00038434
10750.0 0.00038486
10770.0 0.0003854
10790.0 0.00038588
10810.0 0.0003863
10830.0 0.00038667
10850.0 0.000387
10870.0 0.00038716
10890.0 0.0003871
10910.0 0.00038674
10930.0 0.00038585
10950.0 0.00038405
10970.0 0.0003812
10990.0 0.00037721
11010.0 0.00037375
11030.0 0.00036594
11050.0 0.00035701
11070.0 0.0003468
11090.0 0.00033499
11110.0 0.00032327
11130.0 0.00031153
11150.0 0.00029949
11170.0 0.0002878
11190.0 0.00027719
11210.0 0.00026702
11230.0 0.00025745
11250.0 0.00024913
11270.0 0.00024187
11290.0 0.00023528
11310.0 0.00022961
11330.0 0.00022503
11350.0 0.00022094
11370.0 0.00021725
11390.0 0.00021398
11410.0 0.00021087
11430.0 0.00020755
11450.0 0.00020411
11470.0 0.0002005
11490.0 0.00019646
11510.0 0.00019189
11530.0 0.00018713
11550.0 0.00018209
11570.0 0.00017658
11590.0 0.00017094
11610.0 0.0001654
11630.0 0.00015966
11650.0 0.0001539
11670.0 0.00014858
11690.0 0.00014351
11710.0 0.00013858
11730.0 0.00013405
11750.0 0.00013002
11770.0 0.00012617
11790.0 0.0001226
11810.0 0.0001194
11830.0 0.00011643
11850.0 0.00011351
11870.0 0.00011079
11890.0 0.00010823
11910.0 0.00010562
11930.0 0.00010296
11950.0 0.00010036
11970.0 9.7688e-05
11990.0 9.4843e-05
12010.0 9.2004e-05
12030.0 8.9185e-05
12050.0 8.6282e-05
12070.0 8.3358e-05
12090.0 8.0679e-05
12110.0 7.8103e-05
12130.0 7.5666e-05
12150.0 7.354e-05
12170.0 7.1764e-05
12190.0 7.0271e-05
12210.0 6.9219e-05
12230.0 6.8628e-05
12250.0 6.8479e-05
12270.0 6.8819e-05
12290.0 6.9604e-05
12310.0 7.076e-05
12330.0 7.2371e-05
12350.0 7.4328e-05
12370.0 7.6469e-05
12390.0 7.8837e-05
12410.0 8.148e-05
12430.0 8.3998e-05
12450.0 8.644e-05
12470.0 8.8859e-05
12490.0 9.1086e-05
12510.0 9.2969e-05
12530.0 9.4647e-05
12550.0 9.6051e-05
12570.0 9.7059e-05
12590.0 9.7721e-05
12610.0 9.8078e-05
12630.0 9.8079e-05
12650.0 9.775e-05
12670.0 9.7141e-05
12690.0 9.6256e-05
12710.0 9.5151e-05
12730.0 9.3863e-05
12750.0 9.235e-05
12770.0 9.0713e-05
12790.0 8.9003e-05
12810.0 8.7173e-05
12830.0 8.5227e-05
12850.0 8.3288e-05
12870.0 8.1304e-05
12890.0 7.9202e-05
12910.0 7.7065e-05
12930.0 7.4929e-05
12950.0 7.2659e-05
12970.0 7.0281e-05
12990.0 6.7942e-05
13010.0 6.5553e-05
13030.0 6.3062e-05
13050.0 6.0598e-05
13070.0 5.8236e-05
13090.0 5.5843e-05
13110.0 5.3524e-05
13130.0 5.1401e-05
13150.0 4.9433e-05
13170.0 4.7582e-05
13190.0 4.6017e-05
13210.0 4.4725e-05
13230.0 4.365e-05
13250.0 4.2833e-05
13270.0 4.2288e-05
13290.0 4.197e-05
13310.0 4.1878e-05
13330.0 4.1986e-05
13350.0 4.2248e-05
13370.0 4.2658e-05
13390.0 4.3184e-05
13410.0 4.373e-05
13430.0 4.4318e-05
13450.0 4.4929e-05
13470.0 4.5499e-05
13490.0 4.6009e-05
13510.0 4.6506e-05
13530.0 4.6929e-05
13550.0 4.7266e-05
13570.0 4.7549e-05
13590.0 4.7787e-05
13610.0 4.7963e-05
13630.0 4.8091e-05
13650.0 4.82e-05
13670.0 4.828e-05
13690.0 4.8331e-05
13710.0 4.8368e-05
13730.0 4.8395e-05
13750.0 4.8393e-05
13770.0 4.8367e-05
13790.0 4.8317e-05
13810.0 4.8231e-05
13830.0 4.8104e-05
13850.0 4.7931e-05
13870.0 4.7702e-05
13890.0 4.742e-05
13910.0 4.7086e-05
13930.0 4.6687e-05
13950.0 4.6238e-05
13970.0 4.5768e-05
13990.0 4.526e-05
14010.0 4.4728e-05
14030.0 4.4209e-05
14050.0 4.3704e-05
14070.0 4.32e-05
14090.0 4.2743e-05
14110.0 4.2337e-05
14130.0 4.1969e-05
14150.0 4.1649e-05
14170.0 4.1392e-05
14190.0 4.1185e-05
14210.0 4.1027e-05
14230.0 4.0925e-05
14250.0 4.0876e-05
14270.0 4.0883e-05
14290.0 4.0952e-05
14310.0 4.1073e-05
14330.0 4.1249e-05
14350.0 4.1492e-05
14370.0 4.1783e-05
14390.0 4.2108e-05
14410.0 4.2494e-05
14430.0 4.292e-05
14450.0 4.3361e-05
14470.0 4.3831e-05
14490.0 4.4355e-05
14510.0 4.4885e-05
14530.0 4.5431e-05
14550.0 4.6037e-05
14570.0 4.6702e-05
14590.0 4.7402e-05
14610.0 4.8195e-05
14630.0 4.9121e-05
14650.0 5.0128e-05
14670.0 5.1234e-05
14690.0 5.2504e-05
14710.0 5.3925e-05
14730.0 5.5374e-05
14750.0 5.6955e-05
14770.0 5.8662e-05
14790.0 6.038e-05
14810.0 6.2079e-05
14830.0 6.3878e-05
14850.0 6.5597e-05
14870.0 6.7169e-05
14890.0 6.865e-05
14910.0 7.0013e-05
14930.0 7.1148e-05
14950.0 7.2071e-05
14970.0 7.2826e-05
14990.0 7.3362e-05
15010.0 7.3696e-05
15030.0 7.3877e-05
15050.0 7.3923e-05
15070.0 7.3869e-05
15090.0 7.3754e-05
15110.0 7.3594e-05
15130.0 7.3412e-05
15150.0 7.3227e-05
15170.0 7.3029e-05
15190.0 7.2827e-05
15210.0 7.2633e-05
15230.0 7.2441e-05
15250.0 7.2241e-05
15270.0 7.2045e-05
15290.0 7.1862e-05
15310.0 7.1672e-05
15330.0 7.148e-05
15350.0 7.1297e-05
15370.0 7.1116e-05
15390.0 7.0924e-05
15410.0 7.074e-05
15430.0 7.0563e-05
15450.0 7.038e-05
15470.0 7.0194e-05
15490.0 7.002e-05
15510.0 6.9845e-05
15530.0 6.9663e-05
15550.0 6.9487e-05
15570.0 6.9317e-05
15590.0 6.9138e-05
15610.0 6.8956e-05
15630.0 6.8786e-05
15650.0 6.8615e-05
15670.0 6.8437e-05
15690.0 6.8264e-05
15710.0 6.8098e-05
15730.0 6.7923e-05
15750.0 6.7747e-05
15770.0 6.7579e-05
15790.0 6.741e-05
15810.0 6.723e-05
15830.0 6.7059e-05
15850.0 6.6893e-05
15870.0 6.6719e-05
15890.0 6.6545e-05
15910.0 6.6379e-05
15930.0 6.6209e-05
15950.0 6.603e-05
15970.0 6.5859e-05
15990.0 6.5691e-05
16010.0 6.5515e-05
16030.0 6.5337e-05
16050.0 6.5171e-05
16070.0 6.4998e-05
16090.0 6.482e-05
16110.0 6.4648e-05
16130.0 6.448e-05
16150.0 6.4297e-05
16170.0 6.4118e-05
16190.0 6.3947e-05
16210.0 6.377e-05
16230.0 6.3587e-05
16250.0 6.3412e-05
16270.0 6.3239e-05
16290.0 6.3055e-05
16310.0 6.2874e-05
16330.0 6.2698e-05
16350.0 6.2517e-05
16370.0 6.2325e-05
16390.0 6.2146e-05
16410.0 6.1966e-05
16430.0 6.1778e-05
16450.0 6.1591e-05
16470.0 6.1413e-05
16490.0 6.1224e-05
16510.0 6.103e-05
16530.0 6.0845e-05
16550.0 6.0658e-05
16570.0 6.0462e-05
16590.0 6.0267e-05
16610.0 6.0082e-05
16630.0 5.9888e-05
16650.0 5.969e-05
16670.0 5.9499e-05
16690.0 5.9307e-05
16710.0 5.9102e-05
16730.0 5.8903e-05
16750.0 5.8709e-05
16770.0 5.8507e-05
16790.0 5.83e-05
16810.0 5.8103e-05
16830.0 5.7904e-05
16850.0 5.7695e-05
16870.0 5.749e-05
16890.0 5.729e-05
16910.0 5.7079e-05
16930.0 5.6864e-05
16950.0 5.666e-05
16970.0 5.6452e-05
16990.0 5.6236e-05
17010.0 5.6025e-05
17030.0 5.5819e-05
17050.0 5.5601e-05
17070.0 5.5382e-05
17090.0 5.517e-05
17110.0 5.4955e-05
17130.0 5.4728e-05
17150.0 5.451e-05
17170.0 5.4296e-05
17190.0 5.4072e-05
17210.0 5.3847e-05
17230.0 5.3631e-05
17250.0 5.3408e-05
17270.0 5.3176e-05
17290.0 5.2951e-05
17310.0 5.2729e-05
17330.0 5.2497e-05
17350.0 5.2263e-05
17370.0 5.2041e-05
17390.0 5.1812e-05
17410.0 5.1576e-05
17430.0 5.1347e-05
17450.0 5.112e-05
17470.0 5.0878e-05
17490.0 5.0641e-05
17510.0 5.0411e-05
17530.0 5.0174e-05
17550.0 4.9932e-05
17570.0 4.9698e-05
17590.0 4.9465e-05
17610.0 4.922e-05
17630.0 4.8979e-05
17650.0 4.8744e-05
17670.0 4.8502e-05
17690.0 4.8249e-05
17710.0 4.8012e-05
17730.0 4.7772e-05
17750.0 4.7524e-05
17770.0 4.7278e-05
17790.0 4.7041e-05
17810.0 4.6792e-05
17830.0 4.654e-05
17850.0 4.6296e-05
17870.0 4.6051e-05
17890.0 4.5796e-05
17910.0 4.5545e-05
17930.0 4.5303e-05
17950.0 4.5052e-05
17970.0 4.4798e-05
17990.0 4.4552e-05
18010.0 4.4305e-05
18030.0 4.4044e-05
18050.0 4.3792e-05
18070.0 4.3544e-05
18090.0 4.3289e-05
18110.0 4.3031e-05
18130.0 4.2783e-05
18150.0 4.2532e-05
18170.0 4.2273e-05
18190.0 4.2019e-05
18210.0 4.177e-05
18230.0 4.151e-05
18250.0 4.1248e-05
18270.0 4.0998e-05
18290.0 4.0744e-05
18310.0 4.0483e-05
18330.0 4.0228e-05
18350.0 3.9978e-05
18370.0 3.9717e-05
18390.0 3.9457e-05
18410.0 3.9205e-05
18430.0 3.8949e-05
18450.0 3.8683e-05
18470.0 3.8428e-05
18490.0 3.8176e-05
18510.0 3.7916e-05
18530.0 3.7656e-05
18550.0 3.7405e-05
18570.0 3.7147e-05
18590.0 3.6883e-05
18610.0 3.6627e-05
18630.0 3.6374e-05
18650.0 3.6112e-05
18670.0 3.585e-05
18690.0 3.56e-05
18710.0 3.5343e-05
18730.0 3.5082e-05
18750.0 3.4828e-05
18770.0 3.4576e-05
18790.0 3.4311e-05
18810.0 3.4052e-05
18830.0 3.3801e-05
18850.0 3.3544e-05
18870.0 3.3282e-05
18890.0 3.303e-05
18910.0 3.2779e-05
18930.0 3.2519e-05
18950.0 3.2262e-05
18970.0 3.2012e-05
18990.0 3.1756e-05
19010.0 3.1492e-05
19030.0 3.1243e-05
19050.0 3.0992e-05
19070.0 3.0734e-05
19090.0 3.048e-05
19110.0 3.0234e-05
19130.0 2.9977e-05
19150.0 2.972e-05
19170.0 2.9471e-05
19190.0 2.9221e-05
19210.0 2.8963e-05
19230.0 2.871e-05
19250.0 2.8467e-05
19270.0 2.8214e-05
19290.0 2.7961e-05
19310.0 2.7716e-05
19330.0 2.7469e-05
19350.0 2.7211e-05
19370.0 2.6963e-05
19390.0 2.6719e-05
19410.0 2.6469e-05
19430.0 2.6217e-05
19450.0 2.5976e-05
19470.0 2.5731e-05
19490.0 2.548e-05
19510.0 2.5235e-05
19530.0 2.4995e-05
19550.0 2.4746e-05
19570.0 2.4495e-05
19590.0 2.4257e-05
19610.0 2.4015e-05
19630.0 2.3767e-05
19650.0 2.3526e-05
19670.0 2.329e-05
19690.0 2.3044e-05
19710.0 2.28e-05
19730.0 2.2564e-05
19750.0 2.2324e-05
19770.0 2.2077e-05
19790.0 2.184e-05
19810.0 2.1606e-05
19830.0 2.1364e-05
19850.0 2.1122e-05
19870.0 2.0887e-05
19890.0 2.0638e-05
19910.0 2.0374e-05
19930.0 2.0104e-05
19950.0 1.9811e-05
19970.0 1.9475e-05
19990.0 1.91e-05
20010.0 1.8701e-05
20030.0 1.8251e-05
20050.0 1.776e-05
20070.0 1.7265e-05
20090.0 1.677e-05
20110.0 1.6255e-05
20130.0 1.5778e-05
20150.0 1.5345e-05
20170.0 1.4937e-05
20190.0 1.4563e-05
20210.0 1.4245e-05
20230.0 1.3966e-05
20250.0 1.3716e-05
20270.0 1.3512e-05
20290.0 1.3348e-05
20310.0 1.3215e-05
20330.0 1.3114e-05
20350.0 1.3049e-05
20370.0 1.3011e-05
20390.0 1.3002e-05
20410.0 1.3019e-05
20430.0 1.306e-05
20450.0 1.313e-05
20470.0 1.3227e-05
20490.0 1.3344e-05
20510.0 1.3485e-05
20530.0 1.3657e-05
20550.0 1.3848e-05
20570.0 1.4051e-05
20590.0 1.4281e-05
20610.0 1.4528e-05
20630.0 1.4777e-05
20650.0 1.5037e-05
20670.0 1.5317e-05
20690.0 1.5583e-05
20710.0 1.5842e-05
20730.0 1.6104e-05
20750.0 1.6358e-05
20770.0 1.659e-05
20790.0 1.6819e-05
20810.0 1.7045e-05
20830.0 1.7257e-05
20850.0 1.7462e-05
20870.0 1.7676e-05
20890.0 1.7892e-05
20910.0 1.8102e-05
20930.0 1.8324e-05
20950.0 1.856e-05
20970.0 1.8796e-05
20990.0 1.9035e-05
21010.0 1.929e-05
21030.0 1.9541e-05
21050.0 1.9779e-05
21070.0 2.0011e-05
21090.0 2.0236e-05
21110.0 2.0428e-05
21130.0 2.0595e-05
21150.0 2.0739e-05
21170.0 2.085e-05
21190.0 2.0924e-05
21210.0 2.0968e-05
21230.0 2.0977e-05
21250.0 2.095e-05
21270.0 2.0891e-05
21290.0 2.0798e-05
21310.0 2.0675e-05
21330.0 2.053e-05
21350.0 2.0355e-05
21370.0 2.0153e-05
21390.0 1.9938e-05
21410.0 1.9707e-05
21430.0 1.9447e-05
21450.0 1.9184e-05
21470.0 1.8921e-05
21490.0 1.8647e-05
21510.0 1.8369e-05
21530.0 1.8106e-05
21550.0 1.7847e-05
21570.0 1.7589e-05
21590.0 1.7352e-05
21610.0 1.7138e-05
21630.0 1.6938e-05
21650.0 1.6758e-05
21670.0 1.6615e-05
21690.0 1.6497e-05
21710.0 1.6408e-05
21730.0 1.6352e-05
21750.0 1.6327e-05
21770.0 1.6335e-05
21790.0 1.6378e-05
21810.0 1.645e-05
21830.0 1.6553e-05
21850.0 1.6691e-05
21870.0 1.6853e-05
21890.0 1.7035e-05
21910.0 1.7248e-05
21930.0 1.7483e-05
21950.0 1.7727e-05
21970.0 1.7992e-05
21990.0 1.8283e-05
22010.0 1.8571e-05
22030.0 1.8862e-05
22050.0 1.9167e-05
22070.0 1.9473e-05
22090.0 1.9762e-05
22110.0 2.0054e-05
22130.0 2.0344e-05
22150.0 2.0613e-05
22170.0 2.0862e-05
22190.0 2.1103e-05
22210.0 2.1318e-05
22230.0 2.1497e-05
22250.0 2.1651e-05
22270.0 2.1775e-05
22290.0 2.186e-05
22310.0 2.1908e-05
22330.0 2.1918e-05
22350.0 2.1885e-05
22370.0 2.1811e-05
22390.0 2.1694e-05
22410.0 2.1528e-05
22430.0 2.1327e-05
22450.0 2.1089e-05
22470.0 2.0803e-05
22490.0 2.0483e-05
22510.0 2.0141e-05
22530.0 1.9755e-05
22550.0 1.9332e-05
22570.0 1.8904e-05
22590.0 1.8457e-05
22610.0 1.7979e-05
22630.0 1.7494e-05
22650.0 1.7023e-05
