#lamb flux
1010.0 1.1667e-08
1030.0 1.2904e-08
1050.0 1.4326e-08
1070.0 1.5927e-08
1090.0 1.7746e-08
1110.0 1.9612e-08
1130.0 2.1489e-08
1150.0 2.3456e-08
1170.0 2.5485e-08
1190.0 2.7409e-08
1210.0 2.9359e-08
1230.0 3.1373e-08
1250.0 3.3347e-08
1270.0 3.5264e-08
1290.0 3.729e-08
1310.0 3.9314e-08
1330.0 4.1256e-08
1350.0 4.3219e-08
1370.0 4.5246e-08
1390.0 4.7222e-08
1410.0 4.9139e-08
1430.0 5.1144e-08
1450.0 5.3148e-08
1470.0 5.5086e-08
1490.0 5.7044e-08
1510.0 5.9113e-08
1530.0 6.1073e-08
1550.0 6.3008e-08
1570.0 6.5009e-08
1590.0 6.7013e-08
1610.0 6.8929e-08
1630.0 7.0904e-08
1650.0 7.2932e-08
1670.0 7.4895e-08
1690.0 7.6834e-08
1710.0 7.8849e-08
1730.0 8.0876e-08
1750.0 8.2785e-08
1770.0 8.4752e-08
1790.0 8.6761e-08
1810.0 8.8708e-08
1830.0 9.0624e-08
1850.0 9.266e-08
1870.0 9.4647e-08
1890.0 9.6571e-08
1910.0 9.8537e-08
1930.0 1.0055e-07
1950.0 1.0248e-07
1970.0 1.0439e-07
1990.0 1.0638e-07
2010.0 1.0834e-07
2030.0 1.1023e-07
2050.0 1.1219e-07
2070.0 1.142e-07
2090.0 1.161e-07
2110.0 1.18e-07
2130.0 1.1996e-07
2150.0 1.2188e-07
2170.0 1.2373e-07
2190.0 1.2565e-07
2210.0 1.2758e-07
2230.0 1.2944e-07
2250.0 1.313e-07
2270.0 1.3324e-07
2290.0 1.3512e-07
2310.0 1.3693e-07
2330.0 1.3881e-07
2350.0 1.4075e-07
2370.0 1.4267e-07
2390.0 1.4475e-07
2410.0 1.4722e-07
2430.0 1.5007e-07
2450.0 1.5346e-07
2470.0 1.5781e-07
2490.0 1.633e-07
2510.0 1.6953e-07
2530.0 1.7703e-07
2550.0 1.8643e-07
2570.0 1.9811e-07
2590.0 2.1331e-07
2610.0 2.3607e-07
2630.0 2.6856e-07
2650.0 3.1104e-07
2670.0 3.6597e-07
2690.0 4.3347e-07
2710.0 5.0552e-07
2730.0 5.7671e-07
2750.0 6.4684e-07
2770.0 7.0783e-07
2790.0 7.5627e-07
2810.0 7.9471e-07
2830.0 8.2474e-07
2850.0 8.4524e-07
2870.0 8.6028e-07
2890.0 8.722e-07
2910.0 8.817e-07
2930.0 8.8947e-07
2950.0 8.9689e-07
2970.0 9.0414e-07
2990.0 9.1094e-07
3010.0 2.5748e-05
3030.0 2.5941e-05
3050.0 2.6127e-05
3070.0 2.6286e-05
3090.0 2.6423e-05
3110.0 2.6508e-05
3130.0 2.6505e-05
3150.0 2.6387e-05
3170.0 2.6104e-05
3190.0 2.5661e-05
3210.0 2.5098e-05
3230.0 2.4453e-05
3250.0 2.3818e-05
3270.0 2.3353e-05
3290.0 2.3095e-05
3310.0 2.3137e-05
3330.0 2.3472e-05
3350.0 2.4055e-05
3370.0 2.4887e-05
3390.0 2.5937e-05
3410.0 2.7078e-05
3430.0 2.836e-05
3450.0 2.9836e-05
3470.0 3.1448e-05
3490.0 3.3156e-05
3510.0 3.5087e-05
3530.0 3.7154e-05
3550.0 3.9247e-05
3570.0 4.143e-05
3590.0 4.3805e-05
3610.0 4.6252e-05
3630.0 4.8691e-05
3650.0 5.1222e-05
3670.0 5.3532e-05
3690.0 5.5259e-05
3710.0 5.6249e-05
3730.0 5.6282e-05
3750.0 5.5498e-05
3770.0 5.5191e-05
3790.0 5.4863e-05
3810.0 5.3514e-05
3830.0 5.5171e-05
3850.0 6.1687e-05
3870.0 6.5265e-05
3890.0 6.4967e-05
3910.0 6.5244e-05
3930.0 6.6961e-05
3950.0 6.8019e-05
3970.0 6.1971e-05
3990.0 5.3323e-05
4010.0 0.00015982
4030.0 0.00019364
4050.0 0.000222
4070.0 0.00019262
4090.0 0.00017446
4110.0 0.00015394
4130.0 0.00014169
4150.0 0.00015071
4170.0 0.00014846
4190.0 0.00015825
4210.0 0.0001568
4230.0 0.00016585
4250.0 0.0001962
4270.0 0.00019851
4290.0 0.00018293
4310.0 0.00019007
4330.0 0.00020218
4350.0 0.00022669
4370.0 0.00025798
4390.0 0.00024209
4410.0 0.00017886
4430.0 0.00015142
4450.0 0.00013914
4470.0 0.00010679
4490.0 0.00011524
4510.0 0.00017407
4530.0 0.00020076
4550.0 0.0002025
4570.0 0.00022787
4590.0 0.00025956
4610.0 0.00035008
4630.0 0.00045469
4650.0 0.0004931
4670.0 0.00045666
4690.0 0.00043573
4710.0 0.0004606
4730.0 0.00043468
4750.0 0.00032498
4770.0 0.00023838
4790.0 0.0002226
4810.0 0.00021218
4830.0 0.00019425
4850.0 0.00021315
4870.0 0.00028159
4890.0 0.00033208
4910.0 0.00029136
4930.0 0.00025781
4950.0 0.00028324
4970.0 0.00036324
4990.0 0.00049228
5010.0 0.0005663
5030.0 0.00049934
5050.0 0.00033784
5070.0 0.00022265
5090.0 0.00017953
5110.0 0.00018463
5130.0 0.0002131
5150.0 0.00023087
5170.0 0.00022741
5190.0 0.0002125
5210.0 0.00022211
5230.0 0.00023348
5250.0 0.00025163
5270.0 0.00027149
5290.0 0.00030086
5310.0 0.00035019
5330.0 0.00038753
5350.0 0.00038505
5370.0 0.00040446
5390.0 0.00046412
5410.0 0.0004637
5430.0 0.00041007
5450.0 0.00037676
5470.0 0.00040005
5490.0 0.00048874
5510.0 0.00061109
5530.0 0.00070089
5550.0 0.00067741
5570.0 0.00061581
5590.0 0.00053545
5610.0 0.0004938
5630.0 0.00047883
5650.0 0.00045604
5670.0 0.00043213
5690.0 0.00038632
5710.0 0.00037666
5730.0 0.00034696
5750.0 0.00024462
5770.0 0.00019085
5790.0 0.00021627
5810.0 0.0002442
5830.0 0.00029967
5850.0 0.00035672
5870.0 0.00039578
5890.0 0.00040248
5910.0 0.00039486
5930.0 0.00037586
5950.0 0.00038299
5970.0 0.00043656
5990.0 0.00041048
6010.0 0.0003441
6030.0 0.00029072
6050.0 0.00025318
6070.0 0.00025179
6090.0 0.00027303
6110.0 0.00030529
6130.0 0.00030997
6150.0 0.0002667
6170.0 0.00023461
6190.0 0.00026402
6210.0 0.00034903
6230.0 0.00045803
6250.0 0.00049611
6270.0 0.00043354
6290.0 0.00036476
6310.0 0.00028476
6330.0 0.00021818
6350.0 0.00019461
6370.0 0.00020465
6390.0 0.00023659
6410.0 0.00029173
6430.0 0.00034065
6450.0 0.0003898
6470.0 0.00044633
6490.0 0.00053913
6510.0 0.00060282
6530.0 0.0005914
6550.0 0.00053479
6570.0 0.00045399
6590.0 0.00040937
6610.0 0.00035298
6630.0 0.00031979
6650.0 0.00030229
6670.0 0.00029367
6690.0 0.00026535
6710.0 0.00024121
6730.0 0.00017374
6750.0 0.00017224
6770.0 0.00018721
6790.0 0.00021519
6810.0 0.0001969
6830.0 0.00020275
6850.0 0.00018964
6870.0 0.00017324
6890.0 0.00016633
6910.0 0.00017725
6930.0 0.00016602
6950.0 0.00017081
6970.0 0.00017966
6990.0 0.00020393
7010.0 0.00020566
7030.0 0.00020893
7050.0 0.00019925
7070.0 0.00018985
7090.0 0.0001904
7110.0 0.00019591
7130.0 0.00021083
7150.0 0.00022392
7170.0 0.00024708
7190.0 0.00027161
7210.0 0.00026689
7230.0 0.00027437
7250.0 0.00029485
7270.0 0.00032132
7290.0 0.00038137
7310.0 0.00041383
7330.0 0.0004
7350.0 0.00036177
7370.0 0.00031477
7390.0 0.00030537
7410.0 0.00032451
7430.0 0.00036066
7450.0 0.00039282
7470.0 0.00038921
7490.0 0.00035489
7510.0 0.000402
7530.0 0.0003976
7550.0 0.00035737
7570.0 0.00027918
7590.0 0.00019193
7610.0 0.00016473
7630.0 0.00018717
7650.0 0.0002213
7670.0 0.00027543
7690.0 0.00030309
7710.0 0.00031585
7730.0 0.00033192
7750.0 0.00037262
7770.0 0.00037849
7790.0 0.00034766
7810.0 0.00031722
7830.0 0.00032713
7850.0 0.000318
7870.0 0.00029155
7890.0 0.00024496
7910.0 0.00019912
7930.0 0.00019013
7950.0 0.00017322
7970.0 0.00016034
7990.0 0.00015943
8010.0 1.1813e-05
8030.0 1.1659e-05
8050.0 1.1502e-05
8070.0 1.1654e-05
8090.0 1.2523e-05
8110.0 1.231e-05
8130.0 1.0152e-05
8150.0 9.8873e-06
8170.0 8.5146e-06
8190.0 8.0679e-06
8210.0 1.0481e-05
8230.0 1.167e-05
8250.0 1.0514e-05
8270.0 9.1506e-06
8290.0 8.9228e-06
8310.0 6.868e-06
8330.0 4.6289e-06
8350.0 3.2852e-06
8370.0 2.0687e-06
8390.0 3.7836e-06
8410.0 4.4088e-06
8430.0 5.4346e-06
8450.0 6.3816e-06
8470.0 7.9334e-06
8490.0 7.8767e-06
8510.0 7.7471e-06
8530.0 8.0834e-06
8550.0 1.091e-05
8570.0 1.2918e-05
8590.0 1.3935e-05
8610.0 1.7605e-05
8630.0 2.1206e-05
8650.0 2.2179e-05
8670.0 2.3572e-05
8690.0 2.3709e-05
8710.0 2.1471e-05
8730.0 1.9973e-05
8750.0 1.7629e-05
8770.0 1.6727e-05
8790.0 1.6434e-05
8810.0 1.5749e-05
8830.0 1.2591e-05
8850.0 9.2158e-06
8870.0 7.0561e-06
8890.0 6.9011e-06
8910.0 7.9106e-06
8930.0 8.9992e-06
8950.0 9.172e-06
8970.0 9.215e-06
8990.0 8.2171e-06
9010.0 8.6051e-05
9030.0 7.7971e-05
9050.0 7.8347e-05
9070.0 7.8966e-05
9090.0 7.9509e-05
9110.0 8.0179e-05
9130.0 8.0696e-05
9150.0 8.1098e-05
9170.0 8.1526e-05
9190.0 8.1983e-05
9210.0 8.2465e-05
9230.0 8.2974e-05
9250.0 8.349e-05
9270.0 8.4026e-05
9290.0 8.4578e-05
9310.0 8.5133e-05
9330.0 8.57e-05
9350.0 8.6288e-05
9370.0 8.6882e-05
9390.0 8.7482e-05
9410.0 8.81e-05
9430.0 8.8736e-05
9450.0 8.937e-05
9470.0 9.0017e-05
9490.0 9.0683e-05
9510.0 9.1357e-05
9530.0 9.2033e-05
9550.0 9.2734e-05
9570.0 9.3447e-05
9590.0 9.4161e-05
9610.0 9.4888e-05
9630.0 9.5635e-05
9650.0 9.6387e-05
9670.0 9.7141e-05
9690.0 9.7916e-05
9710.0 9.8702e-05
9730.0 9.949e-05
9750.0 0.00010029
9770.0 0.00010111
9790.0 0.00010194
9810.0 0.00010276
9830.0 0.00010361
9850.0 0.00010446
9870.0 0.00010531
9890.0 0.00010618
9910.0 0.00010706
9930.0 0.00010794
9950.0 0.00010883
9970.0 0.00010973
9990.0 0.00011064
10010.0 9.6008e-05
10030.0 9.6796e-05
10050.0 9.7601e-05
10070.0 9.8432e-05
10090.0 9.9217e-05
10110.0 0.00010002
10130.0 0.00010083
10150.0 0.00010163
10170.0 0.00010244
10190.0 0.00010327
10210.0 0.00010409
10230.0 0.00010491
10250.0 0.00010574
10270.0 0.00010656
10290.0 0.00010738
10310.0 0.00010821
10330.0 0.00010905
10350.0 0.00010987
10370.0 0.00011069
10390.0 0.00011152
10410.0 0.00011234
10430.0 0.00011315
10450.0 0.00011397
10470.0 0.00011479
10490.0 0.00011559
10510.0 0.00011639
10530.0 0.00011721
10550.0 0.00011801
10570.0 0.00011879
10590.0 0.00011958
10610.0 0.00012036
10630.0 0.00012113
10650.0 0.00012189
10670.0 0.00012266
10690.0 0.00012341
10710.0 0.00012415
10730.0 0.00012489
10750.0 0.00012563
10770.0 0.00012634
10790.0 0.00012704
10810.0 0.00012775
10830.0 0.00012843
10850.0 0.00012908
10870.0 0.0001297
10890.0 0.00013026
10910.0 0.00013068
10930.0 0.00013092
10950.0 0.00013086
10970.0 0.00013042
10990.0 0.00012955
11010.0 0.00012809
11030.0 0.00012605
11050.0 0.00012357
11070.0 0.0001206
11090.0 0.00011703
11110.0 0.00011334
11130.0 0.00010949
11150.0 0.00010534
11170.0 0.00010107
11190.0 9.6927e-05
11210.0 9.2647e-05
11230.0 8.8258e-05
11250.0 8.4064e-05
11270.0 8.0037e-05
11290.0 7.6002e-05
11310.0 7.218e-05
11330.0 6.8814e-05
11350.0 6.5634e-05
11370.0 6.2695e-05
11390.0 6.0153e-05
11410.0 5.7929e-05
11430.0 5.5862e-05
11450.0 5.4082e-05
11470.0 5.2542e-05
11490.0 5.1109e-05
11510.0 4.9729e-05
11530.0 4.8448e-05
11550.0 4.7175e-05
11570.0 4.5818e-05
11590.0 4.4412e-05
11610.0 4.2981e-05
11630.0 4.1423e-05
11650.0 3.9756e-05
11670.0 3.8112e-05
11690.0 3.6446e-05
11710.0 3.4727e-05
11730.0 3.3061e-05
11750.0 3.1519e-05
11770.0 3.0007e-05
11790.0 2.859e-05
11810.0 2.7342e-05
11830.0 2.6227e-05
11850.0 2.5199e-05
11870.0 2.434e-05
11890.0 2.3625e-05
11910.0 2.2997e-05
11930.0 2.2457e-05
11950.0 2.2008e-05
11970.0 2.1607e-05
11990.0 2.1227e-05
12010.0 2.0876e-05
12030.0 2.0537e-05
12050.0 2.0188e-05
12070.0 1.9824e-05
12090.0 1.9473e-05
12110.0 1.9117e-05
12130.0 1.876e-05
12150.0 1.8431e-05
12170.0 1.8144e-05
12190.0 1.7896e-05
12210.0 1.7723e-05
12230.0 1.7639e-05
12250.0 1.7652e-05
12270.0 1.7785e-05
12290.0 1.8037e-05
12310.0 1.8398e-05
12330.0 1.8903e-05
12350.0 1.9533e-05
12370.0 2.0251e-05
12390.0 2.1078e-05
12410.0 2.2047e-05
12430.0 2.3033e-05
12450.0 2.4053e-05
12470.0 2.5138e-05
12490.0 2.6227e-05
12510.0 2.725e-05
12530.0 2.8267e-05
12550.0 2.9248e-05
12570.0 3.0114e-05
12590.0 3.0874e-05
12610.0 3.1552e-05
12630.0 3.2092e-05
12650.0 3.2464e-05
12670.0 3.2709e-05
12690.0 3.2808e-05
12710.0 3.2753e-05
12730.0 3.2563e-05
12750.0 3.2225e-05
12770.0 3.176e-05
12790.0 3.1196e-05
12810.0 3.0523e-05
12830.0 2.9744e-05
12850.0 2.893e-05
12870.0 2.8069e-05
12890.0 2.7137e-05
12910.0 2.619e-05
12930.0 2.5256e-05
12950.0 2.4282e-05
12970.0 2.329e-05
12990.0 2.2352e-05
13010.0 2.1426e-05
13030.0 2.0489e-05
13050.0 1.9589e-05
13070.0 1.8746e-05
13090.0 1.79e-05
13110.0 1.7082e-05
13130.0 1.6327e-05
13150.0 1.5613e-05
13170.0 1.4913e-05
13190.0 1.4291e-05
13210.0 1.3743e-05
13230.0 1.3242e-05
13250.0 1.2811e-05
13270.0 1.247e-05
13290.0 1.2206e-05
13310.0 1.2024e-05
13330.0 1.1941e-05
13350.0 1.195e-05
13370.0 1.2057e-05
13390.0 1.2268e-05
13410.0 1.2553e-05
13430.0 1.2922e-05
13450.0 1.3379e-05
13470.0 1.3887e-05
13490.0 1.4424e-05
13510.0 1.503e-05
13530.0 1.5644e-05
13550.0 1.6232e-05
13570.0 1.6812e-05
13590.0 1.7376e-05
13610.0 1.7879e-05
13630.0 1.8318e-05
13650.0 1.8718e-05
13670.0 1.9051e-05
13690.0 1.9308e-05
13710.0 1.9507e-05
13730.0 1.9649e-05
13750.0 1.972e-05
13770.0 1.9736e-05
13790.0 1.97e-05
13810.0 1.9613e-05
13830.0 1.9485e-05
13850.0 1.9311e-05
13870.0 1.9091e-05
13890.0 1.884e-05
13910.0 1.8557e-05
13930.0 1.823e-05
13950.0 1.7872e-05
13970.0 1.7506e-05
13990.0 1.7108e-05
14010.0 1.6685e-05
14030.0 1.6262e-05
14050.0 1.5836e-05
14070.0 1.5387e-05
14090.0 1.4956e-05
14110.0 1.4552e-05
14130.0 1.4159e-05
14150.0 1.379e-05
14170.0 1.3475e-05
14190.0 1.3203e-05
14210.0 1.2971e-05
14230.0 1.28e-05
14250.0 1.269e-05
14270.0 1.2636e-05
14290.0 1.2647e-05
14310.0 1.2718e-05
14330.0 1.2845e-05
14350.0 1.3031e-05
14370.0 1.3263e-05
14390.0 1.3527e-05
14410.0 1.3837e-05
14430.0 1.4178e-05
14450.0 1.4526e-05
14470.0 1.4887e-05
14490.0 1.5271e-05
14510.0 1.5639e-05
14530.0 1.5988e-05
14550.0 1.6336e-05
14570.0 1.6671e-05
14590.0 1.6976e-05
14610.0 1.7271e-05
14630.0 1.7562e-05
14650.0 1.7834e-05
14670.0 1.8096e-05
14690.0 1.837e-05
14710.0 1.8658e-05
14730.0 1.8945e-05
14750.0 1.9264e-05
14770.0 1.9625e-05
14790.0 2.0017e-05
14810.0 2.0442e-05
14830.0 2.0945e-05
14850.0 2.1491e-05
14870.0 2.2062e-05
14890.0 2.2677e-05
14910.0 2.3331e-05
14930.0 2.3959e-05
14950.0 2.4546e-05
14970.0 2.5102e-05
14990.0 2.5569e-05
15010.0 2.5925e-05
15030.0 2.6189e-05
15050.0 2.6364e-05
15070.0 2.6449e-05
15090.0 2.6479e-05
15110.0 2.647e-05
15130.0 2.6437e-05
15150.0 2.6392e-05
15170.0 2.6339e-05
15190.0 2.6283e-05
15210.0 2.6227e-05
15230.0 2.6171e-05
15250.0 2.6113e-05
15270.0 2.6056e-05
15290.0 2.6002e-05
15310.0 2.5946e-05
15330.0 2.589e-05
15350.0 2.5836e-05
15370.0 2.5783e-05
15390.0 2.5726e-05
15410.0 2.5672e-05
15430.0 2.562e-05
15450.0 2.5566e-05
15470.0 2.5511e-05
15490.0 2.5459e-05
15510.0 2.5407e-05
15530.0 2.5353e-05
15550.0 2.5301e-05
15570.0 2.525e-05
15590.0 2.5197e-05
15610.0 2.5144e-05
15630.0 2.5093e-05
15650.0 2.5042e-05
15670.0 2.499e-05
15690.0 2.4939e-05
15710.0 2.4889e-05
15730.0 2.4838e-05
15750.0 2.4786e-05
15770.0 2.4737e-05
15790.0 2.4687e-05
15810.0 2.4634e-05
15830.0 2.4584e-05
15850.0 2.4536e-05
15870.0 2.4485e-05
15890.0 2.4435e-05
15910.0 2.4386e-05
15930.0 2.4337e-05
15950.0 2.4286e-05
15970.0 2.4236e-05
15990.0 2.4188e-05
16010.0 2.4138e-05
16030.0 2.4087e-05
16050.0 2.4039e-05
16070.0 2.399e-05
16090.0 2.394e-05
16110.0 2.3891e-05
16130.0 2.3844e-05
16150.0 2.3792e-05
16170.0 2.3742e-05
16190.0 2.3695e-05
16210.0 2.3645e-05
16230.0 2.3595e-05
16250.0 2.3546e-05
16270.0 2.3499e-05
16290.0 2.3448e-05
16310.0 2.3399e-05
16330.0 2.3351e-05
16350.0 2.3301e-05
16370.0 2.3249e-05
16390.0 2.3201e-05
16410.0 2.3153e-05
16430.0 2.3102e-05
16450.0 2.3052e-05
16470.0 2.3005e-05
16490.0 2.2955e-05
16510.0 2.2903e-05
16530.0 2.2854e-05
16550.0 2.2805e-05
16570.0 2.2754e-05
16590.0 2.2703e-05
16610.0 2.2655e-05
16630.0 2.2604e-05
16650.0 2.2553e-05
16670.0 2.2504e-05
16690.0 2.2455e-05
16710.0 2.2402e-05
16730.0 2.2351e-05
16750.0 2.2302e-05
16770.0 2.225e-05
16790.0 2.2198e-05
16810.0 2.2148e-05
16830.0 2.2098e-05
16850.0 2.2045e-05
16870.0 2.1994e-05
16890.0 2.1944e-05
16910.0 2.1891e-05
16930.0 2.1838e-05
16950.0 2.1787e-05
16970.0 2.1736e-05
16990.0 2.1682e-05
17010.0 2.163e-05
17030.0 2.1579e-05
17050.0 2.1526e-05
17070.0 2.1472e-05
17090.0 2.1421e-05
17110.0 2.1368e-05
17130.0 2.1313e-05
17150.0 2.126e-05
17170.0 2.1208e-05
17190.0 2.1154e-05
17210.0 2.11e-05
17230.0 2.1047e-05
17250.0 2.0994e-05
17270.0 2.0938e-05
17290.0 2.0884e-05
17310.0 2.0831e-05
17330.0 2.0775e-05
17350.0 2.0719e-05
17370.0 2.0666e-05
17390.0 2.0612e-05
17410.0 2.0556e-05
17430.0 2.0501e-05
17450.0 2.0448e-05
17470.0 2.039e-05
17490.0 2.0334e-05
17510.0 2.0279e-05
17530.0 2.0224e-05
17550.0 2.0166e-05
17570.0 2.0111e-05
17590.0 2.0056e-05
17610.0 1.9998e-05
17630.0 1.9942e-05
17650.0 1.9886e-05
17670.0 1.983e-05
17690.0 1.977e-05
17710.0 1.9714e-05
17730.0 1.9658e-05
17750.0 1.96e-05
17770.0 1.9542e-05
17790.0 1.9487e-05
17810.0 1.9428e-05
17830.0 1.9369e-05
17850.0 1.9312e-05
17870.0 1.9255e-05
17890.0 1.9195e-05
17910.0 1.9137e-05
17930.0 1.908e-05
17950.0 1.9021e-05
17970.0 1.8962e-05
17990.0 1.8905e-05
18010.0 1.8847e-05
18030.0 1.8786e-05
18050.0 1.8727e-05
18070.0 1.8669e-05
18090.0 1.8609e-05
18110.0 1.8549e-05
18130.0 1.8491e-05
18150.0 1.8432e-05
18170.0 1.8371e-05
18190.0 1.8312e-05
18210.0 1.8254e-05
18230.0 1.8193e-05
18250.0 1.8131e-05
18270.0 1.8073e-05
18290.0 1.8013e-05
18310.0 1.7952e-05
18330.0 1.7892e-05
18350.0 1.7834e-05
18370.0 1.7772e-05
18390.0 1.7711e-05
18410.0 1.7652e-05
18430.0 1.7591e-05
18450.0 1.7529e-05
18470.0 1.7469e-05
18490.0 1.7409e-05
18510.0 1.7348e-05
18530.0 1.7286e-05
18550.0 1.7227e-05
18570.0 1.7166e-05
18590.0 1.7103e-05
18610.0 1.7043e-05
18630.0 1.6983e-05
18650.0 1.6921e-05
18670.0 1.6858e-05
18690.0 1.6799e-05
18710.0 1.6738e-05
18730.0 1.6676e-05
18750.0 1.6615e-05
18770.0 1.6555e-05
18790.0 1.6492e-05
18810.0 1.643e-05
18830.0 1.637e-05
18850.0 1.6308e-05
18870.0 1.6245e-05
18890.0 1.6185e-05
18910.0 1.6124e-05
18930.0 1.6062e-05
18950.0 1.6e-05
18970.0 1.594e-05
18990.0 1.5878e-05
19010.0 1.5814e-05
19030.0 1.5753e-05
19050.0 1.5693e-05
19070.0 1.563e-05
19090.0 1.5568e-05
19110.0 1.5509e-05
19130.0 1.5446e-05
19150.0 1.5383e-05
19170.0 1.5322e-05
19190.0 1.5261e-05
19210.0 1.5198e-05
19230.0 1.5136e-05
19250.0 1.5076e-05
19270.0 1.5014e-05
19290.0 1.4951e-05
19310.0 1.4891e-05
19330.0 1.483e-05
19350.0 1.4766e-05
19370.0 1.4705e-05
19390.0 1.4645e-05
19410.0 1.4582e-05
19430.0 1.452e-05
19450.0 1.446e-05
19470.0 1.4399e-05
19490.0 1.4336e-05
19510.0 1.4275e-05
19530.0 1.4215e-05
19550.0 1.4152e-05
19570.0 1.4089e-05
19590.0 1.4029e-05
19610.0 1.3968e-05
19630.0 1.3905e-05
19650.0 1.3845e-05
19670.0 1.3785e-05
19690.0 1.3722e-05
19710.0 1.3661e-05
19730.0 1.36e-05
19750.0 1.3539e-05
19770.0 1.3476e-05
19790.0 1.3416e-05
19810.0 1.3356e-05
19830.0 1.3294e-05
19850.0 1.3231e-05
19870.0 1.317e-05
19890.0 1.3104e-05
19910.0 1.3032e-05
19930.0 1.2955e-05
19950.0 1.2866e-05
19970.0 1.2757e-05
19990.0 1.2626e-05
20010.0 1.1233e-05
20030.0 1.1071e-05
20050.0 1.0881e-05
20070.0 1.0674e-05
20090.0 1.0453e-05
20110.0 1.0202e-05
20130.0 9.9478e-06
20150.0 9.6961e-06
20170.0 9.4352e-06
20190.0 9.1705e-06
20210.0 8.9205e-06
20230.0 8.6767e-06
20250.0 8.4323e-06
20270.0 8.2055e-06
20290.0 7.9985e-06
20310.0 7.8017e-06
20330.0 7.6178e-06
20350.0 7.4652e-06
20370.0 7.3297e-06
20390.0 7.2109e-06
20410.0 7.115e-06
20430.0 7.041e-06
20450.0 6.9824e-06
20470.0 6.9431e-06
20490.0 6.922e-06
20510.0 6.9159e-06
20530.0 6.9245e-06
20550.0 6.9458e-06
20570.0 6.977e-06
20590.0 7.0191e-06
20610.0 7.0701e-06
20630.0 7.1262e-06
20650.0 7.1891e-06
20670.0 7.2609e-06
20690.0 7.3341e-06
20710.0 7.4098e-06
20730.0 7.4915e-06
20750.0 7.5767e-06
20770.0 7.6606e-06
20790.0 7.7486e-06
20810.0 7.8417e-06
20830.0 7.9344e-06
20850.0 8.0275e-06
20870.0 8.1272e-06
20890.0 8.2288e-06
20910.0 8.3268e-06
20930.0 8.4286e-06
20950.0 8.5339e-06
20970.0 8.6367e-06
20990.0 8.7381e-06
21010.0 8.8447e-06
21030.0 8.9489e-06
21050.0 9.0484e-06
21070.0 9.1477e-06
21090.0 9.2473e-06
21110.0 9.3381e-06
21130.0 9.4235e-06
21150.0 9.5062e-06
21170.0 9.581e-06
21190.0 9.6455e-06
21210.0 9.7034e-06
21230.0 9.7516e-06
21250.0 9.7859e-06
21270.0 9.8077e-06
21290.0 9.8158e-06
21310.0 9.808e-06
21330.0 9.7849e-06
21350.0 9.7443e-06
21370.0 9.6846e-06
21390.0 9.6088e-06
21410.0 9.5159e-06
21430.0 9.3983e-06
21450.0 9.2663e-06
21470.0 9.1225e-06
21490.0 8.9599e-06
21510.0 8.7815e-06
21530.0 8.6003e-06
21550.0 8.4105e-06
21570.0 8.208e-06
21590.0 8.0088e-06
21610.0 7.8164e-06
21630.0 7.6238e-06
21650.0 7.4356e-06
21670.0 7.2725e-06
21690.0 7.1221e-06
21710.0 6.9866e-06
21730.0 6.8756e-06
21750.0 6.79e-06
21770.0 6.7248e-06
21790.0 6.6873e-06
21810.0 6.6769e-06
21830.0 6.6917e-06
21850.0 6.7335e-06
21870.0 6.7987e-06
21890.0 6.883e-06
21910.0 6.9911e-06
21930.0 7.1178e-06
21950.0 7.2552e-06
21970.0 7.4073e-06
21990.0 7.5781e-06
22010.0 7.7487e-06
22030.0 7.922e-06
22050.0 8.1041e-06
22070.0 8.2871e-06
22090.0 8.4604e-06
22110.0 8.6351e-06
22130.0 8.8095e-06
22150.0 8.9724e-06
22170.0 9.126e-06
22190.0 9.2782e-06
22210.0 9.4198e-06
22230.0 9.5445e-06
22250.0 9.6618e-06
22270.0 9.7699e-06
22290.0 9.8623e-06
22310.0 9.9415e-06
22330.0 1.0011e-05
22350.0 1.0065e-05
22370.0 1.0103e-05
22390.0 1.0127e-05
22410.0 1.0135e-05
22430.0 1.0125e-05
22450.0 1.0099e-05
22470.0 1.0054e-05
22490.0 9.9906e-06
22510.0 9.9117e-06
22530.0 9.8107e-06
22550.0 9.6879e-06
22570.0 9.5517e-06
22590.0 9.3981e-06
22610.0 9.2213e-06
22630.0 9.03e-06
