#lamb flux
1010.0 2.0273e-05
1030.0 2.6319e-05
1050.0 3.3424e-05
1070.0 4.1534e-05
1090.0 5.0763e-05
1110.0 6.0188e-05
1130.0 6.9465e-05
1150.0 7.8764e-05
1170.0 8.7739e-05
1190.0 9.5389e-05
1210.0 0.00010216
1230.0 0.00010805
1250.0 0.00011246
1270.0 0.00011529
1290.0 0.0001172
1310.0 0.00011774
1330.0 0.00011672
1350.0 0.00011478
1370.0 0.00011258
1390.0 0.00010925
1410.0 0.00010503
1430.0 0.00010047
1450.0 9.5497e-05
1470.0 9.0183e-05
1490.0 8.4863e-05
1510.0 7.9664e-05
1530.0 7.4335e-05
1550.0 6.9258e-05
1570.0 6.4592e-05
1590.0 6.0376e-05
1610.0 5.6735e-05
1630.0 5.3555e-05
1650.0 5.0799e-05
1670.0 4.8362e-05
1690.0 4.627e-05
1710.0 4.4573e-05
1730.0 4.3175e-05
1750.0 4.1717e-05
1770.0 4.053e-05
1790.0 3.9582e-05
1810.0 3.8809e-05
1830.0 3.8199e-05
1850.0 3.7406e-05
1870.0 3.6812e-05
1890.0 3.6345e-05
1910.0 3.6047e-05
1930.0 3.5925e-05
1950.0 3.5934e-05
1970.0 3.6115e-05
1990.0 3.6521e-05
2010.0 3.7138e-05
2030.0 3.7984e-05
2050.0 3.9139e-05
2070.0 4.0645e-05
2090.0 4.2485e-05
2110.0 4.475e-05
2130.0 4.7522e-05
2150.0 5.082e-05
2170.0 5.4677e-05
2190.0 5.9219e-05
2210.0 6.448e-05
2230.0 7.046e-05
2250.0 7.7235e-05
2270.0 8.4902e-05
2290.0 9.3398e-05
2310.0 0.00010271
2330.0 0.00011293
2350.0 0.00012402
2370.0 0.00013584
2390.0 0.0001484
2410.0 0.00016169
2430.0 0.00017539
2450.0 0.00018932
2470.0 0.00020336
2490.0 0.0002172
2510.0 0.00023062
2530.0 0.00024377
2550.0 0.00025711
2570.0 0.00027154
2590.0 0.00028843
2610.0 0.00031077
2630.0 0.0003413
2650.0 0.00038137
2670.0 0.00043424
2690.0 0.00050291
2710.0 0.00058386
2730.0 0.00067444
2750.0 0.00077747
2770.0 0.00088471
2790.0 0.00098816
2810.0 0.0010876
2830.0 0.001182
2850.0 0.0012607
2870.0 0.0013284
2890.0 0.0013888
2910.0 0.0014418
2930.0 0.0014877
2950.0 0.0015318
2970.0 0.0015745
2990.0 0.0016143
3010.0 0.0016526
3030.0 0.0016914
3050.0 0.0017291
3070.0 0.0017631
3090.0 0.0017962
3110.0 0.0018268
3130.0 0.0018521
3150.0 0.0018725
3170.0 0.0018883
3190.0 0.0018984
3210.0 0.0019051
3230.0 0.0019117
3250.0 0.0019211
3270.0 0.001935
3290.0 0.0019563
3310.0 0.0019873
3330.0 0.0020252
3350.0 0.0020668
3370.0 0.0021128
3390.0 0.0021605
3410.0 0.0022042
3430.0 0.002244
3450.0 0.0022758
3470.0 0.0023825
3490.0 0.0023707
3510.0 0.0021248
3530.0 0.0022425
3550.0 0.0026351
3570.0 0.0029323
3590.0 0.0032473
3610.0 0.0034641
3630.0 0.0036181
3650.0 0.0032715
3670.0 0.0028925
3690.0 0.0028364
3710.0 0.0031206
3730.0 0.0035794
3750.0 0.003605
3770.0 0.0036256
3790.0 0.0037523
3810.0 0.0035192
3830.0 0.003122
3850.0 0.002812
3870.0 0.0026601
3890.0 0.0029687
3910.0 0.0032283
3930.0 0.0033161
3950.0 0.00337
3970.0 0.0034987
3990.0 0.0036829
4010.0 0.0037103
4030.0 0.0035091
4050.0 0.003182
4070.0 0.0031504
4090.0 0.0033273
4110.0 0.0035287
4130.0 0.0034346
4150.0 0.0033416
4170.0 0.0033045
4190.0 0.0034563
4210.0 0.0034274
4230.0 0.0031662
4250.0 0.0028291
4270.0 0.0025469
4290.0 0.0023197
4310.0 0.0021579
4330.0 0.0021319
4350.0 0.0023293
4370.0 0.0023934
4390.0 0.0024687
4410.0 0.0025779
4430.0 0.0026281
4450.0 0.0025749
4470.0 0.00251
4490.0 0.0025909
4510.0 0.0026523
4530.0 0.0027122
4550.0 0.0027608
4570.0 0.0027795
4590.0 0.0028596
4610.0 0.0029003
4630.0 0.0029894
4650.0 0.0030908
4670.0 0.0030155
4690.0 0.0028194
4710.0 0.0025677
4730.0 0.0024582
4750.0 0.0024294
4770.0 0.0023473
4790.0 0.0022447
4810.0 0.0021625
4830.0 0.0022184
4850.0 0.0022748
4870.0 0.0021688
4890.0 0.002104
4910.0 0.0019685
4930.0 0.0020006
4950.0 0.0018579
4970.0 0.001692
4990.0 0.0016504
5010.0 0.00154
5030.0 0.0014423
5050.0 0.0014483
5070.0 0.0015677
5090.0 0.0016269
5110.0 0.0018037
5130.0 0.0018588
5150.0 0.0019175
5170.0 0.0019791
5190.0 0.0019396
5210.0 0.0019547
5230.0 0.0019938
5250.0 0.0020019
5270.0 0.0020501
5290.0 0.0020288
5310.0 0.0019889
5330.0 0.0018853
5350.0 0.0017847
5370.0 0.0016743
5390.0 0.0016994
5410.0 0.0017295
5430.0 0.00173
5450.0 0.001742
5470.0 0.0017236
5490.0 0.001697
5510.0 0.0016767
5530.0 0.0016365
5550.0 0.0016388
5570.0 0.0016589
5590.0 0.0016814
5610.0 0.0016704
5630.0 0.0016332
5650.0 0.0016136
5670.0 0.0015767
5690.0 0.0015306
5710.0 0.0014812
5730.0 0.0014615
5750.0 0.0014551
5770.0 0.0014245
5790.0 0.0014043
5810.0 0.0013946
5830.0 0.0014224
5850.0 0.001444
5870.0 0.0014478
5890.0 0.0014279
5910.0 0.0014257
5930.0 0.0014256
5950.0 0.0014236
5970.0 0.0014045
5990.0 0.0013804
6010.0 0.0014042
6030.0 0.001416
6050.0 0.0013857
6070.0 0.0013836
6090.0 0.0013765
6110.0 0.0013826
6130.0 0.0013822
6150.0 0.0013418
6170.0 0.0012445
6190.0 0.0011502
6210.0 0.0011051
6230.0 0.0010884
6250.0 0.0010954
6270.0 0.0011352
6290.0 0.0011703
6310.0 0.0012153
6330.0 0.0012504
6350.0 0.0012674
6370.0 0.0012697
6390.0 0.0012412
6410.0 0.0012142
6430.0 0.0011774
6450.0 0.0011489
6470.0 0.0011338
6490.0 0.0011349
6510.0 0.0011328
6530.0 0.0011313
6550.0 0.0011089
6570.0 0.0010855
6590.0 0.0010789
6610.0 0.0010564
6630.0 0.0010389
6650.0 0.0010192
6670.0 0.00098778
6690.0 0.00095909
6710.0 0.00093255
6730.0 0.00092251
6750.0 0.00090779
6770.0 0.00089661
6790.0 0.0008986
6810.0 0.00088425
6830.0 0.00087186
6850.0 0.00086288
6870.0 0.0008438
6890.0 0.00083725
6910.0 0.00083057
6930.0 0.00081533
6950.0 0.00081388
6970.0 0.00080231
6990.0 0.00080252
7010.0 0.00078976
7030.0 0.00078472
7050.0 0.00077808
7070.0 0.00076386
7090.0 0.00074533
7110.0 0.00072401
7130.0 0.00072328
7150.0 0.00073319
7170.0 0.00073984
7190.0 0.00074932
7210.0 0.00075691
7230.0 0.00076694
7250.0 0.00077147
7270.0 0.00075957
7290.0 0.00075355
7310.0 0.00073763
7330.0 0.00070631
7350.0 0.00069443
7370.0 0.00068699
7390.0 0.00067642
7410.0 0.0006789
7430.0 0.00067418
7450.0 0.00066332
7470.0 0.00065325
7490.0 0.00063515
7510.0 0.00059951
7530.0 0.00061047
7550.0 0.00061664
7570.0 0.00060058
7590.0 0.00056041
7610.0 0.00057003
7630.0 0.00056799
7650.0 0.00056862
7670.0 0.00057047
7690.0 0.0005785
7710.0 0.00057745
7730.0 0.00059787
7750.0 0.00061686
7770.0 0.00064352
7790.0 0.0006679
7810.0 0.00068597
7830.0 0.00071134
7850.0 0.00071163
7870.0 0.00072056
7890.0 0.00071058
7910.0 0.00068858
7930.0 0.00067706
7950.0 0.00066824
7970.0 0.00066273
7990.0 0.00066291
8010.0 0.00060323
8030.0 0.00059958
8050.0 0.00058759
8070.0 0.00058201
8090.0 0.00056498
8110.0 0.00056929
8130.0 0.00057689
8150.0 0.00058726
8170.0 0.00058163
8190.0 0.00059096
8210.0 0.00058316
8230.0 0.00055393
8250.0 0.00054476
8270.0 0.00053525
8290.0 0.00052613
8310.0 0.00050627
8330.0 0.00051215
8350.0 0.00051001
8370.0 0.00051087
8390.0 0.00051987
8410.0 0.00051674
8430.0 0.00052337
8450.0 0.00052959
8470.0 0.00053385
8490.0 0.00054048
8510.0 0.00053076
8530.0 0.00051177
8550.0 0.00051592
8570.0 0.00051622
8590.0 0.00050033
8610.0 0.00051095
8630.0 0.00050378
8650.0 0.00049388
8670.0 0.00049057
8690.0 0.00048957
8710.0 0.0004695
8730.0 0.00047683
8750.0 0.00046085
8770.0 0.00045884
8790.0 0.00044585
8810.0 0.00044032
8830.0 0.00044041
8850.0 0.00042105
8870.0 0.00039991
8890.0 0.00039477
8910.0 0.00037225
8930.0 0.00034377
8950.0 0.0003437
8970.0 0.00033169
8990.0 0.0003292
9010.0 0.00032618
9030.0 0.00032392
9050.0 0.00032162
9070.0 0.0003193
9090.0 0.00031697
9110.0 0.00031461
9130.0 0.00031225
9150.0 0.00030991
9170.0 0.00030755
9190.0 0.00030519
9210.0 0.00030283
9230.0 0.00030045
9250.0 0.00029808
9270.0 0.0002957
9290.0 0.00029332
9310.0 0.00029095
9330.0 0.00028858
9350.0 0.00028622
9370.0 0.00028385
9390.0 0.0002815
9410.0 0.00027914
9430.0 0.0002768
9450.0 0.00027446
9470.0 0.0002723
9490.0 0.00027007
9510.0 0.00026766
9530.0 0.00026529
9550.0 0.00026297
9570.0 0.00026067
9590.0 0.0002584
9610.0 0.00025614
9630.0 0.00025391
9650.0 0.0002517
9670.0 0.00024949
9690.0 0.0002473
9710.0 0.00024514
9730.0 0.00024298
9750.0 0.00024084
9770.0 0.00023874
9790.0 0.00023664
9810.0 0.00023456
9830.0 0.00023246
9850.0 0.0002301
9870.0 0.00022801
9890.0 0.00022619
9910.0 0.00022433
9930.0 0.00022207
9950.0 0.00022014
9970.0 0.00021839
9990.0 0.00021658
10010.0 0.00021477
10030.0 0.00021296
10050.0 0.00021114
10070.0 0.00020936
10090.0 0.00020761
10110.0 0.00020582
10130.0 0.00020406
10150.0 0.00020235
10170.0 0.00020066
10190.0 0.00019896
10210.0 0.00019731
10230.0 0.0001957
10250.0 0.00019408
10270.0 0.00019248
10290.0 0.00019094
10310.0 0.00018938
10330.0 0.00018783
10350.0 0.00018633
10370.0 0.00018486
10390.0 0.00018338
10410.0 0.00018192
10430.0 0.0001805
10450.0 0.00017911
10470.0 0.00017773
10490.0 0.00017639
10510.0 0.00017507
10530.0 0.00017372
10550.0 0.00017241
10570.0 0.00017115
10590.0 0.00016989
10610.0 0.00016863
10630.0 0.00016742
10650.0 0.00016623
10670.0 0.00016502
10690.0 0.00016385
10710.0 0.00016272
10730.0 0.00016158
10750.0 0.00016044
10770.0 0.00015936
10790.0 0.00015829
10810.0 0.00015721
10830.0 0.00015616
10850.0 0.00015516
10870.0 0.00015412
10890.0 0.00015311
10910.0 0.00015216
10930.0 0.00015122
10950.0 0.00015029
10970.0 0.00014942
10990.0 0.00014861
11010.0 0.00015818
11030.0 0.00015757
11050.0 0.00015698
11070.0 0.00015636
11090.0 0.00015567
11110.0 0.00015497
11130.0 0.00015422
11150.0 0.0001534
11170.0 0.00015253
11190.0 0.00015167
11210.0 0.00015076
11230.0 0.00014981
11250.0 0.00014888
11270.0 0.00014798
11290.0 0.00014706
11310.0 0.00014617
11330.0 0.00014536
11350.0 0.00014458
11370.0 0.00014382
11390.0 0.00014313
11410.0 0.00014249
11430.0 0.00014184
11450.0 0.00014123
11470.0 0.00014067
11490.0 0.00014009
11510.0 0.00013948
11530.0 0.00013889
11550.0 0.0001383
11570.0 0.00013764
11590.0 0.00013697
11610.0 0.00013631
11630.0 0.00013559
11650.0 0.00013482
11670.0 0.00013409
11690.0 0.00013335
11710.0 0.00013258
11730.0 0.00013182
11750.0 0.00013111
11770.0 0.00013038
11790.0 0.00012965
11810.0 0.00012897
11830.0 0.00012831
11850.0 0.00012762
11870.0 0.00012697
11890.0 0.00012638
11910.0 0.00012579
11930.0 0.00012521
11950.0 0.00012471
11970.0 0.00012424
11990.0 0.0001238
12010.0 0.00012344
12030.0 0.00012315
12050.0 0.00012292
12070.0 0.00012276
12090.0 0.00012271
12110.0 0.00012273
12130.0 0.00012282
12150.0 0.00012299
12170.0 0.00012323
12190.0 0.00012352
12210.0 0.00012387
12230.0 0.00012426
12250.0 0.00012469
12270.0 0.00012513
12290.0 0.00012558
12310.0 0.00012603
12330.0 0.00012648
12350.0 0.0001269
12370.0 0.0001273
12390.0 0.00012767
12410.0 0.00012799
12430.0 0.00012826
12450.0 0.00012848
12470.0 0.00012862
12490.0 0.00012868
12510.0 0.00012867
12530.0 0.00012856
12550.0 0.00012835
12570.0 0.00012805
12590.0 0.00012767
12610.0 0.00012716
12630.0 0.00012654
12650.0 0.00012589
12670.0 0.00012513
12690.0 0.00012428
12710.0 0.0001234
12730.0 0.00012248
12750.0 0.00012145
12770.0 0.00012042
12790.0 0.00011941
12810.0 0.00011836
12830.0 0.00011728
12850.0 0.00011628
12870.0 0.0001153
12890.0 0.00011431
12910.0 0.00011338
12930.0 0.00011252
12950.0 0.00011167
12970.0 0.00011086
12990.0 0.00011013
13010.0 0.00010944
13030.0 0.00010877
13050.0 0.00010815
13070.0 0.00010759
13090.0 0.00010703
13110.0 0.00010649
13130.0 0.00010599
13150.0 0.0001055
13170.0 0.00010501
13190.0 0.00010454
13210.0 0.0001041
13230.0 0.00010365
13250.0 0.0001032
13270.0 0.00010278
13290.0 0.00010235
13310.0 0.0001019
13330.0 0.00010146
13350.0 0.00010101
13370.0 0.00010053
13390.0 0.00010002
13410.0 9.9518e-05
13430.0 9.8981e-05
13450.0 9.84e-05
13470.0 9.7806e-05
13490.0 9.7203e-05
13510.0 9.6534e-05
13530.0 9.5848e-05
13550.0 9.5165e-05
13570.0 9.4452e-05
13590.0 9.3699e-05
13610.0 9.2951e-05
13630.0 9.2208e-05
13650.0 9.1419e-05
13670.0 9.0622e-05
13690.0 8.984e-05
13710.0 8.9036e-05
13730.0 8.8186e-05
13750.0 8.7374e-05
13770.0 8.6561e-05
13790.0 8.5718e-05
13810.0 8.4877e-05
13830.0 8.4067e-05
13850.0 8.3234e-05
13870.0 8.2389e-05
13890.0 8.1574e-05
13910.0 8.0772e-05
13930.0 7.995e-05
13950.0 7.9142e-05
13970.0 7.838e-05
13990.0 7.7609e-05
14010.0 7.6838e-05
14030.0 7.6101e-05
14050.0 7.538e-05
14070.0 7.4635e-05
14090.0 7.3916e-05
14110.0 7.3223e-05
14130.0 7.2523e-05
14150.0 7.1817e-05
14170.0 7.1144e-05
14190.0 7.0477e-05
14210.0 6.9795e-05
14230.0 6.913e-05
14250.0 6.8488e-05
14270.0 6.7833e-05
14290.0 6.7181e-05
14310.0 6.6566e-05
14330.0 6.5961e-05
14350.0 6.5357e-05
14370.0 6.4779e-05
14390.0 6.4232e-05
14410.0 6.3686e-05
14430.0 6.3155e-05
14450.0 6.2654e-05
14470.0 6.2166e-05
14490.0 6.1676e-05
14510.0 6.121e-05
14530.0 6.0762e-05
14550.0 6.0312e-05
14570.0 5.9866e-05
14590.0 5.9437e-05
14610.0 5.9007e-05
14630.0 5.8569e-05
14650.0 5.8144e-05
14670.0 5.7725e-05
14690.0 5.73e-05
14710.0 5.6875e-05
14730.0 5.647e-05
14750.0 5.6063e-05
14770.0 5.5654e-05
14790.0 5.5258e-05
14810.0 5.4872e-05
14830.0 5.4477e-05
14850.0 5.4091e-05
14870.0 5.3719e-05
14890.0 5.3347e-05
14910.0 5.2975e-05
14930.0 5.2616e-05
14950.0 5.2269e-05
14970.0 5.1923e-05
14990.0 5.1591e-05
15010.0 5.1276e-05
15030.0 5.0971e-05
15050.0 5.067e-05
15070.0 5.0389e-05
15090.0 5.0114e-05
15110.0 4.9841e-05
15130.0 4.9572e-05
15150.0 4.931e-05
15170.0 4.9046e-05
15190.0 4.8781e-05
15210.0 4.8522e-05
15230.0 4.8264e-05
15250.0 4.8002e-05
15270.0 4.7743e-05
15290.0 4.749e-05
15310.0 4.7235e-05
15330.0 4.6979e-05
15350.0 4.6728e-05
15370.0 4.6479e-05
15390.0 4.6226e-05
15410.0 4.5977e-05
15430.0 4.5732e-05
15450.0 4.5486e-05
15470.0 4.5239e-05
15490.0 4.4998e-05
15510.0 4.4759e-05
15530.0 4.4518e-05
15550.0 4.4279e-05
15570.0 4.4046e-05
15590.0 4.3809e-05
15610.0 4.3573e-05
15630.0 4.3343e-05
15650.0 4.3114e-05
15670.0 4.2884e-05
15690.0 4.2657e-05
15710.0 4.2436e-05
15730.0 4.2211e-05
15750.0 4.1988e-05
15770.0 4.177e-05
15790.0 4.1552e-05
15810.0 4.1332e-05
15830.0 4.1118e-05
15850.0 4.0907e-05
15870.0 4.0695e-05
15890.0 4.0485e-05
15910.0 4.028e-05
15930.0 4.0074e-05
15950.0 3.9867e-05
15970.0 3.9665e-05
15990.0 3.9467e-05
16010.0 3.9266e-05
16030.0 3.9067e-05
16050.0 3.8875e-05
16070.0 3.8682e-05
16090.0 3.8488e-05
16110.0 3.8299e-05
16130.0 3.8114e-05
16150.0 3.7924e-05
16170.0 3.7738e-05
16190.0 3.7558e-05
16210.0 3.7377e-05
16230.0 3.7195e-05
16250.0 3.7018e-05
16270.0 3.6845e-05
16290.0 3.6669e-05
16310.0 3.6496e-05
16330.0 3.6327e-05
16350.0 3.6159e-05
16370.0 3.5987e-05
16390.0 3.5823e-05
16410.0 3.5661e-05
16430.0 3.5497e-05
16450.0 3.5336e-05
16470.0 3.518e-05
16490.0 3.5022e-05
16510.0 3.4864e-05
16530.0 3.4711e-05
16550.0 3.456e-05
16570.0 3.4406e-05
16590.0 3.4255e-05
16610.0 3.4111e-05
16630.0 3.3964e-05
16650.0 3.3818e-05
16670.0 3.3676e-05
16690.0 3.3536e-05
16710.0 3.3393e-05
16730.0 3.3254e-05
16750.0 3.3118e-05
16770.0 3.2982e-05
16790.0 3.2845e-05
16810.0 3.2714e-05
16830.0 3.2584e-05
16850.0 3.2451e-05
16870.0 3.2323e-05
16890.0 3.2197e-05
16910.0 3.2069e-05
16930.0 3.1942e-05
16950.0 3.182e-05
16970.0 3.1699e-05
16990.0 3.1575e-05
17010.0 3.1456e-05
17030.0 3.134e-05
17050.0 3.1221e-05
17070.0 3.1103e-05
17090.0 3.099e-05
17110.0 3.0877e-05
17130.0 3.076e-05
17150.0 3.0649e-05
17170.0 3.0541e-05
17190.0 3.043e-05
17210.0 3.0321e-05
17230.0 3.0216e-05
17250.0 3.011e-05
17270.0 3.0002e-05
17290.0 2.9898e-05
17310.0 2.9796e-05
17330.0 2.9692e-05
17350.0 2.9588e-05
17370.0 2.9491e-05
17390.0 2.9391e-05
17410.0 2.9291e-05
17430.0 2.9194e-05
17450.0 2.9099e-05
17470.0 2.9e-05
17490.0 2.8903e-05
17510.0 2.881e-05
17530.0 2.8716e-05
17550.0 2.8621e-05
17570.0 2.853e-05
17590.0 2.844e-05
17610.0 2.8347e-05
17630.0 2.8256e-05
17650.0 2.8169e-05
17670.0 2.8079e-05
17690.0 2.7987e-05
17710.0 2.7901e-05
17730.0 2.7815e-05
17750.0 2.7727e-05
17770.0 2.764e-05
17790.0 2.7558e-05
17810.0 2.7472e-05
17830.0 2.7385e-05
17850.0 2.7302e-05
17870.0 2.7219e-05
17890.0 2.7134e-05
17910.0 2.705e-05
17930.0 2.697e-05
17950.0 2.6888e-05
17970.0 2.6805e-05
17990.0 2.6726e-05
18010.0 2.6646e-05
18030.0 2.6562e-05
18050.0 2.6482e-05
18070.0 2.6403e-05
18090.0 2.6323e-05
18110.0 2.6241e-05
18130.0 2.6164e-05
18150.0 2.6086e-05
18170.0 2.6006e-05
18190.0 2.5927e-05
18210.0 2.5851e-05
18230.0 2.5771e-05
18250.0 2.569e-05
18270.0 2.5614e-05
18290.0 2.5537e-05
18310.0 2.5457e-05
18330.0 2.538e-05
18350.0 2.5305e-05
18370.0 2.5226e-05
18390.0 2.5147e-05
18410.0 2.5071e-05
18430.0 2.4994e-05
18450.0 2.4913e-05
18470.0 2.4836e-05
18490.0 2.4761e-05
18510.0 2.4682e-05
18530.0 2.4604e-05
18550.0 2.4529e-05
18570.0 2.4451e-05
18590.0 2.437e-05
18610.0 2.4293e-05
18630.0 2.4216e-05
18650.0 2.4136e-05
18670.0 2.4056e-05
18690.0 2.398e-05
18710.0 2.3902e-05
18730.0 2.3821e-05
18750.0 2.3743e-05
18770.0 2.3666e-05
18790.0 2.3583e-05
18810.0 2.3502e-05
18830.0 2.3424e-05
18850.0 2.3343e-05
18870.0 2.3261e-05
18890.0 2.3182e-05
18910.0 2.3102e-05
18930.0 2.3019e-05
18950.0 2.2937e-05
18970.0 2.2857e-05
18990.0 2.2774e-05
19010.0 2.2687e-05
19030.0 2.2607e-05
19050.0 2.2525e-05
19070.0 2.244e-05
19090.0 2.2355e-05
19110.0 2.2274e-05
19130.0 2.2188e-05
19150.0 2.2101e-05
19170.0 2.2017e-05
19190.0 2.1932e-05
19210.0 2.1843e-05
19230.0 2.1755e-05
19250.0 2.1671e-05
19270.0 2.1583e-05
19290.0 2.1494e-05
19310.0 2.1408e-05
19330.0 2.132e-05
19350.0 2.1227e-05
19370.0 2.1138e-05
19390.0 2.105e-05
19410.0 2.0958e-05
19430.0 2.0865e-05
19450.0 2.0776e-05
19470.0 2.0685e-05
19490.0 2.0591e-05
19510.0 2.0499e-05
19530.0 2.0408e-05
19550.0 2.0312e-05
19570.0 2.0216e-05
19590.0 2.0123e-05
19610.0 2.0029e-05
19630.0 1.9931e-05
19650.0 1.9836e-05
19670.0 1.9742e-05
19690.0 1.9644e-05
19710.0 1.9545e-05
19730.0 1.9449e-05
19750.0 1.9351e-05
19770.0 1.9249e-05
19790.0 1.9151e-05
19810.0 1.9053e-05
19830.0 1.8952e-05
19850.0 1.8851e-05
19870.0 1.8753e-05
19890.0 1.8652e-05
19910.0 1.8548e-05
19930.0 1.8448e-05
19950.0 1.835e-05
19970.0 1.8249e-05
19990.0 1.815e-05
20010.0 1.8057e-05
20030.0 1.7963e-05
20050.0 1.7868e-05
20070.0 1.7777e-05
20090.0 1.7687e-05
20110.0 1.7593e-05
20130.0 1.75e-05
20150.0 1.741e-05
20170.0 1.7317e-05
20190.0 1.7222e-05
20210.0 1.7131e-05
20230.0 1.7039e-05
20250.0 1.6945e-05
20270.0 1.6853e-05
20290.0 1.6764e-05
20310.0 1.6674e-05
20330.0 1.6583e-05
20350.0 1.6499e-05
20370.0 1.6416e-05
20390.0 1.6334e-05
20410.0 1.6256e-05
20430.0 1.6182e-05
20450.0 1.6109e-05
20470.0 1.6039e-05
20490.0 1.5974e-05
20510.0 1.5912e-05
20530.0 1.5853e-05
20550.0 1.5798e-05
20570.0 1.5749e-05
20590.0 1.5703e-05
20610.0 1.5662e-05
20630.0 1.5625e-05
20650.0 1.5593e-05
20670.0 1.5565e-05
20690.0 1.5541e-05
20710.0 1.5521e-05
20730.0 1.5504e-05
20750.0 1.5491e-05
20770.0 1.5478e-05
20790.0 1.5466e-05
20810.0 1.5455e-05
20830.0 1.5443e-05
20850.0 1.5428e-05
20870.0 1.5412e-05
20890.0 1.5391e-05
20910.0 1.5365e-05
20930.0 1.5334e-05
20950.0 1.5297e-05
20970.0 1.5253e-05
20990.0 1.5202e-05
21010.0 1.5144e-05
21030.0 1.5078e-05
21050.0 1.5006e-05
21070.0 1.4927e-05
21090.0 1.4839e-05
21110.0 1.4748e-05
21130.0 1.4652e-05
21150.0 1.455e-05
21170.0 1.4445e-05
21190.0 1.434e-05
21210.0 1.4229e-05
21230.0 1.4116e-05
21250.0 1.4005e-05
21270.0 1.3893e-05
21290.0 1.378e-05
21310.0 1.3667e-05
21330.0 1.3558e-05
21350.0 1.3447e-05
21370.0 1.3335e-05
21390.0 1.3225e-05
21410.0 1.3116e-05
21430.0 1.3003e-05
21450.0 1.2891e-05
21470.0 1.278e-05
21490.0 1.2666e-05
21510.0 1.255e-05
21530.0 1.2436e-05
21550.0 1.232e-05
21570.0 1.2199e-05
21590.0 1.2079e-05
21610.0 1.196e-05
21630.0 1.1837e-05
21650.0 1.1712e-05
21670.0 1.1592e-05
21690.0 1.1471e-05
21710.0 1.1348e-05
21730.0 1.1228e-05
21750.0 1.1111e-05
21770.0 1.0991e-05
21790.0 1.0873e-05
21810.0 1.076e-05
21830.0 1.0647e-05
21850.0 1.0534e-05
21870.0 1.0425e-05
21890.0 1.0319e-05
21910.0 1.0212e-05
21930.0 1.0107e-05
21950.0 1.0005e-05
21970.0 9.9037e-06
21990.0 9.7997e-06
22010.0 9.6993e-06
22030.0 9.6001e-06
22050.0 9.4988e-06
22070.0 9.3973e-06
22090.0 9.2983e-06
22110.0 9.1973e-06
22130.0 9.094e-06
22150.0 8.992e-06
22170.0 8.8904e-06
22190.0 8.7849e-06
22210.0 8.6791e-06
22230.0 8.5764e-06
22250.0 8.4717e-06
22270.0 8.3652e-06
22290.0 8.2612e-06
22310.0 8.1582e-06
22330.0 8.0519e-06
22350.0 7.9476e-06
22370.0 7.8462e-06
22390.0 7.7443e-06
22410.0 7.6415e-06
22430.0 7.5436e-06
22450.0 7.4478e-06
22470.0 7.3513e-06
22490.0 7.2578e-06
22510.0 7.1685e-06
22530.0 7.079e-06
22550.0 6.991e-06
22570.0 6.908e-06
22590.0 6.8274e-06
22610.0 6.7475e-06
22630.0 6.6708e-06
22650.0 6.5985e-06
22670.0 6.5267e-06
22690.0 6.4566e-06
22710.0 6.3901e-06
22730.0 6.3256e-06
22750.0 6.2608e-06
22770.0 6.1994e-06
22790.0 6.1409e-06
22810.0 6.0831e-06
22830.0 6.0269e-06
