#lamb flux
1010.0 2.5399e-06
1030.0 2.6703e-06
1050.0 2.8206e-06
1070.0 2.9898e-06
1090.0 3.182e-06
1110.0 3.3794e-06
1130.0 3.5783e-06
1150.0 3.7869e-06
1170.0 4.0023e-06
1190.0 4.207e-06
1210.0 4.4147e-06
1230.0 4.6298e-06
1250.0 4.8409e-06
1270.0 5.0464e-06
1290.0 5.2638e-06
1310.0 5.4816e-06
1330.0 5.6911e-06
1350.0 5.9035e-06
1370.0 6.1232e-06
1390.0 6.3381e-06
1410.0 6.5474e-06
1430.0 6.7665e-06
1450.0 6.9863e-06
1470.0 7.1996e-06
1490.0 7.4157e-06
1510.0 7.6442e-06
1530.0 7.8618e-06
1550.0 8.077e-06
1570.0 8.2999e-06
1590.0 8.5236e-06
1610.0 8.738e-06
1630.0 8.9592e-06
1650.0 9.1863e-06
1670.0 9.4064e-06
1690.0 9.624e-06
1710.0 9.8496e-06
1730.0 1.0076e-05
1750.0 1.029e-05
1770.0 1.051e-05
1790.0 1.0733e-05
1810.0 1.0949e-05
1830.0 1.1161e-05
1850.0 1.1386e-05
1870.0 1.1604e-05
1890.0 1.1815e-05
1910.0 1.2029e-05
1930.0 1.2248e-05
1950.0 1.2457e-05
1970.0 1.2663e-05
1990.0 1.2878e-05
2010.0 1.3088e-05
2030.0 1.3292e-05
2050.0 1.3502e-05
2070.0 1.3719e-05
2090.0 1.3925e-05
2110.0 1.4132e-05
2130.0 1.4347e-05
2150.0 1.4561e-05
2170.0 1.4769e-05
2190.0 1.4988e-05
2210.0 1.5212e-05
2230.0 1.5433e-05
2250.0 1.5658e-05
2270.0 1.5897e-05
2290.0 1.6137e-05
2310.0 1.6374e-05
2330.0 1.6625e-05
2350.0 1.6886e-05
2370.0 1.7146e-05
2390.0 1.7418e-05
2410.0 1.7709e-05
2430.0 1.8003e-05
2450.0 1.8297e-05
2470.0 1.8599e-05
2490.0 1.8896e-05
2510.0 1.9175e-05
2530.0 1.9461e-05
2550.0 1.98e-05
2570.0 2.0265e-05
2590.0 2.0957e-05
2610.0 2.2098e-05
2630.0 2.3823e-05
2650.0 2.6129e-05
2670.0 2.9106e-05
2690.0 3.2745e-05
2710.0 3.6665e-05
2730.0 4.0647e-05
2750.0 4.4763e-05
2770.0 4.8702e-05
2790.0 5.2338e-05
2810.0 5.5857e-05
2830.0 5.9428e-05
2850.0 6.2829e-05
2870.0 6.6257e-05
2890.0 6.9872e-05
2910.0 7.3589e-05
2930.0 7.7283e-05
2950.0 8.1179e-05
2970.0 8.5238e-05
2990.0 8.928e-05
3010.0 0.00017766
3030.0 0.00018579
3050.0 0.000194
3070.0 0.00020177
3090.0 0.00020937
3110.0 0.0002161
3130.0 0.00022092
3150.0 0.00022293
3170.0 0.00022041
3190.0 0.00021236
3210.0 0.00019862
3230.0 0.00018192
3250.0 0.00018212
3270.0 0.00013537
3290.0 0.00015198
3310.0 0.0001092
3330.0 0.00011751
3350.0 0.00013236
3370.0 0.000148
3390.0 0.00016402
3410.0 0.00017997
3430.0 0.00019624
3450.0 0.0002124
3470.0 0.00022773
3490.0 0.00023884
3510.0 0.00025917
3530.0 0.00030294
3550.0 0.00034506
3570.0 0.00038673
3590.0 0.00047475
3610.0 0.00046139
3630.0 0.0004986
3650.0 0.00048964
3670.0 0.00053257
3690.0 0.00058161
3710.0 0.00061538
3730.0 0.00071
3750.0 0.00073977
3770.0 0.00074932
3790.0 0.00071274
3810.0 0.00062845
3830.0 0.00057775
3850.0 0.00050801
3870.0 0.00055369
3890.0 0.00063
3910.0 0.00074285
3930.0 0.00086188
3950.0 0.0009365
3970.0 0.0010655
3990.0 0.0010962
4010.0 0.0010658
4030.0 0.0010827
4050.0 0.00099363
4070.0 0.00095117
4090.0 0.00092597
4110.0 0.00088348
4130.0 0.00095329
4150.0 0.00091899
4170.0 0.00091772
4190.0 0.00089985
4210.0 0.00096463
4230.0 0.00092474
4250.0 0.00099715
4270.0 0.00099444
4290.0 0.000999
4310.0 0.0010663
4330.0 0.0011355
4350.0 0.0011437
4370.0 0.0011201
4390.0 0.001067
4410.0 0.00094423
4430.0 0.00078646
4450.0 0.00072572
4470.0 0.00074722
4490.0 0.00074671
4510.0 0.00084528
4530.0 0.00092722
4550.0 0.0010942
4570.0 0.0014169
4590.0 0.0017322
4610.0 0.0018954
4630.0 0.0021743
4650.0 0.0023783
4670.0 0.0023946
4690.0 0.0021844
4710.0 0.0020287
4730.0 0.0018019
4750.0 0.0014776
4770.0 0.0012481
4790.0 0.0011122
4810.0 0.0012138
4830.0 0.0013483
4850.0 0.0015141
4870.0 0.0014466
4890.0 0.0016555
4910.0 0.0017293
4930.0 0.0018864
4950.0 0.0022118
4970.0 0.0023518
4990.0 0.0024774
5010.0 0.0022921
5030.0 0.0019241
5050.0 0.0015691
5070.0 0.0012457
5090.0 0.0011219
5110.0 0.0011021
5130.0 0.0010837
5150.0 0.0011346
5170.0 0.0010971
5190.0 0.0011572
5210.0 0.0011777
5230.0 0.0012652
5250.0 0.0014808
5270.0 0.0016076
5290.0 0.0017442
5310.0 0.0019624
5330.0 0.0021222
5350.0 0.002171
5370.0 0.0021724
5390.0 0.0021252
5410.0 0.0020843
5430.0 0.0021103
5450.0 0.0023617
5470.0 0.0027679
5490.0 0.0031617
5510.0 0.0035285
5530.0 0.0036165
5550.0 0.0035779
5570.0 0.0034818
5590.0 0.0033921
5610.0 0.003351
5630.0 0.0033502
5650.0 0.0033633
5670.0 0.0033162
5690.0 0.0030851
5710.0 0.0028151
5730.0 0.0025119
5750.0 0.0023473
5770.0 0.0022175
5790.0 0.0022602
5810.0 0.0023753
5830.0 0.0024541
5850.0 0.0023746
5870.0 0.0022525
5890.0 0.002205
5910.0 0.0021367
5930.0 0.002087
5950.0 0.0020311
5970.0 0.0019439
5990.0 0.0017125
6010.0 0.0014856
6030.0 0.0013573
6050.0 0.0013131
6070.0 0.0012823
6090.0 0.0012809
6110.0 0.0013071
6130.0 0.0013193
6150.0 0.0013982
6170.0 0.0015475
6190.0 0.0017049
6210.0 0.0017891
6230.0 0.0018134
6250.0 0.0016678
6270.0 0.001473
6290.0 0.001266
6310.0 0.0011067
6330.0 0.0010227
6350.0 0.00099364
6370.0 0.0010433
6390.0 0.0011697
6410.0 0.0013745
6430.0 0.0016403
6450.0 0.0018631
6470.0 0.0020318
6490.0 0.0021765
6510.0 0.0022361
6530.0 0.00222
6550.0 0.0022304
6570.0 0.0022541
6590.0 0.0022259
6610.0 0.0022485
6630.0 0.0022078
6650.0 0.0021379
6670.0 0.0020142
6690.0 0.0018432
6710.0 0.0017692
6730.0 0.0016743
6750.0 0.0016736
6770.0 0.001719
6790.0 0.0017787
6810.0 0.0018108
6830.0 0.0017767
6850.0 0.0017041
6870.0 0.0016508
6890.0 0.001573
6910.0 0.0014988
6930.0 0.0015363
6950.0 0.0015559
6970.0 0.0016188
6990.0 0.0016822
7010.0 0.0016676
7030.0 0.0015694
7050.0 0.0014044
7070.0 0.0012486
7090.0 0.0011062
7110.0 0.0010297
7130.0 0.00098929
7150.0 0.00096301
7170.0 0.00099623
7190.0 0.0010182
7210.0 0.0010734
7230.0 0.0011911
7250.0 0.0012755
7270.0 0.0013059
7290.0 0.0012888
7310.0 0.00123
7330.0 0.0011537
7350.0 0.001114
7370.0 0.0011213
7390.0 0.00118
7410.0 0.001304
7430.0 0.0014555
7450.0 0.0016426
7470.0 0.0017844
7490.0 0.0018532
7510.0 0.0017834
7530.0 0.0016373
7550.0 0.0014328
7570.0 0.0012223
7590.0 0.0011345
7610.0 0.0011421
7630.0 0.0012214
7650.0 0.0013877
7670.0 0.0015509
7690.0 0.0016996
7710.0 0.0018351
7730.0 0.0019444
7750.0 0.0020364
7770.0 0.0020804
7790.0 0.0021523
7810.0 0.0022011
7830.0 0.0021961
7850.0 0.0022067
7870.0 0.0021315
7890.0 0.0020683
7910.0 0.0019529
7930.0 0.0019044
7950.0 0.0018361
7970.0 0.0018522
7990.0 0.0018369
8010.0 0.0018095
8030.0 0.0018145
8050.0 0.001874
8070.0 0.0018402
8090.0 0.0018436
8110.0 0.0017794
8130.0 0.0017723
8150.0 0.0017192
8170.0 0.0016725
8190.0 0.0016519
8210.0 0.0016658
8230.0 0.0015451
8250.0 0.001439
8270.0 0.0012571
8290.0 0.0010206
8310.0 0.00081163
8330.0 0.00063089
8350.0 0.00055034
8370.0 0.00060611
8390.0 0.00068154
8410.0 0.00074954
8430.0 0.00085314
8450.0 0.00090315
8470.0 0.00094694
8490.0 0.0010586
8510.0 0.0011725
8530.0 0.0013617
8550.0 0.0016052
8570.0 0.0018196
8590.0 0.0019905
8610.0 0.0021503
8630.0 0.0022846
8650.0 0.0023104
8670.0 0.0023218
8690.0 0.0024012
8710.0 0.0024272
8730.0 0.0024607
8750.0 0.0023958
8770.0 0.0024022
8790.0 0.0023693
8810.0 0.0022045
8830.0 0.0021622
8850.0 0.0020442
8870.0 0.0019609
8890.0 0.0018572
8910.0 0.0019225
8930.0 0.0018007
8950.0 0.001745
8970.0 0.001727
8990.0 0.001683
9010.0 0.0016685
9030.0 0.0016201
9050.0 0.0016107
9070.0 0.0016067
9090.0 0.0016027
9110.0 0.001599
9130.0 0.0015947
9150.0 0.0015902
9170.0 0.0015832
9190.0 0.0015727
9210.0 0.0015826
9230.0 0.0015743
9250.0 0.0015678
9270.0 0.0015616
9290.0 0.0015556
9310.0 0.0015498
9330.0 0.0015439
9350.0 0.0015381
9370.0 0.0015322
9390.0 0.0015263
9410.0 0.0015202
9430.0 0.001514
9450.0 0.0015074
9470.0 0.0015008
9490.0 0.0014948
9510.0 0.0014886
9530.0 0.0014823
9550.0 0.0014758
9570.0 0.0014693
9590.0 0.0014627
9610.0 0.0014561
9630.0 0.0014494
9650.0 0.0014427
9670.0 0.0014359
9690.0 0.0014292
9710.0 0.0014224
9730.0 0.0014156
9750.0 0.0014088
9770.0 0.001402
9790.0 0.0013952
9810.0 0.0013884
9830.0 0.0013816
9850.0 0.0013749
9870.0 0.0013681
9890.0 0.0013613
9910.0 0.0013546
9930.0 0.0013477
9950.0 0.0013338
9970.0 0.0013292
9990.0 0.0013243
10010.0 0.0013191
10030.0 0.0013134
10050.0 0.0013071
10070.0 0.0013003
10090.0 0.0012944
10110.0 0.0012879
10130.0 0.0012818
10150.0 0.0012756
10170.0 0.0012691
10190.0 0.0012625
10210.0 0.0012562
10230.0 0.0012501
10250.0 0.0012437
10270.0 0.0012374
10290.0 0.0012314
10310.0 0.0012252
10330.0 0.0012188
10350.0 0.0012128
10370.0 0.0012068
10390.0 0.0012006
10410.0 0.0011945
10430.0 0.0011888
10450.0 0.0011828
10470.0 0.0011767
10490.0 0.0011709
10510.0 0.0011652
10530.0 0.0011591
10550.0 0.0011532
10570.0 0.0011476
10590.0 0.0011418
10610.0 0.0011359
10630.0 0.0011303
10650.0 0.0011248
10670.0 0.0011189
10690.0 0.0011132
10710.0 0.0011077
10730.0 0.0011019
10750.0 0.001096
10770.0 0.0010906
10790.0 0.0010851
10810.0 0.0010793
10830.0 0.0010737
10850.0 0.0010683
10870.0 0.0010624
10890.0 0.0010562
10910.0 0.0010501
10930.0 0.0010433
10950.0 0.0010353
10970.0 0.0010264
10990.0 0.0010165
11010.0 0.00094025
11030.0 0.00092799
11050.0 0.00091534
11070.0 0.00090179
11090.0 0.00088674
11110.0 0.00087232
11130.0 0.00085807
11150.0 0.00084326
11170.0 0.00082852
11190.0 0.00081472
11210.0 0.00080068
11230.0 0.00078637
11250.0 0.00077287
11270.0 0.00075992
11290.0 0.0007467
11310.0 0.00073393
11330.0 0.00072256
11350.0 0.00071138
11370.0 0.0007005
11390.0 0.00069065
11410.0 0.00068152
11430.0 0.00067218
11450.0 0.00066346
11470.0 0.00065534
11490.0 0.00064708
11510.0 0.00063841
11530.0 0.00063008
11550.0 0.00062154
11570.0 0.00061211
11590.0 0.0006023
11610.0 0.00059237
11630.0 0.00058139
11650.0 0.00056947
11670.0 0.00055773
11690.0 0.00054561
11710.0 0.00053268
11730.0 0.00051977
11750.0 0.00050749
11770.0 0.00049478
11790.0 0.00048216
11810.0 0.00047046
11830.0 0.00045928
11850.0 0.00044799
11870.0 0.00043778
11890.0 0.00042862
11910.0 0.00041975
11930.0 0.0004114
11950.0 0.00040405
11970.0 0.00039713
11990.0 0.00039034
12010.0 0.00038423
12030.0 0.00037867
12050.0 0.00037323
12070.0 0.00036795
12090.0 0.00036343
12110.0 0.00035908
12130.0 0.00035488
12150.0 0.00035116
12170.0 0.00034798
12190.0 0.00034493
12210.0 0.00034248
12230.0 0.00034077
12250.0 0.0003397
12270.0 0.00033934
12290.0 0.00033992
12310.0 0.00034142
12330.0 0.0003439
12350.0 0.00034742
12370.0 0.00035187
12390.0 0.0003573
12410.0 0.00036389
12430.0 0.00037104
12450.0 0.00037876
12470.0 0.00038718
12490.0 0.00039593
12510.0 0.00040453
12530.0 0.00041332
12550.0 0.00042209
12570.0 0.0004303
12590.0 0.000438
12610.0 0.00044534
12630.0 0.00045198
12650.0 0.00045768
12670.0 0.00046274
12690.0 0.00046706
12710.0 0.00047052
12730.0 0.00047322
12750.0 0.00047517
12770.0 0.00047636
12790.0 0.0004769
12810.0 0.00047675
12830.0 0.0004759
12850.0 0.00047461
12870.0 0.00047284
12890.0 0.00047046
12910.0 0.00046769
12930.0 0.00046471
12950.0 0.00046118
12970.0 0.00045719
12990.0 0.00045316
13010.0 0.00044884
13030.0 0.00044404
13050.0 0.00043906
13070.0 0.00043408
13090.0 0.00042862
13110.0 0.0004229
13130.0 0.0004173
13150.0 0.00041165
13170.0 0.00040569
13190.0 0.00040014
13210.0 0.00039507
13230.0 0.0003902
13250.0 0.00038585
13270.0 0.00038236
13290.0 0.00037953
13310.0 0.0003774
13330.0 0.00037623
13350.0 0.00037588
13370.0 0.00037626
13390.0 0.0003773
13410.0 0.00037878
13430.0 0.00038053
13450.0 0.00038237
13470.0 0.00038401
13490.0 0.00038526
13510.0 0.00038595
13530.0 0.00038586
13550.0 0.00038496
13570.0 0.00038316
13590.0 0.00038036
13610.0 0.00037681
13630.0 0.00037265
13650.0 0.00036769
13670.0 0.00036227
13690.0 0.00035675
13710.0 0.00035099
13730.0 0.00034493
13750.0 0.00033934
13770.0 0.00033401
13790.0 0.00032878
13810.0 0.00032391
13830.0 0.00031959
13850.0 0.00031546
13870.0 0.0003116
13890.0 0.00030818
13910.0 0.00030506
13930.0 0.00030208
13950.0 0.00029935
13970.0 0.00029694
13990.0 0.00029464
14010.0 0.00029247
14030.0 0.00029052
14050.0 0.00028872
14070.0 0.00028697
14090.0 0.0002854
14110.0 0.00028399
14130.0 0.00028267
14150.0 0.00028145
14170.0 0.00028037
14190.0 0.00027939
14210.0 0.0002785
14230.0 0.00027772
14250.0 0.00027705
14270.0 0.0002765
14290.0 0.00027608
14310.0 0.00027579
14330.0 0.00027562
14350.0 0.00027559
14370.0 0.00027566
14390.0 0.0002758
14410.0 0.00027604
14430.0 0.00027631
14450.0 0.00027655
14470.0 0.00027676
14490.0 0.00027695
14510.0 0.00027701
14530.0 0.00027696
14550.0 0.00027684
14570.0 0.00027665
14590.0 0.00027637
14610.0 0.0002761
14630.0 0.00027589
14650.0 0.00027576
14670.0 0.00027577
14690.0 0.00027603
14710.0 0.00027659
14730.0 0.0002774
14750.0 0.00027861
14770.0 0.0002803
14790.0 0.00028238
14810.0 0.00028481
14830.0 0.00028796
14850.0 0.00029152
14870.0 0.00029532
14890.0 0.00029951
14910.0 0.00030405
14930.0 0.00030839
14950.0 0.00031238
14970.0 0.00031612
14990.0 0.00031908
15010.0 0.00032108
15030.0 0.00032228
15050.0 0.0003227
15070.0 0.00032232
15090.0 0.00032145
15110.0 0.00032024
15130.0 0.00031881
15150.0 0.00031727
15170.0 0.00031565
15190.0 0.000314
15210.0 0.00031235
15230.0 0.00031069
15250.0 0.00030901
15270.0 0.00030734
15290.0 0.00030568
15310.0 0.00030401
15330.0 0.00030234
15350.0 0.00030068
15370.0 0.00029902
15390.0 0.00029735
15410.0 0.00029568
15430.0 0.00029403
15450.0 0.00029237
15470.0 0.0002907
15490.0 0.00028906
15510.0 0.00028741
15530.0 0.00028576
15550.0 0.00028412
15570.0 0.00028249
15590.0 0.00028085
15610.0 0.00027922
15630.0 0.0002776
15650.0 0.00027598
15670.0 0.00027436
15690.0 0.00027276
15710.0 0.00027116
15730.0 0.00026956
15750.0 0.00026797
15770.0 0.00026639
15790.0 0.00026482
15810.0 0.00026324
15830.0 0.00026168
15850.0 0.00026013
15870.0 0.00025858
15890.0 0.00025704
15910.0 0.00025551
15930.0 0.00025399
15950.0 0.00025247
15970.0 0.00025096
15990.0 0.00024946
16010.0 0.00024797
16030.0 0.00024648
16050.0 0.00024501
16070.0 0.00024355
16090.0 0.00024209
16110.0 0.00024064
16130.0 0.00023921
16150.0 0.00023777
16170.0 0.00023635
16190.0 0.00023495
16210.0 0.00023355
16230.0 0.00023215
16250.0 0.00023077
16270.0 0.0002294
16290.0 0.00022803
16310.0 0.00022668
16330.0 0.00022534
16350.0 0.00022401
16370.0 0.00022267
16390.0 0.00022136
16410.0 0.00022006
16430.0 0.00021877
16450.0 0.00021748
16470.0 0.00021622
16490.0 0.00021495
16510.0 0.00021369
16530.0 0.00021245
16550.0 0.00021122
16570.0 0.00020999
16590.0 0.00020877
16610.0 0.00020757
16630.0 0.00020638
16650.0 0.00020519
16670.0 0.00020402
16690.0 0.00020286
16710.0 0.0002017
16730.0 0.00020056
16750.0 0.00019943
16770.0 0.0001983
16790.0 0.00019718
16810.0 0.00019609
16830.0 0.00019499
16850.0 0.00019391
16870.0 0.00019283
16890.0 0.00019177
16910.0 0.00019071
16930.0 0.00018966
16950.0 0.00018863
16970.0 0.00018761
16990.0 0.00018659
17010.0 0.00018558
17030.0 0.00018459
17050.0 0.0001836
17070.0 0.00018262
17090.0 0.00018165
17110.0 0.00018069
17130.0 0.00017974
17150.0 0.0001788
17170.0 0.00017787
17190.0 0.00017694
17210.0 0.00017603
17230.0 0.00017513
17250.0 0.00017423
17270.0 0.00017334
17290.0 0.00017246
17310.0 0.0001716
17330.0 0.00017073
17350.0 0.00016987
17370.0 0.00016904
17390.0 0.0001682
17410.0 0.00016737
17430.0 0.00016656
17450.0 0.00016575
17470.0 0.00016494
17490.0 0.00016415
17510.0 0.00016337
17530.0 0.00016259
17550.0 0.00016181
17570.0 0.00016105
17590.0 0.00016031
17610.0 0.00015956
17630.0 0.00015882
17650.0 0.00015809
17670.0 0.00015737
17690.0 0.00015664
17710.0 0.00015594
17730.0 0.00015524
17750.0 0.00015455
17770.0 0.00015386
17790.0 0.00015319
17810.0 0.00015251
17830.0 0.00015185
17850.0 0.00015119
17870.0 0.00015054
17890.0 0.00014989
17910.0 0.00014925
17930.0 0.00014863
17950.0 0.00014801
17970.0 0.00014739
17990.0 0.00014678
18010.0 0.00014618
18030.0 0.00014558
18050.0 0.00014499
18070.0 0.0001444
18090.0 0.00014382
18110.0 0.00014325
18130.0 0.00014269
18150.0 0.00014213
18170.0 0.00014157
18190.0 0.00014102
18210.0 0.00014049
18230.0 0.00013995
18250.0 0.00013941
18270.0 0.00013889
18290.0 0.00013837
18310.0 0.00013785
18330.0 0.00013735
18350.0 0.00013685
18370.0 0.00013635
18390.0 0.00013585
18410.0 0.00013537
18430.0 0.00013489
18450.0 0.00013441
18470.0 0.00013394
18490.0 0.00013347
18510.0 0.00013301
18530.0 0.00013255
18550.0 0.0001321
18570.0 0.00013166
18590.0 0.00013121
18610.0 0.00013077
18630.0 0.00013034
18650.0 0.00012991
18670.0 0.00012948
18690.0 0.00012907
18710.0 0.00012865
18730.0 0.00012824
18750.0 0.00012784
18770.0 0.00012744
18790.0 0.00012703
18810.0 0.00012664
18830.0 0.00012625
18850.0 0.00012587
18870.0 0.00012548
18890.0 0.00012511
18910.0 0.00012474
18930.0 0.00012436
18950.0 0.000124
18970.0 0.00012364
18990.0 0.00012328
19010.0 0.00012291
19030.0 0.00012257
19050.0 0.00012222
19070.0 0.00012187
19090.0 0.00012153
19110.0 0.0001212
19130.0 0.00012086
19150.0 0.00012053
19170.0 0.00012021
19190.0 0.00011988
19210.0 0.00011956
19230.0 0.00011924
19250.0 0.00011893
19270.0 0.00011862
19290.0 0.0001183
19310.0 0.000118
19330.0 0.0001177
19350.0 0.0001174
19370.0 0.0001171
19390.0 0.00011681
19410.0 0.00011652
19430.0 0.00011622
19450.0 0.00011594
19470.0 0.00011566
19490.0 0.00011538
19510.0 0.0001151
19530.0 0.00011483
19550.0 0.00011455
19570.0 0.00011428
19590.0 0.00011401
19610.0 0.00011375
19630.0 0.00011348
19650.0 0.00011322
19670.0 0.00011297
19690.0 0.00011271
19710.0 0.00011246
19730.0 0.00011221
19750.0 0.00011196
19770.0 0.00011171
19790.0 0.00011146
19810.0 0.00011122
19830.0 0.00011098
19850.0 0.00011073
19870.0 0.00011048
19890.0 0.00011021
19910.0 0.0001099
19930.0 0.00010954
19950.0 0.00010909
19970.0 0.00010851
19990.0 0.00010775
20010.0 0.00010686
20030.0 0.00010575
20050.0 0.00010442
20070.0 0.00010297
20090.0 0.00010141
20110.0 9.965e-05
20130.0 9.7873e-05
20150.0 9.612e-05
20170.0 9.431e-05
20190.0 9.2482e-05
20210.0 9.0755e-05
20230.0 8.9068e-05
20250.0 8.7372e-05
20270.0 8.5785e-05
20290.0 8.4321e-05
20310.0 8.2911e-05
20330.0 8.157e-05
20350.0 8.0432e-05
20370.0 7.9397e-05
20390.0 7.8463e-05
20410.0 7.768e-05
20430.0 7.7049e-05
20450.0 7.6518e-05
20470.0 7.6128e-05
20490.0 7.5877e-05
20510.0 7.5742e-05
20530.0 7.5722e-05
20550.0 7.5811e-05
20570.0 7.5985e-05
20590.0 7.625e-05
20610.0 7.6588e-05
20630.0 7.697e-05
20650.0 7.74e-05
20670.0 7.7884e-05
20690.0 7.8365e-05
20710.0 7.884e-05
20730.0 7.9321e-05
20750.0 7.9782e-05
20770.0 8.0189e-05
20790.0 8.0563e-05
20810.0 8.0895e-05
20830.0 8.1158e-05
20850.0 8.1354e-05
20870.0 8.1487e-05
20890.0 8.1544e-05
20910.0 8.1525e-05
20930.0 8.1435e-05
20950.0 8.1268e-05
20970.0 8.1039e-05
20990.0 8.0752e-05
21010.0 8.039e-05
21030.0 7.9977e-05
21050.0 7.9532e-05
21070.0 7.904e-05
21090.0 7.8498e-05
21110.0 7.7958e-05
21130.0 7.7409e-05
21150.0 7.6833e-05
21170.0 7.6263e-05
21190.0 7.5724e-05
21210.0 7.5181e-05
21230.0 7.4652e-05
21250.0 7.4177e-05
21270.0 7.3741e-05
21290.0 7.3335e-05
21310.0 7.2984e-05
21330.0 7.27e-05
21350.0 7.2461e-05
21370.0 7.228e-05
21390.0 7.2165e-05
21410.0 7.2109e-05
21430.0 7.2114e-05
21450.0 7.2182e-05
21470.0 7.2304e-05
21490.0 7.2483e-05
21510.0 7.272e-05
21530.0 7.2993e-05
21550.0 7.3312e-05
21570.0 7.3686e-05
21590.0 7.4089e-05
21610.0 7.4515e-05
21630.0 7.4984e-05
21650.0 7.5495e-05
21670.0 7.5995e-05
21690.0 7.6523e-05
21710.0 7.7083e-05
21730.0 7.7646e-05
21750.0 7.8202e-05
21770.0 7.8801e-05
21790.0 7.9402e-05
21810.0 7.9986e-05
21830.0 8.0577e-05
21850.0 8.1187e-05
21870.0 8.1777e-05
21890.0 8.2341e-05
21910.0 8.2919e-05
21930.0 8.3483e-05
21950.0 8.4011e-05
21970.0 8.4526e-05
21990.0 8.5039e-05
22010.0 8.5497e-05
22030.0 8.5915e-05
22050.0 8.6307e-05
22070.0 8.6652e-05
22090.0 8.6934e-05
22110.0 8.717e-05
22130.0 8.735e-05
22150.0 8.7459e-05
22170.0 8.7502e-05
22190.0 8.7472e-05
22210.0 8.7362e-05
22230.0 8.7183e-05
22250.0 8.6924e-05
22270.0 8.6577e-05
22290.0 8.6165e-05
22310.0 8.5685e-05
22330.0 8.5103e-05
22350.0 8.4457e-05
22370.0 8.3765e-05
22390.0 8.2996e-05
22410.0 8.214e-05
22430.0 8.1275e-05
22450.0 8.0372e-05
22470.0 7.9396e-05
22490.0 7.84e-05
22510.0 7.7416e-05
22530.0 7.6374e-05
22550.0 7.5303e-05
22570.0 7.4278e-05
22590.0 7.3259e-05
22610.0 7.2217e-05
22630.0 7.1208e-05
22650.0 7.0267e-05
22670.0 6.9317e-05
22690.0 6.8393e-05
22710.0 6.7538e-05
22730.0 6.6723e-05
22750.0 6.5904e-05
22770.0 6.5161e-05
22790.0 6.448e-05
22810.0 6.3819e-05
22830.0 6.3194e-05
22850.0 6.2633e-05
22870.0 6.2102e-05
22890.0 6.1586e-05
22910.0 6.1117e-05
22930.0 6.0688e-05
22950.0 6.0274e-05
22970.0 5.9877e-05
