#lamb flux
1010.0 1.5643e-05
1030.0 2.1012e-05
1050.0 2.8182e-05
1070.0 3.7542e-05
1090.0 4.9726e-05
1110.0 6.4498e-05
1130.0 8.1898e-05
1150.0 0.0001025
1170.0 0.0001263
1190.0 0.00015205
1210.0 0.0001802
1230.0 0.00021065
1250.0 0.00024192
1270.0 0.00027292
1290.0 0.00030424
1310.0 0.00033389
1330.0 0.00035996
1350.0 0.00038254
1370.0 0.00040121
1390.0 0.00041415
1410.0 0.00042091
1430.0 0.00042278
1450.0 0.00041895
1470.0 0.00040922
1490.0 0.00039494
1510.0 0.00037736
1530.0 0.00035564
1550.0 0.00033136
1570.0 0.0003059
1590.0 0.0002795
1610.0 0.00025251
1630.0 0.00022618
1650.0 0.00020082
1670.0 0.00017643
1690.0 0.00015347
1710.0 0.00013231
1730.0 0.00011287
1750.0 9.5034e-05
1770.0 7.9081e-05
1790.0 6.4901e-05
1810.0 5.2352e-05
1830.0 4.1418e-05
1850.0 3.1828e-05
1870.0 2.3465e-05
1890.0 1.6541e-05
1910.0 1.1004e-05
1930.0 6.7708e-06
1950.0 5.5489e-06
1970.0 5.5422e-06
1990.0 5.5821e-06
2010.0 5.663e-06
2030.0 5.782e-06
2050.0 5.9417e-06
2070.0 8.8993e-06
2090.0 1.3176e-05
2110.0 1.831e-05
2130.0 2.4268e-05
2150.0 3.0987e-05
2170.0 3.8393e-05
2190.0 4.6473e-05
2210.0 5.4982e-05
2230.0 6.3766e-05
2250.0 7.2989e-05
2270.0 8.265e-05
2290.0 9.2599e-05
2310.0 0.00010274
2330.0 0.00011311
2350.0 0.0001236
2370.0 0.00013405
2390.0 0.00014447
2410.0 0.00015484
2430.0 0.00016493
2450.0 0.00017466
2470.0 0.00018404
2490.0 0.000193
2510.0 0.00020144
2530.0 0.00020969
2550.0 0.00021833
2570.0 0.00022803
2590.0 0.00023974
2610.0 0.00025593
2630.0 0.00027828
2650.0 0.00030739
2670.0 0.0003458
2690.0 0.00039578
2710.0 0.00045405
2730.0 0.00051809
2750.0 0.00058986
2770.0 0.00066164
2790.0 0.00072611
2810.0 0.00078309
2830.0 0.00083203
2850.0 0.00086464
2870.0 0.00088567
2890.0 0.00089894
2910.0 0.00090445
2930.0 0.00090254
2950.0 0.00089783
2970.0 0.00089061
2990.0 0.00087958
3010.0 0.00086631
3030.0 0.00085289
3050.0 0.00083853
3070.0 0.00082172
3090.0 0.00080564
3110.0 0.00079041
3130.0 0.00077572
3150.0 0.0007256
3170.0 0.00068744
3190.0 0.00064927
3210.0 0.00061809
3230.0 0.00061165
3250.0 0.00069565
3270.0 0.00089946
3290.0 0.0010187
3310.0 0.00085297
3330.0 0.00084219
3350.0 0.0008657
3370.0 0.00089551
3390.0 0.0009229
3410.0 0.00093341
3430.0 0.00093055
3450.0 0.00092395
3470.0 0.0009242
3490.0 0.00089994
3510.0 0.00077138
3530.0 0.00051524
3550.0 0.0004248
3570.0 0.00080699
3590.0 0.0013
3610.0 0.0015788
3630.0 0.0022204
3650.0 0.0023145
3670.0 0.0018999
3690.0 0.0014102
3710.0 0.0011396
3730.0 0.0011781
3750.0 0.0012339
3770.0 0.0012795
3790.0 0.0013237
3810.0 0.0015291
3830.0 0.0013996
3850.0 0.0011322
3870.0 0.00098604
3890.0 0.0011786
3910.0 0.0013183
3930.0 0.0013297
3950.0 0.0014463
3970.0 0.0015782
3990.0 0.0015425
4010.0 0.0016342
4030.0 0.0015648
4050.0 0.0014849
4070.0 0.0014217
4090.0 0.00144
4110.0 0.0014948
4130.0 0.0014638
4150.0 0.0013813
4170.0 0.0013365
4190.0 0.0013494
4210.0 0.0012153
4230.0 0.0010963
4250.0 0.00094224
4270.0 0.0007817
4290.0 0.00076812
4310.0 0.00074402
4330.0 0.00074733
4350.0 0.00091608
4370.0 0.00093338
4390.0 0.0010737
4410.0 0.0011667
4430.0 0.0012371
4450.0 0.0010918
4470.0 0.00091674
4490.0 0.00086919
4510.0 0.00081008
4530.0 0.00077216
4550.0 0.00072902
4570.0 0.00071822
4590.0 0.00073171
4610.0 0.00066564
4630.0 0.00062437
4650.0 0.00056646
4670.0 0.00055315
4690.0 0.00047406
4710.0 0.00041874
4730.0 0.00034541
4750.0 0.00030572
4770.0 0.00018254
4790.0 0.00018894
4810.0 0.00017576
4830.0 2.3722e-05
4850.0 9.3394e-05
4870.0 2.0653e-05
4890.0 2.5015e-05
4910.0 0.00014884
4930.0 0.00016963
4950.0 2.0407e-05
4970.0 3.9019e-05
4990.0 5.3628e-05
5010.0 1.5363e-05
5030.0 1.4129e-05
5050.0 5.1032e-05
5070.0 4.2337e-05
5090.0 4.735e-05
5110.0 6.3929e-05
5130.0 5.2538e-05
5150.0 8.3248e-05
5170.0 1.7552e-05
5190.0 1.6325e-05
5210.0 3.9877e-05
5230.0 1.6943e-05
5250.0 6.7318e-05
5270.0 0.00018557
5290.0 0.0001778
5310.0 0.00010569
5330.0 0.00011776
5350.0 4.972e-05
5370.0 6.43e-05
5390.0 0.00010094
5410.0 8.4802e-05
5430.0 0.0001475
5450.0 7.601e-05
5470.0 7.4997e-05
5490.0 0.00023744
5510.0 0.00023862
5530.0 0.00024622
5550.0 0.0002295
5570.0 0.00027343
5590.0 0.00032812
5610.0 0.00033305
5630.0 0.00031442
5650.0 0.00032198
5670.0 0.0003198
5690.0 0.00033793
5710.0 0.00029996
5730.0 0.00032774
5750.0 0.00032665
5770.0 0.00030625
5790.0 0.00035153
5810.0 0.00037243
5830.0 0.00036046
5850.0 0.00030924
5870.0 0.00028017
5890.0 0.00028283
5910.0 0.00033538
5930.0 0.00032395
5950.0 0.00034635
5970.0 0.00035319
5990.0 0.00038038
6010.0 0.00036686
6030.0 0.0003766
6050.0 0.00037317
6070.0 0.0003391
6090.0 0.00036667
6110.0 0.00037913
6130.0 0.00035695
6150.0 0.00035832
6170.0 0.00036551
6190.0 0.00029541
6210.0 0.00030165
6230.0 0.0003237
6250.0 0.0003214
6270.0 0.00031997
6290.0 0.0003484
6310.0 0.00038431
6330.0 0.00038906
6350.0 0.00037756
6370.0 0.00038854
6390.0 0.0003505
6410.0 0.00036105
6430.0 0.00034003
6450.0 0.00034781
6470.0 0.00035628
6490.0 0.00036199
6510.0 0.0003268
6530.0 0.00033098
6550.0 0.00032603
6570.0 0.00030461
6590.0 0.00032549
6610.0 0.00032716
6630.0 0.00032434
6650.0 0.00030094
6670.0 0.00028795
6690.0 0.00027814
6710.0 0.00026427
6730.0 0.00025472
6750.0 0.00025578
6770.0 0.00024187
6790.0 0.00015993
6810.0 0.00018904
6830.0 0.00022753
6850.0 0.00019977
6870.0 0.00019594
6890.0 0.00019119
6910.0 0.00018802
6930.0 0.00017837
6950.0 0.00018999
6970.0 0.00018193
6990.0 0.0001782
7010.0 0.00017558
7030.0 0.00018674
7050.0 0.00018287
7070.0 0.00014362
7090.0 0.00010993
7110.0 9.8304e-05
7130.0 0.00011049
7150.0 0.00011537
7170.0 0.0001125
7190.0 8.9538e-05
7210.0 0.0001212
7230.0 0.00014796
7250.0 0.00014357
7270.0 0.00014601
7290.0 0.00015804
7310.0 0.00013345
7330.0 0.0001243
7350.0 0.00011441
7370.0 0.00013296
7390.0 0.00015796
7410.0 0.0001148
7430.0 0.00012002
7450.0 0.00011597
7470.0 0.00014024
7490.0 0.00014414
7510.0 0.00012089
7530.0 0.00013504
7550.0 6.3259e-05
7570.0 4.662e-05
7590.0 8.5991e-05
7610.0 0.00011956
7630.0 9.8624e-05
7650.0 0.00011884
7670.0 6.9013e-05
7690.0 2.6489e-05
7710.0 4.7192e-05
7730.0 8.6721e-05
7750.0 4.7615e-05
7770.0 9.7532e-05
7790.0 0.0001154
7810.0 8.6915e-05
7830.0 0.00011328
7850.0 7.2103e-05
7870.0 0.00010562
7890.0 8.2667e-05
7910.0 8.2534e-05
7930.0 5.2976e-05
7950.0 2.1443e-05
7970.0 4.5445e-05
7990.0 7.2414e-05
8010.0 0.00026974
8030.0 0.0002611
8050.0 0.0002568
8070.0 0.00024979
8090.0 0.00023144
8110.0 0.00022494
8130.0 0.00024836
8150.0 0.00026513
8170.0 0.00027478
8190.0 0.00028914
8210.0 0.00027553
8230.0 0.00027583
8250.0 0.00027323
8270.0 0.00027645
8290.0 0.00027437
8310.0 0.00025985
8330.0 0.00024918
8350.0 0.00025807
8370.0 0.00026323
8390.0 0.0002557
8410.0 0.00025285
8430.0 0.00024339
8450.0 0.00023519
8470.0 0.00025472
8490.0 0.00025586
8510.0 0.00023828
8530.0 0.00023993
8550.0 0.00023712
8570.0 0.00021783
8590.0 0.00022175
8610.0 0.00022163
8630.0 0.0002326
8650.0 0.00023392
8670.0 0.00023652
8690.0 0.00023112
8710.0 0.00022701
8730.0 0.00021684
8750.0 0.0002114
8770.0 0.00020956
8790.0 0.00022224
8810.0 0.00020656
8830.0 0.00020238
8850.0 0.00021536
8870.0 0.00020374
8890.0 0.0001865
8910.0 0.00018441
8930.0 0.00018976
8950.0 0.00017301
8970.0 0.00016546
8990.0 0.00016149
9010.0 0.00015119
9030.0 0.00014881
9050.0 0.00014814
9070.0 0.00014756
9090.0 0.00014697
9110.0 0.00014637
9130.0 0.00014577
9150.0 0.00014517
9170.0 0.00014455
9190.0 0.00014394
9210.0 0.00014331
9230.0 0.00014268
9250.0 0.00014205
9270.0 0.00014142
9290.0 0.00014078
9310.0 0.00014024
9330.0 0.00013985
9350.0 0.00013947
9370.0 0.00013908
9390.0 0.00013867
9410.0 0.00013827
9430.0 0.00013786
9450.0 0.00013744
9470.0 0.00013709
9490.0 0.0001367
9510.0 0.00013623
9530.0 0.00013575
9550.0 0.0001353
9570.0 0.00013485
9590.0 0.00013439
9610.0 0.0001341
9630.0 0.00013383
9650.0 0.00013355
9670.0 0.00013324
9690.0 0.00013295
9710.0 0.00013265
9730.0 0.00013233
9750.0 0.00013201
9770.0 0.0001317
9790.0 0.00013137
9810.0 0.00013103
9830.0 0.0001307
9850.0 0.00013029
9870.0 0.00012979
9890.0 0.00012953
9910.0 0.00012923
9930.0 0.00012885
9950.0 0.0001285
9970.0 0.00012816
9990.0 0.00012781
10010.0 0.00012745
10030.0 0.00012708
10050.0 0.0001267
10070.0 0.00012632
10090.0 0.00012593
10110.0 0.00012554
10130.0 0.00012515
10150.0 0.00012476
10170.0 0.00012437
10190.0 0.00012397
10210.0 0.00012357
10230.0 0.00012317
10250.0 0.00012277
10270.0 0.00012237
10290.0 0.00012197
10310.0 0.00012156
10330.0 0.00012116
10350.0 0.00012076
10370.0 0.00012035
10390.0 0.00011994
10410.0 0.00011944
10430.0 0.00011892
10450.0 0.00011861
10470.0 0.00011825
10490.0 0.00011788
10510.0 0.0001175
10530.0 0.0001171
10550.0 0.0001167
10570.0 0.00011631
10590.0 0.00011591
10610.0 0.00011551
10630.0 0.00011511
10650.0 0.00011472
10670.0 0.00011432
10690.0 0.00011392
10710.0 0.00011353
10730.0 0.00011314
10750.0 0.00011274
10770.0 0.00011236
10790.0 0.00011198
10810.0 0.00011159
10830.0 0.00011121
10850.0 0.00011084
10870.0 0.00011045
10890.0 0.00011006
10910.0 0.00010967
10930.0 0.00010927
10950.0 0.00010884
10970.0 0.00010838
10990.0 0.00010791
11010.0 0.00010162
11030.0 0.00010104
11050.0 0.00010034
11070.0 9.9517e-05
11090.0 9.8583e-05
11110.0 9.7602e-05
11130.0 9.6584e-05
11150.0 9.5517e-05
11170.0 9.4426e-05
11190.0 9.3347e-05
11210.0 9.2243e-05
11230.0 9.1117e-05
11250.0 9.001e-05
11270.0 8.8917e-05
11290.0 8.7811e-05
11310.0 8.672e-05
11330.0 8.5683e-05
11350.0 8.4658e-05
11370.0 8.365e-05
11390.0 8.2689e-05
11410.0 8.1764e-05
11430.0 8.0846e-05
11450.0 7.9963e-05
11470.0 7.9117e-05
11490.0 7.8282e-05
11510.0 7.7453e-05
11530.0 7.665e-05
11550.0 7.5858e-05
11570.0 7.5058e-05
11590.0 7.4262e-05
11610.0 7.3475e-05
11630.0 7.2674e-05
11650.0 7.1857e-05
11670.0 7.1051e-05
11690.0 7.0237e-05
11710.0 6.9404e-05
11730.0 6.8566e-05
11750.0 6.7738e-05
11770.0 6.6889e-05
11790.0 6.603e-05
11810.0 6.5184e-05
11830.0 6.4339e-05
11850.0 6.3476e-05
11870.0 6.2633e-05
11890.0 6.1817e-05
11910.0 6.1004e-05
11930.0 6.0206e-05
11950.0 5.9448e-05
11970.0 5.8713e-05
11990.0 5.7995e-05
12010.0 5.732e-05
12030.0 5.6686e-05
12050.0 5.6081e-05
12070.0 5.5511e-05
12090.0 5.4991e-05
12110.0 5.4506e-05
12130.0 5.4054e-05
12150.0 5.3639e-05
12170.0 5.3257e-05
12190.0 5.2902e-05
12210.0 5.2573e-05
12230.0 5.2264e-05
12250.0 5.1969e-05
12270.0 5.1685e-05
12290.0 5.1405e-05
12310.0 5.1122e-05
12330.0 5.0837e-05
12350.0 5.0541e-05
12370.0 5.0232e-05
12390.0 4.9907e-05
12410.0 4.9559e-05
12430.0 4.9193e-05
12450.0 4.8806e-05
12470.0 4.8392e-05
12490.0 4.7952e-05
12510.0 4.7498e-05
12530.0 4.7016e-05
12550.0 4.6503e-05
12570.0 4.5978e-05
12590.0 4.5437e-05
12610.0 4.4864e-05
12630.0 4.4273e-05
12650.0 4.3689e-05
12670.0 4.3084e-05
12690.0 4.2462e-05
12710.0 4.1848e-05
12730.0 4.1237e-05
12750.0 4.0602e-05
12770.0 3.998e-05
12790.0 3.9376e-05
12810.0 3.8772e-05
12830.0 3.8167e-05
12850.0 3.7596e-05
12870.0 3.7043e-05
12890.0 3.6494e-05
12910.0 3.5972e-05
12930.0 3.5487e-05
12950.0 3.5014e-05
12970.0 3.4567e-05
12990.0 3.4168e-05
13010.0 3.3803e-05
13030.0 3.3467e-05
13050.0 3.3174e-05
13070.0 3.2924e-05
13090.0 3.2705e-05
13110.0 3.2522e-05
13130.0 3.2375e-05
13150.0 3.2258e-05
13170.0 3.2168e-05
13190.0 3.2102e-05
13210.0 3.2054e-05
13230.0 3.2023e-05
13250.0 3.2005e-05
13270.0 3.1994e-05
13290.0 3.1989e-05
13310.0 3.1988e-05
13330.0 3.1986e-05
13350.0 3.198e-05
13370.0 3.1969e-05
13390.0 3.1948e-05
13410.0 3.1916e-05
13430.0 3.187e-05
13450.0 3.1807e-05
13470.0 3.1729e-05
13490.0 3.1636e-05
13510.0 3.1521e-05
13530.0 3.1389e-05
13550.0 3.1249e-05
13570.0 3.1095e-05
13590.0 3.0925e-05
13610.0 3.0751e-05
13630.0 3.0576e-05
13650.0 3.0385e-05
13670.0 3.0188e-05
13690.0 2.9993e-05
13710.0 2.9789e-05
13730.0 2.9565e-05
13750.0 2.9347e-05
13770.0 2.9125e-05
13790.0 2.8885e-05
13810.0 2.8639e-05
13830.0 2.8398e-05
13850.0 2.8141e-05
13870.0 2.7873e-05
13890.0 2.7612e-05
13910.0 2.7353e-05
13930.0 2.7082e-05
13950.0 2.6816e-05
13970.0 2.6571e-05
13990.0 2.6325e-05
14010.0 2.6083e-05
14030.0 2.5862e-05
14050.0 2.5655e-05
14070.0 2.5446e-05
14090.0 2.5259e-05
14110.0 2.5093e-05
14130.0 2.4934e-05
14150.0 2.4784e-05
14170.0 2.4656e-05
14190.0 2.4539e-05
14210.0 2.4425e-05
14230.0 2.4324e-05
14250.0 2.4235e-05
14270.0 2.4146e-05
14290.0 2.4061e-05
14310.0 2.3991e-05
14330.0 2.3925e-05
14350.0 2.3861e-05
14370.0 2.3806e-05
14390.0 2.3761e-05
14410.0 2.3718e-05
14430.0 2.368e-05
14450.0 2.3654e-05
14470.0 2.3633e-05
14490.0 2.3611e-05
14510.0 2.36e-05
14530.0 2.3595e-05
14550.0 2.3589e-05
14570.0 2.3585e-05
14590.0 2.3587e-05
14610.0 2.3587e-05
14630.0 2.3583e-05
14650.0 2.3582e-05
14670.0 2.3581e-05
14690.0 2.3575e-05
14710.0 2.3565e-05
14730.0 2.356e-05
14750.0 2.355e-05
14770.0 2.3534e-05
14790.0 2.3517e-05
14810.0 2.3499e-05
14830.0 2.3468e-05
14850.0 2.3435e-05
14870.0 2.3402e-05
14890.0 2.3364e-05
14910.0 2.3319e-05
14930.0 2.328e-05
14950.0 2.3247e-05
14970.0 2.3215e-05
14990.0 2.3193e-05
15010.0 2.3185e-05
15030.0 2.3187e-05
15050.0 2.3195e-05
15070.0 2.3218e-05
15090.0 2.3246e-05
15110.0 2.3275e-05
15130.0 2.3308e-05
15150.0 2.3343e-05
15170.0 2.3375e-05
15190.0 2.3406e-05
15210.0 2.3438e-05
15230.0 2.3469e-05
15250.0 2.3496e-05
15270.0 2.3522e-05
15290.0 2.355e-05
15310.0 2.3574e-05
15330.0 2.3596e-05
15350.0 2.3619e-05
15370.0 2.364e-05
15390.0 2.3657e-05
15410.0 2.3673e-05
15430.0 2.369e-05
15450.0 2.3703e-05
15470.0 2.3714e-05
15490.0 2.3726e-05
15510.0 2.3735e-05
15530.0 2.3741e-05
15550.0 2.3747e-05
15570.0 2.3752e-05
15590.0 2.3753e-05
15610.0 2.3751e-05
15630.0 2.3751e-05
15650.0 2.3748e-05
15670.0 2.3741e-05
15690.0 2.3734e-05
15710.0 2.3727e-05
15730.0 2.3715e-05
15750.0 2.3702e-05
15770.0 2.3689e-05
15790.0 2.3673e-05
15810.0 2.3652e-05
15830.0 2.3633e-05
15850.0 2.3612e-05
15870.0 2.3588e-05
15890.0 2.3562e-05
15910.0 2.3536e-05
15930.0 2.3508e-05
15950.0 2.3475e-05
15970.0 2.3442e-05
15990.0 2.3409e-05
16010.0 2.3372e-05
16030.0 2.3332e-05
16050.0 2.3294e-05
16070.0 2.3253e-05
16090.0 2.3209e-05
16110.0 2.3164e-05
16130.0 2.3119e-05
16150.0 2.3069e-05
16170.0 2.3018e-05
16190.0 2.2968e-05
16210.0 2.2914e-05
16230.0 2.2858e-05
16250.0 2.2802e-05
16270.0 2.2746e-05
16290.0 2.2685e-05
16310.0 2.2623e-05
16330.0 2.2562e-05
16350.0 2.2498e-05
16370.0 2.2429e-05
16390.0 2.2363e-05
16410.0 2.2296e-05
16430.0 2.2225e-05
16450.0 2.2153e-05
16470.0 2.2083e-05
16490.0 2.2009e-05
16510.0 2.1932e-05
16530.0 2.1856e-05
16550.0 2.178e-05
16570.0 2.1699e-05
16590.0 2.1618e-05
16610.0 2.1539e-05
16630.0 2.1457e-05
16650.0 2.1372e-05
16670.0 2.1289e-05
16690.0 2.1205e-05
16710.0 2.1116e-05
16730.0 2.1029e-05
16750.0 2.0942e-05
16770.0 2.0852e-05
16790.0 2.076e-05
16810.0 2.067e-05
16830.0 2.0579e-05
16850.0 2.0485e-05
16870.0 2.0392e-05
16890.0 2.0299e-05
16910.0 2.0203e-05
16930.0 2.0106e-05
16950.0 2.0011e-05
16970.0 1.9914e-05
16990.0 1.9815e-05
17010.0 1.9717e-05
17030.0 1.962e-05
17050.0 1.952e-05
17070.0 1.9419e-05
17090.0 1.932e-05
17110.0 1.9219e-05
17130.0 1.9115e-05
17150.0 1.9014e-05
17170.0 1.8913e-05
17190.0 1.881e-05
17210.0 1.8707e-05
17230.0 1.8605e-05
17250.0 1.8502e-05
17270.0 1.8396e-05
17290.0 1.8292e-05
17310.0 1.8189e-05
17330.0 1.8084e-05
17350.0 1.7977e-05
17370.0 1.7874e-05
17390.0 1.777e-05
17410.0 1.7663e-05
17430.0 1.7559e-05
17450.0 1.7455e-05
17470.0 1.7347e-05
17490.0 1.7241e-05
17510.0 1.7137e-05
17530.0 1.7031e-05
17550.0 1.6925e-05
17570.0 1.682e-05
17590.0 1.6716e-05
17610.0 1.6609e-05
17630.0 1.6503e-05
17650.0 1.64e-05
17670.0 1.6294e-05
17690.0 1.6187e-05
17710.0 1.6083e-05
17730.0 1.5979e-05
17750.0 1.5874e-05
17770.0 1.5769e-05
17790.0 1.5667e-05
17810.0 1.5562e-05
17830.0 1.5457e-05
17850.0 1.5355e-05
17870.0 1.5252e-05
17890.0 1.5148e-05
17910.0 1.5044e-05
17930.0 1.4944e-05
17950.0 1.4841e-05
17970.0 1.4739e-05
17990.0 1.4638e-05
18010.0 1.4538e-05
18030.0 1.4435e-05
18050.0 1.4335e-05
18070.0 1.4236e-05
18090.0 1.4136e-05
18110.0 1.4035e-05
18130.0 1.3937e-05
18150.0 1.384e-05
18170.0 1.374e-05
18190.0 1.3643e-05
18210.0 1.3547e-05
18230.0 1.3449e-05
18250.0 1.3351e-05
18270.0 1.3256e-05
18290.0 1.3161e-05
18310.0 1.3065e-05
18330.0 1.2971e-05
18350.0 1.2878e-05
18370.0 1.2784e-05
18390.0 1.269e-05
18410.0 1.2598e-05
18430.0 1.2506e-05
18450.0 1.2413e-05
18470.0 1.2322e-05
18490.0 1.2233e-05
18510.0 1.2142e-05
18530.0 1.2052e-05
18550.0 1.1964e-05
18570.0 1.1876e-05
18590.0 1.1786e-05
18610.0 1.1699e-05
18630.0 1.1613e-05
18650.0 1.1525e-05
18670.0 1.1438e-05
18690.0 1.1355e-05
18710.0 1.127e-05
18730.0 1.1185e-05
18750.0 1.1101e-05
18770.0 1.1019e-05
18790.0 1.0935e-05
18810.0 1.0852e-05
18830.0 1.0772e-05
18850.0 1.0691e-05
18870.0 1.0609e-05
18890.0 1.053e-05
18910.0 1.0452e-05
18930.0 1.0372e-05
18950.0 1.0293e-05
18970.0 1.0216e-05
18990.0 1.0139e-05
19010.0 1.006e-05
19030.0 9.985e-06
19050.0 9.9101e-06
19070.0 9.8341e-06
19090.0 9.7595e-06
19110.0 9.687e-06
19130.0 9.6127e-06
19150.0 9.5387e-06
19170.0 9.467e-06
19190.0 9.3955e-06
19210.0 9.3228e-06
19230.0 9.2515e-06
19250.0 9.1826e-06
19270.0 9.1123e-06
19290.0 9.0422e-06
19310.0 8.9743e-06
19330.0 8.9065e-06
19350.0 8.8368e-06
19370.0 8.7694e-06
19390.0 8.7035e-06
19410.0 8.6365e-06
19430.0 8.5695e-06
19450.0 8.5052e-06
19470.0 8.4406e-06
19490.0 8.375e-06
19510.0 8.311e-06
19530.0 8.2484e-06
19550.0 8.1841e-06
19570.0 8.1201e-06
19590.0 8.0588e-06
19610.0 7.9971e-06
19630.0 7.9346e-06
19650.0 7.8738e-06
19670.0 7.8143e-06
19690.0 7.753e-06
19710.0 7.6925e-06
19730.0 7.6338e-06
19750.0 7.5747e-06
19770.0 7.5142e-06
19790.0 7.4562e-06
19810.0 7.3991e-06
19830.0 7.3408e-06
19850.0 7.2832e-06
19870.0 7.2277e-06
19890.0 7.1713e-06
19910.0 7.1148e-06
19930.0 7.0614e-06
19950.0 7.0102e-06
19970.0 6.9602e-06
19990.0 6.9139e-06
20010.0 6.873e-06
20030.0 6.8352e-06
20050.0 6.8014e-06
20070.0 6.7725e-06
20090.0 6.7473e-06
20110.0 6.7249e-06
20130.0 6.7057e-06
20150.0 6.6892e-06
20170.0 6.6746e-06
20190.0 6.6618e-06
20210.0 6.6504e-06
20230.0 6.6402e-06
20250.0 6.6308e-06
20270.0 6.6221e-06
20290.0 6.6137e-06
20310.0 6.6054e-06
20330.0 6.597e-06
20350.0 6.5882e-06
20370.0 6.5789e-06
20390.0 6.5689e-06
20410.0 6.5583e-06
20430.0 6.547e-06
20450.0 6.5349e-06
20470.0 6.5221e-06
20490.0 6.509e-06
20510.0 6.4954e-06
20530.0 6.4813e-06
20550.0 6.4672e-06
20570.0 6.4533e-06
20590.0 6.4393e-06
20610.0 6.4254e-06
20630.0 6.4119e-06
20650.0 6.3985e-06
20670.0 6.385e-06
20690.0 6.3717e-06
20710.0 6.3584e-06
20730.0 6.3447e-06
20750.0 6.3304e-06
20770.0 6.3156e-06
20790.0 6.2999e-06
20810.0 6.2829e-06
20830.0 6.2647e-06
20850.0 6.2452e-06
20870.0 6.2237e-06
20890.0 6.2004e-06
20910.0 6.1759e-06
20930.0 6.1494e-06
20950.0 6.1207e-06
20970.0 6.0909e-06
20990.0 6.0599e-06
21010.0 6.0265e-06
21030.0 5.9922e-06
21050.0 5.9573e-06
21070.0 5.9211e-06
21090.0 5.8834e-06
21110.0 5.8459e-06
21130.0 5.808e-06
21150.0 5.7688e-06
21170.0 5.7292e-06
21190.0 5.6897e-06
21210.0 5.6488e-06
21230.0 5.6066e-06
21250.0 5.5644e-06
21270.0 5.5212e-06
21290.0 5.4761e-06
21310.0 5.4299e-06
21330.0 5.3833e-06
21350.0 5.3344e-06
21370.0 5.2835e-06
21390.0 5.23e-06
21410.0 5.175e-06
21430.0 5.1164e-06
21450.0 5.057e-06
21470.0 4.9967e-06
21490.0 4.9339e-06
21510.0 4.8689e-06
21530.0 4.8036e-06
21550.0 4.7365e-06
21570.0 4.6667e-06
21590.0 4.5961e-06
21610.0 4.525e-06
21630.0 4.4514e-06
21650.0 4.3755e-06
21670.0 4.3005e-06
21690.0 4.2238e-06
21710.0 4.1446e-06
21730.0 4.0649e-06
21750.0 3.9851e-06
21770.0 3.9018e-06
21790.0 3.8174e-06
21810.0 3.7331e-06
21830.0 3.647e-06
21850.0 3.5584e-06
21870.0 3.4696e-06
21890.0 3.3806e-06
21910.0 3.289e-06
21930.0 3.1963e-06
21950.0 3.1038e-06
21970.0 3.0099e-06
21990.0 2.9134e-06
22010.0 2.818e-06
22030.0 2.7224e-06
22050.0 2.6252e-06
22070.0 2.5605e-06
22090.0 2.5555e-06
22110.0 2.5505e-06
22130.0 2.5454e-06
22150.0 2.5405e-06
22170.0 2.5357e-06
22190.0 2.5309e-06
22210.0 2.5261e-06
22230.0 2.5215e-06
22250.0 2.5169e-06
22270.0 2.5123e-06
22290.0 2.5079e-06
22310.0 2.5034e-06
22330.0 2.4989e-06
22350.0 2.4945e-06
22370.0 2.4901e-06
22390.0 2.4856e-06
22410.0 2.4811e-06
22430.0 2.4766e-06
22450.0 2.4721e-06
22470.0 2.4676e-06
22490.0 2.463e-06
22510.0 2.4583e-06
22530.0 2.4536e-06
22550.0 2.4488e-06
22570.0 2.444e-06
22590.0 2.4391e-06
22610.0 2.4342e-06
22630.0 2.4292e-06
22650.0 2.4241e-06
22670.0 2.419e-06
