#lamb flux
1010.0 1.2226e-07
1030.0 1.2778e-07
1050.0 1.3417e-07
1070.0 1.4137e-07
1090.0 1.4955e-07
1110.0 1.5797e-07
1130.0 1.6646e-07
1150.0 1.7539e-07
1170.0 1.8463e-07
1190.0 1.9343e-07
1210.0 2.0239e-07
1230.0 2.1168e-07
1250.0 2.2083e-07
1270.0 2.2978e-07
1290.0 2.3927e-07
1310.0 2.488e-07
1330.0 2.5802e-07
1350.0 2.6739e-07
1370.0 2.7712e-07
1390.0 2.8668e-07
1410.0 2.9604e-07
1430.0 3.0587e-07
1450.0 3.1577e-07
1470.0 3.2542e-07
1490.0 3.3524e-07
1510.0 3.4564e-07
1530.0 3.556e-07
1550.0 3.6549e-07
1570.0 3.7574e-07
1590.0 3.8605e-07
1610.0 3.9598e-07
1630.0 4.0621e-07
1650.0 4.1671e-07
1670.0 4.2689e-07
1690.0 4.3695e-07
1710.0 4.4735e-07
1730.0 4.5777e-07
1750.0 4.6756e-07
1770.0 4.7756e-07
1790.0 4.8768e-07
1810.0 4.974e-07
1830.0 5.0686e-07
1850.0 5.1677e-07
1870.0 5.2632e-07
1890.0 5.3541e-07
1910.0 5.4456e-07
1930.0 5.5381e-07
1950.0 5.6248e-07
1970.0 5.7092e-07
1990.0 5.7959e-07
2010.0 5.8799e-07
2030.0 5.9597e-07
2050.0 6.0415e-07
2070.0 6.1252e-07
2090.0 6.2033e-07
2110.0 6.2812e-07
2130.0 6.3623e-07
2150.0 6.4425e-07
2170.0 6.5201e-07
2190.0 6.6027e-07
2210.0 6.688e-07
2230.0 6.7723e-07
2250.0 6.8593e-07
2270.0 6.9539e-07
2290.0 7.0498e-07
2310.0 7.1466e-07
2330.0 7.2514e-07
2350.0 7.3626e-07
2370.0 7.4764e-07
2390.0 7.5978e-07
2410.0 7.7308e-07
2430.0 7.8683e-07
2450.0 8.0105e-07
2470.0 8.1603e-07
2490.0 8.3139e-07
2510.0 8.465e-07
2530.0 8.6259e-07
2550.0 8.8173e-07
2570.0 9.0714e-07
2590.0 9.4344e-07
2610.0 1.0007e-06
2630.0 1.0852e-06
2650.0 1.1971e-06
2670.0 1.3408e-06
2690.0 1.5163e-06
2710.0 1.7065e-06
2730.0 1.9016e-06
2750.0 2.105e-06
2770.0 2.3027e-06
2790.0 2.4886e-06
2810.0 2.6715e-06
2830.0 2.8594e-06
2850.0 3.0417e-06
2870.0 3.2278e-06
2890.0 3.4252e-06
2910.0 3.6303e-06
2930.0 3.8372e-06
2950.0 4.0566e-06
2970.0 4.287e-06
2990.0 4.5194e-06
3010.0 8.4026e-06
3030.0 8.8415e-06
3050.0 9.2836e-06
3070.0 9.6999e-06
3090.0 1.0088e-05
3110.0 1.0392e-05
3130.0 1.0537e-05
3150.0 1.0444e-05
3170.0 9.9611e-06
3190.0 9.0429e-06
3210.0 7.6904e-06
3230.0 6.1218e-06
3250.0 7.2837e-06
3270.0 4.492e-06
3290.0 7.6609e-06
3310.0 3.3903e-06
3330.0 3.6283e-06
3350.0 4.4453e-06
3370.0 5.339e-06
3390.0 6.2691e-06
3410.0 7.1948e-06
3430.0 8.1509e-06
3450.0 9.1015e-06
3470.0 9.9858e-06
3490.0 1.059e-05
3510.0 1.224e-05
3530.0 1.5509e-05
3550.0 1.6666e-05
3570.0 1.6621e-05
3590.0 2.1859e-05
3610.0 1.8115e-05
3630.0 2.2827e-05
3650.0 2.3879e-05
3670.0 2.8215e-05
3690.0 2.8933e-05
3710.0 2.5958e-05
3730.0 3.1845e-05
3750.0 3.3187e-05
3770.0 3.373e-05
3790.0 3.1222e-05
3810.0 2.7073e-05
3830.0 2.9349e-05
3850.0 2.7936e-05
3870.0 3.2747e-05
3890.0 3.3488e-05
3910.0 3.4932e-05
3930.0 3.9739e-05
3950.0 4.4137e-05
3970.0 5.4842e-05
3990.0 5.1504e-05
4010.0 4.3423e-05
4030.0 4.8288e-05
4050.0 4.688e-05
4070.0 4.906e-05
4090.0 4.653e-05
4110.0 3.853e-05
4130.0 4.4405e-05
4150.0 4.146e-05
4170.0 4.3101e-05
4190.0 4.2933e-05
4210.0 4.8668e-05
4230.0 4.0321e-05
4250.0 4.585e-05
4270.0 4.5795e-05
4290.0 4.6415e-05
4310.0 5.2356e-05
4330.0 5.4487e-05
4350.0 4.8773e-05
4370.0 4.5754e-05
4390.0 4.7905e-05
4410.0 4.505e-05
4430.0 3.649e-05
4450.0 3.5361e-05
4470.0 3.8261e-05
4490.0 3.3394e-05
4510.0 3.8427e-05
4530.0 4.2054e-05
4550.0 5.3135e-05
4570.0 7.3269e-05
4590.0 8.0237e-05
4610.0 7.1888e-05
4630.0 9.2524e-05
4650.0 0.00011428
4670.0 0.00011037
4690.0 8.4041e-05
4710.0 8.2445e-05
4730.0 8.6645e-05
4750.0 7.4688e-05
4770.0 5.9837e-05
4790.0 4.7984e-05
4810.0 5.9372e-05
4830.0 6.6947e-05
4850.0 6.797e-05
4870.0 4.7671e-05
4890.0 7.3476e-05
4910.0 8.7596e-05
4930.0 9.4538e-05
4950.0 0.00010187
4970.0 8.8426e-05
4990.0 9.5738e-05
5010.0 9.611e-05
5030.0 8.9796e-05
5050.0 8.0448e-05
5070.0 6.12e-05
5090.0 5.2865e-05
5110.0 5.0635e-05
5130.0 4.748e-05
5150.0 5.2106e-05
5170.0 4.812e-05
5190.0 5.4573e-05
5210.0 5.5079e-05
5230.0 5.9822e-05
5250.0 7.3448e-05
5270.0 7.2092e-05
5290.0 7.5186e-05
5310.0 9.4535e-05
5330.0 0.00010599
5350.0 0.00010037
5370.0 9.5442e-05
5390.0 9.9204e-05
5410.0 0.00010932
5430.0 0.00011612
5450.0 0.00012804
5470.0 0.0001406
5490.0 0.00015068
5510.0 0.00017184
5530.0 0.00017792
5550.0 0.0001831
5570.0 0.00018615
5590.0 0.00018385
5610.0 0.0001794
5630.0 0.00017736
5650.0 0.00017993
5670.0 0.00017892
5690.0 0.00016149
5710.0 0.00015094
5730.0 0.00014327
5750.0 0.00014547
5770.0 0.00013279
5790.0 0.00012917
5810.0 0.00013436
5830.0 0.00014033
5850.0 0.00013325
5870.0 0.00013047
5890.0 0.00014056
5910.0 0.00013638
5930.0 0.00012397
5950.0 0.00011553
5970.0 0.00011633
5990.0 0.00010546
6010.0 9.558e-05
6030.0 9.2542e-05
6050.0 8.8389e-05
6070.0 7.6766e-05
6090.0 7.3163e-05
6110.0 8.2321e-05
6130.0 8.8569e-05
6150.0 9.3699e-05
6170.0 9.7797e-05
6190.0 0.00010063
6210.0 0.00010224
6230.0 0.00010883
6250.0 0.00010037
6270.0 9.0142e-05
6290.0 7.9846e-05
6310.0 7.2672e-05
6330.0 6.8241e-05
6350.0 6.3053e-05
6370.0 6.4479e-05
6390.0 7.4248e-05
6410.0 8.9492e-05
6430.0 0.00010458
6450.0 0.00010894
6470.0 0.00011374
6490.0 0.00012973
6510.0 0.00013955
6530.0 0.00013563
6550.0 0.00013397
6570.0 0.00013566
6590.0 0.00013263
6610.0 0.00013849
6630.0 0.00013364
6650.0 0.00012497
6670.0 0.00011546
6690.0 0.00010787
6710.0 0.00011535
6730.0 0.00010806
6750.0 0.0001015
6770.0 9.8811e-05
6790.0 0.00010266
6810.0 0.00010773
6830.0 0.00010528
6850.0 9.9e-05
6870.0 9.8412e-05
6890.0 9.4858e-05
6910.0 9.0071e-05
6930.0 9.7207e-05
6950.0 9.4691e-05
6970.0 9.4406e-05
6990.0 9.6617e-05
7010.0 9.4063e-05
7030.0 8.8289e-05
7050.0 8.1438e-05
7070.0 7.8701e-05
7090.0 7.2023e-05
7110.0 6.5088e-05
7130.0 5.7793e-05
7150.0 5.4297e-05
7170.0 6.2553e-05
7190.0 6.6023e-05
7210.0 6.7074e-05
7230.0 7.2299e-05
7250.0 7.2869e-05
7270.0 7.2456e-05
7290.0 7.4903e-05
7310.0 7.6399e-05
7330.0 7.3154e-05
7350.0 6.9824e-05
7370.0 6.8958e-05
7390.0 7.276e-05
7410.0 8.2428e-05
7430.0 9.0873e-05
7450.0 9.9983e-05
7470.0 0.00010389
7490.0 0.0001065
7510.0 0.00010178
7530.0 9.7536e-05
7550.0 9.0067e-05
7570.0 7.7895e-05
7590.0 7.4577e-05
7610.0 7.3597e-05
7630.0 7.3722e-05
7650.0 8.24e-05
7670.0 9.0736e-05
7690.0 9.8694e-05
7710.0 0.00010746
7730.0 0.00011397
7750.0 0.00011894
7770.0 0.00011952
7790.0 0.00012622
7810.0 0.00012955
7830.0 0.00012499
7850.0 0.00012533
7870.0 0.00011981
7890.0 0.00011993
7910.0 0.00011317
7930.0 0.00011179
7950.0 0.00010404
7970.0 0.00010562
7990.0 0.00010284
8010.0 0.00010077
8030.0 0.00010049
8050.0 0.00010398
8070.0 0.00010122
8090.0 0.00010114
8110.0 9.7645e-05
8130.0 9.7097e-05
8150.0 9.3532e-05
8170.0 9.0696e-05
8190.0 8.9309e-05
8210.0 8.9768e-05
8230.0 8.1881e-05
8250.0 7.5528e-05
8270.0 6.582e-05
8290.0 5.3663e-05
8310.0 4.3625e-05
8330.0 3.4166e-05
8350.0 2.935e-05
8370.0 3.15e-05
8390.0 3.4224e-05
8410.0 3.7169e-05
8430.0 4.3198e-05
8450.0 4.5753e-05
8470.0 4.7906e-05
8490.0 5.3762e-05
8510.0 5.8991e-05
8530.0 6.8165e-05
8550.0 8.0302e-05
8570.0 9.0448e-05
8590.0 9.8244e-05
8610.0 0.00010628
8630.0 0.00011394
8650.0 0.00011515
8670.0 0.0001156
8690.0 0.00011935
8710.0 0.00011935
8730.0 0.00011975
8750.0 0.0001153
8770.0 0.00011519
8790.0 0.00011328
8810.0 0.00010489
8830.0 0.00010329
8850.0 9.7353e-05
8870.0 9.3315e-05
8890.0 8.7219e-05
8910.0 9.0966e-05
8930.0 8.4417e-05
8950.0 8.2002e-05
8970.0 8.1259e-05
8990.0 7.8756e-05
9010.0 7.8689e-05
9030.0 7.6152e-05
9050.0 7.5719e-05
9070.0 7.556e-05
9090.0 7.5394e-05
9110.0 7.5245e-05
9130.0 7.506e-05
9150.0 7.4861e-05
9170.0 7.4524e-05
9190.0 7.3977e-05
9210.0 7.4557e-05
9230.0 7.4163e-05
9250.0 7.3859e-05
9270.0 7.357e-05
9290.0 7.3288e-05
9310.0 7.3014e-05
9330.0 7.274e-05
9350.0 7.2463e-05
9370.0 7.2183e-05
9390.0 7.1899e-05
9410.0 7.1609e-05
9430.0 7.1311e-05
9450.0 7.0999e-05
9470.0 7.0686e-05
9490.0 7.039e-05
9510.0 7.0083e-05
9530.0 6.9773e-05
9550.0 6.9457e-05
9570.0 6.9136e-05
9590.0 6.8814e-05
9610.0 6.8489e-05
9630.0 6.816e-05
9650.0 6.7831e-05
9670.0 6.7501e-05
9690.0 6.7169e-05
9710.0 6.6836e-05
9730.0 6.6503e-05
9750.0 6.6169e-05
9770.0 6.5834e-05
9790.0 6.55e-05
9810.0 6.5167e-05
9830.0 6.4833e-05
9850.0 6.4501e-05
9870.0 6.4169e-05
9890.0 6.3838e-05
9910.0 6.3507e-05
9930.0 6.3175e-05
9950.0 6.2565e-05
9970.0 6.2323e-05
9990.0 6.2067e-05
10010.0 6.1805e-05
10030.0 6.1521e-05
10050.0 6.1212e-05
10070.0 6.0869e-05
10090.0 6.0584e-05
10110.0 6.0281e-05
10130.0 5.9986e-05
10150.0 5.9692e-05
10170.0 5.939e-05
10190.0 5.9078e-05
10210.0 5.8783e-05
10230.0 5.8495e-05
10250.0 5.8197e-05
10270.0 5.7905e-05
10290.0 5.7627e-05
10310.0 5.7341e-05
10330.0 5.7048e-05
10350.0 5.6773e-05
10370.0 5.6502e-05
10390.0 5.6222e-05
10410.0 5.5948e-05
10430.0 5.5691e-05
10450.0 5.5425e-05
10470.0 5.5157e-05
10490.0 5.4902e-05
10510.0 5.4651e-05
10530.0 5.4385e-05
10550.0 5.413e-05
10570.0 5.389e-05
10590.0 5.3642e-05
10610.0 5.3392e-05
10630.0 5.3157e-05
10650.0 5.2924e-05
10670.0 5.2678e-05
10690.0 5.2443e-05
10710.0 5.2218e-05
10730.0 5.1985e-05
10750.0 5.1745e-05
10770.0 5.1528e-05
10790.0 5.1308e-05
10810.0 5.108e-05
10830.0 5.0859e-05
10850.0 5.0648e-05
10870.0 5.0414e-05
10890.0 5.0172e-05
10910.0 4.9925e-05
10930.0 4.9644e-05
10950.0 4.9299e-05
10970.0 4.8898e-05
10990.0 4.8439e-05
11010.0 4.5883e-05
11030.0 4.528e-05
11050.0 4.4625e-05
11070.0 4.39e-05
11090.0 4.3078e-05
11110.0 4.2273e-05
11130.0 4.147e-05
11150.0 4.0635e-05
11170.0 3.9806e-05
11190.0 3.903e-05
11210.0 3.8248e-05
11230.0 3.7461e-05
11250.0 3.6725e-05
11270.0 3.6027e-05
11290.0 3.5326e-05
11310.0 3.4657e-05
11330.0 3.4067e-05
11350.0 3.3495e-05
11370.0 3.2946e-05
11390.0 3.2453e-05
11410.0 3.2e-05
11430.0 3.1542e-05
11450.0 3.1117e-05
11470.0 3.0723e-05
11490.0 3.0324e-05
11510.0 2.9906e-05
11530.0 2.9503e-05
11550.0 2.909e-05
11570.0 2.8635e-05
11590.0 2.8159e-05
11610.0 2.7678e-05
11630.0 2.7145e-05
11650.0 2.6567e-05
11670.0 2.5997e-05
11690.0 2.5409e-05
11710.0 2.4783e-05
11730.0 2.4159e-05
11750.0 2.3565e-05
11770.0 2.2953e-05
11790.0 2.2346e-05
11810.0 2.1785e-05
11830.0 2.125e-05
11850.0 2.0711e-05
11870.0 2.0226e-05
11890.0 1.9792e-05
11910.0 1.9372e-05
11930.0 1.8978e-05
11950.0 1.8631e-05
11970.0 1.8305e-05
11990.0 1.7985e-05
12010.0 1.7697e-05
12030.0 1.7434e-05
12050.0 1.7175e-05
12070.0 1.6923e-05
12090.0 1.6706e-05
12110.0 1.6496e-05
12130.0 1.6291e-05
12150.0 1.6108e-05
12170.0 1.5951e-05
12190.0 1.5799e-05
12210.0 1.5676e-05
12230.0 1.5589e-05
12250.0 1.5534e-05
12270.0 1.5513e-05
12290.0 1.554e-05
12310.0 1.5612e-05
12330.0 1.5732e-05
12350.0 1.5904e-05
12370.0 1.6122e-05
12390.0 1.6387e-05
12410.0 1.6709e-05
12430.0 1.7057e-05
12450.0 1.7431e-05
12470.0 1.7837e-05
12490.0 1.8258e-05
12510.0 1.8671e-05
12530.0 1.909e-05
12550.0 1.9506e-05
12570.0 1.9895e-05
12590.0 2.026e-05
12610.0 2.0606e-05
12630.0 2.092e-05
12650.0 2.1191e-05
12670.0 2.1433e-05
12690.0 2.1642e-05
12710.0 2.1814e-05
12730.0 2.1952e-05
12750.0 2.2058e-05
12770.0 2.213e-05
12790.0 2.2175e-05
12810.0 2.2189e-05
12830.0 2.2172e-05
12850.0 2.2135e-05
12870.0 2.2076e-05
12890.0 2.1988e-05
12910.0 2.188e-05
12930.0 2.1761e-05
12950.0 2.1613e-05
12970.0 2.1442e-05
12990.0 2.1266e-05
13010.0 2.1073e-05
13030.0 2.0855e-05
13050.0 2.0625e-05
13070.0 2.0393e-05
13090.0 2.0137e-05
13110.0 1.9867e-05
13130.0 1.9601e-05
13150.0 1.9332e-05
13170.0 1.9049e-05
13190.0 1.8785e-05
13210.0 1.8545e-05
13230.0 1.8316e-05
13250.0 1.8111e-05
13270.0 1.7948e-05
13290.0 1.7816e-05
13310.0 1.7716e-05
13330.0 1.7662e-05
13350.0 1.7645e-05
13370.0 1.766e-05
13390.0 1.7704e-05
13410.0 1.7767e-05
13430.0 1.784e-05
13450.0 1.7914e-05
13470.0 1.7977e-05
13490.0 1.8022e-05
13510.0 1.8039e-05
13530.0 1.8019e-05
13550.0 1.7965e-05
13570.0 1.787e-05
13590.0 1.773e-05
13610.0 1.756e-05
13630.0 1.7366e-05
13650.0 1.7137e-05
13670.0 1.689e-05
13690.0 1.6642e-05
13710.0 1.6386e-05
13730.0 1.6118e-05
13750.0 1.5873e-05
13770.0 1.564e-05
13790.0 1.5411e-05
13810.0 1.5199e-05
13830.0 1.5009e-05
13850.0 1.4826e-05
13870.0 1.4653e-05
13890.0 1.4498e-05
13910.0 1.4353e-05
13930.0 1.4212e-05
13950.0 1.4079e-05
13970.0 1.3959e-05
13990.0 1.3842e-05
14010.0 1.3729e-05
14030.0 1.3626e-05
14050.0 1.3529e-05
14070.0 1.3434e-05
14090.0 1.3349e-05
14110.0 1.3273e-05
14130.0 1.3203e-05
14150.0 1.314e-05
14170.0 1.3086e-05
14190.0 1.304e-05
14210.0 1.3001e-05
14230.0 1.2971e-05
14250.0 1.2948e-05
14270.0 1.2934e-05
14290.0 1.2928e-05
14310.0 1.293e-05
14330.0 1.2938e-05
14350.0 1.2955e-05
14370.0 1.2978e-05
14390.0 1.3002e-05
14410.0 1.3032e-05
14430.0 1.3064e-05
14450.0 1.3092e-05
14470.0 1.3118e-05
14490.0 1.3143e-05
14510.0 1.316e-05
14530.0 1.317e-05
14550.0 1.3177e-05
14570.0 1.3179e-05
14590.0 1.3176e-05
14610.0 1.3173e-05
14630.0 1.3173e-05
14650.0 1.3176e-05
14670.0 1.3186e-05
14690.0 1.3208e-05
14710.0 1.3245e-05
14730.0 1.3293e-05
14750.0 1.336e-05
14770.0 1.3451e-05
14790.0 1.356e-05
14810.0 1.3685e-05
14830.0 1.3845e-05
14850.0 1.4022e-05
14870.0 1.4209e-05
14890.0 1.4413e-05
14910.0 1.463e-05
14930.0 1.4835e-05
14950.0 1.502e-05
14970.0 1.5191e-05
14990.0 1.5323e-05
15010.0 1.5409e-05
15030.0 1.5455e-05
15050.0 1.5464e-05
15070.0 1.5436e-05
15090.0 1.5384e-05
15110.0 1.5316e-05
15130.0 1.5238e-05
15150.0 1.5155e-05
15170.0 1.5068e-05
15190.0 1.498e-05
15210.0 1.4891e-05
15230.0 1.4803e-05
15250.0 1.4713e-05
15270.0 1.4624e-05
15290.0 1.4535e-05
15310.0 1.4446e-05
15330.0 1.4357e-05
15350.0 1.4269e-05
15370.0 1.418e-05
15390.0 1.4091e-05
15410.0 1.4003e-05
15430.0 1.3915e-05
15450.0 1.3827e-05
15470.0 1.3738e-05
15490.0 1.3651e-05
15510.0 1.3564e-05
15530.0 1.3476e-05
15550.0 1.339e-05
15570.0 1.3303e-05
15590.0 1.3217e-05
15610.0 1.313e-05
15630.0 1.3045e-05
15650.0 1.296e-05
15670.0 1.2874e-05
15690.0 1.279e-05
15710.0 1.2706e-05
15730.0 1.2622e-05
15750.0 1.2538e-05
15770.0 1.2455e-05
15790.0 1.2373e-05
15810.0 1.229e-05
15830.0 1.2208e-05
15850.0 1.2127e-05
15870.0 1.2046e-05
15890.0 1.1965e-05
15910.0 1.1886e-05
15930.0 1.1806e-05
15950.0 1.1727e-05
15970.0 1.1648e-05
15990.0 1.157e-05
16010.0 1.1493e-05
16030.0 1.1415e-05
16050.0 1.1339e-05
16070.0 1.1263e-05
16090.0 1.1188e-05
16110.0 1.1113e-05
16130.0 1.1039e-05
16150.0 1.0965e-05
16170.0 1.0891e-05
16190.0 1.0819e-05
16210.0 1.0747e-05
16230.0 1.0675e-05
16250.0 1.0604e-05
16270.0 1.0534e-05
16290.0 1.0464e-05
16310.0 1.0394e-05
16330.0 1.0326e-05
16350.0 1.0258e-05
16370.0 1.019e-05
16390.0 1.0123e-05
16410.0 1.0057e-05
16430.0 9.9905e-06
16450.0 9.9251e-06
16470.0 9.8609e-06
16490.0 9.7966e-06
16510.0 9.7327e-06
16530.0 9.6699e-06
16550.0 9.6077e-06
16570.0 9.5455e-06
16590.0 9.4841e-06
16610.0 9.4238e-06
16630.0 9.3637e-06
16650.0 9.3039e-06
16670.0 9.2452e-06
16690.0 9.1871e-06
16710.0 9.1287e-06
16730.0 9.0714e-06
16750.0 9.015e-06
16770.0 8.9588e-06
16790.0 8.9029e-06
16810.0 8.8482e-06
16830.0 8.7939e-06
16850.0 8.7397e-06
16870.0 8.6864e-06
16890.0 8.6339e-06
16910.0 8.5814e-06
16930.0 8.5293e-06
16950.0 8.4784e-06
16970.0 8.4278e-06
16990.0 8.3774e-06
17010.0 8.3279e-06
17030.0 8.2792e-06
17050.0 8.2304e-06
17070.0 8.1822e-06
17090.0 8.1349e-06
17110.0 8.088e-06
17130.0 8.0411e-06
17150.0 7.9951e-06
17170.0 7.95e-06
17190.0 7.9048e-06
17210.0 7.8602e-06
17230.0 7.8165e-06
17250.0 7.7731e-06
17270.0 7.7296e-06
17290.0 7.6872e-06
17310.0 7.6453e-06
17330.0 7.6035e-06
17350.0 7.5621e-06
17370.0 7.5218e-06
17390.0 7.4816e-06
17410.0 7.4416e-06
17430.0 7.4024e-06
17450.0 7.3639e-06
17470.0 7.325e-06
17490.0 7.2869e-06
17510.0 7.2496e-06
17530.0 7.2125e-06
17550.0 7.1755e-06
17570.0 7.1394e-06
17590.0 7.1038e-06
17610.0 7.0682e-06
17630.0 7.0331e-06
17650.0 6.9987e-06
17670.0 6.9645e-06
17690.0 6.9302e-06
17710.0 6.897e-06
17730.0 6.8641e-06
17750.0 6.8313e-06
17770.0 6.799e-06
17790.0 6.7675e-06
17810.0 6.7358e-06
17830.0 6.7044e-06
17850.0 6.6738e-06
17870.0 6.6435e-06
17890.0 6.6132e-06
17910.0 6.5834e-06
17930.0 6.5544e-06
17950.0 6.5253e-06
17970.0 6.4965e-06
17990.0 6.4684e-06
18010.0 6.4406e-06
18030.0 6.4125e-06
18050.0 6.3852e-06
18070.0 6.3584e-06
18090.0 6.3316e-06
18110.0 6.305e-06
18130.0 6.2792e-06
18150.0 6.2536e-06
18170.0 6.228e-06
18190.0 6.2028e-06
18210.0 6.1783e-06
18230.0 6.1535e-06
18250.0 6.129e-06
18270.0 6.1053e-06
18290.0 6.0817e-06
18310.0 6.058e-06
18330.0 6.035e-06
18350.0 6.0124e-06
18370.0 5.9897e-06
18390.0 5.9672e-06
18410.0 5.9454e-06
18430.0 5.9236e-06
18450.0 5.9017e-06
18470.0 5.8805e-06
18490.0 5.8597e-06
18510.0 5.8388e-06
18530.0 5.8182e-06
18550.0 5.7982e-06
18570.0 5.7781e-06
18590.0 5.758e-06
18610.0 5.7384e-06
18630.0 5.7193e-06
18650.0 5.6999e-06
18670.0 5.6808e-06
18690.0 5.6624e-06
18710.0 5.644e-06
18730.0 5.6255e-06
18750.0 5.6076e-06
18770.0 5.59e-06
18790.0 5.5719e-06
18810.0 5.5544e-06
18830.0 5.5374e-06
18850.0 5.5203e-06
18870.0 5.5032e-06
18890.0 5.4867e-06
18910.0 5.4704e-06
18930.0 5.4539e-06
18950.0 5.4377e-06
18970.0 5.422e-06
18990.0 5.4062e-06
19010.0 5.3902e-06
19030.0 5.375e-06
19050.0 5.3599e-06
19070.0 5.3447e-06
19090.0 5.3297e-06
19110.0 5.3153e-06
19130.0 5.3006e-06
19150.0 5.2859e-06
19170.0 5.2718e-06
19190.0 5.2578e-06
19210.0 5.2435e-06
19230.0 5.2296e-06
19250.0 5.2162e-06
19270.0 5.2026e-06
19290.0 5.1891e-06
19310.0 5.176e-06
19330.0 5.163e-06
19350.0 5.1496e-06
19370.0 5.1368e-06
19390.0 5.1242e-06
19410.0 5.1115e-06
19430.0 5.0988e-06
19450.0 5.0867e-06
19470.0 5.0746e-06
19490.0 5.0623e-06
19510.0 5.0503e-06
19530.0 5.0387e-06
19550.0 5.0267e-06
19570.0 5.0148e-06
19590.0 5.0034e-06
19610.0 4.9921e-06
19630.0 4.9805e-06
19650.0 4.9694e-06
19670.0 4.9585e-06
19690.0 4.9473e-06
19710.0 4.9362e-06
19730.0 4.9256e-06
19750.0 4.9148e-06
19770.0 4.9038e-06
19790.0 4.8934e-06
19810.0 4.8831e-06
19830.0 4.8724e-06
19850.0 4.8618e-06
19870.0 4.8512e-06
19890.0 4.8395e-06
19910.0 4.8259e-06
19930.0 4.8104e-06
19950.0 4.7912e-06
19970.0 4.7658e-06
19990.0 4.7332e-06
20010.0 4.6944e-06
20030.0 4.646e-06
20050.0 4.5882e-06
20070.0 4.5249e-06
20090.0 4.4563e-06
20110.0 4.3787e-06
20130.0 4.3002e-06
20150.0 4.2226e-06
20170.0 4.1423e-06
20190.0 4.0608e-06
20210.0 3.9838e-06
20230.0 3.9086e-06
20250.0 3.8329e-06
20270.0 3.7622e-06
20290.0 3.6973e-06
20310.0 3.6351e-06
20330.0 3.5764e-06
20350.0 3.5273e-06
20370.0 3.4834e-06
20390.0 3.4446e-06
20410.0 3.4133e-06
20430.0 3.3894e-06
20450.0 3.3708e-06
20470.0 3.3593e-06
20490.0 3.3546e-06
20510.0 3.3557e-06
20530.0 3.3628e-06
20550.0 3.3751e-06
20570.0 3.3913e-06
20590.0 3.4122e-06
20610.0 3.4367e-06
20630.0 3.4628e-06
20650.0 3.4912e-06
20670.0 3.5222e-06
20690.0 3.5524e-06
20710.0 3.5818e-06
20730.0 3.6112e-06
20750.0 3.6391e-06
20770.0 3.6636e-06
20790.0 3.6861e-06
20810.0 3.706e-06
20830.0 3.7219e-06
20850.0 3.7341e-06
20870.0 3.7428e-06
20890.0 3.7473e-06
20910.0 3.7479e-06
20930.0 3.7447e-06
20950.0 3.7377e-06
20970.0 3.7275e-06
20990.0 3.7145e-06
21010.0 3.6978e-06
21030.0 3.6787e-06
21050.0 3.6581e-06
21070.0 3.6353e-06
21090.0 3.6101e-06
21110.0 3.5852e-06
21130.0 3.5598e-06
21150.0 3.5333e-06
21170.0 3.5071e-06
21190.0 3.4824e-06
21210.0 3.4577e-06
21230.0 3.4337e-06
21250.0 3.4124e-06
21270.0 3.393e-06
21290.0 3.3752e-06
21310.0 3.3602e-06
21330.0 3.3485e-06
21350.0 3.3392e-06
21370.0 3.3328e-06
21390.0 3.3298e-06
21410.0 3.3298e-06
21430.0 3.3329e-06
21450.0 3.3392e-06
21470.0 3.3481e-06
21490.0 3.3599e-06
21510.0 3.3746e-06
21530.0 3.3909e-06
21550.0 3.4094e-06
21570.0 3.4307e-06
21590.0 3.4531e-06
21610.0 3.4765e-06
21630.0 3.5019e-06
21650.0 3.5292e-06
21670.0 3.5557e-06
21690.0 3.5834e-06
21710.0 3.6125e-06
21730.0 3.6416e-06
21750.0 3.6703e-06
21770.0 3.701e-06
21790.0 3.7318e-06
21810.0 3.7618e-06
21830.0 3.7922e-06
21850.0 3.8237e-06
21870.0 3.8543e-06
21890.0 3.884e-06
21910.0 3.9145e-06
21930.0 3.9447e-06
21950.0 3.9733e-06
21970.0 4.0016e-06
21990.0 4.0302e-06
22010.0 4.0562e-06
22030.0 4.0806e-06
22050.0 4.1039e-06
22070.0 4.1251e-06
22090.0 4.1431e-06
22110.0 4.159e-06
22130.0 4.1723e-06
22150.0 4.1819e-06
22170.0 4.188e-06
22190.0 4.1905e-06
22210.0 4.1888e-06
22230.0 4.1832e-06
22250.0 4.1734e-06
22270.0 4.1589e-06
22290.0 4.1407e-06
22310.0 4.1187e-06
22330.0 4.0912e-06
22350.0 4.0601e-06
22370.0 4.0263e-06
22390.0 3.9883e-06
22410.0 3.9455e-06
22430.0 3.902e-06
22450.0 3.8564e-06
22470.0 3.8069e-06
22490.0 3.7562e-06
22510.0 3.7061e-06
22530.0 3.6529e-06
22550.0 3.5983e-06
22570.0 3.546e-06
22590.0 3.4941e-06
22610.0 3.4412e-06
22630.0 3.3901e-06
