#lamb flux
1010.0 2.9687e-08
1030.0 3.3102e-08
1050.0 3.703e-08
1070.0 4.1451e-08
1090.0 4.6474e-08
1110.0 5.1625e-08
1130.0 5.681e-08
1150.0 6.2241e-08
1170.0 6.7843e-08
1190.0 7.3155e-08
1210.0 7.8539e-08
1230.0 8.4102e-08
1250.0 8.9552e-08
1270.0 9.4846e-08
1290.0 1.0044e-07
1310.0 1.0603e-07
1330.0 1.1139e-07
1350.0 1.1681e-07
1370.0 1.224e-07
1390.0 1.2786e-07
1410.0 1.3315e-07
1430.0 1.3868e-07
1450.0 1.4421e-07
1470.0 1.4956e-07
1490.0 1.5496e-07
1510.0 1.6066e-07
1530.0 1.6607e-07
1550.0 1.714e-07
1570.0 1.7691e-07
1590.0 1.8242e-07
1610.0 1.8768e-07
1630.0 1.9311e-07
1650.0 1.9867e-07
1670.0 2.0404e-07
1690.0 2.0934e-07
1710.0 2.1484e-07
1730.0 2.2036e-07
1750.0 2.2553e-07
1770.0 2.3085e-07
1790.0 2.3626e-07
1810.0 2.4148e-07
1830.0 2.4658e-07
1850.0 2.5199e-07
1870.0 2.5722e-07
1890.0 2.6224e-07
1910.0 2.6733e-07
1930.0 2.7251e-07
1950.0 2.7739e-07
1970.0 2.8217e-07
1990.0 2.8708e-07
2010.0 2.9184e-07
2030.0 2.9634e-07
2050.0 3.0091e-07
2070.0 3.0553e-07
2090.0 3.0975e-07
2110.0 3.1386e-07
2130.0 3.18e-07
2150.0 3.2192e-07
2170.0 3.2548e-07
2190.0 3.291e-07
2210.0 3.3259e-07
2230.0 3.3571e-07
2250.0 3.3865e-07
2270.0 3.4163e-07
2290.0 3.4426e-07
2310.0 3.465e-07
2330.0 3.487e-07
2350.0 3.5077e-07
2370.0 3.5253e-07
2390.0 3.5429e-07
2410.0 3.5643e-07
2430.0 3.5875e-07
2450.0 3.6151e-07
2470.0 3.6537e-07
2490.0 3.7056e-07
2510.0 3.7656e-07
2530.0 3.8457e-07
2550.0 3.9614e-07
2570.0 4.1255e-07
2590.0 4.3616e-07
2610.0 4.7424e-07
2630.0 5.2934e-07
2650.0 5.997e-07
2670.0 6.875e-07
2690.0 7.9043e-07
2710.0 8.9363e-07
2730.0 9.8862e-07
2750.0 1.0756e-06
2770.0 1.1438e-06
2790.0 1.1905e-06
2810.0 1.2211e-06
2830.0 1.2391e-06
2850.0 1.2442e-06
2870.0 1.2425e-06
2890.0 1.2371e-06
2910.0 1.229e-06
2930.0 1.2192e-06
2950.0 1.2093e-06
2970.0 1.1996e-06
2990.0 1.1897e-06
3010.0 3.3527e-05
3030.0 3.3267e-05
3050.0 3.3012e-05
3070.0 3.2739e-05
3090.0 3.2454e-05
3110.0 3.2125e-05
3130.0 3.1714e-05
3150.0 3.1196e-05
3170.0 3.0521e-05
3190.0 2.9703e-05
3210.0 2.8796e-05
3230.0 2.7845e-05
3250.0 2.6929e-05
3270.0 2.6257e-05
3290.0 2.581e-05
3310.0 2.5759e-05
3330.0 2.6022e-05
3350.0 2.6567e-05
3370.0 2.7398e-05
3390.0 2.8481e-05
3410.0 2.9682e-05
3430.0 3.1053e-05
3450.0 3.2648e-05
3470.0 3.4404e-05
3490.0 3.6282e-05
3510.0 3.8414e-05
3530.0 4.0729e-05
3550.0 4.3172e-05
3570.0 4.5841e-05
3590.0 4.8852e-05
3610.0 5.2165e-05
3630.0 5.5559e-05
3650.0 5.9161e-05
3670.0 6.2475e-05
3690.0 6.4996e-05
3710.0 6.6357e-05
3730.0 6.5909e-05
3750.0 6.3601e-05
3770.0 6.2399e-05
3790.0 5.8793e-05
3810.0 4.7767e-05
3830.0 4.3393e-05
3850.0 5.0551e-05
3870.0 4.1346e-05
3890.0 3.9225e-05
3910.0 5.2064e-05
3930.0 6.702e-05
3950.0 7.2486e-05
3970.0 8.2479e-05
3990.0 7.4629e-05
4010.0 0.00010853
4030.0 0.00010152
4050.0 9.1772e-05
4070.0 9.794e-05
4090.0 9.3989e-05
4110.0 0.00010042
4130.0 0.00011857
4150.0 0.0001413
4170.0 0.00012198
4190.0 0.00011291
4210.0 0.00012066
4230.0 0.00014571
4250.0 0.00016651
4270.0 0.00017709
4290.0 0.00016699
4310.0 0.00015887
4330.0 0.00016529
4350.0 0.00020523
4370.0 0.00024284
4390.0 0.00020581
4410.0 0.00013741
4430.0 0.00010631
4450.0 9.4143e-05
4470.0 7.9167e-05
4490.0 0.00010584
4510.0 0.000164
4530.0 0.0001929
4550.0 0.00020002
4570.0 0.00020226
4590.0 0.00023033
4610.0 0.00037663
4630.0 0.00050021
4650.0 0.00048309
4670.0 0.0004379
4690.0 0.00046372
4710.0 0.00049188
4730.0 0.00040199
4750.0 0.00026524
4770.0 0.00019951
4790.0 0.00021103
4810.0 0.00020918
4830.0 0.00020297
4850.0 0.00022576
4870.0 0.0002976
4890.0 0.00034671
4910.0 0.00027533
4930.0 0.00025436
4950.0 0.00028923
4970.0 0.00039078
4990.0 0.00052157
5010.0 0.00058369
5030.0 0.00046785
5050.0 0.00028493
5070.0 0.00020007
5090.0 0.00016466
5110.0 0.00016232
5130.0 0.00018397
5150.0 0.00018307
5170.0 0.00017717
5190.0 0.00016586
5210.0 0.00017032
5230.0 0.00019586
5250.0 0.00022117
5270.0 0.00022289
5290.0 0.00024971
5310.0 0.00030943
5330.0 0.00032158
5350.0 0.00031824
5370.0 0.00035537
5390.0 0.00042174
5410.0 0.00037694
5430.0 0.00029794
5450.0 0.00028813
5470.0 0.00033244
5490.0 0.00042487
5510.0 0.00053342
5530.0 0.00060963
5550.0 0.00056281
5570.0 0.00050339
5590.0 0.00042609
5610.0 0.00041748
5630.0 0.00043938
5650.0 0.00042499
5670.0 0.0004012
5690.0 0.00034164
5710.0 0.00033971
5730.0 0.00032421
5750.0 0.00019109
5770.0 0.00015136
5790.0 0.00018046
5810.0 0.00020695
5830.0 0.00027904
5850.0 0.00033955
5870.0 0.00035583
5890.0 0.00033854
5910.0 0.00032554
5930.0 0.00032048
5950.0 0.00033374
5970.0 0.0003926
5990.0 0.00034035
6010.0 0.00027002
6030.0 0.00022089
6050.0 0.00019386
6070.0 0.00021598
6090.0 0.00024622
6110.0 0.00025929
6130.0 0.00024054
6150.0 0.00020149
6170.0 0.00018873
6190.0 0.00023288
6210.0 0.00032528
6230.0 0.0004301
6250.0 0.00044615
6270.0 0.00036281
6290.0 0.00030541
6310.0 0.00023688
6330.0 0.00017904
6350.0 0.00016838
6370.0 0.00017837
6390.0 0.000215
6410.0 0.00026444
6430.0 0.00031421
6450.0 0.00037972
6470.0 0.0004257
6490.0 0.00051995
6510.0 0.00058281
6530.0 0.00056652
6550.0 0.00052005
6570.0 0.00045799
6590.0 0.00044342
6610.0 0.00037737
6630.0 0.00036873
6650.0 0.0003468
6670.0 0.00032929
6690.0 0.00028954
6710.0 0.00026941
6730.0 0.00018302
6750.0 0.00018956
6770.0 0.00023092
6790.0 0.0002872
6810.0 0.00024055
6830.0 0.00024686
6850.0 0.00022441
6870.0 0.0002138
6890.0 0.00019571
6910.0 0.00020875
6930.0 0.00019499
6950.0 0.00021753
6970.0 0.00022022
6990.0 0.00024514
7010.0 0.00025176
7030.0 0.00025667
7050.0 0.00023022
7070.0 0.00020953
7090.0 0.00020802
7110.0 0.00020572
7130.0 0.00022373
7150.0 0.00024829
7170.0 0.00027201
7190.0 0.00028037
7210.0 0.00025703
7230.0 0.00026131
7250.0 0.00029017
7270.0 0.00032784
7290.0 0.00038017
7310.0 0.00038367
7330.0 0.00034586
7350.0 0.00030822
7370.0 0.0002533
7390.0 0.00026154
7410.0 0.00030309
7430.0 0.00033824
7450.0 0.00036461
7470.0 0.00036348
7490.0 0.00035432
7510.0 0.0004665
7530.0 0.00042304
7550.0 0.00037319
7570.0 0.00026733
7590.0 0.0001532
7610.0 0.00012445
7630.0 0.00015336
7650.0 0.00018926
7670.0 0.00025821
7690.0 0.00029225
7710.0 0.00028454
7730.0 0.00028458
7750.0 0.00033355
7770.0 0.00033653
7790.0 0.00031559
7810.0 0.00028406
7830.0 0.00029122
7850.0 0.00029162
7870.0 0.00027619
7890.0 0.00022987
7910.0 0.000172
7930.0 0.00016203
7950.0 0.00014574
7970.0 0.00013204
7990.0 0.00012743
8010.0 0.00012723
8030.0 0.00012405
8050.0 0.00012818
8070.0 0.00013121
8090.0 0.00014272
8110.0 0.00013388
8130.0 0.00010295
8150.0 9.8581e-05
8170.0 7.9551e-05
8190.0 7.1663e-05
8210.0 9.298e-05
8230.0 0.00010345
8250.0 7.809e-05
8270.0 6.8183e-05
8290.0 6.7738e-05
8310.0 4.9993e-05
8330.0 3.1666e-05
8350.0 2.4114e-05
8370.0 1.7937e-05
8390.0 2.8113e-05
8410.0 3.4799e-05
8430.0 4.3043e-05
8450.0 4.7965e-05
8470.0 6.1622e-05
8490.0 5.606e-05
8510.0 5.1543e-05
8530.0 4.4706e-05
8550.0 7.2084e-05
8570.0 9.8122e-05
8590.0 9.3028e-05
8610.0 0.00012109
8630.0 0.00013693
8650.0 0.00011833
8670.0 0.0001324
8690.0 0.00015386
8710.0 0.00013984
8730.0 0.00014038
8750.0 0.00012188
8770.0 0.00011405
8790.0 0.00011829
8810.0 0.00011846
8830.0 8.5828e-05
8850.0 6.081e-05
8870.0 4.8916e-05
8890.0 6.0599e-05
8910.0 7.6035e-05
8930.0 8.9106e-05
8950.0 0.00010123
8970.0 0.00010061
8990.0 8.8718e-05
9010.0 7.2563e-05
9030.0 6.6829e-05
9050.0 6.8264e-05
9070.0 6.9539e-05
9090.0 7.0528e-05
9110.0 7.1603e-05
9130.0 7.242e-05
9150.0 7.3059e-05
9170.0 7.3739e-05
9190.0 7.4466e-05
9210.0 7.5227e-05
9230.0 7.6033e-05
9250.0 7.6865e-05
9270.0 7.7727e-05
9290.0 7.8615e-05
9310.0 7.9521e-05
9330.0 8.045e-05
9350.0 8.1408e-05
9370.0 8.2385e-05
9390.0 8.3381e-05
9410.0 8.4403e-05
9430.0 8.5451e-05
9450.0 8.6514e-05
9470.0 8.7599e-05
9490.0 8.8711e-05
9510.0 8.9843e-05
9530.0 9.0991e-05
9550.0 9.2168e-05
9570.0 9.3366e-05
9590.0 9.4581e-05
9610.0 9.5817e-05
9630.0 9.7078e-05
9650.0 9.8356e-05
9670.0 9.9649e-05
9690.0 0.00010097
9710.0 0.0001023
9730.0 0.00010366
9750.0 0.00010503
9770.0 0.00010642
9790.0 0.00010783
9810.0 0.00010925
9830.0 0.00011069
9850.0 0.00011214
9870.0 0.00011361
9890.0 0.00011509
9910.0 0.00011659
9930.0 0.0001181
9950.0 0.00011962
9970.0 0.00012115
9990.0 0.00012269
10010.0 0.00011505
10030.0 0.00011646
10050.0 0.00011788
10070.0 0.00011929
10090.0 0.00012072
10110.0 0.00012215
10130.0 0.00012359
10150.0 0.00012503
10170.0 0.00012647
10190.0 0.00012791
10210.0 0.00012934
10230.0 0.00013078
10250.0 0.00013221
10270.0 0.00013364
10290.0 0.00013505
10310.0 0.00013647
10330.0 0.00013788
10350.0 0.00013928
10370.0 0.00014067
10390.0 0.00014205
10410.0 0.00014341
10430.0 0.00014477
10450.0 0.00014611
10470.0 0.00014743
10490.0 0.00014874
10510.0 0.00015003
10530.0 0.00015131
10550.0 0.00015256
10570.0 0.00015379
10590.0 0.000155
10610.0 0.0001562
10630.0 0.00015736
10650.0 0.0001585
10670.0 0.00015962
10690.0 0.00016071
10710.0 0.00016177
10730.0 0.00016281
10750.0 0.00016382
10770.0 0.0001648
10790.0 0.00016574
10810.0 0.00016666
10830.0 0.00016753
10850.0 0.00016836
10870.0 0.00016912
10890.0 0.00016978
10910.0 0.00017028
10930.0 0.00017053
10950.0 0.0001704
10970.0 0.0001698
10990.0 0.00016867
11010.0 0.00016878
11030.0 0.00016621
11050.0 0.00016307
11070.0 0.00015929
11090.0 0.00015472
11110.0 0.00014998
11130.0 0.00014502
11150.0 0.00013967
11170.0 0.00013417
11190.0 0.00012885
11210.0 0.0001234
11230.0 0.00011786
11250.0 0.00011263
11270.0 0.00010766
11290.0 0.00010274
11310.0 9.8144e-05
11330.0 9.4134e-05
11350.0 9.0375e-05
11370.0 8.692e-05
11390.0 8.3928e-05
11410.0 8.1294e-05
11430.0 7.8813e-05
11450.0 7.6622e-05
11470.0 7.4661e-05
11490.0 7.2768e-05
11510.0 7.0871e-05
11530.0 6.9044e-05
11550.0 6.7182e-05
11570.0 6.5171e-05
11590.0 6.3077e-05
11610.0 6.0949e-05
11630.0 5.8655e-05
11650.0 5.6229e-05
11670.0 5.3862e-05
11690.0 5.1489e-05
11710.0 4.9073e-05
11730.0 4.6754e-05
11750.0 4.4621e-05
11770.0 4.2546e-05
11790.0 4.0608e-05
11810.0 3.89e-05
11830.0 3.7366e-05
11850.0 3.5945e-05
11870.0 3.4734e-05
11890.0 3.3699e-05
11910.0 3.2762e-05
11930.0 3.1921e-05
11950.0 3.1181e-05
11970.0 3.0483e-05
11990.0 2.9791e-05
12010.0 2.9119e-05
12030.0 2.8451e-05
12050.0 2.7751e-05
12070.0 2.7016e-05
12090.0 2.63e-05
12110.0 2.5568e-05
12130.0 2.4825e-05
12150.0 2.4119e-05
12170.0 2.3469e-05
12190.0 2.2852e-05
12210.0 2.2329e-05
12230.0 2.1921e-05
12250.0 2.1627e-05
12270.0 2.1465e-05
12290.0 2.1446e-05
12310.0 2.1559e-05
12330.0 2.1823e-05
12350.0 2.2225e-05
12370.0 2.2728e-05
12390.0 2.3343e-05
12410.0 2.4096e-05
12430.0 2.4869e-05
12450.0 2.5673e-05
12470.0 2.6532e-05
12490.0 2.7386e-05
12510.0 2.8171e-05
12530.0 2.894e-05
12550.0 2.9664e-05
12570.0 3.0276e-05
12590.0 3.0785e-05
12610.0 3.1213e-05
12630.0 3.1517e-05
12650.0 3.1676e-05
12670.0 3.1728e-05
12690.0 3.1661e-05
12710.0 3.1474e-05
12730.0 3.1184e-05
12750.0 3.0784e-05
12770.0 3.0294e-05
12790.0 2.9735e-05
12810.0 2.91e-05
12830.0 2.8393e-05
12850.0 2.7664e-05
12870.0 2.6903e-05
12890.0 2.6091e-05
12910.0 2.5268e-05
12930.0 2.4452e-05
12950.0 2.3602e-05
12970.0 2.2732e-05
12990.0 2.1896e-05
13010.0 2.1061e-05
13030.0 2.0208e-05
13050.0 1.9376e-05
13070.0 1.8584e-05
13090.0 1.7781e-05
13110.0 1.6994e-05
13130.0 1.6258e-05
13150.0 1.5555e-05
13170.0 1.4862e-05
13190.0 1.4238e-05
13210.0 1.3683e-05
13230.0 1.3173e-05
13250.0 1.2728e-05
13270.0 1.2368e-05
13290.0 1.2078e-05
13310.0 1.1862e-05
13330.0 1.1734e-05
13350.0 1.1686e-05
13370.0 1.172e-05
13390.0 1.1836e-05
13410.0 1.2012e-05
13430.0 1.2252e-05
13450.0 1.2558e-05
13470.0 1.2899e-05
13490.0 1.3262e-05
13510.0 1.3674e-05
13530.0 1.4091e-05
13550.0 1.4489e-05
13570.0 1.4881e-05
13590.0 1.5263e-05
13610.0 1.5601e-05
13630.0 1.5893e-05
13650.0 1.6158e-05
13670.0 1.6374e-05
13690.0 1.6535e-05
13710.0 1.6652e-05
13730.0 1.6727e-05
13750.0 1.6749e-05
13770.0 1.6729e-05
13790.0 1.6669e-05
13810.0 1.6572e-05
13830.0 1.6445e-05
13850.0 1.6286e-05
13870.0 1.6096e-05
13890.0 1.5886e-05
13910.0 1.5657e-05
13930.0 1.54e-05
13950.0 1.5128e-05
13970.0 1.4855e-05
13990.0 1.4564e-05
14010.0 1.4262e-05
14030.0 1.3966e-05
14050.0 1.3673e-05
14070.0 1.3369e-05
14090.0 1.3082e-05
14110.0 1.2816e-05
14130.0 1.2561e-05
14150.0 1.2325e-05
14170.0 1.2125e-05
14190.0 1.1954e-05
14210.0 1.181e-05
14230.0 1.1706e-05
14250.0 1.1639e-05
14270.0 1.161e-05
14290.0 1.1621e-05
14310.0 1.1669e-05
14330.0 1.1753e-05
14350.0 1.1875e-05
14370.0 1.2026e-05
14390.0 1.2199e-05
14410.0 1.2404e-05
14430.0 1.2631e-05
14450.0 1.2867e-05
14470.0 1.3117e-05
14490.0 1.3391e-05
14510.0 1.3661e-05
14530.0 1.393e-05
14550.0 1.4212e-05
14570.0 1.45e-05
14590.0 1.4781e-05
14610.0 1.5074e-05
14630.0 1.5387e-05
14650.0 1.5703e-05
14670.0 1.6029e-05
14690.0 1.6385e-05
14710.0 1.6771e-05
14730.0 1.716e-05
14750.0 1.7585e-05
14770.0 1.8053e-05
14790.0 1.8538e-05
14810.0 1.9041e-05
14830.0 1.9603e-05
14850.0 2.018e-05
14870.0 2.0751e-05
14890.0 2.1337e-05
14910.0 2.1931e-05
14930.0 2.2479e-05
14950.0 2.2976e-05
14970.0 2.3432e-05
14990.0 2.3806e-05
15010.0 2.409e-05
15030.0 2.4298e-05
15050.0 2.4436e-05
15070.0 2.4508e-05
15090.0 2.4539e-05
15110.0 2.4542e-05
15130.0 2.4527e-05
15150.0 2.4505e-05
15170.0 2.4477e-05
15190.0 2.4446e-05
15210.0 2.4416e-05
15230.0 2.4387e-05
15250.0 2.4356e-05
15270.0 2.4326e-05
15290.0 2.4299e-05
15310.0 2.4271e-05
15330.0 2.4242e-05
15350.0 2.4216e-05
15370.0 2.419e-05
15390.0 2.4161e-05
15410.0 2.4134e-05
15430.0 2.4109e-05
15450.0 2.4083e-05
15470.0 2.4055e-05
15490.0 2.4031e-05
15510.0 2.4006e-05
15530.0 2.398e-05
15550.0 2.3954e-05
15570.0 2.3931e-05
15590.0 2.3905e-05
15610.0 2.3877e-05
15630.0 2.3853e-05
15650.0 2.3829e-05
15670.0 2.3802e-05
15690.0 2.3777e-05
15710.0 2.3754e-05
15730.0 2.3727e-05
15750.0 2.3701e-05
15770.0 2.3676e-05
15790.0 2.365e-05
15810.0 2.3622e-05
15830.0 2.3596e-05
15850.0 2.3571e-05
15870.0 2.3543e-05
15890.0 2.3515e-05
15910.0 2.3489e-05
15930.0 2.3462e-05
15950.0 2.3432e-05
15970.0 2.3404e-05
15990.0 2.3376e-05
16010.0 2.3346e-05
16030.0 2.3314e-05
16050.0 2.3286e-05
16070.0 2.3256e-05
16090.0 2.3224e-05
16110.0 2.3193e-05
16130.0 2.3163e-05
16150.0 2.3129e-05
16170.0 2.3095e-05
16190.0 2.3063e-05
16210.0 2.3029e-05
16230.0 2.2993e-05
16250.0 2.2959e-05
16270.0 2.2925e-05
16290.0 2.2888e-05
16310.0 2.2851e-05
16330.0 2.2815e-05
16350.0 2.2777e-05
16370.0 2.2735e-05
16390.0 2.2698e-05
16410.0 2.2659e-05
16430.0 2.2617e-05
16450.0 2.2576e-05
16470.0 2.2536e-05
16490.0 2.2493e-05
16510.0 2.2449e-05
16530.0 2.2406e-05
16550.0 2.2362e-05
16570.0 2.2316e-05
16590.0 2.2269e-05
16610.0 2.2224e-05
16630.0 2.2177e-05
16650.0 2.2128e-05
16670.0 2.2081e-05
16690.0 2.2033e-05
16710.0 2.198e-05
16730.0 2.1929e-05
16750.0 2.1879e-05
16770.0 2.1826e-05
16790.0 2.1772e-05
16810.0 2.172e-05
16830.0 2.1666e-05
16850.0 2.161e-05
16870.0 2.1554e-05
16890.0 2.1499e-05
16910.0 2.1441e-05
16930.0 2.1381e-05
16950.0 2.1324e-05
16970.0 2.1265e-05
16990.0 2.1204e-05
17010.0 2.1143e-05
17030.0 2.1084e-05
17050.0 2.102e-05
17070.0 2.0956e-05
17090.0 2.0894e-05
17110.0 2.083e-05
17130.0 2.0763e-05
17150.0 2.0698e-05
17170.0 2.0633e-05
17190.0 2.0565e-05
17210.0 2.0497e-05
17230.0 2.0431e-05
17250.0 2.0362e-05
17270.0 2.029e-05
17290.0 2.022e-05
17310.0 2.0151e-05
17330.0 2.0078e-05
17350.0 2.0005e-05
17370.0 1.9934e-05
17390.0 1.9861e-05
17410.0 1.9786e-05
17430.0 1.9712e-05
17450.0 1.9639e-05
17470.0 1.9561e-05
17490.0 1.9484e-05
17510.0 1.9409e-05
17530.0 1.9332e-05
17550.0 1.9252e-05
17570.0 1.9175e-05
17590.0 1.9098e-05
17610.0 1.9017e-05
17630.0 1.8937e-05
17650.0 1.8858e-05
17670.0 1.8778e-05
17690.0 1.8693e-05
17710.0 1.8613e-05
17730.0 1.8532e-05
17750.0 1.8449e-05
17770.0 1.8366e-05
17790.0 1.8285e-05
17810.0 1.82e-05
17830.0 1.8114e-05
17850.0 1.8031e-05
17870.0 1.7947e-05
17890.0 1.786e-05
17910.0 1.7773e-05
17930.0 1.769e-05
17950.0 1.7603e-05
17970.0 1.7516e-05
17990.0 1.743e-05
18010.0 1.7344e-05
18030.0 1.7254e-05
18050.0 1.7167e-05
18070.0 1.708e-05
18090.0 1.6991e-05
18110.0 1.6901e-05
18130.0 1.6815e-05
18150.0 1.6727e-05
18170.0 1.6636e-05
18190.0 1.6547e-05
18210.0 1.6459e-05
18230.0 1.6369e-05
18250.0 1.6277e-05
18270.0 1.6189e-05
18290.0 1.6099e-05
18310.0 1.6008e-05
18330.0 1.5918e-05
18350.0 1.5829e-05
18370.0 1.5738e-05
18390.0 1.5646e-05
18410.0 1.5557e-05
18430.0 1.5466e-05
18450.0 1.5373e-05
18470.0 1.5283e-05
18490.0 1.5193e-05
18510.0 1.5102e-05
18530.0 1.501e-05
18550.0 1.4921e-05
18570.0 1.483e-05
18590.0 1.4737e-05
18610.0 1.4647e-05
18630.0 1.4557e-05
18650.0 1.4465e-05
18670.0 1.4373e-05
18690.0 1.4284e-05
18710.0 1.4194e-05
18730.0 1.4102e-05
18750.0 1.4012e-05
18770.0 1.3923e-05
18790.0 1.383e-05
18810.0 1.3739e-05
18830.0 1.365e-05
18850.0 1.356e-05
18870.0 1.3469e-05
18890.0 1.338e-05
18910.0 1.3292e-05
18930.0 1.3201e-05
18950.0 1.3111e-05
18970.0 1.3023e-05
18990.0 1.2934e-05
19010.0 1.2842e-05
19030.0 1.2755e-05
19050.0 1.2667e-05
19070.0 1.2577e-05
19090.0 1.2489e-05
19110.0 1.2403e-05
19130.0 1.2314e-05
19150.0 1.2225e-05
19170.0 1.2139e-05
19190.0 1.2052e-05
19210.0 1.1963e-05
19230.0 1.1876e-05
19250.0 1.1791e-05
19270.0 1.1705e-05
19290.0 1.1618e-05
19310.0 1.1533e-05
19330.0 1.1448e-05
19350.0 1.1361e-05
19370.0 1.1276e-05
19390.0 1.1192e-05
19410.0 1.1107e-05
19430.0 1.1021e-05
19450.0 1.0939e-05
19470.0 1.0856e-05
19490.0 1.0771e-05
19510.0 1.0688e-05
19530.0 1.0607e-05
19550.0 1.0523e-05
19570.0 1.0439e-05
19590.0 1.0358e-05
19610.0 1.0277e-05
19630.0 1.0194e-05
19650.0 1.0113e-05
19670.0 1.0034e-05
19690.0 9.9524e-06
19710.0 9.8714e-06
19730.0 9.7927e-06
19750.0 9.7132e-06
19770.0 9.6317e-06
19790.0 9.5533e-06
19810.0 9.4759e-06
19830.0 9.3964e-06
19850.0 9.3173e-06
19870.0 9.2398e-06
19890.0 9.159e-06
19910.0 9.0736e-06
19930.0 8.9859e-06
19950.0 8.8912e-06
19970.0 8.7827e-06
19990.0 8.6603e-06
20010.0 8.547e-06
20030.0 8.3942e-06
20050.0 8.2228e-06
20070.0 8.043e-06
20090.0 7.8547e-06
20110.0 7.6481e-06
20130.0 7.4434e-06
20150.0 7.2439e-06
20170.0 7.0409e-06
20190.0 6.8383e-06
20210.0 6.6486e-06
20230.0 6.4654e-06
20250.0 6.2836e-06
20270.0 6.1152e-06
20290.0 5.9614e-06
20310.0 5.8153e-06
20330.0 5.6786e-06
20350.0 5.5635e-06
20370.0 5.4603e-06
20390.0 5.3688e-06
20410.0 5.2933e-06
20430.0 5.2332e-06
20450.0 5.1843e-06
20470.0 5.1495e-06
20490.0 5.128e-06
20510.0 5.118e-06
20530.0 5.1196e-06
20550.0 5.1313e-06
20570.0 5.1509e-06
20590.0 5.1799e-06
20610.0 5.2165e-06
20630.0 5.2576e-06
20650.0 5.3045e-06
20670.0 5.3592e-06
20690.0 5.4149e-06
20710.0 5.4725e-06
20730.0 5.5347e-06
20750.0 5.5993e-06
20770.0 5.6618e-06
20790.0 5.7268e-06
20810.0 5.795e-06
20830.0 5.8615e-06
20850.0 5.9273e-06
20870.0 5.9971e-06
20890.0 6.0672e-06
20910.0 6.1337e-06
20930.0 6.2021e-06
20950.0 6.2727e-06
20970.0 6.3409e-06
20990.0 6.4077e-06
21010.0 6.4783e-06
21030.0 6.5472e-06
21050.0 6.6127e-06
21070.0 6.6786e-06
21090.0 6.7455e-06
21110.0 6.8065e-06
21130.0 6.8645e-06
21150.0 6.9221e-06
21170.0 6.9754e-06
21190.0 7.0225e-06
21210.0 7.0674e-06
21230.0 7.108e-06
21250.0 7.1405e-06
21270.0 7.1665e-06
21290.0 7.1864e-06
21310.0 7.1975e-06
21330.0 7.1992e-06
21350.0 7.1919e-06
21370.0 7.1739e-06
21390.0 7.1453e-06
21410.0 7.1057e-06
21430.0 7.0518e-06
21450.0 6.9867e-06
21470.0 6.9116e-06
21490.0 6.8232e-06
21510.0 6.7222e-06
21530.0 6.6153e-06
21550.0 6.4995e-06
21570.0 6.372e-06
21590.0 6.2419e-06
21610.0 6.1115e-06
21630.0 5.9764e-06
21650.0 5.839e-06
21670.0 5.7137e-06
21690.0 5.5922e-06
21710.0 5.4756e-06
21730.0 5.3714e-06
21750.0 5.2812e-06
21770.0 5.1993e-06
21790.0 5.133e-06
21810.0 5.0837e-06
21830.0 5.049e-06
21850.0 5.0296e-06
21870.0 5.0265e-06
21890.0 5.0375e-06
21910.0 5.0636e-06
21930.0 5.1037e-06
21950.0 5.1544e-06
21970.0 5.2171e-06
21990.0 5.2942e-06
22010.0 5.3767e-06
22030.0 5.4655e-06
22050.0 5.5639e-06
22070.0 5.6679e-06
22090.0 5.7706e-06
22110.0 5.8786e-06
22130.0 5.991e-06
22150.0 6.0999e-06
22170.0 6.206e-06
22190.0 6.315e-06
22210.0 6.4197e-06
22230.0 6.5143e-06
22250.0 6.6057e-06
22270.0 6.6921e-06
22290.0 6.7676e-06
22310.0 6.8337e-06
22330.0 6.8937e-06
22350.0 6.9415e-06
22370.0 6.9768e-06
22390.0 7.0013e-06
22410.0 7.0136e-06
22430.0 7.0122e-06
22450.0 6.9983e-06
22470.0 6.9705e-06
22490.0 6.9293e-06
22510.0 6.8765e-06
22530.0 6.8083e-06
22550.0 6.7248e-06
22570.0 6.6316e-06
22590.0 6.5264e-06
22610.0 6.4051e-06
