#lamb flux
1010.0 1.0059e-06
1030.0 1.1337e-06
1050.0 1.2807e-06
1070.0 1.4461e-06
1090.0 1.6341e-06
1110.0 1.8268e-06
1130.0 2.0209e-06
1150.0 2.2241e-06
1170.0 2.4337e-06
1190.0 2.6325e-06
1210.0 2.834e-06
1230.0 3.0422e-06
1250.0 3.2462e-06
1270.0 3.4443e-06
1290.0 3.6536e-06
1310.0 3.8627e-06
1330.0 4.0633e-06
1350.0 4.2662e-06
1370.0 4.4756e-06
1390.0 4.6797e-06
1410.0 4.8778e-06
1430.0 5.0849e-06
1450.0 5.2919e-06
1470.0 5.492e-06
1490.0 5.6941e-06
1510.0 5.9077e-06
1530.0 6.1099e-06
1550.0 6.3094e-06
1570.0 6.5157e-06
1590.0 6.722e-06
1610.0 6.9191e-06
1630.0 7.1221e-06
1650.0 7.3304e-06
1670.0 7.5316e-06
1690.0 7.7299e-06
1710.0 7.9357e-06
1730.0 8.1424e-06
1750.0 8.3362e-06
1770.0 8.5353e-06
1790.0 8.738e-06
1810.0 8.9334e-06
1830.0 9.1246e-06
1850.0 9.327e-06
1870.0 9.5231e-06
1890.0 9.7112e-06
1910.0 9.9019e-06
1930.0 1.0096e-05
1950.0 1.0279e-05
1970.0 1.0458e-05
1990.0 1.0643e-05
2010.0 1.0821e-05
2030.0 1.099e-05
2050.0 1.1162e-05
2070.0 1.1335e-05
2090.0 1.1494e-05
2110.0 1.1648e-05
2130.0 1.1804e-05
2150.0 1.1952e-05
2170.0 1.2086e-05
2190.0 1.2223e-05
2210.0 1.2354e-05
2230.0 1.2473e-05
2250.0 1.2584e-05
2270.0 1.2697e-05
2290.0 1.2797e-05
2310.0 1.2882e-05
2330.0 1.2965e-05
2350.0 1.3043e-05
2370.0 1.3106e-05
2390.0 1.3164e-05
2410.0 1.3228e-05
2430.0 1.3285e-05
2450.0 1.3341e-05
2470.0 1.3413e-05
2490.0 1.3508e-05
2510.0 1.3621e-05
2530.0 1.3796e-05
2550.0 1.4102e-05
2570.0 1.46e-05
2590.0 1.5375e-05
2610.0 1.6662e-05
2630.0 1.8518e-05
2650.0 2.0834e-05
2670.0 2.3635e-05
2690.0 2.68e-05
2710.0 2.9846e-05
2730.0 3.2532e-05
2750.0 3.4888e-05
2770.0 3.6647e-05
2790.0 3.7785e-05
2810.0 3.8493e-05
2830.0 3.8897e-05
2850.0 3.9e-05
2870.0 3.8958e-05
2890.0 3.8857e-05
2910.0 3.871e-05
2930.0 3.8518e-05
2950.0 3.8339e-05
2970.0 3.817e-05
2990.0 3.7987e-05
3010.0 0.00078611
3030.0 0.00078203
3050.0 0.00077798
3070.0 0.00077327
3090.0 0.00076828
3110.0 0.00076221
3130.0 0.0007541
3150.0 0.00074351
3170.0 0.00072962
3190.0 0.00071278
3210.0 0.00069442
3230.0 0.000676
3250.0 0.00066068
3270.0 0.00065055
3290.0 0.00064823
3310.0 0.00065327
3330.0 0.00066723
3350.0 0.00068794
3370.0 0.00071586
3390.0 0.00075013
3410.0 0.00078701
3430.0 0.00082827
3450.0 0.00087546
3470.0 0.0009265
3490.0 0.00098004
3510.0 0.0010398
3530.0 0.0011032
3550.0 0.0011666
3570.0 0.0012327
3590.0 0.0013062
3610.0 0.0013819
3630.0 0.0014616
3650.0 0.0015444
3670.0 0.0016223
3690.0 0.0016832
3710.0 0.0017211
3730.0 0.0017284
3750.0 0.0017052
3770.0 0.0015687
3790.0 0.0014154
3810.0 0.0013123
3830.0 0.0011461
3850.0 0.00085284
3870.0 0.00060631
3890.0 0.0010137
3910.0 0.0016486
3930.0 0.0019938
3950.0 0.0019591
3970.0 0.0020025
3990.0 0.002352
4010.0 0.0030212
4030.0 0.0030577
4050.0 0.00271
4070.0 0.002402
4090.0 0.0022708
4110.0 0.0027371
4130.0 0.0028609
4150.0 0.0027919
4170.0 0.0028312
4190.0 0.0028864
4210.0 0.0028491
4230.0 0.003147
4250.0 0.0034398
4270.0 0.0034894
4290.0 0.0035328
4310.0 0.0036234
4330.0 0.0039952
4350.0 0.0046074
4370.0 0.005231
4390.0 0.0049657
4410.0 0.0040664
4430.0 0.0034123
4450.0 0.0029229
4470.0 0.0028373
4490.0 0.0031173
4510.0 0.0034968
4530.0 0.0038637
4550.0 0.0044751
4570.0 0.0052954
4590.0 0.0064198
4610.0 0.0082441
4630.0 0.010016
4650.0 0.010299
4670.0 0.0099441
4690.0 0.010598
4710.0 0.011191
4730.0 0.009492
4750.0 0.0067821
4770.0 0.0055257
4790.0 0.0053399
4810.0 0.0049653
4830.0 0.0046856
4850.0 0.0053658
4870.0 0.0069258
4890.0 0.0079604
4910.0 0.006754
4930.0 0.0059766
4950.0 0.0066912
4970.0 0.0089682
4990.0 0.011634
5010.0 0.012377
5030.0 0.010239
5050.0 0.0066095
5070.0 0.0045413
5090.0 0.0040301
5110.0 0.0042117
5130.0 0.0045344
5150.0 0.0047633
5170.0 0.0047579
5190.0 0.0046569
5210.0 0.0045091
5230.0 0.004619
5250.0 0.0049344
5270.0 0.0056758
5290.0 0.006546
5310.0 0.0072095
5330.0 0.0073938
5350.0 0.0074476
5370.0 0.0080908
5390.0 0.0087396
5410.0 0.0084972
5430.0 0.0073414
5450.0 0.006749
5470.0 0.0075577
5490.0 0.0096906
5510.0 0.012376
5530.0 0.013754
5550.0 0.013333
5570.0 0.01208
5590.0 0.01077
5610.0 0.0099468
5630.0 0.009441
5650.0 0.0096511
5670.0 0.0094187
5690.0 0.0087381
5710.0 0.0082723
5730.0 0.0075036
5750.0 0.0053864
5770.0 0.0046745
5790.0 0.005256
5810.0 0.0063504
5830.0 0.0072274
5850.0 0.0079257
5870.0 0.0081573
5890.0 0.0078781
5910.0 0.0075393
5930.0 0.007557
5950.0 0.0079132
5970.0 0.0084307
5990.0 0.0079833
6010.0 0.0067158
6030.0 0.0055782
6050.0 0.0048408
6070.0 0.0048115
6090.0 0.0054235
6110.0 0.0059577
6130.0 0.0057419
6150.0 0.0052946
6170.0 0.0057566
6190.0 0.0069392
6210.0 0.0084654
6230.0 0.0097534
6250.0 0.0097787
6270.0 0.0087551
6290.0 0.0072513
6310.0 0.005762
6330.0 0.0045808
6350.0 0.004124
6370.0 0.0044619
6390.0 0.0052759
6410.0 0.0060937
6430.0 0.0070649
6450.0 0.0082221
6470.0 0.010054
6490.0 0.012379
6510.0 0.013692
6530.0 0.012733
6550.0 0.01169
6570.0 0.011354
6590.0 0.010913
6610.0 0.0097447
6630.0 0.008774
6650.0 0.008074
6670.0 0.0083681
6690.0 0.0082636
6710.0 0.007341
6730.0 0.0066708
6750.0 0.0059777
6770.0 0.0058032
6790.0 0.0063931
6810.0 0.0065794
6830.0 0.0067554
6850.0 0.0066161
6870.0 0.0063316
6890.0 0.0061803
6910.0 0.0059484
6930.0 0.0055875
6950.0 0.0056834
6970.0 0.0057676
6990.0 0.006441
7010.0 0.0068637
7030.0 0.0062881
7050.0 0.0058968
7070.0 0.0057236
7090.0 0.0052396
7110.0 0.0049096
7130.0 0.0050162
7150.0 0.005265
7170.0 0.005586
7190.0 0.0056253
7210.0 0.0055809
7230.0 0.0058124
7250.0 0.0066613
7270.0 0.0077938
7290.0 0.0084508
7310.0 0.0082562
7330.0 0.0073474
7350.0 0.0065833
7370.0 0.0063485
7390.0 0.0064038
7410.0 0.0066922
7430.0 0.0073142
7450.0 0.0079199
7470.0 0.0087034
7490.0 0.0096398
7510.0 0.009371
7530.0 0.0088736
7550.0 0.0074119
7570.0 0.0060637
7590.0 0.0048124
7610.0 0.0043677
7630.0 0.004604
7650.0 0.0052706
7670.0 0.0058407
7690.0 0.0066133
7710.0 0.0072746
7730.0 0.0075531
7750.0 0.0076479
7770.0 0.0076094
7790.0 0.0074212
7810.0 0.0076245
7830.0 0.0073975
7850.0 0.0066075
7870.0 0.0059522
7890.0 0.0054835
7910.0 0.0048671
7930.0 0.0041761
7950.0 0.0038071
7970.0 0.0037704
7990.0 0.0039296
8010.0 0.004168
8030.0 0.0042112
8050.0 0.0042094
8070.0 0.0041027
8090.0 0.0041264
8110.0 0.0039067
8130.0 0.0035592
8150.0 0.0033408
8170.0 0.0031933
8190.0 0.0032296
8210.0 0.0033102
8230.0 0.0034902
8250.0 0.0033959
8270.0 0.0030368
8290.0 0.0023835
8310.0 0.0016214
8330.0 0.0010616
8350.0 0.00076082
8370.0 0.00087896
8390.0 0.0009867
8410.0 0.0012618
8430.0 0.001534
8450.0 0.0016865
8470.0 0.0017907
8490.0 0.0018077
8510.0 0.001863
8530.0 0.0020366
8550.0 0.0023095
8570.0 0.0027589
8590.0 0.0033184
8610.0 0.00393
8630.0 0.0045847
8650.0 0.0050569
8670.0 0.0050306
8690.0 0.0048005
8710.0 0.0045217
8730.0 0.0042915
8750.0 0.0040559
8770.0 0.0039224
8790.0 0.0038359
8810.0 0.0036038
8830.0 0.0031689
8850.0 0.0027021
8870.0 0.0022827
8890.0 0.0021124
8910.0 0.002181
8930.0 0.0022307
8950.0 0.0024674
8970.0 0.0025216
8990.0 0.0025743
9010.0 0.0026034
9030.0 0.0026131
9050.0 0.0026294
9070.0 0.0026418
9090.0 0.0026509
9110.0 0.0026575
9130.0 0.0026647
9150.0 0.0026727
9170.0 0.0026811
9190.0 0.0026898
9210.0 0.0027002
9230.0 0.0027099
9250.0 0.0027206
9270.0 0.0027318
9290.0 0.0027435
9310.0 0.0027561
9330.0 0.0027693
9350.0 0.0027828
9370.0 0.0027971
9390.0 0.0028121
9410.0 0.0028275
9430.0 0.0028433
9450.0 0.00286
9470.0 0.0028772
9490.0 0.0028947
9510.0 0.0029129
9530.0 0.0029318
9550.0 0.0029509
9570.0 0.0029704
9590.0 0.0029907
9610.0 0.0030114
9630.0 0.0030323
9650.0 0.0030537
9670.0 0.0030759
9690.0 0.0030982
9710.0 0.0031209
9730.0 0.0031441
9750.0 0.0031677
9770.0 0.0031912
9790.0 0.0032154
9810.0 0.0032401
9830.0 0.0032648
9850.0 0.0032897
9870.0 0.0033152
9890.0 0.0033408
9910.0 0.0033664
9930.0 0.0033924
9950.0 0.0034186
9970.0 0.0034448
9990.0 0.003471
10010.0 0.0033813
10030.0 0.0034066
10050.0 0.0034316
10070.0 0.0034565
10090.0 0.0034822
10110.0 0.0035074
10130.0 0.0035327
10150.0 0.0035581
10170.0 0.0035833
10190.0 0.003608
10210.0 0.003633
10230.0 0.003658
10250.0 0.0036823
10270.0 0.0037066
10290.0 0.003731
10310.0 0.0037548
10330.0 0.003778
10350.0 0.0038013
10370.0 0.0038244
10390.0 0.0038468
10410.0 0.0038688
10430.0 0.0038909
10450.0 0.0039122
10470.0 0.0039329
10490.0 0.0039535
10510.0 0.0039736
10530.0 0.0039927
10550.0 0.0040114
10570.0 0.00403
10590.0 0.0040477
10610.0 0.0040646
10630.0 0.0040814
10650.0 0.0040974
10670.0 0.0041124
10690.0 0.0041269
10710.0 0.004141
10730.0 0.004154
10750.0 0.0041661
10770.0 0.0041781
10790.0 0.0041891
10810.0 0.0041991
10830.0 0.0042083
10850.0 0.0042168
10870.0 0.004223
10890.0 0.0042269
10910.0 0.0042276
10930.0 0.0042228
10950.0 0.0042088
10970.0 0.0041844
10990.0 0.0041487
11010.0 0.004003
11030.0 0.0039358
11050.0 0.0038571
11070.0 0.0037644
11090.0 0.0036537
11110.0 0.0035401
11130.0 0.0034221
11150.0 0.0032956
11170.0 0.0031666
11190.0 0.0030433
11210.0 0.0029183
11230.0 0.0027931
11250.0 0.0026768
11270.0 0.0025685
11290.0 0.0024632
11310.0 0.0023668
11330.0 0.0022845
11350.0 0.0022087
11370.0 0.0021401
11390.0 0.0020814
11410.0 0.0020299
11430.0 0.001981
11450.0 0.0019368
11470.0 0.001896
11490.0 0.0018549
11510.0 0.0018117
11530.0 0.0017685
11550.0 0.0017232
11570.0 0.0016732
11590.0 0.0016206
11610.0 0.0015671
11630.0 0.0015095
11650.0 0.0014491
11670.0 0.001391
11690.0 0.0013335
11710.0 0.0012758
11730.0 0.0012213
11750.0 0.0011721
11770.0 0.001125
11790.0 0.0010817
11810.0 0.0010441
11830.0 0.0010107
11850.0 0.00097998
11870.0 0.00095383
11890.0 0.00093133
11910.0 0.00091051
11930.0 0.00089117
11950.0 0.00087342
11970.0 0.00085589
11990.0 0.00083758
12010.0 0.00081914
12030.0 0.00080032
12050.0 0.0007802
12070.0 0.00075896
12090.0 0.00073841
12110.0 0.00071759
12130.0 0.00069673
12150.0 0.00067732
12170.0 0.00065993
12190.0 0.00064391
12210.0 0.00063092
12230.0 0.00062149
12250.0 0.00061548
12270.0 0.00061339
12290.0 0.0006153
12310.0 0.00062077
12330.0 0.00063037
12350.0 0.00064353
12370.0 0.00065911
12390.0 0.00067743
12410.0 0.00069907
12430.0 0.00072074
12450.0 0.00074277
12470.0 0.00076571
12490.0 0.00078799
12510.0 0.00080797
12530.0 0.00082698
12550.0 0.00084427
12570.0 0.00085827
12590.0 0.0008693
12610.0 0.00087782
12630.0 0.00088296
12650.0 0.00088452
12670.0 0.00088326
12690.0 0.00087905
12710.0 0.00087213
12730.0 0.00086293
12750.0 0.00085119
12770.0 0.00083764
12790.0 0.00082282
12810.0 0.00080644
12830.0 0.00078856
12850.0 0.00077041
12870.0 0.00075163
12890.0 0.00073164
12910.0 0.00071134
12930.0 0.00069114
12950.0 0.0006699
12970.0 0.00064792
12990.0 0.00062658
13010.0 0.00060503
13030.0 0.0005828
13050.0 0.00056095
13070.0 0.00054003
13090.0 0.00051877
13110.0 0.00049797
13130.0 0.00047863
13150.0 0.0004603
13170.0 0.00044251
13190.0 0.00042682
13210.0 0.00041325
13230.0 0.0004012
13250.0 0.00039123
13270.0 0.00038373
13290.0 0.00037834
13310.0 0.00037521
13330.0 0.00037445
13350.0 0.00037577
13370.0 0.00037924
13390.0 0.00038476
13410.0 0.00039142
13430.0 0.0003995
13450.0 0.00040889
13470.0 0.00041873
13490.0 0.00042862
13510.0 0.00043933
13530.0 0.00044966
13550.0 0.00045908
13570.0 0.00046799
13590.0 0.0004763
13610.0 0.00048329
13630.0 0.00048901
13650.0 0.0004939
13670.0 0.00049754
13690.0 0.00049987
13710.0 0.00050117
13730.0 0.00050145
13750.0 0.0005006
13770.0 0.00049886
13790.0 0.00049626
13810.0 0.00049287
13830.0 0.00048891
13850.0 0.00048424
13870.0 0.0004789
13890.0 0.0004732
13910.0 0.0004671
13930.0 0.00046038
13950.0 0.00045333
13970.0 0.00044634
13990.0 0.00043897
14010.0 0.00043137
14030.0 0.00042397
14050.0 0.00041672
14070.0 0.00040928
14090.0 0.00040235
14110.0 0.000396
14130.0 0.00039004
14150.0 0.00038464
14170.0 0.00038019
14190.0 0.00037653
14210.0 0.00037365
14230.0 0.00037177
14250.0 0.00037085
14270.0 0.00037088
14290.0 0.00037195
14310.0 0.00037384
14330.0 0.00037657
14350.0 0.0003802
14370.0 0.00038444
14390.0 0.00038906
14410.0 0.00039437
14430.0 0.0004001
14450.0 0.0004059
14470.0 0.00041194
14490.0 0.00041847
14510.0 0.00042491
14530.0 0.00043134
14550.0 0.00043821
14570.0 0.00044543
14590.0 0.00045273
14610.0 0.00046065
14630.0 0.00046955
14650.0 0.00047893
14670.0 0.00048896
14690.0 0.00050029
14710.0 0.00051283
14730.0 0.0005256
14750.0 0.00053956
14770.0 0.00055478
14790.0 0.00057033
14810.0 0.00058602
14830.0 0.00060307
14850.0 0.00061992
14870.0 0.00063593
14890.0 0.00065169
14910.0 0.00066694
14930.0 0.00068039
14950.0 0.00069201
14970.0 0.00070221
14990.0 0.00071014
15010.0 0.00071575
15030.0 0.00071952
15050.0 0.00072162
15070.0 0.00072226
15090.0 0.00072201
15110.0 0.00072112
15130.0 0.00071987
15150.0 0.00071851
15170.0 0.00071698
15190.0 0.00071539
15210.0 0.00071385
15230.0 0.00071233
15250.0 0.00071074
15270.0 0.00070917
15290.0 0.00070771
15310.0 0.0007062
15330.0 0.00070466
15350.0 0.00070319
15370.0 0.00070174
15390.0 0.00070019
15410.0 0.0006987
15430.0 0.00069726
15450.0 0.00069578
15470.0 0.00069426
15490.0 0.00069284
15510.0 0.00069141
15530.0 0.00068992
15550.0 0.00068846
15570.0 0.00068706
15590.0 0.00068557
15610.0 0.00068406
15630.0 0.00068264
15650.0 0.0006812
15670.0 0.0006797
15690.0 0.00067824
15710.0 0.00067684
15730.0 0.00067535
15750.0 0.00067385
15770.0 0.00067241
15790.0 0.00067095
15810.0 0.00066939
15830.0 0.00066791
15850.0 0.00066646
15870.0 0.00066494
15890.0 0.00066341
15910.0 0.00066195
15930.0 0.00066044
15950.0 0.00065886
15970.0 0.00065733
15990.0 0.00065582
16010.0 0.00065424
16030.0 0.00065263
16050.0 0.00065112
16070.0 0.00064955
16090.0 0.00064793
16110.0 0.00064634
16130.0 0.00064479
16150.0 0.0006431
16170.0 0.00064144
16190.0 0.00063985
16210.0 0.0006382
16230.0 0.00063648
16250.0 0.00063483
16270.0 0.00063319
16290.0 0.00063145
16310.0 0.00062973
16330.0 0.00062805
16350.0 0.00062631
16370.0 0.00062447
16390.0 0.00062275
16410.0 0.00062101
16430.0 0.00061919
16450.0 0.00061737
16470.0 0.00061563
16490.0 0.00061378
16510.0 0.00061189
16530.0 0.00061006
16550.0 0.00060822
16570.0 0.00060629
16590.0 0.00060436
16610.0 0.00060252
16630.0 0.00060059
16650.0 0.00059862
16670.0 0.00059671
16690.0 0.00059479
16710.0 0.00059274
16730.0 0.00059074
16750.0 0.00058878
16770.0 0.00058675
16790.0 0.00058467
16810.0 0.00058267
16830.0 0.00058064
16850.0 0.00057853
16870.0 0.00057645
16890.0 0.00057441
16910.0 0.00057226
16930.0 0.00057008
16950.0 0.00056799
16970.0 0.00056586
16990.0 0.00056365
17010.0 0.00056149
17030.0 0.00055936
17050.0 0.00055713
17070.0 0.00055489
17090.0 0.00055271
17110.0 0.00055049
17130.0 0.00054817
17150.0 0.00054592
17170.0 0.00054371
17190.0 0.00054141
17210.0 0.00053909
17230.0 0.00053685
17250.0 0.00053454
17270.0 0.00053216
17290.0 0.00052984
17310.0 0.00052754
17330.0 0.00052515
17350.0 0.00052275
17370.0 0.00052044
17390.0 0.00051807
17410.0 0.00051564
17430.0 0.00051327
17450.0 0.00051092
17470.0 0.00050843
17490.0 0.00050598
17510.0 0.0005036
17530.0 0.00050116
17550.0 0.00049867
17570.0 0.00049625
17590.0 0.00049384
17610.0 0.00049133
17630.0 0.00048885
17650.0 0.00048642
17670.0 0.00048393
17690.0 0.00048135
17710.0 0.0004789
17730.0 0.00047643
17750.0 0.00047389
17770.0 0.00047138
17790.0 0.00046893
17810.0 0.00046638
17830.0 0.00046382
17850.0 0.00046132
17870.0 0.00045881
17890.0 0.00045622
17910.0 0.00045367
17930.0 0.00045119
17950.0 0.00044864
17970.0 0.00044606
17990.0 0.00044355
18010.0 0.00044104
18030.0 0.00043841
18050.0 0.00043586
18070.0 0.00043335
18090.0 0.00043077
18110.0 0.00042817
18130.0 0.00042567
18150.0 0.00042314
18170.0 0.00042054
18190.0 0.00041799
18210.0 0.00041548
18230.0 0.00041289
18250.0 0.00041028
18270.0 0.00040777
18290.0 0.00040523
18310.0 0.00040264
18330.0 0.00040011
18350.0 0.00039761
18370.0 0.00039503
18390.0 0.00039246
18410.0 0.00038996
18430.0 0.00038743
18450.0 0.00038482
18470.0 0.0003823
18490.0 0.00037982
18510.0 0.00037727
18530.0 0.00037473
18550.0 0.00037226
18570.0 0.00036974
18590.0 0.00036717
18610.0 0.00036468
18630.0 0.00036221
18650.0 0.00035967
18670.0 0.00035714
18690.0 0.00035471
18710.0 0.00035223
18730.0 0.00034971
18750.0 0.00034726
18770.0 0.00034484
18790.0 0.0003423
18810.0 0.00033983
18830.0 0.00033741
18850.0 0.00033496
18870.0 0.00033248
18890.0 0.00033008
18910.0 0.00032769
18930.0 0.00032522
18950.0 0.0003228
18970.0 0.00032043
18990.0 0.00031801
19010.0 0.00031554
19030.0 0.00031319
19050.0 0.00031084
19070.0 0.00030843
19090.0 0.00030606
19110.0 0.00030375
19130.0 0.00030137
19150.0 0.00029898
19170.0 0.00029667
19190.0 0.00029435
19210.0 0.00029198
19230.0 0.00028965
19250.0 0.00028739
19270.0 0.00028508
19290.0 0.00028276
19310.0 0.00028051
19330.0 0.00027825
19350.0 0.00027591
19370.0 0.00027365
19390.0 0.00027143
19410.0 0.00026916
19430.0 0.00026689
19450.0 0.0002647
19470.0 0.00026249
19490.0 0.00026024
19510.0 0.00025804
19530.0 0.00025588
19550.0 0.00025366
19570.0 0.00025143
19590.0 0.0002493
19610.0 0.00024714
19630.0 0.00024495
19650.0 0.00024281
19670.0 0.00024072
19690.0 0.00023855
19710.0 0.00023641
19730.0 0.00023432
19750.0 0.00023222
19770.0 0.00023006
19790.0 0.00022799
19810.0 0.00022594
19830.0 0.00022384
19850.0 0.00022174
19870.0 0.0002197
19890.0 0.00021757
19910.0 0.00021532
19930.0 0.00021303
19950.0 0.00021058
19970.0 0.0002078
19990.0 0.00020471
20010.0 0.00020538
20030.0 0.00020155
20050.0 0.00019731
20070.0 0.00019291
20090.0 0.00018837
20110.0 0.00018344
20130.0 0.00017863
20150.0 0.00017401
20170.0 0.00016937
20190.0 0.0001648
20210.0 0.00016058
20230.0 0.00015656
20250.0 0.00015261
20270.0 0.00014902
20290.0 0.00014578
20310.0 0.00014276
20330.0 0.00013999
20350.0 0.00013772
20370.0 0.00013576
20390.0 0.00013409
20410.0 0.0001328
20430.0 0.00013186
20450.0 0.00013122
20470.0 0.00013092
20490.0 0.00013092
20510.0 0.0001312
20530.0 0.00013176
20550.0 0.00013254
20570.0 0.00013348
20590.0 0.00013465
20610.0 0.00013597
20630.0 0.00013737
20650.0 0.00013888
20670.0 0.00014056
20690.0 0.00014223
20710.0 0.0001439
20730.0 0.00014566
20750.0 0.00014745
20770.0 0.00014916
20790.0 0.00015092
20810.0 0.00015274
20830.0 0.00015452
20850.0 0.00015627
20870.0 0.00015814
20890.0 0.00016004
20910.0 0.00016186
20930.0 0.00016375
20950.0 0.00016572
20970.0 0.00016765
20990.0 0.00016957
21010.0 0.00017161
21030.0 0.00017362
21050.0 0.00017554
21070.0 0.00017748
21090.0 0.00017944
21110.0 0.00018123
21130.0 0.00018292
21150.0 0.00018457
21170.0 0.00018609
21190.0 0.00018742
21210.0 0.00018865
21230.0 0.00018975
21250.0 0.0001906
21270.0 0.00019127
21290.0 0.00019176
21310.0 0.00019202
21330.0 0.00019203
21350.0 0.00019181
21370.0 0.00019133
21390.0 0.00019058
21410.0 0.00018959
21430.0 0.00018824
21450.0 0.00018663
21470.0 0.00018481
21490.0 0.00018267
21510.0 0.00018023
21530.0 0.00017767
21550.0 0.0001749
21570.0 0.00017186
21590.0 0.00016876
21610.0 0.00016565
21630.0 0.00016243
21650.0 0.00015914
21670.0 0.00015615
21690.0 0.00015324
21710.0 0.00015044
21730.0 0.00014793
21750.0 0.00014576
21770.0 0.00014377
21790.0 0.00014216
21810.0 0.00014097
21830.0 0.00014012
21850.0 0.00013965
21870.0 0.00013959
21890.0 0.00013989
21910.0 0.00014057
21930.0 0.00014161
21950.0 0.00014293
21970.0 0.00014457
21990.0 0.0001466
22010.0 0.0001488
22030.0 0.00015117
22050.0 0.00015382
22070.0 0.00015664
22090.0 0.00015944
22110.0 0.00016241
22130.0 0.0001655
22150.0 0.00016852
22170.0 0.00017147
22190.0 0.0001745
22210.0 0.0001774
22230.0 0.00018003
22250.0 0.00018256
22270.0 0.00018492
22290.0 0.00018697
22310.0 0.00018873
22330.0 0.00019028
22350.0 0.00019147
22370.0 0.00019228
22390.0 0.00019275
22410.0 0.00019284
22430.0 0.00019253
22450.0 0.00019186
22470.0 0.00019077
22490.0 0.0001893
22510.0 0.00018752
22530.0 0.0001853
22550.0 0.00018265
22570.0 0.00017977
22590.0 0.00017658
22610.0 0.00017296
22630.0 0.0001691
22650.0 0.00016516
22670.0 0.00016083
22690.0 0.00015626
22710.0 0.00015167
22730.0 0.00014696
22750.0 0.00014188
22770.0 0.00013694
22790.0 0.00013212
22810.0 0.00012719
22830.0 0.00012229
22850.0 0.00011773
22870.0 0.00011327
22890.0 0.00010888
22910.0 0.00010487
22930.0 0.00010125
22950.0 9.786e-05
22970.0 9.4812e-05
22990.0 9.2383e-05
23010.0 9.0339e-05
23030.0 8.8727e-05
23050.0 8.7652e-05
23070.0 8.708e-05
