#lamb flux
1010.0 2.9573e-10
1030.0 3.6836e-10
1050.0 4.4919e-10
1070.0 5.3671e-10
1090.0 6.3194e-10
1110.0 7.2346e-10
1130.0 8.0874e-10
1150.0 8.9164e-10
1170.0 9.7027e-10
1190.0 1.0362e-09
1210.0 1.0976e-09
1230.0 1.1572e-09
1250.0 1.2118e-09
1270.0 1.2632e-09
1290.0 1.3213e-09
1310.0 1.3838e-09
1330.0 1.4501e-09
1350.0 1.5275e-09
1370.0 1.6198e-09
1390.0 1.7241e-09
1410.0 1.8409e-09
1430.0 1.9771e-09
1450.0 2.1286e-09
1470.0 2.2914e-09
1490.0 2.4679e-09
1510.0 2.6612e-09
1530.0 2.858e-09
1550.0 3.0599e-09
1570.0 3.2697e-09
1590.0 3.4821e-09
1610.0 3.69e-09
1630.0 3.9003e-09
1650.0 4.1117e-09
1670.0 4.3159e-09
1690.0 4.5146e-09
1710.0 4.7138e-09
1730.0 4.9094e-09
1750.0 5.0923e-09
1770.0 5.2742e-09
1790.0 5.4544e-09
1810.0 5.626e-09
1830.0 5.791e-09
1850.0 5.9429e-09
1870.0 6.0736e-09
1890.0 6.2013e-09
1910.0 6.3333e-09
1930.0 6.4701e-09
1950.0 6.6039e-09
1970.0 6.7377e-09
1990.0 6.8768e-09
2010.0 7.014e-09
2030.0 7.1469e-09
2050.0 7.2842e-09
2070.0 7.4283e-09
2090.0 7.5664e-09
2110.0 7.7056e-09
2130.0 7.8502e-09
2150.0 7.9937e-09
2170.0 8.1328e-09
2190.0 8.2782e-09
2210.0 8.4132e-09
2230.0 8.5281e-09
2250.0 8.6423e-09
2270.0 8.7623e-09
2290.0 8.8783e-09
2310.0 8.9894e-09
2330.0 9.105e-09
2350.0 9.2224e-09
2370.0 9.335e-09
2390.0 9.4497e-09
2410.0 9.5718e-09
2430.0 9.6929e-09
2450.0 9.8176e-09
2470.0 9.9596e-09
2490.0 1.013e-08
2510.0 1.0332e-08
2530.0 1.0601e-08
2550.0 1.0981e-08
2570.0 1.1497e-08
2590.0 1.2183e-08
2610.0 1.3165e-08
2630.0 1.4464e-08
2650.0 1.6049e-08
2670.0 1.7998e-08
2690.0 2.035e-08
2710.0 2.2917e-08
2730.0 2.5609e-08
2750.0 2.8515e-08
2770.0 3.1397e-08
2790.0 3.4082e-08
2810.0 3.6613e-08
2830.0 3.8993e-08
2850.0 4.1014e-08
2870.0 4.2822e-08
2890.0 4.4521e-08
2910.0 4.6126e-08
2930.0 4.7666e-08
2950.0 4.9255e-08
2970.0 5.0912e-08
2990.0 5.2613e-08
3010.0 5.4389e-08
3030.0 5.6283e-08
3050.0 5.8268e-08
3070.0 6.0292e-08
3090.0 6.2431e-08
3110.0 6.4701e-08
3130.0 6.7133e-08
3150.0 6.9989e-08
3170.0 7.3565e-08
3190.0 7.8195e-08
3210.0 8.4207e-08
3230.0 9.2118e-08
3250.0 1.0192e-07
3270.0 1.1091e-07
3290.0 1.2573e-07
3310.0 1.5722e-07
3330.0 1.6753e-07
3350.0 1.725e-07
3370.0 1.7726e-07
3390.0 1.8211e-07
3410.0 1.8705e-07
3430.0 1.9207e-07
3450.0 1.971e-07
3470.0 2.0202e-07
3490.0 2.0684e-07
3510.0 2.1148e-07
3530.0 2.0991e-07
3550.0 2.0405e-07
3570.0 2.0659e-07
3590.0 2.1841e-07
3610.0 2.3758e-07
3630.0 2.4377e-07
3650.0 2.3364e-07
3670.0 2.1519e-07
3690.0 2.0514e-07
3710.0 2.085e-07
3730.0 2.1537e-07
3750.0 2.1896e-07
3770.0 2.2634e-07
3790.0 2.346e-07
3810.0 2.307e-07
3830.0 2.1509e-07
3850.0 2.0154e-07
3870.0 1.9517e-07
3890.0 1.9243e-07
3910.0 1.877e-07
3930.0 1.855e-07
3950.0 1.9055e-07
3970.0 1.9648e-07
3990.0 1.9845e-07
4010.0 1.9082e-07
4030.0 1.8043e-07
4050.0 1.7388e-07
4070.0 1.6832e-07
4090.0 1.6365e-07
4110.0 1.5744e-07
4130.0 1.4793e-07
4150.0 1.3849e-07
4170.0 1.329e-07
4190.0 1.237e-07
4210.0 1.1205e-07
4230.0 1.002e-07
4250.0 8.906e-08
4270.0 8.0864e-08
4290.0 7.4525e-08
4310.0 7.1227e-08
4330.0 7.1129e-08
4350.0 7.1065e-08
4370.0 7.1752e-08
4390.0 7.4148e-08
4410.0 7.5824e-08
4430.0 7.2925e-08
4450.0 6.6319e-08
4470.0 6.0672e-08
4490.0 5.7479e-08
4510.0 5.5506e-08
4530.0 5.4546e-08
4550.0 5.375e-08
4570.0 5.3551e-08
4590.0 5.4281e-08
4610.0 5.6188e-08
4630.0 5.7328e-08
4650.0 5.799e-08
4670.0 5.6574e-08
4690.0 5.3325e-08
4710.0 5.0025e-08
4730.0 4.7985e-08
4750.0 4.6713e-08
4770.0 4.6805e-08
4790.0 4.663e-08
4810.0 4.5623e-08
4830.0 4.5597e-08
4850.0 4.7069e-08
4870.0 4.7503e-08
4890.0 4.663e-08
4910.0 4.5655e-08
4930.0 4.3082e-08
4950.0 3.9217e-08
4970.0 3.6671e-08
4990.0 3.4583e-08
5010.0 3.4111e-08
5030.0 3.5267e-08
5050.0 3.6187e-08
5070.0 3.7532e-08
5090.0 3.9805e-08
5110.0 4.0427e-08
5130.0 4.077e-08
5150.0 4.1549e-08
5170.0 4.1846e-08
5190.0 4.295e-08
5210.0 4.3185e-08
5230.0 4.2725e-08
5250.0 4.3111e-08
5270.0 4.3744e-08
5290.0 4.3877e-08
5310.0 4.3538e-08
5330.0 4.2724e-08
5350.0 4.2086e-08
5370.0 4.1651e-08
5390.0 4.1132e-08
5410.0 4.0662e-08
5430.0 4.0687e-08
5450.0 4.1236e-08
5470.0 4.2001e-08
5490.0 4.3025e-08
5510.0 4.4346e-08
5530.0 4.4882e-08
5550.0 4.5609e-08
5570.0 4.5594e-08
5590.0 4.4492e-08
5610.0 4.4155e-08
5630.0 4.4551e-08
5650.0 4.3988e-08
5670.0 4.3008e-08
5690.0 4.1654e-08
5710.0 4.1653e-08
5730.0 4.2036e-08
5750.0 4.022e-08
5770.0 3.8177e-08
5790.0 3.4919e-08
5810.0 3.038e-08
5830.0 3.287e-08
5850.0 3.6644e-08
5870.0 3.7547e-08
5890.0 3.776e-08
5910.0 3.7948e-08
5930.0 3.7912e-08
5950.0 3.7226e-08
5970.0 3.6768e-08
5990.0 3.6168e-08
6010.0 3.5088e-08
6030.0 3.3842e-08
6050.0 3.3323e-08
6070.0 3.3276e-08
6090.0 3.27e-08
6110.0 3.156e-08
6130.0 3.0527e-08
6150.0 2.9275e-08
6170.0 2.8007e-08
6190.0 2.691e-08
6210.0 2.5929e-08
6230.0 2.5495e-08
6250.0 2.4956e-08
6270.0 2.4432e-08
6290.0 2.4172e-08
6310.0 2.3924e-08
6330.0 2.3374e-08
6350.0 2.2622e-08
6370.0 2.215e-08
6390.0 2.1804e-08
6410.0 2.115e-08
6430.0 2.0615e-08
6450.0 2.0127e-08
6470.0 1.966e-08
6490.0 1.9336e-08
6510.0 1.9085e-08
6530.0 1.8571e-08
6550.0 1.8157e-08
6570.0 1.7924e-08
6590.0 1.7839e-08
6610.0 1.7719e-08
6630.0 1.7105e-08
6650.0 1.6661e-08
6670.0 1.6514e-08
6690.0 1.6268e-08
6710.0 1.5895e-08
6730.0 1.5773e-08
6750.0 1.5895e-08
6770.0 1.6916e-08
6790.0 1.914e-08
6810.0 1.8126e-08
6830.0 1.5752e-08
6850.0 1.5176e-08
6870.0 1.4941e-08
6890.0 1.4951e-08
6910.0 1.4987e-08
6930.0 1.5043e-08
6950.0 1.4958e-08
6970.0 1.4581e-08
6990.0 1.4449e-08
7010.0 1.4671e-08
7030.0 1.4706e-08
7050.0 1.4489e-08
7070.0 1.4437e-08
7090.0 1.4617e-08
7110.0 1.4947e-08
7130.0 1.4999e-08
7150.0 1.5035e-08
7170.0 1.5117e-08
7190.0 1.5335e-08
7210.0 1.5462e-08
7230.0 1.5552e-08
7250.0 1.5769e-08
7270.0 1.5907e-08
7290.0 1.6124e-08
7310.0 1.6488e-08
7330.0 1.6376e-08
7350.0 1.6045e-08
7370.0 1.5766e-08
7390.0 1.5653e-08
7410.0 1.5829e-08
7430.0 1.601e-08
7450.0 1.6116e-08
7470.0 1.6277e-08
7490.0 1.6166e-08
7510.0 1.6042e-08
7530.0 1.6191e-08
7550.0 1.685e-08
7570.0 1.6794e-08
7590.0 1.5899e-08
7610.0 1.567e-08
7630.0 1.6627e-08
7650.0 1.6906e-08
7670.0 1.7152e-08
7690.0 1.7885e-08
7710.0 1.8481e-08
7730.0 1.8627e-08
7750.0 1.9631e-08
7770.0 1.9065e-08
7790.0 1.8555e-08
7810.0 1.9748e-08
7830.0 2.0439e-08
7850.0 2.1066e-08
7870.0 2.139e-08
7890.0 2.1616e-08
7910.0 2.1452e-08
7930.0 2.1631e-08
7950.0 2.2579e-08
7970.0 2.2595e-08
7990.0 2.1033e-08
8010.0 2.1313e-08
8030.0 2.1639e-08
8050.0 2.2047e-08
8070.0 2.0054e-08
8090.0 1.3573e-08
8110.0 1.4046e-08
8130.0 1.9604e-08
8150.0 2.112e-08
8170.0 2.1972e-08
8190.0 2.2524e-08
8210.0 2.2155e-08
8230.0 2.3876e-08
8250.0 2.4336e-08
8270.0 2.3158e-08
8290.0 2.2314e-08
8310.0 2.1915e-08
8330.0 2.2921e-08
8350.0 2.3999e-08
8370.0 2.3623e-08
8390.0 2.2546e-08
8410.0 2.251e-08
8430.0 2.1123e-08
8450.0 2.1479e-08
8470.0 2.3483e-08
8490.0 2.3554e-08
8510.0 2.1831e-08
8530.0 2.0594e-08
8550.0 1.9786e-08
8570.0 1.8579e-08
8590.0 1.9114e-08
8610.0 2.0183e-08
8630.0 2.0785e-08
8650.0 2.1134e-08
8670.0 2.0626e-08
8690.0 2.014e-08
8710.0 1.8826e-08
8730.0 1.8114e-08
8750.0 1.8755e-08
8770.0 1.9008e-08
8790.0 1.9074e-08
8810.0 1.886e-08
8830.0 1.9196e-08
8850.0 2.02e-08
8870.0 1.8875e-08
8890.0 1.7746e-08
8910.0 1.7495e-08
8930.0 1.6583e-08
8950.0 1.5883e-08
8970.0 1.5829e-08
8990.0 1.5168e-08
9010.0 1.4229e-08
9030.0 1.391e-08
9050.0 1.3798e-08
9070.0 1.3698e-08
9090.0 1.3598e-08
9110.0 1.3497e-08
9130.0 1.3395e-08
9150.0 1.3293e-08
9170.0 1.319e-08
9190.0 1.3088e-08
9210.0 1.2985e-08
9230.0 1.2882e-08
9250.0 1.2779e-08
9270.0 1.2676e-08
9290.0 1.2573e-08
9310.0 1.2472e-08
9330.0 1.2372e-08
9350.0 1.2272e-08
9370.0 1.2173e-08
9390.0 1.2074e-08
9410.0 1.1976e-08
9430.0 1.1878e-08
9450.0 1.1781e-08
9470.0 1.1684e-08
9490.0 1.1589e-08
9510.0 1.1493e-08
9530.0 1.1398e-08
9550.0 1.1304e-08
9570.0 1.1211e-08
9590.0 1.1118e-08
9610.0 1.1028e-08
9630.0 1.0939e-08
9650.0 1.0851e-08
9670.0 1.0763e-08
9690.0 1.0676e-08
9710.0 1.0591e-08
9730.0 1.0506e-08
9750.0 1.0421e-08
9770.0 1.0338e-08
9790.0 1.0256e-08
9810.0 1.0174e-08
9830.0 1.0094e-08
9850.0 1.0014e-08
9870.0 9.9337e-09
9890.0 9.8565e-09
9910.0 9.7799e-09
9930.0 9.7038e-09
9950.0 9.6286e-09
9970.0 9.5544e-09
9990.0 9.481e-09
10010.0 9.4084e-09
10030.0 9.3367e-09
10050.0 9.2658e-09
10070.0 9.1957e-09
10090.0 9.1265e-09
10110.0 9.0581e-09
10130.0 8.9906e-09
10150.0 8.9238e-09
10170.0 8.8579e-09
10190.0 8.7928e-09
10210.0 8.7285e-09
10230.0 8.6649e-09
10250.0 8.6021e-09
10270.0 8.5401e-09
10290.0 8.4789e-09
10310.0 8.4183e-09
10330.0 8.3586e-09
10350.0 8.2994e-09
10370.0 8.2411e-09
10390.0 8.1825e-09
10410.0 8.1135e-09
10430.0 8.0413e-09
10450.0 7.999e-09
10470.0 7.9499e-09
10490.0 7.9001e-09
10510.0 7.8494e-09
10530.0 7.7966e-09
10550.0 7.7445e-09
10570.0 7.6937e-09
10590.0 7.6424e-09
10610.0 7.5911e-09
10630.0 7.5416e-09
10650.0 7.4925e-09
10670.0 7.4426e-09
10690.0 7.3939e-09
10710.0 7.3465e-09
10730.0 7.2987e-09
10750.0 7.2506e-09
10770.0 7.2048e-09
10790.0 7.1591e-09
10810.0 7.1129e-09
10830.0 7.0678e-09
10850.0 7.0241e-09
10870.0 6.9789e-09
10890.0 6.9342e-09
10910.0 6.8908e-09
10930.0 6.8472e-09
10950.0 6.8022e-09
10970.0 6.7575e-09
10990.0 6.7133e-09
11010.0 5.9343e-09
11030.0 5.8908e-09
11050.0 5.8482e-09
11070.0 5.8049e-09
11090.0 5.7594e-09
11110.0 5.7153e-09
11130.0 5.6713e-09
11150.0 5.6257e-09
11170.0 5.5796e-09
11190.0 5.5349e-09
11210.0 5.4892e-09
11230.0 5.4424e-09
11250.0 5.3972e-09
11270.0 5.3531e-09
11290.0 5.3085e-09
11310.0 5.265e-09
11330.0 5.2251e-09
11350.0 5.186e-09
11370.0 5.148e-09
11390.0 5.1129e-09
11410.0 5.08e-09
11430.0 5.0471e-09
11450.0 5.0163e-09
11470.0 4.9874e-09
11490.0 4.9588e-09
11510.0 4.9301e-09
11530.0 4.9028e-09
11550.0 4.8757e-09
11570.0 4.8475e-09
11590.0 4.8192e-09
11610.0 4.7913e-09
11630.0 4.7618e-09
11650.0 4.7309e-09
11670.0 4.7007e-09
11690.0 4.6698e-09
11710.0 4.6374e-09
11730.0 4.6048e-09
11750.0 4.5731e-09
11770.0 4.54e-09
11790.0 4.5065e-09
11810.0 4.474e-09
11830.0 4.4419e-09
11850.0 4.4086e-09
11870.0 4.3769e-09
11890.0 4.3469e-09
11910.0 4.317e-09
11930.0 4.288e-09
11950.0 4.2613e-09
11970.0 4.2356e-09
11990.0 4.2105e-09
12010.0 4.1876e-09
12030.0 4.1666e-09
12050.0 4.1466e-09
12070.0 4.1278e-09
12090.0 4.1116e-09
12110.0 4.0965e-09
12130.0 4.0822e-09
12150.0 4.0694e-09
12170.0 4.0579e-09
12190.0 4.0463e-09
12210.0 4.0354e-09
12230.0 4.0249e-09
12250.0 4.0142e-09
12270.0 4.0026e-09
12290.0 3.9906e-09
12310.0 3.9779e-09
12330.0 3.9633e-09
12350.0 3.9471e-09
12370.0 3.9298e-09
12390.0 3.9106e-09
12410.0 3.8883e-09
12430.0 3.8653e-09
12450.0 3.8408e-09
12470.0 3.8137e-09
12490.0 3.7851e-09
12510.0 3.7563e-09
12530.0 3.7254e-09
12550.0 3.6927e-09
12570.0 3.6601e-09
12590.0 3.6273e-09
12610.0 3.5927e-09
12630.0 3.5578e-09
12650.0 3.5248e-09
12670.0 3.491e-09
12690.0 3.457e-09
12710.0 3.4248e-09
12730.0 3.3936e-09
12750.0 3.3617e-09
12770.0 3.3318e-09
12790.0 3.304e-09
12810.0 3.2769e-09
12830.0 3.2506e-09
12850.0 3.2272e-09
12870.0 3.2055e-09
12890.0 3.1847e-09
12910.0 3.1659e-09
12930.0 3.1496e-09
12950.0 3.1345e-09
12970.0 3.1211e-09
12990.0 3.1103e-09
13010.0 3.1012e-09
13030.0 3.0938e-09
13050.0 3.0883e-09
13070.0 3.0844e-09
13090.0 3.0818e-09
13110.0 3.0802e-09
13130.0 3.0794e-09
13150.0 3.079e-09
13170.0 3.0785e-09
13190.0 3.0777e-09
13210.0 3.0761e-09
13230.0 3.0733e-09
13250.0 3.0691e-09
13270.0 3.0634e-09
13290.0 3.0559e-09
13310.0 3.0462e-09
13330.0 3.0347e-09
13350.0 3.0216e-09
13370.0 3.0062e-09
13390.0 2.9886e-09
13410.0 2.9703e-09
13430.0 2.9503e-09
13450.0 2.9281e-09
13470.0 2.9051e-09
13490.0 2.8816e-09
13510.0 2.8555e-09
13530.0 2.8286e-09
13550.0 2.802e-09
13570.0 2.7743e-09
13590.0 2.7451e-09
13610.0 2.7163e-09
13630.0 2.6879e-09
13650.0 2.658e-09
13670.0 2.628e-09
13690.0 2.599e-09
13710.0 2.5695e-09
13730.0 2.5387e-09
13750.0 2.51e-09
13770.0 2.4818e-09
13790.0 2.4533e-09
13810.0 2.4254e-09
13830.0 2.3995e-09
13850.0 2.3734e-09
13870.0 2.3477e-09
13890.0 2.3237e-09
13910.0 2.3008e-09
13930.0 2.2778e-09
13950.0 2.2559e-09
13970.0 2.236e-09
13990.0 2.2162e-09
14010.0 2.1969e-09
14030.0 2.1791e-09
14050.0 2.1621e-09
14070.0 2.145e-09
14090.0 2.1292e-09
14110.0 2.1145e-09
14130.0 2.1002e-09
14150.0 2.0862e-09
14170.0 2.0736e-09
14190.0 2.0616e-09
14210.0 2.0496e-09
14230.0 2.0384e-09
14250.0 2.0279e-09
14270.0 2.0173e-09
14290.0 2.0069e-09
14310.0 1.9972e-09
14330.0 1.9877e-09
14350.0 1.978e-09
14370.0 1.9687e-09
14390.0 1.9599e-09
14410.0 1.9508e-09
14430.0 1.9418e-09
14450.0 1.9332e-09
14470.0 1.9246e-09
14490.0 1.9157e-09
14510.0 1.9072e-09
14530.0 1.8989e-09
14550.0 1.8903e-09
14570.0 1.8817e-09
14590.0 1.8734e-09
14610.0 1.8648e-09
14630.0 1.8559e-09
14650.0 1.8471e-09
14670.0 1.8384e-09
14690.0 1.8293e-09
14710.0 1.82e-09
14730.0 1.8111e-09
14750.0 1.8019e-09
14770.0 1.7923e-09
14790.0 1.7828e-09
14810.0 1.7733e-09
14830.0 1.7631e-09
14850.0 1.7529e-09
14870.0 1.7429e-09
14890.0 1.7326e-09
14910.0 1.7222e-09
14930.0 1.7122e-09
14950.0 1.7029e-09
14970.0 1.6936e-09
14990.0 1.6852e-09
15010.0 1.6778e-09
15030.0 1.6711e-09
15050.0 1.6648e-09
15070.0 1.6595e-09
15090.0 1.6547e-09
15110.0 1.65e-09
15130.0 1.6456e-09
15150.0 1.6414e-09
15170.0 1.6371e-09
15190.0 1.6328e-09
15210.0 1.6286e-09
15230.0 1.6245e-09
15250.0 1.6202e-09
15270.0 1.6159e-09
15290.0 1.6118e-09
15310.0 1.6076e-09
15330.0 1.6034e-09
15350.0 1.5992e-09
15370.0 1.5951e-09
15390.0 1.5908e-09
15410.0 1.5866e-09
15430.0 1.5825e-09
15450.0 1.5783e-09
15470.0 1.5741e-09
15490.0 1.57e-09
15510.0 1.5659e-09
15530.0 1.5617e-09
15550.0 1.5576e-09
15570.0 1.5535e-09
15590.0 1.5493e-09
15610.0 1.5451e-09
15630.0 1.541e-09
15650.0 1.5369e-09
15670.0 1.5327e-09
15690.0 1.5286e-09
15710.0 1.5247e-09
15730.0 1.5205e-09
15750.0 1.5163e-09
15770.0 1.5123e-09
15790.0 1.5083e-09
15810.0 1.504e-09
15830.0 1.5e-09
15850.0 1.496e-09
15870.0 1.4919e-09
15890.0 1.4878e-09
15910.0 1.4838e-09
15930.0 1.4798e-09
15950.0 1.4756e-09
15970.0 1.4716e-09
15990.0 1.4676e-09
16010.0 1.4635e-09
16030.0 1.4594e-09
16050.0 1.4555e-09
16070.0 1.4515e-09
16090.0 1.4474e-09
16110.0 1.4434e-09
16130.0 1.4395e-09
16150.0 1.4354e-09
16170.0 1.4313e-09
16190.0 1.4274e-09
16210.0 1.4235e-09
16230.0 1.4194e-09
16250.0 1.4154e-09
16270.0 1.4116e-09
16290.0 1.4075e-09
16310.0 1.4035e-09
16330.0 1.3996e-09
16350.0 1.3957e-09
16370.0 1.3915e-09
16390.0 1.3877e-09
16410.0 1.3838e-09
16430.0 1.3798e-09
16450.0 1.3758e-09
16470.0 1.372e-09
16490.0 1.368e-09
16510.0 1.364e-09
16530.0 1.3601e-09
16550.0 1.3562e-09
16570.0 1.3522e-09
16590.0 1.3482e-09
16610.0 1.3444e-09
16630.0 1.3405e-09
16650.0 1.3365e-09
16670.0 1.3327e-09
16690.0 1.3288e-09
16710.0 1.3248e-09
16730.0 1.3209e-09
16750.0 1.3171e-09
16770.0 1.3131e-09
16790.0 1.3091e-09
16810.0 1.3053e-09
16830.0 1.3015e-09
16850.0 1.2975e-09
16870.0 1.2937e-09
16890.0 1.2899e-09
16910.0 1.2859e-09
16930.0 1.2819e-09
16950.0 1.2781e-09
16970.0 1.2743e-09
16990.0 1.2703e-09
17010.0 1.2665e-09
17030.0 1.2627e-09
17050.0 1.2588e-09
17070.0 1.2548e-09
17090.0 1.251e-09
17110.0 1.2472e-09
17130.0 1.2432e-09
17150.0 1.2393e-09
17170.0 1.2356e-09
17190.0 1.2317e-09
17210.0 1.2277e-09
17230.0 1.224e-09
17250.0 1.2201e-09
17270.0 1.2162e-09
17290.0 1.2123e-09
17310.0 1.2085e-09
17330.0 1.2046e-09
17350.0 1.2006e-09
17370.0 1.1969e-09
17390.0 1.1931e-09
17410.0 1.1891e-09
17430.0 1.1853e-09
17450.0 1.1816e-09
17470.0 1.1776e-09
17490.0 1.1737e-09
17510.0 1.1699e-09
17530.0 1.166e-09
17550.0 1.1621e-09
17570.0 1.1583e-09
17590.0 1.1545e-09
17610.0 1.1506e-09
17630.0 1.1467e-09
17650.0 1.1429e-09
17670.0 1.139e-09
17690.0 1.135e-09
17710.0 1.1312e-09
17730.0 1.1274e-09
17750.0 1.1235e-09
17770.0 1.1196e-09
17790.0 1.1159e-09
17810.0 1.112e-09
17830.0 1.108e-09
17850.0 1.1042e-09
17870.0 1.1004e-09
17890.0 1.0964e-09
17910.0 1.0925e-09
17930.0 1.0888e-09
17950.0 1.0849e-09
17970.0 1.081e-09
17990.0 1.0772e-09
18010.0 1.0734e-09
18030.0 1.0693e-09
18050.0 1.0654e-09
18070.0 1.0617e-09
18090.0 1.0577e-09
18110.0 1.0538e-09
18130.0 1.05e-09
18150.0 1.0462e-09
18170.0 1.0422e-09
18190.0 1.0383e-09
18210.0 1.0345e-09
18230.0 1.0306e-09
18250.0 1.0266e-09
18270.0 1.0228e-09
18290.0 1.0189e-09
18310.0 1.015e-09
18330.0 1.0111e-09
18350.0 1.0073e-09
18370.0 1.0034e-09
18390.0 9.994e-10
18410.0 9.9558e-10
18430.0 9.917e-10
18450.0 9.8766e-10
18470.0 9.8379e-10
18490.0 9.7998e-10
18510.0 9.7603e-10
18530.0 9.7209e-10
18550.0 9.683e-10
18570.0 9.6439e-10
18590.0 9.6035e-10
18610.0 9.5648e-10
18630.0 9.5263e-10
18650.0 9.4865e-10
18670.0 9.4466e-10
18690.0 9.4087e-10
18710.0 9.3696e-10
18730.0 9.3297e-10
18750.0 9.291e-10
18770.0 9.2527e-10
18790.0 9.212e-10
18810.0 9.1723e-10
18830.0 9.134e-10
18850.0 9.0947e-10
18870.0 9.0545e-10
18890.0 9.0159e-10
18910.0 8.9774e-10
18930.0 8.9372e-10
18950.0 8.8976e-10
18970.0 8.8592e-10
18990.0 8.8197e-10
19010.0 8.7785e-10
19030.0 8.7401e-10
19050.0 8.7013e-10
19070.0 8.6611e-10
19090.0 8.6216e-10
19110.0 8.5835e-10
19130.0 8.5434e-10
19150.0 8.503e-10
19170.0 8.4641e-10
19190.0 8.4251e-10
19210.0 8.3844e-10
19230.0 8.3446e-10
19250.0 8.3063e-10
19270.0 8.2664e-10
19290.0 8.2263e-10
19310.0 8.1875e-10
19330.0 8.1485e-10
19350.0 8.1072e-10
19370.0 8.0677e-10
19390.0 8.0289e-10
19410.0 7.9888e-10
19430.0 7.9483e-10
19450.0 7.9097e-10
19470.0 7.8704e-10
19490.0 7.8298e-10
19510.0 7.7903e-10
19530.0 7.7515e-10
19550.0 7.7108e-10
19570.0 7.67e-10
19590.0 7.6313e-10
19610.0 7.5918e-10
19630.0 7.5511e-10
19650.0 7.5117e-10
19670.0 7.473e-10
19690.0 7.4323e-10
19710.0 7.392e-10
19730.0 7.3529e-10
19750.0 7.3132e-10
19770.0 7.2719e-10
19790.0 7.2324e-10
19810.0 7.1935e-10
19830.0 7.1531e-10
19850.0 7.1131e-10
19870.0 7.0747e-10
19890.0 7.0354e-10
19910.0 6.9958e-10
19930.0 6.9592e-10
19950.0 6.9246e-10
19970.0 6.8915e-10
19990.0 6.8622e-10
20010.0 6.8381e-10
20030.0 6.817e-10
20050.0 6.7996e-10
20070.0 6.7861e-10
20090.0 6.7752e-10
20110.0 6.7656e-10
20130.0 6.7575e-10
20150.0 6.7502e-10
20170.0 6.7428e-10
20190.0 6.7353e-10
20210.0 6.7279e-10
20230.0 6.7201e-10
20250.0 6.7116e-10
20270.0 6.7027e-10
20290.0 6.6936e-10
20310.0 6.6837e-10
20330.0 6.6729e-10
20350.0 6.6622e-10
20370.0 6.6509e-10
20390.0 6.6387e-10
20410.0 6.6262e-10
20430.0 6.6138e-10
20450.0 6.6003e-10
20470.0 6.5866e-10
20490.0 6.5733e-10
20510.0 6.5598e-10
20530.0 6.5458e-10
20550.0 6.5324e-10
20570.0 6.5197e-10
20590.0 6.5067e-10
20610.0 6.494e-10
20630.0 6.4821e-10
20650.0 6.4702e-10
20670.0 6.458e-10
20690.0 6.4463e-10
20710.0 6.4348e-10
20730.0 6.4227e-10
20750.0 6.4101e-10
20770.0 6.3976e-10
20790.0 6.3842e-10
20810.0 6.3694e-10
20830.0 6.3541e-10
20850.0 6.338e-10
20870.0 6.3199e-10
20890.0 6.3007e-10
20910.0 6.2813e-10
20930.0 6.2605e-10
20950.0 6.2381e-10
20970.0 6.2157e-10
20990.0 6.193e-10
21010.0 6.1686e-10
21030.0 6.1441e-10
21050.0 6.1204e-10
21070.0 6.0961e-10
21090.0 6.071e-10
21110.0 6.0474e-10
21130.0 6.0243e-10
21150.0 6.0006e-10
21170.0 5.9774e-10
21190.0 5.9553e-10
21210.0 5.9325e-10
21230.0 5.9093e-10
21250.0 5.887e-10
21270.0 5.8647e-10
21290.0 5.8414e-10
21310.0 5.8179e-10
21330.0 5.7951e-10
21350.0 5.7709e-10
21370.0 5.7458e-10
21390.0 5.7197e-10
21410.0 5.6931e-10
21430.0 5.6641e-10
21450.0 5.6354e-10
21470.0 5.6069e-10
21490.0 5.577e-10
21510.0 5.546e-10
21530.0 5.5159e-10
21550.0 5.4851e-10
21570.0 5.4526e-10
21590.0 5.4206e-10
21610.0 5.3892e-10
21630.0 5.3567e-10
21650.0 5.3231e-10
21670.0 5.2917e-10
21690.0 5.2598e-10
21710.0 5.227e-10
21730.0 5.195e-10
21750.0 5.164e-10
21770.0 5.1314e-10
21790.0 5.0989e-10
21810.0 5.0677e-10
21830.0 5.0362e-10
21850.0 5.0036e-10
21870.0 4.9719e-10
21890.0 4.9412e-10
21910.0 4.9093e-10
21930.0 4.8775e-10
21950.0 4.847e-10
21970.0 4.8163e-10
21990.0 4.7845e-10
22010.0 4.7546e-10
22030.0 4.7258e-10
22050.0 4.6967e-10
22070.0 4.6687e-10
22090.0 4.6435e-10
22110.0 4.6186e-10
22130.0 4.5942e-10
22150.0 4.5716e-10
22170.0 4.5504e-10
22190.0 4.5293e-10
22210.0 4.5095e-10
22230.0 4.4916e-10
22250.0 4.4741e-10
22270.0 4.4572e-10
22290.0 4.4415e-10
22310.0 4.4266e-10
22330.0 4.4113e-10
22350.0 4.3968e-10
22370.0 4.3829e-10
22390.0 4.3688e-10
22410.0 4.3544e-10
22430.0 4.3406e-10
22450.0 4.3269e-10
22470.0 4.3124e-10
22490.0 4.298e-10
22510.0 4.284e-10
22530.0 4.2692e-10
22550.0 4.2541e-10
22570.0 4.2395e-10
22590.0 4.2249e-10
22610.0 4.2098e-10
22630.0 4.1951e-10
