#lamb flux
1010.0 1.3024e-07
1030.0 1.3614e-07
1050.0 1.4298e-07
1070.0 1.5071e-07
1090.0 1.5949e-07
1110.0 1.6854e-07
1130.0 1.777e-07
1150.0 1.8734e-07
1170.0 1.9735e-07
1190.0 2.0691e-07
1210.0 2.1668e-07
1230.0 2.2683e-07
1250.0 2.3688e-07
1270.0 2.4674e-07
1290.0 2.5722e-07
1310.0 2.678e-07
1330.0 2.7808e-07
1350.0 2.8857e-07
1370.0 2.995e-07
1390.0 3.103e-07
1410.0 3.2093e-07
1430.0 3.3212e-07
1450.0 3.4345e-07
1470.0 3.5456e-07
1490.0 3.659e-07
1510.0 3.7792e-07
1530.0 3.895e-07
1550.0 4.0105e-07
1570.0 4.1303e-07
1590.0 4.251e-07
1610.0 4.3676e-07
1630.0 4.4877e-07
1650.0 4.6107e-07
1670.0 4.7301e-07
1690.0 4.8479e-07
1710.0 4.969e-07
1730.0 5.0898e-07
1750.0 5.203e-07
1770.0 5.3176e-07
1790.0 5.4326e-07
1810.0 5.542e-07
1830.0 5.6471e-07
1850.0 5.7559e-07
1870.0 5.8588e-07
1890.0 5.9551e-07
1910.0 6.0501e-07
1930.0 6.1441e-07
1950.0 6.2297e-07
1970.0 6.3105e-07
1990.0 6.3916e-07
2010.0 6.4675e-07
2030.0 6.5365e-07
2050.0 6.6054e-07
2070.0 6.6742e-07
2090.0 6.7347e-07
2110.0 6.793e-07
2130.0 6.8528e-07
2150.0 6.9099e-07
2170.0 6.9625e-07
2190.0 7.0191e-07
2210.0 7.0774e-07
2230.0 7.1337e-07
2250.0 7.1923e-07
2270.0 7.2583e-07
2290.0 7.3255e-07
2310.0 7.394e-07
2330.0 7.471e-07
2350.0 7.5554e-07
2370.0 7.6434e-07
2390.0 7.7405e-07
2410.0 7.8507e-07
2430.0 7.9676e-07
2450.0 8.0926e-07
2470.0 8.2306e-07
2490.0 8.3816e-07
2510.0 8.5438e-07
2530.0 8.7375e-07
2550.0 8.9961e-07
2570.0 9.3619e-07
2590.0 9.8905e-07
2610.0 1.0714e-06
2630.0 1.1895e-06
2650.0 1.3413e-06
2670.0 1.5313e-06
2690.0 1.7575e-06
2710.0 1.996e-06
2730.0 2.2342e-06
2750.0 2.4763e-06
2770.0 2.7054e-06
2790.0 2.9163e-06
2810.0 3.1207e-06
2830.0 3.3286e-06
2850.0 3.5306e-06
2870.0 3.7377e-06
2890.0 3.9588e-06
2910.0 4.1906e-06
2930.0 4.4271e-06
2950.0 4.6802e-06
2970.0 4.9483e-06
2990.0 5.2218e-06
3010.0 1.0372e-05
3030.0 1.0929e-05
3050.0 1.1487e-05
3070.0 1.2004e-05
3090.0 1.2455e-05
3110.0 1.2735e-05
3130.0 1.2718e-05
3150.0 1.226e-05
3170.0 1.1074e-05
3190.0 9.1213e-06
3210.0 6.424e-06
3230.0 3.3703e-06
3250.0 6.6127e-06
3270.0 2.7407e-06
3290.0 1.0291e-05
3310.0 1.8988e-06
3330.0 1.8742e-06
3350.0 2.9394e-06
3370.0 4.1691e-06
3390.0 5.4824e-06
3410.0 6.7913e-06
3430.0 8.1628e-06
3450.0 9.5322e-06
3470.0 1.0785e-05
3490.0 1.1606e-05
3510.0 1.4602e-05
3530.0 2.015e-05
3550.0 1.9833e-05
3570.0 1.6144e-05
3590.0 2.3449e-05
3610.0 1.41e-05
3630.0 2.4386e-05
3650.0 2.8295e-05
3670.0 3.6949e-05
3690.0 3.4695e-05
3710.0 2.3204e-05
3730.0 3.1577e-05
3750.0 3.2753e-05
3770.0 3.4065e-05
3790.0 3.0963e-05
3810.0 2.8011e-05
3830.0 4.1684e-05
3850.0 4.6923e-05
3870.0 5.868e-05
3890.0 5.5061e-05
3910.0 4.8677e-05
3930.0 5.1494e-05
3950.0 5.7639e-05
3970.0 7.3654e-05
3990.0 5.5485e-05
4010.0 3.3369e-05
4030.0 4.9307e-05
4050.0 5.7117e-05
4070.0 6.5307e-05
4090.0 5.457e-05
4110.0 3.5241e-05
4130.0 4.9604e-05
4150.0 4.6212e-05
4170.0 4.8157e-05
4190.0 4.7262e-05
4210.0 6.103e-05
4230.0 4.1433e-05
4250.0 4.9324e-05
4270.0 4.9219e-05
4290.0 4.9261e-05
4310.0 6.152e-05
4330.0 6.3384e-05
4350.0 4.8026e-05
4370.0 4.047e-05
4390.0 5.1082e-05
4410.0 5.3057e-05
4430.0 4.0241e-05
4450.0 4.0232e-05
4470.0 4.7778e-05
4490.0 3.4541e-05
4510.0 4.3566e-05
4530.0 4.6598e-05
4550.0 6.193e-05
4570.0 9.1364e-05
4590.0 8.6669e-05
4610.0 5.4911e-05
4630.0 9.2862e-05
4650.0 0.00013594
4670.0 0.00012521
4690.0 7.1949e-05
4710.0 7.9509e-05
4730.0 0.0001054
4750.0 9.3728e-05
4770.0 7.0269e-05
4790.0 4.6689e-05
4810.0 6.9395e-05
4830.0 8.073e-05
4850.0 6.99e-05
4870.0 1.9994e-05
4890.0 7.5438e-05
4910.0 0.00010745
4930.0 0.00011539
4950.0 0.00011242
4970.0 6.6027e-05
4990.0 7.7269e-05
5010.0 9.3559e-05
5030.0 0.00010521
5050.0 0.00010493
5070.0 7.4908e-05
5090.0 6.072e-05
5110.0 5.6794e-05
5130.0 5.058e-05
5150.0 5.7465e-05
5170.0 4.9593e-05
5190.0 6.2332e-05
5210.0 6.2381e-05
5230.0 6.8699e-05
5250.0 8.7092e-05
5270.0 7.1448e-05
5290.0 6.9854e-05
5310.0 0.00010621
5330.0 0.00012412
5350.0 0.00010248
5370.0 8.8198e-05
5390.0 0.00010277
5410.0 0.0001316
5430.0 0.00014569
5450.0 0.00015544
5470.0 0.00015423
5490.0 0.0001496
5510.0 0.00017675
5530.0 0.00018387
5550.0 0.00019868
5570.0 0.00021293
5590.0 0.00021169
5610.0 0.00019969
5630.0 0.00019271
5650.0 0.00019759
5670.0 0.00019561
5690.0 0.00016579
5710.0 0.00016124
5730.0 0.00016559
5750.0 0.00018248
5770.0 0.00015738
5790.0 0.0001438
5810.0 0.00014564
5830.0 0.00015423
5850.0 0.00014078
5870.0 0.00014292
5890.0 0.00017328
5910.0 0.00016481
5930.0 0.00013323
5950.0 0.00011506
5970.0 0.00012548
5990.0 0.00011635
6010.0 0.0001104
6030.0 0.00011368
6050.0 0.00010591
6070.0 7.7931e-05
6090.0 6.9616e-05
6110.0 9.2514e-05
6130.0 0.00010777
6150.0 0.00011303
6170.0 0.00010861
6190.0 0.00010032
6210.0 9.8256e-05
6230.0 0.00011675
6250.0 0.00010792
6270.0 9.8834e-05
6290.0 9.1444e-05
6310.0 8.6683e-05
6330.0 8.2441e-05
6350.0 7.1671e-05
6370.0 7.0952e-05
6390.0 8.4384e-05
6410.0 0.00010549
6430.0 0.00012124
6450.0 0.00011286
6470.0 0.00010947
6490.0 0.00013874
6510.0 0.00016106
6530.0 0.00015185
6550.0 0.00014499
6570.0 0.00014731
6590.0 0.00014286
6610.0 0.00015601
6630.0 0.0001459
6650.0 0.00012725
6670.0 0.00011438
6690.0 0.00011214
6710.0 0.00014044
6730.0 0.00012804
6750.0 0.00010738
6770.0 9.5024e-05
6790.0 0.00010001
6810.0 0.00011272
6830.0 0.00011032
6850.0 9.9374e-05
6870.0 0.00010366
6890.0 0.00010241
6910.0 9.6484e-05
6930.0 0.00011152
6950.0 0.00010239
6970.0 9.4526e-05
6990.0 9.3776e-05
7010.0 9.0079e-05
7030.0 8.5353e-05
7050.0 8.3151e-05
7070.0 9.2083e-05
7090.0 8.7678e-05
7110.0 7.5149e-05
7130.0 6.0135e-05
7150.0 5.4856e-05
7170.0 7.4402e-05
7190.0 8.1268e-05
7210.0 7.7563e-05
7230.0 8.0222e-05
7250.0 7.3874e-05
7270.0 6.9843e-05
7290.0 7.8199e-05
7310.0 8.8689e-05
7330.0 8.7428e-05
7350.0 8.1653e-05
7370.0 7.7093e-05
7390.0 8.0074e-05
7410.0 9.3746e-05
7430.0 0.00010282
7450.0 0.00010868
7470.0 0.00010599
7490.0 0.00011039
7510.0 0.00010662
7530.0 0.00010567
7550.0 0.00010495
7570.0 9.2423e-05
7590.0 9.1536e-05
7610.0 8.8468e-05
7630.0 8.0859e-05
7650.0 8.7941e-05
7670.0 9.5864e-05
7690.0 0.00010392
7710.0 0.0001167
7730.0 0.00012398
7750.0 0.0001293
7770.0 0.0001298
7790.0 0.00014237
7810.0 0.00014637
7830.0 0.00013334
7850.0 0.00013421
7870.0 0.00012777
7890.0 0.00013413
7910.0 0.00012706
7930.0 0.00012813
7950.0 0.00011159
7970.0 0.00011423
7990.0 0.00010913
8010.0 0.00011082
8030.0 0.00011018
8050.0 0.00011595
8070.0 0.0001113
8090.0 0.00011157
8110.0 0.00010905
8130.0 0.00010893
8150.0 0.00010376
8170.0 0.00010095
8190.0 9.9761e-05
8210.0 0.00010048
8230.0 8.8535e-05
8250.0 8.0824e-05
8270.0 7.1062e-05
8290.0 5.9521e-05
8310.0 5.1634e-05
8330.0 4.1322e-05
8350.0 3.4428e-05
8370.0 3.4844e-05
8390.0 3.482e-05
8410.0 3.6535e-05
8430.0 4.5327e-05
8450.0 4.8648e-05
8470.0 5.16e-05
8490.0 5.9575e-05
8510.0 6.48e-05
8530.0 7.4411e-05
8550.0 8.7912e-05
8570.0 9.7322e-05
8590.0 0.00010359
8610.0 0.00011332
8630.0 0.00012568
8650.0 0.00012785
8670.0 0.00012944
8690.0 0.00013457
8710.0 0.0001326
8730.0 0.00013036
8750.0 0.00012225
8770.0 0.00012229
8790.0 0.00012061
8810.0 0.00011105
8830.0 0.00011122
8850.0 0.0001039
8870.0 9.9679e-05
8890.0 9.0413e-05
8910.0 9.7835e-05
8930.0 8.9006e-05
8950.0 8.7827e-05
8970.0 8.8401e-05
8990.0 8.5401e-05
9010.0 8.7231e-05
9030.0 8.3429e-05
9050.0 8.2978e-05
9070.0 8.2912e-05
9090.0 8.2829e-05
9110.0 8.2781e-05
9130.0 8.2668e-05
9150.0 8.2524e-05
9170.0 8.2169e-05
9190.0 8.1482e-05
9210.0 8.2539e-05
9230.0 8.2104e-05
9250.0 8.1805e-05
9270.0 8.1527e-05
9290.0 8.1261e-05
9310.0 8.1004e-05
9330.0 8.0748e-05
9350.0 8.0486e-05
9370.0 8.0219e-05
9390.0 7.9945e-05
9410.0 7.9663e-05
9430.0 7.9372e-05
9450.0 7.9072e-05
9470.0 7.8767e-05
9490.0 7.8459e-05
9510.0 7.8144e-05
9530.0 7.7824e-05
9550.0 7.7498e-05
9570.0 7.7168e-05
9590.0 7.6834e-05
9610.0 7.6497e-05
9630.0 7.6157e-05
9650.0 7.5815e-05
9670.0 7.5471e-05
9690.0 7.5126e-05
9710.0 7.478e-05
9730.0 7.4432e-05
9750.0 7.4085e-05
9770.0 7.3739e-05
9790.0 7.3392e-05
9810.0 7.3047e-05
9830.0 7.2703e-05
9850.0 7.2361e-05
9870.0 7.202e-05
9890.0 7.1682e-05
9910.0 7.1347e-05
9930.0 7.1012e-05
9950.0 7.0505e-05
9970.0 7.0232e-05
9990.0 6.9954e-05
10010.0 6.9671e-05
10030.0 6.9379e-05
10050.0 6.9063e-05
10070.0 6.8665e-05
10090.0 6.8405e-05
10110.0 6.8138e-05
10130.0 6.7868e-05
10150.0 6.76e-05
10170.0 6.7327e-05
10190.0 6.7048e-05
10210.0 6.6782e-05
10230.0 6.6524e-05
10250.0 6.6261e-05
10270.0 6.6007e-05
10290.0 6.5765e-05
10310.0 6.5522e-05
10330.0 6.5279e-05
10350.0 6.5051e-05
10370.0 6.483e-05
10390.0 6.4608e-05
10410.0 6.4394e-05
10430.0 6.4194e-05
10450.0 6.3993e-05
10470.0 6.3795e-05
10490.0 6.3609e-05
10510.0 6.3431e-05
10530.0 6.3247e-05
10550.0 6.3075e-05
10570.0 6.2916e-05
10590.0 6.2756e-05
10610.0 6.26e-05
10630.0 6.2457e-05
10650.0 6.2319e-05
10670.0 6.2178e-05
10690.0 6.2048e-05
10710.0 6.1927e-05
10730.0 6.1807e-05
10750.0 6.1687e-05
10770.0 6.1584e-05
10790.0 6.1484e-05
10810.0 6.1383e-05
10830.0 6.1288e-05
10850.0 6.12e-05
10870.0 6.1097e-05
10890.0 6.0979e-05
10910.0 6.0837e-05
10930.0 6.0639e-05
10950.0 6.0341e-05
10970.0 5.9929e-05
10990.0 5.9394e-05
11010.0 5.9063e-05
11030.0 5.8188e-05
11050.0 5.7164e-05
11070.0 5.598e-05
11090.0 5.4607e-05
11110.0 5.3235e-05
11130.0 5.1857e-05
11150.0 5.0435e-05
11170.0 4.9037e-05
11190.0 4.7746e-05
11210.0 4.6476e-05
11230.0 4.5238e-05
11250.0 4.4113e-05
11270.0 4.3078e-05
11290.0 4.2078e-05
11310.0 4.1157e-05
11330.0 4.0364e-05
11350.0 3.9615e-05
11370.0 3.8912e-05
11390.0 3.8284e-05
11410.0 3.7707e-05
11430.0 3.7124e-05
11450.0 3.6572e-05
11470.0 3.6046e-05
11490.0 3.5505e-05
11510.0 3.4932e-05
11530.0 3.4367e-05
11550.0 3.3786e-05
11570.0 3.315e-05
11590.0 3.2492e-05
11610.0 3.183e-05
11630.0 3.1114e-05
11650.0 3.0352e-05
11670.0 2.9611e-05
11690.0 2.8859e-05
11710.0 2.8073e-05
11730.0 2.7299e-05
11750.0 2.657e-05
11770.0 2.5826e-05
11790.0 2.5094e-05
11810.0 2.4419e-05
11830.0 2.3776e-05
11850.0 2.313e-05
11870.0 2.2544e-05
11890.0 2.2014e-05
11910.0 2.1499e-05
11930.0 2.1008e-05
11950.0 2.0569e-05
11970.0 2.0149e-05
11990.0 1.9731e-05
12010.0 1.9346e-05
12030.0 1.8988e-05
12050.0 1.8632e-05
12070.0 1.8282e-05
12090.0 1.7973e-05
12110.0 1.7674e-05
12130.0 1.7382e-05
12150.0 1.7122e-05
12170.0 1.6897e-05
12190.0 1.6685e-05
12210.0 1.6514e-05
12230.0 1.6396e-05
12250.0 1.6323e-05
12270.0 1.6302e-05
12290.0 1.6345e-05
12310.0 1.6449e-05
12330.0 1.6618e-05
12350.0 1.6853e-05
12370.0 1.7143e-05
12390.0 1.7488e-05
12410.0 1.79e-05
12430.0 1.8334e-05
12450.0 1.8791e-05
12470.0 1.9277e-05
12490.0 1.977e-05
12510.0 2.0241e-05
12530.0 2.0711e-05
12550.0 2.1167e-05
12570.0 2.1583e-05
12590.0 2.1964e-05
12610.0 2.2319e-05
12630.0 2.2633e-05
12650.0 2.2899e-05
12670.0 2.3133e-05
12690.0 2.333e-05
12710.0 2.349e-05
12730.0 2.3618e-05
12750.0 2.3714e-05
12770.0 2.3779e-05
12790.0 2.3817e-05
12810.0 2.3827e-05
12830.0 2.3806e-05
12850.0 2.3765e-05
12870.0 2.3701e-05
12890.0 2.3603e-05
12910.0 2.3482e-05
12930.0 2.3344e-05
12950.0 2.3169e-05
12970.0 2.2961e-05
12990.0 2.2742e-05
13010.0 2.2498e-05
13030.0 2.2219e-05
13050.0 2.1923e-05
13070.0 2.1625e-05
13090.0 2.1295e-05
13110.0 2.095e-05
13130.0 2.0615e-05
13150.0 2.0281e-05
13170.0 1.9934e-05
13190.0 1.9617e-05
13210.0 1.9335e-05
13230.0 1.9069e-05
13250.0 1.8838e-05
13270.0 1.8656e-05
13290.0 1.8513e-05
13310.0 1.8407e-05
13330.0 1.8349e-05
13350.0 1.833e-05
13370.0 1.8341e-05
13390.0 1.8377e-05
13410.0 1.8428e-05
13430.0 1.8483e-05
13450.0 1.8534e-05
13470.0 1.8569e-05
13490.0 1.8582e-05
13510.0 1.8563e-05
13530.0 1.8509e-05
13550.0 1.8424e-05
13570.0 1.8302e-05
13590.0 1.8143e-05
13610.0 1.7961e-05
13630.0 1.7764e-05
13650.0 1.7542e-05
13670.0 1.7313e-05
13690.0 1.709e-05
13710.0 1.6865e-05
13730.0 1.6637e-05
13750.0 1.6433e-05
13770.0 1.6242e-05
13790.0 1.6056e-05
13810.0 1.5883e-05
13830.0 1.5727e-05
13850.0 1.5573e-05
13870.0 1.5423e-05
13890.0 1.5281e-05
13910.0 1.5143e-05
13930.0 1.5e-05
13950.0 1.4857e-05
13970.0 1.4722e-05
13990.0 1.4584e-05
14010.0 1.4446e-05
14030.0 1.4315e-05
14050.0 1.4191e-05
14070.0 1.4069e-05
14090.0 1.3959e-05
14110.0 1.3862e-05
14130.0 1.3774e-05
14150.0 1.3699e-05
14170.0 1.364e-05
14190.0 1.3593e-05
14210.0 1.356e-05
14230.0 1.354e-05
14250.0 1.3533e-05
14270.0 1.3539e-05
14290.0 1.356e-05
14310.0 1.3591e-05
14330.0 1.3633e-05
14350.0 1.3687e-05
14370.0 1.3748e-05
14390.0 1.3811e-05
14410.0 1.3883e-05
14430.0 1.3957e-05
14450.0 1.4027e-05
14470.0 1.4095e-05
14490.0 1.4163e-05
14510.0 1.4222e-05
14530.0 1.4272e-05
14550.0 1.432e-05
14570.0 1.4364e-05
14590.0 1.4402e-05
14610.0 1.4443e-05
14630.0 1.449e-05
14650.0 1.4542e-05
14670.0 1.4602e-05
14690.0 1.468e-05
14710.0 1.4778e-05
14730.0 1.4886e-05
14750.0 1.5019e-05
14770.0 1.518e-05
14790.0 1.5357e-05
14810.0 1.555e-05
14830.0 1.578e-05
14850.0 1.6023e-05
14870.0 1.6267e-05
14890.0 1.6521e-05
14910.0 1.6782e-05
14930.0 1.7018e-05
14950.0 1.7224e-05
14970.0 1.7407e-05
14990.0 1.7541e-05
15010.0 1.7621e-05
15030.0 1.7656e-05
15050.0 1.7649e-05
15070.0 1.7602e-05
15090.0 1.7531e-05
15110.0 1.7442e-05
15130.0 1.7343e-05
15150.0 1.7239e-05
15170.0 1.7131e-05
15190.0 1.7021e-05
15210.0 1.6912e-05
15230.0 1.6802e-05
15250.0 1.6692e-05
15270.0 1.6582e-05
15290.0 1.6473e-05
15310.0 1.6364e-05
15330.0 1.6254e-05
15350.0 1.6145e-05
15370.0 1.6037e-05
15390.0 1.5928e-05
15410.0 1.5819e-05
15430.0 1.5712e-05
15450.0 1.5604e-05
15470.0 1.5496e-05
15490.0 1.539e-05
15510.0 1.5284e-05
15530.0 1.5177e-05
15550.0 1.5071e-05
15570.0 1.4967e-05
15590.0 1.4862e-05
15610.0 1.4756e-05
15630.0 1.4653e-05
15650.0 1.455e-05
15670.0 1.4447e-05
15690.0 1.4344e-05
15710.0 1.4243e-05
15730.0 1.4142e-05
15750.0 1.4041e-05
15770.0 1.3941e-05
15790.0 1.3842e-05
15810.0 1.3742e-05
15830.0 1.3644e-05
15850.0 1.3547e-05
15870.0 1.3449e-05
15890.0 1.3352e-05
15910.0 1.3257e-05
15930.0 1.3162e-05
15950.0 1.3067e-05
15970.0 1.2974e-05
15990.0 1.2881e-05
16010.0 1.2788e-05
16030.0 1.2696e-05
16050.0 1.2606e-05
16070.0 1.2515e-05
16090.0 1.2425e-05
16110.0 1.2337e-05
16130.0 1.2249e-05
16150.0 1.2161e-05
16170.0 1.2074e-05
16190.0 1.1988e-05
16210.0 1.1903e-05
16230.0 1.1817e-05
16250.0 1.1734e-05
16270.0 1.1651e-05
16290.0 1.1568e-05
16310.0 1.1486e-05
16330.0 1.1406e-05
16350.0 1.1326e-05
16370.0 1.1245e-05
16390.0 1.1167e-05
16410.0 1.1089e-05
16430.0 1.1011e-05
16450.0 1.0934e-05
16470.0 1.0859e-05
16490.0 1.0783e-05
16510.0 1.0708e-05
16530.0 1.0635e-05
16550.0 1.0562e-05
16570.0 1.0489e-05
16590.0 1.0417e-05
16610.0 1.0347e-05
16630.0 1.0276e-05
16650.0 1.0206e-05
16670.0 1.0138e-05
16690.0 1.007e-05
16710.0 1.0001e-05
16730.0 9.9345e-06
16750.0 9.8688e-06
16770.0 9.8031e-06
16790.0 9.7376e-06
16810.0 9.6739e-06
16830.0 9.6107e-06
16850.0 9.5473e-06
16870.0 9.485e-06
16890.0 9.424e-06
16910.0 9.3626e-06
16930.0 9.3016e-06
16950.0 9.2423e-06
16970.0 9.1834e-06
16990.0 9.1245e-06
17010.0 9.0667e-06
17030.0 9.0101e-06
17050.0 8.9531e-06
17070.0 8.8967e-06
17090.0 8.8416e-06
17110.0 8.7869e-06
17130.0 8.7317e-06
17150.0 8.6781e-06
17170.0 8.6255e-06
17190.0 8.5727e-06
17210.0 8.5204e-06
17230.0 8.4695e-06
17250.0 8.4186e-06
17270.0 8.3676e-06
17290.0 8.3179e-06
17310.0 8.2689e-06
17330.0 8.2198e-06
17350.0 8.171e-06
17370.0 8.124e-06
17390.0 8.0768e-06
17410.0 8.0297e-06
17430.0 7.9837e-06
17450.0 7.9385e-06
17470.0 7.8925e-06
17490.0 7.8474e-06
17510.0 7.8036e-06
17530.0 7.7598e-06
17550.0 7.716e-06
17570.0 7.6734e-06
17590.0 7.6315e-06
17610.0 7.589e-06
17630.0 7.5474e-06
17650.0 7.5068e-06
17670.0 7.4661e-06
17690.0 7.425e-06
17710.0 7.3856e-06
17730.0 7.3466e-06
17750.0 7.3073e-06
17770.0 7.2687e-06
17790.0 7.2312e-06
17810.0 7.1932e-06
17830.0 7.1554e-06
17850.0 7.1188e-06
17870.0 7.0825e-06
17890.0 7.0458e-06
17910.0 7.0098e-06
17930.0 6.975e-06
17950.0 6.9398e-06
17970.0 6.9049e-06
17990.0 6.8709e-06
18010.0 6.8373e-06
18030.0 6.8029e-06
18050.0 6.7696e-06
18070.0 6.7372e-06
18090.0 6.7044e-06
18110.0 6.6717e-06
18130.0 6.6403e-06
18150.0 6.6089e-06
18170.0 6.5772e-06
18190.0 6.5463e-06
18210.0 6.5162e-06
18230.0 6.4855e-06
18250.0 6.4549e-06
18270.0 6.4256e-06
18290.0 6.3963e-06
18310.0 6.3668e-06
18330.0 6.3381e-06
18350.0 6.3101e-06
18370.0 6.2814e-06
18390.0 6.2532e-06
18410.0 6.2258e-06
18430.0 6.1985e-06
18450.0 6.1706e-06
18470.0 6.1438e-06
18490.0 6.1176e-06
18510.0 6.091e-06
18530.0 6.0647e-06
18550.0 6.0393e-06
18570.0 6.0137e-06
18590.0 5.9877e-06
18610.0 5.9627e-06
18630.0 5.9381e-06
18650.0 5.913e-06
18670.0 5.8882e-06
18690.0 5.8646e-06
18710.0 5.8406e-06
18730.0 5.8165e-06
18750.0 5.7931e-06
18770.0 5.7702e-06
18790.0 5.7464e-06
18810.0 5.7232e-06
18830.0 5.7009e-06
18850.0 5.6784e-06
18870.0 5.6556e-06
18890.0 5.6338e-06
18910.0 5.6123e-06
18930.0 5.5901e-06
18950.0 5.5685e-06
18970.0 5.5475e-06
18990.0 5.5263e-06
19010.0 5.5044e-06
19030.0 5.4841e-06
19050.0 5.4637e-06
19070.0 5.4429e-06
19090.0 5.4225e-06
19110.0 5.403e-06
19130.0 5.3827e-06
19150.0 5.3625e-06
19170.0 5.3431e-06
19190.0 5.3238e-06
19210.0 5.304e-06
19230.0 5.2846e-06
19250.0 5.2662e-06
19270.0 5.2472e-06
19290.0 5.2281e-06
19310.0 5.2099e-06
19330.0 5.1917e-06
19350.0 5.1726e-06
19370.0 5.1545e-06
19390.0 5.1368e-06
19410.0 5.1187e-06
19430.0 5.1005e-06
19450.0 5.0833e-06
19470.0 5.0659e-06
19490.0 5.0481e-06
19510.0 5.0309e-06
19530.0 5.0141e-06
19550.0 4.9966e-06
19570.0 4.9792e-06
19590.0 4.9628e-06
19610.0 4.9462e-06
19630.0 4.9292e-06
19650.0 4.9128e-06
19670.0 4.8969e-06
19690.0 4.8802e-06
19710.0 4.8637e-06
19730.0 4.848e-06
19750.0 4.832e-06
19770.0 4.8154e-06
19790.0 4.7997e-06
19810.0 4.7844e-06
19830.0 4.7683e-06
19850.0 4.7523e-06
19870.0 4.7366e-06
19890.0 4.7194e-06
19910.0 4.7001e-06
19930.0 4.6789e-06
19950.0 4.6537e-06
19970.0 4.6216e-06
19990.0 4.5819e-06
20010.0 4.5361e-06
20030.0 4.48e-06
20050.0 4.4141e-06
20070.0 4.3433e-06
20090.0 4.2679e-06
20110.0 4.1835e-06
20130.0 4.0995e-06
20150.0 4.0178e-06
20170.0 3.9343e-06
20190.0 3.8509e-06
20210.0 3.7734e-06
20230.0 3.6989e-06
20250.0 3.6251e-06
20270.0 3.5577e-06
20290.0 3.4972e-06
20310.0 3.4407e-06
20330.0 3.3892e-06
20350.0 3.3482e-06
20370.0 3.3137e-06
20390.0 3.2859e-06
20410.0 3.2667e-06
20430.0 3.2558e-06
20450.0 3.2523e-06
20470.0 3.2573e-06
20490.0 3.2699e-06
20510.0 3.2898e-06
20530.0 3.3176e-06
20550.0 3.3514e-06
20570.0 3.3894e-06
20590.0 3.4337e-06
20610.0 3.4822e-06
20630.0 3.532e-06
20650.0 3.5841e-06
20670.0 3.6398e-06
20690.0 3.6928e-06
20710.0 3.7439e-06
20730.0 3.7944e-06
20750.0 3.8419e-06
20770.0 3.8838e-06
20790.0 3.9223e-06
20810.0 3.957e-06
20830.0 3.9858e-06
20850.0 4.0094e-06
20870.0 4.029e-06
20890.0 4.0434e-06
20910.0 4.0529e-06
20930.0 4.0586e-06
20950.0 4.0604e-06
20970.0 4.0588e-06
20990.0 4.0544e-06
21010.0 4.0467e-06
21030.0 4.0365e-06
21050.0 4.0244e-06
21070.0 4.0099e-06
21090.0 3.9927e-06
21110.0 3.9748e-06
21130.0 3.9556e-06
21150.0 3.9345e-06
21170.0 3.9126e-06
21190.0 3.8912e-06
21210.0 3.8687e-06
21230.0 3.846e-06
21250.0 3.8251e-06
21270.0 3.8053e-06
21290.0 3.7863e-06
21310.0 3.7696e-06
21330.0 3.7559e-06
21350.0 3.7442e-06
21370.0 3.7353e-06
21390.0 3.7297e-06
21410.0 3.7271e-06
21430.0 3.7277e-06
21450.0 3.7317e-06
21470.0 3.7387e-06
21490.0 3.7488e-06
21510.0 3.762e-06
21530.0 3.7773e-06
21550.0 3.7951e-06
21570.0 3.8158e-06
21590.0 3.8382e-06
21610.0 3.862e-06
21630.0 3.888e-06
21650.0 3.9164e-06
21670.0 3.9445e-06
21690.0 3.9742e-06
21710.0 4.0061e-06
21730.0 4.0385e-06
21750.0 4.071e-06
21770.0 4.1066e-06
21790.0 4.1432e-06
21810.0 4.1796e-06
21830.0 4.2176e-06
21850.0 4.2579e-06
21870.0 4.2982e-06
21890.0 4.3383e-06
21910.0 4.3807e-06
21930.0 4.4238e-06
21950.0 4.4659e-06
21970.0 4.5087e-06
21990.0 4.5532e-06
22010.0 4.5951e-06
22030.0 4.6356e-06
22050.0 4.6758e-06
22070.0 4.7141e-06
22090.0 4.7484e-06
22110.0 4.7806e-06
22130.0 4.8099e-06
22150.0 4.8344e-06
22170.0 4.8542e-06
22190.0 4.8697e-06
22210.0 4.8794e-06
22230.0 4.8831e-06
22250.0 4.8809e-06
22270.0 4.8722e-06
22290.0 4.8574e-06
22310.0 4.8368e-06
22330.0 4.8083e-06
22350.0 4.7739e-06
22370.0 4.7347e-06
22390.0 4.6889e-06
22410.0 4.6359e-06
22430.0 4.5807e-06
22450.0 4.5217e-06
22470.0 4.4566e-06
22490.0 4.3892e-06
22510.0 4.3218e-06
22530.0 4.2496e-06
22550.0 4.1749e-06
22570.0 4.1029e-06
22590.0 4.0311e-06
22610.0 3.9575e-06
