#lamb flux
1010.0 6.4572e-06
1030.0 6.4839e-06
1050.0 6.5133e-06
1070.0 6.666e-06
1090.0 7.0858e-06
1110.0 7.412e-06
1130.0 7.6448e-06
1150.0 7.8314e-06
1170.0 7.9676e-06
1190.0 8.0075e-06
1210.0 8.0165e-06
1230.0 8.0139e-06
1250.0 7.9799e-06
1270.0 7.9188e-06
1290.0 7.8791e-06
1310.0 7.8365e-06
1330.0 7.7811e-06
1350.0 7.7428e-06
1370.0 7.7337e-06
1390.0 7.7379e-06
1410.0 7.7621e-06
1430.0 7.8376e-06
1450.0 7.9557e-06
1470.0 8.1135e-06
1490.0 8.333e-06
1510.0 8.6361e-06
1530.0 8.9981e-06
1550.0 9.4415e-06
1570.0 9.9922e-06
1590.0 1.0652e-05
1610.0 1.1421e-05
1630.0 1.2343e-05
1650.0 1.343e-05
1670.0 1.4678e-05
1690.0 1.6112e-05
1710.0 1.7776e-05
1730.0 1.968e-05
1750.0 2.1809e-05
1770.0 2.4229e-05
1790.0 2.6962e-05
1810.0 2.9993e-05
1830.0 3.3342e-05
1850.0 3.7082e-05
1870.0 4.1157e-05
1890.0 4.5552e-05
1910.0 5.0307e-05
1930.0 5.542e-05
1950.0 6.0785e-05
1970.0 6.6399e-05
1990.0 7.2285e-05
2010.0 7.8325e-05
2030.0 8.4422e-05
2050.0 9.0611e-05
2070.0 9.6825e-05
2090.0 0.00010285
2110.0 0.0001087
2130.0 0.00011437
2150.0 0.00011971
2170.0 0.00012462
2190.0 0.00012919
2210.0 0.00013335
2230.0 0.00013695
2250.0 0.00014007
2270.0 0.0001428
2290.0 0.00014498
2310.0 0.00014661
2330.0 0.00014787
2350.0 0.00014875
2370.0 0.00014918
2390.0 0.00014932
2410.0 0.00014931
2430.0 0.00014906
2450.0 0.00014867
2470.0 0.00014833
2490.0 0.00014812
2510.0 0.00014799
2530.0 0.00014835
2550.0 0.00014973
2570.0 0.00015255
2590.0 0.00015739
2610.0 0.00016592
2630.0 0.00017841
2650.0 0.00019417
2670.0 0.0002137
2690.0 0.00023678
2710.0 0.00026075
2730.0 0.00028463
2750.0 0.00030971
2770.0 0.00033438
2790.0 0.000358
2810.0 0.00038218
2830.0 0.0004083
2850.0 0.00043375
2870.0 0.00045993
2890.0 0.00048811
2910.0 0.00051736
2930.0 0.00054651
2950.0 0.00057784
2970.0 0.00061108
2990.0 0.00064466
3010.0 0.00067933
3030.0 0.00071644
3050.0 0.00075473
3070.0 0.00079204
3090.0 0.00083011
3110.0 0.00086709
3130.0 0.00090017
3150.0 0.00092848
3170.0 0.00095104
3190.0 0.00096683
3210.0 0.00097813
3230.0 0.00098755
3250.0 0.00099861
3270.0 0.0010155
3290.0 0.0010403
3310.0 0.0010753
3330.0 0.0011194
3350.0 0.0011697
3370.0 0.0012253
3390.0 0.0012825
3410.0 0.0013407
3430.0 0.0014585
3450.0 0.0015456
3470.0 0.0016225
3490.0 0.0016474
3510.0 0.0016258
3530.0 0.0018422
3550.0 0.0021915
3570.0 0.0024094
3590.0 0.0025747
3610.0 0.0025963
3630.0 0.0024628
3650.0 0.0026469
3670.0 0.0031662
3690.0 0.0035578
3710.0 0.0037148
3730.0 0.0038027
3750.0 0.0040006
3770.0 0.0040097
3790.0 0.0038431
3810.0 0.0036171
3830.0 0.0033739
3850.0 0.0033644
3870.0 0.00357
3890.0 0.0037715
3910.0 0.0039276
3930.0 0.0039748
3950.0 0.0042416
3970.0 0.0045314
3990.0 0.0043654
4010.0 0.0038995
4030.0 0.0034632
4050.0 0.0033338
4070.0 0.0034706
4090.0 0.0034987
4110.0 0.0034004
4130.0 0.0033575
4150.0 0.0034465
4170.0 0.0038045
4190.0 0.0041199
4210.0 0.0039909
4230.0 0.0037252
4250.0 0.003582
4270.0 0.0035006
4290.0 0.0035628
4310.0 0.0036695
4330.0 0.0034946
4350.0 0.0030741
4370.0 0.0027213
4390.0 0.0024792
4410.0 0.0022886
4430.0 0.0022894
4450.0 0.0024903
4470.0 0.0026928
4490.0 0.0029306
4510.0 0.0033153
4530.0 0.0040557
4550.0 0.0048952
4570.0 0.0053991
4590.0 0.0057737
4610.0 0.0062081
4630.0 0.0064184
4650.0 0.0059788
4670.0 0.0050159
4690.0 0.0042634
4710.0 0.0040049
4730.0 0.0038714
4750.0 0.0034691
4770.0 0.0031478
4790.0 0.0032691
4810.0 0.0035526
4830.0 0.0035373
4850.0 0.0032609
4870.0 0.003194
4890.0 0.0033323
4910.0 0.0034861
4930.0 0.0034821
4950.0 0.0033857
4970.0 0.003225
4990.0 0.0029642
5010.0 0.0027225
5030.0 0.0025852
5050.0 0.0025217
5070.0 0.0024789
5090.0 0.0024392
5110.0 0.0024356
5130.0 0.0024731
5150.0 0.002612
5170.0 0.0028844
5190.0 0.0032153
5210.0 0.0035612
5230.0 0.0037707
5250.0 0.0038784
5270.0 0.004075
5290.0 0.0042659
5310.0 0.0043096
5330.0 0.0041463
5350.0 0.0039571
5370.0 0.0039549
5390.0 0.0041656
5410.0 0.0043689
5430.0 0.0044374
5450.0 0.0044088
5470.0 0.0042777
5490.0 0.0041173
5510.0 0.0040348
5530.0 0.0040495
5550.0 0.0041072
5570.0 0.0041446
5590.0 0.004019
5610.0 0.0037871
5630.0 0.0035599
5650.0 0.0033811
5670.0 0.0032709
5690.0 0.0031365
5710.0 0.0030333
5730.0 0.0030756
5750.0 0.0030668
5770.0 0.0030006
5790.0 0.003025
5810.0 0.0030926
5830.0 0.0031557
5850.0 0.0031768
5870.0 0.0031089
5890.0 0.0029737
5910.0 0.0028197
5930.0 0.0026021
5950.0 0.002446
5970.0 0.0024407
5990.0 0.0025156
6010.0 0.0025426
6030.0 0.0024528
6050.0 0.002416
6070.0 0.0025092
6090.0 0.0026335
6110.0 0.0026797
6130.0 0.0025882
6150.0 0.0024373
6170.0 0.0023381
6190.0 0.00224
6210.0 0.0021351
6230.0 0.0020553
6250.0 0.0020308
6270.0 0.0020833
6290.0 0.0021776
6310.0 0.0022989
6330.0 0.0024319
6350.0 0.0025423
6370.0 0.0025918
6390.0 0.002597
6410.0 0.0026242
6430.0 0.0026564
6450.0 0.0026653
6470.0 0.0026995
6490.0 0.0027408
6510.0 0.0027522
6530.0 0.0027227
6550.0 0.0026457
6570.0 0.0025485
6590.0 0.0024742
6610.0 0.0024192
6630.0 0.002371
6650.0 0.0022895
6670.0 0.0021927
6690.0 0.0021204
6710.0 0.0020755
6730.0 0.0020617
6750.0 0.0020364
6770.0 0.0019956
6790.0 0.0019646
6810.0 0.0019398
6830.0 0.0019347
6850.0 0.0019362
6870.0 0.0019212
6890.0 0.0019092
6910.0 0.0018692
6930.0 0.0018256
6950.0 0.0018154
6970.0 0.0017848
6990.0 0.0017292
7010.0 0.0017027
7030.0 0.0016813
7050.0 0.0016435
7070.0 0.0015986
7090.0 0.0015668
7110.0 0.0015832
7130.0 0.0016448
7150.0 0.0017152
7170.0 0.0017606
7190.0 0.0017474
7210.0 0.0017135
7230.0 0.0016913
7250.0 0.0016689
7270.0 0.0016544
7290.0 0.0016331
7310.0 0.0016226
7330.0 0.0016507
7350.0 0.0016831
7370.0 0.0017002
7390.0 0.0016836
7410.0 0.0016424
7430.0 0.0016225
7450.0 0.0016042
7470.0 0.0015261
7490.0 0.0014693
7510.0 0.0014078
7530.0 0.0013627
7550.0 0.0013571
7570.0 0.0013733
7590.0 0.0013654
7610.0 0.0013521
7630.0 0.0013465
7650.0 0.0013412
7670.0 0.0013669
7690.0 0.0014168
7710.0 0.0014758
7730.0 0.0015208
7750.0 0.0015648
7770.0 0.0015868
7790.0 0.001583
7810.0 0.0015592
7830.0 0.0015759
7850.0 0.0015738
7870.0 0.0015229
7890.0 0.0014683
7910.0 0.0014218
7930.0 0.0013746
7950.0 0.0013417
7970.0 0.0013368
7990.0 0.0013535
8010.0 0.0013388
8030.0 0.0013234
8050.0 0.0013009
8070.0 0.0012761
8090.0 0.0012502
8110.0 0.0012519
8130.0 0.0012616
8150.0 0.0012595
8170.0 0.0012504
8190.0 0.0012245
8210.0 0.0011626
8230.0 0.0010842
8250.0 0.0010359
8270.0 0.0010052
8290.0 0.00098589
8310.0 0.00098879
8330.0 0.0010046
8350.0 0.00098295
8370.0 0.00096015
8390.0 0.00097759
8410.0 0.0010222
8430.0 0.0010876
8450.0 0.001151
8470.0 0.0011767
8490.0 0.0011968
8510.0 0.0012024
8530.0 0.0012091
8550.0 0.0012232
8570.0 0.0012297
8590.0 0.0012357
8610.0 0.0012699
8630.0 0.0012837
8650.0 0.0012568
8670.0 0.0012562
8690.0 0.0012659
8710.0 0.0012639
8730.0 0.0012532
8750.0 0.001218
8770.0 0.0012023
8790.0 0.0011934
8810.0 0.0011791
8830.0 0.0011127
8850.0 0.001024
8870.0 0.00095905
8890.0 0.00092232
8910.0 0.00086801
8930.0 0.00080815
8950.0 0.00077775
8970.0 0.00077375
8990.0 0.00077786
9010.0 0.00077407
9030.0 0.00076862
9050.0 0.00076357
9070.0 0.0007589
9090.0 0.0007543
9110.0 0.00074973
9130.0 0.00074516
9150.0 0.00074062
9170.0 0.00073608
9190.0 0.00073155
9210.0 0.00072701
9230.0 0.00072254
9250.0 0.0007181
9270.0 0.00071365
9290.0 0.00070923
9310.0 0.00070483
9330.0 0.00070044
9350.0 0.00069607
9370.0 0.00069171
9390.0 0.00068739
9410.0 0.00068308
9430.0 0.00067876
9450.0 0.00067431
9470.0 0.00066997
9490.0 0.00066592
9510.0 0.00066177
9530.0 0.00065765
9550.0 0.0006535
9570.0 0.00064937
9590.0 0.00064527
9610.0 0.00064118
9630.0 0.0006371
9650.0 0.00063305
9670.0 0.00062904
9690.0 0.00062503
9710.0 0.00062103
9730.0 0.00061708
9750.0 0.00061314
9770.0 0.0006092
9790.0 0.00060529
9810.0 0.00060142
9830.0 0.00059747
9850.0 0.00059311
9870.0 0.0005894
9890.0 0.00058578
9910.0 0.0005821
9930.0 0.00057833
9950.0 0.0005747
9970.0 0.00057098
9990.0 0.00056718
10010.0 0.00056294
10030.0 0.00055905
10050.0 0.00055565
10070.0 0.00055221
10090.0 0.00054875
10110.0 0.00054501
10130.0 0.00054051
10150.0 0.00053709
10170.0 0.00053383
10190.0 0.00053035
10210.0 0.00052695
10230.0 0.00052354
10250.0 0.00051996
10270.0 0.0005164
10290.0 0.00051295
10310.0 0.00050939
10330.0 0.00050572
10350.0 0.00050222
10370.0 0.00049874
10390.0 0.00049514
10410.0 0.00049156
10430.0 0.00048816
10450.0 0.00048462
10470.0 0.00048102
10490.0 0.00047755
10510.0 0.0004741
10530.0 0.00047044
10550.0 0.00046687
10570.0 0.00046344
10590.0 0.0004599
10610.0 0.0004563
10630.0 0.00045284
10650.0 0.00044937
10670.0 0.00044572
10690.0 0.00044216
10710.0 0.00043869
10730.0 0.0004351
10750.0 0.00043139
10770.0 0.00042792
10790.0 0.0004244
10810.0 0.00042074
10830.0 0.00041716
10850.0 0.00041369
10870.0 0.00041
10890.0 0.00040633
10910.0 0.00040282
10930.0 0.0003993
10950.0 0.00039571
10970.0 0.00039226
10990.0 0.00038902
11010.0 0.00039674
11030.0 0.00039378
11050.0 0.00039094
11070.0 0.00038809
11090.0 0.00038505
11110.0 0.00038214
11130.0 0.00037925
11150.0 0.00037624
11170.0 0.00037323
11190.0 0.00037039
11210.0 0.00036753
11230.0 0.00036467
11250.0 0.000362
11270.0 0.00035947
11290.0 0.00035696
11310.0 0.00035458
11330.0 0.00035244
11350.0 0.00035035
11370.0 0.00034831
11390.0 0.00034641
11410.0 0.0003446
11430.0 0.00034272
11450.0 0.00034088
11470.0 0.00033908
11490.0 0.0003372
11510.0 0.0003352
11530.0 0.00033318
11550.0 0.00033108
11570.0 0.00032877
11590.0 0.00032635
11610.0 0.00032387
11630.0 0.00032116
11650.0 0.00031825
11670.0 0.00031532
11690.0 0.00031228
11710.0 0.00030905
11730.0 0.00030576
11750.0 0.00030253
11770.0 0.00029915
11790.0 0.0002957
11810.0 0.00029235
11830.0 0.00028902
11850.0 0.00028555
11870.0 0.00028221
11890.0 0.00027903
11910.0 0.00027581
11930.0 0.00027263
11950.0 0.00026964
11970.0 0.00026672
11990.0 0.00026377
12010.0 0.000261
12030.0 0.00025839
12050.0 0.00025582
12070.0 0.00025333
12090.0 0.00025109
12110.0 0.00024895
12130.0 0.0002469
12150.0 0.00024503
12170.0 0.00024336
12190.0 0.00024177
12210.0 0.00024038
12230.0 0.00023921
12250.0 0.00023821
12270.0 0.00023739
12290.0 0.00023678
12310.0 0.00023634
12330.0 0.00023607
12350.0 0.00023596
12370.0 0.00023596
12390.0 0.00023608
12410.0 0.00023631
12430.0 0.00023657
12450.0 0.00023684
12470.0 0.00023712
12490.0 0.00023736
12510.0 0.00023751
12530.0 0.00023757
12550.0 0.00023753
12570.0 0.00023732
12590.0 0.00023694
12610.0 0.00023637
12630.0 0.00023559
12650.0 0.00023463
12670.0 0.00023344
12690.0 0.00023204
12710.0 0.00023047
12730.0 0.00022875
12750.0 0.00022678
12770.0 0.00022471
12790.0 0.00022258
12810.0 0.00022032
12830.0 0.00021794
12850.0 0.0002156
12870.0 0.00021325
12890.0 0.00021082
12910.0 0.00020842
12930.0 0.00020611
12950.0 0.00020374
12970.0 0.00020135
12990.0 0.00019909
13010.0 0.00019686
13030.0 0.0001946
13050.0 0.00019241
13070.0 0.00019033
13090.0 0.00018822
13110.0 0.00018615
13130.0 0.0001842
13150.0 0.00018231
13170.0 0.00018042
13190.0 0.00017866
13210.0 0.00017702
13230.0 0.00017543
13250.0 0.00017391
13270.0 0.00017253
13290.0 0.0001712
13310.0 0.0001699
13330.0 0.00016869
13350.0 0.00016754
13370.0 0.00016639
13390.0 0.00016525
13410.0 0.00016418
13430.0 0.00016308
13450.0 0.00016196
13470.0 0.00016084
13490.0 0.00015973
13510.0 0.00015854
13530.0 0.00015734
13550.0 0.00015616
13570.0 0.00015494
13590.0 0.00015367
13610.0 0.00015243
13630.0 0.0001512
13650.0 0.00014992
13670.0 0.00014864
13690.0 0.0001474
13710.0 0.00014614
13730.0 0.00014482
13750.0 0.00014357
13770.0 0.00014233
13790.0 0.00014106
13810.0 0.00013978
13830.0 0.00013855
13850.0 0.00013728
13870.0 0.00013598
13890.0 0.00013471
13910.0 0.00013344
13930.0 0.00013212
13950.0 0.00013079
13970.0 0.00012953
13990.0 0.00012821
14010.0 0.00012687
14030.0 0.00012557
14050.0 0.00012427
14070.0 0.0001229
14090.0 0.00012157
14110.0 0.00012027
14130.0 0.00011896
14150.0 0.00011763
14170.0 0.00011639
14190.0 0.00011518
14210.0 0.00011396
14230.0 0.00011281
14250.0 0.00011173
14270.0 0.00011067
14290.0 0.00010966
14310.0 0.00010875
14330.0 0.00010789
14350.0 0.00010706
14370.0 0.00010631
14390.0 0.00010562
14410.0 0.00010495
14430.0 0.00010432
14450.0 0.00010375
14470.0 0.0001032
14490.0 0.00010265
14510.0 0.00010214
14530.0 0.00010167
14550.0 0.00010119
14570.0 0.00010073
14590.0 0.00010029
14610.0 9.9854e-05
14630.0 9.9411e-05
14650.0 9.8995e-05
14670.0 9.8601e-05
14690.0 9.8211e-05
14710.0 9.784e-05
14730.0 9.7527e-05
14750.0 9.7245e-05
14770.0 9.7007e-05
14790.0 9.6841e-05
14810.0 9.6751e-05
14830.0 9.6739e-05
14850.0 9.6829e-05
14870.0 9.7018e-05
14890.0 9.7306e-05
14910.0 9.7692e-05
14930.0 9.8139e-05
14950.0 9.8617e-05
14970.0 9.9116e-05
14990.0 9.9583e-05
15010.0 9.9982e-05
15030.0 0.00010032
15050.0 0.00010057
15070.0 0.00010076
15090.0 0.00010089
15110.0 0.00010098
15130.0 0.00010105
15150.0 0.00010112
15170.0 0.00010117
15190.0 0.00010123
15210.0 0.00010129
15230.0 0.00010135
15250.0 0.00010142
15270.0 0.00010148
15290.0 0.00010156
15310.0 0.00010163
15330.0 0.00010171
15350.0 0.00010179
15370.0 0.00010188
15390.0 0.00010196
15410.0 0.00010205
15430.0 0.00010215
15450.0 0.00010224
15470.0 0.00010234
15490.0 0.00010244
15510.0 0.00010255
15530.0 0.00010266
15550.0 0.00010277
15570.0 0.00010288
15590.0 0.000103
15610.0 0.00010311
15630.0 0.00010324
15650.0 0.00010336
15670.0 0.00010349
15690.0 0.00010362
15710.0 0.00010375
15730.0 0.00010388
15750.0 0.00010402
15770.0 0.00010416
15790.0 0.0001043
15810.0 0.00010444
15830.0 0.00010458
15850.0 0.00010473
15870.0 0.00010488
15890.0 0.00010503
15910.0 0.00010519
15930.0 0.00010534
15950.0 0.0001055
15970.0 0.00010565
15990.0 0.00010582
16010.0 0.00010598
16030.0 0.00010614
16050.0 0.0001063
16070.0 0.00010647
16090.0 0.00010664
16110.0 0.00010681
16130.0 0.00010698
16150.0 0.00010715
16170.0 0.00010732
16190.0 0.00010749
16210.0 0.00010767
16230.0 0.00010784
16250.0 0.00010802
16270.0 0.0001082
16290.0 0.00010837
16310.0 0.00010855
16330.0 0.00010873
16350.0 0.00010891
16370.0 0.00010908
16390.0 0.00010927
16410.0 0.00010945
16430.0 0.00010963
16450.0 0.00010981
16470.0 0.00010999
16490.0 0.00011017
16510.0 0.00011035
16530.0 0.00011053
16550.0 0.00011071
16570.0 0.00011089
16590.0 0.00011107
16610.0 0.00011125
16630.0 0.00011143
16650.0 0.00011161
16670.0 0.00011179
16690.0 0.00011196
16710.0 0.00011214
16730.0 0.00011231
16750.0 0.00011249
16770.0 0.00011266
16790.0 0.00011283
16810.0 0.000113
16830.0 0.00011317
16850.0 0.00011334
16870.0 0.0001135
16890.0 0.00011367
16910.0 0.00011383
16930.0 0.00011399
16950.0 0.00011415
16970.0 0.00011431
16990.0 0.00011446
17010.0 0.00011462
17030.0 0.00011477
17050.0 0.00011492
17070.0 0.00011507
17090.0 0.00011521
17110.0 0.00011536
17130.0 0.00011549
17150.0 0.00011563
17170.0 0.00011577
17190.0 0.0001159
17210.0 0.00011602
17230.0 0.00011615
17250.0 0.00011628
17270.0 0.00011639
17290.0 0.00011651
17310.0 0.00011663
17330.0 0.00011674
17350.0 0.00011684
17370.0 0.00011695
17390.0 0.00011705
17410.0 0.00011714
17430.0 0.00011724
17450.0 0.00011733
17470.0 0.00011741
17490.0 0.00011749
17510.0 0.00011757
17530.0 0.00011764
17550.0 0.00011771
17570.0 0.00011778
17590.0 0.00011784
17610.0 0.00011789
17630.0 0.00011795
17650.0 0.000118
17670.0 0.00011804
17690.0 0.00011807
17710.0 0.00011811
17730.0 0.00011814
17750.0 0.00011816
17770.0 0.00011818
17790.0 0.0001182
17810.0 0.00011821
17830.0 0.00011822
17850.0 0.00011822
17870.0 0.00011822
17890.0 0.0001182
17910.0 0.00011819
17930.0 0.00011817
17950.0 0.00011815
17970.0 0.00011811
17990.0 0.00011808
18010.0 0.00011804
18030.0 0.00011799
18050.0 0.00011794
18070.0 0.00011789
18090.0 0.00011782
18110.0 0.00011775
18130.0 0.00011768
18150.0 0.0001176
18170.0 0.00011752
18190.0 0.00011743
18210.0 0.00011733
18230.0 0.00011723
18250.0 0.00011712
18270.0 0.00011701
18290.0 0.00011689
18310.0 0.00011676
18330.0 0.00011663
18350.0 0.0001165
18370.0 0.00011636
18390.0 0.00011621
18410.0 0.00011606
18430.0 0.0001159
18450.0 0.00011573
18470.0 0.00011556
18490.0 0.00011539
18510.0 0.0001152
18530.0 0.00011501
18550.0 0.00011482
18570.0 0.00011462
18590.0 0.00011441
18610.0 0.0001142
18630.0 0.00011399
18650.0 0.00011377
18670.0 0.00011353
18690.0 0.00011331
18710.0 0.00011307
18730.0 0.00011282
18750.0 0.00011257
18770.0 0.00011232
18790.0 0.00011205
18810.0 0.00011178
18830.0 0.00011151
18850.0 0.00011123
18870.0 0.00011094
18890.0 0.00011066
18910.0 0.00011037
18930.0 0.00011006
18950.0 0.00010976
18970.0 0.00010945
18990.0 0.00010913
19010.0 0.00010881
19030.0 0.00010848
19050.0 0.00010816
19070.0 0.00010782
19090.0 0.00010747
19110.0 0.00010713
19130.0 0.00010678
19150.0 0.00010642
19170.0 0.00010606
19190.0 0.0001057
19210.0 0.00010533
19230.0 0.00010495
19250.0 0.00010458
19270.0 0.00010419
19290.0 0.0001038
19310.0 0.00010341
19330.0 0.00010302
19350.0 0.00010261
19370.0 0.00010221
19390.0 0.0001018
19410.0 0.00010139
19430.0 0.00010097
19450.0 0.00010055
19470.0 0.00010013
19490.0 9.9695e-05
19510.0 9.9264e-05
19530.0 9.8832e-05
19550.0 9.8389e-05
19570.0 9.7943e-05
19590.0 9.7501e-05
19610.0 9.7053e-05
19630.0 9.6597e-05
19650.0 9.6143e-05
19670.0 9.5688e-05
19690.0 9.5224e-05
19710.0 9.4757e-05
19730.0 9.4293e-05
19750.0 9.3823e-05
19770.0 9.3345e-05
19790.0 9.2871e-05
19810.0 9.2396e-05
19830.0 9.1912e-05
19850.0 9.1424e-05
19870.0 9.0934e-05
19890.0 9.0425e-05
19910.0 8.9887e-05
19930.0 8.9318e-05
19950.0 8.8697e-05
19970.0 8.7987e-05
19990.0 8.718e-05
20010.0 8.629e-05
20030.0 8.5274e-05
20050.0 8.4136e-05
20070.0 8.2935e-05
20090.0 8.1674e-05
20110.0 8.0307e-05
20130.0 7.8943e-05
20150.0 7.7602e-05
20170.0 7.6239e-05
20190.0 7.4872e-05
20210.0 7.3569e-05
20230.0 7.2292e-05
20250.0 7.101e-05
20270.0 6.9789e-05
20290.0 6.8631e-05
20310.0 6.7495e-05
20330.0 6.6384e-05
20350.0 6.5375e-05
20370.0 6.4407e-05
20390.0 6.3472e-05
20410.0 6.2602e-05
20430.0 6.1799e-05
20450.0 6.102e-05
20470.0 6.0295e-05
20490.0 5.9631e-05
20510.0 5.9009e-05
20530.0 5.8421e-05
20550.0 5.7881e-05
20570.0 5.7384e-05
20590.0 5.6914e-05
20610.0 5.6476e-05
20630.0 5.6068e-05
20650.0 5.5683e-05
20670.0 5.5316e-05
20690.0 5.4967e-05
20710.0 5.4631e-05
20730.0 5.4302e-05
20750.0 5.3977e-05
20770.0 5.3653e-05
20790.0 5.3324e-05
20810.0 5.2986e-05
20830.0 5.2638e-05
20850.0 5.2276e-05
20870.0 5.1894e-05
20890.0 5.1491e-05
20910.0 5.1072e-05
20930.0 5.0628e-05
20950.0 5.0157e-05
20970.0 4.9667e-05
20990.0 4.9159e-05
21010.0 4.8618e-05
21030.0 4.8059e-05
21050.0 4.749e-05
21070.0 4.69e-05
21090.0 4.6284e-05
21110.0 4.5672e-05
21130.0 4.5056e-05
21150.0 4.4421e-05
21170.0 4.3786e-05
21190.0 4.3163e-05
21210.0 4.253e-05
21230.0 4.1894e-05
21250.0 4.1279e-05
21270.0 4.0674e-05
21290.0 4.0069e-05
21310.0 3.9478e-05
21330.0 3.8916e-05
21350.0 3.8356e-05
21370.0 3.7807e-05
21390.0 3.7282e-05
21410.0 3.6773e-05
21430.0 3.6264e-05
21450.0 3.5778e-05
21470.0 3.5312e-05
21490.0 3.4853e-05
21510.0 3.4402e-05
21530.0 3.3971e-05
21550.0 3.3549e-05
21570.0 3.3128e-05
21590.0 3.272e-05
21610.0 3.2324e-05
21630.0 3.193e-05
21650.0 3.1537e-05
21670.0 3.1161e-05
21690.0 3.0788e-05
21710.0 3.0414e-05
21730.0 3.0048e-05
21750.0 2.969e-05
21770.0 2.9327e-05
21790.0 2.8968e-05
21810.0 2.8616e-05
21830.0 2.8265e-05
21850.0 2.7909e-05
21870.0 2.7558e-05
21890.0 2.7213e-05
21910.0 2.6861e-05
21930.0 2.6509e-05
21950.0 2.6162e-05
21970.0 2.5812e-05
21990.0 2.5454e-05
22010.0 2.5104e-05
22030.0 2.4757e-05
22050.0 2.4404e-05
22070.0 2.4053e-05
22090.0 2.3711e-05
22110.0 2.3367e-05
22130.0 2.3022e-05
22150.0 2.2686e-05
22170.0 2.2356e-05
22190.0 2.2024e-05
22210.0 2.1697e-05
22230.0 2.1385e-05
22250.0 2.1074e-05
22270.0 2.0766e-05
22290.0 2.0469e-05
22310.0 2.018e-05
22330.0 1.9889e-05
22350.0 1.9606e-05
22370.0 1.9332e-05
22390.0 1.9059e-05
22410.0 1.8786e-05
22430.0 1.8523e-05
22450.0 1.8264e-05
22470.0 1.8002e-05
22490.0 1.7744e-05
22510.0 1.7491e-05
22530.0 1.7235e-05
22550.0 1.6977e-05
22570.0 1.6726e-05
22590.0 1.6476e-05
22610.0 1.6223e-05
22630.0 1.5973e-05
22650.0 1.5731e-05
22670.0 1.5486e-05
22690.0 1.5244e-05
22710.0 1.5009e-05
22730.0 1.4779e-05
22750.0 1.4547e-05
22770.0 1.4326e-05
22790.0 1.4114e-05
22810.0 1.3906e-05
22830.0 1.3705e-05
22850.0 1.3517e-05
22870.0 1.3337e-05
22890.0 1.3163e-05
