#lamb flux
1010.0 1.0139e-08
1030.0 1.1214e-08
1050.0 1.245e-08
1070.0 1.3842e-08
1090.0 1.5423e-08
1110.0 1.7044e-08
1130.0 1.8676e-08
1150.0 2.0385e-08
1170.0 2.2149e-08
1190.0 2.382e-08
1210.0 2.5515e-08
1230.0 2.7266e-08
1250.0 2.8982e-08
1270.0 3.0648e-08
1290.0 3.2408e-08
1310.0 3.4167e-08
1330.0 3.5854e-08
1350.0 3.7561e-08
1370.0 3.9322e-08
1390.0 4.1039e-08
1410.0 4.2706e-08
1430.0 4.4448e-08
1450.0 4.619e-08
1470.0 4.7874e-08
1490.0 4.9576e-08
1510.0 5.1374e-08
1530.0 5.3078e-08
1550.0 5.4759e-08
1570.0 5.6498e-08
1590.0 5.824e-08
1610.0 5.9905e-08
1630.0 6.1621e-08
1650.0 6.3384e-08
1670.0 6.509e-08
1690.0 6.6775e-08
1710.0 6.8526e-08
1730.0 7.0288e-08
1750.0 7.1947e-08
1770.0 7.3656e-08
1790.0 7.5402e-08
1810.0 7.7094e-08
1830.0 7.876e-08
1850.0 8.0529e-08
1870.0 8.2256e-08
1890.0 8.3928e-08
1910.0 8.5636e-08
1930.0 8.7389e-08
1950.0 8.9066e-08
1970.0 9.0727e-08
1990.0 9.2454e-08
2010.0 9.4157e-08
2030.0 9.5802e-08
2050.0 9.7502e-08
2070.0 9.9249e-08
2090.0 1.009e-07
2110.0 1.0255e-07
2130.0 1.0425e-07
2150.0 1.0593e-07
2170.0 1.0753e-07
2190.0 1.092e-07
2210.0 1.1088e-07
2230.0 1.125e-07
2250.0 1.1411e-07
2270.0 1.1579e-07
2290.0 1.1743e-07
2310.0 1.19e-07
2330.0 1.2064e-07
2350.0 1.2232e-07
2370.0 1.2399e-07
2390.0 1.258e-07
2410.0 1.2795e-07
2430.0 1.3042e-07
2450.0 1.3337e-07
2470.0 1.3715e-07
2490.0 1.4192e-07
2510.0 1.4734e-07
2530.0 1.5386e-07
2550.0 1.6202e-07
2570.0 1.7218e-07
2590.0 1.8539e-07
2610.0 2.0516e-07
2630.0 2.334e-07
2650.0 2.7032e-07
2670.0 3.1806e-07
2690.0 3.7672e-07
2710.0 4.3934e-07
2730.0 5.0121e-07
2750.0 5.6215e-07
2770.0 6.1516e-07
2790.0 6.5726e-07
2810.0 6.9066e-07
2830.0 7.1676e-07
2850.0 7.3458e-07
2870.0 7.4766e-07
2890.0 7.5801e-07
2910.0 7.6627e-07
2930.0 7.7302e-07
2950.0 7.7947e-07
2970.0 7.8577e-07
2990.0 7.9168e-07
3010.0 2.2377e-05
3030.0 2.2545e-05
3050.0 2.2706e-05
3070.0 2.2845e-05
3090.0 2.2964e-05
3110.0 2.3038e-05
3130.0 2.3035e-05
3150.0 2.2932e-05
3170.0 2.2687e-05
3190.0 2.2301e-05
3210.0 2.1812e-05
3230.0 2.1252e-05
3250.0 2.0699e-05
3270.0 2.0296e-05
3290.0 2.0071e-05
3310.0 2.0108e-05
3330.0 2.0399e-05
3350.0 2.0905e-05
3370.0 2.1629e-05
3390.0 2.2541e-05
3410.0 2.3533e-05
3430.0 2.4647e-05
3450.0 2.593e-05
3470.0 2.7331e-05
3490.0 2.8815e-05
3510.0 3.0493e-05
3530.0 3.229e-05
3550.0 3.4109e-05
3570.0 3.6006e-05
3590.0 3.807e-05
3610.0 4.0196e-05
3630.0 4.2316e-05
3650.0 4.4516e-05
3670.0 4.6524e-05
3690.0 4.8024e-05
3710.0 4.8885e-05
3730.0 4.8913e-05
3750.0 4.8233e-05
3770.0 4.7965e-05
3790.0 4.768e-05
3810.0 4.6508e-05
3830.0 4.7948e-05
3850.0 5.3611e-05
3870.0 5.672e-05
3890.0 5.6461e-05
3910.0 5.6702e-05
3930.0 5.8195e-05
3950.0 5.9114e-05
3970.0 5.3858e-05
3990.0 4.6342e-05
4010.0 0.00013889
4030.0 0.00016829
4050.0 0.00019293
4070.0 0.0001674
4090.0 0.00015162
4110.0 0.00013379
4130.0 0.00012314
4150.0 0.00013098
4170.0 0.00012902
4190.0 0.00013753
4210.0 0.00013627
4230.0 0.00014414
4250.0 0.00017052
4270.0 0.00017252
4290.0 0.00015898
4310.0 0.00016519
4330.0 0.00017571
4350.0 0.00019702
4370.0 0.00022421
4390.0 0.00021039
4410.0 0.00015545
4430.0 0.00013159
4450.0 0.00012092
4470.0 9.281e-05
4490.0 0.00010015
4510.0 0.00015128
4530.0 0.00017448
4550.0 0.00017599
4570.0 0.00019803
4590.0 0.00022558
4610.0 0.00030425
4630.0 0.00039516
4650.0 0.00042854
4670.0 0.00039687
4690.0 0.00037869
4710.0 0.0004003
4730.0 0.00037777
4750.0 0.00028243
4770.0 0.00020717
4790.0 0.00019346
4810.0 0.0001844
4830.0 0.00016881
4850.0 0.00018524
4870.0 0.00024473
4890.0 0.0002886
4910.0 0.00025321
4930.0 0.00022406
4950.0 0.00024616
4970.0 0.00031568
4990.0 0.00042783
5010.0 0.00049216
5030.0 0.00043397
5050.0 0.00029361
5070.0 0.0001935
5090.0 0.00015603
5110.0 0.00016046
5130.0 0.0001852
5150.0 0.00020065
5170.0 0.00019764
5190.0 0.00018468
5210.0 0.00019303
5230.0 0.00020292
5250.0 0.00021869
5270.0 0.00023595
5290.0 0.00026149
5310.0 0.00030436
5330.0 0.00033682
5350.0 0.00033467
5370.0 0.00035154
5390.0 0.0004034
5410.0 0.00040304
5430.0 0.00035643
5450.0 0.00032748
5470.0 0.00034772
5490.0 0.00042482
5510.0 0.00053118
5530.0 0.00060923
5550.0 0.00058883
5570.0 0.00053529
5590.0 0.00046545
5610.0 0.00042925
5630.0 0.00041624
5650.0 0.00039643
5670.0 0.00037565
5690.0 0.00033583
5710.0 0.00032744
5730.0 0.00030162
5750.0 0.00021266
5770.0 0.00016591
5790.0 0.00018801
5810.0 0.0002123
5830.0 0.00026052
5850.0 0.00031013
5870.0 0.00034409
5890.0 0.00034992
5910.0 0.0003433
5930.0 0.00032678
5950.0 0.00033298
5970.0 0.00037957
5990.0 0.00035689
6010.0 0.00029918
6030.0 0.00025277
6050.0 0.00022013
6070.0 0.00021892
6090.0 0.00023739
6110.0 0.00026544
6130.0 0.0002695
6150.0 0.00023188
6170.0 0.00020399
6190.0 0.00022956
6210.0 0.00030347
6230.0 0.00039824
6250.0 0.00043135
6270.0 0.00037694
6290.0 0.00031714
6310.0 0.00024758
6330.0 0.0001897
6350.0 0.0001692
6370.0 0.00017793
6390.0 0.0002057
6410.0 0.00025364
6430.0 0.00029618
6450.0 0.00033891
6470.0 0.00038806
6490.0 0.00046875
6510.0 0.00052412
6530.0 0.0005142
6550.0 0.00046497
6570.0 0.00039472
6590.0 0.00035593
6610.0 0.0003069
6630.0 0.00027804
6650.0 0.00026283
6670.0 0.00025533
6690.0 0.00023071
6710.0 0.00020972
6730.0 0.00015106
6750.0 0.00014976
6770.0 0.00016277
6790.0 0.0001871
6810.0 0.0001712
6830.0 0.00017629
6850.0 0.00016488
6870.0 0.00015062
6890.0 0.00014462
6910.0 0.00015411
6930.0 0.00014435
6950.0 0.00014851
6970.0 0.0001562
6990.0 0.0001773
7010.0 0.00017881
7030.0 0.00018165
7050.0 0.00017324
7070.0 0.00016506
7090.0 0.00016555
7110.0 0.00017034
7130.0 0.00018331
7150.0 0.00019469
7170.0 0.00021482
7190.0 0.00023615
7210.0 0.00023205
7230.0 0.00023855
7250.0 0.00025636
7270.0 0.00027937
7290.0 0.00033158
7310.0 0.0003598
7330.0 0.00034778
7350.0 0.00031454
7370.0 0.00027368
7390.0 0.0002655
7410.0 0.00028215
7430.0 0.00031357
7450.0 0.00034154
7470.0 0.0003384
7490.0 0.00030856
7510.0 0.00034952
7530.0 0.00034569
7550.0 0.00031072
7570.0 0.00024273
7590.0 0.00016687
7610.0 0.00014322
7630.0 0.00016273
7650.0 0.0001924
7670.0 0.00023946
7690.0 0.0002635
7710.0 0.0002746
7730.0 0.00028857
7750.0 0.00032396
7770.0 0.00032905
7790.0 0.00030225
7810.0 0.00027578
7830.0 0.00028439
7850.0 0.00027646
7870.0 0.00025346
7890.0 0.00021296
7910.0 0.00017311
7930.0 0.00016529
7950.0 0.00015058
7970.0 0.00013939
7990.0 0.0001386
8010.0 1.0265e-05
8030.0 1.0131e-05
8050.0 9.9948e-06
8070.0 1.0126e-05
8090.0 1.088e-05
8110.0 1.0694e-05
8130.0 8.8216e-06
8150.0 8.5912e-06
8170.0 7.4001e-06
8190.0 7.0131e-06
8210.0 9.1072e-06
8230.0 1.014e-05
8250.0 9.1388e-06
8270.0 7.9541e-06
8290.0 7.7538e-06
8310.0 5.9676e-06
8330.0 4.0222e-06
8350.0 2.8545e-06
8370.0 1.7985e-06
8390.0 3.2875e-06
8410.0 3.8309e-06
8430.0 4.7221e-06
8450.0 5.5451e-06
8470.0 6.8921e-06
8490.0 6.8436e-06
8510.0 6.7317e-06
8530.0 7.0254e-06
8550.0 9.4787e-06
8570.0 1.1221e-05
8590.0 1.2108e-05
8610.0 1.5295e-05
8630.0 1.8425e-05
8650.0 1.9274e-05
8670.0 2.0483e-05
8690.0 2.0597e-05
8710.0 1.8654e-05
8730.0 1.7351e-05
8750.0 1.5315e-05
8770.0 1.4532e-05
8790.0 1.4277e-05
8810.0 1.368e-05
8830.0 1.094e-05
8850.0 8.0086e-06
8870.0 6.1321e-06
8890.0 5.9951e-06
8910.0 6.8704e-06
8930.0 7.8147e-06
8950.0 7.9643e-06
8970.0 8.0019e-06
8990.0 7.1368e-06
9010.0 7.479e-05
9030.0 6.7769e-05
9050.0 6.8096e-05
9070.0 6.8633e-05
9090.0 6.9105e-05
9110.0 6.9687e-05
9130.0 7.0136e-05
9150.0 7.0485e-05
9170.0 7.0858e-05
9190.0 7.1255e-05
9210.0 7.1674e-05
9230.0 7.2115e-05
9250.0 7.2564e-05
9270.0 7.3029e-05
9290.0 7.3509e-05
9310.0 7.3992e-05
9330.0 7.4484e-05
9350.0 7.4995e-05
9370.0 7.5511e-05
9390.0 7.6033e-05
9410.0 7.6569e-05
9430.0 7.7122e-05
9450.0 7.7673e-05
9470.0 7.8235e-05
9490.0 7.8814e-05
9510.0 7.9399e-05
9530.0 7.9987e-05
9550.0 8.0596e-05
9570.0 8.1215e-05
9590.0 8.1836e-05
9610.0 8.2468e-05
9630.0 8.3116e-05
9650.0 8.3771e-05
9670.0 8.4426e-05
9690.0 8.5099e-05
9710.0 8.5782e-05
9730.0 8.6467e-05
9750.0 8.7162e-05
9770.0 8.7877e-05
9790.0 8.8591e-05
9810.0 8.931e-05
9830.0 9.0043e-05
9850.0 9.0786e-05
9870.0 9.1526e-05
9890.0 9.2277e-05
9910.0 9.3043e-05
9930.0 9.381e-05
9950.0 9.4579e-05
9970.0 9.5364e-05
9990.0 9.6156e-05
10010.0 8.3438e-05
10030.0 8.4123e-05
10050.0 8.4822e-05
10070.0 8.5545e-05
10090.0 8.6226e-05
10110.0 8.6924e-05
10130.0 8.7626e-05
10150.0 8.8324e-05
10170.0 8.9031e-05
10190.0 8.9751e-05
10210.0 9.0462e-05
10230.0 9.1171e-05
10250.0 9.1891e-05
10270.0 9.2611e-05
10290.0 9.3322e-05
10310.0 9.4041e-05
10330.0 9.4768e-05
10350.0 9.5483e-05
10370.0 9.6195e-05
10390.0 9.6916e-05
10410.0 9.7633e-05
10430.0 9.8336e-05
10450.0 9.9046e-05
10470.0 9.9758e-05
10490.0 0.00010046
10510.0 0.00010115
10530.0 0.00010186
10550.0 0.00010255
10570.0 0.00010323
10590.0 0.00010392
10610.0 0.0001046
10630.0 0.00010527
10650.0 0.00010593
10670.0 0.0001066
10690.0 0.00010725
10710.0 0.00010789
10730.0 0.00010853
10750.0 0.00010918
10770.0 0.00010979
10790.0 0.00011041
10810.0 0.00011102
10830.0 0.00011161
10850.0 0.00011217
10870.0 0.00011272
10890.0 0.0001132
10910.0 0.00011357
10930.0 0.00011377
10950.0 0.00011373
10970.0 0.00011334
10990.0 0.00011258
11010.0 0.00011132
11030.0 0.00010955
11050.0 0.00010739
11070.0 0.00010481
11090.0 0.00010171
11110.0 9.8501e-05
11130.0 9.5156e-05
11150.0 9.1553e-05
11170.0 8.784e-05
11190.0 8.4238e-05
11210.0 8.0518e-05
11230.0 7.6703e-05
11250.0 7.3059e-05
11270.0 6.9558e-05
11290.0 6.6052e-05
11310.0 6.273e-05
11330.0 5.9804e-05
11350.0 5.7041e-05
11370.0 5.4487e-05
11390.0 5.2278e-05
11410.0 5.0345e-05
11430.0 4.8549e-05
11450.0 4.7001e-05
11470.0 4.5663e-05
11490.0 4.4418e-05
11510.0 4.3218e-05
11530.0 4.2105e-05
11550.0 4.0999e-05
11570.0 3.9819e-05
11590.0 3.8597e-05
11610.0 3.7354e-05
11630.0 3.6e-05
11650.0 3.4551e-05
11670.0 3.3123e-05
11690.0 3.1674e-05
11710.0 3.018e-05
11730.0 2.8732e-05
11750.0 2.7392e-05
11770.0 2.6078e-05
11790.0 2.4847e-05
11810.0 2.3763e-05
11830.0 2.2793e-05
11850.0 2.19e-05
11870.0 2.1153e-05
11890.0 2.0532e-05
11910.0 1.9986e-05
11930.0 1.9517e-05
11950.0 1.9127e-05
11970.0 1.8778e-05
11990.0 1.8448e-05
12010.0 1.8143e-05
12030.0 1.7849e-05
12050.0 1.7545e-05
12070.0 1.7228e-05
12090.0 1.6924e-05
12110.0 1.6614e-05
12130.0 1.6304e-05
12150.0 1.6018e-05
12170.0 1.5769e-05
12190.0 1.5553e-05
12210.0 1.5402e-05
12230.0 1.5329e-05
12250.0 1.5341e-05
12270.0 1.5457e-05
12290.0 1.5676e-05
12310.0 1.5989e-05
12330.0 1.6428e-05
12350.0 1.6976e-05
12370.0 1.7599e-05
12390.0 1.8318e-05
12410.0 1.9161e-05
12430.0 2.0017e-05
12450.0 2.0904e-05
12470.0 2.1847e-05
12490.0 2.2794e-05
12510.0 2.3682e-05
12530.0 2.4566e-05
12550.0 2.5419e-05
12570.0 2.6171e-05
12590.0 2.6832e-05
12610.0 2.7421e-05
12630.0 2.789e-05
12650.0 2.8214e-05
12670.0 2.8427e-05
12690.0 2.8512e-05
12710.0 2.8465e-05
12730.0 2.83e-05
12750.0 2.8006e-05
12770.0 2.7602e-05
12790.0 2.7112e-05
12810.0 2.6527e-05
12830.0 2.585e-05
12850.0 2.5142e-05
12870.0 2.4394e-05
12890.0 2.3584e-05
12910.0 2.2761e-05
12930.0 2.195e-05
12950.0 2.1103e-05
12970.0 2.0241e-05
12990.0 1.9426e-05
13010.0 1.8621e-05
13030.0 1.7806e-05
13050.0 1.7024e-05
13070.0 1.6292e-05
13090.0 1.5557e-05
13110.0 1.4845e-05
13130.0 1.419e-05
13150.0 1.3569e-05
13170.0 1.2961e-05
13190.0 1.242e-05
13210.0 1.1944e-05
13230.0 1.1508e-05
13250.0 1.1133e-05
13270.0 1.0838e-05
13290.0 1.0608e-05
13310.0 1.0449e-05
13330.0 1.0377e-05
13350.0 1.0386e-05
13370.0 1.0479e-05
13390.0 1.0662e-05
13410.0 1.0909e-05
13430.0 1.1231e-05
13450.0 1.1628e-05
13470.0 1.2069e-05
13490.0 1.2535e-05
13510.0 1.3062e-05
13530.0 1.3596e-05
13550.0 1.4107e-05
13570.0 1.4611e-05
13590.0 1.5102e-05
13610.0 1.5538e-05
13630.0 1.592e-05
13650.0 1.6268e-05
13670.0 1.6557e-05
13690.0 1.678e-05
13710.0 1.6953e-05
13730.0 1.7077e-05
13750.0 1.7138e-05
13770.0 1.7152e-05
13790.0 1.7121e-05
13810.0 1.7045e-05
13830.0 1.6934e-05
13850.0 1.6783e-05
13870.0 1.6592e-05
13890.0 1.6374e-05
13910.0 1.6128e-05
13930.0 1.5843e-05
13950.0 1.5532e-05
13970.0 1.5214e-05
13990.0 1.4868e-05
14010.0 1.45e-05
14030.0 1.4133e-05
14050.0 1.3763e-05
14070.0 1.3373e-05
14090.0 1.2998e-05
14110.0 1.2647e-05
14130.0 1.2306e-05
14150.0 1.1985e-05
14170.0 1.1711e-05
14190.0 1.1474e-05
14210.0 1.1273e-05
14230.0 1.1124e-05
14250.0 1.1028e-05
14270.0 1.0982e-05
14290.0 1.0992e-05
14310.0 1.1053e-05
14330.0 1.1163e-05
14350.0 1.1325e-05
14370.0 1.1527e-05
14390.0 1.1756e-05
14410.0 1.2025e-05
14430.0 1.2322e-05
14450.0 1.2624e-05
14470.0 1.2938e-05
14490.0 1.3272e-05
14510.0 1.3591e-05
14530.0 1.3894e-05
14550.0 1.4198e-05
14570.0 1.4489e-05
14590.0 1.4753e-05
14610.0 1.501e-05
14630.0 1.5263e-05
14650.0 1.5499e-05
14670.0 1.5727e-05
14690.0 1.5965e-05
14710.0 1.6215e-05
14730.0 1.6465e-05
14750.0 1.6742e-05
14770.0 1.7056e-05
14790.0 1.7396e-05
14810.0 1.7765e-05
14830.0 1.8202e-05
14850.0 1.8678e-05
14870.0 1.9173e-05
14890.0 1.9708e-05
14910.0 2.0276e-05
14930.0 2.0822e-05
14950.0 2.1333e-05
14970.0 2.1816e-05
14990.0 2.2221e-05
15010.0 2.2531e-05
15030.0 2.276e-05
15050.0 2.2912e-05
15070.0 2.2986e-05
15090.0 2.3012e-05
15110.0 2.3005e-05
15130.0 2.2976e-05
15150.0 2.2937e-05
15170.0 2.2891e-05
15190.0 2.2842e-05
15210.0 2.2793e-05
15230.0 2.2745e-05
15250.0 2.2694e-05
15270.0 2.2645e-05
15290.0 2.2598e-05
15310.0 2.255e-05
15330.0 2.2501e-05
15350.0 2.2454e-05
15370.0 2.2407e-05
15390.0 2.2358e-05
15410.0 2.2311e-05
15430.0 2.2265e-05
15450.0 2.2219e-05
15470.0 2.2171e-05
15490.0 2.2126e-05
15510.0 2.2081e-05
15530.0 2.2034e-05
15550.0 2.1988e-05
15570.0 2.1944e-05
15590.0 2.1898e-05
15610.0 2.1852e-05
15630.0 2.1808e-05
15650.0 2.1764e-05
15670.0 2.1718e-05
15690.0 2.1674e-05
15710.0 2.1631e-05
15730.0 2.1586e-05
15750.0 2.1541e-05
15770.0 2.1498e-05
15790.0 2.1455e-05
15810.0 2.1409e-05
15830.0 2.1366e-05
15850.0 2.1324e-05
15870.0 2.128e-05
15890.0 2.1236e-05
15910.0 2.1194e-05
15930.0 2.1151e-05
15950.0 2.1106e-05
15970.0 2.1063e-05
15990.0 2.1021e-05
16010.0 2.0978e-05
16030.0 2.0933e-05
16050.0 2.0892e-05
16070.0 2.0849e-05
16090.0 2.0806e-05
16110.0 2.0763e-05
16130.0 2.0722e-05
16150.0 2.0678e-05
16170.0 2.0634e-05
16190.0 2.0592e-05
16210.0 2.055e-05
16230.0 2.0506e-05
16250.0 2.0464e-05
16270.0 2.0422e-05
16290.0 2.0378e-05
16310.0 2.0335e-05
16330.0 2.0294e-05
16350.0 2.0251e-05
16370.0 2.0206e-05
16390.0 2.0164e-05
16410.0 2.0122e-05
16430.0 2.0078e-05
16450.0 2.0034e-05
16470.0 1.9993e-05
16490.0 1.9949e-05
16510.0 1.9905e-05
16530.0 1.9862e-05
16550.0 1.982e-05
16570.0 1.9775e-05
16590.0 1.9731e-05
16610.0 1.9689e-05
16630.0 1.9645e-05
16650.0 1.9601e-05
16670.0 1.9558e-05
16690.0 1.9515e-05
16710.0 1.9469e-05
16730.0 1.9425e-05
16750.0 1.9382e-05
16770.0 1.9337e-05
16790.0 1.9292e-05
16810.0 1.9248e-05
16830.0 1.9205e-05
16850.0 1.9159e-05
16870.0 1.9114e-05
16890.0 1.9071e-05
16910.0 1.9025e-05
16930.0 1.8979e-05
16950.0 1.8935e-05
16970.0 1.889e-05
16990.0 1.8844e-05
17010.0 1.8798e-05
17030.0 1.8754e-05
17050.0 1.8708e-05
17070.0 1.8661e-05
17090.0 1.8616e-05
17110.0 1.8571e-05
17130.0 1.8523e-05
17150.0 1.8476e-05
17170.0 1.8431e-05
17190.0 1.8384e-05
17210.0 1.8337e-05
17230.0 1.8292e-05
17250.0 1.8245e-05
17270.0 1.8197e-05
17290.0 1.815e-05
17310.0 1.8104e-05
17330.0 1.8055e-05
17350.0 1.8007e-05
17370.0 1.7961e-05
17390.0 1.7913e-05
17410.0 1.7865e-05
17430.0 1.7817e-05
17450.0 1.7771e-05
17470.0 1.772e-05
17490.0 1.7672e-05
17510.0 1.7624e-05
17530.0 1.7576e-05
17550.0 1.7526e-05
17570.0 1.7478e-05
17590.0 1.743e-05
17610.0 1.738e-05
17630.0 1.7331e-05
17650.0 1.7283e-05
17670.0 1.7233e-05
17690.0 1.7182e-05
17710.0 1.7133e-05
17730.0 1.7084e-05
17750.0 1.7034e-05
17770.0 1.6984e-05
17790.0 1.6936e-05
17810.0 1.6885e-05
17830.0 1.6834e-05
17850.0 1.6784e-05
17870.0 1.6734e-05
17890.0 1.6682e-05
17910.0 1.6631e-05
17930.0 1.6582e-05
17950.0 1.6531e-05
17970.0 1.648e-05
17990.0 1.643e-05
18010.0 1.6379e-05
18030.0 1.6326e-05
18050.0 1.6275e-05
18070.0 1.6225e-05
18090.0 1.6173e-05
18110.0 1.612e-05
18130.0 1.607e-05
18150.0 1.6019e-05
18170.0 1.5966e-05
18190.0 1.5915e-05
18210.0 1.5864e-05
18230.0 1.5811e-05
18250.0 1.5758e-05
18270.0 1.5707e-05
18290.0 1.5655e-05
18310.0 1.5602e-05
18330.0 1.555e-05
18350.0 1.5499e-05
18370.0 1.5445e-05
18390.0 1.5392e-05
18410.0 1.5341e-05
18430.0 1.5288e-05
18450.0 1.5234e-05
18470.0 1.5182e-05
18490.0 1.513e-05
18510.0 1.5077e-05
18530.0 1.5023e-05
18550.0 1.4972e-05
18570.0 1.4919e-05
18590.0 1.4864e-05
18610.0 1.4812e-05
18630.0 1.4759e-05
18650.0 1.4705e-05
18670.0 1.4651e-05
18690.0 1.46e-05
18710.0 1.4547e-05
18730.0 1.4492e-05
18750.0 1.444e-05
18770.0 1.4388e-05
18790.0 1.4333e-05
18810.0 1.4279e-05
18830.0 1.4226e-05
18850.0 1.4173e-05
18870.0 1.4118e-05
18890.0 1.4066e-05
18910.0 1.4013e-05
18930.0 1.3959e-05
18950.0 1.3905e-05
18970.0 1.3853e-05
18990.0 1.3799e-05
19010.0 1.3743e-05
19030.0 1.3691e-05
19050.0 1.3638e-05
19070.0 1.3584e-05
19090.0 1.353e-05
19110.0 1.3478e-05
19130.0 1.3424e-05
19150.0 1.3369e-05
19170.0 1.3316e-05
19190.0 1.3263e-05
19210.0 1.3208e-05
19230.0 1.3154e-05
19250.0 1.3102e-05
19270.0 1.3048e-05
19290.0 1.2994e-05
19310.0 1.2942e-05
19330.0 1.2889e-05
19350.0 1.2833e-05
19370.0 1.278e-05
19390.0 1.2727e-05
19410.0 1.2673e-05
19430.0 1.2619e-05
19450.0 1.2567e-05
19470.0 1.2514e-05
19490.0 1.2459e-05
19510.0 1.2406e-05
19530.0 1.2354e-05
19550.0 1.2299e-05
19570.0 1.2244e-05
19590.0 1.2192e-05
19610.0 1.2139e-05
19630.0 1.2085e-05
19650.0 1.2032e-05
19670.0 1.198e-05
19690.0 1.1926e-05
19710.0 1.1872e-05
19730.0 1.182e-05
19750.0 1.1767e-05
19770.0 1.1712e-05
19790.0 1.1659e-05
19810.0 1.1607e-05
19830.0 1.1553e-05
19850.0 1.1499e-05
19870.0 1.1446e-05
19890.0 1.1389e-05
19910.0 1.1326e-05
19930.0 1.1259e-05
19950.0 1.1182e-05
19970.0 1.1087e-05
19990.0 1.0973e-05
20010.0 9.7628e-06
20030.0 9.6215e-06
20050.0 9.4561e-06
20070.0 9.277e-06
20090.0 9.0842e-06
20110.0 8.8662e-06
20130.0 8.6454e-06
20150.0 8.4267e-06
20170.0 8.1999e-06
20190.0 7.9699e-06
20210.0 7.7526e-06
20230.0 7.5407e-06
20250.0 7.3284e-06
20270.0 7.1313e-06
20290.0 6.9513e-06
20310.0 6.7803e-06
20330.0 6.6205e-06
20350.0 6.4879e-06
20370.0 6.3701e-06
20390.0 6.2668e-06
20410.0 6.1835e-06
20430.0 6.1192e-06
20450.0 6.0682e-06
20470.0 6.0341e-06
20490.0 6.0158e-06
20510.0 6.0105e-06
20530.0 6.0179e-06
20550.0 6.0365e-06
20570.0 6.0635e-06
20590.0 6.1001e-06
20610.0 6.1445e-06
20630.0 6.1933e-06
20650.0 6.2479e-06
20670.0 6.3103e-06
20690.0 6.3739e-06
20710.0 6.4397e-06
20730.0 6.5107e-06
20750.0 6.5848e-06
20770.0 6.6576e-06
20790.0 6.7342e-06
20810.0 6.8151e-06
20830.0 6.8956e-06
20850.0 6.9765e-06
20870.0 7.0632e-06
20890.0 7.1515e-06
20910.0 7.2367e-06
20930.0 7.3251e-06
20950.0 7.4167e-06
20970.0 7.506e-06
20990.0 7.5941e-06
21010.0 7.6868e-06
21030.0 7.7773e-06
21050.0 7.8638e-06
21070.0 7.9501e-06
21090.0 8.0367e-06
21110.0 8.1156e-06
21130.0 8.1897e-06
21150.0 8.2616e-06
21170.0 8.3267e-06
21190.0 8.3827e-06
21210.0 8.433e-06
21230.0 8.4749e-06
21250.0 8.5047e-06
21270.0 8.5237e-06
21290.0 8.5307e-06
21310.0 8.5239e-06
21330.0 8.5039e-06
21350.0 8.4685e-06
21370.0 8.4167e-06
21390.0 8.3508e-06
21410.0 8.2701e-06
21430.0 8.1679e-06
21450.0 8.0531e-06
21470.0 7.9282e-06
21490.0 7.7869e-06
21510.0 7.6318e-06
21530.0 7.4743e-06
21550.0 7.3094e-06
21570.0 7.1334e-06
21590.0 6.9603e-06
21610.0 6.7931e-06
21630.0 6.6257e-06
21650.0 6.4621e-06
21670.0 6.3204e-06
21690.0 6.1896e-06
21710.0 6.0719e-06
21730.0 5.9754e-06
21750.0 5.9011e-06
21770.0 5.8444e-06
21790.0 5.8118e-06
21810.0 5.8027e-06
21830.0 5.8156e-06
21850.0 5.8519e-06
21870.0 5.9086e-06
21890.0 5.9819e-06
21910.0 6.0758e-06
21930.0 6.186e-06
21950.0 6.3053e-06
21970.0 6.4375e-06
21990.0 6.586e-06
22010.0 6.7343e-06
22030.0 6.8849e-06
22050.0 7.0431e-06
22070.0 7.2021e-06
22090.0 7.3527e-06
22110.0 7.5046e-06
22130.0 7.6562e-06
22150.0 7.7977e-06
22170.0 7.9312e-06
22190.0 8.0635e-06
22210.0 8.1866e-06
22230.0 8.2949e-06
22250.0 8.3969e-06
22270.0 8.4908e-06
22290.0 8.5711e-06
22310.0 8.64e-06
22330.0 8.7007e-06
22350.0 8.7476e-06
22370.0 8.7806e-06
22390.0 8.8013e-06
22410.0 8.8079e-06
22430.0 8.7995e-06
22450.0 8.7768e-06
22470.0 8.7376e-06
22490.0 8.6826e-06
22510.0 8.614e-06
22530.0 8.5263e-06
22550.0 8.4196e-06
22570.0 8.3012e-06
22590.0 8.1677e-06
22610.0 8.0141e-06
