#lamb flux
1010.0 1.1473e-07
1030.0 1.2931e-07
1050.0 1.4608e-07
1070.0 1.6495e-07
1090.0 1.8639e-07
1110.0 2.0837e-07
1130.0 2.305e-07
1150.0 2.5369e-07
1170.0 2.776e-07
1190.0 3.0027e-07
1210.0 3.2325e-07
1230.0 3.47e-07
1250.0 3.7027e-07
1270.0 3.9286e-07
1290.0 4.1674e-07
1310.0 4.406e-07
1330.0 4.6347e-07
1350.0 4.8661e-07
1370.0 5.105e-07
1390.0 5.3378e-07
1410.0 5.5638e-07
1430.0 5.8e-07
1450.0 6.0361e-07
1470.0 6.2643e-07
1490.0 6.4949e-07
1510.0 6.7384e-07
1530.0 6.9691e-07
1550.0 7.1966e-07
1570.0 7.4319e-07
1590.0 7.6673e-07
1610.0 7.8921e-07
1630.0 8.1237e-07
1650.0 8.3612e-07
1670.0 8.5907e-07
1690.0 8.817e-07
1710.0 9.0517e-07
1730.0 9.2874e-07
1750.0 9.5085e-07
1770.0 9.7356e-07
1790.0 9.9667e-07
1810.0 1.019e-06
1830.0 1.0408e-06
1850.0 1.0639e-06
1870.0 1.0862e-06
1890.0 1.1077e-06
1910.0 1.1294e-06
1930.0 1.1516e-06
1950.0 1.1725e-06
1970.0 1.1929e-06
1990.0 1.2139e-06
2010.0 1.2343e-06
2030.0 1.2535e-06
2050.0 1.2731e-06
2070.0 1.293e-06
2090.0 1.311e-06
2110.0 1.3286e-06
2130.0 1.3464e-06
2150.0 1.3633e-06
2170.0 1.3786e-06
2190.0 1.3941e-06
2210.0 1.4092e-06
2230.0 1.4227e-06
2250.0 1.4354e-06
2270.0 1.4482e-06
2290.0 1.4596e-06
2310.0 1.4693e-06
2330.0 1.4788e-06
2350.0 1.4877e-06
2370.0 1.4948e-06
2390.0 1.5015e-06
2410.0 1.5088e-06
2430.0 1.5153e-06
2450.0 1.5217e-06
2470.0 1.5299e-06
2490.0 1.5408e-06
2510.0 1.5536e-06
2530.0 1.5736e-06
2550.0 1.6085e-06
2570.0 1.6653e-06
2590.0 1.7537e-06
2610.0 1.9006e-06
2630.0 2.1122e-06
2650.0 2.3763e-06
2670.0 2.6959e-06
2690.0 3.0569e-06
2710.0 3.4043e-06
2730.0 3.7107e-06
2750.0 3.9794e-06
2770.0 4.18e-06
2790.0 4.3098e-06
2810.0 4.3906e-06
2830.0 4.4367e-06
2850.0 4.4484e-06
2870.0 4.4436e-06
2890.0 4.4321e-06
2910.0 4.4153e-06
2930.0 4.3935e-06
2950.0 4.373e-06
2970.0 4.3537e-06
2990.0 4.3329e-06
3010.0 8.9666e-05
3030.0 8.9201e-05
3050.0 8.8739e-05
3070.0 8.8201e-05
3090.0 8.7632e-05
3110.0 8.694e-05
3130.0 8.6014e-05
3150.0 8.4807e-05
3170.0 8.3223e-05
3190.0 8.1301e-05
3210.0 7.9207e-05
3230.0 7.7106e-05
3250.0 7.5358e-05
3270.0 7.4204e-05
3290.0 7.3939e-05
3310.0 7.4514e-05
3330.0 7.6106e-05
3350.0 7.8468e-05
3370.0 8.1653e-05
3390.0 8.5562e-05
3410.0 8.9768e-05
3430.0 9.4475e-05
3450.0 9.9857e-05
3470.0 0.00010568
3490.0 0.00011179
3510.0 0.0001186
3530.0 0.00012583
3550.0 0.00013307
3570.0 0.0001406
3590.0 0.00014899
3610.0 0.00015763
3630.0 0.00016671
3650.0 0.00017616
3670.0 0.00018505
3690.0 0.00019199
3710.0 0.00019631
3730.0 0.00019715
3750.0 0.0001945
3770.0 0.00017893
3790.0 0.00016144
3810.0 0.00014968
3830.0 0.00013073
3850.0 9.7277e-05
3870.0 6.9157e-05
3890.0 0.00011562
3910.0 0.00018804
3930.0 0.00022742
3950.0 0.00022346
3970.0 0.0002284
3990.0 0.00026828
4010.0 0.00034461
4030.0 0.00034877
4050.0 0.00030911
4070.0 0.00027397
4090.0 0.00025901
4110.0 0.0003122
4130.0 0.00032633
4150.0 0.00031845
4170.0 0.00032294
4190.0 0.00032923
4210.0 0.00032498
4230.0 0.00035895
4250.0 0.00039236
4270.0 0.00039801
4290.0 0.00040296
4310.0 0.0004133
4330.0 0.0004557
4350.0 0.00052553
4370.0 0.00059666
4390.0 0.0005664
4410.0 0.00046383
4430.0 0.00038922
4450.0 0.00033339
4470.0 0.00032363
4490.0 0.00035557
4510.0 0.00039885
4530.0 0.0004407
4550.0 0.00051044
4570.0 0.00060401
4590.0 0.00073225
4610.0 0.00094034
4630.0 0.0011424
4650.0 0.0011747
4670.0 0.0011342
4690.0 0.0012088
4710.0 0.0012765
4730.0 0.0010827
4750.0 0.00077359
4770.0 0.00063027
4790.0 0.00060909
4810.0 0.00056636
4830.0 0.00053445
4850.0 0.00061204
4870.0 0.00078998
4890.0 0.00090798
4910.0 0.00077038
4930.0 0.00068171
4950.0 0.00076322
4970.0 0.0010229
4990.0 0.001327
5010.0 0.0014118
5030.0 0.0011678
5050.0 0.00075389
5070.0 0.000518
5090.0 0.00045968
5110.0 0.0004804
5130.0 0.0005172
5150.0 0.00054332
5170.0 0.0005427
5190.0 0.00053118
5210.0 0.00051449
5230.0 0.00052739
5250.0 0.00056377
5270.0 0.00064892
5290.0 0.00074891
5310.0 0.00082538
5330.0 0.00084705
5350.0 0.00085378
5370.0 0.00092815
5390.0 0.0010033
5410.0 0.00097609
5430.0 0.00084389
5450.0 0.00077632
5470.0 0.00086993
5490.0 0.0011162
5510.0 0.0014265
5530.0 0.0015864
5550.0 0.0015388
5570.0 0.0013952
5590.0 0.0012447
5610.0 0.0011504
5630.0 0.0010926
5650.0 0.0011177
5670.0 0.0010915
5690.0 0.0010133
5710.0 0.00095997
5730.0 0.00087136
5750.0 0.00062594
5770.0 0.00054358
5790.0 0.00061161
5810.0 0.00073947
5830.0 0.00084217
5850.0 0.00092417
5870.0 0.00095183
5890.0 0.00091988
5910.0 0.00088093
5930.0 0.0008836
5950.0 0.00092589
5970.0 0.00098712
5990.0 0.00093538
6010.0 0.00078714
6030.0 0.0006538
6050.0 0.00056738
6070.0 0.00056394
6090.0 0.00063567
6110.0 0.00069829
6130.0 0.000673
6150.0 0.00062057
6170.0 0.00067472
6190.0 0.00081333
6210.0 0.00099221
6230.0 0.0011432
6250.0 0.0011461
6270.0 0.0010262
6290.0 0.00084991
6310.0 0.00067534
6330.0 0.0005369
6350.0 0.00048336
6370.0 0.00052297
6390.0 0.00061838
6410.0 0.00071422
6430.0 0.00082806
6450.0 0.00096369
6470.0 0.0011784
6490.0 0.0014509
6510.0 0.0016049
6530.0 0.0014925
6550.0 0.0013702
6570.0 0.0013308
6590.0 0.0012791
6610.0 0.0011421
6630.0 0.0010284
6650.0 0.00094633
6670.0 0.0009808
6690.0 0.00096855
6710.0 0.00086042
6730.0 0.00078187
6750.0 0.00070063
6770.0 0.00068018
6790.0 0.00074932
6810.0 0.00077115
6830.0 0.00079179
6850.0 0.00077545
6870.0 0.00074211
6890.0 0.00072438
6910.0 0.0006972
6930.0 0.0006549
6950.0 0.00066613
6970.0 0.00067601
6990.0 0.00075493
7010.0 0.00080448
7030.0 0.00073701
7050.0 0.00069115
7070.0 0.00067085
7090.0 0.00061412
7110.0 0.00057544
7130.0 0.00058794
7150.0 0.0006171
7170.0 0.00065472
7190.0 0.00065933
7210.0 0.00065413
7230.0 0.00068126
7250.0 0.00078076
7270.0 0.0009135
7290.0 0.0009905
7310.0 0.00096769
7330.0 0.00086117
7350.0 0.00077162
7370.0 0.0007441
7390.0 0.00075058
7410.0 0.00078438
7430.0 0.00085728
7450.0 0.00092828
7470.0 0.0010201
7490.0 0.0011299
7510.0 0.0010981
7530.0 0.0010395
7550.0 0.00086793
7570.0 0.0007098
7590.0 0.00056312
7610.0 0.00051089
7630.0 0.00053833
7650.0 0.00061605
7670.0 0.00068244
7690.0 0.00077243
7710.0 0.00084936
7730.0 0.00088156
7750.0 0.0008923
7770.0 0.00088747
7790.0 0.00086521
7810.0 0.00088859
7830.0 0.00086182
7850.0 0.0007695
7870.0 0.00069293
7890.0 0.00063814
7910.0 0.00056619
7930.0 0.00048563
7950.0 0.00044256
7970.0 0.00043813
7990.0 0.00045646
8010.0 0.00048399
8030.0 0.00048883
8050.0 0.00048844
8070.0 0.00047588
8090.0 0.00047845
8110.0 0.00045282
8130.0 0.00041238
8150.0 0.00038694
8170.0 0.00036972
8190.0 0.00037379
8210.0 0.00038299
8230.0 0.00040367
8250.0 0.00039261
8270.0 0.00035097
8290.0 0.00027536
8310.0 0.00018725
8330.0 0.00012256
8350.0 8.7801e-05
8370.0 0.0001014
8390.0 0.00011379
8410.0 0.00014546
8430.0 0.00017677
8450.0 0.00019427
8470.0 0.00020621
8490.0 0.00020809
8510.0 0.00021438
8530.0 0.00023427
8550.0 0.00026556
8570.0 0.00031712
8590.0 0.0003813
8610.0 0.00045142
8630.0 0.00052643
8650.0 0.00058044
8670.0 0.00057721
8690.0 0.00055061
8710.0 0.00051845
8730.0 0.00049188
8750.0 0.00046471
8770.0 0.00044924
8790.0 0.00043918
8810.0 0.00041246
8830.0 0.00036256
8850.0 0.00030904
8870.0 0.00026098
8890.0 0.00024142
8910.0 0.00024917
8930.0 0.00025476
8950.0 0.00028169
8970.0 0.00028777
8990.0 0.00029368
9010.0 0.00029695
9030.0 0.00029805
9050.0 0.00029992
9070.0 0.00030133
9090.0 0.00030237
9110.0 0.00030313
9130.0 0.00030394
9150.0 0.00030486
9170.0 0.00030581
9190.0 0.0003068
9210.0 0.00030799
9230.0 0.0003091
9250.0 0.00031032
9270.0 0.00031159
9290.0 0.00031293
9310.0 0.00031437
9330.0 0.00031587
9350.0 0.00031742
9370.0 0.00031904
9390.0 0.00032075
9410.0 0.00032251
9430.0 0.00032431
9450.0 0.00032622
9470.0 0.00032818
9490.0 0.00033018
9510.0 0.00033225
9530.0 0.00033441
9550.0 0.00033658
9570.0 0.00033881
9590.0 0.00034112
9610.0 0.00034348
9630.0 0.00034587
9650.0 0.00034832
9670.0 0.00035085
9690.0 0.00035339
9710.0 0.00035597
9730.0 0.00035863
9750.0 0.00036132
9770.0 0.000364
9790.0 0.00036676
9810.0 0.00036957
9830.0 0.00037239
9850.0 0.00037523
9870.0 0.00037814
9890.0 0.00038106
9910.0 0.00038398
9930.0 0.00038695
9950.0 0.00038994
9970.0 0.00039292
9990.0 0.00039591
10010.0 0.00038568
10030.0 0.00038856
10050.0 0.00039142
10070.0 0.00039426
10090.0 0.00039719
10110.0 0.00040007
10130.0 0.00040295
10150.0 0.00040585
10170.0 0.00040872
10190.0 0.00041154
10210.0 0.00041439
10230.0 0.00041724
10250.0 0.00042002
10270.0 0.00042279
10290.0 0.00042556
10310.0 0.00042828
10330.0 0.00043093
10350.0 0.00043359
10370.0 0.00043622
10390.0 0.00043877
10410.0 0.00044129
10430.0 0.00044381
10450.0 0.00044624
10470.0 0.0004486
10490.0 0.00045095
10510.0 0.00045324
10530.0 0.00045541
10550.0 0.00045756
10570.0 0.00045968
10590.0 0.00046169
10610.0 0.00046362
10630.0 0.00046553
10650.0 0.00046737
10670.0 0.00046907
10690.0 0.00047072
10710.0 0.00047233
10730.0 0.00047382
10750.0 0.00047519
10770.0 0.00047656
10790.0 0.00047783
10810.0 0.00047896
10830.0 0.00048001
10850.0 0.00048098
10870.0 0.00048169
10890.0 0.00048213
10910.0 0.00048221
10930.0 0.00048166
10950.0 0.00048007
10970.0 0.00047729
10990.0 0.00047321
11010.0 0.00045659
11030.0 0.00044893
11050.0 0.00043995
11070.0 0.00042938
11090.0 0.00041676
11110.0 0.00040379
11130.0 0.00039033
11150.0 0.00037591
11170.0 0.00036119
11190.0 0.00034713
11210.0 0.00033287
11230.0 0.00031859
11250.0 0.00030533
11270.0 0.00029297
11290.0 0.00028096
11310.0 0.00026996
11330.0 0.00026057
11350.0 0.00025193
11370.0 0.0002441
11390.0 0.00023741
11410.0 0.00023154
11430.0 0.00022595
11450.0 0.00022091
11470.0 0.00021626
11490.0 0.00021157
11510.0 0.00020665
11530.0 0.00020172
11550.0 0.00019656
11570.0 0.00019085
11590.0 0.00018485
11610.0 0.00017875
11630.0 0.00017218
11650.0 0.00016529
11670.0 0.00015866
11690.0 0.0001521
11710.0 0.00014552
11730.0 0.00013931
11750.0 0.00013369
11770.0 0.00012832
11790.0 0.00012338
11810.0 0.00011909
11830.0 0.00011528
11850.0 0.00011178
11870.0 0.0001088
11890.0 0.00010623
11910.0 0.00010385
11930.0 0.00010165
11950.0 9.9625e-05
11970.0 9.7625e-05
11990.0 9.5537e-05
12010.0 9.3433e-05
12030.0 9.1287e-05
12050.0 8.8992e-05
12070.0 8.6569e-05
12090.0 8.4225e-05
12110.0 8.1851e-05
12130.0 7.9471e-05
12150.0 7.7257e-05
12170.0 7.5273e-05
12190.0 7.3446e-05
12210.0 7.1964e-05
12230.0 7.0889e-05
12250.0 7.0204e-05
12270.0 6.9965e-05
12290.0 7.0183e-05
12310.0 7.0807e-05
12330.0 7.1901e-05
12350.0 7.3403e-05
12370.0 7.518e-05
12390.0 7.727e-05
12410.0 7.9737e-05
12430.0 8.221e-05
12450.0 8.4723e-05
12470.0 8.7339e-05
12490.0 8.988e-05
12510.0 9.2159e-05
12530.0 9.4327e-05
12550.0 9.63e-05
12570.0 9.7897e-05
12590.0 9.9155e-05
12610.0 0.00010013
12630.0 0.00010071
12650.0 0.00010089
12670.0 0.00010075
12690.0 0.00010027
12710.0 9.9478e-05
12730.0 9.8428e-05
12750.0 9.7089e-05
12770.0 9.5543e-05
12790.0 9.3853e-05
12810.0 9.1985e-05
12830.0 8.9945e-05
12850.0 8.7875e-05
12870.0 8.5733e-05
12890.0 8.3453e-05
12910.0 8.1137e-05
12930.0 7.8834e-05
12950.0 7.6411e-05
12970.0 7.3903e-05
12990.0 7.1469e-05
13010.0 6.9012e-05
13030.0 6.6476e-05
13050.0 6.3983e-05
13070.0 6.1597e-05
13090.0 5.9172e-05
13110.0 5.68e-05
13130.0 5.4594e-05
13150.0 5.2503e-05
13170.0 5.0473e-05
13190.0 4.8685e-05
13210.0 4.7136e-05
13230.0 4.5762e-05
13250.0 4.4624e-05
13270.0 4.3769e-05
13290.0 4.3155e-05
13310.0 4.2797e-05
13330.0 4.2711e-05
13350.0 4.2861e-05
13370.0 4.3257e-05
13390.0 4.3887e-05
13410.0 4.4647e-05
13430.0 4.5568e-05
13450.0 4.6639e-05
13470.0 4.7762e-05
13490.0 4.889e-05
13510.0 5.0111e-05
13530.0 5.129e-05
13550.0 5.2364e-05
13570.0 5.338e-05
13590.0 5.4328e-05
13610.0 5.5125e-05
13630.0 5.5778e-05
13650.0 5.6336e-05
13670.0 5.6751e-05
13690.0 5.7017e-05
13710.0 5.7165e-05
13730.0 5.7196e-05
13750.0 5.7099e-05
13770.0 5.6901e-05
13790.0 5.6605e-05
13810.0 5.6218e-05
13830.0 5.5766e-05
13850.0 5.5233e-05
13870.0 5.4625e-05
13890.0 5.3974e-05
13910.0 5.3279e-05
13930.0 5.2512e-05
13950.0 5.1708e-05
13970.0 5.091e-05
13990.0 5.007e-05
14010.0 4.9203e-05
14030.0 4.836e-05
14050.0 4.7532e-05
14070.0 4.6684e-05
14090.0 4.5893e-05
14110.0 4.5169e-05
14130.0 4.4489e-05
14150.0 4.3873e-05
14170.0 4.3365e-05
14190.0 4.2948e-05
14210.0 4.262e-05
14230.0 4.2405e-05
14250.0 4.23e-05
14270.0 4.2304e-05
14290.0 4.2425e-05
14310.0 4.2642e-05
14330.0 4.2953e-05
14350.0 4.3366e-05
14370.0 4.385e-05
14390.0 4.4377e-05
14410.0 4.4983e-05
14430.0 4.5636e-05
14450.0 4.6298e-05
14470.0 4.6987e-05
14490.0 4.7732e-05
14510.0 4.8467e-05
14530.0 4.92e-05
14550.0 4.9983e-05
14570.0 5.0807e-05
14590.0 5.1639e-05
14610.0 5.2543e-05
14630.0 5.3558e-05
14650.0 5.4627e-05
14670.0 5.5772e-05
14690.0 5.7064e-05
14710.0 5.8495e-05
14730.0 5.9951e-05
14750.0 6.1543e-05
14770.0 6.3279e-05
14790.0 6.5053e-05
14810.0 6.6843e-05
14830.0 6.8787e-05
14850.0 7.071e-05
14870.0 7.2536e-05
14890.0 7.4334e-05
14910.0 7.6073e-05
14930.0 7.7607e-05
14950.0 7.8933e-05
14970.0 8.0096e-05
14990.0 8.1001e-05
15010.0 8.1641e-05
15030.0 8.2071e-05
15050.0 8.231e-05
15070.0 8.2383e-05
15090.0 8.2355e-05
15110.0 8.2253e-05
15130.0 8.2111e-05
15150.0 8.1955e-05
15170.0 8.1781e-05
15190.0 8.1599e-05
15210.0 8.1424e-05
15230.0 8.1251e-05
15250.0 8.1069e-05
15270.0 8.089e-05
15290.0 8.0724e-05
15310.0 8.0551e-05
15330.0 8.0375e-05
15350.0 8.0208e-05
15370.0 8.0043e-05
15390.0 7.9865e-05
15410.0 7.9695e-05
15430.0 7.9532e-05
15450.0 7.9363e-05
15470.0 7.9189e-05
15490.0 7.9027e-05
15510.0 7.8865e-05
15530.0 7.8694e-05
15550.0 7.8528e-05
15570.0 7.8368e-05
15590.0 7.8198e-05
15610.0 7.8025e-05
15630.0 7.7864e-05
15650.0 7.77e-05
15670.0 7.7529e-05
15690.0 7.7362e-05
15710.0 7.7202e-05
15730.0 7.7032e-05
15750.0 7.6861e-05
15770.0 7.6697e-05
15790.0 7.653e-05
15810.0 7.6353e-05
15830.0 7.6183e-05
15850.0 7.6019e-05
15870.0 7.5845e-05
15890.0 7.5671e-05
15910.0 7.5504e-05
15930.0 7.5332e-05
15950.0 7.5151e-05
15970.0 7.4977e-05
15990.0 7.4805e-05
16010.0 7.4624e-05
16030.0 7.444e-05
16050.0 7.4269e-05
16070.0 7.409e-05
16090.0 7.3904e-05
16110.0 7.3724e-05
16130.0 7.3547e-05
16150.0 7.3354e-05
16170.0 7.3165e-05
16190.0 7.2982e-05
16210.0 7.2794e-05
16230.0 7.2599e-05
16250.0 7.241e-05
16270.0 7.2224e-05
16290.0 7.2025e-05
16310.0 7.1828e-05
16330.0 7.1637e-05
16350.0 7.1439e-05
16370.0 7.1229e-05
16390.0 7.1032e-05
16410.0 7.0834e-05
16430.0 7.0626e-05
16450.0 7.0419e-05
16470.0 7.022e-05
16490.0 7.0009e-05
16510.0 6.9794e-05
16530.0 6.9585e-05
16550.0 6.9376e-05
16570.0 6.9155e-05
16590.0 6.8935e-05
16610.0 6.8725e-05
16630.0 6.8505e-05
16650.0 6.8281e-05
16670.0 6.8063e-05
16690.0 6.7843e-05
16710.0 6.7609e-05
16730.0 6.7382e-05
16750.0 6.7158e-05
16770.0 6.6926e-05
16790.0 6.6689e-05
16810.0 6.6461e-05
16830.0 6.623e-05
16850.0 6.5989e-05
16870.0 6.5751e-05
16890.0 6.5518e-05
16910.0 6.5274e-05
16930.0 6.5025e-05
16950.0 6.4786e-05
16970.0 6.4543e-05
16990.0 6.4292e-05
17010.0 6.4045e-05
17030.0 6.3803e-05
17050.0 6.3548e-05
17070.0 6.3293e-05
17090.0 6.3044e-05
17110.0 6.2791e-05
17130.0 6.2526e-05
17150.0 6.227e-05
17170.0 6.2017e-05
17190.0 6.1754e-05
17210.0 6.1491e-05
17230.0 6.1235e-05
17250.0 6.0972e-05
17270.0 6.07e-05
17290.0 6.0435e-05
17310.0 6.0172e-05
17330.0 5.99e-05
17350.0 5.9626e-05
17370.0 5.9363e-05
17390.0 5.9092e-05
17410.0 5.8816e-05
17430.0 5.8545e-05
17450.0 5.8277e-05
17470.0 5.7993e-05
17490.0 5.7714e-05
17510.0 5.7442e-05
17530.0 5.7164e-05
17550.0 5.688e-05
17570.0 5.6604e-05
17590.0 5.6329e-05
17610.0 5.6043e-05
17630.0 5.5759e-05
17650.0 5.5482e-05
17670.0 5.5198e-05
17690.0 5.4904e-05
17710.0 5.4625e-05
17730.0 5.4343e-05
17750.0 5.4054e-05
17770.0 5.3766e-05
17790.0 5.3487e-05
17810.0 5.3197e-05
17830.0 5.2904e-05
17850.0 5.2619e-05
17870.0 5.2333e-05
17890.0 5.2038e-05
17910.0 5.1746e-05
17930.0 5.1464e-05
17950.0 5.1173e-05
17970.0 5.0879e-05
17990.0 5.0593e-05
18010.0 5.0306e-05
18030.0 5.0006e-05
18050.0 4.9715e-05
18070.0 4.9429e-05
18090.0 4.9135e-05
18110.0 4.8839e-05
18130.0 4.8553e-05
18150.0 4.8264e-05
18170.0 4.7968e-05
18190.0 4.7677e-05
18210.0 4.7391e-05
18230.0 4.7095e-05
18250.0 4.6798e-05
18270.0 4.6512e-05
18290.0 4.6222e-05
18310.0 4.5927e-05
18330.0 4.5637e-05
18350.0 4.5353e-05
18370.0 4.5058e-05
18390.0 4.4765e-05
18410.0 4.4479e-05
18430.0 4.4191e-05
18450.0 4.3894e-05
18470.0 4.3606e-05
18490.0 4.3323e-05
18510.0 4.3032e-05
18530.0 4.2742e-05
18550.0 4.2461e-05
18570.0 4.2174e-05
18590.0 4.1881e-05
18610.0 4.1596e-05
18630.0 4.1314e-05
18650.0 4.1025e-05
18670.0 4.0737e-05
18690.0 4.0459e-05
18710.0 4.0176e-05
18730.0 3.9889e-05
18750.0 3.961e-05
18770.0 3.9333e-05
18790.0 3.9044e-05
18810.0 3.8761e-05
18830.0 3.8486e-05
18850.0 3.8207e-05
18870.0 3.7924e-05
18890.0 3.7649e-05
18910.0 3.7377e-05
18930.0 3.7096e-05
18950.0 3.6819e-05
18970.0 3.6549e-05
18990.0 3.6274e-05
19010.0 3.5991e-05
19030.0 3.5724e-05
19050.0 3.5455e-05
19070.0 3.518e-05
19090.0 3.4909e-05
19110.0 3.4647e-05
19130.0 3.4375e-05
19150.0 3.4103e-05
19170.0 3.3839e-05
19190.0 3.3575e-05
19210.0 3.3304e-05
19230.0 3.3038e-05
19250.0 3.2781e-05
19270.0 3.2517e-05
19290.0 3.2252e-05
19310.0 3.1995e-05
19330.0 3.1738e-05
19350.0 3.1471e-05
19370.0 3.1213e-05
19390.0 3.096e-05
19410.0 3.0701e-05
19430.0 3.0442e-05
19450.0 3.0192e-05
19470.0 2.9941e-05
19490.0 2.9684e-05
19510.0 2.9433e-05
19530.0 2.9187e-05
19550.0 2.8933e-05
19570.0 2.8679e-05
19590.0 2.8436e-05
19610.0 2.819e-05
19630.0 2.794e-05
19650.0 2.7696e-05
19670.0 2.7457e-05
19690.0 2.721e-05
19710.0 2.6965e-05
19730.0 2.6728e-05
19750.0 2.6488e-05
19770.0 2.6241e-05
19790.0 2.6005e-05
19810.0 2.5771e-05
19830.0 2.5532e-05
19850.0 2.5293e-05
19870.0 2.506e-05
19890.0 2.4817e-05
19910.0 2.456e-05
19930.0 2.4299e-05
19950.0 2.402e-05
19970.0 2.3703e-05
19990.0 2.3349e-05
20010.0 2.3427e-05
20030.0 2.299e-05
20050.0 2.2505e-05
20070.0 2.2004e-05
20090.0 2.1486e-05
20110.0 2.0924e-05
20130.0 2.0376e-05
20150.0 1.9848e-05
20170.0 1.9319e-05
20190.0 1.8798e-05
20210.0 1.8316e-05
20230.0 1.7857e-05
20250.0 1.7407e-05
20270.0 1.6997e-05
20290.0 1.6628e-05
20310.0 1.6284e-05
20330.0 1.5968e-05
20350.0 1.5709e-05
20370.0 1.5485e-05
20390.0 1.5294e-05
20410.0 1.5147e-05
20430.0 1.504e-05
20450.0 1.4968e-05
20470.0 1.4933e-05
20490.0 1.4933e-05
20510.0 1.4965e-05
20530.0 1.5029e-05
20550.0 1.5118e-05
20570.0 1.5225e-05
20590.0 1.5358e-05
20610.0 1.5509e-05
20630.0 1.5669e-05
20650.0 1.5841e-05
20670.0 1.6033e-05
20690.0 1.6223e-05
20710.0 1.6413e-05
20730.0 1.6614e-05
20750.0 1.6818e-05
20770.0 1.7013e-05
20790.0 1.7214e-05
20810.0 1.7422e-05
20830.0 1.7625e-05
20850.0 1.7825e-05
20870.0 1.8038e-05
20890.0 1.8255e-05
20910.0 1.8462e-05
20930.0 1.8677e-05
20950.0 1.8902e-05
20970.0 1.9123e-05
20990.0 1.9341e-05
21010.0 1.9574e-05
21030.0 1.9803e-05
21050.0 2.0023e-05
21070.0 2.0244e-05
21090.0 2.0467e-05
21110.0 2.0671e-05
21130.0 2.0864e-05
21150.0 2.1053e-05
21170.0 2.1226e-05
21190.0 2.1377e-05
21210.0 2.1518e-05
21230.0 2.1643e-05
21250.0 2.1741e-05
21270.0 2.1817e-05
21290.0 2.1873e-05
21310.0 2.1902e-05
21330.0 2.1904e-05
21350.0 2.1879e-05
21370.0 2.1823e-05
21390.0 2.1739e-05
21410.0 2.1625e-05
21430.0 2.1471e-05
21450.0 2.1288e-05
21470.0 2.108e-05
21490.0 2.0835e-05
21510.0 2.0558e-05
21530.0 2.0266e-05
21550.0 1.995e-05
21570.0 1.9603e-05
21590.0 1.9249e-05
21610.0 1.8895e-05
21630.0 1.8527e-05
21650.0 1.8152e-05
21670.0 1.7811e-05
21690.0 1.7479e-05
21710.0 1.716e-05
21730.0 1.6873e-05
21750.0 1.6625e-05
21770.0 1.6399e-05
21790.0 1.6216e-05
21810.0 1.6079e-05
21830.0 1.5983e-05
21850.0 1.5929e-05
21870.0 1.5922e-05
21890.0 1.5956e-05
21910.0 1.6033e-05
21930.0 1.6152e-05
21950.0 1.6303e-05
21970.0 1.649e-05
21990.0 1.6722e-05
22010.0 1.6972e-05
22030.0 1.7243e-05
22050.0 1.7545e-05
22070.0 1.7867e-05
22090.0 1.8186e-05
22110.0 1.8524e-05
22130.0 1.8878e-05
22150.0 1.9221e-05
22170.0 1.9558e-05
22190.0 1.9903e-05
22210.0 2.0235e-05
22230.0 2.0535e-05
22250.0 2.0823e-05
22270.0 2.1093e-05
22290.0 2.1326e-05
22310.0 2.1528e-05
22330.0 2.1704e-05
22350.0 2.1839e-05
22370.0 2.1932e-05
22390.0 2.1986e-05
22410.0 2.1996e-05
22430.0 2.1961e-05
22450.0 2.1884e-05
22470.0 2.176e-05
22490.0 2.1592e-05
22510.0 2.1389e-05
22530.0 2.1135e-05
22550.0 2.0833e-05
22570.0 2.0505e-05
22590.0 2.0141e-05
22610.0 1.9729e-05
22630.0 1.9288e-05
22650.0 1.8838e-05
