#lamb flux
1010.0 5.122e-05
1030.0 5.6498e-05
1050.0 6.1635e-05
1070.0 6.7426e-05
1090.0 7.4281e-05
1110.0 8.127e-05
1130.0 8.8285e-05
1150.0 9.5635e-05
1170.0 0.00010325
1190.0 0.00011057
1210.0 0.0001181
1230.0 0.00012605
1250.0 0.00013399
1270.0 0.00014197
1290.0 0.00015063
1310.0 0.00015958
1330.0 0.00016849
1350.0 0.00017775
1370.0 0.0001875
1390.0 0.00019724
1410.0 0.00020688
1430.0 0.00021695
1450.0 0.00022706
1470.0 0.00023684
1490.0 0.00024661
1510.0 0.0002567
1530.0 0.00026614
1550.0 0.0002752
1570.0 0.00028426
1590.0 0.00029301
1610.0 0.00030098
1630.0 0.00030872
1650.0 0.00031625
1670.0 0.00032307
1690.0 0.00032934
1710.0 0.00033548
1730.0 0.00034125
1750.0 0.00034613
1770.0 0.00035088
1790.0 0.00035549
1810.0 0.00035959
1830.0 0.0003634
1850.0 0.00036759
1870.0 0.00037156
1890.0 0.00037537
1910.0 0.00037951
1930.0 0.00038408
1950.0 0.00038865
1970.0 0.00039353
1990.0 0.00039911
2010.0 0.00040503
2030.0 0.00041115
2050.0 0.00041794
2070.0 0.00042531
2090.0 0.00043261
2110.0 0.00044017
2130.0 0.00044813
2150.0 0.00045604
2170.0 0.00046363
2190.0 0.00047136
2210.0 0.00047893
2230.0 0.0004859
2250.0 0.00049245
2270.0 0.00049884
2290.0 0.00050448
2310.0 0.00050924
2330.0 0.00051361
2350.0 0.00051738
2370.0 0.0005202
2390.0 0.00052241
2410.0 0.00052423
2430.0 0.00052511
2450.0 0.0005251
2470.0 0.00052451
2490.0 0.00052331
2510.0 0.00052145
2530.0 0.00052025
2550.0 0.00052167
2570.0 0.00052797
2590.0 0.00054186
2610.0 0.00056967
2630.0 0.00061342
2650.0 0.00067064
2670.0 0.000742
2690.0 0.00082425
2710.0 0.00090381
2730.0 0.00097251
2750.0 0.0010277
2770.0 0.001058
2790.0 0.0010602
2810.0 0.0010357
2830.0 0.00098339
2850.0 0.00091132
2870.0 0.0008244
2890.0 0.00072346
2910.0 0.00061461
2930.0 0.00050471
2950.0 0.00038811
2970.0 0.00026669
2990.0 0.00014653
3010.0 6.3056e-05
3030.0 6.3056e-05
3050.0 6.3056e-05
3070.0 6.3056e-05
3090.0 6.3056e-05
3110.0 6.3056e-05
3130.0 6.3056e-05
3150.0 6.3056e-05
3170.0 6.3056e-05
3190.0 6.3056e-05
3210.0 0.0010869
3230.0 0.004594
3250.0 0.0067398
3270.0 0.0059512
3290.0 0.0046372
3310.0 0.0035556
3330.0 0.0033291
3350.0 0.003566
3370.0 0.0039523
3390.0 0.0043598
3410.0 0.0047934
3430.0 0.0053649
3450.0 0.0059018
3470.0 0.0064536
3490.0 0.0065235
3510.0 0.0054883
3530.0 0.0049551
3550.0 0.0061797
3570.0 0.0076409
3590.0 0.008495
3610.0 0.008706
3630.0 0.009649
3650.0 0.0098531
3670.0 0.010218
3690.0 0.011499
3710.0 0.012642
3730.0 0.01352
3750.0 0.013909
3770.0 0.014066
3790.0 0.013659
3810.0 0.012729
3830.0 0.011421
3850.0 0.0081486
3870.0 0.0075492
3890.0 0.008568
3910.0 0.011548
3930.0 0.01479
3950.0 0.016071
3970.0 0.016799
3990.0 0.01879
4010.0 0.018926
4030.0 0.017011
4050.0 0.012398
4070.0 0.010529
4090.0 0.012795
4110.0 0.014
4130.0 0.015134
4150.0 0.014995
4170.0 0.014261
4190.0 0.013296
4210.0 0.015061
4230.0 0.016233
4250.0 0.017427
4270.0 0.017194
4290.0 0.016549
4310.0 0.016868
4330.0 0.019129
4350.0 0.021129
4370.0 0.0215
4390.0 0.020032
4410.0 0.018001
4430.0 0.014263
4450.0 0.011501
4470.0 0.011639
4490.0 0.013154
4510.0 0.014082
4530.0 0.014295
4550.0 0.014681
4570.0 0.019921
4590.0 0.028863
4610.0 0.034268
4630.0 0.035801
4650.0 0.039437
4670.0 0.045489
4690.0 0.047689
4710.0 0.040867
4730.0 0.031538
4750.0 0.024457
4770.0 0.020509
4790.0 0.018435
4810.0 0.017575
4830.0 0.019332
4850.0 0.023247
4870.0 0.025968
4890.0 0.026727
4910.0 0.026307
4930.0 0.029085
4950.0 0.034377
4970.0 0.038299
4990.0 0.038701
5010.0 0.035133
5030.0 0.028996
5050.0 0.02298
5070.0 0.019087
5090.0 0.017647
5110.0 0.017611
5130.0 0.017884
5150.0 0.017648
5170.0 0.016529
5190.0 0.015735
5210.0 0.016022
5230.0 0.018215
5250.0 0.022051
5270.0 0.026155
5290.0 0.028953
5310.0 0.031063
5330.0 0.034399
5350.0 0.037517
5370.0 0.037574
5390.0 0.034152
5410.0 0.030834
5430.0 0.030821
5450.0 0.035528
5470.0 0.042307
5490.0 0.047564
5510.0 0.049541
5530.0 0.048701
5550.0 0.046583
5570.0 0.044524
5590.0 0.042491
5610.0 0.041198
5630.0 0.040913
5650.0 0.040728
5670.0 0.038779
5690.0 0.034519
5710.0 0.029775
5730.0 0.02688
5750.0 0.025925
5770.0 0.026492
5790.0 0.027124
5810.0 0.02749
5830.0 0.027437
5850.0 0.026286
5870.0 0.024976
5890.0 0.024567
5910.0 0.02514
5930.0 0.025305
5950.0 0.023537
5970.0 0.020421
5990.0 0.016607
6010.0 0.013653
6030.0 0.012899
6050.0 0.013997
6070.0 0.014743
6090.0 0.013839
6110.0 0.012443
6130.0 0.01284
6150.0 0.014687
6170.0 0.016433
6190.0 0.017565
6210.0 0.017908
6230.0 0.017658
6250.0 0.016059
6270.0 0.0134
6290.0 0.011139
6310.0 0.010106
6330.0 0.010069
6350.0 0.010296
6370.0 0.010718
6390.0 0.012333
6410.0 0.015186
6430.0 0.017936
6450.0 0.019401
6470.0 0.019924
6490.0 0.020096
6510.0 0.02034
6530.0 0.020637
6550.0 0.020771
6570.0 0.021429
6590.0 0.022016
6610.0 0.022143
6630.0 0.021342
6650.0 0.019728
6670.0 0.018081
6690.0 0.016867
6710.0 0.016113
6730.0 0.015566
6750.0 0.015448
6770.0 0.015872
6790.0 0.01648
6810.0 0.01682
6830.0 0.016547
6850.0 0.015685
6870.0 0.014748
6890.0 0.014394
6910.0 0.014278
6930.0 0.014714
6950.0 0.015276
6970.0 0.015635
6990.0 0.015781
7010.0 0.015267
7030.0 0.014048
7050.0 0.012516
7070.0 0.011444
7090.0 0.011105
7110.0 0.011128
7130.0 0.010597
7150.0 0.0094317
7170.0 0.0091002
7190.0 0.010115
7210.0 0.011757
7230.0 0.013275
7250.0 0.013834
7270.0 0.013534
7290.0 0.012611
7310.0 0.011815
7330.0 0.011576
7350.0 0.011709
7370.0 0.011904
7390.0 0.012504
7410.0 0.01385
7430.0 0.015685
7450.0 0.017292
7470.0 0.017908
7490.0 0.017172
7510.0 0.015922
7530.0 0.014692
7550.0 0.013736
7570.0 0.012669
7590.0 0.012155
7610.0 0.012353
7630.0 0.013131
7650.0 0.014372
7670.0 0.015803
7690.0 0.017004
7710.0 0.018041
7730.0 0.019005
7750.0 0.019811
7770.0 0.019917
7790.0 0.020204
7810.0 0.020421
7830.0 0.020042
7850.0 0.01943
7870.0 0.019081
7890.0 0.019375
7910.0 0.019325
7930.0 0.019004
7950.0 0.018237
7970.0 0.017671
7990.0 0.017063
8010.0 0.016789
8030.0 0.016947
8050.0 0.017044
8070.0 0.016882
8090.0 0.016798
8110.0 0.016422
8130.0 0.016483
8150.0 0.016383
8170.0 0.016075
8190.0 0.015723
8210.0 0.015507
8230.0 0.01518
8250.0 0.015053
8270.0 0.013973
8290.0 0.011752
8310.0 0.0092257
8330.0 0.0074965
8350.0 0.0071409
8370.0 0.0083149
8390.0 0.0098759
8410.0 0.0106
8430.0 0.010897
8450.0 0.011579
8470.0 0.012541
8490.0 0.014036
8510.0 0.015899
8530.0 0.01797
8550.0 0.019737
8570.0 0.021115
8590.0 0.022169
8610.0 0.022745
8630.0 0.022711
8650.0 0.022437
8670.0 0.022511
8690.0 0.023795
8710.0 0.025529
8730.0 0.026548
8750.0 0.026503
8770.0 0.026936
8790.0 0.026978
8810.0 0.025593
8830.0 0.02394
8850.0 0.021791
8870.0 0.020103
8890.0 0.019631
8910.0 0.019549
8930.0 0.018431
8950.0 0.01711
8970.0 0.016573
8990.0 0.016559
9010.0 0.016073
9030.0 0.015734
9050.0 0.015588
9070.0 0.015519
9090.0 0.015459
9110.0 0.015402
9130.0 0.015344
9150.0 0.015288
9170.0 0.015228
9190.0 0.015184
9210.0 0.015179
9230.0 0.015103
9250.0 0.015037
9270.0 0.014978
9290.0 0.014923
9310.0 0.01487
9330.0 0.014819
9350.0 0.014771
9370.0 0.014724
9390.0 0.014676
9410.0 0.014629
9430.0 0.014581
9450.0 0.014512
9470.0 0.014451
9490.0 0.014429
9510.0 0.014395
9530.0 0.014359
9550.0 0.014321
9570.0 0.014282
9590.0 0.014242
9610.0 0.014202
9630.0 0.014162
9650.0 0.014123
9670.0 0.014084
9690.0 0.014045
9710.0 0.014006
9730.0 0.013968
9750.0 0.01393
9770.0 0.013891
9790.0 0.013853
9810.0 0.013816
9830.0 0.013778
9850.0 0.01374
9870.0 0.013703
9890.0 0.013665
9910.0 0.013627
9930.0 0.013588
9950.0 0.013469
9970.0 0.013454
9990.0 0.013434
10010.0 0.013413
10030.0 0.013384
10050.0 0.013349
10070.0 0.013313
10090.0 0.013277
10110.0 0.013234
10130.0 0.013187
10150.0 0.013147
10170.0 0.013106
10190.0 0.01306
10210.0 0.013018
10230.0 0.012976
10250.0 0.012929
10270.0 0.012881
10290.0 0.012837
10310.0 0.012787
10330.0 0.012734
10350.0 0.012684
10370.0 0.012634
10390.0 0.012579
10410.0 0.012524
10430.0 0.012472
10450.0 0.012415
10470.0 0.012355
10490.0 0.012297
10510.0 0.012239
10530.0 0.012172
10550.0 0.012108
10570.0 0.012046
10590.0 0.011979
10610.0 0.011909
10630.0 0.011842
10650.0 0.011773
10670.0 0.011697
10690.0 0.011622
10710.0 0.011549
10730.0 0.01147
10750.0 0.011386
10770.0 0.011308
10790.0 0.011227
10810.0 0.01114
10830.0 0.011054
10850.0 0.01097
10870.0 0.010876
10890.0 0.010781
10910.0 0.010689
10930.0 0.010593
10950.0 0.010489
10970.0 0.010385
10990.0 0.010283
11010.0 0.011123
11030.0 0.011006
11050.0 0.010892
11070.0 0.010775
11090.0 0.01065
11110.0 0.010534
11130.0 0.01042
11150.0 0.010303
11170.0 0.010186
11190.0 0.010076
11210.0 0.0099638
11230.0 0.0098484
11250.0 0.0097381
11270.0 0.0096306
11290.0 0.0095187
11310.0 0.0094076
11330.0 0.0093042
11350.0 0.009198
11370.0 0.009089
11390.0 0.0089827
11410.0 0.0088763
11430.0 0.0087601
11450.0 0.0086419
11470.0 0.0085225
11490.0 0.0083943
11510.0 0.008255
11530.0 0.0081149
11550.0 0.0079693
11570.0 0.0078114
11590.0 0.0076492
11610.0 0.0074876
11630.0 0.0073164
11650.0 0.0071387
11670.0 0.0069678
11690.0 0.0067972
11710.0 0.0066225
11730.0 0.006452
11750.0 0.006291
11770.0 0.0061278
11790.0 0.0059667
11810.0 0.0058148
11830.0 0.0056672
11850.0 0.0055169
11870.0 0.005375
11890.0 0.0052412
11910.0 0.0051076
11930.0 0.0049766
11950.0 0.0048541
11970.0 0.0047347
11990.0 0.0046152
12010.0 0.0045032
12030.0 0.0043981
12050.0 0.0042956
12070.0 0.0041972
12090.0 0.0041101
12110.0 0.0040283
12130.0 0.0039519
12150.0 0.0038848
12170.0 0.0038268
12190.0 0.0037751
12210.0 0.0037331
12230.0 0.0037009
12250.0 0.0036774
12270.0 0.0036632
12290.0 0.0036579
12310.0 0.0036602
12330.0 0.0036713
12350.0 0.0036899
12370.0 0.0037135
12390.0 0.0037432
12410.0 0.0037808
12430.0 0.0038194
12450.0 0.00386
12470.0 0.0039049
12490.0 0.0039508
12510.0 0.0039938
12530.0 0.0040379
12550.0 0.0040816
12570.0 0.0041202
12590.0 0.004154
12610.0 0.0041849
12630.0 0.004209
12650.0 0.0042235
12670.0 0.0042313
12690.0 0.0042308
12710.0 0.0042206
12730.0 0.0042015
12750.0 0.0041732
12770.0 0.0041359
12790.0 0.0040912
12810.0 0.0040388
12830.0 0.0039791
12850.0 0.0039161
12870.0 0.0038497
12890.0 0.003779
12910.0 0.0037075
12930.0 0.0036372
12950.0 0.0035656
12970.0 0.0034941
12990.0 0.0034268
13010.0 0.0033615
13030.0 0.0032969
13050.0 0.0032353
13070.0 0.0031773
13090.0 0.0031199
13110.0 0.0030639
13130.0 0.003011
13150.0 0.0029595
13170.0 0.0029077
13190.0 0.0028584
13210.0 0.0028114
13230.0 0.0027646
13250.0 0.002719
13270.0 0.0026761
13290.0 0.0026344
13310.0 0.0025936
13330.0 0.0025558
13350.0 0.0025208
13370.0 0.0024877
13390.0 0.0024572
13410.0 0.0024306
13430.0 0.0024063
13450.0 0.0023842
13470.0 0.0023648
13490.0 0.0023473
13510.0 0.0023309
13530.0 0.0023154
13550.0 0.0023004
13570.0 0.0022851
13590.0 0.0022688
13610.0 0.0022517
13630.0 0.0022336
13650.0 0.0022137
13670.0 0.0021924
13690.0 0.0021704
13710.0 0.0021473
13730.0 0.0021227
13750.0 0.0020988
13770.0 0.0020752
13790.0 0.0020516
13810.0 0.002029
13830.0 0.0020081
13850.0 0.001988
13870.0 0.001969
13890.0 0.001952
13910.0 0.0019363
13930.0 0.0019214
13950.0 0.0019075
13970.0 0.001895
13990.0 0.0018826
14010.0 0.0018703
14030.0 0.0018583
14050.0 0.0018461
14070.0 0.0018328
14090.0 0.0018191
14110.0 0.0018049
14130.0 0.0017896
14150.0 0.001773
14170.0 0.0017564
14190.0 0.0017392
14210.0 0.001721
14230.0 0.001703
14250.0 0.0016857
14270.0 0.0016682
14290.0 0.0016513
14310.0 0.0016363
14330.0 0.0016226
14350.0 0.0016101
14370.0 0.0015995
14390.0 0.0015911
14410.0 0.001584
14430.0 0.0015787
14450.0 0.001575
14470.0 0.0015726
14490.0 0.0015713
14510.0 0.0015711
14530.0 0.0015716
14550.0 0.0015729
14570.0 0.0015749
14590.0 0.0015776
14610.0 0.0015813
14630.0 0.0015863
14650.0 0.0015925
14670.0 0.0016004
14690.0 0.0016104
14710.0 0.0016229
14730.0 0.0016373
14750.0 0.0016546
14770.0 0.0016752
14790.0 0.0016984
14810.0 0.0017242
14830.0 0.001755
14850.0 0.0017889
14870.0 0.001825
14890.0 0.0018645
14910.0 0.0019074
14930.0 0.0019502
14950.0 0.0019916
14970.0 0.0020326
14990.0 0.0020692
15010.0 0.0020998
15030.0 0.0021254
15050.0 0.0021461
15070.0 0.0021612
15090.0 0.002173
15110.0 0.0021825
15130.0 0.0021906
15150.0 0.0021979
15170.0 0.002205
15190.0 0.0022119
15210.0 0.0022189
15230.0 0.0022261
15250.0 0.0022333
15270.0 0.0022407
15290.0 0.0022483
15310.0 0.002256
15330.0 0.0022638
15350.0 0.0022717
15370.0 0.0022798
15390.0 0.002288
15410.0 0.0022964
15430.0 0.0023048
15450.0 0.0023134
15470.0 0.0023221
15490.0 0.0023309
15510.0 0.0023399
15530.0 0.0023489
15550.0 0.002358
15570.0 0.0023673
15590.0 0.0023767
15610.0 0.0023861
15630.0 0.0023957
15650.0 0.0024054
15670.0 0.0024151
15690.0 0.0024249
15710.0 0.0024349
15730.0 0.0024449
15750.0 0.002455
15770.0 0.0024651
15790.0 0.0024754
15810.0 0.0024857
15830.0 0.0024961
15850.0 0.0025065
15870.0 0.002517
15890.0 0.0025276
15910.0 0.0025382
15930.0 0.0025489
15950.0 0.0025596
15970.0 0.0025704
15990.0 0.0025812
16010.0 0.002592
16030.0 0.0026028
16050.0 0.0026138
16070.0 0.0026247
16090.0 0.0026356
16110.0 0.0026466
16130.0 0.0026576
16150.0 0.0026685
16170.0 0.0026795
16190.0 0.0026905
16210.0 0.0027015
16230.0 0.0027124
16250.0 0.0027234
16270.0 0.0027344
16290.0 0.0027453
16310.0 0.0027562
16330.0 0.0027671
16350.0 0.0027779
16370.0 0.0027887
16390.0 0.0027995
16410.0 0.0028102
16430.0 0.0028208
16450.0 0.0028314
16470.0 0.002842
16490.0 0.0028525
16510.0 0.0028629
16530.0 0.0028732
16550.0 0.0028835
16570.0 0.0028937
16590.0 0.0029037
16610.0 0.0029138
16630.0 0.0029237
16650.0 0.0029335
16670.0 0.0029432
16690.0 0.0029528
16710.0 0.0029623
16730.0 0.0029716
16750.0 0.0029809
16770.0 0.00299
16790.0 0.0029989
16810.0 0.0030078
16830.0 0.0030165
16850.0 0.0030251
16870.0 0.0030335
16890.0 0.0030418
16910.0 0.0030499
16930.0 0.0030578
16950.0 0.0030656
16970.0 0.0030732
16990.0 0.0030807
17010.0 0.0030879
17030.0 0.003095
17050.0 0.0031019
17070.0 0.0031086
17090.0 0.0031152
17110.0 0.0031215
17130.0 0.0031277
17150.0 0.0031336
17170.0 0.0031394
17190.0 0.0031449
17210.0 0.0031502
17230.0 0.0031553
17250.0 0.0031602
17270.0 0.0031649
17290.0 0.0031693
17310.0 0.0031736
17330.0 0.0031776
17350.0 0.0031813
17370.0 0.0031849
17390.0 0.0031882
17410.0 0.0031913
17430.0 0.0031942
17450.0 0.0031968
17470.0 0.0031991
17490.0 0.0032013
17510.0 0.0032032
17530.0 0.0032048
17550.0 0.0032062
17570.0 0.0032073
17590.0 0.0032083
17610.0 0.0032089
17630.0 0.0032093
17650.0 0.0032095
17670.0 0.0032094
17690.0 0.003209
17710.0 0.0032084
17730.0 0.0032076
17750.0 0.0032065
17770.0 0.0032051
17790.0 0.0032036
17810.0 0.0032017
17830.0 0.0031996
17850.0 0.0031972
17870.0 0.0031946
17890.0 0.0031918
17910.0 0.0031887
17930.0 0.0031854
17950.0 0.0031818
17970.0 0.0031779
17990.0 0.0031739
18010.0 0.0031696
18030.0 0.003165
18050.0 0.0031602
18070.0 0.0031552
18090.0 0.0031499
18110.0 0.0031444
18130.0 0.0031387
18150.0 0.0031327
18170.0 0.0031265
18190.0 0.0031201
18210.0 0.0031135
18230.0 0.0031066
18250.0 0.0030996
18270.0 0.0030923
18290.0 0.0030848
18310.0 0.0030771
18330.0 0.0030692
18350.0 0.0030611
18370.0 0.0030528
18390.0 0.0030443
18410.0 0.0030356
18430.0 0.0030267
18450.0 0.0030176
18470.0 0.0030083
18490.0 0.0029989
18510.0 0.0029893
18530.0 0.0029795
18550.0 0.0029696
18570.0 0.0029594
18590.0 0.0029491
18610.0 0.0029387
18630.0 0.0029281
18650.0 0.0029173
18670.0 0.0029064
18690.0 0.0028954
18710.0 0.0028842
18730.0 0.0028728
18750.0 0.0028614
18770.0 0.0028498
18790.0 0.002838
18810.0 0.0028262
18830.0 0.0028143
18850.0 0.0028022
18870.0 0.00279
18890.0 0.0027777
18910.0 0.0027653
18930.0 0.0027528
18950.0 0.0027402
18970.0 0.0027276
18990.0 0.0027148
19010.0 0.0027019
19030.0 0.002689
19050.0 0.002676
19070.0 0.0026629
19090.0 0.0026497
19110.0 0.0026365
19130.0 0.0026233
19150.0 0.0026099
19170.0 0.0025965
19190.0 0.0025831
19210.0 0.0025696
19230.0 0.002556
19250.0 0.0025425
19270.0 0.0025289
19290.0 0.0025152
19310.0 0.0025015
19330.0 0.0024879
19350.0 0.0024741
19370.0 0.0024604
19390.0 0.0024466
19410.0 0.0024328
19430.0 0.002419
19450.0 0.0024052
19470.0 0.0023914
19490.0 0.0023776
19510.0 0.0023638
19530.0 0.00235
19550.0 0.0023362
19570.0 0.0023224
19590.0 0.0023086
19610.0 0.0022949
19630.0 0.0022811
19650.0 0.0022674
19670.0 0.0022537
19690.0 0.00224
19710.0 0.0022264
19730.0 0.0022128
19750.0 0.0021992
19770.0 0.0021856
19790.0 0.0021721
19810.0 0.0021586
19830.0 0.0021451
19850.0 0.0021315
19870.0 0.0021178
19890.0 0.0021037
19910.0 0.0020888
19930.0 0.0020728
19950.0 0.0020549
19970.0 0.0020342
19990.0 0.0020102
20010.0 0.0019832
20030.0 0.0019522
20050.0 0.0019173
20070.0 0.0018804
20090.0 0.0018418
20110.0 0.0018003
20130.0 0.0017593
20150.0 0.0017194
20170.0 0.0016793
20190.0 0.0016397
20210.0 0.0016024
20230.0 0.0015664
20250.0 0.0015307
20270.0 0.0014971
20290.0 0.0014657
20310.0 0.0014352
20330.0 0.0014058
20350.0 0.0013793
20370.0 0.0013541
20390.0 0.00133
20410.0 0.0013078
20430.0 0.0012875
20450.0 0.0012679
20470.0 0.0012497
20490.0 0.0012333
20510.0 0.0012179
20530.0 0.0012036
20550.0 0.0011904
20570.0 0.0011785
20590.0 0.0011672
20610.0 0.0011569
20630.0 0.0011473
20650.0 0.0011383
20670.0 0.0011299
20690.0 0.001122
20710.0 0.0011144
20730.0 0.0011071
20750.0 0.0011
20770.0 0.0010931
20790.0 0.0010861
20810.0 0.0010791
20830.0 0.001072
20850.0 0.0010647
20870.0 0.0010572
20890.0 0.0010495
20910.0 0.0010415
20930.0 0.0010332
20950.0 0.0010246
20970.0 0.0010158
20990.0 0.0010067
21010.0 0.00099721
21030.0 0.00098749
21050.0 0.00097768
21070.0 0.00096759
21090.0 0.00095716
21110.0 0.00094682
21130.0 0.00093643
21150.0 0.00092579
21170.0 0.00091516
21190.0 0.00090471
21210.0 0.00089408
21230.0 0.00088339
21250.0 0.000873
21270.0 0.00086274
21290.0 0.00085242
21310.0 0.00084232
21330.0 0.00083264
21350.0 0.00082299
21370.0 0.00081351
21390.0 0.00080446
21410.0 0.00079573
21430.0 0.00078707
21450.0 0.00077891
21470.0 0.00077123
21490.0 0.00076384
21510.0 0.00075681
21530.0 0.00075031
21550.0 0.00074419
21570.0 0.00073842
21590.0 0.00073312
21610.0 0.00072825
21630.0 0.00072374
21650.0 0.00071962
21670.0 0.00071587
21690.0 0.00071244
21710.0 0.00070933
21730.0 0.00070649
21750.0 0.00070386
21770.0 0.00070151
21790.0 0.00069935
21810.0 0.00069728
21830.0 0.00069533
21850.0 0.00069353
21870.0 0.00069173
21890.0 0.0006899
21910.0 0.00068812
21930.0 0.0006863
21950.0 0.00068437
21970.0 0.00068237
21990.0 0.00068032
22010.0 0.00067809
22030.0 0.00067573
22050.0 0.00067325
22070.0 0.00067063
22090.0 0.00066786
22110.0 0.00066497
22130.0 0.00066195
22150.0 0.0006588
22170.0 0.00065556
22190.0 0.00065219
22210.0 0.00064872
22230.0 0.00064519
22250.0 0.00064155
22270.0 0.00063778
22290.0 0.00063393
22310.0 0.00062998
22330.0 0.00062581
22350.0 0.00062148
22370.0 0.00061702
22390.0 0.0006123
22410.0 0.00060723
22430.0 0.00060199
22450.0 0.00059648
22470.0 0.00059053
22490.0 0.00058426
22510.0 0.0005778
22530.0 0.00057082
22550.0 0.0005634
22570.0 0.0005559
22590.0 0.00054812
22610.0 0.00053992
22630.0 0.0005316
22650.0 0.00052342
22670.0 0.00051494
22690.0 0.00050639
22710.0 0.00049811
22730.0 0.00048997
22750.0 0.00048164
22770.0 0.00047379
22790.0 0.00046639
22810.0 0.00045912
22830.0 0.00045215
22850.0 0.00044576
22870.0 0.00043967
22890.0 0.00043379
22910.0 0.00042841
22930.0 0.00042345
22950.0 0.00041872
22970.0 0.00041424
22990.0 0.00041024
23010.0 0.00040642
23030.0 0.00040274
23050.0 0.0003993
23070.0 0.00039604
23090.0 0.00039277
23110.0 0.00038958
23130.0 0.00038651
23150.0 0.00038343
23170.0 0.0003803
23190.0 0.00037722
23210.0 0.0003742
23230.0 0.0003711
23250.0 0.00036804
23270.0 0.00036507
23290.0 0.00036213
23310.0 0.00035918
23330.0 0.00035643
23350.0 0.00035381
23370.0 0.00035126
23390.0 0.00034885
23410.0 0.00034663
23430.0 0.00034449
23450.0 0.00034245
23470.0 0.00034054
23490.0 0.00033873
23510.0 0.00033696
23530.0 0.00033526
23550.0 0.00033366
23570.0 0.00033208
23590.0 0.00033053
23610.0 0.00032906
23630.0 0.00032765
23650.0 0.00032629
23670.0 0.00032505
23690.0 0.00032395
23710.0 0.00032301
23730.0 0.00032229
23750.0 0.00032181
23770.0 0.00032161
23790.0 0.00032177
23810.0 0.00032231
23830.0 0.00032319
23850.0 0.00032458
23870.0 0.0003265
23890.0 0.00032877
23910.0 0.00033149
23930.0 0.00033477
23950.0 0.00033841
