#lamb flux
1010.0 0.00024751
1030.0 0.00025206
1050.0 0.00027094
1070.0 0.00029141
1090.0 0.00031343
1110.0 0.00033325
1130.0 0.00035056
1150.0 0.00036708
1170.0 0.00038255
1190.0 0.00039475
1210.0 0.00040636
1230.0 0.00041832
1250.0 0.00042949
1270.0 0.0004402
1290.0 0.00045305
1310.0 0.00046692
1330.0 0.00048122
1350.0 0.00049767
1370.0 0.00051712
1390.0 0.00053858
1410.0 0.00056234
1430.0 0.00059054
1450.0 0.00062257
1470.0 0.00065803
1490.0 0.00069843
1510.0 0.00074545
1530.0 0.00079677
1550.0 0.00085386
1570.0 0.00091854
1590.0 0.00099045
1610.0 0.0010686
1630.0 0.0011555
1650.0 0.0012518
1670.0 0.0013555
1690.0 0.0014674
1710.0 0.0015895
1730.0 0.0017204
1750.0 0.0018567
1770.0 0.0020017
1790.0 0.0021543
1810.0 0.0023107
1830.0 0.0024703
1850.0 0.0026359
1870.0 0.002801
1890.0 0.0029631
1910.0 0.0031234
1930.0 0.0032804
1950.0 0.0034276
1970.0 0.0035651
1990.0 0.0036947
2010.0 0.0038111
2030.0 0.0039117
2050.0 0.0040001
2070.0 0.0040756
2090.0 0.0041317
2110.0 0.0041726
2130.0 0.0042007
2150.0 0.0042133
2170.0 0.0042097
2190.0 0.0041965
2210.0 0.0041726
2230.0 0.0041366
2250.0 0.0040921
2270.0 0.0040436
2290.0 0.0039878
2310.0 0.0039259
2330.0 0.0038631
2350.0 0.0037995
2370.0 0.0037339
2390.0 0.0036702
2410.0 0.0036118
2430.0 0.0035562
2450.0 0.0035054
2470.0 0.0034639
2490.0 0.0034335
2510.0 0.0034124
2530.0 0.0034114
2550.0 0.0034439
2570.0 0.0035213
2590.0 0.0036591
2610.0 0.0039028
2630.0 0.0042622
2650.0 0.0047205
2670.0 0.0052923
2690.0 0.0059709
2710.0 0.0066805
2730.0 0.0073899
2750.0 0.0081295
2770.0 0.0088536
2790.0 0.0095488
2810.0 0.010264
2830.0 0.011042
2850.0 0.011825
2870.0 0.012653
2890.0 0.013564
2910.0 0.014531
2930.0 0.015522
2950.0 0.016599
2970.0 0.017753
2990.0 0.018938
3010.0 0.020175
3030.0 0.021503
3050.0 0.02288
3070.0 0.024234
3090.0 0.025607
3110.0 0.026922
3130.0 0.028071
3150.0 0.029001
3170.0 0.029628
3190.0 0.029918
3210.0 0.029944
3230.0 0.029774
3250.0 0.029556
3270.0 0.029492
3290.0 0.029625
3310.0 0.029967
3330.0 0.030525
3350.0 0.03122
3370.0 0.032046
3390.0 0.033123
3410.0 0.034061
3430.0 0.034979
3450.0 0.035891
3470.0 0.036983
3490.0 0.0397
3510.0 0.046256
3530.0 0.055557
3550.0 0.064158
3570.0 0.069914
3590.0 0.072791
3610.0 0.072435
3630.0 0.070507
3650.0 0.075888
3670.0 0.089399
3690.0 0.10091
3710.0 0.10813
3730.0 0.11463
3750.0 0.12117
3770.0 0.11957
3790.0 0.11199
3810.0 0.1044
3830.0 0.097599
3850.0 0.096769
3870.0 0.10502
3890.0 0.11405
3910.0 0.1201
3930.0 0.12543
3950.0 0.13848
3970.0 0.14981
3990.0 0.14307
4010.0 0.12525
4030.0 0.10934
4050.0 0.10464
4070.0 0.10572
4090.0 0.10449
4110.0 0.10262
4130.0 0.10109
4150.0 0.10176
4170.0 0.10966
4190.0 0.12009
4210.0 0.11938
4230.0 0.11393
4250.0 0.11191
4270.0 0.11329
4290.0 0.11956
4310.0 0.1257
4330.0 0.11986
4350.0 0.10394
4370.0 0.090913
4390.0 0.081077
4410.0 0.072705
4430.0 0.072111
4450.0 0.077879
4470.0 0.082929
4490.0 0.089401
4510.0 0.10242
4530.0 0.13077
4550.0 0.16973
4570.0 0.19359
4590.0 0.20683
4610.0 0.22967
4630.0 0.24751
4650.0 0.23269
4670.0 0.1915
4690.0 0.15576
4710.0 0.1392
4730.0 0.13386
4750.0 0.12427
4770.0 0.11593
4790.0 0.12204
4810.0 0.13367
4830.0 0.13568
4850.0 0.1273
4870.0 0.12516
4890.0 0.13449
4910.0 0.14324
4930.0 0.14501
4950.0 0.14064
4970.0 0.13142
4990.0 0.11815
5010.0 0.10652
5030.0 0.099567
5050.0 0.096075
5070.0 0.093241
5090.0 0.089974
5110.0 0.088771
5130.0 0.088927
5150.0 0.092235
5170.0 0.10214
5190.0 0.11557
5210.0 0.13071
5230.0 0.14094
5250.0 0.14645
5270.0 0.15419
5290.0 0.16389
5310.0 0.16779
5330.0 0.16185
5350.0 0.15241
5370.0 0.15124
5390.0 0.16107
5410.0 0.17523
5430.0 0.18498
5450.0 0.18797
5470.0 0.18507
5490.0 0.17836
5510.0 0.1729
5530.0 0.17038
5550.0 0.1696
5570.0 0.16803
5590.0 0.1636
5610.0 0.15647
5630.0 0.14556
5650.0 0.13273
5670.0 0.12407
5690.0 0.12039
5710.0 0.11868
5730.0 0.11733
5750.0 0.11497
5770.0 0.11239
5790.0 0.11197
5810.0 0.11154
5830.0 0.1116
5850.0 0.11169
5870.0 0.10885
5890.0 0.10395
5910.0 0.097454
5930.0 0.08735
5950.0 0.078184
5970.0 0.074696
5990.0 0.075968
6010.0 0.077172
6030.0 0.074652
6050.0 0.071869
6070.0 0.074568
6090.0 0.080856
6110.0 0.084657
6130.0 0.082882
6150.0 0.078423
6170.0 0.075237
6190.0 0.072528
6210.0 0.068361
6230.0 0.063186
6250.0 0.060223
6270.0 0.060861
6290.0 0.062363
6310.0 0.065693
6330.0 0.071594
6350.0 0.078356
6370.0 0.08237
6390.0 0.083794
6410.0 0.085108
6430.0 0.086243
6450.0 0.087593
6470.0 0.089518
6490.0 0.091556
6510.0 0.093218
6530.0 0.093637
6550.0 0.092936
6570.0 0.090228
6590.0 0.085611
6610.0 0.082183
6630.0 0.080296
6650.0 0.077733
6670.0 0.074062
6690.0 0.070832
6710.0 0.069225
6730.0 0.068182
6750.0 0.067012
6770.0 0.066015
6790.0 0.065067
6810.0 0.063507
6830.0 0.062426
6850.0 0.063771
6870.0 0.064863
6890.0 0.064081
6910.0 0.062836
6930.0 0.061764
6950.0 0.060347
6970.0 0.058039
6990.0 0.05583
7010.0 0.05474
7030.0 0.054024
7050.0 0.05208
7070.0 0.049238
7090.0 0.048287
7110.0 0.049926
7130.0 0.053188
7150.0 0.056457
7170.0 0.058669
7190.0 0.058568
7210.0 0.05618
7230.0 0.054598
7250.0 0.054916
7270.0 0.054786
7290.0 0.054326
7310.0 0.054956
7330.0 0.056826
7350.0 0.059312
7370.0 0.060857
7390.0 0.061036
7410.0 0.060207
7430.0 0.05839
7450.0 0.056054
7470.0 0.053775
7490.0 0.051921
7510.0 0.050516
7530.0 0.050053
7550.0 0.050513
7570.0 0.051132
7590.0 0.051904
7610.0 0.05203
7630.0 0.051989
7650.0 0.053095
7670.0 0.054985
7690.0 0.056997
7710.0 0.058971
7730.0 0.060724
7750.0 0.062724
7770.0 0.064531
7790.0 0.065947
7810.0 0.066588
7830.0 0.066217
7850.0 0.064613
7870.0 0.06188
7890.0 0.059056
7910.0 0.057584
7930.0 0.056755
7950.0 0.055713
7970.0 0.054955
7990.0 0.055109
8010.0 0.052483
8030.0 0.052146
8050.0 0.051684
8070.0 0.050999
8090.0 0.050317
8110.0 0.050371
8130.0 0.050709
8150.0 0.050602
8170.0 0.050302
8190.0 0.049037
8210.0 0.046308
8230.0 0.04349
8250.0 0.041998
8270.0 0.040645
8290.0 0.038831
8310.0 0.037569
8330.0 0.036998
8350.0 0.036084
8370.0 0.036067
8390.0 0.037762
8410.0 0.040216
8430.0 0.043159
8450.0 0.046423
8470.0 0.048664
8490.0 0.050804
8510.0 0.052598
8530.0 0.054356
8550.0 0.055943
8570.0 0.057106
8590.0 0.058112
8610.0 0.059696
8630.0 0.060364
8650.0 0.059337
8670.0 0.05953
8690.0 0.060963
8710.0 0.062573
8730.0 0.062841
8750.0 0.061619
8770.0 0.061323
8790.0 0.061231
8810.0 0.060157
8830.0 0.056147
8850.0 0.051145
8870.0 0.047576
8890.0 0.045974
8910.0 0.043829
8930.0 0.040834
8950.0 0.038708
8970.0 0.038294
8990.0 0.038786
9010.0 0.038828
9030.0 0.03851
9050.0 0.038232
9070.0 0.038014
9090.0 0.037805
9110.0 0.0376
9130.0 0.037394
9150.0 0.037192
9170.0 0.036989
9190.0 0.036789
9210.0 0.036593
9230.0 0.036393
9250.0 0.036196
9270.0 0.036001
9290.0 0.035807
9310.0 0.035615
9330.0 0.035424
9350.0 0.035234
9370.0 0.035046
9390.0 0.03486
9410.0 0.034674
9430.0 0.034485
9450.0 0.034278
9470.0 0.034079
9490.0 0.033921
9510.0 0.033752
9530.0 0.033583
9550.0 0.033409
9570.0 0.033235
9590.0 0.033063
9610.0 0.032891
9630.0 0.032718
9650.0 0.032547
9670.0 0.032379
9690.0 0.032209
9710.0 0.032041
9730.0 0.031875
9750.0 0.031709
9770.0 0.031541
9790.0 0.031377
9810.0 0.031214
9830.0 0.031049
9850.0 0.030875
9870.0 0.030717
9890.0 0.030559
9910.0 0.030399
9930.0 0.03024
9950.0 0.030077
9970.0 0.029917
9990.0 0.029755
10010.0 0.029582
10030.0 0.029417
10050.0 0.029266
10070.0 0.029114
10090.0 0.028962
10110.0 0.028793
10130.0 0.028568
10150.0 0.028421
10170.0 0.028287
10190.0 0.028136
10210.0 0.027988
10230.0 0.027839
10250.0 0.027677
10270.0 0.027515
10290.0 0.027359
10310.0 0.027195
10330.0 0.027023
10350.0 0.026861
10370.0 0.026699
10390.0 0.026528
10410.0 0.026357
10430.0 0.026196
10450.0 0.026026
10470.0 0.02585
10490.0 0.025681
10510.0 0.025513
10530.0 0.02533
10550.0 0.025152
10570.0 0.024981
10590.0 0.024802
10610.0 0.024618
10630.0 0.024441
10650.0 0.024263
10670.0 0.024072
10690.0 0.023886
10710.0 0.023704
10730.0 0.023513
10750.0 0.023314
10770.0 0.023127
10790.0 0.022937
10810.0 0.022737
10830.0 0.02254
10850.0 0.022349
10870.0 0.022143
10890.0 0.021936
10910.0 0.021738
10930.0 0.021536
10950.0 0.021327
10970.0 0.021124
10990.0 0.020931
11010.0 0.019949
11030.0 0.019738
11050.0 0.019542
11070.0 0.01935
11090.0 0.019154
11110.0 0.018978
11130.0 0.018812
11150.0 0.018649
11170.0 0.018497
11190.0 0.018361
11210.0 0.018234
11230.0 0.018114
11250.0 0.01801
11270.0 0.017918
11290.0 0.017833
11310.0 0.017759
11330.0 0.017697
11350.0 0.01764
11370.0 0.017588
11390.0 0.017541
11410.0 0.017497
11430.0 0.017451
11450.0 0.017405
11470.0 0.017357
11490.0 0.017304
11510.0 0.017244
11530.0 0.017179
11550.0 0.017107
11570.0 0.017023
11590.0 0.016931
11610.0 0.016831
11630.0 0.016718
11650.0 0.016589
11670.0 0.016454
11690.0 0.016308
11710.0 0.016143
11730.0 0.015966
11750.0 0.015783
11770.0 0.015581
11790.0 0.015362
11810.0 0.015138
11830.0 0.014904
11850.0 0.014648
11870.0 0.01439
11890.0 0.014135
11910.0 0.013868
11930.0 0.013597
11950.0 0.013337
11970.0 0.013078
11990.0 0.012814
12010.0 0.012564
12030.0 0.012328
12050.0 0.012095
12070.0 0.011869
12090.0 0.011667
12110.0 0.011473
12130.0 0.011286
12150.0 0.011115
12170.0 0.010962
12190.0 0.010814
12210.0 0.010682
12230.0 0.010569
12250.0 0.010469
12270.0 0.010383
12290.0 0.010313
12310.0 0.01026
12330.0 0.010218
12350.0 0.01019
12370.0 0.010173
12390.0 0.010167
12410.0 0.01017
12430.0 0.010179
12450.0 0.010193
12470.0 0.010212
12490.0 0.010235
12510.0 0.010256
12530.0 0.01028
12550.0 0.010304
12570.0 0.010324
12590.0 0.010341
12610.0 0.010356
12630.0 0.010364
12650.0 0.010364
12670.0 0.010356
12690.0 0.010339
12710.0 0.010311
12730.0 0.010273
12750.0 0.010222
12770.0 0.01016
12790.0 0.010089
12810.0 0.010006
12830.0 0.0099124
12850.0 0.0098149
12870.0 0.0097124
12890.0 0.0096027
12910.0 0.0094921
12930.0 0.0093839
12950.0 0.009273
12970.0 0.0091623
12990.0 0.009059
13010.0 0.0089591
13030.0 0.0088604
13050.0 0.0087673
13070.0 0.008681
13090.0 0.0085959
13110.0 0.0085142
13130.0 0.0084385
13150.0 0.0083663
13170.0 0.0082948
13190.0 0.0082289
13210.0 0.0081678
13230.0 0.0081085
13250.0 0.008052
13270.0 0.0080002
13290.0 0.0079504
13310.0 0.0079015
13330.0 0.0078555
13350.0 0.0078113
13370.0 0.0077666
13390.0 0.0077211
13410.0 0.0076768
13430.0 0.0076303
13450.0 0.0075807
13470.0 0.0075294
13490.0 0.0074763
13510.0 0.007417
13530.0 0.0073546
13550.0 0.0072907
13570.0 0.0072228
13590.0 0.0071499
13610.0 0.0070762
13630.0 0.0070022
13650.0 0.0069234
13670.0 0.0068439
13690.0 0.006766
13710.0 0.0066867
13730.0 0.0066039
13750.0 0.0065257
13770.0 0.0064487
13790.0 0.0063702
13810.0 0.0062931
13830.0 0.0062204
13850.0 0.0061468
13870.0 0.0060736
13890.0 0.0060049
13910.0 0.005939
13930.0 0.0058734
13950.0 0.0058112
13970.0 0.0057551
13990.0 0.0057007
14010.0 0.0056489
14030.0 0.0056021
14050.0 0.0055588
14070.0 0.0055164
14090.0 0.005478
14110.0 0.0054431
14130.0 0.0054096
14150.0 0.0053773
14170.0 0.0053479
14190.0 0.0053198
14210.0 0.0052918
14230.0 0.0052649
14250.0 0.0052394
14270.0 0.0052133
14290.0 0.005187
14310.0 0.0051622
14330.0 0.0051373
14350.0 0.0051117
14370.0 0.0050866
14390.0 0.0050625
14410.0 0.0050375
14430.0 0.0050127
14450.0 0.0049891
14470.0 0.0049658
14490.0 0.0049417
14510.0 0.004919
14530.0 0.0048973
14550.0 0.0048749
14570.0 0.0048522
14590.0 0.00483
14610.0 0.0048068
14630.0 0.0047818
14650.0 0.0047567
14670.0 0.0047315
14690.0 0.0047053
14710.0 0.0046792
14730.0 0.0046564
14750.0 0.0046359
14770.0 0.0046193
14790.0 0.0046091
14810.0 0.0046064
14830.0 0.0046125
14850.0 0.0046293
14870.0 0.0046561
14890.0 0.0046935
14910.0 0.0047416
14930.0 0.0047952
14950.0 0.0048513
14970.0 0.0049096
14990.0 0.0049634
15010.0 0.005009
15030.0 0.0050471
15050.0 0.0050772
15070.0 0.0050981
15090.0 0.0051133
15110.0 0.0051246
15130.0 0.0051332
15150.0 0.0051405
15170.0 0.0051471
15190.0 0.0051535
15210.0 0.0051599
15230.0 0.0051665
15250.0 0.0051731
15270.0 0.0051799
15290.0 0.005187
15310.0 0.0051941
15330.0 0.0052014
15350.0 0.0052089
15370.0 0.0052166
15390.0 0.0052243
15410.0 0.0052322
15430.0 0.0052404
15450.0 0.0052486
15470.0 0.0052569
15490.0 0.0052655
15510.0 0.0052742
15530.0 0.005283
15550.0 0.005292
15570.0 0.0053011
15590.0 0.0053103
15610.0 0.0053196
15630.0 0.0053292
15650.0 0.0053388
15670.0 0.0053485
15690.0 0.0053584
15710.0 0.0053684
15730.0 0.0053785
15750.0 0.0053887
15770.0 0.0053991
15790.0 0.0054095
15810.0 0.00542
15830.0 0.0054307
15850.0 0.0054415
15870.0 0.0054523
15890.0 0.0054632
15910.0 0.0054743
15930.0 0.0054855
15950.0 0.0054966
15970.0 0.0055079
15990.0 0.0055193
16010.0 0.0055308
16030.0 0.0055423
16050.0 0.0055539
16070.0 0.0055656
16090.0 0.0055773
16110.0 0.0055891
16130.0 0.005601
16150.0 0.0056129
16170.0 0.0056248
16190.0 0.0056368
16210.0 0.0056489
16230.0 0.0056609
16250.0 0.0056731
16270.0 0.0056853
16290.0 0.0056974
16310.0 0.0057096
16330.0 0.0057219
16350.0 0.0057341
16370.0 0.0057463
16390.0 0.0057586
16410.0 0.0057709
16430.0 0.0057832
16450.0 0.0057954
16470.0 0.0058077
16490.0 0.00582
16510.0 0.0058322
16530.0 0.0058444
16550.0 0.0058566
16570.0 0.0058688
16590.0 0.0058809
16610.0 0.005893
16630.0 0.0059051
16650.0 0.0059171
16670.0 0.0059291
16690.0 0.005941
16710.0 0.0059528
16730.0 0.0059646
16750.0 0.0059764
16770.0 0.005988
16790.0 0.0059996
16810.0 0.0060111
16830.0 0.0060226
16850.0 0.0060339
16870.0 0.0060451
16890.0 0.0060563
16910.0 0.0060673
16930.0 0.0060782
16950.0 0.0060891
16970.0 0.0060998
16990.0 0.0061104
17010.0 0.0061209
17030.0 0.0061313
17050.0 0.0061414
17070.0 0.0061515
17090.0 0.0061615
17110.0 0.0061713
17130.0 0.0061808
17150.0 0.0061903
17170.0 0.0061997
17190.0 0.0062088
17210.0 0.0062178
17230.0 0.0062267
17250.0 0.0062353
17270.0 0.0062437
17290.0 0.006252
17310.0 0.0062601
17330.0 0.006268
17350.0 0.0062756
17370.0 0.0062832
17390.0 0.0062905
17410.0 0.0062975
17430.0 0.0063044
17450.0 0.0063111
17470.0 0.0063175
17490.0 0.0063237
17510.0 0.0063297
17530.0 0.0063354
17550.0 0.0063409
17570.0 0.0063462
17590.0 0.0063512
17610.0 0.006356
17630.0 0.0063605
17650.0 0.0063648
17670.0 0.0063688
17690.0 0.0063724
17710.0 0.006376
17730.0 0.0063792
17750.0 0.0063821
17770.0 0.0063848
17790.0 0.0063872
17810.0 0.0063893
17830.0 0.0063911
17850.0 0.0063927
17870.0 0.006394
17890.0 0.0063949
17910.0 0.0063955
17930.0 0.0063959
17950.0 0.006396
17970.0 0.0063958
17990.0 0.0063953
18010.0 0.0063945
18030.0 0.0063932
18050.0 0.0063918
18070.0 0.0063901
18090.0 0.006388
18110.0 0.0063855
18130.0 0.0063829
18150.0 0.0063799
18170.0 0.0063765
18190.0 0.0063729
18210.0 0.006369
18230.0 0.0063646
18250.0 0.0063599
18270.0 0.006355
18290.0 0.0063498
18310.0 0.0063441
18330.0 0.0063382
18350.0 0.006332
18370.0 0.0063254
18390.0 0.0063184
18410.0 0.0063112
18430.0 0.0063037
18450.0 0.0062957
18470.0 0.0062875
18490.0 0.006279
18510.0 0.0062701
18530.0 0.0062609
18550.0 0.0062514
18570.0 0.0062415
18590.0 0.0062313
18610.0 0.0062208
18630.0 0.00621
18650.0 0.0061988
18670.0 0.0061872
18690.0 0.0061755
18710.0 0.0061634
18730.0 0.0061509
18750.0 0.0061382
18770.0 0.0061252
18790.0 0.0061117
18810.0 0.006098
18830.0 0.006084
18850.0 0.0060697
18870.0 0.006055
18890.0 0.0060401
18910.0 0.0060249
18930.0 0.0060093
18950.0 0.0059935
18970.0 0.0059774
18990.0 0.005961
19010.0 0.0059442
19030.0 0.0059272
19050.0 0.00591
19070.0 0.0058924
19090.0 0.0058745
19110.0 0.0058565
19130.0 0.005838
19150.0 0.0058193
19170.0 0.0058004
19190.0 0.0057812
19210.0 0.0057617
19230.0 0.005742
19250.0 0.0057221
19270.0 0.0057018
19290.0 0.0056813
19310.0 0.0056607
19330.0 0.0056397
19350.0 0.0056185
19370.0 0.0055971
19390.0 0.0055754
19410.0 0.0055535
19430.0 0.0055314
19450.0 0.0055092
19470.0 0.0054867
19490.0 0.0054639
19510.0 0.0054409
19530.0 0.0054179
19550.0 0.0053945
19570.0 0.0053709
19590.0 0.0053472
19610.0 0.0053233
19630.0 0.0052992
19650.0 0.005275
19670.0 0.0052506
19690.0 0.005226
19710.0 0.0052012
19730.0 0.0051763
19750.0 0.0051512
19770.0 0.0051259
19790.0 0.0051006
19810.0 0.0050751
19830.0 0.0050493
19850.0 0.0050232
19870.0 0.0049967
19890.0 0.0049693
19910.0 0.0049401
19930.0 0.0049086
19950.0 0.0048737
19970.0 0.0048333
19990.0 0.0047864
20010.0 0.0047341
20030.0 0.004674
20050.0 0.0046065
20070.0 0.004535
20090.0 0.0044602
20110.0 0.0043794
20130.0 0.0042989
20150.0 0.0042201
20170.0 0.0041402
20190.0 0.0040603
20210.0 0.0039841
20230.0 0.0039093
20250.0 0.0038342
20270.0 0.0037624
20290.0 0.003694
20310.0 0.0036266
20330.0 0.0035605
20350.0 0.0035
20370.0 0.0034417
20390.0 0.0033853
20410.0 0.0033326
20430.0 0.0032838
20450.0 0.0032365
20470.0 0.0031925
20490.0 0.0031523
20510.0 0.0031148
20530.0 0.0030796
20550.0 0.0030475
20570.0 0.0030183
20590.0 0.0029909
20610.0 0.0029658
20630.0 0.0029426
20650.0 0.002921
20670.0 0.0029009
20690.0 0.0028819
20710.0 0.0028637
20730.0 0.0028462
20750.0 0.0028291
20770.0 0.002812
20790.0 0.0027947
20810.0 0.0027772
20830.0 0.0027591
20850.0 0.0027402
20870.0 0.0027204
20890.0 0.0026995
20910.0 0.0026776
20930.0 0.0026546
20950.0 0.0026301
20970.0 0.0026046
20990.0 0.0025781
21010.0 0.0025501
21030.0 0.002521
21050.0 0.0024912
21070.0 0.0024604
21090.0 0.0024283
21110.0 0.0023962
21130.0 0.0023637
21150.0 0.0023303
21170.0 0.0022967
21190.0 0.0022636
21210.0 0.0022298
21230.0 0.0021956
21250.0 0.0021624
21270.0 0.0021295
21290.0 0.0020963
21310.0 0.0020637
21330.0 0.0020324
21350.0 0.0020011
21370.0 0.0019702
21390.0 0.0019406
21410.0 0.0019118
21430.0 0.0018831
21450.0 0.0018558
21470.0 0.0018298
21490.0 0.0018044
21510.0 0.0017799
21530.0 0.0017569
21550.0 0.0017347
21570.0 0.0017132
21590.0 0.0016928
21610.0 0.0016735
21630.0 0.0016548
21650.0 0.0016367
21670.0 0.0016197
21690.0 0.0016031
21710.0 0.001587
21730.0 0.0015714
21750.0 0.0015561
21770.0 0.001541
21790.0 0.0015262
21810.0 0.0015115
21830.0 0.0014969
21850.0 0.0014822
21870.0 0.0014675
21890.0 0.0014529
21910.0 0.0014381
21930.0 0.0014232
21950.0 0.0014083
21970.0 0.0013932
21990.0 0.0013777
22010.0 0.0013623
22030.0 0.0013468
22050.0 0.0013309
22070.0 0.0013149
22090.0 0.0012989
22110.0 0.0012826
22130.0 0.0012659
22150.0 0.0012493
22170.0 0.0012325
22190.0 0.0012152
22210.0 0.0011978
22230.0 0.0011805
22250.0 0.0011629
22270.0 0.001145
22290.0 0.0011272
22310.0 0.0011094
22330.0 0.0010911
22350.0 0.0010728
22370.0 0.0010548
22390.0 0.0010365
22410.0 0.001018
22430.0 0.00099994
22450.0 0.000982
22470.0 0.00096381
22490.0 0.00094585
22510.0 0.00092838
22530.0 0.0009107
22550.0 0.00089308
22570.0 0.00087615
22590.0 0.00085951
22610.0 0.00084291
22630.0 0.00082682
22650.0 0.0008115
22670.0 0.00079632
22690.0 0.00078155
22710.0 0.00076755
22730.0 0.00075409
22750.0 0.00074081
22770.0 0.00072837
22790.0 0.00071665
22810.0 0.00070531
22830.0 0.0006945
22850.0 0.00068441
22870.0 0.00067478
22890.0 0.00066553
22910.0 0.00065684
22930.0 0.00064865
22950.0 0.0006408
22970.0 0.00063329
22990.0 0.00062626
23010.0 0.00061949
23030.0 0.00061296
23050.0 0.00060669
23070.0 0.00060064
23090.0 0.0005947
23110.0 0.00058889
23130.0 0.00058318
23150.0 0.00057751
23170.0 0.0005718
23190.0 0.00056608
23210.0 0.00056032
23230.0 0.0005544
23250.0 0.00054833
23270.0 0.00054215
23290.0 0.00053574
23310.0 0.00052901
23330.0 0.00052215
23350.0 0.00051508
23370.0 0.00050769
23390.0 0.00050007
23410.0 0.00049243
23430.0 0.00048454
23450.0 0.00047646
23470.0 0.00046846
23490.0 0.00046054
23510.0 0.00045252
23530.0 0.0004447
23550.0 0.00043729
23570.0 0.00043008
23590.0 0.00042317
23610.0 0.00041678
23630.0 0.00041086
23650.0 0.00040535
23670.0 0.00040047
23690.0 0.00039621
23710.0 0.00039256
23730.0 0.00038961
23750.0 0.00038734
23770.0 0.00038574
23790.0 0.00038494
23810.0 0.00038485
23830.0 0.00038534
23850.0 0.0003867
23870.0 0.00038885
23890.0 0.00039138
23910.0 0.00039447
23930.0 0.00039824
23950.0 0.00040227
23970.0 0.00040625
23990.0 0.00041064
24010.0 0.00041509
24030.0 0.00041914
24050.0 0.00042296
24070.0 0.00042681
24090.0 0.00042992
24110.0 0.00043241
24130.0 0.00043457
24150.0 0.00043626
24170.0 0.00043724
24190.0 0.00043786
24210.0 0.00043821
24230.0 0.00043809
24250.0 0.00043764
24270.0 0.00043706
24290.0 0.00043636
24310.0 0.00043539
24330.0 0.00043442
24350.0 0.0004335
