#lamb flux
1010.0 0.00025264
1030.0 0.00034038
1050.0 0.00045815
1070.0 0.00061255
1090.0 0.00081419
1110.0 0.0010595
1130.0 0.0013493
1150.0 0.0016923
1170.0 0.0020891
1190.0 0.0025189
1210.0 0.0029894
1230.0 0.0034986
1250.0 0.0040216
1270.0 0.0045401
1290.0 0.0050638
1310.0 0.0055594
1330.0 0.005995
1350.0 0.0063714
1370.0 0.0066818
1390.0 0.0068958
1410.0 0.0070056
1430.0 0.0070328
1450.0 0.0069638
1470.0 0.0067955
1490.0 0.0065506
1510.0 0.0062502
1530.0 0.0058805
1550.0 0.0054671
1570.0 0.005031
1590.0 0.0045789
1610.0 0.0041171
1630.0 0.0036663
1650.0 0.0032318
1670.0 0.002814
1690.0 0.0024203
1710.0 0.002057
1730.0 0.0017226
1750.0 0.0014159
1770.0 0.0011408
1790.0 0.0008956
1810.0 0.0006782
1830.0 0.0004882
1850.0 0.00033662
1870.0 0.00021876
1890.0 0.00012082
1910.0 4.1948e-05
1930.0 1e-99
1950.0 1e-99
1970.0 1e-99
1990.0 1e-99
2010.0 1e-99
2030.0 1e-99
2050.0 1e-99
2070.0 1e-99
2090.0 4.9622e-05
2110.0 0.00011801
2130.0 0.00019769
2150.0 0.00028791
2170.0 0.00038768
2190.0 0.00049666
2210.0 0.00062259
2230.0 0.00076642
2250.0 0.00091767
2270.0 0.0010761
2290.0 0.0012395
2310.0 0.0014064
2330.0 0.0015769
2350.0 0.0017496
2370.0 0.0019217
2390.0 0.0020933
2410.0 0.0022639
2430.0 0.0024298
2450.0 0.0025895
2470.0 0.0027428
2490.0 0.0028883
2510.0 0.0030237
2530.0 0.0031539
2550.0 0.0032867
2570.0 0.0034327
2590.0 0.0036069
2610.0 0.0038463
2630.0 0.0041787
2650.0 0.0046156
2670.0 0.0051969
2690.0 0.0059601
2710.0 0.0068566
2730.0 0.0078471
2750.0 0.0089622
2770.0 0.01008
2790.0 0.011083
2810.0 0.011968
2830.0 0.012724
2850.0 0.013219
2870.0 0.013527
2890.0 0.013711
2910.0 0.013769
2930.0 0.013706
2950.0 0.013596
2970.0 0.013444
2990.0 0.013228
3010.0 0.012975
3030.0 0.012718
3050.0 0.012445
3070.0 0.012132
3090.0 0.01183
3110.0 0.011542
3130.0 0.011261
3150.0 0.010375
3170.0 0.0096736
3190.0 0.008949
3210.0 0.0083121
3230.0 0.0080513
3250.0 0.0092777
3270.0 0.012553
3290.0 0.014275
3310.0 0.010824
3330.0 0.010485
3350.0 0.010847
3370.0 0.011322
3390.0 0.011755
3410.0 0.011902
3430.0 0.011821
3450.0 0.011677
3470.0 0.01165
3490.0 0.011209
3510.0 0.0090087
3530.0 0.005056
3550.0 0.0038875
3570.0 0.0098432
3590.0 0.017987
3610.0 0.022382
3630.0 0.033132
3650.0 0.034922
3670.0 0.028264
3690.0 0.02018
3710.0 0.015554
3730.0 0.016075
3750.0 0.01694
3770.0 0.017557
3790.0 0.018126
3810.0 0.021625
3830.0 0.01968
3850.0 0.015368
3870.0 0.012969
3890.0 0.016213
3910.0 0.018599
3930.0 0.018764
3950.0 0.020554
3970.0 0.022574
3990.0 0.021835
4010.0 0.023445
4030.0 0.022398
4050.0 0.021094
4070.0 0.02005
4090.0 0.020361
4110.0 0.021326
4130.0 0.020932
4150.0 0.019678
4170.0 0.018966
4190.0 0.019334
4210.0 0.017305
4230.0 0.015553
4250.0 0.013209
4270.0 0.010682
4290.0 0.010586
4310.0 0.010226
4330.0 0.010227
4350.0 0.013014
4370.0 0.013226
4390.0 0.01545
4410.0 0.016902
4430.0 0.018142
4450.0 0.015898
4470.0 0.013127
4490.0 0.012418
4510.0 0.011474
4530.0 0.010852
4550.0 0.01014
4570.0 0.0099531
4590.0 0.010141
4610.0 0.008948
4630.0 0.0082065
4650.0 0.0072085
4670.0 0.0070478
4690.0 0.0058568
4710.0 0.0050698
4730.0 0.0039316
4750.0 0.0033312
4770.0 0.0016116
4790.0 0.0017134
4810.0 0.0015616
4830.0 1e-99
4850.0 0.00042127
4870.0 1e-99
4890.0 1e-99
4910.0 0.0012542
4930.0 0.0016001
4950.0 1e-99
4970.0 1e-99
4990.0 0.0001789
5010.0 1e-99
5030.0 1e-99
5050.0 0.00015091
5070.0 2.1341e-05
5090.0 6.7815e-05
5110.0 0.0002989
5130.0 0.00014765
5150.0 0.00057133
5170.0 1e-99
5190.0 1e-99
5210.0 1e-99
5230.0 1e-99
5250.0 0.00037669
5270.0 0.0020693
5290.0 0.0019493
5310.0 0.00092177
5330.0 0.0011041
5350.0 0.00017733
5370.0 0.00038802
5390.0 0.00090356
5410.0 0.00068905
5430.0 0.0015693
5450.0 0.00056434
5470.0 0.00054206
5490.0 0.0030369
5510.0 0.0030253
5530.0 0.0031381
5550.0 0.0028348
5570.0 0.0035697
5590.0 0.0045096
5610.0 0.0045914
5630.0 0.0042571
5650.0 0.0043858
5670.0 0.0043591
5690.0 0.0046831
5710.0 0.0040271
5730.0 0.004469
5750.0 0.0044785
5770.0 0.0041687
5790.0 0.004999
5810.0 0.0054554
5830.0 0.0051673
5850.0 0.0041775
5870.0 0.0036382
5890.0 0.003652
5910.0 0.0045055
5930.0 0.0042865
5950.0 0.0046572
5970.0 0.0047581
5990.0 0.0052063
6010.0 0.0049855
6030.0 0.0051629
6050.0 0.0050944
6070.0 0.004493
6090.0 0.0049485
6110.0 0.0051719
6130.0 0.00481
6150.0 0.0048548
6170.0 0.0050003
6190.0 0.0038411
6210.0 0.0039629
6230.0 0.0043286
6250.0 0.0042907
6270.0 0.0042679
6290.0 0.004736
6310.0 0.0053301
6330.0 0.0054161
6350.0 0.0052405
6370.0 0.0054304
6390.0 0.0047924
6410.0 0.0049873
6430.0 0.0046478
6450.0 0.004791
6470.0 0.0049462
6490.0 0.0050491
6510.0 0.0044627
6530.0 0.0045528
6550.0 0.0044856
6570.0 0.0041334
6590.0 0.0044842
6610.0 0.0045158
6630.0 0.0045001
6650.0 0.0041311
6670.0 0.0039213
6690.0 0.0037714
6710.0 0.0035612
6730.0 0.0034107
6750.0 0.0034256
6770.0 0.0031416
6790.0 0.0017007
6810.0 0.0022027
6830.0 0.002983
6850.0 0.0025551
6870.0 0.0025113
6890.0 0.0024396
6910.0 0.0023938
6930.0 0.0022387
6950.0 0.0024485
6970.0 0.0023421
6990.0 0.0022966
7010.0 0.0022531
7030.0 0.0024505
7050.0 0.002407
7070.0 0.0017616
7090.0 0.0011991
7110.0 0.0010358
7130.0 0.0012162
7150.0 0.0013092
7170.0 0.0012701
7190.0 0.00093015
7210.0 0.001428
7230.0 0.0018875
7250.0 0.0018181
7270.0 0.001867
7290.0 0.0020744
7310.0 0.0016603
7330.0 0.0015229
7350.0 0.0013803
7370.0 0.001714
7390.0 0.0021504
7410.0 0.001429
7430.0 0.0015224
7450.0 0.001462
7470.0 0.0018769
7490.0 0.0019565
7510.0 0.0015786
7530.0 0.0018228
7550.0 0.00064014
7570.0 0.00041566
7590.0 0.0010316
7610.0 0.0016121
7630.0 0.001243
7650.0 0.0015854
7670.0 0.00074732
7690.0 0.00014824
7710.0 0.00043053
7730.0 0.0010351
7750.0 0.00043007
7770.0 0.0012229
7790.0 0.0015427
7810.0 0.0010433
7830.0 0.0014804
7850.0 0.00077944
7870.0 0.0013451
7890.0 0.00095961
7910.0 0.00096679
7930.0 0.00051076
7950.0 6.832e-05
7970.0 0.00040208
7990.0 0.00082551
8010.0 0.0039823
8030.0 0.003848
8050.0 0.0037838
8070.0 0.0036843
8090.0 0.003435
8110.0 0.00333
8130.0 0.0036672
8150.0 0.0039201
8170.0 0.004068
8190.0 0.0042881
8210.0 0.0040783
8230.0 0.0040797
8250.0 0.0040375
8270.0 0.0040971
8290.0 0.004072
8310.0 0.0038531
8330.0 0.0036813
8350.0 0.0038155
8370.0 0.0038974
8390.0 0.0037835
8410.0 0.0037414
8430.0 0.0036
8450.0 0.0034697
8470.0 0.003765
8490.0 0.0037811
8510.0 0.0035165
8530.0 0.0035529
8550.0 0.0035124
8570.0 0.0032162
8590.0 0.0032792
8610.0 0.0032711
8630.0 0.0034426
8650.0 0.0034636
8670.0 0.0035079
8690.0 0.003426
8710.0 0.0033723
8730.0 0.003214
8750.0 0.0031289
8770.0 0.0030983
8790.0 0.0033004
8810.0 0.003057
8830.0 0.0029899
8850.0 0.00319
8870.0 0.0030169
8890.0 0.0027544
8910.0 0.0027258
8930.0 0.0028187
8950.0 0.0025595
8970.0 0.0024462
8990.0 0.0023871
9010.0 0.0022324
9030.0 0.0021968
9050.0 0.0021871
9070.0 0.0021787
9090.0 0.0021702
9110.0 0.0021617
9130.0 0.002153
9150.0 0.0021443
9170.0 0.0021354
9190.0 0.0021265
9210.0 0.0021175
9230.0 0.0021084
9250.0 0.0020993
9270.0 0.0020901
9290.0 0.0020809
9310.0 0.0020732
9330.0 0.002068
9350.0 0.0020628
9370.0 0.0020574
9390.0 0.002052
9410.0 0.0020464
9430.0 0.0020408
9450.0 0.0020351
9470.0 0.0020303
9490.0 0.0020249
9510.0 0.0020184
9530.0 0.0020118
9550.0 0.0020055
9570.0 0.0019993
9590.0 0.0019929
9610.0 0.0019892
9630.0 0.0019858
9650.0 0.0019822
9670.0 0.0019782
9690.0 0.0019744
9710.0 0.0019706
9730.0 0.0019664
9750.0 0.0019622
9770.0 0.0019582
9790.0 0.0019538
9810.0 0.0019493
9830.0 0.0019449
9850.0 0.0019392
9870.0 0.0019322
9890.0 0.0019289
9910.0 0.001925
9930.0 0.0019198
9950.0 0.001915
9970.0 0.0019104
9990.0 0.0019057
10010.0 0.0019007
10030.0 0.0018956
10050.0 0.0018904
10070.0 0.001885
10090.0 0.0018797
10110.0 0.0018743
10130.0 0.0018688
10150.0 0.0018633
10170.0 0.0018578
10190.0 0.0018522
10210.0 0.0018466
10230.0 0.001841
10250.0 0.0018353
10270.0 0.0018297
10290.0 0.0018239
10310.0 0.0018182
10330.0 0.0018125
10350.0 0.0018067
10370.0 0.0018009
10390.0 0.0017951
10410.0 0.0017879
10430.0 0.0017803
10450.0 0.001776
10470.0 0.0017708
10490.0 0.0017655
10510.0 0.0017601
10530.0 0.0017543
10550.0 0.0017485
10570.0 0.0017428
10590.0 0.001737
10610.0 0.0017312
10630.0 0.0017255
10650.0 0.0017198
10670.0 0.0017139
10690.0 0.0017082
10710.0 0.0017026
10730.0 0.0016968
10750.0 0.001691
10770.0 0.0016854
10790.0 0.0016799
10810.0 0.0016742
10830.0 0.0016686
10850.0 0.0016631
10870.0 0.0016574
10890.0 0.0016517
10910.0 0.001646
10930.0 0.0016401
10950.0 0.0016337
10970.0 0.0016269
10990.0 0.0016198
11010.0 0.0015027
11030.0 0.001494
11050.0 0.0014831
11070.0 0.0014704
11090.0 0.0014559
11110.0 0.0014406
11130.0 0.0014246
11150.0 0.0014079
11170.0 0.0013908
11190.0 0.0013739
11210.0 0.0013566
11230.0 0.001339
11250.0 0.0013217
11270.0 0.0013046
11290.0 0.0012873
11310.0 0.0012702
11330.0 0.0012539
11350.0 0.0012378
11370.0 0.001222
11390.0 0.0012069
11410.0 0.0011923
11430.0 0.0011778
11450.0 0.0011639
11470.0 0.0011505
11490.0 0.0011373
11510.0 0.0011243
11530.0 0.0011116
11550.0 0.0010991
11570.0 0.0010865
11590.0 0.001074
11610.0 0.0010617
11630.0 0.0010491
11650.0 0.0010364
11670.0 0.0010238
11690.0 0.0010112
11710.0 0.00099822
11730.0 0.00098523
11750.0 0.00097237
11770.0 0.00095922
11790.0 0.00094592
11810.0 0.0009328
11830.0 0.00091969
11850.0 0.00090633
11870.0 0.00089327
11890.0 0.00088058
11910.0 0.00086795
11930.0 0.00085555
11950.0 0.00084373
11970.0 0.00083227
11990.0 0.00082108
12010.0 0.00081053
12030.0 0.0008006
12050.0 0.00079114
12070.0 0.00078222
12090.0 0.00077405
12110.0 0.00076642
12130.0 0.00075933
12150.0 0.00075281
12170.0 0.00074679
12190.0 0.00074124
12210.0 0.0007361
12230.0 0.00073127
12250.0 0.0007267
12270.0 0.00072235
12290.0 0.00071807
12310.0 0.0007138
12330.0 0.00070953
12350.0 0.00070515
12370.0 0.00070059
12390.0 0.00069583
12410.0 0.00069081
12430.0 0.0006855
12450.0 0.0006799
12470.0 0.00067393
12490.0 0.0006676
12510.0 0.00066103
12530.0 0.00065405
12550.0 0.00064665
12570.0 0.00063901
12590.0 0.00063112
12610.0 0.00062276
12630.0 0.00061412
12650.0 0.00060551
12670.0 0.00059658
12690.0 0.00058737
12710.0 0.00057824
12730.0 0.00056911
12750.0 0.0005596
12770.0 0.00055024
12790.0 0.00054112
12810.0 0.00053195
12830.0 0.00052273
12850.0 0.00051399
12870.0 0.00050549
12890.0 0.00049702
12910.0 0.00048894
12930.0 0.00048137
12950.0 0.00047398
12970.0 0.00046695
12990.0 0.00046064
13010.0 0.00045483
13030.0 0.00044945
13050.0 0.00044471
13070.0 0.00044065
13090.0 0.00043706
13110.0 0.00043403
13130.0 0.00043159
13150.0 0.00042963
13170.0 0.00042812
13190.0 0.00042704
13210.0 0.0004263
13230.0 0.00042587
13250.0 0.00042571
13270.0 0.00042572
13290.0 0.0004259
13310.0 0.00042624
13330.0 0.00042662
13350.0 0.00042699
13370.0 0.00042735
13390.0 0.00042764
13410.0 0.00042775
13430.0 0.00042771
13450.0 0.00042745
13470.0 0.00042696
13490.0 0.00042626
13510.0 0.00042526
13530.0 0.00042402
13550.0 0.00042263
13570.0 0.00042104
13590.0 0.00041923
13610.0 0.00041735
13630.0 0.00041542
13650.0 0.00041329
13670.0 0.00041107
13690.0 0.00040884
13710.0 0.00040646
13730.0 0.0004038
13750.0 0.00040118
13770.0 0.00039845
13790.0 0.00039545
13810.0 0.00039231
13830.0 0.0003892
13850.0 0.00038582
13870.0 0.00038223
13890.0 0.00037871
13910.0 0.00037517
13930.0 0.00037143
13950.0 0.00036773
13970.0 0.00036433
13990.0 0.00036089
14010.0 0.0003575
14030.0 0.00035442
14050.0 0.00035154
14070.0 0.00034863
14090.0 0.00034604
14110.0 0.00034377
14130.0 0.0003416
14150.0 0.00033956
14170.0 0.00033786
14190.0 0.00033631
14210.0 0.00033481
14230.0 0.00033349
14250.0 0.00033236
14270.0 0.00033123
14290.0 0.00033016
14310.0 0.00032931
14330.0 0.00032853
14350.0 0.00032778
14370.0 0.00032716
14390.0 0.00032672
14410.0 0.0003263
14430.0 0.00032597
14450.0 0.00032582
14470.0 0.00032575
14490.0 0.0003257
14510.0 0.00032579
14530.0 0.00032599
14550.0 0.00032619
14570.0 0.00032642
14590.0 0.00032673
14610.0 0.00032702
14630.0 0.00032726
14650.0 0.00032754
14670.0 0.00032782
14690.0 0.00032804
14710.0 0.0003282
14730.0 0.00032842
14750.0 0.00032857
14770.0 0.00032862
14790.0 0.00032867
14810.0 0.00032869
14830.0 0.00032854
14850.0 0.00032834
14870.0 0.00032814
14890.0 0.00032785
14910.0 0.00032747
14930.0 0.00032716
14950.0 0.00032693
14970.0 0.0003267
14990.0 0.00032663
15010.0 0.00032676
15030.0 0.00032701
15050.0 0.00032736
15070.0 0.00032791
15090.0 0.00032854
15110.0 0.0003292
15130.0 0.00032988
15150.0 0.00033061
15170.0 0.00033129
15190.0 0.00033195
15210.0 0.00033262
15230.0 0.00033327
15250.0 0.00033387
15270.0 0.00033445
15290.0 0.00033505
15310.0 0.0003356
15330.0 0.00033611
15350.0 0.00033662
15370.0 0.00033711
15390.0 0.00033753
15410.0 0.00033795
15430.0 0.00033836
15450.0 0.00033873
15470.0 0.00033905
15490.0 0.00033938
15510.0 0.00033968
15530.0 0.00033992
15550.0 0.00034015
15570.0 0.00034037
15590.0 0.00034053
15610.0 0.00034064
15630.0 0.00034077
15650.0 0.00034086
15670.0 0.00034089
15690.0 0.00034091
15710.0 0.00034092
15730.0 0.00034087
15750.0 0.00034078
15770.0 0.0003407
15790.0 0.00034057
15810.0 0.00034037
15830.0 0.00034018
15850.0 0.00033997
15870.0 0.00033971
15890.0 0.00033941
15910.0 0.00033912
15930.0 0.00033877
15950.0 0.00033836
15970.0 0.00033796
15990.0 0.00033754
16010.0 0.00033705
16030.0 0.00033653
16050.0 0.00033603
16070.0 0.00033548
16090.0 0.00033487
16110.0 0.00033427
16130.0 0.00033365
16150.0 0.00033294
16170.0 0.00033223
16190.0 0.00033152
16210.0 0.00033077
16230.0 0.00032996
16250.0 0.00032917
16270.0 0.00032836
16290.0 0.00032748
16310.0 0.00032658
16330.0 0.00032569
16350.0 0.00032476
16370.0 0.00032375
16390.0 0.00032279
16410.0 0.0003218
16430.0 0.00032075
16450.0 0.00031969
16470.0 0.00031864
16490.0 0.00031754
16510.0 0.0003164
16530.0 0.00031527
16550.0 0.00031412
16570.0 0.00031291
16590.0 0.0003117
16610.0 0.00031051
16630.0 0.00030927
16650.0 0.00030799
16670.0 0.00030674
16690.0 0.00030546
16710.0 0.00030412
16730.0 0.00030279
16750.0 0.00030147
16770.0 0.00030011
16790.0 0.00029871
16810.0 0.00029735
16830.0 0.00029596
16850.0 0.00029453
16870.0 0.0002931
16890.0 0.00029169
16910.0 0.00029022
16930.0 0.00028873
16950.0 0.00028728
16970.0 0.0002858
16990.0 0.00028428
17010.0 0.00028278
17030.0 0.00028129
17050.0 0.00027975
17070.0 0.00027821
17090.0 0.00027668
17110.0 0.00027514
17130.0 0.00027355
17150.0 0.00027199
17170.0 0.00027044
17190.0 0.00026886
17210.0 0.00026726
17230.0 0.0002657
17250.0 0.00026411
17270.0 0.00026249
17290.0 0.00026089
17310.0 0.0002593
17330.0 0.00025768
17350.0 0.00025605
17370.0 0.00025446
17390.0 0.00025285
17410.0 0.00025121
17430.0 0.0002496
17450.0 0.000248
17470.0 0.00024635
17490.0 0.00024471
17510.0 0.00024311
17530.0 0.00024148
17550.0 0.00023984
17570.0 0.00023823
17590.0 0.00023663
17610.0 0.00023499
17630.0 0.00023336
17650.0 0.00023176
17670.0 0.00023014
17690.0 0.00022849
17710.0 0.0002269
17730.0 0.0002253
17750.0 0.00022368
17770.0 0.00022208
17790.0 0.00022051
17810.0 0.0002189
17830.0 0.00021729
17850.0 0.00021571
17870.0 0.00021414
17890.0 0.00021254
17910.0 0.00021095
17930.0 0.00020941
17950.0 0.00020784
17970.0 0.00020627
17990.0 0.00020474
18010.0 0.0002032
18030.0 0.00020163
18050.0 0.00020009
18070.0 0.00019858
18090.0 0.00019705
18110.0 0.00019552
18130.0 0.00019403
18150.0 0.00019253
18170.0 0.00019102
18190.0 0.00018954
18210.0 0.00018807
18230.0 0.00018658
18250.0 0.0001851
18270.0 0.00018366
18290.0 0.00018221
18310.0 0.00018075
18330.0 0.00017932
18350.0 0.00017791
18370.0 0.00017648
18390.0 0.00017506
18410.0 0.00017367
18430.0 0.00017228
18450.0 0.00017087
18470.0 0.0001695
18490.0 0.00016815
18510.0 0.00016678
18530.0 0.00016542
18550.0 0.0001641
18570.0 0.00016276
18590.0 0.00016142
18610.0 0.00016011
18630.0 0.00015881
18650.0 0.0001575
18670.0 0.0001562
18690.0 0.00015494
18710.0 0.00015367
18730.0 0.0001524
18750.0 0.00015115
18770.0 0.00014993
18790.0 0.00014867
18810.0 0.00014743
18830.0 0.00014624
18850.0 0.00014503
18870.0 0.00014382
18890.0 0.00014264
18910.0 0.00014147
18930.0 0.00014029
18950.0 0.00013913
18970.0 0.00013799
18990.0 0.00013684
19010.0 0.00013568
19030.0 0.00013458
19050.0 0.00013347
19070.0 0.00013235
19090.0 0.00013125
19110.0 0.00013019
19130.0 0.0001291
19150.0 0.00012801
19170.0 0.00012696
19190.0 0.00012592
19210.0 0.00012486
19230.0 0.00012382
19250.0 0.00012281
19270.0 0.00012179
19290.0 0.00012077
19310.0 0.00011978
19330.0 0.00011879
19350.0 0.00011778
19370.0 0.00011681
19390.0 0.00011585
19410.0 0.00011489
19430.0 0.00011392
19450.0 0.00011299
19470.0 0.00011206
19490.0 0.00011112
19510.0 0.0001102
19530.0 0.0001093
19550.0 0.00010838
19570.0 0.00010747
19590.0 0.00010659
19610.0 0.00010571
19630.0 0.00010482
19650.0 0.00010395
19670.0 0.0001031
19690.0 0.00010223
19710.0 0.00010137
19730.0 0.00010054
19750.0 9.9704e-05
19770.0 9.885e-05
19790.0 9.8031e-05
19810.0 9.7224e-05
19830.0 9.6402e-05
19850.0 9.5591e-05
19870.0 9.4808e-05
19890.0 9.4015e-05
19910.0 9.3221e-05
19930.0 9.2468e-05
19950.0 9.1743e-05
19970.0 9.1033e-05
19990.0 9.0371e-05
20010.0 8.978e-05
20030.0 8.923e-05
20050.0 8.8734e-05
20070.0 8.8304e-05
20090.0 8.7929e-05
20110.0 8.7593e-05
20130.0 8.7308e-05
20150.0 8.7064e-05
20170.0 8.6852e-05
20190.0 8.667e-05
20210.0 8.6513e-05
20230.0 8.6376e-05
20250.0 8.6257e-05
20270.0 8.615e-05
20290.0 8.6049e-05
20310.0 8.5953e-05
20330.0 8.5859e-05
20350.0 8.5756e-05
20370.0 8.5648e-05
20390.0 8.5533e-05
20410.0 8.5407e-05
20430.0 8.527e-05
20450.0 8.5123e-05
20470.0 8.4965e-05
20490.0 8.48e-05
20510.0 8.4627e-05
20530.0 8.445e-05
20550.0 8.4269e-05
20570.0 8.4088e-05
20590.0 8.3907e-05
20610.0 8.3727e-05
20630.0 8.355e-05
20650.0 8.3374e-05
20670.0 8.32e-05
20690.0 8.3026e-05
20710.0 8.285e-05
20730.0 8.267e-05
20750.0 8.2483e-05
20770.0 8.2287e-05
20790.0 8.2078e-05
20810.0 8.1853e-05
20830.0 8.161e-05
20850.0 8.1348e-05
20870.0 8.1059e-05
20890.0 8.0744e-05
20910.0 8.0409e-05
20930.0 8.0046e-05
20950.0 7.9654e-05
20970.0 7.9241e-05
20990.0 7.8809e-05
21010.0 7.8345e-05
21030.0 7.7863e-05
21050.0 7.737e-05
21070.0 7.6857e-05
21090.0 7.6321e-05
21110.0 7.5784e-05
21130.0 7.5237e-05
21150.0 7.4671e-05
21170.0 7.4096e-05
21190.0 7.3519e-05
21210.0 7.292e-05
21230.0 7.2302e-05
21250.0 7.1679e-05
21270.0 7.1041e-05
21290.0 7.0374e-05
21310.0 6.9689e-05
21330.0 6.8994e-05
21350.0 6.8266e-05
21370.0 6.7509e-05
21390.0 6.6821e-05
21410.0 6.6111e-05
21430.0 6.5358e-05
21450.0 6.4593e-05
21470.0 6.3815e-05
21490.0 6.3004e-05
21510.0 6.2166e-05
21530.0 6.1322e-05
21550.0 6.0455e-05
21570.0 5.9552e-05
21590.0 5.8639e-05
21610.0 5.7716e-05
21630.0 5.6763e-05
21650.0 5.5777e-05
21670.0 5.4803e-05
21690.0 5.3803e-05
21710.0 5.2772e-05
21730.0 5.1733e-05
21750.0 5.0689e-05
21770.0 4.9601e-05
21790.0 4.8497e-05
21810.0 4.7392e-05
21830.0 4.6263e-05
21850.0 4.5102e-05
21870.0 4.3935e-05
21890.0 4.2765e-05
21910.0 4.156e-05
21930.0 4.034e-05
21950.0 3.9121e-05
21970.0 3.7882e-05
21990.0 3.6609e-05
22010.0 3.5348e-05
22030.0 3.4082e-05
22050.0 3.2796e-05
22070.0 3.2002e-05
22090.0 3.2113e-05
22110.0 3.2224e-05
22130.0 3.2335e-05
22150.0 3.2443e-05
22170.0 3.2549e-05
22190.0 3.2655e-05
22210.0 3.276e-05
22230.0 3.2862e-05
22250.0 3.2963e-05
22270.0 3.3064e-05
22290.0 3.3163e-05
22310.0 3.3261e-05
22330.0 3.3359e-05
22350.0 3.3457e-05
22370.0 3.3554e-05
22390.0 3.3652e-05
22410.0 3.3751e-05
22430.0 3.385e-05
22450.0 3.3949e-05
22470.0 3.4049e-05
22490.0 3.4151e-05
22510.0 3.4253e-05
22530.0 3.4357e-05
22550.0 3.4462e-05
22570.0 3.4568e-05
22590.0 3.4675e-05
22610.0 3.4784e-05
22630.0 3.4894e-05
22650.0 3.5005e-05
22670.0 3.5117e-05
22690.0 3.5231e-05
22710.0 3.5345e-05
22730.0 3.546e-05
22750.0 3.5577e-05
22770.0 3.5695e-05
22790.0 3.5813e-05
22810.0 3.5933e-05
22830.0 3.6054e-05
22850.0 3.6176e-05
22870.0 3.63e-05
22890.0 3.6425e-05
22910.0 3.6552e-05
22930.0 3.668e-05
22950.0 3.6811e-05
22970.0 3.6944e-05
22990.0 3.7079e-05
23010.0 3.7217e-05
23030.0 3.7358e-05
23050.0 3.7502e-05
23070.0 3.765e-05
23090.0 3.7801e-05
23110.0 3.7804e-05
23130.0 3.7796e-05
23150.0 3.7789e-05
23170.0 3.7782e-05
23190.0 3.7775e-05
23210.0 3.7769e-05
23230.0 3.7763e-05
23250.0 3.7757e-05
23270.0 3.7752e-05
23290.0 3.7748e-05
23310.0 3.7744e-05
