#lamb flux
1010.0 1.221e-07
1030.0 1.3755e-07
1050.0 1.5531e-07
1070.0 1.7531e-07
1090.0 1.9802e-07
1110.0 2.2132e-07
1130.0 2.4477e-07
1150.0 2.6933e-07
1170.0 2.9467e-07
1190.0 3.1869e-07
1210.0 3.4304e-07
1230.0 3.6821e-07
1250.0 3.9286e-07
1270.0 4.168e-07
1290.0 4.421e-07
1310.0 4.6737e-07
1330.0 4.9162e-07
1350.0 5.1613e-07
1370.0 5.4144e-07
1390.0 5.6611e-07
1410.0 5.9005e-07
1430.0 6.1507e-07
1450.0 6.4009e-07
1470.0 6.6427e-07
1490.0 6.887e-07
1510.0 7.145e-07
1530.0 7.3894e-07
1550.0 7.6305e-07
1570.0 7.8797e-07
1590.0 8.1291e-07
1610.0 8.3672e-07
1630.0 8.6126e-07
1650.0 8.8642e-07
1670.0 9.1073e-07
1690.0 9.3469e-07
1710.0 9.5956e-07
1730.0 9.8452e-07
1750.0 1.0079e-06
1770.0 1.032e-06
1790.0 1.0565e-06
1810.0 1.0801e-06
1830.0 1.1032e-06
1850.0 1.1276e-06
1870.0 1.1513e-06
1890.0 1.174e-06
1910.0 1.197e-06
1930.0 1.2204e-06
1950.0 1.2425e-06
1970.0 1.2641e-06
1990.0 1.2863e-06
2010.0 1.3079e-06
2030.0 1.3282e-06
2050.0 1.3489e-06
2070.0 1.3698e-06
2090.0 1.3889e-06
2110.0 1.4074e-06
2130.0 1.4262e-06
2150.0 1.4439e-06
2170.0 1.46e-06
2190.0 1.4763e-06
2210.0 1.4921e-06
2230.0 1.5062e-06
2250.0 1.5195e-06
2270.0 1.5329e-06
2290.0 1.5448e-06
2310.0 1.5548e-06
2330.0 1.5647e-06
2350.0 1.5738e-06
2370.0 1.5813e-06
2390.0 1.5883e-06
2410.0 1.5962e-06
2430.0 1.6036e-06
2450.0 1.6114e-06
2470.0 1.6216e-06
2490.0 1.6353e-06
2510.0 1.6511e-06
2530.0 1.6744e-06
2550.0 1.7127e-06
2570.0 1.773e-06
2590.0 1.8654e-06
2610.0 2.019e-06
2630.0 2.2419e-06
2650.0 2.5233e-06
2670.0 2.868e-06
2690.0 3.263e-06
2710.0 3.6487e-06
2730.0 3.9939e-06
2750.0 4.3011e-06
2770.0 4.5341e-06
2790.0 4.6873e-06
2810.0 4.7836e-06
2830.0 4.8379e-06
2850.0 4.8504e-06
2870.0 4.8417e-06
2890.0 4.8232e-06
2910.0 4.7973e-06
2930.0 4.7655e-06
2950.0 4.7345e-06
2970.0 4.7047e-06
2990.0 4.6735e-06
3010.0 0.00010921
3030.0 0.00010848
3050.0 0.00010777
3070.0 0.00010697
3090.0 0.00010614
3110.0 0.00010516
3130.0 0.00010391
3150.0 0.00010233
3170.0 0.00010028
3190.0 9.7818e-05
3210.0 9.5127e-05
3230.0 9.2389e-05
3250.0 8.9977e-05
3270.0 8.8314e-05
3290.0 8.7606e-05
3310.0 8.8013e-05
3330.0 8.9573e-05
3350.0 9.2056e-05
3370.0 9.5514e-05
3390.0 9.983e-05
3410.0 0.00010452
3430.0 0.0001098
3450.0 0.00011589
3470.0 0.00012251
3490.0 0.00012951
3510.0 0.00013737
3530.0 0.00014576
3550.0 0.00015431
3570.0 0.00016336
3590.0 0.00017349
3610.0 0.00018419
3630.0 0.00019536
3650.0 0.0002071
3670.0 0.00021808
3690.0 0.00022661
3710.0 0.00023172
3730.0 0.00023191
3750.0 0.00022708
3770.0 0.00021266
3790.0 0.00019426
3810.0 0.00017501
3830.0 0.00015503
3850.0 0.00012962
3870.0 9.2697e-05
3890.0 0.00013422
3910.0 0.00021298
3930.0 0.00026023
3950.0 0.00025792
3970.0 0.00027272
3990.0 0.00030484
4010.0 0.00040563
4030.0 0.00040148
4050.0 0.00035372
4070.0 0.0003275
4090.0 0.00031141
4110.0 0.00036861
4130.0 0.0003963
4150.0 0.0004076
4170.0 0.00039636
4190.0 0.00039519
4210.0 0.00039666
4230.0 0.0004497
4250.0 0.00049625
4270.0 0.00050949
4290.0 0.0005076
4310.0 0.00050953
4330.0 0.00055511
4350.0 0.00065295
4370.0 0.00074836
4390.0 0.00069002
4410.0 0.00053932
4430.0 0.00044596
4450.0 0.0003851
4470.0 0.00036507
4490.0 0.00041543
4510.0 0.00050001
4530.0 0.00056218
4550.0 0.00063491
4570.0 0.00072401
4590.0 0.0008643
4610.0 0.0011725
4630.0 0.0014605
4650.0 0.0014775
4670.0 0.0013983
4690.0 0.0014897
4710.0 0.0015825
4730.0 0.0013305
4750.0 0.00092831
4770.0 0.0007436
4790.0 0.00073468
4810.0 0.00069149
4830.0 0.00065497
4850.0 0.00074384
4870.0 0.00096888
4890.0 0.0011237
4910.0 0.00093521
4930.0 0.00083085
4950.0 0.00093106
4970.0 0.0012535
4990.0 0.0016454
5010.0 0.0017806
5030.0 0.0014625
5050.0 0.00092448
5070.0 0.00063603
5090.0 0.00055605
5110.0 0.00057493
5130.0 0.00062572
5150.0 0.00064993
5170.0 0.0006453
5190.0 0.00062588
5210.0 0.00061221
5230.0 0.00064361
5250.0 0.00069657
5270.0 0.00077597
5290.0 0.00089081
5310.0 0.0010101
5330.0 0.0010389
5350.0 0.0010396
5370.0 0.0011364
5390.0 0.0012616
5410.0 0.0012065
5430.0 0.0010192
5450.0 0.00094335
5470.0 0.0010602
5490.0 0.0013609
5510.0 0.0017401
5530.0 0.0019532
5550.0 0.0018702
5570.0 0.0016862
5590.0 0.0014834
5610.0 0.0013876
5630.0 0.0013462
5650.0 0.0013596
5670.0 0.0013171
5690.0 0.0011963
5710.0 0.0011467
5730.0 0.0010571
5750.0 0.00071918
5770.0 0.00061236
5790.0 0.00069837
5810.0 0.00083821
5830.0 0.00099059
5850.0 0.0011175
5870.0 0.0011581
5890.0 0.0011173
5910.0 0.0010706
5930.0 0.0010681
5950.0 0.0011168
5970.0 0.0012243
5990.0 0.0011386
6010.0 0.00094496
6030.0 0.00078243
6050.0 0.00067879
6070.0 0.0006903
6090.0 0.00078182
6110.0 0.00085483
6130.0 0.00081797
6150.0 0.00073485
6170.0 0.0007728
6190.0 0.00093626
6210.0 0.001178
6230.0 0.0014068
6250.0 0.0014238
6270.0 0.0012472
6290.0 0.0010362
6310.0 0.00081811
6330.0 0.00064177
6350.0 0.00058009
6370.0 0.00062261
6390.0 0.00074151
6410.0 0.00086999
6430.0 0.0010148
6450.0 0.0011908
6470.0 0.0014245
6490.0 0.0017547
6510.0 0.0019527
6530.0 0.0018311
6550.0 0.0016771
6570.0 0.0015898
6590.0 0.0015309
6610.0 0.0013469
6630.0 0.0012331
6650.0 0.0011365
6670.0 0.0011579
6690.0 0.001117
6710.0 0.0010014
6730.0 0.00086128
6750.0 0.00079107
6770.0 0.00080118
6790.0 0.00091333
6810.0 0.00089426
6830.0 0.00091921
6850.0 0.00088745
6870.0 0.00084794
6890.0 0.00081789
6910.0 0.00080537
6930.0 0.00075356
6950.0 0.00078333
6970.0 0.0007918
6990.0 0.00088492
7010.0 0.00093818
7030.0 0.00087891
7050.0 0.00081805
7070.0 0.00078876
7090.0 0.00073828
7110.0 0.00070014
7130.0 0.00072508
7150.0 0.00077374
7170.0 0.00082878
7190.0 0.00084031
7210.0 0.0008152
7230.0 0.0008408
7250.0 0.00095568
7270.0 0.0011115
7290.0 0.001227
7310.0 0.0012104
7330.0 0.0010799
7350.0 0.00096515
7370.0 0.0008947
7390.0 0.00090615
7410.0 0.00096965
7430.0 0.0010631
7450.0 0.0011499
7470.0 0.0012359
7490.0 0.001342
7510.0 0.0014175
7530.0 0.0013224
7550.0 0.0011133
7570.0 0.00087509
7590.0 0.0006444
7610.0 0.00057216
7630.0 0.00061905
7650.0 0.00071687
7670.0 0.0008316
7690.0 0.00094296
7710.0 0.0010069
7730.0 0.0010344
7750.0 0.0010808
7770.0 0.0010769
7790.0 0.0010366
7810.0 0.0010335
7830.0 0.0010138
7850.0 0.00092568
7870.0 0.00084113
7890.0 0.00075488
7910.0 0.00064409
7930.0 0.00056236
7950.0 0.00050968
7970.0 0.0004958
7990.0 0.00050892
8010.0 0.00053642
8030.0 0.00053744
8050.0 0.00054126
8070.0 0.00053236
8090.0 0.00054526
8110.0 0.00051424
8130.0 0.00045
8150.0 0.00042271
8170.0 0.00038953
8190.0 0.00038548
8210.0 0.00041319
8230.0 0.00044197
8250.0 0.00040952
8270.0 0.00036499
8290.0 0.00029984
8310.0 0.00020662
8330.0 0.00013408
8350.0 9.765e-05
8370.0 0.00010377
8390.0 0.00012288
8410.0 0.00015607
8430.0 0.00019068
8450.0 0.0002105
8470.0 0.00023351
8490.0 0.00022952
8510.0 0.00023067
8530.0 0.00024087
8550.0 0.00029155
8570.0 0.0003591
8590.0 0.00041026
8610.0 0.00049581
8630.0 0.00057465
8650.0 0.00060455
8670.0 0.00061449
8690.0 0.00061073
8710.0 0.00057099
8730.0 0.00054799
8750.0 0.00050704
8770.0 0.0004868
8790.0 0.00048288
8810.0 0.00046027
8830.0 0.00038711
8850.0 0.00031896
8870.0 0.00026595
8890.0 0.00025991
8910.0 0.00028068
8930.0 0.00029784
8950.0 0.00033422
8970.0 0.00033942
8990.0 0.0003341
9010.0 0.00032125
9030.0 0.00031788
9050.0 0.000321
9070.0 0.00032348
9090.0 0.00032534
9110.0 0.000327
9130.0 0.00032848
9150.0 0.00032988
9170.0 0.00033135
9190.0 0.00033292
9210.0 0.00033461
9230.0 0.00033635
9250.0 0.0003382
9270.0 0.00034012
9290.0 0.00034213
9310.0 0.00034424
9330.0 0.00034643
9350.0 0.00034868
9370.0 0.00035103
9390.0 0.00035347
9410.0 0.00035597
9430.0 0.00035853
9450.0 0.00036121
9470.0 0.00036395
9490.0 0.00036676
9510.0 0.00036964
9530.0 0.00037262
9550.0 0.00037564
9570.0 0.00037873
9590.0 0.0003819
9610.0 0.00038514
9630.0 0.00038843
9650.0 0.00039179
9670.0 0.00039523
9690.0 0.00039871
9710.0 0.00040225
9730.0 0.00040586
9750.0 0.00040952
9770.0 0.0004132
9790.0 0.00041695
9810.0 0.00042077
9830.0 0.00042461
9850.0 0.00042848
9870.0 0.00043243
9890.0 0.0004364
9910.0 0.00044039
9930.0 0.00044442
9950.0 0.00044849
9970.0 0.00045257
9990.0 0.00045666
10010.0 0.00043976
10030.0 0.00044363
10050.0 0.00044749
10070.0 0.00045134
10090.0 0.00045527
10110.0 0.00045915
10130.0 0.00046304
10150.0 0.00046695
10170.0 0.00047084
10190.0 0.00047468
10210.0 0.00047855
10230.0 0.00048241
10250.0 0.00048621
10270.0 0.00049
10290.0 0.00049379
10310.0 0.00049752
10330.0 0.00050118
10350.0 0.00050485
10370.0 0.00050848
10390.0 0.00051204
10410.0 0.00051555
10430.0 0.00051905
10450.0 0.00052246
10470.0 0.00052579
10490.0 0.0005291
10510.0 0.00053234
10530.0 0.00053546
10550.0 0.00053853
10570.0 0.00054157
10590.0 0.00054449
10610.0 0.00054732
10630.0 0.0005501
10650.0 0.0005528
10670.0 0.00055535
10690.0 0.00055784
10710.0 0.00056027
10730.0 0.00056256
10750.0 0.00056472
10770.0 0.00056685
10790.0 0.00056886
10810.0 0.00057072
10830.0 0.00057247
10850.0 0.00057412
10870.0 0.00057547
10890.0 0.00057648
10910.0 0.00057705
10930.0 0.00057684
10950.0 0.00057538
10970.0 0.00057246
10990.0 0.00056795
11010.0 0.00055159
11030.0 0.00054272
11050.0 0.0005322
11070.0 0.00051972
11090.0 0.00050474
11110.0 0.00048929
11130.0 0.00047318
11150.0 0.00045584
11170.0 0.00043805
11190.0 0.00042097
11210.0 0.00040354
11230.0 0.00038596
11250.0 0.0003695
11270.0 0.00035404
11290.0 0.00033889
11310.0 0.00032489
11330.0 0.00031285
11350.0 0.00030168
11370.0 0.00029151
11390.0 0.00028279
11410.0 0.00027514
11430.0 0.00026791
11450.0 0.00026147
11470.0 0.00025561
11490.0 0.00024982
11510.0 0.00024384
11530.0 0.00023795
11550.0 0.00023183
11570.0 0.00022511
11590.0 0.00021805
11610.0 0.00021086
11630.0 0.00020309
11650.0 0.0001949
11670.0 0.00018697
11690.0 0.00017908
11710.0 0.00017111
11730.0 0.00016354
11750.0 0.00015664
11770.0 0.00015
11790.0 0.00014386
11810.0 0.0001385
11830.0 0.00013373
11850.0 0.00012934
11870.0 0.00012561
11890.0 0.00012242
11910.0 0.00011951
11930.0 0.00011684
11950.0 0.00011444
11970.0 0.0001121
11990.0 0.00010971
12010.0 0.00010732
12030.0 0.00010491
12050.0 0.00010233
12070.0 9.9599e-05
12090.0 9.6948e-05
12110.0 9.4244e-05
12130.0 9.1514e-05
12150.0 8.8948e-05
12170.0 8.6623e-05
12190.0 8.445e-05
12210.0 8.2651e-05
12230.0 8.1305e-05
12250.0 8.0393e-05
12270.0 7.9983e-05
12290.0 8.0101e-05
12310.0 8.0693e-05
12330.0 8.1833e-05
12350.0 8.3457e-05
12370.0 8.542e-05
12390.0 8.7765e-05
12410.0 9.0572e-05
12430.0 9.3414e-05
12450.0 9.6331e-05
12470.0 9.9398e-05
12490.0 0.00010241
12510.0 0.00010514
12530.0 0.00010776
12550.0 0.00011019
12570.0 0.00011219
12590.0 0.0001138
12610.0 0.0001151
12630.0 0.00011596
12650.0 0.00011632
12670.0 0.00011631
12690.0 0.00011589
12710.0 0.0001151
12730.0 0.00011398
12750.0 0.0001125
12770.0 0.00011075
12790.0 0.00010881
12810.0 0.00010665
12830.0 0.00010426
12850.0 0.00010181
12870.0 9.9274e-05
12890.0 9.6565e-05
12910.0 9.3809e-05
12930.0 9.1067e-05
12950.0 8.8188e-05
12970.0 8.5214e-05
12990.0 8.2332e-05
13010.0 7.943e-05
13030.0 7.6442e-05
13050.0 7.3507e-05
13070.0 7.0699e-05
13090.0 6.7844e-05
13110.0 6.5047e-05
13130.0 6.2437e-05
13150.0 5.9952e-05
13170.0 5.7526e-05
13190.0 5.5369e-05
13210.0 5.3481e-05
13230.0 5.1783e-05
13250.0 5.0347e-05
13270.0 4.9236e-05
13290.0 4.8398e-05
13310.0 4.7852e-05
13330.0 4.7625e-05
13350.0 4.7682e-05
13370.0 4.8029e-05
13390.0 4.8662e-05
13410.0 4.9468e-05
13430.0 5.0479e-05
13450.0 5.1686e-05
13470.0 5.2976e-05
13490.0 5.4295e-05
13510.0 5.5744e-05
13530.0 5.7165e-05
13550.0 5.8478e-05
13570.0 5.9737e-05
13590.0 6.0929e-05
13610.0 6.1948e-05
13630.0 6.2798e-05
13650.0 6.354e-05
13670.0 6.4109e-05
13690.0 6.4495e-05
13710.0 6.4736e-05
13730.0 6.4833e-05
13750.0 6.4766e-05
13770.0 6.4571e-05
13790.0 6.4251e-05
13810.0 6.3817e-05
13830.0 6.3298e-05
13850.0 6.2678e-05
13870.0 6.1964e-05
13890.0 6.1196e-05
13910.0 6.0371e-05
13930.0 5.9461e-05
13950.0 5.8503e-05
13970.0 5.7552e-05
13990.0 5.6548e-05
14010.0 5.551e-05
14030.0 5.45e-05
14050.0 5.3504e-05
14070.0 5.2482e-05
14090.0 5.1524e-05
14110.0 5.0643e-05
14130.0 4.9811e-05
14150.0 4.905e-05
14170.0 4.8418e-05
14190.0 4.7891e-05
14210.0 4.7467e-05
14230.0 4.7178e-05
14250.0 4.702e-05
14270.0 4.699e-05
14290.0 4.7101e-05
14310.0 4.733e-05
14330.0 4.7674e-05
14350.0 4.8143e-05
14370.0 4.87e-05
14390.0 4.9316e-05
14410.0 5.0031e-05
14430.0 5.081e-05
14450.0 5.1604e-05
14470.0 5.2436e-05
14490.0 5.334e-05
14510.0 5.4234e-05
14530.0 5.5124e-05
14550.0 5.6071e-05
14570.0 5.7058e-05
14590.0 5.8045e-05
14610.0 5.9104e-05
14630.0 6.0276e-05
14650.0 6.1495e-05
14670.0 6.2787e-05
14690.0 6.4232e-05
14710.0 6.5822e-05
14730.0 6.7436e-05
14750.0 6.9201e-05
14770.0 7.1129e-05
14790.0 7.3107e-05
14810.0 7.5116e-05
14830.0 7.7318e-05
14850.0 7.9518e-05
14870.0 8.1633e-05
14890.0 8.3742e-05
14910.0 8.5812e-05
14930.0 8.7665e-05
14950.0 8.9292e-05
14970.0 9.0743e-05
14990.0 9.1892e-05
15010.0 9.2725e-05
15030.0 9.3304e-05
15050.0 9.3649e-05
15070.0 9.3786e-05
15090.0 9.3795e-05
15110.0 9.3712e-05
15130.0 9.3576e-05
15150.0 9.3421e-05
15170.0 9.3245e-05
15190.0 9.306e-05
15210.0 9.2881e-05
15230.0 9.2704e-05
15250.0 9.2519e-05
15270.0 9.2336e-05
15290.0 9.2167e-05
15310.0 9.1991e-05
15330.0 9.1813e-05
15350.0 9.1644e-05
15370.0 9.1477e-05
15390.0 9.1296e-05
15410.0 9.1124e-05
15430.0 9.096e-05
15450.0 9.0789e-05
15470.0 9.0613e-05
15490.0 9.045e-05
15510.0 9.0287e-05
15530.0 9.0114e-05
15550.0 8.9947e-05
15570.0 8.9786e-05
15590.0 8.9615e-05
15610.0 8.944e-05
15630.0 8.9278e-05
15650.0 8.9113e-05
15670.0 8.894e-05
15690.0 8.8772e-05
15710.0 8.8612e-05
15730.0 8.844e-05
15750.0 8.8266e-05
15770.0 8.8101e-05
15790.0 8.7933e-05
15810.0 8.7752e-05
15830.0 8.7581e-05
15850.0 8.7415e-05
15870.0 8.7239e-05
15890.0 8.7061e-05
15910.0 8.6893e-05
15930.0 8.6718e-05
15950.0 8.6533e-05
15970.0 8.6355e-05
15990.0 8.6181e-05
16010.0 8.5996e-05
16030.0 8.5807e-05
16050.0 8.5632e-05
16070.0 8.5448e-05
16090.0 8.5257e-05
16110.0 8.5072e-05
16130.0 8.489e-05
16150.0 8.4691e-05
16170.0 8.4495e-05
16190.0 8.4307e-05
16210.0 8.4112e-05
16230.0 8.3909e-05
16250.0 8.3713e-05
16270.0 8.352e-05
16290.0 8.3313e-05
16310.0 8.3107e-05
16330.0 8.2907e-05
16350.0 8.27e-05
16370.0 8.2479e-05
16390.0 8.2273e-05
16410.0 8.2065e-05
16430.0 8.1846e-05
16450.0 8.1627e-05
16470.0 8.1417e-05
16490.0 8.1194e-05
16510.0 8.0966e-05
16530.0 8.0745e-05
16550.0 8.0522e-05
16570.0 8.0287e-05
16590.0 8.0053e-05
16610.0 7.9829e-05
16630.0 7.9594e-05
16650.0 7.9353e-05
16670.0 7.912e-05
16690.0 7.8884e-05
16710.0 7.8632e-05
16730.0 7.8387e-05
16750.0 7.8146e-05
16770.0 7.7896e-05
16790.0 7.7639e-05
16810.0 7.7393e-05
16830.0 7.7143e-05
16850.0 7.6881e-05
16870.0 7.6624e-05
16890.0 7.637e-05
16910.0 7.6103e-05
16930.0 7.5832e-05
16950.0 7.5572e-05
16970.0 7.5306e-05
16990.0 7.5031e-05
17010.0 7.4761e-05
17030.0 7.4495e-05
17050.0 7.4215e-05
17070.0 7.3934e-05
17090.0 7.3661e-05
17110.0 7.3382e-05
17130.0 7.309e-05
17150.0 7.2807e-05
17170.0 7.2527e-05
17190.0 7.2237e-05
17210.0 7.1945e-05
17230.0 7.1661e-05
17250.0 7.1369e-05
17270.0 7.1067e-05
17290.0 7.0773e-05
17310.0 7.0481e-05
17330.0 7.0178e-05
17350.0 6.9872e-05
17370.0 6.9578e-05
17390.0 6.9276e-05
17410.0 6.8967e-05
17430.0 6.8664e-05
17450.0 6.8363e-05
17470.0 6.8045e-05
17490.0 6.7732e-05
17510.0 6.7427e-05
17530.0 6.7115e-05
17550.0 6.6795e-05
17570.0 6.6484e-05
17590.0 6.6175e-05
17610.0 6.5852e-05
17630.0 6.5533e-05
17650.0 6.522e-05
17670.0 6.4899e-05
17690.0 6.4567e-05
17710.0 6.4251e-05
17730.0 6.3932e-05
17750.0 6.3604e-05
17770.0 6.3279e-05
17790.0 6.2962e-05
17810.0 6.2633e-05
17830.0 6.2301e-05
17850.0 6.1977e-05
17870.0 6.1652e-05
17890.0 6.1316e-05
17910.0 6.0984e-05
17930.0 6.0663e-05
17950.0 6.0331e-05
17970.0 5.9996e-05
17990.0 5.967e-05
18010.0 5.9342e-05
18030.0 5.9e-05
18050.0 5.8668e-05
18070.0 5.834e-05
18090.0 5.8005e-05
18110.0 5.7666e-05
18130.0 5.7338e-05
18150.0 5.7008e-05
18170.0 5.6669e-05
18190.0 5.6335e-05
18210.0 5.6007e-05
18230.0 5.5668e-05
18250.0 5.5327e-05
18270.0 5.4998e-05
18290.0 5.4666e-05
18310.0 5.4326e-05
18330.0 5.3994e-05
18350.0 5.3667e-05
18370.0 5.3328e-05
18390.0 5.2991e-05
18410.0 5.2662e-05
18430.0 5.233e-05
18450.0 5.1988e-05
18470.0 5.1657e-05
18490.0 5.133e-05
18510.0 5.0995e-05
18530.0 5.0661e-05
18550.0 5.0336e-05
18570.0 5.0005e-05
18590.0 4.9667e-05
18610.0 4.9339e-05
18630.0 4.9013e-05
18650.0 4.8679e-05
18670.0 4.8346e-05
18690.0 4.8026e-05
18710.0 4.7698e-05
18730.0 4.7367e-05
18750.0 4.7043e-05
18770.0 4.6723e-05
18790.0 4.6389e-05
18810.0 4.6063e-05
18830.0 4.5744e-05
18850.0 4.5421e-05
18870.0 4.5093e-05
18890.0 4.4776e-05
18910.0 4.446e-05
18930.0 4.4135e-05
18950.0 4.3814e-05
18970.0 4.3501e-05
18990.0 4.3182e-05
19010.0 4.2856e-05
19030.0 4.2545e-05
19050.0 4.2234e-05
19070.0 4.1916e-05
19090.0 4.1602e-05
19110.0 4.1298e-05
19130.0 4.0982e-05
19150.0 4.0667e-05
19170.0 4.0361e-05
19190.0 4.0055e-05
19210.0 3.9741e-05
19230.0 3.9433e-05
19250.0 3.9134e-05
19270.0 3.8828e-05
19290.0 3.8521e-05
19310.0 3.8223e-05
19330.0 3.7925e-05
19350.0 3.7616e-05
19370.0 3.7317e-05
19390.0 3.7023e-05
19410.0 3.6723e-05
19430.0 3.6422e-05
19450.0 3.6133e-05
19470.0 3.5841e-05
19490.0 3.5544e-05
19510.0 3.5253e-05
19530.0 3.4967e-05
19550.0 3.4673e-05
19570.0 3.4378e-05
19590.0 3.4097e-05
19610.0 3.3811e-05
19630.0 3.3522e-05
19650.0 3.324e-05
19670.0 3.2963e-05
19690.0 3.2676e-05
19710.0 3.2393e-05
19730.0 3.2117e-05
19750.0 3.184e-05
19770.0 3.1555e-05
19790.0 3.1281e-05
19810.0 3.101e-05
19830.0 3.0733e-05
19850.0 3.0456e-05
19870.0 3.0186e-05
19890.0 2.9905e-05
19910.0 2.9608e-05
19930.0 2.9304e-05
19950.0 2.8978e-05
19970.0 2.8607e-05
19990.0 2.8191e-05
20010.0 2.8302e-05
20030.0 2.7783e-05
20050.0 2.7206e-05
20070.0 2.6604e-05
20090.0 2.5979e-05
20110.0 2.5299e-05
20130.0 2.463e-05
20150.0 2.3983e-05
20170.0 2.333e-05
20190.0 2.2683e-05
20210.0 2.2082e-05
20230.0 2.1506e-05
20250.0 2.0937e-05
20270.0 2.0415e-05
20290.0 1.9942e-05
20310.0 1.9497e-05
20330.0 1.9084e-05
20350.0 1.8742e-05
20370.0 1.8441e-05
20390.0 1.818e-05
20410.0 1.7972e-05
20430.0 1.7814e-05
20450.0 1.7695e-05
20470.0 1.7624e-05
20490.0 1.7595e-05
20510.0 1.7605e-05
20530.0 1.7653e-05
20550.0 1.7734e-05
20570.0 1.7837e-05
20590.0 1.7972e-05
20610.0 1.813e-05
20630.0 1.83e-05
20650.0 1.8487e-05
20670.0 1.8698e-05
20690.0 1.8909e-05
20710.0 1.9123e-05
20730.0 1.935e-05
20750.0 1.9583e-05
20770.0 1.9807e-05
20790.0 2.0038e-05
20810.0 2.0279e-05
20830.0 2.0515e-05
20850.0 2.0747e-05
20870.0 2.0995e-05
20890.0 2.1245e-05
20910.0 2.1484e-05
20930.0 2.1732e-05
20950.0 2.199e-05
20970.0 2.2241e-05
20990.0 2.2489e-05
21010.0 2.2753e-05
21030.0 2.3012e-05
21050.0 2.326e-05
21070.0 2.351e-05
21090.0 2.3764e-05
21110.0 2.3996e-05
21130.0 2.4217e-05
21150.0 2.4436e-05
21170.0 2.4638e-05
21190.0 2.4816e-05
21210.0 2.4986e-05
21230.0 2.5139e-05
21250.0 2.5262e-05
21270.0 2.5362e-05
21290.0 2.544e-05
21310.0 2.5487e-05
21330.0 2.5502e-05
21350.0 2.5487e-05
21370.0 2.5436e-05
21390.0 2.5349e-05
21410.0 2.5227e-05
21430.0 2.5057e-05
21450.0 2.4849e-05
21470.0 2.4609e-05
21490.0 2.4324e-05
21510.0 2.3996e-05
21530.0 2.3649e-05
21550.0 2.327e-05
21570.0 2.2851e-05
21590.0 2.2421e-05
21610.0 2.1989e-05
21630.0 2.1538e-05
21650.0 2.1077e-05
21670.0 2.0654e-05
21690.0 2.0241e-05
21710.0 1.9842e-05
21730.0 1.9482e-05
21750.0 1.9168e-05
21770.0 1.8879e-05
21790.0 1.8641e-05
21810.0 1.8459e-05
21830.0 1.8327e-05
21850.0 1.8246e-05
21870.0 1.822e-05
21890.0 1.8245e-05
21910.0 1.8322e-05
21930.0 1.8448e-05
21950.0 1.8614e-05
21970.0 1.8823e-05
21990.0 1.9085e-05
22010.0 1.9369e-05
22030.0 1.9679e-05
22050.0 2.0026e-05
22070.0 2.0396e-05
22090.0 2.0765e-05
22110.0 2.1155e-05
22130.0 2.1565e-05
22150.0 2.1964e-05
22170.0 2.2355e-05
22190.0 2.2758e-05
22210.0 2.3147e-05
22230.0 2.3499e-05
22250.0 2.3839e-05
22270.0 2.416e-05
22290.0 2.444e-05
22310.0 2.4684e-05
22330.0 2.4903e-05
22350.0 2.5074e-05
22370.0 2.5198e-05
22390.0 2.5279e-05
22410.0 2.5311e-05
22430.0 2.5292e-05
22450.0 2.5225e-05
22470.0 2.5105e-05
22490.0 2.4935e-05
22510.0 2.4722e-05
22530.0 2.4452e-05
22550.0 2.4125e-05
22570.0 2.3766e-05
22590.0 2.3364e-05
22610.0 2.2904e-05
22630.0 2.241e-05
22650.0 2.1901e-05
22670.0 2.134e-05
22690.0 2.0742e-05
22710.0 2.0139e-05
