#lamb flux
1010.0 3.5734e-08
1030.0 3.9522e-08
1050.0 4.3879e-08
1070.0 4.8783e-08
1090.0 5.4354e-08
1110.0 6.0068e-08
1130.0 6.5819e-08
1150.0 7.1843e-08
1170.0 7.8057e-08
1190.0 8.3949e-08
1210.0 8.9921e-08
1230.0 9.6092e-08
1250.0 1.0214e-07
1270.0 1.0801e-07
1290.0 1.1421e-07
1310.0 1.2041e-07
1330.0 1.2636e-07
1350.0 1.3237e-07
1370.0 1.3858e-07
1390.0 1.4463e-07
1410.0 1.5051e-07
1430.0 1.5665e-07
1450.0 1.6279e-07
1470.0 1.6872e-07
1490.0 1.7472e-07
1510.0 1.8105e-07
1530.0 1.8706e-07
1550.0 1.9298e-07
1570.0 1.9911e-07
1590.0 2.0525e-07
1610.0 2.1112e-07
1630.0 2.1717e-07
1650.0 2.2338e-07
1670.0 2.2939e-07
1690.0 2.3533e-07
1710.0 2.415e-07
1730.0 2.4771e-07
1750.0 2.5356e-07
1770.0 2.5958e-07
1790.0 2.6574e-07
1810.0 2.717e-07
1830.0 2.7757e-07
1850.0 2.8381e-07
1870.0 2.8989e-07
1890.0 2.9578e-07
1910.0 3.018e-07
1930.0 3.0798e-07
1950.0 3.1389e-07
1970.0 3.1975e-07
1990.0 3.2583e-07
2010.0 3.3183e-07
2030.0 3.3763e-07
2050.0 3.4362e-07
2070.0 3.4978e-07
2090.0 3.556e-07
2110.0 3.6141e-07
2130.0 3.6741e-07
2150.0 3.7331e-07
2170.0 3.7897e-07
2190.0 3.8485e-07
2210.0 3.9077e-07
2230.0 3.9647e-07
2250.0 4.0215e-07
2270.0 4.0809e-07
2290.0 4.1385e-07
2310.0 4.1939e-07
2330.0 4.2516e-07
2350.0 4.3108e-07
2370.0 4.3698e-07
2390.0 4.4336e-07
2410.0 4.5093e-07
2430.0 4.5963e-07
2450.0 4.7003e-07
2470.0 4.8336e-07
2490.0 5.0016e-07
2510.0 5.1925e-07
2530.0 5.4223e-07
2550.0 5.71e-07
2570.0 6.0679e-07
2590.0 6.5335e-07
2610.0 7.2305e-07
2630.0 8.2256e-07
2650.0 9.5268e-07
2670.0 1.1209e-06
2690.0 1.3276e-06
2710.0 1.5483e-06
2730.0 1.7664e-06
2750.0 1.9812e-06
2770.0 2.168e-06
2790.0 2.3163e-06
2810.0 2.4341e-06
2830.0 2.5261e-06
2850.0 2.5888e-06
2870.0 2.6349e-06
2890.0 2.6714e-06
2910.0 2.7005e-06
2930.0 2.7243e-06
2950.0 2.747e-06
2970.0 2.7693e-06
2990.0 2.7901e-06
3010.0 7.8863e-05
3030.0 7.9453e-05
3050.0 8.0023e-05
3070.0 8.051e-05
3090.0 8.093e-05
3110.0 8.1191e-05
3130.0 8.118e-05
3150.0 8.082e-05
3170.0 7.9954e-05
3190.0 7.8595e-05
3210.0 7.6871e-05
3230.0 7.4897e-05
3250.0 7.295e-05
3270.0 7.1527e-05
3290.0 7.0736e-05
3310.0 7.0864e-05
3330.0 7.189e-05
3350.0 7.3676e-05
3370.0 7.6226e-05
3390.0 7.944e-05
3410.0 8.2937e-05
3430.0 8.6864e-05
3450.0 9.1384e-05
3470.0 9.6321e-05
3490.0 0.00010155
3510.0 0.00010747
3530.0 0.0001138
3550.0 0.00012021
3570.0 0.00012689
3590.0 0.00013417
3610.0 0.00014166
3630.0 0.00014913
3650.0 0.00015688
3670.0 0.00016396
3690.0 0.00016925
3710.0 0.00017228
3730.0 0.00017238
3750.0 0.00016998
3770.0 0.00016904
3790.0 0.00016804
3810.0 0.00016391
3830.0 0.00016898
3850.0 0.00018894
3870.0 0.0001999
3890.0 0.00019898
3910.0 0.00019983
3930.0 0.00020509
3950.0 0.00020833
3970.0 0.00018981
3990.0 0.00016332
4010.0 0.0004895
4030.0 0.0005931
4050.0 0.00067995
4070.0 0.00058997
4090.0 0.00053433
4110.0 0.0004715
4130.0 0.00043397
4150.0 0.00046161
4170.0 0.0004547
4190.0 0.00048468
4210.0 0.00048025
4230.0 0.00050797
4250.0 0.00060094
4270.0 0.00060801
4290.0 0.00056028
4310.0 0.00058216
4330.0 0.00061925
4350.0 0.00069433
4370.0 0.00079016
4390.0 0.00074148
4410.0 0.00054783
4430.0 0.00046377
4450.0 0.00042615
4470.0 0.00032709
4490.0 0.00035297
4510.0 0.00053316
4530.0 0.0006149
4550.0 0.00062023
4570.0 0.00069792
4590.0 0.000795
4610.0 0.0010723
4630.0 0.0013926
4650.0 0.0015103
4670.0 0.0013987
4690.0 0.0013346
4710.0 0.0014108
4730.0 0.0013314
4750.0 0.00099536
4770.0 0.00073013
4790.0 0.0006818
4810.0 0.00064986
4830.0 0.00059495
4850.0 0.00065285
4870.0 0.00086248
4890.0 0.0010171
4910.0 0.00089238
4930.0 0.00078963
4950.0 0.00086753
4970.0 0.0011125
4990.0 0.0015078
5010.0 0.0017345
5030.0 0.0015294
5050.0 0.0010348
5070.0 0.00068194
5090.0 0.00054988
5110.0 0.00056551
5130.0 0.00065268
5150.0 0.00070713
5170.0 0.00069652
5190.0 0.00065085
5210.0 0.00068029
5230.0 0.00071514
5250.0 0.00077072
5270.0 0.00083156
5290.0 0.00092154
5310.0 0.0010726
5330.0 0.001187
5350.0 0.0011795
5370.0 0.0012389
5390.0 0.0014217
5410.0 0.0014204
5430.0 0.0012561
5450.0 0.0011541
5470.0 0.0012255
5490.0 0.0014972
5510.0 0.001872
5530.0 0.0021471
5550.0 0.0020752
5570.0 0.0018865
5590.0 0.0016404
5610.0 0.0015128
5630.0 0.0014669
5650.0 0.0013971
5670.0 0.0013239
5690.0 0.0011836
5710.0 0.001154
5730.0 0.001063
5750.0 0.00074948
5770.0 0.00058472
5790.0 0.00066261
5810.0 0.00074821
5830.0 0.00091816
5850.0 0.001093
5870.0 0.0012127
5890.0 0.0012332
5910.0 0.0012099
5930.0 0.0011517
5950.0 0.0011735
5970.0 0.0013377
5990.0 0.0012578
6010.0 0.0010544
6030.0 0.00089082
6050.0 0.00077579
6070.0 0.00077155
6090.0 0.00083662
6110.0 0.00093548
6130.0 0.00094981
6150.0 0.00081722
6170.0 0.0007189
6190.0 0.00080902
6210.0 0.0010695
6230.0 0.0014035
6250.0 0.0015202
6270.0 0.0013284
6290.0 0.0011177
6310.0 0.00087255
6330.0 0.00066854
6350.0 0.00059632
6370.0 0.00062709
6390.0 0.00072496
6410.0 0.0008939
6430.0 0.0010438
6450.0 0.0011944
6470.0 0.0013676
6490.0 0.001652
6510.0 0.0018472
6530.0 0.0018122
6550.0 0.0016387
6570.0 0.0013911
6590.0 0.0012544
6610.0 0.0010816
6630.0 0.0009799
6650.0 0.00092629
6670.0 0.00089987
6690.0 0.00081308
6710.0 0.00073911
6730.0 0.00053236
6750.0 0.00052778
6770.0 0.00057366
6790.0 0.00065938
6810.0 0.00060335
6830.0 0.00062128
6850.0 0.0005811
6870.0 0.00053083
6890.0 0.00050968
6910.0 0.00054313
6930.0 0.00050872
6950.0 0.00052339
6970.0 0.00055051
6990.0 0.00062487
7010.0 0.00063019
7030.0 0.0006402
7050.0 0.00061054
7070.0 0.00058173
7090.0 0.00058344
7110.0 0.00060031
7130.0 0.00064603
7150.0 0.00068613
7170.0 0.0007571
7190.0 0.00083227
7210.0 0.00081781
7230.0 0.00084072
7250.0 0.00090349
7270.0 0.00098458
7290.0 0.0011686
7310.0 0.001268
7330.0 0.0012257
7350.0 0.0011085
7370.0 0.00096453
7390.0 0.00093572
7410.0 0.00099438
7430.0 0.0011051
7450.0 0.0012037
7470.0 0.0011926
7490.0 0.0010875
7510.0 0.0012318
7530.0 0.0012183
7550.0 0.0010951
7570.0 0.00085544
7590.0 0.00058808
7610.0 0.00050475
7630.0 0.00057349
7650.0 0.00067808
7670.0 0.00084392
7690.0 0.00092866
7710.0 0.00096778
7730.0 0.001017
7750.0 0.0011417
7770.0 0.0011597
7790.0 0.0010652
7810.0 0.00097194
7830.0 0.0010023
7850.0 0.00097431
7870.0 0.00089328
7890.0 0.00075053
7910.0 0.00061008
7930.0 0.00058253
7950.0 0.0005307
7970.0 0.00049126
7990.0 0.00048846
8010.0 3.6176e-05
8030.0 3.5706e-05
8050.0 3.5225e-05
8070.0 3.5686e-05
8090.0 3.8343e-05
8110.0 3.769e-05
8130.0 3.109e-05
8150.0 3.0278e-05
8170.0 2.608e-05
8190.0 2.4716e-05
8210.0 3.2096e-05
8230.0 3.5735e-05
8250.0 3.2208e-05
8270.0 2.8032e-05
8290.0 2.7326e-05
8310.0 2.1032e-05
8330.0 1.4175e-05
8350.0 1.006e-05
8370.0 6.3382e-06
8390.0 1.1586e-05
8410.0 1.3501e-05
8430.0 1.6642e-05
8450.0 1.9542e-05
8470.0 2.429e-05
8490.0 2.4118e-05
8510.0 2.3724e-05
8530.0 2.4759e-05
8550.0 3.3405e-05
8570.0 3.9547e-05
8590.0 4.2671e-05
8610.0 5.3902e-05
8630.0 6.4933e-05
8650.0 6.7927e-05
8670.0 7.2186e-05
8690.0 7.259e-05
8710.0 6.5741e-05
8730.0 6.1149e-05
8750.0 5.3976e-05
8770.0 5.1215e-05
8790.0 5.0316e-05
8810.0 4.8213e-05
8830.0 3.8554e-05
8850.0 2.8224e-05
8870.0 2.1611e-05
8890.0 2.1128e-05
8910.0 2.4213e-05
8930.0 2.7541e-05
8950.0 2.8068e-05
8970.0 2.8201e-05
8990.0 2.5152e-05
9010.0 0.00026358
9030.0 0.00023883
9050.0 0.00023999
9070.0 0.00024188
9090.0 0.00024354
9110.0 0.00024559
9130.0 0.00024718
9150.0 0.00024841
9170.0 0.00024972
9190.0 0.00025112
9210.0 0.0002526
9230.0 0.00025415
9250.0 0.00025573
9270.0 0.00025737
9290.0 0.00025907
9310.0 0.00026077
9330.0 0.0002625
9350.0 0.0002643
9370.0 0.00026612
9390.0 0.00026796
9410.0 0.00026985
9430.0 0.0002718
9450.0 0.00027374
9470.0 0.00027572
9490.0 0.00027776
9510.0 0.00027982
9530.0 0.0002819
9550.0 0.00028404
9570.0 0.00028622
9590.0 0.00028841
9610.0 0.00029064
9630.0 0.00029292
9650.0 0.00029523
9670.0 0.00029754
9690.0 0.00029991
9710.0 0.00030232
9730.0 0.00030473
9750.0 0.00030718
9770.0 0.0003097
9790.0 0.00031222
9810.0 0.00031475
9830.0 0.00031733
9850.0 0.00031995
9870.0 0.00032256
9890.0 0.00032521
9910.0 0.00032791
9930.0 0.00033061
9950.0 0.00033332
9970.0 0.00033609
9990.0 0.00033888
10010.0 0.00029406
10030.0 0.00029647
10050.0 0.00029894
10070.0 0.00030148
10090.0 0.00030388
10110.0 0.00030634
10130.0 0.00030882
10150.0 0.00031128
10170.0 0.00031377
10190.0 0.0003163
10210.0 0.00031881
10230.0 0.00032131
10250.0 0.00032385
10270.0 0.00032638
10290.0 0.00032889
10310.0 0.00033142
10330.0 0.00033399
10350.0 0.00033651
10370.0 0.00033902
10390.0 0.00034156
10410.0 0.00034408
10430.0 0.00034656
10450.0 0.00034906
10470.0 0.00035157
10490.0 0.00035404
10510.0 0.00035649
10530.0 0.00035898
10550.0 0.00036143
10570.0 0.00036382
10590.0 0.00036623
10610.0 0.00036864
10630.0 0.00037099
10650.0 0.00037332
10670.0 0.00037568
10690.0 0.00037798
10710.0 0.00038024
10730.0 0.0003825
10750.0 0.00038477
10770.0 0.00038694
10790.0 0.0003891
10810.0 0.00039126
10830.0 0.00039334
10850.0 0.00039532
10870.0 0.00039724
10890.0 0.00039893
10910.0 0.00040023
10930.0 0.00040097
10950.0 0.0004008
10970.0 0.00039944
10990.0 0.00039678
11010.0 0.00039232
11030.0 0.00038608
11050.0 0.00037847
11070.0 0.00036938
11090.0 0.00035845
11110.0 0.00034714
11130.0 0.00033535
11150.0 0.00032266
11170.0 0.00030957
11190.0 0.00029687
11210.0 0.00028377
11230.0 0.00027032
11250.0 0.00025748
11270.0 0.00024514
11290.0 0.00023278
11310.0 0.00022108
11330.0 0.00021077
11350.0 0.00020103
11370.0 0.00019203
11390.0 0.00018424
11410.0 0.00017743
11430.0 0.0001711
11450.0 0.00016564
11470.0 0.00016093
11490.0 0.00015654
11510.0 0.00015231
11530.0 0.00014839
11550.0 0.00014449
11570.0 0.00014033
11590.0 0.00013603
11610.0 0.00013164
11630.0 0.00012687
11650.0 0.00012177
11670.0 0.00011673
11690.0 0.00011163
11710.0 0.00010636
11730.0 0.00010126
11750.0 9.6538e-05
11770.0 9.1906e-05
11790.0 8.7566e-05
11810.0 8.3746e-05
11830.0 8.0329e-05
11850.0 7.7181e-05
11870.0 7.4548e-05
11890.0 7.236e-05
11910.0 7.0437e-05
11930.0 6.8784e-05
11950.0 6.7407e-05
11970.0 6.6178e-05
11990.0 6.5015e-05
12010.0 6.394e-05
12030.0 6.2903e-05
12050.0 6.1832e-05
12070.0 6.0718e-05
12090.0 5.9643e-05
12110.0 5.8553e-05
12130.0 5.746e-05
12150.0 5.6452e-05
12170.0 5.5573e-05
12190.0 5.4812e-05
12210.0 5.4282e-05
12230.0 5.4025e-05
12250.0 5.4066e-05
12270.0 5.4474e-05
12290.0 5.5245e-05
12310.0 5.635e-05
12330.0 5.7897e-05
12350.0 5.9827e-05
12370.0 6.2025e-05
12390.0 6.4559e-05
12410.0 6.7528e-05
12430.0 7.0546e-05
12450.0 7.3671e-05
12470.0 7.6994e-05
12490.0 8.0331e-05
12510.0 8.3462e-05
12530.0 8.6577e-05
12550.0 8.9581e-05
12570.0 9.2234e-05
12590.0 9.4563e-05
12610.0 9.6638e-05
12630.0 9.8292e-05
12650.0 9.9434e-05
12670.0 0.00010018
12690.0 0.00010048
12710.0 0.00010032
12730.0 9.9737e-05
12750.0 9.87e-05
12770.0 9.7276e-05
12790.0 9.555e-05
12810.0 9.3488e-05
12830.0 9.1103e-05
12850.0 8.8608e-05
12870.0 8.597e-05
12890.0 8.3116e-05
12910.0 8.0215e-05
12930.0 7.7356e-05
12950.0 7.4372e-05
12970.0 7.1335e-05
12990.0 6.8461e-05
13010.0 6.5624e-05
13030.0 6.2754e-05
13050.0 5.9998e-05
13070.0 5.7417e-05
13090.0 5.4826e-05
13110.0 5.2319e-05
13130.0 5.0008e-05
13150.0 4.782e-05
13170.0 4.5677e-05
13190.0 4.3771e-05
13210.0 4.2092e-05
13230.0 4.0558e-05
13250.0 3.9237e-05
13270.0 3.8195e-05
13290.0 3.7385e-05
13310.0 3.6827e-05
13330.0 3.6572e-05
13350.0 3.6602e-05
13370.0 3.693e-05
13390.0 3.7575e-05
13410.0 3.8447e-05
13430.0 3.958e-05
13450.0 4.0979e-05
13470.0 4.2533e-05
13490.0 4.4178e-05
13510.0 4.6034e-05
13530.0 4.7915e-05
13550.0 4.9716e-05
13570.0 5.1491e-05
13590.0 5.3222e-05
13610.0 5.4761e-05
13630.0 5.6105e-05
13650.0 5.7332e-05
13670.0 5.835e-05
13690.0 5.9138e-05
13710.0 5.9747e-05
13730.0 6.0182e-05
13750.0 6.04e-05
13770.0 6.0449e-05
13790.0 6.0339e-05
13810.0 6.0073e-05
13830.0 5.9679e-05
13850.0 5.9146e-05
13870.0 5.8474e-05
13890.0 5.7704e-05
13910.0 5.6838e-05
13930.0 5.5834e-05
13950.0 5.4739e-05
13970.0 5.3619e-05
13990.0 5.2399e-05
14010.0 5.1102e-05
14030.0 4.9809e-05
14050.0 4.8505e-05
14070.0 4.7128e-05
14090.0 4.5809e-05
14110.0 4.457e-05
14130.0 4.3368e-05
14150.0 4.2238e-05
14170.0 4.1272e-05
14190.0 4.0438e-05
14210.0 3.973e-05
14230.0 3.9206e-05
14250.0 3.8867e-05
14270.0 3.8702e-05
14290.0 3.8737e-05
14310.0 3.8953e-05
14330.0 3.9341e-05
14350.0 3.9912e-05
14370.0 4.0622e-05
14390.0 4.143e-05
14410.0 4.2381e-05
14430.0 4.3425e-05
14450.0 4.4491e-05
14470.0 4.5597e-05
14490.0 4.6774e-05
14510.0 4.7899e-05
14530.0 4.8968e-05
14550.0 5.0036e-05
14570.0 5.1061e-05
14590.0 5.1995e-05
14610.0 5.2897e-05
14630.0 5.3791e-05
14650.0 5.4623e-05
14670.0 5.5426e-05
14690.0 5.6264e-05
14710.0 5.7145e-05
14730.0 5.8026e-05
14750.0 5.9002e-05
14770.0 6.0109e-05
14790.0 6.1309e-05
14810.0 6.2609e-05
14830.0 6.415e-05
14850.0 6.5825e-05
14870.0 6.7572e-05
14890.0 6.9457e-05
14910.0 7.1458e-05
14930.0 7.3383e-05
14950.0 7.5182e-05
14970.0 7.6885e-05
14990.0 7.8313e-05
15010.0 7.9405e-05
15030.0 8.0213e-05
15050.0 8.0748e-05
15070.0 8.1009e-05
15090.0 8.1101e-05
15110.0 8.1075e-05
15130.0 8.0972e-05
15150.0 8.0836e-05
15170.0 8.0674e-05
15190.0 8.05e-05
15210.0 8.0329e-05
15230.0 8.0158e-05
15250.0 7.9981e-05
15270.0 7.9806e-05
15290.0 7.9641e-05
15310.0 7.947e-05
15330.0 7.9298e-05
15350.0 7.9133e-05
15370.0 7.8969e-05
15390.0 7.8797e-05
15410.0 7.863e-05
15430.0 7.8469e-05
15450.0 7.8304e-05
15470.0 7.8136e-05
15490.0 7.7977e-05
15510.0 7.7818e-05
15530.0 7.7653e-05
15550.0 7.7493e-05
15570.0 7.7337e-05
15590.0 7.7175e-05
15610.0 7.7011e-05
15630.0 7.6857e-05
15650.0 7.6701e-05
15670.0 7.654e-05
15690.0 7.6384e-05
15710.0 7.6233e-05
15730.0 7.6075e-05
15750.0 7.5917e-05
15770.0 7.5765e-05
15790.0 7.5612e-05
15810.0 7.5452e-05
15830.0 7.5299e-05
15850.0 7.515e-05
15870.0 7.4995e-05
15890.0 7.484e-05
15910.0 7.4692e-05
15930.0 7.4541e-05
15950.0 7.4384e-05
15970.0 7.4233e-05
15990.0 7.4084e-05
16010.0 7.393e-05
16030.0 7.3774e-05
16050.0 7.3629e-05
16070.0 7.3479e-05
16090.0 7.3325e-05
16110.0 7.3175e-05
16130.0 7.303e-05
16150.0 7.2873e-05
16170.0 7.272e-05
16190.0 7.2573e-05
16210.0 7.2423e-05
16230.0 7.2268e-05
16250.0 7.2119e-05
16270.0 7.1973e-05
16290.0 7.1819e-05
16310.0 7.1666e-05
16330.0 7.152e-05
16350.0 7.1369e-05
16370.0 7.121e-05
16390.0 7.1062e-05
16410.0 7.0913e-05
16430.0 7.0759e-05
16450.0 7.0606e-05
16470.0 7.046e-05
16490.0 7.0306e-05
16510.0 7.015e-05
16530.0 7e-05
16550.0 6.985e-05
16570.0 6.9692e-05
16590.0 6.9536e-05
16610.0 6.9389e-05
16630.0 6.9234e-05
16650.0 6.9077e-05
16670.0 6.8926e-05
16690.0 6.8775e-05
16710.0 6.8614e-05
16730.0 6.8458e-05
16750.0 6.8306e-05
16770.0 6.8149e-05
16790.0 6.7989e-05
16810.0 6.7836e-05
16830.0 6.7682e-05
16850.0 6.7521e-05
16870.0 6.7364e-05
16890.0 6.7211e-05
16910.0 6.7049e-05
16930.0 6.6886e-05
16950.0 6.6731e-05
16970.0 6.6573e-05
16990.0 6.6409e-05
17010.0 6.625e-05
17030.0 6.6095e-05
17050.0 6.5931e-05
17070.0 6.5767e-05
17090.0 6.5608e-05
17110.0 6.5447e-05
17130.0 6.5278e-05
17150.0 6.5116e-05
17170.0 6.4957e-05
17190.0 6.4791e-05
17210.0 6.4625e-05
17230.0 6.4465e-05
17250.0 6.43e-05
17270.0 6.4129e-05
17290.0 6.3965e-05
17310.0 6.3801e-05
17330.0 6.3632e-05
17350.0 6.346e-05
17370.0 6.3298e-05
17390.0 6.3131e-05
17410.0 6.2959e-05
17430.0 6.2792e-05
17450.0 6.2628e-05
17470.0 6.2452e-05
17490.0 6.2279e-05
17510.0 6.2113e-05
17530.0 6.1942e-05
17550.0 6.1766e-05
17570.0 6.1597e-05
17590.0 6.1429e-05
17610.0 6.1252e-05
17630.0 6.1078e-05
17650.0 6.0909e-05
17670.0 6.0735e-05
17690.0 6.0553e-05
17710.0 6.0382e-05
17730.0 6.021e-05
17750.0 6.0032e-05
17770.0 5.9855e-05
17790.0 5.9685e-05
17810.0 5.9506e-05
17830.0 5.9326e-05
17850.0 5.9151e-05
17870.0 5.8976e-05
17890.0 5.8793e-05
17910.0 5.8613e-05
17930.0 5.844e-05
17950.0 5.826e-05
17970.0 5.8078e-05
17990.0 5.7902e-05
18010.0 5.7725e-05
18030.0 5.7538e-05
18050.0 5.7357e-05
18070.0 5.718e-05
18090.0 5.6997e-05
18110.0 5.6812e-05
18130.0 5.6635e-05
18150.0 5.6455e-05
18170.0 5.6269e-05
18190.0 5.6087e-05
18210.0 5.5909e-05
18230.0 5.5722e-05
18250.0 5.5534e-05
18270.0 5.5354e-05
18290.0 5.5172e-05
18310.0 5.4984e-05
18330.0 5.4801e-05
18350.0 5.4622e-05
18370.0 5.4434e-05
18390.0 5.4246e-05
18410.0 5.4065e-05
18430.0 5.388e-05
18450.0 5.3688e-05
18470.0 5.3504e-05
18490.0 5.3322e-05
18510.0 5.3134e-05
18530.0 5.2946e-05
18550.0 5.2765e-05
18570.0 5.2578e-05
18590.0 5.2385e-05
18610.0 5.22e-05
18630.0 5.2016e-05
18650.0 5.1826e-05
18670.0 5.1635e-05
18690.0 5.1453e-05
18710.0 5.1266e-05
18730.0 5.1075e-05
18750.0 5.089e-05
18770.0 5.0706e-05
18790.0 5.0511e-05
18810.0 5.0321e-05
18830.0 5.0138e-05
18850.0 4.9949e-05
18870.0 4.9757e-05
18890.0 4.9571e-05
18910.0 4.9387e-05
18930.0 4.9194e-05
18950.0 4.9005e-05
18970.0 4.882e-05
18990.0 4.8631e-05
19010.0 4.8435e-05
19030.0 4.825e-05
19050.0 4.8064e-05
19070.0 4.7872e-05
19090.0 4.7683e-05
19110.0 4.75e-05
19130.0 4.7308e-05
19150.0 4.7116e-05
19170.0 4.693e-05
19190.0 4.6743e-05
19210.0 4.6549e-05
19230.0 4.6359e-05
19250.0 4.6176e-05
19270.0 4.5986e-05
19290.0 4.5794e-05
19310.0 4.5609e-05
19330.0 4.5423e-05
19350.0 4.5227e-05
19370.0 4.5039e-05
19390.0 4.4854e-05
19410.0 4.4664e-05
19430.0 4.4471e-05
19450.0 4.4288e-05
19470.0 4.4101e-05
19490.0 4.3909e-05
19510.0 4.3721e-05
19530.0 4.3537e-05
19550.0 4.3345e-05
19570.0 4.3152e-05
19590.0 4.2969e-05
19610.0 4.2782e-05
19630.0 4.259e-05
19650.0 4.2404e-05
19670.0 4.2221e-05
19690.0 4.203e-05
19710.0 4.184e-05
19730.0 4.1656e-05
19750.0 4.1469e-05
19770.0 4.1276e-05
19790.0 4.109e-05
19810.0 4.0907e-05
19830.0 4.0717e-05
19850.0 4.0526e-05
19870.0 4.0338e-05
19890.0 4.0136e-05
19910.0 3.9915e-05
19930.0 3.9678e-05
19950.0 3.9407e-05
19970.0 3.9074e-05
19990.0 3.8672e-05
20010.0 3.4406e-05
20030.0 3.3909e-05
20050.0 3.3326e-05
20070.0 3.2694e-05
20090.0 3.2015e-05
20110.0 3.1247e-05
20130.0 3.0469e-05
20150.0 2.9698e-05
20170.0 2.8899e-05
20190.0 2.8088e-05
20210.0 2.7322e-05
20230.0 2.6575e-05
20250.0 2.5827e-05
20270.0 2.5132e-05
20290.0 2.4498e-05
20310.0 2.3895e-05
20330.0 2.3332e-05
20350.0 2.2865e-05
20370.0 2.245e-05
20390.0 2.2086e-05
20410.0 2.1792e-05
20430.0 2.1565e-05
20450.0 2.1386e-05
20470.0 2.1266e-05
20490.0 2.1201e-05
20510.0 2.1183e-05
20530.0 2.1209e-05
20550.0 2.1274e-05
20570.0 2.1369e-05
20590.0 2.1498e-05
20610.0 2.1655e-05
20630.0 2.1827e-05
20650.0 2.2019e-05
20670.0 2.2239e-05
20690.0 2.2463e-05
20710.0 2.2695e-05
20730.0 2.2945e-05
20750.0 2.3206e-05
20770.0 2.3463e-05
20790.0 2.3733e-05
20810.0 2.4018e-05
20830.0 2.4302e-05
20850.0 2.4587e-05
20870.0 2.4892e-05
20890.0 2.5204e-05
20910.0 2.5504e-05
20930.0 2.5815e-05
20950.0 2.6138e-05
20970.0 2.6453e-05
20990.0 2.6764e-05
21010.0 2.709e-05
21030.0 2.7409e-05
21050.0 2.7714e-05
21070.0 2.8018e-05
21090.0 2.8323e-05
21110.0 2.8601e-05
21130.0 2.8863e-05
21150.0 2.9116e-05
21170.0 2.9345e-05
21190.0 2.9543e-05
21210.0 2.972e-05
21230.0 2.9868e-05
21250.0 2.9973e-05
21270.0 3.004e-05
21290.0 3.0065e-05
21310.0 3.0041e-05
21330.0 2.997e-05
21350.0 2.9845e-05
21370.0 2.9662e-05
21390.0 2.943e-05
21410.0 2.9146e-05
21430.0 2.8786e-05
21450.0 2.8381e-05
21470.0 2.7941e-05
21490.0 2.7443e-05
21510.0 2.6897e-05
21530.0 2.6341e-05
21550.0 2.576e-05
21570.0 2.514e-05
21590.0 2.453e-05
21610.0 2.3941e-05
21630.0 2.3351e-05
21650.0 2.2774e-05
21670.0 2.2275e-05
21690.0 2.1814e-05
21710.0 2.1399e-05
21730.0 2.1059e-05
21750.0 2.0797e-05
21770.0 2.0597e-05
21790.0 2.0482e-05
21810.0 2.045e-05
21830.0 2.0496e-05
21850.0 2.0624e-05
21870.0 2.0824e-05
21890.0 2.1082e-05
21910.0 2.1413e-05
21930.0 2.1801e-05
21950.0 2.2222e-05
21970.0 2.2688e-05
21990.0 2.3211e-05
22010.0 2.3733e-05
22030.0 2.4264e-05
22050.0 2.4822e-05
22070.0 2.5382e-05
22090.0 2.5913e-05
22110.0 2.6448e-05
22130.0 2.6982e-05
22150.0 2.7481e-05
22170.0 2.7952e-05
22190.0 2.8418e-05
22210.0 2.8852e-05
22230.0 2.9233e-05
22250.0 2.9593e-05
22270.0 2.9924e-05
22290.0 3.0207e-05
22310.0 3.045e-05
22330.0 3.0663e-05
22350.0 3.0829e-05
22370.0 3.0945e-05
22390.0 3.1018e-05
22410.0 3.1041e-05
22430.0 3.1012e-05
22450.0 3.0932e-05
22470.0 3.0794e-05
22490.0 3.06e-05
22510.0 3.0358e-05
22530.0 3.0049e-05
22550.0 2.9673e-05
22570.0 2.9255e-05
22590.0 2.8785e-05
22610.0 2.8244e-05
22630.0 2.7658e-05
22650.0 2.7052e-05
22670.0 2.6382e-05
22690.0 2.5668e-05
22710.0 2.4946e-05
