#lamb flux
1010.0 1.2129e-09
1030.0 1.3415e-09
1050.0 1.4894e-09
1070.0 1.6558e-09
1090.0 1.8449e-09
1110.0 2.0389e-09
1130.0 2.2341e-09
1150.0 2.4386e-09
1170.0 2.6495e-09
1190.0 2.8495e-09
1210.0 3.0522e-09
1230.0 3.2617e-09
1250.0 3.4669e-09
1270.0 3.6662e-09
1290.0 3.8768e-09
1310.0 4.0872e-09
1330.0 4.289e-09
1350.0 4.4931e-09
1370.0 4.7038e-09
1390.0 4.9093e-09
1410.0 5.1086e-09
1430.0 5.317e-09
1450.0 5.5254e-09
1470.0 5.7268e-09
1490.0 5.9304e-09
1510.0 6.1455e-09
1530.0 6.3493e-09
1550.0 6.5504e-09
1570.0 6.7585e-09
1590.0 6.9669e-09
1610.0 7.166e-09
1630.0 7.3713e-09
1650.0 7.5822e-09
1670.0 7.7862e-09
1690.0 7.9878e-09
1710.0 8.1973e-09
1730.0 8.4081e-09
1750.0 8.6066e-09
1770.0 8.811e-09
1790.0 9.0199e-09
1810.0 9.2223e-09
1830.0 9.4215e-09
1850.0 9.6332e-09
1870.0 9.8397e-09
1890.0 1.004e-08
1910.0 1.0244e-08
1930.0 1.0454e-08
1950.0 1.0654e-08
1970.0 1.0853e-08
1990.0 1.106e-08
2010.0 1.1263e-08
2030.0 1.146e-08
2050.0 1.1664e-08
2070.0 1.1872e-08
2090.0 1.207e-08
2110.0 1.2267e-08
2130.0 1.2471e-08
2150.0 1.2671e-08
2170.0 1.2863e-08
2190.0 1.3063e-08
2210.0 1.3264e-08
2230.0 1.3457e-08
2250.0 1.365e-08
2270.0 1.3852e-08
2290.0 1.4047e-08
2310.0 1.4236e-08
2330.0 1.4431e-08
2350.0 1.4632e-08
2370.0 1.4832e-08
2390.0 1.5049e-08
2410.0 1.5306e-08
2430.0 1.5601e-08
2450.0 1.5954e-08
2470.0 1.6407e-08
2490.0 1.6977e-08
2510.0 1.7625e-08
2530.0 1.8405e-08
2550.0 1.9381e-08
2570.0 2.0596e-08
2590.0 2.2176e-08
2610.0 2.4542e-08
2630.0 2.792e-08
2650.0 3.2337e-08
2670.0 3.8047e-08
2690.0 4.5064e-08
2710.0 5.2555e-08
2730.0 5.9956e-08
2750.0 6.7247e-08
2770.0 7.3588e-08
2790.0 7.8623e-08
2810.0 8.262e-08
2830.0 8.5742e-08
2850.0 8.7873e-08
2870.0 8.9437e-08
2890.0 9.0676e-08
2910.0 9.1664e-08
2930.0 9.2472e-08
2950.0 9.3243e-08
2970.0 9.3997e-08
2990.0 9.4704e-08
3010.0 2.6768e-06
3030.0 2.6969e-06
3050.0 2.7162e-06
3070.0 2.7328e-06
3090.0 2.747e-06
3110.0 2.7558e-06
3130.0 2.7555e-06
3150.0 2.7433e-06
3170.0 2.7139e-06
3190.0 2.6677e-06
3210.0 2.6092e-06
3230.0 2.5422e-06
3250.0 2.4761e-06
3270.0 2.4278e-06
3290.0 2.401e-06
3310.0 2.4053e-06
3330.0 2.4402e-06
3350.0 2.5008e-06
3370.0 2.5873e-06
3390.0 2.6964e-06
3410.0 2.8151e-06
3430.0 2.9484e-06
3450.0 3.1018e-06
3470.0 3.2694e-06
3490.0 3.447e-06
3510.0 3.6477e-06
3530.0 3.8626e-06
3550.0 4.0802e-06
3570.0 4.3072e-06
3590.0 4.5541e-06
3610.0 4.8084e-06
3630.0 5.062e-06
3650.0 5.3251e-06
3670.0 5.5653e-06
3690.0 5.7449e-06
3710.0 5.8478e-06
3730.0 5.8512e-06
3750.0 5.7697e-06
3770.0 5.7378e-06
3790.0 5.7036e-06
3810.0 5.5635e-06
3830.0 5.7357e-06
3850.0 6.4132e-06
3870.0 6.7851e-06
3890.0 6.7541e-06
3910.0 6.7829e-06
3930.0 6.9615e-06
3950.0 7.0714e-06
3970.0 6.4427e-06
3990.0 5.5436e-06
4010.0 1.6615e-05
4030.0 2.0131e-05
4050.0 2.3079e-05
4070.0 2.0025e-05
4090.0 1.8137e-05
4110.0 1.6004e-05
4130.0 1.473e-05
4150.0 1.5668e-05
4170.0 1.5434e-05
4190.0 1.6452e-05
4210.0 1.6301e-05
4230.0 1.7242e-05
4250.0 2.0398e-05
4270.0 2.0638e-05
4290.0 1.9017e-05
4310.0 1.976e-05
4330.0 2.1019e-05
4350.0 2.3568e-05
4370.0 2.682e-05
4390.0 2.5168e-05
4410.0 1.8595e-05
4430.0 1.5742e-05
4450.0 1.4465e-05
4470.0 1.1102e-05
4490.0 1.1981e-05
4510.0 1.8097e-05
4530.0 2.0871e-05
4550.0 2.1052e-05
4570.0 2.3689e-05
4590.0 2.6984e-05
4610.0 3.6396e-05
4630.0 4.727e-05
4650.0 5.1264e-05
4670.0 4.7475e-05
4690.0 4.53e-05
4710.0 4.7885e-05
4730.0 4.519e-05
4750.0 3.3785e-05
4770.0 2.4783e-05
4790.0 2.3142e-05
4810.0 2.2058e-05
4830.0 2.0194e-05
4850.0 2.216e-05
4870.0 2.9275e-05
4890.0 3.4524e-05
4910.0 3.029e-05
4930.0 2.6802e-05
4950.0 2.9446e-05
4970.0 3.7763e-05
4990.0 5.1178e-05
5010.0 5.8874e-05
5030.0 5.1913e-05
5050.0 3.5123e-05
5070.0 2.3147e-05
5090.0 1.8665e-05
5110.0 1.9195e-05
5130.0 2.2154e-05
5150.0 2.4002e-05
5170.0 2.3642e-05
5190.0 2.2092e-05
5210.0 2.3091e-05
5230.0 2.4274e-05
5250.0 2.616e-05
5270.0 2.8225e-05
5290.0 3.1279e-05
5310.0 3.6408e-05
5330.0 4.029e-05
5350.0 4.0033e-05
5370.0 4.2051e-05
5390.0 4.8254e-05
5410.0 4.8211e-05
5430.0 4.2636e-05
5450.0 3.9172e-05
5470.0 4.1594e-05
5490.0 5.0816e-05
5510.0 6.3538e-05
5530.0 7.2875e-05
5550.0 7.0434e-05
5570.0 6.403e-05
5590.0 5.5675e-05
5610.0 5.1345e-05
5630.0 4.9788e-05
5650.0 4.7418e-05
5670.0 4.4933e-05
5690.0 4.017e-05
5710.0 3.9166e-05
5730.0 3.6078e-05
5750.0 2.5437e-05
5770.0 1.9845e-05
5790.0 2.2489e-05
5810.0 2.5394e-05
5830.0 3.1162e-05
5850.0 3.7094e-05
5870.0 4.1157e-05
5890.0 4.1854e-05
5910.0 4.1062e-05
5930.0 3.9086e-05
5950.0 3.9828e-05
5970.0 4.5399e-05
5990.0 4.2687e-05
6010.0 3.5785e-05
6030.0 3.0233e-05
6050.0 2.6329e-05
6070.0 2.6185e-05
6090.0 2.8393e-05
6110.0 3.1748e-05
6130.0 3.2235e-05
6150.0 2.7735e-05
6170.0 2.4398e-05
6190.0 2.7457e-05
6210.0 3.6297e-05
6230.0 4.7632e-05
6250.0 5.1592e-05
6270.0 4.5085e-05
6290.0 3.7932e-05
6310.0 2.9613e-05
6330.0 2.2689e-05
6350.0 2.0238e-05
6370.0 2.1282e-05
6390.0 2.4604e-05
6410.0 3.0337e-05
6430.0 3.5426e-05
6450.0 4.0536e-05
6470.0 4.6415e-05
6490.0 5.6066e-05
6510.0 6.2689e-05
6530.0 6.1502e-05
6550.0 5.5614e-05
6570.0 4.7211e-05
6590.0 4.2572e-05
6610.0 3.6708e-05
6630.0 3.3256e-05
6650.0 3.1436e-05
6670.0 3.054e-05
6690.0 2.7594e-05
6710.0 2.5084e-05
6730.0 1.8067e-05
6750.0 1.7912e-05
6770.0 1.9469e-05
6790.0 2.2378e-05
6810.0 2.0476e-05
6830.0 2.1085e-05
6850.0 1.9721e-05
6870.0 1.8015e-05
6890.0 1.7298e-05
6910.0 1.8433e-05
6930.0 1.7265e-05
6950.0 1.7763e-05
6970.0 1.8683e-05
6990.0 2.1207e-05
7010.0 2.1388e-05
7030.0 2.1727e-05
7050.0 2.072e-05
7070.0 1.9743e-05
7090.0 1.9801e-05
7110.0 2.0373e-05
7130.0 2.1925e-05
7150.0 2.3286e-05
7170.0 2.5694e-05
7190.0 2.8245e-05
7210.0 2.7755e-05
7230.0 2.8533e-05
7250.0 3.0663e-05
7270.0 3.3415e-05
7290.0 3.966e-05
7310.0 4.3035e-05
7330.0 4.1597e-05
7350.0 3.7622e-05
7370.0 3.2734e-05
7390.0 3.1756e-05
7410.0 3.3747e-05
7430.0 3.7506e-05
7450.0 4.0851e-05
7470.0 4.0476e-05
7490.0 3.6906e-05
7510.0 4.1805e-05
7530.0 4.1348e-05
7550.0 3.7164e-05
7570.0 2.9032e-05
7590.0 1.9959e-05
7610.0 1.7131e-05
7630.0 1.9464e-05
7650.0 2.3013e-05
7670.0 2.8641e-05
7690.0 3.1518e-05
7710.0 3.2845e-05
7730.0 3.4516e-05
7750.0 3.8749e-05
7770.0 3.9358e-05
7790.0 3.6152e-05
7810.0 3.2987e-05
7830.0 3.4017e-05
7850.0 3.3067e-05
7870.0 3.0317e-05
7890.0 2.5472e-05
7910.0 2.0706e-05
7930.0 1.9771e-05
7950.0 1.8012e-05
7970.0 1.6673e-05
7990.0 1.6578e-05
8010.0 1.2278e-06
8030.0 1.2119e-06
8050.0 1.1955e-06
8070.0 1.2112e-06
8090.0 1.3014e-06
8110.0 1.2792e-06
8130.0 1.0552e-06
8150.0 1.0276e-06
8170.0 8.8516e-07
8190.0 8.3888e-07
8210.0 1.0894e-06
8230.0 1.2129e-06
8250.0 1.0931e-06
8270.0 9.5144e-07
8290.0 9.2747e-07
8310.0 7.1382e-07
8330.0 4.8112e-07
8350.0 3.4144e-07
8370.0 2.1513e-07
8390.0 3.9324e-07
8410.0 4.5824e-07
8430.0 5.6485e-07
8450.0 6.6329e-07
8470.0 8.2442e-07
8490.0 8.1861e-07
8510.0 8.0523e-07
8530.0 8.4037e-07
8550.0 1.1338e-06
8570.0 1.3423e-06
8590.0 1.4483e-06
8610.0 1.8295e-06
8630.0 2.204e-06
8650.0 2.3056e-06
8670.0 2.4501e-06
8690.0 2.4639e-06
8710.0 2.2314e-06
8730.0 2.0755e-06
8750.0 1.832e-06
8770.0 1.7383e-06
8790.0 1.7078e-06
8810.0 1.6365e-06
8830.0 1.3086e-06
8850.0 9.58e-07
8870.0 7.3353e-07
8890.0 7.1714e-07
8910.0 8.2186e-07
8930.0 9.3481e-07
8950.0 9.5271e-07
8970.0 9.5722e-07
8990.0 8.5372e-07
9010.0 8.9466e-06
9030.0 8.1067e-06
9050.0 8.1458e-06
9070.0 8.2102e-06
9090.0 8.2666e-06
9110.0 8.3362e-06
9130.0 8.3899e-06
9150.0 8.4317e-06
9170.0 8.4762e-06
9190.0 8.5238e-06
9210.0 8.5738e-06
9230.0 8.6267e-06
9250.0 8.6804e-06
9270.0 8.736e-06
9290.0 8.7934e-06
9310.0 8.8512e-06
9330.0 8.9101e-06
9350.0 8.9711e-06
9370.0 9.0329e-06
9390.0 9.0953e-06
9410.0 9.1595e-06
9430.0 9.2256e-06
9450.0 9.2915e-06
9470.0 9.3588e-06
9490.0 9.428e-06
9510.0 9.498e-06
9530.0 9.5684e-06
9550.0 9.6412e-06
9570.0 9.7152e-06
9590.0 9.7895e-06
9610.0 9.8651e-06
9630.0 9.9427e-06
9650.0 1.0021e-05
9670.0 1.0099e-05
9690.0 1.018e-05
9710.0 1.0262e-05
9730.0 1.0343e-05
9750.0 1.0427e-05
9770.0 1.0512e-05
9790.0 1.0598e-05
9810.0 1.0684e-05
9830.0 1.0771e-05
9850.0 1.086e-05
9870.0 1.0949e-05
9890.0 1.1039e-05
9910.0 1.113e-05
9930.0 1.1222e-05
9950.0 1.1314e-05
9970.0 1.1408e-05
9990.0 1.1503e-05
10010.0 9.9812e-06
10030.0 1.0063e-05
10050.0 1.0147e-05
10070.0 1.0233e-05
10090.0 1.0315e-05
10110.0 1.0398e-05
10130.0 1.0482e-05
10150.0 1.0566e-05
10170.0 1.065e-05
10190.0 1.0736e-05
10210.0 1.0821e-05
10230.0 1.0906e-05
10250.0 1.0992e-05
10270.0 1.1078e-05
10290.0 1.1163e-05
10310.0 1.125e-05
10330.0 1.1337e-05
10350.0 1.1422e-05
10370.0 1.1507e-05
10390.0 1.1593e-05
10410.0 1.1679e-05
10430.0 1.1763e-05
10450.0 1.1848e-05
10470.0 1.1933e-05
10490.0 1.2017e-05
10510.0 1.21e-05
10530.0 1.2185e-05
10550.0 1.2268e-05
10570.0 1.2349e-05
10590.0 1.2431e-05
10610.0 1.2513e-05
10630.0 1.2593e-05
10650.0 1.2672e-05
10670.0 1.2752e-05
10690.0 1.283e-05
10710.0 1.2906e-05
10730.0 1.2983e-05
10750.0 1.306e-05
10770.0 1.3134e-05
10790.0 1.3207e-05
10810.0 1.328e-05
10830.0 1.3351e-05
10850.0 1.3418e-05
10870.0 1.3484e-05
10890.0 1.3541e-05
10910.0 1.3585e-05
10930.0 1.361e-05
10950.0 1.3604e-05
10970.0 1.3558e-05
10990.0 1.3468e-05
11010.0 1.3316e-05
11030.0 1.3105e-05
11050.0 1.2846e-05
11070.0 1.2538e-05
11090.0 1.2167e-05
11110.0 1.1783e-05
11130.0 1.1383e-05
11150.0 1.0952e-05
11170.0 1.0508e-05
11190.0 1.0077e-05
11210.0 9.6318e-06
11230.0 9.1755e-06
11250.0 8.7395e-06
11270.0 8.3208e-06
11290.0 7.9013e-06
11310.0 7.504e-06
11330.0 7.154e-06
11350.0 6.8234e-06
11370.0 6.5179e-06
11390.0 6.2536e-06
11410.0 6.0224e-06
11430.0 5.8076e-06
11450.0 5.6225e-06
11470.0 5.4624e-06
11490.0 5.3134e-06
11510.0 5.1699e-06
11530.0 5.0368e-06
11550.0 4.9045e-06
11570.0 4.7633e-06
11590.0 4.6172e-06
11610.0 4.4684e-06
11630.0 4.3065e-06
11650.0 4.1331e-06
11670.0 3.9623e-06
11690.0 3.789e-06
11710.0 3.6102e-06
11730.0 3.4371e-06
11750.0 3.2768e-06
11770.0 3.1196e-06
11790.0 2.9723e-06
11810.0 2.8426e-06
11830.0 2.7266e-06
11850.0 2.6198e-06
11870.0 2.5304e-06
11890.0 2.4561e-06
11910.0 2.3908e-06
11930.0 2.3347e-06
11950.0 2.288e-06
11970.0 2.2463e-06
11990.0 2.2068e-06
12010.0 2.1703e-06
12030.0 2.1351e-06
12050.0 2.0988e-06
12070.0 2.0609e-06
12090.0 2.0245e-06
12110.0 1.9874e-06
12130.0 1.9504e-06
12150.0 1.9162e-06
12170.0 1.8863e-06
12190.0 1.8605e-06
12210.0 1.8425e-06
12230.0 1.8338e-06
12250.0 1.8352e-06
12270.0 1.849e-06
12290.0 1.8752e-06
12310.0 1.9127e-06
12330.0 1.9652e-06
12350.0 2.0307e-06
12370.0 2.1053e-06
12390.0 2.1913e-06
12410.0 2.2921e-06
12430.0 2.3945e-06
12450.0 2.5006e-06
12470.0 2.6134e-06
12490.0 2.7267e-06
12510.0 2.8329e-06
12530.0 2.9387e-06
12550.0 3.0407e-06
12570.0 3.1307e-06
12590.0 3.2097e-06
12610.0 3.2802e-06
12630.0 3.3363e-06
12650.0 3.3751e-06
12670.0 3.4005e-06
12690.0 3.4108e-06
12710.0 3.4051e-06
12730.0 3.3854e-06
12750.0 3.3502e-06
12770.0 3.3018e-06
12790.0 3.2432e-06
12810.0 3.1733e-06
12830.0 3.0923e-06
12850.0 3.0076e-06
12870.0 2.9181e-06
12890.0 2.8212e-06
12910.0 2.7227e-06
12930.0 2.6257e-06
12950.0 2.5244e-06
12970.0 2.4213e-06
12990.0 2.3238e-06
13010.0 2.2275e-06
13030.0 2.1301e-06
13050.0 2.0365e-06
13070.0 1.9489e-06
13090.0 1.861e-06
13110.0 1.7759e-06
13130.0 1.6974e-06
13150.0 1.6231e-06
13170.0 1.5504e-06
13190.0 1.4857e-06
13210.0 1.4287e-06
13230.0 1.3767e-06
13250.0 1.3318e-06
13270.0 1.2965e-06
13290.0 1.2689e-06
13310.0 1.25e-06
13330.0 1.2414e-06
13350.0 1.2424e-06
13370.0 1.2535e-06
13390.0 1.2754e-06
13410.0 1.305e-06
13430.0 1.3434e-06
13450.0 1.3909e-06
13470.0 1.4437e-06
13490.0 1.4995e-06
13510.0 1.5625e-06
13530.0 1.6264e-06
13550.0 1.6875e-06
13570.0 1.7478e-06
13590.0 1.8065e-06
13610.0 1.8588e-06
13630.0 1.9044e-06
13650.0 1.946e-06
13670.0 1.9806e-06
13690.0 2.0073e-06
13710.0 2.028e-06
13730.0 2.0428e-06
13750.0 2.0501e-06
13770.0 2.0518e-06
13790.0 2.0481e-06
13810.0 2.039e-06
13830.0 2.0257e-06
13850.0 2.0076e-06
13870.0 1.9848e-06
13890.0 1.9587e-06
13910.0 1.9292e-06
13930.0 1.8952e-06
13950.0 1.858e-06
13970.0 1.82e-06
13990.0 1.7786e-06
14010.0 1.7346e-06
14030.0 1.6906e-06
14050.0 1.6464e-06
14070.0 1.5997e-06
14090.0 1.5549e-06
14110.0 1.5128e-06
14130.0 1.4721e-06
14150.0 1.4337e-06
14170.0 1.4009e-06
14190.0 1.3726e-06
14210.0 1.3485e-06
14230.0 1.3308e-06
14250.0 1.3193e-06
14270.0 1.3137e-06
14290.0 1.3149e-06
14310.0 1.3222e-06
14330.0 1.3353e-06
14350.0 1.3547e-06
14370.0 1.3788e-06
14390.0 1.4063e-06
14410.0 1.4385e-06
14430.0 1.474e-06
14450.0 1.5102e-06
14470.0 1.5477e-06
14490.0 1.5876e-06
14510.0 1.6258e-06
14530.0 1.6621e-06
14550.0 1.6984e-06
14570.0 1.7332e-06
14590.0 1.7648e-06
14610.0 1.7955e-06
14630.0 1.8258e-06
14650.0 1.8541e-06
14670.0 1.8813e-06
14690.0 1.9098e-06
14710.0 1.9397e-06
14730.0 1.9696e-06
14750.0 2.0027e-06
14770.0 2.0403e-06
14790.0 2.081e-06
14810.0 2.1251e-06
14830.0 2.1774e-06
14850.0 2.2343e-06
14870.0 2.2936e-06
14890.0 2.3576e-06
14910.0 2.4255e-06
14930.0 2.4908e-06
14950.0 2.5519e-06
14970.0 2.6097e-06
14990.0 2.6582e-06
15010.0 2.6952e-06
15030.0 2.7227e-06
15050.0 2.7408e-06
15070.0 2.7497e-06
15090.0 2.7528e-06
15110.0 2.7519e-06
15130.0 2.7484e-06
15150.0 2.7438e-06
15170.0 2.7383e-06
15190.0 2.7324e-06
15210.0 2.7266e-06
15230.0 2.7208e-06
15250.0 2.7148e-06
15270.0 2.7089e-06
15290.0 2.7032e-06
15310.0 2.6975e-06
15330.0 2.6916e-06
15350.0 2.686e-06
15370.0 2.6804e-06
15390.0 2.6746e-06
15410.0 2.6689e-06
15430.0 2.6635e-06
15450.0 2.6579e-06
15470.0 2.6522e-06
15490.0 2.6468e-06
15510.0 2.6414e-06
15530.0 2.6358e-06
15550.0 2.6303e-06
15570.0 2.6251e-06
15590.0 2.6196e-06
15610.0 2.614e-06
15630.0 2.6087e-06
15650.0 2.6035e-06
15670.0 2.598e-06
15690.0 2.5927e-06
15710.0 2.5876e-06
15730.0 2.5822e-06
15750.0 2.5768e-06
15770.0 2.5717e-06
15790.0 2.5665e-06
15810.0 2.5611e-06
15830.0 2.5559e-06
15850.0 2.5508e-06
15870.0 2.5455e-06
15890.0 2.5403e-06
15910.0 2.5353e-06
15930.0 2.5301e-06
15950.0 2.5248e-06
15970.0 2.5197e-06
15990.0 2.5146e-06
16010.0 2.5094e-06
16030.0 2.5041e-06
16050.0 2.4992e-06
16070.0 2.4941e-06
16090.0 2.4888e-06
16110.0 2.4838e-06
16130.0 2.4788e-06
16150.0 2.4735e-06
16170.0 2.4683e-06
16190.0 2.4633e-06
16210.0 2.4582e-06
16230.0 2.453e-06
16250.0 2.4479e-06
16270.0 2.443e-06
16290.0 2.4377e-06
16310.0 2.4326e-06
16330.0 2.4276e-06
16350.0 2.4225e-06
16370.0 2.4171e-06
16390.0 2.412e-06
16410.0 2.407e-06
16430.0 2.4018e-06
16450.0 2.3966e-06
16470.0 2.3916e-06
16490.0 2.3864e-06
16510.0 2.3811e-06
16530.0 2.376e-06
16550.0 2.3709e-06
16570.0 2.3656e-06
16590.0 2.3603e-06
16610.0 2.3553e-06
16630.0 2.35e-06
16650.0 2.3447e-06
16670.0 2.3396e-06
16690.0 2.3344e-06
16710.0 2.329e-06
16730.0 2.3237e-06
16750.0 2.3185e-06
16770.0 2.3132e-06
16790.0 2.3077e-06
16810.0 2.3026e-06
16830.0 2.2973e-06
16850.0 2.2919e-06
16870.0 2.2865e-06
16890.0 2.2813e-06
16910.0 2.2759e-06
16930.0 2.2703e-06
16950.0 2.265e-06
16970.0 2.2597e-06
16990.0 2.2541e-06
17010.0 2.2487e-06
17030.0 2.2434e-06
17050.0 2.2379e-06
17070.0 2.2323e-06
17090.0 2.2269e-06
17110.0 2.2215e-06
17130.0 2.2157e-06
17150.0 2.2102e-06
17170.0 2.2048e-06
17190.0 2.1992e-06
17210.0 2.1936e-06
17230.0 2.1881e-06
17250.0 2.1825e-06
17270.0 2.1767e-06
17290.0 2.1711e-06
17310.0 2.1656e-06
17330.0 2.1598e-06
17350.0 2.154e-06
17370.0 2.1485e-06
17390.0 2.1429e-06
17410.0 2.137e-06
17430.0 2.1314e-06
17450.0 2.1258e-06
17470.0 2.1198e-06
17490.0 2.1139e-06
17510.0 2.1083e-06
17530.0 2.1025e-06
17550.0 2.0965e-06
17570.0 2.0908e-06
17590.0 2.0851e-06
17610.0 2.0791e-06
17630.0 2.0732e-06
17650.0 2.0674e-06
17670.0 2.0615e-06
17690.0 2.0553e-06
17710.0 2.0495e-06
17730.0 2.0437e-06
17750.0 2.0377e-06
17770.0 2.0317e-06
17790.0 2.0259e-06
17810.0 2.0198e-06
17830.0 2.0137e-06
17850.0 2.0078e-06
17870.0 2.0018e-06
17890.0 1.9956e-06
17910.0 1.9895e-06
17930.0 1.9836e-06
17950.0 1.9775e-06
17970.0 1.9713e-06
17990.0 1.9654e-06
18010.0 1.9594e-06
18030.0 1.953e-06
18050.0 1.9469e-06
18070.0 1.9409e-06
18090.0 1.9347e-06
18110.0 1.9284e-06
18130.0 1.9224e-06
18150.0 1.9163e-06
18170.0 1.9099e-06
18190.0 1.9038e-06
18210.0 1.8977e-06
18230.0 1.8914e-06
18250.0 1.885e-06
18270.0 1.8789e-06
18290.0 1.8727e-06
18310.0 1.8663e-06
18330.0 1.8601e-06
18350.0 1.854e-06
18370.0 1.8476e-06
18390.0 1.8413e-06
18410.0 1.8351e-06
18430.0 1.8289e-06
18450.0 1.8223e-06
18470.0 1.8161e-06
18490.0 1.8099e-06
18510.0 1.8035e-06
18530.0 1.7971e-06
18550.0 1.791e-06
18570.0 1.7846e-06
18590.0 1.7781e-06
18610.0 1.7718e-06
18630.0 1.7656e-06
18650.0 1.7591e-06
18670.0 1.7526e-06
18690.0 1.7465e-06
18710.0 1.7401e-06
18730.0 1.7336e-06
18750.0 1.7273e-06
18770.0 1.7211e-06
18790.0 1.7145e-06
18810.0 1.7081e-06
18830.0 1.7018e-06
18850.0 1.6954e-06
18870.0 1.6889e-06
18890.0 1.6826e-06
18910.0 1.6763e-06
18930.0 1.6698e-06
18950.0 1.6634e-06
18970.0 1.6571e-06
18990.0 1.6507e-06
19010.0 1.644e-06
19030.0 1.6378e-06
19050.0 1.6314e-06
19070.0 1.6249e-06
19090.0 1.6185e-06
19110.0 1.6123e-06
19130.0 1.6058e-06
19150.0 1.5992e-06
19170.0 1.5929e-06
19190.0 1.5866e-06
19210.0 1.58e-06
19230.0 1.5736e-06
19250.0 1.5673e-06
19270.0 1.5609e-06
19290.0 1.5544e-06
19310.0 1.5481e-06
19330.0 1.5418e-06
19350.0 1.5351e-06
19370.0 1.5288e-06
19390.0 1.5225e-06
19410.0 1.516e-06
19430.0 1.5095e-06
19450.0 1.5033e-06
19470.0 1.4969e-06
19490.0 1.4904e-06
19510.0 1.484e-06
19530.0 1.4778e-06
19550.0 1.4713e-06
19570.0 1.4647e-06
19590.0 1.4585e-06
19610.0 1.4521e-06
19630.0 1.4456e-06
19650.0 1.4393e-06
19670.0 1.4331e-06
19690.0 1.4266e-06
19710.0 1.4202e-06
19730.0 1.4139e-06
19750.0 1.4076e-06
19770.0 1.401e-06
19790.0 1.3947e-06
19810.0 1.3885e-06
19830.0 1.382e-06
19850.0 1.3756e-06
19870.0 1.3692e-06
19890.0 1.3623e-06
19910.0 1.3548e-06
19930.0 1.3468e-06
19950.0 1.3376e-06
19970.0 1.3263e-06
19990.0 1.3127e-06
20010.0 1.1679e-06
20030.0 1.151e-06
20050.0 1.1312e-06
20070.0 1.1097e-06
20090.0 1.0867e-06
20110.0 1.0606e-06
20130.0 1.0342e-06
20150.0 1.008e-06
20170.0 9.809e-07
20190.0 9.5339e-07
20210.0 9.274e-07
20230.0 9.0205e-07
20250.0 8.7664e-07
20270.0 8.5307e-07
20290.0 8.3154e-07
20310.0 8.1108e-07
20330.0 7.9197e-07
20350.0 7.761e-07
20370.0 7.6201e-07
20390.0 7.4966e-07
20410.0 7.3969e-07
20430.0 7.32e-07
20450.0 7.259e-07
20470.0 7.2182e-07
20490.0 7.1963e-07
20510.0 7.19e-07
20530.0 7.1989e-07
20550.0 7.2211e-07
20570.0 7.2534e-07
20590.0 7.2972e-07
20610.0 7.3502e-07
20630.0 7.4086e-07
20650.0 7.4739e-07
20670.0 7.5486e-07
20690.0 7.6247e-07
20710.0 7.7034e-07
20730.0 7.7883e-07
20750.0 7.877e-07
20770.0 7.9641e-07
20790.0 8.0556e-07
20810.0 8.1525e-07
20830.0 8.2488e-07
20850.0 8.3456e-07
20870.0 8.4492e-07
20890.0 8.5549e-07
20910.0 8.6568e-07
20930.0 8.7625e-07
20950.0 8.8721e-07
20970.0 8.9789e-07
20990.0 9.0843e-07
21010.0 9.1952e-07
21030.0 9.3035e-07
21050.0 9.4069e-07
21070.0 9.5101e-07
21090.0 9.6137e-07
21110.0 9.7082e-07
21130.0 9.7969e-07
21150.0 9.8828e-07
21170.0 9.9607e-07
21190.0 1.0028e-06
21210.0 1.0088e-06
21230.0 1.0138e-06
21250.0 1.0174e-06
21270.0 1.0196e-06
21290.0 1.0205e-06
21310.0 1.0197e-06
21330.0 1.0173e-06
21350.0 1.013e-06
21370.0 1.0068e-06
21390.0 9.9895e-07
21410.0 9.893e-07
21430.0 9.7707e-07
21450.0 9.6335e-07
21470.0 9.484e-07
21490.0 9.3149e-07
21510.0 9.1295e-07
21530.0 8.9411e-07
21550.0 8.7437e-07
21570.0 8.5332e-07
21590.0 8.3262e-07
21610.0 8.1262e-07
21630.0 7.9259e-07
21650.0 7.7302e-07
21670.0 7.5607e-07
21690.0 7.4043e-07
21710.0 7.2634e-07
21730.0 7.148e-07
21750.0 7.059e-07
21770.0 6.9912e-07
21790.0 6.9522e-07
21810.0 6.9414e-07
21830.0 6.9568e-07
21850.0 7.0003e-07
21870.0 7.0681e-07
21890.0 7.1557e-07
21910.0 7.2681e-07
21930.0 7.3999e-07
21950.0 7.5427e-07
21970.0 7.7008e-07
21990.0 7.8784e-07
22010.0 8.0558e-07
22030.0 8.2359e-07
22050.0 8.4252e-07
22070.0 8.6154e-07
22090.0 8.7956e-07
22110.0 8.9772e-07
22130.0 9.1586e-07
22150.0 9.3279e-07
22170.0 9.4876e-07
22190.0 9.6458e-07
22210.0 9.7931e-07
22230.0 9.9226e-07
22250.0 1.0045e-06
22270.0 1.0157e-06
22290.0 1.0253e-06
22310.0 1.0335e-06
22330.0 1.0408e-06
22350.0 1.0464e-06
22370.0 1.0504e-06
22390.0 1.0528e-06
22410.0 1.0536e-06
22430.0 1.0526e-06
22450.0 1.0499e-06
22470.0 1.0452e-06
22490.0 1.0386e-06
22510.0 1.0304e-06
22530.0 1.0199e-06
22550.0 1.0072e-06
22570.0 9.9302e-07
22590.0 9.7705e-07
22610.0 9.5867e-07
