#lamb flux
1010.0 1.2047e-08
1030.0 1.3324e-08
1050.0 1.4793e-08
1070.0 1.6446e-08
1090.0 1.8325e-08
1110.0 2.0251e-08
1130.0 2.219e-08
1150.0 2.4221e-08
1170.0 2.6316e-08
1190.0 2.8302e-08
1210.0 3.0315e-08
1230.0 3.2396e-08
1250.0 3.4434e-08
1270.0 3.6414e-08
1290.0 3.8506e-08
1310.0 4.0596e-08
1330.0 4.26e-08
1350.0 4.4627e-08
1370.0 4.672e-08
1390.0 4.8761e-08
1410.0 5.0741e-08
1430.0 5.2811e-08
1450.0 5.488e-08
1470.0 5.6881e-08
1490.0 5.8903e-08
1510.0 6.104e-08
1530.0 6.3064e-08
1550.0 6.5061e-08
1570.0 6.7128e-08
1590.0 6.9197e-08
1610.0 7.1175e-08
1630.0 7.3215e-08
1650.0 7.5309e-08
1670.0 7.7336e-08
1690.0 7.9338e-08
1710.0 8.1419e-08
1730.0 8.3513e-08
1750.0 8.5484e-08
1770.0 8.7515e-08
1790.0 8.9589e-08
1810.0 9.1599e-08
1830.0 9.3578e-08
1850.0 9.568e-08
1870.0 9.7732e-08
1890.0 9.9718e-08
1910.0 1.0175e-07
1930.0 1.0383e-07
1950.0 1.0582e-07
1970.0 1.078e-07
1990.0 1.0985e-07
2010.0 1.1187e-07
2030.0 1.1383e-07
2050.0 1.1585e-07
2070.0 1.1792e-07
2090.0 1.1988e-07
2110.0 1.2184e-07
2130.0 1.2387e-07
2150.0 1.2586e-07
2170.0 1.2776e-07
2190.0 1.2974e-07
2210.0 1.3174e-07
2230.0 1.3366e-07
2250.0 1.3558e-07
2270.0 1.3758e-07
2290.0 1.3952e-07
2310.0 1.4139e-07
2330.0 1.4334e-07
2350.0 1.4533e-07
2370.0 1.4732e-07
2390.0 1.4947e-07
2410.0 1.5202e-07
2430.0 1.5496e-07
2450.0 1.5846e-07
2470.0 1.6296e-07
2490.0 1.6862e-07
2510.0 1.7506e-07
2530.0 1.8281e-07
2550.0 1.925e-07
2570.0 2.0457e-07
2590.0 2.2027e-07
2610.0 2.4376e-07
2630.0 2.7731e-07
2650.0 3.2118e-07
2670.0 3.779e-07
2690.0 4.476e-07
2710.0 5.22e-07
2730.0 5.9551e-07
2750.0 6.6792e-07
2770.0 7.309e-07
2790.0 7.8092e-07
2810.0 8.2061e-07
2830.0 8.5162e-07
2850.0 8.7279e-07
2870.0 8.8832e-07
2890.0 9.0063e-07
2910.0 9.1044e-07
2930.0 9.1847e-07
2950.0 9.2612e-07
2970.0 9.3361e-07
2990.0 9.4063e-07
3010.0 2.6587e-05
3030.0 2.6786e-05
3050.0 2.6978e-05
3070.0 2.7143e-05
3090.0 2.7284e-05
3110.0 2.7372e-05
3130.0 2.7369e-05
3150.0 2.7247e-05
3170.0 2.6955e-05
3190.0 2.6497e-05
3210.0 2.5916e-05
3230.0 2.525e-05
3250.0 2.4594e-05
3270.0 2.4114e-05
3290.0 2.3848e-05
3310.0 2.3891e-05
3330.0 2.4237e-05
3350.0 2.4839e-05
3370.0 2.5698e-05
3390.0 2.6782e-05
3410.0 2.7961e-05
3430.0 2.9285e-05
3450.0 3.0809e-05
3470.0 3.2473e-05
3490.0 3.4237e-05
3510.0 3.623e-05
3530.0 3.8365e-05
3550.0 4.0526e-05
3570.0 4.2781e-05
3590.0 4.5233e-05
3610.0 4.7759e-05
3630.0 5.0278e-05
3650.0 5.2891e-05
3670.0 5.5277e-05
3690.0 5.706e-05
3710.0 5.8082e-05
3730.0 5.8116e-05
3750.0 5.7307e-05
3770.0 5.699e-05
3790.0 5.6651e-05
3810.0 5.5259e-05
3830.0 5.6969e-05
3850.0 6.3698e-05
3870.0 6.7392e-05
3890.0 6.7084e-05
3910.0 6.737e-05
3930.0 6.9144e-05
3950.0 7.0236e-05
3970.0 6.3991e-05
3990.0 5.5061e-05
4010.0 0.00016503
4030.0 0.00019995
4050.0 0.00022923
4070.0 0.0001989
4090.0 0.00018014
4110.0 0.00015896
4130.0 0.0001463
4150.0 0.00015562
4170.0 0.0001533
4190.0 0.0001634
4210.0 0.00016191
4230.0 0.00017126
4250.0 0.0002026
4270.0 0.00020498
4290.0 0.00018889
4310.0 0.00019627
4330.0 0.00020877
4350.0 0.00023408
4370.0 0.00026639
4390.0 0.00024998
4410.0 0.00018469
4430.0 0.00015635
4450.0 0.00014367
4470.0 0.00011027
4490.0 0.000119
4510.0 0.00017975
4530.0 0.0002073
4550.0 0.0002091
4570.0 0.00023529
4590.0 0.00026802
4610.0 0.00036149
4630.0 0.00046951
4650.0 0.00050917
4670.0 0.00047154
4690.0 0.00044994
4710.0 0.00047561
4730.0 0.00044885
4750.0 0.00033557
4770.0 0.00024615
4790.0 0.00022986
4810.0 0.00021909
4830.0 0.00020058
4850.0 0.0002201
4870.0 0.00029077
4890.0 0.0003429
4910.0 0.00030085
4930.0 0.00026621
4950.0 0.00029247
4970.0 0.00037508
4990.0 0.00050832
5010.0 0.00058476
5030.0 0.00051562
5050.0 0.00034885
5070.0 0.00022991
5090.0 0.00018538
5110.0 0.00019065
5130.0 0.00022004
5150.0 0.0002384
5170.0 0.00023482
5190.0 0.00021942
5210.0 0.00022935
5230.0 0.0002411
5250.0 0.00025984
5270.0 0.00028035
5290.0 0.00031068
5310.0 0.00036163
5330.0 0.00040019
5350.0 0.00039764
5370.0 0.00041768
5390.0 0.00047929
5410.0 0.00047887
5430.0 0.00042349
5450.0 0.00038909
5470.0 0.00041315
5490.0 0.00050475
5510.0 0.00063111
5530.0 0.00072386
5550.0 0.00069962
5570.0 0.00063601
5590.0 0.00055302
5610.0 0.00051001
5630.0 0.00049455
5650.0 0.00047101
5670.0 0.00044632
5690.0 0.00039901
5710.0 0.00038905
5730.0 0.00035837
5750.0 0.00025267
5770.0 0.00019713
5790.0 0.00022339
5810.0 0.00025225
5830.0 0.00030954
5850.0 0.00036848
5870.0 0.00040883
5890.0 0.00041576
5910.0 0.00040789
5930.0 0.00038826
5950.0 0.00039563
5970.0 0.00045098
5990.0 0.00042404
6010.0 0.00035547
6030.0 0.00030032
6050.0 0.00026154
6070.0 0.00026011
6090.0 0.00028205
6110.0 0.00031538
6130.0 0.00032021
6150.0 0.00027551
6170.0 0.00024236
6190.0 0.00027275
6210.0 0.00036057
6230.0 0.00047317
6250.0 0.0005125
6270.0 0.00044786
6290.0 0.00037681
6310.0 0.00029416
6330.0 0.00022539
6350.0 0.00020104
6370.0 0.00021141
6390.0 0.00024441
6410.0 0.00030136
6430.0 0.00035191
6450.0 0.00040268
6470.0 0.00046107
6490.0 0.00055695
6510.0 0.00062274
6530.0 0.00061094
6550.0 0.00055246
6570.0 0.00046898
6590.0 0.0004229
6610.0 0.00036465
6630.0 0.00033035
6650.0 0.00031228
6670.0 0.00030337
6690.0 0.00027411
6710.0 0.00024918
6730.0 0.00017948
6750.0 0.00017793
6770.0 0.0001934
6790.0 0.0002223
6810.0 0.00020341
6830.0 0.00020945
6850.0 0.00019591
6870.0 0.00017896
6890.0 0.00017183
6910.0 0.00018311
6930.0 0.0001715
6950.0 0.00017645
6970.0 0.00018559
6990.0 0.00021066
7010.0 0.00021246
7030.0 0.00021583
7050.0 0.00020583
7070.0 0.00019612
7090.0 0.00019669
7110.0 0.00020238
7130.0 0.0002178
7150.0 0.00023132
7170.0 0.00025524
7190.0 0.00028058
7210.0 0.00027571
7230.0 0.00028343
7250.0 0.0003046
7270.0 0.00033193
7290.0 0.00039397
7310.0 0.0004275
7330.0 0.00041321
7350.0 0.00037372
7370.0 0.00032517
7390.0 0.00031546
7410.0 0.00033524
7430.0 0.00037257
7450.0 0.0004058
7470.0 0.00040207
7490.0 0.00036661
7510.0 0.00041528
7530.0 0.00041074
7550.0 0.00036918
7570.0 0.0002884
7590.0 0.00019826
7610.0 0.00017017
7630.0 0.00019334
7650.0 0.0002286
7670.0 0.00028451
7690.0 0.00031308
7710.0 0.00032627
7730.0 0.00034287
7750.0 0.00038491
7770.0 0.00039096
7790.0 0.00035912
7810.0 0.00032767
7830.0 0.0003379
7850.0 0.00032847
7870.0 0.00030115
7890.0 0.00025303
7910.0 0.00020568
7930.0 0.00019639
7950.0 0.00017892
7970.0 0.00016562
7990.0 0.00016467
8010.0 1.2196e-05
8030.0 1.2038e-05
8050.0 1.1875e-05
8070.0 1.2031e-05
8090.0 1.2927e-05
8110.0 1.2707e-05
8130.0 1.0481e-05
8150.0 1.0208e-05
8170.0 8.7924e-06
8190.0 8.3326e-06
8210.0 1.0821e-05
8230.0 1.2047e-05
8250.0 1.0858e-05
8270.0 9.4506e-06
8290.0 9.2126e-06
8310.0 7.0904e-06
8330.0 4.7789e-06
8350.0 3.3916e-06
8370.0 2.1368e-06
8390.0 3.9061e-06
8410.0 4.5516e-06
8430.0 5.6106e-06
8450.0 6.5884e-06
8470.0 8.1889e-06
8490.0 8.1311e-06
8510.0 7.9982e-06
8530.0 8.3472e-06
8550.0 1.1262e-05
8570.0 1.3333e-05
8590.0 1.4386e-05
8610.0 1.8172e-05
8630.0 2.1891e-05
8650.0 2.2901e-05
8670.0 2.4336e-05
8690.0 2.4473e-05
8710.0 2.2163e-05
8730.0 2.0615e-05
8750.0 1.8197e-05
8770.0 1.7266e-05
8790.0 1.6963e-05
8810.0 1.6254e-05
8830.0 1.2998e-05
8850.0 9.5154e-06
8870.0 7.2858e-06
8890.0 7.123e-06
8910.0 8.1631e-06
8930.0 9.285e-06
8950.0 9.4628e-06
8970.0 9.5075e-06
8990.0 8.4795e-06
9010.0 8.8861e-05
9030.0 8.0519e-05
9050.0 8.0908e-05
9070.0 8.1546e-05
9090.0 8.2107e-05
9110.0 8.2798e-05
9130.0 8.3332e-05
9150.0 8.3747e-05
9170.0 8.4189e-05
9190.0 8.4661e-05
9210.0 8.5159e-05
9230.0 8.5684e-05
9250.0 8.6217e-05
9270.0 8.677e-05
9290.0 8.734e-05
9310.0 8.7913e-05
9330.0 8.8498e-05
9350.0 8.9105e-05
9370.0 8.9718e-05
9390.0 9.0338e-05
9410.0 9.0976e-05
9430.0 9.1632e-05
9450.0 9.2287e-05
9470.0 9.2955e-05
9490.0 9.3642e-05
9510.0 9.4338e-05
9530.0 9.5036e-05
9550.0 9.576e-05
9570.0 9.6495e-05
9590.0 9.7233e-05
9610.0 9.7984e-05
9630.0 9.8755e-05
9650.0 9.9532e-05
9670.0 0.00010031
9690.0 0.00010111
9710.0 0.00010192
9730.0 0.00010274
9750.0 0.00010356
9770.0 0.00010441
9790.0 0.00010526
9810.0 0.00010611
9830.0 0.00010698
9850.0 0.00010787
9870.0 0.00010875
9890.0 0.00010964
9910.0 0.00011055
9930.0 0.00011146
9950.0 0.00011237
9970.0 0.00011331
9990.0 0.00011425
10010.0 9.9137e-05
10030.0 9.9951e-05
10050.0 0.00010078
10070.0 0.00010164
10090.0 0.00010245
10110.0 0.00010328
10130.0 0.00010411
10150.0 0.00010494
10170.0 0.00010578
10190.0 0.00010664
10210.0 0.00010748
10230.0 0.00010832
10250.0 0.00010918
10270.0 0.00011004
10290.0 0.00011088
10310.0 0.00011173
10330.0 0.0001126
10350.0 0.00011345
10370.0 0.00011429
10390.0 0.00011515
10410.0 0.000116
10430.0 0.00011684
10450.0 0.00011768
10470.0 0.00011853
10490.0 0.00011936
10510.0 0.00012018
10530.0 0.00012102
10550.0 0.00012185
10570.0 0.00012266
10590.0 0.00012347
10610.0 0.00012428
10630.0 0.00012507
10650.0 0.00012586
10670.0 0.00012665
10690.0 0.00012743
10710.0 0.00012819
10730.0 0.00012895
10750.0 0.00012972
10770.0 0.00013045
10790.0 0.00013118
10810.0 0.00013191
10830.0 0.00013261
10850.0 0.00013328
10870.0 0.00013392
10890.0 0.00013449
10910.0 0.00013493
10930.0 0.00013518
10950.0 0.00013512
10970.0 0.00013466
10990.0 0.00013377
11010.0 0.00013226
11030.0 0.00013016
11050.0 0.0001276
11070.0 0.00012453
11090.0 0.00012085
11110.0 0.00011703
11130.0 0.00011306
11150.0 0.00010878
11170.0 0.00010437
11190.0 0.00010009
11210.0 9.5667e-05
11230.0 9.1135e-05
11250.0 8.6804e-05
11270.0 8.2646e-05
11290.0 7.8479e-05
11310.0 7.4532e-05
11330.0 7.1056e-05
11350.0 6.7773e-05
11370.0 6.4739e-05
11390.0 6.2113e-05
11410.0 5.9817e-05
11430.0 5.7683e-05
11450.0 5.5844e-05
11470.0 5.4254e-05
11490.0 5.2775e-05
11510.0 5.135e-05
11530.0 5.0027e-05
11550.0 4.8713e-05
11570.0 4.7311e-05
11590.0 4.5859e-05
11610.0 4.4382e-05
11630.0 4.2773e-05
11650.0 4.1052e-05
11670.0 3.9355e-05
11690.0 3.7634e-05
11710.0 3.5858e-05
11730.0 3.4138e-05
11750.0 3.2546e-05
11770.0 3.0985e-05
11790.0 2.9522e-05
11810.0 2.8233e-05
11830.0 2.7081e-05
11850.0 2.602e-05
11870.0 2.5133e-05
11890.0 2.4395e-05
11910.0 2.3747e-05
11930.0 2.3189e-05
11950.0 2.2725e-05
11970.0 2.2311e-05
11990.0 2.1919e-05
12010.0 2.1556e-05
12030.0 2.1207e-05
12050.0 2.0846e-05
12070.0 2.047e-05
12090.0 2.0108e-05
12110.0 1.974e-05
12130.0 1.9372e-05
12150.0 1.9032e-05
12170.0 1.8736e-05
12190.0 1.8479e-05
12210.0 1.83e-05
12230.0 1.8214e-05
12250.0 1.8228e-05
12270.0 1.8365e-05
12290.0 1.8625e-05
12310.0 1.8998e-05
12330.0 1.9519e-05
12350.0 2.017e-05
12370.0 2.0911e-05
12390.0 2.1765e-05
12410.0 2.2766e-05
12430.0 2.3783e-05
12450.0 2.4837e-05
12470.0 2.5957e-05
12490.0 2.7082e-05
12510.0 2.8138e-05
12530.0 2.9188e-05
12550.0 3.0201e-05
12570.0 3.1095e-05
12590.0 3.188e-05
12610.0 3.258e-05
12630.0 3.3138e-05
12650.0 3.3522e-05
12670.0 3.3775e-05
12690.0 3.3877e-05
12710.0 3.3821e-05
12730.0 3.3625e-05
12750.0 3.3275e-05
12770.0 3.2795e-05
12790.0 3.2213e-05
12810.0 3.1518e-05
12830.0 3.0714e-05
12850.0 2.9873e-05
12870.0 2.8984e-05
12890.0 2.8021e-05
12910.0 2.7043e-05
12930.0 2.6079e-05
12950.0 2.5073e-05
12970.0 2.4049e-05
12990.0 2.3081e-05
13010.0 2.2124e-05
13030.0 2.1157e-05
13050.0 2.0227e-05
13070.0 1.9357e-05
13090.0 1.8484e-05
13110.0 1.7639e-05
13130.0 1.686e-05
13150.0 1.6122e-05
13170.0 1.5399e-05
13190.0 1.4757e-05
13210.0 1.4191e-05
13230.0 1.3674e-05
13250.0 1.3228e-05
13270.0 1.2877e-05
13290.0 1.2604e-05
13310.0 1.2415e-05
13330.0 1.233e-05
13350.0 1.234e-05
13370.0 1.245e-05
13390.0 1.2668e-05
13410.0 1.2962e-05
13430.0 1.3344e-05
13450.0 1.3815e-05
13470.0 1.4339e-05
13490.0 1.4894e-05
13510.0 1.552e-05
13530.0 1.6154e-05
13550.0 1.6761e-05
13570.0 1.7359e-05
13590.0 1.7943e-05
13610.0 1.8462e-05
13630.0 1.8915e-05
13650.0 1.9329e-05
13670.0 1.9672e-05
13690.0 1.9937e-05
13710.0 2.0143e-05
13730.0 2.0289e-05
13750.0 2.0363e-05
13770.0 2.0379e-05
13790.0 2.0342e-05
13810.0 2.0253e-05
13830.0 2.012e-05
13850.0 1.994e-05
13870.0 1.9713e-05
13890.0 1.9454e-05
13910.0 1.9162e-05
13930.0 1.8824e-05
13950.0 1.8454e-05
13970.0 1.8077e-05
13990.0 1.7666e-05
14010.0 1.7228e-05
14030.0 1.6792e-05
14050.0 1.6353e-05
14070.0 1.5889e-05
14090.0 1.5444e-05
14110.0 1.5026e-05
14130.0 1.4621e-05
14150.0 1.424e-05
14170.0 1.3914e-05
14190.0 1.3633e-05
14210.0 1.3394e-05
14230.0 1.3218e-05
14250.0 1.3103e-05
14270.0 1.3048e-05
14290.0 1.306e-05
14310.0 1.3133e-05
14330.0 1.3263e-05
14350.0 1.3456e-05
14370.0 1.3695e-05
14390.0 1.3967e-05
14410.0 1.4288e-05
14430.0 1.464e-05
14450.0 1.4999e-05
14470.0 1.5372e-05
14490.0 1.5769e-05
14510.0 1.6148e-05
14530.0 1.6509e-05
14550.0 1.6869e-05
14570.0 1.7214e-05
14590.0 1.7529e-05
14610.0 1.7833e-05
14630.0 1.8135e-05
14650.0 1.8415e-05
14670.0 1.8686e-05
14690.0 1.8969e-05
14710.0 1.9266e-05
14730.0 1.9563e-05
14750.0 1.9892e-05
14770.0 2.0265e-05
14790.0 2.0669e-05
14810.0 2.1108e-05
14830.0 2.1627e-05
14850.0 2.2192e-05
14870.0 2.2781e-05
14890.0 2.3416e-05
14910.0 2.4091e-05
14930.0 2.474e-05
14950.0 2.5346e-05
14970.0 2.592e-05
14990.0 2.6402e-05
15010.0 2.677e-05
15030.0 2.7043e-05
15050.0 2.7223e-05
15070.0 2.7311e-05
15090.0 2.7342e-05
15110.0 2.7333e-05
15130.0 2.7299e-05
15150.0 2.7252e-05
15170.0 2.7198e-05
15190.0 2.7139e-05
15210.0 2.7082e-05
15230.0 2.7024e-05
15250.0 2.6964e-05
15270.0 2.6905e-05
15290.0 2.685e-05
15310.0 2.6792e-05
15330.0 2.6734e-05
15350.0 2.6678e-05
15370.0 2.6623e-05
15390.0 2.6565e-05
15410.0 2.6509e-05
15430.0 2.6455e-05
15450.0 2.6399e-05
15470.0 2.6342e-05
15490.0 2.6289e-05
15510.0 2.6235e-05
15530.0 2.618e-05
15550.0 2.6125e-05
15570.0 2.6073e-05
15590.0 2.6018e-05
15610.0 2.5963e-05
15630.0 2.5911e-05
15650.0 2.5858e-05
15670.0 2.5804e-05
15690.0 2.5752e-05
15710.0 2.5701e-05
15730.0 2.5647e-05
15750.0 2.5594e-05
15770.0 2.5543e-05
15790.0 2.5492e-05
15810.0 2.5437e-05
15830.0 2.5386e-05
15850.0 2.5336e-05
15870.0 2.5283e-05
15890.0 2.5231e-05
15910.0 2.5181e-05
15930.0 2.513e-05
15950.0 2.5077e-05
15970.0 2.5026e-05
15990.0 2.4976e-05
16010.0 2.4924e-05
16030.0 2.4872e-05
16050.0 2.4823e-05
16070.0 2.4772e-05
16090.0 2.472e-05
16110.0 2.467e-05
16130.0 2.4621e-05
16150.0 2.4568e-05
16170.0 2.4516e-05
16190.0 2.4467e-05
16210.0 2.4416e-05
16230.0 2.4364e-05
16250.0 2.4314e-05
16270.0 2.4264e-05
16290.0 2.4213e-05
16310.0 2.4161e-05
16330.0 2.4112e-05
16350.0 2.4061e-05
16370.0 2.4007e-05
16390.0 2.3957e-05
16410.0 2.3907e-05
16430.0 2.3855e-05
16450.0 2.3804e-05
16470.0 2.3755e-05
16490.0 2.3703e-05
16510.0 2.365e-05
16530.0 2.3599e-05
16550.0 2.3549e-05
16570.0 2.3496e-05
16590.0 2.3443e-05
16610.0 2.3393e-05
16630.0 2.3341e-05
16650.0 2.3288e-05
16670.0 2.3237e-05
16690.0 2.3186e-05
16710.0 2.3132e-05
16730.0 2.308e-05
16750.0 2.3028e-05
16770.0 2.2975e-05
16790.0 2.2921e-05
16810.0 2.287e-05
16830.0 2.2818e-05
16850.0 2.2764e-05
16870.0 2.2711e-05
16890.0 2.2659e-05
16910.0 2.2605e-05
16930.0 2.2549e-05
16950.0 2.2497e-05
16970.0 2.2444e-05
16990.0 2.2389e-05
17010.0 2.2335e-05
17030.0 2.2283e-05
17050.0 2.2227e-05
17070.0 2.2172e-05
17090.0 2.2119e-05
17110.0 2.2065e-05
17130.0 2.2007e-05
17150.0 2.1953e-05
17170.0 2.1899e-05
17190.0 2.1843e-05
17210.0 2.1787e-05
17230.0 2.1733e-05
17250.0 2.1678e-05
17270.0 2.162e-05
17290.0 2.1565e-05
17310.0 2.151e-05
17330.0 2.1452e-05
17350.0 2.1395e-05
17370.0 2.134e-05
17390.0 2.1284e-05
17410.0 2.1226e-05
17430.0 2.1169e-05
17450.0 2.1114e-05
17470.0 2.1055e-05
17490.0 2.0996e-05
17510.0 2.094e-05
17530.0 2.0883e-05
17550.0 2.0823e-05
17570.0 2.0766e-05
17590.0 2.071e-05
17610.0 2.065e-05
17630.0 2.0592e-05
17650.0 2.0535e-05
17670.0 2.0476e-05
17690.0 2.0414e-05
17710.0 2.0357e-05
17730.0 2.0299e-05
17750.0 2.0239e-05
17770.0 2.0179e-05
17790.0 2.0122e-05
17810.0 2.0062e-05
17830.0 2.0001e-05
17850.0 1.9942e-05
17870.0 1.9883e-05
17890.0 1.9821e-05
17910.0 1.976e-05
17930.0 1.9702e-05
17950.0 1.9641e-05
17970.0 1.958e-05
17990.0 1.9521e-05
18010.0 1.9461e-05
18030.0 1.9398e-05
18050.0 1.9337e-05
18070.0 1.9277e-05
18090.0 1.9216e-05
18110.0 1.9153e-05
18130.0 1.9094e-05
18150.0 1.9033e-05
18170.0 1.897e-05
18190.0 1.8909e-05
18210.0 1.8849e-05
18230.0 1.8786e-05
18250.0 1.8722e-05
18270.0 1.8662e-05
18290.0 1.86e-05
18310.0 1.8537e-05
18330.0 1.8475e-05
18350.0 1.8415e-05
18370.0 1.8351e-05
18390.0 1.8288e-05
18410.0 1.8227e-05
18430.0 1.8165e-05
18450.0 1.81e-05
18470.0 1.8038e-05
18490.0 1.7977e-05
18510.0 1.7913e-05
18530.0 1.785e-05
18550.0 1.7789e-05
18570.0 1.7726e-05
18590.0 1.7661e-05
18610.0 1.7598e-05
18630.0 1.7536e-05
18650.0 1.7472e-05
18670.0 1.7408e-05
18690.0 1.7347e-05
18710.0 1.7284e-05
18730.0 1.7219e-05
18750.0 1.7157e-05
18770.0 1.7095e-05
18790.0 1.7029e-05
18810.0 1.6965e-05
18830.0 1.6903e-05
18850.0 1.684e-05
18870.0 1.6775e-05
18890.0 1.6712e-05
18910.0 1.665e-05
18930.0 1.6585e-05
18950.0 1.6521e-05
18970.0 1.6459e-05
18990.0 1.6395e-05
19010.0 1.6329e-05
19030.0 1.6267e-05
19050.0 1.6204e-05
19070.0 1.6139e-05
19090.0 1.6076e-05
19110.0 1.6014e-05
19130.0 1.5949e-05
19150.0 1.5884e-05
19170.0 1.5822e-05
19190.0 1.5759e-05
19210.0 1.5693e-05
19230.0 1.5629e-05
19250.0 1.5567e-05
19270.0 1.5503e-05
19290.0 1.5439e-05
19310.0 1.5376e-05
19330.0 1.5314e-05
19350.0 1.5248e-05
19370.0 1.5184e-05
19390.0 1.5122e-05
19410.0 1.5058e-05
19430.0 1.4993e-05
19450.0 1.4931e-05
19470.0 1.4868e-05
19490.0 1.4803e-05
19510.0 1.474e-05
19530.0 1.4678e-05
19550.0 1.4613e-05
19570.0 1.4548e-05
19590.0 1.4486e-05
19610.0 1.4423e-05
19630.0 1.4359e-05
19650.0 1.4296e-05
19670.0 1.4234e-05
19690.0 1.417e-05
19710.0 1.4106e-05
19730.0 1.4044e-05
19750.0 1.3981e-05
19770.0 1.3915e-05
19790.0 1.3853e-05
19810.0 1.3791e-05
19830.0 1.3727e-05
19850.0 1.3663e-05
19870.0 1.3599e-05
19890.0 1.3531e-05
19910.0 1.3457e-05
19930.0 1.3377e-05
19950.0 1.3286e-05
19970.0 1.3173e-05
19990.0 1.3038e-05
20010.0 1.16e-05
20030.0 1.1432e-05
20050.0 1.1235e-05
20070.0 1.1022e-05
20090.0 1.0793e-05
20110.0 1.0534e-05
20130.0 1.0272e-05
20150.0 1.0012e-05
20170.0 9.7427e-06
20190.0 9.4694e-06
20210.0 9.2112e-06
20230.0 8.9595e-06
20250.0 8.7072e-06
20270.0 8.473e-06
20290.0 8.2592e-06
20310.0 8.056e-06
20330.0 7.8661e-06
20350.0 7.7085e-06
20370.0 7.5686e-06
20390.0 7.4459e-06
20410.0 7.3469e-06
20430.0 7.2705e-06
20450.0 7.2099e-06
20470.0 7.1694e-06
20490.0 7.1476e-06
20510.0 7.1413e-06
20530.0 7.1502e-06
20550.0 7.1722e-06
20570.0 7.2044e-06
20590.0 7.2478e-06
20610.0 7.3005e-06
20630.0 7.3585e-06
20650.0 7.4234e-06
20670.0 7.4975e-06
20690.0 7.5732e-06
20710.0 7.6513e-06
20730.0 7.7357e-06
20750.0 7.8237e-06
20770.0 7.9102e-06
20790.0 8.0012e-06
20810.0 8.0973e-06
20830.0 8.193e-06
20850.0 8.2892e-06
20870.0 8.3921e-06
20890.0 8.497e-06
20910.0 8.5983e-06
20930.0 8.7033e-06
20950.0 8.8121e-06
20970.0 8.9182e-06
20990.0 9.0229e-06
21010.0 9.133e-06
21030.0 9.2406e-06
21050.0 9.3433e-06
21070.0 9.4458e-06
21090.0 9.5487e-06
21110.0 9.6425e-06
21130.0 9.7306e-06
21150.0 9.816e-06
21170.0 9.8933e-06
21190.0 9.9598e-06
21210.0 1.002e-05
21230.0 1.0069e-05
21250.0 1.0105e-05
21270.0 1.0127e-05
21290.0 1.0136e-05
21310.0 1.0128e-05
21330.0 1.0104e-05
21350.0 1.0062e-05
21370.0 1e-05
21390.0 9.9219e-06
21410.0 9.8261e-06
21430.0 9.7046e-06
21450.0 9.5683e-06
21470.0 9.4199e-06
21490.0 9.2519e-06
21510.0 9.0677e-06
21530.0 8.8806e-06
21550.0 8.6846e-06
21570.0 8.4755e-06
21590.0 8.2699e-06
21610.0 8.0712e-06
21630.0 7.8723e-06
21650.0 7.678e-06
21670.0 7.5095e-06
21690.0 7.3542e-06
21710.0 7.2143e-06
21730.0 7.0997e-06
21750.0 7.0113e-06
21770.0 6.944e-06
21790.0 6.9052e-06
21810.0 6.8945e-06
21830.0 6.9098e-06
21850.0 6.953e-06
21870.0 7.0203e-06
21890.0 7.1073e-06
21910.0 7.2189e-06
21930.0 7.3498e-06
21950.0 7.4917e-06
21970.0 7.6487e-06
21990.0 7.8251e-06
22010.0 8.0013e-06
22030.0 8.1802e-06
22050.0 8.3682e-06
22070.0 8.5572e-06
22090.0 8.7361e-06
22110.0 8.9165e-06
22130.0 9.0966e-06
22150.0 9.2648e-06
22170.0 9.4234e-06
22190.0 9.5806e-06
22210.0 9.7268e-06
22230.0 9.8555e-06
22250.0 9.9767e-06
22270.0 1.0088e-05
22290.0 1.0184e-05
22310.0 1.0266e-05
22330.0 1.0338e-05
22350.0 1.0393e-05
22370.0 1.0433e-05
22390.0 1.0457e-05
22410.0 1.0465e-05
22430.0 1.0455e-05
22450.0 1.0428e-05
22470.0 1.0382e-05
22490.0 1.0316e-05
22510.0 1.0235e-05
22530.0 1.0131e-05
22550.0 1.0004e-05
22570.0 9.863e-06
22590.0 9.7044e-06
22610.0 9.5219e-06
22630.0 9.3243e-06
