#lamb flux
1010.0 9.6352e-06
1030.0 1.0041e-05
1050.0 1.0511e-05
1070.0 1.1042e-05
1090.0 1.1645e-05
1110.0 1.2266e-05
1130.0 1.2894e-05
1150.0 1.3555e-05
1170.0 1.424e-05
1190.0 1.4895e-05
1210.0 1.5562e-05
1230.0 1.6256e-05
1250.0 1.6942e-05
1270.0 1.7613e-05
1290.0 1.8327e-05
1310.0 1.9047e-05
1330.0 1.9744e-05
1350.0 2.0456e-05
1370.0 2.1197e-05
1390.0 2.1928e-05
1410.0 2.2646e-05
1430.0 2.3401e-05
1450.0 2.4165e-05
1470.0 2.4912e-05
1490.0 2.5675e-05
1510.0 2.6483e-05
1530.0 2.7261e-05
1550.0 2.8035e-05
1570.0 2.8838e-05
1590.0 2.9647e-05
1610.0 3.0428e-05
1630.0 3.1233e-05
1650.0 3.2058e-05
1670.0 3.2859e-05
1690.0 3.365e-05
1710.0 3.4465e-05
1730.0 3.5279e-05
1750.0 3.6043e-05
1770.0 3.682e-05
1790.0 3.7601e-05
1810.0 3.8347e-05
1830.0 3.9069e-05
1850.0 3.9819e-05
1870.0 4.0534e-05
1890.0 4.1209e-05
1910.0 4.188e-05
1930.0 4.2551e-05
1950.0 4.3171e-05
1970.0 4.3764e-05
1990.0 4.4367e-05
2010.0 4.4941e-05
2030.0 4.5476e-05
2050.0 4.6019e-05
2070.0 4.6568e-05
2090.0 4.707e-05
2110.0 4.7564e-05
2130.0 4.8078e-05
2150.0 4.8582e-05
2170.0 4.9063e-05
2190.0 4.9581e-05
2210.0 5.0118e-05
2230.0 5.065e-05
2250.0 5.1206e-05
2270.0 5.1822e-05
2290.0 5.2454e-05
2310.0 5.3101e-05
2330.0 5.3816e-05
2350.0 5.4589e-05
2370.0 5.5395e-05
2390.0 5.627e-05
2410.0 5.7246e-05
2430.0 5.8275e-05
2450.0 5.936e-05
2470.0 6.0528e-05
2490.0 6.1759e-05
2510.0 6.3016e-05
2530.0 6.4402e-05
2550.0 6.6091e-05
2570.0 6.8336e-05
2590.0 7.1497e-05
2610.0 7.638e-05
2630.0 8.3467e-05
2650.0 9.2748e-05
2670.0 0.00010458
2690.0 0.00011894
2710.0 0.00013447
2730.0 0.00015039
2750.0 0.00016697
2770.0 0.00018312
2790.0 0.00019838
2810.0 0.00021347
2830.0 0.00022902
2850.0 0.00024423
2870.0 0.00025985
2890.0 0.0002765
2910.0 0.00029389
2930.0 0.00031156
2950.0 0.00033038
2970.0 0.00035023
2990.0 0.00037041
3010.0 0.00066568
3030.0 0.0007026
3050.0 0.00073975
3070.0 0.00077452
3090.0 0.00080602
3110.0 0.00082843
3130.0 0.00083447
3150.0 0.00081616
3170.0 0.00075754
3190.0 0.0006554
3210.0 0.00051033
3230.0 0.00034431
3250.0 0.00050002
3270.0 0.00025267
3290.0 0.00063417
3310.0 0.0001766
3330.0 0.00018596
3350.0 0.00025551
3370.0 0.00033339
3390.0 0.00041531
3410.0 0.00049685
3430.0 0.00058165
3450.0 0.00066605
3470.0 0.0007438
3490.0 0.00079536
3510.0 0.00096268
3530.0 0.0012834
3550.0 0.0013236
3570.0 0.0012028
3590.0 0.0016669
3610.0 0.0012002
3630.0 0.0017346
3650.0 0.001903
3670.0 0.0023701
3690.0 0.0023308
3710.0 0.0018345
3730.0 0.0023654
3750.0 0.0024635
3770.0 0.0025181
3790.0 0.0022919
3810.0 0.0019848
3830.0 0.0024686
3850.0 0.0025123
3870.0 0.0030615
3890.0 0.0029616
3910.0 0.0028346
3930.0 0.0031467
3950.0 0.0035351
3970.0 0.0045817
3990.0 0.003969
4010.0 0.0029394
4030.0 0.0035949
4050.0 0.0037037
4070.0 0.004094
4090.0 0.003749
4110.0 0.0027832
4130.0 0.0034305
4150.0 0.0031536
4170.0 0.0033422
4190.0 0.0033438
4210.0 0.0039779
4230.0 0.0029701
4250.0 0.0034959
4270.0 0.0034934
4290.0 0.0035476
4310.0 0.0041786
4330.0 0.0042975
4350.0 0.0035234
4370.0 0.0031674
4390.0 0.0036036
4410.0 0.0035516
4430.0 0.0028056
4450.0 0.0027955
4470.0 0.0031426
4490.0 0.0024939
4510.0 0.0029417
4530.0 0.003202
4550.0 0.0042136
4570.0 0.0060397
4590.0 0.0061432
4610.0 0.0046413
4630.0 0.0066974
4650.0 0.0090552
4670.0 0.0085057
4690.0 0.0055758
4710.0 0.0057726
4730.0 0.0068958
4750.0 0.0061073
4770.0 0.0047246
4790.0 0.0034797
4810.0 0.0047252
4830.0 0.0053943
4850.0 0.0050809
4870.0 0.0025512
4890.0 0.0054578
4910.0 0.0071387
4930.0 0.0076651
4950.0 0.0078098
4970.0 0.0056562
4990.0 0.0063101
5010.0 0.0068614
5030.0 0.0070004
5050.0 0.006667
5070.0 0.004923
5090.0 0.0041257
5110.0 0.0038883
5130.0 0.0035279
5150.0 0.0039875
5170.0 0.003556
5190.0 0.0042556
5210.0 0.0042642
5230.0 0.0046493
5250.0 0.0058437
5270.0 0.0052751
5290.0 0.0053033
5310.0 0.0072649
5330.0 0.0083107
5350.0 0.0073697
5370.0 0.006672
5390.0 0.0072725
5410.0 0.008661
5430.0 0.0094222
5450.0 0.010223
5470.0 0.010665
5490.0 0.010832
5510.0 0.012508
5530.0 0.012965
5550.0 0.01366
5570.0 0.014245
5590.0 0.014111
5610.0 0.013547
5630.0 0.013202
5650.0 0.013422
5670.0 0.013325
5690.0 0.011659
5710.0 0.011049
5730.0 0.010897
5750.0 0.011583
5770.0 0.010268
5790.0 0.009624
5810.0 0.0098615
5830.0 0.010323
5850.0 0.0095906
5870.0 0.0095467
5890.0 0.010915
5910.0 0.010503
5930.0 0.0089977
5950.0 0.0080464
5970.0 0.00838
5990.0 0.0076887
6010.0 0.0071491
6030.0 0.0071767
6050.0 0.0067873
6070.0 0.0054235
6090.0 0.0049874
6110.0 0.0060677
6130.0 0.0068132
6150.0 0.0071909
6170.0 0.0072054
6190.0 0.0070363
6210.0 0.0069821
6230.0 0.007772
6250.0 0.0071792
6270.0 0.0065237
6290.0 0.0059085
6310.0 0.0055167
6330.0 0.0052286
6350.0 0.0046736
6370.0 0.0046931
6390.0 0.0055036
6410.0 0.0067544
6430.0 0.0077962
6450.0 0.007631
6470.0 0.0076809
6490.0 0.0092258
6510.0 0.010289
6530.0 0.0098461
6550.0 0.0095859
6570.0 0.0097226
6590.0 0.0094442
6610.0 0.010106
6630.0 0.0096163
6650.0 0.0087261
6670.0 0.0079401
6690.0 0.007563
6710.0 0.0087647
6730.0 0.0081334
6750.0 0.0072704
6770.0 0.0067721
6790.0 0.0070661
6810.0 0.0076271
6830.0 0.0074409
6850.0 0.0068731
6870.0 0.006983
6890.0 0.0067994
6910.0 0.0064363
6930.0 0.0072084
6950.0 0.0068204
6970.0 0.0065653
6990.0 0.0066286
7010.0 0.0063746
7030.0 0.0059842
7050.0 0.0056648
7070.0 0.0058467
7090.0 0.0054695
7110.0 0.0048298
7130.0 0.0040492
7150.0 0.0037128
7170.0 0.0046532
7190.0 0.0050154
7210.0 0.0049523
7230.0 0.0052249
7250.0 0.0050218
7270.0 0.0048688
7290.0 0.0052351
7310.0 0.0056274
7330.0 0.0054702
7350.0 0.0051726
7370.0 0.005021
7390.0 0.0052891
7410.0 0.0060984
7430.0 0.0066792
7450.0 0.0072078
7470.0 0.0072401
7490.0 0.0073928
7510.0 0.0070655
7530.0 0.006987
7550.0 0.0067276
7570.0 0.0058909
7590.0 0.0057682
7610.0 0.0056389
7630.0 0.00541
7650.0 0.0059885
7670.0 0.0065553
7690.0 0.0071215
7710.0 0.0078518
7730.0 0.0083577
7750.0 0.0087317
7770.0 0.0087295
7790.0 0.0094006
7810.0 0.0096941
7830.0 0.0091379
7850.0 0.0091866
7870.0 0.0087573
7890.0 0.0089955
7910.0 0.008515
7930.0 0.0085153
7950.0 0.0077268
7970.0 0.0079004
7990.0 0.007622
8010.0 0.0075226
8030.0 0.0074976
8050.0 0.0078104
8070.0 0.0075691
8090.0 0.0075782
8110.0 0.0073539
8130.0 0.0073352
8150.0 0.0070478
8170.0 0.0068443
8190.0 0.0067505
8210.0 0.0067944
8230.0 0.0061226
8250.0 0.0056255
8270.0 0.0049188
8290.0 0.0040496
8310.0 0.0033779
8330.0 0.0026736
8350.0 0.0022736
8370.0 0.0023912
8390.0 0.0025209
8410.0 0.0027084
8430.0 0.0032256
8450.0 0.0034335
8470.0 0.0036103
8490.0 0.004092
8510.0 0.0044734
8530.0 0.0051633
8550.0 0.0060969
8570.0 0.0068371
8590.0 0.0073882
8610.0 0.0080304
8630.0 0.008719
8650.0 0.0088386
8670.0 0.0089024
8690.0 0.0092191
8710.0 0.0091684
8730.0 0.0091407
8750.0 0.0087312
8770.0 0.0087298
8790.0 0.0085983
8810.0 0.0079516
8830.0 0.0078883
8850.0 0.0074285
8870.0 0.0071341
8890.0 0.0066021
8910.0 0.0069724
8930.0 0.0064304
8950.0 0.0062836
8970.0 0.0062612
8990.0 0.0060612
9010.0 0.0061112
9030.0 0.0058914
9050.0 0.0058586
9070.0 0.0058486
9090.0 0.0058379
9110.0 0.0058287
9130.0 0.0058162
9150.0 0.0058022
9170.0 0.0057759
9190.0 0.0057304
9210.0 0.0057851
9230.0 0.0057543
9250.0 0.0057312
9270.0 0.0057093
9290.0 0.0056881
9310.0 0.0056673
9330.0 0.0056466
9350.0 0.0056255
9370.0 0.0056042
9390.0 0.0055824
9410.0 0.0055601
9430.0 0.0055372
9450.0 0.0055135
9470.0 0.0054895
9490.0 0.0054661
9510.0 0.0054421
9530.0 0.0054178
9550.0 0.005393
9570.0 0.0053679
9590.0 0.0053426
9610.0 0.0053171
9630.0 0.0052913
9650.0 0.0052654
9670.0 0.0052395
9690.0 0.0052134
9710.0 0.0051872
9730.0 0.005161
9750.0 0.0051347
9770.0 0.0051084
9790.0 0.0050821
9810.0 0.005056
9830.0 0.0050298
9850.0 0.0050037
9870.0 0.0049777
9890.0 0.0049518
9910.0 0.004926
9930.0 0.0049001
9950.0 0.0048567
9970.0 0.0048366
9990.0 0.0048158
10010.0 0.0047947
10030.0 0.0047722
10050.0 0.004748
10070.0 0.0047203
10090.0 0.0046986
10110.0 0.0046759
10130.0 0.0046534
10150.0 0.0046312
10170.0 0.0046084
10190.0 0.004585
10210.0 0.0045628
10230.0 0.0045412
10250.0 0.004519
10270.0 0.0044972
10290.0 0.0044766
10310.0 0.0044555
10330.0 0.004434
10350.0 0.0044139
10370.0 0.0043941
10390.0 0.0043739
10410.0 0.0043542
10430.0 0.0043357
10450.0 0.0043168
10470.0 0.0042978
10490.0 0.0042798
10510.0 0.0042623
10530.0 0.0042439
10550.0 0.0042263
10570.0 0.0042098
10590.0 0.004193
10610.0 0.0041761
10630.0 0.0041604
10650.0 0.0041448
10670.0 0.0041286
10690.0 0.0041132
10710.0 0.0040986
10730.0 0.0040837
10750.0 0.0040684
10770.0 0.0040547
10790.0 0.0040409
10810.0 0.0040267
10830.0 0.0040131
10850.0 0.0040002
10870.0 0.0039858
10890.0 0.0039707
10910.0 0.0039547
10930.0 0.0039359
10950.0 0.0039115
10970.0 0.0038816
10990.0 0.003846
11010.0 0.0037164
11030.0 0.0036662
11050.0 0.0036096
11070.0 0.0035455
11090.0 0.003472
11110.0 0.0033992
11130.0 0.0033262
11150.0 0.0032504
11170.0 0.0031753
11190.0 0.0031054
11210.0 0.0030355
11230.0 0.0029659
11250.0 0.0029015
11270.0 0.002841
11290.0 0.002781
11310.0 0.0027246
11330.0 0.0026752
11350.0 0.0026278
11370.0 0.0025827
11390.0 0.0025424
11410.0 0.0025056
11430.0 0.0024685
11450.0 0.002434
11470.0 0.0024019
11490.0 0.0023694
11510.0 0.0023353
11530.0 0.0023022
11550.0 0.0022683
11570.0 0.002231
11590.0 0.002192
11610.0 0.0021526
11630.0 0.0021092
11650.0 0.0020623
11670.0 0.0020162
11690.0 0.0019687
11710.0 0.0019184
11730.0 0.0018684
11750.0 0.001821
11770.0 0.0017721
11790.0 0.0017239
11810.0 0.0016794
11830.0 0.001637
11850.0 0.0015944
11870.0 0.0015559
11890.0 0.0015215
11910.0 0.0014883
11930.0 0.001457
11950.0 0.0014294
11970.0 0.0014034
11990.0 0.0013778
12010.0 0.0013546
12030.0 0.0013333
12050.0 0.0013123
12070.0 0.0012918
12090.0 0.0012739
12110.0 0.0012566
12130.0 0.0012397
12150.0 0.0012246
12170.0 0.0012115
12190.0 0.0011989
12210.0 0.0011886
12230.0 0.0011814
12250.0 0.0011767
12270.0 0.0011751
12290.0 0.0011772
12310.0 0.0011832
12330.0 0.0011931
12350.0 0.0012072
12370.0 0.0012249
12390.0 0.0012465
12410.0 0.0012725
12430.0 0.0013005
12450.0 0.0013304
12470.0 0.0013627
12490.0 0.001396
12510.0 0.0014284
12530.0 0.0014612
12550.0 0.0014935
12570.0 0.0015236
12590.0 0.0015516
12610.0 0.0015782
12630.0 0.0016021
12650.0 0.0016228
12670.0 0.0016413
12690.0 0.0016573
12710.0 0.0016706
12730.0 0.0016814
12750.0 0.0016898
12770.0 0.0016959
12790.0 0.0016999
12810.0 0.0017017
12830.0 0.0017012
12850.0 0.0016992
12870.0 0.0016955
12890.0 0.0016895
12910.0 0.001682
12930.0 0.0016734
12950.0 0.0016626
12970.0 0.0016497
12990.0 0.0016362
13010.0 0.0016213
13030.0 0.0016041
13050.0 0.001586
13070.0 0.0015676
13090.0 0.0015472
13110.0 0.0015256
13130.0 0.0015045
13150.0 0.0014831
13170.0 0.0014606
13190.0 0.0014398
13210.0 0.0014209
13230.0 0.001403
13250.0 0.001387
13270.0 0.0013744
13290.0 0.0013642
13310.0 0.0013566
13330.0 0.0013524
13350.0 0.0013511
13370.0 0.0013521
13390.0 0.0013551
13410.0 0.0013595
13430.0 0.0013645
13450.0 0.0013694
13470.0 0.0013734
13490.0 0.0013759
13510.0 0.0013761
13530.0 0.0013737
13550.0 0.0013686
13570.0 0.0013607
13590.0 0.0013496
13610.0 0.0013363
13630.0 0.0013215
13650.0 0.0013043
13670.0 0.001286
13690.0 0.0012679
13710.0 0.0012493
13730.0 0.00123
13750.0 0.0012124
13770.0 0.0011958
13790.0 0.0011796
13810.0 0.0011645
13830.0 0.0011509
13850.0 0.0011378
13870.0 0.0011252
13890.0 0.0011137
13910.0 0.0011029
13930.0 0.0010921
13950.0 0.0010817
13970.0 0.0010722
13990.0 0.0010626
14010.0 0.0010533
14030.0 0.0010447
14050.0 0.0010366
14070.0 0.0010286
14090.0 0.0010214
14110.0 0.001015
14130.0 0.0010091
14150.0 0.001004
14170.0 0.00099975
14190.0 0.00099625
14210.0 0.00099347
14230.0 0.0009915
14250.0 0.00099027
14270.0 0.00098985
14290.0 0.00099026
14310.0 0.00099128
14330.0 0.00099296
14350.0 0.00099538
14370.0 0.00099821
14390.0 0.0010012
14410.0 0.0010047
14430.0 0.0010083
14450.0 0.0010115
14470.0 0.0010146
14490.0 0.0010176
14510.0 0.0010199
14530.0 0.0010217
14550.0 0.0010231
14570.0 0.0010242
14590.0 0.0010249
14610.0 0.0010255
14630.0 0.0010265
14650.0 0.0010277
14670.0 0.0010293
14690.0 0.001032
14710.0 0.001036
14730.0 0.0010407
14750.0 0.001047
14770.0 0.0010552
14790.0 0.0010648
14810.0 0.0010755
14830.0 0.001089
14850.0 0.0011037
14870.0 0.0011189
14890.0 0.0011352
14910.0 0.0011525
14930.0 0.0011685
14950.0 0.0011828
14970.0 0.0011958
14990.0 0.0012056
15010.0 0.0012117
15030.0 0.0012148
15050.0 0.0012149
15070.0 0.0012121
15090.0 0.0012075
15110.0 0.0012017
15130.0 0.0011951
15150.0 0.0011881
15170.0 0.0011809
15190.0 0.0011735
15210.0 0.0011661
15230.0 0.0011587
15250.0 0.0011513
15270.0 0.0011438
15290.0 0.0011365
15310.0 0.0011291
15330.0 0.0011216
15350.0 0.0011143
15370.0 0.0011069
15390.0 0.0010995
15410.0 0.0010922
15430.0 0.0010849
15450.0 0.0010776
15470.0 0.0010702
15490.0 0.001063
15510.0 0.0010558
15530.0 0.0010485
15550.0 0.0010413
15570.0 0.0010342
15590.0 0.001027
15610.0 0.0010199
15630.0 0.0010128
15650.0 0.0010058
15670.0 0.00099869
15690.0 0.0009917
15710.0 0.00098479
15730.0 0.00097785
15750.0 0.00097094
15770.0 0.00096411
15790.0 0.00095731
15810.0 0.00095048
15830.0 0.00094375
15850.0 0.00093709
15870.0 0.00093042
15890.0 0.00092379
15910.0 0.00091726
15930.0 0.00091074
15950.0 0.00090421
15970.0 0.00089777
15990.0 0.0008914
16010.0 0.00088503
16030.0 0.00087869
16050.0 0.00087247
16070.0 0.00086627
16090.0 0.00086007
16110.0 0.00085397
16130.0 0.00084793
16150.0 0.00084186
16170.0 0.00083586
16190.0 0.00082996
16210.0 0.00082408
16230.0 0.00081822
16250.0 0.00081245
16270.0 0.00080675
16290.0 0.00080104
16310.0 0.0007954
16330.0 0.00078984
16350.0 0.0007843
16370.0 0.00077876
16390.0 0.00077334
16410.0 0.00076798
16430.0 0.00076262
16450.0 0.00075732
16470.0 0.00075213
16490.0 0.00074692
16510.0 0.00074175
16530.0 0.00073668
16550.0 0.00073166
16570.0 0.00072663
16590.0 0.00072167
16610.0 0.00071681
16630.0 0.00071196
16650.0 0.00070715
16670.0 0.00070242
16690.0 0.00069774
16710.0 0.00069305
16730.0 0.00068844
16750.0 0.00068391
16770.0 0.00067939
16790.0 0.0006749
16810.0 0.00067051
16830.0 0.00066616
16850.0 0.00066182
16870.0 0.00065754
16890.0 0.00065334
16910.0 0.00064914
16930.0 0.00064497
16950.0 0.0006409
16970.0 0.00063686
16990.0 0.00063283
17010.0 0.00062888
17030.0 0.000625
17050.0 0.00062111
17070.0 0.00061726
17090.0 0.0006135
17110.0 0.00060976
17130.0 0.00060602
17150.0 0.00060236
17170.0 0.00059877
17190.0 0.00059519
17210.0 0.00059164
17230.0 0.00058817
17250.0 0.00058472
17270.0 0.00058127
17290.0 0.00057791
17310.0 0.00057459
17330.0 0.00057127
17350.0 0.00056799
17370.0 0.0005648
17390.0 0.00056163
17410.0 0.00055846
17430.0 0.00055536
17450.0 0.00055232
17470.0 0.00054924
17490.0 0.00054623
17510.0 0.00054329
17530.0 0.00054036
17550.0 0.00053744
17570.0 0.0005346
17590.0 0.0005318
17610.0 0.00052898
17630.0 0.00052622
17650.0 0.00052352
17670.0 0.00052082
17690.0 0.00051812
17710.0 0.00051551
17730.0 0.00051293
17750.0 0.00051035
17770.0 0.00050781
17790.0 0.00050534
17810.0 0.00050285
17830.0 0.00050039
17850.0 0.00049799
17870.0 0.00049562
17890.0 0.00049323
17910.0 0.00049089
17930.0 0.00048863
17950.0 0.00048635
17970.0 0.00048409
17990.0 0.00048189
18010.0 0.00047972
18030.0 0.00047752
18050.0 0.00047538
18070.0 0.00047329
18090.0 0.00047119
18110.0 0.00046911
18130.0 0.0004671
18150.0 0.0004651
18170.0 0.0004631
18190.0 0.00046114
18210.0 0.00045922
18230.0 0.00045729
18250.0 0.00045537
18270.0 0.00045352
18290.0 0.00045168
18310.0 0.00044984
18330.0 0.00044804
18350.0 0.00044629
18370.0 0.00044451
18390.0 0.00044276
18410.0 0.00044106
18430.0 0.00043936
18450.0 0.00043765
18470.0 0.000436
18490.0 0.00043439
18510.0 0.00043276
18530.0 0.00043115
18550.0 0.0004296
18570.0 0.00042803
18590.0 0.00042646
18610.0 0.00042494
18630.0 0.00042345
18650.0 0.00042195
18670.0 0.00042046
18690.0 0.00041903
18710.0 0.00041759
18730.0 0.00041615
18750.0 0.00041476
18770.0 0.00041339
18790.0 0.00041199
18810.0 0.00041062
18830.0 0.0004093
18850.0 0.00040797
18870.0 0.00040664
18890.0 0.00040536
18910.0 0.00040409
18930.0 0.0004028
18950.0 0.00040154
18970.0 0.00040032
18990.0 0.00039909
19010.0 0.00039784
19030.0 0.00039666
19050.0 0.00039549
19070.0 0.0003943
19090.0 0.00039314
19110.0 0.00039202
19130.0 0.00039086
19150.0 0.00038972
19170.0 0.00038862
19190.0 0.00038753
19210.0 0.00038641
19230.0 0.00038533
19250.0 0.00038429
19270.0 0.00038322
19290.0 0.00038216
19310.0 0.00038115
19330.0 0.00038013
19350.0 0.00037908
19370.0 0.00037808
19390.0 0.0003771
19410.0 0.0003761
19430.0 0.00037511
19450.0 0.00037417
19470.0 0.00037322
19490.0 0.00037225
19510.0 0.00037131
19530.0 0.0003704
19550.0 0.00036946
19570.0 0.00036852
19590.0 0.00036763
19610.0 0.00036674
19630.0 0.00036583
19650.0 0.00036495
19670.0 0.0003641
19690.0 0.00036321
19710.0 0.00036234
19730.0 0.0003615
19750.0 0.00036066
19770.0 0.00035978
19790.0 0.00035896
19810.0 0.00035815
19830.0 0.00035731
19850.0 0.00035646
19870.0 0.00035563
19890.0 0.00035471
19910.0 0.00035365
19930.0 0.00035245
19950.0 0.00035098
19970.0 0.00034903
19990.0 0.00034656
20010.0 0.00034364
20030.0 0.00034
20050.0 0.00033566
20070.0 0.00033091
20090.0 0.00032579
20110.0 0.00031998
20130.0 0.00031411
20150.0 0.00030832
20170.0 0.00030233
20190.0 0.00029627
20210.0 0.00029056
20230.0 0.00028498
20250.0 0.00027939
20270.0 0.00027419
20290.0 0.00026944
20310.0 0.00026492
20330.0 0.0002607
20350.0 0.00025722
20370.0 0.00025416
20390.0 0.00025153
20410.0 0.00024949
20430.0 0.00024804
20450.0 0.00024704
20470.0 0.00024662
20490.0 0.00024672
20510.0 0.00024731
20530.0 0.00024839
20550.0 0.00024989
20570.0 0.00025168
20590.0 0.00025387
20610.0 0.00025634
20630.0 0.00025892
20650.0 0.00026166
20670.0 0.00026463
20690.0 0.00026748
20710.0 0.00027025
20730.0 0.00027299
20750.0 0.00027558
20770.0 0.00027786
20790.0 0.00027994
20810.0 0.0002818
20830.0 0.00028329
20850.0 0.00028447
20870.0 0.00028535
20890.0 0.00028589
20910.0 0.00028609
20930.0 0.000286
20950.0 0.0002856
20970.0 0.00028495
20990.0 0.00028408
21010.0 0.00028293
21030.0 0.0002816
21050.0 0.00028015
21070.0 0.00027852
21090.0 0.00027672
21110.0 0.00027492
21130.0 0.00027308
21150.0 0.00027114
21170.0 0.00026922
21190.0 0.00026741
21210.0 0.00026558
21230.0 0.0002638
21250.0 0.00026221
21270.0 0.00026077
21290.0 0.00025945
21310.0 0.00025834
21330.0 0.00025749
21350.0 0.00025681
21370.0 0.00025638
21390.0 0.0002562
21410.0 0.00025626
21430.0 0.00025657
21450.0 0.00025713
21470.0 0.0002579
21490.0 0.0002589
21510.0 0.00026013
21530.0 0.00026149
21550.0 0.00026302
21570.0 0.00026477
21590.0 0.00026661
21610.0 0.00026851
21630.0 0.00027058
21650.0 0.00027279
21670.0 0.00027494
21690.0 0.00027717
21710.0 0.00027953
21730.0 0.00028188
21750.0 0.0002842
21770.0 0.00028669
21790.0 0.0002892
21810.0 0.00029166
21830.0 0.00029416
21850.0 0.00029677
21870.0 0.00029933
21890.0 0.00030182
21910.0 0.00030442
21930.0 0.00030701
21950.0 0.00030949
21970.0 0.00031197
21990.0 0.0003145
22010.0 0.00031684
22030.0 0.00031906
22050.0 0.00032122
22070.0 0.00032322
22090.0 0.00032497
22110.0 0.00032655
22130.0 0.00032793
22150.0 0.000329
22170.0 0.00032979
22190.0 0.00033028
22210.0 0.00033041
22230.0 0.0003302
22250.0 0.00032963
22270.0 0.00032866
22290.0 0.00032735
22310.0 0.00032572
22330.0 0.00032361
22350.0 0.00032117
22370.0 0.00031848
22390.0 0.00031542
22410.0 0.00031195
22430.0 0.00030839
22450.0 0.00030463
22470.0 0.00030054
22490.0 0.00029633
22510.0 0.00029216
22530.0 0.00028773
22550.0 0.00028317
22570.0 0.0002788
22590.0 0.00027446
22610.0 0.00027003
22630.0 0.00026576
22650.0 0.00026178
22670.0 0.00025778
22690.0 0.00025391
22710.0 0.00025034
22730.0 0.00024696
22750.0 0.00024358
22770.0 0.00024053
22790.0 0.00023775
22810.0 0.00023507
22830.0 0.00023255
22850.0 0.00023031
22870.0 0.00022821
22890.0 0.00022618
22910.0 0.00022437
22930.0 0.00022273
22950.0 0.00022117
22970.0 0.00021972
22990.0 0.00021849
23010.0 0.00021735
23030.0 0.00021629
23050.0 0.00021538
23070.0 0.00021461
23090.0 0.00021389
23110.0 0.0002133
23130.0 0.00021282
23150.0 0.00021242
23170.0 0.00021209
23190.0 0.00021186
23210.0 0.00021169
23230.0 0.00021158
23250.0 0.00021153
23270.0 0.00021154
