#lamb flux
1010.0 1.488e-05
1030.0 1.5732e-05
1050.0 1.6719e-05
1070.0 1.7831e-05
1090.0 1.9095e-05
1110.0 2.0395e-05
1130.0 2.1709e-05
1150.0 2.309e-05
1170.0 2.452e-05
1190.0 2.5884e-05
1210.0 2.7273e-05
1230.0 2.8715e-05
1250.0 3.0138e-05
1270.0 3.1529e-05
1290.0 3.3006e-05
1310.0 3.4491e-05
1330.0 3.5929e-05
1350.0 3.7393e-05
1370.0 3.8914e-05
1390.0 4.0411e-05
1410.0 4.1878e-05
1430.0 4.3419e-05
1450.0 4.4974e-05
1470.0 4.6492e-05
1490.0 4.8038e-05
1510.0 4.9675e-05
1530.0 5.1244e-05
1550.0 5.2804e-05
1570.0 5.4421e-05
1590.0 5.6047e-05
1610.0 5.7613e-05
1630.0 5.9225e-05
1650.0 6.0877e-05
1670.0 6.2479e-05
1690.0 6.4057e-05
1710.0 6.5685e-05
1730.0 6.731e-05
1750.0 6.8833e-05
1770.0 7.038e-05
1790.0 7.1938e-05
1810.0 7.3424e-05
1830.0 7.4859e-05
1850.0 7.6352e-05
1870.0 7.7774e-05
1890.0 7.9111e-05
1910.0 8.044e-05
1930.0 8.1765e-05
1950.0 8.2982e-05
1970.0 8.414e-05
1990.0 8.5311e-05
2010.0 8.6415e-05
2030.0 8.7428e-05
2050.0 8.8444e-05
2070.0 8.9458e-05
2090.0 9.0355e-05
2110.0 9.1218e-05
2130.0 9.2094e-05
2150.0 9.2921e-05
2170.0 9.3672e-05
2190.0 9.4459e-05
2210.0 9.5248e-05
2230.0 9.5983e-05
2250.0 9.6719e-05
2270.0 9.7523e-05
2290.0 9.8305e-05
2310.0 9.906e-05
2330.0 9.9887e-05
2350.0 0.00010076
2370.0 0.00010163
2390.0 0.00010256
2410.0 0.00010361
2430.0 0.00010468
2450.0 0.0001058
2470.0 0.00010704
2490.0 0.00010843
2510.0 0.00010998
2530.0 0.00011204
2550.0 0.00011516
2570.0 0.00012
2590.0 0.00012734
2610.0 0.00013914
2630.0 0.00015611
2650.0 0.00017765
2670.0 0.00020419
2690.0 0.00023511
2710.0 0.0002667
2730.0 0.00029707
2750.0 0.00032673
2770.0 0.00035336
2790.0 0.00037649
2810.0 0.00039784
2830.0 0.00041879
2850.0 0.00043844
2870.0 0.00045827
2890.0 0.00047937
2910.0 0.00050137
2930.0 0.00052366
2950.0 0.00054755
2970.0 0.00057286
2990.0 0.00059856
3010.0 0.0016746
3030.0 0.0017489
3050.0 0.001823
3070.0 0.0018906
3090.0 0.0019483
3110.0 0.001981
3130.0 0.0019705
3150.0 0.001897
3170.0 0.0017202
3190.0 0.0014362
3210.0 0.0010493
3230.0 0.00061401
3250.0 0.0010806
3270.0 0.00057251
3290.0 0.0016553
3310.0 0.00048567
3330.0 0.00047619
3350.0 0.00062063
3370.0 0.00079133
3390.0 0.00097633
3410.0 0.0011613
3430.0 0.0013558
3450.0 0.0015513
3470.0 0.0017306
3490.0 0.0018521
3510.0 0.0022809
3530.0 0.0030517
3550.0 0.0029642
3570.0 0.0023847
3590.0 0.0033577
3610.0 0.0020319
3630.0 0.0035174
3650.0 0.0041298
3670.0 0.0053566
3690.0 0.0049606
3710.0 0.0032184
3730.0 0.0043014
3750.0 0.004427
3770.0 0.0047045
3790.0 0.004438
3810.0 0.0043673
3830.0 0.0069001
3850.0 0.0082902
3870.0 0.010308
3890.0 0.0098508
3910.0 0.0086857
3930.0 0.0088854
3950.0 0.0097236
3970.0 0.011356
3990.0 0.0076257
4010.0 0.0041269
4030.0 0.0070608
4050.0 0.0090155
4070.0 0.0099649
4090.0 0.0074233
4110.0 0.0046061
4130.0 0.0072696
4150.0 0.0071616
4170.0 0.0069643
4190.0 0.0065155
4210.0 0.0089898
4230.0 0.006295
4250.0 0.0071058
4270.0 0.007069
4290.0 0.0068396
4310.0 0.0087649
4330.0 0.0092802
4350.0 0.0073257
4370.0 0.006097
4390.0 0.0076852
4410.0 0.0079929
4430.0 0.0059095
4450.0 0.0055987
4470.0 0.0068701
4490.0 0.0050417
4510.0 0.0068312
4530.0 0.007161
4550.0 0.0089294
4570.0 0.012914
4590.0 0.012384
4610.0 0.0086762
4630.0 0.014573
4650.0 0.020458
4670.0 0.01917
4690.0 0.01224
4710.0 0.013306
4730.0 0.016304
4750.0 0.013885
4770.0 0.010474
4790.0 0.0068873
4810.0 0.009923
4830.0 0.011671
4850.0 0.010034
4870.0 0.0032127
4890.0 0.011141
4910.0 0.015389
4930.0 0.016653
4950.0 0.016625
4970.0 0.010456
4990.0 0.012287
5010.0 0.014775
5030.0 0.016419
5050.0 0.01589
5070.0 0.011225
5090.0 0.0090547
5110.0 0.0086229
5130.0 0.0079527
5150.0 0.0085868
5170.0 0.0075129
5190.0 0.0092375
5210.0 0.0093171
5230.0 0.010299
5250.0 0.012578
5270.0 0.010181
5290.0 0.010246
5310.0 0.015547
5330.0 0.018038
5350.0 0.014818
5370.0 0.012935
5390.0 0.01519
5410.0 0.018883
5430.0 0.020495
5450.0 0.021609
5470.0 0.021389
5490.0 0.021247
5510.0 0.025343
5530.0 0.026303
5550.0 0.028124
5570.0 0.029886
5590.0 0.029496
5610.0 0.027575
5630.0 0.026694
5650.0 0.027498
5670.0 0.026954
5690.0 0.022802
5710.0 0.022452
5730.0 0.022846
5750.0 0.024488
5770.0 0.02097
5790.0 0.019505
5810.0 0.019797
5830.0 0.021189
5850.0 0.019456
5870.0 0.019657
5890.0 0.023499
5910.0 0.022022
5930.0 0.017799
5950.0 0.015641
5970.0 0.017151
5990.0 0.015702
6010.0 0.014625
6030.0 0.014724
6050.0 0.013556
6070.0 0.010112
6090.0 0.0093105
6110.0 0.01232
6130.0 0.014147
6150.0 0.0147
6170.0 0.014116
6190.0 0.013137
6210.0 0.013303
6230.0 0.016188
6250.0 0.014953
6270.0 0.013563
6290.0 0.012471
6310.0 0.011552
6330.0 0.010846
6350.0 0.009534
6370.0 0.0095411
6390.0 0.011232
6410.0 0.014033
6430.0 0.016381
6450.0 0.015801
6470.0 0.0156
6490.0 0.019495
6510.0 0.022633
6530.0 0.021395
6550.0 0.020292
6570.0 0.020605
6590.0 0.020176
6610.0 0.021714
6630.0 0.020221
6650.0 0.017475
6670.0 0.015911
6690.0 0.015777
6710.0 0.01937
6730.0 0.017376
6750.0 0.014259
6770.0 0.012643
6790.0 0.013399
6810.0 0.015388
6830.0 0.015217
6850.0 0.01361
6870.0 0.014205
6890.0 0.014117
6910.0 0.01327
6930.0 0.015069
6950.0 0.013869
6970.0 0.012776
6990.0 0.012665
7010.0 0.012509
7030.0 0.012052
7050.0 0.011675
7070.0 0.01284
7090.0 0.012107
7110.0 0.010261
7130.0 0.0084908
7150.0 0.0080915
7170.0 0.010645
7190.0 0.011451
7210.0 0.01083
7230.0 0.011274
7250.0 0.010638
7270.0 0.0102
7290.0 0.011264
7310.0 0.012632
7330.0 0.012398
7350.0 0.011515
7370.0 0.010692
7390.0 0.010854
7410.0 0.012607
7430.0 0.014045
7450.0 0.014856
7470.0 0.014751
7490.0 0.016045
7510.0 0.015764
7530.0 0.014807
7550.0 0.014388
7570.0 0.01256
7590.0 0.01221
7610.0 0.011792
7630.0 0.010747
7650.0 0.011582
7670.0 0.012748
7690.0 0.013864
7710.0 0.015782
7730.0 0.016654
7750.0 0.017348
7770.0 0.017808
7790.0 0.019498
7810.0 0.019825
7830.0 0.017818
7850.0 0.01794
7870.0 0.01721
7890.0 0.017907
7910.0 0.016934
7930.0 0.01698
7950.0 0.014403
7970.0 0.014603
7990.0 0.014026
8010.0 0.014885
8030.0 0.014819
8050.0 0.015729
8070.0 0.015076
8090.0 0.015146
8110.0 0.014901
8130.0 0.014826
8150.0 0.014001
8170.0 0.0137
8190.0 0.013624
8210.0 0.013755
8230.0 0.012017
8250.0 0.010973
8270.0 0.0096969
8290.0 0.0082304
8310.0 0.0072696
8330.0 0.0058068
8350.0 0.0047519
8370.0 0.0046581
8390.0 0.0045269
8410.0 0.0047135
8430.0 0.0060207
8450.0 0.0065288
8470.0 0.0070009
8490.0 0.0081898
8510.0 0.0089137
8530.0 0.010181
8550.0 0.012046
8570.0 0.013242
8590.0 0.013955
8610.0 0.015416
8630.0 0.017422
8650.0 0.017824
8670.0 0.018164
8690.0 0.018906
8710.0 0.018568
8730.0 0.018068
8750.0 0.016723
8770.0 0.016748
8790.0 0.016537
8810.0 0.015212
8830.0 0.015283
8850.0 0.014113
8870.0 0.013504
8890.0 0.012118
8910.0 0.013411
8930.0 0.012128
8950.0 0.012103
8970.0 0.012316
8990.0 0.011935
9010.0 0.012262
9030.0 0.011657
9050.0 0.011598
9070.0 0.011599
9090.0 0.011597
9110.0 0.011602
9130.0 0.011597
9150.0 0.011586
9170.0 0.011543
9190.0 0.011451
9210.0 0.011627
9230.0 0.011571
9250.0 0.011537
9270.0 0.011506
9290.0 0.011478
9310.0 0.011451
9330.0 0.011425
9350.0 0.011398
9370.0 0.011371
9390.0 0.011342
9410.0 0.011313
9430.0 0.011283
9450.0 0.011251
9470.0 0.011219
9490.0 0.011186
9510.0 0.011152
9530.0 0.011117
9550.0 0.011082
9570.0 0.011047
9590.0 0.01101
9610.0 0.010974
9630.0 0.010937
9650.0 0.0109
9670.0 0.010862
9690.0 0.010825
9710.0 0.010788
9730.0 0.01075
9750.0 0.010713
9770.0 0.010676
9790.0 0.010639
9810.0 0.010602
9830.0 0.010565
9850.0 0.010529
9870.0 0.010493
9890.0 0.010457
9910.0 0.010422
9930.0 0.010387
9950.0 0.010334
9970.0 0.010307
9990.0 0.010279
10010.0 0.01025
10030.0 0.01022
10050.0 0.010187
10070.0 0.010137
10090.0 0.010115
10110.0 0.010092
10130.0 0.010069
10150.0 0.010044
10170.0 0.01002
10190.0 0.0099939
10210.0 0.0099696
10230.0 0.0099461
10250.0 0.0099225
10270.0 0.0098998
10290.0 0.0098787
10310.0 0.0098577
10330.0 0.0098369
10350.0 0.0098179
10370.0 0.0097999
10390.0 0.0097819
10410.0 0.009765
10430.0 0.0097498
10450.0 0.0097346
10470.0 0.0097201
10490.0 0.0097069
10510.0 0.0096947
10530.0 0.0096822
10550.0 0.0096711
10570.0 0.0096614
10590.0 0.0096519
10610.0 0.009643
10630.0 0.0096355
10650.0 0.0096287
10670.0 0.009622
10690.0 0.0096163
10710.0 0.0096118
10730.0 0.0096076
10750.0 0.0096037
10770.0 0.0096014
10790.0 0.0095995
10810.0 0.0095978
10830.0 0.0095967
10850.0 0.0095958
10870.0 0.009593
10890.0 0.0095871
10910.0 0.0095758
10930.0 0.0095541
10950.0 0.0095144
10970.0 0.0094529
10990.0 0.0093678
11010.0 0.0094774
11030.0 0.0093206
11050.0 0.0091359
11070.0 0.0089218
11090.0 0.0086732
11110.0 0.0084248
11130.0 0.0081759
11150.0 0.0079205
11170.0 0.0076714
11190.0 0.0074436
11210.0 0.0072227
11230.0 0.0070109
11250.0 0.0068219
11270.0 0.0066515
11290.0 0.0064905
11310.0 0.0063456
11330.0 0.0062226
11350.0 0.0061081
11370.0 0.0060014
11390.0 0.0059057
11410.0 0.0058164
11430.0 0.0057246
11450.0 0.0056352
11470.0 0.0055474
11490.0 0.0054547
11510.0 0.0053549
11530.0 0.0052552
11550.0 0.005152
11570.0 0.0050398
11590.0 0.0049246
11610.0 0.0048101
11630.0 0.0046884
11650.0 0.0045616
11670.0 0.0044402
11690.0 0.0043191
11710.0 0.0041947
11730.0 0.0040741
11750.0 0.0039614
11770.0 0.0038476
11790.0 0.0037365
11810.0 0.0036338
11830.0 0.0035359
11850.0 0.0034374
11870.0 0.003347
11890.0 0.003264
11910.0 0.0031822
11930.0 0.0031031
11950.0 0.0030306
11970.0 0.0029602
11990.0 0.002889
12010.0 0.0028222
12030.0 0.0027591
12050.0 0.0026959
12070.0 0.0026335
12090.0 0.002578
12110.0 0.0025244
12130.0 0.0024728
12150.0 0.0024269
12170.0 0.0023875
12190.0 0.0023515
12210.0 0.0023233
12230.0 0.0023043
12250.0 0.0022936
12270.0 0.0022924
12290.0 0.0023017
12310.0 0.0023209
12330.0 0.0023508
12350.0 0.002391
12370.0 0.0024389
12390.0 0.002495
12410.0 0.0025608
12430.0 0.0026284
12450.0 0.0026981
12470.0 0.002771
12490.0 0.0028433
12510.0 0.0029107
12530.0 0.0029765
12550.0 0.0030389
12570.0 0.0030941
12590.0 0.003143
12610.0 0.0031872
12630.0 0.0032246
12650.0 0.0032545
12670.0 0.0032792
12690.0 0.0032983
12710.0 0.003312
12730.0 0.0033211
12750.0 0.0033254
12770.0 0.0033256
12790.0 0.0033224
12810.0 0.0033153
12830.0 0.0033038
12850.0 0.0032899
12870.0 0.0032728
12890.0 0.0032508
12910.0 0.0032255
12930.0 0.0031976
12950.0 0.0031642
12970.0 0.0031256
12990.0 0.0030854
13010.0 0.0030414
13030.0 0.0029921
13050.0 0.0029406
13070.0 0.0028891
13090.0 0.0028335
13110.0 0.0027763
13130.0 0.0027216
13150.0 0.0026679
13170.0 0.0026135
13190.0 0.0025646
13210.0 0.0025218
13230.0 0.0024824
13250.0 0.0024488
13270.0 0.002423
13290.0 0.002403
13310.0 0.0023887
13330.0 0.0023811
13350.0 0.0023787
13370.0 0.0023803
13390.0 0.002385
13410.0 0.0023913
13430.0 0.0023979
13450.0 0.0024033
13470.0 0.0024064
13490.0 0.0024066
13510.0 0.0024024
13530.0 0.0023938
13550.0 0.0023814
13570.0 0.0023649
13590.0 0.0023441
13610.0 0.0023212
13630.0 0.0022972
13650.0 0.0022707
13670.0 0.0022442
13690.0 0.0022189
13710.0 0.0021942
13730.0 0.0021695
13750.0 0.002148
13770.0 0.0021281
13790.0 0.002109
13810.0 0.0020913
13830.0 0.0020751
13850.0 0.0020588
13870.0 0.0020424
13890.0 0.0020263
13910.0 0.00201
13930.0 0.0019923
13950.0 0.0019742
13970.0 0.0019564
13990.0 0.0019378
14010.0 0.0019189
14030.0 0.0019009
14050.0 0.0018836
14070.0 0.0018666
14090.0 0.0018513
14110.0 0.001838
14130.0 0.0018261
14150.0 0.0018161
14170.0 0.0018083
14190.0 0.0018024
14210.0 0.0017983
14230.0 0.0017962
14250.0 0.0017959
14270.0 0.0017976
14290.0 0.0018013
14310.0 0.0018064
14330.0 0.0018132
14350.0 0.0018219
14370.0 0.0018317
14390.0 0.0018421
14410.0 0.0018539
14430.0 0.0018663
14450.0 0.0018784
14470.0 0.0018904
14490.0 0.001903
14510.0 0.0019144
14530.0 0.001925
14550.0 0.0019358
14570.0 0.0019466
14590.0 0.0019568
14610.0 0.0019679
14630.0 0.0019807
14650.0 0.0019945
14670.0 0.0020098
14690.0 0.0020283
14710.0 0.0020502
14730.0 0.0020733
14750.0 0.0021
14770.0 0.0021309
14790.0 0.0021638
14810.0 0.0021983
14830.0 0.0022378
14850.0 0.0022782
14870.0 0.0023175
14890.0 0.0023575
14910.0 0.0023972
14930.0 0.0024323
14950.0 0.0024624
14970.0 0.0024885
14990.0 0.0025074
15010.0 0.0025185
15030.0 0.0025234
15050.0 0.0025225
15070.0 0.0025163
15090.0 0.0025069
15110.0 0.0024952
15130.0 0.002482
15150.0 0.0024683
15170.0 0.0024541
15190.0 0.0024397
15210.0 0.0024253
15230.0 0.002411
15250.0 0.0023965
15270.0 0.002382
15290.0 0.0023678
15310.0 0.0023535
15330.0 0.0023391
15350.0 0.002325
15370.0 0.0023109
15390.0 0.0022965
15410.0 0.0022824
15430.0 0.0022684
15450.0 0.0022543
15470.0 0.0022402
15490.0 0.0022264
15510.0 0.0022126
15530.0 0.0021987
15550.0 0.0021849
15570.0 0.0021713
15590.0 0.0021576
15610.0 0.0021439
15630.0 0.0021304
15650.0 0.0021171
15670.0 0.0021036
15690.0 0.0020903
15710.0 0.0020772
15730.0 0.0020639
15750.0 0.0020508
15770.0 0.0020378
15790.0 0.0020249
15810.0 0.0020119
15830.0 0.0019991
15850.0 0.0019865
15870.0 0.0019738
15890.0 0.0019612
15910.0 0.0019489
15930.0 0.0019365
15950.0 0.001924
15970.0 0.0019118
15990.0 0.0018998
16010.0 0.0018876
16030.0 0.0018755
16050.0 0.0018638
16070.0 0.001852
16090.0 0.0018402
16110.0 0.0018286
16130.0 0.0018172
16150.0 0.0018056
16170.0 0.0017941
16190.0 0.0017829
16210.0 0.0017717
16230.0 0.0017605
16250.0 0.0017495
16270.0 0.0017386
16290.0 0.0017277
16310.0 0.0017169
16330.0 0.0017063
16350.0 0.0016956
16370.0 0.0016849
16390.0 0.0016745
16410.0 0.0016642
16430.0 0.0016539
16450.0 0.0016437
16470.0 0.0016337
16490.0 0.0016236
16510.0 0.0016136
16530.0 0.0016037
16550.0 0.001594
16570.0 0.0015842
16590.0 0.0015745
16610.0 0.0015651
16630.0 0.0015556
16650.0 0.0015461
16670.0 0.0015369
16690.0 0.0015277
16710.0 0.0015184
16730.0 0.0015093
16750.0 0.0015003
16770.0 0.0014914
16790.0 0.0014824
16810.0 0.0014737
16830.0 0.001465
16850.0 0.0014563
16870.0 0.0014477
16890.0 0.0014393
16910.0 0.0014308
16930.0 0.0014223
16950.0 0.0014141
16970.0 0.0014059
16990.0 0.0013977
17010.0 0.0013896
17030.0 0.0013817
17050.0 0.0013736
17070.0 0.0013657
17090.0 0.0013579
17110.0 0.0013502
17130.0 0.0013423
17150.0 0.0013347
17170.0 0.0013272
17190.0 0.0013196
17210.0 0.0013121
17230.0 0.0013048
17250.0 0.0012975
17270.0 0.00129
17290.0 0.0012828
17310.0 0.0012757
17330.0 0.0012685
17350.0 0.0012614
17370.0 0.0012545
17390.0 0.0012476
17410.0 0.0012406
17430.0 0.0012338
17450.0 0.0012271
17470.0 0.0012202
17490.0 0.0012134
17510.0 0.0012069
17530.0 0.0012003
17550.0 0.0011936
17570.0 0.0011872
17590.0 0.0011808
17610.0 0.0011744
17630.0 0.001168
17650.0 0.0011618
17670.0 0.0011555
17690.0 0.0011491
17710.0 0.001143
17730.0 0.001137
17750.0 0.0011308
17770.0 0.0011248
17790.0 0.0011189
17810.0 0.0011129
17830.0 0.0011069
17850.0 0.0011011
17870.0 0.0010953
17890.0 0.0010894
17910.0 0.0010836
17930.0 0.001078
17950.0 0.0010723
17970.0 0.0010667
17990.0 0.0010612
18010.0 0.0010557
18030.0 0.00105
18050.0 0.0010445
18070.0 0.0010392
18090.0 0.0010337
18110.0 0.0010283
18130.0 0.001023
18150.0 0.0010178
18170.0 0.0010124
18190.0 0.0010072
18210.0 0.0010021
18230.0 0.00099688
18250.0 0.00099164
18270.0 0.00098664
18290.0 0.00098161
18310.0 0.0009765
18330.0 0.00097153
18350.0 0.00096668
18370.0 0.00096167
18390.0 0.00095671
18410.0 0.00095191
18430.0 0.00094709
18450.0 0.00094213
18470.0 0.00093738
18490.0 0.00093272
18510.0 0.00092795
18530.0 0.00092322
18550.0 0.00091866
18570.0 0.00091402
18590.0 0.00090929
18610.0 0.00090474
18630.0 0.00090025
18650.0 0.00089565
18670.0 0.00089107
18690.0 0.00088672
18710.0 0.00088228
18730.0 0.00087778
18750.0 0.00087343
18770.0 0.00086915
18790.0 0.00086466
18810.0 0.0008603
18830.0 0.00085609
18850.0 0.00085181
18870.0 0.00084747
18890.0 0.00084332
18910.0 0.0008392
18930.0 0.00083493
18950.0 0.00083076
18970.0 0.00082671
18990.0 0.00082259
19010.0 0.00081833
19030.0 0.00081436
19050.0 0.00081038
19070.0 0.00080629
19090.0 0.00080228
19110.0 0.00079843
19130.0 0.00079441
19150.0 0.00079039
19170.0 0.00078653
19190.0 0.00078268
19210.0 0.0007787
19230.0 0.00077481
19250.0 0.0007711
19270.0 0.00076725
19290.0 0.0007634
19310.0 0.0007597
19330.0 0.00075599
19350.0 0.0007521
19370.0 0.00074839
19390.0 0.00074476
19410.0 0.00074103
19430.0 0.00073728
19450.0 0.00073373
19470.0 0.00073014
19490.0 0.00072644
19510.0 0.00072285
19530.0 0.00071936
19550.0 0.00071571
19570.0 0.00071206
19590.0 0.00070862
19610.0 0.00070512
19630.0 0.00070154
19650.0 0.00069809
19670.0 0.00069472
19690.0 0.00069118
19710.0 0.00068769
19730.0 0.00068434
19750.0 0.00068093
19770.0 0.0006774
19790.0 0.00067405
19810.0 0.00067075
19830.0 0.00066733
19850.0 0.0006639
19870.0 0.00066055
19890.0 0.00065694
19910.0 0.00065296
19930.0 0.00064869
19950.0 0.00064381
19970.0 0.00063778
19990.0 0.00063056
20010.0 0.00062247
20030.0 0.0006128
20050.0 0.00060171
20070.0 0.00059003
20090.0 0.00057785
20110.0 0.00056452
20130.0 0.00055157
20150.0 0.00053926
20170.0 0.00052697
20190.0 0.000515
20210.0 0.00050416
20230.0 0.00049397
20250.0 0.00048414
20270.0 0.00047538
20290.0 0.00046773
20310.0 0.00046078
20330.0 0.00045467
20350.0 0.00045002
20370.0 0.00044632
20390.0 0.00044362
20410.0 0.00044212
20430.0 0.00044175
20450.0 0.00044249
20470.0 0.00044443
20490.0 0.00044741
20510.0 0.00045144
20530.0 0.00045667
20550.0 0.00046275
20570.0 0.00046942
20590.0 0.00047706
20610.0 0.00048533
20630.0 0.00049375
20650.0 0.00050254
20670.0 0.00051188
20690.0 0.00052076
20710.0 0.00052929
20730.0 0.00053772
20750.0 0.00054569
20770.0 0.00055273
20790.0 0.00055927
20810.0 0.00056528
20830.0 0.00057041
20850.0 0.0005748
20870.0 0.00057872
20890.0 0.00058202
20910.0 0.00058465
20930.0 0.00058691
20950.0 0.0005888
20970.0 0.0005903
20990.0 0.00059149
21010.0 0.00059241
21030.0 0.00059301
21050.0 0.00059329
21070.0 0.00059324
21090.0 0.00059281
21110.0 0.00059204
21130.0 0.00059093
21150.0 0.00058941
21170.0 0.00058754
21190.0 0.00058546
21210.0 0.00058303
21230.0 0.00058031
21250.0 0.00057756
21270.0 0.00057475
21290.0 0.00057181
21310.0 0.00056895
21330.0 0.00056634
21350.0 0.0005638
21370.0 0.00056145
21390.0 0.00055945
21410.0 0.00055776
21430.0 0.0005563
21450.0 0.00055528
21470.0 0.00055464
21490.0 0.00055434
21510.0 0.00055442
21530.0 0.00055487
21550.0 0.00055565
21570.0 0.00055683
21590.0 0.00055832
21610.0 0.00056011
21630.0 0.00056227
21650.0 0.00056484
21670.0 0.00056756
21690.0 0.00057063
21710.0 0.00057412
21730.0 0.00057786
21750.0 0.0005818
21770.0 0.0005863
21790.0 0.00059113
21810.0 0.00059612
21830.0 0.00060148
21850.0 0.00060735
21870.0 0.00061338
21890.0 0.00061949
21910.0 0.00062611
21930.0 0.00063295
21950.0 0.00063974
21970.0 0.00064674
21990.0 0.00065415
22010.0 0.00066123
22030.0 0.00066814
22050.0 0.00067512
22070.0 0.00068187
22090.0 0.00068802
22110.0 0.00069392
22130.0 0.00069946
22150.0 0.00070425
22170.0 0.00070832
22190.0 0.00071181
22210.0 0.00071439
22230.0 0.00071597
22250.0 0.00071666
22270.0 0.00071632
22290.0 0.00071497
22310.0 0.00071263
22330.0 0.00070907
22350.0 0.00070447
22370.0 0.00069902
22390.0 0.00069246
22410.0 0.00068468
22430.0 0.00067642
22450.0 0.00066745
22470.0 0.00065743
22490.0 0.00064691
22510.0 0.00063629
22530.0 0.00062481
22550.0 0.00061282
22570.0 0.00060116
22590.0 0.00058943
22610.0 0.00057731
22630.0 0.00056547
22650.0 0.00055432
22670.0 0.000543
22690.0 0.0005319
22710.0 0.00052156
22730.0 0.00051167
22750.0 0.00050169
22770.0 0.00049261
22790.0 0.0004843
22810.0 0.00047626
22830.0 0.00046871
22850.0 0.00046204
22870.0 0.00045584
22890.0 0.00045
22910.0 0.00044492
22930.0 0.00044052
22950.0 0.0004366
22970.0 0.00043324
22990.0 0.00043072
23010.0 0.00042874
23030.0 0.00042736
23050.0 0.00042665
23070.0 0.00042654
23090.0 0.00042703
23110.0 0.00042812
23130.0 0.0004297
23150.0 0.00043177
23170.0 0.00043435
23190.0 0.00043722
23210.0 0.00044029
23230.0 0.00044371
23250.0 0.00044727
23270.0 0.00045079
23290.0 0.00045438
23310.0 0.00045807
23330.0 0.00046147
23350.0 0.00046466
23370.0 0.00046774
23390.0 0.00047055
23410.0 0.00047295
23430.0 0.00047511
23450.0 0.00047696
23470.0 0.00047837
23490.0 0.00047941
23510.0 0.00048008
23530.0 0.00048035
23550.0 0.00048023
23570.0 0.00047975
23590.0 0.00047892
23610.0 0.00047783
23630.0 0.00047651
23650.0 0.00047491
23670.0 0.00047323
23690.0 0.00047156
