#lamb flux
1010.0 5.3292e-05
1030.0 6.2802e-05
1050.0 7.177e-05
1070.0 7.9663e-05
1090.0 8.637e-05
1110.0 9.0188e-05
1130.0 9.1106e-05
1150.0 8.988e-05
1170.0 8.6523e-05
1190.0 8.0698e-05
1210.0 7.3592e-05
1230.0 6.5693e-05
1250.0 5.7109e-05
1270.0 4.835e-05
1290.0 4.0128e-05
1310.0 3.2545e-05
1330.0 2.588e-05
1350.0 2.0533e-05
1370.0 1.6704e-05
1390.0 1.4448e-05
1410.0 1.3851e-05
1430.0 1.4985e-05
1450.0 1.7779e-05
1470.0 2.2132e-05
1490.0 2.7989e-05
1510.0 3.5423e-05
1530.0 4.42e-05
1550.0 5.4172e-05
1570.0 6.5406e-05
1590.0 7.7871e-05
1610.0 9.1487e-05
1630.0 0.00010656
1650.0 0.00012327
1670.0 0.00014161
1690.0 0.00016188
1710.0 0.00018461
1730.0 0.00021003
1750.0 0.00023829
1770.0 0.00027008
1790.0 0.00030582
1810.0 0.00034555
1830.0 0.00038973
1850.0 0.00043954
1870.0 0.00049466
1890.0 0.00055531
1910.0 0.00062248
1930.0 0.0006967
1950.0 0.00077722
1970.0 0.00086464
1990.0 0.00096002
2010.0 0.0010625
2030.0 0.0011715
2050.0 0.0012881
2070.0 0.0014122
2090.0 0.0015411
2110.0 0.0016754
2130.0 0.0018155
2150.0 0.0019588
2170.0 0.0021035
2190.0 0.002251
2210.0 0.0023992
2230.0 0.0025449
2250.0 0.002688
2270.0 0.0028292
2290.0 0.0029642
2310.0 0.0030909
2330.0 0.0032115
2350.0 0.0033236
2370.0 0.0034238
2390.0 0.003513
2410.0 0.0035914
2430.0 0.0036537
2450.0 0.0036985
2470.0 0.0037261
2490.0 0.0037344
2510.0 0.0037239
2530.0 0.0037006
2550.0 0.0036736
2570.0 0.0036564
2590.0 0.0036649
2610.0 0.0037285
2630.0 0.0038686
2650.0 0.0040891
2670.0 0.0044107
2690.0 0.0048479
2710.0 0.0053574
2730.0 0.0059099
2750.0 0.0065217
2770.0 0.0071213
2790.0 0.0076513
2810.0 0.0081166
2830.0 0.0085136
2850.0 0.0087859
2870.0 0.008977
2890.0 0.0091175
2910.0 0.0092146
2930.0 0.0092802
2950.0 0.0093429
2970.0 0.0094078
2990.0 0.0094709
3010.0 0.0095394
3030.0 0.0096213
3050.0 0.0097111
3070.0 0.0098002
3090.0 0.0099007
3110.0 0.010008
3130.0 0.010114
3150.0 0.01033
3170.0 0.010542
3190.0 0.010785
3210.0 0.011066
3230.0 0.011389
3250.0 0.011627
3270.0 0.011768
3290.0 0.012242
3310.0 0.013386
3330.0 0.015005
3350.0 0.016829
3370.0 0.018834
3390.0 0.020938
3410.0 0.022915
3430.0 0.024751
3450.0 0.026157
3470.0 0.026678
3490.0 0.027236
3510.0 0.02763
3530.0 0.025386
3550.0 0.023718
3570.0 0.019829
3590.0 0.021072
3610.0 0.022935
3630.0 0.024395
3650.0 0.023433
3670.0 0.021378
3690.0 0.020248
3710.0 0.020882
3730.0 0.023045
3750.0 0.024184
3770.0 0.025073
3790.0 0.02597
3810.0 0.024797
3830.0 0.022376
3850.0 0.020467
3870.0 0.019593
3890.0 0.020919
3910.0 0.021992
3930.0 0.02222
3950.0 0.022865
3970.0 0.024052
3990.0 0.02513
4010.0 0.025583
4030.0 0.024623
4050.0 0.023565
4070.0 0.023517
4090.0 0.024014
4110.0 0.024586
4130.0 0.023996
4150.0 0.023382
4170.0 0.02324
4190.0 0.023692
4210.0 0.022872
4230.0 0.021164
4250.0 0.019015
4270.0 0.017
4290.0 0.01539
4310.0 0.014566
4330.0 0.014767
4350.0 0.01623
4370.0 0.017094
4390.0 0.018102
4410.0 0.019172
4430.0 0.019676
4450.0 0.018963
4470.0 0.018143
4490.0 0.018098
4510.0 0.018378
4530.0 0.018576
4550.0 0.018548
4570.0 0.018522
4590.0 0.019112
4610.0 0.0197
4630.0 0.020108
4650.0 0.02021
4670.0 0.020158
4690.0 0.019106
4710.0 0.017609
4730.0 0.017041
4750.0 0.016843
4770.0 0.016199
4790.0 0.01574
4810.0 0.015515
4830.0 0.012132
4850.0 0.015527
4870.0 0.011587
4890.0 0.013206
4910.0 0.015375
4930.0 0.014706
4950.0 0.012153
4970.0 0.012202
4990.0 0.011546
5010.0 0.010779
5030.0 0.010363
5050.0 0.012056
5070.0 0.012072
5090.0 0.013213
5110.0 0.013519
5130.0 0.013383
5150.0 0.013887
5170.0 0.013368
5190.0 0.012965
5210.0 0.013625
5230.0 0.013378
5250.0 0.013412
5270.0 0.013089
5290.0 0.01282
5310.0 0.011816
5330.0 0.011273
5350.0 0.010444
5370.0 0.010411
5390.0 0.011216
5410.0 0.010397
5430.0 0.011187
5450.0 0.010878
5470.0 0.010949
5490.0 0.010954
5510.0 0.010048
5530.0 0.010269
5550.0 0.009836
5570.0 0.0099641
5590.0 0.010109
5610.0 0.01045
5630.0 0.010437
5650.0 0.010637
5670.0 0.0098558
5690.0 0.01013
5710.0 0.0094029
5730.0 0.0097251
5750.0 0.0093999
5770.0 0.0087499
5790.0 0.0091209
5810.0 0.0090714
5830.0 0.0094088
5850.0 0.0096377
5870.0 0.009615
5890.0 0.0095441
5910.0 0.0097653
5930.0 0.0094607
5950.0 0.0097394
5970.0 0.0092697
5990.0 0.0094258
6010.0 0.0091815
6030.0 0.0091088
6050.0 0.0092855
6070.0 0.0087133
6090.0 0.0086024
6110.0 0.0088886
6130.0 0.0088172
6150.0 0.0086826
6170.0 0.0085062
6190.0 0.0079949
6210.0 0.0074614
6230.0 0.0075118
6250.0 0.0076414
6270.0 0.0075011
6290.0 0.0078789
6310.0 0.0085176
6330.0 0.0085608
6350.0 0.0083268
6370.0 0.0084518
6390.0 0.0085075
6410.0 0.0083429
6430.0 0.0079864
6450.0 0.0081256
6470.0 0.0082035
6490.0 0.0080166
6510.0 0.0077729
6530.0 0.0075771
6550.0 0.0075295
6570.0 0.0073107
6590.0 0.0073631
6610.0 0.0073645
6630.0 0.0070531
6650.0 0.0066176
6670.0 0.0065083
6690.0 0.0067264
6710.0 0.0066608
6730.0 0.00642
6750.0 0.0062518
6770.0 0.0060709
6790.0 0.0061168
6810.0 0.0061042
6830.0 0.0060187
6850.0 0.0056282
6870.0 0.0056757
6890.0 0.0056848
6910.0 0.0054163
6930.0 0.0055015
6950.0 0.0052872
6970.0 0.0051894
6990.0 0.0050993
7010.0 0.0053779
7030.0 0.0053588
7050.0 0.0051942
7070.0 0.005096
7090.0 0.0051935
7110.0 0.0050699
7130.0 0.0050566
7150.0 0.0051134
7170.0 0.0050304
7190.0 0.004939
7210.0 0.0049476
7230.0 0.0052069
7250.0 0.0049259
7270.0 0.005202
7290.0 0.0049649
7310.0 0.0047545
7330.0 0.004436
7350.0 0.0043807
7370.0 0.0044288
7390.0 0.0043274
7410.0 0.0040729
7430.0 0.0037791
7450.0 0.0039247
7470.0 0.0039867
7490.0 0.0043692
7510.0 0.0045941
7530.0 0.004363
7550.0 0.0042412
7570.0 0.00343
7590.0 0.0037929
7610.0 0.0034997
7630.0 0.0036956
7650.0 0.0036028
7670.0 0.0037018
7690.0 0.0032748
7710.0 0.0038173
7730.0 0.0037905
7750.0 0.0043356
7770.0 0.0044165
7790.0 0.0045308
7810.0 0.0048029
7830.0 0.0047469
7850.0 0.0051685
7870.0 0.0048157
7890.0 0.0049083
7910.0 0.004812
7930.0 0.0045796
7950.0 0.0044267
7970.0 0.0043447
7990.0 0.0042751
8010.0 0.0041074
8030.0 0.0040771
8050.0 0.0039917
8070.0 0.0039434
8090.0 0.0037523
8110.0 0.0037769
8130.0 0.0038972
8150.0 0.0040001
8170.0 0.0039889
8190.0 0.004083
8210.0 0.0040269
8230.0 0.0038731
8250.0 0.0038434
8270.0 0.0037717
8290.0 0.0036986
8310.0 0.0035266
8330.0 0.0035494
8350.0 0.0035616
8370.0 0.0035808
8390.0 0.0036197
8410.0 0.0035752
8430.0 0.0035775
8450.0 0.0035973
8470.0 0.0036644
8490.0 0.0037135
8510.0 0.0036179
8530.0 0.003475
8550.0 0.0034903
8570.0 0.003463
8590.0 0.0033593
8610.0 0.0034256
8630.0 0.0033826
8650.0 0.0033292
8670.0 0.0033045
8690.0 0.0032844
8710.0 0.0031351
8730.0 0.0031817
8750.0 0.0030836
8770.0 0.0030856
8790.0 0.0030038
8810.0 0.0029524
8830.0 0.0029694
8850.0 0.0028942
8870.0 0.0027583
8890.0 0.0027071
8910.0 0.002576
8930.0 0.0023992
8950.0 0.0023845
8970.0 0.0022859
8990.0 0.0022612
9010.0 0.0022213
9030.0 0.0022027
9050.0 0.0021877
9070.0 0.0021727
9090.0 0.0021576
9110.0 0.0021422
9130.0 0.0021269
9150.0 0.0021117
9170.0 0.0020965
9190.0 0.0020811
9210.0 0.0020657
9230.0 0.0020502
9250.0 0.0020347
9270.0 0.0020191
9290.0 0.0020035
9310.0 0.001988
9330.0 0.0019725
9350.0 0.0019571
9370.0 0.0019416
9390.0 0.0019262
9410.0 0.0019108
9430.0 0.0018954
9450.0 0.0018801
9470.0 0.0018662
9490.0 0.0018515
9510.0 0.0018356
9530.0 0.00182
9550.0 0.0018046
9570.0 0.0017895
9590.0 0.0017745
9610.0 0.0017596
9630.0 0.001745
9650.0 0.0017304
9670.0 0.0017158
9690.0 0.0017014
9710.0 0.0016872
9730.0 0.001673
9750.0 0.0016589
9770.0 0.001645
9790.0 0.0016312
9810.0 0.0016174
9830.0 0.0016037
9850.0 0.0015886
9870.0 0.0015744
9890.0 0.0015623
9910.0 0.00155
9930.0 0.001535
9950.0 0.0015221
9970.0 0.0015106
9990.0 0.0014988
10010.0 0.001487
10030.0 0.0014751
10050.0 0.0014631
10070.0 0.0014512
10090.0 0.0014396
10110.0 0.0014279
10130.0 0.0014163
10150.0 0.001405
10170.0 0.0013938
10190.0 0.0013827
10210.0 0.0013718
10230.0 0.0013612
10250.0 0.0013506
10270.0 0.0013401
10290.0 0.0013299
10310.0 0.0013197
10330.0 0.0013096
10350.0 0.0012998
10370.0 0.0012901
10390.0 0.0012805
10410.0 0.0012707
10430.0 0.0012612
10450.0 0.0012524
10470.0 0.0012434
10490.0 0.0012348
10510.0 0.0012262
10530.0 0.0012175
10550.0 0.0012091
10570.0 0.0012009
10590.0 0.0011927
10610.0 0.0011846
10630.0 0.0011768
10650.0 0.0011692
10670.0 0.0011614
10690.0 0.0011539
10710.0 0.0011466
10730.0 0.0011393
10750.0 0.001132
10770.0 0.0011251
10790.0 0.0011183
10810.0 0.0011114
10830.0 0.0011048
10850.0 0.0010984
10870.0 0.0010919
10890.0 0.0010855
10910.0 0.0010794
10930.0 0.0010735
10950.0 0.0010675
10970.0 0.0010618
10990.0 0.0010565
11010.0 0.00098745
11030.0 0.00098191
11050.0 0.00097686
11070.0 0.00097201
11090.0 0.00096705
11110.0 0.0009624
11130.0 0.00095783
11150.0 0.00095304
11170.0 0.00094818
11190.0 0.00094351
11210.0 0.00093868
11230.0 0.0009337
11250.0 0.00092895
11270.0 0.0009244
11290.0 0.00091976
11310.0 0.00091531
11330.0 0.00091144
11350.0 0.00090769
11370.0 0.00090411
11390.0 0.00090097
11410.0 0.00089817
11430.0 0.00089533
11450.0 0.00089277
11470.0 0.00089049
11490.0 0.0008882
11510.0 0.00088581
11530.0 0.00088361
11550.0 0.00088143
11570.0 0.00087898
11590.0 0.00087651
11610.0 0.00087414
11630.0 0.0008715
11650.0 0.00086864
11670.0 0.00086599
11690.0 0.00086331
11710.0 0.00086041
11730.0 0.00085757
11750.0 0.00085499
11770.0 0.00085221
11790.0 0.00084939
11810.0 0.00084684
11830.0 0.00084438
11850.0 0.00084171
11870.0 0.00083937
11890.0 0.00083738
11910.0 0.00083543
11930.0 0.00083367
11950.0 0.00083242
11970.0 0.00083147
11990.0 0.00083072
12010.0 0.00083055
12030.0 0.00083093
12050.0 0.0008317
12070.0 0.00083296
12090.0 0.0008349
12110.0 0.00083732
12130.0 0.00084019
12150.0 0.00084356
12170.0 0.00084734
12190.0 0.00085145
12210.0 0.00085586
12230.0 0.00086045
12250.0 0.00086517
12270.0 0.00086993
12290.0 0.00087463
12310.0 0.00087921
12330.0 0.00088361
12350.0 0.00088775
12370.0 0.00089163
12390.0 0.00089516
12410.0 0.00089821
12430.0 0.00090093
12450.0 0.00090324
12470.0 0.00090501
12490.0 0.00090627
12510.0 0.00090721
12530.0 0.00090754
12550.0 0.00090723
12570.0 0.00090656
12590.0 0.00090547
12610.0 0.00090362
12630.0 0.00090128
12650.0 0.00089888
12670.0 0.00089587
12690.0 0.00089233
12710.0 0.00088873
12730.0 0.00088495
12750.0 0.00088046
12770.0 0.00087599
12790.0 0.00087167
12810.0 0.00086709
12830.0 0.00086227
12850.0 0.00085793
12870.0 0.00085373
12890.0 0.0008494
12910.0 0.00084541
12930.0 0.00084195
12950.0 0.00083851
12970.0 0.00083532
12990.0 0.00083285
13010.0 0.00083077
13030.0 0.00082892
13050.0 0.0008276
13070.0 0.00082682
13090.0 0.00082625
13110.0 0.000826
13130.0 0.00082617
13150.0 0.00082657
13170.0 0.00082706
13190.0 0.0008278
13210.0 0.00082871
13230.0 0.00082961
13250.0 0.00083052
13270.0 0.00083148
13290.0 0.00083236
13310.0 0.00083304
13330.0 0.00083363
13350.0 0.00083406
13370.0 0.00083416
13390.0 0.0008339
13410.0 0.00083346
13430.0 0.0008326
13450.0 0.00083122
13470.0 0.00082949
13490.0 0.00082745
13510.0 0.0008247
13530.0 0.00082157
13550.0 0.00081822
13570.0 0.00081444
13590.0 0.00081012
13610.0 0.00080567
13630.0 0.00080108
13650.0 0.00079594
13670.0 0.00079056
13690.0 0.00078517
13710.0 0.00077942
13730.0 0.0007731
13750.0 0.00076697
13770.0 0.00076069
13790.0 0.00075401
13810.0 0.0007472
13830.0 0.0007406
13850.0 0.00073367
13870.0 0.00072654
13890.0 0.00071966
13910.0 0.00071287
13930.0 0.00070586
13950.0 0.00069899
13970.0 0.0006926
13990.0 0.00068613
14010.0 0.00067971
14030.0 0.00067365
14050.0 0.00066777
14070.0 0.00066173
14090.0 0.00065596
14110.0 0.00065044
14130.0 0.00064488
14150.0 0.00063926
14170.0 0.00063392
14190.0 0.0006286
14210.0 0.00062312
14230.0 0.00061774
14250.0 0.00061249
14270.0 0.00060709
14290.0 0.00060164
14310.0 0.00059646
14330.0 0.00059132
14350.0 0.00058614
14370.0 0.00058114
14390.0 0.00057638
14410.0 0.0005716
14430.0 0.00056694
14450.0 0.0005625
14470.0 0.00055816
14490.0 0.00055378
14510.0 0.00054957
14530.0 0.00054548
14550.0 0.00054133
14570.0 0.00053716
14590.0 0.00053307
14610.0 0.00052889
14630.0 0.00052458
14650.0 0.00052029
14670.0 0.00051597
14690.0 0.00051151
14710.0 0.00050696
14730.0 0.00050248
14750.0 0.0004979
14770.0 0.00049319
14790.0 0.0004885
14810.0 0.00048381
14830.0 0.00047891
14850.0 0.000474
14870.0 0.00046915
14890.0 0.00046422
14910.0 0.00045922
14930.0 0.00045435
14950.0 0.0004496
14970.0 0.00044487
14990.0 0.00044033
15010.0 0.00043605
15030.0 0.00043192
15050.0 0.00042791
15070.0 0.00042414
15090.0 0.00042047
15110.0 0.00041683
15130.0 0.00041324
15150.0 0.00040971
15170.0 0.00040615
15190.0 0.00040258
15210.0 0.00039904
15230.0 0.00039551
15250.0 0.00039194
15270.0 0.00038838
15290.0 0.00038487
15310.0 0.00038133
15330.0 0.00037777
15350.0 0.00037426
15370.0 0.00037076
15390.0 0.00036721
15410.0 0.0003637
15430.0 0.00036022
15450.0 0.00035672
15470.0 0.00035322
15490.0 0.00034978
15510.0 0.00034634
15530.0 0.00034288
15550.0 0.00033945
15570.0 0.00033606
15590.0 0.00033265
15610.0 0.00032924
15630.0 0.0003259
15650.0 0.00032256
15670.0 0.00031921
15690.0 0.0003159
15710.0 0.00031264
15730.0 0.00030936
15750.0 0.00030609
15770.0 0.00030288
15790.0 0.00029968
15810.0 0.00029646
15830.0 0.00029329
15850.0 0.00029017
15870.0 0.00028705
15890.0 0.00028394
15910.0 0.00028089
15930.0 0.00027784
15950.0 0.0002748
15970.0 0.0002718
15990.0 0.00026884
16010.0 0.00026588
16030.0 0.00026294
16050.0 0.00026007
16070.0 0.0002572
16090.0 0.00025434
16110.0 0.00025153
16130.0 0.00024876
16150.0 0.00024597
16170.0 0.00024323
16190.0 0.00024053
16210.0 0.00023785
16230.0 0.00023518
16250.0 0.00023256
16270.0 0.00022997
16290.0 0.00022739
16310.0 0.00022483
16330.0 0.00022233
16350.0 0.00021984
16370.0 0.00021735
16390.0 0.00021492
16410.0 0.00021253
16430.0 0.00021014
16450.0 0.00020778
16470.0 0.00020547
16490.0 0.00020317
16510.0 0.00020088
16530.0 0.00019865
16550.0 0.00019644
16570.0 0.00019423
16590.0 0.00019206
16610.0 0.00018994
16630.0 0.00018783
16650.0 0.00018574
16670.0 0.00018369
16690.0 0.00018167
16710.0 0.00017964
16730.0 0.00017766
16750.0 0.00017572
16770.0 0.00017379
16790.0 0.00017187
16810.0 0.00017001
16830.0 0.00016816
16850.0 0.00016632
16870.0 0.00016452
16890.0 0.00016276
16910.0 0.00016099
16930.0 0.00015925
16950.0 0.00015756
16970.0 0.00015588
16990.0 0.00015421
17010.0 0.00015257
17030.0 0.00015098
17050.0 0.00014938
17070.0 0.0001478
17090.0 0.00014627
17110.0 0.00014475
17130.0 0.00014323
17150.0 0.00014175
17170.0 0.00014031
17190.0 0.00013886
17210.0 0.00013744
17230.0 0.00013606
17250.0 0.00013469
17270.0 0.00013332
17290.0 0.00013199
17310.0 0.00013068
17330.0 0.00012938
17350.0 0.0001281
17370.0 0.00012685
17390.0 0.00012562
17410.0 0.00012439
17430.0 0.0001232
17450.0 0.00012203
17470.0 0.00012085
17490.0 0.0001197
17510.0 0.00011858
17530.0 0.00011747
17550.0 0.00011637
17570.0 0.0001153
17590.0 0.00011425
17610.0 0.0001132
17630.0 0.00011217
17650.0 0.00011117
17670.0 0.00011017
17690.0 0.00010918
17710.0 0.00010822
17730.0 0.00010728
17750.0 0.00010634
17770.0 0.00010542
17790.0 0.00010453
17810.0 0.00010364
17830.0 0.00010275
17850.0 0.0001019
17870.0 0.00010106
17890.0 0.00010021
17910.0 9.9391e-05
17930.0 9.8597e-05
17950.0 9.7803e-05
17970.0 9.7017e-05
17990.0 9.6258e-05
18010.0 9.5509e-05
18030.0 9.4754e-05
18050.0 9.4024e-05
18070.0 9.3314e-05
18090.0 9.2605e-05
18110.0 9.1903e-05
18130.0 9.123e-05
18150.0 9.0564e-05
18170.0 8.9897e-05
18190.0 8.925e-05
18210.0 8.8621e-05
18230.0 8.7988e-05
18250.0 8.7362e-05
18270.0 8.6765e-05
18290.0 8.6173e-05
18310.0 8.5581e-05
18330.0 8.5008e-05
18350.0 8.4453e-05
18370.0 8.3892e-05
18390.0 8.3342e-05
18410.0 8.2812e-05
18430.0 8.2287e-05
18450.0 8.1758e-05
18470.0 8.1252e-05
18490.0 8.0761e-05
18510.0 8.0266e-05
18530.0 7.9781e-05
18550.0 7.9318e-05
18570.0 7.8853e-05
18590.0 7.8386e-05
18610.0 7.7941e-05
18630.0 7.7506e-05
18650.0 7.7068e-05
18670.0 7.6638e-05
18690.0 7.6232e-05
18710.0 7.5824e-05
18730.0 7.5417e-05
18750.0 7.5027e-05
18770.0 7.4648e-05
18790.0 7.4257e-05
18810.0 7.3881e-05
18830.0 7.3524e-05
18850.0 7.3165e-05
18870.0 7.2806e-05
18890.0 7.2467e-05
18910.0 7.2136e-05
18930.0 7.1797e-05
18950.0 7.147e-05
18970.0 7.1159e-05
18990.0 7.0845e-05
19010.0 7.0524e-05
19030.0 7.0232e-05
19050.0 6.9942e-05
19070.0 6.9648e-05
19090.0 6.9364e-05
19110.0 6.9098e-05
19130.0 6.8821e-05
19150.0 6.8548e-05
19170.0 6.8293e-05
19190.0 6.8041e-05
19210.0 6.7782e-05
19230.0 6.7535e-05
19250.0 6.7306e-05
19270.0 6.7069e-05
19290.0 6.6835e-05
19310.0 6.6618e-05
19330.0 6.6402e-05
19350.0 6.6174e-05
19370.0 6.5965e-05
19390.0 6.5766e-05
19410.0 6.5561e-05
19430.0 6.5357e-05
19450.0 6.5174e-05
19470.0 6.499e-05
19490.0 6.4799e-05
19510.0 6.4621e-05
19530.0 6.4454e-05
19550.0 6.4275e-05
19570.0 6.4099e-05
19590.0 6.3944e-05
19610.0 6.3786e-05
19630.0 6.3624e-05
19650.0 6.3475e-05
19670.0 6.3336e-05
19690.0 6.3184e-05
19710.0 6.3038e-05
19730.0 6.2907e-05
19750.0 6.2774e-05
19770.0 6.263e-05
19790.0 6.2506e-05
19810.0 6.239e-05
19830.0 6.2264e-05
19850.0 6.2144e-05
19870.0 6.2042e-05
19890.0 6.1932e-05
19910.0 6.1821e-05
19930.0 6.1735e-05
19950.0 6.1665e-05
19970.0 6.1603e-05
19990.0 6.1569e-05
20010.0 6.1576e-05
20030.0 6.1606e-05
20050.0 6.1663e-05
20070.0 6.1759e-05
20090.0 6.1883e-05
20110.0 6.2023e-05
20130.0 6.2189e-05
20150.0 6.2379e-05
20170.0 6.2581e-05
20190.0 6.2797e-05
20210.0 6.3029e-05
20230.0 6.3273e-05
20250.0 6.3523e-05
20270.0 6.3785e-05
20290.0 6.4056e-05
20310.0 6.4332e-05
20330.0 6.4612e-05
20350.0 6.4901e-05
20370.0 6.5194e-05
20390.0 6.5488e-05
20410.0 6.5787e-05
20430.0 6.6093e-05
20450.0 6.6399e-05
20470.0 6.6709e-05
20490.0 6.703e-05
20510.0 6.7356e-05
20530.0 6.7689e-05
20550.0 6.8034e-05
20570.0 6.8393e-05
20590.0 6.8762e-05
20610.0 6.9145e-05
20630.0 6.9545e-05
20650.0 6.996e-05
20670.0 7.0387e-05
20690.0 7.0831e-05
20710.0 7.1288e-05
20730.0 7.1756e-05
20750.0 7.2234e-05
20770.0 7.2721e-05
20790.0 7.3212e-05
20810.0 7.3705e-05
20830.0 7.4198e-05
20850.0 7.469e-05
20870.0 7.5174e-05
20890.0 7.5651e-05
20910.0 7.6122e-05
20930.0 7.6583e-05
20950.0 7.7029e-05
20970.0 7.7468e-05
20990.0 7.7898e-05
21010.0 7.8309e-05
21030.0 7.8711e-05
21050.0 7.911e-05
21070.0 7.9496e-05
21090.0 7.9865e-05
21110.0 8.024e-05
21130.0 8.0611e-05
21150.0 8.0967e-05
21170.0 8.1321e-05
21190.0 8.1682e-05
21210.0 8.2028e-05
21230.0 8.2362e-05
21250.0 8.2706e-05
21270.0 8.3046e-05
21290.0 8.3369e-05
21310.0 8.3688e-05
21330.0 8.4018e-05
21350.0 8.4328e-05
21370.0 8.4623e-05
21390.0 8.4923e-05
21410.0 8.5218e-05
21430.0 8.5476e-05
21450.0 8.5739e-05
21470.0 8.6008e-05
21490.0 8.6254e-05
21510.0 8.6483e-05
21530.0 8.6725e-05
21550.0 8.6957e-05
21570.0 8.7157e-05
21590.0 8.7364e-05
21610.0 8.7578e-05
21630.0 8.7767e-05
21650.0 8.7931e-05
21670.0 8.8132e-05
21690.0 8.8318e-05
21710.0 8.848e-05
21730.0 8.865e-05
21750.0 8.8838e-05
21770.0 8.8983e-05
21790.0 8.9129e-05
21810.0 8.9297e-05
21830.0 8.9457e-05
21850.0 8.9591e-05
21870.0 8.9745e-05
21890.0 8.9924e-05
21910.0 9.0076e-05
21930.0 9.0232e-05
21950.0 9.0419e-05
21970.0 9.0604e-05
21990.0 9.0763e-05
22010.0 9.0967e-05
22030.0 9.1191e-05
22050.0 9.1405e-05
22070.0 9.1632e-05
22090.0 9.1904e-05
22110.0 9.2174e-05
22130.0 9.2441e-05
22150.0 9.2743e-05
22170.0 9.3068e-05
22190.0 9.3377e-05
22210.0 9.3703e-05
22230.0 9.4071e-05
22250.0 9.4434e-05
22270.0 9.4794e-05
22290.0 9.5181e-05
22310.0 9.5583e-05
22330.0 9.5961e-05
22350.0 9.6354e-05
22370.0 9.677e-05
22390.0 9.7178e-05
22410.0 9.7571e-05
22430.0 9.7998e-05
22450.0 9.8435e-05
22470.0 9.8856e-05
22490.0 9.9292e-05
22510.0 9.9757e-05
22530.0 0.00010021
22550.0 0.00010066
22570.0 0.00010115
22590.0 0.00010165
22610.0 0.00010215
22630.0 0.00010267
22650.0 0.00010322
22670.0 0.00010378
22690.0 0.00010433
22710.0 0.00010493
22730.0 0.00010554
22750.0 0.00010613
22770.0 0.00010676
22790.0 0.00010743
22810.0 0.0001081
22830.0 0.00010878
22850.0 0.00010951
22870.0 0.00011026
22890.0 0.00011103
22910.0 0.00011184
22930.0 0.0001127
22950.0 0.00011359
22970.0 0.00011452
22990.0 0.00011552
23010.0 0.00011656
23030.0 0.00011766
23050.0 0.00011882
23070.0 0.00012004
23090.0 0.00012132
23110.0 0.00012267
23130.0 0.00012409
23150.0 0.00012557
23170.0 0.00012711
23190.0 0.00012872
23210.0 0.00013038
23230.0 0.0001321
