#lamb flux
1010.0 1.0693e-09
1030.0 1.1826e-09
1050.0 1.313e-09
1070.0 1.4598e-09
1090.0 1.6265e-09
1110.0 1.7974e-09
1130.0 1.9695e-09
1150.0 2.1498e-09
1170.0 2.3357e-09
1190.0 2.512e-09
1210.0 2.6907e-09
1230.0 2.8754e-09
1250.0 3.0563e-09
1270.0 3.232e-09
1290.0 3.4177e-09
1310.0 3.6032e-09
1330.0 3.7811e-09
1350.0 3.961e-09
1370.0 4.1468e-09
1390.0 4.3279e-09
1410.0 4.5036e-09
1430.0 4.6874e-09
1450.0 4.8711e-09
1470.0 5.0486e-09
1490.0 5.2281e-09
1510.0 5.4177e-09
1530.0 5.5974e-09
1550.0 5.7747e-09
1570.0 5.9581e-09
1590.0 6.1418e-09
1610.0 6.3174e-09
1630.0 6.4984e-09
1650.0 6.6843e-09
1670.0 6.8642e-09
1690.0 7.0419e-09
1710.0 7.2265e-09
1730.0 7.4124e-09
1750.0 7.5873e-09
1770.0 7.7676e-09
1790.0 7.9517e-09
1810.0 8.1302e-09
1830.0 8.3058e-09
1850.0 8.4924e-09
1870.0 8.6745e-09
1890.0 8.8508e-09
1910.0 9.0309e-09
1930.0 9.2158e-09
1950.0 9.3927e-09
1970.0 9.5678e-09
1990.0 9.75e-09
2010.0 9.9295e-09
2030.0 1.0103e-08
2050.0 1.0282e-08
2070.0 1.0466e-08
2090.0 1.0641e-08
2110.0 1.0815e-08
2130.0 1.0994e-08
2150.0 1.1171e-08
2170.0 1.134e-08
2190.0 1.1516e-08
2210.0 1.1693e-08
2230.0 1.1864e-08
2250.0 1.2034e-08
2270.0 1.2211e-08
2290.0 1.2384e-08
2310.0 1.255e-08
2330.0 1.2722e-08
2350.0 1.2899e-08
2370.0 1.3076e-08
2390.0 1.3267e-08
2410.0 1.3493e-08
2430.0 1.3754e-08
2450.0 1.4065e-08
2470.0 1.4464e-08
2490.0 1.4966e-08
2510.0 1.5538e-08
2530.0 1.6225e-08
2550.0 1.7086e-08
2570.0 1.8157e-08
2590.0 1.955e-08
2610.0 2.1636e-08
2630.0 2.4614e-08
2650.0 2.8507e-08
2670.0 3.3541e-08
2690.0 3.9728e-08
2710.0 4.6331e-08
2730.0 5.2856e-08
2750.0 5.9283e-08
2770.0 6.4873e-08
2790.0 6.9312e-08
2810.0 7.2835e-08
2830.0 7.5588e-08
2850.0 7.7466e-08
2870.0 7.8846e-08
2890.0 7.9937e-08
2910.0 8.0809e-08
2930.0 8.1521e-08
2950.0 8.2201e-08
2970.0 8.2865e-08
2990.0 8.3488e-08
3010.0 2.3598e-06
3030.0 2.3775e-06
3050.0 2.3945e-06
3070.0 2.4091e-06
3090.0 2.4217e-06
3110.0 2.4295e-06
3130.0 2.4292e-06
3150.0 2.4184e-06
3170.0 2.3925e-06
3190.0 2.3518e-06
3210.0 2.3002e-06
3230.0 2.2412e-06
3250.0 2.1829e-06
3270.0 2.1403e-06
3290.0 2.1167e-06
3310.0 2.1205e-06
3330.0 2.1512e-06
3350.0 2.2046e-06
3370.0 2.2809e-06
3390.0 2.3771e-06
3410.0 2.4818e-06
3430.0 2.5993e-06
3450.0 2.7345e-06
3470.0 2.8822e-06
3490.0 3.0388e-06
3510.0 3.2157e-06
3530.0 3.4052e-06
3550.0 3.597e-06
3570.0 3.7971e-06
3590.0 4.0148e-06
3610.0 4.239e-06
3630.0 4.4626e-06
3650.0 4.6945e-06
3670.0 4.9062e-06
3690.0 5.0645e-06
3710.0 5.1553e-06
3730.0 5.1582e-06
3750.0 5.0865e-06
3770.0 5.0583e-06
3790.0 5.0282e-06
3810.0 4.9046e-06
3830.0 5.0564e-06
3850.0 5.6537e-06
3870.0 5.9815e-06
3890.0 5.9542e-06
3910.0 5.9796e-06
3930.0 6.137e-06
3950.0 6.234e-06
3970.0 5.6797e-06
3990.0 4.8871e-06
4010.0 1.4647e-05
4030.0 1.7747e-05
4050.0 2.0346e-05
4070.0 1.7654e-05
4090.0 1.5989e-05
4110.0 1.4109e-05
4130.0 1.2986e-05
4150.0 1.3813e-05
4170.0 1.3606e-05
4190.0 1.4503e-05
4210.0 1.4371e-05
4230.0 1.52e-05
4250.0 1.7982e-05
4270.0 1.8194e-05
4290.0 1.6765e-05
4310.0 1.742e-05
4330.0 1.853e-05
4350.0 2.0777e-05
4370.0 2.3644e-05
4390.0 2.2188e-05
4410.0 1.6393e-05
4430.0 1.3877e-05
4450.0 1.2752e-05
4470.0 9.7875e-06
4490.0 1.0562e-05
4510.0 1.5954e-05
4530.0 1.84e-05
4550.0 1.8559e-05
4570.0 2.0884e-05
4590.0 2.3789e-05
4610.0 3.2085e-05
4630.0 4.1672e-05
4650.0 4.5193e-05
4670.0 4.1853e-05
4690.0 3.9935e-05
4710.0 4.2214e-05
4730.0 3.9839e-05
4750.0 2.9784e-05
4770.0 2.1848e-05
4790.0 2.0402e-05
4810.0 1.9446e-05
4830.0 1.7803e-05
4850.0 1.9535e-05
4870.0 2.5808e-05
4890.0 3.0435e-05
4910.0 2.6703e-05
4930.0 2.3628e-05
4950.0 2.5959e-05
4970.0 3.3291e-05
4990.0 4.5117e-05
5010.0 5.1902e-05
5030.0 4.5765e-05
5050.0 3.0963e-05
5070.0 2.0406e-05
5090.0 1.6454e-05
5110.0 1.6922e-05
5130.0 1.953e-05
5150.0 2.116e-05
5170.0 2.0842e-05
5190.0 1.9476e-05
5210.0 2.0356e-05
5230.0 2.1399e-05
5250.0 2.3062e-05
5270.0 2.4882e-05
5290.0 2.7575e-05
5310.0 3.2096e-05
5330.0 3.5519e-05
5350.0 3.5292e-05
5370.0 3.7071e-05
5390.0 4.2539e-05
5410.0 4.2501e-05
5430.0 3.7586e-05
5450.0 3.4533e-05
5470.0 3.6668e-05
5490.0 4.4797e-05
5510.0 5.6012e-05
5530.0 6.4243e-05
5550.0 6.2092e-05
5570.0 5.6446e-05
5590.0 4.908e-05
5610.0 4.5263e-05
5630.0 4.3891e-05
5650.0 4.1802e-05
5670.0 3.9611e-05
5690.0 3.5412e-05
5710.0 3.4527e-05
5730.0 3.1804e-05
5750.0 2.2424e-05
5770.0 1.7494e-05
5790.0 1.9825e-05
5810.0 2.2386e-05
5830.0 2.747e-05
5850.0 3.27e-05
5870.0 3.6281e-05
5890.0 3.6896e-05
5910.0 3.6197e-05
5930.0 3.4456e-05
5950.0 3.511e-05
5970.0 4.0021e-05
5990.0 3.763e-05
6010.0 3.1545e-05
6030.0 2.6651e-05
6050.0 2.321e-05
6070.0 2.3083e-05
6090.0 2.503e-05
6110.0 2.7987e-05
6130.0 2.8416e-05
6150.0 2.4449e-05
6170.0 2.1508e-05
6190.0 2.4204e-05
6210.0 3.1997e-05
6230.0 4.199e-05
6250.0 4.5481e-05
6270.0 3.9744e-05
6290.0 3.3439e-05
6310.0 2.6105e-05
6330.0 2.0001e-05
6350.0 1.784e-05
6370.0 1.8761e-05
6390.0 2.1689e-05
6410.0 2.6744e-05
6430.0 3.1229e-05
6450.0 3.5734e-05
6470.0 4.0916e-05
6490.0 4.9424e-05
6510.0 5.5263e-05
6530.0 5.4216e-05
6550.0 4.9026e-05
6570.0 4.1619e-05
6590.0 3.7529e-05
6610.0 3.2359e-05
6630.0 2.9316e-05
6650.0 2.7712e-05
6670.0 2.6922e-05
6690.0 2.4325e-05
6710.0 2.2112e-05
6730.0 1.5927e-05
6750.0 1.579e-05
6770.0 1.7163e-05
6790.0 1.9727e-05
6810.0 1.8051e-05
6830.0 1.8587e-05
6850.0 1.7385e-05
6870.0 1.5881e-05
6890.0 1.5248e-05
6910.0 1.6249e-05
6930.0 1.522e-05
6950.0 1.5658e-05
6970.0 1.647e-05
6990.0 1.8695e-05
7010.0 1.8854e-05
7030.0 1.9153e-05
7050.0 1.8266e-05
7070.0 1.7404e-05
7090.0 1.7455e-05
7110.0 1.796e-05
7130.0 1.9328e-05
7150.0 2.0527e-05
7170.0 2.2651e-05
7190.0 2.4899e-05
7210.0 2.4467e-05
7230.0 2.5152e-05
7250.0 2.703e-05
7270.0 2.9456e-05
7290.0 3.4962e-05
7310.0 3.7937e-05
7330.0 3.6669e-05
7350.0 3.3165e-05
7370.0 2.8857e-05
7390.0 2.7994e-05
7410.0 2.975e-05
7430.0 3.3063e-05
7450.0 3.6012e-05
7470.0 3.5681e-05
7490.0 3.2534e-05
7510.0 3.6853e-05
7530.0 3.645e-05
7550.0 3.2762e-05
7570.0 2.5593e-05
7590.0 1.7594e-05
7610.0 1.5101e-05
7630.0 1.7158e-05
7650.0 2.0287e-05
7670.0 2.5249e-05
7690.0 2.7784e-05
7710.0 2.8955e-05
7730.0 3.0428e-05
7750.0 3.4158e-05
7770.0 3.4696e-05
7790.0 3.187e-05
7810.0 2.9079e-05
7830.0 2.9987e-05
7850.0 2.915e-05
7870.0 2.6726e-05
7890.0 2.2455e-05
7910.0 1.8253e-05
7930.0 1.7429e-05
7950.0 1.5878e-05
7970.0 1.4698e-05
7990.0 1.4614e-05
8010.0 1.0829e-06
8030.0 1.0687e-06
8050.0 1.0544e-06
8070.0 1.0683e-06
8090.0 1.148e-06
8110.0 1.1284e-06
8130.0 9.3055e-07
8150.0 9.063e-07
8170.0 7.8047e-07
8190.0 7.3953e-07
8210.0 9.6069e-07
8230.0 1.0697e-06
8250.0 9.6375e-07
8270.0 8.3877e-07
8290.0 8.1788e-07
8310.0 6.2953e-07
8330.0 4.2429e-07
8350.0 3.0113e-07
8370.0 1.8962e-07
8390.0 3.468e-07
8410.0 4.0411e-07
8430.0 4.9813e-07
8450.0 5.8493e-07
8470.0 7.2717e-07
8490.0 7.2197e-07
8510.0 7.1008e-07
8530.0 7.409e-07
8550.0 9.9999e-07
8570.0 1.184e-06
8590.0 1.2772e-06
8610.0 1.6136e-06
8630.0 1.9437e-06
8650.0 2.0329e-06
8670.0 2.1605e-06
8690.0 2.173e-06
8710.0 1.9679e-06
8730.0 1.8306e-06
8750.0 1.6158e-06
8770.0 1.5331e-06
8790.0 1.5062e-06
8810.0 1.4434e-06
8830.0 1.154e-06
8850.0 8.4465e-07
8870.0 6.4671e-07
8890.0 6.325e-07
8910.0 7.2502e-07
8930.0 8.2479e-07
8950.0 8.4063e-07
8970.0 8.4456e-07
8990.0 7.5311e-07
9010.0 7.8866e-06
9030.0 7.1461e-06
9050.0 7.1806e-06
9070.0 7.2373e-06
9090.0 7.287e-06
9110.0 7.3484e-06
9130.0 7.3958e-06
9150.0 7.4327e-06
9170.0 7.4719e-06
9190.0 7.5138e-06
9210.0 7.558e-06
9230.0 7.6046e-06
9250.0 7.6519e-06
9270.0 7.701e-06
9290.0 7.7516e-06
9310.0 7.8025e-06
9330.0 7.8545e-06
9350.0 7.9083e-06
9370.0 7.9628e-06
9390.0 8.0178e-06
9410.0 8.0744e-06
9430.0 8.1327e-06
9450.0 8.1908e-06
9470.0 8.2501e-06
9490.0 8.3112e-06
9510.0 8.3729e-06
9530.0 8.4349e-06
9550.0 8.4991e-06
9570.0 8.5644e-06
9590.0 8.6299e-06
9610.0 8.6966e-06
9630.0 8.765e-06
9650.0 8.834e-06
9670.0 8.9031e-06
9690.0 8.9741e-06
9710.0 9.0461e-06
9730.0 9.1184e-06
9750.0 9.1917e-06
9770.0 9.2672e-06
9790.0 9.3425e-06
9810.0 9.4182e-06
9830.0 9.4956e-06
9850.0 9.5739e-06
9870.0 9.652e-06
9890.0 9.7313e-06
9910.0 9.812e-06
9930.0 9.8929e-06
9950.0 9.974e-06
9970.0 1.0057e-05
9990.0 1.014e-05
10010.0 8.7992e-06
10030.0 8.8714e-06
10050.0 8.9452e-06
10070.0 9.0214e-06
10090.0 9.0933e-06
10110.0 9.1669e-06
10130.0 9.2409e-06
10150.0 9.3145e-06
10170.0 9.3891e-06
10190.0 9.465e-06
10210.0 9.54e-06
10230.0 9.6148e-06
10250.0 9.6908e-06
10270.0 9.7667e-06
10290.0 9.8416e-06
10310.0 9.9175e-06
10330.0 9.9943e-06
10350.0 1.007e-05
10370.0 1.0145e-05
10390.0 1.0221e-05
10410.0 1.0296e-05
10430.0 1.0371e-05
10450.0 1.0445e-05
10470.0 1.0521e-05
10490.0 1.0594e-05
10510.0 1.0668e-05
10530.0 1.0742e-05
10550.0 1.0815e-05
10570.0 1.0887e-05
10590.0 1.0959e-05
10610.0 1.1031e-05
10630.0 1.1102e-05
10650.0 1.1171e-05
10670.0 1.1242e-05
10690.0 1.1311e-05
10710.0 1.1379e-05
10730.0 1.1446e-05
10750.0 1.1514e-05
10770.0 1.1579e-05
10790.0 1.1644e-05
10810.0 1.1708e-05
10830.0 1.1771e-05
10850.0 1.183e-05
10870.0 1.1887e-05
10890.0 1.1938e-05
10910.0 1.1977e-05
10930.0 1.1999e-05
10950.0 1.1994e-05
10970.0 1.1953e-05
10990.0 1.1873e-05
11010.0 1.1739e-05
11030.0 1.1553e-05
11050.0 1.1325e-05
11070.0 1.1053e-05
11090.0 1.0726e-05
11110.0 1.0388e-05
11130.0 1.0035e-05
11150.0 9.6549e-06
11170.0 9.2633e-06
11190.0 8.8835e-06
11210.0 8.4912e-06
11230.0 8.0889e-06
11250.0 7.7045e-06
11270.0 7.3354e-06
11290.0 6.9656e-06
11310.0 6.6153e-06
11330.0 6.3068e-06
11350.0 6.0154e-06
11370.0 5.746e-06
11390.0 5.513e-06
11410.0 5.3092e-06
11430.0 5.1198e-06
11450.0 4.9566e-06
11470.0 4.8155e-06
11490.0 4.6842e-06
11510.0 4.5577e-06
11530.0 4.4403e-06
11550.0 4.3237e-06
11570.0 4.1992e-06
11590.0 4.0704e-06
11610.0 3.9392e-06
11630.0 3.7965e-06
11650.0 3.6436e-06
11670.0 3.493e-06
11690.0 3.3403e-06
11710.0 3.1827e-06
11730.0 3.03e-06
11750.0 2.8887e-06
11770.0 2.7501e-06
11790.0 2.6203e-06
11810.0 2.5059e-06
11830.0 2.4037e-06
11850.0 2.3095e-06
11870.0 2.2307e-06
11890.0 2.1652e-06
11910.0 2.1077e-06
11930.0 2.0582e-06
11950.0 2.017e-06
11970.0 1.9802e-06
11990.0 1.9455e-06
12010.0 1.9133e-06
12030.0 1.8823e-06
12050.0 1.8502e-06
12070.0 1.8169e-06
12090.0 1.7847e-06
12110.0 1.7521e-06
12130.0 1.7194e-06
12150.0 1.6892e-06
12170.0 1.6629e-06
12190.0 1.6402e-06
12210.0 1.6243e-06
12230.0 1.6166e-06
12250.0 1.6178e-06
12270.0 1.63e-06
12290.0 1.6531e-06
12310.0 1.6862e-06
12330.0 1.7325e-06
12350.0 1.7902e-06
12370.0 1.856e-06
12390.0 1.9318e-06
12410.0 2.0207e-06
12430.0 2.111e-06
12450.0 2.2045e-06
12470.0 2.3039e-06
12490.0 2.4038e-06
12510.0 2.4975e-06
12530.0 2.5907e-06
12550.0 2.6806e-06
12570.0 2.7599e-06
12590.0 2.8296e-06
12610.0 2.8917e-06
12630.0 2.9412e-06
12650.0 2.9754e-06
12670.0 2.9978e-06
12690.0 3.0068e-06
12710.0 3.0019e-06
12730.0 2.9845e-06
12750.0 2.9534e-06
12770.0 2.9108e-06
12790.0 2.8592e-06
12810.0 2.7975e-06
12830.0 2.7261e-06
12850.0 2.6514e-06
12870.0 2.5725e-06
12890.0 2.4871e-06
12910.0 2.4003e-06
12930.0 2.3147e-06
12950.0 2.2255e-06
12970.0 2.1346e-06
12990.0 2.0486e-06
13010.0 1.9637e-06
13030.0 1.8778e-06
13050.0 1.7953e-06
13070.0 1.7181e-06
13090.0 1.6406e-06
13110.0 1.5656e-06
13130.0 1.4964e-06
13150.0 1.4309e-06
13170.0 1.3668e-06
13190.0 1.3098e-06
13210.0 1.2595e-06
13230.0 1.2136e-06
13250.0 1.1741e-06
13270.0 1.1429e-06
13290.0 1.1187e-06
13310.0 1.102e-06
13330.0 1.0944e-06
13350.0 1.0952e-06
13370.0 1.1051e-06
13390.0 1.1244e-06
13410.0 1.1504e-06
13430.0 1.1843e-06
13450.0 1.2262e-06
13470.0 1.2727e-06
13490.0 1.3219e-06
13510.0 1.3775e-06
13530.0 1.4338e-06
13550.0 1.4877e-06
13570.0 1.5408e-06
13590.0 1.5926e-06
13610.0 1.6386e-06
13630.0 1.6788e-06
13650.0 1.7156e-06
13670.0 1.746e-06
13690.0 1.7696e-06
13710.0 1.7878e-06
13730.0 1.8008e-06
13750.0 1.8074e-06
13770.0 1.8088e-06
13790.0 1.8055e-06
13810.0 1.7976e-06
13830.0 1.7858e-06
13850.0 1.7698e-06
13870.0 1.7497e-06
13890.0 1.7267e-06
13910.0 1.7008e-06
13930.0 1.6707e-06
13950.0 1.638e-06
13970.0 1.6045e-06
13990.0 1.568e-06
14010.0 1.5291e-06
14030.0 1.4904e-06
14050.0 1.4514e-06
14070.0 1.4102e-06
14090.0 1.3708e-06
14110.0 1.3337e-06
14130.0 1.2977e-06
14150.0 1.2639e-06
14170.0 1.235e-06
14190.0 1.21e-06
14210.0 1.1888e-06
14230.0 1.1732e-06
14250.0 1.163e-06
14270.0 1.1581e-06
14290.0 1.1591e-06
14310.0 1.1656e-06
14330.0 1.1772e-06
14350.0 1.1943e-06
14370.0 1.2156e-06
14390.0 1.2397e-06
14410.0 1.2682e-06
14430.0 1.2994e-06
14450.0 1.3313e-06
14470.0 1.3644e-06
14490.0 1.3996e-06
14510.0 1.4333e-06
14530.0 1.4653e-06
14550.0 1.4972e-06
14570.0 1.5279e-06
14590.0 1.5558e-06
14610.0 1.5829e-06
14630.0 1.6096e-06
14650.0 1.6345e-06
14670.0 1.6585e-06
14690.0 1.6836e-06
14710.0 1.71e-06
14730.0 1.7363e-06
14750.0 1.7655e-06
14770.0 1.7987e-06
14790.0 1.8346e-06
14810.0 1.8735e-06
14830.0 1.9196e-06
14850.0 1.9697e-06
14870.0 2.022e-06
14890.0 2.0784e-06
14910.0 2.1383e-06
14930.0 2.1959e-06
14950.0 2.2497e-06
14970.0 2.3006e-06
14990.0 2.3434e-06
15010.0 2.376e-06
15030.0 2.4002e-06
15050.0 2.4163e-06
15070.0 2.4241e-06
15090.0 2.4268e-06
15110.0 2.426e-06
15130.0 2.423e-06
15150.0 2.4189e-06
15170.0 2.414e-06
15190.0 2.4088e-06
15210.0 2.4037e-06
15230.0 2.3986e-06
15250.0 2.3933e-06
15270.0 2.3881e-06
15290.0 2.3831e-06
15310.0 2.378e-06
15330.0 2.3729e-06
15350.0 2.3679e-06
15370.0 2.363e-06
15390.0 2.3578e-06
15410.0 2.3529e-06
15430.0 2.348e-06
15450.0 2.3431e-06
15470.0 2.3381e-06
15490.0 2.3333e-06
15510.0 2.3286e-06
15530.0 2.3236e-06
15550.0 2.3188e-06
15570.0 2.3142e-06
15590.0 2.3093e-06
15610.0 2.3044e-06
15630.0 2.2998e-06
15650.0 2.2951e-06
15670.0 2.2903e-06
15690.0 2.2856e-06
15710.0 2.2811e-06
15730.0 2.2764e-06
15750.0 2.2717e-06
15770.0 2.2671e-06
15790.0 2.2626e-06
15810.0 2.2578e-06
15830.0 2.2532e-06
15850.0 2.2487e-06
15870.0 2.2441e-06
15890.0 2.2395e-06
15910.0 2.235e-06
15930.0 2.2305e-06
15950.0 2.2258e-06
15970.0 2.2213e-06
15990.0 2.2168e-06
16010.0 2.2122e-06
16030.0 2.2076e-06
16050.0 2.2032e-06
16070.0 2.1987e-06
16090.0 2.1941e-06
16110.0 2.1896e-06
16130.0 2.1853e-06
16150.0 2.1806e-06
16170.0 2.176e-06
16190.0 2.1716e-06
16210.0 2.1671e-06
16230.0 2.1625e-06
16250.0 2.158e-06
16270.0 2.1537e-06
16290.0 2.149e-06
16310.0 2.1445e-06
16330.0 2.1401e-06
16350.0 2.1356e-06
16370.0 2.1308e-06
16390.0 2.1264e-06
16410.0 2.122e-06
16430.0 2.1173e-06
16450.0 2.1128e-06
16470.0 2.1084e-06
16490.0 2.1038e-06
16510.0 2.0991e-06
16530.0 2.0946e-06
16550.0 2.0901e-06
16570.0 2.0854e-06
16590.0 2.0808e-06
16610.0 2.0763e-06
16630.0 2.0717e-06
16650.0 2.067e-06
16670.0 2.0625e-06
16690.0 2.058e-06
16710.0 2.0531e-06
16730.0 2.0485e-06
16750.0 2.044e-06
16770.0 2.0392e-06
16790.0 2.0344e-06
16810.0 2.0299e-06
16830.0 2.0253e-06
16850.0 2.0205e-06
16870.0 2.0158e-06
16890.0 2.0112e-06
16910.0 2.0063e-06
16930.0 2.0014e-06
16950.0 1.9968e-06
16970.0 1.9921e-06
16990.0 1.9872e-06
17010.0 1.9824e-06
17030.0 1.9778e-06
17050.0 1.9729e-06
17070.0 1.968e-06
17090.0 1.9632e-06
17110.0 1.9584e-06
17130.0 1.9533e-06
17150.0 1.9485e-06
17170.0 1.9437e-06
17190.0 1.9388e-06
17210.0 1.9338e-06
17230.0 1.929e-06
17250.0 1.9241e-06
17270.0 1.919e-06
17290.0 1.914e-06
17310.0 1.9091e-06
17330.0 1.9041e-06
17350.0 1.8989e-06
17370.0 1.8941e-06
17390.0 1.8891e-06
17410.0 1.8839e-06
17430.0 1.8789e-06
17450.0 1.874e-06
17470.0 1.8688e-06
17490.0 1.8636e-06
17510.0 1.8586e-06
17530.0 1.8535e-06
17550.0 1.8482e-06
17570.0 1.8432e-06
17590.0 1.8381e-06
17610.0 1.8329e-06
17630.0 1.8277e-06
17650.0 1.8226e-06
17670.0 1.8174e-06
17690.0 1.8119e-06
17710.0 1.8068e-06
17730.0 1.8017e-06
17750.0 1.7963e-06
17770.0 1.7911e-06
17790.0 1.786e-06
17810.0 1.7806e-06
17830.0 1.7752e-06
17850.0 1.77e-06
17870.0 1.7647e-06
17890.0 1.7593e-06
17910.0 1.7539e-06
17930.0 1.7487e-06
17950.0 1.7433e-06
17970.0 1.7379e-06
17990.0 1.7326e-06
18010.0 1.7273e-06
18030.0 1.7217e-06
18050.0 1.7163e-06
18070.0 1.711e-06
18090.0 1.7055e-06
18110.0 1.7e-06
18130.0 1.6947e-06
18150.0 1.6893e-06
18170.0 1.6837e-06
18190.0 1.6783e-06
18210.0 1.673e-06
18230.0 1.6674e-06
18250.0 1.6617e-06
18270.0 1.6564e-06
18290.0 1.6509e-06
18310.0 1.6453e-06
18330.0 1.6398e-06
18350.0 1.6345e-06
18370.0 1.6288e-06
18390.0 1.6232e-06
18410.0 1.6178e-06
18430.0 1.6123e-06
18450.0 1.6065e-06
18470.0 1.601e-06
18490.0 1.5956e-06
18510.0 1.5899e-06
18530.0 1.5843e-06
18550.0 1.5789e-06
18570.0 1.5733e-06
18590.0 1.5675e-06
18610.0 1.562e-06
18630.0 1.5565e-06
18650.0 1.5508e-06
18670.0 1.5451e-06
18690.0 1.5397e-06
18710.0 1.534e-06
18730.0 1.5283e-06
18750.0 1.5228e-06
18770.0 1.5173e-06
18790.0 1.5115e-06
18810.0 1.5058e-06
18830.0 1.5003e-06
18850.0 1.4946e-06
18870.0 1.4889e-06
18890.0 1.4833e-06
18910.0 1.4778e-06
18930.0 1.4721e-06
18950.0 1.4664e-06
18970.0 1.4609e-06
18990.0 1.4552e-06
19010.0 1.4493e-06
19030.0 1.4438e-06
19050.0 1.4382e-06
19070.0 1.4325e-06
19090.0 1.4268e-06
19110.0 1.4214e-06
19130.0 1.4156e-06
19150.0 1.4099e-06
19170.0 1.4043e-06
19190.0 1.3987e-06
19210.0 1.3929e-06
19230.0 1.3872e-06
19250.0 1.3817e-06
19270.0 1.376e-06
19290.0 1.3703e-06
19310.0 1.3648e-06
19330.0 1.3592e-06
19350.0 1.3533e-06
19370.0 1.3477e-06
19390.0 1.3422e-06
19410.0 1.3365e-06
19430.0 1.3307e-06
19450.0 1.3252e-06
19470.0 1.3196e-06
19490.0 1.3139e-06
19510.0 1.3083e-06
19530.0 1.3028e-06
19550.0 1.297e-06
19570.0 1.2913e-06
19590.0 1.2858e-06
19610.0 1.2802e-06
19630.0 1.2744e-06
19650.0 1.2689e-06
19670.0 1.2634e-06
19690.0 1.2577e-06
19710.0 1.252e-06
19730.0 1.2465e-06
19750.0 1.2409e-06
19770.0 1.2351e-06
19790.0 1.2296e-06
19810.0 1.2241e-06
19830.0 1.2184e-06
19850.0 1.2127e-06
19870.0 1.207e-06
19890.0 1.201e-06
19910.0 1.1944e-06
19930.0 1.1873e-06
19950.0 1.1792e-06
19970.0 1.1692e-06
19990.0 1.1572e-06
20010.0 1.0296e-06
20030.0 1.0147e-06
20050.0 9.9721e-07
20070.0 9.7832e-07
20090.0 9.5799e-07
20110.0 9.35e-07
20130.0 9.1172e-07
20150.0 8.8866e-07
20170.0 8.6474e-07
20190.0 8.4048e-07
20210.0 8.1757e-07
20230.0 7.9522e-07
20250.0 7.7283e-07
20270.0 7.5204e-07
20290.0 7.3306e-07
20310.0 7.1503e-07
20330.0 6.9818e-07
20350.0 6.8419e-07
20370.0 6.7177e-07
20390.0 6.6088e-07
20410.0 6.5209e-07
20430.0 6.4531e-07
20450.0 6.3994e-07
20470.0 6.3634e-07
20490.0 6.3441e-07
20510.0 6.3385e-07
20530.0 6.3463e-07
20550.0 6.3659e-07
20570.0 6.3944e-07
20590.0 6.433e-07
20610.0 6.4798e-07
20630.0 6.5312e-07
20650.0 6.5888e-07
20670.0 6.6546e-07
20690.0 6.7218e-07
20710.0 6.7911e-07
20730.0 6.866e-07
20750.0 6.9441e-07
20770.0 7.0209e-07
20790.0 7.1017e-07
20810.0 7.187e-07
20830.0 7.2719e-07
20850.0 7.3573e-07
20870.0 7.4486e-07
20890.0 7.5417e-07
20910.0 7.6316e-07
20930.0 7.7248e-07
20950.0 7.8214e-07
20970.0 7.9156e-07
20990.0 8.0085e-07
21010.0 8.1062e-07
21030.0 8.2018e-07
21050.0 8.2929e-07
21070.0 8.3839e-07
21090.0 8.4752e-07
21110.0 8.5585e-07
21130.0 8.6367e-07
21150.0 8.7125e-07
21170.0 8.7811e-07
21190.0 8.8401e-07
21210.0 8.8932e-07
21230.0 8.9374e-07
21250.0 8.9688e-07
21270.0 8.9888e-07
21290.0 8.9963e-07
21310.0 8.9891e-07
21330.0 8.9679e-07
21350.0 8.9307e-07
21370.0 8.876e-07
21390.0 8.8065e-07
21410.0 8.7214e-07
21430.0 8.6136e-07
21450.0 8.4926e-07
21470.0 8.3608e-07
21490.0 8.2118e-07
21510.0 8.0483e-07
21530.0 7.8822e-07
21550.0 7.7082e-07
21570.0 7.5227e-07
21590.0 7.3401e-07
21610.0 7.1638e-07
21630.0 6.9873e-07
21650.0 6.8148e-07
21670.0 6.6653e-07
21690.0 6.5274e-07
21710.0 6.4032e-07
21730.0 6.3015e-07
21750.0 6.2231e-07
21770.0 6.1633e-07
21790.0 6.1289e-07
21810.0 6.1194e-07
21830.0 6.133e-07
21850.0 6.1713e-07
21870.0 6.2311e-07
21890.0 6.3083e-07
21910.0 6.4074e-07
21930.0 6.5235e-07
21950.0 6.6494e-07
21970.0 6.7888e-07
21990.0 6.9454e-07
22010.0 7.1018e-07
22030.0 7.2606e-07
22050.0 7.4274e-07
22070.0 7.5952e-07
22090.0 7.754e-07
22110.0 7.9141e-07
22130.0 8.074e-07
22150.0 8.2233e-07
22170.0 8.364e-07
22190.0 8.5035e-07
22210.0 8.6333e-07
22230.0 8.7476e-07
22250.0 8.8551e-07
22270.0 8.9541e-07
22290.0 9.0388e-07
22310.0 9.1115e-07
22330.0 9.1755e-07
22350.0 9.2249e-07
22370.0 9.2598e-07
22390.0 9.2816e-07
22410.0 9.2885e-07
22430.0 9.2797e-07
22450.0 9.2558e-07
22470.0 9.2145e-07
22490.0 9.1564e-07
22510.0 9.0841e-07
22530.0 8.9916e-07
22550.0 8.879e-07
22570.0 8.7542e-07
22590.0 8.6134e-07
22610.0 8.4514e-07
22630.0 8.2761e-07
