#lamb flux
1010.0 0.00023661
1030.0 0.00030887
1050.0 0.00040021
1070.0 0.00051367
1090.0 0.00065535
1110.0 0.00081942
1130.0 0.0010055
1150.0 0.0012204
1170.0 0.0014632
1190.0 0.0017196
1210.0 0.0019929
1230.0 0.0022861
1250.0 0.0025847
1270.0 0.0028795
1290.0 0.0031794
1310.0 0.0034656
1330.0 0.003721
1350.0 0.0039485
1370.0 0.0041462
1390.0 0.0042964
1410.0 0.0043955
1430.0 0.0044572
1450.0 0.0044731
1470.0 0.0044398
1490.0 0.0043705
1510.0 0.0042697
1530.0 0.0041293
1550.0 0.0039674
1570.0 0.0037991
1590.0 0.0036231
1610.0 0.0034404
1630.0 0.0032644
1650.0 0.0030976
1670.0 0.0029376
1690.0 0.0027889
1710.0 0.0026569
1730.0 0.0025395
1750.0 0.0024326
1770.0 0.0023427
1790.0 0.0022685
1810.0 0.0022067
1830.0 0.0021577
1850.0 0.0021248
1870.0 0.0021029
1890.0 0.0020912
1910.0 0.0020917
1930.0 0.0021039
1950.0 0.0021243
1970.0 0.002154
1990.0 0.0021948
2010.0 0.0022439
2030.0 0.0023002
2050.0 0.0023662
2070.0 0.0024414
2090.0 0.0025219
2110.0 0.0026098
2130.0 0.0027061
2150.0 0.0028084
2170.0 0.0029149
2190.0 0.0030291
2210.0 0.0031492
2230.0 0.0032723
2250.0 0.0033997
2270.0 0.0035335
2290.0 0.0036691
2310.0 0.0038053
2330.0 0.0039454
2350.0 0.0040877
2370.0 0.0042285
2390.0 0.0043699
2410.0 0.0045134
2430.0 0.0046541
2450.0 0.0047923
2470.0 0.0049325
2490.0 0.0050772
2510.0 0.0052261
2530.0 0.0053935
2550.0 0.0055984
2570.0 0.0058554
2590.0 0.0061844
2610.0 0.0066488
2630.0 0.0072721
2650.0 0.0080495
2670.0 0.0090303
2690.0 0.010247
2710.0 0.011608
2730.0 0.013059
2750.0 0.014643
2770.0 0.01621
2790.0 0.017632
2810.0 0.018918
2830.0 0.020062
2850.0 0.020918
2870.0 0.021578
2890.0 0.022108
2910.0 0.022512
2930.0 0.022804
2950.0 0.023058
2970.0 0.023282
2990.0 0.023456
3010.0 0.023601
3030.0 0.023747
3050.0 0.023876
3070.0 0.023959
3090.0 0.024045
3110.0 0.024135
3130.0 0.024231
3150.0 0.024094
3170.0 0.024181
3190.0 0.024452
3210.0 0.025021
3230.0 0.026125
3250.0 0.028269
3270.0 0.031139
3290.0 0.03432
3310.0 0.038061
3330.0 0.039033
3350.0 0.039286
3370.0 0.03953
3390.0 0.039745
3410.0 0.039802
3430.0 0.039732
3450.0 0.039602
3470.0 0.039475
3490.0 0.039109
3510.0 0.0378
3530.0 0.034582
3550.0 0.032297
3570.0 0.034932
3590.0 0.04013
3610.0 0.044293
3630.0 0.049992
3650.0 0.048958
3670.0 0.042577
3690.0 0.036693
3710.0 0.034455
3730.0 0.035416
3750.0 0.036164
3770.0 0.037224
3790.0 0.038411
3810.0 0.03956
3830.0 0.036605
3850.0 0.032772
3870.0 0.03084
3890.0 0.032409
3910.0 0.033391
3930.0 0.033549
3950.0 0.035505
3970.0 0.037805
3990.0 0.038291
4010.0 0.038778
4030.0 0.037495
4050.0 0.03655
4070.0 0.035972
4090.0 0.036276
4110.0 0.03674
4130.0 0.0359
4150.0 0.034588
4170.0 0.034184
4190.0 0.033743
4210.0 0.031457
4230.0 0.02906
4250.0 0.026311
4270.0 0.023942
4290.0 0.023158
4310.0 0.02292
4330.0 0.023666
4350.0 0.02602
4370.0 0.027224
4390.0 0.030008
4410.0 0.03227
4430.0 0.033071
4450.0 0.030708
4470.0 0.028183
4490.0 0.027498
4510.0 0.027068
4530.0 0.027126
4550.0 0.027135
4570.0 0.027617
4590.0 0.028702
4610.0 0.029495
4630.0 0.030221
4650.0 0.030587
4670.0 0.030437
4690.0 0.02875
4710.0 0.027127
4730.0 0.02585
4750.0 0.0252
4770.0 0.024529
4790.0 0.024683
4810.0 0.024251
4830.0 0.022676
4850.0 0.024562
4870.0 0.023161
4890.0 0.023797
4910.0 0.024254
4930.0 0.023012
4950.0 0.019776
4970.0 0.018595
4990.0 0.017525
5010.0 0.016439
5030.0 0.016486
5050.0 0.017721
5070.0 0.018069
5090.0 0.018951
5110.0 0.01912
5130.0 0.018926
5150.0 0.019224
5170.0 0.018459
5190.0 0.018331
5210.0 0.018674
5230.0 0.017883
5250.0 0.018235
5270.0 0.019091
5290.0 0.018764
5310.0 0.01774
5330.0 0.017216
5350.0 0.01617
5370.0 0.015869
5390.0 0.01575
5410.0 0.015232
5430.0 0.015539
5450.0 0.014969
5470.0 0.015024
5490.0 0.016522
5510.0 0.01674
5530.0 0.016808
5550.0 0.016712
5570.0 0.016973
5590.0 0.017019
5610.0 0.016854
5630.0 0.016694
5650.0 0.016503
5670.0 0.016096
5690.0 0.015805
5710.0 0.015383
5730.0 0.015703
5750.0 0.015131
5770.0 0.014324
5790.0 0.013798
5810.0 0.0127
5830.0 0.013316
5850.0 0.013949
5870.0 0.013966
5890.0 0.014079
5910.0 0.014652
5930.0 0.014583
5950.0 0.014644
5970.0 0.014619
5990.0 0.014759
6010.0 0.014382
6030.0 0.014165
6050.0 0.014051
6070.0 0.013791
6090.0 0.013943
6110.0 0.013795
6130.0 0.013354
6150.0 0.013044
6170.0 0.012768
6190.0 0.011834
6210.0 0.011631
6230.0 0.011766
6250.0 0.011654
6270.0 0.011554
6290.0 0.011825
6310.0 0.012175
6330.0 0.012119
6350.0 0.011835
6370.0 0.011848
6390.0 0.011447
6410.0 0.011371
6430.0 0.01104
6450.0 0.011001
6470.0 0.01097
6490.0 0.010961
6510.0 0.010595
6530.0 0.010491
6550.0 0.010337
6570.0 0.010093
6590.0 0.010299
6610.0 0.010306
6630.0 0.010075
6650.0 0.0097075
6670.0 0.0095536
6690.0 0.0093956
6710.0 0.0091416
6730.0 0.0090169
6750.0 0.0090862
6770.0 0.009367
6790.0 0.0095204
6810.0 0.0093736
6830.0 0.0088041
6850.0 0.0083094
6870.0 0.0081795
6890.0 0.008135
6910.0 0.0081042
6930.0 0.0080266
6950.0 0.0080839
6970.0 0.0078441
6990.0 0.0077378
7010.0 0.0077862
7030.0 0.0078774
7050.0 0.007729
7070.0 0.0073124
7090.0 0.00704
7110.0 0.0070434
7130.0 0.0071215
7150.0 0.0071497
7170.0 0.0071149
7190.0 0.0069726
7210.0 0.0072478
7230.0 0.0074926
7250.0 0.0074795
7270.0 0.0075079
7290.0 0.0076358
7310.0 0.007478
7330.0 0.0072865
7350.0 0.0070183
7370.0 0.0070394
7390.0 0.0071713
7410.0 0.0067793
7430.0 0.0068235
7450.0 0.0067699
7470.0 0.0069885
7490.0 0.0069387
7510.0 0.0066403
7530.0 0.0067556
7550.0 0.0062717
7570.0 0.0060449
7590.0 0.0060367
7610.0 0.0062134
7630.0 0.0062721
7650.0 0.0064874
7670.0 0.0060606
7690.0 0.0058968
7710.0 0.006193
7730.0 0.006516
7750.0 0.0064528
7770.0 0.0066671
7790.0 0.0066441
7810.0 0.0066864
7830.0 0.0070708
7850.0 0.0068371
7870.0 0.0071704
7890.0 0.0069765
7910.0 0.0068747
7930.0 0.0066213
7950.0 0.0065844
7970.0 0.0067192
7990.0 0.006478
8010.0 0.0062497
8030.0 0.0061852
8050.0 0.006062
8070.0 0.0059435
8090.0 0.0054876
8110.0 0.0055085
8130.0 0.0058633
8150.0 0.0060768
8170.0 0.006121
8190.0 0.0062968
8210.0 0.0061803
8230.0 0.0060492
8250.0 0.0060342
8270.0 0.0059191
8290.0 0.0057979
8310.0 0.0055179
8330.0 0.0055256
8350.0 0.0055974
8370.0 0.0056328
8390.0 0.0056261
8410.0 0.0055474
8430.0 0.0054766
8450.0 0.0054743
8470.0 0.0056645
8490.0 0.0057295
8510.0 0.0055173
8530.0 0.0053148
8550.0 0.0053016
8570.0 0.0051784
8590.0 0.0050733
8610.0 0.0051685
8630.0 0.0051564
8650.0 0.0051061
8670.0 0.00507
8690.0 0.0050153
8710.0 0.0047906
8730.0 0.0048063
8750.0 0.0046873
8770.0 0.0047025
8790.0 0.0046341
8810.0 0.0045201
8830.0 0.0045397
8850.0 0.0045343
8870.0 0.0043219
8890.0 0.004176
8910.0 0.0040229
8930.0 0.0038149
8950.0 0.0037321
8970.0 0.0035736
8990.0 0.0035206
9010.0 0.0034104
9030.0 0.0033741
9050.0 0.0033528
9070.0 0.0033322
9090.0 0.0033113
9110.0 0.00329
9130.0 0.0032687
9150.0 0.0032477
9170.0 0.0032265
9190.0 0.0032052
9210.0 0.0031837
9230.0 0.0031621
9250.0 0.0031405
9270.0 0.0031187
9290.0 0.0030969
9310.0 0.0030753
9330.0 0.0030542
9350.0 0.003033
9370.0 0.0030117
9390.0 0.0029905
9410.0 0.0029693
9430.0 0.0029481
9450.0 0.0029269
9470.0 0.0029077
9490.0 0.0028875
9510.0 0.0028654
9530.0 0.0028435
9550.0 0.0028222
9570.0 0.0028011
9590.0 0.0027801
9610.0 0.0027596
9630.0 0.0027394
9650.0 0.0027192
9670.0 0.0026991
9690.0 0.0026791
9710.0 0.0026593
9730.0 0.0026396
9750.0 0.00262
9770.0 0.0026006
9790.0 0.0025813
9810.0 0.0025621
9830.0 0.002543
9850.0 0.0025224
9870.0 0.0025018
9890.0 0.0024848
9910.0 0.0024676
9930.0 0.0024468
9950.0 0.0024287
9970.0 0.0024123
9990.0 0.0023955
10010.0 0.0023788
10030.0 0.0023619
10050.0 0.0023448
10070.0 0.002328
10090.0 0.0023114
10110.0 0.0022947
10130.0 0.0022783
10150.0 0.0022622
10170.0 0.0022463
10190.0 0.0022304
10210.0 0.0022149
10230.0 0.0021996
10250.0 0.0021844
10270.0 0.0021694
10290.0 0.0021547
10310.0 0.0021401
10330.0 0.0021256
10350.0 0.0021115
10370.0 0.0020976
10390.0 0.0020836
10410.0 0.0020691
10430.0 0.0020546
10450.0 0.0020424
10470.0 0.0020298
10490.0 0.0020174
10510.0 0.0020052
10530.0 0.0019926
10550.0 0.0019804
10570.0 0.0019685
10590.0 0.0019567
10610.0 0.0019449
10630.0 0.0019335
10650.0 0.0019224
10670.0 0.0019111
10690.0 0.0019001
10710.0 0.0018895
10730.0 0.0018788
10750.0 0.0018682
10770.0 0.0018581
10790.0 0.0018481
10810.0 0.0018381
10830.0 0.0018283
10850.0 0.001819
10870.0 0.0018094
10890.0 0.0018
10910.0 0.001791
10930.0 0.001782
10950.0 0.001773
10970.0 0.0017642
10990.0 0.0017556
11010.0 0.0019706
11030.0 0.0019599
11050.0 0.0019484
11070.0 0.0019359
11090.0 0.0019221
11110.0 0.0019083
11130.0 0.0018943
11150.0 0.0018797
11170.0 0.0018648
11190.0 0.0018504
11210.0 0.0018356
11230.0 0.0018206
11250.0 0.001806
11270.0 0.0017919
11290.0 0.0017776
11310.0 0.0017637
11330.0 0.001751
11350.0 0.0017386
11370.0 0.0017266
11390.0 0.0017156
11410.0 0.0017054
11430.0 0.0016953
11450.0 0.001686
11470.0 0.0016773
11490.0 0.0016689
11510.0 0.0016605
11530.0 0.0016527
11550.0 0.001645
11570.0 0.001637
11590.0 0.001629
11610.0 0.0016212
11630.0 0.001613
11650.0 0.0016044
11670.0 0.0015959
11690.0 0.0015873
11710.0 0.0015782
11730.0 0.001569
11750.0 0.00156
11770.0 0.0015505
11790.0 0.0015408
11810.0 0.0015314
11830.0 0.001522
11850.0 0.0015122
11870.0 0.0015028
11890.0 0.001494
11910.0 0.0014852
11930.0 0.0014767
11950.0 0.001469
11970.0 0.0014616
11990.0 0.0014545
12010.0 0.0014483
12030.0 0.0014428
12050.0 0.0014377
12070.0 0.0014332
12090.0 0.0014296
12110.0 0.0014266
12130.0 0.0014241
12150.0 0.0014222
12170.0 0.0014208
12190.0 0.0014197
12210.0 0.0014188
12230.0 0.0014183
12250.0 0.0014177
12270.0 0.0014171
12290.0 0.0014162
12310.0 0.0014152
12330.0 0.0014136
12350.0 0.0014114
12370.0 0.0014088
12390.0 0.0014055
12410.0 0.0014012
12430.0 0.0013964
12450.0 0.001391
12470.0 0.0013846
12490.0 0.0013775
12510.0 0.00137
12530.0 0.0013617
12550.0 0.0013525
12570.0 0.0013431
12590.0 0.0013334
12610.0 0.0013227
12630.0 0.0013117
12650.0 0.0013011
12670.0 0.00129
12690.0 0.0012785
12710.0 0.0012673
12730.0 0.0012564
12750.0 0.0012449
12770.0 0.0012338
12790.0 0.0012234
12810.0 0.001213
12830.0 0.0012027
12850.0 0.0011933
12870.0 0.0011845
12890.0 0.0011758
12910.0 0.0011677
12930.0 0.0011606
12950.0 0.0011538
12970.0 0.0011476
12990.0 0.0011424
13010.0 0.0011379
13030.0 0.001134
13050.0 0.001131
13070.0 0.0011287
13090.0 0.001127
13110.0 0.0011258
13130.0 0.0011251
13150.0 0.0011247
13170.0 0.0011244
13190.0 0.0011243
13210.0 0.001124
13230.0 0.0011236
13250.0 0.0011228
13270.0 0.0011216
13290.0 0.00112
13310.0 0.0011177
13330.0 0.001115
13350.0 0.0011117
13370.0 0.0011077
13390.0 0.0011029
13410.0 0.0010978
13430.0 0.001092
13450.0 0.0010855
13470.0 0.0010785
13490.0 0.0010712
13510.0 0.0010629
13530.0 0.0010542
13550.0 0.0010454
13570.0 0.0010361
13590.0 0.0010263
13610.0 0.0010164
13630.0 0.0010066
13650.0 0.00099617
13670.0 0.00098564
13690.0 0.00097533
13710.0 0.00096477
13730.0 0.00095364
13750.0 0.00094306
13770.0 0.00093254
13790.0 0.00092172
13810.0 0.00091099
13830.0 0.00090077
13850.0 0.00089034
13870.0 0.00087986
13890.0 0.00086988
13910.0 0.00086016
13930.0 0.0008503
13950.0 0.00084073
13970.0 0.00083186
13990.0 0.000823
14010.0 0.0008143
14030.0 0.00080615
14050.0 0.00079835
14070.0 0.00079048
14090.0 0.00078311
14110.0 0.00077623
14130.0 0.0007695
14150.0 0.00076292
14170.0 0.00075687
14190.0 0.00075105
14210.0 0.00074526
14230.0 0.00073975
14250.0 0.00073453
14270.0 0.00072928
14290.0 0.00072409
14310.0 0.00071922
14330.0 0.00071443
14350.0 0.00070962
14370.0 0.00070499
14390.0 0.00070057
14410.0 0.0006961
14430.0 0.00069172
14450.0 0.00068754
14470.0 0.00068343
14490.0 0.00067924
14510.0 0.00067524
14530.0 0.00067136
14550.0 0.00066742
14570.0 0.00066348
14590.0 0.00065967
14610.0 0.0006558
14630.0 0.00065181
14650.0 0.00064789
14670.0 0.000644
14690.0 0.00063998
14710.0 0.00063587
14730.0 0.00063192
14750.0 0.00062785
14770.0 0.00062365
14790.0 0.00061949
14810.0 0.00061534
14830.0 0.00061092
14850.0 0.00060649
14870.0 0.00060214
14890.0 0.0005977
14910.0 0.00059318
14930.0 0.00058884
14950.0 0.00058469
14970.0 0.00058059
14990.0 0.00057679
15010.0 0.00057336
15030.0 0.00057017
15050.0 0.00056717
15070.0 0.00056451
15090.0 0.00056201
15110.0 0.00055957
15130.0 0.00055722
15150.0 0.00055496
15170.0 0.00055267
15190.0 0.00055037
15210.0 0.00054812
15230.0 0.00054589
15250.0 0.0005436
15270.0 0.00054133
15290.0 0.00053913
15310.0 0.00053688
15330.0 0.00053463
15350.0 0.00053242
15370.0 0.00053022
15390.0 0.00052794
15410.0 0.00052572
15430.0 0.00052353
15450.0 0.00052131
15470.0 0.00051907
15490.0 0.00051689
15510.0 0.00051471
15530.0 0.00051249
15550.0 0.0005103
15570.0 0.00050815
15590.0 0.00050595
15610.0 0.00050373
15630.0 0.00050159
15650.0 0.00049943
15670.0 0.00049724
15690.0 0.00049508
15710.0 0.00049297
15730.0 0.0004908
15750.0 0.00048864
15770.0 0.00048652
15790.0 0.0004844
15810.0 0.00048222
15830.0 0.0004801
15850.0 0.00047801
15870.0 0.00047588
15890.0 0.00047376
15910.0 0.00047169
15930.0 0.0004696
15950.0 0.00046747
15970.0 0.00046539
15990.0 0.00046333
16010.0 0.00046123
16030.0 0.00045913
16050.0 0.0004571
16070.0 0.00045505
16090.0 0.00045298
16110.0 0.00045094
16130.0 0.00044894
16150.0 0.00044686
16170.0 0.00044482
16190.0 0.00044282
16210.0 0.00044081
16230.0 0.00043877
16250.0 0.00043679
16270.0 0.00043482
16290.0 0.00043281
16310.0 0.00043082
16330.0 0.00042888
16350.0 0.00042691
16370.0 0.0004249
16390.0 0.00042297
16410.0 0.00042105
16430.0 0.00041909
16450.0 0.00041716
16470.0 0.00041527
16490.0 0.00041335
16510.0 0.00041141
16530.0 0.00040953
16550.0 0.00040766
16570.0 0.00040574
16590.0 0.00040385
16610.0 0.00040203
16630.0 0.00040016
16650.0 0.0003983
16670.0 0.00039648
16690.0 0.00039467
16710.0 0.0003928
16730.0 0.00039098
16750.0 0.0003892
16770.0 0.00038739
16790.0 0.00038557
16810.0 0.00038382
16830.0 0.00038206
16850.0 0.00038028
16870.0 0.00037853
16890.0 0.00037681
16910.0 0.00037506
16930.0 0.00037329
16950.0 0.0003716
16970.0 0.00036991
16990.0 0.00036818
17010.0 0.0003665
17030.0 0.00036485
17050.0 0.00036316
17070.0 0.00036148
17090.0 0.00035985
17110.0 0.00035822
17130.0 0.00035654
17150.0 0.00035492
17170.0 0.00035334
17190.0 0.00035172
17210.0 0.00035011
17230.0 0.00034856
17250.0 0.00034698
17270.0 0.00034538
17290.0 0.00034383
17310.0 0.0003423
17330.0 0.00034074
17350.0 0.00033919
17370.0 0.00033771
17390.0 0.0003362
17410.0 0.00033468
17430.0 0.0003332
17450.0 0.00033175
17470.0 0.00033023
17490.0 0.00032876
17510.0 0.00032733
17530.0 0.00032588
17550.0 0.00032442
17570.0 0.00032301
17590.0 0.00032162
17610.0 0.00032019
17630.0 0.00031878
17650.0 0.00031742
17670.0 0.00031604
17690.0 0.00031462
17710.0 0.00031328
17730.0 0.00031194
17750.0 0.00031058
17770.0 0.00030924
17790.0 0.00030795
17810.0 0.00030662
17830.0 0.00030528
17850.0 0.000304
17870.0 0.00030272
17890.0 0.00030141
17910.0 0.00030012
17930.0 0.00029889
17950.0 0.00029762
17970.0 0.00029635
17990.0 0.00029513
18010.0 0.00029392
18030.0 0.00029265
18050.0 0.00029143
18070.0 0.00029024
18090.0 0.00028903
18110.0 0.00028781
18130.0 0.00028665
18150.0 0.00028548
18170.0 0.00028429
18190.0 0.00028313
18210.0 0.000282
18230.0 0.00028083
18250.0 0.00027965
18270.0 0.00027854
18290.0 0.00027742
18310.0 0.00027628
18330.0 0.00027517
18350.0 0.00027409
18370.0 0.00027297
18390.0 0.00027186
18410.0 0.00027079
18430.0 0.00026972
18450.0 0.0002686
18470.0 0.00026754
18490.0 0.0002665
18510.0 0.00026543
18530.0 0.00026437
18550.0 0.00026335
18570.0 0.00026231
18590.0 0.00026124
18610.0 0.00026022
18630.0 0.00025922
18650.0 0.00025818
18670.0 0.00025715
18690.0 0.00025618
18710.0 0.00025518
18730.0 0.00025416
18750.0 0.00025318
18770.0 0.00025222
18790.0 0.00025119
18810.0 0.0002502
18830.0 0.00024926
18850.0 0.00024828
18870.0 0.00024729
18890.0 0.00024635
18910.0 0.00024542
18930.0 0.00024444
18950.0 0.00024349
18970.0 0.00024257
18990.0 0.00024162
19010.0 0.00024063
19030.0 0.00023973
19050.0 0.00023881
19070.0 0.00023786
19090.0 0.00023694
19110.0 0.00023606
19130.0 0.00023512
19150.0 0.00023418
19170.0 0.00023328
19190.0 0.00023238
19210.0 0.00023144
19230.0 0.00023053
19250.0 0.00022966
19270.0 0.00022875
19290.0 0.00022784
19310.0 0.00022697
19330.0 0.00022609
19350.0 0.00022515
19370.0 0.00022426
19390.0 0.00022339
19410.0 0.00022249
19430.0 0.00022158
19450.0 0.00022073
19470.0 0.00021986
19490.0 0.00021895
19510.0 0.00021807
19530.0 0.00021722
19550.0 0.00021631
19570.0 0.0002154
19590.0 0.00021455
19610.0 0.00021368
19630.0 0.00021278
19650.0 0.00021191
19670.0 0.00021107
19690.0 0.00021016
19710.0 0.00020927
19730.0 0.00020842
19750.0 0.00020754
19770.0 0.00020662
19790.0 0.00020575
19810.0 0.0002049
19830.0 0.00020401
19850.0 0.00020312
19870.0 0.00020228
19890.0 0.00020141
19910.0 0.00020054
19930.0 0.00019974
19950.0 0.000199
19970.0 0.0001983
19990.0 0.0001977
20010.0 0.00019725
20030.0 0.00019688
20050.0 0.00019663
20070.0 0.00019649
20090.0 0.00019644
20110.0 0.00019643
20130.0 0.00019649
20150.0 0.00019659
20170.0 0.0001967
20190.0 0.00019683
20210.0 0.00019697
20230.0 0.00019711
20250.0 0.00019725
20270.0 0.00019738
20290.0 0.00019751
20310.0 0.00019763
20330.0 0.00019772
20350.0 0.00019782
20370.0 0.00019789
20390.0 0.00019794
20410.0 0.00019798
20430.0 0.00019801
20450.0 0.00019801
20470.0 0.000198
20490.0 0.00019799
20510.0 0.00019798
20530.0 0.00019795
20550.0 0.00019793
20570.0 0.00019792
20590.0 0.00019791
20610.0 0.0001979
20630.0 0.00019792
20650.0 0.00019793
20670.0 0.00019793
20690.0 0.00019795
20710.0 0.00019797
20730.0 0.00019798
20750.0 0.00019796
20770.0 0.00019795
20790.0 0.0001979
20810.0 0.00019781
20830.0 0.0001977
20850.0 0.00019755
20870.0 0.00019735
20890.0 0.0001971
20910.0 0.00019683
20930.0 0.00019651
20950.0 0.00019614
20970.0 0.00019575
20990.0 0.00019534
21010.0 0.00019487
21030.0 0.00019438
21050.0 0.0001939
21070.0 0.0001934
21090.0 0.00019286
21110.0 0.00019236
21130.0 0.00019185
21150.0 0.00019132
21170.0 0.0001908
21190.0 0.0001903
21210.0 0.00018976
21230.0 0.0001892
21250.0 0.00018867
21270.0 0.00018811
21290.0 0.00018752
21310.0 0.00018691
21330.0 0.0001863
21350.0 0.00018565
21370.0 0.00018495
21390.0 0.00018424
21410.0 0.00018351
21430.0 0.00018269
21450.0 0.00018186
21470.0 0.00018103
21490.0 0.00018014
21510.0 0.00017921
21530.0 0.00017829
21550.0 0.00017734
21570.0 0.00017632
21590.0 0.0001753
21610.0 0.00017429
21630.0 0.00017323
21650.0 0.00017212
21670.0 0.00017107
21690.0 0.00016998
21710.0 0.00016886
21730.0 0.00016774
21750.0 0.00016665
21770.0 0.00016548
21790.0 0.00016431
21810.0 0.00016316
21830.0 0.00016199
21850.0 0.00016077
21870.0 0.00015957
21890.0 0.00015839
21910.0 0.00015715
21930.0 0.00015591
21950.0 0.0001547
21970.0 0.00015347
21990.0 0.00015218
22010.0 0.00015096
22030.0 0.00014975
22050.0 0.00014853
22070.0 0.00014732
22090.0 0.00014617
22110.0 0.00014503
22130.0 0.00014388
22150.0 0.0001428
22170.0 0.00014175
22190.0 0.00014069
22210.0 0.00013967
22230.0 0.00013872
22250.0 0.00013777
22270.0 0.00013683
22290.0 0.00013593
22310.0 0.00013505
22330.0 0.00013415
22350.0 0.00013327
22370.0 0.00013241
22390.0 0.00013154
22410.0 0.00013065
22430.0 0.00012978
22450.0 0.0001289
22470.0 0.00012799
22490.0 0.00012707
22510.0 0.00012616
22530.0 0.00012522
22550.0 0.00012425
22570.0 0.00012329
22590.0 0.00012232
22610.0 0.00012132
22630.0 0.00012032
22650.0 0.00011932
22670.0 0.00011831
22690.0 0.00011728
22710.0 0.00011627
22730.0 0.00011526
22750.0 0.00011423
22770.0 0.00011321
22790.0 0.0001122
22810.0 0.00011119
22830.0 0.00011018
22850.0 0.00010918
22870.0 0.00010817
22890.0 0.00010716
22910.0 0.00010616
22930.0 0.00010515
22950.0 0.00010414
22970.0 0.00010311
22990.0 0.00010208
23010.0 0.00010103
23030.0 9.9968e-05
23050.0 9.8889e-05
23070.0 9.7795e-05
23090.0 9.6679e-05
23110.0 9.5547e-05
23130.0 9.4399e-05
23150.0 9.3234e-05
23170.0 9.2053e-05
23190.0 9.0858e-05
23210.0 8.965e-05
23230.0 8.8429e-05
23250.0 8.7198e-05
23270.0 8.5952e-05
23290.0 8.4695e-05
23310.0 8.343e-05
23330.0 8.2143e-05
23350.0 8.0834e-05
23370.0 7.9508e-05
23390.0 7.8155e-05
23410.0 7.6762e-05
23430.0 7.5338e-05
23450.0 7.3879e-05
23470.0 7.2367e-05
23490.0 7.0804e-05
23510.0 6.9195e-05
