#lamb flux
1010.0 4.1111e-08
1030.0 4.5469e-08
1050.0 5.0482e-08
1070.0 5.6124e-08
1090.0 6.2534e-08
1110.0 6.9107e-08
1130.0 7.5724e-08
1150.0 8.2654e-08
1170.0 8.9803e-08
1190.0 9.6582e-08
1210.0 1.0345e-07
1230.0 1.1055e-07
1250.0 1.1751e-07
1270.0 1.2426e-07
1290.0 1.314e-07
1310.0 1.3854e-07
1330.0 1.4538e-07
1350.0 1.5229e-07
1370.0 1.5944e-07
1390.0 1.664e-07
1410.0 1.7316e-07
1430.0 1.8022e-07
1450.0 1.8728e-07
1470.0 1.9411e-07
1490.0 2.0101e-07
1510.0 2.083e-07
1530.0 2.1521e-07
1550.0 2.2203e-07
1570.0 2.2908e-07
1590.0 2.3614e-07
1610.0 2.4289e-07
1630.0 2.4985e-07
1650.0 2.57e-07
1670.0 2.6391e-07
1690.0 2.7074e-07
1710.0 2.7785e-07
1730.0 2.8499e-07
1750.0 2.9172e-07
1770.0 2.9865e-07
1790.0 3.0573e-07
1810.0 3.1259e-07
1830.0 3.1934e-07
1850.0 3.2651e-07
1870.0 3.3352e-07
1890.0 3.4029e-07
1910.0 3.4722e-07
1930.0 3.5433e-07
1950.0 3.6113e-07
1970.0 3.6786e-07
1990.0 3.7487e-07
2010.0 3.8177e-07
2030.0 3.8844e-07
2050.0 3.9533e-07
2070.0 4.0241e-07
2090.0 4.0911e-07
2110.0 4.158e-07
2130.0 4.227e-07
2150.0 4.2949e-07
2170.0 4.36e-07
2190.0 4.4276e-07
2210.0 4.4958e-07
2230.0 4.5613e-07
2250.0 4.6266e-07
2270.0 4.695e-07
2290.0 4.7613e-07
2310.0 4.8251e-07
2330.0 4.8914e-07
2350.0 4.9595e-07
2370.0 5.0274e-07
2390.0 5.1008e-07
2410.0 5.1879e-07
2430.0 5.288e-07
2450.0 5.4076e-07
2470.0 5.561e-07
2490.0 5.7542e-07
2510.0 5.9739e-07
2530.0 6.2383e-07
2550.0 6.5693e-07
2570.0 6.9811e-07
2590.0 7.5167e-07
2610.0 8.3185e-07
2630.0 9.4634e-07
2650.0 1.096e-06
2670.0 1.2896e-06
2690.0 1.5274e-06
2710.0 1.7813e-06
2730.0 2.0322e-06
2750.0 2.2793e-06
2770.0 2.4942e-06
2790.0 2.6649e-06
2810.0 2.8004e-06
2830.0 2.9062e-06
2850.0 2.9784e-06
2870.0 3.0315e-06
2890.0 3.0734e-06
2910.0 3.1069e-06
2930.0 3.1343e-06
2950.0 3.1604e-06
2970.0 3.186e-06
2990.0 3.21e-06
3010.0 9.0731e-05
3030.0 9.1409e-05
3050.0 9.2065e-05
3070.0 9.2626e-05
3090.0 9.3109e-05
3110.0 9.3409e-05
3130.0 9.3397e-05
3150.0 9.2982e-05
3170.0 9.1986e-05
3190.0 9.0422e-05
3210.0 8.8439e-05
3230.0 8.6169e-05
3250.0 8.3928e-05
3270.0 8.229e-05
3290.0 8.1381e-05
3310.0 8.1528e-05
3330.0 8.2708e-05
3350.0 8.4763e-05
3370.0 8.7697e-05
3390.0 9.1394e-05
3410.0 9.5418e-05
3430.0 9.9936e-05
3450.0 0.00010514
3470.0 0.00011082
3490.0 0.00011683
3510.0 0.00012364
3530.0 0.00013092
3550.0 0.0001383
3570.0 0.00014599
3590.0 0.00015436
3610.0 0.00016298
3630.0 0.00017158
3650.0 0.00018049
3670.0 0.00018863
3690.0 0.00019472
3710.0 0.00019821
3730.0 0.00019832
3750.0 0.00019556
3770.0 0.00019448
3790.0 0.00019332
3810.0 0.00018857
3830.0 0.00019441
3850.0 0.00021737
3870.0 0.00022998
3890.0 0.00022893
3910.0 0.0002299
3930.0 0.00023596
3950.0 0.00023968
3970.0 0.00021837
3990.0 0.0001879
4010.0 0.00056316
4030.0 0.00068235
4050.0 0.00078227
4070.0 0.00067875
4090.0 0.00061474
4110.0 0.00054245
4130.0 0.00049927
4150.0 0.00053107
4170.0 0.00052313
4190.0 0.00055762
4210.0 0.00055252
4230.0 0.00058442
4250.0 0.00069138
4270.0 0.00069951
4290.0 0.00064459
4310.0 0.00066977
4330.0 0.00071244
4350.0 0.00079882
4370.0 0.00090907
4390.0 0.00085306
4410.0 0.00063027
4430.0 0.00053356
4450.0 0.00049028
4470.0 0.00037631
4490.0 0.00040608
4510.0 0.0006134
4530.0 0.00070743
4550.0 0.00071357
4570.0 0.00080295
4590.0 0.00091463
4610.0 0.0012336
4630.0 0.0016022
4650.0 0.0017376
4670.0 0.0016092
4690.0 0.0015354
4710.0 0.0016231
4730.0 0.0015317
4750.0 0.0011451
4770.0 0.00084001
4790.0 0.0007844
4810.0 0.00074766
4830.0 0.00068448
4850.0 0.00075109
4870.0 0.00099227
4890.0 0.0011702
4910.0 0.0010267
4930.0 0.00090846
4950.0 0.00099808
4970.0 0.00128
4990.0 0.0017347
5010.0 0.0019955
5030.0 0.0017596
5050.0 0.0011905
5070.0 0.00078457
5090.0 0.00063263
5110.0 0.00065061
5130.0 0.0007509
5150.0 0.00081354
5170.0 0.00080134
5190.0 0.0007488
5210.0 0.00078266
5230.0 0.00082276
5250.0 0.00088671
5270.0 0.00095669
5290.0 0.0010602
5310.0 0.0012341
5330.0 0.0013657
5350.0 0.0013569
5370.0 0.0014253
5390.0 0.0016356
5410.0 0.0016342
5430.0 0.0014452
5450.0 0.0013278
5470.0 0.0014099
5490.0 0.0017225
5510.0 0.0021537
5530.0 0.0024702
5550.0 0.0023875
5570.0 0.0021704
5590.0 0.0018872
5610.0 0.0017404
5630.0 0.0016877
5650.0 0.0016074
5670.0 0.0015231
5690.0 0.0013617
5710.0 0.0013276
5730.0 0.001223
5750.0 0.00086226
5770.0 0.00067271
5790.0 0.00076232
5810.0 0.0008608
5830.0 0.0010563
5850.0 0.0012574
5870.0 0.0013951
5890.0 0.0014188
5910.0 0.0013919
5930.0 0.001325
5950.0 0.0013501
5970.0 0.001539
5990.0 0.0014471
6010.0 0.0012131
6030.0 0.0010249
6050.0 0.00089253
6070.0 0.00088765
6090.0 0.00096251
6110.0 0.0010762
6130.0 0.0010927
6150.0 0.00094019
6170.0 0.00082708
6190.0 0.00093076
6210.0 0.0012304
6230.0 0.0016147
6250.0 0.0017489
6270.0 0.0015283
6290.0 0.0012859
6310.0 0.0010038
6330.0 0.00076914
6350.0 0.00068605
6370.0 0.00072146
6390.0 0.00083405
6410.0 0.0010284
6430.0 0.0012009
6450.0 0.0013741
6470.0 0.0015734
6490.0 0.0019006
6510.0 0.0021251
6530.0 0.0020849
6550.0 0.0018853
6570.0 0.0016004
6590.0 0.0014432
6610.0 0.0012444
6630.0 0.0011274
6650.0 0.0010657
6670.0 0.0010353
6690.0 0.00093543
6710.0 0.00085032
6730.0 0.00061247
6750.0 0.0006072
6770.0 0.00065999
6790.0 0.00075861
6810.0 0.00069414
6830.0 0.00071477
6850.0 0.00066854
6870.0 0.00061071
6890.0 0.00058637
6910.0 0.00062486
6930.0 0.00058527
6950.0 0.00060214
6970.0 0.00063334
6990.0 0.0007189
7010.0 0.00072502
7030.0 0.00073654
7050.0 0.00070241
7070.0 0.00066927
7090.0 0.00067123
7110.0 0.00069064
7130.0 0.00074324
7150.0 0.00078938
7170.0 0.00087102
7190.0 0.0009575
7210.0 0.00094087
7230.0 0.00096723
7250.0 0.0010394
7270.0 0.0011327
7290.0 0.0013444
7310.0 0.0014589
7330.0 0.0014101
7350.0 0.0012754
7370.0 0.0011097
7390.0 0.0010765
7410.0 0.001144
7430.0 0.0012714
7450.0 0.0013848
7470.0 0.0013721
7490.0 0.0012511
7510.0 0.0014172
7530.0 0.0014017
7550.0 0.0012598
7570.0 0.00098416
7590.0 0.00067658
7610.0 0.00058071
7630.0 0.00065979
7650.0 0.00078011
7670.0 0.00097091
7690.0 0.0010684
7710.0 0.0011134
7730.0 0.0011701
7750.0 0.0013135
7770.0 0.0013342
7790.0 0.0012255
7810.0 0.0011182
7830.0 0.0011531
7850.0 0.0011209
7870.0 0.0010277
7890.0 0.00086347
7910.0 0.00070188
7930.0 0.00067019
7950.0 0.00061056
7970.0 0.00056518
7990.0 0.00056196
8010.0 4.162e-05
8030.0 4.1079e-05
8050.0 4.0525e-05
8070.0 4.1056e-05
8090.0 4.4113e-05
8110.0 4.3362e-05
8130.0 3.5768e-05
8150.0 3.4834e-05
8170.0 3.0004e-05
8190.0 2.8436e-05
8210.0 3.6926e-05
8230.0 4.1113e-05
8250.0 3.7054e-05
8270.0 3.2251e-05
8290.0 3.1439e-05
8310.0 2.4196e-05
8330.0 1.6308e-05
8350.0 1.1574e-05
8370.0 7.292e-06
8390.0 1.333e-05
8410.0 1.5533e-05
8430.0 1.9146e-05
8450.0 2.2483e-05
8470.0 2.7945e-05
8490.0 2.7748e-05
8510.0 2.7294e-05
8530.0 2.8485e-05
8550.0 3.8432e-05
8570.0 4.5498e-05
8590.0 4.9092e-05
8610.0 6.2014e-05
8630.0 7.4705e-05
8650.0 7.8149e-05
8670.0 8.3049e-05
8690.0 8.3514e-05
8710.0 7.5634e-05
8730.0 7.0351e-05
8750.0 6.2098e-05
8770.0 5.8922e-05
8790.0 5.7887e-05
8810.0 5.5469e-05
8830.0 4.4356e-05
8850.0 3.2472e-05
8870.0 2.4863e-05
8890.0 2.4308e-05
8910.0 2.7857e-05
8930.0 3.1685e-05
8950.0 3.2292e-05
8970.0 3.2445e-05
8990.0 2.8937e-05
9010.0 0.00030324
9030.0 0.00027478
9050.0 0.0002761
9070.0 0.00027828
9090.0 0.00028019
9110.0 0.00028255
9130.0 0.00028437
9150.0 0.00028579
9170.0 0.0002873
9190.0 0.00028891
9210.0 0.00029061
9230.0 0.0002924
9250.0 0.00029422
9270.0 0.00029611
9290.0 0.00029805
9310.0 0.00030001
9330.0 0.000302
9350.0 0.00030407
9370.0 0.00030617
9390.0 0.00030828
9410.0 0.00031046
9430.0 0.0003127
9450.0 0.00031493
9470.0 0.00031721
9490.0 0.00031956
9510.0 0.00032193
9530.0 0.00032432
9550.0 0.00032679
9570.0 0.0003293
9590.0 0.00033181
9610.0 0.00033437
9630.0 0.000337
9650.0 0.00033966
9670.0 0.00034231
9690.0 0.00034504
9710.0 0.00034781
9730.0 0.00035059
9750.0 0.00035341
9770.0 0.00035631
9790.0 0.0003592
9810.0 0.00036212
9830.0 0.00036509
9850.0 0.0003681
9870.0 0.0003711
9890.0 0.00037415
9910.0 0.00037725
9930.0 0.00038036
9950.0 0.00038348
9970.0 0.00038666
9990.0 0.00038988
10010.0 0.00033831
10030.0 0.00034109
10050.0 0.00034392
10070.0 0.00034685
10090.0 0.00034961
10110.0 0.00035244
10130.0 0.00035529
10150.0 0.00035812
10170.0 0.00036099
10190.0 0.0003639
10210.0 0.00036679
10230.0 0.00036966
10250.0 0.00037258
10270.0 0.0003755
10290.0 0.00037838
10310.0 0.0003813
10330.0 0.00038425
10350.0 0.00038715
10370.0 0.00039003
10390.0 0.00039296
10410.0 0.00039586
10430.0 0.00039871
10450.0 0.00040159
10470.0 0.00040448
10490.0 0.00040732
10510.0 0.00041013
10530.0 0.000413
10550.0 0.00041582
10570.0 0.00041857
10590.0 0.00042135
10610.0 0.00042412
10630.0 0.00042682
10650.0 0.0004295
10670.0 0.00043221
10690.0 0.00043486
10710.0 0.00043746
10730.0 0.00044006
10750.0 0.00044267
10770.0 0.00044517
10790.0 0.00044766
10810.0 0.00045013
10830.0 0.00045253
10850.0 0.00045482
10870.0 0.00045702
10890.0 0.00045897
10910.0 0.00046046
10930.0 0.00046131
10950.0 0.00046111
10970.0 0.00045955
10990.0 0.00045648
11010.0 0.00045136
11030.0 0.00044418
11050.0 0.00043543
11070.0 0.00042496
11090.0 0.00041239
11110.0 0.00039938
11130.0 0.00038582
11150.0 0.00037121
11170.0 0.00035615
11190.0 0.00034155
11210.0 0.00032647
11230.0 0.000311
11250.0 0.00029622
11270.0 0.00028203
11290.0 0.00026781
11310.0 0.00025435
11330.0 0.00024248
11350.0 0.00023128
11370.0 0.00022092
11390.0 0.00021196
11410.0 0.00020413
11430.0 0.00019685
11450.0 0.00019057
11470.0 0.00018515
11490.0 0.0001801
11510.0 0.00017523
11530.0 0.00017072
11550.0 0.00016624
11570.0 0.00016145
11590.0 0.0001565
11610.0 0.00015145
11630.0 0.00014597
11650.0 0.00014009
11670.0 0.0001343
11690.0 0.00012843
11710.0 0.00012237
11730.0 0.0001165
11750.0 0.00011107
11770.0 0.00010574
11790.0 0.00010074
11810.0 9.6348e-05
11830.0 9.2417e-05
11850.0 8.8796e-05
11870.0 8.5767e-05
11890.0 8.3249e-05
11910.0 8.1037e-05
11930.0 7.9135e-05
11950.0 7.7551e-05
11970.0 7.6136e-05
11990.0 7.4799e-05
12010.0 7.3562e-05
12030.0 7.2369e-05
12050.0 7.1137e-05
12070.0 6.9855e-05
12090.0 6.8619e-05
12110.0 6.7364e-05
12130.0 6.6107e-05
12150.0 6.4948e-05
12170.0 6.3936e-05
12190.0 6.3061e-05
12210.0 6.245e-05
12230.0 6.2155e-05
12250.0 6.2203e-05
12270.0 6.2672e-05
12290.0 6.3558e-05
12310.0 6.483e-05
12330.0 6.661e-05
12350.0 6.883e-05
12370.0 7.1359e-05
12390.0 7.4274e-05
12410.0 7.769e-05
12430.0 8.1162e-05
12450.0 8.4757e-05
12470.0 8.858e-05
12490.0 9.242e-05
12510.0 9.6022e-05
12530.0 9.9605e-05
12550.0 0.00010306
12570.0 0.00010611
12590.0 0.00010879
12610.0 0.00011118
12630.0 0.00011308
12650.0 0.0001144
12670.0 0.00011526
12690.0 0.00011561
12710.0 0.00011542
12730.0 0.00011475
12750.0 0.00011355
12770.0 0.00011191
12790.0 0.00010993
12810.0 0.00010756
12830.0 0.00010481
12850.0 0.00010194
12870.0 9.8908e-05
12890.0 9.5624e-05
12910.0 9.2286e-05
12930.0 8.8997e-05
12950.0 8.5564e-05
12970.0 8.207e-05
12990.0 7.8764e-05
13010.0 7.5499e-05
13030.0 7.2198e-05
13050.0 6.9027e-05
13070.0 6.6057e-05
13090.0 6.3076e-05
13110.0 6.0193e-05
13130.0 5.7534e-05
13150.0 5.5016e-05
13170.0 5.2551e-05
13190.0 5.0357e-05
13210.0 4.8427e-05
13230.0 4.6662e-05
13250.0 4.5142e-05
13270.0 4.3943e-05
13290.0 4.3011e-05
13310.0 4.2368e-05
13330.0 4.2076e-05
13350.0 4.211e-05
13370.0 4.2488e-05
13390.0 4.323e-05
13410.0 4.4232e-05
13430.0 4.5536e-05
13450.0 4.7146e-05
13470.0 4.8933e-05
13490.0 5.0826e-05
13510.0 5.2961e-05
13530.0 5.5125e-05
13550.0 5.7197e-05
13570.0 5.924e-05
13590.0 6.1231e-05
13610.0 6.3002e-05
13630.0 6.4548e-05
13650.0 6.5959e-05
13670.0 6.7131e-05
13690.0 6.8037e-05
13710.0 6.8738e-05
13730.0 6.9239e-05
13750.0 6.9489e-05
13770.0 6.9546e-05
13790.0 6.942e-05
13810.0 6.9113e-05
13830.0 6.866e-05
13850.0 6.8047e-05
13870.0 6.7273e-05
13890.0 6.6388e-05
13910.0 6.5391e-05
13930.0 6.4237e-05
13950.0 6.2977e-05
13970.0 6.1688e-05
13990.0 6.0285e-05
14010.0 5.8793e-05
14030.0 5.7304e-05
14050.0 5.5804e-05
14070.0 5.4221e-05
14090.0 5.2703e-05
14110.0 5.1277e-05
14130.0 4.9895e-05
14150.0 4.8594e-05
14170.0 4.7483e-05
14190.0 4.6523e-05
14210.0 4.5709e-05
14230.0 4.5105e-05
14250.0 4.4716e-05
14270.0 4.4527e-05
14290.0 4.4567e-05
14310.0 4.4815e-05
14330.0 4.5261e-05
14350.0 4.5918e-05
14370.0 4.6735e-05
14390.0 4.7664e-05
14410.0 4.8758e-05
14430.0 4.996e-05
14450.0 5.1186e-05
14470.0 5.2459e-05
14490.0 5.3813e-05
14510.0 5.5107e-05
14530.0 5.6337e-05
14550.0 5.7565e-05
14570.0 5.8745e-05
14590.0 5.9819e-05
14610.0 6.0858e-05
14630.0 6.1885e-05
14650.0 6.2843e-05
14670.0 6.3767e-05
14690.0 6.4731e-05
14710.0 6.5745e-05
14730.0 6.6758e-05
14750.0 6.7881e-05
14770.0 6.9155e-05
14790.0 7.0535e-05
14810.0 7.2031e-05
14830.0 7.3804e-05
14850.0 7.573e-05
14870.0 7.774e-05
14890.0 7.9909e-05
14910.0 8.2212e-05
14930.0 8.4427e-05
14950.0 8.6496e-05
14970.0 8.8455e-05
14990.0 9.0098e-05
15010.0 9.1354e-05
15030.0 9.2284e-05
15050.0 9.29e-05
15070.0 9.32e-05
15090.0 9.3306e-05
15110.0 9.3275e-05
15130.0 9.3158e-05
15150.0 9.3e-05
15170.0 9.2814e-05
15190.0 9.2614e-05
15210.0 9.2417e-05
15230.0 9.2221e-05
15250.0 9.2017e-05
15270.0 9.1816e-05
15290.0 9.1625e-05
15310.0 9.1429e-05
15330.0 9.1232e-05
15350.0 9.1041e-05
15370.0 9.0853e-05
15390.0 9.0654e-05
15410.0 9.0463e-05
15430.0 9.0277e-05
15450.0 9.0087e-05
15470.0 8.9894e-05
15490.0 8.9711e-05
15510.0 8.9528e-05
15530.0 8.9339e-05
15550.0 8.9154e-05
15570.0 8.8976e-05
15590.0 8.8789e-05
15610.0 8.86e-05
15630.0 8.8423e-05
15650.0 8.8243e-05
15670.0 8.8058e-05
15690.0 8.7878e-05
15710.0 8.7705e-05
15730.0 8.7523e-05
15750.0 8.7341e-05
15770.0 8.7167e-05
15790.0 8.6991e-05
15810.0 8.6806e-05
15830.0 8.663e-05
15850.0 8.6459e-05
15870.0 8.6281e-05
15890.0 8.6102e-05
15910.0 8.5932e-05
15930.0 8.5758e-05
15950.0 8.5577e-05
15970.0 8.5404e-05
15990.0 8.5233e-05
16010.0 8.5056e-05
16030.0 8.4876e-05
16050.0 8.4709e-05
16070.0 8.4536e-05
16090.0 8.4359e-05
16110.0 8.4187e-05
16130.0 8.4019e-05
16150.0 8.3839e-05
16170.0 8.3663e-05
16190.0 8.3494e-05
16210.0 8.3321e-05
16230.0 8.3143e-05
16250.0 8.2972e-05
16270.0 8.2804e-05
16290.0 8.2626e-05
16310.0 8.2451e-05
16330.0 8.2282e-05
16350.0 8.2109e-05
16370.0 8.1926e-05
16390.0 8.1756e-05
16410.0 8.1585e-05
16430.0 8.1407e-05
16450.0 8.1232e-05
16470.0 8.1064e-05
16490.0 8.0887e-05
16510.0 8.0707e-05
16530.0 8.0534e-05
16550.0 8.0361e-05
16570.0 8.018e-05
16590.0 8.0001e-05
16610.0 7.9831e-05
16630.0 7.9653e-05
16650.0 7.9473e-05
16670.0 7.9299e-05
16690.0 7.9125e-05
16710.0 7.8939e-05
16730.0 7.876e-05
16750.0 7.8586e-05
16770.0 7.8405e-05
16790.0 7.822e-05
16810.0 7.8045e-05
16830.0 7.7867e-05
16850.0 7.7683e-05
16870.0 7.7502e-05
16890.0 7.7325e-05
16910.0 7.714e-05
16930.0 7.6951e-05
16950.0 7.6773e-05
16970.0 7.6591e-05
16990.0 7.6403e-05
17010.0 7.6219e-05
17030.0 7.6041e-05
17050.0 7.5852e-05
17070.0 7.5664e-05
17090.0 7.5481e-05
17110.0 7.5296e-05
17130.0 7.5101e-05
17150.0 7.4915e-05
17170.0 7.4732e-05
17190.0 7.4541e-05
17210.0 7.435e-05
17230.0 7.4166e-05
17250.0 7.3977e-05
17270.0 7.378e-05
17290.0 7.359e-05
17310.0 7.3403e-05
17330.0 7.3207e-05
17350.0 7.301e-05
17370.0 7.2824e-05
17390.0 7.2632e-05
17410.0 7.2434e-05
17430.0 7.2242e-05
17450.0 7.2052e-05
17470.0 7.185e-05
17490.0 7.1651e-05
17510.0 7.146e-05
17530.0 7.1263e-05
17550.0 7.1061e-05
17570.0 7.0866e-05
17590.0 7.0673e-05
17610.0 7.047e-05
17630.0 7.027e-05
17650.0 7.0075e-05
17670.0 6.9875e-05
17690.0 6.9665e-05
17710.0 6.9469e-05
17730.0 6.9271e-05
17750.0 6.9066e-05
17770.0 6.8863e-05
17790.0 6.8667e-05
17810.0 6.8461e-05
17830.0 6.8253e-05
17850.0 6.8052e-05
17870.0 6.7851e-05
17890.0 6.764e-05
17910.0 6.7433e-05
17930.0 6.7234e-05
17950.0 6.7027e-05
17970.0 6.6818e-05
17990.0 6.6615e-05
18010.0 6.6412e-05
18030.0 6.6197e-05
18050.0 6.5989e-05
18070.0 6.5785e-05
18090.0 6.5575e-05
18110.0 6.5361e-05
18130.0 6.5158e-05
18150.0 6.4951e-05
18170.0 6.4737e-05
18190.0 6.4527e-05
18210.0 6.4322e-05
18230.0 6.4107e-05
18250.0 6.3891e-05
18270.0 6.3684e-05
18290.0 6.3475e-05
18310.0 6.3259e-05
18330.0 6.3048e-05
18350.0 6.2842e-05
18370.0 6.2625e-05
18390.0 6.241e-05
18410.0 6.2201e-05
18430.0 6.1988e-05
18450.0 6.1767e-05
18470.0 6.1555e-05
18490.0 6.1346e-05
18510.0 6.113e-05
18530.0 6.0913e-05
18550.0 6.0705e-05
18570.0 6.049e-05
18590.0 6.0269e-05
18610.0 6.0056e-05
18630.0 5.9844e-05
18650.0 5.9625e-05
18670.0 5.9405e-05
18690.0 5.9196e-05
18710.0 5.8981e-05
18730.0 5.8761e-05
18750.0 5.8548e-05
18770.0 5.8337e-05
18790.0 5.8113e-05
18810.0 5.7894e-05
18830.0 5.7683e-05
18850.0 5.7466e-05
18870.0 5.7244e-05
18890.0 5.7031e-05
18910.0 5.6819e-05
18930.0 5.6597e-05
18950.0 5.6379e-05
18970.0 5.6167e-05
18990.0 5.5949e-05
19010.0 5.5723e-05
19030.0 5.5511e-05
19050.0 5.5297e-05
19070.0 5.5076e-05
19090.0 5.4859e-05
19110.0 5.4649e-05
19130.0 5.4428e-05
19150.0 5.4206e-05
19170.0 5.3992e-05
19190.0 5.3777e-05
19210.0 5.3554e-05
19230.0 5.3335e-05
19250.0 5.3124e-05
19270.0 5.2906e-05
19290.0 5.2686e-05
19310.0 5.2473e-05
19330.0 5.2259e-05
19350.0 5.2033e-05
19370.0 5.1817e-05
19390.0 5.1604e-05
19410.0 5.1385e-05
19430.0 5.1164e-05
19450.0 5.0952e-05
19470.0 5.0738e-05
19490.0 5.0516e-05
19510.0 5.0301e-05
19530.0 5.0089e-05
19550.0 4.9868e-05
19570.0 4.9646e-05
19590.0 4.9435e-05
19610.0 4.922e-05
19630.0 4.9e-05
19650.0 4.8785e-05
19670.0 4.8575e-05
19690.0 4.8355e-05
19710.0 4.8137e-05
19730.0 4.7925e-05
19750.0 4.771e-05
19770.0 4.7487e-05
19790.0 4.7274e-05
19810.0 4.7063e-05
19830.0 4.6844e-05
19850.0 4.6624e-05
19870.0 4.6408e-05
19890.0 4.6176e-05
19910.0 4.5922e-05
19930.0 4.5649e-05
19950.0 4.5338e-05
19970.0 4.4954e-05
19990.0 4.4492e-05
20010.0 3.9584e-05
20030.0 3.9011e-05
20050.0 3.8341e-05
20070.0 3.7614e-05
20090.0 3.6833e-05
20110.0 3.5949e-05
20130.0 3.5054e-05
20150.0 3.4167e-05
20170.0 3.3247e-05
20190.0 3.2315e-05
20210.0 3.1434e-05
20230.0 3.0575e-05
20250.0 2.9714e-05
20270.0 2.8914e-05
20290.0 2.8185e-05
20310.0 2.7491e-05
20330.0 2.6844e-05
20350.0 2.6306e-05
20370.0 2.5828e-05
20390.0 2.541e-05
20410.0 2.5072e-05
20430.0 2.4811e-05
20450.0 2.4604e-05
20470.0 2.4466e-05
20490.0 2.4392e-05
20510.0 2.437e-05
20530.0 2.44e-05
20550.0 2.4476e-05
20570.0 2.4585e-05
20590.0 2.4734e-05
20610.0 2.4913e-05
20630.0 2.5111e-05
20650.0 2.5333e-05
20670.0 2.5586e-05
20690.0 2.5844e-05
20710.0 2.6111e-05
20730.0 2.6398e-05
20750.0 2.6699e-05
20770.0 2.6994e-05
20790.0 2.7304e-05
20810.0 2.7633e-05
20830.0 2.7959e-05
20850.0 2.8287e-05
20870.0 2.8638e-05
20890.0 2.8996e-05
20910.0 2.9342e-05
20930.0 2.97e-05
20950.0 3.0072e-05
20970.0 3.0434e-05
20990.0 3.0791e-05
21010.0 3.1167e-05
21030.0 3.1534e-05
21050.0 3.1884e-05
21070.0 3.2234e-05
21090.0 3.2585e-05
21110.0 3.2906e-05
21130.0 3.3206e-05
21150.0 3.3498e-05
21170.0 3.3761e-05
21190.0 3.3988e-05
21210.0 3.4193e-05
21230.0 3.4362e-05
21250.0 3.4483e-05
21270.0 3.456e-05
21290.0 3.4589e-05
21310.0 3.4561e-05
21330.0 3.448e-05
21350.0 3.4337e-05
21370.0 3.4126e-05
21390.0 3.3859e-05
21410.0 3.3532e-05
21430.0 3.3117e-05
21450.0 3.2652e-05
21470.0 3.2146e-05
21490.0 3.1573e-05
21510.0 3.0944e-05
21530.0 3.0306e-05
21550.0 2.9637e-05
21570.0 2.8923e-05
21590.0 2.8221e-05
21610.0 2.7543e-05
21630.0 2.6865e-05
21650.0 2.6201e-05
21670.0 2.5627e-05
21690.0 2.5097e-05
21710.0 2.4619e-05
21730.0 2.4228e-05
21750.0 2.3926e-05
21770.0 2.3697e-05
21790.0 2.3564e-05
21810.0 2.3528e-05
21830.0 2.358e-05
21850.0 2.3727e-05
21870.0 2.3957e-05
21890.0 2.4254e-05
21910.0 2.4635e-05
21930.0 2.5082e-05
21950.0 2.5566e-05
21970.0 2.6102e-05
21990.0 2.6703e-05
22010.0 2.7305e-05
22030.0 2.7915e-05
22050.0 2.8557e-05
22070.0 2.9202e-05
22090.0 2.9812e-05
22110.0 3.0428e-05
22130.0 3.1043e-05
22150.0 3.1617e-05
22170.0 3.2158e-05
22190.0 3.2694e-05
22210.0 3.3193e-05
22230.0 3.3633e-05
22250.0 3.4046e-05
22270.0 3.4427e-05
22290.0 3.4752e-05
22310.0 3.5032e-05
22330.0 3.5278e-05
22350.0 3.5468e-05
22370.0 3.5602e-05
22390.0 3.5686e-05
22410.0 3.5713e-05
22430.0 3.5678e-05
22450.0 3.5587e-05
22470.0 3.5428e-05
22490.0 3.5204e-05
22510.0 3.4927e-05
22530.0 3.4571e-05
22550.0 3.4138e-05
22570.0 3.3658e-05
22590.0 3.3117e-05
22610.0 3.2494e-05
22630.0 3.182e-05
22650.0 3.1123e-05
22670.0 3.0353e-05
22690.0 2.953e-05
22710.0 2.87e-05
22730.0 2.7845e-05
