#lamb flux
1010.0 6.0603e-07
1030.0 6.6313e-07
1050.0 7.2881e-07
1070.0 8.0274e-07
1090.0 8.8671e-07
1110.0 9.7284e-07
1130.0 1.0595e-06
1150.0 1.1503e-06
1170.0 1.244e-06
1190.0 1.3328e-06
1210.0 1.4228e-06
1230.0 1.5158e-06
1250.0 1.607e-06
1270.0 1.6955e-06
1290.0 1.789e-06
1310.0 1.8824e-06
1330.0 1.972e-06
1350.0 2.0627e-06
1370.0 2.1562e-06
1390.0 2.2474e-06
1410.0 2.3359e-06
1430.0 2.4284e-06
1450.0 2.5209e-06
1470.0 2.6103e-06
1490.0 2.7006e-06
1510.0 2.796e-06
1530.0 2.8864e-06
1550.0 2.9755e-06
1570.0 3.0677e-06
1590.0 3.16e-06
1610.0 3.2481e-06
1630.0 3.339e-06
1650.0 3.4322e-06
1670.0 3.5222e-06
1690.0 3.6111e-06
1710.0 3.7034e-06
1730.0 3.7961e-06
1750.0 3.8831e-06
1770.0 3.9726e-06
1790.0 4.0639e-06
1810.0 4.152e-06
1830.0 4.2384e-06
1850.0 4.3299e-06
1870.0 4.4188e-06
1890.0 4.5044e-06
1910.0 4.5914e-06
1930.0 4.6802e-06
1950.0 4.7644e-06
1970.0 4.8471e-06
1990.0 4.9325e-06
2010.0 5.0157e-06
2030.0 5.0951e-06
2050.0 5.1764e-06
2070.0 5.2589e-06
2090.0 5.3354e-06
2110.0 5.4105e-06
2130.0 5.487e-06
2150.0 5.5606e-06
2170.0 5.629e-06
2190.0 5.6991e-06
2210.0 5.7682e-06
2230.0 5.832e-06
2250.0 5.8937e-06
2270.0 5.9572e-06
2290.0 6.0161e-06
2310.0 6.0696e-06
2330.0 6.1242e-06
2350.0 6.1788e-06
2370.0 6.231e-06
2390.0 6.2883e-06
2410.0 6.3606e-06
2430.0 6.4478e-06
2450.0 6.5578e-06
2470.0 6.7084e-06
2490.0 6.9076e-06
2510.0 7.1385e-06
2530.0 7.4247e-06
2550.0 7.7942e-06
2570.0 8.2632e-06
2590.0 8.8806e-06
2610.0 9.8137e-06
2630.0 1.1136e-05
2650.0 1.2837e-05
2670.0 1.5e-05
2690.0 1.7607e-05
2710.0 2.032e-05
2730.0 2.2927e-05
2750.0 2.5421e-05
2770.0 2.7499e-05
2790.0 2.905e-05
2810.0 3.0187e-05
2830.0 3.0982e-05
2850.0 3.141e-05
2870.0 3.1631e-05
2890.0 3.1735e-05
2910.0 3.1752e-05
2930.0 3.1713e-05
2950.0 3.1664e-05
2970.0 3.1613e-05
2990.0 3.1554e-05
3010.0 0.0010025
3030.0 0.0010008
3050.0 0.00099912
3070.0 0.00099676
3090.0 0.00099381
3110.0 0.0009892
3130.0 0.00098169
3150.0 0.00097033
3170.0 0.00095321
3190.0 0.0009306
3210.0 0.00090409
3230.0 0.00087482
3250.0 0.00084485
3270.0 0.00082243
3290.0 0.00080572
3310.0 0.00080237
3330.0 0.00080832
3350.0 0.00082324
3370.0 0.00084699
3390.0 0.00087842
3410.0 0.00091346
3430.0 0.00095339
3450.0 0.00099985
3470.0 0.0010511
3490.0 0.001106
3510.0 0.0011686
3530.0 0.0012368
3550.0 0.0013094
3570.0 0.0013888
3590.0 0.001477
3610.0 0.0015742
3630.0 0.0016704
3650.0 0.0017721
3670.0 0.0018636
3690.0 0.0019315
3710.0 0.0019659
3730.0 0.0019479
3750.0 0.0018801
3770.0 0.0019223
3790.0 0.0018914
3810.0 0.0015184
3830.0 0.0014908
3850.0 0.002127
3870.0 0.0021207
3890.0 0.001672
3910.0 0.001583
3930.0 0.001918
3950.0 0.0022518
3970.0 0.0024601
3990.0 0.0016899
4010.0 0.0035766
4030.0 0.0036758
4050.0 0.0040487
4070.0 0.0043077
4090.0 0.0040323
4110.0 0.0034695
4130.0 0.0040501
4150.0 0.0053082
4170.0 0.0043051
4190.0 0.0039133
4210.0 0.0043336
4230.0 0.0052434
4250.0 0.0062983
4270.0 0.0067905
4290.0 0.0060165
4310.0 0.0056457
4330.0 0.0056202
4350.0 0.007068
4370.0 0.0085452
4390.0 0.0069134
4410.0 0.0039661
4430.0 0.0028857
4450.0 0.002708
4470.0 0.0016765
4490.0 0.0027527
4510.0 0.005861
4530.0 0.0071251
4550.0 0.0066939
4570.0 0.0061182
4590.0 0.006563
4610.0 0.012591
4630.0 0.017618
4650.0 0.016884
4670.0 0.014896
4690.0 0.015074
4710.0 0.015761
4730.0 0.013138
4750.0 0.0086627
4770.0 0.0059324
4790.0 0.0064664
4810.0 0.0067697
4830.0 0.0066502
4850.0 0.0072141
4870.0 0.0095553
4890.0 0.011083
4910.0 0.0087176
4930.0 0.0084122
4950.0 0.00966
4970.0 0.012804
4990.0 0.017304
5010.0 0.02004
5030.0 0.016164
5050.0 0.0099995
5070.0 0.0070531
5090.0 0.0053606
5110.0 0.0050449
5130.0 0.0060644
5150.0 0.0059375
5170.0 0.0055963
5190.0 0.0049814
5210.0 0.0055443
5230.0 0.0068085
5250.0 0.0079027
5270.0 0.0073847
5290.0 0.0079669
5310.0 0.010615
5330.0 0.011446
5350.0 0.011286
5370.0 0.012613
5390.0 0.01566
5410.0 0.01357
5430.0 0.01054
5450.0 0.010558
5470.0 0.01219
5490.0 0.015216
5510.0 0.01854
5530.0 0.0215
5550.0 0.019516
5570.0 0.017523
5590.0 0.01445
5610.0 0.01456
5630.0 0.016215
5650.0 0.014948
5670.0 0.013765
5690.0 0.011184
5710.0 0.011474
5730.0 0.011113
5750.0 0.0061467
5770.0 0.0044019
5790.0 0.0054275
5810.0 0.0057324
5830.0 0.0088267
5850.0 0.011492
5870.0 0.01239
5890.0 0.011873
5910.0 0.011564
5930.0 0.011109
5950.0 0.011449
5970.0 0.014165
5990.0 0.011731
6010.0 0.0090771
6030.0 0.007424
6050.0 0.0066184
6070.0 0.0078091
6090.0 0.0087601
6110.0 0.0089779
6130.0 0.0083303
6150.0 0.0065842
6170.0 0.0051262
6190.0 0.0062123
6210.0 0.0097754
6230.0 0.014392
6250.0 0.01553
6270.0 0.01195
6290.0 0.010229
6310.0 0.0078104
6330.0 0.0057027
6350.0 0.0055798
6370.0 0.0058579
6390.0 0.0069934
6410.0 0.0090412
6430.0 0.010874
6450.0 0.013305
6470.0 0.014084
6490.0 0.016869
6510.0 0.01892
6530.0 0.019297
6550.0 0.017747
6570.0 0.014244
6590.0 0.013524
6610.0 0.011214
6630.0 0.011609
6650.0 0.011277
6670.0 0.0098713
6690.0 0.0076682
6710.0 0.0074813
6730.0 0.0032798
6750.0 0.0044028
6770.0 0.0069088
6790.0 0.0091379
6810.0 0.0065229
6830.0 0.0066606
6850.0 0.0055481
6870.0 0.0051905
6890.0 0.0043869
6910.0 0.0053373
6930.0 0.0050245
6950.0 0.006006
6970.0 0.0062397
6990.0 0.0069269
7010.0 0.0066913
7030.0 0.0076597
7050.0 0.006639
7070.0 0.0055381
7090.0 0.0059399
7110.0 0.0063022
7130.0 0.0072529
7150.0 0.0082198
7170.0 0.0092158
7190.0 0.0098412
7210.0 0.0087733
7230.0 0.0088851
7250.0 0.0095231
7270.0 0.010222
7290.0 0.012594
7310.0 0.013314
7330.0 0.012454
7350.0 0.011155
7370.0 0.0082734
7390.0 0.0085332
7410.0 0.010452
7430.0 0.011911
7450.0 0.012833
7470.0 0.011742
7490.0 0.009376
7510.0 0.015116
7530.0 0.013774
7550.0 0.012993
7570.0 0.0088278
7590.0 0.0039181
7610.0 0.0027662
7630.0 0.0041997
7650.0 0.005647
7670.0 0.0089895
7690.0 0.010017
7710.0 0.0090522
7730.0 0.0089855
7750.0 0.011796
7770.0 0.012124
7790.0 0.011086
7810.0 0.0089626
7830.0 0.0097118
7850.0 0.010644
7870.0 0.010408
7890.0 0.008136
7910.0 0.0054689
7930.0 0.0056664
7950.0 0.0051189
7970.0 0.0043124
7990.0 0.0038989
8010.0 0.0020486
8030.0 0.0018696
8050.0 0.00203
8070.0 0.0023009
8090.0 0.0028255
8110.0 0.0026502
8130.0 0.0015507
8150.0 0.0016156
8170.0 0.00087853
8190.0 0.00050724
8210.0 0.0014341
8230.0 0.0017424
8250.0 0.00063818
8270.0 0.00049223
8290.0 0.0010294
8310.0 0.00091705
8330.0 0.00055962
8350.0 0.00045212
8370.0 9.3142e-05
8390.0 0.00048302
8410.0 0.0005573
8430.0 0.00069281
8450.0 0.00077998
8470.0 0.0013317
8490.0 0.0010756
8510.0 0.00081377
8530.0 0.00037556
8550.0 0.0014758
8570.0 0.0023227
8590.0 0.0015798
8610.0 0.0024022
8630.0 0.0026016
8650.0 0.0013244
8670.0 0.002024
8690.0 0.0032384
8710.0 0.0027665
8730.0 0.0029974
8750.0 0.0023377
8770.0 0.0020691
8790.0 0.0023127
8810.0 0.0025249
8830.0 0.0013675
8850.0 0.00055125
8870.0 0.00038308
8890.0 0.0010643
8910.0 0.0017173
8930.0 0.0022896
8950.0 0.0025572
8970.0 0.0024585
8990.0 0.0018225
9010.0 0.0017335
9030.0 0.0013087
9050.0 0.0013606
9070.0 0.0014148
9090.0 0.001459
9110.0 0.0015124
9130.0 0.001551
9150.0 0.0015786
9170.0 0.0016078
9190.0 0.0016392
9210.0 0.0016721
9230.0 0.0017068
9250.0 0.0017419
9270.0 0.0017782
9290.0 0.0018154
9310.0 0.0018524
9330.0 0.00189
9350.0 0.0019289
9370.0 0.0019679
9390.0 0.002007
9410.0 0.0020472
9430.0 0.0020884
9450.0 0.0021292
9470.0 0.0021706
9490.0 0.0022132
9510.0 0.0022561
9530.0 0.0022989
9550.0 0.0023433
9570.0 0.0023883
9590.0 0.0024332
9610.0 0.0024789
9630.0 0.0025257
9650.0 0.0025728
9670.0 0.0026197
9690.0 0.002668
9710.0 0.002717
9730.0 0.0027658
9750.0 0.0028154
9770.0 0.0028666
9790.0 0.0029175
9810.0 0.0029685
9830.0 0.0030207
9850.0 0.0030736
9870.0 0.0031261
9890.0 0.0031794
9910.0 0.0032338
9930.0 0.0032882
9950.0 0.0033427
9970.0 0.0033983
9990.0 0.0034546
10010.0 0.0030776
10030.0 0.0031268
10050.0 0.0031767
10070.0 0.0032261
10090.0 0.0032758
10110.0 0.0033268
10130.0 0.0033776
10150.0 0.0034281
10170.0 0.003479
10190.0 0.0035307
10210.0 0.0035816
10230.0 0.0036324
10250.0 0.003684
10270.0 0.0037354
10290.0 0.0037862
10310.0 0.0038375
10330.0 0.0038894
10350.0 0.0039403
10370.0 0.003991
10390.0 0.0040422
10410.0 0.0040931
10430.0 0.0041429
10450.0 0.0041932
10470.0 0.0042435
10490.0 0.0042928
10510.0 0.0043418
10530.0 0.0043914
10550.0 0.0044401
10570.0 0.0044877
10590.0 0.0045354
10610.0 0.004583
10630.0 0.0046292
10650.0 0.0046749
10670.0 0.004721
10690.0 0.004766
10710.0 0.0048098
10730.0 0.0048536
10750.0 0.0048974
10770.0 0.0049391
10790.0 0.0049803
10810.0 0.0050213
10830.0 0.0050609
10850.0 0.0050985
10870.0 0.0051352
10890.0 0.0051684
10910.0 0.0051956
10930.0 0.0052147
10950.0 0.0052212
10970.0 0.0052109
10990.0 0.005182
11010.0 0.0051518
11030.0 0.0050734
11050.0 0.004975
11070.0 0.0048556
11090.0 0.0047111
11110.0 0.004561
11130.0 0.0044045
11150.0 0.0042364
11170.0 0.0040639
11190.0 0.0038972
11210.0 0.0037262
11230.0 0.0035519
11250.0 0.0033862
11270.0 0.0032278
11290.0 0.00307
11310.0 0.0029209
11330.0 0.0027894
11350.0 0.0026652
11370.0 0.00255
11390.0 0.0024494
11410.0 0.0023604
11430.0 0.0022767
11450.0 0.0022031
11470.0 0.0021379
11490.0 0.0020762
11510.0 0.0020159
11530.0 0.0019591
11550.0 0.0019026
11570.0 0.0018427
11590.0 0.0017812
11610.0 0.0017191
11630.0 0.0016525
11650.0 0.0015822
11670.0 0.0015134
11690.0 0.0014441
11710.0 0.0013732
11730.0 0.0013047
11750.0 0.0012411
11770.0 0.0011788
11790.0 0.0011201
11810.0 0.001068
11830.0 0.0010208
11850.0 0.00097682
11870.0 0.00093919
11890.0 0.00090706
11910.0 0.00087813
11930.0 0.00085252
11950.0 0.00083044
11970.0 0.00081022
11990.0 0.00079087
12010.0 0.00077276
12030.0 0.0007553
12050.0 0.00073749
12070.0 0.00071924
12090.0 0.00070165
12110.0 0.00068387
12130.0 0.00066599
12150.0 0.00064911
12170.0 0.00063369
12190.0 0.00061936
12210.0 0.0006075
12230.0 0.00059871
12250.0 0.00059305
12270.0 0.00059118
12290.0 0.00059325
12310.0 0.00059897
12330.0 0.00060919
12350.0 0.00062345
12370.0 0.00064059
12390.0 0.00066118
12410.0 0.00068611
12430.0 0.00071167
12450.0 0.00073833
12470.0 0.00076692
12490.0 0.00079565
12510.0 0.00082237
12530.0 0.00084891
12550.0 0.00087437
12570.0 0.00089644
12590.0 0.00091541
12610.0 0.00093199
12630.0 0.00094461
12650.0 0.00095238
12670.0 0.00095654
12690.0 0.00095654
12710.0 0.0009522
12730.0 0.00094403
12750.0 0.00093174
12770.0 0.00091592
12790.0 0.00089735
12810.0 0.00087581
12830.0 0.00085142
12850.0 0.00082613
12870.0 0.00079967
12890.0 0.00077142
12910.0 0.00074291
12930.0 0.00071494
12950.0 0.00068603
12970.0 0.00065682
12990.0 0.0006292
13010.0 0.00060203
13030.0 0.00057468
13050.0 0.0005484
13070.0 0.00052371
13090.0 0.00049895
13110.0 0.00047492
13130.0 0.00045261
13150.0 0.00043134
13170.0 0.0004104
13190.0 0.0003915
13210.0 0.00037459
13230.0 0.00035887
13250.0 0.00034496
13270.0 0.0003335
13290.0 0.00032401
13310.0 0.00031665
13330.0 0.00031197
13350.0 0.0003098
13370.0 0.00031022
13390.0 0.00031342
13410.0 0.00031879
13430.0 0.00032653
13450.0 0.00033672
13470.0 0.00034851
13490.0 0.00036134
13510.0 0.00037626
13530.0 0.00039172
13550.0 0.00040678
13570.0 0.00042193
13590.0 0.000437
13610.0 0.00045063
13630.0 0.00046274
13650.0 0.00047405
13670.0 0.00048366
13690.0 0.00049127
13710.0 0.00049736
13730.0 0.00050197
13750.0 0.00050455
13770.0 0.00050558
13790.0 0.00050517
13810.0 0.00050329
13830.0 0.00050019
13850.0 0.00049583
13870.0 0.00049022
13890.0 0.00048372
13910.0 0.00047635
13930.0 0.00046784
13950.0 0.00045856
13970.0 0.00044908
13990.0 0.00043881
14010.0 0.00042795
14030.0 0.00041715
14050.0 0.00040631
14070.0 0.00039492
14090.0 0.00038402
14110.0 0.00037379
14130.0 0.00036387
14150.0 0.00035451
14170.0 0.00034647
14190.0 0.00033946
14210.0 0.00033342
14230.0 0.00032884
14250.0 0.00032572
14270.0 0.00032398
14290.0 0.00032382
14310.0 0.00032515
14330.0 0.00032789
14350.0 0.00033215
14370.0 0.00033763
14390.0 0.00034401
14410.0 0.00035166
14430.0 0.00036023
14450.0 0.00036915
14470.0 0.00037856
14490.0 0.00038874
14510.0 0.00039867
14530.0 0.00040828
14550.0 0.00041806
14570.0 0.00042763
14590.0 0.00043651
14610.0 0.00044523
14630.0 0.00045399
14650.0 0.00046226
14670.0 0.00047031
14690.0 0.00047871
14710.0 0.00048753
14730.0 0.00049633
14750.0 0.00050599
14770.0 0.00051685
14790.0 0.00052853
14810.0 0.00054111
14830.0 0.00055587
14850.0 0.00057185
14870.0 0.00058848
14890.0 0.00060637
14910.0 0.00062533
14930.0 0.00064359
14950.0 0.00066073
14970.0 0.00067701
14990.0 0.00069082
15010.0 0.00070161
15030.0 0.00070986
15050.0 0.00071565
15070.0 0.00071898
15090.0 0.00072078
15110.0 0.00072153
15130.0 0.00072161
15150.0 0.00072139
15170.0 0.00072094
15190.0 0.0007204
15210.0 0.00071988
15230.0 0.00071938
15250.0 0.00071883
15270.0 0.0007183
15290.0 0.00071787
15310.0 0.0007174
15330.0 0.00071691
15350.0 0.00071649
15370.0 0.0007161
15390.0 0.00071562
15410.0 0.0007152
15430.0 0.00071483
15450.0 0.00071443
15470.0 0.000714
15490.0 0.00071365
15510.0 0.00071331
15530.0 0.00071292
15550.0 0.00071256
15570.0 0.00071225
15590.0 0.00071187
15610.0 0.00071148
15630.0 0.00071117
15650.0 0.00071085
15670.0 0.00071047
15690.0 0.00071014
15710.0 0.00070985
15730.0 0.00070949
15750.0 0.00070913
15770.0 0.00070882
15790.0 0.00070849
15810.0 0.00070809
15830.0 0.00070774
15850.0 0.00070744
15870.0 0.00070706
15890.0 0.00070668
15910.0 0.00070637
15930.0 0.000706
15950.0 0.00070557
15970.0 0.0007052
15990.0 0.00070484
16010.0 0.00070441
16030.0 0.00070396
16050.0 0.0007036
16070.0 0.00070318
16090.0 0.00070271
16110.0 0.00070228
16130.0 0.00070187
16150.0 0.00070134
16170.0 0.00070083
16190.0 0.00070038
16210.0 0.00069988
16230.0 0.00069931
16250.0 0.0006988
16270.0 0.0006983
16290.0 0.00069771
16310.0 0.00069712
16330.0 0.00069657
16350.0 0.00069596
16370.0 0.00069526
16390.0 0.00069466
16410.0 0.00069404
16430.0 0.00069334
16450.0 0.00069264
16470.0 0.00069199
16490.0 0.00069125
16510.0 0.00069047
16530.0 0.00068974
16550.0 0.00068899
16570.0 0.00068814
16590.0 0.0006873
16610.0 0.00068653
16630.0 0.00068567
16650.0 0.00068477
16670.0 0.00068391
16690.0 0.00068304
16710.0 0.00068204
16730.0 0.00068108
16750.0 0.00068015
16770.0 0.00067914
16790.0 0.00067808
16810.0 0.00067709
16830.0 0.00067607
16850.0 0.00067496
16870.0 0.00067386
16890.0 0.0006728
16910.0 0.00067162
16930.0 0.00067041
16950.0 0.00066927
16970.0 0.00066808
16990.0 0.00066682
17010.0 0.00066558
17030.0 0.00066438
17050.0 0.00066306
17070.0 0.00066172
17090.0 0.00066043
17110.0 0.00065909
17130.0 0.00065764
17150.0 0.00065626
17170.0 0.0006549
17190.0 0.00065344
17210.0 0.00065196
17230.0 0.00065054
17250.0 0.00064904
17270.0 0.00064746
17290.0 0.00064594
17310.0 0.00064441
17330.0 0.0006428
17350.0 0.00064115
17370.0 0.00063959
17390.0 0.00063796
17410.0 0.00063626
17430.0 0.0006346
17450.0 0.00063296
17470.0 0.00063116
17490.0 0.0006294
17510.0 0.00062769
17530.0 0.00062591
17550.0 0.00062407
17570.0 0.00062228
17590.0 0.0006205
17610.0 0.00061861
17630.0 0.00061673
17650.0 0.00061489
17670.0 0.00061298
17690.0 0.00061097
17710.0 0.00060908
17730.0 0.00060716
17750.0 0.00060515
17770.0 0.00060316
17790.0 0.00060122
17810.0 0.00059918
17830.0 0.0005971
17850.0 0.00059508
17870.0 0.00059304
17890.0 0.00059091
17910.0 0.00058879
17930.0 0.00058675
17950.0 0.00058462
17970.0 0.00058245
17990.0 0.00058035
18010.0 0.00057822
18030.0 0.00057596
18050.0 0.00057378
18070.0 0.00057162
18090.0 0.00056939
18110.0 0.00056712
18130.0 0.00056494
18150.0 0.00056272
18170.0 0.00056042
18190.0 0.00055816
18210.0 0.00055594
18230.0 0.00055361
18250.0 0.00055126
18270.0 0.000549
18290.0 0.0005467
18310.0 0.00054433
18330.0 0.00054201
18350.0 0.00053973
18370.0 0.00053734
18390.0 0.00053496
18410.0 0.00053264
18430.0 0.00053027
18450.0 0.00052782
18470.0 0.00052545
18490.0 0.00052311
18510.0 0.00052069
18530.0 0.00051827
18550.0 0.00051592
18570.0 0.0005135
18590.0 0.00051102
18610.0 0.00050861
18630.0 0.00050622
18650.0 0.00050375
18670.0 0.00050128
18690.0 0.0004989
18710.0 0.00049646
18730.0 0.00049398
18750.0 0.00049155
18770.0 0.00048915
18790.0 0.00048662
18810.0 0.00048414
18830.0 0.00048173
18850.0 0.00047926
18870.0 0.00047676
18890.0 0.00047433
18910.0 0.0004719
18930.0 0.00046939
18950.0 0.00046692
18970.0 0.0004645
18990.0 0.00046202
19010.0 0.00045947
19030.0 0.00045705
19050.0 0.00045461
19070.0 0.00045211
19090.0 0.00044964
19110.0 0.00044724
19130.0 0.00044475
19150.0 0.00044224
19170.0 0.00043981
19190.0 0.00043737
19210.0 0.00043486
19230.0 0.00043239
19250.0 0.00043
19270.0 0.00042754
19290.0 0.00042506
19310.0 0.00042266
19330.0 0.00042024
19350.0 0.00041772
19370.0 0.00041529
19390.0 0.0004129
19410.0 0.00041045
19430.0 0.00040798
19450.0 0.00040561
19470.0 0.00040321
19490.0 0.00040076
19510.0 0.00039835
19530.0 0.00039599
19550.0 0.00039355
19570.0 0.0003911
19590.0 0.00038876
19610.0 0.00038638
19630.0 0.00038396
19650.0 0.0003816
19670.0 0.00037928
19690.0 0.00037687
19710.0 0.00037448
19730.0 0.00037216
19750.0 0.00036981
19770.0 0.0003674
19790.0 0.00036507
19810.0 0.00036278
19830.0 0.00036041
19850.0 0.00035805
19870.0 0.00035573
19890.0 0.00035329
19910.0 0.00035068
19930.0 0.00034795
19950.0 0.00034493
19970.0 0.00034138
19990.0 0.00033726
20010.0 0.00031088
20030.0 0.00030585
20050.0 0.00030009
20070.0 0.00029395
20090.0 0.00028742
20110.0 0.00028015
20130.0 0.00027285
20150.0 0.00026567
20170.0 0.00025828
20190.0 0.00025083
20210.0 0.00024383
20230.0 0.00023702
20250.0 0.00023022
20270.0 0.00022391
20290.0 0.00021813
20310.0 0.00021263
20330.0 0.00020747
20350.0 0.00020314
20370.0 0.00019925
20390.0 0.00019578
20410.0 0.00019292
20430.0 0.00019063
20450.0 0.00018873
20470.0 0.00018735
20490.0 0.00018646
20510.0 0.00018599
20530.0 0.00018591
20550.0 0.00018621
20570.0 0.0001868
20590.0 0.00018771
20610.0 0.0001889
20630.0 0.00019026
20650.0 0.00019183
20670.0 0.00019368
20690.0 0.00019559
20710.0 0.00019758
20730.0 0.00019974
20750.0 0.00020201
20770.0 0.00020422
20790.0 0.00020655
20810.0 0.00020899
20830.0 0.00021139
20850.0 0.00021378
20870.0 0.00021632
20890.0 0.00021888
20910.0 0.00022132
20930.0 0.00022383
20950.0 0.00022641
20970.0 0.00022889
20990.0 0.00023133
21010.0 0.00023388
21030.0 0.00023636
21050.0 0.0002387
21070.0 0.00024103
21090.0 0.00024337
21110.0 0.00024549
21130.0 0.00024746
21150.0 0.00024938
21170.0 0.00025111
21190.0 0.00025259
21210.0 0.00025392
21230.0 0.00025503
21250.0 0.00025582
21270.0 0.0002563
21290.0 0.00025648
21310.0 0.00025628
21330.0 0.0002557
21350.0 0.00025471
21370.0 0.00025326
21390.0 0.00025141
21410.0 0.00024913
21430.0 0.00024625
21450.0 0.000243
21470.0 0.00023944
21490.0 0.00023539
21510.0 0.00023094
21530.0 0.00022639
21550.0 0.00022161
21570.0 0.00021649
21590.0 0.00021142
21610.0 0.0002065
21630.0 0.00020154
21650.0 0.00019666
21670.0 0.00019239
21690.0 0.0001884
21710.0 0.00018475
21730.0 0.00018169
21750.0 0.00017924
21770.0 0.00017727
21790.0 0.00017596
21810.0 0.00017531
21830.0 0.00017526
21850.0 0.00017586
21870.0 0.00017703
21890.0 0.00017868
21910.0 0.00018091
21930.0 0.00018359
21950.0 0.00018656
21970.0 0.0001899
21990.0 0.00019371
22010.0 0.00019756
22030.0 0.00020149
22050.0 0.00020567
22070.0 0.00020991
22090.0 0.00021395
22110.0 0.00021805
22130.0 0.00022218
22150.0 0.00022606
22170.0 0.00022974
22190.0 0.00023341
22210.0 0.00023685
22230.0 0.00023988
22250.0 0.00024274
22270.0 0.00024539
22290.0 0.00024766
22310.0 0.0002496
22330.0 0.00025131
22350.0 0.00025263
22370.0 0.00025355
22390.0 0.00025411
22410.0 0.00025428
22430.0 0.00025401
22450.0 0.00025333
22470.0 0.0002522
22490.0 0.00025061
22510.0 0.00024864
22530.0 0.00024613
22550.0 0.0002431
22570.0 0.00023973
22590.0 0.00023594
22610.0 0.0002316
22630.0 0.00022689
22650.0 0.00022203
22670.0 0.00021665
22690.0 0.00021092
22710.0 0.00020512
22730.0 0.00019915
22750.0 0.00019267
22770.0 0.00018633
22790.0 0.00018013
22810.0 0.00017376
22830.0 0.00016741
22850.0 0.00016145
22870.0 0.0001556
22890.0 0.00014979
22910.0 0.00014442
22930.0 0.00013949
22950.0 0.00013479
22970.0 0.00013044
22990.0 0.00012681
23010.0 0.00012358
23030.0 0.00012078
23050.0 0.00011858
23070.0 0.00011695
23090.0 0.00011579
23110.0 0.00011522
23130.0 0.0001152
23150.0 0.00011569
