#lamb flux
1010.0 2.4539e-05
1030.0 2.4545e-05
1050.0 2.4487e-05
1070.0 2.4348e-05
1090.0 2.4108e-05
1110.0 2.3751e-05
1130.0 2.3285e-05
1150.0 2.2718e-05
1170.0 2.2064e-05
1190.0 2.1365e-05
1210.0 2.0642e-05
1230.0 1.9914e-05
1250.0 1.9233e-05
1270.0 1.8629e-05
1290.0 1.8095e-05
1310.0 1.767e-05
1330.0 1.738e-05
1350.0 1.7246e-05
1370.0 1.7382e-05
1390.0 1.7587e-05
1410.0 1.7849e-05
1430.0 1.8133e-05
1450.0 1.8441e-05
1470.0 1.8772e-05
1490.0 1.9103e-05
1510.0 1.9429e-05
1530.0 1.9767e-05
1550.0 2.0088e-05
1570.0 2.0383e-05
1590.0 2.0687e-05
1610.0 2.1065e-05
1630.0 2.1426e-05
1650.0 2.1769e-05
1670.0 2.2103e-05
1690.0 2.2427e-05
1710.0 2.2737e-05
1730.0 2.3048e-05
1750.0 2.339e-05
1770.0 2.3744e-05
1790.0 2.4117e-05
1810.0 2.4514e-05
1830.0 2.5464e-05
1850.0 5.1184e-05
1870.0 7.8517e-05
1890.0 0.00010802
1910.0 0.00014007
1930.0 0.00017501
1950.0 0.00021281
1970.0 0.00025373
1990.0 0.00029821
2010.0 0.0003461
2030.0 0.00039728
2050.0 0.00045218
2070.0 0.00051079
2090.0 0.00057218
2110.0 0.00063656
2130.0 0.00070399
2150.0 0.00077357
2170.0 0.00084441
2190.0 0.00091704
2210.0 0.00099051
2230.0 0.0010634
2250.0 0.0011356
2270.0 0.0012072
2290.0 0.0012762
2310.0 0.0013417
2330.0 0.0014043
2350.0 0.0014629
2370.0 0.001516
2390.0 0.001564
2410.0 0.001607
2430.0 0.0016429
2450.0 0.0016715
2470.0 0.0016937
2490.0 0.0017091
2510.0 0.0017177
2530.0 0.0017231
2550.0 0.00173
2570.0 0.0017441
2590.0 0.0017726
2610.0 0.0018322
2630.0 0.0019318
2650.0 0.0020709
2670.0 0.0022598
2690.0 0.0025033
2710.0 0.0027757
2730.0 0.0030623
2750.0 0.0033735
2770.0 0.0036775
2790.0 0.0039518
2810.0 0.0042053
2830.0 0.0044433
2850.0 0.0046355
2870.0 0.0048034
2890.0 0.0049635
2910.0 0.0051144
2930.0 0.0052557
2950.0 0.0054071
2970.0 0.0055692
2990.0 0.0057342
3010.0 0.0059075
3030.0 0.0060973
3050.0 0.006296
3070.0 0.0064905
3090.0 0.0066907
3110.0 0.0068853
3130.0 0.0070582
3150.0 0.0072041
3170.0 0.0073189
3190.0 0.0073993
3210.0 0.0074613
3230.0 0.0075269
3250.0 0.0076311
3270.0 0.0078055
3290.0 0.008067
3310.0 0.0084362
3330.0 0.0089043
3350.0 0.0094457
3370.0 0.010066
3390.0 0.010714
3410.0 0.011335
3430.0 0.011902
3450.0 0.012383
3470.0 0.013542
3490.0 0.013991
3510.0 0.012531
3530.0 0.011907
3550.0 0.015534
3570.0 0.018697
3590.0 0.018499
3610.0 0.019966
3630.0 0.020113
3650.0 0.018393
3670.0 0.018306
3690.0 0.020701
3710.0 0.022868
3730.0 0.024063
3750.0 0.021735
3770.0 0.021456
3790.0 0.022393
3810.0 0.021617
3830.0 0.018848
3850.0 0.017015
3870.0 0.017918
3890.0 0.020065
3910.0 0.021418
3930.0 0.022019
3950.0 0.022801
3970.0 0.02325
3990.0 0.023506
4010.0 0.022838
4030.0 0.020776
4050.0 0.019448
4070.0 0.019775
4090.0 0.021021
4110.0 0.021815
4130.0 0.021505
4150.0 0.021231
4170.0 0.021429
4190.0 0.021886
4210.0 0.021162
4230.0 0.019289
4250.0 0.017281
4270.0 0.015928
4290.0 0.014893
4310.0 0.013938
4330.0 0.014343
4350.0 0.014945
4370.0 0.015123
4390.0 0.015529
4410.0 0.015426
4430.0 0.015246
4450.0 0.015402
4470.0 0.015465
4490.0 0.016639
4510.0 0.01727
4530.0 0.017826
4550.0 0.018383
4570.0 0.019089
4590.0 0.019481
4610.0 0.019737
4630.0 0.019972
4650.0 0.020406
4670.0 0.019158
4690.0 0.017732
4710.0 0.016481
4730.0 0.015969
4750.0 0.01527
4770.0 0.014742
4790.0 0.014408
4810.0 0.013964
4830.0 0.014602
4850.0 0.016074
4870.0 0.011864
4890.0 0.011911
4910.0 0.012832
4930.0 0.013253
4950.0 0.012106
4970.0 0.011217
4990.0 0.010838
5010.0 0.010125
5030.0 0.0095625
5050.0 0.0098961
5070.0 0.010496
5090.0 0.010828
5110.0 0.011745
5130.0 0.012066
5150.0 0.012532
5170.0 0.012978
5190.0 0.012721
5210.0 0.013293
5230.0 0.013573
5250.0 0.01372
5270.0 0.013919
5290.0 0.013592
5310.0 0.013204
5330.0 0.012544
5350.0 0.011901
5370.0 0.01138
5390.0 0.011681
5410.0 0.011604
5430.0 0.011727
5450.0 0.011685
5470.0 0.0115
5490.0 0.011392
5510.0 0.011097
5530.0 0.010833
5550.0 0.010678
5570.0 0.010779
5590.0 0.010895
5610.0 0.011006
5630.0 0.010771
5650.0 0.010579
5670.0 0.010128
5690.0 0.0099005
5710.0 0.0095792
5730.0 0.0095395
5750.0 0.0093564
5770.0 0.0090222
5790.0 0.0093013
5810.0 0.0092799
5830.0 0.0095341
5850.0 0.0096338
5870.0 0.0097253
5890.0 0.0095537
5910.0 0.0095313
5930.0 0.0092535
5950.0 0.0093491
5970.0 0.0091319
5990.0 0.0089668
6010.0 0.0089622
6030.0 0.0091502
6050.0 0.0090582
6070.0 0.0088453
6090.0 0.0087541
6110.0 0.0088927
6130.0 0.0087814
6150.0 0.0084893
6170.0 0.0080213
6190.0 0.00752
6210.0 0.0071487
6230.0 0.0070861
6250.0 0.0071519
6270.0 0.0073085
6290.0 0.007606
6310.0 0.0081103
6330.0 0.0083487
6350.0 0.008363
6370.0 0.0084225
6390.0 0.0083734
6410.0 0.0081909
6430.0 0.0079605
6450.0 0.0078521
6470.0 0.0078362
6490.0 0.0077829
6510.0 0.0077013
6530.0 0.007694
6550.0 0.0076176
6570.0 0.0073098
6590.0 0.0072342
6610.0 0.0071669
6630.0 0.0069195
6650.0 0.0066856
6670.0 0.0064984
6690.0 0.0064541
6710.0 0.0062573
6730.0 0.0061559
6750.0 0.0060556
6770.0 0.0059134
6790.0 0.005953
6810.0 0.0058741
6830.0 0.0056974
6850.0 0.0056317
6870.0 0.0055919
6890.0 0.0054946
6910.0 0.005454
6930.0 0.0054148
6950.0 0.0053219
6970.0 0.0052049
6990.0 0.0052013
7010.0 0.0051673
7030.0 0.0052032
7050.0 0.0050572
7070.0 0.0049897
7090.0 0.0050074
7110.0 0.0048493
7130.0 0.0048327
7150.0 0.0048843
7170.0 0.0049644
7190.0 0.0048844
7210.0 0.0049064
7230.0 0.0050043
7250.0 0.0048879
7270.0 0.0049524
7290.0 0.0048745
7310.0 0.004741
7330.0 0.0045083
7350.0 0.004546
7370.0 0.0045671
7390.0 0.004467
7410.0 0.0043514
7430.0 0.0042873
7450.0 0.0042376
7470.0 0.0042853
7490.0 0.0043742
7510.0 0.0042906
7530.0 0.0041401
7550.0 0.0041708
7570.0 0.0038301
7590.0 0.0037452
7610.0 0.0036733
7630.0 0.0037339
7650.0 0.0036501
7670.0 0.0037832
7690.0 0.0036268
7710.0 0.0038528
7730.0 0.0038638
7750.0 0.0042253
7770.0 0.0043411
7790.0 0.00449
7810.0 0.0046868
7830.0 0.0047553
7850.0 0.004911
7870.0 0.0048163
7890.0 0.0047723
7910.0 0.0046863
7930.0 0.004521
7950.0 0.0043901
7970.0 0.0043733
7990.0 0.0043271
8010.0 0.0039736
8030.0 0.0039488
8050.0 0.0038733
8070.0 0.0038333
8090.0 0.0037452
8110.0 0.0037741
8130.0 0.003807
8150.0 0.0038582
8170.0 0.003814
8190.0 0.0038512
8210.0 0.0037908
8230.0 0.0035834
8250.0 0.0034999
8270.0 0.0034384
8290.0 0.0033865
8310.0 0.0032906
8330.0 0.0033409
8350.0 0.0033148
8370.0 0.003306
8390.0 0.0033669
8410.0 0.0033683
8430.0 0.0034371
8450.0 0.0034958
8470.0 0.0035119
8490.0 0.0035487
8510.0 0.0034956
8530.0 0.0033891
8550.0 0.0034179
8570.0 0.0034255
8590.0 0.0033339
8610.0 0.0034096
8630.0 0.0033732
8650.0 0.0033024
8670.0 0.0032829
8690.0 0.0032827
8710.0 0.0031645
8730.0 0.0031987
8750.0 0.0030912
8770.0 0.0030681
8790.0 0.0029906
8810.0 0.0029587
8830.0 0.002937
8850.0 0.0027832
8870.0 0.0026357
8890.0 0.0025956
8910.0 0.0024398
8930.0 0.0022526
8950.0 0.0022479
8970.0 0.0021837
8990.0 0.0021715
9010.0 0.0021559
9030.0 0.0021415
9050.0 0.0021263
9070.0 0.0021109
9090.0 0.0020955
9110.0 0.0020799
9130.0 0.0020643
9150.0 0.0020488
9170.0 0.0020333
9190.0 0.0020177
9210.0 0.002002
9230.0 0.0019864
9250.0 0.0019708
9270.0 0.0019551
9290.0 0.0019395
9310.0 0.0019239
9330.0 0.0019083
9350.0 0.0018928
9370.0 0.0018772
9390.0 0.0018617
9410.0 0.0018463
9430.0 0.0018309
9450.0 0.0018156
9470.0 0.0018012
9490.0 0.0017865
9510.0 0.0017708
9530.0 0.0017553
9550.0 0.0017401
9570.0 0.0017251
9590.0 0.0017102
9610.0 0.0016954
9630.0 0.0016808
9650.0 0.0016663
9670.0 0.0016518
9690.0 0.0016375
9710.0 0.0016233
9730.0 0.0016091
9750.0 0.0015951
9770.0 0.0015813
9790.0 0.0015675
9810.0 0.0015538
9830.0 0.00154
9850.0 0.0015241
9870.0 0.0015107
9890.0 0.0014987
9910.0 0.0014865
9930.0 0.001472
9950.0 0.0014593
9970.0 0.0014476
9990.0 0.0014356
10010.0 0.0014234
10030.0 0.0014112
10050.0 0.0013994
10070.0 0.0013877
10090.0 0.0013761
10110.0 0.0013643
10130.0 0.0013526
10150.0 0.0013413
10170.0 0.0013301
10190.0 0.0013187
10210.0 0.0013078
10230.0 0.0012971
10250.0 0.0012863
10270.0 0.0012756
10290.0 0.0012653
10310.0 0.0012549
10330.0 0.0012445
10350.0 0.0012344
10370.0 0.0012246
10390.0 0.0012146
10410.0 0.0012048
10430.0 0.0011953
10450.0 0.0011859
10470.0 0.0011765
10490.0 0.0011674
10510.0 0.0011584
10530.0 0.0011492
10550.0 0.0011403
10570.0 0.0011317
10590.0 0.0011231
10610.0 0.0011145
10630.0 0.0011062
10650.0 0.0010981
10670.0 0.0010897
10690.0 0.0010817
10710.0 0.0010738
10730.0 0.0010659
10750.0 0.001058
10770.0 0.0010505
10790.0 0.001043
10810.0 0.0010355
10830.0 0.0010282
10850.0 0.0010211
10870.0 0.0010139
10890.0 0.0010068
10910.0 0.001
10930.0 0.00099343
10950.0 0.00098688
10970.0 0.00098073
10990.0 0.00097505
11010.0 0.00098521
11030.0 0.00098085
11050.0 0.00097678
11070.0 0.0009727
11090.0 0.00096832
11110.0 0.00096394
11130.0 0.00095938
11150.0 0.00095441
11170.0 0.00094914
11190.0 0.00094389
11210.0 0.00093834
11230.0 0.00093251
11250.0 0.00092682
11270.0 0.00092125
11290.0 0.00091552
11310.0 0.00090995
11330.0 0.00090492
11350.0 0.00090001
11370.0 0.00089526
11390.0 0.00089097
11410.0 0.00088704
11430.0 0.00088308
11450.0 0.00087943
11470.0 0.00087609
11490.0 0.00087274
11510.0 0.00086929
11530.0 0.00086602
11550.0 0.00086273
11570.0 0.00085916
11590.0 0.00085551
11610.0 0.00085192
11630.0 0.00084802
11650.0 0.00084386
11670.0 0.00083991
11690.0 0.00083594
11710.0 0.00083176
11730.0 0.00082768
11750.0 0.00082391
11770.0 0.00081999
11790.0 0.00081608
11810.0 0.00081247
11830.0 0.00080897
11850.0 0.00080529
11870.0 0.00080189
11890.0 0.0007988
11910.0 0.0007957
11930.0 0.00079272
11950.0 0.00079018
11970.0 0.00078784
11990.0 0.00078565
12010.0 0.00078396
12030.0 0.00078277
12050.0 0.00078194
12070.0 0.00078159
12090.0 0.00078192
12110.0 0.00078274
12130.0 0.00078407
12150.0 0.00078595
12170.0 0.00078831
12190.0 0.00079112
12210.0 0.00079435
12230.0 0.00079788
12250.0 0.00080169
12270.0 0.00080575
12290.0 0.00080991
12310.0 0.00081409
12330.0 0.00081835
12350.0 0.00082254
12370.0 0.00082656
12390.0 0.00083041
12410.0 0.00083405
12430.0 0.00083731
12450.0 0.00084018
12470.0 0.00084259
12490.0 0.00084445
12510.0 0.0008458
12530.0 0.00084649
12550.0 0.00084643
12570.0 0.00084577
12590.0 0.00084446
12610.0 0.00084226
12630.0 0.00083935
12650.0 0.00083611
12670.0 0.00083212
12690.0 0.00082745
12710.0 0.00082254
12730.0 0.00081734
12750.0 0.00081136
12770.0 0.00080533
12790.0 0.00079938
12810.0 0.00079317
12830.0 0.00078671
12850.0 0.00078073
12870.0 0.00077491
12890.0 0.00076898
12910.0 0.00076339
12930.0 0.0007583
12950.0 0.00075322
12970.0 0.00074829
12990.0 0.00074399
13010.0 0.00073993
13030.0 0.00073592
13050.0 0.00073224
13070.0 0.00072896
13090.0 0.00072564
13110.0 0.00072243
13130.0 0.00071953
13150.0 0.00071674
13170.0 0.00071385
13190.0 0.00071121
13210.0 0.00070879
13230.0 0.00070633
13250.0 0.00070389
13270.0 0.00070164
13290.0 0.00069935
13310.0 0.0006969
13330.0 0.00069451
13350.0 0.0006921
13370.0 0.00068946
13390.0 0.0006866
13410.0 0.00068382
13430.0 0.00068079
13450.0 0.00067746
13470.0 0.00067404
13490.0 0.00067057
13510.0 0.00066663
13530.0 0.00066257
13550.0 0.00065854
13570.0 0.00065429
13590.0 0.00064975
13610.0 0.00064525
13630.0 0.00064077
13650.0 0.00063596
13670.0 0.0006311
13690.0 0.00062633
13710.0 0.00062141
13730.0 0.00061617
13750.0 0.00061119
13770.0 0.00060621
13790.0 0.00060102
13810.0 0.00059583
13830.0 0.00059086
13850.0 0.00058569
13870.0 0.00058041
13890.0 0.0005753
13910.0 0.00057024
13930.0 0.00056498
13950.0 0.00055975
13970.0 0.0005548
13990.0 0.00054971
14010.0 0.00054455
14030.0 0.00053959
14050.0 0.00053469
14070.0 0.00052956
14090.0 0.0005246
14110.0 0.00051983
14130.0 0.00051499
14150.0 0.00051012
14170.0 0.00050551
14190.0 0.00050098
14210.0 0.00049636
14230.0 0.00049189
14250.0 0.0004876
14270.0 0.00048322
14290.0 0.00047884
14310.0 0.00047471
14330.0 0.00047062
14350.0 0.00046647
14370.0 0.00046246
14390.0 0.00045861
14410.0 0.00045469
14430.0 0.00045082
14450.0 0.00044713
14470.0 0.0004435
14490.0 0.00043981
14510.0 0.0004363
14530.0 0.00043294
14550.0 0.00042956
14570.0 0.00042624
14590.0 0.00042307
14610.0 0.00041992
14630.0 0.00041673
14650.0 0.00041366
14670.0 0.00041066
14690.0 0.00040763
14710.0 0.0004046
14730.0 0.00040173
14750.0 0.00039885
14770.0 0.00039598
14790.0 0.0003932
14810.0 0.00039051
14830.0 0.00038778
14850.0 0.00038514
14870.0 0.00038262
14890.0 0.00038013
14910.0 0.00037767
14930.0 0.00037531
14950.0 0.00037303
14970.0 0.00037075
14990.0 0.00036855
15010.0 0.00036644
15030.0 0.00036435
15050.0 0.00036227
15070.0 0.00036027
15090.0 0.00035829
15110.0 0.0003563
15130.0 0.00035432
15150.0 0.00035237
15170.0 0.00035039
15190.0 0.00034839
15210.0 0.00034642
15230.0 0.00034444
15250.0 0.00034244
15270.0 0.00034044
15290.0 0.00033847
15310.0 0.00033648
15330.0 0.00033447
15350.0 0.00033249
15370.0 0.00033051
15390.0 0.00032849
15410.0 0.00032649
15430.0 0.00032451
15450.0 0.00032251
15470.0 0.0003205
15490.0 0.00031852
15510.0 0.00031654
15530.0 0.00031454
15550.0 0.00031255
15570.0 0.00031059
15590.0 0.00030859
15610.0 0.00030659
15630.0 0.00030463
15650.0 0.00030267
15670.0 0.00030069
15690.0 0.00029872
15710.0 0.00029678
15730.0 0.00029482
15750.0 0.00029286
15770.0 0.00029092
15790.0 0.00028899
15810.0 0.00028703
15830.0 0.0002851
15850.0 0.00028319
15870.0 0.00028127
15890.0 0.00027935
15910.0 0.00027746
15930.0 0.00027556
15950.0 0.00027365
15970.0 0.00027177
15990.0 0.0002699
16010.0 0.00026802
16030.0 0.00026614
16050.0 0.00026431
16070.0 0.00026246
16090.0 0.00026061
16110.0 0.00025878
16130.0 0.00025697
16150.0 0.00025513
16170.0 0.00025332
16190.0 0.00025153
16210.0 0.00024974
16230.0 0.00024794
16250.0 0.00024618
16270.0 0.00024443
16290.0 0.00024266
16310.0 0.00024091
16330.0 0.00023919
16350.0 0.00023746
16370.0 0.00023571
16390.0 0.00023402
16410.0 0.00023233
16430.0 0.00023063
16450.0 0.00022894
16470.0 0.00022729
16490.0 0.00022563
16510.0 0.00022396
16530.0 0.00022233
16550.0 0.00022071
16570.0 0.00021908
16590.0 0.00021746
16610.0 0.00021588
16630.0 0.00021429
16650.0 0.0002127
16670.0 0.00021114
16690.0 0.00020959
16710.0 0.00020803
16730.0 0.00020649
16750.0 0.00020498
16770.0 0.00020346
16790.0 0.00020194
16810.0 0.00020046
16830.0 0.00019899
16850.0 0.0001975
16870.0 0.00019604
16890.0 0.00019461
16910.0 0.00019316
16930.0 0.00019172
16950.0 0.00019031
16970.0 0.00018891
16990.0 0.0001875
17010.0 0.00018612
17030.0 0.00018476
17050.0 0.00018339
17070.0 0.00018204
17090.0 0.0001807
17110.0 0.00017938
17130.0 0.00017804
17150.0 0.00017674
17170.0 0.00017546
17190.0 0.00017417
17210.0 0.00017289
17230.0 0.00017164
17250.0 0.00017039
17270.0 0.00016914
17290.0 0.00016791
17310.0 0.0001667
17330.0 0.00016549
17350.0 0.00016428
17370.0 0.00016311
17390.0 0.00016194
17410.0 0.00016077
17430.0 0.00015962
17450.0 0.00015849
17470.0 0.00015735
17490.0 0.00015622
17510.0 0.00015513
17530.0 0.00015403
17550.0 0.00015293
17570.0 0.00015187
17590.0 0.00015081
17610.0 0.00014975
17630.0 0.00014871
17650.0 0.00014769
17670.0 0.00014666
17690.0 0.00014564
17710.0 0.00014465
17730.0 0.00014367
17750.0 0.00014268
17770.0 0.00014172
17790.0 0.00014077
17810.0 0.00013982
17830.0 0.00013888
17850.0 0.00013796
17870.0 0.00013705
17890.0 0.00013614
17910.0 0.00013524
17930.0 0.00013438
17950.0 0.0001335
17970.0 0.00013264
17990.0 0.00013179
18010.0 0.00013096
18030.0 0.00013012
18050.0 0.0001293
18070.0 0.0001285
18090.0 0.00012769
18110.0 0.0001269
18130.0 0.00012613
18150.0 0.00012536
18170.0 0.0001246
18190.0 0.00012385
18210.0 0.00012312
18230.0 0.00012239
18250.0 0.00012166
18270.0 0.00012096
18290.0 0.00012026
18310.0 0.00011956
18330.0 0.00011889
18350.0 0.00011823
18370.0 0.00011756
18390.0 0.0001169
18410.0 0.00011627
18430.0 0.00011564
18450.0 0.000115
18470.0 0.00011439
18490.0 0.0001138
18510.0 0.0001132
18530.0 0.00011261
18550.0 0.00011204
18570.0 0.00011148
18590.0 0.00011091
18610.0 0.00011036
18630.0 0.00010982
18650.0 0.00010929
18670.0 0.00010876
18690.0 0.00010825
18710.0 0.00010775
18730.0 0.00010724
18750.0 0.00010676
18770.0 0.00010629
18790.0 0.0001058
18810.0 0.00010533
18830.0 0.00010489
18850.0 0.00010444
18870.0 0.00010399
18890.0 0.00010357
18910.0 0.00010315
18930.0 0.00010272
18950.0 0.00010231
18970.0 0.00010192
18990.0 0.00010153
19010.0 0.00010113
19030.0 0.00010076
19050.0 0.00010039
19070.0 0.00010002
19090.0 9.9666e-05
19110.0 9.933e-05
19130.0 9.8981e-05
19150.0 9.8638e-05
19170.0 9.8316e-05
19190.0 9.7998e-05
19210.0 9.7673e-05
19230.0 9.7362e-05
19250.0 9.7072e-05
19270.0 9.6773e-05
19290.0 9.6479e-05
19310.0 9.6204e-05
19330.0 9.5932e-05
19350.0 9.5646e-05
19370.0 9.5382e-05
19390.0 9.513e-05
19410.0 9.4873e-05
19430.0 9.4617e-05
19450.0 9.4385e-05
19470.0 9.4152e-05
19490.0 9.3912e-05
19510.0 9.3687e-05
19530.0 9.3475e-05
19550.0 9.325e-05
19570.0 9.3029e-05
19590.0 9.2832e-05
19610.0 9.2632e-05
19630.0 9.2427e-05
19650.0 9.2237e-05
19670.0 9.2059e-05
19690.0 9.1866e-05
19710.0 9.1682e-05
19730.0 9.1513e-05
19750.0 9.1342e-05
19770.0 9.116e-05
19790.0 9.0999e-05
19810.0 9.0847e-05
19830.0 9.0684e-05
19850.0 9.0527e-05
19870.0 9.0387e-05
19890.0 9.0238e-05
19910.0 9.008e-05
19930.0 8.9941e-05
19950.0 8.9806e-05
19970.0 8.9658e-05
19990.0 8.9509e-05
20010.0 8.9377e-05
20030.0 8.9226e-05
20050.0 8.906e-05
20070.0 8.89e-05
20090.0 8.8734e-05
20110.0 8.8531e-05
20130.0 8.8332e-05
20150.0 8.8141e-05
20170.0 8.7932e-05
20190.0 8.7711e-05
20210.0 8.7509e-05
20230.0 8.7309e-05
20250.0 8.7092e-05
20270.0 8.6893e-05
20290.0 8.6715e-05
20310.0 8.6536e-05
20330.0 8.6354e-05
20350.0 8.622e-05
20370.0 8.6096e-05
20390.0 8.5979e-05
20410.0 8.5889e-05
20430.0 8.5833e-05
20450.0 8.5778e-05
20470.0 8.5749e-05
20490.0 8.5757e-05
20510.0 8.5788e-05
20530.0 8.5836e-05
20550.0 8.5921e-05
20570.0 8.6043e-05
20590.0 8.6187e-05
20610.0 8.6364e-05
20630.0 8.6577e-05
20650.0 8.6821e-05
20670.0 8.7095e-05
20690.0 8.7403e-05
20710.0 8.7738e-05
20730.0 8.8099e-05
20750.0 8.8483e-05
20770.0 8.888e-05
20790.0 8.9289e-05
20810.0 8.9704e-05
20830.0 9.0116e-05
20850.0 9.0518e-05
20870.0 9.0907e-05
20890.0 9.1271e-05
20910.0 9.1607e-05
20930.0 9.1908e-05
20950.0 9.2168e-05
20970.0 9.2387e-05
20990.0 9.2565e-05
21010.0 9.2687e-05
21030.0 9.2762e-05
21050.0 9.28e-05
21070.0 9.2788e-05
21090.0 9.272e-05
21110.0 9.2632e-05
21130.0 9.2517e-05
21150.0 9.2356e-05
21170.0 9.2176e-05
21190.0 9.1996e-05
21210.0 9.1782e-05
21230.0 9.1546e-05
21250.0 9.1328e-05
21270.0 9.1109e-05
21290.0 9.0872e-05
21310.0 9.0641e-05
21330.0 9.0437e-05
21350.0 9.0217e-05
21370.0 8.9991e-05
21390.0 8.9783e-05
21410.0 8.9577e-05
21430.0 8.9336e-05
21450.0 8.9108e-05
21470.0 8.8888e-05
21490.0 8.8644e-05
21510.0 8.838e-05
21530.0 8.8127e-05
21550.0 8.7858e-05
21570.0 8.7552e-05
21590.0 8.7248e-05
21610.0 8.6945e-05
21630.0 8.6614e-05
21650.0 8.6255e-05
21670.0 8.5929e-05
21690.0 8.5588e-05
21710.0 8.5224e-05
21730.0 8.4871e-05
21750.0 8.4537e-05
21770.0 8.4167e-05
21790.0 8.3803e-05
21810.0 8.3462e-05
21830.0 8.3118e-05
21850.0 8.2757e-05
21870.0 8.2414e-05
21890.0 8.2091e-05
21910.0 8.1746e-05
21930.0 8.14e-05
21950.0 8.1073e-05
21970.0 8.0734e-05
21990.0 8.0364e-05
22010.0 8.0013e-05
22030.0 7.9662e-05
22050.0 7.9282e-05
22070.0 7.889e-05
22090.0 7.8511e-05
22110.0 7.8105e-05
22130.0 7.767e-05
22150.0 7.7239e-05
22170.0 7.6803e-05
22190.0 7.6326e-05
22210.0 7.584e-05
22230.0 7.5376e-05
22250.0 7.4888e-05
22270.0 7.4378e-05
22290.0 7.3886e-05
22310.0 7.3398e-05
22330.0 7.2875e-05
22350.0 7.2365e-05
22370.0 7.1876e-05
22390.0 7.1377e-05
22410.0 7.0865e-05
22430.0 7.039e-05
22450.0 6.9927e-05
22470.0 6.9453e-05
22490.0 6.8998e-05
22510.0 6.8574e-05
22530.0 6.8142e-05
22550.0 6.7716e-05
22570.0 6.7329e-05
22590.0 6.6957e-05
22610.0 6.6585e-05
22630.0 6.6236e-05
22650.0 6.5919e-05
22670.0 6.5602e-05
22690.0 6.5296e-05
22710.0 6.5015e-05
22730.0 6.4748e-05
22750.0 6.4474e-05
22770.0 6.4225e-05
22790.0 6.3996e-05
22810.0 6.3769e-05
22830.0 6.355e-05
22850.0 6.3355e-05
22870.0 6.3168e-05
22890.0 6.2985e-05
22910.0 6.2823e-05
22930.0 6.268e-05
22950.0 6.2546e-05
22970.0 6.2428e-05
22990.0 6.2338e-05
23010.0 6.2265e-05
23030.0 6.2213e-05
23050.0 6.2185e-05
23070.0 6.2183e-05
23090.0 6.2207e-05
23110.0 6.226e-05
23130.0 6.234e-05
23150.0 6.245e-05
23170.0 6.2594e-05
23190.0 6.2763e-05
