#lamb flux
1010.0 3.8665e-08
1030.0 4.2764e-08
1050.0 4.7478e-08
1070.0 5.2785e-08
1090.0 5.8813e-08
1110.0 6.4996e-08
1130.0 7.1219e-08
1150.0 7.7737e-08
1170.0 8.4461e-08
1190.0 9.0836e-08
1210.0 9.7298e-08
1230.0 1.0398e-07
1250.0 1.1052e-07
1270.0 1.1687e-07
1290.0 1.2358e-07
1310.0 1.3029e-07
1330.0 1.3673e-07
1350.0 1.4323e-07
1370.0 1.4995e-07
1390.0 1.565e-07
1410.0 1.6285e-07
1430.0 1.695e-07
1450.0 1.7614e-07
1470.0 1.8256e-07
1490.0 1.8905e-07
1510.0 1.9591e-07
1530.0 2.0241e-07
1550.0 2.0882e-07
1570.0 2.1545e-07
1590.0 2.2209e-07
1610.0 2.2844e-07
1630.0 2.3499e-07
1650.0 2.4171e-07
1670.0 2.4821e-07
1690.0 2.5464e-07
1710.0 2.6132e-07
1730.0 2.6804e-07
1750.0 2.7436e-07
1770.0 2.8088e-07
1790.0 2.8754e-07
1810.0 2.9399e-07
1830.0 3.0034e-07
1850.0 3.0709e-07
1870.0 3.1367e-07
1890.0 3.2005e-07
1910.0 3.2656e-07
1930.0 3.3325e-07
1950.0 3.3964e-07
1970.0 3.4598e-07
1990.0 3.5256e-07
2010.0 3.5906e-07
2030.0 3.6533e-07
2050.0 3.7181e-07
2070.0 3.7847e-07
2090.0 3.8477e-07
2110.0 3.9106e-07
2130.0 3.9755e-07
2150.0 4.0394e-07
2170.0 4.1006e-07
2190.0 4.1642e-07
2210.0 4.2283e-07
2230.0 4.29e-07
2250.0 4.3514e-07
2270.0 4.4157e-07
2290.0 4.4781e-07
2310.0 4.538e-07
2330.0 4.6004e-07
2350.0 4.6645e-07
2370.0 4.7283e-07
2390.0 4.7974e-07
2410.0 4.8792e-07
2430.0 4.9734e-07
2450.0 5.0859e-07
2470.0 5.2301e-07
2490.0 5.4119e-07
2510.0 5.6185e-07
2530.0 5.8672e-07
2550.0 6.1785e-07
2570.0 6.5657e-07
2590.0 7.0695e-07
2610.0 7.8237e-07
2630.0 8.9004e-07
2650.0 1.0308e-06
2670.0 1.2129e-06
2690.0 1.4366e-06
2710.0 1.6754e-06
2730.0 1.9113e-06
2750.0 2.1437e-06
2770.0 2.3459e-06
2790.0 2.5064e-06
2810.0 2.6338e-06
2830.0 2.7333e-06
2850.0 2.8012e-06
2870.0 2.8511e-06
2890.0 2.8906e-06
2910.0 2.9221e-06
2930.0 2.9478e-06
2950.0 2.9724e-06
2970.0 2.9964e-06
2990.0 3.019e-06
3010.0 8.5333e-05
3030.0 8.5971e-05
3050.0 8.6588e-05
3070.0 8.7116e-05
3090.0 8.757e-05
3110.0 8.7852e-05
3130.0 8.784e-05
3150.0 8.745e-05
3170.0 8.6514e-05
3190.0 8.5043e-05
3210.0 8.3178e-05
3230.0 8.1042e-05
3250.0 7.8935e-05
3270.0 7.7395e-05
3290.0 7.654e-05
3310.0 7.6678e-05
3330.0 7.7788e-05
3350.0 7.9721e-05
3370.0 8.248e-05
3390.0 8.5957e-05
3410.0 8.9742e-05
3430.0 9.399e-05
3450.0 9.8881e-05
3470.0 0.00010422
3490.0 0.00010988
3510.0 0.00011628
3530.0 0.00012313
3550.0 0.00013007
3570.0 0.00013731
3590.0 0.00014518
3610.0 0.00015328
3630.0 0.00016137
3650.0 0.00016976
3670.0 0.00017741
3690.0 0.00018314
3710.0 0.00018642
3730.0 0.00018653
3750.0 0.00018393
3770.0 0.00018291
3790.0 0.00018182
3810.0 0.00017735
3830.0 0.00018284
3850.0 0.00020444
3870.0 0.0002163
3890.0 0.00021531
3910.0 0.00021623
3930.0 0.00022192
3950.0 0.00022542
3970.0 0.00020538
3990.0 0.00017672
4010.0 0.00052966
4030.0 0.00064176
4050.0 0.00073573
4070.0 0.00063837
4090.0 0.00057817
4110.0 0.00051018
4130.0 0.00046957
4150.0 0.00049948
4170.0 0.00049201
4190.0 0.00052445
4210.0 0.00051965
4230.0 0.00054965
4250.0 0.00065025
4270.0 0.00065789
4290.0 0.00060624
4310.0 0.00062993
4330.0 0.00067005
4350.0 0.00075129
4370.0 0.00085499
4390.0 0.00080231
4410.0 0.00059277
4430.0 0.00050182
4450.0 0.00046111
4470.0 0.00035392
4490.0 0.00038192
4510.0 0.0005769
4530.0 0.00066534
4550.0 0.00067111
4570.0 0.00075518
4590.0 0.00086022
4610.0 0.0011602
4630.0 0.0015069
4650.0 0.0016342
4670.0 0.0015134
4690.0 0.0014441
4710.0 0.0015265
4730.0 0.0014406
4750.0 0.001077
4770.0 0.00079003
4790.0 0.00073774
4810.0 0.00070318
4830.0 0.00064376
4850.0 0.00070641
4870.0 0.00093324
4890.0 0.0011006
4910.0 0.0009656
4930.0 0.00085441
4950.0 0.0009387
4970.0 0.0012038
4990.0 0.0016315
5010.0 0.0018768
5030.0 0.0016549
5050.0 0.0011196
5070.0 0.00073789
5090.0 0.000595
5110.0 0.0006119
5130.0 0.00070623
5150.0 0.00076514
5170.0 0.00075366
5190.0 0.00070425
5210.0 0.0007361
5230.0 0.00077381
5250.0 0.00083396
5270.0 0.00089978
5290.0 0.00099715
5310.0 0.0011606
5330.0 0.0012844
5350.0 0.0012762
5370.0 0.0013406
5390.0 0.0015383
5410.0 0.0015369
5430.0 0.0013592
5450.0 0.0012488
5470.0 0.001326
5490.0 0.00162
5510.0 0.0020256
5530.0 0.0023232
5550.0 0.0022455
5570.0 0.0020413
5590.0 0.0017749
5610.0 0.0016369
5630.0 0.0015873
5650.0 0.0015117
5670.0 0.0014325
5690.0 0.0012806
5710.0 0.0012487
5730.0 0.0011502
5750.0 0.00081096
5770.0 0.00063269
5790.0 0.00071697
5810.0 0.00080959
5830.0 0.00099348
5850.0 0.0011826
5870.0 0.0013122
5890.0 0.0013344
5910.0 0.0013091
5930.0 0.0012461
5950.0 0.0012698
5970.0 0.0014474
5990.0 0.001361
6010.0 0.0011409
6030.0 0.0009639
6050.0 0.00083944
6070.0 0.00083484
6090.0 0.00090525
6110.0 0.0010122
6130.0 0.0010277
6150.0 0.00088426
6170.0 0.00077788
6190.0 0.00087539
6210.0 0.0011573
6230.0 0.0015186
6250.0 0.0016449
6270.0 0.0014374
6290.0 0.0012094
6310.0 0.00094413
6330.0 0.00072339
6350.0 0.00064524
6370.0 0.00067854
6390.0 0.00078443
6410.0 0.00096724
6430.0 0.0011295
6450.0 0.0012924
6470.0 0.0014798
6490.0 0.0017875
6510.0 0.0019987
6530.0 0.0019608
6550.0 0.0017731
6570.0 0.0015052
6590.0 0.0013573
6610.0 0.0011703
6630.0 0.0010603
6650.0 0.0010023
6670.0 0.00097369
6690.0 0.00087978
6710.0 0.00079974
6730.0 0.00057604
6750.0 0.00057108
6770.0 0.00062073
6790.0 0.00071348
6810.0 0.00065285
6830.0 0.00067225
6850.0 0.00062877
6870.0 0.00057438
6890.0 0.00055149
6910.0 0.00058769
6930.0 0.00055045
6950.0 0.00056632
6970.0 0.00059567
6990.0 0.00067613
7010.0 0.00068189
7030.0 0.00069272
7050.0 0.00066062
7070.0 0.00062946
7090.0 0.0006313
7110.0 0.00064956
7130.0 0.00069903
7150.0 0.00074242
7170.0 0.00081921
7190.0 0.00090054
7210.0 0.0008849
7230.0 0.00090969
7250.0 0.00097761
7270.0 0.0010654
7290.0 0.0012645
7310.0 0.0013721
7330.0 0.0013262
7350.0 0.0011995
7370.0 0.0010437
7390.0 0.0010125
7410.0 0.001076
7430.0 0.0011958
7450.0 0.0013024
7470.0 0.0012905
7490.0 0.0011767
7510.0 0.0013329
7530.0 0.0013183
7550.0 0.0011849
7570.0 0.00092562
7590.0 0.00063633
7610.0 0.00054616
7630.0 0.00062054
7650.0 0.00073371
7670.0 0.00091315
7690.0 0.0010048
7710.0 0.0010472
7730.0 0.0011005
7750.0 0.0012354
7770.0 0.0012548
7790.0 0.0011526
7810.0 0.0010517
7830.0 0.0010845
7850.0 0.0010542
7870.0 0.00096656
7890.0 0.0008121
7910.0 0.00066013
7930.0 0.00063032
7950.0 0.00057424
7970.0 0.00053156
7990.0 0.00052853
8010.0 3.9144e-05
8030.0 3.8635e-05
8050.0 3.8114e-05
8070.0 3.8613e-05
8090.0 4.1489e-05
8110.0 4.0782e-05
8130.0 3.364e-05
8150.0 3.2762e-05
8170.0 2.8219e-05
8190.0 2.6744e-05
8210.0 3.473e-05
8230.0 3.8667e-05
8250.0 3.485e-05
8270.0 3.0332e-05
8290.0 2.9568e-05
8310.0 2.2757e-05
8330.0 1.5338e-05
8350.0 1.0885e-05
8370.0 6.8582e-06
8390.0 1.2537e-05
8410.0 1.4609e-05
8430.0 1.8007e-05
8450.0 2.1146e-05
8470.0 2.6283e-05
8490.0 2.6097e-05
8510.0 2.567e-05
8530.0 2.6791e-05
8550.0 3.6146e-05
8570.0 4.2792e-05
8590.0 4.6172e-05
8610.0 5.8325e-05
8630.0 7.0261e-05
8650.0 7.35e-05
8670.0 7.8108e-05
8690.0 7.8546e-05
8710.0 7.1134e-05
8730.0 6.6166e-05
8750.0 5.8404e-05
8770.0 5.5416e-05
8790.0 5.4444e-05
8810.0 5.2169e-05
8830.0 4.1717e-05
8850.0 3.054e-05
8870.0 2.3384e-05
8890.0 2.2862e-05
8910.0 2.62e-05
8930.0 2.98e-05
8950.0 3.0371e-05
8970.0 3.0515e-05
8990.0 2.7215e-05
9010.0 0.0002852
9030.0 0.00025843
9050.0 0.00025968
9070.0 0.00026173
9090.0 0.00026352
9110.0 0.00026574
9130.0 0.00026746
9150.0 0.00026879
9170.0 0.00027021
9190.0 0.00027172
9210.0 0.00027332
9230.0 0.000275
9250.0 0.00027671
9270.0 0.00027849
9290.0 0.00028032
9310.0 0.00028216
9330.0 0.00028404
9350.0 0.00028598
9370.0 0.00028795
9390.0 0.00028994
9410.0 0.00029199
9430.0 0.0002941
9450.0 0.0002962
9470.0 0.00029834
9490.0 0.00030055
9510.0 0.00030278
9530.0 0.00030502
9550.0 0.00030734
9570.0 0.0003097
9590.0 0.00031207
9610.0 0.00031448
9630.0 0.00031696
9650.0 0.00031945
9670.0 0.00032195
9690.0 0.00032451
9710.0 0.00032712
9730.0 0.00032973
9750.0 0.00033238
9770.0 0.00033511
9790.0 0.00033783
9810.0 0.00034057
9830.0 0.00034337
9850.0 0.0003462
9870.0 0.00034902
9890.0 0.00035189
9910.0 0.00035481
9930.0 0.00035773
9950.0 0.00036067
9970.0 0.00036366
9990.0 0.00036668
10010.0 0.00031818
10030.0 0.00032079
10050.0 0.00032346
10070.0 0.00032622
10090.0 0.00032881
10110.0 0.00033148
10130.0 0.00033415
10150.0 0.00033681
10170.0 0.00033951
10190.0 0.00034225
10210.0 0.00034497
10230.0 0.00034767
10250.0 0.00035042
10270.0 0.00035316
10290.0 0.00035587
10310.0 0.00035862
10330.0 0.00036139
10350.0 0.00036411
10370.0 0.00036683
10390.0 0.00036958
10410.0 0.00037231
10430.0 0.00037499
10450.0 0.0003777
10470.0 0.00038042
10490.0 0.00038308
10510.0 0.00038573
10530.0 0.00038843
10550.0 0.00039108
10570.0 0.00039367
10590.0 0.00039628
10610.0 0.00039889
10630.0 0.00040143
10650.0 0.00040395
10670.0 0.0004065
10690.0 0.00040899
10710.0 0.00041144
10730.0 0.00041388
10750.0 0.00041634
10770.0 0.00041869
10790.0 0.00042102
10810.0 0.00042335
10830.0 0.00042561
10850.0 0.00042776
10870.0 0.00042983
10890.0 0.00043166
10910.0 0.00043307
10930.0 0.00043387
10950.0 0.00043368
10970.0 0.00043221
10990.0 0.00042933
11010.0 0.00042451
11030.0 0.00041775
11050.0 0.00040952
11070.0 0.00039968
11090.0 0.00038786
11110.0 0.00037562
11130.0 0.00036287
11150.0 0.00034913
11170.0 0.00033497
11190.0 0.00032123
11210.0 0.00030705
11230.0 0.0002925
11250.0 0.0002786
11270.0 0.00026525
11290.0 0.00025188
11310.0 0.00023921
11330.0 0.00022806
11350.0 0.00021752
11370.0 0.00020778
11390.0 0.00019935
11410.0 0.00019198
11430.0 0.00018514
11450.0 0.00017923
11470.0 0.00017413
11490.0 0.00016938
11510.0 0.00016481
11530.0 0.00016056
11550.0 0.00015635
11570.0 0.00015185
11590.0 0.00014719
11610.0 0.00014244
11630.0 0.00013728
11650.0 0.00013176
11670.0 0.00012631
11690.0 0.00012079
11710.0 0.00011509
11730.0 0.00010957
11750.0 0.00010446
11770.0 9.9446e-05
11790.0 9.475e-05
11810.0 9.0616e-05
11830.0 8.6919e-05
11850.0 8.3513e-05
11870.0 8.0665e-05
11890.0 7.8297e-05
11910.0 7.6215e-05
11930.0 7.4427e-05
11950.0 7.2938e-05
11970.0 7.1607e-05
11990.0 7.0349e-05
12010.0 6.9185e-05
12030.0 6.8064e-05
12050.0 6.6905e-05
12070.0 6.5699e-05
12090.0 6.4536e-05
12110.0 6.3356e-05
12130.0 6.2174e-05
12150.0 6.1084e-05
12170.0 6.0132e-05
12190.0 5.9309e-05
12210.0 5.8735e-05
12230.0 5.8457e-05
12250.0 5.8502e-05
12270.0 5.8943e-05
12290.0 5.9777e-05
12310.0 6.0973e-05
12330.0 6.2647e-05
12350.0 6.4735e-05
12370.0 6.7114e-05
12390.0 6.9855e-05
12410.0 7.3068e-05
12430.0 7.6334e-05
12450.0 7.9715e-05
12470.0 8.331e-05
12490.0 8.6921e-05
12510.0 9.0309e-05
12530.0 9.368e-05
12550.0 9.6931e-05
12570.0 9.9801e-05
12590.0 0.00010232
12610.0 0.00010457
12630.0 0.00010636
12650.0 0.00010759
12670.0 0.0001084
12690.0 0.00010873
12710.0 0.00010855
12730.0 0.00010792
12750.0 0.0001068
12770.0 0.00010526
12790.0 0.00010339
12810.0 0.00010116
12830.0 9.8577e-05
12850.0 9.5878e-05
12870.0 9.3023e-05
12890.0 8.9935e-05
12910.0 8.6796e-05
12930.0 8.3702e-05
12950.0 8.0474e-05
12970.0 7.7187e-05
12990.0 7.4078e-05
13010.0 7.1007e-05
13030.0 6.7903e-05
13050.0 6.4921e-05
13070.0 6.2127e-05
13090.0 5.9324e-05
13110.0 5.6612e-05
13130.0 5.4111e-05
13150.0 5.1743e-05
13170.0 4.9425e-05
13190.0 4.7362e-05
13210.0 4.5546e-05
13230.0 4.3886e-05
13250.0 4.2456e-05
13270.0 4.1329e-05
13290.0 4.0452e-05
13310.0 3.9848e-05
13330.0 3.9573e-05
13350.0 3.9605e-05
13370.0 3.996e-05
13390.0 4.0658e-05
13410.0 4.1601e-05
13430.0 4.2827e-05
13450.0 4.4341e-05
13470.0 4.6022e-05
13490.0 4.7802e-05
13510.0 4.9811e-05
13530.0 5.1846e-05
13550.0 5.3794e-05
13570.0 5.5716e-05
13590.0 5.7588e-05
13610.0 5.9254e-05
13630.0 6.0708e-05
13650.0 6.2035e-05
13670.0 6.3137e-05
13690.0 6.399e-05
13710.0 6.4649e-05
13730.0 6.512e-05
13750.0 6.5355e-05
13770.0 6.5408e-05
13790.0 6.529e-05
13810.0 6.5001e-05
13830.0 6.4576e-05
13850.0 6.3998e-05
13870.0 6.3271e-05
13890.0 6.2439e-05
13910.0 6.1501e-05
13930.0 6.0415e-05
13950.0 5.923e-05
13970.0 5.8018e-05
13990.0 5.6698e-05
14010.0 5.5295e-05
14030.0 5.3895e-05
14050.0 5.2484e-05
14070.0 5.0995e-05
14090.0 4.9568e-05
14110.0 4.8226e-05
14130.0 4.6926e-05
14150.0 4.5703e-05
14170.0 4.4658e-05
14190.0 4.3755e-05
14210.0 4.2989e-05
14230.0 4.2422e-05
14250.0 4.2055e-05
14270.0 4.1878e-05
14290.0 4.1916e-05
14310.0 4.2149e-05
14330.0 4.2568e-05
14350.0 4.3186e-05
14370.0 4.3955e-05
14390.0 4.4829e-05
14410.0 4.5858e-05
14430.0 4.6987e-05
14450.0 4.8141e-05
14470.0 4.9338e-05
14490.0 5.0611e-05
14510.0 5.1829e-05
14530.0 5.2985e-05
14550.0 5.4141e-05
14570.0 5.525e-05
14590.0 5.626e-05
14610.0 5.7237e-05
14630.0 5.8204e-05
14650.0 5.9104e-05
14670.0 5.9974e-05
14690.0 6.088e-05
14710.0 6.1834e-05
14730.0 6.2787e-05
14750.0 6.3843e-05
14770.0 6.5041e-05
14790.0 6.6339e-05
14810.0 6.7746e-05
14830.0 6.9413e-05
14850.0 7.1225e-05
14870.0 7.3115e-05
14890.0 7.5155e-05
14910.0 7.7321e-05
14930.0 7.9404e-05
14950.0 8.135e-05
14970.0 8.3192e-05
14990.0 8.4738e-05
15010.0 8.5919e-05
15030.0 8.6794e-05
15050.0 8.7373e-05
15070.0 8.7656e-05
15090.0 8.7755e-05
15110.0 8.7726e-05
15130.0 8.7616e-05
15150.0 8.7468e-05
15170.0 8.7292e-05
15190.0 8.7104e-05
15210.0 8.6919e-05
15230.0 8.6735e-05
15250.0 8.6543e-05
15270.0 8.6354e-05
15290.0 8.6174e-05
15310.0 8.599e-05
15330.0 8.5804e-05
15350.0 8.5625e-05
15370.0 8.5448e-05
15390.0 8.5261e-05
15410.0 8.5081e-05
15430.0 8.4907e-05
15450.0 8.4728e-05
15470.0 8.4546e-05
15490.0 8.4374e-05
15510.0 8.4202e-05
15530.0 8.4024e-05
15550.0 8.385e-05
15570.0 8.3682e-05
15590.0 8.3507e-05
15610.0 8.3329e-05
15630.0 8.3162e-05
15650.0 8.2993e-05
15670.0 8.282e-05
15690.0 8.265e-05
15710.0 8.2487e-05
15730.0 8.2316e-05
15750.0 8.2145e-05
15770.0 8.1981e-05
15790.0 8.1816e-05
15810.0 8.1642e-05
15830.0 8.1476e-05
15850.0 8.1315e-05
15870.0 8.1148e-05
15890.0 8.098e-05
15910.0 8.082e-05
15930.0 8.0656e-05
15950.0 8.0486e-05
15970.0 8.0323e-05
15990.0 8.0162e-05
16010.0 7.9995e-05
16030.0 7.9827e-05
16050.0 7.9669e-05
16070.0 7.9507e-05
16090.0 7.934e-05
16110.0 7.9179e-05
16130.0 7.9021e-05
16150.0 7.8851e-05
16170.0 7.8686e-05
16190.0 7.8527e-05
16210.0 7.8364e-05
16230.0 7.8197e-05
16250.0 7.8036e-05
16270.0 7.7877e-05
16290.0 7.7711e-05
16310.0 7.7546e-05
16330.0 7.7387e-05
16350.0 7.7224e-05
16370.0 7.7052e-05
16390.0 7.6892e-05
16410.0 7.6731e-05
16430.0 7.6564e-05
16450.0 7.6399e-05
16470.0 7.6241e-05
16490.0 7.6074e-05
16510.0 7.5905e-05
16530.0 7.5743e-05
16550.0 7.558e-05
16570.0 7.541e-05
16590.0 7.5241e-05
16610.0 7.5081e-05
16630.0 7.4914e-05
16650.0 7.4745e-05
16670.0 7.4581e-05
16690.0 7.4418e-05
16710.0 7.4243e-05
16730.0 7.4075e-05
16750.0 7.391e-05
16770.0 7.374e-05
16790.0 7.3567e-05
16810.0 7.3402e-05
16830.0 7.3235e-05
16850.0 7.3061e-05
16870.0 7.2891e-05
16890.0 7.2725e-05
16910.0 7.255e-05
16930.0 7.2373e-05
16950.0 7.2205e-05
16970.0 7.2035e-05
16990.0 7.1858e-05
17010.0 7.1685e-05
17030.0 7.1517e-05
17050.0 7.134e-05
17070.0 7.1162e-05
17090.0 7.0991e-05
17110.0 7.0817e-05
17130.0 7.0634e-05
17150.0 7.0458e-05
17170.0 7.0286e-05
17190.0 7.0107e-05
17210.0 6.9927e-05
17230.0 6.9754e-05
17250.0 6.9576e-05
17270.0 6.9391e-05
17290.0 6.9212e-05
17310.0 6.9036e-05
17330.0 6.8852e-05
17350.0 6.8667e-05
17370.0 6.8492e-05
17390.0 6.8311e-05
17410.0 6.8125e-05
17430.0 6.7944e-05
17450.0 6.7766e-05
17470.0 6.7575e-05
17490.0 6.7389e-05
17510.0 6.7208e-05
17530.0 6.7023e-05
17550.0 6.6833e-05
17570.0 6.665e-05
17590.0 6.6469e-05
17610.0 6.6278e-05
17630.0 6.6089e-05
17650.0 6.5906e-05
17670.0 6.5718e-05
17690.0 6.5521e-05
17710.0 6.5336e-05
17730.0 6.515e-05
17750.0 6.4957e-05
17770.0 6.4766e-05
17790.0 6.4582e-05
17810.0 6.4388e-05
17830.0 6.4193e-05
17850.0 6.4004e-05
17870.0 6.3814e-05
17890.0 6.3616e-05
17910.0 6.3421e-05
17930.0 6.3234e-05
17950.0 6.304e-05
17970.0 6.2843e-05
17990.0 6.2652e-05
18010.0 6.2461e-05
18030.0 6.2258e-05
18050.0 6.2063e-05
18070.0 6.1871e-05
18090.0 6.1674e-05
18110.0 6.1473e-05
18130.0 6.1281e-05
18150.0 6.1087e-05
18170.0 6.0885e-05
18190.0 6.0688e-05
18210.0 6.0496e-05
18230.0 6.0294e-05
18250.0 6.009e-05
18270.0 5.9896e-05
18290.0 5.9698e-05
18310.0 5.9495e-05
18330.0 5.9297e-05
18350.0 5.9103e-05
18370.0 5.8899e-05
18390.0 5.8697e-05
18410.0 5.85e-05
18430.0 5.8301e-05
18450.0 5.8093e-05
18470.0 5.7893e-05
18490.0 5.7697e-05
18510.0 5.7493e-05
18530.0 5.729e-05
18550.0 5.7094e-05
18570.0 5.6891e-05
18590.0 5.6683e-05
18610.0 5.6483e-05
18630.0 5.6284e-05
18650.0 5.6078e-05
18670.0 5.5871e-05
18690.0 5.5675e-05
18710.0 5.5472e-05
18730.0 5.5265e-05
18750.0 5.5065e-05
18770.0 5.4866e-05
18790.0 5.4655e-05
18810.0 5.445e-05
18830.0 5.4251e-05
18850.0 5.4047e-05
18870.0 5.3839e-05
18890.0 5.3638e-05
18910.0 5.3439e-05
18930.0 5.323e-05
18950.0 5.3025e-05
18970.0 5.2826e-05
18990.0 5.2621e-05
19010.0 5.2408e-05
19030.0 5.2209e-05
19050.0 5.2007e-05
19070.0 5.18e-05
19090.0 5.1595e-05
19110.0 5.1397e-05
19130.0 5.119e-05
19150.0 5.0981e-05
19170.0 5.078e-05
19190.0 5.0578e-05
19210.0 5.0368e-05
19230.0 5.0162e-05
19250.0 4.9964e-05
19270.0 4.9758e-05
19290.0 4.9551e-05
19310.0 4.9351e-05
19330.0 4.915e-05
19350.0 4.8938e-05
19370.0 4.8734e-05
19390.0 4.8534e-05
19410.0 4.8328e-05
19430.0 4.812e-05
19450.0 4.7921e-05
19470.0 4.7719e-05
19490.0 4.7511e-05
19510.0 4.7308e-05
19530.0 4.7109e-05
19550.0 4.6901e-05
19570.0 4.6693e-05
19590.0 4.6494e-05
19610.0 4.6292e-05
19630.0 4.6085e-05
19650.0 4.5883e-05
19670.0 4.5685e-05
19690.0 4.5478e-05
19710.0 4.5273e-05
19730.0 4.5074e-05
19750.0 4.4872e-05
19770.0 4.4662e-05
19790.0 4.4461e-05
19810.0 4.4263e-05
19830.0 4.4057e-05
19850.0 4.385e-05
19870.0 4.3647e-05
19890.0 4.3429e-05
19910.0 4.319e-05
19930.0 4.2934e-05
19950.0 4.264e-05
19970.0 4.228e-05
19990.0 4.1845e-05
20010.0 3.7229e-05
20030.0 3.6691e-05
20050.0 3.606e-05
20070.0 3.5377e-05
20090.0 3.4642e-05
20110.0 3.381e-05
20130.0 3.2968e-05
20150.0 3.2134e-05
20170.0 3.1269e-05
20190.0 3.0392e-05
20210.0 2.9564e-05
20230.0 2.8756e-05
20250.0 2.7946e-05
20270.0 2.7194e-05
20290.0 2.6508e-05
20310.0 2.5856e-05
20330.0 2.5247e-05
20350.0 2.4741e-05
20370.0 2.4292e-05
20390.0 2.3898e-05
20410.0 2.358e-05
20430.0 2.3335e-05
20450.0 2.3141e-05
20470.0 2.301e-05
20490.0 2.2941e-05
20510.0 2.292e-05
20530.0 2.2949e-05
20550.0 2.3019e-05
20570.0 2.3123e-05
20590.0 2.3262e-05
20610.0 2.3431e-05
20630.0 2.3617e-05
20650.0 2.3826e-05
20670.0 2.4064e-05
20690.0 2.4306e-05
20710.0 2.4557e-05
20730.0 2.4828e-05
20750.0 2.511e-05
20770.0 2.5388e-05
20790.0 2.568e-05
20810.0 2.5989e-05
20830.0 2.6296e-05
20850.0 2.6604e-05
20870.0 2.6935e-05
20890.0 2.7271e-05
20910.0 2.7596e-05
20930.0 2.7933e-05
20950.0 2.8283e-05
20970.0 2.8623e-05
20990.0 2.8959e-05
21010.0 2.9313e-05
21030.0 2.9658e-05
21050.0 2.9988e-05
21070.0 3.0317e-05
21090.0 3.0647e-05
21110.0 3.0948e-05
21130.0 3.1231e-05
21150.0 3.1505e-05
21170.0 3.1753e-05
21190.0 3.1966e-05
21210.0 3.2158e-05
21230.0 3.2318e-05
21250.0 3.2432e-05
21270.0 3.2504e-05
21290.0 3.2531e-05
21310.0 3.2505e-05
21330.0 3.2429e-05
21350.0 3.2294e-05
21370.0 3.2096e-05
21390.0 3.1845e-05
21410.0 3.1537e-05
21430.0 3.1147e-05
21450.0 3.071e-05
21470.0 3.0233e-05
21490.0 2.9694e-05
21510.0 2.9103e-05
21530.0 2.8503e-05
21550.0 2.7873e-05
21570.0 2.7202e-05
21590.0 2.6542e-05
21610.0 2.5905e-05
21630.0 2.5266e-05
21650.0 2.4643e-05
21670.0 2.4102e-05
21690.0 2.3604e-05
21710.0 2.3154e-05
21730.0 2.2787e-05
21750.0 2.2503e-05
21770.0 2.2287e-05
21790.0 2.2162e-05
21810.0 2.2128e-05
21830.0 2.2177e-05
21850.0 2.2316e-05
21870.0 2.2532e-05
21890.0 2.2811e-05
21910.0 2.3169e-05
21930.0 2.359e-05
21950.0 2.4045e-05
21970.0 2.4549e-05
21990.0 2.5115e-05
22010.0 2.568e-05
22030.0 2.6255e-05
22050.0 2.6858e-05
22070.0 2.7465e-05
22090.0 2.8039e-05
22110.0 2.8618e-05
22130.0 2.9196e-05
22150.0 2.9736e-05
22170.0 3.0245e-05
22190.0 3.0749e-05
22210.0 3.1219e-05
22230.0 3.1632e-05
22250.0 3.2021e-05
22270.0 3.2379e-05
22290.0 3.2685e-05
22310.0 3.2948e-05
22330.0 3.3179e-05
22350.0 3.3358e-05
22370.0 3.3484e-05
22390.0 3.3563e-05
22410.0 3.3588e-05
22430.0 3.3556e-05
22450.0 3.3469e-05
22470.0 3.332e-05
22490.0 3.311e-05
22510.0 3.2849e-05
22530.0 3.2514e-05
22550.0 3.2107e-05
22570.0 3.1656e-05
22590.0 3.1147e-05
22610.0 3.0561e-05
22630.0 2.9927e-05
22650.0 2.9272e-05
22670.0 2.8547e-05
22690.0 2.7773e-05
22710.0 2.6993e-05
