#lamb flux
1010.0 7.8475e-06
1030.0 8.537e-06
1050.0 9.3507e-06
1070.0 1.0267e-05
1090.0 1.1301e-05
1110.0 1.2364e-05
1130.0 1.3434e-05
1150.0 1.4555e-05
1170.0 1.5712e-05
1190.0 1.6807e-05
1210.0 1.7915e-05
1230.0 1.9058e-05
1250.0 2.0174e-05
1270.0 2.1254e-05
1290.0 2.239e-05
1310.0 2.352e-05
1330.0 2.4598e-05
1350.0 2.5683e-05
1370.0 2.68e-05
1390.0 2.7885e-05
1410.0 2.8935e-05
1430.0 3.0033e-05
1450.0 3.1132e-05
1470.0 3.2193e-05
1490.0 3.327e-05
1510.0 3.4411e-05
1530.0 3.5496e-05
1550.0 3.6572e-05
1570.0 3.7691e-05
1590.0 3.8817e-05
1610.0 3.99e-05
1630.0 4.1025e-05
1650.0 4.2187e-05
1670.0 4.3318e-05
1690.0 4.4441e-05
1710.0 4.5611e-05
1730.0 4.6792e-05
1750.0 4.7908e-05
1770.0 4.9056e-05
1790.0 5.0227e-05
1810.0 5.1358e-05
1830.0 5.2464e-05
1850.0 5.3628e-05
1870.0 5.4752e-05
1890.0 5.5824e-05
1910.0 5.6901e-05
1930.0 5.7985e-05
1950.0 5.8995e-05
1970.0 5.9968e-05
1990.0 6.0956e-05
2010.0 6.1898e-05
2030.0 6.2772e-05
2050.0 6.3651e-05
2070.0 6.4528e-05
2090.0 6.5315e-05
2110.0 6.6074e-05
2130.0 6.6839e-05
2150.0 6.7561e-05
2170.0 6.8218e-05
2190.0 6.8895e-05
2210.0 6.9563e-05
2230.0 7.0176e-05
2250.0 7.0774e-05
2270.0 7.1409e-05
2290.0 7.2004e-05
2310.0 7.2554e-05
2330.0 7.3133e-05
2350.0 7.3719e-05
2370.0 7.4267e-05
2390.0 7.4831e-05
2410.0 7.5454e-05
2430.0 7.6066e-05
2450.0 7.6684e-05
2470.0 7.737e-05
2490.0 7.8136e-05
2510.0 7.895e-05
2530.0 8.0025e-05
2550.0 8.1676e-05
2570.0 8.4231e-05
2590.0 8.8126e-05
2610.0 9.4481e-05
2630.0 0.00010366
2650.0 0.00011528
2670.0 0.00012956
2690.0 0.00014602
2710.0 0.00016233
2730.0 0.00017712
2750.0 0.00019003
2770.0 0.00019919
2790.0 0.00020408
2810.0 0.00020514
2830.0 0.00020245
2850.0 0.00019709
2870.0 0.00018995
2890.0 0.00018131
2910.0 0.00017197
2930.0 0.00016273
2950.0 0.00015302
2970.0 0.00014307
2990.0 0.00013351
3010.0 0.00018059
3030.0 0.00016648
3050.0 0.00015254
3070.0 0.00013972
3090.0 0.0001269
3110.0 0.00011465
3130.0 0.00010409
3150.0 9.6974e-05
3170.0 9.1292e-05
3190.0 0.00015068
3210.0 0.0004241
3230.0 0.00086701
3250.0 0.0011001
3270.0 0.00097147
3290.0 0.00074567
3310.0 0.00061709
3330.0 0.00057818
3350.0 0.00059371
3370.0 0.00062521
3390.0 0.0006587
3410.0 0.00069254
3430.0 0.00072421
3450.0 0.00075854
3470.0 0.00079587
3490.0 0.00082131
3510.0 0.00079516
3530.0 0.00081219
3550.0 0.0010186
3570.0 0.0012792
3590.0 0.0014126
3610.0 0.0014568
3630.0 0.0014928
3650.0 0.0014908
3670.0 0.0015803
3690.0 0.0018911
3710.0 0.0022409
3730.0 0.0024696
3750.0 0.0026321
3770.0 0.0026643
3790.0 0.0025612
3810.0 0.0023676
3830.0 0.0020699
3850.0 0.0017548
3870.0 0.0015921
3890.0 0.001781
3910.0 0.0022528
3930.0 0.0027247
3950.0 0.0030051
3970.0 0.0031237
3990.0 0.0032541
4010.0 0.0033294
4030.0 0.0030038
4050.0 0.0023705
4070.0 0.0020457
4090.0 0.0021563
4110.0 0.0023739
4130.0 0.002496
4150.0 0.0025094
4170.0 0.0024522
4190.0 0.0024105
4210.0 0.0024716
4230.0 0.0026157
4250.0 0.002733
4270.0 0.0027765
4290.0 0.0027382
4310.0 0.0027559
4330.0 0.0029232
4350.0 0.0031211
4370.0 0.0031066
4390.0 0.0028813
4410.0 0.0025431
4430.0 0.002129
4450.0 0.0018367
4470.0 0.0018272
4490.0 0.0019958
4510.0 0.0022115
4530.0 0.0024448
4550.0 0.0028099
4570.0 0.0035115
4590.0 0.0045117
4610.0 0.0053291
4630.0 0.0057412
4650.0 0.0060803
4670.0 0.0064097
4690.0 0.0062692
4710.0 0.0054672
4730.0 0.0044066
4750.0 0.0035521
4770.0 0.0030365
4790.0 0.0028465
4810.0 0.0028459
4830.0 0.0030449
4850.0 0.0034428
4870.0 0.003799
4890.0 0.0039152
4910.0 0.0040072
4930.0 0.0043834
4950.0 0.0048907
4970.0 0.0051526
4990.0 0.0050101
5010.0 0.0044874
5030.0 0.0037581
5050.0 0.0031411
5070.0 0.0027636
5090.0 0.0026088
5110.0 0.0026088
5130.0 0.002634
5150.0 0.0026105
5170.0 0.0025529
5190.0 0.0025811
5210.0 0.0027853
5230.0 0.0031636
5250.0 0.0037274
5270.0 0.0043254
5290.0 0.0047541
5310.0 0.0051133
5330.0 0.0055635
5350.0 0.005919
5370.0 0.0059114
5390.0 0.0056515
5410.0 0.0054722
5430.0 0.0057061
5450.0 0.006451
5470.0 0.0073737
5490.0 0.0080518
5510.0 0.0083262
5530.0 0.0083082
5550.0 0.0081263
5570.0 0.0078803
5590.0 0.0076498
5610.0 0.0075017
5630.0 0.0074829
5650.0 0.0074118
5670.0 0.0070304
5690.0 0.0064361
5710.0 0.0058984
5730.0 0.0055243
5750.0 0.0054318
5770.0 0.0056141
5790.0 0.0058241
5810.0 0.0059394
5830.0 0.0060051
5850.0 0.0059575
5870.0 0.0058374
5890.0 0.0058582
5910.0 0.006008
5930.0 0.0059899
5950.0 0.0056554
5970.0 0.0050635
5990.0 0.0043666
6010.0 0.0038314
6030.0 0.0036696
6050.0 0.0038694
6070.0 0.0040556
6090.0 0.0039195
6110.0 0.0036979
6130.0 0.0037731
6150.0 0.0040916
6170.0 0.004384
6190.0 0.0045513
6210.0 0.0046032
6230.0 0.0044776
6250.0 0.0040798
6270.0 0.0035114
6290.0 0.003044
6310.0 0.0028784
6330.0 0.0029659
6350.0 0.0031181
6370.0 0.0033139
6390.0 0.0037329
6410.0 0.0043625
6430.0 0.0048864
6450.0 0.0051475
6470.0 0.0052921
6490.0 0.005398
6510.0 0.0054416
6530.0 0.0054708
6550.0 0.0055445
6570.0 0.0056367
6590.0 0.0056995
6610.0 0.0056314
6630.0 0.0053789
6650.0 0.0049966
6670.0 0.0046324
6690.0 0.0043977
6710.0 0.0042201
6730.0 0.0040321
6750.0 0.003942
6770.0 0.0040324
6790.0 0.0041619
6810.0 0.004202
6830.0 0.0041353
6850.0 0.0039734
6870.0 0.0038086
6890.0 0.003716
6910.0 0.0037262
6930.0 0.0037894
6950.0 0.0038394
6970.0 0.0038832
6990.0 0.003871
7010.0 0.0037483
7030.0 0.0034939
7050.0 0.0031624
7070.0 0.0029304
7090.0 0.0028997
7110.0 0.0029471
7130.0 0.0028461
7150.0 0.0026431
7170.0 0.0026172
7190.0 0.0028509
7210.0 0.0031785
7230.0 0.0034442
7250.0 0.0035527
7270.0 0.0034756
7290.0 0.0032967
7310.0 0.0031599
7330.0 0.0031649
7350.0 0.0032413
7370.0 0.0033031
7390.0 0.0034452
7410.0 0.0037298
7430.0 0.0040557
7450.0 0.0043087
7470.0 0.0043822
7490.0 0.0041723
7510.0 0.0038609
7530.0 0.0036711
7550.0 0.0034591
7570.0 0.0032396
7590.0 0.0031214
7610.0 0.0031035
7630.0 0.00319
7650.0 0.0033888
7670.0 0.0036458
7690.0 0.0038742
7710.0 0.0040296
7730.0 0.0041544
7750.0 0.0042512
7770.0 0.0042797
7790.0 0.0043155
7810.0 0.0042932
7830.0 0.0041337
7850.0 0.003962
7870.0 0.0038554
7890.0 0.0038311
7910.0 0.0038131
7930.0 0.0037037
7950.0 0.0035599
7970.0 0.0034123
7990.0 0.0032838
8010.0 0.0031117
8030.0 0.0030995
8050.0 0.0030772
8070.0 0.0030194
8090.0 0.0029735
8110.0 0.0029117
8130.0 0.0028981
8150.0 0.0028609
8170.0 0.0027956
8190.0 0.0027028
8210.0 0.0026002
8230.0 0.0025037
8250.0 0.0024615
8270.0 0.0023075
8290.0 0.0019934
8310.0 0.0016476
8330.0 0.0014118
8350.0 0.0013478
8370.0 0.0014859
8390.0 0.0016886
8410.0 0.0017933
8430.0 0.001852
8450.0 0.0019695
8470.0 0.0021156
8490.0 0.0023161
8510.0 0.0025484
8530.0 0.0027889
8550.0 0.0029756
8570.0 0.0031089
8590.0 0.0032042
8610.0 0.0032518
8630.0 0.003227
8650.0 0.003158
8670.0 0.0031486
8690.0 0.0032952
8710.0 0.0034976
8730.0 0.0035858
8750.0 0.0035449
8770.0 0.0035659
8790.0 0.003552
8810.0 0.0033821
8830.0 0.0031255
8850.0 0.0028097
8870.0 0.0025686
8890.0 0.0024881
8910.0 0.0024353
8930.0 0.0022711
8950.0 0.002094
8970.0 0.0020173
8990.0 0.0020155
9010.0 0.0019763
9030.0 0.0019411
9050.0 0.0019232
9070.0 0.0019136
9090.0 0.0019052
9110.0 0.0018971
9130.0 0.001889
9150.0 0.001881
9170.0 0.0018729
9190.0 0.0018661
9210.0 0.001862
9230.0 0.0018527
9250.0 0.0018443
9270.0 0.0018364
9290.0 0.0018288
9310.0 0.0018215
9330.0 0.0018143
9350.0 0.0018075
9370.0 0.0018007
9390.0 0.0017939
9410.0 0.0017872
9430.0 0.0017803
9450.0 0.001771
9470.0 0.0017627
9490.0 0.0017589
9510.0 0.0017539
9530.0 0.0017487
9550.0 0.001743
9570.0 0.0017373
9590.0 0.0017316
9610.0 0.0017259
9630.0 0.0017201
9650.0 0.0017143
9670.0 0.0017088
9690.0 0.0017032
9710.0 0.0016976
9730.0 0.0016922
9750.0 0.0016867
9770.0 0.0016812
9790.0 0.0016758
9810.0 0.0016705
9830.0 0.0016651
9850.0 0.0016596
9870.0 0.0016544
9890.0 0.0016491
9910.0 0.0016437
9930.0 0.0016383
9950.0 0.001627
9970.0 0.0016234
9990.0 0.0016193
10010.0 0.0016153
10030.0 0.0016106
10050.0 0.0016054
10070.0 0.0016003
10090.0 0.0015951
10110.0 0.0015891
10130.0 0.0015817
10150.0 0.0015764
10170.0 0.0015713
10190.0 0.0015655
10210.0 0.0015599
10230.0 0.0015544
10250.0 0.0015482
10270.0 0.001542
10290.0 0.0015361
10310.0 0.0015296
10330.0 0.0015226
10350.0 0.0015162
10370.0 0.0015097
10390.0 0.0015025
10410.0 0.0014954
10430.0 0.0014887
10450.0 0.0014814
10470.0 0.0014737
10490.0 0.0014664
10510.0 0.0014589
10530.0 0.0014505
10550.0 0.0014424
10570.0 0.0014346
10590.0 0.0014262
10610.0 0.0014174
10630.0 0.001409
10650.0 0.0014004
10670.0 0.0013909
10690.0 0.0013816
10710.0 0.0013725
10730.0 0.0013628
10750.0 0.0013524
10770.0 0.0013428
10790.0 0.0013328
10810.0 0.0013222
10830.0 0.0013116
10850.0 0.0013013
10870.0 0.0012899
10890.0 0.0012784
10910.0 0.0012672
10930.0 0.0012556
10950.0 0.0012433
10970.0 0.001231
10990.0 0.0012191
11010.0 0.0013058
11030.0 0.0012926
11050.0 0.0012798
11070.0 0.0012669
11090.0 0.001253
11110.0 0.0012401
11130.0 0.0012274
11150.0 0.0012143
11170.0 0.0012013
11190.0 0.001189
11210.0 0.0011765
11230.0 0.0011636
11250.0 0.0011515
11270.0 0.0011397
11290.0 0.0011276
11310.0 0.0011157
11330.0 0.0011048
11350.0 0.0010937
11370.0 0.0010824
11390.0 0.0010716
11410.0 0.0010607
11430.0 0.001049
11450.0 0.0010371
11470.0 0.0010251
11490.0 0.0010122
11510.0 0.00099814
11530.0 0.00098391
11550.0 0.00096904
11570.0 0.00095282
11590.0 0.00093603
11610.0 0.00091918
11630.0 0.00090121
11650.0 0.00088239
11670.0 0.00086411
11690.0 0.00084568
11710.0 0.00082659
11730.0 0.00080773
11750.0 0.00078965
11770.0 0.00077107
11790.0 0.00075243
11810.0 0.00073454
11830.0 0.00071688
11850.0 0.00069859
11870.0 0.00068104
11890.0 0.00066425
11910.0 0.00064728
11930.0 0.00063048
11950.0 0.00061465
11970.0 0.00059911
11990.0 0.00058353
12010.0 0.00056889
12030.0 0.00055515
12050.0 0.00054174
12070.0 0.00052888
12090.0 0.00051748
12110.0 0.00050677
12130.0 0.00049676
12150.0 0.00048791
12170.0 0.00048022
12190.0 0.00047329
12210.0 0.00046756
12230.0 0.00046308
12250.0 0.00045967
12270.0 0.00045739
12290.0 0.00045622
12310.0 0.000456
12330.0 0.00045682
12350.0 0.00045854
12370.0 0.00046084
12390.0 0.00046383
12410.0 0.00046765
12430.0 0.00047152
12450.0 0.00047555
12470.0 0.00047994
12490.0 0.00048434
12510.0 0.00048833
12530.0 0.00049233
12550.0 0.00049619
12570.0 0.00049944
12590.0 0.00050214
12610.0 0.00050447
12630.0 0.00050608
12650.0 0.0005067
12670.0 0.00050662
12690.0 0.00050568
12710.0 0.00050375
12730.0 0.00050093
12750.0 0.00049715
12770.0 0.00049245
12790.0 0.00048698
12810.0 0.00048071
12830.0 0.00047366
12850.0 0.00046626
12870.0 0.0004585
12890.0 0.00045024
12910.0 0.00044189
12930.0 0.00043366
12950.0 0.00042525
12970.0 0.00041683
12990.0 0.00040886
13010.0 0.0004011
13030.0 0.00039339
13050.0 0.00038603
13070.0 0.00037909
13090.0 0.00037221
13110.0 0.00036554
13130.0 0.00035925
13150.0 0.00035318
13170.0 0.00034712
13190.0 0.00034142
13210.0 0.00033605
13230.0 0.00033076
13250.0 0.00032565
13270.0 0.00032088
13290.0 0.00031626
13310.0 0.00031173
13330.0 0.00030748
13350.0 0.00030346
13370.0 0.00029956
13390.0 0.0002958
13410.0 0.00029235
13430.0 0.00028903
13450.0 0.00028581
13470.0 0.00028278
13490.0 0.00027993
13510.0 0.00027708
13530.0 0.00027435
13550.0 0.00027174
13570.0 0.00026917
13590.0 0.00026657
13610.0 0.00026404
13630.0 0.00026156
13650.0 0.00025901
13670.0 0.00025646
13690.0 0.00025397
13710.0 0.00025146
13730.0 0.00024888
13750.0 0.00024641
13770.0 0.00024399
13790.0 0.00024157
13810.0 0.00023921
13830.0 0.00023698
13850.0 0.00023476
13870.0 0.0002326
13890.0 0.00023056
13910.0 0.0002286
13930.0 0.00022666
13950.0 0.00022479
13970.0 0.00022303
13990.0 0.00022128
14010.0 0.00021952
14030.0 0.00021781
14050.0 0.0002161
14070.0 0.0002143
14090.0 0.0002125
14110.0 0.00021071
14130.0 0.00020885
14150.0 0.00020693
14170.0 0.00020507
14190.0 0.00020321
14210.0 0.00020132
14230.0 0.00019951
14250.0 0.00019782
14270.0 0.00019616
14290.0 0.0001946
14310.0 0.00019324
14330.0 0.00019203
14350.0 0.00019094
14370.0 0.00019002
14390.0 0.00018928
14410.0 0.00018864
14430.0 0.00018813
14450.0 0.00018773
14470.0 0.00018742
14490.0 0.00018714
14510.0 0.00018693
14530.0 0.00018676
14550.0 0.00018661
14570.0 0.00018649
14590.0 0.00018643
14610.0 0.00018641
14630.0 0.00018648
14650.0 0.00018668
14670.0 0.00018702
14690.0 0.00018758
14710.0 0.0001884
14730.0 0.00018947
14750.0 0.00019089
14770.0 0.00019273
14790.0 0.00019495
14810.0 0.00019757
14830.0 0.00020083
14850.0 0.00020458
14870.0 0.00020869
14890.0 0.00021329
14910.0 0.00021837
14930.0 0.00022349
14950.0 0.0002285
14970.0 0.00023347
14990.0 0.00023794
15010.0 0.0002417
15030.0 0.00024487
15050.0 0.00024744
15070.0 0.00024935
15090.0 0.00025086
15110.0 0.00025211
15130.0 0.00025318
15150.0 0.00025416
15170.0 0.00025511
15190.0 0.00025605
15210.0 0.000257
15230.0 0.00025797
15250.0 0.00025896
15270.0 0.00025997
15290.0 0.00026099
15310.0 0.00026204
15330.0 0.0002631
15350.0 0.00026419
15370.0 0.00026529
15390.0 0.00026641
15410.0 0.00026755
15430.0 0.00026871
15450.0 0.00026988
15470.0 0.00027107
15490.0 0.00027228
15510.0 0.00027351
15530.0 0.00027475
15550.0 0.00027601
15570.0 0.00027728
15590.0 0.00027857
15610.0 0.00027987
15630.0 0.00028119
15650.0 0.00028252
15670.0 0.00028387
15690.0 0.00028523
15710.0 0.0002866
15730.0 0.00028799
15750.0 0.00028939
15770.0 0.0002908
15790.0 0.00029222
15810.0 0.00029366
15830.0 0.0002951
15850.0 0.00029656
15870.0 0.00029802
15890.0 0.0002995
15910.0 0.00030098
15930.0 0.00030248
15950.0 0.00030398
15970.0 0.00030549
15990.0 0.000307
16010.0 0.00030852
16030.0 0.00031005
16050.0 0.00031159
16070.0 0.00031313
16090.0 0.00031467
16110.0 0.00031622
16130.0 0.00031778
16150.0 0.00031933
16170.0 0.00032089
16190.0 0.00032245
16210.0 0.00032401
16230.0 0.00032558
16250.0 0.00032714
16270.0 0.00032871
16290.0 0.00033027
16310.0 0.00033183
16330.0 0.00033339
16350.0 0.00033495
16370.0 0.0003365
16390.0 0.00033805
16410.0 0.0003396
16430.0 0.00034114
16450.0 0.00034268
16470.0 0.00034421
16490.0 0.00034573
16510.0 0.00034725
16530.0 0.00034875
16550.0 0.00035025
16570.0 0.00035174
16590.0 0.00035322
16610.0 0.0003547
16630.0 0.00035616
16650.0 0.0003576
16670.0 0.00035904
16690.0 0.00036047
16710.0 0.00036187
16730.0 0.00036327
16750.0 0.00036465
16770.0 0.00036602
16790.0 0.00036737
16810.0 0.0003687
16830.0 0.00037002
16850.0 0.00037132
16870.0 0.0003726
16890.0 0.00037386
16910.0 0.0003751
16930.0 0.00037633
16950.0 0.00037753
16970.0 0.00037871
16990.0 0.00037987
17010.0 0.00038101
17030.0 0.00038213
17050.0 0.00038322
17070.0 0.00038429
17090.0 0.00038533
17110.0 0.00038636
17130.0 0.00038735
17150.0 0.00038832
17170.0 0.00038926
17190.0 0.00039018
17210.0 0.00039107
17230.0 0.00039193
17250.0 0.00039277
17270.0 0.00039358
17290.0 0.00039435
17310.0 0.0003951
17330.0 0.00039582
17350.0 0.00039651
17370.0 0.00039718
17390.0 0.00039781
17410.0 0.00039841
17430.0 0.00039897
17450.0 0.00039951
17470.0 0.00040002
17490.0 0.00040049
17510.0 0.00040093
17530.0 0.00040135
17550.0 0.00040172
17570.0 0.00040207
17590.0 0.00040238
17610.0 0.00040266
17630.0 0.00040291
17650.0 0.00040312
17670.0 0.0004033
17690.0 0.00040344
17710.0 0.00040356
17730.0 0.00040364
17750.0 0.00040368
17770.0 0.00040369
17790.0 0.00040367
17810.0 0.00040362
17830.0 0.00040353
17850.0 0.0004034
17870.0 0.00040325
17890.0 0.00040306
17910.0 0.00040283
17930.0 0.00040258
17950.0 0.00040229
17970.0 0.00040196
17990.0 0.0004016
18010.0 0.00040122
18030.0 0.00040079
18050.0 0.00040034
18070.0 0.00039985
18090.0 0.00039933
18110.0 0.00039877
18130.0 0.00039819
18150.0 0.00039758
18170.0 0.00039693
18190.0 0.00039625
18210.0 0.00039554
18230.0 0.0003948
18250.0 0.00039403
18270.0 0.00039324
18290.0 0.00039241
18310.0 0.00039155
18330.0 0.00039066
18350.0 0.00038975
18370.0 0.0003888
18390.0 0.00038783
18410.0 0.00038683
18430.0 0.00038581
18450.0 0.00038475
18470.0 0.00038367
18490.0 0.00038257
18510.0 0.00038144
18530.0 0.00038028
18550.0 0.00037911
18570.0 0.0003779
18590.0 0.00037667
18610.0 0.00037542
18630.0 0.00037415
18650.0 0.00037286
18670.0 0.00037154
18690.0 0.0003702
18710.0 0.00036884
18730.0 0.00036746
18750.0 0.00036606
18770.0 0.00036464
18790.0 0.0003632
18810.0 0.00036174
18830.0 0.00036027
18850.0 0.00035878
18870.0 0.00035727
18890.0 0.00035574
18910.0 0.0003542
18930.0 0.00035265
18950.0 0.00035107
18970.0 0.00034949
18990.0 0.00034789
19010.0 0.00034627
19030.0 0.00034464
19050.0 0.000343
19070.0 0.00034135
19090.0 0.00033969
19110.0 0.00033802
19130.0 0.00033633
19150.0 0.00033463
19170.0 0.00033293
19190.0 0.00033122
19210.0 0.00032949
19230.0 0.00032776
19250.0 0.00032602
19270.0 0.00032428
19290.0 0.00032252
19310.0 0.00032076
19330.0 0.000319
19350.0 0.00031723
19370.0 0.00031545
19390.0 0.00031367
19410.0 0.00031189
19430.0 0.0003101
19450.0 0.0003083
19470.0 0.00030651
19490.0 0.00030471
19510.0 0.00030291
19530.0 0.00030111
19550.0 0.00029931
19570.0 0.0002975
19590.0 0.0002957
19610.0 0.00029389
19630.0 0.00029209
19650.0 0.00029028
19670.0 0.00028848
19690.0 0.00028668
19710.0 0.00028488
19730.0 0.00028308
19750.0 0.00028128
19770.0 0.00027949
19790.0 0.00027769
19810.0 0.0002759
19830.0 0.00027411
19850.0 0.00027231
19870.0 0.00027049
19890.0 0.00026862
19910.0 0.00026665
19930.0 0.00026453
19950.0 0.00026219
19970.0 0.00025949
19990.0 0.00025639
20010.0 0.00025292
20030.0 0.00024895
20050.0 0.0002445
20070.0 0.0002398
20090.0 0.00023491
20110.0 0.00022964
20130.0 0.00022444
20150.0 0.00021937
20170.0 0.00021427
20190.0 0.00020922
20210.0 0.00020446
20230.0 0.00019984
20250.0 0.00019526
20270.0 0.00019095
20290.0 0.0001869
20310.0 0.00018299
20330.0 0.00017921
20350.0 0.00017581
20370.0 0.0001726
20390.0 0.00016954
20410.0 0.00016674
20430.0 0.00016418
20450.0 0.00016175
20470.0 0.00015952
20490.0 0.00015752
20510.0 0.00015566
20530.0 0.00015394
20550.0 0.00015238
20570.0 0.00015095
20590.0 0.00014962
20610.0 0.00014838
20630.0 0.00014723
20650.0 0.00014613
20670.0 0.00014508
20690.0 0.00014406
20710.0 0.00014306
20730.0 0.00014207
20750.0 0.00014106
20770.0 0.00014004
20790.0 0.00013899
20810.0 0.0001379
20830.0 0.00013677
20850.0 0.0001356
20870.0 0.00013437
20890.0 0.00013308
20910.0 0.00013177
20930.0 0.0001304
20950.0 0.00012897
20970.0 0.00012752
20990.0 0.00012605
21010.0 0.00012452
21030.0 0.00012298
21050.0 0.00012144
21070.0 0.00011989
21090.0 0.00011831
21110.0 0.00011678
21130.0 0.00011526
21150.0 0.00011373
21170.0 0.00011223
21190.0 0.00011078
21210.0 0.00010933
21230.0 0.00010789
21250.0 0.00010652
21270.0 0.00010519
21290.0 0.00010387
21310.0 0.0001026
21330.0 0.00010139
21350.0 0.0001002
21370.0 9.9051e-05
21390.0 9.7962e-05
21410.0 9.6919e-05
21430.0 9.5899e-05
21450.0 9.4939e-05
21470.0 9.4035e-05
21490.0 9.3166e-05
21510.0 9.2339e-05
21530.0 9.1563e-05
21550.0 9.0824e-05
21570.0 9.0117e-05
21590.0 8.9448e-05
21610.0 8.8813e-05
21630.0 8.8203e-05
21650.0 8.7618e-05
21670.0 8.7058e-05
21690.0 8.6515e-05
21710.0 8.5989e-05
21730.0 8.5477e-05
21750.0 8.4976e-05
21770.0 8.4486e-05
21790.0 8.4006e-05
21810.0 8.3534e-05
21830.0 8.3069e-05
21850.0 8.2611e-05
21870.0 8.2159e-05
21890.0 8.1711e-05
21910.0 8.1269e-05
21930.0 8.0831e-05
21950.0 8.0393e-05
21970.0 7.9957e-05
21990.0 7.9521e-05
22010.0 7.9083e-05
22030.0 7.864e-05
22050.0 7.8193e-05
22070.0 7.7738e-05
22090.0 7.7276e-05
22110.0 7.6806e-05
22130.0 7.6323e-05
22150.0 7.5832e-05
22170.0 7.5332e-05
22190.0 7.4816e-05
22210.0 7.4287e-05
22230.0 7.3754e-05
22250.0 7.3206e-05
22270.0 7.2642e-05
22290.0 7.207e-05
22310.0 7.1488e-05
22330.0 7.0878e-05
22350.0 7.0255e-05
22370.0 6.9622e-05
22390.0 6.8963e-05
22410.0 6.827e-05
22430.0 6.757e-05
22450.0 6.6847e-05
22470.0 6.6083e-05
22490.0 6.5297e-05
22510.0 6.4501e-05
22530.0 6.3659e-05
22550.0 6.2781e-05
22570.0 6.1905e-05
22590.0 6.1011e-05
22610.0 6.0081e-05
22630.0 5.9147e-05
22650.0 5.8237e-05
22670.0 5.7302e-05
22690.0 5.6364e-05
22710.0 5.5459e-05
22730.0 5.4571e-05
22750.0 5.3667e-05
22770.0 5.2813e-05
22790.0 5.2005e-05
22810.0 5.121e-05
22830.0 5.0443e-05
22850.0 4.9736e-05
22870.0 4.9057e-05
22890.0 4.8398e-05
22910.0 4.7788e-05
22930.0 4.7221e-05
22950.0 4.6675e-05
22970.0 4.6152e-05
22990.0 4.568e-05
23010.0 4.5227e-05
23030.0 4.4788e-05
