#lamb flux
1010.0 2.608e-05
1030.0 2.608e-05
1050.0 2.608e-05
1070.0 2.608e-05
1090.0 2.608e-05
1110.0 2.608e-05
1130.0 2.608e-05
1150.0 2.608e-05
1170.0 2.608e-05
1190.0 2.608e-05
1210.0 2.608e-05
1230.0 2.608e-05
1250.0 2.608e-05
1270.0 2.608e-05
1290.0 2.608e-05
1310.0 2.608e-05
1330.0 2.608e-05
1350.0 2.608e-05
1370.0 2.608e-05
1390.0 2.608e-05
1410.0 2.608e-05
1430.0 2.608e-05
1450.0 2.8921e-05
1470.0 3.2869e-05
1490.0 3.7314e-05
1510.0 4.234e-05
1530.0 4.7804e-05
1550.0 5.378e-05
1570.0 6.0392e-05
1590.0 6.7634e-05
1610.0 7.5412e-05
1630.0 8.3824e-05
1650.0 9.3061e-05
1670.0 0.00010302
1690.0 0.00011377
1710.0 0.00012552
1730.0 0.00013821
1750.0 0.00015161
1770.0 0.00016602
1790.0 0.00018142
1810.0 0.00019754
1830.0 0.00021437
1850.0 0.0002322
1870.0 0.00025051
1890.0 0.00026912
1910.0 0.00028816
1930.0 0.00030752
1950.0 0.00032658
1970.0 0.00034535
1990.0 0.00036397
2010.0 0.00038191
2030.0 0.00039881
2050.0 0.00041498
2070.0 0.00043025
2090.0 0.00044384
2110.0 0.00045606
2130.0 0.00046706
2150.0 0.0004764
2170.0 0.00048388
2190.0 0.0004901
2210.0 0.00049484
2230.0 0.00049779
2250.0 0.0004993
2270.0 0.00049981
2290.0 0.00049885
2310.0 0.00049648
2330.0 0.00049334
2350.0 0.00048938
2370.0 0.0004844
2390.0 0.00047891
2410.0 0.00047331
2430.0 0.00046723
2450.0 0.00046092
2470.0 0.0004549
2490.0 0.00044935
2510.0 0.00044417
2530.0 0.00044066
2550.0 0.00044054
2570.0 0.00044529
2590.0 0.00045683
2610.0 0.00048043
2630.0 0.00051716
2650.0 0.00056491
2670.0 0.00062527
2690.0 0.0006976
2710.0 0.0007735
2730.0 0.00084978
2750.0 0.00093057
2770.0 0.0010107
2790.0 0.0010881
2810.0 0.0011679
2830.0 0.001255
2850.0 0.0013408
2870.0 0.0014302
2890.0 0.0015274
2910.0 0.0016295
2930.0 0.0017327
2950.0 0.0018446
2970.0 0.0019644
2990.0 0.0020867
3010.0 0.0022141
3030.0 0.0023511
3050.0 0.0024931
3070.0 0.0026324
3090.0 0.0027739
3110.0 0.0029099
3130.0 0.0030292
3150.0 0.0031269
3170.0 0.0031964
3190.0 0.0032281
3210.0 0.003216
3230.0 0.0031737
3250.0 0.0031577
3270.0 0.0032007
3290.0 0.0032851
3310.0 0.0033901
3330.0 0.0035197
3350.0 0.0036657
3370.0 0.0038302
3390.0 0.0040222
3410.0 0.0042046
3430.0 0.0044888
3450.0 0.0047156
3470.0 0.0049533
3490.0 0.0051548
3510.0 0.0053993
3530.0 0.0062083
3550.0 0.0073391
3570.0 0.0080295
3590.0 0.0083312
3610.0 0.0083621
3630.0 0.0081058
3650.0 0.0087598
3670.0 0.010419
3690.0 0.011732
3710.0 0.012429
3730.0 0.01301
3750.0 0.013649
3770.0 0.013537
3790.0 0.012824
3810.0 0.012007
3830.0 0.011186
3850.0 0.011108
3870.0 0.012024
3890.0 0.012976
3910.0 0.013633
3930.0 0.014049
3950.0 0.015284
3970.0 0.016434
3990.0 0.015705
4010.0 0.013817
4030.0 0.012103
4050.0 0.011589
4070.0 0.011882
4090.0 0.011885
4110.0 0.011623
4130.0 0.01143
4150.0 0.011549
4170.0 0.012584
4190.0 0.013819
4210.0 0.013664
4230.0 0.012926
4250.0 0.0126
4270.0 0.012591
4290.0 0.01313
4310.0 0.013707
4330.0 0.013049
4350.0 0.011321
4370.0 0.0099115
4390.0 0.0089075
4410.0 0.0080536
4430.0 0.008006
4450.0 0.0086899
4470.0 0.0092925
4490.0 0.010093
4510.0 0.011548
4530.0 0.014609
4550.0 0.018563
4570.0 0.020929
4590.0 0.022312
4610.0 0.024505
4630.0 0.02608
4650.0 0.024394
4670.0 0.020001
4690.0 0.016366
4710.0 0.014879
4730.0 0.014442
4750.0 0.013314
4770.0 0.012348
4790.0 0.012973
4810.0 0.014186
4830.0 0.014325
4850.0 0.013387
4870.0 0.012989
4890.0 0.013856
4910.0 0.014739
4930.0 0.014849
4950.0 0.014338
4970.0 0.01344
4990.0 0.01215
5010.0 0.011
5030.0 0.010331
5050.0 0.010023
5070.0 0.0097753
5090.0 0.0094867
5110.0 0.0094037
5130.0 0.0094611
5150.0 0.0099041
5170.0 0.011007
5190.0 0.01241
5210.0 0.014002
5230.0 0.015041
5250.0 0.015573
5270.0 0.016423
5290.0 0.017431
5310.0 0.017811
5330.0 0.01714
5350.0 0.016178
5370.0 0.016132
5390.0 0.01727
5410.0 0.018712
5430.0 0.019596
5450.0 0.019776
5470.0 0.019329
5490.0 0.018571
5510.0 0.018061
5530.0 0.017952
5550.0 0.018061
5570.0 0.018096
5590.0 0.017652
5610.0 0.01683
5630.0 0.015706
5650.0 0.01452
5670.0 0.013785
5690.0 0.013403
5710.0 0.013193
5730.0 0.013244
5750.0 0.013114
5770.0 0.012842
5790.0 0.012877
5810.0 0.012975
5830.0 0.01312
5850.0 0.013215
5870.0 0.012955
5890.0 0.012404
5910.0 0.011667
5930.0 0.010531
5950.0 0.0095935
5970.0 0.0093716
5990.0 0.009692
6010.0 0.0099108
6030.0 0.0095805
6050.0 0.0092621
6070.0 0.0096116
6090.0 0.010357
6110.0 0.010794
6130.0 0.010526
6150.0 0.0099175
6170.0 0.0094802
6190.0 0.0090746
6210.0 0.008532
6230.0 0.0079656
6250.0 0.0076967
6270.0 0.007867
6290.0 0.0081695
6310.0 0.0086518
6330.0 0.0093543
6350.0 0.010103
6370.0 0.010521
6390.0 0.010624
6410.0 0.010728
6430.0 0.010833
6450.0 0.01095
6470.0 0.011166
6490.0 0.011401
6510.0 0.011565
6530.0 0.011562
6550.0 0.01138
6570.0 0.010994
6590.0 0.010484
6610.0 0.010119
6630.0 0.0099091
6650.0 0.0095996
6670.0 0.0091661
6690.0 0.008796
6710.0 0.0086036
6730.0 0.0085151
6750.0 0.0083855
6770.0 0.0082266
6790.0 0.0080929
6810.0 0.0079251
6830.0 0.0078309
6850.0 0.0079673
6870.0 0.0080537
6890.0 0.007972
6910.0 0.0077973
6930.0 0.0076338
6950.0 0.0074925
6970.0 0.0072387
6990.0 0.0069629
7010.0 0.0068421
7030.0 0.0067745
7050.0 0.0065749
7070.0 0.0062797
7090.0 0.0061537
7110.0 0.0063098
7130.0 0.0066956
7150.0 0.0071092
7170.0 0.0073768
7190.0 0.0073245
7210.0 0.0070381
7230.0 0.0068542
7250.0 0.0068396
7270.0 0.0068225
7290.0 0.0067665
7310.0 0.0068167
7330.0 0.00702
7350.0 0.0072871
7370.0 0.0074509
7390.0 0.0074298
7410.0 0.007269
7430.0 0.0070579
7450.0 0.0068121
7470.0 0.0064873
7490.0 0.0062632
7510.0 0.0060715
7530.0 0.0059602
7550.0 0.0060009
7570.0 0.0060731
7590.0 0.0061206
7610.0 0.0060992
7630.0 0.0060709
7650.0 0.0061196
7670.0 0.0062777
7690.0 0.0064768
7710.0 0.0067083
7730.0 0.0068878
7750.0 0.0070991
7770.0 0.0072546
7790.0 0.0073412
7810.0 0.0073486
7830.0 0.0073462
7850.0 0.0072172
7870.0 0.0069075
7890.0 0.0065864
7910.0 0.0063833
7930.0 0.0062362
7950.0 0.0060945
7970.0 0.0060242
7990.0 0.0060606
8010.0 0.0058308
8030.0 0.0057707
8050.0 0.0056924
8070.0 0.0055949
8090.0 0.005496
8110.0 0.0054935
8130.0 0.0055239
8150.0 0.005503
8170.0 0.0054616
8190.0 0.0053209
8210.0 0.0050161
8230.0 0.0046842
8250.0 0.0044936
8270.0 0.0043468
8290.0 0.0041958
8310.0 0.0041248
8330.0 0.0041145
8350.0 0.0040113
8370.0 0.0039581
8390.0 0.004088
8410.0 0.0043256
8430.0 0.0046323
8450.0 0.0049545
8470.0 0.0051408
8490.0 0.0053054
8510.0 0.0054209
8530.0 0.0055362
8550.0 0.0056515
8570.0 0.0057281
8590.0 0.0057974
8610.0 0.0059507
8630.0 0.0060139
8650.0 0.0058964
8670.0 0.0059012
8690.0 0.0059973
8710.0 0.0060868
8730.0 0.0060728
8750.0 0.0059272
8770.0 0.0058712
8790.0 0.0058441
8810.0 0.0057498
8830.0 0.0053751
8850.0 0.0049058
8870.0 0.0045701
8890.0 0.004401
8910.0 0.0041682
8930.0 0.0038771
8950.0 0.0036898
8970.0 0.0036578
8990.0 0.0036936
9010.0 0.0036904
9030.0 0.0036629
9050.0 0.0036377
9070.0 0.0036165
9090.0 0.003596
9110.0 0.0035757
9130.0 0.0035555
9150.0 0.0035354
9170.0 0.0035154
9190.0 0.0034955
9210.0 0.0034757
9230.0 0.0034561
9250.0 0.0034366
9270.0 0.0034172
9290.0 0.003398
9310.0 0.0033788
9330.0 0.0033597
9350.0 0.0033408
9370.0 0.003322
9390.0 0.0033033
9410.0 0.0032847
9430.0 0.0032659
9450.0 0.0032458
9470.0 0.0032263
9490.0 0.0032098
9510.0 0.0031924
9530.0 0.0031752
9550.0 0.0031576
9570.0 0.00314
9590.0 0.0031225
9610.0 0.0031051
9630.0 0.0030877
9650.0 0.0030703
9670.0 0.0030533
9690.0 0.0030362
9710.0 0.0030191
9730.0 0.0030023
9750.0 0.0029855
9770.0 0.0029685
9790.0 0.0029519
9810.0 0.0029354
9830.0 0.0029186
9850.0 0.0029007
9870.0 0.0028847
9890.0 0.0028689
9910.0 0.0028528
9930.0 0.0028367
9950.0 0.0028208
9970.0 0.0028046
9990.0 0.0027881
10010.0 0.0027702
10030.0 0.0027534
10050.0 0.0027384
10070.0 0.0027232
10090.0 0.002708
10110.0 0.0026913
10130.0 0.0026695
10150.0 0.0026547
10170.0 0.002641
10190.0 0.002626
10210.0 0.0026111
10230.0 0.0025962
10250.0 0.0025802
10270.0 0.0025641
10290.0 0.0025487
10310.0 0.0025325
10330.0 0.0025157
10350.0 0.0024998
10370.0 0.0024838
10390.0 0.0024672
10410.0 0.0024506
10430.0 0.0024349
10450.0 0.0024183
10470.0 0.0024014
10490.0 0.0023851
10510.0 0.0023688
10530.0 0.0023513
10550.0 0.0023343
10570.0 0.0023179
10590.0 0.0023008
10610.0 0.0022833
10630.0 0.0022665
10650.0 0.0022496
10670.0 0.0022316
10690.0 0.0022141
10710.0 0.0021969
10730.0 0.002179
10750.0 0.0021604
10770.0 0.002143
10790.0 0.0021252
10810.0 0.0021067
10830.0 0.0020884
10850.0 0.0020707
10870.0 0.0020517
10890.0 0.0020327
10910.0 0.0020144
10930.0 0.001996
10950.0 0.001977
10970.0 0.0019586
10990.0 0.0019412
11010.0 0.0018844
11030.0 0.0018663
11050.0 0.0018492
11070.0 0.0018325
11090.0 0.0018153
11110.0 0.0017994
11130.0 0.0017844
11150.0 0.0017694
11170.0 0.0017551
11190.0 0.0017422
11210.0 0.0017299
11230.0 0.0017182
11250.0 0.0017078
11270.0 0.0016985
11290.0 0.0016897
11310.0 0.0016819
11330.0 0.0016752
11350.0 0.0016689
11370.0 0.0016631
11390.0 0.0016579
11410.0 0.0016529
11430.0 0.0016478
11450.0 0.0016427
11470.0 0.0016375
11490.0 0.0016319
11510.0 0.0016257
11530.0 0.0016191
11550.0 0.001612
11570.0 0.0016038
11590.0 0.0015949
11610.0 0.0015854
11630.0 0.0015746
11650.0 0.0015625
11670.0 0.0015499
11690.0 0.0015363
11710.0 0.0015212
11730.0 0.0015051
11750.0 0.0014887
11770.0 0.0014707
11790.0 0.0014515
11810.0 0.001432
11830.0 0.0014118
11850.0 0.0013899
11870.0 0.001368
11890.0 0.0013465
11910.0 0.0013242
11930.0 0.0013016
11950.0 0.00128
11970.0 0.0012585
11990.0 0.0012367
12010.0 0.001216
12030.0 0.0011965
12050.0 0.0011771
12070.0 0.0011583
12090.0 0.0011414
12110.0 0.0011251
12130.0 0.0011094
12150.0 0.001095
12170.0 0.0010819
12190.0 0.0010693
12210.0 0.001058
12230.0 0.0010482
12250.0 0.0010396
12270.0 0.001032
12290.0 0.0010259
12310.0 0.001021
12330.0 0.0010172
12350.0 0.0010145
12370.0 0.0010129
12390.0 0.001012
12410.0 0.0010119
12430.0 0.0010124
12450.0 0.0010132
12470.0 0.0010145
12490.0 0.0010159
12510.0 0.0010172
12530.0 0.0010186
12550.0 0.0010198
12570.0 0.0010207
12590.0 0.0010211
12610.0 0.0010211
12630.0 0.0010204
12650.0 0.001019
12670.0 0.0010167
12690.0 0.0010136
12710.0 0.0010095
12730.0 0.0010046
12750.0 0.00099842
12770.0 0.00099142
12790.0 0.00098372
12810.0 0.00097512
12830.0 0.00096563
12850.0 0.00095596
12870.0 0.00094595
12890.0 0.00093535
12910.0 0.00092473
12930.0 0.00091439
12950.0 0.00090379
12970.0 0.00089318
12990.0 0.00088322
13010.0 0.00087352
13030.0 0.00086385
13050.0 0.00085462
13070.0 0.00084599
13090.0 0.00083739
13110.0 0.00082905
13130.0 0.00082126
13150.0 0.00081377
13170.0 0.00080632
13190.0 0.00079941
13210.0 0.000793
13230.0 0.00078675
13250.0 0.0007808
13270.0 0.00077534
13290.0 0.0007701
13310.0 0.00076496
13330.0 0.00076015
13350.0 0.00075555
13370.0 0.00075093
13390.0 0.00074627
13410.0 0.00074178
13430.0 0.00073713
13450.0 0.00073222
13470.0 0.0007272
13490.0 0.00072206
13510.0 0.0007164
13530.0 0.0007105
13550.0 0.00070452
13570.0 0.0006982
13590.0 0.00069148
13610.0 0.00068472
13630.0 0.00067795
13650.0 0.00067079
13670.0 0.00066357
13690.0 0.00065651
13710.0 0.00064933
13730.0 0.00064184
13750.0 0.00063475
13770.0 0.00062776
13790.0 0.00062062
13810.0 0.00061357
13830.0 0.00060689
13850.0 0.0006001
13870.0 0.00059331
13890.0 0.00058686
13910.0 0.00058063
13930.0 0.00057434
13950.0 0.0005683
13970.0 0.00056276
13990.0 0.00055728
14010.0 0.00055195
14030.0 0.00054702
14050.0 0.00054234
14070.0 0.00053763
14090.0 0.00053324
14110.0 0.00052915
14130.0 0.00052512
14150.0 0.00052115
14170.0 0.00051749
14190.0 0.00051395
14210.0 0.0005104
14230.0 0.00050702
14250.0 0.00050383
14270.0 0.00050062
14290.0 0.00049745
14310.0 0.00049454
14330.0 0.0004917
14350.0 0.00048886
14370.0 0.00048617
14390.0 0.00048366
14410.0 0.00048112
14430.0 0.00047866
14450.0 0.00047636
14470.0 0.00047413
14490.0 0.00047185
14510.0 0.00046972
14530.0 0.0004677
14550.0 0.00046562
14570.0 0.00046353
14590.0 0.00046151
14610.0 0.0004594
14630.0 0.00045715
14650.0 0.00045491
14670.0 0.00045268
14690.0 0.00045036
14710.0 0.00044807
14730.0 0.00044606
14750.0 0.00044423
14770.0 0.0004427
14790.0 0.0004417
14810.0 0.00044129
14830.0 0.00044157
14850.0 0.00044271
14870.0 0.00044467
14890.0 0.00044748
14910.0 0.00045114
14930.0 0.00045528
14950.0 0.00045964
14970.0 0.00046419
14990.0 0.00046842
15010.0 0.00047202
15030.0 0.00047503
15050.0 0.00047742
15070.0 0.0004791
15090.0 0.00048034
15110.0 0.00048126
15130.0 0.00048198
15150.0 0.00048259
15170.0 0.00048316
15190.0 0.00048371
15210.0 0.00048427
15230.0 0.00048484
15250.0 0.00048542
15270.0 0.00048602
15290.0 0.00048664
15310.0 0.00048727
15330.0 0.00048791
15350.0 0.00048858
15370.0 0.00048927
15390.0 0.00048995
15410.0 0.00049066
15430.0 0.00049139
15450.0 0.00049212
15470.0 0.00049287
15490.0 0.00049364
15510.0 0.00049442
15530.0 0.00049521
15550.0 0.00049602
15570.0 0.00049685
15590.0 0.00049768
15610.0 0.00049851
15630.0 0.00049938
15650.0 0.00050025
15670.0 0.00050113
15690.0 0.00050202
15710.0 0.00050294
15730.0 0.00050385
15750.0 0.00050478
15770.0 0.00050572
15790.0 0.00050667
15810.0 0.00050762
15830.0 0.00050859
15850.0 0.00050958
15870.0 0.00051057
15890.0 0.00051156
15910.0 0.00051258
15930.0 0.0005136
15950.0 0.00051461
15970.0 0.00051565
15990.0 0.00051669
16010.0 0.00051773
16030.0 0.00051878
16050.0 0.00051985
16070.0 0.00052092
16090.0 0.00052199
16110.0 0.00052307
16130.0 0.00052417
16150.0 0.00052525
16170.0 0.00052634
16190.0 0.00052745
16210.0 0.00052855
16230.0 0.00052965
16250.0 0.00053077
16270.0 0.0005319
16290.0 0.00053301
16310.0 0.00053413
16330.0 0.00053526
16350.0 0.00053638
16370.0 0.0005375
16390.0 0.00053863
16410.0 0.00053977
16430.0 0.00054089
16450.0 0.00054202
16470.0 0.00054316
16490.0 0.00054428
16510.0 0.0005454
16530.0 0.00054654
16550.0 0.00054767
16570.0 0.00054878
16590.0 0.00054989
16610.0 0.00055102
16630.0 0.00055214
16650.0 0.00055324
16670.0 0.00055436
16690.0 0.00055546
16710.0 0.00055655
16730.0 0.00055764
16750.0 0.00055874
16770.0 0.00055981
16790.0 0.00056088
16810.0 0.00056196
16830.0 0.00056302
16850.0 0.00056407
16870.0 0.00056512
16890.0 0.00056616
16910.0 0.00056718
16930.0 0.00056819
16950.0 0.00056921
16970.0 0.00057021
16990.0 0.0005712
17010.0 0.00057218
17030.0 0.00057316
17050.0 0.00057411
17070.0 0.00057505
17090.0 0.00057599
17110.0 0.00057691
17130.0 0.0005778
17150.0 0.0005787
17170.0 0.00057958
17190.0 0.00058045
17210.0 0.00058129
17230.0 0.00058214
17250.0 0.00058296
17270.0 0.00058375
17290.0 0.00058454
17310.0 0.00058532
17330.0 0.00058607
17350.0 0.00058679
17370.0 0.00058752
17390.0 0.00058823
17410.0 0.0005889
17430.0 0.00058957
17450.0 0.00059022
17470.0 0.00059083
17490.0 0.00059143
17510.0 0.00059203
17530.0 0.00059259
17550.0 0.00059312
17570.0 0.00059365
17590.0 0.00059415
17610.0 0.00059462
17630.0 0.00059507
17650.0 0.00059551
17670.0 0.00059592
17690.0 0.00059629
17710.0 0.00059666
17730.0 0.000597
17750.0 0.00059731
17770.0 0.00059759
17790.0 0.00059787
17810.0 0.0005981
17830.0 0.0005983
17850.0 0.00059849
17870.0 0.00059866
17890.0 0.00059878
17910.0 0.00059888
17930.0 0.00059897
17950.0 0.00059903
17970.0 0.00059904
17990.0 0.00059905
18010.0 0.00059902
18030.0 0.00059895
18050.0 0.00059886
18070.0 0.00059876
18090.0 0.00059861
18110.0 0.00059842
18130.0 0.00059823
18150.0 0.00059801
18170.0 0.00059774
18190.0 0.00059745
18210.0 0.00059714
18230.0 0.00059678
18250.0 0.00059639
18270.0 0.00059598
18290.0 0.00059555
18310.0 0.00059507
18330.0 0.00059457
18350.0 0.00059405
18370.0 0.00059348
18390.0 0.00059288
18410.0 0.00059226
18430.0 0.00059161
18450.0 0.00059091
18470.0 0.00059019
18490.0 0.00058946
18510.0 0.00058867
18530.0 0.00058786
18550.0 0.00058703
18570.0 0.00058616
18590.0 0.00058524
18610.0 0.00058431
18630.0 0.00058336
18650.0 0.00058235
18670.0 0.00058132
18690.0 0.00058028
18710.0 0.00057919
18730.0 0.00057807
18750.0 0.00057692
18770.0 0.00057576
18790.0 0.00057453
18810.0 0.00057329
18830.0 0.00057203
18850.0 0.00057073
18870.0 0.0005694
18890.0 0.00056805
18910.0 0.00056667
18930.0 0.00056524
18950.0 0.0005638
18970.0 0.00056233
18990.0 0.00056083
19010.0 0.00055928
19030.0 0.00055774
19050.0 0.00055616
19070.0 0.00055454
19090.0 0.00055289
19110.0 0.00055124
19130.0 0.00054954
19150.0 0.00054781
19170.0 0.00054607
19190.0 0.00054429
19210.0 0.00054248
19230.0 0.00054066
19250.0 0.00053882
19270.0 0.00053694
19290.0 0.00053503
19310.0 0.00053312
19330.0 0.00053117
19350.0 0.00052919
19370.0 0.00052719
19390.0 0.00052518
19410.0 0.00052314
19430.0 0.00052106
19450.0 0.00051899
19470.0 0.00051689
19490.0 0.00051475
19510.0 0.0005126
19530.0 0.00051044
19550.0 0.00050825
19570.0 0.00050603
19590.0 0.00050381
19610.0 0.00050156
19630.0 0.00049929
19650.0 0.00049701
19670.0 0.00049472
19690.0 0.00049239
19710.0 0.00049005
19730.0 0.0004877
19750.0 0.00048534
19770.0 0.00048294
19790.0 0.00048054
19810.0 0.00047813
19830.0 0.00047569
19850.0 0.00047322
19870.0 0.00047071
19890.0 0.00046812
19910.0 0.00046536
19930.0 0.0004624
19950.0 0.00045914
19970.0 0.00045538
19990.0 0.00045104
20010.0 0.00044622
20030.0 0.00044068
20050.0 0.00043448
20070.0 0.00042791
20090.0 0.00042103
20110.0 0.00041359
20130.0 0.00040617
20150.0 0.0003989
20170.0 0.00039151
20190.0 0.00038411
20210.0 0.00037705
20230.0 0.00037012
20250.0 0.00036316
20270.0 0.0003565
20290.0 0.00035016
20310.0 0.00034391
20330.0 0.00033778
20350.0 0.00033217
20370.0 0.00032677
20390.0 0.00032154
20410.0 0.00031664
20430.0 0.00031212
20450.0 0.00030772
20470.0 0.00030362
20490.0 0.00029987
20510.0 0.00029637
20530.0 0.00029306
20550.0 0.00029005
20570.0 0.00028728
20590.0 0.00028469
20610.0 0.00028229
20630.0 0.00028008
20650.0 0.00027801
20670.0 0.00027606
20690.0 0.00027422
20710.0 0.00027246
20730.0 0.00027077
20750.0 0.0002691
20770.0 0.00026744
20790.0 0.00026577
20810.0 0.00026407
20830.0 0.00026231
20850.0 0.00026049
20870.0 0.00025858
20890.0 0.00025657
20910.0 0.00025446
20930.0 0.00025224
20950.0 0.00024989
20970.0 0.00024743
20990.0 0.00024488
21010.0 0.00024217
21030.0 0.00023936
21050.0 0.00023648
21070.0 0.0002335
21090.0 0.00023039
21110.0 0.00022727
21130.0 0.00022412
21150.0 0.00022088
21170.0 0.00021762
21190.0 0.0002144
21210.0 0.00021111
21230.0 0.0002078
21250.0 0.00020457
21270.0 0.00020138
21290.0 0.00019817
21310.0 0.00019502
21330.0 0.00019199
21350.0 0.00018897
21370.0 0.00018599
21390.0 0.00018314
21410.0 0.00018036
21430.0 0.00017758
21450.0 0.00017494
21470.0 0.00017241
21490.0 0.00016994
21510.0 0.00016754
21530.0 0.00016526
21550.0 0.00016306
21570.0 0.00016091
21590.0 0.00015886
21610.0 0.00015689
21630.0 0.00015497
21650.0 0.00015311
21670.0 0.00015133
21690.0 0.0001496
21710.0 0.00014789
21730.0 0.00014624
21750.0 0.00014462
21770.0 0.00014301
21790.0 0.00014142
21810.0 0.00013986
21830.0 0.0001383
21850.0 0.00013674
21870.0 0.00013518
21890.0 0.00013363
21910.0 0.00013206
21930.0 0.00013048
21950.0 0.00012891
21970.0 0.00012732
21990.0 0.00012569
22010.0 0.00012408
22030.0 0.00012246
22050.0 0.00012081
22070.0 0.00011915
22090.0 0.00011751
22110.0 0.00011585
22130.0 0.00011416
22150.0 0.00011248
22170.0 0.0001108
22190.0 0.00010909
22210.0 0.00010738
22230.0 0.0001057
22250.0 0.000104
22270.0 0.00010228
22290.0 0.00010059
22310.0 9.8908e-05
22330.0 9.7191e-05
22350.0 9.5491e-05
22370.0 9.3819e-05
22390.0 9.2136e-05
22410.0 9.0433e-05
22430.0 8.8779e-05
22450.0 8.7138e-05
22470.0 8.5478e-05
22490.0 8.3839e-05
22510.0 8.2242e-05
22530.0 8.0628e-05
22550.0 7.9016e-05
22570.0 7.746e-05
22590.0 7.5926e-05
22610.0 7.4392e-05
22630.0 7.2897e-05
22650.0 7.1463e-05
22670.0 7.0036e-05
22690.0 6.864e-05
22710.0 6.7306e-05
22730.0 6.6015e-05
22750.0 6.4734e-05
22770.0 6.3523e-05
22790.0 6.2372e-05
22810.0 6.1254e-05
22830.0 6.0179e-05
22850.0 5.917e-05
22870.0 5.8203e-05
22890.0 5.7271e-05
22910.0 5.6396e-05
22930.0 5.5569e-05
22950.0 5.478e-05
22970.0 5.4031e-05
22990.0 5.3332e-05
23010.0 5.2666e-05
23030.0 5.2033e-05
23050.0 5.143e-05
23070.0 5.0851e-05
23090.0 5.0292e-05
23110.0 4.9748e-05
23130.0 4.9211e-05
23150.0 4.8676e-05
23170.0 4.8139e-05
23190.0 4.7593e-05
23210.0 4.7034e-05
23230.0 4.6458e-05
23250.0 4.5861e-05
23270.0 4.5244e-05
23290.0 4.46e-05
