#lamb flux
1010.0 5.3378e-08
1030.0 5.989e-08
1050.0 6.7379e-08
1070.0 7.581e-08
1090.0 8.5386e-08
1110.0 9.5208e-08
1130.0 1.0509e-07
1150.0 1.1545e-07
1170.0 1.2613e-07
1190.0 1.3626e-07
1210.0 1.4652e-07
1230.0 1.5713e-07
1250.0 1.6752e-07
1270.0 1.7762e-07
1290.0 1.8828e-07
1310.0 1.9894e-07
1330.0 2.0916e-07
1350.0 2.1949e-07
1370.0 2.3016e-07
1390.0 2.4056e-07
1410.0 2.5066e-07
1430.0 2.612e-07
1450.0 2.7175e-07
1470.0 2.8194e-07
1490.0 2.9224e-07
1510.0 3.0312e-07
1530.0 3.1342e-07
1550.0 3.2358e-07
1570.0 3.3409e-07
1590.0 3.446e-07
1610.0 3.5464e-07
1630.0 3.6498e-07
1650.0 3.7559e-07
1670.0 3.8584e-07
1690.0 3.9594e-07
1710.0 4.0642e-07
1730.0 4.1694e-07
1750.0 4.2681e-07
1770.0 4.3695e-07
1790.0 4.4726e-07
1810.0 4.5721e-07
1830.0 4.6694e-07
1850.0 4.7724e-07
1870.0 4.8722e-07
1890.0 4.9678e-07
1910.0 5.0649e-07
1930.0 5.1636e-07
1950.0 5.2567e-07
1970.0 5.3476e-07
1990.0 5.4412e-07
2010.0 5.5318e-07
2030.0 5.6175e-07
2050.0 5.7046e-07
2070.0 5.7926e-07
2090.0 5.8729e-07
2110.0 5.9509e-07
2130.0 6.0297e-07
2150.0 6.1042e-07
2170.0 6.172e-07
2190.0 6.2405e-07
2210.0 6.3068e-07
2230.0 6.3661e-07
2250.0 6.4217e-07
2270.0 6.478e-07
2290.0 6.5277e-07
2310.0 6.5698e-07
2330.0 6.6112e-07
2350.0 6.6497e-07
2370.0 6.6815e-07
2390.0 6.7124e-07
2410.0 6.7483e-07
2430.0 6.7846e-07
2450.0 6.8255e-07
2470.0 6.8812e-07
2490.0 6.9558e-07
2510.0 7.042e-07
2530.0 7.1619e-07
2550.0 7.3458e-07
2570.0 7.6204e-07
2590.0 8.0295e-07
2610.0 8.7017e-07
2630.0 9.6785e-07
2650.0 1.0921e-06
2670.0 1.2459e-06
2690.0 1.4244e-06
2710.0 1.6011e-06
2730.0 1.7616e-06
2750.0 1.9066e-06
2770.0 2.0185e-06
2790.0 2.0935e-06
2810.0 2.1415e-06
2830.0 2.1689e-06
2850.0 2.1756e-06
2870.0 2.1715e-06
2890.0 2.1619e-06
2910.0 2.1483e-06
2930.0 2.1318e-06
2950.0 2.1154e-06
2970.0 2.0994e-06
2990.0 2.083e-06
3010.0 5.3974e-05
3030.0 5.3566e-05
3050.0 5.3164e-05
3070.0 5.2731e-05
3090.0 5.228e-05
3110.0 5.1758e-05
3130.0 5.1105e-05
3150.0 5.0285e-05
3170.0 4.9224e-05
3190.0 4.7948e-05
3210.0 4.6546e-05
3230.0 4.5097e-05
3250.0 4.3757e-05
3270.0 4.2797e-05
3290.0 4.2253e-05
3310.0 4.23e-05
3330.0 4.2882e-05
3350.0 4.3919e-05
3370.0 4.5424e-05
3390.0 4.7343e-05
3410.0 4.945e-05
3430.0 5.184e-05
3450.0 5.4608e-05
3470.0 5.764e-05
3490.0 6.0865e-05
3510.0 6.4507e-05
3530.0 6.8433e-05
3550.0 7.2503e-05
3570.0 7.6885e-05
3590.0 8.1817e-05
3610.0 8.7142e-05
3630.0 9.2658e-05
3650.0 9.8488e-05
3670.0 0.0001039
3690.0 0.00010807
3710.0 0.00011044
3730.0 0.0001101
3750.0 0.00010697
3770.0 0.00010249
3790.0 9.5062e-05
3810.0 8.1609e-05
3830.0 7.321e-05
3850.0 7.2104e-05
3870.0 5.4747e-05
3890.0 6.387e-05
3910.0 9.4498e-05
3930.0 0.00011814
3950.0 0.00012126
3970.0 0.00013333
3990.0 0.00013585
4010.0 0.00018817
4030.0 0.00018112
4050.0 0.00016039
4070.0 0.00015859
4090.0 0.0001516
4110.0 0.00017219
4130.0 0.00019333
4150.0 0.00021356
4170.0 0.000196
4190.0 0.0001888
4210.0 0.00019494
4230.0 0.00022814
4250.0 0.00025575
4270.0 0.00026715
4290.0 0.00025941
4310.0 0.00025352
4330.0 0.00027057
4350.0 0.00032671
4370.0 0.00038
4390.0 0.00033655
4410.0 0.00024523
4430.0 0.00019737
4450.0 0.00017226
4470.0 0.00015603
4490.0 0.00018934
4510.0 0.00025494
4530.0 0.0002931
4550.0 0.00031813
4570.0 0.00034333
4590.0 0.00040123
4610.0 0.00059239
4630.0 0.00076166
4650.0 0.00075312
4670.0 0.00069723
4690.0 0.00074133
4710.0 0.0007884
4730.0 0.00065389
4750.0 0.00044371
4770.0 0.00034587
4790.0 0.0003526
4810.0 0.00033944
4830.0 0.00032487
4850.0 0.00036525
4870.0 0.00047911
4890.0 0.000558
4910.0 0.00045375
4930.0 0.00040951
4950.0 0.00046163
4970.0 0.00062321
4990.0 0.00082587
5010.0 0.00090943
5030.0 0.00073829
5050.0 0.0004573
5070.0 0.00031727
5090.0 0.00027007
5110.0 0.00027353
5130.0 0.00030303
5150.0 0.00030876
5170.0 0.00030323
5190.0 0.00028971
5210.0 0.00028898
5230.0 0.00031618
5250.0 0.00034879
5270.0 0.00037053
5290.0 0.00042082
5310.0 0.00049686
5330.0 0.00051296
5350.0 0.00050983
5370.0 0.00056249
5390.0 0.00064511
5410.0 0.00059771
5430.0 0.00048892
5450.0 0.00046058
5470.0 0.00052317
5490.0 0.00067026
5510.0 0.00085083
5530.0 0.00096346
5550.0 0.00090599
5570.0 0.00081261
5590.0 0.00070152
5610.0 0.00066969
5630.0 0.00067404
5650.0 0.00066686
5670.0 0.00063794
5690.0 0.00056175
5710.0 0.00054741
5730.0 0.00051333
5750.0 0.00032571
5770.0 0.00026868
5790.0 0.00031234
5810.0 0.00036803
5830.0 0.00046066
5850.0 0.00053846
5870.0 0.0005609
5890.0 0.00053762
5910.0 0.00051556
5930.0 0.00051082
5950.0 0.00053269
5970.0 0.00060425
5990.0 0.00054391
6010.0 0.00044195
6030.0 0.00036395
6050.0 0.00031706
6070.0 0.00033591
6090.0 0.00038199
6110.0 0.00041114
6130.0 0.00038797
6150.0 0.00033722
6170.0 0.00033732
6190.0 0.00041198
6210.0 0.00054278
6230.0 0.00067989
6250.0 0.00069621
6270.0 0.00058942
6290.0 0.00049248
6310.0 0.00038558
6330.0 0.00029728
6350.0 0.00027295
6370.0 0.00029085
6390.0 0.00034871
6410.0 0.00041825
6430.0 0.00049217
6450.0 0.00058552
6470.0 0.00067915
6490.0 0.00083415
6510.0 0.00093236
6530.0 0.00088814
6550.0 0.00081368
6570.0 0.00074543
6590.0 0.00071981
6610.0 0.0006229
6630.0 0.00058709
6650.0 0.00054549
6670.0 0.00053864
6690.0 0.00049918
6710.0 0.00045473
6730.0 0.00035511
6750.0 0.00034185
6770.0 0.00037439
6790.0 0.00044551
6810.0 0.0004057
6830.0 0.00041693
6850.0 0.00039237
6870.0 0.00037437
6890.0 0.00035339
6910.0 0.0003602
6930.0 0.00033641
6950.0 0.00036104
6970.0 0.00036463
6990.0 0.00040699
7010.0 0.00042603
7030.0 0.0004143
7050.0 0.00037954
7070.0 0.00035773
7090.0 0.00034416
7110.0 0.00033249
7130.0 0.00035201
7150.0 0.00038311
7170.0 0.00041498
7190.0 0.00042409
7210.0 0.00039999
7230.0 0.00040923
7250.0 0.00046008
7270.0 0.00052851
7290.0 0.00059714
7310.0 0.00059559
7330.0 0.0005337
7350.0 0.0004761
7370.0 0.00041725
7390.0 0.00042618
7410.0 0.00047311
7430.0 0.00052266
7450.0 0.00056444
7470.0 0.00058615
7490.0 0.00060912
7510.0 0.00071457
7530.0 0.00065683
7550.0 0.00056437
7570.0 0.00042352
7590.0 0.00027911
7610.0 0.0002392
7630.0 0.00027244
7650.0 0.00032374
7670.0 0.00040414
7690.0 0.00045835
7710.0 0.000469
7730.0 0.00047581
7750.0 0.00052371
7770.0 0.00052467
7790.0 0.00049841
7810.0 0.00047448
7830.0 0.00047468
7850.0 0.00045188
7870.0 0.00041852
7890.0 0.00036226
7910.0 0.0002911
7930.0 0.00026276
7950.0 0.0002371
7970.0 0.00022362
7990.0 0.00022363
8010.0 0.00023184
8030.0 0.00022961
8050.0 0.000234
8070.0 0.0002341
8090.0 0.00024639
8110.0 0.00023175
8130.0 0.00019152
8150.0 0.00018111
8170.0 0.00015789
8190.0 0.00015063
8210.0 0.00017432
8230.0 0.00018987
8250.0 0.000162
8270.0 0.00014336
8290.0 0.0001272
8310.0 9.0159e-05
8330.0 5.7882e-05
8350.0 4.307e-05
8370.0 3.9586e-05
8390.0 5.2229e-05
8410.0 6.5636e-05
8430.0 8.0726e-05
8450.0 8.9583e-05
8470.0 0.00010611
8490.0 0.00010067
8510.0 9.7411e-05
8530.0 9.4391e-05
8550.0 0.00012833
8570.0 0.00016548
8590.0 0.00017418
8610.0 0.0002174
8630.0 0.00024941
8650.0 0.00024215
8670.0 0.00025581
8690.0 0.0002719
8710.0 0.00025127
8730.0 0.00024597
8750.0 0.00022114
8770.0 0.00021006
8790.0 0.00021268
8810.0 0.00020729
8830.0 0.00016333
8850.0 0.00012683
8870.0 0.00010414
8890.0 0.00011199
8910.0 0.00012948
8930.0 0.00014419
8950.0 0.00016332
8970.0 0.00016429
8990.0 0.00015367
9010.0 0.00013718
9030.0 0.00013205
9050.0 0.000134
9070.0 0.00013564
9090.0 0.00013689
9110.0 0.00013816
9130.0 0.00013918
9150.0 0.00014003
9170.0 0.00014094
9190.0 0.00014191
9210.0 0.00014293
9230.0 0.000144
9250.0 0.00014512
9270.0 0.00014629
9290.0 0.0001475
9310.0 0.00014874
9330.0 0.00015003
9350.0 0.00015135
9370.0 0.00015271
9390.0 0.00015412
9410.0 0.00015555
9430.0 0.00015703
9450.0 0.00015854
9470.0 0.00016009
9490.0 0.00016168
9510.0 0.0001633
9530.0 0.00016496
9550.0 0.00016666
9570.0 0.00016838
9590.0 0.00017014
9610.0 0.00017194
9630.0 0.00017377
9650.0 0.00017563
9670.0 0.00017752
9690.0 0.00017944
9710.0 0.00018139
9730.0 0.00018337
9750.0 0.00018538
9770.0 0.00018741
9790.0 0.00018948
9810.0 0.00019156
9830.0 0.00019367
9850.0 0.0001958
9870.0 0.00019796
9890.0 0.00020014
9910.0 0.00020233
9930.0 0.00020454
9950.0 0.00020678
9970.0 0.00020902
9990.0 0.00021127
10010.0 0.00020085
10030.0 0.00020295
10050.0 0.00020504
10070.0 0.00020714
10090.0 0.00020926
10110.0 0.00021138
10130.0 0.0002135
10150.0 0.00021563
10170.0 0.00021775
10190.0 0.00021986
10210.0 0.00022197
10230.0 0.00022409
10250.0 0.00022618
10270.0 0.00022827
10290.0 0.00023035
10310.0 0.00023241
10330.0 0.00023446
10350.0 0.00023649
10370.0 0.00023851
10390.0 0.0002405
10410.0 0.00024247
10430.0 0.00024443
10450.0 0.00024635
10470.0 0.00024824
10490.0 0.00025011
10510.0 0.00025196
10530.0 0.00025375
10550.0 0.00025552
10570.0 0.00025727
10590.0 0.00025896
10610.0 0.00026062
10630.0 0.00026225
10650.0 0.00026383
10670.0 0.00026536
10690.0 0.00026686
10710.0 0.00026831
10730.0 0.00026971
10750.0 0.00027105
10770.0 0.00027236
10790.0 0.00027362
10810.0 0.00027481
10830.0 0.00027595
10850.0 0.00027702
10870.0 0.00027796
10890.0 0.00027874
10910.0 0.00027928
10930.0 0.00027943
10950.0 0.00027897
10970.0 0.00027777
10990.0 0.00027577
11010.0 0.00027144
11030.0 0.00026722
11050.0 0.00026214
11070.0 0.00025607
11090.0 0.00024874
11110.0 0.00024116
11130.0 0.00023323
11150.0 0.00022468
11170.0 0.00021589
11190.0 0.00020742
11210.0 0.00019875
11230.0 0.00018996
11250.0 0.00018168
11270.0 0.00017386
11290.0 0.00016615
11310.0 0.00015897
11330.0 0.00015275
11350.0 0.00014695
11370.0 0.00014164
11390.0 0.00013707
11410.0 0.00013305
11430.0 0.00012926
11450.0 0.00012591
11470.0 0.00012289
11490.0 0.00011995
11510.0 0.00011696
11530.0 0.00011405
11550.0 0.00011106
11570.0 0.00010781
11590.0 0.0001044
11610.0 0.00010093
11630.0 9.7177e-05
11650.0 9.3214e-05
11670.0 8.9359e-05
11690.0 8.5505e-05
11710.0 8.1593e-05
11730.0 7.7854e-05
11750.0 7.4431e-05
11770.0 7.1114e-05
11790.0 6.8033e-05
11810.0 6.533e-05
11830.0 6.2914e-05
11850.0 6.0682e-05
11870.0 5.8785e-05
11890.0 5.7167e-05
11910.0 5.5695e-05
11930.0 5.4366e-05
11950.0 5.3184e-05
11970.0 5.2056e-05
11990.0 5.0918e-05
12010.0 4.98e-05
12030.0 4.8676e-05
12050.0 4.7486e-05
12070.0 4.6231e-05
12090.0 4.5007e-05
12110.0 4.3757e-05
12130.0 4.2488e-05
12150.0 4.1287e-05
12170.0 4.0188e-05
12190.0 3.9152e-05
12210.0 3.8281e-05
12230.0 3.7613e-05
12250.0 3.7142e-05
12270.0 3.69e-05
12290.0 3.6903e-05
12310.0 3.7129e-05
12330.0 3.7612e-05
12350.0 3.8325e-05
12370.0 3.9204e-05
12390.0 4.027e-05
12410.0 4.1561e-05
12430.0 4.2878e-05
12450.0 4.4242e-05
12470.0 4.5687e-05
12490.0 4.7118e-05
12510.0 4.8424e-05
12530.0 4.9694e-05
12550.0 5.088e-05
12570.0 5.1872e-05
12590.0 5.2687e-05
12610.0 5.3361e-05
12630.0 5.3826e-05
12650.0 5.4054e-05
12670.0 5.4103e-05
12690.0 5.3957e-05
12710.0 5.3621e-05
12730.0 5.3121e-05
12750.0 5.2446e-05
12770.0 5.1631e-05
12790.0 5.0712e-05
12810.0 4.9676e-05
12830.0 4.8526e-05
12850.0 4.7344e-05
12870.0 4.6113e-05
12890.0 4.4798e-05
12910.0 4.3461e-05
12930.0 4.2134e-05
12950.0 4.0744e-05
12970.0 3.9314e-05
12990.0 3.7933e-05
13010.0 3.6548e-05
13030.0 3.5126e-05
13050.0 3.3734e-05
13070.0 3.2404e-05
13090.0 3.1053e-05
13110.0 2.9729e-05
13130.0 2.8491e-05
13150.0 2.7309e-05
13170.0 2.6149e-05
13190.0 2.5111e-05
13210.0 2.4194e-05
13230.0 2.3359e-05
13250.0 2.2641e-05
13270.0 2.2071e-05
13290.0 2.1625e-05
13310.0 2.1311e-05
13330.0 2.1146e-05
13350.0 2.1117e-05
13370.0 2.1224e-05
13390.0 2.147e-05
13410.0 2.1807e-05
13430.0 2.2247e-05
13450.0 2.2788e-05
13470.0 2.3379e-05
13490.0 2.3995e-05
13510.0 2.4683e-05
13530.0 2.5369e-05
13550.0 2.6013e-05
13570.0 2.6638e-05
13590.0 2.724e-05
13610.0 2.7763e-05
13630.0 2.8208e-05
13650.0 2.8604e-05
13670.0 2.8918e-05
13690.0 2.9142e-05
13710.0 2.9295e-05
13730.0 2.9378e-05
13750.0 2.9378e-05
13770.0 2.9312e-05
13790.0 2.9184e-05
13810.0 2.8996e-05
13830.0 2.8765e-05
13850.0 2.8482e-05
13870.0 2.8152e-05
13890.0 2.7792e-05
13910.0 2.7403e-05
13930.0 2.6972e-05
13950.0 2.6516e-05
13970.0 2.6062e-05
13990.0 2.5581e-05
14010.0 2.5082e-05
14030.0 2.4595e-05
14050.0 2.4114e-05
14070.0 2.3618e-05
14090.0 2.3152e-05
14110.0 2.2721e-05
14130.0 2.2311e-05
14150.0 2.1933e-05
14170.0 2.1617e-05
14190.0 2.1349e-05
14210.0 2.1129e-05
14230.0 2.0973e-05
14250.0 2.088e-05
14270.0 2.0848e-05
14290.0 2.0884e-05
14310.0 2.0978e-05
14330.0 2.1129e-05
14350.0 2.1342e-05
14370.0 2.16e-05
14390.0 2.189e-05
14410.0 2.223e-05
14430.0 2.2604e-05
14450.0 2.2988e-05
14470.0 2.3394e-05
14490.0 2.3836e-05
14510.0 2.4274e-05
14530.0 2.4709e-05
14550.0 2.517e-05
14570.0 2.5645e-05
14590.0 2.6115e-05
14610.0 2.6612e-05
14630.0 2.7154e-05
14650.0 2.7709e-05
14670.0 2.8289e-05
14690.0 2.8932e-05
14710.0 2.9634e-05
14730.0 3.0345e-05
14750.0 3.1121e-05
14770.0 3.1972e-05
14790.0 3.2849e-05
14810.0 3.3748e-05
14830.0 3.4743e-05
14850.0 3.5749e-05
14870.0 3.673e-05
14890.0 3.7722e-05
14910.0 3.8711e-05
14930.0 3.961e-05
14950.0 4.0412e-05
14970.0 4.1139e-05
14990.0 4.1725e-05
15010.0 4.2159e-05
15030.0 4.2471e-05
15050.0 4.2668e-05
15070.0 4.276e-05
15090.0 4.2787e-05
15110.0 4.2769e-05
15130.0 4.2723e-05
15150.0 4.2667e-05
15170.0 4.2601e-05
15190.0 4.253e-05
15210.0 4.2462e-05
15230.0 4.2395e-05
15250.0 4.2324e-05
15270.0 4.2255e-05
15290.0 4.2191e-05
15310.0 4.2125e-05
15330.0 4.2057e-05
15350.0 4.1994e-05
15370.0 4.1932e-05
15390.0 4.1864e-05
15410.0 4.18e-05
15430.0 4.1739e-05
15450.0 4.1675e-05
15470.0 4.161e-05
15490.0 4.155e-05
15510.0 4.1489e-05
15530.0 4.1425e-05
15550.0 4.1363e-05
15570.0 4.1304e-05
15590.0 4.1241e-05
15610.0 4.1176e-05
15630.0 4.1116e-05
15650.0 4.1056e-05
15670.0 4.0991e-05
15690.0 4.0929e-05
15710.0 4.0871e-05
15730.0 4.0807e-05
15750.0 4.0742e-05
15770.0 4.0681e-05
15790.0 4.0619e-05
15810.0 4.0551e-05
15830.0 4.0488e-05
15850.0 4.0426e-05
15870.0 4.036e-05
15890.0 4.0294e-05
15910.0 4.0231e-05
15930.0 4.0166e-05
15950.0 4.0096e-05
15970.0 4.0029e-05
15990.0 3.9963e-05
16010.0 3.9893e-05
16030.0 3.9821e-05
16050.0 3.9755e-05
16070.0 3.9685e-05
16090.0 3.9612e-05
16110.0 3.9541e-05
16130.0 3.9472e-05
16150.0 3.9395e-05
16170.0 3.9319e-05
16190.0 3.9246e-05
16210.0 3.9171e-05
16230.0 3.9091e-05
16250.0 3.9015e-05
16270.0 3.894e-05
16290.0 3.8858e-05
16310.0 3.8777e-05
16330.0 3.8699e-05
16350.0 3.8617e-05
16370.0 3.8529e-05
16390.0 3.8447e-05
16410.0 3.8365e-05
16430.0 3.8277e-05
16450.0 3.8189e-05
16470.0 3.8105e-05
16490.0 3.8015e-05
16510.0 3.7923e-05
16530.0 3.7834e-05
16550.0 3.7743e-05
16570.0 3.7647e-05
16590.0 3.7552e-05
16610.0 3.746e-05
16630.0 3.7364e-05
16650.0 3.7265e-05
16670.0 3.7169e-05
16690.0 3.7072e-05
16710.0 3.6967e-05
16730.0 3.6865e-05
16750.0 3.6765e-05
16770.0 3.6661e-05
16790.0 3.6553e-05
16810.0 3.6451e-05
16830.0 3.6346e-05
16850.0 3.6235e-05
16870.0 3.6127e-05
16890.0 3.602e-05
16910.0 3.5907e-05
16930.0 3.5791e-05
16950.0 3.5681e-05
16970.0 3.5568e-05
16990.0 3.545e-05
17010.0 3.5335e-05
17030.0 3.5221e-05
17050.0 3.5101e-05
17070.0 3.498e-05
17090.0 3.4862e-05
17110.0 3.4742e-05
17130.0 3.4615e-05
17150.0 3.4493e-05
17170.0 3.4372e-05
17190.0 3.4246e-05
17210.0 3.4118e-05
17230.0 3.3995e-05
17250.0 3.3867e-05
17270.0 3.3735e-05
17290.0 3.3606e-05
17310.0 3.3478e-05
17330.0 3.3344e-05
17350.0 3.321e-05
17370.0 3.308e-05
17390.0 3.2947e-05
17410.0 3.281e-05
17430.0 3.2676e-05
17450.0 3.2543e-05
17470.0 3.2402e-05
17490.0 3.2262e-05
17510.0 3.2127e-05
17530.0 3.1987e-05
17550.0 3.1845e-05
17570.0 3.1706e-05
17590.0 3.1567e-05
17610.0 3.1423e-05
17630.0 3.1279e-05
17650.0 3.1139e-05
17670.0 3.0995e-05
17690.0 3.0845e-05
17710.0 3.0702e-05
17730.0 3.0559e-05
17750.0 3.0411e-05
17770.0 3.0263e-05
17790.0 3.012e-05
17810.0 2.9971e-05
17830.0 2.982e-05
17850.0 2.9673e-05
17870.0 2.9525e-05
17890.0 2.9373e-05
17910.0 2.9221e-05
17930.0 2.9075e-05
17950.0 2.8923e-05
17970.0 2.8771e-05
17990.0 2.8622e-05
18010.0 2.8472e-05
18030.0 2.8315e-05
18050.0 2.8163e-05
18070.0 2.8012e-05
18090.0 2.7858e-05
18110.0 2.7703e-05
18130.0 2.7552e-05
18150.0 2.74e-05
18170.0 2.7244e-05
18190.0 2.709e-05
18210.0 2.6939e-05
18230.0 2.6782e-05
18250.0 2.6625e-05
18270.0 2.6473e-05
18290.0 2.6319e-05
18310.0 2.6162e-05
18330.0 2.6008e-05
18350.0 2.5856e-05
18370.0 2.5699e-05
18390.0 2.5543e-05
18410.0 2.539e-05
18430.0 2.5236e-05
18450.0 2.5077e-05
18470.0 2.4923e-05
18490.0 2.477e-05
18510.0 2.4614e-05
18530.0 2.4459e-05
18550.0 2.4307e-05
18570.0 2.4153e-05
18590.0 2.3995e-05
18610.0 2.3842e-05
18630.0 2.3689e-05
18650.0 2.3533e-05
18670.0 2.3378e-05
18690.0 2.3228e-05
18710.0 2.3074e-05
18730.0 2.2919e-05
18750.0 2.2768e-05
18770.0 2.2617e-05
18790.0 2.2461e-05
18810.0 2.2308e-05
18830.0 2.2158e-05
18850.0 2.2006e-05
18870.0 2.1852e-05
18890.0 2.1703e-05
18910.0 2.1555e-05
18930.0 2.1402e-05
18950.0 2.1251e-05
18970.0 2.1103e-05
18990.0 2.0953e-05
19010.0 2.08e-05
19030.0 2.0653e-05
19050.0 2.0507e-05
19070.0 2.0357e-05
19090.0 2.0209e-05
19110.0 2.0065e-05
19130.0 1.9916e-05
19150.0 1.9768e-05
19170.0 1.9623e-05
19190.0 1.9479e-05
19210.0 1.933e-05
19230.0 1.9185e-05
19250.0 1.9044e-05
19270.0 1.8899e-05
19290.0 1.8754e-05
19310.0 1.8613e-05
19330.0 1.8472e-05
19350.0 1.8326e-05
19370.0 1.8184e-05
19390.0 1.8045e-05
19410.0 1.7904e-05
19430.0 1.7761e-05
19450.0 1.7624e-05
19470.0 1.7486e-05
19490.0 1.7345e-05
19510.0 1.7207e-05
19530.0 1.7072e-05
19550.0 1.6933e-05
19570.0 1.6793e-05
19590.0 1.666e-05
19610.0 1.6525e-05
19630.0 1.6387e-05
19650.0 1.6254e-05
19670.0 1.6122e-05
19690.0 1.5987e-05
19710.0 1.5852e-05
19730.0 1.5722e-05
19750.0 1.559e-05
19770.0 1.5455e-05
19790.0 1.5325e-05
19810.0 1.5197e-05
19830.0 1.5065e-05
19850.0 1.4934e-05
19870.0 1.4806e-05
19890.0 1.4673e-05
19910.0 1.4532e-05
19930.0 1.4387e-05
19950.0 1.4231e-05
19970.0 1.4054e-05
19990.0 1.3854e-05
20010.0 1.3832e-05
20030.0 1.3581e-05
20050.0 1.3301e-05
20070.0 1.3009e-05
20090.0 1.2704e-05
20110.0 1.237e-05
20130.0 1.204e-05
20150.0 1.172e-05
20170.0 1.1396e-05
20190.0 1.1073e-05
20210.0 1.0772e-05
20230.0 1.0481e-05
20250.0 1.0194e-05
20270.0 9.9286e-06
20290.0 9.6871e-06
20310.0 9.4585e-06
20330.0 9.2454e-06
20350.0 9.0671e-06
20370.0 8.9083e-06
20390.0 8.7689e-06
20410.0 8.6553e-06
20430.0 8.5665e-06
20450.0 8.4965e-06
20470.0 8.4493e-06
20490.0 8.4236e-06
20510.0 8.4164e-06
20530.0 8.4282e-06
20550.0 8.4561e-06
20570.0 8.4962e-06
20590.0 8.5515e-06
20610.0 8.6187e-06
20630.0 8.6923e-06
20650.0 8.7749e-06
20670.0 8.8699e-06
20690.0 8.9656e-06
20710.0 9.0636e-06
20730.0 9.1688e-06
20750.0 9.2774e-06
20770.0 9.3821e-06
20790.0 9.4908e-06
20810.0 9.6043e-06
20830.0 9.7153e-06
20850.0 9.8249e-06
20870.0 9.9414e-06
20890.0 1.0059e-05
20910.0 1.0171e-05
20930.0 1.0286e-05
20950.0 1.0406e-05
20970.0 1.0521e-05
20990.0 1.0635e-05
21010.0 1.0756e-05
21030.0 1.0875e-05
21050.0 1.0988e-05
21070.0 1.1102e-05
21090.0 1.1218e-05
21110.0 1.1324e-05
21130.0 1.1425e-05
21150.0 1.1525e-05
21170.0 1.1618e-05
21190.0 1.17e-05
21210.0 1.1779e-05
21230.0 1.1851e-05
21250.0 1.1909e-05
21270.0 1.1956e-05
21290.0 1.1993e-05
21310.0 1.2016e-05
21330.0 1.2024e-05
21350.0 1.2017e-05
21370.0 1.1993e-05
21390.0 1.1951e-05
21410.0 1.1892e-05
21430.0 1.181e-05
21450.0 1.1709e-05
21470.0 1.1592e-05
21490.0 1.1453e-05
21510.0 1.1293e-05
21530.0 1.1123e-05
21550.0 1.0938e-05
21570.0 1.0732e-05
21590.0 1.0522e-05
21610.0 1.0311e-05
21630.0 1.009e-05
21650.0 9.865e-06
21670.0 9.6586e-06
21690.0 9.4572e-06
21710.0 9.2626e-06
21730.0 9.0875e-06
21750.0 8.9347e-06
21770.0 8.7945e-06
21790.0 8.6792e-06
21810.0 8.5915e-06
21830.0 8.5275e-06
21850.0 8.4883e-06
21870.0 8.4762e-06
21890.0 8.4878e-06
21910.0 8.5243e-06
21930.0 8.5846e-06
21950.0 8.6632e-06
21970.0 8.7625e-06
21990.0 8.8864e-06
22010.0 9.0206e-06
22030.0 9.1662e-06
22050.0 9.3291e-06
22070.0 9.5024e-06
22090.0 9.6747e-06
22110.0 9.8569e-06
22130.0 1.0047e-05
22150.0 1.0233e-05
22170.0 1.0415e-05
22190.0 1.0602e-05
22210.0 1.0782e-05
22230.0 1.0945e-05
22250.0 1.1104e-05
22270.0 1.1253e-05
22290.0 1.1384e-05
22310.0 1.1499e-05
22330.0 1.1603e-05
22350.0 1.1685e-05
22370.0 1.1746e-05
22390.0 1.1788e-05
22410.0 1.1808e-05
22430.0 1.1804e-05
22450.0 1.1779e-05
22470.0 1.1729e-05
22490.0 1.1657e-05
22510.0 1.1564e-05
22530.0 1.1445e-05
22550.0 1.13e-05
22570.0 1.1139e-05
22590.0 1.0958e-05
22610.0 1.0749e-05
