#lamb flux
1010.0 1.7959e-09
1030.0 1.9861e-09
1050.0 2.2048e-09
1070.0 2.4511e-09
1090.0 2.7308e-09
1110.0 3.0176e-09
1130.0 3.3064e-09
1150.0 3.6088e-09
1170.0 3.9208e-09
1190.0 4.2166e-09
1210.0 4.5165e-09
1230.0 4.8263e-09
1250.0 5.1298e-09
1270.0 5.4247e-09
1290.0 5.7362e-09
1310.0 6.0474e-09
1330.0 6.3459e-09
1350.0 6.6478e-09
1370.0 6.9595e-09
1390.0 7.2634e-09
1410.0 7.5582e-09
1430.0 7.8665e-09
1450.0 8.1748e-09
1470.0 8.4727e-09
1490.0 8.7738e-09
1510.0 9.092e-09
1530.0 9.3935e-09
1550.0 9.6909e-09
1570.0 9.9987e-09
1590.0 1.0307e-08
1610.0 1.0601e-08
1630.0 1.0905e-08
1650.0 1.1217e-08
1670.0 1.1519e-08
1690.0 1.1817e-08
1710.0 1.2127e-08
1730.0 1.2439e-08
1750.0 1.2732e-08
1770.0 1.3035e-08
1790.0 1.3344e-08
1810.0 1.3643e-08
1830.0 1.3938e-08
1850.0 1.4251e-08
1870.0 1.4556e-08
1890.0 1.4852e-08
1910.0 1.5154e-08
1930.0 1.5464e-08
1950.0 1.5761e-08
1970.0 1.6055e-08
1990.0 1.636e-08
2010.0 1.6661e-08
2030.0 1.6953e-08
2050.0 1.7253e-08
2070.0 1.7562e-08
2090.0 1.7854e-08
2110.0 1.8146e-08
2130.0 1.8447e-08
2150.0 1.8743e-08
2170.0 1.9027e-08
2190.0 1.9322e-08
2210.0 1.9619e-08
2230.0 1.9905e-08
2250.0 2.019e-08
2270.0 2.0488e-08
2290.0 2.0777e-08
2310.0 2.1055e-08
2330.0 2.1344e-08
2350.0 2.1641e-08
2370.0 2.1936e-08
2390.0 2.2256e-08
2410.0 2.2636e-08
2430.0 2.3072e-08
2450.0 2.3594e-08
2470.0 2.4263e-08
2490.0 2.5106e-08
2510.0 2.6065e-08
2530.0 2.7219e-08
2550.0 2.8663e-08
2570.0 3.046e-08
2590.0 3.2798e-08
2610.0 3.6298e-08
2630.0 4.1294e-08
2650.0 4.7826e-08
2670.0 5.6272e-08
2690.0 6.6649e-08
2710.0 7.7726e-08
2730.0 8.8669e-08
2750.0 9.9448e-08
2770.0 1.0882e-07
2790.0 1.1626e-07
2810.0 1.2217e-07
2830.0 1.2678e-07
2850.0 1.2993e-07
2870.0 1.3224e-07
2890.0 1.3406e-07
2910.0 1.3552e-07
2930.0 1.3671e-07
2950.0 1.3784e-07
2970.0 1.3895e-07
2990.0 1.3999e-07
3010.0 3.9597e-06
3030.0 3.9891e-06
3050.0 4.0176e-06
3070.0 4.042e-06
3090.0 4.0629e-06
3110.0 4.0759e-06
3130.0 4.0753e-06
3150.0 4.0571e-06
3170.0 4.0135e-06
3190.0 3.9452e-06
3210.0 3.8586e-06
3230.0 3.7594e-06
3250.0 3.6615e-06
3270.0 3.59e-06
3290.0 3.5502e-06
3310.0 3.5565e-06
3330.0 3.6079e-06
3350.0 3.6974e-06
3370.0 3.8253e-06
3390.0 3.9865e-06
3410.0 4.162e-06
3430.0 4.3589e-06
3450.0 4.5857e-06
3470.0 4.8334e-06
3490.0 5.0958e-06
3510.0 5.3925e-06
3530.0 5.7102e-06
3550.0 6.0319e-06
3570.0 6.3676e-06
3590.0 6.7327e-06
3610.0 7.109e-06
3630.0 7.4841e-06
3650.0 7.8733e-06
3670.0 8.2286e-06
3690.0 8.4941e-06
3710.0 8.6463e-06
3730.0 8.651e-06
3750.0 8.5299e-06
3770.0 8.4838e-06
3790.0 8.4333e-06
3810.0 8.2201e-06
3830.0 8.4736e-06
3850.0 9.4843e-06
3870.0 1.0033e-05
3890.0 9.978e-06
3910.0 1.0017e-05
3930.0 1.0285e-05
3950.0 1.0454e-05
3970.0 9.5311e-06
3990.0 8.1913e-06
4010.0 2.4523e-05
4030.0 2.9701e-05
4050.0 3.4051e-05
4070.0 2.9564e-05
4090.0 2.6778e-05
4110.0 2.3623e-05
4130.0 2.1762e-05
4150.0 2.3173e-05
4170.0 2.2804e-05
4190.0 2.4291e-05
4210.0 2.408e-05
4230.0 2.5485e-05
4250.0 3.0154e-05
4270.0 3.0519e-05
4290.0 2.8115e-05
4310.0 2.9199e-05
4330.0 3.1049e-05
4350.0 3.4831e-05
4370.0 3.9651e-05
4390.0 3.7181e-05
4410.0 2.7441e-05
4430.0 2.3219e-05
4450.0 2.1338e-05
4470.0 1.6365e-05
4490.0 1.7682e-05
4510.0 2.6757e-05
4530.0 3.0869e-05
4550.0 3.1121e-05
4570.0 3.4984e-05
4590.0 3.9838e-05
4610.0 5.3826e-05
4630.0 6.9942e-05
4650.0 7.58e-05
4670.0 7.0179e-05
4690.0 6.6978e-05
4710.0 7.0795e-05
4730.0 6.6774e-05
4750.0 4.9897e-05
4770.0 3.6588e-05
4790.0 3.4187e-05
4810.0 3.2602e-05
4830.0 2.9857e-05
4850.0 3.276e-05
4870.0 4.328e-05
4890.0 5.1034e-05
4910.0 4.4754e-05
4930.0 3.9619e-05
4950.0 4.3537e-05
4970.0 5.5841e-05
4990.0 7.5678e-05
5010.0 8.7064e-05
5030.0 7.6737e-05
5050.0 5.1898e-05
5070.0 3.4214e-05
5090.0 2.7578e-05
5110.0 2.8349e-05
5130.0 3.2727e-05
5150.0 3.5443e-05
5170.0 3.4904e-05
5190.0 3.2609e-05
5210.0 3.4094e-05
5230.0 3.5865e-05
5250.0 3.8667e-05
5270.0 4.169e-05
5290.0 4.6195e-05
5310.0 5.3803e-05
5330.0 5.9537e-05
5350.0 5.9155e-05
5370.0 6.2155e-05
5390.0 7.1355e-05
5410.0 7.124e-05
5430.0 6.2968e-05
5450.0 5.7876e-05
5470.0 6.1477e-05
5490.0 7.5114e-05
5510.0 9.3904e-05
5530.0 0.00010771
5550.0 0.00010407
5570.0 9.4606e-05
5590.0 8.2242e-05
5610.0 7.5877e-05
5630.0 7.3631e-05
5650.0 7.0111e-05
5670.0 6.6425e-05
5690.0 5.9356e-05
5710.0 5.7888e-05
5730.0 5.3337e-05
5750.0 3.7566e-05
5770.0 2.9296e-05
5790.0 3.321e-05
5810.0 3.7488e-05
5830.0 4.6049e-05
5850.0 5.4842e-05
5870.0 6.0842e-05
5890.0 6.1857e-05
5910.0 6.0685e-05
5930.0 5.7766e-05
5950.0 5.8866e-05
5970.0 6.713e-05
5990.0 6.308e-05
6010.0 5.2862e-05
6030.0 4.4655e-05
6050.0 3.8893e-05
6070.0 3.8711e-05
6090.0 4.1982e-05
6110.0 4.6921e-05
6130.0 4.7622e-05
6150.0 4.0959e-05
6170.0 3.601e-05
6190.0 4.0533e-05
6210.0 5.3625e-05
6230.0 7.0415e-05
6250.0 7.6271e-05
6270.0 6.6609e-05
6290.0 5.6047e-05
6310.0 4.375e-05
6330.0 3.3513e-05
6350.0 2.9906e-05
6370.0 3.1449e-05
6390.0 3.6361e-05
6410.0 4.4847e-05
6430.0 5.2376e-05
6450.0 5.9953e-05
6470.0 6.8616e-05
6490.0 8.2878e-05
6510.0 9.267e-05
6530.0 9.0937e-05
6550.0 8.2239e-05
6570.0 6.9787e-05
6590.0 6.2942e-05
6610.0 5.4261e-05
6630.0 4.9195e-05
6650.0 4.6513e-05
6670.0 4.5156e-05
6690.0 4.0767e-05
6710.0 3.7071e-05
6730.0 2.6644e-05
6750.0 2.6446e-05
6770.0 2.8801e-05
6790.0 3.3134e-05
6810.0 3.027e-05
6830.0 3.1168e-05
6850.0 2.9134e-05
6870.0 2.6616e-05
6890.0 2.554e-05
6910.0 2.7235e-05
6930.0 2.551e-05
6950.0 2.6266e-05
6970.0 2.7627e-05
6990.0 3.1355e-05
7010.0 3.1613e-05
7030.0 3.2139e-05
7050.0 3.0634e-05
7070.0 2.9167e-05
7090.0 2.9264e-05
7110.0 3.0118e-05
7130.0 3.2424e-05
7150.0 3.445e-05
7170.0 3.8017e-05
7190.0 4.1787e-05
7210.0 4.104e-05
7230.0 4.2186e-05
7250.0 4.5333e-05
7270.0 4.9395e-05
7290.0 5.8642e-05
7310.0 6.3628e-05
7330.0 6.1495e-05
7350.0 5.5616e-05
7370.0 4.8353e-05
7390.0 4.692e-05
7410.0 4.9896e-05
7430.0 5.5462e-05
7450.0 6.0405e-05
7470.0 5.9822e-05
7490.0 5.4502e-05
7510.0 6.1851e-05
7530.0 6.1148e-05
7550.0 5.4981e-05
7570.0 4.2918e-05
7590.0 2.9449e-05
7610.0 2.5261e-05
7630.0 2.8729e-05
7650.0 3.3986e-05
7670.0 4.235e-05
7690.0 4.6604e-05
7710.0 4.8532e-05
7730.0 5.0989e-05
7750.0 5.7287e-05
7770.0 5.8192e-05
7790.0 5.345e-05
7810.0 4.8738e-05
7830.0 5.0273e-05
7850.0 4.8903e-05
7870.0 4.4853e-05
7890.0 3.7668e-05
7910.0 3.0589e-05
7930.0 2.9221e-05
7950.0 2.6621e-05
7970.0 2.4631e-05
7990.0 2.448e-05
8010.0 2.0528e-06
8030.0 1.996e-06
8050.0 1.9979e-06
8070.0 2.0757e-06
8090.0 2.3048e-06
8110.0 2.2493e-06
8130.0 1.7306e-06
8150.0 1.7144e-06
8170.0 1.3751e-06
8190.0 1.2359e-06
8210.0 1.777e-06
8230.0 2.0097e-06
8250.0 1.6315e-06
8270.0 1.4011e-06
8290.0 1.4863e-06
8310.0 1.1748e-06
8330.0 7.8277e-07
8350.0 5.6406e-07
8370.0 3.089e-07
8390.0 6.4407e-07
8410.0 7.463e-07
8430.0 9.1948e-07
8450.0 1.0751e-06
8470.0 1.4107e-06
8490.0 1.3564e-06
8510.0 1.287e-06
8530.0 1.2527e-06
8550.0 1.8868e-06
8570.0 2.3383e-06
8590.0 2.3433e-06
8610.0 3.0427e-06
8630.0 3.6153e-06
8650.0 3.5203e-06
8670.0 3.8626e-06
8690.0 4.1109e-06
8710.0 3.6844e-06
8730.0 3.5033e-06
8750.0 3.0297e-06
8770.0 2.8444e-06
8790.0 2.8442e-06
8810.0 2.7849e-06
8830.0 2.101e-06
8850.0 1.4436e-06
8870.0 1.0925e-06
8890.0 1.1988e-06
8910.0 1.4689e-06
8930.0 1.739e-06
8950.0 1.801e-06
8970.0 1.7864e-06
8990.0 1.5137e-06
9010.0 1.3013e-05
9030.0 1.1707e-05
9050.0 1.1774e-05
9070.0 1.1878e-05
9090.0 1.1969e-05
9110.0 1.2081e-05
9130.0 1.2166e-05
9150.0 1.2232e-05
9170.0 1.2302e-05
9190.0 1.2377e-05
9210.0 1.2456e-05
9230.0 1.2539e-05
9250.0 1.2624e-05
9270.0 1.2711e-05
9290.0 1.2802e-05
9310.0 1.2892e-05
9330.0 1.2985e-05
9350.0 1.308e-05
9370.0 1.3177e-05
9390.0 1.3275e-05
9410.0 1.3375e-05
9430.0 1.3479e-05
9450.0 1.3581e-05
9470.0 1.3686e-05
9490.0 1.3794e-05
9510.0 1.3904e-05
9530.0 1.4013e-05
9550.0 1.4127e-05
9570.0 1.4242e-05
9590.0 1.4358e-05
9610.0 1.4475e-05
9630.0 1.4596e-05
9650.0 1.4718e-05
9670.0 1.4839e-05
9690.0 1.4964e-05
9710.0 1.5091e-05
9730.0 1.5219e-05
9750.0 1.5348e-05
9770.0 1.5481e-05
9790.0 1.5614e-05
9810.0 1.5747e-05
9830.0 1.5883e-05
9850.0 1.6021e-05
9870.0 1.6158e-05
9890.0 1.6298e-05
9910.0 1.644e-05
9930.0 1.6583e-05
9950.0 1.6725e-05
9970.0 1.6871e-05
9990.0 1.7018e-05
10010.0 1.4774e-05
10030.0 1.4902e-05
10050.0 1.5031e-05
10070.0 1.5165e-05
10090.0 1.5292e-05
10110.0 1.5421e-05
10130.0 1.5552e-05
10150.0 1.5682e-05
10170.0 1.5813e-05
10190.0 1.5947e-05
10210.0 1.6079e-05
10230.0 1.621e-05
10250.0 1.6344e-05
10270.0 1.6478e-05
10290.0 1.661e-05
10310.0 1.6743e-05
10330.0 1.6878e-05
10350.0 1.7011e-05
10370.0 1.7143e-05
10390.0 1.7277e-05
10410.0 1.741e-05
10430.0 1.7541e-05
10450.0 1.7673e-05
10470.0 1.7805e-05
10490.0 1.7935e-05
10510.0 1.8064e-05
10530.0 1.8196e-05
10550.0 1.8325e-05
10570.0 1.8451e-05
10590.0 1.8578e-05
10610.0 1.8705e-05
10630.0 1.8829e-05
10650.0 1.8951e-05
10670.0 1.9076e-05
10690.0 1.9197e-05
10710.0 1.9316e-05
10730.0 1.9435e-05
10750.0 1.9555e-05
10770.0 1.9669e-05
10790.0 1.9783e-05
10810.0 1.9896e-05
10830.0 2.0006e-05
10850.0 2.0111e-05
10870.0 2.0212e-05
10890.0 2.0302e-05
10910.0 2.0371e-05
10930.0 2.0411e-05
10950.0 2.0405e-05
10970.0 2.0338e-05
10990.0 2.0204e-05
11010.0 1.9704e-05
11030.0 1.9391e-05
11050.0 1.9009e-05
11070.0 1.8552e-05
11090.0 1.8003e-05
11110.0 1.7435e-05
11130.0 1.6843e-05
11150.0 1.6205e-05
11170.0 1.5548e-05
11190.0 1.491e-05
11210.0 1.4252e-05
11230.0 1.3576e-05
11250.0 1.2931e-05
11270.0 1.2312e-05
11290.0 1.1691e-05
11310.0 1.1103e-05
11330.0 1.0586e-05
11350.0 1.0096e-05
11370.0 9.6444e-06
11390.0 9.2534e-06
11410.0 8.9112e-06
11430.0 8.5933e-06
11450.0 8.3193e-06
11470.0 8.0823e-06
11490.0 7.8618e-06
11510.0 7.6494e-06
11530.0 7.4522e-06
11550.0 7.2563e-06
11570.0 7.0473e-06
11590.0 6.831e-06
11610.0 6.6108e-06
11630.0 6.3711e-06
11650.0 6.1145e-06
11670.0 5.8617e-06
11690.0 5.6053e-06
11710.0 5.3408e-06
11730.0 5.0845e-06
11750.0 4.8473e-06
11770.0 4.6147e-06
11790.0 4.3967e-06
11810.0 4.2047e-06
11830.0 4.0331e-06
11850.0 3.875e-06
11870.0 3.7427e-06
11890.0 3.6327e-06
11910.0 3.536e-06
11930.0 3.4529e-06
11950.0 3.3837e-06
11970.0 3.3218e-06
11990.0 3.2633e-06
12010.0 3.2093e-06
12030.0 3.1571e-06
12050.0 3.1033e-06
12070.0 3.0472e-06
12090.0 2.9932e-06
12110.0 2.9384e-06
12130.0 2.8835e-06
12150.0 2.8328e-06
12170.0 2.7886e-06
12190.0 2.7503e-06
12210.0 2.7236e-06
12230.0 2.7106e-06
12250.0 2.7126e-06
12270.0 2.7329e-06
12290.0 2.7715e-06
12310.0 2.8268e-06
12330.0 2.9043e-06
12350.0 3.001e-06
12370.0 3.1112e-06
12390.0 3.2382e-06
12410.0 3.387e-06
12430.0 3.5383e-06
12450.0 3.6949e-06
12470.0 3.8615e-06
12490.0 4.0288e-06
12510.0 4.1857e-06
12530.0 4.3419e-06
12550.0 4.4925e-06
12570.0 4.6255e-06
12590.0 4.7422e-06
12610.0 4.8462e-06
12630.0 4.9291e-06
12650.0 4.9863e-06
12670.0 5.0238e-06
12690.0 5.0389e-06
12710.0 5.0305e-06
12730.0 5.0012e-06
12750.0 4.9492e-06
12770.0 4.8777e-06
12790.0 4.7911e-06
12810.0 4.6876e-06
12830.0 4.568e-06
12850.0 4.4428e-06
12870.0 4.3105e-06
12890.0 4.1673e-06
12910.0 4.0218e-06
12930.0 3.8784e-06
12950.0 3.7287e-06
12970.0 3.5764e-06
12990.0 3.4323e-06
13010.0 3.29e-06
13030.0 3.1461e-06
13050.0 3.0079e-06
13070.0 2.8784e-06
13090.0 2.7485e-06
13110.0 2.6228e-06
13130.0 2.5069e-06
13150.0 2.3972e-06
13170.0 2.2897e-06
13190.0 2.1941e-06
13210.0 2.1099e-06
13230.0 2.033e-06
13250.0 1.9667e-06
13270.0 1.9144e-06
13290.0 1.8737e-06
13310.0 1.8457e-06
13330.0 1.8329e-06
13350.0 1.8343e-06
13370.0 1.8507e-06
13390.0 1.883e-06
13410.0 1.9267e-06
13430.0 1.9834e-06
13450.0 2.0535e-06
13470.0 2.1314e-06
13490.0 2.2138e-06
13510.0 2.3069e-06
13530.0 2.4011e-06
13550.0 2.4914e-06
13570.0 2.5804e-06
13590.0 2.6672e-06
13610.0 2.7444e-06
13630.0 2.8118e-06
13650.0 2.8733e-06
13670.0 2.9244e-06
13690.0 2.9639e-06
13710.0 2.9945e-06
13730.0 3.0163e-06
13750.0 3.0272e-06
13770.0 3.0298e-06
13790.0 3.0243e-06
13810.0 3.0109e-06
13830.0 2.9912e-06
13850.0 2.9645e-06
13870.0 2.9308e-06
13890.0 2.8922e-06
13910.0 2.8488e-06
13930.0 2.7985e-06
13950.0 2.7436e-06
13970.0 2.6875e-06
13990.0 2.6263e-06
14010.0 2.5613e-06
14030.0 2.4964e-06
14050.0 2.4311e-06
14070.0 2.3621e-06
14090.0 2.296e-06
14110.0 2.2338e-06
14130.0 2.1736e-06
14150.0 2.1169e-06
14170.0 2.0685e-06
14190.0 2.0267e-06
14210.0 1.9912e-06
14230.0 1.9649e-06
14250.0 1.9479e-06
14270.0 1.9397e-06
14290.0 1.9414e-06
14310.0 1.9522e-06
14330.0 1.9716e-06
14350.0 2.0002e-06
14370.0 2.0359e-06
14390.0 2.0763e-06
14410.0 2.124e-06
14430.0 2.1763e-06
14450.0 2.2298e-06
14470.0 2.2852e-06
14490.0 2.3442e-06
14510.0 2.4006e-06
14530.0 2.4542e-06
14550.0 2.5078e-06
14570.0 2.5592e-06
14590.0 2.606e-06
14610.0 2.6513e-06
14630.0 2.6961e-06
14650.0 2.7378e-06
14670.0 2.7781e-06
14690.0 2.8201e-06
14710.0 2.8643e-06
14730.0 2.9084e-06
14750.0 2.9574e-06
14770.0 3.0129e-06
14790.0 3.073e-06
14810.0 3.1382e-06
14830.0 3.2155e-06
14850.0 3.2994e-06
14870.0 3.387e-06
14890.0 3.4816e-06
14910.0 3.5819e-06
14930.0 3.6785e-06
14950.0 3.7687e-06
14970.0 3.8541e-06
14990.0 3.9257e-06
15010.0 3.9805e-06
15030.0 4.0211e-06
15050.0 4.0479e-06
15070.0 4.061e-06
15090.0 4.0656e-06
15110.0 4.0643e-06
15130.0 4.0592e-06
15150.0 4.0524e-06
15170.0 4.0443e-06
15190.0 4.0356e-06
15210.0 4.0271e-06
15230.0 4.0185e-06
15250.0 4.0097e-06
15270.0 4.0009e-06
15290.0 3.9927e-06
15310.0 3.9842e-06
15330.0 3.9756e-06
15350.0 3.9673e-06
15370.0 3.9591e-06
15390.0 3.9505e-06
15410.0 3.9422e-06
15430.0 3.9341e-06
15450.0 3.9259e-06
15470.0 3.9175e-06
15490.0 3.9095e-06
15510.0 3.9016e-06
15530.0 3.8933e-06
15550.0 3.8853e-06
15570.0 3.8776e-06
15590.0 3.8695e-06
15610.0 3.8613e-06
15630.0 3.8535e-06
15650.0 3.8458e-06
15670.0 3.8377e-06
15690.0 3.8299e-06
15710.0 3.8224e-06
15730.0 3.8145e-06
15750.0 3.8066e-06
15770.0 3.799e-06
15790.0 3.7914e-06
15810.0 3.7833e-06
15830.0 3.7757e-06
15850.0 3.7682e-06
15870.0 3.7605e-06
15890.0 3.7528e-06
15910.0 3.7454e-06
15930.0 3.7378e-06
15950.0 3.73e-06
15970.0 3.7224e-06
15990.0 3.715e-06
16010.0 3.7073e-06
16030.0 3.6995e-06
16050.0 3.6922e-06
16070.0 3.6847e-06
16090.0 3.677e-06
16110.0 3.6696e-06
16130.0 3.6623e-06
16150.0 3.6545e-06
16170.0 3.6468e-06
16190.0 3.6395e-06
16210.0 3.6319e-06
16230.0 3.6242e-06
16250.0 3.6168e-06
16270.0 3.6095e-06
16290.0 3.6018e-06
16310.0 3.5941e-06
16330.0 3.5868e-06
16350.0 3.5793e-06
16370.0 3.5713e-06
16390.0 3.5639e-06
16410.0 3.5565e-06
16430.0 3.5488e-06
16450.0 3.5411e-06
16470.0 3.5338e-06
16490.0 3.5261e-06
16510.0 3.5183e-06
16530.0 3.5108e-06
16550.0 3.5033e-06
16570.0 3.4954e-06
16590.0 3.4876e-06
16610.0 3.4802e-06
16630.0 3.4725e-06
16650.0 3.4646e-06
16670.0 3.4571e-06
16690.0 3.4495e-06
16710.0 3.4414e-06
16730.0 3.4336e-06
16750.0 3.4261e-06
16770.0 3.4182e-06
16790.0 3.4101e-06
16810.0 3.4025e-06
16830.0 3.3948e-06
16850.0 3.3868e-06
16870.0 3.3789e-06
16890.0 3.3712e-06
16910.0 3.3631e-06
16930.0 3.3549e-06
16950.0 3.3472e-06
16970.0 3.3393e-06
16990.0 3.3311e-06
17010.0 3.3231e-06
17030.0 3.3153e-06
17050.0 3.3071e-06
17070.0 3.2989e-06
17090.0 3.2909e-06
17110.0 3.2829e-06
17130.0 3.2744e-06
17150.0 3.2663e-06
17170.0 3.2583e-06
17190.0 3.25e-06
17210.0 3.2417e-06
17230.0 3.2337e-06
17250.0 3.2254e-06
17270.0 3.2168e-06
17290.0 3.2086e-06
17310.0 3.2004e-06
17330.0 3.1919e-06
17350.0 3.1833e-06
17370.0 3.1752e-06
17390.0 3.1668e-06
17410.0 3.1582e-06
17430.0 3.1498e-06
17450.0 3.1416e-06
17470.0 3.1327e-06
17490.0 3.1241e-06
17510.0 3.1157e-06
17530.0 3.1072e-06
17550.0 3.0984e-06
17570.0 3.0899e-06
17590.0 3.0814e-06
17610.0 3.0726e-06
17630.0 3.0639e-06
17650.0 3.0554e-06
17670.0 3.0466e-06
17690.0 3.0375e-06
17710.0 3.0289e-06
17730.0 3.0203e-06
17750.0 3.0114e-06
17770.0 3.0025e-06
17790.0 2.994e-06
17810.0 2.985e-06
17830.0 2.9759e-06
17850.0 2.9672e-06
17870.0 2.9584e-06
17890.0 2.9492e-06
17910.0 2.9402e-06
17930.0 2.9315e-06
17950.0 2.9225e-06
17970.0 2.9133e-06
17990.0 2.9045e-06
18010.0 2.8956e-06
18030.0 2.8862e-06
18050.0 2.8772e-06
18070.0 2.8683e-06
18090.0 2.8591e-06
18110.0 2.8498e-06
18130.0 2.8409e-06
18150.0 2.8319e-06
18170.0 2.8225e-06
18190.0 2.8134e-06
18210.0 2.8045e-06
18230.0 2.7951e-06
18250.0 2.7856e-06
18270.0 2.7766e-06
18290.0 2.7675e-06
18310.0 2.758e-06
18330.0 2.7489e-06
18350.0 2.7399e-06
18370.0 2.7304e-06
18390.0 2.721e-06
18410.0 2.7119e-06
18430.0 2.7026e-06
18450.0 2.693e-06
18470.0 2.6837e-06
18490.0 2.6746e-06
18510.0 2.6651e-06
18530.0 2.6557e-06
18550.0 2.6466e-06
18570.0 2.6372e-06
18590.0 2.6276e-06
18610.0 2.6183e-06
18630.0 2.609e-06
18650.0 2.5995e-06
18670.0 2.5899e-06
18690.0 2.5808e-06
18710.0 2.5714e-06
18730.0 2.5618e-06
18750.0 2.5525e-06
18770.0 2.5433e-06
18790.0 2.5335e-06
18810.0 2.5239e-06
18830.0 2.5147e-06
18850.0 2.5052e-06
18870.0 2.4956e-06
18890.0 2.4863e-06
18910.0 2.477e-06
18930.0 2.4673e-06
18950.0 2.4578e-06
18970.0 2.4486e-06
18990.0 2.439e-06
19010.0 2.4292e-06
19030.0 2.4199e-06
19050.0 2.4106e-06
19070.0 2.4009e-06
19090.0 2.3914e-06
19110.0 2.3823e-06
19130.0 2.3726e-06
19150.0 2.363e-06
19170.0 2.3536e-06
19190.0 2.3442e-06
19210.0 2.3345e-06
19230.0 2.3249e-06
19250.0 2.3157e-06
19270.0 2.3062e-06
19290.0 2.2966e-06
19310.0 2.2873e-06
19330.0 2.2779e-06
19350.0 2.2681e-06
19370.0 2.2587e-06
19390.0 2.2494e-06
19410.0 2.2398e-06
19430.0 2.2302e-06
19450.0 2.2209e-06
19470.0 2.2116e-06
19490.0 2.2019e-06
19510.0 2.1925e-06
19530.0 2.1833e-06
19550.0 2.1736e-06
19570.0 2.1639e-06
19590.0 2.1547e-06
19610.0 2.1453e-06
19630.0 2.1357e-06
19650.0 2.1264e-06
19670.0 2.1172e-06
19690.0 2.1076e-06
19710.0 2.098e-06
19730.0 2.0888e-06
19750.0 2.0794e-06
19770.0 2.0697e-06
19790.0 2.0604e-06
19810.0 2.0512e-06
19830.0 2.0416e-06
19850.0 2.032e-06
19870.0 2.0226e-06
19890.0 2.0125e-06
19910.0 2.0014e-06
19930.0 1.9895e-06
19950.0 1.9759e-06
19970.0 1.9592e-06
19990.0 1.939e-06
20010.0 1.7253e-06
20030.0 1.7003e-06
20050.0 1.6711e-06
20070.0 1.6394e-06
20090.0 1.6053e-06
20110.0 1.5668e-06
20130.0 1.5278e-06
20150.0 1.4891e-06
20170.0 1.449e-06
20190.0 1.4084e-06
20210.0 1.37e-06
20230.0 1.3325e-06
20250.0 1.295e-06
20270.0 1.2602e-06
20290.0 1.2284e-06
20310.0 1.1982e-06
20330.0 1.1699e-06
20350.0 1.1465e-06
20370.0 1.1257e-06
20390.0 1.1074e-06
20410.0 1.0927e-06
20430.0 1.0813e-06
20450.0 1.0723e-06
20470.0 1.0663e-06
20490.0 1.063e-06
20510.0 1.0621e-06
20530.0 1.0634e-06
20550.0 1.0667e-06
20570.0 1.0714e-06
20590.0 1.0779e-06
20610.0 1.0857e-06
20630.0 1.0943e-06
20650.0 1.104e-06
20670.0 1.115e-06
20690.0 1.1263e-06
20710.0 1.1379e-06
20730.0 1.1504e-06
20750.0 1.1635e-06
20770.0 1.1764e-06
20790.0 1.1899e-06
20810.0 1.2042e-06
20830.0 1.2184e-06
20850.0 1.2327e-06
20870.0 1.248e-06
20890.0 1.2636e-06
20910.0 1.2787e-06
20930.0 1.2943e-06
20950.0 1.3105e-06
20970.0 1.3263e-06
20990.0 1.3418e-06
21010.0 1.3582e-06
21030.0 1.3742e-06
21050.0 1.3894e-06
21070.0 1.4047e-06
21090.0 1.42e-06
21110.0 1.4339e-06
21130.0 1.447e-06
21150.0 1.4597e-06
21170.0 1.4712e-06
21190.0 1.4811e-06
21210.0 1.49e-06
21230.0 1.4974e-06
21250.0 1.5026e-06
21270.0 1.506e-06
21290.0 1.5072e-06
21310.0 1.506e-06
21330.0 1.5025e-06
21350.0 1.4962e-06
21370.0 1.4871e-06
21390.0 1.4754e-06
21410.0 1.4611e-06
21430.0 1.4431e-06
21450.0 1.4228e-06
21470.0 1.4007e-06
21490.0 1.3758e-06
21510.0 1.3484e-06
21530.0 1.3206e-06
21550.0 1.2914e-06
21570.0 1.2603e-06
21590.0 1.2297e-06
21610.0 1.2002e-06
21630.0 1.1706e-06
21650.0 1.1417e-06
21670.0 1.1167e-06
21690.0 1.0936e-06
21710.0 1.0728e-06
21730.0 1.0557e-06
21750.0 1.0426e-06
21770.0 1.0326e-06
21790.0 1.0268e-06
21810.0 1.0252e-06
21830.0 1.0275e-06
21850.0 1.0339e-06
21870.0 1.0439e-06
21890.0 1.0569e-06
21910.0 1.0735e-06
21930.0 1.0929e-06
21950.0 1.114e-06
21970.0 1.1373e-06
21990.0 1.1636e-06
22010.0 1.1898e-06
22030.0 1.2164e-06
22050.0 1.2443e-06
22070.0 1.2724e-06
22090.0 1.299e-06
22110.0 1.3258e-06
22130.0 1.3526e-06
22150.0 1.3776e-06
22170.0 1.4012e-06
22190.0 1.4245e-06
22210.0 1.4463e-06
22230.0 1.4654e-06
22250.0 1.4834e-06
22270.0 1.5e-06
22290.0 1.5142e-06
22310.0 1.5263e-06
22330.0 1.5371e-06
22350.0 1.5453e-06
22370.0 1.5512e-06
22390.0 1.5548e-06
22410.0 1.556e-06
22430.0 1.5545e-06
22450.0 1.5505e-06
22470.0 1.5436e-06
22490.0 1.5338e-06
22510.0 1.5217e-06
22530.0 1.5062e-06
22550.0 1.4874e-06
22570.0 1.4665e-06
22590.0 1.4429e-06
22610.0 1.4157e-06
