#lamb flux
1010.0 1.313e-08
1030.0 1.4541e-08
1050.0 1.6164e-08
1070.0 1.7992e-08
1090.0 2.0068e-08
1110.0 2.2197e-08
1130.0 2.4339e-08
1150.0 2.6584e-08
1170.0 2.8899e-08
1190.0 3.1095e-08
1210.0 3.332e-08
1230.0 3.5619e-08
1250.0 3.7872e-08
1270.0 4.0059e-08
1290.0 4.2371e-08
1310.0 4.4681e-08
1330.0 4.6896e-08
1350.0 4.9136e-08
1370.0 5.1448e-08
1390.0 5.3702e-08
1410.0 5.589e-08
1430.0 5.8176e-08
1450.0 6.0462e-08
1470.0 6.2671e-08
1490.0 6.4903e-08
1510.0 6.7261e-08
1530.0 6.9494e-08
1550.0 7.1696e-08
1570.0 7.3974e-08
1590.0 7.6252e-08
1610.0 7.8428e-08
1630.0 8.067e-08
1650.0 8.2969e-08
1670.0 8.519e-08
1690.0 8.738e-08
1710.0 8.9653e-08
1730.0 9.1934e-08
1750.0 9.4074e-08
1770.0 9.6272e-08
1790.0 9.851e-08
1810.0 1.0067e-07
1830.0 1.0278e-07
1850.0 1.0502e-07
1870.0 1.0718e-07
1890.0 1.0926e-07
1910.0 1.1137e-07
1930.0 1.1351e-07
1950.0 1.1554e-07
1970.0 1.1752e-07
1990.0 1.1955e-07
2010.0 1.2153e-07
2030.0 1.2339e-07
2050.0 1.253e-07
2070.0 1.2722e-07
2090.0 1.2898e-07
2110.0 1.3069e-07
2130.0 1.3241e-07
2150.0 1.3405e-07
2170.0 1.3554e-07
2190.0 1.3706e-07
2210.0 1.3852e-07
2230.0 1.3984e-07
2250.0 1.4108e-07
2270.0 1.4235e-07
2290.0 1.4347e-07
2310.0 1.4443e-07
2330.0 1.4538e-07
2350.0 1.4629e-07
2370.0 1.4709e-07
2390.0 1.4791e-07
2410.0 1.4895e-07
2430.0 1.5013e-07
2450.0 1.5161e-07
2470.0 1.5368e-07
2490.0 1.5647e-07
2510.0 1.5971e-07
2530.0 1.6391e-07
2550.0 1.6972e-07
2570.0 1.7761e-07
2590.0 1.8861e-07
2610.0 2.0599e-07
2630.0 2.3097e-07
2650.0 2.6292e-07
2670.0 3.0302e-07
2690.0 3.5043e-07
2710.0 3.9847e-07
2730.0 4.4321e-07
2750.0 4.8469e-07
2770.0 5.1772e-07
2790.0 5.4081e-07
2810.0 5.5633e-07
2830.0 5.6579e-07
2850.0 5.6904e-07
2870.0 5.6889e-07
2890.0 5.6687e-07
2910.0 5.6352e-07
2930.0 5.593e-07
2950.0 5.5501e-07
2970.0 5.5076e-07
2990.0 5.4644e-07
3010.0 1.641e-05
3030.0 1.6291e-05
3050.0 1.6175e-05
3070.0 1.605e-05
3090.0 1.592e-05
3110.0 1.5766e-05
3130.0 1.5571e-05
3150.0 1.5322e-05
3170.0 1.4992e-05
3190.0 1.4587e-05
3210.0 1.4133e-05
3230.0 1.3649e-05
3250.0 1.317e-05
3270.0 1.2814e-05
3290.0 1.2555e-05
3310.0 1.2503e-05
3330.0 1.2598e-05
3350.0 1.2832e-05
3370.0 1.3205e-05
3390.0 1.37e-05
3410.0 1.4254e-05
3430.0 1.4888e-05
3450.0 1.5627e-05
3470.0 1.6444e-05
3490.0 1.7322e-05
3510.0 1.8321e-05
3530.0 1.9413e-05
3550.0 2.058e-05
3570.0 2.1868e-05
3590.0 2.332e-05
3610.0 2.4938e-05
3630.0 2.6576e-05
3650.0 2.8318e-05
3670.0 2.9906e-05
3690.0 3.1101e-05
3710.0 3.172e-05
3730.0 3.1417e-05
3750.0 3.0179e-05
3770.0 3.0223e-05
3790.0 2.8889e-05
3810.0 2.2441e-05
3830.0 2.0697e-05
3850.0 2.7614e-05
3870.0 2.4168e-05
3890.0 1.9784e-05
3910.0 2.3137e-05
3930.0 3.0456e-05
3950.0 3.4759e-05
3970.0 4.0352e-05
3990.0 3.234e-05
4010.0 5.0063e-05
4030.0 4.5988e-05
4050.0 4.3278e-05
4070.0 4.924e-05
4090.0 4.728e-05
4110.0 4.6996e-05
4130.0 5.7935e-05
4150.0 7.3708e-05
4170.0 6.0425e-05
4190.0 5.4002e-05
4210.0 5.9595e-05
4230.0 7.3734e-05
4250.0 8.5877e-05
4270.0 9.2661e-05
4290.0 8.5032e-05
4310.0 7.9191e-05
4330.0 8.0366e-05
4350.0 0.00010214
4370.0 0.00012277
4390.0 0.00010011
4410.0 6.1067e-05
4430.0 4.5108e-05
4450.0 4.0694e-05
4470.0 3.0766e-05
4490.0 4.6545e-05
4510.0 8.3492e-05
4530.0 0.00010012
4550.0 9.9444e-05
4570.0 9.4439e-05
4590.0 0.00010464
4610.0 0.00018911
4630.0 0.00025824
4650.0 0.00024481
4670.0 0.00021813
4690.0 0.00022946
4710.0 0.00024227
4730.0 0.00019581
4750.0 0.00012633
4770.0 9.1376e-05
4790.0 0.0001001
4810.0 0.00010222
4830.0 0.00010048
4850.0 0.00011065
4870.0 0.00014631
4890.0 0.00017012
4910.0 0.00013248
4930.0 0.00012544
4950.0 0.00014387
4970.0 0.00019412
4990.0 0.00026042
5010.0 0.00029543
5030.0 0.00023446
5050.0 0.0001413
5070.0 0.00010033
5090.0 7.9802e-05
5110.0 7.6522e-05
5130.0 8.8864e-05
5150.0 8.6483e-05
5170.0 8.2404e-05
5190.0 7.5394e-05
5210.0 8.0062e-05
5230.0 9.6567e-05
5250.0 0.00011133
5270.0 0.00010685
5290.0 0.00011786
5310.0 0.00015285
5330.0 0.00016009
5350.0 0.0001579
5370.0 0.00017808
5390.0 0.00021742
5410.0 0.00018822
5430.0 0.00014443
5450.0 0.00014333
5470.0 0.00016762
5490.0 0.00021331
5510.0 0.00026438
5530.0 0.00030436
5550.0 0.00027647
5570.0 0.00024688
5590.0 0.00020519
5610.0 0.0002059
5630.0 0.00022553
5650.0 0.00021352
5670.0 0.00019902
5690.0 0.00016433
5710.0 0.00016644
5730.0 0.00016104
5750.0 8.8991e-05
5770.0 6.7353e-05
5790.0 8.2397e-05
5810.0 9.1381e-05
5830.0 0.00013309
5850.0 0.00016798
5870.0 0.00017705
5890.0 0.00016735
5910.0 0.00016139
5930.0 0.00015778
5950.0 0.00016399
5970.0 0.00019898
5990.0 0.0001666
6010.0 0.00012928
6030.0 0.00010513
6050.0 9.3044e-05
6070.0 0.00010865
6090.0 0.0001239
6110.0 0.00012773
6130.0 0.00011675
6150.0 9.4426e-05
6170.0 8.2086e-05
6190.0 0.00010225
6210.0 0.00015203
6230.0 0.0002118
6250.0 0.00022254
6270.0 0.00017425
6290.0 0.00014784
6310.0 0.00011365
6330.0 8.426e-05
6350.0 8.132e-05
6370.0 8.5774e-05
6390.0 0.0001037
6410.0 0.00013063
6430.0 0.00015655
6450.0 0.00019179
6470.0 0.00020847
6490.0 0.00025291
6510.0 0.00028389
6530.0 0.00028171
6550.0 0.00025923
6570.0 0.00021968
6590.0 0.00021291
6610.0 0.00017855
6630.0 0.00018068
6650.0 0.00017217
6670.0 0.00015727
6690.0 0.00013074
6710.0 0.00012447
6730.0 7.1141e-05
6750.0 8.127e-05
6770.0 0.00011131
6790.0 0.00014377
6810.0 0.00011119
6830.0 0.00011388
6850.0 9.9613e-05
6870.0 9.4709e-05
6890.0 8.3612e-05
6910.0 9.3942e-05
6930.0 8.7903e-05
6950.0 0.00010197
6970.0 0.00010375
6990.0 0.00011513
7010.0 0.00011566
7030.0 0.00012384
7050.0 0.00010873
7070.0 9.5069e-05
7090.0 9.7476e-05
7110.0 9.8848e-05
7130.0 0.00011039
7150.0 0.0001245
7170.0 0.00013778
7190.0 0.00014326
7210.0 0.0001283
7230.0 0.00012987
7250.0 0.00014246
7270.0 0.0001581
7290.0 0.00018799
7310.0 0.00019204
7330.0 0.0001744
7350.0 0.0001554
7370.0 0.00012023
7390.0 0.00012538
7410.0 0.00015121
7430.0 0.00017046
7450.0 0.00018345
7470.0 0.00017578
7490.0 0.00015908
7510.0 0.00023388
7530.0 0.00021013
7550.0 0.00019046
7570.0 0.0001313
7590.0 6.4973e-05
7610.0 4.9234e-05
7630.0 6.7226e-05
7650.0 8.6755e-05
7670.0 0.00012919
7690.0 0.00014578
7710.0 0.00013556
7730.0 0.00013392
7750.0 0.00016692
7770.0 0.0001697
7790.0 0.00015748
7810.0 0.00013427
7830.0 0.00014119
7850.0 0.00014839
7870.0 0.0001434
7890.0 0.00011541
7910.0 8.0819e-05
7930.0 7.9568e-05
7950.0 7.1496e-05
7970.0 6.2247e-05
7990.0 5.7884e-05
8010.0 5.3786e-05
8030.0 5.1516e-05
8050.0 5.4045e-05
8070.0 5.6855e-05
8090.0 6.4096e-05
8110.0 6.0033e-05
8130.0 4.2648e-05
8150.0 4.1607e-05
8170.0 3.0498e-05
8190.0 2.5322e-05
8210.0 3.8435e-05
8230.0 4.3815e-05
8250.0 2.8123e-05
8270.0 2.4062e-05
8290.0 2.7873e-05
8310.0 2.1622e-05
8330.0 1.3507e-05
8350.0 1.0522e-05
8370.0 5.9387e-06
8390.0 1.1848e-05
8410.0 1.4406e-05
8430.0 1.7897e-05
8450.0 2.0012e-05
8470.0 2.8081e-05
8490.0 2.4493e-05
8510.0 2.124e-05
8530.0 1.5889e-05
8550.0 3.1964e-05
8570.0 4.5926e-05
8590.0 3.8974e-05
8610.0 5.3211e-05
8630.0 5.9251e-05
8650.0 4.424e-05
8670.0 5.3494e-05
8690.0 6.8831e-05
8710.0 6.1396e-05
8730.0 6.332e-05
8750.0 5.3042e-05
8770.0 4.8802e-05
8790.0 5.1933e-05
8810.0 5.3527e-05
8830.0 3.5375e-05
8850.0 2.2108e-05
8870.0 1.7313e-05
8890.0 2.5868e-05
8910.0 3.5303e-05
8930.0 4.336e-05
8950.0 4.9199e-05
8970.0 4.8346e-05
8990.0 4.0246e-05
9010.0 3.0522e-05
9030.0 2.6436e-05
9050.0 2.7225e-05
9070.0 2.7959e-05
9090.0 2.8536e-05
9110.0 2.9193e-05
9130.0 2.9678e-05
9150.0 3.0041e-05
9170.0 3.0427e-05
9190.0 3.084e-05
9210.0 3.1273e-05
9230.0 3.1731e-05
9250.0 3.22e-05
9270.0 3.2684e-05
9290.0 3.3183e-05
9310.0 3.3687e-05
9330.0 3.4201e-05
9350.0 3.4731e-05
9370.0 3.5269e-05
9390.0 3.5813e-05
9410.0 3.6371e-05
9430.0 3.6945e-05
9450.0 3.752e-05
9470.0 3.8106e-05
9490.0 3.8708e-05
9510.0 3.9317e-05
9530.0 3.9932e-05
9550.0 4.0564e-05
9570.0 4.1207e-05
9590.0 4.1855e-05
9610.0 4.2514e-05
9630.0 4.3188e-05
9650.0 4.3868e-05
9670.0 4.4553e-05
9690.0 4.5254e-05
9710.0 4.5964e-05
9730.0 4.6679e-05
9750.0 4.7404e-05
9770.0 4.8146e-05
9790.0 4.8889e-05
9810.0 4.9639e-05
9830.0 5.0401e-05
9850.0 5.1173e-05
9870.0 5.1945e-05
9890.0 5.2727e-05
9910.0 5.3521e-05
9930.0 5.4317e-05
9950.0 5.5118e-05
9970.0 5.593e-05
9990.0 5.6749e-05
10010.0 5.2475e-05
10030.0 5.3212e-05
10050.0 5.3955e-05
10070.0 5.4691e-05
10090.0 5.5439e-05
10110.0 5.6195e-05
10130.0 5.6951e-05
10150.0 5.7704e-05
10170.0 5.8461e-05
10190.0 5.9221e-05
10210.0 5.9977e-05
10230.0 6.073e-05
10250.0 6.1488e-05
10270.0 6.2243e-05
10290.0 6.2992e-05
10310.0 6.3743e-05
10330.0 6.4495e-05
10350.0 6.5237e-05
10370.0 6.5976e-05
10390.0 6.6714e-05
10410.0 6.7446e-05
10430.0 6.8168e-05
10450.0 6.8887e-05
10470.0 6.9603e-05
10490.0 7.0307e-05
10510.0 7.1002e-05
10530.0 7.1697e-05
10550.0 7.2379e-05
10570.0 7.3048e-05
10590.0 7.3711e-05
10610.0 7.4366e-05
10630.0 7.5005e-05
10650.0 7.5633e-05
10670.0 7.6256e-05
10690.0 7.6863e-05
10710.0 7.7454e-05
10730.0 7.8037e-05
10750.0 7.861e-05
10770.0 7.9161e-05
10790.0 7.9699e-05
10810.0 8.0225e-05
10830.0 8.073e-05
10850.0 8.121e-05
10870.0 8.1662e-05
10890.0 8.2061e-05
10910.0 8.2377e-05
10930.0 8.2572e-05
10950.0 8.2575e-05
10970.0 8.2336e-05
10990.0 8.1832e-05
11010.0 8.3044e-05
11030.0 8.1793e-05
11050.0 8.0246e-05
11070.0 7.8373e-05
11090.0 7.6103e-05
11110.0 7.3746e-05
11130.0 7.1281e-05
11150.0 6.8625e-05
11170.0 6.5894e-05
11190.0 6.3256e-05
11210.0 6.0548e-05
11230.0 5.7794e-05
11250.0 5.5186e-05
11270.0 5.2703e-05
11290.0 5.024e-05
11310.0 4.7926e-05
11330.0 4.59e-05
11350.0 4.3995e-05
11370.0 4.2236e-05
11390.0 4.0708e-05
11410.0 3.9358e-05
11430.0 3.8087e-05
11450.0 3.6964e-05
11470.0 3.5964e-05
11490.0 3.5003e-05
11510.0 3.405e-05
11530.0 3.3139e-05
11550.0 3.2218e-05
11570.0 3.1231e-05
11590.0 3.0209e-05
11610.0 2.9174e-05
11630.0 2.8059e-05
11650.0 2.6882e-05
11670.0 2.5732e-05
11690.0 2.4578e-05
11710.0 2.34e-05
11730.0 2.2266e-05
11750.0 2.1219e-05
11770.0 2.0197e-05
11790.0 1.924e-05
11810.0 1.8393e-05
11830.0 1.7629e-05
11850.0 1.6919e-05
11870.0 1.6312e-05
11890.0 1.5793e-05
11910.0 1.5323e-05
11930.0 1.4903e-05
11950.0 1.4535e-05
11970.0 1.4193e-05
11990.0 1.3857e-05
12010.0 1.3535e-05
12030.0 1.3218e-05
12050.0 1.2889e-05
12070.0 1.2547e-05
12090.0 1.2214e-05
12110.0 1.1874e-05
12130.0 1.153e-05
12150.0 1.1202e-05
12170.0 1.0899e-05
12190.0 1.0612e-05
12210.0 1.0367e-05
12230.0 1.0175e-05
12250.0 1.0035e-05
12270.0 9.9569e-06
12290.0 9.9452e-06
12310.0 9.9947e-06
12330.0 1.0116e-05
12350.0 1.0302e-05
12370.0 1.0536e-05
12390.0 1.0824e-05
12410.0 1.1179e-05
12430.0 1.1544e-05
12450.0 1.1925e-05
12470.0 1.2334e-05
12490.0 1.2743e-05
12510.0 1.312e-05
12530.0 1.3491e-05
12550.0 1.3843e-05
12570.0 1.4142e-05
12590.0 1.4393e-05
12610.0 1.4607e-05
12630.0 1.4762e-05
12650.0 1.4847e-05
12670.0 1.488e-05
12690.0 1.4854e-05
12710.0 1.4769e-05
12730.0 1.4632e-05
12750.0 1.444e-05
12770.0 1.4201e-05
12790.0 1.3928e-05
12810.0 1.3615e-05
12830.0 1.3266e-05
12850.0 1.2905e-05
12870.0 1.2528e-05
12890.0 1.2127e-05
12910.0 1.1721e-05
12930.0 1.132e-05
12950.0 1.0904e-05
12970.0 1.0481e-05
12990.0 1.0076e-05
13010.0 9.6739e-06
13030.0 9.2654e-06
13050.0 8.8687e-06
13070.0 8.4921e-06
13090.0 8.1117e-06
13110.0 7.7398e-06
13130.0 7.3922e-06
13150.0 7.0595e-06
13170.0 6.7312e-06
13190.0 6.4347e-06
13210.0 6.1694e-06
13230.0 5.9235e-06
13250.0 5.7069e-06
13270.0 5.5293e-06
13290.0 5.3831e-06
13310.0 5.2705e-06
13330.0 5.199e-06
13350.0 5.1652e-06
13370.0 5.1696e-06
13390.0 5.2142e-06
13410.0 5.2885e-06
13430.0 5.3953e-06
13450.0 5.5351e-06
13470.0 5.6949e-06
13490.0 5.8671e-06
13510.0 6.0659e-06
13530.0 6.27e-06
13550.0 6.4667e-06
13570.0 6.663e-06
13590.0 6.8568e-06
13610.0 7.0301e-06
13630.0 7.1821e-06
13650.0 7.3224e-06
13670.0 7.4391e-06
13690.0 7.5285e-06
13710.0 7.5971e-06
13730.0 7.6451e-06
13750.0 7.6658e-06
13770.0 7.6656e-06
13790.0 7.6459e-06
13810.0 7.6068e-06
13830.0 7.5521e-06
13850.0 7.4809e-06
13870.0 7.3939e-06
13890.0 7.2962e-06
13910.0 7.1884e-06
13930.0 7.0665e-06
13950.0 6.9359e-06
13970.0 6.8044e-06
13990.0 6.6639e-06
14010.0 6.5171e-06
14030.0 6.3726e-06
14050.0 6.2289e-06
14070.0 6.0796e-06
14090.0 5.9379e-06
14110.0 5.8058e-06
14130.0 5.6789e-06
14150.0 5.5603e-06
14170.0 5.4592e-06
14190.0 5.3718e-06
14210.0 5.2976e-06
14230.0 5.2422e-06
14250.0 5.2056e-06
14270.0 5.1867e-06
14290.0 5.188e-06
14310.0 5.2078e-06
14330.0 5.2454e-06
14350.0 5.3023e-06
14370.0 5.3744e-06
14390.0 5.4576e-06
14410.0 5.5574e-06
14430.0 5.669e-06
14450.0 5.7854e-06
14470.0 5.9092e-06
14490.0 6.0445e-06
14510.0 6.1785e-06
14530.0 6.3107e-06
14550.0 6.4486e-06
14570.0 6.5878e-06
14590.0 6.7219e-06
14610.0 6.8593e-06
14630.0 7.0037e-06
14650.0 7.1466e-06
14670.0 7.2917e-06
14690.0 7.4482e-06
14710.0 7.6162e-06
14730.0 7.785e-06
14750.0 7.9695e-06
14770.0 8.1732e-06
14790.0 8.3868e-06
14810.0 8.61e-06
14830.0 8.863e-06
14850.0 9.1268e-06
14870.0 9.392e-06
14890.0 9.6683e-06
14910.0 9.9522e-06
14930.0 1.0219e-05
14950.0 1.0463e-05
14970.0 1.069e-05
14990.0 1.088e-05
15010.0 1.1026e-05
15030.0 1.1135e-05
15050.0 1.121e-05
15070.0 1.1252e-05
15090.0 1.1273e-05
15110.0 1.128e-05
15130.0 1.1278e-05
15150.0 1.1273e-05
15170.0 1.1264e-05
15190.0 1.1254e-05
15210.0 1.1245e-05
15230.0 1.1236e-05
15250.0 1.1226e-05
15270.0 1.1217e-05
15290.0 1.1209e-05
15310.0 1.1201e-05
15330.0 1.1192e-05
15350.0 1.1184e-05
15370.0 1.1177e-05
15390.0 1.1168e-05
15410.0 1.116e-05
15430.0 1.1153e-05
15450.0 1.1146e-05
15470.0 1.1138e-05
15490.0 1.1131e-05
15510.0 1.1124e-05
15530.0 1.1117e-05
15550.0 1.111e-05
15570.0 1.1103e-05
15590.0 1.1096e-05
15610.0 1.1088e-05
15630.0 1.1082e-05
15650.0 1.1075e-05
15670.0 1.1068e-05
15690.0 1.1061e-05
15710.0 1.1055e-05
15730.0 1.1047e-05
15750.0 1.104e-05
15770.0 1.1033e-05
15790.0 1.1026e-05
15810.0 1.1018e-05
15830.0 1.1011e-05
15850.0 1.1004e-05
15870.0 1.0996e-05
15890.0 1.0988e-05
15910.0 1.0981e-05
15930.0 1.0973e-05
15950.0 1.0963e-05
15970.0 1.0955e-05
15990.0 1.0947e-05
16010.0 1.0938e-05
16030.0 1.0928e-05
16050.0 1.092e-05
16070.0 1.0911e-05
16090.0 1.0901e-05
16110.0 1.0891e-05
16130.0 1.0882e-05
16150.0 1.087e-05
16170.0 1.0859e-05
16190.0 1.0849e-05
16210.0 1.0838e-05
16230.0 1.0826e-05
16250.0 1.0815e-05
16270.0 1.0804e-05
16290.0 1.0791e-05
16310.0 1.0778e-05
16330.0 1.0766e-05
16350.0 1.0753e-05
16370.0 1.0738e-05
16390.0 1.0725e-05
16410.0 1.0712e-05
16430.0 1.0697e-05
16450.0 1.0682e-05
16470.0 1.0668e-05
16490.0 1.0652e-05
16510.0 1.0636e-05
16530.0 1.062e-05
16550.0 1.0604e-05
16570.0 1.0587e-05
16590.0 1.0569e-05
16610.0 1.0553e-05
16630.0 1.0535e-05
16650.0 1.0516e-05
16670.0 1.0498e-05
16690.0 1.048e-05
16710.0 1.0459e-05
16730.0 1.0439e-05
16750.0 1.042e-05
16770.0 1.0399e-05
16790.0 1.0378e-05
16810.0 1.0357e-05
16830.0 1.0336e-05
16850.0 1.0314e-05
16870.0 1.0291e-05
16890.0 1.0269e-05
16910.0 1.0246e-05
16930.0 1.0221e-05
16950.0 1.0198e-05
16970.0 1.0174e-05
16990.0 1.0149e-05
17010.0 1.0124e-05
17030.0 1.01e-05
17050.0 1.0074e-05
17070.0 1.0047e-05
17090.0 1.0021e-05
17110.0 9.9949e-06
17130.0 9.9665e-06
17150.0 9.9392e-06
17170.0 9.9121e-06
17190.0 9.8835e-06
17210.0 9.8545e-06
17230.0 9.8265e-06
17250.0 9.7973e-06
17270.0 9.7666e-06
17290.0 9.7368e-06
17310.0 9.7071e-06
17330.0 9.6758e-06
17350.0 9.6441e-06
17370.0 9.6138e-06
17390.0 9.5822e-06
17410.0 9.5496e-06
17430.0 9.5176e-06
17450.0 9.4859e-06
17470.0 9.4517e-06
17490.0 9.418e-06
17510.0 9.3852e-06
17530.0 9.3513e-06
17550.0 9.3164e-06
17570.0 9.2824e-06
17590.0 9.2484e-06
17610.0 9.2127e-06
17630.0 9.1772e-06
17650.0 9.1424e-06
17670.0 9.1064e-06
17690.0 9.0689e-06
17710.0 9.0332e-06
17730.0 8.9971e-06
17750.0 8.9597e-06
17770.0 8.9224e-06
17790.0 8.8862e-06
17810.0 8.8481e-06
17830.0 8.8096e-06
17850.0 8.772e-06
17870.0 8.7341e-06
17890.0 8.6947e-06
17910.0 8.6557e-06
17930.0 8.6179e-06
17950.0 8.5786e-06
17970.0 8.5388e-06
17990.0 8.5e-06
18010.0 8.4609e-06
18030.0 8.4198e-06
18050.0 8.3798e-06
18070.0 8.3403e-06
18090.0 8.2997e-06
18110.0 8.2585e-06
18130.0 8.2187e-06
18150.0 8.1783e-06
18170.0 8.1367e-06
18190.0 8.0958e-06
18210.0 8.0555e-06
18230.0 8.0135e-06
18250.0 7.9712e-06
18270.0 7.9305e-06
18290.0 7.8891e-06
18310.0 7.8467e-06
18330.0 7.8051e-06
18350.0 7.7642e-06
18370.0 7.7216e-06
18390.0 7.6791e-06
18410.0 7.6376e-06
18430.0 7.5955e-06
18450.0 7.5521e-06
18470.0 7.51e-06
18490.0 7.4684e-06
18510.0 7.4255e-06
18530.0 7.3828e-06
18550.0 7.3412e-06
18570.0 7.2986e-06
18590.0 7.255e-06
18610.0 7.2127e-06
18630.0 7.1706e-06
18650.0 7.1273e-06
18670.0 7.0841e-06
18690.0 7.0424e-06
18710.0 6.9998e-06
18730.0 6.9566e-06
18750.0 6.9143e-06
18770.0 6.8724e-06
18790.0 6.8286e-06
18810.0 6.7856e-06
18830.0 6.7438e-06
18850.0 6.7011e-06
18870.0 6.6579e-06
18890.0 6.6159e-06
18910.0 6.5741e-06
18930.0 6.531e-06
18950.0 6.4884e-06
18970.0 6.4468e-06
18990.0 6.4044e-06
19010.0 6.3608e-06
19030.0 6.3194e-06
19050.0 6.2777e-06
19070.0 6.2351e-06
19090.0 6.1931e-06
19110.0 6.1522e-06
19130.0 6.1098e-06
19150.0 6.0674e-06
19170.0 6.0262e-06
19190.0 5.9849e-06
19210.0 5.9426e-06
19230.0 5.9009e-06
19250.0 5.8606e-06
19270.0 5.8191e-06
19290.0 5.7775e-06
19310.0 5.7371e-06
19330.0 5.6966e-06
19350.0 5.6546e-06
19370.0 5.6139e-06
19390.0 5.5739e-06
19410.0 5.533e-06
19430.0 5.492e-06
19450.0 5.4525e-06
19470.0 5.4126e-06
19490.0 5.372e-06
19510.0 5.3322e-06
19530.0 5.293e-06
19550.0 5.2527e-06
19570.0 5.2124e-06
19590.0 5.1737e-06
19610.0 5.1345e-06
19630.0 5.0948e-06
19650.0 5.056e-06
19670.0 5.0179e-06
19690.0 4.9784e-06
19710.0 4.9394e-06
19730.0 4.9015e-06
19750.0 4.8632e-06
19770.0 4.8239e-06
19790.0 4.7861e-06
19810.0 4.7488e-06
19830.0 4.7105e-06
19850.0 4.6723e-06
19870.0 4.6349e-06
19890.0 4.5958e-06
19910.0 4.5545e-06
19930.0 4.5119e-06
19950.0 4.4658e-06
19970.0 4.4128e-06
19990.0 4.3527e-06
20010.0 4.2281e-06
20030.0 4.1537e-06
20050.0 4.0699e-06
20070.0 3.9817e-06
20090.0 3.889e-06
20110.0 3.787e-06
20130.0 3.6855e-06
20150.0 3.5864e-06
20170.0 3.4853e-06
20190.0 3.3841e-06
20210.0 3.2892e-06
20230.0 3.1974e-06
20250.0 3.106e-06
20270.0 3.0213e-06
20290.0 2.9438e-06
20310.0 2.87e-06
20330.0 2.8007e-06
20350.0 2.7423e-06
20370.0 2.6897e-06
20390.0 2.6428e-06
20410.0 2.6038e-06
20430.0 2.5725e-06
20450.0 2.5465e-06
20470.0 2.5275e-06
20490.0 2.5151e-06
20510.0 2.5083e-06
20530.0 2.5072e-06
20550.0 2.5112e-06
20570.0 2.5192e-06
20590.0 2.5318e-06
20610.0 2.5482e-06
20630.0 2.5671e-06
20650.0 2.5889e-06
20670.0 2.6146e-06
20690.0 2.641e-06
20710.0 2.6685e-06
20730.0 2.6983e-06
20750.0 2.7294e-06
20770.0 2.7596e-06
20790.0 2.7911e-06
20810.0 2.8242e-06
20830.0 2.8564e-06
20850.0 2.8883e-06
20870.0 2.9221e-06
20890.0 2.9561e-06
20910.0 2.9881e-06
20930.0 3.021e-06
20950.0 3.0549e-06
20970.0 3.0875e-06
20990.0 3.1194e-06
21010.0 3.1529e-06
21030.0 3.1856e-06
21050.0 3.2165e-06
21070.0 3.2474e-06
21090.0 3.2788e-06
21110.0 3.3073e-06
21130.0 3.3342e-06
21150.0 3.3608e-06
21170.0 3.3853e-06
21190.0 3.4068e-06
21210.0 3.427e-06
21230.0 3.4451e-06
21250.0 3.4591e-06
21270.0 3.4698e-06
21290.0 3.4774e-06
21310.0 3.4805e-06
21330.0 3.479e-06
21350.0 3.4729e-06
21370.0 3.4614e-06
21390.0 3.4446e-06
21410.0 3.4224e-06
21430.0 3.393e-06
21450.0 3.3582e-06
21470.0 3.3187e-06
21490.0 3.2727e-06
21510.0 3.2207e-06
21530.0 3.1662e-06
21550.0 3.1077e-06
21570.0 3.0437e-06
21590.0 2.9789e-06
21610.0 2.9145e-06
21630.0 2.8483e-06
21650.0 2.7815e-06
21670.0 2.7211e-06
21690.0 2.6631e-06
21710.0 2.608e-06
21730.0 2.5593e-06
21750.0 2.5178e-06
21770.0 2.481e-06
21790.0 2.452e-06
21810.0 2.4313e-06
21830.0 2.418e-06
21850.0 2.4124e-06
21870.0 2.4146e-06
21890.0 2.4235e-06
21910.0 2.4397e-06
21930.0 2.4626e-06
21950.0 2.4901e-06
21970.0 2.5233e-06
21990.0 2.5633e-06
22010.0 2.6052e-06
22030.0 2.6498e-06
22050.0 2.6986e-06
22070.0 2.7497e-06
22090.0 2.7996e-06
22110.0 2.8517e-06
22130.0 2.9054e-06
22150.0 2.9571e-06
22170.0 3.0071e-06
22190.0 3.0582e-06
22210.0 3.1069e-06
22230.0 3.1507e-06
22250.0 3.1928e-06
22270.0 3.2325e-06
22290.0 3.267e-06
22310.0 3.2971e-06
22330.0 3.3243e-06
22350.0 3.3458e-06
22370.0 3.3616e-06
22390.0 3.3724e-06
22410.0 3.3776e-06
22430.0 3.3764e-06
22450.0 3.3694e-06
22470.0 3.356e-06
22490.0 3.3362e-06
22510.0 3.311e-06
22530.0 3.2786e-06
22550.0 3.239e-06
22570.0 3.1947e-06
22590.0 3.1447e-06
22610.0 3.0871e-06
22630.0 3.0245e-06
