#lamb flux
1010.0 1.3633e-06
1030.0 1.5027e-06
1050.0 1.698e-06
1070.0 1.9994e-06
1090.0 2.3762e-06
1110.0 2.7737e-06
1130.0 3.184e-06
1150.0 3.6204e-06
1170.0 4.0704e-06
1190.0 4.4878e-06
1210.0 4.8898e-06
1230.0 5.2716e-06
1250.0 5.641e-06
1270.0 5.9438e-06
1290.0 6.1979e-06
1310.0 6.3763e-06
1330.0 6.4633e-06
1350.0 6.4785e-06
1370.0 6.4321e-06
1390.0 6.3145e-06
1410.0 6.1368e-06
1430.0 5.9279e-06
1450.0 5.6868e-06
1470.0 5.4183e-06
1490.0 5.1417e-06
1510.0 4.8708e-06
1530.0 4.5951e-06
1550.0 4.3279e-06
1570.0 4.0781e-06
1590.0 3.8444e-06
1610.0 3.6405e-06
1630.0 3.5291e-06
1650.0 3.4505e-06
1670.0 3.4032e-06
1690.0 3.3916e-06
1710.0 3.422e-06
1730.0 3.4931e-06
1750.0 3.6012e-06
1770.0 3.7571e-06
1790.0 3.9629e-06
1810.0 4.2166e-06
1830.0 4.5223e-06
1850.0 4.8916e-06
1870.0 5.3184e-06
1890.0 5.8037e-06
1910.0 6.3557e-06
1930.0 6.9771e-06
1950.0 7.6577e-06
1970.0 8.4004e-06
1990.0 9.2117e-06
2010.0 1.0079e-05
2030.0 1.0993e-05
2050.0 1.1959e-05
2070.0 1.2972e-05
2090.0 1.4003e-05
2110.0 1.5054e-05
2130.0 1.6125e-05
2150.0 1.7194e-05
2170.0 1.8244e-05
2190.0 1.9288e-05
2210.0 2.0312e-05
2230.0 2.1293e-05
2250.0 2.2238e-05
2270.0 2.3161e-05
2290.0 2.4033e-05
2310.0 2.4852e-05
2330.0 2.5645e-05
2350.0 2.641e-05
2370.0 2.7137e-05
2390.0 2.7857e-05
2410.0 2.8612e-05
2430.0 2.9395e-05
2450.0 3.0238e-05
2470.0 3.121e-05
2490.0 3.2349e-05
2510.0 3.3608e-05
2530.0 3.5089e-05
2550.0 3.6899e-05
2570.0 3.9069e-05
2590.0 4.1705e-05
2610.0 4.5245e-05
2630.0 4.9746e-05
2650.0 5.5064e-05
2670.0 6.1365e-05
2690.0 6.8572e-05
2710.0 7.5941e-05
2730.0 8.3141e-05
2750.0 9.0388e-05
2770.0 9.7262e-05
2790.0 0.00010372
2810.0 0.00011024
2830.0 0.00011729
2850.0 0.00012446
2870.0 0.0001321
2890.0 0.00014049
2910.0 0.00014938
2930.0 0.00015842
2950.0 0.00016811
2970.0 0.00017837
2990.0 0.00018874
3010.0 0.0001994
3030.0 0.00021071
3050.0 0.00022233
3070.0 0.00023368
3090.0 0.00024526
3110.0 0.00025657
3130.0 0.00026686
3150.0 0.00027586
3170.0 0.00028324
3190.0 0.00028848
3210.0 0.00029199
3230.0 0.00029402
3250.0 0.00029484
3270.0 0.00029531
3290.0 0.00029583
3310.0 0.0002966
3330.0 0.00029782
3350.0 0.00029939
3370.0 0.00030116
3390.0 0.00030002
3410.0 0.00029957
3430.0 0.00030218
3450.0 0.00030408
3470.0 0.00030294
3490.0 0.00031923
3510.0 0.00038147
3530.0 0.00047187
3550.0 0.00053287
3570.0 0.00058809
3590.0 0.00066196
3610.0 0.00066148
3630.0 0.00060864
3650.0 0.00062608
3670.0 0.00072694
3690.0 0.0008191
3710.0 0.00085252
3730.0 0.00085731
3750.0 0.00090504
3770.0 0.00090846
3790.0 0.00086886
3810.0 0.00082154
3830.0 0.00077811
3850.0 0.00077986
3870.0 0.00081374
3890.0 0.0008373
3910.0 0.00084429
3930.0 0.00084424
3950.0 0.00090459
3970.0 0.00097394
3990.0 0.00095137
4010.0 0.0008517
4030.0 0.00077038
4050.0 0.00076986
4070.0 0.00080381
4090.0 0.00079557
4110.0 0.00076758
4130.0 0.00076479
4150.0 0.00080167
4170.0 0.00087932
4190.0 0.00091139
4210.0 0.00085169
4230.0 0.00077876
4250.0 0.00072992
4270.0 0.00069986
4290.0 0.00069992
4310.0 0.00071464
4330.0 0.0006837
4350.0 0.00061318
4370.0 0.00055346
4390.0 0.00051245
4410.0 0.00049253
4430.0 0.00050969
4450.0 0.00055992
4470.0 0.00061414
4490.0 0.00065319
4510.0 0.00071369
4530.0 0.00081997
4550.0 0.0009293
4570.0 0.00099828
4590.0 0.0010583
4610.0 0.0011051
4630.0 0.0011055
4650.0 0.0010303
4670.0 0.0009132
4690.0 0.00081963
4710.0 0.00078564
4730.0 0.0007483
4750.0 0.00065904
4770.0 0.00059086
4790.0 0.00060562
4810.0 0.00065108
4830.0 0.00063562
4850.0 0.00056723
4870.0 0.0005726
4890.0 0.00058427
4910.0 0.00058963
4930.0 0.00057848
4950.0 0.0005662
4970.0 0.00053952
4990.0 0.00049957
5010.0 0.00047493
5030.0 0.00047275
5050.0 0.00047595
5070.0 0.00047991
5090.0 0.00048257
5110.0 0.00048431
5130.0 0.00049489
5150.0 0.00051705
5170.0 0.0005578
5190.0 0.00061146
5210.0 0.00065187
5230.0 0.00067573
5250.0 0.00068976
5270.0 0.00070527
5290.0 0.00071394
5310.0 0.00070466
5330.0 0.00068057
5350.0 0.00065824
5370.0 0.00065802
5390.0 0.00066823
5410.0 0.00067293
5430.0 0.00066353
5450.0 0.00065311
5470.0 0.00064226
5490.0 0.00063273
5510.0 0.00062927
5530.0 0.00063062
5550.0 0.00063399
5570.0 0.00063401
5590.0 0.00062055
5610.0 0.00059578
5630.0 0.00056998
5650.0 0.00054257
5670.0 0.00052141
5690.0 0.00050298
5710.0 0.00049468
5730.0 0.00049362
5750.0 0.00048553
5770.0 0.00047719
5790.0 0.00048253
5810.0 0.00049609
5830.0 0.00050664
5850.0 0.00050971
5870.0 0.00049752
5890.0 0.00047924
5910.0 0.00046551
5930.0 0.00044711
5950.0 0.00043003
5970.0 0.00043181
5990.0 0.00044029
6010.0 0.00043854
6030.0 0.00042565
6050.0 0.00042328
6070.0 0.00043517
6090.0 0.0004476
6110.0 0.00044443
6130.0 0.00042022
6150.0 0.00038967
6170.0 0.00037301
6190.0 0.00036715
6210.0 0.00036273
6230.0 0.00035709
6250.0 0.00035794
6270.0 0.00036839
6290.0 0.00038211
6310.0 0.00039747
6330.0 0.00041324
6350.0 0.0004213
6370.0 0.0004207
6390.0 0.00041721
6410.0 0.00041885
6430.0 0.00042272
6450.0 0.00042192
6470.0 0.00042082
6490.0 0.00042113
6510.0 0.00042053
6530.0 0.00041632
6550.0 0.00040794
6570.0 0.00039582
6590.0 0.00038331
6610.0 0.00037359
6630.0 0.0003659
6650.0 0.00035459
6670.0 0.00034249
6690.0 0.00033301
6710.0 0.00032748
6730.0 0.00032326
6750.0 0.00032029
6770.0 0.00031697
6790.0 0.00031116
6810.0 0.00030423
6830.0 0.00030078
6850.0 0.0002992
6870.0 0.00029786
6890.0 0.00029765
6910.0 0.00029487
6930.0 0.00029135
6950.0 0.00029002
6970.0 0.00028739
6990.0 0.00028295
7010.0 0.00027831
7030.0 0.00027328
7050.0 0.00026804
7070.0 0.00026152
7090.0 0.00025629
7110.0 0.00026049
7130.0 0.00026711
7150.0 0.00027084
7170.0 0.00027309
7190.0 0.00027304
7210.0 0.00026947
7230.0 0.00026434
7250.0 0.0002622
7270.0 0.00025728
7290.0 0.00025343
7310.0 0.0002515
7330.0 0.00025286
7350.0 0.00025243
7370.0 0.00025058
7390.0 0.00024846
7410.0 0.0002456
7430.0 0.00024215
7450.0 0.0002383
7470.0 0.00023428
7490.0 0.0002281
7510.0 0.00021966
7530.0 0.00021193
7550.0 0.00020697
7570.0 0.00020845
7590.0 0.00020771
7610.0 0.0002053
7630.0 0.00020286
7650.0 0.00020492
7670.0 0.00020989
7690.0 0.00021737
7710.0 0.00022181
7730.0 0.00023015
7750.0 0.00023582
7770.0 0.00024105
7790.0 0.00024322
7810.0 0.00023989
7830.0 0.00023914
7850.0 0.00023583
7870.0 0.00023018
7890.0 0.00022248
7910.0 0.00021631
7930.0 0.00021273
7950.0 0.00021053
7970.0 0.00021074
7990.0 0.00021136
8010.0 0.00020954
8030.0 0.00020752
8050.0 0.00020368
8070.0 0.00020024
8090.0 0.00019623
8110.0 0.00019721
8130.0 0.00019892
8150.0 0.00019966
8170.0 0.00019779
8190.0 0.00019601
8210.0 0.0001895
8230.0 0.00017765
8250.0 0.00017059
8270.0 0.00016659
8290.0 0.00016462
8310.0 0.00016468
8330.0 0.00016844
8350.0 0.00016581
8370.0 0.00016274
8390.0 0.00016503
8410.0 0.00016905
8430.0 0.00017661
8450.0 0.00018337
8470.0 0.00018479
8490.0 0.00018619
8510.0 0.00018465
8530.0 0.00018261
8550.0 0.00018389
8570.0 0.00018402
8590.0 0.0001826
8610.0 0.0001875
8630.0 0.00018835
8650.0 0.00018422
8670.0 0.0001837
8690.0 0.00018422
8710.0 0.00018076
8730.0 0.00017961
8750.0 0.00017397
8770.0 0.00017175
8790.0 0.0001695
8810.0 0.00016789
8830.0 0.00016179
8850.0 0.00015076
8870.0 0.00014191
8890.0 0.0001374
8910.0 0.00012893
8930.0 0.00011991
8950.0 0.00011743
8970.0 0.00011621
8990.0 0.00011615
9010.0 0.00011522
9030.0 0.0001144
9050.0 0.00011363
9070.0 0.00011287
9090.0 0.00011211
9110.0 0.00011135
9130.0 0.00011059
9150.0 0.00010984
9170.0 0.00010908
9190.0 0.00010832
9210.0 0.00010756
9230.0 0.00010681
9250.0 0.00010605
9270.0 0.0001053
9290.0 0.00010455
9310.0 0.0001038
9330.0 0.00010306
9350.0 0.00010231
9370.0 0.00010157
9390.0 0.00010083
9410.0 0.0001001
9430.0 9.936e-05
9450.0 9.8623e-05
9470.0 9.791e-05
9490.0 9.7201e-05
9510.0 9.6471e-05
9530.0 9.5749e-05
9550.0 9.5031e-05
9570.0 9.4319e-05
9590.0 9.3611e-05
9610.0 9.2908e-05
9630.0 9.221e-05
9650.0 9.1514e-05
9670.0 9.0824e-05
9690.0 9.0138e-05
9710.0 8.9456e-05
9730.0 8.8778e-05
9750.0 8.8104e-05
9770.0 8.7437e-05
9790.0 8.6771e-05
9810.0 8.6111e-05
9830.0 8.5438e-05
9850.0 8.4661e-05
9870.0 8.4034e-05
9890.0 8.3441e-05
9910.0 8.2836e-05
9930.0 8.2179e-05
9950.0 8.1566e-05
9970.0 8.0963e-05
9990.0 8.0346e-05
10010.0 7.9672e-05
10030.0 7.9041e-05
10050.0 7.8474e-05
10070.0 7.7904e-05
10090.0 7.7336e-05
10110.0 7.6738e-05
10130.0 7.61e-05
10150.0 7.5535e-05
10170.0 7.4977e-05
10190.0 7.4403e-05
10210.0 7.3846e-05
10230.0 7.3295e-05
10250.0 7.2729e-05
10270.0 7.2169e-05
10290.0 7.1628e-05
10310.0 7.1077e-05
10330.0 7.0515e-05
10350.0 6.9978e-05
10370.0 6.9447e-05
10390.0 6.8904e-05
10410.0 6.8367e-05
10430.0 6.7854e-05
10450.0 6.7329e-05
10470.0 6.68e-05
10490.0 6.6289e-05
10510.0 6.5784e-05
10530.0 6.5257e-05
10550.0 6.4746e-05
10570.0 6.4253e-05
10590.0 6.375e-05
10610.0 6.3244e-05
10630.0 6.2758e-05
10650.0 6.2273e-05
10670.0 6.1772e-05
10690.0 6.1284e-05
10710.0 6.0809e-05
10730.0 6.0324e-05
10750.0 5.9829e-05
10770.0 5.9364e-05
10790.0 5.8896e-05
10810.0 5.8416e-05
10830.0 5.7947e-05
10850.0 5.7496e-05
10870.0 5.7022e-05
10890.0 5.6554e-05
10910.0 5.6108e-05
10930.0 5.5667e-05
10950.0 5.5223e-05
10970.0 5.4803e-05
10990.0 5.4411e-05
11010.0 5.2394e-05
11030.0 5.2048e-05
11050.0 5.173e-05
11070.0 5.1421e-05
11090.0 5.1106e-05
11110.0 5.0807e-05
11130.0 5.0511e-05
11150.0 5.0202e-05
11170.0 4.9887e-05
11190.0 4.9581e-05
11210.0 4.9263e-05
11230.0 4.8935e-05
11250.0 4.8615e-05
11270.0 4.8302e-05
11290.0 4.7981e-05
11310.0 4.7667e-05
11330.0 4.7379e-05
11350.0 4.7094e-05
11370.0 4.6814e-05
11390.0 4.6555e-05
11410.0 4.6311e-05
11430.0 4.6064e-05
11450.0 4.583e-05
11470.0 4.561e-05
11490.0 4.539e-05
11510.0 4.5164e-05
11530.0 4.4947e-05
11550.0 4.4731e-05
11570.0 4.45e-05
11590.0 4.4265e-05
11610.0 4.4033e-05
11630.0 4.3784e-05
11650.0 4.352e-05
11670.0 4.3265e-05
11690.0 4.3005e-05
11710.0 4.2733e-05
11730.0 4.2463e-05
11750.0 4.2207e-05
11770.0 4.1942e-05
11790.0 4.1679e-05
11810.0 4.1431e-05
11830.0 4.1191e-05
11850.0 4.0944e-05
11870.0 4.0715e-05
11890.0 4.0504e-05
11910.0 4.0295e-05
11930.0 4.0095e-05
11950.0 3.9917e-05
11970.0 3.975e-05
11990.0 3.9589e-05
12010.0 3.9452e-05
12030.0 3.9336e-05
12050.0 3.9235e-05
12070.0 3.9155e-05
12090.0 3.9105e-05
12110.0 3.9077e-05
12130.0 3.9071e-05
12150.0 3.9093e-05
12170.0 3.9139e-05
12190.0 3.9209e-05
12210.0 3.9303e-05
12230.0 3.9416e-05
12250.0 3.9548e-05
12270.0 3.97e-05
12290.0 3.9864e-05
12310.0 4.0035e-05
12330.0 4.0217e-05
12350.0 4.0404e-05
12370.0 4.0586e-05
12390.0 4.0766e-05
12410.0 4.0944e-05
12430.0 4.1104e-05
12450.0 4.1247e-05
12470.0 4.1373e-05
12490.0 4.1476e-05
12510.0 4.1551e-05
12530.0 4.1598e-05
12550.0 4.1611e-05
12570.0 4.1592e-05
12590.0 4.1539e-05
12610.0 4.1445e-05
12630.0 4.1312e-05
12650.0 4.1157e-05
12670.0 4.0963e-05
12690.0 4.0732e-05
12710.0 4.0482e-05
12730.0 4.0214e-05
12750.0 3.9904e-05
12770.0 3.9585e-05
12790.0 3.9265e-05
12810.0 3.8928e-05
12830.0 3.8574e-05
12850.0 3.8238e-05
12870.0 3.7905e-05
12890.0 3.7561e-05
12910.0 3.7229e-05
12930.0 3.6916e-05
12950.0 3.6596e-05
12970.0 3.6278e-05
12990.0 3.5987e-05
13010.0 3.5704e-05
13030.0 3.542e-05
13050.0 3.5152e-05
13070.0 3.4906e-05
13090.0 3.4659e-05
13110.0 3.4421e-05
13130.0 3.4206e-05
13150.0 3.4004e-05
13170.0 3.3803e-05
13190.0 3.3625e-05
13210.0 3.3467e-05
13230.0 3.3314e-05
13250.0 3.3172e-05
13270.0 3.3048e-05
13290.0 3.2929e-05
13310.0 3.2809e-05
13330.0 3.2698e-05
13350.0 3.2592e-05
13370.0 3.2479e-05
13390.0 3.2361e-05
13410.0 3.2247e-05
13430.0 3.2126e-05
13450.0 3.1992e-05
13470.0 3.1854e-05
13490.0 3.1714e-05
13510.0 3.1554e-05
13530.0 3.1387e-05
13550.0 3.1221e-05
13570.0 3.1044e-05
13590.0 3.0854e-05
13610.0 3.0665e-05
13630.0 3.0476e-05
13650.0 3.0272e-05
13670.0 3.0065e-05
13690.0 2.9863e-05
13710.0 2.9653e-05
13730.0 2.9428e-05
13750.0 2.9216e-05
13770.0 2.9002e-05
13790.0 2.8778e-05
13810.0 2.8552e-05
13830.0 2.8334e-05
13850.0 2.8105e-05
13870.0 2.7867e-05
13890.0 2.7634e-05
13910.0 2.7399e-05
13930.0 2.7148e-05
13950.0 2.6893e-05
13970.0 2.6649e-05
13990.0 2.6391e-05
14010.0 2.6124e-05
14030.0 2.5864e-05
14050.0 2.5604e-05
14070.0 2.5327e-05
14090.0 2.5059e-05
14110.0 2.4801e-05
14130.0 2.454e-05
14150.0 2.4279e-05
14170.0 2.4038e-05
14190.0 2.3805e-05
14210.0 2.3572e-05
14230.0 2.3352e-05
14250.0 2.3146e-05
14270.0 2.2939e-05
14290.0 2.2735e-05
14310.0 2.2546e-05
14330.0 2.2359e-05
14350.0 2.2168e-05
14370.0 2.1982e-05
14390.0 2.1802e-05
14410.0 2.1615e-05
14430.0 2.1429e-05
14450.0 2.125e-05
14470.0 2.1072e-05
14490.0 2.0891e-05
14510.0 2.072e-05
14530.0 2.056e-05
14550.0 2.04e-05
14570.0 2.0246e-05
14590.0 2.0104e-05
14610.0 1.9966e-05
14630.0 1.9829e-05
14650.0 1.9702e-05
14670.0 1.9581e-05
14690.0 1.946e-05
14710.0 1.9342e-05
14730.0 1.9234e-05
14750.0 1.9128e-05
14770.0 1.9024e-05
14790.0 1.8927e-05
14810.0 1.8837e-05
14830.0 1.875e-05
14850.0 1.8671e-05
14870.0 1.8601e-05
14890.0 1.8539e-05
14910.0 1.8483e-05
14930.0 1.8435e-05
14950.0 1.8392e-05
14970.0 1.8352e-05
14990.0 1.8314e-05
15010.0 1.8275e-05
15030.0 1.8234e-05
15050.0 1.819e-05
15070.0 1.8144e-05
15090.0 1.8096e-05
15110.0 1.8045e-05
15130.0 1.7993e-05
15150.0 1.7941e-05
15170.0 1.7888e-05
15190.0 1.7833e-05
15210.0 1.7779e-05
15230.0 1.7725e-05
15250.0 1.7669e-05
15270.0 1.7613e-05
15290.0 1.7558e-05
15310.0 1.7502e-05
15330.0 1.7445e-05
15350.0 1.7388e-05
15370.0 1.7332e-05
15390.0 1.7274e-05
15410.0 1.7216e-05
15430.0 1.7159e-05
15450.0 1.71e-05
15470.0 1.7041e-05
15490.0 1.6984e-05
15510.0 1.6925e-05
15530.0 1.6866e-05
15550.0 1.6807e-05
15570.0 1.6749e-05
15590.0 1.6689e-05
15610.0 1.6628e-05
15630.0 1.6569e-05
15650.0 1.651e-05
15670.0 1.645e-05
15690.0 1.639e-05
15710.0 1.6331e-05
15730.0 1.627e-05
15750.0 1.621e-05
15770.0 1.615e-05
15790.0 1.609e-05
15810.0 1.6029e-05
15830.0 1.5969e-05
15850.0 1.5909e-05
15870.0 1.5849e-05
15890.0 1.5788e-05
15910.0 1.5729e-05
15930.0 1.5669e-05
15950.0 1.5608e-05
15970.0 1.5548e-05
15990.0 1.5489e-05
16010.0 1.5428e-05
16030.0 1.5368e-05
16050.0 1.5309e-05
16070.0 1.5249e-05
16090.0 1.5189e-05
16110.0 1.513e-05
16130.0 1.5072e-05
16150.0 1.5012e-05
16170.0 1.4952e-05
16190.0 1.4894e-05
16210.0 1.4836e-05
16230.0 1.4776e-05
16250.0 1.4718e-05
16270.0 1.4661e-05
16290.0 1.4602e-05
16310.0 1.4544e-05
16330.0 1.4487e-05
16350.0 1.443e-05
16370.0 1.4372e-05
16390.0 1.4315e-05
16410.0 1.4259e-05
16430.0 1.4202e-05
16450.0 1.4145e-05
16470.0 1.409e-05
16490.0 1.4034e-05
16510.0 1.3978e-05
16530.0 1.3923e-05
16550.0 1.3868e-05
16570.0 1.3812e-05
16590.0 1.3757e-05
16610.0 1.3704e-05
16630.0 1.365e-05
16650.0 1.3595e-05
16670.0 1.3542e-05
16690.0 1.3489e-05
16710.0 1.3436e-05
16730.0 1.3383e-05
16750.0 1.3331e-05
16770.0 1.3278e-05
16790.0 1.3226e-05
16810.0 1.3175e-05
16830.0 1.3124e-05
16850.0 1.3072e-05
16870.0 1.3021e-05
16890.0 1.2972e-05
16910.0 1.2921e-05
16930.0 1.287e-05
16950.0 1.2821e-05
16970.0 1.2772e-05
16990.0 1.2723e-05
17010.0 1.2674e-05
17030.0 1.2626e-05
17050.0 1.2578e-05
17070.0 1.2529e-05
17090.0 1.2482e-05
17110.0 1.2435e-05
17130.0 1.2387e-05
17150.0 1.234e-05
17170.0 1.2295e-05
17190.0 1.2248e-05
17210.0 1.2202e-05
17230.0 1.2157e-05
17250.0 1.2112e-05
17270.0 1.2066e-05
17290.0 1.2021e-05
17310.0 1.1977e-05
17330.0 1.1933e-05
17350.0 1.1888e-05
17370.0 1.1845e-05
17390.0 1.1802e-05
17410.0 1.1758e-05
17430.0 1.1716e-05
17450.0 1.1674e-05
17470.0 1.1631e-05
17490.0 1.1588e-05
17510.0 1.1547e-05
17530.0 1.1505e-05
17550.0 1.1464e-05
17570.0 1.1423e-05
17590.0 1.1383e-05
17610.0 1.1341e-05
17630.0 1.1301e-05
17650.0 1.1261e-05
17670.0 1.1222e-05
17690.0 1.1181e-05
17710.0 1.1142e-05
17730.0 1.1103e-05
17750.0 1.1064e-05
17770.0 1.1025e-05
17790.0 1.0988e-05
17810.0 1.0949e-05
17830.0 1.091e-05
17850.0 1.0873e-05
17870.0 1.0836e-05
17890.0 1.0798e-05
17910.0 1.076e-05
17930.0 1.0724e-05
17950.0 1.0687e-05
17970.0 1.065e-05
17990.0 1.0614e-05
18010.0 1.0578e-05
18030.0 1.0542e-05
18050.0 1.0506e-05
18070.0 1.0471e-05
18090.0 1.0435e-05
18110.0 1.0399e-05
18130.0 1.0365e-05
18150.0 1.033e-05
18170.0 1.0295e-05
18190.0 1.026e-05
18210.0 1.0226e-05
18230.0 1.0192e-05
18250.0 1.0157e-05
18270.0 1.0124e-05
18290.0 1.009e-05
18310.0 1.0056e-05
18330.0 1.0023e-05
18350.0 9.9901e-06
18370.0 9.9566e-06
18390.0 9.9234e-06
18410.0 9.8909e-06
18430.0 9.8583e-06
18450.0 9.825e-06
18470.0 9.7928e-06
18490.0 9.761e-06
18510.0 9.7286e-06
18530.0 9.6965e-06
18550.0 9.6652e-06
18570.0 9.6334e-06
18590.0 9.6012e-06
18610.0 9.5699e-06
18630.0 9.5389e-06
18650.0 9.5074e-06
18670.0 9.4759e-06
18690.0 9.4456e-06
18710.0 9.4148e-06
18730.0 9.3837e-06
18750.0 9.3534e-06
18770.0 9.3234e-06
18790.0 9.2923e-06
18810.0 9.2618e-06
18830.0 9.2322e-06
18850.0 9.2022e-06
18870.0 9.1718e-06
18890.0 9.1424e-06
18910.0 9.1132e-06
18930.0 9.0832e-06
18950.0 9.0536e-06
18970.0 9.0248e-06
18990.0 8.9955e-06
19010.0 8.9656e-06
19030.0 8.937e-06
19050.0 8.9085e-06
19070.0 8.8794e-06
19090.0 8.8507e-06
19110.0 8.8228e-06
19130.0 8.794e-06
19150.0 8.7653e-06
19170.0 8.7374e-06
19190.0 8.7095e-06
19210.0 8.681e-06
19230.0 8.653e-06
19250.0 8.6258e-06
19270.0 8.598e-06
19290.0 8.5702e-06
19310.0 8.5432e-06
19330.0 8.5162e-06
19350.0 8.4882e-06
19370.0 8.4612e-06
19390.0 8.4346e-06
19410.0 8.4075e-06
19430.0 8.3804e-06
19450.0 8.3543e-06
19470.0 8.328e-06
19490.0 8.3012e-06
19510.0 8.275e-06
19530.0 8.2493e-06
19550.0 8.2229e-06
19570.0 8.1965e-06
19590.0 8.1712e-06
19610.0 8.1456e-06
19630.0 8.1197e-06
19650.0 8.0945e-06
19670.0 8.0697e-06
19690.0 8.0441e-06
19710.0 8.0189e-06
19730.0 7.9944e-06
19750.0 7.9696e-06
19770.0 7.9443e-06
19790.0 7.92e-06
19810.0 7.8961e-06
19830.0 7.8715e-06
19850.0 7.847e-06
19870.0 7.8231e-06
19890.0 7.798e-06
19910.0 7.7713e-06
19930.0 7.7436e-06
19950.0 7.7132e-06
19970.0 7.6776e-06
19990.0 7.6366e-06
20010.0 7.5916e-06
20030.0 7.5388e-06
20050.0 7.4788e-06
20070.0 7.4151e-06
20090.0 7.3478e-06
20110.0 7.2733e-06
20130.0 7.1989e-06
20150.0 7.1262e-06
20170.0 7.0517e-06
20190.0 6.9769e-06
20210.0 6.9065e-06
20230.0 6.8379e-06
20250.0 6.7688e-06
20270.0 6.7039e-06
20290.0 6.6434e-06
20310.0 6.5842e-06
20330.0 6.5264e-06
20350.0 6.4755e-06
20370.0 6.427e-06
20390.0 6.3802e-06
20410.0 6.3374e-06
20430.0 6.299e-06
20450.0 6.2613e-06
20470.0 6.2267e-06
20490.0 6.1962e-06
20510.0 6.1681e-06
20530.0 6.1417e-06
20550.0 6.1187e-06
20570.0 6.0989e-06
20590.0 6.0806e-06
20610.0 6.0647e-06
20630.0 6.0515e-06
20650.0 6.04e-06
20670.0 6.0298e-06
20690.0 6.0217e-06
20710.0 6.0151e-06
20730.0 6.0091e-06
20750.0 6.0036e-06
20770.0 5.9988e-06
20790.0 5.9936e-06
20810.0 5.9877e-06
20830.0 5.9809e-06
20850.0 5.9731e-06
20870.0 5.963e-06
20890.0 5.9507e-06
20910.0 5.937e-06
20930.0 5.9206e-06
20950.0 5.9011e-06
20970.0 5.8798e-06
20990.0 5.8566e-06
21010.0 5.8295e-06
21030.0 5.8005e-06
21050.0 5.7708e-06
21070.0 5.7388e-06
21090.0 5.7039e-06
21110.0 5.6699e-06
21130.0 5.6355e-06
21150.0 5.5991e-06
21170.0 5.5627e-06
21190.0 5.5279e-06
21210.0 5.4917e-06
21230.0 5.4549e-06
21250.0 5.4204e-06
21270.0 5.3868e-06
21290.0 5.3525e-06
21310.0 5.3196e-06
21330.0 5.2894e-06
21350.0 5.2588e-06
21370.0 5.2287e-06
21390.0 5.201e-06
21410.0 5.1743e-06
21430.0 5.1466e-06
21450.0 5.121e-06
21470.0 5.0972e-06
21490.0 5.0732e-06
21510.0 5.0494e-06
21530.0 5.0275e-06
21550.0 5.0058e-06
21570.0 4.9833e-06
21590.0 4.9618e-06
21610.0 4.9413e-06
21630.0 4.92e-06
21650.0 4.8978e-06
21670.0 4.8778e-06
21690.0 4.8573e-06
21710.0 4.8357e-06
21730.0 4.8148e-06
21750.0 4.7947e-06
21770.0 4.7726e-06
21790.0 4.7505e-06
21810.0 4.7293e-06
21830.0 4.7076e-06
21850.0 4.6845e-06
21870.0 4.662e-06
21890.0 4.6405e-06
21910.0 4.6172e-06
21930.0 4.5937e-06
21950.0 4.5713e-06
21970.0 4.5482e-06
21990.0 4.5232e-06
22010.0 4.4998e-06
22030.0 4.4768e-06
22050.0 4.4527e-06
22070.0 4.4285e-06
22090.0 4.4062e-06
22110.0 4.3832e-06
22130.0 4.3596e-06
22150.0 4.3376e-06
22170.0 4.3166e-06
22190.0 4.2946e-06
22210.0 4.2736e-06
22230.0 4.2553e-06
22250.0 4.237e-06
22270.0 4.2191e-06
22290.0 4.2033e-06
22310.0 4.189e-06
22330.0 4.1744e-06
22350.0 4.1614e-06
22370.0 4.1504e-06
22390.0 4.1398e-06
22410.0 4.1295e-06
22430.0 4.1214e-06
22450.0 4.1143e-06
22470.0 4.1072e-06
22490.0 4.1013e-06
22510.0 4.0968e-06
22530.0 4.0922e-06
22550.0 4.088e-06
22570.0 4.0854e-06
22590.0 4.0835e-06
22610.0 4.0816e-06
22630.0 4.0807e-06
