#lamb flux
1010.0 9.1782e-05
1030.0 0.00010207
1050.0 0.00011201
1070.0 0.00012324
1090.0 0.00013657
1110.0 0.00015018
1130.0 0.00016388
1150.0 0.00017826
1170.0 0.00019322
1190.0 0.00020764
1210.0 0.00022256
1230.0 0.00023836
1250.0 0.00025424
1270.0 0.00027026
1290.0 0.00028773
1310.0 0.00030586
1330.0 0.00032402
1350.0 0.00034298
1370.0 0.000363
1390.0 0.00038312
1410.0 0.00040313
1430.0 0.0004241
1450.0 0.00044522
1470.0 0.0004658
1490.0 0.00048643
1510.0 0.00050777
1530.0 0.00052785
1550.0 0.00054726
1570.0 0.0005667
1590.0 0.00058553
1610.0 0.00060283
1630.0 0.00061964
1650.0 0.00063603
1670.0 0.00065093
1690.0 0.00066467
1710.0 0.00067809
1730.0 0.00069064
1750.0 0.00070125
1770.0 0.00071148
1790.0 0.00072124
1810.0 0.0007298
1830.0 0.00073753
1850.0 0.00074579
1870.0 0.00075337
1890.0 0.00076033
1910.0 0.00076766
1930.0 0.00077558
1950.0 0.00078315
1970.0 0.00079103
1990.0 0.0008
2010.0 0.00080931
2030.0 0.00081871
2050.0 0.0008291
2070.0 0.00084033
2090.0 0.00085111
2110.0 0.0008621
2130.0 0.00087357
2150.0 0.00088466
2170.0 0.00089485
2190.0 0.00090507
2210.0 0.00091471
2230.0 0.00092295
2250.0 0.00093015
2270.0 0.00093683
2290.0 0.00094185
2310.0 0.00094504
2330.0 0.00094728
2350.0 0.00094822
2370.0 0.0009472
2390.0 0.00094487
2410.0 0.00094159
2430.0 0.00093634
2450.0 0.00092918
2470.0 0.00092058
2490.0 0.00091044
2510.0 0.00089879
2530.0 0.00088783
2550.0 0.00088084
2570.0 0.00088172
2590.0 0.00089493
2610.0 0.00093042
2630.0 0.00099129
2650.0 0.0010732
2670.0 0.0011767
2690.0 0.0012964
2710.0 0.0014106
2730.0 0.0015065
2750.0 0.0015799
2770.0 0.0016132
2790.0 0.0016015
2810.0 0.0015467
2830.0 0.0014468
2850.0 0.0013148
2870.0 0.0011583
2890.0 0.00097836
2910.0 0.00078493
2930.0 0.00058938
2950.0 0.00038225
2970.0 0.0001667
2990.0 6.416e-05
3010.0 0.00011987
3030.0 0.00011987
3050.0 0.00011987
3070.0 0.00011987
3090.0 0.00011987
3110.0 0.00011987
3130.0 0.00011987
3150.0 0.00011987
3170.0 0.00011987
3190.0 0.00011987
3210.0 0.00077998
3230.0 0.0067878
3250.0 0.010876
3270.0 0.0098044
3290.0 0.0081894
3310.0 0.006181
3330.0 0.0058651
3350.0 0.0063969
3370.0 0.0072229
3390.0 0.008111
3410.0 0.0090619
3430.0 0.010334
3450.0 0.011545
3470.0 0.012791
3490.0 0.013058
3510.0 0.011219
3530.0 0.010301
3550.0 0.012132
3570.0 0.014064
3590.0 0.015482
3610.0 0.015524
3630.0 0.018051
3650.0 0.019034
3670.0 0.019863
3690.0 0.021025
3710.0 0.021162
3730.0 0.021882
3750.0 0.021766
3770.0 0.02167
3790.0 0.020865
3810.0 0.019602
3830.0 0.018555
3850.0 0.011628
3870.0 0.012282
3890.0 0.014064
3910.0 0.018501
3930.0 0.023953
3950.0 0.025951
3970.0 0.027844
3990.0 0.032294
4010.0 0.030423
4030.0 0.026915
4050.0 0.019273
4070.0 0.016946
4090.0 0.022696
4110.0 0.023931
4130.0 0.026052
4150.0 0.025432
4170.0 0.024063
4190.0 0.022037
4210.0 0.02711
4230.0 0.029019
4250.0 0.031467
4270.0 0.030494
4290.0 0.029537
4310.0 0.030966
4330.0 0.035924
4350.0 0.038879
4370.0 0.039279
4390.0 0.036335
4410.0 0.033083
4430.0 0.02587
4450.0 0.020773
4470.0 0.021649
4490.0 0.02493
4510.0 0.02626
4530.0 0.026287
4550.0 0.026408
4570.0 0.037068
4590.0 0.055265
4610.0 0.06527
4630.0 0.067061
4650.0 0.07364
4670.0 0.086197
4690.0 0.092227
4710.0 0.077974
4730.0 0.05966
4750.0 0.04629
4770.0 0.039175
4790.0 0.035283
4810.0 0.033389
4830.0 0.036972
4850.0 0.044391
4870.0 0.049185
4890.0 0.051021
4910.0 0.049132
4930.0 0.053875
4950.0 0.064878
4970.0 0.073958
4990.0 0.075841
5010.0 0.069405
5030.0 0.05742
5050.0 0.044763
5070.0 0.036316
5090.0 0.03316
5110.0 0.032887
5130.0 0.033448
5150.0 0.033083
5170.0 0.030863
5190.0 0.028994
5210.0 0.028871
5230.0 0.032828
5250.0 0.039694
5270.0 0.047379
5290.0 0.053159
5310.0 0.057038
5330.0 0.063271
5350.0 0.069721
5370.0 0.070858
5390.0 0.064032
5410.0 0.057078
5430.0 0.056379
5450.0 0.065514
5470.0 0.079558
5490.0 0.090992
5510.0 0.095705
5530.0 0.094134
5550.0 0.089932
5570.0 0.086405
5590.0 0.082768
5610.0 0.080691
5630.0 0.0803
5650.0 0.080357
5670.0 0.07764
5690.0 0.06954
5710.0 0.059181
5730.0 0.053189
5750.0 0.051257
5770.0 0.052457
5790.0 0.05389
5810.0 0.055183
5830.0 0.055501
5850.0 0.052996
5870.0 0.050194
5890.0 0.049244
5910.0 0.050752
5930.0 0.051912
5950.0 0.048517
5970.0 0.042344
5990.0 0.034543
6010.0 0.028081
6030.0 0.026264
6050.0 0.028577
6070.0 0.030208
6090.0 0.028431
6110.0 0.025236
6130.0 0.026007
6150.0 0.030145
6170.0 0.034246
6190.0 0.037091
6210.0 0.037738
6230.0 0.037239
6250.0 0.033919
6270.0 0.028237
6290.0 0.023312
6310.0 0.020881
6330.0 0.020574
6350.0 0.020928
6370.0 0.021482
6390.0 0.024555
6410.0 0.030592
6430.0 0.036993
6450.0 0.040695
6470.0 0.041817
6490.0 0.041861
6510.0 0.042559
6530.0 0.043508
6550.0 0.043539
6570.0 0.045102
6590.0 0.046373
6610.0 0.046959
6630.0 0.045679
6650.0 0.042364
6670.0 0.038693
6690.0 0.035649
6710.0 0.033949
6730.0 0.03315
6750.0 0.033291
6770.0 0.034196
6790.0 0.035439
6810.0 0.036226
6830.0 0.035589
6850.0 0.033745
6870.0 0.031624
6890.0 0.030898
6910.0 0.030325
6930.0 0.031369
6950.0 0.032923
6970.0 0.033754
6990.0 0.034229
7010.0 0.033157
7030.0 0.030459
7050.0 0.027025
7070.0 0.024446
7090.0 0.023334
7110.0 0.023248
7130.0 0.022325
7150.0 0.019802
7170.0 0.018929
7190.0 0.020961
7210.0 0.024418
7230.0 0.027925
7250.0 0.029302
7270.0 0.028777
7290.0 0.026652
7310.0 0.024771
7330.0 0.024016
7350.0 0.024178
7370.0 0.024595
7390.0 0.025823
7410.0 0.02868
7430.0 0.032887
7450.0 0.036737
7470.0 0.038378
7490.0 0.037089
7510.0 0.034449
7530.0 0.030906
7550.0 0.028553
7570.0 0.025948
7590.0 0.024691
7610.0 0.025234
7630.0 0.02707
7650.0 0.029818
7670.0 0.032795
7690.0 0.035109
7710.0 0.037305
7730.0 0.039455
7750.0 0.041261
7770.0 0.041187
7790.0 0.041638
7810.0 0.042241
7830.0 0.041748
7850.0 0.04044
7870.0 0.039479
7890.0 0.040013
7910.0 0.039483
7930.0 0.038889
7950.0 0.037079
7970.0 0.035984
7990.0 0.034696
8010.0 0.03469
8030.0 0.03502
8050.0 0.035255
8070.0 0.034904
8090.0 0.034721
8110.0 0.033724
8130.0 0.033789
8150.0 0.033498
8170.0 0.03277
8190.0 0.032082
8210.0 0.031833
8230.0 0.03116
8250.0 0.030765
8270.0 0.028239
8290.0 0.023395
8310.0 0.017933
8330.0 0.014187
8350.0 0.013412
8370.0 0.015874
8390.0 0.019108
8410.0 0.020576
8430.0 0.021105
8450.0 0.022318
8470.0 0.024084
8490.0 0.027027
8510.0 0.030804
8530.0 0.035155
8550.0 0.039035
8570.0 0.042146
8590.0 0.044533
8610.0 0.045856
8630.0 0.045851
8650.0 0.045368
8670.0 0.045474
8690.0 0.047982
8710.0 0.051358
8730.0 0.053488
8750.0 0.053398
8770.0 0.054264
8790.0 0.05425
8810.0 0.05122
8830.0 0.048095
8850.0 0.043977
8870.0 0.040694
8890.0 0.039734
8910.0 0.03972
8930.0 0.037517
8950.0 0.03492
8970.0 0.033863
8990.0 0.033724
9010.0 0.032564
9030.0 0.031847
9050.0 0.031563
9070.0 0.03143
9090.0 0.031317
9110.0 0.031208
9130.0 0.031099
9150.0 0.030992
9170.0 0.030875
9190.0 0.030792
9210.0 0.030807
9230.0 0.030651
9250.0 0.030521
9270.0 0.030404
9290.0 0.030298
9310.0 0.030194
9330.0 0.030095
9350.0 0.030003
9370.0 0.029912
9390.0 0.029819
9410.0 0.02973
9430.0 0.029637
9450.0 0.029504
9470.0 0.029386
9490.0 0.029342
9510.0 0.029276
9530.0 0.029206
9550.0 0.029132
9570.0 0.029055
9590.0 0.028977
9610.0 0.028899
9630.0 0.028821
9650.0 0.028743
9670.0 0.028666
9690.0 0.028589
9710.0 0.028513
9730.0 0.028437
9750.0 0.028362
9770.0 0.028286
9790.0 0.028211
9810.0 0.028136
9830.0 0.028061
9850.0 0.027986
9870.0 0.027911
9890.0 0.027836
9910.0 0.02776
9930.0 0.027681
9950.0 0.027411
9970.0 0.027391
9990.0 0.02736
10010.0 0.027322
10030.0 0.027268
10050.0 0.027199
10070.0 0.027128
10090.0 0.027057
10110.0 0.02697
10130.0 0.026882
10150.0 0.026802
10170.0 0.026717
10190.0 0.026622
10210.0 0.026535
10230.0 0.02645
10250.0 0.026353
10270.0 0.026257
10290.0 0.026167
10310.0 0.026068
10330.0 0.025959
10350.0 0.025859
10370.0 0.025758
10390.0 0.025646
10410.0 0.025534
10430.0 0.02543
10450.0 0.025315
10470.0 0.025193
10490.0 0.025076
10510.0 0.024958
10530.0 0.024824
10550.0 0.024693
10570.0 0.024568
10590.0 0.024433
10610.0 0.024291
10630.0 0.024156
10650.0 0.024017
10670.0 0.023863
10690.0 0.023712
10710.0 0.023564
10730.0 0.023405
10750.0 0.023235
10770.0 0.023078
10790.0 0.022914
10810.0 0.022739
10830.0 0.022565
10850.0 0.022396
10870.0 0.022207
10890.0 0.022014
10910.0 0.021828
10930.0 0.021633
10950.0 0.021421
10970.0 0.021208
10990.0 0.020999
11010.0 0.022511
11030.0 0.022263
11050.0 0.022023
11070.0 0.021777
11090.0 0.021514
11110.0 0.02127
11130.0 0.021034
11150.0 0.020791
11170.0 0.020551
11190.0 0.020327
11210.0 0.020098
11230.0 0.019864
11250.0 0.01964
11270.0 0.019422
11290.0 0.019195
11310.0 0.018968
11330.0 0.018757
11350.0 0.018539
11370.0 0.018314
11390.0 0.018094
11410.0 0.017873
11430.0 0.017632
11450.0 0.017385
11470.0 0.017136
11490.0 0.016869
11510.0 0.016579
11530.0 0.016288
11550.0 0.015986
11570.0 0.015658
11590.0 0.015323
11610.0 0.014989
11630.0 0.014637
11650.0 0.014271
11670.0 0.013921
11690.0 0.013572
11710.0 0.013215
11730.0 0.012868
11750.0 0.012541
11770.0 0.012211
11790.0 0.011887
11810.0 0.011583
11830.0 0.011289
11850.0 0.010991
11870.0 0.010711
11890.0 0.01045
11910.0 0.010189
11930.0 0.0099345
11950.0 0.0096975
11970.0 0.0094668
11990.0 0.0092362
12010.0 0.0090202
12030.0 0.0088176
12050.0 0.0086196
12070.0 0.0084293
12090.0 0.0082607
12110.0 0.0081022
12130.0 0.007954
12150.0 0.0078236
12170.0 0.007711
12190.0 0.0076102
12210.0 0.0075284
12230.0 0.0074659
12250.0 0.0074203
12270.0 0.0073928
12290.0 0.0073829
12310.0 0.0073883
12330.0 0.0074112
12350.0 0.0074495
12370.0 0.0074986
12390.0 0.0075607
12410.0 0.0076398
12430.0 0.0077222
12450.0 0.0078104
12470.0 0.0079088
12490.0 0.0080112
12510.0 0.0081091
12530.0 0.0082108
12550.0 0.0083134
12570.0 0.0084061
12590.0 0.0084898
12610.0 0.0085683
12630.0 0.0086329
12650.0 0.008677
12670.0 0.008707
12690.0 0.0087193
12710.0 0.0087103
12730.0 0.0086819
12750.0 0.0086338
12770.0 0.0085659
12790.0 0.0084815
12810.0 0.0083806
12830.0 0.0082638
12850.0 0.0081395
12870.0 0.0080079
12890.0 0.0078672
12910.0 0.0077248
12930.0 0.007585
12950.0 0.0074425
12970.0 0.0073006
12990.0 0.0071676
13010.0 0.0070387
13030.0 0.0069116
13050.0 0.0067908
13070.0 0.0066775
13090.0 0.006565
13110.0 0.0064555
13130.0 0.0063516
13150.0 0.0062502
13170.0 0.0061475
13190.0 0.0060493
13210.0 0.0059551
13230.0 0.0058608
13250.0 0.0057685
13270.0 0.0056816
13290.0 0.0055973
13310.0 0.0055152
13330.0 0.0054399
13350.0 0.0053714
13370.0 0.0053081
13390.0 0.0052514
13410.0 0.0052037
13430.0 0.0051621
13450.0 0.0051264
13470.0 0.0050963
13490.0 0.0050704
13510.0 0.0050468
13530.0 0.0050241
13550.0 0.0050009
13570.0 0.0049754
13590.0 0.0049461
13610.0 0.0049127
13630.0 0.0048751
13650.0 0.0048314
13670.0 0.004783
13690.0 0.0047316
13710.0 0.0046763
13730.0 0.0046166
13750.0 0.0045586
13770.0 0.0045011
13790.0 0.0044437
13810.0 0.0043889
13830.0 0.004339
13850.0 0.0042914
13870.0 0.0042474
13890.0 0.0042086
13910.0 0.0041738
13930.0 0.0041417
13950.0 0.0041129
13970.0 0.0040875
13990.0 0.0040632
14010.0 0.0040398
14030.0 0.0040172
14050.0 0.0039945
14070.0 0.0039699
14090.0 0.0039442
14110.0 0.0039173
14130.0 0.0038877
14150.0 0.0038553
14170.0 0.003822
14190.0 0.0037869
14210.0 0.0037491
14230.0 0.0037109
14250.0 0.0036734
14270.0 0.0036348
14290.0 0.0035969
14310.0 0.0035626
14330.0 0.0035307
14350.0 0.0035011
14370.0 0.0034758
14390.0 0.003455
14410.0 0.0034374
14430.0 0.0034238
14450.0 0.0034144
14470.0 0.0034082
14490.0 0.0034048
14510.0 0.0034042
14530.0 0.0034058
14550.0 0.0034093
14570.0 0.0034149
14590.0 0.0034222
14610.0 0.0034318
14630.0 0.0034444
14650.0 0.0034598
14670.0 0.0034784
14690.0 0.0035016
14710.0 0.0035299
14730.0 0.0035615
14750.0 0.0035986
14770.0 0.0036422
14790.0 0.0036905
14810.0 0.0037433
14830.0 0.0038056
14850.0 0.0038737
14870.0 0.0039457
14890.0 0.0040244
14910.0 0.0041096
14930.0 0.0041942
14950.0 0.0042763
14970.0 0.0043571
14990.0 0.0044292
15010.0 0.0044892
15030.0 0.0045389
15050.0 0.0045784
15070.0 0.0046067
15090.0 0.0046281
15110.0 0.0046449
15130.0 0.0046586
15150.0 0.0046707
15170.0 0.0046822
15190.0 0.0046935
15210.0 0.0047048
15230.0 0.0047164
15250.0 0.0047281
15270.0 0.00474
15290.0 0.0047522
15310.0 0.0047646
15330.0 0.0047772
15350.0 0.0047901
15370.0 0.0048031
15390.0 0.0048164
15410.0 0.0048298
15430.0 0.0048435
15450.0 0.0048573
15470.0 0.0048713
15490.0 0.0048856
15510.0 0.0049
15530.0 0.0049146
15550.0 0.0049293
15570.0 0.0049443
15590.0 0.0049593
15610.0 0.0049745
15630.0 0.00499
15650.0 0.0050055
15670.0 0.0050212
15690.0 0.005037
15710.0 0.005053
15730.0 0.005069
15750.0 0.0050852
15770.0 0.0051015
15790.0 0.0051179
15810.0 0.0051344
15830.0 0.005151
15850.0 0.0051677
15870.0 0.0051845
15890.0 0.0052014
15910.0 0.0052184
15930.0 0.0052354
15950.0 0.0052524
15970.0 0.0052695
15990.0 0.0052867
16010.0 0.0053039
16030.0 0.0053212
16050.0 0.0053385
16070.0 0.0053558
16090.0 0.0053731
16110.0 0.0053905
16130.0 0.0054078
16150.0 0.0054251
16170.0 0.0054424
16190.0 0.0054598
16210.0 0.005477
16230.0 0.0054943
16250.0 0.0055115
16270.0 0.0055287
16290.0 0.0055458
16310.0 0.0055628
16330.0 0.0055798
16350.0 0.0055967
16370.0 0.0056135
16390.0 0.0056302
16410.0 0.0056469
16430.0 0.0056634
16450.0 0.0056798
16470.0 0.0056962
16490.0 0.0057123
16510.0 0.0057283
16530.0 0.0057442
16550.0 0.00576
16570.0 0.0057756
16590.0 0.005791
16610.0 0.0058063
16630.0 0.0058213
16650.0 0.0058362
16670.0 0.0058509
16690.0 0.0058654
16710.0 0.0058796
16730.0 0.0058937
16750.0 0.0059076
16770.0 0.0059211
16790.0 0.0059345
16810.0 0.0059476
16830.0 0.0059605
16850.0 0.0059731
16870.0 0.0059855
16890.0 0.0059976
16910.0 0.0060093
16930.0 0.0060208
16950.0 0.006032
16970.0 0.006043
16990.0 0.0060535
17010.0 0.0060638
17030.0 0.0060739
17050.0 0.0060835
17070.0 0.0060928
17090.0 0.0061018
17110.0 0.0061105
17130.0 0.0061187
17150.0 0.0061267
17170.0 0.0061343
17190.0 0.0061416
17210.0 0.0061484
17230.0 0.006155
17250.0 0.0061611
17270.0 0.0061668
17290.0 0.0061721
17310.0 0.0061771
17330.0 0.0061817
17350.0 0.0061858
17370.0 0.0061897
17390.0 0.006193
17410.0 0.006196
17430.0 0.0061986
17450.0 0.0062008
17470.0 0.0062024
17490.0 0.0062037
17510.0 0.0062047
17530.0 0.0062051
17550.0 0.0062052
17570.0 0.0062048
17590.0 0.0062041
17610.0 0.0062028
17630.0 0.0062011
17650.0 0.0061991
17670.0 0.0061966
17690.0 0.0061936
17710.0 0.0061902
17730.0 0.0061865
17750.0 0.0061822
17770.0 0.0061776
17790.0 0.0061725
17810.0 0.006167
17830.0 0.006161
17850.0 0.0061547
17870.0 0.0061479
17890.0 0.0061406
17910.0 0.006133
17930.0 0.006125
17950.0 0.0061165
17970.0 0.0061076
17990.0 0.0060983
18010.0 0.0060886
18030.0 0.0060784
18050.0 0.0060679
18070.0 0.006057
18090.0 0.0060457
18110.0 0.0060339
18130.0 0.0060219
18150.0 0.0060094
18170.0 0.0059965
18190.0 0.0059832
18210.0 0.0059697
18230.0 0.0059556
18250.0 0.0059412
18270.0 0.0059266
18290.0 0.0059115
18310.0 0.005896
18330.0 0.0058803
18350.0 0.0058642
18370.0 0.0058478
18390.0 0.005831
18410.0 0.0058139
18430.0 0.0057965
18450.0 0.0057787
18470.0 0.0057607
18490.0 0.0057424
18510.0 0.0057238
18530.0 0.0057048
18550.0 0.0056857
18570.0 0.0056662
18590.0 0.0056464
18610.0 0.0056265
18630.0 0.0056062
18650.0 0.0055857
18670.0 0.0055649
18690.0 0.005544
18710.0 0.0055227
18730.0 0.0055013
18750.0 0.0054796
18770.0 0.0054578
18790.0 0.0054356
18810.0 0.0054133
18830.0 0.0053909
18850.0 0.0053682
18870.0 0.0053454
18890.0 0.0053224
18910.0 0.0052993
18930.0 0.0052759
18950.0 0.0052524
18970.0 0.0052288
18990.0 0.005205
19010.0 0.0051811
19030.0 0.0051571
19050.0 0.005133
19070.0 0.0051087
19090.0 0.0050843
19110.0 0.0050599
19130.0 0.0050353
19150.0 0.0050107
19170.0 0.004986
19190.0 0.0049612
19210.0 0.0049363
19230.0 0.0049113
19250.0 0.0048864
19270.0 0.0048613
19290.0 0.0048362
19310.0 0.0048111
19330.0 0.004786
19350.0 0.0047607
19370.0 0.0047355
19390.0 0.0047103
19410.0 0.004685
19430.0 0.0046598
19450.0 0.0046345
19470.0 0.0046093
19490.0 0.004584
19510.0 0.0045588
19530.0 0.0045336
19550.0 0.0045084
19570.0 0.0044832
19590.0 0.0044581
19610.0 0.004433
19630.0 0.0044079
19650.0 0.0043829
19670.0 0.004358
19690.0 0.004333
19710.0 0.0043082
19730.0 0.0042834
19750.0 0.0042587
19770.0 0.004234
19790.0 0.0042094
19810.0 0.0041848
19830.0 0.0041603
19850.0 0.0041356
19870.0 0.0041107
19890.0 0.004085
19910.0 0.0040577
19930.0 0.0040282
19950.0 0.0039952
19970.0 0.0039566
19990.0 0.0039114
20010.0 0.0038606
20030.0 0.0038017
20050.0 0.0037353
20070.0 0.0036649
20090.0 0.0035913
20110.0 0.0035118
20130.0 0.0034332
20150.0 0.0033569
20170.0 0.0032803
20190.0 0.0032045
20210.0 0.0031333
20230.0 0.0030644
20250.0 0.0029962
20270.0 0.0029321
20290.0 0.0028719
20310.0 0.0028135
20330.0 0.0027569
20350.0 0.0027058
20370.0 0.002657
20390.0 0.0026101
20410.0 0.0025665
20430.0 0.0025264
20450.0 0.0024875
20470.0 0.0024512
20490.0 0.0024181
20510.0 0.0023871
20530.0 0.0023578
20550.0 0.002331
20570.0 0.0023067
20590.0 0.0022838
20610.0 0.0022628
20630.0 0.0022437
20650.0 0.002226
20670.0 0.0022096
20690.0 0.0021946
20710.0 0.0021807
20730.0 0.0021677
20750.0 0.0021555
20770.0 0.0021438
20790.0 0.0021325
20810.0 0.0021216
20830.0 0.0021107
20850.0 0.0020998
20870.0 0.0020887
20890.0 0.0020774
20910.0 0.0020656
20930.0 0.0020534
20950.0 0.0020406
20970.0 0.0020272
20990.0 0.0020132
21010.0 0.0019984
21030.0 0.0019828
21050.0 0.0019668
21070.0 0.00195
21090.0 0.0019323
21110.0 0.0019144
21130.0 0.001896
21150.0 0.0018768
21170.0 0.0018573
21190.0 0.0018378
21210.0 0.0018177
21230.0 0.0017971
21250.0 0.0017768
21270.0 0.0017565
21290.0 0.0017358
21310.0 0.0017153
21330.0 0.0016956
21350.0 0.0016756
21370.0 0.0016558
21390.0 0.0016369
21410.0 0.0016184
21430.0 0.0016
21450.0 0.0015826
21470.0 0.0015663
21490.0 0.0015505
21510.0 0.0015355
21530.0 0.0015218
21550.0 0.001509
21570.0 0.0014971
21590.0 0.0014863
21610.0 0.0014767
21630.0 0.0014681
21650.0 0.0014605
21670.0 0.0014539
21690.0 0.0014482
21710.0 0.0014435
21730.0 0.0014395
21750.0 0.001436
21770.0 0.0014335
21790.0 0.0014314
21810.0 0.0014295
21830.0 0.001428
21850.0 0.0014268
21870.0 0.0014256
21890.0 0.0014242
21910.0 0.0014229
21930.0 0.0014214
21950.0 0.0014195
21970.0 0.0014173
21990.0 0.0014149
22010.0 0.0014119
22030.0 0.0014085
22050.0 0.0014048
22070.0 0.0014006
22090.0 0.0013959
22110.0 0.001391
22130.0 0.0013856
22150.0 0.00138
22170.0 0.0013741
22190.0 0.0013678
22210.0 0.0013614
22230.0 0.0013547
22250.0 0.0013478
22270.0 0.0013406
22290.0 0.0013333
22310.0 0.0013257
22330.0 0.0013176
22350.0 0.0013091
22370.0 0.0013003
22390.0 0.0012909
22410.0 0.0012807
22430.0 0.0012702
22450.0 0.001259
22470.0 0.0012468
22490.0 0.0012338
22510.0 0.0012205
22530.0 0.0012059
22550.0 0.0011904
22570.0 0.0011746
22590.0 0.0011582
22610.0 0.0011408
22630.0 0.0011232
22650.0 0.0011059
22670.0 0.0010879
22690.0 0.0010698
22710.0 0.0010523
22730.0 0.0010351
22750.0 0.0010175
22770.0 0.0010009
22790.0 0.00098541
22810.0 0.0009702
22830.0 0.00095566
22850.0 0.00094241
22870.0 0.00092984
22890.0 0.00091777
22910.0 0.00090678
22930.0 0.00089673
22950.0 0.00088717
22970.0 0.00087817
22990.0 0.00087017
23010.0 0.00086256
23030.0 0.00085524
23050.0 0.00084838
23070.0 0.00084189
23090.0 0.00083531
23110.0 0.00082888
23130.0 0.00082262
23150.0 0.00081628
23170.0 0.00080974
23190.0 0.00080325
23210.0 0.00079681
23230.0 0.00079013
23250.0 0.00078344
23270.0 0.00077694
23290.0 0.00077042
23310.0 0.00076384
23330.0 0.00075765
23350.0 0.00075172
23370.0 0.0007459
23390.0 0.00074035
23410.0 0.00073522
23430.0 0.00073024
23450.0 0.00072541
23470.0 0.00072088
23490.0 0.00071654
23510.0 0.00071224
23530.0 0.00070807
23550.0 0.00070409
23570.0 0.00070012
23590.0 0.00069618
23610.0 0.00069238
23630.0 0.00068869
23650.0 0.00068503
23670.0 0.00068159
23690.0 0.00067842
23710.0 0.00067552
23730.0 0.000673
23750.0 0.00067099
23770.0 0.00066952
23790.0 0.00066874
23810.0 0.00066871
23830.0 0.00066943
23850.0 0.00067119
23870.0 0.00067404
23890.0 0.00067771
23910.0 0.0006824
23930.0 0.00068834
23950.0 0.00069514
23970.0 0.00070246
23990.0 0.00071091
24010.0 0.00072011
24030.0 0.00072946
24050.0 0.0007392
24070.0 0.00074985
24090.0 0.00076015
24110.0 0.00077019
