#lamb flux
1010.0 3.369e-08
1030.0 3.7262e-08
1050.0 4.137e-08
1070.0 4.5994e-08
1090.0 5.1246e-08
1110.0 5.6633e-08
1130.0 6.2055e-08
1150.0 6.7735e-08
1170.0 7.3594e-08
1190.0 7.9149e-08
1210.0 8.4779e-08
1230.0 9.0598e-08
1250.0 9.6298e-08
1270.0 1.0183e-07
1290.0 1.0768e-07
1310.0 1.1353e-07
1330.0 1.1913e-07
1350.0 1.248e-07
1370.0 1.3066e-07
1390.0 1.3636e-07
1410.0 1.419e-07
1430.0 1.4769e-07
1450.0 1.5348e-07
1470.0 1.5907e-07
1490.0 1.6473e-07
1510.0 1.707e-07
1530.0 1.7636e-07
1550.0 1.8195e-07
1570.0 1.8773e-07
1590.0 1.9352e-07
1610.0 1.9905e-07
1630.0 2.0475e-07
1650.0 2.1061e-07
1670.0 2.1628e-07
1690.0 2.2187e-07
1710.0 2.2769e-07
1730.0 2.3355e-07
1750.0 2.3906e-07
1770.0 2.4474e-07
1790.0 2.5054e-07
1810.0 2.5616e-07
1830.0 2.617e-07
1850.0 2.6758e-07
1870.0 2.7331e-07
1890.0 2.7887e-07
1910.0 2.8455e-07
1930.0 2.9037e-07
1950.0 2.9594e-07
1970.0 3.0146e-07
1990.0 3.072e-07
2010.0 3.1286e-07
2030.0 3.1833e-07
2050.0 3.2397e-07
2070.0 3.2978e-07
2090.0 3.3526e-07
2110.0 3.4074e-07
2130.0 3.464e-07
2150.0 3.5197e-07
2170.0 3.573e-07
2190.0 3.6284e-07
2210.0 3.6843e-07
2230.0 3.738e-07
2250.0 3.7915e-07
2270.0 3.8475e-07
2290.0 3.9019e-07
2310.0 3.9541e-07
2330.0 4.0085e-07
2350.0 4.0643e-07
2370.0 4.1199e-07
2390.0 4.1801e-07
2410.0 4.2514e-07
2430.0 4.3335e-07
2450.0 4.4315e-07
2470.0 4.5572e-07
2490.0 4.7156e-07
2510.0 4.8956e-07
2530.0 5.1123e-07
2550.0 5.3835e-07
2570.0 5.721e-07
2590.0 6.1599e-07
2610.0 6.817e-07
2630.0 7.7553e-07
2650.0 8.9821e-07
2670.0 1.0568e-06
2690.0 1.2517e-06
2710.0 1.4598e-06
2730.0 1.6654e-06
2750.0 1.8679e-06
2770.0 2.044e-06
2790.0 2.1839e-06
2810.0 2.2949e-06
2830.0 2.3816e-06
2850.0 2.4408e-06
2870.0 2.4843e-06
2890.0 2.5187e-06
2910.0 2.5461e-06
2930.0 2.5686e-06
2950.0 2.59e-06
2970.0 2.6109e-06
2990.0 2.6305e-06
3010.0 7.4354e-05
3030.0 7.491e-05
3050.0 7.5447e-05
3070.0 7.5907e-05
3090.0 7.6303e-05
3110.0 7.6548e-05
3130.0 7.6538e-05
3150.0 7.6198e-05
3170.0 7.5382e-05
3190.0 7.41e-05
3210.0 7.2475e-05
3230.0 7.0615e-05
3250.0 6.8779e-05
3270.0 6.7437e-05
3290.0 6.6692e-05
3310.0 6.6812e-05
3330.0 6.7779e-05
3350.0 6.9463e-05
3370.0 7.1867e-05
3390.0 7.4897e-05
3410.0 7.8195e-05
3430.0 8.1897e-05
3450.0 8.6158e-05
3470.0 9.0813e-05
3490.0 9.5745e-05
3510.0 0.00010132
3530.0 0.00010729
3550.0 0.00011333
3570.0 0.00011964
3590.0 0.0001265
3610.0 0.00013356
3630.0 0.00014061
3650.0 0.00014791
3670.0 0.00015459
3690.0 0.00015957
3710.0 0.00016243
3730.0 0.00016253
3750.0 0.00016026
3770.0 0.00015938
3790.0 0.00015843
3810.0 0.00015453
3830.0 0.00015932
3850.0 0.00017814
3870.0 0.00018847
3890.0 0.00018761
3910.0 0.00018841
3930.0 0.00019337
3950.0 0.00019642
3970.0 0.00017896
3990.0 0.00015398
4010.0 0.00046151
4030.0 0.00055918
4050.0 0.00064107
4070.0 0.00055623
4090.0 0.00050378
4110.0 0.00044454
4130.0 0.00040915
4150.0 0.00043521
4170.0 0.0004287
4190.0 0.00045697
4210.0 0.00045279
4230.0 0.00047893
4250.0 0.00056658
4270.0 0.00057324
4290.0 0.00052824
4310.0 0.00054888
4330.0 0.00058384
4350.0 0.00065463
4370.0 0.00074498
4390.0 0.00069908
4410.0 0.0005165
4430.0 0.00043725
4450.0 0.00040178
4470.0 0.00030838
4490.0 0.00033278
4510.0 0.00050268
4530.0 0.00057974
4550.0 0.00058477
4570.0 0.00065801
4590.0 0.00074954
4610.0 0.0010109
4630.0 0.001313
4650.0 0.0014239
4670.0 0.0013187
4690.0 0.0012583
4710.0 0.0013301
4730.0 0.0012552
4750.0 0.00093845
4770.0 0.00068838
4790.0 0.00064281
4810.0 0.00061271
4830.0 0.00056093
4850.0 0.00061552
4870.0 0.00081316
4890.0 0.00095895
4910.0 0.00084136
4930.0 0.00074448
4950.0 0.00081792
4970.0 0.0010489
4990.0 0.0014216
5010.0 0.0016353
5030.0 0.001442
5050.0 0.00097559
5070.0 0.00064295
5090.0 0.00051844
5110.0 0.00053317
5130.0 0.00061536
5150.0 0.0006667
5170.0 0.00065669
5190.0 0.00061364
5210.0 0.00064139
5230.0 0.00067424
5250.0 0.00072663
5270.0 0.00078397
5290.0 0.0008688
5310.0 0.0010112
5330.0 0.0011191
5350.0 0.0011119
5370.0 0.0011679
5390.0 0.0013402
5410.0 0.001339
5430.0 0.0011841
5450.0 0.0010879
5470.0 0.0011552
5490.0 0.0014113
5510.0 0.0017646
5530.0 0.0020239
5550.0 0.0019561
5570.0 0.0017782
5590.0 0.0015462
5610.0 0.0014259
5630.0 0.0013827
5650.0 0.0013168
5670.0 0.0012478
5690.0 0.0011155
5710.0 0.0010876
5730.0 0.0010019
5750.0 0.00070636
5770.0 0.00055108
5790.0 0.00062448
5810.0 0.00070514
5830.0 0.0008653
5850.0 0.00103
5870.0 0.0011428
5890.0 0.0011622
5910.0 0.0011402
5930.0 0.0010853
5950.0 0.0011059
5970.0 0.0012606
5990.0 0.0011853
6010.0 0.00099359
6030.0 0.00083944
6050.0 0.00073104
6070.0 0.00072705
6090.0 0.00078836
6110.0 0.00088152
6130.0 0.00089502
6150.0 0.00077009
6170.0 0.00067744
6190.0 0.00076236
6210.0 0.0010078
6230.0 0.0013226
6250.0 0.0014325
6270.0 0.0012518
6290.0 0.0010532
6310.0 0.00082222
6330.0 0.00062998
6350.0 0.00056192
6370.0 0.00059092
6390.0 0.00068314
6410.0 0.00084235
6430.0 0.00098363
6450.0 0.0011255
6470.0 0.0012887
6490.0 0.0015567
6510.0 0.0017406
6530.0 0.0017077
6550.0 0.0015442
6570.0 0.0013109
6590.0 0.001182
6610.0 0.0010192
6630.0 0.00092338
6650.0 0.00087286
6670.0 0.00084797
6690.0 0.00076618
6710.0 0.00069648
6730.0 0.00050166
6750.0 0.00049734
6770.0 0.00054058
6790.0 0.00062135
6810.0 0.00056855
6830.0 0.00058545
6850.0 0.00054758
6870.0 0.00050021
6890.0 0.00048028
6910.0 0.0005118
6930.0 0.00047938
6950.0 0.0004932
6970.0 0.00051875
6990.0 0.00058883
7010.0 0.00059384
7030.0 0.00060328
7050.0 0.00057532
7070.0 0.00054818
7090.0 0.00054978
7110.0 0.00056569
7130.0 0.00060876
7150.0 0.00064656
7170.0 0.00071343
7190.0 0.00078426
7210.0 0.00077064
7230.0 0.00079223
7250.0 0.00085138
7270.0 0.0009278
7290.0 0.0011012
7310.0 0.0011949
7330.0 0.001155
7350.0 0.0010446
7370.0 0.0009089
7390.0 0.00088175
7410.0 0.00093703
7430.0 0.0010414
7450.0 0.0011343
7470.0 0.0011238
7490.0 0.0010247
7510.0 0.0011608
7530.0 0.0011481
7550.0 0.0010319
7570.0 0.00080612
7590.0 0.00055418
7610.0 0.00047566
7630.0 0.00054044
7650.0 0.000639
7670.0 0.00079529
7690.0 0.00087516
7710.0 0.00091203
7730.0 0.00095843
7750.0 0.001076
7770.0 0.0010929
7790.0 0.0010039
7810.0 0.00091598
7830.0 0.00094459
7850.0 0.00091823
7870.0 0.00084187
7890.0 0.00070734
7910.0 0.00057497
7930.0 0.00054901
7950.0 0.00050017
7970.0 0.000463
7990.0 0.00046036
8010.0 3.4111e-05
8030.0 3.3666e-05
8050.0 3.3214e-05
8070.0 3.3652e-05
8090.0 3.6162e-05
8110.0 3.5546e-05
8130.0 2.9314e-05
8150.0 2.855e-05
8170.0 2.4586e-05
8190.0 2.3297e-05
8210.0 3.0264e-05
8230.0 3.3697e-05
8250.0 3.0361e-05
8270.0 2.6423e-05
8290.0 2.5765e-05
8310.0 1.9832e-05
8330.0 1.3366e-05
8350.0 9.4865e-06
8370.0 5.9737e-06
8390.0 1.0926e-05
8410.0 1.2731e-05
8430.0 1.5693e-05
8450.0 1.8428e-05
8470.0 2.2909e-05
8490.0 2.2745e-05
8510.0 2.2371e-05
8530.0 2.3342e-05
8550.0 3.1504e-05
8570.0 3.7303e-05
8590.0 4.0239e-05
8610.0 5.0836e-05
8630.0 6.1237e-05
8650.0 6.4046e-05
8670.0 6.8069e-05
8690.0 6.8463e-05
8710.0 6.2001e-05
8730.0 5.7676e-05
8750.0 5.0906e-05
8770.0 4.8301e-05
8790.0 4.7456e-05
8810.0 4.5477e-05
8830.0 3.6359e-05
8850.0 2.6612e-05
8870.0 2.0376e-05
8890.0 1.9928e-05
8910.0 2.2844e-05
8930.0 2.5987e-05
8950.0 2.6486e-05
8970.0 2.661e-05
8990.0 2.3729e-05
9010.0 0.00024849
9030.0 0.00022516
9050.0 0.00022624
9070.0 0.00022803
9090.0 0.0002296
9110.0 0.00023153
9130.0 0.00023303
9150.0 0.00023419
9170.0 0.00023542
9190.0 0.00023675
9210.0 0.00023814
9230.0 0.0002396
9250.0 0.0002411
9270.0 0.00024264
9290.0 0.00024424
9310.0 0.00024584
9330.0 0.00024748
9350.0 0.00024917
9370.0 0.00025089
9390.0 0.00025262
9410.0 0.00025441
9430.0 0.00025625
9450.0 0.00025808
9470.0 0.00025994
9490.0 0.00026187
9510.0 0.00026381
9530.0 0.00026577
9550.0 0.00026779
9570.0 0.00026985
9590.0 0.00027191
9610.0 0.00027401
9630.0 0.00027617
9650.0 0.00027834
9670.0 0.00028052
9690.0 0.00028275
9710.0 0.00028502
9730.0 0.0002873
9750.0 0.00028961
9770.0 0.00029199
9790.0 0.00029436
9810.0 0.00029675
9830.0 0.00029919
9850.0 0.00030165
9870.0 0.00030411
9890.0 0.00030661
9910.0 0.00030916
9930.0 0.0003117
9950.0 0.00031426
9970.0 0.00031687
9990.0 0.0003195
10010.0 0.00027724
10030.0 0.00027952
10050.0 0.00028184
10070.0 0.00028424
10090.0 0.00028651
10110.0 0.00028883
10130.0 0.00029116
10150.0 0.00029348
10170.0 0.00029583
10190.0 0.00029822
10210.0 0.00030059
10230.0 0.00030294
10250.0 0.00030534
10270.0 0.00030773
10290.0 0.00031009
10310.0 0.00031248
10330.0 0.0003149
10350.0 0.00031727
10370.0 0.00031964
10390.0 0.00032203
10410.0 0.00032442
10430.0 0.00032675
10450.0 0.00032911
10470.0 0.00033148
10490.0 0.00033381
10510.0 0.00033611
10530.0 0.00033846
10550.0 0.00034077
10570.0 0.00034303
10590.0 0.00034531
10610.0 0.00034758
10630.0 0.00034979
10650.0 0.00035199
10670.0 0.00035421
10690.0 0.00035639
10710.0 0.00035851
10730.0 0.00036065
10750.0 0.00036279
10770.0 0.00036484
10790.0 0.00036687
10810.0 0.0003689
10830.0 0.00037087
10850.0 0.00037274
10870.0 0.00037455
10890.0 0.00037614
10910.0 0.00037737
10930.0 0.00037806
10950.0 0.0003779
10970.0 0.00037662
10990.0 0.00037411
11010.0 0.00036989
11030.0 0.000364
11050.0 0.00035683
11070.0 0.00034826
11090.0 0.00033795
11110.0 0.00032729
11130.0 0.00031618
11150.0 0.00030421
11170.0 0.00029187
11190.0 0.0002799
11210.0 0.00026754
11230.0 0.00025486
11250.0 0.00024275
11270.0 0.00023112
11290.0 0.00021947
11310.0 0.00020844
11330.0 0.00019871
11350.0 0.00018953
11370.0 0.00018105
11390.0 0.0001737
11410.0 0.00016728
11430.0 0.00016131
11450.0 0.00015617
11470.0 0.00015173
11490.0 0.00014759
11510.0 0.0001436
11530.0 0.0001399
11550.0 0.00013623
11570.0 0.00013231
11590.0 0.00012825
11610.0 0.00012412
11630.0 0.00011962
11650.0 0.0001148
11670.0 0.00011006
11690.0 0.00010525
11710.0 0.00010028
11730.0 9.547e-05
11750.0 9.1018e-05
11770.0 8.6651e-05
11790.0 8.2559e-05
11810.0 7.8957e-05
11830.0 7.5735e-05
11850.0 7.2768e-05
11870.0 7.0286e-05
11890.0 6.8222e-05
11910.0 6.6409e-05
11930.0 6.4851e-05
11950.0 6.3553e-05
11970.0 6.2394e-05
11990.0 6.1298e-05
12010.0 6.0284e-05
12030.0 5.9306e-05
12050.0 5.8296e-05
12070.0 5.7246e-05
12090.0 5.6233e-05
12110.0 5.5205e-05
12130.0 5.4174e-05
12150.0 5.3224e-05
12170.0 5.2395e-05
12190.0 5.1678e-05
12210.0 5.1178e-05
12230.0 5.0936e-05
12250.0 5.0975e-05
12270.0 5.1359e-05
12290.0 5.2086e-05
12310.0 5.3128e-05
12330.0 5.4586e-05
12350.0 5.6406e-05
12370.0 5.8478e-05
12390.0 6.0867e-05
12410.0 6.3667e-05
12430.0 6.6512e-05
12450.0 6.9458e-05
12470.0 7.2591e-05
12490.0 7.5738e-05
12510.0 7.869e-05
12530.0 8.1626e-05
12550.0 8.4459e-05
12570.0 8.696e-05
12590.0 8.9156e-05
12610.0 9.1112e-05
12630.0 9.2672e-05
12650.0 9.3748e-05
12670.0 9.4456e-05
12690.0 9.4739e-05
12710.0 9.4583e-05
12730.0 9.4034e-05
12750.0 9.3056e-05
12770.0 9.1714e-05
12790.0 9.0086e-05
12810.0 8.8142e-05
12830.0 8.5893e-05
12850.0 8.3541e-05
12870.0 8.1055e-05
12890.0 7.8364e-05
12910.0 7.5628e-05
12930.0 7.2932e-05
12950.0 7.0119e-05
12970.0 6.7256e-05
12990.0 6.4547e-05
13010.0 6.1871e-05
13030.0 5.9166e-05
13050.0 5.6567e-05
13070.0 5.4134e-05
13090.0 5.1691e-05
13110.0 4.9328e-05
13130.0 4.7149e-05
13150.0 4.5085e-05
13170.0 4.3065e-05
13190.0 4.1268e-05
13210.0 3.9685e-05
13230.0 3.8239e-05
13250.0 3.6994e-05
13270.0 3.6011e-05
13290.0 3.5247e-05
13310.0 3.4721e-05
13330.0 3.4481e-05
13350.0 3.4509e-05
13370.0 3.4818e-05
13390.0 3.5427e-05
13410.0 3.6248e-05
13430.0 3.7316e-05
13450.0 3.8636e-05
13470.0 4.0101e-05
13490.0 4.1652e-05
13510.0 4.3402e-05
13530.0 4.5175e-05
13550.0 4.6873e-05
13570.0 4.8547e-05
13590.0 5.0178e-05
13610.0 5.163e-05
13630.0 5.2897e-05
13650.0 5.4054e-05
13670.0 5.5014e-05
13690.0 5.5756e-05
13710.0 5.6331e-05
13730.0 5.6741e-05
13750.0 5.6946e-05
13770.0 5.6993e-05
13790.0 5.6889e-05
13810.0 5.6638e-05
13830.0 5.6267e-05
13850.0 5.5764e-05
13870.0 5.513e-05
13890.0 5.4405e-05
13910.0 5.3588e-05
13930.0 5.2642e-05
13950.0 5.1609e-05
13970.0 5.0553e-05
13990.0 4.9403e-05
14010.0 4.818e-05
14030.0 4.696e-05
14050.0 4.5731e-05
14070.0 4.4434e-05
14090.0 4.319e-05
14110.0 4.2021e-05
14130.0 4.0889e-05
14150.0 3.9822e-05
14170.0 3.8912e-05
14190.0 3.8125e-05
14210.0 3.7458e-05
14230.0 3.6964e-05
14250.0 3.6644e-05
14270.0 3.6489e-05
14290.0 3.6522e-05
14310.0 3.6726e-05
14330.0 3.7091e-05
14350.0 3.7629e-05
14370.0 3.83e-05
14390.0 3.9061e-05
14410.0 3.9957e-05
14430.0 4.0942e-05
14450.0 4.1947e-05
14470.0 4.299e-05
14490.0 4.4099e-05
14510.0 4.516e-05
14530.0 4.6168e-05
14550.0 4.7175e-05
14570.0 4.8141e-05
14590.0 4.9021e-05
14610.0 4.9873e-05
14630.0 5.0715e-05
14650.0 5.15e-05
14670.0 5.2257e-05
14690.0 5.3047e-05
14710.0 5.3878e-05
14730.0 5.4708e-05
14750.0 5.5628e-05
14770.0 5.6672e-05
14790.0 5.7804e-05
14810.0 5.9029e-05
14830.0 6.0482e-05
14850.0 6.2061e-05
14870.0 6.3708e-05
14890.0 6.5485e-05
14910.0 6.7372e-05
14930.0 6.9187e-05
14950.0 7.0883e-05
14970.0 7.2488e-05
14990.0 7.3835e-05
15010.0 7.4864e-05
15030.0 7.5627e-05
15050.0 7.6131e-05
15070.0 7.6377e-05
15090.0 7.6464e-05
15110.0 7.6439e-05
15130.0 7.6342e-05
15150.0 7.6213e-05
15170.0 7.6061e-05
15190.0 7.5897e-05
15210.0 7.5736e-05
15230.0 7.5575e-05
15250.0 7.5408e-05
15270.0 7.5243e-05
15290.0 7.5087e-05
15310.0 7.4926e-05
15330.0 7.4764e-05
15350.0 7.4608e-05
15370.0 7.4454e-05
15390.0 7.4291e-05
15410.0 7.4134e-05
15430.0 7.3982e-05
15450.0 7.3826e-05
15470.0 7.3668e-05
15490.0 7.3518e-05
15510.0 7.3368e-05
15530.0 7.3213e-05
15550.0 7.3062e-05
15570.0 7.2915e-05
15590.0 7.2762e-05
15610.0 7.2608e-05
15630.0 7.2462e-05
15650.0 7.2315e-05
15670.0 7.2164e-05
15690.0 7.2016e-05
15710.0 7.1874e-05
15730.0 7.1725e-05
15750.0 7.1576e-05
15770.0 7.1433e-05
15790.0 7.1289e-05
15810.0 7.1138e-05
15830.0 7.0993e-05
15850.0 7.0853e-05
15870.0 7.0707e-05
15890.0 7.0561e-05
15910.0 7.0421e-05
15930.0 7.0279e-05
15950.0 7.013e-05
15970.0 6.9988e-05
15990.0 6.9848e-05
16010.0 6.9703e-05
16030.0 6.9556e-05
16050.0 6.9419e-05
16070.0 6.9277e-05
16090.0 6.9132e-05
16110.0 6.8991e-05
16130.0 6.8854e-05
16150.0 6.8706e-05
16170.0 6.8562e-05
16190.0 6.8423e-05
16210.0 6.8281e-05
16230.0 6.8135e-05
16250.0 6.7995e-05
16270.0 6.7857e-05
16290.0 6.7712e-05
16310.0 6.7569e-05
16330.0 6.743e-05
16350.0 6.7288e-05
16370.0 6.7138e-05
16390.0 6.6998e-05
16410.0 6.6859e-05
16430.0 6.6713e-05
16450.0 6.6569e-05
16470.0 6.6431e-05
16490.0 6.6286e-05
16510.0 6.6139e-05
16530.0 6.5997e-05
16550.0 6.5856e-05
16570.0 6.5707e-05
16590.0 6.556e-05
16610.0 6.5421e-05
16630.0 6.5275e-05
16650.0 6.5128e-05
16670.0 6.4985e-05
16690.0 6.4843e-05
16710.0 6.469e-05
16730.0 6.4544e-05
16750.0 6.4401e-05
16770.0 6.4253e-05
16790.0 6.4101e-05
16810.0 6.3957e-05
16830.0 6.3812e-05
16850.0 6.3661e-05
16870.0 6.3512e-05
16890.0 6.3368e-05
16910.0 6.3216e-05
16930.0 6.3061e-05
16950.0 6.2915e-05
16970.0 6.2766e-05
16990.0 6.2612e-05
17010.0 6.2462e-05
17030.0 6.2315e-05
17050.0 6.2161e-05
17070.0 6.2006e-05
17090.0 6.1857e-05
17110.0 6.1705e-05
17130.0 6.1545e-05
17150.0 6.1393e-05
17170.0 6.1243e-05
17190.0 6.1086e-05
17210.0 6.093e-05
17230.0 6.0779e-05
17250.0 6.0624e-05
17270.0 6.0463e-05
17290.0 6.0307e-05
17310.0 6.0153e-05
17330.0 5.9993e-05
17350.0 5.9832e-05
17370.0 5.9679e-05
17390.0 5.9521e-05
17410.0 5.9359e-05
17430.0 5.9202e-05
17450.0 5.9047e-05
17470.0 5.8881e-05
17490.0 5.8718e-05
17510.0 5.8561e-05
17530.0 5.84e-05
17550.0 5.8234e-05
17570.0 5.8075e-05
17590.0 5.7916e-05
17610.0 5.775e-05
17630.0 5.7586e-05
17650.0 5.7426e-05
17670.0 5.7262e-05
17690.0 5.709e-05
17710.0 5.6929e-05
17730.0 5.6767e-05
17750.0 5.6599e-05
17770.0 5.6433e-05
17790.0 5.6272e-05
17810.0 5.6104e-05
17830.0 5.5933e-05
17850.0 5.5769e-05
17870.0 5.5603e-05
17890.0 5.5431e-05
17910.0 5.5261e-05
17930.0 5.5098e-05
17950.0 5.4929e-05
17970.0 5.4757e-05
17990.0 5.4591e-05
18010.0 5.4424e-05
18030.0 5.4248e-05
18050.0 5.4078e-05
18070.0 5.3911e-05
18090.0 5.3738e-05
18110.0 5.3563e-05
18130.0 5.3396e-05
18150.0 5.3227e-05
18170.0 5.3051e-05
18190.0 5.288e-05
18210.0 5.2712e-05
18230.0 5.2536e-05
18250.0 5.2358e-05
18270.0 5.2189e-05
18290.0 5.2017e-05
18310.0 5.184e-05
18330.0 5.1667e-05
18350.0 5.1499e-05
18370.0 5.1321e-05
18390.0 5.1144e-05
18410.0 5.0973e-05
18430.0 5.0799e-05
18450.0 5.0618e-05
18470.0 5.0444e-05
18490.0 5.0273e-05
18510.0 5.0096e-05
18530.0 4.9918e-05
18550.0 4.9748e-05
18570.0 4.9571e-05
18590.0 4.939e-05
18610.0 4.9215e-05
18630.0 4.9042e-05
18650.0 4.8862e-05
18670.0 4.8682e-05
18690.0 4.8511e-05
18710.0 4.8335e-05
18730.0 4.8155e-05
18750.0 4.798e-05
18770.0 4.7807e-05
18790.0 4.7623e-05
18810.0 4.7444e-05
18830.0 4.7271e-05
18850.0 4.7093e-05
18870.0 4.6912e-05
18890.0 4.6737e-05
18910.0 4.6563e-05
18930.0 4.6381e-05
18950.0 4.6203e-05
18970.0 4.6029e-05
18990.0 4.585e-05
19010.0 4.5665e-05
19030.0 4.5491e-05
19050.0 4.5316e-05
19070.0 4.5135e-05
19090.0 4.4957e-05
19110.0 4.4784e-05
19130.0 4.4603e-05
19150.0 4.4422e-05
19170.0 4.4246e-05
19190.0 4.407e-05
19210.0 4.3887e-05
19230.0 4.3708e-05
19250.0 4.3535e-05
19270.0 4.3356e-05
19290.0 4.3176e-05
19310.0 4.3001e-05
19330.0 4.2826e-05
19350.0 4.2641e-05
19370.0 4.2464e-05
19390.0 4.2289e-05
19410.0 4.211e-05
19430.0 4.1928e-05
19450.0 4.1755e-05
19470.0 4.1579e-05
19490.0 4.1398e-05
19510.0 4.1221e-05
19530.0 4.1048e-05
19550.0 4.0867e-05
19570.0 4.0685e-05
19590.0 4.0512e-05
19610.0 4.0336e-05
19630.0 4.0155e-05
19650.0 3.998e-05
19670.0 3.9807e-05
19690.0 3.9627e-05
19710.0 3.9448e-05
19730.0 3.9274e-05
19750.0 3.9098e-05
19770.0 3.8916e-05
19790.0 3.8741e-05
19810.0 3.8568e-05
19830.0 3.8388e-05
19850.0 3.8208e-05
19870.0 3.8031e-05
19890.0 3.7841e-05
19910.0 3.7633e-05
19930.0 3.7409e-05
19950.0 3.7154e-05
19970.0 3.684e-05
19990.0 3.6461e-05
20010.0 3.2439e-05
20030.0 3.197e-05
20050.0 3.142e-05
20070.0 3.0825e-05
20090.0 3.0184e-05
20110.0 2.946e-05
20130.0 2.8727e-05
20150.0 2.8e-05
20170.0 2.7246e-05
20190.0 2.6482e-05
20210.0 2.576e-05
20230.0 2.5056e-05
20250.0 2.435e-05
20270.0 2.3695e-05
20290.0 2.3097e-05
20310.0 2.2529e-05
20330.0 2.1998e-05
20350.0 2.1557e-05
20370.0 2.1166e-05
20390.0 2.0823e-05
20410.0 2.0546e-05
20430.0 2.0332e-05
20450.0 2.0163e-05
20470.0 2.005e-05
20490.0 1.9989e-05
20510.0 1.9971e-05
20530.0 1.9996e-05
20550.0 2.0058e-05
20570.0 2.0148e-05
20590.0 2.0269e-05
20610.0 2.0416e-05
20630.0 2.0579e-05
20650.0 2.076e-05
20670.0 2.0967e-05
20690.0 2.1179e-05
20710.0 2.1397e-05
20730.0 2.1633e-05
20750.0 2.1879e-05
20770.0 2.2122e-05
20790.0 2.2376e-05
20810.0 2.2645e-05
20830.0 2.2912e-05
20850.0 2.3181e-05
20870.0 2.3469e-05
20890.0 2.3762e-05
20910.0 2.4046e-05
20930.0 2.4339e-05
20950.0 2.4644e-05
20970.0 2.494e-05
20990.0 2.5233e-05
21010.0 2.5541e-05
21030.0 2.5842e-05
21050.0 2.6129e-05
21070.0 2.6416e-05
21090.0 2.6704e-05
21110.0 2.6966e-05
21130.0 2.7212e-05
21150.0 2.7451e-05
21170.0 2.7667e-05
21190.0 2.7853e-05
21210.0 2.8021e-05
21230.0 2.816e-05
21250.0 2.8259e-05
21270.0 2.8322e-05
21290.0 2.8345e-05
21310.0 2.8323e-05
21330.0 2.8256e-05
21350.0 2.8139e-05
21370.0 2.7966e-05
21390.0 2.7747e-05
21410.0 2.7479e-05
21430.0 2.714e-05
21450.0 2.6758e-05
21470.0 2.6343e-05
21490.0 2.5874e-05
21510.0 2.5359e-05
21530.0 2.4835e-05
21550.0 2.4287e-05
21570.0 2.3702e-05
21590.0 2.3127e-05
21610.0 2.2572e-05
21630.0 2.2015e-05
21650.0 2.1472e-05
21670.0 2.1001e-05
21690.0 2.0567e-05
21710.0 2.0175e-05
21730.0 1.9855e-05
21750.0 1.9608e-05
21770.0 1.9419e-05
21790.0 1.9311e-05
21810.0 1.9281e-05
21830.0 1.9324e-05
21850.0 1.9444e-05
21870.0 1.9633e-05
21890.0 1.9876e-05
21910.0 2.0188e-05
21930.0 2.0554e-05
21950.0 2.0951e-05
21970.0 2.139e-05
21990.0 2.1883e-05
22010.0 2.2376e-05
22030.0 2.2877e-05
22050.0 2.3402e-05
22070.0 2.3931e-05
22090.0 2.4431e-05
22110.0 2.4936e-05
22130.0 2.5439e-05
22150.0 2.591e-05
22170.0 2.6353e-05
22190.0 2.6793e-05
22210.0 2.7202e-05
22230.0 2.7562e-05
22250.0 2.7901e-05
22270.0 2.8213e-05
22290.0 2.848e-05
22310.0 2.8708e-05
22330.0 2.891e-05
22350.0 2.9066e-05
22370.0 2.9176e-05
22390.0 2.9245e-05
22410.0 2.9266e-05
22430.0 2.9238e-05
22450.0 2.9163e-05
22470.0 2.9033e-05
22490.0 2.885e-05
22510.0 2.8622e-05
22530.0 2.8331e-05
22550.0 2.7976e-05
22570.0 2.7583e-05
22590.0 2.7139e-05
22610.0 2.6629e-05
22630.0 2.6076e-05
22650.0 2.5505e-05
22670.0 2.4874e-05
22690.0 2.42e-05
