#lamb flux
1010.0 1.1843e-06
1030.0 1.3288e-06
1050.0 1.4949e-06
1070.0 1.682e-06
1090.0 1.8945e-06
1110.0 2.1124e-06
1130.0 2.3317e-06
1150.0 2.5615e-06
1170.0 2.7985e-06
1190.0 3.0232e-06
1210.0 3.251e-06
1230.0 3.4863e-06
1250.0 3.7169e-06
1270.0 3.9408e-06
1290.0 4.1775e-06
1310.0 4.4139e-06
1330.0 4.6406e-06
1350.0 4.8699e-06
1370.0 5.1066e-06
1390.0 5.3374e-06
1410.0 5.5613e-06
1430.0 5.7954e-06
1450.0 6.0294e-06
1470.0 6.2555e-06
1490.0 6.484e-06
1510.0 6.7254e-06
1530.0 6.954e-06
1550.0 7.1794e-06
1570.0 7.4125e-06
1590.0 7.6458e-06
1610.0 7.8685e-06
1630.0 8.098e-06
1650.0 8.3333e-06
1670.0 8.5606e-06
1690.0 8.7848e-06
1710.0 9.0173e-06
1730.0 9.2507e-06
1750.0 9.4697e-06
1770.0 9.6946e-06
1790.0 9.9235e-06
1810.0 1.0144e-05
1830.0 1.036e-05
1850.0 1.0589e-05
1870.0 1.081e-05
1890.0 1.1022e-05
1910.0 1.1237e-05
1930.0 1.1456e-05
1950.0 1.1663e-05
1970.0 1.1865e-05
1990.0 1.2072e-05
2010.0 1.2273e-05
2030.0 1.2464e-05
2050.0 1.2657e-05
2070.0 1.2852e-05
2090.0 1.303e-05
2110.0 1.3203e-05
2130.0 1.3378e-05
2150.0 1.3543e-05
2170.0 1.3694e-05
2190.0 1.3846e-05
2210.0 1.3993e-05
2230.0 1.4125e-05
2250.0 1.4248e-05
2270.0 1.4373e-05
2290.0 1.4483e-05
2310.0 1.4577e-05
2330.0 1.4668e-05
2350.0 1.4754e-05
2370.0 1.4824e-05
2390.0 1.4893e-05
2410.0 1.4972e-05
2430.0 1.5053e-05
2450.0 1.5144e-05
2470.0 1.5268e-05
2490.0 1.5433e-05
2510.0 1.5624e-05
2530.0 1.589e-05
2550.0 1.6298e-05
2570.0 1.6908e-05
2590.0 1.7815e-05
2610.0 1.9307e-05
2630.0 2.1474e-05
2650.0 2.423e-05
2670.0 2.7643e-05
2690.0 3.1602e-05
2710.0 3.5523e-05
2730.0 3.9085e-05
2750.0 4.2302e-05
2770.0 4.4784e-05
2790.0 4.6448e-05
2810.0 4.7513e-05
2830.0 4.8122e-05
2850.0 4.8271e-05
2870.0 4.8179e-05
2890.0 4.7966e-05
2910.0 4.7664e-05
2930.0 4.7298e-05
2950.0 4.6935e-05
2970.0 4.658e-05
2990.0 4.6216e-05
3010.0 0.0011975
3030.0 0.0011885
3050.0 0.0011796
3070.0 0.0011699
3090.0 0.0011599
3110.0 0.0011484
3130.0 0.0011339
3150.0 0.0011157
3170.0 0.0010921
3190.0 0.0010638
3210.0 0.0010327
3230.0 0.0010006
3250.0 0.00097084
3270.0 0.00094955
3290.0 0.00093747
3310.0 0.00093852
3330.0 0.00095144
3350.0 0.00097443
3370.0 0.0010078
3390.0 0.0010504
3410.0 0.0010971
3430.0 0.0011502
3450.0 0.0012116
3470.0 0.0012789
3490.0 0.0013504
3510.0 0.0014312
3530.0 0.0015183
3550.0 0.0016086
3570.0 0.0017059
3590.0 0.0018153
3610.0 0.0019334
3630.0 0.0020558
3650.0 0.0021852
3670.0 0.0023053
3690.0 0.0023977
3710.0 0.0024502
3730.0 0.0024427
3750.0 0.0023733
3770.0 0.0022739
3790.0 0.0021092
3810.0 0.0018107
3830.0 0.0016243
3850.0 0.0015998
3870.0 0.0012147
3890.0 0.0014171
3910.0 0.0020966
3930.0 0.0026212
3950.0 0.0026904
3970.0 0.0029583
3990.0 0.0030141
4010.0 0.0041749
4030.0 0.0040185
4050.0 0.0035586
4070.0 0.0035187
4090.0 0.0033635
4110.0 0.0038203
4130.0 0.0042894
4150.0 0.0047384
4170.0 0.0043487
4190.0 0.004189
4210.0 0.0043253
4230.0 0.0050617
4250.0 0.0056744
4270.0 0.0059274
4290.0 0.0057555
4310.0 0.0056248
4330.0 0.0060031
4350.0 0.0072487
4370.0 0.0084312
4390.0 0.0074671
4410.0 0.0054411
4430.0 0.004379
4450.0 0.003822
4470.0 0.0034619
4490.0 0.0042008
4510.0 0.0056564
4530.0 0.0065031
4550.0 0.0070584
4570.0 0.0076175
4590.0 0.0089022
4610.0 0.013143
4630.0 0.016899
4650.0 0.01671
4670.0 0.01547
4690.0 0.016448
4710.0 0.017492
4730.0 0.014508
4750.0 0.0098448
4770.0 0.007674
4790.0 0.0078231
4810.0 0.0075313
4830.0 0.007208
4850.0 0.0081038
4870.0 0.01063
4890.0 0.01238
4910.0 0.010067
4930.0 0.009086
4950.0 0.010242
4970.0 0.013827
4990.0 0.018324
5010.0 0.020178
5030.0 0.016381
5050.0 0.010146
5070.0 0.0070392
5090.0 0.0059922
5110.0 0.0060689
5130.0 0.0067235
5150.0 0.0068506
5170.0 0.0067278
5190.0 0.0064279
5210.0 0.0064122
5230.0 0.0070166
5250.0 0.0077416
5270.0 0.0082253
5290.0 0.0093431
5310.0 0.011033
5330.0 0.011392
5350.0 0.011324
5370.0 0.012496
5390.0 0.014334
5410.0 0.013282
5430.0 0.010866
5450.0 0.010238
5470.0 0.011631
5490.0 0.014904
5510.0 0.018922
5530.0 0.02143
5550.0 0.020154
5570.0 0.01808
5590.0 0.015611
5610.0 0.014905
5630.0 0.015004
5650.0 0.014846
5670.0 0.014204
5690.0 0.01251
5710.0 0.012193
5730.0 0.011435
5750.0 0.0072567
5770.0 0.0059872
5790.0 0.006961
5810.0 0.0082035
5830.0 0.01027
5850.0 0.012006
5870.0 0.012508
5890.0 0.011991
5910.0 0.011501
5930.0 0.011397
5950.0 0.011886
5970.0 0.013485
5990.0 0.012141
6010.0 0.0098656
6030.0 0.0081245
6050.0 0.0070778
6070.0 0.0074985
6090.0 0.008527
6110.0 0.0091777
6130.0 0.0086606
6150.0 0.0075276
6170.0 0.00753
6190.0 0.0091966
6210.0 0.012116
6230.0 0.015177
6250.0 0.015541
6270.0 0.013157
6290.0 0.010994
6310.0 0.0086072
6330.0 0.0066361
6350.0 0.006093
6370.0 0.0064925
6390.0 0.0077841
6410.0 0.0093365
6430.0 0.010987
6450.0 0.01307
6470.0 0.015161
6490.0 0.018621
6510.0 0.020813
6530.0 0.019826
6550.0 0.018163
6570.0 0.01664
6590.0 0.016068
6610.0 0.013905
6630.0 0.013106
6650.0 0.012177
6670.0 0.012024
6690.0 0.011143
6710.0 0.010151
6730.0 0.007927
6750.0 0.007631
6770.0 0.0083573
6790.0 0.009945
6810.0 0.0090564
6830.0 0.009307
6850.0 0.0087588
6870.0 0.008357
6890.0 0.0078886
6910.0 0.0080407
6930.0 0.0075096
6950.0 0.0080595
6970.0 0.0081396
6990.0 0.0090851
7010.0 0.0095101
7030.0 0.0092483
7050.0 0.0084724
7070.0 0.0079856
7090.0 0.0076827
7110.0 0.007422
7130.0 0.0078579
7150.0 0.0085522
7170.0 0.0092635
7190.0 0.009467
7210.0 0.008929
7230.0 0.0091352
7250.0 0.01027
7270.0 0.011798
7290.0 0.01333
7310.0 0.013295
7330.0 0.011914
7350.0 0.010628
7370.0 0.0093141
7390.0 0.0095136
7410.0 0.010561
7430.0 0.011667
7450.0 0.0126
7470.0 0.013084
7490.0 0.013597
7510.0 0.015951
7530.0 0.014661
7550.0 0.012596
7570.0 0.0094515
7590.0 0.0062283
7610.0 0.0053371
7630.0 0.0060784
7650.0 0.0072223
7670.0 0.0090153
7690.0 0.010224
7710.0 0.01046
7730.0 0.010611
7750.0 0.011679
7770.0 0.011699
7790.0 0.011113
7810.0 0.010578
7830.0 0.010582
7850.0 0.010073
7870.0 0.0093283
7890.0 0.0080737
7910.0 0.0064872
7930.0 0.0058551
7950.0 0.0052829
7970.0 0.0049822
7990.0 0.0049821
8010.0 0.0051646
8030.0 0.0051143
8050.0 0.0052117
8070.0 0.0052136
8090.0 0.0054869
8110.0 0.0051603
8130.0 0.0042642
8150.0 0.0040321
8170.0 0.0035149
8190.0 0.0033529
8210.0 0.00388
8230.0 0.0042257
8250.0 0.0036053
8270.0 0.0031902
8290.0 0.0028303
8310.0 0.0020059
8330.0 0.0012877
8350.0 0.0009581
8370.0 0.00088052
8390.0 0.0011617
8410.0 0.0014597
8430.0 0.0017952
8450.0 0.001992
8470.0 0.0023594
8490.0 0.0022383
8510.0 0.0021655
8530.0 0.0020982
8550.0 0.0028523
8570.0 0.0036778
8590.0 0.0038709
8610.0 0.0048312
8630.0 0.0055419
8650.0 0.0053802
8670.0 0.0056833
8690.0 0.0060402
8710.0 0.0055814
8730.0 0.0054633
8750.0 0.0049114
8770.0 0.004665
8790.0 0.0047228
8810.0 0.0046028
8830.0 0.0036262
8850.0 0.0028156
8870.0 0.0023117
8890.0 0.0024858
8910.0 0.0028739
8930.0 0.0032001
8950.0 0.0036243
8970.0 0.0036455
8990.0 0.0034096
9010.0 0.0030436
9030.0 0.0029298
9050.0 0.002973
9070.0 0.0030095
9090.0 0.0030373
9110.0 0.0030654
9130.0 0.0030879
9150.0 0.0031069
9170.0 0.003127
9190.0 0.0031485
9210.0 0.0031711
9230.0 0.003195
9250.0 0.0032199
9270.0 0.0032457
9290.0 0.0032725
9310.0 0.0033002
9330.0 0.0033287
9350.0 0.0033581
9370.0 0.0033883
9390.0 0.0034194
9410.0 0.0034513
9430.0 0.003484
9450.0 0.0035176
9470.0 0.003552
9490.0 0.0035872
9510.0 0.0036232
9530.0 0.0036601
9550.0 0.0036976
9570.0 0.0037359
9590.0 0.003775
9610.0 0.0038149
9630.0 0.0038554
9650.0 0.0038966
9670.0 0.0039386
9690.0 0.0039813
9710.0 0.0040245
9730.0 0.0040685
9750.0 0.0041131
9770.0 0.0041582
9790.0 0.0042039
9810.0 0.0042502
9830.0 0.0042971
9850.0 0.0043444
9870.0 0.0043922
9890.0 0.0044405
9910.0 0.0044891
9930.0 0.0045382
9950.0 0.0045878
9970.0 0.0046375
9990.0 0.0046876
10010.0 0.0044564
10030.0 0.0045028
10050.0 0.0045494
10070.0 0.0045958
10090.0 0.0046429
10110.0 0.0046899
10130.0 0.004737
10150.0 0.0047842
10170.0 0.0048312
10190.0 0.0048781
10210.0 0.004925
10230.0 0.0049718
10250.0 0.0050183
10270.0 0.0050646
10290.0 0.0051108
10310.0 0.0051566
10330.0 0.0052019
10350.0 0.0052471
10370.0 0.0052919
10390.0 0.005336
10410.0 0.0053797
10430.0 0.0054231
10450.0 0.0054658
10470.0 0.0055078
10490.0 0.0055493
10510.0 0.0055902
10530.0 0.0056301
10550.0 0.0056693
10570.0 0.005708
10590.0 0.0057457
10610.0 0.0057825
10630.0 0.0058185
10650.0 0.0058537
10670.0 0.0058877
10690.0 0.0059208
10710.0 0.005953
10730.0 0.0059841
10750.0 0.0060139
10770.0 0.006043
10790.0 0.0060709
10810.0 0.0060973
10830.0 0.0061225
10850.0 0.0061463
10870.0 0.0061672
10890.0 0.0061844
10910.0 0.0061964
10930.0 0.0061998
10950.0 0.0061896
10970.0 0.006163
10990.0 0.0061185
11010.0 0.0060225
11030.0 0.0059288
11050.0 0.0058161
11070.0 0.0056814
11090.0 0.0055188
11110.0 0.0053506
11130.0 0.0051747
11150.0 0.0049851
11170.0 0.0047901
11190.0 0.0046021
11210.0 0.0044097
11230.0 0.0042146
11250.0 0.004031
11270.0 0.0038574
11290.0 0.0036863
11310.0 0.0035271
11330.0 0.0033891
11350.0 0.0032604
11370.0 0.0031426
11390.0 0.0030411
11410.0 0.0029519
11430.0 0.0028679
11450.0 0.0027935
11470.0 0.0027266
11490.0 0.0026613
11510.0 0.002595
11530.0 0.0025305
11550.0 0.0024642
11570.0 0.0023919
11590.0 0.0023163
11610.0 0.0022393
11630.0 0.0021561
11650.0 0.0020682
11670.0 0.0019826
11690.0 0.0018971
11710.0 0.0018103
11730.0 0.0017274
11750.0 0.0016514
11770.0 0.0015778
11790.0 0.0015095
11810.0 0.0014495
11830.0 0.0013959
11850.0 0.0013464
11870.0 0.0013043
11890.0 0.0012684
11910.0 0.0012357
11930.0 0.0012062
11950.0 0.00118
11970.0 0.001155
11990.0 0.0011297
12010.0 0.0011049
12030.0 0.00108
12050.0 0.0010536
12070.0 0.0010257
12090.0 0.00099859
12110.0 0.00097083
12130.0 0.00094269
12150.0 0.00091603
12170.0 0.00089166
12190.0 0.00086867
12210.0 0.00084934
12230.0 0.00083452
12250.0 0.00082407
12270.0 0.00081871
12290.0 0.00081878
12310.0 0.00082379
12330.0 0.0008345
12350.0 0.00085033
12370.0 0.00086984
12390.0 0.00089347
12410.0 0.00092211
12430.0 0.00095135
12450.0 0.0009816
12470.0 0.0010137
12490.0 0.0010454
12510.0 0.0010744
12530.0 0.0011026
12550.0 0.0011289
12570.0 0.0011509
12590.0 0.001169
12610.0 0.0011839
12630.0 0.0011942
12650.0 0.0011993
12670.0 0.0012004
12690.0 0.0011972
12710.0 0.0011897
12730.0 0.0011786
12750.0 0.0011636
12770.0 0.0011455
12790.0 0.0011252
12810.0 0.0011022
12830.0 0.0010767
12850.0 0.0010504
12870.0 0.0010231
12890.0 0.00099395
12910.0 0.00096429
12930.0 0.00093483
12950.0 0.00090399
12970.0 0.00087226
12990.0 0.00084163
13010.0 0.00081089
13030.0 0.00077935
13050.0 0.00074845
13070.0 0.00071895
13090.0 0.00068898
13110.0 0.0006596
13130.0 0.00063214
13150.0 0.00060591
13170.0 0.00058018
13190.0 0.00055715
13210.0 0.0005368
13230.0 0.00051827
13250.0 0.00050234
13270.0 0.0004897
13290.0 0.00047981
13310.0 0.00047283
13330.0 0.00046918
13350.0 0.00046852
13370.0 0.00047091
13390.0 0.00047636
13410.0 0.00048383
13430.0 0.00049359
13450.0 0.0005056
13470.0 0.00051872
13490.0 0.00053238
13510.0 0.00054765
13530.0 0.00056286
13550.0 0.00057714
13570.0 0.00059103
13590.0 0.00060438
13610.0 0.00061599
13630.0 0.00062585
13650.0 0.00063464
13670.0 0.00064161
13690.0 0.00064658
13710.0 0.00064997
13730.0 0.00065182
13750.0 0.0006518
13770.0 0.00065034
13790.0 0.0006475
13810.0 0.00064335
13830.0 0.00063821
13850.0 0.00063194
13870.0 0.0006246
13890.0 0.00061663
13910.0 0.000608
13930.0 0.00059843
13950.0 0.00058832
13970.0 0.00057823
13990.0 0.00056756
14010.0 0.0005565
14030.0 0.0005457
14050.0 0.00053503
14070.0 0.00052402
14090.0 0.00051367
14110.0 0.00050411
14130.0 0.00049502
14150.0 0.00048664
14170.0 0.00047961
14190.0 0.00047367
14210.0 0.00046879
14230.0 0.00046533
14250.0 0.00046327
14270.0 0.00046257
14290.0 0.00046336
14310.0 0.00046545
14330.0 0.0004688
14350.0 0.00047352
14370.0 0.00047925
14390.0 0.00048567
14410.0 0.00049321
14430.0 0.00050151
14450.0 0.00051005
14470.0 0.00051905
14490.0 0.00052886
14510.0 0.00053858
14530.0 0.00054823
14550.0 0.00055845
14570.0 0.000569
14590.0 0.00057942
14610.0 0.00059045
14630.0 0.00060246
14650.0 0.00061478
14670.0 0.00062766
14690.0 0.00064192
14710.0 0.0006575
14730.0 0.00067326
14750.0 0.00069049
14770.0 0.00070936
14790.0 0.00072884
14810.0 0.00074878
14830.0 0.00077084
14850.0 0.00079317
14870.0 0.00081494
14890.0 0.00083695
14910.0 0.00085889
14930.0 0.00087884
14950.0 0.00089663
14970.0 0.00091275
14990.0 0.00092575
15010.0 0.00093539
15030.0 0.0009423
15050.0 0.00094667
15070.0 0.00094871
15090.0 0.00094932
15110.0 0.00094892
15130.0 0.0009479
15150.0 0.00094666
15170.0 0.00094519
15190.0 0.00094362
15210.0 0.00094211
15230.0 0.00094062
15250.0 0.00093905
15270.0 0.00093751
15290.0 0.0009361
15310.0 0.00093463
15330.0 0.00093314
15350.0 0.00093174
15370.0 0.00093035
15390.0 0.00092885
15410.0 0.00092742
15430.0 0.00092607
15450.0 0.00092466
15470.0 0.0009232
15490.0 0.00092187
15510.0 0.00092053
15530.0 0.00091911
15550.0 0.00091773
15570.0 0.00091643
15590.0 0.00091502
15610.0 0.00091357
15630.0 0.00091225
15650.0 0.00091091
15670.0 0.00090948
15690.0 0.00090811
15710.0 0.0009068
15730.0 0.00090538
15750.0 0.00090395
15770.0 0.0009026
15790.0 0.00090122
15810.0 0.00089972
15830.0 0.00089831
15850.0 0.00089694
15870.0 0.00089548
15890.0 0.00089401
15910.0 0.00089262
15930.0 0.00089116
15950.0 0.00088961
15970.0 0.00088813
15990.0 0.00088667
16010.0 0.00088511
16030.0 0.00088351
16050.0 0.00088205
16070.0 0.0008805
16090.0 0.00087888
16110.0 0.0008773
16130.0 0.00087577
16150.0 0.00087405
16170.0 0.00087237
16190.0 0.00087077
16210.0 0.00086909
16230.0 0.00086733
16250.0 0.00086564
16270.0 0.00086397
16290.0 0.00086216
16310.0 0.00086036
16330.0 0.00085862
16350.0 0.00085681
16370.0 0.00085485
16390.0 0.00085304
16410.0 0.0008512
16430.0 0.00084925
16450.0 0.00084731
16470.0 0.00084545
16490.0 0.00084346
16510.0 0.0008414
16530.0 0.00083942
16550.0 0.00083742
16570.0 0.00083529
16590.0 0.00083316
16610.0 0.00083114
16630.0 0.000829
16650.0 0.0008268
16670.0 0.00082467
16690.0 0.00082252
16710.0 0.0008202
16730.0 0.00081794
16750.0 0.00081572
16770.0 0.0008134
16790.0 0.00081102
16810.0 0.00080874
16830.0 0.00080641
16850.0 0.00080396
16870.0 0.00080155
16890.0 0.00079918
16910.0 0.00079667
16930.0 0.00079411
16950.0 0.00079166
16970.0 0.00078915
16990.0 0.00078654
17010.0 0.00078398
17030.0 0.00078146
17050.0 0.00077879
17070.0 0.00077611
17090.0 0.00077349
17110.0 0.00077083
17130.0 0.00076802
17150.0 0.0007653
17170.0 0.00076261
17190.0 0.00075981
17210.0 0.00075699
17230.0 0.00075425
17250.0 0.00075142
17270.0 0.00074848
17290.0 0.00074562
17310.0 0.00074278
17330.0 0.00073982
17350.0 0.00073683
17370.0 0.00073396
17390.0 0.000731
17410.0 0.00072796
17430.0 0.00072499
17450.0 0.00072203
17470.0 0.0007189
17490.0 0.00071581
17510.0 0.0007128
17530.0 0.00070971
17550.0 0.00070654
17570.0 0.00070346
17590.0 0.00070038
17610.0 0.00069718
17630.0 0.000694
17650.0 0.00069088
17670.0 0.00068768
17690.0 0.00068436
17710.0 0.0006812
17730.0 0.00067801
17750.0 0.00067473
17770.0 0.00067146
17790.0 0.00066828
17810.0 0.00066497
17830.0 0.00066162
17850.0 0.00065836
17870.0 0.00065508
17890.0 0.0006517
17910.0 0.00064834
17930.0 0.00064509
17950.0 0.00064173
17970.0 0.00063834
17990.0 0.00063503
18010.0 0.0006317
18030.0 0.00062823
18050.0 0.00062485
18070.0 0.00062152
18090.0 0.0006181
18110.0 0.00061464
18130.0 0.0006113
18150.0 0.00060793
18170.0 0.00060446
18190.0 0.00060105
18210.0 0.00059769
18230.0 0.00059422
18250.0 0.00059072
18270.0 0.00058735
18290.0 0.00058394
18310.0 0.00058046
18330.0 0.00057704
18350.0 0.00057368
18370.0 0.00057019
18390.0 0.00056672
18410.0 0.00056333
18430.0 0.00055991
18450.0 0.00055638
18470.0 0.00055296
18490.0 0.00054959
18510.0 0.00054612
18530.0 0.00054267
18550.0 0.00053931
18570.0 0.00053588
18590.0 0.00053238
18610.0 0.00052898
18630.0 0.0005256
18650.0 0.00052214
18670.0 0.00051868
18690.0 0.00051535
18710.0 0.00051195
18730.0 0.00050851
18750.0 0.00050515
18770.0 0.00050182
18790.0 0.00049834
18810.0 0.00049494
18830.0 0.00049163
18850.0 0.00048826
18870.0 0.00048484
18890.0 0.00048153
18910.0 0.00047823
18930.0 0.00047484
18950.0 0.0004715
18970.0 0.00046823
18990.0 0.0004649
19010.0 0.00046149
19030.0 0.00045824
19050.0 0.00045498
19070.0 0.00045166
19090.0 0.00044838
19110.0 0.00044519
19130.0 0.00044189
19150.0 0.00043859
19170.0 0.00043538
19190.0 0.00043217
19210.0 0.00042889
19230.0 0.00042566
19250.0 0.00042253
19270.0 0.00041932
19290.0 0.0004161
19310.0 0.00041297
19330.0 0.00040984
19350.0 0.0004066
19370.0 0.00040346
19390.0 0.00040038
19410.0 0.00039723
19430.0 0.00039407
19450.0 0.00039103
19470.0 0.00038797
19490.0 0.00038484
19510.0 0.00038178
19530.0 0.00037878
19550.0 0.00037569
19570.0 0.0003726
19590.0 0.00036963
19610.0 0.00036663
19630.0 0.00036359
19650.0 0.00036062
19670.0 0.00035771
19690.0 0.0003547
19710.0 0.00035172
19730.0 0.00034882
19750.0 0.0003459
19770.0 0.00034291
19790.0 0.00034002
19810.0 0.00033718
19830.0 0.00033426
19850.0 0.00033135
19870.0 0.00032851
19890.0 0.00032554
19910.0 0.00032241
19930.0 0.00031921
19950.0 0.00031575
19970.0 0.00031181
19990.0 0.00030738
20010.0 0.00030688
20030.0 0.00030133
20050.0 0.00029512
20070.0 0.00028863
20090.0 0.00028186
20110.0 0.00027445
20130.0 0.00026714
20150.0 0.00026004
20170.0 0.00025284
20190.0 0.00024567
20210.0 0.00023899
20230.0 0.00023255
20250.0 0.00022617
20270.0 0.00022029
20290.0 0.00021493
20310.0 0.00020986
20330.0 0.00020513
20350.0 0.00020117
20370.0 0.00019765
20390.0 0.00019456
20410.0 0.00019204
20430.0 0.00019007
20450.0 0.00018851
20470.0 0.00018747
20490.0 0.0001869
20510.0 0.00018674
20530.0 0.000187
20550.0 0.00018762
20570.0 0.00018851
20590.0 0.00018973
20610.0 0.00019122
20630.0 0.00019286
20650.0 0.00019469
20670.0 0.0001968
20690.0 0.00019892
20710.0 0.0002011
20730.0 0.00020343
20750.0 0.00020584
20770.0 0.00020816
20790.0 0.00021057
20810.0 0.00021309
20830.0 0.00021555
20850.0 0.00021799
20870.0 0.00022057
20890.0 0.00022318
20910.0 0.00022566
20930.0 0.00022822
20950.0 0.00023087
20970.0 0.00023344
20990.0 0.00023597
21010.0 0.00023865
21030.0 0.00024128
21050.0 0.00024379
21070.0 0.00024632
21090.0 0.00024889
21110.0 0.00025124
21130.0 0.00025348
21150.0 0.0002557
21170.0 0.00025777
21190.0 0.0002596
21210.0 0.00026135
21230.0 0.00026294
21250.0 0.00026422
21270.0 0.00026527
21290.0 0.0002661
21310.0 0.00026661
21330.0 0.00026677
21350.0 0.00026662
21370.0 0.00026609
21390.0 0.00026516
21410.0 0.00026385
21430.0 0.00026202
21450.0 0.00025979
21470.0 0.00025719
21490.0 0.0002541
21510.0 0.00025056
21530.0 0.00024678
21550.0 0.00024267
21570.0 0.00023812
21590.0 0.00023346
21610.0 0.00022877
21630.0 0.00022388
21650.0 0.00021888
21670.0 0.0002143
21690.0 0.00020983
21710.0 0.00020551
21730.0 0.00020163
21750.0 0.00019824
21770.0 0.00019513
21790.0 0.00019257
21810.0 0.00019062
21830.0 0.0001892
21850.0 0.00018833
21870.0 0.00018806
21890.0 0.00018832
21910.0 0.00018913
21930.0 0.00019047
21950.0 0.00019221
21970.0 0.00019441
21990.0 0.00019716
22010.0 0.00020014
22030.0 0.00020337
22050.0 0.00020699
22070.0 0.00021083
22090.0 0.00021465
22110.0 0.0002187
22130.0 0.00022292
22150.0 0.00022704
22170.0 0.00023107
22190.0 0.00023522
22210.0 0.00023922
22230.0 0.00024285
22250.0 0.00024636
22270.0 0.00024968
22290.0 0.00025259
22310.0 0.00025513
22330.0 0.00025743
22350.0 0.00025927
22370.0 0.00026061
22390.0 0.00026154
22410.0 0.00026198
22430.0 0.0002619
22450.0 0.00026134
22470.0 0.00026024
22490.0 0.00025863
22510.0 0.00025658
22530.0 0.00025394
22550.0 0.00025072
22570.0 0.00024715
22590.0 0.00024312
22610.0 0.00023849
22630.0 0.00023349
22650.0 0.00022831
22670.0 0.00022258
22690.0 0.00021645
22710.0 0.00021025
22730.0 0.00020384
22750.0 0.00019687
22770.0 0.00019002
22790.0 0.0001833
22810.0 0.00017638
22830.0 0.00016945
22850.0 0.00016294
22870.0 0.00015654
22890.0 0.00015018
22910.0 0.00014432
22930.0 0.00013896
22950.0 0.00013389
22970.0 0.00012924
22990.0 0.00012544
23010.0 0.00012213
23030.0 0.00011938
23050.0 0.00011736
23070.0 0.00011602
23090.0 0.0001153
23110.0 0.0001153
23130.0 0.00011595
23150.0 0.00011723
23170.0 0.00011918
23190.0 0.00012163
23210.0 0.00012449
23230.0 0.00012791
