#lamb flux
1010.0 2.9399e-05
1030.0 3.2835e-05
1050.0 3.6708e-05
1070.0 4.109e-05
1090.0 4.6119e-05
1110.0 5.1317e-05
1130.0 5.6598e-05
1150.0 6.2184e-05
1170.0 6.8013e-05
1190.0 7.3641e-05
1210.0 7.9439e-05
1230.0 8.5527e-05
1250.0 9.162e-05
1270.0 9.7688e-05
1290.0 0.0001042
1310.0 0.00011087
1330.0 0.00011746
1350.0 0.00012427
1370.0 0.00013144
1390.0 0.00013861
1410.0 0.00014576
1430.0 0.00015333
1450.0 0.00016103
1470.0 0.00016866
1490.0 0.00017647
1510.0 0.00018473
1530.0 0.00019273
1550.0 0.00020071
1570.0 0.00020895
1590.0 0.00021722
1610.0 0.00022519
1630.0 0.0002333
1650.0 0.00024152
1670.0 0.00024942
1690.0 0.0002571
1710.0 0.00026487
1730.0 0.00027248
1750.0 0.00027944
1770.0 0.00028632
1790.0 0.00029303
1810.0 0.00029919
1830.0 0.00030487
1850.0 0.00031055
1870.0 0.00031564
1890.0 0.00032006
1910.0 0.00032415
1930.0 0.00032791
1950.0 0.00033087
1970.0 0.00033326
1990.0 0.00033536
2010.0 0.00033684
2030.0 0.00033757
2050.0 0.00033795
2070.0 0.00033796
2090.0 0.00033709
2110.0 0.0003357
2130.0 0.00033397
2150.0 0.00033164
2170.0 0.0003286
2190.0 0.0003253
2210.0 0.00032159
2230.0 0.00031727
2250.0 0.00031255
2270.0 0.00030768
2290.0 0.00030233
2310.0 0.00029651
2330.0 0.00029056
2350.0 0.00028441
2370.0 0.00027789
2390.0 0.00027121
2410.0 0.00026449
2430.0 0.00025743
2450.0 0.00025003
2470.0 0.00024237
2490.0 0.00023436
2510.0 0.00022598
2530.0 0.0002177
2550.0 0.00021016
2570.0 0.00020425
2590.0 0.00020094
2610.0 0.00020209
2630.0 0.00020838
2650.0 0.00021897
2670.0 0.00023395
2690.0 0.00025247
2710.0 0.00027081
2730.0 0.00028717
2750.0 0.00030199
2770.0 0.00031301
2790.0 0.00031974
2810.0 0.00032371
2830.0 0.00032597
2850.0 0.00032594
2870.0 0.00032504
2890.0 0.00032416
2910.0 0.00032319
2930.0 0.00032202
2950.0 0.00032143
2970.0 0.00032137
2990.0 0.00032148
3010.0 0.00073433
3030.0 0.00073733
3050.0 0.00074115
3070.0 0.00074436
3090.0 0.0007467
3110.0 0.00074528
3130.0 0.00073725
3150.0 0.00072154
3170.0 0.00069358
3190.0 0.00069497
3210.0 0.00081958
3230.0 0.0010545
3250.0 0.0015409
3270.0 0.0017395
3290.0 0.0022103
3310.0 0.0020686
3330.0 0.0021863
3350.0 0.0023922
3370.0 0.0026573
3390.0 0.0029658
3410.0 0.0032922
3430.0 0.0036678
3450.0 0.0040791
3470.0 0.0045161
3490.0 0.0049225
3510.0 0.0053327
3530.0 0.0057861
3550.0 0.0059548
3570.0 0.0058877
3590.0 0.0062009
3610.0 0.0061298
3630.0 0.0070995
3650.0 0.0078647
3670.0 0.0083458
3690.0 0.0078093
3710.0 0.0065145
3730.0 0.0059755
3750.0 0.0053407
3770.0 0.0047888
3790.0 0.0042535
3810.0 0.0040904
3830.0 0.0046223
3850.0 0.002093
3870.0 0.0044923
3890.0 0.0057137
3910.0 0.0062096
3930.0 0.007149
3950.0 0.0077224
3970.0 0.008879
3990.0 0.010894
4010.0 0.0081727
4030.0 0.00672
4050.0 0.0059736
4070.0 0.0061459
4090.0 0.0086567
4110.0 0.008276
4130.0 0.0085324
4150.0 0.0081012
4170.0 0.0077407
4190.0 0.0072492
4210.0 0.010122
4230.0 0.010782
4250.0 0.011343
4270.0 0.010667
4290.0 0.011085
4310.0 0.01249
4330.0 0.014417
4350.0 0.0143
4370.0 0.013692
4390.0 0.011688
4410.0 0.010584
4430.0 0.0087037
4450.0 0.007657
4470.0 0.0085239
4490.0 0.010461
4510.0 0.011019
4530.0 0.011963
4550.0 0.012991
4570.0 0.017203
4590.0 0.024746
4610.0 0.030338
4630.0 0.030262
4650.0 0.029435
4670.0 0.032073
4690.0 0.035555
4710.0 0.029295
4730.0 0.021946
4750.0 0.017572
4770.0 0.016248
4790.0 0.016137
4810.0 0.015366
4830.0 0.016786
4850.0 0.019437
4870.0 0.022177
4890.0 0.021835
4910.0 0.019203
4930.0 0.020227
4950.0 0.025745
4970.0 0.032547
4990.0 0.033981
5010.0 0.030661
5030.0 0.024717
5050.0 0.018267
5070.0 0.014643
5090.0 0.013288
5110.0 0.013051
5130.0 0.01347
5150.0 0.013401
5170.0 0.013447
5190.0 0.012915
5210.0 0.012829
5230.0 0.01392
5250.0 0.015128
5270.0 0.018086
5290.0 0.021019
5310.0 0.021264
5330.0 0.022005
5350.0 0.024496
5370.0 0.026445
5390.0 0.024255
5410.0 0.021109
5430.0 0.019953
5450.0 0.022754
5470.0 0.028722
5490.0 0.034618
5510.0 0.037205
5530.0 0.03681
5550.0 0.034677
5570.0 0.032987
5590.0 0.03181
5610.0 0.031686
5630.0 0.031442
5650.0 0.031023
5670.0 0.030887
5690.0 0.029251
5710.0 0.024811
5730.0 0.021191
5750.0 0.018763
5770.0 0.018875
5790.0 0.019851
5810.0 0.020944
5830.0 0.021355
5850.0 0.020454
5870.0 0.018686
5890.0 0.016732
5910.0 0.016683
5930.0 0.017806
5950.0 0.01715
5970.0 0.015248
5990.0 0.012881
6010.0 0.010415
6030.0 0.0090301
6050.0 0.0093082
6070.0 0.010374
6090.0 0.010669
6110.0 0.0094857
6130.0 0.0091331
6150.0 0.010208
6170.0 0.012108
6190.0 0.014016
6210.0 0.014477
6230.0 0.01396
6250.0 0.012836
6270.0 0.011027
6290.0 0.0092016
6310.0 0.007899
6330.0 0.0074764
6350.0 0.0078116
6370.0 0.0079759
6390.0 0.008455
6410.0 0.010005
6430.0 0.012707
6450.0 0.015447
6470.0 0.016653
6490.0 0.016287
6510.0 0.016396
6530.0 0.017105
6550.0 0.017052
6570.0 0.017503
6590.0 0.01763
6610.0 0.01767
6630.0 0.017856
6650.0 0.01739
6670.0 0.016203
6690.0 0.01434
6710.0 0.012757
6730.0 0.012749
6750.0 0.013601
6770.0 0.014298
6790.0 0.014621
6810.0 0.014664
6830.0 0.014375
6850.0 0.013982
6870.0 0.013154
6890.0 0.012701
6910.0 0.01202
6930.0 0.012055
6950.0 0.012995
6970.0 0.013631
6990.0 0.014138
7010.0 0.014026
7030.0 0.013091
7050.0 0.011462
7070.0 0.0096023
7090.0 0.0083789
7110.0 0.0082122
7130.0 0.0086091
7150.0 0.0082712
7170.0 0.0076387
7190.0 0.0077954
7210.0 0.0086512
7230.0 0.010038
7250.0 0.011122
7270.0 0.011402
7290.0 0.010513
7310.0 0.0094467
7330.0 0.0087795
7350.0 0.0087126
7370.0 0.0089508
7390.0 0.0092929
7410.0 0.010024
7430.0 0.011587
7450.0 0.013396
7470.0 0.014787
7490.0 0.015155
7510.0 0.014562
7530.0 0.012201
7550.0 0.010511
7570.0 0.0090563
7590.0 0.0083104
7610.0 0.0087685
7630.0 0.010024
7650.0 0.011458
7670.0 0.012809
7690.0 0.013756
7710.0 0.014746
7730.0 0.015804
7750.0 0.016793
7770.0 0.016995
7790.0 0.017111
7810.0 0.017631
7830.0 0.018265
7850.0 0.018036
7870.0 0.017445
7890.0 0.016858
7910.0 0.015943
7930.0 0.015653
7950.0 0.0152
7970.0 0.015059
7990.0 0.01496
8010.0 0.015596
8030.0 0.015786
8050.0 0.01614
8070.0 0.016058
8090.0 0.0161
8110.0 0.015504
8130.0 0.01549
8150.0 0.015237
8170.0 0.014884
8190.0 0.014718
8210.0 0.01487
8230.0 0.014322
8250.0 0.013731
8270.0 0.01216
8290.0 0.0098164
8310.0 0.007392
8330.0 0.0056233
8350.0 0.005116
8370.0 0.0060261
8390.0 0.0072864
8410.0 0.0080699
8430.0 0.0086259
8450.0 0.0090905
8470.0 0.009615
8490.0 0.010735
8510.0 0.012197
8530.0 0.01424
8550.0 0.016541
8570.0 0.01864
8590.0 0.020343
8610.0 0.021604
8630.0 0.02224
8650.0 0.02234
8670.0 0.022432
8690.0 0.023361
8710.0 0.024351
8730.0 0.025226
8750.0 0.025059
8770.0 0.025338
8790.0 0.025152
8810.0 0.023561
8830.0 0.022689
8850.0 0.021305
8870.0 0.020206
8890.0 0.019619
8910.0 0.01993
8930.0 0.01892
8950.0 0.018052
8970.0 0.017731
8990.0 0.017484
9010.0 0.016942
9030.0 0.016546
9050.0 0.016434
9070.0 0.01638
9090.0 0.016331
9110.0 0.016284
9130.0 0.016234
9150.0 0.016185
9170.0 0.016121
9190.0 0.016055
9210.0 0.016105
9230.0 0.016023
9250.0 0.015956
9270.0 0.015895
9290.0 0.015838
9310.0 0.015783
9330.0 0.015729
9350.0 0.015677
9370.0 0.015625
9390.0 0.015572
9410.0 0.01552
9430.0 0.015467
9450.0 0.015403
9470.0 0.015341
9490.0 0.0153
9510.0 0.015252
9530.0 0.015202
9550.0 0.015152
9570.0 0.0151
9590.0 0.015048
9610.0 0.014995
9630.0 0.014943
9650.0 0.01489
9670.0 0.014837
9690.0 0.014784
9710.0 0.014731
9730.0 0.014678
9750.0 0.014625
9770.0 0.014572
9790.0 0.014519
9810.0 0.014465
9830.0 0.014412
9850.0 0.014359
9870.0 0.014305
9890.0 0.014252
9910.0 0.014198
9930.0 0.014142
9950.0 0.013978
9970.0 0.013956
9990.0 0.013929
10010.0 0.013897
10030.0 0.013856
10050.0 0.013808
10070.0 0.013756
10090.0 0.013707
10110.0 0.013651
10130.0 0.013599
10150.0 0.013545
10170.0 0.013487
10190.0 0.013426
10210.0 0.013369
10230.0 0.013314
10250.0 0.013254
10270.0 0.013195
10290.0 0.013139
10310.0 0.01308
10330.0 0.013016
10350.0 0.012957
10370.0 0.012898
10390.0 0.012834
10410.0 0.012771
10430.0 0.012712
10450.0 0.012649
10470.0 0.012582
10490.0 0.012519
10510.0 0.012456
10530.0 0.012386
10550.0 0.012318
10570.0 0.012253
10590.0 0.012185
10610.0 0.012113
10630.0 0.012046
10650.0 0.011977
10670.0 0.011902
10690.0 0.011829
10710.0 0.011758
10730.0 0.011682
10750.0 0.011602
10770.0 0.011529
10790.0 0.011453
10810.0 0.011372
10830.0 0.011293
10850.0 0.011216
10870.0 0.011131
10890.0 0.011044
10910.0 0.010958
10930.0 0.010868
10950.0 0.010767
10970.0 0.010663
10990.0 0.010555
11010.0 0.010215
11030.0 0.010081
11050.0 0.0099519
11070.0 0.0098217
11090.0 0.0096841
11110.0 0.009559
11130.0 0.0094401
11150.0 0.00932
11170.0 0.0092032
11190.0 0.0090963
11210.0 0.0089882
11230.0 0.0088779
11250.0 0.0087736
11270.0 0.0086724
11290.0 0.0085665
11310.0 0.0084612
11330.0 0.0083642
11350.0 0.0082645
11370.0 0.0081622
11390.0 0.0080639
11410.0 0.007967
11430.0 0.0078615
11450.0 0.0077563
11470.0 0.0076524
11490.0 0.0075421
11510.0 0.007423
11530.0 0.0073056
11550.0 0.0071846
11570.0 0.007053
11590.0 0.006918
11610.0 0.0067841
11630.0 0.0066406
11650.0 0.0064899
11670.0 0.006345
11690.0 0.0061992
11710.0 0.006048
11730.0 0.0059
11750.0 0.0057607
11770.0 0.0056187
11790.0 0.005479
11810.0 0.0053492
11830.0 0.0052249
11850.0 0.0050991
11870.0 0.0049836
11890.0 0.0048778
11910.0 0.0047737
11930.0 0.0046737
11950.0 0.004583
11970.0 0.0044957
11990.0 0.0044087
12010.0 0.0043284
12030.0 0.0042539
12050.0 0.0041807
12070.0 0.0041098
12090.0 0.0040477
12110.0 0.0039887
12130.0 0.0039326
12150.0 0.003883
12170.0 0.0038403
12190.0 0.0038006
12210.0 0.0037682
12230.0 0.0037439
12250.0 0.0037263
12270.0 0.003716
12290.0 0.0037144
12310.0 0.0037208
12330.0 0.0037357
12350.0 0.0037594
12370.0 0.0037908
12390.0 0.0038307
12410.0 0.0038811
12430.0 0.0039366
12450.0 0.0039979
12470.0 0.0040669
12490.0 0.0041406
12510.0 0.0042143
12530.0 0.0042918
12550.0 0.0043714
12570.0 0.0044471
12590.0 0.0045189
12610.0 0.0045886
12630.0 0.0046514
12650.0 0.0047034
12670.0 0.0047482
12690.0 0.0047836
12710.0 0.0048076
12730.0 0.0048212
12750.0 0.0048243
12770.0 0.0048166
12790.0 0.0047997
12810.0 0.0047736
12830.0 0.0047386
12850.0 0.0046987
12870.0 0.0046541
12890.0 0.0046037
12910.0 0.0045512
12930.0 0.0044989
12950.0 0.0044438
12970.0 0.0043874
12990.0 0.0043343
13010.0 0.0042818
13030.0 0.0042284
13050.0 0.0041767
13070.0 0.0041275
13090.0 0.0040768
13110.0 0.004026
13130.0 0.0039771
13150.0 0.0039284
13170.0 0.0038775
13190.0 0.0038291
13210.0 0.0037832
13230.0 0.0037378
13250.0 0.0036946
13270.0 0.0036566
13290.0 0.0036222
13310.0 0.003592
13330.0 0.0035687
13350.0 0.0035519
13370.0 0.0035412
13390.0 0.0035371
13410.0 0.0035385
13430.0 0.0035443
13450.0 0.0035535
13470.0 0.0035639
13490.0 0.0035735
13510.0 0.0035814
13530.0 0.0035848
13550.0 0.0035823
13570.0 0.0035732
13590.0 0.0035558
13610.0 0.003531
13630.0 0.0034995
13650.0 0.0034596
13670.0 0.0034137
13690.0 0.0033645
13710.0 0.0033113
13730.0 0.0032535
13750.0 0.0031985
13770.0 0.0031448
13790.0 0.0030915
13810.0 0.0030415
13830.0 0.0029971
13850.0 0.0029554
13870.0 0.0029173
13890.0 0.0028848
13910.0 0.0028566
13930.0 0.0028313
13950.0 0.0028097
13970.0 0.0027921
13990.0 0.0027765
14010.0 0.0027628
14030.0 0.002751
14050.0 0.0027404
14070.0 0.00273
14090.0 0.0027201
14110.0 0.0027102
14130.0 0.0026995
14150.0 0.0026877
14170.0 0.0026753
14190.0 0.0026618
14210.0 0.0026467
14230.0 0.0026307
14250.0 0.0026143
14270.0 0.0025968
14290.0 0.0025788
14310.0 0.0025619
14330.0 0.0025456
14350.0 0.0025299
14370.0 0.0025159
14390.0 0.0025039
14410.0 0.0024932
14430.0 0.0024843
14450.0 0.0024774
14470.0 0.0024719
14490.0 0.0024678
14510.0 0.0024649
14530.0 0.002463
14550.0 0.0024619
14570.0 0.0024617
14590.0 0.0024622
14610.0 0.0024637
14630.0 0.0024666
14650.0 0.0024708
14670.0 0.0024764
14690.0 0.0024844
14710.0 0.0024948
14730.0 0.0025068
14750.0 0.0025216
14770.0 0.0025398
14790.0 0.0025604
14810.0 0.0025833
14830.0 0.0026114
14850.0 0.0026426
14870.0 0.002676
14890.0 0.0027131
14910.0 0.0027537
14930.0 0.0027938
14950.0 0.0028322
14970.0 0.0028695
14990.0 0.0029014
15010.0 0.0029259
15030.0 0.0029441
15050.0 0.0029561
15070.0 0.0029613
15090.0 0.0029624
15110.0 0.0029605
15130.0 0.0029568
15150.0 0.002952
15170.0 0.0029466
15190.0 0.0029409
15210.0 0.0029351
15230.0 0.0029293
15250.0 0.0029235
15270.0 0.0029176
15290.0 0.0029118
15310.0 0.0029059
15330.0 0.0029
15350.0 0.0028942
15370.0 0.0028883
15390.0 0.0028824
15410.0 0.0028764
15430.0 0.0028706
15450.0 0.0028646
15470.0 0.0028587
15490.0 0.0028528
15510.0 0.0028469
15530.0 0.0028409
15550.0 0.0028349
15570.0 0.002829
15590.0 0.002823
15610.0 0.002817
15630.0 0.0028111
15650.0 0.0028051
15670.0 0.0027991
15690.0 0.0027931
15710.0 0.0027872
15730.0 0.0027812
15750.0 0.0027751
15770.0 0.0027691
15790.0 0.0027631
15810.0 0.0027571
15830.0 0.0027511
15850.0 0.0027451
15870.0 0.002739
15890.0 0.002733
15910.0 0.002727
15930.0 0.002721
15950.0 0.0027149
15970.0 0.0027088
15990.0 0.0027028
16010.0 0.0026967
16030.0 0.0026906
16050.0 0.0026846
16070.0 0.0026786
16090.0 0.0026725
16110.0 0.0026664
16130.0 0.0026604
16150.0 0.0026543
16170.0 0.0026482
16190.0 0.0026421
16210.0 0.0026361
16230.0 0.0026299
16250.0 0.0026239
16270.0 0.0026178
16290.0 0.0026117
16310.0 0.0026056
16330.0 0.0025995
16350.0 0.0025934
16370.0 0.0025873
16390.0 0.0025812
16410.0 0.0025751
16430.0 0.002569
16450.0 0.0025629
16470.0 0.0025568
16490.0 0.0025507
16510.0 0.0025445
16530.0 0.0025384
16550.0 0.0025323
16570.0 0.0025261
16590.0 0.00252
16610.0 0.0025139
16630.0 0.0025078
16650.0 0.0025016
16670.0 0.0024955
16690.0 0.0024894
16710.0 0.0024832
16730.0 0.002477
16750.0 0.0024709
16770.0 0.0024647
16790.0 0.0024586
16810.0 0.0024524
16830.0 0.0024463
16850.0 0.0024401
16870.0 0.0024339
16890.0 0.0024278
16910.0 0.0024216
16930.0 0.0024154
16950.0 0.0024092
16970.0 0.0024031
16990.0 0.0023968
17010.0 0.0023907
17030.0 0.0023845
17050.0 0.0023783
17070.0 0.0023721
17090.0 0.0023659
17110.0 0.0023597
17130.0 0.0023535
17150.0 0.0023473
17170.0 0.0023411
17190.0 0.0023348
17210.0 0.0023286
17230.0 0.0023224
17250.0 0.0023162
17270.0 0.0023099
17290.0 0.0023037
17310.0 0.0022975
17330.0 0.0022912
17350.0 0.002285
17370.0 0.0022788
17390.0 0.0022725
17410.0 0.0022663
17430.0 0.00226
17450.0 0.0022538
17470.0 0.0022475
17490.0 0.0022412
17510.0 0.002235
17530.0 0.0022287
17550.0 0.0022224
17570.0 0.0022162
17590.0 0.00221
17610.0 0.0022037
17630.0 0.0021974
17650.0 0.0021911
17670.0 0.0021848
17690.0 0.0021785
17710.0 0.0021723
17730.0 0.002166
17750.0 0.0021597
17770.0 0.0021534
17790.0 0.0021472
17810.0 0.0021409
17830.0 0.0021346
17850.0 0.0021283
17870.0 0.002122
17890.0 0.0021157
17910.0 0.0021094
17930.0 0.0021032
17950.0 0.0020969
17970.0 0.0020906
17990.0 0.0020843
18010.0 0.0020781
18030.0 0.0020717
18050.0 0.0020655
18070.0 0.0020592
18090.0 0.0020529
18110.0 0.0020466
18130.0 0.0020404
18150.0 0.0020342
18170.0 0.0020279
18190.0 0.0020216
18210.0 0.0020154
18230.0 0.0020091
18250.0 0.0020028
18270.0 0.0019966
18290.0 0.0019904
18310.0 0.0019841
18330.0 0.0019779
18350.0 0.0019717
18370.0 0.0019655
18390.0 0.0019593
18410.0 0.0019531
18430.0 0.0019469
18450.0 0.0019407
18470.0 0.0019345
18490.0 0.0019284
18510.0 0.0019222
18530.0 0.001916
18550.0 0.0019099
18570.0 0.0019038
18590.0 0.0018976
18610.0 0.0018915
18630.0 0.0018854
18650.0 0.0018793
18670.0 0.0018731
18690.0 0.0018671
18710.0 0.001861
18730.0 0.0018549
18750.0 0.0018489
18770.0 0.0018429
18790.0 0.0018368
18810.0 0.0018308
18830.0 0.0018248
18850.0 0.0018188
18870.0 0.0018128
18890.0 0.0018069
18910.0 0.001801
18930.0 0.001795
18950.0 0.0017891
18970.0 0.0017832
18990.0 0.0017773
19010.0 0.0017714
19030.0 0.0017655
19050.0 0.0017597
19070.0 0.0017539
19090.0 0.001748
19110.0 0.0017423
19130.0 0.0017365
19150.0 0.0017307
19170.0 0.001725
19190.0 0.0017192
19210.0 0.0017135
19230.0 0.0017078
19250.0 0.0017021
19270.0 0.0016965
19290.0 0.0016908
19310.0 0.0016852
19330.0 0.0016796
19350.0 0.001674
19370.0 0.0016684
19390.0 0.0016629
19410.0 0.0016573
19430.0 0.0016518
19450.0 0.0016464
19470.0 0.0016409
19490.0 0.0016354
19510.0 0.00163
19530.0 0.0016246
19550.0 0.0016192
19570.0 0.0016138
19590.0 0.0016085
19610.0 0.0016032
19630.0 0.0015978
19650.0 0.0015926
19670.0 0.0015873
19690.0 0.0015821
19710.0 0.0015768
19730.0 0.0015716
19750.0 0.0015665
19770.0 0.0015613
19790.0 0.0015561
19810.0 0.001551
19830.0 0.0015459
19850.0 0.0015407
19870.0 0.0015355
19890.0 0.0015299
19910.0 0.0015237
19930.0 0.0015168
19950.0 0.0015086
19970.0 0.0014982
19990.0 0.0014855
20010.0 0.0014707
20030.0 0.0014528
20050.0 0.001432
20070.0 0.0014096
20090.0 0.0013858
20110.0 0.0013598
20130.0 0.0013338
20150.0 0.0013086
20170.0 0.0012831
20190.0 0.0012578
20210.0 0.001234
20230.0 0.001211
20250.0 0.0011879
20270.0 0.0011663
20290.0 0.0011459
20310.0 0.001126
20330.0 0.0011065
20350.0 0.001089
20370.0 0.0010721
20390.0 0.0010557
20410.0 0.0010404
20430.0 0.0010264
20450.0 0.0010126
20470.0 0.00099979
20490.0 0.00098828
20510.0 0.00097764
20530.0 0.00096771
20550.0 0.00095898
20570.0 0.00095143
20590.0 0.00094465
20610.0 0.00093888
20630.0 0.00093417
20650.0 0.00093033
20670.0 0.00092736
20690.0 0.00092528
20710.0 0.00092393
20730.0 0.00092329
20750.0 0.00092329
20770.0 0.00092368
20790.0 0.00092452
20810.0 0.00092578
20830.0 0.00092715
20850.0 0.00092857
20870.0 0.00093015
20890.0 0.00093161
20910.0 0.00093268
20930.0 0.00093351
20950.0 0.00093401
20970.0 0.00093394
20990.0 0.00093333
21010.0 0.00093217
21030.0 0.00093033
21050.0 0.00092783
21070.0 0.00092467
21090.0 0.00092074
21110.0 0.00091625
21130.0 0.00091121
21150.0 0.00090547
21170.0 0.00089924
21190.0 0.00089272
21210.0 0.00088562
21230.0 0.00087805
21250.0 0.00087046
21270.0 0.00086268
21290.0 0.00085456
21310.0 0.00084643
21330.0 0.00083858
21350.0 0.00083059
21370.0 0.00082264
21390.0 0.00081509
21410.0 0.00080783
21430.0 0.00080058
21450.0 0.00079394
21470.0 0.00078789
21490.0 0.00078223
21510.0 0.00077711
21530.0 0.00077274
21550.0 0.000769
21570.0 0.00076588
21590.0 0.00076355
21610.0 0.00076195
21630.0 0.00076109
21650.0 0.00076105
21670.0 0.00076161
21690.0 0.00076284
21710.0 0.0007648
21730.0 0.00076725
21750.0 0.00077005
21770.0 0.00077353
21790.0 0.00077733
21810.0 0.00078118
21830.0 0.00078522
21850.0 0.00078952
21870.0 0.00079362
21890.0 0.00079743
21910.0 0.00080126
21930.0 0.00080482
21950.0 0.00080789
21970.0 0.00081066
21990.0 0.0008132
22010.0 0.0008151
22030.0 0.00081651
22050.0 0.00081754
22070.0 0.00081809
22090.0 0.0008181
22110.0 0.00081771
22130.0 0.00081688
22150.0 0.0008156
22170.0 0.00081391
22190.0 0.0008118
22210.0 0.00080926
22230.0 0.00080641
22250.0 0.00080314
22270.0 0.00079945
22290.0 0.00079546
22310.0 0.00079115
22330.0 0.00078628
22350.0 0.00078106
22370.0 0.00077558
22390.0 0.00076959
22410.0 0.00076302
22430.0 0.00075628
22450.0 0.00074918
22470.0 0.00074145
22490.0 0.00073338
22510.0 0.00072519
22530.0 0.00071636
22550.0 0.00070705
22570.0 0.00069783
22590.0 0.00068841
22610.0 0.00067854
22630.0 0.00066871
22650.0 0.00065923
22670.0 0.0006495
22690.0 0.0006398
22710.0 0.00063061
22730.0 0.0006217
22750.0 0.00061266
22770.0 0.00060433
22790.0 0.00059661
22810.0 0.00058911
22830.0 0.00058203
22850.0 0.00057567
22870.0 0.00056969
22890.0 0.00056399
22910.0 0.00055885
22930.0 0.0005542
22950.0 0.0005498
22970.0 0.00054567
22990.0 0.00054205
23010.0 0.00053861
23030.0 0.0005353
23050.0 0.00053221
23070.0 0.0005293
23090.0 0.00052631
23110.0 0.00052337
23130.0 0.0005205
23150.0 0.00051756
23170.0 0.00051447
23190.0 0.00051139
23210.0 0.0005083
23230.0 0.00050504
23250.0 0.00050174
23270.0 0.00049851
23290.0 0.00049524
23310.0 0.0004919
23330.0 0.00048877
23350.0 0.00048576
23370.0 0.0004828
23390.0 0.00047998
23410.0 0.00047741
23430.0 0.00047493
23450.0 0.00047255
23470.0 0.00047036
23490.0 0.00046829
23510.0 0.00046626
23530.0 0.00046432
23550.0 0.00046251
23570.0 0.0004607
23590.0 0.0004589
23610.0 0.00045716
23630.0 0.00045545
23650.0 0.0004537
23670.0 0.000452
23690.0 0.00045037
23710.0 0.00044879
23730.0 0.00044728
23750.0 0.00044596
23770.0 0.00044483
23790.0 0.00044393
23810.0 0.00044337
23830.0 0.00044318
23850.0 0.00044347
23870.0 0.00044435
