#lamb flux
1010.0 7.7961e-06
1030.0 8.504e-06
1050.0 9.3188e-06
1070.0 1.0236e-05
1090.0 1.1278e-05
1110.0 1.2347e-05
1130.0 1.3424e-05
1150.0 1.4551e-05
1170.0 1.5715e-05
1190.0 1.682e-05
1210.0 1.794e-05
1230.0 1.9098e-05
1250.0 2.0233e-05
1270.0 2.1336e-05
1290.0 2.2502e-05
1310.0 2.3668e-05
1330.0 2.4788e-05
1350.0 2.5921e-05
1370.0 2.7091e-05
1390.0 2.8233e-05
1410.0 2.9343e-05
1430.0 3.0503e-05
1450.0 3.1665e-05
1470.0 3.2788e-05
1490.0 3.3925e-05
1510.0 3.5126e-05
1530.0 3.6265e-05
1550.0 3.7389e-05
1570.0 3.8553e-05
1590.0 3.9717e-05
1610.0 4.0831e-05
1630.0 4.1978e-05
1650.0 4.3154e-05
1670.0 4.4292e-05
1690.0 4.5414e-05
1710.0 4.6577e-05
1730.0 4.7745e-05
1750.0 4.8841e-05
1770.0 4.9966e-05
1790.0 5.111e-05
1810.0 5.2213e-05
1830.0 5.3291e-05
1850.0 5.4431e-05
1870.0 5.5535e-05
1890.0 5.6593e-05
1910.0 5.7665e-05
1930.0 5.8755e-05
1950.0 5.9784e-05
1970.0 6.0788e-05
1990.0 6.1822e-05
2010.0 6.2825e-05
2030.0 6.3774e-05
2050.0 6.4741e-05
2070.0 6.572e-05
2090.0 6.6617e-05
2110.0 6.7493e-05
2130.0 6.8382e-05
2150.0 6.923e-05
2170.0 7.001e-05
2190.0 7.0806e-05
2210.0 7.1586e-05
2230.0 7.2297e-05
2250.0 7.2978e-05
2270.0 7.3678e-05
2290.0 7.4316e-05
2310.0 7.4883e-05
2330.0 7.5452e-05
2350.0 7.5999e-05
2370.0 7.6474e-05
2390.0 7.6931e-05
2410.0 7.7412e-05
2430.0 7.7845e-05
2450.0 7.8254e-05
2470.0 7.872e-05
2490.0 7.9296e-05
2510.0 8.0007e-05
2530.0 8.1184e-05
2550.0 8.3354e-05
2570.0 8.7036e-05
2590.0 9.2833e-05
2610.0 0.00010235
2630.0 0.00011589
2650.0 0.0001326
2670.0 0.00015257
2690.0 0.00017495
2710.0 0.00019651
2730.0 0.00021574
2750.0 0.00023299
2770.0 0.0002466
2790.0 0.00025651
2810.0 0.00026411
2830.0 0.0002704
2850.0 0.00027514
2870.0 0.00027936
2890.0 0.00028366
2910.0 0.00028791
2930.0 0.00029184
2950.0 0.00029605
2970.0 0.00030045
2990.0 0.00030459
3010.0 0.0024247
3030.0 0.0024585
3050.0 0.0024911
3070.0 0.0025175
3090.0 0.0025393
3110.0 0.0025494
3130.0 0.0025392
3150.0 0.0025028
3170.0 0.0024282
3190.0 0.0023152
3210.0 0.0021706
3230.0 0.0020127
3250.0 0.002088
3270.0 0.001944
3290.0 0.0022078
3310.0 0.0019348
3330.0 0.0019654
3350.0 0.0020505
3370.0 0.0021596
3390.0 0.0022864
3410.0 0.0024165
3430.0 0.0025549
3450.0 0.0027011
3470.0 0.0028446
3490.0 0.0029735
3510.0 0.0031855
3530.0 0.0034823
3550.0 0.0035614
3570.0 0.003524
3590.0 0.003889
3610.0 0.0037033
3630.0 0.0042228
3650.0 0.0045246
3670.0 0.0049343
3690.0 0.004874
3710.0 0.0044228
3730.0 0.0046455
3750.0 0.0046577
3770.0 0.0049651
3790.0 0.0052873
3810.0 0.0059895
3830.0 0.0078866
3850.0 0.0097296
3870.0 0.011407
3890.0 0.012077
3910.0 0.011984
3930.0 0.012222
3950.0 0.012717
3970.0 0.011378
3990.0 0.0071578
4010.0 0.0054701
4030.0 0.0082929
4050.0 0.010988
4070.0 0.010027
4090.0 0.0059192
4110.0 0.0052158
4130.0 0.0081026
4150.0 0.0092176
4170.0 0.0076298
4190.0 0.0063806
4210.0 0.0088697
4230.0 0.0087807
4250.0 0.0083187
4270.0 0.0083202
4290.0 0.0074901
4310.0 0.008761
4330.0 0.010222
4350.0 0.011214
4370.0 0.010744
4390.0 0.010825
4410.0 0.00985
4430.0 0.0075523
4450.0 0.0057717
4470.0 0.0066012
4490.0 0.0067326
4510.0 0.0095377
4530.0 0.0098533
4550.0 0.0097472
4570.0 0.011663
4590.0 0.014323
4610.0 0.018586
4630.0 0.023579
4650.0 0.024662
4670.0 0.025327
4690.0 0.026054
4710.0 0.025589
4730.0 0.021374
4750.0 0.015394
4770.0 0.012723
4790.0 0.010632
4810.0 0.010626
4830.0 0.011951
4850.0 0.012779
4870.0 0.01347
4890.0 0.016105
4910.0 0.015262
4930.0 0.016296
4950.0 0.019854
4970.0 0.022744
4990.0 0.025917
5010.0 0.026232
5030.0 0.023087
5050.0 0.01751
5070.0 0.012735
5090.0 0.010883
5110.0 0.01114
5130.0 0.01194
5150.0 0.011197
5170.0 0.011
5190.0 0.011219
5210.0 0.011517
5230.0 0.012593
5250.0 0.013179
5270.0 0.013463
5290.0 0.015958
5310.0 0.01893
5330.0 0.020334
5350.0 0.019989
5370.0 0.020824
5390.0 0.022052
5410.0 0.021018
5430.0 0.019727
5450.0 0.020386
5470.0 0.023436
5490.0 0.029146
5510.0 0.034964
5530.0 0.036612
5550.0 0.03598
5570.0 0.034689
5590.0 0.03288
5610.0 0.031328
5630.0 0.031771
5650.0 0.032947
5670.0 0.031854
5690.0 0.029492
5710.0 0.028957
5730.0 0.026129
5750.0 0.021984
5770.0 0.019856
5790.0 0.021834
5810.0 0.023829
5830.0 0.026466
5850.0 0.026671
5870.0 0.025999
5890.0 0.02557
5910.0 0.023686
5930.0 0.022824
5950.0 0.023598
5970.0 0.024336
5990.0 0.021437
6010.0 0.017729
6030.0 0.014792
6050.0 0.013369
6070.0 0.013494
6090.0 0.014865
6110.0 0.015746
6130.0 0.015209
6150.0 0.015201
6170.0 0.01642
6190.0 0.018503
6210.0 0.021797
6230.0 0.024972
6250.0 0.023451
6270.0 0.020462
6290.0 0.017348
6310.0 0.014008
6330.0 0.012074
6350.0 0.011816
6370.0 0.012821
6390.0 0.014176
6410.0 0.016774
6430.0 0.020717
6450.0 0.024947
6470.0 0.028476
6490.0 0.032111
6510.0 0.034445
6530.0 0.033325
6550.0 0.031965
6570.0 0.032193
6590.0 0.032155
6610.0 0.031193
6630.0 0.029396
6650.0 0.02695
6670.0 0.026397
6690.0 0.025784
6710.0 0.024832
6730.0 0.02164
6750.0 0.018944
6770.0 0.019134
6790.0 0.020418
6810.0 0.022514
6830.0 0.022905
6850.0 0.021284
6870.0 0.020915
6890.0 0.020562
6910.0 0.019397
6930.0 0.019127
6950.0 0.019033
6970.0 0.01914
6990.0 0.019963
7010.0 0.021408
7030.0 0.021065
7050.0 0.019181
7070.0 0.017753
7090.0 0.015407
7110.0 0.013519
7130.0 0.013834
7150.0 0.014899
7170.0 0.015625
7190.0 0.015455
7210.0 0.015158
7230.0 0.016843
7250.0 0.018723
7270.0 0.019795
7290.0 0.020031
7310.0 0.019483
7330.0 0.018118
7350.0 0.016787
7370.0 0.015764
7390.0 0.015468
7410.0 0.016722
7430.0 0.019369
7450.0 0.021475
7470.0 0.023918
7490.0 0.027662
7510.0 0.026952
7530.0 0.022411
7550.0 0.019055
7570.0 0.015864
7590.0 0.01345
7610.0 0.013062
7630.0 0.01336
7650.0 0.014583
7670.0 0.016673
7690.0 0.018329
7710.0 0.020792
7730.0 0.02161
7750.0 0.022348
7770.0 0.0239
7790.0 0.024471
7810.0 0.024035
7830.0 0.022399
7850.0 0.022064
7870.0 0.021454
7890.0 0.020046
7910.0 0.018422
7930.0 0.017083
7950.0 0.014434
7970.0 0.013785
7990.0 0.014057
8010.0 0.016444
8030.0 0.016505
8050.0 0.017284
8070.0 0.016913
8090.0 0.016934
8110.0 0.016578
8130.0 0.015789
8150.0 0.01465
8170.0 0.014518
8190.0 0.014681
8210.0 0.014833
8230.0 0.013626
8250.0 0.012707
8270.0 0.011191
8290.0 0.0093015
8310.0 0.0075856
8330.0 0.0055718
8350.0 0.004264
8370.0 0.0039835
8390.0 0.0042194
8410.0 0.0048322
8430.0 0.0061246
8450.0 0.0067595
8470.0 0.0072771
8490.0 0.0081526
8510.0 0.0087932
8530.0 0.0097936
8550.0 0.011581
8570.0 0.013062
8590.0 0.014116
8610.0 0.016129
8630.0 0.018626
8650.0 0.019479
8670.0 0.019835
8690.0 0.019949
8710.0 0.019358
8730.0 0.018564
8750.0 0.017272
8770.0 0.017051
8790.0 0.016558
8810.0 0.01529
8830.0 0.014661
8850.0 0.012896
8870.0 0.011948
8890.0 0.01092
8910.0 0.0121
8930.0 0.011295
8950.0 0.011474
8970.0 0.011721
8990.0 0.011576
9010.0 0.011751
9030.0 0.011269
9050.0 0.011234
9070.0 0.011245
9090.0 0.011257
9110.0 0.011274
9130.0 0.011286
9150.0 0.011294
9170.0 0.011282
9190.0 0.011243
9210.0 0.011381
9230.0 0.011361
9250.0 0.011358
9270.0 0.011359
9290.0 0.011363
9310.0 0.011369
9330.0 0.011376
9350.0 0.011384
9370.0 0.011393
9390.0 0.011402
9410.0 0.011411
9430.0 0.011421
9450.0 0.01143
9470.0 0.011439
9490.0 0.011449
9510.0 0.011459
9530.0 0.01147
9550.0 0.011481
9570.0 0.011492
9590.0 0.011503
9610.0 0.011515
9630.0 0.011527
9650.0 0.01154
9670.0 0.011553
9690.0 0.011566
9710.0 0.011581
9730.0 0.011595
9750.0 0.011609
9770.0 0.011626
9790.0 0.011641
9810.0 0.011657
9830.0 0.011674
9850.0 0.011692
9870.0 0.011709
9890.0 0.011728
9910.0 0.011747
9930.0 0.011766
9950.0 0.011776
9970.0 0.011799
9990.0 0.011823
10010.0 0.011844
10030.0 0.011866
10050.0 0.011884
10070.0 0.011878
10090.0 0.01191
10110.0 0.011942
10130.0 0.011971
10150.0 0.011999
10170.0 0.012025
10190.0 0.012049
10210.0 0.012074
10230.0 0.012099
10250.0 0.012123
10270.0 0.012147
10290.0 0.012172
10310.0 0.012197
10330.0 0.01222
10350.0 0.012245
10370.0 0.012269
10390.0 0.012293
10410.0 0.012317
10430.0 0.012341
10450.0 0.012365
10470.0 0.012388
10490.0 0.012411
10510.0 0.012434
10530.0 0.012456
10550.0 0.012478
10570.0 0.0125
10590.0 0.012521
10610.0 0.012541
10630.0 0.012562
10650.0 0.012582
10670.0 0.012601
10690.0 0.01262
10710.0 0.012638
10730.0 0.012655
10750.0 0.012671
10770.0 0.012688
10790.0 0.012704
10810.0 0.012718
10830.0 0.012731
10850.0 0.012743
10870.0 0.01275
10890.0 0.012751
10910.0 0.012742
10930.0 0.012716
10950.0 0.012661
10970.0 0.012571
10990.0 0.012444
11010.0 0.012656
11030.0 0.012398
11050.0 0.012101
11070.0 0.011761
11090.0 0.011368
11110.0 0.010978
11130.0 0.01059
11150.0 0.010193
11170.0 0.0098102
11190.0 0.0094645
11210.0 0.0091349
11230.0 0.0088261
11250.0 0.0085588
11270.0 0.0083258
11290.0 0.0081142
11310.0 0.0079321
11330.0 0.0077834
11350.0 0.0076493
11370.0 0.0075265
11390.0 0.0074155
11410.0 0.0073088
11430.0 0.0071938
11450.0 0.0070742
11470.0 0.006949
11490.0 0.0068102
11510.0 0.0066547
11530.0 0.0064945
11550.0 0.0063263
11570.0 0.0061441
11590.0 0.0059586
11610.0 0.005777
11630.0 0.0055897
11650.0 0.0054013
11670.0 0.0052268
11690.0 0.0050594
11710.0 0.0048952
11730.0 0.0047422
11750.0 0.0046036
11770.0 0.0044688
11790.0 0.0043408
11810.0 0.004224
11830.0 0.0041133
11850.0 0.0040023
11870.0 0.0038981
11890.0 0.0037993
11910.0 0.003699
11930.0 0.0035979
11950.0 0.0035004
11970.0 0.0034014
11990.0 0.003298
12010.0 0.0031967
12030.0 0.0030976
12050.0 0.0029969
12070.0 0.0028965
12090.0 0.0028054
12110.0 0.0027181
12130.0 0.0026356
12150.0 0.0025635
12170.0 0.0025028
12190.0 0.002451
12210.0 0.0024135
12230.0 0.002391
12250.0 0.0023829
12270.0 0.0023907
12290.0 0.0024134
12310.0 0.002449
12330.0 0.0024999
12350.0 0.0025629
12370.0 0.0026329
12390.0 0.0027112
12410.0 0.0027993
12430.0 0.0028843
12450.0 0.0029676
12470.0 0.0030509
12490.0 0.0031286
12510.0 0.0031954
12530.0 0.0032563
12550.0 0.0033088
12570.0 0.0033489
12590.0 0.0033782
12610.0 0.0033983
12630.0 0.0034076
12650.0 0.0034062
12670.0 0.0033965
12690.0 0.0033783
12710.0 0.0033532
12730.0 0.0033221
12750.0 0.0032842
12770.0 0.003242
12790.0 0.0031968
12810.0 0.0031475
12830.0 0.0030939
12850.0 0.0030394
12870.0 0.0029826
12890.0 0.002921
12910.0 0.002857
12930.0 0.0027918
12950.0 0.002721
12970.0 0.0026453
12990.0 0.0025697
13010.0 0.0024912
13030.0 0.002408
13050.0 0.0023246
13070.0 0.0022438
13090.0 0.0021609
13110.0 0.0020796
13130.0 0.0020044
13150.0 0.0019339
13170.0 0.0018666
13190.0 0.0018088
13210.0 0.0017604
13230.0 0.0017189
13250.0 0.001686
13270.0 0.0016626
13290.0 0.0016468
13310.0 0.0016383
13330.0 0.0016365
13350.0 0.0016399
13370.0 0.0016476
13390.0 0.0016584
13410.0 0.0016697
13430.0 0.0016816
13450.0 0.0016931
13470.0 0.0017025
13490.0 0.0017096
13510.0 0.0017147
13530.0 0.0017169
13550.0 0.0017166
13570.0 0.0017142
13590.0 0.0017102
13610.0 0.0017051
13630.0 0.0016995
13650.0 0.0016937
13670.0 0.0016883
13690.0 0.0016835
13710.0 0.0016793
13730.0 0.0016759
13750.0 0.0016732
13770.0 0.0016707
13790.0 0.0016683
13810.0 0.0016656
13830.0 0.0016621
13850.0 0.0016576
13870.0 0.0016515
13890.0 0.0016439
13910.0 0.0016345
13930.0 0.001623
13950.0 0.0016098
13970.0 0.0015959
13990.0 0.0015806
14010.0 0.0015646
14030.0 0.0015489
14050.0 0.0015338
14070.0 0.0015189
14090.0 0.0015056
14110.0 0.001494
14130.0 0.0014837
14150.0 0.001475
14170.0 0.0014681
14190.0 0.0014627
14210.0 0.0014587
14230.0 0.0014562
14250.0 0.0014551
14270.0 0.0014556
14290.0 0.0014578
14310.0 0.0014615
14330.0 0.0014669
14350.0 0.0014744
14370.0 0.0014835
14390.0 0.0014938
14410.0 0.0015062
14430.0 0.0015201
14450.0 0.0015346
14470.0 0.0015501
14490.0 0.0015676
14510.0 0.0015853
14530.0 0.0016034
14550.0 0.0016235
14570.0 0.0016455
14590.0 0.0016684
14610.0 0.0016941
14630.0 0.0017241
14650.0 0.0017565
14670.0 0.0017919
14690.0 0.0018326
14710.0 0.0018781
14730.0 0.0019246
14750.0 0.0019755
14770.0 0.0020307
14790.0 0.0020866
14810.0 0.0021422
14830.0 0.0022017
14850.0 0.0022591
14870.0 0.0023122
14890.0 0.0023628
14910.0 0.0024101
14930.0 0.0024501
14950.0 0.002483
14970.0 0.0025105
14990.0 0.0025303
15010.0 0.0025428
15030.0 0.0025497
15050.0 0.0025517
15070.0 0.0025498
15090.0 0.0025454
15110.0 0.0025393
15130.0 0.0025323
15150.0 0.0025251
15170.0 0.0025175
15190.0 0.0025096
15210.0 0.002502
15230.0 0.0024945
15250.0 0.0024867
15270.0 0.002479
15290.0 0.0024718
15310.0 0.0024643
15330.0 0.0024568
15350.0 0.0024495
15370.0 0.0024423
15390.0 0.0024348
15410.0 0.0024275
15430.0 0.0024204
15450.0 0.0024132
15470.0 0.0024058
15490.0 0.0023989
15510.0 0.0023919
15530.0 0.0023847
15550.0 0.0023777
15570.0 0.0023709
15590.0 0.0023638
15610.0 0.0023567
15630.0 0.0023499
15650.0 0.0023431
15670.0 0.0023361
15690.0 0.0023292
15710.0 0.0023226
15730.0 0.0023157
15750.0 0.0023088
15770.0 0.0023022
15790.0 0.0022955
15810.0 0.0022885
15830.0 0.0022818
15850.0 0.0022752
15870.0 0.0022685
15890.0 0.0022617
15910.0 0.0022552
15930.0 0.0022486
15950.0 0.0022417
15970.0 0.0022351
15990.0 0.0022286
16010.0 0.0022218
16030.0 0.002215
16050.0 0.0022086
16070.0 0.002202
16090.0 0.0021952
16110.0 0.0021886
16130.0 0.0021822
16150.0 0.0021753
16170.0 0.0021685
16190.0 0.002162
16210.0 0.0021554
16230.0 0.0021486
16250.0 0.002142
16270.0 0.0021355
16290.0 0.0021287
16310.0 0.0021219
16330.0 0.0021154
16350.0 0.0021087
16370.0 0.0021017
16390.0 0.0020951
16410.0 0.0020885
16430.0 0.0020816
16450.0 0.0020748
16470.0 0.0020682
16490.0 0.0020614
16510.0 0.0020544
16530.0 0.0020476
16550.0 0.0020409
16570.0 0.0020338
16590.0 0.0020269
16610.0 0.0020202
16630.0 0.0020133
16650.0 0.0020062
16670.0 0.0019994
16690.0 0.0019926
16710.0 0.0019853
16730.0 0.0019783
16750.0 0.0019714
16770.0 0.0019643
16790.0 0.001957
16810.0 0.0019501
16830.0 0.0019431
16850.0 0.0019358
16870.0 0.0019287
16890.0 0.0019217
16910.0 0.0019143
16930.0 0.0019069
16950.0 0.0018998
16970.0 0.0018926
16990.0 0.0018851
17010.0 0.0018778
17030.0 0.0018707
17050.0 0.0018632
17070.0 0.0018557
17090.0 0.0018485
17110.0 0.0018411
17130.0 0.0018333
17150.0 0.0018259
17170.0 0.0018186
17190.0 0.001811
17210.0 0.0018033
17230.0 0.001796
17250.0 0.0017884
17270.0 0.0017805
17290.0 0.0017729
17310.0 0.0017654
17330.0 0.0017576
17350.0 0.0017497
17370.0 0.0017422
17390.0 0.0017345
17410.0 0.0017265
17430.0 0.0017188
17450.0 0.0017112
17470.0 0.0017031
17490.0 0.0016951
17510.0 0.0016874
17530.0 0.0016795
17550.0 0.0016714
17570.0 0.0016636
17590.0 0.0016558
17610.0 0.0016477
17630.0 0.0016396
17650.0 0.0016318
17670.0 0.0016238
17690.0 0.0016154
17710.0 0.0016075
17730.0 0.0015995
17750.0 0.0015913
17770.0 0.0015832
17790.0 0.0015753
17810.0 0.001567
17830.0 0.0015587
17850.0 0.0015506
17870.0 0.0015426
17890.0 0.0015342
17910.0 0.0015259
17930.0 0.0015179
17950.0 0.0015096
17970.0 0.0015012
17990.0 0.0014931
18010.0 0.001485
18030.0 0.0014764
18050.0 0.0014681
18070.0 0.00146
18090.0 0.0014516
18110.0 0.0014431
18130.0 0.001435
18150.0 0.0014268
18170.0 0.0014183
18190.0 0.00141
18210.0 0.0014018
18230.0 0.0013933
18250.0 0.0013848
18270.0 0.0013766
18290.0 0.0013683
18310.0 0.0013597
18330.0 0.0013514
18350.0 0.0013433
18370.0 0.0013348
18390.0 0.0013263
18410.0 0.001318
18430.0 0.0013097
18450.0 0.0013011
18470.0 0.0012927
18490.0 0.0012845
18510.0 0.0012761
18530.0 0.0012676
18550.0 0.0012595
18570.0 0.0012511
18590.0 0.0012425
18610.0 0.0012342
18630.0 0.001226
18650.0 0.0012175
18670.0 0.001209
18690.0 0.0012009
18710.0 0.0011926
18730.0 0.0011841
18750.0 0.0011759
18770.0 0.0011677
18790.0 0.0011592
18810.0 0.0011508
18830.0 0.0011427
18850.0 0.0011344
18870.0 0.0011259
18890.0 0.0011178
18910.0 0.0011097
18930.0 0.0011013
18950.0 0.001093
18970.0 0.0010849
18990.0 0.0010767
19010.0 0.0010681
19030.0 0.0010601
19050.0 0.001052
19070.0 0.0010437
19090.0 0.0010356
19110.0 0.0010277
19130.0 0.0010194
19150.0 0.0010111
19170.0 0.0010031
19190.0 0.00099511
19210.0 0.00098683
19230.0 0.00097871
19250.0 0.00097088
19270.0 0.00096279
19290.0 0.00095466
19310.0 0.00094681
19330.0 0.00093891
19350.0 0.00093064
19370.0 0.0009227
19390.0 0.0009149
19410.0 0.00090689
19430.0 0.00089882
19450.0 0.00089111
19470.0 0.0008833
19490.0 0.00087528
19510.0 0.00086747
19530.0 0.0008598
19550.0 0.00085183
19570.0 0.00084385
19590.0 0.00083624
19610.0 0.00082852
19630.0 0.00082063
19650.0 0.00081297
19670.0 0.00080545
19690.0 0.00079761
19710.0 0.00078985
19730.0 0.00078233
19750.0 0.00077471
19770.0 0.00076684
19790.0 0.00075931
19810.0 0.00075188
19830.0 0.00074419
19850.0 0.00073651
19870.0 0.000729
19890.0 0.00072107
19910.0 0.00071255
19930.0 0.00070371
19950.0 0.00069402
19970.0 0.00068271
19990.0 0.00066985
20010.0 0.00065601
20030.0 0.0006402
20050.0 0.00062283
20070.0 0.00060521
20090.0 0.00058751
20110.0 0.00056903
20130.0 0.00055188
20150.0 0.00053633
20170.0 0.00052165
20190.0 0.00050821
20210.0 0.00049676
20230.0 0.0004867
20250.0 0.0004777
20270.0 0.00047032
20290.0 0.00046439
20310.0 0.00045953
20330.0 0.00045581
20350.0 0.00045341
20370.0 0.00045198
20390.0 0.00045157
20410.0 0.00045215
20430.0 0.00045362
20450.0 0.00045616
20470.0 0.00045971
20490.0 0.00046408
20510.0 0.00046939
20530.0 0.00047589
20550.0 0.00048314
20570.0 0.00049089
20590.0 0.00049971
20610.0 0.00050918
20630.0 0.00051877
20650.0 0.00052879
20670.0 0.00053949
20690.0 0.00054969
20710.0 0.00055953
20730.0 0.0005694
20750.0 0.00057888
20770.0 0.00058743
20790.0 0.00059567
20810.0 0.00060367
20830.0 0.00061101
20850.0 0.0006179
20870.0 0.00062492
20890.0 0.00063186
20910.0 0.00063846
20930.0 0.00064536
20950.0 0.00065261
20970.0 0.00065981
20990.0 0.00066703
21010.0 0.00067472
21030.0 0.00068222
21050.0 0.00068924
21070.0 0.00069603
21090.0 0.00070246
21110.0 0.00070781
21130.0 0.00071229
21150.0 0.00071596
21170.0 0.00071853
21190.0 0.00071995
21210.0 0.00072036
21230.0 0.00071964
21250.0 0.00071788
21270.0 0.00071518
21290.0 0.00071147
21310.0 0.00070693
21330.0 0.00070187
21350.0 0.00069601
21370.0 0.00068949
21390.0 0.00068272
21410.0 0.00067563
21430.0 0.00066787
21450.0 0.00066017
21470.0 0.00065264
21490.0 0.00064493
21510.0 0.00063725
21530.0 0.00063009
21550.0 0.0006232
21570.0 0.00061646
21590.0 0.00061039
21610.0 0.00060503
21630.0 0.00060016
21650.0 0.00059597
21670.0 0.00059283
21690.0 0.00059046
21710.0 0.00058896
21730.0 0.00058843
21750.0 0.00058881
21770.0 0.00059021
21790.0 0.00059263
21810.0 0.00059588
21830.0 0.00060006
21850.0 0.00060533
21870.0 0.00061129
21890.0 0.00061779
21910.0 0.00062528
21930.0 0.00063341
21950.0 0.00064178
21970.0 0.00065072
21990.0 0.0006605
22010.0 0.00067008
22030.0 0.00067967
22050.0 0.00068965
22070.0 0.00069959
22090.0 0.0007089
22110.0 0.00071817
22130.0 0.00072728
22150.0 0.00073559
22170.0 0.00074317
22190.0 0.00075034
22210.0 0.00075655
22230.0 0.00076149
22250.0 0.00076552
22270.0 0.00076842
22290.0 0.00076998
22310.0 0.00077027
22330.0 0.00076918
22350.0 0.00076663
22370.0 0.00076276
22390.0 0.00075741
22410.0 0.00075039
22430.0 0.00074234
22450.0 0.0007331
22470.0 0.00072228
22490.0 0.00071043
22510.0 0.00069801
22530.0 0.00068417
22550.0 0.00066924
22570.0 0.00065429
22590.0 0.00063886
22610.0 0.00062249
22630.0 0.00060609
22650.0 0.00059026
22670.0 0.00057382
22690.0 0.00055734
22710.0 0.00054166
22730.0 0.00052634
22750.0 0.00051063
22770.0 0.00049607
22790.0 0.00048255
22810.0 0.00046934
22830.0 0.00045685
22850.0 0.00044577
22870.0 0.00043551
22890.0 0.00042595
22910.0 0.00041781
22930.0 0.00041099
22950.0 0.00040521
22970.0 0.0004007
22990.0 0.00039781
23010.0 0.00039617
23030.0 0.00039592
23050.0 0.00039706
23070.0 0.00039943
23090.0 0.0004033
23110.0 0.00040844
23130.0 0.00041451
23150.0 0.00042165
23170.0 0.00042996
23190.0 0.00043875
23210.0 0.00044782
23230.0 0.00045765
23250.0 0.00046763
23270.0 0.00047725
23290.0 0.00048685
23310.0 0.00049648
23330.0 0.00050505
23350.0 0.00051286
23370.0 0.00052007
23390.0 0.00052627
23410.0 0.0005312
23430.0 0.0005352
23450.0 0.00053809
23470.0 0.00053971
23490.0 0.00054021
23510.0 0.00053955
23530.0 0.00053772
23550.0 0.00053498
23570.0 0.00053122
23590.0 0.00052648
23610.0 0.00052112
23630.0 0.00051516
23650.0 0.00050831
23670.0 0.00050117
23690.0 0.00049396
23710.0 0.00048647
23730.0 0.00047885
23750.0 0.00047188
23770.0 0.00046538
23790.0 0.00045935
23810.0 0.00045436
