#lamb flux
1010.0 4.9641e-08
1030.0 5.3217e-08
1050.0 5.7343e-08
1070.0 6.1991e-08
1090.0 6.7273e-08
1110.0 7.2699e-08
1130.0 7.8171e-08
1150.0 8.3913e-08
1170.0 8.9849e-08
1190.0 9.5495e-08
1210.0 1.0123e-07
1230.0 1.0717e-07
1250.0 1.1302e-07
1270.0 1.1871e-07
1290.0 1.2475e-07
1310.0 1.308e-07
1330.0 1.3663e-07
1350.0 1.4255e-07
1370.0 1.4868e-07
1390.0 1.5469e-07
1410.0 1.6055e-07
1430.0 1.6669e-07
1450.0 1.7286e-07
1470.0 1.7886e-07
1490.0 1.8495e-07
1510.0 1.9139e-07
1530.0 1.9753e-07
1550.0 2.0362e-07
1570.0 2.0992e-07
1590.0 2.1624e-07
1610.0 2.223e-07
1630.0 2.2855e-07
1650.0 2.3495e-07
1670.0 2.4115e-07
1690.0 2.4726e-07
1710.0 2.5358e-07
1730.0 2.599e-07
1750.0 2.6583e-07
1770.0 2.7188e-07
1790.0 2.7801e-07
1810.0 2.8388e-07
1830.0 2.8958e-07
1850.0 2.9557e-07
1870.0 3.0131e-07
1890.0 3.0676e-07
1910.0 3.1223e-07
1930.0 3.1774e-07
1950.0 3.2287e-07
1970.0 3.2781e-07
1990.0 3.3286e-07
2010.0 3.3768e-07
2030.0 3.4218e-07
2050.0 3.4673e-07
2070.0 3.5129e-07
2090.0 3.5541e-07
2110.0 3.5939e-07
2130.0 3.6343e-07
2150.0 3.6725e-07
2170.0 3.7074e-07
2190.0 3.7433e-07
2210.0 3.7786e-07
2230.0 3.811e-07
2250.0 3.8425e-07
2270.0 3.8758e-07
2290.0 3.9068e-07
2310.0 3.9353e-07
2330.0 3.965e-07
2350.0 3.995e-07
2370.0 4.0228e-07
2390.0 4.051e-07
2410.0 4.0818e-07
2430.0 4.1113e-07
2450.0 4.1403e-07
2470.0 4.1724e-07
2490.0 4.2094e-07
2510.0 4.2523e-07
2530.0 4.3167e-07
2550.0 4.4277e-07
2570.0 4.6122e-07
2590.0 4.9023e-07
2610.0 5.3793e-07
2630.0 6.0663e-07
2650.0 6.9294e-07
2670.0 7.98e-07
2690.0 9.1831e-07
2710.0 1.0379e-06
2730.0 1.1489e-06
2750.0 1.2532e-06
2770.0 1.3417e-06
2790.0 1.4132e-06
2810.0 1.4749e-06
2830.0 1.5322e-06
2850.0 1.5826e-06
2870.0 1.6319e-06
2890.0 1.6838e-06
2910.0 1.7372e-06
2930.0 1.7902e-06
2950.0 1.847e-06
2970.0 1.907e-06
2990.0 1.9671e-06
3010.0 8.8944e-06
3030.0 9.1762e-06
3050.0 9.4552e-06
3070.0 9.7035e-06
3090.0 9.9124e-06
3110.0 1.0022e-05
3130.0 9.9629e-06
3150.0 9.6614e-06
3170.0 8.9713e-06
3190.0 7.8818e-06
3210.0 6.4183e-06
3230.0 4.7814e-06
3250.0 6.4202e-06
3270.0 4.6302e-06
3290.0 8.542e-06
3310.0 4.3796e-06
3330.0 4.3742e-06
3350.0 4.9423e-06
3370.0 5.6311e-06
3390.0 6.3924e-06
3410.0 7.1579e-06
3430.0 7.966e-06
3450.0 8.7871e-06
3470.0 9.5514e-06
3490.0 1.0111e-05
3510.0 1.1783e-05
3530.0 1.4657e-05
3550.0 1.439e-05
3570.0 1.2338e-05
3590.0 1.5893e-05
3610.0 1.1291e-05
3630.0 1.6871e-05
3650.0 1.9351e-05
3670.0 2.3889e-05
3690.0 2.2369e-05
3710.0 1.5865e-05
3730.0 1.9521e-05
3750.0 1.9876e-05
3770.0 2.1489e-05
3790.0 2.1498e-05
3810.0 2.3049e-05
3830.0 3.5401e-05
3850.0 4.4085e-05
3870.0 5.3805e-05
3890.0 5.3309e-05
3910.0 4.8575e-05
3930.0 4.8928e-05
3950.0 5.2199e-05
3970.0 5.4225e-05
3990.0 3.3566e-05
4010.0 1.8906e-05
4030.0 3.3869e-05
4050.0 4.5871e-05
4070.0 4.7204e-05
4090.0 3.1006e-05
4110.0 2.0597e-05
4130.0 3.4699e-05
4150.0 3.6727e-05
4170.0 3.2732e-05
4190.0 2.8782e-05
4210.0 4.1462e-05
4230.0 3.2652e-05
4250.0 3.3865e-05
4270.0 3.3621e-05
4290.0 3.1193e-05
4310.0 3.9635e-05
4330.0 4.3814e-05
4350.0 3.9049e-05
4370.0 3.3771e-05
4390.0 3.9299e-05
4410.0 3.9313e-05
4430.0 2.8913e-05
4450.0 2.4966e-05
4470.0 3.0819e-05
4490.0 2.5037e-05
4510.0 3.5717e-05
4530.0 3.688e-05
4550.0 4.1447e-05
4570.0 5.6435e-05
4590.0 5.8386e-05
4610.0 5.3327e-05
4630.0 7.9902e-05
4650.0 0.00010001
4670.0 9.7358e-05
4690.0 7.6828e-05
4710.0 7.9378e-05
4730.0 8.2422e-05
4750.0 6.5411e-05
4770.0 5.0926e-05
4790.0 3.5849e-05
4810.0 4.5518e-05
4830.0 5.347e-05
4850.0 4.8756e-05
4870.0 2.7379e-05
4890.0 5.6738e-05
4910.0 6.9275e-05
4930.0 7.5519e-05
4950.0 8.1035e-05
4970.0 6.4886e-05
4990.0 7.4699e-05
5010.0 8.3253e-05
5030.0 8.5119e-05
5050.0 7.589e-05
5070.0 5.3895e-05
5090.0 4.4166e-05
5110.0 4.3417e-05
5130.0 4.2639e-05
5150.0 4.2823e-05
5170.0 3.916e-05
5190.0 4.4914e-05
5210.0 4.5937e-05
5230.0 5.0978e-05
5250.0 5.8671e-05
5270.0 5.0689e-05
5290.0 5.4818e-05
5310.0 7.7012e-05
5330.0 8.7481e-05
5350.0 7.5956e-05
5370.0 7.0984e-05
5390.0 8.086e-05
5410.0 9.1635e-05
5430.0 9.5322e-05
5450.0 0.0001002
5470.0 0.00010368
5490.0 0.00011192
5510.0 0.0001344
5530.0 0.00013997
5550.0 0.00014556
5570.0 0.00015044
5590.0 0.00014718
5610.0 0.00013846
5630.0 0.00013678
5650.0 0.00014211
5670.0 0.0001386
5690.0 0.00012088
5710.0 0.00011998
5730.0 0.00011767
5750.0 0.00011755
5770.0 0.00010235
5790.0 0.000101
5810.0 0.00010495
5830.0 0.00011437
5850.0 0.00010855
5870.0 0.00010841
5890.0 0.00012223
5910.0 0.00011377
5930.0 9.7116e-05
5950.0 9.0904e-05
5970.0 9.8106e-05
5990.0 8.8372e-05
6010.0 7.8952e-05
6030.0 7.4775e-05
6050.0 6.8159e-05
6070.0 5.581e-05
6090.0 5.517e-05
6110.0 6.7742e-05
6130.0 7.3656e-05
6150.0 7.5549e-05
6170.0 7.4963e-05
6190.0 7.4065e-05
6210.0 7.983e-05
6230.0 9.5928e-05
6250.0 8.8757e-05
6270.0 7.9033e-05
6290.0 7.0746e-05
6310.0 6.2333e-05
6330.0 5.6942e-05
6350.0 5.2018e-05
6370.0 5.3578e-05
6390.0 6.1475e-05
6410.0 7.561e-05
6430.0 9.0631e-05
6450.0 9.542e-05
6470.0 9.9336e-05
6490.0 0.00011817
6510.0 0.00013355
6530.0 0.0001277
6550.0 0.00012141
6570.0 0.00012299
6590.0 0.00012198
6610.0 0.00012649
6630.0 0.00011828
6650.0 0.00010381
6670.0 9.7232e-05
6690.0 9.6127e-05
6710.0 0.00010848
6730.0 9.5932e-05
6750.0 7.9654e-05
6770.0 7.3757e-05
6790.0 7.8501e-05
6810.0 8.9675e-05
6830.0 8.9849e-05
6850.0 8.1074e-05
6870.0 8.3028e-05
6890.0 8.2395e-05
6910.0 7.746e-05
6930.0 8.36e-05
6950.0 7.8942e-05
6970.0 7.4774e-05
6990.0 7.519e-05
7010.0 7.7275e-05
7030.0 7.5564e-05
7050.0 7.1338e-05
7070.0 7.397e-05
7090.0 6.7816e-05
7110.0 5.773e-05
7130.0 5.1853e-05
7150.0 5.2464e-05
7170.0 6.3097e-05
7190.0 6.5755e-05
7210.0 6.2717e-05
7230.0 6.6823e-05
7250.0 6.7171e-05
7270.0 6.6851e-05
7290.0 7.0883e-05
7310.0 7.5481e-05
7330.0 7.2823e-05
7350.0 6.7539e-05
7370.0 6.2431e-05
7390.0 6.1948e-05
7410.0 7.0185e-05
7430.0 7.9886e-05
7450.0 8.5843e-05
7470.0 8.9301e-05
7490.0 0.00010127
7510.0 0.00010033
7530.0 8.7716e-05
7550.0 8.0525e-05
7570.0 6.878e-05
7590.0 6.3778e-05
7610.0 6.1653e-05
7630.0 5.7841e-05
7650.0 6.207e-05
7670.0 6.929e-05
7690.0 7.5534e-05
7710.0 8.6211e-05
7730.0 8.988e-05
7750.0 9.313e-05
7770.0 9.7974e-05
7790.0 0.0001049
7810.0 0.00010464
7830.0 9.4169e-05
7850.0 9.4172e-05
7870.0 9.1003e-05
7890.0 9.1197e-05
7910.0 8.5425e-05
7930.0 8.3637e-05
7950.0 6.9761e-05
7970.0 6.9079e-05
7990.0 6.737e-05
8010.0 7.4946e-05
8030.0 7.4658e-05
8050.0 7.9185e-05
8070.0 7.6144e-05
8090.0 7.6347e-05
8110.0 7.509e-05
8130.0 7.3555e-05
8150.0 6.8637e-05
8170.0 6.7459e-05
8190.0 6.7443e-05
8210.0 6.8025e-05
8230.0 5.9788e-05
8250.0 5.475e-05
8270.0 4.8299e-05
8290.0 4.0961e-05
8310.0 3.5677e-05
8330.0 2.7863e-05
8350.0 2.2268e-05
8370.0 2.1185e-05
8390.0 2.0665e-05
8410.0 2.1881e-05
8430.0 2.8173e-05
8450.0 3.0773e-05
8470.0 3.3165e-05
8490.0 3.86e-05
8510.0 4.1931e-05
8530.0 4.7381e-05
8550.0 5.5975e-05
8570.0 6.1545e-05
8590.0 6.4737e-05
8610.0 7.2267e-05
8630.0 8.255e-05
8650.0 8.4864e-05
8670.0 8.661e-05
8690.0 8.9294e-05
8710.0 8.7311e-05
8730.0 8.4117e-05
8750.0 7.7273e-05
8770.0 7.703e-05
8790.0 7.5637e-05
8810.0 6.9496e-05
8830.0 6.9023e-05
8850.0 6.2544e-05
8870.0 5.9277e-05
8890.0 5.3114e-05
8910.0 5.9368e-05
8930.0 5.3809e-05
8950.0 5.4104e-05
8970.0 5.5297e-05
8990.0 5.3796e-05
9010.0 5.5101e-05
9030.0 5.2308e-05
9050.0 5.2071e-05
9070.0 5.2109e-05
9090.0 5.2137e-05
9110.0 5.2203e-05
9130.0 5.222e-05
9150.0 5.221e-05
9170.0 5.2064e-05
9190.0 5.1724e-05
9210.0 5.2536e-05
9230.0 5.2333e-05
9250.0 5.2226e-05
9270.0 5.2141e-05
9290.0 5.207e-05
9310.0 5.2006e-05
9330.0 5.1945e-05
9350.0 5.1887e-05
9370.0 5.1826e-05
9390.0 5.176e-05
9410.0 5.1693e-05
9430.0 5.1624e-05
9450.0 5.155e-05
9470.0 5.1472e-05
9490.0 5.1395e-05
9510.0 5.1313e-05
9530.0 5.1228e-05
9550.0 5.1145e-05
9570.0 5.1061e-05
9590.0 5.0973e-05
9610.0 5.0885e-05
9630.0 5.0799e-05
9650.0 5.0712e-05
9670.0 5.0621e-05
9690.0 5.0534e-05
9710.0 5.0448e-05
9730.0 5.0359e-05
9750.0 5.0273e-05
9770.0 5.0192e-05
9790.0 5.0108e-05
9810.0 5.0024e-05
9830.0 4.9945e-05
9850.0 4.9869e-05
9870.0 4.9789e-05
9890.0 4.9714e-05
9910.0 4.9644e-05
9930.0 4.9573e-05
9950.0 4.9436e-05
9970.0 4.9393e-05
9990.0 4.935e-05
10010.0 4.9301e-05
10030.0 4.9251e-05
10050.0 4.9183e-05
10070.0 4.9014e-05
10090.0 4.9007e-05
10110.0 4.8999e-05
10130.0 4.8982e-05
10150.0 4.896e-05
10170.0 4.8933e-05
10190.0 4.8902e-05
10210.0 4.8875e-05
10230.0 4.885e-05
10250.0 4.8824e-05
10270.0 4.8802e-05
10290.0 4.8785e-05
10310.0 4.8768e-05
10330.0 4.8752e-05
10350.0 4.8742e-05
10370.0 4.8735e-05
10390.0 4.8728e-05
10410.0 4.8724e-05
10430.0 4.8727e-05
10450.0 4.8729e-05
10470.0 4.8732e-05
10490.0 4.874e-05
10510.0 4.875e-05
10530.0 4.876e-05
10550.0 4.8773e-05
10570.0 4.879e-05
10590.0 4.8808e-05
10610.0 4.8827e-05
10630.0 4.885e-05
10650.0 4.8875e-05
10670.0 4.8899e-05
10690.0 4.8926e-05
10710.0 4.8956e-05
10730.0 4.8986e-05
10750.0 4.9016e-05
10770.0 4.9051e-05
10790.0 4.9086e-05
10810.0 4.912e-05
10830.0 4.9155e-05
10850.0 4.9188e-05
10870.0 4.9209e-05
10890.0 4.921e-05
10910.0 4.9177e-05
10930.0 4.9085e-05
10950.0 4.889e-05
10970.0 4.857e-05
10990.0 4.8114e-05
11010.0 4.913e-05
11030.0 4.823e-05
11050.0 4.7178e-05
11070.0 4.5962e-05
11090.0 4.4554e-05
11110.0 4.3152e-05
11130.0 4.1752e-05
11150.0 4.0321e-05
11170.0 3.8935e-05
11190.0 3.7677e-05
11210.0 3.647e-05
11230.0 3.5328e-05
11250.0 3.4326e-05
11270.0 3.3438e-05
11290.0 3.2615e-05
11310.0 3.1891e-05
11330.0 3.1285e-05
11350.0 3.0729e-05
11370.0 3.0214e-05
11390.0 2.9748e-05
11410.0 2.9307e-05
11430.0 2.8842e-05
11450.0 2.8375e-05
11470.0 2.7902e-05
11490.0 2.7392e-05
11510.0 2.6832e-05
11530.0 2.6265e-05
11550.0 2.5675e-05
11570.0 2.5036e-05
11590.0 2.4385e-05
11610.0 2.3743e-05
11630.0 2.3072e-05
11650.0 2.2386e-05
11670.0 2.1739e-05
11690.0 2.1105e-05
11710.0 2.0468e-05
11730.0 1.9858e-05
11750.0 1.9296e-05
11770.0 1.8735e-05
11790.0 1.8192e-05
11810.0 1.769e-05
11830.0 1.7212e-05
11850.0 1.673e-05
11870.0 1.6281e-05
11890.0 1.5863e-05
11910.0 1.5446e-05
11930.0 1.5034e-05
11950.0 1.4649e-05
11970.0 1.4267e-05
11990.0 1.3876e-05
12010.0 1.3503e-05
12030.0 1.3145e-05
12050.0 1.2784e-05
12070.0 1.2427e-05
12090.0 1.2107e-05
12110.0 1.18e-05
12130.0 1.1506e-05
12150.0 1.1247e-05
12170.0 1.1027e-05
12190.0 1.0832e-05
12210.0 1.0683e-05
12230.0 1.0587e-05
12250.0 1.054e-05
12270.0 1.0548e-05
12290.0 1.0612e-05
12310.0 1.0726e-05
12330.0 1.0898e-05
12350.0 1.1121e-05
12370.0 1.1378e-05
12390.0 1.1674e-05
12410.0 1.2014e-05
12430.0 1.2354e-05
12450.0 1.2697e-05
12470.0 1.3049e-05
12490.0 1.3389e-05
12510.0 1.3697e-05
12530.0 1.399e-05
12550.0 1.4258e-05
12570.0 1.4485e-05
12590.0 1.4676e-05
12610.0 1.4837e-05
12630.0 1.4962e-05
12650.0 1.5047e-05
12670.0 1.5104e-05
12690.0 1.5132e-05
12710.0 1.5133e-05
12730.0 1.5111e-05
12750.0 1.5065e-05
12770.0 1.5001e-05
12790.0 1.4921e-05
12810.0 1.4824e-05
12830.0 1.4707e-05
12850.0 1.458e-05
12870.0 1.444e-05
12890.0 1.4278e-05
12910.0 1.4101e-05
12930.0 1.3913e-05
12950.0 1.3699e-05
12970.0 1.3461e-05
12990.0 1.3216e-05
13010.0 1.2955e-05
13030.0 1.267e-05
13050.0 1.2376e-05
13070.0 1.2087e-05
13090.0 1.1781e-05
13110.0 1.1474e-05
13130.0 1.1183e-05
13150.0 1.0904e-05
13170.0 1.0628e-05
13190.0 1.0385e-05
13210.0 1.0176e-05
13230.0 9.9886e-06
13250.0 9.8328e-06
13270.0 9.716e-06
13290.0 9.6287e-06
13310.0 9.5695e-06
13330.0 9.5409e-06
13350.0 9.5355e-06
13370.0 9.5477e-06
13390.0 9.5728e-06
13410.0 9.6027e-06
13430.0 9.6328e-06
13450.0 9.6578e-06
13470.0 9.6722e-06
13490.0 9.6737e-06
13510.0 9.6585e-06
13530.0 9.6261e-06
13550.0 9.5796e-06
13570.0 9.5185e-06
13590.0 9.4433e-06
13610.0 9.3623e-06
13630.0 9.2789e-06
13650.0 9.19e-06
13670.0 9.1033e-06
13690.0 9.0233e-06
13710.0 8.9473e-06
13730.0 8.8747e-06
13750.0 8.813e-06
13770.0 8.7574e-06
13790.0 8.7048e-06
13810.0 8.6557e-06
13830.0 8.6097e-06
13850.0 8.5617e-06
13870.0 8.5103e-06
13890.0 8.4565e-06
13910.0 8.3983e-06
13930.0 8.3325e-06
13950.0 8.2615e-06
13970.0 8.1897e-06
13990.0 8.113e-06
14010.0 8.0337e-06
14030.0 7.9575e-06
14050.0 7.8843e-06
14070.0 7.812e-06
14090.0 7.7476e-06
14110.0 7.6917e-06
14130.0 7.6424e-06
14150.0 7.6009e-06
14170.0 7.569e-06
14190.0 7.5449e-06
14210.0 7.5285e-06
14230.0 7.5201e-06
14250.0 7.5189e-06
14270.0 7.5259e-06
14290.0 7.5415e-06
14310.0 7.5635e-06
14330.0 7.593e-06
14350.0 7.6316e-06
14370.0 7.6762e-06
14390.0 7.7245e-06
14410.0 7.7807e-06
14430.0 7.8414e-06
14450.0 7.9022e-06
14470.0 7.965e-06
14490.0 8.0329e-06
14510.0 8.0982e-06
14530.0 8.1619e-06
14550.0 8.2297e-06
14570.0 8.3006e-06
14590.0 8.3717e-06
14610.0 8.4501e-06
14630.0 8.5407e-06
14650.0 8.6381e-06
14670.0 8.745e-06
14690.0 8.8701e-06
14710.0 9.0129e-06
14730.0 9.1608e-06
14750.0 9.3267e-06
14770.0 9.5119e-06
14790.0 9.7037e-06
14810.0 9.8995e-06
14830.0 1.0116e-05
14850.0 1.0332e-05
14870.0 1.0537e-05
14890.0 1.0739e-05
14910.0 1.0935e-05
14930.0 1.1104e-05
14950.0 1.1247e-05
14970.0 1.1369e-05
14990.0 1.1457e-05
15010.0 1.151e-05
15030.0 1.1536e-05
15050.0 1.1536e-05
15070.0 1.1515e-05
15090.0 1.148e-05
15110.0 1.1436e-05
15130.0 1.1386e-05
15150.0 1.1334e-05
15170.0 1.128e-05
15190.0 1.1225e-05
15210.0 1.1171e-05
15230.0 1.1117e-05
15250.0 1.1062e-05
15270.0 1.1007e-05
15290.0 1.0954e-05
15310.0 1.09e-05
15330.0 1.0846e-05
15350.0 1.0793e-05
15370.0 1.074e-05
15390.0 1.0686e-05
15410.0 1.0633e-05
15430.0 1.0581e-05
15450.0 1.0528e-05
15470.0 1.0475e-05
15490.0 1.0423e-05
15510.0 1.0372e-05
15530.0 1.0319e-05
15550.0 1.0268e-05
15570.0 1.0217e-05
15590.0 1.0166e-05
15610.0 1.0114e-05
15630.0 1.0064e-05
15650.0 1.0014e-05
15670.0 9.9633e-06
15690.0 9.9134e-06
15710.0 9.8646e-06
15730.0 9.8149e-06
15750.0 9.7653e-06
15770.0 9.7169e-06
15790.0 9.6685e-06
15810.0 9.6191e-06
15830.0 9.571e-06
15850.0 9.5238e-06
15870.0 9.476e-06
15890.0 9.4283e-06
15910.0 9.3819e-06
15930.0 9.3351e-06
15950.0 9.2877e-06
15970.0 9.2415e-06
15990.0 9.1959e-06
16010.0 9.1496e-06
16030.0 9.1034e-06
16050.0 9.0588e-06
16070.0 9.0139e-06
16090.0 8.9686e-06
16110.0 8.9242e-06
16130.0 8.8806e-06
16150.0 8.8356e-06
16170.0 8.7914e-06
16190.0 8.7484e-06
16210.0 8.705e-06
16230.0 8.6613e-06
16250.0 8.6187e-06
16270.0 8.5767e-06
16290.0 8.5338e-06
16310.0 8.4914e-06
16330.0 8.4501e-06
16350.0 8.4084e-06
16370.0 8.3657e-06
16390.0 8.3249e-06
16410.0 8.2843e-06
16430.0 8.2431e-06
16450.0 8.2023e-06
16470.0 8.1628e-06
16490.0 8.1223e-06
16510.0 8.0818e-06
16530.0 8.0423e-06
16550.0 8.0031e-06
16570.0 7.9631e-06
16590.0 7.9236e-06
16610.0 7.8854e-06
16630.0 7.8466e-06
16650.0 7.8076e-06
16670.0 7.7697e-06
16690.0 7.732e-06
16710.0 7.693e-06
16730.0 7.6551e-06
16750.0 7.618e-06
16770.0 7.5804e-06
16790.0 7.5425e-06
16810.0 7.5059e-06
16830.0 7.4694e-06
16850.0 7.4321e-06
16870.0 7.3955e-06
16890.0 7.3597e-06
16910.0 7.323e-06
16930.0 7.2861e-06
16950.0 7.2507e-06
16970.0 7.2151e-06
16990.0 7.1789e-06
17010.0 7.1435e-06
17030.0 7.1089e-06
17050.0 7.0733e-06
17070.0 7.0378e-06
17090.0 7.0034e-06
17110.0 6.9688e-06
17130.0 6.9331e-06
17150.0 6.8987e-06
17170.0 6.865e-06
17190.0 6.8305e-06
17210.0 6.796e-06
17230.0 6.7628e-06
17250.0 6.7289e-06
17270.0 6.6944e-06
17290.0 6.661e-06
17310.0 6.6279e-06
17330.0 6.5941e-06
17350.0 6.5602e-06
17370.0 6.5279e-06
17390.0 6.495e-06
17410.0 6.4616e-06
17430.0 6.429e-06
17450.0 6.397e-06
17470.0 6.3635e-06
17490.0 6.3307e-06
17510.0 6.2989e-06
17530.0 6.2666e-06
17550.0 6.2339e-06
17570.0 6.2022e-06
17590.0 6.1708e-06
17610.0 6.1384e-06
17630.0 6.1065e-06
17650.0 6.0755e-06
17670.0 6.0438e-06
17690.0 6.0113e-06
17710.0 5.9804e-06
17730.0 5.9496e-06
17750.0 5.918e-06
17770.0 5.8868e-06
17790.0 5.8567e-06
17810.0 5.8255e-06
17830.0 5.7941e-06
17850.0 5.7637e-06
17870.0 5.7334e-06
17890.0 5.7022e-06
17910.0 5.6715e-06
17930.0 5.642e-06
17950.0 5.6116e-06
17970.0 5.581e-06
17990.0 5.5514e-06
18010.0 5.5218e-06
18030.0 5.491e-06
18050.0 5.4612e-06
18070.0 5.4319e-06
18090.0 5.4021e-06
18110.0 5.3719e-06
18130.0 5.3431e-06
18150.0 5.314e-06
18170.0 5.2842e-06
18190.0 5.255e-06
18210.0 5.2265e-06
18230.0 5.197e-06
18250.0 5.1673e-06
18270.0 5.139e-06
18290.0 5.1104e-06
18310.0 5.0812e-06
18330.0 5.0527e-06
18350.0 5.0249e-06
18370.0 4.9959e-06
18390.0 4.9672e-06
18410.0 4.9394e-06
18430.0 4.9113e-06
18450.0 4.8823e-06
18470.0 4.8544e-06
18490.0 4.827e-06
18510.0 4.7989e-06
18530.0 4.7708e-06
18550.0 4.7438e-06
18570.0 4.7162e-06
18590.0 4.6879e-06
18610.0 4.6606e-06
18630.0 4.6337e-06
18650.0 4.6059e-06
18670.0 4.5782e-06
18690.0 4.5519e-06
18710.0 4.5249e-06
18730.0 4.4975e-06
18750.0 4.4709e-06
18770.0 4.4447e-06
18790.0 4.417e-06
18810.0 4.3902e-06
18830.0 4.3642e-06
18850.0 4.3377e-06
18870.0 4.3107e-06
18890.0 4.2849e-06
18910.0 4.2591e-06
18930.0 4.2325e-06
18950.0 4.2063e-06
18970.0 4.1809e-06
18990.0 4.1549e-06
19010.0 4.128e-06
19030.0 4.1029e-06
19050.0 4.0776e-06
19070.0 4.0516e-06
19090.0 4.0261e-06
19110.0 4.0015e-06
19130.0 3.9758e-06
19150.0 3.95e-06
19170.0 3.9252e-06
19190.0 3.9004e-06
19210.0 3.8748e-06
19230.0 3.8497e-06
19250.0 3.8256e-06
19270.0 3.8007e-06
19290.0 3.7757e-06
19310.0 3.7516e-06
19330.0 3.7274e-06
19350.0 3.702e-06
19370.0 3.6777e-06
19390.0 3.6539e-06
19410.0 3.6295e-06
19430.0 3.6049e-06
19450.0 3.5815e-06
19470.0 3.5577e-06
19490.0 3.5334e-06
19510.0 3.5097e-06
19530.0 3.4865e-06
19550.0 3.4623e-06
19570.0 3.4382e-06
19590.0 3.4152e-06
19610.0 3.392e-06
19630.0 3.3681e-06
19650.0 3.3451e-06
19670.0 3.3225e-06
19690.0 3.2989e-06
19710.0 3.2756e-06
19730.0 3.253e-06
19750.0 3.2302e-06
19770.0 3.2066e-06
19790.0 3.184e-06
19810.0 3.1618e-06
19830.0 3.1388e-06
19850.0 3.1158e-06
19870.0 3.0933e-06
19890.0 3.0693e-06
19910.0 3.0431e-06
19930.0 3.0156e-06
19950.0 2.9848e-06
19970.0 2.9477e-06
19990.0 2.9045e-06
20010.0 2.8569e-06
20030.0 2.8014e-06
20050.0 2.739e-06
20070.0 2.6746e-06
20090.0 2.6086e-06
20110.0 2.5381e-06
20130.0 2.4712e-06
20150.0 2.409e-06
20170.0 2.3486e-06
20190.0 2.2915e-06
20210.0 2.2412e-06
20230.0 2.1954e-06
20250.0 2.1525e-06
20270.0 2.1156e-06
20290.0 2.0845e-06
20310.0 2.0573e-06
20330.0 2.0345e-06
20350.0 2.0182e-06
20370.0 2.0063e-06
20390.0 1.9991e-06
20410.0 1.9971e-06
20430.0 1.9997e-06
20450.0 2.0075e-06
20470.0 2.0206e-06
20490.0 2.038e-06
20510.0 2.0602e-06
20530.0 2.088e-06
20550.0 2.1195e-06
20570.0 2.1537e-06
20590.0 2.1926e-06
20610.0 2.2345e-06
20630.0 2.277e-06
20650.0 2.3214e-06
20670.0 2.3685e-06
20690.0 2.4134e-06
20710.0 2.4564e-06
20730.0 2.4992e-06
20750.0 2.5398e-06
20770.0 2.5759e-06
20790.0 2.6099e-06
20810.0 2.6417e-06
20830.0 2.6697e-06
20850.0 2.6947e-06
20870.0 2.7184e-06
20890.0 2.7402e-06
20910.0 2.7594e-06
20930.0 2.778e-06
20950.0 2.7962e-06
20970.0 2.8132e-06
20990.0 2.8293e-06
21010.0 2.8455e-06
21030.0 2.8605e-06
21050.0 2.8737e-06
21070.0 2.8855e-06
21090.0 2.8956e-06
21110.0 2.9028e-06
21130.0 2.9074e-06
21150.0 2.9093e-06
21170.0 2.9082e-06
21190.0 2.9045e-06
21210.0 2.898e-06
21230.0 2.8886e-06
21250.0 2.8773e-06
21270.0 2.8642e-06
21290.0 2.8491e-06
21310.0 2.8328e-06
21330.0 2.8163e-06
21350.0 2.7988e-06
21370.0 2.7807e-06
21390.0 2.7634e-06
21410.0 2.7465e-06
21430.0 2.7292e-06
21450.0 2.7134e-06
21470.0 2.6991e-06
21490.0 2.6855e-06
21510.0 2.6732e-06
21530.0 2.6629e-06
21550.0 2.6541e-06
21570.0 2.6467e-06
21590.0 2.6414e-06
21610.0 2.6381e-06
21630.0 2.6368e-06
21650.0 2.6378e-06
21670.0 2.6409e-06
21690.0 2.6464e-06
21710.0 2.6545e-06
21730.0 2.6649e-06
21750.0 2.6774e-06
21770.0 2.6933e-06
21790.0 2.7118e-06
21810.0 2.7322e-06
21830.0 2.7552e-06
21850.0 2.7815e-06
21870.0 2.8095e-06
21890.0 2.8386e-06
21910.0 2.8708e-06
21930.0 2.9049e-06
21950.0 2.9391e-06
21970.0 2.975e-06
21990.0 3.0135e-06
22010.0 3.0507e-06
22030.0 3.0874e-06
22050.0 3.125e-06
22070.0 3.1618e-06
22090.0 3.1957e-06
22110.0 3.2288e-06
22130.0 3.2606e-06
22150.0 3.2887e-06
22170.0 3.3135e-06
22190.0 3.3358e-06
22210.0 3.3538e-06
22230.0 3.3666e-06
22250.0 3.3752e-06
22270.0 3.3788e-06
22290.0 3.377e-06
22310.0 3.3702e-06
22330.0 3.3574e-06
22350.0 3.339e-06
22370.0 3.3158e-06
22390.0 3.2868e-06
22410.0 3.2514e-06
22430.0 3.2129e-06
22450.0 3.1702e-06
22470.0 3.1218e-06
22490.0 3.0702e-06
22510.0 3.0174e-06
22530.0 2.9597e-06
22550.0 2.8986e-06
22570.0 2.8387e-06
22590.0 2.7778e-06
22610.0 2.7142e-06
22630.0 2.6515e-06
