#lamb flux
1010.0 1.6723e-07
1030.0 1.8733e-07
1050.0 2.0729e-07
1070.0 2.2984e-07
1090.0 2.5648e-07
1110.0 2.8378e-07
1130.0 3.1133e-07
1150.0 3.4035e-07
1170.0 3.7059e-07
1190.0 3.9983e-07
1210.0 4.3011e-07
1230.0 4.6219e-07
1250.0 4.9448e-07
1270.0 5.2707e-07
1290.0 5.6256e-07
1310.0 5.9938e-07
1330.0 6.3628e-07
1350.0 6.748e-07
1370.0 7.1552e-07
1390.0 7.5652e-07
1410.0 7.9743e-07
1430.0 8.4043e-07
1450.0 8.8391e-07
1470.0 9.2653e-07
1490.0 9.695e-07
1510.0 1.0142e-06
1530.0 1.0566e-06
1550.0 1.098e-06
1570.0 1.1397e-06
1590.0 1.1806e-06
1610.0 1.2186e-06
1630.0 1.2559e-06
1650.0 1.2927e-06
1670.0 1.3266e-06
1690.0 1.3584e-06
1710.0 1.3897e-06
1730.0 1.4192e-06
1750.0 1.4448e-06
1770.0 1.4695e-06
1790.0 1.4931e-06
1810.0 1.5138e-06
1830.0 1.5326e-06
1850.0 1.5519e-06
1870.0 1.5692e-06
1890.0 1.5845e-06
1910.0 1.5998e-06
1930.0 1.6153e-06
1950.0 1.6291e-06
1970.0 1.6424e-06
1990.0 1.6568e-06
2010.0 1.6708e-06
2030.0 1.6837e-06
2050.0 1.6976e-06
2070.0 1.712e-06
2090.0 1.7245e-06
2110.0 1.7364e-06
2130.0 1.7484e-06
2150.0 1.7588e-06
2170.0 1.7667e-06
2190.0 1.7741e-06
2210.0 1.7798e-06
2230.0 1.7824e-06
2250.0 1.7826e-06
2270.0 1.7817e-06
2290.0 1.7773e-06
2310.0 1.7694e-06
2330.0 1.7596e-06
2350.0 1.7474e-06
2370.0 1.7315e-06
2390.0 1.7132e-06
2410.0 1.6932e-06
2430.0 1.6695e-06
2450.0 1.6423e-06
2470.0 1.6122e-06
2490.0 1.579e-06
2510.0 1.5429e-06
2530.0 1.5077e-06
2550.0 1.4786e-06
2570.0 1.4623e-06
2590.0 1.4661e-06
2610.0 1.5054e-06
2630.0 1.5847e-06
2650.0 1.6966e-06
2670.0 1.8413e-06
2690.0 2.0095e-06
2710.0 2.1677e-06
2730.0 2.2965e-06
2750.0 2.3903e-06
2770.0 2.423e-06
2790.0 2.3874e-06
2810.0 2.2874e-06
2830.0 2.1204e-06
2850.0 1.9052e-06
2870.0 1.6534e-06
2890.0 1.3668e-06
2910.0 1.0599e-06
2930.0 7.4971e-07
2950.0 4.2248e-07
2970.0 1.1482e-07
2990.0 1.1482e-07
3010.0 2.3315e-07
3030.0 2.3315e-07
3050.0 2.3315e-07
3070.0 2.3315e-07
3090.0 2.3315e-07
3110.0 2.3315e-07
3130.0 2.3315e-07
3150.0 2.3315e-07
3170.0 2.3315e-07
3190.0 2.3315e-07
3210.0 2.3315e-07
3230.0 9.4778e-06
3250.0 1.6883e-05
3270.0 1.5837e-05
3290.0 1.4784e-05
3310.0 1.1237e-05
3330.0 1.0906e-05
3350.0 1.2045e-05
3370.0 1.3743e-05
3390.0 1.5612e-05
3410.0 1.7617e-05
3430.0 2.0259e-05
3450.0 2.2845e-05
3470.0 2.5524e-05
3490.0 2.6507e-05
3510.0 2.4075e-05
3530.0 2.3156e-05
3550.0 2.5621e-05
3570.0 2.7513e-05
3590.0 2.9819e-05
3610.0 2.9114e-05
3630.0 3.5271e-05
3650.0 3.8508e-05
3670.0 4.0668e-05
3690.0 4.0406e-05
3710.0 3.658e-05
3730.0 3.6123e-05
3750.0 3.4314e-05
3770.0 3.3142e-05
3790.0 3.1212e-05
3810.0 2.9686e-05
3830.0 3.0634e-05
3850.0 1.6233e-05
3870.0 2.1776e-05
3890.0 2.5246e-05
3910.0 3.1036e-05
3930.0 3.9836e-05
3950.0 4.3183e-05
3970.0 4.824e-05
3990.0 5.7788e-05
4010.0 4.9e-05
4030.0 4.2156e-05
4050.0 3.0444e-05
4070.0 2.8691e-05
4090.0 4.2287e-05
4110.0 4.2289e-05
4130.0 4.6031e-05
4150.0 4.4115e-05
4170.0 4.1774e-05
4190.0 3.7914e-05
4210.0 5.1081e-05
4230.0 5.3943e-05
4250.0 5.879e-05
4270.0 5.5971e-05
4290.0 5.5178e-05
4310.0 5.9938e-05
4330.0 7.0399e-05
4350.0 7.348e-05
4370.0 7.3039e-05
4390.0 6.6642e-05
4410.0 6.1485e-05
4430.0 4.7931e-05
4450.0 3.9028e-05
4470.0 4.2141e-05
4490.0 4.9413e-05
4510.0 5.1439e-05
4530.0 5.1846e-05
4550.0 5.2449e-05
4570.0 7.4732e-05
4590.0 0.00011186
4610.0 0.00013143
4630.0 0.00013314
4650.0 0.00014356
4670.0 0.00016739
4690.0 0.00018144
4710.0 0.00015126
4730.0 0.00011537
4750.0 9.0377e-05
4770.0 7.7924e-05
4790.0 7.1278e-05
4810.0 6.7573e-05
4830.0 7.4899e-05
4850.0 8.8504e-05
4870.0 9.7047e-05
4890.0 0.00010136
4910.0 9.5462e-05
4930.0 0.00010321
4950.0 0.00012597
4970.0 0.00014676
4990.0 0.00015219
5010.0 0.00014015
5030.0 0.00011639
5050.0 8.9648e-05
5070.0 7.15e-05
5090.0 6.4572e-05
5110.0 6.3562e-05
5130.0 6.4735e-05
5150.0 6.4278e-05
5170.0 6.0444e-05
5190.0 5.6705e-05
5210.0 5.587e-05
5230.0 6.369e-05
5250.0 7.638e-05
5270.0 9.1917e-05
5290.0 0.00010548
5310.0 0.00011359
5330.0 0.00012613
5350.0 0.00014097
5370.0 0.00014714
5390.0 0.00013433
5410.0 0.00012029
5430.0 0.00011869
5450.0 0.00013946
5470.0 0.00017345
5490.0 0.00020331
5510.0 0.00021787
5530.0 0.0002167
5550.0 0.00020903
5570.0 0.00020411
5590.0 0.00019863
5610.0 0.00019709
5630.0 0.00019837
5650.0 0.00020112
5670.0 0.00019956
5690.0 0.00018301
5710.0 0.00015636
5730.0 0.00014165
5750.0 0.00013757
5770.0 0.00014254
5790.0 0.00014893
5810.0 0.00015627
5830.0 0.00016066
5850.0 0.00015536
5870.0 0.00014868
5890.0 0.00014686
5910.0 0.00015411
5930.0 0.00016248
5950.0 0.00015507
5970.0 0.00013874
5990.0 0.00011632
6010.0 9.497e-05
6030.0 8.7686e-05
6050.0 9.4967e-05
6070.0 0.00010095
6090.0 9.6241e-05
6110.0 8.4945e-05
6130.0 8.6925e-05
6150.0 0.00010113
6170.0 0.00011627
6190.0 0.00012763
6210.0 0.00012946
6230.0 0.00012743
6250.0 0.00011637
6270.0 9.7267e-05
6290.0 8.0304e-05
6310.0 7.127e-05
6330.0 6.9632e-05
6350.0 7.0881e-05
6370.0 7.1844e-05
6390.0 8.0802e-05
6410.0 0.00010078
6430.0 0.00012438
6450.0 0.00013955
6470.0 0.00014387
6490.0 0.00014288
6510.0 0.00014584
6530.0 0.0001503
6550.0 0.00014957
6570.0 0.00015521
6590.0 0.00015913
6610.0 0.00016184
6630.0 0.00015914
6650.0 0.00014861
6670.0 0.0001356
6690.0 0.0001233
6710.0 0.0001167
6730.0 0.00011526
6750.0 0.00011735
6770.0 0.00012057
6790.0 0.00012448
6810.0 0.00012713
6830.0 0.0001247
6850.0 0.00011868
6870.0 0.00011118
6890.0 0.00010868
6910.0 0.0001054
6930.0 0.00010909
6950.0 0.00011559
6970.0 0.00011864
6990.0 0.00012085
7010.0 0.00011739
7030.0 0.00010794
7050.0 9.5506e-05
7070.0 8.522e-05
7090.0 7.9748e-05
7110.0 7.9057e-05
7130.0 7.7159e-05
7150.0 6.8965e-05
7170.0 6.5433e-05
7190.0 7.1587e-05
7210.0 8.278e-05
7230.0 9.5456e-05
7250.0 0.00010105
7270.0 9.988e-05
7290.0 9.212e-05
7310.0 8.5034e-05
7330.0 8.1599e-05
7350.0 8.1827e-05
7370.0 8.3372e-05
7390.0 8.7334e-05
7410.0 9.6767e-05
7430.0 0.00011183
7450.0 0.00012626
7470.0 0.00013318
7490.0 0.00013008
7510.0 0.0001208
7530.0 0.00010444
7550.0 9.4365e-05
7570.0 8.3769e-05
7590.0 7.8394e-05
7610.0 7.9972e-05
7630.0 8.5938e-05
7650.0 9.4471e-05
7670.0 0.00010301
7690.0 0.00010878
7710.0 0.00011476
7730.0 0.00012086
7750.0 0.00012584
7770.0 0.00012399
7790.0 0.00012401
7810.0 0.0001254
7830.0 0.00012412
7850.0 0.00011935
7870.0 0.00011489
7890.0 0.00011488
7910.0 0.0001111
7930.0 0.00010881
7950.0 0.00010257
7970.0 9.9128e-05
7990.0 9.5024e-05
8010.0 9.5875e-05
8030.0 9.6113e-05
8050.0 9.6257e-05
8070.0 9.4667e-05
8090.0 9.3565e-05
8110.0 8.9778e-05
8130.0 8.9192e-05
8150.0 8.7612e-05
8170.0 8.4957e-05
8190.0 8.2752e-05
8210.0 8.202e-05
8230.0 7.9623e-05
8250.0 7.7627e-05
8270.0 7.0027e-05
8290.0 5.6973e-05
8310.0 4.2671e-05
8330.0 3.2856e-05
8350.0 3.0615e-05
8370.0 3.6373e-05
8390.0 4.3939e-05
8410.0 4.7299e-05
8430.0 4.8351e-05
8450.0 5.0656e-05
8470.0 5.4073e-05
8490.0 6.0353e-05
8510.0 6.8628e-05
8530.0 7.8524e-05
8550.0 8.7702e-05
8570.0 9.5161e-05
8590.0 0.00010076
8610.0 0.00010378
8630.0 0.0001036
8650.0 0.00010223
8670.0 0.00010188
8690.0 0.00010662
8710.0 0.00011303
8730.0 0.00011717
8750.0 0.00011633
8770.0 0.00011754
8790.0 0.00011669
8810.0 0.00010923
8830.0 0.00010257
8850.0 9.3888e-05
8870.0 8.6864e-05
8890.0 8.4389e-05
8910.0 8.4252e-05
8930.0 7.9358e-05
8950.0 7.3851e-05
8970.0 7.145e-05
8990.0 7.0632e-05
9010.0 6.7835e-05
9030.0 6.6312e-05
9050.0 6.5751e-05
9070.0 6.5493e-05
9090.0 6.527e-05
9110.0 6.5056e-05
9130.0 6.484e-05
9150.0 6.4628e-05
9170.0 6.4388e-05
9190.0 6.4214e-05
9210.0 6.4293e-05
9230.0 6.3967e-05
9250.0 6.3698e-05
9270.0 6.3459e-05
9290.0 6.3242e-05
9310.0 6.3031e-05
9330.0 6.2829e-05
9350.0 6.2642e-05
9370.0 6.2455e-05
9390.0 6.2265e-05
9410.0 6.2082e-05
9430.0 6.1894e-05
9450.0 6.1627e-05
9470.0 6.1388e-05
9490.0 6.1289e-05
9510.0 6.115e-05
9530.0 6.1e-05
9550.0 6.0844e-05
9570.0 6.0683e-05
9590.0 6.0518e-05
9610.0 6.0353e-05
9630.0 6.0189e-05
9650.0 6.0025e-05
9670.0 5.9861e-05
9690.0 5.9698e-05
9710.0 5.9536e-05
9730.0 5.9374e-05
9750.0 5.9213e-05
9770.0 5.9052e-05
9790.0 5.8892e-05
9810.0 5.873e-05
9830.0 5.857e-05
9850.0 5.841e-05
9870.0 5.8247e-05
9890.0 5.8085e-05
9910.0 5.7922e-05
9930.0 5.7751e-05
9950.0 5.7139e-05
9970.0 5.7106e-05
9990.0 5.7046e-05
10010.0 5.697e-05
10030.0 5.6857e-05
10050.0 5.671e-05
10070.0 5.6558e-05
10090.0 5.6406e-05
10110.0 5.6221e-05
10130.0 5.6045e-05
10150.0 5.5872e-05
10170.0 5.5684e-05
10190.0 5.5478e-05
10210.0 5.529e-05
10230.0 5.5107e-05
10250.0 5.4901e-05
10270.0 5.4695e-05
10290.0 5.4504e-05
10310.0 5.4292e-05
10330.0 5.4062e-05
10350.0 5.385e-05
10370.0 5.3636e-05
10390.0 5.34e-05
10410.0 5.3162e-05
10430.0 5.2943e-05
10450.0 5.27e-05
10470.0 5.2444e-05
10490.0 5.22e-05
10510.0 5.1953e-05
10530.0 5.1671e-05
10550.0 5.1398e-05
10570.0 5.1138e-05
10590.0 5.0856e-05
10610.0 5.056e-05
10630.0 5.0279e-05
10650.0 4.999e-05
10670.0 4.967e-05
10690.0 4.9357e-05
10710.0 4.9051e-05
10730.0 4.8722e-05
10750.0 4.8371e-05
10770.0 4.8047e-05
10790.0 4.771e-05
10810.0 4.7348e-05
10830.0 4.6989e-05
10850.0 4.6642e-05
10870.0 4.6253e-05
10890.0 4.5857e-05
10910.0 4.5472e-05
10930.0 4.5069e-05
10950.0 4.4629e-05
10970.0 4.4185e-05
10990.0 4.3745e-05
11010.0 4.6158e-05
11030.0 4.5627e-05
11050.0 4.5109e-05
11070.0 4.4582e-05
11090.0 4.4019e-05
11110.0 4.3501e-05
11130.0 4.3003e-05
11150.0 4.2495e-05
11170.0 4.1997e-05
11190.0 4.1535e-05
11210.0 4.1066e-05
11230.0 4.0587e-05
11250.0 4.013e-05
11270.0 3.9686e-05
11290.0 3.9222e-05
11310.0 3.8758e-05
11330.0 3.8326e-05
11350.0 3.7879e-05
11370.0 3.7416e-05
11390.0 3.6963e-05
11410.0 3.6508e-05
11430.0 3.6008e-05
11450.0 3.5498e-05
11470.0 3.4984e-05
11490.0 3.4432e-05
11510.0 3.3833e-05
11530.0 3.3233e-05
11550.0 3.2612e-05
11570.0 3.1939e-05
11590.0 3.125e-05
11610.0 3.0566e-05
11630.0 2.9844e-05
11650.0 2.9094e-05
11670.0 2.8377e-05
11690.0 2.7664e-05
11710.0 2.6934e-05
11730.0 2.6226e-05
11750.0 2.5561e-05
11770.0 2.4889e-05
11790.0 2.4232e-05
11810.0 2.3617e-05
11830.0 2.3026e-05
11850.0 2.2428e-05
11870.0 2.1871e-05
11890.0 2.1351e-05
11910.0 2.0835e-05
11930.0 2.0334e-05
11950.0 1.9869e-05
11970.0 1.9417e-05
11990.0 1.8965e-05
12010.0 1.8543e-05
12030.0 1.8147e-05
12050.0 1.7759e-05
12070.0 1.7385e-05
12090.0 1.7054e-05
12110.0 1.6743e-05
12130.0 1.645e-05
12150.0 1.6192e-05
12170.0 1.5969e-05
12190.0 1.5769e-05
12210.0 1.5605e-05
12230.0 1.548e-05
12250.0 1.5388e-05
12270.0 1.5332e-05
12290.0 1.5312e-05
12310.0 1.5323e-05
12330.0 1.5369e-05
12350.0 1.5448e-05
12370.0 1.5552e-05
12390.0 1.5683e-05
12410.0 1.5853e-05
12430.0 1.6032e-05
12450.0 1.6228e-05
12470.0 1.6448e-05
12490.0 1.668e-05
12510.0 1.6906e-05
12530.0 1.7144e-05
12550.0 1.7387e-05
12570.0 1.7611e-05
12590.0 1.7819e-05
12610.0 1.8016e-05
12630.0 1.8186e-05
12650.0 1.8311e-05
12670.0 1.8407e-05
12690.0 1.8464e-05
12710.0 1.8475e-05
12730.0 1.8443e-05
12750.0 1.8368e-05
12770.0 1.8249e-05
12790.0 1.8094e-05
12810.0 1.7902e-05
12830.0 1.7675e-05
12850.0 1.7432e-05
12870.0 1.7172e-05
12890.0 1.6892e-05
12910.0 1.6608e-05
12930.0 1.6329e-05
12950.0 1.6045e-05
12970.0 1.5761e-05
12990.0 1.5497e-05
13010.0 1.5241e-05
13030.0 1.4989e-05
13050.0 1.475e-05
13070.0 1.4527e-05
13090.0 1.4304e-05
13110.0 1.4087e-05
13130.0 1.388e-05
13150.0 1.3678e-05
13170.0 1.3471e-05
13190.0 1.3273e-05
13210.0 1.3082e-05
13230.0 1.289e-05
13250.0 1.2702e-05
13270.0 1.2525e-05
13290.0 1.2355e-05
13310.0 1.219e-05
13330.0 1.2042e-05
13350.0 1.1911e-05
13370.0 1.1793e-05
13390.0 1.1692e-05
13410.0 1.1612e-05
13430.0 1.1547e-05
13450.0 1.1496e-05
13470.0 1.1457e-05
13490.0 1.1426e-05
13510.0 1.1398e-05
13530.0 1.137e-05
13550.0 1.1336e-05
13570.0 1.1293e-05
13590.0 1.1236e-05
13610.0 1.1166e-05
13630.0 1.1081e-05
13650.0 1.0979e-05
13670.0 1.0862e-05
13690.0 1.0735e-05
13710.0 1.0598e-05
13730.0 1.0448e-05
13750.0 1.0302e-05
13770.0 1.0158e-05
13790.0 1.0014e-05
13810.0 9.8772e-06
13830.0 9.7539e-06
13850.0 9.6372e-06
13870.0 9.5302e-06
13890.0 9.4376e-06
13910.0 9.3562e-06
13930.0 9.2825e-06
13950.0 9.2184e-06
13970.0 9.1637e-06
13990.0 9.1132e-06
14010.0 9.0659e-06
14030.0 9.0218e-06
14050.0 8.9782e-06
14070.0 8.9316e-06
14090.0 8.8831e-06
14110.0 8.8319e-06
14130.0 8.7751e-06
14150.0 8.7115e-06
14170.0 8.6451e-06
14190.0 8.5739e-06
14210.0 8.4957e-06
14230.0 8.4151e-06
14250.0 8.3347e-06
14270.0 8.2506e-06
14290.0 8.1663e-06
14310.0 8.089e-06
14330.0 8.0158e-06
14350.0 7.9469e-06
14370.0 7.8869e-06
14390.0 7.8369e-06
14410.0 7.7938e-06
14430.0 7.7598e-06
14450.0 7.7354e-06
14470.0 7.7187e-06
14490.0 7.7089e-06
14510.0 7.7059e-06
14530.0 7.7084e-06
14550.0 7.7158e-06
14570.0 7.7281e-06
14590.0 7.7446e-06
14610.0 7.7662e-06
14630.0 7.7946e-06
14650.0 7.8289e-06
14670.0 7.8697e-06
14690.0 7.9202e-06
14710.0 7.9808e-06
14730.0 8.0475e-06
14750.0 8.1251e-06
14770.0 8.2154e-06
14790.0 8.3143e-06
14810.0 8.4216e-06
14830.0 8.5478e-06
14850.0 8.6853e-06
14870.0 8.83e-06
14890.0 8.9883e-06
14910.0 9.1599e-06
14930.0 9.3302e-06
14950.0 9.4952e-06
14970.0 9.6576e-06
14990.0 9.8016e-06
15010.0 9.9201e-06
15030.0 1.0017e-05
15050.0 1.0093e-05
15070.0 1.0144e-05
15090.0 1.0181e-05
15110.0 1.0209e-05
15130.0 1.0229e-05
15150.0 1.0246e-05
15170.0 1.0262e-05
15190.0 1.0277e-05
15210.0 1.0292e-05
15230.0 1.0307e-05
15250.0 1.0322e-05
15270.0 1.0338e-05
15290.0 1.0355e-05
15310.0 1.0371e-05
15330.0 1.0388e-05
15350.0 1.0405e-05
15370.0 1.0422e-05
15390.0 1.044e-05
15410.0 1.0458e-05
15430.0 1.0476e-05
15450.0 1.0495e-05
15470.0 1.0514e-05
15490.0 1.0533e-05
15510.0 1.0552e-05
15530.0 1.0572e-05
15550.0 1.0592e-05
15570.0 1.0612e-05
15590.0 1.0632e-05
15610.0 1.0653e-05
15630.0 1.0673e-05
15650.0 1.0694e-05
15670.0 1.0715e-05
15690.0 1.0737e-05
15710.0 1.0758e-05
15730.0 1.078e-05
15750.0 1.0801e-05
15770.0 1.0823e-05
15790.0 1.0845e-05
15810.0 1.0867e-05
15830.0 1.089e-05
15850.0 1.0912e-05
15870.0 1.0935e-05
15890.0 1.0957e-05
15910.0 1.098e-05
15930.0 1.1002e-05
15950.0 1.1025e-05
15970.0 1.1048e-05
15990.0 1.1071e-05
16010.0 1.1094e-05
16030.0 1.1116e-05
16050.0 1.1139e-05
16070.0 1.1162e-05
16090.0 1.1185e-05
16110.0 1.1208e-05
16130.0 1.1231e-05
16150.0 1.1253e-05
16170.0 1.1276e-05
16190.0 1.1299e-05
16210.0 1.1321e-05
16230.0 1.1344e-05
16250.0 1.1366e-05
16270.0 1.1389e-05
16290.0 1.1411e-05
16310.0 1.1433e-05
16330.0 1.1454e-05
16350.0 1.1476e-05
16370.0 1.1497e-05
16390.0 1.1519e-05
16410.0 1.154e-05
16430.0 1.1561e-05
16450.0 1.1582e-05
16470.0 1.1602e-05
16490.0 1.1623e-05
16510.0 1.1642e-05
16530.0 1.1662e-05
16550.0 1.1682e-05
16570.0 1.1701e-05
16590.0 1.172e-05
16610.0 1.1738e-05
16630.0 1.1757e-05
16650.0 1.1775e-05
16670.0 1.1792e-05
16690.0 1.181e-05
16710.0 1.1826e-05
16730.0 1.1843e-05
16750.0 1.1859e-05
16770.0 1.1875e-05
16790.0 1.189e-05
16810.0 1.1905e-05
16830.0 1.1919e-05
16850.0 1.1933e-05
16870.0 1.1947e-05
16890.0 1.196e-05
16910.0 1.1973e-05
16930.0 1.1985e-05
16950.0 1.1997e-05
16970.0 1.2008e-05
16990.0 1.2019e-05
17010.0 1.2029e-05
17030.0 1.2039e-05
17050.0 1.2048e-05
17070.0 1.2056e-05
17090.0 1.2064e-05
17110.0 1.2072e-05
17130.0 1.2078e-05
17150.0 1.2085e-05
17170.0 1.2091e-05
17190.0 1.2096e-05
17210.0 1.21e-05
17230.0 1.2104e-05
17250.0 1.2108e-05
17270.0 1.211e-05
17290.0 1.2112e-05
17310.0 1.2114e-05
17330.0 1.2115e-05
17350.0 1.2115e-05
17370.0 1.2114e-05
17390.0 1.2113e-05
17410.0 1.2111e-05
17430.0 1.2109e-05
17450.0 1.2106e-05
17470.0 1.2102e-05
17490.0 1.2098e-05
17510.0 1.2093e-05
17530.0 1.2087e-05
17550.0 1.208e-05
17570.0 1.2073e-05
17590.0 1.2065e-05
17610.0 1.2057e-05
17630.0 1.2048e-05
17650.0 1.2038e-05
17670.0 1.2027e-05
17690.0 1.2016e-05
17710.0 1.2004e-05
17730.0 1.1992e-05
17750.0 1.1978e-05
17770.0 1.1964e-05
17790.0 1.195e-05
17810.0 1.1934e-05
17830.0 1.1918e-05
17850.0 1.1902e-05
17870.0 1.1884e-05
17890.0 1.1866e-05
17910.0 1.1847e-05
17930.0 1.1828e-05
17950.0 1.1808e-05
17970.0 1.1787e-05
17990.0 1.1766e-05
18010.0 1.1744e-05
18030.0 1.1722e-05
18050.0 1.1698e-05
18070.0 1.1675e-05
18090.0 1.165e-05
18110.0 1.1625e-05
18130.0 1.1599e-05
18150.0 1.1573e-05
18170.0 1.1546e-05
18190.0 1.1519e-05
18210.0 1.1491e-05
18230.0 1.1462e-05
18250.0 1.1433e-05
18270.0 1.1403e-05
18290.0 1.1373e-05
18310.0 1.1342e-05
18330.0 1.131e-05
18350.0 1.1279e-05
18370.0 1.1246e-05
18390.0 1.1213e-05
18410.0 1.118e-05
18430.0 1.1146e-05
18450.0 1.1111e-05
18470.0 1.1077e-05
18490.0 1.1041e-05
18510.0 1.1005e-05
18530.0 1.0969e-05
18550.0 1.0933e-05
18570.0 1.0896e-05
18590.0 1.0858e-05
18610.0 1.082e-05
18630.0 1.0782e-05
18650.0 1.0743e-05
18670.0 1.0704e-05
18690.0 1.0665e-05
18710.0 1.0625e-05
18730.0 1.0585e-05
18750.0 1.0545e-05
18770.0 1.0504e-05
18790.0 1.0463e-05
18810.0 1.0422e-05
18830.0 1.038e-05
18850.0 1.0338e-05
18870.0 1.0296e-05
18890.0 1.0254e-05
18910.0 1.0211e-05
18930.0 1.0168e-05
18950.0 1.0125e-05
18970.0 1.0082e-05
18990.0 1.0038e-05
19010.0 9.9946e-06
19030.0 9.9509e-06
19050.0 9.9069e-06
19070.0 9.8627e-06
19090.0 9.8184e-06
19110.0 9.774e-06
19130.0 9.7294e-06
19150.0 9.6847e-06
19170.0 9.6399e-06
19190.0 9.5951e-06
19210.0 9.55e-06
19230.0 9.5049e-06
19250.0 9.4599e-06
19270.0 9.4147e-06
19290.0 9.3694e-06
19310.0 9.3242e-06
19330.0 9.279e-06
19350.0 9.2335e-06
19370.0 9.1882e-06
19390.0 9.1429e-06
19410.0 9.0975e-06
19430.0 9.0521e-06
19450.0 9.0069e-06
19470.0 8.9617e-06
19490.0 8.9163e-06
19510.0 8.8712e-06
19530.0 8.8261e-06
19550.0 8.7809e-06
19570.0 8.7358e-06
19590.0 8.6909e-06
19610.0 8.6461e-06
19630.0 8.6013e-06
19650.0 8.5566e-06
19670.0 8.5121e-06
19690.0 8.4675e-06
19710.0 8.4231e-06
19730.0 8.379e-06
19750.0 8.3348e-06
19770.0 8.2907e-06
19790.0 8.2469e-06
19810.0 8.2032e-06
19830.0 8.1593e-06
19850.0 8.1153e-06
19870.0 8.0708e-06
19890.0 8.0247e-06
19910.0 7.9756e-06
19930.0 7.922e-06
19950.0 7.8616e-06
19970.0 7.7901e-06
19990.0 7.7058e-06
20010.0 7.6102e-06
20030.0 7.4988e-06
20050.0 7.3723e-06
20070.0 7.2379e-06
20090.0 7.097e-06
20110.0 6.9446e-06
20130.0 6.7938e-06
20150.0 6.6475e-06
20170.0 6.5003e-06
20190.0 6.3549e-06
20210.0 6.2183e-06
20230.0 6.0863e-06
20250.0 5.9553e-06
20270.0 5.832e-06
20290.0 5.7164e-06
20310.0 5.6037e-06
20330.0 5.4939e-06
20350.0 5.3947e-06
20370.0 5.2995e-06
20390.0 5.2073e-06
20410.0 5.1211e-06
20430.0 5.0415e-06
20450.0 4.9634e-06
20470.0 4.8902e-06
20490.0 4.8231e-06
20510.0 4.7601e-06
20530.0 4.7001e-06
20550.0 4.6455e-06
20570.0 4.596e-06
20590.0 4.5495e-06
20610.0 4.5072e-06
20630.0 4.4693e-06
20650.0 4.4347e-06
20670.0 4.4033e-06
20690.0 4.3755e-06
20710.0 4.3507e-06
20730.0 4.3284e-06
20750.0 4.3085e-06
20770.0 4.2904e-06
20790.0 4.2738e-06
20810.0 4.2587e-06
20830.0 4.2443e-06
20850.0 4.2302e-06
20870.0 4.2165e-06
20890.0 4.2026e-06
20910.0 4.1878e-06
20930.0 4.1723e-06
20950.0 4.1557e-06
20970.0 4.1376e-06
20990.0 4.118e-06
21010.0 4.0965e-06
21030.0 4.0732e-06
21050.0 4.0481e-06
21070.0 4.0209e-06
21090.0 3.9914e-06
21110.0 3.9605e-06
21130.0 3.928e-06
21150.0 3.8932e-06
21170.0 3.857e-06
21190.0 3.8202e-06
21210.0 3.7814e-06
21230.0 3.741e-06
21250.0 3.7007e-06
21270.0 3.6599e-06
21290.0 3.6177e-06
21310.0 3.5754e-06
21330.0 3.5343e-06
21350.0 3.4925e-06
21370.0 3.4506e-06
21390.0 3.4103e-06
21410.0 3.371e-06
21430.0 3.3313e-06
21450.0 3.294e-06
21470.0 3.2589e-06
21490.0 3.2251e-06
21510.0 3.1931e-06
21530.0 3.1641e-06
21550.0 3.1373e-06
21570.0 3.1126e-06
21590.0 3.0909e-06
21610.0 3.072e-06
21630.0 3.0556e-06
21650.0 3.042e-06
21670.0 3.031e-06
21690.0 3.0223e-06
21710.0 3.0162e-06
21730.0 3.012e-06
21750.0 3.0093e-06
21770.0 3.0088e-06
21790.0 3.0096e-06
21810.0 3.0109e-06
21830.0 3.0131e-06
21850.0 3.0162e-06
21870.0 3.0189e-06
21890.0 3.021e-06
21910.0 3.0233e-06
21930.0 3.0249e-06
21950.0 3.0252e-06
21970.0 3.0248e-06
21990.0 3.0237e-06
22010.0 3.0209e-06
22030.0 3.0168e-06
22050.0 3.0118e-06
22070.0 3.0055e-06
22090.0 2.998e-06
22110.0 2.9895e-06
22130.0 2.9801e-06
22150.0 2.9698e-06
22170.0 2.9587e-06
22190.0 2.9468e-06
22210.0 2.9343e-06
22230.0 2.9212e-06
22250.0 2.9075e-06
22270.0 2.8931e-06
22290.0 2.8781e-06
22310.0 2.8626e-06
22330.0 2.8458e-06
22350.0 2.8282e-06
22370.0 2.8099e-06
22390.0 2.7901e-06
22410.0 2.7685e-06
22430.0 2.746e-06
22450.0 2.7221e-06
22470.0 2.6959e-06
22490.0 2.6681e-06
22510.0 2.6393e-06
22530.0 2.6078e-06
22550.0 2.5742e-06
22570.0 2.5401e-06
22590.0 2.5047e-06
22610.0 2.4672e-06
