#lamb flux
1010.0 1.0336e-05
1030.0 1.1015e-05
1050.0 1.2383e-05
1070.0 1.3917e-05
1090.0 1.5521e-05
1110.0 1.7171e-05
1130.0 1.8828e-05
1150.0 2.0562e-05
1170.0 2.2335e-05
1190.0 2.3975e-05
1210.0 2.5592e-05
1230.0 2.7205e-05
1250.0 2.8736e-05
1270.0 3.013e-05
1290.0 3.1527e-05
1310.0 3.2827e-05
1330.0 3.3968e-05
1350.0 3.5055e-05
1370.0 3.6141e-05
1390.0 3.7155e-05
1410.0 3.8124e-05
1430.0 3.9192e-05
1450.0 4.0323e-05
1470.0 4.1496e-05
1490.0 4.2811e-05
1510.0 4.4361e-05
1530.0 4.6009e-05
1550.0 4.7838e-05
1570.0 4.994e-05
1590.0 5.2281e-05
1610.0 5.4815e-05
1630.0 5.7705e-05
1650.0 6.091e-05
1670.0 6.4332e-05
1690.0 6.7996e-05
1710.0 7.1977e-05
1730.0 7.6204e-05
1750.0 8.0518e-05
1770.0 8.5048e-05
1790.0 8.974e-05
1810.0 9.4432e-05
1830.0 9.909e-05
1850.0 0.00010382
1870.0 0.00010836
1890.0 0.00011262
1910.0 0.00011665
1930.0 0.00012039
1950.0 0.00012362
1970.0 0.00012635
1990.0 0.00012867
2010.0 0.00013041
2030.0 0.00013151
2050.0 0.00013213
2070.0 0.00013226
2090.0 0.00013173
2110.0 0.00013072
2130.0 0.00012934
2150.0 0.00012755
2170.0 0.00012536
2190.0 0.000123
2210.0 0.00012047
2230.0 0.00011777
2250.0 0.00011502
2270.0 0.00011236
2290.0 0.00010973
2310.0 0.00010716
2330.0 0.0001048
2350.0 0.00010267
2370.0 0.00010072
2390.0 9.9071e-05
2410.0 9.7811e-05
2430.0 9.6879e-05
2450.0 9.6328e-05
2470.0 9.6294e-05
2490.0 9.683e-05
2510.0 9.7857e-05
2530.0 9.9683e-05
2550.0 0.00010272
2570.0 0.00010731
2590.0 0.00011396
2610.0 0.00012423
2630.0 0.00013855
2650.0 0.00015639
2670.0 0.00017825
2690.0 0.00020372
2710.0 0.0002299
2730.0 0.0002553
2750.0 0.00028031
2770.0 0.00030298
2790.0 0.00032295
2810.0 0.00034168
2830.0 0.00036041
2850.0 0.00037869
2870.0 0.00039785
2890.0 0.00041885
2910.0 0.00044148
2930.0 0.00046521
2950.0 0.00049116
2970.0 0.00051922
2990.0 0.0005485
3010.0 0.00065649
3030.0 0.00069405
3050.0 0.00073325
3070.0 0.0007723
3090.0 0.00081181
3110.0 0.0008496
3130.0 0.00088264
3150.0 0.00090967
3170.0 0.00092685
3190.0 0.00095626
3210.0 0.0010547
3230.0 0.001207
3250.0 0.0012703
3270.0 0.0012036
3290.0 0.0010978
3310.0 0.0010426
3330.0 0.00102
3350.0 0.0010184
3370.0 0.0010237
3390.0 0.0010363
3410.0 0.0010428
3430.0 0.0010103
3450.0 0.00099862
3470.0 0.00099542
3490.0 0.0011145
3510.0 0.0014675
3530.0 0.0018206
3550.0 0.0020745
3570.0 0.0023155
3590.0 0.0024547
3610.0 0.0024387
3630.0 0.0023948
3650.0 0.0025176
3670.0 0.0028733
3690.0 0.0033072
3710.0 0.00369
3730.0 0.0040089
3750.0 0.0042927
3770.0 0.0042412
3790.0 0.0039471
3810.0 0.0036526
3830.0 0.003367
3850.0 0.0032511
3870.0 0.0034062
3890.0 0.0037408
3910.0 0.0040835
3930.0 0.0044549
3950.0 0.0049964
3970.0 0.0053878
3990.0 0.0052218
4010.0 0.0047392
4030.0 0.0041643
4050.0 0.0038137
4070.0 0.0036633
4090.0 0.0035899
4110.0 0.0036393
4130.0 0.0036433
4150.0 0.0036595
4170.0 0.0038119
4190.0 0.0040685
4210.0 0.0040643
4230.0 0.0040051
4250.0 0.0040157
4270.0 0.0041319
4290.0 0.0043478
4310.0 0.0045525
4330.0 0.0044322
4350.0 0.0040422
4370.0 0.0036592
4390.0 0.0032784
4410.0 0.0028986
4430.0 0.0027483
4450.0 0.0028039
4470.0 0.0029225
4490.0 0.003125
4510.0 0.0035659
4530.0 0.0044801
4550.0 0.0058378
4570.0 0.0068229
4590.0 0.0075291
4610.0 0.0085614
4630.0 0.0093528
4650.0 0.0090543
4670.0 0.0079146
4690.0 0.0067176
4710.0 0.0058914
4730.0 0.005354
4750.0 0.0048285
4770.0 0.004436
4790.0 0.0045679
4810.0 0.0049288
4830.0 0.0050727
4850.0 0.0049615
4870.0 0.0050832
4890.0 0.0054337
4910.0 0.0057531
4930.0 0.0059597
4950.0 0.0059952
4970.0 0.0057542
4990.0 0.0052523
5010.0 0.0047014
5030.0 0.0042409
5050.0 0.0039354
5070.0 0.0037282
5090.0 0.0035678
5110.0 0.0035191
5130.0 0.0035176
5150.0 0.003576
5170.0 0.0038396
5190.0 0.0042655
5210.0 0.0048205
5230.0 0.0053144
5250.0 0.0057346
5270.0 0.0062075
5290.0 0.0067022
5310.0 0.0070092
5330.0 0.0070354
5350.0 0.006878
5370.0 0.0068511
5390.0 0.0071248
5410.0 0.0076374
5430.0 0.0081749
5450.0 0.0086331
5470.0 0.0089319
5490.0 0.0089819
5510.0 0.0089104
5530.0 0.0088325
5550.0 0.0087559
5570.0 0.0086167
5590.0 0.0084421
5610.0 0.008218
5630.0 0.0078527
5650.0 0.0073287
5670.0 0.0068487
5690.0 0.0065762
5710.0 0.0064368
5730.0 0.0062643
5750.0 0.006156
5770.0 0.0061665
5790.0 0.0062476
5810.0 0.006269
5830.0 0.0063024
5850.0 0.0063371
5870.0 0.0062315
5890.0 0.0060942
5910.0 0.0059143
5930.0 0.0055021
5950.0 0.0050063
5970.0 0.0046587
5990.0 0.0045041
6010.0 0.0044107
6030.0 0.0042631
6050.0 0.0041887
6070.0 0.0043565
6090.0 0.0046032
6110.0 0.0047234
6130.0 0.0046835
6150.0 0.0045926
6170.0 0.0045433
6190.0 0.0044892
6210.0 0.0043355
6230.0 0.0040433
6250.0 0.0037601
6270.0 0.0035914
6290.0 0.0034822
6310.0 0.0035601
6330.0 0.0038601
6350.0 0.0042373
6370.0 0.0045084
6390.0 0.0047276
6410.0 0.0049889
6430.0 0.0051892
6450.0 0.0053298
6470.0 0.0054666
6490.0 0.005601
6510.0 0.0056958
6530.0 0.0057341
6550.0 0.0057667
6570.0 0.0056878
6590.0 0.0054794
6610.0 0.0052775
6630.0 0.005102
6650.0 0.0048743
6670.0 0.0046051
6690.0 0.0043953
6710.0 0.0042702
6730.0 0.0041449
6750.0 0.0040529
6770.0 0.0040497
6790.0 0.0040528
6810.0 0.0039838
6830.0 0.003904
6850.0 0.0039278
6870.0 0.0039489
6890.0 0.0038808
6910.0 0.0038448
6930.0 0.0038229
6950.0 0.0037536
6970.0 0.0036529
6990.0 0.0035497
7010.0 0.0034612
7030.0 0.0033512
7050.0 0.0031583
7070.0 0.0029512
7090.0 0.0029121
7110.0 0.0030186
7130.0 0.0031351
7150.0 0.003219
7170.0 0.0033143
7190.0 0.0033943
7210.0 0.0033815
7230.0 0.0033771
7250.0 0.0034387
7270.0 0.0034088
7290.0 0.0033404
7310.0 0.0033425
7330.0 0.0034421
7350.0 0.0035909
7370.0 0.0036864
7390.0 0.0037524
7410.0 0.0038194
7430.0 0.0038207
7450.0 0.0037648
7470.0 0.003695
7490.0 0.0035451
7510.0 0.0033888
7530.0 0.0033349
7550.0 0.0032837
7570.0 0.003235
7590.0 0.0032333
7610.0 0.003223
7630.0 0.0032305
7650.0 0.0033433
7670.0 0.0035036
7690.0 0.0036546
7710.0 0.0037616
7730.0 0.0038565
7750.0 0.0039517
7770.0 0.0040408
7790.0 0.0041186
7810.0 0.004136
7830.0 0.0040311
7850.0 0.0038744
7870.0 0.0037151
7890.0 0.003573
7910.0 0.0035108
7930.0 0.0034442
7950.0 0.0033573
7970.0 0.0032599
7990.0 0.003206
8010.0 0.0030031
8030.0 0.0029783
8050.0 0.0029481
8070.0 0.0028989
8090.0 0.0028541
8110.0 0.0028321
8130.0 0.0028293
8150.0 0.0028046
8170.0 0.0027649
8190.0 0.002676
8210.0 0.0025271
8230.0 0.0023884
8250.0 0.0023206
8270.0 0.0022205
8290.0 0.0020406
8310.0 0.001865
8330.0 0.0017505
8350.0 0.0016913
8370.0 0.001739
8390.0 0.0018684
8410.0 0.0019887
8430.0 0.0021074
8450.0 0.0022613
8470.0 0.0023963
8490.0 0.0025442
8510.0 0.0026907
8530.0 0.0028334
8550.0 0.0029459
8570.0 0.0030262
8590.0 0.0030866
8610.0 0.0031463
8630.0 0.0031519
8650.0 0.0030866
8670.0 0.0030841
8690.0 0.0031842
8710.0 0.0033158
8730.0 0.0033516
8750.0 0.003292
8770.0 0.0032845
8790.0 0.0032725
8810.0 0.003173
8830.0 0.002936
8850.0 0.0026474
8870.0 0.0024364
8890.0 0.0023535
8910.0 0.0022616
8930.0 0.0021011
8950.0 0.0019615
8970.0 0.001914
8990.0 0.0019296
9010.0 0.0019234
9030.0 0.001902
9050.0 0.0018865
9070.0 0.0018762
9090.0 0.0018666
9110.0 0.0018572
9130.0 0.0018478
9150.0 0.0018386
9170.0 0.0018294
9190.0 0.0018206
9210.0 0.0018125
9230.0 0.0018032
9250.0 0.0017941
9270.0 0.0017852
9290.0 0.0017765
9310.0 0.0017679
9330.0 0.0017594
9350.0 0.0017511
9370.0 0.0017428
9390.0 0.0017345
9410.0 0.0017264
9430.0 0.001718
9450.0 0.0017081
9470.0 0.0016988
9490.0 0.0016927
9510.0 0.0016857
9530.0 0.0016787
9550.0 0.0016713
9570.0 0.0016639
9590.0 0.0016566
9610.0 0.0016492
9630.0 0.0016418
9650.0 0.0016344
9670.0 0.0016273
9690.0 0.0016201
9710.0 0.0016129
9730.0 0.0016058
9750.0 0.0015988
9770.0 0.0015916
9790.0 0.0015846
9810.0 0.0015777
9830.0 0.0015707
9850.0 0.0015635
9870.0 0.0015568
9890.0 0.00155
9910.0 0.0015431
9930.0 0.0015363
9950.0 0.001528
9970.0 0.0015216
9990.0 0.0015149
10010.0 0.0015081
10030.0 0.0015014
10050.0 0.0014947
10070.0 0.0014881
10090.0 0.0014815
10110.0 0.0014741
10130.0 0.001464
10150.0 0.0014576
10170.0 0.0014518
10190.0 0.0014452
10210.0 0.0014387
10230.0 0.0014322
10250.0 0.001425
10270.0 0.0014177
10290.0 0.0014108
10310.0 0.0014034
10330.0 0.0013955
10350.0 0.0013882
10370.0 0.0013808
10390.0 0.0013729
10410.0 0.001365
10430.0 0.0013576
10450.0 0.0013496
10470.0 0.0013414
10490.0 0.0013335
10510.0 0.0013255
10530.0 0.0013168
10550.0 0.0013082
10570.0 0.0013001
10590.0 0.0012914
10610.0 0.0012824
10630.0 0.0012739
10650.0 0.0012651
10670.0 0.0012557
10690.0 0.0012465
10710.0 0.0012374
10730.0 0.0012279
10750.0 0.0012178
10770.0 0.0012085
10790.0 0.0011988
10810.0 0.0011886
10830.0 0.0011786
10850.0 0.0011688
10870.0 0.0011581
10890.0 0.0011473
10910.0 0.001137
10930.0 0.0011264
10950.0 0.0011152
10970.0 0.0011044
10990.0 0.0010939
11010.0 0.001076
11030.0 0.0010643
11050.0 0.0010533
11070.0 0.0010425
11090.0 0.0010314
11110.0 0.0010213
11130.0 0.0010117
11150.0 0.0010021
11170.0 0.00099294
11190.0 0.00098469
11210.0 0.00097664
11230.0 0.00096884
11250.0 0.0009618
11270.0 0.00095535
11290.0 0.00094906
11310.0 0.00094323
11330.0 0.00093813
11350.0 0.0009332
11370.0 0.00092838
11390.0 0.00092389
11410.0 0.0009195
11430.0 0.0009148
11450.0 0.00091001
11470.0 0.00090512
11490.0 0.00089977
11510.0 0.00089379
11530.0 0.00088758
11550.0 0.00088091
11570.0 0.00087342
11590.0 0.00086542
11610.0 0.00085713
11630.0 0.00084799
11650.0 0.00083803
11670.0 0.00082796
11690.0 0.00081738
11710.0 0.0008059
11730.0 0.000794
11750.0 0.00078205
11770.0 0.00076915
11790.0 0.00075555
11810.0 0.0007419
11830.0 0.00072785
11850.0 0.00071266
11870.0 0.00069758
11890.0 0.00068275
11910.0 0.00066737
11930.0 0.00065181
11950.0 0.00063697
11970.0 0.00062223
11990.0 0.00060728
12010.0 0.00059318
12030.0 0.00057988
12050.0 0.00056682
12070.0 0.0005542
12090.0 0.00054298
12110.0 0.00053232
12130.0 0.00052217
12150.0 0.00051303
12170.0 0.00050491
12190.0 0.00049725
12210.0 0.00049058
12230.0 0.00048503
12250.0 0.00048032
12270.0 0.00047647
12290.0 0.00047362
12310.0 0.00047164
12330.0 0.00047045
12350.0 0.00047003
12370.0 0.00047022
12390.0 0.00047098
12410.0 0.00047236
12430.0 0.00047396
12450.0 0.00047578
12470.0 0.00047789
12490.0 0.0004801
12510.0 0.00048219
12530.0 0.00048434
12550.0 0.00048649
12570.0 0.00048836
12590.0 0.00048997
12610.0 0.00049142
12630.0 0.00049247
12650.0 0.00049296
12670.0 0.000493
12690.0 0.00049249
12710.0 0.00049132
12730.0 0.00048951
12750.0 0.00048697
12770.0 0.00048373
12790.0 0.0004799
12810.0 0.00047541
12830.0 0.00047026
12850.0 0.00046482
12870.0 0.00045907
12890.0 0.00045289
12910.0 0.00044663
12930.0 0.00044047
12950.0 0.00043415
12970.0 0.00042785
12990.0 0.00042194
13010.0 0.00041622
13030.0 0.00041059
13050.0 0.00040527
13070.0 0.00040033
13090.0 0.00039548
13110.0 0.00039082
13130.0 0.00038651
13150.0 0.00038239
13170.0 0.00037832
13190.0 0.00037456
13210.0 0.00037105
13230.0 0.00036765
13250.0 0.00036439
13270.0 0.00036139
13290.0 0.00035849
13310.0 0.00035564
13330.0 0.00035295
13350.0 0.00035037
13370.0 0.00034777
13390.0 0.00034516
13410.0 0.00034265
13430.0 0.00034007
13450.0 0.00033737
13470.0 0.00033464
13490.0 0.00033188
13510.0 0.00032889
13530.0 0.0003258
13550.0 0.00032271
13570.0 0.00031948
13590.0 0.00031607
13610.0 0.00031268
13630.0 0.00030931
13650.0 0.00030578
13670.0 0.00030223
13690.0 0.00029879
13710.0 0.00029531
13730.0 0.0002917
13750.0 0.00028829
13770.0 0.00028495
13790.0 0.00028156
13810.0 0.00027824
13830.0 0.0002751
13850.0 0.00027195
13870.0 0.00026882
13890.0 0.00026588
13910.0 0.00026307
13930.0 0.00026028
13950.0 0.00025764
13970.0 0.00025526
13990.0 0.00025296
14010.0 0.00025078
14030.0 0.0002488
14050.0 0.00024697
14070.0 0.00024518
14090.0 0.00024355
14110.0 0.00024206
14130.0 0.00024063
14150.0 0.00023925
14170.0 0.00023799
14190.0 0.00023678
14210.0 0.00023558
14230.0 0.00023444
14250.0 0.00023337
14270.0 0.00023229
14290.0 0.00023122
14310.0 0.00023023
14330.0 0.00022924
14350.0 0.00022825
14370.0 0.00022729
14390.0 0.00022638
14410.0 0.00022544
14430.0 0.00022451
14450.0 0.00022363
14470.0 0.00022276
14490.0 0.00022186
14510.0 0.00022101
14530.0 0.00022018
14550.0 0.00021933
14570.0 0.00021845
14590.0 0.00021761
14610.0 0.00021673
14630.0 0.0002158
14650.0 0.0002149
14670.0 0.00021404
14690.0 0.00021319
14710.0 0.00021243
14730.0 0.00021187
14750.0 0.00021151
14770.0 0.00021145
14790.0 0.00021176
14810.0 0.00021249
14830.0 0.00021378
14850.0 0.00021564
14870.0 0.00021802
14890.0 0.00022096
14910.0 0.00022448
14930.0 0.00022821
14950.0 0.00023199
14970.0 0.00023585
14990.0 0.00023937
15010.0 0.00024233
15030.0 0.00024482
15050.0 0.00024681
15070.0 0.00024823
15090.0 0.00024929
15110.0 0.00025013
15130.0 0.0002508
15150.0 0.0002514
15170.0 0.00025195
15190.0 0.0002525
15210.0 0.00025305
15230.0 0.00025361
15250.0 0.00025418
15270.0 0.00025476
15290.0 0.00025535
15310.0 0.00025596
15330.0 0.00025658
15350.0 0.00025721
15370.0 0.00025785
15390.0 0.0002585
15410.0 0.00025916
15430.0 0.00025983
15450.0 0.00026052
15470.0 0.00026121
15490.0 0.00026192
15510.0 0.00026264
15530.0 0.00026337
15550.0 0.0002641
15570.0 0.00026485
15590.0 0.00026561
15610.0 0.00026637
15630.0 0.00026715
15650.0 0.00026794
15670.0 0.00026873
15690.0 0.00026953
15710.0 0.00027035
15730.0 0.00027117
15750.0 0.00027199
15770.0 0.00027283
15790.0 0.00027368
15810.0 0.00027453
15830.0 0.00027539
15850.0 0.00027626
15870.0 0.00027713
15890.0 0.00027801
15910.0 0.0002789
15930.0 0.00027979
15950.0 0.00028069
15970.0 0.00028159
15990.0 0.0002825
16010.0 0.00028342
16030.0 0.00028434
16050.0 0.00028526
16070.0 0.00028619
16090.0 0.00028712
16110.0 0.00028806
16130.0 0.000289
16150.0 0.00028994
16170.0 0.00029089
16190.0 0.00029184
16210.0 0.00029279
16230.0 0.00029374
16250.0 0.00029469
16270.0 0.00029565
16290.0 0.0002966
16310.0 0.00029756
16330.0 0.00029852
16350.0 0.00029947
16370.0 0.00030043
16390.0 0.00030138
16410.0 0.00030234
16430.0 0.00030329
16450.0 0.00030424
16470.0 0.00030519
16490.0 0.00030614
16510.0 0.00030708
16530.0 0.00030803
16550.0 0.00030896
16570.0 0.0003099
16590.0 0.00031082
16610.0 0.00031175
16630.0 0.00031267
16650.0 0.00031358
16670.0 0.00031449
16690.0 0.0003154
16710.0 0.00031629
16730.0 0.00031718
16750.0 0.00031806
16770.0 0.00031894
16790.0 0.00031981
16810.0 0.00032067
16830.0 0.00032152
16850.0 0.00032236
16870.0 0.00032319
16890.0 0.00032401
16910.0 0.00032482
16930.0 0.00032563
16950.0 0.00032642
16970.0 0.0003272
16990.0 0.00032797
17010.0 0.00032873
17030.0 0.00032947
17050.0 0.0003302
17070.0 0.00033092
17090.0 0.00033163
17110.0 0.00033233
17130.0 0.00033301
17150.0 0.00033367
17170.0 0.00033432
17190.0 0.00033496
17210.0 0.00033558
17230.0 0.00033619
17250.0 0.00033678
17270.0 0.00033736
17290.0 0.00033792
17310.0 0.00033846
17330.0 0.00033899
17350.0 0.0003395
17370.0 0.00033999
17390.0 0.00034047
17410.0 0.00034092
17430.0 0.00034136
17450.0 0.00034178
17470.0 0.00034219
17490.0 0.00034257
17510.0 0.00034294
17530.0 0.00034328
17550.0 0.00034361
17570.0 0.00034392
17590.0 0.00034421
17610.0 0.00034448
17630.0 0.00034472
17650.0 0.00034495
17670.0 0.00034516
17690.0 0.00034535
17710.0 0.00034552
17730.0 0.00034566
17750.0 0.00034579
17770.0 0.00034589
17790.0 0.00034598
17810.0 0.00034604
17830.0 0.00034608
17850.0 0.0003461
17870.0 0.0003461
17890.0 0.00034608
17910.0 0.00034603
17930.0 0.00034597
17950.0 0.00034588
17970.0 0.00034577
17990.0 0.00034564
18010.0 0.00034549
18030.0 0.00034532
18050.0 0.00034512
18070.0 0.0003449
18090.0 0.00034467
18110.0 0.0003444
18130.0 0.00034412
18150.0 0.00034382
18170.0 0.00034349
18190.0 0.00034315
18210.0 0.00034278
18230.0 0.00034239
18250.0 0.00034198
18270.0 0.00034155
18290.0 0.00034109
18310.0 0.00034062
18330.0 0.00034012
18350.0 0.00033961
18370.0 0.00033907
18390.0 0.00033851
18410.0 0.00033794
18430.0 0.00033734
18450.0 0.00033672
18470.0 0.00033608
18490.0 0.00033542
18510.0 0.00033475
18530.0 0.00033405
18550.0 0.00033333
18570.0 0.0003326
18590.0 0.00033184
18610.0 0.00033107
18630.0 0.00033028
18650.0 0.00032947
18670.0 0.00032864
18690.0 0.00032779
18710.0 0.00032693
18730.0 0.00032604
18750.0 0.00032514
18770.0 0.00032423
18790.0 0.00032329
18810.0 0.00032234
18830.0 0.00032138
18850.0 0.00032039
18870.0 0.0003194
18890.0 0.00031838
18910.0 0.00031735
18930.0 0.00031631
18950.0 0.00031525
18970.0 0.00031417
18990.0 0.00031308
19010.0 0.00031198
19030.0 0.00031086
19050.0 0.00030973
19070.0 0.00030859
19090.0 0.00030743
19110.0 0.00030626
19130.0 0.00030508
19150.0 0.00030388
19170.0 0.00030268
19190.0 0.00030146
19210.0 0.00030023
19230.0 0.00029899
19250.0 0.00029773
19270.0 0.00029647
19290.0 0.0002952
19310.0 0.00029392
19330.0 0.00029262
19350.0 0.00029132
19370.0 0.00029001
19390.0 0.00028869
19410.0 0.00028736
19430.0 0.00028602
19450.0 0.00028468
19470.0 0.00028332
19490.0 0.00028196
19510.0 0.0002806
19530.0 0.00027922
19550.0 0.00027784
19570.0 0.00027645
19590.0 0.00027506
19610.0 0.00027366
19630.0 0.00027225
19650.0 0.00027084
19670.0 0.00026942
19690.0 0.000268
19710.0 0.00026658
19730.0 0.00026515
19750.0 0.00026371
19770.0 0.00026227
19790.0 0.00026083
19810.0 0.00025939
19830.0 0.00025793
19850.0 0.00025646
19870.0 0.00025497
19890.0 0.00025344
19910.0 0.00025181
19930.0 0.00025005
19950.0 0.0002481
19970.0 0.00024585
19990.0 0.00024323
20010.0 0.00024031
20030.0 0.00023696
20050.0 0.0002332
20070.0 0.00022923
20090.0 0.00022507
20110.0 0.0002206
20130.0 0.00021616
20150.0 0.00021183
20170.0 0.00020745
20190.0 0.00020309
20210.0 0.00019895
20230.0 0.0001949
20250.0 0.00019086
20270.0 0.00018702
20290.0 0.00018338
20310.0 0.00017981
20330.0 0.00017634
20350.0 0.00017318
20370.0 0.00017016
20390.0 0.00016726
20410.0 0.00016457
20430.0 0.0001621
20450.0 0.00015973
20470.0 0.00015753
20490.0 0.00015554
20510.0 0.0001537
20530.0 0.00015199
20550.0 0.00015043
20570.0 0.00014901
20590.0 0.00014769
20610.0 0.00014648
20630.0 0.00014535
20650.0 0.0001443
20670.0 0.00014331
20690.0 0.00014236
20710.0 0.00014144
20730.0 0.00014054
20750.0 0.00013965
20770.0 0.00013874
20790.0 0.00013781
20810.0 0.00013685
20830.0 0.00013586
20850.0 0.00013482
20870.0 0.00013373
20890.0 0.00013258
20910.0 0.00013139
20930.0 0.00013014
20950.0 0.00012882
20970.0 0.00012746
20990.0 0.00012607
21010.0 0.00012461
21030.0 0.00012311
21050.0 0.0001216
21070.0 0.00012005
21090.0 0.00011846
21110.0 0.00011688
21130.0 0.00011531
21150.0 0.0001137
21170.0 0.00011211
21190.0 0.00011055
21210.0 0.00010897
21230.0 0.00010739
21250.0 0.00010587
21270.0 0.00010436
21290.0 0.00010286
21310.0 0.0001014
21330.0 9.9996e-05
21350.0 9.8604e-05
21370.0 9.7241e-05
21390.0 9.5939e-05
21410.0 9.4681e-05
21430.0 9.3436e-05
21450.0 9.2258e-05
21470.0 9.1142e-05
21490.0 9.0061e-05
21510.0 8.9025e-05
21530.0 8.8052e-05
21550.0 8.7123e-05
21570.0 8.6229e-05
21590.0 8.5385e-05
21610.0 8.4585e-05
21630.0 8.3816e-05
21650.0 8.3077e-05
21670.0 8.2374e-05
21690.0 8.1692e-05
21710.0 8.1029e-05
21730.0 8.0383e-05
21750.0 7.975e-05
21770.0 7.9125e-05
21790.0 7.8507e-05
21810.0 7.7895e-05
21830.0 7.7286e-05
21850.0 7.6677e-05
21870.0 7.607e-05
21890.0 7.5464e-05
21910.0 7.4855e-05
21930.0 7.4245e-05
21950.0 7.3635e-05
21970.0 7.3021e-05
21990.0 7.2398e-05
22010.0 7.1775e-05
22030.0 7.1148e-05
22050.0 7.0509e-05
22070.0 6.9861e-05
22090.0 6.9211e-05
22110.0 6.8546e-05
22130.0 6.7864e-05
22150.0 6.7175e-05
22170.0 6.6475e-05
22190.0 6.5751e-05
22210.0 6.5012e-05
22230.0 6.4273e-05
22250.0 6.3513e-05
22270.0 6.2732e-05
22290.0 6.1949e-05
22310.0 6.116e-05
22330.0 6.0339e-05
22350.0 5.9513e-05
22370.0 5.8691e-05
22390.0 5.7851e-05
22410.0 5.6988e-05
22430.0 5.6141e-05
22450.0 5.5291e-05
22470.0 5.442e-05
22490.0 5.3551e-05
22510.0 5.27e-05
22530.0 5.1829e-05
22550.0 5.0951e-05
22570.0 5.0102e-05
22590.0 4.9262e-05
22610.0 4.8414e-05
22630.0 4.7587e-05
22650.0 4.6798e-05
22670.0 4.6009e-05
22690.0 4.5237e-05
22710.0 4.4504e-05
22730.0 4.3798e-05
22750.0 4.3095e-05
22770.0 4.2437e-05
22790.0 4.182e-05
22810.0 4.122e-05
22830.0 4.0648e-05
22850.0 4.0117e-05
22870.0 3.9611e-05
22890.0 3.9122e-05
22910.0 3.8665e-05
22930.0 3.8236e-05
22950.0 3.7823e-05
22970.0 3.7425e-05
22990.0 3.7055e-05
23010.0 3.6698e-05
23030.0 3.635e-05
