#lamb flux
1010.0 6.2457e-08
1030.0 6.8612e-08
1050.0 7.5691e-08
1070.0 8.366e-08
1090.0 9.2711e-08
1110.0 1.0199e-07
1130.0 1.1134e-07
1150.0 1.2113e-07
1170.0 1.3122e-07
1190.0 1.4079e-07
1210.0 1.505e-07
1230.0 1.6052e-07
1250.0 1.7034e-07
1270.0 1.7988e-07
1290.0 1.8996e-07
1310.0 2.0003e-07
1330.0 2.0969e-07
1350.0 2.1946e-07
1370.0 2.2954e-07
1390.0 2.3937e-07
1410.0 2.4891e-07
1430.0 2.5888e-07
1450.0 2.6885e-07
1470.0 2.7848e-07
1490.0 2.8821e-07
1510.0 2.9849e-07
1530.0 3.0823e-07
1550.0 3.1784e-07
1570.0 3.2777e-07
1590.0 3.3772e-07
1610.0 3.4721e-07
1630.0 3.57e-07
1650.0 3.6703e-07
1670.0 3.7674e-07
1690.0 3.8631e-07
1710.0 3.9624e-07
1730.0 4.0622e-07
1750.0 4.1559e-07
1770.0 4.2522e-07
1790.0 4.3503e-07
1810.0 4.445e-07
1830.0 4.5379e-07
1850.0 4.6362e-07
1870.0 4.7317e-07
1890.0 4.8235e-07
1910.0 4.9167e-07
1930.0 5.0119e-07
1950.0 5.1019e-07
1970.0 5.1902e-07
1990.0 5.2814e-07
2010.0 5.3701e-07
2030.0 5.4545e-07
2050.0 5.5407e-07
2070.0 5.6282e-07
2090.0 5.7088e-07
2110.0 5.7878e-07
2130.0 5.8681e-07
2150.0 5.9449e-07
2170.0 6.016e-07
2190.0 6.0884e-07
2210.0 6.1594e-07
2230.0 6.2244e-07
2250.0 6.2866e-07
2270.0 6.3503e-07
2290.0 6.4084e-07
2310.0 6.46e-07
2330.0 6.5115e-07
2350.0 6.5609e-07
2370.0 6.6037e-07
2390.0 6.6451e-07
2410.0 6.6893e-07
2430.0 6.7308e-07
2450.0 6.7724e-07
2470.0 6.823e-07
2490.0 6.8889e-07
2510.0 6.9718e-07
2530.0 7.1034e-07
2550.0 7.3319e-07
2570.0 7.701e-07
2590.0 8.2617e-07
2610.0 9.1574e-07
2630.0 1.0404e-06
2650.0 1.1916e-06
2670.0 1.3694e-06
2690.0 1.5654e-06
2710.0 1.7507e-06
2730.0 1.9126e-06
2750.0 2.0542e-06
2770.0 2.1619e-06
2790.0 2.2362e-06
2810.0 2.2891e-06
2830.0 2.3294e-06
2850.0 2.3561e-06
2870.0 2.3776e-06
2890.0 2.399e-06
2910.0 2.4193e-06
2930.0 2.4366e-06
2950.0 2.4554e-06
2970.0 2.475e-06
2990.0 2.4921e-06
3010.0 2.481e-05
3030.0 2.4982e-05
3050.0 2.5142e-05
3070.0 2.5252e-05
3090.0 2.5339e-05
3110.0 2.5367e-05
3130.0 2.5289e-05
3150.0 2.5091e-05
3170.0 2.475e-05
3190.0 2.4274e-05
3210.0 2.3724e-05
3230.0 2.3158e-05
3250.0 2.2612e-05
3270.0 2.2327e-05
3290.0 2.2173e-05
3310.0 2.2466e-05
3330.0 2.2956e-05
3350.0 2.3648e-05
3370.0 2.4564e-05
3390.0 2.5663e-05
3410.0 2.6809e-05
3430.0 2.8043e-05
3450.0 2.9389e-05
3470.0 3.0773e-05
3490.0 3.2161e-05
3510.0 3.3633e-05
3530.0 3.514e-05
3550.0 3.6722e-05
3570.0 3.8434e-05
3590.0 4.0227e-05
3610.0 4.2241e-05
3630.0 4.4036e-05
3650.0 4.5835e-05
3670.0 4.7279e-05
3690.0 4.8324e-05
3710.0 4.8937e-05
3730.0 4.8899e-05
3750.0 4.8893e-05
3770.0 4.9161e-05
3790.0 5.0604e-05
3810.0 5.3625e-05
3830.0 5.7671e-05
3850.0 6.3464e-05
3870.0 7.1207e-05
3890.0 7.9937e-05
3910.0 8.8826e-05
3930.0 9.6075e-05
3950.0 0.00010059
3970.0 8.9668e-05
3990.0 6.968e-05
4010.0 6.7213e-05
4030.0 8.1572e-05
4050.0 9.4768e-05
4070.0 8.3663e-05
4090.0 5.7983e-05
4110.0 6.0342e-05
4130.0 7.6205e-05
4150.0 8.3944e-05
4170.0 7.4543e-05
4190.0 6.6763e-05
4210.0 8.042e-05
4230.0 8.7281e-05
4250.0 8.5354e-05
4270.0 8.6876e-05
4290.0 8.1484e-05
4310.0 8.7796e-05
4330.0 0.00010041
4350.0 0.00011784
4370.0 0.00012215
4390.0 0.00011672
4410.0 0.00010044
4430.0 8.2059e-05
4450.0 6.4073e-05
4470.0 6.5404e-05
4490.0 7.303e-05
4510.0 9.4851e-05
4530.0 0.00010048
4550.0 0.00010161
4570.0 0.0001172
4590.0 0.00015056
4610.0 0.00020718
4630.0 0.00024926
4650.0 0.00024849
4670.0 0.00025489
4690.0 0.00027941
4710.0 0.00027538
4730.0 0.00022035
4750.0 0.00015871
4770.0 0.0001324
4790.0 0.0001219
4810.0 0.00011279
4830.0 0.00011905
4850.0 0.00013837
4870.0 0.0001717
4890.0 0.00018164
4910.0 0.00015664
4930.0 0.00015699
4950.0 0.00019395
4970.0 0.00025182
4990.0 0.00029431
5010.0 0.00029426
5030.0 0.0002424
5050.0 0.00016974
5070.0 0.0001249
5090.0 0.00010884
5110.0 0.00011095
5130.0 0.00012144
5150.0 0.00011717
5170.0 0.00011726
5190.0 0.00011569
5210.0 0.00011599
5230.0 0.00012381
5250.0 0.00012843
5270.0 0.00014393
5290.0 0.00017243
5310.0 0.00018939
5330.0 0.00019752
5350.0 0.00020682
5370.0 0.00022412
5390.0 0.00023035
5410.0 0.00020912
5430.0 0.0001871
5450.0 0.00018815
5470.0 0.00022617
5490.0 0.00029316
5510.0 0.00035357
5530.0 0.00037505
5550.0 0.00036208
5570.0 0.0003375
5590.0 0.00031196
5610.0 0.00029876
5630.0 0.00030267
5650.0 0.00031035
5670.0 0.00030154
5690.0 0.00028664
5710.0 0.0002774
5730.0 0.00024308
5750.0 0.00018779
5770.0 0.00017056
5790.0 0.00019258
5810.0 0.00021849
5830.0 0.00024473
5850.0 0.00025553
5870.0 0.00025003
5890.0 0.00023186
5910.0 0.00021847
5930.0 0.00022205
5950.0 0.00023612
5970.0 0.00024021
5990.0 0.00021445
6010.0 0.00017401
6030.0 0.0001398
6050.0 0.00012703
6070.0 0.00013664
6090.0 0.00015411
6110.0 0.00015567
6130.0 0.00014376
6150.0 0.0001416
6170.0 0.00015808
6190.0 0.00018827
6210.0 0.00022687
6230.0 0.00025332
6250.0 0.00024369
6270.0 0.00021411
6290.0 0.00017695
6310.0 0.00013961
6330.0 0.00011692
6350.0 0.00011452
6370.0 0.0001262
6390.0 0.00014029
6410.0 0.00016298
6430.0 0.00019739
6450.0 0.00024285
6470.0 0.00029211
6490.0 0.00033635
6510.0 0.0003543
6530.0 0.00033904
6550.0 0.00032558
6570.0 0.00032631
6590.0 0.00032111
6610.0 0.000301
6630.0 0.00028238
6650.0 0.00026611
6670.0 0.00026577
6690.0 0.00025919
6710.0 0.00023375
6730.0 0.00020354
6750.0 0.00018376
6770.0 0.00019164
6790.0 0.00020473
6810.0 0.00021916
6830.0 0.00022335
6850.0 0.00021233
6870.0 0.00020405
6890.0 0.00019936
6910.0 0.00018875
6930.0 0.00018053
6950.0 0.00018283
6970.0 0.00018854
6990.0 0.00020227
7010.0 0.00021697
7030.0 0.00021107
7050.0 0.00019158
7070.0 0.00016879
7090.0 0.00014273
7110.0 0.00012924
7130.0 0.00013709
7150.0 0.00014778
7170.0 0.00014857
7190.0 0.00014431
7210.0 0.00014373
7230.0 0.00016239
7250.0 0.0001879
7270.0 0.00020564
7290.0 0.00020898
7310.0 0.00019583
7330.0 0.00017781
7350.0 0.00016389
7370.0 0.00015796
7390.0 0.00015874
7410.0 0.00016869
7430.0 0.00019153
7450.0 0.00021439
7470.0 0.0002413
7490.0 0.00026911
7510.0 0.0002497
7530.0 0.00021869
7550.0 0.00018619
7570.0 0.00015598
7590.0 0.00012752
7610.0 0.00012268
7630.0 0.00013127
7650.0 0.00014704
7670.0 0.00016818
7690.0 0.00018549
7710.0 0.00020806
7730.0 0.00022019
7750.0 0.00022844
7770.0 0.00023642
7790.0 0.00023646
7810.0 0.00023561
7830.0 0.00022713
7850.0 0.0002203
7870.0 0.00021129
7890.0 0.00019321
7910.0 0.00017486
7930.0 0.00015667
7950.0 0.00013773
7970.0 0.00013179
7990.0 0.00013725
8010.0 0.0001539
8030.0 0.00015528
8050.0 0.00015985
8070.0 0.00015788
8090.0 0.00015779
8110.0 0.00015338
8130.0 0.00014399
8150.0 0.00013446
8170.0 0.00013333
8190.0 0.00013538
8210.0 0.0001369
8230.0 0.00013088
8250.0 0.0001241
8270.0 0.00010935
8290.0 8.8795e-05
8310.0 6.8265e-05
8330.0 4.7743e-05
8350.0 3.5262e-05
8370.0 3.3669e-05
8390.0 3.868e-05
8410.0 4.6961e-05
8430.0 5.8359e-05
8450.0 6.4444e-05
8470.0 6.8695e-05
8490.0 7.4169e-05
8510.0 7.9064e-05
8530.0 8.7569e-05
8550.0 0.00010325
8570.0 0.00011929
8590.0 0.00013298
8610.0 0.00015399
8630.0 0.00017846
8650.0 0.0001897
8670.0 0.00019177
8690.0 0.00018897
8710.0 0.00018148
8730.0 0.00017409
8750.0 0.00016468
8770.0 0.00016129
8790.0 0.00015553
8810.0 0.00014411
8830.0 0.00013441
8850.0 0.00011629
8870.0 0.00010533
8890.0 9.7583e-05
8910.0 0.00010571
8930.0 0.00010143
8950.0 0.00010355
8970.0 0.00010524
8990.0 0.00010525
9010.0 0.00010657
9030.0 0.00010357
9050.0 0.00010336
9070.0 0.00010346
9090.0 0.00010356
9110.0 0.00010368
9130.0 0.00010379
9150.0 0.0001039
9170.0 0.00010391
9190.0 0.00010376
9210.0 0.00010466
9230.0 0.00010463
9250.0 0.00010471
9270.0 0.00010482
9290.0 0.00010495
9310.0 0.00010511
9330.0 0.00010528
9350.0 0.00010546
9370.0 0.00010565
9390.0 0.00010585
9410.0 0.00010606
9430.0 0.00010628
9450.0 0.0001065
9470.0 0.00010673
9490.0 0.00010696
9510.0 0.0001072
9530.0 0.00010745
9550.0 0.00010771
9570.0 0.00010798
9590.0 0.00010825
9610.0 0.00010853
9630.0 0.00010882
9650.0 0.00010911
9670.0 0.00010941
9690.0 0.00010971
9710.0 0.00011003
9730.0 0.00011034
9750.0 0.00011067
9770.0 0.000111
9790.0 0.00011134
9810.0 0.00011168
9830.0 0.00011203
9850.0 0.00011238
9870.0 0.00011274
9890.0 0.0001131
9910.0 0.00011346
9930.0 0.00011383
9950.0 0.00011415
9970.0 0.00011455
9990.0 0.00011494
10010.0 0.00011529
10030.0 0.00011568
10050.0 0.00011604
10070.0 0.0001162
10090.0 0.00011667
10110.0 0.00011713
10130.0 0.00011756
10150.0 0.00011799
10170.0 0.0001184
10190.0 0.00011878
10210.0 0.00011918
10230.0 0.00011957
10250.0 0.00011995
10270.0 0.00012033
10290.0 0.00012071
10310.0 0.00012108
10330.0 0.00012144
10350.0 0.00012181
10370.0 0.00012217
10390.0 0.00012251
10410.0 0.00012286
10430.0 0.0001232
10450.0 0.00012354
10470.0 0.00012386
10490.0 0.00012418
10510.0 0.00012449
10530.0 0.00012478
10550.0 0.00012507
10570.0 0.00012536
10590.0 0.00012563
10610.0 0.00012589
10630.0 0.00012615
10650.0 0.00012639
10670.0 0.00012662
10690.0 0.00012683
10710.0 0.00012705
10730.0 0.00012724
10750.0 0.00012741
10770.0 0.00012759
10790.0 0.00012775
10810.0 0.00012789
10830.0 0.00012801
10850.0 0.00012812
10870.0 0.00012818
10890.0 0.00012816
10910.0 0.00012804
10930.0 0.00012774
10950.0 0.00012714
10970.0 0.0001262
10990.0 0.00012488
11010.0 0.00012374
11030.0 0.00012115
11050.0 0.0001182
11070.0 0.00011481
11090.0 0.0001109
11110.0 0.00010702
11130.0 0.00010314
11150.0 9.9152e-05
11170.0 9.528e-05
11190.0 9.1769e-05
11210.0 8.8402e-05
11230.0 8.5233e-05
11250.0 8.248e-05
11270.0 8.0075e-05
11290.0 7.7892e-05
11310.0 7.6017e-05
11330.0 7.45e-05
11350.0 7.3146e-05
11370.0 7.1925e-05
11390.0 7.084e-05
11410.0 6.9812e-05
11430.0 6.8714e-05
11450.0 6.7575e-05
11470.0 6.6378e-05
11490.0 6.504e-05
11510.0 6.3527e-05
11530.0 6.1952e-05
11550.0 6.0283e-05
11570.0 5.8461e-05
11590.0 5.6594e-05
11610.0 5.4758e-05
11630.0 5.2859e-05
11650.0 5.0951e-05
11670.0 4.9189e-05
11690.0 4.7511e-05
11710.0 4.588e-05
11730.0 4.4381e-05
11750.0 4.3046e-05
11770.0 4.1771e-05
11790.0 4.0588e-05
11810.0 3.953e-05
11830.0 3.8547e-05
11850.0 3.7579e-05
11870.0 3.668e-05
11890.0 3.583e-05
11910.0 3.4966e-05
11930.0 3.4088e-05
11950.0 3.3227e-05
11970.0 3.2341e-05
11990.0 3.1399e-05
12010.0 3.046e-05
12030.0 2.9526e-05
12050.0 2.8565e-05
12070.0 2.7597e-05
12090.0 2.671e-05
12110.0 2.5857e-05
12130.0 2.5051e-05
12150.0 2.4347e-05
12170.0 2.3759e-05
12190.0 2.3264e-05
12210.0 2.2916e-05
12230.0 2.272e-05
12250.0 2.2671e-05
12270.0 2.2784e-05
12290.0 2.3043e-05
12310.0 2.3426e-05
12330.0 2.396e-05
12350.0 2.4607e-05
12370.0 2.5316e-05
12390.0 2.61e-05
12410.0 2.6975e-05
12430.0 2.7809e-05
12450.0 2.8617e-05
12470.0 2.9418e-05
12490.0 3.0156e-05
12510.0 3.0779e-05
12530.0 3.1334e-05
12550.0 3.1799e-05
12570.0 3.2133e-05
12590.0 3.2352e-05
12610.0 3.247e-05
12630.0 3.2471e-05
12650.0 3.2362e-05
12670.0 3.216e-05
12690.0 3.1867e-05
12710.0 3.1501e-05
12730.0 3.1075e-05
12750.0 3.0574e-05
12770.0 3.0032e-05
12790.0 2.9466e-05
12810.0 2.886e-05
12830.0 2.8216e-05
12850.0 2.7574e-05
12870.0 2.6917e-05
12890.0 2.6221e-05
12910.0 2.5514e-05
12930.0 2.4806e-05
12950.0 2.4055e-05
12970.0 2.3267e-05
12990.0 2.2493e-05
13010.0 2.1702e-05
13030.0 2.0878e-05
13050.0 2.0062e-05
13070.0 1.928e-05
13090.0 1.8488e-05
13110.0 1.772e-05
13130.0 1.7017e-05
13150.0 1.6366e-05
13170.0 1.5753e-05
13190.0 1.5235e-05
13210.0 1.4807e-05
13230.0 1.4451e-05
13250.0 1.4181e-05
13270.0 1.4e-05
13290.0 1.3895e-05
13310.0 1.3865e-05
13330.0 1.39e-05
13350.0 1.3987e-05
13370.0 1.4123e-05
13390.0 1.4297e-05
13410.0 1.4477e-05
13430.0 1.4672e-05
13450.0 1.4874e-05
13470.0 1.5063e-05
13490.0 1.5232e-05
13510.0 1.5397e-05
13530.0 1.5537e-05
13550.0 1.5648e-05
13570.0 1.5742e-05
13590.0 1.5821e-05
13610.0 1.5879e-05
13630.0 1.5921e-05
13650.0 1.5957e-05
13670.0 1.5984e-05
13690.0 1.6001e-05
13710.0 1.6013e-05
13730.0 1.6022e-05
13750.0 1.6021e-05
13770.0 1.6013e-05
13790.0 1.5996e-05
13810.0 1.5968e-05
13830.0 1.5926e-05
13850.0 1.5868e-05
13870.0 1.5792e-05
13890.0 1.5699e-05
13910.0 1.5589e-05
13930.0 1.5457e-05
13950.0 1.5308e-05
13970.0 1.5152e-05
13990.0 1.4984e-05
14010.0 1.4808e-05
14030.0 1.4636e-05
14050.0 1.4469e-05
14070.0 1.4302e-05
14090.0 1.4151e-05
14110.0 1.4016e-05
14130.0 1.3895e-05
14150.0 1.3789e-05
14170.0 1.3703e-05
14190.0 1.3635e-05
14210.0 1.3583e-05
14230.0 1.3549e-05
14250.0 1.3533e-05
14270.0 1.3535e-05
14290.0 1.3558e-05
14310.0 1.3598e-05
14330.0 1.3656e-05
14350.0 1.3737e-05
14370.0 1.3833e-05
14390.0 1.3941e-05
14410.0 1.4068e-05
14430.0 1.4209e-05
14450.0 1.4355e-05
14470.0 1.4511e-05
14490.0 1.4684e-05
14510.0 1.486e-05
14530.0 1.5041e-05
14550.0 1.5241e-05
14570.0 1.5461e-05
14590.0 1.5693e-05
14610.0 1.5956e-05
14630.0 1.6262e-05
14650.0 1.6596e-05
14670.0 1.6962e-05
14690.0 1.7382e-05
14710.0 1.7853e-05
14730.0 1.8333e-05
14750.0 1.8856e-05
14770.0 1.9421e-05
14790.0 1.999e-05
14810.0 2.0552e-05
14830.0 2.1148e-05
14850.0 2.1717e-05
14870.0 2.2237e-05
14890.0 2.2728e-05
14910.0 2.3179e-05
14930.0 2.3555e-05
14950.0 2.386e-05
14970.0 2.411e-05
14990.0 2.4288e-05
15010.0 2.4398e-05
15030.0 2.4458e-05
15050.0 2.4473e-05
15070.0 2.4456e-05
15090.0 2.4418e-05
15110.0 2.4365e-05
15130.0 2.4304e-05
15150.0 2.4243e-05
15170.0 2.4178e-05
15190.0 2.4111e-05
15210.0 2.4046e-05
15230.0 2.3983e-05
15250.0 2.3917e-05
15270.0 2.3852e-05
15290.0 2.3791e-05
15310.0 2.3728e-05
15330.0 2.3665e-05
15350.0 2.3604e-05
15370.0 2.3544e-05
15390.0 2.3481e-05
15410.0 2.342e-05
15430.0 2.3361e-05
15450.0 2.3301e-05
15470.0 2.3239e-05
15490.0 2.3181e-05
15510.0 2.3123e-05
15530.0 2.3063e-05
15550.0 2.3005e-05
15570.0 2.2948e-05
15590.0 2.2889e-05
15610.0 2.2829e-05
15630.0 2.2773e-05
15650.0 2.2716e-05
15670.0 2.2657e-05
15690.0 2.26e-05
15710.0 2.2545e-05
15730.0 2.2487e-05
15750.0 2.2429e-05
15770.0 2.2373e-05
15790.0 2.2317e-05
15810.0 2.2257e-05
15830.0 2.2201e-05
15850.0 2.2146e-05
15870.0 2.2088e-05
15890.0 2.2031e-05
15910.0 2.1976e-05
15930.0 2.192e-05
15950.0 2.186e-05
15970.0 2.1804e-05
15990.0 2.1748e-05
16010.0 2.169e-05
16030.0 2.1631e-05
16050.0 2.1576e-05
16070.0 2.1519e-05
16090.0 2.146e-05
16110.0 2.1403e-05
16130.0 2.1347e-05
16150.0 2.1286e-05
16170.0 2.1227e-05
16190.0 2.1171e-05
16210.0 2.1112e-05
16230.0 2.1052e-05
16250.0 2.0993e-05
16270.0 2.0936e-05
16290.0 2.0875e-05
16310.0 2.0815e-05
16330.0 2.0757e-05
16350.0 2.0697e-05
16370.0 2.0634e-05
16390.0 2.0574e-05
16410.0 2.0515e-05
16430.0 2.0453e-05
16450.0 2.0391e-05
16470.0 2.0332e-05
16490.0 2.0269e-05
16510.0 2.0205e-05
16530.0 2.0144e-05
16550.0 2.0082e-05
16570.0 2.0017e-05
16590.0 1.9952e-05
16610.0 1.9891e-05
16630.0 1.9827e-05
16650.0 1.9761e-05
16670.0 1.9698e-05
16690.0 1.9635e-05
16710.0 1.9567e-05
16730.0 1.9501e-05
16750.0 1.9436e-05
16770.0 1.937e-05
16790.0 1.9301e-05
16810.0 1.9236e-05
16830.0 1.917e-05
16850.0 1.9101e-05
16870.0 1.9033e-05
16890.0 1.8967e-05
16910.0 1.8897e-05
16930.0 1.8826e-05
16950.0 1.8758e-05
16970.0 1.8689e-05
16990.0 1.8618e-05
17010.0 1.8548e-05
17030.0 1.848e-05
17050.0 1.8407e-05
17070.0 1.8335e-05
17090.0 1.8265e-05
17110.0 1.8194e-05
17130.0 1.8119e-05
17150.0 1.8046e-05
17170.0 1.7975e-05
17190.0 1.7901e-05
17210.0 1.7827e-05
17230.0 1.7755e-05
17250.0 1.7681e-05
17270.0 1.7605e-05
17290.0 1.753e-05
17310.0 1.7457e-05
17330.0 1.738e-05
17350.0 1.7303e-05
17370.0 1.7229e-05
17390.0 1.7153e-05
17410.0 1.7075e-05
17430.0 1.6999e-05
17450.0 1.6924e-05
17470.0 1.6844e-05
17490.0 1.6765e-05
17510.0 1.6689e-05
17530.0 1.6611e-05
17550.0 1.6531e-05
17570.0 1.6453e-05
17590.0 1.6376e-05
17610.0 1.6295e-05
17630.0 1.6215e-05
17650.0 1.6137e-05
17670.0 1.6057e-05
17690.0 1.5974e-05
17710.0 1.5895e-05
17730.0 1.5816e-05
17750.0 1.5734e-05
17770.0 1.5652e-05
17790.0 1.5574e-05
17810.0 1.5491e-05
17830.0 1.5408e-05
17850.0 1.5327e-05
17870.0 1.5246e-05
17890.0 1.5162e-05
17910.0 1.5078e-05
17930.0 1.4998e-05
17950.0 1.4915e-05
17970.0 1.4831e-05
17990.0 1.475e-05
18010.0 1.4668e-05
18030.0 1.4581e-05
18050.0 1.4498e-05
18070.0 1.4416e-05
18090.0 1.4332e-05
18110.0 1.4246e-05
18130.0 1.4164e-05
18150.0 1.4081e-05
18170.0 1.3995e-05
18190.0 1.3911e-05
18210.0 1.3829e-05
18230.0 1.3742e-05
18250.0 1.3656e-05
18270.0 1.3573e-05
18290.0 1.3489e-05
18310.0 1.3402e-05
18330.0 1.3318e-05
18350.0 1.3235e-05
18370.0 1.3149e-05
18390.0 1.3063e-05
18410.0 1.2979e-05
18430.0 1.2895e-05
18450.0 1.2807e-05
18470.0 1.2722e-05
18490.0 1.2639e-05
18510.0 1.2553e-05
18530.0 1.2467e-05
18550.0 1.2384e-05
18570.0 1.2298e-05
18590.0 1.2211e-05
18610.0 1.2126e-05
18630.0 1.2042e-05
18650.0 1.1955e-05
18670.0 1.1869e-05
18690.0 1.1786e-05
18710.0 1.1701e-05
18730.0 1.1614e-05
18750.0 1.153e-05
18770.0 1.1447e-05
18790.0 1.1359e-05
18810.0 1.1273e-05
18830.0 1.119e-05
18850.0 1.1105e-05
18870.0 1.1019e-05
18890.0 1.0935e-05
18910.0 1.0852e-05
18930.0 1.0766e-05
18950.0 1.0681e-05
18970.0 1.0598e-05
18990.0 1.0513e-05
19010.0 1.0426e-05
19030.0 1.0343e-05
19050.0 1.026e-05
19070.0 1.0175e-05
19090.0 1.0091e-05
19110.0 1.001e-05
19130.0 9.9245e-06
19150.0 9.8393e-06
19170.0 9.7569e-06
19190.0 9.6742e-06
19210.0 9.5888e-06
19230.0 9.505e-06
19250.0 9.4243e-06
19270.0 9.3408e-06
19290.0 9.2569e-06
19310.0 9.1757e-06
19330.0 9.0941e-06
19350.0 9.0087e-06
19370.0 8.9265e-06
19390.0 8.8458e-06
19410.0 8.7629e-06
19430.0 8.6795e-06
19450.0 8.5997e-06
19470.0 8.5187e-06
19490.0 8.4356e-06
19510.0 8.3546e-06
19530.0 8.2751e-06
19550.0 8.1924e-06
19570.0 8.1096e-06
19590.0 8.0306e-06
19610.0 7.9504e-06
19630.0 7.8685e-06
19650.0 7.7888e-06
19670.0 7.7107e-06
19690.0 7.6291e-06
19710.0 7.5484e-06
19730.0 7.4701e-06
19750.0 7.3908e-06
19770.0 7.3088e-06
19790.0 7.2303e-06
19810.0 7.1529e-06
19830.0 7.0728e-06
19850.0 6.9928e-06
19870.0 6.9148e-06
19890.0 6.8327e-06
19910.0 6.7453e-06
19930.0 6.6557e-06
19950.0 6.5588e-06
19970.0 6.4477e-06
19990.0 6.3233e-06
20010.0 6.1913e-06
20030.0 6.0422e-06
20050.0 5.8798e-06
20070.0 5.716e-06
20090.0 5.5521e-06
20110.0 5.3816e-06
20130.0 5.2235e-06
20150.0 5.0803e-06
20170.0 4.9451e-06
20190.0 4.8215e-06
20210.0 4.716e-06
20230.0 4.6235e-06
20250.0 4.541e-06
20270.0 4.4734e-06
20290.0 4.4192e-06
20310.0 4.3751e-06
20330.0 4.3415e-06
20350.0 4.32e-06
20370.0 4.3076e-06
20390.0 4.3044e-06
20410.0 4.3102e-06
20430.0 4.3238e-06
20450.0 4.3469e-06
20470.0 4.3789e-06
20490.0 4.4176e-06
20510.0 4.4645e-06
20530.0 4.5215e-06
20550.0 4.5846e-06
20570.0 4.6518e-06
20590.0 4.7279e-06
20610.0 4.8096e-06
20630.0 4.8922e-06
20650.0 4.9784e-06
20670.0 5.0708e-06
20690.0 5.1591e-06
20710.0 5.2448e-06
20730.0 5.3313e-06
20750.0 5.4155e-06
20770.0 5.4925e-06
20790.0 5.5681e-06
20810.0 5.643e-06
20830.0 5.7133e-06
20850.0 5.7811e-06
20870.0 5.852e-06
20890.0 5.9236e-06
20910.0 5.993e-06
20930.0 6.0665e-06
20950.0 6.1447e-06
20970.0 6.2229e-06
20990.0 6.3018e-06
21010.0 6.3863e-06
21030.0 6.4694e-06
21050.0 6.5481e-06
21070.0 6.6251e-06
21090.0 6.6994e-06
21110.0 6.7631e-06
21130.0 6.8182e-06
21150.0 6.8659e-06
21170.0 6.9026e-06
21190.0 6.9273e-06
21210.0 6.9419e-06
21230.0 6.9447e-06
21250.0 6.9359e-06
21270.0 6.9164e-06
21290.0 6.8857e-06
21310.0 6.8448e-06
21330.0 6.7967e-06
21350.0 6.7387e-06
21370.0 6.672e-06
21390.0 6.6007e-06
21410.0 6.5242e-06
21430.0 6.4382e-06
21450.0 6.3511e-06
21470.0 6.2642e-06
21490.0 6.1735e-06
21510.0 6.0814e-06
21530.0 5.9942e-06
21550.0 5.9086e-06
21570.0 5.8233e-06
21590.0 5.7448e-06
21610.0 5.6737e-06
21630.0 5.6074e-06
21650.0 5.5478e-06
21670.0 5.5006e-06
21690.0 5.4617e-06
21710.0 5.432e-06
21730.0 5.4135e-06
21750.0 5.4054e-06
21770.0 5.4081e-06
21790.0 5.4221e-06
21810.0 5.446e-06
21830.0 5.48e-06
21850.0 5.5257e-06
21870.0 5.5794e-06
21890.0 5.6395e-06
21910.0 5.7101e-06
21930.0 5.7879e-06
21950.0 5.8689e-06
21970.0 5.9564e-06
21990.0 6.0529e-06
22010.0 6.1482e-06
22030.0 6.2445e-06
22050.0 6.3454e-06
22070.0 6.4468e-06
22090.0 6.5427e-06
22110.0 6.6393e-06
22130.0 6.7353e-06
22150.0 6.8241e-06
22170.0 6.9066e-06
22190.0 6.9864e-06
22210.0 7.0577e-06
22230.0 7.1168e-06
22250.0 7.168e-06
22270.0 7.2091e-06
22290.0 7.2371e-06
22310.0 7.253e-06
22330.0 7.2564e-06
22350.0 7.2453e-06
22370.0 7.221e-06
22390.0 7.1822e-06
22410.0 7.1271e-06
22430.0 7.0607e-06
22450.0 6.9819e-06
22470.0 6.8871e-06
22490.0 6.7811e-06
22510.0 6.6681e-06
22530.0 6.5402e-06
22550.0 6.4003e-06
22570.0 6.2585e-06
22590.0 6.1105e-06
22610.0 5.9521e-06
