#lamb flux
1010.0 4.073e-06
1030.0 4.2445e-06
1050.0 4.4434e-06
1070.0 4.6676e-06
1090.0 4.9226e-06
1110.0 5.1852e-06
1130.0 5.4508e-06
1150.0 5.7301e-06
1170.0 6.0198e-06
1190.0 6.2965e-06
1210.0 6.5786e-06
1230.0 6.8719e-06
1250.0 7.1616e-06
1270.0 7.4456e-06
1290.0 7.7473e-06
1310.0 8.0514e-06
1330.0 8.3464e-06
1350.0 8.6473e-06
1370.0 8.9604e-06
1390.0 9.2692e-06
1410.0 9.5728e-06
1430.0 9.8922e-06
1450.0 1.0215e-05
1470.0 1.0531e-05
1490.0 1.0853e-05
1510.0 1.1195e-05
1530.0 1.1524e-05
1550.0 1.1851e-05
1570.0 1.2191e-05
1590.0 1.2533e-05
1610.0 1.2863e-05
1630.0 1.3203e-05
1650.0 1.3552e-05
1670.0 1.389e-05
1690.0 1.4225e-05
1710.0 1.4569e-05
1730.0 1.4913e-05
1750.0 1.5236e-05
1770.0 1.5564e-05
1790.0 1.5895e-05
1810.0 1.621e-05
1830.0 1.6515e-05
1850.0 1.6832e-05
1870.0 1.7135e-05
1890.0 1.742e-05
1910.0 1.7704e-05
1930.0 1.7987e-05
1950.0 1.8249e-05
1970.0 1.85e-05
1990.0 1.8755e-05
2010.0 1.8998e-05
2030.0 1.9224e-05
2050.0 1.9453e-05
2070.0 1.9685e-05
2090.0 1.9897e-05
2110.0 2.0107e-05
2130.0 2.0324e-05
2150.0 2.0537e-05
2170.0 2.074e-05
2190.0 2.0959e-05
2210.0 2.1186e-05
2230.0 2.1411e-05
2250.0 2.1646e-05
2270.0 2.1906e-05
2290.0 2.2173e-05
2310.0 2.2447e-05
2330.0 2.2749e-05
2350.0 2.3076e-05
2370.0 2.3416e-05
2390.0 2.3787e-05
2410.0 2.4199e-05
2430.0 2.4634e-05
2450.0 2.5093e-05
2470.0 2.5586e-05
2490.0 2.6107e-05
2510.0 2.6638e-05
2530.0 2.7224e-05
2550.0 2.7938e-05
2570.0 2.8887e-05
2590.0 3.0223e-05
2610.0 3.2287e-05
2630.0 3.5284e-05
2650.0 3.9207e-05
2670.0 4.4206e-05
2690.0 5.0279e-05
2710.0 5.6844e-05
2730.0 6.3572e-05
2750.0 7.0583e-05
2770.0 7.7409e-05
2790.0 8.3861e-05
2810.0 9.0239e-05
2830.0 9.681e-05
2850.0 0.00010324
2870.0 0.00010985
2890.0 0.00011688
2910.0 0.00012423
2930.0 0.0001317
2950.0 0.00013966
2970.0 0.00014805
2990.0 0.00015658
3010.0 0.0002814
3030.0 0.000297
3050.0 0.00031271
3070.0 0.00032741
3090.0 0.00034072
3110.0 0.0003502
3130.0 0.00035275
3150.0 0.00034501
3170.0 0.00032023
3190.0 0.00027705
3210.0 0.00021573
3230.0 0.00014555
3250.0 0.00021137
3270.0 0.00010681
3290.0 0.00026808
3310.0 7.4653e-05
3330.0 7.861e-05
3350.0 0.00010801
3370.0 0.00014093
3390.0 0.00017556
3410.0 0.00021003
3430.0 0.00024588
3450.0 0.00028155
3470.0 0.00031442
3490.0 0.00033622
3510.0 0.00040695
3530.0 0.00054252
3550.0 0.00055951
3570.0 0.00050847
3590.0 0.00070462
3610.0 0.00050734
3630.0 0.00073324
3650.0 0.00080445
3670.0 0.0010019
3690.0 0.00098528
3710.0 0.00077549
3730.0 0.0009999
3750.0 0.0010414
3770.0 0.0010645
3790.0 0.00096882
3810.0 0.00083903
3830.0 0.0010435
3850.0 0.001062
3870.0 0.0012942
3890.0 0.0012519
3910.0 0.0011982
3930.0 0.0013302
3950.0 0.0014944
3970.0 0.0019368
3990.0 0.0016778
4010.0 0.0012425
4030.0 0.0015196
4050.0 0.0015656
4070.0 0.0017306
4090.0 0.0015848
4110.0 0.0011765
4130.0 0.0014501
4150.0 0.0013331
4170.0 0.0014128
4190.0 0.0014135
4210.0 0.0016816
4230.0 0.0012555
4250.0 0.0014778
4270.0 0.0014767
4290.0 0.0014996
4310.0 0.0017664
4330.0 0.0018166
4350.0 0.0014894
4370.0 0.0013389
4390.0 0.0015233
4410.0 0.0015013
4430.0 0.001186
4450.0 0.0011817
4470.0 0.0013284
4490.0 0.0010542
4510.0 0.0012435
4530.0 0.0013536
4550.0 0.0017812
4570.0 0.0025531
4590.0 0.0025969
4610.0 0.001962
4630.0 0.0028311
4650.0 0.0038278
4670.0 0.0035956
4690.0 0.002357
4710.0 0.0024402
4730.0 0.002915
4750.0 0.0025817
4770.0 0.0019972
4790.0 0.0014709
4810.0 0.0019975
4830.0 0.0022803
4850.0 0.0021478
4870.0 0.0010784
4890.0 0.0023071
4910.0 0.0030177
4930.0 0.0032402
4950.0 0.0033014
4970.0 0.002391
4990.0 0.0026674
5010.0 0.0029005
5030.0 0.0029592
5050.0 0.0028183
5070.0 0.0020811
5090.0 0.001744
5110.0 0.0016437
5130.0 0.0014913
5150.0 0.0016856
5170.0 0.0015032
5190.0 0.0017989
5210.0 0.0018
5230.0 0.001957
5250.0 0.0024527
5270.0 0.0022076
5290.0 0.002213
5310.0 0.0030225
5330.0 0.0034473
5350.0 0.0030478
5370.0 0.0027509
5390.0 0.0029893
5410.0 0.003549
5430.0 0.0038488
5450.0 0.0041628
5470.0 0.0043287
5490.0 0.0043823
5510.0 0.005044
5530.0 0.0052112
5550.0 0.0054722
5570.0 0.0056876
5590.0 0.0056146
5610.0 0.0053718
5630.0 0.0052171
5650.0 0.0052851
5670.0 0.0052284
5690.0 0.0045587
5710.0 0.0043045
5730.0 0.0042297
5750.0 0.0044795
5770.0 0.0039561
5790.0 0.0036939
5810.0 0.0037706
5830.0 0.0039319
5850.0 0.0036386
5870.0 0.0036077
5890.0 0.0041081
5910.0 0.0039372
5930.0 0.0033592
5950.0 0.0029917
5970.0 0.0031027
5990.0 0.0028347
6010.0 0.0026301
6030.0 0.0026403
6050.0 0.002497
6070.0 0.0019953
6090.0 0.0018349
6110.0 0.0022323
6130.0 0.0025065
6150.0 0.0026455
6170.0 0.0026509
6190.0 0.0025886
6210.0 0.0025687
6230.0 0.0028593
6250.0 0.0026412
6270.0 0.0024001
6290.0 0.0021737
6310.0 0.0020296
6330.0 0.0019236
6350.0 0.0017194
6370.0 0.0017266
6390.0 0.0020248
6410.0 0.0024849
6430.0 0.0028682
6450.0 0.0028074
6470.0 0.0028258
6490.0 0.0033942
6510.0 0.0037854
6530.0 0.0036223
6550.0 0.0035266
6570.0 0.0035769
6590.0 0.0034745
6610.0 0.0037181
6630.0 0.0035378
6650.0 0.0032103
6670.0 0.0029211
6690.0 0.0027824
6710.0 0.0032245
6730.0 0.0029923
6750.0 0.0026747
6770.0 0.0024914
6790.0 0.0025996
6810.0 0.002806
6830.0 0.0027375
6850.0 0.0025286
6870.0 0.002569
6890.0 0.0025015
6910.0 0.0023679
6930.0 0.0026519
6950.0 0.0025092
6970.0 0.0024153
6990.0 0.0024386
7010.0 0.0023452
7030.0 0.0022016
7050.0 0.0020841
7070.0 0.002151
7090.0 0.0020122
7110.0 0.0017769
7130.0 0.0014897
7150.0 0.0013659
7170.0 0.0017119
7190.0 0.0018452
7210.0 0.0018219
7230.0 0.0019222
7250.0 0.0018475
7270.0 0.0017912
7290.0 0.001926
7310.0 0.0020703
7330.0 0.0020125
7350.0 0.001903
7370.0 0.0018472
7390.0 0.0019459
7410.0 0.0022436
7430.0 0.0024573
7450.0 0.0026517
7470.0 0.0026636
7490.0 0.0027198
7510.0 0.0026024
7530.0 0.0025793
7550.0 0.0024891
7570.0 0.0021845
7590.0 0.0021437
7610.0 0.0021003
7630.0 0.0020195
7650.0 0.0022403
7670.0 0.0024577
7690.0 0.0026758
7710.0 0.0029565
7730.0 0.0031538
7750.0 0.0033019
7770.0 0.003308
7790.0 0.0035698
7810.0 0.0036889
7830.0 0.0034845
7850.0 0.0035103
7870.0 0.0033531
7890.0 0.0034513
7910.0 0.0032736
7930.0 0.0032803
7950.0 0.0029825
7970.0 0.0030556
7990.0 0.0029538
8010.0 0.002921
8030.0 0.0029169
8050.0 0.0030446
8070.0 0.0029562
8090.0 0.0029655
8110.0 0.0028832
8130.0 0.0028813
8150.0 0.0027736
8170.0 0.0026986
8190.0 0.0026666
8210.0 0.002689
8230.0 0.0024276
8250.0 0.0022346
8270.0 0.0019574
8290.0 0.0016144
8310.0 0.0013491
8330.0 0.0010697
8350.0 0.0009113
8370.0 0.00096014
8390.0 0.001014
8410.0 0.0010914
8430.0 0.001302
8450.0 0.0013884
8470.0 0.0014624
8490.0 0.0016603
8510.0 0.0018183
8530.0 0.0021022
8550.0 0.0024865
8570.0 0.0027931
8590.0 0.0030233
8610.0 0.0032916
8630.0 0.0035798
8650.0 0.0036349
8670.0 0.0036671
8690.0 0.0038038
8710.0 0.003789
8730.0 0.0037837
8750.0 0.00362
8770.0 0.0036252
8790.0 0.0035762
8810.0 0.0033125
8830.0 0.0032913
8850.0 0.0031043
8870.0 0.0029859
8890.0 0.0027676
8910.0 0.0029273
8930.0 0.0027039
8950.0 0.0026462
8970.0 0.0026408
8990.0 0.0025603
9010.0 0.0025833
9030.0 0.0024904
9050.0 0.0024765
9070.0 0.0024723
9090.0 0.0024678
9110.0 0.0024639
9130.0 0.0024586
9150.0 0.0024527
9170.0 0.0024416
9190.0 0.0024224
9210.0 0.0024455
9230.0 0.0024325
9250.0 0.0024227
9270.0 0.0024135
9290.0 0.0024045
9310.0 0.0023957
9330.0 0.002387
9350.0 0.002378
9370.0 0.002369
9390.0 0.0023598
9410.0 0.0023504
9430.0 0.0023407
9450.0 0.0023307
9470.0 0.0023205
9490.0 0.0023107
9510.0 0.0023005
9530.0 0.0022902
9550.0 0.0022797
9570.0 0.0022691
9590.0 0.0022584
9610.0 0.0022476
9630.0 0.0022367
9650.0 0.0022258
9670.0 0.0022148
9690.0 0.0022038
9710.0 0.0021927
9730.0 0.0021817
9750.0 0.0021706
9770.0 0.0021594
9790.0 0.0021483
9810.0 0.0021373
9830.0 0.0021262
9850.0 0.0021152
9870.0 0.0021042
9890.0 0.0020932
9910.0 0.0020823
9930.0 0.0020714
9950.0 0.002053
9970.0 0.0020446
9990.0 0.0020358
10010.0 0.0020268
10030.0 0.0020173
10050.0 0.0020071
10070.0 0.0019954
10090.0 0.0019862
10110.0 0.0019766
10130.0 0.0019671
10150.0 0.0019577
10170.0 0.0019481
10190.0 0.0019382
10210.0 0.0019288
10230.0 0.0019197
10250.0 0.0019103
10270.0 0.0019011
10290.0 0.0018923
10310.0 0.0018834
10330.0 0.0018744
10350.0 0.0018658
10370.0 0.0018575
10390.0 0.001849
10410.0 0.0018406
10430.0 0.0018328
10450.0 0.0018248
10470.0 0.0018168
10490.0 0.0018092
10510.0 0.0018018
10530.0 0.001794
10550.0 0.0017866
10570.0 0.0017796
10590.0 0.0017725
10610.0 0.0017653
10630.0 0.0017587
10650.0 0.0017521
10670.0 0.0017453
10690.0 0.0017388
10710.0 0.0017326
10730.0 0.0017263
10750.0 0.0017198
10770.0 0.001714
10790.0 0.0017082
10810.0 0.0017022
10830.0 0.0016964
10850.0 0.001691
10870.0 0.0016849
10890.0 0.0016785
10910.0 0.0016718
10930.0 0.0016638
10950.0 0.0016535
10970.0 0.0016408
10990.0 0.0016258
11010.0 0.001571
11030.0 0.0015498
11050.0 0.0015258
11070.0 0.0014988
11090.0 0.0014677
11110.0 0.0014369
11130.0 0.001406
11150.0 0.001374
11170.0 0.0013423
11190.0 0.0013127
11210.0 0.0012832
11230.0 0.0012538
11250.0 0.0012265
11270.0 0.0012009
11290.0 0.0011756
11310.0 0.0011517
11330.0 0.0011309
11350.0 0.0011108
11370.0 0.0010918
11390.0 0.0010747
11410.0 0.0010592
11430.0 0.0010435
11450.0 0.0010289
11470.0 0.0010153
11490.0 0.0010016
11510.0 0.00098717
11530.0 0.00097321
11550.0 0.00095887
11570.0 0.00094307
11590.0 0.00092661
11610.0 0.00090995
11630.0 0.00089161
11650.0 0.00087178
11670.0 0.00085227
11690.0 0.00083222
11710.0 0.00081095
11730.0 0.00078981
11750.0 0.00076976
11770.0 0.00074912
11790.0 0.00072874
11810.0 0.0007099
11830.0 0.00069198
11850.0 0.00067397
11870.0 0.00065773
11890.0 0.00064319
11910.0 0.00062913
11930.0 0.00061591
11950.0 0.00060425
11970.0 0.00059326
11990.0 0.00058242
12010.0 0.00057261
12030.0 0.00056363
12050.0 0.00055475
12070.0 0.00054607
12090.0 0.00053852
12110.0 0.00053121
12130.0 0.00052406
12150.0 0.00051766
12170.0 0.00051212
12190.0 0.00050679
12210.0 0.00050246
12230.0 0.0004994
12250.0 0.00049744
12270.0 0.00049672
12290.0 0.00049764
12310.0 0.00050015
12330.0 0.00050434
12350.0 0.0005103
12370.0 0.00051781
12390.0 0.00052692
12410.0 0.00053791
12430.0 0.00054974
12450.0 0.00056239
12470.0 0.00057605
12490.0 0.00059012
12510.0 0.00060381
12530.0 0.00061766
12550.0 0.00063133
12570.0 0.00064405
12590.0 0.00065589
12610.0 0.00066713
12630.0 0.00067726
12650.0 0.000686
12670.0 0.00069383
12690.0 0.00070059
12710.0 0.00070618
12730.0 0.00071076
12750.0 0.00071433
12770.0 0.00071689
12790.0 0.00071858
12810.0 0.00071935
12830.0 0.00071914
12850.0 0.00071829
12870.0 0.00071673
12890.0 0.00071421
12910.0 0.00071103
12930.0 0.0007074
12950.0 0.00070281
12970.0 0.00069736
12990.0 0.00069167
13010.0 0.00068535
13030.0 0.00067811
13050.0 0.00067044
13070.0 0.00066267
13090.0 0.00065403
13110.0 0.00064492
13130.0 0.00063598
13150.0 0.00062695
13170.0 0.00061744
13190.0 0.00060863
13210.0 0.00060066
13230.0 0.00059306
13250.0 0.00058633
13270.0 0.00058098
13290.0 0.00057669
13310.0 0.00057347
13330.0 0.00057169
13350.0 0.00057113
13370.0 0.00057154
13390.0 0.00057284
13410.0 0.00057469
13430.0 0.0005768
13450.0 0.00057887
13470.0 0.00058056
13490.0 0.00058161
13510.0 0.00058171
13530.0 0.00058068
13550.0 0.00057856
13570.0 0.0005752
13590.0 0.00057049
13610.0 0.00056489
13630.0 0.00055862
13650.0 0.00055135
13670.0 0.00054364
13690.0 0.00053596
13710.0 0.00052809
13730.0 0.00051993
13750.0 0.00051252
13770.0 0.0005055
13790.0 0.00049863
13810.0 0.00049224
13830.0 0.00048652
13850.0 0.00048097
13870.0 0.00047566
13890.0 0.00047081
13910.0 0.00046622
13930.0 0.00046164
13950.0 0.00045726
13970.0 0.00045322
13990.0 0.0004492
14010.0 0.00044527
14030.0 0.00044162
14050.0 0.00043818
14070.0 0.0004348
14090.0 0.00043176
14110.0 0.00042905
14130.0 0.00042659
14150.0 0.00042441
14170.0 0.00042262
14190.0 0.00042114
14210.0 0.00041996
14230.0 0.00041913
14250.0 0.00041861
14270.0 0.00041843
14290.0 0.00041861
14310.0 0.00041904
14330.0 0.00041974
14350.0 0.00042077
14370.0 0.00042197
14390.0 0.00042324
14410.0 0.0004247
14430.0 0.00042622
14450.0 0.0004276
14470.0 0.0004289
14490.0 0.00043017
14510.0 0.00043115
14530.0 0.00043189
14550.0 0.0004325
14570.0 0.00043296
14590.0 0.00043324
14610.0 0.00043352
14630.0 0.00043392
14650.0 0.00043441
14670.0 0.00043512
14690.0 0.00043626
14710.0 0.00043793
14730.0 0.00043993
14750.0 0.0004426
14770.0 0.00044607
14790.0 0.0004501
14810.0 0.00045465
14830.0 0.00046033
14850.0 0.00046654
14870.0 0.00047297
14890.0 0.00047989
14910.0 0.00048717
14930.0 0.00049393
14950.0 0.00049998
14970.0 0.00050547
14990.0 0.00050963
15010.0 0.00051222
15030.0 0.00051351
15050.0 0.00051355
15070.0 0.00051238
15090.0 0.00051045
15110.0 0.00050799
15130.0 0.0005052
15150.0 0.00050224
15170.0 0.00049918
15190.0 0.00049606
15210.0 0.00049294
15230.0 0.00048982
15250.0 0.00048667
15270.0 0.00048352
15290.0 0.00048041
15310.0 0.00047728
15330.0 0.00047414
15350.0 0.00047103
15370.0 0.00046793
15390.0 0.0004648
15410.0 0.00046169
15430.0 0.00045861
15450.0 0.00045551
15470.0 0.00045241
15490.0 0.00044935
15510.0 0.0004463
15530.0 0.00044323
15550.0 0.00044019
15570.0 0.00043717
15590.0 0.00043414
15610.0 0.00043111
15630.0 0.00042813
15650.0 0.00042515
15670.0 0.00042217
15690.0 0.00041921
15710.0 0.00041629
15730.0 0.00041336
15750.0 0.00041044
15770.0 0.00040755
15790.0 0.00040468
15810.0 0.00040179
15830.0 0.00039894
15850.0 0.00039613
15870.0 0.00039331
15890.0 0.00039051
15910.0 0.00038775
15930.0 0.00038499
15950.0 0.00038223
15970.0 0.00037951
15990.0 0.00037682
16010.0 0.00037412
16030.0 0.00037144
16050.0 0.00036881
16070.0 0.00036619
16090.0 0.00036357
16110.0 0.00036099
16130.0 0.00035844
16150.0 0.00035587
16170.0 0.00035334
16190.0 0.00035084
16210.0 0.00034836
16230.0 0.00034588
16250.0 0.00034344
16270.0 0.00034103
16290.0 0.00033862
16310.0 0.00033623
16330.0 0.00033388
16350.0 0.00033154
16370.0 0.0003292
16390.0 0.00032691
16410.0 0.00032464
16430.0 0.00032238
16450.0 0.00032014
16470.0 0.00031794
16490.0 0.00031574
16510.0 0.00031356
16530.0 0.00031141
16550.0 0.00030929
16570.0 0.00030716
16590.0 0.00030507
16610.0 0.00030301
16630.0 0.00030096
16650.0 0.00029893
16670.0 0.00029693
16690.0 0.00029495
16710.0 0.00029297
16730.0 0.00029102
16750.0 0.0002891
16770.0 0.00028719
16790.0 0.00028529
16810.0 0.00028344
16830.0 0.0002816
16850.0 0.00027976
16870.0 0.00027796
16890.0 0.00027618
16910.0 0.00027441
16930.0 0.00027264
16950.0 0.00027092
16970.0 0.00026922
16990.0 0.00026751
17010.0 0.00026584
17030.0 0.0002642
17050.0 0.00026255
17070.0 0.00026093
17090.0 0.00025934
17110.0 0.00025776
17130.0 0.00025618
17150.0 0.00025463
17170.0 0.00025311
17190.0 0.0002516
17210.0 0.0002501
17230.0 0.00024863
17250.0 0.00024717
17270.0 0.00024572
17290.0 0.00024429
17310.0 0.00024289
17330.0 0.00024149
17350.0 0.0002401
17370.0 0.00023876
17390.0 0.00023741
17410.0 0.00023607
17430.0 0.00023476
17450.0 0.00023348
17470.0 0.00023218
17490.0 0.0002309
17510.0 0.00022966
17530.0 0.00022842
17550.0 0.00022719
17570.0 0.00022599
17590.0 0.0002248
17610.0 0.00022361
17630.0 0.00022244
17650.0 0.0002213
17670.0 0.00022016
17690.0 0.00021902
17710.0 0.00021792
17730.0 0.00021683
17750.0 0.00021574
17770.0 0.00021466
17790.0 0.00021362
17810.0 0.00021257
17830.0 0.00021153
17850.0 0.00021051
17870.0 0.00020951
17890.0 0.0002085
17910.0 0.00020751
17930.0 0.00020655
17950.0 0.00020559
17970.0 0.00020464
17990.0 0.00020371
18010.0 0.00020279
18030.0 0.00020186
18050.0 0.00020095
18070.0 0.00020007
18090.0 0.00019918
18110.0 0.0001983
18130.0 0.00019745
18150.0 0.00019661
18170.0 0.00019576
18190.0 0.00019493
18210.0 0.00019412
18230.0 0.0001933
18250.0 0.00019249
18270.0 0.00019171
18290.0 0.00019094
18310.0 0.00019016
18330.0 0.0001894
18350.0 0.00018865
18370.0 0.0001879
18390.0 0.00018716
18410.0 0.00018644
18430.0 0.00018573
18450.0 0.000185
18470.0 0.00018431
18490.0 0.00018362
18510.0 0.00018294
18530.0 0.00018226
18550.0 0.0001816
18570.0 0.00018094
18590.0 0.00018027
18610.0 0.00017963
18630.0 0.000179
18650.0 0.00017837
18670.0 0.00017774
18690.0 0.00017713
18710.0 0.00017653
18730.0 0.00017592
18750.0 0.00017533
18770.0 0.00017475
18790.0 0.00017416
18810.0 0.00017358
18830.0 0.00017302
18850.0 0.00017246
18870.0 0.00017189
18890.0 0.00017135
18910.0 0.00017082
18930.0 0.00017027
18950.0 0.00016974
18970.0 0.00016923
18990.0 0.00016871
19010.0 0.00016818
19030.0 0.00016768
19050.0 0.00016718
19070.0 0.00016668
19090.0 0.00016619
19110.0 0.00016571
19130.0 0.00016523
19150.0 0.00016474
19170.0 0.00016428
19190.0 0.00016382
19210.0 0.00016334
19230.0 0.00016289
19250.0 0.00016245
19270.0 0.000162
19290.0 0.00016155
19310.0 0.00016112
19330.0 0.00016069
19350.0 0.00016025
19370.0 0.00015982
19390.0 0.00015941
19410.0 0.00015899
19430.0 0.00015857
19450.0 0.00015817
19470.0 0.00015777
19490.0 0.00015736
19510.0 0.00015696
19530.0 0.00015658
19550.0 0.00015618
19570.0 0.00015578
19590.0 0.00015541
19610.0 0.00015503
19630.0 0.00015464
19650.0 0.00015427
19670.0 0.00015391
19690.0 0.00015354
19710.0 0.00015317
19730.0 0.00015282
19750.0 0.00015246
19770.0 0.00015209
19790.0 0.00015174
19810.0 0.0001514
19830.0 0.00015104
19850.0 0.00015068
19870.0 0.00015033
19890.0 0.00014994
19910.0 0.0001495
19930.0 0.00014899
19950.0 0.00014837
19970.0 0.00014754
19990.0 0.0001465
20010.0 0.00014526
20030.0 0.00014372
20050.0 0.00014189
20070.0 0.00013988
20090.0 0.00013772
20110.0 0.00013526
20130.0 0.00013278
20150.0 0.00013034
20170.0 0.0001278
20190.0 0.00012524
20210.0 0.00012282
20230.0 0.00012047
20250.0 0.0001181
20270.0 0.00011591
20290.0 0.0001139
20310.0 0.00011199
20330.0 0.0001102
20350.0 0.00010873
20370.0 0.00010744
20390.0 0.00010633
20410.0 0.00010546
20430.0 0.00010485
20450.0 0.00010443
20470.0 0.00010425
20490.0 0.00010429
20510.0 0.00010454
20530.0 0.000105
20550.0 0.00010563
20570.0 0.00010639
20590.0 0.00010732
20610.0 0.00010836
20630.0 0.00010945
20650.0 0.00011061
20670.0 0.00011186
20690.0 0.00011307
20710.0 0.00011424
20730.0 0.0001154
20750.0 0.00011649
20770.0 0.00011746
20790.0 0.00011834
20810.0 0.00011912
20830.0 0.00011975
20850.0 0.00012025
20870.0 0.00012062
20890.0 0.00012085
20910.0 0.00012094
20930.0 0.0001209
20950.0 0.00012073
20970.0 0.00012045
20990.0 0.00012009
21010.0 0.0001196
21030.0 0.00011904
21050.0 0.00011842
21070.0 0.00011774
21090.0 0.00011697
21110.0 0.00011621
21130.0 0.00011544
21150.0 0.00011462
21170.0 0.00011381
21190.0 0.00011304
21210.0 0.00011227
21230.0 0.00011151
21250.0 0.00011084
21270.0 0.00011023
21290.0 0.00010968
21310.0 0.00010921
21330.0 0.00010884
21350.0 0.00010856
21370.0 0.00010838
21390.0 0.0001083
21410.0 0.00010833
21430.0 0.00010846
21450.0 0.0001087
21470.0 0.00010902
21490.0 0.00010944
21510.0 0.00010996
21530.0 0.00011054
21550.0 0.00011119
21570.0 0.00011192
21590.0 0.0001127
21610.0 0.00011351
21630.0 0.00011438
21650.0 0.00011531
21670.0 0.00011622
21690.0 0.00011717
21710.0 0.00011816
21730.0 0.00011916
21750.0 0.00012014
21770.0 0.00012119
21790.0 0.00012225
21810.0 0.00012329
21830.0 0.00012435
21850.0 0.00012545
21870.0 0.00012653
21890.0 0.00012759
21910.0 0.00012868
21930.0 0.00012978
21950.0 0.00013083
21970.0 0.00013188
21990.0 0.00013295
22010.0 0.00013394
22030.0 0.00013487
22050.0 0.00013579
22070.0 0.00013663
22090.0 0.00013737
22110.0 0.00013804
22130.0 0.00013862
22150.0 0.00013908
22170.0 0.00013941
22190.0 0.00013961
22210.0 0.00013967
22230.0 0.00013958
22250.0 0.00013934
22270.0 0.00013893
22290.0 0.00013838
22310.0 0.00013769
22330.0 0.0001368
22350.0 0.00013577
22370.0 0.00013463
22390.0 0.00013334
22410.0 0.00013187
22430.0 0.00013036
22450.0 0.00012878
22470.0 0.00012704
22490.0 0.00012527
22510.0 0.0001235
22530.0 0.00012163
22550.0 0.0001197
22570.0 0.00011785
22590.0 0.00011602
22610.0 0.00011415
22630.0 0.00011234
22650.0 0.00011066
22670.0 0.00010897
22690.0 0.00010733
22710.0 0.00010583
22730.0 0.0001044
22750.0 0.00010297
22770.0 0.00010168
22790.0 0.0001005
22810.0 9.9371e-05
22830.0 9.8306e-05
22850.0 9.7359e-05
22870.0 9.6469e-05
22890.0 9.5613e-05
22910.0 9.4845e-05
22930.0 9.4153e-05
22950.0 9.3495e-05
22970.0 9.288e-05
22990.0 9.2359e-05
23010.0 9.1877e-05
23030.0 9.1432e-05
