#lamb flux
1010.0 4.2019e-08
1030.0 4.7335e-08
1050.0 5.3448e-08
1070.0 6.033e-08
1090.0 6.8147e-08
1110.0 7.6165e-08
1130.0 8.4234e-08
1150.0 9.2687e-08
1170.0 1.0141e-07
1190.0 1.0967e-07
1210.0 1.1805e-07
1230.0 1.2671e-07
1250.0 1.352e-07
1270.0 1.4344e-07
1290.0 1.5214e-07
1310.0 1.6084e-07
1330.0 1.6918e-07
1350.0 1.7762e-07
1370.0 1.8633e-07
1390.0 1.9482e-07
1410.0 2.0306e-07
1430.0 2.1167e-07
1450.0 2.2028e-07
1470.0 2.286e-07
1490.0 2.3701e-07
1510.0 2.4589e-07
1530.0 2.543e-07
1550.0 2.6259e-07
1570.0 2.7117e-07
1590.0 2.7975e-07
1610.0 2.8795e-07
1630.0 2.9639e-07
1650.0 3.0505e-07
1670.0 3.1341e-07
1690.0 3.2166e-07
1710.0 3.3022e-07
1730.0 3.3881e-07
1750.0 3.4687e-07
1770.0 3.5514e-07
1790.0 3.6357e-07
1810.0 3.7169e-07
1830.0 3.7963e-07
1850.0 3.8805e-07
1870.0 3.9619e-07
1890.0 4.0401e-07
1910.0 4.1193e-07
1930.0 4.1999e-07
1950.0 4.276e-07
1970.0 4.3503e-07
1990.0 4.4267e-07
2010.0 4.5008e-07
2030.0 4.5708e-07
2050.0 4.642e-07
2070.0 4.714e-07
2090.0 4.7797e-07
2110.0 4.8435e-07
2130.0 4.9079e-07
2150.0 4.9689e-07
2170.0 5.0244e-07
2190.0 5.0806e-07
2210.0 5.1348e-07
2230.0 5.1835e-07
2250.0 5.2291e-07
2270.0 5.2753e-07
2290.0 5.3161e-07
2310.0 5.3508e-07
2330.0 5.3847e-07
2350.0 5.4161e-07
2370.0 5.4418e-07
2390.0 5.466e-07
2410.0 5.493e-07
2430.0 5.5185e-07
2450.0 5.5453e-07
2470.0 5.5806e-07
2490.0 5.6275e-07
2510.0 5.6819e-07
2530.0 5.7621e-07
2550.0 5.894e-07
2570.0 6.1014e-07
2590.0 6.4194e-07
2610.0 6.9479e-07
2630.0 7.7151e-07
2650.0 8.6836e-07
2670.0 9.87e-07
2690.0 1.1229e-06
2710.0 1.2556e-06
2730.0 1.3744e-06
2750.0 1.4802e-06
2770.0 1.5603e-06
2790.0 1.6131e-06
2810.0 1.6462e-06
2830.0 1.6649e-06
2850.0 1.6692e-06
2870.0 1.6662e-06
2890.0 1.6598e-06
2910.0 1.6509e-06
2930.0 1.64e-06
2950.0 1.6293e-06
2970.0 1.6191e-06
2990.0 1.6083e-06
3010.0 3.7584e-05
3030.0 3.7333e-05
3050.0 3.7086e-05
3070.0 3.6812e-05
3090.0 3.6526e-05
3110.0 3.619e-05
3130.0 3.5761e-05
3150.0 3.5216e-05
3170.0 3.4511e-05
3190.0 3.3663e-05
3210.0 3.2736e-05
3230.0 3.1794e-05
3250.0 3.0964e-05
3270.0 3.0392e-05
3290.0 3.0148e-05
3310.0 3.0288e-05
3330.0 3.0825e-05
3350.0 3.168e-05
3370.0 3.287e-05
3390.0 3.4355e-05
3410.0 3.5969e-05
3430.0 3.7788e-05
3450.0 3.9881e-05
3470.0 4.2161e-05
3490.0 4.4569e-05
3510.0 4.7272e-05
3530.0 5.0162e-05
3550.0 5.3103e-05
3570.0 5.6219e-05
3590.0 5.9705e-05
3610.0 6.3387e-05
3630.0 6.7232e-05
3650.0 7.127e-05
3670.0 7.5049e-05
3690.0 7.7986e-05
3710.0 7.9743e-05
3730.0 7.9809e-05
3750.0 7.8145e-05
3770.0 7.3183e-05
3790.0 6.685e-05
3810.0 6.0226e-05
3830.0 5.3352e-05
3850.0 4.4607e-05
3870.0 3.19e-05
3890.0 4.619e-05
3910.0 7.3295e-05
3930.0 8.9554e-05
3950.0 8.8761e-05
3970.0 9.3851e-05
3990.0 0.00010491
4010.0 0.00013959
4030.0 0.00013816
4050.0 0.00012173
4070.0 0.0001127
4090.0 0.00010717
4110.0 0.00012685
4130.0 0.00013638
4150.0 0.00014027
4170.0 0.0001364
4190.0 0.000136
4210.0 0.0001365
4230.0 0.00015476
4250.0 0.00017078
4270.0 0.00017534
4290.0 0.00017468
4310.0 0.00017535
4330.0 0.00019103
4350.0 0.0002247
4370.0 0.00025754
4390.0 0.00023746
4410.0 0.0001856
4430.0 0.00015347
4450.0 0.00013253
4470.0 0.00012563
4490.0 0.00014297
4510.0 0.00017207
4530.0 0.00019346
4550.0 0.0002185
4570.0 0.00024916
4590.0 0.00029744
4610.0 0.00040349
4630.0 0.0005026
4650.0 0.00050845
4670.0 0.00048122
4690.0 0.00051266
4710.0 0.00054459
4730.0 0.00045786
4750.0 0.00031946
4770.0 0.0002559
4790.0 0.00025283
4810.0 0.00023797
4830.0 0.0002254
4850.0 0.00025598
4870.0 0.00033343
4890.0 0.0003867
4910.0 0.00032184
4930.0 0.00028593
4950.0 0.00032041
4970.0 0.00043136
4990.0 0.00056624
5010.0 0.00061277
5030.0 0.00050329
5050.0 0.00031815
5070.0 0.00021888
5090.0 0.00019136
5110.0 0.00019785
5130.0 0.00021533
5150.0 0.00022366
5170.0 0.00022207
5190.0 0.00021539
5210.0 0.00021064
5230.0 0.00022136
5250.0 0.00023948
5270.0 0.00026667
5290.0 0.00030601
5310.0 0.00034683
5330.0 0.00035661
5350.0 0.00035669
5370.0 0.00038974
5390.0 0.00043251
5410.0 0.00041346
5430.0 0.00034916
5450.0 0.00032303
5470.0 0.00036291
5490.0 0.00046563
5510.0 0.00059514
5530.0 0.00066775
5550.0 0.00063913
5570.0 0.00057601
5590.0 0.00050655
5610.0 0.00047364
5630.0 0.00045932
5650.0 0.00046372
5670.0 0.00044905
5690.0 0.0004077
5710.0 0.00039061
5730.0 0.00035995
5750.0 0.0002448
5770.0 0.00020835
5790.0 0.00023752
5810.0 0.00028497
5830.0 0.00033664
5850.0 0.0003796
5870.0 0.00039324
5890.0 0.00037925
5910.0 0.00036324
5930.0 0.00036226
5950.0 0.00037861
5970.0 0.0004149
5990.0 0.00038571
6010.0 0.00032004
6030.0 0.00026499
6050.0 0.00022989
6070.0 0.00023379
6090.0 0.00026478
6110.0 0.00028951
6130.0 0.00027703
6150.0 0.00024888
6170.0 0.00026173
6190.0 0.00031709
6210.0 0.00039897
6230.0 0.00047645
6250.0 0.00048221
6270.0 0.0004224
6290.0 0.00035094
6310.0 0.00027708
6330.0 0.00021735
6350.0 0.00019646
6370.0 0.00021086
6390.0 0.00025113
6410.0 0.00029465
6430.0 0.00034369
6450.0 0.00040331
6470.0 0.00048243
6490.0 0.00059429
6510.0 0.00066135
6530.0 0.00062015
6550.0 0.00056799
6570.0 0.00053844
6590.0 0.00051849
6610.0 0.00045617
6630.0 0.00041762
6650.0 0.00038492
6670.0 0.00039215
6690.0 0.00037831
6710.0 0.00033915
6730.0 0.0002917
6750.0 0.00026792
6770.0 0.00027134
6790.0 0.00030932
6810.0 0.00030286
6830.0 0.00031132
6850.0 0.00030056
6870.0 0.00028718
6890.0 0.000277
6910.0 0.00027276
6930.0 0.00025521
6950.0 0.0002653
6970.0 0.00026817
6990.0 0.0002997
7010.0 0.00031774
7030.0 0.00029767
7050.0 0.00027706
7070.0 0.00026713
7090.0 0.00025004
7110.0 0.00023712
7130.0 0.00024557
7150.0 0.00026205
7170.0 0.00028069
7190.0 0.00028459
7210.0 0.00027609
7230.0 0.00028476
7250.0 0.00032367
7270.0 0.00037645
7290.0 0.00041554
7310.0 0.00040995
7330.0 0.00036575
7350.0 0.00032688
7370.0 0.00030301
7390.0 0.00030689
7410.0 0.0003284
7430.0 0.00036005
7450.0 0.00038944
7470.0 0.00041856
7490.0 0.0004545
7510.0 0.00048014
7530.0 0.00044802
7550.0 0.00037726
7570.0 0.00029659
7590.0 0.00021845
7610.0 0.00019401
7630.0 0.00020995
7650.0 0.00024318
7670.0 0.00028216
7690.0 0.00032001
7710.0 0.00034179
7730.0 0.00035121
7750.0 0.00036703
7770.0 0.00036579
7790.0 0.00035217
7810.0 0.00035117
7830.0 0.00034455
7850.0 0.00031468
7870.0 0.000286
7890.0 0.00025673
7910.0 0.0002191
7930.0 0.00019134
7950.0 0.00017345
7970.0 0.00016876
7990.0 0.00017327
8010.0 0.00018267
8030.0 0.00018305
8050.0 0.00018439
8070.0 0.0001814
8090.0 0.00018584
8110.0 0.0001753
8130.0 0.00015343
8150.0 0.00014416
8170.0 0.00013287
8190.0 0.00013152
8210.0 0.000141
8230.0 0.00015086
8250.0 0.00013981
8270.0 0.00012464
8290.0 0.00010241
8310.0 7.0587e-05
8330.0 4.5815e-05
8350.0 3.3374e-05
8370.0 3.5474e-05
8390.0 4.2014e-05
8410.0 5.3372e-05
8430.0 6.5223e-05
8450.0 7.2019e-05
8470.0 7.9909e-05
8490.0 7.8559e-05
8510.0 7.8969e-05
8530.0 8.248e-05
8550.0 9.9856e-05
8570.0 0.00012302
8590.0 0.00014057
8610.0 0.00016992
8630.0 0.00019698
8650.0 0.00020727
8670.0 0.00021073
8690.0 0.00020948
8710.0 0.00019589
8730.0 0.00018804
8750.0 0.00017403
8770.0 0.00016712
8790.0 0.0001658
8810.0 0.00015808
8830.0 0.00013298
8850.0 0.00010959
8870.0 9.1395e-05
8890.0 8.9339e-05
8910.0 9.65e-05
8930.0 0.00010242
8950.0 0.00011495
8970.0 0.00011677
8990.0 0.00011496
9010.0 0.00011056
9030.0 0.00010939
9050.0 0.00011047
9070.0 0.00011132
9090.0 0.00011196
9110.0 0.00011253
9130.0 0.00011304
9150.0 0.00011352
9170.0 0.00011403
9190.0 0.00011457
9210.0 0.00011515
9230.0 0.00011575
9250.0 0.00011639
9270.0 0.00011705
9290.0 0.00011774
9310.0 0.00011846
9330.0 0.00011922
9350.0 0.00011999
9370.0 0.0001208
9390.0 0.00012164
9410.0 0.0001225
9430.0 0.00012338
9450.0 0.0001243
9470.0 0.00012525
9490.0 0.00012621
9510.0 0.00012721
9530.0 0.00012823
9550.0 0.00012927
9570.0 0.00013033
9590.0 0.00013143
9610.0 0.00013254
9630.0 0.00013367
9650.0 0.00013483
9670.0 0.00013601
9690.0 0.00013721
9710.0 0.00013843
9730.0 0.00013967
9750.0 0.00014093
9770.0 0.0001422
9790.0 0.00014349
9810.0 0.0001448
9830.0 0.00014612
9850.0 0.00014746
9870.0 0.00014881
9890.0 0.00015018
9910.0 0.00015155
9930.0 0.00015294
9950.0 0.00015434
9970.0 0.00015574
9990.0 0.00015715
10010.0 0.00015134
10030.0 0.00015267
10050.0 0.000154
10070.0 0.00015532
10090.0 0.00015667
10110.0 0.00015801
10130.0 0.00015935
10150.0 0.00016069
10170.0 0.00016203
10190.0 0.00016335
10210.0 0.00016469
10230.0 0.00016601
10250.0 0.00016732
10270.0 0.00016863
10290.0 0.00016993
10310.0 0.00017121
10330.0 0.00017247
10350.0 0.00017374
10370.0 0.00017499
10390.0 0.00017621
10410.0 0.00017742
10430.0 0.00017862
10450.0 0.0001798
10470.0 0.00018094
10490.0 0.00018208
10510.0 0.0001832
10530.0 0.00018427
10550.0 0.00018533
10570.0 0.00018637
10590.0 0.00018738
10610.0 0.00018835
10630.0 0.00018931
10650.0 0.00019024
10670.0 0.00019112
10690.0 0.00019197
10710.0 0.00019281
10730.0 0.0001936
10750.0 0.00019434
10770.0 0.00019507
10790.0 0.00019576
10810.0 0.0001964
10830.0 0.00019701
10850.0 0.00019757
10870.0 0.00019804
10890.0 0.00019839
10910.0 0.00019858
10930.0 0.00019851
10950.0 0.00019801
10970.0 0.00019701
10990.0 0.00019545
11010.0 0.00018982
11030.0 0.00018677
11050.0 0.00018315
11070.0 0.00017886
11090.0 0.0001737
11110.0 0.00016838
11130.0 0.00016284
11150.0 0.00015687
11170.0 0.00015075
11190.0 0.00014487
11210.0 0.00013887
11230.0 0.00013282
11250.0 0.00012716
11270.0 0.00012184
11290.0 0.00011663
11310.0 0.00011181
11330.0 0.00010766
11350.0 0.00010382
11370.0 0.00010032
11390.0 9.7318e-05
11410.0 9.4686e-05
11430.0 9.2198e-05
11450.0 8.998e-05
11470.0 8.7965e-05
11490.0 8.5971e-05
11510.0 8.3915e-05
11530.0 8.1888e-05
11550.0 7.9781e-05
11570.0 7.7468e-05
11590.0 7.5039e-05
11610.0 7.2563e-05
11630.0 6.9891e-05
11650.0 6.7073e-05
11670.0 6.4344e-05
11690.0 6.1629e-05
11710.0 5.8885e-05
11730.0 5.6278e-05
11750.0 5.3906e-05
11770.0 5.1619e-05
11790.0 4.9507e-05
11810.0 4.7664e-05
11830.0 4.6023e-05
11850.0 4.4511e-05
11870.0 4.3228e-05
11890.0 4.213e-05
11910.0 4.1126e-05
11930.0 4.0208e-05
11950.0 3.9381e-05
11970.0 3.8579e-05
11990.0 3.7755e-05
12010.0 3.6934e-05
12030.0 3.6102e-05
12050.0 3.5214e-05
12070.0 3.4276e-05
12090.0 3.3363e-05
12110.0 3.2433e-05
12130.0 3.1493e-05
12150.0 3.061e-05
12170.0 2.981e-05
12190.0 2.9062e-05
12210.0 2.8443e-05
12230.0 2.798e-05
12250.0 2.7666e-05
12270.0 2.7525e-05
12290.0 2.7566e-05
12310.0 2.7769e-05
12330.0 2.8162e-05
12350.0 2.872e-05
12370.0 2.9396e-05
12390.0 3.0203e-05
12410.0 3.1169e-05
12430.0 3.2147e-05
12450.0 3.3151e-05
12470.0 3.4206e-05
12490.0 3.5242e-05
12510.0 3.6181e-05
12530.0 3.7084e-05
12550.0 3.7919e-05
12570.0 3.8607e-05
12590.0 3.9164e-05
12610.0 3.9611e-05
12630.0 3.9905e-05
12650.0 4.003e-05
12670.0 4.0026e-05
12690.0 3.9883e-05
12710.0 3.9609e-05
12730.0 3.9223e-05
12750.0 3.8715e-05
12770.0 3.8114e-05
12790.0 3.7447e-05
12810.0 3.67e-05
12830.0 3.5878e-05
12850.0 3.5037e-05
12870.0 3.4164e-05
12890.0 3.3231e-05
12910.0 3.2283e-05
12930.0 3.134e-05
12950.0 3.0349e-05
12970.0 2.9325e-05
12990.0 2.8333e-05
13010.0 2.7335e-05
13030.0 2.6306e-05
13050.0 2.5296e-05
13070.0 2.433e-05
13090.0 2.3348e-05
13110.0 2.2385e-05
13130.0 2.1487e-05
13150.0 2.0632e-05
13170.0 1.9797e-05
13190.0 1.9054e-05
13210.0 1.8405e-05
13230.0 1.782e-05
13250.0 1.7326e-05
13270.0 1.6944e-05
13290.0 1.6656e-05
13310.0 1.6467e-05
13330.0 1.6389e-05
13350.0 1.6409e-05
13370.0 1.6528e-05
13390.0 1.6746e-05
13410.0 1.7024e-05
13430.0 1.7372e-05
13450.0 1.7787e-05
13470.0 1.8231e-05
13490.0 1.8685e-05
13510.0 1.9183e-05
13530.0 1.9672e-05
13550.0 2.0124e-05
13570.0 2.0558e-05
13590.0 2.0968e-05
13610.0 2.1319e-05
13630.0 2.1611e-05
13650.0 2.1866e-05
13670.0 2.2062e-05
13690.0 2.2195e-05
13710.0 2.2278e-05
13730.0 2.2311e-05
13750.0 2.2288e-05
13770.0 2.2221e-05
13790.0 2.2111e-05
13810.0 2.1962e-05
13830.0 2.1783e-05
13850.0 2.157e-05
13870.0 2.1324e-05
13890.0 2.106e-05
13910.0 2.0776e-05
13930.0 2.0462e-05
13950.0 2.0133e-05
13970.0 1.9806e-05
13990.0 1.946e-05
14010.0 1.9103e-05
14030.0 1.8755e-05
14050.0 1.8413e-05
14070.0 1.8061e-05
14090.0 1.7731e-05
14110.0 1.7428e-05
14130.0 1.7142e-05
14150.0 1.688e-05
14170.0 1.6662e-05
14190.0 1.6481e-05
14210.0 1.6335e-05
14230.0 1.6236e-05
14250.0 1.6181e-05
14270.0 1.6171e-05
14290.0 1.6209e-05
14310.0 1.6288e-05
14330.0 1.6406e-05
14350.0 1.6568e-05
14370.0 1.6759e-05
14390.0 1.6971e-05
14410.0 1.7217e-05
14430.0 1.7485e-05
14450.0 1.7759e-05
14470.0 1.8045e-05
14490.0 1.8356e-05
14510.0 1.8664e-05
14530.0 1.897e-05
14550.0 1.9296e-05
14570.0 1.9636e-05
14590.0 1.9975e-05
14610.0 2.034e-05
14630.0 2.0743e-05
14650.0 2.1163e-05
14670.0 2.1607e-05
14690.0 2.2105e-05
14710.0 2.2652e-05
14730.0 2.3207e-05
14750.0 2.3815e-05
14770.0 2.4478e-05
14790.0 2.5159e-05
14810.0 2.585e-05
14830.0 2.6608e-05
14850.0 2.7365e-05
14870.0 2.8093e-05
14890.0 2.8819e-05
14910.0 2.9531e-05
14930.0 3.0169e-05
14950.0 3.0729e-05
14970.0 3.1228e-05
14990.0 3.1623e-05
15010.0 3.191e-05
15030.0 3.2109e-05
15050.0 3.2228e-05
15070.0 3.2275e-05
15090.0 3.2278e-05
15110.0 3.225e-05
15130.0 3.2203e-05
15150.0 3.215e-05
15170.0 3.2089e-05
15190.0 3.2025e-05
15210.0 3.1964e-05
15230.0 3.1903e-05
15250.0 3.1839e-05
15270.0 3.1776e-05
15290.0 3.1718e-05
15310.0 3.1658e-05
15330.0 3.1596e-05
15350.0 3.1538e-05
15370.0 3.148e-05
15390.0 3.1418e-05
15410.0 3.1359e-05
15430.0 3.1302e-05
15450.0 3.1244e-05
15470.0 3.1183e-05
15490.0 3.1127e-05
15510.0 3.1071e-05
15530.0 3.1011e-05
15550.0 3.0954e-05
15570.0 3.0899e-05
15590.0 3.084e-05
15610.0 3.0779e-05
15630.0 3.0724e-05
15650.0 3.0667e-05
15670.0 3.0607e-05
15690.0 3.055e-05
15710.0 3.0494e-05
15730.0 3.0435e-05
15750.0 3.0376e-05
15770.0 3.0319e-05
15790.0 3.0261e-05
15810.0 3.0199e-05
15830.0 3.014e-05
15850.0 3.0083e-05
15870.0 3.0022e-05
15890.0 2.9961e-05
15910.0 2.9903e-05
15930.0 2.9843e-05
15950.0 2.9779e-05
15970.0 2.9718e-05
15990.0 2.9658e-05
16010.0 2.9594e-05
16030.0 2.9529e-05
16050.0 2.9469e-05
16070.0 2.9406e-05
16090.0 2.934e-05
16110.0 2.9276e-05
16130.0 2.9214e-05
16150.0 2.9145e-05
16170.0 2.9078e-05
16190.0 2.9013e-05
16210.0 2.8946e-05
16230.0 2.8876e-05
16250.0 2.8809e-05
16270.0 2.8742e-05
16290.0 2.8671e-05
16310.0 2.86e-05
16330.0 2.8531e-05
16350.0 2.846e-05
16370.0 2.8384e-05
16390.0 2.8313e-05
16410.0 2.8241e-05
16430.0 2.8166e-05
16450.0 2.8091e-05
16470.0 2.8019e-05
16490.0 2.7942e-05
16510.0 2.7863e-05
16530.0 2.7787e-05
16550.0 2.771e-05
16570.0 2.763e-05
16590.0 2.7549e-05
16610.0 2.7472e-05
16630.0 2.7391e-05
16650.0 2.7308e-05
16670.0 2.7228e-05
16690.0 2.7147e-05
16710.0 2.706e-05
16730.0 2.6976e-05
16750.0 2.6893e-05
16770.0 2.6807e-05
16790.0 2.6718e-05
16810.0 2.6634e-05
16830.0 2.6548e-05
16850.0 2.6458e-05
16870.0 2.6369e-05
16890.0 2.6282e-05
16910.0 2.619e-05
16930.0 2.6096e-05
16950.0 2.6007e-05
16970.0 2.5916e-05
16990.0 2.5821e-05
17010.0 2.5728e-05
17030.0 2.5636e-05
17050.0 2.554e-05
17070.0 2.5443e-05
17090.0 2.5349e-05
17110.0 2.5253e-05
17130.0 2.5153e-05
17150.0 2.5055e-05
17170.0 2.4959e-05
17190.0 2.4859e-05
17210.0 2.4759e-05
17230.0 2.4661e-05
17250.0 2.4561e-05
17270.0 2.4457e-05
17290.0 2.4356e-05
17310.0 2.4255e-05
17330.0 2.4151e-05
17350.0 2.4045e-05
17370.0 2.3944e-05
17390.0 2.384e-05
17410.0 2.3734e-05
17430.0 2.363e-05
17450.0 2.3526e-05
17470.0 2.3417e-05
17490.0 2.3309e-05
17510.0 2.3204e-05
17530.0 2.3097e-05
17550.0 2.2987e-05
17570.0 2.288e-05
17590.0 2.2773e-05
17610.0 2.2662e-05
17630.0 2.2552e-05
17650.0 2.2444e-05
17670.0 2.2334e-05
17690.0 2.222e-05
17710.0 2.2111e-05
17730.0 2.2001e-05
17750.0 2.1889e-05
17770.0 2.1777e-05
17790.0 2.1668e-05
17810.0 2.1554e-05
17830.0 2.144e-05
17850.0 2.1328e-05
17870.0 2.1217e-05
17890.0 2.1101e-05
17910.0 2.0987e-05
17930.0 2.0876e-05
17950.0 2.0762e-05
17970.0 2.0647e-05
17990.0 2.0535e-05
18010.0 2.0422e-05
18030.0 2.0304e-05
18050.0 2.019e-05
18070.0 2.0077e-05
18090.0 1.9962e-05
18110.0 1.9845e-05
18130.0 1.9732e-05
18150.0 1.9618e-05
18170.0 1.9502e-05
18190.0 1.9387e-05
18210.0 1.9274e-05
18230.0 1.9157e-05
18250.0 1.904e-05
18270.0 1.8927e-05
18290.0 1.8812e-05
18310.0 1.8696e-05
18330.0 1.8581e-05
18350.0 1.8469e-05
18370.0 1.8352e-05
18390.0 1.8236e-05
18410.0 1.8123e-05
18430.0 1.8009e-05
18450.0 1.7891e-05
18470.0 1.7777e-05
18490.0 1.7665e-05
18510.0 1.7549e-05
18530.0 1.7434e-05
18550.0 1.7323e-05
18570.0 1.7208e-05
18590.0 1.7092e-05
18610.0 1.6979e-05
18630.0 1.6867e-05
18650.0 1.6752e-05
18670.0 1.6638e-05
18690.0 1.6527e-05
18710.0 1.6415e-05
18730.0 1.6301e-05
18750.0 1.6189e-05
18770.0 1.6079e-05
18790.0 1.5964e-05
18810.0 1.5852e-05
18830.0 1.5742e-05
18850.0 1.5631e-05
18870.0 1.5518e-05
18890.0 1.5409e-05
18910.0 1.53e-05
18930.0 1.5188e-05
18950.0 1.5078e-05
18970.0 1.497e-05
18990.0 1.4861e-05
19010.0 1.4748e-05
19030.0 1.4641e-05
19050.0 1.4534e-05
19070.0 1.4425e-05
19090.0 1.4317e-05
19110.0 1.4212e-05
19130.0 1.4103e-05
19150.0 1.3995e-05
19170.0 1.389e-05
19190.0 1.3784e-05
19210.0 1.3676e-05
19230.0 1.357e-05
19250.0 1.3467e-05
19270.0 1.3362e-05
19290.0 1.3257e-05
19310.0 1.3154e-05
19330.0 1.3051e-05
19350.0 1.2945e-05
19370.0 1.2842e-05
19390.0 1.2741e-05
19410.0 1.2638e-05
19430.0 1.2534e-05
19450.0 1.2435e-05
19470.0 1.2334e-05
19490.0 1.2232e-05
19510.0 1.2132e-05
19530.0 1.2033e-05
19550.0 1.1932e-05
19570.0 1.1831e-05
19590.0 1.1734e-05
19610.0 1.1636e-05
19630.0 1.1536e-05
19650.0 1.1439e-05
19670.0 1.1344e-05
19690.0 1.1245e-05
19710.0 1.1148e-05
19730.0 1.1053e-05
19750.0 1.0957e-05
19770.0 1.0859e-05
19790.0 1.0765e-05
19810.0 1.0672e-05
19830.0 1.0576e-05
19850.0 1.0481e-05
19870.0 1.0388e-05
19890.0 1.0291e-05
19910.0 1.0189e-05
19930.0 1.0085e-05
19950.0 9.9723e-06
19970.0 9.8446e-06
19990.0 9.7016e-06
20010.0 9.7399e-06
20030.0 9.5612e-06
20050.0 9.3624e-06
20070.0 9.1554e-06
20090.0 8.9403e-06
20110.0 8.7061e-06
20130.0 8.4759e-06
20150.0 8.2534e-06
20170.0 8.0287e-06
20190.0 7.8061e-06
20210.0 7.5993e-06
20230.0 7.4008e-06
20250.0 7.2052e-06
20270.0 7.0256e-06
20290.0 6.8627e-06
20310.0 6.7095e-06
20330.0 6.5676e-06
20350.0 6.4499e-06
20370.0 6.3462e-06
20390.0 6.2564e-06
20410.0 6.1847e-06
20430.0 6.1304e-06
20450.0 6.0896e-06
20470.0 6.065e-06
20490.0 6.0551e-06
20510.0 6.0584e-06
20530.0 6.0751e-06
20550.0 6.1027e-06
20570.0 6.1385e-06
20590.0 6.1849e-06
20610.0 6.2393e-06
20630.0 6.2977e-06
20650.0 6.362e-06
20670.0 6.4347e-06
20690.0 6.5072e-06
20710.0 6.5807e-06
20730.0 6.659e-06
20750.0 6.7393e-06
20770.0 6.8162e-06
20790.0 6.8958e-06
20810.0 6.9788e-06
20830.0 7.0598e-06
20850.0 7.1398e-06
20870.0 7.225e-06
20890.0 7.3112e-06
20910.0 7.3934e-06
20930.0 7.4787e-06
20950.0 7.5674e-06
20970.0 7.6538e-06
20990.0 7.7392e-06
21010.0 7.83e-06
21030.0 7.9192e-06
21050.0 8.0045e-06
21070.0 8.0905e-06
21090.0 8.1779e-06
21110.0 8.258e-06
21130.0 8.3339e-06
21150.0 8.4091e-06
21170.0 8.4787e-06
21190.0 8.5402e-06
21210.0 8.5985e-06
21230.0 8.6511e-06
21250.0 8.6935e-06
21270.0 8.7279e-06
21290.0 8.7547e-06
21310.0 8.771e-06
21330.0 8.7762e-06
21350.0 8.7709e-06
21370.0 8.7534e-06
21390.0 8.7236e-06
21410.0 8.6814e-06
21430.0 8.6228e-06
21450.0 8.5515e-06
21470.0 8.4687e-06
21490.0 8.3706e-06
21510.0 8.258e-06
21530.0 8.1383e-06
21550.0 8.0081e-06
21570.0 7.8638e-06
21590.0 7.716e-06
21610.0 7.5672e-06
21630.0 7.4121e-06
21650.0 7.2533e-06
21670.0 7.1078e-06
21690.0 6.9658e-06
21710.0 6.8283e-06
21730.0 6.7044e-06
21750.0 6.5963e-06
21770.0 6.4968e-06
21790.0 6.4149e-06
21810.0 6.3525e-06
21830.0 6.3069e-06
21850.0 6.279e-06
21870.0 6.2703e-06
21890.0 6.2788e-06
21910.0 6.3051e-06
21930.0 6.3486e-06
21950.0 6.4056e-06
21970.0 6.4777e-06
21990.0 6.5678e-06
22010.0 6.6657e-06
22030.0 6.7723e-06
22050.0 6.8916e-06
22070.0 7.019e-06
22090.0 7.1459e-06
22110.0 7.2803e-06
22130.0 7.4212e-06
22150.0 7.5585e-06
22170.0 7.6932e-06
22190.0 7.8319e-06
22210.0 7.9656e-06
22230.0 8.0867e-06
22250.0 8.2038e-06
22270.0 8.3143e-06
22290.0 8.4106e-06
22310.0 8.4946e-06
22330.0 8.5698e-06
22350.0 8.6289e-06
22370.0 8.6714e-06
22390.0 8.6992e-06
22410.0 8.7104e-06
22430.0 8.7039e-06
22450.0 8.6809e-06
22470.0 8.6395e-06
22490.0 8.5809e-06
22510.0 8.5077e-06
22530.0 8.4147e-06
22550.0 8.3024e-06
22570.0 8.1787e-06
22590.0 8.0403e-06
22610.0 7.8822e-06
22630.0 7.712e-06
