#lamb flux
1010.0 1.6803e-06
1030.0 1.8279e-06
1050.0 2.0021e-06
1070.0 2.1983e-06
1090.0 2.4198e-06
1110.0 2.6473e-06
1130.0 2.8764e-06
1150.0 3.1165e-06
1170.0 3.3641e-06
1190.0 3.5987e-06
1210.0 3.836e-06
1230.0 4.0805e-06
1250.0 4.3196e-06
1270.0 4.5508e-06
1290.0 4.7941e-06
1310.0 5.036e-06
1330.0 5.2668e-06
1350.0 5.4992e-06
1370.0 5.7383e-06
1390.0 5.9707e-06
1410.0 6.1955e-06
1430.0 6.4306e-06
1450.0 6.6657e-06
1470.0 6.8931e-06
1490.0 7.1235e-06
1510.0 7.3679e-06
1530.0 7.6003e-06
1550.0 7.8306e-06
1570.0 8.0701e-06
1590.0 8.3112e-06
1610.0 8.5432e-06
1630.0 8.7842e-06
1650.0 9.0328e-06
1670.0 9.275e-06
1690.0 9.5154e-06
1710.0 9.766e-06
1730.0 1.0019e-05
1750.0 1.0258e-05
1770.0 1.0504e-05
1790.0 1.0754e-05
1810.0 1.0996e-05
1830.0 1.1233e-05
1850.0 1.1483e-05
1870.0 1.1723e-05
1890.0 1.1953e-05
1910.0 1.2183e-05
1930.0 1.2415e-05
1950.0 1.2632e-05
1970.0 1.284e-05
1990.0 1.3052e-05
2010.0 1.3253e-05
2030.0 1.344e-05
2050.0 1.3629e-05
2070.0 1.3816e-05
2090.0 1.3985e-05
2110.0 1.4147e-05
2130.0 1.4311e-05
2150.0 1.4466e-05
2170.0 1.4606e-05
2190.0 1.4751e-05
2210.0 1.4894e-05
2230.0 1.5026e-05
2250.0 1.5154e-05
2270.0 1.529e-05
2290.0 1.5417e-05
2310.0 1.5535e-05
2330.0 1.5659e-05
2350.0 1.5784e-05
2370.0 1.5902e-05
2390.0 1.6022e-05
2410.0 1.6156e-05
2430.0 1.6287e-05
2450.0 1.6419e-05
2470.0 1.6566e-05
2490.0 1.673e-05
2510.0 1.6904e-05
2530.0 1.7135e-05
2550.0 1.7488e-05
2570.0 1.8035e-05
2590.0 1.8869e-05
2610.0 2.023e-05
2630.0 2.2195e-05
2650.0 2.4683e-05
2670.0 2.774e-05
2690.0 3.1264e-05
2710.0 3.4758e-05
2730.0 3.7923e-05
2750.0 4.0689e-05
2770.0 4.265e-05
2790.0 4.3696e-05
2810.0 4.3923e-05
2830.0 4.3347e-05
2850.0 4.22e-05
2870.0 4.0671e-05
2890.0 3.8822e-05
2910.0 3.6821e-05
2930.0 3.4842e-05
2950.0 3.2763e-05
2970.0 3.0632e-05
2990.0 2.8586e-05
3010.0 3.8666e-05
3030.0 3.5645e-05
3050.0 3.266e-05
3070.0 2.9916e-05
3090.0 2.717e-05
3110.0 2.4548e-05
3130.0 2.2288e-05
3150.0 2.0764e-05
3170.0 1.9547e-05
3190.0 3.2264e-05
3210.0 9.0806e-05
3230.0 0.00018564
3250.0 0.00023556
3270.0 0.00020801
3290.0 0.00015966
3310.0 0.00013213
3330.0 0.0001238
3350.0 0.00012712
3370.0 0.00013387
3390.0 0.00014104
3410.0 0.00014828
3430.0 0.00015506
3450.0 0.00016241
3470.0 0.00017041
3490.0 0.00017585
3510.0 0.00017026
3530.0 0.0001739
3550.0 0.00021811
3570.0 0.00027389
3590.0 0.00030246
3610.0 0.00031192
3630.0 0.00031963
3650.0 0.0003192
3670.0 0.00033836
3690.0 0.00040491
3710.0 0.0004798
3730.0 0.00052879
3750.0 0.00056358
3770.0 0.00057048
3790.0 0.00054839
3810.0 0.00050693
3830.0 0.0004432
3850.0 0.00037572
3870.0 0.0003409
3890.0 0.00038134
3910.0 0.00048236
3930.0 0.00058339
3950.0 0.00064344
3970.0 0.00066884
3990.0 0.00069675
4010.0 0.00071286
4030.0 0.00064316
4050.0 0.00050756
4070.0 0.00043801
4090.0 0.00046169
4110.0 0.00050828
4130.0 0.00053444
4150.0 0.0005373
4170.0 0.00052505
4190.0 0.00051612
4210.0 0.00052921
4230.0 0.00056006
4250.0 0.00058517
4270.0 0.00059449
4290.0 0.0005863
4310.0 0.00059008
4330.0 0.0006259
4350.0 0.00066827
4370.0 0.00066517
4390.0 0.00061692
4410.0 0.00054452
4430.0 0.00045585
4450.0 0.00039326
4470.0 0.00039122
4490.0 0.00042733
4510.0 0.00047351
4530.0 0.00052346
4550.0 0.00060165
4570.0 0.00075186
4590.0 0.00096601
4610.0 0.001141
4630.0 0.0012293
4650.0 0.0013019
4670.0 0.0013724
4690.0 0.0013423
4710.0 0.0011706
4730.0 0.00094352
4750.0 0.00076055
4770.0 0.00065016
4790.0 0.00060948
4810.0 0.00060934
4830.0 0.00065197
4850.0 0.00073715
4870.0 0.00081342
4890.0 0.0008383
4910.0 0.000858
4930.0 0.00093854
4950.0 0.0010472
4970.0 0.0011032
4990.0 0.0010727
5010.0 0.00096082
5030.0 0.00080467
5050.0 0.00067255
5070.0 0.00059173
5090.0 0.00055858
5110.0 0.00055858
5130.0 0.00056397
5150.0 0.00055896
5170.0 0.00054662
5190.0 0.00055266
5210.0 0.00059399
5230.0 0.00066922
5250.0 0.00078203
5270.0 0.00090001
5290.0 0.00098091
5310.0 0.0010461
5330.0 0.0011284
5350.0 0.0011901
5370.0 0.0011781
5390.0 0.0011162
5410.0 0.0010711
5430.0 0.0011066
5450.0 0.0012394
5470.0 0.0014034
5490.0 0.0015178
5510.0 0.0015544
5530.0 0.0015358
5550.0 0.0014872
5570.0 0.0014277
5590.0 0.0013717
5610.0 0.0013312
5630.0 0.0013139
5650.0 0.0012875
5670.0 0.001208
5690.0 0.0010937
5710.0 0.00099108
5730.0 0.00091767
5750.0 0.00089188
5770.0 0.00091099
5790.0 0.00093381
5810.0 0.00094076
5830.0 0.00093944
5850.0 0.00092032
5870.0 0.00089027
5890.0 0.00088187
5910.0 0.00089247
5930.0 0.00087784
5950.0 0.00081749
5970.0 0.00072174
5990.0 0.00061358
6010.0 0.0005345
6030.0 0.00051193
6050.0 0.0005398
6070.0 0.00056577
6090.0 0.00054679
6110.0 0.00051587
6130.0 0.00052636
6150.0 0.00057079
6170.0 0.00061158
6190.0 0.00063493
6210.0 0.00064216
6230.0 0.00062465
6250.0 0.00056915
6270.0 0.00048986
6290.0 0.00042465
6310.0 0.00040154
6330.0 0.00041375
6350.0 0.00043498
6370.0 0.0004623
6390.0 0.00052075
6410.0 0.00060859
6430.0 0.00068167
6450.0 0.0007181
6470.0 0.00073826
6490.0 0.00075304
6510.0 0.00075913
6530.0 0.0007632
6550.0 0.00077347
6570.0 0.00078634
6590.0 0.00079511
6610.0 0.00078561
6630.0 0.00075038
6650.0 0.00069705
6670.0 0.00064624
6690.0 0.0006135
6710.0 0.00058872
6730.0 0.00056249
6750.0 0.00054992
6770.0 0.00056253
6790.0 0.00058061
6810.0 0.00058619
6830.0 0.00057689
6850.0 0.00055431
6870.0 0.00053132
6890.0 0.0005184
6910.0 0.00051983
6930.0 0.00052864
6950.0 0.00053562
6970.0 0.00054172
6990.0 0.00054002
7010.0 0.00052291
7030.0 0.00048741
7050.0 0.00044117
7070.0 0.0004088
7090.0 0.00040452
7110.0 0.00041114
7130.0 0.00039704
7150.0 0.00036872
7170.0 0.00036511
7190.0 0.00039772
7210.0 0.00044341
7230.0 0.00048047
7250.0 0.00049561
7270.0 0.00048486
7290.0 0.0004599
7310.0 0.00044082
7330.0 0.00044152
7350.0 0.00045217
7370.0 0.00046079
7390.0 0.00048062
7410.0 0.00052033
7430.0 0.00056579
7450.0 0.00060108
7470.0 0.00061133
7490.0 0.00058205
7510.0 0.0005407
7530.0 0.00051809
7550.0 0.00049189
7570.0 0.00046416
7590.0 0.00045057
7610.0 0.0004513
7630.0 0.00046729
7650.0 0.00050003
7670.0 0.00054181
7690.0 0.00057986
7710.0 0.00060739
7730.0 0.00063058
7750.0 0.00064975
7770.0 0.00065861
7790.0 0.00066863
7810.0 0.00066966
7830.0 0.0006491
7850.0 0.00062625
7870.0 0.00061341
7890.0 0.00061351
7910.0 0.00061457
7930.0 0.00060075
7950.0 0.00058109
7970.0 0.0005605
7990.0 0.00054276
8010.0 0.00051749
8030.0 0.00051863
8050.0 0.00051802
8070.0 0.00051135
8090.0 0.0005066
8110.0 0.000499
8130.0 0.00049959
8150.0 0.00049606
8170.0 0.00048754
8190.0 0.00047406
8210.0 0.00045867
8230.0 0.00044414
8250.0 0.0004391
8270.0 0.00041392
8290.0 0.00035954
8310.0 0.0002988
8330.0 0.00025744
8350.0 0.00024709
8370.0 0.00027386
8390.0 0.00031287
8410.0 0.00033402
8430.0 0.00034676
8450.0 0.00037066
8470.0 0.00040021
8490.0 0.00044038
8510.0 0.00048701
8530.0 0.00053567
8550.0 0.00057438
8570.0 0.00060311
8590.0 0.00062467
8610.0 0.00063705
8630.0 0.00063526
8650.0 0.00062468
8670.0 0.0006258
8690.0 0.00065806
8710.0 0.00070179
8730.0 0.00072287
8750.0 0.00071795
8770.0 0.00072555
8790.0 0.00072604
8810.0 0.00069448
8830.0 0.00064471
8850.0 0.00058217
8870.0 0.00053461
8890.0 0.00052015
8910.0 0.00051137
8930.0 0.00047899
8950.0 0.00044356
8970.0 0.00042916
8990.0 0.00043062
9010.0 0.00042315
9030.0 0.00041563
9050.0 0.00041178
9070.0 0.00040973
9090.0 0.00040793
9110.0 0.00040619
9130.0 0.00040445
9150.0 0.00040276
9170.0 0.00040101
9190.0 0.00039956
9210.0 0.00039869
9230.0 0.0003967
9250.0 0.00039489
9270.0 0.00039319
9290.0 0.00039158
9310.0 0.00039001
9330.0 0.00038847
9350.0 0.000387
9370.0 0.00038555
9390.0 0.00038409
9410.0 0.00038267
9430.0 0.00038119
9450.0 0.00037921
9470.0 0.00037742
9490.0 0.00037661
9510.0 0.00037554
9530.0 0.00037441
9550.0 0.00037321
9570.0 0.00037198
9590.0 0.00037076
9610.0 0.00036953
9630.0 0.00036829
9650.0 0.00036707
9670.0 0.00036588
9690.0 0.00036468
9710.0 0.00036348
9730.0 0.00036232
9750.0 0.00036116
9770.0 0.00035996
9790.0 0.00035881
9810.0 0.00035767
9830.0 0.00035652
9850.0 0.00035535
9870.0 0.00035423
9890.0 0.0003531
9910.0 0.00035194
9930.0 0.00035079
9950.0 0.00034837
9970.0 0.00034759
9990.0 0.00034672
10010.0 0.00034585
10030.0 0.00034485
10050.0 0.00034375
10070.0 0.00034264
10090.0 0.00034154
10110.0 0.00034025
10130.0 0.00033866
10150.0 0.00033753
10170.0 0.00033644
10190.0 0.00033519
10210.0 0.00033401
10230.0 0.00033282
10250.0 0.00033149
10270.0 0.00033015
10290.0 0.00032889
10310.0 0.00032751
10330.0 0.00032602
10350.0 0.00032464
10370.0 0.00032324
10390.0 0.00032171
10410.0 0.00032018
10430.0 0.00031875
10450.0 0.00031719
10470.0 0.00031554
10490.0 0.00031397
10510.0 0.00031238
10530.0 0.00031058
10550.0 0.00030883
10570.0 0.00030716
10590.0 0.00030536
10610.0 0.00030348
10630.0 0.00030168
10650.0 0.00029984
10670.0 0.00029781
10690.0 0.00029582
10710.0 0.00029388
10730.0 0.00029179
10750.0 0.00028957
10770.0 0.00028751
10790.0 0.00028538
10810.0 0.00028309
10830.0 0.00028083
10850.0 0.00027863
10870.0 0.0002762
10890.0 0.00027372
10910.0 0.00027133
10930.0 0.00026885
10950.0 0.0002662
10970.0 0.00026358
10990.0 0.00026104
11010.0 0.00027959
11030.0 0.00027675
11050.0 0.00027403
11070.0 0.00027125
11090.0 0.00026828
11110.0 0.00026551
11130.0 0.00026281
11150.0 0.00026
11170.0 0.00025721
11190.0 0.00025458
11210.0 0.0002519
11230.0 0.00024915
11250.0 0.00024655
11270.0 0.00024403
11290.0 0.00024144
11310.0 0.0002389
11330.0 0.00023655
11350.0 0.00023418
11370.0 0.00023176
11390.0 0.00022944
11410.0 0.00022712
11430.0 0.00022461
11450.0 0.00022206
11470.0 0.00021949
11490.0 0.00021673
11510.0 0.00021372
11530.0 0.00021067
11550.0 0.00020749
11570.0 0.00020401
11590.0 0.00020042
11610.0 0.00019681
11630.0 0.00019296
11650.0 0.00018893
11670.0 0.00018502
11690.0 0.00018107
11710.0 0.00017699
11730.0 0.00017295
11750.0 0.00016908
11770.0 0.0001651
11790.0 0.00016111
11810.0 0.00015728
11830.0 0.0001535
11850.0 0.00014958
11870.0 0.00014582
11890.0 0.00014223
11910.0 0.00013859
11930.0 0.00013499
11950.0 0.0001316
11970.0 0.00012828
11990.0 0.00012494
12010.0 0.00012181
12030.0 0.00011887
12050.0 0.00011599
12070.0 0.00011324
12090.0 0.0001108
12110.0 0.00010851
12130.0 0.00010636
12150.0 0.00010447
12170.0 0.00010282
12190.0 0.00010134
12210.0 0.00010011
12230.0 9.9152e-05
12250.0 9.8422e-05
12270.0 9.7934e-05
12290.0 9.7684e-05
12310.0 9.7636e-05
12330.0 9.7812e-05
12350.0 9.8179e-05
12370.0 9.8673e-05
12390.0 9.9312e-05
12410.0 0.00010013
12430.0 0.00010096
12450.0 0.00010182
12470.0 0.00010276
12490.0 0.0001037
12510.0 0.00010456
12530.0 0.00010541
12550.0 0.00010624
12570.0 0.00010694
12590.0 0.00010751
12610.0 0.00010801
12630.0 0.00010836
12650.0 0.00010849
12670.0 0.00010847
12690.0 0.00010827
12710.0 0.00010786
12730.0 0.00010726
12750.0 0.00010645
12770.0 0.00010544
12790.0 0.00010427
12810.0 0.00010293
12830.0 0.00010142
12850.0 9.9833e-05
12870.0 9.817e-05
12890.0 9.6404e-05
12910.0 9.4615e-05
12930.0 9.2854e-05
12950.0 9.1052e-05
12970.0 8.9249e-05
12990.0 8.7544e-05
13010.0 8.588e-05
13030.0 8.4231e-05
13050.0 8.2654e-05
13070.0 8.1169e-05
13090.0 7.9697e-05
13110.0 7.8268e-05
13130.0 7.6921e-05
13150.0 7.562e-05
13170.0 7.4324e-05
13190.0 7.3104e-05
13210.0 7.1952e-05
13230.0 7.082e-05
13250.0 6.9727e-05
13270.0 6.8705e-05
13290.0 6.7716e-05
13310.0 6.6745e-05
13330.0 6.5835e-05
13350.0 6.4976e-05
13370.0 6.414e-05
13390.0 6.3335e-05
13410.0 6.2597e-05
13430.0 6.1885e-05
13450.0 6.1196e-05
13470.0 6.0548e-05
13490.0 5.9936e-05
13510.0 5.9327e-05
13530.0 5.8743e-05
13550.0 5.8184e-05
13570.0 5.7632e-05
13590.0 5.7077e-05
13610.0 5.6536e-05
13630.0 5.6004e-05
13650.0 5.5458e-05
13670.0 5.4913e-05
13690.0 5.4379e-05
13710.0 5.3841e-05
13730.0 5.3288e-05
13750.0 5.276e-05
13770.0 5.2243e-05
13790.0 5.1723e-05
13810.0 5.1218e-05
13830.0 5.074e-05
13850.0 5.0266e-05
13870.0 4.9802e-05
13890.0 4.9365e-05
13910.0 4.8947e-05
13930.0 4.8531e-05
13950.0 4.813e-05
13970.0 4.7755e-05
13990.0 4.7378e-05
14010.0 4.7002e-05
14030.0 4.6636e-05
14050.0 4.627e-05
14070.0 4.5884e-05
14090.0 4.5499e-05
14110.0 4.5116e-05
14130.0 4.4718e-05
14150.0 4.4306e-05
14170.0 4.3907e-05
14190.0 4.351e-05
14210.0 4.3106e-05
14230.0 4.2718e-05
14250.0 4.2355e-05
14270.0 4.2e-05
14290.0 4.1666e-05
14310.0 4.1376e-05
14330.0 4.1116e-05
14350.0 4.0882e-05
14370.0 4.0686e-05
14390.0 4.0528e-05
14410.0 4.0391e-05
14430.0 4.0281e-05
14450.0 4.0196e-05
14470.0 4.0128e-05
14490.0 4.007e-05
14510.0 4.0025e-05
14530.0 3.9989e-05
14550.0 3.9957e-05
14570.0 3.9931e-05
14590.0 3.9917e-05
14610.0 3.9914e-05
14630.0 3.9928e-05
14650.0 3.997e-05
14670.0 4.0045e-05
14690.0 4.0163e-05
14710.0 4.0338e-05
14730.0 4.0569e-05
14750.0 4.0872e-05
14770.0 4.1266e-05
14790.0 4.1742e-05
14810.0 4.2302e-05
14830.0 4.3001e-05
14850.0 4.3803e-05
14870.0 4.4683e-05
14890.0 4.5669e-05
14910.0 4.6757e-05
14930.0 4.7852e-05
14950.0 4.8925e-05
14970.0 4.9989e-05
14990.0 5.0946e-05
15010.0 5.1752e-05
15030.0 5.243e-05
15050.0 5.2981e-05
15070.0 5.339e-05
15090.0 5.3713e-05
15110.0 5.398e-05
15130.0 5.4209e-05
15150.0 5.4419e-05
15170.0 5.4622e-05
15190.0 5.4824e-05
15210.0 5.5028e-05
15230.0 5.5236e-05
15250.0 5.5447e-05
15270.0 5.5662e-05
15290.0 5.5883e-05
15310.0 5.6106e-05
15330.0 5.6334e-05
15350.0 5.6567e-05
15370.0 5.6803e-05
15390.0 5.7043e-05
15410.0 5.7286e-05
15430.0 5.7534e-05
15450.0 5.7786e-05
15470.0 5.804e-05
15490.0 5.8299e-05
15510.0 5.8562e-05
15530.0 5.8828e-05
15550.0 5.9097e-05
15570.0 5.937e-05
15590.0 5.9645e-05
15610.0 5.9924e-05
15630.0 6.0207e-05
15650.0 6.0492e-05
15670.0 6.078e-05
15690.0 6.1072e-05
15710.0 6.1366e-05
15730.0 6.1663e-05
15750.0 6.1962e-05
15770.0 6.2265e-05
15790.0 6.2569e-05
15810.0 6.2876e-05
15830.0 6.3186e-05
15850.0 6.3497e-05
15870.0 6.3811e-05
15890.0 6.4127e-05
15910.0 6.4445e-05
15930.0 6.4765e-05
15950.0 6.5086e-05
15970.0 6.5409e-05
15990.0 6.5734e-05
16010.0 6.606e-05
16030.0 6.6387e-05
16050.0 6.6716e-05
16070.0 6.7046e-05
16090.0 6.7376e-05
16110.0 6.7708e-05
16130.0 6.8041e-05
16150.0 6.8374e-05
16170.0 6.8707e-05
16190.0 6.9042e-05
16210.0 6.9376e-05
16230.0 6.9711e-05
16250.0 7.0046e-05
16270.0 7.0381e-05
16290.0 7.0715e-05
16310.0 7.105e-05
16330.0 7.1384e-05
16350.0 7.1717e-05
16370.0 7.205e-05
16390.0 7.2382e-05
16410.0 7.2713e-05
16430.0 7.3043e-05
16450.0 7.3372e-05
16470.0 7.37e-05
16490.0 7.4026e-05
16510.0 7.435e-05
16530.0 7.4673e-05
16550.0 7.4995e-05
16570.0 7.5314e-05
16590.0 7.5631e-05
16610.0 7.5946e-05
16630.0 7.6258e-05
16650.0 7.6568e-05
16670.0 7.6876e-05
16690.0 7.7181e-05
16710.0 7.7482e-05
16730.0 7.7781e-05
16750.0 7.8077e-05
16770.0 7.837e-05
16790.0 7.8658e-05
16810.0 7.8944e-05
16830.0 7.9226e-05
16850.0 7.9504e-05
16870.0 7.9779e-05
16890.0 8.0049e-05
16910.0 8.0315e-05
16930.0 8.0577e-05
16950.0 8.0835e-05
16970.0 8.1088e-05
16990.0 8.1336e-05
17010.0 8.158e-05
17030.0 8.1819e-05
17050.0 8.2053e-05
17070.0 8.2282e-05
17090.0 8.2506e-05
17110.0 8.2724e-05
17130.0 8.2937e-05
17150.0 8.3145e-05
17170.0 8.3347e-05
17190.0 8.3543e-05
17210.0 8.3734e-05
17230.0 8.3919e-05
17250.0 8.4098e-05
17270.0 8.427e-05
17290.0 8.4437e-05
17310.0 8.4598e-05
17330.0 8.4752e-05
17350.0 8.4899e-05
17370.0 8.5041e-05
17390.0 8.5176e-05
17410.0 8.5304e-05
17430.0 8.5426e-05
17450.0 8.5542e-05
17470.0 8.565e-05
17490.0 8.5751e-05
17510.0 8.5846e-05
17530.0 8.5934e-05
17550.0 8.6014e-05
17570.0 8.6089e-05
17590.0 8.6156e-05
17610.0 8.6215e-05
17630.0 8.6268e-05
17650.0 8.6314e-05
17670.0 8.6352e-05
17690.0 8.6383e-05
17710.0 8.6407e-05
17730.0 8.6425e-05
17750.0 8.6434e-05
17770.0 8.6437e-05
17790.0 8.6432e-05
17810.0 8.642e-05
17830.0 8.6401e-05
17850.0 8.6375e-05
17870.0 8.6341e-05
17890.0 8.63e-05
17910.0 8.6252e-05
17930.0 8.6197e-05
17950.0 8.6135e-05
17970.0 8.6066e-05
17990.0 8.5989e-05
18010.0 8.5906e-05
18030.0 8.5815e-05
18050.0 8.5718e-05
18070.0 8.5613e-05
18090.0 8.5502e-05
18110.0 8.5383e-05
18130.0 8.5259e-05
18150.0 8.5127e-05
18170.0 8.4988e-05
18190.0 8.4843e-05
18210.0 8.4692e-05
18230.0 8.4533e-05
18250.0 8.4368e-05
18270.0 8.4197e-05
18290.0 8.402e-05
18310.0 8.3836e-05
18330.0 8.3646e-05
18350.0 8.3451e-05
18370.0 8.3248e-05
18390.0 8.304e-05
18410.0 8.2827e-05
18430.0 8.2607e-05
18450.0 8.2381e-05
18470.0 8.215e-05
18490.0 8.1914e-05
18510.0 8.1672e-05
18530.0 8.1425e-05
18550.0 8.1172e-05
18570.0 8.0915e-05
18590.0 8.0651e-05
18610.0 8.0384e-05
18630.0 8.0111e-05
18650.0 7.9834e-05
18670.0 7.9552e-05
18690.0 7.9265e-05
18710.0 7.8974e-05
18730.0 7.8678e-05
18750.0 7.8379e-05
18770.0 7.8075e-05
18790.0 7.7767e-05
18810.0 7.7455e-05
18830.0 7.7139e-05
18850.0 7.682e-05
18870.0 7.6496e-05
18890.0 7.617e-05
18910.0 7.584e-05
18930.0 7.5506e-05
18950.0 7.517e-05
18970.0 7.483e-05
18990.0 7.4488e-05
19010.0 7.4141e-05
19030.0 7.3793e-05
19050.0 7.3442e-05
19070.0 7.3088e-05
19090.0 7.2732e-05
19110.0 7.2374e-05
19130.0 7.2013e-05
19150.0 7.165e-05
19170.0 7.1285e-05
19190.0 7.0918e-05
19210.0 7.0549e-05
19230.0 7.0178e-05
19250.0 6.9806e-05
19270.0 6.9432e-05
19290.0 6.9057e-05
19310.0 6.868e-05
19330.0 6.8302e-05
19350.0 6.7923e-05
19370.0 6.7543e-05
19390.0 6.7161e-05
19410.0 6.6779e-05
19430.0 6.6396e-05
19450.0 6.6013e-05
19470.0 6.5628e-05
19490.0 6.5243e-05
19510.0 6.4858e-05
19530.0 6.4472e-05
19550.0 6.4086e-05
19570.0 6.37e-05
19590.0 6.3313e-05
19610.0 6.2927e-05
19630.0 6.254e-05
19650.0 6.2154e-05
19670.0 6.1768e-05
19690.0 6.1382e-05
19710.0 6.0996e-05
19730.0 6.0611e-05
19750.0 6.0227e-05
19770.0 5.9842e-05
19790.0 5.9458e-05
19810.0 5.9075e-05
19830.0 5.8691e-05
19850.0 5.8305e-05
19870.0 5.7915e-05
19890.0 5.7515e-05
19910.0 5.7093e-05
19930.0 5.6639e-05
19950.0 5.6138e-05
19970.0 5.5562e-05
19990.0 5.4896e-05
20010.0 5.4154e-05
20030.0 5.3303e-05
20050.0 5.2351e-05
20070.0 5.1346e-05
20090.0 5.0297e-05
20110.0 4.917e-05
20130.0 4.8055e-05
20150.0 4.697e-05
20170.0 4.5878e-05
20190.0 4.4797e-05
20210.0 4.3777e-05
20230.0 4.2789e-05
20250.0 4.1809e-05
20270.0 4.0885e-05
20290.0 4.0019e-05
20310.0 3.918e-05
20330.0 3.8371e-05
20350.0 3.7644e-05
20370.0 3.6955e-05
20390.0 3.6301e-05
20410.0 3.57e-05
20430.0 3.5154e-05
20450.0 3.4634e-05
20470.0 3.4157e-05
20490.0 3.3726e-05
20510.0 3.333e-05
20530.0 3.2961e-05
20550.0 3.2627e-05
20570.0 3.2321e-05
20590.0 3.2036e-05
20610.0 3.1771e-05
20630.0 3.1523e-05
20650.0 3.1289e-05
20670.0 3.1064e-05
20690.0 3.0846e-05
20710.0 3.0632e-05
20730.0 3.0419e-05
20750.0 3.0204e-05
20770.0 2.9985e-05
20790.0 2.9761e-05
20810.0 2.9527e-05
20830.0 2.9285e-05
20850.0 2.9035e-05
20870.0 2.8771e-05
20890.0 2.8495e-05
20910.0 2.8213e-05
20930.0 2.792e-05
20950.0 2.7614e-05
20970.0 2.7304e-05
20990.0 2.6989e-05
21010.0 2.6661e-05
21030.0 2.6331e-05
21050.0 2.6003e-05
21070.0 2.5671e-05
21090.0 2.5332e-05
21110.0 2.5004e-05
21130.0 2.4679e-05
21150.0 2.4351e-05
21170.0 2.403e-05
21190.0 2.3719e-05
21210.0 2.3409e-05
21230.0 2.3102e-05
21250.0 2.2808e-05
21270.0 2.2522e-05
21290.0 2.224e-05
21310.0 2.1967e-05
21330.0 2.1708e-05
21350.0 2.1454e-05
21370.0 2.1208e-05
21390.0 2.0975e-05
21410.0 2.0752e-05
21430.0 2.0533e-05
21450.0 2.0328e-05
21470.0 2.0134e-05
21490.0 1.9948e-05
21510.0 1.9771e-05
21530.0 1.9605e-05
21550.0 1.9447e-05
21570.0 1.9295e-05
21590.0 1.9152e-05
21610.0 1.9016e-05
21630.0 1.8886e-05
21650.0 1.876e-05
21670.0 1.864e-05
21690.0 1.8524e-05
21710.0 1.8411e-05
21730.0 1.8302e-05
21750.0 1.8195e-05
21770.0 1.809e-05
21790.0 1.7987e-05
21810.0 1.7886e-05
21830.0 1.7786e-05
21850.0 1.7688e-05
21870.0 1.7592e-05
21890.0 1.7496e-05
21910.0 1.7401e-05
21930.0 1.7307e-05
21950.0 1.7213e-05
21970.0 1.712e-05
21990.0 1.7027e-05
22010.0 1.6933e-05
22030.0 1.6838e-05
22050.0 1.6742e-05
22070.0 1.6645e-05
22090.0 1.6546e-05
22110.0 1.6445e-05
22130.0 1.6342e-05
22150.0 1.6237e-05
22170.0 1.613e-05
22190.0 1.6019e-05
22210.0 1.5906e-05
22230.0 1.5792e-05
22250.0 1.5675e-05
22270.0 1.5554e-05
22290.0 1.5431e-05
22310.0 1.5307e-05
22330.0 1.5176e-05
22350.0 1.5043e-05
22370.0 1.4907e-05
22390.0 1.4766e-05
22410.0 1.4618e-05
22430.0 1.4468e-05
22450.0 1.4313e-05
22470.0 1.4149e-05
22490.0 1.3981e-05
22510.0 1.3811e-05
22530.0 1.363e-05
22550.0 1.3442e-05
22570.0 1.3255e-05
22590.0 1.3063e-05
22610.0 1.2864e-05
22630.0 1.2664e-05
22650.0 1.2469e-05
