#lamb flux
1010.0 0.00021879
1030.0 0.00028701
1050.0 0.00037369
1070.0 0.00048186
1090.0 0.00061738
1110.0 0.0007749
1130.0 0.00095398
1150.0 0.0011607
1170.0 0.0013945
1190.0 0.0016415
1210.0 0.0019071
1230.0 0.0021921
1250.0 0.0024821
1270.0 0.0027683
1290.0 0.0030587
1310.0 0.0033352
1330.0 0.0035808
1350.0 0.0037983
1370.0 0.0039854
1390.0 0.0041252
1410.0 0.004214
1430.0 0.004265
1450.0 0.0042701
1470.0 0.0042263
1490.0 0.0041462
1510.0 0.0040393
1530.0 0.0038957
1550.0 0.0037306
1570.0 0.0035571
1590.0 0.0033759
1610.0 0.003188
1630.0 0.0030062
1650.0 0.0028331
1670.0 0.0026664
1690.0 0.0025108
1710.0 0.0023709
1730.0 0.002245
1750.0 0.0021298
1770.0 0.0020308
1790.0 0.0019468
1810.0 0.001875
1830.0 0.0018156
1850.0 0.0017713
1870.0 0.0017377
1890.0 0.0017141
1910.0 0.0017021
1930.0 0.0017011
1950.0 0.0017082
1970.0 0.0017242
1990.0 0.0017505
2010.0 0.0017849
2030.0 0.0018264
2050.0 0.001877
2070.0 0.0019363
2090.0 0.0020012
2110.0 0.0020733
2130.0 0.0021535
2150.0 0.0022399
2170.0 0.0023312
2190.0 0.0024301
2210.0 0.0025352
2230.0 0.0026444
2250.0 0.0027586
2270.0 0.0028795
2290.0 0.0030037
2310.0 0.00313
2330.0 0.0032612
2350.0 0.0033959
2370.0 0.003531
2390.0 0.0036683
2410.0 0.003809
2430.0 0.0039487
2450.0 0.0040877
2470.0 0.0042293
2490.0 0.0043754
2510.0 0.0045252
2530.0 0.0046906
2550.0 0.0048876
2570.0 0.0051291
2590.0 0.0054333
2610.0 0.005856
2630.0 0.006421
2650.0 0.0071273
2670.0 0.0080212
2690.0 0.0091357
2710.0 0.010392
2730.0 0.011741
2750.0 0.013223
2770.0 0.014699
2790.0 0.016047
2810.0 0.017274
2830.0 0.018369
2850.0 0.019195
2870.0 0.019834
2890.0 0.020347
2910.0 0.020739
2930.0 0.021021
2950.0 0.021263
2970.0 0.021473
2990.0 0.021631
3010.0 0.021758
3030.0 0.021882
3050.0 0.021985
3070.0 0.022042
3090.0 0.022097
3110.0 0.022148
3130.0 0.022195
3150.0 0.022035
3170.0 0.022046
3190.0 0.022187
3210.0 0.022552
3230.0 0.023332
3250.0 0.024955
3270.0 0.027216
3290.0 0.029615
3310.0 0.032123
3330.0 0.032812
3350.0 0.033009
3370.0 0.033193
3390.0 0.033338
3410.0 0.033339
3430.0 0.033226
3450.0 0.033087
3470.0 0.033015
3490.0 0.032678
3510.0 0.031399
3530.0 0.028737
3550.0 0.027151
3570.0 0.030288
3590.0 0.035221
3610.0 0.03898
3630.0 0.044422
3650.0 0.04362
3670.0 0.037788
3690.0 0.032312
3710.0 0.030152
3730.0 0.031023
3750.0 0.031714
3770.0 0.032575
3790.0 0.033496
3810.0 0.034621
3830.0 0.031975
3850.0 0.028402
3870.0 0.0266
3890.0 0.028145
3910.0 0.029163
3930.0 0.029292
3950.0 0.030967
3970.0 0.032973
3990.0 0.033333
4010.0 0.033886
4030.0 0.032769
4050.0 0.031881
4070.0 0.031328
4090.0 0.031616
4110.0 0.032066
4130.0 0.03137
4150.0 0.030213
4170.0 0.029847
4190.0 0.029564
4210.0 0.027573
4230.0 0.025467
4250.0 0.023003
4270.0 0.020812
4290.0 0.020119
4310.0 0.019867
4330.0 0.020511
4350.0 0.022708
4370.0 0.023789
4390.0 0.026302
4410.0 0.028332
4430.0 0.029135
4450.0 0.027078
4470.0 0.024837
4490.0 0.024259
4510.0 0.023875
4530.0 0.023908
4550.0 0.023883
4570.0 0.024296
4590.0 0.025242
4610.0 0.025861
4630.0 0.026457
4650.0 0.026738
4670.0 0.026623
4690.0 0.025128
4710.0 0.023715
4730.0 0.022585
4750.0 0.021997
4770.0 0.021289
4790.0 0.021416
4810.0 0.021051
4830.0 0.019785
4850.0 0.021271
4870.0 0.020137
4890.0 0.020634
4910.0 0.020966
4930.0 0.019931
4950.0 0.017124
4970.0 0.016069
4990.0 0.015185
5010.0 0.014175
5030.0 0.014182
5050.0 0.015271
5070.0 0.015633
5090.0 0.016386
5110.0 0.016612
5130.0 0.016504
5150.0 0.01679
5170.0 0.016119
5190.0 0.016001
5210.0 0.016316
5230.0 0.015633
5250.0 0.015984
5270.0 0.01683
5290.0 0.016544
5310.0 0.015627
5330.0 0.015162
5350.0 0.014203
5370.0 0.013932
5390.0 0.013816
5410.0 0.013427
5430.0 0.013702
5450.0 0.013169
5470.0 0.013195
5490.0 0.014584
5510.0 0.01479
5530.0 0.014811
5550.0 0.014725
5570.0 0.014983
5590.0 0.015081
5610.0 0.014908
5630.0 0.014723
5650.0 0.014529
5670.0 0.014211
5690.0 0.013944
5710.0 0.013561
5730.0 0.013804
5750.0 0.013331
5770.0 0.01266
5790.0 0.01225
5810.0 0.011399
5830.0 0.011845
5850.0 0.012257
5870.0 0.012217
5890.0 0.012297
5910.0 0.012801
5930.0 0.012751
5950.0 0.012799
5970.0 0.012804
5990.0 0.012937
6010.0 0.012629
6030.0 0.012451
6050.0 0.012315
6070.0 0.012078
6090.0 0.012228
6110.0 0.012094
6130.0 0.011694
6150.0 0.011416
6170.0 0.011156
6190.0 0.010288
6210.0 0.01013
6230.0 0.010238
6250.0 0.010132
6270.0 0.010075
6290.0 0.010323
6310.0 0.010627
6330.0 0.010604
6350.0 0.010387
6370.0 0.010397
6390.0 0.010002
6410.0 0.0099402
6430.0 0.0096455
6450.0 0.0095981
6470.0 0.0095699
6490.0 0.0095772
6510.0 0.0092495
6530.0 0.0091779
6550.0 0.0090437
6570.0 0.008824
6590.0 0.0089993
6610.0 0.0089937
6630.0 0.0088173
6650.0 0.0085076
6670.0 0.0083564
6690.0 0.0081899
6710.0 0.0079635
6730.0 0.0078554
6750.0 0.0079107
6770.0 0.0081094
6790.0 0.0080886
6810.0 0.0080209
6830.0 0.0076477
6850.0 0.0072395
6870.0 0.00712
6890.0 0.0070725
6910.0 0.0070551
6930.0 0.0069675
6950.0 0.007041
6970.0 0.0068491
6990.0 0.006765
7010.0 0.0067761
7030.0 0.0068621
7050.0 0.0067481
7070.0 0.0063652
7090.0 0.0060879
7110.0 0.0060795
7130.0 0.006165
7150.0 0.0061969
7170.0 0.0061793
7190.0 0.0060531
7210.0 0.0063263
7230.0 0.0065506
7250.0 0.0065587
7270.0 0.006562
7290.0 0.006687
7310.0 0.006528
7330.0 0.0063725
7350.0 0.0061419
7370.0 0.006176
7390.0 0.0063183
7410.0 0.0059605
7430.0 0.0060174
7450.0 0.0059535
7470.0 0.0061517
7490.0 0.0060867
7510.0 0.0057985
7530.0 0.0059234
7550.0 0.005444
7570.0 0.0052793
7590.0 0.0052816
7610.0 0.0054883
7630.0 0.0054965
7650.0 0.0057037
7670.0 0.0052916
7690.0 0.005136
7710.0 0.0053668
7730.0 0.0056943
7750.0 0.0055773
7770.0 0.005831
7790.0 0.0058506
7810.0 0.0058483
7830.0 0.0062129
7850.0 0.0059571
7870.0 0.0063014
7890.0 0.0061066
7910.0 0.0060203
7930.0 0.0057822
7950.0 0.0057157
7970.0 0.0058547
7990.0 0.0056934
8010.0 0.00548
8030.0 0.0054253
8050.0 0.0053162
8070.0 0.0052167
8090.0 0.0048307
8110.0 0.0048508
8130.0 0.0051468
8150.0 0.0053291
8170.0 0.0053625
8190.0 0.0055142
8210.0 0.0054153
8230.0 0.0052915
8250.0 0.0052768
8270.0 0.0051756
8290.0 0.0050699
8310.0 0.0048249
8330.0 0.0048342
8350.0 0.0048925
8370.0 0.0049233
8390.0 0.0049235
8410.0 0.0048546
8430.0 0.0047988
8450.0 0.0047997
8470.0 0.0049585
8490.0 0.0050167
8510.0 0.0048366
8530.0 0.0046566
8550.0 0.0046482
8570.0 0.0045479
8590.0 0.0044502
8610.0 0.0045342
8630.0 0.004518
8650.0 0.0044711
8670.0 0.004439
8690.0 0.0043931
8710.0 0.0041951
8730.0 0.0042147
8750.0 0.0041077
8770.0 0.0041207
8790.0 0.0040544
8810.0 0.0039581
8830.0 0.0039767
8850.0 0.0039625
8870.0 0.0037774
8890.0 0.0036561
8910.0 0.003518
8930.0 0.0033294
8950.0 0.0032629
8970.0 0.0031242
8990.0 0.0030791
9010.0 0.002987
9030.0 0.0029558
9050.0 0.002937
9070.0 0.0029187
9090.0 0.0029003
9110.0 0.0028813
9130.0 0.0028624
9150.0 0.0028439
9170.0 0.0028251
9190.0 0.0028062
9210.0 0.0027872
9230.0 0.0027681
9250.0 0.0027489
9270.0 0.0027296
9290.0 0.0027103
9310.0 0.0026912
9330.0 0.0026724
9350.0 0.0026536
9370.0 0.0026348
9390.0 0.0026159
9410.0 0.0025971
9430.0 0.0025782
9450.0 0.0025595
9470.0 0.0025424
9490.0 0.0025245
9510.0 0.0025049
9530.0 0.0024855
9550.0 0.0024666
9570.0 0.0024479
9590.0 0.0024293
9610.0 0.0024111
9630.0 0.0023932
9650.0 0.0023753
9670.0 0.0023574
9690.0 0.0023397
9710.0 0.0023221
9730.0 0.0023046
9750.0 0.0022872
9770.0 0.0022701
9790.0 0.0022529
9810.0 0.0022359
9830.0 0.002219
9850.0 0.0022007
9870.0 0.0021825
9890.0 0.0021675
9910.0 0.0021521
9930.0 0.0021337
9950.0 0.0021177
9970.0 0.0021032
9990.0 0.0020883
10010.0 0.0020736
10030.0 0.0020586
10050.0 0.0020435
10070.0 0.0020286
10090.0 0.002014
10110.0 0.0019992
10130.0 0.0019847
10150.0 0.0019705
10170.0 0.0019564
10190.0 0.0019423
10210.0 0.0019287
10230.0 0.0019152
10250.0 0.0019017
10270.0 0.0018885
10290.0 0.0018756
10310.0 0.0018627
10330.0 0.0018498
10350.0 0.0018374
10370.0 0.0018251
10390.0 0.0018128
10410.0 0.0018
10430.0 0.0017873
10450.0 0.0017765
10470.0 0.0017654
10490.0 0.0017545
10510.0 0.0017436
10530.0 0.0017326
10550.0 0.0017218
10570.0 0.0017114
10590.0 0.0017009
10610.0 0.0016905
10630.0 0.0016805
10650.0 0.0016707
10670.0 0.0016607
10690.0 0.0016511
10710.0 0.0016418
10730.0 0.0016324
10750.0 0.001623
10770.0 0.0016142
10790.0 0.0016054
10810.0 0.0015966
10830.0 0.001588
10850.0 0.0015798
10870.0 0.0015713
10890.0 0.0015631
10910.0 0.0015552
10930.0 0.0015473
10950.0 0.0015394
10970.0 0.0015317
10990.0 0.0015243
11010.0 0.0017213
11030.0 0.0017118
11050.0 0.0017016
11070.0 0.0016904
11090.0 0.0016781
11110.0 0.0016657
11130.0 0.0016531
11150.0 0.0016399
11170.0 0.0016266
11190.0 0.0016136
11210.0 0.0016004
11230.0 0.0015869
11250.0 0.0015738
11270.0 0.0015611
11290.0 0.0015483
11310.0 0.0015359
11330.0 0.0015244
11350.0 0.0015133
11370.0 0.0015025
11390.0 0.0014926
11410.0 0.0014834
11430.0 0.0014743
11450.0 0.0014658
11470.0 0.001458
11490.0 0.0014504
11510.0 0.0014428
11530.0 0.0014357
11550.0 0.0014288
11570.0 0.0014216
11590.0 0.0014144
11610.0 0.0014075
11630.0 0.0014001
11650.0 0.0013924
11670.0 0.0013849
11690.0 0.0013773
11710.0 0.0013692
11730.0 0.001361
11750.0 0.0013531
11770.0 0.0013447
11790.0 0.0013361
11810.0 0.0013278
11830.0 0.0013196
11850.0 0.0013109
11870.0 0.0013027
11890.0 0.0012949
11910.0 0.0012872
11930.0 0.0012797
11950.0 0.0012729
11970.0 0.0012665
11990.0 0.0012603
12010.0 0.0012548
12030.0 0.00125
12050.0 0.0012456
12070.0 0.0012417
12090.0 0.0012388
12110.0 0.0012363
12130.0 0.0012342
12150.0 0.0012327
12170.0 0.0012318
12190.0 0.001231
12210.0 0.0012306
12230.0 0.0012304
12250.0 0.0012303
12270.0 0.0012301
12290.0 0.0012297
12310.0 0.0012292
12330.0 0.0012283
12350.0 0.0012269
12370.0 0.001225
12390.0 0.0012226
12410.0 0.0012194
12430.0 0.0012157
12450.0 0.0012115
12470.0 0.0012064
12490.0 0.0012007
12510.0 0.0011947
12530.0 0.0011879
12550.0 0.0011803
12570.0 0.0011725
12590.0 0.0011644
12610.0 0.0011554
12630.0 0.0011462
12650.0 0.0011372
12670.0 0.0011277
12690.0 0.0011179
12710.0 0.0011083
12730.0 0.0010989
12750.0 0.0010889
12770.0 0.0010794
12790.0 0.0010703
12810.0 0.0010612
12830.0 0.0010522
12850.0 0.001044
12870.0 0.0010362
12890.0 0.0010285
12910.0 0.0010214
12930.0 0.001015
12950.0 0.001009
12970.0 0.0010034
12990.0 0.0009988
13010.0 0.00099481
13030.0 0.00099135
13050.0 0.00098863
13070.0 0.00098662
13090.0 0.00098509
13110.0 0.00098406
13130.0 0.00098349
13150.0 0.00098323
13170.0 0.00098315
13190.0 0.00098317
13210.0 0.00098318
13230.0 0.00098304
13250.0 0.00098265
13270.0 0.000982
13290.0 0.00098097
13310.0 0.00097945
13330.0 0.0009775
13350.0 0.00097512
13370.0 0.00097213
13390.0 0.00096852
13410.0 0.00096461
13430.0 0.0009601
13450.0 0.00095492
13470.0 0.00094933
13490.0 0.00094343
13510.0 0.00093668
13530.0 0.00092955
13550.0 0.00092231
13570.0 0.00091463
13590.0 0.00090642
13610.0 0.0008982
13630.0 0.00088998
13650.0 0.00088122
13670.0 0.00087234
13690.0 0.00086363
13710.0 0.00085467
13730.0 0.00084519
13750.0 0.00083616
13770.0 0.00082715
13790.0 0.00081783
13810.0 0.00080856
13830.0 0.0007997
13850.0 0.00079062
13870.0 0.00078146
13890.0 0.00077271
13910.0 0.00076417
13930.0 0.00075546
13950.0 0.00074701
13970.0 0.00073916
13990.0 0.0007313
14010.0 0.00072357
14030.0 0.00071633
14050.0 0.00070939
14070.0 0.00070238
14090.0 0.00069583
14110.0 0.00068969
14130.0 0.00068368
14150.0 0.0006778
14170.0 0.00067238
14190.0 0.00066716
14210.0 0.00066196
14230.0 0.000657
14250.0 0.00065229
14270.0 0.00064755
14290.0 0.00064285
14310.0 0.00063845
14330.0 0.00063411
14350.0 0.00062975
14370.0 0.00062556
14390.0 0.00062156
14410.0 0.00061753
14430.0 0.00061357
14450.0 0.00060981
14470.0 0.00060611
14490.0 0.00060235
14510.0 0.00059875
14530.0 0.00059528
14550.0 0.00059174
14570.0 0.00058821
14590.0 0.00058479
14610.0 0.00058132
14630.0 0.00057773
14650.0 0.00057421
14670.0 0.0005707
14690.0 0.00056707
14710.0 0.00056337
14730.0 0.00055979
14750.0 0.00055612
14770.0 0.00055232
14790.0 0.00054854
14810.0 0.00054477
14830.0 0.00054077
14850.0 0.00053674
14870.0 0.00053279
14890.0 0.00052875
14910.0 0.00052462
14930.0 0.00052066
14950.0 0.00051687
14970.0 0.00051312
14990.0 0.00050962
15010.0 0.00050646
15030.0 0.0005035
15050.0 0.00050071
15070.0 0.00049822
15090.0 0.00049587
15110.0 0.00049357
15130.0 0.00049134
15150.0 0.0004892
15170.0 0.00048703
15190.0 0.00048485
15210.0 0.00048271
15230.0 0.00048058
15250.0 0.0004784
15270.0 0.00047623
15290.0 0.00047413
15310.0 0.00047199
15330.0 0.00046983
15350.0 0.00046771
15370.0 0.0004656
15390.0 0.00046343
15410.0 0.00046129
15430.0 0.00045919
15450.0 0.00045706
15470.0 0.0004549
15490.0 0.00045281
15510.0 0.00045071
15530.0 0.00044858
15550.0 0.00044647
15570.0 0.00044439
15590.0 0.00044227
15610.0 0.00044014
15630.0 0.00043806
15650.0 0.00043598
15670.0 0.00043387
15690.0 0.00043179
15710.0 0.00042975
15730.0 0.00042766
15750.0 0.00042557
15770.0 0.00042352
15790.0 0.00042147
15810.0 0.00041937
15830.0 0.00041732
15850.0 0.00041531
15870.0 0.00041325
15890.0 0.0004112
15910.0 0.0004092
15930.0 0.00040718
15950.0 0.00040513
15970.0 0.00040312
15990.0 0.00040113
16010.0 0.00039911
16030.0 0.00039709
16050.0 0.00039513
16070.0 0.00039315
16090.0 0.00039115
16110.0 0.00038919
16130.0 0.00038726
16150.0 0.00038526
16170.0 0.0003833
16190.0 0.00038138
16210.0 0.00037944
16230.0 0.00037748
16250.0 0.00037557
16270.0 0.00037369
16290.0 0.00037176
16310.0 0.00036985
16330.0 0.00036798
16350.0 0.0003661
16370.0 0.00036417
16390.0 0.00036232
16410.0 0.00036048
16430.0 0.00035861
16450.0 0.00035676
16470.0 0.00035496
16490.0 0.00035312
16510.0 0.00035127
16530.0 0.00034948
16550.0 0.00034769
16570.0 0.00034587
16590.0 0.00034407
16610.0 0.00034232
16630.0 0.00034055
16650.0 0.00033878
16670.0 0.00033705
16690.0 0.00033533
16710.0 0.00033356
16730.0 0.00033184
16750.0 0.00033015
16770.0 0.00032844
16790.0 0.00032672
16810.0 0.00032506
16830.0 0.0003234
16850.0 0.00032172
16870.0 0.00032006
16890.0 0.00031845
16910.0 0.00031679
16930.0 0.00031514
16950.0 0.00031355
16970.0 0.00031195
16990.0 0.00031033
17010.0 0.00030875
17030.0 0.00030721
17050.0 0.00030563
17070.0 0.00030406
17090.0 0.00030253
17110.0 0.000301
17130.0 0.00029944
17150.0 0.00029793
17170.0 0.00029645
17190.0 0.00029494
17210.0 0.00029345
17230.0 0.000292
17250.0 0.00029054
17270.0 0.00028905
17290.0 0.00028761
17310.0 0.0002862
17330.0 0.00028476
17350.0 0.00028332
17370.0 0.00028195
17390.0 0.00028056
17410.0 0.00027915
17430.0 0.00027779
17450.0 0.00027645
17470.0 0.00027506
17490.0 0.00027371
17510.0 0.00027239
17530.0 0.00027107
17550.0 0.00026973
17570.0 0.00026844
17590.0 0.00026717
17610.0 0.00026586
17630.0 0.00026458
17650.0 0.00026333
17670.0 0.00026208
17690.0 0.00026079
17710.0 0.00025957
17730.0 0.00025836
17750.0 0.00025712
17770.0 0.00025591
17790.0 0.00025474
17810.0 0.00025353
17830.0 0.00025233
17850.0 0.00025117
17870.0 0.00025002
17890.0 0.00024884
17910.0 0.00024768
17930.0 0.00024657
17950.0 0.00024544
17970.0 0.0002443
17990.0 0.00024321
18010.0 0.00024212
18030.0 0.00024099
18050.0 0.0002399
18070.0 0.00023885
18090.0 0.00023777
18110.0 0.00023668
18130.0 0.00023565
18150.0 0.00023462
18170.0 0.00023356
18190.0 0.00023254
18210.0 0.00023154
18230.0 0.0002305
18250.0 0.00022947
18270.0 0.00022849
18290.0 0.00022751
18310.0 0.00022651
18330.0 0.00022553
18350.0 0.00022459
18370.0 0.00022361
18390.0 0.00022264
18410.0 0.00022171
18430.0 0.00022077
18450.0 0.00021981
18470.0 0.00021888
18490.0 0.00021798
18510.0 0.00021706
18530.0 0.00021614
18550.0 0.00021526
18570.0 0.00021437
18590.0 0.00021345
18610.0 0.00021257
18630.0 0.00021171
18650.0 0.00021082
18670.0 0.00020993
18690.0 0.0002091
18710.0 0.00020825
18730.0 0.00020738
18750.0 0.00020655
18770.0 0.00020573
18790.0 0.00020486
18810.0 0.00020402
18830.0 0.00020322
18850.0 0.0002024
18870.0 0.00020157
18890.0 0.00020077
18910.0 0.00019999
18930.0 0.00019917
18950.0 0.00019837
18970.0 0.0001976
18990.0 0.0001968
19010.0 0.00019598
19030.0 0.00019522
19050.0 0.00019446
19070.0 0.00019367
19090.0 0.00019291
19110.0 0.00019217
19130.0 0.0001914
19150.0 0.00019062
19170.0 0.00018988
19190.0 0.00018914
19210.0 0.00018837
19230.0 0.00018762
19250.0 0.0001869
19270.0 0.00018616
19290.0 0.00018541
19310.0 0.0001847
19330.0 0.00018398
19350.0 0.00018321
19370.0 0.00018249
19390.0 0.00018179
19410.0 0.00018106
19430.0 0.00018032
19450.0 0.00017962
19470.0 0.00017892
19490.0 0.00017819
19510.0 0.00017748
19530.0 0.00017679
19550.0 0.00017606
19570.0 0.00017533
19590.0 0.00017465
19610.0 0.00017395
19630.0 0.00017322
19650.0 0.00017253
19670.0 0.00017185
19690.0 0.00017113
19710.0 0.00017042
19730.0 0.00016974
19750.0 0.00016904
19770.0 0.00016831
19790.0 0.00016762
19810.0 0.00016694
19830.0 0.00016623
19850.0 0.00016553
19870.0 0.00016487
19890.0 0.00016418
19910.0 0.00016348
19930.0 0.00016286
19950.0 0.00016227
19970.0 0.00016172
19990.0 0.00016126
20010.0 0.00016091
20030.0 0.00016063
20050.0 0.00016045
20070.0 0.00016036
20090.0 0.00016034
20110.0 0.00016037
20130.0 0.00016045
20150.0 0.00016056
20170.0 0.00016069
20190.0 0.00016084
20210.0 0.000161
20230.0 0.00016116
20250.0 0.00016133
20270.0 0.00016149
20290.0 0.00016165
20310.0 0.0001618
20330.0 0.00016194
20350.0 0.00016208
20370.0 0.0001622
20390.0 0.0001623
20410.0 0.00016239
20430.0 0.00016248
20450.0 0.00016254
20470.0 0.00016259
20490.0 0.00016265
20510.0 0.00016269
20530.0 0.00016273
20550.0 0.00016278
20570.0 0.00016283
20590.0 0.00016289
20610.0 0.00016295
20630.0 0.00016302
20650.0 0.0001631
20670.0 0.00016317
20690.0 0.00016325
20710.0 0.00016333
20730.0 0.00016341
20750.0 0.00016347
20770.0 0.00016352
20790.0 0.00016356
20810.0 0.00016356
20830.0 0.00016354
20850.0 0.00016349
20870.0 0.0001634
20890.0 0.00016327
20910.0 0.00016312
20930.0 0.00016293
20950.0 0.00016269
20970.0 0.00016244
20990.0 0.00016218
21010.0 0.00016186
21030.0 0.00016153
21050.0 0.00016121
21070.0 0.00016086
21090.0 0.00016048
21110.0 0.00016013
21130.0 0.00015979
21150.0 0.00015942
21170.0 0.00015905
21190.0 0.0001587
21210.0 0.00015832
21230.0 0.00015793
21250.0 0.00015755
21270.0 0.00015716
21290.0 0.00015673
21310.0 0.00015628
21330.0 0.00015585
21350.0 0.00015536
21370.0 0.00015484
21390.0 0.00015432
21410.0 0.00015377
21430.0 0.00015315
21450.0 0.00015252
21470.0 0.00015189
21490.0 0.00015121
21510.0 0.00015049
21530.0 0.00014978
21550.0 0.00014904
21570.0 0.00014825
21590.0 0.00014745
21610.0 0.00014666
21630.0 0.00014583
21650.0 0.00014495
21670.0 0.00014413
21690.0 0.00014327
21710.0 0.00014238
21730.0 0.00014149
21750.0 0.00014063
21770.0 0.0001397
21790.0 0.00013876
21810.0 0.00013784
21830.0 0.0001369
21850.0 0.00013592
21870.0 0.00013495
21890.0 0.000134
21910.0 0.000133
21930.0 0.000132
21950.0 0.00013102
21970.0 0.00013002
21990.0 0.00012898
22010.0 0.00012798
22030.0 0.00012701
22050.0 0.00012602
22070.0 0.00012503
22090.0 0.00012411
22110.0 0.00012318
22130.0 0.00012226
22150.0 0.00012138
22170.0 0.00012054
22190.0 0.00011969
22210.0 0.00011887
22230.0 0.00011811
22250.0 0.00011735
22270.0 0.0001166
22290.0 0.00011589
22310.0 0.00011519
22330.0 0.00011448
22350.0 0.00011379
22370.0 0.00011312
22390.0 0.00011243
22410.0 0.00011173
22430.0 0.00011105
22450.0 0.00011036
22470.0 0.00010965
22490.0 0.00010893
22510.0 0.00010822
22530.0 0.00010748
22550.0 0.00010672
22570.0 0.00010597
22590.0 0.00010521
22610.0 0.00010443
22630.0 0.00010364
22650.0 0.00010286
22670.0 0.00010207
22690.0 0.00010127
22710.0 0.00010047
22730.0 9.968e-05
22750.0 9.8869e-05
22770.0 9.807e-05
22790.0 9.7281e-05
22810.0 9.6485e-05
22830.0 9.569e-05
22850.0 9.4906e-05
22870.0 9.412e-05
22890.0 9.3329e-05
22910.0 9.2542e-05
22930.0 9.1756e-05
22950.0 9.0963e-05
22970.0 9.0163e-05
22990.0 8.9363e-05
23010.0 8.8553e-05
23030.0 8.7731e-05
23050.0 8.69e-05
23070.0 8.6059e-05
23090.0 8.5203e-05
23110.0 8.4336e-05
23130.0 8.3459e-05
23150.0 8.2571e-05
23170.0 8.1673e-05
23190.0 8.0766e-05
23210.0 7.985e-05
23230.0 7.8927e-05
23250.0 7.7997e-05
23270.0 7.7056e-05
23290.0 7.6107e-05
23310.0 7.5154e-05
23330.0 7.4183e-05
23350.0 7.3193e-05
23370.0 7.2191e-05
23390.0 7.1167e-05
23410.0 7.0107e-05
23430.0 6.9022e-05
23450.0 6.7907e-05
