#lamb flux
1010.0 9.5724e-06
1030.0 1.2218e-05
1050.0 1.5394e-05
1070.0 1.9142e-05
1090.0 2.3606e-05
1110.0 2.8489e-05
1130.0 3.3709e-05
1150.0 3.9084e-05
1170.0 4.4835e-05
1190.0 5.0557e-05
1210.0 5.6683e-05
1230.0 6.3142e-05
1250.0 6.9605e-05
1270.0 7.5942e-05
1290.0 8.2503e-05
1310.0 8.8903e-05
1330.0 9.4818e-05
1350.0 0.00010044
1370.0 0.00010581
1390.0 0.00011055
1410.0 0.00011459
1430.0 0.00011833
1450.0 0.00012153
1470.0 0.00012406
1490.0 0.00012619
1510.0 0.00012855
1530.0 0.00013048
1550.0 0.00013183
1570.0 0.00013155
1590.0 0.00013114
1610.0 0.00013052
1630.0 0.00013008
1650.0 0.00012985
1670.0 0.00012965
1690.0 0.00012961
1710.0 0.00012993
1730.0 0.00013049
1750.0 0.00013109
1770.0 0.00013203
1790.0 0.00013328
1810.0 0.00013465
1830.0 0.00013619
1850.0 0.0001382
1870.0 0.00014039
1890.0 0.00014265
1910.0 0.00014513
1930.0 0.00014784
1950.0 0.00015045
1970.0 0.00015317
1990.0 0.00015621
2010.0 0.00015939
2030.0 0.00016266
2050.0 0.00016619
2070.0 0.00016982
2090.0 0.00017335
2110.0 0.00017699
2130.0 0.00018083
2150.0 0.00018471
2170.0 0.00018855
2190.0 0.00019259
2210.0 0.00019679
2230.0 0.000201
2250.0 0.00020528
2270.0 0.00020976
2290.0 0.0002142
2310.0 0.00021855
2330.0 0.00022303
2350.0 0.00022756
2370.0 0.00023195
2390.0 0.00023637
2410.0 0.0002409
2430.0 0.00024534
2450.0 0.00024974
2470.0 0.00025442
2490.0 0.00025959
2510.0 0.0002653
2530.0 0.00027238
2550.0 0.00028187
2570.0 0.00029443
2590.0 0.00031095
2610.0 0.00033459
2630.0 0.00036605
2650.0 0.00040465
2670.0 0.00045247
2690.0 0.00051058
2710.0 0.0005742
2730.0 0.00064078
2750.0 0.00071242
2770.0 0.00078248
2790.0 0.00084588
2810.0 0.00090347
2830.0 0.00095516
2850.0 0.00099517
2870.0 0.0010275
2890.0 0.0010549
2910.0 0.0010778
2930.0 0.0010967
2950.0 0.0011149
2970.0 0.0011325
2990.0 0.0011489
3010.0 0.0011649
3030.0 0.0011816
3050.0 0.0011981
3070.0 0.0012134
3090.0 0.0012292
3110.0 0.0012457
3130.0 0.0012634
3150.0 0.00128
3170.0 0.0013086
3190.0 0.0013515
3210.0 0.0014143
3230.0 0.0015066
3250.0 0.0016383
3270.0 0.001773
3290.0 0.0019711
3310.0 0.0023456
3330.0 0.0024392
3350.0 0.0024626
3370.0 0.0024831
3390.0 0.0025035
3410.0 0.002522
3430.0 0.002539
3450.0 0.0025556
3470.0 0.0025725
3490.0 0.0025849
3510.0 0.0025794
3530.0 0.0024892
3550.0 0.00238
3570.0 0.0024331
3590.0 0.0026192
3610.0 0.0028514
3630.0 0.0030025
3650.0 0.002892
3670.0 0.0026149
3690.0 0.0024208
3710.0 0.00241
3730.0 0.0024908
3750.0 0.0025438
3770.0 0.0026404
3790.0 0.0027515
3810.0 0.0027623
3830.0 0.0025939
3850.0 0.0024266
3870.0 0.0023606
3890.0 0.0023937
3910.0 0.0023985
3930.0 0.0024143
3950.0 0.0025382
3970.0 0.0026823
3990.0 0.002756
4010.0 0.002733
4030.0 0.0026462
4050.0 0.0026062
4070.0 0.0025821
4090.0 0.0025839
4110.0 0.0025692
4130.0 0.0024877
4150.0 0.0023928
4170.0 0.0023598
4190.0 0.0022745
4210.0 0.0021144
4230.0 0.0019431
4250.0 0.0017669
4270.0 0.0016328
4290.0 0.0015526
4310.0 0.001523
4330.0 0.0015588
4350.0 0.0016261
4370.0 0.0016801
4390.0 0.001794
4410.0 0.0018844
4430.0 0.0018685
4450.0 0.0017221
4470.0 0.0015845
4490.0 0.0015233
4510.0 0.0014846
4530.0 0.0014713
4550.0 0.0014582
4570.0 0.0014637
4590.0 0.0014948
4610.0 0.0015372
4630.0 0.0015633
4650.0 0.0015717
4670.0 0.0015343
4690.0 0.0014352
4710.0 0.0013377
4730.0 0.0012665
4750.0 0.0012199
4770.0 0.001201
4790.0 0.0011865
4810.0 0.0011481
4830.0 0.0011104
4850.0 0.0011478
4870.0 0.001111
4890.0 0.0010968
4910.0 0.0010697
4930.0 0.00099544
4950.0 0.00087691
4970.0 0.00080794
4990.0 0.00074937
5010.0 0.00071297
5030.0 0.00071652
5050.0 0.00073941
5070.0 0.00075089
5090.0 0.00078109
5110.0 0.00077946
5130.0 0.00076992
5150.0 0.00077281
5170.0 0.00075549
5190.0 0.00075542
5210.0 0.00075676
5230.0 0.00073133
5250.0 0.000734
5270.0 0.00074689
5290.0 0.00073765
5310.0 0.00071456
5330.0 0.00069434
5350.0 0.00067008
5370.0 0.00065831
5390.0 0.00064843
5410.0 0.00063495
5430.0 0.00063824
5450.0 0.00063626
5470.0 0.00064571
5490.0 0.00068267
5510.0 0.00070211
5530.0 0.00071193
5550.0 0.00072126
5570.0 0.00073104
5590.0 0.00072725
5610.0 0.00072713
5630.0 0.00073489
5650.0 0.00073348
5670.0 0.00072458
5690.0 0.00071396
5710.0 0.00071526
5730.0 0.00073525
5750.0 0.00071519
5770.0 0.00068782
5790.0 0.00065146
5810.0 0.00058767
5830.0 0.00063851
5850.0 0.00070716
5870.0 0.00073098
5890.0 0.00074911
5910.0 0.00077682
5930.0 0.00078922
5950.0 0.00079574
5970.0 0.00080395
5990.0 0.00081327
6010.0 0.00080481
6030.0 0.00079668
6050.0 0.00080119
6070.0 0.00081012
6090.0 0.00081916
6110.0 0.00081183
6130.0 0.00079925
6150.0 0.00078506
6170.0 0.00077043
6190.0 0.00074325
6210.0 0.00073326
6230.0 0.00073993
6250.0 0.00073821
6270.0 0.00073637
6290.0 0.00074739
6310.0 0.00075991
6330.0 0.00075661
6350.0 0.00074308
6370.0 0.00074162
6390.0 0.00073261
6410.0 0.00072385
6430.0 0.00071092
6450.0 0.00070484
6470.0 0.00069871
6490.0 0.0006957
6510.0 0.00068523
6530.0 0.00067422
6550.0 0.00066364
6570.0 0.00065455
6590.0 0.00065908
6610.0 0.00065754
6630.0 0.00063804
6650.0 0.00061887
6670.0 0.00061132
6690.0 0.00060062
6710.0 0.00058431
6730.0 0.00057671
6750.0 0.00057906
6770.0 0.00060691
6790.0 0.00066026
6810.0 0.0006277
6830.0 0.00055569
6850.0 0.00052704
6870.0 0.00051439
6890.0 0.00050896
6910.0 0.00050436
6930.0 0.00049864
6950.0 0.00049293
6970.0 0.00047408
6990.0 0.00046345
7010.0 0.00046329
7030.0 0.00046028
7050.0 0.00044681
7070.0 0.00043059
7090.0 0.00042191
7110.0 0.000423
7130.0 0.00041856
7150.0 0.00041348
7170.0 0.00040792
7190.0 0.00040318
7210.0 0.0004039
7230.0 0.00040416
7250.0 0.00040113
7270.0 0.00039751
7290.0 0.00039748
7310.0 0.00039349
7330.0 0.00038189
7350.0 0.00036571
7370.0 0.00035647
7390.0 0.00035218
7410.0 0.00034106
7430.0 0.00033917
7450.0 0.00033413
7470.0 0.00033544
7490.0 0.00032792
7510.0 0.00031545
7530.0 0.00031493
7550.0 0.00030884
7570.0 0.0003004
7590.0 0.00028472
7610.0 0.00028188
7630.0 0.00028898
7650.0 0.00029212
7670.0 0.00028237
7690.0 0.00028471
7710.0 0.0002912
7730.0 0.00029396
7750.0 0.00029907
7770.0 0.00029325
7790.0 0.00028472
7810.0 0.00029258
7830.0 0.00030256
7850.0 0.00030004
7870.0 0.0003061
7890.0 0.00030132
7910.0 0.00029542
7930.0 0.00029009
7950.0 0.00029574
7970.0 0.00029498
7990.0 0.00027536
8010.0 0.00041179
8030.0 0.00040289
8050.0 0.00039637
8070.0 0.00038424
8090.0 0.00034585
8110.0 0.0003416
8130.0 0.00037987
8150.0 0.00040147
8170.0 0.0004123
8190.0 0.00042922
8210.0 0.0004142
8230.0 0.00041491
8250.0 0.00041326
8270.0 0.00041086
8290.0 0.00040452
8310.0 0.00038486
8330.0 0.0003773
8350.0 0.00038841
8370.0 0.00039291
8390.0 0.00038412
8410.0 0.00037958
8430.0 0.00036718
8450.0 0.00036047
8470.0 0.00038492
8490.0 0.0003873
8510.0 0.00036443
8530.0 0.00035925
8550.0 0.00035492
8570.0 0.00033344
8590.0 0.00033542
8610.0 0.00033896
8630.0 0.00034902
8650.0 0.00034962
8670.0 0.00035007
8690.0 0.00034337
8710.0 0.00033275
8730.0 0.00032314
8750.0 0.00031707
8770.0 0.00031643
8790.0 0.00032571
8810.0 0.00030946
8830.0 0.00030659
8850.0 0.00031996
8870.0 0.00030342
8890.0 0.00028293
8910.0 0.00027789
8930.0 0.0002768
8950.0 0.00025933
8970.0 0.00024871
8990.0 0.00024325
9010.0 0.00022985
9030.0 0.0002265
9050.0 0.00022535
9070.0 0.0002243
9090.0 0.00022324
9110.0 0.00022217
9130.0 0.00022108
9150.0 0.00022001
9170.0 0.00021892
9190.0 0.00021782
9210.0 0.00021672
9230.0 0.0002156
9250.0 0.00021448
9270.0 0.00021335
9290.0 0.00021222
9310.0 0.00021118
9330.0 0.00021027
9350.0 0.00020936
9370.0 0.00020844
9390.0 0.00020751
9410.0 0.00020658
9430.0 0.00020565
9450.0 0.00020471
9470.0 0.00020387
9490.0 0.00020297
9510.0 0.00020196
9530.0 0.00020096
9550.0 0.00019998
9570.0 0.00019901
9590.0 0.00019804
9610.0 0.0001972
9630.0 0.00019639
9650.0 0.00019557
9670.0 0.00019473
9690.0 0.0001939
9710.0 0.00019308
9730.0 0.00019224
9750.0 0.0001914
9770.0 0.00019058
9790.0 0.00018974
9810.0 0.0001889
9830.0 0.00018806
9850.0 0.00018713
9870.0 0.00018612
9890.0 0.0001854
9910.0 0.00018464
9930.0 0.00018373
9950.0 0.00018291
9970.0 0.00018214
9990.0 0.00018134
10010.0 0.00018055
10030.0 0.00017974
10050.0 0.00017892
10070.0 0.0001781
10090.0 0.00017729
10110.0 0.00017648
10130.0 0.00017567
10150.0 0.00017487
10170.0 0.00017407
10190.0 0.00017327
10210.0 0.00017248
10230.0 0.0001717
10250.0 0.00017092
10270.0 0.00017014
10290.0 0.00016937
10310.0 0.0001686
10330.0 0.00016783
10350.0 0.00016708
10370.0 0.00016633
10390.0 0.00016557
10410.0 0.00016471
10430.0 0.00016381
10450.0 0.00016322
10470.0 0.00016255
10490.0 0.00016188
10510.0 0.00016121
10530.0 0.0001605
10550.0 0.0001598
10570.0 0.00015912
10590.0 0.00015844
10610.0 0.00015775
10630.0 0.00015708
10650.0 0.00015642
10670.0 0.00015575
10690.0 0.00015509
10710.0 0.00015445
10730.0 0.0001538
10750.0 0.00015315
10770.0 0.00015253
10790.0 0.00015191
10810.0 0.00015129
10830.0 0.00015068
10850.0 0.00015008
10870.0 0.00014947
10890.0 0.00014886
10910.0 0.00014826
10930.0 0.00014766
10950.0 0.00014702
10970.0 0.00014637
10990.0 0.0001457
11010.0 0.00014121
11030.0 0.00014047
11050.0 0.00013972
11070.0 0.00013893
11090.0 0.00013806
11110.0 0.0001372
11130.0 0.00013632
11150.0 0.0001354
11170.0 0.00013444
11190.0 0.00013352
11210.0 0.00013255
11230.0 0.00013156
11250.0 0.00013059
11270.0 0.00012964
11290.0 0.00012867
11310.0 0.00012771
11330.0 0.00012684
11350.0 0.00012598
11370.0 0.00012514
11390.0 0.00012436
11410.0 0.00012363
11430.0 0.0001229
11450.0 0.00012221
11470.0 0.00012157
11490.0 0.00012093
11510.0 0.00012028
11530.0 0.00011966
11550.0 0.00011905
11570.0 0.0001184
11590.0 0.00011775
11610.0 0.00011711
11630.0 0.00011642
11650.0 0.0001157
11670.0 0.00011499
11690.0 0.00011426
11710.0 0.00011349
11730.0 0.00011271
11750.0 0.00011195
11770.0 0.00011115
11790.0 0.00011033
11810.0 0.00010954
11830.0 0.00010875
11850.0 0.00010793
11870.0 0.00010715
11890.0 0.0001064
11910.0 0.00010566
11930.0 0.00010493
11950.0 0.00010426
11970.0 0.00010362
11990.0 0.00010298
12010.0 0.0001024
12030.0 0.00010187
12050.0 0.00010137
12070.0 0.0001009
12090.0 0.00010048
12110.0 0.0001001
12130.0 9.9746e-05
12150.0 9.9425e-05
12170.0 9.9137e-05
12190.0 9.8853e-05
12210.0 9.8586e-05
12230.0 9.8332e-05
12250.0 9.8073e-05
12270.0 9.7798e-05
12290.0 9.751e-05
12310.0 9.7207e-05
12330.0 9.686e-05
12350.0 9.6476e-05
12370.0 9.6064e-05
12390.0 9.5604e-05
12410.0 9.5072e-05
12430.0 9.452e-05
12450.0 9.393e-05
12470.0 9.3277e-05
12490.0 9.2583e-05
12510.0 9.1882e-05
12530.0 9.1129e-05
12550.0 9.0329e-05
12570.0 8.9528e-05
12590.0 8.8718e-05
12610.0 8.7861e-05
12630.0 8.6994e-05
12650.0 8.6169e-05
12670.0 8.5323e-05
12690.0 8.4467e-05
12710.0 8.365e-05
12730.0 8.2858e-05
12750.0 8.2044e-05
12770.0 8.1275e-05
12790.0 8.0555e-05
12810.0 7.9852e-05
12830.0 7.9166e-05
12850.0 7.8549e-05
12870.0 7.7972e-05
12890.0 7.7416e-05
12910.0 7.6911e-05
12930.0 7.6464e-05
12950.0 7.6048e-05
12970.0 7.5674e-05
12990.0 7.5365e-05
13010.0 7.5103e-05
13030.0 7.4882e-05
13050.0 7.471e-05
13070.0 7.4584e-05
13090.0 7.449e-05
13110.0 7.4427e-05
13130.0 7.4388e-05
13150.0 7.4362e-05
13170.0 7.4341e-05
13190.0 7.4316e-05
13210.0 7.4277e-05
13230.0 7.4216e-05
13250.0 7.4125e-05
13270.0 7.4003e-05
13290.0 7.3842e-05
13310.0 7.3632e-05
13330.0 7.3383e-05
13350.0 7.3098e-05
13370.0 7.2759e-05
13390.0 7.237e-05
13410.0 7.1965e-05
13430.0 7.1516e-05
13450.0 7.1018e-05
13470.0 7.0498e-05
13490.0 6.9964e-05
13510.0 6.9367e-05
13530.0 6.8752e-05
13550.0 6.8139e-05
13570.0 6.7499e-05
13590.0 6.6824e-05
13610.0 6.6156e-05
13630.0 6.5497e-05
13650.0 6.48e-05
13670.0 6.4101e-05
13690.0 6.3424e-05
13710.0 6.2735e-05
13730.0 6.2013e-05
13750.0 6.1337e-05
13770.0 6.0673e-05
13790.0 5.9996e-05
13810.0 5.9335e-05
13830.0 5.8716e-05
13850.0 5.8092e-05
13870.0 5.7472e-05
13890.0 5.6893e-05
13910.0 5.6338e-05
13930.0 5.5779e-05
13950.0 5.5244e-05
13970.0 5.4757e-05
13990.0 5.4273e-05
14010.0 5.3801e-05
14030.0 5.3365e-05
14050.0 5.2952e-05
14070.0 5.2535e-05
14090.0 5.215e-05
14110.0 5.1795e-05
14130.0 5.1449e-05
14150.0 5.1114e-05
14170.0 5.0811e-05
14190.0 5.0524e-05
14210.0 5.024e-05
14230.0 4.9973e-05
14250.0 4.9725e-05
14270.0 4.9476e-05
14290.0 4.923e-05
14310.0 4.9004e-05
14330.0 4.8782e-05
14350.0 4.8558e-05
14370.0 4.8344e-05
14390.0 4.8141e-05
14410.0 4.7933e-05
14430.0 4.7728e-05
14450.0 4.7534e-05
14470.0 4.7343e-05
14490.0 4.7143e-05
14510.0 4.6953e-05
14530.0 4.6771e-05
14550.0 4.6582e-05
14570.0 4.6391e-05
14590.0 4.6209e-05
14610.0 4.6021e-05
14630.0 4.5824e-05
14650.0 4.5631e-05
14670.0 4.544e-05
14690.0 4.5239e-05
14710.0 4.5033e-05
14730.0 4.4836e-05
14750.0 4.4631e-05
14770.0 4.4416e-05
14790.0 4.4203e-05
14810.0 4.3992e-05
14830.0 4.3761e-05
14850.0 4.3529e-05
14870.0 4.3302e-05
14890.0 4.307e-05
14910.0 4.283e-05
14930.0 4.2604e-05
14950.0 4.2391e-05
14970.0 4.2181e-05
14990.0 4.1991e-05
15010.0 4.1827e-05
15030.0 4.1679e-05
15050.0 4.1544e-05
15070.0 4.1433e-05
15090.0 4.1332e-05
15110.0 4.1236e-05
15130.0 4.1145e-05
15150.0 4.106e-05
15170.0 4.0973e-05
15190.0 4.0885e-05
15210.0 4.08e-05
15230.0 4.0715e-05
15250.0 4.0626e-05
15270.0 4.0538e-05
15290.0 4.0454e-05
15310.0 4.0367e-05
15330.0 4.0278e-05
15350.0 4.0193e-05
15370.0 4.0107e-05
15390.0 4.0016e-05
15410.0 3.9927e-05
15430.0 3.9841e-05
15450.0 3.9752e-05
15470.0 3.966e-05
15490.0 3.9573e-05
15510.0 3.9485e-05
15530.0 3.9394e-05
15550.0 3.9304e-05
15570.0 3.9217e-05
15590.0 3.9125e-05
15610.0 3.9031e-05
15630.0 3.8942e-05
15650.0 3.8852e-05
15670.0 3.8759e-05
15690.0 3.8667e-05
15710.0 3.8578e-05
15730.0 3.8485e-05
15750.0 3.839e-05
15770.0 3.83e-05
15790.0 3.8207e-05
15810.0 3.811e-05
15830.0 3.8017e-05
15850.0 3.7926e-05
15870.0 3.7831e-05
15890.0 3.7735e-05
15910.0 3.7643e-05
15930.0 3.7549e-05
15950.0 3.745e-05
15970.0 3.7355e-05
15990.0 3.7261e-05
16010.0 3.7164e-05
16030.0 3.7065e-05
16050.0 3.6972e-05
16070.0 3.6875e-05
16090.0 3.6777e-05
16110.0 3.668e-05
16130.0 3.6585e-05
16150.0 3.6484e-05
16170.0 3.6385e-05
16190.0 3.6289e-05
16210.0 3.619e-05
16230.0 3.6089e-05
16250.0 3.5991e-05
16270.0 3.5894e-05
16290.0 3.5793e-05
16310.0 3.5693e-05
16330.0 3.5595e-05
16350.0 3.5495e-05
16370.0 3.539e-05
16390.0 3.5291e-05
16410.0 3.5192e-05
16430.0 3.509e-05
16450.0 3.4988e-05
16470.0 3.489e-05
16490.0 3.4787e-05
16510.0 3.4683e-05
16530.0 3.4582e-05
16550.0 3.4481e-05
16570.0 3.4376e-05
16590.0 3.4272e-05
16610.0 3.4173e-05
16630.0 3.407e-05
16650.0 3.3965e-05
16670.0 3.3864e-05
16690.0 3.3762e-05
16710.0 3.3655e-05
16730.0 3.3551e-05
16750.0 3.3449e-05
16770.0 3.3345e-05
16790.0 3.3238e-05
16810.0 3.3136e-05
16830.0 3.3033e-05
16850.0 3.2927e-05
16870.0 3.2822e-05
16890.0 3.272e-05
16910.0 3.2613e-05
16930.0 3.2505e-05
16950.0 3.2402e-05
16970.0 3.2298e-05
16990.0 3.2191e-05
17010.0 3.2086e-05
17030.0 3.1983e-05
17050.0 3.1876e-05
17070.0 3.1769e-05
17090.0 3.1665e-05
17110.0 3.156e-05
17130.0 3.145e-05
17150.0 3.1345e-05
17170.0 3.1241e-05
17190.0 3.1134e-05
17210.0 3.1026e-05
17230.0 3.0923e-05
17250.0 3.0817e-05
17270.0 3.0708e-05
17290.0 3.0602e-05
17310.0 3.0497e-05
17330.0 3.0389e-05
17350.0 3.028e-05
17370.0 3.0177e-05
17390.0 3.0071e-05
17410.0 2.9962e-05
17430.0 2.9857e-05
17450.0 2.9753e-05
17470.0 2.9642e-05
17490.0 2.9534e-05
17510.0 2.943e-05
17530.0 2.9323e-05
17550.0 2.9214e-05
17570.0 2.9109e-05
17590.0 2.9004e-05
17610.0 2.8895e-05
17630.0 2.8788e-05
17650.0 2.8684e-05
17670.0 2.8577e-05
17690.0 2.8466e-05
17710.0 2.8361e-05
17730.0 2.8256e-05
17750.0 2.8147e-05
17770.0 2.804e-05
17790.0 2.7937e-05
17810.0 2.7829e-05
17830.0 2.772e-05
17850.0 2.7615e-05
17870.0 2.751e-05
17890.0 2.74e-05
17910.0 2.7293e-05
17930.0 2.7189e-05
17950.0 2.7082e-05
17970.0 2.6975e-05
17990.0 2.687e-05
18010.0 2.6765e-05
18030.0 2.6655e-05
18050.0 2.6549e-05
18070.0 2.6445e-05
18090.0 2.6338e-05
18110.0 2.6229e-05
18130.0 2.6126e-05
18150.0 2.6021e-05
18170.0 2.5913e-05
18190.0 2.5807e-05
18210.0 2.5704e-05
18230.0 2.5596e-05
18250.0 2.5487e-05
18270.0 2.5384e-05
18290.0 2.5279e-05
18310.0 2.5172e-05
18330.0 2.5067e-05
18350.0 2.4964e-05
18370.0 2.4857e-05
18390.0 2.475e-05
18410.0 2.4647e-05
18430.0 2.4542e-05
18450.0 2.4433e-05
18470.0 2.4329e-05
18490.0 2.4226e-05
18510.0 2.412e-05
18530.0 2.4014e-05
18550.0 2.3912e-05
18570.0 2.3807e-05
18590.0 2.3699e-05
18610.0 2.3596e-05
18630.0 2.3493e-05
18650.0 2.3386e-05
18670.0 2.328e-05
18690.0 2.3179e-05
18710.0 2.3075e-05
18730.0 2.2969e-05
18750.0 2.2866e-05
18770.0 2.2764e-05
18790.0 2.2657e-05
18810.0 2.2552e-05
18830.0 2.245e-05
18850.0 2.2346e-05
18870.0 2.224e-05
18890.0 2.2139e-05
18910.0 2.2037e-05
18930.0 2.1931e-05
18950.0 2.1828e-05
18970.0 2.1727e-05
18990.0 2.1623e-05
19010.0 2.1516e-05
19030.0 2.1415e-05
19050.0 2.1313e-05
19070.0 2.1209e-05
19090.0 2.1106e-05
19110.0 2.1006e-05
19130.0 2.0902e-05
19150.0 2.0797e-05
19170.0 2.0696e-05
19190.0 2.0595e-05
19210.0 2.0489e-05
19230.0 2.0386e-05
19250.0 2.0287e-05
19270.0 2.0184e-05
19290.0 2.0081e-05
19310.0 1.9981e-05
19330.0 1.988e-05
19350.0 1.9774e-05
19370.0 1.9673e-05
19390.0 1.9573e-05
19410.0 1.947e-05
19430.0 1.9366e-05
19450.0 1.9267e-05
19470.0 1.9167e-05
19490.0 1.9063e-05
19510.0 1.8962e-05
19530.0 1.8863e-05
19550.0 1.876e-05
19570.0 1.8656e-05
19590.0 1.8558e-05
19610.0 1.8457e-05
19630.0 1.8354e-05
19650.0 1.8254e-05
19670.0 1.8156e-05
19690.0 1.8053e-05
19710.0 1.7951e-05
19730.0 1.7852e-05
19750.0 1.7752e-05
19770.0 1.7647e-05
19790.0 1.7548e-05
19810.0 1.745e-05
19830.0 1.7348e-05
19850.0 1.7247e-05
19870.0 1.7151e-05
19890.0 1.7052e-05
19910.0 1.6952e-05
19930.0 1.686e-05
19950.0 1.6773e-05
19970.0 1.6689e-05
19990.0 1.6614e-05
20010.0 1.6552e-05
20030.0 1.6498e-05
20050.0 1.6452e-05
20070.0 1.6416e-05
20090.0 1.6386e-05
20110.0 1.636e-05
20130.0 1.6338e-05
20150.0 1.6318e-05
20170.0 1.6298e-05
20190.0 1.6279e-05
20210.0 1.626e-05
20230.0 1.624e-05
20250.0 1.6219e-05
20270.0 1.6197e-05
20290.0 1.6174e-05
20310.0 1.615e-05
20330.0 1.6124e-05
20350.0 1.6098e-05
20370.0 1.6071e-05
20390.0 1.6041e-05
20410.0 1.6011e-05
20430.0 1.5981e-05
20450.0 1.5948e-05
20470.0 1.5915e-05
20490.0 1.5882e-05
20510.0 1.5849e-05
20530.0 1.5815e-05
20550.0 1.5782e-05
20570.0 1.5751e-05
20590.0 1.5719e-05
20610.0 1.5687e-05
20630.0 1.5658e-05
20650.0 1.5628e-05
20670.0 1.5598e-05
20690.0 1.5569e-05
20710.0 1.5541e-05
20730.0 1.5511e-05
20750.0 1.548e-05
20770.0 1.5449e-05
20790.0 1.5415e-05
20810.0 1.5379e-05
20830.0 1.5341e-05
20850.0 1.5301e-05
20870.0 1.5256e-05
20890.0 1.5208e-05
20910.0 1.516e-05
20930.0 1.5108e-05
20950.0 1.5053e-05
20970.0 1.4997e-05
20990.0 1.494e-05
21010.0 1.4879e-05
21030.0 1.4818e-05
21050.0 1.4758e-05
21070.0 1.4696e-05
21090.0 1.4633e-05
21110.0 1.4573e-05
21130.0 1.4514e-05
21150.0 1.4453e-05
21170.0 1.4394e-05
21190.0 1.4336e-05
21210.0 1.4278e-05
21230.0 1.4217e-05
21250.0 1.4159e-05
21270.0 1.4101e-05
21290.0 1.404e-05
21310.0 1.3979e-05
21330.0 1.3919e-05
21350.0 1.3855e-05
21370.0 1.3789e-05
21390.0 1.3724e-05
21410.0 1.3658e-05
21430.0 1.3586e-05
21450.0 1.3514e-05
21470.0 1.3443e-05
21490.0 1.3369e-05
21510.0 1.3291e-05
21530.0 1.3216e-05
21550.0 1.3139e-05
21570.0 1.3058e-05
21590.0 1.2978e-05
21610.0 1.2899e-05
21630.0 1.2818e-05
21650.0 1.2734e-05
21670.0 1.2655e-05
21690.0 1.2574e-05
21710.0 1.2492e-05
21730.0 1.2411e-05
21750.0 1.2332e-05
21770.0 1.225e-05
21790.0 1.2167e-05
21810.0 1.2088e-05
21830.0 1.2007e-05
21850.0 1.1924e-05
21870.0 1.1843e-05
21890.0 1.1765e-05
21910.0 1.1683e-05
21930.0 1.1602e-05
21950.0 1.1523e-05
21970.0 1.1444e-05
21990.0 1.1362e-05
22010.0 1.1285e-05
22030.0 1.1209e-05
22050.0 1.1134e-05
22070.0 1.1058e-05
22090.0 1.0983e-05
22110.0 1.0909e-05
22130.0 1.0836e-05
22150.0 1.0768e-05
22170.0 1.0702e-05
22190.0 1.0637e-05
22210.0 1.0575e-05
22230.0 1.0517e-05
22250.0 1.046e-05
22270.0 1.0405e-05
22290.0 1.0352e-05
22310.0 1.0301e-05
22330.0 1.025e-05
22350.0 1.0199e-05
22370.0 1.0151e-05
22390.0 1.0102e-05
22410.0 1.0052e-05
22430.0 1.0003e-05
22450.0 9.9546e-06
22470.0 9.9042e-06
22490.0 9.8537e-06
22510.0 9.8039e-06
22530.0 9.7521e-06
22550.0 9.6993e-06
22570.0 9.6475e-06
22590.0 9.5954e-06
22610.0 9.5421e-06
22630.0 9.4892e-06
22650.0 9.4379e-06
22670.0 9.3857e-06
22690.0 9.3337e-06
22710.0 9.2834e-06
22730.0 9.2341e-06
