#lamb flux
1010.0 1.9685e-08
1030.0 2.1772e-08
1050.0 2.4172e-08
1070.0 2.6874e-08
1090.0 2.9943e-08
1110.0 3.309e-08
1130.0 3.6259e-08
1150.0 3.9577e-08
1170.0 4.3e-08
1190.0 4.6246e-08
1210.0 4.9536e-08
1230.0 5.2936e-08
1250.0 5.6266e-08
1270.0 5.9501e-08
1290.0 6.2919e-08
1310.0 6.6334e-08
1330.0 6.961e-08
1350.0 7.2922e-08
1370.0 7.6342e-08
1390.0 7.9676e-08
1410.0 8.2911e-08
1430.0 8.6294e-08
1450.0 8.9676e-08
1470.0 9.2945e-08
1490.0 9.6249e-08
1510.0 9.974e-08
1530.0 1.0305e-07
1550.0 1.0631e-07
1570.0 1.0969e-07
1590.0 1.1307e-07
1610.0 1.163e-07
1630.0 1.1963e-07
1650.0 1.2306e-07
1670.0 1.2637e-07
1690.0 1.2964e-07
1710.0 1.3304e-07
1730.0 1.3646e-07
1750.0 1.3968e-07
1770.0 1.43e-07
1790.0 1.4639e-07
1810.0 1.4968e-07
1830.0 1.5291e-07
1850.0 1.5634e-07
1870.0 1.597e-07
1890.0 1.6294e-07
1910.0 1.6626e-07
1930.0 1.6966e-07
1950.0 1.7292e-07
1970.0 1.7614e-07
1990.0 1.795e-07
2010.0 1.828e-07
2030.0 1.86e-07
2050.0 1.893e-07
2070.0 1.9269e-07
2090.0 1.9589e-07
2110.0 1.991e-07
2130.0 2.024e-07
2150.0 2.0565e-07
2170.0 2.0877e-07
2190.0 2.1201e-07
2210.0 2.1527e-07
2230.0 2.1841e-07
2250.0 2.2154e-07
2270.0 2.2481e-07
2290.0 2.2799e-07
2310.0 2.3104e-07
2330.0 2.3421e-07
2350.0 2.3748e-07
2370.0 2.4072e-07
2390.0 2.4424e-07
2410.0 2.4841e-07
2430.0 2.532e-07
2450.0 2.5893e-07
2470.0 2.6627e-07
2490.0 2.7553e-07
2510.0 2.8605e-07
2530.0 2.9871e-07
2550.0 3.1455e-07
2570.0 3.3427e-07
2590.0 3.5992e-07
2610.0 3.9831e-07
2630.0 4.5314e-07
2650.0 5.2482e-07
2670.0 6.1749e-07
2690.0 7.3138e-07
2710.0 8.5295e-07
2730.0 9.7307e-07
2750.0 1.0914e-06
2770.0 1.1943e-06
2790.0 1.276e-06
2810.0 1.3409e-06
2830.0 1.3916e-06
2850.0 1.4262e-06
2870.0 1.4515e-06
2890.0 1.4716e-06
2910.0 1.4877e-06
2930.0 1.5008e-06
2950.0 1.5133e-06
2970.0 1.5255e-06
2990.0 1.537e-06
3010.0 4.3444e-05
3030.0 4.3769e-05
3050.0 4.4083e-05
3070.0 4.4352e-05
3090.0 4.4583e-05
3110.0 4.4727e-05
3130.0 4.4721e-05
3150.0 4.4522e-05
3170.0 4.4045e-05
3190.0 4.3296e-05
3210.0 4.2347e-05
3230.0 4.126e-05
3250.0 4.0187e-05
3270.0 3.9403e-05
3290.0 3.8968e-05
3310.0 3.9038e-05
3330.0 3.9603e-05
3350.0 4.0587e-05
3370.0 4.1992e-05
3390.0 4.3762e-05
3410.0 4.5689e-05
3430.0 4.7852e-05
3450.0 5.0342e-05
3470.0 5.3062e-05
3490.0 5.5943e-05
3510.0 5.9201e-05
3530.0 6.2689e-05
3550.0 6.622e-05
3570.0 6.9904e-05
3590.0 7.3911e-05
3610.0 7.8039e-05
3630.0 8.2155e-05
3650.0 8.6425e-05
3670.0 9.0323e-05
3690.0 9.3237e-05
3710.0 9.4908e-05
3730.0 9.4963e-05
3750.0 9.3641e-05
3770.0 9.3122e-05
3790.0 9.2568e-05
3810.0 9.0294e-05
3830.0 9.3089e-05
3850.0 0.00010408
3870.0 0.00011012
3890.0 0.00010962
3910.0 0.00011008
3930.0 0.00011298
3950.0 0.00011477
3970.0 0.00010456
3990.0 8.9971e-05
4010.0 0.00026966
4030.0 0.00032673
4050.0 0.00037457
4070.0 0.000325
4090.0 0.00029436
4110.0 0.00025974
4130.0 0.00023906
4150.0 0.00025429
4170.0 0.00025049
4190.0 0.000267
4210.0 0.00026456
4230.0 0.00027983
4250.0 0.00033105
4270.0 0.00033494
4290.0 0.00030865
4310.0 0.0003207
4330.0 0.00034113
4350.0 0.0003825
4370.0 0.00043529
4390.0 0.00040847
4410.0 0.00030179
4430.0 0.00025548
4450.0 0.00023476
4470.0 0.00018019
4490.0 0.00019444
4510.0 0.00029371
4530.0 0.00033874
4550.0 0.00034167
4570.0 0.00038447
4590.0 0.00043795
4610.0 0.00059069
4630.0 0.00076718
4650.0 0.000832
4670.0 0.00077051
4690.0 0.0007352
4710.0 0.00077716
4730.0 0.00073342
4750.0 0.00054833
4770.0 0.00040222
4790.0 0.00037559
4810.0 0.000358
4830.0 0.00032775
4850.0 0.00035964
4870.0 0.00047513
4890.0 0.00056031
4910.0 0.0004916
4930.0 0.00043499
4950.0 0.00047791
4970.0 0.00061289
4990.0 0.00083061
5010.0 0.0009555
5030.0 0.00084253
5050.0 0.00057003
5070.0 0.00037567
5090.0 0.00030292
5110.0 0.00031153
5130.0 0.00035955
5150.0 0.00038955
5170.0 0.0003837
5190.0 0.00035854
5210.0 0.00037476
5230.0 0.00039396
5250.0 0.00042458
5270.0 0.00045809
5290.0 0.00050766
5310.0 0.0005909
5330.0 0.0006539
5350.0 0.00064973
5370.0 0.00068248
5390.0 0.00078316
5410.0 0.00078246
5430.0 0.00069197
5450.0 0.00063576
5470.0 0.00067506
5490.0 0.00082474
5510.0 0.0010312
5530.0 0.0011827
5550.0 0.0011431
5570.0 0.0010392
5590.0 0.0009036
5610.0 0.00083332
5630.0 0.00080806
5650.0 0.0007696
5670.0 0.00072926
5690.0 0.00065195
5710.0 0.00063567
5730.0 0.00058555
5750.0 0.00041284
5770.0 0.00032209
5790.0 0.00036499
5810.0 0.00041214
5830.0 0.00050575
5850.0 0.00060204
5870.0 0.00066797
5890.0 0.00067929
5910.0 0.00066643
5930.0 0.00063437
5950.0 0.00064641
5970.0 0.00073683
5990.0 0.00069282
6010.0 0.00058079
6030.0 0.00049068
6050.0 0.00042732
6070.0 0.00042498
6090.0 0.00046083
6110.0 0.00051528
6130.0 0.00052317
6150.0 0.00045014
6170.0 0.00039599
6190.0 0.00044563
6210.0 0.00058911
6230.0 0.00077308
6250.0 0.00083735
6270.0 0.00073173
6290.0 0.00061565
6310.0 0.00048062
6330.0 0.00036825
6350.0 0.00032846
6370.0 0.00034542
6390.0 0.00039932
6410.0 0.00049238
6430.0 0.00057497
6450.0 0.00065791
6470.0 0.00075332
6490.0 0.00090996
6510.0 0.0010175
6530.0 0.00099819
6550.0 0.00090263
6570.0 0.00076625
6590.0 0.00069095
6610.0 0.00059577
6630.0 0.00053975
6650.0 0.00051022
6670.0 0.00049567
6690.0 0.00044786
6710.0 0.00040711
6730.0 0.00029324
6750.0 0.00029071
6770.0 0.00031599
6790.0 0.0003632
6810.0 0.00033234
6830.0 0.00034221
6850.0 0.00032008
6870.0 0.00029239
6890.0 0.00028074
6910.0 0.00029917
6930.0 0.00028021
6950.0 0.00028829
6970.0 0.00030323
6990.0 0.00034419
7010.0 0.00034712
7030.0 0.00035264
7050.0 0.0003363
7070.0 0.00032043
7090.0 0.00032137
7110.0 0.00033066
7130.0 0.00035584
7150.0 0.00037794
7170.0 0.00041703
7190.0 0.00045843
7210.0 0.00045047
7230.0 0.00046309
7250.0 0.00049766
7270.0 0.00054233
7290.0 0.00064369
7310.0 0.00069846
7330.0 0.00067512
7350.0 0.00061061
7370.0 0.00053128
7390.0 0.00051541
7410.0 0.00054772
7430.0 0.00060873
7450.0 0.00066302
7470.0 0.00065693
7490.0 0.00059899
7510.0 0.00067851
7530.0 0.00067108
7550.0 0.00060318
7570.0 0.0004712
7590.0 0.00032393
7610.0 0.00027803
7630.0 0.00031589
7650.0 0.0003735
7670.0 0.00046485
7690.0 0.00051153
7710.0 0.00053308
7730.0 0.0005602
7750.0 0.00062889
7770.0 0.00063878
7790.0 0.00058675
7810.0 0.00053538
7830.0 0.00055209
7850.0 0.00053668
7870.0 0.00049205
7890.0 0.00041342
7910.0 0.00033605
7930.0 0.00032088
7950.0 0.00029233
7970.0 0.00027061
7990.0 0.00026906
8010.0 1.9928e-05
8030.0 1.9668e-05
8050.0 1.9403e-05
8070.0 1.9657e-05
8090.0 2.1121e-05
8110.0 2.0761e-05
8130.0 1.7126e-05
8150.0 1.6678e-05
8170.0 1.4366e-05
8190.0 1.3615e-05
8210.0 1.768e-05
8230.0 1.9685e-05
8250.0 1.7742e-05
8270.0 1.5442e-05
8290.0 1.5053e-05
8310.0 1.1585e-05
8330.0 7.8085e-06
8350.0 5.5416e-06
8370.0 3.4915e-06
8390.0 6.3823e-06
8410.0 7.4371e-06
8430.0 9.1674e-06
8450.0 1.0765e-05
8470.0 1.338e-05
8490.0 1.3286e-05
8510.0 1.3069e-05
8530.0 1.3639e-05
8550.0 1.8402e-05
8570.0 2.1785e-05
8590.0 2.3506e-05
8610.0 2.9693e-05
8630.0 3.577e-05
8650.0 3.7419e-05
8670.0 3.9765e-05
8690.0 3.9988e-05
8710.0 3.6215e-05
8730.0 3.3685e-05
8750.0 2.9734e-05
8770.0 2.8213e-05
8790.0 2.7718e-05
8810.0 2.656e-05
8830.0 2.1239e-05
8850.0 1.5548e-05
8870.0 1.1905e-05
8890.0 1.1639e-05
8910.0 1.3339e-05
8930.0 1.5172e-05
8950.0 1.5462e-05
8970.0 1.5535e-05
8990.0 1.3856e-05
9010.0 0.0001452
9030.0 0.00013157
9050.0 0.0001322
9070.0 0.00013325
9090.0 0.00013416
9110.0 0.00013529
9130.0 0.00013617
9150.0 0.00013684
9170.0 0.00013757
9190.0 0.00013834
9210.0 0.00013915
9230.0 0.00014001
9250.0 0.00014088
9270.0 0.00014178
9290.0 0.00014271
9310.0 0.00014365
9330.0 0.00014461
9350.0 0.0001456
9370.0 0.0001466
9390.0 0.00014761
9410.0 0.00014866
9430.0 0.00014973
9450.0 0.0001508
9470.0 0.00015189
9490.0 0.00015301
9510.0 0.00015415
9530.0 0.00015529
9550.0 0.00015647
9570.0 0.00015768
9590.0 0.00015888
9610.0 0.00016011
9630.0 0.00016137
9650.0 0.00016264
9670.0 0.00016391
9690.0 0.00016522
9710.0 0.00016654
9730.0 0.00016787
9750.0 0.00016922
9770.0 0.00017061
9790.0 0.000172
9810.0 0.00017339
9830.0 0.00017481
9850.0 0.00017626
9870.0 0.00017769
9890.0 0.00017915
9910.0 0.00018064
9930.0 0.00018213
9950.0 0.00018362
9970.0 0.00018514
9990.0 0.00018668
10010.0 0.00016199
10030.0 0.00016332
10050.0 0.00016468
10070.0 0.00016608
10090.0 0.0001674
10110.0 0.00016876
10130.0 0.00017012
10150.0 0.00017148
10170.0 0.00017285
10190.0 0.00017425
10210.0 0.00017563
10230.0 0.000177
10250.0 0.0001784
10270.0 0.0001798
10290.0 0.00018118
10310.0 0.00018258
10330.0 0.00018399
10350.0 0.00018538
10370.0 0.00018676
10390.0 0.00018816
10410.0 0.00018955
10430.0 0.00019091
10450.0 0.00019229
10470.0 0.00019368
10490.0 0.00019503
10510.0 0.00019638
10530.0 0.00019775
10550.0 0.0001991
10570.0 0.00020042
10590.0 0.00020175
10610.0 0.00020308
10630.0 0.00020437
10650.0 0.00020566
10670.0 0.00020695
10690.0 0.00020822
10710.0 0.00020947
10730.0 0.00021071
10750.0 0.00021196
10770.0 0.00021316
10790.0 0.00021435
10810.0 0.00021554
10830.0 0.00021669
10850.0 0.00021778
10870.0 0.00021883
10890.0 0.00021977
10910.0 0.00022048
10930.0 0.00022089
10950.0 0.00022079
10970.0 0.00022004
10990.0 0.00021858
11010.0 0.00021612
11030.0 0.00021268
11050.0 0.00020849
11070.0 0.00020348
11090.0 0.00019746
11110.0 0.00019124
11130.0 0.00018474
11150.0 0.00017775
11170.0 0.00017054
11190.0 0.00016354
11210.0 0.00015632
11230.0 0.00014892
11250.0 0.00014184
11270.0 0.00013504
11290.0 0.00012824
11310.0 0.00012179
11330.0 0.00011611
11350.0 0.00011074
11370.0 0.00010578
11390.0 0.00010149
11410.0 9.7742e-05
11430.0 9.4255e-05
11450.0 9.1251e-05
11470.0 8.8653e-05
11490.0 8.6236e-05
11510.0 8.3907e-05
11530.0 8.1745e-05
11550.0 7.9598e-05
11570.0 7.7307e-05
11590.0 7.4935e-05
11610.0 7.2521e-05
11630.0 6.9893e-05
11650.0 6.7079e-05
11670.0 6.4306e-05
11690.0 6.1494e-05
11710.0 5.8593e-05
11730.0 5.5782e-05
11750.0 5.3181e-05
11770.0 5.063e-05
11790.0 4.8239e-05
11810.0 4.6134e-05
11830.0 4.4252e-05
11850.0 4.2518e-05
11870.0 4.1068e-05
11890.0 3.9862e-05
11910.0 3.8802e-05
11930.0 3.7892e-05
11950.0 3.7134e-05
11970.0 3.6456e-05
11990.0 3.5816e-05
12010.0 3.5223e-05
12030.0 3.4652e-05
12050.0 3.4062e-05
12070.0 3.3448e-05
12090.0 3.2857e-05
12110.0 3.2256e-05
12130.0 3.1654e-05
12150.0 3.1099e-05
12170.0 3.0614e-05
12190.0 3.0195e-05
12210.0 2.9903e-05
12230.0 2.9761e-05
12250.0 2.9784e-05
12270.0 3.0009e-05
12290.0 3.0433e-05
12310.0 3.1042e-05
12330.0 3.1894e-05
12350.0 3.2958e-05
12370.0 3.4169e-05
12390.0 3.5564e-05
12410.0 3.72e-05
12430.0 3.8863e-05
12450.0 4.0584e-05
12470.0 4.2415e-05
12490.0 4.4253e-05
12510.0 4.5978e-05
12530.0 4.7694e-05
12550.0 4.9349e-05
12570.0 5.081e-05
12590.0 5.2093e-05
12610.0 5.3236e-05
12630.0 5.4148e-05
12650.0 5.4776e-05
12670.0 5.519e-05
12690.0 5.5355e-05
12710.0 5.5264e-05
12730.0 5.4944e-05
12750.0 5.4372e-05
12770.0 5.3588e-05
12790.0 5.2637e-05
12810.0 5.1501e-05
12830.0 5.0187e-05
12850.0 4.8813e-05
12870.0 4.736e-05
12890.0 4.5788e-05
12910.0 4.4189e-05
12930.0 4.2614e-05
12950.0 4.097e-05
12970.0 3.9297e-05
12990.0 3.7714e-05
13010.0 3.6151e-05
13030.0 3.457e-05
13050.0 3.3052e-05
13070.0 3.163e-05
13090.0 3.0203e-05
13110.0 2.8822e-05
13130.0 2.7549e-05
13150.0 2.6343e-05
13170.0 2.5163e-05
13190.0 2.4112e-05
13210.0 2.3188e-05
13230.0 2.2343e-05
13250.0 2.1615e-05
13270.0 2.1041e-05
13290.0 2.0595e-05
13310.0 2.0287e-05
13330.0 2.0147e-05
13350.0 2.0163e-05
13370.0 2.0344e-05
13390.0 2.07e-05
13410.0 2.118e-05
13430.0 2.1804e-05
13450.0 2.2575e-05
13470.0 2.3431e-05
13490.0 2.4337e-05
13510.0 2.5359e-05
13530.0 2.6396e-05
13550.0 2.7388e-05
13570.0 2.8366e-05
13590.0 2.9319e-05
13610.0 3.0167e-05
13630.0 3.0907e-05
13650.0 3.1583e-05
13670.0 3.2144e-05
13690.0 3.2578e-05
13710.0 3.2914e-05
13730.0 3.3153e-05
13750.0 3.3273e-05
13770.0 3.33e-05
13790.0 3.324e-05
13810.0 3.3093e-05
13830.0 3.2876e-05
13850.0 3.2583e-05
13870.0 3.2212e-05
13890.0 3.1788e-05
13910.0 3.1311e-05
13930.0 3.0758e-05
13950.0 3.0155e-05
13970.0 2.9538e-05
13990.0 2.8866e-05
14010.0 2.8151e-05
14030.0 2.7439e-05
14050.0 2.672e-05
14070.0 2.5962e-05
14090.0 2.5236e-05
14110.0 2.4553e-05
14130.0 2.3891e-05
14150.0 2.3268e-05
14170.0 2.2736e-05
14190.0 2.2276e-05
14210.0 2.1887e-05
14230.0 2.1598e-05
14250.0 2.1411e-05
14270.0 2.1321e-05
14290.0 2.134e-05
14310.0 2.1459e-05
14330.0 2.1672e-05
14350.0 2.1987e-05
14370.0 2.2378e-05
14390.0 2.2823e-05
14410.0 2.3347e-05
14430.0 2.3922e-05
14450.0 2.4509e-05
14470.0 2.5119e-05
14490.0 2.5767e-05
14510.0 2.6387e-05
14530.0 2.6975e-05
14550.0 2.7564e-05
14570.0 2.8129e-05
14590.0 2.8643e-05
14610.0 2.914e-05
14630.0 2.9632e-05
14650.0 3.0091e-05
14670.0 3.0534e-05
14690.0 3.0995e-05
14710.0 3.148e-05
14730.0 3.1966e-05
14750.0 3.2503e-05
14770.0 3.3113e-05
14790.0 3.3774e-05
14810.0 3.4491e-05
14830.0 3.5339e-05
14850.0 3.6262e-05
14870.0 3.7224e-05
14890.0 3.8263e-05
14910.0 3.9365e-05
14930.0 4.0426e-05
14950.0 4.1417e-05
14970.0 4.2355e-05
14990.0 4.3141e-05
15010.0 4.3743e-05
15030.0 4.4188e-05
15050.0 4.4483e-05
15070.0 4.4627e-05
15090.0 4.4677e-05
15110.0 4.4663e-05
15130.0 4.4606e-05
15150.0 4.4531e-05
15170.0 4.4442e-05
15190.0 4.4346e-05
15210.0 4.4252e-05
15230.0 4.4158e-05
15250.0 4.406e-05
15270.0 4.3964e-05
15290.0 4.3873e-05
15310.0 4.3779e-05
15330.0 4.3684e-05
15350.0 4.3593e-05
15370.0 4.3503e-05
15390.0 4.3408e-05
15410.0 4.3316e-05
15430.0 4.3227e-05
15450.0 4.3136e-05
15470.0 4.3044e-05
15490.0 4.2956e-05
15510.0 4.2869e-05
15530.0 4.2778e-05
15550.0 4.2689e-05
15570.0 4.2604e-05
15590.0 4.2515e-05
15610.0 4.2424e-05
15630.0 4.2339e-05
15650.0 4.2253e-05
15670.0 4.2165e-05
15690.0 4.2079e-05
15710.0 4.1996e-05
15730.0 4.1908e-05
15750.0 4.1821e-05
15770.0 4.1738e-05
15790.0 4.1654e-05
15810.0 4.1565e-05
15830.0 4.1481e-05
15850.0 4.1399e-05
15870.0 4.1313e-05
15890.0 4.1228e-05
15910.0 4.1147e-05
15930.0 4.1063e-05
15950.0 4.0977e-05
15970.0 4.0893e-05
15990.0 4.0812e-05
16010.0 4.0727e-05
16030.0 4.0641e-05
16050.0 4.0561e-05
16070.0 4.0478e-05
16090.0 4.0393e-05
16110.0 4.0311e-05
16130.0 4.0231e-05
16150.0 4.0144e-05
16170.0 4.006e-05
16190.0 3.9979e-05
16210.0 3.9896e-05
16230.0 3.9811e-05
16250.0 3.9729e-05
16270.0 3.9649e-05
16290.0 3.9564e-05
16310.0 3.948e-05
16330.0 3.9399e-05
16350.0 3.9316e-05
16370.0 3.9228e-05
16390.0 3.9147e-05
16410.0 3.9065e-05
16430.0 3.898e-05
16450.0 3.8896e-05
16470.0 3.8815e-05
16490.0 3.8731e-05
16510.0 3.8645e-05
16530.0 3.8562e-05
16550.0 3.8479e-05
16570.0 3.8392e-05
16590.0 3.8306e-05
16610.0 3.8225e-05
16630.0 3.814e-05
16650.0 3.8054e-05
16670.0 3.797e-05
16690.0 3.7887e-05
16710.0 3.7798e-05
16730.0 3.7713e-05
16750.0 3.7629e-05
16770.0 3.7542e-05
16790.0 3.7454e-05
16810.0 3.737e-05
16830.0 3.7285e-05
16850.0 3.7196e-05
16870.0 3.711e-05
16890.0 3.7025e-05
16910.0 3.6936e-05
16930.0 3.6846e-05
16950.0 3.6761e-05
16970.0 3.6674e-05
16990.0 3.6584e-05
17010.0 3.6496e-05
17030.0 3.641e-05
17050.0 3.632e-05
17070.0 3.623e-05
17090.0 3.6143e-05
17110.0 3.6054e-05
17130.0 3.5961e-05
17150.0 3.5871e-05
17170.0 3.5784e-05
17190.0 3.5692e-05
17210.0 3.5601e-05
17230.0 3.5513e-05
17250.0 3.5422e-05
17270.0 3.5328e-05
17290.0 3.5237e-05
17310.0 3.5147e-05
17330.0 3.5054e-05
17350.0 3.4959e-05
17370.0 3.487e-05
17390.0 3.4778e-05
17410.0 3.4683e-05
17430.0 3.4591e-05
17450.0 3.4501e-05
17470.0 3.4404e-05
17490.0 3.4309e-05
17510.0 3.4217e-05
17530.0 3.4123e-05
17550.0 3.4026e-05
17570.0 3.3933e-05
17590.0 3.384e-05
17610.0 3.3743e-05
17630.0 3.3647e-05
17650.0 3.3554e-05
17670.0 3.3458e-05
17690.0 3.3358e-05
17710.0 3.3264e-05
17730.0 3.3169e-05
17750.0 3.307e-05
17770.0 3.2973e-05
17790.0 3.288e-05
17810.0 3.2781e-05
17830.0 3.2682e-05
17850.0 3.2585e-05
17870.0 3.2489e-05
17890.0 3.2388e-05
17910.0 3.2289e-05
17930.0 3.2194e-05
17950.0 3.2094e-05
17970.0 3.1994e-05
17990.0 3.1897e-05
18010.0 3.18e-05
18030.0 3.1697e-05
18050.0 3.1597e-05
18070.0 3.15e-05
18090.0 3.1399e-05
18110.0 3.1297e-05
18130.0 3.1199e-05
18150.0 3.11e-05
18170.0 3.0998e-05
18190.0 3.0897e-05
18210.0 3.0799e-05
18230.0 3.0696e-05
18250.0 3.0593e-05
18270.0 3.0494e-05
18290.0 3.0393e-05
18310.0 3.029e-05
18330.0 3.0189e-05
18350.0 3.009e-05
18370.0 2.9987e-05
18390.0 2.9883e-05
18410.0 2.9783e-05
18430.0 2.9682e-05
18450.0 2.9576e-05
18470.0 2.9474e-05
18490.0 2.9374e-05
18510.0 2.9271e-05
18530.0 2.9167e-05
18550.0 2.9067e-05
18570.0 2.8964e-05
18590.0 2.8858e-05
18610.0 2.8756e-05
18630.0 2.8655e-05
18650.0 2.855e-05
18670.0 2.8445e-05
18690.0 2.8345e-05
18710.0 2.8242e-05
18730.0 2.8136e-05
18750.0 2.8034e-05
18770.0 2.7933e-05
18790.0 2.7826e-05
18810.0 2.7721e-05
18830.0 2.762e-05
18850.0 2.7516e-05
18870.0 2.741e-05
18890.0 2.7308e-05
18910.0 2.7206e-05
18930.0 2.71e-05
18950.0 2.6996e-05
18970.0 2.6894e-05
18990.0 2.679e-05
19010.0 2.6682e-05
19030.0 2.658e-05
19050.0 2.6478e-05
19070.0 2.6372e-05
19090.0 2.6268e-05
19110.0 2.6167e-05
19130.0 2.6061e-05
19150.0 2.5955e-05
19170.0 2.5853e-05
19190.0 2.575e-05
19210.0 2.5643e-05
19230.0 2.5538e-05
19250.0 2.5437e-05
19270.0 2.5333e-05
19290.0 2.5227e-05
19310.0 2.5125e-05
19330.0 2.5023e-05
19350.0 2.4915e-05
19370.0 2.4811e-05
19390.0 2.4709e-05
19410.0 2.4604e-05
19430.0 2.4499e-05
19450.0 2.4397e-05
19470.0 2.4295e-05
19490.0 2.4189e-05
19510.0 2.4085e-05
19530.0 2.3984e-05
19550.0 2.3878e-05
19570.0 2.3772e-05
19590.0 2.3671e-05
19610.0 2.3568e-05
19630.0 2.3462e-05
19650.0 2.336e-05
19670.0 2.3259e-05
19690.0 2.3154e-05
19710.0 2.3049e-05
19730.0 2.2948e-05
19750.0 2.2845e-05
19770.0 2.2738e-05
19790.0 2.2636e-05
19810.0 2.2535e-05
19830.0 2.243e-05
19850.0 2.2325e-05
19870.0 2.2221e-05
19890.0 2.2111e-05
19910.0 2.1989e-05
19930.0 2.1858e-05
19950.0 2.1709e-05
19970.0 2.1525e-05
19990.0 2.1304e-05
20010.0 1.8954e-05
20030.0 1.868e-05
20050.0 1.8359e-05
20070.0 1.8011e-05
20090.0 1.7637e-05
20110.0 1.7213e-05
20130.0 1.6785e-05
20150.0 1.636e-05
20170.0 1.592e-05
20190.0 1.5473e-05
20210.0 1.5051e-05
20230.0 1.464e-05
20250.0 1.4228e-05
20270.0 1.3845e-05
20290.0 1.3496e-05
20310.0 1.3164e-05
20330.0 1.2853e-05
20350.0 1.2596e-05
20370.0 1.2367e-05
20390.0 1.2167e-05
20410.0 1.2005e-05
20430.0 1.188e-05
20450.0 1.1781e-05
20470.0 1.1715e-05
20490.0 1.1679e-05
20510.0 1.1669e-05
20530.0 1.1684e-05
20550.0 1.172e-05
20570.0 1.1772e-05
20590.0 1.1843e-05
20610.0 1.1929e-05
20630.0 1.2024e-05
20650.0 1.213e-05
20670.0 1.2251e-05
20690.0 1.2375e-05
20710.0 1.2502e-05
20730.0 1.264e-05
20750.0 1.2784e-05
20770.0 1.2925e-05
20790.0 1.3074e-05
20810.0 1.3231e-05
20830.0 1.3388e-05
20850.0 1.3545e-05
20870.0 1.3713e-05
20890.0 1.3884e-05
20910.0 1.405e-05
20930.0 1.4221e-05
20950.0 1.4399e-05
20970.0 1.4573e-05
20990.0 1.4744e-05
21010.0 1.4923e-05
21030.0 1.5099e-05
21050.0 1.5267e-05
21070.0 1.5435e-05
21090.0 1.5603e-05
21110.0 1.5756e-05
21130.0 1.59e-05
21150.0 1.604e-05
21170.0 1.6166e-05
21190.0 1.6275e-05
21210.0 1.6372e-05
21230.0 1.6454e-05
21250.0 1.6512e-05
21270.0 1.6548e-05
21290.0 1.6562e-05
21310.0 1.6549e-05
21330.0 1.651e-05
21350.0 1.6441e-05
21370.0 1.6341e-05
21390.0 1.6213e-05
21410.0 1.6056e-05
21430.0 1.5858e-05
21450.0 1.5635e-05
21470.0 1.5392e-05
21490.0 1.5118e-05
21510.0 1.4817e-05
21530.0 1.4511e-05
21550.0 1.4191e-05
21570.0 1.3849e-05
21590.0 1.3513e-05
21610.0 1.3189e-05
21630.0 1.2864e-05
21650.0 1.2546e-05
21670.0 1.2271e-05
21690.0 1.2017e-05
21710.0 1.1788e-05
21730.0 1.1601e-05
21750.0 1.1457e-05
21770.0 1.1347e-05
21790.0 1.1283e-05
21810.0 1.1266e-05
21830.0 1.1291e-05
21850.0 1.1361e-05
21870.0 1.1471e-05
21890.0 1.1614e-05
21910.0 1.1796e-05
21930.0 1.201e-05
21950.0 1.2242e-05
21970.0 1.2498e-05
21990.0 1.2786e-05
22010.0 1.3074e-05
22030.0 1.3367e-05
22050.0 1.3674e-05
22070.0 1.3983e-05
22090.0 1.4275e-05
22110.0 1.457e-05
22130.0 1.4864e-05
22150.0 1.5139e-05
22170.0 1.5398e-05
22190.0 1.5655e-05
22210.0 1.5894e-05
22230.0 1.6104e-05
22250.0 1.6302e-05
22270.0 1.6484e-05
22290.0 1.664e-05
22310.0 1.6774e-05
22330.0 1.6892e-05
22350.0 1.6983e-05
22370.0 1.7047e-05
22390.0 1.7087e-05
22410.0 1.71e-05
22430.0 1.7084e-05
22450.0 1.704e-05
22470.0 1.6964e-05
22490.0 1.6857e-05
22510.0 1.6724e-05
22530.0 1.6553e-05
22550.0 1.6346e-05
22570.0 1.6116e-05
22590.0 1.5857e-05
22610.0 1.5559e-05
22630.0 1.5236e-05
22650.0 1.4903e-05
