#lamb flux
1010.0 1.7988e-08
1030.0 1.9895e-08
1050.0 2.2089e-08
1070.0 2.4558e-08
1090.0 2.7362e-08
1110.0 3.0238e-08
1130.0 3.3133e-08
1150.0 3.6166e-08
1170.0 3.9294e-08
1190.0 4.226e-08
1210.0 4.5267e-08
1230.0 4.8373e-08
1250.0 5.1417e-08
1270.0 5.4373e-08
1290.0 5.7496e-08
1310.0 6.0617e-08
1330.0 6.361e-08
1350.0 6.6637e-08
1370.0 6.9762e-08
1390.0 7.2809e-08
1410.0 7.5765e-08
1430.0 7.8856e-08
1450.0 8.1947e-08
1470.0 8.4934e-08
1490.0 8.7953e-08
1510.0 9.1143e-08
1530.0 9.4166e-08
1550.0 9.7149e-08
1570.0 1.0023e-07
1590.0 1.0332e-07
1610.0 1.0628e-07
1630.0 1.0932e-07
1650.0 1.1245e-07
1670.0 1.1548e-07
1690.0 1.1847e-07
1710.0 1.2157e-07
1730.0 1.247e-07
1750.0 1.2764e-07
1770.0 1.3068e-07
1790.0 1.3377e-07
1810.0 1.3677e-07
1830.0 1.3973e-07
1850.0 1.4287e-07
1870.0 1.4593e-07
1890.0 1.489e-07
1910.0 1.5193e-07
1930.0 1.5504e-07
1950.0 1.5801e-07
1970.0 1.6096e-07
1990.0 1.6403e-07
2010.0 1.6705e-07
2030.0 1.6997e-07
2050.0 1.7298e-07
2070.0 1.7608e-07
2090.0 1.7901e-07
2110.0 1.8194e-07
2130.0 1.8496e-07
2150.0 1.8793e-07
2170.0 1.9077e-07
2190.0 1.9373e-07
2210.0 1.9672e-07
2230.0 1.9958e-07
2250.0 2.0244e-07
2270.0 2.0543e-07
2290.0 2.0834e-07
2310.0 2.1112e-07
2330.0 2.1403e-07
2350.0 2.1701e-07
2370.0 2.1998e-07
2390.0 2.2319e-07
2410.0 2.27e-07
2430.0 2.3138e-07
2450.0 2.3662e-07
2470.0 2.4332e-07
2490.0 2.5178e-07
2510.0 2.6139e-07
2530.0 2.7296e-07
2550.0 2.8744e-07
2570.0 3.0546e-07
2590.0 3.289e-07
2610.0 3.6398e-07
2630.0 4.1408e-07
2650.0 4.7958e-07
2670.0 5.6427e-07
2690.0 6.6834e-07
2710.0 7.7944e-07
2730.0 8.8921e-07
2750.0 9.9733e-07
2770.0 1.0914e-06
2790.0 1.1661e-06
2810.0 1.2253e-06
2830.0 1.2716e-06
2850.0 1.3032e-06
2870.0 1.3264e-06
2890.0 1.3448e-06
2910.0 1.3595e-06
2930.0 1.3714e-06
2950.0 1.3829e-06
2970.0 1.3941e-06
2990.0 1.4045e-06
3010.0 3.97e-05
3030.0 3.9997e-05
3050.0 4.0284e-05
3070.0 4.0529e-05
3090.0 4.0741e-05
3110.0 4.0872e-05
3130.0 4.0866e-05
3150.0 4.0685e-05
3170.0 4.0249e-05
3190.0 3.9565e-05
3210.0 3.8697e-05
3230.0 3.7704e-05
3250.0 3.6723e-05
3270.0 3.6007e-05
3290.0 3.5609e-05
3310.0 3.5673e-05
3330.0 3.619e-05
3350.0 3.7089e-05
3370.0 3.8372e-05
3390.0 3.999e-05
3410.0 4.1751e-05
3430.0 4.3728e-05
3450.0 4.6003e-05
3470.0 4.8488e-05
3490.0 5.1122e-05
3510.0 5.4098e-05
3530.0 5.7286e-05
3550.0 6.0513e-05
3570.0 6.3879e-05
3590.0 6.7541e-05
3610.0 7.1313e-05
3630.0 7.5074e-05
3650.0 7.8976e-05
3670.0 8.2538e-05
3690.0 8.5201e-05
3710.0 8.6728e-05
3730.0 8.6778e-05
3750.0 8.557e-05
3770.0 8.5096e-05
3790.0 8.459e-05
3810.0 8.2511e-05
3830.0 8.5065e-05
3850.0 9.5113e-05
3870.0 0.00010063
3890.0 0.00010017
3910.0 0.0001006
3930.0 0.00010324
3950.0 0.00010487
3970.0 9.555e-05
3990.0 8.2217e-05
4010.0 0.00024641
4030.0 0.00029857
4050.0 0.00034229
4070.0 0.00029699
4090.0 0.00026899
4110.0 0.00023735
4130.0 0.00021846
4150.0 0.00023237
4170.0 0.0002289
4190.0 0.00024399
4210.0 0.00024176
4230.0 0.00025572
4250.0 0.00030252
4270.0 0.00030607
4290.0 0.00028204
4310.0 0.00029306
4330.0 0.00031173
4350.0 0.00034953
4370.0 0.00039777
4390.0 0.00037326
4410.0 0.00027578
4430.0 0.00023346
4450.0 0.00021453
4470.0 0.00016466
4490.0 0.00017768
4510.0 0.0002684
4530.0 0.00030954
4550.0 0.00031223
4570.0 0.00035133
4590.0 0.0004002
4610.0 0.00053978
4630.0 0.00070106
4650.0 0.00076029
4670.0 0.0007041
4690.0 0.00067184
4710.0 0.00071018
4730.0 0.00067021
4750.0 0.00050107
4770.0 0.00036755
4790.0 0.00034322
4810.0 0.00032714
4830.0 0.0002995
4850.0 0.00032865
4870.0 0.00043418
4890.0 0.00051202
4910.0 0.00044923
4930.0 0.0003975
4950.0 0.00043672
4970.0 0.00056006
4990.0 0.00075902
5010.0 0.00087315
5030.0 0.00076991
5050.0 0.0005209
5070.0 0.00034329
5090.0 0.00027681
5110.0 0.00028468
5130.0 0.00032856
5150.0 0.00035597
5170.0 0.00035063
5190.0 0.00032764
5210.0 0.00034246
5230.0 0.00036
5250.0 0.00038798
5270.0 0.00041861
5290.0 0.0004639
5310.0 0.00053997
5330.0 0.00059755
5350.0 0.00059374
5370.0 0.00062366
5390.0 0.00071566
5410.0 0.00071502
5430.0 0.00063234
5450.0 0.00058097
5470.0 0.00061689
5490.0 0.00075367
5510.0 0.00094235
5530.0 0.0010808
5550.0 0.0010446
5570.0 0.00094965
5590.0 0.00082573
5610.0 0.00076151
5630.0 0.00073843
5650.0 0.00070328
5670.0 0.00066642
5690.0 0.00059578
5710.0 0.00058089
5730.0 0.00053509
5750.0 0.00037727
5770.0 0.00029433
5790.0 0.00033354
5810.0 0.00037663
5830.0 0.00046218
5850.0 0.00055017
5870.0 0.00061042
5890.0 0.00062077
5910.0 0.00060901
5930.0 0.00057971
5950.0 0.00059072
5970.0 0.00067335
5990.0 0.00063313
6010.0 0.00053075
6030.0 0.00044841
6050.0 0.00039051
6070.0 0.00038837
6090.0 0.00042113
6110.0 0.00047089
6130.0 0.0004781
6150.0 0.00041136
6170.0 0.00036187
6190.0 0.00040723
6210.0 0.00053836
6230.0 0.00070648
6250.0 0.00076521
6270.0 0.00066869
6290.0 0.00056261
6310.0 0.00043921
6330.0 0.00033652
6350.0 0.00030017
6370.0 0.00031566
6390.0 0.00036492
6410.0 0.00044996
6430.0 0.00052543
6450.0 0.00060123
6470.0 0.00068842
6490.0 0.00083157
6510.0 0.0009298
6530.0 0.00091219
6550.0 0.00082486
6570.0 0.00070023
6590.0 0.00063142
6610.0 0.00054445
6630.0 0.00049325
6650.0 0.00046626
6670.0 0.00045296
6690.0 0.00040928
6710.0 0.00037204
6730.0 0.00026797
6750.0 0.00026567
6770.0 0.00028876
6790.0 0.00033191
6810.0 0.0003037
6830.0 0.00031273
6850.0 0.0002925
6870.0 0.0002672
6890.0 0.00025656
6910.0 0.00027339
6930.0 0.00025607
6950.0 0.00026345
6970.0 0.00027711
6990.0 0.00031454
7010.0 0.00031722
7030.0 0.00032226
7050.0 0.00030732
7070.0 0.00029282
7090.0 0.00029368
7110.0 0.00030218
7130.0 0.00032519
7150.0 0.00034537
7170.0 0.0003811
7190.0 0.00041893
7210.0 0.00041166
7230.0 0.00042319
7250.0 0.00045479
7270.0 0.00049561
7290.0 0.00058823
7310.0 0.00063829
7330.0 0.00061696
7350.0 0.000558
7370.0 0.00048551
7390.0 0.00047101
7410.0 0.00050054
7430.0 0.00055628
7450.0 0.00060589
7470.0 0.00060033
7490.0 0.00054738
7510.0 0.00062005
7530.0 0.00061326
7550.0 0.00055121
7570.0 0.0004306
7590.0 0.00029602
7610.0 0.00025408
7630.0 0.00028868
7650.0 0.00034132
7670.0 0.0004248
7690.0 0.00046746
7710.0 0.00048715
7730.0 0.00051194
7750.0 0.00057471
7770.0 0.00058374
7790.0 0.0005362
7810.0 0.00048925
7830.0 0.00050453
7850.0 0.00049044
7870.0 0.00044966
7890.0 0.0003778
7910.0 0.0003071
7930.0 0.00029323
7950.0 0.00026714
7970.0 0.00024729
7990.0 0.00024588
8010.0 1.821e-05
8030.0 1.7974e-05
8050.0 1.7731e-05
8070.0 1.7963e-05
8090.0 1.9301e-05
8110.0 1.8972e-05
8130.0 1.565e-05
8150.0 1.5241e-05
8170.0 1.3128e-05
8190.0 1.2442e-05
8210.0 1.6157e-05
8230.0 1.7989e-05
8250.0 1.6213e-05
8270.0 1.4111e-05
8290.0 1.3756e-05
8310.0 1.0587e-05
8330.0 7.1356e-06
8350.0 5.0641e-06
8370.0 3.1906e-06
8390.0 5.8323e-06
8410.0 6.7962e-06
8430.0 8.3774e-06
8450.0 9.8374e-06
8470.0 1.2227e-05
8490.0 1.2141e-05
8510.0 1.1943e-05
8530.0 1.2464e-05
8550.0 1.6816e-05
8570.0 1.9908e-05
8590.0 2.148e-05
8610.0 2.7134e-05
8630.0 3.2687e-05
8650.0 3.4194e-05
8670.0 3.6338e-05
8690.0 3.6542e-05
8710.0 3.3094e-05
8730.0 3.0782e-05
8750.0 2.7171e-05
8770.0 2.5781e-05
8790.0 2.5329e-05
8810.0 2.4271e-05
8830.0 1.9408e-05
8850.0 1.4208e-05
8870.0 1.0879e-05
8890.0 1.0636e-05
8910.0 1.2189e-05
8930.0 1.3864e-05
8950.0 1.413e-05
8970.0 1.4196e-05
8990.0 1.2661e-05
9010.0 0.00013269
9030.0 0.00012023
9050.0 0.00012081
9070.0 0.00012176
9090.0 0.0001226
9110.0 0.00012363
9130.0 0.00012443
9150.0 0.00012505
9170.0 0.00012571
9190.0 0.00012641
9210.0 0.00012716
9230.0 0.00012794
9250.0 0.00012874
9270.0 0.00012956
9290.0 0.00013041
9310.0 0.00013127
9330.0 0.00013214
9350.0 0.00013305
9370.0 0.00013397
9390.0 0.00013489
9410.0 0.00013584
9430.0 0.00013682
9450.0 0.0001378
9470.0 0.0001388
9490.0 0.00013983
9510.0 0.00014086
9530.0 0.00014191
9550.0 0.00014299
9570.0 0.00014409
9590.0 0.00014519
9610.0 0.00014631
9630.0 0.00014746
9650.0 0.00014862
9670.0 0.00014978
9690.0 0.00015098
9710.0 0.00015219
9730.0 0.0001534
9750.0 0.00015464
9770.0 0.00015591
9790.0 0.00015717
9810.0 0.00015845
9830.0 0.00015975
9850.0 0.00016106
9870.0 0.00016238
9890.0 0.00016371
9910.0 0.00016507
9930.0 0.00016643
9950.0 0.00016779
9970.0 0.00016919
9990.0 0.00017059
10010.0 0.00014803
10030.0 0.00014924
10050.0 0.00015049
10070.0 0.00015177
10090.0 0.00015298
10110.0 0.00015421
10130.0 0.00015546
10150.0 0.0001567
10170.0 0.00015795
10190.0 0.00015923
10210.0 0.00016049
10230.0 0.00016175
10250.0 0.00016303
10270.0 0.0001643
10290.0 0.00016556
10310.0 0.00016684
10330.0 0.00016813
10350.0 0.0001694
10370.0 0.00017066
10390.0 0.00017194
10410.0 0.00017321
10430.0 0.00017446
10450.0 0.00017572
10470.0 0.00017698
10490.0 0.00017822
10510.0 0.00017946
10530.0 0.00018071
10550.0 0.00018194
10570.0 0.00018315
10590.0 0.00018436
10610.0 0.00018558
10630.0 0.00018676
10650.0 0.00018793
10670.0 0.00018912
10690.0 0.00019028
10710.0 0.00019141
10730.0 0.00019255
10750.0 0.00019369
10770.0 0.00019479
10790.0 0.00019587
10810.0 0.00019696
10830.0 0.00019801
10850.0 0.00019901
10870.0 0.00019997
10890.0 0.00020082
10910.0 0.00020148
10930.0 0.00020185
10950.0 0.00020176
10970.0 0.00020108
10990.0 0.00019974
11010.0 0.00019749
11030.0 0.00019435
11050.0 0.00019052
11070.0 0.00018595
11090.0 0.00018044
11110.0 0.00017475
11130.0 0.00016882
11150.0 0.00016243
11170.0 0.00015584
11190.0 0.00014945
11210.0 0.00014285
11230.0 0.00013608
11250.0 0.00012961
11270.0 0.00012341
11290.0 0.00011718
11310.0 0.00011129
11330.0 0.0001061
11350.0 0.0001012
11370.0 9.6667e-05
11390.0 9.2747e-05
11410.0 8.9318e-05
11430.0 8.6132e-05
11450.0 8.3386e-05
11470.0 8.1012e-05
11490.0 7.8803e-05
11510.0 7.6675e-05
11530.0 7.47e-05
11550.0 7.2738e-05
11570.0 7.0644e-05
11590.0 6.8476e-05
11610.0 6.627e-05
11630.0 6.3869e-05
11650.0 6.1298e-05
11670.0 5.8764e-05
11690.0 5.6194e-05
11710.0 5.3543e-05
11730.0 5.0975e-05
11750.0 4.8597e-05
11770.0 4.6266e-05
11790.0 4.4081e-05
11810.0 4.2158e-05
11830.0 4.0438e-05
11850.0 3.8853e-05
11870.0 3.7528e-05
11890.0 3.6426e-05
11910.0 3.5458e-05
11930.0 3.4626e-05
11950.0 3.3933e-05
11970.0 3.3314e-05
11990.0 3.2729e-05
12010.0 3.2187e-05
12030.0 3.1666e-05
12050.0 3.1126e-05
12070.0 3.0565e-05
12090.0 3.0025e-05
12110.0 2.9476e-05
12130.0 2.8925e-05
12150.0 2.8418e-05
12170.0 2.7976e-05
12190.0 2.7593e-05
12210.0 2.7326e-05
12230.0 2.7196e-05
12250.0 2.7217e-05
12270.0 2.7422e-05
12290.0 2.781e-05
12310.0 2.8367e-05
12330.0 2.9146e-05
12350.0 3.0117e-05
12370.0 3.1224e-05
12390.0 3.2499e-05
12410.0 3.3994e-05
12430.0 3.5513e-05
12450.0 3.7086e-05
12470.0 3.8759e-05
12490.0 4.0439e-05
12510.0 4.2015e-05
12530.0 4.3583e-05
12550.0 4.5096e-05
12570.0 4.6431e-05
12590.0 4.7603e-05
12610.0 4.8648e-05
12630.0 4.9481e-05
12650.0 5.0055e-05
12670.0 5.0433e-05
12690.0 5.0584e-05
12710.0 5.0501e-05
12730.0 5.0208e-05
12750.0 4.9686e-05
12770.0 4.8969e-05
12790.0 4.81e-05
12810.0 4.7062e-05
12830.0 4.5861e-05
12850.0 4.4606e-05
12870.0 4.3278e-05
12890.0 4.1841e-05
12910.0 4.0381e-05
12930.0 3.8941e-05
12950.0 3.7439e-05
12970.0 3.591e-05
12990.0 3.4464e-05
13010.0 3.3035e-05
13030.0 3.1591e-05
13050.0 3.0203e-05
13070.0 2.8904e-05
13090.0 2.76e-05
13110.0 2.6338e-05
13130.0 2.5174e-05
13150.0 2.4073e-05
13170.0 2.2994e-05
13190.0 2.2034e-05
13210.0 2.1189e-05
13230.0 2.0417e-05
13250.0 1.9752e-05
13270.0 1.9228e-05
13290.0 1.882e-05
13310.0 1.8539e-05
13330.0 1.8411e-05
13350.0 1.8425e-05
13370.0 1.8591e-05
13390.0 1.8915e-05
13410.0 1.9354e-05
13430.0 1.9924e-05
13450.0 2.0629e-05
13470.0 2.1411e-05
13490.0 2.2239e-05
13510.0 2.3174e-05
13530.0 2.4121e-05
13550.0 2.5027e-05
13570.0 2.5921e-05
13590.0 2.6792e-05
13610.0 2.7567e-05
13630.0 2.8243e-05
13650.0 2.8861e-05
13670.0 2.9374e-05
13690.0 2.977e-05
13710.0 3.0077e-05
13730.0 3.0296e-05
13750.0 3.0405e-05
13770.0 3.043e-05
13790.0 3.0375e-05
13810.0 3.0241e-05
13830.0 3.0043e-05
13850.0 2.9774e-05
13870.0 2.9436e-05
13890.0 2.9049e-05
13910.0 2.8612e-05
13930.0 2.8107e-05
13950.0 2.7556e-05
13970.0 2.6992e-05
13990.0 2.6378e-05
14010.0 2.5725e-05
14030.0 2.5074e-05
14050.0 2.4417e-05
14070.0 2.3725e-05
14090.0 2.3061e-05
14110.0 2.2437e-05
14130.0 2.1832e-05
14150.0 2.1263e-05
14170.0 2.0777e-05
14190.0 2.0356e-05
14210.0 2e-05
14230.0 1.9736e-05
14250.0 1.9566e-05
14270.0 1.9483e-05
14290.0 1.9501e-05
14310.0 1.9609e-05
14330.0 1.9804e-05
14350.0 2.0092e-05
14370.0 2.0449e-05
14390.0 2.0856e-05
14410.0 2.1335e-05
14430.0 2.186e-05
14450.0 2.2397e-05
14470.0 2.2954e-05
14490.0 2.3546e-05
14510.0 2.4113e-05
14530.0 2.465e-05
14550.0 2.5188e-05
14570.0 2.5704e-05
14590.0 2.6174e-05
14610.0 2.6629e-05
14630.0 2.7078e-05
14650.0 2.7497e-05
14670.0 2.7902e-05
14690.0 2.8324e-05
14710.0 2.8767e-05
14730.0 2.921e-05
14750.0 2.9702e-05
14770.0 3.0259e-05
14790.0 3.0863e-05
14810.0 3.1518e-05
14830.0 3.2293e-05
14850.0 3.3136e-05
14870.0 3.4016e-05
14890.0 3.4965e-05
14910.0 3.5972e-05
14930.0 3.6941e-05
14950.0 3.7847e-05
14970.0 3.8704e-05
14990.0 3.9423e-05
15010.0 3.9973e-05
15030.0 4.038e-05
15050.0 4.0649e-05
15070.0 4.078e-05
15090.0 4.0827e-05
15110.0 4.0813e-05
15130.0 4.0762e-05
15150.0 4.0693e-05
15170.0 4.0611e-05
15190.0 4.0524e-05
15210.0 4.0438e-05
15230.0 4.0352e-05
15250.0 4.0263e-05
15270.0 4.0175e-05
15290.0 4.0091e-05
15310.0 4.0006e-05
15330.0 3.9919e-05
15350.0 3.9836e-05
15370.0 3.9753e-05
15390.0 3.9666e-05
15410.0 3.9583e-05
15430.0 3.9501e-05
15450.0 3.9418e-05
15470.0 3.9334e-05
15490.0 3.9254e-05
15510.0 3.9174e-05
15530.0 3.9091e-05
15550.0 3.901e-05
15570.0 3.8932e-05
15590.0 3.885e-05
15610.0 3.8768e-05
15630.0 3.869e-05
15650.0 3.8611e-05
15670.0 3.8531e-05
15690.0 3.8452e-05
15710.0 3.8376e-05
15730.0 3.8296e-05
15750.0 3.8217e-05
15770.0 3.814e-05
15790.0 3.8064e-05
15810.0 3.7983e-05
15830.0 3.7906e-05
15850.0 3.7831e-05
15870.0 3.7753e-05
15890.0 3.7675e-05
15910.0 3.76e-05
15930.0 3.7524e-05
15950.0 3.7445e-05
15970.0 3.7369e-05
15990.0 3.7294e-05
16010.0 3.7217e-05
16030.0 3.7138e-05
16050.0 3.7065e-05
16070.0 3.6989e-05
16090.0 3.6912e-05
16110.0 3.6837e-05
16130.0 3.6763e-05
16150.0 3.6684e-05
16170.0 3.6607e-05
16190.0 3.6533e-05
16210.0 3.6458e-05
16230.0 3.638e-05
16250.0 3.6305e-05
16270.0 3.6231e-05
16290.0 3.6154e-05
16310.0 3.6077e-05
16330.0 3.6003e-05
16350.0 3.5927e-05
16370.0 3.5847e-05
16390.0 3.5773e-05
16410.0 3.5698e-05
16430.0 3.562e-05
16450.0 3.5543e-05
16470.0 3.547e-05
16490.0 3.5393e-05
16510.0 3.5314e-05
16530.0 3.5238e-05
16550.0 3.5163e-05
16570.0 3.5083e-05
16590.0 3.5005e-05
16610.0 3.493e-05
16630.0 3.4853e-05
16650.0 3.4774e-05
16670.0 3.4698e-05
16690.0 3.4622e-05
16710.0 3.454e-05
16730.0 3.4462e-05
16750.0 3.4386e-05
16770.0 3.4307e-05
16790.0 3.4226e-05
16810.0 3.4149e-05
16830.0 3.4071e-05
16850.0 3.3991e-05
16870.0 3.3911e-05
16890.0 3.3834e-05
16910.0 3.3753e-05
16930.0 3.367e-05
16950.0 3.3592e-05
16970.0 3.3513e-05
16990.0 3.3431e-05
17010.0 3.335e-05
17030.0 3.3272e-05
17050.0 3.319e-05
17070.0 3.3107e-05
17090.0 3.3027e-05
17110.0 3.2946e-05
17130.0 3.2861e-05
17150.0 3.278e-05
17170.0 3.27e-05
17190.0 3.2616e-05
17210.0 3.2532e-05
17230.0 3.2452e-05
17250.0 3.2369e-05
17270.0 3.2283e-05
17290.0 3.22e-05
17310.0 3.2118e-05
17330.0 3.2032e-05
17350.0 3.1946e-05
17370.0 3.1865e-05
17390.0 3.178e-05
17410.0 3.1694e-05
17430.0 3.161e-05
17450.0 3.1527e-05
17470.0 3.1438e-05
17490.0 3.1352e-05
17510.0 3.1268e-05
17530.0 3.1182e-05
17550.0 3.1093e-05
17570.0 3.1008e-05
17590.0 3.0923e-05
17610.0 3.0835e-05
17630.0 3.0747e-05
17650.0 3.0662e-05
17670.0 3.0574e-05
17690.0 3.0482e-05
17710.0 3.0397e-05
17730.0 3.031e-05
17750.0 3.022e-05
17770.0 3.0131e-05
17790.0 3.0046e-05
17810.0 2.9956e-05
17830.0 2.9865e-05
17850.0 2.9777e-05
17870.0 2.9689e-05
17890.0 2.9596e-05
17910.0 2.9506e-05
17930.0 2.9419e-05
17950.0 2.9328e-05
17970.0 2.9237e-05
17990.0 2.9148e-05
18010.0 2.9059e-05
18030.0 2.8965e-05
18050.0 2.8874e-05
18070.0 2.8785e-05
18090.0 2.8693e-05
18110.0 2.8599e-05
18130.0 2.851e-05
18150.0 2.842e-05
18170.0 2.8326e-05
18190.0 2.8234e-05
18210.0 2.8145e-05
18230.0 2.8051e-05
18250.0 2.7956e-05
18270.0 2.7866e-05
18290.0 2.7774e-05
18310.0 2.7679e-05
18330.0 2.7587e-05
18350.0 2.7497e-05
18370.0 2.7402e-05
18390.0 2.7308e-05
18410.0 2.7216e-05
18430.0 2.7123e-05
18450.0 2.7027e-05
18470.0 2.6934e-05
18490.0 2.6842e-05
18510.0 2.6748e-05
18530.0 2.6653e-05
18550.0 2.6562e-05
18570.0 2.6468e-05
18590.0 2.6371e-05
18610.0 2.6278e-05
18630.0 2.6185e-05
18650.0 2.6089e-05
18670.0 2.5993e-05
18690.0 2.5902e-05
18710.0 2.5808e-05
18730.0 2.5711e-05
18750.0 2.5618e-05
18770.0 2.5526e-05
18790.0 2.5428e-05
18810.0 2.5332e-05
18830.0 2.5239e-05
18850.0 2.5145e-05
18870.0 2.5048e-05
18890.0 2.4954e-05
18910.0 2.4861e-05
18930.0 2.4765e-05
18950.0 2.4669e-05
18970.0 2.4576e-05
18990.0 2.4481e-05
19010.0 2.4382e-05
19030.0 2.4289e-05
19050.0 2.4196e-05
19070.0 2.4099e-05
19090.0 2.4004e-05
19110.0 2.3912e-05
19130.0 2.3815e-05
19150.0 2.3718e-05
19170.0 2.3625e-05
19190.0 2.353e-05
19210.0 2.3433e-05
19230.0 2.3337e-05
19250.0 2.3245e-05
19270.0 2.3149e-05
19290.0 2.3053e-05
19310.0 2.296e-05
19330.0 2.2866e-05
19350.0 2.2768e-05
19370.0 2.2673e-05
19390.0 2.258e-05
19410.0 2.2484e-05
19430.0 2.2387e-05
19450.0 2.2295e-05
19470.0 2.2201e-05
19490.0 2.2104e-05
19510.0 2.2009e-05
19530.0 2.1917e-05
19550.0 2.182e-05
19570.0 2.1723e-05
19590.0 2.1631e-05
19610.0 2.1537e-05
19630.0 2.144e-05
19650.0 2.1346e-05
19670.0 2.1254e-05
19690.0 2.1158e-05
19710.0 2.1063e-05
19730.0 2.097e-05
19750.0 2.0876e-05
19770.0 2.0778e-05
19790.0 2.0685e-05
19810.0 2.0593e-05
19830.0 2.0497e-05
19850.0 2.0401e-05
19870.0 2.0306e-05
19890.0 2.0205e-05
19910.0 2.0093e-05
19930.0 1.9974e-05
19950.0 1.9838e-05
19970.0 1.967e-05
19990.0 1.9468e-05
20010.0 1.732e-05
20030.0 1.707e-05
20050.0 1.6776e-05
20070.0 1.6458e-05
20090.0 1.6116e-05
20110.0 1.573e-05
20130.0 1.5338e-05
20150.0 1.495e-05
20170.0 1.4548e-05
20190.0 1.414e-05
20210.0 1.3754e-05
20230.0 1.3378e-05
20250.0 1.3001e-05
20270.0 1.2652e-05
20290.0 1.2332e-05
20310.0 1.2029e-05
20330.0 1.1746e-05
20350.0 1.151e-05
20370.0 1.1301e-05
20390.0 1.1118e-05
20410.0 1.097e-05
20430.0 1.0856e-05
20450.0 1.0766e-05
20470.0 1.0705e-05
20490.0 1.0673e-05
20510.0 1.0663e-05
20530.0 1.0677e-05
20550.0 1.0709e-05
20570.0 1.0757e-05
20590.0 1.0822e-05
20610.0 1.0901e-05
20630.0 1.0988e-05
20650.0 1.1085e-05
20670.0 1.1195e-05
20690.0 1.1308e-05
20710.0 1.1425e-05
20730.0 1.1551e-05
20750.0 1.1682e-05
20770.0 1.1811e-05
20790.0 1.1947e-05
20810.0 1.2091e-05
20830.0 1.2234e-05
20850.0 1.2377e-05
20870.0 1.2531e-05
20890.0 1.2688e-05
20910.0 1.2839e-05
20930.0 1.2996e-05
20950.0 1.3158e-05
20970.0 1.3317e-05
20990.0 1.3473e-05
21010.0 1.3637e-05
21030.0 1.3798e-05
21050.0 1.3951e-05
21070.0 1.4104e-05
21090.0 1.4258e-05
21110.0 1.4398e-05
21130.0 1.453e-05
21150.0 1.4657e-05
21170.0 1.4773e-05
21190.0 1.4872e-05
21210.0 1.4961e-05
21230.0 1.5035e-05
21250.0 1.5088e-05
21270.0 1.5122e-05
21290.0 1.5135e-05
21310.0 1.5122e-05
21330.0 1.5087e-05
21350.0 1.5024e-05
21370.0 1.4932e-05
21390.0 1.4815e-05
21410.0 1.4672e-05
21430.0 1.4491e-05
21450.0 1.4287e-05
21470.0 1.4066e-05
21490.0 1.3815e-05
21510.0 1.354e-05
21530.0 1.326e-05
21550.0 1.2968e-05
21570.0 1.2655e-05
21590.0 1.2348e-05
21610.0 1.2052e-05
21630.0 1.1755e-05
21650.0 1.1465e-05
21670.0 1.1213e-05
21690.0 1.0981e-05
21710.0 1.0772e-05
21730.0 1.0601e-05
21750.0 1.0469e-05
21770.0 1.0369e-05
21790.0 1.0311e-05
21810.0 1.0295e-05
21830.0 1.0318e-05
21850.0 1.0382e-05
21870.0 1.0483e-05
21890.0 1.0613e-05
21910.0 1.0779e-05
21930.0 1.0975e-05
21950.0 1.1186e-05
21970.0 1.1421e-05
21990.0 1.1684e-05
22010.0 1.1947e-05
22030.0 1.2215e-05
22050.0 1.2495e-05
22070.0 1.2777e-05
22090.0 1.3045e-05
22110.0 1.3314e-05
22130.0 1.3583e-05
22150.0 1.3834e-05
22170.0 1.4071e-05
22190.0 1.4306e-05
22210.0 1.4524e-05
22230.0 1.4716e-05
22250.0 1.4897e-05
22270.0 1.5064e-05
22290.0 1.5206e-05
22310.0 1.5328e-05
22330.0 1.5436e-05
22350.0 1.5519e-05
22370.0 1.5578e-05
22390.0 1.5615e-05
22410.0 1.5626e-05
22430.0 1.5611e-05
22450.0 1.5571e-05
22470.0 1.5502e-05
22490.0 1.5404e-05
22510.0 1.5282e-05
22530.0 1.5127e-05
22550.0 1.4937e-05
22570.0 1.4727e-05
22590.0 1.449e-05
22610.0 1.4218e-05
22630.0 1.3923e-05
