#lamb flux
1010.0 1.0511e-06
1030.0 1.1505e-06
1050.0 1.2534e-06
1070.0 1.3693e-06
1090.0 1.5042e-06
1110.0 1.642e-06
1130.0 1.7803e-06
1150.0 1.9251e-06
1170.0 2.0746e-06
1190.0 2.2173e-06
1210.0 2.3632e-06
1230.0 2.5156e-06
1250.0 2.6666e-06
1270.0 2.8161e-06
1290.0 2.9766e-06
1310.0 3.1403e-06
1330.0 3.3008e-06
1350.0 3.4658e-06
1370.0 3.6381e-06
1390.0 3.8085e-06
1410.0 3.9756e-06
1430.0 4.1501e-06
1450.0 4.3245e-06
1470.0 4.4927e-06
1490.0 4.6611e-06
1510.0 4.8359e-06
1530.0 4.9994e-06
1550.0 5.1575e-06
1570.0 5.317e-06
1590.0 5.4725e-06
1610.0 5.6161e-06
1630.0 5.7583e-06
1650.0 5.8994e-06
1670.0 6.0299e-06
1690.0 6.1533e-06
1710.0 6.2773e-06
1730.0 6.3972e-06
1750.0 6.5034e-06
1770.0 6.61e-06
1790.0 6.7164e-06
1810.0 6.8155e-06
1830.0 6.9108e-06
1850.0 7.0145e-06
1870.0 7.1149e-06
1890.0 7.2124e-06
1910.0 7.3158e-06
1930.0 7.4267e-06
1950.0 7.5359e-06
1970.0 7.6493e-06
1990.0 7.7741e-06
2010.0 7.903e-06
2030.0 8.0336e-06
2050.0 8.1745e-06
2070.0 8.3248e-06
2090.0 8.4719e-06
2110.0 8.6227e-06
2130.0 8.7804e-06
2150.0 8.9372e-06
2170.0 9.0883e-06
2190.0 9.2434e-06
2210.0 9.3971e-06
2230.0 9.5416e-06
2250.0 9.6808e-06
2270.0 9.8205e-06
2290.0 9.9493e-06
2310.0 1.0065e-05
2330.0 1.0178e-05
2350.0 1.0283e-05
2370.0 1.0374e-05
2390.0 1.0459e-05
2410.0 1.0541e-05
2430.0 1.0612e-05
2450.0 1.0671e-05
2470.0 1.0726e-05
2490.0 1.0779e-05
2510.0 1.0825e-05
2530.0 1.0894e-05
2550.0 1.1027e-05
2570.0 1.127e-05
2590.0 1.1682e-05
2610.0 1.2406e-05
2630.0 1.3487e-05
2650.0 1.4874e-05
2670.0 1.6589e-05
2690.0 1.8565e-05
2710.0 2.05e-05
2730.0 2.2212e-05
2750.0 2.3648e-05
2770.0 2.4557e-05
2790.0 2.4866e-05
2810.0 2.4617e-05
2830.0 2.3797e-05
2850.0 2.2571e-05
2870.0 2.1052e-05
2890.0 1.9265e-05
2910.0 1.7334e-05
2930.0 1.5392e-05
2950.0 1.3335e-05
2970.0 1.1198e-05
2990.0 9.0972e-06
3010.0 1.1056e-05
3030.0 7.5818e-06
3050.0 4.0896e-06
3070.0 1.2228e-06
3090.0 1.2228e-06
3110.0 1.2228e-06
3130.0 1.2228e-06
3150.0 1.2228e-06
3170.0 1.2228e-06
3190.0 1.2228e-06
3210.0 3.8605e-05
3230.0 0.00010738
3250.0 0.00014609
3270.0 0.00012819
3290.0 9.7166e-05
3310.0 7.6973e-05
3330.0 7.1802e-05
3350.0 7.5314e-05
3370.0 8.1476e-05
3390.0 8.792e-05
3410.0 9.4672e-05
3430.0 0.00010292
3450.0 0.00011081
3470.0 0.000119
3490.0 0.00012052
3510.0 0.00010512
3530.0 9.842e-05
3550.0 0.00012586
3570.0 0.00016028
3590.0 0.00017838
3610.0 0.00018467
3630.0 0.00019577
3650.0 0.00019595
3670.0 0.00020417
3690.0 0.00024013
3710.0 0.00027911
3730.0 0.00030472
3750.0 0.00032053
3770.0 0.00032563
3790.0 0.00031579
3810.0 0.00029277
3830.0 0.00025629
3850.0 0.00020165
3870.0 0.00017929
3890.0 0.00020196
3910.0 0.00026754
3930.0 0.00033442
3950.0 0.00036561
3970.0 0.00037843
3990.0 0.0004081
4010.0 0.00042197
4030.0 0.00038151
4050.0 0.00028762
4070.0 0.00024334
4090.0 0.00027251
4110.0 0.00030251
4130.0 0.0003231
4150.0 0.00032329
4170.0 0.00031085
4190.0 0.00029692
4210.0 0.00031614
4230.0 0.00033953
4250.0 0.00035984
4270.0 0.0003608
4290.0 0.00034945
4310.0 0.00035115
4330.0 0.00038601
4350.0 0.00042493
4370.0 0.00043047
4390.0 0.00040142
4410.0 0.00035685
4430.0 0.00028922
4450.0 0.00023892
4470.0 0.00023783
4490.0 0.00026394
4510.0 0.00028764
4530.0 0.00030241
4550.0 0.00032619
4570.0 0.0004241
4590.0 0.00058278
4610.0 0.00069251
4630.0 0.00073561
4650.0 0.00079995
4670.0 0.00089077
4690.0 0.00090673
4710.0 0.00078552
4730.0 0.00061636
4750.0 0.00048379
4770.0 0.00040695
4790.0 0.00037087
4810.0 0.00036035
4830.0 0.00039159
4850.0 0.00046162
4870.0 0.00051553
4890.0 0.00052882
4910.0 0.00053138
4930.0 0.00058721
4950.0 0.00067672
4970.0 0.0007347
4990.0 0.00072931
5010.0 0.00065695
5030.0 0.00054378
5050.0 0.00044093
5070.0 0.00037658
5090.0 0.00035226
5110.0 0.00035262
5130.0 0.00035725
5150.0 0.00035273
5170.0 0.00033573
5190.0 0.00032782
5210.0 0.00034464
5230.0 0.00039449
5250.0 0.00047666
5270.0 0.00056445
5290.0 0.00062547
5310.0 0.0006769
5330.0 0.00075089
5350.0 0.00081651
5370.0 0.00081999
5390.0 0.00076604
5410.0 0.00071735
5430.0 0.00073697
5450.0 0.00084944
5470.0 0.0010008
5490.0 0.001119
5510.0 0.0011705
5530.0 0.0011682
5550.0 0.0011377
5570.0 0.001102
5590.0 0.0010676
5610.0 0.0010486
5630.0 0.0010544
5650.0 0.0010584
5670.0 0.0010132
5690.0 0.00091929
5710.0 0.00082303
5730.0 0.00076261
5750.0 0.00074972
5770.0 0.00077905
5790.0 0.00081151
5810.0 0.00083292
5830.0 0.00084475
5850.0 0.00083212
5870.0 0.0008119
5890.0 0.00081717
5910.0 0.00084848
5930.0 0.00086126
5950.0 0.00081816
5970.0 0.00072844
5990.0 0.00061414
6010.0 0.00052265
6030.0 0.00049764
6050.0 0.00053439
6070.0 0.00056147
6090.0 0.00053163
6110.0 0.0004879
6130.0 0.00050161
6150.0 0.00056099
6170.0 0.0006157
6190.0 0.00064903
6210.0 0.00066087
6230.0 0.00064868
6250.0 0.0005899
6270.0 0.00049742
6290.0 0.00042005
6310.0 0.00038797
6330.0 0.00039236
6350.0 0.00040578
6370.0 0.00042766
6390.0 0.00048966
6410.0 0.00059003
6430.0 0.00067913
6450.0 0.00072413
6470.0 0.00074405
6490.0 0.00075534
6510.0 0.00076202
6530.0 0.00076859
6550.0 0.00077715
6570.0 0.00079673
6590.0 0.00081422
6610.0 0.00081208
6630.0 0.00077768
6650.0 0.00071918
6670.0 0.00066261
6690.0 0.00062454
6710.0 0.00059784
6730.0 0.00057298
6750.0 0.00056344
6770.0 0.00057838
6790.0 0.00059995
6810.0 0.00060981
6830.0 0.00060033
6850.0 0.00057142
6870.0 0.00054117
6890.0 0.00052782
6910.0 0.00052757
6930.0 0.00054045
6950.0 0.00055446
6970.0 0.00056522
6990.0 0.00056735
7010.0 0.00054884
7030.0 0.00050739
7050.0 0.00045497
7070.0 0.00041933
7090.0 0.00041195
7110.0 0.00041556
7130.0 0.00039629
7150.0 0.00035818
7170.0 0.00034968
7190.0 0.00038651
7210.0 0.00044294
7230.0 0.0004913
7250.0 0.00050915
7270.0 0.00049746
7290.0 0.00046724
7310.0 0.00044215
7330.0 0.00043794
7350.0 0.00044549
7370.0 0.00045317
7390.0 0.00047501
7410.0 0.00052175
7430.0 0.00058062
7450.0 0.00062969
7470.0 0.00064653
7490.0 0.00061684
7510.0 0.00056825
7530.0 0.00052964
7550.0 0.00049339
7570.0 0.0004552
7590.0 0.00043433
7610.0 0.00043326
7630.0 0.00044999
7650.0 0.00048231
7670.0 0.00052197
7690.0 0.00055566
7710.0 0.00058042
7730.0 0.00060111
7750.0 0.00061685
7770.0 0.00061707
7790.0 0.00062041
7810.0 0.00061789
7830.0 0.00059642
7850.0 0.00057185
7870.0 0.00055695
7890.0 0.00055763
7910.0 0.00055389
7930.0 0.00053808
7950.0 0.00051424
7970.0 0.00049268
7990.0 0.00047218
8010.0 0.00045301
8030.0 0.00045215
8050.0 0.00044963
8070.0 0.00044115
8090.0 0.00043466
8110.0 0.00042341
8130.0 0.00042134
8150.0 0.00041557
8170.0 0.00040511
8190.0 0.00039218
8210.0 0.00038043
8230.0 0.00036814
8250.0 0.00036241
8270.0 0.00033684
8290.0 0.00028565
8310.0 0.00022877
8330.0 0.00018995
8350.0 0.00018051
8370.0 0.000204
8390.0 0.00023631
8410.0 0.00025114
8430.0 0.00025749
8450.0 0.0002727
8470.0 0.00029338
8490.0 0.00032394
8510.0 0.00036072
8530.0 0.00039996
8550.0 0.00043131
8570.0 0.00045415
8590.0 0.00047058
8610.0 0.00047815
8630.0 0.00047402
8650.0 0.00046438
8670.0 0.0004629
8690.0 0.00048569
8710.0 0.00051723
8730.0 0.00053257
8750.0 0.00052753
8770.0 0.00053192
8790.0 0.00052974
8810.0 0.00050178
8830.0 0.00046484
8850.0 0.00041887
8870.0 0.00038324
8890.0 0.00037164
8910.0 0.00036595
8930.0 0.00034212
8950.0 0.0003153
8970.0 0.00030346
8990.0 0.00030229
9010.0 0.00029443
9030.0 0.00028863
9050.0 0.00028593
9070.0 0.00028458
9090.0 0.00028341
9110.0 0.00028228
9130.0 0.00028115
9150.0 0.00028005
9170.0 0.00027889
9190.0 0.000278
9210.0 0.00027765
9230.0 0.00027626
9250.0 0.00027503
9270.0 0.00027391
9290.0 0.00027285
9310.0 0.00027182
9330.0 0.00027082
9350.0 0.00026988
9370.0 0.00026895
9390.0 0.00026801
9410.0 0.0002671
9430.0 0.00026615
9450.0 0.00026483
9470.0 0.00026365
9490.0 0.00026318
9510.0 0.00026251
9530.0 0.0002618
9550.0 0.00026105
9570.0 0.00026027
9590.0 0.00025949
9610.0 0.00025871
9630.0 0.00025792
9650.0 0.00025714
9670.0 0.00025639
9690.0 0.00025562
9710.0 0.00025486
9730.0 0.00025412
9750.0 0.00025338
9770.0 0.00025262
9790.0 0.00025188
9810.0 0.00025116
9830.0 0.00025042
9850.0 0.00024968
9870.0 0.00024896
9890.0 0.00024823
9910.0 0.00024749
9930.0 0.00024674
9950.0 0.00024482
9970.0 0.00024443
9990.0 0.00024396
10010.0 0.00024348
10030.0 0.00024288
10050.0 0.00024218
10070.0 0.00024148
10090.0 0.00024078
10110.0 0.00023994
10130.0 0.00023897
10150.0 0.00023823
10170.0 0.00023748
10190.0 0.00023663
10210.0 0.00023584
10230.0 0.00023506
10250.0 0.00023417
10270.0 0.00023328
10290.0 0.00023244
10310.0 0.00023152
10330.0 0.00023052
10350.0 0.00022959
10370.0 0.00022866
10390.0 0.00022763
10410.0 0.00022659
10430.0 0.00022563
10450.0 0.00022457
10470.0 0.00022345
10490.0 0.00022238
10510.0 0.0002213
10530.0 0.00022007
10550.0 0.00021888
10570.0 0.00021773
10590.0 0.0002165
10610.0 0.0002152
10630.0 0.00021397
10650.0 0.0002127
10670.0 0.0002113
10690.0 0.00020992
10710.0 0.00020857
10730.0 0.00020713
10750.0 0.00020558
10770.0 0.00020416
10790.0 0.00020267
10810.0 0.00020107
10830.0 0.0001995
10850.0 0.00019796
10870.0 0.00019625
10890.0 0.00019452
10910.0 0.00019284
10930.0 0.00019109
10950.0 0.00018921
10970.0 0.00018735
10990.0 0.00018553
11010.0 0.00020079
11030.0 0.00019873
11050.0 0.00019675
11070.0 0.00019471
11090.0 0.00019253
11110.0 0.00019049
11130.0 0.0001885
11150.0 0.00018642
11170.0 0.00018436
11190.0 0.00018241
11210.0 0.00018041
11230.0 0.00017836
11250.0 0.00017641
11270.0 0.00017451
11290.0 0.00017253
11310.0 0.00017058
11330.0 0.00016878
11350.0 0.00016693
11370.0 0.00016505
11390.0 0.00016322
11410.0 0.0001614
11430.0 0.00015941
11450.0 0.00015739
11470.0 0.00015536
11490.0 0.00015317
11510.0 0.00015079
11530.0 0.0001484
11550.0 0.0001459
11570.0 0.00014319
11590.0 0.00014039
11610.0 0.0001376
11630.0 0.00013463
11650.0 0.00013154
11670.0 0.00012855
11690.0 0.00012556
11710.0 0.00012248
11730.0 0.00011947
11750.0 0.0001166
11770.0 0.00011368
11790.0 0.00011078
11810.0 0.00010802
11830.0 0.00010532
11850.0 0.00010256
11870.0 9.9927e-05
11890.0 9.7431e-05
11910.0 9.4924e-05
11930.0 9.2456e-05
11950.0 9.014e-05
11970.0 8.7875e-05
11990.0 8.5607e-05
12010.0 8.348e-05
12030.0 8.1483e-05
12050.0 7.9536e-05
12070.0 7.767e-05
12090.0 7.6016e-05
12110.0 7.4464e-05
12130.0 7.3016e-05
12150.0 7.1741e-05
12170.0 7.0639e-05
12190.0 6.9652e-05
12210.0 6.8847e-05
12230.0 6.8226e-05
12250.0 6.7766e-05
12270.0 6.7479e-05
12290.0 6.7357e-05
12310.0 6.7374e-05
12330.0 6.7553e-05
12350.0 6.7867e-05
12370.0 6.827e-05
12390.0 6.8779e-05
12410.0 6.9424e-05
12430.0 7.0076e-05
12450.0 7.0758e-05
12470.0 7.1502e-05
12490.0 7.2254e-05
12510.0 7.2945e-05
12530.0 7.3644e-05
12550.0 7.4326e-05
12570.0 7.4911e-05
12590.0 7.5409e-05
12610.0 7.585e-05
12630.0 7.6173e-05
12650.0 7.6332e-05
12670.0 7.6376e-05
12690.0 7.6279e-05
12710.0 7.6019e-05
12730.0 7.561e-05
12750.0 7.5047e-05
12770.0 7.4333e-05
12790.0 7.3494e-05
12810.0 7.2526e-05
12830.0 7.1434e-05
12850.0 7.0286e-05
12870.0 6.908e-05
12890.0 6.7799e-05
12910.0 6.6503e-05
12930.0 6.5228e-05
12950.0 6.3926e-05
12970.0 6.2625e-05
12990.0 6.1395e-05
13010.0 6.0198e-05
13030.0 5.9012e-05
13050.0 5.7878e-05
13070.0 5.681e-05
13090.0 5.575e-05
13110.0 5.472e-05
13130.0 5.3747e-05
13150.0 5.2804e-05
13170.0 5.1859e-05
13190.0 5.0966e-05
13210.0 5.0118e-05
13230.0 4.928e-05
13250.0 4.8466e-05
13270.0 4.7703e-05
13290.0 4.6963e-05
13310.0 4.6238e-05
13330.0 4.556e-05
13350.0 4.4926e-05
13370.0 4.4317e-05
13390.0 4.3742e-05
13410.0 4.3225e-05
13430.0 4.274e-05
13450.0 4.2283e-05
13470.0 4.1865e-05
13490.0 4.148e-05
13510.0 4.1107e-05
13530.0 4.0754e-05
13550.0 4.0417e-05
13570.0 4.0084e-05
13590.0 3.9745e-05
13610.0 3.9406e-05
13630.0 3.9064e-05
13650.0 3.8705e-05
13670.0 3.8337e-05
13690.0 3.7967e-05
13710.0 3.7587e-05
13730.0 3.7192e-05
13750.0 3.6811e-05
13770.0 3.6436e-05
13790.0 3.606e-05
13810.0 3.5697e-05
13830.0 3.5358e-05
13850.0 3.5026e-05
13870.0 3.4707e-05
13890.0 3.4412e-05
13910.0 3.4133e-05
13930.0 3.3862e-05
13950.0 3.3604e-05
13970.0 3.3363e-05
13990.0 3.3122e-05
14010.0 3.288e-05
14030.0 3.2642e-05
14050.0 3.2401e-05
14070.0 3.2141e-05
14090.0 3.1877e-05
14110.0 3.1608e-05
14130.0 3.1323e-05
14150.0 3.1022e-05
14170.0 3.0724e-05
14190.0 3.0423e-05
14210.0 3.0111e-05
14230.0 2.9807e-05
14250.0 2.9519e-05
14270.0 2.9234e-05
14290.0 2.8963e-05
14310.0 2.8726e-05
14330.0 2.8513e-05
14350.0 2.8321e-05
14370.0 2.8162e-05
14390.0 2.8035e-05
14410.0 2.793e-05
14430.0 2.7849e-05
14450.0 2.7793e-05
14470.0 2.7754e-05
14490.0 2.7728e-05
14510.0 2.7715e-05
14530.0 2.7713e-05
14550.0 2.7718e-05
14570.0 2.7731e-05
14590.0 2.7756e-05
14610.0 2.7793e-05
14630.0 2.7848e-05
14650.0 2.7926e-05
14670.0 2.803e-05
14690.0 2.8171e-05
14710.0 2.8356e-05
14730.0 2.8578e-05
14750.0 2.8854e-05
14770.0 2.9192e-05
14790.0 2.9585e-05
14810.0 3.003e-05
14830.0 3.0569e-05
14850.0 3.1174e-05
14870.0 3.1824e-05
14890.0 3.2543e-05
14910.0 3.3327e-05
14930.0 3.4111e-05
14950.0 3.4875e-05
14970.0 3.5629e-05
14990.0 3.6305e-05
15010.0 3.6874e-05
15030.0 3.7352e-05
15050.0 3.7739e-05
15070.0 3.8026e-05
15090.0 3.8253e-05
15110.0 3.8439e-05
15130.0 3.8599e-05
15150.0 3.8746e-05
15170.0 3.8888e-05
15190.0 3.9028e-05
15210.0 3.917e-05
15230.0 3.9315e-05
15250.0 3.9462e-05
15270.0 3.9612e-05
15290.0 3.9765e-05
15310.0 3.9921e-05
15330.0 4.0079e-05
15350.0 4.024e-05
15370.0 4.0405e-05
15390.0 4.0571e-05
15410.0 4.074e-05
15430.0 4.0912e-05
15450.0 4.1086e-05
15470.0 4.1263e-05
15490.0 4.1443e-05
15510.0 4.1625e-05
15530.0 4.1808e-05
15550.0 4.1995e-05
15570.0 4.2184e-05
15590.0 4.2374e-05
15610.0 4.2567e-05
15630.0 4.2762e-05
15650.0 4.296e-05
15670.0 4.3159e-05
15690.0 4.336e-05
15710.0 4.3563e-05
15730.0 4.3768e-05
15750.0 4.3974e-05
15770.0 4.4182e-05
15790.0 4.4392e-05
15810.0 4.4603e-05
15830.0 4.4816e-05
15850.0 4.5031e-05
15870.0 4.5246e-05
15890.0 4.5463e-05
15910.0 4.5682e-05
15930.0 4.5901e-05
15950.0 4.6122e-05
15970.0 4.6343e-05
15990.0 4.6566e-05
16010.0 4.6789e-05
16030.0 4.7013e-05
16050.0 4.7239e-05
16070.0 4.7464e-05
16090.0 4.7691e-05
16110.0 4.7917e-05
16130.0 4.8145e-05
16150.0 4.8372e-05
16170.0 4.86e-05
16190.0 4.8828e-05
16210.0 4.9056e-05
16230.0 4.9284e-05
16250.0 4.9512e-05
16270.0 4.974e-05
16290.0 4.9967e-05
16310.0 5.0195e-05
16330.0 5.0422e-05
16350.0 5.0648e-05
16370.0 5.0874e-05
16390.0 5.1099e-05
16410.0 5.1323e-05
16430.0 5.1547e-05
16450.0 5.1769e-05
16470.0 5.1991e-05
16490.0 5.2212e-05
16510.0 5.2431e-05
16530.0 5.2649e-05
16550.0 5.2865e-05
16570.0 5.308e-05
16590.0 5.3293e-05
16610.0 5.3505e-05
16630.0 5.3715e-05
16650.0 5.3924e-05
16670.0 5.413e-05
16690.0 5.4334e-05
16710.0 5.4536e-05
16730.0 5.4736e-05
16750.0 5.4934e-05
16770.0 5.5129e-05
16790.0 5.5322e-05
16810.0 5.5512e-05
16830.0 5.57e-05
16850.0 5.5884e-05
16870.0 5.6066e-05
16890.0 5.6246e-05
16910.0 5.6422e-05
16930.0 5.6595e-05
16950.0 5.6765e-05
16970.0 5.6931e-05
16990.0 5.7095e-05
17010.0 5.7255e-05
17030.0 5.7412e-05
17050.0 5.7564e-05
17070.0 5.7714e-05
17090.0 5.7859e-05
17110.0 5.8001e-05
17130.0 5.8139e-05
17150.0 5.8274e-05
17170.0 5.8404e-05
17190.0 5.853e-05
17210.0 5.8652e-05
17230.0 5.8771e-05
17250.0 5.8884e-05
17270.0 5.8994e-05
17290.0 5.9099e-05
17310.0 5.92e-05
17330.0 5.9296e-05
17350.0 5.9388e-05
17370.0 5.9476e-05
17390.0 5.9558e-05
17410.0 5.9636e-05
17430.0 5.971e-05
17450.0 5.9779e-05
17470.0 5.9843e-05
17490.0 5.9902e-05
17510.0 5.9957e-05
17530.0 6.0007e-05
17550.0 6.0052e-05
17570.0 6.0092e-05
17590.0 6.0127e-05
17610.0 6.0157e-05
17630.0 6.0182e-05
17650.0 6.0203e-05
17670.0 6.0218e-05
17690.0 6.0228e-05
17710.0 6.0233e-05
17730.0 6.0234e-05
17750.0 6.0229e-05
17770.0 6.0219e-05
17790.0 6.0205e-05
17810.0 6.0185e-05
17830.0 6.016e-05
17850.0 6.0131e-05
17870.0 6.0096e-05
17890.0 6.0056e-05
17910.0 6.0011e-05
17930.0 5.9962e-05
17950.0 5.9908e-05
17970.0 5.9848e-05
17990.0 5.9784e-05
18010.0 5.9715e-05
18030.0 5.9641e-05
18050.0 5.9562e-05
18070.0 5.9479e-05
18090.0 5.939e-05
18110.0 5.9297e-05
18130.0 5.92e-05
18150.0 5.9098e-05
18170.0 5.8991e-05
18190.0 5.888e-05
18210.0 5.8764e-05
18230.0 5.8644e-05
18250.0 5.8519e-05
18270.0 5.839e-05
18290.0 5.8257e-05
18310.0 5.8119e-05
18330.0 5.7977e-05
18350.0 5.7832e-05
18370.0 5.7682e-05
18390.0 5.7527e-05
18410.0 5.737e-05
18430.0 5.7208e-05
18450.0 5.7042e-05
18470.0 5.6873e-05
18490.0 5.67e-05
18510.0 5.6523e-05
18530.0 5.6342e-05
18550.0 5.6159e-05
18570.0 5.5972e-05
18590.0 5.5781e-05
18610.0 5.5587e-05
18630.0 5.539e-05
18650.0 5.5189e-05
18670.0 5.4986e-05
18690.0 5.478e-05
18710.0 5.457e-05
18730.0 5.4358e-05
18750.0 5.4143e-05
18770.0 5.3926e-05
18790.0 5.3705e-05
18810.0 5.3482e-05
18830.0 5.3257e-05
18850.0 5.3029e-05
18870.0 5.2798e-05
18890.0 5.2566e-05
18910.0 5.2332e-05
18930.0 5.2095e-05
18950.0 5.1856e-05
18970.0 5.1615e-05
18990.0 5.1372e-05
19010.0 5.1127e-05
19030.0 5.0881e-05
19050.0 5.0634e-05
19070.0 5.0384e-05
19090.0 5.0133e-05
19110.0 4.9881e-05
19130.0 4.9627e-05
19150.0 4.9371e-05
19170.0 4.9115e-05
19190.0 4.8857e-05
19210.0 4.8598e-05
19230.0 4.8339e-05
19250.0 4.8078e-05
19270.0 4.7817e-05
19290.0 4.7554e-05
19310.0 4.7291e-05
19330.0 4.7027e-05
19350.0 4.6763e-05
19370.0 4.6498e-05
19390.0 4.6232e-05
19410.0 4.5966e-05
19430.0 4.57e-05
19450.0 4.5433e-05
19470.0 4.5167e-05
19490.0 4.4899e-05
19510.0 4.4632e-05
19530.0 4.4365e-05
19550.0 4.4098e-05
19570.0 4.383e-05
19590.0 4.3563e-05
19610.0 4.3296e-05
19630.0 4.3029e-05
19650.0 4.2763e-05
19670.0 4.2497e-05
19690.0 4.2231e-05
19710.0 4.1965e-05
19730.0 4.17e-05
19750.0 4.1436e-05
19770.0 4.1171e-05
19790.0 4.0908e-05
19810.0 4.0645e-05
19830.0 4.0381e-05
19850.0 4.0117e-05
19870.0 3.985e-05
19890.0 3.9575e-05
19910.0 3.9286e-05
19930.0 3.8975e-05
19950.0 3.863e-05
19970.0 3.8233e-05
19990.0 3.7773e-05
20010.0 3.7259e-05
20030.0 3.667e-05
20050.0 3.6009e-05
20070.0 3.5311e-05
20090.0 3.4582e-05
20110.0 3.3799e-05
20130.0 3.3024e-05
20150.0 3.2271e-05
20170.0 3.1513e-05
20190.0 3.0764e-05
20210.0 3.0059e-05
20230.0 2.9376e-05
20250.0 2.8699e-05
20270.0 2.8062e-05
20290.0 2.7466e-05
20310.0 2.6889e-05
20330.0 2.6332e-05
20350.0 2.5832e-05
20370.0 2.5359e-05
20390.0 2.4907e-05
20410.0 2.4493e-05
20430.0 2.4115e-05
20450.0 2.3753e-05
20470.0 2.3421e-05
20490.0 2.3121e-05
20510.0 2.2842e-05
20530.0 2.2583e-05
20550.0 2.2347e-05
20570.0 2.2131e-05
20590.0 2.1929e-05
20610.0 2.1742e-05
20630.0 2.1568e-05
20650.0 2.1403e-05
20670.0 2.1247e-05
20690.0 2.1096e-05
20710.0 2.0951e-05
20730.0 2.0807e-05
20750.0 2.0663e-05
20770.0 2.0519e-05
20790.0 2.0373e-05
20810.0 2.0222e-05
20830.0 2.0068e-05
20850.0 1.9908e-05
20870.0 1.9741e-05
20890.0 1.9568e-05
20910.0 1.939e-05
20930.0 1.9206e-05
20950.0 1.9014e-05
20970.0 1.8819e-05
20990.0 1.862e-05
21010.0 1.8413e-05
21030.0 1.8204e-05
21050.0 1.7995e-05
21070.0 1.7782e-05
21090.0 1.7565e-05
21110.0 1.7353e-05
21130.0 1.7142e-05
21150.0 1.6928e-05
21170.0 1.6717e-05
21190.0 1.6512e-05
21210.0 1.6306e-05
21230.0 1.6102e-05
21250.0 1.5905e-05
21270.0 1.5712e-05
21290.0 1.5521e-05
21310.0 1.5335e-05
21330.0 1.5158e-05
21350.0 1.4984e-05
21370.0 1.4814e-05
21390.0 1.4653e-05
21410.0 1.4498e-05
21430.0 1.4345e-05
21450.0 1.4202e-05
21470.0 1.4067e-05
21490.0 1.3938e-05
21510.0 1.3814e-05
21530.0 1.3699e-05
21550.0 1.359e-05
21570.0 1.3486e-05
21590.0 1.3389e-05
21610.0 1.3298e-05
21630.0 1.3212e-05
21650.0 1.3131e-05
21670.0 1.3055e-05
21690.0 1.2982e-05
21710.0 1.2913e-05
21730.0 1.2848e-05
21750.0 1.2785e-05
21770.0 1.2725e-05
21790.0 1.2668e-05
21810.0 1.2611e-05
21830.0 1.2557e-05
21850.0 1.2504e-05
21870.0 1.2452e-05
21890.0 1.24e-05
21910.0 1.2349e-05
21930.0 1.2298e-05
21950.0 1.2246e-05
21970.0 1.2195e-05
21990.0 1.2142e-05
22010.0 1.2089e-05
22030.0 1.2034e-05
22050.0 1.1977e-05
22070.0 1.192e-05
22090.0 1.186e-05
22110.0 1.1799e-05
22130.0 1.1736e-05
22150.0 1.1671e-05
22170.0 1.1605e-05
22190.0 1.1536e-05
22210.0 1.1466e-05
22230.0 1.1395e-05
22250.0 1.1322e-05
22270.0 1.1247e-05
22290.0 1.117e-05
22310.0 1.1092e-05
22330.0 1.101e-05
22350.0 1.0925e-05
22370.0 1.0839e-05
22390.0 1.0748e-05
22410.0 1.0651e-05
22430.0 1.0552e-05
22450.0 1.045e-05
22470.0 1.0339e-05
22490.0 1.0225e-05
22510.0 1.0107e-05
22530.0 9.9816e-06
22550.0 9.8491e-06
22570.0 9.7158e-06
22590.0 9.5787e-06
22610.0 9.4347e-06
22630.0 9.2893e-06
