#lamb flux
1010.0 8.7072e-05
1030.0 0.00011638
1050.0 0.00015521
1070.0 0.00020554
1090.0 0.00027068
1110.0 0.00034919
1130.0 0.00044126
1150.0 0.00055041
1170.0 0.00067625
1190.0 0.00081213
1210.0 0.00096032
1230.0 0.0011205
1250.0 0.0012849
1270.0 0.0014478
1290.0 0.0016125
1310.0 0.0017686
1330.0 0.001906
1350.0 0.0020253
1370.0 0.0021244
1390.0 0.0021938
1410.0 0.002231
1430.0 0.0022429
1450.0 0.0022253
1470.0 0.0021771
1490.0 0.0021053
1510.0 0.002016
1530.0 0.001905
1550.0 0.001781
1570.0 0.0016529
1590.0 0.0015201
1610.0 0.001384
1630.0 0.0012515
1650.0 0.001124
1670.0 0.0010014
1690.0 0.00088616
1710.0 0.00078023
1730.0 0.00068315
1750.0 0.00059419
1770.0 0.00051496
1790.0 0.0004449
1810.0 0.00038314
1830.0 0.00032963
1850.0 0.00028089
1870.0 0.00023655
1890.0 0.00020017
1910.0 0.0001716
1930.0 0.00015039
1950.0 0.00014356
1970.0 0.00014346
1990.0 0.00014515
2010.0 0.00014842
2030.0 0.00015313
2050.0 0.0001594
2070.0 0.00017896
2090.0 0.0002052
2110.0 0.00023625
2130.0 0.00027198
2150.0 0.00031193
2170.0 0.00035563
2190.0 0.0004032
2210.0 0.00045159
2230.0 0.00049941
2250.0 0.0005495
2270.0 0.00060196
2290.0 0.00065582
2310.0 0.00071058
2330.0 0.00076657
2350.0 0.00082324
2370.0 0.00087959
2390.0 0.00093578
2410.0 0.00099187
2430.0 0.0010464
2450.0 0.0010991
2470.0 0.0011504
2490.0 0.0011999
2510.0 0.0012473
2530.0 0.001295
2550.0 0.0013468
2570.0 0.0014066
2590.0 0.00148
2610.0 0.0015823
2630.0 0.0017224
2650.0 0.0019028
2670.0 0.002138
2690.0 0.0024405
2710.0 0.0027894
2730.0 0.0031699
2750.0 0.0035937
2770.0 0.0040161
2790.0 0.0043959
2810.0 0.0047329
2830.0 0.0050243
2850.0 0.0052234
2870.0 0.0053575
2890.0 0.0054483
2910.0 0.0054962
2930.0 0.0055033
2950.0 0.0054956
2970.0 0.005475
2990.0 0.0054342
3010.0 0.0053817
3030.0 0.0053291
3050.0 0.0052717
3070.0 0.0052009
3090.0 0.0051342
3110.0 0.0050726
3130.0 0.0050147
3150.0 0.0047781
3170.0 0.0046121
3190.0 0.0044589
3210.0 0.0043584
3230.0 0.0044085
3250.0 0.0049474
3270.0 0.0060906
3290.0 0.0068658
3310.0 0.0063677
3330.0 0.0063979
3350.0 0.0065378
3370.0 0.0067068
3390.0 0.0068638
3410.0 0.0069343
3430.0 0.0069365
3450.0 0.0069198
3470.0 0.0069378
3490.0 0.0068289
3510.0 0.0061805
3530.0 0.0047722
3550.0 0.0041917
3570.0 0.006235
3590.0 0.0088779
3610.0 0.010488
3630.0 0.013846
3650.0 0.01422
3670.0 0.011892
3690.0 0.0092619
3710.0 0.0078965
3730.0 0.0081643
3750.0 0.0084944
3770.0 0.0088126
3790.0 0.0091369
3810.0 0.010179
3830.0 0.0093782
3850.0 0.0078863
3870.0 0.0070948
3890.0 0.0080925
3910.0 0.0087992
3930.0 0.0088716
3950.0 0.0095707
3970.0 0.010365
3990.0 0.010254
4010.0 0.010694
4030.0 0.010267
4050.0 0.0098302
4070.0 0.0094916
4090.0 0.009585
4110.0 0.0098459
4130.0 0.0096156
4150.0 0.0091146
4170.0 0.0088589
4190.0 0.008845
4210.0 0.0080252
4230.0 0.0072709
4250.0 0.0063363
4270.0 0.0054075
4290.0 0.0052651
4310.0 0.0051159
4330.0 0.0051634
4350.0 0.0060693
4370.0 0.0062029
4390.0 0.0070076
4410.0 0.0075534
4430.0 0.0078898
4450.0 0.0070264
4470.0 0.0060215
4490.0 0.0057255
4510.0 0.0053916
4530.0 0.0051867
4550.0 0.0049558
4570.0 0.0049037
4590.0 0.004996
4610.0 0.0046988
4630.0 0.0045114
4650.0 0.0042248
4670.0 0.0041218
4690.0 0.0036347
4710.0 0.0032688
4730.0 0.0028357
4750.0 0.0025932
4770.0 0.0019027
4790.0 0.0019251
4810.0 0.0018221
4830.0 0.00089088
4850.0 0.0013648
4870.0 0.00077376
4890.0 0.00093838
4910.0 0.0016076
4930.0 0.0016661
4950.0 0.00074965
4970.0 0.00080683
4990.0 0.00084355
5010.0 0.00054778
5030.0 0.00050079
5050.0 0.0008199
5070.0 0.00077991
5090.0 0.00082902
5110.0 0.00091879
5130.0 0.00084882
5150.0 0.0010198
5170.0 0.00063087
5190.0 0.00058389
5210.0 0.00076904
5230.0 0.00060557
5250.0 0.00090386
5270.0 0.0015557
5290.0 0.0015092
5310.0 0.001102
5330.0 0.0011541
5350.0 0.00076208
5370.0 0.00083425
5390.0 0.0010293
5410.0 0.00093115
5430.0 0.0012775
5450.0 0.00088486
5470.0 0.00088687
5490.0 0.0017694
5510.0 0.0017928
5530.0 0.0018404
5550.0 0.0017655
5570.0 0.0019957
5590.0 0.0022684
5610.0 0.0022943
5630.0 0.0022086
5650.0 0.0022466
5670.0 0.0022294
5690.0 0.0023125
5710.0 0.0021243
5730.0 0.0022824
5750.0 0.0022608
5770.0 0.002136
5790.0 0.0023328
5810.0 0.0023833
5830.0 0.0023686
5850.0 0.0021727
5870.0 0.0020489
5890.0 0.0020795
5910.0 0.002369
5930.0 0.0023239
5950.0 0.0024433
5970.0 0.0024862
5990.0 0.0026321
6010.0 0.002558
6030.0 0.0026007
6050.0 0.0025886
6070.0 0.0024267
6090.0 0.0025741
6110.0 0.002631
6130.0 0.0025093
6150.0 0.0025043
6170.0 0.0025279
6190.0 0.0021525
6210.0 0.0021754
6230.0 0.0022927
6250.0 0.0022802
6270.0 0.0022719
6290.0 0.002425
6310.0 0.0026169
6330.0 0.0026382
6350.0 0.0025686
6370.0 0.0026227
6390.0 0.002424
6410.0 0.0024692
6430.0 0.0023522
6450.0 0.0023858
6470.0 0.0024228
6490.0 0.0024488
6510.0 0.0022628
6530.0 0.0022738
6550.0 0.0022393
6570.0 0.0021236
6590.0 0.0022323
6610.0 0.0022392
6630.0 0.0022072
6650.0 0.0020722
6670.0 0.002
6690.0 0.0019408
6710.0 0.0018562
6730.0 0.0018011
6750.0 0.0018083
6770.0 0.0017635
6790.0 0.0013926
6810.0 0.0015165
6830.0 0.0016441
6850.0 0.0014785
6870.0 0.0014476
6890.0 0.0014184
6910.0 0.001398
6930.0 0.001344
6950.0 0.0013968
6970.0 0.0013389
6990.0 0.0013103
7010.0 0.0012965
7030.0 0.0013494
7050.0 0.0013174
7070.0 0.0011056
7090.0 0.00092826
7110.0 0.00086493
7130.0 0.00092718
7150.0 0.00094668
7170.0 0.00092688
7190.0 0.00080028
7210.0 0.0009661
7230.0 0.0011002
7250.0 0.001075
7270.0 0.0010836
7290.0 0.0011435
7310.0 0.001016
7330.0 0.00095943
7350.0 0.00089517
7370.0 0.00097974
7390.0 0.0011011
7410.0 0.00087425
7430.0 0.00089842
7450.0 0.00087328
7470.0 0.00099588
7490.0 0.0010085
7510.0 0.00088052
7530.0 0.0009508
7550.0 0.00057909
7570.0 0.00048098
7590.0 0.00067731
7610.0 0.00084321
7630.0 0.00074379
7650.0 0.00084773
7670.0 0.00058874
7690.0 0.00035715
7710.0 0.00047576
7730.0 0.0006867
7750.0 0.00048354
7770.0 0.0007398
7790.0 0.00082204
7810.0 0.00068533
7830.0 0.00082603
7850.0 0.00061669
7870.0 0.00079007
7890.0 0.0006704
7910.0 0.00066451
7930.0 0.00050506
7950.0 0.00033545
7970.0 0.00046697
7990.0 0.00059597
8010.0 0.0017084
8030.0 0.0016575
8050.0 0.0016305
8070.0 0.0015841
8090.0 0.0014563
8110.0 0.0014203
8130.0 0.0015729
8150.0 0.0016759
8170.0 0.001734
8190.0 0.0018204
8210.0 0.0017392
8230.0 0.0017424
8250.0 0.0017281
8270.0 0.0017417
8290.0 0.0017255
8310.0 0.0016361
8330.0 0.0015764
8350.0 0.001631
8370.0 0.0016604
8390.0 0.0016145
8410.0 0.0015964
8430.0 0.0015377
8450.0 0.0014909
8470.0 0.0016106
8490.0 0.0016182
8510.0 0.0015099
8530.0 0.0015135
8550.0 0.0014953
8570.0 0.0013796
8590.0 0.0014015
8610.0 0.0014042
8630.0 0.0014682
8650.0 0.0014756
8670.0 0.0014888
8690.0 0.0014558
8710.0 0.0014259
8730.0 0.0013662
8750.0 0.0013343
8770.0 0.0013246
8790.0 0.0013963
8810.0 0.0013038
8830.0 0.0012804
8850.0 0.0013576
8870.0 0.0012848
8890.0 0.0011803
8910.0 0.0011658
8930.0 0.0011917
8950.0 0.0010925
8970.0 0.0010456
8990.0 0.0010208
9010.0 0.00095727
9030.0 0.00094235
9050.0 0.00093801
9070.0 0.0009342
9090.0 0.00093035
9110.0 0.00092646
9130.0 0.00092253
9150.0 0.00091857
9170.0 0.00091458
9190.0 0.00091055
9210.0 0.00090648
9230.0 0.00090239
9250.0 0.00089827
9270.0 0.00089412
9290.0 0.00088994
9310.0 0.00088635
9330.0 0.00088366
9350.0 0.00088096
9370.0 0.00087821
9390.0 0.00087541
9410.0 0.00087259
9430.0 0.00086975
9450.0 0.00086685
9470.0 0.00086436
9490.0 0.00086163
9510.0 0.00085841
9530.0 0.0008552
9550.0 0.00085209
9570.0 0.000849
9590.0 0.00084587
9610.0 0.0008437
9630.0 0.00084164
9650.0 0.00083952
9670.0 0.00083728
9690.0 0.00083509
9710.0 0.00083288
9730.0 0.00083057
9750.0 0.00082824
9770.0 0.000826
9790.0 0.00082363
9810.0 0.0008212
9830.0 0.00081882
9850.0 0.00081594
9870.0 0.00081259
9890.0 0.00081067
9910.0 0.00080851
9930.0 0.00080582
9950.0 0.00080334
9970.0 0.000801
9990.0 0.00079857
10010.0 0.00079605
10030.0 0.0007935
10050.0 0.0007909
10070.0 0.00078828
10090.0 0.00078565
10110.0 0.000783
10130.0 0.00078035
10150.0 0.00077768
10170.0 0.00077502
10190.0 0.00077235
10210.0 0.00076967
10230.0 0.00076699
10250.0 0.00076431
10270.0 0.00076162
10290.0 0.00075894
10310.0 0.00075625
10330.0 0.00075357
10350.0 0.00075088
10370.0 0.0007482
10390.0 0.00074549
10410.0 0.00074225
10430.0 0.00073883
10450.0 0.0007368
10470.0 0.00073442
10490.0 0.00073199
10510.0 0.0007295
10530.0 0.00072688
10550.0 0.00072428
10570.0 0.00072172
10590.0 0.00071912
10610.0 0.0007165
10630.0 0.00071395
10650.0 0.00071141
10670.0 0.00070881
10690.0 0.00070626
10710.0 0.00070376
10730.0 0.00070123
10750.0 0.00069867
10770.0 0.00069622
10790.0 0.00069376
10810.0 0.00069128
10830.0 0.00068883
10850.0 0.00068644
10870.0 0.00068397
10890.0 0.00068148
10910.0 0.00067902
10930.0 0.00067648
10950.0 0.00067376
10970.0 0.00067092
10990.0 0.00066796
11010.0 0.00064025
11030.0 0.00063667
11050.0 0.00063244
11070.0 0.00062759
11090.0 0.0006221
11110.0 0.00061638
11130.0 0.00061047
11150.0 0.00060425
11170.0 0.00059789
11190.0 0.00059162
11210.0 0.00058519
11230.0 0.00057861
11250.0 0.00057215
11270.0 0.00056578
11290.0 0.00055932
11310.0 0.00055296
11330.0 0.00054694
11350.0 0.00054099
11370.0 0.00053514
11390.0 0.00052959
11410.0 0.00052426
11430.0 0.00051896
11450.0 0.00051389
11470.0 0.00050903
11490.0 0.00050423
11510.0 0.00049946
11530.0 0.00049484
11550.0 0.00049028
11570.0 0.00048566
11590.0 0.00048104
11610.0 0.00047648
11630.0 0.00047181
11650.0 0.00046702
11670.0 0.0004623
11690.0 0.00045753
11710.0 0.00045261
11730.0 0.00044767
11750.0 0.00044279
11770.0 0.00043778
11790.0 0.0004327
11810.0 0.0004277
11830.0 0.00042271
11850.0 0.0004176
11870.0 0.00041264
11890.0 0.00040783
11910.0 0.00040305
11930.0 0.00039836
11950.0 0.00039391
11970.0 0.00038961
11990.0 0.0003854
12010.0 0.00038146
12030.0 0.00037777
12050.0 0.00037425
12070.0 0.00037094
12090.0 0.00036793
12110.0 0.00036512
12130.0 0.0003625
12150.0 0.00036011
12170.0 0.0003579
12190.0 0.00035584
12210.0 0.00035392
12230.0 0.00035212
12250.0 0.00035038
12270.0 0.00034868
12290.0 0.00034699
12310.0 0.00034527
12330.0 0.0003435
12350.0 0.00034165
12370.0 0.0003397
12390.0 0.00033763
12410.0 0.00033538
12430.0 0.00033302
12450.0 0.00033052
12470.0 0.00032783
12490.0 0.00032497
12510.0 0.00032204
12530.0 0.00031891
12550.0 0.0003156
12570.0 0.00031222
12590.0 0.00030875
12610.0 0.00030507
12630.0 0.00030131
12650.0 0.00029761
12670.0 0.00029379
12690.0 0.00028988
12710.0 0.00028604
12730.0 0.00028225
12750.0 0.00027831
12770.0 0.00027447
12790.0 0.00027078
12810.0 0.0002671
12830.0 0.00026343
12850.0 0.00026
12870.0 0.00025669
12890.0 0.00025342
12910.0 0.00025033
12930.0 0.00024749
12950.0 0.00024473
12970.0 0.00024214
12990.0 0.00023985
13010.0 0.00023778
13030.0 0.00023589
13050.0 0.00023425
13070.0 0.00023288
13090.0 0.00023169
13110.0 0.00023071
13130.0 0.00022994
13150.0 0.00022932
13170.0 0.00022885
13190.0 0.00022849
13210.0 0.00022822
13230.0 0.000228
13250.0 0.00022783
13270.0 0.00022766
13290.0 0.00022749
13310.0 0.0002273
13330.0 0.00022706
13350.0 0.00022677
13370.0 0.00022641
13390.0 0.00022595
13410.0 0.00022543
13430.0 0.00022479
13450.0 0.00022403
13470.0 0.00022316
13490.0 0.00022222
13510.0 0.0002211
13530.0 0.00021989
13550.0 0.00021863
13570.0 0.00021729
13590.0 0.00021582
13610.0 0.00021435
13630.0 0.00021288
13650.0 0.00021129
13670.0 0.00020968
13690.0 0.00020809
13710.0 0.00020644
13730.0 0.00020467
13750.0 0.00020297
13770.0 0.00020126
13790.0 0.00019945
13810.0 0.00019762
13830.0 0.00019586
13850.0 0.00019401
13870.0 0.00019211
13890.0 0.00019028
13910.0 0.00018849
13930.0 0.00018663
13950.0 0.00018481
13970.0 0.00018315
13990.0 0.00018148
14010.0 0.00017985
14030.0 0.00017835
14050.0 0.00017694
14070.0 0.00017552
14090.0 0.00017424
14110.0 0.0001731
14130.0 0.00017199
14150.0 0.00017094
14170.0 0.00017004
14190.0 0.0001692
14210.0 0.00016838
14230.0 0.00016763
14250.0 0.00016697
14270.0 0.00016631
14290.0 0.00016567
14310.0 0.00016512
14330.0 0.0001646
14350.0 0.00016408
14370.0 0.00016362
14390.0 0.00016322
14410.0 0.00016282
14430.0 0.00016245
14450.0 0.00016215
14470.0 0.00016188
14490.0 0.0001616
14510.0 0.00016138
14530.0 0.0001612
14550.0 0.00016101
14570.0 0.00016083
14590.0 0.00016068
14610.0 0.00016052
14630.0 0.00016032
14650.0 0.00016015
14670.0 0.00015998
14690.0 0.00015978
14710.0 0.00015955
14730.0 0.00015935
14750.0 0.00015913
14770.0 0.00015886
14790.0 0.00015858
14810.0 0.00015831
14830.0 0.00015795
14850.0 0.00015758
14870.0 0.00015722
14890.0 0.00015682
14910.0 0.00015639
14930.0 0.000156
14950.0 0.00015564
14970.0 0.0001553
14990.0 0.00015502
15010.0 0.00015484
15030.0 0.00015472
15050.0 0.00015465
15070.0 0.00015467
15090.0 0.00015472
15110.0 0.00015479
15130.0 0.00015488
15150.0 0.00015499
15170.0 0.00015508
15190.0 0.00015516
15210.0 0.00015525
15230.0 0.00015533
15250.0 0.00015539
15270.0 0.00015545
15290.0 0.00015552
15310.0 0.00015557
15330.0 0.00015561
15350.0 0.00015565
15370.0 0.00015569
15390.0 0.00015569
15410.0 0.0001557
15430.0 0.00015571
15450.0 0.00015571
15470.0 0.00015568
15490.0 0.00015567
15510.0 0.00015564
15530.0 0.00015559
15550.0 0.00015554
15570.0 0.0001555
15590.0 0.00015542
15610.0 0.00015533
15630.0 0.00015526
15650.0 0.00015516
15670.0 0.00015505
15690.0 0.00015494
15710.0 0.00015483
15730.0 0.00015469
15750.0 0.00015454
15770.0 0.00015439
15790.0 0.00015423
15810.0 0.00015405
15830.0 0.00015387
15850.0 0.00015369
15870.0 0.00015348
15890.0 0.00015327
15910.0 0.00015306
15930.0 0.00015283
15950.0 0.00015258
15970.0 0.00015234
15990.0 0.00015209
16010.0 0.00015181
16030.0 0.00015153
16050.0 0.00015126
16070.0 0.00015097
16090.0 0.00015065
16110.0 0.00015035
16130.0 0.00015004
16150.0 0.00014969
16170.0 0.00014935
16190.0 0.00014901
16210.0 0.00014866
16230.0 0.00014828
16250.0 0.00014792
16270.0 0.00014755
16290.0 0.00014715
16310.0 0.00014675
16330.0 0.00014636
16350.0 0.00014595
16370.0 0.00014551
16390.0 0.00014509
16410.0 0.00014466
16430.0 0.00014421
16450.0 0.00014376
16470.0 0.00014332
16490.0 0.00014285
16510.0 0.00014238
16530.0 0.0001419
16550.0 0.00014143
16570.0 0.00014093
16590.0 0.00014043
16610.0 0.00013994
16630.0 0.00013943
16650.0 0.00013892
16670.0 0.00013841
16690.0 0.00013789
16710.0 0.00013735
16730.0 0.00013681
16750.0 0.00013628
16770.0 0.00013574
16790.0 0.00013518
16810.0 0.00013463
16830.0 0.00013408
16850.0 0.00013351
16870.0 0.00013295
16890.0 0.00013239
16910.0 0.00013181
16930.0 0.00013122
16950.0 0.00013065
16970.0 0.00013007
16990.0 0.00012947
17010.0 0.00012888
17030.0 0.0001283
17050.0 0.0001277
17070.0 0.00012709
17090.0 0.0001265
17110.0 0.0001259
17130.0 0.00012527
17150.0 0.00012467
17170.0 0.00012407
17190.0 0.00012345
17210.0 0.00012283
17230.0 0.00012222
17250.0 0.00012161
17270.0 0.00012097
17290.0 0.00012035
17310.0 0.00011974
17330.0 0.00011911
17350.0 0.00011847
17370.0 0.00011786
17390.0 0.00011723
17410.0 0.0001166
17430.0 0.00011598
17450.0 0.00011536
17470.0 0.00011471
17490.0 0.00011408
17510.0 0.00011346
17530.0 0.00011283
17550.0 0.00011219
17570.0 0.00011157
17590.0 0.00011095
17610.0 0.00011031
17630.0 0.00010968
17650.0 0.00010906
17670.0 0.00010843
17690.0 0.00010778
17710.0 0.00010717
17730.0 0.00010655
17750.0 0.00010591
17770.0 0.00010529
17790.0 0.00010468
17810.0 0.00010405
17830.0 0.00010342
17850.0 0.00010281
17870.0 0.00010219
17890.0 0.00010156
17910.0 0.00010094
17930.0 0.00010034
17950.0 9.9727e-05
17970.0 9.9109e-05
17990.0 9.8507e-05
18010.0 9.7905e-05
18030.0 9.7284e-05
18050.0 9.6679e-05
18070.0 9.6084e-05
18090.0 9.548e-05
18110.0 9.4872e-05
18130.0 9.4285e-05
18150.0 9.3694e-05
18170.0 9.3094e-05
18190.0 9.2504e-05
18210.0 9.1925e-05
18230.0 9.1331e-05
18250.0 9.0736e-05
18270.0 9.0163e-05
18290.0 8.9586e-05
18310.0 8.9002e-05
18330.0 8.8429e-05
18350.0 8.7867e-05
18370.0 8.729e-05
18390.0 8.6718e-05
18410.0 8.616e-05
18430.0 8.5599e-05
18450.0 8.5026e-05
18470.0 8.4471e-05
18490.0 8.3925e-05
18510.0 8.3369e-05
18530.0 8.2816e-05
18550.0 8.2279e-05
18570.0 8.1735e-05
18590.0 8.1182e-05
18610.0 8.0647e-05
18630.0 8.0116e-05
18650.0 7.9577e-05
18670.0 7.904e-05
18690.0 7.8523e-05
18710.0 7.7999e-05
18730.0 7.747e-05
18750.0 7.6955e-05
18770.0 7.6446e-05
18790.0 7.592e-05
18810.0 7.5405e-05
18830.0 7.4905e-05
18850.0 7.4399e-05
18870.0 7.3888e-05
18890.0 7.3394e-05
18910.0 7.2904e-05
18930.0 7.2402e-05
18950.0 7.1909e-05
18970.0 7.1428e-05
18990.0 7.0941e-05
19010.0 7.0443e-05
19030.0 6.9971e-05
19050.0 6.9499e-05
19070.0 6.9018e-05
19090.0 6.8545e-05
19110.0 6.8087e-05
19130.0 6.7615e-05
19150.0 6.7144e-05
19170.0 6.6688e-05
19190.0 6.6233e-05
19210.0 6.5768e-05
19230.0 6.5312e-05
19250.0 6.4872e-05
19270.0 6.4422e-05
19290.0 6.3972e-05
19310.0 6.3536e-05
19330.0 6.31e-05
19350.0 6.265e-05
19370.0 6.2215e-05
19390.0 6.1789e-05
19410.0 6.1355e-05
19430.0 6.0921e-05
19450.0 6.0504e-05
19470.0 6.0085e-05
19490.0 5.9657e-05
19510.0 5.9241e-05
19530.0 5.8832e-05
19550.0 5.8412e-05
19570.0 5.7992e-05
19590.0 5.7591e-05
19610.0 5.7186e-05
19630.0 5.6775e-05
19650.0 5.6375e-05
19670.0 5.5983e-05
19690.0 5.5578e-05
19710.0 5.5178e-05
19730.0 5.479e-05
19750.0 5.4398e-05
19770.0 5.3996e-05
19790.0 5.3611e-05
19810.0 5.3232e-05
19830.0 5.2843e-05
19850.0 5.2458e-05
19870.0 5.2088e-05
19890.0 5.1712e-05
19910.0 5.1334e-05
19930.0 5.0979e-05
19950.0 5.0639e-05
19970.0 5.0309e-05
19990.0 5.0006e-05
20010.0 4.9741e-05
20030.0 4.9499e-05
20050.0 4.9285e-05
20070.0 4.9104e-05
20090.0 4.8949e-05
20110.0 4.881e-05
20130.0 4.8691e-05
20150.0 4.8588e-05
20170.0 4.8494e-05
20190.0 4.8409e-05
20210.0 4.8333e-05
20230.0 4.8261e-05
20250.0 4.8192e-05
20270.0 4.8126e-05
20290.0 4.8061e-05
20310.0 4.7995e-05
20330.0 4.7927e-05
20350.0 4.7857e-05
20370.0 4.7783e-05
20390.0 4.7704e-05
20410.0 4.762e-05
20430.0 4.7534e-05
20450.0 4.7441e-05
20470.0 4.7344e-05
20490.0 4.7245e-05
20510.0 4.7145e-05
20530.0 4.7041e-05
20550.0 4.6938e-05
20570.0 4.6837e-05
20590.0 4.6735e-05
20610.0 4.6635e-05
20630.0 4.6538e-05
20650.0 4.6441e-05
20670.0 4.6344e-05
20690.0 4.6249e-05
20710.0 4.6153e-05
20730.0 4.6055e-05
20750.0 4.5953e-05
20770.0 4.5848e-05
20790.0 4.5737e-05
20810.0 4.5616e-05
20830.0 4.5488e-05
20850.0 4.5352e-05
20870.0 4.5201e-05
20890.0 4.5038e-05
20910.0 4.4869e-05
20930.0 4.4687e-05
20950.0 4.449e-05
20970.0 4.4287e-05
20990.0 4.4078e-05
21010.0 4.3853e-05
21030.0 4.3622e-05
21050.0 4.339e-05
21070.0 4.3151e-05
21090.0 4.2902e-05
21110.0 4.2657e-05
21130.0 4.2411e-05
21150.0 4.2157e-05
21170.0 4.1902e-05
21190.0 4.165e-05
21210.0 4.1389e-05
21230.0 4.1121e-05
21250.0 4.0854e-05
21270.0 4.0583e-05
21290.0 4.0299e-05
21310.0 4.001e-05
21330.0 3.9719e-05
21350.0 3.9414e-05
21370.0 3.9097e-05
21390.0 3.875e-05
21410.0 3.8394e-05
21430.0 3.8014e-05
21450.0 3.763e-05
21470.0 3.7241e-05
21490.0 3.6835e-05
21510.0 3.6416e-05
21530.0 3.5996e-05
21550.0 3.5566e-05
21570.0 3.5117e-05
21590.0 3.4665e-05
21610.0 3.421e-05
21630.0 3.3741e-05
21650.0 3.3256e-05
21670.0 3.278e-05
21690.0 3.2294e-05
21710.0 3.1793e-05
21730.0 3.129e-05
21750.0 3.0788e-05
21770.0 3.0264e-05
21790.0 2.9734e-05
21810.0 2.9206e-05
21830.0 2.8669e-05
21850.0 2.8115e-05
21870.0 2.7562e-05
21890.0 2.701e-05
21910.0 2.6441e-05
21930.0 2.5866e-05
21950.0 2.5295e-05
21970.0 2.4715e-05
21990.0 2.4119e-05
22010.0 2.3533e-05
22030.0 2.2947e-05
22050.0 2.2352e-05
22070.0 2.1897e-05
22090.0 2.1702e-05
22110.0 2.1507e-05
22130.0 2.1312e-05
22150.0 2.1122e-05
22170.0 2.0935e-05
22190.0 2.0747e-05
22210.0 2.0563e-05
22230.0 2.0385e-05
22250.0 2.0206e-05
22270.0 2.0029e-05
22290.0 1.9856e-05
22310.0 1.9684e-05
22330.0 1.951e-05
22350.0 1.9338e-05
22370.0 1.9167e-05
22390.0 1.8996e-05
22410.0 1.8822e-05
22430.0 1.8649e-05
22450.0 1.8475e-05
22470.0 1.8298e-05
22490.0 1.812e-05
22510.0 1.7941e-05
22530.0 1.7758e-05
22550.0 1.7573e-05
22570.0 1.7387e-05
22590.0 1.7199e-05
22610.0 1.7008e-05
22630.0 1.6815e-05
22650.0 1.662e-05
22670.0 1.6423e-05
22690.0 1.6224e-05
22710.0 1.6024e-05
22730.0 1.5821e-05
22750.0 1.5616e-05
22770.0 1.541e-05
22790.0 1.5202e-05
22810.0 1.4992e-05
22830.0 1.478e-05
22850.0 1.4566e-05
22870.0 1.435e-05
22890.0 1.413e-05
22910.0 1.3909e-05
22930.0 1.3683e-05
22950.0 1.3455e-05
