#lamb flux
1010.0 7.1811e-07
1030.0 7.986e-07
1050.0 8.7641e-07
1070.0 9.6423e-07
1090.0 1.0685e-06
1110.0 1.175e-06
1130.0 1.2822e-06
1150.0 1.3948e-06
1170.0 1.5118e-06
1190.0 1.6246e-06
1210.0 1.7414e-06
1230.0 1.865e-06
1250.0 1.9892e-06
1270.0 2.1146e-06
1290.0 2.2512e-06
1310.0 2.3931e-06
1330.0 2.5352e-06
1350.0 2.6835e-06
1370.0 2.8402e-06
1390.0 2.9975e-06
1410.0 3.1541e-06
1430.0 3.3182e-06
1450.0 3.4834e-06
1470.0 3.6444e-06
1490.0 3.8059e-06
1510.0 3.9728e-06
1530.0 4.13e-06
1550.0 4.2818e-06
1570.0 4.4339e-06
1590.0 4.5812e-06
1610.0 4.7166e-06
1630.0 4.8481e-06
1650.0 4.9764e-06
1670.0 5.093e-06
1690.0 5.2005e-06
1710.0 5.3054e-06
1730.0 5.4036e-06
1750.0 5.4867e-06
1770.0 5.5667e-06
1790.0 5.6431e-06
1810.0 5.71e-06
1830.0 5.7705e-06
1850.0 5.8351e-06
1870.0 5.8944e-06
1890.0 5.9489e-06
1910.0 6.0063e-06
1930.0 6.0682e-06
1950.0 6.1275e-06
1970.0 6.1891e-06
1990.0 6.2593e-06
2010.0 6.3321e-06
2030.0 6.4056e-06
2050.0 6.4869e-06
2070.0 6.5749e-06
2090.0 6.6592e-06
2110.0 6.7451e-06
2130.0 6.8349e-06
2150.0 6.9217e-06
2170.0 7.0014e-06
2190.0 7.0814e-06
2210.0 7.1568e-06
2230.0 7.2212e-06
2250.0 7.2776e-06
2270.0 7.3298e-06
2290.0 7.3692e-06
2310.0 7.3941e-06
2330.0 7.4116e-06
2350.0 7.419e-06
2370.0 7.411e-06
2390.0 7.3927e-06
2410.0 7.3671e-06
2430.0 7.326e-06
2450.0 7.27e-06
2470.0 7.2027e-06
2490.0 7.1234e-06
2510.0 7.0322e-06
2530.0 6.9464e-06
2550.0 6.8918e-06
2570.0 6.8987e-06
2590.0 7.002e-06
2610.0 7.2797e-06
2630.0 7.756e-06
2650.0 8.3968e-06
2670.0 9.207e-06
2690.0 1.0143e-05
2710.0 1.1037e-05
2730.0 1.1787e-05
2750.0 1.2361e-05
2770.0 1.2622e-05
2790.0 1.253e-05
2810.0 1.2101e-05
2830.0 1.132e-05
2850.0 1.0287e-05
2870.0 9.0626e-06
2890.0 7.6548e-06
2910.0 6.1414e-06
2930.0 4.6113e-06
2950.0 2.9908e-06
2970.0 1.3043e-06
2990.0 5.02e-07
3010.0 9.3785e-07
3030.0 9.3785e-07
3050.0 9.3785e-07
3070.0 9.3785e-07
3090.0 9.3785e-07
3110.0 9.3785e-07
3130.0 9.3785e-07
3150.0 9.3785e-07
3170.0 9.3785e-07
3190.0 9.3785e-07
3210.0 6.1026e-06
3230.0 5.3108e-05
3250.0 8.5094e-05
3270.0 7.6711e-05
3290.0 6.4075e-05
3310.0 4.8361e-05
3330.0 4.5889e-05
3350.0 5.005e-05
3370.0 5.6513e-05
3390.0 6.3461e-05
3410.0 7.0901e-05
3430.0 8.0853e-05
3450.0 9.0328e-05
3470.0 0.00010008
3490.0 0.00010217
3510.0 8.778e-05
3530.0 8.0599e-05
3550.0 9.4923e-05
3570.0 0.00011004
3590.0 0.00012113
3610.0 0.00012146
3630.0 0.00014123
3650.0 0.00014892
3670.0 0.00015541
3690.0 0.0001645
3710.0 0.00016557
3730.0 0.00017121
3750.0 0.0001703
3770.0 0.00016955
3790.0 0.00016325
3810.0 0.00015337
3830.0 0.00014518
3850.0 9.098e-05
3870.0 9.6092e-05
3890.0 0.00011004
3910.0 0.00014476
3930.0 0.00018741
3950.0 0.00020305
3970.0 0.00021785
3990.0 0.00025267
4010.0 0.00023803
4030.0 0.00021059
4050.0 0.00015079
4070.0 0.00013259
4090.0 0.00017758
4110.0 0.00018724
4130.0 0.00020383
4150.0 0.00019898
4170.0 0.00018827
4190.0 0.00017242
4210.0 0.00021211
4230.0 0.00022705
4250.0 0.0002462
4270.0 0.00023859
4290.0 0.0002311
4310.0 0.00024228
4330.0 0.00028108
4350.0 0.00030419
4370.0 0.00030732
4390.0 0.00028429
4410.0 0.00025885
4430.0 0.00020241
4450.0 0.00016253
4470.0 0.00016938
4490.0 0.00019505
4510.0 0.00020546
4530.0 0.00020567
4550.0 0.00020662
4570.0 0.00029003
4590.0 0.0004324
4610.0 0.00051068
4630.0 0.00052469
4650.0 0.00057616
4670.0 0.00067441
4690.0 0.00072159
4710.0 0.00061008
4730.0 0.00046679
4750.0 0.00036218
4770.0 0.00030651
4790.0 0.00027606
4810.0 0.00026124
4830.0 0.00028927
4850.0 0.00034732
4870.0 0.00038483
4890.0 0.0003992
4910.0 0.00038441
4930.0 0.00042152
4950.0 0.00050761
4970.0 0.00057865
4990.0 0.00059339
5010.0 0.00054303
5030.0 0.00044926
5050.0 0.00035023
5070.0 0.00028414
5090.0 0.00025944
5110.0 0.00025731
5130.0 0.0002617
5150.0 0.00025884
5170.0 0.00024148
5190.0 0.00022685
5210.0 0.0002266
5230.0 0.00025929
5250.0 0.00031554
5270.0 0.00037913
5290.0 0.00042824
5310.0 0.00046265
5330.0 0.00051681
5350.0 0.00057356
5370.0 0.00058718
5390.0 0.00053457
5410.0 0.00048014
5430.0 0.00047795
5450.0 0.00055982
5470.0 0.00068534
5490.0 0.00079036
5510.0 0.00083837
5530.0 0.00083178
5550.0 0.00080172
5570.0 0.0007773
5590.0 0.00075153
5610.0 0.00073967
5630.0 0.0007433
5650.0 0.0007513
5670.0 0.00073337
5690.0 0.0006638
5710.0 0.00057104
5730.0 0.00051894
5750.0 0.0005058
5770.0 0.00052373
5790.0 0.00054453
5810.0 0.00056452
5830.0 0.00057503
5850.0 0.0005563
5870.0 0.00053402
5890.0 0.00053123
5910.0 0.00055537
5930.0 0.00057651
5950.0 0.00054707
5970.0 0.00048502
5990.0 0.00040215
6010.0 0.00032964
6030.0 0.00030832
6050.0 0.00033548
6070.0 0.00035462
6090.0 0.00033376
6110.0 0.00029625
6130.0 0.0003053
6150.0 0.00035387
6170.0 0.00040202
6190.0 0.00043543
6210.0 0.00044302
6230.0 0.00043715
6250.0 0.00039819
6270.0 0.00033148
6290.0 0.00027366
6310.0 0.00024513
6330.0 0.00024152
6350.0 0.00024568
6370.0 0.00025218
6390.0 0.00028826
6410.0 0.00035913
6430.0 0.00043427
6450.0 0.00047773
6470.0 0.0004909
6490.0 0.00049142
6510.0 0.00049961
6530.0 0.00051075
6550.0 0.00051111
6570.0 0.00052947
6590.0 0.00054439
6610.0 0.00055127
6630.0 0.00053624
6650.0 0.00049732
6670.0 0.00045422
6690.0 0.0004185
6710.0 0.00039854
6730.0 0.00038915
6750.0 0.00039081
6770.0 0.00040143
6790.0 0.00041603
6810.0 0.00042527
6830.0 0.00041779
6850.0 0.00039614
6870.0 0.00037124
6890.0 0.00036272
6910.0 0.00035599
6930.0 0.00036825
6950.0 0.00038649
6970.0 0.00039624
6990.0 0.00040183
7010.0 0.00038924
7030.0 0.00035756
7050.0 0.00031726
7070.0 0.00028698
7090.0 0.00027392
7110.0 0.00027292
7130.0 0.00026208
7150.0 0.00023246
7170.0 0.00022221
7190.0 0.00024607
7210.0 0.00028665
7230.0 0.00032782
7250.0 0.00034399
7270.0 0.00033782
7290.0 0.00031287
7310.0 0.00029079
7330.0 0.00028193
7350.0 0.00028383
7370.0 0.00028873
7390.0 0.00030315
7410.0 0.00033668
7430.0 0.00038607
7450.0 0.00043126
7470.0 0.00045053
7490.0 0.0004354
7510.0 0.00040261
7530.0 0.00035804
7550.0 0.00032794
7570.0 0.0002955
7590.0 0.00027884
7610.0 0.00028265
7630.0 0.00030077
7650.0 0.00032869
7670.0 0.0003587
7690.0 0.00038108
7710.0 0.00040186
7730.0 0.00042188
7750.0 0.00043799
7770.0 0.00043406
7790.0 0.00043572
7810.0 0.00043896
7830.0 0.00043087
7850.0 0.00041457
7870.0 0.00040203
7890.0 0.0004048
7910.0 0.00039687
7930.0 0.00038842
7950.0 0.00036803
7970.0 0.00035496
7990.0 0.00034017
8010.0 0.00033807
8030.0 0.00033927
8050.0 0.00033956
8070.0 0.00033425
8090.0 0.00033061
8110.0 0.00031932
8130.0 0.00031818
8150.0 0.00031372
8170.0 0.00030526
8190.0 0.00029726
8210.0 0.00029342
8230.0 0.00028573
8250.0 0.00028067
8270.0 0.00025633
8290.0 0.00021131
8310.0 0.00016118
8330.0 0.00012689
8350.0 0.00011939
8370.0 0.00014063
8390.0 0.00016849
8410.0 0.00018061
8430.0 0.0001844
8450.0 0.00019413
8470.0 0.00020855
8490.0 0.00023301
8510.0 0.00026443
8530.0 0.00030048
8550.0 0.00033222
8570.0 0.0003572
8590.0 0.00037587
8610.0 0.00038545
8630.0 0.00038384
8650.0 0.00037828
8670.0 0.00037766
8690.0 0.00039693
8710.0 0.00042322
8730.0 0.00043908
8750.0 0.00043667
8770.0 0.00044209
8790.0 0.00044034
8810.0 0.00041422
8830.0 0.00038753
8850.0 0.00035308
8870.0 0.00032556
8890.0 0.00031677
8910.0 0.00031555
8930.0 0.00029702
8950.0 0.00027552
8970.0 0.00026628
8990.0 0.0002643
9010.0 0.00025479
9030.0 0.00024917
9050.0 0.00024695
9070.0 0.00024591
9090.0 0.00024503
9110.0 0.00024417
9130.0 0.00024332
9150.0 0.00024248
9170.0 0.00024157
9190.0 0.00024092
9210.0 0.00024104
9230.0 0.00023982
9250.0 0.0002388
9270.0 0.00023788
9290.0 0.00023705
9310.0 0.00023624
9330.0 0.00023547
9350.0 0.00023475
9370.0 0.00023403
9390.0 0.0002333
9410.0 0.00023261
9430.0 0.00023189
9450.0 0.00023084
9470.0 0.00022992
9490.0 0.00022957
9510.0 0.00022906
9530.0 0.00022851
9550.0 0.00022793
9570.0 0.00022733
9590.0 0.00022672
9610.0 0.00022611
9630.0 0.0002255
9650.0 0.00022489
9670.0 0.00022428
9690.0 0.00022368
9710.0 0.00022309
9730.0 0.00022249
9750.0 0.0002219
9770.0 0.00022131
9790.0 0.00022073
9810.0 0.00022014
9830.0 0.00021955
9850.0 0.00021897
9870.0 0.00021838
9890.0 0.00021779
9910.0 0.00021719
9930.0 0.00021658
9950.0 0.00021447
9970.0 0.00021431
9990.0 0.00021406
10010.0 0.00021377
10030.0 0.00021335
10050.0 0.00021281
10070.0 0.00021225
10090.0 0.00021169
10110.0 0.00021101
10130.0 0.00021033
10150.0 0.0002097
10170.0 0.00020904
10190.0 0.00020829
10210.0 0.00020761
10230.0 0.00020694
10250.0 0.00020619
10270.0 0.00020544
10290.0 0.00020474
10310.0 0.00020396
10330.0 0.00020311
10350.0 0.00020232
10370.0 0.00020153
10390.0 0.00020066
10410.0 0.00019978
10430.0 0.00019896
10450.0 0.00019806
10470.0 0.00019711
10490.0 0.0001962
10510.0 0.00019528
10530.0 0.00019422
10550.0 0.0001932
10570.0 0.00019222
10590.0 0.00019117
10610.0 0.00019005
10630.0 0.000189
10650.0 0.00018791
10670.0 0.0001867
10690.0 0.00018552
10710.0 0.00018437
10730.0 0.00018312
10750.0 0.00018179
10770.0 0.00018056
10790.0 0.00017928
10810.0 0.00017791
10830.0 0.00017655
10850.0 0.00017523
10870.0 0.00017375
10890.0 0.00017224
10910.0 0.00017078
10930.0 0.00016926
10950.0 0.0001676
10970.0 0.00016594
10990.0 0.0001643
11010.0 0.00017612
11030.0 0.00017419
11050.0 0.00017231
11070.0 0.00017039
11090.0 0.00016833
11110.0 0.00016642
11130.0 0.00016457
11150.0 0.00016267
11170.0 0.00016079
11190.0 0.00015904
11210.0 0.00015725
11230.0 0.00015542
11250.0 0.00015367
11270.0 0.00015196
11290.0 0.00015018
11310.0 0.00014841
11330.0 0.00014675
11350.0 0.00014505
11370.0 0.00014329
11390.0 0.00014157
11410.0 0.00013984
11430.0 0.00013795
11450.0 0.00013602
11470.0 0.00013408
11490.0 0.00013199
11510.0 0.00012972
11530.0 0.00012744
11550.0 0.00012507
11570.0 0.00012251
11590.0 0.00011989
11610.0 0.00011728
11630.0 0.00011452
11650.0 0.00011166
11670.0 0.00010892
11690.0 0.00010618
11710.0 0.00010339
11730.0 0.00010068
11750.0 9.8122e-05
11770.0 9.554e-05
11790.0 9.3003e-05
11810.0 9.0624e-05
11830.0 8.8325e-05
11850.0 8.5994e-05
11870.0 8.3807e-05
11890.0 8.1758e-05
11910.0 7.9719e-05
11930.0 7.7728e-05
11950.0 7.5874e-05
11970.0 7.4069e-05
11990.0 7.2265e-05
12010.0 7.0575e-05
12030.0 6.899e-05
12050.0 6.744e-05
12070.0 6.5952e-05
12090.0 6.4633e-05
12110.0 6.3392e-05
12130.0 6.2233e-05
12150.0 6.1212e-05
12170.0 6.0331e-05
12190.0 5.9543e-05
12210.0 5.8903e-05
12230.0 5.8413e-05
12250.0 5.8057e-05
12270.0 5.7842e-05
12290.0 5.7765e-05
12310.0 5.7807e-05
12330.0 5.7986e-05
12350.0 5.8286e-05
12370.0 5.867e-05
12390.0 5.9156e-05
12410.0 5.9774e-05
12430.0 6.0419e-05
12450.0 6.111e-05
12470.0 6.1879e-05
12490.0 6.268e-05
12510.0 6.3446e-05
12530.0 6.4242e-05
12550.0 6.5045e-05
12570.0 6.577e-05
12590.0 6.6425e-05
12610.0 6.7039e-05
12630.0 6.7544e-05
12650.0 6.7889e-05
12670.0 6.8124e-05
12690.0 6.822e-05
12710.0 6.815e-05
12730.0 6.7928e-05
12750.0 6.7552e-05
12770.0 6.7021e-05
12790.0 6.636e-05
12810.0 6.5571e-05
12830.0 6.4657e-05
12850.0 6.3684e-05
12870.0 6.2655e-05
12890.0 6.1554e-05
12910.0 6.044e-05
12930.0 5.9346e-05
12950.0 5.8231e-05
12970.0 5.7121e-05
12990.0 5.608e-05
13010.0 5.5071e-05
13030.0 5.4077e-05
13050.0 5.3132e-05
13070.0 5.2246e-05
13090.0 5.1365e-05
13110.0 5.0508e-05
13130.0 4.9696e-05
13150.0 4.8902e-05
13170.0 4.8099e-05
13190.0 4.733e-05
13210.0 4.6593e-05
13230.0 4.5856e-05
13250.0 4.5133e-05
13270.0 4.4453e-05
13290.0 4.3794e-05
13310.0 4.3151e-05
13330.0 4.2563e-05
13350.0 4.2027e-05
13370.0 4.1531e-05
13390.0 4.1087e-05
13410.0 4.0714e-05
13430.0 4.0389e-05
13450.0 4.0109e-05
13470.0 3.9874e-05
13490.0 3.9671e-05
13510.0 3.9486e-05
13530.0 3.9309e-05
13550.0 3.9127e-05
13570.0 3.8928e-05
13590.0 3.8699e-05
13610.0 3.8437e-05
13630.0 3.8143e-05
13650.0 3.7802e-05
13670.0 3.7422e-05
13690.0 3.702e-05
13710.0 3.6588e-05
13730.0 3.6121e-05
13750.0 3.5667e-05
13770.0 3.5217e-05
13790.0 3.4768e-05
13810.0 3.4339e-05
13830.0 3.3949e-05
13850.0 3.3577e-05
13870.0 3.3232e-05
13890.0 3.2928e-05
13910.0 3.2656e-05
13930.0 3.2405e-05
13950.0 3.218e-05
13970.0 3.1981e-05
13990.0 3.1791e-05
14010.0 3.1608e-05
14030.0 3.1431e-05
14050.0 3.1253e-05
14070.0 3.106e-05
14090.0 3.086e-05
14110.0 3.0649e-05
14130.0 3.0418e-05
14150.0 3.0164e-05
14170.0 2.9903e-05
14190.0 2.9629e-05
14210.0 2.9333e-05
14230.0 2.9034e-05
14250.0 2.8741e-05
14270.0 2.8439e-05
14290.0 2.8142e-05
14310.0 2.7874e-05
14330.0 2.7624e-05
14350.0 2.7393e-05
14370.0 2.7195e-05
14390.0 2.7032e-05
14410.0 2.6895e-05
14430.0 2.6788e-05
14450.0 2.6715e-05
14470.0 2.6666e-05
14490.0 2.664e-05
14510.0 2.6635e-05
14530.0 2.6647e-05
14550.0 2.6675e-05
14570.0 2.6718e-05
14590.0 2.6776e-05
14610.0 2.6851e-05
14630.0 2.6949e-05
14650.0 2.707e-05
14670.0 2.7215e-05
14690.0 2.7397e-05
14710.0 2.7618e-05
14730.0 2.7865e-05
14750.0 2.8156e-05
14770.0 2.8497e-05
14790.0 2.8875e-05
14810.0 2.9288e-05
14830.0 2.9775e-05
14850.0 3.0309e-05
14870.0 3.0872e-05
14890.0 3.1487e-05
14910.0 3.2154e-05
14930.0 3.2816e-05
14950.0 3.3458e-05
14970.0 3.4091e-05
14990.0 3.4654e-05
15010.0 3.5124e-05
15030.0 3.5513e-05
15050.0 3.5822e-05
15070.0 3.6043e-05
15090.0 3.621e-05
15110.0 3.6342e-05
15130.0 3.6449e-05
15150.0 3.6544e-05
15170.0 3.6634e-05
15190.0 3.6722e-05
15210.0 3.6811e-05
15230.0 3.6901e-05
15250.0 3.6993e-05
15270.0 3.7086e-05
15290.0 3.7182e-05
15310.0 3.7279e-05
15330.0 3.7377e-05
15350.0 3.7478e-05
15370.0 3.758e-05
15390.0 3.7684e-05
15410.0 3.7789e-05
15430.0 3.7896e-05
15450.0 3.8004e-05
15470.0 3.8114e-05
15490.0 3.8225e-05
15510.0 3.8338e-05
15530.0 3.8452e-05
15550.0 3.8568e-05
15570.0 3.8685e-05
15590.0 3.8802e-05
15610.0 3.8921e-05
15630.0 3.9042e-05
15650.0 3.9164e-05
15670.0 3.9286e-05
15690.0 3.941e-05
15710.0 3.9535e-05
15730.0 3.966e-05
15750.0 3.9787e-05
15770.0 3.9915e-05
15790.0 4.0043e-05
15810.0 4.0172e-05
15830.0 4.0302e-05
15850.0 4.0433e-05
15870.0 4.0564e-05
15890.0 4.0696e-05
15910.0 4.0829e-05
15930.0 4.0962e-05
15950.0 4.1095e-05
15970.0 4.1229e-05
15990.0 4.1364e-05
16010.0 4.1499e-05
16030.0 4.1633e-05
16050.0 4.1769e-05
16070.0 4.1904e-05
16090.0 4.204e-05
16110.0 4.2175e-05
16130.0 4.2311e-05
16150.0 4.2447e-05
16170.0 4.2582e-05
16190.0 4.2718e-05
16210.0 4.2853e-05
16230.0 4.2988e-05
16250.0 4.3122e-05
16270.0 4.3257e-05
16290.0 4.3391e-05
16310.0 4.3524e-05
16330.0 4.3657e-05
16350.0 4.3789e-05
16370.0 4.392e-05
16390.0 4.4052e-05
16410.0 4.4182e-05
16430.0 4.4311e-05
16450.0 4.4439e-05
16470.0 4.4567e-05
16490.0 4.4694e-05
16510.0 4.4819e-05
16530.0 4.4943e-05
16550.0 4.5067e-05
16570.0 4.5188e-05
16590.0 4.5309e-05
16610.0 4.5429e-05
16630.0 4.5547e-05
16650.0 4.5663e-05
16670.0 4.5778e-05
16690.0 4.5891e-05
16710.0 4.6003e-05
16730.0 4.6113e-05
16750.0 4.6221e-05
16770.0 4.6328e-05
16790.0 4.6432e-05
16810.0 4.6535e-05
16830.0 4.6636e-05
16850.0 4.6734e-05
16870.0 4.6831e-05
16890.0 4.6925e-05
16910.0 4.7018e-05
16930.0 4.7107e-05
16950.0 4.7195e-05
16970.0 4.7281e-05
16990.0 4.7363e-05
17010.0 4.7444e-05
17030.0 4.7523e-05
17050.0 4.7598e-05
17070.0 4.7671e-05
17090.0 4.7741e-05
17110.0 4.7809e-05
17130.0 4.7874e-05
17150.0 4.7936e-05
17170.0 4.7996e-05
17190.0 4.8052e-05
17210.0 4.8106e-05
17230.0 4.8157e-05
17250.0 4.8205e-05
17270.0 4.8249e-05
17290.0 4.8291e-05
17310.0 4.833e-05
17330.0 4.8366e-05
17350.0 4.8398e-05
17370.0 4.8428e-05
17390.0 4.8455e-05
17410.0 4.8478e-05
17430.0 4.8498e-05
17450.0 4.8515e-05
17470.0 4.8528e-05
17490.0 4.8539e-05
17510.0 4.8546e-05
17530.0 4.855e-05
17550.0 4.855e-05
17570.0 4.8547e-05
17590.0 4.8541e-05
17610.0 4.8531e-05
17630.0 4.8518e-05
17650.0 4.8502e-05
17670.0 4.8483e-05
17690.0 4.8459e-05
17710.0 4.8433e-05
17730.0 4.8404e-05
17750.0 4.837e-05
17770.0 4.8334e-05
17790.0 4.8294e-05
17810.0 4.8251e-05
17830.0 4.8204e-05
17850.0 4.8155e-05
17870.0 4.8102e-05
17890.0 4.8045e-05
17910.0 4.7985e-05
17930.0 4.7922e-05
17950.0 4.7856e-05
17970.0 4.7786e-05
17990.0 4.7714e-05
18010.0 4.7638e-05
18030.0 4.7558e-05
18050.0 4.7476e-05
18070.0 4.7391e-05
18090.0 4.7302e-05
18110.0 4.721e-05
18130.0 4.7116e-05
18150.0 4.7018e-05
18170.0 4.6917e-05
18190.0 4.6813e-05
18210.0 4.6707e-05
18230.0 4.6597e-05
18250.0 4.6485e-05
18270.0 4.637e-05
18290.0 4.6252e-05
18310.0 4.6131e-05
18330.0 4.6008e-05
18350.0 4.5882e-05
18370.0 4.5753e-05
18390.0 4.5622e-05
18410.0 4.5489e-05
18430.0 4.5352e-05
18450.0 4.5213e-05
18470.0 4.5072e-05
18490.0 4.4929e-05
18510.0 4.4783e-05
18530.0 4.4635e-05
18550.0 4.4485e-05
18570.0 4.4333e-05
18590.0 4.4178e-05
18610.0 4.4022e-05
18630.0 4.3864e-05
18650.0 4.3703e-05
18670.0 4.354e-05
18690.0 4.3376e-05
18710.0 4.321e-05
18730.0 4.3042e-05
18750.0 4.2873e-05
18770.0 4.2702e-05
18790.0 4.2529e-05
18810.0 4.2354e-05
18830.0 4.2179e-05
18850.0 4.2002e-05
18870.0 4.1823e-05
18890.0 4.1643e-05
18910.0 4.1462e-05
18930.0 4.1279e-05
18950.0 4.1095e-05
18970.0 4.0911e-05
18990.0 4.0725e-05
19010.0 4.0537e-05
19030.0 4.035e-05
19050.0 4.0161e-05
19070.0 3.9971e-05
19090.0 3.978e-05
19110.0 3.9589e-05
19130.0 3.9397e-05
19150.0 3.9204e-05
19170.0 3.9011e-05
19190.0 3.8817e-05
19210.0 3.8622e-05
19230.0 3.8427e-05
19250.0 3.8231e-05
19270.0 3.8035e-05
19290.0 3.7839e-05
19310.0 3.7643e-05
19330.0 3.7446e-05
19350.0 3.7248e-05
19370.0 3.7051e-05
19390.0 3.6854e-05
19410.0 3.6656e-05
19430.0 3.6458e-05
19450.0 3.6261e-05
19470.0 3.6064e-05
19490.0 3.5866e-05
19510.0 3.5668e-05
19530.0 3.5471e-05
19550.0 3.5274e-05
19570.0 3.5077e-05
19590.0 3.488e-05
19610.0 3.4684e-05
19630.0 3.4488e-05
19650.0 3.4292e-05
19670.0 3.4097e-05
19690.0 3.3902e-05
19710.0 3.3707e-05
19730.0 3.3514e-05
19750.0 3.332e-05
19770.0 3.3127e-05
19790.0 3.2935e-05
19810.0 3.2743e-05
19830.0 3.255e-05
19850.0 3.2357e-05
19870.0 3.2162e-05
19890.0 3.1961e-05
19910.0 3.1748e-05
19930.0 3.1517e-05
19950.0 3.1259e-05
19970.0 3.0957e-05
19990.0 3.0603e-05
20010.0 3.0206e-05
20030.0 2.9745e-05
20050.0 2.9226e-05
20070.0 2.8675e-05
20090.0 2.8098e-05
20110.0 2.7477e-05
20130.0 2.6862e-05
20150.0 2.6265e-05
20170.0 2.5665e-05
20190.0 2.5072e-05
20210.0 2.4515e-05
20230.0 2.3976e-05
20250.0 2.3443e-05
20270.0 2.2941e-05
20290.0 2.247e-05
20310.0 2.2013e-05
20330.0 2.157e-05
20350.0 2.117e-05
20370.0 2.0789e-05
20390.0 2.0422e-05
20410.0 2.0081e-05
20430.0 1.9767e-05
20450.0 1.9462e-05
20470.0 1.9178e-05
20490.0 1.8919e-05
20510.0 1.8677e-05
20530.0 1.8447e-05
20550.0 1.8238e-05
20570.0 1.8048e-05
20590.0 1.7869e-05
20610.0 1.7704e-05
20630.0 1.7555e-05
20650.0 1.7416e-05
20670.0 1.7288e-05
20690.0 1.7171e-05
20710.0 1.7062e-05
20730.0 1.696e-05
20750.0 1.6864e-05
20770.0 1.6773e-05
20790.0 1.6685e-05
20810.0 1.6599e-05
20830.0 1.6514e-05
20850.0 1.6429e-05
20870.0 1.6343e-05
20890.0 1.6254e-05
20910.0 1.6162e-05
20930.0 1.6066e-05
20950.0 1.5966e-05
20970.0 1.5861e-05
20990.0 1.5751e-05
21010.0 1.5635e-05
21030.0 1.5514e-05
21050.0 1.5388e-05
21070.0 1.5257e-05
21090.0 1.5118e-05
21110.0 1.4978e-05
21130.0 1.4834e-05
21150.0 1.4684e-05
21170.0 1.4532e-05
21190.0 1.4379e-05
21210.0 1.4222e-05
21230.0 1.406e-05
21250.0 1.3902e-05
21270.0 1.3743e-05
21290.0 1.3581e-05
21310.0 1.3421e-05
21330.0 1.3266e-05
21350.0 1.311e-05
21370.0 1.2955e-05
21390.0 1.2807e-05
21410.0 1.2663e-05
21430.0 1.2519e-05
21450.0 1.2383e-05
21470.0 1.2255e-05
21490.0 1.2131e-05
21510.0 1.2014e-05
21530.0 1.1907e-05
21550.0 1.1807e-05
21570.0 1.1713e-05
21590.0 1.1629e-05
21610.0 1.1554e-05
21630.0 1.1486e-05
21650.0 1.1427e-05
21670.0 1.1375e-05
21690.0 1.1331e-05
21710.0 1.1294e-05
21730.0 1.1263e-05
21750.0 1.1236e-05
21770.0 1.1215e-05
21790.0 1.1199e-05
21810.0 1.1185e-05
21830.0 1.1173e-05
21850.0 1.1164e-05
21870.0 1.1154e-05
21890.0 1.1143e-05
21910.0 1.1133e-05
21930.0 1.1121e-05
21950.0 1.1106e-05
21970.0 1.1089e-05
21990.0 1.107e-05
22010.0 1.1047e-05
22030.0 1.102e-05
22050.0 1.0991e-05
22070.0 1.0958e-05
22090.0 1.0922e-05
22110.0 1.0883e-05
22130.0 1.0841e-05
22150.0 1.0797e-05
22170.0 1.0751e-05
22190.0 1.0702e-05
22210.0 1.0652e-05
22230.0 1.06e-05
22250.0 1.0546e-05
22270.0 1.0489e-05
22290.0 1.0432e-05
22310.0 1.0372e-05
22330.0 1.0309e-05
22350.0 1.0242e-05
22370.0 1.0174e-05
22390.0 1.01e-05
22410.0 1.0021e-05
22430.0 9.938e-06
22450.0 9.8503e-06
22470.0 9.7548e-06
22490.0 9.6537e-06
22510.0 9.5489e-06
22530.0 9.4351e-06
22550.0 9.3134e-06
22570.0 9.19e-06
22590.0 9.0619e-06
22610.0 8.9261e-06
