#lamb flux
1010.0 3.854e-06
1030.0 3.87e-06
1050.0 3.8875e-06
1070.0 3.9787e-06
1090.0 4.2292e-06
1110.0 4.4239e-06
1130.0 4.5629e-06
1150.0 4.6742e-06
1170.0 4.7556e-06
1190.0 4.7794e-06
1210.0 4.7848e-06
1230.0 4.7832e-06
1250.0 4.7629e-06
1270.0 4.7264e-06
1290.0 4.7027e-06
1310.0 4.6773e-06
1330.0 4.6442e-06
1350.0 4.6214e-06
1370.0 4.616e-06
1390.0 4.6185e-06
1410.0 4.6329e-06
1430.0 4.678e-06
1450.0 4.7485e-06
1470.0 4.8426e-06
1490.0 4.9736e-06
1510.0 5.1546e-06
1530.0 5.3706e-06
1550.0 5.6353e-06
1570.0 5.9639e-06
1590.0 6.358e-06
1610.0 6.8168e-06
1630.0 7.3672e-06
1650.0 8.016e-06
1670.0 8.7607e-06
1690.0 9.6167e-06
1710.0 1.061e-05
1730.0 1.1746e-05
1750.0 1.3017e-05
1770.0 1.4462e-05
1790.0 1.6093e-05
1810.0 1.7902e-05
1830.0 1.9901e-05
1850.0 2.2133e-05
1870.0 2.4565e-05
1890.0 2.7188e-05
1910.0 3.0026e-05
1930.0 3.3078e-05
1950.0 3.628e-05
1970.0 3.9631e-05
1990.0 4.3144e-05
2010.0 4.6749e-05
2030.0 5.0388e-05
2050.0 5.4082e-05
2070.0 5.7791e-05
2090.0 6.1386e-05
2110.0 6.4878e-05
2130.0 6.8264e-05
2150.0 7.1452e-05
2170.0 7.4379e-05
2190.0 7.711e-05
2210.0 7.9589e-05
2230.0 8.1742e-05
2250.0 8.3603e-05
2270.0 8.523e-05
2290.0 8.6533e-05
2310.0 8.7508e-05
2330.0 8.8261e-05
2350.0 8.8783e-05
2370.0 8.9038e-05
2390.0 8.9121e-05
2410.0 8.9117e-05
2430.0 8.897e-05
2450.0 8.8736e-05
2470.0 8.8533e-05
2490.0 8.8409e-05
2510.0 8.8327e-05
2530.0 8.8542e-05
2550.0 8.9369e-05
2570.0 9.1054e-05
2590.0 9.3943e-05
2610.0 9.9031e-05
2630.0 0.00010648
2650.0 0.00011589
2670.0 0.00012755
2690.0 0.00014132
2710.0 0.00015563
2730.0 0.00016988
2750.0 0.00018485
2770.0 0.00019958
2790.0 0.00021368
2810.0 0.00022811
2830.0 0.0002437
2850.0 0.00025889
2870.0 0.00027451
2890.0 0.00029134
2910.0 0.00030879
2930.0 0.00032619
2950.0 0.00034489
2970.0 0.00036473
2990.0 0.00038477
3010.0 0.00040547
3030.0 0.00042761
3050.0 0.00045047
3070.0 0.00047274
3090.0 0.00049546
3110.0 0.00051753
3130.0 0.00053728
3150.0 0.00055417
3170.0 0.00056764
3190.0 0.00057706
3210.0 0.00058381
3230.0 0.00058943
3250.0 0.00059603
3270.0 0.00060609
3290.0 0.00062094
3310.0 0.00064181
3330.0 0.00066811
3350.0 0.00069813
3370.0 0.00073135
3390.0 0.00076549
3410.0 0.00080023
3430.0 0.00087051
3450.0 0.0009225
3470.0 0.00096843
3490.0 0.00098324
3510.0 0.00097037
3530.0 0.0010995
3550.0 0.001308
3570.0 0.0014381
3590.0 0.0015367
3610.0 0.0015497
3630.0 0.00147
3650.0 0.0015798
3670.0 0.0018898
3690.0 0.0021235
3710.0 0.0022172
3730.0 0.0022697
3750.0 0.0023878
3770.0 0.0023932
3790.0 0.0022938
3810.0 0.0021589
3830.0 0.0020137
3850.0 0.0020081
3870.0 0.0021308
3890.0 0.0022511
3910.0 0.0023442
3930.0 0.0023724
3950.0 0.0025316
3970.0 0.0027046
3990.0 0.0026056
4010.0 0.0023274
4030.0 0.0020671
4050.0 0.0019898
4070.0 0.0020715
4090.0 0.0020882
4110.0 0.0020296
4130.0 0.002004
4150.0 0.0020571
4170.0 0.0022708
4190.0 0.002459
4210.0 0.002382
4230.0 0.0022234
4250.0 0.002138
4270.0 0.0020894
4290.0 0.0021265
4310.0 0.0021902
4330.0 0.0020858
4350.0 0.0018348
4370.0 0.0016242
4390.0 0.0014797
4410.0 0.001366
4430.0 0.0013665
4450.0 0.0014864
4470.0 0.0016072
4490.0 0.0017492
4510.0 0.0019788
4530.0 0.0024207
4550.0 0.0029218
4570.0 0.0032225
4590.0 0.0034461
4610.0 0.0037054
4630.0 0.0038309
4650.0 0.0035685
4670.0 0.0029938
4690.0 0.0025447
4710.0 0.0023904
4730.0 0.0023107
4750.0 0.0020706
4770.0 0.0018788
4790.0 0.0019512
4810.0 0.0021204
4830.0 0.0021113
4850.0 0.0019463
4870.0 0.0019064
4890.0 0.0019889
4910.0 0.0020807
4930.0 0.0020784
4950.0 0.0020208
4970.0 0.0019249
4990.0 0.0017692
5010.0 0.0016249
5030.0 0.001543
5050.0 0.0015051
5070.0 0.0014796
5090.0 0.0014558
5110.0 0.0014537
5130.0 0.0014761
5150.0 0.001559
5170.0 0.0017216
5190.0 0.0019191
5210.0 0.0021253
5230.0 0.0022497
5250.0 0.0023134
5270.0 0.0024301
5290.0 0.0025433
5310.0 0.0025687
5330.0 0.0024707
5350.0 0.0023573
5370.0 0.0023554
5390.0 0.0024803
5410.0 0.0026007
5430.0 0.0026407
5450.0 0.0026231
5470.0 0.0025444
5490.0 0.0024484
5510.0 0.0023987
5530.0 0.0024067
5550.0 0.0024404
5570.0 0.0024619
5590.0 0.0023867
5610.0 0.0022484
5630.0 0.0021129
5650.0 0.0020063
5670.0 0.0019404
5690.0 0.0018601
5710.0 0.0017984
5730.0 0.001823
5750.0 0.0018173
5770.0 0.0017776
5790.0 0.0017916
5810.0 0.0018311
5830.0 0.0018679
5850.0 0.00188
5870.0 0.0018392
5890.0 0.0017588
5910.0 0.0016672
5930.0 0.0015382
5950.0 0.0014455
5970.0 0.0014419
5990.0 0.0014858
6010.0 0.0015015
6030.0 0.0014484
6050.0 0.0014267
6070.0 0.0014817
6090.0 0.0015551
6110.0 0.0015825
6130.0 0.0015284
6150.0 0.0014393
6170.0 0.0013807
6190.0 0.0013228
6210.0 0.0012608
6230.0 0.0012137
6250.0 0.0011992
6270.0 0.0012303
6290.0 0.001286
6310.0 0.0013575
6330.0 0.0014361
6350.0 0.0015013
6370.0 0.0015305
6390.0 0.0015336
6410.0 0.0015497
6430.0 0.0015687
6450.0 0.0015739
6470.0 0.0015941
6490.0 0.0016185
6510.0 0.0016253
6530.0 0.0016079
6550.0 0.0015624
6570.0 0.001505
6590.0 0.0014611
6610.0 0.0014286
6630.0 0.0014002
6650.0 0.001352
6670.0 0.0012949
6690.0 0.0012521
6710.0 0.0012257
6730.0 0.0012175
6750.0 0.0012026
6770.0 0.0011784
6790.0 0.0011601
6810.0 0.0011455
6830.0 0.0011425
6850.0 0.0011434
6870.0 0.0011346
6890.0 0.0011274
6910.0 0.0011038
6930.0 0.0010781
6950.0 0.0010721
6970.0 0.001054
6990.0 0.0010211
7010.0 0.0010055
7030.0 0.00099288
7050.0 0.00097054
7070.0 0.00094405
7090.0 0.00092522
7110.0 0.00093493
7130.0 0.00097132
7150.0 0.0010129
7170.0 0.0010397
7190.0 0.0010319
7210.0 0.0010119
7230.0 0.00099874
7250.0 0.00098552
7270.0 0.00097698
7290.0 0.00096437
7310.0 0.00095818
7330.0 0.0009748
7350.0 0.0009939
7370.0 0.001004
7390.0 0.0009942
7410.0 0.0009699
7430.0 0.00095812
7450.0 0.00094734
7470.0 0.00090124
7490.0 0.00086765
7510.0 0.00083138
7530.0 0.00080492
7550.0 0.00080173
7570.0 0.00081142
7590.0 0.00080688
7610.0 0.00079911
7630.0 0.00079593
7650.0 0.00079289
7670.0 0.00080823
7690.0 0.00083784
7710.0 0.0008729
7730.0 0.00089965
7750.0 0.0009258
7770.0 0.00093893
7790.0 0.00093683
7810.0 0.00092286
7830.0 0.00093292
7850.0 0.0009318
7870.0 0.00090182
7890.0 0.0008696
7910.0 0.00084219
7930.0 0.00081436
7950.0 0.00079496
7970.0 0.00079215
7990.0 0.00080219
8010.0 0.00079359
8030.0 0.00078458
8050.0 0.00077133
8070.0 0.00075673
8090.0 0.00074149
8110.0 0.00074259
8130.0 0.00074847
8150.0 0.00074736
8170.0 0.00074206
8190.0 0.0007268
8210.0 0.00069016
8230.0 0.00064367
8250.0 0.00061507
8270.0 0.00059693
8290.0 0.00058557
8310.0 0.00058737
8330.0 0.00059684
8350.0 0.00058407
8370.0 0.0005706
8390.0 0.00058105
8410.0 0.00060765
8430.0 0.0006466
8450.0 0.0006844
8470.0 0.00069979
8490.0 0.00071187
8510.0 0.00071525
8530.0 0.00071933
8550.0 0.00072787
8570.0 0.00073179
8590.0 0.00073551
8610.0 0.00075594
8630.0 0.00076425
8650.0 0.00074838
8670.0 0.00074808
8690.0 0.00075398
8710.0 0.00075291
8730.0 0.00074664
8750.0 0.00072574
8770.0 0.00071648
8790.0 0.00071126
8810.0 0.00070285
8830.0 0.00066339
8850.0 0.00061056
8870.0 0.00057192
8890.0 0.00055009
8910.0 0.00051777
8930.0 0.00048213
8950.0 0.00046406
8970.0 0.00046173
8990.0 0.00046425
9010.0 0.00046202
9030.0 0.00045876
9050.0 0.00045575
9070.0 0.00045296
9090.0 0.00045021
9110.0 0.00044748
9130.0 0.00044476
9150.0 0.00044205
9170.0 0.00043934
9190.0 0.00043663
9210.0 0.00043392
9230.0 0.00043126
9250.0 0.00042861
9270.0 0.00042595
9290.0 0.00042331
9310.0 0.00042069
9330.0 0.00041806
9350.0 0.00041546
9370.0 0.00041286
9390.0 0.00041028
9410.0 0.0004077
9430.0 0.00040512
9450.0 0.00040247
9470.0 0.00039988
9490.0 0.00039746
9510.0 0.00039499
9530.0 0.00039253
9550.0 0.00039005
9570.0 0.00038758
9590.0 0.00038514
9610.0 0.0003827
9630.0 0.00038026
9650.0 0.00037784
9670.0 0.00037545
9690.0 0.00037305
9710.0 0.00037067
9730.0 0.00036831
9750.0 0.00036596
9770.0 0.00036361
9790.0 0.00036128
9810.0 0.00035896
9830.0 0.00035661
9850.0 0.000354
9870.0 0.00035179
9890.0 0.00034963
9910.0 0.00034743
9930.0 0.00034518
9950.0 0.00034302
9970.0 0.00034079
9990.0 0.00033853
10010.0 0.000336
10030.0 0.00033367
10050.0 0.00033165
10070.0 0.00032959
10090.0 0.00032753
10110.0 0.00032529
10130.0 0.00032261
10150.0 0.00032057
10170.0 0.00031862
10190.0 0.00031655
10210.0 0.00031452
10230.0 0.00031248
10250.0 0.00031035
10270.0 0.00030822
10290.0 0.00030616
10310.0 0.00030403
10330.0 0.00030184
10350.0 0.00029976
10370.0 0.00029768
10390.0 0.00029553
10410.0 0.0002934
10430.0 0.00029136
10450.0 0.00028925
10470.0 0.0002871
10490.0 0.00028503
10510.0 0.00028297
10530.0 0.00028079
10550.0 0.00027866
10570.0 0.00027661
10590.0 0.0002745
10610.0 0.00027235
10630.0 0.00027028
10650.0 0.00026821
10670.0 0.00026603
10690.0 0.00026391
10710.0 0.00026184
10730.0 0.00025969
10750.0 0.00025748
10770.0 0.00025541
10790.0 0.00025331
10810.0 0.00025113
10830.0 0.00024899
10850.0 0.00024692
10870.0 0.00024472
10890.0 0.00024252
10910.0 0.00024043
10930.0 0.00023833
10950.0 0.00023618
10970.0 0.00023413
10990.0 0.00023219
11010.0 0.0002368
11030.0 0.00023503
11050.0 0.00023334
11070.0 0.00023164
11090.0 0.00022982
11110.0 0.00022809
11130.0 0.00022636
11150.0 0.00022456
11170.0 0.00022277
11190.0 0.00022107
11210.0 0.00021936
11230.0 0.00021766
11250.0 0.00021606
11270.0 0.00021456
11290.0 0.00021306
11310.0 0.00021164
11330.0 0.00021036
11350.0 0.00020911
11370.0 0.00020789
11390.0 0.00020676
11410.0 0.00020568
11430.0 0.00020456
11450.0 0.00020346
11470.0 0.00020239
11490.0 0.00020126
11510.0 0.00020007
11530.0 0.00019886
11550.0 0.00019761
11570.0 0.00019623
11590.0 0.00019479
11610.0 0.00019331
11630.0 0.00019169
11650.0 0.00018995
11670.0 0.0001882
11690.0 0.00018639
11710.0 0.00018446
11730.0 0.0001825
11750.0 0.00018057
11770.0 0.00017855
11790.0 0.00017649
11810.0 0.00017449
11830.0 0.0001725
11850.0 0.00017043
11870.0 0.00016844
11890.0 0.00016654
11910.0 0.00016462
11930.0 0.00016272
11950.0 0.00016094
11970.0 0.00015919
11990.0 0.00015744
12010.0 0.00015578
12030.0 0.00015423
12050.0 0.00015269
12070.0 0.0001512
12090.0 0.00014987
12110.0 0.00014859
12130.0 0.00014736
12150.0 0.00014625
12170.0 0.00014525
12190.0 0.0001443
12210.0 0.00014347
12230.0 0.00014278
12250.0 0.00014218
12270.0 0.00014169
12290.0 0.00014132
12310.0 0.00014106
12330.0 0.0001409
12350.0 0.00014083
12370.0 0.00014084
12390.0 0.00014091
12410.0 0.00014105
12430.0 0.0001412
12450.0 0.00014136
12470.0 0.00014153
12490.0 0.00014167
12510.0 0.00014176
12530.0 0.0001418
12550.0 0.00014177
12570.0 0.00014165
12590.0 0.00014142
12610.0 0.00014108
12630.0 0.00014061
12650.0 0.00014004
12670.0 0.00013933
12690.0 0.00013849
12710.0 0.00013756
12730.0 0.00013653
12750.0 0.00013536
12770.0 0.00013412
12790.0 0.00013285
12810.0 0.0001315
12830.0 0.00013008
12850.0 0.00012868
12870.0 0.00012728
12890.0 0.00012583
12910.0 0.0001244
12930.0 0.00012302
12950.0 0.0001216
12970.0 0.00012018
12990.0 0.00011883
13010.0 0.0001175
13030.0 0.00011615
13050.0 0.00011484
13070.0 0.0001136
13090.0 0.00011234
13110.0 0.00011111
13130.0 0.00010994
13150.0 0.00010882
13170.0 0.00010768
13190.0 0.00010663
13210.0 0.00010566
13230.0 0.00010471
13250.0 0.0001038
13270.0 0.00010298
13290.0 0.00010218
13310.0 0.00010141
13330.0 0.00010068
13350.0 9.9998e-05
13370.0 9.9314e-05
13390.0 9.8634e-05
13410.0 9.7991e-05
13430.0 9.7339e-05
13450.0 9.6667e-05
13470.0 9.6e-05
13490.0 9.5337e-05
13510.0 9.4627e-05
13530.0 9.391e-05
13550.0 9.3204e-05
13570.0 9.2477e-05
13590.0 9.1722e-05
13610.0 9.0978e-05
13630.0 9.0245e-05
13650.0 8.948e-05
13670.0 8.8717e-05
13690.0 8.7975e-05
13710.0 8.7223e-05
13730.0 8.6439e-05
13750.0 8.5694e-05
13770.0 8.4954e-05
13790.0 8.4192e-05
13810.0 8.3431e-05
13830.0 8.2697e-05
13850.0 8.1937e-05
13870.0 8.1159e-05
13890.0 8.0402e-05
13910.0 7.9646e-05
13930.0 7.8857e-05
13950.0 7.8066e-05
13970.0 7.7309e-05
13990.0 7.6527e-05
14010.0 7.5727e-05
14030.0 7.4949e-05
14050.0 7.4174e-05
14070.0 7.3356e-05
14090.0 7.256e-05
14110.0 7.1787e-05
14130.0 7.1003e-05
14150.0 7.0211e-05
14170.0 6.9469e-05
14190.0 6.8745e-05
14210.0 6.8018e-05
14230.0 6.733e-05
14250.0 6.669e-05
14270.0 6.6057e-05
14290.0 6.545e-05
14310.0 6.4908e-05
14330.0 6.4396e-05
14350.0 6.3902e-05
14370.0 6.345e-05
14390.0 6.3042e-05
14410.0 6.2643e-05
14430.0 6.2266e-05
14450.0 6.1923e-05
14470.0 6.1596e-05
14490.0 6.1269e-05
14510.0 6.0966e-05
14530.0 6.0683e-05
14550.0 6.0398e-05
14570.0 6.0119e-05
14590.0 5.9859e-05
14610.0 5.9599e-05
14630.0 5.9335e-05
14650.0 5.9086e-05
14670.0 5.8851e-05
14690.0 5.8618e-05
14710.0 5.8397e-05
14730.0 5.821e-05
14750.0 5.8042e-05
14770.0 5.79e-05
14790.0 5.7801e-05
14810.0 5.7747e-05
14830.0 5.774e-05
14850.0 5.7794e-05
14870.0 5.7907e-05
14890.0 5.8078e-05
14910.0 5.8309e-05
14930.0 5.8575e-05
14950.0 5.8861e-05
14970.0 5.9159e-05
14990.0 5.9437e-05
15010.0 5.9676e-05
15030.0 5.9874e-05
15050.0 6.0028e-05
15070.0 6.0137e-05
15090.0 6.0215e-05
15110.0 6.0271e-05
15130.0 6.0314e-05
15150.0 6.0353e-05
15170.0 6.0387e-05
15190.0 6.0419e-05
15210.0 6.0456e-05
15230.0 6.0494e-05
15250.0 6.0531e-05
15270.0 6.057e-05
15290.0 6.0615e-05
15310.0 6.066e-05
15330.0 6.0706e-05
15350.0 6.0755e-05
15370.0 6.0807e-05
15390.0 6.0857e-05
15410.0 6.0911e-05
15430.0 6.0968e-05
15450.0 6.1025e-05
15470.0 6.1083e-05
15490.0 6.1145e-05
15510.0 6.1209e-05
15530.0 6.1272e-05
15550.0 6.1338e-05
15570.0 6.1408e-05
15590.0 6.1476e-05
15610.0 6.1545e-05
15630.0 6.1619e-05
15650.0 6.1694e-05
15670.0 6.1768e-05
15690.0 6.1845e-05
15710.0 6.1926e-05
15730.0 6.2005e-05
15750.0 6.2085e-05
15770.0 6.2169e-05
15790.0 6.2253e-05
15810.0 6.2336e-05
15830.0 6.2422e-05
15850.0 6.2512e-05
15870.0 6.26e-05
15890.0 6.2689e-05
15910.0 6.2782e-05
15930.0 6.2875e-05
15950.0 6.2966e-05
15970.0 6.3061e-05
15990.0 6.3158e-05
16010.0 6.3253e-05
16030.0 6.3348e-05
16050.0 6.3449e-05
16070.0 6.3548e-05
16090.0 6.3647e-05
16110.0 6.3748e-05
16130.0 6.3852e-05
16150.0 6.3951e-05
16170.0 6.4053e-05
16190.0 6.4158e-05
16210.0 6.4262e-05
16230.0 6.4365e-05
16250.0 6.4471e-05
16270.0 6.4578e-05
16290.0 6.4683e-05
16310.0 6.4788e-05
16330.0 6.4897e-05
16350.0 6.5004e-05
16370.0 6.5108e-05
16390.0 6.5216e-05
16410.0 6.5325e-05
16430.0 6.5432e-05
16450.0 6.5539e-05
16470.0 6.565e-05
16490.0 6.5757e-05
16510.0 6.5863e-05
16530.0 6.5972e-05
16550.0 6.6081e-05
16570.0 6.6186e-05
16590.0 6.6292e-05
16610.0 6.6402e-05
16630.0 6.6508e-05
16650.0 6.6613e-05
16670.0 6.672e-05
16690.0 6.6827e-05
16710.0 6.6929e-05
16730.0 6.7034e-05
16750.0 6.7139e-05
16770.0 6.7242e-05
16790.0 6.7342e-05
16810.0 6.7446e-05
16830.0 6.7548e-05
16850.0 6.7646e-05
16870.0 6.7746e-05
16890.0 6.7846e-05
16910.0 6.7942e-05
16930.0 6.8036e-05
16950.0 6.8133e-05
16970.0 6.8228e-05
16990.0 6.8319e-05
17010.0 6.8411e-05
17030.0 6.8504e-05
17050.0 6.8592e-05
17070.0 6.8678e-05
17090.0 6.8766e-05
17110.0 6.8852e-05
17130.0 6.8932e-05
17150.0 6.9015e-05
17170.0 6.9097e-05
17190.0 6.9175e-05
17210.0 6.9251e-05
17230.0 6.9328e-05
17250.0 6.9402e-05
17270.0 6.9471e-05
17290.0 6.9541e-05
17310.0 6.9611e-05
17330.0 6.9675e-05
17350.0 6.9737e-05
17370.0 6.9802e-05
17390.0 6.9862e-05
17410.0 6.9917e-05
17430.0 6.9974e-05
17450.0 7.0029e-05
17470.0 7.0077e-05
17490.0 7.0124e-05
17510.0 7.0173e-05
17530.0 7.0217e-05
17550.0 7.0256e-05
17570.0 7.0296e-05
17590.0 7.0335e-05
17610.0 7.0366e-05
17630.0 7.0397e-05
17650.0 7.0428e-05
17670.0 7.0454e-05
17690.0 7.0473e-05
17710.0 7.0495e-05
17730.0 7.0515e-05
17750.0 7.0528e-05
17770.0 7.054e-05
17790.0 7.0552e-05
17810.0 7.0557e-05
17830.0 7.0558e-05
17850.0 7.056e-05
17870.0 7.0559e-05
17890.0 7.0551e-05
17910.0 7.0541e-05
17930.0 7.0532e-05
17950.0 7.0517e-05
17970.0 7.0497e-05
17990.0 7.0478e-05
18010.0 7.0455e-05
18030.0 7.0424e-05
18050.0 7.0393e-05
18070.0 7.0361e-05
18090.0 7.0323e-05
18110.0 7.0281e-05
18130.0 7.0239e-05
18150.0 7.0193e-05
18170.0 7.014e-05
18190.0 7.0087e-05
18210.0 7.0032e-05
18230.0 6.9969e-05
18250.0 6.9903e-05
18270.0 6.9838e-05
18290.0 6.9768e-05
18310.0 6.9691e-05
18330.0 6.9614e-05
18350.0 6.9536e-05
18370.0 6.945e-05
18390.0 6.936e-05
18410.0 6.9271e-05
18430.0 6.9176e-05
18450.0 6.9074e-05
18470.0 6.8973e-05
18490.0 6.887e-05
18510.0 6.876e-05
18530.0 6.8647e-05
18550.0 6.8534e-05
18570.0 6.8415e-05
18590.0 6.829e-05
18610.0 6.8165e-05
18630.0 6.8037e-05
18650.0 6.7902e-05
18670.0 6.7764e-05
18690.0 6.7628e-05
18710.0 6.7485e-05
18730.0 6.7337e-05
18750.0 6.7189e-05
18770.0 6.7038e-05
18790.0 6.6878e-05
18810.0 6.6717e-05
18830.0 6.6557e-05
18850.0 6.639e-05
18870.0 6.6219e-05
18890.0 6.6048e-05
18910.0 6.5874e-05
18930.0 6.5693e-05
18950.0 6.551e-05
18970.0 6.5327e-05
18990.0 6.5138e-05
19010.0 6.4942e-05
19030.0 6.475e-05
19050.0 6.4554e-05
19070.0 6.4351e-05
19090.0 6.4148e-05
19110.0 6.3944e-05
19130.0 6.3733e-05
19150.0 6.3519e-05
19170.0 6.3305e-05
19190.0 6.3088e-05
19210.0 6.2865e-05
19230.0 6.2641e-05
19250.0 6.2417e-05
19270.0 6.2188e-05
19290.0 6.1955e-05
19310.0 6.1723e-05
19330.0 6.1488e-05
19350.0 6.1245e-05
19370.0 6.1003e-05
19390.0 6.0761e-05
19410.0 6.0514e-05
19430.0 6.0263e-05
19450.0 6.0014e-05
19470.0 5.9762e-05
19490.0 5.9504e-05
19510.0 5.9247e-05
19530.0 5.8989e-05
19550.0 5.8725e-05
19570.0 5.8459e-05
19590.0 5.8195e-05
19610.0 5.7927e-05
19630.0 5.7655e-05
19650.0 5.7384e-05
19670.0 5.7113e-05
19690.0 5.6835e-05
19710.0 5.6557e-05
19730.0 5.628e-05
19750.0 5.6e-05
19770.0 5.5714e-05
19790.0 5.5431e-05
19810.0 5.5148e-05
19830.0 5.4859e-05
19850.0 5.4568e-05
19870.0 5.4275e-05
19890.0 5.3971e-05
19910.0 5.365e-05
19930.0 5.3311e-05
19950.0 5.294e-05
19970.0 5.2516e-05
19990.0 5.2034e-05
20010.0 5.1503e-05
20030.0 5.0897e-05
20050.0 5.0218e-05
20070.0 4.9501e-05
20090.0 4.8748e-05
20110.0 4.7933e-05
20130.0 4.7118e-05
20150.0 4.6318e-05
20170.0 4.5504e-05
20190.0 4.4688e-05
20210.0 4.391e-05
20230.0 4.3148e-05
20250.0 4.2383e-05
20270.0 4.1654e-05
20290.0 4.0963e-05
20310.0 4.0285e-05
20330.0 3.9622e-05
20350.0 3.902e-05
20370.0 3.8442e-05
20390.0 3.7884e-05
20410.0 3.7365e-05
20430.0 3.6885e-05
20450.0 3.6421e-05
20470.0 3.5988e-05
20490.0 3.5591e-05
20510.0 3.522e-05
20530.0 3.4869e-05
20550.0 3.4547e-05
20570.0 3.425e-05
20590.0 3.397e-05
20610.0 3.3708e-05
20630.0 3.3465e-05
20650.0 3.3235e-05
20670.0 3.3016e-05
20690.0 3.2808e-05
20710.0 3.2607e-05
20730.0 3.2411e-05
20750.0 3.2217e-05
20770.0 3.2023e-05
20790.0 3.1827e-05
20810.0 3.1626e-05
20830.0 3.1418e-05
20850.0 3.1202e-05
20870.0 3.0974e-05
20890.0 3.0733e-05
20910.0 3.0483e-05
20930.0 3.0218e-05
20950.0 2.9937e-05
20970.0 2.9644e-05
20990.0 2.9341e-05
21010.0 2.9018e-05
21030.0 2.8685e-05
21050.0 2.8345e-05
21070.0 2.7993e-05
21090.0 2.7625e-05
21110.0 2.726e-05
21130.0 2.6892e-05
21150.0 2.6513e-05
21170.0 2.6134e-05
21190.0 2.5763e-05
21210.0 2.5385e-05
21230.0 2.5005e-05
21250.0 2.4638e-05
21270.0 2.4277e-05
21290.0 2.3915e-05
21310.0 2.3563e-05
21330.0 2.3227e-05
21350.0 2.2893e-05
21370.0 2.2565e-05
21390.0 2.2252e-05
21410.0 2.1948e-05
21430.0 2.1644e-05
21450.0 2.1354e-05
21470.0 2.1077e-05
21490.0 2.0802e-05
21510.0 2.0533e-05
21530.0 2.0276e-05
21550.0 2.0024e-05
21570.0 1.9773e-05
21590.0 1.953e-05
21610.0 1.9293e-05
21630.0 1.9058e-05
21650.0 1.8823e-05
21670.0 1.8599e-05
21690.0 1.8376e-05
21710.0 1.8153e-05
21730.0 1.7935e-05
21750.0 1.7721e-05
21770.0 1.7504e-05
21790.0 1.729e-05
21810.0 1.708e-05
21830.0 1.687e-05
21850.0 1.6658e-05
21870.0 1.6449e-05
21890.0 1.6242e-05
21910.0 1.6032e-05
21930.0 1.5822e-05
21950.0 1.5615e-05
21970.0 1.5406e-05
21990.0 1.5193e-05
22010.0 1.4984e-05
22030.0 1.4776e-05
22050.0 1.4566e-05
22070.0 1.4356e-05
22090.0 1.4152e-05
22110.0 1.3947e-05
22130.0 1.3741e-05
22150.0 1.354e-05
22170.0 1.3343e-05
22190.0 1.3145e-05
22210.0 1.295e-05
22230.0 1.2764e-05
22250.0 1.2578e-05
22270.0 1.2395e-05
22290.0 1.2217e-05
22310.0 1.2045e-05
22330.0 1.1871e-05
22350.0 1.1702e-05
22370.0 1.1538e-05
22390.0 1.1376e-05
22410.0 1.1213e-05
22430.0 1.1056e-05
22450.0 1.0901e-05
22470.0 1.0745e-05
22490.0 1.0591e-05
22510.0 1.044e-05
22530.0 1.0287e-05
22550.0 1.0133e-05
22570.0 9.9831e-06
22590.0 9.8339e-06
22610.0 9.6829e-06
22630.0 9.5339e-06
22650.0 9.3892e-06
22670.0 9.2432e-06
22690.0 9.0984e-06
22710.0 8.9582e-06
22730.0 8.8208e-06
22750.0 8.6826e-06
22770.0 8.5505e-06
22790.0 8.4241e-06
22810.0 8.3e-06
