#lamb flux
1010.0 0.00038503
1030.0 0.00051368
1050.0 0.00067475
1070.0 0.00087208
1090.0 0.0011144
1110.0 0.0013888
1130.0 0.0016921
1150.0 0.0020332
1170.0 0.0024089
1190.0 0.0027945
1210.0 0.0032017
1230.0 0.0036301
1250.0 0.0040569
1270.0 0.0044695
1290.0 0.0048838
1310.0 0.0052725
1330.0 0.0056122
1350.0 0.0059101
1370.0 0.0061653
1390.0 0.0063532
1410.0 0.0064699
1430.0 0.0065364
1450.0 0.0065401
1470.0 0.006476
1490.0 0.0063623
1510.0 0.0062171
1530.0 0.0060209
1550.0 0.0057924
1570.0 0.0055487
1590.0 0.0052903
1610.0 0.0050173
1630.0 0.0047485
1650.0 0.0044868
1670.0 0.0042281
1690.0 0.003979
1710.0 0.0037471
1730.0 0.0035295
1750.0 0.0033225
1770.0 0.0031339
1790.0 0.0029619
1810.0 0.0028022
1830.0 0.0026558
1850.0 0.0025264
1870.0 0.0024076
1890.0 0.0022989
1910.0 0.0022022
1930.0 0.0021169
1950.0 0.0020392
1970.0 0.0019707
1990.0 0.0019128
2010.0 0.0018634
2030.0 0.0018221
2050.0 0.0017915
2070.0 0.001772
2090.0 0.0017616
2110.0 0.0017632
2130.0 0.0017788
2150.0 0.0018085
2170.0 0.0018528
2190.0 0.001916
2210.0 0.0019987
2230.0 0.0021014
2250.0 0.0022269
2270.0 0.0023787
2290.0 0.0025558
2310.0 0.0027592
2330.0 0.0029929
2350.0 0.0032572
2370.0 0.0035504
2390.0 0.0038748
2410.0 0.0042326
2430.0 0.0046186
2450.0 0.0050317
2470.0 0.0054735
2490.0 0.0059424
2510.0 0.0064334
2530.0 0.0069571
2550.0 0.0075319
2570.0 0.0081793
2590.0 0.0089342
2610.0 0.0098936
2630.0 0.011128
2650.0 0.012673
2670.0 0.014641
2690.0 0.017136
2710.0 0.020049
2730.0 0.023296
2750.0 0.026963
2770.0 0.030758
2790.0 0.034394
2810.0 0.037835
2830.0 0.041015
2850.0 0.043603
2870.0 0.045748
2890.0 0.047565
2910.0 0.049063
2930.0 0.05028
2950.0 0.051356
2970.0 0.052312
2990.0 0.053119
3010.0 0.053814
3030.0 0.054439
3050.0 0.054963
3070.0 0.055332
3090.0 0.055614
3110.0 0.055777
3130.0 0.055761
3150.0 0.056069
3170.0 0.056133
3190.0 0.056057
3210.0 0.055797
3230.0 0.0552
3250.0 0.053455
3270.0 0.050454
3290.0 0.047885
3310.0 0.046849
3330.0 0.047007
3350.0 0.047264
3370.0 0.047281
3390.0 0.047092
3410.0 0.046841
3430.0 0.046586
3450.0 0.04674
3470.0 0.047879
3490.0 0.048042
3510.0 0.046386
3530.0 0.048345
3550.0 0.053143
3570.0 0.065656
3590.0 0.073731
3610.0 0.080101
3630.0 0.086813
3650.0 0.08399
3670.0 0.07424
3690.0 0.066461
3710.0 0.064939
3730.0 0.067859
3750.0 0.069724
3770.0 0.070787
3790.0 0.071308
3810.0 0.071195
3830.0 0.065643
3850.0 0.058586
3870.0 0.055504
3890.0 0.057931
3910.0 0.059919
3930.0 0.060077
3950.0 0.061843
3970.0 0.064746
3990.0 0.066171
4010.0 0.067197
4030.0 0.065399
4050.0 0.063598
4070.0 0.062673
4090.0 0.06316
4110.0 0.063351
4130.0 0.062087
4150.0 0.060045
4170.0 0.059431
4190.0 0.059204
4210.0 0.056167
4230.0 0.052014
4250.0 0.046959
4270.0 0.042084
4290.0 0.039501
4310.0 0.038076
4330.0 0.039238
4350.0 0.042829
4370.0 0.04542
4390.0 0.049534
4410.0 0.053021
4430.0 0.054321
4450.0 0.051734
4470.0 0.048811
4490.0 0.048116
4510.0 0.047825
4530.0 0.047934
4550.0 0.047753
4570.0 0.048244
4590.0 0.049661
4610.0 0.050921
4630.0 0.052073
4650.0 0.052815
4670.0 0.052435
4690.0 0.049696
4710.0 0.047048
4730.0 0.045298
4750.0 0.044014
4770.0 0.042492
4790.0 0.042022
4810.0 0.04127
4830.0 0.043805
4850.0 0.041808
4870.0 0.044421
4890.0 0.04166
4910.0 0.038488
4930.0 0.0364
4950.0 0.033554
4970.0 0.03038
4990.0 0.028926
5010.0 0.027316
5030.0 0.0273
5050.0 0.027392
5070.0 0.029175
5090.0 0.03035
5110.0 0.031799
5130.0 0.032796
5150.0 0.033202
5170.0 0.033278
5190.0 0.033547
5210.0 0.033182
5230.0 0.032702
5250.0 0.032879
5270.0 0.03388
5290.0 0.033492
5310.0 0.032657
5330.0 0.031356
5350.0 0.02999
5370.0 0.029117
5390.0 0.028158
5410.0 0.028789
5430.0 0.028445
5450.0 0.028287
5470.0 0.028113
5490.0 0.029101
5510.0 0.029805
5530.0 0.029214
5550.0 0.029474
5570.0 0.029793
5590.0 0.030008
5610.0 0.029292
5630.0 0.028737
5650.0 0.027913
5670.0 0.028003
5690.0 0.027054
5710.0 0.026925
5730.0 0.026483
5750.0 0.026059
5770.0 0.025719
5790.0 0.024809
5810.0 0.024327
5830.0 0.024342
5850.0 0.02441
5870.0 0.024316
5890.0 0.024354
5910.0 0.024647
5930.0 0.025173
5950.0 0.024934
5970.0 0.025403
5990.0 0.025503
6010.0 0.025578
6030.0 0.025285
6050.0 0.024659
6070.0 0.024869
6090.0 0.025054
6110.0 0.024535
6130.0 0.023957
6150.0 0.023231
6170.0 0.022165
6190.0 0.020873
6210.0 0.020652
6230.0 0.020357
6250.0 0.020137
6270.0 0.020592
6290.0 0.020862
6310.0 0.020929
6330.0 0.021246
6350.0 0.021474
6370.0 0.021273
6390.0 0.020515
6410.0 0.020146
6430.0 0.019776
6450.0 0.019264
6470.0 0.018951
6490.0 0.019056
6510.0 0.018903
6530.0 0.018863
6550.0 0.018588
6570.0 0.018391
6590.0 0.018236
6610.0 0.01795
6630.0 0.017847
6650.0 0.017666
6670.0 0.017247
6690.0 0.016541
6710.0 0.016121
6730.0 0.015987
6750.0 0.015943
6770.0 0.01603
6790.0 0.015559
6810.0 0.015491
6830.0 0.015327
6850.0 0.015177
6870.0 0.014766
6890.0 0.014529
6910.0 0.014595
6930.0 0.014202
6950.0 0.014363
6970.0 0.014233
6990.0 0.014143
7010.0 0.013669
7030.0 0.013621
7050.0 0.013564
7070.0 0.013137
7090.0 0.012537
7110.0 0.012496
7130.0 0.012619
7150.0 0.012616
7170.0 0.012752
7190.0 0.01285
7210.0 0.013231
7230.0 0.013258
7250.0 0.013585
7270.0 0.013128
7290.0 0.013249
7310.0 0.012988
7330.0 0.012907
7350.0 0.012567
7370.0 0.01241
7390.0 0.012531
7410.0 0.012341
7430.0 0.012551
7450.0 0.012167
7470.0 0.01213
7490.0 0.011524
7510.0 0.010914
7530.0 0.011193
7550.0 0.010697
7570.0 0.011089
7590.0 0.010406
7610.0 0.01091
7630.0 0.010648
7650.0 0.01092
7670.0 0.010429
7690.0 0.010673
7710.0 0.010298
7730.0 0.010885
7750.0 0.010453
7770.0 0.011034
7790.0 0.011343
7810.0 0.011295
7830.0 0.011942
7850.0 0.011441
7870.0 0.012266
7890.0 0.011904
7910.0 0.011727
7930.0 0.01151
7950.0 0.011385
7970.0 0.011513
7990.0 0.011439
8010.0 0.010967
8030.0 0.010873
8050.0 0.010648
8070.0 0.010486
8090.0 0.0098413
8110.0 0.0098956
8130.0 0.010352
8150.0 0.010673
8170.0 0.010692
8190.0 0.010972
8210.0 0.010801
8230.0 0.010473
8250.0 0.010424
8270.0 0.010224
8290.0 0.010019
8310.0 0.0095375
8330.0 0.0095775
8350.0 0.0096527
8370.0 0.0097108
8390.0 0.0097644
8410.0 0.0096316
8430.0 0.0095767
8450.0 0.0096033
8470.0 0.0098514
8490.0 0.0099772
8510.0 0.0096695
8530.0 0.0092928
8550.0 0.0093052
8570.0 0.0091704
8590.0 0.0089299
8610.0 0.0091021
8630.0 0.0090236
8650.0 0.0089053
8670.0 0.008839
8690.0 0.0087657
8710.0 0.0083644
8730.0 0.0084516
8750.0 0.0082132
8770.0 0.0082323
8790.0 0.0080508
8810.0 0.0078874
8830.0 0.0079332
8850.0 0.0078204
8870.0 0.007457
8890.0 0.0072703
8910.0 0.006958
8930.0 0.00653
8950.0 0.0064475
8970.0 0.0061738
8990.0 0.0060958
9010.0 0.0059507
9030.0 0.0058948
9050.0 0.0058559
9070.0 0.0058176
9090.0 0.0057789
9110.0 0.0057393
9130.0 0.0056999
9150.0 0.0056611
9170.0 0.0056219
9190.0 0.0055824
9210.0 0.0055427
9230.0 0.0055029
9250.0 0.0054629
9270.0 0.0054228
9290.0 0.0053826
9310.0 0.0053427
9330.0 0.0053031
9350.0 0.0052635
9370.0 0.0052239
9390.0 0.0051843
9410.0 0.0051448
9430.0 0.0051053
9450.0 0.0050659
9470.0 0.0050301
9490.0 0.0049926
9510.0 0.0049515
9530.0 0.0049111
9550.0 0.0048715
9570.0 0.0048325
9590.0 0.0047937
9610.0 0.0047555
9630.0 0.0047179
9650.0 0.0046803
9670.0 0.0046428
9690.0 0.0046058
9710.0 0.004569
9730.0 0.0045324
9750.0 0.004496
9770.0 0.0044602
9790.0 0.0044245
9810.0 0.0043889
9830.0 0.0043536
9850.0 0.0043151
9870.0 0.0042777
9890.0 0.0042464
9910.0 0.0042146
9930.0 0.0041759
9950.0 0.0041426
9970.0 0.0041127
9990.0 0.0040819
10010.0 0.0040514
10030.0 0.0040205
10050.0 0.0039892
10070.0 0.0039584
10090.0 0.0039281
10110.0 0.0038976
10130.0 0.0038675
10150.0 0.0038382
10170.0 0.0038092
10190.0 0.0037801
10210.0 0.0037519
10230.0 0.0037242
10250.0 0.0036965
10270.0 0.0036692
10290.0 0.0036427
10310.0 0.0036162
10330.0 0.0035898
10350.0 0.0035642
10370.0 0.003539
10390.0 0.0035138
10410.0 0.003488
10430.0 0.0034625
10450.0 0.00344
10470.0 0.0034169
10490.0 0.0033944
10510.0 0.0033722
10530.0 0.0033495
10550.0 0.0033274
10570.0 0.0033062
10590.0 0.0032848
10610.0 0.0032636
10630.0 0.0032433
10650.0 0.0032232
10670.0 0.0032029
10690.0 0.0031833
10710.0 0.0031643
10730.0 0.0031452
10750.0 0.0031261
10770.0 0.0031082
10790.0 0.0030903
10810.0 0.0030724
10830.0 0.003055
10850.0 0.0030384
10870.0 0.0030213
10890.0 0.0030046
10910.0 0.0029886
10930.0 0.0029729
10950.0 0.0029571
10970.0 0.0029419
10990.0 0.0029274
11010.0 0.0030625
11030.0 0.0030442
11050.0 0.0030255
11070.0 0.0030058
11090.0 0.0029847
11110.0 0.0029638
11130.0 0.0029427
11150.0 0.0029208
11170.0 0.0028987
11190.0 0.0028772
11210.0 0.0028553
11230.0 0.002833
11250.0 0.0028114
11270.0 0.0027906
11290.0 0.0027695
11310.0 0.002749
11330.0 0.0027305
11350.0 0.0027124
11370.0 0.002695
11390.0 0.0026791
11410.0 0.0026644
11430.0 0.0026499
11450.0 0.0026365
11470.0 0.0026242
11490.0 0.0026122
11510.0 0.0026003
11530.0 0.0025892
11550.0 0.0025784
11570.0 0.0025671
11590.0 0.002556
11610.0 0.0025452
11630.0 0.0025338
11650.0 0.0025218
11670.0 0.0025103
11690.0 0.0024987
11710.0 0.0024864
11730.0 0.002474
11750.0 0.0024623
11770.0 0.0024498
11790.0 0.0024371
11810.0 0.002425
11830.0 0.002413
11850.0 0.0024004
11870.0 0.0023887
11890.0 0.0023779
11910.0 0.0023671
11930.0 0.0023569
11950.0 0.0023481
11970.0 0.0023402
11990.0 0.0023327
12010.0 0.0023268
12030.0 0.0023223
12050.0 0.0023188
12070.0 0.0023166
12090.0 0.0023162
12110.0 0.0023169
12130.0 0.0023188
12150.0 0.002322
12170.0 0.0023263
12190.0 0.0023314
12210.0 0.0023373
12230.0 0.0023437
12250.0 0.0023505
12270.0 0.0023573
12290.0 0.0023641
12310.0 0.0023705
12330.0 0.0023764
12350.0 0.0023815
12370.0 0.0023859
12390.0 0.0023893
12410.0 0.0023913
12430.0 0.0023924
12450.0 0.0023924
12470.0 0.0023909
12490.0 0.0023881
12510.0 0.0023845
12530.0 0.0023794
12550.0 0.0023726
12570.0 0.0023651
12590.0 0.0023568
12610.0 0.0023466
12630.0 0.0023354
12650.0 0.0023245
12670.0 0.0023123
12690.0 0.002299
12710.0 0.0022859
12730.0 0.0022727
12750.0 0.0022581
12770.0 0.0022439
12790.0 0.0022304
12810.0 0.0022165
12830.0 0.0022024
12850.0 0.0021897
12870.0 0.0021777
12890.0 0.0021656
12910.0 0.0021546
12930.0 0.0021451
12950.0 0.0021359
12970.0 0.0021277
12990.0 0.0021214
13010.0 0.0021164
13030.0 0.0021123
13050.0 0.0021098
13070.0 0.002109
13090.0 0.002109
13110.0 0.0021101
13130.0 0.0021124
13150.0 0.0021155
13170.0 0.002119
13190.0 0.0021231
13210.0 0.0021274
13230.0 0.0021317
13250.0 0.0021358
13270.0 0.0021396
13290.0 0.002143
13310.0 0.0021457
13330.0 0.0021478
13350.0 0.0021492
13370.0 0.0021495
13390.0 0.0021486
13410.0 0.002147
13430.0 0.0021442
13450.0 0.0021399
13470.0 0.0021346
13490.0 0.0021284
13510.0 0.0021203
13530.0 0.0021112
13550.0 0.0021015
13570.0 0.0020907
13590.0 0.0020785
13610.0 0.002066
13630.0 0.0020533
13650.0 0.0020391
13670.0 0.0020245
13690.0 0.0020098
13710.0 0.0019944
13730.0 0.0019775
13750.0 0.0019612
13770.0 0.0019446
13790.0 0.001927
13810.0 0.0019092
13830.0 0.0018919
13850.0 0.0018739
13870.0 0.0018553
13890.0 0.0018374
13910.0 0.0018197
13930.0 0.0018014
13950.0 0.0017834
13970.0 0.0017667
13990.0 0.0017499
14010.0 0.0017331
14030.0 0.0017174
14050.0 0.0017022
14070.0 0.0016867
14090.0 0.001672
14110.0 0.0016582
14130.0 0.0016445
14150.0 0.0016308
14170.0 0.001618
14190.0 0.0016054
14210.0 0.0015927
14230.0 0.0015803
14250.0 0.0015684
14270.0 0.0015562
14290.0 0.0015439
14310.0 0.0015323
14330.0 0.0015208
14350.0 0.0015092
14370.0 0.0014979
14390.0 0.0014871
14410.0 0.0014763
14430.0 0.0014656
14450.0 0.0014554
14470.0 0.0014454
14490.0 0.0014352
14510.0 0.0014254
14530.0 0.0014159
14550.0 0.0014061
14570.0 0.0013964
14590.0 0.0013868
14610.0 0.001377
14630.0 0.0013668
14650.0 0.0013567
14670.0 0.0013465
14690.0 0.001336
14710.0 0.0013252
14730.0 0.0013146
14750.0 0.0013038
14770.0 0.0012925
14790.0 0.0012813
14810.0 0.00127
14830.0 0.0012581
14850.0 0.0012462
14870.0 0.0012343
14890.0 0.0012222
14910.0 0.0012099
14930.0 0.0011979
14950.0 0.0011863
14970.0 0.0011746
14990.0 0.0011636
15010.0 0.0011532
15030.0 0.0011433
15050.0 0.0011337
15070.0 0.0011248
15090.0 0.0011161
15110.0 0.0011075
15130.0 0.0010991
15150.0 0.0010908
15170.0 0.0010824
15190.0 0.001074
15210.0 0.0010656
15230.0 0.0010573
15250.0 0.0010488
15270.0 0.0010403
15290.0 0.001032
15310.0 0.0010236
15330.0 0.0010151
15350.0 0.0010067
15370.0 0.00099828
15390.0 0.00098975
15410.0 0.00098131
15430.0 0.00097293
15450.0 0.00096449
15470.0 0.00095602
15490.0 0.00094768
15510.0 0.00093934
15530.0 0.00093093
15550.0 0.00092259
15570.0 0.00091433
15590.0 0.000906
15610.0 0.00089765
15630.0 0.00088946
15650.0 0.00088127
15670.0 0.00087303
15690.0 0.00086488
15710.0 0.00085683
15730.0 0.00084872
15750.0 0.00084063
15770.0 0.00083267
15790.0 0.00082472
15810.0 0.00081671
15830.0 0.00080883
15850.0 0.00080104
15870.0 0.00079323
15890.0 0.00078545
15910.0 0.00077781
15930.0 0.00077016
15950.0 0.00076249
15970.0 0.00075495
15990.0 0.00074749
16010.0 0.00074001
16030.0 0.00073256
16050.0 0.00072528
16070.0 0.00071801
16090.0 0.00071074
16110.0 0.00070358
16130.0 0.00069652
16150.0 0.00068939
16170.0 0.00068236
16190.0 0.00067547
16210.0 0.00066859
16230.0 0.00066172
16250.0 0.00065498
16270.0 0.00064832
16290.0 0.00064164
16310.0 0.00063505
16330.0 0.00062858
16350.0 0.00062212
16370.0 0.00061565
16390.0 0.00060935
16410.0 0.00060311
16430.0 0.00059688
16450.0 0.00059072
16470.0 0.0005847
16490.0 0.00057867
16510.0 0.00057267
16530.0 0.0005668
16550.0 0.000561
16570.0 0.00055519
16590.0 0.00054946
16610.0 0.00054388
16630.0 0.00053829
16650.0 0.00053275
16670.0 0.00052733
16690.0 0.00052197
16710.0 0.00051658
16730.0 0.00051131
16750.0 0.00050614
16770.0 0.00050098
16790.0 0.00049586
16810.0 0.00049088
16830.0 0.00048594
16850.0 0.000481
16870.0 0.00047616
16890.0 0.00047142
16910.0 0.00046667
16930.0 0.00046196
16950.0 0.00045739
16970.0 0.00045285
16990.0 0.00044833
17010.0 0.0004439
17030.0 0.00043957
17050.0 0.00043522
17070.0 0.00043093
17090.0 0.00042675
17110.0 0.0004226
17130.0 0.00041845
17150.0 0.00041441
17170.0 0.00041045
17190.0 0.0004065
17210.0 0.0004026
17230.0 0.0003988
17250.0 0.00039502
17270.0 0.00039125
17290.0 0.00038757
17310.0 0.00038397
17330.0 0.00038036
17350.0 0.0003768
17370.0 0.00037336
17390.0 0.00036993
17410.0 0.00036652
17430.0 0.00036319
17450.0 0.00035993
17470.0 0.00035664
17490.0 0.00035342
17510.0 0.0003503
17530.0 0.00034718
17550.0 0.00034409
17570.0 0.00034108
17590.0 0.00033813
17610.0 0.00033517
17630.0 0.00033227
17650.0 0.00032944
17670.0 0.00032663
17690.0 0.00032381
17710.0 0.0003211
17730.0 0.00031843
17750.0 0.00031576
17770.0 0.00031314
17790.0 0.00031061
17810.0 0.00030805
17830.0 0.00030553
17850.0 0.00030309
17870.0 0.00030067
17890.0 0.00029826
17910.0 0.00029589
17930.0 0.00029361
17950.0 0.00029132
17970.0 0.00028905
17990.0 0.00028686
18010.0 0.0002847
18030.0 0.00028251
18050.0 0.00028039
18070.0 0.00027833
18090.0 0.00027627
18110.0 0.00027422
18130.0 0.00027226
18150.0 0.00027031
18170.0 0.00026836
18190.0 0.00026647
18210.0 0.00026462
18230.0 0.00026276
18250.0 0.00026092
18270.0 0.00025916
18290.0 0.00025741
18310.0 0.00025566
18330.0 0.00025396
18350.0 0.00025232
18370.0 0.00025065
18390.0 0.00024901
18410.0 0.00024743
18430.0 0.00024587
18450.0 0.00024428
18470.0 0.00024276
18490.0 0.00024129
18510.0 0.0002398
18530.0 0.00023834
18550.0 0.00023694
18570.0 0.00023553
18590.0 0.00023412
18610.0 0.00023277
18630.0 0.00023145
18650.0 0.00023011
18670.0 0.0002288
18690.0 0.00022755
18710.0 0.0002263
18730.0 0.00022505
18750.0 0.00022385
18770.0 0.00022268
18790.0 0.00022147
18810.0 0.0002203
18830.0 0.00021919
18850.0 0.00021807
18870.0 0.00021695
18890.0 0.00021589
18910.0 0.00021485
18930.0 0.00021378
18950.0 0.00021275
18970.0 0.00021176
18990.0 0.00021076
19010.0 0.00020974
19030.0 0.00020881
19050.0 0.00020788
19070.0 0.00020693
19090.0 0.00020602
19110.0 0.00020516
19130.0 0.00020426
19150.0 0.00020337
19170.0 0.00020254
19190.0 0.00020171
19210.0 0.00020086
19230.0 0.00020005
19250.0 0.00019928
19270.0 0.0001985
19290.0 0.00019772
19310.0 0.00019698
19330.0 0.00019626
19350.0 0.00019549
19370.0 0.00019478
19390.0 0.0001941
19410.0 0.0001934
19430.0 0.0001927
19450.0 0.00019206
19470.0 0.00019142
19490.0 0.00019075
19510.0 0.00019012
19530.0 0.00018953
19550.0 0.0001889
19570.0 0.00018827
19590.0 0.00018771
19610.0 0.00018714
19630.0 0.00018655
19650.0 0.000186
19670.0 0.00018549
19690.0 0.00018493
19710.0 0.00018439
19730.0 0.00018389
19750.0 0.00018338
19770.0 0.00018285
19790.0 0.00018237
19810.0 0.00018191
19830.0 0.00018142
19850.0 0.00018095
19870.0 0.00018053
19890.0 0.0001801
19910.0 0.00017966
19930.0 0.0001793
19950.0 0.00017899
19970.0 0.00017873
19990.0 0.00017856
20010.0 0.00017853
20030.0 0.00017859
20050.0 0.00017875
20070.0 0.00017903
20090.0 0.00017941
20110.0 0.00017986
20130.0 0.00018038
20150.0 0.00018097
20170.0 0.00018159
20190.0 0.00018225
20210.0 0.00018296
20230.0 0.00018369
20250.0 0.00018443
20270.0 0.0001852
20290.0 0.00018599
20310.0 0.00018679
20330.0 0.00018758
20350.0 0.00018839
20370.0 0.0001892
20390.0 0.00019001
20410.0 0.00019081
20430.0 0.00019163
20450.0 0.00019243
20470.0 0.00019323
20490.0 0.00019406
20510.0 0.00019488
20530.0 0.00019572
20550.0 0.00019658
20570.0 0.00019747
20590.0 0.00019837
20610.0 0.0001993
20630.0 0.00020027
20650.0 0.00020126
20670.0 0.00020228
20690.0 0.00020332
20710.0 0.00020439
20730.0 0.00020547
20750.0 0.00020656
20770.0 0.00020766
20790.0 0.00020876
20810.0 0.00020985
20830.0 0.00021093
20850.0 0.000212
20870.0 0.00021303
20890.0 0.00021403
20910.0 0.00021502
20930.0 0.00021598
20950.0 0.0002169
20970.0 0.00021782
20990.0 0.00021872
21010.0 0.00021958
21030.0 0.00022043
21050.0 0.00022129
21070.0 0.00022214
21090.0 0.00022296
21110.0 0.00022383
21130.0 0.0002247
21150.0 0.00022556
21170.0 0.00022644
21190.0 0.00022735
21210.0 0.00022824
21230.0 0.00022911
21250.0 0.00023002
21270.0 0.00023093
21290.0 0.0002318
21310.0 0.00023266
21330.0 0.00023355
21350.0 0.00023439
21370.0 0.00023519
21390.0 0.000236
21410.0 0.00023679
21430.0 0.00023748
21450.0 0.00023819
21470.0 0.0002389
21490.0 0.00023955
21510.0 0.00024015
21530.0 0.00024079
21550.0 0.0002414
21570.0 0.00024193
21590.0 0.00024247
21610.0 0.00024303
21630.0 0.00024354
21650.0 0.00024397
21670.0 0.00024451
21690.0 0.00024501
21710.0 0.00024545
21730.0 0.00024592
21750.0 0.00024643
21770.0 0.00024683
21790.0 0.00024723
21810.0 0.00024769
21830.0 0.00024812
21850.0 0.00024847
21870.0 0.00024887
21890.0 0.00024933
21910.0 0.0002497
21930.0 0.00025008
21950.0 0.00025053
21970.0 0.00025097
21990.0 0.00025132
22010.0 0.0002518
22030.0 0.00025234
22050.0 0.00025285
22070.0 0.00025341
22090.0 0.0002541
22110.0 0.0002548
22130.0 0.00025551
22150.0 0.00025634
22170.0 0.00025727
22190.0 0.00025818
22210.0 0.00025917
22230.0 0.00026031
22250.0 0.00026148
22270.0 0.00026267
22290.0 0.00026397
22310.0 0.00026533
22330.0 0.00026668
22350.0 0.00026809
22370.0 0.00026957
22390.0 0.00027107
22410.0 0.00027255
22430.0 0.00027412
22450.0 0.00027572
22470.0 0.0002773
22490.0 0.00027892
22510.0 0.00028061
22530.0 0.00028227
22550.0 0.00028394
22570.0 0.00028569
22590.0 0.00028747
22610.0 0.00028924
22630.0 0.00029107
22650.0 0.00029298
22670.0 0.00029489
22690.0 0.00029683
22710.0 0.00029886
22730.0 0.00030093
22750.0 0.00030299
22770.0 0.00030515
22790.0 0.00030741
22810.0 0.00030969
22830.0 0.00031202
22850.0 0.00031448
22870.0 0.000317
22890.0 0.00031958
22910.0 0.00032228
22930.0 0.00032509
22950.0 0.00032799
22970.0 0.00033099
22990.0 0.00033417
23010.0 0.00033745
23030.0 0.00034087
23050.0 0.00034444
23070.0 0.00034816
23090.0 0.00035203
23110.0 0.00035607
23130.0 0.00036027
23150.0 0.00036465
23170.0 0.00036922
23190.0 0.00037395
23210.0 0.00037885
23230.0 0.00038394
23250.0 0.00038921
23270.0 0.00039461
23290.0 0.00040018
23310.0 0.00040594
23330.0 0.00041178
23350.0 0.00041772
23370.0 0.00042379
23390.0 0.00042994
23410.0 0.00043609
23430.0 0.00044233
23450.0 0.00044863
23470.0 0.00045492
23490.0 0.00046121
23510.0 0.00046757
23530.0 0.00047393
23550.0 0.00048029
23570.0 0.0004867
23590.0 0.00049318
23610.0 0.00049971
23630.0 0.00050632
23650.0 0.00051308
23670.0 0.00051994
