#lamb flux
1010.0 3.7957e-07
1030.0 4.2393e-07
1050.0 4.7394e-07
1070.0 5.305e-07
1090.0 5.9544e-07
1110.0 6.6255e-07
1130.0 7.3074e-07
1150.0 8.0285e-07
1170.0 8.7811e-07
1190.0 9.5078e-07
1210.0 1.0256e-06
1230.0 1.1042e-06
1250.0 1.1829e-06
1270.0 1.2612e-06
1290.0 1.3454e-06
1310.0 1.4315e-06
1330.0 1.5166e-06
1350.0 1.6045e-06
1370.0 1.697e-06
1390.0 1.7896e-06
1410.0 1.882e-06
1430.0 1.9796e-06
1450.0 2.0791e-06
1470.0 2.1776e-06
1490.0 2.2784e-06
1510.0 2.385e-06
1530.0 2.4884e-06
1550.0 2.5914e-06
1570.0 2.6978e-06
1590.0 2.8045e-06
1610.0 2.9074e-06
1630.0 3.0121e-06
1650.0 3.1182e-06
1670.0 3.2202e-06
1690.0 3.3194e-06
1710.0 3.4197e-06
1730.0 3.5179e-06
1750.0 3.6078e-06
1770.0 3.6967e-06
1790.0 3.7833e-06
1810.0 3.8629e-06
1830.0 3.9362e-06
1850.0 4.0096e-06
1870.0 4.0752e-06
1890.0 4.1323e-06
1910.0 4.185e-06
1930.0 4.2336e-06
1950.0 4.2719e-06
1970.0 4.3027e-06
1990.0 4.3298e-06
2010.0 4.3489e-06
2030.0 4.3583e-06
2050.0 4.3633e-06
2070.0 4.3633e-06
2090.0 4.3522e-06
2110.0 4.3342e-06
2130.0 4.3119e-06
2150.0 4.2817e-06
2170.0 4.2426e-06
2190.0 4.2e-06
2210.0 4.1521e-06
2230.0 4.0963e-06
2250.0 4.0354e-06
2270.0 3.9724e-06
2290.0 3.9033e-06
2310.0 3.8282e-06
2330.0 3.7515e-06
2350.0 3.672e-06
2370.0 3.5878e-06
2390.0 3.5016e-06
2410.0 3.4148e-06
2430.0 3.3236e-06
2450.0 3.2281e-06
2470.0 3.1292e-06
2490.0 3.0258e-06
2510.0 2.9177e-06
2530.0 2.8107e-06
2550.0 2.7134e-06
2570.0 2.6371e-06
2590.0 2.5943e-06
2610.0 2.6092e-06
2630.0 2.6904e-06
2650.0 2.8271e-06
2670.0 3.0205e-06
2690.0 3.2596e-06
2710.0 3.4964e-06
2730.0 3.7076e-06
2750.0 3.8989e-06
2770.0 4.0412e-06
2790.0 4.1282e-06
2810.0 4.1794e-06
2830.0 4.2086e-06
2850.0 4.2081e-06
2870.0 4.1966e-06
2890.0 4.1851e-06
2910.0 4.1727e-06
2930.0 4.1575e-06
2950.0 4.1499e-06
2970.0 4.1491e-06
2990.0 4.1506e-06
3010.0 9.4809e-06
3030.0 9.5196e-06
3050.0 9.569e-06
3070.0 9.6105e-06
3090.0 9.6406e-06
3110.0 9.6222e-06
3130.0 9.5186e-06
3150.0 9.3157e-06
3170.0 8.9547e-06
3190.0 8.9728e-06
3210.0 1.0581e-05
3230.0 1.3615e-05
3250.0 1.9894e-05
3270.0 2.2458e-05
3290.0 2.8537e-05
3310.0 2.6708e-05
3330.0 2.8227e-05
3350.0 3.0885e-05
3370.0 3.4308e-05
3390.0 3.8292e-05
3410.0 4.2505e-05
3430.0 4.7355e-05
3450.0 5.2665e-05
3470.0 5.8308e-05
3490.0 6.3554e-05
3510.0 6.8851e-05
3530.0 7.4704e-05
3550.0 7.6883e-05
3570.0 7.6016e-05
3590.0 8.0059e-05
3610.0 7.9141e-05
3630.0 9.1662e-05
3650.0 0.00010154
3670.0 0.00010775
3690.0 0.00010083
3710.0 8.4109e-05
3730.0 7.715e-05
3750.0 6.8953e-05
3770.0 6.1828e-05
3790.0 5.4917e-05
3810.0 5.281e-05
3830.0 5.9679e-05
3850.0 2.7023e-05
3870.0 5.8e-05
3890.0 7.3769e-05
3910.0 8.0172e-05
3930.0 9.2301e-05
3950.0 9.9703e-05
3970.0 0.00011464
3990.0 0.00014065
4010.0 0.00010552
4030.0 8.6762e-05
4050.0 7.7125e-05
4070.0 7.935e-05
4090.0 0.00011177
4110.0 0.00010685
4130.0 0.00011016
4150.0 0.00010459
4170.0 9.994e-05
4190.0 9.3594e-05
4210.0 0.00013069
4230.0 0.00013921
4250.0 0.00014644
4270.0 0.00013772
4290.0 0.00014312
4310.0 0.00016126
4330.0 0.00018614
4350.0 0.00018463
4370.0 0.00017677
4390.0 0.0001509
4410.0 0.00013665
4430.0 0.00011237
4450.0 9.886e-05
4470.0 0.00011005
4490.0 0.00013506
4510.0 0.00014227
4530.0 0.00015446
4550.0 0.00016772
4570.0 0.0002221
4590.0 0.00031949
4610.0 0.0003917
4630.0 0.00039071
4650.0 0.00038004
4670.0 0.00041409
4690.0 0.00045905
4710.0 0.00037823
4730.0 0.00028334
4750.0 0.00022687
4770.0 0.00020978
4790.0 0.00020834
4810.0 0.00019839
4830.0 0.00021673
4850.0 0.00025096
4870.0 0.00028632
4890.0 0.00028191
4910.0 0.00024793
4930.0 0.00026115
4950.0 0.0003324
4970.0 0.00042021
4990.0 0.00043873
5010.0 0.00039586
5030.0 0.00031912
5050.0 0.00023585
5070.0 0.00018906
5090.0 0.00017156
5110.0 0.0001685
5130.0 0.00017391
5150.0 0.00017302
5170.0 0.00017361
5190.0 0.00016674
5210.0 0.00016622
5230.0 0.00018167
5250.0 0.00019889
5270.0 0.00023958
5290.0 0.00028059
5310.0 0.0002861
5330.0 0.00029847
5350.0 0.000335
5370.0 0.00036472
5390.0 0.0003374
5410.0 0.00029624
5430.0 0.00028256
5450.0 0.00032523
5470.0 0.00041445
5490.0 0.00050442
5510.0 0.00054754
5530.0 0.0005473
5550.0 0.00052103
5570.0 0.00050102
5590.0 0.00048852
5610.0 0.0004922
5630.0 0.00049416
5650.0 0.00049348
5670.0 0.00049744
5690.0 0.00047714
5710.0 0.00041005
5730.0 0.000355
5750.0 0.00031875
5770.0 0.0003253
5790.0 0.00034724
5810.0 0.00037204
5830.0 0.0003854
5850.0 0.00037525
5870.0 0.0003487
5890.0 0.00031778
5910.0 0.00032268
5930.0 0.00035097
5950.0 0.00034476
5970.0 0.00031286
5990.0 0.00026997
6010.0 0.0002207
6030.0 0.00019135
6050.0 0.00019724
6070.0 0.00021982
6090.0 0.00022607
6110.0 0.000201
6130.0 0.00019353
6150.0 0.00021631
6170.0 0.00025656
6190.0 0.000297
6210.0 0.00030677
6230.0 0.00029581
6250.0 0.00027199
6270.0 0.00023366
6290.0 0.00019498
6310.0 0.00016738
6330.0 0.00015843
6350.0 0.00016553
6370.0 0.00016901
6390.0 0.00017916
6410.0 0.00021201
6430.0 0.00026926
6450.0 0.00032732
6470.0 0.00035288
6490.0 0.00034512
6510.0 0.00034743
6530.0 0.00036247
6550.0 0.00036134
6570.0 0.0003709
6590.0 0.00037359
6610.0 0.00037443
6630.0 0.00037838
6650.0 0.0003685
6670.0 0.00034334
6690.0 0.00030388
6710.0 0.00027033
6730.0 0.00027016
6750.0 0.00028822
6770.0 0.00030298
6790.0 0.00030983
6810.0 0.00031072
6830.0 0.00030462
6850.0 0.00029628
6870.0 0.00027875
6890.0 0.00026914
6910.0 0.0002547
6930.0 0.00025544
6950.0 0.00027537
6970.0 0.00028885
6990.0 0.00029958
7010.0 0.0002972
7030.0 0.00027739
7050.0 0.00024289
7070.0 0.00020348
7090.0 0.00017755
7110.0 0.00017402
7130.0 0.00018243
7150.0 0.00017527
7170.0 0.00016187
7190.0 0.00016519
7210.0 0.00018332
7230.0 0.00021272
7250.0 0.00023567
7270.0 0.00024162
7290.0 0.00022278
7310.0 0.00020018
7330.0 0.00018604
7350.0 0.00018462
7370.0 0.00018967
7390.0 0.00019692
7410.0 0.0002124
7430.0 0.00024553
7450.0 0.00028386
7470.0 0.00031334
7490.0 0.00032115
7510.0 0.00030676
7530.0 0.00025408
7550.0 0.00021641
7570.0 0.00018441
7590.0 0.0001674
7610.0 0.00017476
7630.0 0.00019771
7650.0 0.00022371
7670.0 0.0002476
7690.0 0.0002633
7710.0 0.00027956
7730.0 0.00029681
7750.0 0.00031247
7770.0 0.00031337
7790.0 0.0003127
7810.0 0.00031939
7830.0 0.00032804
7850.0 0.00032121
7870.0 0.00030811
7890.0 0.00029533
7910.0 0.00027708
7930.0 0.0002699
7950.0 0.00026006
7970.0 0.0002557
7990.0 0.00025213
8010.0 0.0002609
8030.0 0.00026218
8050.0 0.00026615
8070.0 0.00026296
8090.0 0.00026182
8110.0 0.00025043
8130.0 0.00024853
8150.0 0.00024287
8170.0 0.00023571
8190.0 0.00023159
8210.0 0.00023251
8230.0 0.00022255
8250.0 0.00021207
8270.0 0.00018668
8290.0 0.00014981
8310.0 0.00011215
8330.0 8.4824e-05
8350.0 7.6734e-05
8370.0 8.9878e-05
8390.0 0.00010808
8410.0 0.00011905
8430.0 0.00012656
8450.0 0.00013267
8470.0 0.0001396
8490.0 0.00015505
8510.0 0.00017528
8530.0 0.0002036
8550.0 0.00023533
8570.0 0.00026389
8590.0 0.00028661
8610.0 0.00030292
8630.0 0.00031037
8650.0 0.00031031
8670.0 0.00031016
8690.0 0.00032154
8710.0 0.00033367
8730.0 0.00034413
8750.0 0.00034035
8770.0 0.00034265
8790.0 0.00033869
8810.0 0.00031592
8830.0 0.00030296
8850.0 0.00028331
8870.0 0.0002676
8890.0 0.00025878
8910.0 0.00026183
8930.0 0.00024759
8950.0 0.0002353
8970.0 0.00023023
8990.0 0.00022616
9010.0 0.00021874
9030.0 0.00021363
9050.0 0.00021217
9070.0 0.00021149
9090.0 0.00021085
9110.0 0.00021024
9130.0 0.0002096
9150.0 0.00020896
9170.0 0.00020814
9190.0 0.00020728
9210.0 0.00020793
9230.0 0.00020687
9250.0 0.00020601
9270.0 0.00020522
9290.0 0.00020449
9310.0 0.00020377
9330.0 0.00020308
9350.0 0.00020241
9370.0 0.00020174
9390.0 0.00020106
9410.0 0.00020038
9430.0 0.0001997
9450.0 0.00019886
9470.0 0.00019807
9490.0 0.00019753
9510.0 0.00019692
9530.0 0.00019628
9550.0 0.00019562
9570.0 0.00019496
9590.0 0.00019428
9610.0 0.0001936
9630.0 0.00019293
9650.0 0.00019224
9670.0 0.00019156
9690.0 0.00019088
9710.0 0.00019019
9730.0 0.00018951
9750.0 0.00018882
9770.0 0.00018814
9790.0 0.00018745
9810.0 0.00018676
9830.0 0.00018607
9850.0 0.00018539
9870.0 0.00018469
9890.0 0.000184
9910.0 0.00018331
9930.0 0.00018259
9950.0 0.00018047
9970.0 0.00018019
9990.0 0.00017983
10010.0 0.00017942
10030.0 0.0001789
10050.0 0.00017827
10070.0 0.00017761
10090.0 0.00017697
10110.0 0.00017625
10130.0 0.00017558
10150.0 0.00017488
10170.0 0.00017413
10190.0 0.00017334
10210.0 0.00017261
10230.0 0.0001719
10250.0 0.00017113
10270.0 0.00017036
10290.0 0.00016964
10310.0 0.00016887
10330.0 0.00016805
10350.0 0.00016729
10370.0 0.00016653
10390.0 0.00016571
10410.0 0.00016489
10430.0 0.00016413
10450.0 0.00016331
10470.0 0.00016245
10490.0 0.00016164
10510.0 0.00016082
10530.0 0.00015991
10550.0 0.00015904
10570.0 0.0001582
10590.0 0.00015732
10610.0 0.00015639
10630.0 0.00015552
10650.0 0.00015463
10670.0 0.00015366
10690.0 0.00015272
10710.0 0.0001518
10730.0 0.00015083
10750.0 0.00014979
10770.0 0.00014885
10790.0 0.00014787
10810.0 0.00014683
10830.0 0.0001458
10850.0 0.00014481
10870.0 0.00014371
10890.0 0.00014258
10910.0 0.00014148
10930.0 0.00014031
10950.0 0.00013901
10970.0 0.00013766
10990.0 0.00013628
11010.0 0.00013188
11030.0 0.00013015
11050.0 0.00012849
11070.0 0.00012681
11090.0 0.00012503
11110.0 0.00012342
11130.0 0.00012188
11150.0 0.00012033
11170.0 0.00011882
11190.0 0.00011744
11210.0 0.00011605
11230.0 0.00011462
11250.0 0.00011328
11270.0 0.00011197
11290.0 0.0001106
11310.0 0.00010924
11330.0 0.00010799
11350.0 0.0001067
11370.0 0.00010538
11390.0 0.00010411
11410.0 0.00010286
11430.0 0.0001015
11450.0 0.00010014
11470.0 9.88e-05
11490.0 9.7375e-05
11510.0 9.5838e-05
11530.0 9.4322e-05
11550.0 9.2761e-05
11570.0 9.1061e-05
11590.0 8.9318e-05
11610.0 8.7589e-05
11630.0 8.5737e-05
11650.0 8.3791e-05
11670.0 8.192e-05
11690.0 8.0038e-05
11710.0 7.8085e-05
11730.0 7.6174e-05
11750.0 7.4376e-05
11770.0 7.2543e-05
11790.0 7.074e-05
11810.0 6.9064e-05
11830.0 6.7458e-05
11850.0 6.5835e-05
11870.0 6.4343e-05
11890.0 6.2977e-05
11910.0 6.1633e-05
11930.0 6.0342e-05
11950.0 5.917e-05
11970.0 5.8043e-05
11990.0 5.692e-05
12010.0 5.5884e-05
12030.0 5.4922e-05
12050.0 5.3976e-05
12070.0 5.3061e-05
12090.0 5.2259e-05
12110.0 5.1498e-05
12130.0 5.0773e-05
12150.0 5.0133e-05
12170.0 4.9582e-05
12190.0 4.907e-05
12210.0 4.865e-05
12230.0 4.8337e-05
12250.0 4.811e-05
12270.0 4.7978e-05
12290.0 4.7956e-05
12310.0 4.8038e-05
12330.0 4.8231e-05
12350.0 4.8538e-05
12370.0 4.8943e-05
12390.0 4.9458e-05
12410.0 5.0108e-05
12430.0 5.0825e-05
12450.0 5.1616e-05
12470.0 5.2507e-05
12490.0 5.3459e-05
12510.0 5.441e-05
12530.0 5.5412e-05
12550.0 5.6439e-05
12570.0 5.7416e-05
12590.0 5.8343e-05
12610.0 5.9243e-05
12630.0 6.0054e-05
12650.0 6.0726e-05
12670.0 6.1304e-05
12690.0 6.1761e-05
12710.0 6.2071e-05
12730.0 6.2246e-05
12750.0 6.2287e-05
12770.0 6.2187e-05
12790.0 6.1968e-05
12810.0 6.1632e-05
12830.0 6.1179e-05
12850.0 6.0665e-05
12870.0 6.0089e-05
12890.0 5.9438e-05
12910.0 5.8761e-05
12930.0 5.8085e-05
12950.0 5.7373e-05
12970.0 5.6646e-05
12990.0 5.596e-05
13010.0 5.5282e-05
13030.0 5.4593e-05
13050.0 5.3925e-05
13070.0 5.329e-05
13090.0 5.2636e-05
13110.0 5.1979e-05
13130.0 5.1348e-05
13150.0 5.0719e-05
13170.0 5.0062e-05
13190.0 4.9437e-05
13210.0 4.8845e-05
13230.0 4.8258e-05
13250.0 4.7701e-05
13270.0 4.721e-05
13290.0 4.6766e-05
13310.0 4.6376e-05
13330.0 4.6075e-05
13350.0 4.5859e-05
13370.0 4.5721e-05
13390.0 4.5667e-05
13410.0 4.5686e-05
13430.0 4.5761e-05
13450.0 4.588e-05
13470.0 4.6013e-05
13490.0 4.6137e-05
13510.0 4.6239e-05
13530.0 4.6283e-05
13550.0 4.6251e-05
13570.0 4.6133e-05
13590.0 4.5909e-05
13610.0 4.5588e-05
13630.0 4.5182e-05
13650.0 4.4667e-05
13670.0 4.4074e-05
13690.0 4.3439e-05
13710.0 4.2753e-05
13730.0 4.2006e-05
13750.0 4.1296e-05
13770.0 4.0602e-05
13790.0 3.9914e-05
13810.0 3.9269e-05
13830.0 3.8696e-05
13850.0 3.8157e-05
13870.0 3.7665e-05
13890.0 3.7246e-05
13910.0 3.6881e-05
13930.0 3.6554e-05
13950.0 3.6276e-05
13970.0 3.6049e-05
13990.0 3.5847e-05
14010.0 3.567e-05
14030.0 3.5518e-05
14050.0 3.5381e-05
14070.0 3.5247e-05
14090.0 3.5119e-05
14110.0 3.4991e-05
14130.0 3.4853e-05
14150.0 3.4701e-05
14170.0 3.4541e-05
14190.0 3.4367e-05
14210.0 3.4171e-05
14230.0 3.3965e-05
14250.0 3.3753e-05
14270.0 3.3527e-05
14290.0 3.3295e-05
14310.0 3.3077e-05
14330.0 3.2866e-05
14350.0 3.2663e-05
14370.0 3.2483e-05
14390.0 3.2327e-05
14410.0 3.2189e-05
14430.0 3.2075e-05
14450.0 3.1985e-05
14470.0 3.1915e-05
14490.0 3.1862e-05
14510.0 3.1824e-05
14530.0 3.1799e-05
14550.0 3.1786e-05
14570.0 3.1783e-05
14590.0 3.1789e-05
14610.0 3.1809e-05
14630.0 3.1846e-05
14650.0 3.19e-05
14670.0 3.1973e-05
14690.0 3.2075e-05
14710.0 3.221e-05
14730.0 3.2365e-05
14750.0 3.2557e-05
14770.0 3.2791e-05
14790.0 3.3057e-05
14810.0 3.3353e-05
14830.0 3.3715e-05
14850.0 3.4119e-05
14870.0 3.455e-05
14890.0 3.5028e-05
14910.0 3.5553e-05
14930.0 3.6071e-05
14950.0 3.6566e-05
14970.0 3.7048e-05
14990.0 3.746e-05
15010.0 3.7776e-05
15030.0 3.8012e-05
15050.0 3.8166e-05
15070.0 3.8234e-05
15090.0 3.8247e-05
15110.0 3.8223e-05
15130.0 3.8175e-05
15150.0 3.8112e-05
15170.0 3.8043e-05
15190.0 3.797e-05
15210.0 3.7895e-05
15230.0 3.7821e-05
15250.0 3.7745e-05
15270.0 3.7669e-05
15290.0 3.7594e-05
15310.0 3.7518e-05
15330.0 3.7442e-05
15350.0 3.7366e-05
15370.0 3.7291e-05
15390.0 3.7214e-05
15410.0 3.7138e-05
15430.0 3.7062e-05
15450.0 3.6985e-05
15470.0 3.6908e-05
15490.0 3.6832e-05
15510.0 3.6756e-05
15530.0 3.6679e-05
15550.0 3.6602e-05
15570.0 3.6525e-05
15590.0 3.6448e-05
15610.0 3.637e-05
15630.0 3.6294e-05
15650.0 3.6217e-05
15670.0 3.6139e-05
15690.0 3.6062e-05
15710.0 3.5985e-05
15730.0 3.5907e-05
15750.0 3.5829e-05
15770.0 3.5752e-05
15790.0 3.5675e-05
15810.0 3.5596e-05
15830.0 3.5519e-05
15850.0 3.5441e-05
15870.0 3.5363e-05
15890.0 3.5285e-05
15910.0 3.5208e-05
15930.0 3.513e-05
15950.0 3.5051e-05
15970.0 3.4974e-05
15990.0 3.4896e-05
16010.0 3.4817e-05
16030.0 3.4739e-05
16050.0 3.4661e-05
16070.0 3.4583e-05
16090.0 3.4504e-05
16110.0 3.4426e-05
16130.0 3.4348e-05
16150.0 3.4269e-05
16170.0 3.4191e-05
16190.0 3.4113e-05
16210.0 3.4034e-05
16230.0 3.3955e-05
16250.0 3.3877e-05
16270.0 3.3799e-05
16290.0 3.372e-05
16310.0 3.3641e-05
16330.0 3.3562e-05
16350.0 3.3484e-05
16370.0 3.3404e-05
16390.0 3.3326e-05
16410.0 3.3247e-05
16430.0 3.3168e-05
16450.0 3.3089e-05
16470.0 3.3011e-05
16490.0 3.2931e-05
16510.0 3.2852e-05
16530.0 3.2773e-05
16550.0 3.2694e-05
16570.0 3.2615e-05
16590.0 3.2535e-05
16610.0 3.2457e-05
16630.0 3.2378e-05
16650.0 3.2298e-05
16670.0 3.2219e-05
16690.0 3.214e-05
16710.0 3.206e-05
16730.0 3.1981e-05
16750.0 3.1902e-05
16770.0 3.1822e-05
16790.0 3.1742e-05
16810.0 3.1663e-05
16830.0 3.1584e-05
16850.0 3.1504e-05
16870.0 3.1424e-05
16890.0 3.1345e-05
16910.0 3.1265e-05
16930.0 3.1185e-05
16950.0 3.1105e-05
16970.0 3.1026e-05
16990.0 3.0946e-05
17010.0 3.0866e-05
17030.0 3.0786e-05
17050.0 3.0706e-05
17070.0 3.0626e-05
17090.0 3.0546e-05
17110.0 3.0466e-05
17130.0 3.0385e-05
17150.0 3.0305e-05
17170.0 3.0226e-05
17190.0 3.0145e-05
17210.0 3.0065e-05
17230.0 2.9985e-05
17250.0 2.9904e-05
17270.0 2.9823e-05
17290.0 2.9743e-05
17310.0 2.9663e-05
17330.0 2.9582e-05
17350.0 2.9501e-05
17370.0 2.9421e-05
17390.0 2.9341e-05
17410.0 2.926e-05
17430.0 2.9179e-05
17450.0 2.9099e-05
17470.0 2.9017e-05
17490.0 2.8936e-05
17510.0 2.8856e-05
17530.0 2.8775e-05
17550.0 2.8694e-05
17570.0 2.8613e-05
17590.0 2.8533e-05
17610.0 2.8451e-05
17630.0 2.837e-05
17650.0 2.829e-05
17670.0 2.8208e-05
17690.0 2.8127e-05
17710.0 2.8046e-05
17730.0 2.7965e-05
17750.0 2.7884e-05
17770.0 2.7803e-05
17790.0 2.7722e-05
17810.0 2.7641e-05
17830.0 2.7559e-05
17850.0 2.7478e-05
17870.0 2.7397e-05
17890.0 2.7316e-05
17910.0 2.7234e-05
17930.0 2.7154e-05
17950.0 2.7073e-05
17970.0 2.6991e-05
17990.0 2.6911e-05
18010.0 2.683e-05
18030.0 2.6748e-05
18050.0 2.6667e-05
18070.0 2.6586e-05
18090.0 2.6505e-05
18110.0 2.6424e-05
18130.0 2.6343e-05
18150.0 2.6263e-05
18170.0 2.6182e-05
18190.0 2.6101e-05
18210.0 2.6021e-05
18230.0 2.594e-05
18250.0 2.5858e-05
18270.0 2.5778e-05
18290.0 2.5698e-05
18310.0 2.5617e-05
18330.0 2.5537e-05
18350.0 2.5457e-05
18370.0 2.5376e-05
18390.0 2.5296e-05
18410.0 2.5216e-05
18430.0 2.5136e-05
18450.0 2.5056e-05
18470.0 2.4976e-05
18490.0 2.4897e-05
18510.0 2.4817e-05
18530.0 2.4738e-05
18550.0 2.4659e-05
18570.0 2.4579e-05
18590.0 2.45e-05
18610.0 2.4421e-05
18630.0 2.4342e-05
18650.0 2.4263e-05
18670.0 2.4184e-05
18690.0 2.4106e-05
18710.0 2.4028e-05
18730.0 2.3949e-05
18750.0 2.3871e-05
18770.0 2.3794e-05
18790.0 2.3715e-05
18810.0 2.3637e-05
18830.0 2.356e-05
18850.0 2.3483e-05
18870.0 2.3405e-05
18890.0 2.3329e-05
18910.0 2.3252e-05
18930.0 2.3175e-05
18950.0 2.3099e-05
18970.0 2.3023e-05
18990.0 2.2947e-05
19010.0 2.287e-05
19030.0 2.2795e-05
19050.0 2.272e-05
19070.0 2.2644e-05
19090.0 2.2569e-05
19110.0 2.2495e-05
19130.0 2.242e-05
19150.0 2.2345e-05
19170.0 2.2271e-05
19190.0 2.2197e-05
19210.0 2.2123e-05
19230.0 2.2049e-05
19250.0 2.1976e-05
19270.0 2.1903e-05
19290.0 2.183e-05
19310.0 2.1758e-05
19330.0 2.1685e-05
19350.0 2.1613e-05
19370.0 2.1541e-05
19390.0 2.147e-05
19410.0 2.1398e-05
19430.0 2.1327e-05
19450.0 2.1256e-05
19470.0 2.1185e-05
19490.0 2.1115e-05
19510.0 2.1045e-05
19530.0 2.0975e-05
19550.0 2.0905e-05
19570.0 2.0836e-05
19590.0 2.0767e-05
19610.0 2.0698e-05
19630.0 2.0629e-05
19650.0 2.0561e-05
19670.0 2.0494e-05
19690.0 2.0426e-05
19710.0 2.0358e-05
19730.0 2.0291e-05
19750.0 2.0225e-05
19770.0 2.0158e-05
19790.0 2.0091e-05
19810.0 2.0025e-05
19830.0 1.9959e-05
19850.0 1.9892e-05
19870.0 1.9824e-05
19890.0 1.9752e-05
19910.0 1.9673e-05
19930.0 1.9583e-05
19950.0 1.9477e-05
19970.0 1.9344e-05
19990.0 1.9179e-05
20010.0 1.8988e-05
20030.0 1.8757e-05
20050.0 1.8488e-05
20070.0 1.8199e-05
20090.0 1.7893e-05
20110.0 1.7556e-05
20130.0 1.7221e-05
20150.0 1.6896e-05
20170.0 1.6566e-05
20190.0 1.6239e-05
20210.0 1.5932e-05
20230.0 1.5635e-05
20250.0 1.5337e-05
20270.0 1.5057e-05
20290.0 1.4795e-05
20310.0 1.4538e-05
20330.0 1.4286e-05
20350.0 1.406e-05
20370.0 1.3842e-05
20390.0 1.363e-05
20410.0 1.3432e-05
20430.0 1.3251e-05
20450.0 1.3073e-05
20470.0 1.2908e-05
20490.0 1.276e-05
20510.0 1.2622e-05
20530.0 1.2494e-05
20550.0 1.2381e-05
20570.0 1.2284e-05
20590.0 1.2196e-05
20610.0 1.2122e-05
20630.0 1.2061e-05
20650.0 1.2011e-05
20670.0 1.1973e-05
20690.0 1.1946e-05
20710.0 1.1929e-05
20730.0 1.1921e-05
20750.0 1.1921e-05
20770.0 1.1926e-05
20790.0 1.1936e-05
20810.0 1.1953e-05
20830.0 1.197e-05
20850.0 1.1989e-05
20870.0 1.2009e-05
20890.0 1.2028e-05
20910.0 1.2042e-05
20930.0 1.2053e-05
20950.0 1.2059e-05
20970.0 1.2058e-05
20990.0 1.205e-05
21010.0 1.2035e-05
21030.0 1.2011e-05
21050.0 1.1979e-05
21070.0 1.1938e-05
21090.0 1.1888e-05
21110.0 1.183e-05
21130.0 1.1765e-05
21150.0 1.169e-05
21170.0 1.161e-05
21190.0 1.1526e-05
21210.0 1.1434e-05
21230.0 1.1337e-05
21250.0 1.1238e-05
21270.0 1.1138e-05
21290.0 1.1033e-05
21310.0 1.0928e-05
21330.0 1.0827e-05
21350.0 1.0724e-05
21370.0 1.0621e-05
21390.0 1.0524e-05
21410.0 1.043e-05
21430.0 1.0336e-05
21450.0 1.0251e-05
21470.0 1.0172e-05
21490.0 1.0099e-05
21510.0 1.0033e-05
21530.0 9.9768e-06
21550.0 9.9285e-06
21570.0 9.8883e-06
21590.0 9.8582e-06
21610.0 9.8375e-06
21630.0 9.8264e-06
21650.0 9.8259e-06
21670.0 9.8331e-06
21690.0 9.849e-06
21710.0 9.8743e-06
21730.0 9.906e-06
21750.0 9.9421e-06
21770.0 9.987e-06
21790.0 1.0036e-05
21810.0 1.0086e-05
21830.0 1.0138e-05
21850.0 1.0193e-05
21870.0 1.0246e-05
21890.0 1.0296e-05
21910.0 1.0345e-05
21930.0 1.0391e-05
21950.0 1.0431e-05
21970.0 1.0466e-05
21990.0 1.0499e-05
22010.0 1.0524e-05
22030.0 1.0542e-05
22050.0 1.0555e-05
22070.0 1.0562e-05
22090.0 1.0562e-05
22110.0 1.0557e-05
22130.0 1.0547e-05
22150.0 1.053e-05
22170.0 1.0508e-05
22190.0 1.0481e-05
22210.0 1.0448e-05
22230.0 1.0411e-05
22250.0 1.0369e-05
22270.0 1.0322e-05
22290.0 1.027e-05
22310.0 1.0214e-05
22330.0 1.0152e-05
22350.0 1.0084e-05
22370.0 1.0013e-05
22390.0 9.9362e-06
22410.0 9.8513e-06
22430.0 9.7643e-06
22450.0 9.6726e-06
22470.0 9.5728e-06
22490.0 9.4686e-06
22510.0 9.3629e-06
22530.0 9.2489e-06
22550.0 9.1287e-06
22570.0 9.0096e-06
22590.0 8.888e-06
22610.0 8.7606e-06
22630.0 8.6336e-06
