#lamb flux
1010.0 7.2555e-06
1030.0 7.6225e-06
1050.0 8.0478e-06
1070.0 8.5275e-06
1090.0 9.0729e-06
1110.0 9.6346e-06
1130.0 1.0203e-05
1150.0 1.08e-05
1170.0 1.1419e-05
1190.0 1.2011e-05
1210.0 1.2615e-05
1230.0 1.3242e-05
1250.0 1.3861e-05
1270.0 1.4468e-05
1290.0 1.5113e-05
1310.0 1.5763e-05
1330.0 1.6394e-05
1350.0 1.7037e-05
1370.0 1.7706e-05
1390.0 1.8365e-05
1410.0 1.9014e-05
1430.0 1.9696e-05
1450.0 2.0385e-05
1470.0 2.106e-05
1490.0 2.1748e-05
1510.0 2.2477e-05
1530.0 2.3178e-05
1550.0 2.3876e-05
1570.0 2.46e-05
1590.0 2.5328e-05
1610.0 2.6031e-05
1630.0 2.6755e-05
1650.0 2.7497e-05
1670.0 2.8216e-05
1690.0 2.8925e-05
1710.0 2.9655e-05
1730.0 3.0384e-05
1750.0 3.1066e-05
1770.0 3.1758e-05
1790.0 3.2453e-05
1810.0 3.3115e-05
1830.0 3.3752e-05
1850.0 3.4413e-05
1870.0 3.5039e-05
1890.0 3.5626e-05
1910.0 3.6207e-05
1930.0 3.6783e-05
1950.0 3.7309e-05
1970.0 3.7807e-05
1990.0 3.8308e-05
2010.0 3.8777e-05
2030.0 3.9205e-05
2050.0 3.9632e-05
2070.0 4.0058e-05
2090.0 4.0432e-05
2110.0 4.0792e-05
2130.0 4.1158e-05
2150.0 4.1505e-05
2170.0 4.1821e-05
2190.0 4.2157e-05
2210.0 4.2498e-05
2230.0 4.2821e-05
2250.0 4.3151e-05
2270.0 4.3519e-05
2290.0 4.3885e-05
2310.0 4.425e-05
2330.0 4.4657e-05
2350.0 4.5097e-05
2370.0 4.5547e-05
2390.0 4.604e-05
2410.0 4.6598e-05
2430.0 4.7182e-05
2450.0 4.7802e-05
2470.0 4.8489e-05
2490.0 4.9251e-05
2510.0 5.0087e-05
2530.0 5.1134e-05
2550.0 5.2621e-05
2570.0 5.4821e-05
2590.0 5.8079e-05
2610.0 6.3232e-05
2630.0 7.0631e-05
2650.0 8.0077e-05
2670.0 9.1801e-05
2690.0 0.0001056
2710.0 0.00011992
2730.0 0.00013396
2750.0 0.00014795
2770.0 0.00016087
2790.0 0.00017245
2810.0 0.00018344
2830.0 0.00019445
2850.0 0.00020499
2870.0 0.00021573
2890.0 0.00022719
2910.0 0.00023918
2930.0 0.00025139
2950.0 0.00026447
2970.0 0.00027833
2990.0 0.00029245
3010.0 0.00067091
3030.0 0.00070425
3050.0 0.00073762
3070.0 0.00076828
3090.0 0.00079473
3110.0 0.00081035
3130.0 0.00080725
3150.0 0.00077658
3170.0 0.00070052
3190.0 0.00057705
3210.0 0.00040777
3230.0 0.00021674
3250.0 0.00042233
3270.0 0.00019101
3290.0 0.00066727
3310.0 0.00014681
3330.0 0.0001432
3350.0 0.00020744
3370.0 0.00028249
3390.0 0.00036321
3410.0 0.00044376
3430.0 0.00052834
3450.0 0.00061302
3470.0 0.0006905
3490.0 0.00074187
3510.0 0.00092909
3530.0 0.0012709
3550.0 0.0012383
3570.0 0.00099071
3590.0 0.0014297
3610.0 0.00084187
3630.0 0.0014909
3650.0 0.0017489
3670.0 0.0022894
3690.0 0.0021277
3710.0 0.0013788
3730.0 0.0018768
3750.0 0.00194
3770.0 0.0020393
3790.0 0.0018807
3810.0 0.0017697
3830.0 0.0027497
3850.0 0.0032103
3870.0 0.0040127
3890.0 0.0037865
3910.0 0.0033217
3930.0 0.0034477
3950.0 0.0038202
3970.0 0.0046949
3990.0 0.0033284
4010.0 0.0018689
4030.0 0.0029986
4050.0 0.0036604
4070.0 0.0041414
4090.0 0.0032754
4110.0 0.0020471
4130.0 0.0030631
4150.0 0.0029235
4170.0 0.0029564
4190.0 0.002841
4210.0 0.0038002
4230.0 0.0025849
4250.0 0.0030157
4270.0 0.0030048
4290.0 0.0029625
4310.0 0.003763
4330.0 0.0039199
4350.0 0.0029919
4370.0 0.0024873
4390.0 0.0031779
4410.0 0.0033224
4430.0 0.0024825
4450.0 0.0024313
4470.0 0.002943
4490.0 0.0021175
4510.0 0.0027708
4530.0 0.0029335
4550.0 0.0038043
4570.0 0.0055873
4590.0 0.0052811
4610.0 0.0034088
4630.0 0.0058639
4650.0 0.0085142
4670.0 0.0078804
4690.0 0.0046626
4710.0 0.0051537
4730.0 0.006686
4750.0 0.0058458
4770.0 0.004379
4790.0 0.0028622
4810.0 0.0042483
4830.0 0.004975
4850.0 0.0042539
4870.0 0.001161
4890.0 0.0046436
4910.0 0.0066004
4930.0 0.0071117
4950.0 0.0069623
4970.0 0.0040958
4990.0 0.0048301
5010.0 0.0059085
5030.0 0.0066855
5050.0 0.0066209
5070.0 0.0046907
5090.0 0.0037814
5110.0 0.0035598
5130.0 0.0032092
5150.0 0.0035725
5170.0 0.0030885
5190.0 0.0038695
5210.0 0.0038806
5230.0 0.0042761
5250.0 0.0053347
5270.0 0.0042955
5290.0 0.0042242
5310.0 0.006484
5330.0 0.0075572
5350.0 0.0061624
5370.0 0.0052886
5390.0 0.0062174
5410.0 0.0079144
5430.0 0.0086918
5450.0 0.0091939
5470.0 0.0090421
5490.0 0.0087849
5510.0 0.010421
5530.0 0.010808
5550.0 0.011636
5570.0 0.012438
5590.0 0.012307
5610.0 0.011518
5630.0 0.011089
5650.0 0.011374
5670.0 0.011184
5690.0 0.0094133
5710.0 0.009204
5730.0 0.0094365
5750.0 0.010301
5770.0 0.0088114
5790.0 0.0080636
5810.0 0.0081403
5830.0 0.0086448
5850.0 0.0078715
5870.0 0.0079714
5890.0 0.0096464
5910.0 0.009085
5930.0 0.007276
5950.0 0.0062835
5970.0 0.0068842
5990.0 0.0063399
6010.0 0.0059767
6030.0 0.0061178
6050.0 0.0056646
6070.0 0.0041505
6090.0 0.0037386
6110.0 0.0050117
6130.0 0.0058295
6150.0 0.0060878
6170.0 0.0058214
6190.0 0.0053569
6210.0 0.0053076
6230.0 0.0064161
6250.0 0.0059284
6270.0 0.0054127
6290.0 0.0050078
6310.0 0.0047121
6330.0 0.0044611
6350.0 0.0038838
6370.0 0.003855
6390.0 0.0045731
6410.0 0.0057276
6430.0 0.0066211
6450.0 0.0062182
6470.0 0.0060478
6490.0 0.0076646
6510.0 0.0089372
6530.0 0.0084228
6550.0 0.008004
6570.0 0.0081318
6590.0 0.0079166
6610.0 0.0086148
6630.0 0.0080281
6650.0 0.0069444
6670.0 0.006265
6690.0 0.0061909
6710.0 0.0077571
6730.0 0.0070139
6750.0 0.0057909
6770.0 0.0050971
6790.0 0.0053847
6810.0 0.0061467
6830.0 0.006043
6850.0 0.0054115
6870.0 0.0056637
6890.0 0.0056181
6910.0 0.0052853
6930.0 0.0060874
6950.0 0.0055757
6970.0 0.0051183
6990.0 0.0050648
7010.0 0.0049194
7030.0 0.0046987
7050.0 0.0045819
7070.0 0.0050995
7090.0 0.0048459
7110.0 0.0041214
7130.0 0.0033257
7150.0 0.0030876
7170.0 0.0041702
7190.0 0.0045331
7210.0 0.0042954
7230.0 0.0044448
7250.0 0.004114
7270.0 0.0039004
7290.0 0.0043613
7310.0 0.0049527
7330.0 0.0048814
7350.0 0.004543
7370.0 0.0042475
7390.0 0.0043641
7410.0 0.0051021
7430.0 0.0056324
7450.0 0.0059416
7470.0 0.0058172
7490.0 0.0061831
7510.0 0.006028
7530.0 0.005851
7550.0 0.0057877
7570.0 0.0050897
7590.0 0.0050181
7610.0 0.0048503
7630.0 0.0044107
7650.0 0.004777
7670.0 0.0052324
7690.0 0.0056864
7710.0 0.006443
7730.0 0.0068343
7750.0 0.0071335
7770.0 0.0072395
7790.0 0.0079632
7810.0 0.0081598
7830.0 0.0073751
7850.0 0.0074364
7870.0 0.0071107
7890.0 0.0074683
7910.0 0.0070807
7930.0 0.0071422
7950.0 0.0061368
7970.0 0.0062685
7990.0 0.0060019
8010.0 0.0062304
8030.0 0.0062037
8050.0 0.0065681
8070.0 0.0063014
8090.0 0.0063317
8110.0 0.0062184
8130.0 0.0062132
8150.0 0.0059006
8170.0 0.0057621
8190.0 0.0057165
8210.0 0.0057711
8230.0 0.0050594
8250.0 0.0046215
8270.0 0.00408
8290.0 0.0034477
8310.0 0.0030315
8330.0 0.0024315
8350.0 0.0020101
8370.0 0.0020033
8390.0 0.0019689
8410.0 0.0020545
8430.0 0.0025943
8450.0 0.0028017
8470.0 0.0029916
8490.0 0.0034855
8510.0 0.0037952
8530.0 0.0043524
8550.0 0.0051512
8570.0 0.005683
8590.0 0.0060193
8610.0 0.0066213
8630.0 0.0074249
8650.0 0.0075816
8670.0 0.0077097
8690.0 0.0080346
8710.0 0.0079086
8730.0 0.0077405
8750.0 0.0072133
8770.0 0.0072291
8790.0 0.0071436
8810.0 0.0065787
8830.0 0.0066143
8850.0 0.0061531
8870.0 0.0059034
8890.0 0.0053242
8910.0 0.005837
8930.0 0.0052937
8950.0 0.0052583
8970.0 0.0053283
8990.0 0.0051579
9010.0 0.0052921
9030.0 0.0050441
9050.0 0.0050175
9070.0 0.0050158
9090.0 0.0050129
9110.0 0.0050127
9130.0 0.0050081
9150.0 0.0050013
9170.0 0.004981
9190.0 0.0049399
9210.0 0.0050109
9230.0 0.0049853
9250.0 0.0049685
9270.0 0.0049533
9290.0 0.004939
9310.0 0.0049253
9330.0 0.0049116
9350.0 0.0048977
9370.0 0.0048834
9390.0 0.0048687
9410.0 0.0048536
9430.0 0.0048379
9450.0 0.0048218
9470.0 0.0048052
9490.0 0.0047884
9510.0 0.0047712
9530.0 0.0047537
9550.0 0.0047359
9570.0 0.0047178
9590.0 0.0046995
9610.0 0.004681
9630.0 0.0046624
9650.0 0.0046437
9670.0 0.0046247
9690.0 0.0046058
9710.0 0.0045869
9730.0 0.0045678
9750.0 0.0045488
9770.0 0.0045299
9790.0 0.004511
9810.0 0.0044921
9830.0 0.0044734
9850.0 0.0044548
9870.0 0.0044362
9890.0 0.0044179
9910.0 0.0043998
9930.0 0.0043817
9950.0 0.0043547
9970.0 0.00434
9990.0 0.004325
10010.0 0.0043098
10030.0 0.0042942
10050.0 0.0042771
10070.0 0.0042538
10090.0 0.0042408
10110.0 0.0042274
10130.0 0.0042138
10150.0 0.0042001
10170.0 0.0041861
10190.0 0.0041718
10210.0 0.0041582
10230.0 0.004145
10250.0 0.0041316
10270.0 0.0041187
10290.0 0.0041066
10310.0 0.0040944
10330.0 0.0040823
10350.0 0.0040711
10370.0 0.0040602
10390.0 0.0040494
10410.0 0.0040391
10430.0 0.0040296
10450.0 0.00402
10470.0 0.0040107
10490.0 0.0040021
10510.0 0.0039939
10530.0 0.0039856
10550.0 0.0039779
10570.0 0.0039709
10590.0 0.0039639
10610.0 0.0039572
10630.0 0.0039512
10650.0 0.0039456
10670.0 0.0039399
10690.0 0.0039347
10710.0 0.0039301
10730.0 0.0039256
10750.0 0.0039213
10770.0 0.0039177
10790.0 0.0039144
10810.0 0.0039111
10830.0 0.0039081
10850.0 0.0039054
10870.0 0.0039019
10890.0 0.0038972
10910.0 0.0038907
10930.0 0.0038803
10950.0 0.003863
10970.0 0.0038376
10990.0 0.0038033
11010.0 0.0038192
11030.0 0.0037594
11050.0 0.003689
11070.0 0.0036075
11090.0 0.0035128
11110.0 0.003418
11130.0 0.003323
11150.0 0.0032252
11170.0 0.0031294
11190.0 0.0030414
11210.0 0.0029555
11230.0 0.0028725
11250.0 0.0027977
11270.0 0.0027297
11290.0 0.0026647
11310.0 0.0026055
11330.0 0.0025549
11350.0 0.0025074
11370.0 0.0024631
11390.0 0.0024234
11410.0 0.0023867
11430.0 0.0023493
11450.0 0.0023134
11470.0 0.0022788
11490.0 0.0022426
11510.0 0.0022041
11530.0 0.0021658
11550.0 0.0021263
11570.0 0.0020833
11590.0 0.0020388
11610.0 0.0019945
11630.0 0.0019469
11650.0 0.0018968
11670.0 0.0018484
11690.0 0.0017997
11710.0 0.0017493
11730.0 0.0017
11750.0 0.0016537
11770.0 0.0016067
11790.0 0.0015606
11810.0 0.0015181
11830.0 0.0014775
11850.0 0.0014368
11870.0 0.0013996
11890.0 0.0013658
11910.0 0.0013327
11930.0 0.0013009
11950.0 0.0012721
11970.0 0.0012444
11990.0 0.0012166
12010.0 0.0011908
12030.0 0.0011666
12050.0 0.0011424
12070.0 0.0011185
12090.0 0.0010974
12110.0 0.001077
12130.0 0.0010572
12150.0 0.0010396
12170.0 0.0010244
12190.0 0.0010102
12210.0 0.00099902
12230.0 0.00099134
12250.0 0.0009868
12270.0 0.00098584
12290.0 0.00098908
12310.0 0.00099627
12330.0 0.0010077
12350.0 0.0010234
12370.0 0.0010424
12390.0 0.0010649
12410.0 0.0010914
12430.0 0.0011191
12450.0 0.0011479
12470.0 0.0011784
12490.0 0.0012089
12510.0 0.0012377
12530.0 0.0012662
12550.0 0.0012935
12570.0 0.0013181
12590.0 0.0013403
12610.0 0.0013608
12630.0 0.0013785
12650.0 0.0013932
12670.0 0.0014058
12690.0 0.0014162
12710.0 0.0014243
12730.0 0.0014304
12750.0 0.0014345
12770.0 0.0014368
12790.0 0.0014376
12810.0 0.0014367
12830.0 0.001434
12850.0 0.0014301
12870.0 0.0014247
12890.0 0.0014174
12910.0 0.0014086
12930.0 0.0013987
12950.0 0.0013865
12970.0 0.0013722
12990.0 0.0013571
13010.0 0.0013405
13030.0 0.0013217
13050.0 0.0013018
13070.0 0.0012819
13090.0 0.0012601
13110.0 0.0012375
13130.0 0.0012156
13150.0 0.001194
13170.0 0.0011719
13190.0 0.0011518
13210.0 0.001134
13230.0 0.0011175
13250.0 0.0011032
13270.0 0.0010922
13290.0 0.0010835
13310.0 0.0010772
13330.0 0.0010738
13350.0 0.0010726
13370.0 0.0010733
13390.0 0.0010753
13410.0 0.0010782
13430.0 0.0010812
13450.0 0.0010838
13470.0 0.0010855
13490.0 0.0010859
13510.0 0.0010843
13530.0 0.0010807
13550.0 0.0010753
13570.0 0.001068
13590.0 0.0010585
13610.0 0.001048
13630.0 0.0010367
13650.0 0.0010242
13670.0 0.0010114
13690.0 0.00099917
13710.0 0.00098696
13730.0 0.00097467
13750.0 0.00096379
13770.0 0.00095367
13790.0 0.00094388
13810.0 0.00093477
13830.0 0.00092653
13850.0 0.00091835
13870.0 0.00091021
13890.0 0.00090241
13910.0 0.00089465
13930.0 0.00088646
13950.0 0.00087817
13970.0 0.00087019
13990.0 0.00086193
14010.0 0.0008536
14030.0 0.00084571
14050.0 0.00083816
14070.0 0.0008307
14090.0 0.00082402
14110.0 0.00081815
14130.0 0.00081291
14150.0 0.00080843
14170.0 0.00080493
14190.0 0.00080223
14210.0 0.00080035
14230.0 0.00079933
14250.0 0.00079908
14270.0 0.0007997
14290.0 0.0008012
14310.0 0.0008033
14330.0 0.00080609
14350.0 0.00080969
14370.0 0.00081373
14390.0 0.00081796
14410.0 0.00082276
14430.0 0.00082776
14450.0 0.00083252
14470.0 0.0008372
14490.0 0.00084201
14510.0 0.00084628
14530.0 0.00085008
14550.0 0.00085385
14570.0 0.00085748
14590.0 0.00086081
14610.0 0.00086437
14630.0 0.0008685
14650.0 0.00087296
14670.0 0.00087799
14690.0 0.00088424
14710.0 0.00089181
14730.0 0.00089996
14750.0 0.00090964
14770.0 0.00092106
14790.0 0.00093344
14810.0 0.00094662
14830.0 0.00096201
14850.0 0.00097802
14870.0 0.00099384
14890.0 0.0010101
14910.0 0.0010266
14930.0 0.0010413
14950.0 0.001054
14970.0 0.0010651
14990.0 0.0010732
15010.0 0.001078
15030.0 0.00108
15050.0 0.0010796
15070.0 0.0010767
15090.0 0.0010725
15110.0 0.0010672
15130.0 0.0010612
15150.0 0.0010551
15170.0 0.0010486
15190.0 0.0010421
15210.0 0.0010356
15230.0 0.0010291
15250.0 0.0010226
15270.0 0.001016
15290.0 0.0010096
15310.0 0.0010031
15330.0 0.00099662
15350.0 0.00099019
15370.0 0.00098379
15390.0 0.0009773
15410.0 0.00097088
15430.0 0.00096453
15450.0 0.00095815
15470.0 0.00095175
15490.0 0.00094547
15510.0 0.0009392
15530.0 0.00093289
15550.0 0.00092664
15570.0 0.00092046
15590.0 0.00091424
15610.0 0.00090801
15630.0 0.00090191
15650.0 0.00089582
15670.0 0.0008897
15690.0 0.00088366
15710.0 0.0008777
15730.0 0.0008717
15750.0 0.00086572
15770.0 0.00085984
15790.0 0.00085398
15810.0 0.00084807
15830.0 0.00084226
15850.0 0.00083654
15870.0 0.00083079
15890.0 0.00082507
15910.0 0.00081946
15930.0 0.00081385
15950.0 0.00080822
15970.0 0.00080268
15990.0 0.00079721
16010.0 0.00079172
16030.0 0.00078626
16050.0 0.00078093
16070.0 0.0007756
16090.0 0.00077026
16110.0 0.00076501
16130.0 0.00075984
16150.0 0.0007546
16170.0 0.00074944
16190.0 0.00074438
16210.0 0.00073933
16230.0 0.00073427
16250.0 0.00072931
16270.0 0.00072442
16290.0 0.0007195
16310.0 0.00071464
16330.0 0.00070987
16350.0 0.0007051
16370.0 0.0007003
16390.0 0.00069564
16410.0 0.00069102
16430.0 0.00068639
16450.0 0.00068182
16470.0 0.00067735
16490.0 0.00067285
16510.0 0.00066837
16530.0 0.00066399
16550.0 0.00065965
16570.0 0.00065528
16590.0 0.00065097
16610.0 0.00064678
16630.0 0.00064257
16650.0 0.00063838
16670.0 0.00063428
16690.0 0.00063022
16710.0 0.00062611
16730.0 0.00062209
16750.0 0.00061815
16770.0 0.0006142
16790.0 0.00061026
16810.0 0.00060643
16830.0 0.00060262
16850.0 0.0005988
16870.0 0.00059504
16890.0 0.00059136
16910.0 0.00058765
16930.0 0.00058395
16950.0 0.00058037
16970.0 0.00057681
16990.0 0.00057322
17010.0 0.00056972
17030.0 0.00056628
17050.0 0.00056281
17070.0 0.00055937
17090.0 0.00055602
17110.0 0.00055268
17130.0 0.00054931
17150.0 0.00054603
17170.0 0.00054282
17190.0 0.00053958
17210.0 0.00053637
17230.0 0.00053325
17250.0 0.00053012
17270.0 0.00052697
17290.0 0.00052391
17310.0 0.00052089
17330.0 0.00051785
17350.0 0.00051483
17370.0 0.00051192
17390.0 0.00050899
17410.0 0.00050606
17430.0 0.0005032
17450.0 0.00050039
17470.0 0.00049752
17490.0 0.0004947
17510.0 0.00049197
17530.0 0.00048922
17550.0 0.00048647
17570.0 0.0004838
17590.0 0.00048117
17610.0 0.00047849
17630.0 0.00047586
17650.0 0.0004733
17670.0 0.00047073
17690.0 0.00046811
17710.0 0.00046562
17730.0 0.00046314
17750.0 0.00046064
17770.0 0.00045818
17790.0 0.00045579
17810.0 0.00045336
17830.0 0.00045094
17850.0 0.00044859
17870.0 0.00044626
17890.0 0.00044389
17910.0 0.00044157
17930.0 0.00043933
17950.0 0.00043705
17970.0 0.00043478
17990.0 0.00043258
18010.0 0.0004304
18030.0 0.00042816
18050.0 0.00042599
18070.0 0.00042387
18090.0 0.00042172
18110.0 0.00041957
18130.0 0.00041751
18150.0 0.00041545
18170.0 0.00041336
18190.0 0.00041132
18210.0 0.00040933
18230.0 0.00040729
18250.0 0.00040526
18270.0 0.00040332
18290.0 0.00040137
18310.0 0.0003994
18330.0 0.00039748
18350.0 0.00039561
18370.0 0.00039369
18390.0 0.00039179
18410.0 0.00038995
18430.0 0.00038811
18450.0 0.00038622
18470.0 0.00038441
18490.0 0.00038264
18510.0 0.00038083
18530.0 0.00037903
18550.0 0.00037731
18570.0 0.00037556
18590.0 0.00037378
18610.0 0.00037207
18630.0 0.00037038
18650.0 0.00036866
18670.0 0.00036695
18690.0 0.00036532
18710.0 0.00036367
18730.0 0.00036199
18750.0 0.00036038
18770.0 0.00035879
18790.0 0.00035713
18810.0 0.00035552
18830.0 0.00035396
18850.0 0.00035239
18870.0 0.00035079
18890.0 0.00034926
18910.0 0.00034775
18930.0 0.00034619
18950.0 0.00034466
18970.0 0.00034319
18990.0 0.00034168
19010.0 0.00034014
19030.0 0.00033869
19050.0 0.00033724
19070.0 0.00033576
19090.0 0.00033431
19110.0 0.00033292
19130.0 0.00033147
19150.0 0.00033002
19170.0 0.00032863
19190.0 0.00032725
19210.0 0.00032582
19230.0 0.00032443
19250.0 0.0003231
19270.0 0.00032172
19290.0 0.00032035
19310.0 0.00031903
19330.0 0.0003177
19350.0 0.00031632
19370.0 0.000315
19390.0 0.00031371
19410.0 0.00031239
19430.0 0.00031106
19450.0 0.00030981
19470.0 0.00030853
19490.0 0.00030723
19510.0 0.00030596
19530.0 0.00030473
19550.0 0.00030345
19570.0 0.00030216
19590.0 0.00030095
19610.0 0.00029973
19630.0 0.00029847
19650.0 0.00029726
19670.0 0.00029608
19690.0 0.00029484
19710.0 0.00029362
19730.0 0.00029245
19750.0 0.00029126
19770.0 0.00029003
19790.0 0.00028886
19810.0 0.00028772
19830.0 0.00028652
19850.0 0.00028532
19870.0 0.00028416
19890.0 0.00028289
19910.0 0.00028148
19930.0 0.00027995
19950.0 0.00027817
19970.0 0.00027594
19990.0 0.00027323
20010.0 0.00027014
20030.0 0.00026642
20050.0 0.00026209
20070.0 0.00025748
20090.0 0.00025263
20110.0 0.00024725
20130.0 0.00024196
20150.0 0.00023687
20170.0 0.00023173
20190.0 0.00022665
20210.0 0.00022198
20230.0 0.00021754
20250.0 0.0002132
20270.0 0.00020928
20290.0 0.0002058
20310.0 0.00020259
20330.0 0.00019971
20350.0 0.00019747
20370.0 0.00019563
20390.0 0.00019421
20410.0 0.00019331
20430.0 0.00019291
20450.0 0.00019298
20470.0 0.00019357
20490.0 0.00019461
20510.0 0.0001961
20530.0 0.00019809
20550.0 0.00020045
20570.0 0.00020306
20590.0 0.00020607
20610.0 0.00020935
20630.0 0.0002127
20650.0 0.00021619
20670.0 0.00021991
20690.0 0.00022346
20710.0 0.00022686
20730.0 0.00023022
20750.0 0.00023339
20770.0 0.00023619
20790.0 0.00023877
20810.0 0.00024112
20830.0 0.0002431
20850.0 0.00024476
20870.0 0.00024619
20890.0 0.00024732
20910.0 0.00024816
20930.0 0.00024879
20950.0 0.00024922
20970.0 0.00024947
20990.0 0.00024955
21010.0 0.00024948
21030.0 0.00024926
21050.0 0.00024891
21070.0 0.00024842
21090.0 0.00024776
21110.0 0.00024702
21130.0 0.00024617
21150.0 0.00024517
21170.0 0.00024408
21190.0 0.00024296
21210.0 0.00024174
21230.0 0.00024046
21250.0 0.00023923
21270.0 0.00023803
21290.0 0.00023684
21310.0 0.00023573
21330.0 0.00023478
21350.0 0.0002339
21370.0 0.00023316
21390.0 0.0002326
21410.0 0.0002322
21430.0 0.00023195
21450.0 0.0002319
21470.0 0.00023203
21490.0 0.00023233
21510.0 0.00023281
21530.0 0.00023343
21550.0 0.0002342
21570.0 0.00023514
21590.0 0.0002362
21610.0 0.00023736
21630.0 0.00023867
21650.0 0.00024014
21670.0 0.00024162
21690.0 0.00024323
21710.0 0.00024499
21730.0 0.00024681
21750.0 0.00024868
21770.0 0.00025076
21790.0 0.00025293
21810.0 0.00025513
21830.0 0.00025745
21850.0 0.00025995
21870.0 0.00026248
21890.0 0.00026503
21910.0 0.00026774
21930.0 0.00027053
21950.0 0.00027327
21970.0 0.00027608
21990.0 0.00027903
22010.0 0.00028183
22030.0 0.00028455
22050.0 0.00028727
22070.0 0.00028989
22090.0 0.00029225
22110.0 0.0002945
22130.0 0.00029658
22150.0 0.00029835
22170.0 0.00029982
22190.0 0.00030103
22210.0 0.00030187
22230.0 0.00030232
22250.0 0.00030239
22270.0 0.00030204
22290.0 0.00030129
22310.0 0.00030015
22330.0 0.00029851
22350.0 0.00029646
22370.0 0.00029408
22390.0 0.00029127
22410.0 0.00028797
22430.0 0.00028451
22450.0 0.00028078
22470.0 0.00027664
22490.0 0.00027232
22510.0 0.00026799
22530.0 0.00026333
22550.0 0.00025848
22570.0 0.00025379
22590.0 0.0002491
22610.0 0.00024426
22630.0 0.00023956
22650.0 0.00023516
22670.0 0.0002307
22690.0 0.00022635
22710.0 0.00022231
22730.0 0.00021846
22750.0 0.00021459
22770.0 0.00021108
22790.0 0.00020788
22810.0 0.00020479
22830.0 0.00020189
22850.0 0.00019932
22870.0 0.00019693
22890.0 0.00019467
22910.0 0.00019269
22930.0 0.00019096
22950.0 0.00018939
22970.0 0.00018801
22990.0 0.00018694
23010.0 0.00018605
23030.0 0.00018536
23050.0 0.00018491
23070.0 0.00018467
23090.0 0.00018463
23110.0 0.0001848
23130.0 0.00018514
23150.0 0.00018565
23170.0 0.00018633
