#lamb flux
1010.0 7.1831e-07
1030.0 7.7962e-07
1050.0 8.5022e-07
1070.0 9.2972e-07
1090.0 1.02e-06
1110.0 1.1127e-06
1130.0 1.2061e-06
1150.0 1.304e-06
1170.0 1.405e-06
1190.0 1.501e-06
1210.0 1.5983e-06
1230.0 1.699e-06
1250.0 1.7977e-06
1270.0 1.8938e-06
1290.0 1.9954e-06
1310.0 2.097e-06
1330.0 2.1947e-06
1350.0 2.2937e-06
1370.0 2.3959e-06
1390.0 2.4959e-06
1410.0 2.593e-06
1430.0 2.6947e-06
1450.0 2.7966e-06
1470.0 2.8953e-06
1490.0 2.9951e-06
1510.0 3.1007e-06
1530.0 3.201e-06
1550.0 3.3e-06
1570.0 3.4025e-06
1590.0 3.5052e-06
1610.0 3.6035e-06
1630.0 3.7047e-06
1650.0 3.8085e-06
1670.0 3.9089e-06
1690.0 4.0079e-06
1710.0 4.1105e-06
1730.0 4.2134e-06
1750.0 4.3099e-06
1770.0 4.4089e-06
1790.0 4.5094e-06
1810.0 4.6061e-06
1830.0 4.7006e-06
1850.0 4.8002e-06
1870.0 4.8964e-06
1890.0 4.9884e-06
1910.0 5.0815e-06
1930.0 5.1758e-06
1950.0 5.2645e-06
1970.0 5.3508e-06
1990.0 5.4395e-06
2010.0 5.5252e-06
2030.0 5.606e-06
2050.0 5.6882e-06
2070.0 5.7712e-06
2090.0 5.8469e-06
2110.0 5.9207e-06
2130.0 5.9955e-06
2150.0 6.0667e-06
2170.0 6.1321e-06
2190.0 6.1988e-06
2210.0 6.2643e-06
2230.0 6.324e-06
2250.0 6.3813e-06
2270.0 6.4405e-06
2290.0 6.4947e-06
2310.0 6.5431e-06
2330.0 6.5922e-06
2350.0 6.6399e-06
2370.0 6.6818e-06
2390.0 6.7225e-06
2410.0 6.7657e-06
2430.0 6.8049e-06
2450.0 6.8418e-06
2470.0 6.8831e-06
2490.0 6.9327e-06
2510.0 6.9929e-06
2530.0 7.0914e-06
2550.0 7.2731e-06
2570.0 7.5834e-06
2590.0 8.0753e-06
2610.0 8.8874e-06
2630.0 1.005e-05
2650.0 1.1495e-05
2670.0 1.3234e-05
2690.0 1.5196e-05
2710.0 1.7103e-05
2730.0 1.8825e-05
2750.0 2.0392e-05
2770.0 2.1655e-05
2790.0 2.2606e-05
2810.0 2.3364e-05
2830.0 2.4019e-05
2850.0 2.4543e-05
2870.0 2.5027e-05
2890.0 2.5528e-05
2910.0 2.6031e-05
2930.0 2.651e-05
2950.0 2.7025e-05
2970.0 2.7564e-05
2990.0 2.8086e-05
3010.0 0.00019274
3030.0 0.00019644
3050.0 0.00020006
3070.0 0.00020312
3090.0 0.00020566
3110.0 0.00020691
3130.0 0.00020593
3150.0 0.0002019
3170.0 0.00019323
3190.0 0.00017985
3210.0 0.00016231
3230.0 0.0001429
3250.0 0.00015774
3270.0 0.00013835
3290.0 0.00017841
3310.0 0.00013633
3330.0 0.0001379
3350.0 0.00014619
3370.0 0.0001566
3390.0 0.00016846
3410.0 0.00018051
3430.0 0.00019331
3450.0 0.00020659
3470.0 0.00021934
3490.0 0.00022997
3510.0 0.00025238
3530.0 0.00028718
3550.0 0.00028939
3570.0 0.00027349
3590.0 0.00031628
3610.0 0.00027599
3630.0 0.00034104
3650.0 0.00037404
3670.0 0.00042596
3690.0 0.000412
3710.0 0.00034374
3730.0 0.00037889
3750.0 0.00038151
3770.0 0.00041198
3790.0 0.00043382
3810.0 0.00048977
3830.0 0.00068839
3850.0 0.00086157
3870.0 0.0010254
3890.0 0.0010605
3910.0 0.0010175
3930.0 0.0010275
3950.0 0.001075
3970.0 0.0010012
3990.0 0.00060904
4010.0 0.00041182
4030.0 0.00067885
4050.0 0.00092276
4070.0 0.0008737
4090.0 0.00052048
4110.0 0.00041152
4130.0 0.00067652
4150.0 0.00075907
4170.0 0.00063399
4190.0 0.00053181
4210.0 0.00076309
4230.0 0.00070179
4250.0 0.00067674
4270.0 0.00067378
4290.0 0.00060711
4310.0 0.0007363
4330.0 0.0008491
4350.0 0.00087484
4370.0 0.00080781
4390.0 0.00084978
4410.0 0.00079915
4430.0 0.00059991
4450.0 0.00047153
4470.0 0.00056106
4490.0 0.00053076
4510.0 0.00076445
4530.0 0.00078644
4550.0 0.00080093
4570.0 0.00099944
4590.0 0.0011613
4610.0 0.0013752
4630.0 0.0018273
4650.0 0.0020128
4670.0 0.002039
4690.0 0.0019544
4710.0 0.0019399
4730.0 0.0017173
4750.0 0.0012681
4770.0 0.0010298
4790.0 0.00081114
4810.0 0.00087244
4830.0 0.0010026
4850.0 0.0010137
4870.0 0.00091085
4890.0 0.0012454
4910.0 0.0012802
4930.0 0.0013871
4950.0 0.0016286
4970.0 0.0016828
4990.0 0.001914
5010.0 0.0019836
5030.0 0.001829
5050.0 0.0014636
5070.0 0.0010553
5090.0 0.00088895
5110.0 0.00090116
5130.0 0.00094264
5150.0 0.00089462
5170.0 0.0008609
5190.0 0.000909
5210.0 0.00093498
5230.0 0.0010287
5250.0 0.001104
5270.0 0.001062
5290.0 0.001228
5310.0 0.0015366
5330.0 0.0016806
5350.0 0.0015818
5370.0 0.0015934
5390.0 0.0017243
5410.0 0.0017296
5430.0 0.0016799
5450.0 0.0017476
5470.0 0.0019345
5490.0 0.0023019
5510.0 0.002758
5530.0 0.0028752
5550.0 0.0028709
5570.0 0.0028298
5590.0 0.002711
5610.0 0.0025679
5630.0 0.0025828
5650.0 0.0026809
5670.0 0.0025926
5690.0 0.0023503
5710.0 0.0023172
5730.0 0.0021447
5750.0 0.0019143
5770.0 0.0017054
5790.0 0.0018094
5810.0 0.0019363
5830.0 0.0021355
5850.0 0.0021057
5870.0 0.0020623
5890.0 0.0021203
5910.0 0.0019592
5930.0 0.0018091
5950.0 0.0018136
5970.0 0.0018944
5990.0 0.0016729
6010.0 0.0014152
6030.0 0.0012304
6050.0 0.0011136
6070.0 0.0010499
6090.0 0.001122
6110.0 0.0012438
6130.0 0.0012495
6150.0 0.0012603
6170.0 0.0013221
6190.0 0.0014266
6210.0 0.0016395
6230.0 0.0019097
6250.0 0.0017805
6270.0 0.0015597
6290.0 0.0013461
6310.0 0.001116
6330.0 0.00098135
6350.0 0.00094175
6370.0 0.0010056
6390.0 0.0011221
6410.0 0.0013456
6430.0 0.0016529
6450.0 0.0019169
6470.0 0.0021241
6490.0 0.0024191
6510.0 0.0026368
6530.0 0.0025473
6550.0 0.0024369
6570.0 0.0024595
6590.0 0.0024579
6610.0 0.0024363
6630.0 0.0022922
6650.0 0.0020693
6670.0 0.0019994
6690.0 0.0019602
6710.0 0.0019852
6730.0 0.0017361
6750.0 0.0014904
6770.0 0.0014649
6790.0 0.0015623
6810.0 0.0017468
6830.0 0.0017703
6850.0 0.0016272
6870.0 0.001621
6890.0 0.0015994
6910.0 0.0015065
6930.0 0.0015275
6950.0 0.001495
6970.0 0.0014746
6990.0 0.0015177
7010.0 0.0016118
7030.0 0.0015869
7050.0 0.0014585
7070.0 0.0013996
7090.0 0.0012368
7110.0 0.0010714
7130.0 0.0010553
7150.0 0.0011202
7170.0 0.0012225
7190.0 0.0012287
7210.0 0.0011931
7230.0 0.0013084
7250.0 0.001411
7270.0 0.0014634
7290.0 0.0014963
7310.0 0.0014966
7330.0 0.0014096
7350.0 0.001307
7370.0 0.0012173
7390.0 0.0011931
7410.0 0.001309
7430.0 0.0015139
7450.0 0.0016623
7470.0 0.0018174
7490.0 0.0021046
7510.0 0.0020739
7530.0 0.0017337
7550.0 0.0015043
7570.0 0.0012607
7590.0 0.0011018
7610.0 0.0010704
7630.0 0.0010624
7650.0 0.0011506
7670.0 0.0013082
7690.0 0.0014353
7710.0 0.0016353
7730.0 0.0016976
7750.0 0.0017568
7770.0 0.0018816
7790.0 0.0019574
7810.0 0.0019277
7830.0 0.0017712
7850.0 0.0017567
7870.0 0.00171
7890.0 0.0016346
7910.0 0.0015142
7930.0 0.0014333
7950.0 0.0011998
7970.0 0.0011583
7990.0 0.0011634
8010.0 0.0013505
8030.0 0.0013527
8050.0 0.0014265
8070.0 0.0013882
8090.0 0.0013918
8110.0 0.0013669
8130.0 0.001315
8150.0 0.0012209
8170.0 0.0012083
8190.0 0.0012186
8210.0 0.0012313
8230.0 0.0011117
8250.0 0.0010299
8270.0 0.00090798
8290.0 0.00076218
8310.0 0.00063889
8330.0 0.00048082
8350.0 0.00037419
8370.0 0.00035019
8390.0 0.00035795
8410.0 0.0003979
8430.0 0.00050885
8450.0 0.00056057
8470.0 0.00060526
8490.0 0.00068985
8510.0 0.00074743
8530.0 0.00083677
8550.0 0.00099005
8570.0 0.0011052
8590.0 0.0011805
8610.0 0.0013392
8630.0 0.0015433
8650.0 0.0016042
8670.0 0.0016378
8690.0 0.0016641
8710.0 0.0016217
8730.0 0.0015571
8750.0 0.0014399
8770.0 0.0014278
8790.0 0.001393
8810.0 0.0012848
8830.0 0.0012497
8850.0 0.0011109
8870.0 0.0010396
8890.0 0.00094308
8910.0 0.0010526
8930.0 0.00097108
8950.0 0.0009843
8970.0 0.0010076
8990.0 0.00099014
9010.0 0.0010083
9030.0 0.0009621
9050.0 0.0009586
9070.0 0.00095958
9090.0 0.00096048
9110.0 0.00096203
9130.0 0.00096284
9150.0 0.00096328
9170.0 0.0009617
9190.0 0.00095733
9210.0 0.00097056
9230.0 0.00096814
9250.0 0.00096728
9270.0 0.00096682
9290.0 0.00096663
9310.0 0.00096659
9330.0 0.00096664
9350.0 0.00096678
9370.0 0.00096692
9390.0 0.00096703
9410.0 0.00096715
9430.0 0.0009673
9450.0 0.00096737
9470.0 0.00096744
9490.0 0.00096754
9510.0 0.00096761
9530.0 0.00096765
9550.0 0.00096776
9570.0 0.00096789
9590.0 0.00096798
9610.0 0.00096809
9630.0 0.00096827
9650.0 0.00096845
9670.0 0.00096859
9690.0 0.00096881
9710.0 0.00096908
9730.0 0.00096932
9750.0 0.0009696
9770.0 0.00097002
9790.0 0.00097039
9810.0 0.00097076
9830.0 0.00097123
9850.0 0.00097175
9870.0 0.00097224
9890.0 0.00097279
9910.0 0.00097344
9930.0 0.00097407
9950.0 0.00097377
9970.0 0.00097483
9990.0 0.00097589
10010.0 0.00097682
10030.0 0.00097777
10050.0 0.00097836
10070.0 0.00097684
10090.0 0.00097866
10110.0 0.00098045
10130.0 0.00098202
10150.0 0.00098348
10170.0 0.0009848
10190.0 0.000986
10210.0 0.00098725
10230.0 0.00098852
10250.0 0.00098973
10270.0 0.00099098
10290.0 0.00099231
10310.0 0.0009936
10330.0 0.00099486
10350.0 0.00099621
10370.0 0.00099759
10390.0 0.00099892
10410.0 0.0010003
10430.0 0.0010017
10450.0 0.0010031
10470.0 0.0010044
10490.0 0.0010058
10510.0 0.0010073
10530.0 0.0010086
10550.0 0.00101
10570.0 0.0010114
10590.0 0.0010127
10610.0 0.001014
10630.0 0.0010154
10650.0 0.0010168
10670.0 0.001018
10690.0 0.0010193
10710.0 0.0010206
10730.0 0.0010218
10750.0 0.001023
10770.0 0.0010242
10790.0 0.0010254
10810.0 0.0010265
10830.0 0.0010275
10850.0 0.0010285
10870.0 0.0010291
10890.0 0.0010292
10910.0 0.0010286
10930.0 0.0010266
10950.0 0.0010223
10970.0 0.0010153
10990.0 0.0010052
11010.0 0.0010272
11030.0 0.0010068
11050.0 0.00098324
11070.0 0.00095616
11090.0 0.00092489
11110.0 0.00089387
11130.0 0.00086295
11150.0 0.0008314
11170.0 0.00080092
11190.0 0.00077341
11210.0 0.00074715
11230.0 0.00072253
11250.0 0.00070114
11270.0 0.00068245
11290.0 0.00066539
11310.0 0.00065062
11330.0 0.00063848
11350.0 0.00062747
11370.0 0.00061732
11390.0 0.00060814
11410.0 0.00059932
11430.0 0.00058987
11450.0 0.00058011
11470.0 0.00056998
11490.0 0.00055883
11510.0 0.00054642
11530.0 0.0005337
11550.0 0.0005204
11570.0 0.000506
11590.0 0.00049136
11610.0 0.00047701
11630.0 0.00046216
11650.0 0.00044718
11670.0 0.00043324
11690.0 0.00041979
11710.0 0.0004065
11730.0 0.00039401
11750.0 0.00038262
11770.0 0.00037144
11790.0 0.00036074
11810.0 0.00035093
11830.0 0.00034158
11850.0 0.00033218
11870.0 0.00032336
11890.0 0.00031503
11910.0 0.00030661
11930.0 0.00029818
11950.0 0.00029012
11970.0 0.00028201
11990.0 0.00027358
12010.0 0.0002654
12030.0 0.00025745
12050.0 0.0002494
12070.0 0.0002414
12090.0 0.00023417
12110.0 0.00022724
12130.0 0.00022068
12150.0 0.00021492
12170.0 0.00021007
12190.0 0.00020588
12210.0 0.00020279
12230.0 0.0002009
12250.0 0.00020012
12270.0 0.00020059
12290.0 0.00020227
12310.0 0.000205
12330.0 0.00020896
12350.0 0.00021392
12370.0 0.0002195
12390.0 0.00022579
12410.0 0.00023292
12430.0 0.00023986
12450.0 0.00024673
12470.0 0.00025364
12490.0 0.00026016
12510.0 0.00026586
12530.0 0.00027112
12550.0 0.00027576
12570.0 0.00027944
12590.0 0.00028227
12610.0 0.00028442
12630.0 0.00028571
12650.0 0.00028616
12670.0 0.00028597
12690.0 0.00028513
12710.0 0.00028372
12730.0 0.00028185
12750.0 0.00027944
12770.0 0.00027667
12790.0 0.00027364
12810.0 0.00027027
12830.0 0.00026652
12850.0 0.00026267
12870.0 0.00025859
12890.0 0.0002541
12910.0 0.00024937
12930.0 0.0002445
12950.0 0.00023915
12970.0 0.00023334
12990.0 0.0002275
13010.0 0.00022138
13030.0 0.00021483
13050.0 0.00020822
13070.0 0.00020178
13090.0 0.00019511
13110.0 0.00018852
13130.0 0.00018239
13150.0 0.0001766
13170.0 0.00017101
13190.0 0.00016617
13210.0 0.00016208
13230.0 0.00015853
13250.0 0.00015566
13270.0 0.00015358
13290.0 0.00015211
13310.0 0.00015122
13330.0 0.00015091
13350.0 0.00015102
13370.0 0.00015148
13390.0 0.00015219
13410.0 0.00015295
13430.0 0.00015373
13450.0 0.00015444
13470.0 0.00015497
13490.0 0.00015529
13510.0 0.00015538
13530.0 0.0001552
13550.0 0.0001548
13570.0 0.00015421
13590.0 0.00015344
13610.0 0.00015259
13630.0 0.00015171
13650.0 0.00015081
13670.0 0.00014995
13690.0 0.00014918
13710.0 0.0001485
13730.0 0.00014789
13750.0 0.00014739
13770.0 0.00014695
13790.0 0.00014655
13810.0 0.00014615
13830.0 0.00014573
13850.0 0.00014523
13870.0 0.00014463
13890.0 0.00014391
13910.0 0.00014307
13930.0 0.00014206
13950.0 0.00014092
13970.0 0.00013972
13990.0 0.00013842
14010.0 0.00013705
14030.0 0.00013573
14050.0 0.00013445
14070.0 0.00013319
14090.0 0.00013207
14110.0 0.0001311
14130.0 0.00013024
14150.0 0.00012952
14170.0 0.00012896
14190.0 0.00012852
14210.0 0.00012821
14230.0 0.00012803
14250.0 0.00012797
14270.0 0.00012804
14290.0 0.00012826
14310.0 0.0001286
14330.0 0.00012908
14350.0 0.00012974
14370.0 0.00013052
14390.0 0.0001314
14410.0 0.00013244
14430.0 0.0001336
14450.0 0.0001348
14470.0 0.00013608
14490.0 0.0001375
14510.0 0.00013892
14530.0 0.00014036
14550.0 0.00014194
14570.0 0.00014365
14590.0 0.00014541
14610.0 0.00014739
14630.0 0.00014968
14650.0 0.00015215
14670.0 0.00015485
14690.0 0.00015797
14710.0 0.00016147
14730.0 0.00016505
14750.0 0.00016899
14770.0 0.00017331
14790.0 0.00017769
14810.0 0.00018209
14830.0 0.00018683
14850.0 0.00019144
14870.0 0.00019574
14890.0 0.00019989
14910.0 0.0002038
14930.0 0.00020713
14950.0 0.00020989
14970.0 0.00021221
14990.0 0.00021389
15010.0 0.00021494
15030.0 0.0002155
15050.0 0.00021563
15070.0 0.00021539
15090.0 0.00021494
15110.0 0.00021434
15130.0 0.00021364
15150.0 0.00021293
15170.0 0.00021217
15190.0 0.0002114
15210.0 0.00021064
15230.0 0.00020989
15250.0 0.00020912
15270.0 0.00020836
15290.0 0.00020763
15310.0 0.00020689
15330.0 0.00020614
15350.0 0.00020541
15370.0 0.00020469
15390.0 0.00020393
15410.0 0.0002032
15430.0 0.00020249
15450.0 0.00020177
15470.0 0.00020103
15490.0 0.00020033
15510.0 0.00019963
15530.0 0.00019891
15550.0 0.00019821
15570.0 0.00019752
15590.0 0.00019681
15610.0 0.0001961
15630.0 0.00019541
15650.0 0.00019473
15670.0 0.00019403
15690.0 0.00019335
15710.0 0.00019268
15730.0 0.00019199
15750.0 0.00019131
15770.0 0.00019064
15790.0 0.00018997
15810.0 0.00018928
15830.0 0.00018861
15850.0 0.00018796
15870.0 0.00018729
15890.0 0.00018663
15910.0 0.00018598
15930.0 0.00018533
15950.0 0.00018465
15970.0 0.000184
15990.0 0.00018336
16010.0 0.0001827
16030.0 0.00018204
16050.0 0.00018141
16070.0 0.00018077
16090.0 0.00018011
16110.0 0.00017948
16130.0 0.00017885
16150.0 0.00017819
16170.0 0.00017754
16190.0 0.00017692
16210.0 0.00017628
16230.0 0.00017563
16250.0 0.00017501
16270.0 0.00017439
16290.0 0.00017375
16310.0 0.00017311
16330.0 0.00017249
16350.0 0.00017186
16370.0 0.00017121
16390.0 0.00017059
16410.0 0.00016997
16430.0 0.00016933
16450.0 0.0001687
16470.0 0.0001681
16490.0 0.00016746
16510.0 0.00016682
16530.0 0.00016621
16550.0 0.00016559
16570.0 0.00016495
16590.0 0.00016431
16610.0 0.00016371
16630.0 0.00016308
16650.0 0.00016244
16670.0 0.00016183
16690.0 0.00016122
16710.0 0.00016057
16730.0 0.00015994
16750.0 0.00015933
16770.0 0.0001587
16790.0 0.00015806
16810.0 0.00015744
16830.0 0.00015682
16850.0 0.00015619
16870.0 0.00015556
16890.0 0.00015495
16910.0 0.00015431
16930.0 0.00015366
16950.0 0.00015304
16970.0 0.00015242
16990.0 0.00015178
17010.0 0.00015115
17030.0 0.00015053
17050.0 0.00014989
17070.0 0.00014925
17090.0 0.00014863
17110.0 0.000148
17130.0 0.00014734
17150.0 0.00014671
17170.0 0.00014609
17190.0 0.00014544
17210.0 0.0001448
17230.0 0.00014418
17250.0 0.00014354
17270.0 0.00014289
17290.0 0.00014225
17310.0 0.00014162
17330.0 0.00014097
17350.0 0.00014031
17370.0 0.00013969
17390.0 0.00013905
17410.0 0.00013839
17430.0 0.00013776
17450.0 0.00013713
17470.0 0.00013646
17490.0 0.00013581
17510.0 0.00013517
17530.0 0.00013452
17550.0 0.00013386
17570.0 0.00013322
17590.0 0.00013259
17610.0 0.00013192
17630.0 0.00013127
17650.0 0.00013063
17670.0 0.00012998
17690.0 0.0001293
17710.0 0.00012866
17730.0 0.00012802
17750.0 0.00012736
17770.0 0.0001267
17790.0 0.00012607
17810.0 0.0001254
17830.0 0.00012474
17850.0 0.00012409
17870.0 0.00012344
17890.0 0.00012277
17910.0 0.00012211
17930.0 0.00012147
17950.0 0.00012081
17970.0 0.00012014
17990.0 0.0001195
18010.0 0.00011885
18030.0 0.00011817
18050.0 0.00011751
18070.0 0.00011687
18090.0 0.00011621
18110.0 0.00011553
18130.0 0.00011489
18150.0 0.00011424
18170.0 0.00011357
18190.0 0.00011292
18210.0 0.00011228
18230.0 0.00011161
18250.0 0.00011093
18270.0 0.00011029
18290.0 0.00010964
18310.0 0.00010897
18330.0 0.00010832
18350.0 0.00010768
18370.0 0.00010701
18390.0 0.00010635
18410.0 0.00010571
18430.0 0.00010506
18450.0 0.00010438
18470.0 0.00010373
18490.0 0.0001031
18510.0 0.00010244
18530.0 0.00010178
18550.0 0.00010115
18570.0 0.0001005
18590.0 9.9829e-05
18610.0 9.9185e-05
18630.0 9.8547e-05
18650.0 9.7889e-05
18670.0 9.7231e-05
18690.0 9.6604e-05
18710.0 9.596e-05
18730.0 9.5305e-05
18750.0 9.4669e-05
18770.0 9.404e-05
18790.0 9.3377e-05
18810.0 9.2731e-05
18830.0 9.2104e-05
18850.0 9.1464e-05
18870.0 9.0814e-05
18890.0 9.0187e-05
18910.0 8.9563e-05
18930.0 8.8915e-05
18950.0 8.8279e-05
18970.0 8.7659e-05
18990.0 8.7025e-05
19010.0 8.637e-05
19030.0 8.5755e-05
19050.0 8.5135e-05
19070.0 8.4498e-05
19090.0 8.3871e-05
19110.0 8.3266e-05
19130.0 8.2633e-05
19150.0 8.1999e-05
19170.0 8.1386e-05
19190.0 8.0773e-05
19210.0 8.0139e-05
19230.0 7.9518e-05
19250.0 7.892e-05
19270.0 7.8301e-05
19290.0 7.768e-05
19310.0 7.708e-05
19330.0 7.6477e-05
19350.0 7.5846e-05
19370.0 7.524e-05
19390.0 7.4645e-05
19410.0 7.4034e-05
19430.0 7.342e-05
19450.0 7.2832e-05
19470.0 7.2237e-05
19490.0 7.1626e-05
19510.0 7.1031e-05
19530.0 7.0448e-05
19550.0 6.9841e-05
19570.0 6.9233e-05
19590.0 6.8655e-05
19610.0 6.8068e-05
19630.0 6.7468e-05
19650.0 6.6886e-05
19670.0 6.6315e-05
19690.0 6.5719e-05
19710.0 6.5129e-05
19730.0 6.4558e-05
19750.0 6.398e-05
19770.0 6.3382e-05
19790.0 6.281e-05
19810.0 6.2247e-05
19830.0 6.1663e-05
19850.0 6.108e-05
19870.0 6.051e-05
19890.0 5.9906e-05
19910.0 5.9255e-05
19930.0 5.8576e-05
19950.0 5.7827e-05
19970.0 5.6945e-05
19990.0 5.5934e-05
20010.0 5.4839e-05
20030.0 5.358e-05
20050.0 5.2189e-05
20070.0 5.0771e-05
20090.0 4.934e-05
20110.0 4.7837e-05
20130.0 4.6435e-05
20150.0 4.5156e-05
20170.0 4.3941e-05
20190.0 4.2819e-05
20210.0 4.1856e-05
20230.0 4.1001e-05
20250.0 4.0228e-05
20270.0 3.9585e-05
20290.0 3.9062e-05
20310.0 3.8625e-05
20330.0 3.8281e-05
20350.0 3.8052e-05
20370.0 3.7906e-05
20390.0 3.7846e-05
20410.0 3.7875e-05
20430.0 3.7982e-05
20450.0 3.8184e-05
20470.0 3.8475e-05
20490.0 3.8839e-05
20510.0 3.9288e-05
20530.0 3.9839e-05
20550.0 4.0457e-05
20570.0 4.1121e-05
20590.0 4.1875e-05
20610.0 4.2686e-05
20630.0 4.3508e-05
20650.0 4.4365e-05
20670.0 4.528e-05
20690.0 4.615e-05
20710.0 4.6989e-05
20730.0 4.7826e-05
20750.0 4.8627e-05
20770.0 4.9345e-05
20790.0 5.0032e-05
20810.0 5.0691e-05
20830.0 5.1287e-05
20850.0 5.1838e-05
20870.0 5.2389e-05
20890.0 5.2922e-05
20910.0 5.3421e-05
20930.0 5.3933e-05
20950.0 5.4464e-05
20970.0 5.4985e-05
20990.0 5.5502e-05
21010.0 5.6047e-05
21030.0 5.6574e-05
21050.0 5.7063e-05
21070.0 5.7529e-05
21090.0 5.7964e-05
21110.0 5.8318e-05
21130.0 5.8604e-05
21150.0 5.8827e-05
21170.0 5.8967e-05
21190.0 5.9024e-05
21210.0 5.9004e-05
21230.0 5.8902e-05
21250.0 5.8728e-05
21270.0 5.8488e-05
21290.0 5.8177e-05
21310.0 5.7812e-05
21330.0 5.7416e-05
21350.0 5.6967e-05
21370.0 5.6479e-05
21390.0 5.5981e-05
21410.0 5.5469e-05
21430.0 5.4916e-05
21450.0 5.4377e-05
21470.0 5.3857e-05
21490.0 5.3332e-05
21510.0 5.2818e-05
21530.0 5.2346e-05
21550.0 5.1899e-05
21570.0 5.1471e-05
21590.0 5.1094e-05
21610.0 5.0769e-05
21630.0 5.0485e-05
21650.0 5.0255e-05
21670.0 5.0097e-05
21690.0 4.9997e-05
21710.0 4.9964e-05
21730.0 5e-05
21750.0 5.01e-05
21770.0 5.028e-05
21790.0 5.0534e-05
21810.0 5.0847e-05
21830.0 5.1229e-05
21850.0 5.1693e-05
21870.0 5.2208e-05
21890.0 5.2759e-05
21910.0 5.3387e-05
21930.0 5.4063e-05
21950.0 5.4752e-05
21970.0 5.5485e-05
21990.0 5.6282e-05
22010.0 5.7059e-05
22030.0 5.7833e-05
22050.0 5.8635e-05
22070.0 5.9429e-05
22090.0 6.0169e-05
22110.0 6.0902e-05
22130.0 6.1617e-05
22150.0 6.2263e-05
22170.0 6.2846e-05
22190.0 6.339e-05
22210.0 6.3852e-05
22230.0 6.421e-05
22250.0 6.4488e-05
22270.0 6.4671e-05
22290.0 6.4744e-05
22310.0 6.4713e-05
22330.0 6.4564e-05
22350.0 6.4298e-05
22370.0 6.3928e-05
22390.0 6.3435e-05
22410.0 6.2808e-05
22430.0 6.2103e-05
22450.0 6.1304e-05
22470.0 6.038e-05
22490.0 5.9377e-05
22510.0 5.8335e-05
22530.0 5.7182e-05
22550.0 5.5947e-05
22570.0 5.4718e-05
22590.0 5.3456e-05
22610.0 5.2125e-05
22630.0 5.0798e-05
22650.0 4.9522e-05
22670.0 4.8205e-05
22690.0 4.6889e-05
22710.0 4.5642e-05
22730.0 4.4428e-05
22750.0 4.3187e-05
22770.0 4.2041e-05
22790.0 4.0979e-05
22810.0 3.9944e-05
22830.0 3.8967e-05
22850.0 3.8101e-05
22870.0 3.7299e-05
22890.0 3.6551e-05
