#lamb flux
1010.0 3.893e-05
1030.0 5.0738e-05
1050.0 6.5641e-05
1070.0 8.413e-05
1090.0 0.00010719
1110.0 0.00013387
1130.0 0.00016398
1150.0 0.00019753
1170.0 0.00023514
1190.0 0.00027459
1210.0 0.00031745
1230.0 0.00036339
1250.0 0.00041015
1270.0 0.00045633
1290.0 0.00050338
1310.0 0.00054838
1330.0 0.00058868
1350.0 0.0006248
1370.0 0.00065646
1390.0 0.00068091
1410.0 0.00069758
1430.0 0.00070867
1450.0 0.00071282
1470.0 0.00070949
1490.0 0.00070073
1510.0 0.00068937
1530.0 0.00067295
1550.0 0.00065248
1570.0 0.00062624
1590.0 0.00059876
1610.0 0.00057016
1630.0 0.00054267
1650.0 0.00051667
1670.0 0.00049171
1690.0 0.00046857
1710.0 0.0004481
1730.0 0.00042996
1750.0 0.00041352
1770.0 0.0003998
1790.0 0.00038859
1810.0 0.00037932
1830.0 0.00037208
1850.0 0.00036797
1870.0 0.000366
1890.0 0.00036547
1910.0 0.0003667
1930.0 0.00036965
1950.0 0.00037289
1970.0 0.00037742
1990.0 0.00038405
2010.0 0.00039232
2030.0 0.000402
2050.0 0.00041352
2070.0 0.00042553
2090.0 0.00043797
2110.0 0.00045141
2130.0 0.00046607
2150.0 0.00048149
2170.0 0.00049743
2190.0 0.00051445
2210.0 0.00053265
2230.0 0.00055168
2250.0 0.00057129
2270.0 0.00059184
2290.0 0.00061257
2310.0 0.00063328
2330.0 0.00065453
2350.0 0.00067602
2370.0 0.00069714
2390.0 0.00071826
2410.0 0.00073965
2430.0 0.00076049
2450.0 0.00078088
2470.0 0.0008016
2490.0 0.00082311
2510.0 0.00084536
2530.0 0.00087075
2550.0 0.00090238
2570.0 0.0009425
2590.0 0.00099423
2610.0 0.0010677
2630.0 0.0011663
2650.0 0.001289
2670.0 0.0014433
2690.0 0.0016341
2710.0 0.0018466
2730.0 0.002072
2750.0 0.0023174
2770.0 0.002559
2790.0 0.0027771
2810.0 0.0029736
2830.0 0.0031477
2850.0 0.0032772
2870.0 0.0033763
2890.0 0.0034559
2910.0 0.0035167
2930.0 0.0035606
2950.0 0.0035996
2970.0 0.003635
2990.0 0.0036636
3010.0 0.0036889
3030.0 0.0037157
3050.0 0.0037414
3070.0 0.0037615
3090.0 0.0037836
3110.0 0.0038086
3130.0 0.0038368
3150.0 0.003827
3170.0 0.0038579
3190.0 0.0039238
3210.0 0.0040449
3230.0 0.0042626
3250.0 0.0046662
3270.0 0.0051978
3290.0 0.0057984
3310.0 0.0065402
3330.0 0.0067574
3350.0 0.0068389
3370.0 0.0069198
3390.0 0.0069984
3410.0 0.0070552
3430.0 0.0070951
3450.0 0.0071303
3470.0 0.0071733
3490.0 0.0071808
3510.0 0.0070403
3530.0 0.0065771
3550.0 0.0062308
3570.0 0.0067255
3590.0 0.0076742
3610.0 0.0085206
3630.0 0.0095339
3650.0 0.0093612
3670.0 0.0082728
3690.0 0.0073111
3710.0 0.0070154
3730.0 0.0072526
3750.0 0.0074397
3770.0 0.0077227
3790.0 0.00804
3810.0 0.008274
3830.0 0.0077348
3850.0 0.00706
3870.0 0.0067537
3890.0 0.0070289
3910.0 0.0071818
3930.0 0.0072328
3950.0 0.0076536
3970.0 0.0081389
3990.0 0.0082843
4010.0 0.0083205
4030.0 0.0080391
4050.0 0.0078617
4070.0 0.0077396
4090.0 0.0077623
4110.0 0.0077809
4130.0 0.00755
4150.0 0.0072348
4170.0 0.0071085
4190.0 0.0069121
4210.0 0.0063853
4230.0 0.0058464
4250.0 0.0052604
4270.0 0.0047708
4290.0 0.0045598
4310.0 0.0044622
4330.0 0.0045513
4350.0 0.0048829
4370.0 0.0050298
4390.0 0.0054458
4410.0 0.0057568
4430.0 0.0057863
4450.0 0.005282
4470.0 0.0047694
4490.0 0.0045705
4510.0 0.0044149
4530.0 0.0043419
4550.0 0.0042644
4570.0 0.0042642
4590.0 0.0043502
4610.0 0.0043834
4630.0 0.0044021
4650.0 0.004361
4670.0 0.0042544
4690.0 0.003933
4710.0 0.0036397
4730.0 0.0033921
4750.0 0.0032376
4770.0 0.0030794
4790.0 0.0030472
4810.0 0.00294
4830.0 0.0026471
4850.0 0.0028616
4870.0 0.0025437
4890.0 0.0026644
4910.0 0.0027152
4930.0 0.0025523
4950.0 0.0021265
4970.0 0.0019817
4990.0 0.0018523
5010.0 0.0016718
5030.0 0.0016359
5050.0 0.001823
5070.0 0.001842
5090.0 0.0019183
5110.0 0.0019283
5130.0 0.0018948
5150.0 0.0019284
5170.0 0.0018139
5190.0 0.001772
5210.0 0.0018507
5230.0 0.0017505
5250.0 0.0018204
5270.0 0.0019584
5290.0 0.0019289
5310.0 0.0018083
5330.0 0.0017709
5350.0 0.0016529
5370.0 0.0016381
5390.0 0.0016474
5410.0 0.0016013
5430.0 0.0016659
5450.0 0.0015982
5470.0 0.0016209
5490.0 0.0018648
5510.0 0.0019132
5530.0 0.0019453
5550.0 0.0019517
5570.0 0.0020205
5590.0 0.0020677
5610.0 0.0020736
5630.0 0.0020745
5650.0 0.00208
5670.0 0.0020577
5690.0 0.0020517
5710.0 0.0020178
5730.0 0.002095
5750.0 0.0020469
5770.0 0.0019618
5790.0 0.001921
5810.0 0.0017896
5830.0 0.001901
5850.0 0.002016
5870.0 0.0020454
5890.0 0.002093
5910.0 0.0022139
5930.0 0.0022335
5950.0 0.002273
5970.0 0.0023009
5990.0 0.0023518
6010.0 0.0023189
6030.0 0.00231
6050.0 0.0023185
6070.0 0.0023069
6090.0 0.0023574
6110.0 0.002353
6130.0 0.002301
6150.0 0.0022687
6170.0 0.0022411
6190.0 0.0021053
6210.0 0.0020879
6230.0 0.0021268
6250.0 0.0021208
6270.0 0.0021154
6290.0 0.0021712
6310.0 0.0022381
6330.0 0.0022353
6350.0 0.002191
6370.0 0.0021988
6390.0 0.002139
6410.0 0.0021284
6430.0 0.0020759
6450.0 0.002069
6470.0 0.0020627
6490.0 0.0020611
6510.0 0.0020004
6530.0 0.0019777
6550.0 0.0019469
6570.0 0.0019032
6590.0 0.0019351
6610.0 0.0019329
6630.0 0.0018823
6650.0 0.0018119
6670.0 0.0017803
6690.0 0.0017442
6710.0 0.0016902
6730.0 0.0016619
6750.0 0.0016684
6770.0 0.0017221
6790.0 0.0017717
6810.0 0.0017192
6830.0 0.0015819
6850.0 0.001484
6870.0 0.001449
6890.0 0.0014306
6910.0 0.0014159
6930.0 0.0013919
6950.0 0.0013893
6970.0 0.001335
6990.0 0.001305
7010.0 0.0013016
7030.0 0.0013051
7050.0 0.0012681
7070.0 0.0011889
7090.0 0.0011336
7110.0 0.0011256
7130.0 0.0011252
7150.0 0.0011174
7170.0 0.0011006
7190.0 0.0010674
7210.0 0.0010988
7230.0 0.0011259
7250.0 0.0011137
7270.0 0.0011069
7290.0 0.0011185
7310.0 0.0010837
7330.0 0.0010461
7350.0 0.00099675
7370.0 0.00099272
7390.0 0.0010071
7410.0 0.00093656
7430.0 0.00093687
7450.0 0.00092029
7470.0 0.00094751
7490.0 0.000933
7510.0 0.00087929
7530.0 0.00089195
7550.0 0.00080613
7570.0 0.00077059
7590.0 0.00076911
7610.0 0.00079583
7630.0 0.00079145
7650.0 0.00081905
7670.0 0.0007452
7690.0 0.00071274
7710.0 0.00074643
7730.0 0.00078993
7750.0 0.00076523
7770.0 0.00079861
7790.0 0.00079602
7810.0 0.00078581
7830.0 0.00083597
7850.0 0.00078816
7870.0 0.00083622
7890.0 0.00080142
7910.0 0.00078701
7930.0 0.00074591
7950.0 0.00073144
7970.0 0.0007506
7990.0 0.00072834
8010.0 0.0012596
8030.0 0.0012296
8050.0 0.0012099
8070.0 0.001173
8090.0 0.0010601
8110.0 0.0010435
8130.0 0.0011609
8150.0 0.0012298
8170.0 0.0012658
8190.0 0.0013207
8210.0 0.001271
8230.0 0.001274
8250.0 0.0012676
8270.0 0.0012647
8290.0 0.0012472
8310.0 0.0011857
8330.0 0.0011571
8350.0 0.0011931
8370.0 0.0012088
8390.0 0.0011796
8410.0 0.0011659
8430.0 0.0011261
8450.0 0.0011018
8470.0 0.0011807
8490.0 0.0011874
8510.0 0.0011145
8530.0 0.0011036
8550.0 0.00109
8570.0 0.0010187
8590.0 0.0010278
8610.0 0.0010364
8630.0 0.0010719
8650.0 0.0010749
8670.0 0.0010785
8690.0 0.0010568
8710.0 0.0010271
8730.0 0.00099341
8750.0 0.00097392
8770.0 0.00097059
8790.0 0.0010058
8810.0 0.00095113
8830.0 0.00094002
8850.0 0.00098574
8870.0 0.00093419
8890.0 0.00086727
8910.0 0.00085334
8930.0 0.00085627
8950.0 0.00079725
8970.0 0.00076433
8990.0 0.00074709
9010.0 0.00070421
9030.0 0.00069372
9050.0 0.00069029
9070.0 0.00068721
9090.0 0.0006841
9110.0 0.00068093
9130.0 0.00067774
9150.0 0.00067457
9170.0 0.00067136
9190.0 0.00066812
9210.0 0.00066485
9230.0 0.00066156
9250.0 0.00065825
9270.0 0.00065492
9290.0 0.00065156
9310.0 0.00064853
9330.0 0.00064598
9350.0 0.00064343
9370.0 0.00064084
9390.0 0.00063823
9410.0 0.0006356
9430.0 0.00063296
9450.0 0.00063029
9470.0 0.00062794
9490.0 0.0006254
9510.0 0.00062252
9530.0 0.00061965
9550.0 0.00061686
9570.0 0.00061409
9590.0 0.00061131
9610.0 0.00060902
9630.0 0.0006068
9650.0 0.00060455
9670.0 0.00060224
9690.0 0.00059997
9710.0 0.00059769
9730.0 0.00059537
9750.0 0.00059304
9770.0 0.00059076
9790.0 0.00058843
9810.0 0.00058607
9830.0 0.00058374
9850.0 0.0005811
9870.0 0.00057819
9890.0 0.00057619
9910.0 0.00057407
9930.0 0.00057152
9950.0 0.00056919
9970.0 0.00056701
9990.0 0.00056476
10010.0 0.00056248
10030.0 0.00056016
10050.0 0.00055783
10070.0 0.00055549
10090.0 0.00055316
10110.0 0.00055082
10130.0 0.00054849
10150.0 0.00054617
10170.0 0.00054386
10190.0 0.00054155
10210.0 0.00053926
10230.0 0.00053698
10250.0 0.0005347
10270.0 0.00053243
10290.0 0.00053018
10310.0 0.00052793
10330.0 0.00052569
10350.0 0.00052347
10370.0 0.00052126
10390.0 0.00051903
10410.0 0.00051645
10430.0 0.00051377
10450.0 0.00051205
10470.0 0.00051009
10490.0 0.00050812
10510.0 0.00050611
10530.0 0.00050401
10550.0 0.00050194
10570.0 0.00049992
10590.0 0.00049786
10610.0 0.00049581
10630.0 0.00049381
10650.0 0.00049183
10670.0 0.00048981
10690.0 0.00048783
10710.0 0.00048591
10730.0 0.00048396
10750.0 0.00048199
10770.0 0.00048012
10790.0 0.00047825
10810.0 0.00047636
10830.0 0.0004745
10850.0 0.0004727
10870.0 0.00047084
10890.0 0.00046898
10910.0 0.00046716
10930.0 0.0004653
10950.0 0.00046333
10970.0 0.0004613
10990.0 0.00045923
11010.0 0.00044844
11030.0 0.00044606
11050.0 0.00044352
11070.0 0.00044075
11090.0 0.00043767
11110.0 0.00043457
11130.0 0.0004314
11150.0 0.00042806
11170.0 0.00042462
11190.0 0.00042126
11210.0 0.00041778
11230.0 0.0004142
11250.0 0.0004107
11270.0 0.00040727
11290.0 0.00040376
11310.0 0.00040033
11330.0 0.00039713
11350.0 0.00039398
11370.0 0.0003909
11390.0 0.00038802
11410.0 0.00038528
11430.0 0.00038255
11450.0 0.00037996
11470.0 0.00037752
11490.0 0.00037509
11510.0 0.00037266
11530.0 0.00037032
11550.0 0.000368
11570.0 0.0003656
11590.0 0.00036319
11610.0 0.0003608
11630.0 0.00035829
11650.0 0.00035568
11670.0 0.00035311
11690.0 0.00035049
11710.0 0.00034774
11730.0 0.00034497
11750.0 0.00034225
11770.0 0.00033942
11790.0 0.00033654
11810.0 0.00033373
11830.0 0.00033093
11850.0 0.00032804
11870.0 0.00032525
11890.0 0.00032259
11910.0 0.00031993
11930.0 0.00031733
11950.0 0.0003149
11970.0 0.00031257
11990.0 0.00031027
12010.0 0.00030816
12030.0 0.0003062
12050.0 0.00030434
12070.0 0.00030259
12090.0 0.00030104
12110.0 0.0002996
12130.0 0.00029825
12150.0 0.00029703
12170.0 0.00029592
12190.0 0.00029485
12210.0 0.00029384
12230.0 0.00029289
12250.0 0.00029194
12270.0 0.00029096
12290.0 0.00028996
12310.0 0.00028891
12330.0 0.00028776
12350.0 0.0002865
12370.0 0.00028517
12390.0 0.0002837
12410.0 0.00028203
12430.0 0.0002803
12450.0 0.00027845
12470.0 0.00027642
12490.0 0.00027427
12510.0 0.00027208
12530.0 0.00026974
12550.0 0.00026726
12570.0 0.00026476
12590.0 0.00026223
12610.0 0.00025954
12630.0 0.00025682
12650.0 0.00025421
12670.0 0.00025152
12690.0 0.0002488
12710.0 0.00024617
12730.0 0.00024362
12750.0 0.00024098
12770.0 0.00023847
12790.0 0.0002361
12810.0 0.00023376
12830.0 0.00023148
12850.0 0.00022939
12870.0 0.00022742
12890.0 0.0002255
12910.0 0.00022374
12930.0 0.00022216
12950.0 0.00022066
12970.0 0.00021929
12990.0 0.00021813
13010.0 0.00021712
13030.0 0.00021624
13050.0 0.00021552
13070.0 0.00021496
13090.0 0.00021451
13110.0 0.00021417
13130.0 0.00021392
13150.0 0.00021374
13170.0 0.00021359
13190.0 0.00021346
13210.0 0.00021332
13230.0 0.00021314
13250.0 0.0002129
13270.0 0.00021259
13290.0 0.00021219
13310.0 0.00021168
13330.0 0.00021107
13350.0 0.00021037
13370.0 0.00020953
13390.0 0.00020856
13410.0 0.00020754
13430.0 0.0002064
13450.0 0.00020513
13470.0 0.00020378
13490.0 0.00020239
13510.0 0.00020082
13530.0 0.00019919
13550.0 0.00019756
13570.0 0.00019585
13590.0 0.00019404
13610.0 0.00019224
13630.0 0.00019046
13650.0 0.00018857
13670.0 0.00018668
13690.0 0.00018484
13710.0 0.00018295
13730.0 0.00018097
13750.0 0.00017911
13770.0 0.00017728
13790.0 0.00017539
13810.0 0.00017354
13830.0 0.00017179
13850.0 0.00017002
13870.0 0.00016825
13890.0 0.00016658
13910.0 0.00016497
13930.0 0.00016334
13950.0 0.00016178
13970.0 0.00016035
13990.0 0.00015893
14010.0 0.00015754
14030.0 0.00015626
14050.0 0.00015506
14070.0 0.00015384
14090.0 0.00015272
14110.0 0.00015169
14130.0 0.0001507
14150.0 0.00014973
14170.0 0.00014888
14190.0 0.00014807
14210.0 0.00014727
14230.0 0.00014652
14250.0 0.00014584
14270.0 0.00014515
14290.0 0.00014447
14310.0 0.00014386
14330.0 0.00014326
14350.0 0.00014266
14370.0 0.00014208
14390.0 0.00014155
14410.0 0.00014101
14430.0 0.00014048
14450.0 0.00013999
14470.0 0.00013951
14490.0 0.00013901
14510.0 0.00013854
14530.0 0.0001381
14550.0 0.00013764
14570.0 0.00013718
14590.0 0.00013675
14610.0 0.0001363
14630.0 0.00013582
14650.0 0.00013536
14670.0 0.0001349
14690.0 0.00013441
14710.0 0.0001339
14730.0 0.00013342
14750.0 0.00013292
14770.0 0.00013239
14790.0 0.00013186
14810.0 0.00013133
14830.0 0.00013074
14850.0 0.00013015
14870.0 0.00012957
14890.0 0.00012897
14910.0 0.00012835
14930.0 0.00012776
14950.0 0.00012722
14970.0 0.00012668
14990.0 0.0001262
15010.0 0.0001258
15030.0 0.00012545
15050.0 0.00012513
15070.0 0.00012489
15090.0 0.00012468
15110.0 0.00012448
15130.0 0.0001243
15150.0 0.00012413
15170.0 0.00012396
15190.0 0.00012378
15210.0 0.00012361
15230.0 0.00012344
15250.0 0.00012326
15270.0 0.00012308
15290.0 0.00012291
15310.0 0.00012273
15330.0 0.00012254
15350.0 0.00012236
15370.0 0.00012218
15390.0 0.00012198
15410.0 0.00012178
15430.0 0.00012159
15450.0 0.0001214
15470.0 0.00012119
15490.0 0.00012099
15510.0 0.00012079
15530.0 0.00012058
15550.0 0.00012037
15570.0 0.00012017
15590.0 0.00011995
15610.0 0.00011973
15630.0 0.00011951
15650.0 0.0001193
15670.0 0.00011906
15690.0 0.00011884
15710.0 0.00011862
15730.0 0.00011838
15750.0 0.00011814
15770.0 0.00011791
15790.0 0.00011768
15810.0 0.00011742
15830.0 0.00011718
15850.0 0.00011694
15870.0 0.00011669
15890.0 0.00011643
15910.0 0.00011618
15930.0 0.00011593
15950.0 0.00011566
15970.0 0.0001154
15990.0 0.00011514
16010.0 0.00011486
16030.0 0.00011458
16050.0 0.00011432
16070.0 0.00011405
16090.0 0.00011376
16110.0 0.00011349
16130.0 0.00011321
16150.0 0.00011292
16170.0 0.00011263
16190.0 0.00011234
16210.0 0.00011205
16230.0 0.00011175
16250.0 0.00011146
16270.0 0.00011116
16290.0 0.00011086
16310.0 0.00011055
16330.0 0.00011025
16350.0 0.00010995
16370.0 0.00010962
16390.0 0.00010932
16410.0 0.00010901
16430.0 0.00010869
16450.0 0.00010837
16470.0 0.00010806
16490.0 0.00010773
16510.0 0.0001074
16530.0 0.00010708
16550.0 0.00010676
16570.0 0.00010642
16590.0 0.00010609
16610.0 0.00010576
16630.0 0.00010543
16650.0 0.00010509
16670.0 0.00010476
16690.0 0.00010443
16710.0 0.00010407
16730.0 0.00010373
16750.0 0.0001034
16770.0 0.00010305
16790.0 0.0001027
16810.0 0.00010236
16830.0 0.00010201
16850.0 0.00010166
16870.0 0.00010131
16890.0 0.00010097
16910.0 0.00010061
16930.0 0.00010024
16950.0 9.9896e-05
16970.0 9.9544e-05
16990.0 9.9181e-05
17010.0 9.8824e-05
17030.0 9.8476e-05
17050.0 9.8111e-05
17070.0 9.7747e-05
17090.0 9.7392e-05
17110.0 9.7033e-05
17130.0 9.6659e-05
17150.0 9.6298e-05
17170.0 9.5942e-05
17190.0 9.5575e-05
17210.0 9.5207e-05
17230.0 9.485e-05
17250.0 9.4485e-05
17270.0 9.411e-05
17290.0 9.3745e-05
17310.0 9.3384e-05
17330.0 9.3012e-05
17350.0 9.2637e-05
17370.0 9.2279e-05
17390.0 9.1912e-05
17410.0 9.1538e-05
17430.0 9.1172e-05
17450.0 9.0812e-05
17470.0 9.0432e-05
17490.0 9.0059e-05
17510.0 8.9696e-05
17530.0 8.9327e-05
17550.0 8.895e-05
17570.0 8.8585e-05
17590.0 8.8223e-05
17610.0 8.7847e-05
17630.0 8.7476e-05
17650.0 8.7114e-05
17670.0 8.6744e-05
17690.0 8.6361e-05
17710.0 8.5998e-05
17730.0 8.5635e-05
17750.0 8.5261e-05
17770.0 8.4891e-05
17790.0 8.4533e-05
17810.0 8.4161e-05
17830.0 8.3786e-05
17850.0 8.3423e-05
17870.0 8.3059e-05
17890.0 8.2684e-05
17910.0 8.2314e-05
17930.0 8.1957e-05
17950.0 8.159e-05
17970.0 8.1219e-05
17990.0 8.086e-05
18010.0 8.05e-05
18030.0 8.0124e-05
18050.0 7.976e-05
18070.0 7.9403e-05
18090.0 7.9037e-05
18110.0 7.8668e-05
18130.0 7.8313e-05
18150.0 7.7955e-05
18170.0 7.7588e-05
18190.0 7.7228e-05
18210.0 7.6876e-05
18230.0 7.651e-05
18250.0 7.6143e-05
18270.0 7.5792e-05
18290.0 7.5437e-05
18310.0 7.5073e-05
18330.0 7.4719e-05
18350.0 7.4371e-05
18370.0 7.401e-05
18390.0 7.3651e-05
18410.0 7.3303e-05
18430.0 7.2951e-05
18450.0 7.2587e-05
18470.0 7.2238e-05
18490.0 7.1893e-05
18510.0 7.1539e-05
18530.0 7.1186e-05
18550.0 7.0845e-05
18570.0 7.0496e-05
18590.0 7.0139e-05
18610.0 6.9794e-05
18630.0 6.9452e-05
18650.0 6.9101e-05
18670.0 6.875e-05
18690.0 6.8415e-05
18710.0 6.8072e-05
18730.0 6.7723e-05
18750.0 6.7385e-05
18770.0 6.705e-05
18790.0 6.6698e-05
18810.0 6.6355e-05
18830.0 6.6023e-05
18850.0 6.5683e-05
18870.0 6.5339e-05
18890.0 6.5007e-05
18910.0 6.4676e-05
18930.0 6.4334e-05
18950.0 6.3997e-05
18970.0 6.367e-05
18990.0 6.3335e-05
19010.0 6.299e-05
19030.0 6.2664e-05
19050.0 6.2337e-05
19070.0 6.2002e-05
19090.0 6.1671e-05
19110.0 6.1352e-05
19130.0 6.1018e-05
19150.0 6.0684e-05
19170.0 6.0362e-05
19190.0 6.0038e-05
19210.0 5.9705e-05
19230.0 5.9378e-05
19250.0 5.9062e-05
19270.0 5.8737e-05
19290.0 5.841e-05
19310.0 5.8094e-05
19330.0 5.7776e-05
19350.0 5.7444e-05
19370.0 5.7124e-05
19390.0 5.6811e-05
19410.0 5.6489e-05
19430.0 5.6165e-05
19450.0 5.5855e-05
19470.0 5.5541e-05
19490.0 5.5218e-05
19510.0 5.4904e-05
19530.0 5.4596e-05
19550.0 5.4275e-05
19570.0 5.3954e-05
19590.0 5.3648e-05
19610.0 5.3337e-05
19630.0 5.3019e-05
19650.0 5.271e-05
19670.0 5.2407e-05
19690.0 5.2091e-05
19710.0 5.1778e-05
19730.0 5.1474e-05
19750.0 5.1166e-05
19770.0 5.0848e-05
19790.0 5.0543e-05
19810.0 5.0243e-05
19830.0 4.9933e-05
19850.0 4.9625e-05
19870.0 4.933e-05
19890.0 4.9029e-05
19910.0 4.8726e-05
19930.0 4.8444e-05
19950.0 4.8176e-05
19970.0 4.7919e-05
19990.0 4.7687e-05
20010.0 4.7491e-05
20030.0 4.7318e-05
20050.0 4.717e-05
20070.0 4.705e-05
20090.0 4.695e-05
20110.0 4.6861e-05
20130.0 4.6786e-05
20150.0 4.6718e-05
20170.0 4.6654e-05
20190.0 4.6591e-05
20210.0 4.653e-05
20230.0 4.6469e-05
20250.0 4.6406e-05
20270.0 4.6342e-05
20290.0 4.6277e-05
20310.0 4.6207e-05
20330.0 4.6133e-05
20350.0 4.6058e-05
20370.0 4.598e-05
20390.0 4.5895e-05
20410.0 4.5809e-05
20430.0 4.5721e-05
20450.0 4.5627e-05
20470.0 4.553e-05
20490.0 4.5435e-05
20510.0 4.5338e-05
20530.0 4.5239e-05
20550.0 4.5142e-05
20570.0 4.5049e-05
20590.0 4.4955e-05
20610.0 4.4862e-05
20630.0 4.4774e-05
20650.0 4.4687e-05
20670.0 4.4597e-05
20690.0 4.4511e-05
20710.0 4.4426e-05
20730.0 4.4337e-05
20750.0 4.4245e-05
20770.0 4.4152e-05
20790.0 4.4052e-05
20810.0 4.3944e-05
20830.0 4.3831e-05
20850.0 4.3712e-05
20870.0 4.3579e-05
20890.0 4.3437e-05
20910.0 4.3293e-05
20930.0 4.3137e-05
20950.0 4.2971e-05
20970.0 4.2802e-05
20990.0 4.263e-05
21010.0 4.2445e-05
21030.0 4.2259e-05
21050.0 4.2076e-05
21070.0 4.1888e-05
21090.0 4.1693e-05
21110.0 4.1507e-05
21130.0 4.1323e-05
21150.0 4.1134e-05
21170.0 4.0947e-05
21190.0 4.0766e-05
21210.0 4.0579e-05
21230.0 4.0388e-05
21250.0 4.0202e-05
21270.0 4.0015e-05
21290.0 3.9819e-05
21310.0 3.9621e-05
21330.0 3.9426e-05
21350.0 3.922e-05
21370.0 3.9006e-05
21390.0 3.8796e-05
21410.0 3.8582e-05
21430.0 3.8351e-05
21450.0 3.812e-05
21470.0 3.7889e-05
21490.0 3.7648e-05
21510.0 3.7398e-05
21530.0 3.7153e-05
21550.0 3.6902e-05
21570.0 3.6638e-05
21590.0 3.6377e-05
21610.0 3.6118e-05
21630.0 3.585e-05
21650.0 3.5573e-05
21670.0 3.5311e-05
21690.0 3.5043e-05
21710.0 3.4768e-05
21730.0 3.4496e-05
21750.0 3.423e-05
21770.0 3.3951e-05
21790.0 3.3672e-05
21810.0 3.34e-05
21830.0 3.3125e-05
21850.0 3.284e-05
21870.0 3.2561e-05
21890.0 3.2287e-05
21910.0 3.2003e-05
21930.0 3.1718e-05
21950.0 3.1442e-05
21970.0 3.1162e-05
21990.0 3.0874e-05
22010.0 3.0597e-05
22030.0 3.0327e-05
22050.0 3.0053e-05
22070.0 2.9768e-05
22090.0 2.947e-05
22110.0 2.9172e-05
22130.0 2.8876e-05
22150.0 2.8592e-05
22170.0 2.8317e-05
22190.0 2.8041e-05
22210.0 2.7772e-05
22230.0 2.7517e-05
22250.0 2.7264e-05
22270.0 2.7013e-05
22290.0 2.6771e-05
22310.0 2.6533e-05
22330.0 2.6292e-05
22350.0 2.6056e-05
22370.0 2.5823e-05
22390.0 2.5588e-05
22410.0 2.535e-05
22430.0 2.5115e-05
22450.0 2.4879e-05
22470.0 2.4638e-05
22490.0 2.4395e-05
22510.0 2.4153e-05
22530.0 2.3904e-05
22550.0 2.3651e-05
22570.0 2.34e-05
22590.0 2.3145e-05
22610.0 2.2886e-05
22630.0 2.2626e-05
22650.0 2.2368e-05
22670.0 2.2106e-05
22690.0 2.1842e-05
22710.0 2.158e-05
22730.0 2.1318e-05
22750.0 2.1053e-05
22770.0 2.079e-05
22790.0 2.0529e-05
22810.0 2.0267e-05
22830.0 2.0006e-05
22850.0 1.9746e-05
22870.0 1.9485e-05
22890.0 1.9223e-05
22910.0 1.8962e-05
22930.0 1.8699e-05
