#lamb flux
1010.0 7.4439e-08
1030.0 8.1814e-08
1050.0 9.0299e-08
1070.0 9.9853e-08
1090.0 1.1071e-07
1110.0 1.2184e-07
1130.0 1.3305e-07
1150.0 1.448e-07
1170.0 1.5692e-07
1190.0 1.6841e-07
1210.0 1.8007e-07
1230.0 1.9212e-07
1250.0 2.0394e-07
1270.0 2.1542e-07
1290.0 2.2755e-07
1310.0 2.3969e-07
1330.0 2.5133e-07
1350.0 2.6312e-07
1370.0 2.7529e-07
1390.0 2.8717e-07
1410.0 2.987e-07
1430.0 3.1077e-07
1450.0 3.2284e-07
1470.0 3.3451e-07
1490.0 3.4632e-07
1510.0 3.588e-07
1530.0 3.7063e-07
1550.0 3.823e-07
1570.0 3.9438e-07
1590.0 4.0647e-07
1610.0 4.1803e-07
1630.0 4.2994e-07
1650.0 4.4215e-07
1670.0 4.5396e-07
1690.0 4.6561e-07
1710.0 4.7768e-07
1730.0 4.898e-07
1750.0 5.0118e-07
1770.0 5.1286e-07
1790.0 5.2474e-07
1810.0 5.3619e-07
1830.0 5.4739e-07
1850.0 5.5923e-07
1870.0 5.707e-07
1890.0 5.817e-07
1910.0 5.9284e-07
1930.0 6.0418e-07
1950.0 6.1487e-07
1970.0 6.2532e-07
1990.0 6.3607e-07
2010.0 6.465e-07
2030.0 6.5637e-07
2050.0 6.6643e-07
2070.0 6.7661e-07
2090.0 6.8594e-07
2110.0 6.9505e-07
2130.0 7.0428e-07
2150.0 7.1308e-07
2170.0 7.2116e-07
2190.0 7.2941e-07
2210.0 7.3747e-07
2230.0 7.4481e-07
2250.0 7.5182e-07
2270.0 7.5902e-07
2290.0 7.6555e-07
2310.0 7.7134e-07
2330.0 7.7713e-07
2350.0 7.8269e-07
2370.0 7.875e-07
2390.0 7.9217e-07
2410.0 7.972e-07
2430.0 8.0192e-07
2450.0 8.0665e-07
2470.0 8.1242e-07
2490.0 8.1989e-07
2510.0 8.2918e-07
2530.0 8.4379e-07
2550.0 8.6903e-07
2570.0 9.097e-07
2590.0 9.7153e-07
2610.0 1.0705e-06
2630.0 1.2087e-06
2650.0 1.3766e-06
2670.0 1.5746e-06
2690.0 1.7933e-06
2710.0 2.0005e-06
2730.0 2.182e-06
2750.0 2.3412e-06
2770.0 2.4629e-06
2790.0 2.5476e-06
2810.0 2.6089e-06
2830.0 2.6564e-06
2850.0 2.689e-06
2870.0 2.7163e-06
2890.0 2.7439e-06
2910.0 2.7709e-06
2930.0 2.7955e-06
2950.0 2.8227e-06
2970.0 2.8517e-06
2990.0 2.879e-06
3010.0 3.1106e-05
3030.0 3.1274e-05
3050.0 3.1433e-05
3070.0 3.1539e-05
3090.0 3.1614e-05
3110.0 3.16e-05
3130.0 3.143e-05
3150.0 3.1064e-05
3170.0 3.0427e-05
3190.0 2.9524e-05
3210.0 2.8426e-05
3230.0 2.7266e-05
3250.0 2.7309e-05
3270.0 2.6423e-05
3290.0 2.7722e-05
3310.0 2.6646e-05
3330.0 2.728e-05
3350.0 2.8353e-05
3370.0 2.9735e-05
3390.0 3.137e-05
3410.0 3.3078e-05
3430.0 3.4934e-05
3450.0 3.6974e-05
3470.0 3.9086e-05
3490.0 4.1169e-05
3510.0 4.3794e-05
3530.0 4.6901e-05
3550.0 4.8941e-05
3570.0 5.0452e-05
3590.0 5.4019e-05
3610.0 5.4893e-05
3630.0 5.9173e-05
3650.0 6.2421e-05
3670.0 6.6105e-05
3690.0 6.7246e-05
3710.0 6.6135e-05
3730.0 6.7753e-05
3750.0 6.7912e-05
3770.0 6.4554e-05
3790.0 6.086e-05
3810.0 5.8199e-05
3830.0 5.7532e-05
3850.0 5.685e-05
3870.0 6.1422e-05
3890.0 7.1333e-05
3910.0 8.5342e-05
3930.0 9.8666e-05
3950.0 0.00010582
3970.0 0.00010292
3990.0 9.3594e-05
4010.0 9.7848e-05
4030.0 0.00010998
4050.0 0.00011357
4070.0 0.00010277
4090.0 8.5014e-05
4110.0 8.9822e-05
4130.0 0.00010297
4150.0 0.0001045
4170.0 0.00010093
4190.0 9.7464e-05
4210.0 0.00010682
4230.0 0.00011141
4250.0 0.00011847
4270.0 0.00012097
4290.0 0.00011772
4310.0 0.00012566
4330.0 0.00013819
4350.0 0.00015548
4370.0 0.00016964
4390.0 0.00016404
4410.0 0.0001396
4430.0 0.00011465
4450.0 9.5136e-05
4470.0 9.4657e-05
4490.0 0.00010271
4510.0 0.00012449
4530.0 0.00013475
4550.0 0.00014771
4570.0 0.00017576
4590.0 0.0002148
4610.0 0.00027631
4630.0 0.00033722
4650.0 0.00034784
4670.0 0.0003481
4690.0 0.00036386
4710.0 0.00036718
4730.0 0.00030958
4750.0 0.00022962
4770.0 0.00018722
4790.0 0.00017323
4810.0 0.00016737
4830.0 0.00016916
4850.0 0.00019208
4870.0 0.00022856
4890.0 0.00025675
4910.0 0.00022914
4930.0 0.00022087
4950.0 0.00025636
4970.0 0.00032278
4990.0 0.0003933
5010.0 0.00040313
5030.0 0.00033483
5050.0 0.00023478
5070.0 0.00016905
5090.0 0.00014602
5110.0 0.00014801
5130.0 0.00015914
5150.0 0.00016166
5170.0 0.00015948
5190.0 0.00015878
5210.0 0.00015752
5230.0 0.00016589
5250.0 0.00017874
5270.0 0.0001993
5290.0 0.00022998
5310.0 0.00025717
5330.0 0.00026824
5350.0 0.0002737
5370.0 0.00029536
5390.0 0.00031117
5410.0 0.0002935
5430.0 0.00026299
5450.0 0.00025926
5470.0 0.00030027
5490.0 0.00037732
5510.0 0.00046072
5530.0 0.00049592
5550.0 0.00048488
5570.0 0.00045381
5590.0 0.00041612
5610.0 0.00039324
5630.0 0.0003904
5650.0 0.00039787
5670.0 0.00038789
5690.0 0.00036243
5710.0 0.00034692
5730.0 0.00031035
5750.0 0.00024658
5770.0 0.00021792
5790.0 0.0002384
5810.0 0.00027388
5830.0 0.00030729
5850.0 0.00032207
5870.0 0.00032207
5890.0 0.00030931
5910.0 0.00029456
5930.0 0.00029237
5950.0 0.00030497
5970.0 0.00031581
5990.0 0.0002878
6010.0 0.00024079
6030.0 0.0002009
6050.0 0.00018052
6070.0 0.00018331
6090.0 0.00020241
6110.0 0.0002129
6130.0 0.0002029
6150.0 0.00019728
6170.0 0.00021657
6190.0 0.00025478
6210.0 0.00030284
6230.0 0.0003402
6250.0 0.00033256
6270.0 0.00029393
6290.0 0.00024551
6310.0 0.0001976
6330.0 0.00016365
6350.0 0.00015515
6370.0 0.00017005
6390.0 0.00019485
6410.0 0.00022618
6430.0 0.00026599
6450.0 0.00031287
6470.0 0.00037681
6490.0 0.00045006
6510.0 0.00048428
6530.0 0.00045944
6550.0 0.00043429
6570.0 0.00043017
6590.0 0.00041763
6610.0 0.00039025
6630.0 0.00036122
6650.0 0.0003386
6670.0 0.00033865
6690.0 0.00033078
6710.0 0.00030376
6730.0 0.00027015
6750.0 0.00024219
6770.0 0.00024523
6790.0 0.00026204
6810.0 0.00027716
6830.0 0.0002817
6850.0 0.00026981
6870.0 0.00026088
6890.0 0.00025428
6910.0 0.00024078
6930.0 0.00023365
6950.0 0.00023389
6970.0 0.00023973
6990.0 0.00026023
7010.0 0.00027369
7030.0 0.00025911
7050.0 0.00023791
7070.0 0.0002177
7090.0 0.00019012
7110.0 0.00017465
7130.0 0.00017929
7150.0 0.000187
7170.0 0.00019606
7190.0 0.00019472
7210.0 0.00019396
7230.0 0.00021175
7250.0 0.00024146
7270.0 0.00027014
7290.0 0.00028415
7310.0 0.00027258
7330.0 0.00024586
7350.0 0.00022411
7370.0 0.00021671
7390.0 0.00022054
7410.0 0.00023534
7430.0 0.00026303
7450.0 0.00028771
7470.0 0.00031475
7490.0 0.00033645
7510.0 0.00030449
7530.0 0.0002851
7550.0 0.00025034
7570.0 0.00021293
7590.0 0.00017629
7610.0 0.00016509
7630.0 0.00017455
7650.0 0.00020019
7670.0 0.0002259
7690.0 0.00025081
7710.0 0.00027875
7730.0 0.00029427
7750.0 0.00030426
7770.0 0.00030884
7790.0 0.00031061
7810.0 0.00031483
7830.0 0.00030416
7850.0 0.00028805
7870.0 0.00027067
7890.0 0.0002517
7910.0 0.00022622
7930.0 0.000202
7950.0 0.00018169
7970.0 0.00017716
7990.0 0.00018252
8010.0 0.00019657
8030.0 0.00019898
8050.0 0.00020171
8070.0 0.0001974
8090.0 0.00019641
8110.0 0.00018949
8130.0 0.0001794
8150.0 0.00016882
8170.0 0.00016707
8190.0 0.00017016
8210.0 0.00017052
8230.0 0.00016749
8250.0 0.00016285
8270.0 0.0001443
8290.0 0.00011365
8310.0 8.3728e-05
8330.0 5.7831e-05
8350.0 4.2179e-05
8370.0 4.4434e-05
8390.0 4.9962e-05
8410.0 6.1566e-05
8430.0 7.5572e-05
8450.0 8.2826e-05
8470.0 8.6551e-05
8490.0 9.2373e-05
8510.0 9.8005e-05
8530.0 0.00010998
8550.0 0.00012576
8570.0 0.00014535
8590.0 0.00016879
8610.0 0.00019528
8630.0 0.00022687
8650.0 0.0002481
8670.0 0.00024723
8690.0 0.00023792
8710.0 0.000227
8730.0 0.0002166
8750.0 0.00020661
8770.0 0.00020192
8790.0 0.00019476
8810.0 0.00018041
8830.0 0.00016779
8850.0 0.00014633
8870.0 0.00013034
8890.0 0.00011857
8910.0 0.00012439
8930.0 0.00011999
8950.0 0.00012415
8970.0 0.00012638
8990.0 0.0001286
9010.0 0.00013249
9030.0 0.00013069
9050.0 0.00013059
9070.0 0.0001307
9090.0 0.00013081
9110.0 0.00013087
9130.0 0.00013097
9150.0 0.00013113
9170.0 0.00013119
9190.0 0.00013111
9210.0 0.00013198
9230.0 0.00013201
9250.0 0.00013215
9270.0 0.00013233
9290.0 0.00013253
9310.0 0.00013276
9330.0 0.00013301
9350.0 0.00013327
9370.0 0.00013355
9390.0 0.00013385
9410.0 0.00013416
9430.0 0.00013448
9450.0 0.00013482
9470.0 0.00013517
9490.0 0.00013553
9510.0 0.0001359
9530.0 0.00013629
9550.0 0.00013669
9570.0 0.0001371
9590.0 0.00013752
9610.0 0.00013796
9630.0 0.0001384
9650.0 0.00013885
9670.0 0.00013932
9690.0 0.0001398
9710.0 0.00014029
9730.0 0.00014078
9750.0 0.00014129
9770.0 0.0001418
9790.0 0.00014233
9810.0 0.00014286
9830.0 0.0001434
9850.0 0.00014394
9870.0 0.0001445
9890.0 0.00014506
9910.0 0.00014562
9930.0 0.00014619
9950.0 0.00014672
9970.0 0.00014731
9990.0 0.0001479
10010.0 0.00014781
10030.0 0.0001484
10050.0 0.00014896
10070.0 0.00014936
10090.0 0.00015002
10110.0 0.00015066
10130.0 0.00015128
10150.0 0.00015189
10170.0 0.00015249
10190.0 0.00015306
10210.0 0.00015365
10230.0 0.00015423
10250.0 0.00015479
10270.0 0.00015535
10290.0 0.00015591
10310.0 0.00015646
10330.0 0.00015698
10350.0 0.00015752
10370.0 0.00015805
10390.0 0.00015855
10410.0 0.00015905
10430.0 0.00015955
10450.0 0.00016003
10470.0 0.00016049
10490.0 0.00016095
10510.0 0.0001614
10530.0 0.00016181
10550.0 0.00016221
10570.0 0.00016262
10590.0 0.000163
10610.0 0.00016336
10630.0 0.00016371
10650.0 0.00016405
10670.0 0.00016435
10690.0 0.00016464
10710.0 0.00016493
10730.0 0.00016518
10750.0 0.0001654
10770.0 0.00016563
10790.0 0.00016583
10810.0 0.000166
10830.0 0.00016615
10850.0 0.00016627
10870.0 0.00016632
10890.0 0.00016627
10910.0 0.00016611
10930.0 0.00016572
10950.0 0.00016495
10970.0 0.00016376
10990.0 0.0001621
11010.0 0.00016032
11030.0 0.00015718
11050.0 0.00015355
11070.0 0.00014936
11090.0 0.00014448
11110.0 0.00013956
11130.0 0.00013459
11150.0 0.00012941
11170.0 0.0001243
11190.0 0.00011958
11210.0 0.00011497
11230.0 0.00011053
11250.0 0.00010658
11270.0 0.00010305
11290.0 9.976e-05
11310.0 9.6868e-05
11330.0 9.4481e-05
11350.0 9.2334e-05
11370.0 9.0405e-05
11390.0 8.8731e-05
11410.0 8.7203e-05
11430.0 8.5652e-05
11450.0 8.4125e-05
11470.0 8.2586e-05
11490.0 8.0915e-05
11510.0 7.9058e-05
11530.0 7.7135e-05
11550.0 7.5094e-05
11570.0 7.2849e-05
11590.0 7.0522e-05
11610.0 6.8206e-05
11630.0 6.5777e-05
11650.0 6.3303e-05
11670.0 6.0988e-05
11690.0 5.8759e-05
11710.0 5.6575e-05
11730.0 5.4556e-05
11750.0 5.2758e-05
11770.0 5.105e-05
11790.0 4.9481e-05
11810.0 4.8104e-05
11830.0 4.6853e-05
11850.0 4.5658e-05
11870.0 4.4584e-05
11890.0 4.3601e-05
11910.0 4.2626e-05
11930.0 4.1657e-05
11950.0 4.0718e-05
11970.0 3.9755e-05
11990.0 3.873e-05
12010.0 3.7698e-05
12030.0 3.6663e-05
12050.0 3.5582e-05
12070.0 3.4478e-05
12090.0 3.3451e-05
12110.0 3.2448e-05
12130.0 3.1485e-05
12150.0 3.063e-05
12170.0 2.9902e-05
12190.0 2.9273e-05
12210.0 2.881e-05
12230.0 2.8526e-05
12250.0 2.8412e-05
12270.0 2.8488e-05
12290.0 2.8742e-05
12310.0 2.9147e-05
12330.0 2.9733e-05
12350.0 3.0462e-05
12370.0 3.1274e-05
12390.0 3.2184e-05
12410.0 3.3214e-05
12430.0 3.4209e-05
12450.0 3.5186e-05
12470.0 3.6167e-05
12490.0 3.7085e-05
12510.0 3.7875e-05
12530.0 3.8592e-05
12550.0 3.9208e-05
12570.0 3.9668e-05
12590.0 3.999e-05
12610.0 4.0191e-05
12630.0 4.0246e-05
12650.0 4.0162e-05
12670.0 3.9963e-05
12690.0 3.9647e-05
12710.0 3.9238e-05
12730.0 3.875e-05
12750.0 3.8167e-05
12770.0 3.753e-05
12790.0 3.6861e-05
12810.0 3.6141e-05
12830.0 3.5373e-05
12850.0 3.4608e-05
12870.0 3.3826e-05
12890.0 3.2998e-05
12910.0 3.2159e-05
12930.0 3.1324e-05
12950.0 3.0441e-05
12970.0 2.952e-05
12990.0 2.8619e-05
13010.0 2.7702e-05
13030.0 2.6749e-05
13050.0 2.5808e-05
13070.0 2.4907e-05
13090.0 2.3992e-05
13110.0 2.3103e-05
13130.0 2.2285e-05
13150.0 2.1521e-05
13170.0 2.0796e-05
13190.0 2.0176e-05
13210.0 1.9658e-05
13230.0 1.9221e-05
13250.0 1.8883e-05
13270.0 1.8654e-05
13290.0 1.8517e-05
13310.0 1.8476e-05
13330.0 1.8524e-05
13350.0 1.8644e-05
13370.0 1.8836e-05
13390.0 1.909e-05
13410.0 1.9365e-05
13430.0 1.967e-05
13450.0 1.9999e-05
13470.0 2.0318e-05
13490.0 2.0618e-05
13510.0 2.0922e-05
13530.0 2.1193e-05
13550.0 2.1421e-05
13570.0 2.1622e-05
13590.0 2.1794e-05
13610.0 2.1925e-05
13630.0 2.202e-05
13650.0 2.2092e-05
13670.0 2.2135e-05
13690.0 2.215e-05
13710.0 2.2144e-05
13730.0 2.2118e-05
13750.0 2.2071e-05
13770.0 2.2006e-05
13790.0 2.1921e-05
13810.0 2.1818e-05
13830.0 2.1698e-05
13850.0 2.1557e-05
13870.0 2.1393e-05
13890.0 2.1212e-05
13910.0 2.1014e-05
13930.0 2.0789e-05
13950.0 2.0548e-05
13970.0 2.0305e-05
13990.0 2.0046e-05
14010.0 1.9778e-05
14030.0 1.9518e-05
14050.0 1.9264e-05
14070.0 1.9008e-05
14090.0 1.8774e-05
14110.0 1.8564e-05
14130.0 1.8371e-05
14150.0 1.8201e-05
14170.0 1.8066e-05
14190.0 1.7958e-05
14210.0 1.7878e-05
14230.0 1.783e-05
14250.0 1.7814e-05
14270.0 1.783e-05
14290.0 1.7879e-05
14310.0 1.7956e-05
14330.0 1.806e-05
14350.0 1.8196e-05
14370.0 1.8352e-05
14390.0 1.852e-05
14410.0 1.8713e-05
14430.0 1.892e-05
14450.0 1.9128e-05
14470.0 1.9344e-05
14490.0 1.9577e-05
14510.0 1.9808e-05
14530.0 2.004e-05
14550.0 2.0292e-05
14570.0 2.0564e-05
14590.0 2.0846e-05
14610.0 2.1161e-05
14630.0 2.1527e-05
14650.0 2.1924e-05
14670.0 2.2359e-05
14690.0 2.286e-05
14710.0 2.3422e-05
14730.0 2.3997e-05
14750.0 2.4627e-05
14770.0 2.5312e-05
14790.0 2.6006e-05
14810.0 2.6697e-05
14830.0 2.7436e-05
14850.0 2.8149e-05
14870.0 2.8809e-05
14890.0 2.9438e-05
14910.0 3.0026e-05
14930.0 3.0523e-05
14950.0 3.0934e-05
14970.0 3.1276e-05
14990.0 3.1524e-05
15010.0 3.1684e-05
15030.0 3.1774e-05
15050.0 3.1803e-05
15070.0 3.1785e-05
15090.0 3.1737e-05
15110.0 3.1668e-05
15130.0 3.1587e-05
15150.0 3.1505e-05
15170.0 3.1416e-05
15190.0 3.1326e-05
15210.0 3.1238e-05
15230.0 3.1151e-05
15250.0 3.1061e-05
15270.0 3.0972e-05
15290.0 3.0888e-05
15310.0 3.0802e-05
15330.0 3.0715e-05
15350.0 3.0631e-05
15370.0 3.0548e-05
15390.0 3.046e-05
15410.0 3.0376e-05
15430.0 3.0294e-05
15450.0 3.021e-05
15470.0 3.0125e-05
15490.0 3.0044e-05
15510.0 2.9963e-05
15530.0 2.9879e-05
15550.0 2.9797e-05
15570.0 2.9718e-05
15590.0 2.9635e-05
15610.0 2.9551e-05
15630.0 2.9472e-05
15650.0 2.9392e-05
15670.0 2.9309e-05
15690.0 2.9228e-05
15710.0 2.9151e-05
15730.0 2.9069e-05
15750.0 2.8987e-05
15770.0 2.8909e-05
15790.0 2.8829e-05
15810.0 2.8745e-05
15830.0 2.8665e-05
15850.0 2.8588e-05
15870.0 2.8506e-05
15890.0 2.8425e-05
15910.0 2.8347e-05
15930.0 2.8267e-05
15950.0 2.8184e-05
15970.0 2.8104e-05
15990.0 2.8025e-05
16010.0 2.7943e-05
16030.0 2.786e-05
16050.0 2.7782e-05
16070.0 2.7701e-05
16090.0 2.7618e-05
16110.0 2.7537e-05
16130.0 2.7459e-05
16150.0 2.7374e-05
16170.0 2.729e-05
16190.0 2.721e-05
16210.0 2.7128e-05
16230.0 2.7043e-05
16250.0 2.6961e-05
16270.0 2.688e-05
16290.0 2.6795e-05
16310.0 2.6711e-05
16330.0 2.6629e-05
16350.0 2.6545e-05
16370.0 2.6456e-05
16390.0 2.6373e-05
16410.0 2.629e-05
16430.0 2.6203e-05
16450.0 2.6117e-05
16470.0 2.6034e-05
16490.0 2.5947e-05
16510.0 2.5858e-05
16530.0 2.5772e-05
16550.0 2.5686e-05
16570.0 2.5596e-05
16590.0 2.5507e-05
16610.0 2.5422e-05
16630.0 2.5333e-05
16650.0 2.5242e-05
16670.0 2.5155e-05
16690.0 2.5067e-05
16710.0 2.4973e-05
16730.0 2.4883e-05
16750.0 2.4794e-05
16770.0 2.4702e-05
16790.0 2.4608e-05
16810.0 2.4519e-05
16830.0 2.4428e-05
16850.0 2.4333e-05
16870.0 2.4241e-05
16890.0 2.415e-05
16910.0 2.4055e-05
16930.0 2.3958e-05
16950.0 2.3866e-05
16970.0 2.3772e-05
16990.0 2.3675e-05
17010.0 2.358e-05
17030.0 2.3487e-05
17050.0 2.3389e-05
17070.0 2.3291e-05
17090.0 2.3196e-05
17110.0 2.31e-05
17130.0 2.2999e-05
17150.0 2.2902e-05
17170.0 2.2806e-05
17190.0 2.2706e-05
17210.0 2.2606e-05
17230.0 2.251e-05
17250.0 2.2411e-05
17270.0 2.2308e-05
17290.0 2.2209e-05
17310.0 2.211e-05
17330.0 2.2008e-05
17350.0 2.1905e-05
17370.0 2.1807e-05
17390.0 2.1706e-05
17410.0 2.1602e-05
17430.0 2.1501e-05
17450.0 2.1401e-05
17470.0 2.1295e-05
17490.0 2.1191e-05
17510.0 2.109e-05
17530.0 2.0987e-05
17550.0 2.0881e-05
17570.0 2.0779e-05
17590.0 2.0677e-05
17610.0 2.0571e-05
17630.0 2.0466e-05
17650.0 2.0363e-05
17670.0 2.0258e-05
17690.0 2.0149e-05
17710.0 2.0046e-05
17730.0 1.9942e-05
17750.0 1.9835e-05
17770.0 1.9729e-05
17790.0 1.9626e-05
17810.0 1.9519e-05
17830.0 1.941e-05
17850.0 1.9305e-05
17870.0 1.92e-05
17890.0 1.9091e-05
17910.0 1.8983e-05
17930.0 1.8879e-05
17950.0 1.8772e-05
17970.0 1.8663e-05
17990.0 1.8558e-05
18010.0 1.8452e-05
18030.0 1.8341e-05
18050.0 1.8234e-05
18070.0 1.8128e-05
18090.0 1.802e-05
18110.0 1.791e-05
18130.0 1.7805e-05
18150.0 1.7699e-05
18170.0 1.7589e-05
18190.0 1.7482e-05
18210.0 1.7376e-05
18230.0 1.7267e-05
18250.0 1.7156e-05
18270.0 1.7051e-05
18290.0 1.6944e-05
18310.0 1.6834e-05
18330.0 1.6727e-05
18350.0 1.6622e-05
18370.0 1.6513e-05
18390.0 1.6404e-05
18410.0 1.6298e-05
18430.0 1.6191e-05
18450.0 1.608e-05
18470.0 1.5974e-05
18490.0 1.5869e-05
18510.0 1.576e-05
18530.0 1.5652e-05
18550.0 1.5548e-05
18570.0 1.5441e-05
18590.0 1.5331e-05
18610.0 1.5225e-05
18630.0 1.512e-05
18650.0 1.5012e-05
18670.0 1.4904e-05
18690.0 1.48e-05
18710.0 1.4694e-05
18730.0 1.4587e-05
18750.0 1.4482e-05
18770.0 1.4378e-05
18790.0 1.4269e-05
18810.0 1.4163e-05
18830.0 1.406e-05
18850.0 1.3954e-05
18870.0 1.3848e-05
18890.0 1.3744e-05
18910.0 1.3642e-05
18930.0 1.3535e-05
18950.0 1.343e-05
18970.0 1.3328e-05
18990.0 1.3224e-05
19010.0 1.3117e-05
19030.0 1.3015e-05
19050.0 1.2913e-05
19070.0 1.2809e-05
19090.0 1.2705e-05
19110.0 1.2606e-05
19130.0 1.2502e-05
19150.0 1.2398e-05
19170.0 1.2297e-05
19190.0 1.2196e-05
19210.0 1.2092e-05
19230.0 1.199e-05
19250.0 1.1892e-05
19270.0 1.179e-05
19290.0 1.1688e-05
19310.0 1.1589e-05
19330.0 1.149e-05
19350.0 1.1387e-05
19370.0 1.1287e-05
19390.0 1.119e-05
19410.0 1.1089e-05
19430.0 1.0989e-05
19450.0 1.0892e-05
19470.0 1.0794e-05
19490.0 1.0694e-05
19510.0 1.0597e-05
19530.0 1.0501e-05
19550.0 1.0401e-05
19570.0 1.0302e-05
19590.0 1.0207e-05
19610.0 1.0111e-05
19630.0 1.0012e-05
19650.0 9.9168e-06
19670.0 9.8232e-06
19690.0 9.7256e-06
19710.0 9.629e-06
19730.0 9.5354e-06
19750.0 9.4407e-06
19770.0 9.3429e-06
19790.0 9.2492e-06
19810.0 9.1569e-06
19830.0 9.0615e-06
19850.0 8.9664e-06
19870.0 8.8738e-06
19890.0 8.7767e-06
19910.0 8.6739e-06
19930.0 8.5691e-06
19950.0 8.4569e-06
19970.0 8.3291e-06
19990.0 8.1872e-06
20010.0 8.0524e-06
20030.0 7.8826e-06
20050.0 7.697e-06
20070.0 7.5085e-06
20090.0 7.3178e-06
20110.0 7.1163e-06
20130.0 6.9258e-06
20150.0 6.749e-06
20170.0 6.5778e-06
20190.0 6.4161e-06
20210.0 6.2734e-06
20230.0 6.1433e-06
20250.0 6.0219e-06
20270.0 5.9172e-06
20290.0 5.8284e-06
20310.0 5.7508e-06
20330.0 5.6856e-06
20350.0 5.6376e-06
20370.0 5.6016e-06
20390.0 5.5779e-06
20410.0 5.5673e-06
20430.0 5.5686e-06
20450.0 5.5825e-06
20470.0 5.6087e-06
20490.0 5.6449e-06
20510.0 5.6918e-06
20530.0 5.7511e-06
20550.0 5.8184e-06
20570.0 5.8909e-06
20590.0 5.9738e-06
20610.0 6.0631e-06
20630.0 6.1536e-06
20650.0 6.2483e-06
20670.0 6.3502e-06
20690.0 6.4479e-06
20710.0 6.5433e-06
20730.0 6.6404e-06
20750.0 6.7356e-06
20770.0 6.8235e-06
20790.0 6.9107e-06
20810.0 6.9979e-06
20830.0 7.0805e-06
20850.0 7.1602e-06
20870.0 7.2434e-06
20890.0 7.327e-06
20910.0 7.4073e-06
20930.0 7.4912e-06
20950.0 7.5794e-06
20970.0 7.6665e-06
20990.0 7.7536e-06
21010.0 7.8463e-06
21030.0 7.9371e-06
21050.0 8.0232e-06
21070.0 8.1079e-06
21090.0 8.1906e-06
21110.0 8.2627e-06
21130.0 8.3267e-06
21150.0 8.3845e-06
21170.0 8.4316e-06
21190.0 8.4668e-06
21210.0 8.4926e-06
21230.0 8.5072e-06
21250.0 8.5094e-06
21270.0 8.5007e-06
21290.0 8.4805e-06
21310.0 8.4491e-06
21330.0 8.4089e-06
21350.0 8.3578e-06
21370.0 8.2962e-06
21390.0 8.2279e-06
21410.0 8.1523e-06
21430.0 8.0647e-06
21450.0 7.9733e-06
21470.0 7.8796e-06
21490.0 7.7792e-06
21510.0 7.6744e-06
21530.0 7.5723e-06
21550.0 7.4694e-06
21570.0 7.3638e-06
21590.0 7.2633e-06
21610.0 7.1694e-06
21630.0 7.0783e-06
21650.0 6.9924e-06
21670.0 6.9205e-06
21690.0 6.8568e-06
21710.0 6.8024e-06
21730.0 6.7609e-06
21750.0 6.7323e-06
21770.0 6.7153e-06
21790.0 6.7125e-06
21810.0 6.7228e-06
21830.0 6.7461e-06
21850.0 6.7839e-06
21870.0 6.8334e-06
21890.0 6.8926e-06
21910.0 6.9654e-06
21930.0 7.0489e-06
21950.0 7.1385e-06
21970.0 7.2375e-06
21990.0 7.3492e-06
22010.0 7.4617e-06
22030.0 7.5772e-06
22050.0 7.7002e-06
22070.0 7.8257e-06
22090.0 7.946e-06
22110.0 8.0688e-06
22130.0 8.1927e-06
22150.0 8.3092e-06
22170.0 8.4191e-06
22190.0 8.5274e-06
22210.0 8.6265e-06
22230.0 8.7113e-06
22250.0 8.7875e-06
22270.0 8.8525e-06
22290.0 8.9019e-06
22310.0 8.9369e-06
22330.0 8.9577e-06
22350.0 8.9612e-06
22370.0 8.9481e-06
22390.0 8.9179e-06
22410.0 8.8682e-06
22430.0 8.8038e-06
22450.0 8.7237e-06
22470.0 8.6243e-06
22490.0 8.5102e-06
22510.0 8.3862e-06
22530.0 8.2435e-06
22550.0 8.0851e-06
22570.0 7.9226e-06
22590.0 7.7508e-06
22610.0 7.5648e-06
22630.0 7.3744e-06
