#lamb flux
1010.0 2.7773e-07
1030.0 2.9471e-07
1050.0 3.1423e-07
1070.0 3.3622e-07
1090.0 3.6119e-07
1110.0 3.868e-07
1130.0 4.1259e-07
1150.0 4.3961e-07
1170.0 4.6748e-07
1190.0 4.9392e-07
1210.0 5.2072e-07
1230.0 5.4842e-07
1250.0 5.7556e-07
1270.0 6.0194e-07
1290.0 6.2982e-07
1310.0 6.5768e-07
1330.0 6.8442e-07
1350.0 7.1146e-07
1370.0 7.394e-07
1390.0 7.6664e-07
1410.0 7.931e-07
1430.0 8.2076e-07
1450.0 8.4844e-07
1470.0 8.752e-07
1490.0 9.0227e-07
1510.0 9.3087e-07
1530.0 9.58e-07
1550.0 9.8477e-07
1570.0 1.0125e-06
1590.0 1.0402e-06
1610.0 1.0668e-06
1630.0 1.0942e-06
1650.0 1.1223e-06
1670.0 1.1495e-06
1690.0 1.1764e-06
1710.0 1.2044e-06
1730.0 1.2325e-06
1750.0 1.259e-06
1770.0 1.2863e-06
1790.0 1.3142e-06
1810.0 1.3412e-06
1830.0 1.3678e-06
1850.0 1.3961e-06
1870.0 1.4237e-06
1890.0 1.4504e-06
1910.0 1.4778e-06
1930.0 1.5058e-06
1950.0 1.5327e-06
1970.0 1.5593e-06
1990.0 1.587e-06
2010.0 1.6144e-06
2030.0 1.6409e-06
2050.0 1.6683e-06
2070.0 1.6966e-06
2090.0 1.7234e-06
2110.0 1.7502e-06
2130.0 1.7781e-06
2150.0 1.8056e-06
2170.0 1.8321e-06
2190.0 1.8597e-06
2210.0 1.8878e-06
2230.0 1.915e-06
2250.0 1.9422e-06
2270.0 1.9709e-06
2290.0 1.999e-06
2310.0 2.0262e-06
2330.0 2.0545e-06
2350.0 2.0833e-06
2370.0 2.1113e-06
2390.0 2.1397e-06
2410.0 2.1697e-06
2430.0 2.1987e-06
2450.0 2.2268e-06
2470.0 2.2544e-06
2490.0 2.2801e-06
2510.0 2.3022e-06
2530.0 2.324e-06
2550.0 2.3511e-06
2570.0 2.3925e-06
2590.0 2.4606e-06
2610.0 2.5813e-06
2630.0 2.7703e-06
2650.0 3.0253e-06
2670.0 3.3555e-06
2690.0 3.7578e-06
2710.0 4.1858e-06
2730.0 4.6129e-06
2750.0 5.0468e-06
2770.0 5.4513e-06
2790.0 5.8124e-06
2810.0 6.1524e-06
2830.0 6.4905e-06
2850.0 6.8024e-06
2870.0 7.1108e-06
2890.0 7.4327e-06
2910.0 7.7586e-06
2930.0 8.0749e-06
2950.0 8.4055e-06
2970.0 8.7457e-06
2990.0 9.0768e-06
3010.0 1.9485e-05
3030.0 2.0197e-05
3050.0 2.0917e-05
3070.0 2.1606e-05
3090.0 2.2328e-05
3110.0 2.308e-05
3130.0 2.3822e-05
3150.0 2.4558e-05
3170.0 2.531e-05
3190.0 2.5961e-05
3210.0 2.6465e-05
3230.0 2.6861e-05
3250.0 2.3673e-05
3270.0 2.0506e-05
3290.0 1.5661e-05
3310.0 1.7549e-05
3330.0 1.8901e-05
3350.0 2.0186e-05
3370.0 2.1461e-05
3390.0 2.2738e-05
3410.0 2.4015e-05
3430.0 2.5289e-05
3450.0 2.6566e-05
3470.0 2.7839e-05
3490.0 2.8916e-05
3510.0 2.9279e-05
3530.0 3.0638e-05
3550.0 3.7433e-05
3570.0 4.7451e-05
3590.0 5.3693e-05
3610.0 6.1116e-05
3630.0 5.693e-05
3650.0 5.2075e-05
3670.0 5.019e-05
3690.0 5.9657e-05
3710.0 7.5705e-05
3730.0 8.1382e-05
3750.0 8.4486e-05
3770.0 8.5322e-05
3790.0 8.3908e-05
3810.0 7.6158e-05
3830.0 5.898e-05
3850.0 4.7105e-05
3870.0 4.5885e-05
3890.0 6.2623e-05
3910.0 8.5147e-05
3930.0 9.9834e-05
3950.0 0.00010534
3970.0 0.0001048
3990.0 0.00011959
4010.0 0.00013369
4030.0 0.00012505
4050.0 0.0001094
4070.0 9.255e-05
4090.0 9.1999e-05
4110.0 0.00010423
4130.0 0.00010578
4150.0 0.00010664
4170.0 0.00010047
4190.0 9.58e-05
4210.0 9.6981e-05
4230.0 0.00011147
4250.0 0.00011256
4270.0 0.00011182
4290.0 0.00011076
4310.0 0.00011085
4330.0 0.00012247
4350.0 0.00014105
4370.0 0.00014334
4390.0 0.00012404
4410.0 0.00010246
4430.0 8.7849e-05
4450.0 7.5586e-05
4470.0 7.3234e-05
4490.0 8.7556e-05
4510.0 9.8231e-05
4530.0 0.00010769
4550.0 0.00011575
4570.0 0.00013675
4590.0 0.00019499
4610.0 0.00026121
4630.0 0.00027056
4650.0 0.00025685
4670.0 0.00027297
4690.0 0.00029945
4710.0 0.00026478
4730.0 0.00019497
4750.0 0.00014838
4770.0 0.00013508
4790.0 0.00013559
4810.0 0.00012711
4830.0 0.00013868
4850.0 0.00017607
4870.0 0.00021869
4890.0 0.00019546
4910.0 0.0001718
4930.0 0.00019061
4950.0 0.00025042
4970.0 0.0003249
4990.0 0.00033485
5010.0 0.0002885
5030.0 0.00021647
5050.0 0.00015521
5070.0 0.00013052
5090.0 0.0001238
5110.0 0.00012562
5130.0 0.0001307
5150.0 0.00012897
5170.0 0.00013144
5190.0 0.00012727
5210.0 0.00013216
5230.0 0.00014281
5250.0 0.00015902
5270.0 0.00019798
5290.0 0.00022835
5310.0 0.00023189
5330.0 0.00024397
5350.0 0.00027821
5370.0 0.000299
5390.0 0.00028035
5410.0 0.00024262
5430.0 0.00023326
5450.0 0.00027218
5470.0 0.00035501
5490.0 0.00044555
5510.0 0.00049547
5530.0 0.00051152
5550.0 0.00049307
5570.0 0.00046438
5590.0 0.0004539
5610.0 0.00046459
5630.0 0.00048085
5650.0 0.00048722
5670.0 0.00048543
5690.0 0.00047733
5710.0 0.00043335
5730.0 0.00036674
5750.0 0.00031137
5770.0 0.00031688
5790.0 0.0003523
5810.0 0.00038347
5830.0 0.00040083
5850.0 0.00040531
5870.0 0.00037921
5890.0 0.00033602
5910.0 0.00033288
5930.0 0.00036555
5950.0 0.00038242
5970.0 0.00035494
5990.0 0.00030952
6010.0 0.00025695
6030.0 0.00021579
6050.0 0.0002125
6070.0 0.00024155
6090.0 0.00025431
6110.0 0.00023254
6130.0 0.00021523
6150.0 0.00022864
6170.0 0.00027375
6190.0 0.00032661
6210.0 0.00035514
6230.0 0.00034286
6250.0 0.00031426
6270.0 0.00027195
6290.0 0.00022545
6310.0 0.0001866
6330.0 0.00016855
6350.0 0.00017555
6370.0 0.00019032
6390.0 0.00020599
6410.0 0.00023438
6430.0 0.00028858
6450.0 0.00036343
6470.0 0.00041371
6490.0 0.00041476
6510.0 0.00040496
6530.0 0.00041263
6550.0 0.00042184
6570.0 0.00042557
6590.0 0.00042559
6610.0 0.00041403
6630.0 0.00041461
6650.0 0.00041601
6670.0 0.0004
6690.0 0.00035869
6710.0 0.00030321
6730.0 0.00029032
6750.0 0.000312
6770.0 0.00033925
6790.0 0.00034972
6810.0 0.00034578
6830.0 0.00034105
6850.0 0.00033362
6870.0 0.00031457
6890.0 0.00029642
6910.0 0.00028329
6930.0 0.00027305
6950.0 0.00028984
6970.0 0.00031546
6990.0 0.00033272
7010.0 0.00033661
7030.0 0.00031812
7050.0 0.00027617
7070.0 0.00022389
7090.0 0.00019022
7110.0 0.00018349
7130.0 0.00019355
7150.0 0.00019594
7170.0 0.00018023
7190.0 0.0001767
7210.0 0.00019467
7230.0 0.00022356
7250.0 0.00025552
7270.0 0.00026908
7290.0 0.00025336
7310.0 0.0002248
7330.0 0.00020573
7350.0 0.00020138
7370.0 0.00020665
7390.0 0.00021596
7410.0 0.0002314
7430.0 0.00026302
7450.0 0.00030576
7470.0 0.0003491
7490.0 0.00036929
7510.0 0.0003566
7530.0 0.00030641
7550.0 0.00024783
7570.0 0.00020464
7590.0 0.00017908
7610.0 0.00018293
7630.0 0.00020986
7650.0 0.0002396
7670.0 0.00026918
7690.0 0.00029366
7710.0 0.00031061
7730.0 0.0003243
7750.0 0.00033682
7770.0 0.00034746
7790.0 0.00034636
7810.0 0.00034764
7830.0 0.00035611
7850.0 0.00035428
7870.0 0.0003425
7890.0 0.00031594
7910.0 0.00029479
7930.0 0.00027911
7950.0 0.000277
7970.0 0.00027336
7990.0 0.0002742
8010.0 0.00027142
8030.0 0.00027072
8050.0 0.00027614
8070.0 0.00027038
8090.0 0.00026869
8110.0 0.00025668
8130.0 0.00025354
8150.0 0.00024505
8170.0 0.00023672
8190.0 0.00023205
8210.0 0.00023233
8230.0 0.00021675
8250.0 0.000202
8270.0 0.00017544
8290.0 0.00014068
8310.0 0.0001085
8330.0 8.2873e-05
8350.0 7.2729e-05
8370.0 8.142e-05
8390.0 9.3581e-05
8410.0 0.0001028
8430.0 0.00011351
8450.0 0.00011899
8470.0 0.00012394
8490.0 0.00013707
8510.0 0.00015194
8530.0 0.00017562
8550.0 0.00020486
8570.0 0.00023083
8590.0 0.0002512
8610.0 0.00026815
8630.0 0.00027973
8650.0 0.00028032
8670.0 0.0002795
8690.0 0.00028725
8710.0 0.00029111
8730.0 0.00029539
8750.0 0.00028787
8770.0 0.00028728
8790.0 0.00028179
8810.0 0.00026102
8830.0 0.00025267
8850.0 0.0002371
8870.0 0.00022529
8890.0 0.00021406
8910.0 0.00021835
8930.0 0.00020438
8950.0 0.00019579
8970.0 0.00019193
8990.0 0.00018651
9010.0 0.00018269
9030.0 0.00017788
9050.0 0.0001768
9070.0 0.00017631
9090.0 0.00017584
9110.0 0.00017538
9130.0 0.00017488
9150.0 0.00017436
9170.0 0.00017362
9190.0 0.00017261
9210.0 0.00017347
9230.0 0.00017258
9250.0 0.00017186
9270.0 0.00017118
9290.0 0.00017054
9310.0 0.0001699
9330.0 0.00016928
9350.0 0.00016866
9370.0 0.00016803
9390.0 0.0001674
9410.0 0.00016676
9430.0 0.00016611
9450.0 0.00016539
9470.0 0.00016469
9490.0 0.00016409
9510.0 0.00016346
9530.0 0.00016281
9550.0 0.00016214
9570.0 0.00016147
9590.0 0.0001608
9610.0 0.00016012
9630.0 0.00015943
9650.0 0.00015874
9670.0 0.00015805
9690.0 0.00015736
9710.0 0.00015667
9730.0 0.00015597
9750.0 0.00015528
9770.0 0.00015458
9790.0 0.00015389
9810.0 0.00015319
9830.0 0.00015249
9850.0 0.0001518
9870.0 0.0001511
9890.0 0.00015041
9910.0 0.00014971
9930.0 0.000149
9950.0 0.00014737
9970.0 0.00014695
9990.0 0.00014648
10010.0 0.00014599
10030.0 0.00014542
10050.0 0.00014478
10070.0 0.00014409
10090.0 0.00014346
10110.0 0.00014278
10130.0 0.00014213
10150.0 0.00014147
10170.0 0.00014079
10190.0 0.00014007
10210.0 0.00013939
10230.0 0.00013874
10250.0 0.00013804
10270.0 0.00013736
10290.0 0.00013671
10310.0 0.00013603
10330.0 0.00013532
10350.0 0.00013466
10370.0 0.000134
10390.0 0.00013331
10410.0 0.00013262
10430.0 0.00013198
10450.0 0.0001313
10470.0 0.00013061
10490.0 0.00012995
10510.0 0.00012929
10530.0 0.00012858
10550.0 0.00012789
10570.0 0.00012724
10590.0 0.00012656
10610.0 0.00012585
10630.0 0.00012519
10650.0 0.00012453
10670.0 0.00012381
10690.0 0.00012312
10710.0 0.00012245
10730.0 0.00012175
10750.0 0.00012102
10770.0 0.00012034
10790.0 0.00011966
10810.0 0.00011893
10830.0 0.00011823
10850.0 0.00011755
10870.0 0.00011679
10890.0 0.00011602
10910.0 0.00011525
10930.0 0.00011442
10950.0 0.00011347
10970.0 0.00011244
10990.0 0.00011134
11010.0 0.00010048
11030.0 9.9149e-05
11050.0 9.7859e-05
11070.0 9.6541e-05
11090.0 9.5121e-05
11110.0 9.3807e-05
11130.0 9.2531e-05
11150.0 9.1211e-05
11170.0 8.9899e-05
11190.0 8.8676e-05
11210.0 8.7419e-05
11230.0 8.6121e-05
11250.0 8.4887e-05
11270.0 8.369e-05
11290.0 8.2443e-05
11310.0 8.122e-05
11330.0 8.0121e-05
11350.0 7.9018e-05
11370.0 7.7924e-05
11390.0 7.6919e-05
11410.0 7.5972e-05
11430.0 7.4981e-05
11450.0 7.4042e-05
11470.0 7.3158e-05
11490.0 7.2247e-05
11510.0 7.1284e-05
11530.0 7.0357e-05
11550.0 6.9407e-05
11570.0 6.836e-05
11590.0 6.7275e-05
11610.0 6.6185e-05
11630.0 6.4984e-05
11650.0 6.3687e-05
11670.0 6.2417e-05
11690.0 6.1109e-05
11710.0 5.9716e-05
11730.0 5.8328e-05
11750.0 5.7008e-05
11770.0 5.5639e-05
11790.0 5.4277e-05
11810.0 5.3009e-05
11830.0 5.1794e-05
11850.0 5.056e-05
11870.0 4.9438e-05
11890.0 4.8426e-05
11910.0 4.7439e-05
11930.0 4.6505e-05
11950.0 4.5677e-05
11970.0 4.4894e-05
11990.0 4.4123e-05
12010.0 4.3428e-05
12030.0 4.2796e-05
12050.0 4.2178e-05
12070.0 4.1583e-05
12090.0 4.1074e-05
12110.0 4.059e-05
12130.0 4.0126e-05
12150.0 3.9721e-05
12170.0 3.9377e-05
12190.0 3.9054e-05
12210.0 3.8798e-05
12230.0 3.8624e-05
12250.0 3.8518e-05
12270.0 3.849e-05
12290.0 3.856e-05
12310.0 3.8726e-05
12330.0 3.8994e-05
12350.0 3.9372e-05
12370.0 3.9844e-05
12390.0 4.042e-05
12410.0 4.1119e-05
12430.0 4.1876e-05
12450.0 4.2695e-05
12470.0 4.3591e-05
12490.0 4.4525e-05
12510.0 4.5445e-05
12530.0 4.6387e-05
12550.0 4.733e-05
12570.0 4.8214e-05
12590.0 4.9042e-05
12610.0 4.9832e-05
12630.0 5.0542e-05
12650.0 5.1144e-05
12670.0 5.1671e-05
12690.0 5.211e-05
12710.0 5.2447e-05
12730.0 5.2694e-05
12750.0 5.2849e-05
12770.0 5.2913e-05
12790.0 5.2898e-05
12810.0 5.2801e-05
12830.0 5.2621e-05
12850.0 5.2393e-05
12870.0 5.2111e-05
12890.0 5.1761e-05
12910.0 5.1374e-05
12930.0 5.0967e-05
12950.0 5.0506e-05
12970.0 5.0003e-05
12990.0 4.9504e-05
13010.0 4.8981e-05
13030.0 4.8414e-05
13050.0 4.7837e-05
13070.0 4.7267e-05
13090.0 4.6651e-05
13110.0 4.6015e-05
13130.0 4.5395e-05
13150.0 4.4773e-05
13170.0 4.4121e-05
13190.0 4.3514e-05
13210.0 4.2957e-05
13230.0 4.2424e-05
13250.0 4.1946e-05
13270.0 4.1559e-05
13290.0 4.1244e-05
13310.0 4.1007e-05
13330.0 4.0875e-05
13350.0 4.0836e-05
13370.0 4.088e-05
13390.0 4.1004e-05
13410.0 4.118e-05
13430.0 4.1393e-05
13450.0 4.1623e-05
13470.0 4.1834e-05
13490.0 4.2006e-05
13510.0 4.2122e-05
13530.0 4.2152e-05
13550.0 4.2088e-05
13570.0 4.1922e-05
13590.0 4.164e-05
13610.0 4.1267e-05
13630.0 4.0817e-05
13650.0 4.027e-05
13670.0 3.9664e-05
13690.0 3.9038e-05
13710.0 3.8379e-05
13730.0 3.7681e-05
13750.0 3.7032e-05
13770.0 3.641e-05
13790.0 3.58e-05
13810.0 3.5233e-05
13830.0 3.4731e-05
13850.0 3.4256e-05
13870.0 3.3818e-05
13890.0 3.3437e-05
13910.0 3.3097e-05
13930.0 3.278e-05
13950.0 3.2499e-05
13970.0 3.2259e-05
13990.0 3.2037e-05
14010.0 3.1835e-05
14030.0 3.1658e-05
14050.0 3.1498e-05
14070.0 3.1346e-05
14090.0 3.121e-05
14110.0 3.1085e-05
14130.0 3.0966e-05
14150.0 3.085e-05
14170.0 3.0742e-05
14190.0 3.0635e-05
14210.0 3.0529e-05
14230.0 3.0426e-05
14250.0 3.0328e-05
14270.0 3.0232e-05
14290.0 3.0144e-05
14310.0 3.0065e-05
14330.0 2.9996e-05
14350.0 2.9938e-05
14370.0 2.9891e-05
14390.0 2.9853e-05
14410.0 2.9825e-05
14430.0 2.9802e-05
14450.0 2.9782e-05
14470.0 2.9761e-05
14490.0 2.974e-05
14510.0 2.9711e-05
14530.0 2.9676e-05
14550.0 2.9635e-05
14570.0 2.9589e-05
14590.0 2.9541e-05
14610.0 2.9494e-05
14630.0 2.9455e-05
14650.0 2.9427e-05
14670.0 2.9416e-05
14690.0 2.9432e-05
14710.0 2.948e-05
14730.0 2.9556e-05
14750.0 2.9673e-05
14770.0 2.9841e-05
14790.0 3.005e-05
14810.0 3.0298e-05
14830.0 3.0622e-05
14850.0 3.0993e-05
14870.0 3.1393e-05
14890.0 3.1841e-05
14910.0 3.2331e-05
14930.0 3.2807e-05
14950.0 3.3252e-05
14970.0 3.3675e-05
14990.0 3.402e-05
15010.0 3.4265e-05
15030.0 3.4426e-05
15050.0 3.4504e-05
15070.0 3.4497e-05
15090.0 3.4437e-05
15110.0 3.4339e-05
15130.0 3.4218e-05
15150.0 3.4084e-05
15170.0 3.3942e-05
15190.0 3.3797e-05
15210.0 3.365e-05
15230.0 3.3504e-05
15250.0 3.3355e-05
15270.0 3.3207e-05
15290.0 3.306e-05
15310.0 3.2912e-05
15330.0 3.2763e-05
15350.0 3.2616e-05
15370.0 3.2468e-05
15390.0 3.2319e-05
15410.0 3.2171e-05
15430.0 3.2023e-05
15450.0 3.1875e-05
15470.0 3.1726e-05
15490.0 3.1579e-05
15510.0 3.1431e-05
15530.0 3.1283e-05
15550.0 3.1136e-05
15570.0 3.0989e-05
15590.0 3.0842e-05
15610.0 3.0694e-05
15630.0 3.0548e-05
15650.0 3.0402e-05
15670.0 3.0255e-05
15690.0 3.011e-05
15710.0 2.9965e-05
15730.0 2.982e-05
15750.0 2.9675e-05
15770.0 2.9531e-05
15790.0 2.9388e-05
15810.0 2.9243e-05
15830.0 2.91e-05
15850.0 2.8958e-05
15870.0 2.8816e-05
15890.0 2.8674e-05
15910.0 2.8534e-05
15930.0 2.8393e-05
15950.0 2.8252e-05
15970.0 2.8113e-05
15990.0 2.7975e-05
16010.0 2.7836e-05
16030.0 2.7697e-05
16050.0 2.7561e-05
16070.0 2.7424e-05
16090.0 2.7287e-05
16110.0 2.7152e-05
16130.0 2.7018e-05
16150.0 2.6883e-05
16170.0 2.6749e-05
16190.0 2.6616e-05
16210.0 2.6484e-05
16230.0 2.6352e-05
16250.0 2.6221e-05
16270.0 2.6091e-05
16290.0 2.5961e-05
16310.0 2.5832e-05
16330.0 2.5704e-05
16350.0 2.5576e-05
16370.0 2.5448e-05
16390.0 2.5323e-05
16410.0 2.5198e-05
16430.0 2.5072e-05
16450.0 2.4948e-05
16470.0 2.4826e-05
16490.0 2.4703e-05
16510.0 2.458e-05
16530.0 2.446e-05
16550.0 2.434e-05
16570.0 2.4219e-05
16590.0 2.41e-05
16610.0 2.3983e-05
16630.0 2.3865e-05
16650.0 2.3748e-05
16670.0 2.3633e-05
16690.0 2.3518e-05
16710.0 2.3403e-05
16730.0 2.3289e-05
16750.0 2.3177e-05
16770.0 2.3064e-05
16790.0 2.2953e-05
16810.0 2.2843e-05
16830.0 2.2733e-05
16850.0 2.2624e-05
16870.0 2.2515e-05
16890.0 2.2408e-05
16910.0 2.2301e-05
16930.0 2.2195e-05
16950.0 2.209e-05
16970.0 2.1986e-05
16990.0 2.1881e-05
17010.0 2.1778e-05
17030.0 2.1677e-05
17050.0 2.1575e-05
17070.0 2.1474e-05
17090.0 2.1374e-05
17110.0 2.1275e-05
17130.0 2.1176e-05
17150.0 2.1079e-05
17170.0 2.0982e-05
17190.0 2.0886e-05
17210.0 2.079e-05
17230.0 2.0696e-05
17250.0 2.0602e-05
17270.0 2.0508e-05
17290.0 2.0415e-05
17310.0 2.0324e-05
17330.0 2.0232e-05
17350.0 2.0142e-05
17370.0 2.0053e-05
17390.0 1.9964e-05
17410.0 1.9875e-05
17430.0 1.9788e-05
17450.0 1.9701e-05
17470.0 1.9614e-05
17490.0 1.9529e-05
17510.0 1.9444e-05
17530.0 1.936e-05
17550.0 1.9276e-05
17570.0 1.9194e-05
17590.0 1.9112e-05
17610.0 1.9031e-05
17630.0 1.895e-05
17650.0 1.887e-05
17670.0 1.8791e-05
17690.0 1.8711e-05
17710.0 1.8634e-05
17730.0 1.8557e-05
17750.0 1.848e-05
17770.0 1.8403e-05
17790.0 1.8329e-05
17810.0 1.8253e-05
17830.0 1.8179e-05
17850.0 1.8105e-05
17870.0 1.8033e-05
17890.0 1.796e-05
17910.0 1.7888e-05
17930.0 1.7817e-05
17950.0 1.7747e-05
17970.0 1.7677e-05
17990.0 1.7608e-05
18010.0 1.7539e-05
18030.0 1.747e-05
18050.0 1.7403e-05
18070.0 1.7336e-05
18090.0 1.727e-05
18110.0 1.7203e-05
18130.0 1.7139e-05
18150.0 1.7074e-05
18170.0 1.701e-05
18190.0 1.6946e-05
18210.0 1.6883e-05
18230.0 1.6821e-05
18250.0 1.6758e-05
18270.0 1.6697e-05
18290.0 1.6636e-05
18310.0 1.6576e-05
18330.0 1.6516e-05
18350.0 1.6457e-05
18370.0 1.6398e-05
18390.0 1.6339e-05
18410.0 1.6282e-05
18430.0 1.6225e-05
18450.0 1.6167e-05
18470.0 1.6111e-05
18490.0 1.6056e-05
18510.0 1.6e-05
18530.0 1.5945e-05
18550.0 1.5891e-05
18570.0 1.5837e-05
18590.0 1.5783e-05
18610.0 1.573e-05
18630.0 1.5678e-05
18650.0 1.5626e-05
18670.0 1.5574e-05
18690.0 1.5523e-05
18710.0 1.5473e-05
18730.0 1.5422e-05
18750.0 1.5372e-05
18770.0 1.5323e-05
18790.0 1.5274e-05
18810.0 1.5225e-05
18830.0 1.5177e-05
18850.0 1.513e-05
18870.0 1.5082e-05
18890.0 1.5035e-05
18910.0 1.4989e-05
18930.0 1.4943e-05
18950.0 1.4897e-05
18970.0 1.4852e-05
18990.0 1.4807e-05
19010.0 1.4762e-05
19030.0 1.4718e-05
19050.0 1.4675e-05
19070.0 1.4631e-05
19090.0 1.4588e-05
19110.0 1.4546e-05
19130.0 1.4503e-05
19150.0 1.4461e-05
19170.0 1.442e-05
19190.0 1.4378e-05
19210.0 1.4337e-05
19230.0 1.4296e-05
19250.0 1.4257e-05
19270.0 1.4217e-05
19290.0 1.4177e-05
19310.0 1.4138e-05
19330.0 1.41e-05
19350.0 1.406e-05
19370.0 1.4022e-05
19390.0 1.3985e-05
19410.0 1.3947e-05
19430.0 1.3909e-05
19450.0 1.3873e-05
19470.0 1.3836e-05
19490.0 1.38e-05
19510.0 1.3764e-05
19530.0 1.3728e-05
19550.0 1.3693e-05
19570.0 1.3657e-05
19590.0 1.3623e-05
19610.0 1.3588e-05
19630.0 1.3553e-05
19650.0 1.352e-05
19670.0 1.3486e-05
19690.0 1.3452e-05
19710.0 1.3419e-05
19730.0 1.3386e-05
19750.0 1.3354e-05
19770.0 1.3321e-05
19790.0 1.3289e-05
19810.0 1.3257e-05
19830.0 1.3225e-05
19850.0 1.3192e-05
19870.0 1.316e-05
19890.0 1.3124e-05
19910.0 1.3084e-05
19930.0 1.3038e-05
19950.0 1.2981e-05
19970.0 1.2907e-05
19990.0 1.2812e-05
20010.0 1.27e-05
20030.0 1.2563e-05
20050.0 1.24e-05
20070.0 1.2222e-05
20090.0 1.2032e-05
20110.0 1.182e-05
20130.0 1.1607e-05
20150.0 1.1398e-05
20170.0 1.1184e-05
20190.0 1.0969e-05
20210.0 1.0766e-05
20230.0 1.0569e-05
20250.0 1.0372e-05
20270.0 1.0187e-05
20290.0 1.0016e-05
20310.0 9.8509e-06
20330.0 9.6927e-06
20350.0 9.5563e-06
20370.0 9.4304e-06
20390.0 9.3141e-06
20410.0 9.2133e-06
20430.0 9.1282e-06
20450.0 9.0523e-06
20470.0 8.9903e-06
20490.0 8.9429e-06
20510.0 8.907e-06
20530.0 8.8823e-06
20550.0 8.869e-06
20570.0 8.8655e-06
20590.0 8.8708e-06
20610.0 8.8842e-06
20630.0 8.9034e-06
20650.0 8.9281e-06
20670.0 8.9588e-06
20690.0 8.991e-06
20710.0 9.024e-06
20730.0 9.0588e-06
20750.0 9.0931e-06
20770.0 9.1237e-06
20790.0 9.1525e-06
20810.0 9.1784e-06
20830.0 9.1989e-06
20850.0 9.214e-06
20870.0 9.2241e-06
20890.0 9.2277e-06
20910.0 9.2244e-06
20930.0 9.2148e-06
20950.0 9.1981e-06
20970.0 9.1752e-06
20990.0 9.1466e-06
21010.0 9.1106e-06
21030.0 9.0691e-06
21050.0 9.0238e-06
21070.0 8.9733e-06
21090.0 8.9171e-06
21110.0 8.8603e-06
21130.0 8.8019e-06
21150.0 8.7401e-06
21170.0 8.6782e-06
21190.0 8.6186e-06
21210.0 8.5578e-06
21230.0 8.4976e-06
21250.0 8.4424e-06
21270.0 8.3904e-06
21290.0 8.3406e-06
21310.0 8.2957e-06
21330.0 8.2572e-06
21350.0 8.2225e-06
21370.0 8.1929e-06
21390.0 8.1698e-06
21410.0 8.1522e-06
21430.0 8.1398e-06
21450.0 8.1338e-06
21470.0 8.1334e-06
21490.0 8.1384e-06
21510.0 8.1491e-06
21530.0 8.1644e-06
21550.0 8.1844e-06
21570.0 8.2102e-06
21590.0 8.2398e-06
21610.0 8.2727e-06
21630.0 8.3106e-06
21650.0 8.3536e-06
21670.0 8.3967e-06
21690.0 8.4435e-06
21710.0 8.4943e-06
21730.0 8.5464e-06
21750.0 8.5985e-06
21770.0 8.6553e-06
21790.0 8.713e-06
21810.0 8.7692e-06
21830.0 8.8262e-06
21850.0 8.885e-06
21870.0 8.9415e-06
21890.0 8.9952e-06
21910.0 9.0496e-06
21930.0 9.102e-06
21950.0 9.1501e-06
21970.0 9.1961e-06
21990.0 9.2409e-06
22010.0 9.2796e-06
22030.0 9.3137e-06
22050.0 9.3444e-06
22070.0 9.3698e-06
22090.0 9.3887e-06
22110.0 9.4025e-06
22130.0 9.4104e-06
22150.0 9.4115e-06
22170.0 9.4061e-06
22190.0 9.3935e-06
22210.0 9.3733e-06
22230.0 9.3472e-06
22250.0 9.3135e-06
22270.0 9.2718e-06
22290.0 9.2244e-06
22310.0 9.1713e-06
22330.0 9.1086e-06
22350.0 9.0404e-06
22370.0 8.9685e-06
22390.0 8.8896e-06
22410.0 8.8026e-06
22430.0 8.7153e-06
22450.0 8.6245e-06
22470.0 8.5268e-06
22490.0 8.4271e-06
22510.0 8.3286e-06
22530.0 8.2242e-06
22550.0 8.1167e-06
22570.0 8.0133e-06
22590.0 7.9101e-06
22610.0 7.8041e-06
22630.0 7.701e-06
22650.0 7.604e-06
