#lamb flux
1010.0 3.4087e-07
1030.0 3.617e-07
1050.0 3.8567e-07
1070.0 4.1265e-07
1090.0 4.433e-07
1110.0 4.7474e-07
1130.0 5.0638e-07
1150.0 5.3954e-07
1170.0 5.7375e-07
1190.0 6.062e-07
1210.0 6.3909e-07
1230.0 6.7309e-07
1250.0 7.0641e-07
1270.0 7.3878e-07
1290.0 7.7299e-07
1310.0 8.0719e-07
1330.0 8.4e-07
1350.0 8.732e-07
1370.0 9.0748e-07
1390.0 9.4092e-07
1410.0 9.7339e-07
1430.0 1.0073e-06
1450.0 1.0413e-06
1470.0 1.0742e-06
1490.0 1.1074e-06
1510.0 1.1425e-06
1530.0 1.1758e-06
1550.0 1.2086e-06
1570.0 1.2426e-06
1590.0 1.2767e-06
1610.0 1.3093e-06
1630.0 1.3429e-06
1650.0 1.3774e-06
1670.0 1.4108e-06
1690.0 1.4438e-06
1710.0 1.4781e-06
1730.0 1.5127e-06
1750.0 1.5452e-06
1770.0 1.5787e-06
1790.0 1.6129e-06
1810.0 1.6461e-06
1830.0 1.6788e-06
1850.0 1.7135e-06
1870.0 1.7473e-06
1890.0 1.7801e-06
1910.0 1.8137e-06
1930.0 1.8481e-06
1950.0 1.8811e-06
1970.0 1.9138e-06
1990.0 1.9478e-06
2010.0 1.9814e-06
2030.0 2.0139e-06
2050.0 2.0476e-06
2070.0 2.0822e-06
2090.0 2.1151e-06
2110.0 2.1481e-06
2130.0 2.1823e-06
2150.0 2.216e-06
2170.0 2.2485e-06
2190.0 2.2825e-06
2210.0 2.3169e-06
2230.0 2.3503e-06
2250.0 2.3838e-06
2270.0 2.419e-06
2290.0 2.4534e-06
2310.0 2.4869e-06
2330.0 2.5216e-06
2350.0 2.5569e-06
2370.0 2.5912e-06
2390.0 2.6261e-06
2410.0 2.6629e-06
2430.0 2.6986e-06
2450.0 2.733e-06
2470.0 2.7669e-06
2490.0 2.7985e-06
2510.0 2.8256e-06
2530.0 2.8523e-06
2550.0 2.8855e-06
2570.0 2.9363e-06
2590.0 3.0199e-06
2610.0 3.1682e-06
2630.0 3.4e-06
2650.0 3.713e-06
2670.0 4.1183e-06
2690.0 4.6121e-06
2710.0 5.1374e-06
2730.0 5.6615e-06
2750.0 6.194e-06
2770.0 6.6905e-06
2790.0 7.1337e-06
2810.0 7.551e-06
2830.0 7.9659e-06
2850.0 8.3488e-06
2870.0 8.7272e-06
2890.0 9.1224e-06
2910.0 9.5224e-06
2930.0 9.9105e-06
2950.0 1.0316e-05
2970.0 1.0734e-05
2990.0 1.114e-05
3010.0 2.3915e-05
3030.0 2.4789e-05
3050.0 2.5672e-05
3070.0 2.6517e-05
3090.0 2.7404e-05
3110.0 2.8326e-05
3130.0 2.9237e-05
3150.0 3.014e-05
3170.0 3.1064e-05
3190.0 3.1862e-05
3210.0 3.2481e-05
3230.0 3.2968e-05
3250.0 2.9054e-05
3270.0 2.5168e-05
3290.0 1.9221e-05
3310.0 2.1539e-05
3330.0 2.3197e-05
3350.0 2.4775e-05
3370.0 2.634e-05
3390.0 2.7907e-05
3410.0 2.9474e-05
3430.0 3.1038e-05
3450.0 3.2606e-05
3470.0 3.4168e-05
3490.0 3.549e-05
3510.0 3.5935e-05
3530.0 3.7602e-05
3550.0 4.5942e-05
3570.0 5.8238e-05
3590.0 6.5898e-05
3610.0 7.501e-05
3630.0 6.9872e-05
3650.0 6.3914e-05
3670.0 6.1599e-05
3690.0 7.3219e-05
3710.0 9.2915e-05
3730.0 9.9883e-05
3750.0 0.00010369
3770.0 0.00010472
3790.0 0.00010298
3810.0 9.3471e-05
3830.0 7.2388e-05
3850.0 5.7813e-05
3870.0 5.6316e-05
3890.0 7.6858e-05
3910.0 0.0001045
3930.0 0.00012253
3950.0 0.00012929
3970.0 0.00012862
3990.0 0.00014678
4010.0 0.00016408
4030.0 0.00015348
4050.0 0.00013427
4070.0 0.00011359
4090.0 0.00011291
4110.0 0.00012792
4130.0 0.00012983
4150.0 0.00013088
4170.0 0.00012331
4190.0 0.00011758
4210.0 0.00011903
4230.0 0.00013681
4250.0 0.00013814
4270.0 0.00013724
4290.0 0.00013593
4310.0 0.00013605
4330.0 0.00015032
4350.0 0.00017312
4370.0 0.00017592
4390.0 0.00015224
4410.0 0.00012576
4430.0 0.00010782
4450.0 9.2769e-05
4470.0 8.9882e-05
4490.0 0.00010746
4510.0 0.00012056
4530.0 0.00013217
4550.0 0.00014207
4570.0 0.00016784
4590.0 0.00023932
4610.0 0.00032059
4630.0 0.00033207
4650.0 0.00031524
4670.0 0.00033503
4690.0 0.00036752
4710.0 0.00032497
4730.0 0.0002393
4750.0 0.00018211
4770.0 0.00016579
4790.0 0.00016642
4810.0 0.00015601
4830.0 0.00017021
4850.0 0.0002161
4870.0 0.00026841
4890.0 0.00023989
4910.0 0.00021086
4930.0 0.00023394
4950.0 0.00030734
4970.0 0.00039876
4990.0 0.00041098
5010.0 0.00035408
5030.0 0.00026568
5050.0 0.0001905
5070.0 0.00016019
5090.0 0.00015194
5110.0 0.00015418
5130.0 0.00016041
5150.0 0.00015829
5170.0 0.00016132
5190.0 0.0001562
5210.0 0.00016141
5230.0 0.00017272
5250.0 0.00019045
5270.0 0.00023477
5290.0 0.0002681
5310.0 0.00026956
5330.0 0.00028076
5350.0 0.00031695
5370.0 0.00033719
5390.0 0.00031294
5410.0 0.00026806
5430.0 0.00025507
5450.0 0.00029456
5470.0 0.00038021
5490.0 0.00047218
5510.0 0.00051957
5530.0 0.00053073
5550.0 0.00050614
5570.0 0.00047159
5590.0 0.00045599
5610.0 0.00046167
5630.0 0.00047262
5650.0 0.00047362
5670.0 0.00046667
5690.0 0.00045378
5710.0 0.00040736
5730.0 0.00034086
5750.0 0.00028611
5770.0 0.00028785
5790.0 0.00031634
5810.0 0.00034035
5830.0 0.0003516
5850.0 0.00035135
5870.0 0.00032483
5890.0 0.0002844
5910.0 0.00027836
5930.0 0.00030197
5950.0 0.00031206
5970.0 0.00028607
5990.0 0.00024636
6010.0 0.00020325
6030.0 0.00017069
6050.0 0.00016809
6070.0 0.00019106
6090.0 0.00020116
6110.0 0.00018394
6130.0 0.00017024
6150.0 0.00018085
6170.0 0.00021653
6190.0 0.00025835
6210.0 0.00028091
6230.0 0.0002712
6250.0 0.00024857
6270.0 0.00021511
6290.0 0.00017833
6310.0 0.0001476
6330.0 0.00013332
6350.0 0.00013886
6370.0 0.00015054
6390.0 0.00016294
6410.0 0.00018539
6430.0 0.00022826
6450.0 0.00028747
6470.0 0.00032724
6490.0 0.00032807
6510.0 0.00032032
6530.0 0.00032639
6550.0 0.00033367
6570.0 0.00033662
6590.0 0.00033664
6610.0 0.00032749
6630.0 0.00032795
6650.0 0.00032906
6670.0 0.00031639
6690.0 0.00028372
6710.0 0.00023984
6730.0 0.00022964
6750.0 0.00024679
6770.0 0.00026835
6790.0 0.00027663
6810.0 0.00027351
6830.0 0.00026977
6850.0 0.00026389
6870.0 0.00024882
6890.0 0.00023446
6910.0 0.00022408
6930.0 0.00021598
6950.0 0.00022926
6970.0 0.00024953
6990.0 0.00026318
7010.0 0.00026626
7030.0 0.00025163
7050.0 0.00021845
7070.0 0.0001771
7090.0 0.00015046
7110.0 0.00014514
7130.0 0.00015309
7150.0 0.00015499
7170.0 0.00014256
7190.0 0.00013977
7210.0 0.00015398
7230.0 0.00017683
7250.0 0.00020211
7270.0 0.00021284
7290.0 0.0002004
7310.0 0.00017781
7330.0 0.00016273
7350.0 0.00015929
7370.0 0.00016345
7390.0 0.00017082
7410.0 0.00018303
7430.0 0.00020805
7450.0 0.00024185
7470.0 0.00027613
7490.0 0.0002921
7510.0 0.00028301
7530.0 0.00024481
7550.0 0.00019933
7570.0 0.00016568
7590.0 0.00014595
7610.0 0.00015007
7630.0 0.00017329
7650.0 0.00019915
7670.0 0.00022519
7690.0 0.00024726
7710.0 0.00026322
7730.0 0.00027658
7750.0 0.00028909
7770.0 0.00030013
7790.0 0.00030108
7810.0 0.0003041
7830.0 0.00031348
7850.0 0.00031383
7870.0 0.00030529
7890.0 0.00028337
7910.0 0.00026603
7930.0 0.00025344
7950.0 0.00025308
7970.0 0.00025128
7990.0 0.0002536
8010.0 0.00025256
8030.0 0.00025343
8050.0 0.00026006
8070.0 0.00025617
8090.0 0.0002561
8110.0 0.00024612
8130.0 0.00024456
8150.0 0.00023777
8170.0 0.00023105
8190.0 0.00022783
8210.0 0.00022944
8230.0 0.00021531
8250.0 0.00020183
8270.0 0.00017631
8290.0 0.00014219
8310.0 0.0001103
8330.0 8.4736e-05
8350.0 7.4791e-05
8370.0 8.4208e-05
8390.0 9.7337e-05
8410.0 0.00010754
8430.0 0.00011942
8450.0 0.00012588
8470.0 0.00013186
8490.0 0.00014664
8510.0 0.00016347
8530.0 0.00018999
8550.0 0.00022286
8570.0 0.0002525
8590.0 0.0002763
8610.0 0.00029657
8630.0 0.00031108
8650.0 0.00031345
8670.0 0.00031423
8690.0 0.0003247
8710.0 0.00033086
8730.0 0.00033754
8750.0 0.00033072
8770.0 0.00033182
8790.0 0.00032723
8810.0 0.00030473
8830.0 0.00029656
8850.0 0.00027977
8870.0 0.00026724
8890.0 0.00025527
8910.0 0.00026175
8930.0 0.00024629
8950.0 0.00023718
8970.0 0.00023373
8990.0 0.00022831
9010.0 0.00022423
9030.0 0.00021831
9050.0 0.00021699
9070.0 0.00021639
9090.0 0.00021581
9110.0 0.00021525
9130.0 0.00021464
9150.0 0.000214
9170.0 0.00021309
9190.0 0.00021185
9210.0 0.00021291
9230.0 0.00021181
9250.0 0.00021093
9270.0 0.0002101
9290.0 0.0002093
9310.0 0.00020853
9330.0 0.00020776
9350.0 0.000207
9370.0 0.00020623
9390.0 0.00020545
9410.0 0.00020467
9430.0 0.00020388
9450.0 0.00020299
9470.0 0.00020213
9490.0 0.0002014
9510.0 0.00020061
9530.0 0.00019982
9550.0 0.000199
9570.0 0.00019818
9590.0 0.00019735
9610.0 0.00019651
9630.0 0.00019567
9650.0 0.00019483
9670.0 0.00019398
9690.0 0.00019313
9710.0 0.00019228
9730.0 0.00019143
9750.0 0.00019058
9770.0 0.00018973
9790.0 0.00018887
9810.0 0.00018802
9830.0 0.00018716
9850.0 0.00018631
9870.0 0.00018545
9890.0 0.0001846
9910.0 0.00018374
9930.0 0.00018287
9950.0 0.00018087
9970.0 0.00018036
9990.0 0.00017978
10010.0 0.00017918
10030.0 0.00017848
10050.0 0.00017769
10070.0 0.00017684
10090.0 0.00017608
10110.0 0.00017524
10130.0 0.00017444
10150.0 0.00017364
10170.0 0.00017279
10190.0 0.00017191
10210.0 0.00017108
10230.0 0.00017028
10250.0 0.00016942
10270.0 0.00016858
10290.0 0.00016779
10310.0 0.00016695
10330.0 0.00016608
10350.0 0.00016527
10370.0 0.00016446
10390.0 0.00016361
10410.0 0.00016277
10430.0 0.00016198
10450.0 0.00016115
10470.0 0.0001603
10490.0 0.00015949
10510.0 0.00015868
10530.0 0.00015781
10550.0 0.00015696
10570.0 0.00015616
10590.0 0.00015533
10610.0 0.00015446
10630.0 0.00015365
10650.0 0.00015283
10670.0 0.00015196
10690.0 0.00015111
10710.0 0.00015029
10730.0 0.00014943
10750.0 0.00014853
10770.0 0.0001477
10790.0 0.00014686
10810.0 0.00014597
10830.0 0.0001451
10850.0 0.00014427
10870.0 0.00014334
10890.0 0.00014239
10910.0 0.00014145
10930.0 0.00014043
10950.0 0.00013927
10970.0 0.000138
10990.0 0.00013665
11010.0 0.00012332
11030.0 0.00012169
11050.0 0.00012011
11070.0 0.00011849
11090.0 0.00011674
11110.0 0.00011513
11130.0 0.00011357
11150.0 0.00011195
11170.0 0.00011033
11190.0 0.00010883
11210.0 0.00010729
11230.0 0.0001057
11250.0 0.00010418
11270.0 0.00010271
11290.0 0.00010118
11310.0 9.9684e-05
11330.0 9.8334e-05
11350.0 9.6981e-05
11370.0 9.5638e-05
11390.0 9.4404e-05
11410.0 9.3242e-05
11430.0 9.2026e-05
11450.0 9.0873e-05
11470.0 8.9788e-05
11490.0 8.8671e-05
11510.0 8.7489e-05
11530.0 8.6351e-05
11550.0 8.5185e-05
11570.0 8.39e-05
11590.0 8.2568e-05
11610.0 8.123e-05
11630.0 7.9757e-05
11650.0 7.8165e-05
11670.0 7.6605e-05
11690.0 7.5001e-05
11710.0 7.3292e-05
11730.0 7.1588e-05
11750.0 6.9968e-05
11770.0 6.8287e-05
11790.0 6.6615e-05
11810.0 6.506e-05
11830.0 6.3568e-05
11850.0 6.2054e-05
11870.0 6.0677e-05
11890.0 5.9434e-05
11910.0 5.8223e-05
11930.0 5.7076e-05
11950.0 5.606e-05
11970.0 5.51e-05
11990.0 5.4153e-05
12010.0 5.33e-05
12030.0 5.2524e-05
12050.0 5.1766e-05
12070.0 5.1036e-05
12090.0 5.0411e-05
12110.0 4.9817e-05
12130.0 4.9248e-05
12150.0 4.8751e-05
12170.0 4.8329e-05
12190.0 4.7932e-05
12210.0 4.7618e-05
12230.0 4.7404e-05
12250.0 4.7274e-05
12270.0 4.7239e-05
12290.0 4.7326e-05
12310.0 4.753e-05
12330.0 4.7859e-05
12350.0 4.8322e-05
12370.0 4.8902e-05
12390.0 4.9608e-05
12410.0 5.0466e-05
12430.0 5.1396e-05
12450.0 5.2401e-05
12470.0 5.35e-05
12490.0 5.4647e-05
12510.0 5.5776e-05
12530.0 5.6932e-05
12550.0 5.809e-05
12570.0 5.9175e-05
12590.0 6.0191e-05
12610.0 6.116e-05
12630.0 6.2032e-05
12650.0 6.277e-05
12670.0 6.3418e-05
12690.0 6.3956e-05
12710.0 6.437e-05
12730.0 6.4673e-05
12750.0 6.4864e-05
12770.0 6.4941e-05
12790.0 6.4923e-05
12810.0 6.4804e-05
12830.0 6.4583e-05
12850.0 6.4303e-05
12870.0 6.3957e-05
12890.0 6.3528e-05
12910.0 6.3052e-05
12930.0 6.2553e-05
12950.0 6.1988e-05
12970.0 6.137e-05
12990.0 6.0758e-05
13010.0 6.0116e-05
13030.0 5.942e-05
13050.0 5.8712e-05
13070.0 5.8012e-05
13090.0 5.7257e-05
13110.0 5.6476e-05
13130.0 5.5715e-05
13150.0 5.4951e-05
13170.0 5.4151e-05
13190.0 5.3405e-05
13210.0 5.2722e-05
13230.0 5.2068e-05
13250.0 5.1482e-05
13270.0 5.1006e-05
13290.0 5.062e-05
13310.0 5.0329e-05
13330.0 5.0167e-05
13350.0 5.0119e-05
13370.0 5.0173e-05
13390.0 5.0326e-05
13410.0 5.0541e-05
13430.0 5.0802e-05
13450.0 5.1084e-05
13470.0 5.1345e-05
13490.0 5.1555e-05
13510.0 5.1698e-05
13530.0 5.1734e-05
13550.0 5.1656e-05
13570.0 5.1452e-05
13590.0 5.1106e-05
13610.0 5.0648e-05
13630.0 5.0096e-05
13650.0 4.9425e-05
13670.0 4.8681e-05
13690.0 4.7913e-05
13710.0 4.7104e-05
13730.0 4.6246e-05
13750.0 4.545e-05
13770.0 4.4687e-05
13790.0 4.3938e-05
13810.0 4.3242e-05
13830.0 4.2626e-05
13850.0 4.2044e-05
13870.0 4.1506e-05
13890.0 4.1038e-05
13910.0 4.062e-05
13930.0 4.0232e-05
13950.0 3.9887e-05
13970.0 3.9593e-05
13990.0 3.932e-05
14010.0 3.9072e-05
14030.0 3.8854e-05
14050.0 3.8658e-05
14070.0 3.8472e-05
14090.0 3.8304e-05
14110.0 3.8152e-05
14130.0 3.8006e-05
14150.0 3.7863e-05
14170.0 3.773e-05
14190.0 3.7599e-05
14210.0 3.7468e-05
14230.0 3.7342e-05
14250.0 3.7222e-05
14270.0 3.7105e-05
14290.0 3.6996e-05
14310.0 3.69e-05
14330.0 3.6815e-05
14350.0 3.6744e-05
14370.0 3.6686e-05
14390.0 3.664e-05
14410.0 3.6605e-05
14430.0 3.6577e-05
14450.0 3.6552e-05
14470.0 3.6527e-05
14490.0 3.65e-05
14510.0 3.6465e-05
14530.0 3.6422e-05
14550.0 3.6372e-05
14570.0 3.6316e-05
14590.0 3.6256e-05
14610.0 3.6199e-05
14630.0 3.6151e-05
14650.0 3.6117e-05
14670.0 3.6103e-05
14690.0 3.6122e-05
14710.0 3.6182e-05
14730.0 3.6275e-05
14750.0 3.6419e-05
14770.0 3.6624e-05
14790.0 3.6881e-05
14810.0 3.7186e-05
14830.0 3.7583e-05
14850.0 3.8038e-05
14870.0 3.853e-05
14890.0 3.908e-05
14910.0 3.9681e-05
14930.0 4.0265e-05
14950.0 4.0811e-05
14970.0 4.133e-05
14990.0 4.1754e-05
15010.0 4.2055e-05
15030.0 4.2252e-05
15050.0 4.2348e-05
15070.0 4.2339e-05
15090.0 4.2265e-05
15110.0 4.2146e-05
15130.0 4.1997e-05
15150.0 4.1832e-05
15170.0 4.1658e-05
15190.0 4.1479e-05
15210.0 4.13e-05
15230.0 4.112e-05
15250.0 4.0938e-05
15270.0 4.0756e-05
15290.0 4.0576e-05
15310.0 4.0394e-05
15330.0 4.0211e-05
15350.0 4.003e-05
15370.0 3.9849e-05
15390.0 3.9666e-05
15410.0 3.9484e-05
15430.0 3.9303e-05
15450.0 3.9121e-05
15470.0 3.8938e-05
15490.0 3.8757e-05
15510.0 3.8577e-05
15530.0 3.8395e-05
15550.0 3.8214e-05
15570.0 3.8034e-05
15590.0 3.7853e-05
15610.0 3.7672e-05
15630.0 3.7492e-05
15650.0 3.7313e-05
15670.0 3.7133e-05
15690.0 3.6955e-05
15710.0 3.6777e-05
15730.0 3.6599e-05
15750.0 3.6421e-05
15770.0 3.6244e-05
15790.0 3.6068e-05
15810.0 3.5891e-05
15830.0 3.5716e-05
15850.0 3.5542e-05
15870.0 3.5367e-05
15890.0 3.5193e-05
15910.0 3.502e-05
15930.0 3.4848e-05
15950.0 3.4675e-05
15970.0 3.4504e-05
15990.0 3.4334e-05
16010.0 3.4163e-05
16030.0 3.3993e-05
16050.0 3.3826e-05
16070.0 3.3658e-05
16090.0 3.3491e-05
16110.0 3.3324e-05
16130.0 3.316e-05
16150.0 3.2994e-05
16170.0 3.2829e-05
16190.0 3.2667e-05
16210.0 3.2504e-05
16230.0 3.2342e-05
16250.0 3.2182e-05
16270.0 3.2022e-05
16290.0 3.1863e-05
16310.0 3.1704e-05
16330.0 3.1547e-05
16350.0 3.1391e-05
16370.0 3.1233e-05
16390.0 3.1079e-05
16410.0 3.0926e-05
16430.0 3.0772e-05
16450.0 3.062e-05
16470.0 3.0469e-05
16490.0 3.0318e-05
16510.0 3.0168e-05
16530.0 3.002e-05
16550.0 2.9873e-05
16570.0 2.9725e-05
16590.0 2.9579e-05
16610.0 2.9435e-05
16630.0 2.929e-05
16650.0 2.9147e-05
16670.0 2.9005e-05
16690.0 2.8864e-05
16710.0 2.8723e-05
16730.0 2.8583e-05
16750.0 2.8445e-05
16770.0 2.8308e-05
16790.0 2.817e-05
16810.0 2.8035e-05
16830.0 2.7901e-05
16850.0 2.7766e-05
16870.0 2.7634e-05
16890.0 2.7502e-05
16910.0 2.7371e-05
16930.0 2.724e-05
16950.0 2.7111e-05
16970.0 2.6983e-05
16990.0 2.6856e-05
17010.0 2.6729e-05
17030.0 2.6605e-05
17050.0 2.648e-05
17070.0 2.6356e-05
17090.0 2.6233e-05
17110.0 2.6112e-05
17130.0 2.599e-05
17150.0 2.587e-05
17170.0 2.5752e-05
17190.0 2.5634e-05
17210.0 2.5516e-05
17230.0 2.54e-05
17250.0 2.5285e-05
17270.0 2.517e-05
17290.0 2.5056e-05
17310.0 2.4944e-05
17330.0 2.4832e-05
17350.0 2.472e-05
17370.0 2.4611e-05
17390.0 2.4502e-05
17410.0 2.4393e-05
17430.0 2.4286e-05
17450.0 2.418e-05
17470.0 2.4073e-05
17490.0 2.3968e-05
17510.0 2.3865e-05
17530.0 2.3761e-05
17550.0 2.3659e-05
17570.0 2.3557e-05
17590.0 2.3457e-05
17610.0 2.3357e-05
17630.0 2.3258e-05
17650.0 2.316e-05
17670.0 2.3063e-05
17690.0 2.2965e-05
17710.0 2.287e-05
17730.0 2.2775e-05
17750.0 2.268e-05
17770.0 2.2587e-05
17790.0 2.2495e-05
17810.0 2.2403e-05
17830.0 2.2311e-05
17850.0 2.2221e-05
17870.0 2.2132e-05
17890.0 2.2043e-05
17910.0 2.1954e-05
17930.0 2.1868e-05
17950.0 2.1781e-05
17970.0 2.1695e-05
17990.0 2.161e-05
18010.0 2.1526e-05
18030.0 2.1442e-05
18050.0 2.1359e-05
18070.0 2.1277e-05
18090.0 2.1195e-05
18110.0 2.1114e-05
18130.0 2.1035e-05
18150.0 2.0955e-05
18170.0 2.0876e-05
18190.0 2.0798e-05
18210.0 2.0721e-05
18230.0 2.0644e-05
18250.0 2.0568e-05
18270.0 2.0493e-05
18290.0 2.0418e-05
18310.0 2.0344e-05
18330.0 2.027e-05
18350.0 2.0198e-05
18370.0 2.0126e-05
18390.0 2.0054e-05
18410.0 1.9983e-05
18430.0 1.9913e-05
18450.0 1.9842e-05
18470.0 1.9773e-05
18490.0 1.9706e-05
18510.0 1.9637e-05
18530.0 1.957e-05
18550.0 1.9504e-05
18570.0 1.9438e-05
18590.0 1.9371e-05
18610.0 1.9306e-05
18630.0 1.9242e-05
18650.0 1.9178e-05
18670.0 1.9114e-05
18690.0 1.9052e-05
18710.0 1.899e-05
18730.0 1.8928e-05
18750.0 1.8867e-05
18770.0 1.8807e-05
18790.0 1.8746e-05
18810.0 1.8686e-05
18830.0 1.8628e-05
18850.0 1.8569e-05
18870.0 1.851e-05
18890.0 1.8453e-05
18910.0 1.8397e-05
18930.0 1.834e-05
18950.0 1.8283e-05
18970.0 1.8228e-05
18990.0 1.8173e-05
19010.0 1.8118e-05
19030.0 1.8064e-05
19050.0 1.801e-05
19070.0 1.7957e-05
19090.0 1.7904e-05
19110.0 1.7852e-05
19130.0 1.78e-05
19150.0 1.7748e-05
19170.0 1.7697e-05
19190.0 1.7647e-05
19210.0 1.7596e-05
19230.0 1.7546e-05
19250.0 1.7498e-05
19270.0 1.7449e-05
19290.0 1.74e-05
19310.0 1.7352e-05
19330.0 1.7305e-05
19350.0 1.7257e-05
19370.0 1.721e-05
19390.0 1.7164e-05
19410.0 1.7118e-05
19430.0 1.7071e-05
19450.0 1.7027e-05
19470.0 1.6982e-05
19490.0 1.6937e-05
19510.0 1.6893e-05
19530.0 1.6849e-05
19550.0 1.6805e-05
19570.0 1.6762e-05
19590.0 1.6719e-05
19610.0 1.6677e-05
19630.0 1.6635e-05
19650.0 1.6593e-05
19670.0 1.6552e-05
19690.0 1.6511e-05
19710.0 1.647e-05
19730.0 1.6429e-05
19750.0 1.6389e-05
19770.0 1.6349e-05
19790.0 1.631e-05
19810.0 1.6271e-05
19830.0 1.6231e-05
19850.0 1.6191e-05
19870.0 1.6151e-05
19890.0 1.6108e-05
19910.0 1.6058e-05
19930.0 1.6001e-05
19950.0 1.5932e-05
19970.0 1.5841e-05
19990.0 1.5725e-05
20010.0 1.5588e-05
20030.0 1.5418e-05
20050.0 1.5218e-05
20070.0 1.5001e-05
20090.0 1.4768e-05
20110.0 1.4507e-05
20130.0 1.4245e-05
20150.0 1.3989e-05
20170.0 1.3726e-05
20190.0 1.3462e-05
20210.0 1.3214e-05
20230.0 1.2972e-05
20250.0 1.273e-05
20270.0 1.2503e-05
20290.0 1.2293e-05
20310.0 1.209e-05
20330.0 1.1896e-05
20350.0 1.1729e-05
20370.0 1.1574e-05
20390.0 1.1431e-05
20410.0 1.1308e-05
20430.0 1.1203e-05
20450.0 1.111e-05
20470.0 1.1034e-05
20490.0 1.0976e-05
20510.0 1.0932e-05
20530.0 1.0901e-05
20550.0 1.0885e-05
20570.0 1.0881e-05
20590.0 1.0887e-05
20610.0 1.0904e-05
20630.0 1.0927e-05
20650.0 1.0958e-05
20670.0 1.0995e-05
20690.0 1.1035e-05
20710.0 1.1075e-05
20730.0 1.1118e-05
20750.0 1.116e-05
20770.0 1.1198e-05
20790.0 1.1233e-05
20810.0 1.1265e-05
20830.0 1.129e-05
20850.0 1.1309e-05
20870.0 1.1321e-05
20890.0 1.1325e-05
20910.0 1.1321e-05
20930.0 1.131e-05
20950.0 1.1289e-05
20970.0 1.1261e-05
20990.0 1.1226e-05
21010.0 1.1182e-05
21030.0 1.1131e-05
21050.0 1.1075e-05
21070.0 1.1013e-05
21090.0 1.0944e-05
21110.0 1.0874e-05
21130.0 1.0803e-05
21150.0 1.0727e-05
21170.0 1.0651e-05
21190.0 1.0578e-05
21210.0 1.0503e-05
21230.0 1.0429e-05
21250.0 1.0362e-05
21270.0 1.0298e-05
21290.0 1.0237e-05
21310.0 1.0182e-05
21330.0 1.0134e-05
21350.0 1.0092e-05
21370.0 1.0055e-05
21390.0 1.0027e-05
21410.0 1.0005e-05
21430.0 9.9902e-06
21450.0 9.9828e-06
21470.0 9.9823e-06
21490.0 9.9885e-06
21510.0 1.0002e-05
21530.0 1.002e-05
21550.0 1.0045e-05
21570.0 1.0077e-05
21590.0 1.0113e-05
21610.0 1.0153e-05
21630.0 1.02e-05
21650.0 1.0253e-05
21670.0 1.0306e-05
21690.0 1.0363e-05
21710.0 1.0425e-05
21730.0 1.0489e-05
21750.0 1.0553e-05
21770.0 1.0623e-05
21790.0 1.0694e-05
21810.0 1.0763e-05
21830.0 1.0833e-05
21850.0 1.0905e-05
21870.0 1.0974e-05
21890.0 1.104e-05
21910.0 1.1107e-05
21930.0 1.1171e-05
21950.0 1.123e-05
21970.0 1.1287e-05
21990.0 1.1342e-05
22010.0 1.1389e-05
22030.0 1.1431e-05
22050.0 1.1469e-05
22070.0 1.15e-05
22090.0 1.1523e-05
22110.0 1.154e-05
22130.0 1.155e-05
22150.0 1.1551e-05
22170.0 1.1544e-05
22190.0 1.1529e-05
22210.0 1.1504e-05
22230.0 1.1472e-05
22250.0 1.1431e-05
22270.0 1.1379e-05
22290.0 1.1321e-05
22310.0 1.1256e-05
22330.0 1.1179e-05
22350.0 1.1096e-05
22370.0 1.1007e-05
22390.0 1.091e-05
22410.0 1.0804e-05
22430.0 1.0697e-05
22450.0 1.0585e-05
22470.0 1.0465e-05
22490.0 1.0343e-05
22510.0 1.0222e-05
22530.0 1.0094e-05
22550.0 9.9619e-06
22570.0 9.835e-06
22590.0 9.7083e-06
22610.0 9.5782e-06
22630.0 9.4516e-06
22650.0 9.3326e-06
