#lamb flux
1010.0 1.3789e-07
1030.0 1.5117e-07
1050.0 1.6644e-07
1070.0 1.8363e-07
1090.0 2.0315e-07
1110.0 2.2318e-07
1130.0 2.4333e-07
1150.0 2.6444e-07
1170.0 2.8622e-07
1190.0 3.0687e-07
1210.0 3.278e-07
1230.0 3.4943e-07
1250.0 3.7061e-07
1270.0 3.9119e-07
1290.0 4.1293e-07
1310.0 4.3466e-07
1330.0 4.5549e-07
1350.0 4.7656e-07
1370.0 4.9831e-07
1390.0 5.1951e-07
1410.0 5.4009e-07
1430.0 5.6159e-07
1450.0 5.831e-07
1470.0 6.0387e-07
1490.0 6.2487e-07
1510.0 6.4705e-07
1530.0 6.6806e-07
1550.0 6.8878e-07
1570.0 7.1021e-07
1590.0 7.3165e-07
1610.0 7.5213e-07
1630.0 7.7323e-07
1650.0 7.9487e-07
1670.0 8.1579e-07
1690.0 8.3643e-07
1710.0 8.5784e-07
1730.0 8.7934e-07
1750.0 8.9953e-07
1770.0 9.2028e-07
1790.0 9.4141e-07
1810.0 9.618e-07
1830.0 9.8178e-07
1850.0 1.0029e-06
1870.0 1.0235e-06
1890.0 1.0432e-06
1910.0 1.0632e-06
1930.0 1.0837e-06
1950.0 1.103e-06
1970.0 1.1219e-06
1990.0 1.1414e-06
2010.0 1.1604e-06
2030.0 1.1785e-06
2050.0 1.1969e-06
2070.0 1.2155e-06
2090.0 1.2327e-06
2110.0 1.2495e-06
2130.0 1.2666e-06
2150.0 1.2829e-06
2170.0 1.2979e-06
2190.0 1.3133e-06
2210.0 1.3282e-06
2230.0 1.3419e-06
2250.0 1.355e-06
2270.0 1.3684e-06
2290.0 1.3806e-06
2310.0 1.3915e-06
2330.0 1.4024e-06
2350.0 1.4132e-06
2370.0 1.4233e-06
2390.0 1.4343e-06
2410.0 1.4483e-06
2430.0 1.4652e-06
2450.0 1.4866e-06
2470.0 1.5165e-06
2490.0 1.5564e-06
2510.0 1.6028e-06
2530.0 1.6609e-06
2550.0 1.7372e-06
2570.0 1.8355e-06
2590.0 1.9665e-06
2610.0 2.1666e-06
2630.0 2.4509e-06
2650.0 2.8156e-06
2670.0 3.2771e-06
2690.0 3.8301e-06
2710.0 4.4008e-06
2730.0 4.9435e-06
2750.0 5.4576e-06
2770.0 5.8796e-06
2790.0 6.1876e-06
2810.0 6.4067e-06
2830.0 6.5529e-06
2850.0 6.6225e-06
2870.0 6.6491e-06
2890.0 6.6513e-06
2910.0 6.636e-06
2930.0 6.6093e-06
2950.0 6.5809e-06
2970.0 6.5525e-06
2990.0 6.5227e-06
3010.0 0.00020809
3030.0 0.00020724
3050.0 0.0002064
3070.0 0.00020544
3090.0 0.00020437
3110.0 0.00020299
3130.0 0.00020103
3150.0 0.00019831
3170.0 0.00019445
3190.0 0.00018951
3210.0 0.00018382
3230.0 0.00017761
3250.0 0.00017127
3270.0 0.00016651
3290.0 0.00016288
3310.0 0.00016204
3330.0 0.00016306
3350.0 0.0001659
3370.0 0.00017053
3390.0 0.00017672
3410.0 0.00018366
3430.0 0.00019161
3450.0 0.00020087
3470.0 0.00021111
3490.0 0.00022212
3510.0 0.00023468
3530.0 0.00024842
3550.0 0.00026317
3570.0 0.00027946
3590.0 0.00029767
3610.0 0.00031798
3630.0 0.00033817
3650.0 0.00035958
3670.0 0.00037887
3690.0 0.00039321
3710.0 0.00040038
3730.0 0.00039606
3750.0 0.00038056
3770.0 0.00038928
3790.0 0.00038031
3810.0 0.00029319
3830.0 0.00028166
3850.0 0.00041513
3870.0 0.00040062
3890.0 0.00030313
3910.0 0.00029467
3930.0 0.00037629
3950.0 0.00045028
3970.0 0.00051182
3990.0 0.00035208
4010.0 0.0006588
4030.0 0.00063554
4050.0 0.00067058
4070.0 0.00076042
4090.0 0.00072035
4110.0 0.0006353
4130.0 0.00078313
4150.0 0.00105
4170.0 0.00083106
4190.0 0.00073283
4210.0 0.00082661
4230.0 0.0010256
4250.0 0.0012264
4270.0 0.0013335
4290.0 0.0011843
4310.0 0.0010936
4330.0 0.0010823
4350.0 0.001388
4370.0 0.0016894
4390.0 0.0013405
4410.0 0.00074535
4430.0 0.00052625
4450.0 0.00049169
4470.0 0.00030326
4490.0 0.00053735
4510.0 0.0011589
4530.0 0.0014142
4550.0 0.0013328
4570.0 0.0011921
4590.0 0.0012754
4610.0 0.0025385
4630.0 0.003564
4650.0 0.0033589
4670.0 0.0029501
4690.0 0.0030338
4710.0 0.003176
4730.0 0.0025863
4750.0 0.0016636
4770.0 0.00114
4790.0 0.0012762
4810.0 0.0013459
4830.0 0.0013342
4850.0 0.0014499
4870.0 0.001921
4890.0 0.0022258
4910.0 0.0017206
4930.0 0.0016723
4950.0 0.0019304
4970.0 0.0025795
4990.0 0.0034807
5010.0 0.0040176
5030.0 0.0031934
5050.0 0.0019388
5070.0 0.0013824
5090.0 0.0010525
5110.0 0.00098148
5130.0 0.0011782
5150.0 0.0011331
5170.0 0.0010623
5190.0 0.00094308
5210.0 0.0010503
5230.0 0.0013182
5250.0 0.0015442
5270.0 0.00142
5290.0 0.0015329
5310.0 0.0020737
5330.0 0.0022138
5350.0 0.0021801
5370.0 0.0024629
5390.0 0.0030803
5410.0 0.0026171
5430.0 0.0019849
5450.0 0.0020124
5470.0 0.0023588
5490.0 0.0029657
5510.0 0.0036147
5530.0 0.0041928
5550.0 0.0037711
5570.0 0.0033747
5590.0 0.0027636
5610.0 0.0028211
5630.0 0.0031907
5650.0 0.0029453
5670.0 0.0027088
5690.0 0.002178
5710.0 0.0022453
5730.0 0.0021903
5750.0 0.0011649
5770.0 0.00083106
5790.0 0.0010394
5810.0 0.0010971
5830.0 0.0017333
5850.0 0.0022709
5870.0 0.0024274
5890.0 0.0022999
5910.0 0.0022329
5930.0 0.0021558
5950.0 0.0022295
5970.0 0.0027797
5990.0 0.0022662
6010.0 0.001732
6030.0 0.001407
6050.0 0.0012571
6070.0 0.0015194
6090.0 0.0017186
6110.0 0.0017427
6130.0 0.0015894
6150.0 0.0012436
6170.0 0.00096972
6190.0 0.0012005
6210.0 0.0019206
6230.0 0.0028412
6250.0 0.003047
6270.0 0.0023097
6290.0 0.0019785
6310.0 0.0015075
6330.0 0.0010956
6350.0 0.0010841
6370.0 0.0011386
6390.0 0.00137
6410.0 0.0017734
6430.0 0.00214
6450.0 0.002642
6470.0 0.0027836
6490.0 0.0033402
6510.0 0.0037495
6530.0 0.0038204
6550.0 0.0035211
6570.0 0.0028384
6590.0 0.0027261
6610.0 0.0022537
6630.0 0.0023596
6650.0 0.002289
6670.0 0.0019982
6690.0 0.0015454
6710.0 0.0015139
6730.0 0.00065319
6750.0 0.0008879
6770.0 0.0014171
6790.0 0.0018932
6810.0 0.0013387
6830.0 0.0013667
6850.0 0.0011344
6870.0 0.0010691
6890.0 0.00089692
6910.0 0.0010907
6930.0 0.0010256
6950.0 0.001241
6970.0 0.0012806
6990.0 0.0014178
7010.0 0.0013755
7030.0 0.0015724
7050.0 0.0013518
7070.0 0.0011211
7090.0 0.001201
7110.0 0.001266
7130.0 0.0014594
7150.0 0.0016654
7170.0 0.0018654
7190.0 0.0019741
7210.0 0.0017403
7230.0 0.0017584
7250.0 0.0018934
7270.0 0.0020438
7290.0 0.0025108
7310.0 0.0026259
7330.0 0.00243
7350.0 0.0021709
7370.0 0.0015851
7390.0 0.0016551
7410.0 0.0020622
7430.0 0.0023521
7450.0 0.0025301
7470.0 0.002313
7490.0 0.0018662
7510.0 0.0030891
7530.0 0.002779
7550.0 0.0026121
7570.0 0.0017486
7590.0 0.00073743
7610.0 0.00050547
7630.0 0.00079878
7650.0 0.0010889
7670.0 0.0017731
7690.0 0.0019845
7710.0 0.0017684
7730.0 0.0017376
7750.0 0.002309
7770.0 0.0023713
7790.0 0.0021729
7810.0 0.0017456
7830.0 0.0018932
7850.0 0.0020909
7870.0 0.0020558
7890.0 0.0016016
7910.0 0.0010559
7930.0 0.001096
7950.0 0.00098743
7970.0 0.00082519
7990.0 0.00073814
8010.0 0.00050197
8030.0 0.00046409
8050.0 0.00050001
8070.0 0.00055535
8090.0 0.00066724
8110.0 0.00062486
8130.0 0.00038399
8150.0 0.00039209
8170.0 0.00023215
8190.0 0.00015205
8210.0 0.00035024
8230.0 0.00041854
8250.0 0.0001809
8270.0 0.00014497
8290.0 0.00025123
8310.0 0.00021569
8330.0 0.000132
8350.0 0.00010614
8370.0 3.0091e-05
8390.0 0.00011431
8410.0 0.00013389
8430.0 0.00016671
8450.0 0.00018725
8470.0 0.00030568
8490.0 0.00025036
8510.0 0.00019521
8530.0 0.00010236
8550.0 0.00033829
8570.0 0.00052465
8590.0 0.00037304
8610.0 0.00055399
8630.0 0.00060236
8650.0 0.00033383
8670.0 0.0004818
8690.0 0.0007389
8710.0 0.00063756
8730.0 0.00068513
8750.0 0.00054231
8770.0 0.00048414
8790.0 0.00053636
8810.0 0.0005788
8830.0 0.00032702
8850.0 0.00014956
8870.0 0.0001084
8890.0 0.00025286
8910.0 0.00039371
8930.0 0.00051611
8950.0 0.00058012
8970.0 0.00056046
8990.0 0.00042681
9010.0 0.0003373
9030.0 0.00025811
9050.0 0.0002691
9070.0 0.00028016
9090.0 0.00028907
9110.0 0.00029972
9130.0 0.00030741
9150.0 0.00031293
9170.0 0.0003188
9190.0 0.00032509
9210.0 0.00033168
9230.0 0.00033866
9250.0 0.00034571
9270.0 0.000353
9290.0 0.00036048
9310.0 0.00036796
9330.0 0.00037555
9350.0 0.00038339
9370.0 0.00039128
9390.0 0.0003992
9410.0 0.00040733
9430.0 0.00041568
9450.0 0.00042396
9470.0 0.00043238
9490.0 0.00044103
9510.0 0.00044974
9530.0 0.00045847
9550.0 0.0004675
9570.0 0.00047666
9590.0 0.00048581
9610.0 0.00049511
9630.0 0.00050466
9650.0 0.00051426
9670.0 0.00052385
9690.0 0.0005337
9710.0 0.00054369
9730.0 0.00055369
9750.0 0.00056382
9770.0 0.00057427
9790.0 0.00058466
9810.0 0.0005951
9830.0 0.00060577
9850.0 0.00061657
9870.0 0.00062731
9890.0 0.00063822
9910.0 0.00064934
9930.0 0.00066045
9950.0 0.00067159
9970.0 0.00068297
9990.0 0.00069445
10010.0 0.0006255
10030.0 0.00063562
10050.0 0.00064586
10070.0 0.00065599
10090.0 0.00066623
10110.0 0.0006767
10130.0 0.00068715
10150.0 0.00069752
10170.0 0.00070797
10190.0 0.00071856
10210.0 0.00072902
10230.0 0.00073944
10250.0 0.00075
10270.0 0.00076053
10290.0 0.00077094
10310.0 0.00078144
10330.0 0.00079203
10350.0 0.00080243
10370.0 0.00081279
10390.0 0.00082323
10410.0 0.00083361
10430.0 0.00084377
10450.0 0.000854
10470.0 0.00086423
10490.0 0.00087426
10510.0 0.0008842
10530.0 0.00089425
10550.0 0.00090412
10570.0 0.00091376
10590.0 0.0009234
10610.0 0.00093299
10630.0 0.00094232
10650.0 0.00095154
10670.0 0.00096079
10690.0 0.00096982
10710.0 0.00097862
10730.0 0.00098739
10750.0 0.0009961
10770.0 0.0010044
10790.0 0.0010126
10810.0 0.0010208
10830.0 0.0010286
10850.0 0.0010361
10870.0 0.0010433
10890.0 0.0010498
10910.0 0.0010551
10930.0 0.0010588
10950.0 0.00106
10970.0 0.0010578
10990.0 0.0010519
11010.0 0.001067
11030.0 0.0010509
11050.0 0.0010307
11070.0 0.0010062
11090.0 0.00097641
11110.0 0.0009455
11130.0 0.00091324
11150.0 0.00087857
11170.0 0.00084297
11190.0 0.0008086
11210.0 0.00077332
11230.0 0.00073741
11250.0 0.00070332
11270.0 0.00067076
11290.0 0.00063835
11310.0 0.00060779
11330.0 0.00058087
11350.0 0.00055545
11370.0 0.00053189
11390.0 0.00051133
11410.0 0.00049311
11430.0 0.00047596
11450.0 0.00046083
11470.0 0.0004474
11490.0 0.00043463
11510.0 0.00042209
11530.0 0.00041025
11550.0 0.0003984
11570.0 0.00038584
11590.0 0.00037292
11610.0 0.00035988
11630.0 0.00034591
11650.0 0.00033115
11670.0 0.00031673
11690.0 0.00030222
11710.0 0.00028739
11730.0 0.00027307
11750.0 0.0002598
11770.0 0.0002468
11790.0 0.00023457
11810.0 0.00022369
11830.0 0.00021384
11850.0 0.00020467
11870.0 0.0001968
11890.0 0.00019006
11910.0 0.00018398
11930.0 0.00017857
11950.0 0.00017388
11970.0 0.00016956
11990.0 0.00016541
12010.0 0.0001615
12030.0 0.00015771
12050.0 0.00015383
12070.0 0.00014985
12090.0 0.000146
12110.0 0.0001421
12130.0 0.00013816
12150.0 0.00013443
12170.0 0.000131
12190.0 0.00012778
12210.0 0.00012506
12230.0 0.00012297
12250.0 0.00012152
12270.0 0.00012083
12290.0 0.00012094
12310.0 0.00012181
12330.0 0.00012357
12350.0 0.00012615
12370.0 0.00012932
12390.0 0.00013318
12410.0 0.00013789
12430.0 0.00014275
12450.0 0.00014782
12470.0 0.00015327
12490.0 0.00015874
12510.0 0.00016381
12530.0 0.00016884
12550.0 0.00017366
12570.0 0.0001778
12590.0 0.00018133
12610.0 0.0001844
12630.0 0.00018669
12650.0 0.00018804
12670.0 0.0001887
12690.0 0.00018855
12710.0 0.00018757
12730.0 0.00018587
12750.0 0.00018338
12770.0 0.00018022
12790.0 0.00017654
12810.0 0.00017231
12830.0 0.00016753
12850.0 0.00016259
12870.0 0.00015744
12890.0 0.00015194
12910.0 0.0001464
12930.0 0.00014096
12950.0 0.00013533
12970.0 0.00012965
12990.0 0.00012426
13010.0 0.00011896
13030.0 0.00011361
13050.0 0.00010845
13070.0 0.0001036
13090.0 9.8724e-05
13110.0 9.3981e-05
13130.0 8.9565e-05
13150.0 8.5348e-05
13170.0 8.1188e-05
13190.0 7.7424e-05
13210.0 7.4048e-05
13230.0 7.0902e-05
13250.0 6.8109e-05
13270.0 6.5797e-05
13290.0 6.3869e-05
13310.0 6.2352e-05
13330.0 6.1357e-05
13350.0 6.0849e-05
13370.0 6.0837e-05
13390.0 6.136e-05
13410.0 6.23e-05
13430.0 6.3694e-05
13450.0 6.5556e-05
13470.0 6.7722e-05
13490.0 7.0092e-05
13510.0 7.2858e-05
13530.0 7.5733e-05
13550.0 7.8538e-05
13570.0 8.1365e-05
13590.0 8.4183e-05
13610.0 8.6736e-05
13630.0 8.9005e-05
13650.0 9.1128e-05
13670.0 9.293e-05
13690.0 9.4354e-05
13710.0 9.5492e-05
13730.0 9.6351e-05
13750.0 9.682e-05
13770.0 9.6994e-05
13790.0 9.6895e-05
13810.0 9.6516e-05
13830.0 9.5904e-05
13850.0 9.5055e-05
13870.0 9.3972e-05
13890.0 9.2722e-05
13910.0 9.1314e-05
13930.0 8.9694e-05
13950.0 8.7935e-05
13970.0 8.6145e-05
13990.0 8.4213e-05
14010.0 8.2176e-05
14030.0 8.0157e-05
14050.0 7.8135e-05
14070.0 7.6016e-05
14090.0 7.3994e-05
14110.0 7.2097e-05
14130.0 7.0262e-05
14150.0 6.8532e-05
14170.0 6.7047e-05
14190.0 6.5751e-05
14210.0 6.4636e-05
14230.0 6.3787e-05
14250.0 6.3208e-05
14270.0 6.288e-05
14290.0 6.2842e-05
14310.0 6.3079e-05
14330.0 6.3575e-05
14350.0 6.4353e-05
14370.0 6.5358e-05
14390.0 6.6531e-05
14410.0 6.7945e-05
14430.0 6.9532e-05
14450.0 7.1191e-05
14470.0 7.2951e-05
14490.0 7.4865e-05
14510.0 7.6744e-05
14530.0 7.8575e-05
14550.0 8.0453e-05
14570.0 8.2309e-05
14590.0 8.4049e-05
14610.0 8.578e-05
14630.0 8.7538e-05
14650.0 8.9219e-05
14670.0 9.0874e-05
14690.0 9.2616e-05
14710.0 9.4452e-05
14730.0 9.6287e-05
14750.0 9.8297e-05
14770.0 0.00010054
14790.0 0.00010294
14810.0 0.0001055
14830.0 0.00010848
14850.0 0.00011168
14870.0 0.00011498
14890.0 0.0001185
14910.0 0.0001222
14930.0 0.00012576
14950.0 0.00012908
14970.0 0.00013223
14990.0 0.00013489
15010.0 0.00013697
15030.0 0.00013856
15050.0 0.00013969
15070.0 0.00014034
15090.0 0.00014071
15110.0 0.00014087
15130.0 0.00014091
15150.0 0.00014089
15170.0 0.00014084
15190.0 0.00014076
15210.0 0.00014069
15230.0 0.00014062
15250.0 0.00014054
15270.0 0.00014047
15290.0 0.00014041
15310.0 0.00014035
15330.0 0.00014029
15350.0 0.00014024
15370.0 0.00014019
15390.0 0.00014013
15410.0 0.00014007
15430.0 0.00014003
15450.0 0.00013999
15470.0 0.00013993
15490.0 0.0001399
15510.0 0.00013986
15530.0 0.00013981
15550.0 0.00013977
15570.0 0.00013974
15590.0 0.0001397
15610.0 0.00013965
15630.0 0.00013962
15650.0 0.00013959
15670.0 0.00013955
15690.0 0.00013951
15710.0 0.00013949
15730.0 0.00013944
15750.0 0.0001394
15770.0 0.00013937
15790.0 0.00013933
15810.0 0.00013928
15830.0 0.00013924
15850.0 0.00013921
15870.0 0.00013916
15890.0 0.00013911
15910.0 0.00013908
15930.0 0.00013903
15950.0 0.00013897
15970.0 0.00013892
15990.0 0.00013888
16010.0 0.00013882
16030.0 0.00013875
16050.0 0.0001387
16070.0 0.00013865
16090.0 0.00013857
16110.0 0.00013851
16130.0 0.00013845
16150.0 0.00013837
16170.0 0.00013829
16190.0 0.00013822
16210.0 0.00013814
16230.0 0.00013805
16250.0 0.00013796
16270.0 0.00013788
16290.0 0.00013778
16310.0 0.00013768
16330.0 0.00013759
16350.0 0.00013748
16370.0 0.00013736
16390.0 0.00013725
16410.0 0.00013714
16430.0 0.00013702
16450.0 0.00013689
16470.0 0.00013678
16490.0 0.00013664
16510.0 0.0001365
16530.0 0.00013636
16550.0 0.00013622
16570.0 0.00013606
16590.0 0.0001359
16610.0 0.00013576
16630.0 0.00013559
16650.0 0.00013542
16670.0 0.00013526
16690.0 0.00013509
16710.0 0.00013489
16730.0 0.00013471
16750.0 0.00013452
16770.0 0.00013433
16790.0 0.00013412
16810.0 0.00013392
16830.0 0.00013372
16850.0 0.0001335
16870.0 0.00013328
16890.0 0.00013307
16910.0 0.00013283
16930.0 0.00013259
16950.0 0.00013236
16970.0 0.00013212
16990.0 0.00013186
17010.0 0.00013161
17030.0 0.00013136
17050.0 0.0001311
17070.0 0.00013082
17090.0 0.00013056
17110.0 0.00013028
17130.0 0.00012999
17150.0 0.0001297
17170.0 0.00012942
17190.0 0.00012912
17210.0 0.00012882
17230.0 0.00012852
17250.0 0.00012821
17270.0 0.00012789
17290.0 0.00012757
17310.0 0.00012725
17330.0 0.00012692
17350.0 0.00012658
17370.0 0.00012625
17390.0 0.00012591
17410.0 0.00012556
17430.0 0.00012521
17450.0 0.00012487
17470.0 0.00012449
17490.0 0.00012412
17510.0 0.00012376
17530.0 0.00012339
17550.0 0.00012301
17570.0 0.00012263
17590.0 0.00012226
17610.0 0.00012186
17630.0 0.00012147
17650.0 0.00012108
17670.0 0.00012068
17690.0 0.00012026
17710.0 0.00011986
17730.0 0.00011945
17750.0 0.00011903
17770.0 0.00011861
17790.0 0.0001182
17810.0 0.00011777
17830.0 0.00011733
17850.0 0.00011691
17870.0 0.00011648
17890.0 0.00011603
17910.0 0.00011558
17930.0 0.00011515
17950.0 0.0001147
17970.0 0.00011424
17990.0 0.0001138
18010.0 0.00011335
18030.0 0.00011287
18050.0 0.00011241
18070.0 0.00011196
18090.0 0.00011148
18110.0 0.00011101
18130.0 0.00011054
18150.0 0.00011008
18170.0 0.00010959
18190.0 0.00010911
18210.0 0.00010864
18230.0 0.00010815
18250.0 0.00010765
18270.0 0.00010718
18290.0 0.00010669
18310.0 0.00010619
18330.0 0.0001057
18350.0 0.00010522
18370.0 0.00010472
18390.0 0.00010421
18410.0 0.00010372
18430.0 0.00010322
18450.0 0.00010271
18470.0 0.00010221
18490.0 0.00010171
18510.0 0.0001012
18530.0 0.00010069
18550.0 0.00010019
18570.0 9.9685e-05
18590.0 9.9163e-05
18610.0 9.8655e-05
18630.0 9.8151e-05
18650.0 9.7631e-05
18670.0 9.711e-05
18690.0 9.661e-05
18710.0 9.6096e-05
18730.0 9.5574e-05
18750.0 9.5063e-05
18770.0 9.4557e-05
18790.0 9.4026e-05
18810.0 9.3505e-05
18830.0 9.2998e-05
18850.0 9.248e-05
18870.0 9.1954e-05
18890.0 9.1443e-05
18910.0 9.0934e-05
18930.0 9.0408e-05
18950.0 8.9888e-05
18970.0 8.938e-05
18990.0 8.8861e-05
19010.0 8.8327e-05
19030.0 8.782e-05
19050.0 8.7309e-05
19070.0 8.6786e-05
19090.0 8.6269e-05
19110.0 8.5767e-05
19130.0 8.5245e-05
19150.0 8.4722e-05
19170.0 8.4213e-05
19190.0 8.3704e-05
19210.0 8.318e-05
19230.0 8.2664e-05
19250.0 8.2165e-05
19270.0 8.1651e-05
19290.0 8.1135e-05
19310.0 8.0633e-05
19330.0 8.013e-05
19350.0 7.9606e-05
19370.0 7.91e-05
19390.0 7.8602e-05
19410.0 7.8092e-05
19430.0 7.758e-05
19450.0 7.7087e-05
19470.0 7.6588e-05
19490.0 7.6079e-05
19510.0 7.558e-05
19530.0 7.509e-05
19550.0 7.4584e-05
19570.0 7.4077e-05
19590.0 7.3591e-05
19610.0 7.3099e-05
19630.0 7.2598e-05
19650.0 7.2109e-05
19670.0 7.1629e-05
19690.0 7.1131e-05
19710.0 7.0638e-05
19730.0 7.0159e-05
19750.0 6.9675e-05
19770.0 6.9177e-05
19790.0 6.8698e-05
19810.0 6.8225e-05
19830.0 6.7738e-05
19850.0 6.7252e-05
19870.0 6.6776e-05
19890.0 6.6277e-05
19910.0 6.5744e-05
19930.0 6.5192e-05
19950.0 6.4587e-05
19970.0 6.3882e-05
19990.0 6.3072e-05
20010.0 5.9107e-05
20030.0 5.8117e-05
20050.0 5.6991e-05
20070.0 5.5796e-05
20090.0 5.4532e-05
20110.0 5.3129e-05
20130.0 5.1726e-05
20150.0 5.0349e-05
20170.0 4.8936e-05
20190.0 4.7516e-05
20210.0 4.6181e-05
20230.0 4.4885e-05
20250.0 4.3592e-05
20270.0 4.2393e-05
20290.0 4.1294e-05
20310.0 4.0248e-05
20330.0 3.9265e-05
20350.0 3.8437e-05
20370.0 3.7691e-05
20390.0 3.7026e-05
20410.0 3.6472e-05
20430.0 3.6026e-05
20450.0 3.5655e-05
20470.0 3.538e-05
20490.0 3.5199e-05
20510.0 3.5096e-05
20530.0 3.507e-05
20550.0 3.5115e-05
20570.0 3.5217e-05
20590.0 3.5381e-05
20610.0 3.5599e-05
20630.0 3.5851e-05
20650.0 3.6144e-05
20670.0 3.6492e-05
20690.0 3.6851e-05
20710.0 3.7226e-05
20730.0 3.7635e-05
20750.0 3.8063e-05
20770.0 3.848e-05
20790.0 3.8917e-05
20810.0 3.9376e-05
20830.0 3.9827e-05
20850.0 4.0272e-05
20870.0 4.0746e-05
20890.0 4.1222e-05
20910.0 4.1672e-05
20930.0 4.2135e-05
20950.0 4.261e-05
20970.0 4.3067e-05
20990.0 4.3514e-05
21010.0 4.3982e-05
21030.0 4.4436e-05
21050.0 4.4865e-05
21070.0 4.5292e-05
21090.0 4.5722e-05
21110.0 4.6109e-05
21130.0 4.6472e-05
21150.0 4.6826e-05
21170.0 4.7147e-05
21190.0 4.7422e-05
21210.0 4.7673e-05
21230.0 4.7887e-05
21250.0 4.8041e-05
21270.0 4.8142e-05
21290.0 4.819e-05
21310.0 4.8171e-05
21330.0 4.8082e-05
21350.0 4.7921e-05
21370.0 4.7677e-05
21390.0 4.7358e-05
21410.0 4.6961e-05
21430.0 4.6456e-05
21450.0 4.5878e-05
21470.0 4.524e-05
21490.0 4.4513e-05
21510.0 4.3708e-05
21530.0 4.2879e-05
21550.0 4.2003e-05
21570.0 4.1062e-05
21590.0 4.0124e-05
21610.0 3.9207e-05
21630.0 3.828e-05
21650.0 3.7361e-05
21670.0 3.6548e-05
21690.0 3.5783e-05
21710.0 3.5076e-05
21730.0 3.4473e-05
21750.0 3.398e-05
21770.0 3.3568e-05
21790.0 3.3277e-05
21810.0 3.3106e-05
21830.0 3.3044e-05
21850.0 3.31e-05
21870.0 3.3262e-05
21890.0 3.3513e-05
21910.0 3.387e-05
21930.0 3.4314e-05
21950.0 3.4814e-05
21970.0 3.5385e-05
21990.0 3.6045e-05
22010.0 3.6717e-05
22030.0 3.7411e-05
22050.0 3.8154e-05
22070.0 3.8914e-05
22090.0 3.9642e-05
22110.0 4.0387e-05
22130.0 4.1143e-05
22150.0 4.1856e-05
22170.0 4.2537e-05
22190.0 4.3221e-05
22210.0 4.3864e-05
22230.0 4.4434e-05
22250.0 4.4976e-05
22270.0 4.5479e-05
22290.0 4.5911e-05
22310.0 4.6283e-05
22330.0 4.6614e-05
22350.0 4.687e-05
22370.0 4.7051e-05
22390.0 4.7166e-05
22410.0 4.7206e-05
22430.0 4.7164e-05
22450.0 4.7045e-05
22470.0 4.684e-05
22490.0 4.6552e-05
22510.0 4.619e-05
22530.0 4.5731e-05
22550.0 4.5173e-05
22570.0 4.4552e-05
22590.0 4.3853e-05
22610.0 4.3051e-05
22630.0 4.2182e-05
22650.0 4.1282e-05
22670.0 4.0287e-05
22690.0 3.9224e-05
22710.0 3.8149e-05
22730.0 3.7039e-05
22750.0 3.5834e-05
22770.0 3.4654e-05
22790.0 3.3498e-05
22810.0 3.2309e-05
22830.0 3.1122e-05
