#lamb flux
1010.0 3.5642e-10
1030.0 4.4792e-10
1050.0 5.5283e-10
1070.0 6.7057e-10
1090.0 8.0384e-10
1110.0 9.3987e-10
1130.0 1.076e-09
1150.0 1.218e-09
1170.0 1.3637e-09
1190.0 1.5009e-09
1210.0 1.6393e-09
1230.0 1.782e-09
1250.0 1.9213e-09
1270.0 2.0565e-09
1290.0 2.1997e-09
1310.0 2.3434e-09
1330.0 2.4818e-09
1350.0 2.6229e-09
1370.0 2.7699e-09
1390.0 2.9148e-09
1410.0 3.0571e-09
1430.0 3.2074e-09
1450.0 3.3593e-09
1470.0 3.508e-09
1490.0 3.6595e-09
1510.0 3.8204e-09
1530.0 3.9743e-09
1550.0 4.127e-09
1570.0 4.2851e-09
1590.0 4.4436e-09
1610.0 4.5958e-09
1630.0 4.7522e-09
1650.0 4.9123e-09
1670.0 5.0673e-09
1690.0 5.2201e-09
1710.0 5.3781e-09
1730.0 5.5367e-09
1750.0 5.6859e-09
1770.0 5.8389e-09
1790.0 5.9947e-09
1810.0 6.1454e-09
1830.0 6.2934e-09
1850.0 6.4482e-09
1870.0 6.5975e-09
1890.0 6.7423e-09
1910.0 6.8906e-09
1930.0 7.043e-09
1950.0 7.1893e-09
1970.0 7.3346e-09
1990.0 7.4859e-09
2010.0 7.6353e-09
2030.0 7.78e-09
2050.0 7.9298e-09
2070.0 8.0843e-09
2090.0 8.231e-09
2110.0 8.3783e-09
2130.0 8.5307e-09
2150.0 8.6812e-09
2170.0 8.8264e-09
2190.0 8.9779e-09
2210.0 9.13e-09
2230.0 9.2756e-09
2250.0 9.4215e-09
2270.0 9.5748e-09
2290.0 9.7246e-09
2310.0 9.8696e-09
2330.0 1.002e-08
2350.0 1.0173e-08
2370.0 1.032e-08
2390.0 1.047e-08
2410.0 1.0628e-08
2430.0 1.0783e-08
2450.0 1.0942e-08
2470.0 1.1118e-08
2490.0 1.1324e-08
2510.0 1.1562e-08
2530.0 1.1871e-08
2550.0 1.23e-08
2570.0 1.2877e-08
2590.0 1.3641e-08
2610.0 1.4733e-08
2630.0 1.6181e-08
2650.0 1.7951e-08
2670.0 2.0137e-08
2690.0 2.2781e-08
2710.0 2.5679e-08
2730.0 2.8726e-08
2750.0 3.2023e-08
2770.0 3.5295e-08
2790.0 3.8338e-08
2810.0 4.1199e-08
2830.0 4.3878e-08
2850.0 4.6131e-08
2870.0 4.8128e-08
2890.0 4.9989e-08
2910.0 5.1729e-08
2930.0 5.3383e-08
2950.0 5.5082e-08
2970.0 5.6849e-08
2990.0 5.8655e-08
3010.0 6.0536e-08
3030.0 6.2544e-08
3050.0 6.4648e-08
3070.0 6.6789e-08
3090.0 6.9058e-08
3110.0 7.147e-08
3130.0 7.4059e-08
3150.0 7.7011e-08
3170.0 8.0769e-08
3190.0 8.5661e-08
3210.0 9.2059e-08
3230.0 1.0056e-07
3250.0 1.1134e-07
3270.0 1.2156e-07
3290.0 1.3783e-07
3310.0 1.7129e-07
3330.0 1.824e-07
3350.0 1.8784e-07
3370.0 1.9308e-07
3390.0 1.984e-07
3410.0 2.0379e-07
3430.0 2.0923e-07
3450.0 2.1466e-07
3470.0 2.2e-07
3490.0 2.2515e-07
3510.0 2.2985e-07
3530.0 2.2783e-07
3550.0 2.2153e-07
3570.0 2.2474e-07
3590.0 2.3879e-07
3610.0 2.602e-07
3630.0 2.6857e-07
3650.0 2.579e-07
3670.0 2.3693e-07
3690.0 2.2482e-07
3710.0 2.2774e-07
3730.0 2.3523e-07
3750.0 2.3925e-07
3770.0 2.4731e-07
3790.0 2.5631e-07
3810.0 2.5262e-07
3830.0 2.3544e-07
3850.0 2.2011e-07
3870.0 2.1284e-07
3890.0 2.1035e-07
3910.0 2.0559e-07
3930.0 2.0321e-07
3950.0 2.0892e-07
3970.0 2.156e-07
3990.0 2.1757e-07
4010.0 2.0955e-07
4030.0 1.9814e-07
4050.0 1.9083e-07
4070.0 1.8463e-07
4090.0 1.796e-07
4110.0 1.7301e-07
4130.0 1.6266e-07
4150.0 1.5225e-07
4170.0 1.4608e-07
4190.0 1.362e-07
4210.0 1.233e-07
4230.0 1.1025e-07
4250.0 9.7865e-08
4270.0 8.8631e-08
4290.0 8.1775e-08
4310.0 7.8151e-08
4330.0 7.8024e-08
4350.0 7.8364e-08
4370.0 7.9114e-08
4390.0 8.201e-08
4410.0 8.4014e-08
4430.0 8.1075e-08
4450.0 7.3623e-08
4470.0 6.7124e-08
4490.0 6.3578e-08
4510.0 6.1307e-08
4530.0 6.0175e-08
4550.0 5.9207e-08
4570.0 5.896e-08
4590.0 5.9769e-08
4610.0 6.163e-08
4630.0 6.274e-08
4650.0 6.3298e-08
4670.0 6.1759e-08
4690.0 5.8097e-08
4710.0 5.4442e-08
4730.0 5.2085e-08
4750.0 5.0635e-08
4770.0 5.0809e-08
4790.0 5.0612e-08
4810.0 4.9526e-08
4830.0 4.9612e-08
4850.0 5.1165e-08
4870.0 5.1671e-08
4890.0 5.0739e-08
4910.0 4.9574e-08
4930.0 4.6754e-08
4950.0 4.2669e-08
4970.0 3.9883e-08
4990.0 3.7597e-08
5010.0 3.7105e-08
5030.0 3.8355e-08
5050.0 3.934e-08
5070.0 4.081e-08
5090.0 4.3277e-08
5110.0 4.3938e-08
5130.0 4.432e-08
5150.0 4.514e-08
5170.0 4.5514e-08
5190.0 4.6709e-08
5210.0 4.6953e-08
5230.0 4.6467e-08
5250.0 4.6847e-08
5270.0 4.7503e-08
5290.0 4.7633e-08
5310.0 4.7276e-08
5330.0 4.638e-08
5350.0 4.5742e-08
5370.0 4.5257e-08
5390.0 4.466e-08
5410.0 4.4163e-08
5430.0 4.4152e-08
5450.0 4.4794e-08
5470.0 4.5626e-08
5490.0 4.6902e-08
5510.0 4.8325e-08
5530.0 4.892e-08
5550.0 4.9654e-08
5570.0 4.9749e-08
5590.0 4.8702e-08
5610.0 4.8347e-08
5630.0 4.8718e-08
5650.0 4.8126e-08
5670.0 4.706e-08
5690.0 4.5643e-08
5710.0 4.5534e-08
5730.0 4.6009e-08
5750.0 4.4046e-08
5770.0 4.1788e-08
5790.0 3.8398e-08
5810.0 3.3571e-08
5830.0 3.6202e-08
5850.0 4.0105e-08
5870.0 4.0986e-08
5890.0 4.1207e-08
5910.0 4.1531e-08
5930.0 4.1448e-08
5950.0 4.0756e-08
5970.0 4.0268e-08
5990.0 3.968e-08
6010.0 3.8473e-08
6030.0 3.7151e-08
6050.0 3.6571e-08
6070.0 3.6417e-08
6090.0 3.5857e-08
6110.0 3.4657e-08
6130.0 3.3482e-08
6150.0 3.2136e-08
6170.0 3.0788e-08
6190.0 2.9425e-08
6210.0 2.8383e-08
6230.0 2.7965e-08
6250.0 2.7372e-08
6270.0 2.68e-08
6290.0 2.6584e-08
6310.0 2.6402e-08
6330.0 2.582e-08
6350.0 2.4981e-08
6370.0 2.4499e-08
6390.0 2.4026e-08
6410.0 2.3351e-08
6430.0 2.2722e-08
6450.0 2.2219e-08
6470.0 2.1739e-08
6490.0 2.1406e-08
6510.0 2.1044e-08
6530.0 2.0507e-08
6550.0 2.0053e-08
6570.0 1.9748e-08
6590.0 1.971e-08
6610.0 1.9585e-08
6630.0 1.8928e-08
6650.0 1.8397e-08
6670.0 1.8209e-08
6690.0 1.7924e-08
6710.0 1.7495e-08
6730.0 1.7343e-08
6750.0 1.7477e-08
6770.0 1.8524e-08
6790.0 2.0727e-08
6810.0 1.9678e-08
6830.0 1.7266e-08
6850.0 1.6589e-08
6870.0 1.6335e-08
6890.0 1.6338e-08
6910.0 1.6373e-08
6930.0 1.6413e-08
6950.0 1.6358e-08
6970.0 1.5943e-08
6990.0 1.5799e-08
7010.0 1.6035e-08
7030.0 1.6107e-08
7050.0 1.5873e-08
7070.0 1.5722e-08
7090.0 1.5833e-08
7110.0 1.6201e-08
7130.0 1.6254e-08
7150.0 1.6312e-08
7170.0 1.6399e-08
7190.0 1.6628e-08
7210.0 1.6803e-08
7230.0 1.6976e-08
7250.0 1.7203e-08
7270.0 1.7364e-08
7290.0 1.7634e-08
7310.0 1.7966e-08
7330.0 1.7828e-08
7350.0 1.7456e-08
7370.0 1.7212e-08
7390.0 1.7162e-08
7410.0 1.7245e-08
7430.0 1.7458e-08
7450.0 1.7567e-08
7470.0 1.7809e-08
7490.0 1.7705e-08
7510.0 1.7518e-08
7530.0 1.7719e-08
7550.0 1.8285e-08
7570.0 1.8238e-08
7590.0 1.7293e-08
7610.0 1.7139e-08
7630.0 1.8118e-08
7650.0 1.8475e-08
7670.0 1.8613e-08
7690.0 1.9439e-08
7710.0 2.0069e-08
7730.0 2.0258e-08
7750.0 2.1318e-08
7770.0 2.0766e-08
7790.0 2.0267e-08
7810.0 2.1481e-08
7830.0 2.2297e-08
7850.0 2.2868e-08
7870.0 2.3308e-08
7890.0 2.3494e-08
7910.0 2.3321e-08
7930.0 2.3485e-08
7950.0 2.4542e-08
7970.0 2.4539e-08
7990.0 2.2855e-08
8010.0 2.2049e-08
8030.0 2.2479e-08
8050.0 2.2955e-08
8070.0 2.0777e-08
8090.0 1.3641e-08
8110.0 1.423e-08
8130.0 2.0273e-08
8150.0 2.1834e-08
8170.0 2.2703e-08
8190.0 2.3204e-08
8210.0 2.2902e-08
8230.0 2.4814e-08
8250.0 2.5349e-08
8270.0 2.3986e-08
8290.0 2.3046e-08
8310.0 2.2703e-08
8330.0 2.3922e-08
8350.0 2.5053e-08
8370.0 2.4588e-08
8390.0 2.345e-08
8410.0 2.3426e-08
8430.0 2.1952e-08
8450.0 2.2422e-08
8470.0 2.4503e-08
8490.0 2.4577e-08
8510.0 2.2789e-08
8530.0 2.1372e-08
8550.0 2.0491e-08
8570.0 1.9305e-08
8590.0 1.9857e-08
8610.0 2.106e-08
8630.0 2.1631e-08
8650.0 2.2004e-08
8670.0 2.1407e-08
8690.0 2.0908e-08
8710.0 1.9456e-08
8730.0 1.8754e-08
8750.0 1.951e-08
8770.0 1.9811e-08
8790.0 1.9763e-08
8810.0 1.9655e-08
8830.0 2.0068e-08
8850.0 2.1077e-08
8870.0 1.9682e-08
8890.0 1.8558e-08
8910.0 1.8286e-08
8930.0 1.7202e-08
8950.0 1.6563e-08
8970.0 1.6551e-08
8990.0 1.5845e-08
9010.0 1.4874e-08
9030.0 1.4536e-08
9050.0 1.4416e-08
9070.0 1.4308e-08
9090.0 1.42e-08
9110.0 1.4091e-08
9130.0 1.3982e-08
9150.0 1.3872e-08
9170.0 1.3762e-08
9190.0 1.3651e-08
9210.0 1.3541e-08
9230.0 1.343e-08
9250.0 1.3319e-08
9270.0 1.3209e-08
9290.0 1.3098e-08
9310.0 1.2988e-08
9330.0 1.2879e-08
9350.0 1.277e-08
9370.0 1.2661e-08
9390.0 1.2553e-08
9410.0 1.2445e-08
9430.0 1.2338e-08
9450.0 1.2231e-08
9470.0 1.2126e-08
9490.0 1.2021e-08
9510.0 1.1916e-08
9530.0 1.1813e-08
9550.0 1.171e-08
9570.0 1.1609e-08
9590.0 1.1508e-08
9610.0 1.1408e-08
9630.0 1.1309e-08
9650.0 1.1211e-08
9670.0 1.1114e-08
9690.0 1.1019e-08
9710.0 1.0924e-08
9730.0 1.083e-08
9750.0 1.0737e-08
9770.0 1.0645e-08
9790.0 1.0554e-08
9810.0 1.0465e-08
9830.0 1.0376e-08
9850.0 1.0288e-08
9870.0 1.0202e-08
9890.0 1.0116e-08
9910.0 1.0032e-08
9930.0 9.9481e-09
9950.0 9.8656e-09
9970.0 9.7842e-09
9990.0 9.7038e-09
10010.0 9.6244e-09
10030.0 9.5461e-09
10050.0 9.4687e-09
10070.0 9.3923e-09
10090.0 9.3169e-09
10110.0 9.2424e-09
10130.0 9.169e-09
10150.0 9.0964e-09
10170.0 9.0248e-09
10190.0 8.9542e-09
10210.0 8.8844e-09
10230.0 8.8156e-09
10250.0 8.7477e-09
10270.0 8.6805e-09
10290.0 8.6144e-09
10310.0 8.549e-09
10330.0 8.4845e-09
10350.0 8.4208e-09
10370.0 8.3579e-09
10390.0 8.2949e-09
10410.0 8.2208e-09
10430.0 8.1435e-09
10450.0 8.0978e-09
10470.0 8.0451e-09
10490.0 7.9916e-09
10510.0 7.9373e-09
10530.0 7.8808e-09
10550.0 7.825e-09
10570.0 7.7707e-09
10590.0 7.7159e-09
10610.0 7.6611e-09
10630.0 7.6083e-09
10650.0 7.5559e-09
10670.0 7.5027e-09
10690.0 7.4509e-09
10710.0 7.4004e-09
10730.0 7.3496e-09
10750.0 7.2984e-09
10770.0 7.2498e-09
10790.0 7.2013e-09
10810.0 7.1523e-09
10830.0 7.1044e-09
10850.0 7.0581e-09
10870.0 7.0103e-09
10890.0 6.9629e-09
10910.0 6.9171e-09
10930.0 6.8712e-09
10950.0 6.824e-09
10970.0 6.7774e-09
10990.0 6.7315e-09
11010.0 6.6042e-09
11030.0 6.5559e-09
11050.0 6.5084e-09
11070.0 6.4598e-09
11090.0 6.4085e-09
11110.0 6.3586e-09
11130.0 6.3088e-09
11150.0 6.2572e-09
11170.0 6.2049e-09
11190.0 6.1542e-09
11210.0 6.1023e-09
11230.0 6.0492e-09
11250.0 5.9979e-09
11270.0 5.9479e-09
11290.0 5.8971e-09
11310.0 5.8478e-09
11330.0 5.8024e-09
11350.0 5.7578e-09
11370.0 5.7145e-09
11390.0 5.6744e-09
11410.0 5.6367e-09
11430.0 5.5992e-09
11450.0 5.5638e-09
11470.0 5.5307e-09
11490.0 5.498e-09
11510.0 5.4651e-09
11530.0 5.4337e-09
11550.0 5.4027e-09
11570.0 5.3705e-09
11590.0 5.3381e-09
11610.0 5.3062e-09
11630.0 5.2725e-09
11650.0 5.2374e-09
11670.0 5.203e-09
11690.0 5.1679e-09
11710.0 5.1311e-09
11730.0 5.0941e-09
11750.0 5.0581e-09
11770.0 5.0205e-09
11790.0 4.9824e-09
11810.0 4.9456e-09
11830.0 4.909e-09
11850.0 4.8712e-09
11870.0 4.8351e-09
11890.0 4.801e-09
11910.0 4.767e-09
11930.0 4.7339e-09
11950.0 4.7034e-09
11970.0 4.6741e-09
11990.0 4.6454e-09
12010.0 4.6192e-09
12030.0 4.5952e-09
12050.0 4.5723e-09
12070.0 4.5508e-09
12090.0 4.5321e-09
12110.0 4.5147e-09
12130.0 4.4983e-09
12150.0 4.4835e-09
12170.0 4.4702e-09
12190.0 4.457e-09
12210.0 4.4444e-09
12230.0 4.4325e-09
12250.0 4.4203e-09
12270.0 4.4072e-09
12290.0 4.3936e-09
12310.0 4.3793e-09
12330.0 4.363e-09
12350.0 4.345e-09
12370.0 4.3257e-09
12390.0 4.3044e-09
12410.0 4.2797e-09
12430.0 4.2542e-09
12450.0 4.227e-09
12470.0 4.1971e-09
12490.0 4.1654e-09
12510.0 4.1335e-09
12530.0 4.0993e-09
12550.0 4.063e-09
12570.0 4.0269e-09
12590.0 3.9905e-09
12610.0 3.952e-09
12630.0 3.9133e-09
12650.0 3.8765e-09
12670.0 3.8389e-09
12690.0 3.801e-09
12710.0 3.765e-09
12730.0 3.7302e-09
12750.0 3.6945e-09
12770.0 3.6609e-09
12790.0 3.6296e-09
12810.0 3.5992e-09
12830.0 3.5696e-09
12850.0 3.5431e-09
12870.0 3.5185e-09
12890.0 3.4948e-09
12910.0 3.4735e-09
12930.0 3.4548e-09
12950.0 3.4374e-09
12970.0 3.422e-09
12990.0 3.4094e-09
13010.0 3.3988e-09
13030.0 3.39e-09
13050.0 3.3833e-09
13070.0 3.3786e-09
13090.0 3.3752e-09
13110.0 3.373e-09
13130.0 3.3718e-09
13150.0 3.371e-09
13170.0 3.3703e-09
13190.0 3.3692e-09
13210.0 3.3674e-09
13230.0 3.3644e-09
13250.0 3.3598e-09
13270.0 3.3537e-09
13290.0 3.3457e-09
13310.0 3.3353e-09
13330.0 3.3231e-09
13350.0 3.3091e-09
13370.0 3.2926e-09
13390.0 3.2737e-09
13410.0 3.2541e-09
13430.0 3.2325e-09
13450.0 3.2087e-09
13470.0 3.1839e-09
13490.0 3.1586e-09
13510.0 3.1304e-09
13530.0 3.1014e-09
13550.0 3.0726e-09
13570.0 3.0426e-09
13590.0 3.011e-09
13610.0 2.9798e-09
13630.0 2.949e-09
13650.0 2.9165e-09
13670.0 2.884e-09
13690.0 2.8525e-09
13710.0 2.8205e-09
13730.0 2.787e-09
13750.0 2.7557e-09
13770.0 2.7251e-09
13790.0 2.694e-09
13810.0 2.6636e-09
13830.0 2.6353e-09
13850.0 2.6068e-09
13870.0 2.5786e-09
13890.0 2.5523e-09
13910.0 2.5271e-09
13930.0 2.5019e-09
13950.0 2.4778e-09
13970.0 2.4558e-09
13990.0 2.4341e-09
14010.0 2.4128e-09
14030.0 2.3932e-09
14050.0 2.3745e-09
14070.0 2.3557e-09
14090.0 2.3383e-09
14110.0 2.3222e-09
14130.0 2.3065e-09
14150.0 2.2912e-09
14170.0 2.2774e-09
14190.0 2.2642e-09
14210.0 2.2512e-09
14230.0 2.2389e-09
14250.0 2.2274e-09
14270.0 2.2159e-09
14290.0 2.2045e-09
14310.0 2.194e-09
14330.0 2.1836e-09
14350.0 2.1731e-09
14370.0 2.163e-09
14390.0 2.1535e-09
14410.0 2.1436e-09
14430.0 2.1339e-09
14450.0 2.1246e-09
14470.0 2.1154e-09
14490.0 2.1058e-09
14510.0 2.0967e-09
14530.0 2.0878e-09
14550.0 2.0786e-09
14570.0 2.0694e-09
14590.0 2.0605e-09
14610.0 2.0513e-09
14630.0 2.0417e-09
14650.0 2.0324e-09
14670.0 2.0231e-09
14690.0 2.0134e-09
14710.0 2.0034e-09
14730.0 1.9938e-09
14750.0 1.9839e-09
14770.0 1.9736e-09
14790.0 1.9634e-09
14810.0 1.9532e-09
14830.0 1.9422e-09
14850.0 1.9312e-09
14870.0 1.9205e-09
14890.0 1.9094e-09
14910.0 1.8981e-09
14930.0 1.8874e-09
14950.0 1.8773e-09
14970.0 1.8673e-09
14990.0 1.8583e-09
15010.0 1.8503e-09
15030.0 1.8431e-09
15050.0 1.8365e-09
15070.0 1.8309e-09
15090.0 1.8258e-09
15110.0 1.8209e-09
15130.0 1.8162e-09
15150.0 1.8118e-09
15170.0 1.8073e-09
15190.0 1.8027e-09
15210.0 1.7984e-09
15230.0 1.794e-09
15250.0 1.7894e-09
15270.0 1.7849e-09
15290.0 1.7807e-09
15310.0 1.7762e-09
15330.0 1.7717e-09
15350.0 1.7674e-09
15370.0 1.763e-09
15390.0 1.7585e-09
15410.0 1.754e-09
15430.0 1.7497e-09
15450.0 1.7452e-09
15470.0 1.7407e-09
15490.0 1.7364e-09
15510.0 1.732e-09
15530.0 1.7275e-09
15550.0 1.7231e-09
15570.0 1.7188e-09
15590.0 1.7143e-09
15610.0 1.7097e-09
15630.0 1.7054e-09
15650.0 1.701e-09
15670.0 1.6965e-09
15690.0 1.6921e-09
15710.0 1.6878e-09
15730.0 1.6834e-09
15750.0 1.6789e-09
15770.0 1.6745e-09
15790.0 1.6702e-09
15810.0 1.6656e-09
15830.0 1.6612e-09
15850.0 1.6569e-09
15870.0 1.6524e-09
15890.0 1.648e-09
15910.0 1.6437e-09
15930.0 1.6393e-09
15950.0 1.6347e-09
15970.0 1.6304e-09
15990.0 1.626e-09
16010.0 1.6216e-09
16030.0 1.617e-09
16050.0 1.6128e-09
16070.0 1.6084e-09
16090.0 1.6039e-09
16110.0 1.5995e-09
16130.0 1.5953e-09
16150.0 1.5907e-09
16170.0 1.5862e-09
16190.0 1.5819e-09
16210.0 1.5775e-09
16230.0 1.573e-09
16250.0 1.5687e-09
16270.0 1.5644e-09
16290.0 1.5599e-09
16310.0 1.5555e-09
16330.0 1.5512e-09
16350.0 1.5468e-09
16370.0 1.5422e-09
16390.0 1.5379e-09
16410.0 1.5335e-09
16430.0 1.5291e-09
16450.0 1.5247e-09
16470.0 1.5204e-09
16490.0 1.516e-09
16510.0 1.5115e-09
16530.0 1.5071e-09
16550.0 1.5028e-09
16570.0 1.4983e-09
16590.0 1.4938e-09
16610.0 1.4896e-09
16630.0 1.4852e-09
16650.0 1.4807e-09
16670.0 1.4764e-09
16690.0 1.4721e-09
16710.0 1.4675e-09
16730.0 1.4631e-09
16750.0 1.4588e-09
16770.0 1.4544e-09
16790.0 1.4499e-09
16810.0 1.4456e-09
16830.0 1.4413e-09
16850.0 1.4368e-09
16870.0 1.4324e-09
16890.0 1.4281e-09
16910.0 1.4237e-09
16930.0 1.4192e-09
16950.0 1.4149e-09
16970.0 1.4105e-09
16990.0 1.406e-09
17010.0 1.4017e-09
17030.0 1.3974e-09
17050.0 1.3929e-09
17070.0 1.3885e-09
17090.0 1.3842e-09
17110.0 1.3798e-09
17130.0 1.3753e-09
17150.0 1.3709e-09
17170.0 1.3666e-09
17190.0 1.3622e-09
17210.0 1.3578e-09
17230.0 1.3535e-09
17250.0 1.3491e-09
17270.0 1.3446e-09
17290.0 1.3402e-09
17310.0 1.3359e-09
17330.0 1.3315e-09
17350.0 1.327e-09
17370.0 1.3227e-09
17390.0 1.3184e-09
17410.0 1.3139e-09
17430.0 1.3095e-09
17450.0 1.3053e-09
17470.0 1.3007e-09
17490.0 1.2963e-09
17510.0 1.292e-09
17530.0 1.2876e-09
17550.0 1.2831e-09
17570.0 1.2788e-09
17590.0 1.2745e-09
17610.0 1.27e-09
17630.0 1.2656e-09
17650.0 1.2613e-09
17670.0 1.2569e-09
17690.0 1.2524e-09
17710.0 1.2481e-09
17730.0 1.2438e-09
17750.0 1.2393e-09
17770.0 1.2349e-09
17790.0 1.2307e-09
17810.0 1.2262e-09
17830.0 1.2217e-09
17850.0 1.2174e-09
17870.0 1.2131e-09
17890.0 1.2086e-09
17910.0 1.2041e-09
17930.0 1.1999e-09
17950.0 1.1955e-09
17970.0 1.191e-09
17990.0 1.1867e-09
18010.0 1.1824e-09
18030.0 1.1778e-09
18050.0 1.1734e-09
18070.0 1.1691e-09
18090.0 1.1647e-09
18110.0 1.1602e-09
18130.0 1.1559e-09
18150.0 1.1516e-09
18170.0 1.1471e-09
18190.0 1.1427e-09
18210.0 1.1385e-09
18230.0 1.134e-09
18250.0 1.1295e-09
18270.0 1.1252e-09
18290.0 1.1208e-09
18310.0 1.1164e-09
18330.0 1.112e-09
18350.0 1.1077e-09
18370.0 1.1033e-09
18390.0 1.0988e-09
18410.0 1.0945e-09
18430.0 1.0901e-09
18450.0 1.0856e-09
18470.0 1.0812e-09
18490.0 1.0769e-09
18510.0 1.0725e-09
18530.0 1.068e-09
18550.0 1.0638e-09
18570.0 1.0594e-09
18590.0 1.0549e-09
18610.0 1.0505e-09
18630.0 1.0462e-09
18650.0 1.0417e-09
18670.0 1.0372e-09
18690.0 1.033e-09
18710.0 1.0286e-09
18730.0 1.0241e-09
18750.0 1.0198e-09
18770.0 1.0155e-09
18790.0 1.0109e-09
18810.0 1.0065e-09
18830.0 1.0022e-09
18850.0 9.9781e-10
18870.0 9.9331e-10
18890.0 9.8899e-10
18910.0 9.8469e-10
18930.0 9.802e-10
18950.0 9.7578e-10
18970.0 9.7149e-10
18990.0 9.6707e-10
19010.0 9.6249e-10
19030.0 9.582e-10
19050.0 9.5387e-10
19070.0 9.4939e-10
19090.0 9.4499e-10
19110.0 9.4074e-10
19130.0 9.3627e-10
19150.0 9.3178e-10
19170.0 9.2745e-10
19190.0 9.231e-10
19210.0 9.1858e-10
19230.0 9.1415e-10
19250.0 9.099e-10
19270.0 9.0547e-10
19290.0 9.01e-10
19310.0 8.967e-10
19330.0 8.9236e-10
19350.0 8.8779e-10
19370.0 8.834e-10
19390.0 8.7909e-10
19410.0 8.7465e-10
19430.0 8.7016e-10
19450.0 8.6588e-10
19470.0 8.6152e-10
19490.0 8.5703e-10
19510.0 8.5265e-10
19530.0 8.4835e-10
19550.0 8.4386e-10
19570.0 8.3934e-10
19590.0 8.3505e-10
19610.0 8.3068e-10
19630.0 8.2619e-10
19650.0 8.2183e-10
19670.0 8.1755e-10
19690.0 8.1305e-10
19710.0 8.086e-10
19730.0 8.0429e-10
19750.0 7.999e-10
19770.0 7.9534e-10
19790.0 7.9098e-10
19810.0 7.8669e-10
19830.0 7.8223e-10
19850.0 7.7781e-10
19870.0 7.7358e-10
19890.0 7.6924e-10
19910.0 7.6488e-10
19930.0 7.6083e-10
19950.0 7.5701e-10
19970.0 7.5336e-10
19990.0 7.5012e-10
20010.0 7.4744e-10
20030.0 7.451e-10
20050.0 7.4316e-10
20070.0 7.4165e-10
20090.0 7.4042e-10
20110.0 7.3934e-10
20130.0 7.3843e-10
20150.0 7.3761e-10
20170.0 7.368e-10
20190.0 7.3597e-10
20210.0 7.3515e-10
20230.0 7.343e-10
20250.0 7.3337e-10
20270.0 7.324e-10
20290.0 7.3142e-10
20310.0 7.3034e-10
20330.0 7.2917e-10
20350.0 7.2801e-10
20370.0 7.2678e-10
20390.0 7.2545e-10
20410.0 7.241e-10
20430.0 7.2275e-10
20450.0 7.2128e-10
20470.0 7.1979e-10
20490.0 7.1834e-10
20510.0 7.1687e-10
20530.0 7.1535e-10
20550.0 7.1388e-10
20570.0 7.1249e-10
20590.0 7.1107e-10
20610.0 7.0969e-10
20630.0 7.0838e-10
20650.0 7.0709e-10
20670.0 7.0575e-10
20690.0 7.0447e-10
20710.0 7.0321e-10
20730.0 7.0189e-10
20750.0 7.0052e-10
20770.0 6.9915e-10
20790.0 6.9767e-10
20810.0 6.9606e-10
20830.0 6.9438e-10
20850.0 6.9261e-10
20870.0 6.9063e-10
20890.0 6.8852e-10
20910.0 6.8639e-10
20930.0 6.8411e-10
20950.0 6.8165e-10
20970.0 6.7918e-10
20990.0 6.7668e-10
21010.0 6.7399e-10
21030.0 6.713e-10
21050.0 6.6868e-10
21070.0 6.6599e-10
21090.0 6.6323e-10
21110.0 6.6062e-10
21130.0 6.5805e-10
21150.0 6.5543e-10
21170.0 6.5285e-10
21190.0 6.5039e-10
21210.0 6.4786e-10
21230.0 6.4527e-10
21250.0 6.4279e-10
21270.0 6.403e-10
21290.0 6.3769e-10
21310.0 6.3507e-10
21330.0 6.3252e-10
21350.0 6.2981e-10
21370.0 6.2701e-10
21390.0 6.2421e-10
21410.0 6.2136e-10
21430.0 6.1825e-10
21450.0 6.1518e-10
21470.0 6.1213e-10
21490.0 6.0892e-10
21510.0 6.0561e-10
21530.0 6.0238e-10
21550.0 5.9908e-10
21570.0 5.956e-10
21590.0 5.9218e-10
21610.0 5.8882e-10
21630.0 5.8534e-10
21650.0 5.8175e-10
21670.0 5.7839e-10
21690.0 5.7498e-10
21710.0 5.7148e-10
21730.0 5.6806e-10
21750.0 5.6476e-10
21770.0 5.6127e-10
21790.0 5.5781e-10
21810.0 5.5448e-10
21830.0 5.5112e-10
21850.0 5.4765e-10
21870.0 5.4427e-10
21890.0 5.4101e-10
21910.0 5.3761e-10
21930.0 5.3423e-10
21950.0 5.3098e-10
21970.0 5.2772e-10
21990.0 5.2434e-10
22010.0 5.2117e-10
22030.0 5.1811e-10
22050.0 5.1502e-10
22070.0 5.1202e-10
22090.0 5.0927e-10
22110.0 5.0655e-10
22130.0 5.0387e-10
22150.0 5.014e-10
22170.0 4.9908e-10
22190.0 4.9677e-10
22210.0 4.946e-10
22230.0 4.9264e-10
22250.0 4.9072e-10
22270.0 4.8886e-10
22290.0 4.8714e-10
22310.0 4.855e-10
22330.0 4.8383e-10
22350.0 4.8223e-10
22370.0 4.8071e-10
22390.0 4.7917e-10
22410.0 4.7758e-10
22430.0 4.7607e-10
22450.0 4.7455e-10
22470.0 4.7297e-10
22490.0 4.7139e-10
22510.0 4.6985e-10
22530.0 4.6822e-10
22550.0 4.6656e-10
22570.0 4.6496e-10
22590.0 4.6335e-10
22610.0 4.617e-10
22630.0 4.6008e-10
