#lamb flux
1010.0 4.6842e-05
1030.0 5.1271e-05
1050.0 5.5858e-05
1070.0 6.1023e-05
1090.0 6.7036e-05
1110.0 7.3177e-05
1130.0 7.934e-05
1150.0 8.5791e-05
1170.0 9.2457e-05
1190.0 9.8814e-05
1210.0 0.00010531
1230.0 0.00011211
1250.0 0.00011884
1270.0 0.0001255
1290.0 0.00013265
1310.0 0.00013995
1330.0 0.0001471
1350.0 0.00015445
1370.0 0.00016213
1390.0 0.00016973
1410.0 0.00017718
1430.0 0.00018495
1450.0 0.00019272
1470.0 0.00020022
1490.0 0.00020772
1510.0 0.00021551
1530.0 0.0002228
1550.0 0.00022984
1570.0 0.00023696
1590.0 0.00024388
1610.0 0.00025028
1630.0 0.00025662
1650.0 0.00026291
1670.0 0.00026872
1690.0 0.00027422
1710.0 0.00027975
1730.0 0.00028509
1750.0 0.00028983
1770.0 0.00029458
1790.0 0.00029932
1810.0 0.00030374
1830.0 0.00030798
1850.0 0.0003126
1870.0 0.00031708
1890.0 0.00032142
1910.0 0.00032603
1930.0 0.00033097
1950.0 0.00033584
1970.0 0.00034089
1990.0 0.00034645
2010.0 0.0003522
2030.0 0.00035802
2050.0 0.0003643
2070.0 0.00037099
2090.0 0.00037755
2110.0 0.00038427
2130.0 0.0003913
2150.0 0.00039829
2170.0 0.00040502
2190.0 0.00041193
2210.0 0.00041878
2230.0 0.00042522
2250.0 0.00043143
2270.0 0.00043765
2290.0 0.00044339
2310.0 0.00044855
2330.0 0.00045356
2350.0 0.00045826
2370.0 0.00046234
2390.0 0.0004661
2410.0 0.00046978
2430.0 0.00047291
2450.0 0.00047555
2470.0 0.00047802
2490.0 0.00048035
2510.0 0.00048242
2530.0 0.00048548
2550.0 0.0004914
2570.0 0.00050224
2590.0 0.00052062
2610.0 0.00055285
2630.0 0.00060103
2650.0 0.00066286
2670.0 0.00073929
2690.0 0.00082734
2710.0 0.00091357
2730.0 0.0009899
2750.0 0.0010539
2770.0 0.0010944
2790.0 0.0011082
2810.0 0.001097
2830.0 0.0010605
2850.0 0.0010059
2870.0 0.00093819
2890.0 0.00085855
2910.0 0.00077247
2930.0 0.00068595
2950.0 0.00059426
2970.0 0.00049904
2990.0 0.00040542
3010.0 0.0004927
3030.0 0.00033789
3050.0 0.00018225
3070.0 5.4493e-05
3090.0 5.4493e-05
3110.0 5.4493e-05
3130.0 5.4493e-05
3150.0 5.4493e-05
3170.0 5.4493e-05
3190.0 5.4493e-05
3210.0 0.0017204
3230.0 0.0047854
3250.0 0.0065103
3270.0 0.005713
3290.0 0.0043302
3310.0 0.0034303
3330.0 0.0031999
3350.0 0.0033564
3370.0 0.003631
3390.0 0.0039182
3410.0 0.0042191
3430.0 0.0045867
3450.0 0.0049382
3470.0 0.0053033
3490.0 0.0053712
3510.0 0.0046846
3530.0 0.0043861
3550.0 0.0056091
3570.0 0.0071428
3590.0 0.0079496
3610.0 0.00823
3630.0 0.0087244
3650.0 0.0087323
3670.0 0.009099
3690.0 0.010701
3710.0 0.012439
3730.0 0.01358
3750.0 0.014285
3770.0 0.014512
3790.0 0.014073
3810.0 0.013048
3830.0 0.011422
3850.0 0.0089865
3870.0 0.00799
3890.0 0.0090005
3910.0 0.011923
3930.0 0.014903
3950.0 0.016293
3970.0 0.016865
3990.0 0.018187
4010.0 0.018805
4030.0 0.017002
4050.0 0.012818
4070.0 0.010844
4090.0 0.012145
4110.0 0.013481
4130.0 0.014399
4150.0 0.014408
4170.0 0.013853
4190.0 0.013232
4210.0 0.014089
4230.0 0.015131
4250.0 0.016036
4270.0 0.016079
4290.0 0.015573
4310.0 0.015649
4330.0 0.017203
4350.0 0.018937
4370.0 0.019184
4390.0 0.017889
4410.0 0.015903
4430.0 0.012889
4450.0 0.010648
4470.0 0.010599
4490.0 0.011763
4510.0 0.012819
4530.0 0.013477
4550.0 0.014537
4570.0 0.0189
4590.0 0.025972
4610.0 0.030862
4630.0 0.032783
4650.0 0.03565
4670.0 0.039697
4690.0 0.040409
4710.0 0.035007
4730.0 0.027468
4750.0 0.02156
4770.0 0.018136
4790.0 0.016528
4810.0 0.016059
4830.0 0.017451
4850.0 0.020572
4870.0 0.022975
4890.0 0.023567
4910.0 0.023681
4930.0 0.026169
4950.0 0.030158
4970.0 0.032742
4990.0 0.032502
5010.0 0.029277
5030.0 0.024234
5050.0 0.01965
5070.0 0.016782
5090.0 0.015698
5110.0 0.015715
5130.0 0.015921
5150.0 0.015719
5170.0 0.014962
5190.0 0.01461
5210.0 0.015322
5230.0 0.017455
5250.0 0.020988
5270.0 0.024732
5290.0 0.027271
5310.0 0.029366
5330.0 0.032412
5350.0 0.035065
5370.0 0.035034
5390.0 0.032559
5410.0 0.030329
5430.0 0.030994
5450.0 0.035533
5470.0 0.041636
5490.0 0.046299
5510.0 0.048166
5530.0 0.047801
5550.0 0.046293
5570.0 0.044583
5590.0 0.042943
5610.0 0.041934
5630.0 0.041914
5650.0 0.041824
5670.0 0.039797
5690.0 0.035888
5710.0 0.031933
5730.0 0.029404
5750.0 0.028725
5770.0 0.029658
5790.0 0.030695
5810.0 0.031299
5830.0 0.031534
5850.0 0.030855
5870.0 0.029901
5890.0 0.029889
5910.0 0.03082
5930.0 0.031064
5950.0 0.0293
5970.0 0.025899
5990.0 0.021677
6010.0 0.018379
6030.0 0.0175
6050.0 0.018792
6070.0 0.019744
6090.0 0.018695
6110.0 0.017157
6130.0 0.017639
6150.0 0.019728
6170.0 0.021651
6190.0 0.022824
6210.0 0.02324
6230.0 0.022811
6250.0 0.020744
6270.0 0.017492
6290.0 0.014771
6310.0 0.013643
6330.0 0.013797
6350.0 0.014269
6370.0 0.015039
6390.0 0.017219
6410.0 0.020749
6430.0 0.023882
6450.0 0.025464
6470.0 0.026165
6490.0 0.026562
6510.0 0.026797
6530.0 0.027028
6550.0 0.027329
6570.0 0.028017
6590.0 0.028633
6610.0 0.028557
6630.0 0.027348
6650.0 0.02529
6670.0 0.023301
6690.0 0.021962
6710.0 0.021023
6730.0 0.020149
6750.0 0.019814
6770.0 0.020339
6790.0 0.021097
6810.0 0.021444
6830.0 0.021111
6850.0 0.020094
6870.0 0.01903
6890.0 0.018561
6910.0 0.018552
6930.0 0.019005
6950.0 0.019498
6970.0 0.019876
6990.0 0.019951
7010.0 0.0193
7030.0 0.017843
7050.0 0.015999
7070.0 0.014746
7090.0 0.014487
7110.0 0.014614
7130.0 0.013936
7150.0 0.012596
7170.0 0.012297
7190.0 0.013592
7210.0 0.015576
7230.0 0.017277
7250.0 0.017905
7270.0 0.017494
7290.0 0.016431
7310.0 0.015549
7330.0 0.0154
7350.0 0.015666
7370.0 0.015936
7390.0 0.016704
7410.0 0.018348
7430.0 0.020418
7450.0 0.022144
7470.0 0.022736
7490.0 0.021692
7510.0 0.020022
7530.0 0.018735
7550.0 0.017521
7570.0 0.016228
7590.0 0.015543
7610.0 0.015564
7630.0 0.016226
7650.0 0.017458
7670.0 0.018964
7690.0 0.020263
7710.0 0.021244
7730.0 0.022083
7750.0 0.022744
7770.0 0.022834
7790.0 0.023041
7810.0 0.023029
7830.0 0.022308
7850.0 0.021465
7870.0 0.020979
7890.0 0.021078
7910.0 0.021009
7930.0 0.02048
7950.0 0.01964
7970.0 0.018881
7990.0 0.018156
8010.0 0.017478
8030.0 0.017503
8050.0 0.017463
8070.0 0.01719
8090.0 0.016993
8110.0 0.016607
8130.0 0.01658
8150.0 0.016406
8170.0 0.016044
8190.0 0.015581
8210.0 0.015162
8230.0 0.014718
8250.0 0.014535
8270.0 0.013551
8290.0 0.011528
8310.0 0.0092604
8330.0 0.0077126
8350.0 0.0073515
8370.0 0.0083333
8390.0 0.0096822
8410.0 0.010321
8430.0 0.010613
8450.0 0.011273
8470.0 0.012164
8490.0 0.01347
8510.0 0.015043
8530.0 0.016728
8550.0 0.01809
8570.0 0.019103
8590.0 0.01985
8610.0 0.020227
8630.0 0.020108
8650.0 0.019755
8670.0 0.019747
8690.0 0.020776
8710.0 0.022186
8730.0 0.022906
8750.0 0.022751
8770.0 0.023003
8790.0 0.02297
8810.0 0.021816
8830.0 0.020264
8850.0 0.018308
8870.0 0.016795
8890.0 0.016329
8910.0 0.016121
8930.0 0.01511
8950.0 0.013962
8970.0 0.013472
8990.0 0.013455
9010.0 0.013121
9030.0 0.012863
9050.0 0.012743
9070.0 0.012682
9090.0 0.01263
9110.0 0.01258
9130.0 0.012529
9150.0 0.01248
9170.0 0.012429
9190.0 0.012389
9210.0 0.012374
9230.0 0.012312
9250.0 0.012257
9270.0 0.012207
9290.0 0.01216
9310.0 0.012114
9330.0 0.012069
9350.0 0.012027
9370.0 0.011986
9390.0 0.011944
9410.0 0.011903
9430.0 0.011861
9450.0 0.011802
9470.0 0.01175
9490.0 0.011729
9510.0 0.011699
9530.0 0.011667
9550.0 0.011634
9570.0 0.011599
9590.0 0.011564
9610.0 0.011529
9630.0 0.011494
9650.0 0.01146
9670.0 0.011426
9690.0 0.011392
9710.0 0.011358
9730.0 0.011325
9750.0 0.011292
9770.0 0.011258
9790.0 0.011225
9810.0 0.011193
9830.0 0.01116
9850.0 0.011127
9870.0 0.011095
9890.0 0.011063
9910.0 0.01103
9930.0 0.010996
9950.0 0.010911
9970.0 0.010893
9990.0 0.010872
10010.0 0.010851
10030.0 0.010824
10050.0 0.010793
10070.0 0.010761
10090.0 0.01073
10110.0 0.010693
10130.0 0.01065
10150.0 0.010617
10170.0 0.010583
10190.0 0.010546
10210.0 0.01051
10230.0 0.010475
10250.0 0.010436
10270.0 0.010396
10290.0 0.010359
10310.0 0.010318
10330.0 0.010273
10350.0 0.010232
10370.0 0.01019
10390.0 0.010144
10410.0 0.010098
10430.0 0.010055
10450.0 0.010008
10470.0 0.0099582
10490.0 0.0099105
10510.0 0.0098623
10530.0 0.0098075
10550.0 0.0097543
10570.0 0.0097034
10590.0 0.0096483
10610.0 0.0095905
10630.0 0.0095355
10650.0 0.0094789
10670.0 0.0094164
10690.0 0.0093552
10710.0 0.0092951
10730.0 0.0092307
10750.0 0.0091618
10770.0 0.0090982
10790.0 0.009032
10810.0 0.0089609
10830.0 0.0088905
10850.0 0.0088222
10870.0 0.0087461
10890.0 0.0086687
10910.0 0.0085938
10930.0 0.008516
10950.0 0.0084324
10970.0 0.0083492
10990.0 0.008268
11010.0 0.0089482
11030.0 0.0088566
11050.0 0.008768
11070.0 0.0086774
11090.0 0.0085801
11110.0 0.0084892
11130.0 0.0084003
11150.0 0.008308
11170.0 0.0082158
11190.0 0.0081291
11210.0 0.0080401
11230.0 0.0079488
11250.0 0.0078616
11270.0 0.0077769
11290.0 0.007689
11310.0 0.0076021
11330.0 0.0075217
11350.0 0.0074395
11370.0 0.0073555
11390.0 0.0072739
11410.0 0.0071926
11430.0 0.0071041
11450.0 0.0070143
11470.0 0.0069235
11490.0 0.0068261
11510.0 0.0067202
11530.0 0.0066133
11550.0 0.0065021
11570.0 0.0063811
11590.0 0.0062565
11610.0 0.006132
11630.0 0.0059997
11650.0 0.0058619
11670.0 0.0057289
11690.0 0.0055957
11710.0 0.0054585
11730.0 0.0053241
11750.0 0.0051964
11770.0 0.0050662
11790.0 0.0049369
11810.0 0.004814
11830.0 0.0046938
11850.0 0.0045705
11870.0 0.0044533
11890.0 0.004342
11910.0 0.0042303
11930.0 0.0041203
11950.0 0.0040171
11970.0 0.0039162
11990.0 0.0038151
12010.0 0.0037203
12030.0 0.0036313
12050.0 0.0035445
12070.0 0.0034614
12090.0 0.0033876
12110.0 0.0033185
12130.0 0.003254
12150.0 0.0031972
12170.0 0.003148
12190.0 0.0031041
12210.0 0.0030682
12230.0 0.0030405
12250.0 0.00302
12270.0 0.0030072
12290.0 0.0030018
12310.0 0.0030026
12330.0 0.0030105
12350.0 0.0030245
12370.0 0.0030425
12390.0 0.0030652
12410.0 0.0030939
12430.0 0.003123
12450.0 0.0031533
12470.0 0.0031865
12490.0 0.00322
12510.0 0.0032508
12530.0 0.003282
12550.0 0.0033124
12570.0 0.0033384
12590.0 0.0033606
12610.0 0.0033803
12630.0 0.0033947
12650.0 0.0034018
12670.0 0.0034037
12690.0 0.0033994
12710.0 0.0033878
12730.0 0.0033696
12750.0 0.0033445
12770.0 0.0033126
12790.0 0.0032753
12810.0 0.0032322
12830.0 0.0031835
12850.0 0.0031323
12870.0 0.0030786
12890.0 0.0030215
12910.0 0.0029637
12930.0 0.0029069
12950.0 0.0028489
12970.0 0.0027909
12990.0 0.0027361
13010.0 0.0026827
13030.0 0.0026299
13050.0 0.0025793
13070.0 0.0025318
13090.0 0.0024845
13110.0 0.0024386
13130.0 0.0023952
13150.0 0.0023532
13170.0 0.0023111
13190.0 0.0022713
13210.0 0.0022335
13230.0 0.0021962
13250.0 0.0021599
13270.0 0.0021259
13290.0 0.0020929
13310.0 0.0020606
13330.0 0.0020304
13350.0 0.0020022
13370.0 0.001975
13390.0 0.0019494
13410.0 0.0019263
13430.0 0.0019047
13450.0 0.0018843
13470.0 0.0018657
13490.0 0.0018486
13510.0 0.0018319
13530.0 0.0018162
13550.0 0.0018012
13570.0 0.0017863
13590.0 0.0017712
13610.0 0.0017561
13630.0 0.0017409
13650.0 0.0017249
13670.0 0.0017085
13690.0 0.001692
13710.0 0.0016751
13730.0 0.0016575
13750.0 0.0016405
13770.0 0.0016238
13790.0 0.001607
13810.0 0.0015908
13830.0 0.0015757
13850.0 0.0015609
13870.0 0.0015467
13890.0 0.0015336
13910.0 0.0015212
13930.0 0.0015091
13950.0 0.0014976
13970.0 0.0014868
13990.0 0.0014761
14010.0 0.0014653
14030.0 0.0014547
14050.0 0.0014439
14070.0 0.0014324
14090.0 0.0014206
14110.0 0.0014086
14130.0 0.0013959
14150.0 0.0013825
14170.0 0.0013692
14190.0 0.0013558
14210.0 0.0013419
14230.0 0.0013283
14250.0 0.0013155
14270.0 0.0013028
14290.0 0.0012907
14310.0 0.0012802
14330.0 0.0012707
14350.0 0.0012621
14370.0 0.001255
14390.0 0.0012494
14410.0 0.0012447
14430.0 0.0012411
14450.0 0.0012386
14470.0 0.0012368
14490.0 0.0012357
14510.0 0.0012351
14530.0 0.001235
14550.0 0.0012352
14570.0 0.0012359
14590.0 0.0012369
14610.0 0.0012386
14630.0 0.0012411
14650.0 0.0012445
14670.0 0.0012492
14690.0 0.0012555
14710.0 0.0012637
14730.0 0.0012736
14750.0 0.0012859
14770.0 0.001301
14790.0 0.0013184
14810.0 0.0013383
14830.0 0.0013623
14850.0 0.0013893
14870.0 0.0014183
14890.0 0.0014503
14910.0 0.0014852
14930.0 0.0015202
14950.0 0.0015542
14970.0 0.0015878
14990.0 0.001618
15010.0 0.0016433
15030.0 0.0016646
15050.0 0.0016818
15070.0 0.0016946
15090.0 0.0017047
15110.0 0.0017131
15130.0 0.0017202
15150.0 0.0017267
15170.0 0.001733
15190.0 0.0017393
15210.0 0.0017456
15230.0 0.0017521
15250.0 0.0017586
15270.0 0.0017653
15290.0 0.0017721
15310.0 0.0017791
15330.0 0.0017861
15350.0 0.0017933
15370.0 0.0018006
15390.0 0.001808
15410.0 0.0018156
15430.0 0.0018233
15450.0 0.001831
15470.0 0.0018389
15490.0 0.0018469
15510.0 0.001855
15530.0 0.0018632
15550.0 0.0018715
15570.0 0.0018799
15590.0 0.0018884
15610.0 0.001897
15630.0 0.0019057
15650.0 0.0019145
15670.0 0.0019234
15690.0 0.0019323
15710.0 0.0019414
15730.0 0.0019505
15750.0 0.0019597
15770.0 0.001969
15790.0 0.0019783
15810.0 0.0019878
15830.0 0.0019972
15850.0 0.0020068
15870.0 0.0020164
15890.0 0.0020261
15910.0 0.0020358
15930.0 0.0020456
15950.0 0.0020554
15970.0 0.0020653
15990.0 0.0020752
16010.0 0.0020852
16030.0 0.0020952
16050.0 0.0021052
16070.0 0.0021153
16090.0 0.0021253
16110.0 0.0021354
16130.0 0.0021456
16150.0 0.0021557
16170.0 0.0021659
16190.0 0.002176
16210.0 0.0021862
16230.0 0.0021963
16250.0 0.0022065
16270.0 0.0022167
16290.0 0.0022268
16310.0 0.0022369
16330.0 0.0022471
16350.0 0.0022571
16370.0 0.0022672
16390.0 0.0022772
16410.0 0.0022872
16430.0 0.0022972
16450.0 0.0023071
16470.0 0.002317
16490.0 0.0023268
16510.0 0.0023366
16530.0 0.0023463
16550.0 0.0023559
16570.0 0.0023655
16590.0 0.002375
16610.0 0.0023845
16630.0 0.0023938
16650.0 0.0024031
16670.0 0.0024123
16690.0 0.0024214
16710.0 0.0024304
16730.0 0.0024393
16750.0 0.0024481
16770.0 0.0024568
16790.0 0.0024654
16810.0 0.0024739
16830.0 0.0024823
16850.0 0.0024905
16870.0 0.0024986
16890.0 0.0025066
16910.0 0.0025144
16930.0 0.0025221
16950.0 0.0025297
16970.0 0.0025372
16990.0 0.0025444
17010.0 0.0025516
17030.0 0.0025586
17050.0 0.0025654
17070.0 0.002572
17090.0 0.0025785
17110.0 0.0025848
17130.0 0.002591
17150.0 0.002597
17170.0 0.0026028
17190.0 0.0026084
17210.0 0.0026138
17230.0 0.0026191
17250.0 0.0026242
17270.0 0.0026291
17290.0 0.0026338
17310.0 0.0026383
17330.0 0.0026425
17350.0 0.0026466
17370.0 0.0026505
17390.0 0.0026542
17410.0 0.0026577
17430.0 0.002661
17450.0 0.0026641
17470.0 0.0026669
17490.0 0.0026696
17510.0 0.002672
17530.0 0.0026742
17550.0 0.0026762
17570.0 0.002678
17590.0 0.0026796
17610.0 0.0026809
17630.0 0.002682
17650.0 0.0026829
17670.0 0.0026836
17690.0 0.0026841
17710.0 0.0026843
17730.0 0.0026843
17750.0 0.0026841
17770.0 0.0026837
17790.0 0.002683
17810.0 0.0026822
17830.0 0.002681
17850.0 0.0026797
17870.0 0.0026782
17890.0 0.0026764
17910.0 0.0026744
17930.0 0.0026722
17950.0 0.0026698
17970.0 0.0026671
17990.0 0.0026643
18010.0 0.0026612
18030.0 0.0026579
18050.0 0.0026544
18070.0 0.0026507
18090.0 0.0026467
18110.0 0.0026426
18130.0 0.0026383
18150.0 0.0026337
18170.0 0.0026289
18190.0 0.002624
18210.0 0.0026188
18230.0 0.0026135
18250.0 0.0026079
18270.0 0.0026022
18290.0 0.0025962
18310.0 0.0025901
18330.0 0.0025838
18350.0 0.0025773
18370.0 0.0025706
18390.0 0.0025637
18410.0 0.0025567
18430.0 0.0025495
18450.0 0.0025421
18470.0 0.0025345
18490.0 0.0025268
18510.0 0.002519
18530.0 0.0025109
18550.0 0.0025027
18570.0 0.0024944
18590.0 0.0024859
18610.0 0.0024772
18630.0 0.0024685
18650.0 0.0024595
18670.0 0.0024504
18690.0 0.0024413
18710.0 0.0024319
18730.0 0.0024225
18750.0 0.0024129
18770.0 0.0024032
18790.0 0.0023934
18810.0 0.0023834
18830.0 0.0023734
18850.0 0.0023632
18870.0 0.002353
18890.0 0.0023426
18910.0 0.0023322
18930.0 0.0023216
18950.0 0.002311
18970.0 0.0023002
18990.0 0.0022894
19010.0 0.0022785
19030.0 0.0022675
19050.0 0.0022565
19070.0 0.0022454
19090.0 0.0022342
19110.0 0.0022229
19130.0 0.0022116
19150.0 0.0022002
19170.0 0.0021888
19190.0 0.0021773
19210.0 0.0021658
19230.0 0.0021542
19250.0 0.0021426
19270.0 0.002131
19290.0 0.0021193
19310.0 0.0021075
19330.0 0.0020958
19350.0 0.002084
19370.0 0.0020722
19390.0 0.0020604
19410.0 0.0020485
19430.0 0.0020366
19450.0 0.0020247
19470.0 0.0020129
19490.0 0.0020009
19510.0 0.001989
19530.0 0.0019771
19550.0 0.0019652
19570.0 0.0019533
19590.0 0.0019414
19610.0 0.0019295
19630.0 0.0019176
19650.0 0.0019057
19670.0 0.0018939
19690.0 0.001882
19710.0 0.0018702
19730.0 0.0018584
19750.0 0.0018466
19770.0 0.0018348
19790.0 0.0018231
19810.0 0.0018113
19830.0 0.0017996
19850.0 0.0017878
19870.0 0.0017759
19890.0 0.0017637
19910.0 0.0017508
19930.0 0.0017369
19950.0 0.0017216
19970.0 0.0017038
19990.0 0.0016834
20010.0 0.0016605
20030.0 0.0016342
20050.0 0.0016047
20070.0 0.0015736
20090.0 0.0015412
20110.0 0.0015062
20130.0 0.0014717
20150.0 0.0014381
20170.0 0.0014044
20190.0 0.001371
20210.0 0.0013396
20230.0 0.0013091
20250.0 0.001279
20270.0 0.0012506
20290.0 0.001224
20310.0 0.0011983
20330.0 0.0011735
20350.0 0.0011512
20370.0 0.0011301
20390.0 0.00111
20410.0 0.0010915
20430.0 0.0010747
20450.0 0.0010586
20470.0 0.0010438
20490.0 0.0010304
20510.0 0.001018
20530.0 0.0010064
20550.0 0.00099589
20570.0 0.00098629
20590.0 0.00097729
20610.0 0.00096893
20630.0 0.00096118
20650.0 0.00095385
20670.0 0.00094685
20690.0 0.00094017
20710.0 0.00093366
20730.0 0.00092725
20750.0 0.00092087
20770.0 0.00091445
20790.0 0.00090792
20810.0 0.00090121
20830.0 0.00089431
20850.0 0.00088721
20870.0 0.00087978
20890.0 0.00087204
20910.0 0.00086414
20930.0 0.00085592
20950.0 0.00084736
20970.0 0.00083866
20990.0 0.00082981
21010.0 0.00082059
21030.0 0.00081126
21050.0 0.00080194
21070.0 0.00079247
21090.0 0.00078279
21110.0 0.00077332
21130.0 0.00076392
21150.0 0.0007544
21170.0 0.000745
21190.0 0.00073587
21210.0 0.0007267
21230.0 0.00071757
21250.0 0.00070879
21270.0 0.00070021
21290.0 0.00069168
21310.0 0.0006834
21330.0 0.00067553
21350.0 0.00066775
21370.0 0.00066018
21390.0 0.00065299
21410.0 0.00064609
21430.0 0.0006393
21450.0 0.00063292
21470.0 0.00062691
21490.0 0.00062113
21510.0 0.00061563
21530.0 0.0006105
21550.0 0.00060564
21570.0 0.00060102
21590.0 0.0005967
21610.0 0.00059264
21630.0 0.0005888
21650.0 0.00058518
21670.0 0.00058178
21690.0 0.00057855
21710.0 0.00057549
21730.0 0.00057257
21750.0 0.00056976
21770.0 0.0005671
21790.0 0.00056453
21810.0 0.00056203
21830.0 0.0005596
21850.0 0.00055725
21870.0 0.00055492
21890.0 0.00055261
21910.0 0.00055033
21930.0 0.00054807
21950.0 0.00054576
21970.0 0.00054345
21990.0 0.00054113
22010.0 0.00053873
22030.0 0.00053628
22050.0 0.00053378
22070.0 0.0005312
22090.0 0.00052854
22110.0 0.00052582
22130.0 0.000523
22150.0 0.00052012
22170.0 0.00051717
22190.0 0.00051412
22210.0 0.000511
22230.0 0.00050783
22250.0 0.00050458
22270.0 0.00050122
22290.0 0.00049781
22310.0 0.00049432
22330.0 0.00049066
22350.0 0.00048689
22370.0 0.00048303
22390.0 0.00047898
22410.0 0.00047467
22430.0 0.00047027
22450.0 0.00046568
22470.0 0.00046077
22490.0 0.00045566
22510.0 0.00045043
22530.0 0.00044483
22550.0 0.00043893
22570.0 0.00043299
22590.0 0.00042688
22610.0 0.00042046
22630.0 0.00041398
22650.0 0.00040763
22670.0 0.00040106
22690.0 0.00039445
22710.0 0.00038806
22730.0 0.00038177
22750.0 0.00037534
22770.0 0.00036927
22790.0 0.00036353
22810.0 0.00035788
22830.0 0.00035245
22850.0 0.00034745
22870.0 0.00034266
22890.0 0.00033802
22910.0 0.00033375
22930.0 0.0003298
22950.0 0.00032601
22970.0 0.00032239
22990.0 0.00031915
23010.0 0.00031605
23030.0 0.00031305
23050.0 0.00031024
23070.0 0.00030759
23090.0 0.00030494
23110.0 0.00030237
23130.0 0.00029992
23150.0 0.00029748
23170.0 0.00029503
23190.0 0.00029265
23210.0 0.00029033
23230.0 0.00028798
23250.0 0.00028567
23270.0 0.00028346
23290.0 0.00028129
23310.0 0.00027912
23330.0 0.00027711
23350.0 0.0002752
23370.0 0.00027335
23390.0 0.00027161
23410.0 0.00027001
23430.0 0.00026849
23450.0 0.00026704
23470.0 0.0002657
23490.0 0.00026444
23510.0 0.00026323
23530.0 0.00026208
23550.0 0.00026101
23570.0 0.00025998
23590.0 0.000259
23610.0 0.00025808
23630.0 0.00025723
23650.0 0.00025645
23670.0 0.00025578
23690.0 0.00025522
23710.0 0.00025482
23730.0 0.00025462
23750.0 0.0002546
23770.0 0.00025482
23790.0 0.00025534
23810.0 0.00025616
23830.0 0.00025724
23850.0 0.00025874
23870.0 0.00026065
23890.0 0.00026279
23910.0 0.00026526
