#lamb flux
1010.0 0.00029158
1030.0 0.00035686
1050.0 0.00042449
1070.0 0.00049096
1090.0 0.00055483
1110.0 0.00060323
1130.0 0.00063201
1150.0 0.00063385
1170.0 0.00061314
1190.0 0.00057187
1210.0 0.00062353
1230.0 0.00067746
1250.0 0.00073087
1270.0 0.00078296
1290.0 0.00083726
1310.0 0.00089071
1330.0 0.00094081
1350.0 0.00098971
1370.0 0.0010381
1390.0 0.0010828
1410.0 0.0011235
1430.0 0.0011637
1450.0 0.0012013
1470.0 0.0012349
1490.0 0.0012668
1510.0 0.001535
1530.0 0.0019113
1550.0 0.0022997
1570.0 0.0026623
1590.0 0.003032
1610.0 0.0033986
1630.0 0.0037653
1650.0 0.0041291
1670.0 0.0044799
1690.0 0.0048178
1710.0 0.0051486
1730.0 0.0054676
1750.0 0.0057643
1770.0 0.0060518
1790.0 0.0063295
1810.0 0.0065897
1830.0 0.0068351
1850.0 0.0070787
1870.0 0.0073074
1890.0 0.0075206
1910.0 0.0077274
1930.0 0.0079295
1950.0 0.0081155
1970.0 0.0082917
1990.0 0.0084665
2010.0 0.0086314
2030.0 0.0087835
2050.0 0.0089343
2070.0 0.0090834
2090.0 0.0092173
2110.0 0.0093456
2130.0 0.0094739
2150.0 0.0095949
2170.0 0.009705
2190.0 0.0098176
2210.0 0.0099282
2230.0 0.01003
2250.0 0.010129
2270.0 0.010234
2290.0 0.010334
2310.0 0.010426
2330.0 0.010524
2350.0 0.010623
2370.0 0.010717
2390.0 0.010813
2410.0 0.010918
2430.0 0.011023
2450.0 0.011133
2470.0 0.011265
2490.0 0.011432
2510.0 0.011638
2530.0 0.011924
2550.0 0.012339
2570.0 0.012911
2590.0 0.013673
2610.0 0.014767
2630.0 0.016207
2650.0 0.017947
2670.0 0.020066
2690.0 0.022593
2710.0 0.025309
2730.0 0.028111
2750.0 0.031087
2770.0 0.033981
2790.0 0.036615
2810.0 0.039038
2830.0 0.041251
2850.0 0.043051
2870.0 0.044588
2890.0 0.045963
2910.0 0.047192
2930.0 0.048307
2950.0 0.049409
2970.0 0.050513
2990.0 0.051595
3010.0 0.052675
3030.0 0.053784
3050.0 0.054889
3070.0 0.055944
3090.0 0.057006
3110.0 0.058081
3130.0 0.059195
3150.0 0.060771
3170.0 0.062807
3190.0 0.06562
3210.0 0.069398
3230.0 0.074403
3250.0 0.080156
3270.0 0.084215
3290.0 0.092963
3310.0 0.11552
3330.0 0.12032
3350.0 0.12074
3370.0 0.12088
3390.0 0.12102
3410.0 0.12129
3430.0 0.12165
3450.0 0.12205
3470.0 0.12238
3490.0 0.1228
3510.0 0.12379
3530.0 0.12219
3550.0 0.11729
3570.0 0.11442
3590.0 0.11632
3610.0 0.12364
3630.0 0.12148
3650.0 0.11385
3670.0 0.10519
3690.0 0.10191
3710.0 0.10476
3730.0 0.10776
3750.0 0.10912
3770.0 0.11279
3790.0 0.11719
3810.0 0.11442
3830.0 0.1076
3850.0 0.10285
3870.0 0.10142
3890.0 0.10008
3910.0 0.098122
3930.0 0.098549
3950.0 0.10277
3970.0 0.10779
3990.0 0.1118
4010.0 0.10938
4030.0 0.10619
4050.0 0.10548
4070.0 0.10533
4090.0 0.10533
4110.0 0.10405
4130.0 0.10079
4150.0 0.097625
4170.0 0.096994
4190.0 0.092985
4210.0 0.087378
4230.0 0.080997
4250.0 0.074841
4270.0 0.070841
4290.0 0.067432
4310.0 0.066725
4330.0 0.068994
4350.0 0.070522
4370.0 0.07363
4390.0 0.078157
4410.0 0.082238
4430.0 0.081093
4450.0 0.076151
4470.0 0.072045
4490.0 0.070115
4510.0 0.069556
4530.0 0.070073
4550.0 0.070697
4570.0 0.071897
4590.0 0.0742
4610.0 0.078419
4630.0 0.081377
4650.0 0.083587
4670.0 0.082411
4690.0 0.07853
4710.0 0.074287
4730.0 0.071825
4750.0 0.070252
4770.0 0.071498
4790.0 0.071139
4810.0 0.06954
4830.0 0.071046
4850.0 0.071859
4870.0 0.073709
4890.0 0.070804
4910.0 0.067509
4930.0 0.06279
4950.0 0.057701
4970.0 0.053041
4990.0 0.049209
5010.0 0.048494
5030.0 0.049649
5050.0 0.0492
5070.0 0.050306
5090.0 0.052422
5110.0 0.052211
5130.0 0.051855
5150.0 0.05167
5170.0 0.051774
5190.0 0.052476
5210.0 0.051325
5230.0 0.050213
5250.0 0.049298
5270.0 0.048324
5290.0 0.047737
5310.0 0.047178
5330.0 0.045497
5350.0 0.044734
5370.0 0.043559
5390.0 0.042156
5410.0 0.041343
5430.0 0.040416
5450.0 0.041155
5470.0 0.041577
5490.0 0.041249
5510.0 0.042291
5530.0 0.042536
5550.0 0.043155
5570.0 0.042786
5590.0 0.041364
5610.0 0.040969
5630.0 0.041457
5650.0 0.04093
5670.0 0.040124
5690.0 0.038858
5710.0 0.039259
5730.0 0.039726
5750.0 0.038227
5770.0 0.036619
5790.0 0.033445
5810.0 0.029079
5830.0 0.032018
5850.0 0.036568
5870.0 0.038124
5890.0 0.038851
5910.0 0.039351
5930.0 0.039964
5950.0 0.039707
5970.0 0.03981
5990.0 0.039653
6010.0 0.039139
6030.0 0.038299
6050.0 0.038354
6070.0 0.039139
6090.0 0.039003
6110.0 0.038202
6130.0 0.037653
6150.0 0.036686
6170.0 0.035623
6190.0 0.035056
6210.0 0.034303
6230.0 0.034192
6250.0 0.034006
6270.0 0.033826
6290.0 0.033875
6310.0 0.033892
6330.0 0.033569
6350.0 0.032966
6370.0 0.03266
6390.0 0.032683
6410.0 0.03203
6430.0 0.031635
6450.0 0.031171
6470.0 0.030708
6490.0 0.030462
6510.0 0.030435
6530.0 0.029817
6550.0 0.029355
6570.0 0.029219
6590.0 0.029168
6610.0 0.029092
6630.0 0.028173
6650.0 0.027575
6670.0 0.02742
6690.0 0.02705
6710.0 0.026462
6730.0 0.026273
6750.0 0.026449
6770.0 0.028181
6790.0 0.032224
6810.0 0.030208
6830.0 0.025946
6850.0 0.024937
6870.0 0.024405
6890.0 0.024272
6910.0 0.024172
6930.0 0.024096
6950.0 0.023719
6970.0 0.022922
6990.0 0.022499
7010.0 0.022615
7030.0 0.022384
7050.0 0.021807
7070.0 0.021602
7090.0 0.02172
7110.0 0.022041
7130.0 0.021732
7150.0 0.021473
7170.0 0.021311
7190.0 0.021476
7210.0 0.021163
7230.0 0.020867
7250.0 0.020874
7270.0 0.02072
7290.0 0.020643
7310.0 0.020894
7330.0 0.020467
7350.0 0.019769
7370.0 0.019027
7390.0 0.01848
7410.0 0.018585
7430.0 0.018488
7450.0 0.018328
7470.0 0.01811
7490.0 0.017662
7510.0 0.017338
7530.0 0.017169
7550.0 0.01799
7570.0 0.017809
7590.0 0.016309
7610.0 0.015676
7630.0 0.016512
7650.0 0.016456
7670.0 0.016702
7690.0 0.017537
7710.0 0.017694
7730.0 0.017336
7750.0 0.018301
7770.0 0.017222
7790.0 0.016441
7810.0 0.017457
7830.0 0.017732
7850.0 0.018278
7870.0 0.018191
7890.0 0.018298
7910.0 0.017961
7930.0 0.018118
7950.0 0.018989
7970.0 0.018629
7990.0 0.016968
8010.0 0.017148
8030.0 0.016924
8050.0 0.016612
8070.0 0.016198
8090.0 0.014695
8110.0 0.014701
8130.0 0.015974
8150.0 0.016664
8170.0 0.016899
8190.0 0.017437
8210.0 0.017036
8230.0 0.016854
8250.0 0.016829
8270.0 0.016538
8290.0 0.016206
8310.0 0.015431
8330.0 0.015382
8350.0 0.015676
8370.0 0.015784
8390.0 0.015636
8410.0 0.015425
8430.0 0.015104
8450.0 0.015029
8470.0 0.015722
8490.0 0.015872
8510.0 0.015161
8530.0 0.014681
8550.0 0.014579
8570.0 0.014067
8590.0 0.013903
8610.0 0.014147
8630.0 0.01425
8650.0 0.014171
8670.0 0.01409
8690.0 0.013896
8710.0 0.013314
8730.0 0.013218
8750.0 0.012943
8770.0 0.01298
8790.0 0.012949
8810.0 0.012546
8830.0 0.012558
8850.0 0.012742
8870.0 0.012128
8890.0 0.01158
8910.0 0.01124
8930.0 0.010816
8950.0 0.010443
8970.0 0.010008
8990.0 0.009833
9010.0 0.0094367
9030.0 0.0093219
9050.0 0.0092669
9070.0 0.0092146
9090.0 0.0091617
9110.0 0.0091075
9130.0 0.0090533
9150.0 0.0090001
9170.0 0.0089462
9190.0 0.0088919
9210.0 0.0088371
9230.0 0.008782
9250.0 0.0087267
9270.0 0.0086711
9290.0 0.0086153
9310.0 0.0085609
9330.0 0.0085086
9350.0 0.0084561
9370.0 0.0084035
9390.0 0.0083509
9410.0 0.0082981
9430.0 0.0082453
9450.0 0.0081925
9470.0 0.0081448
9490.0 0.0080943
9510.0 0.0080389
9530.0 0.0079841
9550.0 0.0079305
9570.0 0.0078776
9590.0 0.0078248
9610.0 0.0077742
9630.0 0.0077244
9650.0 0.0076745
9670.0 0.0076246
9690.0 0.0075751
9710.0 0.007526
9730.0 0.0074768
9750.0 0.0074279
9770.0 0.0073797
9790.0 0.0073314
9810.0 0.0072833
9830.0 0.0072356
9850.0 0.0071841
9870.0 0.0071313
9890.0 0.0070889
9910.0 0.0070453
9930.0 0.0069937
9950.0 0.0069481
9970.0 0.0069063
9990.0 0.0068634
10010.0 0.0068207
10030.0 0.0067775
10050.0 0.006734
10070.0 0.006691
10090.0 0.0066486
10110.0 0.0066059
10130.0 0.0065637
10150.0 0.0065224
10170.0 0.0064814
10190.0 0.0064405
10210.0 0.0064004
10230.0 0.006361
10250.0 0.0063216
10270.0 0.0062827
10290.0 0.0062446
10310.0 0.0062067
10330.0 0.0061689
10350.0 0.0061321
10370.0 0.0060957
10390.0 0.0060592
10410.0 0.00602
10430.0 0.0059805
10450.0 0.0059497
10470.0 0.0059171
10490.0 0.0058849
10510.0 0.0058527
10530.0 0.0058196
10550.0 0.0057873
10570.0 0.005756
10590.0 0.0057245
10610.0 0.0056931
10630.0 0.0056629
10650.0 0.0056331
10670.0 0.0056029
10690.0 0.0055736
10710.0 0.0055452
10730.0 0.0055166
10750.0 0.0054879
10770.0 0.0054608
10790.0 0.0054339
10810.0 0.0054068
10830.0 0.0053805
10850.0 0.0053552
10870.0 0.0053291
10890.0 0.0053034
10910.0 0.0052787
10930.0 0.005254
10950.0 0.0052286
10970.0 0.0052036
10990.0 0.005179
11010.0 0.0051956
11030.0 0.0051692
11050.0 0.0051441
11070.0 0.0051188
11090.0 0.0050917
11110.0 0.005066
11130.0 0.0050405
11150.0 0.0050135
11170.0 0.0049859
11190.0 0.0049595
11210.0 0.004932
11230.0 0.0049034
11250.0 0.004876
11270.0 0.0048496
11290.0 0.0048224
11310.0 0.0047962
11330.0 0.0047731
11350.0 0.0047506
11370.0 0.0047289
11390.0 0.0047098
11410.0 0.0046924
11430.0 0.004675
11450.0 0.0046593
11470.0 0.0046452
11490.0 0.0046313
11510.0 0.0046171
11530.0 0.0046041
11550.0 0.0045911
11570.0 0.0045769
11590.0 0.0045624
11610.0 0.0045482
11630.0 0.0045322
11650.0 0.0045148
11670.0 0.0044978
11690.0 0.0044801
11710.0 0.0044607
11730.0 0.004441
11750.0 0.0044219
11770.0 0.0044014
11790.0 0.0043802
11810.0 0.0043599
11830.0 0.0043398
11850.0 0.0043184
11870.0 0.0042984
11890.0 0.0042799
11910.0 0.0042613
11930.0 0.0042433
11950.0 0.0042274
11970.0 0.0042124
11990.0 0.0041977
12010.0 0.004185
12030.0 0.004174
12050.0 0.0041638
12070.0 0.0041545
12090.0 0.0041476
12110.0 0.0041416
12130.0 0.0041362
12150.0 0.0041321
12170.0 0.0041291
12190.0 0.0041258
12210.0 0.0041229
12230.0 0.0041204
12250.0 0.0041173
12270.0 0.0041132
12290.0 0.0041083
12310.0 0.0041027
12330.0 0.0040948
12350.0 0.0040851
12370.0 0.0040742
12390.0 0.0040609
12410.0 0.0040443
12430.0 0.0040268
12450.0 0.0040076
12470.0 0.0039855
12490.0 0.0039615
12510.0 0.0039373
12530.0 0.0039107
12550.0 0.0038819
12570.0 0.0038533
12590.0 0.0038242
12610.0 0.003793
12630.0 0.0037614
12650.0 0.0037317
12670.0 0.0037011
12690.0 0.00367
12710.0 0.0036407
12730.0 0.0036124
12750.0 0.0035832
12770.0 0.003556
12790.0 0.0035308
12810.0 0.0035064
12830.0 0.0034827
12850.0 0.0034619
12870.0 0.0034427
12890.0 0.0034244
12910.0 0.0034083
12930.0 0.0033944
12950.0 0.0033818
12970.0 0.0033709
12990.0 0.0033625
13010.0 0.0033559
13030.0 0.0033508
13050.0 0.0033476
13070.0 0.003346
13090.0 0.0033454
13110.0 0.0033458
13130.0 0.0033469
13150.0 0.0033481
13170.0 0.003349
13190.0 0.0033493
13210.0 0.0033485
13230.0 0.0033462
13250.0 0.0033421
13270.0 0.0033362
13290.0 0.0033281
13310.0 0.0033173
13330.0 0.0033044
13350.0 0.0032896
13370.0 0.0032721
13390.0 0.0032521
13410.0 0.0032312
13430.0 0.0032083
13450.0 0.0031829
13470.0 0.0031566
13490.0 0.0031297
13510.0 0.0030998
13530.0 0.0030692
13550.0 0.0030387
13570.0 0.003007
13590.0 0.0029736
13610.0 0.0029407
13630.0 0.0029081
13650.0 0.0028738
13670.0 0.0028394
13690.0 0.002806
13710.0 0.0027722
13730.0 0.0027369
13750.0 0.0027039
13770.0 0.0026715
13790.0 0.0026387
13810.0 0.0026067
13830.0 0.0025768
13850.0 0.0025469
13870.0 0.0025173
13890.0 0.0024896
13910.0 0.0024632
13930.0 0.0024367
13950.0 0.0024113
13970.0 0.0023881
13990.0 0.002365
14010.0 0.0023425
14030.0 0.0023214
14050.0 0.0023013
14070.0 0.002281
14090.0 0.0022621
14110.0 0.0022443
14130.0 0.0022269
14150.0 0.0022099
14170.0 0.0021942
14190.0 0.0021791
14210.0 0.0021641
14230.0 0.0021498
14250.0 0.0021363
14270.0 0.0021227
14290.0 0.0021092
14310.0 0.0020965
14330.0 0.0020839
14350.0 0.0020712
14370.0 0.0020589
14390.0 0.002047
14410.0 0.0020348
14430.0 0.0020227
14450.0 0.002011
14470.0 0.0019993
14490.0 0.0019872
14510.0 0.0019755
14530.0 0.0019641
14550.0 0.0019523
14570.0 0.0019405
14590.0 0.001929
14610.0 0.0019173
14630.0 0.0019052
14650.0 0.0018933
14670.0 0.0018814
14690.0 0.0018692
14710.0 0.0018568
14730.0 0.0018448
14750.0 0.0018325
14770.0 0.0018199
14790.0 0.0018074
14810.0 0.0017949
14830.0 0.0017818
14850.0 0.0017686
14870.0 0.0017558
14890.0 0.0017427
14910.0 0.0017295
14930.0 0.0017168
14950.0 0.0017047
14970.0 0.0016928
14990.0 0.0016817
15010.0 0.0016717
15030.0 0.0016624
15050.0 0.0016536
15070.0 0.0016457
15090.0 0.0016383
15110.0 0.0016311
15130.0 0.0016242
15150.0 0.0016175
15170.0 0.0016108
15190.0 0.001604
15210.0 0.0015974
15230.0 0.0015909
15250.0 0.0015843
15270.0 0.0015777
15290.0 0.0015713
15310.0 0.0015648
15330.0 0.0015584
15350.0 0.001552
15370.0 0.0015458
15390.0 0.0015393
15410.0 0.001533
15430.0 0.0015268
15450.0 0.0015206
15470.0 0.0015143
15490.0 0.0015083
15510.0 0.0015023
15530.0 0.0014961
15550.0 0.0014901
15570.0 0.0014842
15590.0 0.0014782
15610.0 0.0014722
15630.0 0.0014664
15650.0 0.0014606
15670.0 0.0014548
15690.0 0.001449
15710.0 0.0014434
15730.0 0.0014377
15750.0 0.001432
15770.0 0.0014265
15790.0 0.001421
15810.0 0.0014153
15830.0 0.0014099
15850.0 0.0014046
15870.0 0.0013991
15890.0 0.0013937
15910.0 0.0013885
15930.0 0.0013833
15950.0 0.001378
15970.0 0.0013728
15990.0 0.0013677
16010.0 0.0013626
16030.0 0.0013574
16050.0 0.0013525
16070.0 0.0013475
16090.0 0.0013425
16110.0 0.0013376
16130.0 0.0013329
16150.0 0.0013279
16170.0 0.0013231
16190.0 0.0013184
16210.0 0.0013137
16230.0 0.0013089
16250.0 0.0013043
16270.0 0.0012998
16290.0 0.0012952
16310.0 0.0012906
16330.0 0.0012862
16350.0 0.0012817
16370.0 0.0012771
16390.0 0.0012728
16410.0 0.0012685
16430.0 0.0012641
16450.0 0.0012598
16470.0 0.0012557
16490.0 0.0012514
16510.0 0.0012471
16530.0 0.001243
16550.0 0.0012389
16570.0 0.0012347
16590.0 0.0012306
16610.0 0.0012267
16630.0 0.0012227
16650.0 0.0012186
16670.0 0.0012147
16690.0 0.0012109
16710.0 0.0012069
16730.0 0.001203
16750.0 0.0011992
16770.0 0.0011954
16790.0 0.0011915
16810.0 0.0011878
16830.0 0.0011842
16850.0 0.0011804
16870.0 0.0011767
16890.0 0.0011731
16910.0 0.0011694
16930.0 0.0011657
16950.0 0.0011622
16970.0 0.0011587
16990.0 0.0011551
17010.0 0.0011516
17030.0 0.0011482
17050.0 0.0011446
17070.0 0.0011411
17090.0 0.0011378
17110.0 0.0011344
17130.0 0.0011308
17150.0 0.0011275
17170.0 0.0011242
17190.0 0.0011208
17210.0 0.0011175
17230.0 0.0011143
17250.0 0.001111
17270.0 0.0011076
17290.0 0.0011044
17310.0 0.0011012
17330.0 0.0010979
17350.0 0.0010946
17370.0 0.0010915
17390.0 0.0010883
17410.0 0.0010851
17430.0 0.001082
17450.0 0.0010789
17470.0 0.0010757
17490.0 0.0010725
17510.0 0.0010695
17530.0 0.0010664
17550.0 0.0010632
17570.0 0.0010602
17590.0 0.0010572
17610.0 0.0010541
17630.0 0.001051
17650.0 0.0010481
17670.0 0.001045
17690.0 0.0010418
17710.0 0.0010389
17730.0 0.001036
17750.0 0.0010329
17770.0 0.0010299
17790.0 0.0010271
17810.0 0.001024
17830.0 0.001021
17850.0 0.0010181
17870.0 0.0010152
17890.0 0.0010121
17910.0 0.0010091
17930.0 0.0010063
17950.0 0.0010033
17970.0 0.0010003
17990.0 0.00099748
18010.0 0.00099461
18030.0 0.00099155
18050.0 0.00098862
18070.0 0.00098578
18090.0 0.00098283
18110.0 0.00097983
18130.0 0.00097701
18150.0 0.00097415
18170.0 0.00097116
18190.0 0.00096826
18210.0 0.00096545
18230.0 0.00096247
18250.0 0.00095946
18270.0 0.00095664
18290.0 0.00095376
18310.0 0.00095078
18330.0 0.00094789
18350.0 0.00094509
18370.0 0.00094211
18390.0 0.00093915
18410.0 0.00093631
18430.0 0.00093341
18450.0 0.00093036
18470.0 0.00092747
18490.0 0.00092464
18510.0 0.00092167
18530.0 0.00091871
18550.0 0.0009159
18570.0 0.00091296
18590.0 0.00090991
18610.0 0.000907
18630.0 0.00090413
18650.0 0.00090111
18670.0 0.00089809
18690.0 0.00089526
18710.0 0.00089231
18730.0 0.00088928
18750.0 0.00088636
18770.0 0.00088348
18790.0 0.00088036
18810.0 0.00087734
18830.0 0.00087445
18850.0 0.00087145
18870.0 0.00086837
18890.0 0.00086544
18910.0 0.00086251
18930.0 0.00085941
18950.0 0.00085638
18970.0 0.00085344
18990.0 0.00085039
19010.0 0.00084719
19030.0 0.00084424
19050.0 0.00084125
19070.0 0.00083812
19090.0 0.00083505
19110.0 0.00083212
19130.0 0.00082898
19150.0 0.00082581
19170.0 0.00082278
19190.0 0.00081972
19210.0 0.00081651
19230.0 0.00081337
19250.0 0.00081038
19270.0 0.00080722
19290.0 0.00080403
19310.0 0.00080098
19330.0 0.00079788
19350.0 0.00079457
19370.0 0.00079141
19390.0 0.00078832
19410.0 0.0007851
19430.0 0.00078183
19450.0 0.00077874
19470.0 0.00077558
19490.0 0.00077228
19510.0 0.00076908
19530.0 0.00076595
19550.0 0.00076262
19570.0 0.00075927
19590.0 0.00075612
19610.0 0.00075289
19630.0 0.00074954
19650.0 0.00074629
19670.0 0.00074312
19690.0 0.00073974
19710.0 0.00073639
19730.0 0.00073316
19750.0 0.00072985
19770.0 0.00072638
19790.0 0.00072309
19810.0 0.00071984
19830.0 0.00071644
19850.0 0.00071307
19870.0 0.00070985
19890.0 0.00070654
19910.0 0.00070319
19930.0 0.00070013
19950.0 0.00069727
19970.0 0.00069456
19990.0 0.00069223
20010.0 0.00069041
20030.0 0.0006889
20050.0 0.00068776
20070.0 0.000687
20090.0 0.0006865
20110.0 0.00068611
20130.0 0.00068588
20150.0 0.00068571
20170.0 0.00068553
20190.0 0.00068533
20210.0 0.00068512
20230.0 0.00068487
20250.0 0.00068453
20270.0 0.00068416
20290.0 0.00068375
20310.0 0.00068326
20330.0 0.00068266
20350.0 0.00068208
20370.0 0.00068144
20390.0 0.00068069
20410.0 0.00067992
20430.0 0.00067916
20450.0 0.00067829
20470.0 0.00067739
20490.0 0.00067653
20510.0 0.00067565
20530.0 0.00067472
20550.0 0.00067385
20570.0 0.00067305
20590.0 0.00067222
20610.0 0.00067141
20630.0 0.00067068
20650.0 0.00066996
20670.0 0.00066919
20690.0 0.00066849
20710.0 0.0006678
20730.0 0.00066704
20750.0 0.00066623
20770.0 0.00066543
20790.0 0.00066452
20810.0 0.00066348
20830.0 0.00066238
20850.0 0.00066119
20870.0 0.0006598
20890.0 0.00065828
20910.0 0.00065675
20930.0 0.00065507
20950.0 0.00065323
20970.0 0.00065138
20990.0 0.0006495
21010.0 0.00064743
21030.0 0.00064537
21050.0 0.00064338
21070.0 0.00064133
21090.0 0.0006392
21110.0 0.00063723
21130.0 0.0006353
21150.0 0.00063331
21170.0 0.00063138
21190.0 0.00062956
21210.0 0.00062766
21230.0 0.00062572
21250.0 0.00062388
21270.0 0.00062204
21290.0 0.00062008
21310.0 0.00061811
21330.0 0.00061621
21350.0 0.00061417
21370.0 0.00061203
21390.0 0.00060991
21410.0 0.00060775
21430.0 0.00060534
21450.0 0.00060297
21470.0 0.00060062
21490.0 0.00059812
21510.0 0.00059552
21530.0 0.000593
21550.0 0.00059043
21570.0 0.00058768
21590.0 0.00058498
21610.0 0.00058235
21630.0 0.00057961
21650.0 0.00057676
21670.0 0.00057414
21690.0 0.00057148
21710.0 0.00056874
21730.0 0.00056607
21750.0 0.00056353
21770.0 0.00056081
21790.0 0.00055813
21810.0 0.00055557
21830.0 0.00055299
21850.0 0.00055031
21870.0 0.00054772
21890.0 0.00054524
21910.0 0.00054264
21930.0 0.00054006
21950.0 0.00053762
21970.0 0.00053516
21990.0 0.00053259
22010.0 0.00053024
22030.0 0.00052799
22050.0 0.00052572
22070.0 0.00052355
22090.0 0.00052161
22110.0 0.00051971
22130.0 0.00051787
22150.0 0.00051622
22170.0 0.00051473
22190.0 0.00051325
22210.0 0.00051191
22230.0 0.00051079
22250.0 0.00050971
22270.0 0.00050868
22290.0 0.0005078
22310.0 0.000507
22330.0 0.00050617
22350.0 0.00050541
22370.0 0.00050473
22390.0 0.00050403
22410.0 0.00050329
22430.0 0.00050262
22450.0 0.00050196
22470.0 0.00050123
22490.0 0.0005005
22510.0 0.00049982
22530.0 0.00049907
22550.0 0.00049827
22570.0 0.00049754
22590.0 0.00049683
22610.0 0.00049606
22630.0 0.00049535
22650.0 0.00049474
22670.0 0.00049411
22690.0 0.00049352
22710.0 0.00049305
22730.0 0.00049265
22750.0 0.00049225
22770.0 0.000492
22790.0 0.00049189
22810.0 0.00049183
22830.0 0.00049186
22850.0 0.00049204
22870.0 0.00049231
22890.0 0.00049265
22910.0 0.00049311
22930.0 0.00049367
22950.0 0.00049429
22970.0 0.00049498
22990.0 0.00049579
23010.0 0.00049666
23030.0 0.00049759
23050.0 0.0004986
23070.0 0.0004997
23090.0 0.00050086
23110.0 0.00050209
23130.0 0.00050343
23150.0 0.00050488
23170.0 0.00050645
23190.0 0.00050816
23210.0 0.00051
23230.0 0.00051199
23250.0 0.00051414
23270.0 0.00051643
23290.0 0.00051887
23310.0 0.00052148
23330.0 0.00052418
23350.0 0.00052698
23370.0 0.0005299
23390.0 0.00053288
23410.0 0.00053587
23430.0 0.00053891
23450.0 0.00054198
23470.0 0.00054502
23490.0 0.00054802
23510.0 0.00055104
23530.0 0.00055402
23550.0 0.00055693
23570.0 0.00055985
23590.0 0.00056277
23610.0 0.00056568
23630.0 0.00056861
23650.0 0.00057161
23670.0 0.00057466
23690.0 0.00057777
23710.0 0.00058097
23730.0 0.00058431
23750.0 0.00058772
23770.0 0.00059126
23790.0 0.00059497
23810.0 0.00059882
23830.0 0.0006028
23850.0 0.00060699
23870.0 0.0006114
23890.0 0.00061594
