#lamb flux
1010.0 4.5364e-08
1030.0 4.9731e-08
1050.0 5.4754e-08
1070.0 6.0409e-08
1090.0 6.6832e-08
1110.0 7.342e-08
1130.0 8.0051e-08
1150.0 8.6996e-08
1170.0 9.416e-08
1190.0 1.0095e-07
1210.0 1.0784e-07
1230.0 1.1495e-07
1250.0 1.2192e-07
1270.0 1.2869e-07
1290.0 1.3585e-07
1310.0 1.4299e-07
1330.0 1.4985e-07
1350.0 1.5678e-07
1370.0 1.6393e-07
1390.0 1.7091e-07
1410.0 1.7768e-07
1430.0 1.8475e-07
1450.0 1.9183e-07
1470.0 1.9866e-07
1490.0 2.0557e-07
1510.0 2.1287e-07
1530.0 2.1978e-07
1550.0 2.2659e-07
1570.0 2.3364e-07
1590.0 2.407e-07
1610.0 2.4743e-07
1630.0 2.5437e-07
1650.0 2.615e-07
1670.0 2.6838e-07
1690.0 2.7517e-07
1710.0 2.8221e-07
1730.0 2.8928e-07
1750.0 2.9592e-07
1770.0 3.0275e-07
1790.0 3.097e-07
1810.0 3.1641e-07
1830.0 3.2298e-07
1850.0 3.2995e-07
1870.0 3.367e-07
1890.0 3.4319e-07
1910.0 3.4978e-07
1930.0 3.565e-07
1950.0 3.6286e-07
1970.0 3.6908e-07
1990.0 3.7551e-07
2010.0 3.8175e-07
2030.0 3.8769e-07
2050.0 3.9374e-07
2070.0 3.9988e-07
2090.0 4.0554e-07
2110.0 4.1107e-07
2130.0 4.1668e-07
2150.0 4.2204e-07
2170.0 4.2699e-07
2190.0 4.3203e-07
2210.0 4.3696e-07
2230.0 4.4146e-07
2250.0 4.4577e-07
2270.0 4.5018e-07
2290.0 4.5419e-07
2310.0 4.5776e-07
2330.0 4.6137e-07
2350.0 4.6493e-07
2370.0 4.6823e-07
2390.0 4.7184e-07
2410.0 4.7645e-07
2430.0 4.8201e-07
2450.0 4.8907e-07
2470.0 4.9889e-07
2490.0 5.1202e-07
2510.0 5.2727e-07
2530.0 5.4641e-07
2550.0 5.715e-07
2570.0 6.0384e-07
2590.0 6.4694e-07
2610.0 7.1277e-07
2630.0 8.0629e-07
2650.0 9.2626e-07
2670.0 1.0781e-06
2690.0 1.26e-06
2710.0 1.4478e-06
2730.0 1.6263e-06
2750.0 1.7954e-06
2770.0 1.9343e-06
2790.0 2.0356e-06
2810.0 2.1077e-06
2830.0 2.1558e-06
2850.0 2.1786e-06
2870.0 2.1874e-06
2890.0 2.1881e-06
2910.0 2.1831e-06
2930.0 2.1743e-06
2950.0 2.165e-06
2970.0 2.1556e-06
2990.0 2.1458e-06
3010.0 6.8457e-05
3030.0 6.8177e-05
3050.0 6.7901e-05
3070.0 6.7585e-05
3090.0 6.7234e-05
3110.0 6.6778e-05
3130.0 6.6133e-05
3150.0 6.5239e-05
3170.0 6.3969e-05
3190.0 6.2345e-05
3210.0 6.0473e-05
3230.0 5.843e-05
3250.0 5.6343e-05
3270.0 5.4778e-05
3290.0 5.3585e-05
3310.0 5.3308e-05
3330.0 5.3643e-05
3350.0 5.4577e-05
3370.0 5.61e-05
3390.0 5.8137e-05
3410.0 6.0421e-05
3430.0 6.3034e-05
3450.0 6.6082e-05
3470.0 6.945e-05
3490.0 7.3072e-05
3510.0 7.7204e-05
3530.0 8.1724e-05
3550.0 8.6577e-05
3570.0 9.1936e-05
3590.0 9.7925e-05
3610.0 0.00010461
3630.0 0.00011125
3650.0 0.0001183
3670.0 0.00012464
3690.0 0.00012936
3710.0 0.00013172
3730.0 0.0001303
3750.0 0.00012519
3770.0 0.00012806
3790.0 0.00012511
3810.0 9.6454e-05
3830.0 9.2659e-05
3850.0 0.00013657
3870.0 0.00013179
3890.0 9.9723e-05
3910.0 9.6938e-05
3930.0 0.00012379
3950.0 0.00014813
3970.0 0.00016838
3990.0 0.00011582
4010.0 0.00021673
4030.0 0.00020908
4050.0 0.00022061
4070.0 0.00025016
4090.0 0.00023698
4110.0 0.000209
4130.0 0.00025763
4150.0 0.00034543
4170.0 0.0002734
4190.0 0.00024109
4210.0 0.00027194
4230.0 0.0003374
4250.0 0.00040345
4270.0 0.00043869
4290.0 0.00038962
4310.0 0.00035978
4330.0 0.00035605
4350.0 0.00045662
4370.0 0.00055579
4390.0 0.00044099
4410.0 0.0002452
4430.0 0.00017312
4450.0 0.00016175
4470.0 9.9765e-05
4490.0 0.00017678
4510.0 0.00038125
4530.0 0.00046523
4550.0 0.00043847
4570.0 0.00039218
4590.0 0.00041957
4610.0 0.00083511
4630.0 0.0011725
4650.0 0.001105
4670.0 0.00097052
4690.0 0.00099804
4710.0 0.0010448
4730.0 0.00085082
4750.0 0.00054727
4770.0 0.00037503
4790.0 0.00041982
4810.0 0.00044277
4830.0 0.00043891
4850.0 0.00047698
4870.0 0.00063196
4890.0 0.00073222
4910.0 0.00056604
4930.0 0.00055016
4950.0 0.00063505
4970.0 0.00084861
4990.0 0.0011451
5010.0 0.0013217
5030.0 0.0010506
5050.0 0.00063782
5070.0 0.00045478
5090.0 0.00034624
5110.0 0.00032288
5130.0 0.00038759
5150.0 0.00037276
5170.0 0.00034948
5190.0 0.00031025
5210.0 0.00034555
5230.0 0.00043367
5250.0 0.00050807
5270.0 0.00046721
5290.0 0.00050439
5310.0 0.00068238
5330.0 0.00072851
5350.0 0.00071745
5370.0 0.00081055
5390.0 0.0010138
5410.0 0.00086139
5430.0 0.00065334
5450.0 0.00066243
5470.0 0.0007765
5490.0 0.00097633
5510.0 0.00119
5530.0 0.0013804
5550.0 0.0012416
5570.0 0.0011112
5590.0 0.00091002
5610.0 0.00092898
5630.0 0.0010507
5650.0 0.00096997
5670.0 0.00089213
5690.0 0.00071736
5710.0 0.00073954
5730.0 0.00072147
5750.0 0.00038373
5770.0 0.00027377
5790.0 0.00034241
5810.0 0.00036146
5830.0 0.00057107
5850.0 0.00074822
5870.0 0.00079984
5890.0 0.00075786
5910.0 0.00073582
5930.0 0.00071044
5950.0 0.00073475
5970.0 0.00091613
5990.0 0.00074693
6010.0 0.00057088
6030.0 0.00046374
6050.0 0.00041436
6070.0 0.00050082
6090.0 0.00056647
6110.0 0.0005744
6130.0 0.00052387
6150.0 0.00040988
6170.0 0.00031962
6190.0 0.00039571
6210.0 0.00063305
6230.0 0.00093649
6250.0 0.0010043
6270.0 0.0007613
6290.0 0.00065211
6310.0 0.00049689
6330.0 0.00036111
6350.0 0.00035732
6370.0 0.00037528
6390.0 0.00045156
6410.0 0.00058454
6430.0 0.00070535
6450.0 0.00087083
6470.0 0.00091748
6490.0 0.001101
6510.0 0.0012359
6530.0 0.0012592
6550.0 0.0011606
6570.0 0.00093554
6590.0 0.00089854
6610.0 0.00074283
6630.0 0.00077773
6650.0 0.00075448
6670.0 0.00065863
6690.0 0.00050938
6710.0 0.000499
6730.0 0.0002153
6750.0 0.00029266
6770.0 0.00046709
6790.0 0.00062402
6810.0 0.00044124
6830.0 0.00045046
6850.0 0.00037392
6870.0 0.00035239
6890.0 0.00029563
6910.0 0.00035951
6930.0 0.00033805
6950.0 0.00040904
6970.0 0.00042208
6990.0 0.00046733
7010.0 0.00045338
7030.0 0.00051827
7050.0 0.00044556
7070.0 0.0003695
7090.0 0.00039587
7110.0 0.00041729
7130.0 0.00048104
7150.0 0.00054892
7170.0 0.00061484
7190.0 0.00065067
7210.0 0.00057361
7230.0 0.00057957
7250.0 0.00062408
7270.0 0.00067366
7290.0 0.00082758
7310.0 0.00086551
7330.0 0.00080096
7350.0 0.00071554
7370.0 0.00052246
7390.0 0.00054553
7410.0 0.00067972
7430.0 0.00077527
7450.0 0.00083392
7470.0 0.00076239
7490.0 0.00061512
7510.0 0.0010182
7530.0 0.00091593
7550.0 0.00086089
7570.0 0.00057631
7590.0 0.00024303
7610.0 0.00016658
7630.0 0.00026324
7650.0 0.00035882
7670.0 0.00058428
7690.0 0.00065393
7710.0 0.00058273
7730.0 0.00057254
7750.0 0.00076083
7770.0 0.00078132
7790.0 0.00071593
7810.0 0.00057512
7830.0 0.00062376
7850.0 0.00068886
7870.0 0.00067728
7890.0 0.00052764
7910.0 0.00034786
7930.0 0.00036105
7950.0 0.00032527
7970.0 0.00027182
7990.0 0.00024314
8010.0 0.00016534
8030.0 0.00015286
8050.0 0.00016469
8070.0 0.00018291
8090.0 0.00021976
8110.0 0.0002058
8130.0 0.00012646
8150.0 0.00012913
8170.0 7.6453e-05
8190.0 5.0072e-05
8210.0 0.00011534
8230.0 0.00013783
8250.0 5.9569e-05
8270.0 4.7738e-05
8290.0 8.2725e-05
8310.0 7.102e-05
8330.0 4.3462e-05
8350.0 3.4946e-05
8370.0 9.907e-06
8390.0 3.7634e-05
8410.0 4.408e-05
8430.0 5.4884e-05
8450.0 6.1643e-05
8470.0 0.00010063
8490.0 8.2415e-05
8510.0 6.426e-05
8530.0 3.3693e-05
8550.0 0.00011135
8570.0 0.00017269
8590.0 0.00012279
8610.0 0.00018234
8630.0 0.00019826
8650.0 0.00010987
8670.0 0.00015857
8690.0 0.00024318
8710.0 0.00020982
8730.0 0.00022547
8750.0 0.00017846
8770.0 0.00015932
8790.0 0.0001765
8810.0 0.00019046
8830.0 0.00010761
8850.0 4.9212e-05
8870.0 3.5666e-05
8890.0 8.3195e-05
8910.0 0.00012954
8930.0 0.0001698
8950.0 0.00019086
8970.0 0.00018439
8990.0 0.00014041
9010.0 0.00011096
9030.0 8.4911e-05
9050.0 8.8528e-05
9070.0 9.2167e-05
9090.0 9.5098e-05
9110.0 9.86e-05
9130.0 0.00010113
9150.0 0.00010295
9170.0 0.00010488
9190.0 0.00010695
9210.0 0.00010912
9230.0 0.00011141
9250.0 0.00011373
9270.0 0.00011613
9290.0 0.00011859
9310.0 0.00012105
9330.0 0.00012355
9350.0 0.00012613
9370.0 0.00012872
9390.0 0.00013133
9410.0 0.000134
9430.0 0.00013675
9450.0 0.00013947
9470.0 0.00014224
9490.0 0.00014509
9510.0 0.00014796
9530.0 0.00015083
9550.0 0.0001538
9570.0 0.00015681
9590.0 0.00015982
9610.0 0.00016288
9630.0 0.00016602
9650.0 0.00016918
9670.0 0.00017233
9690.0 0.00017558
9710.0 0.00017886
9730.0 0.00018215
9750.0 0.00018548
9770.0 0.00018892
9790.0 0.00019234
9810.0 0.00019578
9830.0 0.00019929
9850.0 0.00020284
9870.0 0.00020637
9890.0 0.00020996
9910.0 0.00021362
9930.0 0.00021727
9950.0 0.00022094
9970.0 0.00022468
9990.0 0.00022846
10010.0 0.00020577
10030.0 0.0002091
10050.0 0.00021247
10070.0 0.0002158
10090.0 0.00021918
10110.0 0.00022262
10130.0 0.00022606
10150.0 0.00022947
10170.0 0.00023291
10190.0 0.00023639
10210.0 0.00023983
10230.0 0.00024326
10250.0 0.00024673
10270.0 0.0002502
10290.0 0.00025362
10310.0 0.00025708
10330.0 0.00026056
10350.0 0.00026398
10370.0 0.00026739
10390.0 0.00027083
10410.0 0.00027424
10430.0 0.00027758
10450.0 0.00028095
10470.0 0.00028431
10490.0 0.00028761
10510.0 0.00029088
10530.0 0.00029419
10550.0 0.00029743
10570.0 0.00030061
10590.0 0.00030378
10610.0 0.00030693
10630.0 0.00031
10650.0 0.00031304
10670.0 0.00031608
10690.0 0.00031905
10710.0 0.00032194
10730.0 0.00032483
10750.0 0.0003277
10770.0 0.00033044
10790.0 0.00033314
10810.0 0.00033581
10830.0 0.0003384
10850.0 0.00034085
10870.0 0.00034323
10890.0 0.00034537
10910.0 0.00034712
10930.0 0.00034833
10950.0 0.00034871
10970.0 0.00034798
10990.0 0.00034604
11010.0 0.00035103
11030.0 0.00034573
11050.0 0.00033908
11070.0 0.00033101
11090.0 0.00032122
11110.0 0.00031105
11130.0 0.00030043
11150.0 0.00028903
11170.0 0.00027732
11190.0 0.00026601
11210.0 0.0002544
11230.0 0.00024259
11250.0 0.00023137
11270.0 0.00022067
11290.0 0.00021
11310.0 0.00019995
11330.0 0.00019109
11350.0 0.00018273
11370.0 0.00017498
11390.0 0.00016822
11410.0 0.00016222
11430.0 0.00015658
11450.0 0.0001516
11470.0 0.00014719
11490.0 0.00014298
11510.0 0.00013886
11530.0 0.00013496
11550.0 0.00013107
11570.0 0.00012693
11590.0 0.00012268
11610.0 0.00011839
11630.0 0.0001138
11650.0 0.00010894
11670.0 0.0001042
11690.0 9.9425e-05
11710.0 9.4546e-05
11730.0 8.9835e-05
11750.0 8.5469e-05
11770.0 8.1191e-05
11790.0 7.7168e-05
11810.0 7.3589e-05
11830.0 7.035e-05
11850.0 6.7331e-05
11870.0 6.4742e-05
11890.0 6.2525e-05
11910.0 6.0524e-05
11930.0 5.8746e-05
11950.0 5.7203e-05
11970.0 5.5783e-05
11990.0 5.4416e-05
12010.0 5.3129e-05
12030.0 5.1883e-05
12050.0 5.0607e-05
12070.0 4.9296e-05
12090.0 4.803e-05
12110.0 4.6747e-05
12130.0 4.5453e-05
12150.0 4.4225e-05
12170.0 4.3097e-05
12190.0 4.2036e-05
12210.0 4.1141e-05
12230.0 4.0454e-05
12250.0 3.9976e-05
12270.0 3.9749e-05
12290.0 3.9788e-05
12310.0 4.0072e-05
12330.0 4.0652e-05
12350.0 4.15e-05
12370.0 4.2543e-05
12390.0 4.3812e-05
12410.0 4.5364e-05
12430.0 4.6961e-05
12450.0 4.8629e-05
12470.0 5.0421e-05
12490.0 5.2221e-05
12510.0 5.389e-05
12530.0 5.5546e-05
12550.0 5.7129e-05
12570.0 5.8493e-05
12590.0 5.9655e-05
12610.0 6.0663e-05
12630.0 6.1417e-05
12650.0 6.1862e-05
12670.0 6.2076e-05
12690.0 6.2029e-05
12710.0 6.1708e-05
12730.0 6.1146e-05
12750.0 6.0327e-05
12770.0 5.9288e-05
12790.0 5.8079e-05
12810.0 5.6685e-05
12830.0 5.5115e-05
12850.0 5.349e-05
12870.0 5.1793e-05
12890.0 4.9986e-05
12910.0 4.8162e-05
12930.0 4.6371e-05
12950.0 4.4522e-05
12970.0 4.2652e-05
12990.0 4.088e-05
13010.0 3.9134e-05
13030.0 3.7374e-05
13050.0 3.5679e-05
13070.0 3.4082e-05
13090.0 3.2478e-05
13110.0 3.0918e-05
13130.0 2.9465e-05
13150.0 2.8077e-05
13170.0 2.6709e-05
13190.0 2.5471e-05
13210.0 2.436e-05
13230.0 2.3325e-05
13250.0 2.2406e-05
13270.0 2.1646e-05
13290.0 2.1011e-05
13310.0 2.0512e-05
13330.0 2.0185e-05
13350.0 2.0018e-05
13370.0 2.0014e-05
13390.0 2.0186e-05
13410.0 2.0495e-05
13430.0 2.0954e-05
13450.0 2.1566e-05
13470.0 2.2279e-05
13490.0 2.3059e-05
13510.0 2.3969e-05
13530.0 2.4914e-05
13550.0 2.5837e-05
13570.0 2.6767e-05
13590.0 2.7694e-05
13610.0 2.8534e-05
13630.0 2.9281e-05
13650.0 2.9979e-05
13670.0 3.0572e-05
13690.0 3.104e-05
13710.0 3.1415e-05
13730.0 3.1697e-05
13750.0 3.1852e-05
13770.0 3.1909e-05
13790.0 3.1876e-05
13810.0 3.1751e-05
13830.0 3.155e-05
13850.0 3.1271e-05
13870.0 3.0915e-05
13890.0 3.0504e-05
13910.0 3.004e-05
13930.0 2.9507e-05
13950.0 2.8929e-05
13970.0 2.834e-05
13990.0 2.7704e-05
14010.0 2.7034e-05
14030.0 2.637e-05
14050.0 2.5705e-05
14070.0 2.5008e-05
14090.0 2.4342e-05
14110.0 2.3718e-05
14130.0 2.3115e-05
14150.0 2.2545e-05
14170.0 2.2057e-05
14190.0 2.1631e-05
14210.0 2.1264e-05
14230.0 2.0984e-05
14250.0 2.0794e-05
14270.0 2.0686e-05
14290.0 2.0674e-05
14310.0 2.0751e-05
14330.0 2.0915e-05
14350.0 2.1171e-05
14370.0 2.1501e-05
14390.0 2.1887e-05
14410.0 2.2352e-05
14430.0 2.2875e-05
14450.0 2.342e-05
14470.0 2.3999e-05
14490.0 2.4629e-05
14510.0 2.5247e-05
14530.0 2.5849e-05
14550.0 2.6467e-05
14570.0 2.7078e-05
14590.0 2.765e-05
14610.0 2.822e-05
14630.0 2.8798e-05
14650.0 2.9351e-05
14670.0 2.9895e-05
14690.0 3.0468e-05
14710.0 3.1073e-05
14730.0 3.1676e-05
14750.0 3.2338e-05
14770.0 3.3076e-05
14790.0 3.3865e-05
14810.0 3.4708e-05
14830.0 3.5688e-05
14850.0 3.6739e-05
14870.0 3.7824e-05
14890.0 3.8983e-05
14910.0 4.0203e-05
14930.0 4.1372e-05
14950.0 4.2465e-05
14970.0 4.3499e-05
14990.0 4.4376e-05
15010.0 4.506e-05
15030.0 4.5584e-05
15050.0 4.5954e-05
15070.0 4.6169e-05
15090.0 4.629e-05
15110.0 4.6344e-05
15130.0 4.6357e-05
15150.0 4.6351e-05
15170.0 4.6332e-05
15190.0 4.6306e-05
15210.0 4.6283e-05
15230.0 4.626e-05
15250.0 4.6234e-05
15270.0 4.621e-05
15290.0 4.6193e-05
15310.0 4.6172e-05
15330.0 4.6151e-05
15350.0 4.6134e-05
15370.0 4.6119e-05
15390.0 4.6098e-05
15410.0 4.6081e-05
15430.0 4.6068e-05
15450.0 4.6052e-05
15470.0 4.6035e-05
15490.0 4.6023e-05
15510.0 4.6011e-05
15530.0 4.5996e-05
15550.0 4.5983e-05
15570.0 4.5973e-05
15590.0 4.5959e-05
15610.0 4.5943e-05
15630.0 4.5933e-05
15650.0 4.5922e-05
15670.0 4.5908e-05
15690.0 4.5896e-05
15710.0 4.5887e-05
15730.0 4.5874e-05
15750.0 4.586e-05
15770.0 4.5849e-05
15790.0 4.5838e-05
15810.0 4.582e-05
15830.0 4.5807e-05
15850.0 4.5797e-05
15870.0 4.5781e-05
15890.0 4.5765e-05
15910.0 4.5754e-05
15930.0 4.5739e-05
15950.0 4.5719e-05
15970.0 4.5703e-05
15990.0 4.5688e-05
16010.0 4.5668e-05
16030.0 4.5646e-05
16050.0 4.5631e-05
16070.0 4.5611e-05
16090.0 4.5588e-05
16110.0 4.5567e-05
16130.0 4.5548e-05
16150.0 4.552e-05
16170.0 4.5494e-05
16190.0 4.5471e-05
16210.0 4.5444e-05
16230.0 4.5414e-05
16250.0 4.5387e-05
16270.0 4.536e-05
16290.0 4.5327e-05
16310.0 4.5294e-05
16330.0 4.5263e-05
16350.0 4.5229e-05
16370.0 4.5188e-05
16390.0 4.5153e-05
16410.0 4.5117e-05
16430.0 4.5076e-05
16450.0 4.5034e-05
16470.0 4.4996e-05
16490.0 4.4952e-05
16510.0 4.4904e-05
16530.0 4.4859e-05
16550.0 4.4813e-05
16570.0 4.4761e-05
16590.0 4.4709e-05
16610.0 4.4661e-05
16630.0 4.4607e-05
16650.0 4.455e-05
16670.0 4.4496e-05
16690.0 4.444e-05
16710.0 4.4376e-05
16730.0 4.4315e-05
16750.0 4.4255e-05
16770.0 4.419e-05
16790.0 4.4121e-05
16810.0 4.4057e-05
16830.0 4.399e-05
16850.0 4.3917e-05
16870.0 4.3846e-05
16890.0 4.3775e-05
16910.0 4.3698e-05
16930.0 4.3617e-05
16950.0 4.3542e-05
16970.0 4.3463e-05
16990.0 4.3379e-05
17010.0 4.3297e-05
17030.0 4.3216e-05
17050.0 4.3127e-05
17070.0 4.3038e-05
17090.0 4.2951e-05
17110.0 4.2861e-05
17130.0 4.2763e-05
17150.0 4.2669e-05
17170.0 4.2577e-05
17190.0 4.2478e-05
17210.0 4.2378e-05
17230.0 4.2281e-05
17250.0 4.218e-05
17270.0 4.2072e-05
17290.0 4.1968e-05
17310.0 4.1864e-05
17330.0 4.1753e-05
17350.0 4.1641e-05
17370.0 4.1534e-05
17390.0 4.1422e-05
17410.0 4.1305e-05
17430.0 4.1192e-05
17450.0 4.1078e-05
17470.0 4.0955e-05
17490.0 4.0834e-05
17510.0 4.0716e-05
17530.0 4.0593e-05
17550.0 4.0466e-05
17570.0 4.0343e-05
17590.0 4.022e-05
17610.0 4.0089e-05
17630.0 3.9959e-05
17650.0 3.9832e-05
17670.0 3.97e-05
17690.0 3.9561e-05
17710.0 3.943e-05
17730.0 3.9297e-05
17750.0 3.9158e-05
17770.0 3.902e-05
17790.0 3.8886e-05
17810.0 3.8744e-05
17830.0 3.86e-05
17850.0 3.846e-05
17870.0 3.8318e-05
17890.0 3.817e-05
17910.0 3.8024e-05
17930.0 3.7882e-05
17950.0 3.7734e-05
17970.0 3.7583e-05
17990.0 3.7437e-05
18010.0 3.7289e-05
18030.0 3.7133e-05
18050.0 3.6981e-05
18070.0 3.6831e-05
18090.0 3.6676e-05
18110.0 3.6518e-05
18130.0 3.6367e-05
18150.0 3.6212e-05
18170.0 3.6053e-05
18190.0 3.5896e-05
18210.0 3.5741e-05
18230.0 3.5579e-05
18250.0 3.5416e-05
18270.0 3.5259e-05
18290.0 3.5099e-05
18310.0 3.4935e-05
18330.0 3.4774e-05
18350.0 3.4615e-05
18370.0 3.4449e-05
18390.0 3.4284e-05
18410.0 3.4122e-05
18430.0 3.3958e-05
18450.0 3.3788e-05
18470.0 3.3624e-05
18490.0 3.3461e-05
18510.0 3.3293e-05
18530.0 3.3125e-05
18550.0 3.2962e-05
18570.0 3.2794e-05
18590.0 3.2622e-05
18610.0 3.2455e-05
18630.0 3.2289e-05
18650.0 3.2118e-05
18670.0 3.1947e-05
18690.0 3.1782e-05
18710.0 3.1613e-05
18730.0 3.1442e-05
18750.0 3.1274e-05
18770.0 3.1107e-05
18790.0 3.0932e-05
18810.0 3.0761e-05
18830.0 3.0594e-05
18850.0 3.0424e-05
18870.0 3.0251e-05
18890.0 3.0083e-05
18910.0 2.9915e-05
18930.0 2.9742e-05
18950.0 2.9571e-05
18970.0 2.9404e-05
18990.0 2.9233e-05
19010.0 2.9058e-05
19030.0 2.8891e-05
19050.0 2.8723e-05
19070.0 2.855e-05
19090.0 2.8381e-05
19110.0 2.8215e-05
19130.0 2.8044e-05
19150.0 2.7871e-05
19170.0 2.7704e-05
19190.0 2.7537e-05
19210.0 2.7364e-05
19230.0 2.7195e-05
19250.0 2.703e-05
19270.0 2.6861e-05
19290.0 2.6692e-05
19310.0 2.6527e-05
19330.0 2.6361e-05
19350.0 2.6189e-05
19370.0 2.6022e-05
19390.0 2.5858e-05
19410.0 2.5691e-05
19430.0 2.5522e-05
19450.0 2.536e-05
19470.0 2.5196e-05
19490.0 2.5028e-05
19510.0 2.4864e-05
19530.0 2.4703e-05
19550.0 2.4536e-05
19570.0 2.437e-05
19590.0 2.421e-05
19610.0 2.4048e-05
19630.0 2.3883e-05
19650.0 2.3722e-05
19670.0 2.3564e-05
19690.0 2.3401e-05
19710.0 2.3238e-05
19730.0 2.3081e-05
19750.0 2.2921e-05
19770.0 2.2758e-05
19790.0 2.26e-05
19810.0 2.2444e-05
19830.0 2.2284e-05
19850.0 2.2125e-05
19870.0 2.1968e-05
19890.0 2.1804e-05
19910.0 2.1628e-05
19930.0 2.1447e-05
19950.0 2.1248e-05
19970.0 2.1016e-05
19990.0 2.0749e-05
20010.0 1.9445e-05
20030.0 1.9119e-05
20050.0 1.8749e-05
20070.0 1.8356e-05
20090.0 1.794e-05
20110.0 1.7478e-05
20130.0 1.7017e-05
20150.0 1.6564e-05
20170.0 1.6099e-05
20190.0 1.5632e-05
20210.0 1.5192e-05
20230.0 1.4766e-05
20250.0 1.4341e-05
20270.0 1.3946e-05
20290.0 1.3585e-05
20310.0 1.3241e-05
20330.0 1.2917e-05
20350.0 1.2645e-05
20370.0 1.24e-05
20390.0 1.2181e-05
20410.0 1.1998e-05
20430.0 1.1852e-05
20450.0 1.173e-05
20470.0 1.1639e-05
20490.0 1.158e-05
20510.0 1.1546e-05
20530.0 1.1537e-05
20550.0 1.1552e-05
20570.0 1.1585e-05
20590.0 1.164e-05
20610.0 1.1711e-05
20630.0 1.1794e-05
20650.0 1.1891e-05
20670.0 1.2005e-05
20690.0 1.2123e-05
20710.0 1.2247e-05
20730.0 1.2381e-05
20750.0 1.2522e-05
20770.0 1.2659e-05
20790.0 1.2803e-05
20810.0 1.2954e-05
20830.0 1.3102e-05
20850.0 1.3249e-05
20870.0 1.3404e-05
20890.0 1.3561e-05
20910.0 1.3709e-05
20930.0 1.3861e-05
20950.0 1.4018e-05
20970.0 1.4168e-05
20990.0 1.4315e-05
21010.0 1.4469e-05
21030.0 1.4619e-05
21050.0 1.476e-05
21070.0 1.49e-05
21090.0 1.5041e-05
21110.0 1.5169e-05
21130.0 1.5288e-05
21150.0 1.5405e-05
21170.0 1.551e-05
21190.0 1.5601e-05
21210.0 1.5683e-05
21230.0 1.5754e-05
21250.0 1.5804e-05
21270.0 1.5838e-05
21290.0 1.5854e-05
21310.0 1.5847e-05
21330.0 1.5818e-05
21350.0 1.5765e-05
21370.0 1.5685e-05
21390.0 1.558e-05
21410.0 1.5449e-05
21430.0 1.5283e-05
21450.0 1.5093e-05
21470.0 1.4883e-05
21490.0 1.4644e-05
21510.0 1.4379e-05
21530.0 1.4106e-05
21550.0 1.3818e-05
21570.0 1.3508e-05
21590.0 1.32e-05
21610.0 1.2898e-05
21630.0 1.2593e-05
21650.0 1.2291e-05
21670.0 1.2023e-05
21690.0 1.1772e-05
21710.0 1.1539e-05
21730.0 1.1341e-05
21750.0 1.1179e-05
21770.0 1.1043e-05
21790.0 1.0947e-05
21810.0 1.0891e-05
21830.0 1.0871e-05
21850.0 1.0889e-05
21870.0 1.0942e-05
21890.0 1.1025e-05
21910.0 1.1142e-05
21930.0 1.1289e-05
21950.0 1.1453e-05
21970.0 1.1641e-05
21990.0 1.1858e-05
22010.0 1.2079e-05
22030.0 1.2307e-05
22050.0 1.2552e-05
22070.0 1.2802e-05
22090.0 1.3041e-05
22110.0 1.3286e-05
22130.0 1.3535e-05
22150.0 1.377e-05
22170.0 1.3994e-05
22190.0 1.4219e-05
22210.0 1.443e-05
22230.0 1.4618e-05
22250.0 1.4796e-05
22270.0 1.4962e-05
22290.0 1.5104e-05
22310.0 1.5226e-05
22330.0 1.5335e-05
22350.0 1.5419e-05
22370.0 1.5479e-05
22390.0 1.5516e-05
22410.0 1.553e-05
22430.0 1.5516e-05
22450.0 1.5477e-05
22470.0 1.5409e-05
22490.0 1.5314e-05
22510.0 1.5196e-05
22530.0 1.5044e-05
22550.0 1.4861e-05
22570.0 1.4657e-05
22590.0 1.4427e-05
22610.0 1.4163e-05
22630.0 1.3877e-05
22650.0 1.3581e-05
