#lamb flux
1010.0 4.1282e-06
1030.0 4.5504e-06
1050.0 5.1418e-06
1070.0 6.0544e-06
1090.0 7.1954e-06
1110.0 8.3991e-06
1130.0 9.6414e-06
1150.0 1.0963e-05
1170.0 1.2326e-05
1190.0 1.3589e-05
1210.0 1.4807e-05
1230.0 1.5963e-05
1250.0 1.7081e-05
1270.0 1.7998e-05
1290.0 1.8768e-05
1310.0 1.9308e-05
1330.0 1.9571e-05
1350.0 1.9618e-05
1370.0 1.9477e-05
1390.0 1.9121e-05
1410.0 1.8583e-05
1430.0 1.795e-05
1450.0 1.722e-05
1470.0 1.6407e-05
1490.0 1.557e-05
1510.0 1.4749e-05
1530.0 1.3914e-05
1550.0 1.3105e-05
1570.0 1.2349e-05
1590.0 1.1641e-05
1610.0 1.1024e-05
1630.0 1.0686e-05
1650.0 1.0448e-05
1670.0 1.0305e-05
1690.0 1.027e-05
1710.0 1.0362e-05
1730.0 1.0577e-05
1750.0 1.0905e-05
1770.0 1.1377e-05
1790.0 1.2e-05
1810.0 1.2768e-05
1830.0 1.3694e-05
1850.0 1.4812e-05
1870.0 1.6105e-05
1890.0 1.7574e-05
1910.0 1.9246e-05
1930.0 2.1127e-05
1950.0 2.3188e-05
1970.0 2.5437e-05
1990.0 2.7894e-05
2010.0 3.052e-05
2030.0 3.3287e-05
2050.0 3.6214e-05
2070.0 3.9281e-05
2090.0 4.2402e-05
2110.0 4.5585e-05
2130.0 4.8828e-05
2150.0 5.2066e-05
2170.0 5.5243e-05
2190.0 5.8405e-05
2210.0 6.1505e-05
2230.0 6.4477e-05
2250.0 6.7339e-05
2270.0 7.0133e-05
2290.0 7.2775e-05
2310.0 7.5255e-05
2330.0 7.7656e-05
2350.0 7.9972e-05
2370.0 8.2172e-05
2390.0 8.4354e-05
2410.0 8.6639e-05
2430.0 8.901e-05
2450.0 9.1563e-05
2470.0 9.4508e-05
2490.0 9.7955e-05
2510.0 0.00010177
2530.0 0.00010625
2550.0 0.00011173
2570.0 0.00011831
2590.0 0.00012629
2610.0 0.00013701
2630.0 0.00015064
2650.0 0.00016674
2670.0 0.00018582
2690.0 0.00020764
2710.0 0.00022996
2730.0 0.00025176
2750.0 0.0002737
2770.0 0.00029452
2790.0 0.00031407
2810.0 0.00033382
2830.0 0.00035515
2850.0 0.00037688
2870.0 0.0004
2890.0 0.0004254
2910.0 0.00045234
2930.0 0.00047971
2950.0 0.00050907
2970.0 0.00054011
2990.0 0.00057151
3010.0 0.0006038
3030.0 0.00063804
3050.0 0.00067323
3070.0 0.00070762
3090.0 0.00074266
3110.0 0.00077693
3130.0 0.00080808
3150.0 0.00083533
3170.0 0.00085766
3190.0 0.00087354
3210.0 0.00088416
3230.0 0.00089033
3250.0 0.00089279
3270.0 0.00089421
3290.0 0.00089581
3310.0 0.00089812
3330.0 0.00090181
3350.0 0.00090658
3370.0 0.00091194
3390.0 0.0009085
3410.0 0.00090712
3430.0 0.00091503
3450.0 0.00092078
3470.0 0.00091733
3490.0 0.00096666
3510.0 0.0011551
3530.0 0.0014289
3550.0 0.0016136
3570.0 0.0017808
3590.0 0.0020045
3610.0 0.002003
3630.0 0.001843
3650.0 0.0018958
3670.0 0.0022012
3690.0 0.0024803
3710.0 0.0025815
3730.0 0.002596
3750.0 0.0027405
3770.0 0.0027509
3790.0 0.002631
3810.0 0.0024877
3830.0 0.0023562
3850.0 0.0023615
3870.0 0.0024641
3890.0 0.0025354
3910.0 0.0025566
3930.0 0.0025564
3950.0 0.0027392
3970.0 0.0029492
3990.0 0.0028808
4010.0 0.002579
4030.0 0.0023328
4050.0 0.0023312
4070.0 0.002434
4090.0 0.002409
4110.0 0.0023243
4130.0 0.0023158
4150.0 0.0024275
4170.0 0.0026626
4190.0 0.0027598
4210.0 0.002579
4230.0 0.0023581
4250.0 0.0022103
4270.0 0.0021192
4290.0 0.0021194
4310.0 0.002164
4330.0 0.0020703
4350.0 0.0018568
4370.0 0.0016759
4390.0 0.0015517
4410.0 0.0014914
4430.0 0.0015434
4450.0 0.0016955
4470.0 0.0018597
4490.0 0.0019779
4510.0 0.0021611
4530.0 0.0024829
4550.0 0.002814
4570.0 0.0030229
4590.0 0.0032045
4610.0 0.0033462
4630.0 0.0033474
4650.0 0.0031197
4670.0 0.0027652
4690.0 0.0024819
4710.0 0.002379
4730.0 0.0022659
4750.0 0.0019956
4770.0 0.0017892
4790.0 0.0018339
4810.0 0.0019715
4830.0 0.0019247
4850.0 0.0017176
4870.0 0.0017339
4890.0 0.0017692
4910.0 0.0017855
4930.0 0.0017517
4950.0 0.0017145
4970.0 0.0016337
4990.0 0.0015127
5010.0 0.0014381
5030.0 0.0014315
5050.0 0.0014412
5070.0 0.0014532
5090.0 0.0014613
5110.0 0.0014665
5130.0 0.0014986
5150.0 0.0015657
5170.0 0.0016891
5190.0 0.0018516
5210.0 0.0019739
5230.0 0.0020461
5250.0 0.0020886
5270.0 0.0021355
5290.0 0.0021618
5310.0 0.0021336
5330.0 0.0020607
5350.0 0.0019931
5370.0 0.0019924
5390.0 0.0020232
5410.0 0.0020374
5430.0 0.002009
5450.0 0.0019774
5470.0 0.0019445
5490.0 0.0019156
5510.0 0.0019052
5530.0 0.0019092
5550.0 0.0019194
5570.0 0.0019194
5590.0 0.0018787
5610.0 0.0018037
5630.0 0.0017255
5650.0 0.0016425
5670.0 0.0015785
5690.0 0.0015226
5710.0 0.0014975
5730.0 0.0014943
5750.0 0.0014698
5770.0 0.0014445
5790.0 0.0014607
5810.0 0.0015017
5830.0 0.0015336
5850.0 0.0015429
5870.0 0.001506
5890.0 0.0014506
5910.0 0.001409
5930.0 0.0013534
5950.0 0.0013016
5970.0 0.001307
5990.0 0.0013326
6010.0 0.0013273
6030.0 0.0012883
6050.0 0.0012812
6070.0 0.0013172
6090.0 0.0013548
6110.0 0.0013452
6130.0 0.0012719
6150.0 0.0011794
6170.0 0.001129
6190.0 0.0011113
6210.0 0.0010979
6230.0 0.0010808
6250.0 0.0010834
6270.0 0.001115
6290.0 0.0011565
6310.0 0.001203
6330.0 0.0012508
6350.0 0.0012752
6370.0 0.0012733
6390.0 0.0012628
6410.0 0.0012678
6430.0 0.0012795
6450.0 0.0012771
6470.0 0.0012737
6490.0 0.0012747
6510.0 0.0012728
6530.0 0.0012601
6550.0 0.0012347
6570.0 0.001198
6590.0 0.0011602
6610.0 0.0011308
6630.0 0.0011075
6650.0 0.0010733
6670.0 0.0010366
6690.0 0.0010079
6710.0 0.00099119
6730.0 0.00097844
6750.0 0.00096944
6770.0 0.00095939
6790.0 0.0009418
6810.0 0.00092082
6830.0 0.00091037
6850.0 0.0009056
6870.0 0.00090154
6890.0 0.0009009
6910.0 0.0008925
6930.0 0.00088184
6950.0 0.00087781
6970.0 0.00086985
6990.0 0.00085642
7010.0 0.00084237
7030.0 0.00082715
7050.0 0.00081129
7070.0 0.00079156
7090.0 0.00077571
7110.0 0.00078844
7130.0 0.00080846
7150.0 0.00081977
7170.0 0.00082657
7190.0 0.00082643
7210.0 0.00081562
7230.0 0.0008001
7250.0 0.00079362
7270.0 0.00077871
7290.0 0.00076705
7310.0 0.00076121
7330.0 0.00076533
7350.0 0.00076403
7370.0 0.00075844
7390.0 0.00075203
7410.0 0.00074338
7430.0 0.00073292
7450.0 0.00072128
7470.0 0.00070909
7490.0 0.00069041
7510.0 0.00066485
7530.0 0.00064145
7550.0 0.00062644
7570.0 0.00063093
7590.0 0.00062869
7610.0 0.0006214
7630.0 0.00061403
7650.0 0.00062028
7670.0 0.00063533
7690.0 0.00065796
7710.0 0.00067141
7730.0 0.00069665
7750.0 0.00071381
7770.0 0.00072967
7790.0 0.00073622
7810.0 0.00072615
7830.0 0.00072388
7850.0 0.00071388
7870.0 0.00069677
7890.0 0.00067347
7910.0 0.00065479
7930.0 0.00064396
7950.0 0.00063732
7970.0 0.00063795
7990.0 0.00063983
8010.0 0.00063431
8030.0 0.00062821
8050.0 0.00061659
8070.0 0.00060619
8090.0 0.00059405
8110.0 0.00059702
8130.0 0.00060219
8150.0 0.00060443
8170.0 0.00059879
8190.0 0.0005934
8210.0 0.00057368
8230.0 0.00053781
8250.0 0.00051646
8270.0 0.00050435
8290.0 0.00049839
8310.0 0.00049857
8330.0 0.00050996
8350.0 0.000502
8370.0 0.00049269
8390.0 0.00049962
8410.0 0.00051182
8430.0 0.00053469
8450.0 0.00055516
8470.0 0.00055946
8490.0 0.00056372
8510.0 0.00055905
8530.0 0.00055287
8550.0 0.00055676
8570.0 0.00055715
8590.0 0.00055288
8610.0 0.0005677
8630.0 0.00057026
8650.0 0.00055777
8670.0 0.00055621
8690.0 0.00055778
8710.0 0.00054731
8730.0 0.00054384
8750.0 0.00052676
8770.0 0.00052004
8790.0 0.00051323
8810.0 0.00050835
8830.0 0.00048988
8850.0 0.0004565
8870.0 0.0004297
8890.0 0.00041604
8910.0 0.00039041
8930.0 0.0003631
8950.0 0.00035558
8970.0 0.0003519
8990.0 0.0003517
9010.0 0.0003489
9030.0 0.00034642
9050.0 0.00034409
9070.0 0.00034179
9090.0 0.00033948
9110.0 0.00033719
9130.0 0.00033488
9150.0 0.00033259
9170.0 0.0003303
9190.0 0.000328
9210.0 0.0003257
9230.0 0.00032342
9250.0 0.00032114
9270.0 0.00031886
9290.0 0.00031659
9310.0 0.00031433
9330.0 0.00031207
9350.0 0.00030981
9370.0 0.00030756
9390.0 0.00030533
9410.0 0.0003031
9430.0 0.00030087
9450.0 0.00029864
9470.0 0.00029648
9490.0 0.00029433
9510.0 0.00029212
9530.0 0.00028994
9550.0 0.00028776
9570.0 0.00028561
9590.0 0.00028346
9610.0 0.00028133
9630.0 0.00027922
9650.0 0.00027711
9670.0 0.00027502
9690.0 0.00027294
9710.0 0.00027088
9730.0 0.00026883
9750.0 0.00026679
9770.0 0.00026477
9790.0 0.00026275
9810.0 0.00026075
9830.0 0.00025871
9850.0 0.00025636
9870.0 0.00025446
9890.0 0.00025267
9910.0 0.00025083
9930.0 0.00024884
9950.0 0.00024699
9970.0 0.00024516
9990.0 0.00024329
10010.0 0.00024125
10030.0 0.00023934
10050.0 0.00023763
10070.0 0.0002359
10090.0 0.00023418
10110.0 0.00023237
10130.0 0.00023044
10150.0 0.00022872
10170.0 0.00022704
10190.0 0.0002253
10210.0 0.00022361
10230.0 0.00022194
10250.0 0.00022023
10270.0 0.00021854
10290.0 0.0002169
10310.0 0.00021523
10330.0 0.00021353
10350.0 0.0002119
10370.0 0.00021029
10390.0 0.00020865
10410.0 0.00020702
10430.0 0.00020547
10450.0 0.00020388
10470.0 0.00020228
10490.0 0.00020073
10510.0 0.0001992
10530.0 0.0001976
10550.0 0.00019606
10570.0 0.00019456
10590.0 0.00019304
10610.0 0.00019151
10630.0 0.00019004
10650.0 0.00018857
10670.0 0.00018705
10690.0 0.00018557
10710.0 0.00018414
10730.0 0.00018267
10750.0 0.00018117
10770.0 0.00017976
10790.0 0.00017834
10810.0 0.00017689
10830.0 0.00017547
10850.0 0.0001741
10870.0 0.00017267
10890.0 0.00017125
10910.0 0.0001699
10930.0 0.00016857
10950.0 0.00016722
10970.0 0.00016595
10990.0 0.00016476
11010.0 0.00015865
11030.0 0.00015761
11050.0 0.00015664
11070.0 0.00015571
11090.0 0.00015475
11110.0 0.00015385
11130.0 0.00015295
11150.0 0.00015202
11170.0 0.00015106
11190.0 0.00015014
11210.0 0.00014917
11230.0 0.00014818
11250.0 0.00014721
11270.0 0.00014626
11290.0 0.00014529
11310.0 0.00014434
11330.0 0.00014347
11350.0 0.0001426
11370.0 0.00014176
11390.0 0.00014097
11410.0 0.00014023
11430.0 0.00013949
11450.0 0.00013878
11470.0 0.00013811
11490.0 0.00013744
11510.0 0.00013676
11530.0 0.0001361
11550.0 0.00013545
11570.0 0.00013475
11590.0 0.00013404
11610.0 0.00013333
11630.0 0.00013258
11650.0 0.00013178
11670.0 0.00013101
11690.0 0.00013022
11710.0 0.0001294
11730.0 0.00012858
11750.0 0.00012781
11770.0 0.00012701
11790.0 0.00012621
11810.0 0.00012546
11830.0 0.00012473
11850.0 0.00012398
11870.0 0.00012329
11890.0 0.00012265
11910.0 0.00012202
11930.0 0.00012141
11950.0 0.00012087
11970.0 0.00012037
11990.0 0.00011988
12010.0 0.00011946
12030.0 0.00011911
12050.0 0.00011881
12070.0 0.00011856
12090.0 0.00011841
12110.0 0.00011833
12130.0 0.00011831
12150.0 0.00011838
12170.0 0.00011852
12190.0 0.00011873
12210.0 0.00011901
12230.0 0.00011935
12250.0 0.00011976
12270.0 0.00012022
12290.0 0.00012071
12310.0 0.00012123
12330.0 0.00012178
12350.0 0.00012235
12370.0 0.0001229
12390.0 0.00012344
12410.0 0.00012398
12430.0 0.00012447
12450.0 0.0001249
12470.0 0.00012528
12490.0 0.00012559
12510.0 0.00012582
12530.0 0.00012596
12550.0 0.000126
12570.0 0.00012594
12590.0 0.00012579
12610.0 0.0001255
12630.0 0.0001251
12650.0 0.00012463
12670.0 0.00012404
12690.0 0.00012334
12710.0 0.00012258
12730.0 0.00012177
12750.0 0.00012083
12770.0 0.00011987
12790.0 0.0001189
12810.0 0.00011788
12830.0 0.0001168
12850.0 0.00011579
12870.0 0.00011478
12890.0 0.00011374
12910.0 0.00011273
12930.0 0.00011178
12950.0 0.00011082
12970.0 0.00010985
12990.0 0.00010897
13010.0 0.00010812
13030.0 0.00010726
13050.0 0.00010644
13070.0 0.0001057
13090.0 0.00010495
13110.0 0.00010423
13130.0 0.00010358
13150.0 0.00010297
13170.0 0.00010236
13190.0 0.00010182
13210.0 0.00010134
13230.0 0.00010088
13250.0 0.00010045
13270.0 0.00010007
13290.0 9.9712e-05
13310.0 9.9349e-05
13330.0 9.9013e-05
13350.0 9.869e-05
13370.0 9.835e-05
13390.0 9.7991e-05
13410.0 9.7648e-05
13430.0 9.7279e-05
13450.0 9.6873e-05
13470.0 9.6457e-05
13490.0 9.6033e-05
13510.0 9.5547e-05
13530.0 9.5043e-05
13550.0 9.4539e-05
13570.0 9.4005e-05
13590.0 9.3429e-05
13610.0 9.2856e-05
13630.0 9.2284e-05
13650.0 9.1667e-05
13670.0 9.104e-05
13690.0 9.0427e-05
13710.0 8.9793e-05
13730.0 8.9112e-05
13750.0 8.8467e-05
13770.0 8.7821e-05
13790.0 8.7142e-05
13810.0 8.6458e-05
13830.0 8.5799e-05
13850.0 8.5105e-05
13870.0 8.4384e-05
13890.0 8.3677e-05
13910.0 8.2965e-05
13930.0 8.2206e-05
13950.0 8.1436e-05
13970.0 8.0694e-05
13990.0 7.9914e-05
14010.0 7.9107e-05
14030.0 7.8318e-05
14050.0 7.753e-05
14070.0 7.6692e-05
14090.0 7.588e-05
14110.0 7.5099e-05
14130.0 7.431e-05
14150.0 7.352e-05
14170.0 7.279e-05
14190.0 7.2084e-05
14210.0 7.1378e-05
14230.0 7.0711e-05
14250.0 7.0088e-05
14270.0 6.9462e-05
14290.0 6.8845e-05
14310.0 6.8272e-05
14330.0 6.7706e-05
14350.0 6.7127e-05
14370.0 6.6563e-05
14390.0 6.6019e-05
14410.0 6.5453e-05
14430.0 6.4888e-05
14450.0 6.4346e-05
14470.0 6.3809e-05
14490.0 6.3258e-05
14510.0 6.2742e-05
14530.0 6.2256e-05
14550.0 6.1773e-05
14570.0 6.1307e-05
14590.0 6.0878e-05
14610.0 6.046e-05
14630.0 6.0045e-05
14650.0 5.9659e-05
14670.0 5.9292e-05
14690.0 5.8927e-05
14710.0 5.857e-05
14730.0 5.8243e-05
14750.0 5.7921e-05
14770.0 5.7606e-05
14790.0 5.7312e-05
14810.0 5.7041e-05
14830.0 5.6776e-05
14850.0 5.6536e-05
14870.0 5.6327e-05
14890.0 5.6137e-05
14910.0 5.5968e-05
14930.0 5.5823e-05
14950.0 5.5694e-05
14970.0 5.5572e-05
14990.0 5.5455e-05
15010.0 5.5338e-05
15030.0 5.5215e-05
15050.0 5.508e-05
15070.0 5.4942e-05
15090.0 5.4796e-05
15110.0 5.4642e-05
15130.0 5.4485e-05
15150.0 5.4328e-05
15170.0 5.4165e-05
15190.0 5.4e-05
15210.0 5.3836e-05
15230.0 5.3672e-05
15250.0 5.3502e-05
15270.0 5.3333e-05
15290.0 5.3166e-05
15310.0 5.2996e-05
15330.0 5.2824e-05
15350.0 5.2653e-05
15370.0 5.2483e-05
15390.0 5.2306e-05
15410.0 5.2131e-05
15430.0 5.1958e-05
15450.0 5.1782e-05
15470.0 5.1603e-05
15490.0 5.1428e-05
15510.0 5.1252e-05
15530.0 5.1072e-05
15550.0 5.0893e-05
15570.0 5.0716e-05
15590.0 5.0535e-05
15610.0 5.0352e-05
15630.0 5.0174e-05
15650.0 4.9994e-05
15670.0 4.9811e-05
15690.0 4.963e-05
15710.0 4.9451e-05
15730.0 4.9268e-05
15750.0 4.9084e-05
15770.0 4.8904e-05
15790.0 4.8722e-05
15810.0 4.8537e-05
15830.0 4.8355e-05
15850.0 4.8175e-05
15870.0 4.7991e-05
15890.0 4.7808e-05
15910.0 4.7628e-05
15930.0 4.7447e-05
15950.0 4.7262e-05
15970.0 4.7081e-05
15990.0 4.6901e-05
16010.0 4.6718e-05
16030.0 4.6535e-05
16050.0 4.6357e-05
16070.0 4.6177e-05
16090.0 4.5995e-05
16110.0 4.5816e-05
16130.0 4.5639e-05
16150.0 4.5457e-05
16170.0 4.5277e-05
16190.0 4.5101e-05
16210.0 4.4923e-05
16230.0 4.4744e-05
16250.0 4.4568e-05
16270.0 4.4394e-05
16290.0 4.4217e-05
16310.0 4.4042e-05
16330.0 4.3869e-05
16350.0 4.3695e-05
16370.0 4.3518e-05
16390.0 4.3347e-05
16410.0 4.3177e-05
16430.0 4.3004e-05
16450.0 4.2833e-05
16470.0 4.2666e-05
16490.0 4.2496e-05
16510.0 4.2326e-05
16530.0 4.2159e-05
16550.0 4.1993e-05
16570.0 4.1825e-05
16590.0 4.1659e-05
16610.0 4.1496e-05
16630.0 4.1332e-05
16650.0 4.1168e-05
16670.0 4.1007e-05
16690.0 4.0847e-05
16710.0 4.0684e-05
16730.0 4.0524e-05
16750.0 4.0367e-05
16770.0 4.0208e-05
16790.0 4.0049e-05
16810.0 3.9894e-05
16830.0 3.974e-05
16850.0 3.9584e-05
16870.0 3.943e-05
16890.0 3.9279e-05
16910.0 3.9126e-05
16930.0 3.8972e-05
16950.0 3.8824e-05
16970.0 3.8675e-05
16990.0 3.8525e-05
17010.0 3.8378e-05
17030.0 3.8233e-05
17050.0 3.8086e-05
17070.0 3.794e-05
17090.0 3.7797e-05
17110.0 3.7654e-05
17130.0 3.7509e-05
17150.0 3.7368e-05
17170.0 3.7229e-05
17190.0 3.7088e-05
17210.0 3.6949e-05
17230.0 3.6812e-05
17250.0 3.6675e-05
17270.0 3.6537e-05
17290.0 3.6402e-05
17310.0 3.6268e-05
17330.0 3.6133e-05
17350.0 3.5999e-05
17370.0 3.5868e-05
17390.0 3.5737e-05
17410.0 3.5605e-05
17430.0 3.5476e-05
17450.0 3.5349e-05
17470.0 3.5219e-05
17490.0 3.509e-05
17510.0 3.4965e-05
17530.0 3.4839e-05
17550.0 3.4713e-05
17570.0 3.4589e-05
17590.0 3.4467e-05
17610.0 3.4343e-05
17630.0 3.4221e-05
17650.0 3.4101e-05
17670.0 3.398e-05
17690.0 3.3857e-05
17710.0 3.3739e-05
17730.0 3.3622e-05
17750.0 3.3503e-05
17770.0 3.3385e-05
17790.0 3.3271e-05
17810.0 3.3155e-05
17830.0 3.3038e-05
17850.0 3.2924e-05
17870.0 3.2811e-05
17890.0 3.2696e-05
17910.0 3.2583e-05
17930.0 3.2473e-05
17950.0 3.2361e-05
17970.0 3.225e-05
17990.0 3.2141e-05
18010.0 3.2032e-05
18030.0 3.1921e-05
18050.0 3.1812e-05
18070.0 3.1706e-05
18090.0 3.1598e-05
18110.0 3.149e-05
18130.0 3.1385e-05
18150.0 3.128e-05
18170.0 3.1174e-05
18190.0 3.1069e-05
18210.0 3.0967e-05
18230.0 3.0862e-05
18250.0 3.0757e-05
18270.0 3.0656e-05
18290.0 3.0554e-05
18310.0 3.0451e-05
18330.0 3.035e-05
18350.0 3.0251e-05
18370.0 3.0149e-05
18390.0 3.0049e-05
18410.0 2.9951e-05
18430.0 2.9852e-05
18450.0 2.9751e-05
18470.0 2.9653e-05
18490.0 2.9557e-05
18510.0 2.9459e-05
18530.0 2.9362e-05
18550.0 2.9267e-05
18570.0 2.9171e-05
18590.0 2.9073e-05
18610.0 2.8979e-05
18630.0 2.8885e-05
18650.0 2.8789e-05
18670.0 2.8694e-05
18690.0 2.8602e-05
18710.0 2.8509e-05
18730.0 2.8415e-05
18750.0 2.8323e-05
18770.0 2.8232e-05
18790.0 2.8138e-05
18810.0 2.8046e-05
18830.0 2.7956e-05
18850.0 2.7865e-05
18870.0 2.7773e-05
18890.0 2.7684e-05
18910.0 2.7595e-05
18930.0 2.7505e-05
18950.0 2.7415e-05
18970.0 2.7328e-05
18990.0 2.7239e-05
19010.0 2.7148e-05
19030.0 2.7062e-05
19050.0 2.6976e-05
19070.0 2.6887e-05
19090.0 2.6801e-05
19110.0 2.6716e-05
19130.0 2.6629e-05
19150.0 2.6542e-05
19170.0 2.6458e-05
19190.0 2.6373e-05
19210.0 2.6287e-05
19230.0 2.6202e-05
19250.0 2.612e-05
19270.0 2.6036e-05
19290.0 2.5951e-05
19310.0 2.587e-05
19330.0 2.5788e-05
19350.0 2.5703e-05
19370.0 2.5621e-05
19390.0 2.5541e-05
19410.0 2.5459e-05
19430.0 2.5377e-05
19450.0 2.5298e-05
19470.0 2.5218e-05
19490.0 2.5137e-05
19510.0 2.5057e-05
19530.0 2.498e-05
19550.0 2.49e-05
19570.0 2.482e-05
19590.0 2.4743e-05
19610.0 2.4666e-05
19630.0 2.4587e-05
19650.0 2.4511e-05
19670.0 2.4436e-05
19690.0 2.4358e-05
19710.0 2.4282e-05
19730.0 2.4208e-05
19750.0 2.4133e-05
19770.0 2.4056e-05
19790.0 2.3982e-05
19810.0 2.391e-05
19830.0 2.3836e-05
19850.0 2.3761e-05
19870.0 2.3689e-05
19890.0 2.3613e-05
19910.0 2.3532e-05
19930.0 2.3448e-05
19950.0 2.3356e-05
19970.0 2.3248e-05
19990.0 2.3124e-05
20010.0 2.2988e-05
20030.0 2.2828e-05
20050.0 2.2646e-05
20070.0 2.2454e-05
20090.0 2.225e-05
20110.0 2.2024e-05
20130.0 2.1799e-05
20150.0 2.1579e-05
20170.0 2.1353e-05
20190.0 2.1127e-05
20210.0 2.0913e-05
20230.0 2.0706e-05
20250.0 2.0497e-05
20270.0 2.03e-05
20290.0 2.0117e-05
20310.0 1.9938e-05
20330.0 1.9762e-05
20350.0 1.9608e-05
20370.0 1.9461e-05
20390.0 1.932e-05
20410.0 1.919e-05
20430.0 1.9074e-05
20450.0 1.896e-05
20470.0 1.8855e-05
20490.0 1.8763e-05
20510.0 1.8678e-05
20530.0 1.8598e-05
20550.0 1.8528e-05
20570.0 1.8468e-05
20590.0 1.8413e-05
20610.0 1.8364e-05
20630.0 1.8324e-05
20650.0 1.829e-05
20670.0 1.8259e-05
20690.0 1.8234e-05
20710.0 1.8214e-05
20730.0 1.8196e-05
20750.0 1.818e-05
20770.0 1.8165e-05
20790.0 1.8149e-05
20810.0 1.8131e-05
20830.0 1.8111e-05
20850.0 1.8087e-05
20870.0 1.8056e-05
20890.0 1.8019e-05
20910.0 1.7978e-05
20930.0 1.7928e-05
20950.0 1.7869e-05
20970.0 1.7804e-05
20990.0 1.7734e-05
21010.0 1.7652e-05
21030.0 1.7565e-05
21050.0 1.7475e-05
21070.0 1.7378e-05
21090.0 1.7272e-05
21110.0 1.7169e-05
21130.0 1.7065e-05
21150.0 1.6954e-05
21170.0 1.6844e-05
21190.0 1.6739e-05
21210.0 1.6629e-05
21230.0 1.6518e-05
21250.0 1.6413e-05
21270.0 1.6312e-05
21290.0 1.6208e-05
21310.0 1.6108e-05
21330.0 1.6017e-05
21350.0 1.5924e-05
21370.0 1.5833e-05
21390.0 1.5749e-05
21410.0 1.5668e-05
21430.0 1.5584e-05
21450.0 1.5507e-05
21470.0 1.5435e-05
21490.0 1.5362e-05
21510.0 1.529e-05
21530.0 1.5224e-05
21550.0 1.5158e-05
21570.0 1.509e-05
21590.0 1.5025e-05
21610.0 1.4963e-05
21630.0 1.4898e-05
21650.0 1.4831e-05
21670.0 1.477e-05
21690.0 1.4708e-05
21710.0 1.4643e-05
21730.0 1.458e-05
21750.0 1.4519e-05
21770.0 1.4452e-05
21790.0 1.4385e-05
21810.0 1.4321e-05
21830.0 1.4255e-05
21850.0 1.4185e-05
21870.0 1.4117e-05
21890.0 1.4052e-05
21910.0 1.3981e-05
21930.0 1.391e-05
21950.0 1.3842e-05
21970.0 1.3772e-05
21990.0 1.3696e-05
22010.0 1.3626e-05
22030.0 1.3556e-05
22050.0 1.3483e-05
22070.0 1.341e-05
22090.0 1.3342e-05
22110.0 1.3273e-05
22130.0 1.3201e-05
22150.0 1.3134e-05
22170.0 1.3071e-05
22190.0 1.3004e-05
22210.0 1.2941e-05
22230.0 1.2885e-05
22250.0 1.283e-05
22270.0 1.2776e-05
22290.0 1.2728e-05
22310.0 1.2685e-05
22330.0 1.264e-05
22350.0 1.2601e-05
22370.0 1.2568e-05
22390.0 1.2536e-05
22410.0 1.2504e-05
22430.0 1.248e-05
22450.0 1.2458e-05
22470.0 1.2437e-05
22490.0 1.2419e-05
22510.0 1.2406e-05
22530.0 1.2392e-05
22550.0 1.2379e-05
22570.0 1.2371e-05
22590.0 1.2365e-05
22610.0 1.236e-05
22630.0 1.2357e-05
22650.0 1.2359e-05
22670.0 1.2361e-05
22690.0 1.2364e-05
22710.0 1.2373e-05
22730.0 1.2383e-05
22750.0 1.2394e-05
22770.0 1.2409e-05
22790.0 1.2429e-05
