#lamb flux
1010.0 4.9713e-06
1030.0 5.3956e-06
1050.0 5.8842e-06
1070.0 6.4345e-06
1090.0 7.0596e-06
1110.0 7.7011e-06
1130.0 8.3473e-06
1150.0 9.0247e-06
1170.0 9.724e-06
1190.0 1.0388e-05
1210.0 1.1062e-05
1230.0 1.1758e-05
1250.0 1.2442e-05
1270.0 1.3107e-05
1290.0 1.381e-05
1310.0 1.4513e-05
1330.0 1.5189e-05
1350.0 1.5874e-05
1370.0 1.6582e-05
1390.0 1.7274e-05
1410.0 1.7946e-05
1430.0 1.865e-05
1450.0 1.9355e-05
1470.0 2.0038e-05
1490.0 2.0729e-05
1510.0 2.1459e-05
1530.0 2.2153e-05
1550.0 2.2839e-05
1570.0 2.3549e-05
1590.0 2.4259e-05
1610.0 2.4939e-05
1630.0 2.564e-05
1650.0 2.6358e-05
1670.0 2.7053e-05
1690.0 2.7738e-05
1710.0 2.8448e-05
1730.0 2.9161e-05
1750.0 2.9829e-05
1770.0 3.0513e-05
1790.0 3.1209e-05
1810.0 3.1878e-05
1830.0 3.2532e-05
1850.0 3.3221e-05
1870.0 3.3887e-05
1890.0 3.4524e-05
1910.0 3.5168e-05
1930.0 3.5821e-05
1950.0 3.6435e-05
1970.0 3.7032e-05
1990.0 3.7646e-05
2010.0 3.8239e-05
2030.0 3.8798e-05
2050.0 3.9367e-05
2070.0 3.9941e-05
2090.0 4.0466e-05
2110.0 4.0976e-05
2130.0 4.1494e-05
2150.0 4.1987e-05
2170.0 4.2439e-05
2190.0 4.2901e-05
2210.0 4.3354e-05
2230.0 4.3767e-05
2250.0 4.4164e-05
2270.0 4.4574e-05
2290.0 4.4949e-05
2310.0 4.5284e-05
2330.0 4.5624e-05
2350.0 4.5953e-05
2370.0 4.6243e-05
2390.0 4.6526e-05
2410.0 4.6824e-05
2430.0 4.7096e-05
2450.0 4.7351e-05
2470.0 4.7637e-05
2490.0 4.798e-05
2510.0 4.8397e-05
2530.0 4.9079e-05
2550.0 5.0336e-05
2570.0 5.2484e-05
2590.0 5.5888e-05
2610.0 6.1509e-05
2630.0 6.9557e-05
2650.0 7.9557e-05
2670.0 9.1589e-05
2690.0 0.00010517
2710.0 0.00011837
2730.0 0.00013029
2750.0 0.00014113
2770.0 0.00014987
2790.0 0.00015645
2810.0 0.0001617
2830.0 0.00016623
2850.0 0.00016986
2870.0 0.00017321
2890.0 0.00017667
2910.0 0.00018015
2930.0 0.00018347
2950.0 0.00018703
2970.0 0.00019077
2990.0 0.00019438
3010.0 0.0013339
3030.0 0.0013595
3050.0 0.0013846
3070.0 0.0014058
3090.0 0.0014234
3110.0 0.001432
3130.0 0.0014252
3150.0 0.0013973
3170.0 0.0013373
3190.0 0.0012447
3210.0 0.0011233
3230.0 0.00098901
3250.0 0.0010917
3270.0 0.00095752
3290.0 0.0012348
3310.0 0.00094353
3330.0 0.00095439
3350.0 0.0010118
3370.0 0.0010838
3390.0 0.0011659
3410.0 0.0012493
3430.0 0.0013378
3450.0 0.0014298
3470.0 0.0015181
3490.0 0.0015916
3510.0 0.0017467
3530.0 0.0019875
3550.0 0.0020028
3570.0 0.0018928
3590.0 0.0021889
3610.0 0.0019101
3630.0 0.0023603
3650.0 0.0025887
3670.0 0.002948
3690.0 0.0028514
3710.0 0.002379
3730.0 0.0026223
3750.0 0.0026404
3770.0 0.0028512
3790.0 0.0030024
3810.0 0.0033896
3830.0 0.0047643
3850.0 0.0059628
3870.0 0.0070969
3890.0 0.0073399
3910.0 0.0070421
3930.0 0.0071112
3950.0 0.0074398
3970.0 0.0069288
3990.0 0.0042151
4010.0 0.0028502
4030.0 0.0046982
4050.0 0.0063863
4070.0 0.0060467
4090.0 0.0036022
4110.0 0.002848
4130.0 0.0046821
4150.0 0.0052534
4170.0 0.0043877
4190.0 0.0036806
4210.0 0.0052813
4230.0 0.004857
4250.0 0.0046836
4270.0 0.0046632
4290.0 0.0042017
4310.0 0.0050958
4330.0 0.0058765
4350.0 0.0060546
4370.0 0.0055908
4390.0 0.0058812
4410.0 0.0055308
4430.0 0.0041519
4450.0 0.0032634
4470.0 0.0038831
4490.0 0.0036733
4510.0 0.0052906
4530.0 0.0054428
4550.0 0.0055431
4570.0 0.006917
4590.0 0.0080374
4610.0 0.0095176
4630.0 0.012646
4650.0 0.01393
4670.0 0.014112
4690.0 0.013526
4710.0 0.013426
4730.0 0.011885
4750.0 0.0087767
4770.0 0.0071268
4790.0 0.0056138
4810.0 0.006038
4830.0 0.0069392
4850.0 0.0070159
4870.0 0.0063038
4890.0 0.0086192
4910.0 0.0088604
4930.0 0.0095998
4950.0 0.011271
4970.0 0.011646
4990.0 0.013247
5010.0 0.013728
5030.0 0.012658
5050.0 0.01013
5070.0 0.0073035
5090.0 0.0061523
5110.0 0.0062368
5130.0 0.0065239
5150.0 0.0061915
5170.0 0.0059582
5190.0 0.0062911
5210.0 0.0064688
5230.0 0.0071127
5250.0 0.007629
5270.0 0.0073337
5290.0 0.0084751
5310.0 0.010598
5330.0 0.011584
5350.0 0.010896
5370.0 0.010968
5390.0 0.011862
5410.0 0.011891
5430.0 0.011542
5450.0 0.011999
5470.0 0.013274
5490.0 0.015784
5510.0 0.018899
5530.0 0.019689
5550.0 0.019646
5570.0 0.019351
5590.0 0.018527
5610.0 0.017537
5630.0 0.017626
5650.0 0.018283
5670.0 0.017669
5690.0 0.016006
5710.0 0.01577
5730.0 0.014586
5750.0 0.013009
5770.0 0.011581
5790.0 0.012279
5810.0 0.013131
5830.0 0.014471
5850.0 0.014259
5870.0 0.013955
5890.0 0.014336
5910.0 0.013237
5930.0 0.012214
5950.0 0.012235
5970.0 0.01277
5990.0 0.011269
6010.0 0.0095293
6030.0 0.0082853
6050.0 0.0074983
6070.0 0.0070695
6090.0 0.0075549
6110.0 0.0083754
6130.0 0.0084135
6150.0 0.0084861
6170.0 0.0089022
6190.0 0.0096065
6210.0 0.011039
6230.0 0.012859
6250.0 0.011989
6270.0 0.010503
6290.0 0.0090641
6310.0 0.007515
6330.0 0.006608
6350.0 0.0063414
6370.0 0.0067717
6390.0 0.0075561
6410.0 0.0090607
6430.0 0.01113
6450.0 0.012908
6470.0 0.014303
6490.0 0.016289
6510.0 0.017756
6530.0 0.017153
6550.0 0.016409
6570.0 0.016562
6590.0 0.016551
6610.0 0.016405
6630.0 0.015435
6650.0 0.013934
6670.0 0.013464
6690.0 0.013199
6710.0 0.013367
6730.0 0.011691
6750.0 0.010036
6770.0 0.0098644
6790.0 0.01052
6810.0 0.011762
6830.0 0.01192
6850.0 0.010957
6870.0 0.010916
6890.0 0.01077
6910.0 0.010144
6930.0 0.010285
6950.0 0.010067
6970.0 0.0099294
6990.0 0.01022
7010.0 0.010853
7030.0 0.010685
7050.0 0.009821
7070.0 0.0094243
7090.0 0.0083279
7110.0 0.0072146
7130.0 0.0071058
7150.0 0.0075432
7170.0 0.008232
7190.0 0.0082734
7210.0 0.0080341
7230.0 0.0088106
7250.0 0.0095011
7270.0 0.0098542
7290.0 0.010076
7310.0 0.010077
7330.0 0.009492
7350.0 0.0088011
7370.0 0.0081969
7390.0 0.0080337
7410.0 0.0088142
7430.0 0.010194
7450.0 0.011194
7470.0 0.012238
7490.0 0.014172
7510.0 0.013968
7530.0 0.011681
7550.0 0.01014
7570.0 0.0085013
7590.0 0.0074323
7610.0 0.0072235
7630.0 0.0071728
7650.0 0.007771
7670.0 0.0088388
7690.0 0.0097017
7710.0 0.011058
7730.0 0.011484
7750.0 0.011889
7770.0 0.012738
7790.0 0.013257
7810.0 0.01306
7830.0 0.012005
7850.0 0.011912
7870.0 0.011599
7890.0 0.011092
7910.0 0.010279
7930.0 0.0097335
7950.0 0.0081506
7970.0 0.0078716
7990.0 0.0079093
8010.0 0.0091851
8030.0 0.0092037
8050.0 0.009709
8070.0 0.0094524
8090.0 0.0094801
8110.0 0.0093141
8130.0 0.0089636
8150.0 0.0083253
8170.0 0.0082423
8190.0 0.008316
8210.0 0.0084058
8230.0 0.0075916
8250.0 0.0070355
8270.0 0.0062052
8290.0 0.0052106
8310.0 0.0043693
8330.0 0.0032895
8350.0 0.002561
8370.0 0.0023975
8390.0 0.0024515
8410.0 0.0027261
8430.0 0.0034875
8450.0 0.0038434
8470.0 0.0041512
8490.0 0.004733
8510.0 0.0051299
8530.0 0.0057451
8550.0 0.0067999
8570.0 0.0075936
8590.0 0.0081137
8610.0 0.0092079
8630.0 0.010615
8650.0 0.011037
8670.0 0.011272
8690.0 0.011457
8710.0 0.011169
8730.0 0.010728
8750.0 0.009924
8770.0 0.0098438
8790.0 0.0096073
8810.0 0.0088635
8830.0 0.0086248
8850.0 0.0076696
8870.0 0.0071794
8890.0 0.006515
8910.0 0.0072742
8930.0 0.0067129
8950.0 0.0068066
8970.0 0.00697
8990.0 0.0068515
9010.0 0.0069785
9030.0 0.0066586
9050.0 0.0066343
9070.0 0.0066411
9090.0 0.0066474
9110.0 0.0066581
9130.0 0.0066637
9150.0 0.0066667
9170.0 0.0066558
9190.0 0.0066256
9210.0 0.0067171
9230.0 0.0067003
9250.0 0.0066944
9270.0 0.0066912
9290.0 0.0066899
9310.0 0.0066896
9330.0 0.00669
9350.0 0.006691
9370.0 0.0066919
9390.0 0.0066926
9410.0 0.0066935
9430.0 0.0066945
9450.0 0.006695
9470.0 0.0066955
9490.0 0.0066962
9510.0 0.0066967
9530.0 0.006697
9550.0 0.0066977
9570.0 0.0066986
9590.0 0.0066992
9610.0 0.0067
9630.0 0.0067012
9650.0 0.0067025
9670.0 0.0067034
9690.0 0.006705
9710.0 0.0067069
9730.0 0.0067085
9750.0 0.0067105
9770.0 0.0067134
9790.0 0.0067159
9810.0 0.0067185
9830.0 0.0067218
9850.0 0.0067254
9870.0 0.0067287
9890.0 0.0067325
9910.0 0.006737
9930.0 0.0067414
9950.0 0.0067393
9970.0 0.0067466
9990.0 0.006754
10010.0 0.0067604
10030.0 0.006767
10050.0 0.0067711
10070.0 0.0067606
10090.0 0.0067732
10110.0 0.0067856
10130.0 0.0067964
10150.0 0.0068065
10170.0 0.0068157
10190.0 0.0068239
10210.0 0.0068326
10230.0 0.0068414
10250.0 0.0068498
10270.0 0.0068584
10290.0 0.0068676
10310.0 0.0068766
10330.0 0.0068853
10350.0 0.0068946
10370.0 0.0069042
10390.0 0.0069134
10410.0 0.0069227
10430.0 0.0069326
10450.0 0.0069422
10470.0 0.0069515
10490.0 0.0069613
10510.0 0.0069711
10530.0 0.0069803
10550.0 0.0069897
10570.0 0.0069995
10590.0 0.0070089
10610.0 0.007018
10630.0 0.0070275
10650.0 0.0070368
10670.0 0.0070456
10690.0 0.0070544
10710.0 0.0070634
10730.0 0.0070719
10750.0 0.00708
10770.0 0.0070885
10790.0 0.0070966
10810.0 0.0071041
10830.0 0.0071114
10850.0 0.007118
10870.0 0.0071223
10890.0 0.0071232
10910.0 0.0071189
10930.0 0.007105
10950.0 0.0070753
10970.0 0.0070265
10990.0 0.0069571
11010.0 0.0071089
11030.0 0.0069679
11050.0 0.0068048
11070.0 0.0066175
11090.0 0.0064011
11110.0 0.0061864
11130.0 0.0059724
11150.0 0.005754
11170.0 0.005543
11190.0 0.0053526
11210.0 0.0051709
11230.0 0.0050005
11250.0 0.0048525
11270.0 0.0047231
11290.0 0.0046051
11310.0 0.0045028
11330.0 0.0044188
11350.0 0.0043426
11370.0 0.0042724
11390.0 0.0042089
11410.0 0.0041478
11430.0 0.0040824
11450.0 0.0040149
11470.0 0.0039448
11490.0 0.0038676
11510.0 0.0037817
11530.0 0.0036937
11550.0 0.0036016
11570.0 0.003502
11590.0 0.0034006
11610.0 0.0033013
11630.0 0.0031986
11650.0 0.0030949
11670.0 0.0029984
11690.0 0.0029053
11710.0 0.0028133
11730.0 0.0027269
11750.0 0.002648
11770.0 0.0025707
11790.0 0.0024967
11810.0 0.0024287
11830.0 0.0023641
11850.0 0.002299
11870.0 0.0022379
11890.0 0.0021803
11910.0 0.002122
11930.0 0.0020637
11950.0 0.0020079
11970.0 0.0019517
11990.0 0.0018934
12010.0 0.0018368
12030.0 0.0017818
12050.0 0.0017261
12070.0 0.0016707
12090.0 0.0016207
12110.0 0.0015727
12130.0 0.0015273
12150.0 0.0014875
12170.0 0.0014539
12190.0 0.0014249
12210.0 0.0014035
12230.0 0.0013904
12250.0 0.001385
12270.0 0.0013883
12290.0 0.0013999
12310.0 0.0014188
12330.0 0.0014462
12350.0 0.0014805
12370.0 0.0015191
12390.0 0.0015627
12410.0 0.001612
12430.0 0.0016601
12450.0 0.0017076
12470.0 0.0017554
12490.0 0.0018005
12510.0 0.00184
12530.0 0.0018764
12550.0 0.0019085
12570.0 0.0019339
12590.0 0.0019536
12610.0 0.0019684
12630.0 0.0019773
12650.0 0.0019805
12670.0 0.0019792
12690.0 0.0019733
12710.0 0.0019636
12730.0 0.0019506
12750.0 0.001934
12770.0 0.0019148
12790.0 0.0018938
12810.0 0.0018705
12830.0 0.0018446
12850.0 0.0018179
12870.0 0.0017897
12890.0 0.0017586
12910.0 0.0017259
12930.0 0.0016922
12950.0 0.0016551
12970.0 0.0016149
12990.0 0.0015745
13010.0 0.0015321
13030.0 0.0014868
13050.0 0.0014411
13070.0 0.0013965
13090.0 0.0013503
13110.0 0.0013047
13130.0 0.0012623
13150.0 0.0012222
13170.0 0.0011835
13190.0 0.0011501
13210.0 0.0011217
13230.0 0.0010971
13250.0 0.0010773
13270.0 0.0010629
13290.0 0.0010527
13310.0 0.0010466
13330.0 0.0010444
13350.0 0.0010452
13370.0 0.0010484
13390.0 0.0010533
13410.0 0.0010585
13430.0 0.0010639
13450.0 0.0010689
13470.0 0.0010726
13490.0 0.0010747
13510.0 0.0010754
13530.0 0.0010742
13550.0 0.0010714
13570.0 0.0010672
13590.0 0.0010619
13610.0 0.001056
13630.0 0.00105
13650.0 0.0010437
13670.0 0.0010378
13690.0 0.0010325
13710.0 0.0010277
13730.0 0.0010235
13750.0 0.00102
13770.0 0.001017
13790.0 0.0010142
13810.0 0.0010115
13830.0 0.0010085
13850.0 0.0010051
13870.0 0.0010009
13890.0 0.000996
13910.0 0.00099018
13930.0 0.00098319
13950.0 0.00097528
13970.0 0.00096698
13990.0 0.00095795
14010.0 0.00094852
14030.0 0.00093935
14050.0 0.00093052
14070.0 0.00092181
14090.0 0.00091405
14110.0 0.00090732
14130.0 0.00090138
14150.0 0.00089638
14170.0 0.00089249
14190.0 0.00088948
14210.0 0.00088733
14230.0 0.00088608
14250.0 0.00088564
14270.0 0.00088615
14290.0 0.00088768
14310.0 0.00089002
14330.0 0.00089336
14350.0 0.00089789
14370.0 0.00090331
14390.0 0.00090937
14410.0 0.0009166
14430.0 0.00092463
14450.0 0.00093293
14470.0 0.00094177
14490.0 0.00095159
14510.0 0.00096143
14530.0 0.0009714
14550.0 0.00098235
14570.0 0.00099416
14590.0 0.0010064
14610.0 0.00102
14630.0 0.0010359
14650.0 0.001053
14670.0 0.0010717
14690.0 0.0010933
14710.0 0.0011175
14730.0 0.0011423
14750.0 0.0011696
14770.0 0.0011994
14790.0 0.0012298
14810.0 0.0012602
14830.0 0.001293
14850.0 0.001325
14870.0 0.0013547
14890.0 0.0013834
14910.0 0.0014104
14930.0 0.0014335
14950.0 0.0014526
14970.0 0.0014687
14990.0 0.0014803
15010.0 0.0014876
15030.0 0.0014915
15050.0 0.0014923
15070.0 0.0014907
15090.0 0.0014876
15110.0 0.0014834
15130.0 0.0014786
15150.0 0.0014736
15170.0 0.0014684
15190.0 0.0014631
15210.0 0.0014578
15230.0 0.0014526
15250.0 0.0014473
15270.0 0.001442
15290.0 0.001437
15310.0 0.0014318
15330.0 0.0014266
15350.0 0.0014216
15370.0 0.0014166
15390.0 0.0014114
15410.0 0.0014063
15430.0 0.0014014
15450.0 0.0013964
15470.0 0.0013913
15490.0 0.0013865
15510.0 0.0013816
15530.0 0.0013766
15550.0 0.0013718
15570.0 0.001367
15590.0 0.0013621
15610.0 0.0013572
15630.0 0.0013524
15650.0 0.0013477
15670.0 0.0013429
15690.0 0.0013381
15710.0 0.0013335
15730.0 0.0013288
15750.0 0.001324
15770.0 0.0013194
15790.0 0.0013148
15810.0 0.00131
15830.0 0.0013054
15850.0 0.0013009
15870.0 0.0012962
15890.0 0.0012916
15910.0 0.0012872
15930.0 0.0012826
15950.0 0.001278
15970.0 0.0012735
15990.0 0.001269
16010.0 0.0012645
16030.0 0.0012599
16050.0 0.0012555
16070.0 0.0012511
16090.0 0.0012465
16110.0 0.0012421
16130.0 0.0012378
16150.0 0.0012332
16170.0 0.0012288
16190.0 0.0012244
16210.0 0.00122
16230.0 0.0012155
16250.0 0.0012112
16270.0 0.0012069
16290.0 0.0012025
16310.0 0.0011981
16330.0 0.0011938
16350.0 0.0011894
16370.0 0.0011849
16390.0 0.0011806
16410.0 0.0011763
16430.0 0.0011719
16450.0 0.0011676
16470.0 0.0011634
16490.0 0.001159
16510.0 0.0011546
16530.0 0.0011503
16550.0 0.001146
16570.0 0.0011416
16590.0 0.0011372
16610.0 0.001133
16630.0 0.0011287
16650.0 0.0011243
16670.0 0.00112
16690.0 0.0011158
16710.0 0.0011113
16730.0 0.0011069
16750.0 0.0011027
16770.0 0.0010983
16790.0 0.0010939
16810.0 0.0010896
16830.0 0.0010854
16850.0 0.0010809
16870.0 0.0010766
16890.0 0.0010724
16910.0 0.0010679
16930.0 0.0010635
16950.0 0.0010592
16970.0 0.0010549
16990.0 0.0010504
17010.0 0.0010461
17030.0 0.0010418
17050.0 0.0010374
17070.0 0.0010329
17090.0 0.0010286
17110.0 0.0010243
17130.0 0.0010197
17150.0 0.0010154
17170.0 0.0010111
17190.0 0.0010066
17210.0 0.0010021
17230.0 0.00099785
17250.0 0.00099344
17270.0 0.00098889
17290.0 0.00098449
17310.0 0.00098013
17330.0 0.00097562
17350.0 0.00097109
17370.0 0.00096677
17390.0 0.00096234
17410.0 0.0009578
17430.0 0.00095338
17450.0 0.00094903
17470.0 0.00094441
17490.0 0.00093989
17510.0 0.0009355
17530.0 0.00093102
17550.0 0.00092644
17570.0 0.00092201
17590.0 0.00091761
17610.0 0.00091303
17630.0 0.0009085
17650.0 0.00090409
17670.0 0.00089957
17690.0 0.00089488
17710.0 0.00089045
17730.0 0.000886
17750.0 0.00088141
17770.0 0.00087687
17790.0 0.00087248
17810.0 0.0008679
17830.0 0.00086328
17850.0 0.0008588
17870.0 0.00085431
17890.0 0.00084966
17910.0 0.00084508
17930.0 0.00084067
17950.0 0.0008361
17970.0 0.00083149
17990.0 0.00082703
18010.0 0.00082255
18030.0 0.00081784
18050.0 0.00081329
18070.0 0.00080883
18090.0 0.00080424
18110.0 0.0007996
18130.0 0.00079515
18150.0 0.00079065
18170.0 0.00078602
18190.0 0.00078149
18210.0 0.00077704
18230.0 0.00077241
18250.0 0.00076776
18270.0 0.00076331
18290.0 0.0007588
18310.0 0.00075417
18330.0 0.00074966
18350.0 0.00074524
18370.0 0.00074063
18390.0 0.00073605
18410.0 0.0007316
18430.0 0.00072709
18450.0 0.00072242
18470.0 0.00071793
18490.0 0.00071352
18510.0 0.00070896
18530.0 0.00070441
18550.0 0.00070002
18570.0 0.00069552
18590.0 0.0006909
18610.0 0.00068645
18630.0 0.00068203
18650.0 0.00067747
18670.0 0.00067292
18690.0 0.00066858
18710.0 0.00066413
18730.0 0.00065959
18750.0 0.00065519
18770.0 0.00065084
18790.0 0.00064625
18810.0 0.00064178
18830.0 0.00063744
18850.0 0.00063301
18870.0 0.00062851
18890.0 0.00062417
18910.0 0.00061985
18930.0 0.00061537
18950.0 0.00061097
18970.0 0.00060668
18990.0 0.00060229
19010.0 0.00059776
19030.0 0.0005935
19050.0 0.00058921
19070.0 0.0005848
19090.0 0.00058046
19110.0 0.00057627
19130.0 0.00057189
19150.0 0.0005675
19170.0 0.00056326
19190.0 0.00055902
19210.0 0.00055463
19230.0 0.00055033
19250.0 0.00054619
19270.0 0.00054191
19290.0 0.00053761
19310.0 0.00053346
19330.0 0.00052929
19350.0 0.00052492
19370.0 0.00052073
19390.0 0.00051661
19410.0 0.00051238
19430.0 0.00050813
19450.0 0.00050406
19470.0 0.00049994
19490.0 0.00049571
19510.0 0.0004916
19530.0 0.00048756
19550.0 0.00048336
19570.0 0.00047915
19590.0 0.00047515
19610.0 0.00047109
19630.0 0.00046694
19650.0 0.00046291
19670.0 0.00045896
19690.0 0.00045483
19710.0 0.00045075
19730.0 0.0004468
19750.0 0.0004428
19770.0 0.00043866
19790.0 0.0004347
19810.0 0.0004308
19830.0 0.00042676
19850.0 0.00042273
19870.0 0.00041878
19890.0 0.0004146
19910.0 0.00041009
19930.0 0.0004054
19950.0 0.00040021
19970.0 0.00039411
19990.0 0.00038711
20010.0 0.00037953
20030.0 0.00037082
20050.0 0.00036119
20070.0 0.00035138
20090.0 0.00034147
20110.0 0.00033107
20130.0 0.00032137
20150.0 0.00031252
20170.0 0.00030411
20190.0 0.00029635
20210.0 0.00028968
20230.0 0.00028376
20250.0 0.00027841
20270.0 0.00027396
20290.0 0.00027034
20310.0 0.00026732
20330.0 0.00026494
20350.0 0.00026335
20370.0 0.00026234
20390.0 0.00026193
20410.0 0.00026213
20430.0 0.00026287
20450.0 0.00026426
20470.0 0.00026628
20490.0 0.0002688
20510.0 0.0002719
20530.0 0.00027572
20550.0 0.00028
20570.0 0.00028459
20590.0 0.00028981
20610.0 0.00029543
20630.0 0.00030111
20650.0 0.00030704
20670.0 0.00031337
20690.0 0.0003194
20710.0 0.0003252
20730.0 0.000331
20750.0 0.00033654
20770.0 0.00034151
20790.0 0.00034627
20810.0 0.00035083
20830.0 0.00035495
20850.0 0.00035876
20870.0 0.00036258
20890.0 0.00036627
20910.0 0.00036972
20930.0 0.00037326
20950.0 0.00037694
20970.0 0.00038054
20990.0 0.00038412
21010.0 0.0003879
21030.0 0.00039154
21050.0 0.00039493
21070.0 0.00039815
21090.0 0.00040116
21110.0 0.00040361
21130.0 0.00040559
21150.0 0.00040713
21170.0 0.0004081
21190.0 0.0004085
21210.0 0.00040836
21230.0 0.00040765
21250.0 0.00040645
21270.0 0.00040479
21290.0 0.00040264
21310.0 0.00040011
21330.0 0.00039737
21350.0 0.00039426
21370.0 0.00039088
21390.0 0.00038744
21410.0 0.00038389
21430.0 0.00038006
21450.0 0.00037633
21470.0 0.00037273
21490.0 0.0003691
21510.0 0.00036554
21530.0 0.00036228
21550.0 0.00035919
21570.0 0.00035622
21590.0 0.00035361
21610.0 0.00035136
21630.0 0.0003494
21650.0 0.0003478
21670.0 0.00034671
21690.0 0.00034602
21710.0 0.00034579
21730.0 0.00034604
21750.0 0.00034674
21770.0 0.00034798
21790.0 0.00034974
21810.0 0.0003519
21830.0 0.00035455
21850.0 0.00035776
21870.0 0.00036132
21890.0 0.00036514
21910.0 0.00036948
21930.0 0.00037416
21950.0 0.00037893
21970.0 0.000384
21990.0 0.00038952
22010.0 0.00039489
22030.0 0.00040026
22050.0 0.0004058
22070.0 0.0004113
22090.0 0.00041642
22110.0 0.0004215
22130.0 0.00042644
22150.0 0.00043091
22170.0 0.00043495
22190.0 0.00043871
22210.0 0.00044191
22230.0 0.00044439
22250.0 0.00044631
22270.0 0.00044758
22290.0 0.00044808
22310.0 0.00044787
22330.0 0.00044684
22350.0 0.000445
22370.0 0.00044243
22390.0 0.00043903
22410.0 0.00043469
22430.0 0.0004298
22450.0 0.00042428
22470.0 0.00041788
22490.0 0.00041094
22510.0 0.00040373
22530.0 0.00039575
22550.0 0.0003872
22570.0 0.0003787
22590.0 0.00036996
22610.0 0.00036075
22630.0 0.00035156
22650.0 0.00034274
22670.0 0.00033362
22690.0 0.00032451
22710.0 0.00031588
22730.0 0.00030748
22750.0 0.00029889
22770.0 0.00029096
22790.0 0.00028361
22810.0 0.00027645
22830.0 0.00026968
22850.0 0.00026369
22870.0 0.00025814
22890.0 0.00025297
22910.0 0.00024855
22930.0 0.00024484
22950.0 0.00024167
22970.0 0.00023918
22990.0 0.00023754
23010.0 0.00023657
23030.0 0.00023631
23050.0 0.0002368
23070.0 0.00023793
23090.0 0.00023985
23110.0 0.00024243
23130.0 0.00024551
23150.0 0.00024915
23170.0 0.00025341
23190.0 0.00025792
23210.0 0.00026259
23230.0 0.00026765
23250.0 0.0002728
23270.0 0.00027776
23290.0 0.00028273
23310.0 0.00028771
23330.0 0.00029216
23350.0 0.00029622
23370.0 0.00029998
23390.0 0.00030323
23410.0 0.00030583
23430.0 0.00030796
23450.0 0.00030952
23470.0 0.00031044
