#lamb flux
1010.0 9.8483e-07
1030.0 1.0766e-06
1050.0 1.1826e-06
1070.0 1.3024e-06
1090.0 1.4389e-06
1110.0 1.5798e-06
1130.0 1.7227e-06
1150.0 1.8734e-06
1170.0 2.0302e-06
1190.0 2.1808e-06
1210.0 2.335e-06
1230.0 2.496e-06
1250.0 2.6561e-06
1270.0 2.814e-06
1290.0 2.9824e-06
1310.0 3.1533e-06
1330.0 3.3205e-06
1350.0 3.492e-06
1370.0 3.6712e-06
1390.0 3.8494e-06
1410.0 4.0258e-06
1430.0 4.212e-06
1450.0 4.401e-06
1470.0 4.5874e-06
1490.0 4.778e-06
1510.0 4.9801e-06
1530.0 5.1756e-06
1550.0 5.3707e-06
1570.0 5.5729e-06
1590.0 5.7765e-06
1610.0 5.9733e-06
1630.0 6.1752e-06
1650.0 6.3812e-06
1670.0 6.5805e-06
1690.0 6.7759e-06
1710.0 6.9754e-06
1730.0 7.1728e-06
1750.0 7.3558e-06
1770.0 7.5389e-06
1790.0 7.72e-06
1810.0 7.8891e-06
1830.0 8.0483e-06
1850.0 8.2099e-06
1870.0 8.3583e-06
1890.0 8.4918e-06
1910.0 8.6187e-06
1930.0 8.7393e-06
1950.0 8.8413e-06
1970.0 8.9302e-06
1990.0 9.0137e-06
2010.0 9.0826e-06
2030.0 9.1341e-06
2050.0 9.1787e-06
2070.0 9.2154e-06
2090.0 9.2316e-06
2110.0 9.2364e-06
2130.0 9.2349e-06
2150.0 9.2202e-06
2170.0 9.1898e-06
2190.0 9.1556e-06
2210.0 9.1137e-06
2230.0 9.0587e-06
2250.0 8.9963e-06
2270.0 8.9334e-06
2290.0 8.8608e-06
2310.0 8.7787e-06
2330.0 8.6965e-06
2350.0 8.6118e-06
2370.0 8.5196e-06
2390.0 8.4262e-06
2410.0 8.3351e-06
2430.0 8.237e-06
2450.0 8.1318e-06
2470.0 8.0218e-06
2490.0 7.9026e-06
2510.0 7.7712e-06
2530.0 7.6408e-06
2550.0 7.5319e-06
2570.0 7.4749e-06
2590.0 7.5065e-06
2610.0 7.701e-06
2630.0 8.095e-06
2650.0 8.6703e-06
2670.0 9.4427e-06
2690.0 1.0393e-05
2710.0 1.1383e-05
2730.0 1.234e-05
2750.0 1.3292e-05
2770.0 1.4143e-05
2790.0 1.4867e-05
2810.0 1.553e-05
2830.0 1.6189e-05
2850.0 1.6781e-05
2870.0 1.7368e-05
2890.0 1.7994e-05
2910.0 1.8635e-05
2930.0 1.9255e-05
2950.0 1.9918e-05
2970.0 2.0613e-05
2990.0 2.1293e-05
3010.0 4.8687e-05
3030.0 5.0309e-05
3050.0 5.1966e-05
3070.0 5.355e-05
3090.0 5.5208e-05
3110.0 5.6892e-05
3130.0 5.8488e-05
3150.0 6.0003e-05
3170.0 6.1506e-05
3190.0 6.2803e-05
3210.0 6.3794e-05
3230.0 6.4699e-05
3250.0 6.3644e-05
3270.0 6.4344e-05
3290.0 6.374e-05
3310.0 6.9282e-05
3330.0 7.437e-05
3350.0 7.9923e-05
3370.0 8.6325e-05
3390.0 9.3534e-05
3410.0 0.00010103
3430.0 0.00010909
3450.0 0.00011799
3470.0 0.00012743
3490.0 0.00013729
3510.0 0.00014772
3530.0 0.00015885
3550.0 0.00017318
3570.0 0.00018971
3590.0 0.00020344
3610.0 0.00021882
3630.0 0.00022462
3650.0 0.0002292
3670.0 0.00023204
3690.0 0.00023855
3710.0 0.00024594
3730.0 0.00024187
3750.0 0.00023472
3770.0 0.00022491
3790.0 0.00021346
3810.0 0.00019897
3830.0 0.00017599
3850.0 0.00010995
3870.0 0.00015277
3890.0 0.00020828
3910.0 0.00025699
3930.0 0.00029635
3950.0 0.00031461
3970.0 0.00032801
3990.0 0.00039406
4010.0 0.00037256
4030.0 0.00032628
4050.0 0.00028943
4070.0 0.00026057
4090.0 0.00030527
4110.0 0.00032548
4130.0 0.00032821
4150.0 0.00032406
4170.0 0.00030482
4190.0 0.000288
4210.0 0.00034001
4230.0 0.0003852
4250.0 0.00039231
4270.0 0.00037842
4290.0 0.00038553
4310.0 0.00040923
4330.0 0.00046448
4350.0 0.00049864
4370.0 0.00049162
4390.0 0.00041456
4410.0 0.00035491
4430.0 0.00030091
4450.0 0.00026155
4470.0 0.00027206
4490.0 0.00033936
4510.0 0.0003678
4530.0 0.00040413
4550.0 0.00043488
4570.0 0.00053827
4590.0 0.00078248
4610.0 0.0010222
4630.0 0.0010249
4650.0 0.00095987
4670.0 0.0010332
4690.0 0.0011652
4710.0 0.00098495
4730.0 0.00071466
4750.0 0.0005556
4770.0 0.00051937
4790.0 0.0005299
4810.0 0.00049255
4830.0 0.00053552
4850.0 0.00065342
4870.0 0.00080079
4890.0 0.0007303
4910.0 0.00062393
4930.0 0.00067234
4950.0 0.00088468
4970.0 0.0011667
4990.0 0.0012074
5010.0 0.0010556
5030.0 0.00081095
5050.0 0.00057961
5070.0 0.00047902
5090.0 0.00044688
5110.0 0.0004474
5130.0 0.00046742
5150.0 0.0004597
5170.0 0.00047073
5190.0 0.00045
5210.0 0.00046039
5230.0 0.00050125
5250.0 0.00054662
5270.0 0.00068386
5290.0 0.00080543
5310.0 0.000808
5330.0 0.00084078
5350.0 0.00096843
5370.0 0.0010654
5390.0 0.00099267
5410.0 0.00085409
5430.0 0.00081249
5450.0 0.00094818
5470.0 0.0012465
5490.0 0.0015686
5510.0 0.0017296
5530.0 0.0017652
5550.0 0.0016896
5570.0 0.0016057
5590.0 0.001575
5610.0 0.0016153
5630.0 0.0016593
5650.0 0.0016747
5670.0 0.0016899
5690.0 0.0016659
5710.0 0.0014767
5730.0 0.0012564
5750.0 0.0010806
5770.0 0.0011175
5790.0 0.0012385
5810.0 0.0013513
5830.0 0.001415
5850.0 0.0014183
5870.0 0.0013227
5890.0 0.0011696
5910.0 0.0011796
5930.0 0.0013195
5950.0 0.0013569
5970.0 0.0012471
5990.0 0.0010884
6010.0 0.00089364
6030.0 0.0007499
6050.0 0.00075549
6070.0 0.00087176
6090.0 0.00091893
6110.0 0.0008171
6130.0 0.00075887
6150.0 0.00082552
6170.0 0.00099622
6190.0 0.0011862
6210.0 0.0012622
6230.0 0.0012079
6250.0 0.0011091
6270.0 0.00095609
6290.0 0.00079276
6310.0 0.00066284
6330.0 0.00061133
6350.0 0.00064613
6370.0 0.00068139
6390.0 0.00072175
6410.0 0.00082999
6430.0 0.0010457
6450.0 0.001318
6470.0 0.0014703
6490.0 0.0014412
6510.0 0.0014187
6530.0 0.0014705
6550.0 0.0014868
6570.0 0.0015119
6590.0 0.0015177
6610.0 0.0014907
6630.0 0.0015074
6650.0 0.0015
6670.0 0.0014244
6690.0 0.001263
6710.0 0.0010731
6730.0 0.0010547
6750.0 0.0011439
6770.0 0.001232
6790.0 0.0012629
6810.0 0.0012518
6830.0 0.0012314
6850.0 0.0012062
6870.0 0.0011328
6890.0 0.0010792
6910.0 0.0010244
6930.0 0.00099806
6950.0 0.0010764
6970.0 0.0011562
6990.0 0.0012121
7010.0 0.0012185
7030.0 0.0011461
7050.0 0.00099527
7070.0 0.00080771
7090.0 0.00068844
7110.0 0.00067277
7130.0 0.00072054
7150.0 0.00071698
7170.0 0.00065017
7190.0 0.00064409
7210.0 0.00071344
7230.0 0.00082748
7250.0 0.00094081
7270.0 0.00098266
7290.0 0.0009099
7310.0 0.00080382
7330.0 0.00073772
7350.0 0.00072846
7370.0 0.0007504
7390.0 0.00077984
7410.0 0.00083267
7430.0 0.00095695
7450.0 0.001115
7470.0 0.0012625
7490.0 0.0013214
7510.0 0.0012705
7530.0 0.0010559
7550.0 0.00086205
7570.0 0.0007166
7590.0 0.00063099
7610.0 0.00065346
7630.0 0.00075255
7650.0 0.00085517
7670.0 0.00095234
7690.0 0.0010223
7710.0 0.0010782
7730.0 0.0011312
7750.0 0.0011801
7770.0 0.0012001
7790.0 0.0011878
7810.0 0.001198
7830.0 0.0012339
7850.0 0.0012144
7870.0 0.0011665
7890.0 0.0010838
7910.0 0.0010077
7930.0 0.00096176
7950.0 0.00094329
7970.0 0.00092516
7990.0 0.00092141
8010.0 0.00093419
8030.0 0.00093274
8050.0 0.00094619
8070.0 0.00092864
8090.0 0.00092117
8110.0 0.00087747
8130.0 0.00086593
8150.0 0.00083922
8170.0 0.00081025
8190.0 0.00079311
8210.0 0.00079315
8230.0 0.00074807
8250.0 0.00070277
8270.0 0.00061203
8290.0 0.00048892
8310.0 0.0003694
8330.0 0.00027949
8350.0 0.00024838
8370.0 0.00028409
8390.0 0.00033418
8410.0 0.00036734
8430.0 0.00039645
8450.0 0.00041428
8470.0 0.00043212
8490.0 0.00047703
8510.0 0.00053271
8530.0 0.00061597
8550.0 0.00071402
8570.0 0.00080177
8590.0 0.00087056
8610.0 0.00092268
8630.0 0.00095102
8650.0 0.00094961
8670.0 0.0009453
8690.0 0.00097252
8710.0 0.00099465
8730.0 0.0010154
8750.0 0.00099494
8770.0 0.00099451
8790.0 0.00097645
8810.0 0.00090535
8830.0 0.00087
8850.0 0.00081353
8870.0 0.00076913
8890.0 0.00073608
8910.0 0.00074531
8930.0 0.00069998
8950.0 0.00066634
8970.0 0.00065091
8990.0 0.00063435
9010.0 0.0006162
9030.0 0.00060111
9050.0 0.00059727
9070.0 0.00059547
9090.0 0.00059376
9110.0 0.00059213
9130.0 0.00059037
9150.0 0.00058858
9170.0 0.00058617
9190.0 0.00058328
9210.0 0.00058557
9230.0 0.00058257
9250.0 0.00058014
9270.0 0.00057789
9290.0 0.00057576
9310.0 0.00057369
9330.0 0.00057164
9350.0 0.00056965
9370.0 0.00056765
9390.0 0.00056561
9410.0 0.00056359
9430.0 0.00056152
9450.0 0.00055913
9470.0 0.00055683
9490.0 0.00055505
9510.0 0.0005531
9530.0 0.00055109
9550.0 0.00054906
9570.0 0.00054698
9590.0 0.00054488
9610.0 0.00054277
9630.0 0.00054066
9650.0 0.00053853
9670.0 0.00053639
9690.0 0.00053426
9710.0 0.00053212
9730.0 0.00052998
9750.0 0.00052783
9770.0 0.00052569
9790.0 0.00052355
9810.0 0.00052139
9830.0 0.00051924
9850.0 0.0005171
9870.0 0.00051494
9890.0 0.00051278
9910.0 0.00051062
9930.0 0.0005084
9950.0 0.0005026
9970.0 0.00050152
9990.0 0.00050023
10010.0 0.00049882
10030.0 0.00049711
10050.0 0.00049513
10070.0 0.00049303
10090.0 0.00049108
10110.0 0.00048889
10130.0 0.00048684
10150.0 0.00048473
10170.0 0.00048251
10190.0 0.00048017
10210.0 0.00047799
10230.0 0.00047586
10250.0 0.00047359
10270.0 0.00047134
10290.0 0.00046922
10310.0 0.00046697
10330.0 0.0004646
10350.0 0.0004624
10370.0 0.0004602
10390.0 0.00045785
10410.0 0.00045553
10430.0 0.00045336
10450.0 0.00045104
10470.0 0.00044865
10490.0 0.00044637
10510.0 0.00044409
10530.0 0.00044159
10550.0 0.00043918
10570.0 0.00043688
10590.0 0.00043446
10610.0 0.00043195
10630.0 0.00042959
10650.0 0.00042719
10670.0 0.0004246
10690.0 0.00042208
10710.0 0.00041964
10730.0 0.00041706
10750.0 0.00041434
10770.0 0.00041185
10790.0 0.00040929
10810.0 0.00040658
10830.0 0.00040391
10850.0 0.00040135
10870.0 0.0003985
10890.0 0.00039558
10910.0 0.00039272
10930.0 0.00038966
10950.0 0.00038621
10970.0 0.00038255
10990.0 0.00037874
11010.0 0.00035121
11030.0 0.00034652
11050.0 0.00034204
11070.0 0.00033752
11090.0 0.00033274
11110.0 0.00032838
11130.0 0.00032422
11150.0 0.00031997
11170.0 0.00031581
11190.0 0.00031197
11210.0 0.00030805
11230.0 0.00030403
11250.0 0.0003002
11270.0 0.00029649
11290.0 0.0002926
11310.0 0.00028875
11330.0 0.00028525
11350.0 0.00028168
11370.0 0.00027806
11390.0 0.00027466
11410.0 0.00027137
11430.0 0.00026785
11450.0 0.00026441
11470.0 0.00026108
11490.0 0.00025759
11510.0 0.00025386
11530.0 0.00025022
11550.0 0.00024648
11570.0 0.00024238
11590.0 0.00023817
11610.0 0.00023397
11630.0 0.00022941
11650.0 0.00022457
11670.0 0.00021987
11690.0 0.0002151
11710.0 0.00021008
11730.0 0.00020512
11750.0 0.00020044
11770.0 0.00019562
11790.0 0.00019085
11810.0 0.00018641
11830.0 0.00018216
11850.0 0.00017784
11870.0 0.0001739
11890.0 0.00017031
11910.0 0.00016679
11930.0 0.00016344
11950.0 0.00016043
11970.0 0.00015756
11990.0 0.00015471
12010.0 0.00015211
12030.0 0.00014972
12050.0 0.00014737
12070.0 0.00014511
12090.0 0.00014315
12110.0 0.00014129
12130.0 0.00013951
12150.0 0.00013795
12170.0 0.00013662
12190.0 0.00013537
12210.0 0.00013437
12230.0 0.00013365
12250.0 0.00013316
12270.0 0.00013293
12290.0 0.00013302
12310.0 0.00013342
12330.0 0.00013414
12350.0 0.00013521
12370.0 0.00013657
12390.0 0.00013826
12410.0 0.00014035
12430.0 0.00014263
12450.0 0.00014513
12470.0 0.0001479
12490.0 0.00015083
12510.0 0.00015373
12530.0 0.00015675
12550.0 0.00015982
12570.0 0.00016271
12590.0 0.00016544
12610.0 0.00016807
12630.0 0.00017044
12650.0 0.00017244
12670.0 0.00017417
12690.0 0.00017558
12710.0 0.0001766
12730.0 0.00017728
12750.0 0.00017762
12770.0 0.00017759
12790.0 0.00017726
12810.0 0.00017662
12830.0 0.00017568
12850.0 0.00017456
12870.0 0.00017327
12890.0 0.00017175
12910.0 0.00017013
12930.0 0.00016849
12950.0 0.0001667
12970.0 0.00016482
12990.0 0.00016301
13010.0 0.00016118
13030.0 0.00015925
13050.0 0.00015734
13070.0 0.0001555
13090.0 0.00015354
13110.0 0.00015156
13130.0 0.00014963
13150.0 0.00014771
13170.0 0.0001457
13190.0 0.0001438
13210.0 0.00014204
13230.0 0.00014033
13250.0 0.00013875
13270.0 0.00013742
13290.0 0.00013628
13310.0 0.00013535
13330.0 0.00013473
13350.0 0.00013439
13370.0 0.00013431
13390.0 0.00013448
13410.0 0.00013485
13430.0 0.00013537
13450.0 0.00013598
13470.0 0.00013658
13490.0 0.0001371
13510.0 0.00013749
13530.0 0.00013764
13550.0 0.00013752
13570.0 0.0001371
13590.0 0.00013632
13610.0 0.00013523
13630.0 0.00013389
13650.0 0.00013221
13670.0 0.00013032
13690.0 0.00012833
13710.0 0.0001262
13730.0 0.00012391
13750.0 0.00012176
13770.0 0.00011968
13790.0 0.00011762
13810.0 0.00011571
13830.0 0.00011401
13850.0 0.00011242
13870.0 0.00011095
13890.0 0.0001097
13910.0 0.00010859
13930.0 0.00010759
13950.0 0.00010673
13970.0 0.00010601
13990.0 0.00010536
14010.0 0.00010479
14030.0 0.00010429
14050.0 0.00010385
14070.0 0.00010343
14090.0 0.00010305
14110.0 0.00010268
14130.0 0.00010231
14150.0 0.00010192
14170.0 0.00010153
14190.0 0.00010111
14210.0 0.00010066
14230.0 0.0001002
14250.0 9.9724e-05
14270.0 9.9232e-05
14290.0 9.8736e-05
14310.0 9.8274e-05
14330.0 9.7834e-05
14350.0 9.7421e-05
14370.0 9.7056e-05
14390.0 9.6743e-05
14410.0 9.6468e-05
14430.0 9.6237e-05
14450.0 9.6047e-05
14470.0 9.5885e-05
14490.0 9.5747e-05
14510.0 9.5624e-05
14530.0 9.5508e-05
14550.0 9.5401e-05
14570.0 9.5303e-05
14590.0 9.5215e-05
14610.0 9.5149e-05
14630.0 9.5123e-05
14650.0 9.5139e-05
14670.0 9.521e-05
14690.0 9.5367e-05
14710.0 9.5624e-05
14730.0 9.5955e-05
14750.0 9.6405e-05
14770.0 9.6999e-05
14790.0 9.7705e-05
14810.0 9.8521e-05
14830.0 9.9556e-05
14850.0 0.00010073
14870.0 0.00010199
14890.0 0.00010341
14910.0 0.00010496
14930.0 0.00010648
14950.0 0.00010792
14970.0 0.00010931
14990.0 0.00011047
15010.0 0.00011133
15030.0 0.00011193
15050.0 0.00011229
15070.0 0.00011237
15090.0 0.00011229
15110.0 0.0001121
15130.0 0.00011183
15150.0 0.00011152
15170.0 0.00011118
15190.0 0.00011083
15210.0 0.00011048
15230.0 0.00011013
15250.0 0.00010977
15270.0 0.00010942
15290.0 0.00010906
15310.0 0.00010871
15330.0 0.00010835
15350.0 0.00010799
15370.0 0.00010764
15390.0 0.00010727
15410.0 0.00010692
15430.0 0.00010656
15450.0 0.0001062
15470.0 0.00010584
15490.0 0.00010548
15510.0 0.00010512
15530.0 0.00010476
15550.0 0.0001044
15570.0 0.00010404
15590.0 0.00010367
15610.0 0.00010331
15630.0 0.00010295
15650.0 0.00010259
15670.0 0.00010223
15690.0 0.00010187
15710.0 0.00010151
15730.0 0.00010115
15750.0 0.00010079
15770.0 0.00010043
15790.0 0.00010007
15810.0 9.9713e-05
15830.0 9.9355e-05
15850.0 9.8998e-05
15870.0 9.864e-05
15890.0 9.8282e-05
15910.0 9.7928e-05
15930.0 9.7572e-05
15950.0 9.7214e-05
15970.0 9.6859e-05
15990.0 9.6506e-05
16010.0 9.6151e-05
16030.0 9.5796e-05
16050.0 9.5446e-05
16070.0 9.5095e-05
16090.0 9.4743e-05
16110.0 9.4393e-05
16130.0 9.4046e-05
16150.0 9.3694e-05
16170.0 9.3345e-05
16190.0 9.3e-05
16210.0 9.2654e-05
16230.0 9.2307e-05
16250.0 9.1963e-05
16270.0 9.1621e-05
16290.0 9.1277e-05
16310.0 9.0935e-05
16330.0 9.0596e-05
16350.0 9.0256e-05
16370.0 8.9914e-05
16390.0 8.9578e-05
16410.0 8.9242e-05
16430.0 8.8905e-05
16450.0 8.857e-05
16470.0 8.8239e-05
16490.0 8.7906e-05
16510.0 8.7573e-05
16530.0 8.7244e-05
16550.0 8.6915e-05
16570.0 8.6586e-05
16590.0 8.6258e-05
16610.0 8.5934e-05
16630.0 8.561e-05
16650.0 8.5285e-05
16670.0 8.4964e-05
16690.0 8.4645e-05
16710.0 8.4323e-05
16730.0 8.4004e-05
16750.0 8.3688e-05
16770.0 8.3372e-05
16790.0 8.3055e-05
16810.0 8.2743e-05
16830.0 8.2432e-05
16850.0 8.212e-05
16870.0 8.181e-05
16890.0 8.1504e-05
16910.0 8.1195e-05
16930.0 8.0888e-05
16950.0 8.0585e-05
16970.0 8.0282e-05
16990.0 7.9979e-05
17010.0 7.9679e-05
17030.0 7.9381e-05
17050.0 7.9083e-05
17070.0 7.8785e-05
17090.0 7.8491e-05
17110.0 7.8198e-05
17130.0 7.7903e-05
17150.0 7.7612e-05
17170.0 7.7324e-05
17190.0 7.7035e-05
17210.0 7.6747e-05
17230.0 7.6463e-05
17250.0 7.6179e-05
17270.0 7.5894e-05
17290.0 7.5613e-05
17310.0 7.5334e-05
17330.0 7.5054e-05
17350.0 7.4775e-05
17370.0 7.4501e-05
17390.0 7.4227e-05
17410.0 7.3952e-05
17430.0 7.3681e-05
17450.0 7.3412e-05
17470.0 7.3141e-05
17490.0 7.2872e-05
17510.0 7.2607e-05
17530.0 7.2342e-05
17550.0 7.2077e-05
17570.0 7.1815e-05
17590.0 7.1556e-05
17610.0 7.1295e-05
17630.0 7.1036e-05
17650.0 7.0781e-05
17670.0 7.0525e-05
17690.0 7.0268e-05
17710.0 7.0017e-05
17730.0 6.9766e-05
17750.0 6.9515e-05
17770.0 6.9266e-05
17790.0 6.9021e-05
17810.0 6.8774e-05
17830.0 6.8528e-05
17850.0 6.8285e-05
17870.0 6.8044e-05
17890.0 6.7802e-05
17910.0 6.7562e-05
17930.0 6.7325e-05
17950.0 6.7088e-05
17970.0 6.6852e-05
17990.0 6.6619e-05
18010.0 6.6387e-05
18030.0 6.6154e-05
18050.0 6.5923e-05
18070.0 6.5696e-05
18090.0 6.5467e-05
18110.0 6.524e-05
18130.0 6.5016e-05
18150.0 6.4793e-05
18170.0 6.4569e-05
18190.0 6.4348e-05
18210.0 6.413e-05
18230.0 6.391e-05
18250.0 6.3691e-05
18270.0 6.3476e-05
18290.0 6.3262e-05
18310.0 6.3047e-05
18330.0 6.2835e-05
18350.0 6.2625e-05
18370.0 6.2414e-05
18390.0 6.2204e-05
18410.0 6.1998e-05
18430.0 6.1792e-05
18450.0 6.1584e-05
18470.0 6.1381e-05
18490.0 6.1179e-05
18510.0 6.0977e-05
18530.0 6.0776e-05
18550.0 6.0578e-05
18570.0 6.038e-05
18590.0 6.0182e-05
18610.0 5.9986e-05
18630.0 5.9793e-05
18650.0 5.9598e-05
18670.0 5.9405e-05
18690.0 5.9215e-05
18710.0 5.9025e-05
18730.0 5.8835e-05
18750.0 5.8648e-05
18770.0 5.8462e-05
18790.0 5.8275e-05
18810.0 5.809e-05
18830.0 5.7908e-05
18850.0 5.7725e-05
18870.0 5.7543e-05
18890.0 5.7363e-05
18910.0 5.7185e-05
18930.0 5.7006e-05
18950.0 5.6829e-05
18970.0 5.6654e-05
18990.0 5.6479e-05
19010.0 5.6303e-05
19030.0 5.6131e-05
19050.0 5.596e-05
19070.0 5.5788e-05
19090.0 5.5618e-05
19110.0 5.5451e-05
19130.0 5.5282e-05
19150.0 5.5115e-05
19170.0 5.4949e-05
19190.0 5.4785e-05
19210.0 5.462e-05
19230.0 5.4457e-05
19250.0 5.4296e-05
19270.0 5.4135e-05
19290.0 5.3974e-05
19310.0 5.3816e-05
19330.0 5.3659e-05
19350.0 5.3499e-05
19370.0 5.3343e-05
19390.0 5.3189e-05
19410.0 5.3034e-05
19430.0 5.2879e-05
19450.0 5.2728e-05
19470.0 5.2577e-05
19490.0 5.2425e-05
19510.0 5.2275e-05
19530.0 5.2127e-05
19550.0 5.1978e-05
19570.0 5.1829e-05
19590.0 5.1684e-05
19610.0 5.1539e-05
19630.0 5.1393e-05
19650.0 5.125e-05
19670.0 5.1108e-05
19690.0 5.0965e-05
19710.0 5.0823e-05
19730.0 5.0683e-05
19750.0 5.0543e-05
19770.0 5.0403e-05
19790.0 5.0265e-05
19810.0 5.0128e-05
19830.0 4.999e-05
19850.0 4.985e-05
19870.0 4.9709e-05
19890.0 4.9558e-05
19910.0 4.9387e-05
19930.0 4.9192e-05
19950.0 4.8956e-05
19970.0 4.8654e-05
19990.0 4.8274e-05
20010.0 4.7827e-05
20030.0 4.7281e-05
20050.0 4.6641e-05
20070.0 4.5948e-05
20090.0 4.5209e-05
20110.0 4.4391e-05
20130.0 4.3576e-05
20150.0 4.278e-05
20170.0 4.197e-05
20190.0 4.1161e-05
20210.0 4.0403e-05
20230.0 3.9666e-05
20250.0 3.8929e-05
20270.0 3.8237e-05
20290.0 3.7591e-05
20310.0 3.6962e-05
20330.0 3.635e-05
20350.0 3.581e-05
20370.0 3.5297e-05
20390.0 3.4808e-05
20410.0 3.4363e-05
20430.0 3.3967e-05
20450.0 3.3589e-05
20470.0 3.325e-05
20490.0 3.2959e-05
20510.0 3.2702e-05
20530.0 3.2475e-05
20550.0 3.2289e-05
20570.0 3.2141e-05
20590.0 3.2022e-05
20610.0 3.1934e-05
20630.0 3.1877e-05
20650.0 3.1845e-05
20670.0 3.1839e-05
20690.0 3.1854e-05
20710.0 3.1884e-05
20730.0 3.1931e-05
20750.0 3.199e-05
20770.0 3.2052e-05
20790.0 3.212e-05
20810.0 3.2192e-05
20830.0 3.2259e-05
20850.0 3.2319e-05
20870.0 3.2374e-05
20890.0 3.2418e-05
20910.0 3.2443e-05
20930.0 3.2455e-05
20950.0 3.2449e-05
20970.0 3.2422e-05
20990.0 3.2375e-05
21010.0 3.2307e-05
21030.0 3.2216e-05
21050.0 3.2106e-05
21070.0 3.1975e-05
21090.0 3.1819e-05
21110.0 3.1651e-05
21130.0 3.147e-05
21150.0 3.1269e-05
21170.0 3.1057e-05
21190.0 3.0844e-05
21210.0 3.0616e-05
21230.0 3.0381e-05
21250.0 3.0152e-05
21270.0 2.9924e-05
21290.0 2.9693e-05
21310.0 2.9468e-05
21330.0 2.926e-05
21350.0 2.9053e-05
21370.0 2.8856e-05
21390.0 2.8676e-05
21410.0 2.851e-05
21430.0 2.8353e-05
21450.0 2.8217e-05
21470.0 2.8101e-05
21490.0 2.8001e-05
21510.0 2.792e-05
21530.0 2.7861e-05
21550.0 2.7821e-05
21570.0 2.7803e-05
21590.0 2.7807e-05
21610.0 2.783e-05
21630.0 2.7875e-05
21650.0 2.7945e-05
21670.0 2.8026e-05
21690.0 2.8127e-05
21710.0 2.8249e-05
21730.0 2.8383e-05
21750.0 2.8523e-05
21770.0 2.8684e-05
21790.0 2.8853e-05
21810.0 2.9021e-05
21830.0 2.9193e-05
21850.0 2.9373e-05
21870.0 2.9546e-05
21890.0 2.9708e-05
21910.0 2.9871e-05
21930.0 3.0026e-05
21950.0 3.0163e-05
21970.0 3.0292e-05
21990.0 3.0413e-05
22010.0 3.0512e-05
22030.0 3.0593e-05
22050.0 3.0661e-05
22070.0 3.0712e-05
22090.0 3.0741e-05
22110.0 3.0754e-05
22130.0 3.0748e-05
22150.0 3.0723e-05
22170.0 3.068e-05
22190.0 3.0617e-05
22210.0 3.0534e-05
22230.0 3.0435e-05
22250.0 3.0317e-05
22270.0 3.0177e-05
22290.0 3.0023e-05
22310.0 2.9854e-05
22330.0 2.9659e-05
22350.0 2.9449e-05
22370.0 2.9228e-05
22390.0 2.8987e-05
22410.0 2.8723e-05
22430.0 2.8455e-05
22450.0 2.8175e-05
22470.0 2.7872e-05
22490.0 2.756e-05
22510.0 2.7247e-05
22530.0 2.6914e-05
22550.0 2.6566e-05
22570.0 2.6227e-05
22590.0 2.5885e-05
22610.0 2.553e-05
22630.0 2.518e-05
22650.0 2.4846e-05
22670.0 2.4506e-05
22690.0 2.4169e-05
22710.0 2.3852e-05
