#lamb flux
1010.0 7.877e-05
1030.0 8.9967e-05
1050.0 0.00010013
1070.0 0.0001083
1090.0 0.00011378
1110.0 0.00011421
1130.0 0.00010929
1150.0 9.9695e-05
1170.0 8.5441e-05
1190.0 6.6743e-05
1210.0 4.5265e-05
1230.0 2.2035e-05
1250.0 1e-99
1270.0 1e-99
1290.0 1e-99
1310.0 1e-99
1330.0 1e-99
1350.0 1e-99
1370.0 1e-99
1390.0 1e-99
1410.0 1e-99
1430.0 1e-99
1450.0 1e-99
1470.0 1e-99
1490.0 1e-99
1510.0 1e-99
1530.0 1e-99
1550.0 1e-99
1570.0 1e-99
1590.0 1e-99
1610.0 1e-99
1630.0 1e-99
1650.0 5.5564e-06
1670.0 1.6695e-05
1690.0 2.805e-05
1710.0 3.9799e-05
1730.0 5.219e-05
1750.0 6.5727e-05
1770.0 8.0357e-05
1790.0 9.6325e-05
1810.0 0.00011375
1830.0 0.00013318
1850.0 0.00015939
1870.0 0.00018734
1890.0 0.00021805
1910.0 0.00025202
1930.0 0.00028965
1950.0 0.00033079
1970.0 0.00037585
1990.0 0.00042544
2010.0 0.00047939
2030.0 0.00053759
2050.0 0.00060078
2070.0 0.00066907
2090.0 0.00074142
2110.0 0.00081829
2130.0 0.00090005
2150.0 0.00098575
2170.0 0.0010745
2190.0 0.0011673
2210.0 0.0012632
2230.0 0.0013607
2250.0 0.0014597
2270.0 0.0015608
2290.0 0.0016616
2310.0 0.0017608
2330.0 0.0018597
2350.0 0.0019567
2370.0 0.0020497
2390.0 0.002139
2410.0 0.0022248
2430.0 0.0023036
2450.0 0.0023745
2470.0 0.0024377
2490.0 0.0024918
2510.0 0.0025361
2530.0 0.0025748
2550.0 0.0026144
2570.0 0.002664
2590.0 0.0027356
2610.0 0.0028556
2630.0 0.0030422
2650.0 0.0032999
2670.0 0.0036495
2690.0 0.0041059
2710.0 0.0046326
2730.0 0.005206
2750.0 0.0058458
2770.0 0.0064924
2790.0 0.0070956
2810.0 0.0076628
2830.0 0.0081946
2850.0 0.0086256
2870.0 0.008993
2890.0 0.0093258
2910.0 0.0096228
2930.0 0.0098864
2950.0 0.010153
2970.0 0.010425
2990.0 0.01069
3010.0 0.010959
3030.0 0.011245
3050.0 0.011537
3070.0 0.011814
3090.0 0.012094
3110.0 0.012361
3130.0 0.012593
3150.0 0.012784
3170.0 0.012935
3190.0 0.01304
3210.0 0.013123
3230.0 0.013217
3250.0 0.013367
3270.0 0.013609
3290.0 0.013964
3310.0 0.01446
3330.0 0.015078
3350.0 0.015783
3370.0 0.016582
3390.0 0.017428
3410.0 0.018231
3430.0 0.018974
3450.0 0.019598
3470.0 0.0212
3490.0 0.021567
3510.0 0.018942
3530.0 0.018362
3550.0 0.02342
3570.0 0.027771
3590.0 0.028227
3610.0 0.030624
3630.0 0.031445
3650.0 0.02842
3670.0 0.026856
3690.0 0.028993
3710.0 0.032086
3730.0 0.034773
3750.0 0.03215
3770.0 0.031885
3790.0 0.033373
3810.0 0.031987
3830.0 0.027865
3850.0 0.02488
3870.0 0.025335
3890.0 0.028602
3910.0 0.030862
3930.0 0.031753
3950.0 0.032518
3970.0 0.033179
3990.0 0.034113
4010.0 0.033788
4030.0 0.031132
4050.0 0.028678
4070.0 0.028838
4090.0 0.030791
4110.0 0.032312
4130.0 0.031687
4150.0 0.030956
4170.0 0.030831
4190.0 0.031716
4210.0 0.031023
4230.0 0.028431
4250.0 0.025384
4270.0 0.023124
4290.0 0.021306
4310.0 0.019713
4330.0 0.020201
4350.0 0.021686
4370.0 0.022258
4390.0 0.02308
4410.0 0.023371
4430.0 0.023257
4450.0 0.023068
4470.0 0.022758
4490.0 0.024187
4510.0 0.024891
4530.0 0.025388
4550.0 0.02586
4570.0 0.02652
4590.0 0.027047
4610.0 0.027387
4630.0 0.027971
4650.0 0.028928
4670.0 0.027619
4690.0 0.025675
4710.0 0.023635
4730.0 0.022893
4750.0 0.022319
4770.0 0.021682
4790.0 0.020948
4810.0 0.020104
4830.0 0.021065
4850.0 0.022969
4870.0 0.017901
4890.0 0.017742
4910.0 0.018423
4930.0 0.019056
4950.0 0.017385
4970.0 0.015964
4990.0 0.015547
5010.0 0.014456
5030.0 0.013527
5050.0 0.013871
5070.0 0.014877
5090.0 0.015402
5110.0 0.016948
5130.0 0.01743
5150.0 0.018077
5170.0 0.018636
5190.0 0.018081
5210.0 0.018667
5230.0 0.019032
5250.0 0.019181
5270.0 0.019526
5290.0 0.019121
5310.0 0.01862
5330.0 0.017644
5350.0 0.016678
5370.0 0.015773
5390.0 0.016196
5410.0 0.016214
5430.0 0.016403
5450.0 0.016423
5470.0 0.016176
5490.0 0.015984
5510.0 0.015589
5530.0 0.015188
5550.0 0.015029
5570.0 0.015212
5590.0 0.015431
5610.0 0.015557
5630.0 0.015244
5650.0 0.015071
5670.0 0.014533
5690.0 0.014186
5710.0 0.013673
5730.0 0.013597
5750.0 0.013412
5770.0 0.012966
5790.0 0.013196
5810.0 0.013105
5830.0 0.01344
5850.0 0.01361
5870.0 0.013752
5890.0 0.013548
5910.0 0.01354
5930.0 0.013268
5950.0 0.013411
5970.0 0.013108
5990.0 0.012842
6010.0 0.01292
6030.0 0.013185
6050.0 0.013
6070.0 0.012728
6090.0 0.012577
6110.0 0.012766
6130.0 0.01272
6150.0 0.012375
6170.0 0.011618
6190.0 0.010775
6210.0 0.010223
6230.0 0.010114
6250.0 0.0102
6270.0 0.010456
6290.0 0.010856
6310.0 0.011511
6330.0 0.01184
6350.0 0.011886
6370.0 0.011972
6390.0 0.011846
6410.0 0.011565
6430.0 0.01119
6450.0 0.01099
6470.0 0.01094
6490.0 0.010891
6510.0 0.010796
6530.0 0.010786
6550.0 0.010647
6570.0 0.010267
6590.0 0.010205
6610.0 0.010097
6630.0 0.0097935
6650.0 0.0095003
6670.0 0.0092274
6690.0 0.0091196
6710.0 0.0088384
6730.0 0.0087115
6750.0 0.0085621
6770.0 0.0083738
6790.0 0.0084403
6810.0 0.0083398
6830.0 0.0081261
6850.0 0.0080255
6870.0 0.0079172
6890.0 0.0077908
6910.0 0.0077253
6930.0 0.0076392
6950.0 0.0075375
6970.0 0.0073841
6990.0 0.0073844
7010.0 0.0073241
7030.0 0.007364
7050.0 0.0071947
7070.0 0.007099
7090.0 0.0070747
7110.0 0.0068186
7130.0 0.006784
7150.0 0.0068652
7170.0 0.0069739
7190.0 0.0069097
7210.0 0.0069732
7230.0 0.0071343
7250.0 0.0070225
7270.0 0.0070745
7290.0 0.0069813
7310.0 0.0067861
7330.0 0.006439
7350.0 0.0064553
7370.0 0.0064619
7390.0 0.0063268
7410.0 0.0062034
7430.0 0.0061354
7450.0 0.0060678
7470.0 0.0060852
7490.0 0.0061411
7510.0 0.005956
7530.0 0.0058484
7550.0 0.0059179
7570.0 0.0054915
7590.0 0.0052688
7610.0 0.0052244
7630.0 0.0052952
7650.0 0.0051922
7670.0 0.0053297
7690.0 0.0051583
7710.0 0.0053994
7730.0 0.0054471
7750.0 0.0058885
7770.0 0.0060765
7790.0 0.0063001
7810.0 0.0065791
7830.0 0.0067416
7850.0 0.006938
7870.0 0.0068767
7890.0 0.0068242
7910.0 0.0066811
7930.0 0.0064612
7950.0 0.0062884
7970.0 0.0062529
7990.0 0.0062043
8010.0 0.0056387
8030.0 0.0056047
8050.0 0.0054951
8070.0 0.0054418
8090.0 0.0053012
8110.0 0.0053421
8130.0 0.005399
8150.0 0.0054844
8170.0 0.0054258
8190.0 0.0054978
8210.0 0.0054206
8230.0 0.0051361
8250.0 0.0050355
8270.0 0.0049479
8290.0 0.0048679
8310.0 0.0047037
8330.0 0.0047662
8350.0 0.0047378
8370.0 0.0047372
8390.0 0.0048239
8410.0 0.0048081
8430.0 0.0048864
8450.0 0.0049554
8470.0 0.0049858
8490.0 0.0050437
8510.0 0.0049607
8530.0 0.0047942
8550.0 0.0048347
8570.0 0.0048427
8590.0 0.0047008
8610.0 0.0048035
8630.0 0.0047418
8650.0 0.0046454
8670.0 0.0046158
8690.0 0.0046108
8710.0 0.0044317
8730.0 0.0044928
8750.0 0.0043415
8770.0 0.0043161
8790.0 0.0041987
8810.0 0.0041504
8830.0 0.0041383
8850.0 0.0039392
8870.0 0.0037364
8890.0 0.0036862
8910.0 0.0034701
8930.0 0.0032028
8950.0 0.0032011
8970.0 0.003098
8990.0 0.0030776
9010.0 0.0030531
9030.0 0.0030325
9050.0 0.0030109
9070.0 0.0029891
9090.0 0.0029672
9110.0 0.002945
9130.0 0.0029229
9150.0 0.0029009
9170.0 0.0028788
9190.0 0.0028567
9210.0 0.0028344
9230.0 0.0028122
9250.0 0.00279
9270.0 0.0027677
9290.0 0.0027454
9310.0 0.0027232
9330.0 0.002701
9350.0 0.0026789
9370.0 0.0026567
9390.0 0.0026347
9410.0 0.0026127
9430.0 0.0025907
9450.0 0.0025688
9470.0 0.0025486
9490.0 0.0025276
9510.0 0.0025051
9530.0 0.002483
9550.0 0.0024613
9570.0 0.0024399
9590.0 0.0024186
9610.0 0.0023975
9630.0 0.0023767
9650.0 0.002356
9670.0 0.0023353
9690.0 0.0023149
9710.0 0.0022946
9730.0 0.0022745
9750.0 0.0022545
9770.0 0.0022348
9790.0 0.0022152
9810.0 0.0021957
9830.0 0.002176
9850.0 0.0021537
9870.0 0.0021343
9890.0 0.0021173
9910.0 0.0020999
9930.0 0.002079
9950.0 0.0020609
9970.0 0.0020444
9990.0 0.0020274
10010.0 0.0020103
10030.0 0.0019932
10050.0 0.0019763
10070.0 0.0019596
10090.0 0.0019432
10110.0 0.0019264
10130.0 0.0019098
10150.0 0.0018939
10170.0 0.001878
10190.0 0.001862
10210.0 0.0018465
10230.0 0.0018313
10250.0 0.0018161
10270.0 0.001801
10290.0 0.0017865
10310.0 0.0017719
10330.0 0.0017572
10350.0 0.0017431
10370.0 0.0017292
10390.0 0.0017152
10410.0 0.0017014
10430.0 0.0016881
10450.0 0.0016749
10470.0 0.0016618
10490.0 0.0016491
10510.0 0.0016365
10530.0 0.0016237
10550.0 0.0016113
10570.0 0.0015994
10590.0 0.0015874
10610.0 0.0015754
10630.0 0.0015639
10650.0 0.0015526
10670.0 0.0015411
10690.0 0.0015299
10710.0 0.0015191
10730.0 0.0015082
10750.0 0.0014972
10770.0 0.0014869
10790.0 0.0014767
10810.0 0.0014663
10830.0 0.0014563
10850.0 0.0014466
10870.0 0.0014367
10890.0 0.001427
10910.0 0.0014178
10930.0 0.0014088
10950.0 0.0013998
10970.0 0.0013914
10990.0 0.0013837
11010.0 0.0014393
11030.0 0.0014335
11050.0 0.001428
11070.0 0.0014224
11090.0 0.0014161
11110.0 0.0014098
11130.0 0.0014031
11150.0 0.0013958
11170.0 0.0013879
11190.0 0.0013801
11210.0 0.0013719
11230.0 0.0013632
11250.0 0.0013548
11270.0 0.0013466
11290.0 0.0013382
11310.0 0.00133
11330.0 0.0013227
11350.0 0.0013155
11370.0 0.0013086
11390.0 0.0013023
11410.0 0.0012965
11430.0 0.0012907
11450.0 0.0012853
11470.0 0.0012803
11490.0 0.0012752
11510.0 0.0012699
11530.0 0.0012648
11550.0 0.0012597
11570.0 0.0012541
11590.0 0.0012483
11610.0 0.0012426
11630.0 0.0012364
11650.0 0.0012298
11670.0 0.0012235
11690.0 0.0012171
11710.0 0.0012104
11730.0 0.0012039
11750.0 0.0011979
11770.0 0.0011916
11790.0 0.0011854
11810.0 0.0011796
11830.0 0.001174
11850.0 0.0011681
11870.0 0.0011627
11890.0 0.0011577
11910.0 0.0011527
11930.0 0.0011479
11950.0 0.0011437
11970.0 0.0011399
11990.0 0.0011362
12010.0 0.0011333
12030.0 0.0011311
12050.0 0.0011295
12070.0 0.0011284
12090.0 0.0011284
12110.0 0.001129
12130.0 0.0011304
12150.0 0.0011325
12170.0 0.0011353
12190.0 0.0011386
12210.0 0.0011425
12230.0 0.0011468
12250.0 0.0011515
12270.0 0.0011564
12290.0 0.0011615
12310.0 0.0011666
12330.0 0.0011717
12350.0 0.0011768
12370.0 0.0011815
12390.0 0.0011861
12410.0 0.0011903
12430.0 0.0011939
12450.0 0.0011971
12470.0 0.0011996
12490.0 0.0012013
12510.0 0.0012024
12530.0 0.0012025
12550.0 0.0012016
12570.0 0.0011999
12590.0 0.0011973
12610.0 0.0011934
12630.0 0.0011886
12650.0 0.0011833
12670.0 0.0011771
12690.0 0.0011698
12710.0 0.0011623
12730.0 0.0011544
12750.0 0.0011454
12770.0 0.0011364
12790.0 0.0011275
12810.0 0.0011183
12830.0 0.0011088
12850.0 0.0010999
12870.0 0.0010913
12890.0 0.0010826
12910.0 0.0010744
12930.0 0.0010669
12950.0 0.0010595
12970.0 0.0010523
12990.0 0.001046
13010.0 0.00104
13030.0 0.0010342
13050.0 0.0010288
13070.0 0.0010239
13090.0 0.001019
13110.0 0.0010143
13130.0 0.0010099
13150.0 0.0010057
13170.0 0.0010013
13190.0 0.00099728
13210.0 0.00099348
13230.0 0.00098959
13250.0 0.00098572
13270.0 0.00098209
13290.0 0.00097839
13310.0 0.00097446
13330.0 0.00097059
13350.0 0.00096671
13370.0 0.0009625
13390.0 0.00095798
13410.0 0.00095358
13430.0 0.00094883
13450.0 0.00094367
13470.0 0.0009384
13490.0 0.00093304
13510.0 0.00092706
13530.0 0.00092092
13550.0 0.00091483
13570.0 0.00090845
13590.0 0.00090168
13610.0 0.00089498
13630.0 0.00088831
13650.0 0.00088121
13670.0 0.00087403
13690.0 0.000867
13710.0 0.00085976
13730.0 0.00085208
13750.0 0.00084476
13770.0 0.00083745
13790.0 0.00082985
13810.0 0.00082226
13830.0 0.00081497
13850.0 0.00080744
13870.0 0.00079977
13890.0 0.00079238
13910.0 0.00078508
13930.0 0.00077754
13950.0 0.00077011
13970.0 0.00076308
13990.0 0.00075592
14010.0 0.00074871
14030.0 0.00074179
14050.0 0.00073499
14070.0 0.00072791
14090.0 0.00072108
14110.0 0.00071448
14130.0 0.00070779
14150.0 0.00070104
14170.0 0.00069462
14190.0 0.00068826
14210.0 0.00068177
14230.0 0.00067545
14250.0 0.00066936
14270.0 0.00066314
14290.0 0.00065694
14310.0 0.0006511
14330.0 0.00064534
14350.0 0.00063956
14370.0 0.000634
14390.0 0.00062873
14410.0 0.00062342
14430.0 0.00061823
14450.0 0.00061331
14470.0 0.0006085
14490.0 0.00060364
14510.0 0.00059902
14530.0 0.00059458
14550.0 0.00059011
14570.0 0.00058569
14590.0 0.00058145
14610.0 0.00057721
14630.0 0.0005729
14650.0 0.00056871
14670.0 0.00056461
14690.0 0.00056045
14710.0 0.0005563
14730.0 0.00055234
14750.0 0.00054838
14770.0 0.0005444
14790.0 0.00054056
14810.0 0.00053682
14830.0 0.00053302
14850.0 0.00052931
14870.0 0.00052575
14890.0 0.00052221
14910.0 0.00051868
14930.0 0.00051528
14950.0 0.00051198
14970.0 0.00050869
14990.0 0.00050551
15010.0 0.00050247
15030.0 0.00049949
15050.0 0.00049653
15070.0 0.00049372
15090.0 0.00049097
15110.0 0.0004882
15130.0 0.00048546
15150.0 0.00048279
15170.0 0.00048007
15190.0 0.00047735
15210.0 0.00047466
15230.0 0.00047198
15250.0 0.00046926
15270.0 0.00046656
15290.0 0.00046391
15310.0 0.00046123
15330.0 0.00045854
15350.0 0.00045589
15370.0 0.00045325
15390.0 0.00045055
15410.0 0.0004479
15430.0 0.00044528
15450.0 0.00044264
15470.0 0.00043998
15490.0 0.00043739
15510.0 0.00043479
15530.0 0.00043217
15550.0 0.00042958
15570.0 0.00042702
15590.0 0.00042443
15610.0 0.00042183
15630.0 0.0004193
15650.0 0.00041676
15670.0 0.00041421
15690.0 0.00041169
15710.0 0.0004092
15730.0 0.00040669
15750.0 0.00040418
15770.0 0.00040172
15790.0 0.00039926
15810.0 0.00039677
15830.0 0.00039433
15850.0 0.00039192
15870.0 0.0003895
15890.0 0.00038708
15910.0 0.00038471
15930.0 0.00038234
15950.0 0.00037994
15970.0 0.00037759
15990.0 0.00037527
16010.0 0.00037293
16030.0 0.00037059
16050.0 0.00036832
16070.0 0.00036604
16090.0 0.00036375
16110.0 0.0003615
16130.0 0.00035928
16150.0 0.00035702
16170.0 0.00035479
16190.0 0.00035261
16210.0 0.00035043
16230.0 0.00034823
16250.0 0.00034608
16270.0 0.00034396
16290.0 0.00034181
16310.0 0.00033969
16330.0 0.00033761
16350.0 0.00033553
16370.0 0.00033342
16390.0 0.00033138
16410.0 0.00032935
16430.0 0.00032731
16450.0 0.00032529
16470.0 0.00032332
16490.0 0.00032133
16510.0 0.00031934
16530.0 0.0003174
16550.0 0.00031547
16570.0 0.00031352
16590.0 0.0003116
16610.0 0.00030973
16630.0 0.00030785
16650.0 0.00030597
16670.0 0.00030413
16690.0 0.00030231
16710.0 0.00030046
16730.0 0.00029865
16750.0 0.00029687
16770.0 0.00029508
16790.0 0.0002933
16810.0 0.00029157
16830.0 0.00028984
16850.0 0.0002881
16870.0 0.0002864
16890.0 0.00028472
16910.0 0.00028303
16930.0 0.00028134
16950.0 0.0002797
16970.0 0.00027807
16990.0 0.00027643
17010.0 0.00027482
17030.0 0.00027325
17050.0 0.00027166
17070.0 0.00027007
17090.0 0.00026853
17110.0 0.000267
17130.0 0.00026544
17150.0 0.00026393
17170.0 0.00026244
17190.0 0.00026094
17210.0 0.00025946
17230.0 0.00025802
17250.0 0.00025657
17270.0 0.00025511
17290.0 0.00025369
17310.0 0.00025229
17330.0 0.00025088
17350.0 0.00024948
17370.0 0.00024813
17390.0 0.00024677
17410.0 0.00024541
17430.0 0.00024408
17450.0 0.00024277
17470.0 0.00024143
17490.0 0.00024012
17510.0 0.00023885
17530.0 0.00023758
17550.0 0.0002363
17570.0 0.00023505
17590.0 0.00023383
17610.0 0.00023258
17630.0 0.00023136
17650.0 0.00023017
17670.0 0.00022897
17690.0 0.00022776
17710.0 0.0002266
17730.0 0.00022545
17750.0 0.00022429
17770.0 0.00022315
17790.0 0.00022204
17810.0 0.00022091
17830.0 0.00021979
17850.0 0.0002187
17870.0 0.00021762
17890.0 0.00021653
17910.0 0.00021545
17930.0 0.00021442
17950.0 0.00021337
17970.0 0.00021232
17990.0 0.00021131
18010.0 0.00021031
18030.0 0.00020927
18050.0 0.00020828
18070.0 0.0002073
18090.0 0.00020632
18110.0 0.00020533
18130.0 0.00020439
18150.0 0.00020345
18170.0 0.0002025
18190.0 0.00020157
18210.0 0.00020066
18230.0 0.00019973
18250.0 0.00019881
18270.0 0.00019793
18290.0 0.00019705
18310.0 0.00019615
18330.0 0.00019529
18350.0 0.00019444
18370.0 0.00019358
18390.0 0.00019272
18410.0 0.00019189
18430.0 0.00019107
18450.0 0.00019022
18470.0 0.00018941
18490.0 0.00018862
18510.0 0.00018781
18530.0 0.00018701
18550.0 0.00018625
18570.0 0.00018547
18590.0 0.00018468
18610.0 0.00018392
18630.0 0.00018318
18650.0 0.00018242
18670.0 0.00018166
18690.0 0.00018095
18710.0 0.00018022
18730.0 0.00017949
18750.0 0.00017878
18770.0 0.00017809
18790.0 0.00017736
18810.0 0.00017665
18830.0 0.00017598
18850.0 0.00017529
18870.0 0.0001746
18890.0 0.00017394
18910.0 0.00017328
18930.0 0.00017261
18950.0 0.00017195
18970.0 0.00017131
18990.0 0.00017066
19010.0 0.00016999
19030.0 0.00016937
19050.0 0.00016875
19070.0 0.00016812
19090.0 0.0001675
19110.0 0.0001669
19130.0 0.00016628
19150.0 0.00016566
19170.0 0.00016507
19190.0 0.00016447
19210.0 0.00016386
19230.0 0.00016327
19250.0 0.0001627
19270.0 0.00016212
19290.0 0.00016153
19310.0 0.00016097
19330.0 0.00016041
19350.0 0.00015981
19370.0 0.00015925
19390.0 0.0001587
19410.0 0.00015814
19430.0 0.00015757
19450.0 0.00015704
19470.0 0.0001565
19490.0 0.00015594
19510.0 0.0001554
19530.0 0.00015487
19550.0 0.00015432
19570.0 0.00015377
19590.0 0.00015325
19610.0 0.00015273
19630.0 0.00015218
19650.0 0.00015166
19670.0 0.00015116
19690.0 0.00015062
19710.0 0.00015009
19730.0 0.00014958
19750.0 0.00014907
19770.0 0.00014853
19790.0 0.00014802
19810.0 0.00014752
19830.0 0.000147
19850.0 0.00014648
19870.0 0.00014599
19890.0 0.00014548
19910.0 0.00014495
19930.0 0.00014445
19950.0 0.00014396
19970.0 0.00014345
19990.0 0.00014295
20010.0 0.00014248
20030.0 0.00014199
20050.0 0.00014149
20070.0 0.000141
20090.0 0.00014051
20110.0 0.00013998
20130.0 0.00013945
20150.0 0.00013894
20170.0 0.00013841
20190.0 0.00013786
20210.0 0.00013733
20230.0 0.00013681
20250.0 0.00013626
20270.0 0.00013573
20290.0 0.00013524
20310.0 0.00013474
20330.0 0.00013424
20350.0 0.0001338
20370.0 0.00013338
20390.0 0.00013297
20410.0 0.00013261
20430.0 0.00013229
20450.0 0.00013197
20470.0 0.00013169
20490.0 0.00013147
20510.0 0.00013128
20530.0 0.00013111
20550.0 0.000131
20570.0 0.00013094
20590.0 0.00013091
20610.0 0.00013093
20630.0 0.000131
20650.0 0.00013111
20670.0 0.00013127
20690.0 0.00013147
20710.0 0.0001317
20730.0 0.00013198
20750.0 0.00013228
20770.0 0.0001326
20790.0 0.00013293
20810.0 0.00013328
20830.0 0.00013362
20850.0 0.00013394
20870.0 0.00013424
20890.0 0.00013451
20910.0 0.00013473
20930.0 0.00013491
20950.0 0.00013502
20970.0 0.00013508
20990.0 0.00013508
21010.0 0.000135
21030.0 0.00013484
21050.0 0.00013464
21070.0 0.00013436
21090.0 0.00013399
21110.0 0.0001336
21130.0 0.00013316
21150.0 0.00013266
21170.0 0.00013213
21190.0 0.00013159
21210.0 0.000131
21230.0 0.00013039
21250.0 0.00012979
21270.0 0.00012919
21290.0 0.00012857
21310.0 0.00012796
21330.0 0.00012738
21350.0 0.00012678
21370.0 0.00012617
21390.0 0.00012559
21410.0 0.00012501
21430.0 0.00012438
21450.0 0.00012376
21470.0 0.00012316
21490.0 0.00012252
21510.0 0.00012185
21530.0 0.00012119
21550.0 0.00012051
21570.0 0.00011979
21590.0 0.00011906
21610.0 0.00011833
21630.0 0.00011757
21650.0 0.00011677
21670.0 0.00011602
21690.0 0.00011524
21710.0 0.00011445
21730.0 0.00011367
21750.0 0.00011292
21770.0 0.00011212
21790.0 0.00011134
21810.0 0.0001106
21830.0 0.00010986
21850.0 0.00010911
21870.0 0.00010838
21890.0 0.00010769
21910.0 0.00010697
21930.0 0.00010626
21950.0 0.00010558
21970.0 0.00010489
21990.0 0.00010416
22010.0 0.00010346
22030.0 0.00010277
22050.0 0.00010204
22070.0 0.0001013
22090.0 0.00010057
22110.0 9.9816e-05
22130.0 9.9023e-05
22150.0 9.8236e-05
22170.0 9.7443e-05
22190.0 9.6597e-05
22210.0 9.5739e-05
22230.0 9.4907e-05
22250.0 9.4043e-05
22270.0 9.3151e-05
22290.0 9.2279e-05
22310.0 9.141e-05
22330.0 9.0496e-05
22350.0 8.9596e-05
22370.0 8.8723e-05
22390.0 8.7835e-05
22410.0 8.6928e-05
22430.0 8.607e-05
22450.0 8.5227e-05
22470.0 8.4369e-05
22490.0 8.3536e-05
22510.0 8.2745e-05
22530.0 8.1943e-05
22550.0 8.115e-05
22570.0 8.0407e-05
22590.0 7.9685e-05
22610.0 7.8963e-05
22630.0 7.8271e-05
22650.0 7.7623e-05
22670.0 7.6973e-05
22690.0 7.6336e-05
22710.0 7.5735e-05
22730.0 7.515e-05
22750.0 7.4555e-05
22770.0 7.3993e-05
22790.0 7.3457e-05
22810.0 7.2923e-05
22830.0 7.24e-05
22850.0 7.1909e-05
22870.0 7.1428e-05
22890.0 7.0952e-05
22910.0 7.0504e-05
22930.0 7.008e-05
22950.0 6.9669e-05
22970.0 6.9276e-05
22990.0 6.8922e-05
23010.0 6.8588e-05
23030.0 6.8276e-05
23050.0 6.7997e-05
23070.0 6.7747e-05
23090.0 6.7525e-05
23110.0 6.7338e-05
23130.0 6.7181e-05
23150.0 6.7057e-05
23170.0 6.6969e-05
23190.0 6.6909e-05
23210.0 6.6873e-05
23230.0 6.687e-05
23250.0 6.6892e-05
23270.0 6.6924e-05
23290.0 6.6975e-05
23310.0 6.7048e-05
23330.0 6.7108e-05
23350.0 6.7161e-05
23370.0 6.7214e-05
23390.0 6.7249e-05
23410.0 6.7249e-05
23430.0 6.7235e-05
23450.0 6.7071e-05
23470.0 6.6842e-05
23490.0 6.6577e-05
23510.0 6.6291e-05
