#lamb flux
1010.0 4.7161e-07
1030.0 5.1068e-07
1050.0 5.6582e-07
1070.0 6.279e-07
1090.0 6.956e-07
1110.0 7.6562e-07
1130.0 8.3652e-07
1150.0 9.1098e-07
1170.0 9.877e-07
1190.0 1.0599e-06
1210.0 1.1322e-06
1230.0 1.2056e-06
1250.0 1.2764e-06
1270.0 1.3431e-06
1290.0 1.4115e-06
1310.0 1.4775e-06
1330.0 1.5381e-06
1350.0 1.5974e-06
1370.0 1.6573e-06
1390.0 1.7141e-06
1410.0 1.7681e-06
1430.0 1.8251e-06
1450.0 1.8826e-06
1470.0 1.9388e-06
1490.0 1.9975e-06
1510.0 2.0621e-06
1530.0 2.1258e-06
1550.0 2.1916e-06
1570.0 2.2632e-06
1590.0 2.3385e-06
1610.0 2.4151e-06
1630.0 2.4988e-06
1650.0 2.5885e-06
1670.0 2.6803e-06
1690.0 2.7752e-06
1710.0 2.8766e-06
1730.0 2.9818e-06
1750.0 3.0856e-06
1770.0 3.1936e-06
1790.0 3.3046e-06
1810.0 3.4135e-06
1830.0 3.5206e-06
1850.0 3.6305e-06
1870.0 3.7354e-06
1890.0 3.8337e-06
1910.0 3.928e-06
1930.0 4.0178e-06
1950.0 4.0966e-06
1970.0 4.1661e-06
1990.0 4.2296e-06
2010.0 4.2824e-06
2030.0 4.323e-06
2050.0 4.3565e-06
2070.0 4.3827e-06
2090.0 4.3962e-06
2110.0 4.4019e-06
2130.0 4.403e-06
2150.0 4.3972e-06
2170.0 4.3841e-06
2190.0 4.3704e-06
2210.0 4.3551e-06
2230.0 4.3365e-06
2250.0 4.3181e-06
2270.0 4.3039e-06
2290.0 4.29e-06
2310.0 4.2769e-06
2330.0 4.2696e-06
2350.0 4.2672e-06
2370.0 4.2675e-06
2390.0 4.2742e-06
2410.0 4.2901e-06
2430.0 4.3119e-06
2450.0 4.3408e-06
2470.0 4.3812e-06
2490.0 4.4345e-06
2510.0 4.498e-06
2530.0 4.5845e-06
2550.0 4.7125e-06
2570.0 4.8997e-06
2590.0 5.1712e-06
2610.0 5.5956e-06
2630.0 6.1941e-06
2650.0 6.9445e-06
2670.0 7.863e-06
2690.0 8.9238e-06
2710.0 9.988e-06
2730.0 1.0976e-05
2750.0 1.1875e-05
2770.0 1.2578e-05
2790.0 1.306e-05
2810.0 1.3359e-05
2830.0 1.3494e-05
2850.0 1.3511e-05
2870.0 1.3466e-05
2890.0 1.3382e-05
2910.0 1.3291e-05
2930.0 1.3223e-05
2950.0 1.3164e-05
2970.0 1.3124e-05
2990.0 1.3118e-05
3010.0 1.7592e-05
3030.0 1.7646e-05
3050.0 1.7733e-05
3070.0 1.7863e-05
3090.0 1.8002e-05
3110.0 1.8138e-05
3130.0 1.8268e-05
3150.0 1.8442e-05
3170.0 1.8517e-05
3190.0 2.1393e-05
3210.0 3.3951e-05
3230.0 5.4145e-05
3250.0 6.4177e-05
3270.0 5.7663e-05
3290.0 4.6344e-05
3310.0 4.0265e-05
3330.0 3.8125e-05
3350.0 3.845e-05
3370.0 3.9486e-05
3390.0 4.0691e-05
3410.0 4.1793e-05
3430.0 4.1881e-05
3450.0 4.2547e-05
3470.0 4.3473e-05
3490.0 4.6451e-05
3510.0 5.2057e-05
3530.0 5.8651e-05
3550.0 7.0453e-05
3570.0 8.4817e-05
3590.0 9.2406e-05
3610.0 9.3995e-05
3630.0 9.4256e-05
3650.0 9.5398e-05
3670.0 0.00010371
3690.0 0.00012333
3710.0 0.00014467
3730.0 0.00015954
3750.0 0.0001711
3770.0 0.00017171
3790.0 0.00016289
3810.0 0.00015039
3830.0 0.00013347
3850.0 0.00011985
3870.0 0.00011445
3890.0 0.00012719
3910.0 0.00015186
3930.0 0.00017699
3950.0 0.00019707
3970.0 0.00020753
3990.0 0.00020964
4010.0 0.00020672
4030.0 0.00018503
4050.0 0.00015406
4070.0 0.00013761
4090.0 0.00013934
4110.0 0.00014959
4130.0 0.00015453
4150.0 0.00015547
4170.0 0.00015505
4190.0 0.00015718
4210.0 0.0001584
4230.0 0.00016381
4250.0 0.00016869
4270.0 0.00017298
4290.0 0.00017496
4310.0 0.00017841
4330.0 0.00018271
4350.0 0.00018519
4370.0 0.00017899
4390.0 0.00016422
4410.0 0.00014451
4430.0 0.00012604
4450.0 0.00011516
4470.0 0.000116
4490.0 0.00012519
4510.0 0.0001406
4530.0 0.00016406
4550.0 0.00020029
4570.0 0.00024289
4590.0 0.00029225
4610.0 0.00034123
4630.0 0.00037124
4650.0 0.00038028
4670.0 0.00037482
4690.0 0.00034915
4710.0 0.00030517
4730.0 0.00025525
4750.0 0.0002138
4770.0 0.00018748
4790.0 0.00018216
4810.0 0.00018793
4830.0 0.00019797
4850.0 0.00021202
4870.0 0.00022878
4890.0 0.00023864
4910.0 0.00024797
4930.0 0.00026651
4950.0 0.00028652
4970.0 0.0002919
4990.0 0.00027745
5010.0 0.00024785
5030.0 0.00021205
5050.0 0.00018376
5070.0 0.0001664
5090.0 0.00015802
5110.0 0.00015731
5130.0 0.00015816
5150.0 0.00015783
5170.0 0.00015962
5190.0 0.00016763
5210.0 0.00018586
5230.0 0.00021125
5250.0 0.00024363
5270.0 0.0002786
5290.0 0.00030736
5310.0 0.0003311
5330.0 0.0003544
5350.0 0.00037032
5370.0 0.0003727
5390.0 0.0003705
5410.0 0.00037667
5430.0 0.00040197
5450.0 0.00044831
5470.0 0.00049979
5490.0 0.00053597
5510.0 0.00055197
5530.0 0.00055516
5550.0 0.00055069
5570.0 0.00054113
5590.0 0.0005321
5610.0 0.00052591
5630.0 0.00052279
5650.0 0.0005128
5670.0 0.0004874
5690.0 0.00045701
5710.0 0.00043332
5730.0 0.0004148
5750.0 0.00041148
5770.0 0.00042528
5790.0 0.00044208
5810.0 0.00045203
5830.0 0.00045995
5850.0 0.00046314
5870.0 0.00045903
5890.0 0.00046162
5910.0 0.00046956
5930.0 0.00046195
5950.0 0.00043524
5970.0 0.00039693
5990.0 0.00035721
6010.0 0.00032681
6030.0 0.00031437
6050.0 0.00032355
6070.0 0.0003382
6090.0 0.00033676
6110.0 0.00032792
6130.0 0.00033131
6150.0 0.00034658
6170.0 0.0003612
6190.0 0.00036878
6210.0 0.00036822
6230.0 0.00035341
6250.0 0.00032341
6270.0 0.000287
6290.0 0.00025778
6310.0 0.00025055
6330.0 0.00026352
6350.0 0.00028219
6370.0 0.00030104
6390.0 0.000331
6410.0 0.00037309
6430.0 0.00040657
6450.0 0.00042402
6470.0 0.00043584
6490.0 0.00044585
6510.0 0.00045039
6530.0 0.00045258
6550.0 0.00045845
6570.0 0.00046146
6590.0 0.00045941
6610.0 0.00044955
6630.0 0.00043009
6650.0 0.00040278
6670.0 0.0003759
6690.0 0.00035816
6710.0 0.00034498
6730.0 0.00033037
6750.0 0.00032228
6770.0 0.00032751
6790.0 0.00033502
6810.0 0.00033524
6830.0 0.00032945
6850.0 0.00032115
6870.0 0.00031286
6890.0 0.00030578
6910.0 0.00030614
6930.0 0.00030891
6950.0 0.00030916
6970.0 0.00030892
6990.0 0.00030538
7010.0 0.00029624
7030.0 0.00027934
7050.0 0.00025601
7070.0 0.00023798
7090.0 0.00023597
7110.0 0.00024175
7130.0 0.00023877
7150.0 0.00022967
7170.0 0.0002309
7190.0 0.00024633
7210.0 0.00026439
7230.0 0.00027858
7250.0 0.00028616
7270.0 0.00028095
7290.0 0.00026951
7310.0 0.00026228
7330.0 0.00026561
7350.0 0.00027402
7370.0 0.00028
7390.0 0.00028989
7410.0 0.00030773
7430.0 0.00032537
7450.0 0.00033719
7470.0 0.00033921
7490.0 0.00032323
7510.0 0.00030107
7530.0 0.0002894
7550.0 0.00027525
7570.0 0.00026097
7590.0 0.00025338
7610.0 0.00025063
7630.0 0.00025392
7650.0 0.0002661
7670.0 0.00028265
7690.0 0.00029749
7710.0 0.00030664
7730.0 0.00031369
7750.0 0.0003192
7770.0 0.00032176
7790.0 0.00032415
7810.0 0.00032156
7830.0 0.00030857
7850.0 0.00029429
7870.0 0.00028388
7890.0 0.00027781
7910.0 0.00027462
7930.0 0.00026609
7950.0 0.00025589
7970.0 0.00024477
7990.0 0.00023583
8010.0 0.00022063
8030.0 0.0002183
8050.0 0.0002154
8070.0 0.00021045
8090.0 0.0002062
8110.0 0.00020191
8130.0 0.0002001
8150.0 0.00019678
8170.0 0.00019186
8190.0 0.00018448
8210.0 0.00017525
8230.0 0.00016689
8250.0 0.00016277
8270.0 0.00015301
8290.0 0.00013419
8310.0 0.00011414
8330.0 0.00010047
8350.0 9.5835e-05
8370.0 0.00010251
8390.0 0.00011365
8410.0 0.00012014
8430.0 0.00012452
8450.0 0.00013223
8470.0 0.00014085
8490.0 0.0001519
8510.0 0.00016411
8530.0 0.00017631
8550.0 0.00018533
8570.0 0.00019137
8590.0 0.00019536
8610.0 0.00019729
8630.0 0.00019521
8650.0 0.00018997
8670.0 0.00018849
8690.0 0.00019547
8710.0 0.00020533
8730.0 0.0002084
8750.0 0.00020447
8770.0 0.00020402
8790.0 0.00020214
8810.0 0.00019255
8830.0 0.0001768
8850.0 0.00015797
8870.0 0.00014375
8890.0 0.00013833
8910.0 0.00013381
8930.0 0.00012386
8950.0 0.00011385
8970.0 0.00010937
8990.0 0.00010901
9010.0 0.00010729
9030.0 0.00010562
9050.0 0.00010467
9070.0 0.00010413
9090.0 0.00010364
9110.0 0.00010317
9130.0 0.0001027
9150.0 0.00010224
9170.0 0.00010178
9190.0 0.00010137
9210.0 0.00010106
9230.0 0.00010055
9250.0 0.00010008
9270.0 9.9627e-05
9290.0 9.9193e-05
9310.0 9.8767e-05
9330.0 9.835e-05
9350.0 9.7946e-05
9370.0 9.7546e-05
9390.0 9.7147e-05
9410.0 9.6756e-05
9430.0 9.635e-05
9450.0 9.5826e-05
9470.0 9.5349e-05
9490.0 9.5103e-05
9510.0 9.4795e-05
9530.0 9.4477e-05
9550.0 9.4138e-05
9570.0 9.3792e-05
9590.0 9.3451e-05
9610.0 9.3109e-05
9630.0 9.2762e-05
9650.0 9.242e-05
9670.0 9.209e-05
9690.0 9.1754e-05
9710.0 9.1419e-05
9730.0 9.1094e-05
9750.0 9.077e-05
9770.0 9.0435e-05
9790.0 9.0112e-05
9810.0 8.9795e-05
9830.0 8.9471e-05
9850.0 8.9143e-05
9870.0 8.8832e-05
9890.0 8.8516e-05
9910.0 8.8194e-05
9930.0 8.7875e-05
9950.0 8.7333e-05
9970.0 8.7078e-05
9990.0 8.6806e-05
10010.0 8.6535e-05
10030.0 8.6242e-05
10050.0 8.5931e-05
10070.0 8.5622e-05
10090.0 8.5316e-05
10110.0 8.496e-05
10130.0 8.45e-05
10150.0 8.4195e-05
10170.0 8.3906e-05
10190.0 8.3575e-05
10210.0 8.3258e-05
10230.0 8.2939e-05
10250.0 8.2583e-05
10270.0 8.2224e-05
10290.0 8.1885e-05
10310.0 8.1515e-05
10330.0 8.1119e-05
10350.0 8.075e-05
10370.0 8.0379e-05
10390.0 7.9976e-05
10410.0 7.9571e-05
10430.0 7.9194e-05
10450.0 7.8783e-05
10470.0 7.8353e-05
10490.0 7.7941e-05
10510.0 7.7525e-05
10530.0 7.706e-05
10550.0 7.6607e-05
10570.0 7.6173e-05
10590.0 7.5708e-05
10610.0 7.5223e-05
10630.0 7.4761e-05
10650.0 7.4287e-05
10670.0 7.3769e-05
10690.0 7.3261e-05
10710.0 7.2763e-05
10730.0 7.2233e-05
10750.0 7.167e-05
10770.0 7.1148e-05
10790.0 7.0606e-05
10810.0 7.0029e-05
10830.0 6.9458e-05
10850.0 6.8904e-05
10870.0 6.8291e-05
10890.0 6.7671e-05
10910.0 6.7072e-05
10930.0 6.6455e-05
10950.0 6.5799e-05
10970.0 6.5151e-05
10990.0 6.4526e-05
11010.0 6.7554e-05
11030.0 6.6858e-05
11050.0 6.6194e-05
11070.0 6.5526e-05
11090.0 6.4817e-05
11110.0 6.416e-05
11130.0 6.3523e-05
11150.0 6.2868e-05
11170.0 6.2221e-05
11190.0 6.1618e-05
11210.0 6.1008e-05
11230.0 6.0392e-05
11250.0 5.9813e-05
11270.0 5.926e-05
11290.0 5.8696e-05
11310.0 5.815e-05
11330.0 5.7652e-05
11350.0 5.7151e-05
11370.0 5.6647e-05
11390.0 5.6164e-05
11410.0 5.5685e-05
11430.0 5.5168e-05
11450.0 5.4644e-05
11470.0 5.4112e-05
11490.0 5.354e-05
11510.0 5.2914e-05
11530.0 5.2277e-05
11550.0 5.1608e-05
11570.0 5.0874e-05
11590.0 5.0109e-05
11610.0 4.9337e-05
11630.0 4.8507e-05
11650.0 4.7631e-05
11670.0 4.6772e-05
11690.0 4.5898e-05
11710.0 4.4983e-05
11730.0 4.4068e-05
11750.0 4.3181e-05
11770.0 4.2257e-05
11790.0 4.1317e-05
11810.0 4.0404e-05
11830.0 3.9491e-05
11850.0 3.8533e-05
11870.0 3.7603e-05
11890.0 3.6706e-05
11910.0 3.5792e-05
11930.0 3.488e-05
11950.0 3.4017e-05
11970.0 3.3167e-05
11990.0 3.2311e-05
12010.0 3.1506e-05
12030.0 3.0749e-05
12050.0 3.001e-05
12070.0 2.93e-05
12090.0 2.867e-05
12110.0 2.8076e-05
12130.0 2.7518e-05
12150.0 2.7022e-05
12170.0 2.6589e-05
12190.0 2.6193e-05
12210.0 2.586e-05
12230.0 2.5593e-05
12250.0 2.5383e-05
12270.0 2.523e-05
12290.0 2.5138e-05
12310.0 2.5096e-05
12330.0 2.5108e-05
12350.0 2.5167e-05
12370.0 2.5258e-05
12390.0 2.5385e-05
12410.0 2.5553e-05
12430.0 2.5726e-05
12450.0 2.5908e-05
12470.0 2.6107e-05
12490.0 2.6308e-05
12510.0 2.6489e-05
12530.0 2.6672e-05
12550.0 2.6848e-05
12570.0 2.6996e-05
12590.0 2.7118e-05
12610.0 2.7224e-05
12630.0 2.7295e-05
12650.0 2.7321e-05
12670.0 2.7313e-05
12690.0 2.7263e-05
12710.0 2.7166e-05
12730.0 2.7025e-05
12750.0 2.6837e-05
12770.0 2.6602e-05
12790.0 2.6329e-05
12810.0 2.6015e-05
12830.0 2.5661e-05
12850.0 2.5289e-05
12870.0 2.4897e-05
12890.0 2.448e-05
12910.0 2.4058e-05
12930.0 2.3642e-05
12950.0 2.3216e-05
12970.0 2.2789e-05
12990.0 2.2386e-05
13010.0 2.1994e-05
13030.0 2.1605e-05
13050.0 2.1234e-05
13070.0 2.0886e-05
13090.0 2.0542e-05
13110.0 2.0209e-05
13130.0 1.9896e-05
13150.0 1.9595e-05
13170.0 1.9297e-05
13190.0 1.9017e-05
13210.0 1.8755e-05
13230.0 1.8498e-05
13250.0 1.825e-05
13270.0 1.802e-05
13290.0 1.7798e-05
13310.0 1.7579e-05
13330.0 1.7374e-05
13350.0 1.7178e-05
13370.0 1.6986e-05
13390.0 1.6798e-05
13410.0 1.6622e-05
13430.0 1.6449e-05
13450.0 1.6278e-05
13470.0 1.6112e-05
13490.0 1.5951e-05
13510.0 1.5787e-05
13530.0 1.5626e-05
13550.0 1.547e-05
13570.0 1.5314e-05
13590.0 1.5155e-05
13610.0 1.5001e-05
13630.0 1.4849e-05
13650.0 1.4694e-05
13670.0 1.4541e-05
13690.0 1.4392e-05
13710.0 1.4242e-05
13730.0 1.4089e-05
13750.0 1.3944e-05
13770.0 1.3802e-05
13790.0 1.3659e-05
13810.0 1.3519e-05
13830.0 1.3387e-05
13850.0 1.3254e-05
13870.0 1.3123e-05
13890.0 1.2999e-05
13910.0 1.2879e-05
13930.0 1.276e-05
13950.0 1.2646e-05
13970.0 1.254e-05
13990.0 1.2434e-05
14010.0 1.2331e-05
14030.0 1.2233e-05
14050.0 1.2137e-05
14070.0 1.2038e-05
14090.0 1.1943e-05
14110.0 1.1851e-05
14130.0 1.1757e-05
14150.0 1.1662e-05
14170.0 1.1573e-05
14190.0 1.1484e-05
14210.0 1.1396e-05
14230.0 1.1311e-05
14250.0 1.1233e-05
14270.0 1.1156e-05
14290.0 1.1084e-05
14310.0 1.102e-05
14330.0 1.0962e-05
14350.0 1.0908e-05
14370.0 1.0862e-05
14390.0 1.0822e-05
14410.0 1.0785e-05
14430.0 1.0752e-05
14450.0 1.0724e-05
14470.0 1.0699e-05
14490.0 1.0674e-05
14510.0 1.0652e-05
14530.0 1.0631e-05
14550.0 1.061e-05
14570.0 1.0589e-05
14590.0 1.0571e-05
14610.0 1.0554e-05
14630.0 1.0538e-05
14650.0 1.0528e-05
14670.0 1.0524e-05
14690.0 1.0528e-05
14710.0 1.0544e-05
14730.0 1.0573e-05
14750.0 1.0619e-05
14770.0 1.0687e-05
14790.0 1.0776e-05
14810.0 1.0887e-05
14830.0 1.1034e-05
14850.0 1.1209e-05
14870.0 1.1407e-05
14890.0 1.1635e-05
14910.0 1.189e-05
14930.0 1.215e-05
14950.0 1.2408e-05
14970.0 1.2665e-05
14990.0 1.2897e-05
15010.0 1.3093e-05
15030.0 1.3257e-05
15050.0 1.3391e-05
15070.0 1.3489e-05
15090.0 1.3566e-05
15110.0 1.3629e-05
15130.0 1.3682e-05
15150.0 1.3731e-05
15170.0 1.3778e-05
15190.0 1.3824e-05
15210.0 1.3871e-05
15230.0 1.3919e-05
15250.0 1.3968e-05
15270.0 1.4017e-05
15290.0 1.4068e-05
15310.0 1.412e-05
15330.0 1.4172e-05
15350.0 1.4226e-05
15370.0 1.428e-05
15390.0 1.4336e-05
15410.0 1.4392e-05
15430.0 1.4449e-05
15450.0 1.4507e-05
15470.0 1.4566e-05
15490.0 1.4626e-05
15510.0 1.4687e-05
15530.0 1.4748e-05
15550.0 1.481e-05
15570.0 1.4874e-05
15590.0 1.4937e-05
15610.0 1.5002e-05
15630.0 1.5067e-05
15650.0 1.5134e-05
15670.0 1.52e-05
15690.0 1.5268e-05
15710.0 1.5336e-05
15730.0 1.5405e-05
15750.0 1.5475e-05
15770.0 1.5545e-05
15790.0 1.5615e-05
15810.0 1.5687e-05
15830.0 1.5759e-05
15850.0 1.5831e-05
15870.0 1.5904e-05
15890.0 1.5978e-05
15910.0 1.6052e-05
15930.0 1.6126e-05
15950.0 1.6201e-05
15970.0 1.6276e-05
15990.0 1.6352e-05
16010.0 1.6428e-05
16030.0 1.6504e-05
16050.0 1.6581e-05
16070.0 1.6658e-05
16090.0 1.6735e-05
16110.0 1.6813e-05
16130.0 1.689e-05
16150.0 1.6968e-05
16170.0 1.7046e-05
16190.0 1.7124e-05
16210.0 1.7203e-05
16230.0 1.7281e-05
16250.0 1.7359e-05
16270.0 1.7438e-05
16290.0 1.7516e-05
16310.0 1.7595e-05
16330.0 1.7673e-05
16350.0 1.7752e-05
16370.0 1.783e-05
16390.0 1.7908e-05
16410.0 1.7986e-05
16430.0 1.8063e-05
16450.0 1.8141e-05
16470.0 1.8218e-05
16490.0 1.8295e-05
16510.0 1.8371e-05
16530.0 1.8448e-05
16550.0 1.8523e-05
16570.0 1.8599e-05
16590.0 1.8674e-05
16610.0 1.8748e-05
16630.0 1.8822e-05
16650.0 1.8896e-05
16670.0 1.8969e-05
16690.0 1.9041e-05
16710.0 1.9112e-05
16730.0 1.9183e-05
16750.0 1.9254e-05
16770.0 1.9323e-05
16790.0 1.9392e-05
16810.0 1.946e-05
16830.0 1.9528e-05
16850.0 1.9594e-05
16870.0 1.966e-05
16890.0 1.9724e-05
16910.0 1.9788e-05
16930.0 1.9851e-05
16950.0 1.9913e-05
16970.0 1.9973e-05
16990.0 2.0033e-05
17010.0 2.0092e-05
17030.0 2.0149e-05
17050.0 2.0206e-05
17070.0 2.0261e-05
17090.0 2.0316e-05
17110.0 2.0369e-05
17130.0 2.042e-05
17150.0 2.0471e-05
17170.0 2.052e-05
17190.0 2.0568e-05
17210.0 2.0615e-05
17230.0 2.066e-05
17250.0 2.0704e-05
17270.0 2.0747e-05
17290.0 2.0788e-05
17310.0 2.0828e-05
17330.0 2.0866e-05
17350.0 2.0903e-05
17370.0 2.0939e-05
17390.0 2.0973e-05
17410.0 2.1005e-05
17430.0 2.1036e-05
17450.0 2.1066e-05
17470.0 2.1093e-05
17490.0 2.112e-05
17510.0 2.1144e-05
17530.0 2.1168e-05
17550.0 2.1189e-05
17570.0 2.1209e-05
17590.0 2.1227e-05
17610.0 2.1244e-05
17630.0 2.1259e-05
17650.0 2.1272e-05
17670.0 2.1284e-05
17690.0 2.1294e-05
17710.0 2.1302e-05
17730.0 2.1309e-05
17750.0 2.1314e-05
17770.0 2.1317e-05
17790.0 2.1319e-05
17810.0 2.1319e-05
17830.0 2.1317e-05
17850.0 2.1314e-05
17870.0 2.1309e-05
17890.0 2.1302e-05
17910.0 2.1293e-05
17930.0 2.1283e-05
17950.0 2.1272e-05
17970.0 2.1258e-05
17990.0 2.1243e-05
18010.0 2.1226e-05
18030.0 2.1207e-05
18050.0 2.1187e-05
18070.0 2.1165e-05
18090.0 2.1142e-05
18110.0 2.1117e-05
18130.0 2.109e-05
18150.0 2.1062e-05
18170.0 2.1032e-05
18190.0 2.1e-05
18210.0 2.0967e-05
18230.0 2.0933e-05
18250.0 2.0896e-05
18270.0 2.0859e-05
18290.0 2.0819e-05
18310.0 2.0779e-05
18330.0 2.0736e-05
18350.0 2.0693e-05
18370.0 2.0647e-05
18390.0 2.0601e-05
18410.0 2.0553e-05
18430.0 2.0503e-05
18450.0 2.0452e-05
18470.0 2.04e-05
18490.0 2.0346e-05
18510.0 2.0291e-05
18530.0 2.0235e-05
18550.0 2.0177e-05
18570.0 2.0119e-05
18590.0 2.0058e-05
18610.0 1.9997e-05
18630.0 1.9935e-05
18650.0 1.9871e-05
18670.0 1.9806e-05
18690.0 1.974e-05
18710.0 1.9673e-05
18730.0 1.9604e-05
18750.0 1.9535e-05
18770.0 1.9465e-05
18790.0 1.9393e-05
18810.0 1.9321e-05
18830.0 1.9247e-05
18850.0 1.9173e-05
18870.0 1.9098e-05
18890.0 1.9021e-05
18910.0 1.8944e-05
18930.0 1.8866e-05
18950.0 1.8787e-05
18970.0 1.8708e-05
18990.0 1.8627e-05
19010.0 1.8546e-05
19030.0 1.8464e-05
19050.0 1.8381e-05
19070.0 1.8298e-05
19090.0 1.8214e-05
19110.0 1.8129e-05
19130.0 1.8043e-05
19150.0 1.7957e-05
19170.0 1.7871e-05
19190.0 1.7784e-05
19210.0 1.7696e-05
19230.0 1.7608e-05
19250.0 1.7519e-05
19270.0 1.743e-05
19290.0 1.734e-05
19310.0 1.725e-05
19330.0 1.716e-05
19350.0 1.7069e-05
19370.0 1.6978e-05
19390.0 1.6887e-05
19410.0 1.6795e-05
19430.0 1.6703e-05
19450.0 1.661e-05
19470.0 1.6518e-05
19490.0 1.6425e-05
19510.0 1.6332e-05
19530.0 1.6239e-05
19550.0 1.6145e-05
19570.0 1.6052e-05
19590.0 1.5958e-05
19610.0 1.5865e-05
19630.0 1.5771e-05
19650.0 1.5677e-05
19670.0 1.5583e-05
19690.0 1.5489e-05
19710.0 1.5395e-05
19730.0 1.5301e-05
19750.0 1.5207e-05
19770.0 1.5113e-05
19790.0 1.5019e-05
19810.0 1.4925e-05
19830.0 1.4831e-05
19850.0 1.4736e-05
19870.0 1.464e-05
19890.0 1.4542e-05
19910.0 1.4438e-05
19930.0 1.4326e-05
19950.0 1.4202e-05
19970.0 1.406e-05
19990.0 1.3896e-05
20010.0 1.3713e-05
20030.0 1.3503e-05
20050.0 1.3269e-05
20070.0 1.3021e-05
20090.0 1.2762e-05
20110.0 1.2484e-05
20130.0 1.2209e-05
20150.0 1.1941e-05
20170.0 1.1671e-05
20190.0 1.1404e-05
20210.0 1.115e-05
20230.0 1.0905e-05
20250.0 1.0661e-05
20270.0 1.043e-05
20290.0 1.0213e-05
20310.0 1.0002e-05
20330.0 9.7987e-06
20350.0 9.6153e-06
20370.0 9.4413e-06
20390.0 9.2756e-06
20410.0 9.1233e-06
20430.0 8.9846e-06
20450.0 8.8524e-06
20470.0 8.7312e-06
20490.0 8.6218e-06
20510.0 8.5211e-06
20530.0 8.4276e-06
20550.0 8.3428e-06
20570.0 8.2655e-06
20590.0 8.1934e-06
20610.0 8.1266e-06
20630.0 8.0642e-06
20650.0 8.0052e-06
20670.0 7.9487e-06
20690.0 7.894e-06
20710.0 7.8401e-06
20730.0 7.7864e-06
20750.0 7.7321e-06
20770.0 7.6767e-06
20790.0 7.6196e-06
20810.0 7.5602e-06
20830.0 7.4984e-06
20850.0 7.4342e-06
20870.0 7.3663e-06
20890.0 7.2953e-06
20910.0 7.2224e-06
20930.0 7.1463e-06
20950.0 7.0668e-06
20970.0 6.986e-06
20990.0 6.9039e-06
21010.0 6.8183e-06
21030.0 6.732e-06
21050.0 6.646e-06
21070.0 6.5587e-06
21090.0 6.4699e-06
21110.0 6.3834e-06
21130.0 6.2978e-06
21150.0 6.2116e-06
21170.0 6.1268e-06
21190.0 6.0448e-06
21210.0 5.9628e-06
21230.0 5.8816e-06
21250.0 5.8039e-06
21270.0 5.7282e-06
21290.0 5.6533e-06
21310.0 5.5809e-06
21330.0 5.5122e-06
21350.0 5.4447e-06
21370.0 5.3791e-06
21390.0 5.317e-06
21410.0 5.2574e-06
21430.0 5.199e-06
21450.0 5.1441e-06
21470.0 5.0922e-06
21490.0 5.0423e-06
21510.0 4.9947e-06
21530.0 4.95e-06
21550.0 4.9073e-06
21570.0 4.8663e-06
21590.0 4.8275e-06
21610.0 4.7905e-06
21630.0 4.7548e-06
21650.0 4.7204e-06
21670.0 4.6873e-06
21690.0 4.6551e-06
21710.0 4.6236e-06
21730.0 4.5927e-06
21750.0 4.5624e-06
21770.0 4.5325e-06
21790.0 4.5029e-06
21810.0 4.4737e-06
21830.0 4.4447e-06
21850.0 4.416e-06
21870.0 4.3875e-06
21890.0 4.3593e-06
21910.0 4.3313e-06
21930.0 4.3034e-06
21950.0 4.2758e-06
21970.0 4.2482e-06
21990.0 4.2205e-06
22010.0 4.1929e-06
22030.0 4.1652e-06
22050.0 4.1371e-06
22070.0 4.1087e-06
22090.0 4.0801e-06
22110.0 4.0509e-06
22130.0 4.0211e-06
22150.0 3.9908e-06
22170.0 3.96e-06
22190.0 3.9281e-06
22210.0 3.8955e-06
22230.0 3.8627e-06
22250.0 3.829e-06
22270.0 3.7943e-06
22290.0 3.7592e-06
22310.0 3.7236e-06
22330.0 3.6865e-06
22350.0 3.6487e-06
22370.0 3.6106e-06
22390.0 3.5713e-06
22410.0 3.5303e-06
22430.0 3.4893e-06
22450.0 3.4475e-06
22470.0 3.4039e-06
22490.0 3.3595e-06
22510.0 3.3151e-06
22530.0 3.2687e-06
22550.0 3.2208e-06
22570.0 3.1737e-06
22590.0 3.126e-06
22610.0 3.077e-06
22630.0 3.0282e-06
