#lamb flux
1010.0 6.0307e-06
1030.0 6.6457e-06
1050.0 7.353e-06
1070.0 8.1493e-06
1090.0 9.0537e-06
1110.0 9.9814e-06
1130.0 1.0915e-05
1150.0 1.1893e-05
1170.0 1.2902e-05
1190.0 1.3859e-05
1210.0 1.4828e-05
1230.0 1.583e-05
1250.0 1.6812e-05
1270.0 1.7765e-05
1290.0 1.8772e-05
1310.0 1.9779e-05
1330.0 2.0744e-05
1350.0 2.172e-05
1370.0 2.2728e-05
1390.0 2.3711e-05
1410.0 2.4664e-05
1430.0 2.5661e-05
1450.0 2.6657e-05
1470.0 2.762e-05
1490.0 2.8593e-05
1510.0 2.9621e-05
1530.0 3.0595e-05
1550.0 3.1556e-05
1570.0 3.2549e-05
1590.0 3.3543e-05
1610.0 3.4493e-05
1630.0 3.5471e-05
1650.0 3.6475e-05
1670.0 3.7445e-05
1690.0 3.8402e-05
1710.0 3.9396e-05
1730.0 4.0393e-05
1750.0 4.133e-05
1770.0 4.2294e-05
1790.0 4.3275e-05
1810.0 4.4222e-05
1830.0 4.5151e-05
1850.0 4.6135e-05
1870.0 4.7089e-05
1890.0 4.8007e-05
1910.0 4.894e-05
1930.0 4.9892e-05
1950.0 5.0793e-05
1970.0 5.1676e-05
1990.0 5.2588e-05
2010.0 5.3476e-05
2030.0 5.432e-05
2050.0 5.5183e-05
2070.0 5.6059e-05
2090.0 5.6867e-05
2110.0 5.7659e-05
2130.0 5.8463e-05
2150.0 5.9234e-05
2170.0 5.9947e-05
2190.0 6.0674e-05
2210.0 6.1387e-05
2230.0 6.2041e-05
2250.0 6.2668e-05
2270.0 6.3311e-05
2290.0 6.3898e-05
2310.0 6.4421e-05
2330.0 6.4945e-05
2350.0 6.5449e-05
2370.0 6.5894e-05
2390.0 6.6332e-05
2410.0 6.6815e-05
2430.0 6.7297e-05
2450.0 6.7816e-05
2470.0 6.8483e-05
2490.0 6.9382e-05
2510.0 7.0521e-05
2530.0 7.2245e-05
2550.0 7.5057e-05
2570.0 7.9369e-05
2590.0 8.5666e-05
2610.0 9.5409e-05
2630.0 0.00010865
2650.0 0.00012439
2670.0 0.00014261
2690.0 0.00016236
2710.0 0.00018071
2730.0 0.00019645
2750.0 0.00020991
2770.0 0.00021983
2790.0 0.00022638
2810.0 0.00023077
2830.0 0.00023385
2850.0 0.00023564
2870.0 0.00023694
2890.0 0.00023821
2910.0 0.00023939
2930.0 0.00024035
2950.0 0.00024145
2970.0 0.00024263
2990.0 0.00024364
3010.0 0.0028582
3030.0 0.0028708
3050.0 0.0028825
3070.0 0.0028896
3090.0 0.0028946
3110.0 0.0028936
3130.0 0.0028819
3150.0 0.0028577
3170.0 0.0028179
3190.0 0.0027634
3210.0 0.0027005
3230.0 0.0026362
3250.0 0.002585
3270.0 0.0025534
3290.0 0.002555
3310.0 0.0025838
3330.0 0.0026492
3350.0 0.002741
3370.0 0.0028606
3390.0 0.0030037
3410.0 0.0031537
3430.0 0.0033168
3450.0 0.0034973
3470.0 0.0036858
3490.0 0.0038772
3510.0 0.0040857
3530.0 0.0043026
3550.0 0.0045144
3570.0 0.0047306
3590.0 0.0049681
3610.0 0.0052006
3630.0 0.0054401
3650.0 0.0056777
3670.0 0.0058947
3690.0 0.0060612
3710.0 0.0061731
3730.0 0.0062327
3750.0 0.006252
3770.0 0.0058246
3790.0 0.0054058
3810.0 0.0047492
3830.0 0.0035502
3850.0 0.0025855
3870.0 0.0025302
3890.0 0.0031772
3910.0 0.0049365
3930.0 0.0065657
3950.0 0.0074058
3970.0 0.0077762
3990.0 0.0083025
4010.0 0.0091945
4030.0 0.0091858
4050.0 0.0086454
4070.0 0.008023
4090.0 0.0076794
4110.0 0.0082424
4130.0 0.0084718
4150.0 0.0084797
4170.0 0.0087153
4190.0 0.0087165
4210.0 0.0089052
4230.0 0.0096311
4250.0 0.01053
4270.0 0.010976
4290.0 0.010872
4310.0 0.011076
4330.0 0.011838
4350.0 0.013715
4370.0 0.015421
4390.0 0.01449
4410.0 0.01193
4430.0 0.010209
4450.0 0.008639
4470.0 0.0079974
4490.0 0.0090326
4510.0 0.010729
4530.0 0.01187
4550.0 0.013106
4570.0 0.015323
4590.0 0.018779
4610.0 0.02466
4630.0 0.029752
4650.0 0.030134
4670.0 0.029885
4690.0 0.03172
4710.0 0.032027
4730.0 0.026632
4750.0 0.020091
4770.0 0.01628
4790.0 0.015756
4810.0 0.014974
4830.0 0.014931
4850.0 0.017615
4870.0 0.021909
4890.0 0.023495
4910.0 0.020363
4930.0 0.019185
4950.0 0.022258
4970.0 0.029304
4990.0 0.035877
5010.0 0.036698
5030.0 0.02943
5050.0 0.020112
5070.0 0.014797
5090.0 0.012773
5110.0 0.012602
5130.0 0.013662
5150.0 0.01415
5170.0 0.013963
5190.0 0.013856
5210.0 0.013541
5230.0 0.014226
5250.0 0.015541
5270.0 0.017782
5290.0 0.020564
5310.0 0.022374
5330.0 0.023109
5350.0 0.024504
5370.0 0.026831
5390.0 0.027773
5410.0 0.025559
5430.0 0.022574
5450.0 0.022214
5470.0 0.026458
5490.0 0.03349
5510.0 0.040679
5530.0 0.043958
5550.0 0.042565
5570.0 0.039404
5590.0 0.035638
5610.0 0.034123
5630.0 0.03423
5650.0 0.034374
5670.0 0.033686
5690.0 0.031806
5710.0 0.030368
5730.0 0.026939
5750.0 0.020696
5770.0 0.01815
5790.0 0.01964
5810.0 0.022909
5830.0 0.026
5850.0 0.027816
5870.0 0.027884
5890.0 0.025974
5910.0 0.025154
5930.0 0.025426
5950.0 0.02666
5970.0 0.027526
5990.0 0.025118
6010.0 0.020736
6030.0 0.017165
6050.0 0.015731
6070.0 0.016367
6090.0 0.018081
6110.0 0.018448
6130.0 0.017188
6150.0 0.016736
6170.0 0.018361
6190.0 0.02197
6210.0 0.026387
6230.0 0.02941
6250.0 0.029165
6270.0 0.0258
6290.0 0.021278
6310.0 0.017052
6330.0 0.014105
6350.0 0.013358
6370.0 0.014659
6390.0 0.016846
6410.0 0.019569
6430.0 0.022615
6450.0 0.026573
6470.0 0.032855
6490.0 0.040065
6510.0 0.042413
6530.0 0.039972
6550.0 0.038138
6570.0 0.037693
6590.0 0.036161
6610.0 0.033325
6630.0 0.031018
6650.0 0.029765
6670.0 0.029712
6690.0 0.028864
6710.0 0.025968
6730.0 0.02252
6750.0 0.020655
6770.0 0.021738
6790.0 0.023356
6810.0 0.024074
6830.0 0.024392
6850.0 0.02351
6870.0 0.02242
6890.0 0.021716
6910.0 0.020691
6930.0 0.019995
6950.0 0.020176
6970.0 0.020915
6990.0 0.022983
7010.0 0.023997
7030.0 0.02291
7050.0 0.020992
7070.0 0.018283
7090.0 0.015538
7110.0 0.014559
7130.0 0.015197
7150.0 0.015852
7170.0 0.016273
7190.0 0.015963
7210.0 0.015883
7230.0 0.017785
7250.0 0.020668
7270.0 0.023222
7290.0 0.02453
7310.0 0.022946
7330.0 0.020506
7350.0 0.018699
7370.0 0.018252
7390.0 0.019102
7410.0 0.020533
7430.0 0.022583
7450.0 0.024975
7470.0 0.027153
7490.0 0.027643
7510.0 0.024037
7530.0 0.023834
7550.0 0.021593
7570.0 0.018441
7590.0 0.014841
7610.0 0.01387
7630.0 0.015116
7650.0 0.017616
7670.0 0.020196
7690.0 0.022313
7710.0 0.024503
7730.0 0.026466
7750.0 0.027875
7770.0 0.027464
7790.0 0.027308
7810.0 0.027809
7830.0 0.02755
7850.0 0.026465
7870.0 0.024868
7890.0 0.022895
7910.0 0.020277
7930.0 0.017997
7950.0 0.016571
7970.0 0.016191
7990.0 0.016759
8010.0 0.017132
8030.0 0.017362
8050.0 0.017543
8070.0 0.017355
8090.0 0.017303
8110.0 0.016685
8130.0 0.015592
8150.0 0.014727
8170.0 0.014571
8190.0 0.014825
8210.0 0.014968
8230.0 0.014843
8250.0 0.014344
8270.0 0.012667
8290.0 0.010018
8310.0 0.0072925
8330.0 0.0049069
8350.0 0.0035065
8370.0 0.0035609
8390.0 0.0043191
8410.0 0.0054572
8430.0 0.0066637
8450.0 0.0073232
8470.0 0.0076899
8490.0 0.0080624
8510.0 0.0084908
8530.0 0.0094262
8550.0 0.010979
8570.0 0.012912
8590.0 0.014919
8610.0 0.017412
8630.0 0.020232
8650.0 0.021952
8670.0 0.021958
8690.0 0.021196
8710.0 0.020128
8730.0 0.019296
8750.0 0.01852
8770.0 0.018028
8790.0 0.01732
8810.0 0.016085
8830.0 0.014713
8850.0 0.012632
8870.0 0.011183
8890.0 0.010379
8910.0 0.010903
8930.0 0.010702
8950.0 0.011002
8970.0 0.011135
8990.0 0.011295
9010.0 0.011491
9030.0 0.011335
9050.0 0.011325
9070.0 0.011333
9090.0 0.011342
9110.0 0.011347
9130.0 0.011358
9150.0 0.011374
9170.0 0.011384
9190.0 0.011386
9210.0 0.011448
9230.0 0.011458
9250.0 0.011475
9270.0 0.011494
9290.0 0.011516
9310.0 0.011541
9330.0 0.011567
9350.0 0.011594
9370.0 0.011624
9390.0 0.011654
9410.0 0.011686
9430.0 0.01172
9450.0 0.011754
9470.0 0.01179
9490.0 0.011827
9510.0 0.011866
9530.0 0.011906
9550.0 0.011946
9570.0 0.011988
9590.0 0.012031
9610.0 0.012075
9630.0 0.01212
9650.0 0.012167
9670.0 0.012214
9690.0 0.012262
9710.0 0.012311
9730.0 0.012361
9750.0 0.012412
9770.0 0.012463
9790.0 0.012516
9810.0 0.012569
9830.0 0.012622
9850.0 0.012676
9870.0 0.012731
9890.0 0.012787
9910.0 0.012842
9930.0 0.012899
9950.0 0.012952
9970.0 0.01301
9990.0 0.013067
10010.0 0.01311
10030.0 0.013168
10050.0 0.013222
10070.0 0.013263
10090.0 0.013326
10110.0 0.013388
10130.0 0.013449
10150.0 0.013509
10170.0 0.013566
10190.0 0.013622
10210.0 0.013678
10230.0 0.013734
10250.0 0.013788
10270.0 0.013842
10290.0 0.013896
10310.0 0.013949
10330.0 0.013999
10350.0 0.01405
10370.0 0.0141
10390.0 0.014148
10410.0 0.014196
10430.0 0.014243
10450.0 0.014289
10470.0 0.014332
10490.0 0.014375
10510.0 0.014417
10530.0 0.014456
10550.0 0.014494
10570.0 0.014532
10590.0 0.014568
10610.0 0.014601
10630.0 0.014634
10650.0 0.014665
10670.0 0.014693
10690.0 0.014719
10710.0 0.014745
10730.0 0.014768
10750.0 0.014788
10770.0 0.014809
10790.0 0.014827
10810.0 0.014841
10830.0 0.014854
10850.0 0.014865
10870.0 0.014868
10890.0 0.014863
10910.0 0.014846
10930.0 0.014809
10950.0 0.014737
10970.0 0.014625
10990.0 0.014471
11010.0 0.013989
11030.0 0.013703
11050.0 0.013375
11070.0 0.012997
11090.0 0.012558
11110.0 0.012119
11130.0 0.011675
11150.0 0.011215
11170.0 0.010762
11190.0 0.010346
11210.0 0.0099422
11230.0 0.0095566
11250.0 0.0092163
11270.0 0.0089151
11290.0 0.008638
11310.0 0.0083977
11330.0 0.0082022
11350.0 0.0080285
11370.0 0.0078742
11390.0 0.0077409
11410.0 0.0076188
11430.0 0.0074932
11450.0 0.0073669
11470.0 0.0072368
11490.0 0.0070926
11510.0 0.0069293
11530.0 0.0067582
11550.0 0.0065751
11570.0 0.0063728
11590.0 0.0061629
11610.0 0.0059541
11630.0 0.0057361
11650.0 0.0055153
11670.0 0.0053104
11690.0 0.0051149
11710.0 0.0049254
11730.0 0.0047526
11750.0 0.0046007
11770.0 0.0044584
11790.0 0.0043296
11810.0 0.0042181
11830.0 0.0041179
11850.0 0.0040228
11870.0 0.0039373
11890.0 0.0038585
11910.0 0.0037793
11930.0 0.0036992
11950.0 0.00362
11970.0 0.0035372
11990.0 0.0034475
12010.0 0.003356
12030.0 0.0032633
12050.0 0.0031661
12070.0 0.0030665
12090.0 0.002974
12110.0 0.0028841
12130.0 0.0027984
12150.0 0.0027233
12170.0 0.0026605
12190.0 0.0026078
12210.0 0.002571
12230.0 0.0025509
12250.0 0.0025469
12270.0 0.0025607
12290.0 0.0025906
12310.0 0.0026337
12330.0 0.0026933
12350.0 0.0027652
12370.0 0.0028437
12390.0 0.0029302
12410.0 0.0030267
12430.0 0.0031187
12450.0 0.003208
12470.0 0.0032965
12490.0 0.003378
12510.0 0.003447
12530.0 0.0035082
12550.0 0.0035591
12570.0 0.003595
12590.0 0.0036177
12610.0 0.0036282
12630.0 0.0036248
12650.0 0.0036086
12670.0 0.0035813
12690.0 0.0035428
12710.0 0.0034959
12730.0 0.0034419
12750.0 0.0033789
12770.0 0.0033116
12790.0 0.0032419
12810.0 0.003168
12830.0 0.0030901
12850.0 0.0030137
12870.0 0.0029365
12890.0 0.0028559
12910.0 0.0027753
12930.0 0.0026961
12950.0 0.0026132
12970.0 0.0025278
12990.0 0.0024452
13010.0 0.0023619
13030.0 0.0022762
13050.0 0.0021923
13070.0 0.0021126
13090.0 0.0020325
13110.0 0.0019554
13130.0 0.0018851
13150.0 0.0018204
13170.0 0.0017598
13190.0 0.001709
13210.0 0.0016675
13230.0 0.0016336
13250.0 0.001609
13270.0 0.0015939
13290.0 0.0015872
13310.0 0.0015893
13330.0 0.0015992
13350.0 0.0016154
13370.0 0.0016382
13390.0 0.0016667
13410.0 0.0016966
13430.0 0.0017294
13450.0 0.0017646
13470.0 0.0017989
13490.0 0.0018314
13510.0 0.0018647
13530.0 0.0018951
13550.0 0.0019214
13570.0 0.0019451
13590.0 0.0019662
13610.0 0.0019832
13630.0 0.0019965
13650.0 0.0020075
13670.0 0.0020154
13690.0 0.00202
13710.0 0.0020224
13730.0 0.0020225
13750.0 0.0020199
13770.0 0.0020153
13790.0 0.0020085
13810.0 0.0019996
13830.0 0.0019888
13850.0 0.0019758
13870.0 0.0019605
13890.0 0.0019435
13910.0 0.0019246
13930.0 0.0019033
13950.0 0.0018804
13970.0 0.0018572
13990.0 0.0018326
14010.0 0.001807
14030.0 0.0017822
14050.0 0.0017579
14070.0 0.0017334
14090.0 0.0017109
14110.0 0.0016906
14130.0 0.0016719
14150.0 0.0016554
14170.0 0.0016421
14190.0 0.0016315
14210.0 0.0016236
14230.0 0.0016188
14250.0 0.0016169
14270.0 0.0016182
14290.0 0.0016227
14310.0 0.0016297
14330.0 0.0016393
14350.0 0.0016517
14370.0 0.0016659
14390.0 0.0016812
14410.0 0.0016985
14430.0 0.0017169
14450.0 0.0017352
14470.0 0.0017541
14490.0 0.0017744
14510.0 0.0017944
14530.0 0.0018143
14550.0 0.0018361
14570.0 0.0018597
14590.0 0.0018844
14610.0 0.0019123
14630.0 0.001945
14650.0 0.0019807
14670.0 0.0020201
14690.0 0.0020657
14710.0 0.0021171
14730.0 0.0021697
14750.0 0.0022273
14770.0 0.0022898
14790.0 0.0023528
14810.0 0.0024152
14830.0 0.0024815
14850.0 0.0025448
14870.0 0.0026026
14890.0 0.002657
14910.0 0.0027069
14930.0 0.0027482
14950.0 0.0027816
14970.0 0.0028085
14990.0 0.0028273
15010.0 0.0028384
15030.0 0.0028438
15050.0 0.0028442
15070.0 0.0028408
15090.0 0.0028351
15110.0 0.0028277
15130.0 0.0028196
15150.0 0.0028113
15170.0 0.0028026
15190.0 0.0027936
15210.0 0.002785
15230.0 0.0027765
15250.0 0.0027677
15270.0 0.002759
15290.0 0.0027508
15310.0 0.0027423
15330.0 0.0027338
15350.0 0.0027257
15370.0 0.0027176
15390.0 0.002709
15410.0 0.0027008
15430.0 0.0026929
15450.0 0.0026847
15470.0 0.0026764
15490.0 0.0026686
15510.0 0.0026607
15530.0 0.0026526
15550.0 0.0026447
15570.0 0.0026371
15590.0 0.0026291
15610.0 0.002621
15630.0 0.0026133
15650.0 0.0026056
15670.0 0.0025977
15690.0 0.00259
15710.0 0.0025825
15730.0 0.0025747
15750.0 0.0025669
15770.0 0.0025593
15790.0 0.0025518
15810.0 0.0025438
15830.0 0.0025362
15850.0 0.0025288
15870.0 0.0025211
15890.0 0.0025133
15910.0 0.0025059
15930.0 0.0024984
15950.0 0.0024905
15970.0 0.0024829
15990.0 0.0024755
16010.0 0.0024678
16030.0 0.0024599
16050.0 0.0024526
16070.0 0.002445
16090.0 0.0024372
16110.0 0.0024297
16130.0 0.0024223
16150.0 0.0024143
16170.0 0.0024066
16190.0 0.0023991
16210.0 0.0023914
16230.0 0.0023835
16250.0 0.0023759
16270.0 0.0023684
16290.0 0.0023605
16310.0 0.0023527
16330.0 0.0023452
16350.0 0.0023374
16370.0 0.0023292
16390.0 0.0023216
16410.0 0.0023139
16430.0 0.0023059
16450.0 0.002298
16470.0 0.0022904
16490.0 0.0022824
16510.0 0.0022743
16530.0 0.0022664
16550.0 0.0022586
16570.0 0.0022503
16590.0 0.0022422
16610.0 0.0022344
16630.0 0.0022264
16650.0 0.0022181
16670.0 0.0022102
16690.0 0.0022022
16710.0 0.0021937
16730.0 0.0021855
16750.0 0.0021775
16770.0 0.0021692
16790.0 0.0021608
16810.0 0.0021527
16830.0 0.0021445
16850.0 0.002136
16870.0 0.0021277
16890.0 0.0021195
16910.0 0.002111
16930.0 0.0021023
16950.0 0.002094
16970.0 0.0020856
16990.0 0.0020769
17010.0 0.0020684
17030.0 0.0020602
17050.0 0.0020514
17070.0 0.0020427
17090.0 0.0020342
17110.0 0.0020257
17130.0 0.0020167
17150.0 0.002008
17170.0 0.0019995
17190.0 0.0019907
17210.0 0.0019818
17230.0 0.0019732
17250.0 0.0019644
17270.0 0.0019553
17290.0 0.0019465
17310.0 0.0019378
17330.0 0.0019287
17350.0 0.0019196
17370.0 0.001911
17390.0 0.001902
17410.0 0.0018929
17430.0 0.001884
17450.0 0.0018752
17470.0 0.0018658
17490.0 0.0018566
17510.0 0.0018477
17530.0 0.0018386
17550.0 0.0018293
17570.0 0.0018203
17590.0 0.0018113
17610.0 0.001802
17630.0 0.0017927
17650.0 0.0017837
17670.0 0.0017745
17690.0 0.0017649
17710.0 0.0017558
17730.0 0.0017467
17750.0 0.0017372
17770.0 0.0017279
17790.0 0.0017189
17810.0 0.0017095
17830.0 0.0016999
17850.0 0.0016907
17870.0 0.0016815
17890.0 0.0016719
17910.0 0.0016624
17930.0 0.0016533
17950.0 0.0016438
17970.0 0.0016343
17990.0 0.0016251
18010.0 0.0016158
18030.0 0.001606
18050.0 0.0015966
18070.0 0.0015873
18090.0 0.0015778
18110.0 0.0015682
18130.0 0.0015589
18150.0 0.0015496
18170.0 0.0015399
18190.0 0.0015305
18210.0 0.0015212
18230.0 0.0015116
18250.0 0.0015019
18270.0 0.0014926
18290.0 0.0014832
18310.0 0.0014735
18330.0 0.0014641
18350.0 0.0014548
18370.0 0.0014452
18390.0 0.0014356
18410.0 0.0014263
18430.0 0.0014168
18450.0 0.0014071
18470.0 0.0013976
18490.0 0.0013884
18510.0 0.0013788
18530.0 0.0013693
18550.0 0.0013601
18570.0 0.0013506
18590.0 0.0013409
18610.0 0.0013315
18630.0 0.0013222
18650.0 0.0013126
18670.0 0.001303
18690.0 0.0012939
18710.0 0.0012845
18730.0 0.0012749
18750.0 0.0012656
18770.0 0.0012564
18790.0 0.0012467
18810.0 0.0012373
18830.0 0.0012281
18850.0 0.0012188
18870.0 0.0012092
18890.0 0.0012
18910.0 0.0011909
18930.0 0.0011814
18950.0 0.001172
18970.0 0.0011629
18990.0 0.0011536
19010.0 0.001144
19030.0 0.0011349
19050.0 0.0011258
19070.0 0.0011164
19090.0 0.0011072
19110.0 0.0010983
19130.0 0.001089
19150.0 0.0010796
19170.0 0.0010706
19190.0 0.0010615
19210.0 0.0010521
19230.0 0.0010429
19250.0 0.0010341
19270.0 0.0010249
19290.0 0.0010157
19310.0 0.0010069
19330.0 0.00099791
19350.0 0.00098855
19370.0 0.00097954
19390.0 0.00097071
19410.0 0.00096163
19430.0 0.00095249
19450.0 0.00094375
19470.0 0.00093488
19490.0 0.00092578
19510.0 0.00091691
19530.0 0.00090821
19550.0 0.00089915
19570.0 0.00089008
19590.0 0.00088144
19610.0 0.00087265
19630.0 0.00086368
19650.0 0.00085495
19670.0 0.0008464
19690.0 0.00083746
19710.0 0.00082862
19730.0 0.00082005
19750.0 0.00081136
19770.0 0.00080237
19790.0 0.00079377
19810.0 0.00078529
19830.0 0.00077652
19850.0 0.00076777
19870.0 0.00075927
19890.0 0.00075036
19910.0 0.00074097
19930.0 0.00073149
19950.0 0.00072142
19970.0 0.0007101
19990.0 0.00069769
20010.0 0.00068472
20030.0 0.00067022
20050.0 0.00065453
20070.0 0.0006387
20090.0 0.0006228
20110.0 0.00060609
20130.0 0.0005904
20150.0 0.00057593
20170.0 0.000562
20190.0 0.00054896
20210.0 0.00053755
20230.0 0.00052726
20250.0 0.0005178
20270.0 0.00050977
20290.0 0.0005031
20310.0 0.00049743
20330.0 0.00049285
20350.0 0.00048967
20370.0 0.0004875
20390.0 0.00048638
20410.0 0.00048633
20430.0 0.00048722
20450.0 0.00048916
20470.0 0.0004921
20490.0 0.0004958
20510.0 0.00050035
20530.0 0.00050592
20550.0 0.00051209
20570.0 0.00051864
20590.0 0.00052604
20610.0 0.00053394
20630.0 0.00054189
20650.0 0.00055018
20670.0 0.00055907
20690.0 0.0005676
20710.0 0.00057593
20730.0 0.00058442
20750.0 0.00059278
20770.0 0.00060055
20790.0 0.0006083
20810.0 0.00061612
20830.0 0.00062358
20850.0 0.00063087
20870.0 0.00063854
20890.0 0.00064632
20910.0 0.00065385
20930.0 0.00066177
20950.0 0.00067013
20970.0 0.00067843
20990.0 0.00068675
21010.0 0.00069561
21030.0 0.00070433
21050.0 0.0007126
21070.0 0.00072075
21090.0 0.00072871
21110.0 0.00073567
21130.0 0.00074185
21150.0 0.0007474
21170.0 0.00075191
21190.0 0.00075526
21210.0 0.00075765
21230.0 0.00075889
21250.0 0.0007589
21270.0 0.00075779
21290.0 0.00075547
21310.0 0.000752
21330.0 0.00074765
21350.0 0.00074215
21370.0 0.00073559
21390.0 0.00072836
21410.0 0.00072043
21430.0 0.00071129
21450.0 0.00070187
21470.0 0.00069229
21490.0 0.00068214
21510.0 0.00067167
21530.0 0.00066161
21550.0 0.00065162
21570.0 0.00064152
21590.0 0.0006321
21610.0 0.00062346
21630.0 0.00061528
21650.0 0.00060778
21670.0 0.00060171
21690.0 0.00059656
21710.0 0.00059242
21730.0 0.00058957
21750.0 0.00058796
21770.0 0.00058753
21790.0 0.00058844
21810.0 0.00059052
21830.0 0.0005938
21850.0 0.0005984
21870.0 0.000604
21890.0 0.0006104
21910.0 0.000618
21930.0 0.0006265
21950.0 0.00063544
21970.0 0.00064517
21990.0 0.00065599
22010.0 0.00066678
22030.0 0.00067775
22050.0 0.00068935
22070.0 0.00070109
22090.0 0.00071229
22110.0 0.00072367
22130.0 0.0007351
22150.0 0.0007458
22170.0 0.00075586
22190.0 0.00076574
22210.0 0.00077476
22230.0 0.00078244
22250.0 0.00078933
22270.0 0.00079518
22290.0 0.00079959
22310.0 0.00080268
22330.0 0.00080446
22350.0 0.00080465
22370.0 0.00080332
22390.0 0.00080041
22410.0 0.0007957
22430.0 0.00078964
22450.0 0.00078215
22470.0 0.00077286
22490.0 0.00076222
22510.0 0.00075068
22530.0 0.00073742
22550.0 0.00072272
22570.0 0.00070767
22590.0 0.0006918
22610.0 0.00067465
22630.0 0.00065715
22650.0 0.00064001
22670.0 0.00062195
22690.0 0.00060358
22710.0 0.00058589
22730.0 0.00056842
22750.0 0.00055028
22770.0 0.00053332
22790.0 0.00051744
22810.0 0.00050179
22830.0 0.00048687
22850.0 0.00047355
22870.0 0.00046113
22890.0 0.00044947
22910.0 0.00043945
22930.0 0.00043099
22950.0 0.00042373
22970.0 0.00041797
22990.0 0.00041416
23010.0 0.00041183
23030.0 0.00041114
23050.0 0.00041215
23070.0 0.00041465
23090.0 0.00041894
23110.0 0.00042478
23130.0 0.0004318
23150.0 0.00044014
23170.0 0.00044994
23190.0 0.0004604
23210.0 0.00047128
23230.0 0.00048316
23250.0 0.00049532
23270.0 0.00050714
23290.0 0.00051905
23310.0 0.0005311
23330.0 0.00054195
23350.0 0.00055195
23370.0 0.0005613
23390.0 0.00056948
23410.0 0.00057612
23430.0 0.00058165
23450.0 0.00058584
23470.0 0.00058843
23490.0 0.00058959
23510.0 0.00058926
23530.0 0.00058741
23550.0 0.00058431
23570.0 0.00057983
23590.0 0.00057399
23610.0 0.00056722
23630.0 0.00055955
23650.0 0.00055052
23670.0 0.00054092
23690.0 0.00053102
23710.0 0.00052045
23730.0 0.00050932
23750.0 0.00049875
23770.0 0.00048836
23790.0 0.00047801
23810.0 0.00046848
23830.0 0.00046008
23850.0 0.0004524
