#lamb flux
1010.0 1.6925e-09
1030.0 1.8719e-09
1050.0 2.0783e-09
1070.0 2.3106e-09
1090.0 2.5745e-09
1110.0 2.8451e-09
1130.0 3.1175e-09
1150.0 3.4028e-09
1170.0 3.6971e-09
1190.0 3.9762e-09
1210.0 4.2591e-09
1230.0 4.5514e-09
1250.0 4.8377e-09
1270.0 5.1159e-09
1290.0 5.4097e-09
1310.0 5.7034e-09
1330.0 5.985e-09
1350.0 6.2698e-09
1370.0 6.5638e-09
1390.0 6.8505e-09
1410.0 7.1287e-09
1430.0 7.4195e-09
1450.0 7.7103e-09
1470.0 7.9913e-09
1490.0 8.2754e-09
1510.0 8.5756e-09
1530.0 8.86e-09
1550.0 9.1406e-09
1570.0 9.431e-09
1590.0 9.7217e-09
1610.0 9.9996e-09
1630.0 1.0286e-08
1650.0 1.058e-08
1670.0 1.0865e-08
1690.0 1.1146e-08
1710.0 1.1439e-08
1730.0 1.1733e-08
1750.0 1.201e-08
1770.0 1.2295e-08
1790.0 1.2587e-08
1810.0 1.2869e-08
1830.0 1.3147e-08
1850.0 1.3442e-08
1870.0 1.3731e-08
1890.0 1.401e-08
1910.0 1.4295e-08
1930.0 1.4587e-08
1950.0 1.4867e-08
1970.0 1.5145e-08
1990.0 1.5433e-08
2010.0 1.5717e-08
2030.0 1.5992e-08
2050.0 1.6276e-08
2070.0 1.6567e-08
2090.0 1.6843e-08
2110.0 1.7118e-08
2130.0 1.7402e-08
2150.0 1.7682e-08
2170.0 1.795e-08
2190.0 1.8228e-08
2210.0 1.8509e-08
2230.0 1.8779e-08
2250.0 1.9048e-08
2270.0 1.9329e-08
2290.0 1.9602e-08
2310.0 1.9864e-08
2330.0 2.0138e-08
2350.0 2.0418e-08
2370.0 2.0697e-08
2390.0 2.1e-08
2410.0 2.1358e-08
2430.0 2.177e-08
2450.0 2.2263e-08
2470.0 2.2894e-08
2490.0 2.369e-08
2510.0 2.4594e-08
2530.0 2.5683e-08
2550.0 2.7045e-08
2570.0 2.874e-08
2590.0 3.0946e-08
2610.0 3.4247e-08
2630.0 3.896e-08
2650.0 4.5123e-08
2670.0 5.3092e-08
2690.0 6.2884e-08
2710.0 7.3336e-08
2730.0 8.3664e-08
2750.0 9.3837e-08
2770.0 1.0269e-07
2790.0 1.0971e-07
2810.0 1.1529e-07
2830.0 1.1965e-07
2850.0 1.2262e-07
2870.0 1.248e-07
2890.0 1.2653e-07
2910.0 1.2791e-07
2930.0 1.2904e-07
2950.0 1.3011e-07
2970.0 1.3116e-07
2990.0 1.3215e-07
3010.0 3.7353e-06
3030.0 3.7633e-06
3050.0 3.7902e-06
3070.0 3.8134e-06
3090.0 3.8332e-06
3110.0 3.8456e-06
3130.0 3.8451e-06
3150.0 3.828e-06
3170.0 3.787e-06
3190.0 3.7226e-06
3210.0 3.641e-06
3230.0 3.5475e-06
3250.0 3.4552e-06
3270.0 3.3878e-06
3290.0 3.3504e-06
3310.0 3.3565e-06
3330.0 3.405e-06
3350.0 3.4896e-06
3370.0 3.6104e-06
3390.0 3.7626e-06
3410.0 3.9283e-06
3430.0 4.1143e-06
3450.0 4.3284e-06
3470.0 4.5622e-06
3490.0 4.81e-06
3510.0 5.09e-06
3530.0 5.3899e-06
3550.0 5.6936e-06
3570.0 6.0103e-06
3590.0 6.3548e-06
3610.0 6.7098e-06
3630.0 7.0637e-06
3650.0 7.4308e-06
3670.0 7.7659e-06
3690.0 8.0165e-06
3710.0 8.1601e-06
3730.0 8.1648e-06
3750.0 8.0512e-06
3770.0 8.0066e-06
3790.0 7.959e-06
3810.0 7.7634e-06
3830.0 8.0037e-06
3850.0 8.9491e-06
3870.0 9.468e-06
3890.0 9.4248e-06
3910.0 9.465e-06
3930.0 9.7142e-06
3950.0 9.8676e-06
3970.0 8.9902e-06
3990.0 7.7357e-06
4010.0 2.3185e-05
4030.0 2.8092e-05
4050.0 3.2206e-05
4070.0 2.7944e-05
4090.0 2.5309e-05
4110.0 2.2332e-05
4130.0 2.0555e-05
4150.0 2.1864e-05
4170.0 2.1537e-05
4190.0 2.2957e-05
4210.0 2.2747e-05
4230.0 2.406e-05
4250.0 2.8464e-05
4270.0 2.8798e-05
4290.0 2.6537e-05
4310.0 2.7574e-05
4330.0 2.933e-05
4350.0 3.2887e-05
4370.0 3.7426e-05
4390.0 3.512e-05
4410.0 2.5948e-05
4430.0 2.1966e-05
4450.0 2.0184e-05
4470.0 1.5492e-05
4490.0 1.6718e-05
4510.0 2.5253e-05
4530.0 2.9124e-05
4550.0 2.9377e-05
4570.0 3.3057e-05
4590.0 3.7655e-05
4610.0 5.0787e-05
4630.0 6.5962e-05
4650.0 7.1535e-05
4670.0 6.6248e-05
4690.0 6.3212e-05
4710.0 6.682e-05
4730.0 6.3059e-05
4750.0 4.7145e-05
4770.0 3.4583e-05
4790.0 3.2293e-05
4810.0 3.0781e-05
4830.0 2.8179e-05
4850.0 3.0922e-05
4870.0 4.0851e-05
4890.0 4.8175e-05
4910.0 4.2267e-05
4930.0 3.7401e-05
4950.0 4.109e-05
4970.0 5.2695e-05
4990.0 7.1415e-05
5010.0 8.2154e-05
5030.0 7.244e-05
5050.0 4.9011e-05
5070.0 3.23e-05
5090.0 2.6045e-05
5110.0 2.6785e-05
5130.0 3.0914e-05
5150.0 3.3493e-05
5170.0 3.299e-05
5190.0 3.0827e-05
5210.0 3.2222e-05
5230.0 3.3872e-05
5250.0 3.6505e-05
5270.0 3.9386e-05
5290.0 4.3649e-05
5310.0 5.0806e-05
5330.0 5.6223e-05
5350.0 5.5865e-05
5370.0 5.8681e-05
5390.0 6.7337e-05
5410.0 6.7277e-05
5430.0 5.9497e-05
5450.0 5.4664e-05
5470.0 5.8044e-05
5490.0 7.0914e-05
5510.0 8.8667e-05
5530.0 0.0001017
5550.0 9.8292e-05
5570.0 8.9355e-05
5590.0 7.7695e-05
5610.0 7.1653e-05
5630.0 6.9481e-05
5650.0 6.6174e-05
5670.0 6.2705e-05
5690.0 5.6059e-05
5710.0 5.4658e-05
5730.0 5.0349e-05
5750.0 3.5499e-05
5770.0 2.7695e-05
5790.0 3.1385e-05
5810.0 3.5439e-05
5830.0 4.3488e-05
5850.0 5.1768e-05
5870.0 5.7438e-05
5890.0 5.8411e-05
5910.0 5.7306e-05
5930.0 5.4548e-05
5950.0 5.5584e-05
5970.0 6.336e-05
5990.0 5.9575e-05
6010.0 4.9942e-05
6030.0 4.2193e-05
6050.0 3.6745e-05
6070.0 3.6544e-05
6090.0 3.9626e-05
6110.0 4.4309e-05
6130.0 4.4987e-05
6150.0 3.8708e-05
6170.0 3.4051e-05
6190.0 3.8319e-05
6210.0 5.0657e-05
6230.0 6.6477e-05
6250.0 7.2004e-05
6270.0 6.2922e-05
6290.0 5.2939e-05
6310.0 4.1328e-05
6330.0 3.1665e-05
6350.0 2.8245e-05
6370.0 2.9702e-05
6390.0 3.4338e-05
6410.0 4.234e-05
6430.0 4.9441e-05
6450.0 5.6573e-05
6470.0 6.4778e-05
6490.0 7.8247e-05
6510.0 8.7491e-05
6530.0 8.5834e-05
6550.0 7.7617e-05
6570.0 6.5889e-05
6590.0 5.9414e-05
6610.0 5.123e-05
6630.0 4.6413e-05
6650.0 4.3873e-05
6670.0 4.2622e-05
6690.0 3.8511e-05
6710.0 3.5008e-05
6730.0 2.5215e-05
6750.0 2.4998e-05
6770.0 2.7171e-05
6790.0 3.1232e-05
6810.0 2.8577e-05
6830.0 2.9427e-05
6850.0 2.7524e-05
6870.0 2.5143e-05
6890.0 2.4141e-05
6910.0 2.5725e-05
6930.0 2.4095e-05
6950.0 2.479e-05
6970.0 2.6075e-05
6990.0 2.9597e-05
7010.0 2.9849e-05
7030.0 3.0323e-05
7050.0 2.8918e-05
7070.0 2.7554e-05
7090.0 2.7634e-05
7110.0 2.8434e-05
7130.0 3.0599e-05
7150.0 3.2499e-05
7170.0 3.586e-05
7190.0 3.942e-05
7210.0 3.8735e-05
7230.0 3.9821e-05
7250.0 4.2794e-05
7270.0 4.6635e-05
7290.0 5.5351e-05
7310.0 6.0061e-05
7330.0 5.8054e-05
7350.0 5.2506e-05
7370.0 4.5685e-05
7390.0 4.432e-05
7410.0 4.7099e-05
7430.0 5.2344e-05
7450.0 5.7012e-05
7470.0 5.6489e-05
7490.0 5.1507e-05
7510.0 5.8345e-05
7530.0 5.7706e-05
7550.0 5.1867e-05
7570.0 4.0518e-05
7590.0 2.7854e-05
7610.0 2.3908e-05
7630.0 2.7163e-05
7650.0 3.2117e-05
7670.0 3.9972e-05
7690.0 4.3986e-05
7710.0 4.5839e-05
7730.0 4.8171e-05
7750.0 5.4077e-05
7770.0 5.4927e-05
7790.0 5.0453e-05
7810.0 4.6036e-05
7830.0 4.7473e-05
7850.0 4.6148e-05
7870.0 4.231e-05
7890.0 3.5549e-05
7910.0 2.8896e-05
7930.0 2.7591e-05
7950.0 2.5137e-05
7970.0 2.3268e-05
7990.0 2.3136e-05
8010.0 1.7135e-06
8030.0 1.6912e-06
8050.0 1.6684e-06
8070.0 1.6902e-06
8090.0 1.8161e-06
8110.0 1.7852e-06
8130.0 1.4726e-06
8150.0 1.4341e-06
8170.0 1.2353e-06
8190.0 1.1707e-06
8210.0 1.5202e-06
8230.0 1.6926e-06
8250.0 1.5255e-06
8270.0 1.3277e-06
8290.0 1.2943e-06
8310.0 9.9615e-07
8330.0 6.714e-07
8350.0 4.7649e-07
8370.0 3.0021e-07
8390.0 5.4877e-07
8410.0 6.3947e-07
8430.0 7.8824e-07
8450.0 9.2561e-07
8470.0 1.1505e-06
8490.0 1.1424e-06
8510.0 1.1237e-06
8530.0 1.1727e-06
8550.0 1.5822e-06
8570.0 1.8731e-06
8590.0 2.0211e-06
8610.0 2.5531e-06
8630.0 3.0755e-06
8650.0 3.2174e-06
8670.0 3.4191e-06
8690.0 3.4382e-06
8710.0 3.1138e-06
8730.0 2.8963e-06
8750.0 2.5565e-06
8770.0 2.4258e-06
8790.0 2.3832e-06
8810.0 2.2836e-06
8830.0 1.8261e-06
8850.0 1.3368e-06
8870.0 1.0236e-06
8890.0 1.0007e-06
8910.0 1.1468e-06
8930.0 1.3045e-06
8950.0 1.3294e-06
8970.0 1.3357e-06
8990.0 1.1913e-06
9010.0 1.2484e-05
9030.0 1.1312e-05
9050.0 1.1367e-05
9070.0 1.1457e-05
9090.0 1.1535e-05
9110.0 1.1632e-05
9130.0 1.1707e-05
9150.0 1.1766e-05
9170.0 1.1828e-05
9190.0 1.1894e-05
9210.0 1.1964e-05
9230.0 1.2038e-05
9250.0 1.2113e-05
9270.0 1.219e-05
9290.0 1.2271e-05
9310.0 1.2351e-05
9330.0 1.2433e-05
9350.0 1.2519e-05
9370.0 1.2605e-05
9390.0 1.2692e-05
9410.0 1.2781e-05
9430.0 1.2874e-05
9450.0 1.2966e-05
9470.0 1.3059e-05
9490.0 1.3156e-05
9510.0 1.3254e-05
9530.0 1.3352e-05
9550.0 1.3454e-05
9570.0 1.3557e-05
9590.0 1.366e-05
9610.0 1.3766e-05
9630.0 1.3874e-05
9650.0 1.3983e-05
9670.0 1.4093e-05
9690.0 1.4205e-05
9710.0 1.4319e-05
9730.0 1.4433e-05
9750.0 1.4549e-05
9770.0 1.4669e-05
9790.0 1.4788e-05
9810.0 1.4908e-05
9830.0 1.503e-05
9850.0 1.5154e-05
9870.0 1.5278e-05
9890.0 1.5403e-05
9910.0 1.5531e-05
9930.0 1.5659e-05
9950.0 1.5788e-05
9970.0 1.5919e-05
9990.0 1.6051e-05
10010.0 1.3928e-05
10030.0 1.4042e-05
10050.0 1.4159e-05
10070.0 1.428e-05
10090.0 1.4393e-05
10110.0 1.451e-05
10130.0 1.4627e-05
10150.0 1.4744e-05
10170.0 1.4862e-05
10190.0 1.4982e-05
10210.0 1.51e-05
10230.0 1.5219e-05
10250.0 1.5339e-05
10270.0 1.5459e-05
10290.0 1.5578e-05
10310.0 1.5698e-05
10330.0 1.5819e-05
10350.0 1.5938e-05
10370.0 1.6057e-05
10390.0 1.6178e-05
10410.0 1.6297e-05
10430.0 1.6415e-05
10450.0 1.6533e-05
10470.0 1.6652e-05
10490.0 1.6769e-05
10510.0 1.6885e-05
10530.0 1.7003e-05
10550.0 1.7119e-05
10570.0 1.7232e-05
10590.0 1.7347e-05
10610.0 1.7461e-05
10630.0 1.7572e-05
10650.0 1.7682e-05
10670.0 1.7794e-05
10690.0 1.7903e-05
10710.0 1.801e-05
10730.0 1.8117e-05
10750.0 1.8225e-05
10770.0 1.8328e-05
10790.0 1.843e-05
10810.0 1.8532e-05
10830.0 1.863e-05
10850.0 1.8724e-05
10870.0 1.8815e-05
10890.0 1.8895e-05
10910.0 1.8957e-05
10930.0 1.8992e-05
10950.0 1.8984e-05
10970.0 1.8919e-05
10990.0 1.8793e-05
11010.0 1.8582e-05
11030.0 1.8286e-05
11050.0 1.7926e-05
11070.0 1.7495e-05
11090.0 1.6978e-05
11110.0 1.6442e-05
11130.0 1.5884e-05
11150.0 1.5283e-05
11170.0 1.4663e-05
11190.0 1.4061e-05
11210.0 1.344e-05
11230.0 1.2804e-05
11250.0 1.2195e-05
11270.0 1.1611e-05
11290.0 1.1026e-05
11310.0 1.0471e-05
11330.0 9.9829e-06
11350.0 9.5215e-06
11370.0 9.0952e-06
11390.0 8.7264e-06
11410.0 8.4038e-06
11430.0 8.104e-06
11450.0 7.8457e-06
11470.0 7.6223e-06
11490.0 7.4145e-06
11510.0 7.2142e-06
11530.0 7.0284e-06
11550.0 6.8438e-06
11570.0 6.6468e-06
11590.0 6.4429e-06
11610.0 6.2353e-06
11630.0 6.0093e-06
11650.0 5.7674e-06
11670.0 5.529e-06
11690.0 5.2872e-06
11710.0 5.0378e-06
11730.0 4.7961e-06
11750.0 4.5725e-06
11770.0 4.3531e-06
11790.0 4.1475e-06
11810.0 3.9666e-06
11830.0 3.8047e-06
11850.0 3.6557e-06
11870.0 3.531e-06
11890.0 3.4273e-06
11910.0 3.3362e-06
11930.0 3.2579e-06
11950.0 3.1927e-06
11970.0 3.1345e-06
11990.0 3.0794e-06
12010.0 3.0285e-06
12030.0 2.9794e-06
12050.0 2.9286e-06
12070.0 2.8759e-06
12090.0 2.825e-06
12110.0 2.7733e-06
12130.0 2.7216e-06
12150.0 2.6738e-06
12170.0 2.6322e-06
12190.0 2.5962e-06
12210.0 2.571e-06
12230.0 2.5589e-06
12250.0 2.5608e-06
12270.0 2.5801e-06
12290.0 2.6166e-06
12310.0 2.669e-06
12330.0 2.7423e-06
12350.0 2.8337e-06
12370.0 2.9378e-06
12390.0 3.0578e-06
12410.0 3.1984e-06
12430.0 3.3414e-06
12450.0 3.4894e-06
12470.0 3.6468e-06
12490.0 3.8048e-06
12510.0 3.9531e-06
12530.0 4.1007e-06
12550.0 4.243e-06
12570.0 4.3686e-06
12590.0 4.4789e-06
12610.0 4.5772e-06
12630.0 4.6556e-06
12650.0 4.7096e-06
12670.0 4.7452e-06
12690.0 4.7594e-06
12710.0 4.7516e-06
12730.0 4.724e-06
12750.0 4.6749e-06
12770.0 4.6074e-06
12790.0 4.5257e-06
12810.0 4.428e-06
12830.0 4.315e-06
12850.0 4.1969e-06
12870.0 4.072e-06
12890.0 3.9368e-06
12910.0 3.7994e-06
12930.0 3.6639e-06
12950.0 3.5226e-06
12970.0 3.3787e-06
12990.0 3.2426e-06
13010.0 3.1082e-06
13030.0 2.9723e-06
13050.0 2.8418e-06
13070.0 2.7195e-06
13090.0 2.5968e-06
13110.0 2.4781e-06
13130.0 2.3686e-06
13150.0 2.265e-06
13170.0 2.1635e-06
13190.0 2.0732e-06
13210.0 1.9937e-06
13230.0 1.921e-06
13250.0 1.8585e-06
13270.0 1.8091e-06
13290.0 1.7707e-06
13310.0 1.7443e-06
13330.0 1.7322e-06
13350.0 1.7336e-06
13370.0 1.7492e-06
13390.0 1.7797e-06
13410.0 1.821e-06
13430.0 1.8747e-06
13450.0 1.941e-06
13470.0 2.0145e-06
13490.0 2.0925e-06
13510.0 2.1804e-06
13530.0 2.2695e-06
13550.0 2.3548e-06
13570.0 2.4389e-06
13590.0 2.5208e-06
13610.0 2.5937e-06
13630.0 2.6574e-06
13650.0 2.7155e-06
13670.0 2.7637e-06
13690.0 2.801e-06
13710.0 2.8299e-06
13730.0 2.8505e-06
13750.0 2.8608e-06
13770.0 2.8632e-06
13790.0 2.8579e-06
13810.0 2.8453e-06
13830.0 2.8267e-06
13850.0 2.8014e-06
13870.0 2.7696e-06
13890.0 2.7332e-06
13910.0 2.6921e-06
13930.0 2.6446e-06
13950.0 2.5927e-06
13970.0 2.5397e-06
13990.0 2.4819e-06
14010.0 2.4204e-06
14030.0 2.3592e-06
14050.0 2.2974e-06
14070.0 2.2322e-06
14090.0 2.1697e-06
14110.0 2.111e-06
14130.0 2.0541e-06
14150.0 2.0006e-06
14170.0 1.9549e-06
14190.0 1.9153e-06
14210.0 1.8818e-06
14230.0 1.857e-06
14250.0 1.8409e-06
14270.0 1.8331e-06
14290.0 1.8348e-06
14310.0 1.845e-06
14330.0 1.8634e-06
14350.0 1.8904e-06
14370.0 1.9241e-06
14390.0 1.9623e-06
14410.0 2.0073e-06
14430.0 2.0568e-06
14450.0 2.1073e-06
14470.0 2.1597e-06
14490.0 2.2154e-06
14510.0 2.2687e-06
14530.0 2.3193e-06
14550.0 2.3699e-06
14570.0 2.4185e-06
14590.0 2.4627e-06
14610.0 2.5055e-06
14630.0 2.5478e-06
14650.0 2.5872e-06
14670.0 2.6253e-06
14690.0 2.6649e-06
14710.0 2.7067e-06
14730.0 2.7484e-06
14750.0 2.7946e-06
14770.0 2.8471e-06
14790.0 2.9039e-06
14810.0 2.9655e-06
14830.0 3.0384e-06
14850.0 3.1178e-06
14870.0 3.2005e-06
14890.0 3.2898e-06
14910.0 3.3846e-06
14930.0 3.4758e-06
14950.0 3.561e-06
14970.0 3.6416e-06
14990.0 3.7093e-06
15010.0 3.761e-06
15030.0 3.7993e-06
15050.0 3.8246e-06
15070.0 3.837e-06
15090.0 3.8413e-06
15110.0 3.8401e-06
15130.0 3.8352e-06
15150.0 3.8288e-06
15170.0 3.8211e-06
15190.0 3.8129e-06
15210.0 3.8048e-06
15230.0 3.7967e-06
15250.0 3.7883e-06
15270.0 3.78e-06
15290.0 3.7721e-06
15310.0 3.7641e-06
15330.0 3.7559e-06
15350.0 3.7481e-06
15370.0 3.7403e-06
15390.0 3.7322e-06
15410.0 3.7243e-06
15430.0 3.7167e-06
15450.0 3.7088e-06
15470.0 3.7009e-06
15490.0 3.6933e-06
15510.0 3.6858e-06
15530.0 3.678e-06
15550.0 3.6704e-06
15570.0 3.6631e-06
15590.0 3.6554e-06
15610.0 3.6476e-06
15630.0 3.6403e-06
15650.0 3.6329e-06
15670.0 3.6253e-06
15690.0 3.6179e-06
15710.0 3.6107e-06
15730.0 3.6033e-06
15750.0 3.5958e-06
15770.0 3.5886e-06
15790.0 3.5814e-06
15810.0 3.5738e-06
15830.0 3.5665e-06
15850.0 3.5594e-06
15870.0 3.5521e-06
15890.0 3.5448e-06
15910.0 3.5378e-06
15930.0 3.5306e-06
15950.0 3.5232e-06
15970.0 3.516e-06
15990.0 3.509e-06
16010.0 3.5017e-06
16030.0 3.4943e-06
16050.0 3.4874e-06
16070.0 3.4803e-06
16090.0 3.473e-06
16110.0 3.4659e-06
16130.0 3.459e-06
16150.0 3.4516e-06
16170.0 3.4443e-06
16190.0 3.4374e-06
16210.0 3.4303e-06
16230.0 3.4229e-06
16250.0 3.4159e-06
16270.0 3.409e-06
16290.0 3.4017e-06
16310.0 3.3945e-06
16330.0 3.3875e-06
16350.0 3.3804e-06
16370.0 3.3728e-06
16390.0 3.3658e-06
16410.0 3.3588e-06
16430.0 3.3515e-06
16450.0 3.3442e-06
16470.0 3.3373e-06
16490.0 3.33e-06
16510.0 3.3226e-06
16530.0 3.3155e-06
16550.0 3.3084e-06
16570.0 3.3009e-06
16590.0 3.2936e-06
16610.0 3.2866e-06
16630.0 3.2793e-06
16650.0 3.2718e-06
16670.0 3.2647e-06
16690.0 3.2575e-06
16710.0 3.2499e-06
16730.0 3.2425e-06
16750.0 3.2353e-06
16770.0 3.2279e-06
16790.0 3.2203e-06
16810.0 3.213e-06
16830.0 3.2057e-06
16850.0 3.1981e-06
16870.0 3.1907e-06
16890.0 3.1834e-06
16910.0 3.1758e-06
16930.0 3.168e-06
16950.0 3.1607e-06
16970.0 3.1532e-06
16990.0 3.1455e-06
17010.0 3.1379e-06
17030.0 3.1305e-06
17050.0 3.1228e-06
17070.0 3.115e-06
17090.0 3.1075e-06
17110.0 3.0999e-06
17130.0 3.0919e-06
17150.0 3.0842e-06
17170.0 3.0767e-06
17190.0 3.0688e-06
17210.0 3.0609e-06
17230.0 3.0534e-06
17250.0 3.0456e-06
17270.0 3.0375e-06
17290.0 3.0297e-06
17310.0 3.0219e-06
17330.0 3.0139e-06
17350.0 3.0058e-06
17370.0 2.9981e-06
17390.0 2.9902e-06
17410.0 2.982e-06
17430.0 2.9741e-06
17450.0 2.9663e-06
17470.0 2.958e-06
17490.0 2.9498e-06
17510.0 2.9419e-06
17530.0 2.9338e-06
17550.0 2.9255e-06
17570.0 2.9175e-06
17590.0 2.9096e-06
17610.0 2.9012e-06
17630.0 2.893e-06
17650.0 2.8849e-06
17670.0 2.8767e-06
17690.0 2.8681e-06
17710.0 2.86e-06
17730.0 2.8518e-06
17750.0 2.8434e-06
17770.0 2.835e-06
17790.0 2.827e-06
17810.0 2.8185e-06
17830.0 2.8099e-06
17850.0 2.8017e-06
17870.0 2.7934e-06
17890.0 2.7847e-06
17910.0 2.7762e-06
17930.0 2.768e-06
17950.0 2.7595e-06
17970.0 2.7508e-06
17990.0 2.7425e-06
18010.0 2.7341e-06
18030.0 2.7253e-06
18050.0 2.7167e-06
18070.0 2.7083e-06
18090.0 2.6997e-06
18110.0 2.6909e-06
18130.0 2.6825e-06
18150.0 2.674e-06
18170.0 2.6652e-06
18190.0 2.6565e-06
18210.0 2.6481e-06
18230.0 2.6393e-06
18250.0 2.6303e-06
18270.0 2.6218e-06
18290.0 2.6132e-06
18310.0 2.6043e-06
18330.0 2.5956e-06
18350.0 2.5871e-06
18370.0 2.5782e-06
18390.0 2.5694e-06
18410.0 2.5608e-06
18430.0 2.552e-06
18450.0 2.5429e-06
18470.0 2.5342e-06
18490.0 2.5256e-06
18510.0 2.5167e-06
18530.0 2.5078e-06
18550.0 2.4992e-06
18570.0 2.4903e-06
18590.0 2.4812e-06
18610.0 2.4724e-06
18630.0 2.4637e-06
18650.0 2.4547e-06
18670.0 2.4457e-06
18690.0 2.4371e-06
18710.0 2.4282e-06
18730.0 2.4192e-06
18750.0 2.4104e-06
18770.0 2.4017e-06
18790.0 2.3925e-06
18810.0 2.3835e-06
18830.0 2.3747e-06
18850.0 2.3658e-06
18870.0 2.3567e-06
18890.0 2.3479e-06
18910.0 2.3392e-06
18930.0 2.3301e-06
18950.0 2.3211e-06
18970.0 2.3124e-06
18990.0 2.3034e-06
19010.0 2.2941e-06
19030.0 2.2854e-06
19050.0 2.2765e-06
19070.0 2.2674e-06
19090.0 2.2585e-06
19110.0 2.2498e-06
19130.0 2.2407e-06
19150.0 2.2316e-06
19170.0 2.2228e-06
19190.0 2.214e-06
19210.0 2.2048e-06
19230.0 2.1958e-06
19250.0 2.1871e-06
19270.0 2.1781e-06
19290.0 2.169e-06
19310.0 2.1603e-06
19330.0 2.1514e-06
19350.0 2.1422e-06
19370.0 2.1333e-06
19390.0 2.1245e-06
19410.0 2.1155e-06
19430.0 2.1064e-06
19450.0 2.0977e-06
19470.0 2.0888e-06
19490.0 2.0797e-06
19510.0 2.0708e-06
19530.0 2.0621e-06
19550.0 2.053e-06
19570.0 2.0439e-06
19590.0 2.0352e-06
19610.0 2.0264e-06
19630.0 2.0173e-06
19650.0 2.0085e-06
19670.0 1.9998e-06
19690.0 1.9907e-06
19710.0 1.9817e-06
19730.0 1.973e-06
19750.0 1.9642e-06
19770.0 1.955e-06
19790.0 1.9462e-06
19810.0 1.9375e-06
19830.0 1.9285e-06
19850.0 1.9195e-06
19870.0 1.9106e-06
19890.0 1.901e-06
19910.0 1.8906e-06
19930.0 1.8793e-06
19950.0 1.8665e-06
19970.0 1.8507e-06
19990.0 1.8317e-06
20010.0 1.6297e-06
20030.0 1.6061e-06
20050.0 1.5785e-06
20070.0 1.5486e-06
20090.0 1.5164e-06
20110.0 1.48e-06
20130.0 1.4431e-06
20150.0 1.4066e-06
20170.0 1.3688e-06
20190.0 1.3304e-06
20210.0 1.2941e-06
20230.0 1.2587e-06
20250.0 1.2233e-06
20270.0 1.1904e-06
20290.0 1.1603e-06
20310.0 1.1318e-06
20330.0 1.1051e-06
20350.0 1.083e-06
20370.0 1.0633e-06
20390.0 1.0461e-06
20410.0 1.0322e-06
20430.0 1.0214e-06
20450.0 1.0129e-06
20470.0 1.0072e-06
20490.0 1.0042e-06
20510.0 1.0033e-06
20530.0 1.0045e-06
20550.0 1.0076e-06
20570.0 1.0122e-06
20590.0 1.0183e-06
20610.0 1.0257e-06
20630.0 1.0338e-06
20650.0 1.0429e-06
20670.0 1.0533e-06
20690.0 1.064e-06
20710.0 1.075e-06
20730.0 1.0868e-06
20750.0 1.0992e-06
20770.0 1.1113e-06
20790.0 1.1241e-06
20810.0 1.1376e-06
20830.0 1.1511e-06
20850.0 1.1646e-06
20870.0 1.179e-06
20890.0 1.1938e-06
20910.0 1.208e-06
20930.0 1.2227e-06
20950.0 1.238e-06
20970.0 1.2529e-06
20990.0 1.2676e-06
21010.0 1.2831e-06
21030.0 1.2982e-06
21050.0 1.3127e-06
21070.0 1.3271e-06
21090.0 1.3415e-06
21110.0 1.3547e-06
21130.0 1.3671e-06
21150.0 1.3791e-06
21170.0 1.3899e-06
21190.0 1.3993e-06
21210.0 1.4077e-06
21230.0 1.4147e-06
21250.0 1.4197e-06
21270.0 1.4228e-06
21290.0 1.424e-06
21310.0 1.4229e-06
21330.0 1.4195e-06
21350.0 1.4136e-06
21370.0 1.405e-06
21390.0 1.394e-06
21410.0 1.3805e-06
21430.0 1.3634e-06
21450.0 1.3443e-06
21470.0 1.3234e-06
21490.0 1.2998e-06
21510.0 1.2739e-06
21530.0 1.2477e-06
21550.0 1.2201e-06
21570.0 1.1907e-06
21590.0 1.1619e-06
21610.0 1.1339e-06
21630.0 1.106e-06
21650.0 1.0787e-06
21670.0 1.055e-06
21690.0 1.0332e-06
21710.0 1.0136e-06
21730.0 9.9745e-07
21750.0 9.8503e-07
21770.0 9.7557e-07
21790.0 9.7013e-07
21810.0 9.6862e-07
21830.0 9.7077e-07
21850.0 9.7684e-07
21870.0 9.863e-07
21890.0 9.9852e-07
21910.0 1.0142e-06
21930.0 1.0326e-06
21950.0 1.0525e-06
21970.0 1.0746e-06
21990.0 1.0994e-06
22010.0 1.1241e-06
22030.0 1.1493e-06
22050.0 1.1757e-06
22070.0 1.2022e-06
22090.0 1.2274e-06
22110.0 1.2527e-06
22130.0 1.278e-06
22150.0 1.3016e-06
22170.0 1.3239e-06
22190.0 1.346e-06
22210.0 1.3665e-06
22230.0 1.3846e-06
22250.0 1.4017e-06
22270.0 1.4173e-06
22290.0 1.4307e-06
22310.0 1.4422e-06
22330.0 1.4524e-06
22350.0 1.4602e-06
22370.0 1.4657e-06
22390.0 1.4692e-06
22410.0 1.4703e-06
22430.0 1.4689e-06
22450.0 1.4651e-06
22470.0 1.4585e-06
22490.0 1.4493e-06
22510.0 1.4379e-06
22530.0 1.4233e-06
22550.0 1.4054e-06
22570.0 1.3857e-06
22590.0 1.3634e-06
22610.0 1.3378e-06
22630.0 1.31e-06
