#lamb flux
1010.0 5.1307e-08
1030.0 5.6822e-08
1050.0 6.3166e-08
1070.0 7.0307e-08
1090.0 7.8419e-08
1110.0 8.6738e-08
1130.0 9.5111e-08
1150.0 1.0388e-07
1170.0 1.1293e-07
1190.0 1.2151e-07
1210.0 1.302e-07
1230.0 1.3919e-07
1250.0 1.4799e-07
1270.0 1.5654e-07
1290.0 1.6557e-07
1310.0 1.746e-07
1330.0 1.8326e-07
1350.0 1.9201e-07
1370.0 2.0105e-07
1390.0 2.0985e-07
1410.0 2.184e-07
1430.0 2.2734e-07
1450.0 2.3627e-07
1470.0 2.449e-07
1490.0 2.5362e-07
1510.0 2.6284e-07
1530.0 2.7156e-07
1550.0 2.8017e-07
1570.0 2.8907e-07
1590.0 2.9797e-07
1610.0 3.0648e-07
1630.0 3.1524e-07
1650.0 3.2422e-07
1670.0 3.329e-07
1690.0 3.4146e-07
1710.0 3.5034e-07
1730.0 3.5925e-07
1750.0 3.6762e-07
1770.0 3.7621e-07
1790.0 3.8495e-07
1810.0 3.9339e-07
1830.0 4.0164e-07
1850.0 4.1037e-07
1870.0 4.1884e-07
1890.0 4.2696e-07
1910.0 4.3519e-07
1930.0 4.4358e-07
1950.0 4.5149e-07
1970.0 4.5922e-07
1990.0 4.6718e-07
2010.0 4.749e-07
2030.0 4.8219e-07
2050.0 4.8963e-07
2070.0 4.9714e-07
2090.0 5.04e-07
2110.0 5.1068e-07
2130.0 5.1743e-07
2150.0 5.2383e-07
2170.0 5.2967e-07
2190.0 5.3559e-07
2210.0 5.4132e-07
2230.0 5.4647e-07
2250.0 5.5132e-07
2270.0 5.5625e-07
2290.0 5.6063e-07
2310.0 5.6439e-07
2330.0 5.6812e-07
2350.0 5.7168e-07
2370.0 5.7477e-07
2390.0 5.78e-07
2410.0 5.8205e-07
2430.0 5.8669e-07
2450.0 5.9244e-07
2470.0 6.0053e-07
2490.0 6.1143e-07
2510.0 6.241e-07
2530.0 6.4051e-07
2550.0 6.632e-07
2570.0 6.9405e-07
2590.0 7.3705e-07
2610.0 8.0495e-07
2630.0 9.0256e-07
2650.0 1.0274e-06
2670.0 1.1841e-06
2690.0 1.3694e-06
2710.0 1.5571e-06
2730.0 1.732e-06
2750.0 1.894e-06
2770.0 2.0231e-06
2790.0 2.1134e-06
2810.0 2.174e-06
2830.0 2.211e-06
2850.0 2.2237e-06
2870.0 2.2231e-06
2890.0 2.2152e-06
2910.0 2.2021e-06
2930.0 2.1856e-06
2950.0 2.1688e-06
2970.0 2.1522e-06
2990.0 2.1353e-06
3010.0 6.4125e-05
3030.0 6.3662e-05
3050.0 6.3207e-05
3070.0 6.2721e-05
3090.0 6.221e-05
3110.0 6.161e-05
3130.0 6.0849e-05
3150.0 5.9876e-05
3170.0 5.8585e-05
3190.0 5.7002e-05
3210.0 5.5228e-05
3230.0 5.3339e-05
3250.0 5.1466e-05
3270.0 5.0073e-05
3290.0 4.9063e-05
3310.0 4.8858e-05
3330.0 4.9229e-05
3350.0 5.0144e-05
3370.0 5.1603e-05
3390.0 5.3536e-05
3410.0 5.5699e-05
3430.0 5.8176e-05
3450.0 6.1067e-05
3470.0 6.4259e-05
3490.0 6.7689e-05
3510.0 7.1595e-05
3530.0 7.5861e-05
3550.0 8.042e-05
3570.0 8.5453e-05
3590.0 9.1128e-05
3610.0 9.7451e-05
3630.0 0.00010385
3650.0 0.00011066
3670.0 0.00011686
3690.0 0.00012154
3710.0 0.00012395
3730.0 0.00012277
3750.0 0.00011793
3770.0 0.0001181
3790.0 0.00011289
3810.0 8.7693e-05
3830.0 8.088e-05
3850.0 0.00010791
3870.0 9.4441e-05
3890.0 7.7311e-05
3910.0 9.0414e-05
3930.0 0.00011902
3950.0 0.00013583
3970.0 0.00015768
3990.0 0.00012638
4010.0 0.00019563
4030.0 0.00017971
4050.0 0.00016912
4070.0 0.00019242
4090.0 0.00018476
4110.0 0.00018365
4130.0 0.0002264
4150.0 0.00028803
4170.0 0.00023612
4190.0 0.00021102
4210.0 0.00023288
4230.0 0.00028813
4250.0 0.00033558
4270.0 0.00036209
4290.0 0.00033228
4310.0 0.00030946
4330.0 0.00031405
4350.0 0.00039914
4370.0 0.00047976
4390.0 0.00039119
4410.0 0.00023864
4430.0 0.00017627
4450.0 0.00015902
4470.0 0.00012023
4490.0 0.00018189
4510.0 0.00032627
4530.0 0.00039123
4550.0 0.0003886
4570.0 0.00036904
4590.0 0.00040891
4610.0 0.00073898
4630.0 0.0010092
4650.0 0.00095666
4670.0 0.0008524
4690.0 0.00089669
4710.0 0.00094673
4730.0 0.00076518
4750.0 0.00049366
4770.0 0.00035707
4790.0 0.00039115
4810.0 0.00039945
4830.0 0.00039266
4850.0 0.00043238
4870.0 0.00057173
4890.0 0.00066478
4910.0 0.00051769
4930.0 0.00049018
4950.0 0.0005622
4970.0 0.00075856
4990.0 0.0010176
5010.0 0.0011545
5030.0 0.00091622
5050.0 0.00055216
5070.0 0.00039207
5090.0 0.00031184
5110.0 0.00029903
5130.0 0.00034726
5150.0 0.00033795
5170.0 0.00032201
5190.0 0.00029462
5210.0 0.00031288
5230.0 0.00037742
5250.0 0.00043517
5270.0 0.00041771
5290.0 0.00046077
5310.0 0.00059763
5330.0 0.00062602
5350.0 0.00061755
5370.0 0.00069652
5390.0 0.00085047
5410.0 0.00073633
5430.0 0.00056507
5450.0 0.00056086
5470.0 0.00065598
5490.0 0.00083484
5510.0 0.0010348
5530.0 0.0011915
5550.0 0.0010824
5570.0 0.00096665
5590.0 0.0008035
5610.0 0.00080639
5630.0 0.00088335
5650.0 0.00083639
5670.0 0.0007797
5690.0 0.00064383
5710.0 0.0006522
5730.0 0.00063108
5750.0 0.00034878
5770.0 0.00026401
5790.0 0.00032301
5810.0 0.00035827
5830.0 0.00052185
5850.0 0.00065873
5870.0 0.00069437
5890.0 0.00065639
5910.0 0.00063308
5930.0 0.00061897
5950.0 0.00064342
5970.0 0.00078077
5990.0 0.0006538
6010.0 0.00050736
6030.0 0.00041258
6050.0 0.00036516
6070.0 0.00042642
6090.0 0.00048624
6110.0 0.0005013
6130.0 0.00045819
6150.0 0.00037058
6170.0 0.00032215
6190.0 0.00040128
6210.0 0.00059666
6230.0 0.00083124
6250.0 0.00087337
6270.0 0.00068387
6290.0 0.00058021
6310.0 0.00044604
6330.0 0.00033068
6350.0 0.00031915
6370.0 0.00033663
6390.0 0.00040697
6410.0 0.00051267
6430.0 0.0006144
6450.0 0.00075268
6470.0 0.00081817
6490.0 0.00099255
6510.0 0.0011142
6530.0 0.0011056
6550.0 0.0010174
6570.0 0.00086213
6590.0 0.00083556
6610.0 0.00070074
6630.0 0.00070908
6650.0 0.00067571
6670.0 0.00061723
6690.0 0.00051311
6710.0 0.00048851
6730.0 0.0002792
6750.0 0.00031895
6770.0 0.00043686
6790.0 0.00056425
6810.0 0.00043639
6830.0 0.00044693
6850.0 0.00039094
6870.0 0.00037169
6890.0 0.00032814
6910.0 0.00036868
6930.0 0.00034498
6950.0 0.00040017
6970.0 0.00040716
6990.0 0.00045185
7010.0 0.00045392
7030.0 0.00048601
7050.0 0.00042673
7070.0 0.00037311
7090.0 0.00038255
7110.0 0.00038794
7130.0 0.00043325
7150.0 0.0004886
7170.0 0.00054071
7190.0 0.00056222
7210.0 0.00050351
7230.0 0.00050969
7250.0 0.00055911
7270.0 0.00062049
7290.0 0.00073779
7310.0 0.00075366
7330.0 0.00068446
7350.0 0.00060989
7370.0 0.00047187
7390.0 0.00049207
7410.0 0.00059342
7430.0 0.00066899
7450.0 0.00071998
7470.0 0.00068985
7490.0 0.00062434
7510.0 0.00091786
7530.0 0.00082461
7550.0 0.00074736
7570.0 0.00051519
7590.0 0.00025492
7610.0 0.00019316
7630.0 0.00026373
7650.0 0.00034033
7670.0 0.00050679
7690.0 0.00057183
7710.0 0.00053168
7730.0 0.00052525
7750.0 0.00065462
7770.0 0.0006655
7790.0 0.00061753
7810.0 0.0005265
7830.0 0.0005536
7850.0 0.00058177
7870.0 0.00056217
7890.0 0.00045244
7910.0 0.00031681
7930.0 0.00031188
7950.0 0.00028023
7970.0 0.00024396
7990.0 0.00022685
8010.0 0.00021078
8030.0 0.00020187
8050.0 0.00021177
8070.0 0.00022277
8090.0 0.00025112
8110.0 0.00023519
8130.0 0.00016707
8150.0 0.00016299
8170.0 0.00011946
8190.0 9.9182e-05
8210.0 0.00015053
8230.0 0.0001716
8250.0 0.00011013
8270.0 9.4224e-05
8290.0 0.00010914
8310.0 8.466e-05
8330.0 5.2884e-05
8350.0 4.1193e-05
8370.0 2.3249e-05
8390.0 4.6379e-05
8410.0 5.639e-05
8430.0 7.0051e-05
8450.0 7.8324e-05
8470.0 0.0001099
8490.0 9.5854e-05
8510.0 8.3115e-05
8530.0 6.2175e-05
8550.0 0.00012507
8570.0 0.00017969
8590.0 0.00015248
8610.0 0.00020817
8630.0 0.00023178
8650.0 0.00017305
8670.0 0.00020924
8690.0 0.00026921
8710.0 0.00024012
8730.0 0.00024763
8750.0 0.00020742
8770.0 0.00019083
8790.0 0.00020306
8810.0 0.00020928
8830.0 0.0001383
8850.0 8.6431e-05
8870.0 6.7682e-05
8890.0 0.00010112
8910.0 0.00013799
8930.0 0.00016947
8950.0 0.00019228
8970.0 0.00018894
8990.0 0.00015727
9010.0 0.00011927
9030.0 0.0001033
9050.0 0.00010639
9070.0 0.00010926
9090.0 0.00011151
9110.0 0.00011408
9130.0 0.00011598
9150.0 0.00011739
9170.0 0.0001189
9190.0 0.00012052
9210.0 0.00012221
9230.0 0.000124
9250.0 0.00012583
9270.0 0.00012772
9290.0 0.00012967
9310.0 0.00013164
9330.0 0.00013365
9350.0 0.00013572
9370.0 0.00013782
9390.0 0.00013995
9410.0 0.00014213
9430.0 0.00014437
9450.0 0.00014662
9470.0 0.00014891
9490.0 0.00015126
9510.0 0.00015364
9530.0 0.00015604
9550.0 0.00015852
9570.0 0.00016103
9590.0 0.00016356
9610.0 0.00016613
9630.0 0.00016877
9650.0 0.00017143
9670.0 0.0001741
9690.0 0.00017684
9710.0 0.00017962
9730.0 0.00018241
9750.0 0.00018524
9770.0 0.00018814
9790.0 0.00019105
9810.0 0.00019398
9830.0 0.00019696
9850.0 0.00019997
9870.0 0.00020299
9890.0 0.00020604
9910.0 0.00020915
9930.0 0.00021226
9950.0 0.00021539
9970.0 0.00021856
9990.0 0.00022176
10010.0 0.00020506
10030.0 0.00020794
10050.0 0.00021084
10070.0 0.00021372
10090.0 0.00021664
10110.0 0.0002196
10130.0 0.00022255
10150.0 0.00022549
10170.0 0.00022845
10190.0 0.00023142
10210.0 0.00023437
10230.0 0.00023732
10250.0 0.00024028
10270.0 0.00024323
10290.0 0.00024616
10310.0 0.00024909
10330.0 0.00025203
10350.0 0.00025493
10370.0 0.00025782
10390.0 0.0002607
10410.0 0.00026356
10430.0 0.00026638
10450.0 0.00026919
10470.0 0.00027199
10490.0 0.00027474
10510.0 0.00027746
10530.0 0.00028017
10550.0 0.00028284
10570.0 0.00028545
10590.0 0.00028804
10610.0 0.0002906
10630.0 0.0002931
10650.0 0.00029555
10670.0 0.00029799
10690.0 0.00030036
10710.0 0.00030267
10730.0 0.00030495
10750.0 0.00030719
10770.0 0.00030934
10790.0 0.00031144
10810.0 0.0003135
10830.0 0.00031547
10850.0 0.00031735
10870.0 0.00031911
10890.0 0.00032067
10910.0 0.00032191
10930.0 0.00032267
10950.0 0.00032268
10970.0 0.00032175
10990.0 0.00031978
11010.0 0.00032451
11030.0 0.00031963
11050.0 0.00031358
11070.0 0.00030626
11090.0 0.00029739
11110.0 0.00028818
11130.0 0.00027855
11150.0 0.00026817
11170.0 0.0002575
11190.0 0.00024719
11210.0 0.00023661
11230.0 0.00022584
11250.0 0.00021565
11270.0 0.00020595
11290.0 0.00019632
11310.0 0.00018728
11330.0 0.00017937
11350.0 0.00017192
11370.0 0.00016505
11390.0 0.00015908
11410.0 0.0001538
11430.0 0.00014883
11450.0 0.00014445
11470.0 0.00014054
11490.0 0.00013678
11510.0 0.00013306
11530.0 0.0001295
11550.0 0.0001259
11570.0 0.00012204
11590.0 0.00011805
11610.0 0.000114
11630.0 0.00010965
11650.0 0.00010505
11670.0 0.00010055
11690.0 9.6042e-05
11710.0 9.1439e-05
11730.0 8.7009e-05
11750.0 8.2919e-05
11770.0 7.8926e-05
11790.0 7.5186e-05
11810.0 7.1874e-05
11830.0 6.8889e-05
11850.0 6.6114e-05
11870.0 6.3742e-05
11890.0 6.1713e-05
11910.0 5.9877e-05
11930.0 5.8236e-05
11950.0 5.68e-05
11970.0 5.5461e-05
11990.0 5.4148e-05
12010.0 5.2891e-05
12030.0 5.1653e-05
12050.0 5.0368e-05
12070.0 4.9029e-05
12090.0 4.7728e-05
12110.0 4.6402e-05
12130.0 4.5056e-05
12150.0 4.3774e-05
12170.0 4.2592e-05
12190.0 4.147e-05
12210.0 4.0512e-05
12230.0 3.9762e-05
12250.0 3.9215e-05
12270.0 3.8909e-05
12290.0 3.8863e-05
12310.0 3.9057e-05
12330.0 3.953e-05
12350.0 4.0258e-05
12370.0 4.1172e-05
12390.0 4.2298e-05
12410.0 4.3684e-05
12430.0 4.5111e-05
12450.0 4.66e-05
12470.0 4.8198e-05
12490.0 4.9795e-05
12510.0 5.1268e-05
12530.0 5.2719e-05
12550.0 5.4094e-05
12570.0 5.5264e-05
12590.0 5.6246e-05
12610.0 5.7082e-05
12630.0 5.7687e-05
12650.0 5.8018e-05
12670.0 5.8147e-05
12690.0 5.8047e-05
12710.0 5.7714e-05
12730.0 5.7178e-05
12750.0 5.6427e-05
12770.0 5.5496e-05
12790.0 5.4426e-05
12810.0 5.3205e-05
12830.0 5.1839e-05
12850.0 5.0428e-05
12870.0 4.8957e-05
12890.0 4.7389e-05
12910.0 4.5802e-05
12930.0 4.4237e-05
12950.0 4.2611e-05
12970.0 4.0956e-05
12990.0 3.9374e-05
13010.0 3.7803e-05
13030.0 3.6207e-05
13050.0 3.4657e-05
13070.0 3.3185e-05
13090.0 3.1698e-05
13110.0 3.0245e-05
13130.0 2.8887e-05
13150.0 2.7586e-05
13170.0 2.6304e-05
13190.0 2.5145e-05
13210.0 2.4108e-05
13230.0 2.3148e-05
13250.0 2.2301e-05
13270.0 2.1607e-05
13290.0 2.1036e-05
13310.0 2.0596e-05
13330.0 2.0316e-05
13350.0 2.0184e-05
13370.0 2.0202e-05
13390.0 2.0376e-05
13410.0 2.0666e-05
13430.0 2.1083e-05
13450.0 2.163e-05
13470.0 2.2254e-05
13490.0 2.2927e-05
13510.0 2.3704e-05
13530.0 2.4501e-05
13550.0 2.527e-05
13570.0 2.6037e-05
13590.0 2.6794e-05
13610.0 2.7472e-05
13630.0 2.8066e-05
13650.0 2.8614e-05
13670.0 2.907e-05
13690.0 2.9419e-05
13710.0 2.9687e-05
13730.0 2.9875e-05
13750.0 2.9956e-05
13770.0 2.9955e-05
13790.0 2.9878e-05
13810.0 2.9725e-05
13830.0 2.9511e-05
13850.0 2.9233e-05
13870.0 2.8893e-05
13890.0 2.8512e-05
13910.0 2.809e-05
13930.0 2.7614e-05
13950.0 2.7104e-05
13970.0 2.659e-05
13990.0 2.6041e-05
14010.0 2.5467e-05
14030.0 2.4902e-05
14050.0 2.4341e-05
14070.0 2.3757e-05
14090.0 2.3204e-05
14110.0 2.2688e-05
14130.0 2.2192e-05
14150.0 2.1728e-05
14170.0 2.1333e-05
14190.0 2.0992e-05
14210.0 2.0702e-05
14230.0 2.0485e-05
14250.0 2.0342e-05
14270.0 2.0268e-05
14290.0 2.0273e-05
14310.0 2.0351e-05
14330.0 2.0498e-05
14350.0 2.072e-05
14370.0 2.1002e-05
14390.0 2.1327e-05
14410.0 2.1717e-05
14430.0 2.2153e-05
14450.0 2.2608e-05
14470.0 2.3091e-05
14490.0 2.362e-05
14510.0 2.4144e-05
14530.0 2.466e-05
14550.0 2.5199e-05
14570.0 2.5743e-05
14590.0 2.6268e-05
14610.0 2.6804e-05
14630.0 2.7369e-05
14650.0 2.7927e-05
14670.0 2.8494e-05
14690.0 2.9106e-05
14710.0 2.9762e-05
14730.0 3.0422e-05
14750.0 3.1143e-05
14770.0 3.1939e-05
14790.0 3.2773e-05
14810.0 3.3646e-05
14830.0 3.4634e-05
14850.0 3.5665e-05
14870.0 3.6702e-05
14890.0 3.7781e-05
14910.0 3.8891e-05
14930.0 3.9932e-05
14950.0 4.0886e-05
14970.0 4.1776e-05
14990.0 4.2516e-05
15010.0 4.3085e-05
15030.0 4.3512e-05
15050.0 4.3805e-05
15070.0 4.3969e-05
15090.0 4.4052e-05
15110.0 4.408e-05
15130.0 4.4073e-05
15150.0 4.4051e-05
15170.0 4.4018e-05
15190.0 4.3979e-05
15210.0 4.3943e-05
15230.0 4.3908e-05
15250.0 4.387e-05
15270.0 4.3833e-05
15290.0 4.3802e-05
15310.0 4.3769e-05
15330.0 4.3734e-05
15350.0 4.3704e-05
15370.0 4.3675e-05
15390.0 4.3641e-05
15410.0 4.3611e-05
15430.0 4.3584e-05
15450.0 4.3554e-05
15470.0 4.3522e-05
15490.0 4.3497e-05
15510.0 4.3471e-05
15530.0 4.3441e-05
15550.0 4.3414e-05
15570.0 4.3389e-05
15590.0 4.3361e-05
15610.0 4.333e-05
15630.0 4.3306e-05
15650.0 4.328e-05
15670.0 4.325e-05
15690.0 4.3223e-05
15710.0 4.32e-05
15730.0 4.3171e-05
15750.0 4.3141e-05
15770.0 4.3115e-05
15790.0 4.3088e-05
15810.0 4.3055e-05
15830.0 4.3026e-05
15850.0 4.3e-05
15870.0 4.2969e-05
15890.0 4.2937e-05
15910.0 4.2909e-05
15930.0 4.2878e-05
15950.0 4.2842e-05
15970.0 4.281e-05
15990.0 4.2779e-05
16010.0 4.2743e-05
16030.0 4.2704e-05
16050.0 4.2672e-05
16070.0 4.2636e-05
16090.0 4.2597e-05
16110.0 4.2559e-05
16130.0 4.2523e-05
16150.0 4.2479e-05
16170.0 4.2436e-05
16190.0 4.2396e-05
16210.0 4.2353e-05
16230.0 4.2306e-05
16250.0 4.2262e-05
16270.0 4.2218e-05
16290.0 4.2168e-05
16310.0 4.2119e-05
16330.0 4.2071e-05
16350.0 4.202e-05
16370.0 4.1963e-05
16390.0 4.1911e-05
16410.0 4.1858e-05
16430.0 4.18e-05
16450.0 4.1742e-05
16470.0 4.1687e-05
16490.0 4.1626e-05
16510.0 4.1562e-05
16530.0 4.1501e-05
16550.0 4.1438e-05
16570.0 4.1369e-05
16590.0 4.1301e-05
16610.0 4.1236e-05
16630.0 4.1166e-05
16650.0 4.1093e-05
16670.0 4.1023e-05
16690.0 4.0951e-05
16710.0 4.0871e-05
16730.0 4.0794e-05
16750.0 4.0718e-05
16770.0 4.0638e-05
16790.0 4.0553e-05
16810.0 4.0473e-05
16830.0 4.0391e-05
16850.0 4.0303e-05
16870.0 4.0216e-05
16890.0 4.013e-05
16910.0 4.0038e-05
16930.0 3.9943e-05
16950.0 3.9852e-05
16970.0 3.9759e-05
16990.0 3.966e-05
17010.0 3.9563e-05
17030.0 3.9468e-05
17050.0 3.9366e-05
17070.0 3.9262e-05
17090.0 3.9161e-05
17110.0 3.9058e-05
17130.0 3.8947e-05
17150.0 3.884e-05
17170.0 3.8734e-05
17190.0 3.8622e-05
17210.0 3.8509e-05
17230.0 3.8399e-05
17250.0 3.8285e-05
17270.0 3.8165e-05
17290.0 3.8049e-05
17310.0 3.7933e-05
17330.0 3.7811e-05
17350.0 3.7686e-05
17370.0 3.7568e-05
17390.0 3.7445e-05
17410.0 3.7317e-05
17430.0 3.7192e-05
17450.0 3.7068e-05
17470.0 3.6935e-05
17490.0 3.6803e-05
17510.0 3.6675e-05
17530.0 3.6543e-05
17550.0 3.6406e-05
17570.0 3.6273e-05
17590.0 3.614e-05
17610.0 3.6001e-05
17630.0 3.5862e-05
17650.0 3.5726e-05
17670.0 3.5586e-05
17690.0 3.5439e-05
17710.0 3.5299e-05
17730.0 3.5158e-05
17750.0 3.5012e-05
17770.0 3.4866e-05
17790.0 3.4725e-05
17810.0 3.4576e-05
17830.0 3.4425e-05
17850.0 3.4279e-05
17870.0 3.4131e-05
17890.0 3.3977e-05
17910.0 3.3824e-05
17930.0 3.3676e-05
17950.0 3.3523e-05
17970.0 3.3367e-05
17990.0 3.3216e-05
18010.0 3.3063e-05
18030.0 3.2902e-05
18050.0 3.2746e-05
18070.0 3.2592e-05
18090.0 3.2433e-05
18110.0 3.2272e-05
18130.0 3.2116e-05
18150.0 3.1959e-05
18170.0 3.1796e-05
18190.0 3.1636e-05
18210.0 3.1479e-05
18230.0 3.1315e-05
18250.0 3.1149e-05
18270.0 3.099e-05
18290.0 3.0829e-05
18310.0 3.0663e-05
18330.0 3.05e-05
18350.0 3.034e-05
18370.0 3.0174e-05
18390.0 3.0008e-05
18410.0 2.9846e-05
18430.0 2.9681e-05
18450.0 2.9511e-05
18470.0 2.9347e-05
18490.0 2.9184e-05
18510.0 2.9017e-05
18530.0 2.885e-05
18550.0 2.8687e-05
18570.0 2.8521e-05
18590.0 2.8351e-05
18610.0 2.8185e-05
18630.0 2.8021e-05
18650.0 2.7852e-05
18670.0 2.7683e-05
18690.0 2.752e-05
18710.0 2.7353e-05
18730.0 2.7184e-05
18750.0 2.7019e-05
18770.0 2.6856e-05
18790.0 2.6684e-05
18810.0 2.6516e-05
18830.0 2.6353e-05
18850.0 2.6186e-05
18870.0 2.6017e-05
18890.0 2.5853e-05
18910.0 2.569e-05
18930.0 2.5521e-05
18950.0 2.5355e-05
18970.0 2.5192e-05
18990.0 2.5027e-05
19010.0 2.4856e-05
19030.0 2.4694e-05
19050.0 2.4532e-05
19070.0 2.4365e-05
19090.0 2.4201e-05
19110.0 2.4041e-05
19130.0 2.3876e-05
19150.0 2.371e-05
19170.0 2.3549e-05
19190.0 2.3388e-05
19210.0 2.3222e-05
19230.0 2.3059e-05
19250.0 2.2902e-05
19270.0 2.274e-05
19290.0 2.2577e-05
19310.0 2.2419e-05
19330.0 2.2261e-05
19350.0 2.2097e-05
19370.0 2.1938e-05
19390.0 2.1781e-05
19410.0 2.1622e-05
19430.0 2.1461e-05
19450.0 2.1307e-05
19470.0 2.1151e-05
19490.0 2.0992e-05
19510.0 2.0837e-05
19530.0 2.0684e-05
19550.0 2.0526e-05
19570.0 2.0369e-05
19590.0 2.0217e-05
19610.0 2.0064e-05
19630.0 1.9909e-05
19650.0 1.9757e-05
19670.0 1.9608e-05
19690.0 1.9454e-05
19710.0 1.9302e-05
19730.0 1.9154e-05
19750.0 1.9004e-05
19770.0 1.8851e-05
19790.0 1.8703e-05
19810.0 1.8557e-05
19830.0 1.8407e-05
19850.0 1.8258e-05
19870.0 1.8112e-05
19890.0 1.7959e-05
19910.0 1.7798e-05
19930.0 1.7631e-05
19950.0 1.7451e-05
19970.0 1.7244e-05
19990.0 1.7009e-05
20010.0 1.6522e-05
20030.0 1.6232e-05
20050.0 1.5904e-05
20070.0 1.5559e-05
20090.0 1.5197e-05
20110.0 1.4799e-05
20130.0 1.4402e-05
20150.0 1.4015e-05
20170.0 1.362e-05
20190.0 1.3224e-05
20210.0 1.2853e-05
20230.0 1.2494e-05
20250.0 1.2137e-05
20270.0 1.1806e-05
20290.0 1.1503e-05
20310.0 1.1215e-05
20330.0 1.0945e-05
20350.0 1.0716e-05
20370.0 1.0511e-05
20390.0 1.0327e-05
20410.0 1.0175e-05
20430.0 1.0053e-05
20450.0 9.951e-06
20470.0 9.8766e-06
20490.0 9.8282e-06
20510.0 9.8018e-06
20530.0 9.7975e-06
20550.0 9.813e-06
20570.0 9.8443e-06
20590.0 9.8935e-06
20610.0 9.9579e-06
20630.0 1.0031e-05
20650.0 1.0117e-05
20670.0 1.0217e-05
20690.0 1.032e-05
20710.0 1.0428e-05
20730.0 1.0544e-05
20750.0 1.0666e-05
20770.0 1.0784e-05
20790.0 1.0907e-05
20810.0 1.1036e-05
20830.0 1.1162e-05
20850.0 1.1287e-05
20870.0 1.1419e-05
20890.0 1.1551e-05
20910.0 1.1677e-05
20930.0 1.1805e-05
20950.0 1.1938e-05
20970.0 1.2065e-05
20990.0 1.219e-05
21010.0 1.2321e-05
21030.0 1.2448e-05
21050.0 1.2569e-05
21070.0 1.269e-05
21090.0 1.2813e-05
21110.0 1.2924e-05
21130.0 1.3029e-05
21150.0 1.3133e-05
21170.0 1.3229e-05
21190.0 1.3313e-05
21210.0 1.3392e-05
21230.0 1.3462e-05
21250.0 1.3517e-05
21270.0 1.3559e-05
21290.0 1.3589e-05
21310.0 1.3601e-05
21330.0 1.3595e-05
21350.0 1.3571e-05
21370.0 1.3526e-05
21390.0 1.3461e-05
21410.0 1.3374e-05
21430.0 1.3259e-05
21450.0 1.3123e-05
21470.0 1.2969e-05
21490.0 1.2789e-05
21510.0 1.2586e-05
21530.0 1.2373e-05
21550.0 1.2144e-05
21570.0 1.1894e-05
21590.0 1.1641e-05
21610.0 1.1389e-05
21630.0 1.113e-05
21650.0 1.0869e-05
21670.0 1.0633e-05
21690.0 1.0407e-05
21710.0 1.0191e-05
21730.0 1.0001e-05
21750.0 9.8391e-06
21770.0 9.695e-06
21790.0 9.5817e-06
21810.0 9.501e-06
21830.0 9.4489e-06
21850.0 9.427e-06
21870.0 9.4356e-06
21890.0 9.4703e-06
21910.0 9.5337e-06
21930.0 9.623e-06
21950.0 9.7308e-06
21970.0 9.8604e-06
21990.0 1.0017e-05
22010.0 1.0181e-05
22030.0 1.0355e-05
22050.0 1.0546e-05
22070.0 1.0745e-05
22090.0 1.094e-05
22110.0 1.1144e-05
22130.0 1.1354e-05
22150.0 1.1555e-05
22170.0 1.1751e-05
22190.0 1.195e-05
22210.0 1.2141e-05
22230.0 1.2312e-05
22250.0 1.2477e-05
22270.0 1.2632e-05
22290.0 1.2767e-05
22310.0 1.2884e-05
22330.0 1.299e-05
22350.0 1.3075e-05
22370.0 1.3136e-05
22390.0 1.3178e-05
22410.0 1.3199e-05
22430.0 1.3194e-05
22450.0 1.3167e-05
22470.0 1.3114e-05
22490.0 1.3037e-05
22510.0 1.2939e-05
22530.0 1.2812e-05
22550.0 1.2657e-05
22570.0 1.2484e-05
22590.0 1.2289e-05
22610.0 1.2063e-05
22630.0 1.1819e-05
