#lamb flux
1010.0 7.7072e-07
1030.0 8.6474e-07
1050.0 9.7288e-07
1070.0 1.0946e-06
1090.0 1.2329e-06
1110.0 1.3747e-06
1130.0 1.5174e-06
1150.0 1.6669e-06
1170.0 1.8212e-06
1190.0 1.9674e-06
1210.0 2.1156e-06
1230.0 2.2688e-06
1250.0 2.4189e-06
1270.0 2.5646e-06
1290.0 2.7186e-06
1310.0 2.8725e-06
1330.0 3.02e-06
1350.0 3.1692e-06
1370.0 3.3233e-06
1390.0 3.4735e-06
1410.0 3.6192e-06
1430.0 3.7715e-06
1450.0 3.9238e-06
1470.0 4.0709e-06
1490.0 4.2196e-06
1510.0 4.3767e-06
1530.0 4.5255e-06
1550.0 4.6722e-06
1570.0 4.8239e-06
1590.0 4.9757e-06
1610.0 5.1206e-06
1630.0 5.2699e-06
1650.0 5.4231e-06
1670.0 5.571e-06
1690.0 5.7169e-06
1710.0 5.8682e-06
1730.0 6.0202e-06
1750.0 6.1626e-06
1770.0 6.309e-06
1790.0 6.458e-06
1810.0 6.6016e-06
1830.0 6.7421e-06
1850.0 6.8908e-06
1870.0 7.0349e-06
1890.0 7.173e-06
1910.0 7.3131e-06
1930.0 7.4556e-06
1950.0 7.59e-06
1970.0 7.7213e-06
1990.0 7.8564e-06
2010.0 7.9873e-06
2030.0 8.111e-06
2050.0 8.2368e-06
2070.0 8.3638e-06
2090.0 8.4798e-06
2110.0 8.5925e-06
2130.0 8.7062e-06
2150.0 8.8138e-06
2170.0 8.9116e-06
2190.0 9.0106e-06
2210.0 9.1063e-06
2230.0 9.1919e-06
2250.0 9.2722e-06
2270.0 9.3535e-06
2290.0 9.4252e-06
2310.0 9.4861e-06
2330.0 9.5457e-06
2350.0 9.6014e-06
2370.0 9.6473e-06
2390.0 9.6919e-06
2410.0 9.7437e-06
2430.0 9.7962e-06
2450.0 9.8552e-06
2470.0 9.9357e-06
2490.0 1.0043e-05
2510.0 1.0168e-05
2530.0 1.0341e-05
2550.0 1.0606e-05
2570.0 1.1003e-05
2590.0 1.1594e-05
2610.0 1.2564e-05
2630.0 1.3975e-05
2650.0 1.5768e-05
2670.0 1.7989e-05
2690.0 2.0566e-05
2710.0 2.3118e-05
2730.0 2.5435e-05
2750.0 2.7529e-05
2770.0 2.9144e-05
2790.0 3.0227e-05
2810.0 3.0921e-05
2830.0 3.1317e-05
2850.0 3.1414e-05
2870.0 3.1354e-05
2890.0 3.1215e-05
2910.0 3.1018e-05
2930.0 3.078e-05
2950.0 3.0544e-05
2970.0 3.0313e-05
2990.0 3.0076e-05
3010.0 0.00077932
3030.0 0.00077343
3050.0 0.00076763
3070.0 0.00076137
3090.0 0.00075486
3110.0 0.00074733
3130.0 0.0007379
3150.0 0.00072605
3170.0 0.00071074
3190.0 0.00069231
3210.0 0.00067207
3230.0 0.00065115
3250.0 0.0006318
3270.0 0.00061794
3290.0 0.00061008
3310.0 0.00061076
3330.0 0.00061917
3350.0 0.00063413
3370.0 0.00065587
3390.0 0.00068357
3410.0 0.00071399
3430.0 0.00074851
3450.0 0.00078848
3470.0 0.00083226
3490.0 0.00087883
3510.0 0.00093141
3530.0 0.00098809
3550.0 0.0010469
3570.0 0.0011101
3590.0 0.0011813
3610.0 0.0012582
3630.0 0.0013379
3650.0 0.0014221
3670.0 0.0015002
3690.0 0.0015604
3710.0 0.0015946
3730.0 0.0015897
3750.0 0.0015445
3770.0 0.0014798
3790.0 0.0013726
3810.0 0.0011783
3830.0 0.0010571
3850.0 0.0010411
3870.0 0.00079048
3890.0 0.00092221
3910.0 0.0013644
3930.0 0.0017058
3950.0 0.0017509
3970.0 0.0019252
3990.0 0.0019615
4010.0 0.002717
4030.0 0.0026151
4050.0 0.0023158
4070.0 0.0022899
4090.0 0.0021889
4110.0 0.0024862
4130.0 0.0027915
4150.0 0.0030836
4170.0 0.00283
4190.0 0.0027261
4210.0 0.0028148
4230.0 0.003294
4250.0 0.0036927
4270.0 0.0038574
4290.0 0.0037455
4310.0 0.0036605
4330.0 0.0039067
4350.0 0.0047173
4370.0 0.0054868
4390.0 0.0048594
4410.0 0.0035409
4430.0 0.0028497
4450.0 0.0024873
4470.0 0.0022529
4490.0 0.0027338
4510.0 0.0036811
4530.0 0.0042321
4550.0 0.0045934
4570.0 0.0049573
4590.0 0.0057934
4610.0 0.0085534
4630.0 0.010997
4650.0 0.010874
4670.0 0.010067
4690.0 0.010704
4710.0 0.011384
4730.0 0.0094414
4750.0 0.0064067
4770.0 0.004994
4790.0 0.0050911
4810.0 0.0049012
4830.0 0.0046908
4850.0 0.0052737
4870.0 0.0069177
4890.0 0.0080568
4910.0 0.0065516
4930.0 0.0059129
4950.0 0.0066654
4970.0 0.0089984
4990.0 0.011925
5010.0 0.013131
5030.0 0.01066
5050.0 0.0066029
5070.0 0.0045809
5090.0 0.0038996
5110.0 0.0039495
5130.0 0.0043755
5150.0 0.0044582
5170.0 0.0043783
5190.0 0.0041831
5210.0 0.0041727
5230.0 0.0045656
5250.0 0.0050368
5270.0 0.005351
5290.0 0.0060775
5310.0 0.007176
5330.0 0.007409
5350.0 0.0073641
5370.0 0.0081252
5390.0 0.0093191
5410.0 0.0086348
5430.0 0.0070635
5450.0 0.0066544
5470.0 0.0075591
5490.0 0.0096849
5510.0 0.012295
5530.0 0.013923
5550.0 0.013093
5570.0 0.011744
5590.0 0.010139
5610.0 0.0096796
5630.0 0.009743
5650.0 0.0096397
5670.0 0.0092221
5690.0 0.0081211
5710.0 0.0079143
5730.0 0.0074219
5750.0 0.0047094
5770.0 0.0038851
5790.0 0.0045166
5810.0 0.0053223
5830.0 0.006662
5850.0 0.0077876
5870.0 0.0081126
5890.0 0.0077763
5910.0 0.0074576
5930.0 0.0073894
5950.0 0.0077062
5970.0 0.0087419
5990.0 0.0078693
6010.0 0.0063944
6030.0 0.0052659
6050.0 0.0045874
6070.0 0.0048601
6090.0 0.0055268
6110.0 0.0059485
6130.0 0.0056133
6150.0 0.004879
6170.0 0.0048806
6190.0 0.0059607
6210.0 0.0078533
6230.0 0.009837
6250.0 0.010073
6270.0 0.008528
6290.0 0.0071255
6310.0 0.0055788
6330.0 0.0043012
6350.0 0.0039492
6370.0 0.0042081
6390.0 0.0050453
6410.0 0.0060515
6430.0 0.007121
6450.0 0.0084716
6470.0 0.0098262
6490.0 0.012069
6510.0 0.01349
6530.0 0.01285
6550.0 0.011773
6570.0 0.010785
6590.0 0.010415
6610.0 0.0090124
6630.0 0.0084943
6650.0 0.0078924
6670.0 0.0077932
6690.0 0.0072224
6710.0 0.0065792
6730.0 0.0051378
6750.0 0.004946
6770.0 0.0054168
6790.0 0.0064458
6810.0 0.0058699
6830.0 0.0060323
6850.0 0.005677
6870.0 0.0054166
6890.0 0.005113
6910.0 0.0052116
6930.0 0.0048674
6950.0 0.0052237
6970.0 0.0052757
6990.0 0.0058885
7010.0 0.0061639
7030.0 0.0059943
7050.0 0.0054914
7070.0 0.0051759
7090.0 0.0049795
7110.0 0.0048106
7130.0 0.0050931
7150.0 0.0055431
7170.0 0.0060041
7190.0 0.006136
7210.0 0.0057873
7230.0 0.005921
7250.0 0.0066567
7270.0 0.0076467
7290.0 0.0086397
7310.0 0.0086173
7330.0 0.0077218
7350.0 0.0068884
7370.0 0.0060369
7390.0 0.0061662
7410.0 0.0068452
7430.0 0.007562
7450.0 0.0081667
7470.0 0.0084807
7490.0 0.008813
7510.0 0.010339
7530.0 0.009503
7550.0 0.0081651
7570.0 0.0061271
7590.0 0.0040378
7610.0 0.0034603
7630.0 0.0039411
7650.0 0.004683
7670.0 0.0058459
7690.0 0.0066298
7710.0 0.0067837
7730.0 0.006882
7750.0 0.0075746
7770.0 0.0075884
7790.0 0.0072084
7810.0 0.0068621
7830.0 0.0068648
7850.0 0.0065348
7870.0 0.0060523
7890.0 0.0052385
7910.0 0.0042094
7930.0 0.0037994
7950.0 0.0034283
7970.0 0.0032333
7990.0 0.0032334
8010.0 0.0033521
8030.0 0.0033196
8050.0 0.003383
8070.0 0.0033844
8090.0 0.003562
8110.0 0.0033502
8130.0 0.0027686
8150.0 0.002618
8170.0 0.0022823
8190.0 0.0021773
8210.0 0.0025197
8230.0 0.0027443
8250.0 0.0023415
8270.0 0.002072
8290.0 0.0018384
8310.0 0.001303
8330.0 0.0008365
8350.0 0.00062243
8370.0 0.00057206
8390.0 0.00075475
8410.0 0.00094846
8430.0 0.0011665
8450.0 0.0012944
8470.0 0.0015332
8490.0 0.0014546
8510.0 0.0014074
8530.0 0.0013638
8550.0 0.001854
8570.0 0.0023907
8590.0 0.0025164
8610.0 0.0031407
8630.0 0.003603
8650.0 0.0034981
8670.0 0.0036953
8690.0 0.0039276
8710.0 0.0036294
8730.0 0.0035528
8750.0 0.0031941
8770.0 0.003034
8790.0 0.0030718
8810.0 0.0029938
8830.0 0.0023588
8850.0 0.0018316
8870.0 0.0015039
8890.0 0.0016172
8910.0 0.0018698
8930.0 0.0020822
8950.0 0.0023583
8970.0 0.0023722
8990.0 0.0022188
9010.0 0.0019807
9030.0 0.0019066
9050.0 0.0019348
9070.0 0.0019585
9090.0 0.0019766
9110.0 0.0019949
9130.0 0.0020095
9150.0 0.0020219
9170.0 0.002035
9190.0 0.002049
9210.0 0.0020637
9230.0 0.0020792
9250.0 0.0020954
9270.0 0.0021122
9290.0 0.0021297
9310.0 0.0021477
9330.0 0.0021662
9350.0 0.0021853
9370.0 0.002205
9390.0 0.0022253
9410.0 0.002246
9430.0 0.0022673
9450.0 0.0022892
9470.0 0.0023116
9490.0 0.0023345
9510.0 0.0023579
9530.0 0.0023819
9550.0 0.0024063
9570.0 0.0024312
9590.0 0.0024567
9610.0 0.0024826
9630.0 0.002509
9650.0 0.0025358
9670.0 0.0025632
9690.0 0.0025909
9710.0 0.0026191
9730.0 0.0026477
9750.0 0.0026767
9770.0 0.002706
9790.0 0.0027358
9810.0 0.002766
9830.0 0.0027964
9850.0 0.0028272
9870.0 0.0028583
9890.0 0.0028898
9910.0 0.0029214
9930.0 0.0029534
9950.0 0.0029856
9970.0 0.003018
9990.0 0.0030505
10010.0 0.0029001
10030.0 0.0029303
10050.0 0.0029606
10070.0 0.0029908
10090.0 0.0030215
10110.0 0.0030521
10130.0 0.0030827
10150.0 0.0031134
10170.0 0.003144
10190.0 0.0031745
10210.0 0.0032051
10230.0 0.0032355
10250.0 0.0032658
10270.0 0.0032959
10290.0 0.003326
10310.0 0.0033558
10330.0 0.0033853
10350.0 0.0034147
10370.0 0.0034438
10390.0 0.0034726
10410.0 0.003501
10430.0 0.0035292
10450.0 0.003557
10470.0 0.0035843
10490.0 0.0036114
10510.0 0.003638
10530.0 0.0036639
10550.0 0.0036895
10570.0 0.0037146
10590.0 0.0037392
10610.0 0.0037631
10630.0 0.0037866
10650.0 0.0038094
10670.0 0.0038315
10690.0 0.0038531
10710.0 0.0038741
10730.0 0.0038943
10750.0 0.0039137
10770.0 0.0039326
10790.0 0.0039508
10810.0 0.003968
10830.0 0.0039844
10850.0 0.0039998
10870.0 0.0040134
10890.0 0.0040246
10910.0 0.0040324
10930.0 0.0040347
10950.0 0.004028
10970.0 0.0040107
10990.0 0.0039818
11010.0 0.0039193
11030.0 0.0038583
11050.0 0.003785
11070.0 0.0036973
11090.0 0.0035915
11110.0 0.003482
11130.0 0.0033676
11150.0 0.0032442
11170.0 0.0031172
11190.0 0.002995
11210.0 0.0028697
11230.0 0.0027427
11250.0 0.0026232
11270.0 0.0025103
11290.0 0.002399
11310.0 0.0022953
11330.0 0.0022055
11350.0 0.0021218
11370.0 0.0020451
11390.0 0.0019791
11410.0 0.001921
11430.0 0.0018664
11450.0 0.0018179
11470.0 0.0017744
11490.0 0.0017319
11510.0 0.0016888
11530.0 0.0016468
11550.0 0.0016036
11570.0 0.0015566
11590.0 0.0015074
11610.0 0.0014573
11630.0 0.0014031
11650.0 0.0013459
11670.0 0.0012902
11690.0 0.0012346
11710.0 0.0011781
11730.0 0.0011241
11750.0 0.0010747
11770.0 0.0010268
11790.0 0.00098232
11810.0 0.00094329
11830.0 0.0009084
11850.0 0.00087617
11870.0 0.00084879
11890.0 0.00082542
11910.0 0.00080418
11930.0 0.00078498
11950.0 0.00076792
11970.0 0.00075163
11990.0 0.0007352
12010.0 0.00071906
12030.0 0.00070283
12050.0 0.00068565
12070.0 0.00066752
12090.0 0.00064985
12110.0 0.00063179
12130.0 0.00061348
12150.0 0.00059613
12170.0 0.00058027
12190.0 0.00056531
12210.0 0.00055273
12230.0 0.00054309
12250.0 0.00053628
12270.0 0.00053279
12290.0 0.00053284
12310.0 0.0005361
12330.0 0.00054307
12350.0 0.00055337
12370.0 0.00056607
12390.0 0.00058145
12410.0 0.00060009
12430.0 0.00061912
12450.0 0.0006388
12470.0 0.00065967
12490.0 0.00068033
12510.0 0.00069919
12530.0 0.00071752
12550.0 0.00073465
12570.0 0.00074897
12590.0 0.00076074
12610.0 0.00077047
12630.0 0.00077718
12650.0 0.00078047
12670.0 0.00078118
12690.0 0.00077908
12710.0 0.00077422
12730.0 0.000767
12750.0 0.00075725
12770.0 0.00074549
12790.0 0.00073223
12810.0 0.00071726
12830.0 0.00070066
12850.0 0.0006836
12870.0 0.00066582
12890.0 0.00064684
12910.0 0.00062753
12930.0 0.00060837
12950.0 0.00058829
12970.0 0.00056764
12990.0 0.00054771
13010.0 0.00052771
13030.0 0.00050718
13050.0 0.00048707
13070.0 0.00046787
13090.0 0.00044837
13110.0 0.00042925
13130.0 0.00041138
13150.0 0.00039431
13170.0 0.00037757
13190.0 0.00036258
13210.0 0.00034934
13230.0 0.00033728
13250.0 0.00032691
13270.0 0.00031869
13290.0 0.00031225
13310.0 0.0003077
13330.0 0.00030533
13350.0 0.0003049
13370.0 0.00030646
13390.0 0.00031
13410.0 0.00031486
13430.0 0.00032122
13450.0 0.00032903
13470.0 0.00033757
13490.0 0.00034646
13510.0 0.0003564
13530.0 0.0003663
13550.0 0.00037559
13570.0 0.00038463
13590.0 0.00039332
13610.0 0.00040087
13630.0 0.00040729
13650.0 0.00041301
13670.0 0.00041754
13690.0 0.00042078
13710.0 0.00042299
13730.0 0.00042419
13750.0 0.00042418
13770.0 0.00042323
13790.0 0.00042138
13810.0 0.00041868
13830.0 0.00041533
13850.0 0.00041125
13870.0 0.00040648
13890.0 0.00040128
13910.0 0.00039567
13930.0 0.00038944
13950.0 0.00038286
13970.0 0.0003763
13990.0 0.00036935
14010.0 0.00036216
14030.0 0.00035513
14050.0 0.00034818
14070.0 0.00034102
14090.0 0.00033428
14110.0 0.00032806
14130.0 0.00032214
14150.0 0.00031669
14170.0 0.00031212
14190.0 0.00030825
14210.0 0.00030508
14230.0 0.00030283
14250.0 0.00030149
14270.0 0.00030103
14290.0 0.00030154
14310.0 0.0003029
14330.0 0.00030508
14350.0 0.00030815
14370.0 0.00031188
14390.0 0.00031606
14410.0 0.00032097
14430.0 0.00032637
14450.0 0.00033193
14470.0 0.00033778
14490.0 0.00034417
14510.0 0.00035049
14530.0 0.00035677
14550.0 0.00036342
14570.0 0.00037029
14590.0 0.00037707
14610.0 0.00038425
14630.0 0.00039207
14650.0 0.00040008
14670.0 0.00040846
14690.0 0.00041774
14710.0 0.00042788
14730.0 0.00043814
14750.0 0.00044935
14770.0 0.00046163
14790.0 0.00047431
14810.0 0.00048728
14830.0 0.00050164
14850.0 0.00051618
14870.0 0.00053034
14890.0 0.00054467
14910.0 0.00055894
14930.0 0.00057193
14950.0 0.00058351
14970.0 0.00059399
14990.0 0.00060246
15010.0 0.00060873
15030.0 0.00061323
15050.0 0.00061607
15070.0 0.0006174
15090.0 0.00061779
15110.0 0.00061753
15130.0 0.00061687
15150.0 0.00061606
15170.0 0.00061511
15190.0 0.00061408
15210.0 0.0006131
15230.0 0.00061213
15250.0 0.00061111
15270.0 0.00061011
15290.0 0.00060919
15310.0 0.00060824
15330.0 0.00060726
15350.0 0.00060635
15370.0 0.00060545
15390.0 0.00060447
15410.0 0.00060354
15430.0 0.00060266
15450.0 0.00060174
15470.0 0.0006008
15490.0 0.00059993
15510.0 0.00059906
15530.0 0.00059813
15550.0 0.00059724
15570.0 0.00059639
15590.0 0.00059547
15610.0 0.00059453
15630.0 0.00059367
15650.0 0.0005928
15670.0 0.00059187
15690.0 0.00059097
15710.0 0.00059012
15730.0 0.0005892
15750.0 0.00058827
15770.0 0.00058739
15790.0 0.00058649
15810.0 0.00058551
15830.0 0.00058459
15850.0 0.00058371
15870.0 0.00058276
15890.0 0.0005818
15910.0 0.00058089
15930.0 0.00057995
15950.0 0.00057893
15970.0 0.00057797
15990.0 0.00057702
16010.0 0.00057601
16030.0 0.00057497
16050.0 0.00057401
16070.0 0.00057301
16090.0 0.00057195
16110.0 0.00057093
16130.0 0.00056993
16150.0 0.00056881
16170.0 0.00056772
16190.0 0.00056667
16210.0 0.00056558
16230.0 0.00056443
16250.0 0.00056333
16270.0 0.00056225
16290.0 0.00056107
16310.0 0.0005599
16330.0 0.00055877
16350.0 0.00055759
16370.0 0.00055632
16390.0 0.00055514
16410.0 0.00055394
16430.0 0.00055267
16450.0 0.00055141
16470.0 0.0005502
16490.0 0.0005489
16510.0 0.00054756
16530.0 0.00054627
16550.0 0.00054497
16570.0 0.00054358
16590.0 0.0005422
16610.0 0.00054088
16630.0 0.00053949
16650.0 0.00053806
16670.0 0.00053668
16690.0 0.00053527
16710.0 0.00053376
16730.0 0.00053229
16750.0 0.00053085
16770.0 0.00052934
16790.0 0.00052779
16810.0 0.0005263
16830.0 0.00052479
16850.0 0.0005232
16870.0 0.00052163
16890.0 0.00052009
16910.0 0.00051845
16930.0 0.00051679
16950.0 0.00051519
16970.0 0.00051356
16990.0 0.00051186
17010.0 0.00051019
17030.0 0.00050855
17050.0 0.00050682
17070.0 0.00050507
17090.0 0.00050337
17110.0 0.00050163
17130.0 0.00049981
17150.0 0.00049804
17170.0 0.00049629
17190.0 0.00049447
17210.0 0.00049263
17230.0 0.00049085
17250.0 0.000489
17270.0 0.00048709
17290.0 0.00048523
17310.0 0.00048338
17330.0 0.00048146
17350.0 0.00047951
17370.0 0.00047764
17390.0 0.00047572
17410.0 0.00047374
17430.0 0.0004718
17450.0 0.00046988
17470.0 0.00046784
17490.0 0.00046583
17510.0 0.00046387
17530.0 0.00046186
17550.0 0.0004598
17570.0 0.00045779
17590.0 0.00045579
17610.0 0.00045371
17630.0 0.00045164
17650.0 0.00044961
17670.0 0.00044753
17690.0 0.00044537
17710.0 0.00044331
17730.0 0.00044123
17750.0 0.00043909
17770.0 0.00043697
17790.0 0.0004349
17810.0 0.00043275
17830.0 0.00043057
17850.0 0.00042844
17870.0 0.00042631
17890.0 0.00042411
17910.0 0.00042192
17930.0 0.00041981
17950.0 0.00041762
17970.0 0.00041541
17990.0 0.00041326
18010.0 0.0004111
18030.0 0.00040884
18050.0 0.00040664
18070.0 0.00040447
18090.0 0.00040224
18110.0 0.00039999
18130.0 0.00039782
18150.0 0.00039562
18170.0 0.00039337
18190.0 0.00039115
18210.0 0.00038896
18230.0 0.0003867
18250.0 0.00038443
18270.0 0.00038223
18290.0 0.00038001
18310.0 0.00037775
18330.0 0.00037552
18350.0 0.00037333
18370.0 0.00037107
18390.0 0.00036881
18410.0 0.0003666
18430.0 0.00036437
18450.0 0.00036208
18470.0 0.00035985
18490.0 0.00035766
18510.0 0.0003554
18530.0 0.00035315
18550.0 0.00035097
18570.0 0.00034874
18590.0 0.00034646
18610.0 0.00034424
18630.0 0.00034205
18650.0 0.0003398
18670.0 0.00033754
18690.0 0.00033538
18710.0 0.00033317
18730.0 0.00033093
18750.0 0.00032874
18770.0 0.00032657
18790.0 0.00032431
18810.0 0.00032209
18830.0 0.00031994
18850.0 0.00031774
18870.0 0.00031552
18890.0 0.00031337
18910.0 0.00031122
18930.0 0.00030901
18950.0 0.00030684
18970.0 0.00030471
18990.0 0.00030254
19010.0 0.00030032
19030.0 0.00029821
19050.0 0.00029609
19070.0 0.00029393
19090.0 0.00029179
19110.0 0.00028972
19130.0 0.00028757
19150.0 0.00028542
19170.0 0.00028333
19190.0 0.00028125
19210.0 0.00027911
19230.0 0.00027701
19250.0 0.00027497
19270.0 0.00027288
19290.0 0.00027079
19310.0 0.00026875
19330.0 0.00026671
19350.0 0.0002646
19370.0 0.00026256
19390.0 0.00026055
19410.0 0.00025851
19430.0 0.00025645
19450.0 0.00025447
19470.0 0.00025248
19490.0 0.00025044
19510.0 0.00024846
19530.0 0.0002465
19550.0 0.00024449
19570.0 0.00024248
19590.0 0.00024055
19610.0 0.0002386
19630.0 0.00023662
19650.0 0.00023468
19670.0 0.00023279
19690.0 0.00023083
19710.0 0.00022889
19730.0 0.00022701
19750.0 0.0002251
19770.0 0.00022315
19790.0 0.00022128
19810.0 0.00021943
19830.0 0.00021753
19850.0 0.00021564
19870.0 0.00021379
19890.0 0.00021186
19910.0 0.00020982
19930.0 0.00020773
19950.0 0.00020548
19970.0 0.00020292
19990.0 0.00020003
20010.0 0.00019971
20030.0 0.0001961
20050.0 0.00019206
20070.0 0.00018783
20090.0 0.00018342
20110.0 0.00017861
20130.0 0.00017385
20150.0 0.00016923
20170.0 0.00016454
20190.0 0.00015988
20210.0 0.00015553
20230.0 0.00015134
20250.0 0.00014719
20270.0 0.00014336
20290.0 0.00013987
20310.0 0.00013657
20330.0 0.00013349
20350.0 0.00013092
20370.0 0.00012863
20390.0 0.00012661
20410.0 0.00012497
20430.0 0.00012369
20450.0 0.00012268
20470.0 0.000122
20490.0 0.00012163
20510.0 0.00012152
20530.0 0.00012169
20550.0 0.0001221
20570.0 0.00012268
20590.0 0.00012347
20610.0 0.00012444
20630.0 0.00012551
20650.0 0.0001267
20670.0 0.00012807
20690.0 0.00012945
20710.0 0.00013087
20730.0 0.00013239
20750.0 0.00013396
20770.0 0.00013547
20790.0 0.00013704
20810.0 0.00013868
20830.0 0.00014028
20850.0 0.00014186
20870.0 0.00014354
20890.0 0.00014524
20910.0 0.00014685
20930.0 0.00014852
20950.0 0.00015024
20970.0 0.00015192
20990.0 0.00015356
21010.0 0.00015531
21030.0 0.00015702
21050.0 0.00015865
21070.0 0.0001603
21090.0 0.00016197
21110.0 0.0001635
21130.0 0.00016496
21150.0 0.00016641
21170.0 0.00016775
21190.0 0.00016894
21210.0 0.00017008
21230.0 0.00017111
21250.0 0.00017195
21270.0 0.00017263
21290.0 0.00017317
21310.0 0.0001735
21330.0 0.00017361
21350.0 0.00017351
21370.0 0.00017316
21390.0 0.00017256
21410.0 0.00017171
21430.0 0.00017052
21450.0 0.00016906
21470.0 0.00016737
21490.0 0.00016536
21510.0 0.00016306
21530.0 0.0001606
21550.0 0.00015793
21570.0 0.00015496
21590.0 0.00015193
21610.0 0.00014888
21630.0 0.00014569
21650.0 0.00014244
21670.0 0.00013946
21690.0 0.00013655
21710.0 0.00013374
21730.0 0.00013121
21750.0 0.00012901
21770.0 0.00012698
21790.0 0.00012532
21810.0 0.00012405
21830.0 0.00012313
21850.0 0.00012256
21870.0 0.00012239
21890.0 0.00012255
21910.0 0.00012308
21930.0 0.00012395
21950.0 0.00012509
21970.0 0.00012652
21990.0 0.00012831
22010.0 0.00013025
22030.0 0.00013235
22050.0 0.0001347
22070.0 0.0001372
22090.0 0.00013969
22110.0 0.00014232
22130.0 0.00014507
22150.0 0.00014775
22170.0 0.00015037
22190.0 0.00015308
22210.0 0.00015568
22230.0 0.00015804
22250.0 0.00016033
22270.0 0.00016249
22290.0 0.00016438
22310.0 0.00016603
22330.0 0.00016753
22350.0 0.00016872
22370.0 0.0001696
22390.0 0.0001702
22410.0 0.00017049
22430.0 0.00017044
22450.0 0.00017007
22470.0 0.00016936
22490.0 0.00016831
22510.0 0.00016698
22530.0 0.00016526
22550.0 0.00016316
22570.0 0.00016084
22590.0 0.00015822
22610.0 0.00015521
22630.0 0.00015195
22650.0 0.00014858
22670.0 0.00014485
22690.0 0.00014086
22710.0 0.00013683
22730.0 0.00013265
22750.0 0.00012812
22770.0 0.00012366
22790.0 0.00011929
22810.0 0.00011478
22830.0 0.00011027
22850.0 0.00010603
22870.0 0.00010187
22890.0 9.773e-05
22910.0 9.3917e-05
22930.0 9.0433e-05
22950.0 8.7131e-05
22970.0 8.4104e-05
22990.0 8.163e-05
23010.0 7.9479e-05
23030.0 7.769e-05
23050.0 7.6373e-05
23070.0 7.5503e-05
