#lamb flux
1010.0 9.7261e-07
1030.0 1.0187e-06
1050.0 1.1329e-06
1070.0 1.2599e-06
1090.0 1.3924e-06
1110.0 1.5249e-06
1130.0 1.6545e-06
1150.0 1.7879e-06
1170.0 1.9222e-06
1190.0 2.0433e-06
1210.0 2.1617e-06
1230.0 2.28e-06
1250.0 2.3916e-06
1270.0 2.4932e-06
1290.0 2.5972e-06
1310.0 2.6957e-06
1330.0 2.784e-06
1350.0 2.8712e-06
1370.0 2.9622e-06
1390.0 3.0512e-06
1410.0 3.1406e-06
1430.0 3.2428e-06
1450.0 3.3549e-06
1470.0 3.4754e-06
1490.0 3.6129e-06
1510.0 3.7759e-06
1530.0 3.9526e-06
1550.0 4.1508e-06
1570.0 4.3786e-06
1590.0 4.6339e-06
1610.0 4.9122e-06
1630.0 5.2282e-06
1650.0 5.5794e-06
1670.0 5.957e-06
1690.0 6.3634e-06
1710.0 6.8063e-06
1730.0 7.279e-06
1750.0 7.7661e-06
1770.0 8.2803e-06
1790.0 8.8162e-06
1810.0 9.3578e-06
1830.0 9.9012e-06
1850.0 1.0457e-05
1870.0 1.0999e-05
1890.0 1.1516e-05
1910.0 1.2014e-05
1930.0 1.2486e-05
1950.0 1.2907e-05
1970.0 1.328e-05
1990.0 1.361e-05
2010.0 1.388e-05
2030.0 1.4083e-05
2050.0 1.4234e-05
2070.0 1.433e-05
2090.0 1.4353e-05
2110.0 1.432e-05
2130.0 1.4242e-05
2150.0 1.4113e-05
2170.0 1.3934e-05
2190.0 1.3728e-05
2210.0 1.3495e-05
2230.0 1.3234e-05
2250.0 1.2957e-05
2270.0 1.2681e-05
2290.0 1.2397e-05
2310.0 1.2109e-05
2330.0 1.1836e-05
2350.0 1.1578e-05
2370.0 1.1331e-05
2390.0 1.1108e-05
2410.0 1.092e-05
2430.0 1.076e-05
2450.0 1.0634e-05
2470.0 1.0557e-05
2490.0 1.0536e-05
2510.0 1.0562e-05
2530.0 1.067e-05
2550.0 1.0904e-05
2570.0 1.1297e-05
2590.0 1.1902e-05
2610.0 1.2876e-05
2630.0 1.4258e-05
2650.0 1.5993e-05
2670.0 1.8131e-05
2690.0 2.0645e-05
2710.0 2.3253e-05
2730.0 2.583e-05
2750.0 2.8449e-05
2770.0 3.0938e-05
2790.0 3.3263e-05
2810.0 3.5587e-05
2830.0 3.8061e-05
2850.0 4.0554e-05
2870.0 4.3203e-05
2890.0 4.6124e-05
2910.0 4.9256e-05
2930.0 5.2498e-05
2950.0 5.6027e-05
2970.0 5.9822e-05
2990.0 6.3743e-05
3010.0 7.0733e-05
3030.0 7.5321e-05
3050.0 8.0089e-05
3070.0 8.4801e-05
3090.0 8.9569e-05
3110.0 9.4129e-05
3130.0 9.811e-05
3150.0 0.00010133
3170.0 0.00010342
3190.0 0.00010508
3210.0 0.00010842
3230.0 0.00011307
3250.0 0.00011437
3270.0 0.00011146
3290.0 0.00010753
3310.0 0.00010577
3330.0 0.00010553
3350.0 0.00010626
3370.0 0.00010748
3390.0 0.00010952
3410.0 0.00011097
3430.0 0.00010978
3450.0 0.00010998
3470.0 0.00011098
3490.0 0.00012268
3510.0 0.00015627
3530.0 0.00019326
3550.0 0.00022005
3570.0 0.00024111
3590.0 0.00025298
3610.0 0.00025068
3630.0 0.00024493
3650.0 0.00026121
3670.0 0.00030354
3690.0 0.00034507
3710.0 0.0003762
3730.0 0.00040394
3750.0 0.00043015
3770.0 0.00042383
3790.0 0.00039431
3810.0 0.00036607
3830.0 0.00034124
3850.0 0.00033553
3870.0 0.0003605
3890.0 0.0003937
3910.0 0.00041942
3930.0 0.00044634
3950.0 0.00049811
3970.0 0.00053962
3990.0 0.00051758
4010.0 0.00045762
4030.0 0.00039991
4050.0 0.00037737
4070.0 0.0003731
4090.0 0.0003658
4110.0 0.00036342
4130.0 0.0003601
4150.0 0.00036183
4170.0 0.00038406
4190.0 0.00041666
4210.0 0.0004155
4230.0 0.00040188
4250.0 0.00039847
4270.0 0.00040755
4290.0 0.00043165
4310.0 0.00045445
4330.0 0.00043636
4350.0 0.00038458
4370.0 0.00034014
4390.0 0.00030294
4410.0 0.00026956
4430.0 0.00026329
4450.0 0.00027873
4470.0 0.00029435
4490.0 0.00031547
4510.0 0.00036111
4530.0 0.00046044
4550.0 0.00060325
4570.0 0.0006961
4590.0 0.00075165
4610.0 0.0008443
4630.0 0.00091797
4650.0 0.00087268
4670.0 0.00073361
4690.0 0.00060416
4710.0 0.00053337
4730.0 0.00050151
4750.0 0.00046229
4770.0 0.00043001
4790.0 0.00044983
4810.0 0.00049072
4830.0 0.00050112
4850.0 0.00047698
4870.0 0.00047777
4890.0 0.00051371
4910.0 0.00054627
4930.0 0.00055815
4950.0 0.00054879
4970.0 0.00051692
4990.0 0.00046622
5010.0 0.0004187
5030.0 0.00038606
5050.0 0.00036708
5070.0 0.00035291
5090.0 0.000339
5110.0 0.00033388
5130.0 0.00033372
5150.0 0.00034269
5170.0 0.00037523
5190.0 0.00042267
5210.0 0.00048021
5230.0 0.00052626
5250.0 0.00055862
5270.0 0.00059779
5290.0 0.000644
5310.0 0.00066972
5330.0 0.00066053
5350.0 0.0006346
5370.0 0.0006346
5390.0 0.00067475
5410.0 0.00073758
5430.0 0.00079092
5450.0 0.00082289
5470.0 0.0008329
5490.0 0.00082239
5510.0 0.00080983
5530.0 0.00080451
5550.0 0.00080402
5570.0 0.0007989
5590.0 0.00078612
5610.0 0.00076411
5630.0 0.00072353
5650.0 0.00066856
5670.0 0.00062764
5690.0 0.00061207
5710.0 0.00060804
5730.0 0.00060082
5750.0 0.00059318
5770.0 0.0005904
5790.0 0.00059644
5810.0 0.00059958
5830.0 0.00060512
5850.0 0.00061177
5870.0 0.00060337
5890.0 0.00058684
5910.0 0.00056248
5930.0 0.00051547
5950.0 0.00046681
5970.0 0.00044362
5990.0 0.00044585
6010.0 0.00044892
6030.0 0.00043426
6050.0 0.00042043
6070.0 0.00043655
6090.0 0.00047011
6110.0 0.00048962
6130.0 0.00048197
6150.0 0.00046218
6170.0 0.00044861
6190.0 0.00043718
6210.0 0.00041606
6230.0 0.00038465
6250.0 0.00036183
6270.0 0.00035715
6290.0 0.00035752
6310.0 0.00037219
6330.0 0.00040605
6350.0 0.00044682
6370.0 0.00047307
6390.0 0.00048733
6410.0 0.00050236
6430.0 0.00051417
6450.0 0.00052496
6470.0 0.00053754
6490.0 0.00055043
6510.0 0.00056079
6530.0 0.00056451
6550.0 0.00056437
6570.0 0.00055179
6590.0 0.00052563
6610.0 0.00050431
6630.0 0.00049047
6650.0 0.00047247
6670.0 0.00044855
6690.0 0.0004283
6710.0 0.0004176
6730.0 0.00040853
6750.0 0.00040051
6770.0 0.00039705
6790.0 0.0003937
6810.0 0.00038481
6830.0 0.00037725
6850.0 0.00038378
6870.0 0.00038952
6890.0 0.00038388
6910.0 0.00037814
6930.0 0.00037363
6950.0 0.00036514
6970.0 0.00035218
6990.0 0.00034001
7010.0 0.00033248
7030.0 0.00032558
7050.0 0.00031073
7070.0 0.00029166
7090.0 0.00028676
7110.0 0.00029757
7130.0 0.00031458
7150.0 0.00033012
7170.0 0.00034215
7190.0 0.00034513
7210.0 0.00033523
7230.0 0.00032866
7250.0 0.00033282
7270.0 0.00033127
7290.0 0.00032712
7310.0 0.00033009
7330.0 0.00034128
7350.0 0.00035674
7370.0 0.00036648
7390.0 0.00037011
7410.0 0.00037006
7430.0 0.00036275
7450.0 0.00035098
7470.0 0.00034028
7490.0 0.00032775
7510.0 0.00031617
7530.0 0.00031158
7550.0 0.00031
7570.0 0.00030897
7590.0 0.00031072
7610.0 0.00030955
7630.0 0.00030817
7650.0 0.00031559
7670.0 0.00032725
7690.0 0.00033858
7710.0 0.00034756
7730.0 0.00035562
7750.0 0.00036443
7770.0 0.00037281
7790.0 0.00037963
7810.0 0.00038139
7830.0 0.00037388
7850.0 0.00036019
7870.0 0.00034336
7890.0 0.00032696
7910.0 0.00031864
7930.0 0.00031268
7950.0 0.000305
7970.0 0.00029741
7990.0 0.00029435
8010.0 0.00027637
8030.0 0.00027333
8050.0 0.00026979
8070.0 0.00026487
8090.0 0.00026017
8110.0 0.00025849
8130.0 0.0002583
8150.0 0.00025601
8170.0 0.00025262
8190.0 0.00024448
8210.0 0.00022984
8230.0 0.00021566
8250.0 0.00020815
8270.0 0.00019974
8290.0 0.00018676
8310.0 0.00017544
8330.0 0.00016848
8350.0 0.00016303
8370.0 0.00016442
8390.0 0.00017361
8410.0 0.00018437
8430.0 0.00019623
8450.0 0.00021031
8470.0 0.00022101
8490.0 0.00023186
8510.0 0.00024172
8530.0 0.00025123
8550.0 0.00025896
8570.0 0.00026433
8590.0 0.00026845
8610.0 0.00027388
8630.0 0.00027487
8650.0 0.00026888
8670.0 0.00026841
8690.0 0.00027514
8710.0 0.00028364
8730.0 0.00028488
8750.0 0.00027873
8770.0 0.00027688
8790.0 0.00027537
8810.0 0.00026806
8830.0 0.00024828
8850.0 0.00022428
8870.0 0.00020689
8890.0 0.00019931
8910.0 0.00019015
8930.0 0.00017635
8950.0 0.00016541
8970.0 0.00016208
8990.0 0.00016341
9010.0 0.00016314
9030.0 0.00016161
9050.0 0.00016037
9070.0 0.00015947
9090.0 0.00015863
9110.0 0.00015779
9130.0 0.00015697
9150.0 0.00015615
9170.0 0.00015533
9190.0 0.00015453
9210.0 0.00015377
9230.0 0.00015296
9250.0 0.00015216
9270.0 0.00015137
9290.0 0.0001506
9310.0 0.00014983
9330.0 0.00014906
9350.0 0.00014831
9370.0 0.00014756
9390.0 0.00014682
9410.0 0.00014608
9430.0 0.00014533
9450.0 0.00014448
9470.0 0.00014366
9490.0 0.00014307
9510.0 0.00014242
9530.0 0.00014177
9550.0 0.00014109
9570.0 0.0001404
9590.0 0.00013973
9610.0 0.00013906
9630.0 0.00013838
9650.0 0.0001377
9670.0 0.00013705
9690.0 0.00013639
9710.0 0.00013572
9730.0 0.00013508
9750.0 0.00013443
9770.0 0.00013377
9790.0 0.00013313
9810.0 0.00013249
9830.0 0.00013185
9850.0 0.00013118
9870.0 0.00013056
9890.0 0.00012994
9910.0 0.00012931
9930.0 0.00012868
9950.0 0.000128
9970.0 0.00012738
9990.0 0.00012676
10010.0 0.0001261
10030.0 0.00012547
10050.0 0.00012486
10070.0 0.00012426
10090.0 0.00012366
10110.0 0.00012299
10130.0 0.00012208
10150.0 0.0001215
10170.0 0.00012097
10190.0 0.00012038
10210.0 0.00011979
10230.0 0.0001192
10250.0 0.00011855
10270.0 0.0001179
10290.0 0.00011728
10310.0 0.00011662
10330.0 0.00011592
10350.0 0.00011527
10370.0 0.00011461
10390.0 0.00011391
10410.0 0.00011322
10430.0 0.00011257
10450.0 0.00011187
10470.0 0.00011115
10490.0 0.00011046
10510.0 0.00010976
10530.0 0.00010901
10550.0 0.00010827
10570.0 0.00010756
10590.0 0.00010682
10610.0 0.00010605
10630.0 0.00010531
10650.0 0.00010456
10670.0 0.00010376
10690.0 0.00010298
10710.0 0.00010221
10730.0 0.0001014
10750.0 0.00010055
10770.0 9.9762e-05
10790.0 9.8951e-05
10810.0 9.8096e-05
10830.0 9.7253e-05
10850.0 9.6436e-05
10870.0 9.5548e-05
10890.0 9.4655e-05
10910.0 9.3797e-05
10930.0 9.2922e-05
10950.0 9.2009e-05
10970.0 9.112e-05
10990.0 9.0271e-05
11010.0 8.6623e-05
11030.0 8.5674e-05
11050.0 8.479e-05
11070.0 8.3925e-05
11090.0 8.3043e-05
11110.0 8.2247e-05
11130.0 8.15e-05
11150.0 8.0765e-05
11170.0 8.0073e-05
11190.0 7.9458e-05
11210.0 7.8871e-05
11230.0 7.8316e-05
11250.0 7.7827e-05
11270.0 7.7391e-05
11290.0 7.698e-05
11310.0 7.6611e-05
11330.0 7.6299e-05
11350.0 7.6007e-05
11370.0 7.573e-05
11390.0 7.5478e-05
11410.0 7.5237e-05
11430.0 7.498e-05
11450.0 7.4719e-05
11470.0 7.445e-05
11490.0 7.4151e-05
11510.0 7.3812e-05
11530.0 7.3453e-05
11550.0 7.306e-05
11570.0 7.2611e-05
11590.0 7.212e-05
11610.0 7.1602e-05
11630.0 7.1017e-05
11650.0 7.0367e-05
11670.0 6.9694e-05
11690.0 6.8972e-05
11710.0 6.8171e-05
11730.0 6.7323e-05
11750.0 6.6455e-05
11770.0 6.5501e-05
11790.0 6.4479e-05
11810.0 6.3438e-05
11830.0 6.2353e-05
11850.0 6.1168e-05
11870.0 5.998e-05
11890.0 5.8804e-05
11910.0 5.7578e-05
11930.0 5.6332e-05
11950.0 5.5139e-05
11970.0 5.3952e-05
11990.0 5.2744e-05
12010.0 5.1602e-05
12030.0 5.0525e-05
12050.0 4.9464e-05
12070.0 4.8435e-05
12090.0 4.7518e-05
12110.0 4.6643e-05
12130.0 4.5805e-05
12150.0 4.5045e-05
12170.0 4.4366e-05
12190.0 4.3716e-05
12210.0 4.3142e-05
12230.0 4.2657e-05
12250.0 4.2235e-05
12270.0 4.1877e-05
12290.0 4.1599e-05
12310.0 4.1391e-05
12330.0 4.1242e-05
12350.0 4.1155e-05
12370.0 4.1119e-05
12390.0 4.1128e-05
12410.0 4.1183e-05
12430.0 4.1263e-05
12450.0 4.1363e-05
12470.0 4.1487e-05
12490.0 4.1623e-05
12510.0 4.1755e-05
12530.0 4.1895e-05
12550.0 4.2037e-05
12570.0 4.2163e-05
12590.0 4.2273e-05
12610.0 4.2372e-05
12630.0 4.2444e-05
12650.0 4.2476e-05
12670.0 4.2476e-05
12690.0 4.2432e-05
12710.0 4.234e-05
12730.0 4.22e-05
12750.0 4.2001e-05
12770.0 4.1749e-05
12790.0 4.1452e-05
12810.0 4.1102e-05
12830.0 4.07e-05
12850.0 4.0277e-05
12870.0 3.9829e-05
12890.0 3.9348e-05
12910.0 3.886e-05
12930.0 3.8382e-05
12950.0 3.7892e-05
12970.0 3.7402e-05
12990.0 3.6946e-05
13010.0 3.6505e-05
13030.0 3.6072e-05
13050.0 3.5663e-05
13070.0 3.5286e-05
13090.0 3.4915e-05
13110.0 3.4561e-05
13130.0 3.4233e-05
13150.0 3.3921e-05
13170.0 3.3613e-05
13190.0 3.333e-05
13210.0 3.3067e-05
13230.0 3.2811e-05
13250.0 3.2568e-05
13270.0 3.2344e-05
13290.0 3.2128e-05
13310.0 3.1916e-05
13330.0 3.1716e-05
13350.0 3.1524e-05
13370.0 3.1329e-05
13390.0 3.1131e-05
13410.0 3.0939e-05
13430.0 3.0738e-05
13450.0 3.0524e-05
13470.0 3.0304e-05
13490.0 3.0078e-05
13510.0 2.9827e-05
13530.0 2.9564e-05
13550.0 2.9296e-05
13570.0 2.9013e-05
13590.0 2.871e-05
13610.0 2.8405e-05
13630.0 2.81e-05
13650.0 2.7776e-05
13670.0 2.745e-05
13690.0 2.7131e-05
13710.0 2.6808e-05
13730.0 2.6471e-05
13750.0 2.6153e-05
13770.0 2.584e-05
13790.0 2.5522e-05
13810.0 2.5211e-05
13830.0 2.4917e-05
13850.0 2.462e-05
13870.0 2.4326e-05
13890.0 2.4051e-05
13910.0 2.3788e-05
13930.0 2.3527e-05
13950.0 2.3281e-05
13970.0 2.306e-05
13990.0 2.2847e-05
14010.0 2.2647e-05
14030.0 2.2466e-05
14050.0 2.2301e-05
14070.0 2.2141e-05
14090.0 2.1997e-05
14110.0 2.1868e-05
14130.0 2.1745e-05
14150.0 2.1627e-05
14170.0 2.1521e-05
14190.0 2.142e-05
14210.0 2.1319e-05
14230.0 2.1223e-05
14250.0 2.1132e-05
14270.0 2.1038e-05
14290.0 2.0944e-05
14310.0 2.0854e-05
14330.0 2.0764e-05
14350.0 2.067e-05
14370.0 2.0577e-05
14390.0 2.0488e-05
14410.0 2.0394e-05
14430.0 2.03e-05
14450.0 2.0211e-05
14470.0 2.0121e-05
14490.0 2.0029e-05
14510.0 1.9941e-05
14530.0 1.9857e-05
14550.0 1.9769e-05
14570.0 1.968e-05
14590.0 1.9594e-05
14610.0 1.9503e-05
14630.0 1.9405e-05
14650.0 1.9308e-05
14670.0 1.9211e-05
14690.0 1.9112e-05
14710.0 1.9016e-05
14730.0 1.8936e-05
14750.0 1.8868e-05
14770.0 1.882e-05
14790.0 1.8803e-05
14810.0 1.8819e-05
14830.0 1.8879e-05
14850.0 1.8987e-05
14870.0 1.9139e-05
14890.0 1.934e-05
14910.0 1.9588e-05
14930.0 1.9858e-05
14950.0 2.0138e-05
14970.0 2.0425e-05
14990.0 2.0688e-05
15010.0 2.0911e-05
15030.0 2.1097e-05
15050.0 2.1245e-05
15070.0 2.1349e-05
15090.0 2.1425e-05
15110.0 2.1482e-05
15130.0 2.1528e-05
15150.0 2.1566e-05
15170.0 2.1602e-05
15190.0 2.1636e-05
15210.0 2.1671e-05
15230.0 2.1707e-05
15250.0 2.1742e-05
15270.0 2.1779e-05
15290.0 2.1817e-05
15310.0 2.1855e-05
15330.0 2.1894e-05
15350.0 2.1934e-05
15370.0 2.1975e-05
15390.0 2.2017e-05
15410.0 2.2059e-05
15430.0 2.2102e-05
15450.0 2.2145e-05
15470.0 2.219e-05
15490.0 2.2235e-05
15510.0 2.2281e-05
15530.0 2.2327e-05
15550.0 2.2375e-05
15570.0 2.2423e-05
15590.0 2.2471e-05
15610.0 2.252e-05
15630.0 2.257e-05
15650.0 2.2621e-05
15670.0 2.2672e-05
15690.0 2.2723e-05
15710.0 2.2776e-05
15730.0 2.2829e-05
15750.0 2.2882e-05
15770.0 2.2936e-05
15790.0 2.299e-05
15810.0 2.3045e-05
15830.0 2.3101e-05
15850.0 2.3157e-05
15870.0 2.3213e-05
15890.0 2.327e-05
15910.0 2.3328e-05
15930.0 2.3386e-05
15950.0 2.3444e-05
15970.0 2.3502e-05
15990.0 2.3562e-05
16010.0 2.3621e-05
16030.0 2.368e-05
16050.0 2.3741e-05
16070.0 2.3801e-05
16090.0 2.3862e-05
16110.0 2.3923e-05
16130.0 2.3984e-05
16150.0 2.4045e-05
16170.0 2.4107e-05
16190.0 2.4169e-05
16210.0 2.4231e-05
16230.0 2.4293e-05
16250.0 2.4355e-05
16270.0 2.4418e-05
16290.0 2.448e-05
16310.0 2.4543e-05
16330.0 2.4606e-05
16350.0 2.4669e-05
16370.0 2.4731e-05
16390.0 2.4794e-05
16410.0 2.4857e-05
16430.0 2.492e-05
16450.0 2.4982e-05
16470.0 2.5045e-05
16490.0 2.5107e-05
16510.0 2.517e-05
16530.0 2.5232e-05
16550.0 2.5294e-05
16570.0 2.5356e-05
16590.0 2.5417e-05
16610.0 2.5479e-05
16630.0 2.554e-05
16650.0 2.56e-05
16670.0 2.5661e-05
16690.0 2.5721e-05
16710.0 2.5781e-05
16730.0 2.584e-05
16750.0 2.5899e-05
16770.0 2.5958e-05
16790.0 2.6016e-05
16810.0 2.6073e-05
16830.0 2.6131e-05
16850.0 2.6187e-05
16870.0 2.6243e-05
16890.0 2.6299e-05
16910.0 2.6354e-05
16930.0 2.6408e-05
16950.0 2.6462e-05
16970.0 2.6515e-05
16990.0 2.6567e-05
17010.0 2.6618e-05
17030.0 2.6669e-05
17050.0 2.672e-05
17070.0 2.6769e-05
17090.0 2.6817e-05
17110.0 2.6865e-05
17130.0 2.6912e-05
17150.0 2.6958e-05
17170.0 2.7003e-05
17190.0 2.7047e-05
17210.0 2.7091e-05
17230.0 2.7133e-05
17250.0 2.7175e-05
17270.0 2.7215e-05
17290.0 2.7254e-05
17310.0 2.7293e-05
17330.0 2.733e-05
17350.0 2.7366e-05
17370.0 2.7402e-05
17390.0 2.7436e-05
17410.0 2.7469e-05
17430.0 2.75e-05
17450.0 2.7531e-05
17470.0 2.756e-05
17490.0 2.7589e-05
17510.0 2.7616e-05
17530.0 2.7642e-05
17550.0 2.7666e-05
17570.0 2.769e-05
17590.0 2.7712e-05
17610.0 2.7732e-05
17630.0 2.7752e-05
17650.0 2.777e-05
17670.0 2.7787e-05
17690.0 2.7802e-05
17710.0 2.7816e-05
17730.0 2.7829e-05
17750.0 2.784e-05
17770.0 2.785e-05
17790.0 2.7859e-05
17810.0 2.7866e-05
17830.0 2.7871e-05
17850.0 2.7876e-05
17870.0 2.7879e-05
17890.0 2.788e-05
17910.0 2.788e-05
17930.0 2.7878e-05
17950.0 2.7875e-05
17970.0 2.787e-05
17990.0 2.7864e-05
18010.0 2.7857e-05
18030.0 2.7848e-05
18050.0 2.7837e-05
18070.0 2.7825e-05
18090.0 2.7811e-05
18110.0 2.7796e-05
18130.0 2.778e-05
18150.0 2.7761e-05
18170.0 2.7742e-05
18190.0 2.772e-05
18210.0 2.7698e-05
18230.0 2.7673e-05
18250.0 2.7647e-05
18270.0 2.762e-05
18290.0 2.7591e-05
18310.0 2.7561e-05
18330.0 2.7529e-05
18350.0 2.7495e-05
18370.0 2.746e-05
18390.0 2.7424e-05
18410.0 2.7386e-05
18430.0 2.7346e-05
18450.0 2.7305e-05
18470.0 2.7262e-05
18490.0 2.7219e-05
18510.0 2.7173e-05
18530.0 2.7126e-05
18550.0 2.7077e-05
18570.0 2.7028e-05
18590.0 2.6976e-05
18610.0 2.6923e-05
18630.0 2.6869e-05
18650.0 2.6813e-05
18670.0 2.6756e-05
18690.0 2.6697e-05
18710.0 2.6637e-05
18730.0 2.6576e-05
18750.0 2.6513e-05
18770.0 2.6449e-05
18790.0 2.6384e-05
18810.0 2.6317e-05
18830.0 2.6249e-05
18850.0 2.6179e-05
18870.0 2.6108e-05
18890.0 2.6036e-05
18910.0 2.5963e-05
18930.0 2.5888e-05
18950.0 2.5813e-05
18970.0 2.5736e-05
18990.0 2.5657e-05
19010.0 2.5577e-05
19030.0 2.5497e-05
19050.0 2.5415e-05
19070.0 2.5332e-05
19090.0 2.5248e-05
19110.0 2.5163e-05
19130.0 2.5076e-05
19150.0 2.4989e-05
19170.0 2.49e-05
19190.0 2.481e-05
19210.0 2.472e-05
19230.0 2.4628e-05
19250.0 2.4535e-05
19270.0 2.4442e-05
19290.0 2.4347e-05
19310.0 2.4252e-05
19330.0 2.4155e-05
19350.0 2.4058e-05
19370.0 2.3959e-05
19390.0 2.386e-05
19410.0 2.376e-05
19430.0 2.3659e-05
19450.0 2.3558e-05
19470.0 2.3455e-05
19490.0 2.3352e-05
19510.0 2.3248e-05
19530.0 2.3144e-05
19550.0 2.3038e-05
19570.0 2.2932e-05
19590.0 2.2825e-05
19610.0 2.2718e-05
19630.0 2.261e-05
19650.0 2.2501e-05
19670.0 2.2392e-05
19690.0 2.2282e-05
19710.0 2.2172e-05
19730.0 2.2061e-05
19750.0 2.1949e-05
19770.0 2.1837e-05
19790.0 2.1725e-05
19810.0 2.1612e-05
19830.0 2.1498e-05
19850.0 2.1383e-05
19870.0 2.1266e-05
19890.0 2.1145e-05
19910.0 2.1017e-05
19930.0 2.0878e-05
19950.0 2.0724e-05
19970.0 2.0545e-05
19990.0 2.0338e-05
20010.0 2.0106e-05
20030.0 1.984e-05
20050.0 1.9541e-05
20070.0 1.9224e-05
20090.0 1.8893e-05
20110.0 1.8536e-05
20130.0 1.8182e-05
20150.0 1.7835e-05
20170.0 1.7483e-05
20190.0 1.7133e-05
20210.0 1.6799e-05
20230.0 1.6473e-05
20250.0 1.6145e-05
20270.0 1.5833e-05
20290.0 1.5536e-05
20310.0 1.5244e-05
20330.0 1.4958e-05
20350.0 1.4697e-05
20370.0 1.4447e-05
20390.0 1.4205e-05
20410.0 1.398e-05
20430.0 1.3772e-05
20450.0 1.3571e-05
20470.0 1.3385e-05
20490.0 1.3216e-05
20510.0 1.3058e-05
20530.0 1.2911e-05
20550.0 1.2777e-05
20570.0 1.2655e-05
20590.0 1.2542e-05
20610.0 1.2437e-05
20630.0 1.2341e-05
20650.0 1.2251e-05
20670.0 1.2167e-05
20690.0 1.2088e-05
20710.0 1.2011e-05
20730.0 1.1937e-05
20750.0 1.1864e-05
20770.0 1.1791e-05
20790.0 1.1717e-05
20810.0 1.1641e-05
20830.0 1.1562e-05
20850.0 1.148e-05
20870.0 1.1393e-05
20890.0 1.1302e-05
20910.0 1.1207e-05
20930.0 1.1107e-05
20950.0 1.1001e-05
20970.0 1.0892e-05
20990.0 1.0778e-05
21010.0 1.0658e-05
21030.0 1.0535e-05
21050.0 1.0409e-05
21070.0 1.028e-05
21090.0 1.0145e-05
21110.0 1.0012e-05
21130.0 9.8773e-06
21150.0 9.7394e-06
21170.0 9.6014e-06
21190.0 9.4656e-06
21210.0 9.3276e-06
21230.0 9.1888e-06
21250.0 9.0538e-06
21270.0 8.9204e-06
21290.0 8.7864e-06
21310.0 8.6551e-06
21330.0 8.529e-06
21350.0 8.4032e-06
21370.0 8.2795e-06
21390.0 8.1609e-06
21410.0 8.046e-06
21430.0 7.9317e-06
21450.0 7.8232e-06
21470.0 7.7202e-06
21490.0 7.6201e-06
21510.0 7.5239e-06
21530.0 7.4335e-06
21550.0 7.347e-06
21570.0 7.2635e-06
21590.0 7.1847e-06
21610.0 7.1101e-06
21630.0 7.0383e-06
21650.0 6.9694e-06
21670.0 6.9042e-06
21690.0 6.8411e-06
21710.0 6.7797e-06
21730.0 6.7202e-06
21750.0 6.6621e-06
21770.0 6.6048e-06
21790.0 6.5482e-06
21810.0 6.4922e-06
21830.0 6.4364e-06
21850.0 6.3805e-06
21870.0 6.3247e-06
21890.0 6.269e-06
21910.0 6.2127e-06
21930.0 6.156e-06
21950.0 6.0993e-06
21970.0 6.0419e-06
21990.0 5.9835e-06
22010.0 5.9249e-06
22030.0 5.8659e-06
22050.0 5.8057e-06
22070.0 5.7446e-06
22090.0 5.6834e-06
22110.0 5.6208e-06
22130.0 5.5567e-06
22150.0 5.4922e-06
22170.0 5.4269e-06
22190.0 5.3593e-06
22210.0 5.2907e-06
22230.0 5.2223e-06
22250.0 5.1522e-06
22270.0 5.0805e-06
22290.0 5.0088e-06
22310.0 4.9368e-06
22330.0 4.8623e-06
22350.0 4.7876e-06
22370.0 4.7136e-06
22390.0 4.6383e-06
22410.0 4.5614e-06
22430.0 4.4863e-06
22450.0 4.4115e-06
22470.0 4.3352e-06
22490.0 4.2597e-06
22510.0 4.186e-06
22530.0 4.1112e-06
22550.0 4.0364e-06
22570.0 3.9644e-06
22590.0 3.8936e-06
22610.0 3.8227e-06
22630.0 3.7539e-06
