#lamb flux
1010.0 6.0197e-06
1030.0 6.5485e-06
1050.0 7.1727e-06
1070.0 7.8754e-06
1090.0 8.669e-06
1110.0 9.484e-06
1130.0 1.0305e-05
1150.0 1.1165e-05
1170.0 1.2052e-05
1190.0 1.2893e-05
1210.0 1.3743e-05
1230.0 1.4619e-05
1250.0 1.5475e-05
1270.0 1.6304e-05
1290.0 1.7175e-05
1310.0 1.8042e-05
1330.0 1.8869e-05
1350.0 1.9701e-05
1370.0 2.0558e-05
1390.0 2.139e-05
1410.0 2.2196e-05
1430.0 2.3038e-05
1450.0 2.388e-05
1470.0 2.4695e-05
1490.0 2.552e-05
1510.0 2.6396e-05
1530.0 2.7229e-05
1550.0 2.8054e-05
1570.0 2.8912e-05
1590.0 2.9776e-05
1610.0 3.0607e-05
1630.0 3.147e-05
1650.0 3.2361e-05
1670.0 3.3228e-05
1690.0 3.409e-05
1710.0 3.4987e-05
1730.0 3.5893e-05
1750.0 3.6749e-05
1770.0 3.763e-05
1790.0 3.8528e-05
1810.0 3.9395e-05
1830.0 4.0244e-05
1850.0 4.1137e-05
1870.0 4.1999e-05
1890.0 4.2822e-05
1910.0 4.3648e-05
1930.0 4.4479e-05
1950.0 4.5254e-05
1970.0 4.6001e-05
1990.0 4.6758e-05
2010.0 4.7481e-05
2030.0 4.8151e-05
2050.0 4.8825e-05
2070.0 4.9499e-05
2090.0 5.0102e-05
2110.0 5.0684e-05
2130.0 5.1271e-05
2150.0 5.1825e-05
2170.0 5.2328e-05
2190.0 5.2848e-05
2210.0 5.336e-05
2230.0 5.3831e-05
2250.0 5.429e-05
2270.0 5.4776e-05
2290.0 5.5233e-05
2310.0 5.5655e-05
2330.0 5.6099e-05
2350.0 5.6548e-05
2370.0 5.6969e-05
2390.0 5.7401e-05
2410.0 5.7879e-05
2430.0 5.8349e-05
2450.0 5.8823e-05
2470.0 5.9349e-05
2490.0 5.9936e-05
2510.0 6.0561e-05
2530.0 6.1386e-05
2550.0 6.2652e-05
2570.0 6.4612e-05
2590.0 6.76e-05
2610.0 7.2475e-05
2630.0 7.9514e-05
2650.0 8.8427e-05
2670.0 9.938e-05
2690.0 0.00011201
2710.0 0.00012452
2730.0 0.00013586
2750.0 0.00014577
2770.0 0.0001528
2790.0 0.00015654
2810.0 0.00015736
2830.0 0.0001553
2850.0 0.00015118
2870.0 0.00014571
2890.0 0.00013908
2910.0 0.00013191
2930.0 0.00012483
2950.0 0.00011738
2970.0 0.00010974
2990.0 0.00010241
3010.0 0.00013852
3030.0 0.0001277
3050.0 0.00011701
3070.0 0.00010718
3090.0 9.7339e-05
3110.0 8.7946e-05
3130.0 7.9849e-05
3150.0 7.4387e-05
3170.0 7.0028e-05
3190.0 0.00011559
3210.0 0.00032532
3230.0 0.00066507
3250.0 0.0008439
3270.0 0.00074519
3290.0 0.00057199
3310.0 0.00047336
3330.0 0.00044351
3350.0 0.00045542
3370.0 0.00047958
3390.0 0.00050528
3410.0 0.00053124
3430.0 0.00055552
3450.0 0.00058186
3470.0 0.0006105
3490.0 0.00063001
3510.0 0.00060995
3530.0 0.00062302
3550.0 0.00078138
3570.0 0.00098123
3590.0 0.0010836
3610.0 0.0011175
3630.0 0.0011451
3650.0 0.0011436
3670.0 0.0012122
3690.0 0.0014506
3710.0 0.0017189
3730.0 0.0018944
3750.0 0.0020191
3770.0 0.0020438
3790.0 0.0019647
3810.0 0.0018161
3830.0 0.0015878
3850.0 0.001346
3870.0 0.0012213
3890.0 0.0013662
3910.0 0.0017281
3930.0 0.0020901
3950.0 0.0023052
3970.0 0.0023962
3990.0 0.0024961
4010.0 0.0025539
4030.0 0.0023042
4050.0 0.0018184
4070.0 0.0015692
4090.0 0.001654
4110.0 0.0018209
4130.0 0.0019147
4150.0 0.0019249
4170.0 0.001881
4190.0 0.001849
4210.0 0.0018959
4230.0 0.0020065
4250.0 0.0020964
4270.0 0.0021298
4290.0 0.0021004
4310.0 0.002114
4330.0 0.0022423
4350.0 0.0023941
4370.0 0.002383
4390.0 0.0022102
4410.0 0.0019508
4430.0 0.0016331
4450.0 0.0014089
4470.0 0.0014016
4490.0 0.001531
4510.0 0.0016964
4530.0 0.0018753
4550.0 0.0021555
4570.0 0.0026936
4590.0 0.0034608
4610.0 0.0040879
4630.0 0.004404
4650.0 0.0046641
4670.0 0.0049168
4690.0 0.004809
4710.0 0.0041938
4730.0 0.0033802
4750.0 0.0027247
4770.0 0.0023292
4790.0 0.0021835
4810.0 0.002183
4830.0 0.0023357
4850.0 0.0026409
4870.0 0.0029141
4890.0 0.0030033
4910.0 0.0030738
4930.0 0.0033624
4950.0 0.0037516
4970.0 0.0039524
4990.0 0.0038431
5010.0 0.0034422
5030.0 0.0028828
5050.0 0.0024095
5070.0 0.0021199
5090.0 0.0020011
5110.0 0.0020012
5130.0 0.0020205
5150.0 0.0020025
5170.0 0.0019583
5190.0 0.0019799
5210.0 0.0021273
5230.0 0.0023952
5250.0 0.0027972
5270.0 0.003217
5290.0 0.0035038
5310.0 0.003734
5330.0 0.004025
5350.0 0.0042418
5370.0 0.0041959
5390.0 0.0039726
5410.0 0.0038088
5430.0 0.0039321
5450.0 0.0044005
5470.0 0.0049784
5490.0 0.0053798
5510.0 0.0055044
5530.0 0.0054338
5550.0 0.005257
5570.0 0.0050417
5590.0 0.0048394
5610.0 0.0046918
5630.0 0.0046259
5650.0 0.0045282
5670.0 0.004244
5690.0 0.0038381
5710.0 0.0034741
5730.0 0.003213
5750.0 0.0031189
5770.0 0.0031818
5790.0 0.0032573
5810.0 0.0032772
5830.0 0.0032681
5850.0 0.0031971
5870.0 0.0030883
5890.0 0.0030545
5910.0 0.0030865
5930.0 0.003031
5950.0 0.002818
5970.0 0.0024837
5990.0 0.0021078
6010.0 0.0018344
6030.0 0.001757
6050.0 0.0018526
6070.0 0.0019418
6090.0 0.0018766
6110.0 0.0017705
6130.0 0.0018065
6150.0 0.001959
6170.0 0.002099
6190.0 0.0021791
6210.0 0.0022039
6230.0 0.0021438
6250.0 0.0019534
6270.0 0.0016812
6290.0 0.0014574
6310.0 0.0013781
6330.0 0.00142
6350.0 0.0014929
6370.0 0.0015866
6390.0 0.0017872
6410.0 0.0020887
6430.0 0.0023395
6450.0 0.0024646
6470.0 0.0025338
6490.0 0.0025845
6510.0 0.0026054
6530.0 0.0026193
6550.0 0.0026546
6570.0 0.0026988
6590.0 0.0027289
6610.0 0.0026963
6630.0 0.0025753
6650.0 0.0023923
6670.0 0.0022179
6690.0 0.0021056
6710.0 0.0020205
6730.0 0.0019305
6750.0 0.0018874
6770.0 0.0019307
6790.0 0.0019927
6810.0 0.0020119
6830.0 0.0019799
6850.0 0.0019024
6870.0 0.0018235
6890.0 0.0017792
6910.0 0.0017841
6930.0 0.0018143
6950.0 0.0018383
6970.0 0.0018592
6990.0 0.0018534
7010.0 0.0017947
7030.0 0.0016728
7050.0 0.0015141
7070.0 0.001403
7090.0 0.0013883
7110.0 0.0014111
7130.0 0.0013627
7150.0 0.0012655
7170.0 0.0012531
7190.0 0.001365
7210.0 0.0015218
7230.0 0.001649
7250.0 0.001701
7270.0 0.0016641
7290.0 0.0015784
7310.0 0.0015129
7330.0 0.0015153
7350.0 0.0015519
7370.0 0.0015815
7390.0 0.0016495
7410.0 0.0017858
7430.0 0.0019418
7450.0 0.002063
7470.0 0.0020981
7490.0 0.0019976
7510.0 0.0018566
7530.0 0.0017807
7550.0 0.0016922
7570.0 0.0015983
7590.0 0.0015529
7610.0 0.0015568
7630.0 0.0016134
7650.0 0.0017279
7670.0 0.0018739
7690.0 0.0020072
7710.0 0.0021041
7730.0 0.0021863
7750.0 0.0022545
7770.0 0.002287
7790.0 0.0023236
7810.0 0.0023289
7830.0 0.0022591
7850.0 0.0021811
7870.0 0.0021379
7890.0 0.0021397
7910.0 0.0021449
7930.0 0.0020981
7950.0 0.0020308
7970.0 0.0019602
7990.0 0.0018994
8010.0 0.0018121
8030.0 0.0018172
8050.0 0.0018162
8070.0 0.0017939
8090.0 0.0017783
8110.0 0.0017527
8130.0 0.0017558
8150.0 0.0017444
8170.0 0.0017154
8190.0 0.0016689
8210.0 0.0016156
8230.0 0.0015653
8250.0 0.0015484
8270.0 0.0014603
8290.0 0.0012691
8310.0 0.0010553
8330.0 0.00090966
8350.0 0.00087354
8370.0 0.00096866
8390.0 0.0011072
8410.0 0.0011826
8430.0 0.0012283
8450.0 0.0013136
8470.0 0.0014189
8490.0 0.0015621
8510.0 0.0017283
8530.0 0.0019018
8550.0 0.0020401
8570.0 0.0021431
8590.0 0.0022206
8610.0 0.0022656
8630.0 0.0022602
8650.0 0.0022235
8670.0 0.0022284
8690.0 0.0023442
8710.0 0.002501
8730.0 0.0025771
8750.0 0.0025606
8770.0 0.0025887
8790.0 0.0025914
8810.0 0.0024797
8830.0 0.0023028
8850.0 0.0020802
8870.0 0.0019109
8890.0 0.0018599
8910.0 0.0018292
8930.0 0.001714
8950.0 0.0015877
8970.0 0.0015367
8990.0 0.0015425
9010.0 0.001516
9030.0 0.001489
9050.0 0.0014752
9070.0 0.0014679
9090.0 0.0014614
9110.0 0.0014552
9130.0 0.001449
9150.0 0.0014429
9170.0 0.0014366
9190.0 0.0014315
9210.0 0.0014283
9230.0 0.0014212
9250.0 0.0014147
9270.0 0.0014086
9290.0 0.0014029
9310.0 0.0013972
9330.0 0.0013917
9350.0 0.0013865
9370.0 0.0013813
9390.0 0.001376
9410.0 0.001371
9430.0 0.0013657
9450.0 0.0013585
9470.0 0.0013521
9490.0 0.0013492
9510.0 0.0013454
9530.0 0.0013414
9550.0 0.0013371
9570.0 0.0013326
9590.0 0.0013283
9610.0 0.0013239
9630.0 0.0013194
9650.0 0.001315
9670.0 0.0013108
9690.0 0.0013065
9710.0 0.0013022
9730.0 0.001298
9750.0 0.0012939
9770.0 0.0012896
9790.0 0.0012855
9810.0 0.0012814
9830.0 0.0012772
9850.0 0.0012731
9870.0 0.0012691
9890.0 0.001265
9910.0 0.0012608
9930.0 0.0012567
9950.0 0.001248
9970.0 0.0012452
9990.0 0.0012421
10010.0 0.001239
10030.0 0.0012355
10050.0 0.0012315
10070.0 0.0012275
10090.0 0.0012236
10110.0 0.001219
10130.0 0.0012133
10150.0 0.0012092
10170.0 0.0012053
10190.0 0.0012008
10210.0 0.0011966
10230.0 0.0011924
10250.0 0.0011876
10270.0 0.0011828
10290.0 0.0011783
10310.0 0.0011733
10330.0 0.001168
10350.0 0.001163
10370.0 0.001158
10390.0 0.0011526
10410.0 0.0011471
10430.0 0.001142
10450.0 0.0011364
10470.0 0.0011305
10490.0 0.0011248
10510.0 0.0011191
10530.0 0.0011127
10550.0 0.0011064
10570.0 0.0011004
10590.0 0.001094
10610.0 0.0010872
10630.0 0.0010808
10650.0 0.0010742
10670.0 0.0010669
10690.0 0.0010598
10710.0 0.0010528
10730.0 0.0010454
10750.0 0.0010374
10770.0 0.00103
10790.0 0.0010224
10810.0 0.0010142
10830.0 0.0010061
10850.0 0.00099822
10870.0 0.00098949
10890.0 0.00098063
10910.0 0.00097205
10930.0 0.00096318
10950.0 0.0009537
10970.0 0.0009443
10990.0 0.00093518
11010.0 0.0010017
11030.0 0.00099149
11050.0 0.00098172
11070.0 0.00097178
11090.0 0.00096114
11110.0 0.00095122
11130.0 0.00094153
11150.0 0.00093148
11170.0 0.00092146
11190.0 0.00091205
11210.0 0.00090244
11230.0 0.00089261
11250.0 0.00088328
11270.0 0.00087426
11290.0 0.00086497
11310.0 0.00085586
11330.0 0.00084747
11350.0 0.00083896
11370.0 0.00083031
11390.0 0.00082197
11410.0 0.00081367
11430.0 0.00080468
11450.0 0.00079556
11470.0 0.00078635
11490.0 0.00077645
11510.0 0.00076565
11530.0 0.00075474
11550.0 0.00074333
11570.0 0.00073089
11590.0 0.00071801
11610.0 0.00070509
11630.0 0.0006913
11650.0 0.00067686
11670.0 0.00066284
11690.0 0.0006487
11710.0 0.00063406
11730.0 0.00061959
11750.0 0.00060573
11770.0 0.00059147
11790.0 0.00057717
11810.0 0.00056345
11830.0 0.00054991
11850.0 0.00053588
11870.0 0.00052241
11890.0 0.00050954
11910.0 0.00049652
11930.0 0.00048363
11950.0 0.00047148
11970.0 0.00045957
11990.0 0.00044761
12010.0 0.00043639
12030.0 0.00042584
12050.0 0.00041556
12070.0 0.00040569
12090.0 0.00039695
12110.0 0.00038874
12130.0 0.00038105
12150.0 0.00037427
12170.0 0.00036837
12190.0 0.00036305
12210.0 0.00035866
12230.0 0.00035522
12250.0 0.0003526
12270.0 0.00035086
12290.0 0.00034996
12310.0 0.00034979
12330.0 0.00035042
12350.0 0.00035174
12370.0 0.0003535
12390.0 0.00035579
12410.0 0.00035873
12430.0 0.00036169
12450.0 0.00036479
12470.0 0.00036815
12490.0 0.00037152
12510.0 0.00037459
12530.0 0.00037766
12550.0 0.00038062
12570.0 0.00038311
12590.0 0.00038518
12610.0 0.00038697
12630.0 0.0003882
12650.0 0.00038868
12670.0 0.00038862
12690.0 0.0003879
12710.0 0.00038642
12730.0 0.00038425
12750.0 0.00038135
12770.0 0.00037775
12790.0 0.00037355
12810.0 0.00036875
12830.0 0.00036334
12850.0 0.00035766
12870.0 0.0003517
12890.0 0.00034537
12910.0 0.00033897
12930.0 0.00033265
12950.0 0.0003262
12970.0 0.00031974
12990.0 0.00031363
13010.0 0.00030767
13030.0 0.00030176
13050.0 0.00029611
13070.0 0.0002908
13090.0 0.00028552
13110.0 0.0002804
13130.0 0.00027557
13150.0 0.00027091
13170.0 0.00026627
13190.0 0.0002619
13210.0 0.00025777
13230.0 0.00025372
13250.0 0.0002498
13270.0 0.00024614
13290.0 0.0002426
13310.0 0.00023912
13330.0 0.00023586
13350.0 0.00023278
13370.0 0.00022978
13390.0 0.0002269
13410.0 0.00022426
13430.0 0.00022171
13450.0 0.00021924
13470.0 0.00021692
13490.0 0.00021473
13510.0 0.00021254
13530.0 0.00021045
13550.0 0.00020845
13570.0 0.00020647
13590.0 0.00020448
13610.0 0.00020254
13630.0 0.00020064
13650.0 0.00019868
13670.0 0.00019673
13690.0 0.00019482
13710.0 0.00019289
13730.0 0.00019091
13750.0 0.00018902
13770.0 0.00018716
13790.0 0.0001853
13810.0 0.00018349
13830.0 0.00018178
13850.0 0.00018008
13870.0 0.00017842
13890.0 0.00017685
13910.0 0.00017536
13930.0 0.00017387
13950.0 0.00017243
13970.0 0.00017108
13990.0 0.00016974
14010.0 0.00016839
14030.0 0.00016708
14050.0 0.00016577
14070.0 0.00016438
14090.0 0.000163
14110.0 0.00016163
14130.0 0.00016021
14150.0 0.00015873
14170.0 0.0001573
14190.0 0.00015588
14210.0 0.00015443
14230.0 0.00015304
14250.0 0.00015174
14270.0 0.00015047
14290.0 0.00014927
14310.0 0.00014823
14330.0 0.0001473
14350.0 0.00014646
14370.0 0.00014576
14390.0 0.00014519
14410.0 0.0001447
14430.0 0.00014431
14450.0 0.00014401
14470.0 0.00014376
14490.0 0.00014355
14510.0 0.00014339
14530.0 0.00014326
14550.0 0.00014315
14570.0 0.00014306
14590.0 0.000143
14610.0 0.00014299
14630.0 0.00014305
14650.0 0.0001432
14670.0 0.00014346
14690.0 0.00014389
14710.0 0.00014452
14730.0 0.00014534
14750.0 0.00014643
14770.0 0.00014784
14790.0 0.00014955
14810.0 0.00015155
14830.0 0.00015405
14850.0 0.00015693
14870.0 0.00016008
14890.0 0.00016361
14910.0 0.00016751
14930.0 0.00017143
14950.0 0.00017528
14970.0 0.00017909
14990.0 0.00018252
15010.0 0.00018541
15030.0 0.00018783
15050.0 0.00018981
15070.0 0.00019127
15090.0 0.00019243
15110.0 0.00019339
15130.0 0.00019421
15150.0 0.00019496
15170.0 0.00019569
15190.0 0.00019641
15210.0 0.00019714
15230.0 0.00019789
15250.0 0.00019864
15270.0 0.00019941
15290.0 0.0002002
15310.0 0.00020101
15330.0 0.00020182
15350.0 0.00020265
15370.0 0.0002035
15390.0 0.00020436
15410.0 0.00020523
15430.0 0.00020612
15450.0 0.00020702
15470.0 0.00020793
15490.0 0.00020886
15510.0 0.0002098
15530.0 0.00021075
15550.0 0.00021172
15570.0 0.0002127
15590.0 0.00021368
15610.0 0.00021468
15630.0 0.0002157
15650.0 0.00021672
15670.0 0.00021775
15690.0 0.00021879
15710.0 0.00021985
15730.0 0.00022091
15750.0 0.00022198
15770.0 0.00022307
15790.0 0.00022416
15810.0 0.00022526
15830.0 0.00022637
15850.0 0.00022748
15870.0 0.00022861
15890.0 0.00022974
15910.0 0.00023088
15930.0 0.00023202
15950.0 0.00023317
15970.0 0.00023433
15990.0 0.0002355
16010.0 0.00023666
16030.0 0.00023784
16050.0 0.00023901
16070.0 0.0002402
16090.0 0.00024138
16110.0 0.00024257
16130.0 0.00024376
16150.0 0.00024495
16170.0 0.00024615
16190.0 0.00024735
16210.0 0.00024855
16230.0 0.00024974
16250.0 0.00025094
16270.0 0.00025214
16290.0 0.00025334
16310.0 0.00025454
16330.0 0.00025574
16350.0 0.00025693
16370.0 0.00025812
16390.0 0.00025931
16410.0 0.0002605
16430.0 0.00026168
16450.0 0.00026286
16470.0 0.00026403
16490.0 0.0002652
16510.0 0.00026637
16530.0 0.00026752
16550.0 0.00026867
16570.0 0.00026982
16590.0 0.00027095
16610.0 0.00027208
16630.0 0.0002732
16650.0 0.00027431
16670.0 0.00027541
16690.0 0.00027651
16710.0 0.00027759
16730.0 0.00027866
16750.0 0.00027972
16770.0 0.00028076
16790.0 0.0002818
16810.0 0.00028282
16830.0 0.00028383
16850.0 0.00028483
16870.0 0.00028581
16890.0 0.00028678
16910.0 0.00028774
16930.0 0.00028867
16950.0 0.0002896
16970.0 0.0002905
16990.0 0.00029139
17010.0 0.00029227
17030.0 0.00029312
17050.0 0.00029396
17070.0 0.00029478
17090.0 0.00029558
17110.0 0.00029637
17130.0 0.00029713
17150.0 0.00029787
17170.0 0.0002986
17190.0 0.0002993
17210.0 0.00029998
17230.0 0.00030065
17250.0 0.00030129
17270.0 0.0003019
17290.0 0.0003025
17310.0 0.00030308
17330.0 0.00030363
17350.0 0.00030416
17370.0 0.00030467
17390.0 0.00030515
17410.0 0.00030561
17430.0 0.00030605
17450.0 0.00030646
17470.0 0.00030685
17490.0 0.00030721
17510.0 0.00030755
17530.0 0.00030786
17550.0 0.00030815
17570.0 0.00030842
17590.0 0.00030866
17610.0 0.00030887
17630.0 0.00030906
17650.0 0.00030923
17670.0 0.00030936
17690.0 0.00030947
17710.0 0.00030956
17730.0 0.00030962
17750.0 0.00030966
17770.0 0.00030967
17790.0 0.00030965
17810.0 0.00030961
17830.0 0.00030954
17850.0 0.00030944
17870.0 0.00030932
17890.0 0.00030918
17910.0 0.000309
17930.0 0.00030881
17950.0 0.00030859
17970.0 0.00030834
17990.0 0.00030806
18010.0 0.00030776
18030.0 0.00030744
18050.0 0.00030709
18070.0 0.00030672
18090.0 0.00030632
18110.0 0.00030589
18130.0 0.00030545
18150.0 0.00030497
18170.0 0.00030448
18190.0 0.00030396
18210.0 0.00030341
18230.0 0.00030285
18250.0 0.00030226
18270.0 0.00030164
18290.0 0.00030101
18310.0 0.00030035
18330.0 0.00029967
18350.0 0.00029897
18370.0 0.00029824
18390.0 0.0002975
18410.0 0.00029673
18430.0 0.00029595
18450.0 0.00029514
18470.0 0.00029431
18490.0 0.00029346
18510.0 0.0002926
18530.0 0.00029171
18550.0 0.00029081
18570.0 0.00028988
18590.0 0.00028894
18610.0 0.00028798
18630.0 0.000287
18650.0 0.00028601
18670.0 0.000285
18690.0 0.00028397
18710.0 0.00028293
18730.0 0.00028187
18750.0 0.0002808
18770.0 0.00027971
18790.0 0.00027861
18810.0 0.00027749
18830.0 0.00027636
18850.0 0.00027521
18870.0 0.00027405
18890.0 0.00027288
18910.0 0.0002717
18930.0 0.00027051
18950.0 0.0002693
18970.0 0.00026809
18990.0 0.00026686
19010.0 0.00026562
19030.0 0.00026437
19050.0 0.00026311
19070.0 0.00026184
19090.0 0.00026057
19110.0 0.00025929
19130.0 0.00025799
19150.0 0.00025669
19170.0 0.00025538
19190.0 0.00025407
19210.0 0.00025275
19230.0 0.00025142
19250.0 0.00025009
19270.0 0.00024875
19290.0 0.0002474
19310.0 0.00024605
19330.0 0.0002447
19350.0 0.00024334
19370.0 0.00024198
19390.0 0.00024061
19410.0 0.00023924
19430.0 0.00023787
19450.0 0.00023649
19470.0 0.00023512
19490.0 0.00023374
19510.0 0.00023236
19530.0 0.00023098
19550.0 0.00022959
19570.0 0.00022821
19590.0 0.00022682
19610.0 0.00022544
19630.0 0.00022406
19650.0 0.00022267
19670.0 0.00022129
19690.0 0.00021991
19710.0 0.00021852
19730.0 0.00021714
19750.0 0.00021577
19770.0 0.00021439
19790.0 0.00021301
19810.0 0.00021164
19830.0 0.00021026
19850.0 0.00020888
19870.0 0.00020749
19890.0 0.00020605
19910.0 0.00020454
19930.0 0.00020291
19950.0 0.00020112
19970.0 0.00019905
19990.0 0.00019667
20010.0 0.00019401
20030.0 0.00019096
20050.0 0.00018755
20070.0 0.00018395
20090.0 0.00018019
20110.0 0.00017615
20130.0 0.00017216
20150.0 0.00016827
20170.0 0.00016436
20190.0 0.00016049
20210.0 0.00015684
20230.0 0.00015329
20250.0 0.00014978
20270.0 0.00014647
20290.0 0.00014337
20310.0 0.00014037
20330.0 0.00013747
20350.0 0.00013486
20370.0 0.0001324
20390.0 0.00013005
20410.0 0.0001279
20430.0 0.00012594
20450.0 0.00012408
20470.0 0.00012237
20490.0 0.00012083
20510.0 0.00011941
20530.0 0.00011809
20550.0 0.00011689
20570.0 0.00011579
20590.0 0.00011477
20610.0 0.00011382
20630.0 0.00011294
20650.0 0.00011209
20670.0 0.00011129
20690.0 0.00011051
20710.0 0.00010974
20730.0 0.00010898
20750.0 0.00010821
20770.0 0.00010742
20790.0 0.00010662
20810.0 0.00010578
20830.0 0.00010492
20850.0 0.00010402
20870.0 0.00010307
20890.0 0.00010209
20910.0 0.00010108
20930.0 0.00010002
20950.0 9.8929e-05
20970.0 9.7817e-05
20990.0 9.6689e-05
21010.0 9.5515e-05
21030.0 9.4333e-05
21050.0 9.3157e-05
21070.0 9.1967e-05
21090.0 9.0755e-05
21110.0 8.9577e-05
21130.0 8.8413e-05
21150.0 8.724e-05
21170.0 8.6088e-05
21190.0 8.4976e-05
21210.0 8.3864e-05
21230.0 8.2764e-05
21250.0 8.1712e-05
21270.0 8.0688e-05
21290.0 7.9676e-05
21310.0 7.8699e-05
21330.0 7.7772e-05
21350.0 7.6862e-05
21370.0 7.598e-05
21390.0 7.5145e-05
21410.0 7.4345e-05
21430.0 7.3562e-05
21450.0 7.2826e-05
21470.0 7.2132e-05
21490.0 7.1466e-05
21510.0 7.0832e-05
21530.0 7.0236e-05
21550.0 6.9669e-05
21570.0 6.9127e-05
21590.0 6.8614e-05
21610.0 6.8127e-05
21630.0 6.7659e-05
21650.0 6.721e-05
21670.0 6.678e-05
21690.0 6.6364e-05
21710.0 6.596e-05
21730.0 6.5567e-05
21750.0 6.5183e-05
21770.0 6.4808e-05
21790.0 6.444e-05
21810.0 6.4077e-05
21830.0 6.372e-05
21850.0 6.337e-05
21870.0 6.3023e-05
21890.0 6.2679e-05
21910.0 6.234e-05
21930.0 6.2004e-05
21950.0 6.1668e-05
21970.0 6.1334e-05
21990.0 6.0999e-05
22010.0 6.0663e-05
22030.0 6.0323e-05
22050.0 5.998e-05
22070.0 5.9631e-05
22090.0 5.9277e-05
22110.0 5.8916e-05
22130.0 5.8546e-05
22150.0 5.8169e-05
22170.0 5.7786e-05
22190.0 5.739e-05
22210.0 5.6985e-05
22230.0 5.6576e-05
22250.0 5.6155e-05
22270.0 5.5722e-05
22290.0 5.5283e-05
22310.0 5.4837e-05
22330.0 5.4369e-05
22350.0 5.3891e-05
22370.0 5.3406e-05
22390.0 5.29e-05
22410.0 5.2368e-05
22430.0 5.1831e-05
22450.0 5.1277e-05
22470.0 5.0691e-05
22490.0 5.0088e-05
22510.0 4.9478e-05
22530.0 4.8832e-05
22550.0 4.8158e-05
22570.0 4.7486e-05
22590.0 4.68e-05
22610.0 4.6087e-05
22630.0 4.5371e-05
22650.0 4.4673e-05
22670.0 4.3955e-05
22690.0 4.3235e-05
22710.0 4.2542e-05
22730.0 4.1861e-05
22750.0 4.1167e-05
22770.0 4.0512e-05
22790.0 3.9892e-05
22810.0 3.9282e-05
22830.0 3.8694e-05
22850.0 3.8151e-05
22870.0 3.7631e-05
22890.0 3.7125e-05
22910.0 3.6657e-05
22930.0 3.6222e-05
22950.0 3.5803e-05
22970.0 3.5402e-05
22990.0 3.504e-05
23010.0 3.4692e-05
23030.0 3.4356e-05
