#lamb flux
1010.0 1.4461e-07
1030.0 1.5962e-07
1050.0 1.7687e-07
1070.0 1.963e-07
1090.0 2.1837e-07
1110.0 2.41e-07
1130.0 2.6378e-07
1150.0 2.8765e-07
1170.0 3.1226e-07
1190.0 3.356e-07
1210.0 3.5926e-07
1230.0 3.837e-07
1250.0 4.0765e-07
1270.0 4.3091e-07
1290.0 4.5549e-07
1310.0 4.8005e-07
1330.0 5.036e-07
1350.0 5.2742e-07
1370.0 5.52e-07
1390.0 5.7598e-07
1410.0 5.9924e-07
1430.0 6.2356e-07
1450.0 6.4788e-07
1470.0 6.7138e-07
1490.0 6.9514e-07
1510.0 7.2024e-07
1530.0 7.4402e-07
1550.0 7.6749e-07
1570.0 7.9177e-07
1590.0 8.1607e-07
1610.0 8.3931e-07
1630.0 8.6326e-07
1650.0 8.8786e-07
1670.0 9.1166e-07
1690.0 9.3516e-07
1710.0 9.5959e-07
1730.0 9.8417e-07
1750.0 1.0073e-06
1770.0 1.0311e-06
1790.0 1.0555e-06
1810.0 1.0791e-06
1830.0 1.1023e-06
1850.0 1.1269e-06
1870.0 1.1509e-06
1890.0 1.1742e-06
1910.0 1.198e-06
1930.0 1.2223e-06
1950.0 1.2456e-06
1970.0 1.2687e-06
1990.0 1.2926e-06
2010.0 1.3162e-06
2030.0 1.339e-06
2050.0 1.3625e-06
2070.0 1.3867e-06
2090.0 1.4095e-06
2110.0 1.4322e-06
2130.0 1.4556e-06
2150.0 1.4786e-06
2170.0 1.5007e-06
2190.0 1.5235e-06
2210.0 1.5465e-06
2230.0 1.5685e-06
2250.0 1.5905e-06
2270.0 1.6134e-06
2290.0 1.6356e-06
2310.0 1.6568e-06
2330.0 1.6789e-06
2350.0 1.7016e-06
2370.0 1.7241e-06
2390.0 1.7485e-06
2410.0 1.7776e-06
2430.0 1.8113e-06
2450.0 1.8518e-06
2470.0 1.9039e-06
2490.0 1.97e-06
2510.0 2.0452e-06
2530.0 2.136e-06
2550.0 2.2498e-06
2570.0 2.3915e-06
2590.0 2.5757e-06
2610.0 2.8515e-06
2630.0 3.2446e-06
2650.0 3.7577e-06
2670.0 4.4201e-06
2690.0 5.2328e-06
2710.0 6.0986e-06
2730.0 6.9522e-06
2750.0 7.7912e-06
2770.0 8.5186e-06
2790.0 9.0936e-06
2810.0 9.5474e-06
2830.0 9.8994e-06
2850.0 1.0136e-05
2870.0 1.0308e-05
2890.0 1.0442e-05
2910.0 1.0546e-05
2930.0 1.0631e-05
2950.0 1.0711e-05
2970.0 1.0789e-05
2990.0 1.0862e-05
3010.0 0.00031153
3030.0 0.0003136
3050.0 0.00031561
3070.0 0.0003173
3090.0 0.00031873
3110.0 0.00031954
3130.0 0.0003193
3150.0 0.00031769
3170.0 0.00031409
3190.0 0.00030857
3210.0 0.00030162
3230.0 0.00029369
3250.0 0.00028581
3270.0 0.00028004
3290.0 0.00027669
3310.0 0.00027703
3330.0 0.00028085
3350.0 0.00028766
3370.0 0.00029745
3390.0 0.00030985
3410.0 0.00032337
3430.0 0.00033856
3450.0 0.00035606
3470.0 0.0003752
3490.0 0.00039549
3510.0 0.00041844
3530.0 0.00044306
3550.0 0.0004681
3570.0 0.00049434
3590.0 0.00052292
3610.0 0.00055257
3630.0 0.00058208
3650.0 0.00061275
3670.0 0.00064069
3690.0 0.00066155
3710.0 0.00067335
3730.0 0.00067311
3750.0 0.00066248
3770.0 0.00066092
3790.0 0.00065678
3810.0 0.00062977
3830.0 0.0006474
3850.0 0.00074135
3870.0 0.00078191
3890.0 0.00076168
3910.0 0.00075864
3930.0 0.00078748
3950.0 0.00081109
3970.0 0.00075151
3990.0 0.00062933
4010.0 0.0018391
4030.0 0.0022064
4050.0 0.0025291
4070.0 0.0022263
4090.0 0.0020209
4110.0 0.0017739
4130.0 0.0016654
4150.0 0.0018138
4170.0 0.0017483
4190.0 0.0018368
4210.0 0.0018389
4230.0 0.0019706
4250.0 0.0023376
4270.0 0.0023823
4290.0 0.0021827
4310.0 0.0022439
4330.0 0.0023697
4350.0 0.0026871
4370.0 0.003079
4390.0 0.0028439
4410.0 0.002052
4430.0 0.0017178
4450.0 0.001582
4470.0 0.0011933
4490.0 0.0013262
4510.0 0.0020822
4530.0 0.0024174
4550.0 0.0024134
4570.0 0.0026559
4590.0 0.0030065
4610.0 0.0042117
4630.0 0.005526
4650.0 0.0059055
4670.0 0.0054379
4690.0 0.0052158
4710.0 0.0055038
4730.0 0.0051304
4750.0 0.0037921
4770.0 0.0027604
4790.0 0.0026138
4810.0 0.0025178
4830.0 0.0023232
4850.0 0.0025447
4870.0 0.0033626
4890.0 0.003957
4910.0 0.0034333
4930.0 0.0030684
4950.0 0.0033883
4970.0 0.0043587
4990.0 0.005906
5010.0 0.0068039
5030.0 0.0059421
5050.0 0.0039862
5070.0 0.0026456
5090.0 0.0021168
5110.0 0.0021568
5130.0 0.0025017
5150.0 0.0026853
5170.0 0.002634
5190.0 0.0024495
5210.0 0.0025772
5230.0 0.0027503
5250.0 0.0029877
5270.0 0.0031745
5290.0 0.0035067
5310.0 0.0041388
5330.0 0.0045718
5350.0 0.0045391
5370.0 0.0047975
5390.0 0.0055561
5410.0 0.0054653
5430.0 0.0047748
5450.0 0.0044244
5470.0 0.0047368
5490.0 0.0057964
5510.0 0.0072227
5530.0 0.0082946
5550.0 0.0079651
5570.0 0.0072331
5590.0 0.0062558
5610.0 0.0058202
5630.0 0.0057328
5650.0 0.0054345
5670.0 0.005131
5690.0 0.0045395
5710.0 0.0044505
5730.0 0.0041211
5750.0 0.0028379
5770.0 0.002195
5790.0 0.0025053
5810.0 0.002809
5830.0 0.0035236
5850.0 0.0042376
5870.0 0.0046901
5890.0 0.0047414
5910.0 0.0046494
5930.0 0.0044275
5950.0 0.0045155
5970.0 0.0051951
5990.0 0.0048176
6010.0 0.0040074
6030.0 0.0033761
6050.0 0.0029472
6070.0 0.0029826
6090.0 0.0032443
6110.0 0.0035931
6130.0 0.0036175
6150.0 0.0030871
6170.0 0.0026815
6190.0 0.0030327
6210.0 0.0040772
6230.0 0.005422
6250.0 0.0058755
6270.0 0.0050656
6290.0 0.0042703
6310.0 0.003326
6330.0 0.002536
6350.0 0.0022832
6370.0 0.0024005
6390.0 0.0027828
6410.0 0.003451
6430.0 0.004043
6450.0 0.0046613
6470.0 0.0052861
6490.0 0.0063763
6510.0 0.007131
6530.0 0.0070327
6550.0 0.0063717
6570.0 0.005366
6590.0 0.0048621
6610.0 0.0041736
6630.0 0.0038419
6650.0 0.003647
6670.0 0.0034938
6690.0 0.0031003
6710.0 0.0028404
6730.0 0.0019504
6750.0 0.0019853
6770.0 0.0022509
6790.0 0.0026365
6810.0 0.0023329
6830.0 0.0023997
6850.0 0.0022142
6870.0 0.0020261
6890.0 0.00192
6910.0 0.0020766
6930.0 0.0019467
6950.0 0.002037
6970.0 0.0021418
6990.0 0.0024249
7010.0 0.0024302
7030.0 0.0025089
7050.0 0.0023652
7070.0 0.0022187
7090.0 0.0022434
7110.0 0.0023197
7130.0 0.002518
7150.0 0.0026952
7170.0 0.0029813
7190.0 0.003269
7210.0 0.0031756
7230.0 0.0032595
7250.0 0.003499
7270.0 0.0038022
7290.0 0.0045368
7310.0 0.0049143
7330.0 0.0047379
7350.0 0.0042814
7370.0 0.0036623
7390.0 0.0035723
7410.0 0.0038542
7430.0 0.0042973
7450.0 0.004675
7470.0 0.0045855
7490.0 0.0041103
7510.0 0.0048466
7530.0 0.0047501
7550.0 0.0043015
7570.0 0.0033059
7590.0 0.0021808
7610.0 0.0018459
7630.0 0.0021438
7650.0 0.002565
7670.0 0.0032781
7690.0 0.0036107
7710.0 0.0037037
7730.0 0.0038717
7750.0 0.004423
7770.0 0.0045002
7790.0 0.0041302
7810.0 0.0037159
7830.0 0.0038545
7850.0 0.0038014
7870.0 0.0035137
7890.0 0.0029246
7910.0 0.0023281
7930.0 0.0022444
7950.0 0.0020435
7970.0 0.0018725
7990.0 0.0018448
8010.0 0.00025394
8030.0 0.00023626
8050.0 0.00024758
8070.0 0.00027516
8090.0 0.00033076
8110.0 0.00031659
8130.0 0.00020154
8150.0 0.00020928
8170.0 0.00013176
8190.0 9.4154e-05
8210.0 0.00020127
8230.0 0.00023882
8250.0 0.00012955
8270.0 0.00010543
8290.0 0.00015786
8310.0 0.00013572
8330.0 8.6919e-05
8350.0 6.5988e-05
8370.0 2.1335e-05
8390.0 7.306e-05
8410.0 8.3382e-05
8430.0 0.00010277
8450.0 0.00011836
8470.0 0.00018243
8490.0 0.00015957
8510.0 0.00013434
8530.0 9.7392e-05
8550.0 0.00022392
8570.0 0.00031576
8590.0 0.00025464
8610.0 0.00036089
8630.0 0.00041023
8650.0 0.000303
8670.0 0.00038012
8690.0 0.00049142
8710.0 0.00042721
8730.0 0.00043438
8750.0 0.00035367
8770.0 0.00032119
8790.0 0.00033981
8810.0 0.00035412
8830.0 0.00022279
8850.0 0.00011852
8870.0 8.5504e-05
8890.0 0.00014597
8910.0 0.00021301
8930.0 0.00027474
8950.0 0.00029515
8970.0 0.00028564
8990.0 0.00021736
9010.0 0.00092619
9030.0 0.00080488
9050.0 0.00081333
9070.0 0.00082445
9090.0 0.00083393
9110.0 0.00084564
9130.0 0.00085437
9150.0 0.00086085
9170.0 0.00086775
9190.0 0.00087512
9210.0 0.00088287
9230.0 0.00089106
9250.0 0.00089933
9270.0 0.00090789
9290.0 0.00091669
9310.0 0.00092549
9330.0 0.00093444
9350.0 0.0009437
9370.0 0.00095303
9390.0 0.00096241
9410.0 0.00097204
9430.0 0.00098196
9450.0 0.00099178
9470.0 0.0010018
9490.0 0.0010121
9510.0 0.0010224
9530.0 0.0010328
9550.0 0.0010436
9570.0 0.0010545
9590.0 0.0010654
9610.0 0.0010765
9630.0 0.001088
9650.0 0.0010994
9670.0 0.0011109
9690.0 0.0011227
9710.0 0.0011346
9730.0 0.0011466
9750.0 0.0011587
9770.0 0.0011712
9790.0 0.0011836
9810.0 0.0011961
9830.0 0.0012089
9850.0 0.0012219
9870.0 0.0012347
9890.0 0.0012478
9910.0 0.0012611
9930.0 0.0012745
9950.0 0.0012878
9970.0 0.0013015
9990.0 0.0013153
10010.0 0.0011451
10030.0 0.001157
10050.0 0.0011692
10070.0 0.0011815
10090.0 0.0011934
10110.0 0.0012057
10130.0 0.0012179
10150.0 0.0012301
10170.0 0.0012425
10190.0 0.001255
10210.0 0.0012674
10230.0 0.0012798
10250.0 0.0012923
10270.0 0.0013048
10290.0 0.0013172
10310.0 0.0013298
10330.0 0.0013424
10350.0 0.0013549
10370.0 0.0013673
10390.0 0.0013799
10410.0 0.0013923
10430.0 0.0014046
10450.0 0.0014169
10470.0 0.0014294
10490.0 0.0014415
10510.0 0.0014536
10530.0 0.0014659
10550.0 0.001478
10570.0 0.0014899
10590.0 0.0015018
10610.0 0.0015137
10630.0 0.0015252
10650.0 0.0015367
10670.0 0.0015483
10690.0 0.0015597
10710.0 0.0015708
10730.0 0.001582
10750.0 0.0015931
10770.0 0.0016038
10790.0 0.0016144
10810.0 0.001625
10830.0 0.0016352
10850.0 0.001645
10870.0 0.0016545
10890.0 0.0016629
10910.0 0.0016697
10930.0 0.0016739
10950.0 0.0016743
10970.0 0.0016695
10990.0 0.0016591
11010.0 0.001559
11030.0 0.0015343
11050.0 0.0015041
11070.0 0.0014679
11090.0 0.0014243
11110.0 0.0013793
11130.0 0.0013323
11150.0 0.0012817
11170.0 0.0012297
11190.0 0.0011792
11210.0 0.0011271
11230.0 0.0010737
11250.0 0.0010228
11270.0 0.00097384
11290.0 0.00092486
11310.0 0.00087848
11330.0 0.00083761
11350.0 0.000799
11370.0 0.0007633
11390.0 0.00073236
11410.0 0.00070526
11430.0 0.00068004
11450.0 0.00065824
11470.0 0.00063934
11490.0 0.00062172
11510.0 0.00060471
11530.0 0.00058891
11550.0 0.00057321
11570.0 0.00055649
11590.0 0.0005392
11610.0 0.00052163
11630.0 0.00050255
11650.0 0.00048216
11670.0 0.00046208
11690.0 0.00044174
11710.0 0.00042078
11730.0 0.00040047
11750.0 0.00038167
11770.0 0.00036323
11790.0 0.00034593
11810.0 0.00033069
11830.0 0.00031703
11850.0 0.00030442
11870.0 0.00029385
11890.0 0.00028502
11910.0 0.00027724
11930.0 0.00027053
11950.0 0.00026491
11970.0 0.00025987
11990.0 0.00025511
12010.0 0.0002507
12030.0 0.00024645
12050.0 0.00024207
12070.0 0.00023754
12090.0 0.00023317
12110.0 0.00022874
12130.0 0.0002243
12150.0 0.0002202
12170.0 0.00021659
12190.0 0.00021345
12210.0 0.0002112
12230.0 0.00021001
12250.0 0.00020997
12270.0 0.00021136
12290.0 0.00021415
12310.0 0.00021824
12330.0 0.00022403
12350.0 0.00023131
12370.0 0.00023963
12390.0 0.00024924
12410.0 0.00026053
12430.0 0.00027202
12450.0 0.00028391
12470.0 0.00029657
12490.0 0.00030929
12510.0 0.00032121
12530.0 0.00033307
12550.0 0.0003445
12570.0 0.00035458
12590.0 0.00036342
12610.0 0.00037129
12630.0 0.00037754
12650.0 0.00038182
12670.0 0.0003846
12690.0 0.00038565
12710.0 0.00038492
12730.0 0.00038258
12750.0 0.0003785
12770.0 0.00037293
12790.0 0.00036621
12810.0 0.0003582
12830.0 0.00034895
12850.0 0.00033929
12870.0 0.00032909
12890.0 0.00031806
12910.0 0.00030686
12930.0 0.00029583
12950.0 0.00028433
12970.0 0.00027264
12990.0 0.00026159
13010.0 0.00025068
13030.0 0.00023965
13050.0 0.00022906
13070.0 0.00021915
13090.0 0.0002092
13110.0 0.00019958
13130.0 0.0001907
13150.0 0.00018229
13170.0 0.00017405
13190.0 0.00016671
13210.0 0.00016024
13230.0 0.00015431
13250.0 0.00014919
13270.0 0.00014514
13290.0 0.00014196
13310.0 0.00013974
13330.0 0.00013868
13350.0 0.0001387
13370.0 0.00013986
13390.0 0.00014223
13410.0 0.00014547
13430.0 0.00014971
13450.0 0.00015497
13470.0 0.00016083
13490.0 0.00016706
13510.0 0.0001741
13530.0 0.00018125
13550.0 0.0001881
13570.0 0.00019488
13590.0 0.00020149
13610.0 0.00020739
13630.0 0.00021255
13650.0 0.00021727
13670.0 0.0002212
13690.0 0.00022425
13710.0 0.00022661
13730.0 0.00022832
13750.0 0.00022919
13770.0 0.00022942
13790.0 0.00022903
13810.0 0.00022804
13830.0 0.00022656
13850.0 0.00022455
13870.0 0.000222
13890.0 0.00021908
13910.0 0.00021578
13930.0 0.00021197
13950.0 0.0002078
13970.0 0.00020353
13990.0 0.00019889
14010.0 0.00019396
14030.0 0.00018903
14050.0 0.00018407
14070.0 0.00017884
14090.0 0.00017382
14110.0 0.0001691
14130.0 0.00016453
14150.0 0.00016023
14170.0 0.00015655
14190.0 0.00015337
14210.0 0.00015066
14230.0 0.00014866
14250.0 0.00014735
14270.0 0.00014671
14290.0 0.00014682
14310.0 0.00014762
14330.0 0.00014908
14350.0 0.00015123
14370.0 0.00015392
14390.0 0.00015698
14410.0 0.00016059
14430.0 0.00016456
14450.0 0.00016862
14470.0 0.00017284
14490.0 0.00017733
14510.0 0.00018163
14530.0 0.00018572
14550.0 0.00018982
14570.0 0.00019375
14590.0 0.00019734
14610.0 0.0002008
14630.0 0.00020423
14650.0 0.00020743
14670.0 0.00021052
14690.0 0.00021373
14710.0 0.0002171
14730.0 0.00022048
14750.0 0.00022421
14770.0 0.00022845
14790.0 0.00023304
14810.0 0.00023801
14830.0 0.00024391
14850.0 0.00025033
14870.0 0.00025703
14890.0 0.00026426
14910.0 0.00027195
14930.0 0.00027934
14950.0 0.00028626
14970.0 0.00029281
14990.0 0.00029832
15010.0 0.00030254
15030.0 0.00030568
15050.0 0.00030777
15070.0 0.00030881
15090.0 0.00030921
15110.0 0.00030915
15130.0 0.0003088
15150.0 0.00030832
15170.0 0.00030774
15190.0 0.00030712
15210.0 0.00030651
15230.0 0.0003059
15250.0 0.00030526
15270.0 0.00030464
15290.0 0.00030405
15310.0 0.00030344
15330.0 0.00030283
15350.0 0.00030224
15370.0 0.00030166
15390.0 0.00030104
15410.0 0.00030045
15430.0 0.00029988
15450.0 0.00029929
15470.0 0.00029869
15490.0 0.00029813
15510.0 0.00029757
15530.0 0.00029698
15550.0 0.00029642
15570.0 0.00029587
15590.0 0.00029529
15610.0 0.00029471
15630.0 0.00029416
15650.0 0.00029361
15670.0 0.00029304
15690.0 0.00029249
15710.0 0.00029196
15730.0 0.0002914
15750.0 0.00029084
15770.0 0.0002903
15790.0 0.00028976
15810.0 0.00028919
15830.0 0.00028865
15850.0 0.00028812
15870.0 0.00028757
15890.0 0.00028702
15910.0 0.0002865
15930.0 0.00028596
15950.0 0.0002854
15970.0 0.00028487
15990.0 0.00028434
16010.0 0.00028379
16030.0 0.00028324
16050.0 0.00028272
16070.0 0.00028219
16090.0 0.00028164
16110.0 0.00028111
16130.0 0.00028059
16150.0 0.00028003
16170.0 0.00027948
16190.0 0.00027895
16210.0 0.00027842
16230.0 0.00027786
16250.0 0.00027733
16270.0 0.0002768
16290.0 0.00027625
16310.0 0.0002757
16330.0 0.00027518
16350.0 0.00027463
16370.0 0.00027406
16390.0 0.00027352
16410.0 0.00027299
16430.0 0.00027243
16450.0 0.00027188
16470.0 0.00027135
16490.0 0.00027079
16510.0 0.00027022
16530.0 0.00026968
16550.0 0.00026913
16570.0 0.00026855
16590.0 0.00026798
16610.0 0.00026745
16630.0 0.00026688
16650.0 0.00026631
16670.0 0.00026575
16690.0 0.0002652
16710.0 0.0002646
16730.0 0.00026403
16750.0 0.00026347
16770.0 0.00026289
16790.0 0.0002623
16810.0 0.00026174
16830.0 0.00026117
16850.0 0.00026057
16870.0 0.00025999
16890.0 0.00025942
16910.0 0.00025882
16930.0 0.00025821
16950.0 0.00025763
16970.0 0.00025704
16990.0 0.00025643
17010.0 0.00025583
17030.0 0.00025525
17050.0 0.00025464
17070.0 0.00025402
17090.0 0.00025342
17110.0 0.00025282
17130.0 0.00025218
17150.0 0.00025157
17170.0 0.00025097
17190.0 0.00025034
17210.0 0.00024971
17230.0 0.00024911
17250.0 0.00024848
17270.0 0.00024783
17290.0 0.00024721
17310.0 0.00024659
17330.0 0.00024594
17350.0 0.00024529
17370.0 0.00024467
17390.0 0.00024403
17410.0 0.00024337
17430.0 0.00024274
17450.0 0.00024211
17470.0 0.00024143
17490.0 0.00024077
17510.0 0.00024013
17530.0 0.00023947
17550.0 0.0002388
17570.0 0.00023814
17590.0 0.0002375
17610.0 0.00023682
17630.0 0.00023614
17650.0 0.00023549
17670.0 0.00023482
17690.0 0.00023411
17710.0 0.00023345
17730.0 0.00023279
17750.0 0.00023209
17770.0 0.00023141
17790.0 0.00023075
17810.0 0.00023005
17830.0 0.00022935
17850.0 0.00022867
17870.0 0.00022799
17890.0 0.00022728
17910.0 0.00022657
17930.0 0.0002259
17950.0 0.0002252
17970.0 0.00022449
17990.0 0.0002238
18010.0 0.00022311
18030.0 0.00022237
18050.0 0.00022167
18070.0 0.00022097
18090.0 0.00022026
18110.0 0.00021953
18130.0 0.00021884
18150.0 0.00021813
18170.0 0.0002174
18190.0 0.00021668
18210.0 0.00021598
18230.0 0.00021525
18250.0 0.00021451
18270.0 0.0002138
18290.0 0.00021309
18310.0 0.00021235
18330.0 0.00021163
18350.0 0.00021092
18370.0 0.00021018
18390.0 0.00020944
18410.0 0.00020872
18430.0 0.00020799
18450.0 0.00020724
18470.0 0.00020651
18490.0 0.00020579
18510.0 0.00020505
18530.0 0.00020431
18550.0 0.00020359
18570.0 0.00020285
18590.0 0.00020209
18610.0 0.00020136
18630.0 0.00020063
18650.0 0.00019988
18670.0 0.00019912
18690.0 0.0001984
18710.0 0.00019766
18730.0 0.00019691
18750.0 0.00019617
18770.0 0.00019545
18790.0 0.00019468
18810.0 0.00019392
18830.0 0.00019319
18850.0 0.00019245
18870.0 0.00019169
18890.0 0.00019095
18910.0 0.00019022
18930.0 0.00018946
18950.0 0.00018871
18970.0 0.00018798
18990.0 0.00018723
19010.0 0.00018645
19030.0 0.00018572
19050.0 0.00018498
19070.0 0.00018422
19090.0 0.00018347
19110.0 0.00018274
19130.0 0.00018198
19150.0 0.00018122
19170.0 0.00018048
19190.0 0.00017974
19210.0 0.00017897
19230.0 0.00017822
19250.0 0.00017749
19270.0 0.00017674
19290.0 0.00017598
19310.0 0.00017525
19330.0 0.00017451
19350.0 0.00017374
19370.0 0.00017299
19390.0 0.00017226
19410.0 0.0001715
19430.0 0.00017074
19450.0 0.00017002
19470.0 0.00016928
19490.0 0.00016852
19510.0 0.00016777
19530.0 0.00016705
19550.0 0.00016629
19570.0 0.00016552
19590.0 0.0001648
19610.0 0.00016406
19630.0 0.0001633
19650.0 0.00016256
19670.0 0.00016184
19690.0 0.00016108
19710.0 0.00016033
19730.0 0.00015961
19750.0 0.00015887
19770.0 0.0001581
19790.0 0.00015737
19810.0 0.00015665
19830.0 0.00015589
19850.0 0.00015514
19870.0 0.0001544
19890.0 0.00015361
19910.0 0.00015274
19930.0 0.00015181
19950.0 0.00015075
19970.0 0.00014946
19990.0 0.0001479
20010.0 0.00013186
20030.0 0.00012994
20050.0 0.00012769
20070.0 0.00012525
20090.0 0.00012264
20110.0 0.00011968
20130.0 0.00011669
20150.0 0.00011373
20170.0 0.00011066
20190.0 0.00010755
20210.0 0.00010461
20230.0 0.00010175
20250.0 9.8878e-05
20270.0 9.6215e-05
20290.0 9.3782e-05
20310.0 9.1471e-05
20330.0 8.931e-05
20350.0 8.7515e-05
20370.0 8.5919e-05
20390.0 8.4518e-05
20410.0 8.3385e-05
20430.0 8.2508e-05
20450.0 8.181e-05
20470.0 8.1339e-05
20490.0 8.108e-05
20510.0 8.0997e-05
20530.0 8.1086e-05
20550.0 8.1326e-05
20570.0 8.1681e-05
20590.0 8.2166e-05
20610.0 8.2756e-05
20630.0 8.3408e-05
20650.0 8.4139e-05
20670.0 8.4977e-05
20690.0 8.5832e-05
20710.0 8.6716e-05
20730.0 8.7671e-05
20750.0 8.8669e-05
20770.0 8.9649e-05
20790.0 9.0678e-05
20810.0 9.1766e-05
20830.0 9.2848e-05
20850.0 9.3934e-05
20870.0 9.5096e-05
20890.0 9.628e-05
20910.0 9.7421e-05
20930.0 9.8603e-05
20950.0 9.9828e-05
20970.0 0.00010102
20990.0 0.0001022
21010.0 0.00010343
21030.0 0.00010464
21050.0 0.0001058
21070.0 0.00010695
21090.0 0.0001081
21110.0 0.00010915
21130.0 0.00011014
21150.0 0.00011109
21170.0 0.00011195
21190.0 0.0001127
21210.0 0.00011336
21230.0 0.00011392
21250.0 0.00011431
21270.0 0.00011456
21290.0 0.00011465
21310.0 0.00011455
21330.0 0.00011428
21350.0 0.0001138
21370.0 0.0001131
21390.0 0.00011221
21410.0 0.00011112
21430.0 0.00010975
21450.0 0.00010821
21470.0 0.00010653
21490.0 0.00010463
21510.0 0.00010255
21530.0 0.00010044
21550.0 9.822e-05
21570.0 9.5859e-05
21590.0 9.3536e-05
21610.0 9.1292e-05
21630.0 8.9046e-05
21650.0 8.6851e-05
21670.0 8.4948e-05
21690.0 8.3193e-05
21710.0 8.1612e-05
21730.0 8.0317e-05
21750.0 7.9316e-05
21770.0 7.8552e-05
21790.0 7.8111e-05
21810.0 7.7985e-05
21830.0 7.8151e-05
21850.0 7.8632e-05
21870.0 7.9384e-05
21890.0 8.0357e-05
21910.0 8.1606e-05
21930.0 8.3073e-05
21950.0 8.4663e-05
21970.0 8.6424e-05
21990.0 8.8401e-05
22010.0 9.0378e-05
22030.0 9.2385e-05
22050.0 9.4494e-05
22070.0 9.6615e-05
22090.0 9.8622e-05
22110.0 0.00010065
22130.0 0.00010267
22150.0 0.00010456
22170.0 0.00010634
22190.0 0.0001081
22210.0 0.00010974
22230.0 0.00011119
22250.0 0.00011255
22270.0 0.0001138
22290.0 0.00011487
22310.0 0.00011578
22330.0 0.00011659
22350.0 0.00011721
22370.0 0.00011765
22390.0 0.00011792
22410.0 0.00011801
22430.0 0.00011789
22450.0 0.00011758
22470.0 0.00011706
22490.0 0.00011632
22510.0 0.0001154
22530.0 0.00011422
22550.0 0.00011279
22570.0 0.00011121
22590.0 0.00010942
22610.0 0.00010736
22630.0 0.00010514
22650.0 0.00010284
22670.0 0.0001003
22690.0 9.7587e-05
22710.0 9.4851e-05
22730.0 9.2031e-05
22750.0 8.8975e-05
22770.0 8.5988e-05
22790.0 8.3072e-05
22810.0 8.0078e-05
22830.0 7.7092e-05
22850.0 7.4297e-05
22870.0 7.1557e-05
22890.0 6.8831e-05
22910.0 6.632e-05
22930.0 6.4018e-05
