#lamb flux
1010.0 3.2323e-07
1030.0 3.5389e-07
1050.0 3.8916e-07
1070.0 4.2886e-07
1090.0 4.7396e-07
1110.0 5.2021e-07
1130.0 5.6676e-07
1150.0 6.1552e-07
1170.0 6.6582e-07
1190.0 7.1352e-07
1210.0 7.6185e-07
1230.0 8.1181e-07
1250.0 8.6074e-07
1270.0 9.0827e-07
1290.0 9.5849e-07
1310.0 1.0087e-06
1330.0 1.0568e-06
1350.0 1.1055e-06
1370.0 1.1557e-06
1390.0 1.2047e-06
1410.0 1.2522e-06
1430.0 1.3019e-06
1450.0 1.3516e-06
1470.0 1.3996e-06
1490.0 1.4481e-06
1510.0 1.4993e-06
1530.0 1.5479e-06
1550.0 1.5958e-06
1570.0 1.6453e-06
1590.0 1.6949e-06
1610.0 1.7423e-06
1630.0 1.7911e-06
1650.0 1.8412e-06
1670.0 1.8897e-06
1690.0 1.9375e-06
1710.0 1.9871e-06
1730.0 2.0371e-06
1750.0 2.084e-06
1770.0 2.1322e-06
1790.0 2.1814e-06
1810.0 2.229e-06
1830.0 2.2757e-06
1850.0 2.3252e-06
1870.0 2.3734e-06
1890.0 2.4198e-06
1910.0 2.4671e-06
1930.0 2.5155e-06
1950.0 2.5614e-06
1970.0 2.6066e-06
1990.0 2.6534e-06
2010.0 2.6992e-06
2030.0 2.743e-06
2050.0 2.788e-06
2070.0 2.8339e-06
2090.0 2.8766e-06
2110.0 2.9188e-06
2130.0 2.962e-06
2150.0 3.0038e-06
2170.0 3.043e-06
2190.0 3.0834e-06
2210.0 3.1235e-06
2230.0 3.1611e-06
2250.0 3.1978e-06
2270.0 3.2358e-06
2290.0 3.2716e-06
2310.0 3.3048e-06
2330.0 3.339e-06
2350.0 3.3736e-06
2370.0 3.4073e-06
2390.0 3.4442e-06
2410.0 3.49e-06
2430.0 3.5446e-06
2450.0 3.6126e-06
2470.0 3.7039e-06
2490.0 3.8232e-06
2510.0 3.9607e-06
2530.0 4.1295e-06
2550.0 4.345e-06
2570.0 4.6158e-06
2590.0 4.9696e-06
2610.0 5.501e-06
2630.0 6.2542e-06
2650.0 7.227e-06
2670.0 8.4696e-06
2690.0 9.9767e-06
2710.0 1.1558e-05
2730.0 1.3091e-05
2750.0 1.4573e-05
2770.0 1.5825e-05
2790.0 1.678e-05
2810.0 1.7499e-05
2830.0 1.8022e-05
2850.0 1.8333e-05
2870.0 1.8522e-05
2890.0 1.8642e-05
2910.0 1.8712e-05
2930.0 1.8746e-05
2950.0 1.8774e-05
2970.0 1.88e-05
2990.0 1.882e-05
3010.0 0.00058456
3030.0 0.00058515
3050.0 0.00058569
3070.0 0.00058578
3090.0 0.00058548
3110.0 0.00058414
3130.0 0.00058102
3150.0 0.00057554
3170.0 0.00056657
3190.0 0.00055424
3210.0 0.00053949
3230.0 0.00052303
3250.0 0.00050625
3270.0 0.00049375
3290.0 0.0004849
3310.0 0.00048364
3330.0 0.00048813
3350.0 0.00049796
3370.0 0.00051308
3390.0 0.0005328
3410.0 0.00055462
3430.0 0.00057938
3450.0 0.00060808
3470.0 0.00063963
3490.0 0.00067336
3510.0 0.0007117
3530.0 0.00075326
3550.0 0.00079689
3570.0 0.00084401
3590.0 0.00089598
3610.0 0.0009523
3630.0 0.001008
3650.0 0.0010666
3670.0 0.0011194
3690.0 0.0011586
3710.0 0.001179
3730.0 0.0011713
3750.0 0.0011374
3770.0 0.0011564
3790.0 0.0011433
3810.0 0.00097073
3830.0 0.00097114
3850.0 0.0013009
3870.0 0.0013288
3890.0 0.0011176
3910.0 0.0010635
3930.0 0.0012165
3950.0 0.0013755
3970.0 0.0014285
3990.0 0.0010238
4010.0 0.0024449
4030.0 0.0026755
4050.0 0.0030189
4070.0 0.0029909
4090.0 0.0027669
4110.0 0.002373
4130.0 0.0025767
4150.0 0.0032189
4170.0 0.002733
4190.0 0.0025989
4210.0 0.0027911
4230.0 0.0032563
4250.0 0.0039084
4270.0 0.0041517
4290.0 0.0036997
4310.0 0.0035623
4330.0 0.0036013
4350.0 0.004393
4370.0 0.005238
4390.0 0.0043938
4410.0 0.0026968
4430.0 0.0020605
4450.0 0.0019258
4470.0 0.0012678
4490.0 0.0018121
4510.0 0.0035824
4530.0 0.0043087
4550.0 0.0040917
4570.0 0.003929
4590.0 0.0042739
4610.0 0.0075428
4630.0 0.010412
4650.0 0.010261
4670.0 0.0091495
4690.0 0.0090979
4710.0 0.0095241
4730.0 0.008205
4750.0 0.0056056
4770.0 0.0038946
4790.0 0.0040652
4810.0 0.0041677
4830.0 0.0040269
4850.0 0.0043738
4870.0 0.0057892
4890.0 0.0067364
4910.0 0.0054488
4930.0 0.0051585
4950.0 0.0058643
4970.0 0.0077001
4990.0 0.010418
5010.0 0.012068
5030.0 0.0099519
5050.0 0.0063114
5070.0 0.0043754
5090.0 0.0033598
5110.0 0.0032304
5130.0 0.0038538
5150.0 0.003881
5170.0 0.0037008
5190.0 0.0033337
5210.0 0.0036581
5230.0 0.0043125
5250.0 0.0049167
5270.0 0.0047568
5290.0 0.0051591
5310.0 0.0066487
5330.0 0.0072359
5350.0 0.0071497
5370.0 0.0078613
5390.0 0.0095927
5410.0 0.0086039
5430.0 0.0069279
5450.0 0.0067852
5470.0 0.0076609
5490.0 0.009496
5510.0 0.011624
5530.0 0.01345
5550.0 0.012405
5570.0 0.011181
5590.0 0.0093467
5610.0 0.0092044
5630.0 0.0099293
5650.0 0.0092004
5670.0 0.0085207
5690.0 0.0070816
5710.0 0.0071793
5730.0 0.0068679
5750.0 0.0040526
5770.0 0.0029631
5790.0 0.0035649
5810.0 0.0038225
5830.0 0.0055513
5850.0 0.0070877
5870.0 0.00771
5890.0 0.0075068
5910.0 0.0073316
5930.0 0.0070164
5950.0 0.0072058
5970.0 0.0087516
5990.0 0.0074715
6010.0 0.0059059
6030.0 0.0048767
6050.0 0.0043224
6070.0 0.0048827
6090.0 0.005424
6110.0 0.0056751
6130.0 0.005399
6150.0 0.0043628
6170.0 0.0034916
6190.0 0.004124
6210.0 0.0062074
6230.0 0.0089193
6250.0 0.0096572
6270.0 0.0076637
6290.0 0.0065356
6310.0 0.0050171
6330.0 0.0037071
6350.0 0.0035435
6370.0 0.0037211
6390.0 0.0043998
6410.0 0.005634
6430.0 0.0067295
6450.0 0.0081058
6470.0 0.0087193
6490.0 0.010451
6510.0 0.011709
6530.0 0.011864
6550.0 0.010869
6570.0 0.0087955
6590.0 0.0082311
6610.0 0.0068834
6630.0 0.0069259
6650.0 0.0067031
6670.0 0.0059789
6690.0 0.0047874
6710.0 0.0045988
6730.0 0.0022749
6750.0 0.0028197
6770.0 0.004094
6790.0 0.0052717
6810.0 0.0039364
6830.0 0.0040258
6850.0 0.0034333
6870.0 0.0031865
6890.0 0.0027738
6910.0 0.0032847
6930.0 0.0030911
6950.0 0.0035748
6970.0 0.0037342
6990.0 0.0041665
7010.0 0.0040475
7030.0 0.0045411
7050.0 0.004016
7070.0 0.0034432
7090.0 0.003647
7110.0 0.003859
7130.0 0.0043856
7150.0 0.0049005
7170.0 0.0054825
7190.0 0.0059068
7210.0 0.0053816
7230.0 0.0054707
7250.0 0.0058544
7270.0 0.0062857
7290.0 0.0077018
7310.0 0.0082187
7330.0 0.0077707
7350.0 0.0069799
7370.0 0.0053779
7390.0 0.0054501
7410.0 0.0064501
7430.0 0.0073155
7450.0 0.0079025
7470.0 0.0073398
7490.0 0.0059909
7510.0 0.0089371
7530.0 0.008306
7550.0 0.0077851
7570.0 0.0054562
7590.0 0.0027185
7610.0 0.0020449
7630.0 0.0028363
7650.0 0.003685
7670.0 0.005536
7690.0 0.0061425
7710.0 0.0057358
7730.0 0.0057842
7750.0 0.0073288
7770.0 0.0075193
7790.0 0.0068756
7810.0 0.0057036
7830.0 0.0061182
7850.0 0.0065384
7870.0 0.0063085
7890.0 0.0050003
7910.0 0.0035136
7930.0 0.0035795
7950.0 0.0032427
7970.0 0.0027928
7990.0 0.0025879
8010.0 0.00099194
8030.0 0.0008989
8050.0 0.00097782
8070.0 0.0011217
8090.0 0.0013946
8110.0 0.0013117
8130.0 0.0007489
8150.0 0.00079098
8170.0 0.00041149
8190.0 0.00022056
8210.0 0.00070479
8230.0 0.00086346
8250.0 0.00029461
8270.0 0.00022205
8290.0 0.00051035
8310.0 0.00046378
8330.0 0.00028398
8350.0 0.00022853
8370.0 3.9691e-05
8390.0 0.00024422
8410.0 0.00027884
8430.0 0.00034578
8450.0 0.00039061
8470.0 0.00067837
8490.0 0.00054775
8510.0 0.00041152
8530.0 0.0001862
8550.0 0.00076043
8570.0 0.0011941
8590.0 0.00080502
8610.0 0.0012323
8630.0 0.0013381
8650.0 0.00067893
8670.0 0.0010453
8690.0 0.001673
8710.0 0.0014232
8730.0 0.0015395
8750.0 0.0011955
8770.0 0.0010554
8790.0 0.0011791
8810.0 0.0012903
8830.0 0.00069212
8850.0 0.00026577
8870.0 0.00018014
8890.0 0.00053117
8910.0 0.00086754
8930.0 0.001165
8950.0 0.0012917
8970.0 0.0012388
8990.0 0.00090514
9010.0 0.0011595
9030.0 0.00089879
9050.0 0.00092689
9070.0 0.00095755
9090.0 0.00098276
9110.0 0.0010136
9130.0 0.0010359
9150.0 0.0010518
9170.0 0.0010688
9190.0 0.0010869
9210.0 0.0011059
9230.0 0.0011261
9250.0 0.0011463
9270.0 0.0011673
9290.0 0.0011888
9310.0 0.0012102
9330.0 0.0012319
9350.0 0.0012543
9370.0 0.0012768
9390.0 0.0012994
9410.0 0.0013226
9430.0 0.0013464
9450.0 0.0013699
9470.0 0.0013938
9490.0 0.0014183
9510.0 0.001443
9530.0 0.0014677
9550.0 0.0014933
9570.0 0.0015192
9590.0 0.0015451
9610.0 0.0015713
9630.0 0.0015983
9650.0 0.0016254
9670.0 0.0016524
9690.0 0.0016802
9710.0 0.0017084
9730.0 0.0017365
9750.0 0.0017651
9770.0 0.0017945
9790.0 0.0018238
9810.0 0.0018532
9830.0 0.0018832
9850.0 0.0019136
9870.0 0.0019438
9890.0 0.0019745
9910.0 0.0020058
9930.0 0.0020371
9950.0 0.0020684
9970.0 0.0021005
9990.0 0.0021329
10010.0 0.0018833
10030.0 0.0019115
10050.0 0.0019401
10070.0 0.0019685
10090.0 0.001997
10110.0 0.0020261
10130.0 0.0020553
10150.0 0.0020841
10170.0 0.0021133
10190.0 0.002143
10210.0 0.0021722
10230.0 0.0022013
10250.0 0.002231
10270.0 0.0022605
10290.0 0.0022897
10310.0 0.0023192
10330.0 0.002349
10350.0 0.0023783
10370.0 0.0024075
10390.0 0.002437
10410.0 0.0024663
10430.0 0.002495
10450.0 0.002524
10470.0 0.002553
10490.0 0.0025815
10510.0 0.0026098
10530.0 0.0026385
10550.0 0.0026667
10570.0 0.0026943
10590.0 0.0027219
10610.0 0.0027496
10630.0 0.0027764
10650.0 0.002803
10670.0 0.0028298
10690.0 0.002856
10710.0 0.0028816
10730.0 0.0029072
10750.0 0.0029328
10770.0 0.0029572
10790.0 0.0029814
10810.0 0.0030055
10830.0 0.0030288
10850.0 0.0030509
10870.0 0.0030725
10890.0 0.0030921
10910.0 0.0031081
10930.0 0.0031193
10950.0 0.003123
10970.0 0.0031166
10990.0 0.003099
11010.0 0.0029946
11030.0 0.0029485
11050.0 0.0028909
11070.0 0.0028212
11090.0 0.002737
11110.0 0.0026497
11130.0 0.0025586
11150.0 0.0024609
11170.0 0.0023604
11190.0 0.0022634
11210.0 0.0021636
11230.0 0.0020619
11250.0 0.001965
11270.0 0.0018723
11290.0 0.0017798
11310.0 0.0016924
11330.0 0.0016152
11350.0 0.0015423
11370.0 0.0014747
11390.0 0.0014158
11410.0 0.0013637
11430.0 0.0013148
11450.0 0.0012721
11470.0 0.0012344
11490.0 0.0011989
11510.0 0.0011643
11530.0 0.0011319
11550.0 0.0010997
11570.0 0.0010656
11590.0 0.0010305
11610.0 0.00099507
11630.0 0.00095698
11650.0 0.00091665
11670.0 0.00087712
11690.0 0.00083726
11710.0 0.0007964
11730.0 0.00075687
11750.0 0.00072021
11770.0 0.00068426
11790.0 0.00065045
11810.0 0.00062042
11830.0 0.0005933
11850.0 0.00056809
11870.0 0.0005466
11890.0 0.00052834
11910.0 0.00051198
11930.0 0.00049758
11950.0 0.00048526
11970.0 0.00047404
11990.0 0.00046335
12010.0 0.00045339
12030.0 0.00044381
12050.0 0.00043405
12070.0 0.00042403
12090.0 0.00041439
12110.0 0.00040465
12130.0 0.00039489
12150.0 0.00038571
12170.0 0.00037742
12190.0 0.00036983
12210.0 0.00036373
12230.0 0.00035947
12250.0 0.00035713
12270.0 0.00035711
12290.0 0.00035947
12310.0 0.00036403
12330.0 0.00037136
12350.0 0.00038115
12370.0 0.0003927
12390.0 0.00040636
12410.0 0.00042272
12430.0 0.00043945
12450.0 0.00045685
12470.0 0.00047545
12490.0 0.00049415
12510.0 0.0005116
12530.0 0.00052894
12550.0 0.00054562
12570.0 0.00056016
12590.0 0.00057276
12610.0 0.00058384
12630.0 0.00059242
12650.0 0.00059793
12670.0 0.00060113
12690.0 0.00060167
12710.0 0.00059944
12730.0 0.00059475
12750.0 0.0005874
12770.0 0.00057778
12790.0 0.00056638
12810.0 0.00055305
12830.0 0.00053787
12850.0 0.00052209
12870.0 0.00050554
12890.0 0.00048781
12910.0 0.00046988
12930.0 0.00045228
12950.0 0.00043406
12970.0 0.00041563
12990.0 0.00039822
13010.0 0.00038108
13030.0 0.00036383
13050.0 0.00034727
13070.0 0.00033174
13090.0 0.00031617
13110.0 0.00030109
13130.0 0.00028712
13150.0 0.00027384
13170.0 0.00026078
13190.0 0.00024905
13210.0 0.00023859
13230.0 0.00022891
13250.0 0.0002204
13270.0 0.00021347
13290.0 0.00020781
13310.0 0.00020352
13330.0 0.00020096
13350.0 0.00020002
13370.0 0.00020075
13390.0 0.00020328
13410.0 0.00020718
13430.0 0.00021261
13450.0 0.00021961
13470.0 0.00022761
13490.0 0.00023625
13510.0 0.0002462
13530.0 0.00025646
13550.0 0.00026642
13570.0 0.00027637
13590.0 0.00028622
13610.0 0.00029511
13630.0 0.00030296
13650.0 0.00031027
13670.0 0.00031644
13690.0 0.00032131
13710.0 0.00032518
13730.0 0.0003281
13750.0 0.0003297
13770.0 0.00033032
13790.0 0.00033001
13810.0 0.00032876
13830.0 0.00032673
13850.0 0.00032388
13870.0 0.00032023
13890.0 0.00031599
13910.0 0.0003112
13930.0 0.00030563
13950.0 0.00029956
13970.0 0.00029335
13990.0 0.0002866
14010.0 0.00027944
14030.0 0.00027232
14050.0 0.00026515
14070.0 0.0002576
14090.0 0.00025037
14110.0 0.00024358
14130.0 0.00023699
14150.0 0.00023078
14170.0 0.00022545
14190.0 0.00022081
14210.0 0.00021683
14230.0 0.00021382
14250.0 0.0002118
14270.0 0.00021071
14290.0 0.00021068
14310.0 0.00021164
14330.0 0.00021354
14350.0 0.00021645
14370.0 0.00022016
14390.0 0.00022445
14410.0 0.00022957
14430.0 0.00023526
14450.0 0.00024115
14470.0 0.00024734
14490.0 0.00025399
14510.0 0.00026044
14530.0 0.00026664
14550.0 0.0002729
14570.0 0.00027898
14590.0 0.00028458
14610.0 0.00029004
14630.0 0.00029547
14650.0 0.00030056
14670.0 0.00030549
14690.0 0.00031061
14710.0 0.00031597
14730.0 0.00032132
14750.0 0.00032721
14770.0 0.00033386
14790.0 0.00034105
14810.0 0.00034883
14830.0 0.00035801
14850.0 0.000368
14870.0 0.00037843
14890.0 0.00038969
14910.0 0.00040166
14930.0 0.00041322
14950.0 0.00042407
14970.0 0.00043438
14990.0 0.00044312
15010.0 0.00044992
15030.0 0.00045508
15050.0 0.00045865
15070.0 0.00046064
15090.0 0.00046165
15110.0 0.00046197
15130.0 0.00046185
15150.0 0.00046154
15170.0 0.00046109
15190.0 0.00046057
15210.0 0.00046007
15230.0 0.00045957
15250.0 0.00045904
15270.0 0.00045852
15290.0 0.00045807
15310.0 0.00045759
15330.0 0.00045709
15350.0 0.00045665
15370.0 0.00045621
15390.0 0.00045572
15410.0 0.00045527
15430.0 0.00045485
15450.0 0.00045441
15470.0 0.00045395
15490.0 0.00045355
15510.0 0.00045314
15530.0 0.0004527
15550.0 0.00045229
15570.0 0.00045191
15590.0 0.00045149
15610.0 0.00045105
15630.0 0.00045067
15650.0 0.00045028
15670.0 0.00044986
15690.0 0.00044947
15710.0 0.0004491
15730.0 0.0004487
15750.0 0.00044828
15770.0 0.00044791
15790.0 0.00044753
15810.0 0.00044709
15830.0 0.0004467
15850.0 0.00044633
15870.0 0.00044592
15890.0 0.00044551
15910.0 0.00044514
15930.0 0.00044474
15950.0 0.00044431
15970.0 0.0004439
15990.0 0.00044351
16010.0 0.00044308
16030.0 0.00044264
16050.0 0.00044225
16070.0 0.00044183
16090.0 0.00044138
16110.0 0.00044096
16130.0 0.00044055
16150.0 0.00044007
16170.0 0.0004396
16190.0 0.00043918
16210.0 0.00043872
16230.0 0.00043822
16250.0 0.00043777
16270.0 0.00043732
16290.0 0.00043681
16310.0 0.00043631
16330.0 0.00043584
16350.0 0.00043534
16370.0 0.00043478
16390.0 0.00043428
16410.0 0.00043377
16430.0 0.00043322
16450.0 0.00043267
16470.0 0.00043216
16490.0 0.00043159
16510.0 0.00043099
16530.0 0.00043043
16550.0 0.00042986
16570.0 0.00042924
16590.0 0.00042862
16610.0 0.00042805
16630.0 0.00042743
16650.0 0.00042678
16670.0 0.00042616
16690.0 0.00042554
16710.0 0.00042484
16730.0 0.00042417
16750.0 0.00042351
16770.0 0.00042282
16790.0 0.00042209
16810.0 0.00042142
16830.0 0.00042072
16850.0 0.00041997
16870.0 0.00041923
16890.0 0.00041852
16910.0 0.00041774
16930.0 0.00041694
16950.0 0.00041619
16970.0 0.00041541
16990.0 0.00041459
17010.0 0.00041378
17030.0 0.000413
17050.0 0.00041215
17070.0 0.00041129
17090.0 0.00041047
17110.0 0.00040962
17130.0 0.0004087
17150.0 0.00040783
17170.0 0.00040696
17190.0 0.00040605
17210.0 0.00040512
17230.0 0.00040424
17250.0 0.00040331
17270.0 0.00040233
17290.0 0.00040138
17310.0 0.00040044
17330.0 0.00039945
17350.0 0.00039844
17370.0 0.00039748
17390.0 0.00039649
17410.0 0.00039545
17430.0 0.00039444
17450.0 0.00039344
17470.0 0.00039236
17490.0 0.00039129
17510.0 0.00039026
17530.0 0.00038919
17550.0 0.00038808
17570.0 0.00038701
17590.0 0.00038594
17610.0 0.00038481
17630.0 0.00038369
17650.0 0.00038259
17670.0 0.00038146
17690.0 0.00038026
17710.0 0.00037914
17730.0 0.000378
17750.0 0.00037681
17770.0 0.00037563
17790.0 0.00037449
17810.0 0.00037328
17830.0 0.00037206
17850.0 0.00037087
17870.0 0.00036967
17890.0 0.00036842
17910.0 0.00036718
17930.0 0.00036598
17950.0 0.00036473
17970.0 0.00036346
17990.0 0.00036223
18010.0 0.00036099
18030.0 0.00035967
18050.0 0.00035839
18070.0 0.00035714
18090.0 0.00035584
18110.0 0.00035452
18130.0 0.00035325
18150.0 0.00035196
18170.0 0.00035062
18190.0 0.0003493
18210.0 0.00034801
18230.0 0.00034666
18250.0 0.00034529
18270.0 0.00034399
18290.0 0.00034265
18310.0 0.00034128
18330.0 0.00033994
18350.0 0.00033862
18370.0 0.00033723
18390.0 0.00033585
18410.0 0.00033451
18430.0 0.00033314
18450.0 0.00033172
18470.0 0.00033035
18490.0 0.000329
18510.0 0.0003276
18530.0 0.0003262
18550.0 0.00032484
18570.0 0.00032345
18590.0 0.00032201
18610.0 0.00032062
18630.0 0.00031924
18650.0 0.00031781
18670.0 0.00031638
18690.0 0.00031501
18710.0 0.0003136
18730.0 0.00031217
18750.0 0.00031077
18770.0 0.00030938
18790.0 0.00030791
18810.0 0.00030648
18830.0 0.00030509
18850.0 0.00030367
18870.0 0.00030222
18890.0 0.00030081
18910.0 0.00029941
18930.0 0.00029796
18950.0 0.00029653
18970.0 0.00029513
18990.0 0.0002937
19010.0 0.00029222
19030.0 0.00029082
19050.0 0.00028941
19070.0 0.00028796
19090.0 0.00028653
19110.0 0.00028514
19130.0 0.0002837
19150.0 0.00028224
19170.0 0.00028084
19190.0 0.00027942
19210.0 0.00027796
19230.0 0.00027653
19250.0 0.00027515
19270.0 0.00027371
19290.0 0.00027228
19310.0 0.00027088
19330.0 0.00026948
19350.0 0.00026801
19370.0 0.0002666
19390.0 0.00026521
19410.0 0.00026378
19430.0 0.00026234
19450.0 0.00026096
19470.0 0.00025956
19490.0 0.00025813
19510.0 0.00025673
19530.0 0.00025535
19550.0 0.00025393
19570.0 0.00025249
19590.0 0.00025113
19610.0 0.00024974
19630.0 0.00024832
19650.0 0.00024694
19670.0 0.00024558
19690.0 0.00024417
19710.0 0.00024277
19730.0 0.00024141
19750.0 0.00024003
19770.0 0.00023861
19790.0 0.00023725
19810.0 0.0002359
19830.0 0.00023451
19850.0 0.00023312
19870.0 0.00023175
19890.0 0.0002303
19910.0 0.00022874
19930.0 0.00022711
19950.0 0.00022528
19970.0 0.0002231
19990.0 0.00022054
20010.0 0.00020053
20030.0 0.0001974
20050.0 0.00019379
20070.0 0.00018992
20090.0 0.00018579
20110.0 0.00018117
20130.0 0.00017652
20150.0 0.00017193
20170.0 0.0001672
20190.0 0.00016242
20210.0 0.00015791
20230.0 0.00015353
20250.0 0.00014915
20270.0 0.00014509
20290.0 0.00014137
20310.0 0.00013783
20330.0 0.00013452
20350.0 0.00013175
20370.0 0.00012926
20390.0 0.00012706
20410.0 0.00012526
20430.0 0.00012383
20450.0 0.00012266
20470.0 0.00012182
20490.0 0.00012131
20510.0 0.00012106
20530.0 0.00012107
20550.0 0.00012132
20570.0 0.00012175
20590.0 0.00012238
20610.0 0.00012319
20630.0 0.0001241
20650.0 0.00012515
20670.0 0.00012636
20690.0 0.00012762
20710.0 0.00012892
20730.0 0.00013033
20750.0 0.00013181
20770.0 0.00013326
20790.0 0.00013478
20810.0 0.00013638
20830.0 0.00013796
20850.0 0.00013954
20870.0 0.00014122
20890.0 0.00014292
20910.0 0.00014454
20930.0 0.00014622
20950.0 0.00014795
20970.0 0.00014962
20990.0 0.00015126
21010.0 0.00015299
21030.0 0.00015466
21050.0 0.00015625
21070.0 0.00015783
21090.0 0.00015942
21110.0 0.00016085
21130.0 0.0001622
21150.0 0.0001635
21170.0 0.00016467
21190.0 0.00016567
21210.0 0.00016657
21230.0 0.00016731
21250.0 0.00016783
21270.0 0.00016815
21290.0 0.00016825
21310.0 0.00016809
21330.0 0.00016768
21350.0 0.00016699
21370.0 0.00016598
21390.0 0.00016471
21410.0 0.00016315
21430.0 0.00016119
21450.0 0.00015898
21470.0 0.00015657
21490.0 0.00015385
21510.0 0.00015086
21530.0 0.00014781
21550.0 0.00014462
21570.0 0.00014121
21590.0 0.00013785
21610.0 0.00013459
21630.0 0.00013133
21650.0 0.00012813
21670.0 0.00012534
21690.0 0.00012275
21710.0 0.00012041
21730.0 0.00011846
21750.0 0.00011693
21770.0 0.00011573
21790.0 0.00011498
21810.0 0.00011467
21830.0 0.00011477
21850.0 0.00011531
21870.0 0.00011624
21890.0 0.00011747
21910.0 0.0001191
21930.0 0.00012103
21950.0 0.00012314
21970.0 0.0001255
21990.0 0.00012817
22010.0 0.00013084
22030.0 0.00013357
22050.0 0.00013645
22070.0 0.00013935
22090.0 0.00014211
22110.0 0.0001449
22130.0 0.0001477
22150.0 0.00015031
22170.0 0.00015279
22190.0 0.00015525
22210.0 0.00015754
22230.0 0.00015956
22250.0 0.00016146
22270.0 0.00016322
22290.0 0.00016471
22310.0 0.00016599
22330.0 0.00016712
22350.0 0.00016798
22370.0 0.00016858
22390.0 0.00016895
22410.0 0.00016905
22430.0 0.00016886
22450.0 0.00016841
22470.0 0.00016764
22490.0 0.00016658
22510.0 0.00016526
22530.0 0.00016358
22550.0 0.00016155
22570.0 0.00015929
22590.0 0.00015676
22610.0 0.00015385
22630.0 0.0001507
22650.0 0.00014745
22670.0 0.00014386
22690.0 0.00014002
22710.0 0.00013615
22730.0 0.00013216
22750.0 0.00012784
22770.0 0.00012362
22790.0 0.00011949
22810.0 0.00011525
22830.0 0.00011103
22850.0 0.00010707
22870.0 0.00010318
22890.0 9.9319e-05
22910.0 9.5758e-05
22930.0 9.2492e-05
22950.0 8.9377e-05
22970.0 8.6491e-05
22990.0 8.4092e-05
23010.0 8.1956e-05
