#lamb flux
1010.0 1.158e-05
1030.0 1.1793e-05
1050.0 1.2676e-05
1070.0 1.3634e-05
1090.0 1.4664e-05
1110.0 1.5592e-05
1130.0 1.6401e-05
1150.0 1.7174e-05
1170.0 1.7898e-05
1190.0 1.8469e-05
1210.0 1.9012e-05
1230.0 1.9572e-05
1250.0 2.0094e-05
1270.0 2.0595e-05
1290.0 2.1197e-05
1310.0 2.1846e-05
1330.0 2.2515e-05
1350.0 2.3284e-05
1370.0 2.4194e-05
1390.0 2.5198e-05
1410.0 2.631e-05
1430.0 2.7629e-05
1450.0 2.9128e-05
1470.0 3.0787e-05
1490.0 3.2677e-05
1510.0 3.4877e-05
1530.0 3.7278e-05
1550.0 3.9949e-05
1570.0 4.2975e-05
1590.0 4.6339e-05
1610.0 4.9994e-05
1630.0 5.4064e-05
1650.0 5.8567e-05
1670.0 6.3421e-05
1690.0 6.8656e-05
1710.0 7.4366e-05
1730.0 8.0491e-05
1750.0 8.687e-05
1770.0 9.3651e-05
1790.0 0.00010079
1810.0 0.00010811
1830.0 0.00011558
1850.0 0.00012332
1870.0 0.00013105
1890.0 0.00013863
1910.0 0.00014613
1930.0 0.00015348
1950.0 0.00016037
1970.0 0.0001668
1990.0 0.00017286
2010.0 0.00017831
2030.0 0.00018301
2050.0 0.00018715
2070.0 0.00019068
2090.0 0.00019331
2110.0 0.00019522
2130.0 0.00019653
2150.0 0.00019712
2170.0 0.00019696
2190.0 0.00019634
2210.0 0.00019522
2230.0 0.00019353
2250.0 0.00019146
2270.0 0.00018919
2290.0 0.00018658
2310.0 0.00018368
2330.0 0.00018074
2350.0 0.00017777
2370.0 0.0001747
2390.0 0.00017172
2410.0 0.00016898
2430.0 0.00016638
2450.0 0.00016401
2470.0 0.00016207
2490.0 0.00016064
2510.0 0.00015966
2530.0 0.00015961
2550.0 0.00016113
2570.0 0.00016475
2590.0 0.0001712
2610.0 0.0001826
2630.0 0.00019942
2650.0 0.00022086
2670.0 0.00024761
2690.0 0.00027936
2710.0 0.00031256
2730.0 0.00034575
2750.0 0.00038035
2770.0 0.00041423
2790.0 0.00044675
2810.0 0.00048019
2830.0 0.0005166
2850.0 0.00055326
2870.0 0.00059201
2890.0 0.0006346
2910.0 0.00067987
2930.0 0.00072624
2950.0 0.0007766
2970.0 0.00083059
2990.0 0.00088606
3010.0 0.00094393
3030.0 0.001006
3050.0 0.0010705
3070.0 0.0011338
3090.0 0.0011981
3110.0 0.0012596
3130.0 0.0013134
3150.0 0.0013568
3170.0 0.0013862
3190.0 0.0013998
3210.0 0.001401
3230.0 0.001393
3250.0 0.0013828
3270.0 0.0013798
3290.0 0.001386
3310.0 0.001402
3330.0 0.0014282
3350.0 0.0014607
3370.0 0.0014993
3390.0 0.0015497
3410.0 0.0015936
3430.0 0.0016366
3450.0 0.0016792
3470.0 0.0017303
3490.0 0.0018574
3510.0 0.0021641
3530.0 0.0025993
3550.0 0.0030017
3570.0 0.003271
3590.0 0.0034057
3610.0 0.003389
3630.0 0.0032988
3650.0 0.0035505
3670.0 0.0041827
3690.0 0.0047214
3710.0 0.0050591
3730.0 0.0053633
3750.0 0.0056689
3770.0 0.0055942
3790.0 0.0052395
3810.0 0.0048846
3830.0 0.0045663
3850.0 0.0045275
3870.0 0.0049135
3890.0 0.0053359
3910.0 0.0056189
3930.0 0.0058683
3950.0 0.0064788
3970.0 0.0070092
3990.0 0.0066937
4010.0 0.00586
4030.0 0.0051157
4050.0 0.0048957
4070.0 0.0049463
4090.0 0.0048887
4110.0 0.004801
4130.0 0.0047295
4150.0 0.0047611
4170.0 0.0051306
4190.0 0.0056185
4210.0 0.0055854
4230.0 0.0053302
4250.0 0.0052358
4270.0 0.0053005
4290.0 0.0055936
4310.0 0.005881
4330.0 0.0056078
4350.0 0.004863
4370.0 0.0042535
4390.0 0.0037933
4410.0 0.0034016
4430.0 0.0033738
4450.0 0.0036437
4470.0 0.00388
4490.0 0.0041828
4510.0 0.0047917
4530.0 0.0061185
4550.0 0.0079412
4570.0 0.0090575
4590.0 0.0096767
4610.0 0.010745
4630.0 0.01158
4650.0 0.010887
4670.0 0.0089595
4690.0 0.0072874
4710.0 0.0065128
4730.0 0.0062629
4750.0 0.0058142
4770.0 0.005424
4790.0 0.00571
4810.0 0.0062541
4830.0 0.0063481
4850.0 0.0059559
4870.0 0.0058557
4890.0 0.0062922
4910.0 0.0067017
4930.0 0.0067846
4950.0 0.0065801
4970.0 0.0061488
4990.0 0.0055278
5010.0 0.0049836
5030.0 0.0046584
5050.0 0.004495
5070.0 0.0043624
5090.0 0.0042095
5110.0 0.0041533
5130.0 0.0041606
5150.0 0.0043154
5170.0 0.0047789
5190.0 0.0054069
5210.0 0.0061232
5230.0 0.0066199
5250.0 0.0068974
5270.0 0.0072816
5290.0 0.0077608
5310.0 0.0079674
5330.0 0.0077075
5350.0 0.0072785
5370.0 0.0072436
5390.0 0.0077376
5410.0 0.0084431
5430.0 0.00894
5450.0 0.0091131
5470.0 0.0090006
5490.0 0.0087023
5510.0 0.0084635
5530.0 0.0083678
5550.0 0.0083574
5570.0 0.0083084
5590.0 0.0081179
5610.0 0.0077915
5630.0 0.0072746
5650.0 0.0066575
5670.0 0.0062468
5690.0 0.0060843
5710.0 0.0060211
5730.0 0.0059762
5750.0 0.0058794
5770.0 0.0057713
5790.0 0.0057737
5810.0 0.0057756
5830.0 0.0058039
5850.0 0.005834
5870.0 0.0057114
5890.0 0.0054792
5910.0 0.005161
5930.0 0.004648
5950.0 0.0041805
5970.0 0.0040139
5990.0 0.004103
6010.0 0.0041787
6030.0 0.0040423
6050.0 0.0038916
6070.0 0.0040377
6090.0 0.0043782
6110.0 0.004584
6130.0 0.0044879
6150.0 0.0042465
6170.0 0.0040739
6190.0 0.0039272
6210.0 0.0037016
6230.0 0.0034214
6250.0 0.0032609
6270.0 0.0032955
6290.0 0.0033768
6310.0 0.0035571
6330.0 0.0038767
6350.0 0.0042428
6370.0 0.0044602
6390.0 0.0045373
6410.0 0.0046084
6430.0 0.0046699
6450.0 0.0047429
6470.0 0.0048472
6490.0 0.0049576
6510.0 0.0050475
6530.0 0.0050702
6550.0 0.0050323
6570.0 0.0048856
6590.0 0.0046356
6610.0 0.00445
6630.0 0.0043479
6650.0 0.0042091
6670.0 0.0040103
6690.0 0.0038354
6710.0 0.0037484
6730.0 0.0036919
6750.0 0.0036286
6770.0 0.0035746
6790.0 0.0035232
6810.0 0.0034388
6830.0 0.0033802
6850.0 0.0034531
6870.0 0.0035122
6890.0 0.0034698
6910.0 0.0034024
6930.0 0.0033444
6950.0 0.0032676
6970.0 0.0031427
6990.0 0.0030231
7010.0 0.002964
7030.0 0.0029253
7050.0 0.00282
7070.0 0.0026662
7090.0 0.0026146
7110.0 0.0027034
7130.0 0.00288
7150.0 0.003057
7170.0 0.0031768
7190.0 0.0031713
7210.0 0.003042
7230.0 0.0029564
7250.0 0.0029736
7270.0 0.0029666
7290.0 0.0029416
7310.0 0.0029757
7330.0 0.003077
7350.0 0.0032116
7370.0 0.0032953
7390.0 0.0033049
7410.0 0.0032601
7430.0 0.0031617
7450.0 0.0030352
7470.0 0.0029118
7490.0 0.0028114
7510.0 0.0027316
7530.0 0.0026992
7550.0 0.0027167
7570.0 0.0027426
7590.0 0.0027767
7610.0 0.0027762
7630.0 0.0027668
7650.0 0.0028185
7670.0 0.0029114
7690.0 0.0030104
7710.0 0.003107
7730.0 0.0031915
7750.0 0.0032887
7770.0 0.0033753
7790.0 0.0034413
7810.0 0.0034666
7830.0 0.0034392
7850.0 0.0033482
7870.0 0.0031993
7890.0 0.0030464
7910.0 0.0029638
7930.0 0.0029147
7950.0 0.0028549
7970.0 0.00281
7990.0 0.0028119
8010.0 0.0026721
8030.0 0.0026494
8050.0 0.0026205
8070.0 0.0025804
8090.0 0.0025407
8110.0 0.0025383
8130.0 0.0025502
8150.0 0.0025398
8170.0 0.0025197
8190.0 0.0024516
8210.0 0.0023106
8230.0 0.0021659
8250.0 0.0020876
8270.0 0.0020166
8290.0 0.001923
8310.0 0.001857
8330.0 0.0018255
8350.0 0.0017771
8370.0 0.0017731
8390.0 0.0018531
8410.0 0.0019701
8430.0 0.0021105
8450.0 0.0022662
8470.0 0.0023715
8490.0 0.0024716
8510.0 0.0025545
8530.0 0.0026355
8550.0 0.0027079
8570.0 0.0027597
8590.0 0.0028037
8610.0 0.0028755
8630.0 0.002903
8650.0 0.0028491
8670.0 0.0028538
8690.0 0.0029179
8710.0 0.0029903
8730.0 0.0029985
8750.0 0.0029357
8770.0 0.0029171
8790.0 0.0029084
8810.0 0.0028531
8830.0 0.002659
8850.0 0.0024185
8870.0 0.0022465
8890.0 0.0021677
8910.0 0.0020636
8930.0 0.0019199
8950.0 0.0018173
8970.0 0.0017954
8990.0 0.0018159
9010.0 0.0018166
9030.0 0.0018018
9050.0 0.0017887
9070.0 0.0017785
9090.0 0.0017688
9110.0 0.0017592
9130.0 0.0017496
9150.0 0.0017401
9170.0 0.0017306
9190.0 0.0017212
9210.0 0.001712
9230.0 0.0017027
9250.0 0.0016935
9270.0 0.0016843
9290.0 0.0016753
9310.0 0.0016663
9330.0 0.0016573
9350.0 0.0016485
9370.0 0.0016397
9390.0 0.001631
9410.0 0.0016223
9430.0 0.0016134
9450.0 0.0016037
9470.0 0.0015944
9490.0 0.001587
9510.0 0.0015791
9530.0 0.0015712
9550.0 0.0015631
9570.0 0.0015549
9590.0 0.0015469
9610.0 0.0015389
9630.0 0.0015308
9650.0 0.0015227
9670.0 0.0015149
9690.0 0.001507
9710.0 0.0014991
9730.0 0.0014913
9750.0 0.0014836
9770.0 0.0014757
9790.0 0.001468
9810.0 0.0014604
9830.0 0.0014527
9850.0 0.0014445
9870.0 0.0014371
9890.0 0.0014298
9910.0 0.0014223
9930.0 0.0014148
9950.0 0.0014072
9970.0 0.0013997
9990.0 0.0013921
10010.0 0.001384
10030.0 0.0013763
10050.0 0.0013693
10070.0 0.0013621
10090.0 0.001355
10110.0 0.0013471
10130.0 0.0013366
10150.0 0.0013297
10170.0 0.0013234
10190.0 0.0013164
10210.0 0.0013095
10230.0 0.0013025
10250.0 0.0012949
10270.0 0.0012873
10290.0 0.00128
10310.0 0.0012724
10330.0 0.0012643
10350.0 0.0012567
10370.0 0.0012491
10390.0 0.0012411
10410.0 0.0012332
10430.0 0.0012256
10450.0 0.0012176
10470.0 0.0012094
10490.0 0.0012015
10510.0 0.0011936
10530.0 0.0011851
10550.0 0.0011768
10570.0 0.0011688
10590.0 0.0011604
10610.0 0.0011518
10630.0 0.0011435
10650.0 0.0011352
10670.0 0.0011263
10690.0 0.0011175
10710.0 0.001109
10730.0 0.0011001
10750.0 0.0010908
10770.0 0.0010821
10790.0 0.0010731
10810.0 0.0010638
10830.0 0.0010546
10850.0 0.0010456
10870.0 0.001036
10890.0 0.0010263
10910.0 0.001017
10930.0 0.0010076
10950.0 0.00099782
10970.0 0.00098833
10990.0 0.0009793
11010.0 0.00093337
11030.0 0.00092349
11050.0 0.00091429
11070.0 0.0009053
11090.0 0.00089616
11110.0 0.0008879
11130.0 0.00088013
11150.0 0.00087253
11170.0 0.00086539
11190.0 0.00085906
11210.0 0.00085308
11230.0 0.00084748
11250.0 0.00084261
11270.0 0.00083832
11290.0 0.00083435
11310.0 0.00083086
11330.0 0.00082796
11350.0 0.00082531
11370.0 0.00082286
11390.0 0.00082068
11410.0 0.00081863
11430.0 0.00081649
11450.0 0.00081432
11470.0 0.00081209
11490.0 0.00080961
11510.0 0.00080677
11530.0 0.00080373
11550.0 0.00080036
11570.0 0.00079645
11590.0 0.00079213
11610.0 0.00078748
11630.0 0.00078217
11650.0 0.00077616
11670.0 0.00076985
11690.0 0.00076297
11710.0 0.00075525
11730.0 0.00074698
11750.0 0.00073843
11770.0 0.00072896
11790.0 0.00071874
11810.0 0.00070828
11830.0 0.00069733
11850.0 0.00068532
11870.0 0.00067327
11890.0 0.00066132
11910.0 0.00064883
11930.0 0.00063614
11950.0 0.00062398
11970.0 0.00061186
11990.0 0.00059952
12010.0 0.00058784
12030.0 0.0005768
12050.0 0.0005659
12070.0 0.00055531
12090.0 0.00054584
12110.0 0.00053676
12130.0 0.00052802
12150.0 0.00052005
12170.0 0.00051288
12190.0 0.00050595
12210.0 0.00049977
12230.0 0.00049448
12250.0 0.00048982
12270.0 0.00048576
12290.0 0.00048252
12310.0 0.00048001
12330.0 0.00047806
12350.0 0.00047674
12370.0 0.00047597
12390.0 0.00047566
12410.0 0.0004758
12430.0 0.00047624
12450.0 0.0004769
12470.0 0.0004778
12490.0 0.00047884
12510.0 0.00047986
12530.0 0.00048096
12550.0 0.00048207
12570.0 0.00048303
12590.0 0.00048384
12610.0 0.0004845
12630.0 0.00048488
12650.0 0.00048488
12670.0 0.00048452
12690.0 0.00048371
12710.0 0.00048242
12730.0 0.00048065
12750.0 0.00047826
12770.0 0.00047535
12790.0 0.00047201
12810.0 0.00046815
12830.0 0.00046376
12850.0 0.0004592
12870.0 0.00045441
12890.0 0.00044928
12910.0 0.0004441
12930.0 0.00043904
12950.0 0.00043385
12970.0 0.00042867
12990.0 0.00042384
13010.0 0.00041916
13030.0 0.00041455
13050.0 0.00041019
13070.0 0.00040615
13090.0 0.00040217
13110.0 0.00039835
13130.0 0.00039481
13150.0 0.00039143
13170.0 0.00038808
13190.0 0.000385
13210.0 0.00038214
13230.0 0.00037937
13250.0 0.00037673
13270.0 0.0003743
13290.0 0.00037197
13310.0 0.00036968
13330.0 0.00036753
13350.0 0.00036546
13370.0 0.00036337
13390.0 0.00036124
13410.0 0.00035917
13430.0 0.000357
13450.0 0.00035468
13470.0 0.00035227
13490.0 0.00034979
13510.0 0.00034702
13530.0 0.00034409
13550.0 0.00034111
13570.0 0.00033793
13590.0 0.00033452
13610.0 0.00033107
13630.0 0.00032761
13650.0 0.00032392
13670.0 0.0003202
13690.0 0.00031656
13710.0 0.00031285
13730.0 0.00030897
13750.0 0.00030531
13770.0 0.00030171
13790.0 0.00029804
13810.0 0.00029443
13830.0 0.00029103
13850.0 0.00028758
13870.0 0.00028416
13890.0 0.00028095
13910.0 0.00027786
13930.0 0.00027479
13950.0 0.00027188
13970.0 0.00026926
13990.0 0.00026671
14010.0 0.00026429
14030.0 0.0002621
14050.0 0.00026008
14070.0 0.00025809
14090.0 0.0002563
14110.0 0.00025466
14130.0 0.00025309
14150.0 0.00025158
14170.0 0.00025021
14190.0 0.0002489
14210.0 0.00024758
14230.0 0.00024633
14250.0 0.00024513
14270.0 0.00024391
14290.0 0.00024268
14310.0 0.00024152
14330.0 0.00024036
14350.0 0.00023916
14370.0 0.00023798
14390.0 0.00023686
14410.0 0.00023569
14430.0 0.00023453
14450.0 0.00023342
14470.0 0.00023233
14490.0 0.00023121
14510.0 0.00023014
14530.0 0.00022913
14550.0 0.00022808
14570.0 0.00022702
14590.0 0.00022598
14610.0 0.00022489
14630.0 0.00022372
14650.0 0.00022255
14670.0 0.00022137
14690.0 0.00022014
14710.0 0.00021892
14730.0 0.00021786
14750.0 0.0002169
14770.0 0.00021612
14790.0 0.00021564
14810.0 0.00021552
14830.0 0.0002158
14850.0 0.00021659
14870.0 0.00021784
14890.0 0.00021959
14910.0 0.00022184
14930.0 0.00022435
14950.0 0.00022698
14970.0 0.0002297
14990.0 0.00023222
15010.0 0.00023435
15030.0 0.00023614
15050.0 0.00023754
15070.0 0.00023852
15090.0 0.00023923
15110.0 0.00023976
15130.0 0.00024016
15150.0 0.0002405
15170.0 0.00024081
15190.0 0.00024111
15210.0 0.00024141
15230.0 0.00024172
15250.0 0.00024203
15270.0 0.00024235
15290.0 0.00024268
15310.0 0.00024301
15330.0 0.00024335
15350.0 0.00024371
15370.0 0.00024406
15390.0 0.00024443
15410.0 0.0002448
15430.0 0.00024518
15450.0 0.00024556
15470.0 0.00024595
15490.0 0.00024635
15510.0 0.00024676
15530.0 0.00024717
15550.0 0.00024759
15570.0 0.00024802
15590.0 0.00024845
15610.0 0.00024889
15630.0 0.00024933
15650.0 0.00024978
15670.0 0.00025024
15690.0 0.0002507
15710.0 0.00025117
15730.0 0.00025164
15750.0 0.00025212
15770.0 0.0002526
15790.0 0.00025309
15810.0 0.00025358
15830.0 0.00025408
15850.0 0.00025459
15870.0 0.00025509
15890.0 0.0002556
15910.0 0.00025612
15930.0 0.00025664
15950.0 0.00025717
15970.0 0.0002577
15990.0 0.00025823
16010.0 0.00025876
16030.0 0.0002593
16050.0 0.00025985
16070.0 0.00026039
16090.0 0.00026094
16110.0 0.00026149
16130.0 0.00026205
16150.0 0.00026261
16170.0 0.00026316
16190.0 0.00026373
16210.0 0.00026429
16230.0 0.00026485
16250.0 0.00026542
16270.0 0.00026599
16290.0 0.00026656
16310.0 0.00026713
16330.0 0.00026771
16350.0 0.00026828
16370.0 0.00026885
16390.0 0.00026942
16410.0 0.00027
16430.0 0.00027057
16450.0 0.00027115
16470.0 0.00027172
16490.0 0.0002723
16510.0 0.00027287
16530.0 0.00027344
16550.0 0.00027401
16570.0 0.00027458
16590.0 0.00027514
16610.0 0.00027571
16630.0 0.00027628
16650.0 0.00027684
16670.0 0.0002774
16690.0 0.00027796
16710.0 0.00027851
16730.0 0.00027906
16750.0 0.00027961
16770.0 0.00028016
16790.0 0.0002807
16810.0 0.00028124
16830.0 0.00028178
16850.0 0.0002823
16870.0 0.00028283
16890.0 0.00028335
16910.0 0.00028387
16930.0 0.00028438
16950.0 0.00028489
16970.0 0.00028539
16990.0 0.00028588
17010.0 0.00028637
17030.0 0.00028686
17050.0 0.00028734
17070.0 0.00028781
17090.0 0.00028827
17110.0 0.00028873
17130.0 0.00028918
17150.0 0.00028962
17170.0 0.00029006
17190.0 0.00029049
17210.0 0.00029091
17230.0 0.00029132
17250.0 0.00029173
17270.0 0.00029212
17290.0 0.00029251
17310.0 0.00029289
17330.0 0.00029326
17350.0 0.00029361
17370.0 0.00029397
17390.0 0.00029431
17410.0 0.00029464
17430.0 0.00029496
17450.0 0.00029528
17470.0 0.00029557
17490.0 0.00029586
17510.0 0.00029614
17530.0 0.00029641
17550.0 0.00029667
17570.0 0.00029691
17590.0 0.00029715
17610.0 0.00029737
17630.0 0.00029758
17650.0 0.00029779
17670.0 0.00029797
17690.0 0.00029814
17710.0 0.00029831
17730.0 0.00029846
17750.0 0.0002986
17770.0 0.00029872
17790.0 0.00029884
17810.0 0.00029893
17830.0 0.00029902
17850.0 0.00029909
17870.0 0.00029915
17890.0 0.00029919
17910.0 0.00029922
17930.0 0.00029924
17950.0 0.00029925
17970.0 0.00029923
17990.0 0.00029921
18010.0 0.00029917
18030.0 0.00029912
18050.0 0.00029905
18070.0 0.00029897
18090.0 0.00029887
18110.0 0.00029876
18130.0 0.00029863
18150.0 0.00029849
18170.0 0.00029833
18190.0 0.00029816
18210.0 0.00029798
18230.0 0.00029778
18250.0 0.00029756
18270.0 0.00029733
18290.0 0.00029708
18310.0 0.00029682
18330.0 0.00029654
18350.0 0.00029625
18370.0 0.00029594
18390.0 0.00029562
18410.0 0.00029528
18430.0 0.00029493
18450.0 0.00029455
18470.0 0.00029417
18490.0 0.00029377
18510.0 0.00029335
18530.0 0.00029292
18550.0 0.00029248
18570.0 0.00029202
18590.0 0.00029154
18610.0 0.00029105
18630.0 0.00029054
18650.0 0.00029002
18670.0 0.00028948
18690.0 0.00028893
18710.0 0.00028836
18730.0 0.00028778
18750.0 0.00028718
18770.0 0.00028657
18790.0 0.00028594
18810.0 0.0002853
18830.0 0.00028465
18850.0 0.00028398
18870.0 0.00028329
18890.0 0.00028259
18910.0 0.00028188
18930.0 0.00028115
18950.0 0.00028041
18970.0 0.00027966
18990.0 0.00027889
19010.0 0.00027811
19030.0 0.00027731
19050.0 0.00027651
19070.0 0.00027568
19090.0 0.00027485
19110.0 0.000274
19130.0 0.00027314
19150.0 0.00027226
19170.0 0.00027138
19190.0 0.00027048
19210.0 0.00026957
19230.0 0.00026865
19250.0 0.00026772
19270.0 0.00026677
19290.0 0.00026581
19310.0 0.00026484
19330.0 0.00026386
19350.0 0.00026287
19370.0 0.00026187
19390.0 0.00026085
19410.0 0.00025983
19430.0 0.00025879
19450.0 0.00025775
19470.0 0.0002567
19490.0 0.00025563
19510.0 0.00025456
19530.0 0.00025348
19550.0 0.00025239
19570.0 0.00025128
19590.0 0.00025018
19610.0 0.00024906
19630.0 0.00024793
19650.0 0.0002468
19670.0 0.00024566
19690.0 0.0002445
19710.0 0.00024334
19730.0 0.00024218
19750.0 0.00024101
19770.0 0.00023982
19790.0 0.00023864
19810.0 0.00023745
19830.0 0.00023624
19850.0 0.00023502
19870.0 0.00023378
19890.0 0.00023249
19910.0 0.00023113
19930.0 0.00022966
19950.0 0.00022802
19970.0 0.00022613
19990.0 0.00022394
20010.0 0.00022149
20030.0 0.00021868
20050.0 0.00021552
20070.0 0.00021218
20090.0 0.00020867
20110.0 0.00020489
20130.0 0.00020113
20150.0 0.00019744
20170.0 0.0001937
20190.0 0.00018997
20210.0 0.0001864
20230.0 0.0001829
20250.0 0.00017939
20270.0 0.00017603
20290.0 0.00017283
20310.0 0.00016968
20330.0 0.00016658
20350.0 0.00016375
20370.0 0.00016103
20390.0 0.00015839
20410.0 0.00015592
20430.0 0.00015364
20450.0 0.00015142
20470.0 0.00014936
20490.0 0.00014748
20510.0 0.00014573
20530.0 0.00014408
20550.0 0.00014258
20570.0 0.00014121
20590.0 0.00013993
20610.0 0.00013876
20630.0 0.00013767
20650.0 0.00013667
20670.0 0.00013572
20690.0 0.00013483
20710.0 0.00013398
20730.0 0.00013317
20750.0 0.00013236
20770.0 0.00013156
20790.0 0.00013076
20810.0 0.00012994
20830.0 0.00012909
20850.0 0.0001282
20870.0 0.00012728
20890.0 0.0001263
20910.0 0.00012528
20930.0 0.0001242
20950.0 0.00012305
20970.0 0.00012186
20990.0 0.00012062
21010.0 0.00011931
21030.0 0.00011795
21050.0 0.00011656
21070.0 0.00011511
21090.0 0.00011361
21110.0 0.00011211
21130.0 0.00011059
21150.0 0.00010903
21170.0 0.00010746
21190.0 0.0001059
21210.0 0.00010432
21230.0 0.00010273
21250.0 0.00010117
21270.0 9.963e-05
21290.0 9.8078e-05
21310.0 9.6554e-05
21330.0 9.5088e-05
21350.0 9.3623e-05
21370.0 9.2179e-05
21390.0 9.0793e-05
21410.0 8.9447e-05
21430.0 8.8104e-05
21450.0 8.6826e-05
21470.0 8.5609e-05
21490.0 8.4422e-05
21510.0 8.3277e-05
21530.0 8.2197e-05
21550.0 8.1159e-05
21570.0 8.0153e-05
21590.0 7.92e-05
21610.0 7.8295e-05
21630.0 7.742e-05
21650.0 7.6577e-05
21670.0 7.5778e-05
21690.0 7.5004e-05
21710.0 7.425e-05
21730.0 7.3518e-05
21750.0 7.2806e-05
21770.0 7.21e-05
21790.0 7.1404e-05
21810.0 7.0717e-05
21830.0 7.0033e-05
21850.0 6.9346e-05
21870.0 6.8661e-05
21890.0 6.7977e-05
21910.0 6.7284e-05
21930.0 6.6586e-05
21950.0 6.5888e-05
21970.0 6.5181e-05
21990.0 6.4459e-05
22010.0 6.3737e-05
22030.0 6.3011e-05
22050.0 6.227e-05
22070.0 6.1519e-05
22090.0 6.0771e-05
22110.0 6.0008e-05
22130.0 5.9229e-05
22150.0 5.8449e-05
22170.0 5.7664e-05
22190.0 5.6856e-05
22210.0 5.604e-05
22230.0 5.5233e-05
22250.0 5.4409e-05
22270.0 5.3571e-05
22290.0 5.2738e-05
22310.0 5.1905e-05
22330.0 5.1048e-05
22350.0 5.0194e-05
22370.0 4.935e-05
22390.0 4.8496e-05
22410.0 4.7628e-05
22430.0 4.6784e-05
22450.0 4.5944e-05
22470.0 4.5093e-05
22490.0 4.4253e-05
22510.0 4.3436e-05
22530.0 4.2609e-05
22550.0 4.1784e-05
22570.0 4.0992e-05
22590.0 4.0213e-05
22610.0 3.9437e-05
22630.0 3.8684e-05
22650.0 3.7967e-05
22670.0 3.7257e-05
22690.0 3.6566e-05
22710.0 3.5911e-05
22730.0 3.5281e-05
22750.0 3.466e-05
22770.0 3.4078e-05
22790.0 3.3529e-05
22810.0 3.2999e-05
22830.0 3.2493e-05
22850.0 3.2021e-05
22870.0 3.1571e-05
22890.0 3.1138e-05
22910.0 3.0731e-05
22930.0 3.0348e-05
22950.0 2.9981e-05
22970.0 2.9629e-05
22990.0 2.93e-05
23010.0 2.8984e-05
23030.0 2.8678e-05
23050.0 2.8385e-05
