#lamb flux
1010.0 7.9206e-07
1030.0 8.5466e-07
1050.0 9.268e-07
1070.0 1.0081e-06
1090.0 1.1004e-06
1110.0 1.1952e-06
1130.0 1.2907e-06
1150.0 1.3909e-06
1170.0 1.4944e-06
1190.0 1.5928e-06
1210.0 1.6926e-06
1230.0 1.7959e-06
1250.0 1.8974e-06
1270.0 1.9962e-06
1290.0 2.1008e-06
1310.0 2.2055e-06
1330.0 2.3063e-06
1350.0 2.4084e-06
1370.0 2.5141e-06
1390.0 2.6175e-06
1410.0 2.7182e-06
1430.0 2.8237e-06
1450.0 2.9294e-06
1470.0 3.0321e-06
1490.0 3.136e-06
1510.0 3.246e-06
1530.0 3.3506e-06
1550.0 3.4541e-06
1570.0 3.5612e-06
1590.0 3.6686e-06
1610.0 3.7715e-06
1630.0 3.8774e-06
1650.0 3.9861e-06
1670.0 4.0912e-06
1690.0 4.1949e-06
1710.0 4.3022e-06
1730.0 4.4097e-06
1750.0 4.5105e-06
1770.0 4.6137e-06
1790.0 4.7183e-06
1810.0 4.8188e-06
1830.0 4.9167e-06
1850.0 5.0197e-06
1870.0 5.1189e-06
1890.0 5.2135e-06
1910.0 5.3088e-06
1930.0 5.4051e-06
1950.0 5.4953e-06
1970.0 5.5827e-06
1990.0 5.6721e-06
2010.0 5.7582e-06
2030.0 5.839e-06
2050.0 5.9209e-06
2070.0 6.0034e-06
2090.0 6.0783e-06
2110.0 6.1511e-06
2130.0 6.2248e-06
2150.0 6.2948e-06
2170.0 6.3588e-06
2190.0 6.4245e-06
2210.0 6.4889e-06
2230.0 6.5477e-06
2250.0 6.6045e-06
2270.0 6.6636e-06
2290.0 6.7182e-06
2310.0 6.7675e-06
2330.0 6.8181e-06
2350.0 6.868e-06
2370.0 6.9128e-06
2390.0 6.9573e-06
2410.0 7.005e-06
2430.0 7.0493e-06
2450.0 7.0918e-06
2470.0 7.1387e-06
2490.0 7.1938e-06
2510.0 7.2593e-06
2530.0 7.3628e-06
2550.0 7.5492e-06
2570.0 7.8654e-06
2590.0 8.3666e-06
2610.0 9.1942e-06
2630.0 1.0384e-05
2650.0 1.1871e-05
2670.0 1.3671e-05
2690.0 1.5717e-05
2710.0 1.7727e-05
2730.0 1.9565e-05
2750.0 2.1263e-05
2770.0 2.2667e-05
2790.0 2.3761e-05
2810.0 2.4668e-05
2830.0 2.5482e-05
2850.0 2.6169e-05
2870.0 2.6823e-05
2890.0 2.7507e-05
2910.0 2.8203e-05
2930.0 2.8883e-05
2950.0 2.9612e-05
2970.0 3.0379e-05
2990.0 3.1137e-05
3010.0 0.00017673
3030.0 0.00018119
3050.0 0.00018558
3070.0 0.00018941
3090.0 0.00019261
3110.0 0.00019424
3130.0 0.00019318
3150.0 0.00018834
3170.0 0.00017755
3190.0 0.00016068
3210.0 0.00013823
3230.0 0.00011324
3250.0 0.00013614
3270.0 0.00010982
3290.0 0.00016663
3310.0 0.00010654
3330.0 0.00010717
3350.0 0.00011651
3370.0 0.00012801
3390.0 0.0001409
3410.0 0.00015393
3430.0 0.0001677
3450.0 0.00018183
3470.0 0.00019515
3490.0 0.0002055
3510.0 0.00023216
3530.0 0.00027622
3550.0 0.00027442
3570.0 0.00024672
3590.0 0.00030099
3610.0 0.00023732
3630.0 0.00032203
3650.0 0.00036171
3670.0 0.00043002
3690.0 0.0004083
3710.0 0.00031259
3730.0 0.0003641
3750.0 0.00036858
3770.0 0.0003996
3790.0 0.00041143
3810.0 0.00045544
3830.0 0.00067364
3850.0 0.00084476
3870.0 0.0010188
3890.0 0.0010308
3910.0 0.00096172
3930.0 0.00096758
3950.0 0.0010211
3970.0 0.0010013
3990.0 0.00060769
4010.0 0.00036961
4030.0 0.00064518
4050.0 0.0008825
4070.0 0.00087093
4090.0 0.00054044
4110.0 0.00038732
4130.0 0.00065346
4150.0 0.00071471
4170.0 0.00061318
4190.0 0.00052425
4210.0 0.00075988
4230.0 0.00064582
4250.0 0.00064307
4270.0 0.0006388
4290.0 0.00058214
4310.0 0.00072611
4330.0 0.00082119
4350.0 0.00078752
4370.0 0.00070237
4390.0 0.00077653
4410.0 0.00075437
4430.0 0.00055855
4450.0 0.00045862
4470.0 0.00055949
4490.0 0.00048902
4510.0 0.00070548
4530.0 0.00072583
4550.0 0.00077333
4570.0 0.0010097
4590.0 0.0011046
4610.0 0.0011591
4630.0 0.00163
4650.0 0.0019103
4670.0 0.0018991
4690.0 0.0016632
4710.0 0.0016797
4730.0 0.0016022
4750.0 0.0012242
4770.0 0.00097336
4790.0 0.00072274
4810.0 0.0008449
4830.0 0.00098486
4850.0 0.00094235
4870.0 0.00068546
4890.0 0.0011267
4910.0 0.0012649
4930.0 0.0013786
4950.0 0.0015479
4970.0 0.0014155
4990.0 0.0016161
5010.0 0.0017311
5030.0 0.0016803
5050.0 0.0014213
5070.0 0.0010162
5090.0 0.00084366
5110.0 0.00084317
5130.0 0.00085589
5150.0 0.00083216
5170.0 0.00078115
5190.0 0.00085904
5210.0 0.00088132
5230.0 0.00097272
5250.0 0.0010775
5270.0 0.00097645
5290.0 0.001092
5310.0 0.001446
5330.0 0.0016093
5350.0 0.0014486
5370.0 0.0014033
5390.0 0.0015547
5410.0 0.0016533
5430.0 0.0016608
5450.0 0.0017338
5470.0 0.001847
5490.0 0.0020886
5510.0 0.0024995
5530.0 0.0025965
5550.0 0.0026391
5570.0 0.0026594
5590.0 0.0025703
5610.0 0.0024192
5630.0 0.0024061
5650.0 0.0024941
5670.0 0.0024149
5690.0 0.0021403
5710.0 0.0021139
5730.0 0.0020101
5750.0 0.0018994
5770.0 0.0016671
5790.0 0.0016999
5810.0 0.0017857
5830.0 0.0019529
5850.0 0.0018829
5870.0 0.0018563
5890.0 0.0019968
5910.0 0.0018449
5930.0 0.0016301
5950.0 0.0015756
5970.0 0.0016687
5990.0 0.0014825
6010.0 0.0012869
6030.0 0.0011695
6050.0 0.0010616
6070.0 0.00093025
6090.0 0.0009575
6110.0 0.0011175
6130.0 0.0011697
6150.0 0.0011902
6170.0 0.0012121
6190.0 0.0012497
6210.0 0.0013929
6230.0 0.0016498
6250.0 0.0015308
6270.0 0.0013507
6290.0 0.0011877
6310.0 0.001015
6330.0 0.00091053
6350.0 0.00085269
6370.0 0.00089421
6390.0 0.001011
6410.0 0.0012287
6430.0 0.0014929
6450.0 0.0016524
6470.0 0.0017748
6490.0 0.0020599
6510.0 0.0022864
6530.0 0.0021992
6550.0 0.0020972
6570.0 0.0021208
6590.0 0.0021138
6610.0 0.0021434
6630.0 0.0020107
6650.0 0.0017882
6670.0 0.0017018
6690.0 0.0016756
6710.0 0.0017921
6730.0 0.0015752
6750.0 0.0013275
6770.0 0.0012661
6790.0 0.0013492
6810.0 0.001527
6830.0 0.0015394
6850.0 0.0014008
6870.0 0.0014155
6890.0 0.0014011
6910.0 0.0013182
6930.0 0.0013789
6950.0 0.0013252
6970.0 0.0012804
6990.0 0.0013016
7010.0 0.0013623
7030.0 0.0013383
7050.0 0.0012455
7070.0 0.0012428
7090.0 0.0011191
7110.0 0.00095962
7130.0 0.00090358
7150.0 0.00093893
7170.0 0.0010739
7190.0 0.0010989
7210.0 0.0010568
7230.0 0.0011424
7250.0 0.0011903
7270.0 0.0012096
7290.0 0.001257
7310.0 0.0012969
7330.0 0.0012369
7350.0 0.0011471
7370.0 0.0010628
7390.0 0.001046
7410.0 0.0011664
7430.0 0.0013402
7450.0 0.0014557
7470.0 0.0015542
7490.0 0.0017872
7510.0 0.0017713
7530.0 0.0015092
7550.0 0.0013468
7570.0 0.0011403
7590.0 0.001029
7610.0 0.00099887
7630.0 0.00096335
7650.0 0.0010386
7670.0 0.0011722
7690.0 0.0012838
7710.0 0.0014674
7730.0 0.0015271
7750.0 0.0015831
7770.0 0.0016868
7790.0 0.0017838
7810.0 0.0017686
7830.0 0.0016075
7850.0 0.0016042
7870.0 0.0015593
7890.0 0.001529
7910.0 0.001427
7930.0 0.0013775
7950.0 0.0011496
7970.0 0.0011255
7990.0 0.0011143
8010.0 0.0012711
8030.0 0.0012712
8050.0 0.0013477
8070.0 0.0013049
8090.0 0.0013103
8110.0 0.0012902
8130.0 0.0012545
8150.0 0.0011683
8170.0 0.0011541
8190.0 0.0011606
8210.0 0.0011732
8230.0 0.0010444
8250.0 0.00096253
8270.0 0.00085002
8290.0 0.00071917
8310.0 0.00061714
8330.0 0.00047467
8350.0 0.00037516
8370.0 0.00035378
8390.0 0.00035195
8410.0 0.00038119
8430.0 0.00049069
8450.0 0.00053915
8470.0 0.00058287
8490.0 0.0006737
8510.0 0.00073232
8530.0 0.00082473
8550.0 0.00097632
8570.0 0.0010815
8590.0 0.0011457
8610.0 0.0012907
8630.0 0.0014835
8650.0 0.0015347
8670.0 0.0015694
8690.0 0.0016096
8710.0 0.0015739
8730.0 0.0015149
8750.0 0.001396
8770.0 0.0013902
8790.0 0.0013628
8810.0 0.0012558
8830.0 0.0012375
8850.0 0.0011122
8870.0 0.0010496
8890.0 0.00094641
8910.0 0.0010604
8930.0 0.00096934
8950.0 0.00098008
8970.0 0.0010044
8990.0 0.00098286
9010.0 0.0010046
9030.0 0.00095527
9050.0 0.00095134
9070.0 0.00095222
9090.0 0.00095296
9110.0 0.0009544
9130.0 0.00095499
9150.0 0.00095513
9170.0 0.000953
9190.0 0.00094767
9210.0 0.0009619
9230.0 0.0009588
9250.0 0.00095738
9270.0 0.00095637
9290.0 0.00095563
9310.0 0.00095503
9330.0 0.0009545
9350.0 0.00095403
9370.0 0.00095354
9390.0 0.00095299
9410.0 0.00095243
9430.0 0.00095187
9450.0 0.00095121
9470.0 0.00095053
9490.0 0.00094986
9510.0 0.00094913
9530.0 0.00094836
9550.0 0.00094764
9570.0 0.00094691
9590.0 0.00094614
9610.0 0.00094537
9630.0 0.00094465
9650.0 0.00094392
9670.0 0.00094313
9690.0 0.00094243
9710.0 0.00094175
9730.0 0.00094104
9750.0 0.00094036
9770.0 0.00093981
9790.0 0.0009392
9810.0 0.00093859
9830.0 0.00093808
9850.0 0.00093761
9870.0 0.0009371
9890.0 0.00093666
9910.0 0.00093632
9930.0 0.00093596
9950.0 0.00093453
9970.0 0.00093464
9990.0 0.00093476
10010.0 0.00093475
10030.0 0.00093474
10050.0 0.0009344
10070.0 0.00093203
10090.0 0.00093286
10110.0 0.00093367
10130.0 0.00093429
10150.0 0.0009348
10170.0 0.0009352
10190.0 0.0009355
10210.0 0.00093586
10230.0 0.00093625
10250.0 0.00093661
10270.0 0.00093701
10290.0 0.00093751
10310.0 0.00093799
10330.0 0.00093846
10350.0 0.00093904
10370.0 0.00093966
10390.0 0.00094026
10410.0 0.0009409
10430.0 0.00094163
10450.0 0.00094234
10470.0 0.00094305
10490.0 0.00094383
10510.0 0.00094464
10530.0 0.0009454
10550.0 0.00094621
10570.0 0.00094708
10590.0 0.00094794
10610.0 0.00094878
10630.0 0.00094969
10650.0 0.00095061
10670.0 0.00095148
10690.0 0.00095239
10710.0 0.00095333
10730.0 0.00095425
10750.0 0.00095514
10770.0 0.0009561
10790.0 0.00095704
10810.0 0.00095793
10830.0 0.00095881
10850.0 0.00095963
10870.0 0.00096017
10890.0 0.00096029
10910.0 0.00095972
10930.0 0.00095793
10950.0 0.00095405
10970.0 0.00094766
10990.0 0.00093854
11010.0 0.00095996
11030.0 0.0009416
11050.0 0.00092024
11070.0 0.00089564
11090.0 0.00086719
11110.0 0.00083892
11130.0 0.00081072
11150.0 0.00078193
11170.0 0.00075409
11190.0 0.00072892
11210.0 0.00070484
11230.0 0.00068218
11250.0 0.00066241
11270.0 0.00064503
11290.0 0.00062907
11310.0 0.00061513
11330.0 0.00060359
11350.0 0.00059304
11370.0 0.0005833
11390.0 0.00057448
11410.0 0.00056606
11430.0 0.00055711
11450.0 0.00054797
11470.0 0.0005386
11490.0 0.00052837
11510.0 0.00051707
11530.0 0.00050554
11550.0 0.00049353
11570.0 0.00048053
11590.0 0.0004673
11610.0 0.00045431
11630.0 0.00044081
11650.0 0.00042711
11670.0 0.00041428
11690.0 0.00040181
11710.0 0.00038938
11730.0 0.00037761
11750.0 0.0003668
11770.0 0.0003561
11790.0 0.00034581
11810.0 0.00033632
11830.0 0.00032727
11850.0 0.00031815
11870.0 0.00030963
11890.0 0.00030163
11910.0 0.00029358
11930.0 0.00028559
11950.0 0.00027802
11970.0 0.00027046
11990.0 0.00026267
12010.0 0.00025516
12030.0 0.00024791
12050.0 0.0002406
12070.0 0.00023335
12090.0 0.00022681
12110.0 0.00022055
12130.0 0.00021459
12150.0 0.00020936
12170.0 0.00020493
12190.0 0.00020105
12210.0 0.00019815
12230.0 0.00019632
12250.0 0.00019549
12270.0 0.00019578
12290.0 0.00019719
12310.0 0.00019959
12330.0 0.00020312
12350.0 0.00020762
12370.0 0.00021274
12390.0 0.00021856
12410.0 0.00022521
12430.0 0.00023177
12450.0 0.00023831
12470.0 0.00024497
12490.0 0.00025132
12510.0 0.00025696
12530.0 0.00026225
12550.0 0.00026702
12570.0 0.00027092
12590.0 0.00027408
12610.0 0.00027663
12630.0 0.00027842
12650.0 0.00027945
12670.0 0.00027989
12690.0 0.00027975
12710.0 0.00027909
12730.0 0.00027799
12750.0 0.0002764
12770.0 0.00027447
12790.0 0.00027227
12810.0 0.00026973
12830.0 0.00026684
12850.0 0.0002638
12870.0 0.00026052
12890.0 0.00025684
12910.0 0.00025289
12930.0 0.00024877
12950.0 0.00024417
12970.0 0.00023912
12990.0 0.00023399
13010.0 0.00022856
13030.0 0.00022269
13050.0 0.00021672
13070.0 0.00021086
13090.0 0.00020474
13110.0 0.00019864
13130.0 0.00019293
13150.0 0.00018748
13170.0 0.00018216
13190.0 0.00017752
13210.0 0.00017356
13230.0 0.00017007
13250.0 0.00016721
13270.0 0.00016509
13290.0 0.00016355
13310.0 0.00016255
13330.0 0.00016212
13350.0 0.00016211
13370.0 0.00016242
13390.0 0.00016298
13410.0 0.0001636
13430.0 0.00016423
13450.0 0.00016477
13470.0 0.00016513
13490.0 0.00016525
13510.0 0.00016511
13530.0 0.00016469
13550.0 0.00016402
13570.0 0.00016312
13590.0 0.00016202
13610.0 0.00016082
13630.0 0.0001596
13650.0 0.00015832
13670.0 0.00015709
13690.0 0.00015597
13710.0 0.00015494
13730.0 0.00015398
13750.0 0.00015317
13770.0 0.00015246
13790.0 0.0001518
13810.0 0.00015117
13830.0 0.00015056
13850.0 0.00014989
13870.0 0.00014914
13890.0 0.00014831
13910.0 0.00014738
13930.0 0.00014629
13950.0 0.00014509
13970.0 0.00014385
13990.0 0.00014251
14010.0 0.00014112
14030.0 0.00013977
14050.0 0.00013848
14070.0 0.0001372
14090.0 0.00013607
14110.0 0.00013508
14130.0 0.00013421
14150.0 0.00013349
14170.0 0.00013292
14190.0 0.0001325
14210.0 0.0001322
14230.0 0.00013204
14250.0 0.000132
14270.0 0.0001321
14290.0 0.00013236
14310.0 0.00013273
14330.0 0.00013324
14350.0 0.00013392
14370.0 0.00013471
14390.0 0.00013559
14410.0 0.00013662
14430.0 0.00013776
14450.0 0.00013891
14470.0 0.00014012
14490.0 0.00014145
14510.0 0.00014276
14530.0 0.00014406
14550.0 0.00014548
14570.0 0.00014698
14590.0 0.00014851
14610.0 0.00015021
14630.0 0.00015218
14650.0 0.00015431
14670.0 0.00015663
14690.0 0.00015932
14710.0 0.00016237
14730.0 0.00016551
14750.0 0.00016898
14770.0 0.00017282
14790.0 0.00017675
14810.0 0.00018073
14830.0 0.00018507
14850.0 0.00018933
14870.0 0.00019335
14890.0 0.00019726
14910.0 0.00020099
14930.0 0.0002042
14950.0 0.00020688
14970.0 0.00020915
14990.0 0.00021078
15010.0 0.00021179
15030.0 0.00021231
15050.0 0.00021237
15070.0 0.00021206
15090.0 0.00021152
15110.0 0.00021081
15130.0 0.00021002
15150.0 0.00020919
15170.0 0.00020832
15190.0 0.00020743
15210.0 0.00020656
15230.0 0.00020569
15250.0 0.00020481
15270.0 0.00020393
15290.0 0.00020308
15310.0 0.00020221
15330.0 0.00020134
15350.0 0.0002005
15370.0 0.00019966
15390.0 0.00019879
15410.0 0.00019794
15430.0 0.00019711
15450.0 0.00019626
15470.0 0.00019541
15490.0 0.00019459
15510.0 0.00019377
15530.0 0.00019294
15550.0 0.00019212
15570.0 0.00019131
15590.0 0.00019049
15610.0 0.00018966
15630.0 0.00018887
15650.0 0.00018807
15670.0 0.00018726
15690.0 0.00018646
15710.0 0.00018568
15730.0 0.00018489
15750.0 0.00018409
15770.0 0.00018332
15790.0 0.00018255
15810.0 0.00018175
15830.0 0.00018098
15850.0 0.00018023
15870.0 0.00017946
15890.0 0.00017869
15910.0 0.00017794
15930.0 0.00017719
15950.0 0.00017642
15970.0 0.00017568
15990.0 0.00017494
16010.0 0.00017419
16030.0 0.00017344
16050.0 0.00017272
16070.0 0.00017199
16090.0 0.00017125
16110.0 0.00017053
16130.0 0.00016982
16150.0 0.00016908
16170.0 0.00016836
16190.0 0.00016765
16210.0 0.00016694
16230.0 0.00016622
16250.0 0.00016552
16270.0 0.00016483
16290.0 0.00016412
16310.0 0.00016342
16330.0 0.00016273
16350.0 0.00016204
16370.0 0.00016132
16390.0 0.00016064
16410.0 0.00015997
16430.0 0.00015927
16450.0 0.00015859
16470.0 0.00015793
16490.0 0.00015724
16510.0 0.00015655
16530.0 0.00015589
16550.0 0.00015522
16570.0 0.00015454
16590.0 0.00015386
16610.0 0.00015321
16630.0 0.00015255
16650.0 0.00015188
16670.0 0.00015123
16690.0 0.00015058
16710.0 0.0001499
16730.0 0.00014924
16750.0 0.0001486
16770.0 0.00014794
16790.0 0.00014728
16810.0 0.00014664
16830.0 0.000146
16850.0 0.00014534
16870.0 0.0001447
16890.0 0.00014407
16910.0 0.00014342
16930.0 0.00014276
16950.0 0.00014213
16970.0 0.00014149
16990.0 0.00014084
17010.0 0.00014021
17030.0 0.00013959
17050.0 0.00013895
17070.0 0.0001383
17090.0 0.00013768
17110.0 0.00013705
17130.0 0.0001364
17150.0 0.00013577
17170.0 0.00013516
17190.0 0.00013452
17210.0 0.00013389
17230.0 0.00013328
17250.0 0.00013265
17270.0 0.00013201
17290.0 0.00013139
17310.0 0.00013078
17330.0 0.00013014
17350.0 0.00012951
17370.0 0.00012891
17390.0 0.00012829
17410.0 0.00012766
17430.0 0.00012704
17450.0 0.00012644
17470.0 0.0001258
17490.0 0.00012518
17510.0 0.00012457
17530.0 0.00012396
17550.0 0.00012333
17570.0 0.00012272
17590.0 0.00012212
17610.0 0.0001215
17630.0 0.00012088
17650.0 0.00012028
17670.0 0.00011967
17690.0 0.00011903
17710.0 0.00011844
17730.0 0.00011783
17750.0 0.00011722
17770.0 0.00011661
17790.0 0.00011602
17810.0 0.0001154
17830.0 0.00011478
17850.0 0.00011419
17870.0 0.00011359
17890.0 0.00011297
17910.0 0.00011236
17930.0 0.00011177
17950.0 0.00011117
17970.0 0.00011056
17990.0 0.00010997
18010.0 0.00010938
18030.0 0.00010876
18050.0 0.00010816
18070.0 0.00010757
18090.0 0.00010697
18110.0 0.00010636
18130.0 0.00010578
18150.0 0.00010519
18170.0 0.00010459
18190.0 0.000104
18210.0 0.00010342
18230.0 0.00010281
18250.0 0.00010221
18270.0 0.00010163
18290.0 0.00010105
18310.0 0.00010045
18330.0 9.9865e-05
18350.0 9.9294e-05
18370.0 9.8699e-05
18390.0 9.8108e-05
18410.0 9.7534e-05
18430.0 9.6955e-05
18450.0 9.6354e-05
18470.0 9.5778e-05
18490.0 9.5211e-05
18510.0 9.4627e-05
18530.0 9.4045e-05
18550.0 9.3483e-05
18570.0 9.2907e-05
18590.0 9.2318e-05
18610.0 9.1749e-05
18630.0 9.1186e-05
18650.0 9.0606e-05
18670.0 9.0026e-05
18690.0 8.9474e-05
18710.0 8.8908e-05
18730.0 8.8332e-05
18750.0 8.7773e-05
18770.0 8.7222e-05
18790.0 8.664e-05
18810.0 8.6074e-05
18830.0 8.5525e-05
18850.0 8.4965e-05
18870.0 8.4396e-05
18890.0 8.3849e-05
18910.0 8.3304e-05
18930.0 8.2739e-05
18950.0 8.2184e-05
18970.0 8.1644e-05
18990.0 8.1091e-05
19010.0 8.0521e-05
19030.0 7.9986e-05
19050.0 7.9447e-05
19070.0 7.8893e-05
19090.0 7.8349e-05
19110.0 7.7824e-05
19130.0 7.7275e-05
19150.0 7.6725e-05
19170.0 7.6194e-05
19190.0 7.5663e-05
19210.0 7.5114e-05
19230.0 7.4576e-05
19250.0 7.4059e-05
19270.0 7.3524e-05
19290.0 7.2988e-05
19310.0 7.247e-05
19330.0 7.1949e-05
19350.0 7.1405e-05
19370.0 7.0881e-05
19390.0 7.0369e-05
19410.0 6.9842e-05
19430.0 6.9312e-05
19450.0 6.8807e-05
19470.0 6.8295e-05
19490.0 6.7769e-05
19510.0 6.7257e-05
19530.0 6.6756e-05
19550.0 6.6234e-05
19570.0 6.5711e-05
19590.0 6.5215e-05
19610.0 6.4711e-05
19630.0 6.4195e-05
19650.0 6.3695e-05
19670.0 6.3206e-05
19690.0 6.2694e-05
19710.0 6.2189e-05
19730.0 6.17e-05
19750.0 6.1204e-05
19770.0 6.0691e-05
19790.0 6.0202e-05
19810.0 5.9719e-05
19830.0 5.9219e-05
19850.0 5.8719e-05
19870.0 5.8231e-05
19890.0 5.7712e-05
19910.0 5.7149e-05
19930.0 5.6561e-05
19950.0 5.5906e-05
19970.0 5.5128e-05
19990.0 5.4228e-05
20010.0 5.3248e-05
20030.0 5.2112e-05
20050.0 5.0847e-05
20070.0 4.955e-05
20090.0 4.8232e-05
20110.0 4.6838e-05
20130.0 4.5527e-05
20150.0 4.4322e-05
20170.0 4.3166e-05
20190.0 4.2086e-05
20210.0 4.1148e-05
20230.0 4.0305e-05
20250.0 3.9531e-05
20270.0 3.8876e-05
20290.0 3.8333e-05
20310.0 3.7871e-05
20330.0 3.7494e-05
20350.0 3.7234e-05
20370.0 3.7056e-05
20390.0 3.6963e-05
20410.0 3.6962e-05
20430.0 3.7043e-05
20450.0 3.7218e-05
20470.0 3.7486e-05
20490.0 3.783e-05
20510.0 3.826e-05
20530.0 3.8793e-05
20550.0 3.9394e-05
20570.0 4.0041e-05
20590.0 4.0777e-05
20610.0 4.157e-05
20630.0 4.2373e-05
20650.0 4.321e-05
20670.0 4.4103e-05
20690.0 4.4951e-05
20710.0 4.5767e-05
20730.0 4.6579e-05
20750.0 4.7353e-05
20770.0 4.8043e-05
20790.0 4.8699e-05
20810.0 4.932e-05
20830.0 4.9874e-05
20850.0 5.0378e-05
20870.0 5.0869e-05
20890.0 5.1334e-05
20910.0 5.1757e-05
20930.0 5.2182e-05
20950.0 5.2612e-05
20970.0 5.3026e-05
20990.0 5.3431e-05
21010.0 5.385e-05
21030.0 5.4249e-05
21050.0 5.4612e-05
21070.0 5.4952e-05
21090.0 5.5259e-05
21110.0 5.55e-05
21130.0 5.5683e-05
21150.0 5.581e-05
21170.0 5.5869e-05
21190.0 5.5861e-05
21210.0 5.579e-05
21230.0 5.5651e-05
21250.0 5.5459e-05
21270.0 5.5219e-05
21290.0 5.4924e-05
21310.0 5.4592e-05
21330.0 5.4244e-05
21350.0 5.386e-05
21370.0 5.3452e-05
21390.0 5.3047e-05
21410.0 5.2638e-05
21430.0 5.2207e-05
21450.0 5.1797e-05
21470.0 5.141e-05
21490.0 5.1029e-05
21510.0 5.0664e-05
21530.0 5.0339e-05
21550.0 5.004e-05
21570.0 4.9764e-05
21590.0 4.9532e-05
21610.0 4.9345e-05
21630.0 4.9196e-05
21650.0 4.9094e-05
21670.0 4.9049e-05
21690.0 4.9053e-05
21710.0 4.9113e-05
21730.0 4.923e-05
21750.0 4.9397e-05
21770.0 4.9634e-05
21790.0 4.9931e-05
21810.0 5.0275e-05
21830.0 5.0677e-05
21850.0 5.115e-05
21870.0 5.1663e-05
21890.0 5.2204e-05
21910.0 5.2812e-05
21930.0 5.346e-05
21950.0 5.4117e-05
21970.0 5.481e-05
21990.0 5.5559e-05
22010.0 5.6285e-05
22030.0 5.7007e-05
22050.0 5.7749e-05
22070.0 5.848e-05
22090.0 5.9158e-05
22110.0 5.9825e-05
22130.0 6.047e-05
22150.0 6.1047e-05
22170.0 6.1563e-05
22190.0 6.2035e-05
22210.0 6.2428e-05
22230.0 6.2721e-05
22250.0 6.2935e-05
22270.0 6.3056e-05
22290.0 6.3074e-05
22310.0 6.2993e-05
22330.0 6.2798e-05
22350.0 6.2494e-05
22370.0 6.2094e-05
22390.0 6.158e-05
22410.0 6.094e-05
22430.0 6.0233e-05
22450.0 5.9442e-05
22470.0 5.8536e-05
22490.0 5.7562e-05
22510.0 5.6558e-05
22530.0 5.5454e-05
22550.0 5.428e-05
22570.0 5.3119e-05
22590.0 5.1932e-05
22610.0 5.0688e-05
22630.0 4.9454e-05
22650.0 4.8274e-05
22670.0 4.706e-05
22690.0 4.5853e-05
22710.0 4.4714e-05
22730.0 4.3611e-05
22750.0 4.2486e-05
22770.0 4.145e-05
22790.0 4.0494e-05
