#lamb flux
1010.0 0.00085191
1030.0 0.0011339
1050.0 0.0014841
1070.0 0.0019095
1090.0 0.002428
1110.0 0.0030095
1130.0 0.0036467
1150.0 0.0043583
1170.0 0.0051368
1190.0 0.0059293
1210.0 0.00676
1230.0 0.0076301
1250.0 0.0084922
1270.0 0.0093217
1290.0 0.010153
1310.0 0.010932
1330.0 0.01161
1350.0 0.012206
1370.0 0.012717
1390.0 0.013095
1410.0 0.013332
1430.0 0.013472
1450.0 0.013489
1470.0 0.013373
1490.0 0.013159
1510.0 0.012881
1530.0 0.012498
1550.0 0.012051
1570.0 0.011576
1590.0 0.01107
1610.0 0.010535
1630.0 0.010007
1650.0 0.0094938
1670.0 0.008985
1690.0 0.0084951
1710.0 0.0080399
1730.0 0.0076132
1750.0 0.0072037
1770.0 0.0068312
1790.0 0.0064929
1810.0 0.0061794
1830.0 0.0058933
1850.0 0.0056434
1870.0 0.0054162
1890.0 0.0052105
1910.0 0.0050313
1930.0 0.0048775
1950.0 0.0047412
1970.0 0.0046258
1990.0 0.0045353
2010.0 0.0044648
2030.0 0.0044135
2050.0 0.0043877
2070.0 0.0043883
2090.0 0.0044103
2110.0 0.0044604
2130.0 0.0045436
2150.0 0.0046589
2170.0 0.0048077
2190.0 0.0049996
2210.0 0.0052359
2230.0 0.0055165
2250.0 0.0058479
2270.0 0.0062383
2290.0 0.0066845
2310.0 0.0071879
2330.0 0.0077584
2350.0 0.0083962
2370.0 0.0090961
2390.0 0.0098641
2410.0 0.010704
2430.0 0.011604
2450.0 0.012559
2470.0 0.013572
2490.0 0.014638
2510.0 0.015744
2530.0 0.016916
2550.0 0.018195
2570.0 0.019636
2590.0 0.021324
2610.0 0.023486
2630.0 0.026294
2650.0 0.029834
2670.0 0.034369
2690.0 0.040142
2710.0 0.046901
2730.0 0.054449
2750.0 0.062981
2770.0 0.071817
2790.0 0.080286
2810.0 0.088304
2830.0 0.095709
2850.0 0.10174
2870.0 0.10674
2890.0 0.11098
2910.0 0.11447
2930.0 0.11733
2950.0 0.11987
2970.0 0.12213
2990.0 0.12405
3010.0 0.12573
3030.0 0.12725
3050.0 0.12853
3070.0 0.12947
3090.0 0.1302
3110.0 0.13065
3130.0 0.13067
3150.0 0.13169
3170.0 0.13203
3190.0 0.132
3210.0 0.13145
3230.0 0.12992
3250.0 0.12507
3270.0 0.1167
3290.0 0.1097
3310.0 0.10727
3330.0 0.10867
3350.0 0.11065
3370.0 0.1122
3390.0 0.11336
3410.0 0.11435
3430.0 0.11528
3450.0 0.11686
3470.0 0.12005
3490.0 0.12109
3510.0 0.11815
3530.0 0.12229
3550.0 0.13264
3570.0 0.15687
3590.0 0.17483
3610.0 0.18899
3630.0 0.20331
3650.0 0.1965
3670.0 0.17435
3690.0 0.1573
3710.0 0.15531
3730.0 0.16367
3750.0 0.16908
3770.0 0.1721
3790.0 0.17385
3810.0 0.17186
3830.0 0.15814
3850.0 0.14177
3870.0 0.13427
3890.0 0.13988
3910.0 0.1449
3930.0 0.14555
3950.0 0.14968
3970.0 0.15656
3990.0 0.16056
4010.0 0.16312
4030.0 0.15896
4050.0 0.1542
4070.0 0.15214
4090.0 0.1534
4110.0 0.15425
4130.0 0.15106
4150.0 0.14628
4170.0 0.14479
4190.0 0.14476
4210.0 0.13803
4230.0 0.12784
4250.0 0.11535
4270.0 0.10335
4290.0 0.096243
4310.0 0.092462
4330.0 0.094876
4350.0 0.10336
4370.0 0.10971
4390.0 0.11896
4410.0 0.12707
4430.0 0.13013
4450.0 0.12445
4470.0 0.11785
4490.0 0.11624
4510.0 0.11595
4530.0 0.11645
4550.0 0.11604
4570.0 0.11689
4590.0 0.12022
4610.0 0.1233
4630.0 0.12606
4650.0 0.12799
4670.0 0.12712
4690.0 0.12062
4710.0 0.11382
4730.0 0.10962
4750.0 0.10672
4770.0 0.1031
4790.0 0.10165
4810.0 0.099777
4830.0 0.10384
4850.0 0.10114
4870.0 0.10626
4890.0 0.10037
4910.0 0.093515
4930.0 0.088188
4950.0 0.080965
4970.0 0.073986
4990.0 0.070329
5010.0 0.066559
5030.0 0.066221
5050.0 0.067097
5070.0 0.071126
5090.0 0.074444
5110.0 0.077914
5130.0 0.080261
5150.0 0.081341
5170.0 0.081515
5190.0 0.082
5210.0 0.081326
5230.0 0.080337
5250.0 0.080561
5270.0 0.082254
5290.0 0.081264
5310.0 0.079049
5330.0 0.075764
5350.0 0.072455
5370.0 0.070481
5390.0 0.068712
5410.0 0.069874
5430.0 0.069408
5450.0 0.069118
5470.0 0.068761
5490.0 0.070336
5510.0 0.071337
5530.0 0.070062
5550.0 0.07046
5570.0 0.071184
5590.0 0.071704
5610.0 0.070291
5630.0 0.06907
5650.0 0.067299
5670.0 0.067159
5690.0 0.065178
5710.0 0.064613
5730.0 0.063635
5750.0 0.062622
5770.0 0.061705
5790.0 0.059868
5810.0 0.059038
5830.0 0.05914
5850.0 0.059345
5870.0 0.059172
5890.0 0.059198
5910.0 0.059798
5930.0 0.060906
5950.0 0.060473
5970.0 0.061297
5990.0 0.061567
6010.0 0.061732
6030.0 0.061047
6050.0 0.059741
6070.0 0.060043
6090.0 0.060332
6110.0 0.059324
6130.0 0.05811
6150.0 0.056392
6170.0 0.053817
6190.0 0.050844
6210.0 0.050019
6230.0 0.049284
6250.0 0.048905
6270.0 0.049942
6290.0 0.050709
6310.0 0.051124
6330.0 0.0519
6350.0 0.052425
6370.0 0.05199
6390.0 0.050419
6410.0 0.049439
6430.0 0.048476
6450.0 0.047355
6470.0 0.046649
6490.0 0.046774
6510.0 0.046424
6530.0 0.046218
6550.0 0.04557
6570.0 0.045078
6590.0 0.044666
6610.0 0.043968
6630.0 0.043592
6650.0 0.043025
6670.0 0.042025
6690.0 0.040539
6710.0 0.039589
6730.0 0.039155
6750.0 0.038913
6770.0 0.038948
6790.0 0.037958
6810.0 0.037763
6830.0 0.037422
6850.0 0.036991
6870.0 0.036094
6890.0 0.035554
6910.0 0.035531
6930.0 0.034685
6950.0 0.034889
6970.0 0.034592
6990.0 0.03435
7010.0 0.0334
7030.0 0.033203
7050.0 0.033024
7070.0 0.032126
7090.0 0.030908
7110.0 0.030747
7130.0 0.030963
7150.0 0.030994
7170.0 0.031253
7190.0 0.031525
7210.0 0.032272
7230.0 0.032376
7250.0 0.032962
7270.0 0.032037
7290.0 0.032084
7310.0 0.031416
7330.0 0.031059
7350.0 0.03027
7370.0 0.029902
7390.0 0.030017
7410.0 0.029617
7430.0 0.029871
7450.0 0.02908
7470.0 0.028905
7490.0 0.027714
7510.0 0.026576
7530.0 0.027004
7550.0 0.026006
7570.0 0.026485
7590.0 0.025092
7610.0 0.025978
7630.0 0.025494
7650.0 0.025977
7670.0 0.025068
7690.0 0.025505
7710.0 0.024854
7730.0 0.02608
7750.0 0.02548
7770.0 0.026772
7790.0 0.027555
7810.0 0.027628
7830.0 0.028958
7850.0 0.028165
7870.0 0.029714
7890.0 0.029004
7910.0 0.028533
7930.0 0.028013
7950.0 0.027687
7970.0 0.027844
7990.0 0.027673
8010.0 0.026575
8030.0 0.026352
8050.0 0.025804
8070.0 0.025425
8090.0 0.023915
8110.0 0.024051
8130.0 0.025105
8150.0 0.025865
8170.0 0.025893
8190.0 0.026562
8210.0 0.026157
8230.0 0.025329
8250.0 0.025202
8270.0 0.024719
8290.0 0.024225
8310.0 0.023065
8330.0 0.023169
8350.0 0.023335
8370.0 0.023475
8390.0 0.023624
8410.0 0.023306
8430.0 0.023196
8450.0 0.02327
8470.0 0.023844
8490.0 0.024152
8510.0 0.023426
8530.0 0.02251
8550.0 0.022551
8570.0 0.022249
8590.0 0.02165
8610.0 0.022069
8630.0 0.021863
8650.0 0.021567
8670.0 0.021406
8690.0 0.021236
8710.0 0.020263
8730.0 0.020491
8750.0 0.019904
8770.0 0.019946
8790.0 0.01949
8810.0 0.019105
8830.0 0.019217
8850.0 0.018911
8870.0 0.018032
8890.0 0.0176
8910.0 0.016829
8930.0 0.015774
8950.0 0.015592
8970.0 0.014931
8990.0 0.014747
9010.0 0.01441
9030.0 0.014277
9050.0 0.014183
9070.0 0.014089
9090.0 0.013995
9110.0 0.013898
9130.0 0.013802
9150.0 0.013707
9170.0 0.013612
9190.0 0.013516
9210.0 0.013419
9230.0 0.013322
9250.0 0.013224
9270.0 0.013126
9290.0 0.013028
9310.0 0.012931
9330.0 0.012834
9350.0 0.012738
9370.0 0.012641
9390.0 0.012545
9410.0 0.012448
9430.0 0.012352
9450.0 0.012256
9470.0 0.012169
9490.0 0.012077
9510.0 0.011977
9530.0 0.011878
9550.0 0.011782
9570.0 0.011687
9590.0 0.011592
9610.0 0.011499
9630.0 0.011407
9650.0 0.011316
9670.0 0.011224
9690.0 0.011134
9710.0 0.011044
9730.0 0.010955
9750.0 0.010866
9770.0 0.010779
9790.0 0.010692
9810.0 0.010605
9830.0 0.010519
9850.0 0.010425
9870.0 0.010334
9890.0 0.010258
9910.0 0.01018
9930.0 0.010086
9950.0 0.010005
9970.0 0.0099321
9990.0 0.0098572
10010.0 0.0097829
10030.0 0.0097076
10050.0 0.0096315
10070.0 0.0095566
10090.0 0.0094829
10110.0 0.0094086
10130.0 0.0093352
10150.0 0.009264
10170.0 0.0091933
10190.0 0.0091226
10210.0 0.009054
10230.0 0.0089866
10250.0 0.0089191
10270.0 0.0088527
10290.0 0.0087882
10310.0 0.0087237
10330.0 0.0086595
10350.0 0.0085973
10370.0 0.0085361
10390.0 0.0084748
10410.0 0.008412
10430.0 0.0083504
10450.0 0.0082954
10470.0 0.0082393
10490.0 0.0081845
10510.0 0.0081304
10530.0 0.0080752
10550.0 0.0080216
10570.0 0.0079698
10590.0 0.007918
10610.0 0.0078664
10630.0 0.007817
10650.0 0.0077682
10670.0 0.0077189
10690.0 0.0076712
10710.0 0.007625
10730.0 0.0075787
10750.0 0.0075322
10770.0 0.0074885
10790.0 0.0074452
10810.0 0.0074017
10830.0 0.0073594
10850.0 0.007319
10870.0 0.0072775
10890.0 0.0072368
10910.0 0.0071982
10930.0 0.0071601
10950.0 0.0071217
10970.0 0.007085
10990.0 0.00705
11010.0 0.0072117
11030.0 0.0071683
11050.0 0.0071245
11070.0 0.0070792
11090.0 0.0070308
11110.0 0.0069832
11130.0 0.0069356
11150.0 0.006886
11170.0 0.0068359
11190.0 0.0067874
11210.0 0.0067379
11230.0 0.0066873
11250.0 0.0066387
11270.0 0.0065915
11290.0 0.0065439
11310.0 0.0064979
11330.0 0.0064562
11350.0 0.0064157
11370.0 0.0063767
11390.0 0.0063412
11410.0 0.0063086
11430.0 0.0062763
11450.0 0.0062467
11470.0 0.0062195
11490.0 0.0061931
11510.0 0.0061666
11530.0 0.0061421
11550.0 0.0061182
11570.0 0.0060932
11590.0 0.0060684
11610.0 0.0060444
11630.0 0.006019
11650.0 0.0059923
11670.0 0.0059667
11690.0 0.0059409
11710.0 0.0059135
11730.0 0.0058861
11750.0 0.0058601
11770.0 0.0058326
11790.0 0.0058045
11810.0 0.0057779
11830.0 0.0057517
11850.0 0.005724
11870.0 0.0056983
11890.0 0.005675
11910.0 0.0056518
11930.0 0.00563
11950.0 0.0056116
11970.0 0.0055951
11990.0 0.0055799
12010.0 0.0055685
12030.0 0.0055606
12050.0 0.0055552
12070.0 0.0055527
12090.0 0.0055547
12110.0 0.0055596
12130.0 0.0055673
12150.0 0.0055782
12170.0 0.0055918
12190.0 0.0056073
12210.0 0.0056248
12230.0 0.0056438
12250.0 0.0056634
12270.0 0.0056834
12290.0 0.005703
12310.0 0.005722
12330.0 0.0057397
12350.0 0.0057556
12370.0 0.0057698
12390.0 0.0057816
12410.0 0.0057901
12430.0 0.0057964
12450.0 0.0058001
12470.0 0.0058001
12490.0 0.0057969
12510.0 0.005792
12530.0 0.0057832
12550.0 0.0057704
12570.0 0.0057559
12590.0 0.0057391
12610.0 0.0057178
12630.0 0.005694
12650.0 0.0056706
12670.0 0.005644
12690.0 0.0056147
12710.0 0.0055857
12730.0 0.0055563
12750.0 0.0055232
12770.0 0.005491
12790.0 0.0054604
12810.0 0.0054288
12830.0 0.0053963
12850.0 0.0053674
12870.0 0.0053398
12890.0 0.005312
12910.0 0.0052868
12930.0 0.0052651
12950.0 0.0052442
12970.0 0.0052254
12990.0 0.0052115
13010.0 0.0052005
13030.0 0.0051918
13050.0 0.0051868
13070.0 0.0051858
13090.0 0.0051868
13110.0 0.0051905
13130.0 0.0051971
13150.0 0.0052055
13170.0 0.0052149
13190.0 0.0052258
13210.0 0.0052373
13230.0 0.0052488
13250.0 0.0052599
13270.0 0.0052707
13290.0 0.0052803
13310.0 0.0052883
13330.0 0.0052949
13350.0 0.0052999
13370.0 0.0053023
13390.0 0.0053019
13410.0 0.0052998
13430.0 0.0052947
13450.0 0.005286
13470.0 0.0052748
13490.0 0.0052614
13510.0 0.0052433
13530.0 0.0052225
13550.0 0.0052005
13570.0 0.0051755
13590.0 0.0051471
13610.0 0.0051179
13630.0 0.005088
13650.0 0.0050545
13670.0 0.0050197
13690.0 0.0049849
13710.0 0.0049479
13730.0 0.0049073
13750.0 0.0048682
13770.0 0.0048282
13790.0 0.0047857
13810.0 0.0047424
13830.0 0.0047005
13850.0 0.0046565
13870.0 0.0046112
13890.0 0.0045674
13910.0 0.0045242
13930.0 0.0044795
13950.0 0.0044356
13970.0 0.0043947
13990.0 0.0043534
14010.0 0.0043124
14030.0 0.0042738
14050.0 0.0042365
14070.0 0.0041983
14090.0 0.0041622
14110.0 0.004128
14130.0 0.0040939
14150.0 0.0040599
14170.0 0.004028
14190.0 0.0039967
14210.0 0.0039647
14230.0 0.0039335
14250.0 0.0039035
14270.0 0.0038726
14290.0 0.0038415
14310.0 0.0038121
14330.0 0.0037828
14350.0 0.0037533
14370.0 0.0037247
14390.0 0.0036973
14410.0 0.0036697
14430.0 0.0036426
14450.0 0.0036167
14470.0 0.0035912
14490.0 0.0035654
14510.0 0.0035405
14530.0 0.0035162
14550.0 0.0034915
14570.0 0.0034666
14590.0 0.0034422
14610.0 0.0034172
14630.0 0.0033913
14650.0 0.0033655
14670.0 0.0033395
14690.0 0.0033126
14710.0 0.0032851
14730.0 0.003258
14750.0 0.0032302
14770.0 0.0032015
14790.0 0.0031727
14810.0 0.0031439
14830.0 0.0031136
14850.0 0.0030831
14870.0 0.0030529
14890.0 0.003022
14910.0 0.0029906
14930.0 0.00296
14950.0 0.0029302
14970.0 0.0029005
14990.0 0.0028721
15010.0 0.0028455
15030.0 0.00282
15050.0 0.0027952
15070.0 0.002772
15090.0 0.0027495
15110.0 0.0027272
15130.0 0.0027053
15150.0 0.0026837
15170.0 0.0026618
15190.0 0.0026399
15210.0 0.0026181
15230.0 0.0025964
15250.0 0.0025743
15270.0 0.0025522
15290.0 0.0025305
15310.0 0.0025085
15330.0 0.0024864
15350.0 0.0024646
15370.0 0.0024427
15390.0 0.0024205
15410.0 0.0023986
15430.0 0.0023768
15450.0 0.0023548
15470.0 0.0023328
15490.0 0.0023111
15510.0 0.0022894
15530.0 0.0022676
15550.0 0.0022459
15570.0 0.0022245
15590.0 0.0022028
15610.0 0.0021812
15630.0 0.0021599
15650.0 0.0021387
15670.0 0.0021173
15690.0 0.0020962
15710.0 0.0020753
15730.0 0.0020543
15750.0 0.0020334
15770.0 0.0020127
15790.0 0.0019922
15810.0 0.0019715
15830.0 0.0019511
15850.0 0.001931
15870.0 0.0019108
15890.0 0.0018907
15910.0 0.001871
15930.0 0.0018512
15950.0 0.0018315
15970.0 0.001812
15990.0 0.0017928
16010.0 0.0017735
16030.0 0.0017544
16050.0 0.0017356
16070.0 0.0017169
16090.0 0.0016982
16110.0 0.0016798
16130.0 0.0016617
16150.0 0.0016434
16170.0 0.0016254
16190.0 0.0016077
16210.0 0.00159
16230.0 0.0015725
16250.0 0.0015552
16270.0 0.0015382
16290.0 0.0015211
16310.0 0.0015042
16330.0 0.0014877
16350.0 0.0014712
16370.0 0.0014547
16390.0 0.0014386
16410.0 0.0014227
16430.0 0.0014069
16450.0 0.0013912
16470.0 0.0013759
16490.0 0.0013605
16510.0 0.0013453
16530.0 0.0013304
16550.0 0.0013157
16570.0 0.0013009
16590.0 0.0012864
16610.0 0.0012723
16630.0 0.0012581
16650.0 0.0012441
16670.0 0.0012304
16690.0 0.0012169
16710.0 0.0012033
16730.0 0.00119
16750.0 0.0011769
16770.0 0.001164
16790.0 0.0011511
16810.0 0.0011385
16830.0 0.0011261
16850.0 0.0011137
16870.0 0.0011015
16890.0 0.0010896
16910.0 0.0010777
16930.0 0.0010659
16950.0 0.0010545
16970.0 0.0010431
16990.0 0.0010318
17010.0 0.0010208
17030.0 0.0010099
17050.0 0.0009991
17070.0 0.00098842
17090.0 0.00097799
17110.0 0.00096767
17130.0 0.00095736
17150.0 0.00094732
17170.0 0.00093748
17190.0 0.00092767
17210.0 0.00091799
17230.0 0.00090858
17250.0 0.00089922
17270.0 0.00088989
17290.0 0.00088081
17310.0 0.0008719
17330.0 0.00086301
17350.0 0.00085424
17370.0 0.00084575
17390.0 0.0008373
17410.0 0.00082892
17430.0 0.00082074
17450.0 0.00081273
17470.0 0.00080466
17490.0 0.00079678
17510.0 0.00078911
17530.0 0.00078149
17550.0 0.00077393
17570.0 0.00076658
17590.0 0.00075937
17610.0 0.00075215
17630.0 0.00074508
17650.0 0.0007382
17670.0 0.00073136
17690.0 0.00072451
17710.0 0.00071793
17730.0 0.00071145
17750.0 0.00070498
17770.0 0.00069864
17790.0 0.0006925
17810.0 0.00068634
17830.0 0.00068025
17850.0 0.00067435
17870.0 0.00066854
17890.0 0.00066272
17910.0 0.00065703
17930.0 0.00065155
17950.0 0.00064605
17970.0 0.00064062
17990.0 0.00063537
18010.0 0.00063018
18030.0 0.00062496
18050.0 0.0006199
18070.0 0.00061498
18090.0 0.00061007
18110.0 0.00060521
18130.0 0.00060054
18150.0 0.00059592
18170.0 0.00059129
18190.0 0.0005868
18210.0 0.00058243
18230.0 0.00057803
18250.0 0.00057369
18270.0 0.00056953
18290.0 0.00056541
18310.0 0.0005613
18330.0 0.00055731
18350.0 0.00055345
18370.0 0.00054954
18390.0 0.00054571
18410.0 0.00054202
18430.0 0.00053836
18450.0 0.00053467
18470.0 0.00053114
18490.0 0.00052771
18510.0 0.00052426
18530.0 0.00052088
18550.0 0.00051764
18570.0 0.00051439
18590.0 0.00051113
18610.0 0.00050801
18630.0 0.00050497
18650.0 0.00050191
18670.0 0.0004989
18690.0 0.00049605
18710.0 0.00049319
18730.0 0.00049034
18750.0 0.00048761
18770.0 0.00048495
18790.0 0.00048221
18810.0 0.00047957
18830.0 0.00047706
18850.0 0.00047454
18870.0 0.00047202
18890.0 0.00046964
18910.0 0.00046731
18930.0 0.00046492
18950.0 0.00046263
18970.0 0.00046043
18990.0 0.00045822
19010.0 0.00045597
19030.0 0.0004539
19050.0 0.00045186
19070.0 0.00044978
19090.0 0.00044779
19110.0 0.0004459
19130.0 0.00044395
19150.0 0.00044202
19170.0 0.00044022
19190.0 0.00043844
19210.0 0.00043661
19230.0 0.00043486
19250.0 0.00043324
19270.0 0.00043156
19290.0 0.0004299
19310.0 0.00042836
19330.0 0.00042683
19350.0 0.00042522
19370.0 0.00042374
19390.0 0.00042232
19410.0 0.00042087
19430.0 0.00041943
19450.0 0.00041812
19470.0 0.00041681
19490.0 0.00041546
19510.0 0.00041419
19530.0 0.000413
19550.0 0.00041174
19570.0 0.00041049
19590.0 0.00040938
19610.0 0.00040826
19630.0 0.00040711
19650.0 0.00040605
19670.0 0.00040506
19690.0 0.00040398
19710.0 0.00040295
19730.0 0.00040201
19750.0 0.00040107
19770.0 0.00040005
19790.0 0.00039917
19810.0 0.00039834
19830.0 0.00039745
19850.0 0.0003966
19870.0 0.00039587
19890.0 0.00039511
19910.0 0.00039434
19930.0 0.00039374
19950.0 0.00039328
19970.0 0.00039289
19990.0 0.00039272
20010.0 0.00039287
20030.0 0.00039319
20050.0 0.00039375
20070.0 0.00039459
20090.0 0.00039564
20110.0 0.00039683
20130.0 0.00039821
20150.0 0.00039973
20170.0 0.00040135
20190.0 0.00040307
20210.0 0.00040488
20230.0 0.00040676
20250.0 0.00040869
20270.0 0.00041067
20290.0 0.00041271
20310.0 0.00041477
20330.0 0.00041684
20350.0 0.00041896
20370.0 0.00042108
20390.0 0.0004232
20410.0 0.00042533
20430.0 0.00042748
20450.0 0.00042963
20470.0 0.00043179
20490.0 0.00043399
20510.0 0.00043622
20530.0 0.00043847
20550.0 0.00044078
20570.0 0.00044318
20590.0 0.00044561
20610.0 0.00044812
20630.0 0.00045072
20650.0 0.00045339
20670.0 0.00045611
20690.0 0.00045892
20710.0 0.0004618
20730.0 0.00046472
20750.0 0.00046767
20770.0 0.00047067
20790.0 0.00047367
20810.0 0.00047665
20830.0 0.00047963
20850.0 0.00048259
20870.0 0.00048548
20890.0 0.00048832
20910.0 0.00049115
20930.0 0.00049391
20950.0 0.00049659
20970.0 0.00049926
20990.0 0.00050191
21010.0 0.00050446
21030.0 0.000507
21050.0 0.00050958
21070.0 0.00051212
21090.0 0.0005146
21110.0 0.00051719
21130.0 0.00051981
21150.0 0.00052238
21170.0 0.000525
21190.0 0.00052771
21210.0 0.00053036
21230.0 0.00053298
21250.0 0.00053569
21270.0 0.0005384
21290.0 0.00054103
21310.0 0.00054365
21330.0 0.00054635
21350.0 0.00054892
21370.0 0.00055141
21390.0 0.00055394
21410.0 0.00055643
21430.0 0.00055869
21450.0 0.00056099
21470.0 0.00056332
21490.0 0.0005655
21510.0 0.00056758
21530.0 0.00056975
21550.0 0.00057186
21570.0 0.00057378
21590.0 0.00057575
21610.0 0.00057777
21630.0 0.00057965
21650.0 0.00058138
21670.0 0.00058335
21690.0 0.00058524
21710.0 0.00058699
21730.0 0.0005888
21750.0 0.00059073
21770.0 0.00059239
21790.0 0.00059405
21810.0 0.00059586
21830.0 0.00059761
21850.0 0.00059918
21870.0 0.00060087
21890.0 0.00060271
21910.0 0.00060435
21930.0 0.00060601
21950.0 0.00060786
21970.0 0.00060968
21990.0 0.00061132
22010.0 0.00061326
22030.0 0.00061535
22050.0 0.00061737
22070.0 0.00061951
22090.0 0.00062198
22110.0 0.00062448
22130.0 0.00062702
22150.0 0.00062985
22170.0 0.00063289
22190.0 0.00063591
22210.0 0.00063912
22230.0 0.00064269
22250.0 0.00064632
22270.0 0.00065002
22290.0 0.00065397
22310.0 0.0006581
22330.0 0.00066216
22350.0 0.00066639
22370.0 0.00067081
22390.0 0.00067525
22410.0 0.00067965
22430.0 0.0006843
22450.0 0.00068904
22470.0 0.00069371
22490.0 0.0006985
22510.0 0.00070348
22530.0 0.00070839
22550.0 0.00071331
22570.0 0.00071848
22590.0 0.00072373
22610.0 0.00072897
22630.0 0.00073435
22650.0 0.00073999
22670.0 0.00074561
22690.0 0.00075131
22710.0 0.00075726
22730.0 0.00076334
22750.0 0.00076937
22770.0 0.00077568
22790.0 0.00078223
22810.0 0.00078886
22830.0 0.00079564
22850.0 0.00080275
22870.0 0.00081004
22890.0 0.00081747
22910.0 0.00082523
22930.0 0.00083332
22950.0 0.00084163
22970.0 0.00085024
22990.0 0.00085931
23010.0 0.00086871
23030.0 0.00087846
23050.0 0.00088865
23070.0 0.00089926
23090.0 0.00091029
23110.0 0.00092179
23130.0 0.00093376
23150.0 0.0009462
23170.0 0.00095916
23190.0 0.00097259
23210.0 0.00098646
23230.0 0.0010009
23250.0 0.0010158
23270.0 0.001031
23290.0 0.0010467
23310.0 0.0010629
23330.0 0.0010794
23350.0 0.0010961
23370.0 0.0011131
23390.0 0.0011304
23410.0 0.0011477
23430.0 0.0011653
23450.0 0.001183
23470.0 0.0012007
23490.0 0.0012184
23510.0 0.0012363
23530.0 0.0012543
23550.0 0.0012723
23570.0 0.0012905
23590.0 0.0013089
23610.0 0.0013275
23630.0 0.0013464
23650.0 0.0013657
23670.0 0.0013853
23690.0 0.0014053
23710.0 0.0014257
23730.0 0.0014468
23750.0 0.0014682
23770.0 0.0014902
23790.0 0.0015128
23810.0 0.0015361
23830.0 0.0015599
23850.0 0.0015846
23870.0 0.0016102
23890.0 0.0016365
23910.0 0.0016638
23930.0 0.001692
23950.0 0.001721
23970.0 0.0017507
23990.0 0.0017814
24010.0 0.0018129
24030.0 0.0018447
