#lamb flux
1010.0 5.2244e-07
1030.0 5.81e-07
1050.0 6.3761e-07
1070.0 7.015e-07
1090.0 7.7736e-07
1110.0 8.5486e-07
1130.0 9.3283e-07
1150.0 1.0147e-06
1170.0 1.0999e-06
1190.0 1.1819e-06
1210.0 1.2669e-06
1230.0 1.3568e-06
1250.0 1.4472e-06
1270.0 1.5384e-06
1290.0 1.6378e-06
1310.0 1.741e-06
1330.0 1.8444e-06
1350.0 1.9523e-06
1370.0 2.0663e-06
1390.0 2.1808e-06
1410.0 2.2947e-06
1430.0 2.4141e-06
1450.0 2.5343e-06
1470.0 2.6514e-06
1490.0 2.7688e-06
1510.0 2.8903e-06
1530.0 3.0047e-06
1550.0 3.1151e-06
1570.0 3.2258e-06
1590.0 3.333e-06
1610.0 3.4314e-06
1630.0 3.5271e-06
1650.0 3.6204e-06
1670.0 3.7053e-06
1690.0 3.7835e-06
1710.0 3.8598e-06
1730.0 3.9313e-06
1750.0 3.9917e-06
1770.0 4.0499e-06
1790.0 4.1055e-06
1810.0 4.1541e-06
1830.0 4.1982e-06
1850.0 4.2452e-06
1870.0 4.2883e-06
1890.0 4.328e-06
1910.0 4.3697e-06
1930.0 4.4148e-06
1950.0 4.4579e-06
1970.0 4.5027e-06
1990.0 4.5538e-06
2010.0 4.6068e-06
2030.0 4.6603e-06
2050.0 4.7194e-06
2070.0 4.7834e-06
2090.0 4.8447e-06
2110.0 4.9072e-06
2130.0 4.9725e-06
2150.0 5.0357e-06
2170.0 5.0937e-06
2190.0 5.1519e-06
2210.0 5.2067e-06
2230.0 5.2536e-06
2250.0 5.2946e-06
2270.0 5.3326e-06
2290.0 5.3612e-06
2310.0 5.3794e-06
2330.0 5.3921e-06
2350.0 5.3975e-06
2370.0 5.3917e-06
2390.0 5.3784e-06
2410.0 5.3597e-06
2430.0 5.3298e-06
2450.0 5.2891e-06
2470.0 5.2401e-06
2490.0 5.1824e-06
2510.0 5.1161e-06
2530.0 5.0537e-06
2550.0 5.0139e-06
2570.0 5.0189e-06
2590.0 5.0941e-06
2610.0 5.2962e-06
2630.0 5.6426e-06
2650.0 6.1089e-06
2670.0 6.6983e-06
2690.0 7.3794e-06
2710.0 8.0293e-06
2730.0 8.5751e-06
2750.0 8.9931e-06
2770.0 9.1829e-06
2790.0 9.1158e-06
2810.0 8.8039e-06
2830.0 8.2353e-06
2850.0 7.484e-06
2870.0 6.5932e-06
2890.0 5.5691e-06
2910.0 4.468e-06
2930.0 3.3549e-06
2950.0 2.1759e-06
2970.0 9.4891e-07
2990.0 3.6521e-07
3010.0 6.8231e-07
3030.0 6.8231e-07
3050.0 6.8231e-07
3070.0 6.8231e-07
3090.0 6.8231e-07
3110.0 6.8231e-07
3130.0 6.8231e-07
3150.0 6.8231e-07
3170.0 6.8231e-07
3190.0 6.8231e-07
3210.0 4.4398e-06
3230.0 3.8638e-05
3250.0 6.1908e-05
3270.0 5.5809e-05
3290.0 4.6616e-05
3310.0 3.5184e-05
3330.0 3.3385e-05
3350.0 3.6413e-05
3370.0 4.1114e-05
3390.0 4.6169e-05
3410.0 5.1582e-05
3430.0 5.8822e-05
3450.0 6.5716e-05
3470.0 7.281e-05
3490.0 7.4331e-05
3510.0 6.3862e-05
3530.0 5.8638e-05
3550.0 6.9059e-05
3570.0 8.0054e-05
3590.0 8.8128e-05
3610.0 8.8364e-05
3630.0 0.00010275
3650.0 0.00010835
3670.0 0.00011306
3690.0 0.00011968
3710.0 0.00012046
3730.0 0.00012456
3750.0 0.0001239
3770.0 0.00012335
3790.0 0.00011877
3810.0 0.00011158
3830.0 0.00010562
3850.0 6.619e-05
3870.0 6.991e-05
3890.0 8.0054e-05
3910.0 0.00010531
3930.0 0.00013635
3950.0 0.00014772
3970.0 0.00015849
3990.0 0.00018382
4010.0 0.00017317
4030.0 0.00015321
4050.0 0.0001097
4070.0 9.6461e-05
4090.0 0.00012919
4110.0 0.00013622
4130.0 0.00014829
4150.0 0.00014476
4170.0 0.00013697
4190.0 0.00012544
4210.0 0.00015432
4230.0 0.00016518
4250.0 0.00017911
4270.0 0.00017358
4290.0 0.00016813
4310.0 0.00017626
4330.0 0.00020449
4350.0 0.00022131
4370.0 0.00022359
4390.0 0.00020682
4410.0 0.00018832
4430.0 0.00014726
4450.0 0.00011824
4470.0 0.00012323
4490.0 0.00014191
4510.0 0.00014948
4530.0 0.00014963
4550.0 0.00015032
4570.0 0.000211
4590.0 0.00031458
4610.0 0.00037153
4630.0 0.00038173
4650.0 0.00041917
4670.0 0.00049065
4690.0 0.00052498
4710.0 0.00044385
4730.0 0.0003396
4750.0 0.00026349
4770.0 0.00022299
4790.0 0.00020084
4810.0 0.00019006
4830.0 0.00021045
4850.0 0.00025268
4870.0 0.00027997
4890.0 0.00029042
4910.0 0.00027967
4930.0 0.00030667
4950.0 0.0003693
4970.0 0.00042098
4990.0 0.0004317
5010.0 0.00039507
5030.0 0.00032685
5050.0 0.0002548
5070.0 0.00020672
5090.0 0.00018875
5110.0 0.0001872
5130.0 0.00019039
5150.0 0.00018832
5170.0 0.00017568
5190.0 0.00016504
5210.0 0.00016477
5230.0 0.00018833
5250.0 0.00022894
5270.0 0.00027477
5290.0 0.00031001
5310.0 0.00033453
5330.0 0.00037326
5350.0 0.00041376
5370.0 0.00042307
5390.0 0.0003847
5410.0 0.00034511
5430.0 0.0003431
5450.0 0.00040136
5470.0 0.00049072
5490.0 0.00056517
5510.0 0.0005987
5530.0 0.00059319
5550.0 0.00057097
5570.0 0.0005528
5590.0 0.00053372
5610.0 0.00052454
5630.0 0.00052634
5650.0 0.00053121
5670.0 0.00051775
5690.0 0.00046792
5710.0 0.0004019
5730.0 0.00036465
5750.0 0.00035484
5770.0 0.00036681
5790.0 0.00038074
5810.0 0.00039405
5830.0 0.00040069
5850.0 0.00038695
5870.0 0.00037079
5890.0 0.00036817
5910.0 0.00038419
5930.0 0.00039805
5950.0 0.000377
5970.0 0.00033358
5990.0 0.00027603
6010.0 0.00022603
6030.0 0.00021141
6050.0 0.00023003
6070.0 0.00024316
6090.0 0.00022885
6110.0 0.00020313
6130.0 0.00020934
6150.0 0.00024265
6170.0 0.00027566
6190.0 0.00029857
6210.0 0.00030377
6230.0 0.00029975
6250.0 0.00027303
6270.0 0.00022729
6290.0 0.00018765
6310.0 0.00016808
6330.0 0.00016561
6350.0 0.00016846
6370.0 0.00017291
6390.0 0.00019765
6410.0 0.00024625
6430.0 0.00029777
6450.0 0.00032757
6470.0 0.0003366
6490.0 0.00033696
6510.0 0.00034257
6530.0 0.00035021
6550.0 0.00035046
6570.0 0.00036305
6590.0 0.00037328
6610.0 0.000378
6630.0 0.00036769
6650.0 0.00034101
6670.0 0.00031145
6690.0 0.00028696
6710.0 0.00027327
6730.0 0.00026684
6750.0 0.00026797
6770.0 0.00027526
6790.0 0.00028526
6810.0 0.0002916
6830.0 0.00028647
6850.0 0.00027162
6870.0 0.00025455
6890.0 0.00024871
6910.0 0.0002441
6930.0 0.0002525
6950.0 0.00026501
6970.0 0.0002717
6990.0 0.00027553
7010.0 0.0002669
7030.0 0.00024518
7050.0 0.00021754
7070.0 0.00019678
7090.0 0.00018783
7110.0 0.00018714
7130.0 0.00017971
7150.0 0.00015939
7170.0 0.00015237
7190.0 0.00016873
7210.0 0.00019655
7230.0 0.00022478
7250.0 0.00023587
7270.0 0.00023164
7290.0 0.00021453
7310.0 0.00019939
7330.0 0.00019332
7350.0 0.00019462
7370.0 0.00019798
7390.0 0.00020786
7410.0 0.00023086
7430.0 0.00026472
7450.0 0.00029571
7470.0 0.00030892
7490.0 0.00029855
7510.0 0.00027622
7530.0 0.0002459
7550.0 0.00022547
7570.0 0.00020338
7590.0 0.00019212
7610.0 0.00019494
7630.0 0.00020766
7650.0 0.00022717
7670.0 0.00024815
7690.0 0.0002639
7710.0 0.00027857
7730.0 0.00029273
7750.0 0.0003042
7770.0 0.00030176
7790.0 0.00030321
7810.0 0.00030575
7830.0 0.0003004
7850.0 0.0002893
7870.0 0.0002808
7890.0 0.000283
7910.0 0.0002777
7930.0 0.00027203
7950.0 0.00025797
7970.0 0.00024903
7990.0 0.00023886
8010.0 0.00023759
8030.0 0.00023864
8050.0 0.00023905
8070.0 0.0002355
8090.0 0.00023313
8110.0 0.00022536
8130.0 0.00022473
8150.0 0.00022177
8170.0 0.00021595
8190.0 0.00021046
8210.0 0.0002079
8230.0 0.00020261
8250.0 0.00019918
8270.0 0.00018204
8290.0 0.00015018
8310.0 0.00011464
8330.0 9.0325e-05
8350.0 8.5047e-05
8370.0 0.00010025
8390.0 0.0001202
8410.0 0.00012893
8430.0 0.00013174
8450.0 0.00013879
8470.0 0.0001492
8490.0 0.00016682
8510.0 0.00018944
8530.0 0.00021542
8550.0 0.00023834
8570.0 0.00025643
8590.0 0.00027001
8610.0 0.00027708
8630.0 0.0002761
8650.0 0.00027228
8670.0 0.00027201
8690.0 0.00028607
8710.0 0.00030522
8730.0 0.00031686
8750.0 0.00031532
8770.0 0.00031944
8790.0 0.00031836
8810.0 0.00029967
8830.0 0.00028053
8850.0 0.00025574
8870.0 0.00023595
8890.0 0.00022972
8910.0 0.00022897
8930.0 0.00021565
8950.0 0.00020016
8970.0 0.00019356
8990.0 0.00019223
9010.0 0.00018536
9030.0 0.00018128
9050.0 0.00017966
9070.0 0.00017891
9090.0 0.00017826
9110.0 0.00017764
9130.0 0.00017702
9150.0 0.00017641
9170.0 0.00017575
9190.0 0.00017527
9210.0 0.00017536
9230.0 0.00017447
9250.0 0.00017373
9270.0 0.00017307
9290.0 0.00017246
9310.0 0.00017187
9330.0 0.00017131
9350.0 0.00017078
9370.0 0.00017026
9390.0 0.00016973
9410.0 0.00016923
9430.0 0.0001687
9450.0 0.00016794
9470.0 0.00016727
9490.0 0.00016702
9510.0 0.00016665
9530.0 0.00016625
9550.0 0.00016582
9570.0 0.00016539
9590.0 0.00016494
9610.0 0.0001645
9630.0 0.00016405
9650.0 0.00016361
9670.0 0.00016317
9690.0 0.00016274
9710.0 0.0001623
9730.0 0.00016187
9750.0 0.00016144
9770.0 0.00016101
9790.0 0.00016058
9810.0 0.00016016
9830.0 0.00015973
9850.0 0.0001593
9870.0 0.00015888
9890.0 0.00015845
9910.0 0.00015801
9930.0 0.00015757
9950.0 0.00015603
9970.0 0.00015592
9990.0 0.00015574
10010.0 0.00015552
10030.0 0.00015521
10050.0 0.00015482
10070.0 0.00015442
10090.0 0.00015401
10110.0 0.00015352
10130.0 0.00015302
10150.0 0.00015256
10170.0 0.00015208
10190.0 0.00015154
10210.0 0.00015104
10230.0 0.00015056
10250.0 0.00015001
10270.0 0.00014946
10290.0 0.00014895
10310.0 0.00014838
10330.0 0.00014776
10350.0 0.0001472
10370.0 0.00014662
10390.0 0.00014598
10410.0 0.00014534
10430.0 0.00014475
10450.0 0.0001441
10470.0 0.0001434
10490.0 0.00014274
10510.0 0.00014207
10530.0 0.0001413
10550.0 0.00014056
10570.0 0.00013985
10590.0 0.00013908
10610.0 0.00013827
10630.0 0.0001375
10650.0 0.00013671
10670.0 0.00013583
10690.0 0.00013497
10710.0 0.00013413
10730.0 0.00013323
10750.0 0.00013226
10770.0 0.00013136
10790.0 0.00013043
10810.0 0.00012943
10830.0 0.00012844
10850.0 0.00012748
10870.0 0.00012641
10890.0 0.00012531
10910.0 0.00012425
10930.0 0.00012314
10950.0 0.00012193
10970.0 0.00012072
10990.0 0.00011953
11010.0 0.00012814
11030.0 0.00012673
11050.0 0.00012536
11070.0 0.00012396
11090.0 0.00012246
11110.0 0.00012107
11130.0 0.00011973
11150.0 0.00011835
11170.0 0.00011698
11190.0 0.0001157
11210.0 0.0001144
11230.0 0.00011307
11250.0 0.0001118
11270.0 0.00011056
11290.0 0.00010926
11310.0 0.00010797
11330.0 0.00010677
11350.0 0.00010553
11370.0 0.00010425
11390.0 0.000103
11410.0 0.00010174
11430.0 0.00010036
11450.0 9.8961e-05
11470.0 9.7544e-05
11490.0 9.6024e-05
11510.0 9.4371e-05
11530.0 9.2713e-05
11550.0 9.0994e-05
11570.0 8.9131e-05
11590.0 8.7221e-05
11610.0 8.5323e-05
11630.0 8.3316e-05
11650.0 8.1234e-05
11670.0 7.9239e-05
11690.0 7.7252e-05
11710.0 7.522e-05
11730.0 7.3245e-05
11750.0 7.1386e-05
11770.0 6.9507e-05
11790.0 6.7662e-05
11810.0 6.5931e-05
11830.0 6.4258e-05
11850.0 6.2563e-05
11870.0 6.0972e-05
11890.0 5.9481e-05
11910.0 5.7998e-05
11930.0 5.6549e-05
11950.0 5.52e-05
11970.0 5.3887e-05
11990.0 5.2574e-05
12010.0 5.1345e-05
12030.0 5.0192e-05
12050.0 4.9064e-05
12070.0 4.7982e-05
12090.0 4.7022e-05
12110.0 4.6119e-05
12130.0 4.5276e-05
12150.0 4.4533e-05
12170.0 4.3893e-05
12190.0 4.3319e-05
12210.0 4.2853e-05
12230.0 4.2497e-05
12250.0 4.2238e-05
12270.0 4.2081e-05
12290.0 4.2025e-05
12310.0 4.2056e-05
12330.0 4.2186e-05
12350.0 4.2404e-05
12370.0 4.2683e-05
12390.0 4.3037e-05
12410.0 4.3487e-05
12430.0 4.3956e-05
12450.0 4.4459e-05
12470.0 4.5019e-05
12490.0 4.5601e-05
12510.0 4.6159e-05
12530.0 4.6738e-05
12550.0 4.7321e-05
12570.0 4.7849e-05
12590.0 4.8326e-05
12610.0 4.8772e-05
12630.0 4.914e-05
12650.0 4.9391e-05
12670.0 4.9562e-05
12690.0 4.9632e-05
12710.0 4.9581e-05
12730.0 4.9419e-05
12750.0 4.9146e-05
12770.0 4.8759e-05
12790.0 4.8279e-05
12810.0 4.7704e-05
12830.0 4.7039e-05
12850.0 4.6332e-05
12870.0 4.5583e-05
12890.0 4.4782e-05
12910.0 4.3971e-05
12930.0 4.3176e-05
12950.0 4.2364e-05
12970.0 4.1557e-05
12990.0 4.0799e-05
13010.0 4.0066e-05
13030.0 3.9342e-05
13050.0 3.8655e-05
13070.0 3.801e-05
13090.0 3.7369e-05
13110.0 3.6746e-05
13130.0 3.6155e-05
13150.0 3.5578e-05
13170.0 3.4993e-05
13190.0 3.4434e-05
13210.0 3.3898e-05
13230.0 3.3361e-05
13250.0 3.2835e-05
13270.0 3.2341e-05
13290.0 3.1861e-05
13310.0 3.1394e-05
13330.0 3.0965e-05
13350.0 3.0575e-05
13370.0 3.0215e-05
13390.0 2.9892e-05
13410.0 2.962e-05
13430.0 2.9384e-05
13450.0 2.918e-05
13470.0 2.9009e-05
13490.0 2.8862e-05
13510.0 2.8727e-05
13530.0 2.8598e-05
13550.0 2.8466e-05
13570.0 2.8321e-05
13590.0 2.8154e-05
13610.0 2.7964e-05
13630.0 2.775e-05
13650.0 2.7502e-05
13670.0 2.7226e-05
13690.0 2.6933e-05
13710.0 2.6619e-05
13730.0 2.6279e-05
13750.0 2.5948e-05
13770.0 2.5621e-05
13790.0 2.5294e-05
13810.0 2.4982e-05
13830.0 2.4698e-05
13850.0 2.4428e-05
13870.0 2.4177e-05
13890.0 2.3956e-05
13910.0 2.3758e-05
13930.0 2.3575e-05
13950.0 2.3411e-05
13970.0 2.3267e-05
13990.0 2.3129e-05
14010.0 2.2995e-05
14030.0 2.2867e-05
14050.0 2.2737e-05
14070.0 2.2597e-05
14090.0 2.2451e-05
14110.0 2.2298e-05
14130.0 2.213e-05
14150.0 2.1945e-05
14170.0 2.1755e-05
14190.0 2.1556e-05
14210.0 2.1341e-05
14230.0 2.1123e-05
14250.0 2.091e-05
14270.0 2.069e-05
14290.0 2.0474e-05
14310.0 2.0279e-05
14330.0 2.0097e-05
14350.0 1.9929e-05
14370.0 1.9785e-05
14390.0 1.9667e-05
14410.0 1.9566e-05
14430.0 1.9489e-05
14450.0 1.9436e-05
14470.0 1.94e-05
14490.0 1.9381e-05
14510.0 1.9377e-05
14530.0 1.9386e-05
14550.0 1.9407e-05
14570.0 1.9438e-05
14590.0 1.948e-05
14610.0 1.9535e-05
14630.0 1.9606e-05
14650.0 1.9694e-05
14670.0 1.98e-05
14690.0 1.9932e-05
14710.0 2.0093e-05
14730.0 2.0273e-05
14750.0 2.0484e-05
14770.0 2.0732e-05
14790.0 2.1007e-05
14810.0 2.1308e-05
14830.0 2.1662e-05
14850.0 2.205e-05
14870.0 2.246e-05
14890.0 2.2908e-05
14910.0 2.3393e-05
14930.0 2.3874e-05
14950.0 2.4341e-05
14970.0 2.4802e-05
14990.0 2.5212e-05
15010.0 2.5553e-05
15030.0 2.5836e-05
15050.0 2.6061e-05
15070.0 2.6222e-05
15090.0 2.6344e-05
15110.0 2.644e-05
15130.0 2.6518e-05
15150.0 2.6587e-05
15170.0 2.6652e-05
15190.0 2.6716e-05
15210.0 2.6781e-05
15230.0 2.6847e-05
15250.0 2.6913e-05
15270.0 2.6981e-05
15290.0 2.7051e-05
15310.0 2.7121e-05
15330.0 2.7193e-05
15350.0 2.7266e-05
15370.0 2.734e-05
15390.0 2.7416e-05
15410.0 2.7492e-05
15430.0 2.757e-05
15450.0 2.7649e-05
15470.0 2.7729e-05
15490.0 2.781e-05
15510.0 2.7892e-05
15530.0 2.7975e-05
15550.0 2.8059e-05
15570.0 2.8144e-05
15590.0 2.823e-05
15610.0 2.8316e-05
15630.0 2.8404e-05
15650.0 2.8492e-05
15670.0 2.8581e-05
15690.0 2.8672e-05
15710.0 2.8762e-05
15730.0 2.8854e-05
15750.0 2.8946e-05
15770.0 2.9039e-05
15790.0 2.9132e-05
15810.0 2.9226e-05
15830.0 2.9321e-05
15850.0 2.9416e-05
15870.0 2.9511e-05
15890.0 2.9607e-05
15910.0 2.9704e-05
15930.0 2.9801e-05
15950.0 2.9898e-05
15970.0 2.9995e-05
15990.0 3.0093e-05
16010.0 3.0191e-05
16030.0 3.0289e-05
16050.0 3.0388e-05
16070.0 3.0486e-05
16090.0 3.0585e-05
16110.0 3.0684e-05
16130.0 3.0783e-05
16150.0 3.0881e-05
16170.0 3.0979e-05
16190.0 3.1078e-05
16210.0 3.1177e-05
16230.0 3.1274e-05
16250.0 3.1373e-05
16270.0 3.147e-05
16290.0 3.1568e-05
16310.0 3.1665e-05
16330.0 3.1762e-05
16350.0 3.1858e-05
16370.0 3.1953e-05
16390.0 3.2049e-05
16410.0 3.2143e-05
16430.0 3.2237e-05
16450.0 3.2331e-05
16470.0 3.2424e-05
16490.0 3.2516e-05
16510.0 3.2607e-05
16530.0 3.2697e-05
16550.0 3.2787e-05
16570.0 3.2876e-05
16590.0 3.2963e-05
16610.0 3.305e-05
16630.0 3.3136e-05
16650.0 3.3221e-05
16670.0 3.3304e-05
16690.0 3.3387e-05
16710.0 3.3468e-05
16730.0 3.3548e-05
16750.0 3.3627e-05
16770.0 3.3704e-05
16790.0 3.378e-05
16810.0 3.3855e-05
16830.0 3.3929e-05
16850.0 3.4e-05
16870.0 3.407e-05
16890.0 3.4139e-05
16910.0 3.4206e-05
16930.0 3.4272e-05
16950.0 3.4336e-05
16970.0 3.4398e-05
16990.0 3.4458e-05
17010.0 3.4517e-05
17030.0 3.4574e-05
17050.0 3.4629e-05
17070.0 3.4682e-05
17090.0 3.4733e-05
17110.0 3.4782e-05
17130.0 3.4829e-05
17150.0 3.4874e-05
17170.0 3.4918e-05
17190.0 3.4959e-05
17210.0 3.4998e-05
17230.0 3.5035e-05
17250.0 3.507e-05
17270.0 3.5103e-05
17290.0 3.5133e-05
17310.0 3.5162e-05
17330.0 3.5187e-05
17350.0 3.5211e-05
17370.0 3.5233e-05
17390.0 3.5252e-05
17410.0 3.5269e-05
17430.0 3.5284e-05
17450.0 3.5296e-05
17470.0 3.5306e-05
17490.0 3.5313e-05
17510.0 3.5318e-05
17530.0 3.5321e-05
17550.0 3.5321e-05
17570.0 3.5319e-05
17590.0 3.5315e-05
17610.0 3.5308e-05
17630.0 3.5298e-05
17650.0 3.5287e-05
17670.0 3.5272e-05
17690.0 3.5255e-05
17710.0 3.5236e-05
17730.0 3.5215e-05
17750.0 3.519e-05
17770.0 3.5164e-05
17790.0 3.5135e-05
17810.0 3.5104e-05
17830.0 3.507e-05
17850.0 3.5034e-05
17870.0 3.4995e-05
17890.0 3.4954e-05
17910.0 3.491e-05
17930.0 3.4865e-05
17950.0 3.4816e-05
17970.0 3.4766e-05
17990.0 3.4713e-05
18010.0 3.4658e-05
18030.0 3.46e-05
18050.0 3.454e-05
18070.0 3.4478e-05
18090.0 3.4413e-05
18110.0 3.4346e-05
18130.0 3.4278e-05
18150.0 3.4207e-05
18170.0 3.4133e-05
18190.0 3.4058e-05
18210.0 3.3981e-05
18230.0 3.3901e-05
18250.0 3.3819e-05
18270.0 3.3735e-05
18290.0 3.3649e-05
18310.0 3.3562e-05
18330.0 3.3472e-05
18350.0 3.338e-05
18370.0 3.3287e-05
18390.0 3.3191e-05
18410.0 3.3094e-05
18430.0 3.2995e-05
18450.0 3.2894e-05
18470.0 3.2791e-05
18490.0 3.2687e-05
18510.0 3.2581e-05
18530.0 3.2473e-05
18550.0 3.2364e-05
18570.0 3.2253e-05
18590.0 3.2141e-05
18610.0 3.2027e-05
18630.0 3.1912e-05
18650.0 3.1795e-05
18670.0 3.1677e-05
18690.0 3.1557e-05
18710.0 3.1437e-05
18730.0 3.1314e-05
18750.0 3.1191e-05
18770.0 3.1067e-05
18790.0 3.0941e-05
18810.0 3.0814e-05
18830.0 3.0686e-05
18850.0 3.0557e-05
18870.0 3.0427e-05
18890.0 3.0296e-05
18910.0 3.0165e-05
18930.0 3.0032e-05
18950.0 2.9898e-05
18970.0 2.9764e-05
18990.0 2.9628e-05
19010.0 2.9492e-05
19030.0 2.9355e-05
19050.0 2.9218e-05
19070.0 2.908e-05
19090.0 2.8941e-05
19110.0 2.8802e-05
19130.0 2.8662e-05
19150.0 2.8522e-05
19170.0 2.8381e-05
19190.0 2.824e-05
19210.0 2.8098e-05
19230.0 2.7956e-05
19250.0 2.7814e-05
19270.0 2.7672e-05
19290.0 2.7529e-05
19310.0 2.7386e-05
19330.0 2.7243e-05
19350.0 2.7099e-05
19370.0 2.6956e-05
19390.0 2.6812e-05
19410.0 2.6668e-05
19430.0 2.6524e-05
19450.0 2.6381e-05
19470.0 2.6237e-05
19490.0 2.6093e-05
19510.0 2.595e-05
19530.0 2.5806e-05
19550.0 2.5663e-05
19570.0 2.5519e-05
19590.0 2.5376e-05
19610.0 2.5234e-05
19630.0 2.5091e-05
19650.0 2.4948e-05
19670.0 2.4807e-05
19690.0 2.4665e-05
19710.0 2.4523e-05
19730.0 2.4382e-05
19750.0 2.4241e-05
19770.0 2.4101e-05
19790.0 2.3961e-05
19810.0 2.3821e-05
19830.0 2.3681e-05
19850.0 2.3541e-05
19870.0 2.3399e-05
19890.0 2.3253e-05
19910.0 2.3097e-05
19930.0 2.2929e-05
19950.0 2.2741e-05
19970.0 2.2522e-05
19990.0 2.2265e-05
20010.0 2.1975e-05
20030.0 2.164e-05
20050.0 2.1262e-05
20070.0 2.0861e-05
20090.0 2.0442e-05
20110.0 1.999e-05
20130.0 1.9543e-05
20150.0 1.9108e-05
20170.0 1.8672e-05
20190.0 1.8241e-05
20210.0 1.7835e-05
20230.0 1.7443e-05
20250.0 1.7055e-05
20270.0 1.669e-05
20290.0 1.6348e-05
20310.0 1.6015e-05
20330.0 1.5693e-05
20350.0 1.5402e-05
20370.0 1.5124e-05
20390.0 1.4857e-05
20410.0 1.4609e-05
20430.0 1.4381e-05
20450.0 1.4159e-05
20470.0 1.3953e-05
20490.0 1.3764e-05
20510.0 1.3588e-05
20530.0 1.3421e-05
20550.0 1.3269e-05
20570.0 1.313e-05
20590.0 1.3e-05
20610.0 1.288e-05
20630.0 1.2771e-05
20650.0 1.2671e-05
20670.0 1.2577e-05
20690.0 1.2492e-05
20710.0 1.2413e-05
20730.0 1.2339e-05
20750.0 1.2269e-05
20770.0 1.2203e-05
20790.0 1.2139e-05
20810.0 1.2076e-05
20830.0 1.2015e-05
20850.0 1.1952e-05
20870.0 1.189e-05
20890.0 1.1825e-05
20910.0 1.1758e-05
20930.0 1.1688e-05
20950.0 1.1615e-05
20970.0 1.1539e-05
20990.0 1.146e-05
21010.0 1.1375e-05
21030.0 1.1287e-05
21050.0 1.1195e-05
21070.0 1.11e-05
21090.0 1.0999e-05
21110.0 1.0897e-05
21130.0 1.0792e-05
21150.0 1.0683e-05
21170.0 1.0572e-05
21190.0 1.0461e-05
21210.0 1.0347e-05
21230.0 1.0229e-05
21250.0 1.0114e-05
21270.0 9.9984e-06
21290.0 9.8807e-06
21310.0 9.7641e-06
21330.0 9.6515e-06
21350.0 9.538e-06
21370.0 9.4254e-06
21390.0 9.3174e-06
21410.0 9.2125e-06
21430.0 9.1075e-06
21450.0 9.0086e-06
21470.0 8.9155e-06
21490.0 8.8257e-06
21510.0 8.7405e-06
21530.0 8.6624e-06
21550.0 8.5897e-06
21570.0 8.5217e-06
21590.0 8.4606e-06
21610.0 8.4057e-06
21630.0 8.3565e-06
21650.0 8.3133e-06
21670.0 8.2758e-06
21690.0 8.2435e-06
21710.0 8.2165e-06
21730.0 8.1938e-06
21750.0 8.1743e-06
21770.0 8.1595e-06
21790.0 8.1477e-06
21810.0 8.1371e-06
21830.0 8.1284e-06
21850.0 8.1219e-06
21870.0 8.1149e-06
21890.0 8.1069e-06
21910.0 8.0994e-06
21930.0 8.0908e-06
21950.0 8.0798e-06
21970.0 8.0674e-06
21990.0 8.0539e-06
22010.0 8.0369e-06
22030.0 8.0175e-06
22050.0 7.9961e-06
22070.0 7.9723e-06
22090.0 7.9459e-06
22110.0 7.9176e-06
22130.0 7.8873e-06
22150.0 7.8552e-06
22170.0 7.8214e-06
22190.0 7.7861e-06
22210.0 7.7492e-06
22230.0 7.7114e-06
22250.0 7.6721e-06
22270.0 7.6313e-06
22290.0 7.5893e-06
22310.0 7.5459e-06
22330.0 7.4998e-06
22350.0 7.4516e-06
22370.0 7.4016e-06
22390.0 7.3481e-06
22410.0 7.2902e-06
22430.0 7.2301e-06
22450.0 7.1663e-06
22470.0 7.0968e-06
22490.0 7.0233e-06
22510.0 6.9471e-06
22530.0 6.8643e-06
22550.0 6.7757e-06
22570.0 6.6859e-06
22590.0 6.5927e-06
22610.0 6.4939e-06
