#lamb flux
1010.0 5.5667e-07
1030.0 5.9265e-07
1050.0 6.3421e-07
1070.0 6.8106e-07
1090.0 7.3431e-07
1110.0 7.8905e-07
1130.0 8.4429e-07
1150.0 9.0231e-07
1170.0 9.6234e-07
1190.0 1.0195e-06
1210.0 1.0777e-06
1230.0 1.138e-06
1250.0 1.1973e-06
1270.0 1.2553e-06
1290.0 1.3168e-06
1310.0 1.3785e-06
1330.0 1.4381e-06
1350.0 1.4987e-06
1370.0 1.5615e-06
1390.0 1.6232e-06
1410.0 1.6836e-06
1430.0 1.7469e-06
1450.0 1.8107e-06
1470.0 1.8728e-06
1490.0 1.9359e-06
1510.0 2.0026e-06
1530.0 2.0665e-06
1550.0 2.1299e-06
1570.0 2.1955e-06
1590.0 2.2614e-06
1610.0 2.3248e-06
1630.0 2.39e-06
1650.0 2.4569e-06
1670.0 2.5217e-06
1690.0 2.5856e-06
1710.0 2.6515e-06
1730.0 2.7174e-06
1750.0 2.7792e-06
1770.0 2.8421e-06
1790.0 2.9057e-06
1810.0 2.9664e-06
1830.0 3.0252e-06
1850.0 3.0867e-06
1870.0 3.1455e-06
1890.0 3.201e-06
1910.0 3.2565e-06
1930.0 3.3121e-06
1950.0 3.3635e-06
1970.0 3.4128e-06
1990.0 3.4629e-06
2010.0 3.5104e-06
2030.0 3.5544e-06
2050.0 3.5987e-06
2070.0 3.643e-06
2090.0 3.6826e-06
2110.0 3.7209e-06
2130.0 3.7596e-06
2150.0 3.7962e-06
2170.0 3.8294e-06
2190.0 3.864e-06
2210.0 3.8982e-06
2230.0 3.9297e-06
2250.0 3.9608e-06
2270.0 3.9941e-06
2290.0 4.0257e-06
2310.0 4.0554e-06
2330.0 4.0872e-06
2350.0 4.1199e-06
2370.0 4.1513e-06
2390.0 4.1842e-06
2410.0 4.2206e-06
2430.0 4.2567e-06
2450.0 4.2933e-06
2470.0 4.3339e-06
2490.0 4.3799e-06
2510.0 4.4324e-06
2530.0 4.5063e-06
2550.0 4.6264e-06
2570.0 4.8198e-06
2590.0 5.1195e-06
2610.0 5.6076e-06
2630.0 6.3106e-06
2650.0 7.1984e-06
2670.0 8.2853e-06
2690.0 9.5402e-06
2710.0 1.0804e-05
2730.0 1.1996e-05
2750.0 1.3138e-05
2770.0 1.4134e-05
2790.0 1.497e-05
2810.0 1.5716e-05
2830.0 1.6431e-05
2850.0 1.7082e-05
2870.0 1.773e-05
2890.0 1.8417e-05
2910.0 1.913e-05
2930.0 1.9846e-05
2950.0 2.0613e-05
2970.0 2.1426e-05
2990.0 2.2246e-05
3010.0 7.8714e-05
3030.0 8.1721e-05
3050.0 8.4711e-05
3070.0 8.7409e-05
3090.0 8.9694e-05
3110.0 9.0939e-05
3130.0 9.04e-05
3150.0 8.7277e-05
3170.0 7.9957e-05
3190.0 6.8299e-05
3210.0 5.2524e-05
3230.0 3.4822e-05
3250.0 5.3384e-05
3270.0 3.3385e-05
3290.0 7.6847e-05
3310.0 3.0294e-05
3330.0 2.9989e-05
3350.0 3.5917e-05
3370.0 4.3006e-05
3390.0 5.0758e-05
3410.0 5.8526e-05
3430.0 6.6712e-05
3450.0 7.4975e-05
3470.0 8.2598e-05
3490.0 8.7935e-05
3510.0 0.00010559
3530.0 0.00013673
3550.0 0.0001332
3570.0 0.00010983
3590.0 0.00014868
3610.0 9.6221e-05
3630.0 0.00015669
3650.0 0.00018252
3670.0 0.00023208
3690.0 0.00021548
3710.0 0.00014429
3730.0 0.00018622
3750.0 0.00019068
3770.0 0.00020465
3790.0 0.00019859
3810.0 0.00020444
3830.0 0.00032131
3850.0 0.0003944
3870.0 0.00048636
3890.0 0.00047266
3910.0 0.00042245
3930.0 0.00042789
3950.0 0.00046219
3970.0 0.00050961
3990.0 0.00032677
4010.0 0.00017688
4030.0 0.00031454
4050.0 0.00041606
4070.0 0.00044509
4090.0 0.00031133
4110.0 0.00019706
4130.0 0.0003241
4150.0 0.00033089
4170.0 0.000308
4190.0 0.00027947
4210.0 0.00039557
4230.0 0.00029143
4250.0 0.00031574
4270.0 0.00031368
4290.0 0.00029719
4310.0 0.00038097
4330.0 0.00041167
4350.0 0.000343
4370.0 0.00028955
4390.0 0.0003529
4410.0 0.00036143
4430.0 0.00026574
4450.0 0.00024112
4470.0 0.00029799
4490.0 0.00022799
4510.0 0.00031824
4530.0 0.00033075
4550.0 0.00039251
4570.0 0.00055335
4590.0 0.00054723
4610.0 0.00043389
4630.0 0.00069246
4650.0 0.00092279
4670.0 0.00088002
4690.0 0.0006223
4710.0 0.00065991
4730.0 0.00074749
4750.0 0.00061578
4770.0 0.00047075
4790.0 0.00031771
4810.0 0.00043366
4830.0 0.00051074
4850.0 0.00044894
4870.0 0.00018873
4890.0 0.00050944
4910.0 0.0006679
4930.0 0.00072591
4950.0 0.000748
4970.0 0.00052542
4990.0 0.00061145
5010.0 0.00071019
5030.0 0.00076124
5050.0 0.00071065
5070.0 0.00050253
5090.0 0.00040772
5110.0 0.00039416
5130.0 0.0003745
5150.0 0.00039009
5170.0 0.00034809
5190.0 0.000415
5210.0 0.00042125
5230.0 0.00046628
5250.0 0.00055326
5270.0 0.00045837
5290.0 0.00047634
5310.0 0.00069962
5330.0 0.00080366
5350.0 0.00067399
5370.0 0.00060553
5390.0 0.00070203
5410.0 0.00083711
5430.0 0.00089107
5450.0 0.00093658
5470.0 0.00094214
5490.0 0.00096945
5510.0 0.0011595
5530.0 0.0012034
5550.0 0.0012696
5570.0 0.0013319
5590.0 0.001308
5610.0 0.0012235
5630.0 0.0011935
5650.0 0.0012333
5670.0 0.0012039
5690.0 0.0010298
5710.0 0.0010178
5730.0 0.0010184
5750.0 0.001058
5770.0 0.00091044
5790.0 0.00086773
5810.0 0.00088816
5830.0 0.00095765
5850.0 0.00089078
5870.0 0.00089422
5890.0 0.0010418
5910.0 0.00097108
5930.0 0.00080116
5950.0 0.00072303
5970.0 0.00078721
5990.0 0.0007141
6010.0 0.00065245
6030.0 0.00063983
6050.0 0.00058601
6070.0 0.00045407
6090.0 0.00043183
6110.0 0.00055399
6130.0 0.00062169
6150.0 0.00064213
6170.0 0.0006245
6190.0 0.00059562
6210.0 0.00062104
6230.0 0.00075365
6250.0 0.00069638
6270.0 0.00062612
6290.0 0.00056915
6310.0 0.00051551
6330.0 0.00047821
6350.0 0.00042741
6370.0 0.0004332
6390.0 0.00050408
6410.0 0.0006259
6430.0 0.00073984
6450.0 0.00074268
6470.0 0.00075096
6490.0 0.00091715
6510.0 0.001053
6530.0 0.0010006
6550.0 0.00094938
6570.0 0.00096308
6590.0 0.0009492
6610.0 0.0010047
6630.0 0.00093687
6650.0 0.00081399
6670.0 0.00075089
6690.0 0.00074439
6710.0 0.00088111
6730.0 0.00078455
6750.0 0.0006453
6770.0 0.00058252
6790.0 0.00061887
6810.0 0.00071071
6830.0 0.00070739
6850.0 0.00063444
6870.0 0.00065711
6890.0 0.00065307
6910.0 0.00061375
6930.0 0.00068142
6950.0 0.00063387
6970.0 0.00059049
6990.0 0.00058864
7010.0 0.00059296
7030.0 0.00057596
7050.0 0.0005515
7070.0 0.00059151
7090.0 0.00055093
7110.0 0.00046712
7130.0 0.00040123
7150.0 0.00039401
7170.0 0.00049748
7190.0 0.00052742
7210.0 0.00050009
7230.0 0.00052594
7250.0 0.00051083
7270.0 0.00049829
7290.0 0.0005398
7310.0 0.00059172
7330.0 0.00057652
7350.0 0.00053488
7370.0 0.0004948
7390.0 0.00049628
7410.0 0.00057022
7430.0 0.00064204
7450.0 0.00068357
7470.0 0.00069336
7490.0 0.0007713
7510.0 0.00076245
7530.0 0.00069092
7550.0 0.00065459
7570.0 0.00056614
7590.0 0.00053943
7610.0 0.00052144
7630.0 0.00048072
7650.0 0.00051683
7670.0 0.00057302
7690.0 0.00062432
7710.0 0.00071292
7730.0 0.00074833
7750.0 0.00077811
7770.0 0.00080943
7790.0 0.00087867
7810.0 0.00088582
7830.0 0.00079557
7850.0 0.00079939
7870.0 0.00077029
7890.0 0.00078927
7910.0 0.00074391
7930.0 0.00073903
7950.0 0.00062103
7970.0 0.00062349
7990.0 0.00060297
8010.0 0.00065554
8030.0 0.00065318
8050.0 0.00069425
8070.0 0.00066642
8090.0 0.00066951
8110.0 0.00065945
8130.0 0.00065221
8150.0 0.00061263
8170.0 0.00060121
8190.0 0.00059981
8210.0 0.0006058
8230.0 0.00053002
8250.0 0.00048471
8270.0 0.00042847
8290.0 0.00036438
8310.0 0.00032105
8330.0 0.00025436
8350.0 0.00020598
8370.0 0.00019892
8390.0 0.00019288
8410.0 0.0002019
8430.0 0.00025975
8450.0 0.00028293
8470.0 0.00030457
8490.0 0.00035648
8510.0 0.000388
8530.0 0.00044127
8550.0 0.00052207
8570.0 0.00057355
8590.0 0.00060331
8610.0 0.00067018
8630.0 0.00076252
8650.0 0.00078234
8670.0 0.00079876
8690.0 0.00082897
8710.0 0.00081297
8730.0 0.00078739
8750.0 0.00072563
8770.0 0.00072592
8790.0 0.00071569
8810.0 0.00065823
8830.0 0.00065908
8850.0 0.00060366
8870.0 0.00057564
8890.0 0.00051575
8910.0 0.00057495
8930.0 0.0005201
8950.0 0.00052148
8970.0 0.00053254
8990.0 0.00051721
9010.0 0.00053121
9030.0 0.00050426
9050.0 0.00050182
9070.0 0.00050204
9090.0 0.00050216
9110.0 0.00050261
9130.0 0.00050258
9150.0 0.0005023
9170.0 0.00050065
9190.0 0.00049699
9210.0 0.00050484
9230.0 0.00050262
9250.0 0.00050134
9270.0 0.00050025
9290.0 0.00049929
9310.0 0.00049839
9330.0 0.00049751
9350.0 0.00049664
9370.0 0.00049574
9390.0 0.00049479
9410.0 0.00049381
9430.0 0.00049281
9450.0 0.00049174
9470.0 0.00049065
9490.0 0.00048953
9510.0 0.00048838
9530.0 0.00048719
9550.0 0.00048601
9570.0 0.0004848
9590.0 0.00048357
9610.0 0.00048232
9630.0 0.00048108
9650.0 0.00047983
9670.0 0.00047855
9690.0 0.00047729
9710.0 0.00047603
9730.0 0.00047476
9750.0 0.00047349
9770.0 0.00047228
9790.0 0.00047103
9810.0 0.00046979
9830.0 0.00046859
9850.0 0.0004674
9870.0 0.0004662
9890.0 0.00046503
9910.0 0.00046391
9930.0 0.00046278
9950.0 0.00046094
9970.0 0.0004601
9990.0 0.00045926
10010.0 0.00045836
10030.0 0.00045745
10050.0 0.00045638
10070.0 0.00045443
10090.0 0.00045389
10110.0 0.00045334
10130.0 0.00045272
10150.0 0.00045207
10170.0 0.00045137
10190.0 0.00045064
10210.0 0.00044996
10230.0 0.00044931
10250.0 0.00044865
10270.0 0.00044803
10290.0 0.00044747
10310.0 0.00044692
10330.0 0.00044637
10350.0 0.0004459
10370.0 0.00044546
10390.0 0.00044502
10410.0 0.00044463
10430.0 0.0004443
10450.0 0.00044397
10470.0 0.00044366
10490.0 0.00044341
10510.0 0.00044319
10530.0 0.00044296
10550.0 0.00044278
10570.0 0.00044265
10590.0 0.00044254
10610.0 0.00044244
10630.0 0.00044239
10650.0 0.00044237
10670.0 0.00044234
10690.0 0.00044236
10710.0 0.00044242
10730.0 0.00044248
10750.0 0.00044256
10770.0 0.00044269
10790.0 0.00044284
10810.0 0.00044298
10830.0 0.00044315
10850.0 0.00044331
10870.0 0.00044338
10890.0 0.00044328
10910.0 0.0004429
10930.0 0.00044202
10950.0 0.00044024
10970.0 0.0004374
10990.0 0.0004334
11010.0 0.0004409
11030.0 0.00043321
11050.0 0.00042418
11070.0 0.00041371
11090.0 0.00040158
11110.0 0.00038948
11130.0 0.00037737
11150.0 0.00036497
11170.0 0.00035292
11190.0 0.00034195
11210.0 0.00033137
11230.0 0.00032131
11250.0 0.0003124
11270.0 0.00030445
11290.0 0.00029701
11310.0 0.00029038
11330.0 0.0002848
11350.0 0.00027965
11370.0 0.00027485
11390.0 0.00027053
11410.0 0.00026648
11430.0 0.00026226
11450.0 0.00025808
11470.0 0.00025391
11490.0 0.00024946
11510.0 0.00024462
11530.0 0.00023975
11550.0 0.0002347
11570.0 0.00022922
11590.0 0.00022362
11610.0 0.00021808
11630.0 0.00021224
11650.0 0.00020622
11670.0 0.00020049
11690.0 0.00019484
11710.0 0.00018909
11730.0 0.00018355
11750.0 0.00017841
11770.0 0.00017324
11790.0 0.00016822
11810.0 0.00016359
11830.0 0.00015916
11850.0 0.0001547
11870.0 0.00015058
11890.0 0.00014677
11910.0 0.00014299
11930.0 0.0001393
11950.0 0.00013587
11970.0 0.00013252
11990.0 0.0001291
12010.0 0.00012587
12030.0 0.00012279
12050.0 0.0001197
12070.0 0.00011664
12090.0 0.00011391
12110.0 0.00011128
12130.0 0.00010876
12150.0 0.00010653
12170.0 0.00010463
12190.0 0.00010291
12210.0 0.00010158
12230.0 0.00010071
12250.0 0.00010024
12270.0 0.00010025
12290.0 0.00010075
12310.0 0.00010171
12330.0 0.00010317
12350.0 0.00010511
12370.0 0.00010738
12390.0 0.00011001
12410.0 0.00011306
12430.0 0.00011616
12450.0 0.00011931
12470.0 0.00012259
12490.0 0.00012579
12510.0 0.00012874
12530.0 0.00013157
12550.0 0.00013422
12570.0 0.00013652
12590.0 0.00013851
12610.0 0.00014026
12630.0 0.00014168
12650.0 0.00014276
12670.0 0.00014359
12690.0 0.00014416
12710.0 0.00014449
12730.0 0.00014461
12750.0 0.00014451
12770.0 0.00014423
12790.0 0.00014381
12810.0 0.00014321
12830.0 0.00014243
12850.0 0.00014156
12870.0 0.00014054
12890.0 0.00013931
12910.0 0.00013794
12930.0 0.00013645
12950.0 0.00013472
12970.0 0.00013276
12990.0 0.00013074
13010.0 0.00012855
13030.0 0.00012612
13050.0 0.00012361
13070.0 0.00012111
13090.0 0.00011844
13110.0 0.00011573
13130.0 0.00011315
13150.0 0.00011065
13170.0 0.00010815
13190.0 0.00010592
13210.0 0.00010398
13230.0 0.00010223
13250.0 0.00010075
13270.0 9.9621e-05
13290.0 9.8765e-05
13310.0 9.8164e-05
13330.0 9.7856e-05
13350.0 9.7773e-05
13370.0 9.786e-05
13390.0 9.8074e-05
13410.0 9.8346e-05
13430.0 9.8622e-05
13450.0 9.8848e-05
13470.0 9.8972e-05
13490.0 9.8969e-05
13510.0 9.8789e-05
13530.0 9.8431e-05
13550.0 9.7924e-05
13570.0 9.7256e-05
13590.0 9.6428e-05
13610.0 9.5528e-05
13630.0 9.4592e-05
13650.0 9.3581e-05
13670.0 9.2577e-05
13690.0 9.1637e-05
13710.0 9.0729e-05
13730.0 8.9842e-05
13750.0 8.9075e-05
13770.0 8.8375e-05
13790.0 8.7707e-05
13810.0 8.7086e-05
13830.0 8.6515e-05
13850.0 8.5932e-05
13870.0 8.5329e-05
13890.0 8.4722e-05
13910.0 8.4087e-05
13930.0 8.3387e-05
13950.0 8.2651e-05
13970.0 8.1918e-05
13990.0 8.1144e-05
14010.0 8.035e-05
14030.0 7.9591e-05
14050.0 7.8862e-05
14070.0 7.8141e-05
14090.0 7.7499e-05
14110.0 7.6939e-05
14130.0 7.6443e-05
14150.0 7.6025e-05
14170.0 7.5703e-05
14190.0 7.546e-05
14210.0 7.5295e-05
14230.0 7.5212e-05
14250.0 7.5202e-05
14270.0 7.5276e-05
14290.0 7.5437e-05
14310.0 7.5658e-05
14330.0 7.5952e-05
14350.0 7.6332e-05
14370.0 7.6764e-05
14390.0 7.7226e-05
14410.0 7.7757e-05
14430.0 7.8323e-05
14450.0 7.888e-05
14470.0 7.9446e-05
14490.0 8.0047e-05
14510.0 8.0612e-05
14530.0 8.1149e-05
14550.0 8.1709e-05
14570.0 8.2282e-05
14590.0 8.2844e-05
14610.0 8.3458e-05
14630.0 8.4167e-05
14650.0 8.4929e-05
14670.0 8.5769e-05
14690.0 8.6764e-05
14710.0 8.7917e-05
14730.0 8.9121e-05
14750.0 9.0491e-05
14770.0 9.2044e-05
14790.0 9.3674e-05
14810.0 9.5355e-05
14830.0 9.7248e-05
14850.0 9.9157e-05
14870.0 0.00010099
14890.0 0.00010283
14910.0 0.00010463
14930.0 0.0001062
14950.0 0.00010754
14970.0 0.00010869
14990.0 0.00010952
15010.0 0.00011002
15030.0 0.00011024
15050.0 0.00011022
15070.0 0.00010998
15090.0 0.0001096
15110.0 0.00010913
15130.0 0.0001086
15150.0 0.00010805
15170.0 0.00010748
15190.0 0.00010689
15210.0 0.00010632
15230.0 0.00010574
15250.0 0.00010515
15270.0 0.00010457
15290.0 0.000104
15310.0 0.00010343
15330.0 0.00010285
15350.0 0.00010228
15370.0 0.00010171
15390.0 0.00010114
15410.0 0.00010057
15430.0 0.00010001
15450.0 9.9442e-05
15470.0 9.8875e-05
15490.0 9.8321e-05
15510.0 9.7768e-05
15530.0 9.7209e-05
15550.0 9.6657e-05
15570.0 9.6114e-05
15590.0 9.5563e-05
15610.0 9.5012e-05
15630.0 9.4475e-05
15650.0 9.3938e-05
15670.0 9.3396e-05
15690.0 9.2863e-05
15710.0 9.2338e-05
15730.0 9.1807e-05
15750.0 9.1278e-05
15770.0 9.0759e-05
15790.0 9.0242e-05
15810.0 8.9716e-05
15830.0 8.9203e-05
15850.0 8.8698e-05
15870.0 8.8188e-05
15890.0 8.768e-05
15910.0 8.7184e-05
15930.0 8.6687e-05
15950.0 8.6184e-05
15970.0 8.5693e-05
15990.0 8.5207e-05
16010.0 8.4718e-05
16030.0 8.4228e-05
16050.0 8.3755e-05
16070.0 8.3279e-05
16090.0 8.2801e-05
16110.0 8.2332e-05
16130.0 8.1871e-05
16150.0 8.1399e-05
16170.0 8.0934e-05
16190.0 8.048e-05
16210.0 8.0025e-05
16230.0 7.9568e-05
16250.0 7.9121e-05
16270.0 7.868e-05
16290.0 7.8233e-05
16310.0 7.7791e-05
16330.0 7.7359e-05
16350.0 7.6925e-05
16370.0 7.6484e-05
16390.0 7.606e-05
16410.0 7.5639e-05
16430.0 7.5213e-05
16450.0 7.4793e-05
16470.0 7.4384e-05
16490.0 7.3968e-05
16510.0 7.3552e-05
16530.0 7.3147e-05
16550.0 7.2745e-05
16570.0 7.2337e-05
16590.0 7.1935e-05
16610.0 7.1545e-05
16630.0 7.115e-05
16650.0 7.0755e-05
16670.0 7.0371e-05
16690.0 6.9989e-05
16710.0 6.9597e-05
16730.0 6.9216e-05
16750.0 6.8842e-05
16770.0 6.8465e-05
16790.0 6.8086e-05
16810.0 6.7721e-05
16830.0 6.7356e-05
16850.0 6.6985e-05
16870.0 6.6622e-05
16890.0 6.6267e-05
16910.0 6.5904e-05
16930.0 6.5542e-05
16950.0 6.5193e-05
16970.0 6.4843e-05
16990.0 6.4489e-05
17010.0 6.4142e-05
17030.0 6.3804e-05
17050.0 6.3457e-05
17070.0 6.3113e-05
17090.0 6.2779e-05
17110.0 6.2444e-05
17130.0 6.2102e-05
17150.0 6.177e-05
17170.0 6.1445e-05
17190.0 6.1115e-05
17210.0 6.0786e-05
17230.0 6.0467e-05
17250.0 6.0145e-05
17270.0 5.9818e-05
17290.0 5.9501e-05
17310.0 5.9188e-05
17330.0 5.887e-05
17350.0 5.8552e-05
17370.0 5.8247e-05
17390.0 5.7938e-05
17410.0 5.7627e-05
17430.0 5.7323e-05
17450.0 5.7024e-05
17470.0 5.6714e-05
17490.0 5.641e-05
17510.0 5.6116e-05
17530.0 5.5818e-05
17550.0 5.5517e-05
17570.0 5.5226e-05
17590.0 5.4938e-05
17610.0 5.4642e-05
17630.0 5.4351e-05
17650.0 5.4068e-05
17670.0 5.378e-05
17690.0 5.3486e-05
17710.0 5.3207e-05
17730.0 5.2928e-05
17750.0 5.2643e-05
17770.0 5.2363e-05
17790.0 5.2092e-05
17810.0 5.1813e-05
17830.0 5.1533e-05
17850.0 5.1262e-05
17870.0 5.0992e-05
17890.0 5.0716e-05
17910.0 5.0444e-05
17930.0 5.0182e-05
17950.0 4.9914e-05
17970.0 4.9645e-05
17990.0 4.9384e-05
18010.0 4.9125e-05
18030.0 4.8855e-05
18050.0 4.8594e-05
18070.0 4.8339e-05
18090.0 4.8078e-05
18110.0 4.7817e-05
18130.0 4.7566e-05
18150.0 4.7314e-05
18170.0 4.7056e-05
18190.0 4.6805e-05
18210.0 4.6559e-05
18230.0 4.6305e-05
18250.0 4.605e-05
18270.0 4.5807e-05
18290.0 4.5562e-05
18310.0 4.5313e-05
18330.0 4.507e-05
18350.0 4.4833e-05
18370.0 4.4587e-05
18390.0 4.4343e-05
18410.0 4.4107e-05
18430.0 4.3869e-05
18450.0 4.3624e-05
18470.0 4.3389e-05
18490.0 4.3158e-05
18510.0 4.2921e-05
18530.0 4.2685e-05
18550.0 4.2459e-05
18570.0 4.2227e-05
18590.0 4.199e-05
18610.0 4.1763e-05
18630.0 4.1538e-05
18650.0 4.1306e-05
18670.0 4.1076e-05
18690.0 4.0857e-05
18710.0 4.0633e-05
18730.0 4.0406e-05
18750.0 4.0186e-05
18770.0 3.9969e-05
18790.0 3.9741e-05
18810.0 3.9519e-05
18830.0 3.9305e-05
18850.0 3.9087e-05
18870.0 3.8866e-05
18890.0 3.8653e-05
18910.0 3.8442e-05
18930.0 3.8224e-05
18950.0 3.8009e-05
18970.0 3.7802e-05
18990.0 3.7589e-05
19010.0 3.737e-05
19030.0 3.7165e-05
19050.0 3.696e-05
19070.0 3.6748e-05
19090.0 3.6541e-05
19110.0 3.6341e-05
19130.0 3.6133e-05
19150.0 3.5924e-05
19170.0 3.5723e-05
19190.0 3.5522e-05
19210.0 3.5315e-05
19230.0 3.5112e-05
19250.0 3.4918e-05
19270.0 3.4717e-05
19290.0 3.4516e-05
19310.0 3.4322e-05
19330.0 3.4127e-05
19350.0 3.3923e-05
19370.0 3.3728e-05
19390.0 3.3537e-05
19410.0 3.3341e-05
19430.0 3.3144e-05
19450.0 3.2957e-05
19470.0 3.2767e-05
19490.0 3.2571e-05
19510.0 3.2382e-05
19530.0 3.2197e-05
19550.0 3.2004e-05
19570.0 3.1811e-05
19590.0 3.1628e-05
19610.0 3.1443e-05
19630.0 3.1253e-05
19650.0 3.1069e-05
19670.0 3.089e-05
19690.0 3.0702e-05
19710.0 3.0516e-05
19730.0 3.0337e-05
19750.0 3.0156e-05
19770.0 2.9968e-05
19790.0 2.9789e-05
19810.0 2.9613e-05
19830.0 2.943e-05
19850.0 2.9247e-05
19870.0 2.9069e-05
19890.0 2.8877e-05
19910.0 2.8668e-05
19930.0 2.8445e-05
19950.0 2.8194e-05
19970.0 2.7888e-05
19990.0 2.7526e-05
20010.0 2.7125e-05
20030.0 2.6651e-05
20050.0 2.6114e-05
20070.0 2.5554e-05
20090.0 2.4976e-05
20110.0 2.4351e-05
20130.0 2.3751e-05
20150.0 2.3188e-05
20170.0 2.2633e-05
20190.0 2.21e-05
20210.0 2.1625e-05
20230.0 2.1184e-05
20250.0 2.0766e-05
20270.0 2.0399e-05
20290.0 2.0084e-05
20310.0 1.9803e-05
20330.0 1.9561e-05
20350.0 1.9382e-05
20370.0 1.9246e-05
20390.0 1.9153e-05
20410.0 1.9112e-05
20430.0 1.9118e-05
20450.0 1.9173e-05
20470.0 1.9279e-05
20490.0 1.9429e-05
20510.0 1.9625e-05
20530.0 1.9875e-05
20550.0 2.0161e-05
20570.0 2.0472e-05
20590.0 2.0827e-05
20610.0 2.1211e-05
20630.0 2.1601e-05
20650.0 2.2007e-05
20670.0 2.2439e-05
20690.0 2.2849e-05
20710.0 2.3244e-05
20730.0 2.3634e-05
20750.0 2.4004e-05
20770.0 2.4331e-05
20790.0 2.4638e-05
20810.0 2.4922e-05
20830.0 2.5168e-05
20850.0 2.5383e-05
20870.0 2.5582e-05
20890.0 2.5757e-05
20910.0 2.5905e-05
20930.0 2.6041e-05
20950.0 2.6168e-05
20970.0 2.628e-05
20990.0 2.638e-05
21010.0 2.6475e-05
21030.0 2.6557e-05
21050.0 2.6624e-05
21070.0 2.6676e-05
21090.0 2.6712e-05
21110.0 2.6727e-05
21130.0 2.6723e-05
21150.0 2.6697e-05
21170.0 2.6649e-05
21190.0 2.6584e-05
21210.0 2.6498e-05
21230.0 2.6393e-05
21250.0 2.6279e-05
21270.0 2.6155e-05
21290.0 2.6019e-05
21310.0 2.5879e-05
21330.0 2.5745e-05
21350.0 2.5607e-05
21370.0 2.5472e-05
21390.0 2.5348e-05
21410.0 2.5233e-05
21430.0 2.5123e-05
21450.0 2.5028e-05
21470.0 2.495e-05
21490.0 2.4883e-05
21510.0 2.4831e-05
21530.0 2.4796e-05
21550.0 2.4775e-05
21570.0 2.477e-05
21590.0 2.4783e-05
21610.0 2.481e-05
21630.0 2.4855e-05
21650.0 2.492e-05
21670.0 2.4999e-05
21690.0 2.5095e-05
21710.0 2.5213e-05
21730.0 2.5348e-05
21750.0 2.5496e-05
21770.0 2.5673e-05
21790.0 2.5869e-05
21810.0 2.6077e-05
21830.0 2.6305e-05
21850.0 2.656e-05
21870.0 2.6826e-05
21890.0 2.71e-05
21910.0 2.7399e-05
21930.0 2.7712e-05
21950.0 2.8024e-05
21970.0 2.8349e-05
21990.0 2.8695e-05
22010.0 2.9027e-05
22030.0 2.9354e-05
22050.0 2.9686e-05
22070.0 3.0009e-05
22090.0 3.0306e-05
22110.0 3.0593e-05
22130.0 3.0865e-05
22150.0 3.1104e-05
22170.0 3.131e-05
22190.0 3.1492e-05
22210.0 3.1634e-05
22230.0 3.1728e-05
22250.0 3.1783e-05
22270.0 3.1792e-05
22290.0 3.1753e-05
22310.0 3.1668e-05
22330.0 3.1527e-05
22350.0 3.1337e-05
22370.0 3.1106e-05
22390.0 3.0822e-05
22410.0 3.0481e-05
22430.0 3.0115e-05
22450.0 2.9714e-05
22470.0 2.9263e-05
22490.0 2.8786e-05
22510.0 2.83e-05
22530.0 2.7773e-05
22550.0 2.722e-05
22570.0 2.6678e-05
22590.0 2.6131e-05
22610.0 2.5564e-05
22630.0 2.5006e-05
