#lamb flux
1010.0 3.8015e-07
1030.0 4.161e-07
1050.0 4.5332e-07
1070.0 4.9523e-07
1090.0 5.4404e-07
1110.0 5.9387e-07
1130.0 6.4389e-07
1150.0 6.9624e-07
1170.0 7.5034e-07
1190.0 8.0193e-07
1210.0 8.5469e-07
1230.0 9.0984e-07
1250.0 9.6445e-07
1270.0 1.0185e-06
1290.0 1.0766e-06
1310.0 1.1358e-06
1330.0 1.1938e-06
1350.0 1.2535e-06
1370.0 1.3158e-06
1390.0 1.3774e-06
1410.0 1.4379e-06
1430.0 1.501e-06
1450.0 1.564e-06
1470.0 1.6249e-06
1490.0 1.6858e-06
1510.0 1.749e-06
1530.0 1.8081e-06
1550.0 1.8653e-06
1570.0 1.923e-06
1590.0 1.9793e-06
1610.0 2.0312e-06
1630.0 2.0826e-06
1650.0 2.1336e-06
1670.0 2.1809e-06
1690.0 2.2255e-06
1710.0 2.2703e-06
1730.0 2.3137e-06
1750.0 2.3521e-06
1770.0 2.3906e-06
1790.0 2.4291e-06
1810.0 2.465e-06
1830.0 2.4994e-06
1850.0 2.5369e-06
1870.0 2.5733e-06
1890.0 2.6085e-06
1910.0 2.6459e-06
1930.0 2.686e-06
1950.0 2.7255e-06
1970.0 2.7665e-06
1990.0 2.8117e-06
2010.0 2.8583e-06
2030.0 2.9055e-06
2050.0 2.9565e-06
2070.0 3.0108e-06
2090.0 3.064e-06
2110.0 3.1186e-06
2130.0 3.1756e-06
2150.0 3.2323e-06
2170.0 3.287e-06
2190.0 3.3431e-06
2210.0 3.3987e-06
2230.0 3.4509e-06
2250.0 3.5013e-06
2270.0 3.5518e-06
2290.0 3.5984e-06
2310.0 3.6403e-06
2330.0 3.6809e-06
2350.0 3.719e-06
2370.0 3.7521e-06
2390.0 3.7827e-06
2410.0 3.8126e-06
2430.0 3.8379e-06
2450.0 3.8593e-06
2470.0 3.8794e-06
2490.0 3.8983e-06
2510.0 3.9151e-06
2530.0 3.94e-06
2550.0 3.988e-06
2570.0 4.076e-06
2590.0 4.2251e-06
2610.0 4.4867e-06
2630.0 4.8777e-06
2650.0 5.3795e-06
2670.0 5.9998e-06
2690.0 6.7143e-06
2710.0 7.4142e-06
2730.0 8.0336e-06
2750.0 8.553e-06
2770.0 8.8816e-06
2790.0 8.9934e-06
2810.0 8.9031e-06
2830.0 8.6066e-06
2850.0 8.1634e-06
2870.0 7.614e-06
2890.0 6.9676e-06
2910.0 6.269e-06
2930.0 5.5669e-06
2950.0 4.8227e-06
2970.0 4.05e-06
2990.0 3.2902e-06
3010.0 3.9986e-06
3030.0 2.7421e-06
3050.0 1.4791e-06
3070.0 4.4224e-07
3090.0 4.4224e-07
3110.0 4.4224e-07
3130.0 4.4224e-07
3150.0 4.4224e-07
3170.0 4.4224e-07
3190.0 4.4224e-07
3210.0 1.3962e-05
3230.0 3.8836e-05
3250.0 5.2835e-05
3270.0 4.6364e-05
3290.0 3.5142e-05
3310.0 2.7839e-05
3330.0 2.5969e-05
3350.0 2.7239e-05
3370.0 2.9467e-05
3390.0 3.1798e-05
3410.0 3.424e-05
3430.0 3.7224e-05
3450.0 4.0077e-05
3470.0 4.3039e-05
3490.0 4.359e-05
3510.0 3.8018e-05
3530.0 3.5596e-05
3550.0 4.5521e-05
3570.0 5.7968e-05
3590.0 6.4516e-05
3610.0 6.6791e-05
3630.0 7.0804e-05
3650.0 7.0868e-05
3670.0 7.3843e-05
3690.0 8.6847e-05
3710.0 0.00010095
3730.0 0.00011021
3750.0 0.00011593
3770.0 0.00011777
3790.0 0.00011421
3810.0 0.00010589
3830.0 9.2694e-05
3850.0 7.2931e-05
3870.0 6.4843e-05
3890.0 7.3044e-05
3910.0 9.676e-05
3930.0 0.00012095
3950.0 0.00013223
3970.0 0.00013687
3990.0 0.0001476
4010.0 0.00015261
4030.0 0.00013798
4050.0 0.00010402
4070.0 8.8008e-05
4090.0 9.856e-05
4110.0 0.00010941
4130.0 0.00011686
4150.0 0.00011693
4170.0 0.00011243
4190.0 0.00010739
4210.0 0.00011434
4230.0 0.0001228
4250.0 0.00013014
4270.0 0.00013049
4290.0 0.00012639
4310.0 0.000127
4330.0 0.00013961
4350.0 0.00015369
4370.0 0.00015569
4390.0 0.00014518
4410.0 0.00012906
4430.0 0.0001046
4450.0 8.6411e-05
4470.0 8.6017e-05
4490.0 9.5461e-05
4510.0 0.00010403
4530.0 0.00010937
4550.0 0.00011797
4570.0 0.00015338
4590.0 0.00021077
4610.0 0.00025046
4630.0 0.00026605
4650.0 0.00028932
4670.0 0.00032217
4690.0 0.00032794
4710.0 0.0002841
4730.0 0.00022292
4750.0 0.00017497
4770.0 0.00014718
4790.0 0.00013413
4810.0 0.00013033
4830.0 0.00014163
4850.0 0.00016695
4870.0 0.00018645
4890.0 0.00019126
4910.0 0.00019218
4930.0 0.00021238
4950.0 0.00024475
4970.0 0.00026572
4990.0 0.00026377
5010.0 0.0002376
5030.0 0.00019667
5050.0 0.00015947
5070.0 0.0001362
5090.0 0.0001274
5110.0 0.00012753
5130.0 0.00012921
5150.0 0.00012757
5170.0 0.00012143
5190.0 0.00011856
5210.0 0.00012573
5230.0 0.00014639
5250.0 0.0001799
5270.0 0.00021662
5290.0 0.00024403
5310.0 0.00026844
5330.0 0.00030263
5350.0 0.00033437
5370.0 0.00034113
5390.0 0.0003237
5410.0 0.00030784
5430.0 0.00032114
5450.0 0.00037579
5470.0 0.00044942
5490.0 0.00051
5510.0 0.00054141
5530.0 0.00054824
5550.0 0.00054171
5570.0 0.00053223
5590.0 0.00052298
5610.0 0.00052095
5630.0 0.00053112
5650.0 0.00054055
5670.0 0.00052459
5690.0 0.00048246
5710.0 0.00043778
5730.0 0.00041109
5750.0 0.00040952
5770.0 0.00043116
5790.0 0.00045501
5810.0 0.00047308
5830.0 0.00048599
5850.0 0.00048485
5870.0 0.00047908
5890.0 0.00048827
5910.0 0.00051333
5930.0 0.00052754
5950.0 0.00050733
5970.0 0.00045724
5990.0 0.00039019
6010.0 0.00033406
6030.0 0.00031808
6050.0 0.00034157
6070.0 0.00035888
6090.0 0.00033981
6110.0 0.00031186
6130.0 0.00032062
6150.0 0.00035857
6170.0 0.00039354
6190.0 0.00041485
6210.0 0.00042241
6230.0 0.00041462
6250.0 0.00037705
6270.0 0.00031794
6290.0 0.00026849
6310.0 0.00024798
6330.0 0.00025079
6350.0 0.00025937
6370.0 0.00027335
6390.0 0.00031298
6410.0 0.00037713
6430.0 0.00043409
6450.0 0.00046284
6470.0 0.00047558
6490.0 0.0004828
6510.0 0.00048706
6530.0 0.00049127
6550.0 0.00049674
6570.0 0.00050925
6590.0 0.00052043
6610.0 0.00051906
6630.0 0.00049708
6650.0 0.00045968
6670.0 0.00042353
6690.0 0.00039919
6710.0 0.00038213
6730.0 0.00036624
6750.0 0.00036014
6770.0 0.00036969
6790.0 0.00038347
6810.0 0.00038978
6830.0 0.00038371
6850.0 0.00036524
6870.0 0.0003459
6890.0 0.00033737
6910.0 0.00033721
6930.0 0.00034545
6950.0 0.0003544
6970.0 0.00036128
6990.0 0.00036264
7010.0 0.00035081
7030.0 0.00032431
7050.0 0.00029081
7070.0 0.00026803
7090.0 0.00026331
7110.0 0.00026562
7130.0 0.0002533
7150.0 0.00022894
7170.0 0.00022351
7190.0 0.00024705
7210.0 0.00028311
7230.0 0.00031403
7250.0 0.00032544
7270.0 0.00031797
7290.0 0.00029865
7310.0 0.00028261
7330.0 0.00027992
7350.0 0.00028475
7370.0 0.00028966
7390.0 0.00030361
7410.0 0.00033349
7430.0 0.00037112
7450.0 0.00040249
7470.0 0.00041325
7490.0 0.00039427
7510.0 0.00036205
7530.0 0.00033529
7550.0 0.00031033
7570.0 0.00028446
7590.0 0.00026965
7610.0 0.00026724
7630.0 0.00027574
7650.0 0.00029361
7670.0 0.00031566
7690.0 0.00033382
7710.0 0.00034638
7730.0 0.00035634
7750.0 0.00036322
7770.0 0.00036092
7790.0 0.00036042
7810.0 0.00035654
7830.0 0.00034181
7850.0 0.00032549
7870.0 0.00031484
7890.0 0.00031306
7910.0 0.00030882
7930.0 0.00029793
7950.0 0.00028274
7970.0 0.000269
7990.0 0.00025599
8010.0 0.00024387
8030.0 0.00024169
8050.0 0.00023863
8070.0 0.00023246
8090.0 0.0002274
8110.0 0.00021992
8130.0 0.00021726
8150.0 0.00021273
8170.0 0.00020586
8190.0 0.00019783
8210.0 0.00019049
8230.0 0.00018297
8250.0 0.00017878
8270.0 0.00016492
8290.0 0.00013881
8310.0 0.00011033
8330.0 9.0917e-05
8350.0 8.5739e-05
8370.0 9.6155e-05
8390.0 0.00011053
8410.0 0.00011656
8430.0 0.00011858
8450.0 0.0001246
8470.0 0.000133
8490.0 0.00014569
8510.0 0.00016095
8530.0 0.00017703
8550.0 0.00018937
8570.0 0.0001978
8590.0 0.00020329
8610.0 0.00020488
8630.0 0.00020144
8650.0 0.00019572
8670.0 0.00019348
8690.0 0.00020132
8710.0 0.00021259
8730.0 0.00021705
8750.0 0.00021318
8770.0 0.00021312
8790.0 0.00021043
8810.0 0.0001976
8830.0 0.00018146
8850.0 0.00016209
8870.0 0.00014699
8890.0 0.00014129
8910.0 0.00013789
8930.0 0.00012775
8950.0 0.00011668
8970.0 0.00011128
8990.0 0.00010984
9010.0 0.00010649
9030.0 0.00010439
9050.0 0.00010341
9070.0 0.00010292
9090.0 0.0001025
9110.0 0.00010209
9130.0 0.00010168
9150.0 0.00010129
9170.0 0.00010087
9190.0 0.00010055
9210.0 0.00010042
9230.0 9.9916e-05
9250.0 9.9472e-05
9270.0 9.9064e-05
9290.0 9.8683e-05
9310.0 9.831e-05
9330.0 9.7949e-05
9350.0 9.7609e-05
9370.0 9.7271e-05
9390.0 9.6932e-05
9410.0 9.6603e-05
9430.0 9.626e-05
9450.0 9.5781e-05
9470.0 9.5354e-05
9490.0 9.5185e-05
9510.0 9.4943e-05
9530.0 9.4687e-05
9550.0 9.4414e-05
9570.0 9.4132e-05
9590.0 9.3851e-05
9610.0 9.3568e-05
9630.0 9.3283e-05
9650.0 9.3002e-05
9670.0 9.2728e-05
9690.0 9.2451e-05
9710.0 9.2176e-05
9730.0 9.1907e-05
9750.0 9.1639e-05
9770.0 9.1366e-05
9790.0 9.1099e-05
9810.0 9.0836e-05
9830.0 9.057e-05
9850.0 9.0302e-05
9870.0 9.0042e-05
9890.0 8.9779e-05
9910.0 8.9511e-05
9930.0 8.924e-05
9950.0 8.8545e-05
9970.0 8.8403e-05
9990.0 8.8233e-05
10010.0 8.8058e-05
10030.0 8.7841e-05
10050.0 8.7589e-05
10070.0 8.7335e-05
10090.0 8.7082e-05
10110.0 8.6779e-05
10130.0 8.6428e-05
10150.0 8.616e-05
10170.0 8.589e-05
10190.0 8.5583e-05
10210.0 8.5298e-05
10230.0 8.5013e-05
10250.0 8.4692e-05
10270.0 8.437e-05
10290.0 8.4068e-05
10310.0 8.3734e-05
10330.0 8.3371e-05
10350.0 8.3037e-05
10370.0 8.2699e-05
10390.0 8.2326e-05
10410.0 8.1952e-05
10430.0 8.1604e-05
10450.0 8.1221e-05
10470.0 8.0817e-05
10490.0 8.043e-05
10510.0 8.0038e-05
10530.0 7.9594e-05
10550.0 7.9161e-05
10570.0 7.8748e-05
10590.0 7.8302e-05
10610.0 7.7832e-05
10630.0 7.7386e-05
10650.0 7.6926e-05
10670.0 7.642e-05
10690.0 7.5923e-05
10710.0 7.5435e-05
10730.0 7.4912e-05
10750.0 7.4353e-05
10770.0 7.3837e-05
10790.0 7.3299e-05
10810.0 7.2723e-05
10830.0 7.2152e-05
10850.0 7.1597e-05
10870.0 7.098e-05
10890.0 7.0352e-05
10910.0 6.9744e-05
10930.0 6.9112e-05
10950.0 6.8433e-05
10970.0 6.7758e-05
10990.0 6.7099e-05
11010.0 7.262e-05
11030.0 7.1876e-05
11050.0 7.1157e-05
11070.0 7.0422e-05
11090.0 6.9632e-05
11110.0 6.8895e-05
11130.0 6.8173e-05
11150.0 6.7424e-05
11170.0 6.6676e-05
11190.0 6.5972e-05
11210.0 6.525e-05
11230.0 6.4509e-05
11250.0 6.3801e-05
11270.0 6.3114e-05
11290.0 6.2401e-05
11310.0 6.1696e-05
11330.0 6.1043e-05
11350.0 6.0375e-05
11370.0 5.9694e-05
11390.0 5.9032e-05
11410.0 5.8372e-05
11430.0 5.7654e-05
11450.0 5.6925e-05
11470.0 5.6188e-05
11490.0 5.5398e-05
11510.0 5.4538e-05
11530.0 5.3671e-05
11550.0 5.2768e-05
11570.0 5.1786e-05
11590.0 5.0775e-05
11610.0 4.9764e-05
11630.0 4.8691e-05
11650.0 4.7573e-05
11670.0 4.6493e-05
11690.0 4.5412e-05
11710.0 4.4299e-05
11730.0 4.3208e-05
11750.0 4.2172e-05
11770.0 4.1115e-05
11790.0 4.0065e-05
11810.0 3.9068e-05
11830.0 3.8093e-05
11850.0 3.7092e-05
11870.0 3.6141e-05
11890.0 3.5238e-05
11910.0 3.4331e-05
11930.0 3.3439e-05
11950.0 3.2601e-05
11970.0 3.1782e-05
11990.0 3.0962e-05
12010.0 3.0192e-05
12030.0 2.947e-05
12050.0 2.8766e-05
12070.0 2.8091e-05
12090.0 2.7493e-05
12110.0 2.6932e-05
12130.0 2.6408e-05
12150.0 2.5947e-05
12170.0 2.5548e-05
12190.0 2.5191e-05
12210.0 2.49e-05
12230.0 2.4675e-05
12250.0 2.4509e-05
12270.0 2.4405e-05
12290.0 2.4361e-05
12310.0 2.4367e-05
12330.0 2.4432e-05
12350.0 2.4546e-05
12370.0 2.4691e-05
12390.0 2.4875e-05
12410.0 2.5108e-05
12430.0 2.5345e-05
12450.0 2.5591e-05
12470.0 2.586e-05
12490.0 2.6132e-05
12510.0 2.6382e-05
12530.0 2.6635e-05
12550.0 2.6882e-05
12570.0 2.7093e-05
12590.0 2.7273e-05
12610.0 2.7433e-05
12630.0 2.755e-05
12650.0 2.7607e-05
12670.0 2.7623e-05
12690.0 2.7588e-05
12710.0 2.7494e-05
12730.0 2.7346e-05
12750.0 2.7142e-05
12770.0 2.6884e-05
12790.0 2.6581e-05
12810.0 2.6231e-05
12830.0 2.5836e-05
12850.0 2.542e-05
12870.0 2.4984e-05
12890.0 2.4521e-05
12910.0 2.4052e-05
12930.0 2.3591e-05
12950.0 2.312e-05
12970.0 2.265e-05
12990.0 2.2205e-05
13010.0 2.1772e-05
13030.0 2.1343e-05
13050.0 2.0933e-05
13070.0 2.0547e-05
13090.0 2.0163e-05
13110.0 1.9791e-05
13130.0 1.9439e-05
13150.0 1.9098e-05
13170.0 1.8756e-05
13190.0 1.8433e-05
13210.0 1.8126e-05
13230.0 1.7823e-05
13250.0 1.7529e-05
13270.0 1.7253e-05
13290.0 1.6985e-05
13310.0 1.6723e-05
13330.0 1.6478e-05
13350.0 1.6249e-05
13370.0 1.6028e-05
13390.0 1.582e-05
13410.0 1.5633e-05
13430.0 1.5458e-05
13450.0 1.5292e-05
13470.0 1.5141e-05
13490.0 1.5002e-05
13510.0 1.4867e-05
13530.0 1.4739e-05
13550.0 1.4618e-05
13570.0 1.4497e-05
13590.0 1.4375e-05
13610.0 1.4252e-05
13630.0 1.4128e-05
13650.0 1.3998e-05
13670.0 1.3865e-05
13690.0 1.3732e-05
13710.0 1.3594e-05
13730.0 1.3451e-05
13750.0 1.3313e-05
13770.0 1.3178e-05
13790.0 1.3042e-05
13810.0 1.2911e-05
13830.0 1.2788e-05
13850.0 1.2668e-05
13870.0 1.2552e-05
13890.0 1.2446e-05
13910.0 1.2345e-05
13930.0 1.2247e-05
13950.0 1.2153e-05
13970.0 1.2066e-05
13990.0 1.1979e-05
14010.0 1.1892e-05
14030.0 1.1806e-05
14050.0 1.1718e-05
14070.0 1.1625e-05
14090.0 1.1529e-05
14110.0 1.1432e-05
14130.0 1.1329e-05
14150.0 1.122e-05
14170.0 1.1112e-05
14190.0 1.1003e-05
14210.0 1.089e-05
14230.0 1.078e-05
14250.0 1.0676e-05
14270.0 1.0573e-05
14290.0 1.0475e-05
14310.0 1.0389e-05
14330.0 1.0312e-05
14350.0 1.0243e-05
14370.0 1.0185e-05
14390.0 1.014e-05
14410.0 1.0101e-05
14430.0 1.0072e-05
14450.0 1.0052e-05
14470.0 1.0038e-05
14490.0 1.0028e-05
14510.0 1.0024e-05
14530.0 1.0023e-05
14550.0 1.0025e-05
14570.0 1.003e-05
14590.0 1.0038e-05
14610.0 1.0052e-05
14630.0 1.0072e-05
14650.0 1.01e-05
14670.0 1.0138e-05
14690.0 1.0189e-05
14710.0 1.0256e-05
14730.0 1.0336e-05
14750.0 1.0436e-05
14770.0 1.0558e-05
14790.0 1.07e-05
14810.0 1.0861e-05
14830.0 1.1056e-05
14850.0 1.1275e-05
14870.0 1.151e-05
14890.0 1.177e-05
14910.0 1.2054e-05
14930.0 1.2337e-05
14950.0 1.2613e-05
14970.0 1.2886e-05
14990.0 1.3131e-05
15010.0 1.3336e-05
15030.0 1.3509e-05
15050.0 1.3649e-05
15070.0 1.3753e-05
15090.0 1.3835e-05
15110.0 1.3902e-05
15130.0 1.396e-05
15150.0 1.4013e-05
15170.0 1.4065e-05
15190.0 1.4115e-05
15210.0 1.4167e-05
15230.0 1.4219e-05
15250.0 1.4272e-05
15270.0 1.4326e-05
15290.0 1.4382e-05
15310.0 1.4438e-05
15330.0 1.4495e-05
15350.0 1.4554e-05
15370.0 1.4613e-05
15390.0 1.4673e-05
15410.0 1.4735e-05
15430.0 1.4797e-05
15450.0 1.486e-05
15470.0 1.4924e-05
15490.0 1.4989e-05
15510.0 1.5054e-05
15530.0 1.5121e-05
15550.0 1.5188e-05
15570.0 1.5257e-05
15590.0 1.5326e-05
15610.0 1.5395e-05
15630.0 1.5466e-05
15650.0 1.5537e-05
15670.0 1.5609e-05
15690.0 1.5682e-05
15710.0 1.5755e-05
15730.0 1.5829e-05
15750.0 1.5904e-05
15770.0 1.5979e-05
15790.0 1.6055e-05
15810.0 1.6132e-05
15830.0 1.6209e-05
15850.0 1.6286e-05
15870.0 1.6364e-05
15890.0 1.6443e-05
15910.0 1.6522e-05
15930.0 1.6601e-05
15950.0 1.6681e-05
15970.0 1.6761e-05
15990.0 1.6842e-05
16010.0 1.6922e-05
16030.0 1.7003e-05
16050.0 1.7085e-05
16070.0 1.7167e-05
16090.0 1.7248e-05
16110.0 1.733e-05
16130.0 1.7413e-05
16150.0 1.7495e-05
16170.0 1.7577e-05
16190.0 1.766e-05
16210.0 1.7742e-05
16230.0 1.7825e-05
16250.0 1.7907e-05
16270.0 1.799e-05
16290.0 1.8072e-05
16310.0 1.8154e-05
16330.0 1.8236e-05
16350.0 1.8318e-05
16370.0 1.84e-05
16390.0 1.8481e-05
16410.0 1.8562e-05
16430.0 1.8643e-05
16450.0 1.8723e-05
16470.0 1.8804e-05
16490.0 1.8883e-05
16510.0 1.8963e-05
16530.0 1.9041e-05
16550.0 1.912e-05
16570.0 1.9198e-05
16590.0 1.9275e-05
16610.0 1.9351e-05
16630.0 1.9427e-05
16650.0 1.9503e-05
16670.0 1.9577e-05
16690.0 1.9651e-05
16710.0 1.9724e-05
16730.0 1.9796e-05
16750.0 1.9868e-05
16770.0 1.9939e-05
16790.0 2.0008e-05
16810.0 2.0077e-05
16830.0 2.0145e-05
16850.0 2.0212e-05
16870.0 2.0278e-05
16890.0 2.0342e-05
16910.0 2.0406e-05
16930.0 2.0469e-05
16950.0 2.053e-05
16970.0 2.059e-05
16990.0 2.0649e-05
17010.0 2.0707e-05
17030.0 2.0764e-05
17050.0 2.0819e-05
17070.0 2.0873e-05
17090.0 2.0926e-05
17110.0 2.0977e-05
17130.0 2.1027e-05
17150.0 2.1076e-05
17170.0 2.1123e-05
17190.0 2.1169e-05
17210.0 2.1213e-05
17230.0 2.1256e-05
17250.0 2.1297e-05
17270.0 2.1336e-05
17290.0 2.1374e-05
17310.0 2.1411e-05
17330.0 2.1446e-05
17350.0 2.1479e-05
17370.0 2.1511e-05
17390.0 2.1541e-05
17410.0 2.1569e-05
17430.0 2.1595e-05
17450.0 2.162e-05
17470.0 2.1644e-05
17490.0 2.1665e-05
17510.0 2.1685e-05
17530.0 2.1703e-05
17550.0 2.1719e-05
17570.0 2.1733e-05
17590.0 2.1746e-05
17610.0 2.1757e-05
17630.0 2.1766e-05
17650.0 2.1774e-05
17670.0 2.1779e-05
17690.0 2.1783e-05
17710.0 2.1785e-05
17730.0 2.1785e-05
17750.0 2.1783e-05
17770.0 2.178e-05
17790.0 2.1774e-05
17810.0 2.1767e-05
17830.0 2.1758e-05
17850.0 2.1748e-05
17870.0 2.1735e-05
17890.0 2.1721e-05
17910.0 2.1704e-05
17930.0 2.1687e-05
17950.0 2.1667e-05
17970.0 2.1645e-05
17990.0 2.1622e-05
18010.0 2.1597e-05
18030.0 2.157e-05
18050.0 2.1542e-05
18070.0 2.1512e-05
18090.0 2.148e-05
18110.0 2.1446e-05
18130.0 2.1411e-05
18150.0 2.1374e-05
18170.0 2.1335e-05
18190.0 2.1295e-05
18210.0 2.1253e-05
18230.0 2.121e-05
18250.0 2.1165e-05
18270.0 2.1118e-05
18290.0 2.107e-05
18310.0 2.102e-05
18330.0 2.0969e-05
18350.0 2.0916e-05
18370.0 2.0862e-05
18390.0 2.0806e-05
18410.0 2.0749e-05
18430.0 2.069e-05
18450.0 2.063e-05
18470.0 2.0569e-05
18490.0 2.0507e-05
18510.0 2.0443e-05
18530.0 2.0377e-05
18550.0 2.0311e-05
18570.0 2.0243e-05
18590.0 2.0174e-05
18610.0 2.0104e-05
18630.0 2.0033e-05
18650.0 1.996e-05
18670.0 1.9887e-05
18690.0 1.9812e-05
18710.0 1.9737e-05
18730.0 1.966e-05
18750.0 1.9582e-05
18770.0 1.9503e-05
18790.0 1.9423e-05
18810.0 1.9343e-05
18830.0 1.9261e-05
18850.0 1.9179e-05
18870.0 1.9096e-05
18890.0 1.9012e-05
18910.0 1.8927e-05
18930.0 1.8841e-05
18950.0 1.8755e-05
18970.0 1.8668e-05
18990.0 1.858e-05
19010.0 1.8491e-05
19030.0 1.8402e-05
19050.0 1.8313e-05
19070.0 1.8222e-05
19090.0 1.8132e-05
19110.0 1.804e-05
19130.0 1.7949e-05
19150.0 1.7856e-05
19170.0 1.7763e-05
19190.0 1.767e-05
19210.0 1.7577e-05
19230.0 1.7483e-05
19250.0 1.7389e-05
19270.0 1.7294e-05
19290.0 1.7199e-05
19310.0 1.7104e-05
19330.0 1.7008e-05
19350.0 1.6913e-05
19370.0 1.6817e-05
19390.0 1.6721e-05
19410.0 1.6625e-05
19430.0 1.6528e-05
19450.0 1.6432e-05
19470.0 1.6335e-05
19490.0 1.6239e-05
19510.0 1.6142e-05
19530.0 1.6046e-05
19550.0 1.5949e-05
19570.0 1.5852e-05
19590.0 1.5756e-05
19610.0 1.5659e-05
19630.0 1.5562e-05
19650.0 1.5466e-05
19670.0 1.537e-05
19690.0 1.5274e-05
19710.0 1.5178e-05
19730.0 1.5082e-05
19750.0 1.4986e-05
19770.0 1.489e-05
19790.0 1.4795e-05
19810.0 1.47e-05
19830.0 1.4605e-05
19850.0 1.4509e-05
19870.0 1.4412e-05
19890.0 1.4313e-05
19910.0 1.4209e-05
19930.0 1.4096e-05
19950.0 1.3971e-05
19970.0 1.3828e-05
19990.0 1.3661e-05
20010.0 1.3476e-05
20030.0 1.3262e-05
20050.0 1.3023e-05
20070.0 1.2771e-05
20090.0 1.2507e-05
20110.0 1.2224e-05
20130.0 1.1944e-05
20150.0 1.1671e-05
20170.0 1.1398e-05
20190.0 1.1127e-05
20210.0 1.0871e-05
20230.0 1.0624e-05
20250.0 1.038e-05
20270.0 1.0149e-05
20290.0 9.9338e-06
20310.0 9.725e-06
20330.0 9.5236e-06
20350.0 9.3428e-06
20370.0 9.1715e-06
20390.0 9.0083e-06
20410.0 8.8583e-06
20430.0 8.7216e-06
20450.0 8.5909e-06
20470.0 8.4707e-06
20490.0 8.362e-06
20510.0 8.2614e-06
20530.0 8.1676e-06
20550.0 8.0822e-06
20570.0 8.0043e-06
20590.0 7.9312e-06
20610.0 7.8634e-06
20630.0 7.8005e-06
20650.0 7.741e-06
20670.0 7.6843e-06
20690.0 7.63e-06
20710.0 7.5772e-06
20730.0 7.5252e-06
20750.0 7.4733e-06
20770.0 7.4213e-06
20790.0 7.3683e-06
20810.0 7.3138e-06
20830.0 7.2579e-06
20850.0 7.2002e-06
20870.0 7.1399e-06
20890.0 7.0771e-06
20910.0 7.013e-06
20930.0 6.9462e-06
20950.0 6.8768e-06
20970.0 6.8062e-06
20990.0 6.7344e-06
21010.0 6.6595e-06
21030.0 6.5838e-06
21050.0 6.5082e-06
21070.0 6.4314e-06
21090.0 6.3528e-06
21110.0 6.276e-06
21130.0 6.1997e-06
21150.0 6.1224e-06
21170.0 6.0461e-06
21190.0 5.972e-06
21210.0 5.8975e-06
21230.0 5.8235e-06
21250.0 5.7523e-06
21270.0 5.6826e-06
21290.0 5.6134e-06
21310.0 5.5462e-06
21330.0 5.4823e-06
21350.0 5.4192e-06
21370.0 5.3577e-06
21390.0 5.2994e-06
21410.0 5.2434e-06
21430.0 5.1883e-06
21450.0 5.1365e-06
21470.0 5.0877e-06
21490.0 5.0408e-06
21510.0 4.9962e-06
21530.0 4.9546e-06
21550.0 4.9151e-06
21570.0 4.8776e-06
21590.0 4.8425e-06
21610.0 4.8096e-06
21630.0 4.7785e-06
21650.0 4.7491e-06
21670.0 4.7215e-06
21690.0 4.6952e-06
21710.0 4.6704e-06
21730.0 4.6467e-06
21750.0 4.6239e-06
21770.0 4.6023e-06
21790.0 4.5815e-06
21810.0 4.5612e-06
21830.0 4.5414e-06
21850.0 4.5224e-06
21870.0 4.5035e-06
21890.0 4.4847e-06
21910.0 4.4663e-06
21930.0 4.4479e-06
21950.0 4.4292e-06
21970.0 4.4104e-06
21990.0 4.3916e-06
22010.0 4.3721e-06
22030.0 4.3522e-06
22050.0 4.3319e-06
22070.0 4.311e-06
22090.0 4.2894e-06
22110.0 4.2673e-06
22130.0 4.2445e-06
22150.0 4.2211e-06
22170.0 4.1971e-06
22190.0 4.1724e-06
22210.0 4.147e-06
22230.0 4.1213e-06
22250.0 4.0949e-06
22270.0 4.0677e-06
22290.0 4.04e-06
22310.0 4.0117e-06
22330.0 3.982e-06
22350.0 3.9514e-06
22370.0 3.9201e-06
22390.0 3.8872e-06
22410.0 3.8522e-06
22430.0 3.8165e-06
22450.0 3.7793e-06
22470.0 3.7394e-06
22490.0 3.6979e-06
22510.0 3.6555e-06
22530.0 3.6101e-06
22550.0 3.5621e-06
22570.0 3.5139e-06
22590.0 3.4643e-06
22610.0 3.4123e-06
22630.0 3.3597e-06
