#lamb flux
1010.0 1.0797e-08
1030.0 1.1942e-08
1050.0 1.3259e-08
1070.0 1.4741e-08
1090.0 1.6424e-08
1110.0 1.8151e-08
1130.0 1.9888e-08
1150.0 2.1709e-08
1170.0 2.3586e-08
1190.0 2.5367e-08
1210.0 2.7171e-08
1230.0 2.9036e-08
1250.0 3.0863e-08
1270.0 3.2637e-08
1290.0 3.4512e-08
1310.0 3.6385e-08
1330.0 3.8182e-08
1350.0 3.9999e-08
1370.0 4.1874e-08
1390.0 4.3703e-08
1410.0 4.5478e-08
1430.0 4.7333e-08
1450.0 4.9188e-08
1470.0 5.0981e-08
1490.0 5.2794e-08
1510.0 5.4708e-08
1530.0 5.6523e-08
1550.0 5.8313e-08
1570.0 6.0166e-08
1590.0 6.202e-08
1610.0 6.3793e-08
1630.0 6.5621e-08
1650.0 6.7498e-08
1670.0 6.9314e-08
1690.0 7.1109e-08
1710.0 7.2974e-08
1730.0 7.4851e-08
1750.0 7.6617e-08
1770.0 7.8437e-08
1790.0 8.0297e-08
1810.0 8.2099e-08
1830.0 8.3872e-08
1850.0 8.5756e-08
1870.0 8.7595e-08
1890.0 8.9376e-08
1910.0 9.1195e-08
1930.0 9.3062e-08
1950.0 9.4848e-08
1970.0 9.6616e-08
1990.0 9.8456e-08
2010.0 1.0027e-07
2030.0 1.0202e-07
2050.0 1.0383e-07
2070.0 1.0569e-07
2090.0 1.0745e-07
2110.0 1.0921e-07
2130.0 1.1102e-07
2150.0 1.128e-07
2170.0 1.1451e-07
2190.0 1.1629e-07
2210.0 1.1808e-07
2230.0 1.198e-07
2250.0 1.2152e-07
2270.0 1.2331e-07
2290.0 1.2505e-07
2310.0 1.2673e-07
2330.0 1.2847e-07
2350.0 1.3026e-07
2370.0 1.3204e-07
2390.0 1.3397e-07
2410.0 1.3626e-07
2430.0 1.3888e-07
2450.0 1.4203e-07
2470.0 1.4605e-07
2490.0 1.5113e-07
2510.0 1.569e-07
2530.0 1.6384e-07
2550.0 1.7254e-07
2570.0 1.8335e-07
2590.0 1.9742e-07
2610.0 2.1848e-07
2630.0 2.4855e-07
2650.0 2.8787e-07
2670.0 3.387e-07
2690.0 4.0117e-07
2710.0 4.6785e-07
2730.0 5.3374e-07
2750.0 5.9864e-07
2770.0 6.5509e-07
2790.0 6.9992e-07
2810.0 7.355e-07
2830.0 7.6329e-07
2850.0 7.8226e-07
2870.0 7.9619e-07
2890.0 8.0721e-07
2910.0 8.1601e-07
2930.0 8.232e-07
2950.0 8.3007e-07
2970.0 8.3677e-07
2990.0 8.4307e-07
3010.0 2.383e-05
3030.0 2.4008e-05
3050.0 2.418e-05
3070.0 2.4328e-05
3090.0 2.4454e-05
3110.0 2.4533e-05
3130.0 2.453e-05
3150.0 2.4421e-05
3170.0 2.4159e-05
3190.0 2.3749e-05
3210.0 2.3228e-05
3230.0 2.2631e-05
3250.0 2.2043e-05
3270.0 2.1613e-05
3290.0 2.1374e-05
3310.0 2.1413e-05
3330.0 2.1723e-05
3350.0 2.2262e-05
3370.0 2.3033e-05
3390.0 2.4004e-05
3410.0 2.5061e-05
3430.0 2.6247e-05
3450.0 2.7613e-05
3470.0 2.9105e-05
3490.0 3.0686e-05
3510.0 3.2472e-05
3530.0 3.4386e-05
3550.0 3.6323e-05
3570.0 3.8343e-05
3590.0 4.0541e-05
3610.0 4.2806e-05
3630.0 4.5063e-05
3650.0 4.7405e-05
3670.0 4.9543e-05
3690.0 5.1142e-05
3710.0 5.2058e-05
3730.0 5.2088e-05
3750.0 5.1363e-05
3770.0 5.1079e-05
3790.0 5.0775e-05
3810.0 4.9527e-05
3830.0 5.106e-05
3850.0 5.7091e-05
3870.0 6.0402e-05
3890.0 6.0126e-05
3910.0 6.0383e-05
3930.0 6.1972e-05
3950.0 6.2951e-05
3970.0 5.7354e-05
3990.0 4.935e-05
4010.0 0.00014791
4030.0 0.00017921
4050.0 0.00020546
4070.0 0.00017827
4090.0 0.00016146
4110.0 0.00014247
4130.0 0.00013113
4150.0 0.00013948
4170.0 0.0001374
4190.0 0.00014645
4210.0 0.00014511
4230.0 0.00015349
4250.0 0.00018159
4270.0 0.00018372
4290.0 0.0001693
4310.0 0.00017591
4330.0 0.00018712
4350.0 0.0002098
4370.0 0.00023876
4390.0 0.00022405
4410.0 0.00016553
4430.0 0.00014014
4450.0 0.00012877
4470.0 9.8835e-05
4490.0 0.00010665
4510.0 0.0001611
4530.0 0.0001858
4550.0 0.00018741
4570.0 0.00021089
4590.0 0.00024022
4610.0 0.000324
4630.0 0.00042081
4650.0 0.00045636
4670.0 0.00042263
4690.0 0.00040327
4710.0 0.00042628
4730.0 0.00040229
4750.0 0.00030076
4770.0 0.00022062
4790.0 0.00020602
4810.0 0.00019637
4830.0 0.00017977
4850.0 0.00019727
4870.0 0.00026061
4890.0 0.00030734
4910.0 0.00026965
4930.0 0.0002386
4950.0 0.00026214
4970.0 0.00033617
4990.0 0.0004556
5010.0 0.0005241
5030.0 0.00046214
5050.0 0.00031267
5070.0 0.00020606
5090.0 0.00016616
5110.0 0.00017088
5130.0 0.00019722
5150.0 0.00021367
5170.0 0.00021047
5190.0 0.00019667
5210.0 0.00020556
5230.0 0.00021609
5250.0 0.00023288
5270.0 0.00025127
5290.0 0.00027845
5310.0 0.00032411
5330.0 0.00035867
5350.0 0.00035638
5370.0 0.00037435
5390.0 0.00042957
5410.0 0.00042918
5430.0 0.00037955
5450.0 0.00034872
5470.0 0.00037028
5490.0 0.00045237
5510.0 0.00056563
5530.0 0.00064874
5550.0 0.00062702
5570.0 0.00057
5590.0 0.00049563
5610.0 0.00045708
5630.0 0.00044322
5650.0 0.00042213
5670.0 0.0004
5690.0 0.0003576
5710.0 0.00034866
5730.0 0.00032117
5750.0 0.00022644
5770.0 0.00017666
5790.0 0.0002002
5810.0 0.00022606
5830.0 0.00027741
5850.0 0.00033022
5870.0 0.00036638
5890.0 0.00037259
5910.0 0.00036554
5930.0 0.00034795
5950.0 0.00035455
5970.0 0.00040415
5990.0 0.00038001
6010.0 0.00031856
6030.0 0.00026914
6050.0 0.00023438
6070.0 0.0002331
6090.0 0.00025276
6110.0 0.00028263
6130.0 0.00028696
6150.0 0.0002469
6170.0 0.0002172
6190.0 0.00024442
6210.0 0.00032312
6230.0 0.00042403
6250.0 0.00045928
6270.0 0.00040135
6290.0 0.00033768
6310.0 0.00026362
6330.0 0.00020198
6350.0 0.00018016
6370.0 0.00018946
6390.0 0.00021903
6410.0 0.00027007
6430.0 0.00031537
6450.0 0.00036086
6470.0 0.00041319
6490.0 0.00049911
6510.0 0.00055807
6530.0 0.0005475
6550.0 0.00049509
6570.0 0.00042028
6590.0 0.00037898
6610.0 0.00032678
6630.0 0.00029605
6650.0 0.00027985
6670.0 0.00027187
6690.0 0.00024565
6710.0 0.0002233
6730.0 0.00016084
6750.0 0.00015946
6770.0 0.00017332
6790.0 0.00019921
6810.0 0.00018229
6830.0 0.0001877
6850.0 0.00017556
6870.0 0.00016038
6890.0 0.00015399
6910.0 0.00016409
6930.0 0.0001537
6950.0 0.00015813
6970.0 0.00016632
6990.0 0.00018879
7010.0 0.0001904
7030.0 0.00019342
7050.0 0.00018446
7070.0 0.00017575
7090.0 0.00017627
7110.0 0.00018137
7130.0 0.00019518
7150.0 0.0002073
7170.0 0.00022874
7190.0 0.00025145
7210.0 0.00024708
7230.0 0.000254
7250.0 0.00027297
7270.0 0.00029747
7290.0 0.00035306
7310.0 0.00038311
7330.0 0.0003703
7350.0 0.00033492
7370.0 0.00029141
7390.0 0.0002827
7410.0 0.00030042
7430.0 0.00033388
7450.0 0.00036366
7470.0 0.00036032
7490.0 0.00032854
7510.0 0.00037216
7530.0 0.00036808
7550.0 0.00033084
7570.0 0.00025845
7590.0 0.00017767
7610.0 0.0001525
7630.0 0.00017327
7650.0 0.00020487
7670.0 0.00025497
7690.0 0.00028058
7710.0 0.00029239
7730.0 0.00030727
7750.0 0.00034495
7770.0 0.00035037
7790.0 0.00032183
7810.0 0.00029365
7830.0 0.00030282
7850.0 0.00029437
7870.0 0.00026989
7890.0 0.00022676
7910.0 0.00018433
7930.0 0.000176
7950.0 0.00016034
7970.0 0.00014843
7990.0 0.00014758
8010.0 1.0935e-05
8030.0 1.0792e-05
8050.0 1.0647e-05
8070.0 1.0788e-05
8090.0 1.1592e-05
8110.0 1.1395e-05
8130.0 9.397e-06
8150.0 9.1521e-06
8170.0 7.8814e-06
8190.0 7.468e-06
8210.0 9.7013e-06
8230.0 1.0802e-05
8250.0 9.7322e-06
8270.0 8.4701e-06
8290.0 8.2591e-06
8310.0 6.3572e-06
8330.0 4.2846e-06
8350.0 3.0409e-06
8370.0 1.9148e-06
8390.0 3.5021e-06
8410.0 4.0808e-06
8430.0 5.0302e-06
8450.0 5.9068e-06
8470.0 7.3431e-06
8490.0 7.2906e-06
8510.0 7.1705e-06
8530.0 7.4818e-06
8550.0 1.0098e-05
8570.0 1.1956e-05
8590.0 1.2898e-05
8610.0 1.6294e-05
8630.0 1.9628e-05
8650.0 2.0528e-05
8670.0 2.1817e-05
8690.0 2.1944e-05
8710.0 1.9872e-05
8730.0 1.8486e-05
8750.0 1.6316e-05
8770.0 1.5481e-05
8790.0 1.521e-05
8810.0 1.4576e-05
8830.0 1.1653e-05
8850.0 8.5294e-06
8870.0 6.5305e-06
8890.0 6.387e-06
8910.0 7.3213e-06
8930.0 8.3288e-06
8950.0 8.4887e-06
8970.0 8.5284e-06
8990.0 7.6049e-06
9010.0 7.964e-05
9030.0 7.2161e-05
9050.0 7.251e-05
9070.0 7.3082e-05
9090.0 7.3585e-05
9110.0 7.4205e-05
9130.0 7.4683e-05
9150.0 7.5055e-05
9170.0 7.5452e-05
9190.0 7.5875e-05
9210.0 7.6321e-05
9230.0 7.6791e-05
9250.0 7.7269e-05
9270.0 7.7765e-05
9290.0 7.8276e-05
9310.0 7.879e-05
9330.0 7.9315e-05
9350.0 7.9859e-05
9370.0 8.0409e-05
9390.0 8.0964e-05
9410.0 8.1536e-05
9430.0 8.2125e-05
9450.0 8.2711e-05
9470.0 8.331e-05
9490.0 8.3926e-05
9510.0 8.455e-05
9530.0 8.5176e-05
9550.0 8.5825e-05
9570.0 8.6484e-05
9590.0 8.7145e-05
9610.0 8.7818e-05
9630.0 8.8509e-05
9650.0 8.9206e-05
9670.0 8.9904e-05
9690.0 9.0621e-05
9710.0 9.1348e-05
9730.0 9.2078e-05
9750.0 9.2818e-05
9770.0 9.358e-05
9790.0 9.4341e-05
9810.0 9.5106e-05
9830.0 9.5887e-05
9850.0 9.6678e-05
9870.0 9.7466e-05
9890.0 9.8267e-05
9910.0 9.9082e-05
9930.0 9.9899e-05
9950.0 0.00010072
9970.0 0.00010155
9990.0 0.0001024
10010.0 8.8854e-05
10030.0 8.9584e-05
10050.0 9.0329e-05
10070.0 9.1098e-05
10090.0 9.1824e-05
10110.0 9.2568e-05
10130.0 9.3315e-05
10150.0 9.4059e-05
10170.0 9.4812e-05
10190.0 9.5578e-05
10210.0 9.6335e-05
10230.0 9.7091e-05
10250.0 9.7858e-05
10270.0 9.8624e-05
10290.0 9.9381e-05
10310.0 0.00010015
10330.0 0.00010092
10350.0 0.00010168
10370.0 0.00010244
10390.0 0.00010321
10410.0 0.00010397
10430.0 0.00010472
10450.0 0.00010548
10470.0 0.00010624
10490.0 0.00010698
10510.0 0.00010772
10530.0 0.00010847
10550.0 0.00010921
10570.0 0.00010994
10590.0 0.00011067
10610.0 0.0001114
10630.0 0.00011211
10650.0 0.00011281
10670.0 0.00011352
10690.0 0.00011422
10710.0 0.0001149
10730.0 0.00011558
10750.0 0.00011627
10770.0 0.00011693
10790.0 0.00011758
10810.0 0.00011823
10830.0 0.00011886
10850.0 0.00011946
10870.0 0.00012004
10890.0 0.00012055
10910.0 0.00012094
10930.0 0.00012117
10950.0 0.00012111
10970.0 0.0001207
10990.0 0.0001199
11010.0 0.00011855
11030.0 0.00011666
11050.0 0.00011436
11070.0 0.00011161
11090.0 0.00010831
11110.0 0.0001049
11130.0 0.00010133
11150.0 9.7496e-05
11170.0 9.3541e-05
11190.0 8.9705e-05
11210.0 8.5744e-05
11230.0 8.1682e-05
11250.0 7.7801e-05
11270.0 7.4073e-05
11290.0 7.0339e-05
11310.0 6.6802e-05
11330.0 6.3686e-05
11350.0 6.0743e-05
11370.0 5.8024e-05
11390.0 5.5671e-05
11410.0 5.3613e-05
11430.0 5.17e-05
11450.0 5.0052e-05
11470.0 4.8627e-05
11490.0 4.7301e-05
11510.0 4.6024e-05
11530.0 4.4838e-05
11550.0 4.366e-05
11570.0 4.2404e-05
11590.0 4.1103e-05
11610.0 3.9778e-05
11630.0 3.8337e-05
11650.0 3.6794e-05
11670.0 3.5273e-05
11690.0 3.373e-05
11710.0 3.2139e-05
11730.0 3.0597e-05
11750.0 2.917e-05
11770.0 2.7771e-05
11790.0 2.646e-05
11810.0 2.5305e-05
11830.0 2.4273e-05
11850.0 2.3322e-05
11870.0 2.2526e-05
11890.0 2.1865e-05
11910.0 2.1284e-05
11930.0 2.0784e-05
11950.0 2.0368e-05
11970.0 1.9997e-05
11990.0 1.9645e-05
12010.0 1.932e-05
12030.0 1.9007e-05
12050.0 1.8684e-05
12070.0 1.8347e-05
12090.0 1.8022e-05
12110.0 1.7693e-05
12130.0 1.7362e-05
12150.0 1.7058e-05
12170.0 1.6792e-05
12190.0 1.6562e-05
12210.0 1.6402e-05
12230.0 1.6325e-05
12250.0 1.6337e-05
12270.0 1.646e-05
12290.0 1.6693e-05
12310.0 1.7027e-05
12330.0 1.7494e-05
12350.0 1.8078e-05
12370.0 1.8742e-05
12390.0 1.9508e-05
12410.0 2.0405e-05
12430.0 2.1317e-05
12450.0 2.2261e-05
12470.0 2.3265e-05
12490.0 2.4273e-05
12510.0 2.5219e-05
12530.0 2.6161e-05
12550.0 2.7069e-05
12570.0 2.787e-05
12590.0 2.8574e-05
12610.0 2.9201e-05
12630.0 2.9701e-05
12650.0 3.0045e-05
12670.0 3.0272e-05
12690.0 3.0363e-05
12710.0 3.0313e-05
12730.0 3.0137e-05
12750.0 2.9824e-05
12770.0 2.9394e-05
12790.0 2.8872e-05
12810.0 2.8249e-05
12830.0 2.7528e-05
12850.0 2.6774e-05
12870.0 2.5977e-05
12890.0 2.5115e-05
12910.0 2.4238e-05
12930.0 2.3374e-05
12950.0 2.2473e-05
12970.0 2.1555e-05
12990.0 2.0687e-05
13010.0 1.9829e-05
13030.0 1.8962e-05
13050.0 1.8129e-05
13070.0 1.7349e-05
13090.0 1.6567e-05
13110.0 1.5809e-05
13130.0 1.5111e-05
13150.0 1.445e-05
13170.0 1.3802e-05
13190.0 1.3226e-05
13210.0 1.2719e-05
13230.0 1.2255e-05
13250.0 1.1856e-05
13270.0 1.1541e-05
13290.0 1.1296e-05
13310.0 1.1128e-05
13330.0 1.1051e-05
13350.0 1.106e-05
13370.0 1.1159e-05
13390.0 1.1354e-05
13410.0 1.1617e-05
13430.0 1.196e-05
13450.0 1.2382e-05
13470.0 1.2852e-05
13490.0 1.3349e-05
13510.0 1.391e-05
13530.0 1.4478e-05
13550.0 1.5022e-05
13570.0 1.5559e-05
13590.0 1.6082e-05
13610.0 1.6547e-05
13630.0 1.6953e-05
13650.0 1.7324e-05
13670.0 1.7631e-05
13690.0 1.7869e-05
13710.0 1.8054e-05
13730.0 1.8185e-05
13750.0 1.8251e-05
13770.0 1.8266e-05
13790.0 1.8232e-05
13810.0 1.8152e-05
13830.0 1.8033e-05
13850.0 1.7872e-05
13870.0 1.7669e-05
13890.0 1.7436e-05
13910.0 1.7174e-05
13930.0 1.6871e-05
13950.0 1.654e-05
13970.0 1.6202e-05
13990.0 1.5833e-05
14010.0 1.5441e-05
14030.0 1.505e-05
14050.0 1.4656e-05
14070.0 1.4241e-05
14090.0 1.3842e-05
14110.0 1.3467e-05
14130.0 1.3104e-05
14150.0 1.2763e-05
14170.0 1.2471e-05
14190.0 1.2219e-05
14210.0 1.2005e-05
14230.0 1.1847e-05
14250.0 1.1744e-05
14270.0 1.1695e-05
14290.0 1.1705e-05
14310.0 1.177e-05
14330.0 1.1887e-05
14350.0 1.206e-05
14370.0 1.2275e-05
14390.0 1.2519e-05
14410.0 1.2806e-05
14430.0 1.3121e-05
14450.0 1.3444e-05
14470.0 1.3778e-05
14490.0 1.4134e-05
14510.0 1.4473e-05
14530.0 1.4796e-05
14550.0 1.5119e-05
14570.0 1.5429e-05
14590.0 1.5711e-05
14610.0 1.5984e-05
14630.0 1.6254e-05
14650.0 1.6505e-05
14670.0 1.6748e-05
14690.0 1.7001e-05
14710.0 1.7267e-05
14730.0 1.7533e-05
14750.0 1.7828e-05
14770.0 1.8163e-05
14790.0 1.8526e-05
14810.0 1.8918e-05
14830.0 1.9384e-05
14850.0 1.989e-05
14870.0 2.0418e-05
14890.0 2.0987e-05
14910.0 2.1592e-05
14930.0 2.2174e-05
14950.0 2.2717e-05
14970.0 2.3232e-05
14990.0 2.3663e-05
15010.0 2.3993e-05
15030.0 2.4238e-05
15050.0 2.4399e-05
15070.0 2.4478e-05
15090.0 2.4506e-05
15110.0 2.4498e-05
15130.0 2.4467e-05
15150.0 2.4426e-05
15170.0 2.4377e-05
15190.0 2.4324e-05
15210.0 2.4273e-05
15230.0 2.4221e-05
15250.0 2.4168e-05
15270.0 2.4115e-05
15290.0 2.4065e-05
15310.0 2.4013e-05
15330.0 2.3961e-05
15350.0 2.3911e-05
15370.0 2.3862e-05
15390.0 2.381e-05
15410.0 2.3759e-05
15430.0 2.3711e-05
15450.0 2.3661e-05
15470.0 2.361e-05
15490.0 2.3562e-05
15510.0 2.3514e-05
15530.0 2.3464e-05
15550.0 2.3416e-05
15570.0 2.3369e-05
15590.0 2.332e-05
15610.0 2.327e-05
15630.0 2.3223e-05
15650.0 2.3176e-05
15670.0 2.3128e-05
15690.0 2.3081e-05
15710.0 2.3035e-05
15730.0 2.2987e-05
15750.0 2.294e-05
15770.0 2.2894e-05
15790.0 2.2848e-05
15810.0 2.2799e-05
15830.0 2.2753e-05
15850.0 2.2708e-05
15870.0 2.2661e-05
15890.0 2.2614e-05
15910.0 2.2569e-05
15930.0 2.2524e-05
15950.0 2.2476e-05
15970.0 2.2431e-05
15990.0 2.2386e-05
16010.0 2.2339e-05
16030.0 2.2292e-05
16050.0 2.2248e-05
16070.0 2.2203e-05
16090.0 2.2156e-05
16110.0 2.2111e-05
16130.0 2.2067e-05
16150.0 2.202e-05
16170.0 2.1973e-05
16190.0 2.1929e-05
16210.0 2.1884e-05
16230.0 2.1837e-05
16250.0 2.1792e-05
16270.0 2.1748e-05
16290.0 2.1701e-05
16310.0 2.1655e-05
16330.0 2.1611e-05
16350.0 2.1565e-05
16370.0 2.1517e-05
16390.0 2.1472e-05
16410.0 2.1428e-05
16430.0 2.1381e-05
16450.0 2.1335e-05
16470.0 2.1291e-05
16490.0 2.1244e-05
16510.0 2.1197e-05
16530.0 2.1152e-05
16550.0 2.1106e-05
16570.0 2.1059e-05
16590.0 2.1012e-05
16610.0 2.0967e-05
16630.0 2.092e-05
16650.0 2.0873e-05
16670.0 2.0827e-05
16690.0 2.0782e-05
16710.0 2.0733e-05
16730.0 2.0686e-05
16750.0 2.064e-05
16770.0 2.0592e-05
16790.0 2.0544e-05
16810.0 2.0498e-05
16830.0 2.0451e-05
16850.0 2.0403e-05
16870.0 2.0355e-05
16890.0 2.0309e-05
16910.0 2.026e-05
16930.0 2.0211e-05
16950.0 2.0164e-05
16970.0 2.0116e-05
16990.0 2.0067e-05
17010.0 2.0018e-05
17030.0 1.9972e-05
17050.0 1.9922e-05
17070.0 1.9872e-05
17090.0 1.9825e-05
17110.0 1.9776e-05
17130.0 1.9725e-05
17150.0 1.9676e-05
17170.0 1.9628e-05
17190.0 1.9578e-05
17210.0 1.9527e-05
17230.0 1.9479e-05
17250.0 1.9429e-05
17270.0 1.9378e-05
17290.0 1.9328e-05
17310.0 1.9279e-05
17330.0 1.9227e-05
17350.0 1.9176e-05
17370.0 1.9127e-05
17390.0 1.9076e-05
17410.0 1.9024e-05
17430.0 1.8974e-05
17450.0 1.8924e-05
17470.0 1.8871e-05
17490.0 1.8819e-05
17510.0 1.8768e-05
17530.0 1.8717e-05
17550.0 1.8664e-05
17570.0 1.8612e-05
17590.0 1.8562e-05
17610.0 1.8508e-05
17630.0 1.8456e-05
17650.0 1.8405e-05
17670.0 1.8352e-05
17690.0 1.8297e-05
17710.0 1.8245e-05
17730.0 1.8193e-05
17750.0 1.814e-05
17770.0 1.8086e-05
17790.0 1.8035e-05
17810.0 1.7981e-05
17830.0 1.7926e-05
17850.0 1.7873e-05
17870.0 1.782e-05
17890.0 1.7765e-05
17910.0 1.7711e-05
17930.0 1.7659e-05
17950.0 1.7604e-05
17970.0 1.7549e-05
17990.0 1.7496e-05
18010.0 1.7443e-05
18030.0 1.7386e-05
18050.0 1.7331e-05
18070.0 1.7278e-05
18090.0 1.7223e-05
18110.0 1.7167e-05
18130.0 1.7113e-05
18150.0 1.7059e-05
18170.0 1.7003e-05
18190.0 1.6948e-05
18210.0 1.6894e-05
18230.0 1.6837e-05
18250.0 1.678e-05
18270.0 1.6726e-05
18290.0 1.6671e-05
18310.0 1.6614e-05
18330.0 1.6559e-05
18350.0 1.6505e-05
18370.0 1.6448e-05
18390.0 1.6391e-05
18410.0 1.6336e-05
18430.0 1.6281e-05
18450.0 1.6223e-05
18470.0 1.6167e-05
18490.0 1.6112e-05
18510.0 1.6055e-05
18530.0 1.5998e-05
18550.0 1.5944e-05
18570.0 1.5887e-05
18590.0 1.5829e-05
18610.0 1.5773e-05
18630.0 1.5718e-05
18650.0 1.566e-05
18670.0 1.5602e-05
18690.0 1.5547e-05
18710.0 1.5491e-05
18730.0 1.5433e-05
18750.0 1.5377e-05
18770.0 1.5322e-05
18790.0 1.5263e-05
18810.0 1.5205e-05
18830.0 1.515e-05
18850.0 1.5093e-05
18870.0 1.5035e-05
18890.0 1.4979e-05
18910.0 1.4923e-05
18930.0 1.4865e-05
18950.0 1.4808e-05
18970.0 1.4752e-05
18990.0 1.4695e-05
19010.0 1.4635e-05
19030.0 1.458e-05
19050.0 1.4523e-05
19070.0 1.4465e-05
19090.0 1.4408e-05
19110.0 1.4353e-05
19130.0 1.4295e-05
19150.0 1.4237e-05
19170.0 1.4181e-05
19190.0 1.4124e-05
19210.0 1.4066e-05
19230.0 1.4008e-05
19250.0 1.3953e-05
19270.0 1.3895e-05
19290.0 1.3837e-05
19310.0 1.3782e-05
19330.0 1.3725e-05
19350.0 1.3666e-05
19370.0 1.3609e-05
19390.0 1.3553e-05
19410.0 1.3496e-05
19430.0 1.3438e-05
19450.0 1.3382e-05
19470.0 1.3326e-05
19490.0 1.3268e-05
19510.0 1.3211e-05
19530.0 1.3155e-05
19550.0 1.3097e-05
19570.0 1.3039e-05
19590.0 1.2984e-05
19610.0 1.2927e-05
19630.0 1.2869e-05
19650.0 1.2813e-05
19670.0 1.2758e-05
19690.0 1.27e-05
19710.0 1.2643e-05
19730.0 1.2587e-05
19750.0 1.2531e-05
19770.0 1.2472e-05
19790.0 1.2416e-05
19810.0 1.2361e-05
19830.0 1.2303e-05
19850.0 1.2245e-05
19870.0 1.2189e-05
19890.0 1.2128e-05
19910.0 1.2061e-05
19930.0 1.1989e-05
19950.0 1.1908e-05
19970.0 1.1807e-05
19990.0 1.1685e-05
20010.0 1.0396e-05
20030.0 1.0246e-05
20050.0 1.007e-05
20070.0 9.8791e-06
20090.0 9.6738e-06
20110.0 9.4417e-06
20130.0 9.2066e-06
20150.0 8.9737e-06
20170.0 8.7322e-06
20190.0 8.4872e-06
20210.0 8.2558e-06
20230.0 8.0302e-06
20250.0 7.804e-06
20270.0 7.5941e-06
20290.0 7.4025e-06
20310.0 7.2204e-06
20330.0 7.0502e-06
20350.0 6.909e-06
20370.0 6.7836e-06
20390.0 6.6736e-06
20410.0 6.5848e-06
20430.0 6.5164e-06
20450.0 6.4621e-06
20470.0 6.4258e-06
20490.0 6.4063e-06
20510.0 6.4006e-06
20530.0 6.4086e-06
20550.0 6.4283e-06
20570.0 6.4571e-06
20590.0 6.4961e-06
20610.0 6.5433e-06
20630.0 6.5953e-06
20650.0 6.6534e-06
20670.0 6.7199e-06
20690.0 6.7877e-06
20710.0 6.8577e-06
20730.0 6.9333e-06
20750.0 7.0122e-06
20770.0 7.0898e-06
20790.0 7.1713e-06
20810.0 7.2575e-06
20830.0 7.3432e-06
20850.0 7.4294e-06
20870.0 7.5216e-06
20890.0 7.6157e-06
20910.0 7.7064e-06
20930.0 7.8006e-06
20950.0 7.8981e-06
20970.0 7.9932e-06
20990.0 8.0871e-06
21010.0 8.1857e-06
21030.0 8.2822e-06
21050.0 8.3742e-06
21070.0 8.4661e-06
21090.0 8.5583e-06
21110.0 8.6424e-06
21130.0 8.7213e-06
21150.0 8.7979e-06
21170.0 8.8672e-06
21190.0 8.9268e-06
21210.0 8.9804e-06
21230.0 9.025e-06
21250.0 9.0568e-06
21270.0 9.0769e-06
21290.0 9.0845e-06
21310.0 9.0772e-06
21330.0 9.0558e-06
21350.0 9.0182e-06
21370.0 8.963e-06
21390.0 8.8928e-06
21410.0 8.8069e-06
21430.0 8.698e-06
21450.0 8.5759e-06
21470.0 8.4428e-06
21490.0 8.2923e-06
21510.0 8.1272e-06
21530.0 7.9595e-06
21550.0 7.7838e-06
21570.0 7.5964e-06
21590.0 7.4121e-06
21610.0 7.2341e-06
21630.0 7.0558e-06
21650.0 6.8816e-06
21670.0 6.7306e-06
21690.0 6.5914e-06
21710.0 6.466e-06
21730.0 6.3633e-06
21750.0 6.2841e-06
21770.0 6.2237e-06
21790.0 6.189e-06
21810.0 6.1794e-06
21830.0 6.1931e-06
21850.0 6.2318e-06
21870.0 6.2922e-06
21890.0 6.3702e-06
21910.0 6.4702e-06
21930.0 6.5875e-06
21950.0 6.7146e-06
21970.0 6.8554e-06
21990.0 7.0134e-06
22010.0 7.1714e-06
22030.0 7.3318e-06
22050.0 7.5003e-06
22070.0 7.6696e-06
22090.0 7.83e-06
22110.0 7.9917e-06
22130.0 8.1531e-06
22150.0 8.3039e-06
22170.0 8.446e-06
22190.0 8.5869e-06
22210.0 8.718e-06
22230.0 8.8333e-06
22250.0 8.9419e-06
22270.0 9.0419e-06
22290.0 9.1275e-06
22310.0 9.2008e-06
22330.0 9.2654e-06
22350.0 9.3154e-06
22370.0 9.3506e-06
22390.0 9.3726e-06
22410.0 9.3796e-06
22430.0 9.3707e-06
22450.0 9.3465e-06
22470.0 9.3048e-06
22490.0 9.2462e-06
22510.0 9.1732e-06
22530.0 9.0798e-06
22550.0 8.9661e-06
22570.0 8.84e-06
22590.0 8.6978e-06
22610.0 8.5343e-06
