#lamb flux
1010.0 6.9339e-05
1030.0 7.2627e-05
1050.0 8.0764e-05
1070.0 8.9817e-05
1090.0 9.9267e-05
1110.0 0.00010871
1130.0 0.00011795
1150.0 0.00012746
1170.0 0.00013704
1190.0 0.00014567
1210.0 0.00015411
1230.0 0.00016255
1250.0 0.0001705
1270.0 0.00017774
1290.0 0.00018516
1310.0 0.00019218
1330.0 0.00019847
1350.0 0.0002047
1370.0 0.00021118
1390.0 0.00021752
1410.0 0.0002239
1430.0 0.00023119
1450.0 0.00023918
1470.0 0.00024777
1490.0 0.00025757
1510.0 0.00026919
1530.0 0.00028179
1550.0 0.00029592
1570.0 0.00031216
1590.0 0.00033035
1610.0 0.0003502
1630.0 0.00037273
1650.0 0.00039776
1670.0 0.00042468
1690.0 0.00045366
1710.0 0.00048523
1730.0 0.00051893
1750.0 0.00055366
1770.0 0.00059031
1790.0 0.00062852
1810.0 0.00066713
1830.0 0.00070587
1850.0 0.00074549
1870.0 0.00078411
1890.0 0.000821
1910.0 0.00085648
1930.0 0.00089013
1950.0 0.00092017
1970.0 0.00094671
1990.0 0.00097027
2010.0 0.00098956
2030.0 0.001004
2050.0 0.0010147
2070.0 0.0010216
2090.0 0.0010233
2110.0 0.0010209
2130.0 0.0010154
2150.0 0.0010061
2170.0 0.00099334
2190.0 0.00097867
2210.0 0.0009621
2230.0 0.00094344
2250.0 0.00092372
2270.0 0.00090404
2290.0 0.00088378
2310.0 0.0008633
2330.0 0.00084384
2350.0 0.00082542
2370.0 0.00080782
2390.0 0.00079194
2410.0 0.00077852
2430.0 0.0007671
2450.0 0.00075812
2470.0 0.00075264
2490.0 0.00075112
2510.0 0.00075301
2530.0 0.00076071
2550.0 0.00077735
2570.0 0.00080538
2590.0 0.00084848
2610.0 0.00091797
2630.0 0.0010165
2650.0 0.0011401
2670.0 0.0012926
2690.0 0.0014718
2710.0 0.0016578
2730.0 0.0018414
2750.0 0.0020281
2770.0 0.0022056
2790.0 0.0023714
2810.0 0.0025371
2830.0 0.0027134
2850.0 0.0028912
2870.0 0.00308
2890.0 0.0032883
2910.0 0.0035115
2930.0 0.0037427
2950.0 0.0039943
2970.0 0.0042648
2990.0 0.0045443
3010.0 0.0050427
3030.0 0.0053697
3050.0 0.0057097
3070.0 0.0060456
3090.0 0.0063855
3110.0 0.0067106
3130.0 0.0069944
3150.0 0.0072236
3170.0 0.0073732
3190.0 0.007491
3210.0 0.0077294
3230.0 0.0080609
3250.0 0.0081539
3270.0 0.0079463
3290.0 0.0076659
3310.0 0.0075404
3330.0 0.0075235
3350.0 0.0075755
3370.0 0.0076622
3390.0 0.007808
3410.0 0.007911
3430.0 0.0078267
3450.0 0.0078409
3470.0 0.0079118
3490.0 0.0087457
3510.0 0.011141
3530.0 0.013778
3550.0 0.015687
3570.0 0.017189
3590.0 0.018035
3610.0 0.017871
3630.0 0.017461
3650.0 0.018622
3670.0 0.02164
3690.0 0.024601
3710.0 0.02682
3730.0 0.028797
3750.0 0.030666
3770.0 0.030216
3790.0 0.028111
3810.0 0.026098
3830.0 0.024327
3850.0 0.02392
3870.0 0.025701
3890.0 0.028067
3910.0 0.029901
3930.0 0.03182
3950.0 0.035511
3970.0 0.038471
3990.0 0.036899
4010.0 0.032624
4030.0 0.02851
4050.0 0.026903
4070.0 0.026599
4090.0 0.026078
4110.0 0.025909
4130.0 0.025672
4150.0 0.025795
4170.0 0.02738
4190.0 0.029704
4210.0 0.029622
4230.0 0.028651
4250.0 0.028407
4270.0 0.029055
4290.0 0.030773
4310.0 0.032398
4330.0 0.031109
4350.0 0.027418
4370.0 0.024249
4390.0 0.021597
4410.0 0.019217
4430.0 0.01877
4450.0 0.019871
4470.0 0.020985
4490.0 0.02249
4510.0 0.025744
4530.0 0.032825
4550.0 0.043006
4570.0 0.049626
4590.0 0.053586
4610.0 0.060191
4630.0 0.065443
4650.0 0.062214
4670.0 0.0523
4690.0 0.043071
4710.0 0.038025
4730.0 0.035753
4750.0 0.032958
4770.0 0.030656
4790.0 0.032069
4810.0 0.034984
4830.0 0.035726
4850.0 0.034005
4870.0 0.034061
4890.0 0.036623
4910.0 0.038945
4930.0 0.039791
4950.0 0.039124
4970.0 0.036852
4990.0 0.033238
5010.0 0.02985
5030.0 0.027523
5050.0 0.02617
5070.0 0.02516
5090.0 0.024168
5110.0 0.023803
5130.0 0.023791
5150.0 0.024431
5170.0 0.026751
5190.0 0.030133
5210.0 0.034142
5230.0 0.037212
5250.0 0.039284
5270.0 0.041806
5290.0 0.044788
5310.0 0.046315
5330.0 0.045422
5350.0 0.04339
5370.0 0.043142
5390.0 0.045607
5410.0 0.049564
5430.0 0.052838
5450.0 0.05465
5470.0 0.054986
5490.0 0.053967
5510.0 0.052823
5530.0 0.052156
5550.0 0.051805
5570.0 0.051158
5590.0 0.050026
5610.0 0.048321
5630.0 0.045466
5650.0 0.041744
5670.0 0.038938
5690.0 0.037726
5710.0 0.037233
5730.0 0.036549
5750.0 0.035845
5770.0 0.035439
5790.0 0.03556
5810.0 0.035504
5830.0 0.035586
5850.0 0.035729
5870.0 0.034992
5890.0 0.033795
5910.0 0.032162
5930.0 0.029263
5950.0 0.026309
5970.0 0.024821
5990.0 0.024762
6010.0 0.02484
6030.0 0.024029
6050.0 0.023264
6070.0 0.024156
6090.0 0.026012
6110.0 0.027092
6130.0 0.026669
6150.0 0.025574
6170.0 0.024823
6190.0 0.024191
6210.0 0.023022
6230.0 0.021284
6250.0 0.020021
6270.0 0.019762
6290.0 0.019783
6310.0 0.020595
6330.0 0.022468
6350.0 0.024724
6370.0 0.026176
6390.0 0.026965
6410.0 0.027797
6430.0 0.02845
6450.0 0.029048
6470.0 0.029744
6490.0 0.030457
6510.0 0.03103
6530.0 0.031236
6550.0 0.031228
6570.0 0.030532
6590.0 0.029085
6610.0 0.027905
6630.0 0.027139
6650.0 0.026143
6670.0 0.02482
6690.0 0.023699
6710.0 0.023107
6730.0 0.022605
6750.0 0.022162
6770.0 0.02197
6790.0 0.021784
6810.0 0.021293
6830.0 0.020874
6850.0 0.021235
6870.0 0.021553
6890.0 0.021241
6910.0 0.020923
6930.0 0.020674
6950.0 0.020204
6970.0 0.019487
6990.0 0.018814
7010.0 0.018397
7030.0 0.018015
7050.0 0.017194
7070.0 0.016139
7090.0 0.015867
7110.0 0.016465
7130.0 0.017407
7150.0 0.018266
7170.0 0.018932
7190.0 0.019097
7210.0 0.018549
7230.0 0.018186
7250.0 0.018416
7270.0 0.01833
7290.0 0.0181
7310.0 0.018265
7330.0 0.018884
7350.0 0.01974
7370.0 0.020278
7390.0 0.020479
7410.0 0.020476
7430.0 0.020072
7450.0 0.019421
7470.0 0.018829
7490.0 0.018135
7510.0 0.017529
7530.0 0.017343
7550.0 0.017323
7570.0 0.017333
7590.0 0.0175
7610.0 0.017501
7630.0 0.01749
7650.0 0.017981
7670.0 0.018716
7690.0 0.019438
7710.0 0.020029
7730.0 0.020571
7750.0 0.02116
7770.0 0.021727
7790.0 0.022207
7810.0 0.022393
7830.0 0.022033
7850.0 0.021304
7870.0 0.020383
7890.0 0.01948
7910.0 0.019053
7930.0 0.018764
7950.0 0.018369
7970.0 0.017976
7990.0 0.017854
8010.0 0.016823
8030.0 0.016697
8050.0 0.016539
8070.0 0.016294
8090.0 0.016061
8110.0 0.016012
8130.0 0.016056
8150.0 0.015968
8170.0 0.01581
8190.0 0.015353
8210.0 0.014483
8230.0 0.013635
8250.0 0.013204
8270.0 0.012713
8290.0 0.011927
8310.0 0.011242
8330.0 0.010831
8350.0 0.010515
8370.0 0.01064
8390.0 0.011271
8410.0 0.012009
8430.0 0.012822
8450.0 0.013787
8470.0 0.014535
8490.0 0.015298
8510.0 0.015999
8530.0 0.016681
8550.0 0.017249
8570.0 0.017662
8590.0 0.017994
8610.0 0.018415
8630.0 0.018539
8650.0 0.018192
8670.0 0.018216
8690.0 0.01873
8710.0 0.019368
8730.0 0.019512
8750.0 0.019149
8770.0 0.019079
8790.0 0.019033
8810.0 0.018584
8830.0 0.017264
8850.0 0.015642
8870.0 0.014472
8890.0 0.013983
8910.0 0.01338
8930.0 0.012445
8950.0 0.011707
8970.0 0.011504
8990.0 0.011633
9010.0 0.011631
9030.0 0.011521
9050.0 0.011433
9070.0 0.011369
9090.0 0.011309
9110.0 0.011249
9130.0 0.01119
9150.0 0.011132
9170.0 0.011074
9190.0 0.011017
9210.0 0.010963
9230.0 0.010905
9250.0 0.010848
9270.0 0.010792
9290.0 0.010736
9310.0 0.010681
9330.0 0.010627
9350.0 0.010573
9370.0 0.01052
9390.0 0.010467
9410.0 0.010415
9430.0 0.010361
9450.0 0.0103
9470.0 0.010242
9490.0 0.0102
9510.0 0.010153
9530.0 0.010107
9550.0 0.010058
9570.0 0.01001
9590.0 0.0099616
9610.0 0.0099136
9630.0 0.0098651
9650.0 0.0098171
9670.0 0.0097705
9690.0 0.0097231
9710.0 0.0096759
9730.0 0.0096298
9750.0 0.0095837
9770.0 0.0095367
9790.0 0.0094908
9810.0 0.0094456
9830.0 0.0093995
9850.0 0.0093517
9870.0 0.0093076
9890.0 0.0092634
9910.0 0.0092184
9930.0 0.0091738
9950.0 0.0091252
9970.0 0.0090814
9990.0 0.0090367
10010.0 0.0089901
10030.0 0.0089447
10050.0 0.0089018
10070.0 0.0088589
10090.0 0.008816
10110.0 0.008768
10130.0 0.0087032
10150.0 0.0086619
10170.0 0.0086242
10190.0 0.0085818
10210.0 0.00854
10230.0 0.0084977
10250.0 0.0084516
10270.0 0.0084053
10290.0 0.0083609
10310.0 0.0083138
10330.0 0.0082642
10350.0 0.0082175
10370.0 0.0081707
10390.0 0.0081211
10410.0 0.0080717
10430.0 0.0080249
10450.0 0.0079753
10470.0 0.007924
10490.0 0.0078746
10510.0 0.0078251
10530.0 0.0077712
10550.0 0.0077186
10570.0 0.0076682
10590.0 0.007615
10610.0 0.0075602
10630.0 0.0075077
10650.0 0.0074544
10670.0 0.0073972
10690.0 0.0073413
10710.0 0.0072865
10730.0 0.0072289
10750.0 0.0071685
10770.0 0.0071122
10790.0 0.0070543
10810.0 0.0069934
10830.0 0.0069333
10850.0 0.0068751
10870.0 0.0068118
10890.0 0.0067481
10910.0 0.0066869
10930.0 0.0066246
10950.0 0.0065594
10970.0 0.006496
10990.0 0.0064355
11010.0 0.0061755
11030.0 0.0061078
11050.0 0.0060448
11070.0 0.0059831
11090.0 0.0059203
11110.0 0.0058635
11130.0 0.0058102
11150.0 0.0057579
11170.0 0.0057085
11190.0 0.0056647
11210.0 0.0056228
11230.0 0.0055832
11250.0 0.0055484
11270.0 0.0055173
11290.0 0.005488
11310.0 0.0054617
11330.0 0.0054395
11350.0 0.0054186
11370.0 0.0053989
11390.0 0.005381
11410.0 0.0053638
11430.0 0.0053455
11450.0 0.0053268
11470.0 0.0053076
11490.0 0.0052863
11510.0 0.0052622
11530.0 0.0052366
11550.0 0.0052086
11570.0 0.0051765
11590.0 0.0051415
11610.0 0.0051046
11630.0 0.0050629
11650.0 0.0050165
11670.0 0.0049686
11690.0 0.0049171
11710.0 0.00486
11730.0 0.0047996
11750.0 0.0047377
11770.0 0.0046697
11790.0 0.0045968
11810.0 0.0045226
11830.0 0.0044452
11850.0 0.0043607
11870.0 0.004276
11890.0 0.0041922
11910.0 0.0041048
11930.0 0.004016
11950.0 0.0039309
11970.0 0.0038463
11990.0 0.0037602
12010.0 0.0036788
12030.0 0.003602
12050.0 0.0035263
12070.0 0.003453
12090.0 0.0033876
12110.0 0.0033253
12130.0 0.0032655
12150.0 0.0032114
12170.0 0.0031629
12190.0 0.0031166
12210.0 0.0030757
12230.0 0.0030411
12250.0 0.003011
12270.0 0.0029855
12290.0 0.0029656
12310.0 0.0029509
12330.0 0.0029402
12350.0 0.002934
12370.0 0.0029314
12390.0 0.0029321
12410.0 0.002936
12430.0 0.0029417
12450.0 0.0029489
12470.0 0.0029577
12490.0 0.0029674
12510.0 0.0029768
12530.0 0.0029868
12550.0 0.0029969
12570.0 0.0030059
12590.0 0.0030137
12610.0 0.0030208
12630.0 0.0030259
12650.0 0.0030282
12670.0 0.0030281
12690.0 0.0030251
12710.0 0.0030185
12730.0 0.0030085
12750.0 0.0029943
12770.0 0.0029764
12790.0 0.0029552
12810.0 0.0029302
12830.0 0.0029016
12850.0 0.0028714
12870.0 0.0028395
12890.0 0.0028052
12910.0 0.0027704
12930.0 0.0027363
12950.0 0.0027014
12970.0 0.0026665
12990.0 0.0026339
13010.0 0.0026025
13030.0 0.0025716
13050.0 0.0025425
13070.0 0.0025156
13090.0 0.0024892
13110.0 0.0024639
13130.0 0.0024405
13150.0 0.0024183
13170.0 0.0023963
13190.0 0.0023761
13210.0 0.0023574
13230.0 0.0023391
13250.0 0.0023218
13270.0 0.0023058
13290.0 0.0022905
13310.0 0.0022754
13330.0 0.0022611
13350.0 0.0022474
13370.0 0.0022335
13390.0 0.0022194
13410.0 0.0022057
13430.0 0.0021914
13450.0 0.0021761
13470.0 0.0021604
13490.0 0.0021443
13510.0 0.0021264
13530.0 0.0021076
13550.0 0.0020886
13570.0 0.0020683
13590.0 0.0020468
13610.0 0.002025
13630.0 0.0020033
13650.0 0.0019802
13670.0 0.0019569
13690.0 0.0019342
13710.0 0.0019112
13730.0 0.0018871
13750.0 0.0018645
13770.0 0.0018422
13790.0 0.0018195
13810.0 0.0017973
13830.0 0.0017764
13850.0 0.0017552
13870.0 0.0017343
13890.0 0.0017146
13910.0 0.0016959
13930.0 0.0016773
13950.0 0.0016597
13970.0 0.001644
13990.0 0.0016288
14010.0 0.0016145
14030.0 0.0016017
14050.0 0.0015899
14070.0 0.0015785
14090.0 0.0015682
14110.0 0.001559
14130.0 0.0015502
14150.0 0.0015418
14170.0 0.0015342
14190.0 0.001527
14210.0 0.0015199
14230.0 0.001513
14250.0 0.0015065
14270.0 0.0014998
14290.0 0.0014931
14310.0 0.0014867
14330.0 0.0014803
14350.0 0.0014736
14370.0 0.001467
14390.0 0.0014606
14410.0 0.0014539
14430.0 0.0014472
14450.0 0.0014408
14470.0 0.0014345
14490.0 0.0014279
14510.0 0.0014216
14530.0 0.0014156
14550.0 0.0014094
14570.0 0.001403
14590.0 0.0013969
14610.0 0.0013904
14630.0 0.0013834
14650.0 0.0013765
14670.0 0.0013696
14690.0 0.0013625
14710.0 0.0013557
14730.0 0.0013499
14750.0 0.0013451
14770.0 0.0013417
14790.0 0.0013405
14810.0 0.0013417
14830.0 0.0013459
14850.0 0.0013536
14870.0 0.0013645
14890.0 0.0013787
14910.0 0.0013964
14930.0 0.0014157
14950.0 0.0014356
14970.0 0.0014561
14990.0 0.0014749
15010.0 0.0014908
15030.0 0.0015041
15050.0 0.0015146
15070.0 0.001522
15090.0 0.0015274
15110.0 0.0015315
15130.0 0.0015347
15150.0 0.0015375
15170.0 0.00154
15190.0 0.0015425
15210.0 0.001545
15230.0 0.0015475
15250.0 0.00155
15270.0 0.0015527
15290.0 0.0015554
15310.0 0.0015581
15330.0 0.0015609
15350.0 0.0015637
15370.0 0.0015666
15390.0 0.0015696
15410.0 0.0015726
15430.0 0.0015757
15450.0 0.0015788
15470.0 0.0015819
15490.0 0.0015852
15510.0 0.0015884
15530.0 0.0015918
15550.0 0.0015951
15570.0 0.0015985
15590.0 0.001602
15610.0 0.0016055
15630.0 0.0016091
15650.0 0.0016127
15670.0 0.0016163
15690.0 0.00162
15710.0 0.0016237
15730.0 0.0016275
15750.0 0.0016313
15770.0 0.0016351
15790.0 0.001639
15810.0 0.0016429
15830.0 0.0016469
15850.0 0.0016509
15870.0 0.0016549
15890.0 0.001659
15910.0 0.0016631
15930.0 0.0016672
15950.0 0.0016713
15970.0 0.0016755
15990.0 0.0016797
16010.0 0.001684
16030.0 0.0016882
16050.0 0.0016925
16070.0 0.0016968
16090.0 0.0017011
16110.0 0.0017055
16130.0 0.0017099
16150.0 0.0017142
16170.0 0.0017186
16190.0 0.001723
16210.0 0.0017275
16230.0 0.0017319
16250.0 0.0017363
16270.0 0.0017408
16290.0 0.0017452
16310.0 0.0017497
16330.0 0.0017542
16350.0 0.0017587
16370.0 0.0017631
16390.0 0.0017676
16410.0 0.0017721
16430.0 0.0017766
16450.0 0.001781
16470.0 0.0017855
16490.0 0.0017899
16510.0 0.0017944
16530.0 0.0017988
16550.0 0.0018032
16570.0 0.0018076
16590.0 0.001812
16610.0 0.0018164
16630.0 0.0018208
16650.0 0.0018251
16670.0 0.0018294
16690.0 0.0018337
16710.0 0.0018379
16730.0 0.0018422
16750.0 0.0018464
16770.0 0.0018506
16790.0 0.0018547
16810.0 0.0018588
16830.0 0.0018629
16850.0 0.0018669
16870.0 0.0018709
16890.0 0.0018749
16910.0 0.0018788
16930.0 0.0018827
16950.0 0.0018865
16970.0 0.0018903
16990.0 0.001894
17010.0 0.0018977
17030.0 0.0019013
17050.0 0.0019049
17070.0 0.0019084
17090.0 0.0019119
17110.0 0.0019153
17130.0 0.0019186
17150.0 0.0019219
17170.0 0.0019251
17190.0 0.0019283
17210.0 0.0019313
17230.0 0.0019344
17250.0 0.0019373
17270.0 0.0019402
17290.0 0.001943
17310.0 0.0019457
17330.0 0.0019484
17350.0 0.001951
17370.0 0.0019535
17390.0 0.0019559
17410.0 0.0019583
17430.0 0.0019605
17450.0 0.0019627
17470.0 0.0019648
17490.0 0.0019668
17510.0 0.0019688
17530.0 0.0019706
17550.0 0.0019724
17570.0 0.001974
17590.0 0.0019756
17610.0 0.0019771
17630.0 0.0019785
17650.0 0.0019798
17670.0 0.001981
17690.0 0.001982
17710.0 0.0019831
17730.0 0.001984
17750.0 0.0019848
17770.0 0.0019855
17790.0 0.0019861
17810.0 0.0019866
17830.0 0.001987
17850.0 0.0019873
17870.0 0.0019875
17890.0 0.0019876
17910.0 0.0019876
17930.0 0.0019875
17950.0 0.0019872
17970.0 0.0019869
17990.0 0.0019865
18010.0 0.001986
18030.0 0.0019853
18050.0 0.0019845
18070.0 0.0019837
18090.0 0.0019827
18110.0 0.0019816
18130.0 0.0019804
18150.0 0.0019792
18170.0 0.0019777
18190.0 0.0019762
18210.0 0.0019746
18230.0 0.0019729
18250.0 0.001971
18270.0 0.0019691
18290.0 0.001967
18310.0 0.0019648
18330.0 0.0019626
18350.0 0.0019602
18370.0 0.0019577
18390.0 0.0019551
18410.0 0.0019524
18430.0 0.0019495
18450.0 0.0019466
18470.0 0.0019436
18490.0 0.0019404
18510.0 0.0019372
18530.0 0.0019338
18550.0 0.0019304
18570.0 0.0019268
18590.0 0.0019232
18610.0 0.0019194
18630.0 0.0019155
18650.0 0.0019115
18670.0 0.0019075
18690.0 0.0019033
18710.0 0.001899
18730.0 0.0018946
18750.0 0.0018902
18770.0 0.0018856
18790.0 0.0018809
18810.0 0.0018762
18830.0 0.0018713
18850.0 0.0018664
18870.0 0.0018613
18890.0 0.0018562
18910.0 0.0018509
18930.0 0.0018456
18950.0 0.0018402
18970.0 0.0018347
18990.0 0.0018291
19010.0 0.0018235
19030.0 0.0018177
19050.0 0.0018119
19070.0 0.0018059
19090.0 0.0017999
19110.0 0.0017939
19130.0 0.0017877
19150.0 0.0017815
19170.0 0.0017752
19190.0 0.0017688
19210.0 0.0017623
19230.0 0.0017558
19250.0 0.0017492
19270.0 0.0017425
19290.0 0.0017357
19310.0 0.0017289
19330.0 0.0017221
19350.0 0.0017151
19370.0 0.0017081
19390.0 0.001701
19410.0 0.0016939
19430.0 0.0016867
19450.0 0.0016795
19470.0 0.0016722
19490.0 0.0016648
19510.0 0.0016574
19530.0 0.0016499
19550.0 0.0016424
19570.0 0.0016349
19590.0 0.0016272
19610.0 0.0016196
19630.0 0.0016119
19650.0 0.0016041
19670.0 0.0015964
19690.0 0.0015885
19710.0 0.0015806
19730.0 0.0015727
19750.0 0.0015648
19770.0 0.0015568
19790.0 0.0015488
19810.0 0.0015407
19830.0 0.0015326
19850.0 0.0015244
19870.0 0.0015161
19890.0 0.0015075
19910.0 0.0014983
19930.0 0.0014884
19950.0 0.0014774
19970.0 0.0014647
19990.0 0.0014499
20010.0 0.0014334
20030.0 0.0014144
20050.0 0.0013931
20070.0 0.0013705
20090.0 0.0013469
20110.0 0.0013215
20130.0 0.0012962
20150.0 0.0012714
20170.0 0.0012464
20190.0 0.0012214
20210.0 0.0011976
20230.0 0.0011744
20250.0 0.001151
20270.0 0.0011287
20290.0 0.0011076
20310.0 0.0010868
20330.0 0.0010664
20350.0 0.0010478
20370.0 0.0010299
20390.0 0.0010127
20410.0 0.00099663
20430.0 0.00098182
20450.0 0.00096752
20470.0 0.00095425
20490.0 0.00094217
20510.0 0.00093094
20530.0 0.00092044
20550.0 0.00091089
20570.0 0.00090221
20590.0 0.00089411
20610.0 0.00088665
20630.0 0.0008798
20650.0 0.00087341
20670.0 0.00086741
20690.0 0.00086175
20710.0 0.00085631
20730.0 0.00085103
20750.0 0.00084583
20770.0 0.0008406
20790.0 0.0008353
20810.0 0.00082988
20830.0 0.00082426
20850.0 0.0008184
20870.0 0.00081225
20890.0 0.00080575
20910.0 0.00079898
20930.0 0.00079184
20950.0 0.0007843
20970.0 0.00077648
20990.0 0.00076839
21010.0 0.00075984
21030.0 0.00075104
21050.0 0.00074209
21070.0 0.00073286
21090.0 0.00072328
21110.0 0.00071376
21130.0 0.00070417
21150.0 0.00069433
21170.0 0.00068449
21190.0 0.00067482
21210.0 0.00066498
21230.0 0.00065508
21250.0 0.00064546
21270.0 0.00063595
21290.0 0.0006264
21310.0 0.00061703
21330.0 0.00060804
21350.0 0.00059907
21370.0 0.00059025
21390.0 0.0005818
21410.0 0.00057361
21430.0 0.00056546
21450.0 0.00055773
21470.0 0.00055039
21490.0 0.00054325
21510.0 0.00053639
21530.0 0.00052994
21550.0 0.00052377
21570.0 0.00051782
21590.0 0.00051221
21610.0 0.00050689
21630.0 0.00050177
21650.0 0.00049686
21670.0 0.00049221
21690.0 0.00048771
21710.0 0.00048333
21730.0 0.00047909
21750.0 0.00047495
21770.0 0.00047086
21790.0 0.00046683
21810.0 0.00046284
21830.0 0.00045886
21850.0 0.00045488
21870.0 0.0004509
21890.0 0.00044692
21910.0 0.00044291
21930.0 0.00043887
21950.0 0.00043482
21970.0 0.00043074
21990.0 0.00042657
22010.0 0.0004224
22030.0 0.00041819
22050.0 0.0004139
22070.0 0.00040954
22090.0 0.00040518
22110.0 0.00040072
22130.0 0.00039615
22150.0 0.00039154
22170.0 0.00038689
22190.0 0.00038207
22210.0 0.00037718
22230.0 0.00037231
22250.0 0.00036731
22270.0 0.00036219
22290.0 0.00035709
22310.0 0.00035195
22330.0 0.00034664
22350.0 0.00034132
22370.0 0.00033604
22390.0 0.00033067
22410.0 0.00032519
22430.0 0.00031984
22450.0 0.0003145
22470.0 0.00030906
22490.0 0.00030368
22510.0 0.00029843
22530.0 0.00029309
22550.0 0.00028776
22570.0 0.00028263
22590.0 0.00027758
22610.0 0.00027252
22630.0 0.00026762
22650.0 0.00026296
22670.0 0.00025833
22690.0 0.00025383
22710.0 0.00024957
22730.0 0.00024548
22750.0 0.00024143
22770.0 0.00023766
22790.0 0.00023411
22810.0 0.00023069
22830.0 0.00022742
22850.0 0.00022439
22870.0 0.0002215
22890.0 0.00021872
22910.0 0.00021612
22930.0 0.00021367
22950.0 0.00021132
22970.0 0.00020905
22990.0 0.00020694
23010.0 0.00020489
23030.0 0.0002029
23050.0 0.000201
23070.0 0.00019915
23090.0 0.00019733
23110.0 0.00019554
23130.0 0.00019381
23150.0 0.00019208
23170.0 0.00019036
23190.0 0.00018866
23210.0 0.00018697
23230.0 0.00018525
23250.0 0.00018351
23270.0 0.00018176
23290.0 0.00017997
23310.0 0.00017811
23330.0 0.00017624
23350.0 0.00017433
23370.0 0.00017235
23390.0 0.00017032
23410.0 0.0001683
23430.0 0.00016623
23450.0 0.00016413
23470.0 0.00016208
23490.0 0.00016005
23510.0 0.00015802
23530.0 0.00015606
23550.0 0.00015423
23570.0 0.00015247
23590.0 0.0001508
23610.0 0.0001493
23630.0 0.00014793
23650.0 0.0001467
23670.0 0.00014564
23690.0 0.00014476
23710.0 0.00014405
23730.0 0.00014354
23750.0 0.00014322
23770.0 0.00014309
23790.0 0.00014318
23810.0 0.00014348
23830.0 0.00014394
23850.0 0.00014467
23870.0 0.00014564
23890.0 0.00014673
