#lamb flux
1010.0 1.8981e-09
1030.0 2.0993e-09
1050.0 2.3307e-09
1070.0 2.5912e-09
1090.0 2.8872e-09
1110.0 3.1907e-09
1130.0 3.4961e-09
1150.0 3.8161e-09
1170.0 4.1462e-09
1190.0 4.4592e-09
1210.0 4.7764e-09
1230.0 5.1042e-09
1250.0 5.4253e-09
1270.0 5.7372e-09
1290.0 6.0668e-09
1310.0 6.3961e-09
1330.0 6.7119e-09
1350.0 7.0313e-09
1370.0 7.3611e-09
1390.0 7.6826e-09
1410.0 7.9945e-09
1430.0 8.3207e-09
1450.0 8.6468e-09
1470.0 8.962e-09
1490.0 9.2806e-09
1510.0 9.6172e-09
1530.0 9.9361e-09
1550.0 1.0251e-08
1570.0 1.0576e-08
1590.0 1.0903e-08
1610.0 1.1214e-08
1630.0 1.1535e-08
1650.0 1.1865e-08
1670.0 1.2185e-08
1690.0 1.25e-08
1710.0 1.2828e-08
1730.0 1.3158e-08
1750.0 1.3469e-08
1770.0 1.3788e-08
1790.0 1.4115e-08
1810.0 1.4432e-08
1830.0 1.4744e-08
1850.0 1.5075e-08
1870.0 1.5398e-08
1890.0 1.5711e-08
1910.0 1.6031e-08
1930.0 1.6359e-08
1950.0 1.6673e-08
1970.0 1.6984e-08
1990.0 1.7307e-08
2010.0 1.7626e-08
2030.0 1.7934e-08
2050.0 1.8252e-08
2070.0 1.8579e-08
2090.0 1.8888e-08
2110.0 1.9197e-08
2130.0 1.9516e-08
2150.0 1.9829e-08
2170.0 2.013e-08
2190.0 2.0442e-08
2210.0 2.0757e-08
2230.0 2.106e-08
2250.0 2.1361e-08
2270.0 2.1677e-08
2290.0 2.1983e-08
2310.0 2.2277e-08
2330.0 2.2584e-08
2350.0 2.2898e-08
2370.0 2.3211e-08
2390.0 2.355e-08
2410.0 2.3952e-08
2430.0 2.4415e-08
2450.0 2.4967e-08
2470.0 2.5675e-08
2490.0 2.6567e-08
2510.0 2.7581e-08
2530.0 2.8802e-08
2550.0 3.033e-08
2570.0 3.2231e-08
2590.0 3.4704e-08
2610.0 3.8407e-08
2630.0 4.3692e-08
2650.0 5.0604e-08
2670.0 5.954e-08
2690.0 7.0522e-08
2710.0 8.2244e-08
2730.0 9.3826e-08
2750.0 1.0524e-07
2770.0 1.1516e-07
2790.0 1.2304e-07
2810.0 1.2929e-07
2830.0 1.3418e-07
2850.0 1.3751e-07
2870.0 1.3996e-07
2890.0 1.419e-07
2910.0 1.4345e-07
2930.0 1.4471e-07
2950.0 1.4592e-07
2970.0 1.471e-07
2990.0 1.482e-07
3010.0 4.189e-06
3030.0 4.2204e-06
3050.0 4.2506e-06
3070.0 4.2765e-06
3090.0 4.2988e-06
3110.0 4.3127e-06
3130.0 4.3121e-06
3150.0 4.2929e-06
3170.0 4.247e-06
3190.0 4.1748e-06
3210.0 4.0832e-06
3230.0 3.9784e-06
3250.0 3.8749e-06
3270.0 3.7993e-06
3290.0 3.7574e-06
3310.0 3.7641e-06
3330.0 3.8186e-06
3350.0 3.9135e-06
3370.0 4.049e-06
3390.0 4.2197e-06
3410.0 4.4054e-06
3430.0 4.614e-06
3450.0 4.8541e-06
3470.0 5.1163e-06
3490.0 5.3942e-06
3510.0 5.7083e-06
3530.0 6.0446e-06
3550.0 6.3851e-06
3570.0 6.7404e-06
3590.0 7.1267e-06
3610.0 7.5248e-06
3630.0 7.9216e-06
3650.0 8.3333e-06
3670.0 8.7092e-06
3690.0 8.9902e-06
3710.0 9.1512e-06
3730.0 9.1566e-06
3750.0 9.0291e-06
3770.0 8.9791e-06
3790.0 8.9257e-06
3810.0 8.7063e-06
3830.0 8.9758e-06
3850.0 1.0036e-05
3870.0 1.0618e-05
3890.0 1.057e-05
3910.0 1.0615e-05
3930.0 1.0894e-05
3950.0 1.1066e-05
3970.0 1.0082e-05
3990.0 8.6753e-06
4010.0 2.6001e-05
4030.0 3.1504e-05
4050.0 3.6117e-05
4070.0 3.1338e-05
4090.0 2.8383e-05
4110.0 2.5045e-05
4130.0 2.3051e-05
4150.0 2.452e-05
4170.0 2.4153e-05
4190.0 2.5745e-05
4210.0 2.551e-05
4230.0 2.6982e-05
4250.0 3.1921e-05
4270.0 3.2296e-05
4290.0 2.9761e-05
4310.0 3.0923e-05
4330.0 3.2893e-05
4350.0 3.6881e-05
4370.0 4.1971e-05
4390.0 3.9386e-05
4410.0 2.9099e-05
4430.0 2.4634e-05
4450.0 2.2636e-05
4470.0 1.7374e-05
4490.0 1.8749e-05
4510.0 2.832e-05
4530.0 3.2662e-05
4550.0 3.2945e-05
4570.0 3.7072e-05
4590.0 4.2228e-05
4610.0 5.6956e-05
4630.0 7.3974e-05
4650.0 8.0224e-05
4670.0 7.4295e-05
4690.0 7.089e-05
4710.0 7.4936e-05
4730.0 7.0719e-05
4750.0 5.2871e-05
4770.0 3.8783e-05
4790.0 3.6216e-05
4810.0 3.4519e-05
4830.0 3.1602e-05
4850.0 3.4678e-05
4870.0 4.5813e-05
4890.0 5.4026e-05
4910.0 4.7401e-05
4930.0 4.1943e-05
4950.0 4.6081e-05
4970.0 5.9096e-05
4990.0 8.0089e-05
5010.0 9.2132e-05
5030.0 8.1239e-05
5050.0 5.4964e-05
5070.0 3.6223e-05
5090.0 2.9209e-05
5110.0 3.0038e-05
5130.0 3.4669e-05
5150.0 3.7561e-05
5170.0 3.6998e-05
5190.0 3.4572e-05
5210.0 3.6135e-05
5230.0 3.7987e-05
5250.0 4.0939e-05
5270.0 4.417e-05
5290.0 4.895e-05
5310.0 5.6977e-05
5330.0 6.3052e-05
5350.0 6.265e-05
5370.0 6.5808e-05
5390.0 7.5516e-05
5410.0 7.5449e-05
5430.0 6.6724e-05
5450.0 6.1304e-05
5470.0 6.5094e-05
5490.0 7.9527e-05
5510.0 9.9437e-05
5530.0 0.00011405
5550.0 0.00011023
5570.0 0.00010021
5590.0 8.7132e-05
5610.0 8.0356e-05
5630.0 7.792e-05
5650.0 7.4212e-05
5670.0 7.0322e-05
5690.0 6.2868e-05
5710.0 6.1297e-05
5730.0 5.6464e-05
5750.0 3.981e-05
5770.0 3.1059e-05
5790.0 3.5197e-05
5810.0 3.9743e-05
5830.0 4.8771e-05
5850.0 5.8056e-05
5870.0 6.4414e-05
5890.0 6.5506e-05
5910.0 6.4266e-05
5930.0 6.1174e-05
5950.0 6.2335e-05
5970.0 7.1056e-05
5990.0 6.6811e-05
6010.0 5.6008e-05
6030.0 4.7318e-05
6050.0 4.1208e-05
6070.0 4.0983e-05
6090.0 4.4439e-05
6110.0 4.969e-05
6130.0 5.0452e-05
6150.0 4.3409e-05
6170.0 3.8187e-05
6190.0 4.2973e-05
6210.0 5.681e-05
6230.0 7.4551e-05
6250.0 8.0749e-05
6270.0 7.0564e-05
6290.0 5.9369e-05
6310.0 4.6348e-05
6330.0 3.5511e-05
6350.0 3.1675e-05
6370.0 3.331e-05
6390.0 3.8508e-05
6410.0 4.7482e-05
6430.0 5.5446e-05
6450.0 6.3445e-05
6470.0 7.2646e-05
6490.0 8.7751e-05
6510.0 9.8117e-05
6530.0 9.6259e-05
6550.0 8.7044e-05
6570.0 7.3892e-05
6590.0 6.6631e-05
6610.0 5.7453e-05
6630.0 5.205e-05
6650.0 4.9202e-05
6670.0 4.7799e-05
6690.0 4.3189e-05
6710.0 3.926e-05
6730.0 2.8278e-05
6750.0 2.8035e-05
6770.0 3.0472e-05
6790.0 3.5025e-05
6810.0 3.2048e-05
6830.0 3.3001e-05
6850.0 3.0867e-05
6870.0 2.8197e-05
6890.0 2.7073e-05
6910.0 2.885e-05
6930.0 2.7022e-05
6950.0 2.7801e-05
6970.0 2.9242e-05
6990.0 3.3192e-05
7010.0 3.3474e-05
7030.0 3.4006e-05
7050.0 3.243e-05
7070.0 3.09e-05
7090.0 3.0991e-05
7110.0 3.1887e-05
7130.0 3.4315e-05
7150.0 3.6446e-05
7170.0 4.0215e-05
7190.0 4.4208e-05
7210.0 4.344e-05
7230.0 4.4657e-05
7250.0 4.7991e-05
7270.0 5.2299e-05
7290.0 6.2073e-05
7310.0 6.7356e-05
7330.0 6.5105e-05
7350.0 5.8883e-05
7370.0 5.1234e-05
7390.0 4.9703e-05
7410.0 5.2819e-05
7430.0 5.8702e-05
7450.0 6.3937e-05
7470.0 6.335e-05
7490.0 5.7763e-05
7510.0 6.5431e-05
7530.0 6.4715e-05
7550.0 5.8167e-05
7570.0 4.5439e-05
7590.0 3.1238e-05
7610.0 2.6811e-05
7630.0 3.0463e-05
7650.0 3.6018e-05
7670.0 4.4827e-05
7690.0 4.9329e-05
7710.0 5.1406e-05
7730.0 5.4022e-05
7750.0 6.0645e-05
7770.0 6.1599e-05
7790.0 5.6581e-05
7810.0 5.1627e-05
7830.0 5.3239e-05
7850.0 5.1753e-05
7870.0 4.7449e-05
7890.0 3.9866e-05
7910.0 3.2406e-05
7930.0 3.0943e-05
7950.0 2.819e-05
7970.0 2.6095e-05
7990.0 2.5946e-05
8010.0 1.9216e-06
8030.0 1.8966e-06
8050.0 1.871e-06
8070.0 1.8955e-06
8090.0 2.0367e-06
8110.0 2.002e-06
8130.0 1.6514e-06
8150.0 1.6083e-06
8170.0 1.3853e-06
8190.0 1.3129e-06
8210.0 1.7049e-06
8230.0 1.8982e-06
8250.0 1.7108e-06
8270.0 1.489e-06
8290.0 1.4515e-06
8310.0 1.1171e-06
8330.0 7.5295e-07
8350.0 5.3436e-07
8370.0 3.3667e-07
8390.0 6.1543e-07
8410.0 7.1714e-07
8430.0 8.8398e-07
8450.0 1.038e-06
8470.0 1.2902e-06
8490.0 1.2811e-06
8510.0 1.2602e-06
8530.0 1.3152e-06
8550.0 1.7744e-06
8570.0 2.1007e-06
8590.0 2.2666e-06
8610.0 2.8632e-06
8630.0 3.4491e-06
8650.0 3.6081e-06
8670.0 3.8344e-06
8690.0 3.8558e-06
8710.0 3.492e-06
8730.0 3.2481e-06
8750.0 2.8671e-06
8770.0 2.7204e-06
8790.0 2.6727e-06
8810.0 2.561e-06
8830.0 2.0479e-06
8850.0 1.4992e-06
8870.0 1.1479e-06
8890.0 1.1223e-06
8910.0 1.2861e-06
8930.0 1.4629e-06
8950.0 1.4909e-06
8970.0 1.498e-06
8990.0 1.336e-06
9010.0 1.4001e-05
9030.0 1.2686e-05
9050.0 1.2748e-05
9070.0 1.2848e-05
9090.0 1.2936e-05
9110.0 1.3045e-05
9130.0 1.3129e-05
9150.0 1.3195e-05
9170.0 1.3265e-05
9190.0 1.3339e-05
9210.0 1.3417e-05
9230.0 1.35e-05
9250.0 1.3584e-05
9270.0 1.3671e-05
9290.0 1.3761e-05
9310.0 1.3851e-05
9330.0 1.3943e-05
9350.0 1.4039e-05
9370.0 1.4136e-05
9390.0 1.4233e-05
9410.0 1.4334e-05
9430.0 1.4437e-05
9450.0 1.454e-05
9470.0 1.4646e-05
9490.0 1.4754e-05
9510.0 1.4864e-05
9530.0 1.4974e-05
9550.0 1.5088e-05
9570.0 1.5203e-05
9590.0 1.532e-05
9610.0 1.5438e-05
9630.0 1.5559e-05
9650.0 1.5682e-05
9670.0 1.5805e-05
9690.0 1.593e-05
9710.0 1.6058e-05
9730.0 1.6187e-05
9750.0 1.6317e-05
9770.0 1.6451e-05
9790.0 1.6584e-05
9810.0 1.6719e-05
9830.0 1.6856e-05
9850.0 1.6995e-05
9870.0 1.7134e-05
9890.0 1.7274e-05
9910.0 1.7418e-05
9930.0 1.7561e-05
9950.0 1.7705e-05
9970.0 1.7852e-05
9990.0 1.8e-05
10010.0 1.562e-05
10030.0 1.5748e-05
10050.0 1.5879e-05
10070.0 1.6014e-05
10090.0 1.6142e-05
10110.0 1.6272e-05
10130.0 1.6404e-05
10150.0 1.6534e-05
10170.0 1.6667e-05
10190.0 1.6801e-05
10210.0 1.6934e-05
10230.0 1.7067e-05
10250.0 1.7202e-05
10270.0 1.7337e-05
10290.0 1.747e-05
10310.0 1.7605e-05
10330.0 1.7741e-05
10350.0 1.7874e-05
10370.0 1.8008e-05
10390.0 1.8143e-05
10410.0 1.8277e-05
10430.0 1.8408e-05
10450.0 1.8541e-05
10470.0 1.8675e-05
10490.0 1.8806e-05
10510.0 1.8936e-05
10530.0 1.9068e-05
10550.0 1.9198e-05
10570.0 1.9325e-05
10590.0 1.9454e-05
10610.0 1.9581e-05
10630.0 1.9706e-05
10650.0 1.983e-05
10670.0 1.9955e-05
10690.0 2.0078e-05
10710.0 2.0197e-05
10730.0 2.0318e-05
10750.0 2.0438e-05
10770.0 2.0554e-05
10790.0 2.0668e-05
10810.0 2.0783e-05
10830.0 2.0893e-05
10850.0 2.0999e-05
10870.0 2.1101e-05
10890.0 2.119e-05
10910.0 2.126e-05
10930.0 2.1299e-05
10950.0 2.1289e-05
10970.0 2.1217e-05
10990.0 2.1076e-05
11010.0 2.0839e-05
11030.0 2.0508e-05
11050.0 2.0104e-05
11070.0 1.962e-05
11090.0 1.904e-05
11110.0 1.8439e-05
11130.0 1.7813e-05
11150.0 1.7139e-05
11170.0 1.6444e-05
11190.0 1.5769e-05
11210.0 1.5073e-05
11230.0 1.4359e-05
11250.0 1.3677e-05
11270.0 1.3021e-05
11290.0 1.2365e-05
11310.0 1.1743e-05
11330.0 1.1195e-05
11350.0 1.0678e-05
11370.0 1.02e-05
11390.0 9.7864e-06
11410.0 9.4245e-06
11430.0 9.0883e-06
11450.0 8.7986e-06
11470.0 8.5481e-06
11490.0 8.3151e-06
11510.0 8.0905e-06
11530.0 7.8821e-06
11550.0 7.6751e-06
11570.0 7.4542e-06
11590.0 7.2254e-06
11610.0 6.9926e-06
11630.0 6.7392e-06
11650.0 6.468e-06
11670.0 6.2006e-06
11690.0 5.9294e-06
11710.0 5.6497e-06
11730.0 5.3787e-06
11750.0 5.1279e-06
11770.0 4.8819e-06
11790.0 4.6513e-06
11810.0 4.4484e-06
11830.0 4.2669e-06
11850.0 4.0997e-06
11870.0 3.9598e-06
11890.0 3.8436e-06
11910.0 3.7414e-06
11930.0 3.6536e-06
11950.0 3.5805e-06
11970.0 3.5152e-06
11990.0 3.4534e-06
12010.0 3.3963e-06
12030.0 3.3413e-06
12050.0 3.2844e-06
12070.0 3.2252e-06
12090.0 3.1681e-06
12110.0 3.1102e-06
12130.0 3.0521e-06
12150.0 2.9986e-06
12170.0 2.9519e-06
12190.0 2.9115e-06
12210.0 2.8833e-06
12230.0 2.8697e-06
12250.0 2.8719e-06
12270.0 2.8935e-06
12290.0 2.9345e-06
12310.0 2.9932e-06
12330.0 3.0753e-06
12350.0 3.1779e-06
12370.0 3.2946e-06
12390.0 3.4292e-06
12410.0 3.5869e-06
12430.0 3.7472e-06
12450.0 3.9132e-06
12470.0 4.0897e-06
12490.0 4.267e-06
12510.0 4.4333e-06
12530.0 4.5988e-06
12550.0 4.7584e-06
12570.0 4.8993e-06
12590.0 5.023e-06
12610.0 5.1332e-06
12630.0 5.221e-06
12650.0 5.2817e-06
12670.0 5.3215e-06
12690.0 5.3375e-06
12710.0 5.3287e-06
12730.0 5.2978e-06
12750.0 5.2427e-06
12770.0 5.1671e-06
12790.0 5.0754e-06
12810.0 4.9659e-06
12830.0 4.8392e-06
12850.0 4.7067e-06
12870.0 4.5665e-06
12890.0 4.415e-06
12910.0 4.2608e-06
12930.0 4.109e-06
12950.0 3.9505e-06
12970.0 3.7891e-06
12990.0 3.6365e-06
13010.0 3.4858e-06
13030.0 3.3334e-06
13050.0 3.187e-06
13070.0 3.0498e-06
13090.0 2.9122e-06
13110.0 2.7791e-06
13130.0 2.6563e-06
13150.0 2.5401e-06
13170.0 2.4263e-06
13190.0 2.325e-06
13210.0 2.2358e-06
13230.0 2.1544e-06
13250.0 2.0842e-06
13270.0 2.0288e-06
13290.0 1.9858e-06
13310.0 1.9561e-06
13330.0 1.9426e-06
13350.0 1.9442e-06
13370.0 1.9616e-06
13390.0 1.9959e-06
13410.0 2.0422e-06
13430.0 2.1024e-06
13450.0 2.1767e-06
13470.0 2.2592e-06
13490.0 2.3466e-06
13510.0 2.4452e-06
13530.0 2.5451e-06
13550.0 2.6408e-06
13570.0 2.7351e-06
13590.0 2.827e-06
13610.0 2.9088e-06
13630.0 2.9802e-06
13650.0 3.0453e-06
13670.0 3.0994e-06
13690.0 3.1413e-06
13710.0 3.1736e-06
13730.0 3.1967e-06
13750.0 3.2083e-06
13770.0 3.2109e-06
13790.0 3.2051e-06
13810.0 3.1909e-06
13830.0 3.17e-06
13850.0 3.1417e-06
13870.0 3.106e-06
13890.0 3.0651e-06
13910.0 3.0191e-06
13930.0 2.9658e-06
13950.0 2.9076e-06
13970.0 2.8481e-06
13990.0 2.7833e-06
14010.0 2.7144e-06
14030.0 2.6457e-06
14050.0 2.5765e-06
14070.0 2.5033e-06
14090.0 2.4333e-06
14110.0 2.3674e-06
14130.0 2.3036e-06
14150.0 2.2436e-06
14170.0 2.1923e-06
14190.0 2.148e-06
14210.0 2.1104e-06
14230.0 2.0825e-06
14250.0 2.0645e-06
14270.0 2.0558e-06
14290.0 2.0576e-06
14310.0 2.0691e-06
14330.0 2.0897e-06
14350.0 2.12e-06
14370.0 2.1578e-06
14390.0 2.2007e-06
14410.0 2.2512e-06
14430.0 2.3066e-06
14450.0 2.3633e-06
14470.0 2.422e-06
14490.0 2.4845e-06
14510.0 2.5443e-06
14530.0 2.601e-06
14550.0 2.6578e-06
14570.0 2.7123e-06
14590.0 2.7618e-06
14610.0 2.8098e-06
14630.0 2.8572e-06
14650.0 2.9014e-06
14670.0 2.9441e-06
14690.0 2.9886e-06
14710.0 3.0354e-06
14730.0 3.0822e-06
14750.0 3.1341e-06
14770.0 3.1929e-06
14790.0 3.2566e-06
14810.0 3.3257e-06
14830.0 3.4075e-06
14850.0 3.4965e-06
14870.0 3.5892e-06
14890.0 3.6894e-06
14910.0 3.7957e-06
14930.0 3.898e-06
14950.0 3.9935e-06
14970.0 4.0839e-06
14990.0 4.1598e-06
15010.0 4.2178e-06
15030.0 4.2607e-06
15050.0 4.2892e-06
15070.0 4.303e-06
15090.0 4.3079e-06
15110.0 4.3065e-06
15130.0 4.3011e-06
15150.0 4.2938e-06
15170.0 4.2852e-06
15190.0 4.276e-06
15210.0 4.2669e-06
15230.0 4.2578e-06
15250.0 4.2484e-06
15270.0 4.2391e-06
15290.0 4.2303e-06
15310.0 4.2213e-06
15330.0 4.2121e-06
15350.0 4.2034e-06
15370.0 4.1947e-06
15390.0 4.1855e-06
15410.0 4.1766e-06
15430.0 4.1681e-06
15450.0 4.1593e-06
15470.0 4.1504e-06
15490.0 4.1419e-06
15510.0 4.1335e-06
15530.0 4.1248e-06
15550.0 4.1162e-06
15570.0 4.108e-06
15590.0 4.0994e-06
15610.0 4.0907e-06
15630.0 4.0824e-06
15650.0 4.0742e-06
15670.0 4.0656e-06
15690.0 4.0573e-06
15710.0 4.0493e-06
15730.0 4.0409e-06
15750.0 4.0325e-06
15770.0 4.0245e-06
15790.0 4.0164e-06
15810.0 4.0078e-06
15830.0 3.9997e-06
15850.0 3.9918e-06
15870.0 3.9836e-06
15890.0 3.9753e-06
15910.0 3.9675e-06
15930.0 3.9594e-06
15950.0 3.9511e-06
15970.0 3.9431e-06
15990.0 3.9352e-06
16010.0 3.927e-06
16030.0 3.9187e-06
16050.0 3.911e-06
16070.0 3.903e-06
16090.0 3.8948e-06
16110.0 3.8869e-06
16130.0 3.8792e-06
16150.0 3.8708e-06
16170.0 3.8627e-06
16190.0 3.8549e-06
16210.0 3.8469e-06
16230.0 3.8387e-06
16250.0 3.8308e-06
16270.0 3.823e-06
16290.0 3.8148e-06
16310.0 3.8068e-06
16330.0 3.799e-06
16350.0 3.7909e-06
16370.0 3.7825e-06
16390.0 3.7746e-06
16410.0 3.7668e-06
16430.0 3.7586e-06
16450.0 3.7504e-06
16470.0 3.7427e-06
16490.0 3.7345e-06
16510.0 3.7262e-06
16530.0 3.7182e-06
16550.0 3.7102e-06
16570.0 3.7019e-06
16590.0 3.6936e-06
16610.0 3.6858e-06
16630.0 3.6776e-06
16650.0 3.6692e-06
16670.0 3.6612e-06
16690.0 3.6532e-06
16710.0 3.6446e-06
16730.0 3.6363e-06
16750.0 3.6283e-06
16770.0 3.6199e-06
16790.0 3.6114e-06
16810.0 3.6033e-06
16830.0 3.5951e-06
16850.0 3.5866e-06
16870.0 3.5782e-06
16890.0 3.5701e-06
16910.0 3.5615e-06
16930.0 3.5528e-06
16950.0 3.5446e-06
16970.0 3.5362e-06
16990.0 3.5275e-06
17010.0 3.519e-06
17030.0 3.5108e-06
17050.0 3.5021e-06
17070.0 3.4934e-06
17090.0 3.485e-06
17110.0 3.4764e-06
17130.0 3.4674e-06
17150.0 3.4588e-06
17170.0 3.4504e-06
17190.0 3.4416e-06
17210.0 3.4327e-06
17230.0 3.4242e-06
17250.0 3.4155e-06
17270.0 3.4064e-06
17290.0 3.3977e-06
17310.0 3.389e-06
17330.0 3.38e-06
17350.0 3.3709e-06
17370.0 3.3623e-06
17390.0 3.3534e-06
17410.0 3.3443e-06
17430.0 3.3354e-06
17450.0 3.3266e-06
17470.0 3.3173e-06
17490.0 3.3081e-06
17510.0 3.2993e-06
17530.0 3.2902e-06
17550.0 3.2809e-06
17570.0 3.2719e-06
17590.0 3.263e-06
17610.0 3.2536e-06
17630.0 3.2443e-06
17650.0 3.2353e-06
17670.0 3.2261e-06
17690.0 3.2164e-06
17710.0 3.2074e-06
17730.0 3.1982e-06
17750.0 3.1887e-06
17770.0 3.1794e-06
17790.0 3.1703e-06
17810.0 3.1608e-06
17830.0 3.1512e-06
17850.0 3.142e-06
17870.0 3.1326e-06
17890.0 3.1229e-06
17910.0 3.1134e-06
17930.0 3.1042e-06
17950.0 3.0946e-06
17970.0 3.085e-06
17990.0 3.0756e-06
18010.0 3.0662e-06
18030.0 3.0563e-06
18050.0 3.0467e-06
18070.0 3.0373e-06
18090.0 3.0276e-06
18110.0 3.0177e-06
18130.0 3.0083e-06
18150.0 2.9988e-06
18170.0 2.9889e-06
18190.0 2.9792e-06
18210.0 2.9697e-06
18230.0 2.9598e-06
18250.0 2.9498e-06
18270.0 2.9403e-06
18290.0 2.9306e-06
18310.0 2.9206e-06
18330.0 2.9109e-06
18350.0 2.9014e-06
18370.0 2.8914e-06
18390.0 2.8814e-06
18410.0 2.8718e-06
18430.0 2.862e-06
18450.0 2.8518e-06
18470.0 2.842e-06
18490.0 2.8323e-06
18510.0 2.8223e-06
18530.0 2.8124e-06
18550.0 2.8027e-06
18570.0 2.7928e-06
18590.0 2.7826e-06
18610.0 2.7727e-06
18630.0 2.763e-06
18650.0 2.7529e-06
18670.0 2.7427e-06
18690.0 2.7331e-06
18710.0 2.7231e-06
18730.0 2.713e-06
18750.0 2.7031e-06
18770.0 2.6934e-06
18790.0 2.683e-06
18810.0 2.673e-06
18830.0 2.6632e-06
18850.0 2.6532e-06
18870.0 2.643e-06
18890.0 2.6331e-06
18910.0 2.6233e-06
18930.0 2.6131e-06
18950.0 2.603e-06
18970.0 2.5932e-06
18990.0 2.5832e-06
19010.0 2.5727e-06
19030.0 2.5629e-06
19050.0 2.5531e-06
19070.0 2.5429e-06
19090.0 2.5328e-06
19110.0 2.5231e-06
19130.0 2.5129e-06
19150.0 2.5027e-06
19170.0 2.4928e-06
19190.0 2.4829e-06
19210.0 2.4726e-06
19230.0 2.4625e-06
19250.0 2.4527e-06
19270.0 2.4426e-06
19290.0 2.4325e-06
19310.0 2.4227e-06
19330.0 2.4128e-06
19350.0 2.4024e-06
19370.0 2.3924e-06
19390.0 2.3825e-06
19410.0 2.3724e-06
19430.0 2.3622e-06
19450.0 2.3525e-06
19470.0 2.3425e-06
19490.0 2.3323e-06
19510.0 2.3224e-06
19530.0 2.3126e-06
19550.0 2.3024e-06
19570.0 2.2922e-06
19590.0 2.2824e-06
19610.0 2.2725e-06
19630.0 2.2623e-06
19650.0 2.2524e-06
19670.0 2.2427e-06
19690.0 2.2325e-06
19710.0 2.2225e-06
19730.0 2.2127e-06
19750.0 2.2028e-06
19770.0 2.1925e-06
19790.0 2.1826e-06
19810.0 2.1729e-06
19830.0 2.1628e-06
19850.0 2.1526e-06
19870.0 2.1427e-06
19890.0 2.132e-06
19910.0 2.1202e-06
19930.0 2.1076e-06
19950.0 2.0932e-06
19970.0 2.0755e-06
19990.0 2.0542e-06
20010.0 1.8276e-06
20030.0 1.8011e-06
20050.0 1.7702e-06
20070.0 1.7366e-06
20090.0 1.7006e-06
20110.0 1.6597e-06
20130.0 1.6184e-06
20150.0 1.5775e-06
20170.0 1.535e-06
20190.0 1.492e-06
20210.0 1.4513e-06
20230.0 1.4116e-06
20250.0 1.3719e-06
20270.0 1.335e-06
20290.0 1.3013e-06
20310.0 1.2693e-06
20330.0 1.2394e-06
20350.0 1.2145e-06
20370.0 1.1925e-06
20390.0 1.1732e-06
20410.0 1.1575e-06
20430.0 1.1455e-06
20450.0 1.136e-06
20470.0 1.1296e-06
20490.0 1.1262e-06
20510.0 1.1252e-06
20530.0 1.1266e-06
20550.0 1.13e-06
20570.0 1.1351e-06
20590.0 1.1419e-06
20610.0 1.1502e-06
20630.0 1.1594e-06
20650.0 1.1696e-06
20670.0 1.1813e-06
20690.0 1.1932e-06
20710.0 1.2055e-06
20730.0 1.2188e-06
20750.0 1.2327e-06
20770.0 1.2463e-06
20790.0 1.2606e-06
20810.0 1.2758e-06
20830.0 1.2909e-06
20850.0 1.306e-06
20870.0 1.3222e-06
20890.0 1.3388e-06
20910.0 1.3547e-06
20930.0 1.3713e-06
20950.0 1.3884e-06
20970.0 1.4051e-06
20990.0 1.4216e-06
21010.0 1.439e-06
21030.0 1.4559e-06
21050.0 1.4721e-06
21070.0 1.4883e-06
21090.0 1.5045e-06
21110.0 1.5192e-06
21130.0 1.5331e-06
21150.0 1.5466e-06
21170.0 1.5588e-06
21190.0 1.5692e-06
21210.0 1.5787e-06
21230.0 1.5865e-06
21250.0 1.5921e-06
21270.0 1.5956e-06
21290.0 1.597e-06
21310.0 1.5957e-06
21330.0 1.5919e-06
21350.0 1.5853e-06
21370.0 1.5756e-06
21390.0 1.5633e-06
21410.0 1.5482e-06
21430.0 1.529e-06
21450.0 1.5076e-06
21470.0 1.4842e-06
21490.0 1.4577e-06
21510.0 1.4287e-06
21530.0 1.3992e-06
21550.0 1.3683e-06
21570.0 1.3354e-06
21590.0 1.303e-06
21610.0 1.2717e-06
21630.0 1.2403e-06
21650.0 1.2097e-06
21670.0 1.1832e-06
21690.0 1.1587e-06
21710.0 1.1367e-06
21730.0 1.1186e-06
21750.0 1.1047e-06
21770.0 1.0941e-06
21790.0 1.088e-06
21810.0 1.0863e-06
21830.0 1.0887e-06
21850.0 1.0955e-06
21870.0 1.1061e-06
21890.0 1.1198e-06
21910.0 1.1374e-06
21930.0 1.158e-06
21950.0 1.1804e-06
21970.0 1.2051e-06
21990.0 1.2329e-06
22010.0 1.2607e-06
22030.0 1.2888e-06
22050.0 1.3185e-06
22070.0 1.3482e-06
22090.0 1.3764e-06
22110.0 1.4049e-06
22130.0 1.4332e-06
22150.0 1.4597e-06
22170.0 1.4847e-06
22190.0 1.5095e-06
22210.0 1.5325e-06
22230.0 1.5528e-06
22250.0 1.5719e-06
22270.0 1.5895e-06
22290.0 1.6045e-06
22310.0 1.6174e-06
22330.0 1.6288e-06
22350.0 1.6375e-06
22370.0 1.6437e-06
22390.0 1.6476e-06
22410.0 1.6488e-06
22430.0 1.6473e-06
22450.0 1.643e-06
22470.0 1.6357e-06
22490.0 1.6254e-06
22510.0 1.6125e-06
22530.0 1.5961e-06
22550.0 1.5761e-06
22570.0 1.554e-06
22590.0 1.529e-06
22610.0 1.5002e-06
22630.0 1.4691e-06
