#lamb flux
1010.0 2.1103e-07
1030.0 2.3277e-07
1050.0 2.5394e-07
1070.0 2.7779e-07
1090.0 3.0603e-07
1110.0 3.3483e-07
1130.0 3.6373e-07
1150.0 3.9401e-07
1170.0 4.254e-07
1190.0 4.5553e-07
1210.0 4.8657e-07
1230.0 5.1932e-07
1250.0 5.5205e-07
1270.0 5.8491e-07
1290.0 6.206e-07
1310.0 6.5746e-07
1330.0 6.9418e-07
1350.0 7.3233e-07
1370.0 7.7249e-07
1390.0 8.1262e-07
1410.0 8.5233e-07
1430.0 8.9385e-07
1450.0 9.3546e-07
1470.0 9.7577e-07
1490.0 1.016e-06
1510.0 1.0576e-06
1530.0 1.0965e-06
1550.0 1.1338e-06
1570.0 1.1712e-06
1590.0 1.2072e-06
1610.0 1.24e-06
1630.0 1.2719e-06
1650.0 1.3029e-06
1670.0 1.331e-06
1690.0 1.3569e-06
1710.0 1.3822e-06
1730.0 1.4059e-06
1750.0 1.426e-06
1770.0 1.4456e-06
1790.0 1.4646e-06
1810.0 1.4815e-06
1830.0 1.4972e-06
1850.0 1.5145e-06
1870.0 1.5308e-06
1890.0 1.5465e-06
1910.0 1.5636e-06
1930.0 1.5824e-06
1950.0 1.6012e-06
1970.0 1.6213e-06
1990.0 1.6443e-06
2010.0 1.6687e-06
2030.0 1.6939e-06
2050.0 1.7219e-06
2070.0 1.7523e-06
2090.0 1.7824e-06
2110.0 1.8135e-06
2130.0 1.8463e-06
2150.0 1.8789e-06
2170.0 1.9101e-06
2190.0 1.942e-06
2210.0 1.9732e-06
2230.0 2.0019e-06
2250.0 2.0289e-06
2270.0 2.0552e-06
2290.0 2.0784e-06
2310.0 2.0981e-06
2330.0 2.116e-06
2350.0 2.1316e-06
2370.0 2.1432e-06
2390.0 2.1523e-06
2410.0 2.1598e-06
2430.0 2.1634e-06
2450.0 2.1634e-06
2470.0 2.161e-06
2490.0 2.156e-06
2510.0 2.1484e-06
2530.0 2.1434e-06
2550.0 2.1493e-06
2570.0 2.1752e-06
2590.0 2.2325e-06
2610.0 2.347e-06
2630.0 2.5273e-06
2650.0 2.763e-06
2670.0 3.057e-06
2690.0 3.3959e-06
2710.0 3.7237e-06
2730.0 4.0067e-06
2750.0 4.234e-06
2770.0 4.359e-06
2790.0 4.3681e-06
2810.0 4.2671e-06
2830.0 4.0515e-06
2850.0 3.7546e-06
2870.0 3.3965e-06
2890.0 2.9806e-06
2910.0 2.5322e-06
2930.0 2.0794e-06
2950.0 1.599e-06
2970.0 1.0988e-06
2990.0 6.0372e-07
3010.0 2.5979e-07
3030.0 2.5979e-07
3050.0 2.5979e-07
3070.0 2.5979e-07
3090.0 2.5979e-07
3110.0 2.5979e-07
3130.0 2.5979e-07
3150.0 2.5979e-07
3170.0 2.5979e-07
3190.0 2.5979e-07
3210.0 4.478e-06
3230.0 1.8927e-05
3250.0 2.7768e-05
3270.0 2.4519e-05
3290.0 1.9105e-05
3310.0 1.4649e-05
3330.0 1.3716e-05
3350.0 1.4692e-05
3370.0 1.6283e-05
3390.0 1.7962e-05
3410.0 1.9749e-05
3430.0 2.2103e-05
3450.0 2.4315e-05
3470.0 2.6589e-05
3490.0 2.6876e-05
3510.0 2.2611e-05
3530.0 2.0415e-05
3550.0 2.546e-05
3570.0 3.148e-05
3590.0 3.4999e-05
3610.0 3.5868e-05
3630.0 3.9754e-05
3650.0 4.0595e-05
3670.0 4.2099e-05
3690.0 4.7377e-05
3710.0 5.2085e-05
3730.0 5.5702e-05
3750.0 5.7306e-05
3770.0 5.7953e-05
3790.0 5.6276e-05
3810.0 5.2441e-05
3830.0 4.7053e-05
3850.0 3.3572e-05
3870.0 3.1103e-05
3890.0 3.53e-05
3910.0 4.7578e-05
3930.0 6.0936e-05
3950.0 6.6211e-05
3970.0 6.9211e-05
3990.0 7.7413e-05
4010.0 7.7976e-05
4030.0 7.0085e-05
4050.0 5.108e-05
4070.0 4.3379e-05
4090.0 5.2716e-05
4110.0 5.7678e-05
4130.0 6.235e-05
4150.0 6.1777e-05
4170.0 5.8755e-05
4190.0 5.4779e-05
4210.0 6.205e-05
4230.0 6.6878e-05
4250.0 7.1797e-05
4270.0 7.084e-05
4290.0 6.8182e-05
4310.0 6.9497e-05
4330.0 7.881e-05
4350.0 8.7052e-05
4370.0 8.8581e-05
4390.0 8.2532e-05
4410.0 7.4165e-05
4430.0 5.8762e-05
4450.0 4.7386e-05
4470.0 4.7954e-05
4490.0 5.4192e-05
4510.0 5.8016e-05
4530.0 5.8896e-05
4550.0 6.0486e-05
4570.0 8.2074e-05
4590.0 0.00011891
4610.0 0.00014118
4630.0 0.0001475
4650.0 0.00016248
4670.0 0.00018741
4690.0 0.00019648
4710.0 0.00016837
4730.0 0.00012993
4750.0 0.00010076
4770.0 8.4497e-05
4790.0 7.5952e-05
4810.0 7.241e-05
4830.0 7.9649e-05
4850.0 9.5778e-05
4870.0 0.00010699
4890.0 0.00011012
4910.0 0.00010838
4930.0 0.00011983
4950.0 0.00014163
4970.0 0.00015779
4990.0 0.00015945
5010.0 0.00014475
5030.0 0.00011946
5050.0 9.4678e-05
5070.0 7.8639e-05
5090.0 7.2705e-05
5110.0 7.2556e-05
5130.0 7.368e-05
5150.0 7.2711e-05
5170.0 6.8098e-05
5190.0 6.4826e-05
5210.0 6.6327e-05
5230.0 7.6145e-05
5250.0 9.3098e-05
5270.0 0.00011154
5290.0 0.00012475
5310.0 0.00013525
5330.0 0.00015138
5350.0 0.0001669
5370.0 0.00016902
5390.0 0.00015536
5410.0 0.00014189
5430.0 0.00014351
5450.0 0.00016742
5470.0 0.00020181
5490.0 0.00022974
5510.0 0.00024235
5530.0 0.00024137
5550.0 0.00023396
5570.0 0.00022668
5590.0 0.00021935
5610.0 0.00021572
5630.0 0.00021737
5650.0 0.00021962
5670.0 0.00021233
5690.0 0.00019198
5710.0 0.00016826
5730.0 0.00015441
5750.0 0.00015145
5770.0 0.00015746
5790.0 0.0001641
5810.0 0.00016937
5830.0 0.00017223
5850.0 0.00016821
5870.0 0.00016303
5890.0 0.00016366
5910.0 0.00017103
5930.0 0.00017592
5950.0 0.00016732
5970.0 0.00014855
5990.0 0.00012372
6010.0 0.00010296
6030.0 9.7276e-05
6050.0 0.00010556
6070.0 0.00011119
6090.0 0.00010437
6110.0 9.3839e-05
6130.0 9.6831e-05
6150.0 0.00011076
6170.0 0.00012393
6190.0 0.00013247
6210.0 0.00013506
6230.0 0.00013317
6250.0 0.00012111
6270.0 0.00010106
6290.0 8.4001e-05
6310.0 7.6213e-05
6330.0 7.5933e-05
6350.0 7.7648e-05
6370.0 8.0831e-05
6390.0 9.3007e-05
6410.0 0.00011453
6430.0 0.00013526
6450.0 0.00014631
6470.0 0.00015025
6490.0 0.00015155
6510.0 0.00015339
6530.0 0.00015563
6550.0 0.00015664
6570.0 0.00016161
6590.0 0.00016603
6610.0 0.00016699
6630.0 0.00016095
6650.0 0.00014877
6670.0 0.00013636
6690.0 0.0001272
6710.0 0.00012152
6730.0 0.00011739
6750.0 0.0001165
6770.0 0.0001197
6790.0 0.00012429
6810.0 0.00012685
6830.0 0.00012479
6850.0 0.00011829
6870.0 0.00011122
6890.0 0.00010855
6910.0 0.00010767
6930.0 0.00011097
6950.0 0.0001152
6970.0 0.00011791
6990.0 0.00011901
7010.0 0.00011514
7030.0 0.00010594
7050.0 9.4388e-05
7070.0 8.6302e-05
7090.0 8.3746e-05
7110.0 8.3924e-05
7130.0 7.992e-05
7150.0 7.1129e-05
7170.0 6.8629e-05
7190.0 7.6281e-05
7210.0 8.8668e-05
7230.0 0.00010012
7250.0 0.00010433
7270.0 0.00010207
7290.0 9.5106e-05
7310.0 8.9102e-05
7330.0 8.7302e-05
7350.0 8.8304e-05
7370.0 8.9775e-05
7390.0 9.4297e-05
7410.0 0.00010445
7430.0 0.00011829
7450.0 0.00013041
7470.0 0.00013505
7490.0 0.0001295
7510.0 0.0001193
7530.0 0.00010866
7550.0 0.00010032
7570.0 9.1381e-05
7590.0 8.6607e-05
7610.0 8.6962e-05
7630.0 9.1352e-05
7650.0 9.883e-05
7670.0 0.00010743
7690.0 0.0001143
7710.0 0.00011993
7730.0 0.00012497
7750.0 0.00012888
7770.0 0.00012821
7790.0 0.00012871
7810.0 0.00012876
7830.0 0.0001251
7850.0 0.00012008
7870.0 0.00011677
7890.0 0.00011743
7910.0 0.00011601
7930.0 0.00011302
7950.0 0.00010746
7970.0 0.00010317
7990.0 9.8729e-05
8010.0 9.6284e-05
8030.0 9.634e-05
8050.0 9.6056e-05
8070.0 9.4337e-05
8090.0 9.3079e-05
8110.0 9.0239e-05
8130.0 8.9833e-05
8150.0 8.8569e-05
8170.0 8.621e-05
8190.0 8.3659e-05
8210.0 8.1863e-05
8230.0 7.952e-05
8250.0 7.8261e-05
8270.0 7.21e-05
8290.0 6.0187e-05
8310.0 4.6904e-05
8330.0 3.7837e-05
8350.0 3.5784e-05
8370.0 4.1372e-05
8390.0 4.8796e-05
8410.0 5.2012e-05
8430.0 5.3104e-05
8450.0 5.6043e-05
8470.0 6.0294e-05
8490.0 6.7037e-05
8510.0 7.5437e-05
8530.0 8.4712e-05
8550.0 9.2448e-05
8570.0 9.8279e-05
8590.0 0.00010254
8610.0 0.00010455
8630.0 0.00010375
8650.0 0.00010188
8670.0 0.0001016
8690.0 0.00010675
8710.0 0.00011386
8730.0 0.00011772
8750.0 0.00011684
8770.0 0.00011807
8790.0 0.00011759
8810.0 0.00011093
8830.0 0.00010319
8850.0 9.3406e-05
8870.0 8.5705e-05
8890.0 8.3239e-05
8910.0 8.245e-05
8930.0 7.7324e-05
8950.0 7.1409e-05
8970.0 6.8809e-05
8990.0 6.8395e-05
9010.0 6.6222e-05
9030.0 6.4822e-05
9050.0 6.4224e-05
9070.0 6.3937e-05
9090.0 6.3691e-05
9110.0 6.3454e-05
9130.0 6.3217e-05
9150.0 6.2986e-05
9170.0 6.2739e-05
9190.0 6.2559e-05
9210.0 6.2537e-05
9230.0 6.2223e-05
9250.0 6.1952e-05
9270.0 6.1708e-05
9290.0 6.1483e-05
9310.0 6.1264e-05
9330.0 6.1053e-05
9350.0 6.0856e-05
9370.0 6.0661e-05
9390.0 6.0463e-05
9410.0 6.0273e-05
9430.0 6.0074e-05
9450.0 5.979e-05
9470.0 5.9539e-05
9490.0 5.9446e-05
9510.0 5.9308e-05
9530.0 5.916e-05
9550.0 5.9003e-05
9570.0 5.8841e-05
9590.0 5.8677e-05
9610.0 5.8513e-05
9630.0 5.8348e-05
9650.0 5.8185e-05
9670.0 5.8025e-05
9690.0 5.7864e-05
9710.0 5.7704e-05
9730.0 5.7547e-05
9750.0 5.739e-05
9770.0 5.7231e-05
9790.0 5.7075e-05
9810.0 5.6921e-05
9830.0 5.6765e-05
9850.0 5.6609e-05
9870.0 5.6455e-05
9890.0 5.63e-05
9910.0 5.6143e-05
9930.0 5.5982e-05
9950.0 5.5491e-05
9970.0 5.543e-05
9990.0 5.535e-05
10010.0 5.5262e-05
10030.0 5.5143e-05
10050.0 5.4997e-05
10070.0 5.4849e-05
10090.0 5.4701e-05
10110.0 5.4522e-05
10130.0 5.4328e-05
10150.0 5.4166e-05
10170.0 5.3998e-05
10190.0 5.3808e-05
10210.0 5.3633e-05
10230.0 5.3461e-05
10250.0 5.3265e-05
10270.0 5.307e-05
10290.0 5.2887e-05
10310.0 5.2684e-05
10330.0 5.2463e-05
10350.0 5.2259e-05
10370.0 5.2053e-05
10390.0 5.1826e-05
10410.0 5.1597e-05
10430.0 5.1384e-05
10450.0 5.115e-05
10470.0 5.0902e-05
10490.0 5.0664e-05
10510.0 5.0424e-05
10530.0 5.015e-05
10550.0 4.9884e-05
10570.0 4.9629e-05
10590.0 4.9354e-05
10610.0 4.9064e-05
10630.0 4.8788e-05
10650.0 4.8504e-05
10670.0 4.819e-05
10690.0 4.7883e-05
10710.0 4.7581e-05
10730.0 4.7256e-05
10750.0 4.6909e-05
10770.0 4.6589e-05
10790.0 4.6255e-05
10810.0 4.5896e-05
10830.0 4.5541e-05
10850.0 4.5196e-05
10870.0 4.4811e-05
10890.0 4.4419e-05
10910.0 4.4038e-05
10930.0 4.3642e-05
10950.0 4.3214e-05
10970.0 4.2787e-05
10990.0 4.2368e-05
11010.0 4.5825e-05
11030.0 4.5343e-05
11050.0 4.4874e-05
11070.0 4.4394e-05
11090.0 4.3879e-05
11110.0 4.3399e-05
11130.0 4.2931e-05
11150.0 4.2447e-05
11170.0 4.1965e-05
11190.0 4.1514e-05
11210.0 4.105e-05
11230.0 4.0575e-05
11250.0 4.0121e-05
11270.0 3.9678e-05
11290.0 3.9217e-05
11310.0 3.8759e-05
11330.0 3.8333e-05
11350.0 3.7896e-05
11370.0 3.7446e-05
11390.0 3.7008e-05
11410.0 3.657e-05
11430.0 3.6091e-05
11450.0 3.5604e-05
11470.0 3.5112e-05
11490.0 3.4584e-05
11510.0 3.401e-05
11530.0 3.3433e-05
11550.0 3.2833e-05
11570.0 3.2183e-05
11590.0 3.1514e-05
11610.0 3.0849e-05
11630.0 3.0144e-05
11650.0 2.9411e-05
11670.0 2.8707e-05
11690.0 2.8004e-05
11710.0 2.7284e-05
11730.0 2.6582e-05
11750.0 2.5919e-05
11770.0 2.5246e-05
11790.0 2.4583e-05
11810.0 2.3957e-05
11830.0 2.3349e-05
11850.0 2.2729e-05
11870.0 2.2145e-05
11890.0 2.1594e-05
11910.0 2.1043e-05
11930.0 2.0503e-05
11950.0 1.9999e-05
11970.0 1.9507e-05
11990.0 1.9015e-05
12010.0 1.8553e-05
12030.0 1.812e-05
12050.0 1.7698e-05
12070.0 1.7293e-05
12090.0 1.6933e-05
12110.0 1.6596e-05
12130.0 1.6282e-05
12150.0 1.6005e-05
12170.0 1.5766e-05
12190.0 1.5553e-05
12210.0 1.538e-05
12230.0 1.5248e-05
12250.0 1.5151e-05
12270.0 1.5092e-05
12290.0 1.5071e-05
12310.0 1.508e-05
12330.0 1.5126e-05
12350.0 1.5202e-05
12370.0 1.53e-05
12390.0 1.5422e-05
12410.0 1.5577e-05
12430.0 1.5736e-05
12450.0 1.5903e-05
12470.0 1.6088e-05
12490.0 1.6277e-05
12510.0 1.6454e-05
12530.0 1.6636e-05
12550.0 1.6816e-05
12570.0 1.6975e-05
12590.0 1.7114e-05
12610.0 1.7242e-05
12630.0 1.7341e-05
12650.0 1.7401e-05
12670.0 1.7433e-05
12690.0 1.7431e-05
12710.0 1.7389e-05
12730.0 1.731e-05
12750.0 1.7193e-05
12770.0 1.704e-05
12790.0 1.6855e-05
12810.0 1.664e-05
12830.0 1.6394e-05
12850.0 1.6134e-05
12870.0 1.5861e-05
12890.0 1.5569e-05
12910.0 1.5275e-05
12930.0 1.4985e-05
12950.0 1.469e-05
12970.0 1.4396e-05
12990.0 1.4119e-05
13010.0 1.3849e-05
13030.0 1.3583e-05
13050.0 1.3329e-05
13070.0 1.3091e-05
13090.0 1.2854e-05
13110.0 1.2623e-05
13130.0 1.2405e-05
13150.0 1.2193e-05
13170.0 1.198e-05
13190.0 1.1777e-05
13210.0 1.1583e-05
13230.0 1.139e-05
13250.0 1.1202e-05
13270.0 1.1025e-05
13290.0 1.0854e-05
13310.0 1.0686e-05
13330.0 1.053e-05
13350.0 1.0386e-05
13370.0 1.0249e-05
13390.0 1.0124e-05
13410.0 1.0014e-05
13430.0 9.9137e-06
13450.0 9.823e-06
13470.0 9.7428e-06
13490.0 9.671e-06
13510.0 9.6033e-06
13530.0 9.5395e-06
13550.0 9.4776e-06
13570.0 9.4145e-06
13590.0 9.3476e-06
13610.0 9.2771e-06
13630.0 9.2024e-06
13650.0 9.1203e-06
13670.0 9.0327e-06
13690.0 8.942e-06
13710.0 8.8467e-06
13730.0 8.7453e-06
13750.0 8.6469e-06
13770.0 8.5498e-06
13790.0 8.4526e-06
13810.0 8.3593e-06
13830.0 8.2733e-06
13850.0 8.1905e-06
13870.0 8.1124e-06
13890.0 8.042e-06
13910.0 7.9774e-06
13930.0 7.9159e-06
13950.0 7.859e-06
13970.0 7.8071e-06
13990.0 7.7562e-06
14010.0 7.7056e-06
14030.0 7.6561e-06
14050.0 7.6057e-06
14070.0 7.5511e-06
14090.0 7.4945e-06
14110.0 7.4361e-06
14130.0 7.3729e-06
14150.0 7.3047e-06
14170.0 7.2362e-06
14190.0 7.1654e-06
14210.0 7.0907e-06
14230.0 7.0165e-06
14250.0 6.9451e-06
14270.0 6.873e-06
14290.0 6.8033e-06
14310.0 6.7415e-06
14330.0 6.685e-06
14350.0 6.6334e-06
14370.0 6.5901e-06
14390.0 6.5552e-06
14410.0 6.5261e-06
14430.0 6.5041e-06
14450.0 6.489e-06
14470.0 6.4792e-06
14490.0 6.4739e-06
14510.0 6.4728e-06
14530.0 6.4751e-06
14550.0 6.4803e-06
14570.0 6.4886e-06
14590.0 6.4999e-06
14610.0 6.515e-06
14630.0 6.5354e-06
14650.0 6.5612e-06
14670.0 6.5935e-06
14690.0 6.6348e-06
14710.0 6.6865e-06
14730.0 6.7457e-06
14750.0 6.8168e-06
14770.0 6.9017e-06
14790.0 6.9975e-06
14810.0 7.1037e-06
14830.0 7.2304e-06
14850.0 7.3702e-06
14870.0 7.5188e-06
14890.0 7.6818e-06
14910.0 7.8586e-06
14930.0 8.0346e-06
14950.0 8.2055e-06
14970.0 8.3741e-06
14990.0 8.5249e-06
15010.0 8.6511e-06
15030.0 8.7567e-06
15050.0 8.8418e-06
15070.0 8.904e-06
15090.0 8.9525e-06
15110.0 8.992e-06
15130.0 9.0252e-06
15150.0 9.0554e-06
15170.0 9.0844e-06
15190.0 9.113e-06
15210.0 9.142e-06
15230.0 9.1714e-06
15250.0 9.2013e-06
15270.0 9.2318e-06
15290.0 9.2629e-06
15310.0 9.2946e-06
15330.0 9.3267e-06
15350.0 9.3595e-06
15370.0 9.3928e-06
15390.0 9.4266e-06
15410.0 9.4609e-06
15430.0 9.4958e-06
15450.0 9.5312e-06
15470.0 9.567e-06
15490.0 9.6033e-06
15510.0 9.6402e-06
15530.0 9.6774e-06
15550.0 9.7151e-06
15570.0 9.7533e-06
15590.0 9.7918e-06
15610.0 9.8308e-06
15630.0 9.8702e-06
15650.0 9.91e-06
15670.0 9.9502e-06
15690.0 9.9907e-06
15710.0 1.0032e-05
15730.0 1.0073e-05
15750.0 1.0114e-05
15770.0 1.0156e-05
15790.0 1.0199e-05
15810.0 1.0241e-05
15830.0 1.0284e-05
15850.0 1.0327e-05
15870.0 1.037e-05
15890.0 1.0414e-05
15910.0 1.0457e-05
15930.0 1.0501e-05
15950.0 1.0545e-05
15970.0 1.059e-05
15990.0 1.0634e-05
16010.0 1.0679e-05
16030.0 1.0724e-05
16050.0 1.0769e-05
16070.0 1.0814e-05
16090.0 1.0859e-05
16110.0 1.0904e-05
16130.0 1.0949e-05
16150.0 1.0994e-05
16170.0 1.1039e-05
16190.0 1.1085e-05
16210.0 1.113e-05
16230.0 1.1175e-05
16250.0 1.122e-05
16270.0 1.1266e-05
16290.0 1.1311e-05
16310.0 1.1355e-05
16330.0 1.14e-05
16350.0 1.1445e-05
16370.0 1.1489e-05
16390.0 1.1534e-05
16410.0 1.1578e-05
16430.0 1.1622e-05
16450.0 1.1665e-05
16470.0 1.1709e-05
16490.0 1.1752e-05
16510.0 1.1795e-05
16530.0 1.1838e-05
16550.0 1.188e-05
16570.0 1.1922e-05
16590.0 1.1963e-05
16610.0 1.2005e-05
16630.0 1.2045e-05
16650.0 1.2086e-05
16670.0 1.2126e-05
16690.0 1.2165e-05
16710.0 1.2204e-05
16730.0 1.2243e-05
16750.0 1.2281e-05
16770.0 1.2319e-05
16790.0 1.2356e-05
16810.0 1.2392e-05
16830.0 1.2428e-05
16850.0 1.2463e-05
16870.0 1.2498e-05
16890.0 1.2532e-05
16910.0 1.2565e-05
16930.0 1.2598e-05
16950.0 1.263e-05
16970.0 1.2662e-05
16990.0 1.2692e-05
17010.0 1.2722e-05
17030.0 1.2751e-05
17050.0 1.278e-05
17070.0 1.2808e-05
17090.0 1.2835e-05
17110.0 1.2861e-05
17130.0 1.2886e-05
17150.0 1.291e-05
17170.0 1.2934e-05
17190.0 1.2957e-05
17210.0 1.2979e-05
17230.0 1.3e-05
17250.0 1.302e-05
17270.0 1.3039e-05
17290.0 1.3058e-05
17310.0 1.3075e-05
17330.0 1.3092e-05
17350.0 1.3107e-05
17370.0 1.3122e-05
17390.0 1.3135e-05
17410.0 1.3148e-05
17430.0 1.316e-05
17450.0 1.3171e-05
17470.0 1.318e-05
17490.0 1.3189e-05
17510.0 1.3197e-05
17530.0 1.3204e-05
17550.0 1.3209e-05
17570.0 1.3214e-05
17590.0 1.3218e-05
17610.0 1.3221e-05
17630.0 1.3222e-05
17650.0 1.3223e-05
17670.0 1.3223e-05
17690.0 1.3221e-05
17710.0 1.3219e-05
17730.0 1.3215e-05
17750.0 1.3211e-05
17770.0 1.3205e-05
17790.0 1.3199e-05
17810.0 1.3191e-05
17830.0 1.3182e-05
17850.0 1.3173e-05
17870.0 1.3162e-05
17890.0 1.315e-05
17910.0 1.3137e-05
17930.0 1.3124e-05
17950.0 1.3109e-05
17970.0 1.3093e-05
17990.0 1.3076e-05
18010.0 1.3059e-05
18030.0 1.304e-05
18050.0 1.302e-05
18070.0 1.2999e-05
18090.0 1.2977e-05
18110.0 1.2955e-05
18130.0 1.2931e-05
18150.0 1.2907e-05
18170.0 1.2881e-05
18190.0 1.2855e-05
18210.0 1.2828e-05
18230.0 1.2799e-05
18250.0 1.277e-05
18270.0 1.274e-05
18290.0 1.2709e-05
18310.0 1.2678e-05
18330.0 1.2645e-05
18350.0 1.2612e-05
18370.0 1.2577e-05
18390.0 1.2542e-05
18410.0 1.2507e-05
18430.0 1.247e-05
18450.0 1.2432e-05
18470.0 1.2394e-05
18490.0 1.2355e-05
18510.0 1.2316e-05
18530.0 1.2275e-05
18550.0 1.2234e-05
18570.0 1.2193e-05
18590.0 1.215e-05
18610.0 1.2107e-05
18630.0 1.2064e-05
18650.0 1.2019e-05
18670.0 1.1974e-05
18690.0 1.1929e-05
18710.0 1.1883e-05
18730.0 1.1836e-05
18750.0 1.1789e-05
18770.0 1.1741e-05
18790.0 1.1693e-05
18810.0 1.1644e-05
18830.0 1.1595e-05
18850.0 1.1545e-05
18870.0 1.1495e-05
18890.0 1.1444e-05
18910.0 1.1393e-05
18930.0 1.1341e-05
18950.0 1.129e-05
18970.0 1.1237e-05
18990.0 1.1185e-05
19010.0 1.1132e-05
19030.0 1.1079e-05
19050.0 1.1025e-05
19070.0 1.0971e-05
19090.0 1.0917e-05
19110.0 1.0862e-05
19130.0 1.0808e-05
19150.0 1.0753e-05
19170.0 1.0698e-05
19190.0 1.0642e-05
19210.0 1.0587e-05
19230.0 1.0531e-05
19250.0 1.0475e-05
19270.0 1.0419e-05
19290.0 1.0363e-05
19310.0 1.0306e-05
19330.0 1.025e-05
19350.0 1.0193e-05
19370.0 1.0137e-05
19390.0 1.008e-05
19410.0 1.0023e-05
19430.0 9.9663e-06
19450.0 9.9095e-06
19470.0 9.8526e-06
19490.0 9.7957e-06
19510.0 9.7388e-06
19530.0 9.682e-06
19550.0 9.6251e-06
19570.0 9.5683e-06
19590.0 9.5116e-06
19610.0 9.4549e-06
19630.0 9.3982e-06
19650.0 9.3417e-06
19670.0 9.2853e-06
19690.0 9.2289e-06
19710.0 9.1726e-06
19730.0 9.1165e-06
19750.0 9.0605e-06
19770.0 9.0046e-06
19790.0 8.9489e-06
19810.0 8.8933e-06
19830.0 8.8376e-06
19850.0 8.7817e-06
19870.0 8.7253e-06
19890.0 8.6672e-06
19910.0 8.6059e-06
19930.0 8.5397e-06
19950.0 8.4662e-06
19970.0 8.3809e-06
19990.0 8.2819e-06
20010.0 8.1708e-06
20030.0 8.0429e-06
20050.0 7.8992e-06
20070.0 7.7471e-06
20090.0 7.5882e-06
20110.0 7.4172e-06
20130.0 7.2481e-06
20150.0 7.0838e-06
20170.0 6.9187e-06
20190.0 6.7555e-06
20210.0 6.6019e-06
20230.0 6.4535e-06
20250.0 6.3064e-06
20270.0 6.1681e-06
20290.0 6.0386e-06
20310.0 5.913e-06
20330.0 5.7917e-06
20350.0 5.6826e-06
20370.0 5.5789e-06
20390.0 5.4797e-06
20410.0 5.3881e-06
20430.0 5.3043e-06
20450.0 5.2236e-06
20470.0 5.1489e-06
20490.0 5.081e-06
20510.0 5.0179e-06
20530.0 4.9586e-06
20550.0 4.9046e-06
20570.0 4.8553e-06
20590.0 4.809e-06
20610.0 4.7662e-06
20630.0 4.7268e-06
20650.0 4.6899e-06
20670.0 4.6551e-06
20690.0 4.6225e-06
20710.0 4.5914e-06
20730.0 4.5614e-06
20750.0 4.5321e-06
20770.0 4.5034e-06
20790.0 4.4747e-06
20810.0 4.4458e-06
20830.0 4.4165e-06
20850.0 4.3866e-06
20870.0 4.3557e-06
20890.0 4.3238e-06
20910.0 4.291e-06
20930.0 4.2569e-06
20950.0 4.2214e-06
20970.0 4.185e-06
20990.0 4.1476e-06
21010.0 4.1085e-06
21030.0 4.0684e-06
21050.0 4.028e-06
21070.0 3.9864e-06
21090.0 3.9435e-06
21110.0 3.9009e-06
21130.0 3.8581e-06
21150.0 3.8142e-06
21170.0 3.7704e-06
21190.0 3.7274e-06
21210.0 3.6836e-06
21230.0 3.6395e-06
21250.0 3.5967e-06
21270.0 3.5545e-06
21290.0 3.512e-06
21310.0 3.4703e-06
21330.0 3.4305e-06
21350.0 3.3907e-06
21370.0 3.3516e-06
21390.0 3.3144e-06
21410.0 3.2784e-06
21430.0 3.2427e-06
21450.0 3.2091e-06
21470.0 3.1775e-06
21490.0 3.147e-06
21510.0 3.118e-06
21530.0 3.0912e-06
21550.0 3.066e-06
21570.0 3.0423e-06
21590.0 3.0204e-06
21610.0 3.0004e-06
21630.0 2.9818e-06
21650.0 2.9648e-06
21670.0 2.9494e-06
21690.0 2.9352e-06
21710.0 2.9224e-06
21730.0 2.9107e-06
21750.0 2.8999e-06
21770.0 2.8902e-06
21790.0 2.8813e-06
21810.0 2.8728e-06
21830.0 2.8648e-06
21850.0 2.8573e-06
21870.0 2.8499e-06
21890.0 2.8424e-06
21910.0 2.8351e-06
21930.0 2.8276e-06
21950.0 2.8196e-06
21970.0 2.8113e-06
21990.0 2.8029e-06
22010.0 2.7937e-06
22030.0 2.784e-06
22050.0 2.7738e-06
22070.0 2.763e-06
22090.0 2.7516e-06
22110.0 2.7396e-06
22130.0 2.7272e-06
22150.0 2.7143e-06
22170.0 2.7009e-06
22190.0 2.687e-06
22210.0 2.6727e-06
22230.0 2.6582e-06
22250.0 2.6431e-06
22270.0 2.6276e-06
22290.0 2.6118e-06
22310.0 2.5955e-06
22330.0 2.5783e-06
22350.0 2.5605e-06
22370.0 2.5421e-06
22390.0 2.5226e-06
22410.0 2.5018e-06
22430.0 2.4802e-06
22450.0 2.4575e-06
22470.0 2.433e-06
22490.0 2.4071e-06
22510.0 2.3805e-06
22530.0 2.3518e-06
22550.0 2.3212e-06
22570.0 2.2903e-06
22590.0 2.2583e-06
22610.0 2.2244e-06
22630.0 2.1902e-06
