#lamb flux
1010.0 4.8747e-11
1030.0 6.125e-11
1050.0 7.558e-11
1070.0 9.1651e-11
1090.0 1.0983e-10
1110.0 1.2837e-10
1130.0 1.4691e-10
1150.0 1.6621e-10
1170.0 1.8601e-10
1190.0 2.0462e-10
1210.0 2.234e-10
1230.0 2.4273e-10
1250.0 2.616e-10
1270.0 2.799e-10
1290.0 2.993e-10
1310.0 3.1877e-10
1330.0 3.3755e-10
1350.0 3.5673e-10
1370.0 3.7675e-10
1390.0 3.9652e-10
1410.0 4.1597e-10
1430.0 4.3656e-10
1450.0 4.5742e-10
1470.0 4.7787e-10
1490.0 4.9875e-10
1510.0 5.2094e-10
1530.0 5.422e-10
1550.0 5.6331e-10
1570.0 5.8518e-10
1590.0 6.0711e-10
1610.0 6.2816e-10
1630.0 6.4981e-10
1650.0 6.7195e-10
1670.0 6.9338e-10
1690.0 7.145e-10
1710.0 7.3632e-10
1730.0 7.582e-10
1750.0 7.7878e-10
1770.0 7.9988e-10
1790.0 8.2134e-10
1810.0 8.421e-10
1830.0 8.6247e-10
1850.0 8.8372e-10
1870.0 9.0415e-10
1890.0 9.2398e-10
1910.0 9.4428e-10
1930.0 9.6516e-10
1950.0 9.8522e-10
1970.0 1.0051e-09
1990.0 1.0259e-09
2010.0 1.0463e-09
2030.0 1.0662e-09
2050.0 1.0867e-09
2070.0 1.1079e-09
2090.0 1.128e-09
2110.0 1.1482e-09
2130.0 1.1691e-09
2150.0 1.1897e-09
2170.0 1.2096e-09
2190.0 1.2304e-09
2210.0 1.2512e-09
2230.0 1.2711e-09
2250.0 1.2911e-09
2270.0 1.312e-09
2290.0 1.3325e-09
2310.0 1.3523e-09
2330.0 1.3728e-09
2350.0 1.3937e-09
2370.0 1.4138e-09
2390.0 1.4343e-09
2410.0 1.4558e-09
2430.0 1.4771e-09
2450.0 1.4988e-09
2470.0 1.5229e-09
2490.0 1.551e-09
2510.0 1.5836e-09
2530.0 1.6259e-09
2550.0 1.6846e-09
2570.0 1.7637e-09
2590.0 1.8683e-09
2610.0 2.0179e-09
2630.0 2.2162e-09
2650.0 2.4587e-09
2670.0 2.758e-09
2690.0 3.1202e-09
2710.0 3.517e-09
2730.0 3.9342e-09
2750.0 4.3856e-09
2770.0 4.8336e-09
2790.0 5.2503e-09
2810.0 5.642e-09
2830.0 6.0089e-09
2850.0 6.3176e-09
2870.0 6.5911e-09
2890.0 6.8461e-09
2910.0 7.0847e-09
2930.0 7.3113e-09
2950.0 7.5443e-09
2970.0 7.7865e-09
2990.0 8.0341e-09
3010.0 8.292e-09
3030.0 8.5674e-09
3050.0 8.8559e-09
3070.0 9.1495e-09
3090.0 9.4605e-09
3110.0 9.7913e-09
3130.0 1.0146e-08
3150.0 1.0551e-08
3170.0 1.1067e-08
3190.0 1.1737e-08
3210.0 1.2615e-08
3230.0 1.378e-08
3250.0 1.5257e-08
3270.0 1.6656e-08
3290.0 1.8886e-08
3310.0 2.3474e-08
3330.0 2.4995e-08
3350.0 2.5742e-08
3370.0 2.6459e-08
3390.0 2.7188e-08
3410.0 2.7927e-08
3430.0 2.8672e-08
3450.0 2.9416e-08
3470.0 3.0148e-08
3490.0 3.0854e-08
3510.0 3.1499e-08
3530.0 3.1223e-08
3550.0 3.036e-08
3570.0 3.0798e-08
3590.0 3.272e-08
3610.0 3.5653e-08
3630.0 3.6795e-08
3650.0 3.5333e-08
3670.0 3.2462e-08
3690.0 3.0804e-08
3710.0 3.1206e-08
3730.0 3.2234e-08
3750.0 3.2784e-08
3770.0 3.3888e-08
3790.0 3.5122e-08
3810.0 3.4614e-08
3830.0 3.2261e-08
3850.0 3.0162e-08
3870.0 2.9166e-08
3890.0 2.8824e-08
3910.0 2.8171e-08
3930.0 2.7844e-08
3950.0 2.8626e-08
3970.0 2.9541e-08
3990.0 2.9812e-08
4010.0 2.8711e-08
4030.0 2.7148e-08
4050.0 2.6146e-08
4070.0 2.5298e-08
4090.0 2.4608e-08
4110.0 2.3705e-08
4130.0 2.2286e-08
4150.0 2.0861e-08
4170.0 2.0015e-08
4190.0 1.866e-08
4210.0 1.6894e-08
4230.0 1.5105e-08
4250.0 1.3409e-08
4270.0 1.2144e-08
4290.0 1.1204e-08
4310.0 1.0708e-08
4330.0 1.0691e-08
4350.0 1.0736e-08
4370.0 1.0839e-08
4390.0 1.1235e-08
4410.0 1.1509e-08
4430.0 1.1106e-08
4450.0 1.0085e-08
4470.0 9.1956e-09
4490.0 8.7098e-09
4510.0 8.399e-09
4530.0 8.2441e-09
4550.0 8.1117e-09
4570.0 8.078e-09
4590.0 8.1888e-09
4610.0 8.4444e-09
4630.0 8.5968e-09
4650.0 8.6738e-09
4670.0 8.4629e-09
4690.0 7.9613e-09
4710.0 7.4607e-09
4730.0 7.1381e-09
4750.0 6.9396e-09
4770.0 6.9632e-09
4790.0 6.9362e-09
4810.0 6.7873e-09
4830.0 6.7989e-09
4850.0 7.0117e-09
4870.0 7.0811e-09
4890.0 6.9533e-09
4910.0 6.7939e-09
4930.0 6.4075e-09
4950.0 5.8474e-09
4970.0 5.4656e-09
4990.0 5.1524e-09
5010.0 5.0848e-09
5030.0 5.2562e-09
5050.0 5.3913e-09
5070.0 5.5926e-09
5090.0 5.9308e-09
5110.0 6.0214e-09
5130.0 6.0737e-09
5150.0 6.1862e-09
5170.0 6.2374e-09
5190.0 6.401e-09
5210.0 6.4345e-09
5230.0 6.3679e-09
5250.0 6.42e-09
5270.0 6.5101e-09
5290.0 6.5279e-09
5310.0 6.479e-09
5330.0 6.3562e-09
5350.0 6.2686e-09
5370.0 6.2022e-09
5390.0 6.1205e-09
5410.0 6.0523e-09
5430.0 6.0509e-09
5450.0 6.1388e-09
5470.0 6.2528e-09
5490.0 6.4273e-09
5510.0 6.6222e-09
5530.0 6.7037e-09
5550.0 6.8045e-09
5570.0 6.8172e-09
5590.0 6.6733e-09
5610.0 6.6246e-09
5630.0 6.6756e-09
5650.0 6.5944e-09
5670.0 6.4483e-09
5690.0 6.2541e-09
5710.0 6.2394e-09
5730.0 6.3043e-09
5750.0 6.0353e-09
5770.0 5.726e-09
5790.0 5.261e-09
5810.0 4.5992e-09
5830.0 4.9599e-09
5850.0 5.4953e-09
5870.0 5.6163e-09
5890.0 5.6467e-09
5910.0 5.6907e-09
5930.0 5.6795e-09
5950.0 5.5845e-09
5970.0 5.5175e-09
5990.0 5.4368e-09
6010.0 5.2716e-09
6030.0 5.0902e-09
6050.0 5.0108e-09
6070.0 4.99e-09
6090.0 4.9131e-09
6110.0 4.7485e-09
6130.0 4.5876e-09
6150.0 4.4031e-09
6170.0 4.2183e-09
6190.0 4.0319e-09
6210.0 3.8891e-09
6230.0 3.8316e-09
6250.0 3.7505e-09
6270.0 3.672e-09
6290.0 3.6423e-09
6310.0 3.6171e-09
6330.0 3.5372e-09
6350.0 3.4224e-09
6370.0 3.3563e-09
6390.0 3.2917e-09
6410.0 3.1991e-09
6430.0 3.113e-09
6450.0 3.0439e-09
6470.0 2.9782e-09
6490.0 2.9324e-09
6510.0 2.8831e-09
6530.0 2.8094e-09
6550.0 2.7472e-09
6570.0 2.7056e-09
6590.0 2.7002e-09
6610.0 2.6831e-09
6630.0 2.593e-09
6650.0 2.5203e-09
6670.0 2.4946e-09
6690.0 2.4556e-09
6710.0 2.397e-09
6730.0 2.3761e-09
6750.0 2.3946e-09
6770.0 2.5382e-09
6790.0 2.8408e-09
6810.0 2.6967e-09
6830.0 2.3658e-09
6850.0 2.2732e-09
6870.0 2.2383e-09
6890.0 2.2387e-09
6910.0 2.2436e-09
6930.0 2.2491e-09
6950.0 2.2415e-09
6970.0 2.1846e-09
6990.0 2.1649e-09
7010.0 2.1972e-09
7030.0 2.207e-09
7050.0 2.1749e-09
7070.0 2.1545e-09
7090.0 2.17e-09
7110.0 2.2204e-09
7130.0 2.2277e-09
7150.0 2.2356e-09
7170.0 2.2475e-09
7190.0 2.2788e-09
7210.0 2.3028e-09
7230.0 2.3262e-09
7250.0 2.3574e-09
7270.0 2.3794e-09
7290.0 2.4163e-09
7310.0 2.462e-09
7330.0 2.4432e-09
7350.0 2.3921e-09
7370.0 2.3585e-09
7390.0 2.3515e-09
7410.0 2.3632e-09
7430.0 2.3924e-09
7450.0 2.4073e-09
7470.0 2.4403e-09
7490.0 2.426e-09
7510.0 2.4005e-09
7530.0 2.428e-09
7550.0 2.506e-09
7570.0 2.4994e-09
7590.0 2.3699e-09
7610.0 2.3485e-09
7630.0 2.4827e-09
7650.0 2.5316e-09
7670.0 2.5509e-09
7690.0 2.6639e-09
7710.0 2.7504e-09
7730.0 2.7762e-09
7750.0 2.9216e-09
7770.0 2.8457e-09
7790.0 2.7772e-09
7810.0 2.9438e-09
7830.0 3.0554e-09
7850.0 3.134e-09
7870.0 3.1941e-09
7890.0 3.2197e-09
7910.0 3.196e-09
7930.0 3.2185e-09
7950.0 3.3633e-09
7970.0 3.3629e-09
7990.0 3.1321e-09
8010.0 3.0247e-09
8030.0 3.0835e-09
8050.0 3.1486e-09
8070.0 2.8503e-09
8090.0 1.8725e-09
8110.0 1.9531e-09
8130.0 2.7812e-09
8150.0 2.9954e-09
8170.0 3.1146e-09
8190.0 3.1835e-09
8210.0 3.1419e-09
8230.0 3.4038e-09
8250.0 3.477e-09
8270.0 3.2905e-09
8290.0 3.1618e-09
8310.0 3.1144e-09
8330.0 3.2811e-09
8350.0 3.4362e-09
8370.0 3.3727e-09
8390.0 3.2166e-09
8410.0 3.2133e-09
8430.0 3.0112e-09
8450.0 3.0754e-09
8470.0 3.3608e-09
8490.0 3.371e-09
8510.0 3.1257e-09
8530.0 2.9317e-09
8550.0 2.811e-09
8570.0 2.6481e-09
8590.0 2.7238e-09
8610.0 2.8886e-09
8630.0 2.967e-09
8650.0 3.0182e-09
8670.0 2.9366e-09
8690.0 2.8681e-09
8710.0 2.6692e-09
8730.0 2.5727e-09
8750.0 2.6762e-09
8770.0 2.7174e-09
8790.0 2.7111e-09
8810.0 2.696e-09
8830.0 2.7524e-09
8850.0 2.8909e-09
8870.0 2.6997e-09
8890.0 2.5453e-09
8910.0 2.508e-09
8930.0 2.3598e-09
8950.0 2.2718e-09
8970.0 2.27e-09
8990.0 2.1732e-09
9010.0 2.04e-09
9030.0 1.9938e-09
9050.0 1.9772e-09
9070.0 1.9625e-09
9090.0 1.9476e-09
9110.0 1.9327e-09
9130.0 1.9177e-09
9150.0 1.9027e-09
9170.0 1.8876e-09
9190.0 1.8724e-09
9210.0 1.8573e-09
9230.0 1.8421e-09
9250.0 1.8269e-09
9270.0 1.8118e-09
9290.0 1.7966e-09
9310.0 1.7816e-09
9330.0 1.7665e-09
9350.0 1.7516e-09
9370.0 1.7367e-09
9390.0 1.7218e-09
9410.0 1.7071e-09
9430.0 1.6924e-09
9450.0 1.6778e-09
9470.0 1.6634e-09
9490.0 1.649e-09
9510.0 1.6347e-09
9530.0 1.6205e-09
9550.0 1.6064e-09
9570.0 1.5925e-09
9590.0 1.5787e-09
9610.0 1.565e-09
9630.0 1.5515e-09
9650.0 1.5381e-09
9670.0 1.5248e-09
9690.0 1.5117e-09
9710.0 1.4987e-09
9730.0 1.4858e-09
9750.0 1.4731e-09
9770.0 1.4605e-09
9790.0 1.4481e-09
9810.0 1.4358e-09
9830.0 1.4236e-09
9850.0 1.4116e-09
9870.0 1.3997e-09
9890.0 1.388e-09
9910.0 1.3764e-09
9930.0 1.365e-09
9950.0 1.3537e-09
9970.0 1.3426e-09
9990.0 1.3315e-09
10010.0 1.3207e-09
10030.0 1.3099e-09
10050.0 1.2993e-09
10070.0 1.2888e-09
10090.0 1.2785e-09
10110.0 1.2683e-09
10130.0 1.2582e-09
10150.0 1.2483e-09
10170.0 1.2385e-09
10190.0 1.2288e-09
10210.0 1.2192e-09
10230.0 1.2098e-09
10250.0 1.2005e-09
10270.0 1.1913e-09
10290.0 1.1822e-09
10310.0 1.1733e-09
10330.0 1.1644e-09
10350.0 1.1557e-09
10370.0 1.1471e-09
10390.0 1.1384e-09
10410.0 1.1283e-09
10430.0 1.1177e-09
10450.0 1.1114e-09
10470.0 1.1042e-09
10490.0 1.0969e-09
10510.0 1.0894e-09
10530.0 1.0817e-09
10550.0 1.074e-09
10570.0 1.0666e-09
10590.0 1.0591e-09
10610.0 1.0516e-09
10630.0 1.0443e-09
10650.0 1.0371e-09
10670.0 1.0298e-09
10690.0 1.0227e-09
10710.0 1.0158e-09
10730.0 1.0089e-09
10750.0 1.0018e-09
10770.0 9.9517e-10
10790.0 9.8852e-10
10810.0 9.818e-10
10830.0 9.7524e-10
10850.0 9.6888e-10
10870.0 9.6233e-10
10890.0 9.5584e-10
10910.0 9.4956e-10
10930.0 9.4326e-10
10950.0 9.3679e-10
10970.0 9.3039e-10
10990.0 9.241e-10
11010.0 9.0462e-10
11030.0 8.9801e-10
11050.0 8.915e-10
11070.0 8.8485e-10
11090.0 8.7782e-10
11110.0 8.7099e-10
11130.0 8.6417e-10
11150.0 8.571e-10
11170.0 8.4994e-10
11190.0 8.43e-10
11210.0 8.3589e-10
11230.0 8.2863e-10
11250.0 8.216e-10
11270.0 8.1475e-10
11290.0 8.078e-10
11310.0 8.0104e-10
11330.0 7.9482e-10
11350.0 7.8873e-10
11370.0 7.828e-10
11390.0 7.7731e-10
11410.0 7.7215e-10
11430.0 7.6701e-10
11450.0 7.6217e-10
11470.0 7.5763e-10
11490.0 7.5315e-10
11510.0 7.4865e-10
11530.0 7.4436e-10
11550.0 7.4011e-10
11570.0 7.357e-10
11590.0 7.3127e-10
11610.0 7.2689e-10
11630.0 7.2229e-10
11650.0 7.1748e-10
11670.0 7.1277e-10
11690.0 7.0797e-10
11710.0 7.0293e-10
11730.0 6.9786e-10
11750.0 6.9293e-10
11770.0 6.8778e-10
11790.0 6.8257e-10
11810.0 6.7752e-10
11830.0 6.7252e-10
11850.0 6.6734e-10
11870.0 6.624e-10
11890.0 6.5773e-10
11910.0 6.5308e-10
11930.0 6.4854e-10
11950.0 6.4437e-10
11970.0 6.4036e-10
11990.0 6.3643e-10
12010.0 6.3284e-10
12030.0 6.2955e-10
12050.0 6.2641e-10
12070.0 6.2347e-10
12090.0 6.2091e-10
12110.0 6.1853e-10
12130.0 6.1629e-10
12150.0 6.1427e-10
12170.0 6.1244e-10
12190.0 6.1063e-10
12210.0 6.0891e-10
12230.0 6.0728e-10
12250.0 6.0561e-10
12270.0 6.0382e-10
12290.0 6.0196e-10
12310.0 6e-10
12330.0 5.9776e-10
12350.0 5.9529e-10
12370.0 5.9266e-10
12390.0 5.8973e-10
12410.0 5.8635e-10
12430.0 5.8286e-10
12450.0 5.7914e-10
12470.0 5.7504e-10
12490.0 5.7069e-10
12510.0 5.6632e-10
12530.0 5.6164e-10
12550.0 5.5667e-10
12570.0 5.5172e-10
12590.0 5.4673e-10
12610.0 5.4146e-10
12630.0 5.3616e-10
12650.0 5.3112e-10
12670.0 5.2597e-10
12690.0 5.2078e-10
12710.0 5.1585e-10
12730.0 5.1108e-10
12750.0 5.0619e-10
12770.0 5.0159e-10
12790.0 4.9731e-10
12810.0 4.9313e-10
12830.0 4.8908e-10
12850.0 4.8546e-10
12870.0 4.8208e-10
12890.0 4.7885e-10
12910.0 4.7593e-10
12930.0 4.7337e-10
12950.0 4.7099e-10
12970.0 4.6887e-10
12990.0 4.6715e-10
13010.0 4.657e-10
13030.0 4.645e-10
13050.0 4.6359e-10
13070.0 4.6294e-10
13090.0 4.6247e-10
13110.0 4.6218e-10
13130.0 4.6201e-10
13150.0 4.6191e-10
13170.0 4.6181e-10
13190.0 4.6166e-10
13210.0 4.6141e-10
13230.0 4.61e-10
13250.0 4.6037e-10
13270.0 4.5953e-10
13290.0 4.5844e-10
13310.0 4.5701e-10
13330.0 4.5533e-10
13350.0 4.5341e-10
13370.0 4.5115e-10
13390.0 4.4856e-10
13410.0 4.4588e-10
13430.0 4.4292e-10
13450.0 4.3965e-10
13470.0 4.3626e-10
13490.0 4.3279e-10
13510.0 4.2892e-10
13530.0 4.2495e-10
13550.0 4.21e-10
13570.0 4.1689e-10
13590.0 4.1255e-10
13610.0 4.0828e-10
13630.0 4.0406e-10
13650.0 3.9961e-10
13670.0 3.9515e-10
13690.0 3.9083e-10
13710.0 3.8645e-10
13730.0 3.8186e-10
13750.0 3.7758e-10
13770.0 3.7338e-10
13790.0 3.6911e-10
13810.0 3.6495e-10
13830.0 3.6107e-10
13850.0 3.5716e-10
13870.0 3.533e-10
13890.0 3.497e-10
13910.0 3.4625e-10
13930.0 3.4279e-10
13950.0 3.3949e-10
13970.0 3.3648e-10
13990.0 3.335e-10
14010.0 3.3059e-10
14030.0 3.279e-10
14050.0 3.2534e-10
14070.0 3.2277e-10
14090.0 3.2038e-10
14110.0 3.1817e-10
14130.0 3.1602e-10
14150.0 3.1393e-10
14170.0 3.1203e-10
14190.0 3.1023e-10
14210.0 3.0844e-10
14230.0 3.0676e-10
14250.0 3.0519e-10
14270.0 3.036e-10
14290.0 3.0204e-10
14310.0 3.006e-10
14330.0 2.9918e-10
14350.0 2.9775e-10
14370.0 2.9637e-10
14390.0 2.9505e-10
14410.0 2.9371e-10
14430.0 2.9237e-10
14450.0 2.911e-10
14470.0 2.8984e-10
14490.0 2.8852e-10
14510.0 2.8727e-10
14530.0 2.8605e-10
14550.0 2.8479e-10
14570.0 2.8353e-10
14590.0 2.823e-10
14610.0 2.8105e-10
14630.0 2.7974e-10
14650.0 2.7845e-10
14670.0 2.7718e-10
14690.0 2.7585e-10
14710.0 2.7448e-10
14730.0 2.7317e-10
14750.0 2.7181e-10
14770.0 2.704e-10
14790.0 2.69e-10
14810.0 2.6761e-10
14830.0 2.661e-10
14850.0 2.6459e-10
14870.0 2.6311e-10
14890.0 2.616e-10
14910.0 2.6005e-10
14930.0 2.5858e-10
14950.0 2.572e-10
14970.0 2.5583e-10
14990.0 2.5459e-10
15010.0 2.535e-10
15030.0 2.5251e-10
15050.0 2.516e-10
15070.0 2.5084e-10
15090.0 2.5014e-10
15110.0 2.4946e-10
15130.0 2.4882e-10
15150.0 2.4822e-10
15170.0 2.476e-10
15190.0 2.4697e-10
15210.0 2.4637e-10
15230.0 2.4577e-10
15250.0 2.4515e-10
15270.0 2.4453e-10
15290.0 2.4395e-10
15310.0 2.4334e-10
15330.0 2.4272e-10
15350.0 2.4212e-10
15370.0 2.4153e-10
15390.0 2.409e-10
15410.0 2.4029e-10
15430.0 2.397e-10
15450.0 2.3909e-10
15470.0 2.3846e-10
15490.0 2.3787e-10
15510.0 2.3728e-10
15530.0 2.3666e-10
15550.0 2.3605e-10
15570.0 2.3546e-10
15590.0 2.3485e-10
15610.0 2.3422e-10
15630.0 2.3363e-10
15650.0 2.3303e-10
15670.0 2.3241e-10
15690.0 2.3181e-10
15710.0 2.3122e-10
15730.0 2.3061e-10
15750.0 2.2999e-10
15770.0 2.294e-10
15790.0 2.288e-10
15810.0 2.2817e-10
15830.0 2.2757e-10
15850.0 2.2698e-10
15870.0 2.2637e-10
15890.0 2.2576e-10
15910.0 2.2517e-10
15930.0 2.2457e-10
15950.0 2.2394e-10
15970.0 2.2334e-10
15990.0 2.2275e-10
16010.0 2.2214e-10
16030.0 2.2152e-10
16050.0 2.2093e-10
16070.0 2.2033e-10
16090.0 2.1972e-10
16110.0 2.1912e-10
16130.0 2.1853e-10
16150.0 2.1791e-10
16170.0 2.173e-10
16190.0 2.1671e-10
16210.0 2.1611e-10
16230.0 2.1549e-10
16250.0 2.1489e-10
16270.0 2.143e-10
16290.0 2.1369e-10
16310.0 2.1308e-10
16330.0 2.1249e-10
16350.0 2.1189e-10
16370.0 2.1126e-10
16390.0 2.1067e-10
16410.0 2.1008e-10
16430.0 2.0947e-10
16450.0 2.0886e-10
16470.0 2.0828e-10
16490.0 2.0767e-10
16510.0 2.0706e-10
16530.0 2.0646e-10
16550.0 2.0587e-10
16570.0 2.0525e-10
16590.0 2.0464e-10
16610.0 2.0406e-10
16630.0 2.0345e-10
16650.0 2.0284e-10
16670.0 2.0225e-10
16690.0 2.0166e-10
16710.0 2.0104e-10
16730.0 2.0043e-10
16750.0 1.9985e-10
16770.0 1.9924e-10
16790.0 1.9862e-10
16810.0 1.9804e-10
16830.0 1.9744e-10
16850.0 1.9683e-10
16870.0 1.9623e-10
16890.0 1.9564e-10
16910.0 1.9503e-10
16930.0 1.9441e-10
16950.0 1.9383e-10
16970.0 1.9323e-10
16990.0 1.9262e-10
17010.0 1.9202e-10
17030.0 1.9143e-10
17050.0 1.9082e-10
17070.0 1.9021e-10
17090.0 1.8962e-10
17110.0 1.8903e-10
17130.0 1.884e-10
17150.0 1.8781e-10
17170.0 1.8722e-10
17190.0 1.8661e-10
17210.0 1.8601e-10
17230.0 1.8542e-10
17250.0 1.8482e-10
17270.0 1.842e-10
17290.0 1.8361e-10
17310.0 1.8302e-10
17330.0 1.8241e-10
17350.0 1.8179e-10
17370.0 1.8121e-10
17390.0 1.8061e-10
17410.0 1.8e-10
17430.0 1.794e-10
17450.0 1.7882e-10
17470.0 1.782e-10
17490.0 1.7759e-10
17510.0 1.77e-10
17530.0 1.764e-10
17550.0 1.7579e-10
17570.0 1.752e-10
17590.0 1.7461e-10
17610.0 1.74e-10
17630.0 1.7339e-10
17650.0 1.728e-10
17670.0 1.722e-10
17690.0 1.7157e-10
17710.0 1.7099e-10
17730.0 1.704e-10
17750.0 1.6979e-10
17770.0 1.6918e-10
17790.0 1.686e-10
17810.0 1.6799e-10
17830.0 1.6738e-10
17850.0 1.6679e-10
17870.0 1.6619e-10
17890.0 1.6558e-10
17910.0 1.6497e-10
17930.0 1.6439e-10
17950.0 1.6378e-10
17970.0 1.6317e-10
17990.0 1.6258e-10
18010.0 1.6199e-10
18030.0 1.6137e-10
18050.0 1.6077e-10
18070.0 1.6018e-10
18090.0 1.5957e-10
18110.0 1.5896e-10
18130.0 1.5837e-10
18150.0 1.5778e-10
18170.0 1.5716e-10
18190.0 1.5657e-10
18210.0 1.5598e-10
18230.0 1.5537e-10
18250.0 1.5475e-10
18270.0 1.5416e-10
18290.0 1.5357e-10
18310.0 1.5295e-10
18330.0 1.5235e-10
18350.0 1.5177e-10
18370.0 1.5116e-10
18390.0 1.5055e-10
18410.0 1.4996e-10
18430.0 1.4936e-10
18450.0 1.4874e-10
18470.0 1.4814e-10
18490.0 1.4755e-10
18510.0 1.4694e-10
18530.0 1.4634e-10
18550.0 1.4575e-10
18570.0 1.4515e-10
18590.0 1.4453e-10
18610.0 1.4393e-10
18630.0 1.4334e-10
18650.0 1.4273e-10
18670.0 1.4212e-10
18690.0 1.4153e-10
18710.0 1.4093e-10
18730.0 1.4032e-10
18750.0 1.3973e-10
18770.0 1.3914e-10
18790.0 1.3851e-10
18810.0 1.3791e-10
18830.0 1.3732e-10
18850.0 1.3672e-10
18870.0 1.361e-10
18890.0 1.3551e-10
18910.0 1.3492e-10
18930.0 1.343e-10
18950.0 1.337e-10
18970.0 1.3311e-10
18990.0 1.3251e-10
19010.0 1.3188e-10
19030.0 1.3129e-10
19050.0 1.307e-10
19070.0 1.3009e-10
19090.0 1.2948e-10
19110.0 1.289e-10
19130.0 1.2829e-10
19150.0 1.2767e-10
19170.0 1.2708e-10
19190.0 1.2648e-10
19210.0 1.2586e-10
19230.0 1.2526e-10
19250.0 1.2467e-10
19270.0 1.2407e-10
19290.0 1.2346e-10
19310.0 1.2287e-10
19330.0 1.2227e-10
19350.0 1.2165e-10
19370.0 1.2105e-10
19390.0 1.2046e-10
19410.0 1.1985e-10
19430.0 1.1923e-10
19450.0 1.1864e-10
19470.0 1.1805e-10
19490.0 1.1743e-10
19510.0 1.1683e-10
19530.0 1.1624e-10
19550.0 1.1563e-10
19570.0 1.1501e-10
19590.0 1.1442e-10
19610.0 1.1382e-10
19630.0 1.1321e-10
19650.0 1.1261e-10
19670.0 1.1202e-10
19690.0 1.1141e-10
19710.0 1.108e-10
19730.0 1.1021e-10
19750.0 1.0961e-10
19770.0 1.0898e-10
19790.0 1.0838e-10
19810.0 1.078e-10
19830.0 1.0719e-10
19850.0 1.0658e-10
19870.0 1.06e-10
19890.0 1.0541e-10
19910.0 1.0481e-10
19930.0 1.0425e-10
19950.0 1.0373e-10
19970.0 1.0323e-10
19990.0 1.0279e-10
20010.0 1.0242e-10
20030.0 1.021e-10
20050.0 1.0183e-10
20070.0 1.0163e-10
20090.0 1.0146e-10
20110.0 1.0131e-10
20130.0 1.0119e-10
20150.0 1.0107e-10
20170.0 1.0096e-10
20190.0 1.0085e-10
20210.0 1.0074e-10
20230.0 1.0062e-10
20250.0 1.0049e-10
20270.0 1.0036e-10
20290.0 1.0022e-10
20310.0 1.0008e-10
20330.0 9.9916e-11
20350.0 9.9757e-11
20370.0 9.9589e-11
20390.0 9.9407e-11
20410.0 9.9222e-11
20430.0 9.9037e-11
20450.0 9.8836e-11
20470.0 9.8631e-11
20490.0 9.8432e-11
20510.0 9.8231e-11
20530.0 9.8022e-11
20550.0 9.7822e-11
20570.0 9.7631e-11
20590.0 9.7437e-11
20610.0 9.7247e-11
20630.0 9.7068e-11
20650.0 9.689e-11
20670.0 9.6707e-11
20690.0 9.6532e-11
20710.0 9.636e-11
20730.0 9.6178e-11
20750.0 9.599e-11
20770.0 9.5802e-11
20790.0 9.56e-11
20810.0 9.5379e-11
20830.0 9.5149e-11
20850.0 9.4907e-11
20870.0 9.4636e-11
20890.0 9.4347e-11
20910.0 9.4055e-11
20930.0 9.3742e-11
20950.0 9.3405e-11
20970.0 9.3067e-11
20990.0 9.2724e-11
21010.0 9.2356e-11
21030.0 9.1987e-11
21050.0 9.1628e-11
21070.0 9.126e-11
21090.0 9.0881e-11
21110.0 9.0523e-11
21130.0 9.0172e-11
21150.0 8.9812e-11
21170.0 8.946e-11
21190.0 8.9123e-11
21210.0 8.8775e-11
21230.0 8.8421e-11
21250.0 8.8081e-11
21270.0 8.774e-11
21290.0 8.7383e-11
21310.0 8.7024e-11
21330.0 8.6674e-11
21350.0 8.6304e-11
21370.0 8.592e-11
21390.0 8.5536e-11
21410.0 8.5145e-11
21430.0 8.472e-11
21450.0 8.4299e-11
21470.0 8.388e-11
21490.0 8.3441e-11
21510.0 8.2986e-11
21530.0 8.2543e-11
21550.0 8.2091e-11
21570.0 8.1615e-11
21590.0 8.1146e-11
21610.0 8.0685e-11
21630.0 8.0208e-11
21650.0 7.9715e-11
21670.0 7.9255e-11
21690.0 7.8788e-11
21710.0 7.8308e-11
21730.0 7.7839e-11
21750.0 7.7387e-11
21770.0 7.6908e-11
21790.0 7.6434e-11
21810.0 7.5978e-11
21830.0 7.5517e-11
21850.0 7.5041e-11
21870.0 7.4578e-11
21890.0 7.413e-11
21910.0 7.3664e-11
21930.0 7.3201e-11
21950.0 7.2756e-11
21970.0 7.2308e-11
21990.0 7.1845e-11
22010.0 7.141e-11
22030.0 7.099e-11
22050.0 7.0567e-11
22070.0 7.0156e-11
22090.0 6.9779e-11
22110.0 6.9406e-11
22130.0 6.9039e-11
22150.0 6.8701e-11
22170.0 6.8383e-11
22190.0 6.8066e-11
22210.0 6.7769e-11
22230.0 6.75e-11
22250.0 6.7238e-11
22270.0 6.6983e-11
22290.0 6.6747e-11
22310.0 6.6522e-11
22330.0 6.6294e-11
22350.0 6.6074e-11
22370.0 6.5866e-11
22390.0 6.5654e-11
22410.0 6.5437e-11
22430.0 6.523e-11
22450.0 6.5022e-11
22470.0 6.4805e-11
22490.0 6.4589e-11
22510.0 6.4378e-11
22530.0 6.4155e-11
22550.0 6.3927e-11
22570.0 6.3707e-11
22590.0 6.3487e-11
22610.0 6.3261e-11
22630.0 6.3039e-11
22650.0 6.2829e-11
