#lamb flux
1010.0 3.8625e-06
1030.0 4.2452e-06
1050.0 4.6855e-06
1070.0 5.1812e-06
1090.0 5.7443e-06
1110.0 6.3221e-06
1130.0 6.9037e-06
1150.0 7.5132e-06
1170.0 8.1421e-06
1190.0 8.7387e-06
1210.0 9.3436e-06
1230.0 9.969e-06
1250.0 1.0582e-05
1270.0 1.1178e-05
1290.0 1.1807e-05
1310.0 1.2437e-05
1330.0 1.3041e-05
1350.0 1.3653e-05
1370.0 1.4284e-05
1390.0 1.4901e-05
1410.0 1.5499e-05
1430.0 1.6125e-05
1450.0 1.6751e-05
1470.0 1.7357e-05
1490.0 1.797e-05
1510.0 1.8617e-05
1530.0 1.9231e-05
1550.0 1.9837e-05
1570.0 2.0464e-05
1590.0 2.1091e-05
1610.0 2.1691e-05
1630.0 2.2309e-05
1650.0 2.2943e-05
1670.0 2.3555e-05
1690.0 2.4159e-05
1710.0 2.4786e-05
1730.0 2.5415e-05
1750.0 2.6005e-05
1770.0 2.6611e-05
1790.0 2.7228e-05
1810.0 2.7822e-05
1830.0 2.8403e-05
1850.0 2.9018e-05
1870.0 2.9613e-05
1890.0 3.0183e-05
1910.0 3.0761e-05
1930.0 3.135e-05
1950.0 3.1905e-05
1970.0 3.2447e-05
1990.0 3.3005e-05
2010.0 3.3546e-05
2030.0 3.4058e-05
2050.0 3.458e-05
2070.0 3.5108e-05
2090.0 3.5592e-05
2110.0 3.6065e-05
2130.0 3.6544e-05
2150.0 3.7e-05
2170.0 3.742e-05
2190.0 3.7848e-05
2210.0 3.8266e-05
2230.0 3.8647e-05
2250.0 3.9011e-05
2270.0 3.9384e-05
2290.0 3.9723e-05
2310.0 4.0023e-05
2330.0 4.0324e-05
2350.0 4.0612e-05
2370.0 4.0862e-05
2390.0 4.1105e-05
2410.0 4.1365e-05
2430.0 4.161e-05
2450.0 4.1856e-05
2470.0 4.2155e-05
2490.0 4.2543e-05
2510.0 4.3025e-05
2530.0 4.3783e-05
2550.0 4.5092e-05
2570.0 4.7203e-05
2590.0 5.0411e-05
2610.0 5.5548e-05
2630.0 6.2717e-05
2650.0 7.143e-05
2670.0 8.1705e-05
2690.0 9.3051e-05
2710.0 0.0001038
2730.0 0.00011322
2750.0 0.00012148
2770.0 0.00012779
2790.0 0.00013219
2810.0 0.00013537
2830.0 0.00013783
2850.0 0.00013953
2870.0 0.00014094
2890.0 0.00014237
2910.0 0.00014378
2930.0 0.00014506
2950.0 0.00014647
2970.0 0.00014797
2990.0 0.00014939
3010.0 0.001614
3030.0 0.0016228
3050.0 0.001631
3070.0 0.0016365
3090.0 0.0016404
3110.0 0.0016397
3130.0 0.0016309
3150.0 0.0016119
3170.0 0.0015788
3190.0 0.0015319
3210.0 0.001475
3230.0 0.0014148
3250.0 0.001417
3270.0 0.001371
3290.0 0.0014384
3310.0 0.0013826
3330.0 0.0014155
3350.0 0.0014712
3370.0 0.0015429
3390.0 0.0016277
3410.0 0.0017164
3430.0 0.0018127
3450.0 0.0019185
3470.0 0.0020281
3490.0 0.0021362
3510.0 0.0022724
3530.0 0.0024336
3550.0 0.0025395
3570.0 0.0026178
3590.0 0.002803
3610.0 0.0028483
3630.0 0.0030704
3650.0 0.0032389
3670.0 0.0034301
3690.0 0.0034893
3710.0 0.0034316
3730.0 0.0035156
3750.0 0.0035239
3770.0 0.0033496
3790.0 0.0031579
3810.0 0.0030198
3830.0 0.0029852
3850.0 0.0029499
3870.0 0.0031871
3890.0 0.0037013
3910.0 0.0044283
3930.0 0.0051196
3950.0 0.0054908
3970.0 0.0053404
3990.0 0.0048564
4010.0 0.0050771
4030.0 0.0057068
4050.0 0.0058931
4070.0 0.0053325
4090.0 0.0044112
4110.0 0.0046607
4130.0 0.0053428
4150.0 0.0054225
4170.0 0.0052372
4190.0 0.0050572
4210.0 0.0055429
4230.0 0.0057807
4250.0 0.0061473
4270.0 0.0062772
4290.0 0.0061082
4310.0 0.0065201
4330.0 0.0071704
4350.0 0.0080674
4370.0 0.0088022
4390.0 0.0085118
4410.0 0.0072435
4430.0 0.0059489
4450.0 0.0049365
4470.0 0.0049116
4490.0 0.0053296
4510.0 0.0064593
4530.0 0.0069917
4550.0 0.0076646
4570.0 0.0091201
4590.0 0.011145
4610.0 0.014337
4630.0 0.017498
4650.0 0.018049
4670.0 0.018062
4690.0 0.01888
4710.0 0.019052
4730.0 0.016064
4750.0 0.011915
4770.0 0.0097146
4790.0 0.0089883
4810.0 0.0086844
4830.0 0.0087776
4850.0 0.0099666
4870.0 0.011859
4890.0 0.013322
4910.0 0.01189
4930.0 0.01146
4950.0 0.013302
4970.0 0.016748
4990.0 0.020408
5010.0 0.020918
5030.0 0.017374
5050.0 0.012183
5070.0 0.0087715
5090.0 0.0075767
5110.0 0.0076799
5130.0 0.0082575
5150.0 0.0083884
5170.0 0.008275
5190.0 0.008239
5210.0 0.0081738
5230.0 0.0086086
5250.0 0.0092762
5270.0 0.010344
5290.0 0.011937
5310.0 0.013349
5330.0 0.013925
5350.0 0.014209
5370.0 0.015335
5390.0 0.016157
5410.0 0.01524
5430.0 0.013657
5450.0 0.013464
5470.0 0.015595
5490.0 0.019598
5510.0 0.023932
5530.0 0.025763
5550.0 0.025191
5570.0 0.023578
5590.0 0.021622
5610.0 0.020434
5630.0 0.020288
5650.0 0.020678
5670.0 0.020161
5690.0 0.018839
5710.0 0.018034
5730.0 0.016134
5750.0 0.01282
5770.0 0.011331
5790.0 0.012397
5810.0 0.014243
5830.0 0.015981
5850.0 0.016751
5870.0 0.016752
5890.0 0.01609
5910.0 0.015324
5930.0 0.015211
5950.0 0.015868
5970.0 0.016433
5990.0 0.014977
6010.0 0.012531
6030.0 0.010455
6050.0 0.009394
6070.0 0.0095392
6090.0 0.010534
6110.0 0.011079
6130.0 0.010559
6150.0 0.010267
6170.0 0.01127
6190.0 0.013259
6210.0 0.01576
6230.0 0.017704
6250.0 0.017306
6270.0 0.015296
6290.0 0.012776
6310.0 0.010283
6330.0 0.0085161
6350.0 0.008074
6370.0 0.0088496
6390.0 0.01014
6410.0 0.01177
6430.0 0.013842
6450.0 0.016282
6470.0 0.019609
6490.0 0.023421
6510.0 0.025202
6530.0 0.023909
6550.0 0.0226
6570.0 0.022386
6590.0 0.021733
6610.0 0.020308
6630.0 0.018798
6650.0 0.017621
6670.0 0.017623
6690.0 0.017214
6710.0 0.015807
6730.0 0.014058
6750.0 0.012604
6770.0 0.012762
6790.0 0.013636
6810.0 0.014423
6830.0 0.014659
6850.0 0.014041
6870.0 0.013576
6890.0 0.013233
6910.0 0.01253
6930.0 0.012159
6950.0 0.012171
6970.0 0.012475
6990.0 0.013542
7010.0 0.014243
7030.0 0.013484
7050.0 0.012381
7070.0 0.011329
7090.0 0.0098936
7110.0 0.0090889
7130.0 0.0093301
7150.0 0.0097312
7170.0 0.010203
7190.0 0.010133
7210.0 0.010094
7230.0 0.011019
7250.0 0.012565
7270.0 0.014058
7290.0 0.014787
7310.0 0.014185
7330.0 0.012795
7350.0 0.011663
7370.0 0.011277
7390.0 0.011477
7410.0 0.012247
7430.0 0.013688
7450.0 0.014972
7470.0 0.016379
7490.0 0.017509
7510.0 0.015845
7530.0 0.014835
7550.0 0.013026
7570.0 0.011079
7590.0 0.0091722
7610.0 0.0085894
7630.0 0.0090811
7650.0 0.010414
7670.0 0.011752
7690.0 0.013047
7710.0 0.0145
7730.0 0.015307
7750.0 0.015825
7770.0 0.016063
7790.0 0.016154
7810.0 0.016373
7830.0 0.015818
7850.0 0.01498
7870.0 0.014075
7890.0 0.013088
7910.0 0.011763
7930.0 0.010503
7950.0 0.0094464
7970.0 0.0092105
7990.0 0.0094889
8010.0 0.010219
8030.0 0.010344
8050.0 0.010485
8070.0 0.010261
8090.0 0.010209
8110.0 0.0098489
8130.0 0.0093241
8150.0 0.0087739
8170.0 0.0086828
8190.0 0.0088427
8210.0 0.0088611
8230.0 0.0087034
8250.0 0.0084619
8270.0 0.0074978
8290.0 0.0059052
8310.0 0.0043502
8330.0 0.0030045
8350.0 0.0021913
8370.0 0.0023083
8390.0 0.0025954
8410.0 0.0031981
8430.0 0.0039255
8450.0 0.0043022
8470.0 0.0044955
8490.0 0.0047977
8510.0 0.00509
8530.0 0.0057117
8550.0 0.006531
8570.0 0.0075482
8590.0 0.0087649
8610.0 0.01014
8630.0 0.01178
8650.0 0.012882
8670.0 0.012836
8690.0 0.012353
8710.0 0.011785
8730.0 0.011244
8750.0 0.010725
8770.0 0.010482
8790.0 0.01011
8810.0 0.0093645
8830.0 0.008709
8850.0 0.0075947
8870.0 0.0067645
8890.0 0.0061534
8910.0 0.0064555
8930.0 0.006227
8950.0 0.0064426
8970.0 0.0065579
8990.0 0.006673
9010.0 0.0068747
9030.0 0.0067813
9050.0 0.0067759
9070.0 0.0067819
9090.0 0.0067873
9110.0 0.0067905
9130.0 0.006796
9150.0 0.0068042
9170.0 0.0068072
9190.0 0.0068031
9210.0 0.0068481
9230.0 0.0068499
9250.0 0.0068572
9270.0 0.0068662
9290.0 0.0068765
9310.0 0.0068885
9330.0 0.0069015
9350.0 0.0069152
9370.0 0.0069298
9390.0 0.0069453
9410.0 0.0069613
9430.0 0.0069778
9450.0 0.0069954
9470.0 0.0070136
9490.0 0.0070323
9510.0 0.0070517
9530.0 0.007072
9550.0 0.0070925
9570.0 0.0071137
9590.0 0.0071357
9610.0 0.0071583
9630.0 0.0071812
9650.0 0.0072049
9670.0 0.0072293
9690.0 0.007254
9710.0 0.0072792
9730.0 0.0073051
9750.0 0.0073314
9770.0 0.0073579
9790.0 0.0073851
9810.0 0.0074128
9830.0 0.0074407
9850.0 0.007469
9870.0 0.0074979
9890.0 0.0075269
9910.0 0.0075561
9930.0 0.0075857
9950.0 0.007613
9970.0 0.0076437
9990.0 0.0076745
10010.0 0.0076698
10030.0 0.0077003
10050.0 0.0077292
10070.0 0.0077503
10090.0 0.0077843
10110.0 0.0078173
10130.0 0.0078495
10150.0 0.0078814
10170.0 0.0079124
10190.0 0.0079421
10210.0 0.0079724
10230.0 0.0080026
10250.0 0.0080317
10270.0 0.0080606
10290.0 0.00809
10310.0 0.0081183
10330.0 0.0081455
10350.0 0.0081733
10370.0 0.0082007
10390.0 0.0082269
10410.0 0.0082527
10430.0 0.0082788
10450.0 0.0083037
10470.0 0.0083274
10490.0 0.0083513
10510.0 0.0083746
10530.0 0.0083959
10550.0 0.008417
10570.0 0.0084382
10590.0 0.0084579
10610.0 0.0084763
10630.0 0.0084948
10650.0 0.0085124
10670.0 0.0085279
10690.0 0.0085431
10710.0 0.0085579
10730.0 0.0085711
10750.0 0.0085825
10770.0 0.0085944
10790.0 0.0086049
10810.0 0.0086135
10830.0 0.0086211
10850.0 0.0086277
10870.0 0.0086301
10890.0 0.0086277
10910.0 0.0086191
10930.0 0.0085988
10950.0 0.008559
10970.0 0.008497
10990.0 0.0084108
11010.0 0.0083188
11030.0 0.0081557
11050.0 0.0079674
11070.0 0.0077501
11090.0 0.0074966
11110.0 0.0072417
11130.0 0.0069836
11150.0 0.006715
11170.0 0.0064498
11190.0 0.0062049
11210.0 0.0059656
11230.0 0.0057354
11250.0 0.0055304
11270.0 0.005347
11290.0 0.0051764
11310.0 0.0050263
11330.0 0.0049025
11350.0 0.004791
11370.0 0.004691
11390.0 0.0046041
11410.0 0.0045248
11430.0 0.0044443
11450.0 0.0043651
11470.0 0.0042852
11490.0 0.0041986
11510.0 0.0041022
11530.0 0.0040024
11550.0 0.0038965
11570.0 0.00378
11590.0 0.0036593
11610.0 0.0035391
11630.0 0.0034131
11650.0 0.0032847
11670.0 0.0031646
11690.0 0.0030489
11710.0 0.0029356
11730.0 0.0028308
11750.0 0.0027375
11770.0 0.0026489
11790.0 0.0025675
11810.0 0.002496
11830.0 0.0024311
11850.0 0.0023691
11870.0 0.0023134
11890.0 0.0022624
11910.0 0.0022118
11930.0 0.0021615
11950.0 0.0021128
11970.0 0.0020628
11990.0 0.0020096
12010.0 0.0019561
12030.0 0.0019024
12050.0 0.0018463
12070.0 0.001789
12090.0 0.0017357
12110.0 0.0016837
12130.0 0.0016337
12150.0 0.0015893
12170.0 0.0015515
12190.0 0.0015189
12210.0 0.0014949
12230.0 0.0014802
12250.0 0.0014743
12270.0 0.0014782
12290.0 0.0014914
12310.0 0.0015124
12330.0 0.0015428
12350.0 0.0015806
12370.0 0.0016227
12390.0 0.00167
12410.0 0.0017234
12430.0 0.001775
12450.0 0.0018257
12470.0 0.0018767
12490.0 0.0019243
12510.0 0.0019653
12530.0 0.0020025
12550.0 0.0020344
12570.0 0.0020583
12590.0 0.002075
12610.0 0.0020854
12630.0 0.0020883
12650.0 0.002084
12670.0 0.0020736
12690.0 0.0020572
12710.0 0.002036
12730.0 0.0020107
12750.0 0.0019804
12770.0 0.0019474
12790.0 0.0019126
12810.0 0.0018753
12830.0 0.0018354
12850.0 0.0017957
12870.0 0.0017552
12890.0 0.0017122
12910.0 0.0016687
12930.0 0.0016254
12950.0 0.0015795
12970.0 0.0015317
12990.0 0.001485
13010.0 0.0014374
13030.0 0.001388
13050.0 0.0013392
13070.0 0.0012924
13090.0 0.0012449
13110.0 0.0011988
13130.0 0.0011563
13150.0 0.0011167
13170.0 0.0010791
13190.0 0.0010469
13210.0 0.00102
13230.0 0.00099734
13250.0 0.00097981
13270.0 0.00096791
13290.0 0.00096083
13310.0 0.00095869
13330.0 0.00096116
13350.0 0.00096739
13370.0 0.00097738
13390.0 0.00099057
13410.0 0.0010048
13430.0 0.0010206
13450.0 0.0010377
13470.0 0.0010543
13490.0 0.0010699
13510.0 0.0010856
13530.0 0.0010997
13550.0 0.0011115
13570.0 0.0011219
13590.0 0.0011308
13610.0 0.0011376
13630.0 0.0011426
13650.0 0.0011463
13670.0 0.0011485
13690.0 0.0011493
13710.0 0.001149
13730.0 0.0011477
13750.0 0.0011452
13770.0 0.0011418
13790.0 0.0011375
13810.0 0.0011321
13830.0 0.0011259
13850.0 0.0011186
13870.0 0.0011101
13890.0 0.0011007
13910.0 0.0010904
13930.0 0.0010787
13950.0 0.0010662
13970.0 0.0010536
13990.0 0.0010401
14010.0 0.0010262
14030.0 0.0010127
14050.0 0.00099957
14070.0 0.00098631
14090.0 0.00097415
14110.0 0.00096323
14130.0 0.00095324
14150.0 0.00094444
14170.0 0.00093739
14190.0 0.00093179
14210.0 0.00092764
14230.0 0.00092519
14250.0 0.00092433
14270.0 0.00092514
14290.0 0.00092773
14310.0 0.0009317
14330.0 0.00093711
14350.0 0.00094414
14370.0 0.00095224
14390.0 0.00096098
14410.0 0.00097099
14430.0 0.00098172
14450.0 0.00099251
14470.0 0.0010037
14490.0 0.0010158
14510.0 0.0010278
14530.0 0.0010398
14550.0 0.0010529
14570.0 0.001067
14590.0 0.0010816
14610.0 0.001098
14630.0 0.001117
14650.0 0.0011376
14670.0 0.0011602
14690.0 0.0011862
14710.0 0.0012153
14730.0 0.0012451
14750.0 0.0012778
14770.0 0.0013134
14790.0 0.0013494
14810.0 0.0013853
14830.0 0.0014236
14850.0 0.0014606
14870.0 0.0014948
14890.0 0.0015275
14910.0 0.001558
14930.0 0.0015838
14950.0 0.0016051
14970.0 0.0016229
14990.0 0.0016357
15010.0 0.001644
15030.0 0.0016487
15050.0 0.0016502
15070.0 0.0016493
15090.0 0.0016468
15110.0 0.0016432
15130.0 0.001639
15150.0 0.0016347
15170.0 0.0016301
15190.0 0.0016254
15210.0 0.0016209
15230.0 0.0016164
15250.0 0.0016117
15270.0 0.0016071
15290.0 0.0016027
15310.0 0.0015983
15330.0 0.0015937
15350.0 0.0015894
15370.0 0.0015851
15390.0 0.0015805
15410.0 0.0015761
15430.0 0.0015719
15450.0 0.0015676
15470.0 0.0015631
15490.0 0.0015589
15510.0 0.0015547
15530.0 0.0015504
15550.0 0.0015461
15570.0 0.001542
15590.0 0.0015377
15610.0 0.0015333
15630.0 0.0015292
15650.0 0.0015251
15670.0 0.0015208
15690.0 0.0015166
15710.0 0.0015126
15730.0 0.0015083
15750.0 0.0015041
15770.0 0.0015
15790.0 0.0014959
15810.0 0.0014916
15830.0 0.0014874
15850.0 0.0014834
15870.0 0.0014792
15890.0 0.0014749
15910.0 0.0014709
15930.0 0.0014667
15950.0 0.0014624
15970.0 0.0014583
15990.0 0.0014542
16010.0 0.0014499
16030.0 0.0014456
16050.0 0.0014415
16070.0 0.0014374
16090.0 0.0014331
16110.0 0.0014289
16130.0 0.0014248
16150.0 0.0014204
16170.0 0.001416
16190.0 0.0014119
16210.0 0.0014076
16230.0 0.0014032
16250.0 0.001399
16270.0 0.0013948
16290.0 0.0013904
16310.0 0.001386
16330.0 0.0013817
16350.0 0.0013774
16370.0 0.0013728
16390.0 0.0013685
16410.0 0.0013641
16430.0 0.0013596
16450.0 0.0013552
16470.0 0.0013509
16490.0 0.0013463
16510.0 0.0013417
16530.0 0.0013373
16550.0 0.0013328
16570.0 0.0013281
16590.0 0.0013235
16610.0 0.0013191
16630.0 0.0013145
16650.0 0.0013098
16670.0 0.0013052
16690.0 0.0013007
16710.0 0.0012958
16730.0 0.0012911
16750.0 0.0012865
16770.0 0.0012817
16790.0 0.0012769
16810.0 0.0012722
16830.0 0.0012675
16850.0 0.0012626
16870.0 0.0012578
16890.0 0.0012531
16910.0 0.0012482
16930.0 0.0012431
16950.0 0.0012383
16970.0 0.0012335
16990.0 0.0012284
17010.0 0.0012235
17030.0 0.0012187
17050.0 0.0012136
17070.0 0.0012085
17090.0 0.0012036
17110.0 0.0011986
17130.0 0.0011934
17150.0 0.0011883
17170.0 0.0011834
17190.0 0.0011782
17210.0 0.001173
17230.0 0.001168
17250.0 0.0011629
17270.0 0.0011575
17290.0 0.0011524
17310.0 0.0011473
17330.0 0.001142
17350.0 0.0011366
17370.0 0.0011315
17390.0 0.0011263
17410.0 0.0011209
17430.0 0.0011156
17450.0 0.0011105
17470.0 0.001105
17490.0 0.0010996
17510.0 0.0010943
17530.0 0.001089
17550.0 0.0010835
17570.0 0.0010782
17590.0 0.0010729
17610.0 0.0010674
17630.0 0.0010619
17650.0 0.0010566
17670.0 0.0010512
17690.0 0.0010455
17710.0 0.0010401
17730.0 0.0010348
17750.0 0.0010292
17770.0 0.0010237
17790.0 0.0010184
17810.0 0.0010128
17830.0 0.0010072
17850.0 0.0010017
17870.0 0.00099625
17890.0 0.00099058
17910.0 0.00098499
17930.0 0.00097961
17950.0 0.00097403
17970.0 0.0009684
17990.0 0.00096294
18010.0 0.00095745
18030.0 0.0009517
18050.0 0.00094613
18070.0 0.00094065
18090.0 0.00093503
18110.0 0.00092934
18130.0 0.00092388
18150.0 0.00091835
18170.0 0.00091266
18190.0 0.00090709
18210.0 0.00090162
18230.0 0.00089593
18250.0 0.00089021
18270.0 0.00088473
18290.0 0.00087918
18310.0 0.00087349
18330.0 0.00086794
18350.0 0.00086249
18370.0 0.00085681
18390.0 0.00085117
18410.0 0.00084568
18430.0 0.00084013
18450.0 0.00083438
18470.0 0.00082884
18490.0 0.00082339
18510.0 0.00081777
18530.0 0.00081217
18550.0 0.00080675
18570.0 0.00080119
18590.0 0.0007955
18610.0 0.00079
18630.0 0.00078455
18650.0 0.00077894
18670.0 0.00077333
18690.0 0.00076796
18710.0 0.00076246
18730.0 0.00075687
18750.0 0.00075144
18770.0 0.00074606
18790.0 0.00074041
18810.0 0.00073489
18830.0 0.00072954
18850.0 0.00072407
18870.0 0.00071852
18890.0 0.00071317
18910.0 0.00070783
18930.0 0.00070231
18950.0 0.00069688
18970.0 0.00069158
18990.0 0.00068617
19010.0 0.0006806
19030.0 0.00067533
19050.0 0.00067004
19070.0 0.00066461
19090.0 0.00065927
19110.0 0.00065409
19130.0 0.0006487
19150.0 0.00064329
19170.0 0.00063807
19190.0 0.00063283
19210.0 0.00062743
19230.0 0.00062214
19250.0 0.00061703
19270.0 0.00061176
19290.0 0.00060647
19310.0 0.00060135
19330.0 0.00059621
19350.0 0.00059085
19370.0 0.00058568
19390.0 0.00058061
19410.0 0.00057541
19430.0 0.00057018
19450.0 0.00056517
19470.0 0.0005601
19490.0 0.0005549
19510.0 0.00054984
19530.0 0.00054487
19550.0 0.00053971
19570.0 0.00053454
19590.0 0.00052962
19610.0 0.00052462
19630.0 0.00051952
19650.0 0.00051457
19670.0 0.00050971
19690.0 0.00050464
19710.0 0.00049963
19730.0 0.00049478
19750.0 0.00048986
19770.0 0.00048479
19790.0 0.00047993
19810.0 0.00047513
19830.0 0.00047019
19850.0 0.00046525
19870.0 0.00046045
19890.0 0.00045541
19910.0 0.00045007
19930.0 0.00044464
19950.0 0.00043881
19970.0 0.00043218
19990.0 0.00042482
20010.0 0.00041782
20030.0 0.00040901
20050.0 0.00039939
20070.0 0.0003896
20090.0 0.00037971
20110.0 0.00036925
20130.0 0.00035937
20150.0 0.0003502
20170.0 0.00034131
20190.0 0.00033292
20210.0 0.00032552
20230.0 0.00031876
20250.0 0.00031247
20270.0 0.00030703
20290.0 0.00030242
20310.0 0.0002984
20330.0 0.00029501
20350.0 0.00029252
20370.0 0.00029066
20390.0 0.00028943
20410.0 0.00028888
20430.0 0.00028895
20450.0 0.00028967
20470.0 0.00029103
20490.0 0.0002929
20510.0 0.00029534
20530.0 0.00029841
20550.0 0.00030191
20570.0 0.00030567
20590.0 0.00030997
20610.0 0.00031461
20630.0 0.0003193
20650.0 0.00032421
20670.0 0.0003295
20690.0 0.00033457
20710.0 0.00033952
20730.0 0.00034456
20750.0 0.0003495
20770.0 0.00035406
20790.0 0.00035858
20810.0 0.00036311
20830.0 0.00036739
20850.0 0.00037153
20870.0 0.00037585
20890.0 0.00038019
20910.0 0.00038435
20930.0 0.00038871
20950.0 0.00039328
20970.0 0.0003978
20990.0 0.00040232
21010.0 0.00040713
21030.0 0.00041184
21050.0 0.00041631
21070.0 0.0004207
21090.0 0.000425
21110.0 0.00042874
21130.0 0.00043206
21150.0 0.00043506
21170.0 0.0004375
21190.0 0.00043933
21210.0 0.00044067
21230.0 0.00044142
21250.0 0.00044154
21270.0 0.00044109
21290.0 0.00044004
21310.0 0.00043841
21330.0 0.00043633
21350.0 0.00043367
21370.0 0.00043048
21390.0 0.00042693
21410.0 0.00042301
21430.0 0.00041846
21450.0 0.00041372
21470.0 0.00040886
21490.0 0.00040365
21510.0 0.00039821
21530.0 0.00039291
21550.0 0.00038758
21570.0 0.00038209
21590.0 0.00037688
21610.0 0.00037201
21630.0 0.00036728
21650.0 0.00036283
21670.0 0.00035909
21690.0 0.00035579
21710.0 0.00035296
21730.0 0.00035081
21750.0 0.00034933
21770.0 0.00034845
21790.0 0.0003483
21810.0 0.00034883
21830.0 0.00035004
21850.0 0.000352
21870.0 0.00035457
21890.0 0.00035764
21910.0 0.00036142
21930.0 0.00036576
21950.0 0.0003704
21970.0 0.00037554
21990.0 0.00038134
22010.0 0.00038717
22030.0 0.00039317
22050.0 0.00039955
22070.0 0.00040606
22090.0 0.0004123
22110.0 0.00041868
22130.0 0.00042511
22150.0 0.00043115
22170.0 0.00043685
22190.0 0.00044247
22210.0 0.00044762
22230.0 0.00045201
22250.0 0.00045597
22270.0 0.00045934
22290.0 0.0004619
22310.0 0.00046372
22330.0 0.0004648
22350.0 0.00046498
22370.0 0.0004643
22390.0 0.00046273
22410.0 0.00046016
22430.0 0.00045681
22450.0 0.00045266
22470.0 0.0004475
22490.0 0.00044158
22510.0 0.00043515
22530.0 0.00042774
22550.0 0.00041952
22570.0 0.00041109
22590.0 0.00040218
22610.0 0.00039252
22630.0 0.00038264
22650.0 0.00037293
22670.0 0.00036266
22690.0 0.00035216
22710.0 0.000342
22730.0 0.00033191
22750.0 0.00032137
22770.0 0.00031144
22790.0 0.00030207
22810.0 0.00029277
22830.0 0.00028381
22850.0 0.00027573
22870.0 0.0002681
22890.0 0.00026084
22910.0 0.0002545
22930.0 0.00024903
22950.0 0.0002442
22970.0 0.00024019
22990.0 0.00023735
23010.0 0.00023534
23030.0 0.00023427
23050.0 0.0002342
23070.0 0.00023503
23090.0 0.00023689
23110.0 0.00023968
23130.0 0.00024321
23150.0 0.00024755
23170.0 0.00025277
23190.0 0.00025844
23210.0 0.00026441
23230.0 0.00027102
23250.0 0.00027785
23270.0 0.00028456
23290.0 0.00029138
23310.0 0.00029835
23330.0 0.0003047
23350.0 0.0003106
23370.0 0.00031621
23390.0 0.0003212
23410.0 0.00032533
23430.0 0.00032888
23450.0 0.00033171
23470.0 0.00033363
23490.0 0.00033474
23510.0 0.00033504
23530.0 0.00033447
23550.0 0.00033315
