#lamb flux
1010.0 7.0092e-06
1030.0 9.1918e-06
1050.0 1.1964e-05
1070.0 1.5423e-05
1090.0 1.9756e-05
1110.0 2.4793e-05
1130.0 3.0517e-05
1150.0 3.7128e-05
1170.0 4.4601e-05
1190.0 5.2502e-05
1210.0 6.099e-05
1230.0 7.0098e-05
1250.0 7.9371e-05
1270.0 8.852e-05
1290.0 9.7806e-05
1310.0 0.00010665
1330.0 0.0001145
1350.0 0.00012146
1370.0 0.00012745
1390.0 0.00013193
1410.0 0.00013478
1430.0 0.00013643
1450.0 0.00013661
1470.0 0.00013523
1490.0 0.00013269
1510.0 0.00012929
1530.0 0.00012471
1550.0 0.00011944
1570.0 0.00011391
1590.0 0.00010813
1610.0 0.00010214
1630.0 9.6349e-05
1650.0 9.0833e-05
1670.0 8.5524e-05
1690.0 8.0567e-05
1710.0 7.6117e-05
1730.0 7.2115e-05
1750.0 6.8453e-05
1770.0 6.531e-05
1790.0 6.2649e-05
1810.0 6.0374e-05
1830.0 5.8501e-05
1850.0 5.7109e-05
1870.0 5.606e-05
1890.0 5.5332e-05
1910.0 5.4973e-05
1930.0 5.4969e-05
1950.0 5.5223e-05
1970.0 5.5765e-05
1990.0 5.6635e-05
2010.0 5.7764e-05
2030.0 5.912e-05
2050.0 6.0769e-05
2070.0 6.2697e-05
2090.0 6.4802e-05
2110.0 6.7137e-05
2130.0 6.9733e-05
2150.0 7.2526e-05
2170.0 7.5473e-05
2190.0 7.8663e-05
2210.0 8.205e-05
2230.0 8.5563e-05
2250.0 8.9235e-05
2270.0 9.3121e-05
2290.0 9.7105e-05
2310.0 0.00010115
2330.0 0.00010536
2350.0 0.00010967
2370.0 0.00011399
2390.0 0.00011837
2410.0 0.00012286
2430.0 0.00012731
2450.0 0.00013173
2470.0 0.00013624
2490.0 0.00014088
2510.0 0.00014565
2530.0 0.00015091
2550.0 0.00015719
2570.0 0.00016491
2590.0 0.00017464
2610.0 0.00018818
2630.0 0.00020628
2650.0 0.00022891
2670.0 0.00025755
2690.0 0.00029324
2710.0 0.00033345
2730.0 0.0003766
2750.0 0.00042399
2770.0 0.00047115
2790.0 0.00051423
2810.0 0.00055338
2830.0 0.00058832
2850.0 0.00061465
2870.0 0.00063501
2890.0 0.00065137
2910.0 0.00066384
2930.0 0.0006728
2950.0 0.00068052
2970.0 0.00068719
2990.0 0.00069223
3010.0 0.00069629
3030.0 0.00070023
3050.0 0.00070355
3070.0 0.0007054
3090.0 0.00070717
3110.0 0.00070888
3130.0 0.00071045
3150.0 0.00070535
3170.0 0.00070581
3190.0 0.00071055
3210.0 0.00072257
3230.0 0.00074809
3250.0 0.00080099
3270.0 0.0008745
3290.0 0.00095268
3310.0 0.001035
3330.0 0.0010575
3350.0 0.001064
3370.0 0.00107
3390.0 0.0010748
3410.0 0.001075
3430.0 0.0010716
3450.0 0.0010671
3470.0 0.0010647
3490.0 0.0010539
3510.0 0.001013
3530.0 0.0009267
3550.0 0.00087446
3570.0 0.00097316
3590.0 0.001131
3610.0 0.0012516
3630.0 0.0014259
3650.0 0.0014
3670.0 0.001213
3690.0 0.0010375
3710.0 0.00096834
3730.0 0.00099624
3750.0 0.0010184
3770.0 0.0010462
3790.0 0.0010761
3810.0 0.0011121
3830.0 0.0010272
3850.0 0.00091284
3870.0 0.0008551
3890.0 0.00090447
3910.0 0.00093694
3930.0 0.00094111
3950.0 0.00099509
3970.0 0.0010596
3990.0 0.0010713
4010.0 0.0010888
4030.0 0.0010529
4050.0 0.0010245
4070.0 0.0010068
4090.0 0.001016
4110.0 0.0010304
4130.0 0.001008
4150.0 0.00097083
4170.0 0.00095907
4190.0 0.00094982
4210.0 0.0008858
4230.0 0.00081814
4250.0 0.00073907
4270.0 0.00066891
4290.0 0.0006467
4310.0 0.00063874
4330.0 0.00065944
4350.0 0.00072981
4370.0 0.00076449
4390.0 0.0008451
4410.0 0.00091027
4430.0 0.00093591
4450.0 0.00086972
4470.0 0.00079771
4490.0 0.00077906
4510.0 0.00076672
4530.0 0.00076781
4550.0 0.0007671
4570.0 0.00078038
4590.0 0.00081081
4610.0 0.00083083
4630.0 0.00085004
4650.0 0.00085915
4670.0 0.00085541
4690.0 0.00080742
4710.0 0.00076198
4730.0 0.00072566
4750.0 0.00070682
4770.0 0.00068429
4790.0 0.00068843
4810.0 0.00067668
4830.0 0.00063539
4850.0 0.00068382
4870.0 0.00064688
4890.0 0.00066323
4910.0 0.00067429
4930.0 0.00064092
4950.0 0.00055052
4970.0 0.00051674
4990.0 0.00048824
5010.0 0.00045586
5030.0 0.00045614
5050.0 0.00049127
5070.0 0.00050272
5090.0 0.00052698
5110.0 0.00053405
5130.0 0.0005304
5150.0 0.00053955
5170.0 0.00051791
5190.0 0.00051407
5210.0 0.00052426
5230.0 0.00050223
5250.0 0.00051346
5270.0 0.00054049
5290.0 0.00053129
5310.0 0.00050181
5330.0 0.00048688
5350.0 0.00045611
5370.0 0.00044744
5390.0 0.0004438
5410.0 0.00043108
5430.0 0.00043999
5450.0 0.00042288
5470.0 0.00042375
5490.0 0.00046833
5510.0 0.00047489
5530.0 0.00047566
5550.0 0.00047286
5570.0 0.00048112
5590.0 0.00048417
5610.0 0.00047871
5630.0 0.00047285
5650.0 0.0004667
5670.0 0.00045635
5690.0 0.00044785
5710.0 0.00043551
5730.0 0.00044344
5750.0 0.00042815
5770.0 0.00040649
5790.0 0.00039324
5810.0 0.00036564
5830.0 0.00038018
5850.0 0.00039371
5870.0 0.00039254
5890.0 0.00039513
5910.0 0.00041137
5930.0 0.00040969
5950.0 0.00041129
5970.0 0.00041135
5990.0 0.00041563
6010.0 0.00040563
6030.0 0.00039988
6050.0 0.00039561
6070.0 0.00038796
6090.0 0.00039276
6110.0 0.0003885
6130.0 0.00037564
6150.0 0.00036676
6170.0 0.00035845
6190.0 0.00033065
6210.0 0.0003255
6230.0 0.00032903
6250.0 0.00032566
6270.0 0.00032372
6290.0 0.00033168
6310.0 0.00034151
6330.0 0.0003407
6350.0 0.00033363
6370.0 0.00033398
6390.0 0.00032137
6410.0 0.00031938
6430.0 0.00030991
6450.0 0.00030844
6470.0 0.00030756
6490.0 0.00030775
6510.0 0.0002972
6530.0 0.00029486
6550.0 0.00029055
6570.0 0.00028348
6590.0 0.00028915
6610.0 0.00028901
6630.0 0.00028328
6650.0 0.00027328
6670.0 0.00026846
6690.0 0.00026319
6710.0 0.00025592
6730.0 0.00025244
6750.0 0.00025423
6770.0 0.00026071
6790.0 0.00026034
6810.0 0.00025805
6830.0 0.00024581
6850.0 0.00023261
6870.0 0.00022879
6890.0 0.00022729
6910.0 0.0002267
6930.0 0.00022394
6950.0 0.00022626
6970.0 0.00022004
6990.0 0.00021732
7010.0 0.00021777
7030.0 0.00022054
7050.0 0.00021683
7070.0 0.00020454
7090.0 0.00019572
7110.0 0.00019546
7130.0 0.00019818
7150.0 0.0001992
7170.0 0.0001986
7190.0 0.00019452
7210.0 0.00020325
7230.0 0.00021047
7250.0 0.00021067
7270.0 0.00021085
7290.0 0.00021484
7310.0 0.00020976
7330.0 0.00020472
7350.0 0.0001973
7370.0 0.00019838
7390.0 0.00020291
7410.0 0.00019141
7430.0 0.00019319
7450.0 0.00019119
7470.0 0.00019757
7490.0 0.00019556
7510.0 0.00018637
7530.0 0.00019033
7550.0 0.000175
7570.0 0.00016958
7590.0 0.00016969
7610.0 0.00017623
7630.0 0.00017659
7650.0 0.00018322
7670.0 0.00017003
7690.0 0.00016501
7710.0 0.00017254
7730.0 0.00018298
7750.0 0.00017936
7770.0 0.00018739
7790.0 0.00018793
7810.0 0.00018794
7830.0 0.0001996
7850.0 0.00019148
7870.0 0.00020243
7890.0 0.00019622
7910.0 0.00019344
7930.0 0.0001858
7950.0 0.00018372
7970.0 0.00018816
7990.0 0.00018287
8010.0 0.00017604
8030.0 0.00017428
8050.0 0.00017078
8070.0 0.00016757
8090.0 0.00015514
8110.0 0.00015578
8130.0 0.00016533
8150.0 0.00017119
8170.0 0.00017228
8190.0 0.00017716
8210.0 0.00017397
8230.0 0.00017001
8250.0 0.00016955
8270.0 0.0001663
8290.0 0.0001629
8310.0 0.00015502
8330.0 0.00015532
8350.0 0.0001572
8370.0 0.00015819
8390.0 0.00015819
8410.0 0.00015597
8430.0 0.00015416
8450.0 0.00015419
8470.0 0.00015931
8490.0 0.00016117
8510.0 0.00015538
8530.0 0.0001496
8550.0 0.00014932
8570.0 0.00014608
8590.0 0.00014296
8610.0 0.00014565
8630.0 0.00014514
8650.0 0.00014364
8670.0 0.00014261
8690.0 0.00014113
8710.0 0.00013477
8730.0 0.00013539
8750.0 0.00013196
8770.0 0.00013238
8790.0 0.00013027
8810.0 0.00012716
8830.0 0.00012776
8850.0 0.00012732
8870.0 0.00012137
8890.0 0.00011746
8910.0 0.00011303
8930.0 0.00010699
8950.0 0.00010484
8970.0 0.00010038
8990.0 9.8931e-05
9010.0 9.5961e-05
9030.0 9.496e-05
9050.0 9.4356e-05
9070.0 9.3769e-05
9090.0 9.3176e-05
9110.0 9.2568e-05
9130.0 9.1962e-05
9150.0 9.1366e-05
9170.0 9.0764e-05
9190.0 9.0158e-05
9210.0 8.9546e-05
9230.0 8.8932e-05
9250.0 8.8317e-05
9270.0 8.7699e-05
9290.0 8.7079e-05
9310.0 8.6465e-05
9330.0 8.5862e-05
9350.0 8.5257e-05
9370.0 8.4653e-05
9390.0 8.4048e-05
9410.0 8.3444e-05
9430.0 8.2839e-05
9450.0 8.2236e-05
9470.0 8.1689e-05
9490.0 8.1114e-05
9510.0 8.0484e-05
9530.0 7.9862e-05
9550.0 7.9254e-05
9570.0 7.8655e-05
9590.0 7.8058e-05
9610.0 7.7474e-05
9630.0 7.6898e-05
9650.0 7.6323e-05
9670.0 7.5749e-05
9690.0 7.5181e-05
9710.0 7.4618e-05
9730.0 7.4055e-05
9750.0 7.3496e-05
9770.0 7.2946e-05
9790.0 7.2396e-05
9810.0 7.1849e-05
9830.0 7.1307e-05
9850.0 7.0719e-05
9870.0 7.0135e-05
9890.0 6.9653e-05
9910.0 6.9161e-05
9930.0 6.8569e-05
9950.0 6.8055e-05
9970.0 6.759e-05
9990.0 6.7112e-05
10010.0 6.6639e-05
10030.0 6.6159e-05
10050.0 6.5673e-05
10070.0 6.5196e-05
10090.0 6.4725e-05
10110.0 6.4252e-05
10130.0 6.3784e-05
10150.0 6.3329e-05
10170.0 6.2877e-05
10190.0 6.2425e-05
10210.0 6.1985e-05
10230.0 6.1553e-05
10250.0 6.1121e-05
10270.0 6.0695e-05
10290.0 6.0281e-05
10310.0 5.9867e-05
10330.0 5.9455e-05
10350.0 5.9055e-05
10370.0 5.8661e-05
10390.0 5.8266e-05
10410.0 5.7855e-05
10430.0 5.7446e-05
10450.0 5.7101e-05
10470.0 5.6743e-05
10490.0 5.6392e-05
10510.0 5.6044e-05
10530.0 5.5689e-05
10550.0 5.5342e-05
10570.0 5.5008e-05
10590.0 5.4672e-05
10610.0 5.4338e-05
10630.0 5.4018e-05
10650.0 5.3702e-05
10670.0 5.3382e-05
10690.0 5.3073e-05
10710.0 5.2773e-05
10730.0 5.2472e-05
10750.0 5.217e-05
10770.0 5.1886e-05
10790.0 5.1604e-05
10810.0 5.1321e-05
10830.0 5.1046e-05
10850.0 5.0782e-05
10870.0 5.0511e-05
10890.0 5.0245e-05
10910.0 4.9991e-05
10930.0 4.974e-05
10950.0 4.9485e-05
10970.0 4.9238e-05
10990.0 4.8999e-05
11010.0 5.5325e-05
11030.0 5.502e-05
11050.0 5.4691e-05
11070.0 5.4332e-05
11090.0 5.3936e-05
11110.0 5.3538e-05
11130.0 5.3133e-05
11150.0 5.2711e-05
11170.0 5.2283e-05
11190.0 5.1867e-05
11210.0 5.1442e-05
11230.0 5.1009e-05
11250.0 5.059e-05
11270.0 5.0183e-05
11290.0 4.9771e-05
11310.0 4.9371e-05
11330.0 4.9005e-05
11350.0 4.8647e-05
11370.0 4.8301e-05
11390.0 4.7984e-05
11410.0 4.7688e-05
11430.0 4.7396e-05
11450.0 4.7124e-05
11470.0 4.6874e-05
11490.0 4.6629e-05
11510.0 4.6386e-05
11530.0 4.6158e-05
11550.0 4.5935e-05
11570.0 4.5704e-05
11590.0 4.5475e-05
11610.0 4.5251e-05
11630.0 4.5015e-05
11650.0 4.4768e-05
11670.0 4.4527e-05
11690.0 4.4281e-05
11710.0 4.4021e-05
11730.0 4.3759e-05
11750.0 4.3504e-05
11770.0 4.3235e-05
11790.0 4.296e-05
11810.0 4.2693e-05
11830.0 4.2428e-05
11850.0 4.215e-05
11870.0 4.1885e-05
11890.0 4.1636e-05
11910.0 4.1387e-05
11930.0 4.1146e-05
11950.0 4.0927e-05
11970.0 4.0721e-05
11990.0 4.0521e-05
12010.0 4.0344e-05
12030.0 4.019e-05
12050.0 4.0049e-05
12070.0 3.9925e-05
12090.0 3.9828e-05
12110.0 3.9747e-05
12130.0 3.9681e-05
12150.0 3.9633e-05
12170.0 3.9601e-05
12190.0 3.9577e-05
12210.0 3.9562e-05
12230.0 3.9556e-05
12250.0 3.955e-05
12270.0 3.9542e-05
12290.0 3.9531e-05
12310.0 3.9513e-05
12330.0 3.9481e-05
12350.0 3.9435e-05
12370.0 3.9375e-05
12390.0 3.9297e-05
12410.0 3.9191e-05
12430.0 3.9072e-05
12450.0 3.8934e-05
12470.0 3.877e-05
12490.0 3.8584e-05
12510.0 3.839e-05
12530.0 3.817e-05
12550.0 3.7926e-05
12570.0 3.7674e-05
12590.0 3.7412e-05
12610.0 3.7124e-05
12630.0 3.6825e-05
12650.0 3.6536e-05
12670.0 3.623e-05
12690.0 3.5914e-05
12710.0 3.5606e-05
12730.0 3.5303e-05
12750.0 3.4983e-05
12770.0 3.4675e-05
12790.0 3.4383e-05
12810.0 3.4091e-05
12830.0 3.3801e-05
12850.0 3.3537e-05
12870.0 3.3286e-05
12890.0 3.3038e-05
12910.0 3.281e-05
12930.0 3.2607e-05
12950.0 3.2412e-05
12970.0 3.2234e-05
12990.0 3.2086e-05
13010.0 3.1957e-05
13030.0 3.1846e-05
13050.0 3.1759e-05
13070.0 3.1694e-05
13090.0 3.1645e-05
13110.0 3.1611e-05
13130.0 3.1593e-05
13150.0 3.1584e-05
13170.0 3.1581e-05
13190.0 3.1581e-05
13210.0 3.1581e-05
13230.0 3.1576e-05
13250.0 3.1563e-05
13270.0 3.1541e-05
13290.0 3.1507e-05
13310.0 3.1457e-05
13330.0 3.1393e-05
13350.0 3.1315e-05
13370.0 3.1218e-05
13390.0 3.1101e-05
13410.0 3.0974e-05
13430.0 3.0828e-05
13450.0 3.066e-05
13470.0 3.0479e-05
13490.0 3.0288e-05
13510.0 3.007e-05
13530.0 2.984e-05
13550.0 2.9606e-05
13570.0 2.9359e-05
13590.0 2.9094e-05
13610.0 2.8829e-05
13630.0 2.8564e-05
13650.0 2.8282e-05
13670.0 2.7996e-05
13690.0 2.7715e-05
13710.0 2.7427e-05
13730.0 2.7121e-05
13750.0 2.6831e-05
13770.0 2.6541e-05
13790.0 2.6241e-05
13810.0 2.5943e-05
13830.0 2.5658e-05
13850.0 2.5366e-05
13870.0 2.5072e-05
13890.0 2.4791e-05
13910.0 2.4517e-05
13930.0 2.4237e-05
13950.0 2.3966e-05
13970.0 2.3714e-05
13990.0 2.3462e-05
14010.0 2.3213e-05
14030.0 2.2981e-05
14050.0 2.2759e-05
14070.0 2.2534e-05
14090.0 2.2323e-05
14110.0 2.2126e-05
14130.0 2.1933e-05
14150.0 2.1745e-05
14170.0 2.1571e-05
14190.0 2.1404e-05
14210.0 2.1237e-05
14230.0 2.1078e-05
14250.0 2.0927e-05
14270.0 2.0775e-05
14290.0 2.0625e-05
14310.0 2.0483e-05
14330.0 2.0344e-05
14350.0 2.0205e-05
14370.0 2.007e-05
14390.0 1.9943e-05
14410.0 1.9813e-05
14430.0 1.9686e-05
14450.0 1.9566e-05
14470.0 1.9447e-05
14490.0 1.9327e-05
14510.0 1.9212e-05
14530.0 1.91e-05
14550.0 1.8987e-05
14570.0 1.8874e-05
14590.0 1.8764e-05
14610.0 1.8653e-05
14630.0 1.8538e-05
14650.0 1.8425e-05
14670.0 1.8313e-05
14690.0 1.8196e-05
14710.0 1.8078e-05
14730.0 1.7963e-05
14750.0 1.7845e-05
14770.0 1.7724e-05
14790.0 1.7603e-05
14810.0 1.7482e-05
14830.0 1.7354e-05
14850.0 1.7225e-05
14870.0 1.7099e-05
14890.0 1.6969e-05
14910.0 1.6837e-05
14930.0 1.671e-05
14950.0 1.6589e-05
14970.0 1.6469e-05
14990.0 1.6357e-05
15010.0 1.6256e-05
15030.0 1.6162e-05
15050.0 1.6072e-05
15070.0 1.5993e-05
15090.0 1.5918e-05
15110.0 1.5844e-05
15130.0 1.5773e-05
15150.0 1.5705e-05
15170.0 1.5636e-05
15190.0 1.5566e-05
15210.0 1.5498e-05
15230.0 1.543e-05
15250.0 1.5361e-05
15270.0 1.5291e-05
15290.0 1.5224e-05
15310.0 1.5156e-05
15330.0 1.5087e-05
15350.0 1.502e-05
15370.0 1.4952e-05
15390.0 1.4883e-05
15410.0 1.4815e-05
15430.0 1.4748e-05
15450.0 1.468e-05
15470.0 1.4611e-05
15490.0 1.4545e-05
15510.0 1.4478e-05
15530.0 1.441e-05
15550.0 1.4343e-05
15570.0 1.4276e-05
15590.0 1.4209e-05
15610.0 1.4141e-05
15630.0 1.4075e-05
15650.0 1.4009e-05
15670.0 1.3941e-05
15690.0 1.3875e-05
15710.0 1.381e-05
15730.0 1.3743e-05
15750.0 1.3677e-05
15770.0 1.3611e-05
15790.0 1.3546e-05
15810.0 1.3479e-05
15830.0 1.3414e-05
15850.0 1.335e-05
15870.0 1.3284e-05
15890.0 1.3219e-05
15910.0 1.3155e-05
15930.0 1.3091e-05
15950.0 1.3025e-05
15970.0 1.2961e-05
15990.0 1.2898e-05
16010.0 1.2833e-05
16030.0 1.2769e-05
16050.0 1.2706e-05
16070.0 1.2643e-05
16090.0 1.258e-05
16110.0 1.2517e-05
16130.0 1.2456e-05
16150.0 1.2392e-05
16170.0 1.2329e-05
16190.0 1.2268e-05
16210.0 1.2206e-05
16230.0 1.2144e-05
16250.0 1.2083e-05
16270.0 1.2023e-05
16290.0 1.1961e-05
16310.0 1.19e-05
16330.0 1.1841e-05
16350.0 1.1781e-05
16370.0 1.1719e-05
16390.0 1.166e-05
16410.0 1.1601e-05
16430.0 1.1542e-05
16450.0 1.1483e-05
16470.0 1.1425e-05
16490.0 1.1366e-05
16510.0 1.1308e-05
16530.0 1.125e-05
16550.0 1.1193e-05
16570.0 1.1135e-05
16590.0 1.1078e-05
16610.0 1.1022e-05
16630.0 1.0965e-05
16650.0 1.0909e-05
16670.0 1.0854e-05
16690.0 1.0799e-05
16710.0 1.0742e-05
16730.0 1.0687e-05
16750.0 1.0633e-05
16770.0 1.0578e-05
16790.0 1.0524e-05
16810.0 1.0471e-05
16830.0 1.0418e-05
16850.0 1.0364e-05
16870.0 1.0311e-05
16890.0 1.0259e-05
16910.0 1.0206e-05
16930.0 1.0154e-05
16950.0 1.0103e-05
16970.0 1.0052e-05
16990.0 1e-05
17010.0 9.9494e-06
17030.0 9.9e-06
17050.0 9.8494e-06
17070.0 9.7992e-06
17090.0 9.7504e-06
17110.0 9.7016e-06
17130.0 9.6516e-06
17150.0 9.6033e-06
17170.0 9.5559e-06
17190.0 9.5078e-06
17210.0 9.4599e-06
17230.0 9.4137e-06
17250.0 9.3668e-06
17270.0 9.3194e-06
17290.0 9.2733e-06
17310.0 9.228e-06
17330.0 9.1819e-06
17350.0 9.1359e-06
17370.0 9.092e-06
17390.0 9.0475e-06
17410.0 9.0026e-06
17430.0 8.9589e-06
17450.0 8.916e-06
17470.0 8.8716e-06
17490.0 8.8281e-06
17510.0 8.7861e-06
17530.0 8.7436e-06
17550.0 8.7008e-06
17570.0 8.6594e-06
17590.0 8.6186e-06
17610.0 8.5768e-06
17630.0 8.5357e-06
17650.0 8.4959e-06
17670.0 8.4555e-06
17690.0 8.4142e-06
17710.0 8.3752e-06
17730.0 8.3363e-06
17750.0 8.2967e-06
17770.0 8.2578e-06
17790.0 8.2203e-06
17810.0 8.1817e-06
17830.0 8.1431e-06
17850.0 8.1059e-06
17870.0 8.0689e-06
17890.0 8.031e-06
17910.0 7.9939e-06
17930.0 7.9584e-06
17950.0 7.922e-06
17970.0 7.8856e-06
17990.0 7.8505e-06
18010.0 7.8156e-06
18030.0 7.7793e-06
18050.0 7.7444e-06
18070.0 7.7105e-06
18090.0 7.6758e-06
18110.0 7.6411e-06
18130.0 7.608e-06
18150.0 7.5748e-06
18170.0 7.5408e-06
18190.0 7.5079e-06
18210.0 7.4758e-06
18230.0 7.4426e-06
18250.0 7.4094e-06
18270.0 7.378e-06
18290.0 7.3464e-06
18310.0 7.3141e-06
18330.0 7.2829e-06
18350.0 7.2526e-06
18370.0 7.2211e-06
18390.0 7.19e-06
18410.0 7.16e-06
18430.0 7.1299e-06
18450.0 7.0987e-06
18470.0 7.0691e-06
18490.0 7.0402e-06
18510.0 7.0104e-06
18530.0 6.9808e-06
18550.0 6.9527e-06
18570.0 6.9238e-06
18590.0 6.8942e-06
18610.0 6.866e-06
18630.0 6.8382e-06
18650.0 6.8096e-06
18670.0 6.7811e-06
18690.0 6.7544e-06
18710.0 6.7269e-06
18730.0 6.699e-06
18750.0 6.6721e-06
18770.0 6.6458e-06
18790.0 6.6178e-06
18810.0 6.5908e-06
18830.0 6.565e-06
18850.0 6.5385e-06
18870.0 6.5116e-06
18890.0 6.486e-06
18910.0 6.4607e-06
18930.0 6.4343e-06
18950.0 6.4085e-06
18970.0 6.3836e-06
18990.0 6.3581e-06
19010.0 6.3316e-06
19030.0 6.3071e-06
19050.0 6.2826e-06
19070.0 6.2572e-06
19090.0 6.2323e-06
19110.0 6.2087e-06
19130.0 6.1837e-06
19150.0 6.1586e-06
19170.0 6.1347e-06
19190.0 6.1108e-06
19210.0 6.0859e-06
19230.0 6.0616e-06
19250.0 6.0386e-06
19270.0 6.0146e-06
19290.0 5.9904e-06
19310.0 5.9673e-06
19330.0 5.9441e-06
19350.0 5.9194e-06
19370.0 5.8961e-06
19390.0 5.8733e-06
19410.0 5.8497e-06
19430.0 5.8258e-06
19450.0 5.8035e-06
19470.0 5.7806e-06
19490.0 5.7569e-06
19510.0 5.734e-06
19530.0 5.7118e-06
19550.0 5.6882e-06
19570.0 5.6645e-06
19590.0 5.6425e-06
19610.0 5.6198e-06
19630.0 5.5964e-06
19650.0 5.574e-06
19670.0 5.5521e-06
19690.0 5.5287e-06
19710.0 5.5057e-06
19730.0 5.4837e-06
19750.0 5.4611e-06
19770.0 5.4373e-06
19790.0 5.4151e-06
19810.0 5.3932e-06
19830.0 5.3702e-06
19850.0 5.3474e-06
19870.0 5.326e-06
19890.0 5.3037e-06
19910.0 5.2812e-06
19930.0 5.2608e-06
19950.0 5.242e-06
19970.0 5.2241e-06
19990.0 5.209e-06
20010.0 5.1977e-06
20030.0 5.1888e-06
20050.0 5.1827e-06
20070.0 5.1798e-06
20090.0 5.1792e-06
20110.0 5.18e-06
20130.0 5.1824e-06
20150.0 5.186e-06
20170.0 5.1902e-06
20190.0 5.1948e-06
20210.0 5.1998e-06
20230.0 5.205e-06
20250.0 5.2101e-06
20270.0 5.2153e-06
20290.0 5.2204e-06
20310.0 5.2251e-06
20330.0 5.2294e-06
20350.0 5.2336e-06
20370.0 5.2374e-06
20390.0 5.2405e-06
20410.0 5.2433e-06
20430.0 5.246e-06
20450.0 5.2478e-06
20470.0 5.2494e-06
20490.0 5.251e-06
20510.0 5.2524e-06
20530.0 5.2534e-06
20550.0 5.2547e-06
20570.0 5.2564e-06
20590.0 5.258e-06
20610.0 5.2597e-06
20630.0 5.2619e-06
20650.0 5.2643e-06
20670.0 5.2664e-06
20690.0 5.2689e-06
20710.0 5.2714e-06
20730.0 5.2736e-06
20750.0 5.2753e-06
20770.0 5.277e-06
20790.0 5.2779e-06
20810.0 5.2777e-06
20830.0 5.2769e-06
20850.0 5.2752e-06
20870.0 5.2719e-06
20890.0 5.2675e-06
20910.0 5.2625e-06
20930.0 5.2562e-06
20950.0 5.2484e-06
20970.0 5.2402e-06
20990.0 5.2314e-06
21010.0 5.2209e-06
21030.0 5.2101e-06
21050.0 5.1995e-06
21070.0 5.1881e-06
21090.0 5.1758e-06
21110.0 5.1643e-06
21130.0 5.1529e-06
21150.0 5.1407e-06
21170.0 5.1287e-06
21190.0 5.1172e-06
21210.0 5.1049e-06
21230.0 5.0919e-06
21250.0 5.0794e-06
21270.0 5.0666e-06
21290.0 5.0526e-06
21310.0 5.038e-06
21330.0 5.0238e-06
21350.0 5.008e-06
21370.0 4.9911e-06
21390.0 4.974e-06
21410.0 4.9561e-06
21430.0 4.9358e-06
21450.0 4.9154e-06
21470.0 4.8949e-06
21490.0 4.8727e-06
21510.0 4.8493e-06
21530.0 4.8262e-06
21550.0 4.8022e-06
21570.0 4.7764e-06
21590.0 4.7506e-06
21610.0 4.725e-06
21630.0 4.6979e-06
21650.0 4.6695e-06
21670.0 4.6426e-06
21690.0 4.6149e-06
21710.0 4.5859e-06
21730.0 4.5572e-06
21750.0 4.5291e-06
21770.0 4.4989e-06
21790.0 4.4684e-06
21810.0 4.4387e-06
21830.0 4.4083e-06
21850.0 4.3765e-06
21870.0 4.3451e-06
21890.0 4.3143e-06
21910.0 4.2819e-06
21930.0 4.2493e-06
21950.0 4.2176e-06
21970.0 4.1853e-06
21990.0 4.1515e-06
22010.0 4.1194e-06
22030.0 4.0878e-06
22050.0 4.0556e-06
22070.0 4.0238e-06
22090.0 3.9938e-06
22110.0 3.9638e-06
22130.0 3.9338e-06
22150.0 3.9054e-06
22170.0 3.8781e-06
22190.0 3.8505e-06
22210.0 3.824e-06
22230.0 3.7992e-06
22250.0 3.7746e-06
22270.0 3.7503e-06
22290.0 3.727e-06
22310.0 3.7044e-06
22330.0 3.6813e-06
22350.0 3.6588e-06
22370.0 3.6368e-06
22390.0 3.6145e-06
22410.0 3.5917e-06
22430.0 3.5695e-06
22450.0 3.547e-06
22470.0 3.5239e-06
22490.0 3.5005e-06
22510.0 3.4773e-06
22530.0 3.4532e-06
22550.0 3.4285e-06
22570.0 3.4041e-06
22590.0 3.3793e-06
22610.0 3.3538e-06
22630.0 3.3283e-06
22650.0 3.303e-06
22670.0 3.2771e-06
