#lamb flux
1010.0 4.2356e-06
1030.0 5.1141e-06
1050.0 5.9655e-06
1070.0 6.7179e-06
1090.0 7.3245e-06
1110.0 7.5826e-06
1130.0 7.5454e-06
1150.0 8.4048e-06
1170.0 9.3023e-06
1190.0 1.0144e-05
1210.0 1.061e-05
1230.0 1.1053e-05
1250.0 1.1445e-05
1270.0 1.1808e-05
1290.0 1.2233e-05
1310.0 1.2704e-05
1330.0 1.3222e-05
1350.0 1.3855e-05
1370.0 1.4642e-05
1390.0 1.5559e-05
1410.0 1.6615e-05
1430.0 1.7867e-05
1450.0 1.9283e-05
1470.0 2.0824e-05
1490.0 2.2509e-05
1510.0 2.3527e-05
1530.0 2.4197e-05
1550.0 2.5848e-05
1570.0 3.2733e-05
1590.0 3.9771e-05
1610.0 4.6779e-05
1630.0 5.3765e-05
1650.0 6.0671e-05
1670.0 6.733e-05
1690.0 7.3727e-05
1710.0 7.9943e-05
1730.0 8.5904e-05
1750.0 9.144e-05
1770.0 9.6758e-05
1790.0 0.00010185
1810.0 0.0001066
1830.0 0.00011105
1850.0 0.00011539
1870.0 0.00011941
1890.0 0.00012314
1910.0 0.00012672
1930.0 0.00013018
1950.0 0.00013338
1970.0 0.00013639
1990.0 0.00013931
2010.0 0.00014202
2030.0 0.00014448
2050.0 0.00014685
2070.0 0.00014921
2090.0 0.00015129
2110.0 0.00015326
2130.0 0.0001552
2150.0 0.00015699
2170.0 0.00015857
2190.0 0.00016017
2210.0 0.00016169
2230.0 0.00016303
2250.0 0.00016429
2270.0 0.00016563
2290.0 0.00016684
2310.0 0.00016793
2330.0 0.00016908
2350.0 0.00017024
2370.0 0.00017129
2390.0 0.00017237
2410.0 0.00017358
2430.0 0.00017478
2450.0 0.00017607
2470.0 0.0001777
2490.0 0.00017991
2510.0 0.00018274
2530.0 0.00018687
2550.0 0.00019308
2570.0 0.00020177
2590.0 0.00021347
2610.0 0.00023035
2630.0 0.00025258
2650.0 0.00027937
2670.0 0.00031191
2690.0 0.00035052
2710.0 0.0003918
2730.0 0.00043417
2750.0 0.00047896
2770.0 0.00052235
2790.0 0.00056178
2810.0 0.00059807
2830.0 0.00063128
2850.0 0.0006585
2870.0 0.00068199
2890.0 0.00070323
2910.0 0.00072251
2930.0 0.00074032
2950.0 0.00075815
2970.0 0.00077622
2990.0 0.0007942
3010.0 0.0008124
3030.0 0.0008312
3050.0 0.00085016
3070.0 0.00086857
3090.0 0.00088725
3110.0 0.00090634
3130.0 0.00092625
3150.0 0.00095513
3170.0 0.00099134
3190.0 0.0010405
3210.0 0.0011056
3230.0 0.0011903
3250.0 0.0012848
3270.0 0.0013483
3290.0 0.0014926
3310.0 0.0018757
3330.0 0.0019618
3350.0 0.0019749
3370.0 0.0019835
3390.0 0.0019926
3410.0 0.0020047
3430.0 0.0020191
3450.0 0.0020342
3470.0 0.0020478
3490.0 0.0020641
3510.0 0.0020935
3530.0 0.0020803
3550.0 0.0020049
3570.0 0.00195
3590.0 0.0019767
3610.0 0.0021045
3630.0 0.0020581
3650.0 0.0019314
3670.0 0.0017987
3690.0 0.0017612
3710.0 0.0018257
3730.0 0.0018852
3750.0 0.0019152
3770.0 0.0019867
3790.0 0.0020714
3810.0 0.0020225
3830.0 0.0019082
3850.0 0.0018334
3870.0 0.0018147
3890.0 0.0017895
3910.0 0.001754
3930.0 0.0017641
3950.0 0.0018405
3970.0 0.0019305
3990.0 0.0020052
4010.0 0.0019591
4030.0 0.0019016
4050.0 0.0018886
4070.0 0.0018851
4090.0 0.0018819
4110.0 0.001854
4130.0 0.0017912
4150.0 0.0017311
4170.0 0.0017152
4190.0 0.0016371
4210.0 0.0015337
4230.0 0.0014163
4250.0 0.0013042
4270.0 0.0012312
4290.0 0.0011649
4310.0 0.0011467
4330.0 0.001179
4350.0 0.0011933
4370.0 0.0012381
4390.0 0.0013025
4410.0 0.0013593
4430.0 0.0013275
4450.0 0.0012391
4470.0 0.0011667
4490.0 0.001127
4510.0 0.0011107
4530.0 0.0011114
4550.0 0.0011138
4570.0 0.001124
4590.0 0.0011506
4610.0 0.0012101
4630.0 0.0012479
4650.0 0.0012744
4670.0 0.0012465
4690.0 0.0011806
4710.0 0.0011091
4730.0 0.0010667
4750.0 0.001037
4770.0 0.0010529
4790.0 0.00104
4810.0 0.00101
4830.0 0.0010337
4850.0 0.001034
4870.0 0.0010653
4890.0 0.0010102
4910.0 0.00095258
4930.0 0.00087992
4950.0 0.00081081
4970.0 0.00074111
4990.0 0.00068385
5010.0 0.00067637
5030.0 0.00069243
5050.0 0.00067721
5070.0 0.00069081
5090.0 0.00071822
5110.0 0.00071301
5130.0 0.00070742
5150.0 0.00070261
5170.0 0.00070734
5190.0 0.00071891
5210.0 0.00069905
5230.0 0.00068624
5250.0 0.00067067
5270.0 0.00065203
5290.0 0.00064532
5310.0 0.00064222
5330.0 0.00061988
5350.0 0.00061407
5370.0 0.0005989
5390.0 0.00057978
5410.0 0.00057089
5430.0 0.00055729
5450.0 0.0005731
5470.0 0.00058148
5490.0 0.00057135
5510.0 0.00058857
5530.0 0.00059473
5550.0 0.00060742
5570.0 0.00060314
5590.0 0.00058315
5610.0 0.00058068
5630.0 0.00059224
5650.0 0.00058779
5670.0 0.00057932
5690.0 0.00056336
5710.0 0.00057449
5730.0 0.00058401
5750.0 0.00056495
5770.0 0.00054475
5790.0 0.00049768
5810.0 0.00043259
5830.0 0.00048166
5850.0 0.00055796
5870.0 0.00058702
5890.0 0.00060189
5910.0 0.00061136
5930.0 0.00062501
5950.0 0.0006237
5970.0 0.00062842
5990.0 0.00062835
6010.0 0.00062373
6030.0 0.00061289
6050.0 0.00061712
6070.0 0.00063408
6090.0 0.00063379
6110.0 0.00062299
6130.0 0.00061728
6150.0 0.00060357
6170.0 0.00058786
6190.0 0.00058267
6210.0 0.00057156
6230.0 0.0005709
6250.0 0.00056959
6270.0 0.00056802
6290.0 0.00056953
6310.0 0.00057029
6330.0 0.00056576
6350.0 0.00055669
6370.0 0.00055209
6390.0 0.00055448
6410.0 0.00054357
6430.0 0.00053781
6450.0 0.00053009
6470.0 0.00052218
6490.0 0.00051787
6510.0 0.00051839
6530.0 0.00050744
6550.0 0.00049944
6570.0 0.00049739
6590.0 0.00049564
6610.0 0.00049388
6630.0 0.00047745
6650.0 0.00046708
6670.0 0.00046412
6690.0 0.00045744
6710.0 0.00044695
6730.0 0.00044305
6750.0 0.00044507
6770.0 0.00047404
6790.0 0.00054431
6810.0 0.00050789
6830.0 0.00043304
6850.0 0.00041551
6870.0 0.00040551
6890.0 0.00040224
6910.0 0.00039932
6930.0 0.00039716
6950.0 0.00038911
6970.0 0.00037476
6990.0 0.00036656
7010.0 0.0003674
7030.0 0.00036187
7050.0 0.00035116
7070.0 0.00034787
7090.0 0.0003498
7110.0 0.00035401
7130.0 0.00034727
7150.0 0.00034161
7170.0 0.00033773
7190.0 0.00033979
7210.0 0.00033231
7230.0 0.00032531
7250.0 0.00032416
7270.0 0.00032046
7290.0 0.00031739
7310.0 0.00032103
7330.0 0.00031339
7350.0 0.00030173
7370.0 0.00028833
7390.0 0.00027765
7410.0 0.00027999
7430.0 0.0002771
7450.0 0.00027386
7470.0 0.00026846
7490.0 0.00026066
7510.0 0.00025598
7530.0 0.00025178
7550.0 0.0002664
7570.0 0.00026322
7590.0 0.00023856
7610.0 0.00022667
7630.0 0.00023937
7650.0 0.00023676
7670.0 0.00024208
7690.0 0.00025527
7710.0 0.00025617
7730.0 0.0002484
7750.0 0.00026369
7770.0 0.000245
7790.0 0.00023216
7810.0 0.00024774
7830.0 0.00024973
7850.0 0.00025923
7870.0 0.00025556
7890.0 0.00025778
7910.0 0.00025246
7930.0 0.00025565
7950.0 0.00026901
7970.0 0.00026237
7990.0 0.00023713
8010.0 0.00029643
8030.0 0.00029097
8050.0 0.00028613
8070.0 0.00027758
8090.0 0.0002492
8110.0 0.00024736
8130.0 0.00027406
8150.0 0.00028849
8170.0 0.00029515
8190.0 0.00030625
8210.0 0.00029681
8230.0 0.00029662
8250.0 0.00029585
8270.0 0.0002927
8290.0 0.00028756
8310.0 0.0002738
8330.0 0.00027018
8350.0 0.00027735
8370.0 0.00027997
8390.0 0.00027467
8410.0 0.00027129
8430.0 0.00026324
8450.0 0.00025971
8470.0 0.00027564
8490.0 0.00027759
8510.0 0.00026237
8530.0 0.00025692
8550.0 0.00025406
8570.0 0.00024074
8590.0 0.00024089
8610.0 0.00024416
8630.0 0.00024961
8650.0 0.00024954
8670.0 0.00024915
8690.0 0.00024477
8710.0 0.00023619
8730.0 0.00023094
8750.0 0.00022672
8770.0 0.00022672
8790.0 0.00023091
8810.0 0.00022094
8830.0 0.0002197
8850.0 0.00022738
8870.0 0.00021588
8890.0 0.00020277
8910.0 0.00019852
8930.0 0.00019548
8950.0 0.00018496
8970.0 0.00017742
8990.0 0.00017374
9010.0 0.00016487
9030.0 0.00016258
9050.0 0.00016171
9070.0 0.00016091
9090.0 0.0001601
9110.0 0.00015928
9130.0 0.00015845
9150.0 0.00015763
9170.0 0.0001568
9190.0 0.00015596
9210.0 0.00015512
9230.0 0.00015427
9250.0 0.00015342
9270.0 0.00015256
9290.0 0.0001517
9310.0 0.00015088
9330.0 0.00015015
9350.0 0.0001494
9370.0 0.00014866
9390.0 0.00014791
9410.0 0.00014716
9430.0 0.00014641
9450.0 0.00014565
9470.0 0.00014497
9490.0 0.00014424
9510.0 0.00014344
9530.0 0.00014264
9550.0 0.00014186
9570.0 0.00014109
9590.0 0.00014032
9610.0 0.00013962
9630.0 0.00013894
9650.0 0.00013825
9670.0 0.00013756
9690.0 0.00013687
9710.0 0.00013618
9730.0 0.00013549
9750.0 0.0001348
9770.0 0.00013413
9790.0 0.00013344
9810.0 0.00013276
9830.0 0.00013208
9850.0 0.00013133
9870.0 0.00013054
9890.0 0.00012994
9910.0 0.00012932
9930.0 0.00012859
9950.0 0.00012793
9970.0 0.00012731
9990.0 0.00012668
10010.0 0.00012604
10030.0 0.0001254
10050.0 0.00012476
10070.0 0.00012411
10090.0 0.00012348
10110.0 0.00012284
10130.0 0.0001222
10150.0 0.00012158
10170.0 0.00012095
10190.0 0.00012033
10210.0 0.00011972
10230.0 0.00011911
10250.0 0.00011851
10270.0 0.00011791
10290.0 0.00011732
10310.0 0.00011673
10330.0 0.00011614
10350.0 0.00011556
10370.0 0.00011499
10390.0 0.00011442
10410.0 0.00011377
10430.0 0.00011311
10450.0 0.00011265
10470.0 0.00011214
10490.0 0.00011163
10510.0 0.00011112
10530.0 0.00011059
10550.0 0.00011007
10570.0 0.00010956
10590.0 0.00010905
10610.0 0.00010854
10630.0 0.00010804
10650.0 0.00010755
10670.0 0.00010705
10690.0 0.00010657
10710.0 0.0001061
10730.0 0.00010562
10750.0 0.00010514
10770.0 0.00010469
10790.0 0.00010423
10810.0 0.00010378
10830.0 0.00010333
10850.0 0.0001029
10870.0 0.00010246
10890.0 0.00010201
10910.0 0.00010159
10930.0 0.00010115
10950.0 0.0001007
10970.0 0.00010024
10990.0 9.978e-05
11010.0 9.5616e-05
11030.0 9.5132e-05
11050.0 9.4671e-05
11070.0 9.4203e-05
11090.0 9.3698e-05
11110.0 9.3218e-05
11130.0 9.2737e-05
11150.0 9.2224e-05
11170.0 9.1698e-05
11190.0 9.119e-05
11210.0 9.0658e-05
11230.0 9.0103e-05
11250.0 8.9568e-05
11270.0 8.9047e-05
11290.0 8.851e-05
11310.0 8.7987e-05
11330.0 8.752e-05
11350.0 8.706e-05
11370.0 8.6613e-05
11390.0 8.621e-05
11410.0 8.5839e-05
11430.0 8.5464e-05
11450.0 8.5117e-05
11470.0 8.48e-05
11490.0 8.4484e-05
11510.0 8.4159e-05
11530.0 8.3855e-05
11550.0 8.355e-05
11570.0 8.3221e-05
11590.0 8.2886e-05
11610.0 8.2553e-05
11630.0 8.2189e-05
11650.0 8.1797e-05
11670.0 8.1412e-05
11690.0 8.1014e-05
11710.0 8.0585e-05
11730.0 8.0149e-05
11750.0 7.9726e-05
11770.0 7.9276e-05
11790.0 7.8815e-05
11810.0 7.8371e-05
11830.0 7.7929e-05
11850.0 7.7465e-05
11870.0 7.7025e-05
11890.0 7.6615e-05
11910.0 7.6202e-05
11930.0 7.5801e-05
11950.0 7.5439e-05
11970.0 7.5092e-05
11990.0 7.4751e-05
12010.0 7.4446e-05
12030.0 7.4172e-05
12050.0 7.3912e-05
12070.0 7.367e-05
12090.0 7.3469e-05
12110.0 7.3285e-05
12130.0 7.3112e-05
12150.0 7.2962e-05
12170.0 7.283e-05
12190.0 7.2696e-05
12210.0 7.2567e-05
12230.0 7.2446e-05
12250.0 7.2316e-05
12270.0 7.2167e-05
12290.0 7.2007e-05
12310.0 7.1833e-05
12330.0 7.1622e-05
12350.0 7.138e-05
12370.0 7.1116e-05
12390.0 7.0815e-05
12410.0 7.0455e-05
12430.0 7.0082e-05
12450.0 6.9681e-05
12470.0 6.9232e-05
12490.0 6.8753e-05
12510.0 6.8271e-05
12530.0 6.7751e-05
12550.0 6.7196e-05
12570.0 6.6644e-05
12590.0 6.6088e-05
12610.0 6.5498e-05
12630.0 6.4905e-05
12650.0 6.4346e-05
12670.0 6.3773e-05
12690.0 6.3197e-05
12710.0 6.2652e-05
12730.0 6.2128e-05
12750.0 6.1591e-05
12770.0 6.1089e-05
12790.0 6.0627e-05
12810.0 6.0178e-05
12830.0 5.9745e-05
12850.0 5.9362e-05
12870.0 5.901e-05
12890.0 5.8675e-05
12910.0 5.8378e-05
12930.0 5.8122e-05
12950.0 5.7889e-05
12970.0 5.7686e-05
12990.0 5.7528e-05
13010.0 5.7402e-05
13030.0 5.7303e-05
13050.0 5.7236e-05
13070.0 5.7197e-05
13090.0 5.7178e-05
13110.0 5.7176e-05
13130.0 5.7185e-05
13150.0 5.7197e-05
13170.0 5.7206e-05
13190.0 5.7203e-05
13210.0 5.7184e-05
13230.0 5.714e-05
13250.0 5.7064e-05
13270.0 5.6959e-05
13290.0 5.6818e-05
13310.0 5.6631e-05
13330.0 5.641e-05
13350.0 5.6156e-05
13370.0 5.5857e-05
13390.0 5.5515e-05
13410.0 5.5162e-05
13430.0 5.4773e-05
13450.0 5.4345e-05
13470.0 5.3902e-05
13490.0 5.3449e-05
13510.0 5.2948e-05
13530.0 5.2433e-05
13550.0 5.1924e-05
13570.0 5.1394e-05
13590.0 5.0836e-05
13610.0 5.0287e-05
13630.0 4.9745e-05
13650.0 4.9174e-05
13670.0 4.8602e-05
13690.0 4.8049e-05
13710.0 4.7489e-05
13730.0 4.6904e-05
13750.0 4.6358e-05
13770.0 4.5825e-05
13790.0 4.5284e-05
13810.0 4.476e-05
13830.0 4.4271e-05
13850.0 4.3782e-05
13870.0 4.33e-05
13890.0 4.2852e-05
13910.0 4.2425e-05
13930.0 4.1998e-05
13950.0 4.1591e-05
13970.0 4.122e-05
13990.0 4.0852e-05
14010.0 4.0494e-05
14030.0 4.0162e-05
14050.0 3.9846e-05
14070.0 3.9528e-05
14090.0 3.9231e-05
14110.0 3.8955e-05
14130.0 3.8686e-05
14150.0 3.8423e-05
14170.0 3.8184e-05
14190.0 3.7954e-05
14210.0 3.7727e-05
14230.0 3.7512e-05
14250.0 3.7309e-05
14270.0 3.7106e-05
14290.0 3.6904e-05
14310.0 3.6716e-05
14330.0 3.6531e-05
14350.0 3.6343e-05
14370.0 3.6161e-05
14390.0 3.5987e-05
14410.0 3.5807e-05
14430.0 3.5629e-05
14450.0 3.5457e-05
14470.0 3.5285e-05
14490.0 3.5107e-05
14510.0 3.4935e-05
14530.0 3.4768e-05
14550.0 3.4594e-05
14570.0 3.442e-05
14590.0 3.425e-05
14610.0 3.4077e-05
14630.0 3.3896e-05
14650.0 3.3719e-05
14670.0 3.3543e-05
14690.0 3.336e-05
14710.0 3.3172e-05
14730.0 3.2993e-05
14750.0 3.2807e-05
14770.0 3.2615e-05
14790.0 3.2425e-05
14810.0 3.2236e-05
14830.0 3.2033e-05
14850.0 3.1831e-05
14870.0 3.1633e-05
14890.0 3.1432e-05
14910.0 3.1226e-05
14930.0 3.1031e-05
14950.0 3.0845e-05
14970.0 3.0662e-05
14990.0 3.0494e-05
15010.0 3.0345e-05
15030.0 3.0208e-05
15050.0 3.008e-05
15070.0 2.9969e-05
15090.0 2.9867e-05
15110.0 2.9767e-05
15130.0 2.9671e-05
15150.0 2.9581e-05
15170.0 2.9489e-05
15190.0 2.9396e-05
15210.0 2.9306e-05
15230.0 2.9217e-05
15250.0 2.9125e-05
15270.0 2.9034e-05
15290.0 2.8947e-05
15310.0 2.8858e-05
15330.0 2.8767e-05
15350.0 2.868e-05
15370.0 2.8593e-05
15390.0 2.8502e-05
15410.0 2.8414e-05
15430.0 2.8328e-05
15450.0 2.8241e-05
15470.0 2.8152e-05
15490.0 2.8067e-05
15510.0 2.7982e-05
15530.0 2.7895e-05
15550.0 2.7809e-05
15570.0 2.7726e-05
15590.0 2.764e-05
15610.0 2.7553e-05
15630.0 2.7471e-05
15650.0 2.7388e-05
15670.0 2.7303e-05
15690.0 2.722e-05
15710.0 2.7139e-05
15730.0 2.7056e-05
15750.0 2.6973e-05
15770.0 2.6892e-05
15790.0 2.6811e-05
15810.0 2.6728e-05
15830.0 2.6647e-05
15850.0 2.6569e-05
15870.0 2.6488e-05
15890.0 2.6408e-05
15910.0 2.6331e-05
15930.0 2.6252e-05
15950.0 2.6171e-05
15970.0 2.6094e-05
15990.0 2.6017e-05
16010.0 2.5938e-05
16030.0 2.586e-05
16050.0 2.5785e-05
16070.0 2.5709e-05
16090.0 2.5632e-05
16110.0 2.5556e-05
16130.0 2.5483e-05
16150.0 2.5405e-05
16170.0 2.533e-05
16190.0 2.5257e-05
16210.0 2.5183e-05
16230.0 2.5107e-05
16250.0 2.5034e-05
16270.0 2.4963e-05
16290.0 2.4889e-05
16310.0 2.4816e-05
16330.0 2.4745e-05
16350.0 2.4673e-05
16370.0 2.4598e-05
16390.0 2.4528e-05
16410.0 2.4458e-05
16430.0 2.4386e-05
16450.0 2.4315e-05
16470.0 2.4247e-05
16490.0 2.4176e-05
16510.0 2.4105e-05
16530.0 2.4036e-05
16550.0 2.3968e-05
16570.0 2.3897e-05
16590.0 2.3827e-05
16610.0 2.376e-05
16630.0 2.3692e-05
16650.0 2.3622e-05
16670.0 2.3556e-05
16690.0 2.3489e-05
16710.0 2.3419e-05
16730.0 2.3352e-05
16750.0 2.3286e-05
16770.0 2.3219e-05
16790.0 2.315e-05
16810.0 2.3085e-05
16830.0 2.302e-05
16850.0 2.2952e-05
16870.0 2.2886e-05
16890.0 2.2822e-05
16910.0 2.2755e-05
16930.0 2.2688e-05
16950.0 2.2624e-05
16970.0 2.2559e-05
16990.0 2.2492e-05
17010.0 2.2428e-05
17030.0 2.2365e-05
17050.0 2.2299e-05
17070.0 2.2233e-05
17090.0 2.217e-05
17110.0 2.2106e-05
17130.0 2.2039e-05
17150.0 2.1976e-05
17170.0 2.1913e-05
17190.0 2.1849e-05
17210.0 2.1784e-05
17230.0 2.1722e-05
17250.0 2.1659e-05
17270.0 2.1593e-05
17290.0 2.153e-05
17310.0 2.1467e-05
17330.0 2.1403e-05
17350.0 2.1338e-05
17370.0 2.1277e-05
17390.0 2.1214e-05
17410.0 2.1149e-05
17430.0 2.1087e-05
17450.0 2.1026e-05
17470.0 2.096e-05
17490.0 2.0896e-05
17510.0 2.0835e-05
17530.0 2.0772e-05
17550.0 2.0707e-05
17570.0 2.0645e-05
17590.0 2.0584e-05
17610.0 2.052e-05
17630.0 2.0456e-05
17650.0 2.0395e-05
17670.0 2.0332e-05
17690.0 2.0266e-05
17710.0 2.0205e-05
17730.0 2.0143e-05
17750.0 2.0079e-05
17770.0 2.0016e-05
17790.0 1.9955e-05
17810.0 1.9891e-05
17830.0 1.9827e-05
17850.0 1.9765e-05
17870.0 1.9703e-05
17890.0 1.9638e-05
17910.0 1.9574e-05
17930.0 1.9513e-05
17950.0 1.945e-05
17970.0 1.9385e-05
17990.0 1.9324e-05
18010.0 1.9262e-05
18030.0 1.9196e-05
18050.0 1.9132e-05
18070.0 1.907e-05
18090.0 1.9006e-05
18110.0 1.8941e-05
18130.0 1.8879e-05
18150.0 1.8817e-05
18170.0 1.8752e-05
18190.0 1.8688e-05
18210.0 1.8626e-05
18230.0 1.8561e-05
18250.0 1.8495e-05
18270.0 1.8433e-05
18290.0 1.837e-05
18310.0 1.8304e-05
18330.0 1.824e-05
18350.0 1.8178e-05
18370.0 1.8113e-05
18390.0 1.8047e-05
18410.0 1.7984e-05
18430.0 1.792e-05
18450.0 1.7853e-05
18470.0 1.7789e-05
18490.0 1.7726e-05
18510.0 1.766e-05
18530.0 1.7595e-05
18550.0 1.7532e-05
18570.0 1.7467e-05
18590.0 1.7399e-05
18610.0 1.7335e-05
18630.0 1.7271e-05
18650.0 1.7204e-05
18670.0 1.7137e-05
18690.0 1.7074e-05
18710.0 1.7009e-05
18730.0 1.6942e-05
18750.0 1.6877e-05
18770.0 1.6813e-05
18790.0 1.6744e-05
18810.0 1.6677e-05
18830.0 1.6613e-05
18850.0 1.6546e-05
18870.0 1.6478e-05
18890.0 1.6413e-05
18910.0 1.6348e-05
18930.0 1.628e-05
18950.0 1.6213e-05
18970.0 1.6148e-05
18990.0 1.6081e-05
19010.0 1.6011e-05
19030.0 1.5945e-05
19050.0 1.5879e-05
19070.0 1.5811e-05
19090.0 1.5743e-05
19110.0 1.5678e-05
19130.0 1.561e-05
19150.0 1.5541e-05
19170.0 1.5474e-05
19190.0 1.5407e-05
19210.0 1.5337e-05
19230.0 1.5269e-05
19250.0 1.5203e-05
19270.0 1.5134e-05
19290.0 1.5065e-05
19310.0 1.4998e-05
19330.0 1.4931e-05
19350.0 1.4859e-05
19370.0 1.4791e-05
19390.0 1.4724e-05
19410.0 1.4654e-05
19430.0 1.4584e-05
19450.0 1.4517e-05
19470.0 1.4449e-05
19490.0 1.4378e-05
19510.0 1.4309e-05
19530.0 1.4242e-05
19550.0 1.4171e-05
19570.0 1.4099e-05
19590.0 1.4032e-05
19610.0 1.3963e-05
19630.0 1.3892e-05
19650.0 1.3823e-05
19670.0 1.3755e-05
19690.0 1.3683e-05
19710.0 1.3612e-05
19730.0 1.3544e-05
19750.0 1.3474e-05
19770.0 1.3401e-05
19790.0 1.3332e-05
19810.0 1.3263e-05
19830.0 1.3192e-05
19850.0 1.3121e-05
19870.0 1.3053e-05
19890.0 1.2984e-05
19910.0 1.2914e-05
19930.0 1.2849e-05
19950.0 1.2789e-05
19970.0 1.2731e-05
19990.0 1.268e-05
20010.0 1.2638e-05
20030.0 1.2602e-05
20050.0 1.2573e-05
20070.0 1.2551e-05
20090.0 1.2534e-05
20110.0 1.2519e-05
20130.0 1.2506e-05
20150.0 1.2495e-05
20170.0 1.2483e-05
20190.0 1.2471e-05
20210.0 1.2459e-05
20230.0 1.2447e-05
20250.0 1.2432e-05
20270.0 1.2417e-05
20290.0 1.2401e-05
20310.0 1.2384e-05
20330.0 1.2365e-05
20350.0 1.2346e-05
20370.0 1.2326e-05
20390.0 1.2305e-05
20410.0 1.2283e-05
20430.0 1.2261e-05
20450.0 1.2237e-05
20470.0 1.2213e-05
20490.0 1.2189e-05
20510.0 1.2165e-05
20530.0 1.2141e-05
20550.0 1.2117e-05
20570.0 1.2095e-05
20590.0 1.2072e-05
20610.0 1.205e-05
20630.0 1.2029e-05
20650.0 1.2009e-05
20670.0 1.1987e-05
20690.0 1.1967e-05
20710.0 1.1947e-05
20730.0 1.1926e-05
20750.0 1.1904e-05
20770.0 1.1882e-05
20790.0 1.1859e-05
20810.0 1.1833e-05
20830.0 1.1806e-05
20850.0 1.1777e-05
20870.0 1.1745e-05
20890.0 1.1711e-05
20910.0 1.1677e-05
20930.0 1.164e-05
20950.0 1.16e-05
20970.0 1.1561e-05
20990.0 1.152e-05
21010.0 1.1477e-05
21030.0 1.1434e-05
21050.0 1.1392e-05
21070.0 1.1349e-05
21090.0 1.1305e-05
21110.0 1.1264e-05
21130.0 1.1224e-05
21150.0 1.1182e-05
21170.0 1.1142e-05
21190.0 1.1104e-05
21210.0 1.1064e-05
21230.0 1.1024e-05
21250.0 1.0986e-05
21270.0 1.0948e-05
21290.0 1.0908e-05
21310.0 1.0867e-05
21330.0 1.0828e-05
21350.0 1.0787e-05
21370.0 1.0744e-05
21390.0 1.0701e-05
21410.0 1.0658e-05
21430.0 1.0611e-05
21450.0 1.0564e-05
21470.0 1.0518e-05
21490.0 1.0469e-05
21510.0 1.0418e-05
21530.0 1.0369e-05
21550.0 1.0319e-05
21570.0 1.0267e-05
21590.0 1.0215e-05
21610.0 1.0165e-05
21630.0 1.0112e-05
21650.0 1.0058e-05
21670.0 1.0008e-05
21690.0 9.9578e-06
21710.0 9.9059e-06
21730.0 9.8556e-06
21750.0 9.8075e-06
21770.0 9.7563e-06
21790.0 9.7059e-06
21810.0 9.6579e-06
21830.0 9.6095e-06
21850.0 9.5594e-06
21870.0 9.5112e-06
21890.0 9.4649e-06
21910.0 9.4167e-06
21930.0 9.3688e-06
21950.0 9.3235e-06
21970.0 9.278e-06
21990.0 9.2307e-06
22010.0 9.1872e-06
22030.0 9.1456e-06
22050.0 9.1038e-06
22070.0 9.0644e-06
22090.0 9.0302e-06
22110.0 8.9968e-06
22130.0 8.9644e-06
22150.0 8.9356e-06
22170.0 8.9094e-06
22190.0 8.8836e-06
22210.0 8.8602e-06
22230.0 8.8405e-06
22250.0 8.8218e-06
22270.0 8.804e-06
22290.0 8.7886e-06
22310.0 8.7748e-06
22330.0 8.7605e-06
22350.0 8.7475e-06
22370.0 8.7358e-06
22390.0 8.7239e-06
22410.0 8.7113e-06
22430.0 8.7002e-06
22450.0 8.6891e-06
22470.0 8.677e-06
22490.0 8.665e-06
22510.0 8.6539e-06
22530.0 8.6415e-06
22550.0 8.6285e-06
22570.0 8.6169e-06
22590.0 8.6056e-06
22610.0 8.5935e-06
22630.0 8.5824e-06
22650.0 8.5732e-06
22670.0 8.5638e-06
22690.0 8.5551e-06
