#lamb flux
1010.0 4.6302e-05
1030.0 4.8253e-05
1050.0 5.0513e-05
1070.0 5.3062e-05
1090.0 5.5961e-05
1110.0 5.8946e-05
1130.0 6.1965e-05
1150.0 6.5141e-05
1170.0 6.8433e-05
1190.0 7.1579e-05
1210.0 7.4786e-05
1230.0 7.812e-05
1250.0 8.1414e-05
1270.0 8.4643e-05
1290.0 8.8072e-05
1310.0 9.1529e-05
1330.0 9.4883e-05
1350.0 9.8304e-05
1370.0 0.00010186
1390.0 0.00010537
1410.0 0.00010882
1430.0 0.00011246
1450.0 0.00011612
1470.0 0.00011972
1490.0 0.00012338
1510.0 0.00012727
1530.0 0.000131
1550.0 0.00013472
1570.0 0.00013858
1590.0 0.00014247
1610.0 0.00014622
1630.0 0.00015009
1650.0 0.00015406
1670.0 0.00015791
1690.0 0.00016171
1710.0 0.00016562
1730.0 0.00016953
1750.0 0.00017321
1770.0 0.00017694
1790.0 0.00018069
1810.0 0.00018428
1830.0 0.00018775
1850.0 0.00019135
1870.0 0.00019479
1890.0 0.00019803
1910.0 0.00020126
1930.0 0.00020448
1950.0 0.00020746
1970.0 0.00021031
1990.0 0.00021321
2010.0 0.00021597
2030.0 0.00021854
2050.0 0.00022115
2070.0 0.00022379
2090.0 0.0002262
2110.0 0.00022857
2130.0 0.00023104
2150.0 0.00023346
2170.0 0.00023578
2190.0 0.00023826
2210.0 0.00024085
2230.0 0.0002434
2250.0 0.00024607
2270.0 0.00024903
2290.0 0.00025207
2310.0 0.00025518
2330.0 0.00025862
2350.0 0.00026233
2370.0 0.0002662
2390.0 0.00027041
2410.0 0.0002751
2430.0 0.00028004
2450.0 0.00028526
2470.0 0.00029087
2490.0 0.00029679
2510.0 0.00030283
2530.0 0.00030949
2550.0 0.0003176
2570.0 0.00032839
2590.0 0.00034358
2610.0 0.00036705
2630.0 0.00040111
2650.0 0.0004457
2670.0 0.00050254
2690.0 0.00057158
2710.0 0.00064621
2730.0 0.00072269
2750.0 0.0008024
2770.0 0.00087999
2790.0 0.00095335
2810.0 0.0010258
2830.0 0.0011006
2850.0 0.0011737
2870.0 0.0012487
2890.0 0.0013287
2910.0 0.0014123
2930.0 0.0014972
2950.0 0.0015877
2970.0 0.0016831
2990.0 0.00178
3010.0 0.003199
3030.0 0.0033764
3050.0 0.0035549
3070.0 0.003722
3090.0 0.0038734
3110.0 0.0039811
3130.0 0.0040101
3150.0 0.0039221
3170.0 0.0036404
3190.0 0.0031496
3210.0 0.0024524
3230.0 0.0016546
3250.0 0.0024029
3270.0 0.0012142
3290.0 0.0030475
3310.0 0.00084867
3330.0 0.00089365
3350.0 0.0012279
3370.0 0.0016021
3390.0 0.0019958
3410.0 0.0023876
3430.0 0.0027952
3450.0 0.0032007
3470.0 0.0035744
3490.0 0.0038222
3510.0 0.0046262
3530.0 0.0061674
3550.0 0.0063605
3570.0 0.0057803
3590.0 0.0080102
3610.0 0.0057675
3630.0 0.0083355
3650.0 0.0091451
3670.0 0.01139
3690.0 0.011201
3710.0 0.0088158
3730.0 0.011367
3750.0 0.011838
3770.0 0.012101
3790.0 0.011014
3810.0 0.0095382
3830.0 0.011863
3850.0 0.012073
3870.0 0.014712
3890.0 0.014232
3910.0 0.013622
3930.0 0.015122
3950.0 0.016988
3970.0 0.022018
3990.0 0.019073
4010.0 0.014125
4030.0 0.017275
4050.0 0.017798
4070.0 0.019674
4090.0 0.018016
4110.0 0.013375
4130.0 0.016485
4150.0 0.015155
4170.0 0.016061
4190.0 0.016069
4210.0 0.019116
4230.0 0.014273
4250.0 0.0168
4270.0 0.016788
4290.0 0.017048
4310.0 0.020081
4330.0 0.020652
4350.0 0.016932
4370.0 0.015221
4390.0 0.017317
4410.0 0.017067
4430.0 0.013483
4450.0 0.013434
4470.0 0.015102
4490.0 0.011984
4510.0 0.014136
4530.0 0.015387
4550.0 0.020249
4570.0 0.029024
4590.0 0.029521
4610.0 0.022304
4630.0 0.032184
4650.0 0.043515
4670.0 0.040875
4690.0 0.026795
4710.0 0.027741
4730.0 0.033138
4750.0 0.029349
4770.0 0.022704
4790.0 0.016722
4810.0 0.022707
4830.0 0.025923
4850.0 0.024417
4870.0 0.01226
4890.0 0.026228
4910.0 0.034305
4930.0 0.036835
4950.0 0.037531
4970.0 0.027181
4990.0 0.030324
5010.0 0.032973
5030.0 0.033641
5050.0 0.032039
5070.0 0.023658
5090.0 0.019826
5110.0 0.018686
5130.0 0.016953
5150.0 0.019162
5170.0 0.017089
5190.0 0.020451
5210.0 0.020466
5230.0 0.022258
5250.0 0.027904
5270.0 0.025124
5290.0 0.025193
5310.0 0.03442
5330.0 0.039271
5350.0 0.034731
5370.0 0.031359
5390.0 0.034087
5410.0 0.040484
5430.0 0.04392
5450.0 0.04752
5470.0 0.049431
5490.0 0.050061
5510.0 0.057641
5530.0 0.059575
5550.0 0.062583
5570.0 0.06507
5590.0 0.064261
5610.0 0.061506
5630.0 0.059759
5650.0 0.060563
5670.0 0.059937
5690.0 0.052281
5710.0 0.049387
5730.0 0.04855
5750.0 0.051439
5770.0 0.045449
5790.0 0.042456
5810.0 0.043357
5830.0 0.045233
5850.0 0.041878
5870.0 0.041542
5890.0 0.047327
5910.0 0.045381
5930.0 0.038738
5950.0 0.034517
5970.0 0.035815
5990.0 0.032739
6010.0 0.030384
6030.0 0.030502
6050.0 0.028847
6070.0 0.023051
6090.0 0.021197
6110.0 0.025789
6130.0 0.028957
6150.0 0.030562
6170.0 0.030624
6190.0 0.029905
6210.0 0.029675
6230.0 0.033032
6250.0 0.030513
6270.0 0.027727
6290.0 0.025112
6310.0 0.023447
6330.0 0.022222
6350.0 0.019863
6370.0 0.019946
6390.0 0.023391
6410.0 0.028707
6430.0 0.033135
6450.0 0.032433
6470.0 0.032645
6490.0 0.039211
6510.0 0.043731
6530.0 0.041847
6550.0 0.040741
6570.0 0.041322
6590.0 0.040139
6610.0 0.042953
6630.0 0.04087
6650.0 0.037087
6670.0 0.033746
6690.0 0.032144
6710.0 0.037251
6730.0 0.034568
6750.0 0.0309
6770.0 0.028782
6790.0 0.030032
6810.0 0.032416
6830.0 0.031625
6850.0 0.029211
6870.0 0.029679
6890.0 0.028898
6910.0 0.027355
6930.0 0.030636
6950.0 0.028988
6970.0 0.027903
6990.0 0.028172
7010.0 0.027093
7030.0 0.025434
7050.0 0.024076
7070.0 0.024849
7090.0 0.023246
7110.0 0.020527
7130.0 0.017209
7150.0 0.01578
7170.0 0.019777
7190.0 0.021316
7210.0 0.021048
7230.0 0.022206
7250.0 0.021343
7270.0 0.020693
7290.0 0.02225
7310.0 0.023917
7330.0 0.023249
7350.0 0.021984
7370.0 0.02134
7390.0 0.022479
7410.0 0.025919
7430.0 0.028387
7450.0 0.030634
7470.0 0.030771
7490.0 0.03142
7510.0 0.030059
7530.0 0.029784
7550.0 0.028736
7570.0 0.025211
7590.0 0.024735
7610.0 0.024227
7630.0 0.023289
7650.0 0.025829
7670.0 0.028327
7690.0 0.030833
7710.0 0.034059
7730.0 0.036321
7750.0 0.038018
7770.0 0.038079
7790.0 0.041082
7810.0 0.042442
7830.0 0.04008
7850.0 0.040367
7870.0 0.03855
7890.0 0.03967
7910.0 0.037618
7930.0 0.037686
7950.0 0.034257
7970.0 0.035088
7990.0 0.03391
8010.0 0.033526
8030.0 0.033472
8050.0 0.034929
8070.0 0.033908
8090.0 0.034006
8110.0 0.033055
8130.0 0.033027
8150.0 0.031786
8170.0 0.030919
8190.0 0.030546
8210.0 0.030795
8230.0 0.027796
8250.0 0.02558
8270.0 0.022403
8290.0 0.018474
8310.0 0.015434
8330.0 0.012236
8350.0 0.010421
8370.0 0.010978
8390.0 0.011591
8410.0 0.012473
8430.0 0.014878
8450.0 0.015861
8470.0 0.016703
8490.0 0.018961
8510.0 0.02076
8530.0 0.023998
8550.0 0.028379
8570.0 0.031872
8590.0 0.034493
8610.0 0.037547
8630.0 0.040826
8650.0 0.041447
8670.0 0.041807
8690.0 0.043357
8710.0 0.043181
8730.0 0.043112
8750.0 0.04124
8770.0 0.041292
8790.0 0.040727
8810.0 0.037717
8830.0 0.037469
8850.0 0.035334
8870.0 0.033981
8890.0 0.031491
8910.0 0.033303
8930.0 0.030756
8950.0 0.030095
8970.0 0.030028
8990.0 0.029108
9010.0 0.029367
9030.0 0.028312
9050.0 0.028154
9070.0 0.028106
9090.0 0.028054
9110.0 0.02801
9130.0 0.02795
9150.0 0.027883
9170.0 0.027756
9190.0 0.027538
9210.0 0.027801
9230.0 0.027653
9250.0 0.027542
9270.0 0.027436
9290.0 0.027334
9310.0 0.027235
9330.0 0.027135
9350.0 0.027034
9370.0 0.026931
9390.0 0.026827
9410.0 0.02672
9430.0 0.026609
9450.0 0.026495
9470.0 0.02638
9490.0 0.026268
9510.0 0.026152
9530.0 0.026036
9550.0 0.025916
9570.0 0.025796
9590.0 0.025674
9610.0 0.025552
9630.0 0.025428
9650.0 0.025303
9670.0 0.025179
9690.0 0.025053
9710.0 0.024927
9730.0 0.024801
9750.0 0.024675
9770.0 0.024549
9790.0 0.024423
9810.0 0.024297
9830.0 0.024171
9850.0 0.024046
9870.0 0.023921
9890.0 0.023796
9910.0 0.023672
9930.0 0.023548
9950.0 0.023339
9970.0 0.023243
9990.0 0.023143
10010.0 0.023041
10030.0 0.022933
10050.0 0.022817
10070.0 0.022684
10090.0 0.02258
10110.0 0.02247
10130.0 0.022362
10150.0 0.022255
10170.0 0.022146
10190.0 0.022034
10210.0 0.021927
10230.0 0.021823
10250.0 0.021716
10270.0 0.021612
10290.0 0.021512
10310.0 0.021411
10330.0 0.021308
10350.0 0.021211
10370.0 0.021116
10390.0 0.021019
10410.0 0.020924
10430.0 0.020836
10450.0 0.020745
10470.0 0.020653
10490.0 0.020567
10510.0 0.020483
10530.0 0.020394
10550.0 0.02031
10570.0 0.02023
10590.0 0.02015
10610.0 0.020068
10630.0 0.019993
10650.0 0.019918
10670.0 0.01984
10690.0 0.019766
10710.0 0.019696
10730.0 0.019624
10750.0 0.019551
10770.0 0.019485
10790.0 0.019419
10810.0 0.019351
10830.0 0.019285
10850.0 0.019223
10870.0 0.019154
10890.0 0.019081
10910.0 0.019005
10930.0 0.018914
10950.0 0.018797
10970.0 0.018653
10990.0 0.018482
11010.0 0.017859
11030.0 0.017618
11050.0 0.017346
11070.0 0.017038
11090.0 0.016685
11110.0 0.016335
11130.0 0.015984
11150.0 0.01562
11170.0 0.015259
11190.0 0.014923
11210.0 0.014587
11230.0 0.014253
11250.0 0.013943
11270.0 0.013652
11290.0 0.013364
11310.0 0.013093
11330.0 0.012856
11350.0 0.012628
11370.0 0.012411
11390.0 0.012218
11410.0 0.012041
11430.0 0.011862
11450.0 0.011697
11470.0 0.011543
11490.0 0.011386
11510.0 0.011222
11530.0 0.011064
11550.0 0.010901
11570.0 0.010721
11590.0 0.010534
11610.0 0.010344
11630.0 0.010136
11650.0 0.0099105
11670.0 0.0096887
11690.0 0.0094608
11710.0 0.009219
11730.0 0.0089787
11750.0 0.0087507
11770.0 0.0085161
11790.0 0.0082844
11810.0 0.0080702
11830.0 0.0078665
11850.0 0.0076618
11870.0 0.0074771
11890.0 0.0073118
11910.0 0.007152
11930.0 0.0070017
11950.0 0.0068692
11970.0 0.0067442
11990.0 0.006621
12010.0 0.0065095
12030.0 0.0064074
12050.0 0.0063065
12070.0 0.0062078
12090.0 0.0061219
12110.0 0.0060388
12130.0 0.0059575
12150.0 0.0058848
12170.0 0.0058218
12190.0 0.0057613
12210.0 0.005712
12230.0 0.0056773
12250.0 0.0056549
12270.0 0.0056468
12290.0 0.0056572
12310.0 0.0056858
12330.0 0.0057334
12350.0 0.0058012
12370.0 0.0058865
12390.0 0.0059901
12410.0 0.0061151
12430.0 0.0062495
12450.0 0.0063933
12470.0 0.0065486
12490.0 0.0067085
12510.0 0.0068642
12530.0 0.0070216
12550.0 0.0071771
12570.0 0.0073216
12590.0 0.0074563
12610.0 0.007584
12630.0 0.0076992
12650.0 0.0077986
12670.0 0.0078875
12690.0 0.0079644
12710.0 0.008028
12730.0 0.00808
12750.0 0.0081206
12770.0 0.0081497
12790.0 0.0081689
12810.0 0.0081776
12830.0 0.0081752
12850.0 0.0081656
12870.0 0.0081478
12890.0 0.0081192
12910.0 0.0080831
12930.0 0.0080418
12950.0 0.0079896
12970.0 0.0079276
12990.0 0.0078629
13010.0 0.0077912
13030.0 0.0077088
13050.0 0.0076217
13070.0 0.0075333
13090.0 0.0074351
13110.0 0.0073315
13130.0 0.0072299
13150.0 0.0071272
13170.0 0.0070191
13190.0 0.006919
13210.0 0.0068283
13230.0 0.006742
13250.0 0.0066654
13270.0 0.0066047
13290.0 0.0065559
13310.0 0.0065193
13330.0 0.0064991
13350.0 0.0064926
13370.0 0.0064974
13390.0 0.0065121
13410.0 0.0065332
13430.0 0.0065572
13450.0 0.0065807
13470.0 0.0065998
13490.0 0.0066118
13510.0 0.006613
13530.0 0.0066012
13550.0 0.0065771
13570.0 0.0065389
13590.0 0.0064854
13610.0 0.0064218
13630.0 0.0063505
13650.0 0.0062678
13670.0 0.0061801
13690.0 0.0060928
13710.0 0.0060034
13730.0 0.0059106
13750.0 0.0058263
13770.0 0.0057465
13790.0 0.0056685
13810.0 0.0055958
13830.0 0.0055308
13850.0 0.0054677
13870.0 0.0054073
13890.0 0.0053522
13910.0 0.0053
13930.0 0.005248
13950.0 0.0051981
13970.0 0.0051523
13990.0 0.0051066
14010.0 0.0050619
14030.0 0.0050204
14050.0 0.0049813
14070.0 0.0049428
14090.0 0.0049083
14110.0 0.0048775
14130.0 0.0048495
14150.0 0.0048247
14170.0 0.0048044
14190.0 0.0047875
14210.0 0.0047742
14230.0 0.0047647
14250.0 0.0047588
14270.0 0.0047568
14290.0 0.0047588
14310.0 0.0047636
14330.0 0.0047717
14350.0 0.0047833
14370.0 0.004797
14390.0 0.0048114
14410.0 0.0048281
14430.0 0.0048453
14450.0 0.004861
14470.0 0.0048758
14490.0 0.0048902
14510.0 0.0049014
14530.0 0.0049097
14550.0 0.0049167
14570.0 0.0049219
14590.0 0.0049251
14610.0 0.0049283
14630.0 0.0049328
14650.0 0.0049384
14670.0 0.0049465
14690.0 0.0049594
14710.0 0.0049784
14730.0 0.0050012
14750.0 0.0050316
14770.0 0.005071
14790.0 0.0051168
14810.0 0.0051686
14830.0 0.005233
14850.0 0.0053037
14870.0 0.0053768
14890.0 0.0054554
14910.0 0.0055382
14930.0 0.0056151
14950.0 0.0056838
14970.0 0.0057462
14990.0 0.0057935
15010.0 0.005823
15030.0 0.0058376
15050.0 0.0058381
15070.0 0.0058248
15090.0 0.0058028
15110.0 0.0057749
15130.0 0.0057431
15150.0 0.0057096
15170.0 0.0056747
15190.0 0.0056392
15210.0 0.0056038
15230.0 0.0055683
15250.0 0.0055325
15270.0 0.0054967
15290.0 0.0054614
15310.0 0.0054258
15330.0 0.0053901
15350.0 0.0053548
15370.0 0.0053195
15390.0 0.0052839
15410.0 0.0052485
15430.0 0.0052135
15450.0 0.0051783
15470.0 0.0051431
15490.0 0.0051083
15510.0 0.0050736
15530.0 0.0050387
15550.0 0.0050041
15570.0 0.0049698
15590.0 0.0049354
15610.0 0.0049009
15630.0 0.004867
15650.0 0.0048332
15670.0 0.0047993
15690.0 0.0047657
15710.0 0.0047325
15730.0 0.0046991
15750.0 0.0046659
15770.0 0.0046331
15790.0 0.0046004
15810.0 0.0045676
15830.0 0.0045352
15850.0 0.0045032
15870.0 0.0044712
15890.0 0.0044393
15910.0 0.0044079
15930.0 0.0043766
15950.0 0.0043452
15970.0 0.0043143
15990.0 0.0042837
16010.0 0.0042531
16030.0 0.0042226
16050.0 0.0041927
16070.0 0.0041629
16090.0 0.0041331
16110.0 0.0041038
16130.0 0.0040748
16150.0 0.0040456
16170.0 0.0040168
16190.0 0.0039884
16210.0 0.0039602
16230.0 0.003932
16250.0 0.0039043
16270.0 0.0038769
16290.0 0.0038494
16310.0 0.0038223
16330.0 0.0037956
16350.0 0.003769
16370.0 0.0037424
16390.0 0.0037163
16410.0 0.0036906
16430.0 0.0036648
16450.0 0.0036394
16470.0 0.0036144
16490.0 0.0035894
16510.0 0.0035645
16530.0 0.0035402
16550.0 0.003516
16570.0 0.0034919
16590.0 0.003468
16610.0 0.0034447
16630.0 0.0034214
16650.0 0.0033982
16670.0 0.0033755
16690.0 0.003353
16710.0 0.0033305
16730.0 0.0033083
16750.0 0.0032866
16770.0 0.0032648
16790.0 0.0032433
16810.0 0.0032222
16830.0 0.0032013
16850.0 0.0031804
16870.0 0.0031599
16890.0 0.0031397
16910.0 0.0031195
16930.0 0.0030994
16950.0 0.0030799
16970.0 0.0030605
16990.0 0.0030411
17010.0 0.0030221
17030.0 0.0030035
17050.0 0.0029848
17070.0 0.0029663
17090.0 0.0029482
17110.0 0.0029302
17130.0 0.0029122
17150.0 0.0028947
17170.0 0.0028774
17190.0 0.0028602
17210.0 0.0028431
17230.0 0.0028265
17250.0 0.0028099
17270.0 0.0027933
17290.0 0.0027772
17310.0 0.0027612
17330.0 0.0027453
17350.0 0.0027295
17370.0 0.0027142
17390.0 0.0026989
17410.0 0.0026837
17430.0 0.0026688
17450.0 0.0026542
17470.0 0.0026394
17490.0 0.0026249
17510.0 0.0026108
17530.0 0.0025967
17550.0 0.0025827
17570.0 0.002569
17590.0 0.0025556
17610.0 0.0025421
17630.0 0.0025288
17650.0 0.0025158
17670.0 0.0025028
17690.0 0.0024898
17710.0 0.0024773
17730.0 0.0024649
17750.0 0.0024525
17770.0 0.0024403
17790.0 0.0024284
17810.0 0.0024165
17830.0 0.0024046
17850.0 0.0023931
17870.0 0.0023817
17890.0 0.0023703
17910.0 0.002359
17930.0 0.0023481
17950.0 0.0023372
17970.0 0.0023263
17990.0 0.0023158
18010.0 0.0023053
18030.0 0.0022947
18050.0 0.0022845
18070.0 0.0022744
18090.0 0.0022644
18110.0 0.0022543
18130.0 0.0022447
18150.0 0.0022351
18170.0 0.0022254
18190.0 0.002216
18210.0 0.0022068
18230.0 0.0021975
18250.0 0.0021883
18270.0 0.0021794
18290.0 0.0021706
18310.0 0.0021617
18330.0 0.0021531
18350.0 0.0021447
18370.0 0.0021361
18390.0 0.0021277
18410.0 0.0021195
18430.0 0.0021114
18450.0 0.0021032
18470.0 0.0020952
18490.0 0.0020875
18510.0 0.0020796
18530.0 0.0020719
18550.0 0.0020644
18570.0 0.0020569
18590.0 0.0020494
18610.0 0.0020421
18630.0 0.0020349
18650.0 0.0020277
18670.0 0.0020205
18690.0 0.0020137
18710.0 0.0020068
18730.0 0.0019999
18750.0 0.0019932
18770.0 0.0019866
18790.0 0.0019798
18810.0 0.0019733
18830.0 0.0019669
18850.0 0.0019605
18870.0 0.0019541
18890.0 0.001948
18910.0 0.0019419
18930.0 0.0019357
18950.0 0.0019296
18970.0 0.0019238
18990.0 0.0019179
19010.0 0.0019118
19030.0 0.0019062
19050.0 0.0019005
19070.0 0.0018948
19090.0 0.0018892
19110.0 0.0018839
19130.0 0.0018783
19150.0 0.0018728
19170.0 0.0018675
19190.0 0.0018623
19210.0 0.0018569
19230.0 0.0018517
19250.0 0.0018467
19270.0 0.0018416
19290.0 0.0018365
19310.0 0.0018316
19330.0 0.0018268
19350.0 0.0018217
19370.0 0.0018169
19390.0 0.0018122
19410.0 0.0018074
19430.0 0.0018026
19450.0 0.0017981
19470.0 0.0017935
19490.0 0.0017889
19510.0 0.0017844
19530.0 0.00178
19550.0 0.0017754
19570.0 0.0017709
19590.0 0.0017667
19610.0 0.0017624
19630.0 0.001758
19650.0 0.0017538
19670.0 0.0017497
19690.0 0.0017454
19710.0 0.0017412
19730.0 0.0017372
19750.0 0.0017332
19770.0 0.001729
19790.0 0.001725
19810.0 0.0017211
19830.0 0.0017171
19850.0 0.001713
19870.0 0.001709
19890.0 0.0017046
19910.0 0.0016995
19930.0 0.0016937
19950.0 0.0016866
19970.0 0.0016773
19990.0 0.0016654
20010.0 0.0016514
20030.0 0.0016339
20050.0 0.001613
20070.0 0.0015902
20090.0 0.0015656
20110.0 0.0015377
20130.0 0.0015095
20150.0 0.0014817
20170.0 0.0014529
20190.0 0.0014237
20210.0 0.0013963
20230.0 0.0013695
20250.0 0.0013426
20270.0 0.0013176
20290.0 0.0012948
20310.0 0.0012731
20330.0 0.0012528
20350.0 0.0012361
20370.0 0.0012214
20390.0 0.0012087
20410.0 0.0011989
20430.0 0.0011919
20450.0 0.0011872
20470.0 0.0011851
20490.0 0.0011856
20510.0 0.0011884
20530.0 0.0011937
20550.0 0.0012008
20570.0 0.0012095
20590.0 0.00122
20610.0 0.0012318
20630.0 0.0012442
20650.0 0.0012574
20670.0 0.0012717
20690.0 0.0012854
20710.0 0.0012987
20730.0 0.0013119
20750.0 0.0013243
20770.0 0.0013353
20790.0 0.0013453
20810.0 0.0013542
20830.0 0.0013614
20850.0 0.001367
20870.0 0.0013713
20890.0 0.0013738
20910.0 0.0013748
20930.0 0.0013744
20950.0 0.0013725
20970.0 0.0013693
20990.0 0.0013652
21010.0 0.0013597
21030.0 0.0013532
21050.0 0.0013463
21070.0 0.0013385
21090.0 0.0013298
21110.0 0.0013211
21130.0 0.0013123
21150.0 0.001303
21170.0 0.0012938
21190.0 0.001285
21210.0 0.0012762
21230.0 0.0012677
21250.0 0.0012601
21270.0 0.0012532
21290.0 0.0012468
21310.0 0.0012415
21330.0 0.0012374
21350.0 0.0012341
21370.0 0.001232
21390.0 0.0012312
21410.0 0.0012315
21430.0 0.001233
21450.0 0.0012357
21470.0 0.0012394
21490.0 0.0012442
21510.0 0.0012501
21530.0 0.0012566
21550.0 0.001264
21570.0 0.0012723
21590.0 0.0012812
21610.0 0.0012904
21630.0 0.0013003
21650.0 0.0013109
21670.0 0.0013212
21690.0 0.001332
21710.0 0.0013433
21730.0 0.0013546
21750.0 0.0013657
21770.0 0.0013777
21790.0 0.0013898
21810.0 0.0014016
21830.0 0.0014136
21850.0 0.0014261
21870.0 0.0014384
21890.0 0.0014504
21910.0 0.0014629
21930.0 0.0014753
21950.0 0.0014873
21970.0 0.0014992
21990.0 0.0015114
22010.0 0.0015226
22030.0 0.0015333
22050.0 0.0015436
22070.0 0.0015533
22090.0 0.0015617
22110.0 0.0015693
22130.0 0.0015759
22150.0 0.001581
22170.0 0.0015848
22190.0 0.0015872
22210.0 0.0015878
22230.0 0.0015868
22250.0 0.001584
22270.0 0.0015794
22290.0 0.0015731
22310.0 0.0015652
22330.0 0.0015551
22350.0 0.0015434
22370.0 0.0015305
22390.0 0.0015158
22410.0 0.0014991
22430.0 0.001482
22450.0 0.0014639
22470.0 0.0014443
22490.0 0.001424
22510.0 0.001404
22530.0 0.0013827
22550.0 0.0013608
22570.0 0.0013398
22590.0 0.0013189
22610.0 0.0012976
22630.0 0.0012771
22650.0 0.001258
22670.0 0.0012388
22690.0 0.0012202
22710.0 0.001203
22730.0 0.0011868
22750.0 0.0011705
22770.0 0.0011559
22790.0 0.0011425
22810.0 0.0011297
22830.0 0.0011175
22850.0 0.0011068
22870.0 0.0010967
22890.0 0.0010869
22910.0 0.0010782
22930.0 0.0010703
22950.0 0.0010629
22970.0 0.0010559
22990.0 0.0010499
23010.0 0.0010445
23030.0 0.0010394
23050.0 0.001035
23070.0 0.0010313
23090.0 0.0010279
23110.0 0.001025
23130.0 0.0010227
23150.0 0.0010208
23170.0 0.0010192
23190.0 0.0010181
23210.0 0.0010173
23230.0 0.0010168
23250.0 0.0010165
23270.0 0.0010166
23290.0 0.0010168
23310.0 0.0010174
23330.0 0.0010182
23350.0 0.0010192
23370.0 0.0010205
23390.0 0.001022
23410.0 0.0010237
23430.0 0.0010256
23450.0 0.0010278
23470.0 0.0010299
23490.0 0.0010321
23510.0 0.0010344
23530.0 0.0010366
23550.0 0.0010387
23570.0 0.0010406
23590.0 0.0010425
23610.0 0.0010442
23630.0 0.0010457
23650.0 0.0010472
23670.0 0.0010486
23690.0 0.0010501
23710.0 0.0010517
23730.0 0.0010537
23750.0 0.0010561
23770.0 0.0010591
23790.0 0.001063
23810.0 0.0010678
23830.0 0.0010735
23850.0 0.0010808
23870.0 0.0010897
23890.0 0.0010995
23910.0 0.0011108
23930.0 0.0011238
23950.0 0.0011379
23970.0 0.0011524
23990.0 0.0011683
24010.0 0.0011849
24030.0 0.0012011
24050.0 0.0012172
24070.0 0.0012339
24090.0 0.0012493
24110.0 0.0012635
24130.0 0.001277
24150.0 0.0012894
