#lamb flux
1010.0 9.92e-07
1030.0 1.0767e-06
1050.0 1.1742e-06
1070.0 1.284e-06
1090.0 1.4087e-06
1110.0 1.5367e-06
1130.0 1.6657e-06
1150.0 1.8008e-06
1170.0 1.9404e-06
1190.0 2.0729e-06
1210.0 2.2073e-06
1230.0 2.3463e-06
1250.0 2.4827e-06
1270.0 2.6154e-06
1290.0 2.7557e-06
1310.0 2.8961e-06
1330.0 3.031e-06
1350.0 3.1676e-06
1370.0 3.3089e-06
1390.0 3.4469e-06
1410.0 3.5811e-06
1430.0 3.7215e-06
1450.0 3.8622e-06
1470.0 3.9984e-06
1490.0 4.1364e-06
1510.0 4.2822e-06
1530.0 4.4206e-06
1550.0 4.5574e-06
1570.0 4.699e-06
1590.0 4.8408e-06
1610.0 4.9765e-06
1630.0 5.1163e-06
1650.0 5.2597e-06
1670.0 5.3984e-06
1690.0 5.5351e-06
1710.0 5.6768e-06
1730.0 5.8189e-06
1750.0 5.9522e-06
1770.0 6.0888e-06
1790.0 6.2276e-06
1810.0 6.3612e-06
1830.0 6.4916e-06
1850.0 6.6292e-06
1870.0 6.7621e-06
1890.0 6.8892e-06
1910.0 7.0176e-06
1930.0 7.148e-06
1950.0 7.2704e-06
1970.0 7.3897e-06
1990.0 7.5121e-06
2010.0 7.6305e-06
2030.0 7.742e-06
2050.0 7.8555e-06
2070.0 7.9701e-06
2090.0 8.0748e-06
2110.0 8.1767e-06
2130.0 8.28e-06
2150.0 8.3784e-06
2170.0 8.4685e-06
2190.0 8.5608e-06
2210.0 8.6511e-06
2230.0 8.7336e-06
2250.0 8.8127e-06
2270.0 8.8945e-06
2290.0 8.9694e-06
2310.0 9.0363e-06
2330.0 9.104e-06
2350.0 9.1698e-06
2370.0 9.2277e-06
2390.0 9.284e-06
2410.0 9.3436e-06
2430.0 9.3977e-06
2450.0 9.4488e-06
2470.0 9.5058e-06
2490.0 9.5743e-06
2510.0 9.6573e-06
2530.0 9.7935e-06
2550.0 1.0044e-05
2570.0 1.0473e-05
2590.0 1.1152e-05
2610.0 1.2274e-05
2630.0 1.388e-05
2650.0 1.5875e-05
2670.0 1.8276e-05
2690.0 2.0986e-05
2710.0 2.362e-05
2730.0 2.5998e-05
2750.0 2.8161e-05
2770.0 2.9907e-05
2790.0 3.122e-05
2810.0 3.2267e-05
2830.0 3.3171e-05
2850.0 3.3894e-05
2870.0 3.4563e-05
2890.0 3.5254e-05
2910.0 3.5949e-05
2930.0 3.6612e-05
2950.0 3.7322e-05
2970.0 3.8067e-05
2990.0 3.8788e-05
3010.0 0.00026617
3030.0 0.00027129
3050.0 0.00027628
3070.0 0.00028052
3090.0 0.00028403
3110.0 0.00028575
3130.0 0.00028439
3150.0 0.00027883
3170.0 0.00026686
3190.0 0.00024838
3210.0 0.00022415
3230.0 0.00019735
3250.0 0.00021784
3270.0 0.00019107
3290.0 0.00024639
3310.0 0.00018828
3330.0 0.00019044
3350.0 0.00020189
3370.0 0.00021627
3390.0 0.00023264
3410.0 0.0002493
3430.0 0.00026696
3450.0 0.00028531
3470.0 0.00030292
3490.0 0.00031759
3510.0 0.00034855
3530.0 0.0003966
3550.0 0.00039965
3570.0 0.00037769
3590.0 0.00043679
3610.0 0.00038115
3630.0 0.00047098
3650.0 0.00051656
3670.0 0.00058827
3690.0 0.00056898
3710.0 0.00047471
3730.0 0.00052326
3750.0 0.00052688
3770.0 0.00056895
3790.0 0.00059912
3810.0 0.00067639
3830.0 0.00095069
3850.0 0.0011899
3870.0 0.0014161
3890.0 0.0014646
3910.0 0.0014052
3930.0 0.001419
3950.0 0.0014846
3970.0 0.0013826
3990.0 0.00084111
4010.0 0.00056874
4030.0 0.00093751
4050.0 0.0012744
4070.0 0.0012066
4090.0 0.0007188
4110.0 0.00056831
4130.0 0.00093429
4150.0 0.0010483
4170.0 0.00087556
4190.0 0.00073445
4210.0 0.0010539
4230.0 0.00096919
4250.0 0.0009346
4270.0 0.00093052
4290.0 0.00083843
4310.0 0.0010168
4330.0 0.0011726
4350.0 0.0012082
4370.0 0.0011156
4390.0 0.0011736
4410.0 0.0011036
4430.0 0.0008285
4450.0 0.0006512
4470.0 0.00077485
4490.0 0.00073299
4510.0 0.0010557
4530.0 0.0010861
4550.0 0.0011061
4570.0 0.0013803
4590.0 0.0016038
4610.0 0.0018992
4630.0 0.0025235
4650.0 0.0027797
4670.0 0.0028159
4690.0 0.002699
4710.0 0.0026791
4730.0 0.0023716
4750.0 0.0017513
4770.0 0.0014221
4790.0 0.0011202
4810.0 0.0012049
4830.0 0.0013847
4850.0 0.0014
4870.0 0.0012579
4890.0 0.0017199
4910.0 0.0017681
4930.0 0.0019156
4950.0 0.0022491
4970.0 0.0023239
4990.0 0.0026434
5010.0 0.0027394
5030.0 0.0025259
5050.0 0.0020213
5070.0 0.0014574
5090.0 0.0012277
5110.0 0.0012445
5130.0 0.0013018
5150.0 0.0012355
5170.0 0.0011889
5190.0 0.0012554
5210.0 0.0012919
5230.0 0.0014229
5250.0 0.0015288
5270.0 0.0014721
5290.0 0.0017041
5310.0 0.0021347
5330.0 0.0023372
5350.0 0.0022022
5370.0 0.0022207
5390.0 0.0024059
5410.0 0.002416
5430.0 0.0023491
5450.0 0.0024465
5470.0 0.0027112
5490.0 0.0032296
5510.0 0.0038739
5530.0 0.004043
5550.0 0.0040415
5570.0 0.0039881
5590.0 0.0038251
5610.0 0.0036274
5630.0 0.0036525
5650.0 0.0037956
5670.0 0.0036748
5690.0 0.0033353
5710.0 0.0032921
5730.0 0.0030506
5750.0 0.002726
5770.0 0.0024314
5790.0 0.0025827
5810.0 0.0027671
5830.0 0.0030554
5850.0 0.0030163
5870.0 0.0029577
5890.0 0.0030444
5910.0 0.0028165
5930.0 0.0026038
5950.0 0.0026135
5970.0 0.0027332
5990.0 0.0024166
6010.0 0.0020456
6030.0 0.0017785
6050.0 0.0016096
6070.0 0.0015175
6090.0 0.0016217
6110.0 0.0017979
6130.0 0.001806
6150.0 0.0018216
6170.0 0.0019109
6190.0 0.0020621
6210.0 0.0023697
6230.0 0.0027604
6250.0 0.0025736
6270.0 0.0022545
6290.0 0.0019457
6310.0 0.0016132
6330.0 0.0014185
6350.0 0.0013612
6370.0 0.0014536
6390.0 0.001622
6410.0 0.001945
6430.0 0.0023892
6450.0 0.0027708
6470.0 0.0030702
6490.0 0.0034966
6510.0 0.0038114
6530.0 0.003682
6550.0 0.0035223
6570.0 0.0035551
6590.0 0.0035527
6610.0 0.0035215
6630.0 0.0033132
6650.0 0.0029911
6670.0 0.0028901
6690.0 0.0028333
6710.0 0.0028694
6730.0 0.0025095
6750.0 0.0021543
6770.0 0.0021175
6790.0 0.0022583
6810.0 0.0025249
6830.0 0.0025588
6850.0 0.0023519
6870.0 0.0023431
6890.0 0.0023118
6910.0 0.0021775
6930.0 0.0022079
6950.0 0.0021609
6970.0 0.0021314
6990.0 0.0021938
7010.0 0.0023298
7030.0 0.0022937
7050.0 0.0021082
7070.0 0.002023
7090.0 0.0017877
7110.0 0.0015487
7130.0 0.0015253
7150.0 0.0016192
7170.0 0.0017671
7190.0 0.001776
7210.0 0.0017246
7230.0 0.0018913
7250.0 0.0020395
7270.0 0.0021153
7290.0 0.0021628
7310.0 0.0021632
7330.0 0.0020375
7350.0 0.0018892
7370.0 0.0017595
7390.0 0.0017245
7410.0 0.001892
7430.0 0.0021882
7450.0 0.0024028
7470.0 0.0026269
7490.0 0.0030421
7510.0 0.0029967
7530.0 0.0025035
7550.0 0.0021709
7570.0 0.0018182
7590.0 0.0015879
7610.0 0.0015417
7630.0 0.0015292
7650.0 0.0016551
7670.0 0.0018805
7690.0 0.002062
7710.0 0.0023478
7730.0 0.0024357
7750.0 0.002519
7770.0 0.0026962
7790.0 0.002803
7810.0 0.0027588
7830.0 0.0025332
7850.0 0.002511
7870.0 0.0024426
7890.0 0.0023335
7910.0 0.0021602
7930.0 0.0020435
7950.0 0.0017095
7970.0 0.0016493
7990.0 0.0016556
8010.0 0.0019207
8030.0 0.0019227
8050.0 0.0020262
8070.0 0.0019707
8090.0 0.0019745
8110.0 0.001938
8130.0 0.0018633
8150.0 0.0017289
8170.0 0.00171
8190.0 0.0017235
8210.0 0.0017405
8230.0 0.0015704
8250.0 0.0014539
8270.0 0.0012811
8290.0 0.0010747
8310.0 0.00090032
8330.0 0.00067715
8350.0 0.00052668
8370.0 0.0004926
8390.0 0.0005032
8410.0 0.00055904
8430.0 0.00071449
8450.0 0.00078665
8470.0 0.00084885
8490.0 0.00096691
8510.0 0.001047
8530.0 0.0011714
8550.0 0.0013852
8570.0 0.0015454
8590.0 0.0016497
8610.0 0.0018705
8630.0 0.0021542
8650.0 0.0022379
8670.0 0.0022835
8690.0 0.0023187
8710.0 0.0022583
8730.0 0.0021671
8750.0 0.0020029
8770.0 0.0019849
8790.0 0.0019354
8810.0 0.001784
8830.0 0.0017343
8850.0 0.0015408
8870.0 0.001441
8890.0 0.0013065
8910.0 0.0014574
8930.0 0.0013438
8950.0 0.0013613
8970.0 0.0013927
8990.0 0.0013678
9010.0 0.0013925
9030.0 0.0013287
9050.0 0.0013239
9070.0 0.0013252
9090.0 0.0013265
9110.0 0.0013286
9130.0 0.0013297
9150.0 0.0013303
9170.0 0.0013281
9190.0 0.0013221
9210.0 0.0013404
9230.0 0.001337
9250.0 0.0013358
9270.0 0.0013352
9290.0 0.0013349
9310.0 0.0013349
9330.0 0.001335
9350.0 0.0013352
9370.0 0.0013354
9390.0 0.0013355
9410.0 0.0013357
9430.0 0.0013359
9450.0 0.001336
9470.0 0.0013361
9490.0 0.0013362
9510.0 0.0013363
9530.0 0.0013363
9550.0 0.0013365
9570.0 0.0013367
9590.0 0.0013368
9610.0 0.001337
9630.0 0.0013372
9650.0 0.0013375
9670.0 0.0013376
9690.0 0.001338
9710.0 0.0013383
9730.0 0.0013387
9750.0 0.0013391
9770.0 0.0013396
9790.0 0.0013401
9810.0 0.0013407
9830.0 0.0013413
9850.0 0.001342
9870.0 0.0013427
9890.0 0.0013434
9910.0 0.0013444
9930.0 0.0013452
9950.0 0.0013448
9970.0 0.0013463
9990.0 0.0013477
10010.0 0.001349
10030.0 0.0013503
10050.0 0.0013511
10070.0 0.001349
10090.0 0.0013516
10110.0 0.001354
10130.0 0.0013562
10150.0 0.0013582
10170.0 0.00136
10190.0 0.0013617
10210.0 0.0013634
10230.0 0.0013652
10250.0 0.0013668
10270.0 0.0013686
10290.0 0.0013704
10310.0 0.0013722
10330.0 0.0013739
10350.0 0.0013758
10370.0 0.0013777
10390.0 0.0013795
10410.0 0.0013814
10430.0 0.0013834
10450.0 0.0013853
10470.0 0.0013872
10490.0 0.0013891
10510.0 0.0013911
10530.0 0.0013929
10550.0 0.0013948
10570.0 0.0013967
10590.0 0.0013986
10610.0 0.0014004
10630.0 0.0014023
10650.0 0.0014042
10670.0 0.0014059
10690.0 0.0014077
10710.0 0.0014095
10730.0 0.0014112
10750.0 0.0014128
10770.0 0.0014145
10790.0 0.0014161
10810.0 0.0014176
10830.0 0.001419
10850.0 0.0014204
10870.0 0.0014212
10890.0 0.0014214
10910.0 0.0014205
10930.0 0.0014178
10950.0 0.0014118
10970.0 0.0014021
10990.0 0.0013883
11010.0 0.0014186
11030.0 0.0013904
11050.0 0.0013579
11070.0 0.0013205
11090.0 0.0012773
11110.0 0.0012345
11130.0 0.0011918
11150.0 0.0011482
11170.0 0.0011061
11190.0 0.0010681
11210.0 0.0010318
11230.0 0.00099783
11250.0 0.0009683
11270.0 0.00094248
11290.0 0.00091893
11310.0 0.00089852
11330.0 0.00088176
11350.0 0.00086655
11370.0 0.00085254
11390.0 0.00083986
11410.0 0.00082768
11430.0 0.00081462
11450.0 0.00080115
11470.0 0.00078716
11490.0 0.00077176
11510.0 0.00075462
11530.0 0.00073706
11550.0 0.00071868
11570.0 0.0006988
11590.0 0.00067858
11610.0 0.00065876
11630.0 0.00063826
11650.0 0.00061757
11670.0 0.00059832
11690.0 0.00057975
11710.0 0.00056139
11730.0 0.00054413
11750.0 0.0005284
11770.0 0.00051297
11790.0 0.0004982
11810.0 0.00048464
11830.0 0.00047174
11850.0 0.00045875
11870.0 0.00044657
11890.0 0.00043507
11910.0 0.00042343
11930.0 0.0004118
11950.0 0.00040066
11970.0 0.00038946
11990.0 0.00037783
12010.0 0.00036652
12030.0 0.00035555
12050.0 0.00034443
12070.0 0.00033338
12090.0 0.00032339
12110.0 0.00031383
12130.0 0.00030476
12150.0 0.00029681
12170.0 0.00029012
12190.0 0.00028432
12210.0 0.00028006
12230.0 0.00027744
12250.0 0.00027637
12270.0 0.00027702
12290.0 0.00027935
12310.0 0.00028311
12330.0 0.00028858
12350.0 0.00029543
12370.0 0.00030314
12390.0 0.00031182
12410.0 0.00032167
12430.0 0.00033126
12450.0 0.00034074
12470.0 0.00035029
12490.0 0.00035929
12510.0 0.00036717
12530.0 0.00037443
12550.0 0.00038084
12570.0 0.00038591
12590.0 0.00038983
12610.0 0.00039279
12630.0 0.00039457
12650.0 0.0003952
12670.0 0.00039494
12690.0 0.00039377
12710.0 0.00039183
12730.0 0.00038924
12750.0 0.00038591
12770.0 0.00038209
12790.0 0.00037791
12810.0 0.00037324
12830.0 0.00036808
12850.0 0.00036276
12870.0 0.00035712
12890.0 0.00035092
12910.0 0.00034439
12930.0 0.00033767
12950.0 0.00033027
12970.0 0.00032225
12990.0 0.00031418
13010.0 0.00030573
13030.0 0.00029669
13050.0 0.00028756
13070.0 0.00027867
13090.0 0.00026946
13110.0 0.00026035
13130.0 0.00025189
13150.0 0.00024389
13170.0 0.00023617
13190.0 0.00022949
13210.0 0.00022384
13230.0 0.00021893
13250.0 0.00021497
13270.0 0.00021209
13290.0 0.00021006
13310.0 0.00020884
13330.0 0.00020841
13350.0 0.00020856
13370.0 0.0002092
13390.0 0.00021017
13410.0 0.00021122
13430.0 0.0002123
13450.0 0.00021329
13470.0 0.00021402
13490.0 0.00021446
13510.0 0.00021458
13530.0 0.00021434
13550.0 0.00021379
13570.0 0.00021296
13590.0 0.0002119
13610.0 0.00021073
13630.0 0.00020952
13650.0 0.00020827
13670.0 0.00020708
13690.0 0.00020603
13710.0 0.00020508
13730.0 0.00020424
13750.0 0.00020355
13770.0 0.00020294
13790.0 0.00020239
13810.0 0.00020183
13830.0 0.00020125
13850.0 0.00020057
13870.0 0.00019973
13890.0 0.00019875
13910.0 0.00019759
13930.0 0.00019619
13950.0 0.00019461
13970.0 0.00019296
13990.0 0.00019116
14010.0 0.00018927
14030.0 0.00018744
14050.0 0.00018568
14070.0 0.00018394
14090.0 0.0001824
14110.0 0.00018105
14130.0 0.00017987
14150.0 0.00017887
14170.0 0.00017809
14190.0 0.00017749
14210.0 0.00017706
14230.0 0.00017681
14250.0 0.00017673
14270.0 0.00017683
14290.0 0.00017713
14310.0 0.0001776
14330.0 0.00017827
14350.0 0.00017917
14370.0 0.00018025
14390.0 0.00018146
14410.0 0.0001829
14430.0 0.00018451
14450.0 0.00018616
14470.0 0.00018793
14490.0 0.00018988
14510.0 0.00019185
14530.0 0.00019384
14550.0 0.00019602
14570.0 0.00019838
14590.0 0.00020082
14610.0 0.00020355
14630.0 0.00020671
14650.0 0.00021012
14670.0 0.00021385
14690.0 0.00021816
14710.0 0.00022299
14730.0 0.00022794
14750.0 0.00023339
14770.0 0.00023934
14790.0 0.0002454
14810.0 0.00025147
14830.0 0.00025802
14850.0 0.00026439
14870.0 0.00027033
14890.0 0.00027605
14910.0 0.00028145
14930.0 0.00028605
14950.0 0.00028987
14970.0 0.00029307
14990.0 0.00029539
15010.0 0.00029684
15030.0 0.00029761
15050.0 0.00029779
15070.0 0.00029747
15090.0 0.00029684
15110.0 0.00029601
15130.0 0.00029505
15150.0 0.00029406
15170.0 0.00029301
15190.0 0.00029195
15210.0 0.0002909
15230.0 0.00028987
15250.0 0.00028881
15270.0 0.00028775
15290.0 0.00028675
15310.0 0.00028572
15330.0 0.00028468
15350.0 0.00028367
15370.0 0.00028268
15390.0 0.00028164
15410.0 0.00028063
15430.0 0.00027965
15450.0 0.00027865
15470.0 0.00027763
15490.0 0.00027666
15510.0 0.0002757
15530.0 0.0002747
15550.0 0.00027373
15570.0 0.00027278
15590.0 0.0002718
15610.0 0.00027082
15630.0 0.00026987
15650.0 0.00026893
15670.0 0.00026796
15690.0 0.00026702
15710.0 0.0002661
15730.0 0.00026515
15750.0 0.0002642
15770.0 0.00026328
15790.0 0.00026236
15810.0 0.0002614
15830.0 0.00026048
15850.0 0.00025958
15870.0 0.00025866
15890.0 0.00025773
15910.0 0.00025685
15930.0 0.00025594
15950.0 0.00025501
15970.0 0.00025411
15990.0 0.00025323
16010.0 0.00025232
16030.0 0.0002514
16050.0 0.00025053
16070.0 0.00024965
16090.0 0.00024874
16110.0 0.00024786
16130.0 0.000247
16150.0 0.00024609
16170.0 0.00024519
16190.0 0.00024433
16210.0 0.00024345
16230.0 0.00024256
16250.0 0.00024169
16270.0 0.00024084
16290.0 0.00023995
16310.0 0.00023907
16330.0 0.00023822
16350.0 0.00023735
16370.0 0.00023644
16390.0 0.00023559
16410.0 0.00023474
16430.0 0.00023386
16450.0 0.00023298
16470.0 0.00023215
16490.0 0.00023127
16510.0 0.00023039
16530.0 0.00022953
16550.0 0.00022868
16570.0 0.0002278
16590.0 0.00022692
16610.0 0.00022608
16630.0 0.00022522
16650.0 0.00022434
16670.0 0.00022349
16690.0 0.00022264
16710.0 0.00022175
16730.0 0.00022088
16750.0 0.00022004
16770.0 0.00021917
16790.0 0.00021828
16810.0 0.00021743
16830.0 0.00021658
16850.0 0.0002157
16870.0 0.00021483
16890.0 0.00021398
16910.0 0.0002131
16930.0 0.00021221
16950.0 0.00021136
16970.0 0.0002105
16990.0 0.00020961
17010.0 0.00020874
17030.0 0.00020789
17050.0 0.000207
17070.0 0.00020612
17090.0 0.00020526
17110.0 0.00020439
17130.0 0.00020348
17150.0 0.00020261
17170.0 0.00020175
17190.0 0.00020086
17210.0 0.00019997
17230.0 0.00019912
17250.0 0.00019824
17270.0 0.00019733
17290.0 0.00019645
17310.0 0.00019558
17330.0 0.00019468
17350.0 0.00019378
17370.0 0.00019291
17390.0 0.00019203
17410.0 0.00019113
17430.0 0.00019024
17450.0 0.00018938
17470.0 0.00018845
17490.0 0.00018755
17510.0 0.00018668
17530.0 0.00018578
17550.0 0.00018487
17570.0 0.00018398
17590.0 0.00018311
17610.0 0.00018219
17630.0 0.00018129
17650.0 0.00018041
17670.0 0.00017951
17690.0 0.00017857
17710.0 0.00017769
17730.0 0.0001768
17750.0 0.00017588
17770.0 0.00017498
17790.0 0.0001741
17810.0 0.00017319
17830.0 0.00017226
17850.0 0.00017137
17870.0 0.00017047
17890.0 0.00016955
17910.0 0.00016863
17930.0 0.00016775
17950.0 0.00016684
17970.0 0.00016592
17990.0 0.00016503
18010.0 0.00016414
18030.0 0.0001632
18050.0 0.00016229
18070.0 0.0001614
18090.0 0.00016048
18110.0 0.00015956
18130.0 0.00015867
18150.0 0.00015777
18170.0 0.00015685
18190.0 0.00015594
18210.0 0.00015506
18230.0 0.00015413
18250.0 0.0001532
18270.0 0.00015231
18290.0 0.00015141
18310.0 0.00015049
18330.0 0.00014959
18350.0 0.00014871
18370.0 0.00014779
18390.0 0.00014688
18410.0 0.00014599
18430.0 0.00014509
18450.0 0.00014416
18470.0 0.00014326
18490.0 0.00014238
18510.0 0.00014147
18530.0 0.00014056
18550.0 0.00013969
18570.0 0.00013879
18590.0 0.00013787
18610.0 0.00013698
18630.0 0.0001361
18650.0 0.00013519
18670.0 0.00013428
18690.0 0.00013341
18710.0 0.00013252
18730.0 0.00013162
18750.0 0.00013074
18770.0 0.00012987
18790.0 0.00012896
18810.0 0.00012806
18830.0 0.0001272
18850.0 0.00012631
18870.0 0.00012542
18890.0 0.00012455
18910.0 0.00012369
18930.0 0.00012279
18950.0 0.00012192
18970.0 0.00012106
18990.0 0.00012018
19010.0 0.00011928
19030.0 0.00011843
19050.0 0.00011757
19070.0 0.00011669
19090.0 0.00011583
19110.0 0.00011499
19130.0 0.00011412
19150.0 0.00011324
19170.0 0.0001124
19190.0 0.00011155
19210.0 0.00011067
19230.0 0.00010982
19250.0 0.00010899
19270.0 0.00010814
19290.0 0.00010728
19310.0 0.00010645
19330.0 0.00010562
19350.0 0.00010475
19370.0 0.00010391
19390.0 0.00010309
19410.0 0.00010224
19430.0 0.00010139
19450.0 0.00010058
19470.0 9.9762e-05
19490.0 9.8918e-05
19510.0 9.8096e-05
19530.0 9.7291e-05
19550.0 9.6452e-05
19570.0 9.5613e-05
19590.0 9.4815e-05
19610.0 9.4004e-05
19630.0 9.3175e-05
19650.0 9.2371e-05
19670.0 9.1583e-05
19690.0 9.0759e-05
19710.0 8.9945e-05
19730.0 8.9157e-05
19750.0 8.8358e-05
19770.0 8.7532e-05
19790.0 8.6743e-05
19810.0 8.5965e-05
19830.0 8.5158e-05
19850.0 8.4353e-05
19870.0 8.3566e-05
19890.0 8.2732e-05
19910.0 8.1832e-05
19930.0 8.0895e-05
19950.0 7.9861e-05
19970.0 7.8643e-05
19990.0 7.7246e-05
20010.0 7.5734e-05
20030.0 7.3996e-05
20050.0 7.2075e-05
20070.0 7.0116e-05
20090.0 6.8139e-05
20110.0 6.6064e-05
20130.0 6.4128e-05
20150.0 6.2362e-05
20170.0 6.0684e-05
20190.0 5.9135e-05
20210.0 5.7804e-05
20230.0 5.6624e-05
20250.0 5.5556e-05
20270.0 5.4668e-05
20290.0 5.3945e-05
20310.0 5.3343e-05
20330.0 5.2867e-05
20350.0 5.255e-05
20370.0 5.2349e-05
20390.0 5.2266e-05
20410.0 5.2306e-05
20430.0 5.2455e-05
20450.0 5.2733e-05
20470.0 5.3135e-05
20490.0 5.3638e-05
20510.0 5.4257e-05
20530.0 5.5019e-05
20550.0 5.5873e-05
20570.0 5.6789e-05
20590.0 5.783e-05
20610.0 5.8951e-05
20630.0 6.0085e-05
20650.0 6.1269e-05
20670.0 6.2532e-05
20690.0 6.3735e-05
20710.0 6.4893e-05
20730.0 6.6049e-05
20750.0 6.7155e-05
20770.0 6.8147e-05
20790.0 6.9096e-05
20810.0 7.0006e-05
20830.0 7.0829e-05
20850.0 7.159e-05
20870.0 7.2351e-05
20890.0 7.3087e-05
20910.0 7.3776e-05
20930.0 7.4483e-05
20950.0 7.5217e-05
20970.0 7.5936e-05
20990.0 7.665e-05
21010.0 7.7403e-05
21030.0 7.8131e-05
21050.0 7.8806e-05
21070.0 7.9449e-05
21090.0 8.0049e-05
21110.0 8.0538e-05
21130.0 8.0934e-05
21150.0 8.1242e-05
21170.0 8.1435e-05
21190.0 8.1514e-05
21210.0 8.1487e-05
21230.0 8.1345e-05
21250.0 8.1105e-05
21270.0 8.0774e-05
21290.0 8.0344e-05
21310.0 7.984e-05
21330.0 7.9293e-05
21350.0 7.8674e-05
21370.0 7.7999e-05
21390.0 7.7312e-05
21410.0 7.6604e-05
21430.0 7.584e-05
21450.0 7.5096e-05
21470.0 7.4378e-05
21490.0 7.3653e-05
21510.0 7.2943e-05
21530.0 7.2292e-05
21550.0 7.1675e-05
21570.0 7.1083e-05
21590.0 7.0562e-05
21610.0 7.0113e-05
21630.0 6.9722e-05
21650.0 6.9403e-05
21670.0 6.9185e-05
21690.0 6.9048e-05
21710.0 6.9001e-05
21730.0 6.9051e-05
21750.0 6.919e-05
21770.0 6.9438e-05
21790.0 6.9789e-05
21810.0 7.0221e-05
21830.0 7.0748e-05
21850.0 7.139e-05
21870.0 7.21e-05
21890.0 7.2862e-05
21910.0 7.3729e-05
21930.0 7.4662e-05
21950.0 7.5615e-05
21970.0 7.6627e-05
21990.0 7.7727e-05
22010.0 7.8799e-05
22030.0 7.9869e-05
22050.0 8.0976e-05
22070.0 8.2073e-05
22090.0 8.3095e-05
22110.0 8.4108e-05
22130.0 8.5095e-05
22150.0 8.5987e-05
22170.0 8.6792e-05
22190.0 8.7544e-05
22210.0 8.8182e-05
22230.0 8.8675e-05
22250.0 8.906e-05
22270.0 8.9313e-05
22290.0 8.9413e-05
22310.0 8.937e-05
22330.0 8.9165e-05
22350.0 8.8798e-05
22370.0 8.8286e-05
22390.0 8.7606e-05
22410.0 8.674e-05
22430.0 8.5766e-05
22450.0 8.4663e-05
22470.0 8.3386e-05
22490.0 8.2002e-05
22510.0 8.0563e-05
22530.0 7.897e-05
22550.0 7.7264e-05
22570.0 7.5568e-05
22590.0 7.3824e-05
22610.0 7.1986e-05
22630.0 7.0153e-05
22650.0 6.8392e-05
22670.0 6.6572e-05
22690.0 6.4755e-05
22710.0 6.3032e-05
22730.0 6.1356e-05
22750.0 5.9642e-05
22770.0 5.8059e-05
22790.0 5.6593e-05
22810.0 5.5164e-05
22830.0 5.3814e-05
22850.0 5.2618e-05
22870.0 5.1511e-05
22890.0 5.0478e-05
22910.0 4.9597e-05
22930.0 4.8856e-05
22950.0 4.8225e-05
22970.0 4.7727e-05
