#lamb flux
1010.0 1.6046e-08
1030.0 2.1848e-08
1050.0 2.9762e-08
1070.0 4.028e-08
1090.0 5.4161e-08
1110.0 7.1236e-08
1130.0 9.1581e-08
1150.0 1.1587e-07
1170.0 1.4409e-07
1190.0 1.7484e-07
1210.0 2.0855e-07
1230.0 2.4509e-07
1250.0 2.8268e-07
1270.0 3.1997e-07
1290.0 3.5758e-07
1310.0 3.9311e-07
1330.0 4.2424e-07
1350.0 4.5099e-07
1370.0 4.7282e-07
1390.0 4.8753e-07
1410.0 4.9458e-07
1430.0 4.9545e-07
1450.0 4.8921e-07
1470.0 4.7566e-07
1490.0 4.5642e-07
1510.0 4.3297e-07
1530.0 4.0442e-07
1550.0 3.7271e-07
1570.0 3.3951e-07
1590.0 3.0514e-07
1610.0 2.7011e-07
1630.0 2.3584e-07
1650.0 2.0276e-07
1670.0 1.7093e-07
1690.0 1.409e-07
1710.0 1.1305e-07
1730.0 8.734e-08
1750.0 6.3725e-08
1770.0 4.2409e-08
1790.0 2.3273e-08
1810.0 6.2161e-09
1830.0 1e-99
1850.0 1e-99
1870.0 1e-99
1890.0 1e-99
1910.0 1e-99
1930.0 1e-99
1950.0 1e-99
1970.0 1e-99
1990.0 1e-99
2010.0 1e-99
2030.0 1e-99
2050.0 1e-99
2070.0 1e-99
2090.0 1e-99
2110.0 1e-99
2130.0 1e-99
2150.0 1e-99
2170.0 1e-99
2190.0 1e-99
2210.0 1e-99
2230.0 1e-99
2250.0 7.1871e-10
2270.0 1.1308e-08
2290.0 2.2297e-08
2310.0 3.3577e-08
2330.0 4.509e-08
2350.0 5.675e-08
2370.0 6.842e-08
2390.0 8.0037e-08
2410.0 9.1542e-08
2430.0 1.0272e-07
2450.0 1.1344e-07
2470.0 1.2358e-07
2490.0 1.3294e-07
2510.0 1.4136e-07
2530.0 1.4892e-07
2550.0 1.5586e-07
2570.0 1.6277e-07
2590.0 1.705e-07
2610.0 1.808e-07
2630.0 1.9556e-07
2650.0 2.1588e-07
2670.0 2.4409e-07
2690.0 2.827e-07
2710.0 3.2961e-07
2730.0 3.8265e-07
2750.0 4.4346e-07
2770.0 5.0496e-07
2790.0 5.5992e-07
2810.0 6.0769e-07
2830.0 6.4759e-07
2850.0 6.7146e-07
2870.0 6.8365e-07
2890.0 6.8787e-07
2910.0 6.8396e-07
2930.0 6.7206e-07
2950.0 6.5677e-07
2970.0 6.3834e-07
2990.0 6.1538e-07
3010.0 5.8957e-07
3030.0 5.6315e-07
3050.0 5.3539e-07
3070.0 5.0492e-07
3090.0 4.7499e-07
3110.0 4.4567e-07
3130.0 4.1636e-07
3150.0 3.4095e-07
3170.0 2.7535e-07
3190.0 2.026e-07
3210.0 1.2919e-07
3230.0 7.3548e-08
3250.0 1.1704e-07
3270.0 3.1565e-07
3290.0 3.716e-07
3310.0 1e-99
3330.0 1e-99
3350.0 1e-99
3370.0 1e-99
3390.0 1e-99
3410.0 1e-99
3430.0 1e-99
3450.0 1e-99
3470.0 1e-99
3490.0 1e-99
3510.0 1e-99
3530.0 1e-99
3550.0 1e-99
3570.0 1e-99
3590.0 3.4136e-07
3610.0 5.8262e-07
3630.0 1.3443e-06
3650.0 1.5229e-06
3670.0 1.1201e-06
3690.0 5.7515e-07
3710.0 2.2252e-07
3730.0 2.2896e-07
3750.0 2.7351e-07
3770.0 2.8192e-07
3790.0 2.812e-07
3810.0 5.4681e-07
3830.0 4.6682e-07
3850.0 2.0485e-07
3870.0 4.9303e-08
3890.0 2.8798e-07
3910.0 4.7242e-07
3930.0 4.823e-07
3950.0 5.7454e-07
3970.0 6.7719e-07
3990.0 5.965e-07
4010.0 7.3423e-07
4030.0 6.9306e-07
4050.0 6.1384e-07
4070.0 5.4864e-07
4090.0 5.7743e-07
4110.0 6.6271e-07
4130.0 6.6893e-07
4150.0 6.1389e-07
4170.0 5.7709e-07
4190.0 6.4202e-07
4210.0 5.5049e-07
4230.0 4.835e-07
4250.0 3.7209e-07
4270.0 2.3091e-07
4290.0 2.5583e-07
4310.0 2.421e-07
4330.0 2.3283e-07
4350.0 4.2557e-07
4370.0 4.2635e-07
4390.0 5.6019e-07
4410.0 6.435e-07
4430.0 7.4721e-07
4450.0 6.2905e-07
4470.0 4.6709e-07
4490.0 4.3636e-07
4510.0 3.7985e-07
4530.0 3.3933e-07
4550.0 2.9176e-07
4570.0 2.7799e-07
4590.0 2.8441e-07
4610.0 1.8185e-07
4630.0 1.1906e-07
4650.0 4.2439e-08
4670.0 4.4256e-08
4690.0 1e-99
4710.0 1e-99
4730.0 1e-99
4750.0 1e-99
4770.0 1e-99
4790.0 1e-99
4810.0 1e-99
4830.0 1e-99
4850.0 1e-99
4870.0 1e-99
4890.0 1e-99
4910.0 1e-99
4930.0 1e-99
4950.0 1e-99
4970.0 1e-99
4990.0 1e-99
5010.0 1e-99
5030.0 1e-99
5050.0 1e-99
5070.0 1e-99
5090.0 1e-99
5110.0 1e-99
5130.0 1e-99
5150.0 1e-99
5170.0 1e-99
5190.0 1e-99
5210.0 1e-99
5230.0 1e-99
5250.0 1e-99
5270.0 1e-99
5290.0 1e-99
5310.0 1e-99
5330.0 1e-99
5350.0 1e-99
5370.0 1e-99
5390.0 1e-99
5410.0 1e-99
5430.0 1e-99
5450.0 1e-99
5470.0 1e-99
5490.0 2.5746e-09
5510.0 1e-99
5530.0 1e-99
5550.0 1e-99
5570.0 2.4647e-08
5590.0 9.7227e-08
5610.0 1.0312e-07
5630.0 7.4613e-08
5650.0 8.4625e-08
5670.0 8.5379e-08
5690.0 1.1357e-07
5710.0 6.2882e-08
5730.0 8.9695e-08
5750.0 9.7229e-08
5770.0 8.2928e-08
5790.0 1.5881e-07
5810.0 2.1553e-07
5830.0 1.7622e-07
5850.0 7.7286e-08
5870.0 2.812e-08
5890.0 2.3161e-08
5910.0 7.9088e-08
5930.0 5.8366e-08
5950.0 8.4699e-08
5970.0 8.9878e-08
5990.0 1.2121e-07
6010.0 1.0751e-07
6030.0 1.2411e-07
6050.0 1.1765e-07
6070.0 6.9031e-08
6090.0 1.0106e-07
6110.0 1.209e-07
6130.0 9.7824e-08
6150.0 1.0633e-07
6170.0 1.2264e-07
6190.0 4.3599e-08
6210.0 5.6518e-08
6230.0 8.2455e-08
6250.0 8.0405e-08
6270.0 7.9536e-08
6290.0 1.1183e-07
6310.0 1.5323e-07
6330.0 1.6114e-07
6350.0 1.5248e-07
6370.0 1.6769e-07
6390.0 1.2223e-07
6410.0 1.4023e-07
6430.0 1.1883e-07
6450.0 1.3196e-07
6470.0 1.4603e-07
6490.0 1.5505e-07
6510.0 1.1396e-07
6530.0 1.2464e-07
6550.0 1.2317e-07
6570.0 9.9467e-08
6590.0 1.2488e-07
6610.0 1.2794e-07
6630.0 1.333e-07
6650.0 1.1158e-07
6670.0 9.8193e-08
6690.0 9.0394e-08
6710.0 7.9826e-08
6730.0 7.0941e-08
6750.0 7.14e-08
6770.0 4.071e-08
6790.0 1e-99
6810.0 1e-99
6830.0 4.5623e-08
6850.0 2.242e-08
6870.0 2.3271e-08
6890.0 1.9628e-08
6910.0 1.767e-08
6930.0 7.7456e-09
6950.0 2.5622e-08
6970.0 2.3679e-08
6990.0 2.369e-08
7010.0 2.0425e-08
7030.0 3.6447e-08
7050.0 3.7515e-08
7070.0 1e-99
7090.0 1e-99
7110.0 1e-99
7130.0 1e-99
7150.0 1e-99
7170.0 1e-99
7190.0 1e-99
7210.0 1e-99
7230.0 1.133e-08
7250.0 6.9279e-09
7270.0 1.1738e-08
7290.0 2.7446e-08
7310.0 1e-99
7330.0 1e-99
7350.0 1e-99
7370.0 1.2942e-08
7390.0 4.7502e-08
7410.0 1e-99
7430.0 3.6026e-09
7450.0 5.1197e-10
7470.0 3.1554e-08
7490.0 3.9965e-08
7510.0 1.5124e-08
7530.0 3.3752e-08
7550.0 1e-99
7570.0 1e-99
7590.0 1e-99
7610.0 2.8055e-08
7630.0 1e-99
7650.0 2.2185e-08
7670.0 1e-99
7690.0 1e-99
7710.0 1e-99
7730.0 1e-99
7750.0 1e-99
7770.0 1e-99
7790.0 2.0061e-08
7810.0 1e-99
7830.0 8.7481e-09
7850.0 1e-99
7870.0 1e-99
7890.0 1e-99
7910.0 1e-99
7930.0 1e-99
7950.0 1e-99
7970.0 1e-99
7990.0 1e-99
8010.0 1e-99
8030.0 1e-99
8050.0 1e-99
8070.0 1e-99
8090.0 1e-99
8110.0 1e-99
8130.0 1e-99
8150.0 1e-99
8170.0 1e-99
8190.0 1e-99
8210.0 1e-99
8230.0 1e-99
8250.0 1e-99
8270.0 1e-99
8290.0 1e-99
8310.0 1e-99
8330.0 1e-99
8350.0 1e-99
8370.0 1e-99
8390.0 1e-99
8410.0 1e-99
8430.0 1e-99
8450.0 1e-99
8470.0 1e-99
8490.0 1e-99
8510.0 1e-99
8530.0 1e-99
8550.0 1e-99
8570.0 1e-99
8590.0 1e-99
8610.0 1e-99
8630.0 1e-99
8650.0 1e-99
8670.0 1e-99
8690.0 1e-99
8710.0 1e-99
8730.0 1e-99
8750.0 1e-99
8770.0 1e-99
8790.0 1e-99
8810.0 1e-99
8830.0 1e-99
8850.0 1e-99
8870.0 1e-99
8890.0 1e-99
8910.0 1e-99
8930.0 1e-99
8950.0 1e-99
8970.0 1e-99
8990.0 1e-99
9010.0 1e-99
9030.0 1e-99
9050.0 1e-99
9070.0 1e-99
9090.0 1e-99
9110.0 1e-99
9130.0 1e-99
9150.0 1e-99
9170.0 1e-99
9190.0 1e-99
9210.0 1e-99
9230.0 1e-99
9250.0 1e-99
9270.0 1e-99
9290.0 1e-99
9310.0 1e-99
9330.0 1e-99
9350.0 1e-99
9370.0 1e-99
9390.0 1e-99
9410.0 1e-99
9430.0 1e-99
9450.0 1e-99
9470.0 1e-99
9490.0 1e-99
9510.0 1e-99
9530.0 1e-99
9550.0 1e-99
9570.0 1e-99
9590.0 1e-99
9610.0 1e-99
9630.0 1e-99
9650.0 1e-99
9670.0 1e-99
9690.0 1e-99
9710.0 1e-99
9730.0 1e-99
9750.0 1e-99
9770.0 1e-99
9790.0 1e-99
9810.0 1e-99
9830.0 1e-99
9850.0 1e-99
9870.0 1e-99
9890.0 1e-99
9910.0 1e-99
9930.0 1e-99
9950.0 1e-99
9970.0 1e-99
9990.0 1e-99
10010.0 1e-99
10030.0 1e-99
10050.0 1e-99
10070.0 1e-99
10090.0 1e-99
10110.0 1e-99
10130.0 1e-99
10150.0 1e-99
10170.0 1e-99
10190.0 1e-99
10210.0 1e-99
10230.0 1e-99
10250.0 1e-99
10270.0 1e-99
10290.0 1e-99
10310.0 1e-99
10330.0 1e-99
10350.0 1e-99
10370.0 1e-99
10390.0 1e-99
10410.0 1e-99
10430.0 1e-99
10450.0 1e-99
10470.0 1e-99
10490.0 1e-99
10510.0 1e-99
10530.0 1e-99
10550.0 1e-99
10570.0 1e-99
10590.0 1e-99
10610.0 1e-99
10630.0 1e-99
10650.0 1e-99
10670.0 1e-99
10690.0 1e-99
10710.0 1e-99
10730.0 1e-99
10750.0 1e-99
10770.0 1e-99
10790.0 1e-99
10810.0 1e-99
10830.0 1e-99
10850.0 1e-99
10870.0 1e-99
10890.0 1e-99
10910.0 1e-99
10930.0 1e-99
10950.0 1e-99
10970.0 1e-99
10990.0 1e-99
11010.0 6.3991e-08
11030.0 6.3607e-08
11050.0 6.3063e-08
11070.0 6.2393e-08
11090.0 6.1611e-08
11110.0 6.0763e-08
11130.0 5.9873e-08
11150.0 5.8944e-08
11170.0 5.7996e-08
11190.0 5.7052e-08
11210.0 5.6094e-08
11230.0 5.5123e-08
11250.0 5.4164e-08
11270.0 5.3214e-08
11290.0 5.2257e-08
11310.0 5.1311e-08
11330.0 5.0397e-08
11350.0 4.9493e-08
11370.0 4.8602e-08
11390.0 4.7741e-08
11410.0 4.6905e-08
11430.0 4.6078e-08
11450.0 4.5278e-08
11470.0 4.4503e-08
11490.0 4.3742e-08
11510.0 4.2992e-08
11530.0 4.2262e-08
11550.0 4.1545e-08
11570.0 4.0831e-08
11590.0 4.0126e-08
11610.0 3.9431e-08
11630.0 3.8736e-08
11650.0 3.8039e-08
11670.0 3.7349e-08
11690.0 3.6659e-08
11710.0 3.5962e-08
11730.0 3.5265e-08
11750.0 3.4571e-08
11770.0 3.3867e-08
11790.0 3.3159e-08
11810.0 3.2455e-08
11830.0 3.175e-08
11850.0 3.1038e-08
11870.0 3.0335e-08
11890.0 2.9646e-08
11910.0 2.8962e-08
11930.0 2.8289e-08
11950.0 2.764e-08
11970.0 2.7009e-08
11990.0 2.6394e-08
12010.0 2.5809e-08
12030.0 2.5254e-08
12050.0 2.4726e-08
12070.0 2.4228e-08
12090.0 2.3764e-08
12110.0 2.3332e-08
12130.0 2.2932e-08
12150.0 2.2562e-08
12170.0 2.222e-08
12190.0 2.191e-08
12210.0 2.1627e-08
12230.0 2.1363e-08
12250.0 2.1119e-08
12270.0 2.0898e-08
12290.0 2.0687e-08
12310.0 2.0481e-08
12330.0 2.0291e-08
12350.0 2.0105e-08
12370.0 1.9914e-08
12390.0 1.9725e-08
12410.0 1.9541e-08
12430.0 1.9341e-08
12450.0 1.9132e-08
12470.0 1.8917e-08
12490.0 1.8688e-08
12510.0 1.8442e-08
12530.0 1.8183e-08
12550.0 1.7908e-08
12570.0 1.7614e-08
12590.0 1.7305e-08
12610.0 1.6975e-08
12630.0 1.6626e-08
12650.0 1.6266e-08
12670.0 1.5887e-08
12690.0 1.549e-08
12710.0 1.5085e-08
12730.0 1.4671e-08
12750.0 1.4235e-08
12770.0 1.3795e-08
12790.0 1.3355e-08
12810.0 1.2906e-08
12830.0 1.2447e-08
12850.0 1.2e-08
12870.0 1.1557e-08
12890.0 1.1108e-08
12910.0 1.0671e-08
12930.0 1.0253e-08
12950.0 9.8384e-09
12970.0 9.4354e-09
12990.0 9.0645e-09
13010.0 8.7153e-09
13030.0 8.385e-09
13050.0 8.0862e-09
13070.0 7.8226e-09
13090.0 7.584e-09
13110.0 7.3777e-09
13130.0 7.2073e-09
13150.0 7.0687e-09
13170.0 6.9626e-09
13190.0 6.8904e-09
13210.0 6.8484e-09
13230.0 6.838e-09
13250.0 6.8585e-09
13270.0 6.9023e-09
13290.0 6.9723e-09
13310.0 7.0714e-09
13330.0 7.186e-09
13350.0 7.3131e-09
13370.0 7.4577e-09
13390.0 7.6135e-09
13410.0 7.7614e-09
13430.0 7.9123e-09
13450.0 8.0639e-09
13470.0 8.2048e-09
13490.0 8.3339e-09
13510.0 8.4622e-09
13530.0 8.5787e-09
13550.0 8.6822e-09
13570.0 8.7798e-09
13590.0 8.8728e-09
13610.0 8.9574e-09
13630.0 9.0354e-09
13650.0 9.1109e-09
13670.0 9.1799e-09
13690.0 9.241e-09
13710.0 9.2946e-09
13730.0 9.338e-09
13750.0 9.3686e-09
13770.0 9.3863e-09
13790.0 9.3879e-09
13810.0 9.3729e-09
13830.0 9.3454e-09
13850.0 9.2997e-09
13870.0 9.2362e-09
13890.0 9.1636e-09
13910.0 9.0818e-09
13930.0 8.9853e-09
13950.0 8.8839e-09
13970.0 8.7889e-09
13990.0 8.6892e-09
14010.0 8.5893e-09
14030.0 8.5002e-09
14050.0 8.419e-09
14070.0 8.3368e-09
14090.0 8.268e-09
14110.0 8.2124e-09
14130.0 8.1621e-09
14150.0 8.1176e-09
14170.0 8.0872e-09
14190.0 8.0639e-09
14210.0 8.0426e-09
14230.0 8.0291e-09
14250.0 8.024e-09
14270.0 8.0193e-09
14290.0 8.0175e-09
14310.0 8.0256e-09
14330.0 8.0379e-09
14350.0 8.0527e-09
14370.0 8.0751e-09
14390.0 8.1064e-09
14410.0 8.1409e-09
14430.0 8.182e-09
14450.0 8.2323e-09
14470.0 8.2887e-09
14490.0 8.3486e-09
14510.0 8.4162e-09
14530.0 8.4897e-09
14550.0 8.5653e-09
14570.0 8.6437e-09
14590.0 8.7256e-09
14610.0 8.8081e-09
14630.0 8.8897e-09
14650.0 8.9726e-09
14670.0 9.0558e-09
14690.0 9.1369e-09
14710.0 9.2162e-09
14730.0 9.2966e-09
14750.0 9.3743e-09
14770.0 9.4485e-09
14790.0 9.5212e-09
14810.0 9.592e-09
14830.0 9.6559e-09
14850.0 9.7166e-09
14870.0 9.7758e-09
14890.0 9.8304e-09
14910.0 9.8804e-09
14930.0 9.9313e-09
14950.0 9.9838e-09
14970.0 1.0035e-08
14990.0 1.0091e-08
15010.0 1.0154e-08
15030.0 1.022e-08
15050.0 1.029e-08
15070.0 1.0366e-08
15090.0 1.0445e-08
15110.0 1.0524e-08
15130.0 1.0603e-08
15150.0 1.0684e-08
15170.0 1.0762e-08
15190.0 1.0839e-08
15210.0 1.0915e-08
15230.0 1.099e-08
15250.0 1.1062e-08
15270.0 1.1133e-08
15290.0 1.1204e-08
15310.0 1.1272e-08
15330.0 1.1338e-08
15350.0 1.1403e-08
15370.0 1.1467e-08
15390.0 1.1527e-08
15410.0 1.1586e-08
15430.0 1.1644e-08
15450.0 1.1699e-08
15470.0 1.1752e-08
15490.0 1.1804e-08
15510.0 1.1854e-08
15530.0 1.1901e-08
15550.0 1.1946e-08
15570.0 1.199e-08
15590.0 1.2031e-08
15610.0 1.2069e-08
15630.0 1.2107e-08
15650.0 1.2142e-08
15670.0 1.2174e-08
15690.0 1.2204e-08
15710.0 1.2234e-08
15730.0 1.226e-08
15750.0 1.2283e-08
15770.0 1.2305e-08
15790.0 1.2325e-08
15810.0 1.2341e-08
15830.0 1.2357e-08
15850.0 1.2371e-08
15870.0 1.2381e-08
15890.0 1.2389e-08
15910.0 1.2397e-08
15930.0 1.2401e-08
15950.0 1.2402e-08
15970.0 1.2402e-08
15990.0 1.2401e-08
16010.0 1.2396e-08
16030.0 1.2389e-08
16050.0 1.2381e-08
16070.0 1.2371e-08
16090.0 1.2358e-08
16110.0 1.2343e-08
16130.0 1.2328e-08
16150.0 1.2308e-08
16170.0 1.2287e-08
16190.0 1.2265e-08
16210.0 1.224e-08
16230.0 1.2213e-08
16250.0 1.2185e-08
16270.0 1.2155e-08
16290.0 1.2123e-08
16310.0 1.2088e-08
16330.0 1.2054e-08
16350.0 1.2016e-08
16370.0 1.1975e-08
16390.0 1.1935e-08
16410.0 1.1893e-08
16430.0 1.1848e-08
16450.0 1.1802e-08
16470.0 1.1756e-08
16490.0 1.1707e-08
16510.0 1.1656e-08
16530.0 1.1604e-08
16550.0 1.1551e-08
16570.0 1.1496e-08
16590.0 1.1439e-08
16610.0 1.1383e-08
16630.0 1.1324e-08
16650.0 1.1263e-08
16670.0 1.1203e-08
16690.0 1.1141e-08
16710.0 1.1076e-08
16730.0 1.1011e-08
16750.0 1.0945e-08
16770.0 1.0878e-08
16790.0 1.0809e-08
16810.0 1.0741e-08
16830.0 1.0671e-08
16850.0 1.0599e-08
16870.0 1.0527e-08
16890.0 1.0455e-08
16910.0 1.0381e-08
16930.0 1.0306e-08
16950.0 1.0231e-08
16970.0 1.0155e-08
16990.0 1.0078e-08
17010.0 1.0001e-08
17030.0 9.9236e-09
17050.0 9.8443e-09
17070.0 9.7645e-09
17090.0 9.6852e-09
17110.0 9.6051e-09
17130.0 9.523e-09
17150.0 9.4418e-09
17170.0 9.3608e-09
17190.0 9.2782e-09
17210.0 9.1953e-09
17230.0 9.1132e-09
17250.0 9.03e-09
17270.0 8.9455e-09
17290.0 8.8618e-09
17310.0 8.7783e-09
17330.0 8.6935e-09
17350.0 8.6083e-09
17370.0 8.5246e-09
17390.0 8.4399e-09
17410.0 8.3544e-09
17430.0 8.2697e-09
17450.0 8.1855e-09
17470.0 8.0993e-09
17490.0 8.0138e-09
17510.0 7.9293e-09
17530.0 7.8442e-09
17550.0 7.7584e-09
17570.0 7.6739e-09
17590.0 7.5896e-09
17610.0 7.5042e-09
17630.0 7.4194e-09
17650.0 7.3355e-09
17670.0 7.2511e-09
17690.0 7.1658e-09
17710.0 7.0824e-09
17730.0 6.9992e-09
17750.0 6.9152e-09
17770.0 6.8319e-09
17790.0 6.7499e-09
17810.0 6.6669e-09
17830.0 6.584e-09
17850.0 6.5023e-09
17870.0 6.421e-09
17890.0 6.339e-09
17910.0 6.2578e-09
17930.0 6.1781e-09
17950.0 6.0978e-09
17970.0 6.0177e-09
17990.0 5.9389e-09
18010.0 5.8604e-09
18030.0 5.781e-09
18050.0 5.7031e-09
18070.0 5.6261e-09
18090.0 5.5489e-09
18110.0 5.4719e-09
18130.0 5.3965e-09
18150.0 5.3213e-09
18170.0 5.2458e-09
18190.0 5.1715e-09
18210.0 5.0982e-09
18230.0 5.0244e-09
18250.0 4.9511e-09
18270.0 4.8794e-09
18290.0 4.808e-09
18310.0 4.7365e-09
18330.0 4.6663e-09
18350.0 4.597e-09
18370.0 4.5274e-09
18390.0 4.4585e-09
18410.0 4.391e-09
18430.0 4.3237e-09
18450.0 4.2562e-09
18470.0 4.1903e-09
18490.0 4.1253e-09
18510.0 4.0602e-09
18530.0 3.9959e-09
18550.0 3.9329e-09
18570.0 3.87e-09
18590.0 3.8072e-09
18610.0 3.7458e-09
18630.0 3.6853e-09
18650.0 3.6247e-09
18670.0 3.5648e-09
18690.0 3.5065e-09
18710.0 3.4483e-09
18730.0 3.3905e-09
18750.0 3.3338e-09
18770.0 3.278e-09
18790.0 3.2219e-09
18810.0 3.1668e-09
18830.0 3.113e-09
18850.0 3.0595e-09
18870.0 3.0063e-09
18890.0 2.9545e-09
18910.0 2.9033e-09
18930.0 2.8521e-09
18950.0 2.8019e-09
18970.0 2.7528e-09
18990.0 2.7039e-09
19010.0 2.6552e-09
19030.0 2.608e-09
19050.0 2.5614e-09
19070.0 2.515e-09
19090.0 2.4695e-09
19110.0 2.4251e-09
19130.0 2.3807e-09
19150.0 2.3368e-09
19170.0 2.2941e-09
19190.0 2.2519e-09
19210.0 2.2099e-09
19230.0 2.1688e-09
19250.0 2.1288e-09
19270.0 2.0889e-09
19290.0 2.0495e-09
19310.0 2.0112e-09
19330.0 1.9734e-09
19350.0 1.9356e-09
19370.0 1.8988e-09
19390.0 1.8629e-09
19410.0 1.8271e-09
19430.0 1.7919e-09
19450.0 1.7577e-09
19470.0 1.7239e-09
19490.0 1.6903e-09
19510.0 1.6575e-09
19530.0 1.6255e-09
19550.0 1.5935e-09
19570.0 1.562e-09
19590.0 1.5316e-09
19610.0 1.5015e-09
19630.0 1.4716e-09
19650.0 1.4425e-09
19670.0 1.414e-09
19690.0 1.3856e-09
19710.0 1.3577e-09
19730.0 1.3306e-09
19750.0 1.3037e-09
19770.0 1.2769e-09
19790.0 1.251e-09
19810.0 1.2257e-09
19830.0 1.2004e-09
19850.0 1.1756e-09
19870.0 1.1514e-09
19890.0 1.1273e-09
19910.0 1.1033e-09
19930.0 1.0799e-09
19950.0 1.0568e-09
19970.0 1.0337e-09
19990.0 1.0109e-09
20010.0 9.8907e-10
20030.0 9.6769e-10
20050.0 9.4729e-10
20070.0 9.2859e-10
20090.0 9.1166e-10
20110.0 8.966e-10
20130.0 8.8402e-10
20150.0 8.7372e-10
20170.0 8.6572e-10
20190.0 8.6006e-10
20210.0 8.5615e-10
20230.0 8.5395e-10
20250.0 8.5369e-10
20270.0 8.545e-10
20290.0 8.5593e-10
20310.0 8.584e-10
20330.0 8.6176e-10
20350.0 8.6436e-10
20370.0 8.6708e-10
20390.0 8.6999e-10
20410.0 8.7228e-10
20430.0 8.7373e-10
20450.0 8.7533e-10
20470.0 8.7636e-10
20490.0 8.7648e-10
20510.0 8.7622e-10
20530.0 8.759e-10
20550.0 8.7499e-10
20570.0 8.7348e-10
20590.0 8.7213e-10
20610.0 8.7067e-10
20630.0 8.6877e-10
20650.0 8.669e-10
20670.0 8.6545e-10
20690.0 8.6352e-10
20710.0 8.6134e-10
20730.0 8.5935e-10
20750.0 8.5722e-10
20770.0 8.5436e-10
20790.0 8.5134e-10
20810.0 8.4816e-10
20830.0 8.4413e-10
20850.0 8.3928e-10
20870.0 8.3407e-10
20890.0 8.2795e-10
20910.0 8.2044e-10
20930.0 8.1206e-10
20950.0 8.0272e-10
20970.0 7.92e-10
20990.0 7.8003e-10
21010.0 7.6711e-10
21030.0 7.5289e-10
21050.0 7.3736e-10
21070.0 7.2074e-10
21090.0 7.0306e-10
21110.0 6.8416e-10
21130.0 6.6418e-10
21150.0 6.4322e-10
21170.0 6.212e-10
21190.0 5.9813e-10
21210.0 5.7405e-10
21230.0 5.489e-10
21250.0 5.2265e-10
21270.0 4.9527e-10
21290.0 4.6667e-10
21310.0 4.3682e-10
21330.0 4.0575e-10
21350.0 3.7328e-10
21370.0 3.4003e-10
21390.0 3.6276e-10
21410.0 3.8614e-10
21430.0 4.1105e-10
21450.0 4.3628e-10
21470.0 4.6184e-10
21490.0 4.8851e-10
21510.0 5.1611e-10
21530.0 5.4376e-10
21550.0 5.7214e-10
21570.0 6.0176e-10
21590.0 6.3161e-10
21610.0 6.6166e-10
21630.0 6.9273e-10
21650.0 7.2483e-10
21670.0 7.5637e-10
21690.0 7.8868e-10
21710.0 8.2198e-10
21730.0 8.5544e-10
21750.0 8.8891e-10
21770.0 9.2383e-10
21790.0 9.5918e-10
21810.0 9.9443e-10
21830.0 1.0304e-09
21850.0 1.0674e-09
21870.0 1.1045e-09
21890.0 1.1415e-09
21910.0 1.1797e-09
21930.0 1.2183e-09
21950.0 1.2567e-09
21970.0 1.2957e-09
21990.0 1.3358e-09
22010.0 1.3753e-09
22030.0 1.4149e-09
22050.0 1.455e-09
22070.0 1.4794e-09
22090.0 1.4749e-09
22110.0 1.4703e-09
22130.0 1.4656e-09
22150.0 1.4608e-09
22170.0 1.4559e-09
22190.0 1.451e-09
22210.0 1.4459e-09
22230.0 1.4408e-09
22250.0 1.4356e-09
22270.0 1.4304e-09
22290.0 1.4251e-09
22310.0 1.4198e-09
22330.0 1.4144e-09
22350.0 1.409e-09
22370.0 1.4035e-09
22390.0 1.3979e-09
22410.0 1.3924e-09
22430.0 1.3868e-09
22450.0 1.3811e-09
22470.0 1.3754e-09
22490.0 1.3697e-09
22510.0 1.3638e-09
22530.0 1.3579e-09
22550.0 1.352e-09
22570.0 1.3459e-09
22590.0 1.3397e-09
22610.0 1.3335e-09
22630.0 1.3271e-09
22650.0 1.3205e-09
22670.0 1.3138e-09
22690.0 1.307e-09
22710.0 1.2999e-09
22730.0 1.2927e-09
22750.0 1.2853e-09
22770.0 1.2777e-09
22790.0 1.2698e-09
22810.0 1.2617e-09
22830.0 1.2534e-09
22850.0 1.2449e-09
22870.0 1.2361e-09
22890.0 1.227e-09
22910.0 1.2177e-09
22930.0 1.2081e-09
22950.0 1.1983e-09
22970.0 1.1882e-09
22990.0 1.1778e-09
23010.0 1.1671e-09
23030.0 1.156e-09
23050.0 1.1447e-09
23070.0 1.133e-09
23090.0 1.1209e-09
23110.0 1.1211e-09
23130.0 1.1219e-09
23150.0 1.1227e-09
23170.0 1.1233e-09
23190.0 1.1237e-09
23210.0 1.124e-09
23230.0 1.124e-09
23250.0 1.1238e-09
23270.0 1.1235e-09
23290.0 1.1229e-09
23310.0 1.122e-09
23330.0 1.1211e-09
23350.0 1.1201e-09
23370.0 1.1189e-09
23390.0 1.1177e-09
23410.0 1.1165e-09
23430.0 1.1153e-09
23450.0 1.1142e-09
23470.0 1.1132e-09
23490.0 1.1123e-09
23510.0 1.1115e-09
23530.0 1.1109e-09
23550.0 1.1105e-09
23570.0 1.1102e-09
23590.0 1.11e-09
23610.0 1.11e-09
23630.0 1.11e-09
23650.0 1.1102e-09
23670.0 1.1103e-09
23690.0 1.1105e-09
23710.0 1.1107e-09
23730.0 1.1109e-09
23750.0 1.1111e-09
23770.0 1.1112e-09
23790.0 1.1112e-09
23810.0 1.1112e-09
23830.0 1.1111e-09
23850.0 1.111e-09
23870.0 1.1107e-09
23890.0 1.1105e-09
23910.0 1.1102e-09
23930.0 1.1099e-09
23950.0 1.1095e-09
23970.0 1.1092e-09
