#lamb flux
1010.0 1.237e-06
1030.0 1.3879e-06
1050.0 1.5614e-06
1070.0 1.7568e-06
1090.0 1.9787e-06
1110.0 2.2063e-06
1130.0 2.4354e-06
1150.0 2.6754e-06
1170.0 2.9229e-06
1190.0 3.1577e-06
1210.0 3.3955e-06
1230.0 3.6414e-06
1250.0 3.8822e-06
1270.0 4.1161e-06
1290.0 4.3632e-06
1310.0 4.6102e-06
1330.0 4.847e-06
1350.0 5.0865e-06
1370.0 5.3338e-06
1390.0 5.5748e-06
1410.0 5.8087e-06
1430.0 6.0531e-06
1450.0 6.2975e-06
1470.0 6.5337e-06
1490.0 6.7724e-06
1510.0 7.0245e-06
1530.0 7.2632e-06
1550.0 7.4987e-06
1570.0 7.7422e-06
1590.0 7.9858e-06
1610.0 8.2184e-06
1630.0 8.4581e-06
1650.0 8.7039e-06
1670.0 8.9413e-06
1690.0 9.1755e-06
1710.0 9.4183e-06
1730.0 9.6622e-06
1750.0 9.8908e-06
1770.0 1.0126e-05
1790.0 1.0365e-05
1810.0 1.0595e-05
1830.0 1.0821e-05
1850.0 1.106e-05
1870.0 1.1291e-05
1890.0 1.1512e-05
1910.0 1.1737e-05
1930.0 1.1966e-05
1950.0 1.2182e-05
1970.0 1.2392e-05
1990.0 1.2609e-05
2010.0 1.2819e-05
2030.0 1.3018e-05
2050.0 1.322e-05
2070.0 1.3424e-05
2090.0 1.361e-05
2110.0 1.3791e-05
2130.0 1.3973e-05
2150.0 1.4146e-05
2170.0 1.4303e-05
2190.0 1.4462e-05
2210.0 1.4615e-05
2230.0 1.4753e-05
2250.0 1.4882e-05
2270.0 1.5012e-05
2290.0 1.5127e-05
2310.0 1.5225e-05
2330.0 1.5321e-05
2350.0 1.541e-05
2370.0 1.5484e-05
2390.0 1.5555e-05
2410.0 1.5638e-05
2430.0 1.5723e-05
2450.0 1.5817e-05
2470.0 1.5947e-05
2490.0 1.6119e-05
2510.0 1.6319e-05
2530.0 1.6597e-05
2550.0 1.7023e-05
2570.0 1.7659e-05
2590.0 1.8608e-05
2610.0 2.0165e-05
2630.0 2.2429e-05
2650.0 2.5308e-05
2670.0 2.8872e-05
2690.0 3.3008e-05
2710.0 3.7103e-05
2730.0 4.0823e-05
2750.0 4.4184e-05
2770.0 4.6776e-05
2790.0 4.8514e-05
2810.0 4.9627e-05
2830.0 5.0262e-05
2850.0 5.0418e-05
2870.0 5.0322e-05
2890.0 5.0099e-05
2910.0 4.9783e-05
2930.0 4.9401e-05
2950.0 4.9022e-05
2970.0 4.8652e-05
2990.0 4.8271e-05
3010.0 0.0012508
3030.0 0.0012413
3050.0 0.001232
3070.0 0.001222
3090.0 0.0012115
3110.0 0.0011994
3130.0 0.0011843
3150.0 0.0011653
3170.0 0.0011407
3190.0 0.0011111
3210.0 0.0010787
3230.0 0.0010451
3250.0 0.001014
3270.0 0.00099178
3290.0 0.00097917
3310.0 0.00098026
3330.0 0.00099375
3350.0 0.0010178
3370.0 0.0010527
3390.0 0.0010971
3410.0 0.0011459
3430.0 0.0012013
3450.0 0.0012655
3470.0 0.0013358
3490.0 0.0014105
3510.0 0.0014949
3530.0 0.0015859
3550.0 0.0016802
3570.0 0.0017817
3590.0 0.001896
3610.0 0.0020194
3630.0 0.0021472
3650.0 0.0022824
3670.0 0.0024078
3690.0 0.0025044
3710.0 0.0025592
3730.0 0.0025514
3750.0 0.0024788
3770.0 0.002375
3790.0 0.002203
3810.0 0.0018912
3830.0 0.0016966
3850.0 0.0016709
3870.0 0.0012687
3890.0 0.0014801
3910.0 0.0021899
3930.0 0.0027377
3950.0 0.0028101
3970.0 0.0030898
3990.0 0.0031482
4010.0 0.0043606
4030.0 0.0041972
4050.0 0.0037168
4070.0 0.0036752
4090.0 0.0035131
4110.0 0.0039902
4130.0 0.0044802
4150.0 0.0049491
4170.0 0.0045421
4190.0 0.0043753
4210.0 0.0045176
4230.0 0.0052868
4250.0 0.0059267
4270.0 0.006191
4290.0 0.0060115
4310.0 0.005875
4330.0 0.0062701
4350.0 0.0075711
4370.0 0.0088061
4390.0 0.0077992
4410.0 0.0056831
4430.0 0.0045738
4450.0 0.003992
4470.0 0.0036159
4490.0 0.0043877
4510.0 0.005908
4530.0 0.0067923
4550.0 0.0073723
4570.0 0.0079563
4590.0 0.0092982
4610.0 0.013728
4630.0 0.017651
4650.0 0.017453
4670.0 0.016158
4690.0 0.017179
4710.0 0.01827
4730.0 0.015153
4750.0 0.010283
4770.0 0.0080153
4790.0 0.0081711
4810.0 0.0078662
4830.0 0.0075285
4850.0 0.0084642
4870.0 0.011103
4890.0 0.012931
4910.0 0.010515
4930.0 0.0094901
4950.0 0.010698
4970.0 0.014442
4990.0 0.019139
5010.0 0.021075
5030.0 0.017109
5050.0 0.010598
5070.0 0.0073523
5090.0 0.0062587
5110.0 0.0063388
5130.0 0.0070225
5150.0 0.0071552
5170.0 0.007027
5190.0 0.0067138
5210.0 0.006698
5230.0 0.0073306
5250.0 0.0080893
5270.0 0.0085963
5290.0 0.0097662
5310.0 0.011534
5330.0 0.011912
5350.0 0.011843
5370.0 0.013071
5390.0 0.014995
5410.0 0.013898
5430.0 0.011372
5450.0 0.010716
5470.0 0.012177
5490.0 0.015605
5510.0 0.019816
5530.0 0.022446
5550.0 0.021114
5570.0 0.018944
5590.0 0.01636
5610.0 0.015622
5630.0 0.015729
5650.0 0.015567
5670.0 0.014896
5690.0 0.013122
5710.0 0.012791
5730.0 0.011998
5750.0 0.0076154
5770.0 0.0062842
5790.0 0.0073077
5810.0 0.0086135
5830.0 0.010785
5850.0 0.01261
5870.0 0.01314
5890.0 0.012599
5910.0 0.012086
5930.0 0.011979
5950.0 0.012496
5970.0 0.014179
5990.0 0.012767
6010.0 0.010376
6030.0 0.0085447
6050.0 0.0074438
6070.0 0.0078864
6090.0 0.008968
6110.0 0.0096524
6130.0 0.0091086
6150.0 0.007917
6170.0 0.0079195
6190.0 0.0096723
6210.0 0.012743
6230.0 0.015962
6250.0 0.016345
6270.0 0.013838
6290.0 0.011562
6310.0 0.0090524
6330.0 0.0069794
6350.0 0.0064081
6370.0 0.0068283
6390.0 0.0081867
6410.0 0.0098195
6430.0 0.011555
6450.0 0.013746
6470.0 0.015945
6490.0 0.019584
6510.0 0.021889
6530.0 0.020851
6550.0 0.019103
6570.0 0.017501
6590.0 0.016899
6610.0 0.014624
6630.0 0.013783
6650.0 0.012807
6670.0 0.012646
6690.0 0.011719
6710.0 0.010676
6730.0 0.008337
6750.0 0.0080257
6770.0 0.0087896
6790.0 0.010459
6810.0 0.0095248
6830.0 0.0097884
6850.0 0.0092119
6870.0 0.0087892
6890.0 0.0082966
6910.0 0.0084566
6930.0 0.0078981
6950.0 0.0084763
6970.0 0.0085607
6990.0 0.009555
7010.0 0.010002
7030.0 0.0097267
7050.0 0.0089107
7070.0 0.0083987
7090.0 0.00808
7110.0 0.0078059
7130.0 0.0082643
7150.0 0.0089945
7170.0 0.0097426
7190.0 0.0099566
7210.0 0.0093908
7230.0 0.0096077
7250.0 0.010802
7270.0 0.012408
7290.0 0.014019
7310.0 0.013983
7330.0 0.01253
7350.0 0.011178
7370.0 0.0097959
7390.0 0.010006
7410.0 0.011107
7430.0 0.012271
7450.0 0.013252
7470.0 0.013761
7490.0 0.014301
7510.0 0.016775
7530.0 0.015417
7550.0 0.013244
7570.0 0.0099371
7590.0 0.0065477
7610.0 0.0056103
7630.0 0.0063889
7650.0 0.0075905
7670.0 0.0094741
7690.0 0.010743
7710.0 0.010991
7730.0 0.011148
7750.0 0.012268
7770.0 0.012289
7790.0 0.011672
7810.0 0.011109
7830.0 0.011112
7850.0 0.010576
7870.0 0.009794
7890.0 0.0084759
7910.0 0.0068098
7930.0 0.0061457
7950.0 0.0055446
7970.0 0.0052285
7990.0 0.0052279
8010.0 0.0054189
8030.0 0.0053657
8050.0 0.0054673
8070.0 0.0054688
8090.0 0.0057549
8110.0 0.0054119
8130.0 0.0044716
8150.0 0.0042279
8170.0 0.0036852
8190.0 0.0035151
8210.0 0.0040673
8230.0 0.0044292
8250.0 0.0037786
8270.0 0.0033432
8290.0 0.0029659
8310.0 0.0021018
8330.0 0.0013491
8350.0 0.0010037
8370.0 0.00092234
8390.0 0.0012167
8410.0 0.0015288
8430.0 0.0018799
8450.0 0.0020858
8470.0 0.0024703
8490.0 0.0023433
8510.0 0.0022669
8530.0 0.0021963
8550.0 0.0029853
8570.0 0.0038489
8590.0 0.0040507
8610.0 0.005055
8630.0 0.0057981
8650.0 0.0056285
8670.0 0.005945
8690.0 0.0063178
8710.0 0.0058373
8730.0 0.0057133
8750.0 0.0051357
8770.0 0.0048776
8790.0 0.0049376
8810.0 0.0048116
8830.0 0.0037905
8850.0 0.0029428
8870.0 0.002416
8890.0 0.0025977
8910.0 0.0030029
8930.0 0.0033435
8950.0 0.0037864
8970.0 0.0038081
8990.0 0.0035614
9010.0 0.003179
9030.0 0.0030601
9050.0 0.0031053
9070.0 0.0031433
9090.0 0.0031723
9110.0 0.0032017
9130.0 0.0032252
9150.0 0.0032451
9170.0 0.0032661
9190.0 0.0032885
9210.0 0.0033122
9230.0 0.0033371
9250.0 0.0033631
9270.0 0.0033901
9290.0 0.003418
9310.0 0.0034469
9330.0 0.0034767
9350.0 0.0035074
9370.0 0.003539
9390.0 0.0035715
9410.0 0.0036048
9430.0 0.003639
9450.0 0.0036741
9470.0 0.00371
9490.0 0.0037468
9510.0 0.0037844
9530.0 0.0038228
9550.0 0.0038621
9570.0 0.0039021
9590.0 0.0039429
9610.0 0.0039845
9630.0 0.0040269
9650.0 0.0040699
9670.0 0.0041138
9690.0 0.0041583
9710.0 0.0042035
9730.0 0.0042495
9750.0 0.004296
9770.0 0.0043431
9790.0 0.0043909
9810.0 0.0044393
9830.0 0.0044882
9850.0 0.0045376
9870.0 0.0045876
9890.0 0.004638
9910.0 0.0046888
9930.0 0.0047401
9950.0 0.0047918
9970.0 0.0048438
9990.0 0.004896
10010.0 0.0046546
10030.0 0.0047031
10050.0 0.0047517
10070.0 0.0048002
10090.0 0.0048494
10110.0 0.0048985
10130.0 0.0049477
10150.0 0.0049969
10170.0 0.0050461
10190.0 0.005095
10210.0 0.005144
10230.0 0.0051929
10250.0 0.0052415
10270.0 0.0052899
10290.0 0.0053381
10310.0 0.0053859
10330.0 0.0054333
10350.0 0.0054805
10370.0 0.0055272
10390.0 0.0055733
10410.0 0.005619
10430.0 0.0056643
10450.0 0.0057089
10470.0 0.0057528
10490.0 0.0057961
10510.0 0.0058388
10530.0 0.0058805
10550.0 0.0059215
10570.0 0.0059619
10590.0 0.0060012
10610.0 0.0060396
10630.0 0.0060773
10650.0 0.006114
10670.0 0.0061495
10690.0 0.0061841
10710.0 0.0062178
10730.0 0.0062502
10750.0 0.0062814
10770.0 0.0063117
10790.0 0.0063409
10810.0 0.0063685
10830.0 0.0063948
10850.0 0.0064196
10870.0 0.0064415
10890.0 0.0064594
10910.0 0.006472
10930.0 0.0064756
10950.0 0.0064649
10970.0 0.0064371
10990.0 0.0063906
11010.0 0.0062904
11030.0 0.0061925
11050.0 0.0060748
11070.0 0.0059341
11090.0 0.0057643
11110.0 0.0055885
11130.0 0.0054049
11150.0 0.0052068
11170.0 0.0050031
11190.0 0.0048068
11210.0 0.0046058
11230.0 0.004402
11250.0 0.0042102
11270.0 0.0040289
11290.0 0.0038503
11310.0 0.003684
11330.0 0.0035398
11350.0 0.0034054
11370.0 0.0032824
11390.0 0.0031763
11410.0 0.0030832
11430.0 0.0029955
11450.0 0.0029177
11470.0 0.0028478
11490.0 0.0027796
11510.0 0.0027104
11530.0 0.0026431
11550.0 0.0025738
11570.0 0.0024983
11590.0 0.0024193
11610.0 0.0023388
11630.0 0.002252
11650.0 0.0021601
11670.0 0.0020708
11690.0 0.0019815
11710.0 0.0018908
11730.0 0.0018042
11750.0 0.0017249
11770.0 0.001648
11790.0 0.0015766
11810.0 0.001514
11830.0 0.001458
11850.0 0.0014062
11870.0 0.0013623
11890.0 0.0013248
11910.0 0.0012907
11930.0 0.0012599
11950.0 0.0012325
11970.0 0.0012063
11990.0 0.00118
12010.0 0.0011541
12030.0 0.001128
12050.0 0.0011004
12070.0 0.0010714
12090.0 0.001043
12110.0 0.001014
12130.0 0.00098461
12150.0 0.00095677
12170.0 0.00093132
12190.0 0.00090731
12210.0 0.00088711
12230.0 0.00087164
12250.0 0.00086072
12270.0 0.00085512
12290.0 0.00085519
12310.0 0.00086043
12330.0 0.00087161
12350.0 0.00088815
12370.0 0.00090852
12390.0 0.0009332
12410.0 0.00096312
12430.0 0.00099366
12450.0 0.0010253
12470.0 0.0010588
12490.0 0.0010919
12510.0 0.0011222
12530.0 0.0011516
12550.0 0.0011791
12570.0 0.0012021
12590.0 0.001221
12610.0 0.0012366
12630.0 0.0012474
12650.0 0.0012526
12670.0 0.0012538
12690.0 0.0012504
12710.0 0.0012426
12730.0 0.001231
12750.0 0.0012154
12770.0 0.0011965
12790.0 0.0011752
12810.0 0.0011512
12830.0 0.0011245
12850.0 0.0010972
12870.0 0.0010686
12890.0 0.0010382
12910.0 0.0010072
12930.0 0.00097641
12950.0 0.00094419
12970.0 0.00091105
12990.0 0.00087906
13010.0 0.00084695
13030.0 0.00081401
13050.0 0.00078174
13070.0 0.00075092
13090.0 0.00071962
13110.0 0.00068893
13130.0 0.00066025
13150.0 0.00063286
13170.0 0.00060599
13190.0 0.00058193
13210.0 0.00056068
13230.0 0.00054132
13250.0 0.00052468
13270.0 0.00051148
13290.0 0.00050115
13310.0 0.00049385
13330.0 0.00049005
13350.0 0.00048936
13370.0 0.00049185
13390.0 0.00049755
13410.0 0.00050535
13430.0 0.00051554
13450.0 0.00052808
13470.0 0.00054179
13490.0 0.00055606
13510.0 0.00057201
13530.0 0.0005879
13550.0 0.00060281
13570.0 0.00061732
13590.0 0.00063126
13610.0 0.00064338
13630.0 0.00065368
13650.0 0.00066287
13670.0 0.00067015
13690.0 0.00067533
13710.0 0.00067888
13730.0 0.00068081
13750.0 0.00068079
13770.0 0.00067927
13790.0 0.0006763
13810.0 0.00067196
13830.0 0.00066659
13850.0 0.00066004
13870.0 0.00065238
13890.0 0.00064405
13910.0 0.00063505
13930.0 0.00062504
13950.0 0.00061448
13970.0 0.00060395
13990.0 0.0005928
14010.0 0.00058125
14030.0 0.00056997
14050.0 0.00055882
14070.0 0.00054733
14090.0 0.00053652
14110.0 0.00052653
14130.0 0.00051703
14150.0 0.00050828
14170.0 0.00050094
14190.0 0.00049473
14210.0 0.00048964
14230.0 0.00048603
14250.0 0.00048388
14270.0 0.00048314
14290.0 0.00048397
14310.0 0.00048615
14330.0 0.00048965
14350.0 0.00049458
14370.0 0.00050056
14390.0 0.00050727
14410.0 0.00051515
14430.0 0.00052381
14450.0 0.00053273
14470.0 0.00054213
14490.0 0.00055238
14510.0 0.00056253
14530.0 0.00057261
14550.0 0.00058329
14570.0 0.0005943
14590.0 0.00060519
14610.0 0.00061671
14630.0 0.00062926
14650.0 0.00064212
14670.0 0.00065557
14690.0 0.00067047
14710.0 0.00068674
14730.0 0.0007032
14750.0 0.0007212
14770.0 0.00074091
14790.0 0.00076125
14810.0 0.00078208
14830.0 0.00080513
14850.0 0.00082845
14870.0 0.00085119
14890.0 0.00087418
14910.0 0.00089709
14930.0 0.00091793
14950.0 0.00093651
14970.0 0.00095334
14990.0 0.00096693
15010.0 0.00097699
15030.0 0.00098421
15050.0 0.00098878
15070.0 0.00099091
15090.0 0.00099154
15110.0 0.00099112
15130.0 0.00099006
15150.0 0.00098877
15170.0 0.00098723
15190.0 0.00098558
15210.0 0.00098401
15230.0 0.00098246
15250.0 0.00098081
15270.0 0.0009792
15290.0 0.00097774
15310.0 0.0009762
15330.0 0.00097464
15350.0 0.00097317
15370.0 0.00097173
15390.0 0.00097016
15410.0 0.00096867
15430.0 0.00096726
15450.0 0.00096578
15470.0 0.00096426
15490.0 0.00096287
15510.0 0.00096147
15530.0 0.00095998
15550.0 0.00095855
15570.0 0.00095719
15590.0 0.00095571
15610.0 0.0009542
15630.0 0.00095282
15650.0 0.00095142
15670.0 0.00094993
15690.0 0.00094849
15710.0 0.00094713
15730.0 0.00094565
15750.0 0.00094416
15770.0 0.00094275
15790.0 0.00094131
15810.0 0.00093973
15830.0 0.00093826
15850.0 0.00093684
15870.0 0.00093531
15890.0 0.00093377
15910.0 0.00093232
15930.0 0.0009308
15950.0 0.00092917
15970.0 0.00092763
15990.0 0.0009261
16010.0 0.00092448
16030.0 0.00092281
16050.0 0.00092128
16070.0 0.00091966
16090.0 0.00091796
16110.0 0.00091632
16130.0 0.00091472
16150.0 0.00091293
16170.0 0.00091117
16190.0 0.00090949
16210.0 0.00090774
16230.0 0.0009059
16250.0 0.00090414
16270.0 0.00090239
16290.0 0.0009005
16310.0 0.00089863
16330.0 0.00089681
16350.0 0.00089491
16370.0 0.00089287
16390.0 0.00089098
16410.0 0.00088906
16430.0 0.00088703
16450.0 0.000885
16470.0 0.00088305
16490.0 0.00088097
16510.0 0.00087882
16530.0 0.00087675
16550.0 0.00087466
16570.0 0.00087243
16590.0 0.00087022
16610.0 0.0008681
16630.0 0.00086587
16650.0 0.00086357
16670.0 0.00086135
16690.0 0.0008591
16710.0 0.00085667
16730.0 0.00085432
16750.0 0.000852
16770.0 0.00084958
16790.0 0.00084709
16810.0 0.0008447
16830.0 0.00084227
16850.0 0.00083972
16870.0 0.0008372
16890.0 0.00083473
16910.0 0.0008321
16930.0 0.00082943
16950.0 0.00082687
16970.0 0.00082425
16990.0 0.00082153
17010.0 0.00081885
17030.0 0.00081621
17050.0 0.00081343
17070.0 0.00081063
17090.0 0.0008079
17110.0 0.00080511
17130.0 0.00080217
17150.0 0.00079934
17170.0 0.00079653
17190.0 0.0007936
17210.0 0.00079065
17230.0 0.00078779
17250.0 0.00078484
17270.0 0.00078177
17290.0 0.00077879
17310.0 0.00077581
17330.0 0.00077272
17350.0 0.0007696
17370.0 0.0007666
17390.0 0.00076351
17410.0 0.00076034
17430.0 0.00075723
17450.0 0.00075415
17470.0 0.00075087
17490.0 0.00074765
17510.0 0.0007445
17530.0 0.00074127
17550.0 0.00073796
17570.0 0.00073474
17590.0 0.00073153
17610.0 0.00072819
17630.0 0.00072486
17650.0 0.00072161
17670.0 0.00071827
17690.0 0.0007148
17710.0 0.0007115
17730.0 0.00070817
17750.0 0.00070473
17770.0 0.00070132
17790.0 0.000698
17810.0 0.00069454
17830.0 0.00069105
17850.0 0.00068764
17870.0 0.00068422
17890.0 0.00068068
17910.0 0.00067718
17930.0 0.00067378
17950.0 0.00067027
17970.0 0.00066673
17990.0 0.00066327
18010.0 0.0006598
18030.0 0.00065617
18050.0 0.00065264
18070.0 0.00064916
18090.0 0.00064559
18110.0 0.00064198
18130.0 0.00063849
18150.0 0.00063496
18170.0 0.00063134
18190.0 0.00062778
18210.0 0.00062428
18230.0 0.00062065
18250.0 0.00061699
18270.0 0.00061348
18290.0 0.00060991
18310.0 0.00060627
18330.0 0.0006027
18350.0 0.00059919
18370.0 0.00059555
18390.0 0.00059192
18410.0 0.00058838
18430.0 0.00058481
18450.0 0.00058112
18470.0 0.00057755
18490.0 0.00057403
18510.0 0.00057041
18530.0 0.0005668
18550.0 0.00056329
18570.0 0.00055971
18590.0 0.00055606
18610.0 0.0005525
18630.0 0.00054898
18650.0 0.00054536
18670.0 0.00054175
18690.0 0.00053827
18710.0 0.00053472
18730.0 0.00053113
18750.0 0.00052761
18770.0 0.00052414
18790.0 0.00052051
18810.0 0.00051695
18830.0 0.00051349
18850.0 0.00050997
18870.0 0.0005064
18890.0 0.00050295
18910.0 0.0004995
18930.0 0.00049596
18950.0 0.00049247
18970.0 0.00048905
18990.0 0.00048557
19010.0 0.00048201
19030.0 0.00047862
19050.0 0.00047522
19070.0 0.00047174
19090.0 0.00046832
19110.0 0.00046499
19130.0 0.00046154
19150.0 0.00045809
19170.0 0.00045474
19190.0 0.00045139
19210.0 0.00044796
19230.0 0.00044459
19250.0 0.00044132
19270.0 0.00043796
19290.0 0.0004346
19310.0 0.00043134
19330.0 0.00042807
19350.0 0.00042468
19370.0 0.0004214
19390.0 0.00041818
19410.0 0.0004149
19430.0 0.0004116
19450.0 0.00040842
19470.0 0.00040522
19490.0 0.00040196
19510.0 0.00039876
19530.0 0.00039563
19550.0 0.0003924
19570.0 0.00038917
19590.0 0.00038607
19610.0 0.00038294
19630.0 0.00037976
19650.0 0.00037666
19670.0 0.00037362
19690.0 0.00037047
19710.0 0.00036736
19730.0 0.00036434
19750.0 0.00036128
19770.0 0.00035816
19790.0 0.00035515
19810.0 0.00035217
19830.0 0.00034913
19850.0 0.00034609
19870.0 0.00034312
19890.0 0.00034002
19910.0 0.00033675
19930.0 0.0003334
19950.0 0.0003298
19970.0 0.00032568
19990.0 0.00032105
20010.0 0.00032053
20030.0 0.00031473
20050.0 0.00030825
20070.0 0.00030146
20090.0 0.00029439
20110.0 0.00028666
20130.0 0.00027902
20150.0 0.00027161
20170.0 0.00026408
20190.0 0.0002566
20210.0 0.00024962
20230.0 0.00024289
20250.0 0.00023623
20270.0 0.00023009
20290.0 0.00022449
20310.0 0.00021919
20330.0 0.00021425
20350.0 0.00021012
20370.0 0.00020644
20390.0 0.00020321
20410.0 0.00020058
20430.0 0.00019852
20450.0 0.0001969
20470.0 0.0001958
20490.0 0.00019521
20510.0 0.00019504
20530.0 0.00019532
20550.0 0.00019596
20570.0 0.00019689
20590.0 0.00019817
20610.0 0.00019973
20630.0 0.00020143
20650.0 0.00020335
20670.0 0.00020555
20690.0 0.00020777
20710.0 0.00021004
20730.0 0.00021248
20750.0 0.00021499
20770.0 0.00021742
20790.0 0.00021994
20810.0 0.00022257
20830.0 0.00022514
20850.0 0.00022768
20870.0 0.00023038
20890.0 0.0002331
20910.0 0.00023569
20930.0 0.00023837
20950.0 0.00024114
20970.0 0.00024382
20990.0 0.00024647
21010.0 0.00024927
21030.0 0.00025201
21050.0 0.00025463
21070.0 0.00025727
21090.0 0.00025996
21110.0 0.00026242
21130.0 0.00026475
21150.0 0.00026708
21170.0 0.00026923
21190.0 0.00027115
21210.0 0.00027297
21230.0 0.00027463
21250.0 0.00027597
21270.0 0.00027707
21290.0 0.00027793
21310.0 0.00027847
21330.0 0.00027864
21350.0 0.00027848
21370.0 0.00027792
21390.0 0.00027696
21410.0 0.00027559
21430.0 0.00027368
21450.0 0.00027134
21470.0 0.00026863
21490.0 0.0002654
21510.0 0.0002617
21530.0 0.00025776
21550.0 0.00025347
21570.0 0.00024871
21590.0 0.00024384
21610.0 0.00023894
21630.0 0.00023383
21650.0 0.00022861
21670.0 0.00022383
21690.0 0.00021916
21710.0 0.00021465
21730.0 0.00021059
21750.0 0.00020705
21770.0 0.0002038
21790.0 0.00020113
21810.0 0.0001991
21830.0 0.00019761
21850.0 0.00019671
21870.0 0.00019643
21890.0 0.0001967
21910.0 0.00019754
21930.0 0.00019894
21950.0 0.00020076
21970.0 0.00020306
21990.0 0.00020593
22010.0 0.00020904
22030.0 0.00021242
22050.0 0.00021619
22070.0 0.00022021
22090.0 0.0002242
22110.0 0.00022842
22130.0 0.00023284
22150.0 0.00023714
22170.0 0.00024135
22190.0 0.00024568
22210.0 0.00024986
22230.0 0.00025365
22250.0 0.00025732
22270.0 0.00026079
22290.0 0.00026382
22310.0 0.00026648
22330.0 0.00026888
22350.0 0.0002708
22370.0 0.0002722
22390.0 0.00027317
22410.0 0.00027364
22430.0 0.00027355
22450.0 0.00027296
22470.0 0.00027182
22490.0 0.00027013
22510.0 0.00026799
22530.0 0.00026523
22550.0 0.00026187
22570.0 0.00025814
22590.0 0.00025393
22610.0 0.0002491
22630.0 0.00024387
22650.0 0.00023846
22670.0 0.00023248
22690.0 0.00022608
22710.0 0.0002196
22730.0 0.00021291
22750.0 0.00020562
22770.0 0.00019847
22790.0 0.00019145
22810.0 0.00018422
22830.0 0.00017698
22850.0 0.00017018
22870.0 0.0001635
22890.0 0.00015685
22910.0 0.00015073
22930.0 0.00014514
22950.0 0.00013984
22970.0 0.00013498
22990.0 0.00013101
23010.0 0.00012756
23030.0 0.00012469
23050.0 0.00012258
23070.0 0.00012118
23090.0 0.00012043
23110.0 0.00012043
23130.0 0.00012111
23150.0 0.00012244
23170.0 0.00012448
23190.0 0.00012704
23210.0 0.00013003
23230.0 0.0001336
