#lamb flux
1010.0 4.3562e-05
1030.0 4.5403e-05
1050.0 4.7539e-05
1070.0 4.995e-05
1090.0 5.2691e-05
1110.0 5.5517e-05
1130.0 5.8376e-05
1150.0 6.1386e-05
1170.0 6.4509e-05
1190.0 6.7497e-05
1210.0 7.0547e-05
1230.0 7.372e-05
1250.0 7.6859e-05
1270.0 7.994e-05
1290.0 8.3216e-05
1310.0 8.6523e-05
1330.0 8.9737e-05
1350.0 9.3019e-05
1370.0 9.6438e-05
1390.0 9.9817e-05
1410.0 0.00010314
1430.0 0.00010665
1450.0 0.00011019
1470.0 0.00011367
1490.0 0.00011723
1510.0 0.000121
1530.0 0.00012463
1550.0 0.00012825
1570.0 0.000132
1590.0 0.00013579
1610.0 0.00013945
1630.0 0.00014322
1650.0 0.00014708
1670.0 0.00015083
1690.0 0.00015453
1710.0 0.00015834
1730.0 0.00016214
1750.0 0.0001657
1770.0 0.0001693
1790.0 0.00017292
1810.0 0.00017637
1830.0 0.00017969
1850.0 0.00018312
1870.0 0.00018638
1890.0 0.00018943
1910.0 0.00019244
1930.0 0.00019543
1950.0 0.00019816
1970.0 0.00020074
1990.0 0.00020335
2010.0 0.0002058
2030.0 0.00020804
2050.0 0.0002103
2070.0 0.00021256
2090.0 0.00021457
2110.0 0.00021654
2130.0 0.00021856
2150.0 0.00022052
2170.0 0.00022237
2190.0 0.00022436
2210.0 0.00022642
2230.0 0.00022845
2250.0 0.00023058
2270.0 0.00023298
2290.0 0.00023544
2310.0 0.00023797
2330.0 0.00024081
2350.0 0.00024392
2370.0 0.00024718
2390.0 0.00025077
2410.0 0.00025482
2430.0 0.00025913
2450.0 0.00026372
2470.0 0.00026875
2490.0 0.00027415
2510.0 0.00027983
2530.0 0.00028633
2550.0 0.00029457
2570.0 0.00030579
2590.0 0.00032169
2610.0 0.00034619
2630.0 0.00038146
2650.0 0.00042718
2670.0 0.00048491
2690.0 0.00055438
2710.0 0.00062873
2730.0 0.00070419
2750.0 0.00078209
2770.0 0.00085719
2790.0 0.00092762
2810.0 0.00099686
2830.0 0.001068
2850.0 0.0011375
2870.0 0.0012091
2890.0 0.0012854
2910.0 0.0013654
2930.0 0.001447
2950.0 0.0015341
2970.0 0.0016263
2990.0 0.0017203
3010.0 0.0031504
3030.0 0.0033262
3050.0 0.0035028
3070.0 0.0036672
3090.0 0.003813
3110.0 0.0039093
3130.0 0.0039181
3150.0 0.0037973
3170.0 0.0034616
3190.0 0.0028976
3210.0 0.0021102
3230.0 0.0012151
3250.0 0.0021302
3270.0 0.00092078
3290.0 0.0030842
3310.0 0.00061378
3330.0 0.00062618
3350.0 0.00096009
3370.0 0.0013403
3390.0 0.0017436
3410.0 0.0021451
3430.0 0.0025646
3450.0 0.0029826
3470.0 0.0033658
3490.0 0.0036169
3510.0 0.0045024
3530.0 0.0061667
3550.0 0.0061819
3570.0 0.0052493
3590.0 0.0075224
3610.0 0.004849
3630.0 0.0078174
3650.0 0.0088738
3670.0 0.011407
3690.0 0.010908
3710.0 0.0077839
3730.0 0.010398
3750.0 0.010812
3770.0 0.011139
3790.0 0.010077
3810.0 0.0088564
3830.0 0.012245
3850.0 0.013173
3870.0 0.01636
3890.0 0.01544
3910.0 0.014018
3930.0 0.015174
3950.0 0.017078
3970.0 0.022272
3990.0 0.017935
4010.0 0.011851
4030.0 0.015961
4050.0 0.017458
4070.0 0.019838
4090.0 0.01741
4110.0 0.011906
4130.0 0.015696
4150.0 0.014428
4170.0 0.01529
4190.0 0.015215
4210.0 0.018896
4230.0 0.013217
4250.0 0.015792
4270.0 0.015775
4290.0 0.015949
4310.0 0.019427
4330.0 0.019923
4350.0 0.01545
4370.0 0.013379
4390.0 0.016232
4410.0 0.016535
4430.0 0.012778
4450.0 0.012856
4470.0 0.014898
4490.0 0.011118
4510.0 0.013533
4530.0 0.014614
4550.0 0.019539
4570.0 0.028611
4590.0 0.027786
4610.0 0.018592
4630.0 0.029558
4650.0 0.042296
4670.0 0.039126
4690.0 0.023249
4710.0 0.02512
4730.0 0.032455
4750.0 0.02901
4770.0 0.021971
4790.0 0.015192
4810.0 0.021928
4830.0 0.025293
4850.0 0.022607
4870.0 0.0081975
4890.0 0.024268
4910.0 0.033647
4930.0 0.036082
4950.0 0.03559
4970.0 0.022471
4990.0 0.02578
5010.0 0.029957
5030.0 0.032547
5050.0 0.032079
5070.0 0.023208
5090.0 0.01905
5110.0 0.017818
5130.0 0.015893
5150.0 0.018165
5170.0 0.015836
5190.0 0.019611
5210.0 0.019552
5230.0 0.021313
5250.0 0.026924
5270.0 0.022785
5290.0 0.02229
5310.0 0.032399
5330.0 0.037373
5350.0 0.0315
5370.0 0.027412
5390.0 0.030906
5410.0 0.038462
5430.0 0.042156
5450.0 0.04501
5470.0 0.045179
5490.0 0.044131
5510.0 0.051276
5530.0 0.052922
5550.0 0.056339
5570.0 0.059426
5590.0 0.058634
5610.0 0.055325
5630.0 0.053161
5650.0 0.053896
5670.0 0.053082
5690.0 0.045189
5710.0 0.043116
5730.0 0.04335
5750.0 0.046973
5770.0 0.040613
5790.0 0.037048
5810.0 0.037364
5830.0 0.039016
5850.0 0.035513
5870.0 0.035515
5890.0 0.04188
5910.0 0.039732
5930.0 0.032507
5950.0 0.028115
5970.0 0.029842
5990.0 0.027361
6010.0 0.025718
6030.0 0.026326
6050.0 0.024697
6070.0 0.018693
6090.0 0.016814
6110.0 0.021634
6130.0 0.024923
6150.0 0.026229
6170.0 0.025588
6190.0 0.024103
6210.0 0.023618
6230.0 0.027293
6250.0 0.025228
6270.0 0.023072
6290.0 0.0212
6310.0 0.020053
6330.0 0.019082
6350.0 0.016726
6370.0 0.016619
6390.0 0.019695
6410.0 0.024461
6430.0 0.028089
6450.0 0.026489
6470.0 0.025992
6490.0 0.032362
6510.0 0.037024
6530.0 0.035076
6550.0 0.033763
6570.0 0.034283
6590.0 0.033215
6610.0 0.03608
6630.0 0.033974
6650.0 0.03011
6670.0 0.02714
6690.0 0.026281
6710.0 0.032093
6730.0 0.029514
6750.0 0.02541
6770.0 0.022917
6790.0 0.024017
6810.0 0.026562
6830.0 0.025927
6850.0 0.0236
6870.0 0.024373
6890.0 0.023931
6910.0 0.022593
6930.0 0.025882
6950.0 0.024015
6970.0 0.022525
6990.0 0.0225
7010.0 0.021537
7030.0 0.020283
7050.0 0.019565
7070.0 0.021136
7090.0 0.020028
7110.0 0.01738
7130.0 0.014076
7150.0 0.012777
7170.0 0.016919
7190.0 0.018437
7210.0 0.017835
7230.0 0.018561
7250.0 0.017302
7270.0 0.016482
7290.0 0.018216
7310.0 0.020293
7330.0 0.019916
7350.0 0.018698
7370.0 0.017877
7390.0 0.018729
7410.0 0.021829
7430.0 0.023873
7450.0 0.025422
7470.0 0.024997
7490.0 0.025669
7510.0 0.024681
7530.0 0.024782
7550.0 0.024544
7570.0 0.021707
7590.0 0.021574
7610.0 0.021038
7630.0 0.019671
7650.0 0.021665
7670.0 0.023734
7690.0 0.02586
7710.0 0.028925
7730.0 0.030926
7750.0 0.032431
7770.0 0.032547
7790.0 0.03563
7810.0 0.0369
7830.0 0.034257
7850.0 0.034615
7870.0 0.03308
7890.0 0.034646
7910.0 0.032959
7930.0 0.033305
7950.0 0.029676
7970.0 0.030534
7990.0 0.029381
8010.0 0.029466
8030.0 0.029441
8050.0 0.030955
8070.0 0.029958
8090.0 0.030131
8110.0 0.029464
8130.0 0.029541
8150.0 0.028375
8170.0 0.027679
8190.0 0.027422
8210.0 0.027712
8230.0 0.02476
8250.0 0.022746
8270.0 0.020017
8290.0 0.016688
8310.0 0.014279
8330.0 0.011423
8350.0 0.0096463
8370.0 0.0099807
8390.0 0.010258
8410.0 0.010922
8430.0 0.013339
8450.0 0.014306
8470.0 0.015155
8490.0 0.017401
8510.0 0.019026
8530.0 0.021981
8550.0 0.026055
8570.0 0.029125
8590.0 0.031342
8610.0 0.034288
8630.0 0.037764
8650.0 0.038476
8670.0 0.038976
8690.0 0.04058
8710.0 0.040273
8730.0 0.039989
8750.0 0.037963
8770.0 0.038083
8790.0 0.037653
8810.0 0.034848
8830.0 0.034868
8850.0 0.032825
8870.0 0.031617
8890.0 0.029038
8910.0 0.031135
8930.0 0.028594
8950.0 0.028161
8970.0 0.028283
8990.0 0.02742
9010.0 0.027891
9030.0 0.02678
9050.0 0.026633
9070.0 0.026599
9090.0 0.026561
9110.0 0.026532
9130.0 0.026485
9150.0 0.026429
9170.0 0.026311
9190.0 0.026094
9210.0 0.02639
9230.0 0.026249
9250.0 0.026148
9270.0 0.026052
9290.0 0.02596
9310.0 0.02587
9330.0 0.025781
9350.0 0.025689
9370.0 0.025597
9390.0 0.025502
9410.0 0.025404
9430.0 0.025304
9450.0 0.0252
9470.0 0.025095
9490.0 0.024991
9510.0 0.024884
9530.0 0.024775
9550.0 0.024665
9570.0 0.024552
9590.0 0.02444
9610.0 0.024325
9630.0 0.02421
9650.0 0.024094
9670.0 0.023978
9690.0 0.023861
9710.0 0.023744
9730.0 0.023627
9750.0 0.023509
9770.0 0.023392
9790.0 0.023274
9810.0 0.023157
9830.0 0.023041
9850.0 0.022924
9870.0 0.022808
9890.0 0.022693
9910.0 0.022579
9930.0 0.022464
9950.0 0.022283
9970.0 0.022192
9990.0 0.022097
10010.0 0.022001
10030.0 0.021901
10050.0 0.021793
10070.0 0.021665
10090.0 0.021572
10110.0 0.021475
10130.0 0.021379
10150.0 0.021283
10170.0 0.021186
10190.0 0.021086
10210.0 0.020992
10230.0 0.020899
10250.0 0.020805
10270.0 0.020713
10290.0 0.020626
10310.0 0.020537
10330.0 0.020448
10350.0 0.020365
10370.0 0.020283
10390.0 0.0202
10410.0 0.02012
10430.0 0.020044
10450.0 0.019968
10470.0 0.019892
10490.0 0.01982
10510.0 0.019751
10530.0 0.019679
10550.0 0.01961
10570.0 0.019547
10590.0 0.019482
10610.0 0.019418
10630.0 0.019359
10650.0 0.019301
10670.0 0.019241
10690.0 0.019185
10710.0 0.019132
10730.0 0.019079
10750.0 0.019025
10770.0 0.018977
10790.0 0.01893
10810.0 0.018881
10830.0 0.018836
10850.0 0.018792
10870.0 0.018743
10890.0 0.01869
10910.0 0.018632
10930.0 0.018558
10950.0 0.018456
10970.0 0.018324
10990.0 0.018158
11010.0 0.017831
11030.0 0.01758
11050.0 0.017289
11070.0 0.016957
11090.0 0.016572
11110.0 0.016189
11130.0 0.015804
11150.0 0.015406
11170.0 0.015013
11190.0 0.014648
11210.0 0.014286
11230.0 0.01393
11250.0 0.013603
11270.0 0.013299
11290.0 0.013002
11310.0 0.012726
11330.0 0.012486
11350.0 0.012258
11370.0 0.012042
11390.0 0.01185
11410.0 0.011673
11430.0 0.011496
11450.0 0.01133
11470.0 0.011174
11490.0 0.011015
11510.0 0.010848
11530.0 0.010685
11550.0 0.010517
11570.0 0.010332
11590.0 0.01014
11610.0 0.0099468
11630.0 0.0097354
11650.0 0.0095085
11670.0 0.0092863
11690.0 0.0090592
11710.0 0.0088198
11730.0 0.0085829
11750.0 0.0083589
11770.0 0.0081292
11790.0 0.0079029
11810.0 0.0076939
11830.0 0.007495
11850.0 0.0072954
11870.0 0.0071149
11890.0 0.0069527
11910.0 0.0067955
11930.0 0.006647
11950.0 0.0065152
11970.0 0.0063902
11990.0 0.0062664
12010.0 0.0061535
12030.0 0.0060494
12050.0 0.0059461
12070.0 0.0058447
12090.0 0.0057559
12110.0 0.0056699
12130.0 0.0055858
12150.0 0.0055106
12170.0 0.0054454
12190.0 0.0053832
12210.0 0.0053327
12230.0 0.0052974
12250.0 0.005275
12270.0 0.0052675
12290.0 0.0052789
12310.0 0.0053086
12330.0 0.0053576
12350.0 0.0054267
12370.0 0.0055128
12390.0 0.0056166
12410.0 0.0057411
12430.0 0.0058739
12450.0 0.0060149
12470.0 0.0061662
12490.0 0.0063208
12510.0 0.0064702
12530.0 0.0066201
12550.0 0.006767
12570.0 0.0069026
12590.0 0.007028
12610.0 0.0071461
12630.0 0.0072519
12650.0 0.0073426
12670.0 0.0074233
12690.0 0.0074927
12710.0 0.0075498
12730.0 0.0075964
12750.0 0.0076326
12770.0 0.0076585
12790.0 0.0076755
12810.0 0.0076831
12830.0 0.0076805
12850.0 0.0076713
12870.0 0.0076545
12890.0 0.0076272
12910.0 0.0075926
12930.0 0.0075526
12950.0 0.0075018
12970.0 0.0074409
12990.0 0.0073769
13010.0 0.0073054
13030.0 0.0072232
13050.0 0.007136
13070.0 0.0070476
13090.0 0.0069495
13110.0 0.0068463
13130.0 0.0067454
13150.0 0.006644
13170.0 0.0065378
13190.0 0.0064401
13210.0 0.0063522
13230.0 0.006269
13250.0 0.0061958
13270.0 0.0061382
13290.0 0.0060921
13310.0 0.0060577
13330.0 0.0060388
13350.0 0.0060326
13370.0 0.0060365
13390.0 0.0060491
13410.0 0.0060671
13430.0 0.0060872
13450.0 0.0061061
13470.0 0.0061205
13490.0 0.006128
13510.0 0.0061252
13530.0 0.0061106
13550.0 0.006085
13570.0 0.006047
13590.0 0.0059956
13610.0 0.0059359
13630.0 0.0058702
13650.0 0.0057951
13670.0 0.0057165
13690.0 0.0056391
13710.0 0.0055605
13730.0 0.0054797
13750.0 0.0054069
13770.0 0.0053383
13790.0 0.0052714
13810.0 0.0052091
13830.0 0.0051531
13850.0 0.0050984
13870.0 0.0050455
13890.0 0.0049964
13910.0 0.0049493
13930.0 0.0049013
13950.0 0.0048545
13970.0 0.0048108
13990.0 0.0047666
14010.0 0.0047228
14030.0 0.0046818
14050.0 0.0046429
14070.0 0.0046046
14090.0 0.0045702
14110.0 0.0045397
14130.0 0.0045121
14150.0 0.0044881
14170.0 0.0044688
14190.0 0.0044533
14210.0 0.0044416
14230.0 0.0044341
14250.0 0.0044304
14270.0 0.0044308
14290.0 0.0044355
14310.0 0.0044432
14330.0 0.0044542
14350.0 0.0044689
14370.0 0.0044857
14390.0 0.0045032
14410.0 0.0045231
14430.0 0.0045436
14450.0 0.0045626
14470.0 0.0045807
14490.0 0.0045987
14510.0 0.0046135
14530.0 0.0046255
14550.0 0.0046364
14570.0 0.0046458
14590.0 0.0046533
14610.0 0.0046609
14630.0 0.0046703
14650.0 0.0046808
14670.0 0.0046937
14690.0 0.0047117
14710.0 0.0047358
14730.0 0.0047633
14750.0 0.0047983
14770.0 0.0048421
14790.0 0.0048917
14810.0 0.0049465
14830.0 0.0050134
14850.0 0.0050855
14870.0 0.0051588
14890.0 0.0052365
14910.0 0.0053172
14930.0 0.0053912
14950.0 0.0054565
14970.0 0.0055151
14990.0 0.0055587
15010.0 0.0055851
15030.0 0.0055973
15050.0 0.005596
15070.0 0.0055817
15090.0 0.0055594
15110.0 0.0055315
15130.0 0.0055
15150.0 0.005467
15170.0 0.0054327
15190.0 0.0053978
15210.0 0.005363
15230.0 0.0053281
15250.0 0.0052929
15270.0 0.0052579
15290.0 0.0052232
15310.0 0.0051883
15330.0 0.0051533
15350.0 0.0051187
15370.0 0.0050842
15390.0 0.0050492
15410.0 0.0050146
15430.0 0.0049803
15450.0 0.0049459
15470.0 0.0049114
15490.0 0.0048774
15510.0 0.0048435
15530.0 0.0048094
15550.0 0.0047756
15570.0 0.0047421
15590.0 0.0047085
15610.0 0.0046749
15630.0 0.0046418
15650.0 0.0046088
15670.0 0.0045757
15690.0 0.0045429
15710.0 0.0045105
15730.0 0.004478
15750.0 0.0044456
15770.0 0.0044137
15790.0 0.0043819
15810.0 0.0043499
15830.0 0.0043184
15850.0 0.0042873
15870.0 0.0042561
15890.0 0.0042251
15910.0 0.0041946
15930.0 0.0041642
15950.0 0.0041336
15970.0 0.0041036
15990.0 0.0040739
16010.0 0.0040441
16030.0 0.0040145
16050.0 0.0039856
16070.0 0.0039566
16090.0 0.0039277
16110.0 0.0038993
16130.0 0.0038712
16150.0 0.0038429
16170.0 0.0038149
16190.0 0.0037875
16210.0 0.0037601
16230.0 0.0037328
16250.0 0.0037059
16270.0 0.0036794
16290.0 0.0036529
16310.0 0.0036266
16330.0 0.0036008
16350.0 0.003575
16370.0 0.0035492
16390.0 0.0035241
16410.0 0.0034992
16430.0 0.0034742
16450.0 0.0034496
16470.0 0.0034255
16490.0 0.0034014
16510.0 0.0033773
16530.0 0.0033538
16550.0 0.0033305
16570.0 0.0033071
16590.0 0.0032841
16610.0 0.0032616
16630.0 0.0032391
16650.0 0.0032167
16670.0 0.0031948
16690.0 0.0031731
16710.0 0.0031513
16730.0 0.0031299
16750.0 0.0031089
16770.0 0.003088
16790.0 0.0030671
16810.0 0.0030468
16830.0 0.0030266
16850.0 0.0030064
16870.0 0.0029866
16890.0 0.0029672
16910.0 0.0029477
16930.0 0.0029283
16950.0 0.0029094
16970.0 0.0028907
16990.0 0.002872
17010.0 0.0028537
17030.0 0.0028357
17050.0 0.0028176
17070.0 0.0027998
17090.0 0.0027823
17110.0 0.002765
17130.0 0.0027476
17150.0 0.0027307
17170.0 0.002714
17190.0 0.0026973
17210.0 0.0026809
17230.0 0.0026648
17250.0 0.0026488
17270.0 0.0026327
17290.0 0.0026171
17310.0 0.0026017
17330.0 0.0025863
17350.0 0.002571
17370.0 0.0025562
17390.0 0.0025414
17410.0 0.0025267
17430.0 0.0025123
17450.0 0.0024981
17470.0 0.0024838
17490.0 0.0024698
17510.0 0.0024561
17530.0 0.0024424
17550.0 0.0024288
17570.0 0.0024156
17590.0 0.0024025
17610.0 0.0023894
17630.0 0.0023765
17650.0 0.0023639
17670.0 0.0023513
17690.0 0.0023386
17710.0 0.0023264
17730.0 0.0023144
17750.0 0.0023023
17770.0 0.0022904
17790.0 0.0022789
17810.0 0.0022672
17830.0 0.0022556
17850.0 0.0022444
17870.0 0.0022333
17890.0 0.0022221
17910.0 0.0022111
17930.0 0.0022004
17950.0 0.0021897
17970.0 0.0021791
17990.0 0.0021688
18010.0 0.0021586
18030.0 0.0021482
18050.0 0.0021381
18070.0 0.0021282
18090.0 0.0021183
18110.0 0.0021085
18130.0 0.002099
18150.0 0.0020896
18170.0 0.0020801
18190.0 0.0020708
18210.0 0.0020617
18230.0 0.0020526
18250.0 0.0020434
18270.0 0.0020347
18290.0 0.002026
18310.0 0.0020172
18330.0 0.0020086
18350.0 0.0020003
18370.0 0.0019918
18390.0 0.0019835
18410.0 0.0019754
18430.0 0.0019673
18450.0 0.0019591
18470.0 0.0019512
18490.0 0.0019435
18510.0 0.0019357
18530.0 0.001928
18550.0 0.0019205
18570.0 0.001913
18590.0 0.0019055
18610.0 0.0018982
18630.0 0.001891
18650.0 0.0018837
18670.0 0.0018765
18690.0 0.0018697
18710.0 0.0018627
18730.0 0.0018558
18750.0 0.001849
18770.0 0.0018424
18790.0 0.0018356
18810.0 0.0018289
18830.0 0.0018226
18850.0 0.0018161
18870.0 0.0018096
18890.0 0.0018034
18910.0 0.0017972
18930.0 0.0017909
18950.0 0.0017848
18970.0 0.0017788
18990.0 0.0017728
19010.0 0.0017666
19030.0 0.0017609
19050.0 0.0017551
19070.0 0.0017493
19090.0 0.0017435
19110.0 0.0017381
19130.0 0.0017324
19150.0 0.0017267
19170.0 0.0017213
19190.0 0.0017159
19210.0 0.0017104
19230.0 0.001705
19250.0 0.0016998
19270.0 0.0016946
19290.0 0.0016893
19310.0 0.0016842
19330.0 0.0016792
19350.0 0.0016739
19370.0 0.0016689
19390.0 0.0016641
19410.0 0.0016591
19430.0 0.0016541
19450.0 0.0016494
19470.0 0.0016446
19490.0 0.0016397
19510.0 0.001635
19530.0 0.0016305
19550.0 0.0016257
19570.0 0.001621
19590.0 0.0016165
19610.0 0.001612
19630.0 0.0016074
19650.0 0.0016029
19670.0 0.0015986
19690.0 0.0015941
19710.0 0.0015897
19730.0 0.0015854
19750.0 0.0015811
19770.0 0.0015767
19790.0 0.0015725
19810.0 0.0015683
19830.0 0.001564
19850.0 0.0015597
19870.0 0.0015555
19890.0 0.0015508
19910.0 0.0015455
19930.0 0.0015396
19950.0 0.0015325
19970.0 0.0015232
19990.0 0.0015115
20010.0 0.0014978
20030.0 0.0014809
20050.0 0.0014609
20070.0 0.0014392
20090.0 0.0014158
20110.0 0.0013894
20130.0 0.001363
20150.0 0.001337
20170.0 0.0013102
20190.0 0.0012833
20210.0 0.001258
20230.0 0.0012335
20250.0 0.0012091
20270.0 0.0011865
20290.0 0.0011661
20310.0 0.0011468
20330.0 0.0011289
20350.0 0.0011145
20370.0 0.001102
20390.0 0.0010916
20410.0 0.001084
20430.0 0.001079
20450.0 0.0010762
20470.0 0.0010762
20490.0 0.0010786
20510.0 0.0010832
20530.0 0.0010903
20550.0 0.0010992
20570.0 0.0011095
20590.0 0.0011217
20610.0 0.0011352
20630.0 0.0011492
20650.0 0.0011639
20670.0 0.0011797
20690.0 0.0011948
20710.0 0.0012094
20730.0 0.0012238
20750.0 0.0012374
20770.0 0.0012493
20790.0 0.0012603
20810.0 0.0012701
20830.0 0.0012781
20850.0 0.0012845
20870.0 0.0012896
20890.0 0.001293
20910.0 0.0012949
20930.0 0.0012955
20950.0 0.0012947
20970.0 0.0012928
20990.0 0.0012899
21010.0 0.0012858
21030.0 0.0012809
21050.0 0.0012754
21070.0 0.0012692
21090.0 0.0012621
21110.0 0.0012549
21130.0 0.0012475
21150.0 0.0012395
21170.0 0.0012315
21190.0 0.0012239
21210.0 0.001216
21230.0 0.0012083
21250.0 0.0012014
21270.0 0.001195
21290.0 0.001189
21310.0 0.0011839
21330.0 0.00118
21350.0 0.0011767
21370.0 0.0011745
21390.0 0.0011735
21410.0 0.0011734
21430.0 0.0011746
21450.0 0.0011768
21470.0 0.00118
21490.0 0.0011842
21510.0 0.0011895
21530.0 0.0011953
21550.0 0.001202
21570.0 0.0012097
21590.0 0.0012178
21610.0 0.0012262
21630.0 0.0012354
21650.0 0.0012453
21670.0 0.0012549
21690.0 0.001265
21710.0 0.0012757
21730.0 0.0012864
21750.0 0.0012971
21770.0 0.0013086
21790.0 0.0013203
21810.0 0.0013319
21830.0 0.0013437
21850.0 0.0013562
21870.0 0.0013686
21890.0 0.0013807
21910.0 0.0013934
21930.0 0.0014063
21950.0 0.0014187
21970.0 0.0014312
21990.0 0.0014441
22010.0 0.0014562
22030.0 0.0014677
22050.0 0.0014791
22070.0 0.0014898
22090.0 0.0014993
22110.0 0.0015081
22130.0 0.0015159
22150.0 0.0015223
22170.0 0.0015272
22190.0 0.0015308
22210.0 0.0015326
22230.0 0.0015327
22250.0 0.001531
22270.0 0.0015274
22290.0 0.001522
22310.0 0.0015149
22330.0 0.0015055
22350.0 0.0014944
22370.0 0.0014819
22390.0 0.0014676
22410.0 0.0014511
22430.0 0.0014342
22450.0 0.0014161
22470.0 0.0013964
22490.0 0.001376
22510.0 0.0013557
22530.0 0.0013341
22550.0 0.0013117
22570.0 0.0012903
22590.0 0.001269
22610.0 0.0012472
22630.0 0.0012262
22650.0 0.0012065
22670.0 0.0011868
22690.0 0.0011676
22710.0 0.00115
22730.0 0.0011332
22750.0 0.0011165
22770.0 0.0011013
22790.0 0.0010876
22810.0 0.0010743
22830.0 0.0010618
22850.0 0.0010508
22870.0 0.0010404
22890.0 0.0010305
22910.0 0.0010217
22930.0 0.0010139
22950.0 0.0010065
22970.0 0.00099972
22990.0 0.00099413
23010.0 0.0009891
23030.0 0.00098465
23050.0 0.000981
23070.0 0.0009781
23090.0 0.00097567
23110.0 0.00097394
23130.0 0.00097285
23150.0 0.00097229
23170.0 0.00097221
23190.0 0.0009726
23210.0 0.00097336
23230.0 0.00097447
23250.0 0.00097588
23270.0 0.00097749
23290.0 0.00097933
23310.0 0.00098144
23330.0 0.00098363
23350.0 0.00098591
23370.0 0.00098839
23390.0 0.00099094
23410.0 0.00099344
23430.0 0.00099602
23450.0 0.00099864
23470.0 0.0010011
23490.0 0.0010034
23510.0 0.0010057
23530.0 0.0010077
23550.0 0.0010095
23570.0 0.001011
23590.0 0.0010123
23610.0 0.0010133
23630.0 0.0010141
23650.0 0.0010148
23670.0 0.0010153
23690.0 0.001016
23710.0 0.0010168
23730.0 0.001018
23750.0 0.0010196
23770.0 0.0010219
23790.0 0.0010252
23810.0 0.0010295
23830.0 0.0010349
23850.0 0.0010419
23870.0 0.0010506
23890.0 0.0010605
23910.0 0.0010719
23930.0 0.0010852
23950.0 0.0010997
23970.0 0.0011146
23990.0 0.0011309
24010.0 0.0011478
24030.0 0.0011644
24050.0 0.0011809
24070.0 0.0011978
24090.0 0.0012132
24110.0 0.0012273
24130.0 0.0012406
24150.0 0.0012526
