#lamb flux
1010.0 8.1984e-06
1030.0 1.0448e-05
1050.0 1.3137e-05
1070.0 1.6297e-05
1090.0 2.0044e-05
1110.0 2.4121e-05
1130.0 2.8455e-05
1150.0 3.2907e-05
1170.0 3.7651e-05
1190.0 4.2347e-05
1210.0 4.7359e-05
1230.0 5.2635e-05
1250.0 5.7905e-05
1270.0 6.3068e-05
1290.0 6.8422e-05
1310.0 7.3656e-05
1330.0 7.8509e-05
1350.0 8.3149e-05
1370.0 8.7613e-05
1390.0 9.1593e-05
1410.0 9.5047e-05
1430.0 9.829e-05
1450.0 0.00010113
1470.0 0.00010345
1490.0 0.00010549
1510.0 0.00010773
1530.0 0.00010965
1550.0 0.00011111
1570.0 0.00011125
1590.0 0.0001113
1610.0 0.00011118
1630.0 0.0001112
1650.0 0.00011139
1670.0 0.0001116
1690.0 0.00011192
1710.0 0.00011252
1730.0 0.00011333
1750.0 0.00011413
1770.0 0.00011521
1790.0 0.00011653
1810.0 0.00011793
1830.0 0.00011946
1850.0 0.00012137
1870.0 0.00012341
1890.0 0.00012549
1910.0 0.00012775
1930.0 0.00013019
1950.0 0.00013255
1970.0 0.00013498
1990.0 0.00013767
2010.0 0.00014047
2030.0 0.00014331
2050.0 0.00014638
2070.0 0.00014953
2090.0 0.00015259
2110.0 0.00015573
2130.0 0.00015903
2150.0 0.00016236
2170.0 0.00016565
2190.0 0.00016911
2210.0 0.00017269
2230.0 0.00017627
2250.0 0.0001799
2270.0 0.0001837
2290.0 0.00018746
2310.0 0.00019114
2330.0 0.00019493
2350.0 0.00019876
2370.0 0.00020248
2390.0 0.0002062
2410.0 0.00021005
2430.0 0.0002138
2450.0 0.00021753
2470.0 0.00022151
2490.0 0.00022594
2510.0 0.00023084
2530.0 0.00023696
2550.0 0.0002452
2570.0 0.00025613
2590.0 0.00027052
2610.0 0.00029111
2630.0 0.00031852
2650.0 0.00035211
2670.0 0.00039369
2690.0 0.00044417
2710.0 0.00049938
2730.0 0.00055711
2750.0 0.00061918
2770.0 0.00067986
2790.0 0.00073479
2810.0 0.0007847
2830.0 0.00082954
2850.0 0.00086432
2870.0 0.00089249
2890.0 0.00091648
2910.0 0.00093657
2930.0 0.00095334
2950.0 0.00096942
2970.0 0.00098511
2990.0 0.00099975
3010.0 0.001014
3030.0 0.0010289
3050.0 0.0010438
3070.0 0.0010575
3090.0 0.0010716
3110.0 0.0010865
3130.0 0.0011023
3150.0 0.0011178
3170.0 0.0011435
3190.0 0.001182
3210.0 0.0012378
3230.0 0.0013194
3250.0 0.0014341
3270.0 0.0015497
3290.0 0.0017226
3310.0 0.0020554
3330.0 0.0021381
3350.0 0.0021583
3370.0 0.0021759
3390.0 0.0021935
3410.0 0.0022096
3430.0 0.0022246
3450.0 0.0022393
3470.0 0.0022541
3490.0 0.0022654
3510.0 0.0022625
3530.0 0.0021866
3550.0 0.0020916
3570.0 0.0021329
3590.0 0.0022892
3610.0 0.0024895
3630.0 0.0026128
3650.0 0.0025138
3670.0 0.0022759
3690.0 0.0021124
3710.0 0.002107
3730.0 0.0021776
3750.0 0.0022234
3770.0 0.0023078
3790.0 0.002405
3810.0 0.0024113
3830.0 0.0022649
3850.0 0.0021215
3870.0 0.0020655
3890.0 0.0020917
3910.0 0.0020938
3930.0 0.0021074
3950.0 0.0022149
3970.0 0.0023398
3990.0 0.0024053
4010.0 0.0023836
4030.0 0.0023081
4050.0 0.0022741
4070.0 0.0022538
4090.0 0.0022552
4110.0 0.0022413
4130.0 0.00217
4150.0 0.0020877
4170.0 0.0020593
4190.0 0.001984
4210.0 0.0018449
4230.0 0.0016958
4250.0 0.0015429
4270.0 0.0014272
4290.0 0.0013567
4310.0 0.0013311
4330.0 0.0013627
4350.0 0.0014194
4370.0 0.0014667
4390.0 0.001565
4410.0 0.0016434
4430.0 0.0016284
4450.0 0.0015016
4470.0 0.001383
4490.0 0.0013298
4510.0 0.0012967
4530.0 0.0012856
4550.0 0.0012748
4570.0 0.0012799
4590.0 0.0013072
4610.0 0.0013457
4630.0 0.0013694
4650.0 0.0013778
4670.0 0.0013451
4690.0 0.001259
4710.0 0.0011738
4730.0 0.0011123
4750.0 0.0010718
4770.0 0.0010568
4790.0 0.001044
4810.0 0.0010104
4830.0 0.00098027
4850.0 0.0010113
4870.0 0.0009827
4890.0 0.00096749
4910.0 0.00094184
4930.0 0.00087607
4950.0 0.0007736
4970.0 0.00071242
4990.0 0.00066057
5010.0 0.00062998
5030.0 0.00063388
5050.0 0.00065188
5070.0 0.00066215
5090.0 0.00068875
5110.0 0.00068711
5130.0 0.00067886
5150.0 0.00068102
5170.0 0.00066685
5190.0 0.0006675
5210.0 0.00066744
5230.0 0.00064562
5250.0 0.00064698
5270.0 0.00065675
5290.0 0.00064871
5310.0 0.00062931
5330.0 0.00061129
5350.0 0.00059076
5370.0 0.00058017
5390.0 0.00057095
5410.0 0.00055925
5430.0 0.0005613
5450.0 0.00056048
5470.0 0.00056882
5490.0 0.00059907
5510.0 0.00061619
5530.0 0.00062472
5550.0 0.00063319
5570.0 0.00064111
5590.0 0.00063688
5610.0 0.00063667
5630.0 0.00064378
5650.0 0.00064239
5670.0 0.00063454
5690.0 0.00062485
5710.0 0.00062657
5730.0 0.00064374
5750.0 0.00062603
5770.0 0.00060217
5790.0 0.00056935
5810.0 0.00051271
5830.0 0.00055773
5850.0 0.00061907
5870.0 0.00064052
5890.0 0.00065645
5910.0 0.00068004
5930.0 0.00069113
5950.0 0.00069651
5970.0 0.00070362
5990.0 0.00071138
6010.0 0.00070411
6030.0 0.00069677
6050.0 0.00070077
6070.0 0.00070915
6090.0 0.00071668
6110.0 0.00071
6130.0 0.00069923
6150.0 0.00068668
6170.0 0.00067365
6190.0 0.00065076
6210.0 0.00064184
6230.0 0.00064736
6250.0 0.00064586
6270.0 0.00064426
6290.0 0.00065351
6310.0 0.00066398
6330.0 0.000661
6350.0 0.00064923
6370.0 0.00064778
6390.0 0.00064042
6410.0 0.00063253
6430.0 0.00062144
6450.0 0.00061596
6470.0 0.00061042
6490.0 0.00060768
6510.0 0.000599
6530.0 0.00058922
6550.0 0.00057997
6570.0 0.0005723
6590.0 0.00057597
6610.0 0.00057459
6630.0 0.00055745
6650.0 0.00054091
6670.0 0.00053446
6690.0 0.00052519
6710.0 0.00051102
6730.0 0.00050448
6750.0 0.00050654
6770.0 0.00053132
6790.0 0.00057959
6810.0 0.00055049
6830.0 0.0004864
6850.0 0.00046159
6870.0 0.0004505
6890.0 0.00044579
6910.0 0.00044179
6930.0 0.00043691
6950.0 0.00043171
6970.0 0.00041522
6990.0 0.00040591
7010.0 0.00040582
7030.0 0.000403
7050.0 0.00039119
7070.0 0.00037751
7090.0 0.00037039
7110.0 0.00037151
7130.0 0.00036745
7150.0 0.0003629
7170.0 0.00035805
7190.0 0.00035421
7210.0 0.00035439
7230.0 0.00035421
7250.0 0.00035162
7270.0 0.00034839
7290.0 0.00034819
7310.0 0.00034507
7330.0 0.00033499
7350.0 0.00032088
7370.0 0.00031244
7390.0 0.00030828
7410.0 0.00029915
7430.0 0.00029741
7450.0 0.00029303
7470.0 0.00029382
7490.0 0.00028713
7510.0 0.00027649
7530.0 0.00027582
7550.0 0.00027155
7570.0 0.00026433
7590.0 0.00024995
7610.0 0.00024692
7630.0 0.00025353
7650.0 0.00025599
7670.0 0.00024817
7690.0 0.0002508
7710.0 0.00025627
7730.0 0.00025814
7750.0 0.00026322
7770.0 0.00025736
7790.0 0.00024955
7810.0 0.00025694
7830.0 0.00026535
7850.0 0.00026377
7870.0 0.00026861
7890.0 0.00026475
7910.0 0.00025954
7930.0 0.00025528
7950.0 0.00026068
7970.0 0.00025969
7990.0 0.00024201
8010.0 0.00035911
8030.0 0.0003514
8050.0 0.00034571
8070.0 0.00033514
8090.0 0.0003016
8110.0 0.00029794
8130.0 0.0003313
8150.0 0.00035009
8170.0 0.00035949
8190.0 0.00037419
8210.0 0.00036116
8230.0 0.00036175
8250.0 0.00036033
8270.0 0.00035817
8290.0 0.00035261
8310.0 0.00033549
8330.0 0.00032898
8350.0 0.00033864
8370.0 0.00034253
8390.0 0.0003349
8410.0 0.00033094
8430.0 0.00032016
8450.0 0.00031438
8470.0 0.00033562
8490.0 0.00033771
8510.0 0.00031782
8530.0 0.00031322
8550.0 0.00030945
8570.0 0.00029082
8590.0 0.00029249
8610.0 0.00029561
8630.0 0.0003043
8650.0 0.00030481
8670.0 0.00030516
8690.0 0.00029934
8710.0 0.00029003
8730.0 0.00028172
8750.0 0.00027645
8770.0 0.00027591
8790.0 0.00028389
8810.0 0.0002698
8830.0 0.00026734
8850.0 0.00027891
8870.0 0.0002645
8890.0 0.0002467
8910.0 0.00024228
8930.0 0.00024123
8950.0 0.00022609
8970.0 0.00021684
8990.0 0.00021208
9010.0 0.00020042
9030.0 0.00019751
9050.0 0.0001965
9070.0 0.00019559
9090.0 0.00019467
9110.0 0.00019372
9130.0 0.00019278
9150.0 0.00019184
9170.0 0.00019089
9190.0 0.00018993
9210.0 0.00018896
9230.0 0.00018799
9250.0 0.00018701
9270.0 0.00018602
9290.0 0.00018503
9310.0 0.00018412
9330.0 0.00018332
9350.0 0.00018252
9370.0 0.00018172
9390.0 0.00018091
9410.0 0.00018009
9430.0 0.00017927
9450.0 0.00017845
9470.0 0.00017771
9490.0 0.00017693
9510.0 0.00017604
9530.0 0.00017517
9550.0 0.00017431
9570.0 0.00017346
9590.0 0.00017261
9610.0 0.00017188
9630.0 0.00017116
9650.0 0.00017044
9670.0 0.00016971
9690.0 0.00016898
9710.0 0.00016826
9730.0 0.00016752
9750.0 0.00016679
9770.0 0.00016607
9790.0 0.00016533
9810.0 0.00016459
9830.0 0.00016386
9850.0 0.00016305
9870.0 0.00016216
9890.0 0.00016153
9910.0 0.00016086
9930.0 0.00016007
9950.0 0.00015935
9970.0 0.00015867
9990.0 0.00015798
10010.0 0.00015728
10030.0 0.00015657
10050.0 0.00015585
10070.0 0.00015514
10090.0 0.00015443
10110.0 0.00015372
10130.0 0.00015301
10150.0 0.00015231
10170.0 0.00015161
10190.0 0.00015091
10210.0 0.00015022
10230.0 0.00014954
10250.0 0.00014885
10270.0 0.00014817
10290.0 0.0001475
10310.0 0.00014683
10330.0 0.00014616
10350.0 0.0001455
10370.0 0.00014484
10390.0 0.00014418
10410.0 0.00014342
10430.0 0.00014264
10450.0 0.00014212
10470.0 0.00014154
10490.0 0.00014096
10510.0 0.00014037
10530.0 0.00013975
10550.0 0.00013914
10570.0 0.00013855
10590.0 0.00013795
10610.0 0.00013735
10630.0 0.00013676
10650.0 0.00013619
10670.0 0.0001356
10690.0 0.00013503
10710.0 0.00013447
10730.0 0.0001339
10750.0 0.00013333
10770.0 0.00013279
10790.0 0.00013225
10810.0 0.00013171
10830.0 0.00013117
10850.0 0.00013066
10870.0 0.00013012
10890.0 0.00012959
10910.0 0.00012907
10930.0 0.00012854
10950.0 0.00012798
10970.0 0.00012742
10990.0 0.00012684
11010.0 0.00012286
11030.0 0.00012222
11050.0 0.00012157
11070.0 0.00012088
11090.0 0.00012013
11110.0 0.00011939
11130.0 0.00011863
11150.0 0.00011783
11170.0 0.00011701
11190.0 0.00011621
11210.0 0.00011538
11230.0 0.00011452
11250.0 0.00011368
11270.0 0.00011286
11290.0 0.00011202
11310.0 0.0001112
11330.0 0.00011045
11350.0 0.0001097
11370.0 0.00010898
11390.0 0.00010831
11410.0 0.00010768
11430.0 0.00010705
11450.0 0.00010646
11470.0 0.0001059
11490.0 0.00010535
11510.0 0.0001048
11530.0 0.00010427
11550.0 0.00010374
11570.0 0.00010318
11590.0 0.00010262
11610.0 0.00010206
11630.0 0.00010147
11650.0 0.00010085
11670.0 0.00010023
11690.0 9.9605e-05
11710.0 9.8939e-05
11730.0 9.8266e-05
11750.0 9.7608e-05
11770.0 9.6917e-05
11790.0 9.6213e-05
11810.0 9.5528e-05
11830.0 9.4848e-05
11850.0 9.4139e-05
11870.0 9.3461e-05
11890.0 9.2818e-05
11910.0 9.2175e-05
11930.0 9.1548e-05
11950.0 9.0969e-05
11970.0 9.0413e-05
11990.0 8.9866e-05
12010.0 8.9367e-05
12030.0 8.8911e-05
12050.0 8.8475e-05
12070.0 8.8067e-05
12090.0 8.7713e-05
12110.0 8.7385e-05
12130.0 8.7078e-05
12150.0 8.6802e-05
12170.0 8.6554e-05
12190.0 8.6311e-05
12210.0 8.608e-05
12230.0 8.5862e-05
12250.0 8.5639e-05
12270.0 8.5401e-05
12290.0 8.5152e-05
12310.0 8.489e-05
12330.0 8.4589e-05
12350.0 8.4256e-05
12370.0 8.3898e-05
12390.0 8.3498e-05
12410.0 8.3035e-05
12430.0 8.2554e-05
12450.0 8.204e-05
12470.0 8.1472e-05
12490.0 8.0867e-05
12510.0 8.0257e-05
12530.0 7.9601e-05
12550.0 7.8904e-05
12570.0 7.8207e-05
12590.0 7.7501e-05
12610.0 7.6755e-05
12630.0 7.6e-05
12650.0 7.5282e-05
12670.0 7.4546e-05
12690.0 7.3801e-05
12710.0 7.3091e-05
12730.0 7.2403e-05
12750.0 7.1695e-05
12770.0 7.1027e-05
12790.0 7.0403e-05
12810.0 6.9792e-05
12830.0 6.9197e-05
12850.0 6.8662e-05
12870.0 6.8162e-05
12890.0 6.768e-05
12910.0 6.7244e-05
12930.0 6.6858e-05
12950.0 6.6498e-05
12970.0 6.6175e-05
12990.0 6.591e-05
13010.0 6.5685e-05
13030.0 6.5495e-05
13050.0 6.5348e-05
13070.0 6.5241e-05
13090.0 6.5162e-05
13110.0 6.5109e-05
13130.0 6.5077e-05
13150.0 6.5056e-05
13170.0 6.5039e-05
13190.0 6.5018e-05
13210.0 6.4985e-05
13230.0 6.4932e-05
13250.0 6.4851e-05
13270.0 6.4744e-05
13290.0 6.4602e-05
13310.0 6.4417e-05
13330.0 6.4198e-05
13350.0 6.3946e-05
13370.0 6.3648e-05
13390.0 6.3305e-05
13410.0 6.2948e-05
13430.0 6.2553e-05
13450.0 6.2115e-05
13470.0 6.1657e-05
13490.0 6.1188e-05
13510.0 6.0664e-05
13530.0 6.0123e-05
13550.0 5.9585e-05
13570.0 5.9023e-05
13590.0 5.843e-05
13610.0 5.7844e-05
13630.0 5.7266e-05
13650.0 5.6654e-05
13670.0 5.6041e-05
13690.0 5.5447e-05
13710.0 5.4842e-05
13730.0 5.4209e-05
13750.0 5.3617e-05
13770.0 5.3035e-05
13790.0 5.2442e-05
13810.0 5.1862e-05
13830.0 5.1321e-05
13850.0 5.0774e-05
13870.0 5.0232e-05
13890.0 4.9725e-05
13910.0 4.9239e-05
13930.0 4.8751e-05
13950.0 4.8283e-05
13970.0 4.7857e-05
13990.0 4.7434e-05
14010.0 4.7022e-05
14030.0 4.6641e-05
14050.0 4.628e-05
14070.0 4.5915e-05
14090.0 4.5578e-05
14110.0 4.5268e-05
14130.0 4.4965e-05
14150.0 4.4671e-05
14170.0 4.4407e-05
14190.0 4.4155e-05
14210.0 4.3906e-05
14230.0 4.3672e-05
14250.0 4.3455e-05
14270.0 4.3236e-05
14290.0 4.3021e-05
14310.0 4.2823e-05
14330.0 4.2628e-05
14350.0 4.2431e-05
14370.0 4.2243e-05
14390.0 4.2065e-05
14410.0 4.1882e-05
14430.0 4.1702e-05
14450.0 4.1531e-05
14470.0 4.1362e-05
14490.0 4.1186e-05
14510.0 4.1019e-05
14530.0 4.0858e-05
14550.0 4.0691e-05
14570.0 4.0523e-05
14590.0 4.0362e-05
14610.0 4.0196e-05
14630.0 4.0022e-05
14650.0 3.9852e-05
14670.0 3.9684e-05
14690.0 3.9507e-05
14710.0 3.9324e-05
14730.0 3.9151e-05
14750.0 3.897e-05
14770.0 3.8781e-05
14790.0 3.8593e-05
14810.0 3.8407e-05
14830.0 3.8203e-05
14850.0 3.7999e-05
14870.0 3.78e-05
14890.0 3.7595e-05
14910.0 3.7385e-05
14930.0 3.7186e-05
14950.0 3.6998e-05
14970.0 3.6813e-05
14990.0 3.6646e-05
15010.0 3.6502e-05
15030.0 3.6371e-05
15050.0 3.6252e-05
15070.0 3.6153e-05
15090.0 3.6064e-05
15110.0 3.5978e-05
15130.0 3.5897e-05
15150.0 3.5822e-05
15170.0 3.5745e-05
15190.0 3.5666e-05
15210.0 3.559e-05
15230.0 3.5515e-05
15250.0 3.5436e-05
15270.0 3.5358e-05
15290.0 3.5284e-05
15310.0 3.5206e-05
15330.0 3.5127e-05
15350.0 3.5051e-05
15370.0 3.4975e-05
15390.0 3.4894e-05
15410.0 3.4816e-05
15430.0 3.474e-05
15450.0 3.4661e-05
15470.0 3.458e-05
15490.0 3.4503e-05
15510.0 3.4425e-05
15530.0 3.4344e-05
15550.0 3.4265e-05
15570.0 3.4188e-05
15590.0 3.4106e-05
15610.0 3.4024e-05
15630.0 3.3945e-05
15650.0 3.3866e-05
15670.0 3.3783e-05
15690.0 3.3703e-05
15710.0 3.3624e-05
15730.0 3.3542e-05
15750.0 3.3459e-05
15770.0 3.3379e-05
15790.0 3.3298e-05
15810.0 3.3212e-05
15830.0 3.313e-05
15850.0 3.305e-05
15870.0 3.2967e-05
15890.0 3.2883e-05
15910.0 3.2802e-05
15930.0 3.2719e-05
15950.0 3.2633e-05
15970.0 3.2549e-05
15990.0 3.2467e-05
16010.0 3.2382e-05
16030.0 3.2295e-05
16050.0 3.2213e-05
16070.0 3.2129e-05
16090.0 3.2042e-05
16110.0 3.1958e-05
16130.0 3.1875e-05
16150.0 3.1787e-05
16170.0 3.17e-05
16190.0 3.1616e-05
16210.0 3.153e-05
16230.0 3.1441e-05
16250.0 3.1356e-05
16270.0 3.1272e-05
16290.0 3.1183e-05
16310.0 3.1096e-05
16330.0 3.101e-05
16350.0 3.0923e-05
16370.0 3.0832e-05
16390.0 3.0746e-05
16410.0 3.0659e-05
16430.0 3.057e-05
16450.0 3.0481e-05
16470.0 3.0396e-05
16490.0 3.0307e-05
16510.0 3.0216e-05
16530.0 3.0128e-05
16550.0 3.0041e-05
16570.0 2.9949e-05
16590.0 2.9859e-05
16610.0 2.9773e-05
16630.0 2.9683e-05
16650.0 2.9592e-05
16670.0 2.9504e-05
16690.0 2.9416e-05
16710.0 2.9322e-05
16730.0 2.9232e-05
16750.0 2.9144e-05
16770.0 2.9053e-05
16790.0 2.896e-05
16810.0 2.8872e-05
16830.0 2.8783e-05
16850.0 2.869e-05
16870.0 2.86e-05
16890.0 2.8511e-05
16910.0 2.8419e-05
16930.0 2.8325e-05
16950.0 2.8236e-05
16970.0 2.8145e-05
16990.0 2.8052e-05
17010.0 2.7961e-05
17030.0 2.7872e-05
17050.0 2.7779e-05
17070.0 2.7687e-05
17090.0 2.7597e-05
17110.0 2.7506e-05
17130.0 2.741e-05
17150.0 2.7319e-05
17170.0 2.7229e-05
17190.0 2.7137e-05
17210.0 2.7044e-05
17230.0 2.6954e-05
17250.0 2.6862e-05
17270.0 2.6767e-05
17290.0 2.6676e-05
17310.0 2.6585e-05
17330.0 2.6492e-05
17350.0 2.6397e-05
17370.0 2.6308e-05
17390.0 2.6216e-05
17410.0 2.6122e-05
17430.0 2.6031e-05
17450.0 2.5941e-05
17470.0 2.5845e-05
17490.0 2.5752e-05
17510.0 2.5661e-05
17530.0 2.5569e-05
17550.0 2.5475e-05
17570.0 2.5384e-05
17590.0 2.5293e-05
17610.0 2.5199e-05
17630.0 2.5106e-05
17650.0 2.5016e-05
17670.0 2.4923e-05
17690.0 2.4827e-05
17710.0 2.4736e-05
17730.0 2.4645e-05
17750.0 2.4552e-05
17770.0 2.4459e-05
17790.0 2.4369e-05
17810.0 2.4276e-05
17830.0 2.4182e-05
17850.0 2.4091e-05
17870.0 2.3999e-05
17890.0 2.3905e-05
17910.0 2.3812e-05
17930.0 2.3722e-05
17950.0 2.363e-05
17970.0 2.3536e-05
17990.0 2.3446e-05
18010.0 2.3355e-05
18030.0 2.326e-05
18050.0 2.3168e-05
18070.0 2.3077e-05
18090.0 2.2985e-05
18110.0 2.2891e-05
18130.0 2.2801e-05
18150.0 2.271e-05
18170.0 2.2617e-05
18190.0 2.2525e-05
18210.0 2.2436e-05
18230.0 2.2342e-05
18250.0 2.2248e-05
18270.0 2.2159e-05
18290.0 2.2068e-05
18310.0 2.1974e-05
18330.0 2.1883e-05
18350.0 2.1795e-05
18370.0 2.1701e-05
18390.0 2.1609e-05
18410.0 2.1519e-05
18430.0 2.1429e-05
18450.0 2.1334e-05
18470.0 2.1244e-05
18490.0 2.1155e-05
18510.0 2.1063e-05
18530.0 2.0971e-05
18550.0 2.0882e-05
18570.0 2.0791e-05
18590.0 2.0698e-05
18610.0 2.0608e-05
18630.0 2.0519e-05
18650.0 2.0426e-05
18670.0 2.0334e-05
18690.0 2.0246e-05
18710.0 2.0156e-05
18730.0 2.0064e-05
18750.0 1.9975e-05
18770.0 1.9886e-05
18790.0 1.9793e-05
18810.0 1.9702e-05
18830.0 1.9614e-05
18850.0 1.9523e-05
18870.0 1.9431e-05
18890.0 1.9343e-05
18910.0 1.9255e-05
18930.0 1.9163e-05
18950.0 1.9073e-05
18970.0 1.8985e-05
18990.0 1.8895e-05
19010.0 1.8802e-05
19030.0 1.8714e-05
19050.0 1.8626e-05
19070.0 1.8535e-05
19090.0 1.8445e-05
19110.0 1.8359e-05
19130.0 1.8268e-05
19150.0 1.8177e-05
19170.0 1.8089e-05
19190.0 1.8001e-05
19210.0 1.7909e-05
19230.0 1.782e-05
19250.0 1.7734e-05
19270.0 1.7644e-05
19290.0 1.7554e-05
19310.0 1.7467e-05
19330.0 1.7379e-05
19350.0 1.7287e-05
19370.0 1.7199e-05
19390.0 1.7112e-05
19410.0 1.7022e-05
19430.0 1.6932e-05
19450.0 1.6846e-05
19470.0 1.6759e-05
19490.0 1.6668e-05
19510.0 1.658e-05
19530.0 1.6494e-05
19550.0 1.6404e-05
19570.0 1.6314e-05
19590.0 1.6228e-05
19610.0 1.614e-05
19630.0 1.6051e-05
19650.0 1.5963e-05
19670.0 1.5878e-05
19690.0 1.5788e-05
19710.0 1.5699e-05
19730.0 1.5613e-05
19750.0 1.5526e-05
19770.0 1.5435e-05
19790.0 1.5348e-05
19810.0 1.5262e-05
19830.0 1.5174e-05
19850.0 1.5086e-05
19870.0 1.5002e-05
19890.0 1.4915e-05
19910.0 1.4829e-05
19930.0 1.4748e-05
19950.0 1.4672e-05
19970.0 1.4599e-05
19990.0 1.4534e-05
20010.0 1.448e-05
20030.0 1.4433e-05
20050.0 1.4393e-05
20070.0 1.4362e-05
20090.0 1.4336e-05
20110.0 1.4313e-05
20130.0 1.4294e-05
20150.0 1.4277e-05
20170.0 1.426e-05
20190.0 1.4243e-05
20210.0 1.4226e-05
20230.0 1.4209e-05
20250.0 1.4191e-05
20270.0 1.4171e-05
20290.0 1.4152e-05
20310.0 1.4131e-05
20330.0 1.4108e-05
20350.0 1.4085e-05
20370.0 1.4062e-05
20390.0 1.4036e-05
20410.0 1.4009e-05
20430.0 1.3983e-05
20450.0 1.3954e-05
20470.0 1.3925e-05
20490.0 1.3897e-05
20510.0 1.3868e-05
20530.0 1.3838e-05
20550.0 1.3809e-05
20570.0 1.3782e-05
20590.0 1.3754e-05
20610.0 1.3726e-05
20630.0 1.3701e-05
20650.0 1.3675e-05
20670.0 1.3649e-05
20690.0 1.3623e-05
20710.0 1.3598e-05
20730.0 1.3572e-05
20750.0 1.3545e-05
20770.0 1.3518e-05
20790.0 1.3489e-05
20810.0 1.3457e-05
20830.0 1.3424e-05
20850.0 1.3389e-05
20870.0 1.335e-05
20890.0 1.3308e-05
20910.0 1.3266e-05
20930.0 1.3221e-05
20950.0 1.3173e-05
20970.0 1.3124e-05
20990.0 1.3074e-05
21010.0 1.3021e-05
21030.0 1.2967e-05
21050.0 1.2915e-05
21070.0 1.2862e-05
21090.0 1.2807e-05
21110.0 1.2754e-05
21130.0 1.2703e-05
21150.0 1.265e-05
21170.0 1.2598e-05
21190.0 1.2548e-05
21210.0 1.2497e-05
21230.0 1.2445e-05
21250.0 1.2394e-05
21270.0 1.2344e-05
21290.0 1.2291e-05
21310.0 1.2237e-05
21330.0 1.2185e-05
21350.0 1.213e-05
21370.0 1.2073e-05
21390.0 1.2016e-05
21410.0 1.1958e-05
21430.0 1.1896e-05
21450.0 1.1834e-05
21470.0 1.1772e-05
21490.0 1.1707e-05
21510.0 1.164e-05
21530.0 1.1574e-05
21550.0 1.1507e-05
21570.0 1.1437e-05
21590.0 1.1368e-05
21610.0 1.1299e-05
21630.0 1.1228e-05
21650.0 1.1155e-05
21670.0 1.1087e-05
21690.0 1.1017e-05
21710.0 1.0945e-05
21730.0 1.0875e-05
21750.0 1.0807e-05
21770.0 1.0735e-05
21790.0 1.0664e-05
21810.0 1.0595e-05
21830.0 1.0525e-05
21850.0 1.0453e-05
21870.0 1.0383e-05
21890.0 1.0315e-05
21910.0 1.0244e-05
21930.0 1.0174e-05
21950.0 1.0106e-05
21970.0 1.0037e-05
21990.0 9.9664e-06
22010.0 9.8995e-06
22030.0 9.8346e-06
22050.0 9.7691e-06
22070.0 9.7038e-06
22090.0 9.6401e-06
22110.0 9.5769e-06
22130.0 9.5146e-06
22150.0 9.4561e-06
22170.0 9.4005e-06
22190.0 9.345e-06
22210.0 9.292e-06
22230.0 9.2432e-06
22250.0 9.1951e-06
22270.0 9.1481e-06
22290.0 9.1037e-06
22310.0 9.0608e-06
22330.0 9.0173e-06
22350.0 8.9751e-06
22370.0 8.9343e-06
22390.0 8.893e-06
22410.0 8.8509e-06
22430.0 8.8101e-06
22450.0 8.7691e-06
22470.0 8.7268e-06
22490.0 8.6844e-06
22510.0 8.6425e-06
22530.0 8.599e-06
22550.0 8.5545e-06
22570.0 8.511e-06
22590.0 8.4673e-06
22610.0 8.4225e-06
22630.0 8.3781e-06
22650.0 8.3352e-06
22670.0 8.2915e-06
22690.0 8.248e-06
