#lamb flux
1010.0 0.00023034
1030.0 0.00031205
1050.0 0.00042266
1070.0 0.00056874
1090.0 0.0007606
1110.0 0.00099543
1130.0 0.0012741
1150.0 0.0016052
1170.0 0.0019892
1190.0 0.0024064
1210.0 0.0028635
1230.0 0.0033587
1250.0 0.0038677
1270.0 0.0043725
1290.0 0.004882
1310.0 0.0053637
1330.0 0.0057863
1350.0 0.0061504
1370.0 0.006449
1390.0 0.0066525
1410.0 0.0067532
1430.0 0.0067718
1450.0 0.0066954
1470.0 0.0065211
1490.0 0.0062709
1510.0 0.0059652
1530.0 0.0055914
1550.0 0.0051747
1570.0 0.004736
1590.0 0.0042817
1610.0 0.003818
1630.0 0.003365
1650.0 0.0029278
1670.0 0.0025074
1690.0 0.0021109
1710.0 0.0017441
1730.0 0.0014058
1750.0 0.0010953
1770.0 0.0008158
1790.0 0.00056565
1810.0 0.00034319
1830.0 0.0001479
1850.0 4.8629e-05
1870.0 2.9773e-05
1890.0 1.4015e-05
1910.0 1.1907e-06
1930.0 1e-99
1950.0 1e-99
1970.0 1e-99
1990.0 1e-99
2010.0 1e-99
2030.0 1e-99
2050.0 1e-99
2070.0 1e-99
2090.0 1e-99
2110.0 6.6183e-06
2130.0 1.8288e-05
2150.0 3.1597e-05
2170.0 4.6406e-05
2190.0 6.2612e-05
2210.0 0.00013119
2230.0 0.00026556
2250.0 0.00040726
2270.0 0.00055569
2290.0 0.0007093
2310.0 0.0008666
2330.0 0.0010272
2350.0 0.0011899
2370.0 0.0013525
2390.0 0.0015143
2410.0 0.001675
2430.0 0.0018312
2450.0 0.0019813
2470.0 0.0021242
2490.0 0.002258
2510.0 0.0023804
2530.0 0.0024941
2550.0 0.0026045
2570.0 0.0027204
2590.0 0.0028549
2610.0 0.0030374
2630.0 0.003294
2650.0 0.0036382
2670.0 0.0041049
2690.0 0.0047293
2710.0 0.0054746
2730.0 0.0063073
2750.0 0.0072531
2770.0 0.008206
2790.0 0.0090602
2810.0 0.0098093
2830.0 0.010444
2850.0 0.010845
2870.0 0.011078
2890.0 0.011197
2910.0 0.011201
2930.0 0.011092
2950.0 0.010939
2970.0 0.010745
2990.0 0.01049
3010.0 0.010197
3030.0 0.0099002
3050.0 0.0095869
3070.0 0.0092368
3090.0 0.0088969
3110.0 0.0085686
3130.0 0.008245
3150.0 0.0073139
3170.0 0.0065408
3190.0 0.005709
3210.0 0.0049172
3230.0 0.0044321
3250.0 0.0053488
3270.0 0.008321
3290.0 0.0095754
3310.0 0.0051947
3330.0 0.0046292
3350.0 0.0049404
3370.0 0.0053716
3390.0 0.0057607
3410.0 0.0058659
3430.0 0.0057457
3450.0 0.0055618
3470.0 0.0054938
3490.0 0.0050203
3510.0 0.0028182
3530.0 0.00013318
3550.0 1e-99
3570.0 0.0040055
3590.0 0.011748
3610.0 0.015603
3630.0 0.026051
3650.0 0.028115
3670.0 0.022079
3690.0 0.014406
3710.0 0.0097653
3730.0 0.010082
3750.0 0.010812
3770.0 0.011183
3790.0 0.011467
3810.0 0.014949
3830.0 0.013391
3850.0 0.0094489
3870.0 0.007181
3890.0 0.010351
3910.0 0.012726
3930.0 0.012837
3950.0 0.014312
3970.0 0.015966
3990.0 0.015019
4010.0 0.016681
4030.0 0.015832
4050.0 0.014604
4070.0 0.013601
4090.0 0.013897
4110.0 0.014895
4130.0 0.014698
4150.0 0.013669
4170.0 0.01303
4190.0 0.013615
4210.0 0.01198
4230.0 0.010654
4250.0 0.0087454
4270.0 0.0065459
4290.0 0.0066581
4310.0 0.0063732
4330.0 0.0062851
4350.0 0.008925
4370.0 0.0090056
4390.0 0.01096
4410.0 0.0122
4430.0 0.013501
4450.0 0.011624
4470.0 0.0091934
4490.0 0.0086458
4510.0 0.0078039
4530.0 0.0072231
4550.0 0.0065517
4570.0 0.0063627
4590.0 0.0064889
4610.0 0.0051969
4630.0 0.0044017
4650.0 0.0033932
4670.0 0.0033405
4690.0 0.0024005
4710.0 0.0018616
4730.0 0.0009035
4750.0 0.0004265
4770.0 4.5526e-05
4790.0 6.3844e-05
4810.0 4.7055e-05
4830.0 1e-99
4850.0 1e-99
4870.0 1e-99
4890.0 1e-99
4910.0 1.0429e-05
4930.0 7.8032e-05
4950.0 1e-99
4970.0 1e-99
4990.0 1e-99
5010.0 1e-99
5030.0 1e-99
5050.0 1e-99
5070.0 1e-99
5090.0 1e-99
5110.0 1e-99
5130.0 1e-99
5150.0 1e-99
5170.0 1e-99
5190.0 1e-99
5210.0 1e-99
5230.0 1e-99
5250.0 1e-99
5270.0 0.00045824
5290.0 0.00035811
5310.0 7.3885e-06
5330.0 3.9532e-05
5350.0 1e-99
5370.0 1e-99
5390.0 1.6365e-05
5410.0 1e-99
5430.0 0.00018066
5450.0 1e-99
5470.0 1e-99
5490.0 0.0015455
5510.0 0.0014856
5530.0 0.0015715
5550.0 0.0012397
5570.0 0.0019499
5590.0 0.0028962
5610.0 0.0029716
5630.0 0.0026104
5650.0 0.0027352
5670.0 0.0027206
5690.0 0.0030629
5710.0 0.0023919
5730.0 0.0027814
5750.0 0.0028293
5770.0 0.0025736
5790.0 0.003487
5810.0 0.0040903
5830.0 0.0036719
5850.0 0.0025031
5870.0 0.0018943
5890.0 0.0018555
5910.0 0.0026385
5930.0 0.0023787
5950.0 0.0027271
5970.0 0.0027997
5990.0 0.0032194
6010.0 0.0030097
6030.0 0.0032008
6050.0 0.0031128
6070.0 0.0024768
6090.0 0.0029054
6110.0 0.0031422
6130.0 0.0028029
6150.0 0.0028782
6170.0 0.0030566
6190.0 0.001953
6210.0 0.0020966
6230.0 0.0024432
6250.0 0.0024051
6270.0 0.0023827
6290.0 0.0028221
6310.0 0.0033847
6330.0 0.0034768
6350.0 0.0033322
6370.0 0.0035249
6390.0 0.0029029
6410.0 0.0031205
6430.0 0.0028105
6450.0 0.0029694
6470.0 0.003141
6490.0 0.0032517
6510.0 0.0026873
6530.0 0.0028069
6550.0 0.0027669
6570.0 0.0024358
6590.0 0.0027777
6610.0 0.0028141
6630.0 0.0028505
6650.0 0.0025298
6670.0 0.0023393
6690.0 0.0022176
6710.0 0.00205
6730.0 0.0019197
6750.0 0.0019301
6770.0 0.0015724
6790.0 0.00017026
6810.0 0.00057563
6830.0 0.0015533
6850.0 0.0011989
6870.0 0.0011902
6890.0 0.0011345
6910.0 0.0011028
6930.0 0.00096396
6950.0 0.0011929
6970.0 0.001137
6990.0 0.0011214
7010.0 0.0010808
7030.0 0.0012904
7050.0 0.001284
7070.0 0.00067798
7090.0 0.0001363
7110.0 0.00010564
7130.0 0.00016823
7150.0 0.00027791
7170.0 0.00025561
7190.0 9.1328e-05
7210.0 0.00043119
7230.0 0.00089663
7250.0 0.00083751
7270.0 0.00089904
7290.0 0.0011113
7310.0 0.0007075
7330.0 0.00060093
7350.0 0.00050008
7370.0 0.00086155
7390.0 0.0013143
7410.0 0.00061815
7430.0 0.0007197
7450.0 0.00067405
7470.0 0.0010914
7490.0 0.0011923
7510.0 0.00084447
7530.0 0.0010942
7550.0 5.6623e-05
7570.0 2.2862e-05
7590.0 0.00037688
7610.0 0.00096981
7630.0 0.00058474
7650.0 0.00092429
7670.0 0.0001064
7690.0 1e-99
7710.0 2.3793e-05
7730.0 0.00037675
7750.0 2.0888e-05
7770.0 0.00057186
7790.0 0.00091464
7810.0 0.0003974
7830.0 0.00081673
7850.0 0.00012008
7870.0 0.00067722
7890.0 0.00030248
7910.0 0.00032461
7930.0 3.1476e-05
7950.0 1e-99
7970.0 1.2381e-05
7990.0 0.00023316
8010.0 0.0033309
8030.0 0.0032004
8050.0 0.0031444
8070.0 0.0030738
8090.0 0.0029295
8110.0 0.0028173
8130.0 0.0030706
8150.0 0.0032961
8170.0 0.0034331
8190.0 0.0036389
8210.0 0.0034403
8230.0 0.0034308
8250.0 0.0033847
8270.0 0.0034679
8290.0 0.0034621
8310.0 0.0032661
8330.0 0.0030838
8350.0 0.0032029
8370.0 0.0032875
8390.0 0.0031863
8410.0 0.0031507
8430.0 0.0030292
8450.0 0.0028958
8470.0 0.0031593
8490.0 0.0031714
8510.0 0.0029379
8530.0 0.0030005
8550.0 0.0029703
8570.0 0.0026934
8590.0 0.0027582
8610.0 0.0027341
8630.0 0.0029017
8650.0 0.0029227
8670.0 0.0029756
8690.0 0.0029018
8710.0 0.0028756
8730.0 0.0027227
8750.0 0.0026374
8770.0 0.0026026
8790.0 0.0028106
8810.0 0.0025749
8830.0 0.0025047
8850.0 0.0026928
8870.0 0.0025447
8890.0 0.0023052
8910.0 0.0022864
8930.0 0.0024004
8950.0 0.0021527
8970.0 0.0020528
8990.0 0.0020023
9010.0 0.0018665
9030.0 0.0018361
9050.0 0.0018284
9070.0 0.0018218
9090.0 0.0018152
9110.0 0.0018086
9130.0 0.0018018
9150.0 0.001795
9170.0 0.001788
9190.0 0.001781
9210.0 0.0017739
9230.0 0.0017668
9250.0 0.0017597
9270.0 0.0017524
9290.0 0.0017452
9310.0 0.0017395
9330.0 0.0017363
9350.0 0.0017331
9370.0 0.0017297
9390.0 0.0017262
9410.0 0.0017227
9430.0 0.0017191
9450.0 0.0017154
9470.0 0.0017125
9490.0 0.001709
9510.0 0.0017046
9530.0 0.0017001
9550.0 0.0016958
9570.0 0.0016915
9590.0 0.0016871
9610.0 0.0016855
9630.0 0.0016842
9650.0 0.0016827
9670.0 0.0016809
9690.0 0.0016791
9710.0 0.0016773
9730.0 0.0016752
9750.0 0.001673
9770.0 0.001671
9790.0 0.0016686
9810.0 0.0016661
9830.0 0.0016636
9850.0 0.00166
9870.0 0.0016551
9890.0 0.0016536
9910.0 0.0016515
9930.0 0.0016484
9950.0 0.0016454
9970.0 0.0016427
9990.0 0.0016397
10010.0 0.0016365
10030.0 0.0016331
10050.0 0.0016297
10070.0 0.0016262
10090.0 0.0016225
10110.0 0.0016189
10130.0 0.0016151
10150.0 0.0016113
10170.0 0.0016074
10190.0 0.0016035
10210.0 0.0015996
10230.0 0.0015955
10250.0 0.0015915
10270.0 0.0015873
10290.0 0.0015832
10310.0 0.001579
10330.0 0.0015748
10350.0 0.0015705
10370.0 0.0015661
10390.0 0.0015617
10410.0 0.0015562
10430.0 0.0015503
10450.0 0.0015471
10470.0 0.0015433
10490.0 0.0015392
10510.0 0.001535
10530.0 0.0015306
10550.0 0.0015261
10570.0 0.0015216
10590.0 0.0015171
10610.0 0.0015125
10630.0 0.001508
10650.0 0.0015035
10670.0 0.0014988
10690.0 0.0014943
10710.0 0.0014897
10730.0 0.0014851
10750.0 0.0014805
10770.0 0.001476
10790.0 0.0014714
10810.0 0.0014668
10830.0 0.0014623
10850.0 0.0014578
10870.0 0.0014532
10890.0 0.0014484
10910.0 0.0014437
10930.0 0.0014388
10950.0 0.0014334
10970.0 0.0014276
10990.0 0.0014214
11010.0 0.0011374
11030.0 0.0011306
11050.0 0.0011216
11070.0 0.0011109
11090.0 0.0010985
11110.0 0.0010853
11130.0 0.0010716
11150.0 0.0010572
11170.0 0.0010425
11190.0 0.0010279
11210.0 0.0010131
11230.0 0.00099804
11250.0 0.0009832
11270.0 0.00096852
11290.0 0.00095371
11310.0 0.00093909
11330.0 0.00092506
11350.0 0.00091118
11370.0 0.00089753
11390.0 0.00088441
11410.0 0.00087172
11430.0 0.00085915
11450.0 0.00084702
11470.0 0.00083532
11490.0 0.00082381
11510.0 0.00081243
11530.0 0.00080139
11550.0 0.00079052
11570.0 0.00077964
11590.0 0.00076887
11610.0 0.00075824
11630.0 0.00074752
11650.0 0.00073672
11670.0 0.00072604
11690.0 0.00071531
11710.0 0.00070443
11730.0 0.00069351
11750.0 0.00068268
11770.0 0.00067165
11790.0 0.00066053
11810.0 0.00064951
11830.0 0.00063851
11850.0 0.00062733
11870.0 0.00061636
11890.0 0.00060565
11910.0 0.000595
11930.0 0.00058455
11950.0 0.00057453
11970.0 0.00056479
11990.0 0.0005553
12010.0 0.00054632
12030.0 0.00053783
12050.0 0.00052973
12070.0 0.00052211
12090.0 0.00051508
12110.0 0.00050851
12130.0 0.00050242
12150.0 0.00049681
12170.0 0.00049162
12190.0 0.00048688
12210.0 0.00048252
12230.0 0.00047843
12250.0 0.00047461
12270.0 0.00047106
12290.0 0.00046762
12310.0 0.00046421
12330.0 0.00046093
12350.0 0.00045763
12370.0 0.00045422
12390.0 0.00045073
12410.0 0.00044717
12430.0 0.00044336
12450.0 0.00043936
12470.0 0.00043515
12490.0 0.00043068
12510.0 0.00042598
12530.0 0.000421
12550.0 0.00041572
12570.0 0.0004102
12590.0 0.00040444
12610.0 0.00039833
12630.0 0.00039196
12650.0 0.00038552
12670.0 0.00037879
12690.0 0.00037181
12710.0 0.0003648
12730.0 0.00035773
12750.0 0.00035032
12770.0 0.00034295
12790.0 0.00033569
12810.0 0.00032833
12830.0 0.00032088
12850.0 0.00031372
12870.0 0.0003067
12890.0 0.00029965
12910.0 0.00029286
12930.0 0.00028643
12950.0 0.00028011
12970.0 0.00027403
12990.0 0.0002685
13010.0 0.00026335
13030.0 0.00025854
13050.0 0.00025423
13070.0 0.00025049
13090.0 0.00024714
13110.0 0.00024427
13130.0 0.00024193
13150.0 0.00024004
13170.0 0.00023858
13190.0 0.00023757
13210.0 0.00023693
13230.0 0.00023666
13250.0 0.00023675
13270.0 0.00023708
13290.0 0.00023768
13310.0 0.00023856
13330.0 0.00023958
13350.0 0.00024069
13370.0 0.00024193
13390.0 0.00024322
13410.0 0.00024438
13430.0 0.00024548
13450.0 0.0002465
13470.0 0.00024734
13490.0 0.000248
13510.0 0.00024852
13530.0 0.00024885
13550.0 0.00024901
13570.0 0.00024905
13590.0 0.00024895
13610.0 0.00024876
13630.0 0.0002485
13650.0 0.00024813
13670.0 0.00024768
13690.0 0.00024716
13710.0 0.00024652
13730.0 0.00024568
13750.0 0.00024476
13770.0 0.0002437
13790.0 0.0002424
13810.0 0.00024091
13830.0 0.00023935
13850.0 0.00023753
13870.0 0.00023548
13890.0 0.0002334
13910.0 0.00023124
13930.0 0.00022888
13950.0 0.0002265
13970.0 0.00022431
13990.0 0.00022205
14010.0 0.00021982
14030.0 0.0002178
14050.0 0.00021593
14070.0 0.00021405
14090.0 0.0002124
14110.0 0.00021098
14130.0 0.00020966
14150.0 0.00020842
14170.0 0.00020745
14190.0 0.00020659
14210.0 0.00020577
14230.0 0.00020509
14250.0 0.00020455
14270.0 0.00020402
14290.0 0.00020353
14310.0 0.00020321
14330.0 0.00020296
14350.0 0.00020273
14370.0 0.00020263
14390.0 0.00020266
14410.0 0.00020273
14430.0 0.00020289
14450.0 0.00020319
14470.0 0.00020357
14490.0 0.00020399
14510.0 0.00020453
14530.0 0.00020516
14550.0 0.00020581
14570.0 0.00020649
14590.0 0.00020723
14610.0 0.00020797
14630.0 0.00020868
14650.0 0.00020941
14670.0 0.00021015
14690.0 0.00021084
14710.0 0.0002115
14730.0 0.00021219
14750.0 0.00021283
14770.0 0.00021341
14790.0 0.00021397
14810.0 0.0002145
14830.0 0.00021491
14850.0 0.00021527
14870.0 0.00021562
14890.0 0.0002159
14910.0 0.0002161
14930.0 0.00021634
14950.0 0.00021663
14970.0 0.00021691
14990.0 0.00021729
15010.0 0.00021781
15030.0 0.00021842
15050.0 0.00021908
15070.0 0.00021989
15090.0 0.00022075
15110.0 0.00022161
15130.0 0.0002225
15150.0 0.00022342
15170.0 0.00022429
15190.0 0.00022515
15210.0 0.00022601
15230.0 0.00022685
15250.0 0.00022764
15270.0 0.00022842
15290.0 0.00022921
15310.0 0.00022995
15330.0 0.00023066
15350.0 0.00023137
15370.0 0.00023205
15390.0 0.00023268
15410.0 0.0002333
15430.0 0.00023391
15450.0 0.00023448
15470.0 0.000235
15490.0 0.00023553
15510.0 0.00023603
15530.0 0.00023649
15550.0 0.00023692
15570.0 0.00023734
15590.0 0.00023771
15610.0 0.00023804
15630.0 0.00023838
15650.0 0.00023867
15670.0 0.00023892
15690.0 0.00023916
15710.0 0.00023938
15730.0 0.00023955
15750.0 0.00023968
15770.0 0.00023981
15790.0 0.0002399
15810.0 0.00023993
15830.0 0.00023996
15850.0 0.00023997
15870.0 0.00023993
15890.0 0.00023986
15910.0 0.00023978
15930.0 0.00023966
15950.0 0.00023949
15970.0 0.00023931
15990.0 0.00023911
16010.0 0.00023887
16030.0 0.00023858
16050.0 0.00023831
16070.0 0.00023799
16090.0 0.00023762
16110.0 0.00023725
16130.0 0.00023686
16150.0 0.0002364
16170.0 0.00023593
16190.0 0.00023546
16210.0 0.00023494
16230.0 0.00023439
16250.0 0.00023383
16270.0 0.00023325
16290.0 0.00023262
16310.0 0.00023198
16330.0 0.00023133
16350.0 0.00023064
16370.0 0.0002299
16390.0 0.00022917
16410.0 0.00022843
16430.0 0.00022764
16450.0 0.00022683
16470.0 0.00022603
16490.0 0.00022518
16510.0 0.00022429
16530.0 0.00022342
16550.0 0.00022252
16570.0 0.00022158
16590.0 0.00022063
16610.0 0.00021969
16630.0 0.0002187
16650.0 0.0002177
16670.0 0.0002167
16690.0 0.00021568
16710.0 0.00021461
16730.0 0.00021354
16750.0 0.00021248
16770.0 0.00021138
16790.0 0.00021026
16810.0 0.00020915
16830.0 0.00020803
16850.0 0.00020687
16870.0 0.00020571
16890.0 0.00020456
16910.0 0.00020336
16930.0 0.00020215
16950.0 0.00020096
16970.0 0.00019975
16990.0 0.00019851
17010.0 0.00019728
17030.0 0.00019605
17050.0 0.00019479
17070.0 0.00019352
17090.0 0.00019227
17110.0 0.000191
17130.0 0.00018969
17150.0 0.00018841
17170.0 0.00018713
17190.0 0.00018582
17210.0 0.00018451
17230.0 0.00018322
17250.0 0.0001819
17270.0 0.00018056
17290.0 0.00017924
17310.0 0.00017793
17330.0 0.00017659
17350.0 0.00017524
17370.0 0.00017393
17390.0 0.00017259
17410.0 0.00017124
17430.0 0.00016991
17450.0 0.00016859
17470.0 0.00016722
17490.0 0.00016587
17510.0 0.00016454
17530.0 0.0001632
17550.0 0.00016185
17570.0 0.00016052
17590.0 0.00015919
17610.0 0.00015784
17630.0 0.0001565
17650.0 0.00015518
17670.0 0.00015384
17690.0 0.00015249
17710.0 0.00015117
17730.0 0.00014986
17750.0 0.00014853
17770.0 0.00014721
17790.0 0.00014591
17810.0 0.00014459
17830.0 0.00014328
17850.0 0.00014198
17870.0 0.00014069
17890.0 0.00013938
17910.0 0.00013809
17930.0 0.00013682
17950.0 0.00013554
17970.0 0.00013426
17990.0 0.00013301
18010.0 0.00013175
18030.0 0.00013048
18050.0 0.00012923
18070.0 0.000128
18090.0 0.00012676
18110.0 0.00012552
18130.0 0.00012431
18150.0 0.0001231
18170.0 0.00012188
18190.0 0.00012068
18210.0 0.00011949
18230.0 0.0001183
18250.0 0.0001171
18270.0 0.00011594
18290.0 0.00011478
18310.0 0.00011362
18330.0 0.00011247
18350.0 0.00011135
18370.0 0.0001102
18390.0 0.00010907
18410.0 0.00010797
18430.0 0.00010686
18450.0 0.00010574
18470.0 0.00010466
18490.0 0.00010359
18510.0 0.00010251
18530.0 0.00010144
18550.0 0.00010039
18570.0 9.9346e-05
18590.0 9.8294e-05
18610.0 9.7268e-05
18630.0 9.6254e-05
18650.0 9.5234e-05
18670.0 9.4222e-05
18690.0 9.3242e-05
18710.0 9.2258e-05
18730.0 9.1274e-05
18750.0 9.0312e-05
18770.0 8.9364e-05
18790.0 8.8399e-05
18810.0 8.7454e-05
18830.0 8.6533e-05
18850.0 8.5611e-05
18870.0 8.4689e-05
18890.0 8.3792e-05
18910.0 8.2906e-05
18930.0 8.2011e-05
18950.0 8.1132e-05
18970.0 8.0273e-05
18990.0 7.9413e-05
19010.0 7.8546e-05
19030.0 7.7714e-05
19050.0 7.6888e-05
19070.0 7.6058e-05
19090.0 7.5243e-05
19110.0 7.445e-05
19130.0 7.3647e-05
19150.0 7.285e-05
19170.0 7.2076e-05
19190.0 7.1309e-05
19210.0 7.0536e-05
19230.0 6.9779e-05
19250.0 6.9045e-05
19270.0 6.8305e-05
19290.0 6.757e-05
19310.0 6.6857e-05
19330.0 6.6149e-05
19350.0 6.543e-05
19370.0 6.4734e-05
19390.0 6.4053e-05
19410.0 6.3368e-05
19430.0 6.2687e-05
19450.0 6.2031e-05
19470.0 6.1376e-05
19490.0 6.0718e-05
19510.0 6.0076e-05
19530.0 5.9448e-05
19550.0 5.8812e-05
19570.0 5.8181e-05
19590.0 5.7575e-05
19610.0 5.6969e-05
19630.0 5.6361e-05
19650.0 5.577e-05
19670.0 5.5192e-05
19690.0 5.4603e-05
19710.0 5.4024e-05
19730.0 5.3462e-05
19750.0 5.29e-05
19770.0 5.2331e-05
19790.0 5.1784e-05
19810.0 5.1246e-05
19830.0 5.0702e-05
19850.0 5.0166e-05
19870.0 4.9648e-05
19890.0 4.9126e-05
19910.0 4.8603e-05
19930.0 4.8104e-05
19950.0 4.7618e-05
19970.0 4.7139e-05
19990.0 4.6683e-05
20010.0 4.6265e-05
20030.0 4.5868e-05
20050.0 4.5502e-05
20070.0 4.5177e-05
20090.0 4.4889e-05
20110.0 4.4632e-05
20130.0 4.4416e-05
20150.0 4.4235e-05
20170.0 4.4085e-05
20190.0 4.3966e-05
20210.0 4.387e-05
20230.0 4.3796e-05
20250.0 4.3745e-05
20270.0 4.3706e-05
20290.0 4.3675e-05
20310.0 4.3654e-05
20330.0 4.3641e-05
20350.0 4.3618e-05
20370.0 4.3594e-05
20390.0 4.3567e-05
20410.0 4.3532e-05
20430.0 4.3485e-05
20450.0 4.3436e-05
20470.0 4.3377e-05
20490.0 4.3308e-05
20510.0 4.3234e-05
20530.0 4.3156e-05
20550.0 4.3073e-05
20570.0 4.2985e-05
20590.0 4.2898e-05
20610.0 4.2811e-05
20630.0 4.2722e-05
20650.0 4.2633e-05
20670.0 4.2549e-05
20690.0 4.2461e-05
20710.0 4.237e-05
20730.0 4.2279e-05
20750.0 4.2184e-05
20770.0 4.2079e-05
20790.0 4.1968e-05
20810.0 4.1848e-05
20830.0 4.1714e-05
20850.0 4.1565e-05
20870.0 4.1403e-05
20890.0 4.1222e-05
20910.0 4.1022e-05
20930.0 4.0804e-05
20950.0 4.0565e-05
20970.0 4.0307e-05
20990.0 4.0031e-05
21010.0 3.9735e-05
21030.0 3.942e-05
21050.0 3.9092e-05
21070.0 3.8746e-05
21090.0 3.8382e-05
21110.0 3.8009e-05
21130.0 3.7623e-05
21150.0 3.7221e-05
21170.0 3.6808e-05
21190.0 3.6386e-05
21210.0 3.5947e-05
21230.0 3.5491e-05
21250.0 3.5025e-05
21270.0 3.4544e-05
21290.0 3.4041e-05
21310.0 3.3521e-05
21330.0 3.2988e-05
21350.0 3.2429e-05
21370.0 3.1853e-05
21390.0 3.1759e-05
21410.0 3.1662e-05
21430.0 3.1559e-05
21450.0 3.1454e-05
21470.0 3.1348e-05
21490.0 3.1236e-05
21510.0 3.1121e-05
21530.0 3.1005e-05
21550.0 3.0886e-05
21570.0 3.0762e-05
21590.0 3.0636e-05
21610.0 3.0508e-05
21630.0 3.0376e-05
21650.0 3.0239e-05
21670.0 3.0103e-05
21690.0 2.9964e-05
21710.0 2.982e-05
21730.0 2.9674e-05
21750.0 2.9527e-05
21770.0 2.9375e-05
21790.0 2.9219e-05
21810.0 2.9063e-05
21830.0 2.8903e-05
21850.0 2.8739e-05
21870.0 2.8574e-05
21890.0 2.8407e-05
21910.0 2.8236e-05
21930.0 2.8062e-05
21950.0 2.7888e-05
21970.0 2.7711e-05
21990.0 2.7529e-05
22010.0 2.7348e-05
22030.0 2.7166e-05
22050.0 2.698e-05
22070.0 2.6879e-05
22090.0 2.6931e-05
22110.0 2.6983e-05
22130.0 2.7034e-05
22150.0 2.7085e-05
22170.0 2.7134e-05
22190.0 2.7184e-05
22210.0 2.7232e-05
22230.0 2.7279e-05
22250.0 2.7326e-05
22270.0 2.7372e-05
22290.0 2.7417e-05
22310.0 2.7462e-05
22330.0 2.7507e-05
22350.0 2.7552e-05
22370.0 2.7596e-05
22390.0 2.7641e-05
22410.0 2.7686e-05
22430.0 2.7731e-05
22450.0 2.7776e-05
22470.0 2.7822e-05
22490.0 2.7868e-05
22510.0 2.7915e-05
22530.0 2.7962e-05
22550.0 2.801e-05
22570.0 2.8059e-05
22590.0 2.8107e-05
22610.0 2.8157e-05
22630.0 2.8207e-05
22650.0 2.8257e-05
22670.0 2.8308e-05
22690.0 2.836e-05
22710.0 2.8411e-05
22730.0 2.8463e-05
22750.0 2.8516e-05
22770.0 2.8569e-05
22790.0 2.8622e-05
22810.0 2.8676e-05
22830.0 2.873e-05
22850.0 2.8784e-05
22870.0 2.8839e-05
22890.0 2.8894e-05
22910.0 2.895e-05
22930.0 2.9007e-05
22950.0 2.9065e-05
22970.0 2.9123e-05
22990.0 2.9183e-05
23010.0 2.9243e-05
23030.0 2.9305e-05
23050.0 2.9368e-05
23070.0 2.9433e-05
23090.0 2.9499e-05
23110.0 2.9501e-05
23130.0 2.9498e-05
23150.0 2.9494e-05
23170.0 2.9491e-05
23190.0 2.9488e-05
23210.0 2.9485e-05
23230.0 2.9482e-05
23250.0 2.948e-05
23270.0 2.9477e-05
