#lamb flux
1010.0 2.7232e-07
1030.0 2.9826e-07
1050.0 3.281e-07
1070.0 3.6169e-07
1090.0 3.9984e-07
1110.0 4.3898e-07
1130.0 4.7838e-07
1150.0 5.1966e-07
1170.0 5.6224e-07
1190.0 6.0262e-07
1210.0 6.4356e-07
1230.0 6.8587e-07
1250.0 7.2733e-07
1270.0 7.676e-07
1290.0 8.1016e-07
1310.0 8.527e-07
1330.0 8.9351e-07
1350.0 9.3479e-07
1370.0 9.7741e-07
1390.0 1.019e-06
1410.0 1.0593e-06
1430.0 1.1015e-06
1450.0 1.1437e-06
1470.0 1.1845e-06
1490.0 1.2257e-06
1510.0 1.2693e-06
1530.0 1.3106e-06
1550.0 1.3513e-06
1570.0 1.3934e-06
1590.0 1.4356e-06
1610.0 1.4758e-06
1630.0 1.5173e-06
1650.0 1.5599e-06
1670.0 1.6011e-06
1690.0 1.6416e-06
1710.0 1.6838e-06
1730.0 1.7261e-06
1750.0 1.7657e-06
1770.0 1.8065e-06
1790.0 1.8481e-06
1810.0 1.8881e-06
1830.0 1.9274e-06
1850.0 1.9689e-06
1870.0 2.0092e-06
1890.0 2.0479e-06
1910.0 2.0872e-06
1930.0 2.1272e-06
1950.0 2.165e-06
1970.0 2.202e-06
1990.0 2.2402e-06
2010.0 2.2773e-06
2030.0 2.3125e-06
2050.0 2.3485e-06
2070.0 2.385e-06
2090.0 2.4185e-06
2110.0 2.4513e-06
2130.0 2.4846e-06
2150.0 2.5164e-06
2170.0 2.5458e-06
2190.0 2.5757e-06
2210.0 2.605e-06
2230.0 2.6318e-06
2250.0 2.6574e-06
2270.0 2.6836e-06
2290.0 2.7075e-06
2310.0 2.7287e-06
2330.0 2.7499e-06
2350.0 2.7702e-06
2370.0 2.7877e-06
2390.0 2.8045e-06
2410.0 2.8222e-06
2430.0 2.8384e-06
2450.0 2.854e-06
2470.0 2.8722e-06
2490.0 2.8955e-06
2510.0 2.9245e-06
2530.0 2.972e-06
2550.0 3.0576e-06
2570.0 3.2002e-06
2590.0 3.4215e-06
2610.0 3.7808e-06
2630.0 4.2873e-06
2650.0 4.9075e-06
2670.0 5.6434e-06
2690.0 6.4616e-06
2710.0 7.2425e-06
2730.0 7.9317e-06
2750.0 8.5418e-06
2770.0 9.014e-06
2790.0 9.3478e-06
2810.0 9.5941e-06
2830.0 9.7895e-06
2850.0 9.9275e-06
2870.0 1.0045e-05
2890.0 1.0162e-05
2910.0 1.0276e-05
2930.0 1.0377e-05
2950.0 1.0486e-05
2970.0 1.0599e-05
2990.0 1.0702e-05
3010.0 9.8298e-05
3030.0 9.9257e-05
3050.0 0.00010016
3070.0 0.00010085
3090.0 0.00010141
3110.0 0.00010164
3130.0 0.0001013
3150.0 0.00010027
3170.0 9.8311e-05
3190.0 9.5453e-05
3210.0 9.1948e-05
3230.0 8.8211e-05
3250.0 8.7861e-05
3270.0 8.505e-05
3290.0 8.8399e-05
3310.0 8.5203e-05
3330.0 8.6841e-05
3350.0 8.9768e-05
3370.0 9.3601e-05
3390.0 9.8143e-05
3410.0 0.00010284
3430.0 0.00010788
3450.0 0.00011328
3470.0 0.00011873
3490.0 0.00012396
3510.0 0.00013058
3530.0 0.00013849
3550.0 0.00014349
3570.0 0.00014717
3590.0 0.00015686
3610.0 0.00015927
3630.0 0.00017123
3650.0 0.00018004
3670.0 0.00018938
3690.0 0.00019086
3710.0 0.00018555
3730.0 0.00018827
3750.0 0.00018829
3770.0 0.00019605
3790.0 0.00020762
3810.0 0.00023095
3830.0 0.00027945
3850.0 0.00033284
3870.0 0.00038322
3890.0 0.00041636
3910.0 0.00043182
3930.0 0.00044918
3950.0 0.0004669
3970.0 0.00040945
3990.0 0.00027811
4010.0 0.00024048
4030.0 0.00032858
4050.0 0.00041425
4070.0 0.00036819
4090.0 0.00022697
4110.0 0.00022084
4130.0 0.00031404
4150.0 0.000356
4170.0 0.0002997
4190.0 0.00025571
4210.0 0.00033548
4230.0 0.00035232
4250.0 0.00033464
4270.0 0.00033713
4290.0 0.0003074
4310.0 0.00034508
4330.0 0.00040219
4350.0 0.00046197
4370.0 0.00045999
4390.0 0.00044839
4410.0 0.00039576
4430.0 0.00031218
4450.0 0.00023762
4470.0 0.00025778
4490.0 0.00027902
4510.0 0.00038219
4530.0 0.00039854
4550.0 0.00039233
4570.0 0.00045583
4590.0 0.0005813
4610.0 0.00079527
4630.0 0.0009755
4650.0 0.00098486
4670.0 0.0010167
4690.0 0.0010958
4710.0 0.0010731
4730.0 0.00086492
4750.0 0.00061665
4770.0 0.00051492
4790.0 0.00045401
4810.0 0.00043028
4830.0 0.00047017
4850.0 0.00052804
4870.0 0.00061992
4890.0 0.00068066
4910.0 0.00060598
4930.0 0.00063063
4950.0 0.00078405
4970.0 0.00097122
4990.0 0.0011161
5010.0 0.0011156
5030.0 0.00094482
5050.0 0.00068403
5070.0 0.0005012
5090.0 0.00043354
5110.0 0.00044499
5130.0 0.00048468
5150.0 0.00045634
5170.0 0.00045458
5190.0 0.00045261
5210.0 0.0004609
5230.0 0.00049887
5250.0 0.00051508
5270.0 0.00055504
5290.0 0.00066617
5310.0 0.00075527
5330.0 0.00079784
5350.0 0.00081398
5370.0 0.00086948
5390.0 0.00090436
5410.0 0.00083135
5430.0 0.00075742
5450.0 0.00077398
5470.0 0.00091704
5490.0 0.001176
5510.0 0.0014132
5530.0 0.0014879
5550.0 0.0014447
5570.0 0.0013656
5590.0 0.0012785
5610.0 0.0012229
5630.0 0.0012441
5650.0 0.0012849
5670.0 0.0012437
5690.0 0.0011708
5710.0 0.0011422
5730.0 0.0010102
5750.0 0.00080638
5770.0 0.00073435
5790.0 0.00082721
5810.0 0.00092071
5830.0 0.0010279
5850.0 0.0010562
5870.0 0.0010283
5890.0 0.00097437
5910.0 0.00090791
5930.0 0.00090558
5950.0 0.00095611
5970.0 0.00097643
5990.0 0.00086248
6010.0 0.0007024
6030.0 0.0005689
6050.0 0.00051478
6070.0 0.00054575
6090.0 0.0006129
6110.0 0.00062801
6130.0 0.00058823
6150.0 0.00058302
6170.0 0.0006445
6190.0 0.00075217
6210.0 0.00090093
6230.0 0.0010171
6250.0 0.00096492
6270.0 0.00084244
6290.0 0.00070358
6310.0 0.00055796
6330.0 0.00047265
6350.0 0.00046666
6370.0 0.00051219
6390.0 0.00056507
6410.0 0.00066108
6430.0 0.00081359
6450.0 0.0010017
6470.0 0.0011753
6490.0 0.0013285
6510.0 0.001408
6530.0 0.0013585
6550.0 0.0013051
6570.0 0.0013113
6590.0 0.0013036
6610.0 0.0012407
6630.0 0.0011686
6650.0 0.0010872
6670.0 0.001077
6690.0 0.0010498
6710.0 0.0009707
6730.0 0.00084453
6750.0 0.00075266
6770.0 0.00077633
6790.0 0.00082882
6810.0 0.00090054
6830.0 0.00091806
6850.0 0.00086283
6870.0 0.00083745
6890.0 0.00082056
6910.0 0.00077537
6930.0 0.00074881
6950.0 0.00075444
6970.0 0.0007706
6990.0 0.00081494
7010.0 0.0008773
7030.0 0.00086003
7050.0 0.00077942
7070.0 0.00070026
7090.0 0.00059839
7110.0 0.00053298
7130.0 0.00056006
7150.0 0.00060675
7170.0 0.00061823
7190.0 0.00060413
7210.0 0.00059781
7230.0 0.00067126
7250.0 0.00076449
7270.0 0.00082284
7290.0 0.00083039
7310.0 0.00078971
7330.0 0.0007253
7350.0 0.00067081
7370.0 0.00063712
7390.0 0.00063008
7410.0 0.00067353
7430.0 0.00077588
7450.0 0.00086622
7470.0 0.00097511
7490.0 0.0011148
7510.0 0.001066
7530.0 0.00089819
7550.0 0.0007576
7570.0 0.00063021
7590.0 0.0005217
7610.0 0.00050527
7630.0 0.0005309
7650.0 0.00058616
7670.0 0.00067183
7690.0 0.00074
7710.0 0.00083504
7730.0 0.00087328
7750.0 0.00090385
7770.0 0.0009565
7790.0 0.00096608
7810.0 0.00095207
7830.0 0.00090207
7850.0 0.00088198
7870.0 0.00085378
7890.0 0.000785
7910.0 0.0007157
7930.0 0.00065101
7950.0 0.00055927
7970.0 0.00053195
7990.0 0.00054972
8010.0 0.00063733
8030.0 0.00064133
8050.0 0.00066617
8070.0 0.00065529
8090.0 0.00065545
8110.0 0.00063947
8130.0 0.00060398
8150.0 0.00056158
8170.0 0.0005569
8190.0 0.00056447
8210.0 0.00057056
8230.0 0.00053453
8250.0 0.00050243
8270.0 0.00044243
8290.0 0.00036363
8310.0 0.00028795
8330.0 0.00020628
8350.0 0.00015511
8370.0 0.0001458
8390.0 0.00016087
8410.0 0.00018993
8430.0 0.00023837
8450.0 0.00026332
8470.0 0.00028227
8490.0 0.00031039
8510.0 0.00033294
8530.0 0.00036945
8550.0 0.00043651
8570.0 0.00049827
8590.0 0.00054635
8610.0 0.00062871
8630.0 0.00072739
8650.0 0.00076644
8670.0 0.00077793
8690.0 0.0007744
8710.0 0.00074779
8730.0 0.00071704
8750.0 0.00067247
8770.0 0.00066109
8790.0 0.00063944
8810.0 0.00059145
8830.0 0.00055902
8850.0 0.00048723
8870.0 0.00044648
8890.0 0.00041114
8910.0 0.00045102
8930.0 0.00042675
8950.0 0.00043454
8970.0 0.00044279
8990.0 0.00043994
9010.0 0.00044566
9030.0 0.00043004
9050.0 0.00042894
9070.0 0.00042937
9090.0 0.00042981
9110.0 0.00043042
9130.0 0.00043087
9150.0 0.00043128
9170.0 0.00043108
9190.0 0.00043005
9210.0 0.00043455
9230.0 0.00043413
9250.0 0.00043424
9270.0 0.0004345
9290.0 0.00043487
9310.0 0.00043532
9330.0 0.00043582
9350.0 0.00043638
9370.0 0.00043696
9390.0 0.00043755
9410.0 0.00043818
9430.0 0.00043883
9450.0 0.00043948
9470.0 0.00044016
9490.0 0.00044086
9510.0 0.00044157
9530.0 0.0004423
9550.0 0.00044307
9570.0 0.00044385
9590.0 0.00044465
9610.0 0.00044547
9630.0 0.00044633
9650.0 0.0004472
9670.0 0.00044808
9690.0 0.00044899
9710.0 0.00044994
9730.0 0.00045088
9750.0 0.00045186
9770.0 0.00045288
9790.0 0.0004539
9810.0 0.00045493
9830.0 0.000456
9850.0 0.00045709
9870.0 0.00045818
9890.0 0.0004593
9910.0 0.00046045
9930.0 0.0004616
9950.0 0.00046247
9970.0 0.00046376
9990.0 0.00046505
10010.0 0.00046623
10030.0 0.00046748
10050.0 0.00046858
10070.0 0.00046879
10090.0 0.00047041
10110.0 0.00047199
10130.0 0.00047348
10150.0 0.00047492
10170.0 0.00047628
10190.0 0.00047757
10210.0 0.00047888
10230.0 0.00048019
10250.0 0.00048146
10270.0 0.00048272
10290.0 0.00048401
10310.0 0.00048526
10330.0 0.00048647
10350.0 0.00048772
10370.0 0.00048896
10390.0 0.00049015
10410.0 0.00049133
10430.0 0.00049254
10450.0 0.00049369
10470.0 0.00049481
10490.0 0.00049594
10510.0 0.00049705
10530.0 0.00049808
10550.0 0.00049911
10570.0 0.00050015
10590.0 0.00050113
10610.0 0.00050207
10630.0 0.00050301
10650.0 0.00050392
10670.0 0.00050475
10690.0 0.00050557
10710.0 0.00050638
10730.0 0.00050712
10750.0 0.00050779
10770.0 0.00050849
10790.0 0.00050913
10810.0 0.0005097
10830.0 0.00051022
10850.0 0.00051069
10870.0 0.00051094
10890.0 0.00051092
10910.0 0.00051051
10930.0 0.00050939
10950.0 0.00050709
10970.0 0.0005034
10990.0 0.00049821
11010.0 0.00050185
11030.0 0.00049142
11050.0 0.00047947
11070.0 0.0004658
11090.0 0.00045002
11110.0 0.00043437
11130.0 0.00041876
11150.0 0.00040279
11170.0 0.00038733
11190.0 0.00037337
11210.0 0.00036003
11230.0 0.00034752
11250.0 0.00033669
11270.0 0.00032726
11290.0 0.00031871
11310.0 0.00031138
11330.0 0.00030542
11350.0 0.00030008
11370.0 0.00029522
11390.0 0.00029085
11410.0 0.00028667
11430.0 0.00028217
11450.0 0.00027747
11470.0 0.00027254
11490.0 0.00026703
11510.0 0.00026083
11530.0 0.00025441
11550.0 0.00024765
11570.0 0.0002403
11590.0 0.0002328
11610.0 0.00022545
11630.0 0.00021786
11650.0 0.00021025
11670.0 0.00020322
11690.0 0.00019651
11710.0 0.00018996
11730.0 0.0001839
11750.0 0.00017846
11770.0 0.00017321
11790.0 0.00016828
11810.0 0.00016382
11830.0 0.00015962
11850.0 0.00015544
11870.0 0.00015152
11890.0 0.00014781
11910.0 0.00014402
11930.0 0.0001402
11950.0 0.00013647
11970.0 0.00013266
11990.0 0.00012865
12010.0 0.00012469
12030.0 0.00012078
12050.0 0.00011679
12070.0 0.0001128
12090.0 0.00010916
12110.0 0.00010567
12130.0 0.00010237
12150.0 9.9494e-05
12170.0 9.7083e-05
12190.0 9.5042e-05
12210.0 9.3583e-05
12230.0 9.2736e-05
12250.0 9.2473e-05
12270.0 9.2858e-05
12290.0 9.384e-05
12310.0 9.5324e-05
12330.0 9.7418e-05
12350.0 9.9984e-05
12370.0 0.00010281
12390.0 0.00010595
12410.0 0.00010947
12430.0 0.00011283
12450.0 0.00011611
12470.0 0.00011936
12490.0 0.00012237
12510.0 0.00012493
12530.0 0.00012724
12550.0 0.00012919
12570.0 0.00013063
12590.0 0.00013162
12610.0 0.00013222
12630.0 0.00013237
12650.0 0.00013209
12670.0 0.00013146
12690.0 0.00013047
12710.0 0.00012921
12730.0 0.0001277
12750.0 0.00012591
12770.0 0.00012394
12790.0 0.00012188
12810.0 0.00011965
12830.0 0.00011725
12850.0 0.00011485
12870.0 0.00011236
12890.0 0.00010971
12910.0 0.00010698
12930.0 0.00010422
12950.0 0.00010127
12970.0 9.814e-05
12990.0 9.5039e-05
13010.0 9.1848e-05
13030.0 8.8495e-05
13050.0 8.5156e-05
13070.0 8.194e-05
13090.0 7.8662e-05
13110.0 7.5469e-05
13130.0 7.2533e-05
13150.0 6.9797e-05
13170.0 6.7207e-05
13190.0 6.5001e-05
13210.0 6.3167e-05
13230.0 6.1618e-05
13250.0 6.0417e-05
13270.0 5.9585e-05
13290.0 5.9054e-05
13310.0 5.8818e-05
13330.0 5.8846e-05
13350.0 5.9076e-05
13370.0 5.9487e-05
13390.0 6.0034e-05
13410.0 6.0601e-05
13430.0 6.1203e-05
13450.0 6.1812e-05
13470.0 6.2352e-05
13490.0 6.2805e-05
13510.0 6.3212e-05
13530.0 6.3516e-05
13550.0 6.3715e-05
13570.0 6.3844e-05
13590.0 6.3915e-05
13610.0 6.3929e-05
13630.0 6.3908e-05
13650.0 6.3877e-05
13670.0 6.3839e-05
13690.0 6.3798e-05
13710.0 6.3765e-05
13730.0 6.3746e-05
13750.0 6.3719e-05
13770.0 6.3685e-05
13790.0 6.3639e-05
13810.0 6.3561e-05
13830.0 6.344e-05
13850.0 6.3268e-05
13870.0 6.3028e-05
13890.0 6.2719e-05
13910.0 6.2339e-05
13930.0 6.1875e-05
13950.0 6.1341e-05
13970.0 6.0777e-05
13990.0 6.016e-05
14010.0 5.9514e-05
14030.0 5.8883e-05
14050.0 5.8271e-05
14070.0 5.7664e-05
14090.0 5.7118e-05
14110.0 5.6638e-05
14130.0 5.621e-05
14150.0 5.584e-05
14170.0 5.5546e-05
14190.0 5.5312e-05
14210.0 5.5134e-05
14230.0 5.5019e-05
14250.0 5.4963e-05
14270.0 5.4972e-05
14290.0 5.5054e-05
14310.0 5.5196e-05
14330.0 5.5408e-05
14350.0 5.5704e-05
14370.0 5.6065e-05
14390.0 5.6473e-05
14410.0 5.6963e-05
14430.0 5.7512e-05
14450.0 5.8087e-05
14470.0 5.8705e-05
14490.0 5.9397e-05
14510.0 6.0104e-05
14530.0 6.0833e-05
14550.0 6.1645e-05
14570.0 6.2535e-05
14590.0 6.347e-05
14610.0 6.4526e-05
14630.0 6.5757e-05
14650.0 6.7092e-05
14670.0 6.8553e-05
14690.0 7.023e-05
14710.0 7.2104e-05
14730.0 7.4015e-05
14750.0 7.61e-05
14770.0 7.8354e-05
14790.0 8.0625e-05
14810.0 8.2877e-05
14830.0 8.5268e-05
14850.0 8.7563e-05
14870.0 8.967e-05
14890.0 9.1666e-05
14910.0 9.3514e-05
14930.0 9.5064e-05
14950.0 9.6333e-05
14970.0 9.7381e-05
14990.0 9.8133e-05
15010.0 9.8611e-05
15030.0 9.8877e-05
15050.0 9.8958e-05
15070.0 9.8897e-05
15090.0 9.8749e-05
15110.0 9.8538e-05
15130.0 9.8295e-05
15150.0 9.8047e-05
15170.0 9.7782e-05
15190.0 9.751e-05
15210.0 9.7248e-05
15230.0 9.699e-05
15250.0 9.6721e-05
15270.0 9.6456e-05
15290.0 9.6208e-05
15310.0 9.5951e-05
15330.0 9.5692e-05
15350.0 9.5445e-05
15370.0 9.52e-05
15390.0 9.4941e-05
15410.0 9.4692e-05
15430.0 9.4452e-05
15450.0 9.4205e-05
15470.0 9.3953e-05
15490.0 9.3717e-05
15510.0 9.348e-05
15530.0 9.3234e-05
15550.0 9.2995e-05
15570.0 9.2765e-05
15590.0 9.2522e-05
15610.0 9.2277e-05
15630.0 9.2047e-05
15650.0 9.1815e-05
15670.0 9.1574e-05
15690.0 9.134e-05
15710.0 9.1116e-05
15730.0 9.0879e-05
15750.0 9.0641e-05
15770.0 9.0414e-05
15790.0 9.0185e-05
15810.0 8.9942e-05
15830.0 8.9711e-05
15850.0 8.9488e-05
15870.0 8.9253e-05
15890.0 8.9018e-05
15910.0 8.8795e-05
15930.0 8.8565e-05
15950.0 8.8325e-05
15970.0 8.8094e-05
15990.0 8.7868e-05
16010.0 8.7632e-05
16030.0 8.7391e-05
16050.0 8.7168e-05
16070.0 8.6937e-05
16090.0 8.6698e-05
16110.0 8.6466e-05
16130.0 8.624e-05
16150.0 8.5995e-05
16170.0 8.5755e-05
16190.0 8.5525e-05
16210.0 8.5289e-05
16230.0 8.5044e-05
16250.0 8.4809e-05
16270.0 8.4578e-05
16290.0 8.4332e-05
16310.0 8.4089e-05
16330.0 8.3855e-05
16350.0 8.3613e-05
16370.0 8.3356e-05
16390.0 8.3117e-05
16410.0 8.2877e-05
16430.0 8.2626e-05
16450.0 8.2377e-05
16470.0 8.2139e-05
16490.0 8.1887e-05
16510.0 8.163e-05
16530.0 8.1382e-05
16550.0 8.1134e-05
16570.0 8.0872e-05
16590.0 8.0613e-05
16610.0 8.0367e-05
16630.0 8.0109e-05
16650.0 7.9846e-05
16670.0 7.9592e-05
16690.0 7.9337e-05
16710.0 7.9063e-05
16730.0 7.8799e-05
16750.0 7.8541e-05
16770.0 7.8273e-05
16790.0 7.7998e-05
16810.0 7.7737e-05
16830.0 7.7472e-05
16850.0 7.7195e-05
16870.0 7.6923e-05
16890.0 7.6658e-05
16910.0 7.6377e-05
16930.0 7.6092e-05
16950.0 7.5821e-05
16970.0 7.5545e-05
16990.0 7.5258e-05
17010.0 7.4978e-05
17030.0 7.4705e-05
17050.0 7.4416e-05
17070.0 7.4126e-05
17090.0 7.3845e-05
17110.0 7.3559e-05
17130.0 7.3258e-05
17150.0 7.2969e-05
17170.0 7.2685e-05
17190.0 7.2388e-05
17210.0 7.2091e-05
17230.0 7.1804e-05
17250.0 7.1507e-05
17270.0 7.12e-05
17290.0 7.0902e-05
17310.0 7.0607e-05
17330.0 7.03e-05
17350.0 6.999e-05
17370.0 6.9696e-05
17390.0 6.9392e-05
17410.0 6.9079e-05
17430.0 6.8775e-05
17450.0 6.8474e-05
17470.0 6.8153e-05
17490.0 6.7838e-05
17510.0 6.7533e-05
17530.0 6.722e-05
17550.0 6.6898e-05
17570.0 6.6587e-05
17590.0 6.6278e-05
17610.0 6.5954e-05
17630.0 6.5634e-05
17650.0 6.5322e-05
17670.0 6.5001e-05
17690.0 6.4666e-05
17710.0 6.4351e-05
17730.0 6.4033e-05
17750.0 6.3704e-05
17770.0 6.3378e-05
17790.0 6.3063e-05
17810.0 6.2732e-05
17830.0 6.2398e-05
17850.0 6.2074e-05
17870.0 6.1749e-05
17890.0 6.1411e-05
17910.0 6.1078e-05
17930.0 6.0757e-05
17950.0 6.0424e-05
17970.0 6.0087e-05
17990.0 5.976e-05
18010.0 5.9431e-05
18030.0 5.9086e-05
18050.0 5.8751e-05
18070.0 5.8422e-05
18090.0 5.8084e-05
18110.0 5.774e-05
18130.0 5.7412e-05
18150.0 5.7078e-05
18170.0 5.6734e-05
18190.0 5.6397e-05
18210.0 5.6067e-05
18230.0 5.5722e-05
18250.0 5.5374e-05
18270.0 5.5042e-05
18290.0 5.4705e-05
18310.0 5.4358e-05
18330.0 5.402e-05
18350.0 5.3688e-05
18370.0 5.3342e-05
18390.0 5.2997e-05
18410.0 5.2662e-05
18430.0 5.2322e-05
18450.0 5.1969e-05
18470.0 5.163e-05
18490.0 5.1296e-05
18510.0 5.0951e-05
18530.0 5.0606e-05
18550.0 5.0273e-05
18570.0 4.9931e-05
18590.0 4.958e-05
18610.0 4.9241e-05
18630.0 4.8904e-05
18650.0 4.8557e-05
18670.0 4.821e-05
18690.0 4.7878e-05
18710.0 4.7538e-05
18730.0 4.7191e-05
18750.0 4.6853e-05
18770.0 4.652e-05
18790.0 4.6168e-05
18810.0 4.5825e-05
18830.0 4.5491e-05
18850.0 4.5151e-05
18870.0 4.4804e-05
18890.0 4.447e-05
18910.0 4.4137e-05
18930.0 4.3792e-05
18950.0 4.3452e-05
18970.0 4.312e-05
18990.0 4.2781e-05
19010.0 4.2431e-05
19030.0 4.2101e-05
19050.0 4.1769e-05
19070.0 4.1427e-05
19090.0 4.1091e-05
19110.0 4.0765e-05
19130.0 4.0425e-05
19150.0 4.0084e-05
19170.0 3.9755e-05
19190.0 3.9424e-05
19210.0 3.9083e-05
19230.0 3.8748e-05
19250.0 3.8425e-05
19270.0 3.8091e-05
19290.0 3.7756e-05
19310.0 3.7432e-05
19330.0 3.7106e-05
19350.0 3.6765e-05
19370.0 3.6436e-05
19390.0 3.6114e-05
19410.0 3.5783e-05
19430.0 3.545e-05
19450.0 3.5131e-05
19470.0 3.4808e-05
19490.0 3.4477e-05
19510.0 3.4153e-05
19530.0 3.3836e-05
19550.0 3.3507e-05
19570.0 3.3176e-05
19590.0 3.2861e-05
19610.0 3.2542e-05
19630.0 3.2215e-05
19650.0 3.1898e-05
19670.0 3.1586e-05
19690.0 3.1261e-05
19710.0 3.094e-05
19730.0 3.0628e-05
19750.0 3.0312e-05
19770.0 2.9986e-05
19790.0 2.9673e-05
19810.0 2.9365e-05
19830.0 2.9046e-05
19850.0 2.8728e-05
19870.0 2.8417e-05
19890.0 2.8089e-05
19910.0 2.7738e-05
19930.0 2.7376e-05
19950.0 2.6982e-05
19970.0 2.6526e-05
19990.0 2.6011e-05
20010.0 2.546e-05
20030.0 2.4835e-05
20050.0 2.4151e-05
20070.0 2.346e-05
20090.0 2.2768e-05
20110.0 2.2048e-05
20130.0 2.1381e-05
20150.0 2.0778e-05
20170.0 2.021e-05
20190.0 1.9693e-05
20210.0 1.9253e-05
20230.0 1.8868e-05
20250.0 1.8526e-05
20270.0 1.8247e-05
20290.0 1.8024e-05
20310.0 1.7843e-05
20330.0 1.7707e-05
20350.0 1.762e-05
20370.0 1.7571e-05
20390.0 1.7561e-05
20410.0 1.7587e-05
20430.0 1.7646e-05
20450.0 1.7745e-05
20470.0 1.7882e-05
20490.0 1.8047e-05
20510.0 1.8248e-05
20530.0 1.8493e-05
20550.0 1.8764e-05
20570.0 1.9054e-05
20590.0 1.9383e-05
20610.0 1.9737e-05
20630.0 2.0095e-05
20650.0 2.0468e-05
20670.0 2.0868e-05
20690.0 2.125e-05
20710.0 2.1619e-05
20730.0 2.1991e-05
20750.0 2.235e-05
20770.0 2.2676e-05
20790.0 2.2993e-05
20810.0 2.3304e-05
20830.0 2.3593e-05
20850.0 2.3868e-05
20870.0 2.4153e-05
20890.0 2.4438e-05
20910.0 2.4713e-05
20930.0 2.5003e-05
20950.0 2.5311e-05
20970.0 2.5618e-05
20990.0 2.5928e-05
21010.0 2.6259e-05
21030.0 2.6584e-05
21050.0 2.6891e-05
21070.0 2.7189e-05
21090.0 2.7475e-05
21110.0 2.7717e-05
21130.0 2.7923e-05
21150.0 2.8098e-05
21170.0 2.8227e-05
21190.0 2.8308e-05
21210.0 2.8347e-05
21230.0 2.8339e-05
21250.0 2.8286e-05
21270.0 2.8191e-05
21290.0 2.8053e-05
21310.0 2.7876e-05
21330.0 2.7674e-05
21350.0 2.7435e-05
21370.0 2.7165e-05
21390.0 2.688e-05
21410.0 2.6578e-05
21430.0 2.6243e-05
21450.0 2.5906e-05
21470.0 2.5573e-05
21490.0 2.5229e-05
21510.0 2.4882e-05
21530.0 2.4556e-05
21550.0 2.4238e-05
21570.0 2.3924e-05
21590.0 2.3638e-05
21610.0 2.338e-05
21630.0 2.3143e-05
21650.0 2.2932e-05
21670.0 2.2769e-05
21690.0 2.2637e-05
21710.0 2.2542e-05
21730.0 2.2489e-05
21750.0 2.2476e-05
21770.0 2.2505e-05
21790.0 2.2578e-05
21810.0 2.2688e-05
21830.0 2.2837e-05
21850.0 2.3031e-05
21870.0 2.3256e-05
21890.0 2.3505e-05
21910.0 2.3794e-05
21930.0 2.4112e-05
21950.0 2.444e-05
21970.0 2.4793e-05
21990.0 2.5181e-05
22010.0 2.5563e-05
22030.0 2.5947e-05
22050.0 2.6348e-05
22070.0 2.6749e-05
22090.0 2.7127e-05
22110.0 2.7506e-05
22130.0 2.788e-05
22150.0 2.8224e-05
22170.0 2.8541e-05
22190.0 2.8844e-05
22210.0 2.9111e-05
22230.0 2.9329e-05
22250.0 2.9512e-05
22270.0 2.9653e-05
22290.0 2.9741e-05
22310.0 2.9779e-05
22330.0 2.9764e-05
22350.0 2.9691e-05
22370.0 2.9566e-05
22390.0 2.9381e-05
22410.0 2.9131e-05
22430.0 2.8837e-05
22450.0 2.8494e-05
22470.0 2.8088e-05
22490.0 2.7638e-05
22510.0 2.7163e-05
22530.0 2.6629e-05
22550.0 2.6049e-05
22570.0 2.5465e-05
22590.0 2.4858e-05
22610.0 2.4212e-05
22630.0 2.3561e-05
22650.0 2.293e-05
