#lamb flux
1010.0 5.9288e-09
1030.0 6.5573e-09
1050.0 7.2802e-09
1070.0 8.0939e-09
1090.0 9.0183e-09
1110.0 9.9663e-09
1130.0 1.092e-08
1150.0 1.192e-08
1170.0 1.2951e-08
1190.0 1.3929e-08
1210.0 1.4919e-08
1230.0 1.5943e-08
1250.0 1.6946e-08
1270.0 1.7921e-08
1290.0 1.895e-08
1310.0 1.9979e-08
1330.0 2.0965e-08
1350.0 2.1963e-08
1370.0 2.2993e-08
1390.0 2.3997e-08
1410.0 2.4971e-08
1430.0 2.599e-08
1450.0 2.7009e-08
1470.0 2.7993e-08
1490.0 2.8989e-08
1510.0 3.004e-08
1530.0 3.1036e-08
1550.0 3.2019e-08
1570.0 3.3036e-08
1590.0 3.4055e-08
1610.0 3.5028e-08
1630.0 3.6032e-08
1650.0 3.7062e-08
1670.0 3.806e-08
1690.0 3.9045e-08
1710.0 4.0069e-08
1730.0 4.11e-08
1750.0 4.207e-08
1770.0 4.3069e-08
1790.0 4.409e-08
1810.0 4.508e-08
1830.0 4.6053e-08
1850.0 4.7088e-08
1870.0 4.8098e-08
1890.0 4.9075e-08
1910.0 5.0074e-08
1930.0 5.1099e-08
1950.0 5.208e-08
1970.0 5.3051e-08
1990.0 5.4061e-08
2010.0 5.5057e-08
2030.0 5.6019e-08
2050.0 5.7013e-08
2070.0 5.8034e-08
2090.0 5.8999e-08
2110.0 5.9964e-08
2130.0 6.096e-08
2150.0 6.1939e-08
2170.0 6.2877e-08
2190.0 6.3852e-08
2210.0 6.4836e-08
2230.0 6.5781e-08
2250.0 6.6723e-08
2270.0 6.7709e-08
2290.0 6.8665e-08
2310.0 6.9585e-08
2330.0 7.0541e-08
2350.0 7.1524e-08
2370.0 7.2502e-08
2390.0 7.3561e-08
2410.0 7.4817e-08
2430.0 7.626e-08
2450.0 7.7986e-08
2470.0 8.0197e-08
2490.0 8.2984e-08
2510.0 8.6152e-08
2530.0 8.9965e-08
2550.0 9.4739e-08
2570.0 1.0068e-07
2590.0 1.084e-07
2610.0 1.1997e-07
2630.0 1.3648e-07
2650.0 1.5807e-07
2670.0 1.8598e-07
2690.0 2.2028e-07
2710.0 2.5689e-07
2730.0 2.9307e-07
2750.0 3.2871e-07
2770.0 3.5971e-07
2790.0 3.8432e-07
2810.0 4.0385e-07
2830.0 4.1911e-07
2850.0 4.2953e-07
2870.0 4.3718e-07
2890.0 4.4323e-07
2910.0 4.4806e-07
2930.0 4.5201e-07
2950.0 4.5578e-07
2970.0 4.5947e-07
2990.0 4.6292e-07
3010.0 1.3085e-05
3030.0 1.3183e-05
3050.0 1.3277e-05
3070.0 1.3358e-05
3090.0 1.3428e-05
3110.0 1.3471e-05
3130.0 1.3469e-05
3150.0 1.3409e-05
3170.0 1.3266e-05
3190.0 1.304e-05
3210.0 1.2754e-05
3230.0 1.2427e-05
3250.0 1.2104e-05
3270.0 1.1867e-05
3290.0 1.1736e-05
3310.0 1.1758e-05
3330.0 1.1928e-05
3350.0 1.2224e-05
3370.0 1.2647e-05
3390.0 1.318e-05
3410.0 1.3761e-05
3430.0 1.4412e-05
3450.0 1.5162e-05
3470.0 1.5981e-05
3490.0 1.6849e-05
3510.0 1.783e-05
3530.0 1.8881e-05
3550.0 1.9944e-05
3570.0 2.1054e-05
3590.0 2.2261e-05
3610.0 2.3504e-05
3630.0 2.4744e-05
3650.0 2.603e-05
3670.0 2.7204e-05
3690.0 2.8081e-05
3710.0 2.8585e-05
3730.0 2.8601e-05
3750.0 2.8203e-05
3770.0 2.8047e-05
3790.0 2.788e-05
3810.0 2.7195e-05
3830.0 2.8037e-05
3850.0 3.1348e-05
3870.0 3.3166e-05
3890.0 3.3015e-05
3910.0 3.3155e-05
3930.0 3.4028e-05
3950.0 3.4566e-05
3970.0 3.1492e-05
3990.0 2.7098e-05
4010.0 8.1216e-05
4030.0 9.8405e-05
4050.0 0.00011281
4070.0 9.7886e-05
4090.0 8.8655e-05
4110.0 7.8229e-05
4130.0 7.2002e-05
4150.0 7.6588e-05
4170.0 7.5443e-05
4190.0 8.0417e-05
4210.0 7.9681e-05
4230.0 8.4281e-05
4250.0 9.9707e-05
4270.0 0.00010088
4290.0 9.2959e-05
4310.0 9.6591e-05
4330.0 0.00010274
4350.0 0.0001152
4370.0 0.0001311
4390.0 0.00012302
4410.0 9.0894e-05
4430.0 7.6947e-05
4450.0 7.0706e-05
4470.0 5.4269e-05
4490.0 5.8563e-05
4510.0 8.8461e-05
4530.0 0.00010202
4550.0 0.00010291
4570.0 0.0001158
4590.0 0.0001319
4610.0 0.00017791
4630.0 0.00023106
4650.0 0.00025058
4670.0 0.00023206
4690.0 0.00022143
4710.0 0.00023407
4730.0 0.00022089
4750.0 0.00016515
4770.0 0.00012114
4790.0 0.00011312
4810.0 0.00010782
4830.0 9.8711e-05
4850.0 0.00010832
4870.0 0.0001431
4890.0 0.00016876
4910.0 0.00014806
4930.0 0.00013101
4950.0 0.00014394
4970.0 0.00018459
4990.0 0.00025016
5010.0 0.00028778
5030.0 0.00025376
5050.0 0.00017168
5070.0 0.00011315
5090.0 9.1235e-05
5110.0 9.3827e-05
5130.0 0.00010829
5150.0 0.00011732
5170.0 0.00011556
5190.0 0.00010799
5210.0 0.00011287
5230.0 0.00011865
5250.0 0.00012788
5270.0 0.00013797
5290.0 0.0001529
5310.0 0.00017797
5330.0 0.00019695
5350.0 0.00019569
5370.0 0.00020556
5390.0 0.00023588
5410.0 0.00023567
5430.0 0.00020842
5450.0 0.00019149
5470.0 0.00020333
5490.0 0.00024841
5510.0 0.0003106
5530.0 0.00035624
5550.0 0.00034431
5570.0 0.00031301
5590.0 0.00027216
5610.0 0.000251
5630.0 0.00024339
5650.0 0.00023181
5670.0 0.00021965
5690.0 0.00019637
5710.0 0.00019147
5730.0 0.00017637
5750.0 0.00012435
5770.0 9.7015e-05
5790.0 0.00010994
5810.0 0.00012414
5830.0 0.00015234
5850.0 0.00018134
5870.0 0.0002012
5890.0 0.00020461
5910.0 0.00020074
5930.0 0.00019108
5950.0 0.00019471
5970.0 0.00022195
5990.0 0.00020869
6010.0 0.00017494
6030.0 0.0001478
6050.0 0.00012872
6070.0 0.00012801
6090.0 0.00013881
6110.0 0.00015521
6130.0 0.00015759
6150.0 0.00013559
6170.0 0.00011928
6190.0 0.00013423
6210.0 0.00017745
6230.0 0.00023287
6250.0 0.00025223
6270.0 0.00022041
6290.0 0.00018544
6310.0 0.00014477
6330.0 0.00011092
6350.0 9.894e-05
6370.0 0.00010405
6390.0 0.00012028
6410.0 0.00014831
6430.0 0.00017319
6450.0 0.00019817
6470.0 0.00022691
6490.0 0.0002741
6510.0 0.00030648
6530.0 0.00030067
6550.0 0.00027189
6570.0 0.00023081
6590.0 0.00020813
6610.0 0.00017946
6630.0 0.00016258
6650.0 0.00015369
6670.0 0.0001493
6690.0 0.0001349
6710.0 0.00012263
6730.0 8.8328e-05
6750.0 8.7568e-05
6770.0 9.5181e-05
6790.0 0.0001094
6810.0 0.00010011
6830.0 0.00010308
6850.0 9.6414e-05
6870.0 8.8074e-05
6890.0 8.4565e-05
6910.0 9.0114e-05
6930.0 8.4405e-05
6950.0 8.6839e-05
6970.0 9.1338e-05
6990.0 0.00010368
7010.0 0.00010456
7030.0 0.00010622
7050.0 0.0001013
7070.0 9.6519e-05
7090.0 9.6802e-05
7110.0 9.9602e-05
7130.0 0.00010719
7150.0 0.00011384
7170.0 0.00012562
7190.0 0.00013809
7210.0 0.00013569
7230.0 0.00013949
7250.0 0.0001499
7270.0 0.00016336
7290.0 0.00019389
7310.0 0.00021039
7330.0 0.00020336
7350.0 0.00018393
7370.0 0.00016003
7390.0 0.00015525
7410.0 0.00016498
7430.0 0.00018336
7450.0 0.00019971
7470.0 0.00019788
7490.0 0.00018043
7510.0 0.00020438
7530.0 0.00020214
7550.0 0.00018169
7570.0 0.00014193
7590.0 9.7573e-05
7610.0 8.3747e-05
7630.0 9.5152e-05
7650.0 0.0001125
7670.0 0.00014002
7690.0 0.00015408
7710.0 0.00016057
7730.0 0.00016874
7750.0 0.00018943
7770.0 0.00019241
7790.0 0.00017674
7810.0 0.00016126
7830.0 0.0001663
7850.0 0.00016165
7870.0 0.00014821
7890.0 0.00012453
7910.0 0.00010122
7930.0 9.6652e-05
7950.0 8.8053e-05
7970.0 8.1508e-05
7990.0 8.1043e-05
8010.0 6.0023e-06
8030.0 5.9242e-06
8050.0 5.8444e-06
8070.0 5.9209e-06
8090.0 6.3618e-06
8110.0 6.2534e-06
8130.0 5.1583e-06
8150.0 5.0236e-06
8170.0 4.3271e-06
8190.0 4.1008e-06
8210.0 5.3253e-06
8230.0 5.9291e-06
8250.0 5.3438e-06
8270.0 4.651e-06
8290.0 4.5339e-06
8310.0 3.4895e-06
8330.0 2.3519e-06
8350.0 1.6691e-06
8370.0 1.0516e-06
8390.0 1.9223e-06
8410.0 2.24e-06
8430.0 2.7612e-06
8450.0 3.2424e-06
8470.0 4.0301e-06
8490.0 4.0017e-06
8510.0 3.9362e-06
8530.0 4.108e-06
8550.0 5.5425e-06
8570.0 6.5615e-06
8590.0 7.0798e-06
8610.0 8.9433e-06
8630.0 1.0774e-05
8650.0 1.127e-05
8670.0 1.1977e-05
8690.0 1.2044e-05
8710.0 1.0907e-05
8730.0 1.0146e-05
8750.0 8.9555e-06
8770.0 8.4974e-06
8790.0 8.3482e-06
8810.0 7.9994e-06
8830.0 6.3968e-06
8850.0 4.6829e-06
8870.0 3.5856e-06
8890.0 3.5055e-06
8910.0 4.0174e-06
8930.0 4.5695e-06
8950.0 4.657e-06
8970.0 4.679e-06
8990.0 4.1731e-06
9010.0 4.3732e-05
9030.0 3.9627e-05
9050.0 3.9818e-05
9070.0 4.0132e-05
9090.0 4.0408e-05
9110.0 4.0748e-05
9130.0 4.1011e-05
9150.0 4.1215e-05
9170.0 4.1433e-05
9190.0 4.1665e-05
9210.0 4.191e-05
9230.0 4.2168e-05
9250.0 4.2431e-05
9270.0 4.2703e-05
9290.0 4.2983e-05
9310.0 4.3265e-05
9330.0 4.3553e-05
9350.0 4.3852e-05
9370.0 4.4154e-05
9390.0 4.4459e-05
9410.0 4.4773e-05
9430.0 4.5096e-05
9450.0 4.5418e-05
9470.0 4.5747e-05
9490.0 4.6085e-05
9510.0 4.6427e-05
9530.0 4.6771e-05
9550.0 4.7127e-05
9570.0 4.7489e-05
9590.0 4.7852e-05
9610.0 4.8222e-05
9630.0 4.8601e-05
9650.0 4.8983e-05
9670.0 4.9366e-05
9690.0 4.976e-05
9710.0 5.0159e-05
9730.0 5.056e-05
9750.0 5.0966e-05
9770.0 5.1385e-05
9790.0 5.1802e-05
9810.0 5.2222e-05
9830.0 5.2651e-05
9850.0 5.3085e-05
9870.0 5.3518e-05
9890.0 5.3958e-05
9910.0 5.4405e-05
9930.0 5.4854e-05
9950.0 5.5303e-05
9970.0 5.5762e-05
9990.0 5.6226e-05
10010.0 4.8789e-05
10030.0 4.919e-05
10050.0 4.9598e-05
10070.0 5.0021e-05
10090.0 5.0419e-05
10110.0 5.0828e-05
10130.0 5.1238e-05
10150.0 5.1646e-05
10170.0 5.206e-05
10190.0 5.248e-05
10210.0 5.2896e-05
10230.0 5.3311e-05
10250.0 5.3732e-05
10270.0 5.4153e-05
10290.0 5.4568e-05
10310.0 5.4989e-05
10330.0 5.5414e-05
10350.0 5.5832e-05
10370.0 5.6249e-05
10390.0 5.667e-05
10410.0 5.7089e-05
10430.0 5.75e-05
10450.0 5.7915e-05
10470.0 5.8332e-05
10490.0 5.8741e-05
10510.0 5.9147e-05
10530.0 5.956e-05
10550.0 5.9967e-05
10570.0 6.0365e-05
10590.0 6.0764e-05
10610.0 6.1164e-05
10630.0 6.1553e-05
10650.0 6.194e-05
10670.0 6.2331e-05
10690.0 6.2714e-05
10710.0 6.3088e-05
10730.0 6.3464e-05
10750.0 6.384e-05
10770.0 6.4201e-05
10790.0 6.4558e-05
10810.0 6.4916e-05
10830.0 6.5262e-05
10850.0 6.5591e-05
10870.0 6.5909e-05
10890.0 6.619e-05
10910.0 6.6406e-05
10930.0 6.6528e-05
10950.0 6.6499e-05
10970.0 6.6274e-05
10990.0 6.5832e-05
11010.0 6.5092e-05
11030.0 6.4057e-05
11050.0 6.2795e-05
11070.0 6.1286e-05
11090.0 5.9473e-05
11110.0 5.7597e-05
11130.0 5.5641e-05
11150.0 5.3534e-05
11170.0 5.1363e-05
11190.0 4.9256e-05
11210.0 4.7081e-05
11230.0 4.4851e-05
11250.0 4.272e-05
11270.0 4.0673e-05
11290.0 3.8623e-05
11310.0 3.668e-05
11330.0 3.497e-05
11350.0 3.3354e-05
11370.0 3.186e-05
11390.0 3.0568e-05
11410.0 2.9438e-05
11430.0 2.8388e-05
11450.0 2.7483e-05
11470.0 2.6701e-05
11490.0 2.5973e-05
11510.0 2.5271e-05
11530.0 2.462e-05
11550.0 2.3974e-05
11570.0 2.3284e-05
11590.0 2.2569e-05
11610.0 2.1842e-05
11630.0 2.105e-05
11650.0 2.0203e-05
11670.0 1.9368e-05
11690.0 1.8521e-05
11710.0 1.7647e-05
11730.0 1.6801e-05
11750.0 1.6017e-05
11770.0 1.5249e-05
11790.0 1.4529e-05
11810.0 1.3895e-05
11830.0 1.3328e-05
11850.0 1.2806e-05
11870.0 1.2369e-05
11890.0 1.2006e-05
11910.0 1.1687e-05
11930.0 1.1412e-05
11950.0 1.1184e-05
11970.0 1.098e-05
11990.0 1.0787e-05
12010.0 1.0609e-05
12030.0 1.0437e-05
12050.0 1.0259e-05
12070.0 1.0074e-05
12090.0 9.8958e-06
12110.0 9.7149e-06
12130.0 9.5335e-06
12150.0 9.3664e-06
12170.0 9.2205e-06
12190.0 9.0943e-06
12210.0 9.0062e-06
12230.0 8.9637e-06
12250.0 8.9705e-06
12270.0 9.0382e-06
12290.0 9.166e-06
12310.0 9.3494e-06
12330.0 9.6061e-06
12350.0 9.9263e-06
12370.0 1.0291e-05
12390.0 1.0711e-05
12410.0 1.1204e-05
12430.0 1.1705e-05
12450.0 1.2223e-05
12470.0 1.2775e-05
12490.0 1.3328e-05
12510.0 1.3848e-05
12530.0 1.4365e-05
12550.0 1.4863e-05
12570.0 1.5303e-05
12590.0 1.569e-05
12610.0 1.6034e-05
12630.0 1.6308e-05
12650.0 1.6498e-05
12670.0 1.6622e-05
12690.0 1.6672e-05
12710.0 1.6645e-05
12730.0 1.6548e-05
12750.0 1.6376e-05
12770.0 1.614e-05
12790.0 1.5853e-05
12810.0 1.5511e-05
12830.0 1.5115e-05
12850.0 1.4702e-05
12870.0 1.4264e-05
12890.0 1.379e-05
12910.0 1.3309e-05
12930.0 1.2835e-05
12950.0 1.234e-05
12970.0 1.1836e-05
12990.0 1.1359e-05
13010.0 1.0888e-05
13030.0 1.0412e-05
13050.0 9.9547e-06
13070.0 9.5264e-06
13090.0 9.0965e-06
13110.0 8.6806e-06
13130.0 8.2972e-06
13150.0 7.9341e-06
13170.0 7.5786e-06
13190.0 7.2623e-06
13210.0 6.9838e-06
13230.0 6.7293e-06
13250.0 6.5101e-06
13270.0 6.3372e-06
13290.0 6.2027e-06
13310.0 6.1102e-06
13330.0 6.068e-06
13350.0 6.0729e-06
13370.0 6.1273e-06
13390.0 6.2343e-06
13410.0 6.3789e-06
13430.0 6.5669e-06
13450.0 6.7991e-06
13470.0 7.0569e-06
13490.0 7.3299e-06
13510.0 7.6378e-06
13530.0 7.9499e-06
13550.0 8.2487e-06
13570.0 8.5433e-06
13590.0 8.8304e-06
13610.0 9.0858e-06
13630.0 9.3087e-06
13650.0 9.5123e-06
13670.0 9.6813e-06
13690.0 9.812e-06
13710.0 9.913e-06
13730.0 9.9852e-06
13750.0 1.0021e-05
13770.0 1.003e-05
13790.0 1.0011e-05
13810.0 9.9671e-06
13830.0 9.9018e-06
13850.0 9.8133e-06
13870.0 9.7017e-06
13890.0 9.5741e-06
13910.0 9.4303e-06
13930.0 9.2639e-06
13950.0 9.0821e-06
13970.0 8.8963e-06
13990.0 8.6939e-06
14010.0 8.4787e-06
14030.0 8.2641e-06
14050.0 8.0478e-06
14070.0 7.8194e-06
14090.0 7.6005e-06
14110.0 7.3949e-06
14130.0 7.1955e-06
14150.0 7.0079e-06
14170.0 6.8478e-06
14190.0 6.7093e-06
14210.0 6.5918e-06
14230.0 6.5049e-06
14250.0 6.4486e-06
14270.0 6.4214e-06
14290.0 6.4272e-06
14310.0 6.463e-06
14330.0 6.5273e-06
14350.0 6.622e-06
14370.0 6.7399e-06
14390.0 6.8739e-06
14410.0 7.0317e-06
14430.0 7.2049e-06
14450.0 7.3818e-06
14470.0 7.5654e-06
14490.0 7.7606e-06
14510.0 7.9473e-06
14530.0 8.1245e-06
14550.0 8.3018e-06
14570.0 8.4719e-06
14590.0 8.6268e-06
14610.0 8.7766e-06
14630.0 8.9248e-06
14650.0 9.0629e-06
14670.0 9.1962e-06
14690.0 9.3352e-06
14710.0 9.4814e-06
14730.0 9.6275e-06
14750.0 9.7894e-06
14770.0 9.9731e-06
14790.0 1.0172e-05
14810.0 1.0388e-05
14830.0 1.0644e-05
14850.0 1.0921e-05
14870.0 1.1211e-05
14890.0 1.1524e-05
14910.0 1.1856e-05
14930.0 1.2176e-05
14950.0 1.2474e-05
14970.0 1.2756e-05
14990.0 1.2993e-05
15010.0 1.3175e-05
15030.0 1.3309e-05
15050.0 1.3398e-05
15070.0 1.3441e-05
15090.0 1.3456e-05
15110.0 1.3452e-05
15130.0 1.3435e-05
15150.0 1.3412e-05
15170.0 1.3385e-05
15190.0 1.3356e-05
15210.0 1.3328e-05
15230.0 1.33e-05
15250.0 1.327e-05
15270.0 1.3241e-05
15290.0 1.3214e-05
15310.0 1.3185e-05
15330.0 1.3157e-05
15350.0 1.3129e-05
15370.0 1.3102e-05
15390.0 1.3074e-05
15410.0 1.3046e-05
15430.0 1.3019e-05
15450.0 1.2992e-05
15470.0 1.2964e-05
15490.0 1.2938e-05
15510.0 1.2911e-05
15530.0 1.2884e-05
15550.0 1.2857e-05
15570.0 1.2832e-05
15590.0 1.2805e-05
15610.0 1.2777e-05
15630.0 1.2752e-05
15650.0 1.2726e-05
15670.0 1.2699e-05
15690.0 1.2673e-05
15710.0 1.2648e-05
15730.0 1.2622e-05
15750.0 1.2596e-05
15770.0 1.2571e-05
15790.0 1.2545e-05
15810.0 1.2519e-05
15830.0 1.2493e-05
15850.0 1.2469e-05
15870.0 1.2443e-05
15890.0 1.2417e-05
15910.0 1.2393e-05
15930.0 1.2368e-05
15950.0 1.2341e-05
15970.0 1.2316e-05
15990.0 1.2292e-05
16010.0 1.2266e-05
16030.0 1.224e-05
16050.0 1.2216e-05
16070.0 1.2191e-05
16090.0 1.2166e-05
16110.0 1.2141e-05
16130.0 1.2117e-05
16150.0 1.2091e-05
16170.0 1.2065e-05
16190.0 1.2041e-05
16210.0 1.2016e-05
16230.0 1.199e-05
16250.0 1.1966e-05
16270.0 1.1941e-05
16290.0 1.1916e-05
16310.0 1.1891e-05
16330.0 1.1866e-05
16350.0 1.1841e-05
16370.0 1.1815e-05
16390.0 1.179e-05
16410.0 1.1766e-05
16430.0 1.174e-05
16450.0 1.1715e-05
16470.0 1.1691e-05
16490.0 1.1665e-05
16510.0 1.1639e-05
16530.0 1.1614e-05
16550.0 1.1589e-05
16570.0 1.1563e-05
16590.0 1.1537e-05
16610.0 1.1513e-05
16630.0 1.1487e-05
16650.0 1.1461e-05
16670.0 1.1436e-05
16690.0 1.1411e-05
16710.0 1.1384e-05
16730.0 1.1358e-05
16750.0 1.1333e-05
16770.0 1.1307e-05
16790.0 1.128e-05
16810.0 1.1255e-05
16830.0 1.123e-05
16850.0 1.1203e-05
16870.0 1.1177e-05
16890.0 1.1151e-05
16910.0 1.1125e-05
16930.0 1.1097e-05
16950.0 1.1072e-05
16970.0 1.1046e-05
16990.0 1.1018e-05
17010.0 1.0992e-05
17030.0 1.0966e-05
17050.0 1.0939e-05
17070.0 1.0912e-05
17090.0 1.0885e-05
17110.0 1.0859e-05
17130.0 1.0831e-05
17150.0 1.0804e-05
17170.0 1.0777e-05
17190.0 1.075e-05
17210.0 1.0722e-05
17230.0 1.0696e-05
17250.0 1.0669e-05
17270.0 1.064e-05
17290.0 1.0613e-05
17310.0 1.0586e-05
17330.0 1.0558e-05
17350.0 1.0529e-05
17370.0 1.0502e-05
17390.0 1.0475e-05
17410.0 1.0446e-05
17430.0 1.0418e-05
17450.0 1.0391e-05
17470.0 1.0362e-05
17490.0 1.0333e-05
17510.0 1.0306e-05
17530.0 1.0277e-05
17550.0 1.0248e-05
17570.0 1.022e-05
17590.0 1.0192e-05
17610.0 1.0163e-05
17630.0 1.0134e-05
17650.0 1.0106e-05
17670.0 1.0077e-05
17690.0 1.0047e-05
17710.0 1.0018e-05
17730.0 9.9899e-06
17750.0 9.9603e-06
17770.0 9.931e-06
17790.0 9.9028e-06
17810.0 9.8731e-06
17830.0 9.8431e-06
17850.0 9.8141e-06
17870.0 9.785e-06
17890.0 9.7547e-06
17910.0 9.7248e-06
17930.0 9.6961e-06
17950.0 9.6663e-06
17970.0 9.6361e-06
17990.0 9.6069e-06
18010.0 9.5775e-06
18030.0 9.5465e-06
18050.0 9.5165e-06
18070.0 9.4872e-06
18090.0 9.4568e-06
18110.0 9.426e-06
18130.0 9.3967e-06
18150.0 9.3668e-06
18170.0 9.336e-06
18190.0 9.3058e-06
18210.0 9.2762e-06
18230.0 9.2452e-06
18250.0 9.214e-06
18270.0 9.1842e-06
18290.0 9.154e-06
18310.0 9.1228e-06
18330.0 9.0924e-06
18350.0 9.0627e-06
18370.0 9.0314e-06
18390.0 9.0004e-06
18410.0 8.9702e-06
18430.0 8.9396e-06
18450.0 8.9077e-06
18470.0 8.8771e-06
18490.0 8.847e-06
18510.0 8.8158e-06
18530.0 8.7846e-06
18550.0 8.7545e-06
18570.0 8.7235e-06
18590.0 8.6916e-06
18610.0 8.6609e-06
18630.0 8.6304e-06
18650.0 8.5987e-06
18670.0 8.5671e-06
18690.0 8.537e-06
18710.0 8.5059e-06
18730.0 8.4742e-06
18750.0 8.4434e-06
18770.0 8.413e-06
18790.0 8.3807e-06
18810.0 8.3492e-06
18830.0 8.3187e-06
18850.0 8.2874e-06
18870.0 8.2555e-06
18890.0 8.2247e-06
18910.0 8.1941e-06
18930.0 8.1622e-06
18950.0 8.1307e-06
18970.0 8.1001e-06
18990.0 8.0687e-06
19010.0 8.0361e-06
19030.0 8.0055e-06
19050.0 7.9746e-06
19070.0 7.9428e-06
19090.0 7.9114e-06
19110.0 7.8811e-06
19130.0 7.8493e-06
19150.0 7.8173e-06
19170.0 7.7864e-06
19190.0 7.7554e-06
19210.0 7.7233e-06
19230.0 7.6917e-06
19250.0 7.6613e-06
19270.0 7.6298e-06
19290.0 7.598e-06
19310.0 7.5674e-06
19330.0 7.5364e-06
19350.0 7.504e-06
19370.0 7.4727e-06
19390.0 7.442e-06
19410.0 7.4104e-06
19430.0 7.3785e-06
19450.0 7.3481e-06
19470.0 7.3171e-06
19490.0 7.2852e-06
19510.0 7.2541e-06
19530.0 7.2236e-06
19550.0 7.1917e-06
19570.0 7.1597e-06
19590.0 7.1293e-06
19610.0 7.0982e-06
19630.0 7.0665e-06
19650.0 7.0356e-06
19670.0 7.0053e-06
19690.0 6.9735e-06
19710.0 6.942e-06
19730.0 6.9115e-06
19750.0 6.8805e-06
19770.0 6.8483e-06
19790.0 6.8176e-06
19810.0 6.7872e-06
19830.0 6.7556e-06
19850.0 6.7239e-06
19870.0 6.6927e-06
19890.0 6.6593e-06
19910.0 6.6226e-06
19930.0 6.5833e-06
19950.0 6.5383e-06
19970.0 6.483e-06
19990.0 6.4164e-06
20010.0 5.7086e-06
20030.0 5.626e-06
20050.0 5.5293e-06
20070.0 5.4245e-06
20090.0 5.3118e-06
20110.0 5.1843e-06
20130.0 5.0553e-06
20150.0 4.9274e-06
20170.0 4.7948e-06
20190.0 4.6603e-06
20210.0 4.5332e-06
20230.0 4.4093e-06
20250.0 4.2851e-06
20270.0 4.1699e-06
20290.0 4.0647e-06
20310.0 3.9647e-06
20330.0 3.8712e-06
20350.0 3.7937e-06
20370.0 3.7248e-06
20390.0 3.6644e-06
20410.0 3.6157e-06
20430.0 3.5781e-06
20450.0 3.5483e-06
20470.0 3.5283e-06
20490.0 3.5176e-06
20510.0 3.5145e-06
20530.0 3.5189e-06
20550.0 3.5297e-06
20570.0 3.5455e-06
20590.0 3.5669e-06
20610.0 3.5929e-06
20630.0 3.6214e-06
20650.0 3.6533e-06
20670.0 3.6898e-06
20690.0 3.727e-06
20710.0 3.7655e-06
20730.0 3.807e-06
20750.0 3.8503e-06
20770.0 3.8929e-06
20790.0 3.9377e-06
20810.0 3.985e-06
20830.0 4.0321e-06
20850.0 4.0794e-06
20870.0 4.1301e-06
20890.0 4.1817e-06
20910.0 4.2315e-06
20930.0 4.2832e-06
20950.0 4.3368e-06
20970.0 4.389e-06
20990.0 4.4405e-06
21010.0 4.4947e-06
21030.0 4.5477e-06
21050.0 4.5982e-06
21070.0 4.6487e-06
21090.0 4.6993e-06
21110.0 4.7455e-06
21130.0 4.7888e-06
21150.0 4.8308e-06
21170.0 4.8689e-06
21190.0 4.9016e-06
21210.0 4.9311e-06
21230.0 4.9555e-06
21250.0 4.973e-06
21270.0 4.9841e-06
21290.0 4.9882e-06
21310.0 4.9842e-06
21330.0 4.9725e-06
21350.0 4.9518e-06
21370.0 4.9215e-06
21390.0 4.883e-06
21410.0 4.8358e-06
21430.0 4.776e-06
21450.0 4.7089e-06
21470.0 4.6359e-06
21490.0 4.5532e-06
21510.0 4.4626e-06
21530.0 4.3705e-06
21550.0 4.274e-06
21570.0 4.1711e-06
21590.0 4.0699e-06
21610.0 3.9722e-06
21630.0 3.8743e-06
21650.0 3.7786e-06
21670.0 3.6957e-06
21690.0 3.6193e-06
21710.0 3.5504e-06
21730.0 3.494e-06
21750.0 3.4505e-06
21770.0 3.4174e-06
21790.0 3.3983e-06
21810.0 3.393e-06
21830.0 3.4006e-06
21850.0 3.4218e-06
21870.0 3.455e-06
21890.0 3.4978e-06
21910.0 3.5527e-06
21930.0 3.6171e-06
21950.0 3.6869e-06
21970.0 3.7642e-06
21990.0 3.851e-06
22010.0 3.9377e-06
22030.0 4.0258e-06
22050.0 4.1183e-06
22070.0 4.2113e-06
22090.0 4.2994e-06
22110.0 4.3882e-06
22130.0 4.4768e-06
22150.0 4.5596e-06
22170.0 4.6376e-06
22190.0 4.715e-06
22210.0 4.787e-06
22230.0 4.8503e-06
22250.0 4.9099e-06
22270.0 4.9648e-06
22290.0 5.0118e-06
22310.0 5.0521e-06
22330.0 5.0876e-06
22350.0 5.115e-06
22370.0 5.1343e-06
22390.0 5.1464e-06
22410.0 5.1503e-06
22430.0 5.1453e-06
22450.0 5.1321e-06
22470.0 5.1092e-06
22490.0 5.077e-06
22510.0 5.0369e-06
22530.0 4.9856e-06
22550.0 4.9232e-06
22570.0 4.854e-06
22590.0 4.7759e-06
22610.0 4.6861e-06
22630.0 4.5889e-06
