#lamb flux
1010.0 1.0563e-10
1030.0 1.3286e-10
1050.0 1.6417e-10
1070.0 1.9942e-10
1090.0 2.3946e-10
1110.0 2.8053e-10
1130.0 3.2186e-10
1150.0 3.6516e-10
1170.0 4.0982e-10
1190.0 4.5217e-10
1210.0 4.9509e-10
1230.0 5.3945e-10
1250.0 5.829e-10
1270.0 6.2511e-10
1290.0 6.697e-10
1310.0 7.1426e-10
1330.0 7.57e-10
1350.0 8.0022e-10
1370.0 8.4484e-10
1390.0 8.8834e-10
1410.0 9.3056e-10
1430.0 9.7469e-10
1450.0 1.0188e-09
1470.0 1.0615e-09
1490.0 1.1046e-09
1510.0 1.1502e-09
1530.0 1.1933e-09
1550.0 1.2359e-09
1570.0 1.28e-09
1590.0 1.3241e-09
1610.0 1.3663e-09
1630.0 1.4099e-09
1650.0 1.4546e-09
1670.0 1.4978e-09
1690.0 1.5406e-09
1710.0 1.585e-09
1730.0 1.6297e-09
1750.0 1.6718e-09
1770.0 1.7153e-09
1790.0 1.7596e-09
1810.0 1.8026e-09
1830.0 1.845e-09
1850.0 1.8901e-09
1870.0 1.9341e-09
1890.0 1.9767e-09
1910.0 2.0203e-09
1930.0 2.0651e-09
1950.0 2.1081e-09
1970.0 2.1507e-09
1990.0 2.195e-09
2010.0 2.2388e-09
2030.0 2.2813e-09
2050.0 2.3252e-09
2070.0 2.3704e-09
2090.0 2.4133e-09
2110.0 2.4564e-09
2130.0 2.5009e-09
2150.0 2.5448e-09
2170.0 2.5872e-09
2190.0 2.6314e-09
2210.0 2.6762e-09
2230.0 2.7195e-09
2250.0 2.763e-09
2270.0 2.8087e-09
2290.0 2.8534e-09
2310.0 2.8967e-09
2330.0 2.9416e-09
2350.0 2.9872e-09
2370.0 3.0313e-09
2390.0 3.076e-09
2410.0 3.123e-09
2430.0 3.1694e-09
2450.0 3.2167e-09
2470.0 3.2691e-09
2490.0 3.3301e-09
2510.0 3.4005e-09
2530.0 3.4917e-09
2550.0 3.6179e-09
2570.0 3.7877e-09
2590.0 4.0122e-09
2610.0 4.3332e-09
2630.0 4.7588e-09
2650.0 5.2793e-09
2670.0 5.9221e-09
2690.0 6.7004e-09
2710.0 7.5534e-09
2730.0 8.4507e-09
2750.0 9.4216e-09
2770.0 1.0385e-08
2790.0 1.1282e-08
2810.0 1.2124e-08
2830.0 1.2912e-08
2850.0 1.3575e-08
2870.0 1.4161e-08
2890.0 1.4707e-08
2910.0 1.5217e-08
2930.0 1.5701e-08
2950.0 1.6199e-08
2970.0 1.6716e-08
2990.0 1.7244e-08
3010.0 1.7793e-08
3030.0 1.8381e-08
3050.0 1.8996e-08
3070.0 1.9622e-08
3090.0 2.0285e-08
3110.0 2.099e-08
3130.0 2.1747e-08
3150.0 2.2608e-08
3170.0 2.3706e-08
3190.0 2.5135e-08
3210.0 2.7006e-08
3230.0 2.9496e-08
3250.0 3.266e-08
3270.0 3.567e-08
3290.0 4.0447e-08
3310.0 5.0232e-08
3330.0 5.3483e-08
3350.0 5.5082e-08
3370.0 5.6619e-08
3390.0 5.8181e-08
3410.0 5.9762e-08
3430.0 6.1354e-08
3450.0 6.2946e-08
3470.0 6.451e-08
3490.0 6.6017e-08
3510.0 6.7384e-08
3530.0 6.6782e-08
3550.0 6.4938e-08
3570.0 6.5893e-08
3590.0 7.0051e-08
3610.0 7.6347e-08
3630.0 7.8853e-08
3650.0 7.5738e-08
3670.0 6.9561e-08
3690.0 6.597e-08
3710.0 6.6802e-08
3730.0 6.9e-08
3750.0 7.0182e-08
3770.0 7.2546e-08
3790.0 7.5186e-08
3810.0 7.4121e-08
3830.0 6.9077e-08
3850.0 6.4564e-08
3870.0 6.2422e-08
3890.0 6.1709e-08
3910.0 6.0326e-08
3930.0 5.9628e-08
3950.0 6.1308e-08
3970.0 6.3275e-08
3990.0 6.3847e-08
4010.0 6.1502e-08
4030.0 5.8155e-08
4050.0 5.6004e-08
4070.0 5.4183e-08
4090.0 5.271e-08
4110.0 5.0784e-08
4130.0 4.7747e-08
4150.0 4.4693e-08
4170.0 4.2881e-08
4190.0 3.9985e-08
4210.0 3.6198e-08
4230.0 3.2365e-08
4250.0 2.8726e-08
4270.0 2.6008e-08
4290.0 2.3999e-08
4310.0 2.2935e-08
4330.0 2.2898e-08
4350.0 2.301e-08
4370.0 2.323e-08
4390.0 2.4089e-08
4410.0 2.4682e-08
4430.0 2.3828e-08
4450.0 2.1634e-08
4470.0 1.9717e-08
4490.0 1.8675e-08
4510.0 1.8005e-08
4530.0 1.767e-08
4550.0 1.7383e-08
4570.0 1.731e-08
4590.0 1.7548e-08
4610.0 1.8086e-08
4630.0 1.8407e-08
4650.0 1.8566e-08
4670.0 1.8115e-08
4690.0 1.7037e-08
4710.0 1.5963e-08
4730.0 1.5267e-08
4750.0 1.484e-08
4770.0 1.4894e-08
4790.0 1.4836e-08
4810.0 1.4517e-08
4830.0 1.4547e-08
4850.0 1.5e-08
4870.0 1.515e-08
4890.0 1.4877e-08
4910.0 1.4532e-08
4930.0 1.3705e-08
4950.0 1.2511e-08
4970.0 1.1693e-08
4990.0 1.1023e-08
5010.0 1.0879e-08
5030.0 1.1245e-08
5050.0 1.1534e-08
5070.0 1.1965e-08
5090.0 1.2688e-08
5110.0 1.2881e-08
5130.0 1.2994e-08
5150.0 1.3233e-08
5170.0 1.3345e-08
5190.0 1.3695e-08
5210.0 1.3766e-08
5230.0 1.3624e-08
5250.0 1.3734e-08
5270.0 1.3925e-08
5290.0 1.3963e-08
5310.0 1.3859e-08
5330.0 1.3595e-08
5350.0 1.341e-08
5370.0 1.3267e-08
5390.0 1.3092e-08
5410.0 1.2946e-08
5430.0 1.2942e-08
5450.0 1.3132e-08
5470.0 1.3375e-08
5490.0 1.3755e-08
5510.0 1.4171e-08
5530.0 1.4346e-08
5550.0 1.456e-08
5570.0 1.4591e-08
5590.0 1.4289e-08
5610.0 1.4185e-08
5630.0 1.4292e-08
5650.0 1.4119e-08
5670.0 1.3807e-08
5690.0 1.3393e-08
5710.0 1.3358e-08
5730.0 1.3499e-08
5750.0 1.2924e-08
5770.0 1.2261e-08
5790.0 1.1272e-08
5810.0 9.86e-09
5830.0 1.0629e-08
5850.0 1.1767e-08
5870.0 1.2022e-08
5890.0 1.2086e-08
5910.0 1.2185e-08
5930.0 1.2159e-08
5950.0 1.1958e-08
5970.0 1.1815e-08
5990.0 1.1645e-08
6010.0 1.129e-08
6030.0 1.0903e-08
6050.0 1.0733e-08
6070.0 1.0685e-08
6090.0 1.0522e-08
6110.0 1.0172e-08
6130.0 9.8257e-09
6150.0 9.4315e-09
6170.0 9.0373e-09
6190.0 8.6321e-09
6210.0 8.3274e-09
6230.0 8.2067e-09
6250.0 8.0328e-09
6270.0 7.8648e-09
6290.0 7.8038e-09
6310.0 7.7534e-09
6330.0 7.583e-09
6350.0 7.3365e-09
6370.0 7.1963e-09
6390.0 7.0544e-09
6410.0 6.8577e-09
6430.0 6.6717e-09
6450.0 6.525e-09
6470.0 6.3854e-09
6490.0 6.2882e-09
6510.0 6.1794e-09
6530.0 6.0224e-09
6550.0 5.8891e-09
6570.0 5.7982e-09
6590.0 5.7887e-09
6610.0 5.7524e-09
6630.0 5.56e-09
6650.0 5.4028e-09
6670.0 5.3467e-09
6690.0 5.2626e-09
6710.0 5.1362e-09
6730.0 5.0908e-09
6750.0 5.1304e-09
6770.0 5.4352e-09
6790.0 6.0742e-09
6810.0 5.7681e-09
6830.0 5.0667e-09
6850.0 4.8665e-09
6870.0 4.792e-09
6890.0 4.7926e-09
6910.0 4.8028e-09
6930.0 4.8138e-09
6950.0 4.7989e-09
6970.0 4.6771e-09
6990.0 4.6349e-09
7010.0 4.7039e-09
7030.0 4.726e-09
7050.0 4.6574e-09
7070.0 4.6103e-09
7090.0 4.6401e-09
7110.0 4.7482e-09
7130.0 4.7637e-09
7150.0 4.7813e-09
7170.0 4.8068e-09
7190.0 4.8734e-09
7210.0 4.9262e-09
7230.0 4.9792e-09
7250.0 5.0455e-09
7270.0 5.0929e-09
7290.0 5.1732e-09
7310.0 5.2685e-09
7330.0 5.2278e-09
7350.0 5.118e-09
7370.0 5.0484e-09
7390.0 5.0363e-09
7410.0 5.057e-09
7430.0 5.1201e-09
7450.0 5.1519e-09
7470.0 5.2249e-09
7490.0 5.195e-09
7510.0 5.1384e-09
7530.0 5.1988e-09
7550.0 5.3598e-09
7570.0 5.3463e-09
7590.0 5.0703e-09
7610.0 5.0282e-09
7630.0 5.313e-09
7650.0 5.4195e-09
7670.0 5.456e-09
7690.0 5.6988e-09
7710.0 5.8831e-09
7730.0 5.9396e-09
7750.0 6.2493e-09
7770.0 6.0894e-09
7790.0 5.9449e-09
7810.0 6.2981e-09
7830.0 6.5395e-09
7850.0 6.7033e-09
7870.0 6.8353e-09
7890.0 6.8878e-09
7910.0 6.8372e-09
7930.0 6.8843e-09
7950.0 7.195e-09
7970.0 7.1934e-09
7990.0 6.7002e-09
8010.0 6.4277e-09
8030.0 6.5564e-09
8050.0 6.6969e-09
8070.0 6.0582e-09
8090.0 3.9629e-09
8110.0 4.1383e-09
8130.0 5.9098e-09
8150.0 6.3647e-09
8170.0 6.6175e-09
8190.0 6.7611e-09
8210.0 6.6759e-09
8230.0 7.2377e-09
8250.0 7.3958e-09
8270.0 6.9937e-09
8290.0 6.7173e-09
8310.0 6.6194e-09
8330.0 6.981e-09
8350.0 7.3112e-09
8370.0 7.1732e-09
8390.0 6.8404e-09
8410.0 6.834e-09
8430.0 6.4029e-09
8450.0 6.5435e-09
8470.0 7.1504e-09
8490.0 7.1721e-09
8510.0 6.6505e-09
8530.0 6.2327e-09
8550.0 5.9744e-09
8570.0 5.6307e-09
8590.0 5.7916e-09
8610.0 6.1457e-09
8630.0 6.3103e-09
8650.0 6.4195e-09
8670.0 6.2432e-09
8690.0 6.0978e-09
8710.0 5.6713e-09
8730.0 5.4678e-09
8750.0 5.6913e-09
8770.0 5.7805e-09
8790.0 5.7624e-09
8810.0 5.735e-09
8830.0 5.8574e-09
8850.0 6.1505e-09
8870.0 5.7432e-09
8890.0 5.417e-09
8910.0 5.3371e-09
8930.0 5.0165e-09
8950.0 4.833e-09
8970.0 4.8309e-09
8990.0 4.6244e-09
9010.0 4.3413e-09
9030.0 4.2427e-09
9050.0 4.2074e-09
9070.0 4.1759e-09
9090.0 4.1442e-09
9110.0 4.1124e-09
9130.0 4.0803e-09
9150.0 4.0481e-09
9170.0 4.0158e-09
9190.0 3.9835e-09
9210.0 3.9511e-09
9230.0 3.9187e-09
9250.0 3.8863e-09
9270.0 3.8539e-09
9290.0 3.8216e-09
9310.0 3.7894e-09
9330.0 3.7572e-09
9350.0 3.7252e-09
9370.0 3.6932e-09
9390.0 3.6615e-09
9410.0 3.6299e-09
9430.0 3.5985e-09
9450.0 3.5672e-09
9470.0 3.5362e-09
9490.0 3.5054e-09
9510.0 3.4748e-09
9530.0 3.4445e-09
9550.0 3.4144e-09
9570.0 3.3846e-09
9590.0 3.355e-09
9610.0 3.3257e-09
9630.0 3.2967e-09
9650.0 3.2679e-09
9670.0 3.2395e-09
9690.0 3.2113e-09
9710.0 3.1834e-09
9730.0 3.1559e-09
9750.0 3.1286e-09
9770.0 3.1017e-09
9790.0 3.075e-09
9810.0 3.0486e-09
9830.0 3.0226e-09
9850.0 2.9969e-09
9870.0 2.9715e-09
9890.0 2.9463e-09
9910.0 2.9215e-09
9930.0 2.897e-09
9950.0 2.8728e-09
9970.0 2.8489e-09
9990.0 2.8254e-09
10010.0 2.8021e-09
10030.0 2.7791e-09
10050.0 2.7564e-09
10070.0 2.734e-09
10090.0 2.7119e-09
10110.0 2.69e-09
10130.0 2.6685e-09
10150.0 2.6472e-09
10170.0 2.6262e-09
10190.0 2.6055e-09
10210.0 2.5851e-09
10230.0 2.5649e-09
10250.0 2.545e-09
10270.0 2.5253e-09
10290.0 2.506e-09
10310.0 2.4868e-09
10330.0 2.4679e-09
10350.0 2.4492e-09
10370.0 2.4308e-09
10390.0 2.4124e-09
10410.0 2.3907e-09
10430.0 2.3681e-09
10450.0 2.3547e-09
10470.0 2.3393e-09
10490.0 2.3236e-09
10510.0 2.3077e-09
10530.0 2.2911e-09
10550.0 2.2748e-09
10570.0 2.2589e-09
10590.0 2.2429e-09
10610.0 2.2269e-09
10630.0 2.2114e-09
10650.0 2.1961e-09
10670.0 2.1805e-09
10690.0 2.1654e-09
10710.0 2.1506e-09
10730.0 2.1357e-09
10750.0 2.1208e-09
10770.0 2.1065e-09
10790.0 2.0924e-09
10810.0 2.078e-09
10830.0 2.064e-09
10850.0 2.0505e-09
10870.0 2.0365e-09
10890.0 2.0227e-09
10910.0 2.0093e-09
10930.0 1.9959e-09
10950.0 1.9821e-09
10970.0 1.9685e-09
10990.0 1.9551e-09
11010.0 1.9412e-09
11030.0 1.927e-09
11050.0 1.913e-09
11070.0 1.8987e-09
11090.0 1.8836e-09
11110.0 1.8689e-09
11130.0 1.8543e-09
11150.0 1.839e-09
11170.0 1.8236e-09
11190.0 1.8087e-09
11210.0 1.7934e-09
11230.0 1.7778e-09
11250.0 1.7627e-09
11270.0 1.7479e-09
11290.0 1.733e-09
11310.0 1.7185e-09
11330.0 1.7051e-09
11350.0 1.692e-09
11370.0 1.6792e-09
11390.0 1.6674e-09
11410.0 1.6563e-09
11430.0 1.6452e-09
11450.0 1.6348e-09
11470.0 1.625e-09
11490.0 1.6154e-09
11510.0 1.6057e-09
11530.0 1.5964e-09
11550.0 1.5873e-09
11570.0 1.5778e-09
11590.0 1.5682e-09
11610.0 1.5588e-09
11630.0 1.5489e-09
11650.0 1.5386e-09
11670.0 1.5284e-09
11690.0 1.5181e-09
11710.0 1.5072e-09
11730.0 1.4963e-09
11750.0 1.4857e-09
11770.0 1.4747e-09
11790.0 1.4634e-09
11810.0 1.4526e-09
11830.0 1.4418e-09
11850.0 1.4307e-09
11870.0 1.4201e-09
11890.0 1.41e-09
11910.0 1.4e-09
11930.0 1.3902e-09
11950.0 1.3812e-09
11970.0 1.3726e-09
11990.0 1.3641e-09
12010.0 1.3564e-09
12030.0 1.3493e-09
12050.0 1.3426e-09
12070.0 1.3362e-09
12090.0 1.3307e-09
12110.0 1.3256e-09
12130.0 1.3208e-09
12150.0 1.3164e-09
12170.0 1.3125e-09
12190.0 1.3086e-09
12210.0 1.3049e-09
12230.0 1.3014e-09
12250.0 1.2978e-09
12270.0 1.2939e-09
12290.0 1.2899e-09
12310.0 1.2857e-09
12330.0 1.2809e-09
12350.0 1.2756e-09
12370.0 1.2699e-09
12390.0 1.2637e-09
12410.0 1.2564e-09
12430.0 1.2489e-09
12450.0 1.2409e-09
12470.0 1.2322e-09
12490.0 1.2228e-09
12510.0 1.2135e-09
12530.0 1.2034e-09
12550.0 1.1928e-09
12570.0 1.1822e-09
12590.0 1.1715e-09
12610.0 1.1601e-09
12630.0 1.1488e-09
12650.0 1.138e-09
12670.0 1.1269e-09
12690.0 1.1158e-09
12710.0 1.1052e-09
12730.0 1.0949e-09
12750.0 1.0844e-09
12770.0 1.0746e-09
12790.0 1.0654e-09
12810.0 1.0564e-09
12830.0 1.0477e-09
12850.0 1.0399e-09
12870.0 1.0326e-09
12890.0 1.0257e-09
12910.0 1.0194e-09
12930.0 1.0139e-09
12950.0 1.0087e-09
12970.0 1.0042e-09
12990.0 1.0005e-09
13010.0 9.9734e-10
13030.0 9.9474e-10
13050.0 9.9276e-10
13070.0 9.9135e-10
13090.0 9.9034e-10
13110.0 9.8969e-10
13130.0 9.8932e-10
13150.0 9.8909e-10
13170.0 9.8887e-10
13190.0 9.8855e-10
13210.0 9.8801e-10
13230.0 9.8712e-10
13250.0 9.8577e-10
13270.0 9.8399e-10
13290.0 9.8165e-10
13310.0 9.786e-10
13330.0 9.7502e-10
13350.0 9.7092e-10
13370.0 9.661e-10
13390.0 9.6057e-10
13410.0 9.5485e-10
13430.0 9.4853e-10
13450.0 9.4154e-10
13470.0 9.3429e-10
13490.0 9.2687e-10
13510.0 9.1861e-10
13530.0 9.1011e-10
13550.0 9.0167e-10
13570.0 8.9288e-10
13590.0 8.8361e-10
13610.0 8.7447e-10
13630.0 8.6545e-10
13650.0 8.5592e-10
13670.0 8.4639e-10
13690.0 8.3716e-10
13710.0 8.2778e-10
13730.0 8.1797e-10
13750.0 8.088e-10
13770.0 7.9982e-10
13790.0 7.9068e-10
13810.0 7.8178e-10
13830.0 7.7347e-10
13850.0 7.651e-10
13870.0 7.5684e-10
13890.0 7.4912e-10
13910.0 7.4174e-10
13930.0 7.3433e-10
13950.0 7.2726e-10
13970.0 7.2081e-10
13990.0 7.1442e-10
14010.0 7.0818e-10
14030.0 7.0242e-10
14050.0 6.9694e-10
14070.0 6.9142e-10
14090.0 6.8631e-10
14110.0 6.8158e-10
14130.0 6.7697e-10
14150.0 6.7249e-10
14170.0 6.6843e-10
14190.0 6.6456e-10
14210.0 6.6073e-10
14230.0 6.5713e-10
14250.0 6.5377e-10
14270.0 6.5038e-10
14290.0 6.4705e-10
14310.0 6.4396e-10
14330.0 6.4092e-10
14350.0 6.3785e-10
14370.0 6.349e-10
14390.0 6.3209e-10
14410.0 6.2921e-10
14430.0 6.2636e-10
14450.0 6.2364e-10
14470.0 6.2094e-10
14490.0 6.1814e-10
14510.0 6.1546e-10
14530.0 6.1286e-10
14550.0 6.1017e-10
14570.0 6.0747e-10
14590.0 6.0486e-10
14610.0 6.0218e-10
14630.0 5.9938e-10
14650.0 5.9664e-10
14670.0 5.9392e-10
14690.0 5.9107e-10
14710.0 5.8815e-10
14730.0 5.8536e-10
14750.0 5.8246e-10
14770.0 5.7944e-10
14790.0 5.7645e-10
14810.0 5.7347e-10
14830.0 5.7025e-10
14850.0 5.6702e-10
14870.0 5.6387e-10
14890.0 5.6064e-10
14910.0 5.5733e-10
14930.0 5.5419e-10
14950.0 5.5123e-10
14970.0 5.4831e-10
14990.0 5.4565e-10
15010.0 5.4333e-10
15030.0 5.4123e-10
15050.0 5.3928e-10
15070.0 5.3765e-10
15090.0 5.3616e-10
15110.0 5.3472e-10
15130.0 5.3335e-10
15150.0 5.3207e-10
15170.0 5.3075e-10
15190.0 5.2942e-10
15210.0 5.2814e-10
15230.0 5.2687e-10
15250.0 5.2554e-10
15270.0 5.2422e-10
15290.0 5.2297e-10
15310.0 5.2167e-10
15330.0 5.2036e-10
15350.0 5.1909e-10
15370.0 5.1782e-10
15390.0 5.1648e-10
15410.0 5.1518e-10
15430.0 5.1392e-10
15450.0 5.1261e-10
15470.0 5.1129e-10
15490.0 5.1002e-10
15510.0 5.0875e-10
15530.0 5.0743e-10
15550.0 5.0614e-10
15570.0 5.0488e-10
15590.0 5.0357e-10
15610.0 5.0223e-10
15630.0 5.0097e-10
15650.0 4.9969e-10
15670.0 4.9837e-10
15690.0 4.9707e-10
15710.0 4.9582e-10
15730.0 4.9451e-10
15750.0 4.932e-10
15770.0 4.9193e-10
15790.0 4.9065e-10
15810.0 4.893e-10
15830.0 4.8801e-10
15850.0 4.8675e-10
15870.0 4.8545e-10
15890.0 4.8414e-10
15910.0 4.8288e-10
15930.0 4.816e-10
15950.0 4.8026e-10
15970.0 4.7898e-10
15990.0 4.7771e-10
16010.0 4.764e-10
16030.0 4.7507e-10
16050.0 4.7382e-10
16070.0 4.7253e-10
16090.0 4.7122e-10
16110.0 4.6993e-10
16130.0 4.6868e-10
16150.0 4.6734e-10
16170.0 4.6603e-10
16190.0 4.6477e-10
16210.0 4.6348e-10
16230.0 4.6215e-10
16250.0 4.6087e-10
16270.0 4.5961e-10
16290.0 4.583e-10
16310.0 4.5699e-10
16330.0 4.5573e-10
16350.0 4.5444e-10
16370.0 4.5309e-10
16390.0 4.5182e-10
16410.0 4.5055e-10
16430.0 4.4924e-10
16450.0 4.4794e-10
16470.0 4.4669e-10
16490.0 4.4538e-10
16510.0 4.4406e-10
16530.0 4.4278e-10
16550.0 4.4151e-10
16570.0 4.4018e-10
16590.0 4.3887e-10
16610.0 4.3762e-10
16630.0 4.3632e-10
16650.0 4.3501e-10
16670.0 4.3374e-10
16690.0 4.3247e-10
16710.0 4.3113e-10
16730.0 4.2984e-10
16750.0 4.2857e-10
16770.0 4.2727e-10
16790.0 4.2595e-10
16810.0 4.2468e-10
16830.0 4.2341e-10
16850.0 4.2209e-10
16870.0 4.208e-10
16890.0 4.1954e-10
16910.0 4.1823e-10
16930.0 4.169e-10
16950.0 4.1563e-10
16970.0 4.1435e-10
16990.0 4.1303e-10
17010.0 4.1174e-10
17030.0 4.1049e-10
17050.0 4.0918e-10
17070.0 4.0786e-10
17090.0 4.066e-10
17110.0 4.0531e-10
17130.0 4.0397e-10
17150.0 4.0269e-10
17170.0 4.0143e-10
17190.0 4.0012e-10
17210.0 3.9881e-10
17230.0 3.9756e-10
17250.0 3.9627e-10
17270.0 3.9493e-10
17290.0 3.9365e-10
17310.0 3.9238e-10
17330.0 3.9107e-10
17350.0 3.8974e-10
17370.0 3.8849e-10
17390.0 3.8721e-10
17410.0 3.8589e-10
17430.0 3.8461e-10
17450.0 3.8335e-10
17470.0 3.8201e-10
17490.0 3.8071e-10
17510.0 3.7944e-10
17530.0 3.7815e-10
17550.0 3.7683e-10
17570.0 3.7555e-10
17590.0 3.7429e-10
17610.0 3.7297e-10
17630.0 3.7167e-10
17650.0 3.7041e-10
17670.0 3.6911e-10
17690.0 3.6776e-10
17710.0 3.665e-10
17730.0 3.6523e-10
17750.0 3.6391e-10
17770.0 3.6262e-10
17790.0 3.6137e-10
17810.0 3.6006e-10
17830.0 3.5874e-10
17850.0 3.5746e-10
17870.0 3.5619e-10
17890.0 3.5486e-10
17910.0 3.5355e-10
17930.0 3.523e-10
17950.0 3.51e-10
17970.0 3.4969e-10
17990.0 3.4842e-10
18010.0 3.4715e-10
18030.0 3.4581e-10
18050.0 3.4452e-10
18070.0 3.4325e-10
18090.0 3.4195e-10
18110.0 3.4063e-10
18130.0 3.3937e-10
18150.0 3.3809e-10
18170.0 3.3677e-10
18190.0 3.3548e-10
18210.0 3.3422e-10
18230.0 3.329e-10
18250.0 3.3157e-10
18270.0 3.3031e-10
18290.0 3.2903e-10
18310.0 3.2771e-10
18330.0 3.2643e-10
18350.0 3.2517e-10
18370.0 3.2385e-10
18390.0 3.2254e-10
18410.0 3.2128e-10
18430.0 3.1999e-10
18450.0 3.1865e-10
18470.0 3.1737e-10
18490.0 3.1611e-10
18510.0 3.148e-10
18530.0 3.1349e-10
18550.0 3.1224e-10
18570.0 3.1095e-10
18590.0 3.0961e-10
18610.0 3.0833e-10
18630.0 3.0706e-10
18650.0 3.0574e-10
18670.0 3.0443e-10
18690.0 3.0318e-10
18710.0 3.0189e-10
18730.0 3.0057e-10
18750.0 2.9929e-10
18770.0 2.9803e-10
18790.0 2.9669e-10
18810.0 2.9539e-10
18830.0 2.9412e-10
18850.0 2.9283e-10
18870.0 2.9151e-10
18890.0 2.9024e-10
18910.0 2.8897e-10
18930.0 2.8765e-10
18950.0 2.8635e-10
18970.0 2.8509e-10
18990.0 2.8379e-10
19010.0 2.8244e-10
19030.0 2.8118e-10
19050.0 2.7991e-10
19070.0 2.7859e-10
19090.0 2.773e-10
19110.0 2.7605e-10
19130.0 2.7474e-10
19150.0 2.7342e-10
19170.0 2.7214e-10
19190.0 2.7087e-10
19210.0 2.6954e-10
19230.0 2.6824e-10
19250.0 2.6698e-10
19270.0 2.6568e-10
19290.0 2.6437e-10
19310.0 2.6311e-10
19330.0 2.6183e-10
19350.0 2.6049e-10
19370.0 2.592e-10
19390.0 2.5793e-10
19410.0 2.5663e-10
19430.0 2.5531e-10
19450.0 2.5405e-10
19470.0 2.5277e-10
19490.0 2.5145e-10
19510.0 2.5016e-10
19530.0 2.489e-10
19550.0 2.4758e-10
19570.0 2.4625e-10
19590.0 2.45e-10
19610.0 2.4371e-10
19630.0 2.4239e-10
19650.0 2.4111e-10
19670.0 2.3985e-10
19690.0 2.3853e-10
19710.0 2.3722e-10
19730.0 2.3596e-10
19750.0 2.3467e-10
19770.0 2.3333e-10
19790.0 2.3205e-10
19810.0 2.3079e-10
19830.0 2.2948e-10
19850.0 2.2818e-10
19870.0 2.2694e-10
19890.0 2.2567e-10
19910.0 2.2439e-10
19930.0 2.232e-10
19950.0 2.2208e-10
19970.0 2.21e-10
19990.0 2.2005e-10
20010.0 2.1926e-10
20030.0 2.1858e-10
20050.0 2.1801e-10
20070.0 2.1756e-10
20090.0 2.172e-10
20110.0 2.1688e-10
20130.0 2.1661e-10
20150.0 2.1637e-10
20170.0 2.1614e-10
20190.0 2.1589e-10
20210.0 2.1565e-10
20230.0 2.154e-10
20250.0 2.1513e-10
20270.0 2.1485e-10
20290.0 2.1456e-10
20310.0 2.1424e-10
20330.0 2.139e-10
20350.0 2.1356e-10
20370.0 2.132e-10
20390.0 2.1281e-10
20410.0 2.1241e-10
20430.0 2.1202e-10
20450.0 2.1159e-10
20470.0 2.1115e-10
20490.0 2.1072e-10
20510.0 2.1029e-10
20530.0 2.0984e-10
20550.0 2.0941e-10
20570.0 2.0901e-10
20590.0 2.0859e-10
20610.0 2.0818e-10
20630.0 2.078e-10
20650.0 2.0742e-10
20670.0 2.0703e-10
20690.0 2.0665e-10
20710.0 2.0629e-10
20730.0 2.059e-10
20750.0 2.0549e-10
20770.0 2.0509e-10
20790.0 2.0466e-10
20810.0 2.0419e-10
20830.0 2.0369e-10
20850.0 2.0317e-10
20870.0 2.0259e-10
20890.0 2.0197e-10
20910.0 2.0135e-10
20930.0 2.0068e-10
20950.0 1.9996e-10
20970.0 1.9923e-10
20990.0 1.985e-10
21010.0 1.9771e-10
21030.0 1.9692e-10
21050.0 1.9615e-10
21070.0 1.9536e-10
21090.0 1.9455e-10
21110.0 1.9378e-10
21130.0 1.9303e-10
21150.0 1.9226e-10
21170.0 1.915e-10
21190.0 1.9078e-10
21210.0 1.9003e-10
21230.0 1.8927e-10
21250.0 1.8854e-10
21270.0 1.8781e-10
21290.0 1.8704e-10
21310.0 1.8627e-10
21330.0 1.8552e-10
21350.0 1.8473e-10
21370.0 1.839e-10
21390.0 1.8308e-10
21410.0 1.8225e-10
21430.0 1.8134e-10
21450.0 1.8044e-10
21470.0 1.7955e-10
21490.0 1.7861e-10
21510.0 1.7764e-10
21530.0 1.7669e-10
21550.0 1.7573e-10
21570.0 1.7471e-10
21590.0 1.7371e-10
21610.0 1.7272e-10
21630.0 1.7171e-10
21650.0 1.7065e-10
21670.0 1.6967e-10
21690.0 1.6868e-10
21710.0 1.6765e-10
21730.0 1.6665e-10
21750.0 1.6568e-10
21770.0 1.6466e-10
21790.0 1.6365e-10
21810.0 1.6268e-10
21830.0 1.617e-10
21850.0 1.6068e-10
21870.0 1.5969e-10
21890.0 1.5874e-10
21910.0 1.5774e-10
21930.0 1.5675e-10
21950.0 1.558e-10
21970.0 1.5485e-10
21990.0 1.5386e-10
22010.0 1.5293e-10
22030.0 1.5204e-10
22050.0 1.5114e-10
22070.0 1.5026e-10
22090.0 1.4945e-10
22110.0 1.4865e-10
22130.0 1.4787e-10
22150.0 1.4714e-10
22170.0 1.4646e-10
22190.0 1.4578e-10
22210.0 1.4515e-10
22230.0 1.4457e-10
22250.0 1.4401e-10
22270.0 1.4346e-10
22290.0 1.4296e-10
22310.0 1.4248e-10
22330.0 1.4199e-10
22350.0 1.4152e-10
22370.0 1.4107e-10
22390.0 1.4062e-10
22410.0 1.4015e-10
22430.0 1.3971e-10
22450.0 1.3926e-10
22470.0 1.388e-10
22490.0 1.3834e-10
22510.0 1.3788e-10
22530.0 1.3741e-10
22550.0 1.3692e-10
22570.0 1.3645e-10
22590.0 1.3598e-10
22610.0 1.3549e-10
