#lamb flux
1010.0 4.0086e-06
1030.0 4.5122e-06
1050.0 5.0334e-06
1070.0 5.6228e-06
1090.0 6.3126e-06
1110.0 7.0222e-06
1130.0 7.7407e-06
1150.0 8.499e-06
1170.0 9.2905e-06
1190.0 1.0057e-05
1210.0 1.0849e-05
1230.0 1.1688e-05
1250.0 1.2531e-05
1270.0 1.338e-05
1290.0 1.4301e-05
1310.0 1.5254e-05
1330.0 1.6206e-05
1350.0 1.7198e-05
1370.0 1.8245e-05
1390.0 1.93e-05
1410.0 2.0354e-05
1430.0 2.1465e-05
1450.0 2.2592e-05
1470.0 2.3703e-05
1490.0 2.4829e-05
1510.0 2.6008e-05
1530.0 2.7137e-05
1550.0 2.8247e-05
1570.0 2.9378e-05
1590.0 3.0494e-05
1610.0 3.1547e-05
1630.0 3.2597e-05
1650.0 3.3641e-05
1670.0 3.4621e-05
1690.0 3.5552e-05
1710.0 3.6478e-05
1730.0 3.7364e-05
1750.0 3.8149e-05
1770.0 3.8912e-05
1790.0 3.9645e-05
1810.0 4.0301e-05
1830.0 4.0894e-05
1850.0 4.1494e-05
1870.0 4.2026e-05
1890.0 4.2486e-05
1910.0 4.2925e-05
1930.0 4.3347e-05
1950.0 4.3696e-05
1970.0 4.4003e-05
1990.0 4.4309e-05
2010.0 4.4572e-05
2030.0 4.4775e-05
2050.0 4.4971e-05
2070.0 4.5153e-05
2090.0 4.5253e-05
2110.0 4.5313e-05
2130.0 4.5352e-05
2150.0 4.533e-05
2170.0 4.5227e-05
2190.0 4.5097e-05
2210.0 4.4914e-05
2230.0 4.4645e-05
2250.0 4.4314e-05
2270.0 4.3949e-05
2290.0 4.3501e-05
2310.0 4.2968e-05
2330.0 4.2394e-05
2350.0 4.1766e-05
2370.0 4.1058e-05
2390.0 4.0299e-05
2410.0 3.9505e-05
2430.0 3.8631e-05
2450.0 3.768e-05
2470.0 3.6665e-05
2490.0 3.5579e-05
2510.0 3.4428e-05
2530.0 3.3292e-05
2550.0 3.2285e-05
2570.0 3.1552e-05
2590.0 3.1244e-05
2610.0 3.1673e-05
2630.0 3.2925e-05
2650.0 3.4835e-05
2670.0 3.7395e-05
2690.0 4.0415e-05
2710.0 4.3224e-05
2730.0 4.5457e-05
2750.0 4.7043e-05
2770.0 4.7497e-05
2790.0 4.6702e-05
2810.0 4.4773e-05
2830.0 4.17e-05
2850.0 3.7776e-05
2870.0 3.3232e-05
2890.0 2.8116e-05
2910.0 2.2668e-05
2930.0 1.7168e-05
2950.0 1.1409e-05
2970.0 5.4699e-06
2990.0 2.7345e-06
3010.0 6.0352e-06
3030.0 6.0352e-06
3050.0 6.0352e-06
3070.0 6.0352e-06
3090.0 6.0352e-06
3110.0 6.0352e-06
3130.0 6.0352e-06
3150.0 6.0352e-06
3170.0 6.0352e-06
3190.0 6.0352e-06
3210.0 6.0352e-06
3230.0 0.00016435
3250.0 0.00032672
3270.0 0.00032689
3290.0 0.00035224
3310.0 0.00027736
3330.0 0.00027709
3350.0 0.00030753
3370.0 0.00035118
3390.0 0.00040043
3410.0 0.00045316
3430.0 0.00052042
3450.0 0.00058866
3470.0 0.00065996
3490.0 0.00069916
3510.0 0.00067998
3530.0 0.00068874
3550.0 0.00072604
3570.0 0.00073119
3590.0 0.00077961
3610.0 0.00074597
3630.0 0.00092346
3650.0 0.001036
3670.0 0.0011066
3690.0 0.0010453
3710.0 0.00086014
3730.0 0.00080742
3750.0 0.00072822
3770.0 0.00067266
3790.0 0.00061031
3810.0 0.00058964
3830.0 0.0006778
3850.0 0.00029784
3870.0 0.0005477
3890.0 0.00064709
3910.0 0.00072862
3930.0 0.00090651
3950.0 0.00098544
3970.0 0.0011491
3990.0 0.0014087
4010.0 0.001059
4030.0 0.00087741
4050.0 0.00066586
4070.0 0.00068483
4090.0 0.0010749
4110.0 0.00102
4130.0 0.0010996
4150.0 0.0010358
4170.0 0.00098621
4190.0 0.00089712
4210.0 0.0013027
4230.0 0.0013581
4250.0 0.0014771
4270.0 0.0013866
4290.0 0.0014
4310.0 0.001571
4330.0 0.0018489
4350.0 0.0018558
4370.0 0.0018071
4390.0 0.0016163
4410.0 0.0015046
4430.0 0.0011818
4450.0 0.00098897
4470.0 0.001102
4490.0 0.0013135
4510.0 0.0013603
4530.0 0.0014014
4550.0 0.0014543
4570.0 0.002059
4590.0 0.0030443
4610.0 0.0035786
4630.0 0.0035888
4650.0 0.003758
4670.0 0.0043036
4690.0 0.0047023
4710.0 0.0038736
4730.0 0.0029515
4750.0 0.0023435
4770.0 0.0020697
4790.0 0.00194
4810.0 0.00185
4830.0 0.002044
4850.0 0.0023684
4870.0 0.0025846
4890.0 0.0026965
4910.0 0.0024842
4930.0 0.0026444
4950.0 0.0032625
4970.0 0.0038881
4990.0 0.0040614
5010.0 0.0037468
5030.0 0.003114
5050.0 0.0023738
5070.0 0.0018764
5090.0 0.0016831
5110.0 0.0016463
5130.0 0.0016802
5150.0 0.0016747
5170.0 0.0016026
5190.0 0.0015142
5210.0 0.0014834
5230.0 0.0016704
5250.0 0.0019446
5270.0 0.0023278
5290.0 0.0026999
5310.0 0.0028701
5330.0 0.0031298
5350.0 0.0034972
5370.0 0.0037112
5390.0 0.0034003
5410.0 0.0030359
5430.0 0.0029605
5450.0 0.0034568
5470.0 0.0043313
5490.0 0.005131
5510.0 0.0055244
5530.0 0.0054888
5550.0 0.0052739
5570.0 0.0051527
5590.0 0.0050248
5610.0 0.0050073
5630.0 0.0050209
5650.0 0.0050673
5670.0 0.0050788
5690.0 0.004716
5710.0 0.0040062
5730.0 0.0035926
5750.0 0.0034356
5770.0 0.0035391
5790.0 0.0037038
5810.0 0.0039139
5830.0 0.0040388
5850.0 0.0038943
5870.0 0.0036917
5890.0 0.0035775
5910.0 0.0037304
5930.0 0.0039703
5950.0 0.0037986
5970.0 0.0034159
5990.0 0.0028926
6010.0 0.002358
6030.0 0.0021417
6050.0 0.0022934
6070.0 0.0024605
6090.0 0.0023958
6110.0 0.0021149
6130.0 0.0021354
6150.0 0.002471
6170.0 0.002869
6190.0 0.0031956
6210.0 0.0032384
6230.0 0.0031709
6250.0 0.0029043
6270.0 0.002448
6290.0 0.0020295
6310.0 0.0017868
6330.0 0.0017326
6350.0 0.0017739
6370.0 0.0017844
6390.0 0.0019633
6410.0 0.0024265
6430.0 0.0030432
6450.0 0.0034931
6470.0 0.003629
6490.0 0.0035778
6510.0 0.0036569
6530.0 0.0037962
6550.0 0.0037633
6570.0 0.0039018
6590.0 0.0039793
6610.0 0.0040501
6630.0 0.0040266
6650.0 0.0037999
6670.0 0.003475
6690.0 0.0031213
6710.0 0.0029202
6730.0 0.0029126
6750.0 0.00301
6770.0 0.0031001
6790.0 0.0031868
6810.0 0.0032433
6830.0 0.0031775
6850.0 0.0030427
6870.0 0.0028546
6890.0 0.0027875
6910.0 0.002673
6930.0 0.0027556
6950.0 0.0029428
6970.0 0.0030284
6990.0 0.0030992
7010.0 0.0030244
7030.0 0.0027901
7050.0 0.0024627
7070.0 0.0021606
7090.0 0.0019775
7110.0 0.0019519
7130.0 0.001947
7150.0 0.0017703
7170.0 0.0016679
7190.0 0.0017908
7210.0 0.0020429
7230.0 0.0023666
7250.0 0.0025337
7270.0 0.0025276
7290.0 0.0023262
7310.0 0.0021324
7330.0 0.0020254
7350.0 0.0020242
7370.0 0.0020673
7390.0 0.0021582
7410.0 0.0023758
7430.0 0.0027557
7450.0 0.0031388
7470.0 0.0033493
7490.0 0.0033152
7510.0 0.0031039
7530.0 0.0026246
7550.0 0.002339
7570.0 0.0020511
7590.0 0.0019073
7610.0 0.0019645
7630.0 0.0021417
7650.0 0.002376
7670.0 0.0025977
7690.0 0.002738
7710.0 0.0028969
7730.0 0.0030667
7750.0 0.0032105
7770.0 0.0031645
7790.0 0.0031628
7810.0 0.0032176
7830.0 0.0032247
7850.0 0.0031126
7870.0 0.0029843
7890.0 0.0029575
7910.0 0.0028273
7930.0 0.0027746
7950.0 0.0026183
7970.0 0.002545
7990.0 0.0024542
8010.0 0.0025145
8030.0 0.0025238
8050.0 0.0025375
8070.0 0.0025004
8090.0 0.0024769
8110.0 0.0023703
8130.0 0.0023536
8150.0 0.0023085
8170.0 0.002238
8190.0 0.0021864
8210.0 0.0021789
8230.0 0.0021096
8250.0 0.002043
8270.0 0.0018257
8290.0 0.001474
8310.0 0.0010949
8330.0 0.00083218
8350.0 0.00076876
8370.0 0.00091622
8390.0 0.0011127
8410.0 0.0012074
8430.0 0.0012447
8450.0 0.0013025
8470.0 0.0013834
8490.0 0.0015427
8510.0 0.001756
8530.0 0.0020236
8550.0 0.0022881
8570.0 0.0025122
8590.0 0.0026843
8610.0 0.0027868
8630.0 0.002801
8650.0 0.0027753
8670.0 0.0027676
8690.0 0.0028876
8710.0 0.0030441
8730.0 0.0031552
8750.0 0.0031318
8770.0 0.0031622
8790.0 0.003135
8810.0 0.0029292
8830.0 0.0027688
8850.0 0.0025532
8870.0 0.0023777
8890.0 0.0023095
8910.0 0.0023152
8930.0 0.0021857
8950.0 0.0020473
8970.0 0.001988
8990.0 0.0019615
9010.0 0.0018833
9030.0 0.0018407
9050.0 0.0018262
9070.0 0.0018195
9090.0 0.0018136
9110.0 0.0018079
9130.0 0.0018021
9150.0 0.0017964
9170.0 0.0017898
9190.0 0.0017844
9210.0 0.0017878
9230.0 0.0017787
9250.0 0.0017713
9270.0 0.0017647
9290.0 0.0017586
9310.0 0.0017528
9330.0 0.0017471
9350.0 0.0017419
9370.0 0.0017367
9390.0 0.0017313
9410.0 0.0017261
9430.0 0.0017208
9450.0 0.0017136
9470.0 0.001707
9490.0 0.0017039
9510.0 0.0016997
9530.0 0.0016952
9550.0 0.0016906
9570.0 0.0016859
9590.0 0.0016811
9610.0 0.0016762
9630.0 0.0016714
9650.0 0.0016666
9670.0 0.0016617
9690.0 0.0016569
9710.0 0.0016521
9730.0 0.0016473
9750.0 0.0016425
9770.0 0.0016377
9790.0 0.0016329
9810.0 0.0016281
9830.0 0.0016233
9850.0 0.0016185
9870.0 0.0016137
9890.0 0.0016088
9910.0 0.001604
9930.0 0.0015989
9950.0 0.0015809
9970.0 0.0015798
9990.0 0.001578
10010.0 0.0015757
10030.0 0.0015722
10050.0 0.0015679
10070.0 0.0015633
10090.0 0.0015588
10110.0 0.0015534
10130.0 0.0015484
10150.0 0.0015433
10170.0 0.0015377
10190.0 0.0015317
10210.0 0.0015262
10230.0 0.0015208
10250.0 0.0015148
10270.0 0.0015089
10290.0 0.0015033
10310.0 0.0014972
10330.0 0.0014906
10350.0 0.0014845
10370.0 0.0014784
10390.0 0.0014717
10410.0 0.001465
10430.0 0.0014587
10450.0 0.0014519
10470.0 0.0014447
10490.0 0.0014378
10510.0 0.0014308
10530.0 0.001423
10550.0 0.0014154
10570.0 0.0014081
10590.0 0.0014003
10610.0 0.0013921
10630.0 0.0013843
10650.0 0.0013763
10670.0 0.0013676
10690.0 0.001359
10710.0 0.0013506
10730.0 0.0013416
10750.0 0.001332
10770.0 0.0013232
10790.0 0.001314
10810.0 0.0013041
10830.0 0.0012944
10850.0 0.001285
10870.0 0.0012745
10890.0 0.0012637
10910.0 0.0012533
10930.0 0.0012423
10950.0 0.0012303
10970.0 0.0012181
10990.0 0.0012058
11010.0 0.0012444
11030.0 0.0012294
11050.0 0.0012148
11070.0 0.0011999
11090.0 0.0011841
11110.0 0.0011697
11130.0 0.0011559
11150.0 0.0011419
11170.0 0.0011283
11190.0 0.0011157
11210.0 0.001103
11230.0 0.0010901
11250.0 0.0010779
11270.0 0.001066
11290.0 0.0010535
11310.0 0.0010411
11330.0 0.0010295
11350.0 0.0010175
11370.0 0.0010051
11390.0 0.00099291
11410.0 0.00098071
11430.0 0.00096731
11450.0 0.0009537
11470.0 0.00093999
11490.0 0.0009253
11510.0 0.00090935
11530.0 0.00089344
11550.0 0.00087699
11570.0 0.00085917
11590.0 0.00084093
11610.0 0.00082286
11630.0 0.00080372
11650.0 0.00078384
11670.0 0.00076482
11690.0 0.00074588
11710.0 0.00072647
11730.0 0.00070761
11750.0 0.00068994
11770.0 0.00067208
11790.0 0.00065459
11810.0 0.0006383
11830.0 0.00062266
11850.0 0.00060688
11870.0 0.00059223
11890.0 0.00057865
11910.0 0.00056522
11930.0 0.0005522
11950.0 0.0005402
11970.0 0.00052855
11990.0 0.00051692
12010.0 0.00050606
12030.0 0.0004959
12050.0 0.00048593
12070.0 0.0004763
12090.0 0.00046778
12110.0 0.00045974
12130.0 0.00045215
12150.0 0.00044545
12170.0 0.00043966
12190.0 0.00043439
12210.0 0.00043007
12230.0 0.00042678
12250.0 0.00042434
12270.0 0.00042283
12290.0 0.00042228
12310.0 0.00042261
12330.0 0.0004239
12350.0 0.0004261
12370.0 0.00042903
12390.0 0.0004328
12410.0 0.00043764
12430.0 0.0004429
12450.0 0.00044867
12470.0 0.00045522
12490.0 0.0004622
12510.0 0.00046911
12530.0 0.00047642
12550.0 0.00048394
12570.0 0.000491
12590.0 0.00049763
12610.0 0.00050403
12630.0 0.00050965
12650.0 0.00051405
12670.0 0.00051761
12690.0 0.00052009
12710.0 0.00052125
12730.0 0.0005212
12750.0 0.00051993
12770.0 0.0005174
12790.0 0.00051381
12810.0 0.00050918
12830.0 0.00050354
12850.0 0.0004974
12870.0 0.00049077
12890.0 0.00048356
12910.0 0.00047622
12930.0 0.00046901
12950.0 0.0004616
12970.0 0.00045422
12990.0 0.00044734
13010.0 0.00044068
13030.0 0.00043409
13050.0 0.00042784
13070.0 0.000422
13090.0 0.00041614
13110.0 0.0004104
13130.0 0.00040492
13150.0 0.00039953
13170.0 0.00039397
13190.0 0.00038863
13210.0 0.0003835
13230.0 0.00037832
13250.0 0.00037326
13270.0 0.00036856
13290.0 0.00036408
13310.0 0.00035982
13330.0 0.0003561
13350.0 0.00035291
13370.0 0.00035019
13390.0 0.00034803
13410.0 0.00034649
13430.0 0.00034542
13450.0 0.00034476
13470.0 0.00034441
13490.0 0.00034421
13510.0 0.00034407
13530.0 0.00034376
13550.0 0.00034316
13570.0 0.00034216
13590.0 0.00034061
13610.0 0.00033851
13630.0 0.00033589
13650.0 0.00033261
13670.0 0.00032879
13690.0 0.00032467
13710.0 0.00032015
13730.0 0.00031521
13750.0 0.00031042
13770.0 0.0003057
13790.0 0.00030098
13810.0 0.00029653
13830.0 0.00029254
13850.0 0.00028878
13870.0 0.00028535
13890.0 0.00028241
13910.0 0.00027986
13930.0 0.00027758
13950.0 0.00027563
13970.0 0.00027401
13990.0 0.00027255
14010.0 0.00027124
14030.0 0.00027005
14050.0 0.00026891
14070.0 0.00026773
14090.0 0.00026651
14110.0 0.00026522
14130.0 0.00026379
14150.0 0.00026217
14170.0 0.00026046
14190.0 0.00025859
14210.0 0.00025651
14230.0 0.00025434
14250.0 0.00025213
14270.0 0.00024979
14290.0 0.00024741
14310.0 0.0002452
14330.0 0.00024308
14350.0 0.00024106
14370.0 0.00023928
14390.0 0.00023778
14410.0 0.00023646
14430.0 0.0002354
14450.0 0.00023461
14470.0 0.00023405
14490.0 0.0002337
14510.0 0.00023354
14530.0 0.00023354
14550.0 0.00023369
14570.0 0.00023399
14590.0 0.0002344
14610.0 0.00023496
14630.0 0.0002357
14650.0 0.00023661
14670.0 0.00023769
14690.0 0.00023904
14710.0 0.00024065
14730.0 0.00024242
14750.0 0.00024448
14770.0 0.00024688
14790.0 0.0002495
14810.0 0.00025234
14830.0 0.00025569
14850.0 0.00025935
14870.0 0.0002632
14890.0 0.00026743
14910.0 0.00027203
14930.0 0.00027659
14950.0 0.000281
14970.0 0.00028533
14990.0 0.00028914
15010.0 0.00029223
15030.0 0.00029471
15050.0 0.00029657
15070.0 0.00029775
15090.0 0.00029851
15110.0 0.00029899
15130.0 0.00029928
15150.0 0.00029947
15170.0 0.00029961
15190.0 0.00029972
15210.0 0.00029984
15230.0 0.00029996
15250.0 0.00030007
15270.0 0.00030019
15290.0 0.00030033
15310.0 0.00030046
15330.0 0.0003006
15350.0 0.00030074
15370.0 0.00030089
15390.0 0.00030104
15410.0 0.0003012
15430.0 0.00030136
15450.0 0.00030153
15470.0 0.0003017
15490.0 0.00030187
15510.0 0.00030205
15530.0 0.00030223
15550.0 0.00030241
15570.0 0.0003026
15590.0 0.00030279
15610.0 0.00030298
15630.0 0.00030318
15650.0 0.00030338
15670.0 0.00030358
15690.0 0.00030378
15710.0 0.00030399
15730.0 0.0003042
15750.0 0.0003044
15770.0 0.00030462
15790.0 0.00030483
15810.0 0.00030504
15830.0 0.00030525
15850.0 0.00030547
15870.0 0.00030568
15890.0 0.0003059
15910.0 0.00030612
15930.0 0.00030633
15950.0 0.00030655
15970.0 0.00030676
15990.0 0.00030698
16010.0 0.00030719
16030.0 0.00030741
16050.0 0.00030762
16070.0 0.00030784
16090.0 0.00030805
16110.0 0.00030826
16130.0 0.00030847
16150.0 0.00030867
16170.0 0.00030887
16190.0 0.00030908
16210.0 0.00030928
16230.0 0.00030947
16250.0 0.00030967
16270.0 0.00030986
16290.0 0.00031005
16310.0 0.00031023
16330.0 0.00031041
16350.0 0.00031059
16370.0 0.00031076
16390.0 0.00031093
16410.0 0.00031109
16430.0 0.00031125
16450.0 0.00031141
16470.0 0.00031156
16490.0 0.0003117
16510.0 0.00031184
16530.0 0.00031197
16550.0 0.0003121
16570.0 0.00031222
16590.0 0.00031234
16610.0 0.00031245
16630.0 0.00031255
16650.0 0.00031265
16670.0 0.00031274
16690.0 0.00031282
16710.0 0.00031289
16730.0 0.00031296
16750.0 0.00031302
16770.0 0.00031307
16790.0 0.00031311
16810.0 0.00031315
16830.0 0.00031318
16850.0 0.00031319
16870.0 0.0003132
16890.0 0.00031321
16910.0 0.0003132
16930.0 0.00031317
16950.0 0.00031315
16970.0 0.00031311
16990.0 0.00031306
17010.0 0.00031301
17030.0 0.00031294
17050.0 0.00031286
17070.0 0.00031278
17090.0 0.00031268
17110.0 0.00031257
17130.0 0.00031245
17150.0 0.00031232
17170.0 0.00031218
17190.0 0.00031203
17210.0 0.00031186
17230.0 0.00031169
17250.0 0.0003115
17270.0 0.0003113
17290.0 0.00031109
17310.0 0.00031087
17330.0 0.00031064
17350.0 0.00031039
17370.0 0.00031014
17390.0 0.00030987
17410.0 0.00030958
17430.0 0.00030929
17450.0 0.00030899
17470.0 0.00030867
17490.0 0.00030833
17510.0 0.00030799
17530.0 0.00030764
17550.0 0.00030727
17570.0 0.00030689
17590.0 0.0003065
17610.0 0.00030609
17630.0 0.00030567
17650.0 0.00030525
17670.0 0.0003048
17690.0 0.00030434
17710.0 0.00030388
17730.0 0.0003034
17750.0 0.00030291
17770.0 0.0003024
17790.0 0.00030189
17810.0 0.00030136
17830.0 0.00030082
17850.0 0.00030026
17870.0 0.0002997
17890.0 0.00029912
17910.0 0.00029853
17930.0 0.00029793
17950.0 0.00029732
17970.0 0.00029669
17990.0 0.00029606
18010.0 0.00029541
18030.0 0.00029475
18050.0 0.00029408
18070.0 0.0002934
18090.0 0.0002927
18110.0 0.000292
18130.0 0.00029129
18150.0 0.00029056
18170.0 0.00028983
18190.0 0.00028908
18210.0 0.00028833
18230.0 0.00028756
18250.0 0.00028678
18270.0 0.000286
18290.0 0.0002852
18310.0 0.00028439
18330.0 0.00028358
18350.0 0.00028276
18370.0 0.00028193
18390.0 0.00028108
18410.0 0.00028024
18430.0 0.00027938
18450.0 0.00027851
18470.0 0.00027763
18490.0 0.00027675
18510.0 0.00027586
18530.0 0.00027496
18550.0 0.00027406
18570.0 0.00027315
18590.0 0.00027223
18610.0 0.0002713
18630.0 0.00027037
18650.0 0.00026943
18670.0 0.00026849
18690.0 0.00026754
18710.0 0.00026658
18730.0 0.00026562
18750.0 0.00026465
18770.0 0.00026368
18790.0 0.0002627
18810.0 0.00026172
18830.0 0.00026074
18850.0 0.00025974
18870.0 0.00025875
18890.0 0.00025775
18910.0 0.00025675
18930.0 0.00025574
18950.0 0.00025473
18970.0 0.00025372
18990.0 0.00025271
19010.0 0.00025168
19030.0 0.00025067
19050.0 0.00024964
19070.0 0.00024862
19090.0 0.00024759
19110.0 0.00024657
19130.0 0.00024553
19150.0 0.0002445
19170.0 0.00024347
19190.0 0.00024244
19210.0 0.0002414
19230.0 0.00024036
19250.0 0.00023933
19270.0 0.00023829
19290.0 0.00023725
19310.0 0.00023622
19330.0 0.00023518
19350.0 0.00023415
19370.0 0.00023311
19390.0 0.00023208
19410.0 0.00023104
19430.0 0.00023001
19450.0 0.00022898
19470.0 0.00022795
19490.0 0.00022692
19510.0 0.00022589
19530.0 0.00022487
19550.0 0.00022384
19570.0 0.00022282
19590.0 0.0002218
19610.0 0.00022078
19630.0 0.00021977
19650.0 0.00021875
19670.0 0.00021775
19690.0 0.00021674
19710.0 0.00021573
19730.0 0.00021473
19750.0 0.00021373
19770.0 0.00021274
19790.0 0.00021174
19810.0 0.00021076
19830.0 0.00020976
19850.0 0.00020877
19870.0 0.00020776
19890.0 0.00020671
19910.0 0.00020558
19930.0 0.00020434
19950.0 0.00020292
19970.0 0.00020121
19990.0 0.00019918
20010.0 0.00019686
20030.0 0.00019412
20050.0 0.000191
20070.0 0.00018767
20090.0 0.00018417
20110.0 0.00018036
20130.0 0.0001766
20150.0 0.00017294
20170.0 0.00016926
20190.0 0.00016562
20210.0 0.00016221
20230.0 0.00015891
20250.0 0.00015562
20270.0 0.00015253
20290.0 0.00014963
20310.0 0.00014679
20330.0 0.00014401
20350.0 0.0001415
20370.0 0.00013908
20390.0 0.00013672
20410.0 0.0001345
20430.0 0.00013245
20450.0 0.00013043
20470.0 0.00012852
20490.0 0.00012677
20510.0 0.00012512
20530.0 0.00012355
20550.0 0.00012213
20570.0 0.00012085
20590.0 0.00011965
20610.0 0.00011857
20630.0 0.00011762
20650.0 0.00011678
20670.0 0.00011603
20690.0 0.00011539
20710.0 0.00011485
20730.0 0.00011439
20750.0 0.00011402
20770.0 0.0001137
20790.0 0.00011344
20810.0 0.00011324
20830.0 0.00011306
20850.0 0.0001129
20870.0 0.00011277
20890.0 0.00011263
20910.0 0.00011247
20930.0 0.00011229
20950.0 0.00011208
20970.0 0.00011183
20990.0 0.00011152
21010.0 0.00011116
21030.0 0.00011073
21050.0 0.00011024
21070.0 0.00010969
21090.0 0.00010905
21110.0 0.00010835
21130.0 0.0001076
21150.0 0.00010677
21170.0 0.00010589
21190.0 0.00010497
21210.0 0.00010399
21230.0 0.00010295
21250.0 0.0001019
21270.0 0.00010083
21290.0 9.9702e-05
21310.0 9.8569e-05
21330.0 9.7463e-05
21350.0 9.6328e-05
21370.0 9.5188e-05
21390.0 9.4088e-05
21410.0 9.3014e-05
21430.0 9.1927e-05
21450.0 9.0906e-05
21470.0 8.9951e-05
21490.0 8.9031e-05
21510.0 8.8167e-05
21530.0 8.7394e-05
21550.0 8.6688e-05
21570.0 8.6047e-05
21590.0 8.5499e-05
21610.0 8.5038e-05
21630.0 8.4657e-05
21650.0 8.4366e-05
21670.0 8.4155e-05
21690.0 8.4021e-05
21710.0 8.3966e-05
21730.0 8.3975e-05
21750.0 8.4028e-05
21770.0 8.4155e-05
21790.0 8.4322e-05
21810.0 8.4503e-05
21830.0 8.4709e-05
21850.0 8.4944e-05
21870.0 8.5164e-05
21890.0 8.536e-05
21910.0 8.556e-05
21930.0 8.5735e-05
21950.0 8.5864e-05
21970.0 8.5965e-05
21990.0 8.6043e-05
22010.0 8.6062e-05
22030.0 8.6037e-05
22050.0 8.5978e-05
22070.0 8.5877e-05
22090.0 8.5731e-05
22110.0 8.5552e-05
22130.0 8.5341e-05
22150.0 8.5096e-05
22170.0 8.4824e-05
22190.0 8.4523e-05
22210.0 8.4197e-05
22230.0 8.3852e-05
22250.0 8.3482e-05
22270.0 8.3086e-05
22290.0 8.2671e-05
22310.0 8.2234e-05
22330.0 8.1759e-05
22350.0 8.1255e-05
22370.0 8.0727e-05
22390.0 8.0155e-05
22410.0 7.9529e-05
22430.0 7.8877e-05
22450.0 7.8183e-05
22470.0 7.7422e-05
22490.0 7.6617e-05
22510.0 7.5784e-05
22530.0 7.4877e-05
22550.0 7.3908e-05
22570.0 7.2929e-05
22590.0 7.1916e-05
22610.0 7.0843e-05
22630.0 6.9759e-05
22650.0 6.87e-05
22670.0 6.7602e-05
22690.0 6.6499e-05
22710.0 6.5441e-05
22730.0 6.4407e-05
22750.0 6.3355e-05
22770.0 6.2375e-05
22790.0 6.1461e-05
22810.0 6.0573e-05
22830.0 5.973e-05
22850.0 5.8969e-05
22870.0 5.8253e-05
22890.0 5.7571e-05
22910.0 5.6957e-05
22930.0 5.64e-05
22950.0 5.5875e-05
22970.0 5.5384e-05
22990.0 5.4951e-05
23010.0 5.4541e-05
23030.0 5.4147e-05
