#lamb flux
1010.0 4.5165e-07
1030.0 5.0227e-07
1050.0 5.5121e-07
1070.0 6.0644e-07
1090.0 6.7202e-07
1110.0 7.3902e-07
1130.0 8.0642e-07
1150.0 8.7722e-07
1170.0 9.5081e-07
1190.0 1.0218e-06
1210.0 1.0952e-06
1230.0 1.173e-06
1250.0 1.2511e-06
1270.0 1.3299e-06
1290.0 1.4159e-06
1310.0 1.5051e-06
1330.0 1.5945e-06
1350.0 1.6878e-06
1370.0 1.7863e-06
1390.0 1.8853e-06
1410.0 1.9837e-06
1430.0 2.0869e-06
1450.0 2.1909e-06
1470.0 2.2921e-06
1490.0 2.3936e-06
1510.0 2.4987e-06
1530.0 2.5975e-06
1550.0 2.693e-06
1570.0 2.7887e-06
1590.0 2.8813e-06
1610.0 2.9664e-06
1630.0 3.0492e-06
1650.0 3.1298e-06
1670.0 3.2032e-06
1690.0 3.2708e-06
1710.0 3.3368e-06
1730.0 3.3986e-06
1750.0 3.4508e-06
1770.0 3.5011e-06
1790.0 3.5491e-06
1810.0 3.5912e-06
1830.0 3.6293e-06
1850.0 3.6699e-06
1870.0 3.7072e-06
1890.0 3.7415e-06
1910.0 3.7776e-06
1930.0 3.8165e-06
1950.0 3.8538e-06
1970.0 3.8925e-06
1990.0 3.9367e-06
2010.0 3.9825e-06
2030.0 4.0287e-06
2050.0 4.0799e-06
2070.0 4.1352e-06
2090.0 4.1882e-06
2110.0 4.2423e-06
2130.0 4.2987e-06
2150.0 4.3533e-06
2170.0 4.4035e-06
2190.0 4.4537e-06
2210.0 4.5011e-06
2230.0 4.5417e-06
2250.0 4.5771e-06
2270.0 4.61e-06
2290.0 4.6347e-06
2310.0 4.6504e-06
2330.0 4.6614e-06
2350.0 4.6661e-06
2370.0 4.6611e-06
2390.0 4.6496e-06
2410.0 4.6334e-06
2430.0 4.6076e-06
2450.0 4.5724e-06
2470.0 4.53e-06
2490.0 4.4802e-06
2510.0 4.4228e-06
2530.0 4.3689e-06
2550.0 4.3345e-06
2570.0 4.3388e-06
2590.0 4.4038e-06
2610.0 4.5785e-06
2630.0 4.878e-06
2650.0 5.2811e-06
2670.0 5.7906e-06
2690.0 6.3795e-06
2710.0 6.9413e-06
2730.0 7.4131e-06
2750.0 7.7745e-06
2770.0 7.9386e-06
2790.0 7.8805e-06
2810.0 7.6109e-06
2830.0 7.1193e-06
2850.0 6.4698e-06
2870.0 5.6998e-06
2890.0 4.8144e-06
2910.0 3.8625e-06
2930.0 2.9002e-06
2950.0 1.881e-06
2970.0 8.2032e-07
2990.0 3.1572e-07
3010.0 5.8985e-07
3030.0 5.8985e-07
3050.0 5.8985e-07
3070.0 5.8985e-07
3090.0 5.8985e-07
3110.0 5.8985e-07
3130.0 5.8985e-07
3150.0 5.8985e-07
3170.0 5.8985e-07
3190.0 5.8985e-07
3210.0 3.8382e-06
3230.0 3.3402e-05
3250.0 5.3519e-05
3270.0 4.8246e-05
3290.0 4.0299e-05
3310.0 3.0416e-05
3330.0 2.8861e-05
3350.0 3.1478e-05
3370.0 3.5543e-05
3390.0 3.9913e-05
3410.0 4.4592e-05
3430.0 5.0851e-05
3450.0 5.6811e-05
3470.0 6.2944e-05
3490.0 6.4258e-05
3510.0 5.5208e-05
3530.0 5.0692e-05
3550.0 5.9701e-05
3570.0 6.9206e-05
3590.0 7.6186e-05
3610.0 7.6389e-05
3630.0 8.8828e-05
3650.0 9.3664e-05
3670.0 9.7741e-05
3690.0 0.00010346
3710.0 0.00010413
3730.0 0.00010768
3750.0 0.00010711
3770.0 0.00010664
3790.0 0.00010267
3810.0 9.6461e-05
3830.0 9.1309e-05
3850.0 5.7221e-05
3870.0 6.0436e-05
3890.0 6.9206e-05
3910.0 9.1042e-05
3930.0 0.00011787
3950.0 0.0001277
3970.0 0.00013701
3990.0 0.00015891
4010.0 0.00014971
4030.0 0.00013245
4050.0 9.4838e-05
4070.0 8.339e-05
4090.0 0.00011168
4110.0 0.00011776
4130.0 0.0001282
4150.0 0.00012515
4170.0 0.00011841
4190.0 0.00010844
4210.0 0.0001334
4230.0 0.0001428
4250.0 0.00015484
4270.0 0.00015006
4290.0 0.00014535
4310.0 0.00015238
4330.0 0.00017678
4350.0 0.00019132
4370.0 0.00019329
4390.0 0.0001788
4410.0 0.0001628
4430.0 0.0001273
4450.0 0.00010222
4470.0 0.00010653
4490.0 0.00012268
4510.0 0.00012922
4530.0 0.00012935
4550.0 0.00012995
4570.0 0.00018241
4590.0 0.00027195
4610.0 0.00032118
4630.0 0.00033
4650.0 0.00036237
4670.0 0.00042416
4690.0 0.00045384
4710.0 0.0003837
4730.0 0.00029358
4750.0 0.00022779
4770.0 0.00019277
4790.0 0.00017362
4810.0 0.0001643
4830.0 0.00018193
4850.0 0.00021844
4870.0 0.00024203
4890.0 0.00025107
4910.0 0.00024177
4930.0 0.00026511
4950.0 0.00031925
4970.0 0.00036394
4990.0 0.0003732
5010.0 0.00034153
5030.0 0.00028256
5050.0 0.00022027
5070.0 0.00017871
5090.0 0.00016317
5110.0 0.00016183
5130.0 0.00016459
5150.0 0.0001628
5170.0 0.00015187
5190.0 0.00014267
5210.0 0.00014197
5230.0 0.00016119
5250.0 0.0001946
5270.0 0.00023192
5290.0 0.0002598
5310.0 0.0002783
5330.0 0.00030819
5350.0 0.00033901
5370.0 0.00034392
5390.0 0.00031021
5410.0 0.000276
5430.0 0.00027208
5450.0 0.00031553
5470.0 0.00038236
5490.0 0.00043636
5510.0 0.00045794
5530.0 0.00044938
5550.0 0.00042829
5570.0 0.00041047
5590.0 0.00039219
5610.0 0.00038133
5630.0 0.00037843
5650.0 0.00037761
5670.0 0.00036376
5690.0 0.0003248
5710.0 0.00027553
5730.0 0.0002468
5750.0 0.000237
5770.0 0.00024167
5790.0 0.00024733
5810.0 0.00025226
5830.0 0.00025266
5850.0 0.00024021
5870.0 0.00022647
5890.0 0.00022112
5910.0 0.00022674
5930.0 0.0002307
5950.0 0.00021441
5970.0 0.00018603
5990.0 0.00015082
6010.0 0.00012221
6030.0 0.0001143
6050.0 0.00012437
6070.0 0.00013146
6090.0 0.00012373
6110.0 0.00010982
6130.0 0.00011318
6150.0 0.00013119
6170.0 0.00014904
6190.0 0.00016142
6210.0 0.00016424
6230.0 0.00016206
6250.0 0.00014762
6270.0 0.00012289
6290.0 0.00010145
6310.0 9.0876e-05
6330.0 8.9537e-05
6350.0 9.1078e-05
6370.0 9.3488e-05
6390.0 0.00010686
6410.0 0.00013314
6430.0 0.00016099
6450.0 0.00017711
6470.0 0.00018199
6490.0 0.00018218
6510.0 0.00018522
6530.0 0.00018934
6550.0 0.00018948
6570.0 0.00019629
6590.0 0.00020182
6610.0 0.00020437
6630.0 0.0001988
6650.0 0.00018437
6670.0 0.00016839
6690.0 0.00015515
6710.0 0.00014775
6730.0 0.00014427
6750.0 0.00014488
6770.0 0.00014882
6790.0 0.00015423
6810.0 0.00015766
6830.0 0.00015488
6850.0 0.00014686
6870.0 0.00013763
6890.0 0.00013447
6910.0 0.00013197
6930.0 0.00013652
6950.0 0.00014328
6970.0 0.0001469
6990.0 0.00014897
7010.0 0.0001443
7030.0 0.00013256
7050.0 0.00011761
7070.0 0.00010639
7090.0 0.00010155
7110.0 0.00010118
7130.0 9.716e-05
7150.0 8.6177e-05
7170.0 8.2379e-05
7190.0 9.1224e-05
7210.0 0.00010627
7230.0 0.00012153
7250.0 0.00012752
7270.0 0.00012524
7290.0 0.00011599
7310.0 0.0001078
7330.0 0.00010452
7350.0 0.00010522
7370.0 0.00010704
7390.0 0.00011238
7410.0 0.00012482
7430.0 0.00014312
7450.0 0.00015988
7470.0 0.00016702
7490.0 0.00016141
7510.0 0.00015019
7530.0 0.0001352
7550.0 0.00012532
7570.0 0.00011425
7590.0 0.00010906
7610.0 0.00011179
7630.0 0.00012028
7650.0 0.00013287
7670.0 0.00014654
7690.0 0.00015731
7710.0 0.00016759
7730.0 0.00017771
7750.0 0.00018631
7770.0 0.00018643
7790.0 0.00018892
7810.0 0.0001921
7830.0 0.00019029
7850.0 0.00018474
7870.0 0.00018074
7890.0 0.00018357
7910.0 0.00018151
7930.0 0.00017914
7950.0 0.00017114
7970.0 0.00016641
7990.0 0.00016075
8010.0 0.00016102
8030.0 0.00016284
8050.0 0.00016423
8070.0 0.00016287
8090.0 0.00016229
8110.0 0.00015789
8130.0 0.00015845
8150.0 0.00015734
8170.0 0.00015416
8190.0 0.00015115
8210.0 0.0001502
8230.0 0.00014724
8250.0 0.00014558
8270.0 0.00013382
8290.0 0.00011102
8310.0 8.5215e-05
8330.0 6.7504e-05
8350.0 6.3901e-05
8370.0 7.5724e-05
8390.0 9.1266e-05
8410.0 9.8402e-05
8430.0 0.00010105
8450.0 0.00010699
8470.0 0.00011559
8490.0 0.00012986
8510.0 0.00014818
8530.0 0.0001693
8550.0 0.00018819
8570.0 0.00020341
8590.0 0.00021515
8610.0 0.00022178
8630.0 0.00022198
8650.0 0.00021986
8670.0 0.00022059
8690.0 0.00023299
8710.0 0.00024962
8730.0 0.00026022
8750.0 0.00026002
8770.0 0.00026448
8790.0 0.00026465
8810.0 0.00025009
8830.0 0.00023503
8850.0 0.0002151
8870.0 0.00019921
8890.0 0.00019467
8910.0 0.00019476
8930.0 0.00018411
8950.0 0.0001715
8970.0 0.00016644
8990.0 0.00016589
9010.0 0.00016024
9030.0 0.00015671
9050.0 0.00015532
9070.0 0.00015467
9090.0 0.00015411
9110.0 0.00015357
9130.0 0.00015303
9150.0 0.00015251
9170.0 0.00015193
9190.0 0.00015152
9210.0 0.0001516
9230.0 0.00015083
9250.0 0.00015019
9270.0 0.00014961
9290.0 0.00014909
9310.0 0.00014858
9330.0 0.00014809
9350.0 0.00014764
9370.0 0.00014719
9390.0 0.00014673
9410.0 0.0001463
9430.0 0.00014584
9450.0 0.00014518
9470.0 0.0001446
9490.0 0.00014439
9510.0 0.00014407
9530.0 0.00014372
9550.0 0.00014335
9570.0 0.00014298
9590.0 0.00014259
9610.0 0.00014221
9630.0 0.00014182
9650.0 0.00014144
9670.0 0.00014106
9690.0 0.00014068
9710.0 0.00014031
9730.0 0.00013994
9750.0 0.00013956
9770.0 0.00013919
9790.0 0.00013882
9810.0 0.00013845
9830.0 0.00013808
9850.0 0.00013772
9870.0 0.00013735
9890.0 0.00013698
9910.0 0.0001366
9930.0 0.00013621
9950.0 0.00013489
9970.0 0.00013479
9990.0 0.00013463
10010.0 0.00013445
10030.0 0.00013418
10050.0 0.00013384
10070.0 0.00013349
10090.0 0.00013314
10110.0 0.00013272
10130.0 0.00013228
10150.0 0.00013189
10170.0 0.00013147
10190.0 0.000131
10210.0 0.00013058
10230.0 0.00013015
10250.0 0.00012968
10270.0 0.00012921
10290.0 0.00012877
10310.0 0.00012828
10330.0 0.00012774
10350.0 0.00012725
10370.0 0.00012675
10390.0 0.0001262
10410.0 0.00012565
10430.0 0.00012514
10450.0 0.00012457
10470.0 0.00012397
10490.0 0.0001234
10510.0 0.00012282
10530.0 0.00012215
10550.0 0.00012151
10570.0 0.0001209
10590.0 0.00012023
10610.0 0.00011953
10630.0 0.00011887
10650.0 0.00011818
10670.0 0.00011742
10690.0 0.00011668
10710.0 0.00011595
10730.0 0.00011517
10750.0 0.00011433
10770.0 0.00011356
10790.0 0.00011276
10810.0 0.00011189
10830.0 0.00011104
10850.0 0.00011021
10870.0 0.00010928
10890.0 0.00010833
10910.0 0.00010741
10930.0 0.00010645
10950.0 0.00010541
10970.0 0.00010436
10990.0 0.00010333
11010.0 0.00011077
11030.0 0.00010956
11050.0 0.00010837
11070.0 0.00010716
11090.0 0.00010587
11110.0 0.00010467
11130.0 0.0001035
11150.0 0.00010231
11170.0 0.00010113
11190.0 0.00010003
11210.0 9.89e-05
11230.0 9.7748e-05
11250.0 9.6647e-05
11270.0 9.5574e-05
11290.0 9.4454e-05
11310.0 9.3339e-05
11330.0 9.2299e-05
11350.0 9.1227e-05
11370.0 9.012e-05
11390.0 8.9038e-05
11410.0 8.7952e-05
11430.0 8.6762e-05
11450.0 8.5551e-05
11470.0 8.4326e-05
11490.0 8.3011e-05
11510.0 8.1583e-05
11530.0 8.015e-05
11550.0 7.8663e-05
11570.0 7.7053e-05
11590.0 7.5402e-05
11610.0 7.3761e-05
11630.0 7.2026e-05
11650.0 7.0226e-05
11670.0 6.8501e-05
11690.0 6.6784e-05
11710.0 6.5027e-05
11730.0 6.3319e-05
11750.0 6.1713e-05
11770.0 6.0088e-05
11790.0 5.8493e-05
11810.0 5.6997e-05
11830.0 5.5551e-05
11850.0 5.4085e-05
11870.0 5.271e-05
11890.0 5.1421e-05
11910.0 5.0138e-05
11930.0 4.8886e-05
11950.0 4.772e-05
11970.0 4.6585e-05
11990.0 4.545e-05
12010.0 4.4387e-05
12030.0 4.339e-05
12050.0 4.2416e-05
12070.0 4.148e-05
12090.0 4.065e-05
12110.0 3.987e-05
12130.0 3.9141e-05
12150.0 3.8499e-05
12170.0 3.7945e-05
12190.0 3.7449e-05
12210.0 3.7046e-05
12230.0 3.6738e-05
12250.0 3.6514e-05
12270.0 3.6379e-05
12290.0 3.633e-05
12310.0 3.6357e-05
12330.0 3.647e-05
12350.0 3.6658e-05
12370.0 3.6899e-05
12390.0 3.7205e-05
12410.0 3.7594e-05
12430.0 3.8e-05
12450.0 3.8434e-05
12470.0 3.8918e-05
12490.0 3.9422e-05
12510.0 3.9904e-05
12530.0 4.0404e-05
12550.0 4.0909e-05
12570.0 4.1365e-05
12590.0 4.1777e-05
12610.0 4.2163e-05
12630.0 4.2481e-05
12650.0 4.2698e-05
12670.0 4.2846e-05
12690.0 4.2906e-05
12710.0 4.2862e-05
12730.0 4.2723e-05
12750.0 4.2486e-05
12770.0 4.2152e-05
12790.0 4.1737e-05
12810.0 4.124e-05
12830.0 4.0665e-05
12850.0 4.0053e-05
12870.0 3.9406e-05
12890.0 3.8714e-05
12910.0 3.8013e-05
12930.0 3.7325e-05
12950.0 3.6623e-05
12970.0 3.5925e-05
12990.0 3.5271e-05
13010.0 3.4636e-05
13030.0 3.4011e-05
13050.0 3.3417e-05
13070.0 3.2859e-05
13090.0 3.2306e-05
13110.0 3.1766e-05
13130.0 3.1255e-05
13150.0 3.0756e-05
13170.0 3.0251e-05
13190.0 2.9768e-05
13210.0 2.9304e-05
13230.0 2.884e-05
13250.0 2.8386e-05
13270.0 2.7958e-05
13290.0 2.7544e-05
13310.0 2.7139e-05
13330.0 2.6769e-05
13350.0 2.6432e-05
13370.0 2.612e-05
13390.0 2.5841e-05
13410.0 2.5607e-05
13430.0 2.5402e-05
13450.0 2.5226e-05
13470.0 2.5078e-05
13490.0 2.4951e-05
13510.0 2.4834e-05
13530.0 2.4723e-05
13550.0 2.4609e-05
13570.0 2.4483e-05
13590.0 2.4339e-05
13610.0 2.4175e-05
13630.0 2.399e-05
13650.0 2.3775e-05
13670.0 2.3536e-05
13690.0 2.3283e-05
13710.0 2.3012e-05
13730.0 2.2718e-05
13750.0 2.2432e-05
13770.0 2.215e-05
13790.0 2.1867e-05
13810.0 2.1597e-05
13830.0 2.1351e-05
13850.0 2.1118e-05
13870.0 2.0901e-05
13890.0 2.071e-05
13910.0 2.0539e-05
13930.0 2.0381e-05
13950.0 2.0239e-05
13970.0 2.0114e-05
13990.0 1.9995e-05
14010.0 1.9879e-05
14030.0 1.9768e-05
14050.0 1.9656e-05
14070.0 1.9535e-05
14090.0 1.9409e-05
14110.0 1.9276e-05
14130.0 1.9131e-05
14150.0 1.8971e-05
14170.0 1.8807e-05
14190.0 1.8635e-05
14210.0 1.8449e-05
14230.0 1.8261e-05
14250.0 1.8076e-05
14270.0 1.7887e-05
14290.0 1.77e-05
14310.0 1.7531e-05
14330.0 1.7374e-05
14350.0 1.7228e-05
14370.0 1.7104e-05
14390.0 1.7002e-05
14410.0 1.6915e-05
14430.0 1.6848e-05
14450.0 1.6802e-05
14470.0 1.6771e-05
14490.0 1.6755e-05
14510.0 1.6752e-05
14530.0 1.6759e-05
14550.0 1.6777e-05
14570.0 1.6804e-05
14590.0 1.684e-05
14610.0 1.6887e-05
14630.0 1.6949e-05
14650.0 1.7025e-05
14670.0 1.7117e-05
14690.0 1.7231e-05
14710.0 1.737e-05
14730.0 1.7526e-05
14750.0 1.7708e-05
14770.0 1.7923e-05
14790.0 1.816e-05
14810.0 1.842e-05
14830.0 1.8727e-05
14850.0 1.9062e-05
14870.0 1.9416e-05
14890.0 1.9803e-05
14910.0 2.0223e-05
14930.0 2.0639e-05
14950.0 2.1043e-05
14970.0 2.1441e-05
14990.0 2.1795e-05
15010.0 2.2091e-05
15030.0 2.2335e-05
15050.0 2.253e-05
15070.0 2.2669e-05
15090.0 2.2774e-05
15110.0 2.2857e-05
15130.0 2.2924e-05
15150.0 2.2984e-05
15170.0 2.3041e-05
15190.0 2.3096e-05
15210.0 2.3152e-05
15230.0 2.3209e-05
15250.0 2.3266e-05
15270.0 2.3325e-05
15290.0 2.3385e-05
15310.0 2.3446e-05
15330.0 2.3508e-05
15350.0 2.3571e-05
15370.0 2.3636e-05
15390.0 2.3701e-05
15410.0 2.3767e-05
15430.0 2.3834e-05
15450.0 2.3902e-05
15470.0 2.3971e-05
15490.0 2.4041e-05
15510.0 2.4112e-05
15530.0 2.4184e-05
15550.0 2.4257e-05
15570.0 2.433e-05
15590.0 2.4404e-05
15610.0 2.4479e-05
15630.0 2.4555e-05
15650.0 2.4631e-05
15670.0 2.4708e-05
15690.0 2.4786e-05
15710.0 2.4865e-05
15730.0 2.4944e-05
15750.0 2.5023e-05
15770.0 2.5104e-05
15790.0 2.5185e-05
15810.0 2.5266e-05
15830.0 2.5347e-05
15850.0 2.543e-05
15870.0 2.5512e-05
15890.0 2.5595e-05
15910.0 2.5679e-05
15930.0 2.5763e-05
15950.0 2.5846e-05
15970.0 2.5931e-05
15990.0 2.6015e-05
16010.0 2.61e-05
16030.0 2.6185e-05
16050.0 2.627e-05
16070.0 2.6355e-05
16090.0 2.644e-05
16110.0 2.6526e-05
16130.0 2.6611e-05
16150.0 2.6696e-05
16170.0 2.6781e-05
16190.0 2.6867e-05
16210.0 2.6952e-05
16230.0 2.7037e-05
16250.0 2.7121e-05
16270.0 2.7206e-05
16290.0 2.729e-05
16310.0 2.7374e-05
16330.0 2.7458e-05
16350.0 2.7541e-05
16370.0 2.7623e-05
16390.0 2.7706e-05
16410.0 2.7788e-05
16430.0 2.7869e-05
16450.0 2.795e-05
16470.0 2.803e-05
16490.0 2.811e-05
16510.0 2.8188e-05
16530.0 2.8267e-05
16550.0 2.8344e-05
16570.0 2.8421e-05
16590.0 2.8496e-05
16610.0 2.8572e-05
16630.0 2.8646e-05
16650.0 2.8719e-05
16670.0 2.8791e-05
16690.0 2.8863e-05
16710.0 2.8933e-05
16730.0 2.9002e-05
16750.0 2.907e-05
16770.0 2.9137e-05
16790.0 2.9203e-05
16810.0 2.9267e-05
16830.0 2.9331e-05
16850.0 2.9393e-05
16870.0 2.9454e-05
16890.0 2.9513e-05
16910.0 2.9571e-05
16930.0 2.9627e-05
16950.0 2.9683e-05
16970.0 2.9737e-05
16990.0 2.9789e-05
17010.0 2.9839e-05
17030.0 2.9889e-05
17050.0 2.9936e-05
17070.0 2.9982e-05
17090.0 3.0026e-05
17110.0 3.0069e-05
17130.0 3.0109e-05
17150.0 3.0149e-05
17170.0 3.0186e-05
17190.0 3.0222e-05
17210.0 3.0255e-05
17230.0 3.0288e-05
17250.0 3.0318e-05
17270.0 3.0346e-05
17290.0 3.0372e-05
17310.0 3.0397e-05
17330.0 3.0419e-05
17350.0 3.044e-05
17370.0 3.0458e-05
17390.0 3.0475e-05
17410.0 3.049e-05
17430.0 3.0502e-05
17450.0 3.0513e-05
17470.0 3.0521e-05
17490.0 3.0528e-05
17510.0 3.0532e-05
17530.0 3.0535e-05
17550.0 3.0535e-05
17570.0 3.0533e-05
17590.0 3.0529e-05
17610.0 3.0523e-05
17630.0 3.0515e-05
17650.0 3.0505e-05
17670.0 3.0493e-05
17690.0 3.0478e-05
17710.0 3.0461e-05
17730.0 3.0443e-05
17750.0 3.0422e-05
17770.0 3.0399e-05
17790.0 3.0374e-05
17810.0 3.0347e-05
17830.0 3.0317e-05
17850.0 3.0286e-05
17870.0 3.0253e-05
17890.0 3.0217e-05
17910.0 3.0179e-05
17930.0 3.014e-05
17950.0 3.0098e-05
17970.0 3.0054e-05
17990.0 3.0009e-05
18010.0 2.9961e-05
18030.0 2.9911e-05
18050.0 2.9859e-05
18070.0 2.9806e-05
18090.0 2.975e-05
18110.0 2.9692e-05
18130.0 2.9633e-05
18150.0 2.9571e-05
18170.0 2.9508e-05
18190.0 2.9443e-05
18210.0 2.9376e-05
18230.0 2.9307e-05
18250.0 2.9236e-05
18270.0 2.9164e-05
18290.0 2.909e-05
18310.0 2.9014e-05
18330.0 2.8936e-05
18350.0 2.8857e-05
18370.0 2.8776e-05
18390.0 2.8693e-05
18410.0 2.8609e-05
18430.0 2.8524e-05
18450.0 2.8436e-05
18470.0 2.8348e-05
18490.0 2.8258e-05
18510.0 2.8166e-05
18530.0 2.8073e-05
18550.0 2.7979e-05
18570.0 2.7883e-05
18590.0 2.7785e-05
18610.0 2.7687e-05
18630.0 2.7587e-05
18650.0 2.7486e-05
18670.0 2.7384e-05
18690.0 2.7281e-05
18710.0 2.7177e-05
18730.0 2.7071e-05
18750.0 2.6964e-05
18770.0 2.6857e-05
18790.0 2.6748e-05
18810.0 2.6638e-05
18830.0 2.6528e-05
18850.0 2.6416e-05
18870.0 2.6304e-05
18890.0 2.6191e-05
18910.0 2.6077e-05
18930.0 2.5962e-05
18950.0 2.5846e-05
18970.0 2.573e-05
18990.0 2.5613e-05
19010.0 2.5495e-05
19030.0 2.5377e-05
19050.0 2.5259e-05
19070.0 2.5139e-05
19090.0 2.5019e-05
19110.0 2.4899e-05
19130.0 2.4778e-05
19150.0 2.4657e-05
19170.0 2.4535e-05
19190.0 2.4413e-05
19210.0 2.4291e-05
19230.0 2.4168e-05
19250.0 2.4045e-05
19270.0 2.3922e-05
19290.0 2.3798e-05
19310.0 2.3675e-05
19330.0 2.3551e-05
19350.0 2.3427e-05
19370.0 2.3303e-05
19390.0 2.3179e-05
19410.0 2.3054e-05
19430.0 2.293e-05
19450.0 2.2806e-05
19470.0 2.2682e-05
19490.0 2.2557e-05
19510.0 2.2433e-05
19530.0 2.2309e-05
19550.0 2.2185e-05
19570.0 2.2061e-05
19590.0 2.1938e-05
19610.0 2.1814e-05
19630.0 2.1691e-05
19650.0 2.1568e-05
19670.0 2.1445e-05
19690.0 2.1322e-05
19710.0 2.12e-05
19730.0 2.1078e-05
19750.0 2.0956e-05
19770.0 2.0835e-05
19790.0 2.0714e-05
19810.0 2.0593e-05
19830.0 2.0472e-05
19850.0 2.0351e-05
19870.0 2.0228e-05
19890.0 2.0102e-05
19910.0 1.9967e-05
19930.0 1.9822e-05
19950.0 1.966e-05
19970.0 1.947e-05
19990.0 1.9248e-05
20010.0 1.8998e-05
20030.0 1.8708e-05
20050.0 1.8381e-05
20070.0 1.8035e-05
20090.0 1.7672e-05
20110.0 1.7281e-05
20130.0 1.6894e-05
20150.0 1.6519e-05
20170.0 1.6142e-05
20190.0 1.5769e-05
20210.0 1.5418e-05
20230.0 1.508e-05
20250.0 1.4744e-05
20270.0 1.4428e-05
20290.0 1.4132e-05
20310.0 1.3845e-05
20330.0 1.3566e-05
20350.0 1.3315e-05
20370.0 1.3075e-05
20390.0 1.2844e-05
20410.0 1.263e-05
20430.0 1.2432e-05
20450.0 1.2241e-05
20470.0 1.2062e-05
20490.0 1.1899e-05
20510.0 1.1746e-05
20530.0 1.1602e-05
20550.0 1.1471e-05
20570.0 1.1351e-05
20590.0 1.1238e-05
20610.0 1.1135e-05
20630.0 1.1041e-05
20650.0 1.0954e-05
20670.0 1.0873e-05
20690.0 1.0799e-05
20710.0 1.0731e-05
20730.0 1.0667e-05
20750.0 1.0607e-05
20770.0 1.0549e-05
20790.0 1.0494e-05
20810.0 1.044e-05
20830.0 1.0386e-05
20850.0 1.0333e-05
20870.0 1.0278e-05
20890.0 1.0223e-05
20910.0 1.0165e-05
20930.0 1.0105e-05
20950.0 1.0041e-05
20970.0 9.9755e-06
20990.0 9.9067e-06
21010.0 9.8336e-06
21030.0 9.7573e-06
21050.0 9.6784e-06
21070.0 9.5957e-06
21090.0 9.5086e-06
21110.0 9.4203e-06
21130.0 9.3298e-06
21150.0 9.2355e-06
21170.0 9.1394e-06
21190.0 9.0436e-06
21210.0 8.9445e-06
21230.0 8.8431e-06
21250.0 8.7433e-06
21270.0 8.6435e-06
21290.0 8.5418e-06
21310.0 8.441e-06
21330.0 8.3436e-06
21350.0 8.2455e-06
21370.0 8.1482e-06
21390.0 8.0548e-06
21410.0 7.9641e-06
21430.0 7.8734e-06
21450.0 7.7878e-06
21470.0 7.7074e-06
21490.0 7.6297e-06
21510.0 7.5561e-06
21530.0 7.4886e-06
21550.0 7.4257e-06
21570.0 7.3669e-06
21590.0 7.3141e-06
21610.0 7.2667e-06
21630.0 7.2241e-06
21650.0 7.1867e-06
21670.0 7.1544e-06
21690.0 7.1264e-06
21710.0 7.1031e-06
21730.0 7.0834e-06
21750.0 7.0666e-06
21770.0 7.0538e-06
21790.0 7.0436e-06
21810.0 7.0344e-06
21830.0 7.027e-06
21850.0 7.0213e-06
21870.0 7.0153e-06
21890.0 7.0083e-06
21910.0 7.0019e-06
21930.0 6.9945e-06
21950.0 6.9849e-06
21970.0 6.9742e-06
21990.0 6.9625e-06
22010.0 6.9479e-06
22030.0 6.9311e-06
22050.0 6.9126e-06
22070.0 6.892e-06
22090.0 6.8692e-06
22110.0 6.8447e-06
22130.0 6.8185e-06
22150.0 6.7907e-06
22170.0 6.7615e-06
22190.0 6.731e-06
22210.0 6.6991e-06
22230.0 6.6664e-06
22250.0 6.6325e-06
22270.0 6.5971e-06
22290.0 6.5609e-06
22310.0 6.5233e-06
22330.0 6.4835e-06
22350.0 6.4419e-06
22370.0 6.3986e-06
22390.0 6.3524e-06
22410.0 6.3023e-06
22430.0 6.2504e-06
22450.0 6.1952e-06
22470.0 6.1351e-06
22490.0 6.0715e-06
22510.0 6.0057e-06
22530.0 5.9341e-06
22550.0 5.8576e-06
22570.0 5.7799e-06
22590.0 5.6993e-06
22610.0 5.614e-06
