#lamb flux
1010.0 2.8919e-09
1030.0 3.1984e-09
1050.0 3.551e-09
1070.0 3.9479e-09
1090.0 4.3988e-09
1110.0 4.8612e-09
1130.0 5.3266e-09
1150.0 5.8141e-09
1170.0 6.317e-09
1190.0 6.7938e-09
1210.0 7.2771e-09
1230.0 7.7765e-09
1250.0 8.2658e-09
1270.0 8.741e-09
1290.0 9.2431e-09
1310.0 9.7449e-09
1330.0 1.0226e-08
1350.0 1.0713e-08
1370.0 1.1215e-08
1390.0 1.1705e-08
1410.0 1.218e-08
1430.0 1.2677e-08
1450.0 1.3174e-08
1470.0 1.3654e-08
1490.0 1.414e-08
1510.0 1.4652e-08
1530.0 1.5138e-08
1550.0 1.5618e-08
1570.0 1.6114e-08
1590.0 1.6611e-08
1610.0 1.7085e-08
1630.0 1.7575e-08
1650.0 1.8078e-08
1670.0 1.8564e-08
1690.0 1.9045e-08
1710.0 1.9544e-08
1730.0 2.0047e-08
1750.0 2.052e-08
1770.0 2.1008e-08
1790.0 2.1506e-08
1810.0 2.1988e-08
1830.0 2.2463e-08
1850.0 2.2968e-08
1870.0 2.346e-08
1890.0 2.3937e-08
1910.0 2.4424e-08
1930.0 2.4924e-08
1950.0 2.5403e-08
1970.0 2.5876e-08
1990.0 2.6369e-08
2010.0 2.6854e-08
2030.0 2.7324e-08
2050.0 2.7809e-08
2070.0 2.8307e-08
2090.0 2.8778e-08
2110.0 2.9248e-08
2130.0 2.9734e-08
2150.0 3.0211e-08
2170.0 3.0669e-08
2190.0 3.1145e-08
2210.0 3.1624e-08
2230.0 3.2085e-08
2250.0 3.2545e-08
2270.0 3.3026e-08
2290.0 3.3492e-08
2310.0 3.3941e-08
2330.0 3.4407e-08
2350.0 3.4886e-08
2370.0 3.5363e-08
2390.0 3.588e-08
2410.0 3.6493e-08
2430.0 3.7197e-08
2450.0 3.8039e-08
2470.0 3.9117e-08
2490.0 4.0476e-08
2510.0 4.2022e-08
2530.0 4.3882e-08
2550.0 4.621e-08
2570.0 4.9106e-08
2590.0 5.2874e-08
2610.0 5.8514e-08
2630.0 6.6568e-08
2650.0 7.7098e-08
2670.0 9.0713e-08
2690.0 1.0744e-07
2710.0 1.253e-07
2730.0 1.4295e-07
2750.0 1.6033e-07
2770.0 1.7545e-07
2790.0 1.8746e-07
2810.0 1.9698e-07
2830.0 2.0443e-07
2850.0 2.0951e-07
2870.0 2.1324e-07
2890.0 2.1619e-07
2910.0 2.1855e-07
2930.0 2.2047e-07
2950.0 2.2231e-07
2970.0 2.2411e-07
2990.0 2.2579e-07
3010.0 6.3822e-06
3030.0 6.4299e-06
3050.0 6.4761e-06
3070.0 6.5155e-06
3090.0 6.5495e-06
3110.0 6.5706e-06
3130.0 6.5697e-06
3150.0 6.5405e-06
3170.0 6.4705e-06
3190.0 6.3605e-06
3210.0 6.221e-06
3230.0 6.0613e-06
3250.0 5.9037e-06
3270.0 5.7885e-06
3290.0 5.7245e-06
3310.0 5.7349e-06
3330.0 5.8179e-06
3350.0 5.9624e-06
3370.0 6.1688e-06
3390.0 6.4289e-06
3410.0 6.7119e-06
3430.0 7.0297e-06
3450.0 7.3955e-06
3470.0 7.795e-06
3490.0 8.2184e-06
3510.0 8.6969e-06
3530.0 9.2093e-06
3550.0 9.7281e-06
3570.0 1.0269e-05
3590.0 1.0858e-05
3610.0 1.1464e-05
3630.0 1.2069e-05
3650.0 1.2696e-05
3670.0 1.3269e-05
3690.0 1.3697e-05
3710.0 1.3942e-05
3730.0 1.3951e-05
3750.0 1.3756e-05
3770.0 1.368e-05
3790.0 1.3599e-05
3810.0 1.3265e-05
3830.0 1.3675e-05
3850.0 1.529e-05
3870.0 1.6177e-05
3890.0 1.6103e-05
3910.0 1.6172e-05
3930.0 1.6598e-05
3950.0 1.686e-05
3970.0 1.5361e-05
3990.0 1.3217e-05
4010.0 3.9613e-05
4030.0 4.7997e-05
4050.0 5.5026e-05
4070.0 4.7744e-05
4090.0 4.3242e-05
4110.0 3.8157e-05
4130.0 3.512e-05
4150.0 3.7357e-05
4170.0 3.6798e-05
4190.0 3.9224e-05
4210.0 3.8865e-05
4230.0 4.1109e-05
4250.0 4.8633e-05
4270.0 4.9205e-05
4290.0 4.5342e-05
4310.0 4.7113e-05
4330.0 5.0114e-05
4350.0 5.619e-05
4370.0 6.3946e-05
4390.0 6.0006e-05
4410.0 4.4334e-05
4430.0 3.7531e-05
4450.0 3.4487e-05
4470.0 2.647e-05
4490.0 2.8564e-05
4510.0 4.3148e-05
4530.0 4.9762e-05
4550.0 5.0194e-05
4570.0 5.648e-05
4590.0 6.4337e-05
4610.0 8.6775e-05
4630.0 0.0001127
4650.0 0.00012223
4670.0 0.00011319
4690.0 0.00010801
4710.0 0.00011417
4730.0 0.00010774
4750.0 8.0552e-05
4770.0 5.9087e-05
4790.0 5.5176e-05
4810.0 5.2592e-05
4830.0 4.8148e-05
4850.0 5.2834e-05
4870.0 6.9798e-05
4890.0 8.2312e-05
4910.0 7.2218e-05
4930.0 6.3903e-05
4950.0 7.0207e-05
4970.0 9.0036e-05
4990.0 0.00012202
5010.0 0.00014037
5030.0 0.00012377
5050.0 8.374e-05
5070.0 5.5188e-05
5090.0 4.4501e-05
5110.0 4.5765e-05
5130.0 5.282e-05
5150.0 5.7226e-05
5170.0 5.6367e-05
5190.0 5.2672e-05
5210.0 5.5054e-05
5230.0 5.7876e-05
5250.0 6.2376e-05
5270.0 6.73e-05
5290.0 7.4585e-05
5310.0 8.6816e-05
5330.0 9.6076e-05
5350.0 9.5465e-05
5370.0 0.00010028
5390.0 0.00011507
5410.0 0.00011497
5430.0 0.00010168
5450.0 9.3423e-05
5470.0 9.9201e-05
5490.0 0.0001212
5510.0 0.00015154
5530.0 0.00017382
5550.0 0.000168
5570.0 0.00015273
5590.0 0.0001328
5610.0 0.00012248
5630.0 0.00011877
5650.0 0.00011312
5670.0 0.00010719
5690.0 9.5829e-05
5710.0 9.3437e-05
5730.0 8.6072e-05
5750.0 6.0686e-05
5770.0 4.7347e-05
5790.0 5.3655e-05
5810.0 6.0587e-05
5830.0 7.4351e-05
5850.0 8.8509e-05
5870.0 9.8204e-05
5890.0 9.987e-05
5910.0 9.7982e-05
5930.0 9.327e-05
5950.0 9.5043e-05
5970.0 0.00010834
5990.0 0.00010187
6010.0 8.5399e-05
6030.0 7.2149e-05
6050.0 6.2833e-05
6070.0 6.249e-05
6090.0 6.776e-05
6110.0 7.5767e-05
6130.0 7.6927e-05
6150.0 6.6189e-05
6170.0 5.8225e-05
6190.0 6.5524e-05
6210.0 8.6622e-05
6230.0 0.00011367
6250.0 0.00012312
6270.0 0.00010759
6290.0 9.0524e-05
6310.0 7.067e-05
6330.0 5.4147e-05
6350.0 4.8297e-05
6370.0 5.079e-05
6390.0 5.8716e-05
6410.0 7.24e-05
6430.0 8.4543e-05
6450.0 9.6739e-05
6470.0 0.00011077
6490.0 0.0001338
6510.0 0.00014961
6530.0 0.00014677
6550.0 0.00013272
6570.0 0.00011267
6590.0 0.0001016
6610.0 8.7603e-05
6630.0 7.9365e-05
6650.0 7.5023e-05
6670.0 7.2883e-05
6690.0 6.5853e-05
6710.0 5.9862e-05
6730.0 4.3117e-05
6750.0 4.2746e-05
6770.0 4.6463e-05
6790.0 5.3406e-05
6810.0 4.8867e-05
6830.0 5.0319e-05
6850.0 4.7064e-05
6870.0 4.2993e-05
6890.0 4.128e-05
6910.0 4.3989e-05
6930.0 4.1202e-05
6950.0 4.239e-05
6970.0 4.4587e-05
6990.0 5.061e-05
7010.0 5.1041e-05
7030.0 5.1852e-05
7050.0 4.9449e-05
7070.0 4.7116e-05
7090.0 4.7254e-05
7110.0 4.8621e-05
7130.0 5.2324e-05
7150.0 5.5572e-05
7170.0 6.132e-05
7190.0 6.7408e-05
7210.0 6.6237e-05
7230.0 6.8092e-05
7250.0 7.3176e-05
7270.0 7.9744e-05
7290.0 9.4648e-05
7310.0 0.0001027
7330.0 9.927e-05
7350.0 8.9784e-05
7370.0 7.812e-05
7390.0 7.5786e-05
7410.0 8.0538e-05
7430.0 8.9507e-05
7450.0 9.749e-05
7470.0 9.6594e-05
7490.0 8.8075e-05
7510.0 9.9768e-05
7530.0 9.8674e-05
7550.0 8.8689e-05
7570.0 6.9282e-05
7590.0 4.7628e-05
7610.0 4.0878e-05
7630.0 4.6445e-05
7650.0 5.4915e-05
7670.0 6.8345e-05
7690.0 7.5207e-05
7710.0 7.8374e-05
7730.0 8.236e-05
7750.0 9.2458e-05
7770.0 9.3911e-05
7790.0 8.6261e-05
7810.0 7.8707e-05
7830.0 8.1163e-05
7850.0 7.8897e-05
7870.0 7.2335e-05
7890.0 6.0775e-05
7910.0 4.9401e-05
7930.0 4.717e-05
7950.0 4.2973e-05
7970.0 3.9778e-05
7990.0 3.9551e-05
8010.0 2.9613e-06
8030.0 2.9189e-06
8050.0 2.8831e-06
8070.0 2.9275e-06
8090.0 3.1551e-06
8110.0 3.0994e-06
8130.0 2.5405e-06
8150.0 2.478e-06
8170.0 2.1214e-06
8190.0 2.0012e-06
8210.0 2.6218e-06
8230.0 2.9231e-06
8250.0 2.6112e-06
8270.0 2.2697e-06
8290.0 2.2288e-06
8310.0 1.7194e-06
8330.0 1.1577e-06
8350.0 8.2268e-07
8370.0 5.1162e-07
8390.0 9.468e-07
8410.0 1.1027e-06
8430.0 1.3591e-06
8450.0 1.5954e-06
8470.0 1.9926e-06
8490.0 1.9728e-06
8510.0 1.9345e-06
8530.0 2.007e-06
8550.0 2.7336e-06
8570.0 3.2495e-06
8590.0 3.4831e-06
8610.0 4.4105e-06
8630.0 5.3066e-06
8650.0 5.5177e-06
8670.0 5.8793e-06
8690.0 5.9412e-06
8710.0 5.3755e-06
8730.0 5.0097e-06
8750.0 4.4139e-06
8770.0 4.1841e-06
8790.0 4.117e-06
8810.0 3.9526e-06
8830.0 3.1445e-06
8850.0 2.2897e-06
8870.0 1.7513e-06
8890.0 1.7291e-06
8910.0 1.9937e-06
8930.0 2.2765e-06
8950.0 2.3235e-06
8970.0 2.3315e-06
8990.0 2.069e-06
9010.0 2.13e-05
9030.0 1.9288e-05
9050.0 1.9383e-05
9070.0 1.9538e-05
9090.0 1.9673e-05
9110.0 1.984e-05
9130.0 1.9969e-05
9150.0 2.007e-05
9170.0 2.0176e-05
9190.0 2.029e-05
9210.0 2.0411e-05
9230.0 2.0537e-05
9250.0 2.0666e-05
9270.0 2.08e-05
9290.0 2.0937e-05
9310.0 2.1076e-05
9330.0 2.1217e-05
9350.0 2.1363e-05
9370.0 2.1511e-05
9390.0 2.1661e-05
9410.0 2.1815e-05
9430.0 2.1973e-05
9450.0 2.2131e-05
9470.0 2.2292e-05
9490.0 2.2458e-05
9510.0 2.2626e-05
9530.0 2.2794e-05
9550.0 2.2969e-05
9570.0 2.3146e-05
9590.0 2.3324e-05
9610.0 2.3505e-05
9630.0 2.3691e-05
9650.0 2.3878e-05
9670.0 2.4066e-05
9690.0 2.4259e-05
9710.0 2.4455e-05
9730.0 2.4651e-05
9750.0 2.485e-05
9770.0 2.5055e-05
9790.0 2.526e-05
9810.0 2.5465e-05
9830.0 2.5676e-05
9850.0 2.5888e-05
9870.0 2.61e-05
9890.0 2.6316e-05
9910.0 2.6535e-05
9930.0 2.6755e-05
9950.0 2.6975e-05
9970.0 2.72e-05
9990.0 2.7427e-05
10010.0 2.38e-05
10030.0 2.3996e-05
10050.0 2.4197e-05
10070.0 2.4404e-05
10090.0 2.4599e-05
10110.0 2.4799e-05
10130.0 2.5e-05
10150.0 2.52e-05
10170.0 2.5403e-05
10190.0 2.5609e-05
10210.0 2.5812e-05
10230.0 2.6016e-05
10250.0 2.6222e-05
10270.0 2.6428e-05
10290.0 2.6632e-05
10310.0 2.6838e-05
10330.0 2.7046e-05
10350.0 2.7251e-05
10370.0 2.7455e-05
10390.0 2.7661e-05
10410.0 2.7867e-05
10430.0 2.8068e-05
10450.0 2.8272e-05
10470.0 2.8476e-05
10490.0 2.8676e-05
10510.0 2.8875e-05
10530.0 2.9078e-05
10550.0 2.9277e-05
10570.0 2.9472e-05
10590.0 2.9668e-05
10610.0 2.9863e-05
10630.0 3.0054e-05
10650.0 3.0244e-05
10670.0 3.0435e-05
10690.0 3.0623e-05
10710.0 3.0806e-05
10730.0 3.099e-05
10750.0 3.1175e-05
10770.0 3.1351e-05
10790.0 3.1527e-05
10810.0 3.1702e-05
10830.0 3.1871e-05
10850.0 3.2033e-05
10870.0 3.2189e-05
10890.0 3.2326e-05
10910.0 3.2432e-05
10930.0 3.2492e-05
10950.0 3.2478e-05
10970.0 3.2369e-05
10990.0 3.2153e-05
11010.0 3.175e-05
11030.0 3.1245e-05
11050.0 3.0629e-05
11070.0 2.9893e-05
11090.0 2.9008e-05
11110.0 2.8094e-05
11130.0 2.7139e-05
11150.0 2.6112e-05
11170.0 2.5053e-05
11190.0 2.4025e-05
11210.0 2.2965e-05
11230.0 2.1877e-05
11250.0 2.0837e-05
11270.0 1.9839e-05
11290.0 1.8839e-05
11310.0 1.7891e-05
11330.0 1.7057e-05
11350.0 1.6269e-05
11370.0 1.554e-05
11390.0 1.491e-05
11410.0 1.4359e-05
11430.0 1.3847e-05
11450.0 1.3405e-05
11470.0 1.3024e-05
11490.0 1.2668e-05
11510.0 1.2326e-05
11530.0 1.2009e-05
11550.0 1.1693e-05
11570.0 1.1357e-05
11590.0 1.1008e-05
11610.0 1.0654e-05
11630.0 1.0268e-05
11650.0 9.8543e-06
11670.0 9.4469e-06
11690.0 9.0338e-06
11710.0 8.6077e-06
11730.0 8.1947e-06
11750.0 7.8126e-06
11770.0 7.4378e-06
11790.0 7.0865e-06
11810.0 6.7773e-06
11830.0 6.5008e-06
11850.0 6.2461e-06
11870.0 6.033e-06
11890.0 5.8559e-06
11910.0 5.7003e-06
11930.0 5.5665e-06
11950.0 5.4551e-06
11970.0 5.3556e-06
11990.0 5.2615e-06
12010.0 5.1745e-06
12030.0 5.0906e-06
12050.0 5.0039e-06
12070.0 4.9137e-06
12090.0 4.8268e-06
12110.0 4.7385e-06
12130.0 4.6501e-06
12150.0 4.5686e-06
12170.0 4.4974e-06
12190.0 4.4358e-06
12210.0 4.3929e-06
12230.0 4.3721e-06
12250.0 4.3755e-06
12270.0 4.4085e-06
12290.0 4.4708e-06
12310.0 4.5603e-06
12330.0 4.6854e-06
12350.0 4.8417e-06
12370.0 5.0195e-06
12390.0 5.2246e-06
12410.0 5.4649e-06
12430.0 5.7091e-06
12450.0 5.962e-06
12470.0 6.2309e-06
12490.0 6.501e-06
12510.0 6.7544e-06
12530.0 7.0064e-06
12550.0 7.2496e-06
12570.0 7.4643e-06
12590.0 7.6527e-06
12610.0 7.8206e-06
12630.0 7.9545e-06
12650.0 8.0469e-06
12670.0 8.1076e-06
12690.0 8.132e-06
12710.0 8.1186e-06
12730.0 8.0715e-06
12750.0 7.9875e-06
12770.0 7.8723e-06
12790.0 7.7326e-06
12810.0 7.5657e-06
12830.0 7.3727e-06
12850.0 7.1708e-06
12870.0 6.9573e-06
12890.0 6.7264e-06
12910.0 6.4916e-06
12930.0 6.2602e-06
12950.0 6.0187e-06
12970.0 5.7729e-06
12990.0 5.5404e-06
13010.0 5.3107e-06
13030.0 5.0785e-06
13050.0 4.8555e-06
13070.0 4.6466e-06
13090.0 4.4369e-06
13110.0 4.234e-06
13130.0 4.047e-06
13150.0 3.8699e-06
13170.0 3.6965e-06
13190.0 3.5422e-06
13210.0 3.4064e-06
13230.0 3.2823e-06
13250.0 3.1754e-06
13270.0 3.091e-06
13290.0 3.0254e-06
13310.0 2.9803e-06
13330.0 2.9597e-06
13350.0 2.9621e-06
13370.0 2.9886e-06
13390.0 3.0408e-06
13410.0 3.1114e-06
13430.0 3.2031e-06
13450.0 3.3163e-06
13470.0 3.442e-06
13490.0 3.5752e-06
13510.0 3.7254e-06
13530.0 3.8776e-06
13550.0 4.0233e-06
13570.0 4.167e-06
13590.0 4.3071e-06
13610.0 4.4316e-06
13630.0 4.5404e-06
13650.0 4.6397e-06
13670.0 4.7221e-06
13690.0 4.7859e-06
13710.0 4.8351e-06
13730.0 4.8704e-06
13750.0 4.888e-06
13770.0 4.892e-06
13790.0 4.8831e-06
13810.0 4.8615e-06
13830.0 4.8297e-06
13850.0 4.7865e-06
13870.0 4.7321e-06
13890.0 4.6699e-06
13910.0 4.5997e-06
13930.0 4.5185e-06
13950.0 4.4299e-06
13970.0 4.3392e-06
13990.0 4.2405e-06
14010.0 4.1356e-06
14030.0 4.0309e-06
14050.0 3.9253e-06
14070.0 3.814e-06
14090.0 3.7072e-06
14110.0 3.6069e-06
14130.0 3.5097e-06
14150.0 3.4182e-06
14170.0 3.3401e-06
14190.0 3.2725e-06
14210.0 3.2152e-06
14230.0 3.1728e-06
14250.0 3.1454e-06
14270.0 3.1321e-06
14290.0 3.1349e-06
14310.0 3.1524e-06
14330.0 3.1837e-06
14350.0 3.2299e-06
14370.0 3.2874e-06
14390.0 3.3528e-06
14410.0 3.4297e-06
14430.0 3.5142e-06
14450.0 3.6005e-06
14470.0 3.6901e-06
14490.0 3.7853e-06
14510.0 3.8763e-06
14530.0 3.9628e-06
14550.0 4.0492e-06
14570.0 4.1322e-06
14590.0 4.2078e-06
14610.0 4.2808e-06
14630.0 4.3531e-06
14650.0 4.4205e-06
14670.0 4.4855e-06
14690.0 4.5533e-06
14710.0 4.6246e-06
14730.0 4.6959e-06
14750.0 4.7749e-06
14770.0 4.8645e-06
14790.0 4.9616e-06
14810.0 5.0668e-06
14830.0 5.1915e-06
14850.0 5.327e-06
14870.0 5.4684e-06
14890.0 5.6209e-06
14910.0 5.7829e-06
14930.0 5.9387e-06
14950.0 6.0843e-06
14970.0 6.2221e-06
14990.0 6.3376e-06
15010.0 6.426e-06
15030.0 6.4914e-06
15050.0 6.5347e-06
15070.0 6.5559e-06
15090.0 6.5633e-06
15110.0 6.5611e-06
15130.0 6.5529e-06
15150.0 6.5418e-06
15170.0 6.5287e-06
15190.0 6.5146e-06
15210.0 6.5008e-06
15230.0 6.487e-06
15250.0 6.4726e-06
15270.0 6.4585e-06
15290.0 6.4451e-06
15310.0 6.4313e-06
15330.0 6.4174e-06
15350.0 6.404e-06
15370.0 6.3908e-06
15390.0 6.3768e-06
15410.0 6.3633e-06
15430.0 6.3503e-06
15450.0 6.3369e-06
15470.0 6.3233e-06
15490.0 6.3104e-06
15510.0 6.2976e-06
15530.0 6.2843e-06
15550.0 6.2713e-06
15570.0 6.2587e-06
15590.0 6.2456e-06
15610.0 6.2323e-06
15630.0 6.2198e-06
15650.0 6.2072e-06
15670.0 6.1942e-06
15690.0 6.1815e-06
15710.0 6.1693e-06
15730.0 6.1565e-06
15750.0 6.1437e-06
15770.0 6.1315e-06
15790.0 6.1191e-06
15810.0 6.1061e-06
15830.0 6.0937e-06
15850.0 6.0817e-06
15870.0 6.0691e-06
15890.0 6.0566e-06
15910.0 6.0446e-06
15930.0 6.0324e-06
15950.0 6.0197e-06
15970.0 6.0074e-06
15990.0 5.9954e-06
16010.0 5.983e-06
16030.0 5.9704e-06
16050.0 5.9586e-06
16070.0 5.9464e-06
16090.0 5.934e-06
16110.0 5.9219e-06
16130.0 5.9101e-06
16150.0 5.8974e-06
16170.0 5.885e-06
16190.0 5.8731e-06
16210.0 5.861e-06
16230.0 5.8484e-06
16250.0 5.8364e-06
16270.0 5.8246e-06
16290.0 5.8121e-06
16310.0 5.7998e-06
16330.0 5.7879e-06
16350.0 5.7757e-06
16370.0 5.7628e-06
16390.0 5.7508e-06
16410.0 5.7388e-06
16430.0 5.7263e-06
16450.0 5.714e-06
16470.0 5.7022e-06
16490.0 5.6897e-06
16510.0 5.6771e-06
16530.0 5.6649e-06
16550.0 5.6527e-06
16570.0 5.64e-06
16590.0 5.6274e-06
16610.0 5.6154e-06
16630.0 5.6029e-06
16650.0 5.5903e-06
16670.0 5.578e-06
16690.0 5.5658e-06
16710.0 5.5527e-06
16730.0 5.5401e-06
16750.0 5.5279e-06
16770.0 5.5151e-06
16790.0 5.5021e-06
16810.0 5.4898e-06
16830.0 5.4773e-06
16850.0 5.4643e-06
16870.0 5.4516e-06
16890.0 5.4392e-06
16910.0 5.4261e-06
16930.0 5.4129e-06
16950.0 5.4003e-06
16970.0 5.3876e-06
16990.0 5.3743e-06
17010.0 5.3614e-06
17030.0 5.3489e-06
17050.0 5.3356e-06
17070.0 5.3223e-06
17090.0 5.3095e-06
17110.0 5.2965e-06
17130.0 5.2828e-06
17150.0 5.2697e-06
17170.0 5.2568e-06
17190.0 5.2434e-06
17210.0 5.2299e-06
17230.0 5.217e-06
17250.0 5.2037e-06
17270.0 5.1898e-06
17290.0 5.1765e-06
17310.0 5.1633e-06
17330.0 5.1495e-06
17350.0 5.1357e-06
17370.0 5.1226e-06
17390.0 5.109e-06
17410.0 5.0951e-06
17430.0 5.0816e-06
17450.0 5.0683e-06
17470.0 5.054e-06
17490.0 5.0401e-06
17510.0 5.0266e-06
17530.0 5.0128e-06
17550.0 4.9986e-06
17570.0 4.9849e-06
17590.0 4.9713e-06
17610.0 4.957e-06
17630.0 4.9429e-06
17650.0 4.9292e-06
17670.0 4.9151e-06
17690.0 4.9004e-06
17710.0 4.8866e-06
17730.0 4.8726e-06
17750.0 4.8582e-06
17770.0 4.8439e-06
17790.0 4.8302e-06
17810.0 4.8157e-06
17830.0 4.8011e-06
17850.0 4.7869e-06
17870.0 4.7727e-06
17890.0 4.7579e-06
17910.0 4.7434e-06
17930.0 4.7294e-06
17950.0 4.7148e-06
17970.0 4.7001e-06
17990.0 4.6859e-06
18010.0 4.6715e-06
18030.0 4.6564e-06
18050.0 4.6418e-06
18070.0 4.6275e-06
18090.0 4.6127e-06
18110.0 4.5976e-06
18130.0 4.5833e-06
18150.0 4.5688e-06
18170.0 4.5537e-06
18190.0 4.539e-06
18210.0 4.5246e-06
18230.0 4.5094e-06
18250.0 4.4942e-06
18270.0 4.4797e-06
18290.0 4.4649e-06
18310.0 4.4497e-06
18330.0 4.4349e-06
18350.0 4.4204e-06
18370.0 4.4052e-06
18390.0 4.39e-06
18410.0 4.3753e-06
18430.0 4.3604e-06
18450.0 4.3448e-06
18470.0 4.3299e-06
18490.0 4.3152e-06
18510.0 4.3e-06
18530.0 4.2848e-06
18550.0 4.2701e-06
18570.0 4.255e-06
18590.0 4.2394e-06
18610.0 4.2244e-06
18630.0 4.2095e-06
18650.0 4.1941e-06
18670.0 4.1787e-06
18690.0 4.164e-06
18710.0 4.1488e-06
18730.0 4.1334e-06
18750.0 4.1184e-06
18770.0 4.1035e-06
18790.0 4.0878e-06
18810.0 4.0724e-06
18830.0 4.0575e-06
18850.0 4.0422e-06
18870.0 4.0267e-06
18890.0 4.0117e-06
18910.0 3.9967e-06
18930.0 3.9812e-06
18950.0 3.9658e-06
18970.0 3.9509e-06
18990.0 3.9356e-06
19010.0 3.9197e-06
19030.0 3.9048e-06
19050.0 3.8897e-06
19070.0 3.8742e-06
19090.0 3.8589e-06
19110.0 3.8441e-06
19130.0 3.8285e-06
19150.0 3.813e-06
19170.0 3.7979e-06
19190.0 3.7828e-06
19210.0 3.7671e-06
19230.0 3.7517e-06
19250.0 3.7369e-06
19270.0 3.7215e-06
19290.0 3.706e-06
19310.0 3.691e-06
19330.0 3.676e-06
19350.0 3.6601e-06
19370.0 3.6449e-06
19390.0 3.6299e-06
19410.0 3.6145e-06
19430.0 3.5989e-06
19450.0 3.5841e-06
19470.0 3.569e-06
19490.0 3.5534e-06
19510.0 3.5382e-06
19530.0 3.5234e-06
19550.0 3.5078e-06
19570.0 3.4922e-06
19590.0 3.4774e-06
19610.0 3.4622e-06
19630.0 3.4467e-06
19650.0 3.4317e-06
19670.0 3.4169e-06
19690.0 3.4014e-06
19710.0 3.386e-06
19730.0 3.3711e-06
19750.0 3.356e-06
19770.0 3.3403e-06
19790.0 3.3253e-06
19810.0 3.3105e-06
19830.0 3.2951e-06
19850.0 3.2796e-06
19870.0 3.2644e-06
19890.0 3.2481e-06
19910.0 3.2302e-06
19930.0 3.2111e-06
19950.0 3.1891e-06
19970.0 3.1621e-06
19990.0 3.1296e-06
20010.0 2.7844e-06
20030.0 2.7441e-06
20050.0 2.697e-06
20070.0 2.6459e-06
20090.0 2.5909e-06
20110.0 2.5287e-06
20130.0 2.4658e-06
20150.0 2.4034e-06
20170.0 2.3387e-06
20190.0 2.2731e-06
20210.0 2.2111e-06
20230.0 2.1507e-06
20250.0 2.0901e-06
20270.0 2.0339e-06
20290.0 1.9826e-06
20310.0 1.9338e-06
20330.0 1.8882e-06
20350.0 1.8504e-06
20370.0 1.8168e-06
20390.0 1.7874e-06
20410.0 1.7636e-06
20430.0 1.7452e-06
20450.0 1.7307e-06
20470.0 1.721e-06
20490.0 1.7158e-06
20510.0 1.7142e-06
20530.0 1.7164e-06
20550.0 1.7217e-06
20570.0 1.7294e-06
20590.0 1.7398e-06
20610.0 1.7524e-06
20630.0 1.7664e-06
20650.0 1.7819e-06
20670.0 1.7997e-06
20690.0 1.8179e-06
20710.0 1.8367e-06
20730.0 1.8569e-06
20750.0 1.878e-06
20770.0 1.8988e-06
20790.0 1.9206e-06
20810.0 1.9437e-06
20830.0 1.9667e-06
20850.0 1.9898e-06
20870.0 2.0145e-06
20890.0 2.0397e-06
20910.0 2.064e-06
20930.0 2.0892e-06
20950.0 2.1153e-06
20970.0 2.1408e-06
20990.0 2.1659e-06
21010.0 2.1923e-06
21030.0 2.2182e-06
21050.0 2.2428e-06
21070.0 2.2674e-06
21090.0 2.2921e-06
21110.0 2.3146e-06
21130.0 2.3358e-06
21150.0 2.3563e-06
21170.0 2.3748e-06
21190.0 2.3908e-06
21210.0 2.4052e-06
21230.0 2.4171e-06
21250.0 2.4256e-06
21270.0 2.431e-06
21290.0 2.433e-06
21310.0 2.4311e-06
21330.0 2.4254e-06
21350.0 2.4153e-06
21370.0 2.4005e-06
21390.0 2.3817e-06
21410.0 2.3587e-06
21430.0 2.3295e-06
21450.0 2.2968e-06
21470.0 2.2612e-06
21490.0 2.2209e-06
21510.0 2.1767e-06
21530.0 2.1317e-06
21550.0 2.0847e-06
21570.0 2.0345e-06
21590.0 1.9851e-06
21610.0 1.9375e-06
21630.0 1.8897e-06
21650.0 1.8431e-06
21670.0 1.8026e-06
21690.0 1.7653e-06
21710.0 1.7318e-06
21730.0 1.7042e-06
21750.0 1.683e-06
21770.0 1.6669e-06
21790.0 1.6576e-06
21810.0 1.655e-06
21830.0 1.6587e-06
21850.0 1.669e-06
21870.0 1.6852e-06
21890.0 1.7061e-06
21910.0 1.7329e-06
21930.0 1.7643e-06
21950.0 1.7983e-06
21970.0 1.836e-06
21990.0 1.8784e-06
22010.0 1.9207e-06
22030.0 1.9636e-06
22050.0 2.0087e-06
22070.0 2.0541e-06
22090.0 2.0971e-06
22110.0 2.1404e-06
22130.0 2.1836e-06
22150.0 2.224e-06
22170.0 2.262e-06
22190.0 2.2998e-06
22210.0 2.3349e-06
22230.0 2.3658e-06
22250.0 2.3949e-06
22270.0 2.4216e-06
22290.0 2.4445e-06
22310.0 2.4642e-06
22330.0 2.4815e-06
22350.0 2.4949e-06
22370.0 2.5043e-06
22390.0 2.5102e-06
22410.0 2.5121e-06
22430.0 2.5097e-06
22450.0 2.5032e-06
22470.0 2.492e-06
22490.0 2.4763e-06
22510.0 2.4568e-06
22530.0 2.4318e-06
22550.0 2.4013e-06
22570.0 2.3676e-06
22590.0 2.3295e-06
22610.0 2.2857e-06
22630.0 2.2383e-06
