#lamb flux
1010.0 3.0277e-05
1030.0 3.3689e-05
1050.0 3.831e-05
1070.0 4.522e-05
1090.0 5.4285e-05
1110.0 6.4011e-05
1130.0 7.4179e-05
1150.0 8.5062e-05
1170.0 9.6342e-05
1190.0 0.00010689
1210.0 0.00011707
1230.0 0.00012674
1250.0 0.0001357
1270.0 0.00014299
1290.0 0.0001491
1310.0 0.00015335
1330.0 0.00015535
1350.0 0.00015561
1370.0 0.00015439
1390.0 0.00015143
1410.0 0.00014702
1430.0 0.00014188
1450.0 0.00013599
1470.0 0.00012946
1490.0 0.00012279
1510.0 0.00011631
1530.0 0.00010976
1550.0 0.00010349
1570.0 9.7734e-05
1590.0 9.2453e-05
1610.0 8.7836e-05
1630.0 8.4925e-05
1650.0 8.2829e-05
1670.0 8.1488e-05
1690.0 8.0998e-05
1710.0 8.151e-05
1730.0 8.2992e-05
1750.0 8.5347e-05
1770.0 8.8824e-05
1790.0 9.3465e-05
1810.0 9.9209e-05
1830.0 0.00010614
1850.0 0.00011451
1870.0 0.00012415
1890.0 0.00013506
1910.0 0.00014739
1930.0 0.00016117
1950.0 0.00017612
1970.0 0.00019228
1990.0 0.00020974
2010.0 0.00022818
2030.0 0.00024732
2050.0 0.00026727
2070.0 0.00028785
2090.0 0.0003084
2110.0 0.00032896
2130.0 0.00034949
2150.0 0.00036951
2170.0 0.00038866
2190.0 0.00040726
2210.0 0.00042501
2230.0 0.00044149
2250.0 0.00045688
2270.0 0.00047151
2290.0 0.00048487
2310.0 0.00049695
2330.0 0.00050839
2350.0 0.00051918
2370.0 0.00052919
2390.0 0.0005391
2410.0 0.00054968
2430.0 0.00056084
2450.0 0.00057319
2470.0 0.00058797
2490.0 0.00060584
2510.0 0.000626
2530.0 0.00065036
2550.0 0.00068098
2570.0 0.00071862
2590.0 0.00076534
2610.0 0.0008293
2630.0 0.00091143
2650.0 0.0010088
2670.0 0.0011243
2690.0 0.0012565
2710.0 0.0013917
2730.0 0.0015244
2750.0 0.0016591
2770.0 0.0017886
2790.0 0.0019117
2810.0 0.0020375
2830.0 0.002174
2850.0 0.0023127
2870.0 0.0024595
2890.0 0.0026199
2910.0 0.0027889
2930.0 0.0029597
2950.0 0.0031423
2970.0 0.0033348
2990.0 0.0035289
3010.0 0.0037281
3030.0 0.003939
3050.0 0.0041555
3070.0 0.0043664
3090.0 0.0045812
3110.0 0.004791
3130.0 0.0049813
3150.0 0.0051474
3170.0 0.0052838
3190.0 0.0053826
3210.0 0.0054543
3230.0 0.0055047
3250.0 0.005533
3270.0 0.0055535
3290.0 0.0055785
3310.0 0.0056167
3330.0 0.0056693
3350.0 0.0057319
3370.0 0.0057999
3390.0 0.0058223
3410.0 0.005859
3430.0 0.0060359
3450.0 0.006161
3470.0 0.0061852
3490.0 0.0064205
3510.0 0.0073645
3530.0 0.009067
3550.0 0.01027
3570.0 0.011231
3590.0 0.012641
3610.0 0.012598
3630.0 0.01161
3650.0 0.012192
3670.0 0.014387
3690.0 0.016142
3710.0 0.016731
3730.0 0.016868
3750.0 0.018016
3770.0 0.018115
3790.0 0.017259
3810.0 0.01627
3830.0 0.015423
3850.0 0.015526
3870.0 0.016214
3890.0 0.016709
3910.0 0.016956
3930.0 0.016965
3950.0 0.018156
3970.0 0.019561
3990.0 0.019018
4010.0 0.016967
4030.0 0.015287
4050.0 0.015159
4070.0 0.015845
4090.0 0.015705
4110.0 0.015115
4130.0 0.01503
4150.0 0.015731
4170.0 0.017385
4190.0 0.018265
4210.0 0.017207
4230.0 0.01583
4250.0 0.014982
4270.0 0.01445
4290.0 0.014545
4310.0 0.014935
4330.0 0.014211
4350.0 0.012594
4370.0 0.011234
4390.0 0.010288
4410.0 0.0097687
4430.0 0.010048
4450.0 0.011057
4470.0 0.012143
4490.0 0.012986
4510.0 0.014369
4530.0 0.016888
4550.0 0.01953
4570.0 0.021145
4590.0 0.022533
4610.0 0.023748
4630.0 0.023951
4650.0 0.022227
4670.0 0.01935
4690.0 0.017101
4710.0 0.01635
4730.0 0.015622
4750.0 0.013748
4770.0 0.012297
4790.0 0.012671
4810.0 0.013735
4830.0 0.013428
4850.0 0.011933
4870.0 0.012208
4890.0 0.012521
4910.0 0.012701
4930.0 0.012494
4950.0 0.01226
4970.0 0.011717
4990.0 0.010823
5010.0 0.010188
5030.0 0.010012
5050.0 0.0099576
5070.0 0.0099412
5090.0 0.0099266
5110.0 0.0099143
5130.0 0.010116
5150.0 0.010617
5170.0 0.011558
5190.0 0.012799
5210.0 0.013799
5230.0 0.014398
5250.0 0.014733
5270.0 0.015211
5290.0 0.015586
5310.0 0.015506
5330.0 0.014969
5350.0 0.014442
5370.0 0.014461
5390.0 0.014839
5410.0 0.015116
5430.0 0.014993
5450.0 0.014777
5470.0 0.01445
5490.0 0.014118
5510.0 0.013996
5530.0 0.014065
5550.0 0.014213
5570.0 0.014267
5590.0 0.013887
5610.0 0.013192
5630.0 0.012543
5650.0 0.01196
5670.0 0.011554
5690.0 0.01109
5710.0 0.01082
5730.0 0.01087
5750.0 0.010758
5770.0 0.010567
5790.0 0.010665
5810.0 0.010976
5830.0 0.011214
5850.0 0.011281
5870.0 0.011002
5890.0 0.010562
5910.0 0.01017
5930.0 0.0096591
5950.0 0.009227
5970.0 0.0092777
5990.0 0.009503
6010.0 0.0094984
6030.0 0.0091728
6050.0 0.0091135
6070.0 0.0094306
6090.0 0.0097535
6110.0 0.0097272
6130.0 0.0092417
6150.0 0.0086056
6170.0 0.0082535
6190.0 0.0080624
6210.0 0.0078938
6230.0 0.0077359
6250.0 0.0077306
6270.0 0.0079504
6290.0 0.0082687
6310.0 0.0086278
6330.0 0.009006
6350.0 0.0092363
6370.0 0.0092638
6390.0 0.0092117
6410.0 0.0092855
6430.0 0.0094021
6450.0 0.0093977
6470.0 0.0094169
6490.0 0.0094719
6510.0 0.009469
6530.0 0.0093541
6550.0 0.0091165
6570.0 0.0088263
6590.0 0.0085721
6610.0 0.0083735
6630.0 0.00821
6650.0 0.0079431
6670.0 0.0076481
6690.0 0.0074199
6710.0 0.0072891
6730.0 0.0072161
6750.0 0.0071461
6770.0 0.0070513
6790.0 0.0069236
6810.0 0.0067998
6830.0 0.0067602
6850.0 0.0067253
6870.0 0.0066678
6890.0 0.006658
6910.0 0.0065682
6930.0 0.0064584
6950.0 0.0064432
6970.0 0.0063862
6990.0 0.0062535
7010.0 0.0061514
7030.0 0.0060417
7050.0 0.0059265
7070.0 0.0057857
7090.0 0.0056624
7110.0 0.0057444
7130.0 0.0059076
7150.0 0.0060361
7170.0 0.0061142
7190.0 0.0061041
7210.0 0.0060259
7230.0 0.0059278
7250.0 0.0058665
7270.0 0.005763
7290.0 0.0056776
7310.0 0.0056303
7330.0 0.0056888
7350.0 0.0057052
7370.0 0.0056869
7390.0 0.0056346
7410.0 0.0055472
7430.0 0.0054907
7450.0 0.0054333
7470.0 0.0052686
7490.0 0.0050923
7510.0 0.0048789
7530.0 0.0047074
7550.0 0.0046162
7570.0 0.0046784
7590.0 0.0046483
7610.0 0.0045971
7630.0 0.0045506
7650.0 0.0045735
7670.0 0.0046685
7690.0 0.0048586
7710.0 0.0049889
7730.0 0.005175
7750.0 0.0052922
7770.0 0.0053876
7790.0 0.0053969
7810.0 0.0052935
7830.0 0.0053096
7850.0 0.0052603
7870.0 0.0051284
7890.0 0.0049554
7910.0 0.004808
7930.0 0.0046971
7950.0 0.0046295
7970.0 0.0046316
7990.0 0.0046687
8010.0 0.0046557
8030.0 0.0046065
8050.0 0.0045218
8070.0 0.0044394
8090.0 0.0043485
8110.0 0.0043649
8130.0 0.0044033
8150.0 0.0044109
8170.0 0.004374
8190.0 0.0043157
8210.0 0.0041464
8230.0 0.003879
8250.0 0.0037144
8270.0 0.003619
8290.0 0.003573
8310.0 0.003589
8330.0 0.00367
8350.0 0.0036055
8370.0 0.0035271
8390.0 0.0035757
8410.0 0.0036881
8430.0 0.0038781
8450.0 0.0040524
8470.0 0.0040985
8490.0 0.0041363
8510.0 0.0041142
8530.0 0.0040898
8550.0 0.0041209
8570.0 0.0041257
8590.0 0.0041131
8610.0 0.0042259
8630.0 0.0042575
8650.0 0.004165
8670.0 0.0041567
8690.0 0.0041721
8710.0 0.0041146
8730.0 0.0040793
8750.0 0.0039546
8770.0 0.0039019
8790.0 0.0038597
8810.0 0.0038214
8830.0 0.0036544
8850.0 0.0033916
8870.0 0.0031882
8890.0 0.0030762
8910.0 0.0028879
8930.0 0.0026887
8950.0 0.0026176
8970.0 0.0025983
8990.0 0.0026011
9010.0 0.0025813
9030.0 0.0025628
9050.0 0.0025458
9070.0 0.0025293
9090.0 0.0025128
9110.0 0.0024964
9130.0 0.00248
9150.0 0.0024636
9170.0 0.0024473
9190.0 0.0024309
9210.0 0.0024145
9230.0 0.0023983
9250.0 0.0023821
9270.0 0.0023659
9290.0 0.0023498
9310.0 0.0023337
9330.0 0.0023177
9350.0 0.0023017
9370.0 0.0022858
9390.0 0.00227
9410.0 0.0022541
9430.0 0.0022384
9450.0 0.0022225
9470.0 0.002207
9490.0 0.0021918
9510.0 0.0021763
9530.0 0.0021609
9550.0 0.0021455
9570.0 0.0021303
9590.0 0.0021152
9610.0 0.0021001
9630.0 0.0020851
9650.0 0.0020702
9670.0 0.0020554
9690.0 0.0020407
9710.0 0.002026
9730.0 0.0020115
9750.0 0.001997
9770.0 0.0019826
9790.0 0.0019683
9810.0 0.0019541
9830.0 0.0019396
9850.0 0.0019231
9870.0 0.0019096
9890.0 0.0018967
9910.0 0.0018836
9930.0 0.0018696
9950.0 0.0018564
9970.0 0.0018432
9990.0 0.0018297
10010.0 0.0018147
10030.0 0.0018009
10050.0 0.0017887
10070.0 0.0017763
10090.0 0.001764
10110.0 0.0017509
10130.0 0.0017364
10150.0 0.0017241
10170.0 0.0017121
10190.0 0.0016996
10210.0 0.0016874
10230.0 0.0016753
10250.0 0.0016629
10270.0 0.0016505
10290.0 0.0016386
10310.0 0.0016263
10330.0 0.0016138
10350.0 0.0016019
10370.0 0.00159
10390.0 0.0015779
10410.0 0.0015658
10430.0 0.0015544
10450.0 0.0015425
10470.0 0.0015306
10490.0 0.0015191
10510.0 0.0015077
10530.0 0.0014957
10550.0 0.0014841
10570.0 0.0014729
10590.0 0.0014614
10610.0 0.0014498
10630.0 0.0014387
10650.0 0.0014276
10670.0 0.001416
10690.0 0.0014047
10710.0 0.0013938
10730.0 0.0013825
10750.0 0.001371
10770.0 0.0013602
10790.0 0.0013493
10810.0 0.001338
10830.0 0.001327
10850.0 0.0013164
10870.0 0.0013053
10890.0 0.0012942
10910.0 0.0012836
10930.0 0.0012732
10950.0 0.0012625
10970.0 0.0012525
10990.0 0.001243
11010.0 0.0012325
11030.0 0.0012243
11050.0 0.0012165
11070.0 0.0012088
11090.0 0.0012008
11110.0 0.0011931
11130.0 0.0011854
11150.0 0.0011773
11170.0 0.0011691
11190.0 0.0011611
11210.0 0.0011529
11230.0 0.0011445
11250.0 0.0011364
11270.0 0.0011285
11290.0 0.0011205
11310.0 0.0011128
11330.0 0.0011056
11350.0 0.0010986
11370.0 0.0010917
11390.0 0.0010852
11410.0 0.0010791
11430.0 0.0010728
11450.0 0.0010668
11470.0 0.0010611
11490.0 0.0010552
11510.0 0.0010491
11530.0 0.0010432
11550.0 0.0010371
11570.0 0.0010306
11590.0 0.001024
11610.0 0.0010173
11630.0 0.0010101
11650.0 0.0010025
11670.0 0.00099499
11690.0 0.00098736
11710.0 0.00097937
11730.0 0.00097142
11750.0 0.0009638
11770.0 0.00095595
11790.0 0.00094812
11810.0 0.00094072
11830.0 0.00093353
11850.0 0.00092618
11870.0 0.00091931
11890.0 0.00091292
11910.0 0.0009066
11930.0 0.00090049
11950.0 0.00089492
11970.0 0.0008896
11990.0 0.00088438
12010.0 0.00087966
12030.0 0.00087541
12050.0 0.00087143
12070.0 0.0008678
12090.0 0.00086485
12110.0 0.0008623
12130.0 0.00086018
12150.0 0.00085862
12170.0 0.00085759
12190.0 0.00085702
12210.0 0.000857
12230.0 0.00085748
12250.0 0.00085842
12270.0 0.00085984
12290.0 0.00086163
12310.0 0.00086371
12330.0 0.00086615
12350.0 0.00086881
12370.0 0.00087152
12390.0 0.00087432
12410.0 0.0008772
12430.0 0.00087982
12450.0 0.0008822
12470.0 0.00088433
12490.0 0.00088604
12510.0 0.00088722
12530.0 0.00088787
12550.0 0.00088785
12570.0 0.00088714
12590.0 0.00088573
12610.0 0.00088343
12630.0 0.00088031
12650.0 0.00087662
12670.0 0.00087209
12690.0 0.00086675
12710.0 0.00086095
12730.0 0.00085471
12750.0 0.00084758
12770.0 0.00084022
12790.0 0.00083281
12810.0 0.00082502
12830.0 0.00081687
12850.0 0.00080906
12870.0 0.00080131
12890.0 0.0007933
12910.0 0.00078551
12930.0 0.0007781
12950.0 0.00077052
12970.0 0.00076293
12990.0 0.00075588
13010.0 0.00074896
13030.0 0.00074197
13050.0 0.00073527
13070.0 0.00072902
13090.0 0.0007227
13110.0 0.00071656
13130.0 0.00071089
13150.0 0.00070548
13170.0 0.00070008
13190.0 0.0006952
13210.0 0.00069077
13230.0 0.00068648
13250.0 0.00068245
13270.0 0.00067885
13290.0 0.0006754
13310.0 0.00067199
13330.0 0.00066883
13350.0 0.00066583
13370.0 0.00066275
13390.0 0.00065961
13410.0 0.00065664
13430.0 0.00065353
13450.0 0.00065023
13470.0 0.00064691
13490.0 0.00064358
13510.0 0.00063988
13530.0 0.0006361
13550.0 0.00063236
13570.0 0.00062846
13590.0 0.00062432
13610.0 0.00062024
13630.0 0.00061619
13650.0 0.00061188
13670.0 0.00060755
13690.0 0.00060332
13710.0 0.00059897
13730.0 0.00059435
13750.0 0.00058997
13770.0 0.00058558
13790.0 0.000581
13810.0 0.00057638
13830.0 0.00057192
13850.0 0.00056723
13870.0 0.00056236
13890.0 0.00055758
13910.0 0.00055275
13930.0 0.00054762
13950.0 0.00054239
13970.0 0.00053735
13990.0 0.00053203
14010.0 0.00052653
14030.0 0.00052113
14050.0 0.00051572
14070.0 0.00050995
14090.0 0.00050432
14110.0 0.00049889
14130.0 0.00049337
14150.0 0.00048783
14170.0 0.00048268
14190.0 0.00047768
14210.0 0.00047268
14230.0 0.00046797
14250.0 0.00046358
14270.0 0.0004592
14290.0 0.00045493
14310.0 0.00045104
14330.0 0.00044725
14350.0 0.00044346
14370.0 0.00043984
14390.0 0.00043643
14410.0 0.00043293
14430.0 0.00042949
14450.0 0.00042625
14470.0 0.00042306
14490.0 0.00041981
14510.0 0.00041678
14530.0 0.00041394
14550.0 0.00041111
14570.0 0.00040838
14590.0 0.00040588
14610.0 0.00040343
14630.0 0.00040101
14650.0 0.00039876
14670.0 0.00039665
14690.0 0.00039456
14710.0 0.00039255
14730.0 0.00039075
14750.0 0.00038901
14770.0 0.00038735
14790.0 0.00038586
14810.0 0.00038455
14830.0 0.00038334
14850.0 0.00038235
14870.0 0.00038158
14890.0 0.000381
14910.0 0.0003806
14930.0 0.00038037
14950.0 0.00038024
14970.0 0.00038017
14990.0 0.00038009
15010.0 0.00037996
15030.0 0.00037973
15050.0 0.00037938
15070.0 0.00037895
15090.0 0.00037843
15110.0 0.00037785
15130.0 0.00037722
15150.0 0.0003766
15170.0 0.00037594
15190.0 0.00037527
15210.0 0.00037461
15230.0 0.00037395
15250.0 0.00037327
15270.0 0.00037259
15290.0 0.00037194
15310.0 0.00037127
15330.0 0.00037059
15350.0 0.00036993
15370.0 0.00036927
15390.0 0.00036858
15410.0 0.00036791
15430.0 0.00036725
15450.0 0.00036658
15470.0 0.00036589
15490.0 0.00036524
15510.0 0.00036458
15530.0 0.0003639
15550.0 0.00036324
15570.0 0.00036258
15590.0 0.00036191
15610.0 0.00036123
15630.0 0.00036058
15650.0 0.00035993
15670.0 0.00035926
15690.0 0.0003586
15710.0 0.00035797
15730.0 0.0003573
15750.0 0.00035665
15770.0 0.00035601
15790.0 0.00035536
15810.0 0.0003547
15830.0 0.00035406
15850.0 0.00035343
15870.0 0.00035279
15890.0 0.00035215
15910.0 0.00035153
15930.0 0.0003509
15950.0 0.00035026
15970.0 0.00034964
15990.0 0.00034903
16010.0 0.0003484
16030.0 0.00034777
16050.0 0.00034718
16070.0 0.00034657
16090.0 0.00034595
16110.0 0.00034535
16130.0 0.00034477
16150.0 0.00034415
16170.0 0.00034355
16190.0 0.00034297
16210.0 0.00034239
16230.0 0.00034179
16250.0 0.00034121
16270.0 0.00034065
16290.0 0.00034007
16310.0 0.00033949
16330.0 0.00033893
16350.0 0.00033837
16370.0 0.00033778
16390.0 0.00033724
16410.0 0.00033669
16430.0 0.00033613
16450.0 0.00033558
16470.0 0.00033505
16490.0 0.0003345
16510.0 0.00033395
16530.0 0.00033342
16550.0 0.0003329
16570.0 0.00033235
16590.0 0.00033182
16610.0 0.00033131
16630.0 0.00033078
16650.0 0.00033026
16670.0 0.00032975
16690.0 0.00032924
16710.0 0.00032871
16730.0 0.0003282
16750.0 0.00032771
16770.0 0.0003272
16790.0 0.00032668
16810.0 0.0003262
16830.0 0.00032571
16850.0 0.0003252
16870.0 0.00032471
16890.0 0.00032423
16910.0 0.00032373
16930.0 0.00032322
16950.0 0.00032275
16970.0 0.00032227
16990.0 0.00032177
17010.0 0.00032129
17030.0 0.00032082
17050.0 0.00032033
17070.0 0.00031984
17090.0 0.00031937
17110.0 0.0003189
17130.0 0.0003184
17150.0 0.00031792
17170.0 0.00031746
17190.0 0.00031698
17210.0 0.00031649
17230.0 0.00031603
17250.0 0.00031556
17270.0 0.00031506
17290.0 0.00031459
17310.0 0.00031412
17330.0 0.00031363
17350.0 0.00031314
17370.0 0.00031268
17390.0 0.0003122
17410.0 0.00031171
17430.0 0.00031123
17450.0 0.00031076
17470.0 0.00031025
17490.0 0.00030976
17510.0 0.00030928
17530.0 0.00030879
17550.0 0.00030829
17570.0 0.0003078
17590.0 0.00030731
17610.0 0.0003068
17630.0 0.0003063
17650.0 0.00030581
17670.0 0.0003053
17690.0 0.00030477
17710.0 0.00030427
17730.0 0.00030376
17750.0 0.00030323
17770.0 0.00030271
17790.0 0.00030221
17810.0 0.00030167
17830.0 0.00030113
17850.0 0.0003006
17870.0 0.00030007
17890.0 0.00029952
17910.0 0.00029896
17930.0 0.00029843
17950.0 0.00029788
17970.0 0.00029731
17990.0 0.00029676
18010.0 0.0002962
18030.0 0.00029561
18050.0 0.00029504
18070.0 0.00029447
18090.0 0.00029388
18110.0 0.00029328
18130.0 0.00029271
18150.0 0.00029211
18170.0 0.0002915
18190.0 0.0002909
18210.0 0.0002903
18230.0 0.00028967
18250.0 0.00028903
18270.0 0.00028842
18290.0 0.00028779
18310.0 0.00028714
18330.0 0.00028651
18350.0 0.00028587
18370.0 0.00028521
18390.0 0.00028455
18410.0 0.00028389
18430.0 0.00028323
18450.0 0.00028253
18470.0 0.00028186
18490.0 0.00028118
18510.0 0.00028049
18530.0 0.00027979
18550.0 0.0002791
18570.0 0.00027839
18590.0 0.00027767
18610.0 0.00027695
18630.0 0.00027624
18650.0 0.0002755
18670.0 0.00027475
18690.0 0.00027403
18710.0 0.00027329
18730.0 0.00027253
18750.0 0.00027178
18770.0 0.00027103
18790.0 0.00027024
18810.0 0.00026947
18830.0 0.0002687
18850.0 0.00026792
18870.0 0.00026712
18890.0 0.00026633
18910.0 0.00026555
18930.0 0.00026473
18950.0 0.00026392
18970.0 0.00026312
18990.0 0.0002623
19010.0 0.00026146
19030.0 0.00026064
19050.0 0.00025981
19070.0 0.00025897
19090.0 0.00025813
19110.0 0.0002573
19130.0 0.00025644
19150.0 0.00025557
19170.0 0.00025472
19190.0 0.00025386
19210.0 0.00025298
19230.0 0.0002521
19250.0 0.00025124
19270.0 0.00025036
19290.0 0.00024947
19310.0 0.00024859
19330.0 0.0002477
19350.0 0.00024679
19370.0 0.00024589
19390.0 0.000245
19410.0 0.00024409
19430.0 0.00024317
19450.0 0.00024227
19470.0 0.00024136
19490.0 0.00024044
19510.0 0.00023952
19530.0 0.00023861
19550.0 0.00023767
19570.0 0.00023673
19590.0 0.00023581
19610.0 0.00023488
19630.0 0.00023394
19650.0 0.00023301
19670.0 0.00023208
19690.0 0.00023113
19710.0 0.00023018
19730.0 0.00022925
19750.0 0.00022831
19770.0 0.00022734
19790.0 0.0002264
19810.0 0.00022546
19830.0 0.00022451
19850.0 0.00022354
19870.0 0.00022259
19890.0 0.00022159
19910.0 0.00022054
19930.0 0.00021944
19950.0 0.00021824
19970.0 0.00021686
19990.0 0.00021528
20010.0 0.00021356
20030.0 0.00021157
20050.0 0.00020933
20070.0 0.00020696
20090.0 0.00020447
20110.0 0.00020174
20130.0 0.00019902
20150.0 0.00019635
20170.0 0.00019363
20190.0 0.0001909
20210.0 0.00018831
20230.0 0.00018578
20250.0 0.00018324
20270.0 0.00018083
20290.0 0.00017857
20310.0 0.00017636
20330.0 0.0001742
20350.0 0.00017226
20370.0 0.00017041
20390.0 0.00016862
20410.0 0.00016697
20430.0 0.00016546
20450.0 0.000164
20470.0 0.00016264
20490.0 0.00016141
20510.0 0.00016026
20530.0 0.00015918
20550.0 0.00015819
20570.0 0.00015731
20590.0 0.00015647
20610.0 0.00015571
20630.0 0.00015501
20650.0 0.00015437
20670.0 0.00015376
20690.0 0.0001532
20710.0 0.00015267
20730.0 0.00015216
20750.0 0.00015166
20770.0 0.00015117
20790.0 0.00015067
20810.0 0.00015014
20830.0 0.00014958
20850.0 0.000149
20870.0 0.00014835
20890.0 0.00014765
20910.0 0.00014691
20930.0 0.0001461
20950.0 0.00014521
20970.0 0.00014427
20990.0 0.00014329
21010.0 0.00014221
21030.0 0.00014108
21050.0 0.00013994
21070.0 0.00013873
21090.0 0.00013746
21110.0 0.00013621
21130.0 0.00013494
21150.0 0.00013363
21170.0 0.00013233
21190.0 0.00013106
21210.0 0.00012976
21230.0 0.00012845
21250.0 0.00012721
21270.0 0.00012599
21290.0 0.00012476
21310.0 0.00012358
21330.0 0.00012246
21350.0 0.00012135
21370.0 0.00012026
21390.0 0.00011924
21410.0 0.00011825
21430.0 0.00011724
21450.0 0.00011629
21470.0 0.00011539
21490.0 0.0001145
21510.0 0.00011362
21530.0 0.00011278
21550.0 0.00011196
21570.0 0.00011113
21590.0 0.00011032
21610.0 0.00010954
21630.0 0.00010874
21650.0 0.00010794
21670.0 0.00010718
21690.0 0.00010642
21710.0 0.00010564
21730.0 0.00010487
21750.0 0.00010413
21770.0 0.00010335
21790.0 0.00010257
21810.0 0.00010182
21830.0 0.00010106
21850.0 0.00010027
21870.0 9.95e-05
21890.0 9.875e-05
21910.0 9.7968e-05
21930.0 9.7183e-05
21950.0 9.6421e-05
21970.0 9.5647e-05
21990.0 9.4835e-05
22010.0 9.4059e-05
22030.0 9.3295e-05
22050.0 9.2509e-05
22070.0 9.1726e-05
22090.0 9.0986e-05
22110.0 9.0236e-05
22130.0 8.9478e-05
22150.0 8.8758e-05
22170.0 8.8064e-05
22190.0 8.7358e-05
22210.0 8.6677e-05
22230.0 8.6054e-05
22250.0 8.5439e-05
22270.0 8.4837e-05
22290.0 8.4283e-05
22310.0 8.3762e-05
22330.0 8.3238e-05
22350.0 8.2752e-05
22370.0 8.2305e-05
22390.0 8.1869e-05
22410.0 8.144e-05
22430.0 8.1053e-05
22450.0 8.0686e-05
22470.0 8.0318e-05
22490.0 7.9969e-05
22510.0 7.9646e-05
22530.0 7.9317e-05
22550.0 7.8991e-05
22570.0 7.8692e-05
22590.0 7.8402e-05
22610.0 7.8109e-05
22630.0 7.783e-05
22650.0 7.7578e-05
22670.0 7.7324e-05
22690.0 7.7078e-05
22710.0 7.6858e-05
22730.0 7.6655e-05
22750.0 7.6449e-05
22770.0 7.6275e-05
22790.0 7.6131e-05
22810.0 7.5999e-05
22830.0 7.589e-05
22850.0 7.5818e-05
22870.0 7.5771e-05
22890.0 7.5749e-05
22910.0 7.5766e-05
22930.0 7.5823e-05
22950.0 7.5916e-05
22970.0 7.6052e-05
22990.0 7.6235e-05
23010.0 7.6462e-05
23030.0 7.6738e-05
23050.0 7.7059e-05
23070.0 7.742e-05
23090.0 7.7835e-05
23110.0 7.8293e-05
23130.0 7.878e-05
23150.0 7.9306e-05
23170.0 7.9876e-05
23190.0 8.0465e-05
23210.0 8.1069e-05
23230.0 8.1712e-05
