#lamb flux
1010.0 7.8411e-06
1030.0 8.2436e-06
1050.0 8.7074e-06
1070.0 9.2298e-06
1090.0 9.8233e-06
1110.0 1.0433e-05
1130.0 1.1047e-05
1150.0 1.1691e-05
1170.0 1.2356e-05
1190.0 1.2987e-05
1210.0 1.3629e-05
1230.0 1.4293e-05
1250.0 1.4944e-05
1270.0 1.5579e-05
1290.0 1.625e-05
1310.0 1.6922e-05
1330.0 1.7569e-05
1350.0 1.8225e-05
1370.0 1.8903e-05
1390.0 1.9566e-05
1410.0 2.0213e-05
1430.0 2.0889e-05
1450.0 2.1568e-05
1470.0 2.2226e-05
1490.0 2.2893e-05
1510.0 2.3599e-05
1530.0 2.427e-05
1550.0 2.4935e-05
1570.0 2.5623e-05
1590.0 2.6313e-05
1610.0 2.6975e-05
1630.0 2.7658e-05
1650.0 2.8359e-05
1670.0 2.9039e-05
1690.0 2.971e-05
1710.0 3.0407e-05
1730.0 3.1107e-05
1750.0 3.1767e-05
1770.0 3.2444e-05
1790.0 3.3134e-05
1810.0 3.3802e-05
1830.0 3.4457e-05
1850.0 3.515e-05
1870.0 3.5823e-05
1890.0 3.6474e-05
1910.0 3.7135e-05
1930.0 3.7812e-05
1950.0 3.8457e-05
1970.0 3.9093e-05
1990.0 3.9754e-05
2010.0 4.0405e-05
2030.0 4.1033e-05
2050.0 4.1683e-05
2070.0 4.2353e-05
2090.0 4.2988e-05
2110.0 4.3627e-05
2130.0 4.4292e-05
2150.0 4.4952e-05
2170.0 4.5594e-05
2190.0 4.627e-05
2210.0 4.6963e-05
2230.0 4.7644e-05
2250.0 4.8337e-05
2270.0 4.9077e-05
2290.0 4.9815e-05
2310.0 5.0548e-05
2330.0 5.1323e-05
2350.0 5.2128e-05
2370.0 5.2933e-05
2390.0 5.3772e-05
2410.0 5.4671e-05
2430.0 5.5576e-05
2450.0 5.6486e-05
2470.0 5.7416e-05
2490.0 5.8335e-05
2510.0 5.9195e-05
2530.0 6.0078e-05
2550.0 6.1125e-05
2570.0 6.2559e-05
2590.0 6.4697e-05
2610.0 6.8218e-05
2630.0 7.3544e-05
2650.0 8.0664e-05
2670.0 8.9854e-05
2690.0 0.00010109
2710.0 0.00011319
2730.0 0.00012548
2750.0 0.00013819
2770.0 0.00015035
2790.0 0.00016157
2810.0 0.00017244
2830.0 0.00018346
2850.0 0.00019396
2870.0 0.00020454
2890.0 0.0002157
2910.0 0.00022718
2930.0 0.00023858
2950.0 0.00025061
2970.0 0.00026314
2990.0 0.00027562
3010.0 0.00054846
3030.0 0.00057357
3050.0 0.00059889
3070.0 0.0006229
3090.0 0.00064635
3110.0 0.00066711
3130.0 0.000682
3150.0 0.00068821
3170.0 0.00068045
3190.0 0.00065559
3210.0 0.00061318
3230.0 0.00056161
3250.0 0.00056223
3270.0 0.0004179
3290.0 0.00046918
3310.0 0.0003371
3330.0 0.00036276
3350.0 0.00040861
3370.0 0.00045691
3390.0 0.00050636
3410.0 0.00055559
3430.0 0.00060582
3450.0 0.0006557
3470.0 0.00070302
3490.0 0.00073733
3510.0 0.00080008
3530.0 0.0009352
3550.0 0.0010652
3570.0 0.0011939
3590.0 0.0014656
3610.0 0.0014244
3630.0 0.0015392
3650.0 0.0015116
3670.0 0.0016441
3690.0 0.0017955
3710.0 0.0018998
3730.0 0.0021919
3750.0 0.0022837
3770.0 0.0023132
3790.0 0.0022003
3810.0 0.0019401
3830.0 0.0017836
3850.0 0.0015683
3870.0 0.0017093
3890.0 0.0019449
3910.0 0.0022933
3930.0 0.0026607
3950.0 0.0028911
3970.0 0.0032892
3990.0 0.0033842
4010.0 0.0032902
4030.0 0.0033425
4050.0 0.0030675
4070.0 0.0029364
4090.0 0.0028586
4110.0 0.0027274
4130.0 0.0029429
4150.0 0.002837
4170.0 0.0028331
4190.0 0.0027779
4210.0 0.0029779
4230.0 0.0028548
4250.0 0.0030783
4270.0 0.00307
4290.0 0.003084
4310.0 0.0032917
4330.0 0.0035055
4350.0 0.0035307
4370.0 0.003458
4390.0 0.0032938
4410.0 0.002915
4430.0 0.0024279
4450.0 0.0022404
4470.0 0.0023068
4490.0 0.0023052
4510.0 0.0026095
4530.0 0.0028624
4550.0 0.0033779
4570.0 0.0043742
4590.0 0.0053474
4610.0 0.0058513
4630.0 0.0067124
4650.0 0.007342
4670.0 0.0073923
4690.0 0.0067434
4710.0 0.0062629
4730.0 0.0055626
4750.0 0.0045615
4770.0 0.003853
4790.0 0.0034335
4810.0 0.003747
4830.0 0.0041624
4850.0 0.0046743
4870.0 0.0044657
4890.0 0.0051108
4910.0 0.0053384
4930.0 0.0058236
4950.0 0.006828
4970.0 0.0072603
4990.0 0.0076479
5010.0 0.0070761
5030.0 0.0059398
5050.0 0.004844
5070.0 0.0038458
5090.0 0.0034634
5110.0 0.0034024
5130.0 0.0033456
5150.0 0.0035027
5170.0 0.0033868
5190.0 0.0035724
5210.0 0.0036352
5230.0 0.0039035
5250.0 0.0045671
5270.0 0.0049562
5290.0 0.0053751
5310.0 0.0060451
5330.0 0.0065348
5350.0 0.0066822
5370.0 0.0066836
5390.0 0.0065358
5410.0 0.0064072
5430.0 0.0064843
5450.0 0.0072532
5470.0 0.0084968
5490.0 0.0097011
5510.0 0.010821
5530.0 0.011086
5550.0 0.010962
5570.0 0.010662
5590.0 0.010382
5610.0 0.010251
5630.0 0.010243
5650.0 0.010277
5670.0 0.010128
5690.0 0.0094164
5710.0 0.0085875
5730.0 0.007658
5750.0 0.0071517
5770.0 0.0067519
5790.0 0.0068777
5810.0 0.0072232
5830.0 0.0074579
5850.0 0.0072114
5870.0 0.0068359
5890.0 0.0066868
5910.0 0.006475
5930.0 0.0063197
5950.0 0.0061459
5970.0 0.0058774
5990.0 0.0051735
6010.0 0.0044864
6030.0 0.004099
6050.0 0.0039653
6070.0 0.0038724
6090.0 0.0038681
6110.0 0.0039473
6130.0 0.003984
6150.0 0.0042224
6170.0 0.0046731
6190.0 0.0051486
6210.0 0.0054028
6230.0 0.005476
6250.0 0.0050366
6270.0 0.0044482
6290.0 0.003823
6310.0 0.0033421
6330.0 0.0030885
6350.0 0.0030006
6370.0 0.0031506
6390.0 0.0035323
6410.0 0.0041507
6430.0 0.0049535
6450.0 0.0056264
6470.0 0.0061358
6490.0 0.0065727
6510.0 0.0067527
6530.0 0.0067041
6550.0 0.0067354
6570.0 0.006807
6590.0 0.006722
6610.0 0.0067902
6630.0 0.0066672
6650.0 0.0064561
6670.0 0.0060825
6690.0 0.0055661
6710.0 0.0053428
6730.0 0.0050561
6750.0 0.0050541
6770.0 0.0051912
6790.0 0.0053715
6810.0 0.0054685
6830.0 0.0053653
6850.0 0.0051463
6870.0 0.0049852
6890.0 0.0047503
6910.0 0.0045261
6930.0 0.0046394
6950.0 0.0046985
6970.0 0.0048885
6990.0 0.00508
7010.0 0.0050359
7030.0 0.0047392
7050.0 0.004241
7070.0 0.0037707
7090.0 0.0033406
7110.0 0.0031095
7130.0 0.0029875
7150.0 0.0029081
7170.0 0.0030085
7190.0 0.0030747
7210.0 0.0032416
7230.0 0.0035968
7250.0 0.0038517
7270.0 0.0039437
7290.0 0.0038921
7310.0 0.0037145
7330.0 0.003484
7350.0 0.0033642
7370.0 0.0033861
7390.0 0.0035634
7410.0 0.0039379
7430.0 0.0043953
7450.0 0.0049603
7470.0 0.0053887
7490.0 0.0055965
7510.0 0.0053866
7530.0 0.0049475
7550.0 0.0043315
7570.0 0.0036965
7590.0 0.0034326
7610.0 0.003457
7630.0 0.0036984
7650.0 0.0042038
7670.0 0.0046999
7690.0 0.0051525
7710.0 0.0055656
7730.0 0.0058994
7750.0 0.0061808
7770.0 0.0063167
7790.0 0.0065374
7810.0 0.0066878
7830.0 0.0066752
7850.0 0.0067099
7870.0 0.0064833
7890.0 0.0062933
7910.0 0.0059442
7930.0 0.0057984
7950.0 0.0055926
7970.0 0.0056432
7990.0 0.0055986
8010.0 0.005517
8030.0 0.005534
8050.0 0.0057171
8070.0 0.0056156
8090.0 0.005628
8110.0 0.0054337
8130.0 0.0054136
8150.0 0.0052528
8170.0 0.0051118
8190.0 0.0050503
8210.0 0.0050941
8230.0 0.0047265
8250.0 0.0044033
8270.0 0.0038477
8290.0 0.0031248
8310.0 0.0024856
8330.0 0.0019326
8350.0 0.0016863
8370.0 0.0018577
8390.0 0.0020894
8410.0 0.0022985
8430.0 0.0026168
8450.0 0.0027709
8470.0 0.0029061
8490.0 0.0032496
8510.0 0.0036
8530.0 0.0041821
8550.0 0.0049311
8570.0 0.0055912
8590.0 0.0061177
8610.0 0.0066103
8630.0 0.007025
8650.0 0.0071057
8670.0 0.0071424
8690.0 0.0073883
8710.0 0.00747
8730.0 0.0075749
8750.0 0.0073767
8770.0 0.0073981
8790.0 0.0072983
8810.0 0.0067922
8830.0 0.0066632
8850.0 0.0063012
8870.0 0.0060454
8890.0 0.005727
8910.0 0.0059296
8930.0 0.0055552
8950.0 0.0053844
8970.0 0.0053299
8990.0 0.005195
9010.0 0.0051508
9030.0 0.0050015
9050.0 0.0049724
9070.0 0.0049601
9090.0 0.0049478
9110.0 0.0049364
9130.0 0.0049231
9150.0 0.0049091
9170.0 0.0048875
9190.0 0.0048551
9210.0 0.0048856
9230.0 0.0048601
9250.0 0.0048399
9270.0 0.0048208
9290.0 0.0048023
9310.0 0.0047843
9330.0 0.0047663
9350.0 0.0047483
9370.0 0.0047302
9390.0 0.0047117
9410.0 0.004693
9430.0 0.0046739
9450.0 0.0046534
9470.0 0.0046331
9490.0 0.0046147
9510.0 0.0045955
9530.0 0.0045759
9550.0 0.004556
9570.0 0.0045358
9590.0 0.0045155
9610.0 0.004495
9630.0 0.0044744
9650.0 0.0044537
9670.0 0.0044329
9690.0 0.0044121
9710.0 0.0043911
9730.0 0.0043702
9750.0 0.0043493
9770.0 0.0043282
9790.0 0.0043073
9810.0 0.0042863
9830.0 0.0042653
9850.0 0.0042444
9870.0 0.0042235
9890.0 0.0042026
9910.0 0.0041817
9930.0 0.0041606
9950.0 0.0041175
9970.0 0.0041034
9990.0 0.0040881
10010.0 0.0040723
10030.0 0.0040547
10050.0 0.0040353
10070.0 0.0040142
10090.0 0.0039958
10110.0 0.003976
10130.0 0.003957
10150.0 0.0039378
10170.0 0.003918
10190.0 0.0038974
10210.0 0.003878
10230.0 0.0038591
10250.0 0.0038394
10270.0 0.0038199
10290.0 0.0038015
10310.0 0.0037823
10330.0 0.0037625
10350.0 0.0037439
10370.0 0.0037256
10390.0 0.0037064
10410.0 0.0036876
10430.0 0.0036699
10450.0 0.0036515
10470.0 0.0036327
10490.0 0.0036149
10510.0 0.0035972
10530.0 0.0035783
10550.0 0.0035601
10570.0 0.0035428
10590.0 0.0035249
10610.0 0.0035067
10630.0 0.0034895
10650.0 0.0034723
10670.0 0.003454
10690.0 0.0034364
10710.0 0.0034195
10730.0 0.0034018
10750.0 0.0033835
10770.0 0.0033668
10790.0 0.0033498
10810.0 0.003332
10830.0 0.0033147
10850.0 0.0032981
10870.0 0.0032797
10890.0 0.0032607
10910.0 0.0032418
10930.0 0.0032209
10950.0 0.0031962
10970.0 0.0031686
10990.0 0.0031381
11010.0 0.0029027
11030.0 0.0028648
11050.0 0.0028258
11070.0 0.0027839
11090.0 0.0027375
11110.0 0.002693
11130.0 0.002649
11150.0 0.0026033
11170.0 0.0025577
11190.0 0.0025151
11210.0 0.0024718
11230.0 0.0024276
11250.0 0.0023859
11270.0 0.002346
11290.0 0.0023051
11310.0 0.0022657
11330.0 0.0022306
11350.0 0.0021961
11370.0 0.0021625
11390.0 0.0021321
11410.0 0.0021039
11430.0 0.0020751
11450.0 0.0020482
11470.0 0.0020231
11490.0 0.0019976
11510.0 0.0019709
11530.0 0.0019451
11550.0 0.0019188
11570.0 0.0018897
11590.0 0.0018594
11610.0 0.0018287
11630.0 0.0017948
11650.0 0.001758
11670.0 0.0017218
11690.0 0.0016844
11710.0 0.0016444
11730.0 0.0016046
11750.0 0.0015667
11770.0 0.0015274
11790.0 0.0014885
11810.0 0.0014524
11830.0 0.0014178
11850.0 0.001383
11870.0 0.0013515
11890.0 0.0013232
11910.0 0.0012958
11930.0 0.00127
11950.0 0.0012473
11970.0 0.001226
11990.0 0.001205
12010.0 0.0011861
12030.0 0.001169
12050.0 0.0011522
12070.0 0.0011359
12090.0 0.0011219
12110.0 0.0011085
12130.0 0.0010956
12150.0 0.0010841
12170.0 0.0010742
12190.0 0.0010648
12210.0 0.0010573
12230.0 0.001052
12250.0 0.0010487
12270.0 0.0010476
12290.0 0.0010494
12310.0 0.001054
12330.0 0.0010617
12350.0 0.0010725
12370.0 0.0010863
12390.0 0.001103
12410.0 0.0011234
12430.0 0.0011454
12450.0 0.0011693
12470.0 0.0011953
12490.0 0.0012223
12510.0 0.0012488
12530.0 0.001276
12550.0 0.001303
12570.0 0.0013284
12590.0 0.0013522
12610.0 0.0013748
12630.0 0.0013953
12650.0 0.0014129
12670.0 0.0014285
12690.0 0.0014419
12710.0 0.0014525
12730.0 0.0014609
12750.0 0.0014669
12770.0 0.0014706
12790.0 0.0014722
12810.0 0.0014718
12830.0 0.0014692
12850.0 0.0014652
12870.0 0.0014597
12890.0 0.0014524
12910.0 0.0014438
12930.0 0.0014346
12950.0 0.0014237
12970.0 0.0014114
12990.0 0.001399
13010.0 0.0013856
13030.0 0.0013708
13050.0 0.0013554
13070.0 0.00134
13090.0 0.0013232
13110.0 0.0013055
13130.0 0.0012883
13150.0 0.0012708
13170.0 0.0012524
13190.0 0.0012353
13210.0 0.0012196
13230.0 0.0012046
13250.0 0.0011912
13270.0 0.0011804
13290.0 0.0011716
13310.0 0.0011651
13330.0 0.0011615
13350.0 0.0011604
13370.0 0.0011615
13390.0 0.0011648
13410.0 0.0011693
13430.0 0.0011748
13450.0 0.0011804
13470.0 0.0011855
13490.0 0.0011893
13510.0 0.0011915
13530.0 0.0011912
13550.0 0.0011884
13570.0 0.0011829
13590.0 0.0011742
13610.0 0.0011632
13630.0 0.0011504
13650.0 0.0011351
13670.0 0.0011184
13690.0 0.0011013
13710.0 0.0010836
13730.0 0.0010648
13750.0 0.0010476
13770.0 0.0010311
13790.0 0.001015
13810.0 0.00099996
13830.0 0.00098661
13850.0 0.00097386
13870.0 0.00096194
13890.0 0.00095139
13910.0 0.00094177
13930.0 0.00093256
13950.0 0.00092413
13970.0 0.0009167
13990.0 0.00090959
14010.0 0.00090289
14030.0 0.00089686
14050.0 0.0008913
14070.0 0.00088591
14090.0 0.00088107
14110.0 0.00087671
14130.0 0.00087263
14150.0 0.00086886
14170.0 0.00086553
14190.0 0.00086251
14210.0 0.00085975
14230.0 0.00085735
14250.0 0.0008553
14270.0 0.00085359
14290.0 0.00085229
14310.0 0.00085138
14330.0 0.00085086
14350.0 0.00085077
14370.0 0.000851
14390.0 0.00085143
14410.0 0.00085216
14430.0 0.000853
14450.0 0.00085375
14470.0 0.0008544
14490.0 0.00085497
14510.0 0.00085518
14530.0 0.00085502
14550.0 0.00085465
14570.0 0.00085404
14590.0 0.0008532
14610.0 0.00085236
14630.0 0.00085171
14650.0 0.0008513
14670.0 0.00085133
14690.0 0.00085212
14710.0 0.00085388
14730.0 0.00085638
14750.0 0.0008601
14770.0 0.00086533
14790.0 0.00087173
14810.0 0.00087924
14830.0 0.00088895
14850.0 0.00089995
14870.0 0.00091167
14890.0 0.00092463
14910.0 0.00093865
14930.0 0.00095204
14950.0 0.00096437
14970.0 0.00097589
14990.0 0.00098503
15010.0 0.00099121
15030.0 0.00099491
15050.0 0.00099621
15070.0 0.00099504
15090.0 0.00099236
15110.0 0.00098863
15130.0 0.00098421
15150.0 0.00097945
15170.0 0.00097446
15190.0 0.00096936
15210.0 0.00096425
15230.0 0.00095913
15250.0 0.00095396
15270.0 0.00094879
15290.0 0.00094368
15310.0 0.00093853
15330.0 0.00093336
15350.0 0.00092823
15370.0 0.00092311
15390.0 0.00091794
15410.0 0.0009128
15430.0 0.0009077
15450.0 0.00090257
15470.0 0.00089743
15490.0 0.00089235
15510.0 0.00088728
15530.0 0.00088218
15550.0 0.00087711
15570.0 0.00087208
15590.0 0.00086703
15610.0 0.00086197
15630.0 0.00085698
15650.0 0.00085199
15670.0 0.00084699
15690.0 0.00084203
15710.0 0.00083712
15730.0 0.00083218
15750.0 0.00082726
15770.0 0.00082239
15790.0 0.00081753
15810.0 0.00081265
15830.0 0.00080783
15850.0 0.00080306
15870.0 0.00079827
15890.0 0.00079351
15910.0 0.0007888
15930.0 0.0007841
15950.0 0.00077939
15970.0 0.00077474
15990.0 0.00077013
16010.0 0.00076551
16030.0 0.00076091
16050.0 0.00075639
16070.0 0.00075187
16090.0 0.00074736
16110.0 0.0007429
16130.0 0.00073848
16150.0 0.00073404
16170.0 0.00072964
16190.0 0.00072531
16210.0 0.00072098
16230.0 0.00071667
16250.0 0.00071241
16270.0 0.00070819
16290.0 0.00070397
16310.0 0.00069979
16330.0 0.00069566
16350.0 0.00069154
16370.0 0.00068742
16390.0 0.00068338
16410.0 0.00067937
16430.0 0.00067536
16450.0 0.00067139
16470.0 0.00066748
16490.0 0.00066357
16510.0 0.00065968
16530.0 0.00065585
16550.0 0.00065205
16570.0 0.00064826
16590.0 0.0006445
16610.0 0.00064081
16630.0 0.00063712
16650.0 0.00063345
16670.0 0.00062984
16690.0 0.00062627
16710.0 0.00062268
16730.0 0.00061914
16750.0 0.00061566
16770.0 0.00061219
16790.0 0.00060873
16810.0 0.00060534
16830.0 0.00060197
16850.0 0.00059861
16870.0 0.00059529
16890.0 0.00059203
16910.0 0.00058876
16930.0 0.00058551
16950.0 0.00058233
16970.0 0.00057917
16990.0 0.00057602
17010.0 0.00057291
17030.0 0.00056985
17050.0 0.00056679
17070.0 0.00056376
17090.0 0.00056078
17110.0 0.00055783
17130.0 0.00055487
17150.0 0.00055196
17170.0 0.0005491
17190.0 0.00054625
17210.0 0.00054342
17230.0 0.00054064
17250.0 0.00053788
17270.0 0.00053512
17290.0 0.00053241
17310.0 0.00052974
17330.0 0.00052707
17350.0 0.00052442
17370.0 0.00052184
17390.0 0.00051926
17410.0 0.0005167
17430.0 0.00051418
17450.0 0.0005117
17470.0 0.0005092
17490.0 0.00050674
17510.0 0.00050433
17530.0 0.00050193
17550.0 0.00049954
17570.0 0.0004972
17590.0 0.00049488
17610.0 0.00049257
17630.0 0.00049029
17650.0 0.00048805
17670.0 0.00048581
17690.0 0.00048358
17710.0 0.0004814
17730.0 0.00047925
17750.0 0.0004771
17770.0 0.00047498
17790.0 0.00047291
17810.0 0.00047083
17830.0 0.00046876
17850.0 0.00046674
17870.0 0.00046474
17890.0 0.00046274
17910.0 0.00046077
17930.0 0.00045884
17950.0 0.00045691
17970.0 0.000455
17990.0 0.00045313
18010.0 0.00045128
18030.0 0.00044941
18050.0 0.00044759
18070.0 0.00044579
18090.0 0.000444
18110.0 0.00044222
18130.0 0.00044049
18150.0 0.00043877
18170.0 0.00043705
18190.0 0.00043536
18210.0 0.0004337
18230.0 0.00043203
18250.0 0.00043038
18270.0 0.00042877
18290.0 0.00042717
18310.0 0.00042557
18330.0 0.00042401
18350.0 0.00042247
18370.0 0.00042092
18390.0 0.00041939
18410.0 0.0004179
18430.0 0.00041642
18450.0 0.00041493
18470.0 0.00041347
18490.0 0.00041205
18510.0 0.00041061
18530.0 0.0004092
18550.0 0.00040782
18570.0 0.00040644
18590.0 0.00040506
18610.0 0.00040371
18630.0 0.00040238
18650.0 0.00040105
18670.0 0.00039973
18690.0 0.00039845
18710.0 0.00039717
18730.0 0.00039589
18750.0 0.00039465
18770.0 0.00039342
18790.0 0.00039217
18810.0 0.00039095
18830.0 0.00038976
18850.0 0.00038857
18870.0 0.00038737
18890.0 0.00038622
18910.0 0.00038508
18930.0 0.00038392
18950.0 0.00038279
18970.0 0.00038168
18990.0 0.00038057
19010.0 0.00037945
19030.0 0.00037838
19050.0 0.00037731
19070.0 0.00037624
19090.0 0.00037519
19110.0 0.00037416
19130.0 0.00037312
19150.0 0.00037209
19170.0 0.00037109
19190.0 0.00037009
19210.0 0.00036909
19230.0 0.0003681
19250.0 0.00036715
19270.0 0.00036618
19290.0 0.00036522
19310.0 0.00036429
19330.0 0.00036336
19350.0 0.00036242
19370.0 0.0003615
19390.0 0.0003606
19410.0 0.0003597
19430.0 0.0003588
19450.0 0.00035793
19470.0 0.00035706
19490.0 0.00035618
19510.0 0.00035533
19530.0 0.00035449
19550.0 0.00035364
19570.0 0.00035279
19590.0 0.00035198
19610.0 0.00035116
19630.0 0.00035034
19650.0 0.00034954
19670.0 0.00034876
19690.0 0.00034795
19710.0 0.00034716
19730.0 0.0003464
19750.0 0.00034563
19770.0 0.00034485
19790.0 0.0003441
19810.0 0.00034335
19830.0 0.0003426
19850.0 0.00034183
19870.0 0.00034107
19890.0 0.00034023
19910.0 0.00033927
19930.0 0.00033816
19950.0 0.00033678
19970.0 0.00033497
19990.0 0.00033265
20010.0 0.00032989
20030.0 0.00032645
20050.0 0.00032236
20070.0 0.00031789
20090.0 0.00031307
20110.0 0.00030763
20130.0 0.00030214
20150.0 0.00029673
20170.0 0.00029115
20190.0 0.0002855
20210.0 0.00028017
20230.0 0.00027496
20250.0 0.00026973
20270.0 0.00026483
20290.0 0.00026031
20310.0 0.00025596
20330.0 0.00025182
20350.0 0.0002483
20370.0 0.00024511
20390.0 0.00024222
20410.0 0.00023981
20430.0 0.00023786
20450.0 0.00023622
20470.0 0.00023502
20490.0 0.00023424
20510.0 0.00023382
20530.0 0.00023376
20550.0 0.00023404
20570.0 0.00023458
20590.0 0.00023539
20610.0 0.00023644
20630.0 0.00023762
20650.0 0.00023894
20670.0 0.00024044
20690.0 0.00024192
20710.0 0.00024339
20730.0 0.00024487
20750.0 0.0002463
20770.0 0.00024755
20790.0 0.00024871
20810.0 0.00024973
20830.0 0.00025054
20850.0 0.00025115
20870.0 0.00025156
20890.0 0.00025173
20910.0 0.00025168
20930.0 0.0002514
20950.0 0.00025089
20970.0 0.00025018
20990.0 0.00024929
21010.0 0.00024817
21030.0 0.0002469
21050.0 0.00024553
21070.0 0.00024401
21090.0 0.00024233
21110.0 0.00024066
21130.0 0.00023897
21150.0 0.00023719
21170.0 0.00023543
21190.0 0.00023377
21210.0 0.00023209
21230.0 0.00023046
21250.0 0.00022899
21270.0 0.00022765
21290.0 0.00022639
21310.0 0.00022531
21330.0 0.00022443
21350.0 0.00022369
21370.0 0.00022314
21390.0 0.00022278
21410.0 0.00022261
21430.0 0.00022263
21450.0 0.00022284
21470.0 0.00022321
21490.0 0.00022376
21510.0 0.00022449
21530.0 0.00022534
21550.0 0.00022632
21570.0 0.00022748
21590.0 0.00022872
21610.0 0.00023004
21630.0 0.00023148
21650.0 0.00023306
21670.0 0.00023461
21690.0 0.00023623
21710.0 0.00023796
21730.0 0.0002397
21750.0 0.00024142
21770.0 0.00024327
21790.0 0.00024512
21810.0 0.00024693
21830.0 0.00024875
21850.0 0.00025063
21870.0 0.00025245
21890.0 0.0002542
21910.0 0.00025598
21930.0 0.00025772
21950.0 0.00025935
21970.0 0.00026094
21990.0 0.00026252
22010.0 0.00026394
22030.0 0.00026523
22050.0 0.00026644
22070.0 0.00026751
22090.0 0.00026838
22110.0 0.0002691
22130.0 0.00026966
22150.0 0.00027
22170.0 0.00027013
22190.0 0.00027004
22210.0 0.0002697
22230.0 0.00026915
22250.0 0.00026834
22270.0 0.00026727
22290.0 0.000266
22310.0 0.00026452
22330.0 0.00026272
22350.0 0.00026073
22370.0 0.00025859
22390.0 0.00025622
22410.0 0.00025358
22430.0 0.00025091
22450.0 0.00024812
22470.0 0.0002451
22490.0 0.00024203
22510.0 0.00023899
22530.0 0.00023578
22550.0 0.00023247
22570.0 0.00022931
22590.0 0.00022616
22610.0 0.00022294
22630.0 0.00021983
22650.0 0.00021692
22670.0 0.00021399
22690.0 0.00021114
22710.0 0.0002085
22730.0 0.00020598
22750.0 0.00020345
22770.0 0.00020116
22790.0 0.00019906
22810.0 0.00019702
22830.0 0.00019509
22850.0 0.00019336
22870.0 0.00019172
22890.0 0.00019012
22910.0 0.00018868
22930.0 0.00018735
22950.0 0.00018607
22970.0 0.00018485
22990.0 0.00018378
23010.0 0.00018276
23030.0 0.00018178
23050.0 0.00018088
23070.0 0.00018006
23090.0 0.00017925
23110.0 0.0001785
23130.0 0.00017781
23150.0 0.00017716
23170.0 0.00017653
23190.0 0.00017595
