#lamb flux
1010.0 0.00012142
1030.0 0.00015965
1050.0 0.00020877
1070.0 0.00027075
1090.0 0.00034919
1110.0 0.00044144
1130.0 0.00054733
1150.0 0.00066961
1170.0 0.00080863
1190.0 0.0009566
1210.0 0.0011173
1230.0 0.0012903
1250.0 0.0014671
1270.0 0.001642
1290.0 0.0018196
1310.0 0.0019886
1330.0 0.0021387
1350.0 0.0022711
1370.0 0.0023842
1390.0 0.0024678
1410.0 0.0025193
1430.0 0.0025467
1450.0 0.0025451
1470.0 0.0025128
1490.0 0.0024576
1510.0 0.0023873
1530.0 0.0022954
1550.0 0.0021895
1570.0 0.0020744
1590.0 0.0019544
1610.0 0.0018306
1630.0 0.0017107
1650.0 0.0015963
1670.0 0.0014864
1690.0 0.0013838
1710.0 0.001291
1730.0 0.0012073
1750.0 0.001131
1770.0 0.0010649
1790.0 0.0010083
1810.0 0.0009597
1830.0 0.00091919
1850.0 0.00088876
1870.0 0.00086595
1890.0 0.00084948
1910.0 0.00084001
1930.0 0.00083723
1950.0 0.00083843
1970.0 0.00084512
1990.0 0.00085862
2010.0 0.00087775
2030.0 0.00090196
2050.0 0.0009321
2070.0 0.00096607
2090.0 0.0010031
2110.0 0.0010443
2130.0 0.00109
2150.0 0.0011391
2170.0 0.0011909
2190.0 0.0012465
2210.0 0.0013058
2230.0 0.0013677
2250.0 0.0014318
2270.0 0.001499
2290.0 0.0015672
2310.0 0.0016358
2330.0 0.0017061
2350.0 0.0017772
2370.0 0.0018475
2390.0 0.0019176
2410.0 0.0019883
2430.0 0.002057
2450.0 0.002124
2470.0 0.0021909
2490.0 0.0022587
2510.0 0.0023269
2530.0 0.0024017
2550.0 0.0024912
2570.0 0.0026019
2590.0 0.0027429
2610.0 0.0029421
2630.0 0.0032109
2650.0 0.0035482
2670.0 0.0039765
2690.0 0.0045117
2710.0 0.0051135
2730.0 0.0057569
2750.0 0.0064619
2770.0 0.0071585
2790.0 0.0077865
2810.0 0.0083498
2830.0 0.0088455
2850.0 0.0092055
2870.0 0.0094724
2890.0 0.0096785
2910.0 0.0098256
2930.0 0.0099185
2950.0 0.0099946
2970.0 0.010057
2990.0 0.010096
3010.0 0.010122
3030.0 0.010151
3050.0 0.010176
3070.0 0.010183
3090.0 0.010196
3110.0 0.010218
3130.0 0.010248
3150.0 0.010114
3170.0 0.010098
3190.0 0.010159
3210.0 0.010358
3230.0 0.010827
3250.0 0.011911
3270.0 0.013546
3290.0 0.015146
3310.0 0.016422
3330.0 0.016881
3350.0 0.017116
3370.0 0.017363
3390.0 0.0176
3410.0 0.017751
3430.0 0.017834
3450.0 0.017899
3470.0 0.017997
3490.0 0.017961
3510.0 0.017364
3530.0 0.015768
3550.0 0.0148
3570.0 0.016752
3590.0 0.019963
3610.0 0.022469
3630.0 0.026155
3650.0 0.025983
3670.0 0.02264
3690.0 0.019411
3710.0 0.018152
3730.0 0.018768
3750.0 0.01931
3770.0 0.020044
3790.0 0.020851
3810.0 0.021831
3830.0 0.020344
3850.0 0.018248
3870.0 0.017243
3890.0 0.018286
3910.0 0.018939
3930.0 0.019079
3950.0 0.020277
3970.0 0.021654
3990.0 0.0219
4010.0 0.022185
4030.0 0.021404
4050.0 0.020832
4070.0 0.02042
4090.0 0.020511
4110.0 0.020674
4130.0 0.02009
4150.0 0.019204
4170.0 0.018822
4190.0 0.018411
4210.0 0.016938
4230.0 0.015471
4250.0 0.013821
4270.0 0.012371
4290.0 0.011869
4310.0 0.011597
4330.0 0.011801
4350.0 0.012913
4370.0 0.013277
4390.0 0.014513
4410.0 0.01541
4430.0 0.015629
4450.0 0.014181
4470.0 0.012648
4490.0 0.012097
4510.0 0.011616
4530.0 0.011367
4550.0 0.011095
4570.0 0.011068
4590.0 0.011285
4610.0 0.011208
4630.0 0.011153
4650.0 0.010929
4670.0 0.010659
4690.0 0.0097671
4710.0 0.0089908
4730.0 0.0082754
4750.0 0.0078415
4770.0 0.0072153
4790.0 0.0071553
4810.0 0.0068862
4830.0 0.0057978
4850.0 0.0065247
4870.0 0.0054039
4890.0 0.0059184
4910.0 0.0063175
4930.0 0.0060027
4950.0 0.0047202
4970.0 0.004451
4990.0 0.0041973
5010.0 0.0036223
5030.0 0.0034726
5050.0 0.0041234
5070.0 0.004145
5090.0 0.0043229
5110.0 0.0043813
5130.0 0.0042815
5150.0 0.0044235
5170.0 0.0040018
5190.0 0.0038431
5210.0 0.0041549
5230.0 0.0038537
5250.0 0.0041495
5270.0 0.0047181
5290.0 0.0046359
5310.0 0.0042098
5330.0 0.0041549
5350.0 0.0037441
5370.0 0.0037446
5390.0 0.0038475
5410.0 0.0037111
5430.0 0.0039939
5450.0 0.0036861
5470.0 0.0037348
5490.0 0.0046376
5510.0 0.0047479
5530.0 0.0048368
5550.0 0.0048144
5570.0 0.0050663
5590.0 0.0052952
5610.0 0.0053205
5630.0 0.0052819
5650.0 0.0053124
5670.0 0.0052599
5690.0 0.0052889
5710.0 0.00513
5730.0 0.0053643
5750.0 0.0052572
5770.0 0.0050248
5790.0 0.0050377
5810.0 0.004795
5830.0 0.0050158
5850.0 0.0051567
5870.0 0.005158
5890.0 0.0052709
5910.0 0.005658
5930.0 0.0056774
5950.0 0.0058164
5970.0 0.0058949
5990.0 0.0060702
6010.0 0.0059681
6030.0 0.0059713
6050.0 0.0059837
6070.0 0.0058832
6090.0 0.0060581
6110.0 0.0060772
6130.0 0.0059131
6150.0 0.0058452
6170.0 0.0058005
6190.0 0.0053431
6210.0 0.005319
6230.0 0.0054553
6250.0 0.0054376
6270.0 0.005423
6290.0 0.005611
6310.0 0.0058405
6330.0 0.0058451
6350.0 0.0057215
6370.0 0.0057636
6390.0 0.005546
6410.0 0.0055461
6430.0 0.0053827
6450.0 0.0053847
6470.0 0.0053895
6490.0 0.0053989
6510.0 0.0051853
6530.0 0.005144
6550.0 0.0050643
6570.0 0.0049193
6590.0 0.0050367
6610.0 0.0050354
6630.0 0.0049163
6650.0 0.0047072
6670.0 0.0046077
6690.0 0.0045051
6710.0 0.0043538
6730.0 0.0042692
6750.0 0.0042858
6770.0 0.0043741
6790.0 0.0043023
6810.0 0.0042492
6830.0 0.0040288
6850.0 0.0037485
6870.0 0.0036617
6890.0 0.0036098
6910.0 0.0035696
6930.0 0.0034943
6950.0 0.0035139
6970.0 0.0033747
6990.0 0.0032992
7010.0 0.0032853
7030.0 0.0033174
7050.0 0.003226
7070.0 0.0029621
7090.0 0.0027636
7110.0 0.0027195
7130.0 0.0027452
7150.0 0.0027381
7170.0 0.002694
7190.0 0.0025688
7210.0 0.0027084
7230.0 0.0028277
7250.0 0.0027904
7270.0 0.0027804
7290.0 0.0028326
7310.0 0.0026998
7330.0 0.0025955
7350.0 0.0024635
7370.0 0.0024957
7390.0 0.0025832
7410.0 0.0023297
7430.0 0.0023417
7450.0 0.0022955
7470.0 0.0024097
7490.0 0.0023859
7510.0 0.0022145
7530.0 0.0022739
7550.0 0.0019227
7570.0 0.001807
7590.0 0.0018911
7610.0 0.0020254
7630.0 0.0019681
7650.0 0.0020742
7670.0 0.0017987
7690.0 0.0016321
7710.0 0.0017521
7730.0 0.0019362
7750.0 0.0017937
7770.0 0.001979
7790.0 0.0020133
7810.0 0.0019261
7830.0 0.0020959
7850.0 0.0018972
7870.0 0.0020785
7890.0 0.0019498
7910.0 0.0019175
7930.0 0.0017604
7950.0 0.001658
7970.0 0.0017535
7990.0 0.0017648
8010.0 0.0033825
8030.0 0.0032973
8050.0 0.0032444
8070.0 0.0031464
8090.0 0.0028529
8110.0 0.0028021
8130.0 0.0031161
8150.0 0.0033059
8170.0 0.0034072
8190.0 0.0035602
8210.0 0.0034201
8230.0 0.0034288
8250.0 0.003409
8270.0 0.0034091
8290.0 0.0033653
8310.0 0.0031976
8330.0 0.0031114
8350.0 0.003211
8370.0 0.0032568
8390.0 0.0031749
8410.0 0.0031386
8430.0 0.0030289
8450.0 0.0029573
8470.0 0.0031756
8490.0 0.0031929
8510.0 0.0029921
8530.0 0.0029714
8550.0 0.0029347
8570.0 0.0027339
8590.0 0.0027634
8610.0 0.0027825
8630.0 0.0028855
8650.0 0.0028954
8670.0 0.0029087
8690.0 0.0028487
8710.0 0.0027738
8730.0 0.0026763
8750.0 0.0026219
8770.0 0.0026106
8790.0 0.0027166
8810.0 0.0025612
8830.0 0.0025275
8850.0 0.0026579
8870.0 0.002518
8890.0 0.0023315
8910.0 0.0022963
8930.0 0.0023146
8950.0 0.0021469
8970.0 0.0020576
8990.0 0.0020105
9010.0 0.0018925
9030.0 0.001864
9050.0 0.0018549
9070.0 0.0018469
9090.0 0.0018387
9110.0 0.0018304
9130.0 0.001822
9150.0 0.0018137
9170.0 0.0018052
9190.0 0.0017967
9210.0 0.0017881
9230.0 0.0017795
9250.0 0.0017708
9270.0 0.001762
9290.0 0.0017532
9310.0 0.0017453
9330.0 0.0017389
9350.0 0.0017324
9370.0 0.0017258
9390.0 0.0017191
9410.0 0.0017124
9430.0 0.0017057
9450.0 0.0016989
9470.0 0.0016929
9490.0 0.0016864
9510.0 0.001679
9530.0 0.0016717
9550.0 0.0016645
9570.0 0.0016574
9590.0 0.0016502
9610.0 0.0016445
9630.0 0.001639
9650.0 0.0016334
9670.0 0.0016277
9690.0 0.001622
9710.0 0.0016163
9730.0 0.0016104
9750.0 0.0016046
9770.0 0.0015989
9790.0 0.001593
9810.0 0.001587
9830.0 0.0015811
9850.0 0.0015744
9870.0 0.0015668
9890.0 0.0015619
9910.0 0.0015565
9930.0 0.00155
9950.0 0.0015441
9970.0 0.0015385
9990.0 0.0015328
10010.0 0.0015269
10030.0 0.001521
10050.0 0.001515
10070.0 0.001509
10090.0 0.001503
10110.0 0.0014969
10130.0 0.0014909
10150.0 0.0014849
10170.0 0.0014789
10190.0 0.001473
10210.0 0.001467
10230.0 0.0014611
10250.0 0.0014551
10270.0 0.0014492
10290.0 0.0014434
10310.0 0.0014375
10330.0 0.0014317
10350.0 0.0014258
10370.0 0.0014201
10390.0 0.0014142
10410.0 0.0014074
10430.0 0.0014003
10450.0 0.0013958
10470.0 0.0013907
10490.0 0.0013855
10510.0 0.0013802
10530.0 0.0013747
10550.0 0.0013693
10570.0 0.0013639
10590.0 0.0013585
10610.0 0.001353
10630.0 0.0013478
10650.0 0.0013425
10670.0 0.0013371
10690.0 0.0013319
10710.0 0.0013268
10730.0 0.0013216
10750.0 0.0013164
10770.0 0.0013114
10790.0 0.0013064
10810.0 0.0013013
10830.0 0.0012964
10850.0 0.0012916
10870.0 0.0012866
10890.0 0.0012816
10910.0 0.0012767
10930.0 0.0012717
10950.0 0.0012664
10970.0 0.0012609
10990.0 0.0012553
11010.0 0.0012275
11030.0 0.0012209
11050.0 0.0012137
11070.0 0.0012057
11090.0 0.0011967
11110.0 0.0011876
11130.0 0.0011783
11150.0 0.0011685
11170.0 0.0011584
11190.0 0.0011484
11210.0 0.0011382
11230.0 0.0011277
11250.0 0.0011174
11270.0 0.0011073
11290.0 0.001097
11310.0 0.0010869
11330.0 0.0010775
11350.0 0.0010681
11370.0 0.001059
11390.0 0.0010504
11410.0 0.0010422
11430.0 0.0010341
11450.0 0.0010263
11470.0 0.001019
11490.0 0.0010117
11510.0 0.0010044
11530.0 0.00099735
11550.0 0.00099039
11570.0 0.00098323
11590.0 0.00097605
11610.0 0.00096895
11630.0 0.00096155
11650.0 0.00095389
11670.0 0.00094633
11690.0 0.00093864
11710.0 0.00093064
11730.0 0.00092257
11750.0 0.00091464
11770.0 0.00090641
11790.0 0.00089805
11810.0 0.00088987
11830.0 0.00088172
11850.0 0.00087331
11870.0 0.00086519
11890.0 0.00085741
11910.0 0.00084964
11930.0 0.00084204
11950.0 0.00083492
11970.0 0.00082805
11990.0 0.00082131
12010.0 0.00081507
12030.0 0.00080927
12050.0 0.00080374
12070.0 0.00079854
12090.0 0.00079391
12110.0 0.00078959
12130.0 0.00078555
12150.0 0.00078188
12170.0 0.00077853
12190.0 0.00077533
12210.0 0.00077233
12230.0 0.0007695
12250.0 0.0007667
12270.0 0.00076386
12290.0 0.00076098
12310.0 0.000758
12330.0 0.00075477
12350.0 0.00075129
12370.0 0.0007476
12390.0 0.00074358
12410.0 0.00073907
12430.0 0.00073436
12450.0 0.00072936
12470.0 0.0007239
12490.0 0.0007181
12510.0 0.0007122
12530.0 0.0007059
12550.0 0.0006992
12570.0 0.00069245
12590.0 0.00068557
12610.0 0.0006783
12630.0 0.0006709
12650.0 0.00066376
12670.0 0.00065641
12690.0 0.00064894
12710.0 0.00064172
12730.0 0.00063465
12750.0 0.00062735
12770.0 0.00062035
12790.0 0.00061372
12810.0 0.00060716
12830.0 0.00060071
12850.0 0.00059477
12870.0 0.00058914
12890.0 0.00058364
12910.0 0.00057854
12930.0 0.00057393
12950.0 0.00056954
12970.0 0.00056549
12990.0 0.00056201
13010.0 0.00055894
13030.0 0.00055622
13050.0 0.00055397
13070.0 0.00055215
13090.0 0.00055065
13110.0 0.00054948
13130.0 0.0005486
13150.0 0.00054793
13170.0 0.0005474
13190.0 0.00054696
13210.0 0.00054654
13230.0 0.00054606
13250.0 0.00054548
13270.0 0.00054477
13290.0 0.00054387
13310.0 0.00054273
13330.0 0.00054137
13350.0 0.00053979
13370.0 0.00053791
13390.0 0.0005357
13410.0 0.00053337
13430.0 0.00053073
13450.0 0.00052775
13470.0 0.00052458
13490.0 0.00052128
13510.0 0.00051753
13530.0 0.00051362
13550.0 0.00050968
13570.0 0.00050553
13590.0 0.00050111
13610.0 0.00049672
13630.0 0.00049237
13650.0 0.00048775
13670.0 0.0004831
13690.0 0.00047857
13710.0 0.00047393
13730.0 0.00046902
13750.0 0.0004644
13770.0 0.00045982
13790.0 0.00045509
13810.0 0.00045042
13830.0 0.00044601
13850.0 0.00044149
13870.0 0.00043695
13890.0 0.00043266
13910.0 0.00042851
13930.0 0.00042429
13950.0 0.00042022
13970.0 0.0004165
13990.0 0.0004128
14010.0 0.00040918
14030.0 0.00040585
14050.0 0.0004027
14070.0 0.00039953
14090.0 0.00039663
14110.0 0.00039398
14130.0 0.00039142
14150.0 0.00038895
14170.0 0.00038677
14190.0 0.00038471
14210.0 0.00038268
14230.0 0.00038081
14250.0 0.00037909
14270.0 0.00037737
14290.0 0.00037568
14310.0 0.00037417
14330.0 0.0003727
14350.0 0.00037122
14370.0 0.00036983
14390.0 0.00036857
14410.0 0.00036727
14430.0 0.00036601
14450.0 0.00036487
14470.0 0.00036376
14490.0 0.00036261
14510.0 0.00036155
14530.0 0.00036057
14550.0 0.00035954
14570.0 0.00035852
14590.0 0.00035756
14610.0 0.00035657
14630.0 0.0003555
14650.0 0.00035448
14670.0 0.00035346
14690.0 0.00035237
14710.0 0.00035123
14730.0 0.00035016
14750.0 0.00034902
14770.0 0.00034781
14790.0 0.0003466
14810.0 0.00034539
14830.0 0.00034402
14850.0 0.00034264
14870.0 0.00034128
14890.0 0.00033987
14910.0 0.00033839
14930.0 0.000337
14950.0 0.00033572
14970.0 0.00033445
14990.0 0.00033334
15010.0 0.00033244
15030.0 0.00033167
15050.0 0.00033099
15070.0 0.00033051
15090.0 0.00033012
15110.0 0.00032975
15130.0 0.00032942
15150.0 0.00032914
15170.0 0.00032883
15190.0 0.00032851
15210.0 0.00032821
15230.0 0.00032791
15250.0 0.00032757
15270.0 0.00032723
15290.0 0.00032692
15310.0 0.00032658
15330.0 0.00032621
15350.0 0.00032587
15370.0 0.00032552
15390.0 0.00032512
15410.0 0.00032473
15430.0 0.00032435
15450.0 0.00032395
15470.0 0.00032351
15490.0 0.00032311
15510.0 0.0003227
15530.0 0.00032224
15550.0 0.0003218
15570.0 0.00032136
15590.0 0.00032088
15610.0 0.00032038
15630.0 0.00031991
15650.0 0.00031942
15670.0 0.0003189
15690.0 0.00031839
15710.0 0.00031789
15730.0 0.00031734
15750.0 0.00031678
15770.0 0.00031624
15790.0 0.00031568
15810.0 0.00031508
15830.0 0.00031449
15850.0 0.00031392
15870.0 0.00031331
15890.0 0.00031268
15910.0 0.00031208
15930.0 0.00031145
15950.0 0.00031078
15970.0 0.00031012
15990.0 0.00030948
16010.0 0.00030879
16030.0 0.00030808
16050.0 0.00030741
16070.0 0.00030672
16090.0 0.00030599
16110.0 0.00030527
16130.0 0.00030457
16150.0 0.0003038
16170.0 0.00030303
16190.0 0.00030229
16210.0 0.00030153
16230.0 0.00030073
16250.0 0.00029995
16270.0 0.00029918
16290.0 0.00029836
16310.0 0.00029755
16330.0 0.00029675
16350.0 0.00029592
16370.0 0.00029505
16390.0 0.00029422
16410.0 0.00029338
16430.0 0.00029251
16450.0 0.00029164
16470.0 0.0002908
16490.0 0.00028991
16510.0 0.000289
16530.0 0.00028812
16550.0 0.00028723
16570.0 0.0002863
16590.0 0.00028537
16610.0 0.00028448
16630.0 0.00028355
16650.0 0.0002826
16670.0 0.00028168
16690.0 0.00028075
16710.0 0.00027977
16730.0 0.00027881
16750.0 0.00027787
16770.0 0.00027689
16790.0 0.0002759
16810.0 0.00027495
16830.0 0.00027398
16850.0 0.00027297
16870.0 0.00027199
16890.0 0.00027101
16910.0 0.00027
16930.0 0.00026897
16950.0 0.00026799
16970.0 0.00026698
16990.0 0.00026595
17010.0 0.00026494
17030.0 0.00026394
17050.0 0.00026291
17070.0 0.00026187
17090.0 0.00026085
17110.0 0.00025983
17130.0 0.00025876
17150.0 0.00025773
17170.0 0.00025671
17190.0 0.00025566
17210.0 0.00025461
17230.0 0.00025358
17250.0 0.00025254
17270.0 0.00025146
17290.0 0.00025042
17310.0 0.00024938
17330.0 0.00024831
17350.0 0.00024724
17370.0 0.00024621
17390.0 0.00024515
17410.0 0.00024408
17430.0 0.00024303
17450.0 0.00024199
17470.0 0.0002409
17490.0 0.00023983
17510.0 0.00023879
17530.0 0.00023773
17550.0 0.00023665
17570.0 0.0002356
17590.0 0.00023455
17610.0 0.00023348
17630.0 0.00023241
17650.0 0.00023137
17670.0 0.00023031
17690.0 0.00022921
17710.0 0.00022817
17730.0 0.00022712
17750.0 0.00022605
17770.0 0.00022499
17790.0 0.00022396
17810.0 0.00022289
17830.0 0.00022182
17850.0 0.00022078
17870.0 0.00021974
17890.0 0.00021866
17910.0 0.0002176
17930.0 0.00021658
17950.0 0.00021553
17970.0 0.00021447
17990.0 0.00021344
18010.0 0.00021241
18030.0 0.00021134
18050.0 0.0002103
18070.0 0.00020928
18090.0 0.00020824
18110.0 0.00020719
18130.0 0.00020618
18150.0 0.00020516
18170.0 0.00020411
18190.0 0.00020309
18210.0 0.00020209
18230.0 0.00020105
18250.0 0.00020001
18270.0 0.00019901
18290.0 0.000198
18310.0 0.00019697
18330.0 0.00019597
18350.0 0.00019499
18370.0 0.00019397
18390.0 0.00019295
18410.0 0.00019197
18430.0 0.00019097
18450.0 0.00018995
18470.0 0.00018896
18490.0 0.00018799
18510.0 0.000187
18530.0 0.00018601
18550.0 0.00018505
18570.0 0.00018407
18590.0 0.00018307
18610.0 0.0001821
18630.0 0.00018114
18650.0 0.00018016
18670.0 0.00017918
18690.0 0.00017824
18710.0 0.00017728
18730.0 0.00017631
18750.0 0.00017537
18770.0 0.00017443
18790.0 0.00017346
18810.0 0.0001725
18830.0 0.00017158
18850.0 0.00017064
18870.0 0.00016968
18890.0 0.00016876
18910.0 0.00016785
18930.0 0.0001669
18950.0 0.00016597
18970.0 0.00016507
18990.0 0.00016414
19010.0 0.00016319
19030.0 0.0001623
19050.0 0.0001614
19070.0 0.00016047
19090.0 0.00015957
19110.0 0.00015869
19130.0 0.00015778
19150.0 0.00015686
19170.0 0.00015598
19190.0 0.0001551
19210.0 0.00015419
19230.0 0.00015329
19250.0 0.00015243
19270.0 0.00015155
19290.0 0.00015066
19310.0 0.0001498
19330.0 0.00014893
19350.0 0.00014803
19370.0 0.00014717
19390.0 0.00014632
19410.0 0.00014545
19430.0 0.00014457
19450.0 0.00014373
19470.0 0.00014288
19490.0 0.00014202
19510.0 0.00014117
19530.0 0.00014034
19550.0 0.00013948
19570.0 0.00013861
19590.0 0.00013779
19610.0 0.00013696
19630.0 0.0001361
19650.0 0.00013528
19670.0 0.00013447
19690.0 0.00013362
19710.0 0.00013278
19730.0 0.00013197
19750.0 0.00013115
19770.0 0.0001303
19790.0 0.00012949
19810.0 0.00012869
19830.0 0.00012786
19850.0 0.00012705
19870.0 0.00012626
19890.0 0.00012546
19910.0 0.00012466
19930.0 0.00012391
19950.0 0.00012319
19970.0 0.0001225
19990.0 0.00012188
20010.0 0.00012135
20030.0 0.00012088
20050.0 0.00012047
20070.0 0.00012013
20090.0 0.00011985
20110.0 0.0001196
20130.0 0.00011939
20150.0 0.0001192
20170.0 0.00011902
20190.0 0.00011885
20210.0 0.00011868
20230.0 0.00011852
20250.0 0.00011836
20270.0 0.00011819
20290.0 0.00011803
20310.0 0.00011785
20330.0 0.00011766
20350.0 0.00011748
20370.0 0.00011728
20390.0 0.00011707
20410.0 0.00011685
20430.0 0.00011662
20450.0 0.00011638
20470.0 0.00011614
20490.0 0.00011589
20510.0 0.00011564
20530.0 0.00011539
20550.0 0.00011514
20570.0 0.0001149
20590.0 0.00011465
20610.0 0.00011441
20630.0 0.00011419
20650.0 0.00011396
20670.0 0.00011373
20690.0 0.0001135
20710.0 0.00011328
20730.0 0.00011305
20750.0 0.00011281
20770.0 0.00011257
20790.0 0.00011231
20810.0 0.00011203
20830.0 0.00011173
20850.0 0.00011142
20870.0 0.00011107
20890.0 0.0001107
20910.0 0.00011032
20930.0 0.00010992
20950.0 0.00010948
20970.0 0.00010903
20990.0 0.00010858
21010.0 0.00010809
21030.0 0.0001076
21050.0 0.00010711
21070.0 0.00010661
21090.0 0.00010609
21110.0 0.00010559
21130.0 0.00010509
21150.0 0.00010458
21170.0 0.00010407
21190.0 0.00010358
21210.0 0.00010307
21230.0 0.00010255
21250.0 0.00010204
21270.0 0.00010152
21290.0 0.00010098
21310.0 0.00010044
21330.0 9.9896e-05
21350.0 9.9326e-05
21370.0 9.8735e-05
21390.0 9.8147e-05
21410.0 9.7546e-05
21430.0 9.6899e-05
21450.0 9.6252e-05
21470.0 9.5603e-05
21490.0 9.4924e-05
21510.0 9.4222e-05
21530.0 9.3529e-05
21550.0 9.282e-05
21570.0 9.2077e-05
21590.0 9.1337e-05
21610.0 9.0601e-05
21630.0 8.984e-05
21650.0 8.9054e-05
21670.0 8.8301e-05
21690.0 8.7534e-05
21710.0 8.6744e-05
21730.0 8.5961e-05
21750.0 8.5192e-05
21770.0 8.4384e-05
21790.0 8.3575e-05
21810.0 8.2781e-05
21830.0 8.1976e-05
21850.0 8.1145e-05
21870.0 8.0324e-05
21890.0 7.9516e-05
21910.0 7.868e-05
21930.0 7.7841e-05
21950.0 7.7019e-05
21970.0 7.6187e-05
21990.0 7.533e-05
22010.0 7.4503e-05
22030.0 7.3688e-05
22050.0 7.2862e-05
22070.0 7.2023e-05
22090.0 7.1178e-05
22110.0 7.0332e-05
22130.0 6.9489e-05
22150.0 6.8674e-05
22170.0 6.7879e-05
22190.0 6.7082e-05
22210.0 6.6303e-05
22230.0 6.5556e-05
22250.0 6.4812e-05
22270.0 6.4075e-05
22290.0 6.3356e-05
22310.0 6.2648e-05
22330.0 6.1934e-05
22350.0 6.1228e-05
22370.0 6.053e-05
22390.0 5.9827e-05
22410.0 5.9115e-05
22430.0 5.841e-05
22450.0 5.7701e-05
22470.0 5.6978e-05
22490.0 5.625e-05
22510.0 5.5521e-05
22530.0 5.4775e-05
22550.0 5.4019e-05
22570.0 5.3261e-05
22590.0 5.2496e-05
22610.0 5.1717e-05
22630.0 5.0933e-05
22650.0 5.015e-05
22670.0 4.9354e-05
22690.0 4.8552e-05
22710.0 4.775e-05
22730.0 4.6944e-05
22750.0 4.6128e-05
22770.0 4.5313e-05
22790.0 4.4499e-05
22810.0 4.3678e-05
22830.0 4.2853e-05
22850.0 4.2027e-05
22870.0 4.1196e-05
22890.0 4.0356e-05
22910.0 3.9511e-05
22930.0 3.8659e-05
22950.0 3.7795e-05
22970.0 3.6919e-05
22990.0 3.6031e-05
23010.0 3.5128e-05
23030.0 3.4207e-05
23050.0 3.3269e-05
23070.0 3.2313e-05
23090.0 3.1336e-05
23110.0 3.1252e-05
23130.0 3.1235e-05
23150.0 3.1219e-05
23170.0 3.1203e-05
23190.0 3.1188e-05
23210.0 3.1175e-05
23230.0 3.1162e-05
23250.0 3.1151e-05
