#lamb flux
1010.0 1.2172e-05
1030.0 1.3241e-05
1050.0 1.4503e-05
1070.0 1.5924e-05
1090.0 1.7529e-05
1110.0 1.9176e-05
1130.0 2.0836e-05
1150.0 2.2576e-05
1170.0 2.4369e-05
1190.0 2.6068e-05
1210.0 2.7787e-05
1230.0 2.9559e-05
1250.0 3.1291e-05
1270.0 3.2965e-05
1290.0 3.4728e-05
1310.0 3.6481e-05
1330.0 3.8152e-05
1350.0 3.9835e-05
1370.0 4.1568e-05
1390.0 4.3251e-05
1410.0 4.4879e-05
1430.0 4.6582e-05
1450.0 4.8286e-05
1470.0 4.9933e-05
1490.0 5.1602e-05
1510.0 5.3372e-05
1530.0 5.5056e-05
1550.0 5.6724e-05
1570.0 5.8459e-05
1590.0 6.0206e-05
1610.0 6.1886e-05
1630.0 6.3631e-05
1650.0 6.5433e-05
1670.0 6.7187e-05
1690.0 6.8928e-05
1710.0 7.0744e-05
1730.0 7.2575e-05
1750.0 7.4306e-05
1770.0 7.6087e-05
1790.0 7.7903e-05
1810.0 7.9657e-05
1830.0 8.1373e-05
1850.0 8.3179e-05
1870.0 8.4921e-05
1890.0 8.6584e-05
1910.0 8.8254e-05
1930.0 8.9936e-05
1950.0 9.1503e-05
1970.0 9.3012e-05
1990.0 9.4544e-05
2010.0 9.6005e-05
2030.0 9.7361e-05
2050.0 9.8724e-05
2070.0 0.00010009
2090.0 0.00010131
2110.0 0.00010248
2130.0 0.00010367
2150.0 0.00010479
2170.0 0.00010581
2190.0 0.00010686
2210.0 0.00010789
2230.0 0.00010884
2250.0 0.00010977
2270.0 0.00011076
2290.0 0.00011168
2310.0 0.00011253
2330.0 0.00011343
2350.0 0.00011434
2370.0 0.00011519
2390.0 0.00011606
2410.0 0.00011703
2430.0 0.00011798
2450.0 0.00011894
2470.0 0.00012
2490.0 0.00012119
2510.0 0.00012245
2530.0 0.00012412
2550.0 0.00012668
2570.0 0.00013064
2590.0 0.00013669
2610.0 0.00014654
2630.0 0.00016078
2650.0 0.0001788
2670.0 0.00020095
2690.0 0.00022648
2710.0 0.00025178
2730.0 0.00027471
2750.0 0.00029474
2770.0 0.00030895
2790.0 0.00031653
2810.0 0.00031817
2830.0 0.000314
2850.0 0.00030569
2870.0 0.00029462
2890.0 0.00028122
2910.0 0.00026673
2930.0 0.00025239
2950.0 0.00023733
2970.0 0.0002219
2990.0 0.00020708
3010.0 0.00028009
3030.0 0.00025821
3050.0 0.00023659
3070.0 0.00021671
3090.0 0.00019682
3110.0 0.00017782
3130.0 0.00016145
3150.0 0.00015041
3170.0 0.0001416
3190.0 0.00023371
3210.0 0.00065779
3230.0 0.0013448
3250.0 0.0017063
3270.0 0.0015068
3290.0 0.0011565
3310.0 0.00095712
3330.0 0.00089678
3350.0 0.00092085
3370.0 0.00096971
3390.0 0.0010217
3410.0 0.0010741
3430.0 0.0011233
3450.0 0.0011765
3470.0 0.0012344
3490.0 0.0012739
3510.0 0.0012333
3530.0 0.0012597
3550.0 0.0015799
3570.0 0.001984
3590.0 0.002191
3610.0 0.0022595
3630.0 0.0023154
3650.0 0.0023123
3670.0 0.0024511
3690.0 0.0029331
3710.0 0.0034756
3730.0 0.0038305
3750.0 0.0040825
3770.0 0.0041325
3790.0 0.0039725
3810.0 0.0036721
3830.0 0.0032105
3850.0 0.0027217
3870.0 0.0024694
3890.0 0.0027624
3910.0 0.0034942
3930.0 0.004226
3950.0 0.004661
3970.0 0.004845
3990.0 0.0050472
4010.0 0.0051639
4030.0 0.004659
4050.0 0.0036767
4070.0 0.0031729
4090.0 0.0033444
4110.0 0.0036819
4130.0 0.0038714
4150.0 0.0038922
4170.0 0.0038034
4190.0 0.0037387
4210.0 0.0038335
4230.0 0.004057
4250.0 0.0042389
4270.0 0.0043064
4290.0 0.0042471
4310.0 0.0042745
4330.0 0.004534
4350.0 0.0048408
4370.0 0.0048184
4390.0 0.0044689
4410.0 0.0039444
4430.0 0.0033021
4450.0 0.0028487
4470.0 0.002834
4490.0 0.0030956
4510.0 0.0034301
4530.0 0.0037919
4550.0 0.0043583
4570.0 0.0054464
4590.0 0.0069977
4610.0 0.0082656
4630.0 0.0089048
4650.0 0.0094307
4670.0 0.0099416
4690.0 0.0097236
4710.0 0.0084797
4730.0 0.0068348
4750.0 0.0055093
4770.0 0.0047097
4790.0 0.004415
4810.0 0.004414
4830.0 0.0047228
4850.0 0.0053398
4870.0 0.0058923
4890.0 0.0060725
4910.0 0.0062152
4930.0 0.0067987
4950.0 0.0075856
4970.0 0.0079917
4990.0 0.0077708
5010.0 0.00696
5030.0 0.0058289
5050.0 0.0048719
5070.0 0.0042864
5090.0 0.0040463
5110.0 0.0040463
5130.0 0.0040853
5150.0 0.004049
5170.0 0.0039597
5190.0 0.0040034
5210.0 0.004292
5230.0 0.004811
5250.0 0.0055927
5270.0 0.0064019
5290.0 0.006939
5310.0 0.0073583
5330.0 0.0078914
5350.0 0.0082729
5370.0 0.0081394
5390.0 0.0076636
5410.0 0.0073056
5430.0 0.0074978
5450.0 0.0083401
5470.0 0.0093764
5490.0 0.010067
5510.0 0.010232
5530.0 0.010031
5550.0 0.0096358
5570.0 0.0091732
5590.0 0.0087383
5610.0 0.0084051
5630.0 0.0082197
5650.0 0.0079781
5670.0 0.0074119
5690.0 0.0066422
5710.0 0.0059555
5730.0 0.0054538
5750.0 0.0052401
5770.0 0.0052889
5790.0 0.0053545
5810.0 0.0053249
5830.0 0.0052461
5850.0 0.0050674
5870.0 0.0048303
5890.0 0.0047115
5910.0 0.0046918
5930.0 0.0045373
5950.0 0.0041509
5970.0 0.0035968
5990.0 0.0029981
6010.0 0.002585
6030.0 0.0024759
6050.0 0.0026107
6070.0 0.0027363
6090.0 0.0026445
6110.0 0.0024949
6130.0 0.0025457
6150.0 0.0027606
6170.0 0.0029578
6190.0 0.0030708
6210.0 0.0031057
6230.0 0.003021
6250.0 0.0027526
6270.0 0.0023691
6290.0 0.0020538
6310.0 0.001942
6330.0 0.0020011
6350.0 0.0021037
6370.0 0.0022359
6390.0 0.0025185
6410.0 0.0029434
6430.0 0.0032968
6450.0 0.003473
6470.0 0.0035705
6490.0 0.003642
6510.0 0.0036714
6530.0 0.0036911
6550.0 0.0037408
6570.0 0.0038031
6590.0 0.0038454
6610.0 0.0037995
6630.0 0.0036291
6650.0 0.0033712
6670.0 0.0031255
6690.0 0.0029671
6710.0 0.0028473
6730.0 0.0027204
6750.0 0.0026596
6770.0 0.0027206
6790.0 0.002808
6810.0 0.002835
6830.0 0.00279
6850.0 0.0026809
6870.0 0.0025696
6890.0 0.0025072
6910.0 0.0025141
6930.0 0.0025567
6950.0 0.0025905
6970.0 0.00262
6990.0 0.0026117
7010.0 0.002529
7030.0 0.0023573
7050.0 0.0021337
7070.0 0.0019771
7090.0 0.0019564
7110.0 0.0019884
7130.0 0.0019202
7150.0 0.0017833
7170.0 0.0017658
7190.0 0.0019235
7210.0 0.0021445
7230.0 0.0023238
7250.0 0.002397
7270.0 0.002345
7290.0 0.0022243
7310.0 0.002132
7330.0 0.0021354
7350.0 0.0021869
7370.0 0.0022286
7390.0 0.0023245
7410.0 0.0025165
7430.0 0.0027364
7450.0 0.0029071
7470.0 0.0029566
7490.0 0.002815
7510.0 0.0026295
7530.0 0.0025468
7550.0 0.0024434
7570.0 0.0023293
7590.0 0.0022836
7610.0 0.0023095
7630.0 0.0024139
7650.0 0.0026068
7670.0 0.0028499
7690.0 0.0030767
7710.0 0.0032501
7730.0 0.0034023
7750.0 0.0035341
7770.0 0.0036107
7790.0 0.0036939
7810.0 0.0037275
7830.0 0.0036397
7850.0 0.0035369
7870.0 0.0034888
7890.0 0.0035134
7910.0 0.0035432
7930.0 0.0034864
7950.0 0.003394
7970.0 0.0032944
7990.0 0.0032099
8010.0 0.003079
8030.0 0.0031041
8050.0 0.0031184
8070.0 0.0030958
8090.0 0.0030842
8110.0 0.0030545
8130.0 0.0030746
8150.0 0.003069
8170.0 0.0030318
8190.0 0.002963
8210.0 0.002881
8230.0 0.0028034
8250.0 0.0027849
8270.0 0.0026376
8290.0 0.0023016
8310.0 0.0019215
8330.0 0.0016629
8350.0 0.0016031
8370.0 0.0017844
8390.0 0.0020472
8410.0 0.0021948
8430.0 0.0022878
8450.0 0.0024553
8470.0 0.0026616
8490.0 0.0029402
8510.0 0.003264
8530.0 0.0036036
8550.0 0.0038784
8570.0 0.0040872
8590.0 0.0042486
8610.0 0.0043482
8630.0 0.0043511
8650.0 0.0042933
8670.0 0.0043156
8690.0 0.0045531
8710.0 0.0048717
8730.0 0.0050342
8750.0 0.0050159
8770.0 0.0050849
8790.0 0.0051041
8810.0 0.0048972
8830.0 0.0045598
8850.0 0.0041298
8870.0 0.0038034
8890.0 0.0037112
8910.0 0.003659
8930.0 0.0034369
8950.0 0.0031915
8970.0 0.0030963
8990.0 0.0031152
9010.0 0.0030652
9030.0 0.0030108
9050.0 0.0029829
9070.0 0.002968
9090.0 0.002955
9110.0 0.0029424
9130.0 0.0029298
9150.0 0.0029175
9170.0 0.0029048
9190.0 0.0028944
9210.0 0.0028881
9230.0 0.0028736
9250.0 0.0028605
9270.0 0.0028482
9290.0 0.0028366
9310.0 0.0028252
9330.0 0.002814
9350.0 0.0028034
9370.0 0.0027929
9390.0 0.0027823
9410.0 0.002772
9430.0 0.0027613
9450.0 0.0027469
9470.0 0.002734
9490.0 0.0027281
9510.0 0.0027203
9530.0 0.0027122
9550.0 0.0027035
9570.0 0.0026946
9590.0 0.0026857
9610.0 0.0026768
9630.0 0.0026678
9650.0 0.002659
9670.0 0.0026504
9690.0 0.0026417
9710.0 0.002633
9730.0 0.0026246
9750.0 0.0026162
9770.0 0.0026075
9790.0 0.0025992
9810.0 0.0025909
9830.0 0.0025826
9850.0 0.0025741
9870.0 0.002566
9890.0 0.0025578
9910.0 0.0025494
9930.0 0.0025411
9950.0 0.0025235
9970.0 0.0025179
9990.0 0.0025116
10010.0 0.0025053
10030.0 0.0024981
10050.0 0.0024901
10070.0 0.0024821
10090.0 0.0024741
10110.0 0.0024647
10130.0 0.0024532
10150.0 0.0024451
10170.0 0.0024371
10190.0 0.0024281
10210.0 0.0024195
10230.0 0.0024109
10250.0 0.0024013
10270.0 0.0023916
10290.0 0.0023825
10310.0 0.0023725
10330.0 0.0023616
10350.0 0.0023516
10370.0 0.0023415
10390.0 0.0023305
10410.0 0.0023194
10430.0 0.002309
10450.0 0.0022977
10470.0 0.0022858
10490.0 0.0022744
10510.0 0.0022628
10530.0 0.0022498
10550.0 0.0022372
10570.0 0.0022251
10590.0 0.002212
10610.0 0.0021984
10630.0 0.0021854
10650.0 0.002172
10670.0 0.0021573
10690.0 0.0021429
10710.0 0.0021288
10730.0 0.0021137
10750.0 0.0020976
10770.0 0.0020827
10790.0 0.0020672
10810.0 0.0020507
10830.0 0.0020343
10850.0 0.0020184
10870.0 0.0020007
10890.0 0.0019828
10910.0 0.0019655
10930.0 0.0019475
10950.0 0.0019284
10970.0 0.0019094
10990.0 0.0018909
11010.0 0.0020253
11030.0 0.0020048
11050.0 0.001985
11070.0 0.0019649
11090.0 0.0019434
11110.0 0.0019234
11130.0 0.0019038
11150.0 0.0018834
11170.0 0.0018632
11190.0 0.0018442
11210.0 0.0018247
11230.0 0.0018048
11250.0 0.001786
11270.0 0.0017677
11290.0 0.001749
11310.0 0.0017305
11330.0 0.0017136
11350.0 0.0016964
11370.0 0.0016789
11390.0 0.001662
11410.0 0.0016452
11430.0 0.0016271
11450.0 0.0016086
11470.0 0.00159
11490.0 0.00157
11510.0 0.0015481
11530.0 0.0015261
11550.0 0.001503
11570.0 0.0014778
11590.0 0.0014518
11610.0 0.0014257
11630.0 0.0013978
11650.0 0.0013686
11670.0 0.0013403
11690.0 0.0013117
11710.0 0.0012821
11730.0 0.0012528
11750.0 0.0012248
11770.0 0.0011959
11790.0 0.001167
11810.0 0.0011393
11830.0 0.0011119
11850.0 0.0010835
11870.0 0.0010563
11890.0 0.0010303
11910.0 0.001004
11930.0 0.00097789
11950.0 0.00095333
11970.0 0.00092924
11990.0 0.00090507
12010.0 0.00088236
12030.0 0.00086105
12050.0 0.00084024
12070.0 0.0008203
12090.0 0.00080262
12110.0 0.00078602
12130.0 0.00077048
12150.0 0.00075676
12170.0 0.00074484
12190.0 0.00073408
12210.0 0.0007252
12230.0 0.00071825
12250.0 0.00071296
12270.0 0.00070942
12290.0 0.00070761
12310.0 0.00070726
12330.0 0.00070854
12350.0 0.0007112
12370.0 0.00071478
12390.0 0.0007194
12410.0 0.00072534
12430.0 0.00073134
12450.0 0.00073759
12470.0 0.0007444
12490.0 0.00075121
12510.0 0.00075741
12530.0 0.00076361
12550.0 0.0007696
12570.0 0.00077464
12590.0 0.00077882
12610.0 0.00078245
12630.0 0.00078494
12650.0 0.0007859
12670.0 0.00078578
12690.0 0.00078432
12710.0 0.00078133
12730.0 0.00077695
12750.0 0.00077109
12770.0 0.00076379
12790.0 0.00075532
12810.0 0.0007456
12830.0 0.00073466
12850.0 0.00072318
12870.0 0.00071114
12890.0 0.00069834
12910.0 0.00068538
12930.0 0.00067262
12950.0 0.00065957
12970.0 0.00064651
12990.0 0.00063416
13010.0 0.00062211
13030.0 0.00061016
13050.0 0.00059874
13070.0 0.00058798
13090.0 0.00057731
13110.0 0.00056696
13130.0 0.00055721
13150.0 0.00054778
13170.0 0.00053839
13190.0 0.00052956
13210.0 0.00052121
13230.0 0.00051301
13250.0 0.0005051
13270.0 0.00049769
13290.0 0.00049053
13310.0 0.0004835
13330.0 0.0004769
13350.0 0.00047068
13370.0 0.00046462
13390.0 0.00045879
13410.0 0.00045344
13430.0 0.00044829
13450.0 0.0004433
13470.0 0.0004386
13490.0 0.00043417
13510.0 0.00042976
13530.0 0.00042552
13550.0 0.00042148
13570.0 0.00041748
13590.0 0.00041346
13610.0 0.00040954
13630.0 0.00040568
13650.0 0.00040173
13670.0 0.00039778
13690.0 0.00039391
13710.0 0.00039002
13730.0 0.00038601
13750.0 0.00038219
13770.0 0.00037844
13790.0 0.00037468
13810.0 0.00037101
13830.0 0.00036755
13850.0 0.00036412
13870.0 0.00036076
13890.0 0.0003576
13910.0 0.00035456
13930.0 0.00035155
13950.0 0.00034865
13970.0 0.00034593
13990.0 0.0003432
14010.0 0.00034047
14030.0 0.00033782
14050.0 0.00033518
14070.0 0.00033238
14090.0 0.00032959
14110.0 0.00032682
14130.0 0.00032393
14150.0 0.00032095
14170.0 0.00031806
14190.0 0.00031518
14210.0 0.00031225
14230.0 0.00030944
14250.0 0.00030682
14270.0 0.00030424
14290.0 0.00030182
14310.0 0.00029972
14330.0 0.00029784
14350.0 0.00029615
14370.0 0.00029473
14390.0 0.00029358
14410.0 0.00029259
14430.0 0.00029179
14450.0 0.00029118
14470.0 0.00029068
14490.0 0.00029026
14510.0 0.00028993
14530.0 0.00028967
14550.0 0.00028944
14570.0 0.00028925
14590.0 0.00028915
14610.0 0.00028913
14630.0 0.00028924
14650.0 0.00028954
14670.0 0.00029008
14690.0 0.00029094
14710.0 0.00029221
14730.0 0.00029387
14750.0 0.00029607
14770.0 0.00029893
14790.0 0.00030238
14810.0 0.00030643
14830.0 0.00031149
14850.0 0.00031731
14870.0 0.00032368
14890.0 0.00033082
14910.0 0.0003387
14930.0 0.00034663
14950.0 0.00035441
14970.0 0.00036211
14990.0 0.00036905
15010.0 0.00037489
15030.0 0.0003798
15050.0 0.00038379
15070.0 0.00038675
15090.0 0.00038909
15110.0 0.00039103
15130.0 0.00039268
15150.0 0.00039421
15170.0 0.00039568
15190.0 0.00039714
15210.0 0.00039862
15230.0 0.00040012
15250.0 0.00040165
15270.0 0.00040321
15290.0 0.00040481
15310.0 0.00040643
15330.0 0.00040808
15350.0 0.00040976
15370.0 0.00041147
15390.0 0.00041321
15410.0 0.00041498
15430.0 0.00041677
15450.0 0.00041859
15470.0 0.00042044
15490.0 0.00042231
15510.0 0.00042422
15530.0 0.00042614
15550.0 0.00042809
15570.0 0.00043007
15590.0 0.00043206
15610.0 0.00043408
15630.0 0.00043613
15650.0 0.0004382
15670.0 0.00044029
15690.0 0.0004424
15710.0 0.00044453
15730.0 0.00044668
15750.0 0.00044885
15770.0 0.00045104
15790.0 0.00045325
15810.0 0.00045547
15830.0 0.00045771
15850.0 0.00045997
15870.0 0.00046224
15890.0 0.00046453
15910.0 0.00046683
15930.0 0.00046915
15950.0 0.00047147
15970.0 0.00047381
15990.0 0.00047617
16010.0 0.00047853
16030.0 0.0004809
16050.0 0.00048328
16070.0 0.00048567
16090.0 0.00048807
16110.0 0.00049047
16130.0 0.00049288
16150.0 0.00049529
16170.0 0.00049771
16190.0 0.00050013
16210.0 0.00050255
16230.0 0.00050498
16250.0 0.0005074
16270.0 0.00050983
16290.0 0.00051225
16310.0 0.00051467
16330.0 0.0005171
16350.0 0.00051951
16370.0 0.00052192
16390.0 0.00052433
16410.0 0.00052673
16430.0 0.00052912
16450.0 0.0005315
16470.0 0.00053387
16490.0 0.00053624
16510.0 0.00053859
16530.0 0.00054093
16550.0 0.00054325
16570.0 0.00054556
16590.0 0.00054786
16610.0 0.00055014
16630.0 0.00055241
16650.0 0.00055465
16670.0 0.00055688
16690.0 0.00055909
16710.0 0.00056127
16730.0 0.00056344
16750.0 0.00056558
16770.0 0.0005677
16790.0 0.00056979
16810.0 0.00057186
16830.0 0.00057391
16850.0 0.00057592
16870.0 0.00057791
16890.0 0.00057987
16910.0 0.0005818
16930.0 0.00058369
16950.0 0.00058556
16970.0 0.00058739
16990.0 0.00058919
17010.0 0.00059096
17030.0 0.00059269
17050.0 0.00059438
17070.0 0.00059604
17090.0 0.00059766
17110.0 0.00059925
17130.0 0.00060079
17150.0 0.00060229
17170.0 0.00060376
17190.0 0.00060518
17210.0 0.00060656
17230.0 0.0006079
17250.0 0.00060919
17270.0 0.00061044
17290.0 0.00061165
17310.0 0.00061282
17330.0 0.00061393
17350.0 0.000615
17370.0 0.00061603
17390.0 0.00061701
17410.0 0.00061794
17430.0 0.00061882
17450.0 0.00061965
17470.0 0.00062044
17490.0 0.00062117
17510.0 0.00062186
17530.0 0.00062249
17550.0 0.00062308
17570.0 0.00062362
17590.0 0.0006241
17610.0 0.00062453
17630.0 0.00062491
17650.0 0.00062525
17670.0 0.00062553
17690.0 0.00062575
17710.0 0.00062593
17730.0 0.00062605
17750.0 0.00062612
17770.0 0.00062614
17790.0 0.00062611
17810.0 0.00062602
17830.0 0.00062588
17850.0 0.00062569
17870.0 0.00062545
17890.0 0.00062515
17910.0 0.0006248
17930.0 0.0006244
17950.0 0.00062395
17970.0 0.00062345
17990.0 0.0006229
18010.0 0.00062229
18030.0 0.00062163
18050.0 0.00062093
18070.0 0.00062017
18090.0 0.00061937
18110.0 0.00061851
18130.0 0.0006176
18150.0 0.00061665
18170.0 0.00061565
18190.0 0.00061459
18210.0 0.0006135
18230.0 0.00061235
18250.0 0.00061115
18270.0 0.00060992
18290.0 0.00060863
18310.0 0.0006073
18330.0 0.00060592
18350.0 0.00060451
18370.0 0.00060304
18390.0 0.00060153
18410.0 0.00059999
18430.0 0.0005984
18450.0 0.00059676
18470.0 0.00059509
18490.0 0.00059338
18510.0 0.00059162
18530.0 0.00058983
18550.0 0.000588
18570.0 0.00058614
18590.0 0.00058423
18610.0 0.00058229
18630.0 0.00058032
18650.0 0.00057831
18670.0 0.00057626
18690.0 0.00057419
18710.0 0.00057208
18730.0 0.00056994
18750.0 0.00056777
18770.0 0.00056557
18790.0 0.00056333
18810.0 0.00056107
18830.0 0.00055879
18850.0 0.00055647
18870.0 0.00055413
18890.0 0.00055177
18910.0 0.00054938
18930.0 0.00054696
18950.0 0.00054452
18970.0 0.00054206
18990.0 0.00053958
19010.0 0.00053707
19030.0 0.00053455
19050.0 0.00053201
19070.0 0.00052944
19090.0 0.00052686
19110.0 0.00052427
19130.0 0.00052165
19150.0 0.00051902
19170.0 0.00051638
19190.0 0.00051372
19210.0 0.00051105
19230.0 0.00050836
19250.0 0.00050567
19270.0 0.00050296
19290.0 0.00050024
19310.0 0.00049751
19330.0 0.00049477
19350.0 0.00049202
19370.0 0.00048927
19390.0 0.00048651
19410.0 0.00048374
19430.0 0.00048097
19450.0 0.00047819
19470.0 0.0004754
19490.0 0.00047261
19510.0 0.00046982
19530.0 0.00046703
19550.0 0.00046423
19570.0 0.00046143
19590.0 0.00045863
19610.0 0.00045584
19630.0 0.00045304
19650.0 0.00045024
19670.0 0.00044744
19690.0 0.00044464
19710.0 0.00044185
19730.0 0.00043906
19750.0 0.00043627
19770.0 0.00043349
19790.0 0.00043071
19810.0 0.00042793
19830.0 0.00042515
19850.0 0.00042235
19870.0 0.00041953
19890.0 0.00041663
19910.0 0.00041357
19930.0 0.00041029
19950.0 0.00040666
19970.0 0.00040248
19990.0 0.00039766
20010.0 0.00039228
20030.0 0.00038612
20050.0 0.00037922
20070.0 0.00037194
20090.0 0.00036434
20110.0 0.00035618
20130.0 0.0003481
20150.0 0.00034024
20170.0 0.00033234
20190.0 0.00032451
20210.0 0.00031712
20230.0 0.00030996
20250.0 0.00030286
20270.0 0.00029617
20290.0 0.00028989
20310.0 0.00028382
20330.0 0.00027795
20350.0 0.00027269
20370.0 0.0002677
20390.0 0.00026296
20410.0 0.00025861
20430.0 0.00025465
20450.0 0.00025088
20470.0 0.00024743
20490.0 0.00024431
20510.0 0.00024144
20530.0 0.00023877
20550.0 0.00023634
20570.0 0.00023413
20590.0 0.00023206
20610.0 0.00023014
20630.0 0.00022835
20650.0 0.00022665
20670.0 0.00022502
20690.0 0.00022345
20710.0 0.0002219
20730.0 0.00022035
20750.0 0.00021879
20770.0 0.00021721
20790.0 0.00021558
20810.0 0.00021389
20830.0 0.00021214
20850.0 0.00021032
20870.0 0.00020841
20890.0 0.00020642
20910.0 0.00020437
20930.0 0.00020225
20950.0 0.00020003
20970.0 0.00019778
20990.0 0.0001955
21010.0 0.00019313
21030.0 0.00019074
21050.0 0.00018836
21070.0 0.00018595
21090.0 0.00018351
21110.0 0.00018112
21130.0 0.00017877
21150.0 0.0001764
21170.0 0.00017407
21190.0 0.00017182
21210.0 0.00016957
21230.0 0.00016735
21250.0 0.00016522
21270.0 0.00016315
21290.0 0.0001611
21310.0 0.00015913
21330.0 0.00015725
21350.0 0.00015541
21370.0 0.00015363
21390.0 0.00015194
21410.0 0.00015032
21430.0 0.00014874
21450.0 0.00014725
21470.0 0.00014585
21490.0 0.0001445
21510.0 0.00014322
21530.0 0.00014202
21550.0 0.00014087
21570.0 0.00013977
21590.0 0.00013874
21610.0 0.00013775
21630.0 0.00013681
21650.0 0.0001359
21670.0 0.00013503
21690.0 0.00013419
21710.0 0.00013337
21730.0 0.00013258
21750.0 0.0001318
21770.0 0.00013104
21790.0 0.0001303
21810.0 0.00012956
21830.0 0.00012884
21850.0 0.00012813
21870.0 0.00012743
21890.0 0.00012674
21910.0 0.00012605
21930.0 0.00012537
21950.0 0.00012469
21970.0 0.00012402
21990.0 0.00012334
22010.0 0.00012266
22030.0 0.00012197
22050.0 0.00012128
22070.0 0.00012057
22090.0 0.00011986
22110.0 0.00011913
22130.0 0.00011838
22150.0 0.00011762
22170.0 0.00011684
22190.0 0.00011604
22210.0 0.00011522
22230.0 0.00011439
22250.0 0.00011354
22270.0 0.00011267
22290.0 0.00011178
22310.0 0.00011088
22330.0 0.00010993
22350.0 0.00010897
22370.0 0.00010799
22390.0 0.00010696
22410.0 0.00010589
22430.0 0.0001048
22450.0 0.00010368
22470.0 0.0001025
22490.0 0.00010128
22510.0 0.00010004
22530.0 9.8737e-05
22550.0 9.7374e-05
22570.0 9.6016e-05
22590.0 9.463e-05
22610.0 9.3186e-05
22630.0 9.1739e-05
22650.0 9.0327e-05
22670.0 8.8876e-05
22690.0 8.7421e-05
22710.0 8.6018e-05
22730.0 8.4641e-05
22750.0 8.3238e-05
22770.0 8.1914e-05
22790.0 8.066e-05
22810.0 7.9427e-05
22830.0 7.8239e-05
22850.0 7.7141e-05
22870.0 7.6089e-05
22890.0 7.5067e-05
22910.0 7.412e-05
22930.0 7.3241e-05
22950.0 7.2393e-05
22970.0 7.1583e-05
22990.0 7.0851e-05
23010.0 7.0147e-05
23030.0 6.9467e-05
23050.0 6.8827e-05
23070.0 6.8224e-05
23090.0 6.762e-05
