#lamb flux
1010.0 1.9374e-07
1030.0 2.1199e-07
1050.0 2.3298e-07
1070.0 2.5662e-07
1090.0 2.8346e-07
1110.0 3.1099e-07
1130.0 3.3871e-07
1150.0 3.6773e-07
1170.0 3.9768e-07
1190.0 4.2607e-07
1210.0 4.5484e-07
1230.0 4.8458e-07
1250.0 5.1371e-07
1270.0 5.42e-07
1290.0 5.719e-07
1310.0 6.0177e-07
1330.0 6.3041e-07
1350.0 6.5938e-07
1370.0 6.8929e-07
1390.0 7.1844e-07
1410.0 7.4673e-07
1430.0 7.7631e-07
1450.0 8.0587e-07
1470.0 8.3444e-07
1490.0 8.6332e-07
1510.0 8.9382e-07
1530.0 9.2271e-07
1550.0 9.5121e-07
1570.0 9.8069e-07
1590.0 1.0102e-06
1610.0 1.0384e-06
1630.0 1.0674e-06
1650.0 1.0972e-06
1670.0 1.126e-06
1690.0 1.1544e-06
1710.0 1.1839e-06
1730.0 1.2135e-06
1750.0 1.2413e-06
1770.0 1.27e-06
1790.0 1.2991e-06
1810.0 1.3273e-06
1830.0 1.3549e-06
1850.0 1.3842e-06
1870.0 1.4126e-06
1890.0 1.44e-06
1910.0 1.4678e-06
1930.0 1.4962e-06
1950.0 1.5231e-06
1970.0 1.5495e-06
1990.0 1.5768e-06
2010.0 1.6034e-06
2030.0 1.6288e-06
2050.0 1.6548e-06
2070.0 1.6812e-06
2090.0 1.7056e-06
2110.0 1.7296e-06
2130.0 1.7541e-06
2150.0 1.7776e-06
2170.0 1.7995e-06
2190.0 1.8219e-06
2210.0 1.8439e-06
2230.0 1.8644e-06
2250.0 1.8841e-06
2270.0 1.9044e-06
2290.0 1.9232e-06
2310.0 1.9403e-06
2330.0 1.9578e-06
2350.0 1.9752e-06
2370.0 1.9919e-06
2390.0 2.0102e-06
2410.0 2.0333e-06
2430.0 2.0612e-06
2450.0 2.0964e-06
2470.0 2.1445e-06
2490.0 2.2082e-06
2510.0 2.282e-06
2530.0 2.3735e-06
2550.0 2.4916e-06
2570.0 2.6416e-06
2590.0 2.8389e-06
2610.0 3.1372e-06
2630.0 3.5599e-06
2650.0 4.1037e-06
2670.0 4.7951e-06
2690.0 5.6285e-06
2710.0 6.496e-06
2730.0 7.3291e-06
2750.0 8.1265e-06
2770.0 8.791e-06
2790.0 9.2868e-06
2810.0 9.6502e-06
2830.0 9.9041e-06
2850.0 1.0041e-05
2870.0 1.0112e-05
2890.0 1.0145e-05
2910.0 1.015e-05
2930.0 1.0138e-05
2950.0 1.0122e-05
2970.0 1.0106e-05
2990.0 1.0087e-05
3010.0 0.00032048
3030.0 0.00031994
3050.0 0.0003194
3070.0 0.00031864
3090.0 0.0003177
3110.0 0.00031623
3130.0 0.00031382
3150.0 0.00031019
3170.0 0.00030472
3190.0 0.00029749
3210.0 0.00028902
3230.0 0.00027966
3250.0 0.00027008
3270.0 0.00026291
3290.0 0.00025757
3310.0 0.0002565
3330.0 0.0002584
3350.0 0.00026317
3370.0 0.00027076
3390.0 0.00028081
3410.0 0.00029201
3430.0 0.00030478
3450.0 0.00031963
3470.0 0.000336
3490.0 0.00035357
3510.0 0.00037358
3530.0 0.00039538
3550.0 0.00041858
3570.0 0.00044396
3590.0 0.00047215
3610.0 0.00050323
3630.0 0.000534
3650.0 0.0005665
3670.0 0.00059575
3690.0 0.00061744
3710.0 0.00062844
3730.0 0.00062269
3750.0 0.00060102
3770.0 0.00061453
3790.0 0.00060464
3810.0 0.00048541
3830.0 0.00047658
3850.0 0.00067995
3870.0 0.00067793
3890.0 0.00053449
3910.0 0.00050603
3930.0 0.00061312
3950.0 0.00071986
3970.0 0.00078645
3990.0 0.00054021
4010.0 0.0011434
4030.0 0.0011751
4050.0 0.0012943
4070.0 0.0013771
4090.0 0.001289
4110.0 0.0011091
4130.0 0.0012947
4150.0 0.0016969
4170.0 0.0013762
4190.0 0.001251
4210.0 0.0013853
4230.0 0.0016762
4250.0 0.0020134
4270.0 0.0021708
4290.0 0.0019233
4310.0 0.0018048
4330.0 0.0017966
4350.0 0.0022595
4370.0 0.0027317
4390.0 0.00221
4410.0 0.0012679
4430.0 0.00092251
4450.0 0.00086567
4470.0 0.00053594
4490.0 0.00087996
4510.0 0.0018736
4530.0 0.0022777
4550.0 0.0021399
4570.0 0.0019558
4590.0 0.002098
4610.0 0.0040249
4630.0 0.0056321
4650.0 0.0053974
4670.0 0.0047618
4690.0 0.0048189
4710.0 0.0050386
4730.0 0.0042
4750.0 0.0027693
4770.0 0.0018964
4790.0 0.0020672
4810.0 0.0021641
4830.0 0.0021259
4850.0 0.0023062
4870.0 0.0030546
4890.0 0.0035429
4910.0 0.0027868
4930.0 0.0026892
4950.0 0.0030881
4970.0 0.0040931
4990.0 0.0055317
5010.0 0.0064063
5030.0 0.0051674
5050.0 0.0031966
5070.0 0.0022547
5090.0 0.0017136
5110.0 0.0016127
5130.0 0.0019386
5150.0 0.0018981
5170.0 0.001789
5190.0 0.0015924
5210.0 0.0017724
5230.0 0.0021766
5250.0 0.0025264
5270.0 0.0023608
5290.0 0.002547
5310.0 0.0033936
5330.0 0.0036594
5350.0 0.0036084
5370.0 0.0040326
5390.0 0.0050068
5410.0 0.0043386
5430.0 0.00337
5450.0 0.0033757
5470.0 0.0038976
5490.0 0.0048655
5510.0 0.0059283
5530.0 0.0068748
5550.0 0.0062407
5570.0 0.0056032
5590.0 0.0046208
5610.0 0.0046562
5630.0 0.0051855
5650.0 0.0047803
5670.0 0.004402
5690.0 0.0035768
5710.0 0.0036694
5730.0 0.0035542
5750.0 0.0019658
5770.0 0.0014078
5790.0 0.0017359
5810.0 0.0018334
5830.0 0.0028231
5850.0 0.0036757
5870.0 0.003963
5890.0 0.0037975
5910.0 0.0036987
5930.0 0.0035533
5950.0 0.0036623
5970.0 0.0045311
5990.0 0.0037524
6010.0 0.0029036
6030.0 0.0023748
6050.0 0.0021171
6070.0 0.002498
6090.0 0.0028022
6110.0 0.0028719
6130.0 0.0026647
6150.0 0.0021062
6170.0 0.0016398
6190.0 0.0019872
6210.0 0.003127
6230.0 0.0046037
6250.0 0.0049678
6270.0 0.0038225
6290.0 0.003272
6310.0 0.0024984
6330.0 0.0018242
6350.0 0.0017849
6370.0 0.0018739
6390.0 0.0022371
6410.0 0.0028921
6430.0 0.0034783
6450.0 0.0042562
6470.0 0.0045053
6490.0 0.0053962
6510.0 0.0060522
6530.0 0.0061727
6550.0 0.0056768
6570.0 0.0045563
6590.0 0.0043262
6610.0 0.0035871
6630.0 0.0037134
6650.0 0.0036074
6670.0 0.0031577
6690.0 0.0024529
6710.0 0.0023931
6730.0 0.0010491
6750.0 0.0014084
6770.0 0.00221
6790.0 0.0029231
6810.0 0.0020866
6830.0 0.0021306
6850.0 0.0017747
6870.0 0.0016603
6890.0 0.0014033
6910.0 0.0017073
6930.0 0.0016072
6950.0 0.0019212
6970.0 0.001996
6990.0 0.0022158
7010.0 0.0021404
7030.0 0.0024502
7050.0 0.0021237
7070.0 0.0017715
7090.0 0.0019001
7110.0 0.002016
7130.0 0.0023201
7150.0 0.0026294
7170.0 0.002948
7190.0 0.003148
7210.0 0.0028064
7230.0 0.0028422
7250.0 0.0030463
7270.0 0.00327
7290.0 0.0040286
7310.0 0.0042588
7330.0 0.003984
7350.0 0.0035681
7370.0 0.0026465
7390.0 0.0027296
7410.0 0.0033433
7430.0 0.0038101
7450.0 0.0041049
7470.0 0.003756
7490.0 0.0029992
7510.0 0.0048352
7530.0 0.0044061
7550.0 0.004156
7570.0 0.0028238
7590.0 0.0012533
7610.0 0.00088482
7630.0 0.0013433
7650.0 0.0018063
7670.0 0.0028754
7690.0 0.0032039
7710.0 0.0028954
7730.0 0.002874
7750.0 0.003773
7770.0 0.0038779
7790.0 0.0035459
7810.0 0.0028666
7830.0 0.0031062
7850.0 0.0034043
7870.0 0.0033288
7890.0 0.0026021
7910.0 0.0017491
7930.0 0.0018123
7950.0 0.0016371
7970.0 0.0013792
7990.0 0.0012469
8010.0 0.00065517
8030.0 0.0005979
8050.0 0.0006492
8070.0 0.00073585
8090.0 0.00090359
8110.0 0.00084753
8130.0 0.00049592
8150.0 0.00051666
8170.0 0.00028095
8190.0 0.00016221
8210.0 0.0004586
8230.0 0.00055718
8250.0 0.00020408
8270.0 0.0001574
8290.0 0.00032916
8310.0 0.00029325
8330.0 0.00017895
8350.0 0.00014457
8370.0 2.9783e-05
8390.0 0.00015445
8410.0 0.0001782
8430.0 0.00022153
8450.0 0.0002494
8470.0 0.0004258
8490.0 0.00034392
8510.0 0.0002602
8530.0 0.00012008
8550.0 0.00047187
8570.0 0.00074266
8590.0 0.00050511
8610.0 0.00076807
8630.0 0.00083181
8650.0 0.00042345
8670.0 0.00064713
8690.0 0.0010354
8710.0 0.00088449
8730.0 0.00095832
8750.0 0.00074737
8770.0 0.0006615
8790.0 0.00073938
8810.0 0.0008072
8830.0 0.0004372
8850.0 0.00017623
8870.0 0.00012247
8890.0 0.00034024
8910.0 0.00054899
8930.0 0.00073194
8950.0 0.00081748
8970.0 0.00078593
8990.0 0.00058262
9010.0 0.00055416
9030.0 0.00041835
9050.0 0.00043494
9070.0 0.00045229
9090.0 0.0004664
9110.0 0.00048349
9130.0 0.00049583
9150.0 0.00050463
9170.0 0.00051399
9190.0 0.000524
9210.0 0.00053452
9230.0 0.00054564
9250.0 0.00055686
9270.0 0.00056844
9290.0 0.00058033
9310.0 0.00059218
9330.0 0.00060419
9350.0 0.00061661
9370.0 0.00062909
9390.0 0.0006416
9410.0 0.00065443
9430.0 0.00066762
9450.0 0.00068064
9470.0 0.00069389
9490.0 0.00070751
9510.0 0.00072122
9530.0 0.00073491
9550.0 0.00074911
9570.0 0.00076349
9590.0 0.00077785
9610.0 0.00079243
9630.0 0.00080741
9650.0 0.00082246
9670.0 0.00083746
9690.0 0.0008529
9710.0 0.00086855
9730.0 0.00088418
9750.0 0.00090002
9770.0 0.00091639
9790.0 0.00093265
9810.0 0.00094897
9830.0 0.00096566
9850.0 0.00098256
9870.0 0.00099933
9890.0 0.0010164
9910.0 0.0010338
9930.0 0.0010512
9950.0 0.0010686
9970.0 0.0010864
9990.0 0.0011044
10010.0 0.00098384
10030.0 0.00099957
10050.0 0.0010155
10070.0 0.0010313
10090.0 0.0010472
10110.0 0.0010635
10130.0 0.0010798
10150.0 0.0010959
10170.0 0.0011122
10190.0 0.0011287
10210.0 0.001145
10230.0 0.0011612
10250.0 0.0011777
10270.0 0.0011941
10290.0 0.0012104
10310.0 0.0012268
10330.0 0.0012433
10350.0 0.0012596
10370.0 0.0012758
10390.0 0.0012922
10410.0 0.0013085
10430.0 0.0013244
10450.0 0.0013405
10470.0 0.0013565
10490.0 0.0013723
10510.0 0.001388
10530.0 0.0014038
10550.0 0.0014194
10570.0 0.0014346
10590.0 0.0014499
10610.0 0.0014651
10630.0 0.0014798
10650.0 0.0014945
10670.0 0.0015092
10690.0 0.0015236
10710.0 0.0015376
10730.0 0.0015516
10750.0 0.0015656
10770.0 0.0015789
10790.0 0.0015921
10810.0 0.0016052
10830.0 0.0016179
10850.0 0.0016299
10870.0 0.0016416
10890.0 0.0016522
10910.0 0.0016609
10930.0 0.001667
10950.0 0.0016691
10970.0 0.0016658
10990.0 0.0016566
11010.0 0.0016469
11030.0 0.0016218
11050.0 0.0015904
11070.0 0.0015522
11090.0 0.001506
11110.0 0.0014581
11130.0 0.001408
11150.0 0.0013543
11170.0 0.0012991
11190.0 0.0012459
11210.0 0.0011912
11230.0 0.0011354
11250.0 0.0010825
11270.0 0.0010319
11290.0 0.0009814
11310.0 0.00093374
11330.0 0.00089172
11350.0 0.000852
11370.0 0.00081517
11390.0 0.00078302
11410.0 0.00075457
11430.0 0.0007278
11450.0 0.00070426
11470.0 0.00068344
11490.0 0.00066371
11510.0 0.00064443
11530.0 0.00062629
11550.0 0.00060821
11570.0 0.00058906
11590.0 0.0005694
11610.0 0.00054956
11630.0 0.00052828
11650.0 0.0005058
11670.0 0.0004838
11690.0 0.00046166
11710.0 0.00043899
11730.0 0.00041707
11750.0 0.00039675
11770.0 0.00037683
11790.0 0.00035808
11810.0 0.00034141
11830.0 0.00032632
11850.0 0.00031227
11870.0 0.00030024
11890.0 0.00028996
11910.0 0.00028072
11930.0 0.00027253
11950.0 0.00026547
11970.0 0.00025901
11990.0 0.00025282
12010.0 0.00024703
12030.0 0.00024145
12050.0 0.00023576
12070.0 0.00022992
12090.0 0.0002243
12110.0 0.00021862
12130.0 0.0002129
12150.0 0.0002075
12170.0 0.00020258
12190.0 0.00019799
12210.0 0.0001942
12230.0 0.00019139
12250.0 0.00018958
12270.0 0.00018899
12290.0 0.00018965
12310.0 0.00019148
12330.0 0.00019475
12350.0 0.0001993
12370.0 0.00020478
12390.0 0.00021136
12410.0 0.00021933
12430.0 0.00022751
12450.0 0.00023603
12470.0 0.00024517
12490.0 0.00025435
12510.0 0.00026289
12530.0 0.00027138
12550.0 0.00027952
12570.0 0.00028657
12590.0 0.00029263
12610.0 0.00029794
12630.0 0.00030197
12650.0 0.00030445
12670.0 0.00030578
12690.0 0.00030578
12710.0 0.0003044
12730.0 0.00030179
12750.0 0.00029786
12770.0 0.0002928
12790.0 0.00028686
12810.0 0.00027998
12830.0 0.00027218
12850.0 0.00026409
12870.0 0.00025564
12890.0 0.00024661
12910.0 0.00023749
12930.0 0.00022855
12950.0 0.00021931
12970.0 0.00020997
12990.0 0.00020114
13010.0 0.00019246
13030.0 0.00018371
13050.0 0.00017531
13070.0 0.00016742
13090.0 0.0001595
13110.0 0.00015182
13130.0 0.00014469
13150.0 0.00013789
13170.0 0.00013119
13190.0 0.00012515
13210.0 0.00011975
13230.0 0.00011472
13250.0 0.00011027
13270.0 0.00010661
13290.0 0.00010358
13310.0 0.00010123
13330.0 9.973e-05
13350.0 9.9037e-05
13370.0 9.9169e-05
13390.0 0.00010019
13410.0 0.00010191
13430.0 0.00010438
13450.0 0.00010764
13470.0 0.00011141
13490.0 0.00011551
13510.0 0.00012028
13530.0 0.00012522
13550.0 0.00013004
13570.0 0.00013488
13590.0 0.0001397
13610.0 0.00014406
13630.0 0.00014793
13650.0 0.00015154
13670.0 0.00015461
13690.0 0.00015705
13710.0 0.00015899
13730.0 0.00016047
13750.0 0.00016129
13770.0 0.00016162
13790.0 0.00016149
13810.0 0.00016089
13830.0 0.0001599
13850.0 0.00015851
13870.0 0.00015671
13890.0 0.00015463
13910.0 0.00015228
13930.0 0.00014956
13950.0 0.00014659
13970.0 0.00014356
13990.0 0.00014028
14010.0 0.0001368
14030.0 0.00013335
14050.0 0.00012989
14070.0 0.00012625
14090.0 0.00012276
14110.0 0.00011949
14130.0 0.00011632
14150.0 0.00011333
14170.0 0.00011076
14190.0 0.00010852
14210.0 0.00010659
14230.0 0.00010512
14250.0 0.00010413
14270.0 0.00010357
14290.0 0.00010352
14310.0 0.00010394
14330.0 0.00010482
14350.0 0.00010618
14370.0 0.00010793
14390.0 0.00010997
14410.0 0.00011242
14430.0 0.00011516
14450.0 0.00011801
14470.0 0.00012102
14490.0 0.00012427
14510.0 0.00012745
14530.0 0.00013052
14550.0 0.00013364
14570.0 0.0001367
14590.0 0.00013954
14610.0 0.00014233
14630.0 0.00014513
14650.0 0.00014777
14670.0 0.00015035
14690.0 0.00015303
14710.0 0.00015585
14730.0 0.00015866
14750.0 0.00016175
14770.0 0.00016522
14790.0 0.00016896
14810.0 0.00017298
14830.0 0.0001777
14850.0 0.00018281
14870.0 0.00018812
14890.0 0.00019384
14910.0 0.0001999
14930.0 0.00020574
14950.0 0.00021122
14970.0 0.00021642
14990.0 0.00022084
15010.0 0.00022429
15030.0 0.00022693
15050.0 0.00022878
15070.0 0.00022984
15090.0 0.00023042
15110.0 0.00023066
15130.0 0.00023068
15150.0 0.00023061
15170.0 0.00023047
15190.0 0.00023029
15210.0 0.00023013
15230.0 0.00022997
15250.0 0.00022979
15270.0 0.00022962
15290.0 0.00022949
15310.0 0.00022934
15330.0 0.00022918
15350.0 0.00022905
15370.0 0.00022892
15390.0 0.00022877
15410.0 0.00022863
15430.0 0.00022851
15450.0 0.00022839
15470.0 0.00022825
15490.0 0.00022814
15510.0 0.00022803
15530.0 0.0002279
15550.0 0.00022779
15570.0 0.00022769
15590.0 0.00022757
15610.0 0.00022744
15630.0 0.00022734
15650.0 0.00022724
15670.0 0.00022712
15690.0 0.00022701
15710.0 0.00022692
15730.0 0.00022681
15750.0 0.00022669
15770.0 0.00022659
15790.0 0.00022649
15810.0 0.00022636
15830.0 0.00022625
15850.0 0.00022615
15870.0 0.00022603
15890.0 0.00022591
15910.0 0.00022581
15930.0 0.00022569
15950.0 0.00022556
15970.0 0.00022544
15990.0 0.00022532
16010.0 0.00022518
16030.0 0.00022504
16050.0 0.00022492
16070.0 0.00022479
16090.0 0.00022464
16110.0 0.0002245
16130.0 0.00022437
16150.0 0.0002242
16170.0 0.00022404
16190.0 0.00022389
16210.0 0.00022373
16230.0 0.00022355
16250.0 0.00022339
16270.0 0.00022323
16290.0 0.00022304
16310.0 0.00022285
16330.0 0.00022268
16350.0 0.00022248
16370.0 0.00022226
16390.0 0.00022207
16410.0 0.00022187
16430.0 0.00022164
16450.0 0.00022142
16470.0 0.00022121
16490.0 0.00022098
16510.0 0.00022073
16530.0 0.00022049
16550.0 0.00022025
16570.0 0.00021998
16590.0 0.00021971
16610.0 0.00021947
16630.0 0.00021919
16650.0 0.00021891
16670.0 0.00021863
16690.0 0.00021835
16710.0 0.00021803
16730.0 0.00021773
16750.0 0.00021743
16770.0 0.00021711
16790.0 0.00021677
16810.0 0.00021645
16830.0 0.00021612
16850.0 0.00021577
16870.0 0.00021542
16890.0 0.00021508
16910.0 0.0002147
16930.0 0.00021431
16950.0 0.00021395
16970.0 0.00021357
16990.0 0.00021317
17010.0 0.00021277
17030.0 0.00021239
17050.0 0.00021196
17070.0 0.00021154
17090.0 0.00021112
17110.0 0.0002107
17130.0 0.00021023
17150.0 0.00020979
17170.0 0.00020935
17190.0 0.00020889
17210.0 0.00020842
17230.0 0.00020796
17250.0 0.00020748
17270.0 0.00020698
17290.0 0.00020649
17310.0 0.000206
17330.0 0.00020549
17350.0 0.00020496
17370.0 0.00020446
17390.0 0.00020394
17410.0 0.0002034
17430.0 0.00020287
17450.0 0.00020234
17470.0 0.00020177
17490.0 0.0002012
17510.0 0.00020066
17530.0 0.00020009
17550.0 0.0001995
17570.0 0.00019893
17590.0 0.00019836
17610.0 0.00019775
17630.0 0.00019715
17650.0 0.00019657
17670.0 0.00019596
17690.0 0.00019531
17710.0 0.00019471
17730.0 0.00019409
17750.0 0.00019345
17770.0 0.00019282
17790.0 0.0001922
17810.0 0.00019154
17830.0 0.00019088
17850.0 0.00019023
17870.0 0.00018958
17890.0 0.0001889
17910.0 0.00018822
17930.0 0.00018757
17950.0 0.00018689
17970.0 0.0001862
17990.0 0.00018552
18010.0 0.00018484
18030.0 0.00018412
18050.0 0.00018342
18070.0 0.00018273
18090.0 0.00018202
18110.0 0.0001813
18130.0 0.0001806
18150.0 0.00017989
18170.0 0.00017915
18190.0 0.00017843
18210.0 0.00017772
18230.0 0.00017698
18250.0 0.00017622
18270.0 0.0001755
18290.0 0.00017477
18310.0 0.00017401
18330.0 0.00017327
18350.0 0.00017254
18370.0 0.00017178
18390.0 0.00017101
18410.0 0.00017027
18430.0 0.00016952
18450.0 0.00016873
18470.0 0.00016798
18490.0 0.00016723
18510.0 0.00016645
18530.0 0.00016568
18550.0 0.00016493
18570.0 0.00016415
18590.0 0.00016336
18610.0 0.00016259
18630.0 0.00016183
18650.0 0.00016104
18670.0 0.00016025
18690.0 0.00015949
18710.0 0.00015871
18730.0 0.00015791
18750.0 0.00015714
18770.0 0.00015637
18790.0 0.00015556
18810.0 0.00015477
18830.0 0.000154
18850.0 0.00015321
18870.0 0.00015241
18890.0 0.00015163
18910.0 0.00015086
18930.0 0.00015005
18950.0 0.00014926
18970.0 0.00014849
18990.0 0.0001477
19010.0 0.00014688
19030.0 0.00014611
19050.0 0.00014533
19070.0 0.00014453
19090.0 0.00014374
19110.0 0.00014297
19130.0 0.00014218
19150.0 0.00014137
19170.0 0.0001406
19190.0 0.00013982
19210.0 0.00013902
19230.0 0.00013823
19250.0 0.00013746
19270.0 0.00013667
19290.0 0.00013588
19310.0 0.00013511
19330.0 0.00013434
19350.0 0.00013354
19370.0 0.00013276
19390.0 0.00013199
19410.0 0.00013121
19430.0 0.00013042
19450.0 0.00012966
19470.0 0.0001289
19490.0 0.00012811
19510.0 0.00012734
19530.0 0.00012659
19550.0 0.00012581
19570.0 0.00012503
19590.0 0.00012428
19610.0 0.00012352
19630.0 0.00012274
19650.0 0.00012199
19670.0 0.00012125
19690.0 0.00012048
19710.0 0.00011971
19730.0 0.00011897
19750.0 0.00011822
19770.0 0.00011745
19790.0 0.00011671
19810.0 0.00011597
19830.0 0.00011522
19850.0 0.00011446
19870.0 0.00011372
19890.0 0.00011294
19910.0 0.0001121
19930.0 0.00011123
19950.0 0.00011027
19970.0 0.00010913
19990.0 0.00010781
20010.0 9.9382e-05
20030.0 9.7774e-05
20050.0 9.5933e-05
20070.0 9.3969e-05
20090.0 9.1883e-05
20110.0 8.9557e-05
20130.0 8.7224e-05
20150.0 8.4927e-05
20170.0 8.2565e-05
20190.0 8.0186e-05
20210.0 7.7946e-05
20230.0 7.5769e-05
20250.0 7.3596e-05
20270.0 7.1578e-05
20290.0 6.9732e-05
20310.0 6.7974e-05
20330.0 6.6325e-05
20350.0 6.4939e-05
20370.0 6.3695e-05
20390.0 6.2587e-05
20410.0 6.1671e-05
20430.0 6.0939e-05
20450.0 6.0334e-05
20470.0 5.9892e-05
20490.0 5.9608e-05
20510.0 5.9456e-05
20530.0 5.9433e-05
20550.0 5.9527e-05
20570.0 5.9715e-05
20590.0 6.0007e-05
20610.0 6.0387e-05
20630.0 6.0822e-05
20650.0 6.1324e-05
20670.0 6.1915e-05
20690.0 6.2525e-05
20710.0 6.3161e-05
20730.0 6.3853e-05
20750.0 6.4578e-05
20770.0 6.5286e-05
20790.0 6.6028e-05
20810.0 6.6809e-05
20830.0 6.7578e-05
20850.0 6.8341e-05
20870.0 6.9153e-05
20890.0 6.9972e-05
20910.0 7.0751e-05
20930.0 7.1552e-05
20950.0 7.2377e-05
20970.0 7.3172e-05
20990.0 7.395e-05
21010.0 7.4766e-05
21030.0 7.5558e-05
21050.0 7.6307e-05
21070.0 7.7053e-05
21090.0 7.7801e-05
21110.0 7.8476e-05
21130.0 7.9108e-05
21150.0 7.9721e-05
21170.0 8.0274e-05
21190.0 8.0746e-05
21210.0 8.1172e-05
21230.0 8.1528e-05
21250.0 8.1778e-05
21270.0 8.1934e-05
21290.0 8.1991e-05
21310.0 8.1926e-05
21330.0 8.1742e-05
21350.0 8.1425e-05
21370.0 8.0962e-05
21390.0 8.0369e-05
21410.0 7.9642e-05
21430.0 7.8722e-05
21450.0 7.7682e-05
21470.0 7.6542e-05
21490.0 7.525e-05
21510.0 7.3828e-05
21530.0 7.2373e-05
21550.0 7.0843e-05
21570.0 6.9206e-05
21590.0 6.7587e-05
21610.0 6.6012e-05
21630.0 6.4427e-05
21650.0 6.2869e-05
21670.0 6.1501e-05
21690.0 6.0226e-05
21710.0 5.9061e-05
21730.0 5.8083e-05
21750.0 5.73e-05
21770.0 5.6668e-05
21790.0 5.6249e-05
21810.0 5.6041e-05
21830.0 5.6026e-05
21850.0 5.6218e-05
21870.0 5.6594e-05
21890.0 5.712e-05
21910.0 5.7831e-05
21930.0 5.8691e-05
21950.0 5.9639e-05
21970.0 6.0708e-05
21990.0 6.1926e-05
22010.0 6.3154e-05
22030.0 6.4413e-05
22050.0 6.5749e-05
22070.0 6.7104e-05
22090.0 6.8394e-05
22110.0 6.9706e-05
22130.0 7.1026e-05
22150.0 7.2267e-05
22170.0 7.3442e-05
22190.0 7.4617e-05
22210.0 7.5715e-05
22230.0 7.6684e-05
22250.0 7.76e-05
22270.0 7.8447e-05
22290.0 7.917e-05
22310.0 7.979e-05
22330.0 8.0338e-05
22350.0 8.076e-05
22370.0 8.1053e-05
22390.0 8.1234e-05
22410.0 8.1287e-05
22430.0 8.1201e-05
22450.0 8.0985e-05
22470.0 8.0621e-05
22490.0 8.0114e-05
22510.0 7.9484e-05
22530.0 7.8683e-05
22550.0 7.7713e-05
22570.0 7.6637e-05
22590.0 7.5426e-05
22610.0 7.4036e-05
22630.0 7.2532e-05
22650.0 7.0977e-05
22670.0 6.9259e-05
22690.0 6.7425e-05
22710.0 6.5573e-05
22730.0 6.3662e-05
22750.0 6.1592e-05
22770.0 5.9565e-05
22790.0 5.7584e-05
22810.0 5.5548e-05
22830.0 5.3517e-05
22850.0 5.1612e-05
22870.0 4.9743e-05
22890.0 4.7883e-05
22910.0 4.6167e-05
