#lamb flux
1010.0 1.726e-06
1030.0 1.726e-06
1050.0 1.726e-06
1070.0 1.726e-06
1090.0 1.726e-06
1110.0 1.726e-06
1130.0 1.726e-06
1150.0 1.726e-06
1170.0 1.726e-06
1190.0 1.726e-06
1210.0 1.726e-06
1230.0 1.726e-06
1250.0 1.726e-06
1270.0 1.726e-06
1290.0 1.726e-06
1310.0 1.726e-06
1330.0 1.726e-06
1350.0 1.726e-06
1370.0 1.726e-06
1390.0 1.726e-06
1410.0 1.726e-06
1430.0 1.726e-06
1450.0 1.726e-06
1470.0 1.726e-06
1490.0 1.726e-06
1510.0 1.726e-06
1530.0 1.7278e-06
1550.0 2.0497e-06
1570.0 2.4037e-06
1590.0 2.7906e-06
1610.0 3.2062e-06
1630.0 3.6518e-06
1650.0 4.1429e-06
1670.0 4.677e-06
1690.0 5.2602e-06
1710.0 5.9048e-06
1730.0 6.612e-06
1750.0 7.3739e-06
1770.0 8.2091e-06
1790.0 9.1208e-06
1810.0 1.01e-05
1830.0 1.115e-05
1850.0 1.2289e-05
1870.0 1.3496e-05
1890.0 1.4762e-05
1910.0 1.6098e-05
1930.0 1.75e-05
1950.0 1.8933e-05
1970.0 2.0397e-05
1990.0 2.19e-05
2010.0 2.3406e-05
2030.0 2.4892e-05
2050.0 2.6369e-05
2070.0 2.7822e-05
2090.0 2.9195e-05
2110.0 3.0499e-05
2130.0 3.1736e-05
2150.0 3.287e-05
2170.0 3.3877e-05
2190.0 3.4792e-05
2210.0 3.5592e-05
2230.0 3.625e-05
2250.0 3.6782e-05
2270.0 3.7217e-05
2290.0 3.7517e-05
2310.0 3.7682e-05
2330.0 3.7757e-05
2350.0 3.7738e-05
2370.0 3.7608e-05
2390.0 3.7407e-05
2410.0 3.7164e-05
2430.0 3.6853e-05
2450.0 3.6492e-05
2470.0 3.6123e-05
2490.0 3.576e-05
2510.0 3.5396e-05
2530.0 3.5133e-05
2550.0 3.5101e-05
2570.0 3.5416e-05
2590.0 3.6223e-05
2610.0 3.7917e-05
2630.0 4.0571e-05
2650.0 4.4024e-05
2670.0 4.8388e-05
2690.0 5.3617e-05
2710.0 5.909e-05
2730.0 6.4582e-05
2750.0 7.0414e-05
2770.0 7.6198e-05
2790.0 8.1759e-05
2810.0 8.7473e-05
2830.0 9.366e-05
2850.0 9.966e-05
2870.0 0.00010582
2890.0 0.00011246
2910.0 0.00011936
2930.0 0.00012626
2950.0 0.00013371
2970.0 0.00014166
2990.0 0.00014973
3010.0 0.00015811
3030.0 0.00016712
3050.0 0.00017644
3070.0 0.00018556
3090.0 0.00019484
3110.0 0.00020382
3130.0 0.00021176
3150.0 0.0002184
3170.0 0.00022343
3190.0 0.00022638
3210.0 0.00022725
3230.0 0.00022691
3250.0 0.00022814
3270.0 0.00023265
3290.0 0.00023998
3310.0 0.00024957
3330.0 0.0002614
3350.0 0.00027476
3370.0 0.00028962
3390.0 0.00030596
3410.0 0.0003221
3430.0 0.00035124
3450.0 0.00037331
3470.0 0.00039491
3490.0 0.00040316
3510.0 0.0003962
3530.0 0.00044368
3550.0 0.00053198
3570.0 0.00058488
3590.0 0.00061144
3610.0 0.00061734
3630.0 0.00059364
3650.0 0.00064109
3670.0 0.00076641
3690.0 0.00086226
3710.0 0.0009063
3730.0 0.0009376
3750.0 0.00098109
3770.0 0.00097872
3790.0 0.00093564
3810.0 0.00087905
3830.0 0.00081698
3850.0 0.00081178
3870.0 0.00087086
3890.0 0.00093158
3910.0 0.00097707
3930.0 0.00099692
3950.0 0.0010709
3970.0 0.001145
3990.0 0.0010981
4010.0 0.00097524
4030.0 0.00085955
4050.0 0.00082223
4070.0 0.00085101
4090.0 0.00085832
4110.0 0.00083756
4130.0 0.0008246
4150.0 0.00083847
4170.0 0.00092071
4190.0 0.0010072
4210.0 0.0009875
4230.0 0.00092789
4250.0 0.00089834
4270.0 0.0008867
4290.0 0.00091211
4310.0 0.00094441
4330.0 0.00089954
4350.0 0.00078621
4370.0 0.00069242
4390.0 0.00062758
4410.0 0.00057273
4430.0 0.00056938
4450.0 0.00061793
4470.0 0.00066352
4490.0 0.00072377
4510.0 0.00082476
4530.0 0.0010275
4550.0 0.001272
4570.0 0.0014181
4590.0 0.0015141
4610.0 0.0016452
4630.0 0.001726
4650.0 0.001611
4670.0 0.0013316
4690.0 0.0011083
4710.0 0.0010256
4730.0 0.00099578
4750.0 0.00090544
4770.0 0.00083095
4790.0 0.00086801
4810.0 0.00094564
4830.0 0.0009493
4850.0 0.00088446
4870.0 0.00085573
4890.0 0.00090294
4910.0 0.00095531
4930.0 0.00095908
4950.0 0.00092775
4970.0 0.0008769
4990.0 0.00079998
5010.0 0.00072841
5030.0 0.00068608
5050.0 0.00066679
5070.0 0.00065257
5090.0 0.00063751
5110.0 0.00063499
5130.0 0.00064203
5150.0 0.00067651
5170.0 0.00075058
5190.0 0.00084091
5210.0 0.00094199
5230.0 0.0010056
5250.0 0.0010379
5270.0 0.0010949
5290.0 0.0011561
5310.0 0.001176
5330.0 0.0011312
5350.0 0.0010734
5370.0 0.0010725
5390.0 0.0011425
5410.0 0.0012201
5430.0 0.0012597
5450.0 0.0012613
5470.0 0.0012266
5490.0 0.0011779
5510.0 0.0011496
5530.0 0.0011498
5550.0 0.0011639
5570.0 0.0011732
5590.0 0.0011414
5610.0 0.0010811
5630.0 0.0010124
5650.0 0.0009506
5670.0 0.00091349
5690.0 0.00088243
5710.0 0.0008603
5730.0 0.00087083
5750.0 0.00086738
5770.0 0.00084904
5790.0 0.00085465
5810.0 0.00086853
5830.0 0.00088374
5850.0 0.00089097
5870.0 0.00087393
5890.0 0.00083658
5910.0 0.00078959
5930.0 0.00071976
5950.0 0.00066723
5970.0 0.0006606
5990.0 0.00068401
6010.0 0.00069669
6030.0 0.00067277
6050.0 0.00065653
6070.0 0.00068166
6090.0 0.00072494
6110.0 0.0007473
6130.0 0.00072591
6150.0 0.00068404
6170.0 0.00065468
6190.0 0.00062518
6210.0 0.00059022
6230.0 0.00055964
6250.0 0.00054753
6270.0 0.00056146
6290.0 0.0005864
6310.0 0.00062119
6330.0 0.00066418
6350.0 0.00070535
6370.0 0.00072674
6390.0 0.00073069
6410.0 0.00073751
6430.0 0.00074513
6450.0 0.00075008
6470.0 0.0007627
6490.0 0.00077692
6510.0 0.00078392
6530.0 0.0007792
6550.0 0.00076096
6570.0 0.00073321
6590.0 0.00070594
6610.0 0.00068643
6630.0 0.00067266
6650.0 0.00065055
6670.0 0.00062208
6690.0 0.00059945
6710.0 0.00058643
6730.0 0.00058204
6750.0 0.00057408
6770.0 0.00056218
6790.0 0.00055324
6810.0 0.00054455
6830.0 0.00054112
6850.0 0.00054593
6870.0 0.00054631
6890.0 0.00054174
6910.0 0.0005296
6930.0 0.00051728
6950.0 0.00051123
6970.0 0.00049823
6990.0 0.00048056
7010.0 0.00047294
7030.0 0.00046811
7050.0 0.00045626
7070.0 0.00044037
7090.0 0.00043161
7110.0 0.00043854
7130.0 0.00046052
7150.0 0.00048541
7170.0 0.00050142
7190.0 0.00049708
7210.0 0.00048237
7230.0 0.00047326
7250.0 0.0004689
7270.0 0.00046667
7290.0 0.00046183
7310.0 0.00046181
7330.0 0.00047261
7350.0 0.00048651
7370.0 0.00049477
7390.0 0.00049119
7410.0 0.00047889
7430.0 0.00046892
7450.0 0.00045836
7470.0 0.00043517
7490.0 0.0004195
7510.0 0.00040413
7530.0 0.00039349
7550.0 0.00039442
7570.0 0.00039896
7590.0 0.00039898
7610.0 0.000396
7630.0 0.00039422
7650.0 0.00039391
7670.0 0.00040216
7690.0 0.00041526
7710.0 0.0004319
7730.0 0.00044374
7750.0 0.0004571
7770.0 0.00046469
7790.0 0.00046611
7810.0 0.0004625
7830.0 0.00046548
7850.0 0.00046178
7870.0 0.000444
7890.0 0.00042553
7910.0 0.00041176
7930.0 0.00039927
7950.0 0.00038932
7970.0 0.0003863
7990.0 0.00039015
8010.0 0.00038078
8030.0 0.00037634
8050.0 0.00037031
8070.0 0.00036333
8090.0 0.00035617
8110.0 0.00035613
8130.0 0.00035836
8150.0 0.00035717
8170.0 0.00035443
8190.0 0.00034593
8210.0 0.00032683
8230.0 0.0003046
8250.0 0.00029123
8270.0 0.00028202
8290.0 0.00027467
8310.0 0.00027333
8330.0 0.00027552
8350.0 0.00026896
8370.0 0.00026347
8390.0 0.00026967
8410.0 0.00028364
8430.0 0.0003029
8450.0 0.00032226
8470.0 0.00033163
8490.0 0.00033934
8510.0 0.00034333
8530.0 0.00034754
8550.0 0.00035282
8570.0 0.00035582
8590.0 0.0003587
8610.0 0.0003683
8630.0 0.00037226
8650.0 0.00036455
8670.0 0.00036445
8690.0 0.00036845
8710.0 0.00037055
8730.0 0.00036815
8750.0 0.00035831
8770.0 0.00035401
8790.0 0.00035173
8810.0 0.00034676
8830.0 0.0003254
8850.0 0.00029805
8870.0 0.00027834
8890.0 0.00026762
8910.0 0.00025241
8930.0 0.00023478
8950.0 0.0002246
8970.0 0.00022311
8990.0 0.00022473
9010.0 0.00022405
9030.0 0.00022246
9050.0 0.00022098
9070.0 0.00021966
9090.0 0.00021837
9110.0 0.0002171
9130.0 0.00021582
9150.0 0.00021456
9170.0 0.0002133
9190.0 0.00021204
9210.0 0.00021078
9230.0 0.00020954
9250.0 0.0002083
9270.0 0.00020707
9290.0 0.00020585
9310.0 0.00020463
9330.0 0.00020342
9350.0 0.00020221
9370.0 0.00020101
9390.0 0.00019982
9410.0 0.00019863
9430.0 0.00019744
9450.0 0.00019619
9470.0 0.00019497
9490.0 0.00019388
9510.0 0.00019275
9530.0 0.00019163
9550.0 0.0001905
9570.0 0.00018936
9590.0 0.00018824
9610.0 0.00018712
9630.0 0.000186
9650.0 0.00018489
9670.0 0.00018379
9690.0 0.00018269
9710.0 0.00018159
9730.0 0.00018051
9750.0 0.00017943
9770.0 0.00017834
9790.0 0.00017727
9810.0 0.00017621
9830.0 0.00017512
9850.0 0.00017395
9870.0 0.00017293
9890.0 0.00017192
9910.0 0.0001709
9930.0 0.00016986
9950.0 0.00016886
9970.0 0.00016782
9990.0 0.00016677
10010.0 0.0001656
10030.0 0.00016453
10050.0 0.00016358
10070.0 0.00016262
10090.0 0.00016165
10110.0 0.0001606
10130.0 0.00015928
10150.0 0.00015834
10170.0 0.00015745
10190.0 0.00015649
10210.0 0.00015555
10230.0 0.0001546
10250.0 0.00015359
10270.0 0.00015258
10290.0 0.00015161
10310.0 0.0001506
10330.0 0.00014956
10350.0 0.00014857
10370.0 0.00014758
10390.0 0.00014655
10410.0 0.00014552
10430.0 0.00014455
10450.0 0.00014353
10470.0 0.0001425
10490.0 0.0001415
10510.0 0.0001405
10530.0 0.00013943
10550.0 0.0001384
10570.0 0.0001374
10590.0 0.00013637
10610.0 0.00013531
10630.0 0.0001343
10650.0 0.00013328
10670.0 0.0001322
10690.0 0.00013115
10710.0 0.00013013
10730.0 0.00012906
10750.0 0.00012796
10770.0 0.00012692
10790.0 0.00012587
10810.0 0.00012478
10830.0 0.0001237
10850.0 0.00012266
10870.0 0.00012155
10890.0 0.00012044
10910.0 0.00011937
10930.0 0.0001183
10950.0 0.0001172
10970.0 0.00011615
10990.0 0.00011515
11010.0 0.00011512
11030.0 0.00011414
11050.0 0.00011322
11070.0 0.0001123
11090.0 0.00011134
11110.0 0.00011043
11130.0 0.00010955
11150.0 0.00010865
11170.0 0.00010777
11190.0 0.00010696
11210.0 0.00010616
11230.0 0.00010538
11250.0 0.00010467
11270.0 0.00010401
11290.0 0.00010337
11310.0 0.00010278
11330.0 0.00010226
11350.0 0.00010177
11370.0 0.00010129
11390.0 0.00010085
11410.0 0.00010043
11430.0 9.9998e-05
11450.0 9.9572e-05
11470.0 9.9148e-05
11490.0 9.87e-05
11510.0 9.8214e-05
11530.0 9.7715e-05
11550.0 9.7186e-05
11570.0 9.6596e-05
11590.0 9.5965e-05
11610.0 9.5306e-05
11630.0 9.4576e-05
11650.0 9.3775e-05
11670.0 9.2957e-05
11690.0 9.2091e-05
11710.0 9.115e-05
11730.0 9.0174e-05
11750.0 8.9196e-05
11770.0 8.8147e-05
11790.0 8.7054e-05
11810.0 8.5968e-05
11830.0 8.4865e-05
11850.0 8.3691e-05
11870.0 8.254e-05
11890.0 8.1422e-05
11910.0 8.0275e-05
11930.0 7.9127e-05
11950.0 7.8036e-05
11970.0 7.6958e-05
11990.0 7.5867e-05
12010.0 7.4835e-05
12030.0 7.3859e-05
12050.0 7.2893e-05
12070.0 7.1952e-05
12090.0 7.1104e-05
12110.0 7.0288e-05
12130.0 6.9499e-05
12150.0 6.8775e-05
12170.0 6.812e-05
12190.0 6.7487e-05
12210.0 6.6922e-05
12230.0 6.6434e-05
12250.0 6.6005e-05
12270.0 6.5633e-05
12290.0 6.5335e-05
12310.0 6.5103e-05
12330.0 6.4926e-05
12350.0 6.4807e-05
12370.0 6.4736e-05
12390.0 6.4708e-05
12410.0 6.4723e-05
12430.0 6.4757e-05
12450.0 6.4806e-05
12470.0 6.4871e-05
12490.0 6.4936e-05
12510.0 6.4986e-05
12530.0 6.5026e-05
12550.0 6.5047e-05
12570.0 6.5032e-05
12590.0 6.4981e-05
12610.0 6.4889e-05
12630.0 6.4746e-05
12650.0 6.4553e-05
12670.0 6.4305e-05
12690.0 6.3996e-05
12710.0 6.3638e-05
12730.0 6.323e-05
12750.0 6.2753e-05
12770.0 6.2234e-05
12790.0 6.1686e-05
12810.0 6.1093e-05
12830.0 6.0457e-05
12850.0 5.9822e-05
12870.0 5.9176e-05
12890.0 5.8501e-05
12910.0 5.783e-05
12930.0 5.7178e-05
12950.0 5.6511e-05
12970.0 5.5841e-05
12990.0 5.5208e-05
13010.0 5.4586e-05
13030.0 5.396e-05
13050.0 5.3356e-05
13070.0 5.2785e-05
13090.0 5.221e-05
13110.0 5.1648e-05
13130.0 5.1118e-05
13150.0 5.0606e-05
13170.0 5.0094e-05
13190.0 4.9617e-05
13210.0 4.9174e-05
13230.0 4.8742e-05
13250.0 4.833e-05
13270.0 4.7952e-05
13290.0 4.7589e-05
13310.0 4.7234e-05
13330.0 4.6903e-05
13350.0 4.6588e-05
13370.0 4.6274e-05
13390.0 4.596e-05
13410.0 4.5661e-05
13430.0 4.5355e-05
13450.0 4.5038e-05
13470.0 4.472e-05
13490.0 4.44e-05
13510.0 4.4054e-05
13530.0 4.3699e-05
13550.0 4.3345e-05
13570.0 4.2977e-05
13590.0 4.2591e-05
13610.0 4.2206e-05
13630.0 4.1825e-05
13650.0 4.1425e-05
13670.0 4.1024e-05
13690.0 4.0633e-05
13710.0 4.0236e-05
13730.0 3.9823e-05
13750.0 3.9431e-05
13770.0 3.9044e-05
13790.0 3.8647e-05
13810.0 3.8253e-05
13830.0 3.7877e-05
13850.0 3.7491e-05
13870.0 3.7101e-05
13890.0 3.6726e-05
13910.0 3.6357e-05
13930.0 3.5979e-05
13950.0 3.5608e-05
13970.0 3.526e-05
13990.0 3.4908e-05
14010.0 3.4556e-05
14030.0 3.422e-05
14050.0 3.3893e-05
14070.0 3.3554e-05
14090.0 3.3229e-05
14110.0 3.2919e-05
14130.0 3.2607e-05
14150.0 3.2294e-05
14170.0 3.2002e-05
14190.0 3.1718e-05
14210.0 3.1433e-05
14230.0 3.1162e-05
14250.0 3.0909e-05
14270.0 3.0657e-05
14290.0 3.0414e-05
14310.0 3.0195e-05
14330.0 2.9986e-05
14350.0 2.9784e-05
14370.0 2.9597e-05
14390.0 2.9428e-05
14410.0 2.9261e-05
14430.0 2.9103e-05
14450.0 2.8959e-05
14470.0 2.8821e-05
14490.0 2.8682e-05
14510.0 2.8554e-05
14530.0 2.8433e-05
14550.0 2.831e-05
14570.0 2.8187e-05
14590.0 2.807e-05
14610.0 2.7951e-05
14630.0 2.7826e-05
14650.0 2.7704e-05
14670.0 2.7586e-05
14690.0 2.7466e-05
14710.0 2.7349e-05
14730.0 2.7249e-05
14750.0 2.7159e-05
14770.0 2.7084e-05
14790.0 2.7035e-05
14810.0 2.7015e-05
14830.0 2.7027e-05
14850.0 2.7079e-05
14870.0 2.7169e-05
14890.0 2.73e-05
14910.0 2.747e-05
14930.0 2.7663e-05
14950.0 2.7867e-05
14970.0 2.808e-05
14990.0 2.8279e-05
15010.0 2.8449e-05
15030.0 2.8593e-05
15050.0 2.8706e-05
15070.0 2.8788e-05
15090.0 2.8848e-05
15110.0 2.8894e-05
15130.0 2.8931e-05
15150.0 2.8964e-05
15170.0 2.8995e-05
15190.0 2.9024e-05
15210.0 2.9055e-05
15230.0 2.9087e-05
15250.0 2.9119e-05
15270.0 2.9152e-05
15290.0 2.9188e-05
15310.0 2.9223e-05
15330.0 2.9259e-05
15350.0 2.9298e-05
15370.0 2.9337e-05
15390.0 2.9375e-05
15410.0 2.9416e-05
15430.0 2.9458e-05
15450.0 2.95e-05
15470.0 2.9543e-05
15490.0 2.9588e-05
15510.0 2.9634e-05
15530.0 2.9679e-05
15550.0 2.9726e-05
15570.0 2.9775e-05
15590.0 2.9823e-05
15610.0 2.9872e-05
15630.0 2.9923e-05
15650.0 2.9974e-05
15670.0 3.0025e-05
15690.0 3.0078e-05
15710.0 3.0132e-05
15730.0 3.0186e-05
15750.0 3.024e-05
15770.0 3.0296e-05
15790.0 3.0353e-05
15810.0 3.0409e-05
15830.0 3.0466e-05
15850.0 3.0525e-05
15870.0 3.0584e-05
15890.0 3.0642e-05
15910.0 3.0703e-05
15930.0 3.0764e-05
15950.0 3.0824e-05
15970.0 3.0886e-05
15990.0 3.0948e-05
16010.0 3.101e-05
16030.0 3.1072e-05
16050.0 3.1137e-05
16070.0 3.1201e-05
16090.0 3.1264e-05
16110.0 3.1329e-05
16130.0 3.1395e-05
16150.0 3.1459e-05
16170.0 3.1524e-05
16190.0 3.1591e-05
16210.0 3.1657e-05
16230.0 3.1723e-05
16250.0 3.179e-05
16270.0 3.1858e-05
16290.0 3.1924e-05
16310.0 3.1991e-05
16330.0 3.2059e-05
16350.0 3.2127e-05
16370.0 3.2193e-05
16390.0 3.2261e-05
16410.0 3.233e-05
16430.0 3.2397e-05
16450.0 3.2465e-05
16470.0 3.2533e-05
16490.0 3.2601e-05
16510.0 3.2668e-05
16530.0 3.2736e-05
16550.0 3.2804e-05
16570.0 3.287e-05
16590.0 3.2937e-05
16610.0 3.3005e-05
16630.0 3.3072e-05
16650.0 3.3138e-05
16670.0 3.3205e-05
16690.0 3.3272e-05
16710.0 3.3337e-05
16730.0 3.3402e-05
16750.0 3.3468e-05
16770.0 3.3533e-05
16790.0 3.3596e-05
16810.0 3.3661e-05
16830.0 3.3725e-05
16850.0 3.3787e-05
16870.0 3.385e-05
16890.0 3.3913e-05
16910.0 3.3974e-05
16930.0 3.4034e-05
16950.0 3.4095e-05
16970.0 3.4155e-05
16990.0 3.4214e-05
17010.0 3.4273e-05
17030.0 3.4331e-05
17050.0 3.4388e-05
17070.0 3.4444e-05
17090.0 3.45e-05
17110.0 3.4555e-05
17130.0 3.4608e-05
17150.0 3.4661e-05
17170.0 3.4714e-05
17190.0 3.4766e-05
17210.0 3.4816e-05
17230.0 3.4866e-05
17250.0 3.4915e-05
17270.0 3.4962e-05
17290.0 3.5009e-05
17310.0 3.5055e-05
17330.0 3.5099e-05
17350.0 3.5142e-05
17370.0 3.5185e-05
17390.0 3.5227e-05
17410.0 3.5266e-05
17430.0 3.5305e-05
17450.0 3.5344e-05
17470.0 3.538e-05
17490.0 3.5414e-05
17510.0 3.5449e-05
17530.0 3.5482e-05
17550.0 3.5513e-05
17570.0 3.5544e-05
17590.0 3.5573e-05
17610.0 3.56e-05
17630.0 3.5626e-05
17650.0 3.5652e-05
17670.0 3.5675e-05
17690.0 3.5695e-05
17710.0 3.5717e-05
17730.0 3.5736e-05
17750.0 3.5753e-05
17770.0 3.5769e-05
17790.0 3.5785e-05
17810.0 3.5797e-05
17830.0 3.5807e-05
17850.0 3.5818e-05
17870.0 3.5826e-05
17890.0 3.5832e-05
17910.0 3.5836e-05
17930.0 3.5841e-05
17950.0 3.5842e-05
17970.0 3.5842e-05
17990.0 3.5841e-05
18010.0 3.5838e-05
18030.0 3.5831e-05
18050.0 3.5824e-05
18070.0 3.5816e-05
18090.0 3.5806e-05
18110.0 3.5793e-05
18130.0 3.578e-05
18150.0 3.5765e-05
18170.0 3.5746e-05
18190.0 3.5727e-05
18210.0 3.5707e-05
18230.0 3.5684e-05
18250.0 3.5658e-05
18270.0 3.5632e-05
18290.0 3.5604e-05
18310.0 3.5573e-05
18330.0 3.5541e-05
18350.0 3.5509e-05
18370.0 3.5472e-05
18390.0 3.5434e-05
18410.0 3.5395e-05
18430.0 3.5354e-05
18450.0 3.531e-05
18470.0 3.5265e-05
18490.0 3.5219e-05
18510.0 3.517e-05
18530.0 3.5119e-05
18550.0 3.5067e-05
18570.0 3.5013e-05
18590.0 3.4956e-05
18610.0 3.4898e-05
18630.0 3.4839e-05
18650.0 3.4776e-05
18670.0 3.4712e-05
18690.0 3.4647e-05
18710.0 3.458e-05
18730.0 3.451e-05
18750.0 3.444e-05
18770.0 3.4368e-05
18790.0 3.4292e-05
18810.0 3.4215e-05
18830.0 3.4138e-05
18850.0 3.4058e-05
18870.0 3.3975e-05
18890.0 3.3892e-05
18910.0 3.3807e-05
18930.0 3.372e-05
18950.0 3.3631e-05
18970.0 3.3541e-05
18990.0 3.3449e-05
19010.0 3.3353e-05
19030.0 3.3258e-05
19050.0 3.3162e-05
19070.0 3.3062e-05
19090.0 3.2961e-05
19110.0 3.286e-05
19130.0 3.2756e-05
19150.0 3.265e-05
19170.0 3.2543e-05
19190.0 3.2435e-05
19210.0 3.2324e-05
19230.0 3.2212e-05
19250.0 3.21e-05
19270.0 3.1985e-05
19290.0 3.1869e-05
19310.0 3.1752e-05
19330.0 3.1633e-05
19350.0 3.1512e-05
19370.0 3.139e-05
19390.0 3.1267e-05
19410.0 3.1143e-05
19430.0 3.1016e-05
19450.0 3.089e-05
19470.0 3.0762e-05
19490.0 3.0631e-05
19510.0 3.0501e-05
19530.0 3.0369e-05
19550.0 3.0235e-05
19570.0 3.01e-05
19590.0 2.9965e-05
19610.0 2.9828e-05
19630.0 2.969e-05
19650.0 2.9551e-05
19670.0 2.9412e-05
19690.0 2.927e-05
19710.0 2.9128e-05
19730.0 2.8986e-05
19750.0 2.8842e-05
19770.0 2.8696e-05
19790.0 2.855e-05
19810.0 2.8404e-05
19830.0 2.8256e-05
19850.0 2.8106e-05
19870.0 2.7954e-05
19890.0 2.7797e-05
19910.0 2.7631e-05
19930.0 2.7454e-05
19950.0 2.7259e-05
19970.0 2.7036e-05
19990.0 2.6781e-05
20010.0 2.6499e-05
20030.0 2.6176e-05
20050.0 2.5815e-05
20070.0 2.5433e-05
20090.0 2.5032e-05
20110.0 2.4598e-05
20130.0 2.4165e-05
20150.0 2.374e-05
20170.0 2.3308e-05
20190.0 2.2875e-05
20210.0 2.2462e-05
20230.0 2.2057e-05
20250.0 2.165e-05
20270.0 2.1261e-05
20290.0 2.0892e-05
20310.0 2.0529e-05
20330.0 2.0173e-05
20350.0 1.9848e-05
20370.0 1.9536e-05
20390.0 1.9234e-05
20410.0 1.8952e-05
20430.0 1.8691e-05
20450.0 1.8438e-05
20470.0 1.8202e-05
20490.0 1.7987e-05
20510.0 1.7784e-05
20530.0 1.7593e-05
20550.0 1.7418e-05
20570.0 1.7257e-05
20590.0 1.7106e-05
20610.0 1.6965e-05
20630.0 1.6834e-05
20650.0 1.6711e-05
20670.0 1.6594e-05
20690.0 1.6484e-05
20710.0 1.6377e-05
20730.0 1.6274e-05
20750.0 1.6172e-05
20770.0 1.6071e-05
20790.0 1.5968e-05
20810.0 1.5864e-05
20830.0 1.5756e-05
20850.0 1.5644e-05
20870.0 1.5526e-05
20890.0 1.5402e-05
20910.0 1.5273e-05
20930.0 1.5137e-05
20950.0 1.4992e-05
20970.0 1.4842e-05
20990.0 1.4686e-05
21010.0 1.452e-05
21030.0 1.4349e-05
21050.0 1.4174e-05
21070.0 1.3992e-05
21090.0 1.3803e-05
21110.0 1.3614e-05
21130.0 1.3423e-05
21150.0 1.3226e-05
21170.0 1.3029e-05
21190.0 1.2835e-05
21210.0 1.2638e-05
21230.0 1.2439e-05
21250.0 1.2246e-05
21270.0 1.2056e-05
21290.0 1.1865e-05
21310.0 1.1678e-05
21330.0 1.1499e-05
21350.0 1.132e-05
21370.0 1.1145e-05
21390.0 1.0977e-05
21410.0 1.0814e-05
21430.0 1.0651e-05
21450.0 1.0495e-05
21470.0 1.0346e-05
21490.0 1.0199e-05
21510.0 1.0056e-05
21530.0 9.92e-06
21550.0 9.7872e-06
21570.0 9.6561e-06
21590.0 9.5299e-06
21610.0 9.408e-06
21630.0 9.2878e-06
21650.0 9.1695e-06
21670.0 9.0563e-06
21690.0 8.9449e-06
21710.0 8.8344e-06
21730.0 8.7265e-06
21750.0 8.6211e-06
21770.0 8.5151e-06
21790.0 8.4104e-06
21810.0 8.3076e-06
21830.0 8.2051e-06
21850.0 8.1018e-06
21870.0 7.9995e-06
21890.0 7.8982e-06
21910.0 7.7955e-06
21930.0 7.6925e-06
21950.0 7.5904e-06
21970.0 7.4874e-06
21990.0 7.3823e-06
22010.0 7.2786e-06
22030.0 7.1752e-06
22050.0 7.0703e-06
22070.0 6.9651e-06
22090.0 6.8619e-06
22110.0 6.7578e-06
22130.0 6.6528e-06
22150.0 6.5495e-06
22170.0 6.4474e-06
22190.0 6.3439e-06
22210.0 6.2413e-06
22230.0 6.1416e-06
22250.0 6.0418e-06
22270.0 5.942e-06
22290.0 5.8445e-06
22310.0 5.7485e-06
22330.0 5.6513e-06
22350.0 5.5557e-06
22370.0 5.4623e-06
22390.0 5.3688e-06
22410.0 5.2747e-06
22430.0 5.1834e-06
22450.0 5.093e-06
22470.0 5.0017e-06
22490.0 4.9115e-06
22510.0 4.8233e-06
22530.0 4.7339e-06
22550.0 4.6445e-06
22570.0 4.5575e-06
22590.0 4.4713e-06
22610.0 4.3845e-06
22630.0 4.2993e-06
22650.0 4.2169e-06
22670.0 4.1344e-06
22690.0 4.0529e-06
22710.0 3.9744e-06
