#lamb flux
1010.0 0.00052339
1030.0 0.00069305
1050.0 0.00090873
1070.0 0.0011775
1090.0 0.0015135
1110.0 0.0019025
1130.0 0.0023423
1150.0 0.0028465
1170.0 0.003413
1190.0 0.004008
1210.0 0.0046486
1230.0 0.0053326
1250.0 0.0060252
1270.0 0.0067048
1290.0 0.0073916
1310.0 0.0080419
1330.0 0.0086158
1350.0 0.0091208
1370.0 0.0095518
1390.0 0.0098688
1410.0 0.010064
1430.0 0.010168
1450.0 0.010162
1470.0 0.01004
1490.0 0.0098301
1510.0 0.0095667
1530.0 0.0092203
1550.0 0.0088214
1570.0 0.0083974
1590.0 0.0079528
1610.0 0.0074898
1630.0 0.0070387
1650.0 0.0066049
1670.0 0.0061834
1690.0 0.0057849
1710.0 0.0054204
1730.0 0.0050861
1750.0 0.004776
1770.0 0.0045014
1790.0 0.0042596
1810.0 0.0040438
1830.0 0.0038552
1850.0 0.0036987
1870.0 0.003565
1890.0 0.0034525
1910.0 0.0033641
1930.0 0.0032985
1950.0 0.0032498
1970.0 0.0032197
1990.0 0.0032104
2010.0 0.0032179
2030.0 0.0032407
2050.0 0.0032825
2070.0 0.0033429
2090.0 0.0034169
2110.0 0.0035081
2130.0 0.0036185
2150.0 0.0037458
2170.0 0.0038886
2190.0 0.0040524
2210.0 0.0042361
2230.0 0.0044368
2250.0 0.0046574
2270.0 0.0049019
2290.0 0.0051652
2310.0 0.0054466
2330.0 0.0057514
2350.0 0.0060781
2370.0 0.0064216
2390.0 0.0067855
2410.0 0.0071725
2430.0 0.0075742
2450.0 0.0079903
2470.0 0.0084265
2490.0 0.0088844
2510.0 0.0093602
2530.0 0.0098755
2550.0 0.010461
2570.0 0.011146
2590.0 0.011972
2610.0 0.013067
2630.0 0.014498
2650.0 0.016285
2670.0 0.018549
2690.0 0.021392
2710.0 0.024649
2730.0 0.02821
2750.0 0.032175
2770.0 0.036198
2790.0 0.03996
2810.0 0.043448
2830.0 0.046615
2850.0 0.049095
2870.0 0.051079
2890.0 0.052715
2910.0 0.054011
2930.0 0.055
2950.0 0.055858
2970.0 0.056603
2990.0 0.057192
3010.0 0.057676
3030.0 0.058116
3050.0 0.058473
3070.0 0.058681
3090.0 0.058841
3110.0 0.058937
3130.0 0.058937
3150.0 0.058707
3170.0 0.058619
3190.0 0.058632
3210.0 0.058867
3230.0 0.059551
3250.0 0.061046
3270.0 0.063085
3290.0 0.065255
3310.0 0.067509
3330.0 0.068148
3350.0 0.0682
3370.0 0.06809
3390.0 0.067793
3410.0 0.067249
3430.0 0.066539
3450.0 0.066078
3470.0 0.066402
3490.0 0.065795
3510.0 0.062753
3530.0 0.059948
3550.0 0.060446
3570.0 0.072935
3590.0 0.084592
3610.0 0.093339
3630.0 0.10536
3650.0 0.10311
3670.0 0.089627
3690.0 0.077312
3710.0 0.072774
3730.0 0.07504
3750.0 0.076697
3770.0 0.078236
3790.0 0.079557
3810.0 0.081755
3830.0 0.075454
3850.0 0.066684
3870.0 0.062554
3890.0 0.066179
3910.0 0.068706
3930.0 0.06889
3950.0 0.072119
3970.0 0.076363
3990.0 0.077281
4010.0 0.078694
4030.0 0.076231
4050.0 0.074157
4070.0 0.072835
4090.0 0.073483
4110.0 0.074205
4130.0 0.072718
4150.0 0.07008
4170.0 0.069258
4190.0 0.06876
4210.0 0.064374
4230.0 0.059505
4250.0 0.053679
4270.0 0.048243
4290.0 0.046312
4310.0 0.045356
4330.0 0.046888
4350.0 0.051913
4370.0 0.054638
4390.0 0.06039
4410.0 0.065035
4430.0 0.066939
4450.0 0.062655
4470.0 0.057926
4490.0 0.056782
4510.0 0.055977
4530.0 0.055992
4550.0 0.055829
4570.0 0.056718
4590.0 0.058748
4610.0 0.060091
4630.0 0.061417
4650.0 0.062064
4670.0 0.061741
4690.0 0.058302
4710.0 0.05518
4730.0 0.052729
4750.0 0.051237
4770.0 0.049361
4790.0 0.049416
4810.0 0.048584
4830.0 0.04839
4850.0 0.049052
4870.0 0.048859
4890.0 0.048179
4910.0 0.04706
4930.0 0.044769
4950.0 0.039491
4970.0 0.036387
4990.0 0.034561
5010.0 0.032262
5030.0 0.032291
5050.0 0.033815
5070.0 0.03525
5090.0 0.036732
5110.0 0.037795
5130.0 0.038152
5150.0 0.038759
5170.0 0.037789
5190.0 0.037755
5210.0 0.038047
5230.0 0.036794
5250.0 0.0375
5270.0 0.039487
5290.0 0.03891
5310.0 0.037206
5330.0 0.035986
5350.0 0.03392
5370.0 0.033106
5390.0 0.032384
5410.0 0.032241
5430.0 0.032432
5450.0 0.031501
5470.0 0.03142
5490.0 0.034209
5510.0 0.034999
5530.0 0.034692
5550.0 0.034724
5570.0 0.035296
5590.0 0.035612
5610.0 0.03494
5630.0 0.03434
5650.0 0.033615
5670.0 0.033312
5690.0 0.032426
5710.0 0.031838
5730.0 0.031945
5750.0 0.031093
5770.0 0.03002
5790.0 0.029008
5810.0 0.027603
5830.0 0.028133
5850.0 0.028575
5870.0 0.02839
5890.0 0.028514
5910.0 0.02942
5930.0 0.029619
5950.0 0.029549
5970.0 0.029864
5990.0 0.030113
6010.0 0.029715
6030.0 0.029336
6050.0 0.028773
6070.0 0.028541
6090.0 0.028904
6110.0 0.028424
6130.0 0.027518
6150.0 0.026782
6170.0 0.025919
6190.0 0.023975
6210.0 0.023738
6230.0 0.023768
6250.0 0.023472
6270.0 0.023633
6290.0 0.024104
6310.0 0.024527
6330.0 0.024659
6350.0 0.024479
6370.0 0.024396
6390.0 0.023366
6410.0 0.023145
6430.0 0.022557
6450.0 0.022226
6470.0 0.022039
6490.0 0.022144
6510.0 0.021576
6530.0 0.021504
6550.0 0.021184
6570.0 0.020768
6590.0 0.020968
6610.0 0.020825
6630.0 0.020583
6650.0 0.020089
6670.0 0.019662
6690.0 0.019026
6710.0 0.01849
6730.0 0.018299
6750.0 0.018388
6770.0 0.018698
6790.0 0.018223
6810.0 0.018183
6830.0 0.017714
6850.0 0.01709
6870.0 0.016708
6890.0 0.016518
6910.0 0.016575
6930.0 0.016227
6950.0 0.016481
6970.0 0.016159
6990.0 0.016013
7010.0 0.015743
7030.0 0.015879
7050.0 0.015715
7070.0 0.014907
7090.0 0.014133
7110.0 0.014102
7130.0 0.014323
7150.0 0.014371
7170.0 0.014435
7190.0 0.014278
7210.0 0.014931
7230.0 0.015283
7250.0 0.015506
7270.0 0.015247
7290.0 0.015561
7310.0 0.015193
7330.0 0.014981
7350.0 0.014491
7370.0 0.014494
7390.0 0.014837
7410.0 0.014188
7430.0 0.014445
7450.0 0.014132
7470.0 0.014442
7490.0 0.013998
7510.0 0.013194
7530.0 0.013589
7550.0 0.012541
7570.0 0.012614
7590.0 0.012283
7610.0 0.012954
7630.0 0.012761
7650.0 0.013252
7670.0 0.012312
7690.0 0.0122
7710.0 0.01229
7730.0 0.013132
7750.0 0.012587
7770.0 0.013328
7790.0 0.013533
7810.0 0.013411
7830.0 0.014322
7850.0 0.013561
7870.0 0.014598
7890.0 0.014082
7910.0 0.013893
7930.0 0.013422
7950.0 0.013229
7970.0 0.013555
7990.0 0.013348
8010.0 0.012804
8030.0 0.012684
8050.0 0.012425
8070.0 0.012211
8090.0 0.011369
8110.0 0.011424
8130.0 0.01205
8150.0 0.012455
8170.0 0.01251
8190.0 0.012854
8210.0 0.012637
8230.0 0.012309
8250.0 0.012266
8270.0 0.01203
8290.0 0.011786
8310.0 0.011216
8330.0 0.011249
8350.0 0.011365
8370.0 0.011436
8390.0 0.011462
8410.0 0.011303
8430.0 0.011199
8450.0 0.011213
8470.0 0.01155
8490.0 0.011691
8510.0 0.011296
8530.0 0.010866
8550.0 0.01086
8570.0 0.010658
8590.0 0.010408
8610.0 0.010606
8630.0 0.010545
8650.0 0.010423
8670.0 0.010347
8690.0 0.010249
8710.0 0.0097825
8730.0 0.0098527
8750.0 0.009591
8770.0 0.0096188
8790.0 0.0094391
8810.0 0.0092286
8830.0 0.0092773
8850.0 0.0092038
8870.0 0.0087754
8890.0 0.0085195
8910.0 0.0081798
8930.0 0.0077139
8950.0 0.0075839
8970.0 0.007261
8990.0 0.0071615
9010.0 0.0069652
9030.0 0.0068956
9050.0 0.0068511
9070.0 0.0068075
9090.0 0.0067635
9110.0 0.0067184
9130.0 0.0066735
9150.0 0.0066293
9170.0 0.0065847
9190.0 0.0065397
9210.0 0.0064945
9230.0 0.006449
9250.0 0.0064034
9270.0 0.0063577
9290.0 0.0063118
9310.0 0.0062663
9330.0 0.0062214
9350.0 0.0061764
9370.0 0.0061314
9390.0 0.0060865
9410.0 0.0060416
9430.0 0.0059967
9450.0 0.0059519
9470.0 0.0059112
9490.0 0.0058685
9510.0 0.0058218
9530.0 0.0057757
9550.0 0.0057306
9570.0 0.0056861
9590.0 0.0056419
9610.0 0.0055985
9630.0 0.0055556
9650.0 0.0055129
9670.0 0.0054703
9690.0 0.0054281
9710.0 0.0053863
9730.0 0.0053445
9750.0 0.0053031
9770.0 0.0052623
9790.0 0.0052215
9810.0 0.005181
9830.0 0.0051407
9850.0 0.005097
9870.0 0.005054
9890.0 0.0050182
9910.0 0.0049818
9930.0 0.0049379
9950.0 0.0048998
9970.0 0.0048655
9990.0 0.0048302
10010.0 0.0047953
10030.0 0.0047598
10050.0 0.004724
10070.0 0.0046887
10090.0 0.004654
10110.0 0.004619
10130.0 0.0045845
10150.0 0.0045509
10170.0 0.0045176
10190.0 0.0044843
10210.0 0.0044519
10230.0 0.00442
10250.0 0.0043882
10270.0 0.0043569
10290.0 0.0043263
10310.0 0.0042959
10330.0 0.0042655
10350.0 0.0042361
10370.0 0.0042072
10390.0 0.0041781
10410.0 0.0041481
10430.0 0.0041184
10450.0 0.0040927
10470.0 0.0040663
10490.0 0.0040405
10510.0 0.0040149
10530.0 0.0039888
10550.0 0.0039634
10570.0 0.0039388
10590.0 0.0039142
10610.0 0.0038897
10630.0 0.0038663
10650.0 0.0038431
10670.0 0.0038197
10690.0 0.003797
10710.0 0.003775
10730.0 0.003753
10750.0 0.0037309
10770.0 0.0037101
10790.0 0.0036895
10810.0 0.0036687
10830.0 0.0036486
10850.0 0.0036294
10870.0 0.0036096
10890.0 0.0035902
10910.0 0.0035717
10930.0 0.0035534
10950.0 0.0035349
10970.0 0.003517
10990.0 0.0034999
11010.0 0.003902
11030.0 0.0038797
11050.0 0.0038559
11070.0 0.0038301
11090.0 0.0038017
11110.0 0.0037732
11130.0 0.0037442
11150.0 0.0037141
11170.0 0.0036836
11190.0 0.0036539
11210.0 0.0036237
11230.0 0.0035929
11250.0 0.0035631
11270.0 0.0035341
11290.0 0.0035048
11310.0 0.0034764
11330.0 0.0034504
11350.0 0.003425
11370.0 0.0034004
11390.0 0.0033779
11410.0 0.0033569
11430.0 0.0033361
11450.0 0.0033168
11470.0 0.003299
11490.0 0.0032817
11510.0 0.0032644
11530.0 0.0032483
11550.0 0.0032326
11570.0 0.0032163
11590.0 0.0032002
11610.0 0.0031845
11630.0 0.003168
11650.0 0.0031507
11670.0 0.003134
11690.0 0.003117
11710.0 0.003099
11730.0 0.003081
11750.0 0.0030634
11770.0 0.003045
11790.0 0.0030262
11810.0 0.003008
11830.0 0.0029899
11850.0 0.0029709
11870.0 0.0029529
11890.0 0.0029361
11910.0 0.0029192
11930.0 0.002903
11950.0 0.0028885
11970.0 0.0028748
11990.0 0.0028617
12010.0 0.0028504
12030.0 0.0028407
12050.0 0.0028321
12070.0 0.0028247
12090.0 0.0028195
12110.0 0.0028156
12130.0 0.0028128
12150.0 0.0028115
12170.0 0.0028114
12190.0 0.002812
12210.0 0.0028135
12230.0 0.0028156
12250.0 0.0028179
12270.0 0.0028202
12290.0 0.0028223
12310.0 0.0028239
12330.0 0.0028248
12350.0 0.0028246
12370.0 0.0028236
12390.0 0.0028213
12410.0 0.0028171
12430.0 0.0028119
12450.0 0.0028054
12470.0 0.002797
12490.0 0.0027871
12510.0 0.0027764
12530.0 0.0027639
12550.0 0.0027495
12570.0 0.0027345
12590.0 0.0027186
12610.0 0.0027007
12630.0 0.0026818
12650.0 0.0026635
12670.0 0.0026439
12690.0 0.0026233
12710.0 0.0026031
12730.0 0.0025832
12750.0 0.0025617
12770.0 0.0025411
12790.0 0.0025214
12810.0 0.0025016
12830.0 0.0024818
12850.0 0.0024637
12870.0 0.0024466
12890.0 0.0024295
12910.0 0.0024139
12930.0 0.0023999
12950.0 0.0023866
12970.0 0.0023744
12990.0 0.0023645
13010.0 0.002356
13030.0 0.0023488
13050.0 0.0023434
13070.0 0.0023397
13090.0 0.0023372
13110.0 0.002336
13130.0 0.0023359
13150.0 0.0023367
13170.0 0.002338
13190.0 0.0023398
13210.0 0.0023416
13230.0 0.0023433
13250.0 0.0023446
13270.0 0.0023454
13290.0 0.0023455
13310.0 0.0023446
13330.0 0.0023428
13350.0 0.0023401
13370.0 0.0023361
13390.0 0.0023307
13410.0 0.0023245
13430.0 0.0023169
13450.0 0.0023077
13470.0 0.0022975
13490.0 0.0022864
13510.0 0.0022732
13530.0 0.0022591
13550.0 0.0022445
13570.0 0.0022288
13590.0 0.0022117
13610.0 0.0021945
13630.0 0.0021772
13650.0 0.0021584
13670.0 0.0021393
13690.0 0.0021204
13710.0 0.0021008
13730.0 0.0020798
13750.0 0.0020597
13770.0 0.0020396
13790.0 0.0020184
13810.0 0.0019973
13830.0 0.0019769
13850.0 0.0019559
13870.0 0.0019345
13890.0 0.001914
13910.0 0.0018938
13930.0 0.0018731
13950.0 0.0018529
13970.0 0.0018342
13990.0 0.0018153
14010.0 0.0017967
14030.0 0.0017793
14050.0 0.0017625
14070.0 0.0017455
14090.0 0.0017295
14110.0 0.0017146
14130.0 0.0016998
14150.0 0.0016853
14170.0 0.0016719
14190.0 0.0016589
14210.0 0.0016459
14230.0 0.0016333
14250.0 0.0016214
14270.0 0.0016093
14290.0 0.0015972
14310.0 0.0015859
14330.0 0.0015747
14350.0 0.0015634
14370.0 0.0015525
14390.0 0.0015422
14410.0 0.0015317
14430.0 0.0015215
14450.0 0.0015117
14470.0 0.0015021
14490.0 0.0014924
14510.0 0.001483
14530.0 0.001474
14550.0 0.0014648
14570.0 0.0014556
14590.0 0.0014466
14610.0 0.0014375
14630.0 0.001428
14650.0 0.0014187
14670.0 0.0014094
14690.0 0.0013997
14710.0 0.0013898
14730.0 0.0013802
14750.0 0.0013704
14770.0 0.0013601
14790.0 0.00135
14810.0 0.0013398
14830.0 0.001329
14850.0 0.0013181
14870.0 0.0013074
14890.0 0.0012964
14910.0 0.0012852
14930.0 0.0012744
14950.0 0.001264
14970.0 0.0012537
14990.0 0.0012439
15010.0 0.001235
15030.0 0.0012266
15050.0 0.0012185
15070.0 0.0012112
15090.0 0.0012042
15110.0 0.0011973
15130.0 0.0011905
15150.0 0.001184
15170.0 0.0011773
15190.0 0.0011707
15210.0 0.0011641
15230.0 0.0011575
15250.0 0.0011508
15270.0 0.0011442
15290.0 0.0011376
15310.0 0.001131
15330.0 0.0011243
15350.0 0.0011178
15370.0 0.0011112
15390.0 0.0011045
15410.0 0.0010978
15430.0 0.0010913
15450.0 0.0010846
15470.0 0.001078
15490.0 0.0010714
15510.0 0.0010649
15530.0 0.0010582
15550.0 0.0010517
15570.0 0.0010452
15590.0 0.0010386
15610.0 0.001032
15630.0 0.0010255
15650.0 0.001019
15670.0 0.0010125
15690.0 0.001006
15710.0 0.00099964
15730.0 0.00099316
15750.0 0.0009867
15770.0 0.00098035
15790.0 0.000974
15810.0 0.00096754
15830.0 0.00096122
15850.0 0.00095497
15870.0 0.00094866
15890.0 0.00094236
15910.0 0.0009362
15930.0 0.00093
15950.0 0.00092373
15970.0 0.00091759
15990.0 0.0009115
16010.0 0.00090536
16030.0 0.00089922
16050.0 0.00089325
16070.0 0.00088725
16090.0 0.00088122
16110.0 0.00087529
16130.0 0.00086944
16150.0 0.00086346
16170.0 0.00085757
16190.0 0.00085179
16210.0 0.000846
16230.0 0.00084019
16250.0 0.00083449
16270.0 0.00082886
16290.0 0.00082315
16310.0 0.00081751
16330.0 0.00081198
16350.0 0.00080643
16370.0 0.00080081
16390.0 0.00079537
16410.0 0.00078997
16430.0 0.00078453
16450.0 0.00077914
16470.0 0.00077388
16490.0 0.00076857
16510.0 0.00076326
16530.0 0.00075806
16550.0 0.00075291
16570.0 0.00074771
16590.0 0.00074257
16610.0 0.00073757
16630.0 0.00073253
16650.0 0.00072751
16670.0 0.0007226
16690.0 0.00071772
16710.0 0.00071276
16730.0 0.00070792
16750.0 0.00070317
16770.0 0.00069839
16790.0 0.00069362
16810.0 0.00068898
16830.0 0.00068437
16850.0 0.00067972
16870.0 0.00067516
16890.0 0.00067069
16910.0 0.00066616
16930.0 0.00066165
16950.0 0.00065729
16970.0 0.00065293
16990.0 0.00064855
17010.0 0.00064427
17030.0 0.00064007
17050.0 0.00063582
17070.0 0.00063161
17090.0 0.0006275
17110.0 0.00062341
17130.0 0.00061927
17150.0 0.00061525
17170.0 0.0006113
17190.0 0.00060733
17210.0 0.00060339
17230.0 0.00059956
17250.0 0.00059572
17270.0 0.00059185
17290.0 0.00058809
17310.0 0.00058439
17330.0 0.00058066
17350.0 0.00057695
17370.0 0.00057339
17390.0 0.0005698
17410.0 0.00056621
17430.0 0.00056271
17450.0 0.00055927
17470.0 0.00055575
17490.0 0.00055231
17510.0 0.00054897
17530.0 0.00054562
17550.0 0.00054226
17570.0 0.000539
17590.0 0.0005358
17610.0 0.00053254
17630.0 0.00052935
17650.0 0.00052624
17670.0 0.00052312
17690.0 0.00051995
17710.0 0.00051693
17730.0 0.00051394
17750.0 0.00051092
17770.0 0.00050795
17790.0 0.00050508
17810.0 0.00050216
17830.0 0.00049924
17850.0 0.00049643
17870.0 0.00049364
17890.0 0.00049081
17910.0 0.00048804
17930.0 0.00048537
17950.0 0.00048267
17970.0 0.00047997
17990.0 0.00047737
18010.0 0.00047479
18030.0 0.00047214
18050.0 0.00046958
18070.0 0.00046709
18090.0 0.00046457
18110.0 0.00046205
18130.0 0.00045964
18150.0 0.00045724
18170.0 0.0004548
18190.0 0.00045244
18210.0 0.00045013
18230.0 0.00044777
18250.0 0.00044542
18270.0 0.00044319
18290.0 0.00044095
18310.0 0.00043868
18330.0 0.00043649
18350.0 0.00043436
18370.0 0.00043216
18390.0 0.00043
18410.0 0.00042792
18430.0 0.00042583
18450.0 0.0004237
18470.0 0.00042166
18490.0 0.00041967
18510.0 0.00041764
18530.0 0.00041563
18550.0 0.00041372
18570.0 0.00041177
18590.0 0.00040978
18610.0 0.00040789
18630.0 0.00040603
18650.0 0.00040412
18670.0 0.00040224
18690.0 0.00040046
18710.0 0.00039865
18730.0 0.00039682
18750.0 0.00039506
18770.0 0.00039333
18790.0 0.00039152
18810.0 0.00038977
18830.0 0.0003881
18850.0 0.0003864
18870.0 0.00038468
18890.0 0.00038304
18910.0 0.00038143
18930.0 0.00037975
18950.0 0.00037813
18970.0 0.00037656
18990.0 0.00037496
19010.0 0.00037331
19030.0 0.00037178
19050.0 0.00037026
19070.0 0.00036869
19090.0 0.00036717
19110.0 0.00036572
19130.0 0.00036419
19150.0 0.00036266
19170.0 0.00036122
19190.0 0.00035977
19210.0 0.00035827
19230.0 0.00035682
19250.0 0.00035545
19270.0 0.00035402
19290.0 0.00035259
19310.0 0.00035123
19330.0 0.00034986
19350.0 0.00034842
19370.0 0.00034705
19390.0 0.00034573
19410.0 0.00034437
19430.0 0.00034299
19450.0 0.00034171
19470.0 0.0003404
19490.0 0.00033905
19510.0 0.00033775
19530.0 0.00033649
19550.0 0.00033516
19570.0 0.00033383
19590.0 0.0003326
19610.0 0.00033134
19630.0 0.00033004
19650.0 0.00032879
19670.0 0.00032759
19690.0 0.00032631
19710.0 0.00032504
19730.0 0.00032384
19750.0 0.00032262
19770.0 0.00032133
19790.0 0.00032012
19810.0 0.00031895
19830.0 0.00031771
19850.0 0.0003165
19870.0 0.00031536
19890.0 0.00031418
19910.0 0.00031299
19930.0 0.00031193
19950.0 0.00031095
19970.0 0.00031004
19990.0 0.00030929
20010.0 0.00030878
20030.0 0.00030841
20050.0 0.00030821
20070.0 0.00030821
20090.0 0.00030835
20110.0 0.00030859
20130.0 0.00030894
20150.0 0.00030937
20170.0 0.00030985
20190.0 0.00031037
20210.0 0.00031092
20230.0 0.0003115
20250.0 0.00031209
20270.0 0.00031269
20290.0 0.0003133
20310.0 0.00031389
20330.0 0.00031447
20350.0 0.00031505
20370.0 0.00031561
20390.0 0.00031613
20410.0 0.00031665
20430.0 0.00031715
20450.0 0.00031762
20470.0 0.00031807
20490.0 0.00031853
20510.0 0.00031898
20530.0 0.00031942
20550.0 0.00031988
20570.0 0.00032037
20590.0 0.00032086
20610.0 0.00032136
20630.0 0.00032191
20650.0 0.00032247
20670.0 0.00032302
20690.0 0.00032361
20710.0 0.00032421
20730.0 0.00032479
20750.0 0.00032536
20770.0 0.00032593
20790.0 0.00032647
20810.0 0.00032694
20830.0 0.00032739
20850.0 0.00032779
20870.0 0.0003281
20890.0 0.00032835
20910.0 0.00032857
20930.0 0.0003287
20950.0 0.00032876
20970.0 0.00032879
20990.0 0.00032879
21010.0 0.00032869
21030.0 0.00032857
21050.0 0.00032846
21070.0 0.00032831
21090.0 0.00032811
21110.0 0.00032796
21130.0 0.00032782
21150.0 0.00032764
21170.0 0.00032746
21190.0 0.00032733
21210.0 0.00032715
21230.0 0.00032692
21250.0 0.00032674
21270.0 0.00032654
21290.0 0.00032626
21310.0 0.00032596
21330.0 0.00032568
21350.0 0.00032531
21370.0 0.00032487
21390.0 0.00032442
21410.0 0.00032392
21430.0 0.00032328
21450.0 0.00032262
21470.0 0.00032197
21490.0 0.00032121
21510.0 0.00032037
21530.0 0.00031956
21550.0 0.0003187
21570.0 0.00031771
21590.0 0.00031673
21610.0 0.00031576
21630.0 0.0003147
21650.0 0.00031355
21670.0 0.00031251
21690.0 0.00031141
21710.0 0.00031022
21730.0 0.00030906
21750.0 0.00030794
21770.0 0.00030667
21790.0 0.00030539
21810.0 0.00030417
21830.0 0.00030289
21850.0 0.00030152
21870.0 0.00030018
21890.0 0.0002989
21910.0 0.0002975
21930.0 0.00029609
21950.0 0.00029475
21970.0 0.00029338
21990.0 0.0002919
22010.0 0.00029054
22030.0 0.00028924
22050.0 0.00028788
22070.0 0.00028657
22090.0 0.00028539
22110.0 0.00028422
22130.0 0.00028305
22150.0 0.000282
22170.0 0.00028104
22190.0 0.00028007
22210.0 0.00027917
22230.0 0.00027842
22250.0 0.00027768
22270.0 0.00027698
22290.0 0.00027636
22310.0 0.00027581
22330.0 0.00027522
22350.0 0.00027469
22370.0 0.00027422
22390.0 0.00027373
22410.0 0.00027322
22430.0 0.00027277
22450.0 0.00027233
22470.0 0.00027184
22490.0 0.00027136
22510.0 0.00027091
22530.0 0.00027041
22550.0 0.00026989
22570.0 0.0002694
22590.0 0.00026892
22610.0 0.00026839
22630.0 0.00026788
22650.0 0.00026742
22670.0 0.00026693
22690.0 0.00026643
22710.0 0.00026598
22730.0 0.00026554
22750.0 0.00026507
22770.0 0.00026466
22790.0 0.00026429
22810.0 0.00026392
22830.0 0.00026358
22850.0 0.00026329
22870.0 0.00026302
22890.0 0.00026276
22910.0 0.00026256
22930.0 0.0002624
22950.0 0.00026225
22970.0 0.00026214
22990.0 0.00026209
23010.0 0.00026206
23030.0 0.00026206
23050.0 0.00026211
23070.0 0.0002622
23090.0 0.00026232
23110.0 0.00026248
23130.0 0.00026269
23150.0 0.00026295
23170.0 0.00026326
23190.0 0.00026362
23210.0 0.00026402
23230.0 0.00026449
23250.0 0.00026501
23270.0 0.00026556
23290.0 0.00026617
23310.0 0.00026684
23330.0 0.00026751
23350.0 0.00026819
23370.0 0.0002689
23390.0 0.0002696
23410.0 0.00027025
23430.0 0.0002709
23450.0 0.00027152
23470.0 0.00027206
23490.0 0.00027254
23510.0 0.00027297
23530.0 0.00027333
23550.0 0.00027359
23570.0 0.00027379
23590.0 0.00027393
23610.0 0.00027398
23630.0 0.00027397
23650.0 0.00027392
23670.0 0.00027381
23690.0 0.00027364
23710.0 0.00027344
23730.0 0.0002732
