#lamb flux
1010.0 9.5274e-06
1030.0 1.028e-05
1050.0 1.1148e-05
1070.0 1.2126e-05
1090.0 1.3236e-05
1110.0 1.4377e-05
1130.0 1.5526e-05
1150.0 1.6731e-05
1170.0 1.7976e-05
1190.0 1.9159e-05
1210.0 2.036e-05
1230.0 2.1603e-05
1250.0 2.2823e-05
1270.0 2.4012e-05
1290.0 2.5269e-05
1310.0 2.6529e-05
1330.0 2.7741e-05
1350.0 2.897e-05
1370.0 3.0241e-05
1390.0 3.1485e-05
1410.0 3.2697e-05
1430.0 3.3965e-05
1450.0 3.5237e-05
1470.0 3.6472e-05
1490.0 3.7723e-05
1510.0 3.9045e-05
1530.0 4.0304e-05
1550.0 4.1548e-05
1570.0 4.2837e-05
1590.0 4.4129e-05
1610.0 4.5366e-05
1630.0 4.6641e-05
1650.0 4.7948e-05
1670.0 4.9212e-05
1690.0 5.0459e-05
1710.0 5.175e-05
1730.0 5.3043e-05
1750.0 5.4256e-05
1770.0 5.5497e-05
1790.0 5.6755e-05
1810.0 5.7964e-05
1830.0 5.9142e-05
1850.0 6.0381e-05
1870.0 6.1574e-05
1890.0 6.2712e-05
1910.0 6.3858e-05
1930.0 6.5017e-05
1950.0 6.6101e-05
1970.0 6.7152e-05
1990.0 6.8229e-05
2010.0 6.9264e-05
2030.0 7.0236e-05
2050.0 7.1221e-05
2070.0 7.2214e-05
2090.0 7.3115e-05
2110.0 7.399e-05
2130.0 7.4877e-05
2150.0 7.5719e-05
2170.0 7.6489e-05
2190.0 7.7278e-05
2210.0 7.8053e-05
2230.0 7.8761e-05
2250.0 7.9444e-05
2270.0 8.0155e-05
2290.0 8.0812e-05
2310.0 8.1404e-05
2330.0 8.2013e-05
2350.0 8.2613e-05
2370.0 8.3153e-05
2390.0 8.3688e-05
2410.0 8.4262e-05
2430.0 8.4794e-05
2450.0 8.5305e-05
2470.0 8.587e-05
2490.0 8.6533e-05
2510.0 8.732e-05
2530.0 8.8565e-05
2550.0 9.0807e-05
2570.0 9.4611e-05
2590.0 0.00010064
2610.0 0.00011059
2630.0 0.00012491
2650.0 0.0001428
2670.0 0.00016445
2690.0 0.00018905
2710.0 0.00021323
2730.0 0.00023534
2750.0 0.00025577
2770.0 0.00027265
2790.0 0.00028581
2810.0 0.00029673
2830.0 0.00030652
2850.0 0.00031478
2870.0 0.00032265
2890.0 0.00033087
2910.0 0.00033925
2930.0 0.00034743
2950.0 0.0003562
2970.0 0.00036543
2990.0 0.00037454
3010.0 0.0021258
3030.0 0.0021795
3050.0 0.0022323
3070.0 0.0022784
3090.0 0.0023169
3110.0 0.0023365
3130.0 0.0023237
3150.0 0.0022655
3170.0 0.0021357
3190.0 0.0019327
3210.0 0.0016627
3230.0 0.0013621
3250.0 0.0016376
3270.0 0.001321
3290.0 0.0020044
3310.0 0.0012815
3330.0 0.0012891
3350.0 0.0014014
3370.0 0.0015398
3390.0 0.0016949
3410.0 0.0018515
3430.0 0.0020172
3450.0 0.0021872
3470.0 0.0023475
3490.0 0.0024719
3510.0 0.0027927
3530.0 0.0033226
3550.0 0.0033009
3570.0 0.0029678
3590.0 0.0036205
3610.0 0.0028547
3630.0 0.0038736
3650.0 0.0043509
3670.0 0.0051726
3690.0 0.0049114
3710.0 0.00376
3730.0 0.0043796
3750.0 0.0044336
3770.0 0.0048067
3790.0 0.0049489
3810.0 0.0054784
3830.0 0.008103
3850.0 0.010161
3870.0 0.012255
3890.0 0.012399
3910.0 0.011568
3930.0 0.011639
3950.0 0.012283
3970.0 0.012044
3990.0 0.0073098
4010.0 0.0044459
4030.0 0.0077607
4050.0 0.010615
4070.0 0.010476
4090.0 0.0065008
4110.0 0.004659
4130.0 0.0078603
4150.0 0.0085971
4170.0 0.0073758
4190.0 0.0063061
4210.0 0.0091404
4230.0 0.0077684
4250.0 0.0077354
4270.0 0.0076839
4290.0 0.0070024
4310.0 0.0087341
4330.0 0.0098779
4350.0 0.0094729
4370.0 0.0084487
4390.0 0.0093406
4410.0 0.0090742
4430.0 0.0067187
4450.0 0.0055166
4470.0 0.00673
4490.0 0.0058823
4510.0 0.0084861
4530.0 0.0087309
4550.0 0.0093022
4570.0 0.012146
4590.0 0.013287
4610.0 0.013942
4630.0 0.019607
4650.0 0.022978
4670.0 0.022844
4690.0 0.020006
4710.0 0.020205
4730.0 0.019272
4750.0 0.014726
4770.0 0.011708
4790.0 0.0086936
4810.0 0.010163
4830.0 0.011847
4850.0 0.011335
4870.0 0.0082452
4890.0 0.013553
4910.0 0.015215
4930.0 0.016583
4950.0 0.018619
4970.0 0.017026
4990.0 0.01944
5010.0 0.020823
5030.0 0.020212
5050.0 0.017096
5070.0 0.012224
5090.0 0.010148
5110.0 0.010142
5130.0 0.010295
5150.0 0.01001
5170.0 0.0093963
5190.0 0.010333
5210.0 0.010612
5230.0 0.011735
5250.0 0.013024
5270.0 0.011827
5290.0 0.013252
5310.0 0.017584
5330.0 0.01961
5350.0 0.017688
5370.0 0.017169
5390.0 0.019061
5410.0 0.020312
5430.0 0.020447
5450.0 0.021391
5470.0 0.022835
5490.0 0.025876
5510.0 0.031032
5530.0 0.032306
5550.0 0.032907
5570.0 0.033231
5590.0 0.032188
5610.0 0.030362
5630.0 0.030263
5650.0 0.03144
5670.0 0.030509
5690.0 0.027101
5710.0 0.026827
5730.0 0.025567
5750.0 0.024215
5770.0 0.021301
5790.0 0.021771
5810.0 0.022922
5830.0 0.025128
5850.0 0.024284
5870.0 0.023998
5890.0 0.025874
5910.0 0.023964
5930.0 0.021224
5950.0 0.020564
5970.0 0.021832
5990.0 0.019443
6010.0 0.016899
6030.0 0.015357
6050.0 0.013941
6070.0 0.012216
6090.0 0.012573
6110.0 0.014674
6130.0 0.01536
6150.0 0.015629
6170.0 0.015917
6190.0 0.016411
6210.0 0.018291
6230.0 0.021664
6250.0 0.020102
6270.0 0.017737
6290.0 0.015596
6310.0 0.013329
6330.0 0.011957
6350.0 0.011197
6370.0 0.011742
6390.0 0.013276
6410.0 0.016135
6430.0 0.019605
6450.0 0.021698
6470.0 0.023306
6490.0 0.02705
6510.0 0.030024
6530.0 0.028879
6550.0 0.027539
6570.0 0.02785
6590.0 0.027757
6610.0 0.028146
6630.0 0.026404
6650.0 0.023482
6670.0 0.022347
6690.0 0.022003
6710.0 0.023533
6730.0 0.020684
6750.0 0.017433
6770.0 0.016626
6790.0 0.017717
6810.0 0.020051
6830.0 0.020215
6850.0 0.018395
6870.0 0.018588
6890.0 0.018399
6910.0 0.01731
6930.0 0.018107
6950.0 0.017402
6970.0 0.016813
6990.0 0.017093
7010.0 0.017889
7030.0 0.017573
7050.0 0.016356
7070.0 0.01632
7090.0 0.014696
7110.0 0.012601
7130.0 0.011865
7150.0 0.01233
7170.0 0.014103
7190.0 0.01443
7210.0 0.013878
7230.0 0.015001
7250.0 0.01563
7270.0 0.015884
7290.0 0.016507
7310.0 0.017031
7330.0 0.016243
7350.0 0.015063
7370.0 0.013956
7390.0 0.013735
7410.0 0.015316
7430.0 0.0176
7450.0 0.019116
7470.0 0.02041
7490.0 0.023469
7510.0 0.023245
7530.0 0.019779
7550.0 0.017628
7570.0 0.014906
7590.0 0.013433
7610.0 0.013023
7630.0 0.012544
7650.0 0.013506
7670.0 0.015224
7690.0 0.016653
7710.0 0.01901
7730.0 0.019758
7750.0 0.020458
7770.0 0.021769
7790.0 0.022993
7810.0 0.022769
7830.0 0.020669
7850.0 0.020601
7870.0 0.02
7890.0 0.019587
7910.0 0.018258
7930.0 0.017603
7950.0 0.014673
7970.0 0.014347
7990.0 0.014187
8010.0 0.016164
8030.0 0.016146
8050.0 0.017096
8070.0 0.016534
8090.0 0.016582
8110.0 0.016308
8130.0 0.015839
8150.0 0.014733
8170.0 0.014536
8190.0 0.014601
8210.0 0.014742
8230.0 0.013108
8250.0 0.012067
8270.0 0.010644
8290.0 0.008995
8310.0 0.0077099
8330.0 0.0059233
8350.0 0.0046761
8370.0 0.0044045
8390.0 0.0043768
8410.0 0.004735
8430.0 0.0060882
8450.0 0.006682
8470.0 0.0072157
8490.0 0.0083307
8510.0 0.0090454
8530.0 0.010175
8550.0 0.012032
8570.0 0.013313
8590.0 0.014088
8610.0 0.015854
8630.0 0.018202
8650.0 0.018809
8670.0 0.019214
8690.0 0.019684
8710.0 0.019226
8730.0 0.018485
8750.0 0.017017
8770.0 0.016927
8790.0 0.016576
8810.0 0.015258
8830.0 0.015019
8850.0 0.013484
8870.0 0.012712
8890.0 0.01145
8910.0 0.012815
8930.0 0.011703
8950.0 0.01182
8970.0 0.012101
8990.0 0.011829
9010.0 0.012084
9030.0 0.011491
9050.0 0.011443
9070.0 0.011454
9090.0 0.011463
9110.0 0.01148
9130.0 0.011487
9150.0 0.011489
9170.0 0.011463
9190.0 0.011399
9210.0 0.01157
9230.0 0.011533
9250.0 0.011516
9270.0 0.011504
9290.0 0.011495
9310.0 0.011488
9330.0 0.011481
9350.0 0.011476
9370.0 0.01147
9390.0 0.011463
9410.0 0.011456
9430.0 0.01145
9450.0 0.011442
9470.0 0.011434
9490.0 0.011426
9510.0 0.011417
9530.0 0.011408
9550.0 0.011399
9570.0 0.01139
9590.0 0.011381
9610.0 0.011372
9630.0 0.011363
9650.0 0.011354
9670.0 0.011345
9690.0 0.011336
9710.0 0.011328
9730.0 0.01132
9750.0 0.011311
9770.0 0.011305
9790.0 0.011297
9810.0 0.01129
9830.0 0.011284
9850.0 0.011278
9870.0 0.011272
9890.0 0.011267
9910.0 0.011263
9930.0 0.011258
9950.0 0.011241
9970.0 0.011243
9990.0 0.011244
10010.0 0.011244
10030.0 0.011244
10050.0 0.01124
10070.0 0.011211
10090.0 0.011221
10110.0 0.011231
10130.0 0.011238
10150.0 0.011245
10170.0 0.011249
10190.0 0.011253
10210.0 0.011257
10230.0 0.011262
10250.0 0.011266
10270.0 0.011271
10290.0 0.011277
10310.0 0.011283
10330.0 0.011289
10350.0 0.011296
10370.0 0.011303
10390.0 0.01131
10410.0 0.011318
10430.0 0.011327
10450.0 0.011335
10470.0 0.011344
10490.0 0.011353
10510.0 0.011363
10530.0 0.011372
10550.0 0.011382
10570.0 0.011392
10590.0 0.011402
10610.0 0.011413
10630.0 0.011424
10650.0 0.011435
10670.0 0.011445
10690.0 0.011456
10710.0 0.011467
10730.0 0.011478
10750.0 0.011489
10770.0 0.011501
10790.0 0.011512
10810.0 0.011523
10830.0 0.011533
10850.0 0.011543
10870.0 0.01155
10890.0 0.011551
10910.0 0.011544
10930.0 0.011523
10950.0 0.011476
10970.0 0.011399
10990.0 0.011289
11010.0 0.011547
11030.0 0.011326
11050.0 0.011069
11070.0 0.010773
11090.0 0.010431
11110.0 0.010091
11130.0 0.009752
11150.0 0.0094057
11170.0 0.0090708
11190.0 0.008768
11210.0 0.0084783
11230.0 0.0082058
11250.0 0.007968
11270.0 0.0077589
11290.0 0.0075669
11310.0 0.0073992
11330.0 0.0072604
11350.0 0.0071336
11370.0 0.0070164
11390.0 0.0069103
11410.0 0.006809
11430.0 0.0067013
11450.0 0.0065914
11470.0 0.0064787
11490.0 0.0063556
11510.0 0.0062196
11530.0 0.0060811
11550.0 0.0059365
11570.0 0.0057802
11590.0 0.005621
11610.0 0.0054648
11630.0 0.0053024
11650.0 0.0051376
11670.0 0.0049832
11690.0 0.0048333
11710.0 0.0046838
11730.0 0.0045421
11750.0 0.0044121
11770.0 0.0042835
11790.0 0.0041596
11810.0 0.0040455
11830.0 0.0039367
11850.0 0.003827
11870.0 0.0037245
11890.0 0.0036282
11910.0 0.0035314
11930.0 0.0034353
11950.0 0.0033442
11970.0 0.0032534
11990.0 0.0031596
12010.0 0.0030693
12030.0 0.0029821
12050.0 0.0028941
12070.0 0.0028069
12090.0 0.0027283
12110.0 0.0026529
12130.0 0.0025813
12150.0 0.0025183
12170.0 0.002465
12190.0 0.0024183
12210.0 0.0023834
12230.0 0.0023615
12250.0 0.0023515
12270.0 0.002355
12290.0 0.002372
12310.0 0.0024008
12330.0 0.0024433
12350.0 0.0024974
12370.0 0.002559
12390.0 0.002629
12410.0 0.002709
12430.0 0.0027879
12450.0 0.0028666
12470.0 0.0029466
12490.0 0.003023
12510.0 0.003091
12530.0 0.0031546
12550.0 0.0032119
12570.0 0.0032588
12590.0 0.0032968
12610.0 0.0033275
12630.0 0.0033491
12650.0 0.0033614
12670.0 0.0033668
12690.0 0.0033651
12710.0 0.0033571
12730.0 0.0033438
12750.0 0.0033248
12770.0 0.0033015
12790.0 0.0032751
12810.0 0.0032446
12830.0 0.0032097
12850.0 0.0031732
12870.0 0.0031338
12890.0 0.0030894
12910.0 0.003042
12930.0 0.0029924
12950.0 0.0029371
12970.0 0.0028763
12990.0 0.0028146
13010.0 0.0027493
13030.0 0.0026787
13050.0 0.0026069
13070.0 0.0025364
13090.0 0.0024628
13110.0 0.0023894
13130.0 0.0023207
13150.0 0.0022552
13170.0 0.0021912
13190.0 0.0021354
13210.0 0.0020877
13230.0 0.0020457
13250.0 0.0020113
13270.0 0.0019859
13290.0 0.0019673
13310.0 0.0019553
13330.0 0.0019501
13350.0 0.0019499
13370.0 0.0019538
13390.0 0.0019604
13410.0 0.0019679
13430.0 0.0019755
13450.0 0.001982
13470.0 0.0019863
13490.0 0.0019878
13510.0 0.0019861
13530.0 0.001981
13550.0 0.001973
13570.0 0.0019622
13590.0 0.0019489
13610.0 0.0019345
13630.0 0.0019198
13650.0 0.0019044
13670.0 0.0018896
13690.0 0.0018761
13710.0 0.0018637
13730.0 0.0018521
13750.0 0.0018425
13770.0 0.0018339
13790.0 0.0018259
13810.0 0.0018184
13830.0 0.001811
13850.0 0.001803
13870.0 0.001794
13890.0 0.001784
13910.0 0.0017728
13930.0 0.0017597
13950.0 0.0017452
13970.0 0.0017303
13990.0 0.0017142
14010.0 0.0016975
14030.0 0.0016813
14050.0 0.0016657
14070.0 0.0016504
14090.0 0.0016367
14110.0 0.0016249
14130.0 0.0016144
14150.0 0.0016057
14170.0 0.0015989
14190.0 0.0015938
14210.0 0.0015902
14230.0 0.0015882
14250.0 0.0015878
14270.0 0.001589
14290.0 0.0015921
14310.0 0.0015966
14330.0 0.0016027
14350.0 0.0016109
14370.0 0.0016204
14390.0 0.001631
14410.0 0.0016434
14430.0 0.001657
14450.0 0.0016709
14470.0 0.0016855
14490.0 0.0017015
14510.0 0.0017172
14530.0 0.0017329
14550.0 0.0017499
14570.0 0.0017679
14590.0 0.0017864
14610.0 0.0018069
14630.0 0.0018306
14650.0 0.0018561
14670.0 0.0018841
14690.0 0.0019165
14710.0 0.0019531
14730.0 0.0019908
14750.0 0.0020327
14770.0 0.0020788
14790.0 0.0021261
14810.0 0.0021739
14830.0 0.0022261
14850.0 0.0022774
14870.0 0.0023257
14890.0 0.0023727
14910.0 0.0024176
14930.0 0.0024562
14950.0 0.0024885
14970.0 0.0025158
14990.0 0.0025355
15010.0 0.0025476
15030.0 0.0025538
15050.0 0.0025546
15070.0 0.0025509
15090.0 0.0025443
15110.0 0.0025358
15130.0 0.0025262
15150.0 0.0025163
15170.0 0.0025058
15190.0 0.0024951
15210.0 0.0024847
15230.0 0.0024742
15250.0 0.0024636
15270.0 0.002453
15290.0 0.0024428
15310.0 0.0024324
15330.0 0.0024219
15350.0 0.0024117
15370.0 0.0024016
15390.0 0.0023912
15410.0 0.0023809
15430.0 0.0023709
15450.0 0.0023608
15470.0 0.0023506
15490.0 0.0023407
15510.0 0.0023308
15530.0 0.0023208
15550.0 0.0023109
15570.0 0.0023012
15590.0 0.0022914
15610.0 0.0022814
15630.0 0.0022718
15650.0 0.0022622
15670.0 0.0022525
15690.0 0.0022429
15710.0 0.0022335
15730.0 0.002224
15750.0 0.0022144
15770.0 0.0022051
15790.0 0.0021958
15810.0 0.0021862
15830.0 0.002177
15850.0 0.0021679
15870.0 0.0021586
15890.0 0.0021494
15910.0 0.0021404
15930.0 0.0021314
15950.0 0.0021222
15970.0 0.0021132
15990.0 0.0021043
16010.0 0.0020953
16030.0 0.0020863
16050.0 0.0020776
16070.0 0.0020688
16090.0 0.0020599
16110.0 0.0020513
16130.0 0.0020427
16150.0 0.0020339
16170.0 0.0020251
16190.0 0.0020167
16210.0 0.0020081
16230.0 0.0019994
16250.0 0.001991
16270.0 0.0019827
16290.0 0.0019741
16310.0 0.0019657
16330.0 0.0019575
16350.0 0.0019491
16370.0 0.0019405
16390.0 0.0019323
16410.0 0.0019242
16430.0 0.0019159
16450.0 0.0019076
16470.0 0.0018996
16490.0 0.0018914
16510.0 0.0018832
16530.0 0.0018751
16550.0 0.0018671
16570.0 0.0018589
16590.0 0.0018508
16610.0 0.001843
16630.0 0.001835
16650.0 0.0018269
16670.0 0.0018191
16690.0 0.0018113
16710.0 0.0018031
16730.0 0.0017952
16750.0 0.0017875
16770.0 0.0017796
16790.0 0.0017716
16810.0 0.0017639
16830.0 0.0017562
16850.0 0.0017483
16870.0 0.0017405
16890.0 0.001733
16910.0 0.0017251
16930.0 0.0017172
16950.0 0.0017096
16970.0 0.001702
16990.0 0.0016942
17010.0 0.0016865
17030.0 0.0016791
17050.0 0.0016713
17070.0 0.0016636
17090.0 0.0016561
17110.0 0.0016486
17130.0 0.0016407
17150.0 0.0016332
17170.0 0.0016258
17190.0 0.0016181
17210.0 0.0016105
17230.0 0.0016032
17250.0 0.0015956
17270.0 0.0015879
17290.0 0.0015805
17310.0 0.0015731
17330.0 0.0015655
17350.0 0.0015578
17370.0 0.0015506
17390.0 0.0015431
17410.0 0.0015355
17430.0 0.0015282
17450.0 0.0015209
17470.0 0.0015132
17490.0 0.0015057
17510.0 0.0014985
17530.0 0.001491
17550.0 0.0014835
17570.0 0.0014762
17590.0 0.001469
17610.0 0.0014614
17630.0 0.001454
17650.0 0.0014468
17670.0 0.0014395
17690.0 0.0014318
17710.0 0.0014246
17730.0 0.0014174
17750.0 0.00141
17770.0 0.0014026
17790.0 0.0013955
17810.0 0.0013881
17830.0 0.0013807
17850.0 0.0013735
17870.0 0.0013663
17890.0 0.0013589
17910.0 0.0013516
17930.0 0.0013445
17950.0 0.0013372
17970.0 0.0013299
17990.0 0.0013228
18010.0 0.0013157
18030.0 0.0013082
18050.0 0.001301
18070.0 0.001294
18090.0 0.0012867
18110.0 0.0012794
18130.0 0.0012724
18150.0 0.0012653
18170.0 0.0012581
18190.0 0.0012509
18210.0 0.001244
18230.0 0.0012367
18250.0 0.0012295
18270.0 0.0012225
18290.0 0.0012155
18310.0 0.0012083
18330.0 0.0012013
18350.0 0.0011944
18370.0 0.0011872
18390.0 0.0011801
18410.0 0.0011732
18430.0 0.0011662
18450.0 0.001159
18470.0 0.0011521
18490.0 0.0011453
18510.0 0.0011382
18530.0 0.0011312
18550.0 0.0011245
18570.0 0.0011176
18590.0 0.0011105
18610.0 0.0011036
18630.0 0.0010968
18650.0 0.0010899
18670.0 0.0010829
18690.0 0.0010763
18710.0 0.0010695
18730.0 0.0010625
18750.0 0.0010558
18770.0 0.0010492
18790.0 0.0010422
18810.0 0.0010354
18830.0 0.0010288
18850.0 0.001022
18870.0 0.0010152
18890.0 0.0010086
18910.0 0.001002
18930.0 0.00099524
18950.0 0.00098857
18970.0 0.00098207
18990.0 0.00097543
19010.0 0.00096857
19030.0 0.00096213
19050.0 0.00095565
19070.0 0.00094899
19090.0 0.00094244
19110.0 0.00093612
19130.0 0.00092952
19150.0 0.0009229
19170.0 0.00091652
19190.0 0.00091013
19210.0 0.00090352
19230.0 0.00089706
19250.0 0.00089084
19270.0 0.00088441
19290.0 0.00087795
19310.0 0.00087172
19330.0 0.00086546
19350.0 0.00085891
19370.0 0.00085262
19390.0 0.00084645
19410.0 0.00084012
19430.0 0.00083374
19450.0 0.00082766
19470.0 0.0008215
19490.0 0.00081517
19510.0 0.00080901
19530.0 0.00080299
19550.0 0.00079671
19570.0 0.00079042
19590.0 0.00078445
19610.0 0.00077839
19630.0 0.00077219
19650.0 0.00076618
19670.0 0.00076029
19690.0 0.00075413
19710.0 0.00074805
19730.0 0.00074217
19750.0 0.00073621
19770.0 0.00073004
19790.0 0.00072415
19810.0 0.00071835
19830.0 0.00071233
19850.0 0.00070632
19870.0 0.00070045
19890.0 0.0006942
19910.0 0.00068744
19930.0 0.00068035
19950.0 0.00067248
19970.0 0.00066312
19990.0 0.0006523
20010.0 0.0006405
20030.0 0.00062684
20050.0 0.00061163
20070.0 0.00059602
20090.0 0.00058018
20110.0 0.00056341
20130.0 0.00054764
20150.0 0.00053314
20170.0 0.00051923
20190.0 0.00050624
20210.0 0.00049496
20230.0 0.00048482
20250.0 0.0004755
20270.0 0.00046763
20290.0 0.0004611
20310.0 0.00045554
20330.0 0.00045101
20350.0 0.00044788
20370.0 0.00044574
20390.0 0.00044462
20410.0 0.00044461
20430.0 0.00044558
20450.0 0.00044769
20470.0 0.00045091
20490.0 0.00045505
20510.0 0.00046022
20530.0 0.00046663
20550.0 0.00047386
20570.0 0.00048164
20590.0 0.0004905
20610.0 0.00050004
20630.0 0.00050969
20650.0 0.00051977
20670.0 0.0005305
20690.0 0.0005407
20710.0 0.00055052
20730.0 0.00056029
20750.0 0.0005696
20770.0 0.0005779
20790.0 0.00058579
20810.0 0.00059326
20830.0 0.00059993
20850.0 0.00060598
20870.0 0.0006119
20890.0 0.00061748
20910.0 0.00062257
20930.0 0.00062768
20950.0 0.00063286
20970.0 0.00063784
20990.0 0.00064271
21010.0 0.00064775
21030.0 0.00065254
21050.0 0.00065692
21070.0 0.000661
21090.0 0.0006647
21110.0 0.0006676
21130.0 0.0006698
21150.0 0.00067133
21170.0 0.00067203
21190.0 0.00067194
21210.0 0.00067108
21230.0 0.00066941
21250.0 0.00066711
21270.0 0.00066421
21290.0 0.00066067
21310.0 0.00065667
21330.0 0.00065249
21350.0 0.00064787
21370.0 0.00064297
21390.0 0.00063809
21410.0 0.00063317
21430.0 0.00062799
21450.0 0.00062305
21470.0 0.0006184
21490.0 0.00061381
21510.0 0.00060942
21530.0 0.00060552
21550.0 0.00060192
21570.0 0.0005986
21590.0 0.00059581
21610.0 0.00059356
21630.0 0.00059177
21650.0 0.00059055
21670.0 0.00058999
21690.0 0.00059004
21710.0 0.00059077
21730.0 0.00059217
21750.0 0.00059418
21770.0 0.00059703
21790.0 0.00060061
21810.0 0.00060474
21830.0 0.00060958
21850.0 0.00061527
21870.0 0.00062144
21890.0 0.00062795
21910.0 0.00063527
21930.0 0.00064306
21950.0 0.00065096
21970.0 0.0006593
21990.0 0.00066831
22010.0 0.00067704
22030.0 0.00068572
22050.0 0.00069465
22070.0 0.00070344
22090.0 0.0007116
22110.0 0.00071962
22130.0 0.00072738
22150.0 0.00073432
22170.0 0.00074052
22190.0 0.00074621
22210.0 0.00075093
22230.0 0.00075445
22250.0 0.00075703
22270.0 0.00075848
22290.0 0.0007587
22310.0 0.00075772
22330.0 0.00075538
22350.0 0.00075172
22370.0 0.00074691
22390.0 0.00074073
22410.0 0.00073304
22430.0 0.00072453
22450.0 0.00071501
22470.0 0.00070411
22490.0 0.0006924
22510.0 0.00068033
22530.0 0.00066705
22550.0 0.00065292
22570.0 0.00063895
22590.0 0.00062468
22610.0 0.00060972
22630.0 0.00059487
22650.0 0.00058067
22670.0 0.00056607
22690.0 0.00055156
22710.0 0.00053786
22730.0 0.00052458
22750.0 0.00051105
22770.0 0.0004986
22790.0 0.00048709
22810.0 0.00047591
22830.0 0.00046536
22850.0 0.00045602
22870.0 0.00044736
22890.0 0.00043929
22910.0 0.00043237
22930.0 0.00042653
22950.0 0.00042151
22970.0 0.00041749
22990.0 0.00041477
23010.0 0.00041304
23030.0 0.00041238
23050.0 0.00041283
23070.0 0.00041427
23090.0 0.00041686
23110.0 0.00042044
23130.0 0.00042479
23150.0 0.00042998
23170.0 0.00043609
23190.0 0.00044259
23210.0 0.00044934
23230.0 0.00045669
23250.0 0.00046418
23270.0 0.00047142
23290.0 0.00047868
23310.0 0.00048599
23330.0 0.00049254
23350.0 0.00049853
23370.0 0.00050412
23390.0 0.00050899
23410.0 0.00051292
23430.0 0.00051619
23450.0 0.00051866
23470.0 0.00052021
23490.0 0.00052092
23510.0 0.00052079
23530.0 0.0005198
23550.0 0.00051812
23570.0 0.00051569
23590.0 0.00051254
23610.0 0.00050892
23630.0 0.00050487
23650.0 0.00050019
23670.0 0.00049532
23690.0 0.00049044
23710.0 0.00048543
23730.0 0.00048043
23750.0 0.000476
23770.0 0.00047206
23790.0 0.00046869
23810.0 0.00046626
