#lamb flux
1010.0 7.6989e-09
1030.0 8.4242e-09
1050.0 9.2586e-09
1070.0 1.0198e-08
1090.0 1.1265e-08
1110.0 1.2359e-08
1130.0 1.346e-08
1150.0 1.4613e-08
1170.0 1.5803e-08
1190.0 1.6932e-08
1210.0 1.8075e-08
1230.0 1.9257e-08
1250.0 2.0414e-08
1270.0 2.1539e-08
1290.0 2.2727e-08
1310.0 2.3914e-08
1330.0 2.5052e-08
1350.0 2.6203e-08
1370.0 2.7392e-08
1390.0 2.855e-08
1410.0 2.9674e-08
1430.0 3.085e-08
1450.0 3.2025e-08
1470.0 3.316e-08
1490.0 3.4308e-08
1510.0 3.552e-08
1530.0 3.6668e-08
1550.0 3.78e-08
1570.0 3.8972e-08
1590.0 4.0144e-08
1610.0 4.1263e-08
1630.0 4.2417e-08
1650.0 4.3601e-08
1670.0 4.4746e-08
1690.0 4.5875e-08
1710.0 4.7047e-08
1730.0 4.8224e-08
1750.0 4.933e-08
1770.0 5.0467e-08
1790.0 5.1626e-08
1810.0 5.2745e-08
1830.0 5.3843e-08
1850.0 5.5006e-08
1870.0 5.6135e-08
1890.0 5.7223e-08
1910.0 5.8328e-08
1930.0 5.9456e-08
1950.0 6.0526e-08
1970.0 6.1576e-08
1990.0 6.2661e-08
2010.0 6.3718e-08
2030.0 6.4727e-08
2050.0 6.5759e-08
2070.0 6.6808e-08
2090.0 6.7779e-08
2110.0 6.8733e-08
2130.0 6.9705e-08
2150.0 7.064e-08
2170.0 7.1509e-08
2190.0 7.24e-08
2210.0 7.3277e-08
2230.0 7.4088e-08
2250.0 7.4872e-08
2270.0 7.5679e-08
2290.0 7.6426e-08
2310.0 7.7106e-08
2330.0 7.78e-08
2350.0 7.8494e-08
2370.0 7.9157e-08
2390.0 7.9884e-08
2410.0 8.0803e-08
2430.0 8.191e-08
2450.0 8.3308e-08
2470.0 8.5221e-08
2490.0 8.7752e-08
2510.0 9.0685e-08
2530.0 9.4321e-08
2550.0 9.9015e-08
2570.0 1.0497e-07
2590.0 1.1282e-07
2610.0 1.2467e-07
2630.0 1.4147e-07
2650.0 1.6308e-07
2670.0 1.9055e-07
2690.0 2.2367e-07
2710.0 2.5814e-07
2730.0 2.9125e-07
2750.0 3.2294e-07
2770.0 3.4934e-07
2790.0 3.6905e-07
2810.0 3.8349e-07
2830.0 3.9358e-07
2850.0 3.9902e-07
2870.0 4.0183e-07
2890.0 4.0315e-07
2910.0 4.0337e-07
2930.0 4.0287e-07
2950.0 4.0225e-07
2970.0 4.0161e-07
2990.0 4.0086e-07
3010.0 1.2735e-05
3030.0 1.2714e-05
3050.0 1.2692e-05
3070.0 1.2663e-05
3090.0 1.2625e-05
3110.0 1.2567e-05
3130.0 1.2471e-05
3150.0 1.2327e-05
3170.0 1.2109e-05
3190.0 1.1822e-05
3210.0 1.1485e-05
3230.0 1.1113e-05
3250.0 1.0733e-05
3270.0 1.0448e-05
3290.0 1.0236e-05
3310.0 1.0193e-05
3330.0 1.0269e-05
3350.0 1.0458e-05
3370.0 1.076e-05
3390.0 1.1159e-05
3410.0 1.1604e-05
3430.0 1.2112e-05
3450.0 1.2702e-05
3470.0 1.3352e-05
3490.0 1.405e-05
3510.0 1.4846e-05
3530.0 1.5712e-05
3550.0 1.6634e-05
3570.0 1.7643e-05
3590.0 1.8763e-05
3610.0 1.9998e-05
3630.0 2.1221e-05
3650.0 2.2512e-05
3670.0 2.3675e-05
3690.0 2.4537e-05
3710.0 2.4974e-05
3730.0 2.4745e-05
3750.0 2.3884e-05
3770.0 2.4421e-05
3790.0 2.4028e-05
3810.0 1.929e-05
3830.0 1.8939e-05
3850.0 2.7021e-05
3870.0 2.694e-05
3890.0 2.124e-05
3910.0 2.0109e-05
3930.0 2.4365e-05
3950.0 2.8607e-05
3970.0 3.1253e-05
3990.0 2.1467e-05
4010.0 4.5436e-05
4030.0 4.6696e-05
4050.0 5.1434e-05
4070.0 5.4723e-05
4090.0 5.1225e-05
4110.0 4.4076e-05
4130.0 5.1451e-05
4150.0 6.7433e-05
4170.0 5.4691e-05
4190.0 4.9713e-05
4210.0 5.5052e-05
4230.0 6.661e-05
4250.0 8.0011e-05
4270.0 8.6265e-05
4290.0 7.6432e-05
4310.0 7.1721e-05
4330.0 7.1397e-05
4350.0 8.979e-05
4370.0 0.00010856
4390.0 8.7825e-05
4410.0 5.0384e-05
4430.0 3.666e-05
4450.0 3.4401e-05
4470.0 2.1298e-05
4490.0 3.4969e-05
4510.0 7.4456e-05
4530.0 9.0515e-05
4550.0 8.5037e-05
4570.0 7.7723e-05
4590.0 8.3374e-05
4610.0 0.00015995
4630.0 0.00022382
4650.0 0.00021449
4670.0 0.00018923
4690.0 0.0001915
4710.0 0.00020023
4730.0 0.0001669
4750.0 0.00011005
4770.0 7.5363e-05
4790.0 8.2147e-05
4810.0 8.6e-05
4830.0 8.4482e-05
4850.0 9.1646e-05
4870.0 0.00012139
4890.0 0.00014079
4910.0 0.00011074
4930.0 0.00010687
4950.0 0.00012272
4970.0 0.00016266
4990.0 0.00021983
5010.0 0.00025458
5030.0 0.00020535
5050.0 0.00012703
5070.0 8.96e-05
5090.0 6.8099e-05
5110.0 6.4088e-05
5130.0 7.704e-05
5150.0 7.5428e-05
5170.0 7.1094e-05
5190.0 6.3282e-05
5210.0 7.0437e-05
5230.0 8.6506e-05
5250.0 0.00010042
5270.0 9.3846e-05
5290.0 0.00010125
5310.0 0.00013492
5330.0 0.0001455
5350.0 0.00014349
5370.0 0.00016037
5390.0 0.00019913
5410.0 0.00017257
5430.0 0.00013405
5450.0 0.00013429
5470.0 0.00015506
5490.0 0.00019359
5510.0 0.00023589
5530.0 0.00027358
5550.0 0.00024837
5570.0 0.00022302
5590.0 0.00018393
5610.0 0.00018535
5630.0 0.00020644
5650.0 0.00019033
5670.0 0.00017528
5690.0 0.00014243
5710.0 0.00014613
5730.0 0.00014156
5750.0 7.8303e-05
5770.0 5.6081e-05
5790.0 6.9155e-05
5810.0 7.3047e-05
5830.0 0.00011249
5850.0 0.00014647
5870.0 0.00015793
5890.0 0.00015135
5910.0 0.00014743
5930.0 0.00014164
5950.0 0.000146
5970.0 0.00018065
5990.0 0.00014962
6010.0 0.00011578
6030.0 9.4693e-05
6050.0 8.4419e-05
6070.0 9.9605e-05
6090.0 0.00011174
6110.0 0.00011451
6130.0 0.00010625
6150.0 8.3982e-05
6170.0 6.5385e-05
6190.0 7.9239e-05
6210.0 0.00012469
6230.0 0.00018357
6250.0 0.00019809
6270.0 0.00015242
6290.0 0.00013047
6310.0 9.9622e-05
6330.0 7.2738e-05
6350.0 7.1171e-05
6370.0 7.4719e-05
6390.0 8.9202e-05
6410.0 0.00011532
6430.0 0.00013869
6450.0 0.00016971
6470.0 0.00017965
6490.0 0.00021517
6510.0 0.00024133
6530.0 0.00024613
6550.0 0.00022636
6570.0 0.00018168
6590.0 0.0001725
6610.0 0.00014303
6630.0 0.00014807
6650.0 0.00014384
6670.0 0.00012591
6690.0 9.7808e-05
6710.0 9.5424e-05
6730.0 4.1834e-05
6750.0 5.6158e-05
6770.0 8.8122e-05
6790.0 0.00011655
6810.0 8.3201e-05
6830.0 8.4957e-05
6850.0 7.0766e-05
6870.0 6.6205e-05
6890.0 5.5956e-05
6910.0 6.8078e-05
6930.0 6.4088e-05
6950.0 7.6607e-05
6970.0 7.9588e-05
6990.0 8.8353e-05
7010.0 8.5348e-05
7030.0 9.77e-05
7050.0 8.4681e-05
7070.0 7.0639e-05
7090.0 7.5763e-05
7110.0 8.0385e-05
7130.0 9.2512e-05
7150.0 0.00010484
7170.0 0.00011755
7190.0 0.00012552
7210.0 0.0001119
7230.0 0.00011333
7250.0 0.00012147
7270.0 0.00013039
7290.0 0.00016064
7310.0 0.00016982
7330.0 0.00015886
7350.0 0.00014228
7370.0 0.00010553
7390.0 0.00010884
7410.0 0.00013331
7430.0 0.00015192
7450.0 0.00016368
7470.0 0.00014977
7490.0 0.00011959
7510.0 0.00019279
7530.0 0.00017568
7550.0 0.0001657
7570.0 0.00011258
7590.0 4.9963e-05
7610.0 3.5273e-05
7630.0 5.3549e-05
7650.0 7.1999e-05
7670.0 0.00011461
7690.0 0.0001277
7710.0 0.0001154
7730.0 0.00011454
7750.0 0.00015036
7770.0 0.00015453
7790.0 0.0001413
7810.0 0.00011422
7830.0 0.00012376
7850.0 0.00013564
7870.0 0.00013262
7890.0 0.00010367
7910.0 6.968e-05
7930.0 7.2192e-05
7950.0 6.5213e-05
7970.0 5.4935e-05
7990.0 4.9665e-05
8010.0 2.6094e-05
8030.0 2.3812e-05
8050.0 2.5854e-05
8070.0 2.9304e-05
8090.0 3.5982e-05
8110.0 3.3748e-05
8130.0 1.9746e-05
8150.0 2.0571e-05
8170.0 1.1186e-05
8190.0 6.4579e-06
8210.0 1.8257e-05
8230.0 2.218e-05
8250.0 8.1236e-06
8270.0 6.2654e-06
8290.0 1.3102e-05
8310.0 1.1672e-05
8330.0 7.122e-06
8350.0 5.7537e-06
8370.0 1.1853e-06
8390.0 6.1462e-06
8410.0 7.091e-06
8430.0 8.8147e-06
8450.0 9.9233e-06
8470.0 1.6941e-05
8490.0 1.3683e-05
8510.0 1.0351e-05
8530.0 4.777e-06
8550.0 1.8771e-05
8570.0 2.9541e-05
8590.0 2.0091e-05
8610.0 3.0549e-05
8630.0 3.3083e-05
8650.0 1.6841e-05
8670.0 2.5735e-05
8690.0 4.1174e-05
8710.0 3.5172e-05
8730.0 3.8106e-05
8750.0 2.9717e-05
8770.0 2.6301e-05
8790.0 2.9396e-05
8810.0 3.2091e-05
8830.0 1.7381e-05
8850.0 7.0057e-06
8870.0 4.8683e-06
8890.0 1.3524e-05
8910.0 2.1821e-05
8930.0 2.9091e-05
8950.0 3.249e-05
8970.0 3.1234e-05
8990.0 2.3153e-05
9010.0 2.2022e-05
9030.0 1.6625e-05
9050.0 1.7284e-05
9070.0 1.7973e-05
9090.0 1.8534e-05
9110.0 1.9214e-05
9130.0 1.9704e-05
9150.0 2.0054e-05
9170.0 2.0425e-05
9190.0 2.0823e-05
9210.0 2.1241e-05
9230.0 2.1683e-05
9250.0 2.2129e-05
9270.0 2.2589e-05
9290.0 2.3062e-05
9310.0 2.3533e-05
9330.0 2.401e-05
9350.0 2.4504e-05
9370.0 2.4999e-05
9390.0 2.5496e-05
9410.0 2.6006e-05
9430.0 2.653e-05
9450.0 2.7048e-05
9470.0 2.7575e-05
9490.0 2.8116e-05
9510.0 2.8661e-05
9530.0 2.9205e-05
9550.0 2.9769e-05
9570.0 3.0341e-05
9590.0 3.0911e-05
9610.0 3.1491e-05
9630.0 3.2086e-05
9650.0 3.2684e-05
9670.0 3.328e-05
9690.0 3.3893e-05
9710.0 3.4515e-05
9730.0 3.5136e-05
9750.0 3.5766e-05
9770.0 3.6417e-05
9790.0 3.7063e-05
9810.0 3.7711e-05
9830.0 3.8375e-05
9850.0 3.9046e-05
9870.0 3.9713e-05
9890.0 4.039e-05
9910.0 4.1082e-05
9930.0 4.1772e-05
9950.0 4.2464e-05
9970.0 4.3171e-05
9990.0 4.3886e-05
10010.0 3.9097e-05
10030.0 3.9722e-05
10050.0 4.0356e-05
10070.0 4.0983e-05
10090.0 4.1615e-05
10110.0 4.2262e-05
10130.0 4.2908e-05
10150.0 4.3549e-05
10170.0 4.4196e-05
10190.0 4.4852e-05
10210.0 4.55e-05
10230.0 4.6145e-05
10250.0 4.68e-05
10270.0 4.7453e-05
10290.0 4.8098e-05
10310.0 4.8751e-05
10330.0 4.941e-05
10350.0 5.0056e-05
10370.0 5.07e-05
10390.0 5.1351e-05
10410.0 5.1997e-05
10430.0 5.263e-05
10450.0 5.3269e-05
10470.0 5.3908e-05
10490.0 5.4535e-05
10510.0 5.5156e-05
10530.0 5.5787e-05
10550.0 5.6406e-05
10570.0 5.701e-05
10590.0 5.7616e-05
10610.0 5.822e-05
10630.0 5.8808e-05
10650.0 5.9389e-05
10670.0 5.9974e-05
10690.0 6.0545e-05
10710.0 6.1103e-05
10730.0 6.1659e-05
10750.0 6.2215e-05
10770.0 6.2744e-05
10790.0 6.3268e-05
10810.0 6.3789e-05
10830.0 6.4292e-05
10850.0 6.477e-05
10870.0 6.5236e-05
10890.0 6.5658e-05
10910.0 6.6003e-05
10930.0 6.6246e-05
10950.0 6.6328e-05
10970.0 6.6197e-05
10990.0 6.583e-05
11010.0 6.5447e-05
11030.0 6.4451e-05
11050.0 6.3201e-05
11070.0 6.1684e-05
11090.0 5.9848e-05
11110.0 5.7942e-05
11130.0 5.5953e-05
11150.0 5.3818e-05
11170.0 5.1626e-05
11190.0 4.9509e-05
11210.0 4.7336e-05
11230.0 4.5122e-05
11250.0 4.3017e-05
11270.0 4.1005e-05
11290.0 3.9e-05
11310.0 3.7106e-05
11330.0 3.5436e-05
11350.0 3.3858e-05
11370.0 3.2394e-05
11390.0 3.1117e-05
11410.0 2.9986e-05
11430.0 2.8922e-05
11450.0 2.7987e-05
11470.0 2.7159e-05
11490.0 2.6375e-05
11510.0 2.5609e-05
11530.0 2.4888e-05
11550.0 2.417e-05
11570.0 2.3409e-05
11590.0 2.2627e-05
11610.0 2.1839e-05
11630.0 2.0993e-05
11650.0 2.01e-05
11670.0 1.9226e-05
11690.0 1.8346e-05
11710.0 1.7445e-05
11730.0 1.6574e-05
11750.0 1.5767e-05
11770.0 1.4975e-05
11790.0 1.423e-05
11810.0 1.3567e-05
11830.0 1.2968e-05
11850.0 1.2409e-05
11870.0 1.1931e-05
11890.0 1.1523e-05
11910.0 1.1155e-05
11930.0 1.083e-05
11950.0 1.055e-05
11970.0 1.0293e-05
11990.0 1.0047e-05
12010.0 9.8169e-06
12030.0 9.5951e-06
12050.0 9.3689e-06
12070.0 9.137e-06
12090.0 8.9135e-06
12110.0 8.6876e-06
12130.0 8.4605e-06
12150.0 8.246e-06
12170.0 8.0502e-06
12190.0 7.8681e-06
12210.0 7.7175e-06
12230.0 7.6058e-06
12250.0 7.5339e-06
12270.0 7.5101e-06
12290.0 7.5365e-06
12310.0 7.6091e-06
12330.0 7.739e-06
12350.0 7.92e-06
12370.0 8.1379e-06
12390.0 8.3994e-06
12410.0 8.7162e-06
12430.0 9.0409e-06
12450.0 9.3795e-06
12470.0 9.7427e-06
12490.0 1.0108e-05
12510.0 1.0447e-05
12530.0 1.0784e-05
12550.0 1.1108e-05
12570.0 1.1388e-05
12590.0 1.1629e-05
12610.0 1.184e-05
12630.0 1.2e-05
12650.0 1.2099e-05
12670.0 1.2152e-05
12690.0 1.2152e-05
12710.0 1.2096e-05
12730.0 1.1993e-05
12750.0 1.1837e-05
12770.0 1.1636e-05
12790.0 1.14e-05
12810.0 1.1126e-05
12830.0 1.0816e-05
12850.0 1.0495e-05
12870.0 1.0159e-05
12890.0 9.7999e-06
12910.0 9.4377e-06
12930.0 9.0823e-06
12950.0 8.7151e-06
12970.0 8.344e-06
12990.0 7.9932e-06
13010.0 7.648e-06
13030.0 7.3005e-06
13050.0 6.9667e-06
13070.0 6.653e-06
13090.0 6.3385e-06
13110.0 6.0332e-06
13130.0 5.7498e-06
13150.0 5.4796e-06
13170.0 5.2136e-06
13190.0 4.9735e-06
13210.0 4.7587e-06
13230.0 4.559e-06
13250.0 4.3822e-06
13270.0 4.2367e-06
13290.0 4.1162e-06
13310.0 4.0226e-06
13330.0 3.9632e-06
13350.0 3.9356e-06
13370.0 3.9409e-06
13390.0 3.9816e-06
13410.0 4.0498e-06
13430.0 4.1481e-06
13450.0 4.2776e-06
13470.0 4.4273e-06
13490.0 4.5904e-06
13510.0 4.7799e-06
13530.0 4.9762e-06
13550.0 5.1676e-06
13570.0 5.3601e-06
13590.0 5.5515e-06
13610.0 5.7247e-06
13630.0 5.8786e-06
13650.0 6.0222e-06
13670.0 6.1443e-06
13690.0 6.2409e-06
13710.0 6.3182e-06
13730.0 6.3769e-06
13750.0 6.4096e-06
13770.0 6.4227e-06
13790.0 6.4175e-06
13810.0 6.3936e-06
13830.0 6.3542e-06
13850.0 6.2989e-06
13870.0 6.2276e-06
13890.0 6.145e-06
13910.0 6.0514e-06
13930.0 5.9433e-06
13950.0 5.8254e-06
13970.0 5.705e-06
13990.0 5.5745e-06
14010.0 5.4365e-06
14030.0 5.2993e-06
14050.0 5.1616e-06
14070.0 5.0169e-06
14090.0 4.8785e-06
14110.0 4.7485e-06
14130.0 4.6224e-06
14150.0 4.5035e-06
14170.0 4.4014e-06
14190.0 4.3123e-06
14210.0 4.2357e-06
14230.0 4.1774e-06
14250.0 4.1379e-06
14270.0 4.1157e-06
14290.0 4.1137e-06
14310.0 4.1305e-06
14330.0 4.1654e-06
14350.0 4.2195e-06
14370.0 4.2891e-06
14390.0 4.3702e-06
14410.0 4.4674e-06
14430.0 4.5763e-06
14450.0 4.6895e-06
14470.0 4.8091e-06
14490.0 4.9384e-06
14510.0 5.0646e-06
14530.0 5.1867e-06
14550.0 5.3109e-06
14570.0 5.4324e-06
14590.0 5.5452e-06
14610.0 5.6561e-06
14630.0 5.7673e-06
14650.0 5.8724e-06
14670.0 5.9747e-06
14690.0 6.0814e-06
14710.0 6.1935e-06
14730.0 6.3052e-06
14750.0 6.428e-06
14770.0 6.5658e-06
14790.0 6.7142e-06
14810.0 6.8741e-06
14830.0 7.0616e-06
14850.0 7.2646e-06
14870.0 7.4759e-06
14890.0 7.7031e-06
14910.0 7.9439e-06
14930.0 8.176e-06
14950.0 8.3937e-06
14970.0 8.6005e-06
14990.0 8.776e-06
15010.0 8.9131e-06
15030.0 9.0179e-06
15050.0 9.0914e-06
15070.0 9.1336e-06
15090.0 9.1566e-06
15110.0 9.1661e-06
15130.0 9.1671e-06
15150.0 9.1642e-06
15170.0 9.1586e-06
15190.0 9.1517e-06
15210.0 9.1452e-06
15230.0 9.1388e-06
15250.0 9.1318e-06
15270.0 9.1251e-06
15290.0 9.1196e-06
15310.0 9.1136e-06
15330.0 9.1074e-06
15350.0 9.1021e-06
15370.0 9.097e-06
15390.0 9.091e-06
15410.0 9.0856e-06
15430.0 9.081e-06
15450.0 9.0758e-06
15470.0 9.0704e-06
15490.0 9.066e-06
15510.0 9.0617e-06
15530.0 9.0567e-06
15550.0 9.0521e-06
15570.0 9.0482e-06
15590.0 9.0434e-06
15610.0 9.0384e-06
15630.0 9.0345e-06
15650.0 9.0304e-06
15670.0 9.0256e-06
15690.0 9.0214e-06
15710.0 9.0177e-06
15730.0 9.0132e-06
15750.0 9.0085e-06
15770.0 9.0046e-06
15790.0 9.0005e-06
15810.0 8.9953e-06
15830.0 8.9909e-06
15850.0 8.987e-06
15870.0 8.9823e-06
15890.0 8.9775e-06
15910.0 8.9734e-06
15930.0 8.9688e-06
15950.0 8.9634e-06
15970.0 8.9586e-06
15990.0 8.954e-06
16010.0 8.9486e-06
16030.0 8.9428e-06
16050.0 8.9382e-06
16070.0 8.933e-06
16090.0 8.927e-06
16110.0 8.9215e-06
16130.0 8.9163e-06
16150.0 8.9096e-06
16170.0 8.9032e-06
16190.0 8.8974e-06
16210.0 8.891e-06
16230.0 8.8838e-06
16250.0 8.8773e-06
16270.0 8.871e-06
16290.0 8.8634e-06
16310.0 8.8559e-06
16330.0 8.849e-06
16350.0 8.8413e-06
16370.0 8.8324e-06
16390.0 8.8247e-06
16410.0 8.8168e-06
16430.0 8.8079e-06
16450.0 8.799e-06
16470.0 8.7909e-06
16490.0 8.7815e-06
16510.0 8.7715e-06
16530.0 8.7622e-06
16550.0 8.7527e-06
16570.0 8.7419e-06
16590.0 8.7313e-06
16610.0 8.7215e-06
16630.0 8.7106e-06
16650.0 8.6991e-06
16670.0 8.6882e-06
16690.0 8.6771e-06
16710.0 8.6644e-06
16730.0 8.6522e-06
16750.0 8.6404e-06
16770.0 8.6276e-06
16790.0 8.6141e-06
16810.0 8.6016e-06
16830.0 8.5886e-06
16850.0 8.5744e-06
16870.0 8.5605e-06
16890.0 8.547e-06
16910.0 8.5321e-06
16930.0 8.5166e-06
16950.0 8.5022e-06
16970.0 8.4871e-06
16990.0 8.4711e-06
17010.0 8.4554e-06
17030.0 8.44e-06
17050.0 8.4233e-06
17070.0 8.4063e-06
17090.0 8.3899e-06
17110.0 8.3729e-06
17130.0 8.3545e-06
17150.0 8.3369e-06
17170.0 8.3196e-06
17190.0 8.3011e-06
17210.0 8.2823e-06
17230.0 8.2642e-06
17250.0 8.2452e-06
17270.0 8.2252e-06
17290.0 8.2058e-06
17310.0 8.1864e-06
17330.0 8.1659e-06
17350.0 8.145e-06
17370.0 8.1252e-06
17390.0 8.1045e-06
17410.0 8.0829e-06
17430.0 8.0618e-06
17450.0 8.0409e-06
17470.0 8.0181e-06
17490.0 7.9957e-06
17510.0 7.974e-06
17530.0 7.9514e-06
17550.0 7.928e-06
17570.0 7.9053e-06
17590.0 7.8826e-06
17610.0 7.8586e-06
17630.0 7.8347e-06
17650.0 7.8113e-06
17670.0 7.7871e-06
17690.0 7.7616e-06
17710.0 7.7375e-06
17730.0 7.7131e-06
17750.0 7.6877e-06
17770.0 7.6623e-06
17790.0 7.6378e-06
17810.0 7.6118e-06
17830.0 7.5854e-06
17850.0 7.5597e-06
17870.0 7.5338e-06
17890.0 7.5067e-06
17910.0 7.4798e-06
17930.0 7.4539e-06
17950.0 7.4268e-06
17970.0 7.3993e-06
17990.0 7.3725e-06
18010.0 7.3455e-06
18030.0 7.3169e-06
18050.0 7.2891e-06
18070.0 7.2617e-06
18090.0 7.2334e-06
18110.0 7.2045e-06
18130.0 7.1768e-06
18150.0 7.1486e-06
18170.0 7.1194e-06
18190.0 7.0907e-06
18210.0 7.0624e-06
18230.0 7.0329e-06
18250.0 7.003e-06
18270.0 6.9743e-06
18290.0 6.9451e-06
18310.0 6.915e-06
18330.0 6.8856e-06
18350.0 6.8566e-06
18370.0 6.8263e-06
18390.0 6.796e-06
18410.0 6.7664e-06
18430.0 6.7364e-06
18450.0 6.7053e-06
18470.0 6.6752e-06
18490.0 6.6454e-06
18510.0 6.6147e-06
18530.0 6.5839e-06
18550.0 6.5541e-06
18570.0 6.5234e-06
18590.0 6.4918e-06
18610.0 6.4613e-06
18630.0 6.4308e-06
18650.0 6.3995e-06
18670.0 6.368e-06
18690.0 6.3379e-06
18710.0 6.3069e-06
18730.0 6.2753e-06
18750.0 6.2445e-06
18770.0 6.214e-06
18790.0 6.1818e-06
18810.0 6.1504e-06
18830.0 6.1197e-06
18850.0 6.0884e-06
18870.0 6.0566e-06
18890.0 6.0257e-06
18910.0 5.9949e-06
18930.0 5.963e-06
18950.0 5.9316e-06
18970.0 5.9008e-06
18990.0 5.8694e-06
19010.0 5.8369e-06
19030.0 5.8062e-06
19050.0 5.7752e-06
19070.0 5.7435e-06
19090.0 5.7121e-06
19110.0 5.6816e-06
19130.0 5.6499e-06
19150.0 5.6181e-06
19170.0 5.5872e-06
19190.0 5.5563e-06
19210.0 5.5244e-06
19230.0 5.493e-06
19250.0 5.4626e-06
19270.0 5.4313e-06
19290.0 5.3998e-06
19310.0 5.3693e-06
19330.0 5.3386e-06
19350.0 5.3066e-06
19370.0 5.2757e-06
19390.0 5.2453e-06
19410.0 5.2142e-06
19430.0 5.1829e-06
19450.0 5.1528e-06
19470.0 5.1223e-06
19490.0 5.0911e-06
19510.0 5.0606e-06
19530.0 5.0306e-06
19550.0 4.9995e-06
19570.0 4.9684e-06
19590.0 4.9386e-06
19610.0 4.9085e-06
19630.0 4.8777e-06
19650.0 4.8477e-06
19670.0 4.8182e-06
19690.0 4.7876e-06
19710.0 4.7573e-06
19730.0 4.7278e-06
19750.0 4.698e-06
19770.0 4.6673e-06
19790.0 4.6378e-06
19810.0 4.6086e-06
19830.0 4.5786e-06
19850.0 4.5486e-06
19870.0 4.5191e-06
19890.0 4.4881e-06
19910.0 4.4549e-06
19930.0 4.4202e-06
19950.0 4.3819e-06
19970.0 4.3368e-06
19990.0 4.2844e-06
20010.0 3.9494e-06
20030.0 3.8854e-06
20050.0 3.8123e-06
20070.0 3.7342e-06
20090.0 3.6513e-06
20110.0 3.5589e-06
20130.0 3.4662e-06
20150.0 3.3749e-06
20170.0 3.2811e-06
20190.0 3.1865e-06
20210.0 3.0975e-06
20230.0 3.011e-06
20250.0 2.9246e-06
20270.0 2.8445e-06
20290.0 2.7711e-06
20310.0 2.7012e-06
20330.0 2.6357e-06
20350.0 2.5806e-06
20370.0 2.5312e-06
20390.0 2.4872e-06
20410.0 2.4508e-06
20430.0 2.4217e-06
20450.0 2.3976e-06
20470.0 2.3801e-06
20490.0 2.3688e-06
20510.0 2.3627e-06
20530.0 2.3618e-06
20550.0 2.3656e-06
20570.0 2.373e-06
20590.0 2.3846e-06
20610.0 2.3997e-06
20630.0 2.417e-06
20650.0 2.437e-06
20670.0 2.4605e-06
20690.0 2.4847e-06
20710.0 2.51e-06
20730.0 2.5375e-06
20750.0 2.5663e-06
20770.0 2.5944e-06
20790.0 2.6239e-06
20810.0 2.6549e-06
20830.0 2.6855e-06
20850.0 2.7158e-06
20870.0 2.7481e-06
20890.0 2.7806e-06
20910.0 2.8116e-06
20930.0 2.8434e-06
20950.0 2.8762e-06
20970.0 2.9078e-06
20990.0 2.9387e-06
21010.0 2.9711e-06
21030.0 3.0026e-06
21050.0 3.0324e-06
21070.0 3.062e-06
21090.0 3.0917e-06
21110.0 3.1186e-06
21130.0 3.1437e-06
21150.0 3.168e-06
21170.0 3.19e-06
21190.0 3.2088e-06
21210.0 3.2257e-06
21230.0 3.2399e-06
21250.0 3.2498e-06
21270.0 3.256e-06
21290.0 3.2583e-06
21310.0 3.2557e-06
21330.0 3.2483e-06
21350.0 3.2358e-06
21370.0 3.2174e-06
21390.0 3.1938e-06
21410.0 3.1649e-06
21430.0 3.1283e-06
21450.0 3.087e-06
21470.0 3.0417e-06
21490.0 2.9904e-06
21510.0 2.9338e-06
21530.0 2.876e-06
21550.0 2.8152e-06
21570.0 2.7502e-06
21590.0 2.6858e-06
21610.0 2.6233e-06
21630.0 2.5603e-06
21650.0 2.4983e-06
21670.0 2.444e-06
21690.0 2.3933e-06
21710.0 2.347e-06
21730.0 2.3082e-06
21750.0 2.277e-06
21770.0 2.2519e-06
21790.0 2.2353e-06
21810.0 2.227e-06
21830.0 2.2264e-06
21850.0 2.2341e-06
21870.0 2.249e-06
21890.0 2.2699e-06
21910.0 2.2982e-06
21930.0 2.3323e-06
21950.0 2.37e-06
21970.0 2.4125e-06
21990.0 2.4609e-06
22010.0 2.5097e-06
22030.0 2.5597e-06
22050.0 2.6128e-06
22070.0 2.6666e-06
22090.0 2.7179e-06
22110.0 2.77e-06
22130.0 2.8225e-06
22150.0 2.8718e-06
22170.0 2.9185e-06
22190.0 2.9652e-06
22210.0 3.0089e-06
22230.0 3.0473e-06
22250.0 3.0837e-06
22270.0 3.1174e-06
22290.0 3.1462e-06
22310.0 3.1708e-06
22330.0 3.1926e-06
22350.0 3.2093e-06
22370.0 3.221e-06
22390.0 3.2282e-06
22410.0 3.2303e-06
22430.0 3.2269e-06
22450.0 3.2183e-06
22470.0 3.2038e-06
22490.0 3.1837e-06
22510.0 3.1586e-06
22530.0 3.1268e-06
22550.0 3.0882e-06
22570.0 3.0455e-06
22590.0 2.9974e-06
22610.0 2.9421e-06
22630.0 2.8824e-06
22650.0 2.8206e-06
