#lamb flux
1010.0 0.00010632
1030.0 0.00011513
1050.0 0.00012756
1070.0 0.00014155
1090.0 0.00015682
1110.0 0.0001726
1130.0 0.00018859
1150.0 0.00020537
1170.0 0.00022267
1190.0 0.00023895
1210.0 0.00025525
1230.0 0.0002718
1250.0 0.00028776
1270.0 0.00030279
1290.0 0.00031822
1310.0 0.00033309
1330.0 0.00034675
1350.0 0.00036013
1370.0 0.00037363
1390.0 0.00038643
1410.0 0.00039861
1430.0 0.00041146
1450.0 0.00042441
1470.0 0.00043709
1490.0 0.00045032
1510.0 0.00046489
1530.0 0.00047924
1550.0 0.00049408
1570.0 0.00051022
1590.0 0.0005272
1610.0 0.00054445
1630.0 0.00056333
1650.0 0.00058356
1670.0 0.00060424
1690.0 0.00062564
1710.0 0.0006485
1730.0 0.00067223
1750.0 0.00069563
1770.0 0.00071998
1790.0 0.00074498
1810.0 0.00076955
1830.0 0.00079369
1850.0 0.00081846
1870.0 0.00084212
1890.0 0.00086426
1910.0 0.00088554
1930.0 0.00090579
1950.0 0.00092354
1970.0 0.00093921
1990.0 0.00095352
2010.0 0.00096543
2030.0 0.00097458
2050.0 0.00098213
2070.0 0.00098805
2090.0 0.00099109
2110.0 0.00099238
2130.0 0.00099263
2150.0 0.00099131
2170.0 0.00098836
2190.0 0.00098526
2210.0 0.00098182
2230.0 0.00097763
2250.0 0.00097348
2270.0 0.00097027
2290.0 0.00096715
2310.0 0.0009642
2330.0 0.00096254
2350.0 0.00096199
2370.0 0.00096207
2390.0 0.00096357
2410.0 0.00096717
2430.0 0.00097207
2450.0 0.00097858
2470.0 0.0009877
2490.0 0.00099972
2510.0 0.001014
2530.0 0.0010335
2550.0 0.0010624
2570.0 0.0011046
2590.0 0.0011658
2610.0 0.0012615
2630.0 0.0013964
2650.0 0.0015656
2670.0 0.0017726
2690.0 0.0020118
2710.0 0.0022517
2730.0 0.0024743
2750.0 0.002677
2770.0 0.0028357
2790.0 0.0029443
2810.0 0.0030116
2830.0 0.0030421
2850.0 0.003046
2870.0 0.0030357
2890.0 0.0030168
2910.0 0.0029964
2930.0 0.002981
2950.0 0.0029677
2970.0 0.0029587
2990.0 0.0029574
3010.0 0.0039659
3030.0 0.0039781
3050.0 0.0039977
3070.0 0.0040272
3090.0 0.0040584
3110.0 0.004089
3130.0 0.0041183
3150.0 0.0041575
3170.0 0.0041745
3190.0 0.004823
3210.0 0.0076539
3230.0 0.012207
3250.0 0.014468
3270.0 0.013
3290.0 0.010448
3310.0 0.0090774
3330.0 0.008595
3350.0 0.0086682
3370.0 0.0089018
3390.0 0.0091734
3410.0 0.0094218
3430.0 0.0094416
3450.0 0.0095919
3470.0 0.0098006
3490.0 0.010472
3510.0 0.011736
3530.0 0.013222
3550.0 0.015883
3570.0 0.019121
3590.0 0.020832
3610.0 0.02119
3630.0 0.021249
3650.0 0.021507
3670.0 0.023381
3690.0 0.027803
3710.0 0.032615
3730.0 0.035966
3750.0 0.038573
3770.0 0.03871
3790.0 0.036722
3810.0 0.033903
3830.0 0.03009
3850.0 0.027019
3870.0 0.025802
3890.0 0.028674
3910.0 0.034234
3930.0 0.0399
3950.0 0.044428
3970.0 0.046786
3990.0 0.047262
4010.0 0.046604
4030.0 0.041714
4050.0 0.034731
4070.0 0.031022
4090.0 0.031412
4110.0 0.033724
4130.0 0.034837
4150.0 0.035049
4170.0 0.034956
4190.0 0.035435
4210.0 0.035709
4230.0 0.03693
4250.0 0.03803
4270.0 0.038998
4290.0 0.039443
4310.0 0.04022
4330.0 0.04119
4350.0 0.041749
4370.0 0.040352
4390.0 0.037021
4410.0 0.03258
4430.0 0.028414
4450.0 0.025963
4470.0 0.026152
4490.0 0.028222
4510.0 0.031698
4530.0 0.036985
4550.0 0.045154
4570.0 0.054758
4590.0 0.065886
4610.0 0.076928
4630.0 0.083692
4650.0 0.08573
4670.0 0.0845
4690.0 0.078713
4710.0 0.068798
4730.0 0.057544
4750.0 0.048199
4770.0 0.042266
4790.0 0.041066
4810.0 0.042368
4830.0 0.04463
4850.0 0.047799
4870.0 0.051577
4890.0 0.053799
4910.0 0.055903
4930.0 0.060082
4950.0 0.064593
4970.0 0.065807
4990.0 0.062548
5010.0 0.055876
5030.0 0.047806
5050.0 0.041427
5070.0 0.037513
5090.0 0.035624
5110.0 0.035464
5130.0 0.035655
5150.0 0.035581
5170.0 0.035985
5190.0 0.03779
5210.0 0.041719
5230.0 0.047008
5250.0 0.05375
5270.0 0.060942
5290.0 0.066668
5310.0 0.071217
5330.0 0.075596
5350.0 0.078342
5370.0 0.078202
5390.0 0.077111
5410.0 0.077765
5430.0 0.082326
5450.0 0.091089
5470.0 0.10075
5490.0 0.1072
5510.0 0.10954
5530.0 0.10933
5550.0 0.10762
5570.0 0.10495
5590.0 0.10242
5610.0 0.10047
5630.0 0.099135
5650.0 0.096523
5670.0 0.09107
5690.0 0.084769
5710.0 0.079793
5730.0 0.075835
5750.0 0.074691
5770.0 0.076649
5790.0 0.079115
5810.0 0.080331
5830.0 0.08117
5850.0 0.081169
5870.0 0.079895
5890.0 0.079798
5910.0 0.080621
5930.0 0.07878
5950.0 0.073728
5970.0 0.066792
5990.0 0.05971
6010.0 0.054449
6030.0 0.052376
6050.0 0.053906
6070.0 0.056346
6090.0 0.056106
6110.0 0.054633
6130.0 0.055198
6150.0 0.057742
6170.0 0.060178
6190.0 0.061442
6210.0 0.061347
6230.0 0.058879
6250.0 0.053882
6270.0 0.047816
6290.0 0.042947
6310.0 0.041743
6330.0 0.043903
6350.0 0.047014
6370.0 0.050154
6390.0 0.055147
6410.0 0.062159
6430.0 0.067737
6450.0 0.070644
6470.0 0.072614
6490.0 0.074281
6510.0 0.075038
6530.0 0.075402
6550.0 0.076381
6570.0 0.076882
6590.0 0.076541
6610.0 0.074898
6630.0 0.071655
6650.0 0.067106
6670.0 0.062627
6690.0 0.059672
6710.0 0.057476
6730.0 0.055041
6750.0 0.053693
6770.0 0.054565
6790.0 0.055816
6810.0 0.055852
6830.0 0.054887
6850.0 0.053505
6870.0 0.052123
6890.0 0.050945
6910.0 0.051005
6930.0 0.051466
6950.0 0.051508
6970.0 0.051468
6990.0 0.050879
7010.0 0.049355
7030.0 0.046539
7050.0 0.042652
7070.0 0.039649
7090.0 0.039313
7110.0 0.040276
7130.0 0.039781
7150.0 0.038264
7170.0 0.03847
7190.0 0.041041
7210.0 0.044048
7230.0 0.046413
7250.0 0.047676
7270.0 0.046808
7290.0 0.044901
7310.0 0.043698
7330.0 0.044253
7350.0 0.045652
7370.0 0.04665
7390.0 0.048297
7410.0 0.05127
7430.0 0.054209
7450.0 0.056177
7470.0 0.056515
7490.0 0.053852
7510.0 0.050248
7530.0 0.048471
7550.0 0.046265
7570.0 0.044021
7590.0 0.042893
7610.0 0.04258
7630.0 0.043293
7650.0 0.045534
7670.0 0.048541
7690.0 0.051274
7710.0 0.053045
7730.0 0.054462
7750.0 0.055621
7770.0 0.056274
7790.0 0.0569
7810.0 0.056656
7830.0 0.054568
7850.0 0.052238
7870.0 0.050579
7890.0 0.049682
7910.0 0.049298
7930.0 0.047947
7950.0 0.046284
7970.0 0.04444
7990.0 0.042982
8010.0 0.040365
8030.0 0.040093
8050.0 0.039713
8070.0 0.03895
8090.0 0.038312
8110.0 0.037661
8130.0 0.037471
8150.0 0.036993
8170.0 0.036211
8190.0 0.034955
8210.0 0.033339
8230.0 0.031876
8250.0 0.031213
8270.0 0.029459
8290.0 0.02594
8310.0 0.022154
8330.0 0.019581
8350.0 0.018753
8370.0 0.02014
8390.0 0.022421
8410.0 0.0238
8430.0 0.024769
8450.0 0.026413
8470.0 0.028252
8490.0 0.030596
8510.0 0.033195
8530.0 0.035813
8550.0 0.037806
8570.0 0.039203
8590.0 0.040193
8610.0 0.040764
8630.0 0.040508
8650.0 0.039591
8670.0 0.039453
8690.0 0.041093
8710.0 0.043354
8730.0 0.044196
8750.0 0.043556
8770.0 0.043653
8790.0 0.043443
8810.0 0.041566
8830.0 0.038338
8850.0 0.034409
8870.0 0.031453
8890.0 0.030406
8910.0 0.029547
8930.0 0.027475
8950.0 0.025371
8970.0 0.024486
8990.0 0.024519
9010.0 0.024187
9030.0 0.023811
9050.0 0.023597
9070.0 0.023475
9090.0 0.023366
9110.0 0.02326
9130.0 0.023154
9150.0 0.02305
9170.0 0.022945
9190.0 0.022852
9210.0 0.022783
9230.0 0.022668
9250.0 0.022562
9270.0 0.02246
9290.0 0.022362
9310.0 0.022266
9330.0 0.022172
9350.0 0.022081
9370.0 0.021991
9390.0 0.021901
9410.0 0.021813
9430.0 0.021721
9450.0 0.021603
9470.0 0.021496
9490.0 0.02144
9510.0 0.021371
9530.0 0.021299
9550.0 0.021223
9570.0 0.021145
9590.0 0.021068
9610.0 0.020991
9630.0 0.020912
9650.0 0.020835
9670.0 0.020761
9690.0 0.020685
9710.0 0.02061
9730.0 0.020536
9750.0 0.020463
9770.0 0.020388
9790.0 0.020315
9810.0 0.020244
9830.0 0.020171
9850.0 0.020096
9870.0 0.020026
9890.0 0.019955
9910.0 0.019883
9930.0 0.019811
9950.0 0.019688
9970.0 0.019631
9990.0 0.01957
10010.0 0.019509
10030.0 0.019442
10050.0 0.019372
10070.0 0.019303
10090.0 0.019234
10110.0 0.019153
10130.0 0.01905
10150.0 0.018981
10170.0 0.018916
10190.0 0.018841
10210.0 0.01877
10230.0 0.018698
10250.0 0.018618
10270.0 0.018537
10290.0 0.01846
10310.0 0.018377
10330.0 0.018288
10350.0 0.018204
10370.0 0.018121
10390.0 0.01803
10410.0 0.017939
10430.0 0.017854
10450.0 0.017761
10470.0 0.017664
10490.0 0.017571
10510.0 0.017477
10530.0 0.017372
10550.0 0.01727
10570.0 0.017173
10590.0 0.017068
10610.0 0.016958
10630.0 0.016854
10650.0 0.016747
10670.0 0.016631
10690.0 0.016516
10710.0 0.016404
10730.0 0.016284
10750.0 0.016157
10770.0 0.01604
10790.0 0.015918
10810.0 0.015787
10830.0 0.015659
10850.0 0.015534
10870.0 0.015396
10890.0 0.015256
10910.0 0.015121
10930.0 0.014982
10950.0 0.014834
10970.0 0.014688
10990.0 0.014547
11010.0 0.015229
11030.0 0.015072
11050.0 0.014923
11070.0 0.014772
11090.0 0.014612
11110.0 0.014464
11130.0 0.014321
11150.0 0.014173
11170.0 0.014027
11190.0 0.013891
11210.0 0.013754
11230.0 0.013615
11250.0 0.013484
11270.0 0.01336
11290.0 0.013233
11310.0 0.013109
11330.0 0.012997
11350.0 0.012884
11370.0 0.012771
11390.0 0.012662
11410.0 0.012554
11430.0 0.012437
11450.0 0.012319
11470.0 0.012199
11490.0 0.01207
11510.0 0.011929
11530.0 0.011785
11550.0 0.011635
11570.0 0.011469
11590.0 0.011297
11610.0 0.011123
11630.0 0.010936
11650.0 0.010738
11670.0 0.010544
11690.0 0.010347
11710.0 0.010141
11730.0 0.0099348
11750.0 0.0097347
11770.0 0.0095264
11790.0 0.0093146
11810.0 0.0091087
11830.0 0.0089029
11850.0 0.0086869
11870.0 0.0084773
11890.0 0.0082751
11910.0 0.0080689
11930.0 0.0078634
11950.0 0.0076688
11970.0 0.0074771
11990.0 0.0072842
12010.0 0.0071027
12030.0 0.0069322
12050.0 0.0067655
12070.0 0.0066053
12090.0 0.0064633
12110.0 0.0063295
12130.0 0.0062037
12150.0 0.006092
12170.0 0.0059943
12190.0 0.0059049
12210.0 0.0058298
12230.0 0.0057698
12250.0 0.0057223
12270.0 0.0056879
12290.0 0.005667
12310.0 0.0056577
12330.0 0.0056603
12350.0 0.0056736
12370.0 0.0056942
12390.0 0.0057227
12410.0 0.0057607
12430.0 0.0057997
12450.0 0.0058407
12470.0 0.0058857
12490.0 0.0059308
12510.0 0.0059718
12530.0 0.006013
12550.0 0.0060527
12570.0 0.006086
12590.0 0.0061136
12610.0 0.0061374
12630.0 0.0061535
12650.0 0.0061592
12670.0 0.0061574
12690.0 0.0061462
12710.0 0.0061244
12730.0 0.0060926
12750.0 0.0060501
12770.0 0.0059972
12790.0 0.0059357
12810.0 0.0058649
12830.0 0.005785
12850.0 0.0057011
12870.0 0.0056129
12890.0 0.0055189
12910.0 0.0054236
12930.0 0.0053298
12950.0 0.0052337
12970.0 0.0051376
12990.0 0.0050468
13010.0 0.0049583
13030.0 0.0048707
13050.0 0.0047871
13070.0 0.0047086
13090.0 0.004631
13110.0 0.0045559
13130.0 0.0044854
13150.0 0.0044176
13170.0 0.0043503
13190.0 0.0042872
13210.0 0.004228
13230.0 0.0041701
13250.0 0.0041144
13270.0 0.0040625
13290.0 0.0040123
13310.0 0.0039631
13330.0 0.0039167
13350.0 0.0038727
13370.0 0.0038293
13390.0 0.003787
13410.0 0.0037474
13430.0 0.0037084
13450.0 0.0036696
13470.0 0.0036322
13490.0 0.0035961
13510.0 0.0035591
13530.0 0.0035227
13550.0 0.0034876
13570.0 0.0034524
13590.0 0.0034166
13610.0 0.0033817
13630.0 0.0033476
13650.0 0.0033127
13670.0 0.003278
13690.0 0.0032445
13710.0 0.0032108
13730.0 0.0031763
13750.0 0.0031436
13770.0 0.0031116
13790.0 0.0030794
13810.0 0.0030478
13830.0 0.0030179
13850.0 0.002988
13870.0 0.0029584
13890.0 0.0029304
13910.0 0.0029035
13930.0 0.0028767
13950.0 0.0028509
13970.0 0.002827
13990.0 0.0028032
14010.0 0.0027799
14030.0 0.0027577
14050.0 0.0027362
14070.0 0.002714
14090.0 0.0026925
14110.0 0.0026716
14130.0 0.0026505
14150.0 0.0026292
14170.0 0.0026089
14190.0 0.0025891
14210.0 0.0025691
14230.0 0.00255
14250.0 0.0025324
14270.0 0.0025151
14290.0 0.0024987
14310.0 0.0024844
14330.0 0.0024713
14350.0 0.0024592
14370.0 0.0024487
14390.0 0.0024397
14410.0 0.0024314
14430.0 0.002424
14450.0 0.0024177
14470.0 0.002412
14490.0 0.0024064
14510.0 0.0024013
14530.0 0.0023967
14550.0 0.0023919
14570.0 0.0023873
14590.0 0.0023832
14610.0 0.0023793
14630.0 0.0023758
14650.0 0.0023735
14670.0 0.0023726
14690.0 0.0023735
14710.0 0.0023771
14730.0 0.0023837
14750.0 0.0023941
14770.0 0.0024092
14790.0 0.0024293
14810.0 0.0024545
14830.0 0.0024875
14850.0 0.002527
14870.0 0.0025717
14890.0 0.0026229
14910.0 0.0026805
14930.0 0.0027392
14950.0 0.0027972
14970.0 0.0028552
14990.0 0.0029075
15010.0 0.0029516
15030.0 0.0029887
15050.0 0.0030188
15070.0 0.0030409
15090.0 0.0030583
15110.0 0.0030725
15130.0 0.0030845
15150.0 0.0030955
15170.0 0.0031061
15190.0 0.0031166
15210.0 0.0031272
15230.0 0.0031379
15250.0 0.0031489
15270.0 0.0031601
15290.0 0.0031715
15310.0 0.0031832
15330.0 0.003195
15350.0 0.0032071
15370.0 0.0032194
15390.0 0.0032319
15410.0 0.0032445
15430.0 0.0032574
15450.0 0.0032705
15470.0 0.0032838
15490.0 0.0032973
15510.0 0.003311
15530.0 0.0033248
15550.0 0.0033389
15570.0 0.0033531
15590.0 0.0033675
15610.0 0.0033821
15630.0 0.0033968
15650.0 0.0034117
15670.0 0.0034268
15690.0 0.003442
15710.0 0.0034574
15730.0 0.0034729
15750.0 0.0034886
15770.0 0.0035044
15790.0 0.0035204
15810.0 0.0035364
15830.0 0.0035527
15850.0 0.003569
15870.0 0.0035854
15890.0 0.003602
15910.0 0.0036187
15930.0 0.0036355
15950.0 0.0036523
15970.0 0.0036693
15990.0 0.0036864
16010.0 0.0037035
16030.0 0.0037207
16050.0 0.003738
16070.0 0.0037554
16090.0 0.0037728
16110.0 0.0037902
16130.0 0.0038078
16150.0 0.0038253
16170.0 0.0038429
16190.0 0.0038605
16210.0 0.0038782
16230.0 0.0038959
16250.0 0.0039135
16270.0 0.0039312
16290.0 0.0039489
16310.0 0.0039666
16330.0 0.0039843
16350.0 0.0040019
16370.0 0.0040195
16390.0 0.0040372
16410.0 0.0040547
16430.0 0.0040722
16450.0 0.0040897
16470.0 0.0041071
16490.0 0.0041244
16510.0 0.0041417
16530.0 0.0041588
16550.0 0.0041759
16570.0 0.0041929
16590.0 0.0042098
16610.0 0.0042266
16630.0 0.0042433
16650.0 0.0042599
16670.0 0.0042763
16690.0 0.0042926
16710.0 0.0043087
16730.0 0.0043247
16750.0 0.0043406
16770.0 0.0043563
16790.0 0.0043718
16810.0 0.0043871
16830.0 0.0044023
16850.0 0.0044173
16870.0 0.0044321
16890.0 0.0044467
16910.0 0.004461
16930.0 0.0044752
16950.0 0.0044891
16970.0 0.0045028
16990.0 0.0045163
17010.0 0.0045295
17030.0 0.0045425
17050.0 0.0045553
17070.0 0.0045677
17090.0 0.00458
17110.0 0.0045919
17130.0 0.0046036
17150.0 0.004615
17170.0 0.0046261
17190.0 0.0046369
17210.0 0.0046474
17230.0 0.0046577
17250.0 0.0046676
17270.0 0.0046772
17290.0 0.0046865
17310.0 0.0046955
17330.0 0.0047041
17350.0 0.0047124
17370.0 0.0047204
17390.0 0.0047281
17410.0 0.0047354
17430.0 0.0047424
17450.0 0.004749
17470.0 0.0047553
17490.0 0.0047612
17510.0 0.0047668
17530.0 0.004772
17550.0 0.0047769
17570.0 0.0047814
17590.0 0.0047855
17610.0 0.0047892
17630.0 0.0047926
17650.0 0.0047957
17670.0 0.0047983
17690.0 0.0048005
17710.0 0.0048024
17730.0 0.004804
17750.0 0.0048051
17770.0 0.0048058
17790.0 0.0048062
17810.0 0.0048062
17830.0 0.0048058
17850.0 0.004805
17870.0 0.0048039
17890.0 0.0048023
17910.0 0.0048004
17930.0 0.0047982
17950.0 0.0047955
17970.0 0.0047924
17990.0 0.004789
18010.0 0.0047852
18030.0 0.004781
18050.0 0.0047765
18070.0 0.0047716
18090.0 0.0047663
18110.0 0.0047606
18130.0 0.0047546
18150.0 0.0047482
18170.0 0.0047414
18190.0 0.0047343
18210.0 0.0047269
18230.0 0.0047191
18250.0 0.0047109
18270.0 0.0047024
18290.0 0.0046935
18310.0 0.0046843
18330.0 0.0046748
18350.0 0.004665
18370.0 0.0046548
18390.0 0.0046442
18410.0 0.0046334
18430.0 0.0046222
18450.0 0.0046107
18470.0 0.004599
18490.0 0.0045869
18510.0 0.0045745
18530.0 0.0045618
18550.0 0.0045488
18570.0 0.0045356
18590.0 0.004522
18610.0 0.0045082
18630.0 0.0044941
18650.0 0.0044797
18670.0 0.0044651
18690.0 0.0044502
18710.0 0.004435
18730.0 0.0044196
18750.0 0.004404
18770.0 0.0043881
18790.0 0.004372
18810.0 0.0043557
18830.0 0.0043391
18850.0 0.0043224
18870.0 0.0043054
18890.0 0.0042882
18910.0 0.0042708
18930.0 0.0042532
18950.0 0.0042354
18970.0 0.0042175
18990.0 0.0041993
19010.0 0.004181
19030.0 0.0041625
19050.0 0.0041439
19070.0 0.004125
19090.0 0.0041061
19110.0 0.004087
19130.0 0.0040677
19150.0 0.0040483
19170.0 0.0040288
19190.0 0.0040092
19210.0 0.0039894
19230.0 0.0039695
19250.0 0.0039495
19270.0 0.0039295
19290.0 0.0039092
19310.0 0.003889
19330.0 0.0038686
19350.0 0.0038481
19370.0 0.0038276
19390.0 0.003807
19410.0 0.0037863
19430.0 0.0037655
19450.0 0.0037447
19470.0 0.0037238
19490.0 0.0037029
19510.0 0.0036819
19530.0 0.0036609
19550.0 0.0036399
19570.0 0.0036188
19590.0 0.0035977
19610.0 0.0035765
19630.0 0.0035554
19650.0 0.0035342
19670.0 0.003513
19690.0 0.0034918
19710.0 0.0034706
19730.0 0.0034494
19750.0 0.0034282
19770.0 0.003407
19790.0 0.0033859
19810.0 0.0033647
19830.0 0.0033434
19850.0 0.0033221
19870.0 0.0033005
19890.0 0.0032783
19910.0 0.0032548
19930.0 0.0032297
19950.0 0.0032018
19970.0 0.0031698
19990.0 0.0031328
20010.0 0.0030915
20030.0 0.0030442
20050.0 0.0029913
20070.0 0.0029354
20090.0 0.0028771
20110.0 0.0028145
20130.0 0.0027525
20150.0 0.002692
20170.0 0.0026312
20190.0 0.0025708
20210.0 0.0025138
20230.0 0.0024584
20250.0 0.0024033
20270.0 0.0023513
20290.0 0.0023024
20310.0 0.0022549
20330.0 0.002209
20350.0 0.0021677
20370.0 0.0021285
20390.0 0.0020911
20410.0 0.0020568
20430.0 0.0020255
20450.0 0.0019957
20470.0 0.0019684
20490.0 0.0019437
20510.0 0.001921
20530.0 0.0018999
20550.0 0.0018808
20570.0 0.0018634
20590.0 0.0018471
20610.0 0.0018321
20630.0 0.001818
20650.0 0.0018047
20670.0 0.001792
20690.0 0.0017796
20710.0 0.0017675
20730.0 0.0017554
20750.0 0.0017431
20770.0 0.0017306
20790.0 0.0017178
20810.0 0.0017044
20830.0 0.0016905
20850.0 0.001676
20870.0 0.0016607
20890.0 0.0016447
20910.0 0.0016282
20930.0 0.0016111
20950.0 0.0015932
20970.0 0.0015749
20990.0 0.0015564
21010.0 0.0015371
21030.0 0.0015177
21050.0 0.0014983
21070.0 0.0014786
21090.0 0.0014586
21110.0 0.0014391
21130.0 0.0014198
21150.0 0.0014003
21170.0 0.0013812
21190.0 0.0013627
21210.0 0.0013443
21230.0 0.001326
21250.0 0.0013084
21270.0 0.0012914
21290.0 0.0012745
21310.0 0.0012582
21330.0 0.0012427
21350.0 0.0012274
21370.0 0.0012127
21390.0 0.0011987
21410.0 0.0011852
21430.0 0.0011721
21450.0 0.0011597
21470.0 0.001148
21490.0 0.0011367
21510.0 0.001126
21530.0 0.0011159
21550.0 0.0011063
21570.0 0.0010971
21590.0 0.0010883
21610.0 0.00108
21630.0 0.0010719
21650.0 0.0010642
21670.0 0.0010567
21690.0 0.0010494
21710.0 0.0010423
21730.0 0.0010354
21750.0 0.0010286
21770.0 0.0010218
21790.0 0.0010151
21810.0 0.0010085
21830.0 0.001002
21850.0 0.00099554
21870.0 0.00098912
21890.0 0.00098276
21910.0 0.00097645
21930.0 0.00097017
21950.0 0.00096393
21970.0 0.00095771
21990.0 0.00095148
22010.0 0.00094525
22030.0 0.000939
22050.0 0.00093268
22070.0 0.00092628
22090.0 0.00091982
22110.0 0.00091325
22130.0 0.00090651
22150.0 0.00089968
22170.0 0.00089274
22190.0 0.00088555
22210.0 0.00087821
22230.0 0.00087082
22250.0 0.00086321
22270.0 0.00085538
22290.0 0.00084748
22310.0 0.00083946
22330.0 0.00083108
22350.0 0.00082257
22370.0 0.00081399
22390.0 0.00080512
22410.0 0.00079587
22430.0 0.00078664
22450.0 0.00077722
22470.0 0.00076737
22490.0 0.00075736
22510.0 0.00074736
22530.0 0.00073689
22550.0 0.00072611
22570.0 0.00071548
22590.0 0.00070474
22610.0 0.00069368
22630.0 0.00068268
22650.0 0.00067203
22670.0 0.00066118
22690.0 0.00065038
22710.0 0.00064001
22730.0 0.00062989
22750.0 0.00061963
22770.0 0.00060998
22790.0 0.00060085
22810.0 0.0005919
22830.0 0.00058328
22850.0 0.00057531
22870.0 0.00056767
22890.0 0.00056025
22910.0 0.00055335
22930.0 0.00054692
22950.0 0.0005407
22970.0 0.00053474
22990.0 0.00052932
23010.0 0.00052408
23030.0 0.00051901
23050.0 0.00051421
23070.0 0.00050967
23090.0 0.00050513
23110.0 0.00050076
23130.0 0.0004966
23150.0 0.0004925
23170.0 0.00048843
23190.0 0.00048451
23210.0 0.00048073
23230.0 0.00047694
23250.0 0.00047323
23270.0 0.00046968
23290.0 0.00046618
23310.0 0.00046268
23330.0 0.00045937
23350.0 0.00045618
23370.0 0.00045304
23390.0 0.00045001
23410.0 0.00044716
23430.0 0.00044438
23450.0 0.00044171
23470.0 0.0004392
23490.0 0.00043683
23510.0 0.00043454
23530.0 0.00043241
23550.0 0.00043046
23570.0 0.00042864
23590.0 0.00042698
23610.0 0.00042552
23630.0 0.00042425
23650.0 0.0004232
23670.0 0.00042241
23690.0 0.00042189
23710.0 0.00042169
23730.0 0.00042189
23750.0 0.00042243
23770.0 0.00042338
23790.0 0.00042488
23810.0 0.00042685
23830.0 0.00042923
23850.0 0.00043231
23870.0 0.00043603
23890.0 0.00044007
23910.0 0.0004446
23930.0 0.00044976
23950.0 0.0004552
23970.0 0.00046065
23990.0 0.00046654
24010.0 0.00047255
24030.0 0.00047832
24050.0 0.00048399
24070.0 0.00048982
24090.0 0.00049513
