#lamb flux
1010.0 1.2271e-05
1030.0 1.3814e-05
1050.0 1.5484e-05
1070.0 1.7375e-05
1090.0 1.9565e-05
1110.0 2.1824e-05
1130.0 2.4117e-05
1150.0 2.6542e-05
1170.0 2.9073e-05
1190.0 3.1523e-05
1210.0 3.4053e-05
1230.0 3.6721e-05
1250.0 3.94e-05
1270.0 4.2084e-05
1290.0 4.4982e-05
1310.0 4.7966e-05
1330.0 5.0933e-05
1350.0 5.4014e-05
1370.0 5.7263e-05
1390.0 6.0529e-05
1410.0 6.3792e-05
1430.0 6.7237e-05
1450.0 7.0745e-05
1470.0 7.4212e-05
1490.0 7.7748e-05
1510.0 8.1469e-05
1530.0 8.5059e-05
1550.0 8.8619e-05
1570.0 9.2269e-05
1590.0 9.5906e-05
1610.0 9.9381e-05
1630.0 0.00010288
1650.0 0.0001064
1670.0 0.00010975
1690.0 0.00011298
1710.0 0.00011621
1730.0 0.00011934
1750.0 0.00012217
1770.0 0.00012494
1790.0 0.00012762
1810.0 0.00013004
1830.0 0.00013226
1850.0 0.00013448
1870.0 0.00013644
1890.0 0.00013814
1910.0 0.00013971
1930.0 0.00014117
1950.0 0.00014233
1970.0 0.00014327
1990.0 0.00014413
2010.0 0.00014477
2030.0 0.00014514
2050.0 0.0001454
2070.0 0.00014553
2090.0 0.00014533
2110.0 0.00014494
2130.0 0.00014442
2150.0 0.00014366
2170.0 0.0001426
2190.0 0.00014143
2210.0 0.00014008
2230.0 0.00013845
2250.0 0.00013662
2270.0 0.0001347
2290.0 0.00013254
2310.0 0.00013014
2330.0 0.00012765
2350.0 0.00012502
2370.0 0.00012218
2390.0 0.00011923
2410.0 0.00011621
2430.0 0.00011299
2450.0 0.00010958
2470.0 0.00010601
2490.0 0.00010226
2510.0 9.8327e-05
2530.0 9.4439e-05
2550.0 9.0901e-05
2570.0 8.8112e-05
2590.0 8.6486e-05
2610.0 8.684e-05
2630.0 8.941e-05
2650.0 9.3758e-05
2670.0 9.9857e-05
2690.0 0.00010723
2710.0 0.00011417
2730.0 0.00011981
2750.0 0.00012413
2770.0 0.00012603
2790.0 0.00012526
2810.0 0.0001223
2830.0 0.00011733
2850.0 0.0001107
2870.0 0.000103
2890.0 9.4474e-05
2910.0 8.5453e-05
2930.0 7.6346e-05
2950.0 6.6984e-05
2970.0 5.7479e-05
2990.0 4.8154e-05
3010.0 8.7653e-05
3030.0 6.6654e-05
3050.0 4.5688e-05
3070.0 2.5319e-05
3090.0 1.9067e-05
3110.0 1.9067e-05
3130.0 1.9067e-05
3150.0 1.9067e-05
3170.0 1.9067e-05
3190.0 1.9067e-05
3210.0 8.0182e-05
3230.0 0.00037416
3250.0 0.00074716
3270.0 0.00081237
3290.0 0.0010047
3310.0 0.00084667
3330.0 0.00087193
3350.0 0.00096458
3370.0 0.0010915
3390.0 0.0012379
3410.0 0.001394
3430.0 0.0015841
3450.0 0.0017848
3470.0 0.0019964
3490.0 0.0021539
3510.0 0.0022334
3530.0 0.0023618
3550.0 0.0024247
3570.0 0.0023616
3590.0 0.0024892
3610.0 0.0023803
3630.0 0.002916
3650.0 0.0033021
3670.0 0.0035427
3690.0 0.0032634
3710.0 0.0025701
3730.0 0.0023308
3750.0 0.0020344
3770.0 0.0018066
3790.0 0.0015822
3810.0 0.0015437
3830.0 0.0018998
3850.0 0.00075086
3870.0 0.0017529
3890.0 0.0021323
3910.0 0.0022656
3930.0 0.0026956
3950.0 0.0029329
3970.0 0.0034884
3990.0 0.0043137
4010.0 0.0030206
4030.0 0.0024352
4050.0 0.002019
4070.0 0.0021817
4090.0 0.003398
4110.0 0.0031444
4130.0 0.0033246
4150.0 0.0031101
4170.0 0.0029781
4190.0 0.002744
4210.0 0.0040799
4230.0 0.0042472
4250.0 0.004567
4270.0 0.0042624
4290.0 0.0043975
4310.0 0.0050183
4330.0 0.005867
4350.0 0.0057467
4370.0 0.0055038
4390.0 0.0048056
4410.0 0.0044614
4430.0 0.0035696
4450.0 0.0030807
4470.0 0.003485
4490.0 0.004216
4510.0 0.0043806
4530.0 0.0046401
4550.0 0.0049537
4570.0 0.0068418
4590.0 0.0099453
4610.0 0.011828
4630.0 0.011801
4650.0 0.011924
4670.0 0.013313
4690.0 0.014634
4710.0 0.011985
4730.0 0.0090981
4750.0 0.0073002
4770.0 0.00661
4790.0 0.006376
4810.0 0.0061028
4830.0 0.0067061
4850.0 0.0076839
4870.0 0.0084687
4890.0 0.0086886
4910.0 0.0078278
4930.0 0.00824
4950.0 0.01029
4970.0 0.012589
4990.0 0.013183
5010.0 0.012094
5030.0 0.0099755
5050.0 0.0075125
5070.0 0.0059435
5090.0 0.0053331
5110.0 0.0052059
5130.0 0.005334
5150.0 0.0053251
5170.0 0.0052151
5190.0 0.0049773
5210.0 0.0048774
5230.0 0.005368
5250.0 0.0059942
5270.0 0.0070986
5290.0 0.0082233
5310.0 0.0085062
5330.0 0.0089862
5350.0 0.0099466
5370.0 0.010618
5390.0 0.0096911
5410.0 0.0085331
5430.0 0.0081479
5450.0 0.0093366
5470.0 0.011652
5490.0 0.013813
5510.0 0.014768
5530.0 0.014524
5550.0 0.013735
5570.0 0.013206
5590.0 0.012735
5610.0 0.012596
5630.0 0.012446
5650.0 0.012323
5670.0 0.01226
5690.0 0.011402
5710.0 0.0095621
5730.0 0.0083279
5750.0 0.0076492
5770.0 0.0077123
5790.0 0.0079896
5810.0 0.0083615
5830.0 0.008504
5850.0 0.008068
5870.0 0.0074336
5890.0 0.0068819
5910.0 0.006959
5930.0 0.007329
5950.0 0.0069216
5970.0 0.0061216
5990.0 0.0051236
6010.0 0.0041338
6030.0 0.0036781
6050.0 0.0038721
6070.0 0.0042165
6090.0 0.0042162
6110.0 0.0037349
6130.0 0.0036961
6150.0 0.0042186
6170.0 0.0049454
6190.0 0.0056033
6210.0 0.0057044
6230.0 0.0055454
6250.0 0.0050925
6270.0 0.0043364
6290.0 0.0036127
6310.0 0.0031497
6330.0 0.0030258
6350.0 0.0031265
6370.0 0.0031484
6390.0 0.0033889
6410.0 0.0041125
6430.0 0.0052105
6450.0 0.0061416
6470.0 0.0064712
6490.0 0.0063444
6510.0 0.0064611
6530.0 0.0067389
6550.0 0.0066795
6570.0 0.0069006
6590.0 0.0069922
6610.0 0.0070863
6630.0 0.0071144
6650.0 0.006808
6670.0 0.0062671
6690.0 0.0055749
6710.0 0.0051147
6730.0 0.0051278
6750.0 0.0053829
6770.0 0.0055819
6790.0 0.0057168
6810.0 0.0057834
6830.0 0.0056636
6850.0 0.005465
6870.0 0.0051368
6890.0 0.0049977
6910.0 0.00475
6930.0 0.004849
6950.0 0.0052089
6970.0 0.0053943
6990.0 0.005552
7010.0 0.0054552
7030.0 0.0050581
7050.0 0.0044509
7070.0 0.0038249
7090.0 0.0034191
7110.0 0.003362
7130.0 0.0034378
7150.0 0.0032039
7170.0 0.0029938
7190.0 0.0031391
7210.0 0.0035261
7230.0 0.0040918
7250.0 0.004446
7270.0 0.0044893
7290.0 0.0041309
7310.0 0.0037553
7330.0 0.0035295
7350.0 0.0035157
7370.0 0.003601
7390.0 0.0037465
7410.0 0.0040852
7430.0 0.004738
7450.0 0.0054382
7470.0 0.0058887
7490.0 0.0059234
7510.0 0.0056349
7530.0 0.0047491
7550.0 0.0042035
7570.0 0.0036806
7590.0 0.0034306
7610.0 0.0036042
7630.0 0.0040411
7650.0 0.0045762
7670.0 0.0050803
7690.0 0.0054198
7710.0 0.005807
7730.0 0.00623
7750.0 0.0066147
7770.0 0.0066195
7790.0 0.0066759
7810.0 0.0068838
7830.0 0.007053
7850.0 0.006911
7870.0 0.0066746
7890.0 0.0065811
7910.0 0.0062781
7930.0 0.0062075
7950.0 0.0059467
7970.0 0.0058636
7990.0 0.0057545
8010.0 0.0060021
8030.0 0.0060774
8050.0 0.0061862
8070.0 0.0061535
8090.0 0.0061576
8110.0 0.0059303
8130.0 0.0059293
8150.0 0.0058479
8170.0 0.0057119
8190.0 0.0056364
8210.0 0.0056803
8230.0 0.0055114
8250.0 0.0053317
8270.0 0.0047564
8290.0 0.003848
8310.0 0.0028765
8330.0 0.0021876
8350.0 0.0020137
8370.0 0.0024027
8390.0 0.0029322
8410.0 0.0032275
8430.0 0.0033919
8450.0 0.0035712
8470.0 0.0037958
8490.0 0.0042486
8510.0 0.004853
8530.0 0.0056523
8550.0 0.0065016
8570.0 0.0072597
8590.0 0.0078677
8610.0 0.0082851
8630.0 0.0084452
8650.0 0.0084494
8670.0 0.0084779
8690.0 0.0088605
8710.0 0.0093195
8730.0 0.0096912
8750.0 0.009655
8770.0 0.0097836
8790.0 0.0097313
8810.0 0.009126
8830.0 0.0087284
8850.0 0.0081458
8870.0 0.0076753
8890.0 0.0074787
8910.0 0.0075633
8930.0 0.0071825
8950.0 0.0068061
8970.0 0.0066632
8990.0 0.0065888
9010.0 0.006355
9030.0 0.0062101
9050.0 0.0061645
9070.0 0.0061432
9090.0 0.0061241
9110.0 0.0061057
9130.0 0.0060867
9150.0 0.0060678
9170.0 0.0060449
9190.0 0.006024
9210.0 0.0060389
9230.0 0.0060082
9250.0 0.0059831
9270.0 0.0059606
9290.0 0.00594
9310.0 0.0059198
9330.0 0.0059003
9350.0 0.005882
9370.0 0.0058636
9390.0 0.0058447
9410.0 0.0058264
9430.0 0.0058078
9450.0 0.0057835
9470.0 0.0057612
9490.0 0.0057482
9510.0 0.0057324
9530.0 0.0057157
9550.0 0.0056987
9570.0 0.0056813
9590.0 0.0056635
9610.0 0.0056457
9630.0 0.0056279
9650.0 0.0056101
9670.0 0.0055921
9690.0 0.0055743
9710.0 0.0055565
9730.0 0.0055385
9750.0 0.0055206
9770.0 0.005503
9790.0 0.0054851
9810.0 0.0054671
9830.0 0.0054492
9850.0 0.0054314
9870.0 0.0054133
9890.0 0.0053952
9910.0 0.0053771
9930.0 0.0053582
9950.0 0.0052962
9970.0 0.0052908
9990.0 0.0052829
10010.0 0.0052734
10030.0 0.0052602
10050.0 0.005244
10070.0 0.0052268
10090.0 0.0052101
10110.0 0.0051906
10130.0 0.0051726
10150.0 0.0051539
10170.0 0.0051337
10190.0 0.005112
10210.0 0.0050922
10230.0 0.0050727
10250.0 0.0050515
10270.0 0.0050304
10290.0 0.0050106
10310.0 0.0049891
10330.0 0.004966
10350.0 0.0049447
10370.0 0.0049233
10390.0 0.0049
10410.0 0.0048767
10430.0 0.0048551
10450.0 0.0048315
10470.0 0.0048069
10490.0 0.0047834
10510.0 0.0047597
10530.0 0.0047332
10550.0 0.0047075
10570.0 0.004683
10590.0 0.0046568
10610.0 0.0046294
10630.0 0.0046034
10650.0 0.0045769
10670.0 0.0045478
10690.0 0.0045194
10710.0 0.0044917
10730.0 0.0044622
10750.0 0.0044307
10770.0 0.0044019
10790.0 0.0043719
10810.0 0.0043399
10830.0 0.0043083
10850.0 0.0042778
10870.0 0.0042437
10890.0 0.004209
10910.0 0.0041751
10930.0 0.0041393
10950.0 0.0040999
10970.0 0.0040594
10990.0 0.0040185
11010.0 0.0040298
11030.0 0.0039788
11050.0 0.0039294
11070.0 0.0038794
11090.0 0.0038265
11110.0 0.0037783
11130.0 0.0037325
11150.0 0.0036862
11170.0 0.0036413
11190.0 0.0036001
11210.0 0.0035586
11230.0 0.0035164
11250.0 0.0034764
11270.0 0.0034376
11290.0 0.0033971
11310.0 0.0033566
11330.0 0.0033191
11350.0 0.0032802
11370.0 0.0032401
11390.0 0.0032012
11410.0 0.0031622
11430.0 0.0031196
11450.0 0.0030765
11470.0 0.0030334
11490.0 0.0029874
11510.0 0.0029375
11530.0 0.002888
11550.0 0.0028369
11570.0 0.0027814
11590.0 0.0027246
11610.0 0.0026684
11630.0 0.0026085
11650.0 0.0025462
11670.0 0.0024864
11690.0 0.0024267
11710.0 0.0023652
11730.0 0.0023053
11750.0 0.0022492
11770.0 0.0021923
11790.0 0.0021365
11810.0 0.0020846
11830.0 0.0020348
11850.0 0.0019846
11870.0 0.0019383
11890.0 0.0018955
11910.0 0.0018534
11930.0 0.0018127
11950.0 0.0017754
11970.0 0.0017394
11990.0 0.0017034
12010.0 0.00167
12030.0 0.0016388
12050.0 0.0016081
12070.0 0.0015785
12090.0 0.0015523
12110.0 0.0015275
12130.0 0.001504
12150.0 0.0014833
12170.0 0.0014653
12190.0 0.0014488
12210.0 0.0014353
12230.0 0.001425
12250.0 0.0014174
12270.0 0.0014127
12290.0 0.0014112
12310.0 0.0014127
12330.0 0.0014174
12350.0 0.0014252
12370.0 0.0014357
12390.0 0.0014492
12410.0 0.0014664
12430.0 0.0014854
12450.0 0.0015064
12470.0 0.0015302
12490.0 0.0015557
12510.0 0.0015811
12530.0 0.001608
12550.0 0.0016358
12570.0 0.0016622
12590.0 0.0016871
12610.0 0.0017113
12630.0 0.0017329
12650.0 0.0017505
12670.0 0.0017652
12690.0 0.0017763
12710.0 0.001783
12730.0 0.0017856
12750.0 0.0017842
12770.0 0.0017784
12790.0 0.0017691
12810.0 0.0017563
12830.0 0.00174
12850.0 0.0017219
12870.0 0.0017021
12890.0 0.0016803
12910.0 0.0016579
12930.0 0.0016357
12950.0 0.0016128
12970.0 0.0015898
12990.0 0.0015682
13010.0 0.0015473
13030.0 0.0015263
13050.0 0.0015064
13070.0 0.0014876
13090.0 0.0014686
13110.0 0.0014497
13130.0 0.0014317
13150.0 0.0014139
13170.0 0.0013953
13190.0 0.0013776
13210.0 0.0013606
13230.0 0.0013435
13250.0 0.001327
13270.0 0.0013119
13290.0 0.0012979
13310.0 0.0012849
13330.0 0.0012741
13350.0 0.0012653
13370.0 0.0012585
13390.0 0.0012539
13410.0 0.0012514
13430.0 0.0012506
13450.0 0.0012512
13470.0 0.0012525
13490.0 0.0012541
13510.0 0.0012555
13530.0 0.0012558
13550.0 0.0012546
13570.0 0.0012515
13590.0 0.0012459
13610.0 0.0012379
13630.0 0.0012278
13650.0 0.0012149
13670.0 0.0011999
13690.0 0.0011837
13710.0 0.0011661
13730.0 0.0011468
13750.0 0.0011282
13770.0 0.00111
13790.0 0.0010918
13810.0 0.0010747
13830.0 0.0010595
13850.0 0.0010451
13870.0 0.0010321
13890.0 0.001021
13910.0 0.0010113
13930.0 0.0010027
13950.0 0.00099544
13970.0 0.00098948
13990.0 0.0009842
14010.0 0.00097953
14030.0 0.00097546
14050.0 0.00097168
14070.0 0.00096786
14090.0 0.00096405
14110.0 0.00096011
14130.0 0.00095575
14150.0 0.00095083
14170.0 0.00094559
14190.0 0.00093984
14210.0 0.00093337
14230.0 0.00092653
14250.0 0.00091953
14270.0 0.00091205
14290.0 0.00090438
14310.0 0.00089717
14330.0 0.00089022
14350.0 0.00088354
14370.0 0.0008776
14390.0 0.00087252
14410.0 0.00086803
14430.0 0.00086436
14450.0 0.00086156
14470.0 0.00085948
14490.0 0.00085803
14510.0 0.00085722
14530.0 0.00085691
14550.0 0.00085705
14570.0 0.00085763
14590.0 0.00085857
14610.0 0.00085998
14630.0 0.00086199
14650.0 0.0008645
14670.0 0.00086759
14690.0 0.00087154
14710.0 0.0008764
14730.0 0.00088177
14750.0 0.00088813
14770.0 0.00089564
14790.0 0.00090392
14810.0 0.00091296
14830.0 0.00092378
14850.0 0.00093566
14870.0 0.00094824
14890.0 0.00096212
14910.0 0.00097728
14930.0 0.0009923
14950.0 0.0010068
14970.0 0.0010209
14990.0 0.0010332
15010.0 0.001043
15030.0 0.0010506
15050.0 0.0010559
15070.0 0.001059
15090.0 0.0010605
15110.0 0.001061
15130.0 0.0010609
15150.0 0.0010604
15170.0 0.0010597
15190.0 0.0010589
15210.0 0.001058
15230.0 0.0010572
15250.0 0.0010564
15270.0 0.0010556
15290.0 0.0010548
15310.0 0.0010539
15330.0 0.0010531
15350.0 0.0010523
15370.0 0.0010516
15390.0 0.0010507
15410.0 0.00105
15430.0 0.0010492
15450.0 0.0010484
15470.0 0.0010476
15490.0 0.0010468
15510.0 0.0010461
15530.0 0.0010453
15550.0 0.0010445
15570.0 0.0010438
15590.0 0.001043
15610.0 0.0010423
15630.0 0.0010415
15650.0 0.0010408
15670.0 0.00104
15690.0 0.0010392
15710.0 0.0010385
15730.0 0.0010377
15750.0 0.001037
15770.0 0.0010362
15790.0 0.0010355
15810.0 0.0010347
15830.0 0.0010339
15850.0 0.0010332
15870.0 0.0010324
15890.0 0.0010317
15910.0 0.0010309
15930.0 0.0010301
15950.0 0.0010294
15970.0 0.0010286
15990.0 0.0010278
16010.0 0.001027
16030.0 0.0010262
16050.0 0.0010255
16070.0 0.0010247
16090.0 0.0010239
16110.0 0.0010231
16130.0 0.0010223
16150.0 0.0010215
16170.0 0.0010206
16190.0 0.0010198
16210.0 0.001019
16230.0 0.0010181
16250.0 0.0010173
16270.0 0.0010165
16290.0 0.0010156
16310.0 0.0010147
16330.0 0.0010139
16350.0 0.001013
16370.0 0.0010121
16390.0 0.0010112
16410.0 0.0010103
16430.0 0.0010094
16450.0 0.0010084
16470.0 0.0010075
16490.0 0.0010065
16510.0 0.0010056
16530.0 0.0010046
16550.0 0.0010036
16570.0 0.0010026
16590.0 0.0010016
16610.0 0.0010006
16630.0 0.00099957
16650.0 0.00099852
16670.0 0.00099747
16690.0 0.00099641
16710.0 0.00099531
16730.0 0.00099421
16750.0 0.00099311
16770.0 0.00099198
16790.0 0.00099082
16810.0 0.00098968
16830.0 0.00098851
16850.0 0.00098732
16870.0 0.00098612
16890.0 0.00098491
16910.0 0.00098367
16930.0 0.0009824
16950.0 0.00098115
16970.0 0.00097987
16990.0 0.00097855
17010.0 0.00097724
17030.0 0.00097592
17050.0 0.00097455
17070.0 0.00097318
17090.0 0.00097179
17110.0 0.00097039
17130.0 0.00096895
17150.0 0.0009675
17170.0 0.00096605
17190.0 0.00096456
17210.0 0.00096306
17230.0 0.00096155
17250.0 0.00096001
17270.0 0.00095843
17290.0 0.00095686
17310.0 0.00095527
17330.0 0.00095364
17350.0 0.00095199
17370.0 0.00095035
17390.0 0.00094867
17410.0 0.00094696
17430.0 0.00094525
17450.0 0.00094352
17470.0 0.00094175
17490.0 0.00093996
17510.0 0.00093817
17530.0 0.00093635
17550.0 0.0009345
17570.0 0.00093265
17590.0 0.00093078
17610.0 0.00092887
17630.0 0.00092694
17650.0 0.00092501
17670.0 0.00092305
17690.0 0.00092105
17710.0 0.00091906
17730.0 0.00091704
17750.0 0.000915
17770.0 0.00091293
17790.0 0.00091087
17810.0 0.00090876
17830.0 0.00090663
17850.0 0.0009045
17870.0 0.00090235
17890.0 0.00090016
17910.0 0.00089796
17930.0 0.00089577
17950.0 0.00089353
17970.0 0.00089128
17990.0 0.00088902
18010.0 0.00088674
18030.0 0.00088442
18050.0 0.0008821
18070.0 0.00087977
18090.0 0.00087742
18110.0 0.00087504
18130.0 0.00087266
18150.0 0.00087026
18170.0 0.00086784
18190.0 0.00086541
18210.0 0.00086297
18230.0 0.0008605
18250.0 0.00085801
18270.0 0.00085552
18290.0 0.00085302
18310.0 0.00085049
18330.0 0.00084796
18350.0 0.00084543
18370.0 0.00084286
18390.0 0.00084028
18410.0 0.00083771
18430.0 0.00083511
18450.0 0.00083249
18470.0 0.00082988
18490.0 0.00082726
18510.0 0.00082461
18530.0 0.00082196
18550.0 0.00081931
18570.0 0.00081665
18590.0 0.00081396
18610.0 0.00081127
18630.0 0.00080859
18650.0 0.00080588
18670.0 0.00080316
18690.0 0.00080046
18710.0 0.00079774
18730.0 0.000795
18750.0 0.00079227
18770.0 0.00078954
18790.0 0.00078678
18810.0 0.00078403
18830.0 0.00078128
18850.0 0.00077852
18870.0 0.00077575
18890.0 0.00077299
18910.0 0.00077023
18930.0 0.00076745
18950.0 0.00076467
18970.0 0.0007619
18990.0 0.00075912
19010.0 0.00075633
19030.0 0.00075356
19050.0 0.00075078
19070.0 0.000748
19090.0 0.00074521
19110.0 0.00074245
19130.0 0.00073966
19150.0 0.00073687
19170.0 0.0007341
19190.0 0.00073133
19210.0 0.00072855
19230.0 0.00072578
19250.0 0.00072302
19270.0 0.00072025
19290.0 0.00071749
19310.0 0.00071474
19330.0 0.00071199
19350.0 0.00070922
19370.0 0.00070648
19390.0 0.00070375
19410.0 0.00070101
19430.0 0.00069827
19450.0 0.00069556
19470.0 0.00069284
19490.0 0.00069012
19510.0 0.00068742
19530.0 0.00068473
19550.0 0.00068203
19570.0 0.00067933
19590.0 0.00067666
19610.0 0.000674
19630.0 0.00067133
19650.0 0.00066868
19670.0 0.00066604
19690.0 0.00066339
19710.0 0.00066076
19730.0 0.00065815
19750.0 0.00065554
19770.0 0.00065292
19790.0 0.00065033
19810.0 0.00064775
19830.0 0.00064516
19850.0 0.00064254
19870.0 0.0006399
19890.0 0.00063712
19910.0 0.0006341
19930.0 0.00063074
19950.0 0.00062684
19970.0 0.00062207
19990.0 0.00061628
20010.0 0.0006096
20030.0 0.00060165
20050.0 0.0005925
20070.0 0.0005827
20090.0 0.00057235
20110.0 0.00056105
20130.0 0.00054986
20150.0 0.00053899
20170.0 0.00052803
20190.0 0.00051716
20210.0 0.00050697
20230.0 0.0004971
20250.0 0.00048727
20270.0 0.00047801
20290.0 0.00046932
20310.0 0.00046079
20330.0 0.00045243
20350.0 0.00044487
20370.0 0.00043757
20390.0 0.00043043
20410.0 0.00042374
20430.0 0.00041754
20450.0 0.00041141
20470.0 0.00040564
20490.0 0.00040037
20510.0 0.00039543
20530.0 0.00039074
20550.0 0.00038653
20570.0 0.00038279
20590.0 0.00037933
20610.0 0.00037627
20630.0 0.00037365
20650.0 0.00037139
20670.0 0.00036946
20690.0 0.00036792
20710.0 0.0003667
20730.0 0.00036578
20750.0 0.00036514
20770.0 0.0003647
20790.0 0.00036447
20810.0 0.00036444
20830.0 0.0003645
20850.0 0.00036461
20870.0 0.00036482
20890.0 0.00036503
20910.0 0.00036512
20930.0 0.00036515
20950.0 0.00036507
20970.0 0.00036481
20990.0 0.00036435
21010.0 0.0003637
21030.0 0.0003628
21050.0 0.00036166
21070.0 0.00036026
21090.0 0.00035858
21110.0 0.00035666
21130.0 0.00035453
21150.0 0.00035212
21170.0 0.0003495
21190.0 0.00034675
21210.0 0.00034376
21230.0 0.00034056
21250.0 0.00033733
21270.0 0.00033399
21290.0 0.00033049
21310.0 0.00032695
21330.0 0.0003235
21350.0 0.00031996
21370.0 0.0003164
21390.0 0.00031298
21410.0 0.00030964
21430.0 0.00030628
21450.0 0.00030313
21470.0 0.00030022
21490.0 0.00029744
21510.0 0.00029485
21530.0 0.00029257
21550.0 0.00029053
21570.0 0.00028873
21590.0 0.00028725
21610.0 0.00028607
21630.0 0.00028518
21650.0 0.0002846
21670.0 0.0002843
21690.0 0.00028427
21710.0 0.00028452
21730.0 0.00028499
21750.0 0.00028561
21770.0 0.0002865
21790.0 0.00028752
21810.0 0.00028859
21830.0 0.00028973
21850.0 0.00029097
21870.0 0.00029216
21890.0 0.00029324
21910.0 0.00029433
21930.0 0.00029532
21950.0 0.00029614
21970.0 0.00029685
21990.0 0.00029747
22010.0 0.00029786
22030.0 0.00029808
22050.0 0.00029817
22070.0 0.00029809
22090.0 0.00029783
22110.0 0.00029744
22130.0 0.00029691
22150.0 0.00029625
22170.0 0.00029546
22190.0 0.00029455
22210.0 0.00029352
22230.0 0.0002924
22250.0 0.00029117
22270.0 0.00028982
22290.0 0.00028839
22310.0 0.00028686
22330.0 0.00028517
22350.0 0.00028337
22370.0 0.00028148
22390.0 0.00027942
22410.0 0.00027715
22430.0 0.00027481
22450.0 0.00027233
22470.0 0.00026962
22490.0 0.00026676
22510.0 0.00026382
22530.0 0.00026064
22550.0 0.00025725
22570.0 0.00025386
22590.0 0.00025036
22610.0 0.00024668
22630.0 0.00024298
22650.0 0.00023938
22670.0 0.00023567
22690.0 0.00023195
22710.0 0.0002284
22730.0 0.00022495
22750.0 0.00022144
22770.0 0.00021819
22790.0 0.00021517
22810.0 0.00021224
22830.0 0.00020946
22850.0 0.00020697
22870.0 0.00020463
22890.0 0.0002024
22910.0 0.00020039
22930.0 0.00019858
22950.0 0.00019687
22970.0 0.00019528
22990.0 0.00019388
23010.0 0.00019255
23030.0 0.00019127
23050.0 0.00019007
23070.0 0.00018894
23090.0 0.00018777
23110.0 0.00018662
23130.0 0.00018548
23150.0 0.00018431
23170.0 0.00018307
23190.0 0.00018182
23210.0 0.00018057
23230.0 0.00017923
23250.0 0.00017788
23270.0 0.00017655
23290.0 0.00017519
23310.0 0.0001738
