#lamb flux
1010.0 1.2516e-05
1030.0 1.3417e-05
1050.0 1.4457e-05
1070.0 1.5629e-05
1090.0 1.6961e-05
1110.0 1.8329e-05
1130.0 1.9709e-05
1150.0 2.1156e-05
1170.0 2.2653e-05
1190.0 2.4076e-05
1210.0 2.5523e-05
1230.0 2.7021e-05
1250.0 2.8494e-05
1270.0 2.993e-05
1290.0 3.1451e-05
1310.0 3.2977e-05
1330.0 3.4447e-05
1350.0 3.5939e-05
1370.0 3.7485e-05
1390.0 3.8999e-05
1410.0 4.0477e-05
1430.0 4.2027e-05
1450.0 4.3583e-05
1470.0 4.5096e-05
1490.0 4.6631e-05
1510.0 4.8254e-05
1530.0 4.9803e-05
1550.0 5.1336e-05
1570.0 5.2925e-05
1590.0 5.4518e-05
1610.0 5.6047e-05
1630.0 5.7622e-05
1650.0 5.9236e-05
1670.0 6.0799e-05
1690.0 6.2339e-05
1710.0 6.3932e-05
1730.0 6.5527e-05
1750.0 6.7021e-05
1770.0 6.8548e-05
1790.0 7.0092e-05
1810.0 7.1572e-05
1830.0 7.301e-05
1850.0 7.4519e-05
1870.0 7.5967e-05
1890.0 7.7341e-05
1910.0 7.872e-05
1930.0 8.0109e-05
1950.0 8.1402e-05
1970.0 8.2649e-05
1990.0 8.392e-05
2010.0 8.5137e-05
2030.0 8.6271e-05
2050.0 8.7417e-05
2070.0 8.8569e-05
2090.0 8.9606e-05
2110.0 9.0611e-05
2130.0 9.1629e-05
2150.0 9.2592e-05
2170.0 9.3471e-05
2190.0 9.4376e-05
2210.0 9.5267e-05
2230.0 9.6084e-05
2250.0 9.6878e-05
2270.0 9.7716e-05
2290.0 9.8498e-05
2310.0 9.9216e-05
2330.0 9.9967e-05
2350.0 0.00010072
2370.0 0.00010142
2390.0 0.00010214
2410.0 0.00010291
2430.0 0.00010365
2450.0 0.00010439
2470.0 0.0001052
2490.0 0.00010613
2510.0 0.00010721
2530.0 0.00010883
2550.0 0.00011163
2570.0 0.00011628
2590.0 0.0001236
2610.0 0.00013562
2630.0 0.00015294
2650.0 0.00017471
2670.0 0.00020119
2690.0 0.00023153
2710.0 0.00026167
2730.0 0.00028966
2750.0 0.00031596
2770.0 0.00033827
2790.0 0.00035631
2810.0 0.00037186
2830.0 0.0003863
2850.0 0.00039901
2870.0 0.00041143
2890.0 0.00042451
2910.0 0.00043798
2930.0 0.00045134
2950.0 0.00046567
2970.0 0.00048081
2990.0 0.00049594
3010.0 0.0022425
3030.0 0.0023135
3050.0 0.0023839
3070.0 0.0024465
3090.0 0.0024991
3110.0 0.0025268
3130.0 0.0025119
3150.0 0.0024358
3170.0 0.0022619
3190.0 0.0019872
3210.0 0.0016182
3230.0 0.0012055
3250.0 0.0016187
3270.0 0.0011674
3290.0 0.0021536
3310.0 0.0011042
3330.0 0.0011028
3350.0 0.0012461
3370.0 0.0014197
3390.0 0.0016117
3410.0 0.0018047
3430.0 0.0020084
3450.0 0.0022154
3470.0 0.0024081
3490.0 0.0025492
3510.0 0.0029709
3530.0 0.0036952
3550.0 0.0036281
3570.0 0.0031106
3590.0 0.0040069
3610.0 0.0028467
3630.0 0.0042535
3650.0 0.0048787
3670.0 0.0060229
3690.0 0.0056397
3710.0 0.0039999
3730.0 0.0049217
3750.0 0.0050112
3770.0 0.0054179
3790.0 0.0054201
3810.0 0.005811
3830.0 0.0089252
3850.0 0.011115
3870.0 0.013565
3890.0 0.01344
3910.0 0.012247
3930.0 0.012336
3950.0 0.013161
3970.0 0.013671
3990.0 0.0084628
4010.0 0.0047667
4030.0 0.0085391
4050.0 0.011565
4070.0 0.011901
4090.0 0.0078171
4110.0 0.005193
4130.0 0.0087483
4150.0 0.0092597
4170.0 0.0082523
4190.0 0.0072565
4210.0 0.010453
4230.0 0.0082323
4250.0 0.008538
4270.0 0.0084766
4290.0 0.0078645
4310.0 0.0099928
4330.0 0.011047
4350.0 0.0098451
4370.0 0.0085144
4390.0 0.0099082
4410.0 0.0099117
4430.0 0.0072896
4450.0 0.0062945
4470.0 0.0077702
4490.0 0.0063123
4510.0 0.0090049
4530.0 0.0092983
4550.0 0.01045
4570.0 0.014228
4590.0 0.01472
4610.0 0.013445
4630.0 0.020145
4650.0 0.025215
4670.0 0.024546
4690.0 0.01937
4710.0 0.020013
4730.0 0.02078
4750.0 0.016491
4770.0 0.012839
4790.0 0.0090382
4810.0 0.011476
4830.0 0.013481
4850.0 0.012292
4870.0 0.0069028
4890.0 0.014305
4910.0 0.017466
4930.0 0.01904
4950.0 0.020431
4970.0 0.016359
4990.0 0.018833
5010.0 0.02099
5030.0 0.02146
5050.0 0.019133
5070.0 0.013588
5090.0 0.011135
5110.0 0.010946
5130.0 0.01075
5150.0 0.010797
5170.0 0.009873
5190.0 0.011324
5210.0 0.011563
5230.0 0.012791
5250.0 0.014674
5270.0 0.012637
5290.0 0.013622
5310.0 0.019075
5330.0 0.021598
5350.0 0.018691
5370.0 0.01741
5390.0 0.019766
5410.0 0.022326
5430.0 0.023147
5450.0 0.02425
5470.0 0.025007
5490.0 0.026904
5510.0 0.032198
5530.0 0.033417
5550.0 0.034633
5570.0 0.035669
5590.0 0.034775
5610.0 0.032601
5630.0 0.032093
5650.0 0.033227
5670.0 0.032291
5690.0 0.028064
5710.0 0.027755
5730.0 0.027124
5750.0 0.026998
5770.0 0.023423
5790.0 0.02303
5810.0 0.023842
5830.0 0.025888
5850.0 0.024479
5870.0 0.024356
5890.0 0.02736
5910.0 0.025371
5930.0 0.021575
5950.0 0.020119
5970.0 0.02163
5990.0 0.019409
6010.0 0.017307
6030.0 0.016392
6050.0 0.014941
6070.0 0.012234
6090.0 0.012094
6110.0 0.01485
6130.0 0.016146
6150.0 0.016561
6170.0 0.016433
6190.0 0.016236
6210.0 0.0175
6230.0 0.021029
6250.0 0.019457
6270.0 0.017325
6290.0 0.015508
6310.0 0.013664
6330.0 0.012482
6350.0 0.011403
6370.0 0.011745
6390.0 0.013476
6410.0 0.016575
6430.0 0.019867
6450.0 0.020917
6470.0 0.021776
6490.0 0.025905
6510.0 0.029275
6530.0 0.027993
6550.0 0.026615
6570.0 0.026962
6590.0 0.02674
6610.0 0.027729
6630.0 0.025928
6650.0 0.022756
6670.0 0.021314
6690.0 0.021072
6710.0 0.023781
6730.0 0.021029
6750.0 0.017461
6770.0 0.016168
6790.0 0.017208
6810.0 0.019658
6830.0 0.019696
6850.0 0.017772
6870.0 0.018201
6890.0 0.018062
6910.0 0.01698
6930.0 0.018326
6950.0 0.017305
6970.0 0.016391
6990.0 0.016483
7010.0 0.01694
7030.0 0.016565
7050.0 0.015638
7070.0 0.016215
7090.0 0.014866
7110.0 0.012655
7130.0 0.011367
7150.0 0.011501
7170.0 0.013832
7190.0 0.014414
7210.0 0.013748
7230.0 0.014648
7250.0 0.014725
7270.0 0.014655
7290.0 0.015538
7310.0 0.016546
7330.0 0.015964
7350.0 0.014805
7370.0 0.013686
7390.0 0.01358
7410.0 0.015385
7430.0 0.017512
7450.0 0.018818
7470.0 0.019576
7490.0 0.022199
7510.0 0.022016
7530.0 0.019288
7550.0 0.017743
7570.0 0.015186
7590.0 0.01411
7610.0 0.013667
7630.0 0.012848
7650.0 0.013815
7670.0 0.015453
7690.0 0.01688
7710.0 0.019304
7730.0 0.020166
7750.0 0.020937
7770.0 0.022069
7790.0 0.023677
7810.0 0.023664
7830.0 0.021338
7850.0 0.021381
7870.0 0.020702
7890.0 0.020786
7910.0 0.019508
7930.0 0.019137
7950.0 0.015993
7970.0 0.015868
7990.0 0.015505
8010.0 0.017281
8030.0 0.017248
8050.0 0.018329
8070.0 0.017659
8090.0 0.017739
8110.0 0.01748
8130.0 0.017155
8150.0 0.016039
8170.0 0.015793
8190.0 0.015819
8210.0 0.015985
8230.0 0.014076
8250.0 0.012914
8270.0 0.011414
8290.0 0.0096973
8310.0 0.0084621
8330.0 0.0066209
8350.0 0.005301
8370.0 0.0050526
8390.0 0.0049375
8410.0 0.0052377
8430.0 0.006756
8450.0 0.007393
8470.0 0.0079821
8490.0 0.009307
8510.0 0.010128
8530.0 0.011466
8550.0 0.013569
8570.0 0.014947
8590.0 0.01575
8610.0 0.017613
8630.0 0.020155
8650.0 0.020757
8670.0 0.021221
8690.0 0.021917
8710.0 0.021469
8730.0 0.020719
8750.0 0.019067
8770.0 0.01904
8790.0 0.018729
8810.0 0.017238
8830.0 0.01715
8850.0 0.015567
8870.0 0.01478
8890.0 0.013266
8910.0 0.014853
8930.0 0.013486
8950.0 0.013583
8970.0 0.013906
8990.0 0.013552
9010.0 0.013892
9030.0 0.013188
9050.0 0.013128
9070.0 0.013138
9090.0 0.013145
9110.0 0.013162
9130.0 0.013166
9150.0 0.013163
9170.0 0.013127
9190.0 0.013041
9210.0 0.013245
9230.0 0.013194
9250.0 0.013167
9270.0 0.013146
9290.0 0.013128
9310.0 0.013112
9330.0 0.013097
9350.0 0.013082
9370.0 0.013066
9390.0 0.01305
9410.0 0.013033
9430.0 0.013016
9450.0 0.012997
9470.0 0.012977
9490.0 0.012958
9510.0 0.012937
9530.0 0.012916
9550.0 0.012895
9570.0 0.012874
9590.0 0.012851
9610.0 0.012829
9630.0 0.012807
9650.0 0.012785
9670.0 0.012763
9690.0 0.012741
9710.0 0.012719
9730.0 0.012697
9750.0 0.012675
9770.0 0.012654
9790.0 0.012633
9810.0 0.012612
9830.0 0.012592
9850.0 0.012573
9870.0 0.012553
9890.0 0.012534
9910.0 0.012516
9930.0 0.012498
9950.0 0.012464
9970.0 0.012453
9990.0 0.012442
10010.0 0.01243
10030.0 0.012417
10050.0 0.0124
10070.0 0.012357
10090.0 0.012356
10110.0 0.012354
10130.0 0.012349
10150.0 0.012344
10170.0 0.012337
10190.0 0.012329
10210.0 0.012322
10230.0 0.012316
10250.0 0.01231
10270.0 0.012304
10290.0 0.0123
10310.0 0.012295
10330.0 0.012291
10350.0 0.012289
10370.0 0.012287
10390.0 0.012285
10410.0 0.012284
10430.0 0.012285
10450.0 0.012286
10470.0 0.012286
10490.0 0.012288
10510.0 0.012291
10530.0 0.012293
10550.0 0.012297
10570.0 0.012301
10590.0 0.012306
10610.0 0.01231
10630.0 0.012316
10650.0 0.012322
10670.0 0.012328
10690.0 0.012335
10710.0 0.012343
10730.0 0.01235
10750.0 0.012358
10770.0 0.012367
10790.0 0.012376
10810.0 0.012384
10830.0 0.012393
10850.0 0.012401
10870.0 0.012407
10890.0 0.012407
10910.0 0.012399
10930.0 0.012375
10950.0 0.012326
10970.0 0.012245
10990.0 0.012131
11010.0 0.012387
11030.0 0.01216
11050.0 0.011895
11070.0 0.011588
11090.0 0.011233
11110.0 0.01088
11130.0 0.010527
11150.0 0.010166
11170.0 0.0098162
11190.0 0.0094992
11210.0 0.0091948
11230.0 0.008907
11250.0 0.0086542
11270.0 0.0084304
11290.0 0.0082231
11310.0 0.0080403
11330.0 0.0078877
11350.0 0.0077475
11370.0 0.0076175
11390.0 0.0075001
11410.0 0.0073888
11430.0 0.0072718
11450.0 0.0071541
11470.0 0.0070348
11490.0 0.0069061
11510.0 0.0067649
11530.0 0.0066219
11550.0 0.0064732
11570.0 0.0063122
11590.0 0.0061479
11610.0 0.0059862
11630.0 0.005817
11650.0 0.005644
11670.0 0.0054809
11690.0 0.0053211
11710.0 0.0051603
11730.0 0.0050067
11750.0 0.0048648
11770.0 0.0047234
11790.0 0.0045865
11810.0 0.0044601
11830.0 0.0043395
11850.0 0.0042179
11870.0 0.0041049
11890.0 0.0039995
11910.0 0.0038941
11930.0 0.0037905
11950.0 0.0036932
11970.0 0.003597
11990.0 0.0034985
12010.0 0.0034043
12030.0 0.003314
12050.0 0.0032231
12070.0 0.0031332
12090.0 0.0030525
12110.0 0.0029749
12130.0 0.0029009
12150.0 0.0028357
12170.0 0.0027802
12190.0 0.0027309
12210.0 0.0026935
12230.0 0.0026693
12250.0 0.0026574
12270.0 0.0026593
12290.0 0.0026754
12310.0 0.0027043
12330.0 0.0027477
12350.0 0.0028039
12370.0 0.0028687
12390.0 0.0029432
12410.0 0.003029
12430.0 0.0031147
12450.0 0.0032012
12470.0 0.00329
12490.0 0.0033758
12510.0 0.0034533
12530.0 0.0035271
12550.0 0.0035948
12570.0 0.0036519
12590.0 0.0037
12610.0 0.0037408
12630.0 0.0037722
12650.0 0.0037937
12670.0 0.0038082
12690.0 0.0038152
12710.0 0.0038154
12730.0 0.0038099
12750.0 0.0037983
12770.0 0.003782
12790.0 0.0037619
12810.0 0.0037373
12830.0 0.0037078
12850.0 0.003676
12870.0 0.0036407
12890.0 0.0035998
12910.0 0.0035551
12930.0 0.0035078
12950.0 0.0034539
12970.0 0.0033937
12990.0 0.0033321
13010.0 0.0032663
13030.0 0.0031943
13050.0 0.0031203
13070.0 0.0030474
13090.0 0.0029703
13110.0 0.0028927
13130.0 0.0028196
13150.0 0.0027492
13170.0 0.0026796
13190.0 0.0026183
13210.0 0.0025655
13230.0 0.0025183
13250.0 0.0024791
13270.0 0.0024496
13290.0 0.0024276
13310.0 0.0024127
13330.0 0.0024055
13350.0 0.0024041
13370.0 0.0024072
13390.0 0.0024135
13410.0 0.002421
13430.0 0.0024286
13450.0 0.0024349
13470.0 0.0024386
13490.0 0.0024389
13510.0 0.0024351
13530.0 0.002427
13550.0 0.0024152
13570.0 0.0023998
13590.0 0.0023809
13610.0 0.0023604
13630.0 0.0023394
13650.0 0.002317
13670.0 0.0022951
13690.0 0.002275
13710.0 0.0022558
13730.0 0.0022375
13750.0 0.0022219
13770.0 0.0022079
13790.0 0.0021947
13810.0 0.0021823
13830.0 0.0021707
13850.0 0.0021586
13870.0 0.0021456
13890.0 0.0021321
13910.0 0.0021174
13930.0 0.0021008
13950.0 0.0020829
13970.0 0.0020648
13990.0 0.0020454
14010.0 0.0020255
14030.0 0.0020063
14050.0 0.0019878
14070.0 0.0019696
14090.0 0.0019533
14110.0 0.0019392
14130.0 0.0019268
14150.0 0.0019163
14170.0 0.0019083
14190.0 0.0019022
14210.0 0.0018981
14230.0 0.001896
14250.0 0.0018957
14270.0 0.0018974
14290.0 0.0019014
14310.0 0.0019069
14330.0 0.0019144
14350.0 0.0019241
14370.0 0.0019353
14390.0 0.0019475
14410.0 0.0019617
14430.0 0.001977
14450.0 0.0019923
14470.0 0.0020081
14490.0 0.0020253
14510.0 0.0020417
14530.0 0.0020578
14550.0 0.0020749
14570.0 0.0020928
14590.0 0.0021107
14610.0 0.0021304
14630.0 0.0021533
14650.0 0.0021779
14670.0 0.0022048
14690.0 0.0022363
14710.0 0.0022723
14730.0 0.0023096
14750.0 0.0023515
14770.0 0.0023981
14790.0 0.0024465
14810.0 0.0024959
14830.0 0.0025505
14850.0 0.0026049
14870.0 0.0026566
14890.0 0.0027075
14910.0 0.0027569
14930.0 0.0027996
14950.0 0.0028356
14970.0 0.0028664
14990.0 0.0028885
15010.0 0.0029019
15030.0 0.0029084
15050.0 0.0029085
15070.0 0.0029031
15090.0 0.0028944
15110.0 0.0028832
15130.0 0.0028707
15150.0 0.0028577
15170.0 0.002844
15190.0 0.0028302
15210.0 0.0028165
15230.0 0.0028029
15250.0 0.002789
15270.0 0.0027752
15290.0 0.0027618
15310.0 0.0027482
15330.0 0.0027345
15350.0 0.0027211
15370.0 0.0027078
15390.0 0.0026942
15410.0 0.0026808
15430.0 0.0026676
15450.0 0.0026543
15470.0 0.0026409
15490.0 0.0026279
15510.0 0.0026149
15530.0 0.0026017
15550.0 0.0025887
15570.0 0.002576
15590.0 0.002563
15610.0 0.00255
15630.0 0.0025374
15650.0 0.0025247
15670.0 0.002512
15690.0 0.0024994
15710.0 0.0024871
15730.0 0.0024745
15750.0 0.002462
15770.0 0.0024498
15790.0 0.0024376
15810.0 0.0024252
15830.0 0.0024131
15850.0 0.0024012
15870.0 0.0023891
15890.0 0.0023771
15910.0 0.0023654
15930.0 0.0023536
15950.0 0.0023416
15970.0 0.00233
15990.0 0.0023185
16010.0 0.0023068
16030.0 0.0022952
16050.0 0.0022839
16070.0 0.0022726
16090.0 0.0022612
16110.0 0.00225
16130.0 0.002239
16150.0 0.0022277
16170.0 0.0022165
16190.0 0.0022056
16210.0 0.0021947
16230.0 0.0021837
16250.0 0.002173
16270.0 0.0021624
16290.0 0.0021516
16310.0 0.0021409
16330.0 0.0021304
16350.0 0.0021199
16370.0 0.0021092
16390.0 0.0020989
16410.0 0.0020887
16430.0 0.0020783
16450.0 0.002068
16470.0 0.002058
16490.0 0.0020478
16510.0 0.0020376
16530.0 0.0020276
16550.0 0.0020178
16570.0 0.0020077
16590.0 0.0019977
16610.0 0.0019881
16630.0 0.0019783
16650.0 0.0019685
16670.0 0.0019589
16690.0 0.0019494
16710.0 0.0019396
16730.0 0.00193
16750.0 0.0019207
16770.0 0.0019112
16790.0 0.0019016
16810.0 0.0018924
16830.0 0.0018832
16850.0 0.0018738
16870.0 0.0018646
16890.0 0.0018555
16910.0 0.0018463
16930.0 0.001837
16950.0 0.0018281
16970.0 0.0018191
16990.0 0.00181
17010.0 0.001801
17030.0 0.0017923
17050.0 0.0017833
17070.0 0.0017744
17090.0 0.0017657
17110.0 0.001757
17130.0 0.001748
17150.0 0.0017393
17170.0 0.0017308
17190.0 0.0017221
17210.0 0.0017134
17230.0 0.001705
17250.0 0.0016965
17270.0 0.0016878
17290.0 0.0016794
17310.0 0.001671
17330.0 0.0016625
17350.0 0.001654
17370.0 0.0016458
17390.0 0.0016375
17410.0 0.0016291
17430.0 0.0016209
17450.0 0.0016128
17470.0 0.0016044
17490.0 0.0015961
17510.0 0.0015881
17530.0 0.00158
17550.0 0.0015717
17570.0 0.0015637
17590.0 0.0015558
17610.0 0.0015476
17630.0 0.0015396
17650.0 0.0015318
17670.0 0.0015238
17690.0 0.0015156
17710.0 0.0015078
17730.0 0.0015
17750.0 0.0014921
17770.0 0.0014842
17790.0 0.0014766
17810.0 0.0014687
17830.0 0.0014608
17850.0 0.0014532
17870.0 0.0014455
17890.0 0.0014376
17910.0 0.0014299
17930.0 0.0014225
17950.0 0.0014148
17970.0 0.0014071
17990.0 0.0013996
18010.0 0.0013922
18030.0 0.0013844
18050.0 0.0013769
18070.0 0.0013695
18090.0 0.001362
18110.0 0.0013544
18130.0 0.0013471
18150.0 0.0013398
18170.0 0.0013323
18190.0 0.0013249
18210.0 0.0013177
18230.0 0.0013103
18250.0 0.0013028
18270.0 0.0012957
18290.0 0.0012884
18310.0 0.0012811
18330.0 0.0012739
18350.0 0.0012669
18370.0 0.0012596
18390.0 0.0012523
18410.0 0.0012453
18430.0 0.0012382
18450.0 0.0012309
18470.0 0.0012239
18490.0 0.001217
18510.0 0.0012099
18530.0 0.0012028
18550.0 0.001196
18570.0 0.001189
18590.0 0.0011819
18610.0 0.001175
18630.0 0.0011682
18650.0 0.0011612
18670.0 0.0011543
18690.0 0.0011476
18710.0 0.0011408
18730.0 0.0011339
18750.0 0.0011272
18770.0 0.0011206
18790.0 0.0011136
18810.0 0.0011069
18830.0 0.0011003
18850.0 0.0010936
18870.0 0.0010868
18890.0 0.0010803
18910.0 0.0010738
18930.0 0.0010671
18950.0 0.0010605
18970.0 0.0010541
18990.0 0.0010475
19010.0 0.0010408
19030.0 0.0010344
19050.0 0.001028
19070.0 0.0010215
19090.0 0.0010151
19110.0 0.0010089
19130.0 0.0010024
19150.0 0.00099589
19170.0 0.00098964
19190.0 0.00098338
19210.0 0.00097691
19230.0 0.00097059
19250.0 0.00096452
19270.0 0.00095823
19290.0 0.00095193
19310.0 0.00094585
19330.0 0.00093975
19350.0 0.00093336
19370.0 0.00092723
19390.0 0.00092124
19410.0 0.00091507
19430.0 0.00090887
19450.0 0.00090297
19470.0 0.00089698
19490.0 0.00089084
19510.0 0.00088486
19530.0 0.00087902
19550.0 0.00087293
19570.0 0.00086683
19590.0 0.00086105
19610.0 0.00085518
19630.0 0.00084918
19650.0 0.00084336
19670.0 0.00083768
19690.0 0.00083172
19710.0 0.00082584
19730.0 0.00082016
19750.0 0.0008144
19770.0 0.00080844
19790.0 0.00080276
19810.0 0.00079716
19830.0 0.00079136
19850.0 0.00078555
19870.0 0.00077988
19890.0 0.00077383
19910.0 0.00076724
19930.0 0.0007603
19950.0 0.00075253
19970.0 0.00074319
19990.0 0.00073228
20010.0 0.0007203
20030.0 0.00070629
20050.0 0.00069056
20070.0 0.00067432
20090.0 0.00065768
20110.0 0.00063991
20130.0 0.00062304
20150.0 0.00060737
20170.0 0.00059214
20190.0 0.00057774
20210.0 0.00056506
20230.0 0.0005535
20250.0 0.00054269
20270.0 0.0005334
20290.0 0.00052554
20310.0 0.00051869
20330.0 0.00051295
20350.0 0.00050883
20370.0 0.00050584
20390.0 0.00050402
20410.0 0.0005035
20430.0 0.00050417
20450.0 0.00050614
20470.0 0.00050943
20490.0 0.00051382
20510.0 0.00051941
20530.0 0.00052642
20550.0 0.00053438
20570.0 0.00054299
20590.0 0.0005528
20610.0 0.00056337
20630.0 0.00057409
20650.0 0.00058526
20670.0 0.00059716
20690.0 0.00060846
20710.0 0.00061932
20730.0 0.0006301
20750.0 0.00064033
20770.0 0.00064943
20790.0 0.000658
20810.0 0.00066603
20830.0 0.00067309
20850.0 0.00067939
20870.0 0.00068538
20890.0 0.00069086
20910.0 0.0006957
20930.0 0.00070038
20950.0 0.00070497
20970.0 0.00070926
20990.0 0.00071332
21010.0 0.00071741
21030.0 0.00072119
21050.0 0.00072452
21070.0 0.0007275
21090.0 0.00073004
21110.0 0.00073185
21130.0 0.00073301
21150.0 0.00073349
21170.0 0.00073323
21190.0 0.00073229
21210.0 0.00073064
21230.0 0.00072827
21250.0 0.00072544
21270.0 0.00072214
21290.0 0.00071831
21310.0 0.0007142
21330.0 0.00071006
21350.0 0.00070563
21370.0 0.00070108
21390.0 0.00069671
21410.0 0.00069244
21430.0 0.00068809
21450.0 0.0006841
21470.0 0.00068049
21490.0 0.00067708
21510.0 0.00067397
21530.0 0.00067137
21550.0 0.00066915
21570.0 0.00066729
21590.0 0.00066595
21610.0 0.00066512
21630.0 0.00066479
21650.0 0.00066503
21670.0 0.00066583
21690.0 0.0006672
21710.0 0.00066924
21730.0 0.00067188
21750.0 0.00067503
21770.0 0.00067904
21790.0 0.0006837
21810.0 0.00068883
21830.0 0.00069463
21850.0 0.00070127
21870.0 0.00070832
21890.0 0.00071566
21910.0 0.0007238
21930.0 0.00073238
21950.0 0.00074101
21970.0 0.00075006
21990.0 0.00075977
22010.0 0.00076914
22030.0 0.0007784
22050.0 0.00078787
22070.0 0.00079715
22090.0 0.0008057
22110.0 0.00081406
22130.0 0.00082206
22150.0 0.00082916
22170.0 0.00083541
22190.0 0.00084102
22210.0 0.00084555
22230.0 0.00084879
22250.0 0.00085095
22270.0 0.00085186
22290.0 0.00085142
22310.0 0.00084971
22330.0 0.00084647
22350.0 0.00084183
22370.0 0.00083599
22390.0 0.00082868
22410.0 0.00081975
22430.0 0.00081003
22450.0 0.00079927
22470.0 0.00078706
22490.0 0.00077406
22510.0 0.00076074
22530.0 0.00074619
22550.0 0.00073081
22570.0 0.0007157
22590.0 0.00070034
22610.0 0.00068431
22630.0 0.0006685
22650.0 0.00065346
22670.0 0.00063805
22690.0 0.00062281
22710.0 0.00060849
22730.0 0.00059467
22750.0 0.00058063
22770.0 0.00056777
22790.0 0.00055591
22810.0 0.00054441
22830.0 0.00053358
22850.0 0.00052399
22870.0 0.00051511
22890.0 0.0005068
22910.0 0.00049965
22930.0 0.00049358
22950.0 0.0004883
22970.0 0.00048399
22990.0 0.00048098
23010.0 0.00047892
23030.0 0.00047789
23050.0 0.00047794
23070.0 0.00047897
23090.0 0.0004811
23110.0 0.0004842
23130.0 0.00048806
23150.0 0.00049275
23170.0 0.00049831
23190.0 0.0005043
23210.0 0.00051054
23230.0 0.00051736
23250.0 0.00052435
23270.0 0.00053113
23290.0 0.00053796
23310.0 0.00054486
23330.0 0.00055108
23350.0 0.00055681
23370.0 0.0005622
23390.0 0.00056694
23410.0 0.00057083
23430.0 0.00057412
23450.0 0.00057671
23470.0 0.00057844
23490.0 0.00057939
23510.0 0.00057959
23530.0 0.00057899
23550.0 0.00057771
23570.0 0.00057575
23590.0 0.00057311
23610.0 0.00057003
23630.0 0.00056653
23650.0 0.00056247
23670.0 0.00055824
23690.0 0.00055401
23710.0 0.0005497
23730.0 0.00054547
23750.0 0.00054182
23770.0 0.00053871
23790.0 0.00053625
23810.0 0.0005348
23830.0 0.00053447
