#lamb flux
1010.0 1.2548e-06
1030.0 1.3078e-06
1050.0 1.3693e-06
1070.0 1.4388e-06
1090.0 1.5177e-06
1110.0 1.5991e-06
1130.0 1.6815e-06
1150.0 1.7682e-06
1170.0 1.8581e-06
1190.0 1.9442e-06
1210.0 2.032e-06
1230.0 2.1234e-06
1250.0 2.2139e-06
1270.0 2.3026e-06
1290.0 2.397e-06
1310.0 2.4922e-06
1330.0 2.5848e-06
1350.0 2.6793e-06
1370.0 2.7778e-06
1390.0 2.8751e-06
1410.0 2.971e-06
1430.0 3.0719e-06
1450.0 3.1741e-06
1470.0 3.2743e-06
1490.0 3.3766e-06
1510.0 3.4852e-06
1530.0 3.5898e-06
1550.0 3.694e-06
1570.0 3.8023e-06
1590.0 3.9113e-06
1610.0 4.0167e-06
1630.0 4.1253e-06
1650.0 4.2365e-06
1670.0 4.3446e-06
1690.0 4.4512e-06
1710.0 4.5608e-06
1730.0 4.6702e-06
1750.0 4.7728e-06
1770.0 4.8767e-06
1790.0 4.9809e-06
1810.0 5.0802e-06
1830.0 5.1758e-06
1850.0 5.2746e-06
1870.0 5.3684e-06
1890.0 5.4562e-06
1910.0 5.543e-06
1930.0 5.6291e-06
1950.0 5.7078e-06
1970.0 5.7823e-06
1990.0 5.8573e-06
2010.0 5.9279e-06
2030.0 5.9925e-06
2050.0 6.0574e-06
2070.0 6.1225e-06
2090.0 6.1806e-06
2110.0 6.2371e-06
2130.0 6.2955e-06
2150.0 6.352e-06
2170.0 6.4051e-06
2190.0 6.4624e-06
2210.0 6.5219e-06
2230.0 6.5804e-06
2250.0 6.6417e-06
2270.0 6.7107e-06
2290.0 6.7816e-06
2310.0 6.8546e-06
2330.0 6.9364e-06
2350.0 7.026e-06
2370.0 7.1199e-06
2390.0 7.2232e-06
2410.0 7.34e-06
2430.0 7.464e-06
2450.0 7.5963e-06
2470.0 7.741e-06
2490.0 7.8968e-06
2510.0 8.0603e-06
2530.0 8.2475e-06
2550.0 8.4848e-06
2570.0 8.8079e-06
2590.0 9.2659e-06
2610.0 9.9718e-06
2630.0 1.0988e-05
2650.0 1.2304e-05
2670.0 1.3967e-05
2690.0 1.5968e-05
2710.0 1.811e-05
2730.0 2.0284e-05
2750.0 2.2527e-05
2770.0 2.4691e-05
2790.0 2.6719e-05
2810.0 2.8714e-05
2830.0 3.0762e-05
2850.0 3.2765e-05
2870.0 3.4826e-05
2890.0 3.7026e-05
2910.0 3.933e-05
2930.0 4.168e-05
2950.0 4.419e-05
2970.0 4.6845e-05
2990.0 4.9552e-05
3010.0 9.0746e-05
3030.0 9.5809e-05
3050.0 0.0001009
3070.0 0.00010563
3090.0 0.00010983
3110.0 0.0001126
3130.0 0.00011286
3150.0 0.00010938
3170.0 9.9708e-05
3190.0 8.3464e-05
3210.0 6.0784e-05
3230.0 3.5e-05
3250.0 6.1359e-05
3270.0 2.6522e-05
3290.0 8.8837e-05
3310.0 1.7679e-05
3330.0 1.8037e-05
3350.0 2.7655e-05
3370.0 3.8607e-05
3390.0 5.0223e-05
3410.0 6.1789e-05
3430.0 7.3871e-05
3450.0 8.5913e-05
3470.0 9.695e-05
3490.0 0.00010418
3510.0 0.00012969
3530.0 0.00017763
3550.0 0.00017806
3570.0 0.0001512
3590.0 0.00021668
3610.0 0.00013967
3630.0 0.00022517
3650.0 0.0002556
3670.0 0.00032858
3690.0 0.00031418
3710.0 0.00022421
3730.0 0.0002995
3750.0 0.00031143
3770.0 0.00032084
3790.0 0.00029026
3810.0 0.0002551
3830.0 0.00035272
3850.0 0.00037943
3870.0 0.00047122
3890.0 0.00044474
3910.0 0.00040378
3930.0 0.00043707
3950.0 0.00049191
3970.0 0.00064154
3990.0 0.00051661
4010.0 0.00034136
4030.0 0.00045975
4050.0 0.00050286
4070.0 0.00057141
4090.0 0.00050149
4110.0 0.00034295
4130.0 0.00045212
4150.0 0.00041559
4170.0 0.00044041
4190.0 0.00043825
4210.0 0.0005443
4230.0 0.00038069
4250.0 0.00045489
4270.0 0.00045439
4290.0 0.00045941
4310.0 0.00055957
4330.0 0.00057386
4350.0 0.00044501
4370.0 0.00038536
4390.0 0.00046754
4410.0 0.00047627
4430.0 0.00036805
4450.0 0.0003703
4470.0 0.00042913
4490.0 0.00032025
4510.0 0.0003898
4530.0 0.00042095
4550.0 0.0005628
4570.0 0.0008241
4590.0 0.00080034
4610.0 0.00053554
4630.0 0.00085141
4650.0 0.0012183
4670.0 0.001127
4690.0 0.00066967
4710.0 0.00072357
4730.0 0.00093483
4750.0 0.00083562
4770.0 0.00063286
4790.0 0.0004376
4810.0 0.00063162
4830.0 0.00072855
4850.0 0.00065119
4870.0 0.00023612
4890.0 0.00069902
4910.0 0.00096917
4930.0 0.0010393
4950.0 0.0010252
4970.0 0.00064727
4990.0 0.00074258
5010.0 0.00086289
5030.0 0.0009375
5050.0 0.00092402
5070.0 0.00066849
5090.0 0.00054872
5110.0 0.00051324
5130.0 0.00045777
5150.0 0.00052323
5170.0 0.00045614
5190.0 0.00056488
5210.0 0.00056479
5230.0 0.0006192
5250.0 0.00078674
5270.0 0.00066971
5290.0 0.00065906
5310.0 0.00096368
5330.0 0.0011184
5350.0 0.00094841
5370.0 0.00083043
5390.0 0.00094215
5410.0 0.0011799
5430.0 0.0013016
5450.0 0.0013987
5470.0 0.0014132
5490.0 0.0013895
5510.0 0.0016253
5530.0 0.0016889
5550.0 0.0018103
5570.0 0.0019228
5590.0 0.0019105
5610.0 0.0018155
5630.0 0.0017571
5650.0 0.0017944
5670.0 0.0017804
5690.0 0.001527
5710.0 0.001468
5730.0 0.0014873
5750.0 0.0016241
5770.0 0.0014153
5790.0 0.0013014
5810.0 0.0013231
5830.0 0.0013929
5850.0 0.0012784
5870.0 0.0012892
5890.0 0.0015333
5910.0 0.0014672
5930.0 0.001211
5950.0 0.0010567
5970.0 0.0011317
5990.0 0.0010471
6010.0 0.00098879
6030.0 0.0010122
6050.0 0.00094956
6070.0 0.0007187
6090.0 0.00064647
6110.0 0.00083178
6130.0 0.00095822
6150.0 0.0010084
6170.0 0.00098378
6190.0 0.0009267
6210.0 0.00090807
6230.0 0.0010493
6250.0 0.00096997
6270.0 0.00088708
6290.0 0.0008151
6310.0 0.00077101
6330.0 0.00073365
6350.0 0.00064309
6370.0 0.00063895
6390.0 0.00075722
6410.0 0.00094046
6430.0 0.0010799
6450.0 0.0010184
6470.0 0.00099932
6490.0 0.0012442
6510.0 0.0014235
6530.0 0.0013486
6550.0 0.0012981
6570.0 0.0013181
6590.0 0.0012771
6610.0 0.0013872
6630.0 0.0013062
6650.0 0.0011576
6670.0 0.0010435
6690.0 0.0010104
6710.0 0.0012339
6730.0 0.0011347
6750.0 0.00097697
6770.0 0.00088109
6790.0 0.00092339
6810.0 0.0010212
6830.0 0.00099684
6850.0 0.00090736
6870.0 0.00093709
6890.0 0.00092008
6910.0 0.00086864
6930.0 0.00099512
6950.0 0.00092332
6970.0 0.00086602
6990.0 0.00086507
7010.0 0.00082803
7030.0 0.00077984
7050.0 0.00075221
7070.0 0.00081264
7090.0 0.00077003
7110.0 0.0006682
7130.0 0.00054117
7150.0 0.00049126
7170.0 0.0006505
7190.0 0.00070887
7210.0 0.0006857
7230.0 0.00071363
7250.0 0.00066521
7270.0 0.00063369
7290.0 0.00070038
7310.0 0.00078021
7330.0 0.00076572
7350.0 0.00071888
7370.0 0.00068733
7390.0 0.00072008
7410.0 0.00083929
7430.0 0.00091787
7450.0 0.00097742
7470.0 0.0009611
7490.0 0.00098691
7510.0 0.0009466
7530.0 0.00094583
7550.0 0.0009322
7570.0 0.00082049
7590.0 0.00081156
7610.0 0.00078766
7630.0 0.000733
7650.0 0.00080354
7670.0 0.0008762
7690.0 0.0009503
7710.0 0.0010581
7730.0 0.0011261
7750.0 0.0011756
7770.0 0.0011746
7790.0 0.0012801
7810.0 0.0013199
7830.0 0.00122
7850.0 0.0012274
7870.0 0.0011679
7890.0 0.001218
7910.0 0.0011538
7930.0 0.0011609
7950.0 0.0010301
7970.0 0.0010555
7990.0 0.0010114
8010.0 0.0010102
8030.0 0.0010052
8050.0 0.0010526
8070.0 0.0010146
8090.0 0.0010164
8110.0 0.00098992
8130.0 0.00098861
8150.0 0.00094588
8170.0 0.00091907
8190.0 0.00090704
8210.0 0.00091309
8230.0 0.0008127
8250.0 0.00074377
8270.0 0.00065207
8290.0 0.00054159
8310.0 0.00046168
8330.0 0.00036797
8350.0 0.0003096
8370.0 0.00031917
8390.0 0.00032685
8410.0 0.00034673
8430.0 0.00042195
8450.0 0.00045093
8470.0 0.00047602
8490.0 0.00054463
8510.0 0.00059342
8530.0 0.00068321
8550.0 0.00080703
8570.0 0.00089904
8590.0 0.00096416
8610.0 0.0010512
8630.0 0.0011539
8650.0 0.0011717
8670.0 0.001183
8690.0 0.0012276
8710.0 0.0012143
8730.0 0.0012018
8750.0 0.0011372
8770.0 0.0011371
8790.0 0.0011206
8810.0 0.0010339
8830.0 0.0010311
8850.0 0.00096767
8870.0 0.00092913
8890.0 0.00085066
8910.0 0.00090928
8930.0 0.00083248
8950.0 0.00081735
8970.0 0.00081839
8990.0 0.00079101
9010.0 0.00080337
9030.0 0.00077137
9050.0 0.00076713
9070.0 0.00076616
9090.0 0.00076506
9110.0 0.00076422
9130.0 0.00076287
9150.0 0.00076126
9170.0 0.00075787
9190.0 0.00075163
9210.0 0.00076013
9230.0 0.00075608
9250.0 0.00075316
9270.0 0.00075041
9290.0 0.00074775
9310.0 0.00074518
9330.0 0.0007426
9350.0 0.00073996
9370.0 0.00073729
9390.0 0.00073456
9410.0 0.00073175
9430.0 0.00072885
9450.0 0.00072587
9470.0 0.00072285
9490.0 0.00071984
9510.0 0.00071675
9530.0 0.00071363
9550.0 0.00071044
9570.0 0.00070721
9590.0 0.00070396
9610.0 0.00070068
9630.0 0.00069736
9650.0 0.00069402
9670.0 0.00069068
9690.0 0.00068731
9710.0 0.00068393
9730.0 0.00068055
9750.0 0.00067717
9770.0 0.00067378
9790.0 0.0006704
9810.0 0.00066703
9830.0 0.00066367
9850.0 0.00066032
9870.0 0.00065698
9890.0 0.00065366
9910.0 0.00065036
9930.0 0.00064706
9950.0 0.00064186
9970.0 0.00063921
9990.0 0.00063649
10010.0 0.00063373
10030.0 0.00063085
10050.0 0.00062774
10070.0 0.00062404
10090.0 0.00062136
10110.0 0.00061857
10130.0 0.0006158
10150.0 0.00061305
10170.0 0.00061025
10190.0 0.00060737
10210.0 0.00060464
10230.0 0.00060199
10250.0 0.00059927
10270.0 0.00059662
10290.0 0.00059411
10310.0 0.00059156
10330.0 0.00058899
10350.0 0.00058658
10370.0 0.00058423
10390.0 0.00058185
10410.0 0.00057953
10430.0 0.00057736
10450.0 0.00057516
10470.0 0.00057297
10490.0 0.00057091
10510.0 0.00056891
10530.0 0.00056683
10550.0 0.00056486
10570.0 0.00056302
10590.0 0.00056117
10610.0 0.00055932
10630.0 0.00055762
10650.0 0.00055595
10670.0 0.00055423
10690.0 0.00055261
10710.0 0.00055109
10730.0 0.00054955
10750.0 0.00054799
10770.0 0.00054662
10790.0 0.00054525
10810.0 0.00054386
10830.0 0.00054254
10850.0 0.0005413
10870.0 0.00053989
10890.0 0.00053836
10910.0 0.00053668
10930.0 0.00053456
10950.0 0.00053161
10970.0 0.0005278
10990.0 0.00052304
11010.0 0.0005136
11030.0 0.00050636
11050.0 0.00049801
11070.0 0.00048843
11090.0 0.00047735
11110.0 0.00046632
11130.0 0.00045523
11150.0 0.00044375
11170.0 0.00043243
11190.0 0.00042191
11210.0 0.0004115
11230.0 0.00040124
11250.0 0.00039183
11270.0 0.00038308
11290.0 0.00037453
11310.0 0.00036657
11330.0 0.00035965
11350.0 0.00035307
11370.0 0.00034686
11390.0 0.00034132
11410.0 0.00033624
11430.0 0.00033114
11450.0 0.00032636
11470.0 0.00032187
11490.0 0.00031729
11510.0 0.00031247
11530.0 0.00030776
11550.0 0.00030292
11570.0 0.00029761
11590.0 0.00029208
11610.0 0.00028651
11630.0 0.00028042
11650.0 0.00027388
11670.0 0.00026748
11690.0 0.00026094
11710.0 0.00025405
11730.0 0.00024722
11750.0 0.00024077
11770.0 0.00023415
11790.0 0.00022764
11810.0 0.00022162
11830.0 0.00021589
11850.0 0.00021014
11870.0 0.00020494
11890.0 0.00020027
11910.0 0.00019574
11930.0 0.00019146
11950.0 0.00018766
11970.0 0.00018406
11990.0 0.0001805
12010.0 0.00017725
12030.0 0.00017425
12050.0 0.00017127
12070.0 0.00016835
12090.0 0.00016579
12110.0 0.00016332
12130.0 0.0001609
12150.0 0.00015873
12170.0 0.00015685
12190.0 0.00015506
12210.0 0.00015361
12230.0 0.00015259
12250.0 0.00015194
12270.0 0.00015173
12290.0 0.00015206
12310.0 0.00015291
12330.0 0.00015432
12350.0 0.00015631
12370.0 0.00015879
12390.0 0.00016178
12410.0 0.00016537
12430.0 0.00016919
12450.0 0.00017326
12470.0 0.00017761
12490.0 0.00018207
12510.0 0.00018637
12530.0 0.00019069
12550.0 0.00019492
12570.0 0.00019882
12590.0 0.00020244
12610.0 0.00020584
12630.0 0.00020889
12650.0 0.0002115
12670.0 0.00021382
12690.0 0.00021582
12710.0 0.00021747
12730.0 0.00021881
12750.0 0.00021985
12770.0 0.0002206
12790.0 0.00022109
12810.0 0.00022131
12830.0 0.00022123
12850.0 0.00022097
12870.0 0.00022048
12890.0 0.0002197
12910.0 0.0002187
12930.0 0.00021755
12950.0 0.00021608
12970.0 0.00021433
12990.0 0.00021248
13010.0 0.00021043
13030.0 0.00020806
13050.0 0.00020555
13070.0 0.000203
13090.0 0.00020017
13110.0 0.0001972
13130.0 0.0001943
13150.0 0.00019137
13170.0 0.00018832
13190.0 0.0001855
13210.0 0.00018297
13230.0 0.00018057
13250.0 0.00017847
13270.0 0.0001768
13290.0 0.00017548
13310.0 0.00017449
13330.0 0.00017394
13350.0 0.00017377
13370.0 0.00017388
13390.0 0.00017424
13410.0 0.00017476
13430.0 0.00017534
13450.0 0.00017588
13470.0 0.0001763
13490.0 0.00017651
13510.0 0.00017643
13530.0 0.00017601
13550.0 0.00017527
13570.0 0.00017418
13590.0 0.0001727
13610.0 0.00017098
13630.0 0.00016909
13650.0 0.00016692
13670.0 0.00016466
13690.0 0.00016243
13710.0 0.00016017
13730.0 0.00015784
13750.0 0.00015574
13770.0 0.00015376
13790.0 0.00015184
13810.0 0.00015004
13830.0 0.00014843
13850.0 0.00014686
13870.0 0.00014533
13890.0 0.00014392
13910.0 0.00014256
13930.0 0.00014118
13950.0 0.00013983
13970.0 0.00013857
13990.0 0.0001373
14010.0 0.00013604
14030.0 0.00013486
14050.0 0.00013374
14070.0 0.00013263
14090.0 0.00013164
14110.0 0.00013076
14130.0 0.00012997
14150.0 0.00012928
14170.0 0.00012872
14190.0 0.00012827
14210.0 0.00012794
14230.0 0.00012772
14250.0 0.00012761
14270.0 0.00012763
14290.0 0.00012776
14310.0 0.00012798
14330.0 0.0001283
14350.0 0.00012872
14370.0 0.00012921
14390.0 0.00012971
14410.0 0.00013028
14430.0 0.00013087
14450.0 0.00013142
14470.0 0.00013194
14490.0 0.00013246
14510.0 0.00013289
14530.0 0.00013323
14550.0 0.00013355
14570.0 0.00013382
14590.0 0.00013403
14610.0 0.00013425
14630.0 0.00013452
14650.0 0.00013483
14670.0 0.0001352
14690.0 0.00013572
14710.0 0.00013641
14730.0 0.0001372
14750.0 0.00013821
14770.0 0.00013947
14790.0 0.0001409
14810.0 0.00014248
14830.0 0.00014441
14850.0 0.00014648
14870.0 0.00014859
14890.0 0.00015083
14910.0 0.00015316
14930.0 0.00015529
14950.0 0.00015717
14970.0 0.00015886
14990.0 0.00016011
15010.0 0.00016087
15030.0 0.00016122
15050.0 0.00016119
15070.0 0.00016078
15090.0 0.00016013
15110.0 0.00015933
15130.0 0.00015842
15150.0 0.00015747
15170.0 0.00015648
15190.0 0.00015548
15210.0 0.00015448
15230.0 0.00015347
15250.0 0.00015246
15270.0 0.00015145
15290.0 0.00015045
15310.0 0.00014945
15330.0 0.00014844
15350.0 0.00014744
15370.0 0.00014645
15390.0 0.00014544
15410.0 0.00014444
15430.0 0.00014345
15450.0 0.00014246
15470.0 0.00014147
15490.0 0.00014049
15510.0 0.00013951
15530.0 0.00013853
15550.0 0.00013756
15570.0 0.00013659
15590.0 0.00013562
15610.0 0.00013466
15630.0 0.0001337
15650.0 0.00013275
15670.0 0.0001318
15690.0 0.00013085
15710.0 0.00012992
15730.0 0.00012899
15750.0 0.00012805
15770.0 0.00012713
15790.0 0.00012622
15810.0 0.0001253
15830.0 0.00012439
15850.0 0.00012349
15870.0 0.00012259
15890.0 0.0001217
15910.0 0.00012082
15930.0 0.00011995
15950.0 0.00011907
15970.0 0.0001182
15990.0 0.00011735
16010.0 0.00011649
16030.0 0.00011564
16050.0 0.0001148
16070.0 0.00011397
16090.0 0.00011314
16110.0 0.00011232
16130.0 0.00011151
16150.0 0.00011069
16170.0 0.00010989
16190.0 0.00010909
16210.0 0.00010831
16230.0 0.00010752
16250.0 0.00010675
16270.0 0.00010598
16290.0 0.00010522
16310.0 0.00010446
16330.0 0.00010372
16350.0 0.00010298
16370.0 0.00010223
16390.0 0.00010151
16410.0 0.00010079
16430.0 0.00010007
16450.0 9.9364e-05
16470.0 9.8669e-05
16490.0 9.7973e-05
16510.0 9.7281e-05
16530.0 9.6603e-05
16550.0 9.5931e-05
16570.0 9.5259e-05
16590.0 9.4595e-05
16610.0 9.3947e-05
16630.0 9.3299e-05
16650.0 9.2655e-05
16670.0 9.2024e-05
16690.0 9.1399e-05
16710.0 9.077e-05
16730.0 9.0155e-05
16750.0 8.955e-05
16770.0 8.8946e-05
16790.0 8.8346e-05
16810.0 8.776e-05
16830.0 8.7179e-05
16850.0 8.6598e-05
16870.0 8.6027e-05
16890.0 8.5467e-05
16910.0 8.4905e-05
16930.0 8.4347e-05
16950.0 8.3804e-05
16970.0 8.3265e-05
16990.0 8.2726e-05
17010.0 8.2198e-05
17030.0 8.168e-05
17050.0 8.116e-05
17070.0 8.0646e-05
17090.0 8.0143e-05
17110.0 7.9644e-05
17130.0 7.9143e-05
17150.0 7.8654e-05
17170.0 7.8175e-05
17190.0 7.7695e-05
17210.0 7.722e-05
17230.0 7.6758e-05
17250.0 7.6296e-05
17270.0 7.5834e-05
17290.0 7.5383e-05
17310.0 7.494e-05
17330.0 7.4495e-05
17350.0 7.4055e-05
17370.0 7.3629e-05
17390.0 7.3204e-05
17410.0 7.2779e-05
17430.0 7.2364e-05
17450.0 7.1957e-05
17470.0 7.1544e-05
17490.0 7.1139e-05
17510.0 7.0745e-05
17530.0 7.0352e-05
17550.0 6.996e-05
17570.0 6.9578e-05
17590.0 6.9202e-05
17610.0 6.8824e-05
17630.0 6.8452e-05
17650.0 6.8089e-05
17670.0 6.7727e-05
17690.0 6.7362e-05
17710.0 6.7011e-05
17730.0 6.6664e-05
17750.0 6.6316e-05
17770.0 6.5973e-05
17790.0 6.5641e-05
17810.0 6.5305e-05
17830.0 6.4972e-05
17850.0 6.4648e-05
17870.0 6.4328e-05
17890.0 6.4005e-05
17910.0 6.3688e-05
17930.0 6.3382e-05
17950.0 6.3074e-05
17970.0 6.2767e-05
17990.0 6.247e-05
18010.0 6.2176e-05
18030.0 6.1876e-05
18050.0 6.1586e-05
18070.0 6.1302e-05
18090.0 6.1017e-05
18110.0 6.0734e-05
18130.0 6.046e-05
18150.0 6.0189e-05
18170.0 5.9915e-05
18190.0 5.9647e-05
18210.0 5.9387e-05
18230.0 5.9122e-05
18250.0 5.8859e-05
18270.0 5.8607e-05
18290.0 5.8356e-05
18310.0 5.8103e-05
18330.0 5.7857e-05
18350.0 5.7617e-05
18370.0 5.7373e-05
18390.0 5.7132e-05
18410.0 5.6899e-05
18430.0 5.6666e-05
18450.0 5.643e-05
18470.0 5.6203e-05
18490.0 5.5981e-05
18510.0 5.5756e-05
18530.0 5.5533e-05
18550.0 5.5319e-05
18570.0 5.5103e-05
18590.0 5.4885e-05
18610.0 5.4675e-05
18630.0 5.4469e-05
18650.0 5.4259e-05
18670.0 5.4052e-05
18690.0 5.3855e-05
18710.0 5.3655e-05
18730.0 5.3454e-05
18750.0 5.326e-05
18770.0 5.307e-05
18790.0 5.2873e-05
18810.0 5.2681e-05
18830.0 5.2497e-05
18850.0 5.2311e-05
18870.0 5.2124e-05
18890.0 5.1945e-05
18910.0 5.1767e-05
18930.0 5.1586e-05
18950.0 5.1409e-05
18970.0 5.1237e-05
18990.0 5.1064e-05
19010.0 5.0886e-05
19030.0 5.072e-05
19050.0 5.0555e-05
19070.0 5.0386e-05
19090.0 5.0221e-05
19110.0 5.0063e-05
19130.0 4.9899e-05
19150.0 4.9736e-05
19170.0 4.958e-05
19190.0 4.9425e-05
19210.0 4.9266e-05
19230.0 4.9111e-05
19250.0 4.8963e-05
19270.0 4.881e-05
19290.0 4.8659e-05
19310.0 4.8513e-05
19330.0 4.8368e-05
19350.0 4.8217e-05
19370.0 4.8072e-05
19390.0 4.7932e-05
19410.0 4.7789e-05
19430.0 4.7645e-05
19450.0 4.7509e-05
19470.0 4.7372e-05
19490.0 4.7231e-05
19510.0 4.7096e-05
19530.0 4.6964e-05
19550.0 4.6827e-05
19570.0 4.669e-05
19590.0 4.6562e-05
19610.0 4.6432e-05
19630.0 4.6299e-05
19650.0 4.6172e-05
19670.0 4.6048e-05
19690.0 4.5917e-05
19710.0 4.579e-05
19730.0 4.5667e-05
19750.0 4.5543e-05
19770.0 4.5415e-05
19790.0 4.5294e-05
19810.0 4.5175e-05
19830.0 4.5051e-05
19850.0 4.4926e-05
19870.0 4.4805e-05
19890.0 4.4671e-05
19910.0 4.4518e-05
19930.0 4.4347e-05
19950.0 4.4142e-05
19970.0 4.3874e-05
19990.0 4.3537e-05
20010.0 4.3144e-05
20030.0 4.2657e-05
20050.0 4.208e-05
20070.0 4.1454e-05
20090.0 4.0781e-05
20110.0 4.0021e-05
20130.0 3.9259e-05
20150.0 3.8511e-05
20170.0 3.774e-05
20190.0 3.6964e-05
20210.0 3.6237e-05
20230.0 3.5531e-05
20250.0 3.4826e-05
20270.0 3.4177e-05
20290.0 3.3588e-05
20310.0 3.3032e-05
20330.0 3.2518e-05
20350.0 3.2101e-05
20370.0 3.1743e-05
20390.0 3.1443e-05
20410.0 3.1223e-05
20430.0 3.1079e-05
20450.0 3.1001e-05
20470.0 3.0999e-05
20490.0 3.1067e-05
20510.0 3.1201e-05
20530.0 3.1404e-05
20550.0 3.1661e-05
20570.0 3.1959e-05
20590.0 3.231e-05
20610.0 3.27e-05
20630.0 3.3102e-05
20650.0 3.3526e-05
20670.0 3.3981e-05
20690.0 3.4416e-05
20710.0 3.4835e-05
20730.0 3.525e-05
20750.0 3.5641e-05
20770.0 3.5985e-05
20790.0 3.6301e-05
20810.0 3.6583e-05
20830.0 3.6814e-05
20850.0 3.6999e-05
20870.0 3.7146e-05
20890.0 3.7245e-05
20910.0 3.7299e-05
20930.0 3.7315e-05
20950.0 3.7292e-05
20970.0 3.7237e-05
20990.0 3.7154e-05
21010.0 3.7036e-05
21030.0 3.6895e-05
21050.0 3.6737e-05
21070.0 3.6557e-05
21090.0 3.6353e-05
21110.0 3.6146e-05
21130.0 3.5932e-05
21150.0 3.5703e-05
21170.0 3.5473e-05
21190.0 3.5253e-05
21210.0 3.5027e-05
21230.0 3.4805e-05
21250.0 3.4605e-05
21270.0 3.4421e-05
21290.0 3.4249e-05
21310.0 3.4103e-05
21330.0 3.3988e-05
21350.0 3.3895e-05
21370.0 3.3831e-05
21390.0 3.38e-05
21410.0 3.38e-05
21430.0 3.3832e-05
21450.0 3.3896e-05
21470.0 3.3988e-05
21490.0 3.411e-05
21510.0 3.4261e-05
21530.0 3.4431e-05
21550.0 3.4623e-05
21570.0 3.4843e-05
21590.0 3.5077e-05
21610.0 3.5321e-05
21630.0 3.5585e-05
21650.0 3.587e-05
21670.0 3.6147e-05
21690.0 3.6438e-05
21710.0 3.6746e-05
21730.0 3.7055e-05
21750.0 3.7362e-05
21770.0 3.7694e-05
21790.0 3.8031e-05
21810.0 3.8363e-05
21830.0 3.8705e-05
21850.0 3.9064e-05
21870.0 3.942e-05
21890.0 3.977e-05
21910.0 4.0137e-05
21930.0 4.0507e-05
21950.0 4.0864e-05
21970.0 4.1225e-05
21990.0 4.1597e-05
22010.0 4.1945e-05
22030.0 4.2277e-05
22050.0 4.2605e-05
22070.0 4.2913e-05
22090.0 4.3186e-05
22110.0 4.3439e-05
22130.0 4.3664e-05
22150.0 4.3847e-05
22170.0 4.399e-05
22190.0 4.4093e-05
22210.0 4.4146e-05
22230.0 4.4148e-05
22250.0 4.41e-05
22270.0 4.3995e-05
22290.0 4.384e-05
22310.0 4.3636e-05
22330.0 4.3365e-05
22350.0 4.3045e-05
22370.0 4.2686e-05
22390.0 4.2273e-05
22410.0 4.1799e-05
22430.0 4.131e-05
22450.0 4.0791e-05
22470.0 4.0222e-05
22490.0 3.9634e-05
22510.0 3.905e-05
22530.0 3.8427e-05
22550.0 3.7784e-05
22570.0 3.7167e-05
22590.0 3.6553e-05
22610.0 3.5925e-05
22630.0 3.5318e-05
22650.0 3.4753e-05
22670.0 3.4184e-05
22690.0 3.3633e-05
22710.0 3.3124e-05
