#lamb flux
1010.0 8.3509e-06
1030.0 9.355e-06
1050.0 1.0352e-05
1070.0 1.1478e-05
1090.0 1.2808e-05
1110.0 1.4171e-05
1130.0 1.5547e-05
1150.0 1.6996e-05
1170.0 1.8506e-05
1190.0 1.9966e-05
1210.0 2.1479e-05
1230.0 2.3081e-05
1250.0 2.4693e-05
1270.0 2.6321e-05
1290.0 2.8093e-05
1310.0 2.9932e-05
1330.0 3.1775e-05
1350.0 3.3698e-05
1370.0 3.5732e-05
1390.0 3.7779e-05
1410.0 3.9822e-05
1430.0 4.1969e-05
1450.0 4.4141e-05
1470.0 4.6269e-05
1490.0 4.8415e-05
1510.0 5.0647e-05
1530.0 5.2766e-05
1550.0 5.4832e-05
1570.0 5.6916e-05
1590.0 5.8954e-05
1610.0 6.0852e-05
1630.0 6.2718e-05
1650.0 6.4554e-05
1670.0 6.625e-05
1690.0 6.7836e-05
1710.0 6.9397e-05
1730.0 7.0873e-05
1750.0 7.2149e-05
1770.0 7.3382e-05
1790.0 7.456e-05
1810.0 7.5598e-05
1830.0 7.6533e-05
1850.0 7.7499e-05
1870.0 7.8363e-05
1890.0 7.9127e-05
1910.0 7.9889e-05
1930.0 8.0664e-05
1950.0 8.1352e-05
1970.0 8.2017e-05
1990.0 8.2738e-05
2010.0 8.3436e-05
2030.0 8.4083e-05
2050.0 8.4774e-05
2070.0 8.5496e-05
2090.0 8.6118e-05
2110.0 8.6711e-05
2130.0 8.7309e-05
2150.0 8.7829e-05
2170.0 8.8225e-05
2190.0 8.8593e-05
2210.0 8.8879e-05
2230.0 8.9009e-05
2250.0 8.9022e-05
2270.0 8.8972e-05
2290.0 8.8755e-05
2310.0 8.8358e-05
2330.0 8.787e-05
2350.0 8.7259e-05
2370.0 8.6467e-05
2390.0 8.5554e-05
2410.0 8.4554e-05
2430.0 8.3371e-05
2450.0 8.201e-05
2470.0 8.0509e-05
2490.0 7.8853e-05
2510.0 7.7051e-05
2530.0 7.5289e-05
2550.0 7.3837e-05
2570.0 7.3025e-05
2590.0 7.3214e-05
2610.0 7.5176e-05
2630.0 7.9138e-05
2650.0 8.4726e-05
2670.0 9.1949e-05
2690.0 0.00010035
2710.0 0.00010825
2730.0 0.00011468
2750.0 0.00011937
2770.0 0.000121
2790.0 0.00011922
2810.0 0.00011423
2830.0 0.00010589
2850.0 9.5141e-05
2870.0 8.2569e-05
2890.0 6.8255e-05
2910.0 5.2929e-05
2930.0 3.7439e-05
2950.0 2.1098e-05
2970.0 5.7337e-06
2990.0 5.7337e-06
3010.0 1.1643e-05
3030.0 1.1643e-05
3050.0 1.1643e-05
3070.0 1.1643e-05
3090.0 1.1643e-05
3110.0 1.1643e-05
3130.0 1.1643e-05
3150.0 1.1643e-05
3170.0 1.1643e-05
3190.0 1.1643e-05
3210.0 1.1643e-05
3230.0 0.0004733
3250.0 0.00084312
3270.0 0.00079088
3290.0 0.00073826
3310.0 0.00056117
3330.0 0.00054463
3350.0 0.00060149
3370.0 0.00068628
3390.0 0.00077962
3410.0 0.00087973
3430.0 0.0010117
3450.0 0.0011408
3470.0 0.0012746
3490.0 0.0013237
3510.0 0.0012023
3530.0 0.0011563
3550.0 0.0012795
3570.0 0.001374
3590.0 0.0014891
3610.0 0.0014539
3630.0 0.0017614
3650.0 0.001923
3670.0 0.0020309
3690.0 0.0020178
3710.0 0.0018267
3730.0 0.0018039
3750.0 0.0017136
3770.0 0.001655
3790.0 0.0015587
3810.0 0.0014825
3830.0 0.0015298
3850.0 0.00081062
3870.0 0.0010875
3890.0 0.0012607
3910.0 0.0015499
3930.0 0.0019893
3950.0 0.0021565
3970.0 0.002409
3990.0 0.0028858
4010.0 0.0024469
4030.0 0.0021052
4050.0 0.0015203
4070.0 0.0014328
4090.0 0.0021117
4110.0 0.0021118
4130.0 0.0022987
4150.0 0.002203
4170.0 0.0020861
4190.0 0.0018933
4210.0 0.0025509
4230.0 0.0026938
4250.0 0.0029359
4270.0 0.0027951
4290.0 0.0027555
4310.0 0.0029932
4330.0 0.0035156
4350.0 0.0036694
4370.0 0.0036474
4390.0 0.0033279
4410.0 0.0030704
4430.0 0.0023936
4450.0 0.001949
4470.0 0.0021045
4490.0 0.0024676
4510.0 0.0025688
4530.0 0.0025891
4550.0 0.0026192
4570.0 0.003732
4590.0 0.005586
4610.0 0.0065635
4630.0 0.0066485
4650.0 0.0071693
4670.0 0.008359
4690.0 0.0090609
4710.0 0.0075534
4730.0 0.0057615
4750.0 0.0045132
4770.0 0.0038914
4790.0 0.0035595
4810.0 0.0033745
4830.0 0.0037403
4850.0 0.0044197
4870.0 0.0048463
4890.0 0.0050616
4910.0 0.0047672
4930.0 0.0051542
4950.0 0.0062906
4970.0 0.0073286
4990.0 0.0076003
5010.0 0.0069987
5030.0 0.0058123
5050.0 0.0044768
5070.0 0.0035706
5090.0 0.0032246
5110.0 0.0031742
5130.0 0.0032327
5150.0 0.0032099
5170.0 0.0030184
5190.0 0.0028317
5210.0 0.0027692
5230.0 0.003109
5250.0 0.0036707
5270.0 0.0043474
5290.0 0.004908
5310.0 0.0051976
5330.0 0.0056731
5350.0 0.0062301
5370.0 0.0063864
5390.0 0.0057234
5410.0 0.0050285
5430.0 0.0048658
5450.0 0.0056038
5470.0 0.006827
5490.0 0.007834
5510.0 0.0082134
5530.0 0.0079869
5550.0 0.0075272
5570.0 0.0071757
5590.0 0.0068124
5610.0 0.0065886
5630.0 0.0064578
5650.0 0.0063701
5670.0 0.0061437
5690.0 0.0054702
5710.0 0.0045325
5730.0 0.0039773
5750.0 0.0037364
5770.0 0.0037396
5790.0 0.0037683
5810.0 0.0038072
5830.0 0.0037619
5850.0 0.0034893
5870.0 0.0031959
5890.0 0.003014
5910.0 0.0030118
5930.0 0.0030148
5950.0 0.0027227
5970.0 0.0022966
5990.0 0.0018075
6010.0 0.0014273
6030.0 0.0013178
6050.0 0.0014272
6070.0 0.0015172
6090.0 0.0014464
6110.0 0.0012766
6130.0 0.0013064
6150.0 0.0015199
6170.0 0.0017474
6190.0 0.001918
6210.0 0.0019457
6230.0 0.0019151
6250.0 0.0017489
6270.0 0.0014618
6290.0 0.0012069
6310.0 0.0010711
6330.0 0.0010465
6350.0 0.0010653
6370.0 0.0010797
6390.0 0.0012143
6410.0 0.0015147
6430.0 0.0018693
6450.0 0.0020972
6470.0 0.0021621
6490.0 0.0021473
6510.0 0.0021918
6530.0 0.0022589
6550.0 0.0022479
6570.0 0.0023326
6590.0 0.0023916
6610.0 0.0024323
6630.0 0.0023916
6650.0 0.0022335
6670.0 0.0020378
6690.0 0.0018531
6710.0 0.0017538
6730.0 0.0017322
6750.0 0.0017636
6770.0 0.001812
6790.0 0.0018708
6810.0 0.0019105
6830.0 0.0018741
6850.0 0.0017835
6870.0 0.0016709
6890.0 0.0016333
6910.0 0.0015841
6930.0 0.0016394
6950.0 0.0017371
6970.0 0.0017831
6990.0 0.0018162
7010.0 0.0017642
7030.0 0.0016222
7050.0 0.0014353
7070.0 0.0012807
7090.0 0.0011985
7110.0 0.0011881
7130.0 0.0011596
7150.0 0.0010365
7170.0 0.00098337
7190.0 0.0010759
7210.0 0.0012441
7230.0 0.0014346
7250.0 0.0015186
7270.0 0.0015011
7290.0 0.0013845
7310.0 0.001278
7330.0 0.0012263
7350.0 0.0012298
7370.0 0.001253
7390.0 0.0013125
7410.0 0.0014543
7430.0 0.0016807
7450.0 0.0018976
7470.0 0.0020015
7490.0 0.0019549
7510.0 0.0018484
7530.0 0.0016548
7550.0 0.0015461
7570.0 0.0014176
7590.0 0.0013686
7610.0 0.0014388
7630.0 0.0015917
7650.0 0.0017997
7670.0 0.0020166
7690.0 0.0021864
7710.0 0.0023664
7730.0 0.002555
7750.0 0.0027253
7770.0 0.002749
7790.0 0.0028128
7810.0 0.0029083
7830.0 0.0029416
7850.0 0.002889
7870.0 0.0028387
7890.0 0.0028959
7910.0 0.0028562
7930.0 0.0028514
7950.0 0.0027384
7970.0 0.0026954
7990.0 0.0026304
8010.0 0.0027007
8030.0 0.0027541
8050.0 0.0028048
8070.0 0.002804
8090.0 0.0028163
8110.0 0.0027452
8130.0 0.0027696
8150.0 0.0027621
8170.0 0.0027184
8190.0 0.0026867
8210.0 0.0027013
8230.0 0.0026594
8250.0 0.0026287
8270.0 0.0024037
8290.0 0.0019818
8310.0 0.0015038
8330.0 0.0011729
8350.0 0.0011068
8370.0 0.0013314
8390.0 0.0016281
8410.0 0.0017738
8430.0 0.0018349
8450.0 0.0019449
8470.0 0.0021
8490.0 0.0023705
8510.0 0.0027256
8530.0 0.003153
8550.0 0.0035597
8570.0 0.0039038
8590.0 0.0041771
8610.0 0.0043468
8630.0 0.0043836
8650.0 0.0043692
8670.0 0.0043975
8690.0 0.0046472
8710.0 0.0049744
8730.0 0.0052057
8750.0 0.0052171
8770.0 0.0053202
8790.0 0.0053302
8810.0 0.0050347
8830.0 0.0047701
8850.0 0.0044047
8870.0 0.0041106
8890.0 0.0040278
8910.0 0.0040554
8930.0 0.0038519
8950.0 0.0036143
8970.0 0.0035254
8990.0 0.0035132
9010.0 0.0033875
9030.0 0.0033115
9050.0 0.0032835
9070.0 0.0032706
9090.0 0.0032595
9110.0 0.0032488
9130.0 0.003238
9150.0 0.0032274
9170.0 0.0032154
9190.0 0.0032067
9210.0 0.0032106
9230.0 0.0031944
9250.0 0.0031809
9270.0 0.003169
9290.0 0.0031582
9310.0 0.0031476
9330.0 0.0031375
9350.0 0.0031282
9370.0 0.0031189
9390.0 0.0031094
9410.0 0.0031002
9430.0 0.0030909
9450.0 0.0030775
9470.0 0.0030656
9490.0 0.0030607
9510.0 0.0030537
9530.0 0.0030462
9550.0 0.0030384
9570.0 0.0030304
9590.0 0.0030222
9610.0 0.0030139
9630.0 0.0030057
9650.0 0.0029975
9670.0 0.0029893
9690.0 0.0029812
9710.0 0.0029731
9730.0 0.002965
9750.0 0.0029569
9770.0 0.002949
9790.0 0.0029409
9810.0 0.0029329
9830.0 0.0029248
9850.0 0.0029169
9870.0 0.0029087
9890.0 0.0029006
9910.0 0.0028925
9930.0 0.002884
9950.0 0.0028534
9970.0 0.0028517
9990.0 0.0028487
10010.0 0.002845
10030.0 0.0028393
10050.0 0.002832
10070.0 0.0028244
10090.0 0.0028168
10110.0 0.0028076
10130.0 0.0027988
10150.0 0.0027901
10170.0 0.0027807
10190.0 0.0027705
10210.0 0.0027611
10230.0 0.0027519
10250.0 0.0027416
10270.0 0.0027314
10290.0 0.0027218
10310.0 0.0027112
10330.0 0.0026997
10350.0 0.0026891
10370.0 0.0026785
10390.0 0.0026667
10410.0 0.0026548
10430.0 0.0026438
10450.0 0.0026317
10470.0 0.0026189
10490.0 0.0026067
10510.0 0.0025944
10530.0 0.0025803
10550.0 0.0025667
10570.0 0.0025537
10590.0 0.0025396
10610.0 0.0025248
10630.0 0.0025108
10650.0 0.0024964
10670.0 0.0024804
10690.0 0.0024648
10710.0 0.0024495
10730.0 0.0024331
10750.0 0.0024155
10770.0 0.0023994
10790.0 0.0023825
10810.0 0.0023644
10830.0 0.0023465
10850.0 0.0023292
10870.0 0.0023098
10890.0 0.00229
10910.0 0.0022708
10930.0 0.0022506
10950.0 0.0022287
10970.0 0.0022065
10990.0 0.0021845
11010.0 0.002305
11030.0 0.0022785
11050.0 0.0022527
11070.0 0.0022263
11090.0 0.0021982
11110.0 0.0021724
11130.0 0.0021475
11150.0 0.0021221
11170.0 0.0020972
11190.0 0.0020742
11210.0 0.0020507
11230.0 0.0020268
11250.0 0.002004
11270.0 0.0019818
11290.0 0.0019586
11310.0 0.0019355
11330.0 0.0019139
11350.0 0.0018916
11370.0 0.0018685
11390.0 0.0018458
11410.0 0.0018231
11430.0 0.0017981
11450.0 0.0017727
11470.0 0.001747
11490.0 0.0017195
11510.0 0.0016895
11530.0 0.0016596
11550.0 0.0016285
11570.0 0.0015949
11590.0 0.0015605
11610.0 0.0015264
11630.0 0.0014903
11650.0 0.0014529
11670.0 0.0014171
11690.0 0.0013815
11710.0 0.001345
11730.0 0.0013096
11750.0 0.0012764
11770.0 0.0012429
11790.0 0.0012101
11810.0 0.0011794
11830.0 0.0011499
11850.0 0.00112
11870.0 0.0010922
11890.0 0.0010662
11910.0 0.0010405
11930.0 0.0010154
11950.0 0.0009922
11970.0 0.00096963
11990.0 0.00094707
12010.0 0.00092598
12030.0 0.0009062
12050.0 0.00088683
12070.0 0.00086818
12090.0 0.00085166
12110.0 0.00083609
12130.0 0.00082148
12150.0 0.0008086
12170.0 0.00079747
12190.0 0.00078745
12210.0 0.00077928
12230.0 0.00077303
12250.0 0.00076845
12270.0 0.00076564
12290.0 0.00076463
12310.0 0.00076518
12330.0 0.00076751
12350.0 0.00077146
12370.0 0.00077662
12390.0 0.0007832
12410.0 0.00079164
12430.0 0.00080062
12450.0 0.00081038
12470.0 0.00082136
12490.0 0.00083295
12510.0 0.00084426
12530.0 0.00085614
12550.0 0.00086827
12570.0 0.00087948
12590.0 0.00088983
12610.0 0.0008997
12630.0 0.00090816
12650.0 0.00091442
12670.0 0.00091919
12690.0 0.00092205
12710.0 0.00092258
12730.0 0.000921
12750.0 0.00091726
12770.0 0.00091133
12790.0 0.00090357
12810.0 0.000894
12830.0 0.00088267
12850.0 0.0008705
12870.0 0.00085752
12890.0 0.00084354
12910.0 0.00082936
12930.0 0.00081544
12950.0 0.00080123
12970.0 0.00078709
12990.0 0.00077389
13010.0 0.00076112
13030.0 0.00074854
13050.0 0.0007366
13070.0 0.00072543
13090.0 0.00071432
13110.0 0.00070347
13130.0 0.00069316
13150.0 0.00068305
13170.0 0.00067273
13190.0 0.00066282
13210.0 0.00065329
13230.0 0.00064371
13250.0 0.0006343
13270.0 0.00062549
13290.0 0.00061698
13310.0 0.00060876
13330.0 0.00060137
13350.0 0.00059479
13370.0 0.0005889
13390.0 0.00058386
13410.0 0.00057987
13430.0 0.00057662
13450.0 0.00057408
13470.0 0.00057214
13490.0 0.00057057
13510.0 0.00056921
13530.0 0.00056779
13550.0 0.00056609
13570.0 0.00056394
13590.0 0.00056112
13610.0 0.00055759
13630.0 0.00055338
13650.0 0.00054826
13670.0 0.0005424
13690.0 0.0005361
13710.0 0.00052924
13730.0 0.00052175
13750.0 0.00051447
13770.0 0.00050727
13790.0 0.00050007
13810.0 0.00049324
13830.0 0.00048709
13850.0 0.00048126
13870.0 0.00047592
13890.0 0.00047129
13910.0 0.00046723
13930.0 0.00046355
13950.0 0.00046035
13970.0 0.00045762
13990.0 0.00045509
14010.0 0.00045273
14030.0 0.00045053
14050.0 0.00044835
14070.0 0.00044603
14090.0 0.0004436
14110.0 0.00044105
14130.0 0.00043821
14150.0 0.00043503
14170.0 0.00043172
14190.0 0.00042816
14210.0 0.00042426
14230.0 0.00042023
14250.0 0.00041622
14270.0 0.00041202
14290.0 0.00040781
14310.0 0.00040395
14330.0 0.00040029
14350.0 0.00039685
14370.0 0.00039386
14390.0 0.00039136
14410.0 0.0003892
14430.0 0.00038751
14450.0 0.00038629
14470.0 0.00038546
14490.0 0.00038496
14510.0 0.00038482
14530.0 0.00038494
14550.0 0.00038531
14570.0 0.00038593
14590.0 0.00038675
14610.0 0.00038783
14630.0 0.00038925
14650.0 0.00039096
14670.0 0.000393
14690.0 0.00039552
14710.0 0.00039854
14730.0 0.00040187
14750.0 0.00040575
14770.0 0.00041026
14790.0 0.0004152
14810.0 0.00042056
14830.0 0.00042686
14850.0 0.00043372
14870.0 0.00044095
14890.0 0.00044886
14910.0 0.00045742
14930.0 0.00046593
14950.0 0.00047417
14970.0 0.00048228
14990.0 0.00048947
15010.0 0.00049539
15030.0 0.00050023
15050.0 0.000504
15070.0 0.00050658
15090.0 0.00050843
15110.0 0.00050979
15130.0 0.00051082
15150.0 0.00051167
15170.0 0.00051245
15190.0 0.0005132
15210.0 0.00051395
15230.0 0.00051471
15250.0 0.00051548
15270.0 0.00051627
15290.0 0.00051708
15310.0 0.00051791
15330.0 0.00051874
15350.0 0.0005196
15370.0 0.00052047
15390.0 0.00052135
15410.0 0.00052225
15430.0 0.00052317
15450.0 0.0005241
15470.0 0.00052503
15490.0 0.00052599
15510.0 0.00052696
15530.0 0.00052794
15550.0 0.00052893
15570.0 0.00052994
15590.0 0.00053095
15610.0 0.00053196
15630.0 0.000533
15650.0 0.00053405
15670.0 0.0005351
15690.0 0.00053616
15710.0 0.00053723
15730.0 0.00053831
15750.0 0.00053939
15770.0 0.00054049
15790.0 0.00054159
15810.0 0.00054269
15830.0 0.0005438
15850.0 0.00054493
15870.0 0.00054605
15890.0 0.00054717
15910.0 0.0005483
15930.0 0.00054944
15950.0 0.00055057
15970.0 0.00055171
15990.0 0.00055285
16010.0 0.00055399
16030.0 0.00055513
16050.0 0.00055628
16070.0 0.00055742
16090.0 0.00055856
16110.0 0.0005597
16130.0 0.00056084
16150.0 0.00056197
16170.0 0.00056311
16190.0 0.00056424
16210.0 0.00056537
16230.0 0.00056648
16250.0 0.0005676
16270.0 0.00056872
16290.0 0.00056982
16310.0 0.00057092
16330.0 0.00057201
16350.0 0.00057309
16370.0 0.00057416
16390.0 0.00057523
16410.0 0.00057629
16430.0 0.00057733
16450.0 0.00057836
16470.0 0.00057939
16490.0 0.0005804
16510.0 0.0005814
16530.0 0.00058239
16550.0 0.00058336
16570.0 0.00058432
16590.0 0.00058526
16610.0 0.00058619
16630.0 0.0005871
16650.0 0.000588
16670.0 0.00058888
16690.0 0.00058974
16710.0 0.00059058
16730.0 0.0005914
16750.0 0.00059221
16770.0 0.000593
16790.0 0.00059376
16810.0 0.00059451
16830.0 0.00059523
16850.0 0.00059593
16870.0 0.00059661
16890.0 0.00059727
16910.0 0.0005979
16930.0 0.0005985
16950.0 0.00059909
16970.0 0.00059965
16990.0 0.00060018
17010.0 0.00060069
17030.0 0.00060118
17050.0 0.00060163
17070.0 0.00060206
17090.0 0.00060246
17110.0 0.00060283
17130.0 0.00060317
17150.0 0.00060349
17170.0 0.00060378
17190.0 0.00060403
17210.0 0.00060426
17230.0 0.00060446
17250.0 0.00060463
17270.0 0.00060476
17290.0 0.00060486
17310.0 0.00060494
17330.0 0.00060497
17350.0 0.00060498
17370.0 0.00060496
17390.0 0.00060491
17410.0 0.00060481
17430.0 0.00060469
17450.0 0.00060455
17470.0 0.00060435
17490.0 0.00060413
17510.0 0.00060388
17530.0 0.00060359
17550.0 0.00060326
17570.0 0.00060291
17590.0 0.00060252
17610.0 0.00060209
17630.0 0.00060163
17650.0 0.00060114
17670.0 0.00060062
17690.0 0.00060005
17710.0 0.00059946
17730.0 0.00059883
17750.0 0.00059816
17770.0 0.00059746
17790.0 0.00059674
17810.0 0.00059597
17830.0 0.00059517
17850.0 0.00059434
17870.0 0.00059347
17890.0 0.00059257
17910.0 0.00059163
17930.0 0.00059067
17950.0 0.00058967
17970.0 0.00058864
17990.0 0.00058758
18010.0 0.00058649
18030.0 0.00058535
18050.0 0.00058419
18070.0 0.00058301
18090.0 0.00058178
18110.0 0.00058053
18130.0 0.00057925
18150.0 0.00057794
18170.0 0.00057659
18190.0 0.00057522
18210.0 0.00057382
18230.0 0.00057239
18250.0 0.00057093
18270.0 0.00056944
18290.0 0.00056793
18310.0 0.00056639
18330.0 0.00056482
18350.0 0.00056323
18370.0 0.00056161
18390.0 0.00055996
18410.0 0.0005583
18430.0 0.0005566
18450.0 0.00055488
18470.0 0.00055314
18490.0 0.00055138
18510.0 0.00054959
18530.0 0.00054778
18550.0 0.00054595
18570.0 0.0005441
18590.0 0.00054222
18610.0 0.00054033
18630.0 0.00053842
18650.0 0.00053649
18670.0 0.00053454
18690.0 0.00053258
18710.0 0.00053059
18730.0 0.00052859
18750.0 0.00052658
18770.0 0.00052455
18790.0 0.00052249
18810.0 0.00052043
18830.0 0.00051836
18850.0 0.00051626
18870.0 0.00051416
18890.0 0.00051204
18910.0 0.00050992
18930.0 0.00050778
18950.0 0.00050563
18970.0 0.00050347
18990.0 0.0005013
19010.0 0.00049911
19030.0 0.00049692
19050.0 0.00049473
19070.0 0.00049252
19090.0 0.00049031
19110.0 0.00048809
19130.0 0.00048587
19150.0 0.00048363
19170.0 0.0004814
19190.0 0.00047916
19210.0 0.00047691
19230.0 0.00047465
19250.0 0.00047241
19270.0 0.00047015
19290.0 0.00046789
19310.0 0.00046563
19330.0 0.00046337
19350.0 0.0004611
19370.0 0.00045884
19390.0 0.00045658
19410.0 0.00045431
19430.0 0.00045204
19450.0 0.00044979
19470.0 0.00044753
19490.0 0.00044526
19510.0 0.00044301
19530.0 0.00044076
19550.0 0.0004385
19570.0 0.00043625
19590.0 0.00043401
19610.0 0.00043177
19630.0 0.00042953
19650.0 0.0004273
19670.0 0.00042507
19690.0 0.00042285
19710.0 0.00042063
19730.0 0.00041843
19750.0 0.00041622
19770.0 0.00041402
19790.0 0.00041183
19810.0 0.00040965
19830.0 0.00040746
19850.0 0.00040526
19870.0 0.00040304
19890.0 0.00040074
19910.0 0.00039828
19930.0 0.00039561
19950.0 0.00039259
19970.0 0.00038902
19990.0 0.00038481
20010.0 0.00038004
20030.0 0.00037447
20050.0 0.00036816
20070.0 0.00036145
20090.0 0.00035441
20110.0 0.0003468
20130.0 0.00033927
20150.0 0.00033196
20170.0 0.00032461
20190.0 0.00031735
20210.0 0.00031053
20230.0 0.00030394
20250.0 0.0002974
20270.0 0.00029124
20290.0 0.00028547
20310.0 0.00027984
20330.0 0.00027435
20350.0 0.0002694
20370.0 0.00026465
20390.0 0.00026004
20410.0 0.00025574
20430.0 0.00025176
20450.0 0.00024786
20470.0 0.0002442
20490.0 0.00024086
20510.0 0.00023771
20530.0 0.00023471
20550.0 0.00023199
20570.0 0.00022951
20590.0 0.00022719
20610.0 0.00022508
20630.0 0.00022318
20650.0 0.00022146
20670.0 0.00021989
20690.0 0.00021851
20710.0 0.00021727
20730.0 0.00021615
20750.0 0.00021516
20770.0 0.00021425
20790.0 0.00021343
20810.0 0.00021267
20830.0 0.00021195
20850.0 0.00021125
20870.0 0.00021056
20890.0 0.00020987
20910.0 0.00020913
20930.0 0.00020835
20950.0 0.00020753
20970.0 0.00020662
20990.0 0.00020564
21010.0 0.00020457
21030.0 0.00020341
21050.0 0.00020215
21070.0 0.0002008
21090.0 0.00019932
21110.0 0.00019778
21130.0 0.00019615
21150.0 0.00019442
21170.0 0.00019261
21190.0 0.00019077
21210.0 0.00018884
21230.0 0.00018682
21250.0 0.00018481
21270.0 0.00018277
21290.0 0.00018066
21310.0 0.00017855
21330.0 0.0001765
21350.0 0.00017441
21370.0 0.00017232
21390.0 0.0001703
21410.0 0.00016834
21430.0 0.00016636
21450.0 0.0001645
21470.0 0.00016274
21490.0 0.00016105
21510.0 0.00015946
21530.0 0.00015801
21550.0 0.00015667
21570.0 0.00015544
21590.0 0.00015435
21610.0 0.00015341
21630.0 0.00015259
21650.0 0.00015191
21670.0 0.00015136
21690.0 0.00015093
21710.0 0.00015062
21730.0 0.00015041
21750.0 0.00015028
21770.0 0.00015025
21790.0 0.00015029
21810.0 0.00015036
21830.0 0.00015047
21850.0 0.00015062
21870.0 0.00015076
21890.0 0.00015086
21910.0 0.00015098
21930.0 0.00015106
21950.0 0.00015107
21970.0 0.00015105
21990.0 0.000151
22010.0 0.00015086
22030.0 0.00015065
22050.0 0.0001504
22070.0 0.00015009
22090.0 0.00014971
22110.0 0.00014929
22130.0 0.00014882
22150.0 0.0001483
22170.0 0.00014775
22190.0 0.00014716
22210.0 0.00014653
22230.0 0.00014588
22250.0 0.0001452
22270.0 0.00014447
22290.0 0.00014373
22310.0 0.00014295
22330.0 0.00014212
22350.0 0.00014124
22370.0 0.00014032
22390.0 0.00013933
22410.0 0.00013825
22430.0 0.00013713
22450.0 0.00013594
22470.0 0.00013463
22490.0 0.00013324
22510.0 0.0001318
22530.0 0.00013023
22550.0 0.00012855
22570.0 0.00012685
22590.0 0.00012508
22610.0 0.00012321
22630.0 0.00012131
22650.0 0.00011944
22670.0 0.00011751
22690.0 0.00011556
22710.0 0.00011368
22730.0 0.00011184
22750.0 0.00010996
22770.0 0.0001082
22790.0 0.00010656
22810.0 0.00010495
22830.0 0.00010342
22850.0 0.00010204
22870.0 0.00010073
22890.0 9.9479e-05
22910.0 9.8347e-05
22930.0 9.7317e-05
22950.0 9.6342e-05
22970.0 9.5428e-05
22990.0 9.4619e-05
23010.0 9.3852e-05
23030.0 9.3115e-05
23050.0 9.2423e-05
23070.0 9.1767e-05
