#lamb flux
1010.0 3.4008e-05
1030.0 3.7224e-05
1050.0 4.0554e-05
1070.0 4.4304e-05
1090.0 4.867e-05
1110.0 5.3128e-05
1130.0 5.7602e-05
1150.0 6.2285e-05
1170.0 6.7125e-05
1190.0 7.1741e-05
1210.0 7.646e-05
1230.0 8.1394e-05
1250.0 8.6279e-05
1270.0 9.1115e-05
1290.0 9.631e-05
1310.0 0.0001016
1330.0 0.0001068
1350.0 0.00011214
1370.0 0.00011771
1390.0 0.00012322
1410.0 0.00012863
1430.0 0.00013428
1450.0 0.00013992
1470.0 0.00014536
1490.0 0.00015081
1510.0 0.00015647
1530.0 0.00016176
1550.0 0.00016687
1570.0 0.00017203
1590.0 0.00017706
1610.0 0.00018171
1630.0 0.00018631
1650.0 0.00019087
1670.0 0.0001951
1690.0 0.00019909
1710.0 0.0002031
1730.0 0.00020698
1750.0 0.00021042
1770.0 0.00021387
1790.0 0.00021731
1810.0 0.00022052
1830.0 0.0002236
1850.0 0.00022695
1870.0 0.0002302
1890.0 0.00023336
1910.0 0.0002367
1930.0 0.00024029
1950.0 0.00024383
1970.0 0.00024749
1990.0 0.00025153
2010.0 0.0002557
2030.0 0.00025993
2050.0 0.00026449
2070.0 0.00026935
2090.0 0.00027411
2110.0 0.00027899
2130.0 0.00028409
2150.0 0.00028916
2170.0 0.00029405
2190.0 0.00029907
2210.0 0.00030404
2230.0 0.00030872
2250.0 0.00031322
2270.0 0.00031774
2290.0 0.00032191
2310.0 0.00032566
2330.0 0.0003293
2350.0 0.00033271
2370.0 0.00033566
2390.0 0.0003384
2410.0 0.00034107
2430.0 0.00034334
2450.0 0.00034526
2470.0 0.00034705
2490.0 0.00034874
2510.0 0.00035025
2530.0 0.00035247
2550.0 0.00035676
2570.0 0.00036464
2590.0 0.00037798
2610.0 0.00040138
2630.0 0.00043636
2650.0 0.00048125
2670.0 0.00053674
2690.0 0.00060066
2710.0 0.00066327
2730.0 0.00071869
2750.0 0.00076515
2770.0 0.00079455
2790.0 0.00080455
2810.0 0.00079647
2830.0 0.00076995
2850.0 0.0007303
2870.0 0.00068114
2890.0 0.00062332
2910.0 0.00056083
2930.0 0.00049802
2950.0 0.00043144
2970.0 0.00036231
2990.0 0.00029434
3010.0 0.00035771
3030.0 0.00024531
3050.0 0.00013232
3070.0 3.9563e-05
3090.0 3.9563e-05
3110.0 3.9563e-05
3130.0 3.9563e-05
3150.0 3.9563e-05
3170.0 3.9563e-05
3190.0 3.9563e-05
3210.0 0.0012491
3230.0 0.0034743
3250.0 0.0047266
3270.0 0.0041477
3290.0 0.0031438
3310.0 0.0024905
3330.0 0.0023232
3350.0 0.0024368
3370.0 0.0026362
3390.0 0.0028447
3410.0 0.0030631
3430.0 0.00333
3450.0 0.0035852
3470.0 0.0038503
3490.0 0.0038996
3510.0 0.0034011
3530.0 0.0031844
3550.0 0.0040723
3570.0 0.0051858
3590.0 0.0057716
3610.0 0.0059751
3630.0 0.0063341
3650.0 0.0063398
3670.0 0.006606
3690.0 0.0077693
3710.0 0.0090307
3730.0 0.0098593
3750.0 0.010371
3770.0 0.010536
3790.0 0.010217
3810.0 0.0094728
3830.0 0.0082924
3850.0 0.0065244
3870.0 0.0058009
3890.0 0.0065345
3910.0 0.0086562
3930.0 0.01082
3950.0 0.011829
3970.0 0.012244
3990.0 0.013204
4010.0 0.013653
4030.0 0.012344
4050.0 0.0093059
4070.0 0.0078732
4090.0 0.0088172
4110.0 0.0097878
4130.0 0.010454
4150.0 0.01046
4170.0 0.010058
4190.0 0.0096068
4210.0 0.010229
4230.0 0.010986
4250.0 0.011643
4270.0 0.011674
4290.0 0.011307
4310.0 0.011362
4330.0 0.012489
4350.0 0.013749
4370.0 0.013928
4390.0 0.012988
4410.0 0.011546
4430.0 0.0093578
4450.0 0.0077303
4470.0 0.0076951
4490.0 0.0085399
4510.0 0.0093067
4530.0 0.0097845
4550.0 0.010554
4570.0 0.013722
4590.0 0.018856
4610.0 0.022406
4630.0 0.023801
4650.0 0.025882
4670.0 0.028821
4690.0 0.029338
4710.0 0.025416
4730.0 0.019942
4750.0 0.015653
4770.0 0.013167
4790.0 0.012
4810.0 0.011659
4830.0 0.01267
4850.0 0.014936
4870.0 0.01668
4890.0 0.01711
4910.0 0.017193
4930.0 0.018999
4950.0 0.021895
4970.0 0.023771
4990.0 0.023597
5010.0 0.021256
5030.0 0.017594
5050.0 0.014266
5070.0 0.012184
5090.0 0.011397
5110.0 0.011409
5130.0 0.011559
5150.0 0.011413
5170.0 0.010863
5190.0 0.010607
5210.0 0.011094
5230.0 0.012567
5250.0 0.015026
5270.0 0.017604
5290.0 0.019296
5310.0 0.020653
5330.0 0.022655
5350.0 0.024355
5370.0 0.024177
5390.0 0.022321
5410.0 0.020653
5430.0 0.020961
5450.0 0.023861
5470.0 0.027759
5490.0 0.030641
5510.0 0.031636
5530.0 0.031154
5550.0 0.029933
5570.0 0.028593
5590.0 0.027313
5610.0 0.026445
5630.0 0.026201
5650.0 0.025911
5670.0 0.024428
5690.0 0.021821
5710.0 0.019227
5730.0 0.017528
5750.0 0.016948
5770.0 0.017314
5790.0 0.017725
5810.0 0.017872
5830.0 0.017799
5850.0 0.017209
5870.0 0.016473
5890.0 0.016259
5910.0 0.016546
5930.0 0.016453
5950.0 0.015303
5970.0 0.013332
5990.0 0.010992
6010.0 0.0092485
6030.0 0.008806
6050.0 0.0094563
6070.0 0.0099354
6090.0 0.0094074
6110.0 0.0086337
6130.0 0.0088762
6150.0 0.009927
6170.0 0.010895
6190.0 0.011485
6210.0 0.011694
6230.0 0.011479
6250.0 0.010439
6270.0 0.0088021
6290.0 0.007433
6310.0 0.0068654
6330.0 0.0069429
6350.0 0.0071804
6370.0 0.0075676
6390.0 0.0086647
6410.0 0.010441
6430.0 0.012018
6450.0 0.012814
6470.0 0.013166
6490.0 0.013366
6510.0 0.013484
6530.0 0.013601
6550.0 0.013752
6570.0 0.014098
6590.0 0.014408
6610.0 0.01437
6630.0 0.013761
6650.0 0.012726
6670.0 0.011725
6690.0 0.011051
6710.0 0.010579
6730.0 0.010139
6750.0 0.0099703
6770.0 0.010235
6790.0 0.010616
6810.0 0.010791
6830.0 0.010623
6850.0 0.010112
6870.0 0.0095762
6890.0 0.0093401
6910.0 0.0093356
6930.0 0.0095635
6950.0 0.0098115
6970.0 0.010002
6990.0 0.01004
7010.0 0.009712
7030.0 0.0089785
7050.0 0.0080508
7070.0 0.0074202
7090.0 0.0072897
7110.0 0.0073536
7130.0 0.0070125
7150.0 0.0063382
7170.0 0.0061877
7190.0 0.0068395
7210.0 0.0078379
7230.0 0.0086938
7250.0 0.0090096
7270.0 0.0088028
7290.0 0.0082681
7310.0 0.0078241
7330.0 0.0077495
7350.0 0.0078832
7370.0 0.0080191
7390.0 0.0084054
7410.0 0.0092326
7430.0 0.010274
7450.0 0.011143
7470.0 0.011441
7490.0 0.010915
7510.0 0.010117
7530.0 0.009544
7550.0 0.0089969
7570.0 0.0083983
7590.0 0.0081062
7610.0 0.0081788
7630.0 0.0085903
7650.0 0.0093098
7670.0 0.010186
7690.0 0.01096
7710.0 0.011571
7730.0 0.01211
7750.0 0.012556
7770.0 0.012689
7790.0 0.012887
7810.0 0.012963
7830.0 0.012636
7850.0 0.012233
7870.0 0.012029
7890.0 0.012158
7910.0 0.01219
7930.0 0.011952
7950.0 0.011527
7970.0 0.011144
7990.0 0.010775
8010.0 0.010429
8030.0 0.0105
8050.0 0.010532
8070.0 0.010422
8090.0 0.010355
8110.0 0.010171
8130.0 0.010205
8150.0 0.010148
8170.0 0.0099725
8190.0 0.0097313
8210.0 0.0095146
8230.0 0.0092791
8250.0 0.0092055
8270.0 0.0086215
8290.0 0.0073668
8310.0 0.0059441
8330.0 0.0049722
8350.0 0.0047598
8370.0 0.0054184
8390.0 0.0063218
8410.0 0.0067666
8430.0 0.0069867
8450.0 0.0074513
8470.0 0.008072
8490.0 0.0089739
8510.0 0.010061
8530.0 0.01123
8550.0 0.012191
8570.0 0.012922
8590.0 0.013477
8610.0 0.013783
8630.0 0.013752
8650.0 0.013558
8670.0 0.0136
8690.0 0.014359
8710.0 0.015386
8730.0 0.01594
8750.0 0.015886
8770.0 0.016115
8790.0 0.016145
8810.0 0.015384
8830.0 0.014335
8850.0 0.012993
8870.0 0.011956
8890.0 0.011661
8910.0 0.011548
8930.0 0.010857
8950.0 0.010062
8970.0 0.009738
8990.0 0.0097541
9010.0 0.0095263
9030.0 0.0093387
9050.0 0.0092513
9070.0 0.0092076
9090.0 0.0091697
9110.0 0.0091331
9130.0 0.0090966
9150.0 0.009061
9170.0 0.0090236
9190.0 0.0089948
9210.0 0.0089835
9230.0 0.0089385
9250.0 0.0088988
9270.0 0.0088623
9290.0 0.0088282
9310.0 0.0087948
9330.0 0.0087626
9350.0 0.0087321
9370.0 0.0087019
9390.0 0.0086715
9410.0 0.0086421
9430.0 0.0086114
9450.0 0.0085686
9470.0 0.0085304
9490.0 0.0085152
9510.0 0.0084936
9530.0 0.0084707
9550.0 0.0084463
9570.0 0.008421
9590.0 0.0083959
9610.0 0.0083706
9630.0 0.0083451
9650.0 0.0083199
9670.0 0.0082955
9690.0 0.0082707
9710.0 0.0082461
9730.0 0.008222
9750.0 0.0081981
9770.0 0.0081736
9790.0 0.0081498
9810.0 0.0081262
9830.0 0.0081024
9850.0 0.0080784
9870.0 0.0080551
9890.0 0.0080316
9910.0 0.0080076
9930.0 0.0079835
9950.0 0.0079213
9970.0 0.0079085
9990.0 0.0078933
10010.0 0.0078777
10030.0 0.0078583
10050.0 0.0078357
10070.0 0.007813
10090.0 0.0077904
10110.0 0.0077633
10130.0 0.0077318
10150.0 0.0077079
10170.0 0.0076837
10190.0 0.0076563
10210.0 0.0076307
10230.0 0.0076053
10250.0 0.0075766
10270.0 0.0075478
10290.0 0.0075207
10310.0 0.0074908
10330.0 0.0074584
10350.0 0.0074285
10370.0 0.0073982
10390.0 0.0073649
10410.0 0.0073314
10430.0 0.0073003
10450.0 0.007266
10470.0 0.0072298
10490.0 0.0071952
10510.0 0.0071602
10530.0 0.0071205
10550.0 0.0070818
10570.0 0.0070448
10590.0 0.0070049
10610.0 0.0069629
10630.0 0.006923
10650.0 0.0068818
10670.0 0.0068365
10690.0 0.006792
10710.0 0.0067484
10730.0 0.0067016
10750.0 0.0066517
10770.0 0.0066055
10790.0 0.0065574
10810.0 0.0065058
10830.0 0.0064547
10850.0 0.0064051
10870.0 0.0063498
10890.0 0.0062937
10910.0 0.0062393
10930.0 0.0061828
10950.0 0.0061221
10970.0 0.0060617
10990.0 0.0060027
11010.0 0.0064966
11030.0 0.0064301
11050.0 0.0063657
11070.0 0.0063
11090.0 0.0062293
11110.0 0.0061633
11130.0 0.0060988
11150.0 0.0060318
11170.0 0.0059648
11190.0 0.0059019
11210.0 0.0058373
11230.0 0.005771
11250.0 0.0057077
11270.0 0.0056461
11290.0 0.0055823
11310.0 0.0055193
11330.0 0.0054609
11350.0 0.0054012
11370.0 0.0053402
11390.0 0.005281
11410.0 0.005222
11430.0 0.0051577
11450.0 0.0050925
11470.0 0.0050266
11490.0 0.0049559
11510.0 0.004879
11530.0 0.0048014
11550.0 0.0047206
11570.0 0.0046328
11590.0 0.0045423
11610.0 0.0044519
11630.0 0.0043559
11650.0 0.0042559
11670.0 0.0041593
11690.0 0.0040625
11710.0 0.003963
11730.0 0.0038654
11750.0 0.0037727
11770.0 0.0036781
11790.0 0.0035843
11810.0 0.003495
11830.0 0.0034078
11850.0 0.0033183
11870.0 0.0032332
11890.0 0.0031524
11910.0 0.0030713
11930.0 0.0029914
11950.0 0.0029165
11970.0 0.0028432
11990.0 0.0027698
12010.0 0.002701
12030.0 0.0026364
12050.0 0.0025734
12070.0 0.002513
12090.0 0.0024595
12110.0 0.0024093
12130.0 0.0023625
12150.0 0.0023212
12170.0 0.0022855
12190.0 0.0022536
12210.0 0.0022275
12230.0 0.0022074
12250.0 0.0021926
12270.0 0.0021833
12290.0 0.0021793
12310.0 0.0021799
12330.0 0.0021857
12350.0 0.0021959
12370.0 0.0022089
12390.0 0.0022254
12410.0 0.0022462
12430.0 0.0022673
12450.0 0.0022894
12470.0 0.0023135
12490.0 0.0023378
12510.0 0.0023602
12530.0 0.0023828
12550.0 0.0024048
12570.0 0.0024238
12590.0 0.0024399
12610.0 0.0024541
12630.0 0.0024646
12650.0 0.0024697
12670.0 0.0024712
12690.0 0.002468
12710.0 0.0024596
12730.0 0.0024464
12750.0 0.0024281
12770.0 0.002405
12790.0 0.0023779
12810.0 0.0023466
12830.0 0.0023113
12850.0 0.0022741
12870.0 0.0022351
12890.0 0.0021936
12910.0 0.0021517
12930.0 0.0021105
12950.0 0.0020683
12970.0 0.0020262
12990.0 0.0019865
13010.0 0.0019477
13030.0 0.0019093
13050.0 0.0018726
13070.0 0.0018381
13090.0 0.0018038
13110.0 0.0017705
13130.0 0.001739
13150.0 0.0017085
13170.0 0.0016779
13190.0 0.001649
13210.0 0.0016216
13230.0 0.0015945
13250.0 0.0015681
13270.0 0.0015434
13290.0 0.0015195
13310.0 0.001496
13330.0 0.0014741
13350.0 0.0014536
13370.0 0.0014339
13390.0 0.0014153
13410.0 0.0013986
13430.0 0.0013828
13450.0 0.0013681
13470.0 0.0013545
13490.0 0.0013421
13510.0 0.00133
13530.0 0.0013186
13550.0 0.0013077
13570.0 0.0012969
13590.0 0.0012859
13610.0 0.001275
13630.0 0.0012639
13650.0 0.0012523
13670.0 0.0012404
13690.0 0.0012284
13710.0 0.0012161
13730.0 0.0012033
13750.0 0.001191
13770.0 0.0011789
13790.0 0.0011667
13810.0 0.001155
13830.0 0.001144
13850.0 0.0011333
13870.0 0.0011229
13890.0 0.0011134
13910.0 0.0011044
13930.0 0.0010956
13950.0 0.0010873
13970.0 0.0010795
13990.0 0.0010717
14010.0 0.0010638
14030.0 0.0010561
14050.0 0.0010483
14070.0 0.0010399
14090.0 0.0010314
14110.0 0.0010227
14130.0 0.0010135
14150.0 0.0010037
14170.0 0.00099409
14190.0 0.00098434
14210.0 0.00097424
14230.0 0.0009644
14250.0 0.00095509
14270.0 0.00094586
14290.0 0.00093709
14310.0 0.00092944
14330.0 0.00092254
14350.0 0.00091634
14370.0 0.00091119
14390.0 0.00090708
14410.0 0.00090366
14430.0 0.00090105
14450.0 0.00089923
14470.0 0.00089797
14490.0 0.00089713
14510.0 0.00089672
14530.0 0.00089664
14550.0 0.0008968
14570.0 0.00089725
14590.0 0.00089804
14610.0 0.00089924
14630.0 0.00090103
14650.0 0.00090355
14670.0 0.00090692
14690.0 0.00091149
14710.0 0.00091748
14730.0 0.00092466
14750.0 0.00093356
14770.0 0.00094452
14790.0 0.00095721
14810.0 0.00097161
14830.0 0.00098907
14850.0 0.0010086
14870.0 0.0010297
14890.0 0.0010529
14910.0 0.0010783
14930.0 0.0011037
14950.0 0.0011284
14970.0 0.0011528
14990.0 0.0011747
15010.0 0.0011931
15030.0 0.0012085
15050.0 0.0012211
15070.0 0.0012303
15090.0 0.0012377
15110.0 0.0012437
15130.0 0.0012489
15150.0 0.0012536
15170.0 0.0012582
15190.0 0.0012628
15210.0 0.0012674
15230.0 0.001272
15250.0 0.0012768
15270.0 0.0012816
15290.0 0.0012866
15310.0 0.0012916
15330.0 0.0012968
15350.0 0.001302
15370.0 0.0013073
15390.0 0.0013127
15410.0 0.0013182
15430.0 0.0013237
15450.0 0.0013294
15470.0 0.0013351
15490.0 0.0013409
15510.0 0.0013468
15530.0 0.0013527
15550.0 0.0013587
15570.0 0.0013649
15590.0 0.001371
15610.0 0.0013773
15630.0 0.0013836
15650.0 0.00139
15670.0 0.0013964
15690.0 0.0014029
15710.0 0.0014095
15730.0 0.0014161
15750.0 0.0014228
15770.0 0.0014295
15790.0 0.0014363
15810.0 0.0014431
15830.0 0.00145
15850.0 0.001457
15870.0 0.001464
15890.0 0.001471
15910.0 0.001478
15930.0 0.0014851
15950.0 0.0014923
15970.0 0.0014994
15990.0 0.0015067
16010.0 0.0015139
16030.0 0.0015211
16050.0 0.0015284
16070.0 0.0015357
16090.0 0.001543
16110.0 0.0015504
16130.0 0.0015577
16150.0 0.0015651
16170.0 0.0015724
16190.0 0.0015798
16210.0 0.0015872
16230.0 0.0015946
16250.0 0.001602
16270.0 0.0016093
16290.0 0.0016167
16310.0 0.0016241
16330.0 0.0016314
16350.0 0.0016387
16370.0 0.001646
16390.0 0.0016533
16410.0 0.0016606
16430.0 0.0016678
16450.0 0.001675
16470.0 0.0016822
16490.0 0.0016893
16510.0 0.0016964
16530.0 0.0017035
16550.0 0.0017105
16570.0 0.0017174
16590.0 0.0017243
16610.0 0.0017312
16630.0 0.001738
16650.0 0.0017447
16670.0 0.0017514
16690.0 0.001758
16710.0 0.0017645
16730.0 0.001771
16750.0 0.0017774
16770.0 0.0017837
16790.0 0.0017899
16810.0 0.0017961
16830.0 0.0018022
16850.0 0.0018081
16870.0 0.001814
16890.0 0.0018198
16910.0 0.0018255
16930.0 0.0018311
16950.0 0.0018366
16970.0 0.001842
16990.0 0.0018473
17010.0 0.0018525
17030.0 0.0018576
17050.0 0.0018625
17070.0 0.0018673
17090.0 0.0018721
17110.0 0.0018766
17130.0 0.0018811
17150.0 0.0018854
17170.0 0.0018897
17190.0 0.0018938
17210.0 0.0018977
17230.0 0.0019015
17250.0 0.0019052
17270.0 0.0019087
17290.0 0.0019122
17310.0 0.0019154
17330.0 0.0019185
17350.0 0.0019215
17370.0 0.0019243
17390.0 0.001927
17410.0 0.0019295
17430.0 0.0019319
17450.0 0.0019342
17470.0 0.0019362
17490.0 0.0019381
17510.0 0.0019399
17530.0 0.0019415
17550.0 0.001943
17570.0 0.0019443
17590.0 0.0019454
17610.0 0.0019464
17630.0 0.0019472
17650.0 0.0019479
17670.0 0.0019484
17690.0 0.0019487
17710.0 0.0019489
17730.0 0.0019489
17750.0 0.0019487
17770.0 0.0019484
17790.0 0.0019479
17810.0 0.0019473
17830.0 0.0019465
17850.0 0.0019455
17870.0 0.0019444
17890.0 0.0019431
17910.0 0.0019417
17930.0 0.0019401
17950.0 0.0019383
17970.0 0.0019364
17990.0 0.0019343
18010.0 0.0019321
18030.0 0.0019297
18050.0 0.0019271
18070.0 0.0019244
18090.0 0.0019216
18110.0 0.0019186
18130.0 0.0019154
18150.0 0.0019121
18170.0 0.0019087
18190.0 0.0019051
18210.0 0.0019013
18230.0 0.0018974
18250.0 0.0018934
18270.0 0.0018892
18290.0 0.0018849
18310.0 0.0018804
18330.0 0.0018759
18350.0 0.0018712
18370.0 0.0018663
18390.0 0.0018613
18410.0 0.0018562
18430.0 0.001851
18450.0 0.0018456
18470.0 0.0018401
18490.0 0.0018345
18510.0 0.0018288
18530.0 0.001823
18550.0 0.001817
18570.0 0.001811
18590.0 0.0018048
18610.0 0.0017985
18630.0 0.0017921
18650.0 0.0017857
18670.0 0.0017791
18690.0 0.0017724
18710.0 0.0017656
18730.0 0.0017588
18750.0 0.0017518
18770.0 0.0017448
18790.0 0.0017376
18810.0 0.0017304
18830.0 0.0017231
18850.0 0.0017158
18870.0 0.0017083
18890.0 0.0017008
18910.0 0.0016932
18930.0 0.0016855
18950.0 0.0016778
18970.0 0.00167
18990.0 0.0016622
19010.0 0.0016542
19030.0 0.0016463
19050.0 0.0016383
19070.0 0.0016302
19090.0 0.0016221
19110.0 0.0016139
19130.0 0.0016057
19150.0 0.0015974
19170.0 0.0015891
19190.0 0.0015808
19210.0 0.0015724
19230.0 0.001564
19250.0 0.0015556
19270.0 0.0015471
19290.0 0.0015386
19310.0 0.0015301
19330.0 0.0015216
19350.0 0.001513
19370.0 0.0015044
19390.0 0.0014959
19410.0 0.0014872
19430.0 0.0014786
19450.0 0.00147
19470.0 0.0014614
19490.0 0.0014527
19510.0 0.0014441
19530.0 0.0014354
19550.0 0.0014268
19570.0 0.0014181
19590.0 0.0014095
19610.0 0.0014009
19630.0 0.0013922
19650.0 0.0013836
19670.0 0.001375
19690.0 0.0013664
19710.0 0.0013578
19730.0 0.0013492
19750.0 0.0013407
19770.0 0.0013321
19790.0 0.0013236
19810.0 0.0013151
19830.0 0.0013065
19850.0 0.001298
19870.0 0.0012893
19890.0 0.0012805
19910.0 0.0012711
19930.0 0.001261
19950.0 0.0012499
19970.0 0.001237
19990.0 0.0012222
20010.0 0.0012055
20030.0 0.0011865
20050.0 0.0011651
20070.0 0.0011425
20090.0 0.0011189
20110.0 0.0010936
20130.0 0.0010685
20150.0 0.0010441
20170.0 0.0010196
20190.0 0.00099538
20210.0 0.00097255
20230.0 0.00095045
20250.0 0.00092857
20270.0 0.00090796
20290.0 0.00088868
20310.0 0.00087
20330.0 0.00085198
20350.0 0.00083581
20370.0 0.00082048
20390.0 0.00080588
20410.0 0.00079247
20430.0 0.00078023
20450.0 0.00076854
20470.0 0.00075779
20490.0 0.00074807
20510.0 0.00073907
20530.0 0.00073067
20550.0 0.00072303
20570.0 0.00071606
20590.0 0.00070953
20610.0 0.00070346
20630.0 0.00069783
20650.0 0.00069251
20670.0 0.00068743
20690.0 0.00068258
20710.0 0.00067786
20730.0 0.0006732
20750.0 0.00066857
20770.0 0.00066391
20790.0 0.00065917
20810.0 0.00065429
20830.0 0.00064929
20850.0 0.00064413
20870.0 0.00063873
20890.0 0.00063312
20910.0 0.00062738
20930.0 0.00062141
20950.0 0.0006152
20970.0 0.00060888
20990.0 0.00060246
21010.0 0.00059576
21030.0 0.00058899
21050.0 0.00058223
21070.0 0.00057535
21090.0 0.00056832
21110.0 0.00056145
21130.0 0.00055462
21150.0 0.00054771
21170.0 0.00054088
21190.0 0.00053426
21210.0 0.00052759
21230.0 0.00052097
21250.0 0.0005146
21270.0 0.00050837
21290.0 0.00050217
21310.0 0.00049616
21330.0 0.00049044
21350.0 0.0004848
21370.0 0.0004793
21390.0 0.00047408
21410.0 0.00046907
21430.0 0.00046414
21450.0 0.00045951
21470.0 0.00045515
21490.0 0.00045095
21510.0 0.00044696
21530.0 0.00044324
21550.0 0.00043971
21570.0 0.00043635
21590.0 0.00043321
21610.0 0.00043027
21630.0 0.00042748
21650.0 0.00042485
21670.0 0.00042238
21690.0 0.00042004
21710.0 0.00041781
21730.0 0.0004157
21750.0 0.00041366
21770.0 0.00041172
21790.0 0.00040986
21810.0 0.00040804
21830.0 0.00040628
21850.0 0.00040457
21870.0 0.00040288
21890.0 0.0004012
21910.0 0.00039955
21930.0 0.00039791
21950.0 0.00039623
21970.0 0.00039456
21990.0 0.00039287
22010.0 0.00039113
22030.0 0.00038935
22050.0 0.00038753
22070.0 0.00038566
22090.0 0.00038373
22110.0 0.00038175
22130.0 0.00037971
22150.0 0.00037762
22170.0 0.00037548
22190.0 0.00037326
22210.0 0.00037099
22230.0 0.0003687
22250.0 0.00036633
22270.0 0.00036389
22290.0 0.00036142
22310.0 0.00035889
22330.0 0.00035623
22350.0 0.00035349
22370.0 0.00035069
22390.0 0.00034775
22410.0 0.00034462
22430.0 0.00034143
22450.0 0.0003381
22470.0 0.00033453
22490.0 0.00033082
22510.0 0.00032702
22530.0 0.00032296
22550.0 0.00031867
22570.0 0.00031436
22590.0 0.00030992
22610.0 0.00030526
22630.0 0.00030056
22650.0 0.00029594
22670.0 0.00029118
22690.0 0.00028638
22710.0 0.00028174
22730.0 0.00027717
22750.0 0.0002725
22770.0 0.0002681
22790.0 0.00026393
22810.0 0.00025983
22830.0 0.00025588
22850.0 0.00025225
22870.0 0.00024878
22890.0 0.00024541
22910.0 0.00024231
22930.0 0.00023944
22950.0 0.00023669
22970.0 0.00023406
22990.0 0.00023171
23010.0 0.00022946
23030.0 0.00022728
23050.0 0.00022524
23070.0 0.00022332
23090.0 0.00022139
23110.0 0.00021953
23130.0 0.00021775
23150.0 0.00021598
23170.0 0.0002142
23190.0 0.00021247
23210.0 0.00021078
23230.0 0.00020908
23250.0 0.0002074
23270.0 0.0002058
23290.0 0.00020422
23310.0 0.00020265
23330.0 0.00020119
23350.0 0.0001998
23370.0 0.00019846
23390.0 0.0001972
23410.0 0.00019604
23430.0 0.00019493
23450.0 0.00019388
23470.0 0.0001929
23490.0 0.00019199
23510.0 0.00019111
23530.0 0.00019028
23550.0 0.0001895
23570.0 0.00018875
23590.0 0.00018804
23610.0 0.00018737
23630.0 0.00018675
23650.0 0.00018619
23670.0 0.0001857
23690.0 0.0001853
