#lamb flux
1010.0 3.1763e-05
1030.0 3.3982e-05
1050.0 3.688e-05
1070.0 4.1446e-05
1090.0 4.8017e-05
1110.0 5.4843e-05
1130.0 6.1782e-05
1150.0 6.9094e-05
1170.0 7.6565e-05
1190.0 8.3384e-05
1210.0 8.9906e-05
1230.0 9.6083e-05
1250.0 0.00010166
1270.0 0.00010611
1290.0 0.00010985
1310.0 0.00011239
1330.0 0.00011346
1350.0 0.00011346
1370.0 0.00011256
1390.0 0.00011058
1410.0 0.00010771
1430.0 0.00010447
1450.0 0.00010083
1470.0 9.6866e-05
1490.0 9.2921e-05
1510.0 8.9269e-05
1530.0 8.5687e-05
1550.0 8.244e-05
1570.0 7.9734e-05
1590.0 7.7551e-05
1610.0 7.5985e-05
1630.0 7.57e-05
1650.0 7.6252e-05
1670.0 7.7596e-05
1690.0 7.9846e-05
1710.0 8.3184e-05
1730.0 8.7615e-05
1750.0 9.3063e-05
1770.0 9.9813e-05
1790.0 0.00010794
1810.0 0.00011739
1830.0 0.00012826
1850.0 0.00014085
1870.0 0.00015497
1890.0 0.00017057
1910.0 0.00018784
1930.0 0.00020679
1950.0 0.00022704
1970.0 0.00024859
1990.0 0.00027154
2010.0 0.00029544
2030.0 0.00031991
2050.0 0.00034508
2070.0 0.00037068
2090.0 0.00039584
2110.0 0.00042062
2130.0 0.00044497
2150.0 0.00046827
2170.0 0.00049006
2190.0 0.00051076
2210.0 0.00052998
2230.0 0.00054722
2250.0 0.0005627
2270.0 0.00057682
2290.0 0.00058896
2310.0 0.00059914
2330.0 0.00060809
2350.0 0.0006158
2370.0 0.00062206
2390.0 0.00062763
2410.0 0.00063325
2430.0 0.00063869
2450.0 0.00064449
2470.0 0.00065178
2490.0 0.0006611
2510.0 0.00067187
2530.0 0.00068609
2550.0 0.00070606
2570.0 0.00073313
2590.0 0.00076971
2610.0 0.00082396
2630.0 0.000897
2650.0 0.00098561
2670.0 0.0010924
2690.0 0.0012162
2710.0 0.0013435
2730.0 0.0014693
2750.0 0.0015989
2770.0 0.0017251
2790.0 0.0018456
2810.0 0.001969
2830.0 0.0021029
2850.0 0.0022364
2870.0 0.0023758
2890.0 0.002527
2910.0 0.0026851
2930.0 0.0028436
2950.0 0.0030132
2970.0 0.0031923
2990.0 0.0033728
3010.0 0.0035582
3030.0 0.0037553
3050.0 0.0039579
3070.0 0.0041551
3090.0 0.0043561
3110.0 0.004552
3130.0 0.0047288
3150.0 0.0048823
3170.0 0.0050076
3190.0 0.0050991
3210.0 0.0051701
3230.0 0.0052291
3250.0 0.0052764
3270.0 0.0053266
3290.0 0.0053953
3310.0 0.0054965
3330.0 0.0056271
3350.0 0.005778
3370.0 0.0059437
3390.0 0.006087
3410.0 0.0062419
3430.0 0.006628
3450.0 0.0069079
3470.0 0.0070959
3490.0 0.0072577
3510.0 0.0076758
3530.0 0.009097
3550.0 0.010536
3570.0 0.01153
3590.0 0.012706
3610.0 0.012723
3630.0 0.011865
3650.0 0.01264
3670.0 0.015059
3690.0 0.016892
3710.0 0.01754
3730.0 0.017794
3750.0 0.018924
3770.0 0.019019
3790.0 0.018165
3810.0 0.017106
3830.0 0.016102
3850.0 0.016159
3870.0 0.016978
3890.0 0.017677
3910.0 0.018165
3930.0 0.018256
3950.0 0.019486
3970.0 0.020908
3990.0 0.020235
4010.0 0.018069
4030.0 0.016175
4050.0 0.015805
4070.0 0.016505
4090.0 0.016495
4110.0 0.015933
4130.0 0.015791
4150.0 0.016394
4170.0 0.018147
4190.0 0.019362
4210.0 0.018481
4230.0 0.017124
4250.0 0.016344
4270.0 0.015858
4290.0 0.016039
4310.0 0.016495
4330.0 0.015688
4350.0 0.013839
4370.0 0.012284
4390.0 0.011208
4410.0 0.010491
4430.0 0.010644
4450.0 0.011655
4470.0 0.012722
4490.0 0.013728
4510.0 0.015372
4530.0 0.018444
4550.0 0.02177
4570.0 0.023777
4590.0 0.025412
4610.0 0.027045
4630.0 0.027585
4650.0 0.025624
4670.0 0.021889
4690.0 0.018991
4710.0 0.018036
4730.0 0.017328
4750.0 0.015347
4770.0 0.013794
4790.0 0.014267
4810.0 0.015499
4830.0 0.015276
4850.0 0.013797
4870.0 0.013866
4890.0 0.014328
4910.0 0.014746
4930.0 0.014613
4950.0 0.014291
4970.0 0.013661
4990.0 0.012599
5010.0 0.011712
5030.0 0.011303
5050.0 0.011117
5070.0 0.011004
5090.0 0.010908
5110.0 0.010889
5130.0 0.011089
5150.0 0.011687
5170.0 0.012823
5190.0 0.014258
5210.0 0.015579
5230.0 0.016368
5250.0 0.016787
5270.0 0.017499
5290.0 0.018132
5310.0 0.018179
5330.0 0.017516
5350.0 0.016816
5370.0 0.016825
5390.0 0.017486
5410.0 0.01805
5430.0 0.018083
5450.0 0.017873
5470.0 0.017383
5490.0 0.016837
5510.0 0.016595
5530.0 0.016681
5550.0 0.016905
5570.0 0.017027
5590.0 0.016515
5610.0 0.01558
5630.0 0.014722
5650.0 0.014043
5670.0 0.013602
5690.0 0.013019
5710.0 0.012607
5730.0 0.012741
5750.0 0.012672
5770.0 0.012418
5790.0 0.012525
5810.0 0.01286
5830.0 0.013137
5850.0 0.013215
5870.0 0.012902
5890.0 0.012353
5910.0 0.011795
5930.0 0.011042
5950.0 0.010476
5970.0 0.010508
5990.0 0.010794
6010.0 0.010839
6030.0 0.010452
6050.0 0.010355
6070.0 0.010747
6090.0 0.01118
6110.0 0.011246
6130.0 0.010773
6150.0 0.010096
6170.0 0.0096921
6190.0 0.0093675
6210.0 0.0090494
6230.0 0.0088061
6250.0 0.0087605
6270.0 0.0089969
6290.0 0.0093858
6310.0 0.0098503
6330.0 0.010339
6350.0 0.010687
6370.0 0.010795
6390.0 0.010775
6410.0 0.010885
6430.0 0.01103
6450.0 0.011042
6470.0 0.011126
6490.0 0.011247
6510.0 0.011261
6530.0 0.011119
6550.0 0.0108
6570.0 0.010425
6590.0 0.010144
6610.0 0.0099289
6630.0 0.0097344
6650.0 0.0094027
6670.0 0.0090268
6690.0 0.0087458
6710.0 0.008575
6730.0 0.0085089
6750.0 0.0084166
6770.0 0.0082727
6790.0 0.0081352
6810.0 0.0080227
6830.0 0.0080016
6850.0 0.0079724
6870.0 0.0078894
6890.0 0.0078602
6910.0 0.007721
6930.0 0.0075597
6950.0 0.0075411
6970.0 0.007456
6990.0 0.007261
7010.0 0.0071471
7030.0 0.0070361
7050.0 0.0068929
7070.0 0.006727
7090.0 0.0065872
7110.0 0.00666
7130.0 0.006874
7150.0 0.0070912
7170.0 0.0072287
7190.0 0.0071948
7210.0 0.0070935
7230.0 0.0070018
7250.0 0.006911
7270.0 0.0068175
7290.0 0.0067198
7310.0 0.0066612
7330.0 0.0067514
7350.0 0.0068213
7370.0 0.0068424
7390.0 0.006773
7410.0 0.0066333
7430.0 0.006575
7450.0 0.0065243
7470.0 0.0062536
7490.0 0.0060237
7510.0 0.0057607
7530.0 0.0055616
7550.0 0.0054947
7570.0 0.0055697
7590.0 0.0055271
7610.0 0.0054679
7630.0 0.0054323
7650.0 0.0054266
7670.0 0.0055307
7690.0 0.0057527
7710.0 0.0059597
7730.0 0.0061645
7750.0 0.0063217
7770.0 0.0064155
7790.0 0.0063991
7810.0 0.0062758
7830.0 0.0063321
7850.0 0.0063133
7870.0 0.0061383
7890.0 0.005932
7910.0 0.0057492
7930.0 0.0055773
7950.0 0.005467
7970.0 0.0054619
7990.0 0.0055258
8010.0 0.0055064
8030.0 0.0054454
8050.0 0.0053485
8070.0 0.0052476
8090.0 0.0051401
8110.0 0.0051538
8130.0 0.0051985
8150.0 0.0051988
8170.0 0.00516
8190.0 0.0050717
8210.0 0.0048433
8230.0 0.0045229
8250.0 0.0043239
8270.0 0.0042044
8290.0 0.0041419
8310.0 0.004166
8330.0 0.004252
8350.0 0.0041693
8370.0 0.0040718
8390.0 0.0041333
8410.0 0.0042935
8430.0 0.0045437
8450.0 0.0047794
8470.0 0.0048579
8490.0 0.0049185
8510.0 0.0049136
8530.0 0.0049119
8550.0 0.0049573
8570.0 0.0049712
8590.0 0.0049775
8610.0 0.0051162
8630.0 0.0051663
8650.0 0.0050565
8670.0 0.0050509
8690.0 0.0050782
8710.0 0.0050377
8730.0 0.0049915
8750.0 0.0048449
8770.0 0.0047806
8790.0 0.0047385
8810.0 0.0046883
8830.0 0.0044527
8850.0 0.0041157
8870.0 0.0038632
8890.0 0.0037196
8910.0 0.0034954
8930.0 0.0032558
8950.0 0.0031517
8970.0 0.0031347
8990.0 0.0031447
9010.0 0.0031243
9030.0 0.0031021
9050.0 0.0030817
9070.0 0.0030623
9090.0 0.0030431
9110.0 0.0030239
9130.0 0.0030048
9150.0 0.0029857
9170.0 0.0029667
9190.0 0.0029476
9210.0 0.0029285
9230.0 0.0029097
9250.0 0.002891
9270.0 0.0028722
9290.0 0.0028536
9310.0 0.002835
9330.0 0.0028164
9350.0 0.0027979
9370.0 0.0027795
9390.0 0.0027612
9410.0 0.0027429
9430.0 0.0027247
9450.0 0.0027061
9470.0 0.002688
9490.0 0.0026706
9510.0 0.0026528
9530.0 0.0026352
9550.0 0.0026175
9570.0 0.0026
9590.0 0.0025825
9610.0 0.0025651
9630.0 0.0025479
9650.0 0.0025306
9670.0 0.0025136
9690.0 0.0024966
9710.0 0.0024796
9730.0 0.0024628
9750.0 0.0024461
9770.0 0.0024295
9790.0 0.0024129
9810.0 0.0023965
9830.0 0.0023797
9850.0 0.0023609
9870.0 0.0023452
9890.0 0.0023301
9910.0 0.0023147
9930.0 0.0022986
9950.0 0.0022833
9970.0 0.0022678
9990.0 0.0022519
10010.0 0.0022342
10030.0 0.0022179
10050.0 0.0022037
10070.0 0.0021893
10090.0 0.0021748
10110.0 0.0021593
10130.0 0.0021415
10150.0 0.0021271
10170.0 0.0021132
10190.0 0.0020986
10210.0 0.0020844
10230.0 0.0020702
10250.0 0.0020554
10270.0 0.0020406
10290.0 0.0020264
10310.0 0.0020118
10330.0 0.0019968
10350.0 0.0019825
10370.0 0.0019683
10390.0 0.0019536
10410.0 0.0019391
10430.0 0.0019252
10450.0 0.0019109
10470.0 0.0018964
10490.0 0.0018824
10510.0 0.0018685
10530.0 0.0018539
10550.0 0.0018396
10570.0 0.0018259
10590.0 0.0018118
10610.0 0.0017975
10630.0 0.0017837
10650.0 0.00177
10670.0 0.0017556
10690.0 0.0017416
10710.0 0.0017279
10730.0 0.0017139
10750.0 0.0016994
10770.0 0.0016858
10790.0 0.0016721
10810.0 0.0016579
10830.0 0.001644
10850.0 0.0016306
10870.0 0.0016164
10890.0 0.0016023
10910.0 0.0015888
10930.0 0.0015753
10950.0 0.0015617
10970.0 0.0015486
10990.0 0.0015364
11010.0 0.0015594
11030.0 0.0015485
11050.0 0.0015383
11070.0 0.0015279
11090.0 0.0015169
11110.0 0.0015063
11130.0 0.0014957
11150.0 0.0014845
11170.0 0.0014732
11190.0 0.0014624
11210.0 0.0014513
11230.0 0.0014401
11250.0 0.0014295
11270.0 0.0014192
11290.0 0.0014089
11310.0 0.001399
11330.0 0.0013899
11350.0 0.001381
11370.0 0.0013723
11390.0 0.0013641
11410.0 0.0013563
11430.0 0.0013483
11450.0 0.0013405
11470.0 0.001333
11490.0 0.0013252
11510.0 0.0013169
11530.0 0.0013088
11550.0 0.0013004
11570.0 0.0012913
11590.0 0.0012819
11610.0 0.0012724
11630.0 0.0012621
11650.0 0.0012511
11670.0 0.0012402
11690.0 0.001229
11710.0 0.0012172
11730.0 0.0012054
11750.0 0.0011939
11770.0 0.0011821
11790.0 0.0011702
11810.0 0.0011588
11830.0 0.0011477
11850.0 0.0011362
11870.0 0.0011254
11890.0 0.0011153
11910.0 0.0011051
11930.0 0.0010952
11950.0 0.001086
11970.0 0.0010771
11990.0 0.0010682
12010.0 0.00106
12030.0 0.0010524
12050.0 0.0010449
12070.0 0.0010378
12090.0 0.0010316
12110.0 0.0010258
12130.0 0.0010204
12150.0 0.0010157
12170.0 0.0010117
12190.0 0.0010081
12210.0 0.0010053
12230.0 0.0010031
12250.0 0.0010016
12270.0 0.0010007
12290.0 0.0010004
12310.0 0.0010007
12330.0 0.0010015
12350.0 0.0010027
12370.0 0.0010043
12390.0 0.0010061
12410.0 0.0010082
12430.0 0.0010102
12450.0 0.0010121
12470.0 0.0010138
12490.0 0.0010152
12510.0 0.0010161
12530.0 0.0010165
12550.0 0.0010162
12570.0 0.0010152
12590.0 0.0010134
12610.0 0.0010106
12630.0 0.0010069
12650.0 0.0010025
12670.0 0.00099707
12690.0 0.00099071
12710.0 0.00098375
12730.0 0.00097622
12750.0 0.00096767
12770.0 0.00095879
12790.0 0.00094977
12810.0 0.00094027
12830.0 0.00093035
12850.0 0.00092075
12870.0 0.00091117
12890.0 0.00090128
12910.0 0.00089159
12930.0 0.00088229
12950.0 0.00087277
12970.0 0.00086321
12990.0 0.00085422
13010.0 0.00084534
13030.0 0.00083634
13050.0 0.00082764
13070.0 0.00081941
13090.0 0.00081108
13110.0 0.00080291
13130.0 0.00079526
13150.0 0.00078789
13170.0 0.00078051
13190.0 0.00077372
13210.0 0.00076747
13230.0 0.00076139
13250.0 0.00075563
13270.0 0.00075041
13290.0 0.00074541
13310.0 0.00074051
13330.0 0.00073595
13350.0 0.00073162
13370.0 0.00072728
13390.0 0.00072292
13410.0 0.00071882
13430.0 0.00071462
13450.0 0.00071026
13470.0 0.00070592
13490.0 0.00070161
13510.0 0.00069695
13530.0 0.00069224
13550.0 0.00068761
13570.0 0.00068284
13590.0 0.00067786
13610.0 0.00067297
13630.0 0.00066814
13650.0 0.00066308
13670.0 0.00065802
13690.0 0.0006531
13710.0 0.00064808
13730.0 0.00064281
13750.0 0.0006378
13770.0 0.0006328
13790.0 0.00062762
13810.0 0.00062241
13830.0 0.00061737
13850.0 0.00061211
13870.0 0.00060667
13890.0 0.00060133
13910.0 0.00059596
13930.0 0.00059028
13950.0 0.00058452
13970.0 0.00057896
13990.0 0.00057313
14010.0 0.00056711
14030.0 0.00056121
14050.0 0.00055529
14070.0 0.00054898
14090.0 0.00054281
14110.0 0.00053683
14130.0 0.00053074
14150.0 0.00052459
14170.0 0.00051885
14190.0 0.00051327
14210.0 0.00050766
14230.0 0.00050237
14250.0 0.00049746
14270.0 0.00049258
14290.0 0.00048789
14310.0 0.00048366
14330.0 0.00047962
14350.0 0.00047568
14370.0 0.000472
14390.0 0.00046861
14410.0 0.00046524
14430.0 0.00046199
14450.0 0.00045898
14470.0 0.00045607
14490.0 0.00045313
14510.0 0.0004504
14530.0 0.00044785
14550.0 0.00044531
14570.0 0.00044284
14590.0 0.00044057
14610.0 0.00043834
14630.0 0.00043611
14650.0 0.00043406
14670.0 0.00043213
14690.0 0.00043023
14710.0 0.00042843
14730.0 0.00042686
14750.0 0.00042541
14770.0 0.00042408
14790.0 0.00042301
14810.0 0.00042218
14830.0 0.00042155
14850.0 0.00042124
14870.0 0.00042124
14890.0 0.00042153
14910.0 0.00042211
14930.0 0.0004229
14950.0 0.00042381
14970.0 0.00042478
14990.0 0.00042569
15010.0 0.00042644
15030.0 0.00042701
15050.0 0.00042736
15070.0 0.00042752
15090.0 0.00042754
15110.0 0.00042745
15130.0 0.0004273
15150.0 0.00042713
15170.0 0.00042693
15190.0 0.00042672
15210.0 0.00042653
15230.0 0.00042635
15250.0 0.00042615
15270.0 0.00042597
15290.0 0.00042582
15310.0 0.00042566
15330.0 0.0004255
15350.0 0.00042536
15370.0 0.00042524
15390.0 0.00042509
15410.0 0.00042496
15430.0 0.00042486
15450.0 0.00042475
15470.0 0.00042463
15490.0 0.00042455
15510.0 0.00042447
15530.0 0.00042438
15550.0 0.00042431
15570.0 0.00042426
15590.0 0.00042419
15610.0 0.00042412
15630.0 0.00042409
15650.0 0.00042406
15670.0 0.00042402
15690.0 0.00042399
15710.0 0.00042399
15730.0 0.00042398
15750.0 0.00042396
15770.0 0.00042397
15790.0 0.00042399
15810.0 0.00042398
15830.0 0.000424
15850.0 0.00042405
15870.0 0.00042407
15890.0 0.0004241
15910.0 0.00042417
15930.0 0.00042422
15950.0 0.00042426
15970.0 0.00042432
15990.0 0.0004244
16010.0 0.00042446
16030.0 0.00042452
16050.0 0.00042463
16070.0 0.00042472
16090.0 0.0004248
16110.0 0.0004249
16130.0 0.00042502
16150.0 0.0004251
16170.0 0.0004252
16190.0 0.00042533
16210.0 0.00042545
16230.0 0.00042556
16250.0 0.00042569
16270.0 0.00042583
16290.0 0.00042595
16310.0 0.00042608
16330.0 0.00042624
16350.0 0.00042638
16370.0 0.00042649
16390.0 0.00042665
16410.0 0.00042681
16430.0 0.00042695
16450.0 0.0004271
16470.0 0.00042727
16490.0 0.00042742
16510.0 0.00042756
16530.0 0.00042773
16550.0 0.0004279
16570.0 0.00042804
16590.0 0.00042819
16610.0 0.00042837
16630.0 0.00042853
16650.0 0.00042868
16670.0 0.00042885
16690.0 0.00042902
16710.0 0.00042915
16730.0 0.00042931
16750.0 0.00042948
16770.0 0.00042963
16790.0 0.00042976
16810.0 0.00042993
16830.0 0.00043009
16850.0 0.00043022
16870.0 0.00043036
16890.0 0.00043052
16910.0 0.00043065
16930.0 0.00043076
16950.0 0.0004309
16970.0 0.00043104
16990.0 0.00043115
17010.0 0.00043127
17030.0 0.0004314
17050.0 0.0004315
17070.0 0.00043159
17090.0 0.0004317
17110.0 0.0004318
17130.0 0.00043186
17150.0 0.00043194
17170.0 0.00043203
17190.0 0.00043209
17210.0 0.00043215
17230.0 0.00043222
17250.0 0.00043226
17270.0 0.00043228
17290.0 0.00043232
17310.0 0.00043235
17330.0 0.00043236
17350.0 0.00043235
17370.0 0.00043237
17390.0 0.00043236
17410.0 0.00043232
17430.0 0.0004323
17450.0 0.00043228
17470.0 0.00043221
17490.0 0.00043214
17510.0 0.00043208
17530.0 0.000432
17550.0 0.0004319
17570.0 0.0004318
17590.0 0.0004317
17610.0 0.00043157
17630.0 0.00043143
17650.0 0.00043129
17670.0 0.00043113
17690.0 0.00043093
17710.0 0.00043076
17730.0 0.00043057
17750.0 0.00043035
17770.0 0.00043012
17790.0 0.00042991
17810.0 0.00042965
17830.0 0.00042937
17850.0 0.0004291
17870.0 0.00042882
17890.0 0.0004285
17910.0 0.00042817
17930.0 0.00042786
17950.0 0.00042751
17970.0 0.00042714
17990.0 0.00042677
18010.0 0.00042639
18030.0 0.00042596
18050.0 0.00042554
18070.0 0.00042512
18090.0 0.00042466
18110.0 0.00042418
18130.0 0.00042371
18150.0 0.00042322
18170.0 0.00042269
18190.0 0.00042216
18210.0 0.00042163
18230.0 0.00042106
18250.0 0.00042046
18270.0 0.00041988
18290.0 0.00041928
18310.0 0.00041864
18330.0 0.000418
18350.0 0.00041736
18370.0 0.00041667
18390.0 0.00041597
18410.0 0.00041528
18430.0 0.00041456
18450.0 0.00041379
18470.0 0.00041304
18490.0 0.00041228
18510.0 0.00041148
18530.0 0.00041067
18550.0 0.00040987
18570.0 0.00040903
18590.0 0.00040815
18610.0 0.00040729
18630.0 0.00040641
18650.0 0.00040549
18670.0 0.00040456
18690.0 0.00040365
18710.0 0.0004027
18730.0 0.00040172
18750.0 0.00040074
18770.0 0.00039976
18790.0 0.00039872
18810.0 0.00039768
18830.0 0.00039665
18850.0 0.00039558
18870.0 0.00039449
18890.0 0.00039341
18910.0 0.00039232
18930.0 0.00039118
18950.0 0.00039004
18970.0 0.0003889
18990.0 0.00038773
19010.0 0.00038652
19030.0 0.00038534
19050.0 0.00038414
19070.0 0.0003829
19090.0 0.00038166
19110.0 0.00038043
19130.0 0.00037916
19150.0 0.00037786
19170.0 0.00037658
19190.0 0.00037528
19210.0 0.00037395
19230.0 0.00037261
19250.0 0.00037129
19270.0 0.00036993
19290.0 0.00036855
19310.0 0.00036718
19330.0 0.0003658
19350.0 0.00036437
19370.0 0.00036296
19390.0 0.00036155
19410.0 0.0003601
19430.0 0.00035864
19450.0 0.0003572
19470.0 0.00035574
19490.0 0.00035425
19510.0 0.00035277
19530.0 0.00035128
19550.0 0.00034976
19570.0 0.00034823
19590.0 0.00034672
19610.0 0.00034519
19630.0 0.00034364
19650.0 0.00034209
19670.0 0.00034055
19690.0 0.00033897
19710.0 0.00033739
19730.0 0.00033583
19750.0 0.00033424
19770.0 0.00033262
19790.0 0.00033103
19810.0 0.00032944
19830.0 0.00032781
19850.0 0.00032617
19870.0 0.00032454
19890.0 0.00032283
19910.0 0.00032104
19930.0 0.00031915
19950.0 0.00031709
19970.0 0.00031474
19990.0 0.00031206
20010.0 0.00030912
20030.0 0.00030576
20050.0 0.00030199
20070.0 0.00029801
20090.0 0.00029383
20110.0 0.00028929
20130.0 0.00028475
20150.0 0.00028029
20170.0 0.00027575
20190.0 0.0002712
20210.0 0.00026687
20230.0 0.00026263
20250.0 0.00025838
20270.0 0.00025433
20290.0 0.00025051
20310.0 0.00024677
20330.0 0.00024312
20350.0 0.00023981
20370.0 0.00023665
20390.0 0.0002336
20410.0 0.00023077
20430.0 0.00022816
20450.0 0.00022563
20470.0 0.00022328
20490.0 0.00022114
20510.0 0.00021913
20530.0 0.00021723
20550.0 0.0002155
20570.0 0.0002139
20590.0 0.0002124
20610.0 0.00021099
20630.0 0.0002097
20650.0 0.00020847
20670.0 0.0002073
20690.0 0.00020621
20710.0 0.00020515
20730.0 0.00020411
20750.0 0.00020309
20770.0 0.00020207
20790.0 0.00020104
20810.0 0.00019997
20830.0 0.00019886
20850.0 0.0001977
20870.0 0.00019647
20890.0 0.00019515
20910.0 0.00019378
20930.0 0.00019232
20950.0 0.00019075
20970.0 0.00018912
20990.0 0.00018742
21010.0 0.00018559
21030.0 0.0001837
21050.0 0.00018178
21070.0 0.00017978
21090.0 0.00017769
21110.0 0.00017562
21130.0 0.00017353
21150.0 0.00017138
21170.0 0.00016923
21190.0 0.00016714
21210.0 0.000165
21230.0 0.00016286
21250.0 0.0001608
21270.0 0.00015878
21290.0 0.00015675
21310.0 0.00015478
21330.0 0.00015292
21350.0 0.00015106
21370.0 0.00014925
21390.0 0.00014752
21410.0 0.00014585
21430.0 0.00014416
21450.0 0.00014257
21470.0 0.00014104
21490.0 0.00013953
21510.0 0.00013804
21530.0 0.00013662
21550.0 0.00013522
21570.0 0.00013382
21590.0 0.00013245
21610.0 0.00013113
21630.0 0.0001298
21650.0 0.00012846
21670.0 0.00012719
21690.0 0.00012591
21710.0 0.00012462
21730.0 0.00012336
21750.0 0.00012213
21770.0 0.00012087
21790.0 0.00011961
21810.0 0.00011839
21830.0 0.00011716
21850.0 0.0001159
21870.0 0.00011467
21890.0 0.00011347
21910.0 0.00011223
21930.0 0.00011099
21950.0 0.00010977
21970.0 0.00010855
21990.0 0.00010728
22010.0 0.00010606
22030.0 0.00010484
22050.0 0.00010361
22070.0 0.00010238
22090.0 0.0001012
22110.0 0.00010001
22130.0 9.882e-05
22150.0 9.7671e-05
22170.0 9.6553e-05
22190.0 9.5425e-05
22210.0 9.4328e-05
22230.0 9.3295e-05
22250.0 9.2275e-05
22270.0 9.1271e-05
22290.0 9.032e-05
22310.0 8.9406e-05
22330.0 8.849e-05
22350.0 8.7614e-05
22370.0 8.678e-05
22390.0 8.5958e-05
22410.0 8.5141e-05
22430.0 8.4367e-05
22450.0 8.3612e-05
22470.0 8.2851e-05
22490.0 8.2108e-05
22510.0 8.139e-05
22530.0 8.0659e-05
22550.0 7.9926e-05
22570.0 7.9219e-05
22590.0 7.8518e-05
22610.0 7.7806e-05
22630.0 7.7106e-05
22650.0 7.6435e-05
22670.0 7.5755e-05
22690.0 7.5081e-05
22710.0 7.4438e-05
22730.0 7.381e-05
22750.0 7.3177e-05
22770.0 7.2582e-05
22790.0 7.2022e-05
22810.0 7.1478e-05
22830.0 7.096e-05
22850.0 7.049e-05
22870.0 7.0051e-05
22890.0 6.9642e-05
22910.0 6.9284e-05
22930.0 6.8976e-05
22950.0 6.8712e-05
22970.0 6.8499e-05
22990.0 6.8345e-05
23010.0 6.8241e-05
23030.0 6.8192e-05
23050.0 6.8193e-05
23070.0 6.8235e-05
23090.0 6.8332e-05
23110.0 6.8466e-05
23130.0 6.8625e-05
23150.0 6.8812e-05
23170.0 6.9029e-05
23190.0 6.9253e-05
23210.0 6.9478e-05
23230.0 6.9722e-05
23250.0 6.9967e-05
23270.0 7.0202e-05
23290.0 7.044e-05
23310.0 7.0688e-05
