#lamb flux
1010.0 4.1622e-05
1030.0 4.164e-05
1050.0 4.1473e-05
1070.0 4.1067e-05
1090.0 4.0364e-05
1110.0 3.9319e-05
1130.0 3.7955e-05
1150.0 3.6294e-05
1170.0 3.4376e-05
1190.0 3.2329e-05
1210.0 3.0208e-05
1230.0 2.8076e-05
1250.0 2.6077e-05
1270.0 2.4305e-05
1290.0 2.274e-05
1310.0 2.1492e-05
1330.0 2.0643e-05
1350.0 2.0248e-05
1370.0 2.0646e-05
1390.0 2.1248e-05
1410.0 2.2015e-05
1430.0 2.2845e-05
1450.0 2.375e-05
1470.0 2.4718e-05
1490.0 2.5688e-05
1510.0 2.6643e-05
1530.0 2.7632e-05
1550.0 2.8574e-05
1570.0 2.9437e-05
1590.0 3.033e-05
1610.0 3.1438e-05
1630.0 3.2494e-05
1650.0 3.3501e-05
1670.0 3.4479e-05
1690.0 3.543e-05
1710.0 3.634e-05
1730.0 3.7256e-05
1750.0 3.826e-05
1770.0 3.9302e-05
1790.0 4.04e-05
1810.0 4.1569e-05
1830.0 4.378e-05
1850.0 8.7259e-05
1870.0 0.0001331
1890.0 0.00018259
1910.0 0.00023636
1930.0 0.00029498
1950.0 0.00035841
1970.0 0.00042708
1990.0 0.00050174
2010.0 0.00058215
2030.0 0.00066806
2050.0 0.00076024
2070.0 0.00085868
2090.0 0.00096179
2110.0 0.0010699
2130.0 0.0011832
2150.0 0.0013002
2170.0 0.0014192
2190.0 0.0015413
2210.0 0.0016649
2230.0 0.0017875
2250.0 0.001909
2270.0 0.0020296
2290.0 0.0021458
2310.0 0.0022561
2330.0 0.0023617
2350.0 0.0024607
2370.0 0.0025504
2390.0 0.0026314
2410.0 0.0027042
2430.0 0.0027651
2450.0 0.0028137
2470.0 0.0028514
2490.0 0.0028778
2510.0 0.0028926
2530.0 0.0029019
2550.0 0.0029138
2570.0 0.0029377
2590.0 0.0029859
2610.0 0.0030864
2630.0 0.0032543
2650.0 0.003489
2670.0 0.0038079
2690.0 0.0042191
2710.0 0.0046797
2730.0 0.0051646
2750.0 0.0056915
2770.0 0.0062068
2790.0 0.0066718
2810.0 0.0071018
2830.0 0.0075054
2850.0 0.0078311
2870.0 0.0081152
2890.0 0.0083856
2910.0 0.0086402
2930.0 0.008878
2950.0 0.0091327
2970.0 0.0094052
2990.0 0.0096822
3010.0 0.009973
3030.0 0.010292
3050.0 0.010625
3070.0 0.010951
3090.0 0.011287
3110.0 0.011613
3130.0 0.011903
3150.0 0.012147
3170.0 0.012339
3190.0 0.012474
3210.0 0.012578
3230.0 0.012688
3250.0 0.012864
3270.0 0.013158
3290.0 0.013598
3310.0 0.01422
3330.0 0.015008
3350.0 0.015919
3370.0 0.016962
3390.0 0.018053
3410.0 0.019097
3430.0 0.020052
3450.0 0.020861
3470.0 0.022815
3490.0 0.023563
3510.0 0.021084
3530.0 0.020026
3550.0 0.026129
3570.0 0.031452
3590.0 0.031119
3610.0 0.033599
3630.0 0.033864
3650.0 0.030954
3670.0 0.030772
3690.0 0.034773
3710.0 0.038419
3730.0 0.040448
3750.0 0.036534
3770.0 0.036065
3790.0 0.03765
3810.0 0.036344
3830.0 0.03168
3850.0 0.028585
3870.0 0.030088
3890.0 0.033708
3910.0 0.035993
3930.0 0.037005
3950.0 0.038308
3970.0 0.039056
3990.0 0.0395
4010.0 0.038398
4030.0 0.034938
4050.0 0.03269
4070.0 0.033232
4090.0 0.035336
4110.0 0.036682
4130.0 0.036158
4150.0 0.035684
4170.0 0.036001
4190.0 0.036773
4210.0 0.035567
4230.0 0.032423
4250.0 0.029044
4270.0 0.026762
4290.0 0.025012
4310.0 0.023397
4330.0 0.024081
4350.0 0.025116
4370.0 0.025428
4390.0 0.02612
4410.0 0.025957
4430.0 0.025654
4450.0 0.025902
4470.0 0.025994
4490.0 0.027964
4510.0 0.029017
4530.0 0.029939
4550.0 0.030861
4570.0 0.032037
4590.0 0.032691
4610.0 0.033119
4630.0 0.03352
4650.0 0.034265
4670.0 0.032181
4690.0 0.029789
4710.0 0.027681
4730.0 0.026823
4750.0 0.025663
4770.0 0.024783
4790.0 0.024214
4810.0 0.023458
4830.0 0.024536
4850.0 0.02702
4870.0 0.019939
4890.0 0.020015
4910.0 0.021557
4930.0 0.02227
4950.0 0.020338
4970.0 0.018839
4990.0 0.018208
5010.0 0.017006
5030.0 0.016056
5050.0 0.016615
5070.0 0.017627
5090.0 0.018187
5110.0 0.019735
5130.0 0.020275
5150.0 0.021058
5170.0 0.021804
5190.0 0.021361
5210.0 0.022319
5230.0 0.022787
5250.0 0.023032
5270.0 0.023368
5290.0 0.022818
5310.0 0.022168
5330.0 0.021057
5350.0 0.019975
5370.0 0.019095
5390.0 0.019603
5410.0 0.019474
5430.0 0.019685
5450.0 0.019616
5470.0 0.019305
5490.0 0.019123
5510.0 0.018626
5530.0 0.018181
5550.0 0.01792
5570.0 0.018092
5590.0 0.01829
5610.0 0.018478
5630.0 0.018084
5650.0 0.017766
5670.0 0.017011
5690.0 0.016629
5710.0 0.016086
5730.0 0.01602
5750.0 0.015714
5770.0 0.015152
5790.0 0.015619
5810.0 0.015581
5830.0 0.016007
5850.0 0.016176
5870.0 0.016331
5890.0 0.016044
5910.0 0.016008
5930.0 0.015543
5950.0 0.015706
5970.0 0.01534
5990.0 0.015061
6010.0 0.015055
6030.0 0.015373
6050.0 0.015217
6070.0 0.014858
6090.0 0.014703
6110.0 0.014937
6130.0 0.014754
6150.0 0.014267
6170.0 0.013479
6190.0 0.012632
6210.0 0.012006
6230.0 0.0119
6250.0 0.012011
6270.0 0.012274
6290.0 0.012774
6310.0 0.013621
6330.0 0.014021
6350.0 0.014044
6370.0 0.014145
6390.0 0.014062
6410.0 0.013754
6430.0 0.013365
6450.0 0.013182
6470.0 0.013155
6490.0 0.013066
6510.0 0.012929
6530.0 0.012917
6550.0 0.012788
6570.0 0.012271
6590.0 0.012146
6610.0 0.012034
6630.0 0.011619
6650.0 0.011227
6670.0 0.010912
6690.0 0.010838
6710.0 0.010507
6730.0 0.010337
6750.0 0.010168
6770.0 0.0099288
6790.0 0.0099964
6810.0 0.0098647
6830.0 0.0095683
6850.0 0.0094576
6870.0 0.0093895
6890.0 0.0092256
6910.0 0.0091572
6930.0 0.0090908
6950.0 0.008935
6970.0 0.0087385
6990.0 0.0087326
7010.0 0.0086758
7030.0 0.0087366
7050.0 0.0084919
7070.0 0.0083789
7090.0 0.0084084
7110.0 0.0081409
7130.0 0.0081121
7150.0 0.008199
7170.0 0.0083338
7190.0 0.0081997
7210.0 0.0082379
7230.0 0.008404
7250.0 0.0082089
7270.0 0.0083177
7290.0 0.008187
7310.0 0.007962
7330.0 0.0075699
7350.0 0.007633
7370.0 0.0076685
7390.0 0.0075001
7410.0 0.0073061
7430.0 0.007199
7450.0 0.0071161
7470.0 0.0071954
7490.0 0.0073446
7510.0 0.0072032
7530.0 0.0069524
7550.0 0.0070053
7570.0 0.006432
7590.0 0.0062872
7610.0 0.0061672
7630.0 0.0062695
7650.0 0.006128
7670.0 0.0063508
7690.0 0.0060874
7710.0 0.0064665
7730.0 0.0064847
7750.0 0.007092
7770.0 0.0072867
7790.0 0.0075372
7810.0 0.0078691
7830.0 0.0079859
7850.0 0.0082486
7870.0 0.008091
7890.0 0.0080179
7910.0 0.0078734
7930.0 0.0075951
7950.0 0.0073746
7970.0 0.0073463
7990.0 0.0072688
8010.0 0.0066723
8030.0 0.0066307
8050.0 0.0065039
8070.0 0.0064368
8090.0 0.0062886
8110.0 0.0063371
8130.0 0.0063926
8150.0 0.0064789
8170.0 0.0064048
8190.0 0.0064679
8210.0 0.0063667
8230.0 0.0060188
8250.0 0.0058792
8270.0 0.0057759
8290.0 0.0056885
8310.0 0.0055266
8330.0 0.0056107
8350.0 0.0055671
8370.0 0.0055528
8390.0 0.0056552
8410.0 0.0056569
8430.0 0.0057717
8450.0 0.0058699
8470.0 0.0058971
8490.0 0.005959
8510.0 0.0058697
8530.0 0.0056904
8550.0 0.0057387
8570.0 0.0057513
8590.0 0.0055972
8610.0 0.005724
8630.0 0.0056626
8650.0 0.0055439
8670.0 0.0055111
8690.0 0.0055105
8710.0 0.0053118
8730.0 0.0053696
8750.0 0.005189
8770.0 0.0051505
8790.0 0.0050201
8810.0 0.0049664
8830.0 0.0049306
8850.0 0.004673
8870.0 0.0044255
8890.0 0.0043585
8910.0 0.0040971
8930.0 0.0037826
8950.0 0.0037749
8970.0 0.0036667
8990.0 0.0036461
9010.0 0.0036198
9030.0 0.0035958
9050.0 0.0035702
9070.0 0.0035444
9090.0 0.0035184
9110.0 0.0034923
9130.0 0.0034661
9150.0 0.0034401
9170.0 0.0034139
9190.0 0.0033877
9210.0 0.0033615
9230.0 0.0033352
9250.0 0.003309
9270.0 0.0032827
9290.0 0.0032565
9310.0 0.0032303
9330.0 0.0032041
9350.0 0.003178
9370.0 0.0031519
9390.0 0.0031259
9410.0 0.0030999
9430.0 0.0030741
9450.0 0.0030483
9470.0 0.0030243
9490.0 0.0029995
9510.0 0.0029732
9530.0 0.0029472
9550.0 0.0029217
9570.0 0.0028965
9590.0 0.0028714
9610.0 0.0028466
9630.0 0.0028221
9650.0 0.0027976
9670.0 0.0027733
9690.0 0.0027492
9710.0 0.0027254
9730.0 0.0027016
9750.0 0.0026781
9770.0 0.0026549
9790.0 0.0026317
9810.0 0.0026087
9830.0 0.0025855
9850.0 0.0025589
9870.0 0.0025363
9890.0 0.0025162
9910.0 0.0024957
9930.0 0.0024713
9950.0 0.0024499
9970.0 0.0024303
9990.0 0.0024102
10010.0 0.0023896
10030.0 0.0023693
10050.0 0.0023494
10070.0 0.0023297
10090.0 0.0023103
10110.0 0.0022905
10130.0 0.0022707
10150.0 0.0022518
10170.0 0.002233
10190.0 0.002214
10210.0 0.0021956
10230.0 0.0021776
10250.0 0.0021594
10270.0 0.0021415
10290.0 0.0021242
10310.0 0.0021068
10330.0 0.0020893
10350.0 0.0020724
10370.0 0.0020559
10390.0 0.0020391
10410.0 0.0020226
10430.0 0.0020068
10450.0 0.001991
10470.0 0.0019751
10490.0 0.0019598
10510.0 0.0019448
10530.0 0.0019294
10550.0 0.0019144
10570.0 0.0019001
10590.0 0.0018856
10610.0 0.0018711
10630.0 0.0018572
10650.0 0.0018435
10670.0 0.0018295
10690.0 0.001816
10710.0 0.0018029
10730.0 0.0017896
10750.0 0.0017763
10770.0 0.0017637
10790.0 0.0017512
10810.0 0.0017385
10830.0 0.0017262
10850.0 0.0017145
10870.0 0.0017023
10890.0 0.0016903
10910.0 0.0016791
10930.0 0.001668
10950.0 0.001657
10970.0 0.0016467
10990.0 0.0016372
11010.0 0.0016555
11030.0 0.0016482
11050.0 0.0016414
11070.0 0.0016346
11090.0 0.0016272
11110.0 0.0016199
11130.0 0.0016122
11150.0 0.0016038
11170.0 0.001595
11190.0 0.0015862
11210.0 0.0015768
11230.0 0.001567
11250.0 0.0015575
11270.0 0.0015481
11290.0 0.0015385
11310.0 0.0015291
11330.0 0.0015206
11350.0 0.0015124
11370.0 0.0015044
11390.0 0.0014972
11410.0 0.0014906
11430.0 0.0014839
11450.0 0.0014778
11470.0 0.0014722
11490.0 0.0014666
11510.0 0.0014607
11530.0 0.0014552
11550.0 0.0014497
11570.0 0.0014437
11590.0 0.0014376
11610.0 0.0014315
11630.0 0.0014249
11650.0 0.0014179
11670.0 0.0014113
11690.0 0.0014046
11710.0 0.0013975
11730.0 0.0013907
11750.0 0.0013843
11770.0 0.0013777
11790.0 0.0013711
11810.0 0.0013651
11830.0 0.0013592
11850.0 0.0013529
11870.0 0.0013472
11890.0 0.001342
11910.0 0.0013368
11930.0 0.0013318
11950.0 0.0013275
11970.0 0.0013236
11990.0 0.0013199
12010.0 0.001317
12030.0 0.001315
12050.0 0.0013136
12070.0 0.001313
12090.0 0.0013135
12110.0 0.0013149
12130.0 0.0013171
12150.0 0.0013202
12170.0 0.0013242
12190.0 0.0013289
12210.0 0.0013343
12230.0 0.0013402
12250.0 0.0013466
12270.0 0.0013534
12290.0 0.0013603
12310.0 0.0013673
12330.0 0.0013745
12350.0 0.0013815
12370.0 0.0013882
12390.0 0.0013946
12410.0 0.0014007
12430.0 0.0014062
12450.0 0.001411
12470.0 0.001415
12490.0 0.0014181
12510.0 0.0014203
12530.0 0.0014215
12550.0 0.0014214
12570.0 0.0014202
12590.0 0.001418
12610.0 0.0014143
12630.0 0.0014094
12650.0 0.0014039
12670.0 0.0013972
12690.0 0.0013894
12710.0 0.0013811
12730.0 0.0013724
12750.0 0.0013623
12770.0 0.0013522
12790.0 0.0013422
12810.0 0.0013317
12830.0 0.0013209
12850.0 0.0013108
12870.0 0.0013011
12890.0 0.0012911
12910.0 0.0012817
12930.0 0.0012732
12950.0 0.0012646
12970.0 0.0012563
12990.0 0.0012491
13010.0 0.0012423
13030.0 0.0012356
13050.0 0.0012294
13070.0 0.0012239
13090.0 0.0012183
13110.0 0.0012129
13130.0 0.001208
13150.0 0.0012033
13170.0 0.0011985
13190.0 0.001194
13210.0 0.00119
13230.0 0.0011858
13250.0 0.0011817
13270.0 0.0011779
13290.0 0.0011741
13310.0 0.0011699
13330.0 0.0011659
13350.0 0.0011618
13370.0 0.0011574
13390.0 0.0011526
13410.0 0.0011479
13430.0 0.0011428
13450.0 0.0011372
13470.0 0.0011314
13490.0 0.0011256
13510.0 0.0011189
13530.0 0.0011121
13550.0 0.0011053
13570.0 0.0010982
13590.0 0.0010906
13610.0 0.001083
13630.0 0.0010755
13650.0 0.0010674
13670.0 0.0010592
13690.0 0.0010512
13710.0 0.0010429
13730.0 0.0010341
13750.0 0.0010257
13770.0 0.0010174
13790.0 0.0010087
13810.0 0.00099993
13830.0 0.00099156
13850.0 0.00098288
13870.0 0.00097401
13890.0 0.00096544
13910.0 0.00095694
13930.0 0.0009481
13950.0 0.00093932
13970.0 0.00093101
13990.0 0.00092246
14010.0 0.00091381
14030.0 0.00090548
14050.0 0.00089725
14070.0 0.00088865
14090.0 0.00088033
14110.0 0.00087232
14130.0 0.0008642
14150.0 0.00085602
14170.0 0.0008483
14190.0 0.00084068
14210.0 0.00083293
14230.0 0.00082542
14250.0 0.00081821
14270.0 0.00081085
14290.0 0.00080351
14310.0 0.00079657
14330.0 0.0007897
14350.0 0.00078274
14370.0 0.000776
14390.0 0.00076955
14410.0 0.00076297
14430.0 0.00075649
14450.0 0.0007503
14470.0 0.00074421
14490.0 0.00073802
14510.0 0.00073214
14530.0 0.00072651
14550.0 0.00072085
14570.0 0.00071528
14590.0 0.00070997
14610.0 0.00070468
14630.0 0.00069934
14650.0 0.00069418
14670.0 0.00068915
14690.0 0.00068406
14710.0 0.00067898
14730.0 0.00067416
14750.0 0.00066933
14770.0 0.0006645
14790.0 0.00065984
14810.0 0.00065533
14830.0 0.00065075
14850.0 0.00064632
14870.0 0.00064208
14890.0 0.0006379
14910.0 0.00063376
14930.0 0.00062979
14950.0 0.00062596
14970.0 0.00062214
14990.0 0.00061844
15010.0 0.00061488
15030.0 0.00061138
15050.0 0.00060788
15070.0 0.00060452
15090.0 0.00060119
15110.0 0.00059785
15130.0 0.00059452
15150.0 0.00059125
15170.0 0.00058792
15190.0 0.00058457
15210.0 0.00058126
15230.0 0.00057795
15250.0 0.00057458
15270.0 0.00057122
15290.0 0.00056792
15310.0 0.00056457
15330.0 0.00056121
15350.0 0.00055788
15370.0 0.00055456
15390.0 0.00055117
15410.0 0.00054782
15430.0 0.00054449
15450.0 0.00054114
15470.0 0.00053776
15490.0 0.00053445
15510.0 0.00053113
15530.0 0.00052777
15550.0 0.00052444
15570.0 0.00052114
15590.0 0.0005178
15610.0 0.00051445
15630.0 0.00051116
15650.0 0.00050787
15670.0 0.00050454
15690.0 0.00050125
15710.0 0.000498
15730.0 0.00049471
15750.0 0.00049142
15770.0 0.00048818
15790.0 0.00048494
15810.0 0.00048165
15830.0 0.00047842
15850.0 0.00047522
15870.0 0.000472
15890.0 0.00046878
15910.0 0.00046562
15930.0 0.00046244
15950.0 0.00045924
15970.0 0.00045608
15990.0 0.00045296
16010.0 0.00044981
16030.0 0.00044666
16050.0 0.00044358
16070.0 0.00044049
16090.0 0.00043739
16110.0 0.00043433
16130.0 0.0004313
16150.0 0.00042822
16170.0 0.00042518
16190.0 0.00042219
16210.0 0.00041919
16230.0 0.00041618
16250.0 0.00041322
16270.0 0.00041029
16290.0 0.00040733
16310.0 0.0004044
16330.0 0.00040151
16350.0 0.00039862
16370.0 0.0003957
16390.0 0.00039286
16410.0 0.00039003
16430.0 0.00038719
16450.0 0.00038437
16470.0 0.00038161
16490.0 0.00037882
16510.0 0.00037603
16530.0 0.0003733
16550.0 0.00037059
16570.0 0.00036785
16590.0 0.00036514
16610.0 0.0003625
16630.0 0.00035984
16650.0 0.00035718
16670.0 0.00035457
16690.0 0.00035198
16710.0 0.00034936
16730.0 0.00034679
16750.0 0.00034426
16770.0 0.00034171
16790.0 0.00033918
16810.0 0.0003367
16830.0 0.00033423
16850.0 0.00033175
16870.0 0.00032931
16890.0 0.00032691
16910.0 0.00032448
16930.0 0.00032207
16950.0 0.00031972
16970.0 0.00031737
16990.0 0.00031502
17010.0 0.00031271
17030.0 0.00031044
17050.0 0.00030814
17070.0 0.00030587
17090.0 0.00030365
17110.0 0.00030143
17130.0 0.00029919
17150.0 0.00029701
17170.0 0.00029486
17190.0 0.00029271
17210.0 0.00029057
17230.0 0.00028848
17250.0 0.00028639
17270.0 0.00028429
17290.0 0.00028224
17310.0 0.00028022
17330.0 0.00027818
17350.0 0.00027617
17370.0 0.00027421
17390.0 0.00027225
17410.0 0.00027029
17430.0 0.00026837
17450.0 0.00026648
17470.0 0.00026457
17490.0 0.00026269
17510.0 0.00026085
17530.0 0.00025902
17550.0 0.00025718
17570.0 0.0002554
17590.0 0.00025363
17610.0 0.00025186
17630.0 0.00025011
17650.0 0.0002484
17670.0 0.00024669
17690.0 0.00024497
17710.0 0.00024332
17730.0 0.00024168
17750.0 0.00024003
17770.0 0.00023841
17790.0 0.00023683
17810.0 0.00023524
17830.0 0.00023367
17850.0 0.00023213
17870.0 0.00023061
17890.0 0.00022908
17910.0 0.00022758
17930.0 0.00022613
17950.0 0.00022466
17970.0 0.00022321
17990.0 0.0002218
18010.0 0.00022041
18030.0 0.00021899
18050.0 0.00021762
18070.0 0.00021628
18090.0 0.00021494
18110.0 0.0002136
18130.0 0.00021231
18150.0 0.00021104
18170.0 0.00020975
18190.0 0.0002085
18210.0 0.00020728
18230.0 0.00020605
18250.0 0.00020482
18270.0 0.00020365
18290.0 0.00020248
18310.0 0.00020132
18330.0 0.00020018
18350.0 0.00019908
18370.0 0.00019796
18390.0 0.00019686
18410.0 0.0001958
18430.0 0.00019474
18450.0 0.00019367
18470.0 0.00019265
18490.0 0.00019165
18510.0 0.00019064
18530.0 0.00018966
18550.0 0.00018871
18570.0 0.00018775
18590.0 0.0001868
18610.0 0.00018588
18630.0 0.00018498
18650.0 0.00018408
18670.0 0.00018319
18690.0 0.00018234
18710.0 0.00018149
18730.0 0.00018065
18750.0 0.00017983
18770.0 0.00017904
18790.0 0.00017822
18810.0 0.00017744
18830.0 0.00017669
18850.0 0.00017593
18870.0 0.00017518
18890.0 0.00017446
18910.0 0.00017376
18930.0 0.00017305
18950.0 0.00017236
18970.0 0.0001717
18990.0 0.00017104
19010.0 0.00017036
19030.0 0.00016974
19050.0 0.00016912
19070.0 0.0001685
19090.0 0.0001679
19110.0 0.00016733
19130.0 0.00016674
19150.0 0.00016616
19170.0 0.00016562
19190.0 0.00016508
19210.0 0.00016453
19230.0 0.000164
19250.0 0.00016351
19270.0 0.00016301
19290.0 0.00016251
19310.0 0.00016205
19330.0 0.00016158
19350.0 0.0001611
19370.0 0.00016065
19390.0 0.00016023
19410.0 0.00015979
19430.0 0.00015935
19450.0 0.00015896
19470.0 0.00015856
19490.0 0.00015816
19510.0 0.00015777
19530.0 0.00015741
19550.0 0.00015703
19570.0 0.00015665
19590.0 0.00015632
19610.0 0.00015597
19630.0 0.00015562
19650.0 0.0001553
19670.0 0.000155
19690.0 0.00015467
19710.0 0.00015435
19730.0 0.00015406
19750.0 0.00015377
19770.0 0.00015345
19790.0 0.00015318
19810.0 0.00015292
19830.0 0.00015264
19850.0 0.00015236
19870.0 0.00015212
19890.0 0.00015187
19910.0 0.00015159
19930.0 0.00015135
19950.0 0.00015112
19970.0 0.00015086
19990.0 0.00015061
20010.0 0.00015038
20030.0 0.00015012
20050.0 0.00014984
20070.0 0.00014956
20090.0 0.00014928
20110.0 0.00014893
20130.0 0.00014859
20150.0 0.00014827
20170.0 0.00014791
20190.0 0.00014753
20210.0 0.00014719
20230.0 0.00014685
20250.0 0.00014648
20270.0 0.00014614
20290.0 0.00014583
20310.0 0.00014553
20330.0 0.00014522
20350.0 0.00014498
20370.0 0.00014477
20390.0 0.00014457
20410.0 0.00014441
20430.0 0.00014431
20450.0 0.00014422
20470.0 0.00014416
20490.0 0.00014417
20510.0 0.00014422
20530.0 0.0001443
20550.0 0.00014443
20570.0 0.00014463
20590.0 0.00014487
20610.0 0.00014516
20630.0 0.00014552
20650.0 0.00014592
20670.0 0.00014638
20690.0 0.00014689
20710.0 0.00014745
20730.0 0.00014805
20750.0 0.00014869
20770.0 0.00014935
20790.0 0.00015003
20810.0 0.00015073
20830.0 0.00015141
20850.0 0.00015208
20870.0 0.00015273
20890.0 0.00015334
20910.0 0.0001539
20930.0 0.0001544
20950.0 0.00015483
20970.0 0.0001552
20990.0 0.00015549
21010.0 0.00015569
21030.0 0.00015581
21050.0 0.00015587
21070.0 0.00015585
21090.0 0.00015572
21110.0 0.00015557
21130.0 0.00015537
21150.0 0.0001551
21170.0 0.00015479
21190.0 0.00015448
21210.0 0.00015412
21230.0 0.00015371
21250.0 0.00015334
21270.0 0.00015297
21290.0 0.00015256
21310.0 0.00015217
21330.0 0.00015182
21350.0 0.00015144
21370.0 0.00015106
21390.0 0.0001507
21410.0 0.00015035
21430.0 0.00014994
21450.0 0.00014955
21470.0 0.00014917
21490.0 0.00014876
21510.0 0.00014831
21530.0 0.00014787
21550.0 0.00014741
21570.0 0.00014689
21590.0 0.00014638
21610.0 0.00014586
21630.0 0.0001453
21650.0 0.00014469
21670.0 0.00014413
21690.0 0.00014355
21710.0 0.00014293
21730.0 0.00014233
21750.0 0.00014176
21770.0 0.00014114
21790.0 0.00014052
21810.0 0.00013994
21830.0 0.00013936
21850.0 0.00013874
21870.0 0.00013816
21890.0 0.00013761
21910.0 0.00013703
21930.0 0.00013644
21950.0 0.00013589
21970.0 0.00013531
21990.0 0.00013468
22010.0 0.00013409
22030.0 0.0001335
22050.0 0.00013285
22070.0 0.00013219
22090.0 0.00013155
22110.0 0.00013086
22130.0 0.00013013
22150.0 0.0001294
22170.0 0.00012866
22190.0 0.00012785
22210.0 0.00012703
22230.0 0.00012625
22250.0 0.00012542
22270.0 0.00012456
22290.0 0.00012373
22310.0 0.0001229
22330.0 0.00012202
22350.0 0.00012116
22370.0 0.00012033
22390.0 0.00011948
22410.0 0.00011862
22430.0 0.00011781
22450.0 0.00011703
22470.0 0.00011623
22490.0 0.00011545
22510.0 0.00011474
22530.0 0.000114
22550.0 0.00011328
22570.0 0.00011262
22590.0 0.00011199
22610.0 0.00011136
22630.0 0.00011076
22650.0 0.00011023
22670.0 0.00010968
22690.0 0.00010916
22710.0 0.00010868
22730.0 0.00010823
22750.0 0.00010776
22770.0 0.00010733
22790.0 0.00010694
22810.0 0.00010655
22830.0 0.00010617
22850.0 0.00010584
22870.0 0.00010551
22890.0 0.0001052
22910.0 0.00010492
22930.0 0.00010467
22950.0 0.00010443
22970.0 0.00010423
22990.0 0.00010407
23010.0 0.00010393
23030.0 0.00010384
23050.0 0.00010378
23070.0 0.00010377
23090.0 0.0001038
23110.0 0.00010387
23130.0 0.000104
23150.0 0.00010417
23170.0 0.0001044
23190.0 0.00010467
23210.0 0.00010498
23230.0 0.00010535
23250.0 0.00010575
23270.0 0.00010617
23290.0 0.00010662
23310.0 0.00010712
23330.0 0.0001076
23350.0 0.00010807
23370.0 0.00010856
23390.0 0.00010902
23410.0 0.00010944
23430.0 0.00010984
