#lamb flux
1010.0 1.2539e-08
1030.0 1.4132e-08
1050.0 1.5964e-08
1070.0 1.8027e-08
1090.0 2.037e-08
1110.0 2.2772e-08
1130.0 2.5191e-08
1150.0 2.7724e-08
1170.0 3.0338e-08
1190.0 3.2816e-08
1210.0 3.5327e-08
1230.0 3.7922e-08
1250.0 4.0465e-08
1270.0 4.2934e-08
1290.0 4.5544e-08
1310.0 4.8151e-08
1330.0 5.0651e-08
1350.0 5.318e-08
1370.0 5.579e-08
1390.0 5.8335e-08
1410.0 6.0804e-08
1430.0 6.3385e-08
1450.0 6.5966e-08
1470.0 6.846e-08
1490.0 7.098e-08
1510.0 7.3642e-08
1530.0 7.6163e-08
1550.0 7.8649e-08
1570.0 8.1221e-08
1590.0 8.3793e-08
1610.0 8.625e-08
1630.0 8.8781e-08
1650.0 9.1376e-08
1670.0 9.3884e-08
1690.0 9.6357e-08
1710.0 9.8923e-08
1730.0 1.015e-07
1750.0 1.0391e-07
1770.0 1.064e-07
1790.0 1.0892e-07
1810.0 1.1136e-07
1830.0 1.1374e-07
1850.0 1.1627e-07
1870.0 1.1871e-07
1890.0 1.2105e-07
1910.0 1.2343e-07
1930.0 1.2585e-07
1950.0 1.2814e-07
1970.0 1.3037e-07
1990.0 1.3266e-07
2010.0 1.3489e-07
2030.0 1.3699e-07
2050.0 1.3914e-07
2070.0 1.413e-07
2090.0 1.4328e-07
2110.0 1.452e-07
2130.0 1.4715e-07
2150.0 1.4899e-07
2170.0 1.5066e-07
2190.0 1.5236e-07
2210.0 1.54e-07
2230.0 1.5548e-07
2250.0 1.5687e-07
2270.0 1.5827e-07
2290.0 1.5952e-07
2310.0 1.6058e-07
2330.0 1.6162e-07
2350.0 1.6258e-07
2370.0 1.6337e-07
2390.0 1.641e-07
2410.0 1.6489e-07
2430.0 1.656e-07
2450.0 1.663e-07
2470.0 1.672e-07
2490.0 1.6839e-07
2510.0 1.6979e-07
2530.0 1.7197e-07
2550.0 1.7579e-07
2570.0 1.8199e-07
2590.0 1.9165e-07
2610.0 2.077e-07
2630.0 2.3083e-07
2650.0 2.597e-07
2670.0 2.9462e-07
2690.0 3.3408e-07
2710.0 3.7204e-07
2730.0 4.0553e-07
2750.0 4.349e-07
2770.0 4.5682e-07
2790.0 4.7101e-07
2810.0 4.7983e-07
2830.0 4.8487e-07
2850.0 4.8615e-07
2870.0 4.8563e-07
2890.0 4.8437e-07
2910.0 4.8253e-07
2930.0 4.8015e-07
2950.0 4.7791e-07
2970.0 4.758e-07
2990.0 4.7352e-07
3010.0 9.7992e-06
3030.0 9.7484e-06
3050.0 9.6979e-06
3070.0 9.6392e-06
3090.0 9.577e-06
3110.0 9.5013e-06
3130.0 9.4001e-06
3150.0 9.2682e-06
3170.0 9.0951e-06
3190.0 8.8851e-06
3210.0 8.6563e-06
3230.0 8.4266e-06
3250.0 8.2356e-06
3270.0 8.1094e-06
3290.0 8.0805e-06
3310.0 8.1434e-06
3330.0 8.3173e-06
3350.0 8.5754e-06
3370.0 8.9235e-06
3390.0 9.3507e-06
3410.0 9.8104e-06
3430.0 1.0325e-05
3450.0 1.0913e-05
3470.0 1.1549e-05
3490.0 1.2217e-05
3510.0 1.2962e-05
3530.0 1.3752e-05
3550.0 1.4542e-05
3570.0 1.5366e-05
3590.0 1.6283e-05
3610.0 1.7226e-05
3630.0 1.822e-05
3650.0 1.9252e-05
3670.0 2.0223e-05
3690.0 2.0981e-05
3710.0 2.1454e-05
3730.0 2.1546e-05
3750.0 2.1256e-05
3770.0 1.9555e-05
3790.0 1.7644e-05
3810.0 1.6358e-05
3830.0 1.4287e-05
3850.0 1.0631e-05
3870.0 7.5579e-06
3890.0 1.2636e-05
3910.0 2.055e-05
3930.0 2.4853e-05
3950.0 2.4421e-05
3970.0 2.4961e-05
3990.0 2.9319e-05
4010.0 3.7661e-05
4030.0 3.8115e-05
4050.0 3.3781e-05
4070.0 2.9942e-05
4090.0 2.8306e-05
4110.0 3.4119e-05
4130.0 3.5663e-05
4150.0 3.4802e-05
4170.0 3.5293e-05
4190.0 3.598e-05
4210.0 3.5516e-05
4230.0 3.9229e-05
4250.0 4.2879e-05
4270.0 4.3497e-05
4290.0 4.4038e-05
4310.0 4.5168e-05
4330.0 4.9802e-05
4350.0 5.7433e-05
4370.0 6.5207e-05
4390.0 6.19e-05
4410.0 5.069e-05
4430.0 4.2536e-05
4450.0 3.6435e-05
4470.0 3.5368e-05
4490.0 3.8858e-05
4510.0 4.3589e-05
4530.0 4.8163e-05
4550.0 5.5784e-05
4570.0 6.6009e-05
4590.0 8.0025e-05
4610.0 0.00010277
4630.0 0.00012485
4650.0 0.00012838
4670.0 0.00012396
4690.0 0.00013211
4710.0 0.0001395
4730.0 0.00011832
4750.0 8.4542e-05
4770.0 6.888e-05
4790.0 6.6565e-05
4810.0 6.1895e-05
4830.0 5.8408e-05
4850.0 6.6887e-05
4870.0 8.6333e-05
4890.0 9.923e-05
4910.0 8.4191e-05
4930.0 7.4501e-05
4950.0 8.3409e-05
4970.0 0.00011179
4990.0 0.00014503
5010.0 0.00015429
5030.0 0.00012763
5050.0 8.239e-05
5070.0 5.661e-05
5090.0 5.0237e-05
5110.0 5.2501e-05
5130.0 5.6523e-05
5150.0 5.9377e-05
5170.0 5.9309e-05
5190.0 5.8051e-05
5210.0 5.6218e-05
5230.0 5.7609e-05
5250.0 6.1563e-05
5270.0 7.0839e-05
5290.0 8.1727e-05
5310.0 9.0043e-05
5330.0 9.2378e-05
5350.0 9.3082e-05
5370.0 0.00010116
5390.0 0.00010931
5410.0 0.00010631
5430.0 9.1885e-05
5450.0 8.45e-05
5470.0 9.4659e-05
5490.0 0.00012142
5510.0 0.00015512
5530.0 0.00017246
5550.0 0.00016723
5570.0 0.00015157
5590.0 0.00013518
5610.0 0.00012489
5630.0 0.00011858
5650.0 0.00012127
5670.0 0.00011839
5690.0 0.00010987
5710.0 0.00010405
5730.0 9.4418e-05
5750.0 6.7802e-05
5770.0 5.8861e-05
5790.0 6.6208e-05
5810.0 8.0022e-05
5830.0 9.1106e-05
5850.0 9.9945e-05
5870.0 0.0001029
5890.0 9.9416e-05
5910.0 9.5175e-05
5930.0 9.5434e-05
5950.0 9.9969e-05
5970.0 0.00010654
5990.0 0.00010093
6010.0 8.4918e-05
6030.0 7.0534e-05
6050.0 6.121e-05
6070.0 6.0839e-05
6090.0 6.8577e-05
6110.0 7.5333e-05
6130.0 7.2604e-05
6150.0 6.6948e-05
6170.0 7.279e-05
6190.0 8.7744e-05
6210.0 0.00010704
6230.0 0.00012333
6250.0 0.00012365
6270.0 0.0001107
6290.0 9.169e-05
6310.0 7.2858e-05
6330.0 5.7922e-05
6350.0 5.2146e-05
6370.0 5.6419e-05
6390.0 6.6712e-05
6410.0 7.7052e-05
6430.0 8.9333e-05
6450.0 0.00010397
6470.0 0.00012713
6490.0 0.00015652
6510.0 0.00017314
6530.0 0.00016101
6550.0 0.00014782
6570.0 0.00014357
6590.0 0.00013799
6610.0 0.00012322
6630.0 0.00011094
6650.0 0.00010209
6670.0 0.00010581
6690.0 0.00010449
6710.0 9.2823e-05
6730.0 8.435e-05
6750.0 7.5585e-05
6770.0 7.338e-05
6790.0 8.0838e-05
6810.0 8.3194e-05
6830.0 8.542e-05
6850.0 8.3658e-05
6870.0 8.006e-05
6890.0 7.8148e-05
6910.0 7.5216e-05
6930.0 7.0652e-05
6950.0 7.1864e-05
6970.0 7.2929e-05
6990.0 8.1444e-05
7010.0 8.6788e-05
7030.0 7.951e-05
7050.0 7.4562e-05
7070.0 7.2373e-05
7090.0 6.6253e-05
7110.0 6.208e-05
7130.0 6.3428e-05
7150.0 6.6574e-05
7170.0 7.0632e-05
7190.0 7.113e-05
7210.0 7.0569e-05
7230.0 7.3495e-05
7250.0 8.423e-05
7270.0 9.855e-05
7290.0 0.00010686
7310.0 0.0001044
7330.0 9.2905e-05
7350.0 8.3243e-05
7370.0 8.0275e-05
7390.0 8.0974e-05
7410.0 8.462e-05
7430.0 9.2485e-05
7450.0 0.00010014
7470.0 0.00011005
7490.0 0.00012189
7510.0 0.00011848
7530.0 0.00011217
7550.0 9.3675e-05
7570.0 7.6621e-05
7590.0 6.0798e-05
7610.0 5.5168e-05
7630.0 5.8142e-05
7650.0 6.6548e-05
7670.0 7.3731e-05
7690.0 8.3469e-05
7710.0 9.1797e-05
7730.0 9.5294e-05
7750.0 9.6472e-05
7770.0 9.5967e-05
7790.0 9.3575e-05
7810.0 9.612e-05
7830.0 9.3241e-05
7850.0 8.3267e-05
7870.0 7.4995e-05
7890.0 6.9077e-05
7910.0 6.13e-05
7930.0 5.2587e-05
7950.0 4.7931e-05
7970.0 4.7459e-05
7990.0 4.9454e-05
8010.0 5.2444e-05
8030.0 5.2978e-05
8050.0 5.2945e-05
8070.0 5.1593e-05
8090.0 5.1881e-05
8110.0 4.911e-05
8130.0 4.4732e-05
8150.0 4.1979e-05
8170.0 4.0118e-05
8190.0 4.0566e-05
8210.0 4.1572e-05
8230.0 4.3824e-05
8250.0 4.2631e-05
8270.0 3.8116e-05
8290.0 2.991e-05
8310.0 2.0343e-05
8330.0 1.3317e-05
8350.0 9.5421e-06
8370.0 1.1022e-05
8390.0 1.237e-05
8410.0 1.5817e-05
8430.0 1.9225e-05
8450.0 2.1131e-05
8470.0 2.2433e-05
8490.0 2.2642e-05
8510.0 2.333e-05
8530.0 2.55e-05
8550.0 2.891e-05
8570.0 3.453e-05
8590.0 4.1524e-05
8610.0 4.9169e-05
8630.0 5.7349e-05
8650.0 6.3244e-05
8670.0 6.2902e-05
8690.0 6.0014e-05
8710.0 5.6519e-05
8730.0 5.3631e-05
8750.0 5.0677e-05
8770.0 4.8999e-05
8790.0 4.791e-05
8810.0 4.5003e-05
8830.0 3.9565e-05
8850.0 3.373e-05
8870.0 2.849e-05
8890.0 2.6359e-05
8910.0 2.7209e-05
8930.0 2.7825e-05
8950.0 3.0772e-05
8970.0 3.1441e-05
8990.0 3.2092e-05
9010.0 3.2453e-05
9030.0 3.2573e-05
9050.0 3.2777e-05
9070.0 3.2931e-05
9090.0 3.3045e-05
9110.0 3.3127e-05
9130.0 3.3217e-05
9150.0 3.3317e-05
9170.0 3.3421e-05
9190.0 3.3529e-05
9210.0 3.3659e-05
9230.0 3.378e-05
9250.0 3.3913e-05
9270.0 3.4053e-05
9290.0 3.4199e-05
9310.0 3.4356e-05
9330.0 3.452e-05
9350.0 3.4689e-05
9370.0 3.4867e-05
9390.0 3.5054e-05
9410.0 3.5246e-05
9430.0 3.5443e-05
9450.0 3.5651e-05
9470.0 3.5866e-05
9490.0 3.6084e-05
9510.0 3.6311e-05
9530.0 3.6546e-05
9550.0 3.6784e-05
9570.0 3.7028e-05
9590.0 3.728e-05
9610.0 3.7538e-05
9630.0 3.7799e-05
9650.0 3.8066e-05
9670.0 3.8343e-05
9690.0 3.8621e-05
9710.0 3.8903e-05
9730.0 3.9193e-05
9750.0 3.9487e-05
9770.0 3.978e-05
9790.0 4.0082e-05
9810.0 4.0389e-05
9830.0 4.0697e-05
9850.0 4.1008e-05
9870.0 4.1326e-05
9890.0 4.1645e-05
9910.0 4.1964e-05
9930.0 4.2288e-05
9950.0 4.2615e-05
9970.0 4.2941e-05
9990.0 4.3268e-05
10010.0 4.2149e-05
10030.0 4.2464e-05
10050.0 4.2776e-05
10070.0 4.3087e-05
10090.0 4.3407e-05
10110.0 4.3722e-05
10130.0 4.4037e-05
10150.0 4.4354e-05
10170.0 4.4668e-05
10190.0 4.4976e-05
10210.0 4.5287e-05
10230.0 4.5598e-05
10250.0 4.5902e-05
10270.0 4.6204e-05
10290.0 4.6508e-05
10310.0 4.6805e-05
10330.0 4.7094e-05
10350.0 4.7385e-05
10370.0 4.7673e-05
10390.0 4.7952e-05
10410.0 4.8227e-05
10430.0 4.8502e-05
10450.0 4.8768e-05
10470.0 4.9026e-05
10490.0 4.9282e-05
10510.0 4.9533e-05
10530.0 4.977e-05
10550.0 5.0004e-05
10570.0 5.0236e-05
10590.0 5.0457e-05
10610.0 5.0668e-05
10630.0 5.0876e-05
10650.0 5.1077e-05
10670.0 5.1263e-05
10690.0 5.1443e-05
10710.0 5.1619e-05
10730.0 5.1782e-05
10750.0 5.1932e-05
10770.0 5.2081e-05
10790.0 5.222e-05
10810.0 5.2343e-05
10830.0 5.2458e-05
10850.0 5.2564e-05
10870.0 5.2642e-05
10890.0 5.269e-05
10910.0 5.2699e-05
10930.0 5.2639e-05
10950.0 5.2465e-05
10970.0 5.2161e-05
10990.0 5.1715e-05
11010.0 4.9899e-05
11030.0 4.9062e-05
11050.0 4.808e-05
11070.0 4.6925e-05
11090.0 4.5546e-05
11110.0 4.4129e-05
11130.0 4.2658e-05
11150.0 4.1081e-05
11170.0 3.9473e-05
11190.0 3.7936e-05
11210.0 3.6378e-05
11230.0 3.4817e-05
11250.0 3.3368e-05
11270.0 3.2017e-05
11290.0 3.0705e-05
11310.0 2.9503e-05
11330.0 2.8477e-05
11350.0 2.7532e-05
11370.0 2.6677e-05
11390.0 2.5946e-05
11410.0 2.5304e-05
11430.0 2.4694e-05
11450.0 2.4143e-05
11470.0 2.3634e-05
11490.0 2.3122e-05
11510.0 2.2584e-05
11530.0 2.2046e-05
11550.0 2.1481e-05
11570.0 2.0858e-05
11590.0 2.0202e-05
11610.0 1.9535e-05
11630.0 1.8817e-05
11650.0 1.8064e-05
11670.0 1.7339e-05
11690.0 1.6622e-05
11710.0 1.5903e-05
11730.0 1.5224e-05
11750.0 1.4611e-05
11770.0 1.4023e-05
11790.0 1.3483e-05
11810.0 1.3015e-05
11830.0 1.2599e-05
11850.0 1.2216e-05
11870.0 1.189e-05
11890.0 1.1609e-05
11910.0 1.135e-05
11930.0 1.1109e-05
11950.0 1.0888e-05
11970.0 1.0669e-05
11990.0 1.0441e-05
12010.0 1.0211e-05
12030.0 9.9763e-06
12050.0 9.7256e-06
12070.0 9.4608e-06
12090.0 9.2047e-06
12110.0 8.9451e-06
12130.0 8.6851e-06
12150.0 8.4431e-06
12170.0 8.2263e-06
12190.0 8.0266e-06
12210.0 7.8647e-06
12230.0 7.7472e-06
12250.0 7.6723e-06
12270.0 7.6462e-06
12290.0 7.67e-06
12310.0 7.7382e-06
12330.0 7.8578e-06
12350.0 8.0219e-06
12370.0 8.2161e-06
12390.0 8.4445e-06
12410.0 8.7142e-06
12430.0 8.9844e-06
12450.0 9.259e-06
12470.0 9.5449e-06
12490.0 9.8227e-06
12510.0 1.0072e-05
12530.0 1.0309e-05
12550.0 1.0524e-05
12570.0 1.0699e-05
12590.0 1.0836e-05
12610.0 1.0942e-05
12630.0 1.1007e-05
12650.0 1.1026e-05
12670.0 1.101e-05
12690.0 1.0958e-05
12710.0 1.0872e-05
12730.0 1.0757e-05
12750.0 1.061e-05
12770.0 1.0442e-05
12790.0 1.0257e-05
12810.0 1.0053e-05
12830.0 9.8297e-06
12850.0 9.6035e-06
12870.0 9.3694e-06
12890.0 9.1202e-06
12910.0 8.8671e-06
12930.0 8.6154e-06
12950.0 8.3506e-06
12970.0 8.0766e-06
12990.0 7.8106e-06
13010.0 7.542e-06
13030.0 7.2649e-06
13050.0 6.9924e-06
13070.0 6.7317e-06
13090.0 6.4667e-06
13110.0 6.2075e-06
13130.0 5.9664e-06
13150.0 5.7379e-06
13170.0 5.516e-06
13190.0 5.3206e-06
13210.0 5.1513e-06
13230.0 5.0011e-06
13250.0 4.8768e-06
13270.0 4.7833e-06
13290.0 4.7162e-06
13310.0 4.6772e-06
13330.0 4.6677e-06
13350.0 4.6842e-06
13370.0 4.7273e-06
13390.0 4.7962e-06
13410.0 4.8793e-06
13430.0 4.9799e-06
13450.0 5.097e-06
13470.0 5.2197e-06
13490.0 5.343e-06
13510.0 5.4764e-06
13530.0 5.6052e-06
13550.0 5.7227e-06
13570.0 5.8337e-06
13590.0 5.9373e-06
13610.0 6.0244e-06
13630.0 6.0957e-06
13650.0 6.1567e-06
13670.0 6.2021e-06
13690.0 6.2312e-06
13710.0 6.2474e-06
13730.0 6.2508e-06
13750.0 6.2402e-06
13770.0 6.2185e-06
13790.0 6.1861e-06
13810.0 6.1438e-06
13830.0 6.0944e-06
13850.0 6.0362e-06
13870.0 5.9697e-06
13890.0 5.8986e-06
13910.0 5.8226e-06
13930.0 5.7389e-06
13950.0 5.651e-06
13970.0 5.5638e-06
13990.0 5.4719e-06
14010.0 5.3772e-06
14030.0 5.285e-06
14050.0 5.1945e-06
14070.0 5.1019e-06
14090.0 5.0155e-06
14110.0 4.9363e-06
14130.0 4.8621e-06
14150.0 4.7947e-06
14170.0 4.7392e-06
14190.0 4.6936e-06
14210.0 4.6577e-06
14230.0 4.6343e-06
14250.0 4.6228e-06
14270.0 4.6232e-06
14290.0 4.6365e-06
14310.0 4.6601e-06
14330.0 4.6942e-06
14350.0 4.7393e-06
14370.0 4.7922e-06
14390.0 4.8498e-06
14410.0 4.916e-06
14430.0 4.9874e-06
14450.0 5.0597e-06
14470.0 5.135e-06
14490.0 5.2164e-06
14510.0 5.2968e-06
14530.0 5.3768e-06
14550.0 5.4625e-06
14570.0 5.5525e-06
14590.0 5.6435e-06
14610.0 5.7422e-06
14630.0 5.8531e-06
14650.0 5.97e-06
14670.0 6.0951e-06
14690.0 6.2363e-06
14710.0 6.3927e-06
14730.0 6.5518e-06
14750.0 6.7258e-06
14770.0 6.9156e-06
14790.0 7.1094e-06
14810.0 7.305e-06
14830.0 7.5175e-06
14850.0 7.7276e-06
14870.0 7.9272e-06
14890.0 8.1236e-06
14910.0 8.3137e-06
14930.0 8.4813e-06
14950.0 8.6262e-06
14970.0 8.7534e-06
14990.0 8.8522e-06
15010.0 8.9222e-06
15030.0 8.9692e-06
15050.0 8.9953e-06
15070.0 9.0033e-06
15090.0 9.0002e-06
15110.0 8.9892e-06
15130.0 8.9736e-06
15150.0 8.9565e-06
15170.0 8.9375e-06
15190.0 8.9176e-06
15210.0 8.8985e-06
15230.0 8.8796e-06
15250.0 8.8597e-06
15270.0 8.8402e-06
15290.0 8.822e-06
15310.0 8.8031e-06
15330.0 8.7839e-06
15350.0 8.7656e-06
15370.0 8.7475e-06
15390.0 8.7282e-06
15410.0 8.7096e-06
15430.0 8.6917e-06
15450.0 8.6732e-06
15470.0 8.6543e-06
15490.0 8.6366e-06
15510.0 8.6188e-06
15530.0 8.6001e-06
15550.0 8.582e-06
15570.0 8.5645e-06
15590.0 8.546e-06
15610.0 8.5271e-06
15630.0 8.5094e-06
15650.0 8.4915e-06
15670.0 8.4728e-06
15690.0 8.4546e-06
15710.0 8.4371e-06
15730.0 8.4185e-06
15750.0 8.3998e-06
15770.0 8.3819e-06
15790.0 8.3637e-06
15810.0 8.3443e-06
15830.0 8.3258e-06
15850.0 8.3078e-06
15870.0 8.2888e-06
15890.0 8.2697e-06
15910.0 8.2516e-06
15930.0 8.2327e-06
15950.0 8.2129e-06
15970.0 8.1939e-06
15990.0 8.1751e-06
16010.0 8.1554e-06
16030.0 8.1353e-06
16050.0 8.1165e-06
16070.0 8.097e-06
16090.0 8.0767e-06
16110.0 8.057e-06
16130.0 8.0376e-06
16150.0 8.0166e-06
16170.0 7.9959e-06
16190.0 7.976e-06
16210.0 7.9554e-06
16230.0 7.934e-06
16250.0 7.9134e-06
16270.0 7.893e-06
16290.0 7.8714e-06
16310.0 7.8498e-06
16330.0 7.8289e-06
16350.0 7.8073e-06
16370.0 7.7843e-06
16390.0 7.7628e-06
16410.0 7.7412e-06
16430.0 7.7185e-06
16450.0 7.6958e-06
16470.0 7.6741e-06
16490.0 7.651e-06
16510.0 7.6275e-06
16530.0 7.6047e-06
16550.0 7.5818e-06
16570.0 7.5577e-06
16590.0 7.5337e-06
16610.0 7.5107e-06
16630.0 7.4867e-06
16650.0 7.4621e-06
16670.0 7.4383e-06
16690.0 7.4143e-06
16710.0 7.3887e-06
16730.0 7.3639e-06
16750.0 7.3394e-06
16770.0 7.3141e-06
16790.0 7.2881e-06
16810.0 7.2632e-06
16830.0 7.238e-06
16850.0 7.2117e-06
16870.0 7.1857e-06
16890.0 7.1602e-06
16910.0 7.1335e-06
16930.0 7.1063e-06
16950.0 7.0802e-06
16970.0 7.0537e-06
16990.0 7.0262e-06
17010.0 6.9992e-06
17030.0 6.9727e-06
17050.0 6.9449e-06
17070.0 6.917e-06
17090.0 6.8898e-06
17110.0 6.8621e-06
17130.0 6.8332e-06
17150.0 6.8052e-06
17170.0 6.7776e-06
17190.0 6.7489e-06
17210.0 6.7201e-06
17230.0 6.6921e-06
17250.0 6.6633e-06
17270.0 6.6336e-06
17290.0 6.6047e-06
17310.0 6.576e-06
17330.0 6.5463e-06
17350.0 6.5163e-06
17370.0 6.4875e-06
17390.0 6.458e-06
17410.0 6.4277e-06
17430.0 6.3981e-06
17450.0 6.3688e-06
17470.0 6.3378e-06
17490.0 6.3073e-06
17510.0 6.2776e-06
17530.0 6.2472e-06
17550.0 6.2162e-06
17570.0 6.186e-06
17590.0 6.1559e-06
17610.0 6.1247e-06
17630.0 6.0937e-06
17650.0 6.0634e-06
17670.0 6.0324e-06
17690.0 6.0003e-06
17710.0 5.9697e-06
17730.0 5.9389e-06
17750.0 5.9073e-06
17770.0 5.8759e-06
17790.0 5.8454e-06
17810.0 5.8137e-06
17830.0 5.7817e-06
17850.0 5.7505e-06
17870.0 5.7193e-06
17890.0 5.687e-06
17910.0 5.6552e-06
17930.0 5.6243e-06
17950.0 5.5925e-06
17970.0 5.5604e-06
17990.0 5.5291e-06
18010.0 5.4977e-06
18030.0 5.465e-06
18050.0 5.4332e-06
18070.0 5.4019e-06
18090.0 5.3698e-06
18110.0 5.3374e-06
18130.0 5.3061e-06
18150.0 5.2746e-06
18170.0 5.2422e-06
18190.0 5.2104e-06
18210.0 5.1792e-06
18230.0 5.1468e-06
18250.0 5.1143e-06
18270.0 5.0831e-06
18290.0 5.0514e-06
18310.0 5.0191e-06
18330.0 4.9875e-06
18350.0 4.9564e-06
18370.0 4.9242e-06
18390.0 4.8922e-06
18410.0 4.861e-06
18430.0 4.8294e-06
18450.0 4.797e-06
18470.0 4.7656e-06
18490.0 4.7346e-06
18510.0 4.7028e-06
18530.0 4.6711e-06
18550.0 4.6404e-06
18570.0 4.609e-06
18590.0 4.577e-06
18610.0 4.5459e-06
18630.0 4.5151e-06
18650.0 4.4835e-06
18670.0 4.4519e-06
18690.0 4.4217e-06
18710.0 4.3907e-06
18730.0 4.3594e-06
18750.0 4.3288e-06
18770.0 4.2985e-06
18790.0 4.267e-06
18810.0 4.2361e-06
18830.0 4.206e-06
18850.0 4.1755e-06
18870.0 4.1445e-06
18890.0 4.1146e-06
18910.0 4.0847e-06
18930.0 4.054e-06
18950.0 4.0238e-06
18970.0 3.9943e-06
18990.0 3.9642e-06
19010.0 3.9334e-06
19030.0 3.9041e-06
19050.0 3.8747e-06
19070.0 3.8447e-06
19090.0 3.8151e-06
19110.0 3.7864e-06
19130.0 3.7567e-06
19150.0 3.7269e-06
19170.0 3.6981e-06
19190.0 3.6692e-06
19210.0 3.6396e-06
19230.0 3.6106e-06
19250.0 3.5825e-06
19270.0 3.5536e-06
19290.0 3.5247e-06
19310.0 3.4966e-06
19330.0 3.4685e-06
19350.0 3.4393e-06
19370.0 3.4112e-06
19390.0 3.3835e-06
19410.0 3.3552e-06
19430.0 3.3269e-06
19450.0 3.2996e-06
19470.0 3.2721e-06
19490.0 3.244e-06
19510.0 3.2166e-06
19530.0 3.1897e-06
19550.0 3.1619e-06
19570.0 3.1342e-06
19590.0 3.1076e-06
19610.0 3.0807e-06
19630.0 3.0534e-06
19650.0 3.0268e-06
19670.0 3.0007e-06
19690.0 2.9736e-06
19710.0 2.9469e-06
19730.0 2.9209e-06
19750.0 2.8947e-06
19770.0 2.8678e-06
19790.0 2.842e-06
19810.0 2.8164e-06
19830.0 2.7902e-06
19850.0 2.7641e-06
19870.0 2.7387e-06
19890.0 2.7121e-06
19910.0 2.6841e-06
19930.0 2.6556e-06
19950.0 2.625e-06
19970.0 2.5904e-06
19990.0 2.5517e-06
20010.0 2.5602e-06
20030.0 2.5124e-06
20050.0 2.4595e-06
20070.0 2.4047e-06
20090.0 2.3481e-06
20110.0 2.2867e-06
20130.0 2.2268e-06
20150.0 2.1692e-06
20170.0 2.1113e-06
20190.0 2.0543e-06
20210.0 2.0017e-06
20230.0 1.9515e-06
20250.0 1.9024e-06
20270.0 1.8576e-06
20290.0 1.8172e-06
20310.0 1.7796e-06
20330.0 1.7451e-06
20350.0 1.7168e-06
20370.0 1.6923e-06
20390.0 1.6715e-06
20410.0 1.6554e-06
20430.0 1.6437e-06
20450.0 1.6358e-06
20470.0 1.632e-06
20490.0 1.632e-06
20510.0 1.6354e-06
20530.0 1.6424e-06
20550.0 1.6522e-06
20570.0 1.6639e-06
20590.0 1.6784e-06
20610.0 1.695e-06
20630.0 1.7124e-06
20650.0 1.7312e-06
20670.0 1.7522e-06
20690.0 1.7729e-06
20710.0 1.7937e-06
20730.0 1.8157e-06
20750.0 1.838e-06
20770.0 1.8593e-06
20790.0 1.8812e-06
20810.0 1.904e-06
20830.0 1.9261e-06
20850.0 1.948e-06
20870.0 1.9713e-06
20890.0 1.995e-06
20910.0 2.0176e-06
20930.0 2.0412e-06
20950.0 2.0658e-06
20970.0 2.0898e-06
20990.0 2.1137e-06
21010.0 2.1392e-06
21030.0 2.1642e-06
21050.0 2.1882e-06
21070.0 2.2124e-06
21090.0 2.2368e-06
21110.0 2.2591e-06
21130.0 2.2801e-06
21150.0 2.3008e-06
21170.0 2.3197e-06
21190.0 2.3362e-06
21210.0 2.3517e-06
21230.0 2.3653e-06
21250.0 2.376e-06
21270.0 2.3843e-06
21290.0 2.3904e-06
21310.0 2.3936e-06
21330.0 2.3938e-06
21350.0 2.391e-06
21370.0 2.385e-06
21390.0 2.3757e-06
21410.0 2.3633e-06
21430.0 2.3465e-06
21450.0 2.3265e-06
21470.0 2.3037e-06
21490.0 2.277e-06
21510.0 2.2467e-06
21530.0 2.2148e-06
21550.0 2.1803e-06
21570.0 2.1423e-06
21590.0 2.1036e-06
21610.0 2.0649e-06
21630.0 2.0247e-06
21650.0 1.9838e-06
21670.0 1.9465e-06
21690.0 1.9102e-06
21710.0 1.8753e-06
21730.0 1.844e-06
21750.0 1.8169e-06
21770.0 1.7922e-06
21790.0 1.7721e-06
21810.0 1.7572e-06
21830.0 1.7467e-06
21850.0 1.7409e-06
21870.0 1.7401e-06
21890.0 1.7438e-06
21910.0 1.7522e-06
21930.0 1.7652e-06
21950.0 1.7817e-06
21970.0 1.8022e-06
21990.0 1.8275e-06
22010.0 1.8548e-06
22030.0 1.8844e-06
22050.0 1.9174e-06
22070.0 1.9526e-06
22090.0 1.9875e-06
22110.0 2.0245e-06
22130.0 2.0631e-06
22150.0 2.1006e-06
22170.0 2.1374e-06
22190.0 2.1752e-06
22210.0 2.2114e-06
22230.0 2.2442e-06
22250.0 2.2757e-06
22270.0 2.3052e-06
22290.0 2.3307e-06
22310.0 2.3527e-06
22330.0 2.372e-06
22350.0 2.3867e-06
22370.0 2.3968e-06
22390.0 2.4027e-06
22410.0 2.4038e-06
22430.0 2.4e-06
22450.0 2.3917e-06
22470.0 2.3781e-06
22490.0 2.3597e-06
22510.0 2.3375e-06
22530.0 2.3098e-06
22550.0 2.2768e-06
22570.0 2.2409e-06
22590.0 2.2011e-06
22610.0 2.1561e-06
22630.0 2.1079e-06
