#lamb flux
1010.0 1.7599e-05
1030.0 1.9582e-05
1050.0 2.2268e-05
1070.0 2.6284e-05
1090.0 3.1553e-05
1110.0 3.7207e-05
1130.0 4.3117e-05
1150.0 4.9443e-05
1170.0 5.6e-05
1190.0 6.2129e-05
1210.0 6.8045e-05
1230.0 7.3671e-05
1250.0 7.8879e-05
1270.0 8.3114e-05
1290.0 8.6664e-05
1310.0 8.9135e-05
1330.0 9.0299e-05
1350.0 9.045e-05
1370.0 8.9738e-05
1390.0 8.802e-05
1410.0 8.5456e-05
1430.0 8.2472e-05
1450.0 7.9047e-05
1470.0 7.5252e-05
1490.0 7.137e-05
1510.0 6.7606e-05
1530.0 6.3802e-05
1550.0 6.0156e-05
1570.0 5.6809e-05
1590.0 5.3739e-05
1610.0 5.1055e-05
1630.0 4.9363e-05
1650.0 4.8145e-05
1670.0 4.7365e-05
1690.0 4.7081e-05
1710.0 4.7378e-05
1730.0 4.824e-05
1750.0 4.9608e-05
1770.0 5.163e-05
1790.0 5.4327e-05
1810.0 5.7666e-05
1830.0 6.1696e-05
1850.0 6.6559e-05
1870.0 7.2162e-05
1890.0 7.8502e-05
1910.0 8.567e-05
1930.0 9.368e-05
1950.0 0.00010237
1970.0 0.00011177
1990.0 0.00012192
2010.0 0.00013263
2030.0 0.00014376
2050.0 0.00015536
2070.0 0.00016732
2090.0 0.00017926
2110.0 0.00019121
2130.0 0.00020314
2150.0 0.00021478
2170.0 0.00022591
2190.0 0.00023672
2210.0 0.00024704
2230.0 0.00025662
2250.0 0.00026557
2270.0 0.00027407
2290.0 0.00028183
2310.0 0.00028886
2330.0 0.00029551
2350.0 0.00030178
2370.0 0.0003076
2390.0 0.00031335
2410.0 0.0003195
2430.0 0.00032599
2450.0 0.00033317
2470.0 0.00034176
2490.0 0.00035215
2510.0 0.00036387
2530.0 0.00037803
2550.0 0.00039582
2570.0 0.0004177
2590.0 0.00044486
2610.0 0.00048203
2630.0 0.00052978
2650.0 0.00058638
2670.0 0.0006535
2690.0 0.00073032
2710.0 0.00080894
2730.0 0.00088607
2750.0 0.00096439
2770.0 0.0010396
2790.0 0.0011112
2810.0 0.0011843
2830.0 0.0012637
2850.0 0.0013443
2870.0 0.0014296
2890.0 0.0015228
2910.0 0.0016211
2930.0 0.0017204
2950.0 0.0018265
2970.0 0.0019384
2990.0 0.0020512
3010.0 0.002167
3030.0 0.0022896
3050.0 0.0024154
3070.0 0.002538
3090.0 0.0026629
3110.0 0.0027848
3130.0 0.0028954
3150.0 0.002992
3170.0 0.0030713
3190.0 0.0031287
3210.0 0.0031704
3230.0 0.0031997
3250.0 0.0032161
3270.0 0.003228
3290.0 0.0032426
3310.0 0.0032648
3330.0 0.0032953
3350.0 0.0033317
3370.0 0.0033712
3390.0 0.0033842
3410.0 0.0034056
3430.0 0.0035084
3450.0 0.0035811
3470.0 0.0035952
3490.0 0.003732
3510.0 0.0042807
3530.0 0.0052703
3550.0 0.0059695
3570.0 0.0065278
3590.0 0.0073475
3610.0 0.0073225
3630.0 0.0067483
3650.0 0.0070869
3670.0 0.0083625
3690.0 0.0093828
3710.0 0.0097252
3730.0 0.0098047
3750.0 0.010472
3770.0 0.01053
3790.0 0.010032
3810.0 0.0094571
3830.0 0.0089649
3850.0 0.0090246
3870.0 0.0094247
3890.0 0.0097124
3910.0 0.0098556
3930.0 0.0098613
3950.0 0.010553
3970.0 0.01137
3990.0 0.011055
4010.0 0.0098622
4030.0 0.0088858
4050.0 0.0088113
4070.0 0.0092099
4090.0 0.0091289
4110.0 0.0087854
4130.0 0.0087361
4150.0 0.0091438
4170.0 0.010105
4190.0 0.010617
4210.0 0.010002
4230.0 0.0092014
4250.0 0.0087082
4270.0 0.0083994
4290.0 0.0084547
4310.0 0.0086809
4330.0 0.00826
4350.0 0.0073204
4370.0 0.00653
4390.0 0.0059802
4410.0 0.0056781
4430.0 0.0058406
4450.0 0.0064268
4470.0 0.0070585
4490.0 0.0075482
4510.0 0.008352
4530.0 0.0098161
4550.0 0.011352
4570.0 0.012291
4590.0 0.013098
4610.0 0.013804
4630.0 0.013922
4650.0 0.01292
4670.0 0.011247
4690.0 0.00994
4710.0 0.0095038
4730.0 0.0090804
4750.0 0.0079912
4770.0 0.0071475
4790.0 0.0073649
4810.0 0.0079833
4830.0 0.0078053
4850.0 0.0069362
4870.0 0.0070961
4890.0 0.0072782
4910.0 0.0073825
4930.0 0.0072625
4950.0 0.0071263
4970.0 0.0068107
4990.0 0.0062908
5010.0 0.005922
5030.0 0.0058193
5050.0 0.005788
5070.0 0.0057784
5090.0 0.0057699
5110.0 0.0057628
5130.0 0.0058802
5150.0 0.006171
5170.0 0.0067182
5190.0 0.0074393
5210.0 0.0080205
5230.0 0.0083674
5250.0 0.0085615
5270.0 0.0088383
5290.0 0.0090556
5310.0 0.009008
5330.0 0.0086951
5350.0 0.0083883
5370.0 0.0083987
5390.0 0.0086173
5410.0 0.0087771
5430.0 0.008705
5450.0 0.0085787
5470.0 0.0083882
5490.0 0.0081946
5510.0 0.0081228
5530.0 0.0081623
5550.0 0.0082469
5570.0 0.0082776
5590.0 0.0080567
5610.0 0.0076524
5630.0 0.0072752
5650.0 0.0069364
5670.0 0.0067001
5690.0 0.0064307
5710.0 0.0062737
5730.0 0.006302
5750.0 0.0062364
5770.0 0.0061248
5790.0 0.0061813
5810.0 0.0063607
5830.0 0.0064981
5850.0 0.0065365
5870.0 0.0063738
5890.0 0.0061181
5910.0 0.0058909
5930.0 0.0055942
5950.0 0.0053434
5970.0 0.0053723
5990.0 0.0055022
6010.0 0.0054993
6030.0 0.0053107
6050.0 0.0052764
6070.0 0.00546
6090.0 0.0056469
6110.0 0.0056317
6130.0 0.0053506
6150.0 0.0049824
6170.0 0.0047785
6190.0 0.0046679
6210.0 0.0045702
6230.0 0.0044788
6250.0 0.0044758
6270.0 0.004603
6290.0 0.0047873
6310.0 0.0049952
6330.0 0.0052142
6350.0 0.0053475
6370.0 0.0053634
6390.0 0.0053333
6410.0 0.005376
6430.0 0.0054435
6450.0 0.0054409
6470.0 0.0054521
6490.0 0.0054839
6510.0 0.0054822
6530.0 0.0054157
6550.0 0.0052782
6570.0 0.0051101
6590.0 0.004963
6610.0 0.004848
6630.0 0.0047533
6650.0 0.0045988
6670.0 0.004428
6690.0 0.0042959
6710.0 0.0042202
6730.0 0.0041779
6750.0 0.0041373
6770.0 0.0040825
6790.0 0.0040085
6810.0 0.0039368
6830.0 0.0039139
6850.0 0.0038937
6870.0 0.0038604
6890.0 0.0038547
6910.0 0.0038027
6930.0 0.0037392
6950.0 0.0037304
6970.0 0.0036974
6990.0 0.0036206
7010.0 0.0035614
7030.0 0.0034979
7050.0 0.0034312
7070.0 0.0033497
7090.0 0.0032783
7110.0 0.0033258
7130.0 0.0034203
7150.0 0.0034947
7170.0 0.0035399
7190.0 0.003534
7210.0 0.0034888
7230.0 0.003432
7250.0 0.0033965
7270.0 0.0033366
7290.0 0.0032871
7310.0 0.0032597
7330.0 0.0032936
7350.0 0.0033031
7370.0 0.0032925
7390.0 0.0032622
7410.0 0.0032117
7430.0 0.003179
7450.0 0.0031457
7470.0 0.0030504
7490.0 0.0029483
7510.0 0.0028248
7530.0 0.0027256
7550.0 0.002673
7570.0 0.0027092
7590.0 0.0026919
7610.0 0.0026623
7630.0 0.0026355
7650.0 0.0026489
7670.0 0.0027041
7690.0 0.0028144
7710.0 0.00289
7730.0 0.002998
7750.0 0.003066
7770.0 0.0031215
7790.0 0.003127
7810.0 0.0030673
7830.0 0.0030768
7850.0 0.0030484
7870.0 0.0029721
7890.0 0.002872
7910.0 0.0027867
7930.0 0.0027226
7950.0 0.0026835
7970.0 0.0026849
7990.0 0.0027065
8010.0 0.0026991
8030.0 0.0026708
8050.0 0.0026218
8070.0 0.0025741
8090.0 0.0025216
8110.0 0.0025312
8130.0 0.0025536
8150.0 0.0025582
8170.0 0.0025369
8190.0 0.0025032
8210.0 0.0024051
8230.0 0.0022501
8250.0 0.0021548
8270.0 0.0020996
8290.0 0.0020729
8310.0 0.0020824
8330.0 0.0021295
8350.0 0.0020922
8370.0 0.0020468
8390.0 0.0020751
8410.0 0.0021404
8430.0 0.0022508
8450.0 0.0023521
8470.0 0.002379
8490.0 0.002401
8510.0 0.0023884
8530.0 0.0023743
8550.0 0.0023925
8570.0 0.0023954
8590.0 0.0023882
8610.0 0.0024538
8630.0 0.0024723
8650.0 0.0024187
8670.0 0.002414
8690.0 0.0024231
8710.0 0.0023898
8730.0 0.0023695
8750.0 0.0022972
8770.0 0.0022667
8790.0 0.0022423
8810.0 0.0022201
8830.0 0.0021232
8850.0 0.0019706
8870.0 0.0018525
8890.0 0.0017876
8910.0 0.0016782
8930.0 0.0015625
8950.0 0.0015213
8970.0 0.0015102
8990.0 0.0015119
9010.0 0.0015004
9030.0 0.0014897
9050.0 0.0014798
9070.0 0.0014702
9090.0 0.0014606
9110.0 0.0014511
9130.0 0.0014415
9150.0 0.001432
9170.0 0.0014225
9190.0 0.001413
9210.0 0.0014035
9230.0 0.001394
9250.0 0.0013846
9270.0 0.0013752
9290.0 0.0013659
9310.0 0.0013565
9330.0 0.0013472
9350.0 0.0013379
9370.0 0.0013286
9390.0 0.0013194
9410.0 0.0013102
9430.0 0.0013011
9450.0 0.0012918
9470.0 0.0012828
9490.0 0.001274
9510.0 0.001265
9530.0 0.001256
9550.0 0.0012471
9570.0 0.0012383
9590.0 0.0012295
9610.0 0.0012207
9630.0 0.001212
9650.0 0.0012033
9670.0 0.0011947
9690.0 0.0011862
9710.0 0.0011776
9730.0 0.0011692
9750.0 0.0011608
9770.0 0.0011524
9790.0 0.0011441
9810.0 0.0011359
9830.0 0.0011274
9850.0 0.0011178
9870.0 0.00111
9890.0 0.0011025
9910.0 0.0010948
9930.0 0.0010867
9950.0 0.001079
9970.0 0.0010714
9990.0 0.0010635
10010.0 0.0010548
10030.0 0.0010468
10050.0 0.0010397
10070.0 0.0010325
10090.0 0.0010253
10110.0 0.0010177
10130.0 0.0010093
10150.0 0.0010021
10170.0 0.00099516
10190.0 0.00098789
10210.0 0.00098082
10230.0 0.00097381
10250.0 0.00096656
10270.0 0.00095937
10290.0 0.00095243
10310.0 0.00094531
10330.0 0.00093804
10350.0 0.0009311
10370.0 0.00092421
10390.0 0.00091715
10410.0 0.00091016
10430.0 0.00090348
10450.0 0.00089662
10470.0 0.00088968
10490.0 0.00088298
10510.0 0.00087634
10530.0 0.00086939
10550.0 0.00086263
10570.0 0.00085612
10590.0 0.00084946
10610.0 0.00084272
10630.0 0.00083625
10650.0 0.00082978
10670.0 0.00082306
10690.0 0.00081652
10710.0 0.00081014
10730.0 0.0008036
10750.0 0.0007969
10770.0 0.00079061
10790.0 0.00078427
10810.0 0.00077774
10830.0 0.00077135
10850.0 0.00076519
10870.0 0.00075869
10890.0 0.00075226
10910.0 0.00074613
10930.0 0.00074003
10950.0 0.00073386
10970.0 0.000728
10990.0 0.00072253
11010.0 0.00071642
11030.0 0.00071162
11050.0 0.00070711
11070.0 0.00070265
11090.0 0.00069798
11110.0 0.0006935
11130.0 0.00068902
11150.0 0.00068432
11170.0 0.00067954
11190.0 0.00067491
11210.0 0.00067014
11230.0 0.00066525
11250.0 0.00066054
11270.0 0.00065597
11290.0 0.00065132
11310.0 0.0006468
11330.0 0.00064266
11350.0 0.00063857
11370.0 0.00063455
11390.0 0.00063081
11410.0 0.00062724
11430.0 0.0006236
11450.0 0.0006201
11470.0 0.00061676
11490.0 0.00061335
11510.0 0.0006098
11530.0 0.00060635
11550.0 0.00060283
11570.0 0.00059906
11590.0 0.00059518
11610.0 0.00059129
11630.0 0.00058712
11650.0 0.00058269
11670.0 0.00057834
11690.0 0.00057391
11710.0 0.00056927
11730.0 0.00056464
11750.0 0.00056021
11770.0 0.00055565
11790.0 0.0005511
11810.0 0.0005468
11830.0 0.00054262
11850.0 0.00053835
11870.0 0.00053436
11890.0 0.00053064
11910.0 0.00052697
11930.0 0.00052342
11950.0 0.00052018
11970.0 0.00051709
11990.0 0.00051405
12010.0 0.00051131
12030.0 0.00050884
12050.0 0.00050652
12070.0 0.00050442
12090.0 0.0005027
12110.0 0.00050122
12130.0 0.00049998
12150.0 0.00049908
12170.0 0.00049848
12190.0 0.00049815
12210.0 0.00049814
12230.0 0.00049842
12250.0 0.00049896
12270.0 0.00049979
12290.0 0.00050083
12310.0 0.00050204
12330.0 0.00050346
12350.0 0.000505
12370.0 0.00050658
12390.0 0.0005082
12410.0 0.00050988
12430.0 0.0005114
12450.0 0.00051279
12470.0 0.00051403
12490.0 0.00051502
12510.0 0.0005157
12530.0 0.00051608
12550.0 0.00051607
12570.0 0.00051566
12590.0 0.00051484
12610.0 0.0005135
12630.0 0.00051169
12650.0 0.00050954
12670.0 0.00050691
12690.0 0.0005038
12710.0 0.00050044
12730.0 0.0004968
12750.0 0.00049266
12770.0 0.00048839
12790.0 0.00048408
12810.0 0.00047955
12830.0 0.00047481
12850.0 0.00047027
12870.0 0.00046577
12890.0 0.00046111
12910.0 0.00045658
12930.0 0.00045228
12950.0 0.00044787
12970.0 0.00044346
12990.0 0.00043936
13010.0 0.00043534
13030.0 0.00043128
13050.0 0.00042738
13070.0 0.00042375
13090.0 0.00042007
13110.0 0.00041651
13130.0 0.00041321
13150.0 0.00041007
13170.0 0.00040693
13190.0 0.00040409
13210.0 0.00040152
13230.0 0.00039902
13250.0 0.00039668
13270.0 0.00039459
13290.0 0.00039258
13310.0 0.0003906
13330.0 0.00038877
13350.0 0.00038702
13370.0 0.00038523
13390.0 0.0003834
13410.0 0.00038168
13430.0 0.00037987
13450.0 0.00037795
13470.0 0.00037602
13490.0 0.00037408
13510.0 0.00037194
13530.0 0.00036974
13550.0 0.00036757
13570.0 0.0003653
13590.0 0.00036289
13610.0 0.00036052
13630.0 0.00035817
13650.0 0.00035566
13670.0 0.00035314
13690.0 0.00035068
13710.0 0.00034816
13730.0 0.00034547
13750.0 0.00034292
13770.0 0.00034037
13790.0 0.00033771
13810.0 0.00033502
13830.0 0.00033243
13850.0 0.00032971
13870.0 0.00032688
13890.0 0.0003241
13910.0 0.00032129
13930.0 0.00031831
13950.0 0.00031527
13970.0 0.00031234
13990.0 0.00030925
14010.0 0.00030605
14030.0 0.00030291
14050.0 0.00029977
14070.0 0.00029641
14090.0 0.00029314
14110.0 0.00028998
14130.0 0.00028678
14150.0 0.00028355
14170.0 0.00028056
14190.0 0.00027766
14210.0 0.00027475
14230.0 0.00027201
14250.0 0.00026946
14270.0 0.00026691
14290.0 0.00026443
14310.0 0.00026217
14330.0 0.00025997
14350.0 0.00025777
14370.0 0.00025566
14390.0 0.00025368
14410.0 0.00025165
14430.0 0.00024965
14450.0 0.00024776
14470.0 0.00024591
14490.0 0.00024402
14510.0 0.00024226
14530.0 0.00024061
14550.0 0.00023896
14570.0 0.00023738
14590.0 0.00023592
14610.0 0.0002345
14630.0 0.00023309
14650.0 0.00023178
14670.0 0.00023056
14690.0 0.00022934
14710.0 0.00022817
14730.0 0.00022712
14750.0 0.00022611
14770.0 0.00022515
14790.0 0.00022428
14810.0 0.00022352
14830.0 0.00022282
14850.0 0.00022224
14870.0 0.0002218
14890.0 0.00022146
14910.0 0.00022123
14930.0 0.00022109
14950.0 0.00022102
14970.0 0.00022098
14990.0 0.00022093
15010.0 0.00022085
15030.0 0.00022072
15050.0 0.00022052
15070.0 0.00022027
15090.0 0.00021997
15110.0 0.00021963
15130.0 0.00021926
15150.0 0.0002189
15170.0 0.00021852
15190.0 0.00021813
15210.0 0.00021774
15230.0 0.00021736
15250.0 0.00021697
15270.0 0.00021657
15290.0 0.00021619
15310.0 0.0002158
15330.0 0.00021541
15350.0 0.00021503
15370.0 0.00021464
15390.0 0.00021424
15410.0 0.00021385
15430.0 0.00021347
15450.0 0.00021308
15470.0 0.00021268
15490.0 0.0002123
15510.0 0.00021191
15530.0 0.00021152
15550.0 0.00021113
15570.0 0.00021076
15590.0 0.00021036
15610.0 0.00020997
15630.0 0.00020959
15650.0 0.00020921
15670.0 0.00020882
15690.0 0.00020844
15710.0 0.00020807
15730.0 0.00020769
15750.0 0.0002073
15770.0 0.00020693
15790.0 0.00020656
15810.0 0.00020617
15830.0 0.0002058
15850.0 0.00020544
15870.0 0.00020506
15890.0 0.00020469
15910.0 0.00020433
15930.0 0.00020397
15950.0 0.00020359
15970.0 0.00020323
15990.0 0.00020287
16010.0 0.00020251
16030.0 0.00020214
16050.0 0.0002018
16070.0 0.00020145
16090.0 0.00020109
16110.0 0.00020074
16130.0 0.0002004
16150.0 0.00020004
16170.0 0.00019969
16190.0 0.00019936
16210.0 0.00019902
16230.0 0.00019867
16250.0 0.00019833
16270.0 0.00019801
16290.0 0.00019767
16310.0 0.00019733
16330.0 0.00019701
16350.0 0.00019668
16370.0 0.00019634
16390.0 0.00019602
16410.0 0.0001957
16430.0 0.00019538
16450.0 0.00019506
16470.0 0.00019475
16490.0 0.00019443
16510.0 0.00019411
16530.0 0.0001938
16550.0 0.0001935
16570.0 0.00019318
16590.0 0.00019287
16610.0 0.00019258
16630.0 0.00019227
16650.0 0.00019196
16670.0 0.00019167
16690.0 0.00019138
16710.0 0.00019107
16730.0 0.00019077
16750.0 0.00019048
16770.0 0.00019019
16790.0 0.00018989
16810.0 0.0001896
16830.0 0.00018932
16850.0 0.00018902
16870.0 0.00018874
16890.0 0.00018846
16910.0 0.00018817
16930.0 0.00018788
16950.0 0.0001876
16970.0 0.00018732
16990.0 0.00018703
17010.0 0.00018675
17030.0 0.00018648
17050.0 0.0001862
17070.0 0.00018591
17090.0 0.00018564
17110.0 0.00018536
17130.0 0.00018507
17150.0 0.0001848
17170.0 0.00018453
17190.0 0.00018425
17210.0 0.00018397
17230.0 0.0001837
17250.0 0.00018342
17270.0 0.00018313
17290.0 0.00018286
17310.0 0.00018258
17330.0 0.0001823
17350.0 0.00018202
17370.0 0.00018175
17390.0 0.00018147
17410.0 0.00018118
17430.0 0.0001809
17450.0 0.00018063
17470.0 0.00018034
17490.0 0.00018005
17510.0 0.00017977
17530.0 0.00017949
17550.0 0.00017919
17570.0 0.00017891
17590.0 0.00017863
17610.0 0.00017833
17630.0 0.00017804
17650.0 0.00017775
17670.0 0.00017746
17690.0 0.00017715
17710.0 0.00017686
17730.0 0.00017656
17750.0 0.00017626
17770.0 0.00017595
17790.0 0.00017566
17810.0 0.00017535
17830.0 0.00017503
17850.0 0.00017473
17870.0 0.00017442
17890.0 0.0001741
17910.0 0.00017378
17930.0 0.00017347
17950.0 0.00017314
17970.0 0.00017281
17990.0 0.00017249
18010.0 0.00017217
18030.0 0.00017183
18050.0 0.00017149
18070.0 0.00017116
18090.0 0.00017082
18110.0 0.00017047
18130.0 0.00017014
18150.0 0.00016979
18170.0 0.00016944
18190.0 0.00016909
18210.0 0.00016874
18230.0 0.00016837
18250.0 0.000168
18270.0 0.00016765
18290.0 0.00016728
18310.0 0.00016691
18330.0 0.00016653
18350.0 0.00016617
18370.0 0.00016578
18390.0 0.00016539
18410.0 0.00016501
18430.0 0.00016463
18450.0 0.00016422
18470.0 0.00016383
18490.0 0.00016344
18510.0 0.00016304
18530.0 0.00016263
18550.0 0.00016223
18570.0 0.00016182
18590.0 0.0001614
18610.0 0.00016098
18630.0 0.00016056
18650.0 0.00016014
18670.0 0.0001597
18690.0 0.00015928
18710.0 0.00015885
18730.0 0.00015841
18750.0 0.00015797
18770.0 0.00015754
18790.0 0.00015708
18810.0 0.00015663
18830.0 0.00015618
18850.0 0.00015573
18870.0 0.00015526
18890.0 0.00015481
18910.0 0.00015435
18930.0 0.00015388
18950.0 0.00015341
18970.0 0.00015294
18990.0 0.00015246
19010.0 0.00015197
19030.0 0.0001515
19050.0 0.00015102
19070.0 0.00015053
19090.0 0.00015004
19110.0 0.00014956
19130.0 0.00014906
19150.0 0.00014855
19170.0 0.00014806
19190.0 0.00014756
19210.0 0.00014705
19230.0 0.00014654
19250.0 0.00014604
19270.0 0.00014552
19290.0 0.000145
19310.0 0.00014449
19330.0 0.00014398
19350.0 0.00014345
19370.0 0.00014293
19390.0 0.00014241
19410.0 0.00014188
19430.0 0.00014135
19450.0 0.00014082
19470.0 0.00014029
19490.0 0.00013975
19510.0 0.00013922
19530.0 0.00013869
19550.0 0.00013815
19570.0 0.0001376
19590.0 0.00013707
19610.0 0.00013653
19630.0 0.00013598
19650.0 0.00013544
19670.0 0.0001349
19690.0 0.00013435
19710.0 0.0001338
19730.0 0.00013325
19750.0 0.00013271
19770.0 0.00013215
19790.0 0.0001316
19810.0 0.00013105
19830.0 0.0001305
19850.0 0.00012994
19870.0 0.00012938
19890.0 0.0001288
19910.0 0.00012819
19930.0 0.00012755
19950.0 0.00012685
19970.0 0.00012605
19990.0 0.00012514
20010.0 0.00012413
20030.0 0.00012297
20050.0 0.00012167
20070.0 0.0001203
20090.0 0.00011885
20110.0 0.00011726
20130.0 0.00011568
20150.0 0.00011413
20170.0 0.00011255
20190.0 0.00011096
20210.0 0.00010946
20230.0 0.00010799
20250.0 0.00010651
20270.0 0.00010511
20290.0 0.0001038
20310.0 0.00010251
20330.0 0.00010125
20350.0 0.00010013
20370.0 9.905e-05
20390.0 9.8012e-05
20410.0 9.7053e-05
20430.0 9.6176e-05
20450.0 9.5324e-05
20470.0 9.4533e-05
20490.0 9.3819e-05
20510.0 9.3152e-05
20530.0 9.2522e-05
20550.0 9.1952e-05
20570.0 9.1437e-05
20590.0 9.0952e-05
20610.0 9.0506e-05
20630.0 9.0103e-05
20650.0 8.9728e-05
20670.0 8.9373e-05
20690.0 8.9049e-05
20710.0 8.8743e-05
20730.0 8.8446e-05
20750.0 8.8155e-05
20770.0 8.7869e-05
20790.0 8.7576e-05
20810.0 8.7269e-05
20830.0 8.6947e-05
20850.0 8.6606e-05
20870.0 8.6231e-05
20890.0 8.5822e-05
20910.0 8.5391e-05
20930.0 8.4919e-05
20950.0 8.4402e-05
20970.0 8.3859e-05
20990.0 8.3287e-05
21010.0 8.2659e-05
21030.0 8.2005e-05
21050.0 8.1339e-05
21070.0 8.064e-05
21090.0 7.9899e-05
21110.0 7.9171e-05
21130.0 7.8438e-05
21150.0 7.7676e-05
21170.0 7.6916e-05
21190.0 7.618e-05
21210.0 7.5425e-05
21230.0 7.4664e-05
21250.0 7.3941e-05
21270.0 7.3233e-05
21290.0 7.252e-05
21310.0 7.183e-05
21330.0 7.1184e-05
21350.0 7.0537e-05
21370.0 6.9904e-05
21390.0 6.9307e-05
21410.0 6.8731e-05
21430.0 6.8146e-05
21450.0 6.7595e-05
21470.0 6.7074e-05
21490.0 6.6554e-05
21510.0 6.6041e-05
21530.0 6.5556e-05
21550.0 6.5078e-05
21570.0 6.4593e-05
21590.0 6.4124e-05
21610.0 6.367e-05
21630.0 6.3208e-05
21650.0 6.2739e-05
21670.0 6.2299e-05
21690.0 6.1855e-05
21710.0 6.1401e-05
21730.0 6.0957e-05
21750.0 6.0526e-05
21770.0 6.0072e-05
21790.0 5.962e-05
21810.0 5.9183e-05
21830.0 5.8741e-05
21850.0 5.8283e-05
21870.0 5.7835e-05
21890.0 5.7399e-05
21910.0 5.6945e-05
21930.0 5.6488e-05
21950.0 5.6045e-05
21970.0 5.5595e-05
21990.0 5.5123e-05
22010.0 5.4673e-05
22030.0 5.4228e-05
22050.0 5.3772e-05
22070.0 5.3317e-05
22090.0 5.2886e-05
22110.0 5.245e-05
22130.0 5.201e-05
22150.0 5.1591e-05
22170.0 5.1188e-05
22190.0 5.0777e-05
22210.0 5.0382e-05
22230.0 5.002e-05
22250.0 4.9662e-05
22270.0 4.9312e-05
22290.0 4.899e-05
22310.0 4.8687e-05
22330.0 4.8383e-05
22350.0 4.81e-05
22370.0 4.784e-05
22390.0 4.7587e-05
22410.0 4.7337e-05
22430.0 4.7113e-05
22450.0 4.6899e-05
22470.0 4.6685e-05
22490.0 4.6482e-05
22510.0 4.6295e-05
22530.0 4.6104e-05
22550.0 4.5914e-05
22570.0 4.574e-05
22590.0 4.5572e-05
22610.0 4.5401e-05
22630.0 4.5239e-05
22650.0 4.5093e-05
22670.0 4.4945e-05
22690.0 4.4802e-05
22710.0 4.4674e-05
22730.0 4.4556e-05
22750.0 4.4437e-05
22770.0 4.4336e-05
22790.0 4.4252e-05
22810.0 4.4175e-05
22830.0 4.4112e-05
22850.0 4.407e-05
22870.0 4.4042e-05
22890.0 4.4029e-05
22910.0 4.404e-05
22930.0 4.4073e-05
22950.0 4.4127e-05
22970.0 4.4206e-05
22990.0 4.4312e-05
23010.0 4.4444e-05
23030.0 4.4605e-05
23050.0 4.4791e-05
