#lamb flux
1010.0 2.9768e-08
1030.0 3.2573e-08
1050.0 3.5798e-08
1070.0 3.943e-08
1090.0 4.3555e-08
1110.0 4.7785e-08
1130.0 5.2043e-08
1150.0 5.6503e-08
1170.0 6.1104e-08
1190.0 6.5467e-08
1210.0 6.9888e-08
1230.0 7.4457e-08
1250.0 7.8933e-08
1270.0 8.328e-08
1290.0 8.7874e-08
1310.0 9.2463e-08
1330.0 9.6865e-08
1350.0 1.0132e-07
1370.0 1.0591e-07
1390.0 1.1039e-07
1410.0 1.1474e-07
1430.0 1.1928e-07
1450.0 1.2382e-07
1470.0 1.2821e-07
1490.0 1.3265e-07
1510.0 1.3734e-07
1530.0 1.4178e-07
1550.0 1.4616e-07
1570.0 1.5069e-07
1590.0 1.5522e-07
1610.0 1.5955e-07
1630.0 1.6401e-07
1650.0 1.6858e-07
1670.0 1.7301e-07
1690.0 1.7738e-07
1710.0 1.8191e-07
1730.0 1.8646e-07
1750.0 1.9074e-07
1770.0 1.9513e-07
1790.0 1.9961e-07
1810.0 2.0394e-07
1830.0 2.0818e-07
1850.0 2.1268e-07
1870.0 2.1705e-07
1890.0 2.2125e-07
1910.0 2.2553e-07
1930.0 2.2989e-07
1950.0 2.3402e-07
1970.0 2.3808e-07
1990.0 2.4228e-07
2010.0 2.4637e-07
2030.0 2.5027e-07
2050.0 2.5426e-07
2070.0 2.5831e-07
2090.0 2.6207e-07
2110.0 2.6576e-07
2130.0 2.6952e-07
2150.0 2.7313e-07
2170.0 2.7649e-07
2190.0 2.7994e-07
2210.0 2.8333e-07
2230.0 2.8646e-07
2250.0 2.8949e-07
2270.0 2.9261e-07
2290.0 2.955e-07
2310.0 2.9813e-07
2330.0 3.0081e-07
2350.0 3.035e-07
2370.0 3.0606e-07
2390.0 3.0888e-07
2410.0 3.1243e-07
2430.0 3.1671e-07
2450.0 3.2211e-07
2470.0 3.2951e-07
2490.0 3.393e-07
2510.0 3.5063e-07
2530.0 3.6469e-07
2550.0 3.8285e-07
2570.0 4.0588e-07
2590.0 4.3621e-07
2610.0 4.8204e-07
2630.0 5.4699e-07
2650.0 6.3055e-07
2670.0 7.3678e-07
2690.0 8.6484e-07
2710.0 9.9812e-07
2730.0 1.1261e-06
2750.0 1.2487e-06
2770.0 1.3508e-06
2790.0 1.4269e-06
2810.0 1.4828e-06
2830.0 1.5218e-06
2850.0 1.5428e-06
2870.0 1.5537e-06
2890.0 1.5588e-06
2910.0 1.5596e-06
2930.0 1.5577e-06
2950.0 1.5553e-06
2970.0 1.5528e-06
2990.0 1.5499e-06
3010.0 4.9242e-05
3030.0 4.9159e-05
3050.0 4.9076e-05
3070.0 4.896e-05
3090.0 4.8815e-05
3110.0 4.8589e-05
3130.0 4.822e-05
3150.0 4.7662e-05
3170.0 4.6821e-05
3190.0 4.571e-05
3210.0 4.4408e-05
3230.0 4.297e-05
3250.0 4.1498e-05
3270.0 4.0397e-05
3290.0 3.9576e-05
3310.0 3.9412e-05
3330.0 3.9704e-05
3350.0 4.0437e-05
3370.0 4.1603e-05
3390.0 4.3147e-05
3410.0 4.4868e-05
3430.0 4.683e-05
3450.0 4.9112e-05
3470.0 5.1628e-05
3490.0 5.4327e-05
3510.0 5.7401e-05
3530.0 6.0751e-05
3550.0 6.4316e-05
3570.0 6.8216e-05
3590.0 7.2547e-05
3610.0 7.7322e-05
3630.0 8.205e-05
3650.0 8.7045e-05
3670.0 9.1538e-05
3690.0 9.4871e-05
3710.0 9.6561e-05
3730.0 9.5679e-05
3750.0 9.2349e-05
3770.0 9.4424e-05
3790.0 9.2905e-05
3810.0 7.4585e-05
3830.0 7.3227e-05
3850.0 0.00010448
3870.0 0.00010417
3890.0 8.2126e-05
3910.0 7.7753e-05
3930.0 9.4208e-05
3950.0 0.00011061
3970.0 0.00012084
3990.0 8.3004e-05
4010.0 0.00017568
4030.0 0.00018055
4050.0 0.00019887
4070.0 0.00021159
4090.0 0.00019806
4110.0 0.00017042
4130.0 0.00019894
4150.0 0.00026073
4170.0 0.00021146
4190.0 0.00019222
4210.0 0.00021286
4230.0 0.00025755
4250.0 0.00030937
4270.0 0.00033355
4290.0 0.00029553
4310.0 0.00027731
4330.0 0.00027606
4350.0 0.00034718
4370.0 0.00041973
4390.0 0.00033958
4410.0 0.00019481
4430.0 0.00014175
4450.0 0.00013301
4470.0 8.2348e-05
4490.0 0.00013521
4510.0 0.00028789
4530.0 0.00034998
4550.0 0.0003288
4570.0 0.00030052
4590.0 0.00032237
4610.0 0.00061844
4630.0 0.00086539
4650.0 0.00082932
4670.0 0.00073167
4690.0 0.00074043
4710.0 0.00077419
4730.0 0.00064534
4750.0 0.00042551
4770.0 0.00029139
4790.0 0.00031762
4810.0 0.00033252
4830.0 0.00032665
4850.0 0.00035435
4870.0 0.00046935
4890.0 0.00054437
4910.0 0.0004282
4930.0 0.0004132
4950.0 0.00047449
4970.0 0.00062892
4990.0 0.00084996
5010.0 0.00098434
5030.0 0.00079398
5050.0 0.00049117
5070.0 0.00034644
5090.0 0.00026331
5110.0 0.0002478
5130.0 0.00029788
5150.0 0.00029165
5170.0 0.00027489
5190.0 0.00024468
5210.0 0.00027234
5230.0 0.00033445
5250.0 0.00038821
5270.0 0.00036277
5290.0 0.00039139
5310.0 0.00052148
5330.0 0.00056235
5350.0 0.00055452
5370.0 0.00061971
5390.0 0.00076945
5410.0 0.00066677
5430.0 0.00051792
5450.0 0.00051881
5470.0 0.00059902
5490.0 0.00074779
5510.0 0.00091115
5530.0 0.0010566
5550.0 0.0009592
5570.0 0.00086123
5590.0 0.00071025
5610.0 0.0007157
5630.0 0.00079707
5650.0 0.0007348
5670.0 0.00067666
5690.0 0.00054983
5710.0 0.00056407
5730.0 0.00054637
5750.0 0.0003022
5770.0 0.00021643
5790.0 0.00026686
5810.0 0.00028186
5830.0 0.00043403
5850.0 0.00056512
5870.0 0.00060929
5890.0 0.00058386
5910.0 0.00056868
5930.0 0.00054633
5950.0 0.0005631
5970.0 0.0006967
5990.0 0.00057698
6010.0 0.00044647
6030.0 0.00036516
6050.0 0.00032554
6070.0 0.0003841
6090.0 0.00043088
6110.0 0.00044159
6130.0 0.00040974
6150.0 0.00032385
6170.0 0.00025214
6190.0 0.00030556
6210.0 0.00048082
6230.0 0.00070788
6250.0 0.00076387
6270.0 0.00058777
6290.0 0.00050312
6310.0 0.00038416
6330.0 0.0002805
6350.0 0.00027445
6370.0 0.00028813
6390.0 0.00034398
6410.0 0.0004447
6430.0 0.00053483
6450.0 0.00065445
6470.0 0.00069276
6490.0 0.00082974
6510.0 0.00093061
6530.0 0.00094913
6550.0 0.00087289
6570.0 0.00070059
6590.0 0.00066522
6610.0 0.00055157
6630.0 0.00057098
6650.0 0.00055468
6670.0 0.00048554
6690.0 0.00037717
6710.0 0.00036798
6730.0 0.00016132
6750.0 0.00021656
6770.0 0.00033982
6790.0 0.00044946
6810.0 0.00032084
6830.0 0.00032761
6850.0 0.00027289
6870.0 0.0002553
6890.0 0.00021578
6910.0 0.00026252
6930.0 0.00024714
6950.0 0.00029541
6970.0 0.00030691
6990.0 0.00034071
7010.0 0.00032912
7030.0 0.00037675
7050.0 0.00032655
7070.0 0.0002724
7090.0 0.00029216
7110.0 0.00030998
7130.0 0.00035675
7150.0 0.0004043
7170.0 0.00045329
7190.0 0.00048405
7210.0 0.00043153
7230.0 0.00043702
7250.0 0.00046841
7270.0 0.0005028
7290.0 0.00061946
7310.0 0.00065485
7330.0 0.00061259
7350.0 0.00054865
7370.0 0.00040694
7390.0 0.00041972
7410.0 0.00051407
7430.0 0.00058585
7450.0 0.00063119
7470.0 0.00057754
7490.0 0.00046117
7510.0 0.00074347
7530.0 0.00067749
7550.0 0.00063903
7570.0 0.00043418
7590.0 0.0001927
7610.0 0.00013605
7630.0 0.00020654
7650.0 0.00027772
7670.0 0.00044209
7690.0 0.0004926
7710.0 0.00044516
7730.0 0.00044187
7750.0 0.00058009
7770.0 0.0005962
7790.0 0.00054516
7810.0 0.00044071
7830.0 0.00047755
7850.0 0.00052338
7870.0 0.00051176
7890.0 0.00040004
7910.0 0.0002689
7930.0 0.0002786
7950.0 0.00025168
7970.0 0.00021202
7990.0 0.00019169
8010.0 0.00010072
8030.0 9.1912e-05
8050.0 9.9797e-05
8070.0 0.00011312
8090.0 0.0001389
8110.0 0.00013028
8130.0 7.6232e-05
8150.0 7.9418e-05
8170.0 4.3185e-05
8190.0 2.4934e-05
8210.0 7.0492e-05
8230.0 8.5644e-05
8250.0 3.1368e-05
8270.0 2.4194e-05
8290.0 5.0594e-05
8310.0 4.5073e-05
8330.0 2.7505e-05
8350.0 2.2221e-05
8370.0 4.5777e-06
8390.0 2.3739e-05
8410.0 2.7389e-05
8430.0 3.4048e-05
8450.0 3.8331e-05
8470.0 6.5442e-05
8490.0 5.2858e-05
8510.0 3.9989e-05
8530.0 1.8455e-05
8550.0 7.2519e-05
8570.0 0.00011414
8590.0 7.7627e-05
8610.0 0.00011804
8630.0 0.00012783
8650.0 6.5076e-05
8670.0 9.9449e-05
8690.0 0.00015911
8710.0 0.00013592
8730.0 0.00014727
8750.0 0.00011485
8770.0 0.00010165
8790.0 0.00011362
8810.0 0.00012404
8830.0 6.7183e-05
8850.0 2.7081e-05
8870.0 1.8819e-05
8890.0 5.2282e-05
8910.0 8.4357e-05
8930.0 0.00011247
8950.0 0.00012561
8970.0 0.00012076
8990.0 8.9522e-05
9010.0 8.5148e-05
9030.0 6.428e-05
9050.0 6.6829e-05
9070.0 6.9495e-05
9090.0 7.1663e-05
9110.0 7.429e-05
9130.0 7.6186e-05
9150.0 7.7537e-05
9170.0 7.8975e-05
9190.0 8.0515e-05
9210.0 8.213e-05
9230.0 8.3839e-05
9250.0 8.5562e-05
9270.0 8.7343e-05
9290.0 8.9169e-05
9310.0 9.0989e-05
9330.0 9.2835e-05
9350.0 9.4744e-05
9370.0 9.6661e-05
9390.0 9.8583e-05
9410.0 0.00010055
9430.0 0.00010258
9450.0 0.00010458
9470.0 0.00010662
9490.0 0.00010871
9510.0 0.00011082
9530.0 0.00011292
9550.0 0.0001151
9570.0 0.00011731
9590.0 0.00011952
9610.0 0.00012176
9630.0 0.00012406
9650.0 0.00012637
9670.0 0.00012868
9690.0 0.00013105
9710.0 0.00013345
9730.0 0.00013586
9750.0 0.00013829
9770.0 0.00014081
9790.0 0.0001433
9810.0 0.00014581
9830.0 0.00014838
9850.0 0.00015097
9870.0 0.00015355
9890.0 0.00015617
9910.0 0.00015884
9930.0 0.00016151
9950.0 0.00016419
9970.0 0.00016692
9990.0 0.00016969
10010.0 0.00015117
10030.0 0.00015359
10050.0 0.00015604
10070.0 0.00015846
10090.0 0.00016091
10110.0 0.00016341
10130.0 0.00016591
10150.0 0.00016838
10170.0 0.00017089
10190.0 0.00017342
10210.0 0.00017593
10230.0 0.00017842
10250.0 0.00018095
10270.0 0.00018348
10290.0 0.00018597
10310.0 0.0001885
10330.0 0.00019104
10350.0 0.00019354
10370.0 0.00019603
10390.0 0.00019855
10410.0 0.00020105
10430.0 0.0002035
10450.0 0.00020596
10470.0 0.00020844
10490.0 0.00021086
10510.0 0.00021326
10530.0 0.0002157
10550.0 0.00021809
10570.0 0.00022043
10590.0 0.00022278
10610.0 0.00022511
10630.0 0.00022738
10650.0 0.00022963
10670.0 0.00023189
10690.0 0.0002341
10710.0 0.00023625
10730.0 0.00023841
10750.0 0.00024055
10770.0 0.0002426
10790.0 0.00024463
10810.0 0.00024664
10830.0 0.00024859
10850.0 0.00025043
10870.0 0.00025224
10890.0 0.00025387
10910.0 0.0002552
10930.0 0.00025614
10950.0 0.00025646
10970.0 0.00025595
10990.0 0.00025454
11010.0 0.00025305
11030.0 0.0002492
11050.0 0.00024437
11070.0 0.0002385
11090.0 0.0002314
11110.0 0.00022403
11130.0 0.00021635
11150.0 0.00020809
11170.0 0.00019962
11190.0 0.00019143
11210.0 0.00018303
11230.0 0.00017446
11250.0 0.00016633
11270.0 0.00015855
11290.0 0.00015079
11310.0 0.00014347
11330.0 0.00013702
11350.0 0.00013091
11370.0 0.00012525
11390.0 0.00012031
11410.0 0.00011594
11430.0 0.00011183
11450.0 0.00010821
11470.0 0.00010501
11490.0 0.00010198
11510.0 9.9018e-05
11530.0 9.623e-05
11550.0 9.3452e-05
11570.0 9.051e-05
11590.0 8.7489e-05
11610.0 8.4441e-05
11630.0 8.1172e-05
11650.0 7.7718e-05
11670.0 7.4337e-05
11690.0 7.0935e-05
11710.0 6.7451e-05
11730.0 6.4084e-05
11750.0 6.0962e-05
11770.0 5.7901e-05
11790.0 5.5021e-05
11810.0 5.2458e-05
11830.0 5.014e-05
11850.0 4.7981e-05
11870.0 4.6132e-05
11890.0 4.4554e-05
11910.0 4.3133e-05
11930.0 4.1875e-05
11950.0 4.079e-05
11970.0 3.9797e-05
11990.0 3.8847e-05
12010.0 3.7957e-05
12030.0 3.71e-05
12050.0 3.6225e-05
12070.0 3.5328e-05
12090.0 3.4464e-05
12110.0 3.3591e-05
12130.0 3.2713e-05
12150.0 3.1884e-05
12170.0 3.1126e-05
12190.0 3.0422e-05
12210.0 2.984e-05
12230.0 2.9408e-05
12250.0 2.913e-05
12270.0 2.9038e-05
12290.0 2.914e-05
12310.0 2.9421e-05
12330.0 2.9923e-05
12350.0 3.0623e-05
12370.0 3.1465e-05
12390.0 3.2477e-05
12410.0 3.3701e-05
12430.0 3.4957e-05
12450.0 3.6266e-05
12470.0 3.767e-05
12490.0 3.9081e-05
12510.0 4.0394e-05
12530.0 4.1698e-05
12550.0 4.2948e-05
12570.0 4.4032e-05
12590.0 4.4964e-05
12610.0 4.5779e-05
12630.0 4.6398e-05
12650.0 4.678e-05
12670.0 4.6984e-05
12690.0 4.6984e-05
12710.0 4.6771e-05
12730.0 4.637e-05
12750.0 4.5766e-05
12770.0 4.4989e-05
12790.0 4.4077e-05
12810.0 4.3019e-05
12830.0 4.1821e-05
12850.0 4.0579e-05
12870.0 3.9279e-05
12890.0 3.7892e-05
12910.0 3.6491e-05
12930.0 3.5117e-05
12950.0 3.3697e-05
12970.0 3.2262e-05
12990.0 3.0906e-05
13010.0 2.9571e-05
13030.0 2.8228e-05
13050.0 2.6937e-05
13070.0 2.5724e-05
13090.0 2.4508e-05
13110.0 2.3328e-05
13130.0 2.2232e-05
13150.0 2.1187e-05
13170.0 2.0158e-05
13190.0 1.923e-05
13210.0 1.84e-05
13230.0 1.7627e-05
13250.0 1.6944e-05
13270.0 1.6381e-05
13290.0 1.5915e-05
13310.0 1.5554e-05
13330.0 1.5324e-05
13350.0 1.5217e-05
13370.0 1.5238e-05
13390.0 1.5395e-05
13410.0 1.5659e-05
13430.0 1.6039e-05
13450.0 1.654e-05
13470.0 1.7118e-05
13490.0 1.7749e-05
13510.0 1.8482e-05
13530.0 1.9241e-05
13550.0 1.9981e-05
13570.0 2.0725e-05
13590.0 2.1465e-05
13610.0 2.2135e-05
13630.0 2.273e-05
13650.0 2.3285e-05
13670.0 2.3757e-05
13690.0 2.4131e-05
13710.0 2.443e-05
13730.0 2.4657e-05
13750.0 2.4783e-05
13770.0 2.4834e-05
13790.0 2.4813e-05
13810.0 2.4721e-05
13830.0 2.4569e-05
13850.0 2.4355e-05
13870.0 2.4079e-05
13890.0 2.376e-05
13910.0 2.3398e-05
13930.0 2.298e-05
13950.0 2.2524e-05
13970.0 2.2058e-05
13990.0 2.1554e-05
14010.0 2.102e-05
14030.0 2.049e-05
14050.0 1.9958e-05
14070.0 1.9398e-05
14090.0 1.8863e-05
14110.0 1.836e-05
14130.0 1.7873e-05
14150.0 1.7413e-05
14170.0 1.7018e-05
14190.0 1.6674e-05
14210.0 1.6377e-05
14230.0 1.6152e-05
14250.0 1.5999e-05
14270.0 1.5913e-05
14290.0 1.5906e-05
14310.0 1.5971e-05
14330.0 1.6105e-05
14350.0 1.6315e-05
14370.0 1.6584e-05
14390.0 1.6897e-05
14410.0 1.7273e-05
14430.0 1.7694e-05
14450.0 1.8132e-05
14470.0 1.8594e-05
14490.0 1.9095e-05
14510.0 1.9582e-05
14530.0 2.0054e-05
14550.0 2.0535e-05
14570.0 2.1005e-05
14590.0 2.1441e-05
14610.0 2.1869e-05
14630.0 2.2299e-05
14650.0 2.2706e-05
14670.0 2.3101e-05
14690.0 2.3514e-05
14710.0 2.3947e-05
14730.0 2.4379e-05
14750.0 2.4854e-05
14770.0 2.5387e-05
14790.0 2.5961e-05
14810.0 2.6579e-05
14830.0 2.7304e-05
14850.0 2.8089e-05
14870.0 2.8906e-05
14890.0 2.9784e-05
14910.0 3.0715e-05
14930.0 3.1613e-05
14950.0 3.2454e-05
14970.0 3.3254e-05
14990.0 3.3933e-05
15010.0 3.4463e-05
15030.0 3.4868e-05
15050.0 3.5152e-05
15070.0 3.5315e-05
15090.0 3.5404e-05
15110.0 3.5441e-05
15130.0 3.5445e-05
15150.0 3.5434e-05
15170.0 3.5412e-05
15190.0 3.5385e-05
15210.0 3.536e-05
15230.0 3.5336e-05
15250.0 3.5308e-05
15270.0 3.5282e-05
15290.0 3.5261e-05
15310.0 3.5238e-05
15330.0 3.5214e-05
15350.0 3.5194e-05
15370.0 3.5174e-05
15390.0 3.515e-05
15410.0 3.513e-05
15430.0 3.5112e-05
15450.0 3.5092e-05
15470.0 3.5071e-05
15490.0 3.5054e-05
15510.0 3.5037e-05
15530.0 3.5018e-05
15550.0 3.5e-05
15570.0 3.4985e-05
15590.0 3.4967e-05
15610.0 3.4947e-05
15630.0 3.4932e-05
15650.0 3.4916e-05
15670.0 3.4898e-05
15690.0 3.4881e-05
15710.0 3.4867e-05
15730.0 3.485e-05
15750.0 3.4832e-05
15770.0 3.4817e-05
15790.0 3.4801e-05
15810.0 3.4781e-05
15830.0 3.4764e-05
15850.0 3.4749e-05
15870.0 3.473e-05
15890.0 3.4712e-05
15910.0 3.4696e-05
15930.0 3.4678e-05
15950.0 3.4657e-05
15970.0 3.4639e-05
15990.0 3.4621e-05
16010.0 3.46e-05
16030.0 3.4578e-05
16050.0 3.456e-05
16070.0 3.454e-05
16090.0 3.4516e-05
16110.0 3.4495e-05
16130.0 3.4475e-05
16150.0 3.4449e-05
16170.0 3.4424e-05
16190.0 3.4402e-05
16210.0 3.4377e-05
16230.0 3.435e-05
16250.0 3.4324e-05
16270.0 3.43e-05
16290.0 3.4271e-05
16310.0 3.4242e-05
16330.0 3.4215e-05
16350.0 3.4185e-05
16370.0 3.4151e-05
16390.0 3.4121e-05
16410.0 3.409e-05
16430.0 3.4056e-05
16450.0 3.4022e-05
16470.0 3.399e-05
16490.0 3.3954e-05
16510.0 3.3915e-05
16530.0 3.3879e-05
16550.0 3.3842e-05
16570.0 3.3801e-05
16590.0 3.376e-05
16610.0 3.3722e-05
16630.0 3.368e-05
16650.0 3.3635e-05
16670.0 3.3593e-05
16690.0 3.355e-05
16710.0 3.3501e-05
16730.0 3.3454e-05
16750.0 3.3408e-05
16770.0 3.3359e-05
16790.0 3.3307e-05
16810.0 3.3258e-05
16830.0 3.3208e-05
16850.0 3.3153e-05
16870.0 3.31e-05
16890.0 3.3047e-05
16910.0 3.299e-05
16930.0 3.293e-05
16950.0 3.2874e-05
16970.0 3.2816e-05
16990.0 3.2754e-05
17010.0 3.2693e-05
17030.0 3.2634e-05
17050.0 3.2569e-05
17070.0 3.2503e-05
17090.0 3.244e-05
17110.0 3.2374e-05
17130.0 3.2303e-05
17150.0 3.2235e-05
17170.0 3.2168e-05
17190.0 3.2096e-05
17210.0 3.2024e-05
17230.0 3.1954e-05
17250.0 3.188e-05
17270.0 3.1803e-05
17290.0 3.1728e-05
17310.0 3.1653e-05
17330.0 3.1574e-05
17350.0 3.1493e-05
17370.0 3.1416e-05
17390.0 3.1336e-05
17410.0 3.1253e-05
17430.0 3.1171e-05
17450.0 3.109e-05
17470.0 3.1002e-05
17490.0 3.0916e-05
17510.0 3.0832e-05
17530.0 3.0744e-05
17550.0 3.0654e-05
17570.0 3.0566e-05
17590.0 3.0478e-05
17610.0 3.0385e-05
17630.0 3.0293e-05
17650.0 3.0203e-05
17670.0 3.0109e-05
17690.0 3.001e-05
17710.0 2.9917e-05
17730.0 2.9823e-05
17750.0 2.9725e-05
17770.0 2.9627e-05
17790.0 2.9532e-05
17810.0 2.9431e-05
17830.0 2.9329e-05
17850.0 2.923e-05
17870.0 2.913e-05
17890.0 2.9025e-05
17910.0 2.8921e-05
17930.0 2.8821e-05
17950.0 2.8716e-05
17970.0 2.861e-05
17990.0 2.8506e-05
18010.0 2.8402e-05
18030.0 2.8291e-05
18050.0 2.8183e-05
18070.0 2.8078e-05
18090.0 2.7968e-05
18110.0 2.7857e-05
18130.0 2.7749e-05
18150.0 2.764e-05
18170.0 2.7527e-05
18190.0 2.7416e-05
18210.0 2.7307e-05
18230.0 2.7193e-05
18250.0 2.7077e-05
18270.0 2.6966e-05
18290.0 2.6853e-05
18310.0 2.6737e-05
18330.0 2.6623e-05
18350.0 2.6511e-05
18370.0 2.6394e-05
18390.0 2.6277e-05
18410.0 2.6163e-05
18430.0 2.6047e-05
18450.0 2.5926e-05
18470.0 2.581e-05
18490.0 2.5695e-05
18510.0 2.5576e-05
18530.0 2.5457e-05
18550.0 2.5341e-05
18570.0 2.5223e-05
18590.0 2.5101e-05
18610.0 2.4983e-05
18630.0 2.4865e-05
18650.0 2.4744e-05
18670.0 2.4622e-05
18690.0 2.4506e-05
18710.0 2.4386e-05
18730.0 2.4264e-05
18750.0 2.4145e-05
18770.0 2.4027e-05
18790.0 2.3902e-05
18810.0 2.3781e-05
18830.0 2.3662e-05
18850.0 2.3541e-05
18870.0 2.3418e-05
18890.0 2.3299e-05
18910.0 2.318e-05
18930.0 2.3056e-05
18950.0 2.2935e-05
18970.0 2.2816e-05
18990.0 2.2694e-05
19010.0 2.2569e-05
19030.0 2.245e-05
19050.0 2.233e-05
19070.0 2.2207e-05
19090.0 2.2086e-05
19110.0 2.1968e-05
19130.0 2.1846e-05
19150.0 2.1723e-05
19170.0 2.1603e-05
19190.0 2.1483e-05
19210.0 2.136e-05
19230.0 2.1239e-05
19250.0 2.1121e-05
19270.0 2.1e-05
19290.0 2.0879e-05
19310.0 2.0761e-05
19330.0 2.0642e-05
19350.0 2.0518e-05
19370.0 2.0399e-05
19390.0 2.0281e-05
19410.0 2.0161e-05
19430.0 2.004e-05
19450.0 1.9923e-05
19470.0 1.9805e-05
19490.0 1.9685e-05
19510.0 1.9567e-05
19530.0 1.9451e-05
19550.0 1.9331e-05
19570.0 1.9211e-05
19590.0 1.9095e-05
19610.0 1.8979e-05
19630.0 1.886e-05
19650.0 1.8744e-05
19670.0 1.863e-05
19690.0 1.8511e-05
19710.0 1.8394e-05
19730.0 1.828e-05
19750.0 1.8165e-05
19770.0 1.8046e-05
19790.0 1.7932e-05
19810.0 1.7819e-05
19830.0 1.7703e-05
19850.0 1.7587e-05
19870.0 1.7473e-05
19890.0 1.7353e-05
19910.0 1.7225e-05
19930.0 1.7091e-05
19950.0 1.6943e-05
19970.0 1.6768e-05
19990.0 1.6566e-05
20010.0 1.527e-05
20030.0 1.5023e-05
20050.0 1.474e-05
20070.0 1.4439e-05
20090.0 1.4118e-05
20110.0 1.3761e-05
20130.0 1.3402e-05
20150.0 1.3049e-05
20170.0 1.2686e-05
20190.0 1.2321e-05
20210.0 1.1977e-05
20230.0 1.1642e-05
20250.0 1.1308e-05
20270.0 1.0998e-05
20290.0 1.0715e-05
20310.0 1.0444e-05
20330.0 1.0191e-05
20350.0 9.978e-06
20370.0 9.7869e-06
20390.0 9.6167e-06
20410.0 9.4759e-06
20430.0 9.3634e-06
20450.0 9.2704e-06
20470.0 9.2026e-06
20490.0 9.159e-06
20510.0 9.1355e-06
20530.0 9.132e-06
20550.0 9.1465e-06
20570.0 9.1754e-06
20590.0 9.2203e-06
20610.0 9.2786e-06
20630.0 9.3454e-06
20650.0 9.4226e-06
20670.0 9.5135e-06
20690.0 9.6072e-06
20710.0 9.7049e-06
20730.0 9.8112e-06
20750.0 9.9226e-06
20770.0 1.0031e-05
20790.0 1.0145e-05
20810.0 1.0265e-05
20830.0 1.0384e-05
20850.0 1.0501e-05
20870.0 1.0626e-05
20890.0 1.0751e-05
20910.0 1.0871e-05
20930.0 1.0994e-05
20950.0 1.1121e-05
20970.0 1.1243e-05
20990.0 1.1363e-05
21010.0 1.1488e-05
21030.0 1.161e-05
21050.0 1.1725e-05
21070.0 1.1839e-05
21090.0 1.1954e-05
21110.0 1.2058e-05
21130.0 1.2155e-05
21150.0 1.2249e-05
21170.0 1.2334e-05
21190.0 1.2407e-05
21210.0 1.2472e-05
21230.0 1.2527e-05
21250.0 1.2565e-05
21270.0 1.2589e-05
21290.0 1.2598e-05
21310.0 1.2588e-05
21330.0 1.256e-05
21350.0 1.2511e-05
21370.0 1.244e-05
21390.0 1.2349e-05
21410.0 1.2237e-05
21430.0 1.2096e-05
21450.0 1.1936e-05
21470.0 1.1761e-05
21490.0 1.1562e-05
21510.0 1.1344e-05
21530.0 1.112e-05
21550.0 1.0885e-05
21570.0 1.0634e-05
21590.0 1.0385e-05
21610.0 1.0143e-05
21630.0 9.8994e-06
21650.0 9.6599e-06
21670.0 9.4498e-06
21690.0 9.2539e-06
21710.0 9.0749e-06
21730.0 8.9245e-06
21750.0 8.8043e-06
21770.0 8.7072e-06
21790.0 8.6428e-06
21810.0 8.6109e-06
21830.0 8.6086e-06
21850.0 8.638e-06
21870.0 8.6957e-06
21890.0 8.7767e-06
21910.0 8.8859e-06
21930.0 9.018e-06
21950.0 9.1637e-06
21970.0 9.3279e-06
21990.0 9.515e-06
22010.0 9.7038e-06
22030.0 9.8972e-06
22050.0 1.0103e-05
22070.0 1.0311e-05
22090.0 1.0509e-05
22110.0 1.071e-05
22130.0 1.0913e-05
22150.0 1.1104e-05
22170.0 1.1285e-05
22190.0 1.1465e-05
22210.0 1.1634e-05
22230.0 1.1783e-05
22250.0 1.1923e-05
22270.0 1.2054e-05
22290.0 1.2165e-05
22310.0 1.226e-05
22330.0 1.2344e-05
22350.0 1.2409e-05
22370.0 1.2454e-05
22390.0 1.2482e-05
22410.0 1.249e-05
22430.0 1.2477e-05
22450.0 1.2444e-05
22470.0 1.2388e-05
22490.0 1.231e-05
22510.0 1.2213e-05
22530.0 1.209e-05
22550.0 1.1941e-05
22570.0 1.1775e-05
22590.0 1.1589e-05
22610.0 1.1376e-05
22630.0 1.1145e-05
