#lamb flux
1010.0 3.5719e-09
1030.0 3.9505e-09
1050.0 4.386e-09
1070.0 4.8763e-09
1090.0 5.4332e-09
1110.0 6.0043e-09
1130.0 6.5792e-09
1150.0 7.1813e-09
1170.0 7.8025e-09
1190.0 8.3915e-09
1210.0 8.9884e-09
1230.0 9.6053e-09
1250.0 1.021e-08
1270.0 1.0797e-08
1290.0 1.1417e-08
1310.0 1.2036e-08
1330.0 1.2631e-08
1350.0 1.3232e-08
1370.0 1.3852e-08
1390.0 1.4457e-08
1410.0 1.5044e-08
1430.0 1.5658e-08
1450.0 1.6272e-08
1470.0 1.6865e-08
1490.0 1.7465e-08
1510.0 1.8098e-08
1530.0 1.8698e-08
1550.0 1.929e-08
1570.0 1.9903e-08
1590.0 2.0517e-08
1610.0 2.1103e-08
1630.0 2.1708e-08
1650.0 2.2329e-08
1670.0 2.293e-08
1690.0 2.3523e-08
1710.0 2.414e-08
1730.0 2.4761e-08
1750.0 2.5346e-08
1770.0 2.5948e-08
1790.0 2.6563e-08
1810.0 2.7159e-08
1830.0 2.7745e-08
1850.0 2.8369e-08
1870.0 2.8977e-08
1890.0 2.9566e-08
1910.0 3.0168e-08
1930.0 3.0786e-08
1950.0 3.1376e-08
1970.0 3.1961e-08
1990.0 3.257e-08
2010.0 3.317e-08
2030.0 3.3749e-08
2050.0 3.4348e-08
2070.0 3.4963e-08
2090.0 3.5545e-08
2110.0 3.6126e-08
2130.0 3.6726e-08
2150.0 3.7316e-08
2170.0 3.7881e-08
2190.0 3.8469e-08
2210.0 3.9061e-08
2230.0 3.9631e-08
2250.0 4.0198e-08
2270.0 4.0792e-08
2290.0 4.1368e-08
2310.0 4.1922e-08
2330.0 4.2499e-08
2350.0 4.309e-08
2370.0 4.368e-08
2390.0 4.4318e-08
2410.0 4.5074e-08
2430.0 4.5944e-08
2450.0 4.6984e-08
2470.0 4.8316e-08
2490.0 4.9995e-08
2510.0 5.1904e-08
2530.0 5.4201e-08
2550.0 5.7077e-08
2570.0 6.0654e-08
2590.0 6.5308e-08
2610.0 7.2275e-08
2630.0 8.2222e-08
2650.0 9.5229e-08
2670.0 1.1205e-07
2690.0 1.3271e-07
2710.0 1.5477e-07
2730.0 1.7657e-07
2750.0 1.9804e-07
2770.0 2.1671e-07
2790.0 2.3154e-07
2810.0 2.4331e-07
2830.0 2.525e-07
2850.0 2.5878e-07
2870.0 2.6338e-07
2890.0 2.6703e-07
2910.0 2.6994e-07
2930.0 2.7232e-07
2950.0 2.7459e-07
2970.0 2.7681e-07
2990.0 2.7889e-07
3010.0 7.8831e-06
3030.0 7.942e-06
3050.0 7.999e-06
3070.0 8.0477e-06
3090.0 8.0897e-06
3110.0 8.1157e-06
3130.0 8.1147e-06
3150.0 8.0786e-06
3170.0 7.9921e-06
3190.0 7.8562e-06
3210.0 7.6839e-06
3230.0 7.4867e-06
3250.0 7.292e-06
3270.0 7.1497e-06
3290.0 7.0707e-06
3310.0 7.0835e-06
3330.0 7.186e-06
3350.0 7.3646e-06
3370.0 7.6195e-06
3390.0 7.9407e-06
3410.0 8.2903e-06
3430.0 8.6828e-06
3450.0 9.1346e-06
3470.0 9.6281e-06
3490.0 1.0151e-05
3510.0 1.0742e-05
3530.0 1.1375e-05
3550.0 1.2016e-05
3570.0 1.2684e-05
3590.0 1.3411e-05
3610.0 1.416e-05
3630.0 1.4907e-05
3650.0 1.5682e-05
3670.0 1.6389e-05
3690.0 1.6918e-05
3710.0 1.7221e-05
3730.0 1.7231e-05
3750.0 1.6991e-05
3770.0 1.6897e-05
3790.0 1.6797e-05
3810.0 1.6384e-05
3830.0 1.6891e-05
3850.0 1.8886e-05
3870.0 1.9981e-05
3890.0 1.989e-05
3910.0 1.9975e-05
3930.0 2.0501e-05
3950.0 2.0825e-05
3970.0 1.8973e-05
3990.0 1.6325e-05
4010.0 4.893e-05
4030.0 5.9285e-05
4050.0 6.7967e-05
4070.0 5.8973e-05
4090.0 5.3411e-05
4110.0 4.713e-05
4130.0 4.3379e-05
4150.0 4.6142e-05
4170.0 4.5452e-05
4190.0 4.8448e-05
4210.0 4.8005e-05
4230.0 5.0776e-05
4250.0 6.007e-05
4270.0 6.0776e-05
4290.0 5.6004e-05
4310.0 5.8192e-05
4330.0 6.1899e-05
4350.0 6.9405e-05
4370.0 7.8983e-05
4390.0 7.4118e-05
4410.0 5.476e-05
4430.0 4.6358e-05
4450.0 4.2598e-05
4470.0 3.2695e-05
4490.0 3.5282e-05
4510.0 5.3294e-05
4530.0 6.1464e-05
4550.0 6.1998e-05
4570.0 6.9763e-05
4590.0 7.9467e-05
4610.0 0.00010718
4630.0 0.00013921
4650.0 0.00015097
4670.0 0.00013981
4690.0 0.0001334
4710.0 0.00014102
4730.0 0.00013308
4750.0 9.9495e-05
4770.0 7.2983e-05
4790.0 6.8152e-05
4810.0 6.496e-05
4830.0 5.947e-05
4850.0 6.5258e-05
4870.0 8.6212e-05
4890.0 0.00010167
4910.0 8.9202e-05
4930.0 7.8931e-05
4950.0 8.6717e-05
4970.0 0.00011121
4990.0 0.00015072
5010.0 0.00017338
5030.0 0.00015288
5050.0 0.00010343
5070.0 6.8166e-05
5090.0 5.4966e-05
5110.0 5.6527e-05
5130.0 6.5241e-05
5150.0 7.0684e-05
5170.0 6.9623e-05
5190.0 6.5059e-05
5210.0 6.8001e-05
5230.0 7.1485e-05
5250.0 7.7041e-05
5270.0 8.3121e-05
5290.0 9.2116e-05
5310.0 0.00010722
5330.0 0.00011865
5350.0 0.0001179
5370.0 0.00012384
5390.0 0.00014211
5410.0 0.00014198
5430.0 0.00012556
5450.0 0.00011536
5470.0 0.0001225
5490.0 0.00014966
5510.0 0.00018712
5530.0 0.00021462
5550.0 0.00020744
5570.0 0.00018857
5590.0 0.00016397
5610.0 0.00015122
5630.0 0.00014663
5650.0 0.00013965
5670.0 0.00013233
5690.0 0.00011831
5710.0 0.00011535
5730.0 0.00010626
5750.0 7.4917e-05
5770.0 5.8448e-05
5790.0 6.6234e-05
5810.0 7.479e-05
5830.0 9.1778e-05
5850.0 0.00010925
5870.0 0.00012122
5890.0 0.00012327
5910.0 0.00012094
5930.0 0.00011512
5950.0 0.00011731
5970.0 0.00013371
5990.0 0.00012573
6010.0 0.0001054
6030.0 8.9045e-05
6050.0 7.7547e-05
6070.0 7.7123e-05
6090.0 8.3628e-05
6110.0 9.3509e-05
6130.0 9.4942e-05
6150.0 8.1689e-05
6170.0 7.1861e-05
6190.0 8.0869e-05
6210.0 0.00010691
6230.0 0.00014029
6250.0 0.00015196
6270.0 0.00013279
6290.0 0.00011172
6310.0 8.7219e-05
6330.0 6.6827e-05
6350.0 5.9608e-05
6370.0 6.2684e-05
6390.0 7.2466e-05
6410.0 8.9354e-05
6430.0 0.00010434
6450.0 0.00011939
6470.0 0.00013671
6490.0 0.00016513
6510.0 0.00018464
6530.0 0.00018114
6550.0 0.0001638
6570.0 0.00013905
6590.0 0.00012539
6610.0 0.00010812
6630.0 9.795e-05
6650.0 9.2591e-05
6670.0 8.995e-05
6690.0 8.1275e-05
6710.0 7.388e-05
6730.0 5.3215e-05
6750.0 5.2757e-05
6770.0 5.7343e-05
6790.0 6.5911e-05
6810.0 6.031e-05
6830.0 6.2103e-05
6850.0 5.8086e-05
6870.0 5.3061e-05
6890.0 5.0947e-05
6910.0 5.4291e-05
6930.0 5.0851e-05
6950.0 5.2317e-05
6970.0 5.5028e-05
6990.0 6.2461e-05
7010.0 6.2993e-05
7030.0 6.3994e-05
7050.0 6.1029e-05
7070.0 5.8149e-05
7090.0 5.832e-05
7110.0 6.0006e-05
7130.0 6.4576e-05
7150.0 6.8585e-05
7170.0 7.5679e-05
7190.0 8.3192e-05
7210.0 8.1747e-05
7230.0 8.4038e-05
7250.0 9.0312e-05
7270.0 9.8418e-05
7290.0 0.00011681
7310.0 0.00012675
7330.0 0.00012252
7350.0 0.00011081
7370.0 9.6414e-05
7390.0 9.3533e-05
7410.0 9.9397e-05
7430.0 0.00011047
7450.0 0.00012032
7470.0 0.00011921
7490.0 0.0001087
7510.0 0.00012313
7530.0 0.00012178
7550.0 0.00010946
7570.0 8.5509e-05
7590.0 5.8784e-05
7610.0 5.0455e-05
7630.0 5.7326e-05
7650.0 6.778e-05
7670.0 8.4357e-05
7690.0 9.2828e-05
7710.0 9.6739e-05
7730.0 0.00010166
7750.0 0.00011412
7770.0 0.00011592
7790.0 0.00010648
7810.0 9.7154e-05
7830.0 0.00010019
7850.0 9.7391e-05
7870.0 8.9292e-05
7890.0 7.5022e-05
7910.0 6.0983e-05
7930.0 5.8229e-05
7950.0 5.3049e-05
7970.0 4.9106e-05
7990.0 4.8826e-05
8010.0 3.6162e-06
8030.0 3.5691e-06
8050.0 3.521e-06
8070.0 3.5671e-06
8090.0 3.8328e-06
8110.0 3.7675e-06
8130.0 3.1077e-06
8150.0 3.0265e-06
8170.0 2.6069e-06
8190.0 2.4706e-06
8210.0 3.2083e-06
8230.0 3.572e-06
8250.0 3.2194e-06
8270.0 2.8021e-06
8290.0 2.7315e-06
8310.0 2.1023e-06
8330.0 1.4169e-06
8350.0 1.0056e-06
8370.0 6.3356e-07
8390.0 1.1581e-06
8410.0 1.3495e-06
8430.0 1.6635e-06
8450.0 1.9534e-06
8470.0 2.428e-06
8490.0 2.4109e-06
8510.0 2.3714e-06
8530.0 2.4749e-06
8550.0 3.3392e-06
8570.0 3.9531e-06
8590.0 4.2653e-06
8610.0 5.388e-06
8630.0 6.4907e-06
8650.0 6.7899e-06
8670.0 7.2156e-06
8690.0 7.2561e-06
8710.0 6.5714e-06
8730.0 6.1124e-06
8750.0 5.3953e-06
8770.0 5.1194e-06
8790.0 5.0295e-06
8810.0 4.8194e-06
8830.0 3.8538e-06
8850.0 2.8213e-06
8870.0 2.1602e-06
8890.0 2.1119e-06
8910.0 2.4203e-06
8930.0 2.753e-06
8950.0 2.8057e-06
8970.0 2.8189e-06
8990.0 2.5141e-06
9010.0 2.6347e-05
9030.0 2.3874e-05
9050.0 2.3989e-05
9070.0 2.4178e-05
9090.0 2.4344e-05
9110.0 2.4549e-05
9130.0 2.4708e-05
9150.0 2.4831e-05
9170.0 2.4962e-05
9190.0 2.5102e-05
9210.0 2.5249e-05
9230.0 2.5405e-05
9250.0 2.5563e-05
9270.0 2.5727e-05
9290.0 2.5896e-05
9310.0 2.6066e-05
9330.0 2.6239e-05
9350.0 2.6419e-05
9370.0 2.6601e-05
9390.0 2.6785e-05
9410.0 2.6974e-05
9430.0 2.7169e-05
9450.0 2.7363e-05
9470.0 2.7561e-05
9490.0 2.7765e-05
9510.0 2.7971e-05
9530.0 2.8178e-05
9550.0 2.8392e-05
9570.0 2.8611e-05
9590.0 2.8829e-05
9610.0 2.9052e-05
9630.0 2.928e-05
9650.0 2.9511e-05
9670.0 2.9742e-05
9690.0 2.9979e-05
9710.0 3.0219e-05
9730.0 3.0461e-05
9750.0 3.0705e-05
9770.0 3.0958e-05
9790.0 3.1209e-05
9810.0 3.1462e-05
9830.0 3.172e-05
9850.0 3.1982e-05
9870.0 3.2243e-05
9890.0 3.2508e-05
9910.0 3.2777e-05
9930.0 3.3047e-05
9950.0 3.3318e-05
9970.0 3.3595e-05
9990.0 3.3874e-05
10010.0 2.9394e-05
10030.0 2.9635e-05
10050.0 2.9881e-05
10070.0 3.0136e-05
10090.0 3.0376e-05
10110.0 3.0622e-05
10130.0 3.0869e-05
10150.0 3.1115e-05
10170.0 3.1364e-05
10190.0 3.1617e-05
10210.0 3.1868e-05
10230.0 3.2118e-05
10250.0 3.2372e-05
10270.0 3.2625e-05
10290.0 3.2875e-05
10310.0 3.3129e-05
10330.0 3.3385e-05
10350.0 3.3637e-05
10370.0 3.3888e-05
10390.0 3.4142e-05
10410.0 3.4394e-05
10430.0 3.4642e-05
10450.0 3.4892e-05
10470.0 3.5143e-05
10490.0 3.5389e-05
10510.0 3.5634e-05
10530.0 3.5883e-05
10550.0 3.6128e-05
10570.0 3.6367e-05
10590.0 3.6608e-05
10610.0 3.6849e-05
10630.0 3.7084e-05
10650.0 3.7317e-05
10670.0 3.7552e-05
10690.0 3.7783e-05
10710.0 3.8008e-05
10730.0 3.8235e-05
10750.0 3.8461e-05
10770.0 3.8679e-05
10790.0 3.8894e-05
10810.0 3.9109e-05
10830.0 3.9318e-05
10850.0 3.9516e-05
10870.0 3.9708e-05
10890.0 3.9877e-05
10910.0 4.0007e-05
10930.0 4.008e-05
10950.0 4.0063e-05
10970.0 3.9928e-05
10990.0 3.9661e-05
11010.0 3.9216e-05
11030.0 3.8592e-05
11050.0 3.7832e-05
11070.0 3.6922e-05
11090.0 3.583e-05
11110.0 3.47e-05
11130.0 3.3521e-05
11150.0 3.2252e-05
11170.0 3.0944e-05
11190.0 2.9675e-05
11210.0 2.8365e-05
11230.0 2.7021e-05
11250.0 2.5737e-05
11270.0 2.4504e-05
11290.0 2.3269e-05
11310.0 2.2099e-05
11330.0 2.1068e-05
11350.0 2.0094e-05
11370.0 1.9195e-05
11390.0 1.8416e-05
11410.0 1.7735e-05
11430.0 1.7103e-05
11450.0 1.6558e-05
11470.0 1.6086e-05
11490.0 1.5648e-05
11510.0 1.5225e-05
11530.0 1.4833e-05
11550.0 1.4443e-05
11570.0 1.4028e-05
11590.0 1.3597e-05
11610.0 1.3159e-05
11630.0 1.2682e-05
11650.0 1.2172e-05
11670.0 1.1668e-05
11690.0 1.1158e-05
11710.0 1.0632e-05
11730.0 1.0122e-05
11750.0 9.6498e-06
11770.0 9.1869e-06
11790.0 8.753e-06
11810.0 8.3711e-06
11830.0 8.0296e-06
11850.0 7.7149e-06
11870.0 7.4518e-06
11890.0 7.233e-06
11910.0 7.0408e-06
11930.0 6.8756e-06
11950.0 6.738e-06
11970.0 6.615e-06
11990.0 6.4988e-06
12010.0 6.3913e-06
12030.0 6.2877e-06
12050.0 6.1807e-06
12070.0 6.0693e-06
12090.0 5.9619e-06
12110.0 5.8529e-06
12130.0 5.7436e-06
12150.0 5.6429e-06
12170.0 5.555e-06
12190.0 5.479e-06
12210.0 5.4259e-06
12230.0 5.4003e-06
12250.0 5.4044e-06
12270.0 5.4452e-06
12290.0 5.5222e-06
12310.0 5.6327e-06
12330.0 5.7873e-06
12350.0 5.9803e-06
12370.0 6.1999e-06
12390.0 6.4532e-06
12410.0 6.75e-06
12430.0 7.0517e-06
12450.0 7.3641e-06
12470.0 7.6962e-06
12490.0 8.0298e-06
12510.0 8.3428e-06
12530.0 8.6541e-06
12550.0 8.9545e-06
12570.0 9.2196e-06
12590.0 9.4524e-06
12610.0 9.6598e-06
12630.0 9.8252e-06
12650.0 9.9393e-06
12670.0 1.0014e-05
12690.0 1.0044e-05
12710.0 1.0028e-05
12730.0 9.9696e-06
12750.0 9.8659e-06
12770.0 9.7236e-06
12790.0 9.551e-06
12810.0 9.3449e-06
12830.0 9.1065e-06
12850.0 8.8572e-06
12870.0 8.5935e-06
12890.0 8.3082e-06
12910.0 8.0182e-06
12930.0 7.7324e-06
12950.0 7.4341e-06
12970.0 7.1305e-06
12990.0 6.8433e-06
13010.0 6.5597e-06
13030.0 6.2729e-06
13050.0 5.9974e-06
13070.0 5.7393e-06
13090.0 5.4803e-06
13110.0 5.2298e-06
13130.0 4.9988e-06
13150.0 4.78e-06
13170.0 4.5658e-06
13190.0 4.3753e-06
13210.0 4.2075e-06
13230.0 4.0542e-06
13250.0 3.9221e-06
13270.0 3.818e-06
13290.0 3.7369e-06
13310.0 3.6811e-06
13330.0 3.6557e-06
13350.0 3.6587e-06
13370.0 3.6915e-06
13390.0 3.756e-06
13410.0 3.8431e-06
13430.0 3.9563e-06
13450.0 4.0962e-06
13470.0 4.2515e-06
13490.0 4.416e-06
13510.0 4.6015e-06
13530.0 4.7895e-06
13550.0 4.9695e-06
13570.0 5.147e-06
13590.0 5.32e-06
13610.0 5.4739e-06
13630.0 5.6082e-06
13650.0 5.7308e-06
13670.0 5.8326e-06
13690.0 5.9114e-06
13710.0 5.9722e-06
13730.0 6.0157e-06
13750.0 6.0375e-06
13770.0 6.0424e-06
13790.0 6.0314e-06
13810.0 6.0048e-06
13830.0 5.9655e-06
13850.0 5.9122e-06
13870.0 5.8449e-06
13890.0 5.7681e-06
13910.0 5.6814e-06
13930.0 5.5811e-06
13950.0 5.4717e-06
13970.0 5.3597e-06
13990.0 5.2378e-06
14010.0 5.1081e-06
14030.0 4.9788e-06
14050.0 4.8485e-06
14070.0 4.7109e-06
14090.0 4.5791e-06
14110.0 4.4552e-06
14130.0 4.3351e-06
14150.0 4.222e-06
14170.0 4.1255e-06
14190.0 4.0421e-06
14210.0 3.9714e-06
14230.0 3.9189e-06
14250.0 3.8851e-06
14270.0 3.8687e-06
14290.0 3.8722e-06
14310.0 3.8937e-06
14330.0 3.9325e-06
14350.0 3.9895e-06
14370.0 4.0606e-06
14390.0 4.1413e-06
14410.0 4.2363e-06
14430.0 4.3407e-06
14450.0 4.4473e-06
14470.0 4.5579e-06
14490.0 4.6755e-06
14510.0 4.7879e-06
14530.0 4.8947e-06
14550.0 5.0015e-06
14570.0 5.104e-06
14590.0 5.1973e-06
14610.0 5.2876e-06
14630.0 5.3769e-06
14650.0 5.4601e-06
14670.0 5.5404e-06
14690.0 5.6241e-06
14710.0 5.7122e-06
14730.0 5.8002e-06
14750.0 5.8978e-06
14770.0 6.0084e-06
14790.0 6.1284e-06
14810.0 6.2584e-06
14830.0 6.4124e-06
14850.0 6.5798e-06
14870.0 6.7544e-06
14890.0 6.9428e-06
14910.0 7.1429e-06
14930.0 7.3353e-06
14950.0 7.5151e-06
14970.0 7.6853e-06
14990.0 7.8281e-06
15010.0 7.9372e-06
15030.0 8.018e-06
15050.0 8.0715e-06
15070.0 8.0976e-06
15090.0 8.1068e-06
15110.0 8.1041e-06
15130.0 8.0939e-06
15150.0 8.0802e-06
15170.0 8.0641e-06
15190.0 8.0467e-06
15210.0 8.0296e-06
15230.0 8.0125e-06
15250.0 7.9948e-06
15270.0 7.9773e-06
15290.0 7.9608e-06
15310.0 7.9438e-06
15330.0 7.9266e-06
15350.0 7.91e-06
15370.0 7.8937e-06
15390.0 7.8764e-06
15410.0 7.8598e-06
15430.0 7.8437e-06
15450.0 7.8272e-06
15470.0 7.8104e-06
15490.0 7.7945e-06
15510.0 7.7786e-06
15530.0 7.7621e-06
15550.0 7.7461e-06
15570.0 7.7306e-06
15590.0 7.7144e-06
15610.0 7.698e-06
15630.0 7.6825e-06
15650.0 7.6669e-06
15670.0 7.6509e-06
15690.0 7.6352e-06
15710.0 7.6202e-06
15730.0 7.6044e-06
15750.0 7.5886e-06
15770.0 7.5734e-06
15790.0 7.5581e-06
15810.0 7.5421e-06
15830.0 7.5268e-06
15850.0 7.5119e-06
15870.0 7.4964e-06
15890.0 7.4809e-06
15910.0 7.4661e-06
15930.0 7.451e-06
15950.0 7.4353e-06
15970.0 7.4202e-06
15990.0 7.4054e-06
16010.0 7.39e-06
16030.0 7.3744e-06
16050.0 7.3598e-06
16070.0 7.3449e-06
16090.0 7.3294e-06
16110.0 7.3145e-06
16130.0 7.3e-06
16150.0 7.2843e-06
16170.0 7.269e-06
16190.0 7.2543e-06
16210.0 7.2393e-06
16230.0 7.2238e-06
16250.0 7.2089e-06
16270.0 7.1943e-06
16290.0 7.1789e-06
16310.0 7.1637e-06
16330.0 7.149e-06
16350.0 7.1339e-06
16370.0 7.118e-06
16390.0 7.1032e-06
16410.0 7.0884e-06
16430.0 7.073e-06
16450.0 7.0577e-06
16470.0 7.0431e-06
16490.0 7.0278e-06
16510.0 7.0121e-06
16530.0 6.9971e-06
16550.0 6.9821e-06
16570.0 6.9663e-06
16590.0 6.9508e-06
16610.0 6.936e-06
16630.0 6.9206e-06
16650.0 6.9049e-06
16670.0 6.8898e-06
16690.0 6.8747e-06
16710.0 6.8586e-06
16730.0 6.843e-06
16750.0 6.8278e-06
16770.0 6.8121e-06
16790.0 6.7961e-06
16810.0 6.7808e-06
16830.0 6.7654e-06
16850.0 6.7494e-06
16870.0 6.7336e-06
16890.0 6.7183e-06
16910.0 6.7022e-06
16930.0 6.6858e-06
16950.0 6.6703e-06
16970.0 6.6545e-06
16990.0 6.6382e-06
17010.0 6.6223e-06
17030.0 6.6067e-06
17050.0 6.5904e-06
17070.0 6.574e-06
17090.0 6.5581e-06
17110.0 6.542e-06
17130.0 6.5251e-06
17150.0 6.5089e-06
17170.0 6.493e-06
17190.0 6.4764e-06
17210.0 6.4598e-06
17230.0 6.4439e-06
17250.0 6.4274e-06
17270.0 6.4103e-06
17290.0 6.3938e-06
17310.0 6.3775e-06
17330.0 6.3605e-06
17350.0 6.3434e-06
17370.0 6.3272e-06
17390.0 6.3105e-06
17410.0 6.2933e-06
17430.0 6.2766e-06
17450.0 6.2602e-06
17470.0 6.2426e-06
17490.0 6.2254e-06
17510.0 6.2087e-06
17530.0 6.1916e-06
17550.0 6.1741e-06
17570.0 6.1571e-06
17590.0 6.1404e-06
17610.0 6.1227e-06
17630.0 6.1053e-06
17650.0 6.0884e-06
17670.0 6.071e-06
17690.0 6.0528e-06
17710.0 6.0357e-06
17730.0 6.0185e-06
17750.0 6.0007e-06
17770.0 5.9831e-06
17790.0 5.9661e-06
17810.0 5.9482e-06
17830.0 5.9301e-06
17850.0 5.9127e-06
17870.0 5.8951e-06
17890.0 5.8769e-06
17910.0 5.8588e-06
17930.0 5.8416e-06
17950.0 5.8236e-06
17970.0 5.8054e-06
17990.0 5.7878e-06
18010.0 5.7701e-06
18030.0 5.7514e-06
18050.0 5.7334e-06
18070.0 5.7157e-06
18090.0 5.6974e-06
18110.0 5.6789e-06
18130.0 5.6611e-06
18150.0 5.6432e-06
18170.0 5.6246e-06
18190.0 5.6064e-06
18210.0 5.5886e-06
18230.0 5.5699e-06
18250.0 5.5511e-06
18270.0 5.5332e-06
18290.0 5.5149e-06
18310.0 5.4962e-06
18330.0 5.4778e-06
18350.0 5.4599e-06
18370.0 5.4411e-06
18390.0 5.4224e-06
18410.0 5.4042e-06
18430.0 5.3858e-06
18450.0 5.3666e-06
18470.0 5.3482e-06
18490.0 5.33e-06
18510.0 5.3112e-06
18530.0 5.2924e-06
18550.0 5.2743e-06
18570.0 5.2556e-06
18590.0 5.2364e-06
18610.0 5.2179e-06
18630.0 5.1995e-06
18650.0 5.1804e-06
18670.0 5.1614e-06
18690.0 5.1432e-06
18710.0 5.1245e-06
18730.0 5.1054e-06
18750.0 5.0869e-06
18770.0 5.0685e-06
18790.0 5.0491e-06
18810.0 5.0301e-06
18830.0 5.0117e-06
18850.0 4.9929e-06
18870.0 4.9736e-06
18890.0 4.9551e-06
18910.0 4.9367e-06
18930.0 4.9174e-06
18950.0 4.8985e-06
18970.0 4.88e-06
18990.0 4.8611e-06
19010.0 4.8415e-06
19030.0 4.823e-06
19050.0 4.8044e-06
19070.0 4.7852e-06
19090.0 4.7663e-06
19110.0 4.7481e-06
19130.0 4.7289e-06
19150.0 4.7096e-06
19170.0 4.691e-06
19190.0 4.6724e-06
19210.0 4.653e-06
19230.0 4.634e-06
19250.0 4.6157e-06
19270.0 4.5967e-06
19290.0 4.5775e-06
19310.0 4.5591e-06
19330.0 4.5404e-06
19350.0 4.5209e-06
19370.0 4.502e-06
19390.0 4.4836e-06
19410.0 4.4645e-06
19430.0 4.4453e-06
19450.0 4.4269e-06
19470.0 4.4083e-06
19490.0 4.3891e-06
19510.0 4.3703e-06
19530.0 4.3519e-06
19550.0 4.3327e-06
19570.0 4.3135e-06
19590.0 4.2951e-06
19610.0 4.2764e-06
19630.0 4.2573e-06
19650.0 4.2387e-06
19670.0 4.2204e-06
19690.0 4.2013e-06
19710.0 4.1823e-06
19730.0 4.1639e-06
19750.0 4.1452e-06
19770.0 4.1259e-06
19790.0 4.1073e-06
19810.0 4.089e-06
19830.0 4.07e-06
19850.0 4.0509e-06
19870.0 4.0321e-06
19890.0 4.012e-06
19910.0 3.9899e-06
19930.0 3.9662e-06
19950.0 3.9391e-06
19970.0 3.9058e-06
19990.0 3.8656e-06
20010.0 3.4392e-06
20030.0 3.3895e-06
20050.0 3.3312e-06
20070.0 3.2681e-06
20090.0 3.2002e-06
20110.0 3.1234e-06
20130.0 3.0456e-06
20150.0 2.9686e-06
20170.0 2.8887e-06
20190.0 2.8076e-06
20210.0 2.7311e-06
20230.0 2.6564e-06
20250.0 2.5816e-06
20270.0 2.5122e-06
20290.0 2.4488e-06
20310.0 2.3886e-06
20330.0 2.3323e-06
20350.0 2.2855e-06
20370.0 2.2441e-06
20390.0 2.2077e-06
20410.0 2.1783e-06
20430.0 2.1557e-06
20450.0 2.1377e-06
20470.0 2.1257e-06
20490.0 2.1192e-06
20510.0 2.1174e-06
20530.0 2.12e-06
20550.0 2.1265e-06
20570.0 2.1361e-06
20590.0 2.149e-06
20610.0 2.1646e-06
20630.0 2.1818e-06
20650.0 2.201e-06
20670.0 2.223e-06
20690.0 2.2454e-06
20710.0 2.2686e-06
20730.0 2.2936e-06
20750.0 2.3197e-06
20770.0 2.3454e-06
20790.0 2.3723e-06
20810.0 2.4008e-06
20830.0 2.4292e-06
20850.0 2.4577e-06
20870.0 2.4882e-06
20890.0 2.5193e-06
20910.0 2.5493e-06
20930.0 2.5805e-06
20950.0 2.6127e-06
20970.0 2.6442e-06
20990.0 2.6753e-06
21010.0 2.7079e-06
21030.0 2.7398e-06
21050.0 2.7703e-06
21070.0 2.8007e-06
21090.0 2.8312e-06
21110.0 2.859e-06
21130.0 2.8851e-06
21150.0 2.9104e-06
21170.0 2.9333e-06
21190.0 2.953e-06
21210.0 2.9708e-06
21230.0 2.9855e-06
21250.0 2.996e-06
21270.0 3.0027e-06
21290.0 3.0052e-06
21310.0 3.0028e-06
21330.0 2.9957e-06
21350.0 2.9833e-06
21370.0 2.965e-06
21390.0 2.9418e-06
21410.0 2.9134e-06
21430.0 2.8774e-06
21450.0 2.837e-06
21470.0 2.7929e-06
21490.0 2.7432e-06
21510.0 2.6885e-06
21530.0 2.6331e-06
21550.0 2.5749e-06
21570.0 2.513e-06
21590.0 2.452e-06
21610.0 2.3931e-06
21630.0 2.3341e-06
21650.0 2.2765e-06
21670.0 2.2265e-06
21690.0 2.1805e-06
21710.0 2.139e-06
21730.0 2.105e-06
21750.0 2.0788e-06
21770.0 2.0589e-06
21790.0 2.0474e-06
21810.0 2.0442e-06
21830.0 2.0487e-06
21850.0 2.0615e-06
21870.0 2.0815e-06
21890.0 2.1073e-06
21910.0 2.1404e-06
21930.0 2.1792e-06
21950.0 2.2212e-06
21970.0 2.2678e-06
21990.0 2.3201e-06
22010.0 2.3723e-06
22030.0 2.4254e-06
22050.0 2.4811e-06
22070.0 2.5372e-06
22090.0 2.5902e-06
22110.0 2.6437e-06
22130.0 2.6971e-06
22150.0 2.747e-06
22170.0 2.794e-06
22190.0 2.8406e-06
22210.0 2.884e-06
22230.0 2.9221e-06
22250.0 2.9581e-06
22270.0 2.9911e-06
22290.0 3.0194e-06
22310.0 3.0437e-06
22330.0 3.0651e-06
22350.0 3.0816e-06
22370.0 3.0932e-06
22390.0 3.1005e-06
22410.0 3.1028e-06
22430.0 3.0999e-06
22450.0 3.0919e-06
22470.0 3.0781e-06
22490.0 3.0587e-06
22510.0 3.0346e-06
22530.0 3.0037e-06
22550.0 2.966e-06
22570.0 2.9243e-06
22590.0 2.8773e-06
22610.0 2.8232e-06
