#lamb flux
1010.0 5.4611e-08
1030.0 6.0122e-08
1050.0 6.646e-08
1070.0 7.3594e-08
1090.0 8.1698e-08
1110.0 9.001e-08
1130.0 9.8376e-08
1150.0 1.0714e-07
1170.0 1.1618e-07
1190.0 1.2475e-07
1210.0 1.3344e-07
1230.0 1.4241e-07
1250.0 1.5121e-07
1270.0 1.5975e-07
1290.0 1.6877e-07
1310.0 1.7779e-07
1330.0 1.8644e-07
1350.0 1.9518e-07
1370.0 2.0421e-07
1390.0 2.1301e-07
1410.0 2.2155e-07
1430.0 2.3048e-07
1450.0 2.394e-07
1470.0 2.4803e-07
1490.0 2.5674e-07
1510.0 2.6595e-07
1530.0 2.7467e-07
1550.0 2.8326e-07
1570.0 2.9216e-07
1590.0 3.0105e-07
1610.0 3.0955e-07
1630.0 3.183e-07
1650.0 3.2728e-07
1670.0 3.3596e-07
1690.0 3.4451e-07
1710.0 3.5339e-07
1730.0 3.6231e-07
1750.0 3.7067e-07
1770.0 3.7926e-07
1790.0 3.8801e-07
1810.0 3.9645e-07
1830.0 4.0471e-07
1850.0 4.1346e-07
1870.0 4.2194e-07
1890.0 4.3008e-07
1910.0 4.3834e-07
1930.0 4.4676e-07
1950.0 4.547e-07
1970.0 4.6248e-07
1990.0 4.7049e-07
2010.0 4.7826e-07
2030.0 4.8563e-07
2050.0 4.9313e-07
2070.0 5.0073e-07
2090.0 5.0769e-07
2110.0 5.1448e-07
2130.0 5.2135e-07
2150.0 5.2788e-07
2170.0 5.3387e-07
2190.0 5.3995e-07
2210.0 5.4586e-07
2230.0 5.5121e-07
2250.0 5.5628e-07
2270.0 5.6144e-07
2290.0 5.6608e-07
2310.0 5.7013e-07
2330.0 5.7417e-07
2350.0 5.7809e-07
2370.0 5.8162e-07
2390.0 5.854e-07
2410.0 5.9023e-07
2430.0 5.9596e-07
2450.0 6.0322e-07
2470.0 6.134e-07
2490.0 6.271e-07
2510.0 6.4303e-07
2530.0 6.633e-07
2550.0 6.9046e-07
2570.0 7.2624e-07
2590.0 7.7485e-07
2610.0 8.5019e-07
2630.0 9.5777e-07
2650.0 1.0955e-06
2670.0 1.2692e-06
2690.0 1.476e-06
2710.0 1.6874e-06
2730.0 1.8865e-06
2750.0 2.0732e-06
2770.0 2.2241e-06
2790.0 2.3318e-06
2810.0 2.4062e-06
2830.0 2.4536e-06
2850.0 2.473e-06
2870.0 2.4768e-06
2890.0 2.4719e-06
2910.0 2.4608e-06
2930.0 2.4456e-06
2950.0 2.43e-06
2970.0 2.4144e-06
2990.0 2.3985e-06
3010.0 7.5104e-05
3030.0 7.4655e-05
3050.0 7.4213e-05
3070.0 7.3733e-05
3090.0 7.322e-05
3110.0 7.2597e-05
3130.0 7.1778e-05
3150.0 7.0699e-05
3170.0 6.9227e-05
3190.0 6.739e-05
3210.0 6.5304e-05
3230.0 6.3055e-05
3250.0 6.0781e-05
3270.0 5.9079e-05
3290.0 5.7791e-05
3310.0 5.7488e-05
3330.0 5.7849e-05
3350.0 5.8855e-05
3370.0 6.0499e-05
3390.0 6.27e-05
3410.0 6.5171e-05
3430.0 6.8004e-05
3450.0 7.1312e-05
3470.0 7.497e-05
3490.0 7.8907e-05
3510.0 8.3399e-05
3530.0 8.8317e-05
3550.0 9.3606e-05
3570.0 9.9466e-05
3590.0 0.00010605
3610.0 0.00011342
3630.0 0.00012081
3650.0 0.00012866
3670.0 0.00013577
3690.0 0.00014107
3710.0 0.00014374
3730.0 0.00014217
3750.0 0.00013636
3770.0 0.00013854
3790.0 0.00013405
3810.0 0.00010209
3830.0 9.5961e-05
3850.0 0.00013876
3870.0 0.0001283
3890.0 9.7664e-05
3910.0 0.00010204
3930.0 0.0001343
3950.0 0.00015916
3970.0 0.00018479
3990.0 0.00013422
4010.0 0.00022572
4030.0 0.00020894
4050.0 0.00020807
4070.0 0.00024254
4090.0 0.00023188
4110.0 0.00021511
4130.0 0.00027018
4150.0 0.00035851
4170.0 0.00028487
4190.0 0.00024979
4210.0 0.00028137
4230.0 0.00035176
4250.0 0.00041621
4270.0 0.00045267
4290.0 0.00040685
4310.0 0.00037477
4330.0 0.00037344
4350.0 0.00048054
4370.0 0.0005836
4390.0 0.00046449
4410.0 0.00026436
4430.0 0.00018804
4450.0 0.00017308
4470.0 0.00011589
4490.0 0.0001971
4510.0 0.00039912
4530.0 0.00048476
4550.0 0.00046571
4570.0 0.00042263
4590.0 0.0004576
4610.0 0.00088987
4630.0 0.0012389
4650.0 0.0011638
4670.0 0.0010256
4690.0 0.0010685
4710.0 0.0011226
4730.0 0.00090506
4750.0 0.00057797
4770.0 0.000404
4790.0 0.00045258
4810.0 0.0004729
4830.0 0.00046868
4850.0 0.00051195
4870.0 0.000678
4890.0 0.00078649
4910.0 0.00060617
4930.0 0.00058492
4950.0 0.00067471
4970.0 0.00090705
4990.0 0.0012211
5010.0 0.0013998
5030.0 0.0011069
5050.0 0.00066604
5070.0 0.00047585
5090.0 0.0003681
5110.0 0.00034572
5130.0 0.00040991
5150.0 0.00039359
5170.0 0.00037053
5190.0 0.00033231
5210.0 0.00036375
5230.0 0.0004534
5250.0 0.00052983
5270.0 0.00049184
5290.0 0.00053518
5310.0 0.00071689
5330.0 0.00075774
5350.0 0.00074621
5370.0 0.00084547
5390.0 0.0010514
5410.0 0.00089331
5430.0 0.00067472
5450.0 0.0006817
5470.0 0.00080239
5490.0 0.0010154
5510.0 0.0012451
5530.0 0.0014408
5550.0 0.0012963
5570.0 0.0011577
5590.0 0.00095068
5610.0 0.00096881
5630.0 0.0010892
5650.0 0.0010146
5670.0 0.00093701
5690.0 0.00075772
5710.0 0.00077759
5730.0 0.00075826
5750.0 0.00040327
5770.0 0.00029355
5790.0 0.00036591
5810.0 0.00039336
5830.0 0.00060833
5850.0 0.00078836
5870.0 0.00083634
5890.0 0.00078887
5910.0 0.00076328
5930.0 0.00074129
5950.0 0.00076877
5970.0 0.00095214
5990.0 0.00077945
6010.0 0.00059642
6030.0 0.00048356
6050.0 0.00043091
6070.0 0.00051874
6090.0 0.00059001
6110.0 0.00059973
6130.0 0.00054429
6150.0 0.00042933
6170.0 0.00034864
6190.0 0.00043561
6210.0 0.00068184
6230.0 0.00098905
6250.0 0.0010511
6270.0 0.00080199
6290.0 0.00068478
6310.0 0.00052303
6330.0 0.00038221
6350.0 0.00037614
6370.0 0.00039562
6390.0 0.00047811
6410.0 0.00061334
6430.0 0.00073916
6450.0 0.00091273
6470.0 0.00097056
6490.0 0.0011699
6510.0 0.0013138
6530.0 0.0013258
6550.0 0.001222
6570.0 0.0010038
6590.0 0.00097064
6610.0 0.00080567
6630.0 0.00083623
6650.0 0.00080573
6670.0 0.00071416
6690.0 0.00056638
6710.0 0.00054967
6730.0 0.00026423
6750.0 0.00033538
6770.0 0.00050802
6790.0 0.00067295
6810.0 0.00048984
6830.0 0.00050067
6850.0 0.00042342
6870.0 0.0004012
6890.0 0.00034261
6910.0 0.00040413
6930.0 0.00037912
6950.0 0.0004533
6970.0 0.00046434
6990.0 0.00051418
7010.0 0.00050598
7030.0 0.00056456
7050.0 0.00048791
7070.0 0.00041202
7090.0 0.00043423
7110.0 0.00045046
7130.0 0.00051371
7150.0 0.00058511
7170.0 0.00065248
7190.0 0.00068441
7210.0 0.00060442
7230.0 0.00061057
7250.0 0.00066268
7270.0 0.00072369
7290.0 0.00087814
7310.0 0.00090785
7330.0 0.00083178
7350.0 0.00074176
7370.0 0.00054977
7390.0 0.00057608
7410.0 0.00071357
7430.0 0.00081076
7450.0 0.00087182
7470.0 0.00080999
7490.0 0.00068414
7510.0 0.0010937
7530.0 0.00097945
7550.0 0.00090787
7570.0 0.00061098
7590.0 0.00026894
7610.0 0.0001902
7630.0 0.0002871
7650.0 0.00038505
7670.0 0.00061196
7690.0 0.00068788
7710.0 0.00061936
7730.0 0.00060767
7750.0 0.00079276
7770.0 0.00081107
7790.0 0.00074682
7810.0 0.00061126
7830.0 0.00065597
7850.0 0.00071396
7870.0 0.00069914
7890.0 0.00055001
7910.0 0.00036787
7930.0 0.00037507
7950.0 0.00033726
7970.0 0.00028511
7990.0 0.00025766
8010.0 0.00021164
8030.0 0.00019901
8050.0 0.00021184
8070.0 0.00022926
8090.0 0.00026749
8110.0 0.00025038
8130.0 0.00016457
8150.0 0.0001642
8170.0 0.00010807
8190.0 8.053e-05
8210.0 0.00014879
8230.0 0.00017389
8250.0 9.1959e-05
8270.0 7.6453e-05
8290.0 0.00010723
8310.0 8.7697e-05
8330.0 5.4119e-05
8350.0 4.2966e-05
8370.0 1.7418e-05
8390.0 4.7092e-05
8410.0 5.6173e-05
8430.0 6.9939e-05
8450.0 7.8396e-05
8470.0 0.00011957
8490.0 0.00010056
8510.0 8.2279e-05
8530.0 5.1569e-05
8550.0 0.00013354
8570.0 0.00020075
8590.0 0.00015408
8610.0 0.00022036
8630.0 0.00024196
8650.0 0.00015422
8670.0 0.00020415
8690.0 0.00028982
8710.0 0.00025385
8730.0 0.00026815
8750.0 0.00021753
8770.0 0.00019685
8790.0 0.00021438
8810.0 0.00022679
8830.0 0.00013736
8850.0 7.3666e-05
8870.0 5.5704e-05
8890.0 0.00010381
8910.0 0.00015264
8930.0 0.00019471
8950.0 0.00022007
8970.0 0.00021417
8990.0 0.00016959
9010.0 0.00012537
9030.0 0.00010127
9050.0 0.00010514
9070.0 0.00010889
9090.0 0.00011188
9110.0 0.00011537
9130.0 0.00011792
9150.0 0.00011977
9170.0 0.00012175
9190.0 0.00012386
9210.0 0.00012607
9230.0 0.00012841
9250.0 0.00013079
9270.0 0.00013325
9290.0 0.00013577
9310.0 0.00013831
9330.0 0.00014089
9350.0 0.00014355
9370.0 0.00014624
9390.0 0.00014894
9410.0 0.00015172
9430.0 0.00015457
9450.0 0.00015741
9470.0 0.00016031
9490.0 0.00016327
9510.0 0.00016627
9530.0 0.00016928
9550.0 0.00017239
9570.0 0.00017555
9590.0 0.00017872
9610.0 0.00018193
9630.0 0.00018523
9650.0 0.00018855
9670.0 0.00019188
9690.0 0.00019529
9710.0 0.00019875
9730.0 0.00020222
9750.0 0.00020574
9770.0 0.00020936
9790.0 0.00021297
9810.0 0.0002166
9830.0 0.0002203
9850.0 0.00022405
9870.0 0.00022779
9890.0 0.00023158
9910.0 0.00023544
9930.0 0.0002393
9950.0 0.00024317
9970.0 0.00024712
9990.0 0.0002511
10010.0 0.00022904
10030.0 0.00023259
10050.0 0.00023617
10070.0 0.00023971
10090.0 0.0002433
10110.0 0.00024695
10130.0 0.0002506
10150.0 0.00025422
10170.0 0.00025787
10190.0 0.00026156
10210.0 0.00026521
10230.0 0.00026885
10250.0 0.00027252
10270.0 0.00027618
10290.0 0.00027981
10310.0 0.00028346
10330.0 0.00028712
10350.0 0.00029074
10370.0 0.00029433
10390.0 0.00029794
10410.0 0.00030152
10430.0 0.00030504
10450.0 0.00030857
10470.0 0.00031209
10490.0 0.00031555
10510.0 0.00031897
10530.0 0.00032241
10550.0 0.00032579
10570.0 0.0003291
10590.0 0.00033239
10610.0 0.00033566
10630.0 0.00033884
10650.0 0.00034198
10670.0 0.00034511
10690.0 0.00034817
10710.0 0.00035115
10730.0 0.0003541
10750.0 0.00035702
10770.0 0.00035982
10790.0 0.00036257
10810.0 0.00036528
10830.0 0.00036789
10850.0 0.00037037
10870.0 0.00037275
10890.0 0.00037487
10910.0 0.00037659
10930.0 0.00037774
10950.0 0.000378
10970.0 0.00037709
10990.0 0.00037491
11010.0 0.00038279
11030.0 0.00037703
11050.0 0.00036985
11070.0 0.00036113
11090.0 0.00035056
11110.0 0.00033957
11130.0 0.00032809
11150.0 0.00031574
11170.0 0.00030305
11190.0 0.00029079
11210.0 0.00027821
11230.0 0.00026541
11250.0 0.00025327
11270.0 0.0002417
11290.0 0.00023019
11310.0 0.00021936
11330.0 0.00020984
11350.0 0.00020086
11370.0 0.00019256
11390.0 0.00018532
11410.0 0.00017891
11430.0 0.00017288
11450.0 0.00016755
11470.0 0.00016281
11490.0 0.00015828
11510.0 0.00015382
11530.0 0.00014957
11550.0 0.00014532
11570.0 0.00014078
11590.0 0.0001361
11610.0 0.00013137
11630.0 0.0001263
11650.0 0.00012094
11670.0 0.0001157
11690.0 0.00011044
11710.0 0.00010507
11730.0 9.9883e-05
11750.0 9.5086e-05
11770.0 9.0393e-05
11790.0 8.5986e-05
11810.0 8.2072e-05
11830.0 7.8533e-05
11850.0 7.5238e-05
11870.0 7.2414e-05
11890.0 6.9996e-05
11910.0 6.7809e-05
11930.0 6.586e-05
11950.0 6.4162e-05
11970.0 6.259e-05
11990.0 6.1065e-05
12010.0 5.9618e-05
12030.0 5.8207e-05
12050.0 5.6754e-05
12070.0 5.5252e-05
12090.0 5.3796e-05
12110.0 5.2317e-05
12130.0 5.082e-05
12150.0 4.9396e-05
12170.0 4.8083e-05
12190.0 4.684e-05
12210.0 4.5781e-05
12230.0 4.4955e-05
12250.0 4.4359e-05
12270.0 4.4037e-05
12290.0 4.401e-05
12310.0 4.4255e-05
12330.0 4.4821e-05
12350.0 4.5681e-05
12370.0 4.6755e-05
12390.0 4.8074e-05
12410.0 4.9698e-05
12430.0 5.137e-05
12450.0 5.3118e-05
12470.0 5.4997e-05
12490.0 5.6881e-05
12510.0 5.8624e-05
12530.0 6.0347e-05
12550.0 6.1989e-05
12570.0 6.3394e-05
12590.0 6.4583e-05
12610.0 6.5605e-05
12630.0 6.6357e-05
12650.0 6.6783e-05
12670.0 6.6968e-05
12690.0 6.6879e-05
12710.0 6.6508e-05
12730.0 6.5889e-05
12750.0 6.5006e-05
12770.0 6.3899e-05
12790.0 6.262e-05
12810.0 6.1153e-05
12830.0 5.9508e-05
12850.0 5.7807e-05
12870.0 5.6032e-05
12890.0 5.4142e-05
12910.0 5.2234e-05
12930.0 5.0356e-05
12950.0 4.8414e-05
12970.0 4.6444e-05
12990.0 4.4572e-05
13010.0 4.272e-05
13030.0 4.0848e-05
13050.0 3.9037e-05
13070.0 3.7326e-05
13090.0 3.5602e-05
13110.0 3.3921e-05
13130.0 3.2352e-05
13150.0 3.0851e-05
13170.0 2.937e-05
13190.0 2.803e-05
13210.0 2.6827e-05
13230.0 2.5708e-05
13250.0 2.4715e-05
13270.0 2.3894e-05
13290.0 2.3212e-05
13310.0 2.2676e-05
13330.0 2.2324e-05
13350.0 2.2144e-05
13370.0 2.2136e-05
13390.0 2.2314e-05
13410.0 2.2633e-05
13430.0 2.3108e-05
13450.0 2.374e-05
13470.0 2.4473e-05
13490.0 2.5272e-05
13510.0 2.6203e-05
13530.0 2.7167e-05
13550.0 2.8105e-05
13570.0 2.9048e-05
13590.0 2.9986e-05
13610.0 3.0832e-05
13630.0 3.1581e-05
13650.0 3.2279e-05
13670.0 3.2868e-05
13690.0 3.3329e-05
13710.0 3.3692e-05
13730.0 3.3959e-05
13750.0 3.4095e-05
13770.0 3.4132e-05
13790.0 3.4075e-05
13810.0 3.3925e-05
13830.0 3.3697e-05
13850.0 3.339e-05
13870.0 3.3005e-05
13890.0 3.2567e-05
13910.0 3.2077e-05
13930.0 3.1518e-05
13950.0 3.0915e-05
13970.0 3.0303e-05
13990.0 2.9647e-05
14010.0 2.8958e-05
14030.0 2.8277e-05
14050.0 2.7598e-05
14070.0 2.6889e-05
14090.0 2.6214e-05
14110.0 2.5582e-05
14130.0 2.4973e-05
14150.0 2.44e-05
14170.0 2.391e-05
14190.0 2.3484e-05
14210.0 2.3118e-05
14230.0 2.2841e-05
14250.0 2.2654e-05
14270.0 2.255e-05
14290.0 2.2543e-05
14310.0 2.2625e-05
14330.0 2.2794e-05
14350.0 2.3055e-05
14370.0 2.3392e-05
14390.0 2.3784e-05
14410.0 2.4255e-05
14430.0 2.4786e-05
14450.0 2.534e-05
14470.0 2.593e-05
14490.0 2.6573e-05
14510.0 2.7209e-05
14530.0 2.7832e-05
14550.0 2.8477e-05
14570.0 2.9121e-05
14590.0 2.9733e-05
14610.0 3.0349e-05
14630.0 3.0986e-05
14650.0 3.1605e-05
14670.0 3.2223e-05
14690.0 3.2881e-05
14710.0 3.3581e-05
14730.0 3.4282e-05
14750.0 3.5048e-05
14770.0 3.5899e-05
14790.0 3.68e-05
14810.0 3.7752e-05
14830.0 3.8846e-05
14850.0 4.0003e-05
14870.0 4.1184e-05
14890.0 4.2432e-05
14910.0 4.3731e-05
14930.0 4.4965e-05
14950.0 4.611e-05
14970.0 4.7187e-05
14990.0 4.8093e-05
15010.0 4.8797e-05
15030.0 4.9333e-05
15050.0 4.9708e-05
15070.0 4.9925e-05
15090.0 5.0044e-05
15110.0 5.0095e-05
15130.0 5.0104e-05
15150.0 5.0094e-05
15170.0 5.0071e-05
15190.0 5.004e-05
15210.0 5.0013e-05
15230.0 4.9986e-05
15250.0 4.9956e-05
15270.0 4.9928e-05
15290.0 4.9906e-05
15310.0 4.9882e-05
15330.0 4.9857e-05
15350.0 4.9837e-05
15370.0 4.9818e-05
15390.0 4.9793e-05
15410.0 4.9772e-05
15430.0 4.9755e-05
15450.0 4.9736e-05
15470.0 4.9715e-05
15490.0 4.9699e-05
15510.0 4.9684e-05
15530.0 4.9665e-05
15550.0 4.9648e-05
15570.0 4.9635e-05
15590.0 4.9617e-05
15610.0 4.9597e-05
15630.0 4.9584e-05
15650.0 4.9569e-05
15670.0 4.9551e-05
15690.0 4.9535e-05
15710.0 4.9523e-05
15730.0 4.9505e-05
15750.0 4.9486e-05
15770.0 4.9472e-05
15790.0 4.9456e-05
15810.0 4.9433e-05
15830.0 4.9416e-05
15850.0 4.9401e-05
15870.0 4.938e-05
15890.0 4.9359e-05
15910.0 4.9343e-05
15930.0 4.9323e-05
15950.0 4.9297e-05
15970.0 4.9276e-05
15990.0 4.9255e-05
16010.0 4.923e-05
16030.0 4.9202e-05
16050.0 4.918e-05
16070.0 4.9155e-05
16090.0 4.9125e-05
16110.0 4.9097e-05
16130.0 4.9072e-05
16150.0 4.9037e-05
16170.0 4.9003e-05
16190.0 4.8973e-05
16210.0 4.8939e-05
16230.0 4.8901e-05
16250.0 4.8866e-05
16270.0 4.8831e-05
16290.0 4.879e-05
16310.0 4.8748e-05
16330.0 4.871e-05
16350.0 4.8667e-05
16370.0 4.8616e-05
16390.0 4.8572e-05
16410.0 4.8527e-05
16430.0 4.8476e-05
16450.0 4.8425e-05
16470.0 4.8377e-05
16490.0 4.8322e-05
16510.0 4.8264e-05
16530.0 4.8209e-05
16550.0 4.8152e-05
16570.0 4.8089e-05
16590.0 4.8025e-05
16610.0 4.7966e-05
16630.0 4.7901e-05
16650.0 4.7832e-05
16670.0 4.7766e-05
16690.0 4.7698e-05
16710.0 4.7621e-05
16730.0 4.7547e-05
16750.0 4.7475e-05
16770.0 4.7397e-05
16790.0 4.7314e-05
16810.0 4.7237e-05
16830.0 4.7157e-05
16850.0 4.707e-05
16870.0 4.6984e-05
16890.0 4.69e-05
16910.0 4.6808e-05
16930.0 4.6712e-05
16950.0 4.6622e-05
16970.0 4.6529e-05
16990.0 4.6429e-05
17010.0 4.6331e-05
17030.0 4.6235e-05
17050.0 4.6131e-05
17070.0 4.6025e-05
17090.0 4.5922e-05
17110.0 4.5816e-05
17130.0 4.5702e-05
17150.0 4.5591e-05
17170.0 4.5483e-05
17190.0 4.5367e-05
17210.0 4.5249e-05
17230.0 4.5136e-05
17250.0 4.5016e-05
17270.0 4.4891e-05
17290.0 4.4769e-05
17310.0 4.4647e-05
17330.0 4.4519e-05
17350.0 4.4387e-05
17370.0 4.4263e-05
17390.0 4.4132e-05
17410.0 4.3997e-05
17430.0 4.3865e-05
17450.0 4.3733e-05
17470.0 4.359e-05
17490.0 4.345e-05
17510.0 4.3313e-05
17530.0 4.3171e-05
17550.0 4.3024e-05
17570.0 4.2882e-05
17590.0 4.2739e-05
17610.0 4.2588e-05
17630.0 4.2438e-05
17650.0 4.2292e-05
17670.0 4.214e-05
17690.0 4.198e-05
17710.0 4.1829e-05
17730.0 4.1676e-05
17750.0 4.1516e-05
17770.0 4.1358e-05
17790.0 4.1203e-05
17810.0 4.1041e-05
17830.0 4.0876e-05
17850.0 4.0715e-05
17870.0 4.0553e-05
17890.0 4.0384e-05
17910.0 4.0216e-05
17930.0 4.0054e-05
17950.0 3.9885e-05
17970.0 3.9713e-05
17990.0 3.9546e-05
18010.0 3.9377e-05
18030.0 3.9199e-05
18050.0 3.9026e-05
18070.0 3.8855e-05
18090.0 3.8679e-05
18110.0 3.85e-05
18130.0 3.8327e-05
18150.0 3.8152e-05
18170.0 3.7971e-05
18190.0 3.7792e-05
18210.0 3.7617e-05
18230.0 3.7434e-05
18250.0 3.7249e-05
18270.0 3.7071e-05
18290.0 3.689e-05
18310.0 3.6704e-05
18330.0 3.6522e-05
18350.0 3.6342e-05
18370.0 3.6155e-05
18390.0 3.5969e-05
18410.0 3.5786e-05
18430.0 3.5601e-05
18450.0 3.541e-05
18470.0 3.5224e-05
18490.0 3.5041e-05
18510.0 3.4852e-05
18530.0 3.4663e-05
18550.0 3.4479e-05
18570.0 3.4291e-05
18590.0 3.4098e-05
18610.0 3.3911e-05
18630.0 3.3724e-05
18650.0 3.3533e-05
18670.0 3.3341e-05
18690.0 3.3156e-05
18710.0 3.2967e-05
18730.0 3.2774e-05
18750.0 3.2586e-05
18770.0 3.24e-05
18790.0 3.2205e-05
18810.0 3.2013e-05
18830.0 3.1827e-05
18850.0 3.1636e-05
18870.0 3.1443e-05
18890.0 3.1256e-05
18910.0 3.1069e-05
18930.0 3.0876e-05
18950.0 3.0686e-05
18970.0 3.05e-05
18990.0 3.031e-05
19010.0 3.0114e-05
19030.0 2.9928e-05
19050.0 2.9742e-05
19070.0 2.9551e-05
19090.0 2.9362e-05
19110.0 2.9178e-05
19130.0 2.8988e-05
19150.0 2.8797e-05
19170.0 2.8612e-05
19190.0 2.8426e-05
19210.0 2.8235e-05
19230.0 2.8047e-05
19250.0 2.7865e-05
19270.0 2.7678e-05
19290.0 2.7491e-05
19310.0 2.7308e-05
19330.0 2.7125e-05
19350.0 2.6935e-05
19370.0 2.6752e-05
19390.0 2.6571e-05
19410.0 2.6386e-05
19430.0 2.62e-05
19450.0 2.6021e-05
19470.0 2.5841e-05
19490.0 2.5656e-05
19510.0 2.5476e-05
19530.0 2.5299e-05
19550.0 2.5115e-05
19570.0 2.4932e-05
19590.0 2.4757e-05
19610.0 2.4579e-05
19630.0 2.4398e-05
19650.0 2.4222e-05
19670.0 2.4048e-05
19690.0 2.3869e-05
19710.0 2.3692e-05
19730.0 2.3519e-05
19750.0 2.3344e-05
19770.0 2.3166e-05
19790.0 2.2993e-05
19810.0 2.2823e-05
19830.0 2.2648e-05
19850.0 2.2474e-05
19870.0 2.2303e-05
19890.0 2.2124e-05
19910.0 2.1935e-05
19930.0 2.1739e-05
19950.0 2.1525e-05
19970.0 2.1279e-05
19990.0 2.0998e-05
20010.0 2.0035e-05
20030.0 1.969e-05
20050.0 1.93e-05
20070.0 1.8887e-05
20090.0 1.8452e-05
20110.0 1.7971e-05
20130.0 1.7492e-05
20150.0 1.7023e-05
20170.0 1.6543e-05
20190.0 1.6061e-05
20210.0 1.5609e-05
20230.0 1.5171e-05
20250.0 1.4734e-05
20270.0 1.4329e-05
20290.0 1.3958e-05
20310.0 1.3605e-05
20330.0 1.3273e-05
20350.0 1.2992e-05
20370.0 1.274e-05
20390.0 1.2514e-05
20410.0 1.2326e-05
20430.0 1.2174e-05
20450.0 1.2048e-05
20470.0 1.1954e-05
20490.0 1.1891e-05
20510.0 1.1856e-05
20530.0 1.1846e-05
20550.0 1.1861e-05
20570.0 1.1895e-05
20590.0 1.1951e-05
20610.0 1.2025e-05
20630.0 1.2111e-05
20650.0 1.2211e-05
20670.0 1.2329e-05
20690.0 1.2451e-05
20710.0 1.2579e-05
20730.0 1.2718e-05
20750.0 1.2863e-05
20770.0 1.3005e-05
20790.0 1.3153e-05
20810.0 1.3308e-05
20830.0 1.346e-05
20850.0 1.361e-05
20870.0 1.3769e-05
20890.0 1.3929e-05
20910.0 1.4079e-05
20930.0 1.4234e-05
20950.0 1.4393e-05
20970.0 1.4546e-05
20990.0 1.4695e-05
21010.0 1.4852e-05
21030.0 1.5004e-05
21050.0 1.5147e-05
21070.0 1.5291e-05
21090.0 1.5435e-05
21110.0 1.5566e-05
21130.0 1.5689e-05
21150.0 1.581e-05
21170.0 1.592e-05
21190.0 1.6015e-05
21210.0 1.6104e-05
21230.0 1.6181e-05
21250.0 1.6239e-05
21270.0 1.628e-05
21290.0 1.6305e-05
21310.0 1.6308e-05
21330.0 1.6289e-05
21350.0 1.6246e-05
21370.0 1.6177e-05
21390.0 1.6083e-05
21410.0 1.5963e-05
21430.0 1.5808e-05
21450.0 1.5628e-05
21470.0 1.5427e-05
21490.0 1.5195e-05
21510.0 1.4936e-05
21530.0 1.4667e-05
21550.0 1.4381e-05
21570.0 1.4071e-05
21590.0 1.376e-05
21610.0 1.3454e-05
21630.0 1.3141e-05
21650.0 1.2828e-05
21670.0 1.2549e-05
21690.0 1.2284e-05
21710.0 1.2035e-05
21730.0 1.1819e-05
21750.0 1.1638e-05
21770.0 1.1482e-05
21790.0 1.1364e-05
21810.0 1.1287e-05
21830.0 1.1245e-05
21850.0 1.1241e-05
21870.0 1.1274e-05
21890.0 1.1336e-05
21910.0 1.1434e-05
21930.0 1.1562e-05
21950.0 1.171e-05
21970.0 1.1884e-05
21990.0 1.2088e-05
22010.0 1.2299e-05
22030.0 1.2519e-05
22050.0 1.2758e-05
22070.0 1.3004e-05
22090.0 1.3243e-05
22110.0 1.3489e-05
22130.0 1.3741e-05
22150.0 1.3981e-05
22170.0 1.4211e-05
22190.0 1.4445e-05
22210.0 1.4666e-05
22230.0 1.4863e-05
22250.0 1.5052e-05
22270.0 1.5228e-05
22290.0 1.5381e-05
22310.0 1.5513e-05
22330.0 1.5632e-05
22350.0 1.5725e-05
22370.0 1.5791e-05
22390.0 1.5836e-05
22410.0 1.5854e-05
22430.0 1.5844e-05
22450.0 1.5808e-05
22470.0 1.5742e-05
22490.0 1.5648e-05
22510.0 1.5529e-05
22530.0 1.5376e-05
22550.0 1.519e-05
22570.0 1.4983e-05
22590.0 1.4749e-05
22610.0 1.448e-05
22630.0 1.4188e-05
