#lamb flux
1010.0 4.4327e-05
1030.0 4.8518e-05
1050.0 5.2858e-05
1070.0 5.7746e-05
1090.0 6.3437e-05
1110.0 6.9247e-05
1130.0 7.5079e-05
1150.0 8.1184e-05
1170.0 8.7492e-05
1190.0 9.3508e-05
1210.0 9.9659e-05
1230.0 0.00010609
1250.0 0.00011246
1270.0 0.00011876
1290.0 0.00012553
1310.0 0.00013243
1330.0 0.0001392
1350.0 0.00014616
1370.0 0.00015343
1390.0 0.00016061
1410.0 0.00016766
1430.0 0.00017502
1450.0 0.00018237
1470.0 0.00018947
1490.0 0.00019657
1510.0 0.00020394
1530.0 0.00021084
1550.0 0.0002175
1570.0 0.00022423
1590.0 0.00023079
1610.0 0.00023684
1630.0 0.00024284
1650.0 0.00024879
1670.0 0.00025429
1690.0 0.0002595
1710.0 0.00026473
1730.0 0.00026978
1750.0 0.00027426
1770.0 0.00027876
1790.0 0.00028324
1810.0 0.00028743
1830.0 0.00029144
1850.0 0.00029581
1870.0 0.00030005
1890.0 0.00030416
1910.0 0.00030852
1930.0 0.0003132
1950.0 0.0003178
1970.0 0.00032259
1990.0 0.00032785
2010.0 0.00033329
2030.0 0.00033879
2050.0 0.00034474
2070.0 0.00035107
2090.0 0.00035728
2110.0 0.00036364
2130.0 0.00037029
2150.0 0.0003769
2170.0 0.00038327
2190.0 0.00038981
2210.0 0.00039629
2230.0 0.00040239
2250.0 0.00040826
2270.0 0.00041415
2290.0 0.00041958
2310.0 0.00042447
2330.0 0.00042921
2350.0 0.00043365
2370.0 0.00043751
2390.0 0.00044107
2410.0 0.00044456
2430.0 0.00044751
2450.0 0.00045001
2470.0 0.00045235
2490.0 0.00045456
2510.0 0.00045652
2530.0 0.00045941
2550.0 0.00046501
2570.0 0.00047527
2590.0 0.00049266
2610.0 0.00052317
2630.0 0.00056876
2650.0 0.00062726
2670.0 0.00069959
2690.0 0.00078291
2710.0 0.00086451
2730.0 0.00093674
2750.0 0.0009973
2770.0 0.0010356
2790.0 0.0010487
2810.0 0.0010381
2830.0 0.0010036
2850.0 0.00095188
2870.0 0.00088781
2890.0 0.00081245
2910.0 0.00073099
2930.0 0.00064912
2950.0 0.00056234
2970.0 0.00047224
2990.0 0.00038365
3010.0 0.00046625
3030.0 0.00031974
3050.0 0.00017247
3070.0 5.1567e-05
3090.0 5.1567e-05
3110.0 5.1567e-05
3130.0 5.1567e-05
3150.0 5.1567e-05
3170.0 5.1567e-05
3190.0 5.1567e-05
3210.0 0.001628
3230.0 0.0045284
3250.0 0.0061607
3270.0 0.0054062
3290.0 0.0040977
3310.0 0.0032461
3330.0 0.003028
3350.0 0.0031761
3370.0 0.003436
3390.0 0.0037078
3410.0 0.0039925
3430.0 0.0043404
3450.0 0.0046731
3470.0 0.0050185
3490.0 0.0050827
3510.0 0.004433
3530.0 0.0041506
3550.0 0.0053079
3570.0 0.0067592
3590.0 0.0075227
3610.0 0.0077881
3630.0 0.0082559
3650.0 0.0082634
3670.0 0.0086104
3690.0 0.010127
3710.0 0.011771
3730.0 0.012851
3750.0 0.013518
3770.0 0.013733
3790.0 0.013318
3810.0 0.012347
3830.0 0.010808
3850.0 0.008504
3870.0 0.0075609
3890.0 0.0085171
3910.0 0.011283
3930.0 0.014103
3950.0 0.015418
3970.0 0.015959
3990.0 0.017211
4010.0 0.017795
4030.0 0.016089
4050.0 0.012129
4070.0 0.010262
4090.0 0.011492
4110.0 0.012757
4130.0 0.013626
4150.0 0.013634
4170.0 0.013109
4190.0 0.012522
4210.0 0.013332
4230.0 0.014319
4250.0 0.015175
4270.0 0.015216
4290.0 0.014737
4310.0 0.014809
4330.0 0.016279
4350.0 0.01792
4370.0 0.018154
4390.0 0.016929
4410.0 0.015049
4430.0 0.012197
4450.0 0.010076
4470.0 0.01003
4490.0 0.011131
4510.0 0.01213
4530.0 0.012753
4550.0 0.013756
4570.0 0.017885
4590.0 0.024577
4610.0 0.029205
4630.0 0.031022
4650.0 0.033735
4670.0 0.037566
4690.0 0.038239
4710.0 0.033127
4730.0 0.025993
4750.0 0.020403
4770.0 0.017162
4790.0 0.01564
4810.0 0.015196
4830.0 0.016514
4850.0 0.019467
4870.0 0.021741
4890.0 0.022302
4910.0 0.022409
4930.0 0.024764
4950.0 0.028539
4970.0 0.030984
4990.0 0.030756
5010.0 0.027705
5030.0 0.022932
5050.0 0.018595
5070.0 0.015881
5090.0 0.014855
5110.0 0.014871
5130.0 0.015066
5150.0 0.014875
5170.0 0.014159
5190.0 0.013825
5210.0 0.014497
5230.0 0.016507
5250.0 0.01984
5270.0 0.02337
5290.0 0.025757
5310.0 0.027723
5330.0 0.030585
5350.0 0.033074
5370.0 0.033029
5390.0 0.030681
5410.0 0.028566
5430.0 0.029178
5450.0 0.033434
5470.0 0.039158
5490.0 0.04352
5510.0 0.045251
5530.0 0.044884
5550.0 0.043445
5570.0 0.041817
5590.0 0.040256
5610.0 0.039289
5630.0 0.039247
5650.0 0.03914
5670.0 0.03722
5690.0 0.033544
5710.0 0.029828
5730.0 0.027449
5750.0 0.026798
5770.0 0.02765
5790.0 0.028598
5810.0 0.029141
5830.0 0.029339
5850.0 0.028687
5870.0 0.02778
5890.0 0.027749
5910.0 0.028591
5930.0 0.028796
5950.0 0.027139
5970.0 0.02397
5990.0 0.020045
6010.0 0.016989
6030.0 0.016176
6050.0 0.017371
6070.0 0.018251
6090.0 0.017281
6110.0 0.01586
6130.0 0.016305
6150.0 0.018236
6170.0 0.020014
6190.0 0.021097
6210.0 0.021482
6230.0 0.021086
6250.0 0.019175
6270.0 0.016169
6290.0 0.013654
6310.0 0.012612
6330.0 0.012754
6350.0 0.01319
6370.0 0.013902
6390.0 0.015917
6410.0 0.019179
6430.0 0.022076
6450.0 0.023538
6470.0 0.024186
6490.0 0.024553
6510.0 0.02477
6530.0 0.024984
6550.0 0.025262
6570.0 0.025898
6590.0 0.026467
6610.0 0.026397
6630.0 0.025279
6650.0 0.023378
6670.0 0.021539
6690.0 0.020301
6710.0 0.019433
6730.0 0.018625
6750.0 0.018315
6770.0 0.018801
6790.0 0.019502
6810.0 0.019822
6830.0 0.019514
6850.0 0.018575
6870.0 0.017591
6890.0 0.017157
6910.0 0.017149
6930.0 0.017568
6950.0 0.018023
6970.0 0.018373
6990.0 0.018442
7010.0 0.017841
7030.0 0.016493
7050.0 0.014789
7070.0 0.013631
7090.0 0.013391
7110.0 0.013508
7130.0 0.012882
7150.0 0.011643
7170.0 0.011367
7190.0 0.012564
7210.0 0.014398
7230.0 0.01597
7250.0 0.01655
7270.0 0.016171
7290.0 0.015188
7310.0 0.014373
7330.0 0.014236
7350.0 0.014481
7370.0 0.014731
7390.0 0.015441
7410.0 0.01696
7430.0 0.018874
7450.0 0.020469
7470.0 0.021016
7490.0 0.020051
7510.0 0.018512
7530.0 0.01733
7550.0 0.016214
7570.0 0.015023
7590.0 0.014396
7610.0 0.014421
7630.0 0.015041
7650.0 0.016189
7670.0 0.017593
7690.0 0.018806
7710.0 0.019724
7730.0 0.020511
7750.0 0.021133
7770.0 0.021225
7790.0 0.021425
7810.0 0.021423
7830.0 0.02076
7850.0 0.019982
7870.0 0.019537
7890.0 0.019637
7910.0 0.01958
7930.0 0.019093
7950.0 0.018316
7970.0 0.017614
7990.0 0.016944
8010.0 0.016317
8030.0 0.016346
8050.0 0.016314
8070.0 0.016065
8090.0 0.015886
8110.0 0.01553
8130.0 0.015509
8150.0 0.015351
8170.0 0.015017
8190.0 0.014589
8210.0 0.014201
8230.0 0.01379
8250.0 0.013622
8270.0 0.012704
8290.0 0.01081
8310.0 0.0086864
8330.0 0.0072367
8350.0 0.0068999
8370.0 0.0078237
8390.0 0.0090926
8410.0 0.009695
8430.0 0.0099724
8450.0 0.010596
8470.0 0.011436
8490.0 0.012667
8510.0 0.014151
8530.0 0.015739
8550.0 0.017026
8570.0 0.017984
8590.0 0.018692
8610.0 0.019052
8630.0 0.018945
8650.0 0.018617
8670.0 0.018614
8690.0 0.019589
8710.0 0.020923
8730.0 0.021608
8750.0 0.021467
8770.0 0.02171
8790.0 0.021684
8810.0 0.0206
8830.0 0.019138
8850.0 0.017296
8870.0 0.01587
8890.0 0.015433
8910.0 0.01524
8930.0 0.014288
8950.0 0.013205
8970.0 0.012744
8990.0 0.012731
9010.0 0.012417
9030.0 0.012172
9050.0 0.012058
9070.0 0.012001
9090.0 0.011952
9110.0 0.011904
9130.0 0.011857
9150.0 0.01181
9170.0 0.011762
9190.0 0.011724
9210.0 0.011709
9230.0 0.011651
9250.0 0.011599
9270.0 0.011551
9290.0 0.011507
9310.0 0.011463
9330.0 0.011421
9350.0 0.011381
9370.0 0.011342
9390.0 0.011303
9410.0 0.011264
9430.0 0.011224
9450.0 0.011168
9470.0 0.011119
9490.0 0.011099
9510.0 0.011071
9530.0 0.011041
9550.0 0.011009
9570.0 0.010976
9590.0 0.010943
9610.0 0.01091
9630.0 0.010877
9650.0 0.010844
9670.0 0.010812
9690.0 0.01078
9710.0 0.010748
9730.0 0.010717
9750.0 0.010685
9770.0 0.010654
9790.0 0.010622
9810.0 0.010592
9830.0 0.010561
9850.0 0.010529
9870.0 0.010499
9890.0 0.010468
9910.0 0.010437
9930.0 0.010406
9950.0 0.010325
9970.0 0.010308
9990.0 0.010288
10010.0 0.010268
10030.0 0.010243
10050.0 0.010213
10070.0 0.010184
10090.0 0.010154
10110.0 0.010119
10130.0 0.010078
10150.0 0.010047
10170.0 0.010015
10190.0 0.0099793
10210.0 0.009946
10230.0 0.0099128
10250.0 0.0098754
10270.0 0.0098378
10290.0 0.0098026
10310.0 0.0097637
10330.0 0.0097214
10350.0 0.0096824
10370.0 0.0096429
10390.0 0.0095995
10410.0 0.0095558
10430.0 0.0095153
10450.0 0.0094706
10470.0 0.0094235
10490.0 0.0093783
10510.0 0.0093327
10530.0 0.0092809
10550.0 0.0092305
10570.0 0.0091823
10590.0 0.0091302
10610.0 0.0090755
10630.0 0.0090234
10650.0 0.0089699
10670.0 0.0089108
10690.0 0.0088528
10710.0 0.008796
10730.0 0.008735
10750.0 0.0086698
10770.0 0.0086096
10790.0 0.0085469
10810.0 0.0084797
10830.0 0.0084131
10850.0 0.0083485
10870.0 0.0082765
10890.0 0.0082032
10910.0 0.0081323
10930.0 0.0080587
10950.0 0.0079796
10970.0 0.0079008
10990.0 0.007824
11010.0 0.0084677
11030.0 0.008381
11050.0 0.0082972
11070.0 0.0082115
11090.0 0.0081193
11110.0 0.0080333
11130.0 0.0079492
11150.0 0.0078619
11170.0 0.0077746
11190.0 0.0076926
11210.0 0.0076084
11230.0 0.0075219
11250.0 0.0074395
11270.0 0.0073592
11290.0 0.0072761
11310.0 0.0071939
11330.0 0.0071178
11350.0 0.00704
11370.0 0.0069605
11390.0 0.0068833
11410.0 0.0068064
11430.0 0.0067227
11450.0 0.0066376
11470.0 0.0065517
11490.0 0.0064596
11510.0 0.0063593
11530.0 0.0062582
11550.0 0.0061529
11570.0 0.0060385
11590.0 0.0059205
11610.0 0.0058027
11630.0 0.0056776
11650.0 0.0055472
11670.0 0.0054213
11690.0 0.0052952
11710.0 0.0051654
11730.0 0.0050382
11750.0 0.0049174
11770.0 0.0047941
11790.0 0.0046718
11810.0 0.0045555
11830.0 0.0044417
11850.0 0.0043251
11870.0 0.0042141
11890.0 0.0041089
11910.0 0.0040031
11930.0 0.0038991
11950.0 0.0038014
11970.0 0.0037059
11990.0 0.0036102
12010.0 0.0035205
12030.0 0.0034363
12050.0 0.0033542
12070.0 0.0032755
12090.0 0.0032057
12110.0 0.0031403
12130.0 0.0030792
12150.0 0.0030255
12170.0 0.002979
12190.0 0.0029374
12210.0 0.0029034
12230.0 0.0028772
12250.0 0.0028578
12270.0 0.0028457
12290.0 0.0028406
12310.0 0.0028413
12330.0 0.0028489
12350.0 0.0028621
12370.0 0.0028791
12390.0 0.0029006
12410.0 0.0029277
12430.0 0.0029553
12450.0 0.002984
12470.0 0.0030154
12490.0 0.0030471
12510.0 0.0030763
12530.0 0.0031057
12550.0 0.0031345
12570.0 0.0031592
12590.0 0.0031802
12610.0 0.0031988
12630.0 0.0032124
12650.0 0.0032191
12670.0 0.0032209
12690.0 0.0032168
12710.0 0.0032059
12730.0 0.0031886
12750.0 0.0031649
12770.0 0.0031348
12790.0 0.0030994
12810.0 0.0030586
12830.0 0.0030125
12850.0 0.0029641
12870.0 0.0029132
12890.0 0.0028592
12910.0 0.0028046
12930.0 0.0027508
12950.0 0.0026959
12970.0 0.002641
12990.0 0.0025892
13010.0 0.0025387
13030.0 0.0024886
13050.0 0.0024408
13070.0 0.0023958
13090.0 0.0023511
13110.0 0.0023077
13130.0 0.0022666
13150.0 0.0022268
13170.0 0.002187
13190.0 0.0021493
13210.0 0.0021136
13230.0 0.0020782
13250.0 0.0020439
13270.0 0.0020117
13290.0 0.0019805
13310.0 0.0019499
13330.0 0.0019214
13350.0 0.0018946
13370.0 0.001869
13390.0 0.0018447
13410.0 0.0018229
13430.0 0.0018024
13450.0 0.0017832
13470.0 0.0017655
13490.0 0.0017493
13510.0 0.0017336
13530.0 0.0017187
13550.0 0.0017045
13570.0 0.0016904
13590.0 0.0016761
13610.0 0.0016618
13630.0 0.0016474
13650.0 0.0016323
13670.0 0.0016167
13690.0 0.0016011
13710.0 0.0015851
13730.0 0.0015685
13750.0 0.0015524
13770.0 0.0015366
13790.0 0.0015207
13810.0 0.0015054
13830.0 0.0014911
13850.0 0.0014771
13870.0 0.0014637
13890.0 0.0014512
13910.0 0.0014395
13930.0 0.001428
13950.0 0.0014171
13970.0 0.001407
13990.0 0.0013968
14010.0 0.0013866
14030.0 0.0013766
14050.0 0.0013664
14070.0 0.0013555
14090.0 0.0013443
14110.0 0.001333
14130.0 0.001321
14150.0 0.0013082
14170.0 0.0012957
14190.0 0.001283
14210.0 0.0012698
14230.0 0.001257
14250.0 0.0012449
14270.0 0.0012328
14290.0 0.0012214
14310.0 0.0012114
14330.0 0.0012024
14350.0 0.0011944
14370.0 0.0011877
14390.0 0.0011823
14410.0 0.0011778
14430.0 0.0011744
14450.0 0.0011721
14470.0 0.0011704
14490.0 0.0011693
14510.0 0.0011688
14530.0 0.0011687
14550.0 0.0011689
14570.0 0.0011695
14590.0 0.0011705
14610.0 0.0011721
14630.0 0.0011744
14650.0 0.0011777
14670.0 0.0011821
14690.0 0.001188
14710.0 0.0011958
14730.0 0.0012052
14750.0 0.0012168
14770.0 0.0012311
14790.0 0.0012476
14810.0 0.0012664
14830.0 0.0012892
14850.0 0.0013147
14870.0 0.0013421
14890.0 0.0013724
14910.0 0.0014055
14930.0 0.0014385
14950.0 0.0014707
14970.0 0.0015025
14990.0 0.0015311
15010.0 0.0015551
15030.0 0.0015752
15050.0 0.0015915
15070.0 0.0016036
15090.0 0.0016132
15110.0 0.0016211
15130.0 0.0016278
15150.0 0.001634
15170.0 0.00164
15190.0 0.0016459
15210.0 0.0016519
15230.0 0.001658
15250.0 0.0016642
15270.0 0.0016705
15290.0 0.001677
15310.0 0.0016835
15330.0 0.0016902
15350.0 0.001697
15370.0 0.0017039
15390.0 0.001711
15410.0 0.0017181
15430.0 0.0017253
15450.0 0.0017327
15470.0 0.0017402
15490.0 0.0017477
15510.0 0.0017554
15530.0 0.0017631
15550.0 0.001771
15570.0 0.001779
15590.0 0.001787
15610.0 0.0017951
15630.0 0.0018034
15650.0 0.0018117
15670.0 0.0018201
15690.0 0.0018286
15710.0 0.0018371
15730.0 0.0018458
15750.0 0.0018545
15770.0 0.0018633
15790.0 0.0018721
15810.0 0.001881
15830.0 0.00189
15850.0 0.001899
15870.0 0.0019081
15890.0 0.0019173
15910.0 0.0019265
15930.0 0.0019358
15950.0 0.001945
15970.0 0.0019544
15990.0 0.0019638
16010.0 0.0019732
16030.0 0.0019827
16050.0 0.0019922
16070.0 0.0020017
16090.0 0.0020112
16110.0 0.0020208
16130.0 0.0020304
16150.0 0.0020399
16170.0 0.0020495
16190.0 0.0020592
16210.0 0.0020688
16230.0 0.0020784
16250.0 0.002088
16270.0 0.0020976
16290.0 0.0021072
16310.0 0.0021168
16330.0 0.0021264
16350.0 0.0021359
16370.0 0.0021454
16390.0 0.0021549
16410.0 0.0021644
16430.0 0.0021738
16450.0 0.0021832
16470.0 0.0021926
16490.0 0.0022019
16510.0 0.0022111
16530.0 0.0022203
16550.0 0.0022294
16570.0 0.0022385
16590.0 0.0022475
16610.0 0.0022564
16630.0 0.0022653
16650.0 0.0022741
16670.0 0.0022828
16690.0 0.0022914
16710.0 0.0022999
16730.0 0.0023083
16750.0 0.0023167
16770.0 0.0023249
16790.0 0.002333
16810.0 0.0023411
16830.0 0.002349
16850.0 0.0023568
16870.0 0.0023644
16890.0 0.002372
16910.0 0.0023794
16930.0 0.0023867
16950.0 0.0023939
16970.0 0.0024009
16990.0 0.0024078
17010.0 0.0024145
17030.0 0.0024212
17050.0 0.0024276
17070.0 0.0024339
17090.0 0.0024401
17110.0 0.002446
17130.0 0.0024518
17150.0 0.0024575
17170.0 0.002463
17190.0 0.0024683
17210.0 0.0024735
17230.0 0.0024785
17250.0 0.0024833
17270.0 0.0024879
17290.0 0.0024923
17310.0 0.0024966
17330.0 0.0025006
17350.0 0.0025045
17370.0 0.0025082
17390.0 0.0025117
17410.0 0.002515
17430.0 0.0025181
17450.0 0.002521
17470.0 0.0025237
17490.0 0.0025262
17510.0 0.0025285
17530.0 0.0025306
17550.0 0.0025325
17570.0 0.0025342
17590.0 0.0025357
17610.0 0.0025369
17630.0 0.002538
17650.0 0.0025389
17670.0 0.0025395
17690.0 0.0025399
17710.0 0.0025402
17730.0 0.0025402
17750.0 0.00254
17770.0 0.0025396
17790.0 0.002539
17810.0 0.0025381
17830.0 0.0025371
17850.0 0.0025358
17870.0 0.0025344
17890.0 0.0025327
17910.0 0.0025308
17930.0 0.0025287
17950.0 0.0025264
17970.0 0.0025239
17990.0 0.0025212
18010.0 0.0025183
18030.0 0.0025152
18050.0 0.0025119
18070.0 0.0025083
18090.0 0.0025046
18110.0 0.0025007
18130.0 0.0024966
18150.0 0.0024923
18170.0 0.0024878
18190.0 0.0024831
18210.0 0.0024782
18230.0 0.0024731
18250.0 0.0024678
18270.0 0.0024624
18290.0 0.0024568
18310.0 0.002451
18330.0 0.002445
18350.0 0.0024389
18370.0 0.0024325
18390.0 0.002426
18410.0 0.0024194
18430.0 0.0024126
18450.0 0.0024056
18470.0 0.0023984
18490.0 0.0023911
18510.0 0.0023837
18530.0 0.0023761
18550.0 0.0023683
18570.0 0.0023604
18590.0 0.0023524
18610.0 0.0023442
18630.0 0.0023359
18650.0 0.0023274
18670.0 0.0023189
18690.0 0.0023102
18710.0 0.0023013
18730.0 0.0022924
18750.0 0.0022833
18770.0 0.0022741
18790.0 0.0022648
18810.0 0.0022554
18830.0 0.0022459
18850.0 0.0022363
18870.0 0.0022266
18890.0 0.0022168
18910.0 0.0022069
18930.0 0.0021969
18950.0 0.0021869
18970.0 0.0021767
18990.0 0.0021665
19010.0 0.0021561
19030.0 0.0021458
19050.0 0.0021353
19070.0 0.0021248
19090.0 0.0021142
19110.0 0.0021036
19130.0 0.0020929
19150.0 0.0020821
19170.0 0.0020713
19190.0 0.0020604
19210.0 0.0020495
19230.0 0.0020385
19250.0 0.0020276
19270.0 0.0020165
19290.0 0.0020055
19310.0 0.0019944
19330.0 0.0019832
19350.0 0.0019721
19370.0 0.0019609
19390.0 0.0019497
19410.0 0.0019385
19430.0 0.0019273
19450.0 0.001916
19470.0 0.0019048
19490.0 0.0018935
19510.0 0.0018822
19530.0 0.001871
19550.0 0.0018597
19570.0 0.0018484
19590.0 0.0018371
19610.0 0.0018259
19630.0 0.0018146
19650.0 0.0018034
19670.0 0.0017922
19690.0 0.001781
19710.0 0.0017698
19730.0 0.0017586
19750.0 0.0017474
19770.0 0.0017363
19790.0 0.0017252
19810.0 0.0017141
19830.0 0.001703
19850.0 0.0016918
19870.0 0.0016805
19890.0 0.001669
19910.0 0.0016568
19930.0 0.0016436
19950.0 0.0016291
19970.0 0.0016124
19990.0 0.001593
20010.0 0.0015713
20030.0 0.0015464
20050.0 0.0015186
20070.0 0.0014891
20090.0 0.0014584
20110.0 0.0014254
20130.0 0.0013927
20150.0 0.0013609
20170.0 0.001329
20190.0 0.0012974
20210.0 0.0012676
20230.0 0.0012388
20250.0 0.0012103
20270.0 0.0011834
20290.0 0.0011583
20310.0 0.001134
20330.0 0.0011105
20350.0 0.0010894
20370.0 0.0010694
20390.0 0.0010504
20410.0 0.0010329
20430.0 0.001017
20450.0 0.0010017
20470.0 0.00098771
20490.0 0.00097504
20510.0 0.00096331
20530.0 0.00095236
20550.0 0.00094241
20570.0 0.00093332
20590.0 0.0009248
20610.0 0.0009169
20630.0 0.00090956
20650.0 0.00090263
20670.0 0.00089601
20690.0 0.00088968
20710.0 0.00088353
20730.0 0.00087746
20750.0 0.00087142
20770.0 0.00086534
20790.0 0.00085916
20810.0 0.00085281
20830.0 0.00084629
20850.0 0.00083957
20870.0 0.00083253
20890.0 0.00082521
20910.0 0.00081773
20930.0 0.00080995
20950.0 0.00080186
20970.0 0.00079362
20990.0 0.00078525
21010.0 0.00077652
21030.0 0.00076769
21050.0 0.00075888
21070.0 0.00074992
21090.0 0.00074076
21110.0 0.0007318
21130.0 0.0007229
21150.0 0.00071389
21170.0 0.000705
21190.0 0.00069636
21210.0 0.00068767
21230.0 0.00067903
21250.0 0.00067073
21270.0 0.00066261
21290.0 0.00065454
21310.0 0.0006467
21330.0 0.00063925
21350.0 0.00063189
21370.0 0.00062473
21390.0 0.00061793
21410.0 0.00061139
21430.0 0.00060497
21450.0 0.00059893
21470.0 0.00059324
21490.0 0.00058777
21510.0 0.00058257
21530.0 0.00057772
21550.0 0.00057312
21570.0 0.00056875
21590.0 0.00056466
21610.0 0.00056082
21630.0 0.00055718
21650.0 0.00055376
21670.0 0.00055054
21690.0 0.00054748
21710.0 0.00054458
21730.0 0.00054182
21750.0 0.00053917
21770.0 0.00053664
21790.0 0.00053421
21810.0 0.00053184
21830.0 0.00052955
21850.0 0.00052732
21870.0 0.00052512
21890.0 0.00052293
21910.0 0.00052078
21930.0 0.00051863
21950.0 0.00051646
21970.0 0.00051427
21990.0 0.00051207
22010.0 0.0005098
22030.0 0.00050748
22050.0 0.00050511
22070.0 0.00050267
22090.0 0.00050016
22110.0 0.00049758
22130.0 0.00049492
22150.0 0.00049219
22170.0 0.0004894
22190.0 0.00048652
22210.0 0.00048356
22230.0 0.00048056
22250.0 0.00047748
22270.0 0.0004743
22290.0 0.00047108
22310.0 0.00046778
22330.0 0.00046431
22350.0 0.00046074
22370.0 0.00045709
22390.0 0.00045326
22410.0 0.00044918
22430.0 0.00044502
22450.0 0.00044068
22470.0 0.00043603
22490.0 0.00043119
22510.0 0.00042624
22530.0 0.00042094
22550.0 0.00041536
22570.0 0.00040974
22590.0 0.00040395
22610.0 0.00039788
22630.0 0.00039175
22650.0 0.00038574
22670.0 0.00037952
22690.0 0.00037327
22710.0 0.00036722
22730.0 0.00036126
22750.0 0.00035518
22770.0 0.00034944
22790.0 0.00034401
22810.0 0.00033867
22830.0 0.00033352
22850.0 0.00032879
22870.0 0.00032426
22890.0 0.00031987
22910.0 0.00031583
22930.0 0.00031209
22950.0 0.0003085
22970.0 0.00030508
22990.0 0.00030201
23010.0 0.00029907
23030.0 0.00029624
23050.0 0.00029358
23070.0 0.00029108
23090.0 0.00028856
23110.0 0.00028614
23130.0 0.00028381
23150.0 0.00028151
23170.0 0.00027918
23190.0 0.00027693
23210.0 0.00027474
23230.0 0.00027252
23250.0 0.00027033
23270.0 0.00026824
23290.0 0.00026618
23310.0 0.00026414
23330.0 0.00026223
23350.0 0.00026042
23370.0 0.00025867
23390.0 0.00025703
23410.0 0.00025551
23430.0 0.00025407
23450.0 0.0002527
23470.0 0.00025143
23490.0 0.00025024
23510.0 0.00024909
23530.0 0.00024801
23550.0 0.000247
23570.0 0.00024602
23590.0 0.00024509
23610.0 0.00024422
23630.0 0.00024342
23650.0 0.00024268
23670.0 0.00024204
23690.0 0.00024152
23710.0 0.00024114
23730.0 0.00024094
23750.0 0.00024093
23770.0 0.00024114
23790.0 0.00024163
23810.0 0.00024241
23830.0 0.00024343
23850.0 0.00024485
23870.0 0.00024665
