#lamb flux
1010.0 7.8838e-08
1030.0 8.7019e-08
1050.0 9.6427e-08
1070.0 1.0702e-07
1090.0 1.1905e-07
1110.0 1.3139e-07
1130.0 1.4381e-07
1150.0 1.5682e-07
1170.0 1.7024e-07
1190.0 1.8296e-07
1210.0 1.9586e-07
1230.0 2.0919e-07
1250.0 2.2224e-07
1270.0 2.3492e-07
1290.0 2.4832e-07
1310.0 2.6171e-07
1330.0 2.7455e-07
1350.0 2.8753e-07
1370.0 3.0094e-07
1390.0 3.1401e-07
1410.0 3.2669e-07
1430.0 3.3995e-07
1450.0 3.5321e-07
1470.0 3.6602e-07
1490.0 3.7898e-07
1510.0 3.9266e-07
1530.0 4.0562e-07
1550.0 4.1842e-07
1570.0 4.3165e-07
1590.0 4.449e-07
1610.0 4.5757e-07
1630.0 4.7063e-07
1650.0 4.8404e-07
1670.0 4.9701e-07
1690.0 5.0983e-07
1710.0 5.2315e-07
1730.0 5.3655e-07
1750.0 5.4916e-07
1770.0 5.6215e-07
1790.0 5.7542e-07
1810.0 5.8828e-07
1830.0 6.0092e-07
1850.0 6.1436e-07
1870.0 6.2746e-07
1890.0 6.4015e-07
1910.0 6.531e-07
1930.0 6.6639e-07
1950.0 6.7909e-07
1970.0 6.9166e-07
1990.0 7.0472e-07
2010.0 7.1759e-07
2030.0 7.3001e-07
2050.0 7.4283e-07
2070.0 7.5598e-07
2090.0 7.684e-07
2110.0 7.808e-07
2130.0 7.9358e-07
2150.0 8.0612e-07
2170.0 8.1812e-07
2190.0 8.3058e-07
2210.0 8.4312e-07
2230.0 8.5514e-07
2250.0 8.6709e-07
2270.0 8.7959e-07
2290.0 8.9168e-07
2310.0 9.0326e-07
2330.0 9.153e-07
2350.0 9.2765e-07
2370.0 9.3993e-07
2390.0 9.5326e-07
2410.0 9.6913e-07
2430.0 9.8748e-07
2450.0 1.0095e-06
2470.0 1.038e-06
2490.0 1.074e-06
2510.0 1.115e-06
2530.0 1.1645e-06
2550.0 1.2265e-06
2570.0 1.3038e-06
2590.0 1.4042e-06
2610.0 1.5546e-06
2630.0 1.7689e-06
2650.0 2.0486e-06
2670.0 2.4097e-06
2690.0 2.8528e-06
2710.0 3.3248e-06
2730.0 3.7902e-06
2750.0 4.2476e-06
2770.0 4.6442e-06
2790.0 4.9576e-06
2810.0 5.2051e-06
2830.0 5.3969e-06
2850.0 5.5262e-06
2870.0 5.6196e-06
2890.0 5.6925e-06
2910.0 5.7496e-06
2930.0 5.7955e-06
2950.0 5.8392e-06
2970.0 5.8818e-06
2990.0 5.9216e-06
3010.0 0.00016984
3030.0 0.00017097
3050.0 0.00017206
3070.0 0.00017299
3090.0 0.00017377
3110.0 0.00017421
3130.0 0.00017407
3150.0 0.0001732
3170.0 0.00017124
3190.0 0.00016822
3210.0 0.00016443
3230.0 0.00016011
3250.0 0.00015582
3270.0 0.00015267
3290.0 0.00015085
3310.0 0.00015103
3330.0 0.00015311
3350.0 0.00015682
3370.0 0.00016217
3390.0 0.00016892
3410.0 0.00017629
3430.0 0.00018458
3450.0 0.00019412
3470.0 0.00020455
3490.0 0.00021561
3510.0 0.00022813
3530.0 0.00024155
3550.0 0.0002552
3570.0 0.0002695
3590.0 0.00028508
3610.0 0.00030125
3630.0 0.00031734
3650.0 0.00033406
3670.0 0.00034929
3690.0 0.00036066
3710.0 0.0003671
3730.0 0.00036697
3750.0 0.00036117
3770.0 0.00036032
3790.0 0.00035806
3810.0 0.00034333
3830.0 0.00035295
3850.0 0.00040417
3870.0 0.00042628
3890.0 0.00041525
3910.0 0.0004136
3930.0 0.00042932
3950.0 0.00044219
3970.0 0.00040971
3990.0 0.0003431
4010.0 0.0010026
4030.0 0.0012029
4050.0 0.0013788
4070.0 0.0012137
4090.0 0.0011018
4110.0 0.00096708
4130.0 0.00090792
4150.0 0.00098886
4170.0 0.00095315
4190.0 0.0010014
4210.0 0.0010025
4230.0 0.0010743
4250.0 0.0012744
4270.0 0.0012988
4290.0 0.0011899
4310.0 0.0012233
4330.0 0.0012919
4350.0 0.0014649
4370.0 0.0016786
4390.0 0.0015504
4410.0 0.0011187
4430.0 0.00093648
4450.0 0.00086246
4470.0 0.00065055
4490.0 0.00072301
4510.0 0.0011352
4530.0 0.0013179
4550.0 0.0013157
4570.0 0.0014479
4590.0 0.0016391
4610.0 0.0022961
4630.0 0.0030126
4650.0 0.0032196
4670.0 0.0029646
4690.0 0.0028435
4710.0 0.0030005
4730.0 0.002797
4750.0 0.0020674
4770.0 0.0015049
4790.0 0.001425
4810.0 0.0013726
4830.0 0.0012666
4850.0 0.0013873
4870.0 0.0018332
4890.0 0.0021572
4910.0 0.0018718
4930.0 0.0016728
4950.0 0.0018472
4970.0 0.0023763
4990.0 0.0032198
5010.0 0.0037093
5030.0 0.0032395
5050.0 0.0021732
5070.0 0.0014423
5090.0 0.001154
5110.0 0.0011758
5130.0 0.0013639
5150.0 0.0014639
5170.0 0.001436
5190.0 0.0013354
5210.0 0.001405
5230.0 0.0014995
5250.0 0.0016289
5270.0 0.0017308
5290.0 0.0019119
5310.0 0.0022566
5330.0 0.0024928
5350.0 0.002475
5370.0 0.002616
5390.0 0.0030297
5410.0 0.0029802
5430.0 0.0026038
5450.0 0.0024127
5470.0 0.0025831
5490.0 0.0031611
5510.0 0.0039389
5530.0 0.0045236
5550.0 0.004344
5570.0 0.0039449
5590.0 0.0034119
5610.0 0.0031744
5630.0 0.0031268
5650.0 0.0029642
5670.0 0.0027987
5690.0 0.0024761
5710.0 0.0024276
5730.0 0.002248
5750.0 0.001548
5770.0 0.0011974
5790.0 0.0013667
5810.0 0.0015324
5830.0 0.0019223
5850.0 0.0023119
5870.0 0.0025588
5890.0 0.0025868
5910.0 0.0025367
5930.0 0.0024156
5950.0 0.0024637
5970.0 0.0028346
5990.0 0.0026287
6010.0 0.0021866
6030.0 0.0018422
6050.0 0.0016081
6070.0 0.0016274
6090.0 0.0017702
6110.0 0.0019605
6130.0 0.0019738
6150.0 0.0016844
6170.0 0.0014632
6190.0 0.0016548
6210.0 0.0022247
6230.0 0.0029585
6250.0 0.0032059
6270.0 0.002764
6290.0 0.00233
6310.0 0.0018148
6330.0 0.0013837
6350.0 0.0012458
6370.0 0.0013098
6390.0 0.0015184
6410.0 0.001883
6430.0 0.0022061
6450.0 0.0025434
6470.0 0.0028843
6490.0 0.0034791
6510.0 0.003891
6530.0 0.0038373
6550.0 0.0034767
6570.0 0.0029279
6590.0 0.002653
6610.0 0.0022773
6630.0 0.0020963
6650.0 0.0019899
6670.0 0.0019064
6690.0 0.0016916
6710.0 0.0015499
6730.0 0.0010642
6750.0 0.0010833
6770.0 0.0012282
6790.0 0.0014386
6810.0 0.0012729
6830.0 0.0013093
6850.0 0.0012082
6870.0 0.0011055
6890.0 0.0010476
6910.0 0.0011331
6930.0 0.0010622
6950.0 0.0011115
6970.0 0.0011686
6990.0 0.0013232
7010.0 0.001326
7030.0 0.001369
7050.0 0.0012906
7070.0 0.0012106
7090.0 0.0012241
7110.0 0.0012657
7130.0 0.0013739
7150.0 0.0014706
7170.0 0.0016267
7190.0 0.0017837
7210.0 0.0017327
7230.0 0.0017785
7250.0 0.0019092
7270.0 0.0020746
7290.0 0.0024755
7310.0 0.0026814
7330.0 0.0025852
7350.0 0.0023361
7370.0 0.0019983
7390.0 0.0019492
7410.0 0.002103
7430.0 0.0023448
7450.0 0.0025509
7470.0 0.002502
7490.0 0.0022428
7510.0 0.0026445
7530.0 0.0025918
7550.0 0.002347
7570.0 0.0018038
7590.0 0.0011899
7610.0 0.0010072
7630.0 0.0011697
7650.0 0.0013995
7670.0 0.0017885
7690.0 0.00197
7710.0 0.0020206
7730.0 0.0021123
7750.0 0.002413
7770.0 0.0024551
7790.0 0.0022532
7810.0 0.0020272
7830.0 0.0021028
7850.0 0.0020738
7870.0 0.0019168
7890.0 0.0015954
7910.0 0.00127
7930.0 0.0012244
7950.0 0.0011147
7970.0 0.0010215
7990.0 0.0010063
8010.0 0.00013852
8030.0 0.00012887
8050.0 0.00013505
8070.0 0.00015009
8090.0 0.00018041
8110.0 0.00017268
8130.0 0.00010993
8150.0 0.00011415
8170.0 7.1865e-05
8190.0 5.1354e-05
8210.0 0.00010978
8230.0 0.00013026
8250.0 7.0656e-05
8270.0 5.7503e-05
8290.0 8.6097e-05
8310.0 7.402e-05
8330.0 4.7404e-05
8350.0 3.5988e-05
8370.0 1.1635e-05
8390.0 3.9844e-05
8410.0 4.5473e-05
8430.0 5.6046e-05
8450.0 6.455e-05
8470.0 9.9486e-05
8490.0 8.7018e-05
8510.0 7.3261e-05
8530.0 5.311e-05
8550.0 0.0001221
8570.0 0.00017219
8590.0 0.00013886
8610.0 0.00019679
8630.0 0.0002237
8650.0 0.00016522
8670.0 0.00020727
8690.0 0.00026796
8710.0 0.00023294
8730.0 0.00023685
8750.0 0.00019284
8770.0 0.00017513
8790.0 0.00018528
8810.0 0.00019308
8830.0 0.00012147
8850.0 6.4621e-05
8870.0 4.6618e-05
8890.0 7.9585e-05
8910.0 0.00011614
8930.0 0.00014979
8950.0 0.00016092
8970.0 0.00015573
8990.0 0.0001185
9010.0 0.00050494
9030.0 0.0004388
9050.0 0.00044341
9070.0 0.00044947
9090.0 0.00045464
9110.0 0.00046103
9130.0 0.00046578
9150.0 0.00046932
9170.0 0.00047308
9190.0 0.00047709
9210.0 0.00048132
9230.0 0.00048578
9250.0 0.00049029
9270.0 0.00049496
9290.0 0.00049976
9310.0 0.00050456
9330.0 0.00050943
9350.0 0.00051449
9370.0 0.00051957
9390.0 0.00052468
9410.0 0.00052994
9430.0 0.00053534
9450.0 0.00054069
9470.0 0.00054615
9490.0 0.00055176
9510.0 0.00055742
9530.0 0.00056308
9550.0 0.00056895
9570.0 0.0005749
9590.0 0.00058086
9610.0 0.00058691
9630.0 0.00059313
9650.0 0.00059938
9670.0 0.00060563
9690.0 0.00061205
9710.0 0.00061857
9730.0 0.00062508
9750.0 0.00063169
9770.0 0.00063851
9790.0 0.0006453
9810.0 0.00065211
9830.0 0.00065908
9850.0 0.00066613
9870.0 0.00067314
9890.0 0.00068027
9910.0 0.00068754
9930.0 0.00069481
9950.0 0.00070209
9970.0 0.00070954
9990.0 0.00071706
10010.0 0.00062428
10030.0 0.00063078
10050.0 0.0006374
10070.0 0.00064412
10090.0 0.00065063
10110.0 0.00065731
10130.0 0.000664
10150.0 0.00067064
10170.0 0.00067737
10190.0 0.00068421
10210.0 0.00069096
10230.0 0.00069769
10250.0 0.00070454
10270.0 0.00071137
10290.0 0.00071812
10310.0 0.00072495
10330.0 0.00073187
10350.0 0.00073865
10370.0 0.00074542
10390.0 0.00075226
10410.0 0.00075908
10430.0 0.00076574
10450.0 0.00077249
10470.0 0.00077925
10490.0 0.0007859
10510.0 0.00079249
10530.0 0.0007992
10550.0 0.0008058
10570.0 0.00081225
10590.0 0.00081873
10610.0 0.00082522
10630.0 0.00083152
10650.0 0.00083779
10670.0 0.00084412
10690.0 0.00085032
10710.0 0.00085637
10730.0 0.00086245
10750.0 0.00086854
10770.0 0.00087435
10790.0 0.00088013
10810.0 0.0008859
10830.0 0.00089148
10850.0 0.00089679
10870.0 0.00090197
10890.0 0.0009066
10910.0 0.00091026
10930.0 0.0009126
10950.0 0.0009128
10970.0 0.0009102
10990.0 0.00090449
11010.0 0.00084991
11030.0 0.00083645
11050.0 0.00081998
11070.0 0.00080024
11090.0 0.00077651
11110.0 0.00075195
11130.0 0.00072634
11150.0 0.00069877
11170.0 0.00067038
11190.0 0.00064286
11210.0 0.00061446
11230.0 0.00058537
11250.0 0.00055758
11270.0 0.00053092
11290.0 0.00050421
11310.0 0.00047893
11330.0 0.00045665
11350.0 0.0004356
11370.0 0.00041613
11390.0 0.00039927
11410.0 0.00038449
11430.0 0.00037074
11450.0 0.00035886
11470.0 0.00034855
11490.0 0.00033895
11510.0 0.00032968
11530.0 0.00032106
11550.0 0.0003125
11570.0 0.00030338
11590.0 0.00029396
11610.0 0.00028438
11630.0 0.00027398
11650.0 0.00026286
11670.0 0.00025191
11690.0 0.00024083
11710.0 0.0002294
11730.0 0.00021833
11750.0 0.00020808
11770.0 0.00019802
11790.0 0.00018859
11810.0 0.00018028
11830.0 0.00017284
11850.0 0.00016597
11870.0 0.0001602
11890.0 0.00015539
11910.0 0.00015115
11930.0 0.00014748
11950.0 0.00014442
11970.0 0.00014168
11990.0 0.00013908
12010.0 0.00013667
12030.0 0.00013436
12050.0 0.00013197
12070.0 0.0001295
12090.0 0.00012712
12110.0 0.0001247
12130.0 0.00012228
12150.0 0.00012005
12170.0 0.00011808
12190.0 0.00011637
12210.0 0.00011514
12230.0 0.00011449
12250.0 0.00011447
12270.0 0.00011523
12290.0 0.00011675
12310.0 0.00011898
12330.0 0.00012214
12350.0 0.00012611
12370.0 0.00013064
12390.0 0.00013588
12410.0 0.00014204
12430.0 0.0001483
12450.0 0.00015478
12470.0 0.00016168
12490.0 0.00016862
12510.0 0.00017511
12530.0 0.00018158
12550.0 0.00018781
12570.0 0.00019331
12590.0 0.00019813
12610.0 0.00020242
12630.0 0.00020583
12650.0 0.00020816
12670.0 0.00020967
12690.0 0.00021025
12710.0 0.00020985
12730.0 0.00020857
12750.0 0.00020635
12770.0 0.00020331
12790.0 0.00019965
12810.0 0.00019528
12830.0 0.00019024
12850.0 0.00018497
12870.0 0.00017941
12890.0 0.0001734
12910.0 0.00016729
12930.0 0.00016128
12950.0 0.00015501
12970.0 0.00014864
12990.0 0.00014261
13010.0 0.00013666
13030.0 0.00013065
13050.0 0.00012488
13070.0 0.00011948
13090.0 0.00011405
13110.0 0.0001088
13130.0 0.00010396
13150.0 9.9379e-05
13170.0 9.4887e-05
13190.0 9.0885e-05
13210.0 8.7357e-05
13230.0 8.4127e-05
13250.0 8.1337e-05
13270.0 7.9126e-05
13290.0 7.7395e-05
13310.0 7.6185e-05
13330.0 7.5606e-05
13350.0 7.5618e-05
13370.0 7.6249e-05
13390.0 7.7539e-05
13410.0 7.9305e-05
13430.0 8.1617e-05
13450.0 8.4486e-05
13470.0 8.7683e-05
13490.0 9.1076e-05
13510.0 9.4914e-05
13530.0 9.8812e-05
13550.0 0.00010255
13570.0 0.00010624
13590.0 0.00010985
13610.0 0.00011306
13630.0 0.00011588
13650.0 0.00011845
13670.0 0.00012059
13690.0 0.00012225
13710.0 0.00012354
13730.0 0.00012448
13750.0 0.00012495
13770.0 0.00012507
13790.0 0.00012486
13810.0 0.00012432
13830.0 0.00012352
13850.0 0.00012242
13870.0 0.00012103
13890.0 0.00011944
13910.0 0.00011764
13930.0 0.00011556
13950.0 0.00011329
13970.0 0.00011096
13990.0 0.00010843
14010.0 0.00010574
14030.0 0.00010306
14050.0 0.00010035
14070.0 9.7497e-05
14090.0 9.4762e-05
14110.0 9.2191e-05
14130.0 8.9699e-05
14150.0 8.7352e-05
14170.0 8.5348e-05
14190.0 8.3613e-05
14210.0 8.2139e-05
14230.0 8.1044e-05
14250.0 8.0333e-05
14270.0 7.9983e-05
14290.0 8.0044e-05
14310.0 8.0481e-05
14330.0 8.1274e-05
14350.0 8.2447e-05
14370.0 8.3913e-05
14390.0 8.5581e-05
14410.0 8.7549e-05
14430.0 8.9713e-05
14450.0 9.1927e-05
14470.0 9.4227e-05
14490.0 9.6676e-05
14510.0 9.9021e-05
14530.0 0.00010125
14550.0 0.00010348
14570.0 0.00010563
14590.0 0.00010758
14610.0 0.00010947
14630.0 0.00011134
14650.0 0.00011309
14670.0 0.00011477
14690.0 0.00011652
14710.0 0.00011836
14730.0 0.0001202
14750.0 0.00012223
14770.0 0.00012454
14790.0 0.00012705
14810.0 0.00012976
14830.0 0.00013298
14850.0 0.00013647
14870.0 0.00014013
14890.0 0.00014407
14910.0 0.00014826
14930.0 0.00015229
14950.0 0.00015606
14970.0 0.00015964
14990.0 0.00016264
15010.0 0.00016494
15030.0 0.00016665
15050.0 0.00016779
15070.0 0.00016836
15090.0 0.00016857
15110.0 0.00016854
15130.0 0.00016835
15150.0 0.00016809
15170.0 0.00016777
15190.0 0.00016744
15210.0 0.0001671
15230.0 0.00016677
15250.0 0.00016642
15270.0 0.00016608
15290.0 0.00016576
15310.0 0.00016543
15330.0 0.00016509
15350.0 0.00016477
15370.0 0.00016446
15390.0 0.00016412
15410.0 0.0001638
15430.0 0.00016349
15450.0 0.00016317
15470.0 0.00016284
15490.0 0.00016253
15510.0 0.00016223
15530.0 0.00016191
15550.0 0.0001616
15570.0 0.0001613
15590.0 0.00016099
15610.0 0.00016067
15630.0 0.00016037
15650.0 0.00016007
15670.0 0.00015976
15690.0 0.00015946
15710.0 0.00015917
15730.0 0.00015886
15750.0 0.00015856
15770.0 0.00015827
15790.0 0.00015797
15810.0 0.00015766
15830.0 0.00015736
15850.0 0.00015708
15870.0 0.00015678
15890.0 0.00015648
15910.0 0.00015619
15930.0 0.0001559
15950.0 0.0001556
15970.0 0.0001553
15990.0 0.00015502
16010.0 0.00015472
16030.0 0.00015441
16050.0 0.00015413
16070.0 0.00015384
16090.0 0.00015354
16110.0 0.00015325
16130.0 0.00015297
16150.0 0.00015266
16170.0 0.00015237
16190.0 0.00015208
16210.0 0.00015179
16230.0 0.00015148
16250.0 0.00015119
16270.0 0.00015091
16290.0 0.00015061
16310.0 0.00015031
16330.0 0.00015002
16350.0 0.00014972
16370.0 0.00014941
16390.0 0.00014912
16410.0 0.00014883
16430.0 0.00014852
16450.0 0.00014822
16470.0 0.00014793
16490.0 0.00014763
16510.0 0.00014732
16530.0 0.00014702
16550.0 0.00014672
16570.0 0.00014641
16590.0 0.0001461
16610.0 0.00014581
16630.0 0.0001455
16650.0 0.00014518
16670.0 0.00014488
16690.0 0.00014458
16710.0 0.00014426
16730.0 0.00014394
16750.0 0.00014364
16770.0 0.00014332
16790.0 0.000143
16810.0 0.00014269
16830.0 0.00014238
16850.0 0.00014206
16870.0 0.00014174
16890.0 0.00014143
16910.0 0.0001411
16930.0 0.00014077
16950.0 0.00014045
16970.0 0.00014013
16990.0 0.0001398
17010.0 0.00013947
17030.0 0.00013916
17050.0 0.00013882
17070.0 0.00013849
17090.0 0.00013816
17110.0 0.00013783
17130.0 0.00013748
17150.0 0.00013715
17170.0 0.00013682
17190.0 0.00013648
17210.0 0.00013614
17230.0 0.00013581
17250.0 0.00013547
17270.0 0.00013511
17290.0 0.00013477
17310.0 0.00013443
17330.0 0.00013408
17350.0 0.00013373
17370.0 0.00013339
17390.0 0.00013304
17410.0 0.00013268
17430.0 0.00013233
17450.0 0.00013199
17470.0 0.00013162
17490.0 0.00013126
17510.0 0.00013091
17530.0 0.00013055
17550.0 0.00013019
17570.0 0.00012983
17590.0 0.00012948
17610.0 0.00012911
17630.0 0.00012874
17650.0 0.00012838
17670.0 0.00012802
17690.0 0.00012763
17710.0 0.00012727
17730.0 0.00012691
17750.0 0.00012653
17770.0 0.00012616
17790.0 0.0001258
17810.0 0.00012542
17830.0 0.00012504
17850.0 0.00012467
17870.0 0.00012429
17890.0 0.00012391
17910.0 0.00012352
17930.0 0.00012316
17950.0 0.00012277
17970.0 0.00012238
17990.0 0.00012201
18010.0 0.00012163
18030.0 0.00012123
18050.0 0.00012085
18070.0 0.00012047
18090.0 0.00012008
18110.0 0.00011968
18130.0 0.0001193
18150.0 0.00011892
18170.0 0.00011852
18190.0 0.00011813
18210.0 0.00011775
18230.0 0.00011735
18250.0 0.00011695
18270.0 0.00011656
18290.0 0.00011617
18310.0 0.00011577
18330.0 0.00011537
18350.0 0.00011499
18370.0 0.00011458
18390.0 0.00011418
18410.0 0.00011379
18430.0 0.00011339
18450.0 0.00011298
18470.0 0.00011258
18490.0 0.00011219
18510.0 0.00011179
18530.0 0.00011138
18550.0 0.00011099
18570.0 0.00011059
18590.0 0.00011018
18610.0 0.00010978
18630.0 0.00010938
18650.0 0.00010897
18670.0 0.00010856
18690.0 0.00010817
18710.0 0.00010776
18730.0 0.00010735
18750.0 0.00010695
18770.0 0.00010655
18790.0 0.00010613
18810.0 0.00010572
18830.0 0.00010533
18850.0 0.00010492
18870.0 0.0001045
18890.0 0.0001041
18910.0 0.0001037
18930.0 0.00010329
18950.0 0.00010288
18970.0 0.00010248
18990.0 0.00010207
19010.0 0.00010165
19030.0 0.00010125
19050.0 0.00010085
19070.0 0.00010043
19090.0 0.00010002
19110.0 9.9628e-05
19130.0 9.9214e-05
19150.0 9.8797e-05
19170.0 9.8395e-05
19190.0 9.7991e-05
19210.0 9.7573e-05
19230.0 9.7162e-05
19250.0 9.6766e-05
19270.0 9.6355e-05
19290.0 9.5942e-05
19310.0 9.5543e-05
19330.0 9.514e-05
19350.0 9.4718e-05
19370.0 9.4311e-05
19390.0 9.3912e-05
19410.0 9.35e-05
19430.0 9.3085e-05
19450.0 9.2689e-05
19470.0 9.2286e-05
19490.0 9.1871e-05
19510.0 9.1466e-05
19530.0 9.1069e-05
19550.0 9.0655e-05
19570.0 9.0239e-05
19590.0 8.9843e-05
19610.0 8.944e-05
19630.0 8.9027e-05
19650.0 8.8626e-05
19670.0 8.8231e-05
19690.0 8.7819e-05
19710.0 8.741e-05
19730.0 8.7014e-05
19750.0 8.6611e-05
19770.0 8.6194e-05
19790.0 8.5795e-05
19810.0 8.54e-05
19830.0 8.499e-05
19850.0 8.4579e-05
19870.0 8.4175e-05
19890.0 8.3743e-05
19910.0 8.3269e-05
19930.0 8.2763e-05
19950.0 8.2186e-05
19970.0 8.148e-05
19990.0 8.0631e-05
20010.0 7.1889e-05
20030.0 7.0839e-05
20050.0 6.9613e-05
20070.0 6.8286e-05
20090.0 6.6859e-05
20110.0 6.5248e-05
20130.0 6.3618e-05
20150.0 6.2003e-05
20170.0 6.033e-05
20190.0 5.8634e-05
20210.0 5.7032e-05
20230.0 5.547e-05
20250.0 5.3906e-05
20270.0 5.2454e-05
20290.0 5.1128e-05
20310.0 4.9868e-05
20330.0 4.869e-05
20350.0 4.7711e-05
20370.0 4.6841e-05
20390.0 4.6078e-05
20410.0 4.546e-05
20430.0 4.4981e-05
20450.0 4.4601e-05
20470.0 4.4344e-05
20490.0 4.4203e-05
20510.0 4.4158e-05
20530.0 4.4206e-05
20550.0 4.4337e-05
20570.0 4.4531e-05
20590.0 4.4795e-05
20610.0 4.5117e-05
20630.0 4.5472e-05
20650.0 4.5871e-05
20670.0 4.6327e-05
20690.0 4.6794e-05
20710.0 4.7276e-05
20730.0 4.7796e-05
20750.0 4.834e-05
20770.0 4.8874e-05
20790.0 4.9436e-05
20810.0 5.0029e-05
20830.0 5.0619e-05
20850.0 5.1211e-05
20870.0 5.1844e-05
20890.0 5.249e-05
20910.0 5.3112e-05
20930.0 5.3756e-05
20950.0 5.4424e-05
20970.0 5.5075e-05
20990.0 5.5716e-05
21010.0 5.639e-05
21030.0 5.7049e-05
21050.0 5.7677e-05
21070.0 5.8304e-05
21090.0 5.8933e-05
21110.0 5.9505e-05
21130.0 6.0043e-05
21150.0 6.0564e-05
21170.0 6.1035e-05
21190.0 6.144e-05
21210.0 6.1804e-05
21230.0 6.2106e-05
21250.0 6.232e-05
21270.0 6.2455e-05
21290.0 6.2503e-05
21310.0 6.245e-05
21330.0 6.2301e-05
21350.0 6.204e-05
21370.0 6.1658e-05
21390.0 6.1174e-05
21410.0 6.0582e-05
21430.0 5.9833e-05
21450.0 5.8993e-05
21470.0 5.8078e-05
21490.0 5.7043e-05
21510.0 5.5908e-05
21530.0 5.4755e-05
21550.0 5.3548e-05
21570.0 5.226e-05
21590.0 5.0994e-05
21610.0 4.977e-05
21630.0 4.8546e-05
21650.0 4.7349e-05
21670.0 4.6312e-05
21690.0 4.5355e-05
21710.0 4.4493e-05
21730.0 4.3787e-05
21750.0 4.3241e-05
21770.0 4.2825e-05
21790.0 4.2584e-05
21810.0 4.2516e-05
21830.0 4.2606e-05
21850.0 4.2868e-05
21870.0 4.3278e-05
21890.0 4.3809e-05
21910.0 4.449e-05
21930.0 4.529e-05
21950.0 4.6156e-05
21970.0 4.7116e-05
21990.0 4.8194e-05
22010.0 4.9272e-05
22030.0 5.0366e-05
22050.0 5.1516e-05
22070.0 5.2672e-05
22090.0 5.3767e-05
22110.0 5.487e-05
22130.0 5.5973e-05
22150.0 5.7002e-05
22170.0 5.7972e-05
22190.0 5.8934e-05
22210.0 5.9829e-05
22230.0 6.0616e-05
22250.0 6.1357e-05
22270.0 6.2039e-05
22290.0 6.2623e-05
22310.0 6.3122e-05
22330.0 6.3562e-05
22350.0 6.3902e-05
22370.0 6.4141e-05
22390.0 6.4289e-05
22410.0 6.4335e-05
22430.0 6.4271e-05
22450.0 6.4104e-05
22470.0 6.3816e-05
22490.0 6.3413e-05
22510.0 6.2911e-05
22530.0 6.227e-05
22550.0 6.1491e-05
22570.0 6.0627e-05
22590.0 5.9652e-05
22610.0 5.8532e-05
22630.0 5.7319e-05
22650.0 5.6066e-05
22670.0 5.4681e-05
22690.0 5.3202e-05
22710.0 5.171e-05
22730.0 5.0173e-05
22750.0 4.8507e-05
22770.0 4.6879e-05
22790.0 4.5289e-05
22810.0 4.3657e-05
