#lamb flux
1010.0 0.00027879
1030.0 0.0003628
1050.0 0.00046848
1070.0 0.00059919
1090.0 0.00076176
1110.0 0.00094922
1130.0 0.0011602
1150.0 0.0013936
1170.0 0.0016546
1190.0 0.0019275
1210.0 0.002224
1230.0 0.0025415
1250.0 0.0028644
1270.0 0.0031832
1290.0 0.0035082
1310.0 0.0038195
1330.0 0.0040986
1350.0 0.0043497
1370.0 0.0045708
1390.0 0.004743
1410.0 0.0048625
1430.0 0.0049447
1450.0 0.00498
1470.0 0.0049645
1490.0 0.0049124
1510.0 0.0048443
1530.0 0.0047422
1550.0 0.0046117
1570.0 0.0044368
1590.0 0.0042536
1610.0 0.0040625
1630.0 0.003879
1650.0 0.0037059
1670.0 0.0035399
1690.0 0.0033861
1710.0 0.0032509
1730.0 0.0031318
1750.0 0.0030239
1770.0 0.0029348
1790.0 0.0028631
1810.0 0.0028044
1830.0 0.0027597
1850.0 0.0027369
1870.0 0.0027289
1890.0 0.0027304
1910.0 0.0027442
1930.0 0.0027697
1950.0 0.0027966
1970.0 0.0028322
1990.0 0.0028827
2010.0 0.0029444
2030.0 0.0030159
2050.0 0.0031002
2070.0 0.0031876
2090.0 0.0032775
2110.0 0.0033744
2130.0 0.0034796
2150.0 0.00359
2170.0 0.0037037
2190.0 0.0038249
2210.0 0.0039546
2230.0 0.0040898
2250.0 0.0042291
2270.0 0.004375
2290.0 0.0045221
2310.0 0.0046688
2330.0 0.0048194
2350.0 0.0049717
2370.0 0.0051212
2390.0 0.0052708
2410.0 0.0054225
2430.0 0.0055702
2450.0 0.0057149
2470.0 0.0058624
2490.0 0.0060161
2510.0 0.006176
2530.0 0.0063595
2550.0 0.0065897
2570.0 0.0068827
2590.0 0.0072612
2610.0 0.0077991
2630.0 0.0085205
2650.0 0.0094168
2670.0 0.010543
2690.0 0.011933
2710.0 0.013479
2730.0 0.015117
2750.0 0.016898
2770.0 0.018651
2790.0 0.020233
2810.0 0.02166
2830.0 0.022926
2850.0 0.02387
2870.0 0.024597
2890.0 0.025183
2910.0 0.025635
2930.0 0.025967
2950.0 0.026265
2970.0 0.026537
2990.0 0.026762
3010.0 0.026964
3030.0 0.027177
3050.0 0.027383
3070.0 0.027548
3090.0 0.027729
3110.0 0.02793
3130.0 0.028155
3150.0 0.028125
3170.0 0.028391
3190.0 0.02892
3210.0 0.029858
3230.0 0.031499
3250.0 0.034459
3270.0 0.038274
3290.0 0.042683
3310.0 0.048404
3330.0 0.050046
3350.0 0.050637
3370.0 0.051218
3390.0 0.051784
3410.0 0.052201
3430.0 0.052502
3450.0 0.052772
3470.0 0.053093
3490.0 0.05317
3510.0 0.052226
3530.0 0.048964
3550.0 0.046436
3570.0 0.049826
3590.0 0.05652
3610.0 0.062634
3630.0 0.069683
3650.0 0.068301
3670.0 0.060487
3690.0 0.05369
3710.0 0.051704
3730.0 0.053452
3750.0 0.054807
3770.0 0.056892
3790.0 0.059236
3810.0 0.060812
3830.0 0.056875
3850.0 0.052039
3870.0 0.049866
3890.0 0.051763
3910.0 0.052789
3930.0 0.053161
3950.0 0.056219
3970.0 0.059748
3990.0 0.06087
4010.0 0.061061
4030.0 0.059008
4050.0 0.057745
4070.0 0.056884
4090.0 0.057038
4110.0 0.05713
4130.0 0.055423
4150.0 0.053129
4170.0 0.052219
4190.0 0.050733
4210.0 0.046895
4230.0 0.042952
4250.0 0.038686
4270.0 0.035149
4290.0 0.033578
4310.0 0.032866
4330.0 0.033534
4350.0 0.035878
4370.0 0.036967
4390.0 0.039971
4410.0 0.042227
4430.0 0.042388
4450.0 0.038728
4470.0 0.035032
4490.0 0.033581
4510.0 0.032465
4530.0 0.031952
4550.0 0.031408
4570.0 0.031418
4590.0 0.032055
4610.0 0.032364
4630.0 0.032543
4650.0 0.032287
4670.0 0.031499
4690.0 0.029155
4710.0 0.027
4730.0 0.025204
4750.0 0.024079
4770.0 0.022993
4790.0 0.022747
4810.0 0.021954
4830.0 0.019927
4850.0 0.021435
4870.0 0.01923
4890.0 0.020018
4910.0 0.020293
4930.0 0.019052
4950.0 0.015979
4970.0 0.01487
4990.0 0.013886
5010.0 0.012606
5030.0 0.01237
5050.0 0.01367
5070.0 0.013821
5090.0 0.01439
5110.0 0.014453
5130.0 0.01421
5150.0 0.014438
5170.0 0.013642
5190.0 0.01336
5210.0 0.01389
5230.0 0.01317
5250.0 0.013639
5270.0 0.014579
5290.0 0.014364
5310.0 0.013517
5330.0 0.013225
5350.0 0.012393
5370.0 0.012269
5390.0 0.012308
5410.0 0.011975
5430.0 0.012409
5450.0 0.011958
5470.0 0.012129
5490.0 0.013824
5510.0 0.014187
5530.0 0.014421
5550.0 0.014483
5570.0 0.014961
5590.0 0.015267
5610.0 0.015305
5630.0 0.015328
5650.0 0.015362
5670.0 0.015195
5690.0 0.015134
5710.0 0.014911
5730.0 0.015466
5750.0 0.015105
5770.0 0.014482
5790.0 0.014135
5810.0 0.013127
5830.0 0.013975
5850.0 0.014884
5870.0 0.01513
5890.0 0.015485
5910.0 0.016347
5930.0 0.016504
5950.0 0.01678
5970.0 0.016983
5990.0 0.017341
6010.0 0.017105
6030.0 0.017028
6050.0 0.017095
6070.0 0.017037
6090.0 0.017392
6110.0 0.017348
6130.0 0.016976
6150.0 0.016731
6170.0 0.016517
6190.0 0.015558
6210.0 0.015421
6230.0 0.015693
6250.0 0.01565
6270.0 0.015611
6290.0 0.016005
6310.0 0.016476
6330.0 0.01645
6350.0 0.016128
6370.0 0.016176
6390.0 0.01576
6410.0 0.015671
6430.0 0.015295
6450.0 0.015237
6470.0 0.015181
6490.0 0.015164
6510.0 0.014739
6530.0 0.014565
6550.0 0.014338
6570.0 0.014028
6590.0 0.01425
6610.0 0.014232
6630.0 0.013855
6650.0 0.013346
6670.0 0.01312
6690.0 0.012858
6710.0 0.012465
6730.0 0.012261
6750.0 0.012309
6770.0 0.012724
6790.0 0.013168
6810.0 0.012749
6830.0 0.011684
6850.0 0.010973
6870.0 0.010714
6890.0 0.01058
6910.0 0.010473
6930.0 0.010301
6950.0 0.010272
6970.0 0.0098708
6990.0 0.0096491
7010.0 0.0096261
7030.0 0.0096426
7050.0 0.0093682
7070.0 0.0088081
7090.0 0.0084227
7110.0 0.0083719
7130.0 0.0083596
7150.0 0.0082966
7170.0 0.0081733
7190.0 0.0079431
7210.0 0.0081523
7230.0 0.0083325
7250.0 0.0082451
7270.0 0.0081927
7290.0 0.0082695
7310.0 0.0080299
7330.0 0.0077553
7350.0 0.0073931
7370.0 0.0073467
7390.0 0.0074333
7410.0 0.006941
7430.0 0.0069389
7450.0 0.0068181
7470.0 0.0070015
7490.0 0.0068892
7510.0 0.0065061
7530.0 0.0065889
7550.0 0.0060067
7570.0 0.0057533
7590.0 0.0057092
7610.0 0.0058804
7630.0 0.0058663
7650.0 0.0060562
7670.0 0.0055452
7690.0 0.0053362
7710.0 0.0055728
7730.0 0.0058665
7750.0 0.0057142
7770.0 0.0059225
7790.0 0.0058872
7810.0 0.0058359
7830.0 0.0061901
7850.0 0.0058672
7870.0 0.0061991
7890.0 0.0059579
7910.0 0.0058497
7930.0 0.005566
7950.0 0.0054832
7970.0 0.0056077
7990.0 0.0054175
8010.0 0.0092368
8030.0 0.0090189
8050.0 0.008874
8070.0 0.0086034
8090.0 0.0077716
8110.0 0.0076523
8130.0 0.0085134
8150.0 0.0090172
8170.0 0.0092795
8190.0 0.00968
8210.0 0.0093177
8230.0 0.0093396
8250.0 0.0092935
8270.0 0.0092692
8290.0 0.0091391
8310.0 0.0086891
8330.0 0.0084833
8350.0 0.0087458
8370.0 0.0088598
8390.0 0.008647
8410.0 0.0085468
8430.0 0.0082559
8450.0 0.0080805
8470.0 0.0086564
8490.0 0.008706
8510.0 0.0081728
8530.0 0.0080897
8550.0 0.00799
8570.0 0.0074707
8590.0 0.0075359
8610.0 0.0076005
8630.0 0.0078577
8650.0 0.0078791
8670.0 0.0079035
8690.0 0.0077455
8710.0 0.0075258
8730.0 0.0072814
8750.0 0.0071392
8770.0 0.0071158
8790.0 0.0073695
8810.0 0.0069719
8830.0 0.006892
8850.0 0.0072242
8870.0 0.0068467
8890.0 0.0063588
8910.0 0.0062557
8930.0 0.006273
8950.0 0.0058439
8970.0 0.0056028
8990.0 0.0054767
9010.0 0.0051634
9030.0 0.0050867
9050.0 0.0050614
9070.0 0.0050388
9090.0 0.0050159
9110.0 0.0049926
9130.0 0.0049691
9150.0 0.0049458
9170.0 0.0049221
9190.0 0.0048983
9210.0 0.0048743
9230.0 0.0048501
9250.0 0.0048257
9270.0 0.0048012
9290.0 0.0047765
9310.0 0.0047542
9330.0 0.0047354
9350.0 0.0047165
9370.0 0.0046973
9390.0 0.004678
9410.0 0.0046586
9430.0 0.0046392
9450.0 0.0046194
9470.0 0.004602
9490.0 0.0045833
9510.0 0.004562
9530.0 0.0045408
9550.0 0.0045202
9570.0 0.0044998
9590.0 0.0044793
9610.0 0.0044623
9630.0 0.0044459
9650.0 0.0044292
9670.0 0.0044121
9690.0 0.0043953
9710.0 0.0043784
9730.0 0.0043612
9750.0 0.0043439
9770.0 0.0043271
9790.0 0.0043098
9810.0 0.0042924
9830.0 0.0042752
9850.0 0.0042556
9870.0 0.0042342
9890.0 0.0042194
9910.0 0.0042037
9930.0 0.0041848
9950.0 0.0041677
9970.0 0.0041515
9990.0 0.0041349
10010.0 0.0041181
10030.0 0.004101
10050.0 0.0040837
10070.0 0.0040665
10090.0 0.0040493
10110.0 0.0040321
10130.0 0.0040149
10150.0 0.0039978
10170.0 0.0039808
10190.0 0.0039637
10210.0 0.0039468
10230.0 0.00393
10250.0 0.0039132
10270.0 0.0038965
10290.0 0.0038799
10310.0 0.0038634
10330.0 0.0038469
10350.0 0.0038305
10370.0 0.0038143
10390.0 0.0037979
10410.0 0.0037789
10430.0 0.0037592
10450.0 0.0037465
10470.0 0.0037322
10490.0 0.0037176
10510.0 0.0037028
10530.0 0.0036874
10550.0 0.0036722
10570.0 0.0036573
10590.0 0.0036422
10610.0 0.0036271
10630.0 0.0036125
10650.0 0.0035979
10670.0 0.003583
10690.0 0.0035685
10710.0 0.0035544
10730.0 0.0035401
10750.0 0.0035256
10770.0 0.0035119
10790.0 0.0034982
10810.0 0.0034843
10830.0 0.0034707
10850.0 0.0034575
10870.0 0.0034438
10890.0 0.0034302
10910.0 0.0034168
10930.0 0.0034031
10950.0 0.0033887
10970.0 0.0033739
10990.0 0.0033587
11010.0 0.0032782
11030.0 0.0032609
11050.0 0.0032424
11070.0 0.0032223
11090.0 0.0032
11110.0 0.0031776
11130.0 0.0031547
11150.0 0.0031305
11170.0 0.0031057
11190.0 0.0030814
11210.0 0.0030562
11230.0 0.0030303
11250.0 0.003005
11270.0 0.0029802
11290.0 0.0029549
11310.0 0.00293
11330.0 0.002907
11350.0 0.0028842
11370.0 0.0028619
11390.0 0.0028411
11410.0 0.0028214
11430.0 0.0028017
11450.0 0.0027831
11470.0 0.0027655
11490.0 0.002748
11510.0 0.0027305
11530.0 0.0027136
11550.0 0.0026969
11570.0 0.0026796
11590.0 0.0026622
11610.0 0.0026449
11630.0 0.0026268
11650.0 0.002608
11670.0 0.0025894
11690.0 0.0025704
11710.0 0.0025505
11730.0 0.0025305
11750.0 0.0025108
11770.0 0.0024903
11790.0 0.0024694
11810.0 0.0024491
11830.0 0.0024288
11850.0 0.0024078
11870.0 0.0023876
11890.0 0.0023684
11910.0 0.0023491
11930.0 0.0023303
11950.0 0.0023128
11970.0 0.0022959
11990.0 0.0022793
12010.0 0.002264
12030.0 0.0022499
12050.0 0.0022364
12070.0 0.0022238
12090.0 0.0022126
12110.0 0.0022023
12130.0 0.0021925
12150.0 0.0021837
12170.0 0.0021758
12190.0 0.002168
12210.0 0.0021608
12230.0 0.0021539
12250.0 0.0021471
12270.0 0.00214
12290.0 0.0021327
12310.0 0.0021251
12330.0 0.0021167
12350.0 0.0021075
12370.0 0.0020978
12390.0 0.0020871
12410.0 0.0020749
12430.0 0.0020621
12450.0 0.0020486
12470.0 0.0020338
12490.0 0.002018
12510.0 0.002002
12530.0 0.0019849
12550.0 0.0019666
12570.0 0.0019484
12590.0 0.0019298
12610.0 0.0019101
12630.0 0.0018902
12650.0 0.0018711
12670.0 0.0018515
12690.0 0.0018316
12710.0 0.0018124
12730.0 0.0017937
12750.0 0.0017745
12770.0 0.0017562
12790.0 0.0017389
12810.0 0.0017219
12830.0 0.0017053
12850.0 0.0016901
12870.0 0.0016758
12890.0 0.0016619
12910.0 0.0016491
12930.0 0.0016376
12950.0 0.0016268
12970.0 0.0016169
12990.0 0.0016086
13010.0 0.0016013
13030.0 0.001595
13050.0 0.0015899
13070.0 0.0015859
13090.0 0.0015826
13110.0 0.0015802
13130.0 0.0015785
13150.0 0.0015773
13170.0 0.0015763
13190.0 0.0015753
13210.0 0.0015743
13230.0 0.001573
13250.0 0.0015712
13270.0 0.0015689
13290.0 0.0015659
13310.0 0.001562
13330.0 0.0015575
13350.0 0.0015522
13370.0 0.0015459
13390.0 0.0015387
13410.0 0.001531
13430.0 0.0015225
13450.0 0.001513
13470.0 0.001503
13490.0 0.0014926
13510.0 0.0014809
13530.0 0.0014688
13550.0 0.0014566
13570.0 0.0014439
13590.0 0.0014304
13610.0 0.0014171
13630.0 0.0014039
13650.0 0.0013899
13670.0 0.0013758
13690.0 0.0013621
13710.0 0.0013482
13730.0 0.0013335
13750.0 0.0013197
13770.0 0.0013061
13790.0 0.0012921
13810.0 0.0012784
13830.0 0.0012655
13850.0 0.0012524
13870.0 0.0012393
13890.0 0.001227
13910.0 0.0012152
13930.0 0.0012032
13950.0 0.0011916
13970.0 0.0011811
13990.0 0.0011707
14010.0 0.0011605
14030.0 0.0011511
14050.0 0.0011422
14070.0 0.0011332
14090.0 0.0011249
14110.0 0.0011174
14130.0 0.00111
14150.0 0.0011029
14170.0 0.0010966
14190.0 0.0010906
14210.0 0.0010847
14230.0 0.0010792
14250.0 0.0010741
14270.0 0.001069
14290.0 0.001064
14310.0 0.0010594
14330.0 0.001055
14350.0 0.0010505
14370.0 0.0010463
14390.0 0.0010423
14410.0 0.0010383
14430.0 0.0010343
14450.0 0.0010306
14470.0 0.001027
14490.0 0.0010233
14510.0 0.0010198
14530.0 0.0010165
14550.0 0.001013
14570.0 0.0010096
14590.0 0.0010063
14610.0 0.0010029
14630.0 0.00099932
14650.0 0.00099584
14670.0 0.00099239
14690.0 0.00098872
14710.0 0.00098492
14730.0 0.00098133
14750.0 0.00097756
14770.0 0.00097356
14790.0 0.0009696
14810.0 0.00096565
14830.0 0.00096126
14850.0 0.00095683
14870.0 0.00095251
14890.0 0.00094803
14910.0 0.00094339
14930.0 0.00093902
14950.0 0.00093494
14970.0 0.00093092
14990.0 0.00092733
15010.0 0.00092433
15030.0 0.00092168
15050.0 0.0009193
15070.0 0.00091745
15090.0 0.00091585
15110.0 0.00091433
15130.0 0.00091292
15150.0 0.00091166
15170.0 0.00091032
15190.0 0.00090895
15210.0 0.00090765
15230.0 0.00090635
15250.0 0.00090494
15270.0 0.00090354
15290.0 0.00090224
15310.0 0.00090085
15330.0 0.00089941
15350.0 0.00089803
15370.0 0.00089665
15390.0 0.00089512
15410.0 0.00089365
15430.0 0.00089222
15450.0 0.00089071
15470.0 0.00088914
15490.0 0.00088766
15510.0 0.00088616
15530.0 0.00088455
15550.0 0.00088298
15570.0 0.00088145
15590.0 0.0008798
15610.0 0.0008781
15630.0 0.0008765
15650.0 0.00087486
15670.0 0.00087314
15690.0 0.00087144
15710.0 0.0008698
15730.0 0.00086803
15750.0 0.00086624
15770.0 0.00086452
15790.0 0.00086275
15810.0 0.00086086
15830.0 0.00085904
15850.0 0.00085726
15870.0 0.00085538
15890.0 0.00085347
15910.0 0.00085164
15930.0 0.00084974
15950.0 0.00084774
15970.0 0.00084581
15990.0 0.00084388
16010.0 0.00084187
16030.0 0.00083981
16050.0 0.00083786
16070.0 0.00083584
16090.0 0.00083375
16110.0 0.0008317
16130.0 0.00082968
16150.0 0.0008275
16170.0 0.00082535
16190.0 0.00082327
16210.0 0.00082112
16230.0 0.0008189
16250.0 0.00081675
16270.0 0.00081461
16290.0 0.00081236
16310.0 0.00081011
16330.0 0.00080793
16350.0 0.00080567
16370.0 0.0008033
16390.0 0.00080106
16410.0 0.0007988
16430.0 0.00079645
16450.0 0.00079411
16470.0 0.00079185
16490.0 0.00078948
16510.0 0.00078706
16530.0 0.00078471
16550.0 0.00078236
16570.0 0.00077989
16590.0 0.00077745
16610.0 0.0007751
16630.0 0.00077266
16650.0 0.00077017
16670.0 0.00076776
16690.0 0.00076534
16710.0 0.00076278
16730.0 0.00076028
16750.0 0.00075784
16770.0 0.00075531
16790.0 0.00075274
16810.0 0.00075027
16830.0 0.00074777
16850.0 0.00074519
16870.0 0.00074264
16890.0 0.00074014
16910.0 0.00073754
16930.0 0.0007349
16950.0 0.00073237
16970.0 0.00072981
16990.0 0.00072717
17010.0 0.00072458
17030.0 0.00072205
17050.0 0.0007194
17070.0 0.00071675
17090.0 0.00071417
17110.0 0.00071156
17130.0 0.00070885
17150.0 0.00070622
17170.0 0.00070364
17190.0 0.00070098
17210.0 0.0006983
17230.0 0.00069572
17250.0 0.00069307
17270.0 0.00069034
17290.0 0.0006877
17310.0 0.00068507
17330.0 0.00068237
17350.0 0.00067965
17370.0 0.00067705
17390.0 0.00067439
17410.0 0.00067167
17430.0 0.00066902
17450.0 0.00066641
17470.0 0.00066365
17490.0 0.00066094
17510.0 0.00065831
17530.0 0.00065563
17550.0 0.0006529
17570.0 0.00065025
17590.0 0.00064762
17610.0 0.00064489
17630.0 0.0006422
17650.0 0.00063957
17670.0 0.00063689
17690.0 0.00063411
17710.0 0.00063148
17730.0 0.00062884
17750.0 0.00062612
17770.0 0.00062344
17790.0 0.00062084
17810.0 0.00061814
17830.0 0.00061542
17850.0 0.00061278
17870.0 0.00061015
17890.0 0.00060742
17910.0 0.00060473
17930.0 0.00060215
17950.0 0.00059948
17970.0 0.00059679
17990.0 0.00059418
18010.0 0.00059157
18030.0 0.00058884
18050.0 0.00058619
18070.0 0.0005836
18090.0 0.00058094
18110.0 0.00057825
18130.0 0.00057568
18150.0 0.00057308
18170.0 0.00057041
18190.0 0.0005678
18210.0 0.00056524
18230.0 0.00056258
18250.0 0.00055991
18270.0 0.00055736
18290.0 0.00055477
18310.0 0.00055213
18330.0 0.00054955
18350.0 0.00054703
18370.0 0.0005444
18390.0 0.00054179
18410.0 0.00053926
18430.0 0.00053669
18450.0 0.00053405
18470.0 0.0005315
18490.0 0.000529
18510.0 0.00052642
18530.0 0.00052385
18550.0 0.00052137
18570.0 0.00051882
18590.0 0.00051622
18610.0 0.00051371
18630.0 0.00051122
18650.0 0.00050866
18670.0 0.00050611
18690.0 0.00050367
18710.0 0.00050116
18730.0 0.00049862
18750.0 0.00049615
18770.0 0.00049372
18790.0 0.00049115
18810.0 0.00048865
18830.0 0.00048622
18850.0 0.00048375
18870.0 0.00048123
18890.0 0.00047881
18910.0 0.0004764
18930.0 0.0004739
18950.0 0.00047145
18970.0 0.00046905
18990.0 0.00046661
19010.0 0.00046409
19030.0 0.00046171
19050.0 0.00045932
19070.0 0.00045687
19090.0 0.00045446
19110.0 0.00045212
19130.0 0.00044969
19150.0 0.00044725
19170.0 0.00044489
19190.0 0.00044252
19210.0 0.00044008
19230.0 0.00043769
19250.0 0.00043539
19270.0 0.00043301
19290.0 0.00043061
19310.0 0.0004283
19330.0 0.00042598
19350.0 0.00042354
19370.0 0.00042121
19390.0 0.00041891
19410.0 0.00041655
19430.0 0.00041418
19450.0 0.00041191
19470.0 0.00040961
19490.0 0.00040725
19510.0 0.00040495
19530.0 0.00040269
19550.0 0.00040034
19570.0 0.00039798
19590.0 0.00039574
19610.0 0.00039346
19630.0 0.00039113
19650.0 0.00038887
19670.0 0.00038665
19690.0 0.00038433
19710.0 0.00038203
19730.0 0.0003798
19750.0 0.00037754
19770.0 0.00037521
19790.0 0.00037297
19810.0 0.00037077
19830.0 0.00036849
19850.0 0.00036623
19870.0 0.00036407
19890.0 0.00036186
19910.0 0.00035964
19930.0 0.00035756
19950.0 0.0003556
19970.0 0.00035371
19990.0 0.00035201
20010.0 0.00035058
20030.0 0.00034931
20050.0 0.00034823
20070.0 0.00034736
20090.0 0.00034663
20110.0 0.00034599
20130.0 0.00034544
20150.0 0.00034495
20170.0 0.00034447
20190.0 0.00034401
20210.0 0.00034357
20230.0 0.00034313
20250.0 0.00034266
20270.0 0.00034218
20290.0 0.0003417
20310.0 0.00034119
20330.0 0.00034064
20350.0 0.00034009
20370.0 0.00033951
20390.0 0.00033889
20410.0 0.00033825
20430.0 0.0003376
20450.0 0.0003369
20470.0 0.00033619
20490.0 0.00033549
20510.0 0.00033478
20530.0 0.00033404
20550.0 0.00033333
20570.0 0.00033264
20590.0 0.00033195
20610.0 0.00033127
20630.0 0.00033062
20650.0 0.00032998
20670.0 0.00032932
20690.0 0.00032868
20710.0 0.00032806
20730.0 0.0003274
20750.0 0.00032672
20770.0 0.00032604
20790.0 0.00032531
20810.0 0.00032451
20830.0 0.00032368
20850.0 0.0003228
20870.0 0.00032182
20890.0 0.00032078
20910.0 0.00031972
20930.0 0.00031857
20950.0 0.00031735
20970.0 0.00031611
20990.0 0.00031485
21010.0 0.00031349
21030.0 0.00031212
21050.0 0.00031078
21070.0 0.0003094
21090.0 0.00030797
21110.0 0.00030661
21130.0 0.00030526
21150.0 0.00030387
21170.0 0.0003025
21190.0 0.00030118
21210.0 0.00029981
21230.0 0.00029842
21250.0 0.00029706
21270.0 0.00029569
21290.0 0.00029426
21310.0 0.00029281
21330.0 0.00029139
21350.0 0.00028989
21370.0 0.00028833
21390.0 0.0002868
21410.0 0.00028524
21430.0 0.00028355
21450.0 0.00028186
21470.0 0.00028018
21490.0 0.00027842
21510.0 0.0002766
21530.0 0.00027481
21550.0 0.00027298
21570.0 0.00027106
21590.0 0.00026916
21610.0 0.00026727
21630.0 0.00026532
21650.0 0.00026331
21670.0 0.0002614
21690.0 0.00025945
21710.0 0.00025745
21730.0 0.00025548
21750.0 0.00025355
21770.0 0.00025152
21790.0 0.0002495
21810.0 0.00024753
21830.0 0.00024553
21850.0 0.00024347
21870.0 0.00024144
21890.0 0.00023946
21910.0 0.0002374
21930.0 0.00023534
21950.0 0.00023334
21970.0 0.00023132
21990.0 0.00022923
22010.0 0.00022724
22030.0 0.00022528
22050.0 0.0002233
22070.0 0.00022125
22090.0 0.0002191
22110.0 0.00021695
22130.0 0.00021482
22150.0 0.00021277
22170.0 0.00021079
22190.0 0.00020881
22210.0 0.00020688
22230.0 0.00020505
22250.0 0.00020324
22270.0 0.00020144
22290.0 0.00019971
22310.0 0.00019801
22330.0 0.00019629
22350.0 0.0001946
22370.0 0.00019294
22390.0 0.00019126
22410.0 0.00018956
22430.0 0.00018789
22450.0 0.0001862
22470.0 0.00018448
22490.0 0.00018275
22510.0 0.00018102
22530.0 0.00017925
22550.0 0.00017744
22570.0 0.00017565
22590.0 0.00017383
22610.0 0.00017199
22630.0 0.00017013
22650.0 0.0001683
22670.0 0.00016643
22690.0 0.00016455
22710.0 0.00016269
22730.0 0.00016083
22750.0 0.00015895
22770.0 0.00015709
22790.0 0.00015524
22810.0 0.00015339
22830.0 0.00015154
22850.0 0.00014971
22870.0 0.00014788
22890.0 0.00014603
22910.0 0.00014419
22930.0 0.00014235
22950.0 0.00014049
22970.0 0.00013861
22990.0 0.00013672
23010.0 0.0001348
23030.0 0.00013285
23050.0 0.00013087
23070.0 0.00012887
23090.0 0.00012682
23110.0 0.0001265
23130.0 0.00012632
23150.0 0.00012615
23170.0 0.00012599
23190.0 0.00012584
23210.0 0.0001257
23230.0 0.00012558
23250.0 0.00012547
23270.0 0.00012538
23290.0 0.0001253
23310.0 0.00012525
23330.0 0.0001252
23350.0 0.00012515
23370.0 0.00012512
23390.0 0.00012508
23410.0 0.00012504
23430.0 0.000125
23450.0 0.00012495
23470.0 0.00012489
23490.0 0.00012481
23510.0 0.00012473
23530.0 0.00012462
23550.0 0.00012449
23570.0 0.00012435
