#lamb flux
1010.0 4.6128e-06
1030.0 4.8071e-06
1050.0 5.0322e-06
1070.0 5.2862e-06
1090.0 5.575e-06
1110.0 5.8724e-06
1130.0 6.1731e-06
1150.0 6.4895e-06
1170.0 6.8175e-06
1190.0 7.1309e-06
1210.0 7.4504e-06
1230.0 7.7826e-06
1250.0 8.1107e-06
1270.0 8.4323e-06
1290.0 8.774e-06
1310.0 9.1184e-06
1330.0 9.4525e-06
1350.0 9.7933e-06
1370.0 1.0148e-05
1390.0 1.0498e-05
1410.0 1.0841e-05
1430.0 1.1203e-05
1450.0 1.1569e-05
1470.0 1.1927e-05
1490.0 1.2292e-05
1510.0 1.2679e-05
1530.0 1.3051e-05
1550.0 1.3422e-05
1570.0 1.3806e-05
1590.0 1.4193e-05
1610.0 1.4567e-05
1630.0 1.4953e-05
1650.0 1.5348e-05
1670.0 1.5731e-05
1690.0 1.611e-05
1710.0 1.65e-05
1730.0 1.689e-05
1750.0 1.7255e-05
1770.0 1.7627e-05
1790.0 1.8001e-05
1810.0 1.8359e-05
1830.0 1.8704e-05
1850.0 1.9063e-05
1870.0 1.9406e-05
1890.0 1.9729e-05
1910.0 2.005e-05
1930.0 2.0371e-05
1950.0 2.0668e-05
1970.0 2.0952e-05
1990.0 2.124e-05
2010.0 2.1515e-05
2030.0 2.1771e-05
2050.0 2.2031e-05
2070.0 2.2294e-05
2090.0 2.2534e-05
2110.0 2.2771e-05
2130.0 2.3017e-05
2150.0 2.3258e-05
2170.0 2.3489e-05
2190.0 2.3736e-05
2210.0 2.3994e-05
2230.0 2.4249e-05
2250.0 2.4515e-05
2270.0 2.4809e-05
2290.0 2.5112e-05
2310.0 2.5422e-05
2330.0 2.5764e-05
2350.0 2.6134e-05
2370.0 2.652e-05
2390.0 2.6939e-05
2410.0 2.7406e-05
2430.0 2.7899e-05
2450.0 2.8418e-05
2470.0 2.8977e-05
2490.0 2.9567e-05
2510.0 3.0169e-05
2530.0 3.0832e-05
2550.0 3.1641e-05
2570.0 3.2715e-05
2590.0 3.4229e-05
2610.0 3.6566e-05
2630.0 3.9959e-05
2650.0 4.4402e-05
2670.0 5.0065e-05
2690.0 5.6942e-05
2710.0 6.4377e-05
2730.0 7.1996e-05
2750.0 7.9937e-05
2770.0 8.7667e-05
2790.0 9.4975e-05
2810.0 0.0001022
2830.0 0.00010964
2850.0 0.00011692
2870.0 0.0001244
2890.0 0.00013237
2910.0 0.0001407
2930.0 0.00014916
2950.0 0.00015817
2970.0 0.00016767
2990.0 0.00017733
3010.0 0.00031869
3030.0 0.00033636
3050.0 0.00035415
3070.0 0.0003708
3090.0 0.00038588
3110.0 0.00039661
3130.0 0.0003995
3150.0 0.00039073
3170.0 0.00036267
3190.0 0.00031377
3210.0 0.00024432
3230.0 0.00016484
3250.0 0.00023938
3270.0 0.00012096
3290.0 0.00030361
3310.0 8.4547e-05
3330.0 8.9028e-05
3350.0 0.00012233
3370.0 0.00015961
3390.0 0.00019883
3410.0 0.00023786
3430.0 0.00027846
3450.0 0.00031887
3470.0 0.00035609
3490.0 0.00038077
3510.0 0.00046088
3530.0 0.00061441
3550.0 0.00063365
3570.0 0.00057585
3590.0 0.000798
3610.0 0.00057458
3630.0 0.00083041
3650.0 0.00091106
3670.0 0.0011347
3690.0 0.0011159
3710.0 0.00087826
3730.0 0.0011324
3750.0 0.0011794
3770.0 0.0012055
3790.0 0.0010972
3810.0 0.00095022
3830.0 0.0011818
3850.0 0.0012027
3870.0 0.0014657
3890.0 0.0014178
3910.0 0.001357
3930.0 0.0015065
3950.0 0.0016924
3970.0 0.0021934
3990.0 0.0019001
4010.0 0.0014072
4030.0 0.001721
4050.0 0.0017731
4070.0 0.00196
4090.0 0.0017948
4110.0 0.0013324
4130.0 0.0016423
4150.0 0.0015098
4170.0 0.0016
4190.0 0.0016008
4210.0 0.0019044
4230.0 0.0014219
4250.0 0.0016736
4270.0 0.0016724
4290.0 0.0016984
4310.0 0.0020005
4330.0 0.0020574
4350.0 0.0016868
4370.0 0.0015163
4390.0 0.0017252
4410.0 0.0017003
4430.0 0.0013432
4450.0 0.0013383
4470.0 0.0015045
4490.0 0.0011939
4510.0 0.0014083
4530.0 0.0015329
4550.0 0.0020172
4570.0 0.0028915
4590.0 0.002941
4610.0 0.002222
4630.0 0.0032063
4650.0 0.0043351
4670.0 0.0040721
4690.0 0.0026694
4710.0 0.0027636
4730.0 0.0033013
4750.0 0.0029238
4770.0 0.0022619
4790.0 0.0016659
4810.0 0.0022622
4830.0 0.0025825
4850.0 0.0024325
4870.0 0.0012214
4890.0 0.0026129
4910.0 0.0034176
4930.0 0.0036696
4950.0 0.0037389
4970.0 0.0027079
4990.0 0.0030209
5010.0 0.0032849
5030.0 0.0033514
5050.0 0.0031918
5070.0 0.0023569
5090.0 0.0019751
5110.0 0.0018615
5130.0 0.0016889
5150.0 0.001909
5170.0 0.0017024
5190.0 0.0020374
5210.0 0.0020374
5230.0 0.0022124
5250.0 0.0027695
5270.0 0.0024898
5290.0 0.0024927
5310.0 0.0034004
5330.0 0.0038734
5350.0 0.0034201
5370.0 0.0030829
5390.0 0.0033456
5410.0 0.0039668
5430.0 0.004296
5450.0 0.0046402
5470.0 0.0048183
5490.0 0.0048711
5510.0 0.0055985
5530.0 0.0057757
5550.0 0.006056
5570.0 0.0062848
5590.0 0.0061948
5610.0 0.0059176
5630.0 0.0057382
5650.0 0.0058037
5670.0 0.0057321
5690.0 0.0049896
5710.0 0.0047035
5730.0 0.0046139
5750.0 0.0048779
5770.0 0.0043004
5790.0 0.0040081
5810.0 0.0040839
5830.0 0.0042508
5850.0 0.0039263
5870.0 0.0038855
5890.0 0.0044158
5910.0 0.0042237
5930.0 0.0035964
5950.0 0.0031963
5970.0 0.003308
5990.0 0.0030159
6010.0 0.0027952
6030.0 0.002806
6050.0 0.0026538
6070.0 0.0021205
6090.0 0.00195
6110.0 0.0023724
6130.0 0.0026639
6150.0 0.0028116
6170.0 0.0028172
6190.0 0.0027511
6210.0 0.0027299
6230.0 0.0030387
6250.0 0.002807
6270.0 0.0025507
6290.0 0.0023101
6310.0 0.002157
6330.0 0.0020443
6350.0 0.0018273
6370.0 0.0018349
6390.0 0.0021518
6410.0 0.0026409
6430.0 0.0030482
6450.0 0.0029836
6470.0 0.0030031
6490.0 0.0036072
6510.0 0.004023
6530.0 0.0038497
6550.0 0.003748
6570.0 0.0038014
6590.0 0.0036925
6610.0 0.0039515
6630.0 0.0037598
6650.0 0.0034118
6670.0 0.0031045
6690.0 0.002957
6710.0 0.0034269
6730.0 0.0031801
6750.0 0.0028426
6770.0 0.0026478
6790.0 0.0027628
6810.0 0.0029821
6830.0 0.0029093
6850.0 0.0026873
6870.0 0.0027303
6890.0 0.0026585
6910.0 0.0025165
6930.0 0.0028184
6950.0 0.0026667
6970.0 0.0025669
6990.0 0.0025917
7010.0 0.0024924
7030.0 0.0023397
7050.0 0.0022148
7070.0 0.002286
7090.0 0.0021385
7110.0 0.0018884
7130.0 0.0015832
7150.0 0.0014516
7170.0 0.0018193
7190.0 0.001961
7210.0 0.0019363
7230.0 0.0020429
7250.0 0.0019634
7270.0 0.0019036
7290.0 0.0020469
7310.0 0.0022002
7330.0 0.0021388
7350.0 0.0020224
7370.0 0.0019631
7390.0 0.002068
7410.0 0.0023844
7430.0 0.0026115
7450.0 0.0028181
7470.0 0.0028308
7490.0 0.0028905
7510.0 0.0027673
7530.0 0.0027459
7550.0 0.0026529
7570.0 0.0023308
7590.0 0.0022899
7610.0 0.002246
7630.0 0.002162
7650.0 0.0024009
7670.0 0.0026368
7690.0 0.0028737
7710.0 0.0031786
7730.0 0.0033942
7750.0 0.0035572
7770.0 0.0035675
7790.0 0.0038537
7810.0 0.0039864
7830.0 0.0037692
7850.0 0.0038008
7870.0 0.0036342
7890.0 0.0037443
7910.0 0.0035549
7930.0 0.0035656
7950.0 0.0032449
7970.0 0.0033275
7990.0 0.0032196
8010.0 0.0031868
8030.0 0.0031853
8050.0 0.0033277
8070.0 0.003234
8090.0 0.003247
8110.0 0.0031597
8130.0 0.0031604
8150.0 0.003045
8170.0 0.0029652
8190.0 0.0029325
8210.0 0.0029596
8230.0 0.0026741
8250.0 0.0024635
8270.0 0.0021598
8290.0 0.0017828
8310.0 0.001491
8330.0 0.0011832
8350.0 0.0010088
8370.0 0.0010637
8390.0 0.0011242
8410.0 0.0012109
8430.0 0.0014458
8450.0 0.0015429
8470.0 0.0016263
8490.0 0.0018479
8510.0 0.0020251
8530.0 0.0023432
8550.0 0.0027736
8570.0 0.0031178
8590.0 0.0033773
8610.0 0.0036796
8630.0 0.0040046
8650.0 0.0040691
8670.0 0.0041081
8690.0 0.0042641
8710.0 0.0042505
8730.0 0.0042475
8750.0 0.0040665
8770.0 0.0040751
8790.0 0.0040228
8810.0 0.0037286
8830.0 0.0037072
8850.0 0.0034989
8870.0 0.0033677
8890.0 0.0031234
8910.0 0.0033058
8930.0 0.0030555
8950.0 0.0029922
8970.0 0.0029879
8990.0 0.0028987
9010.0 0.0029257
9030.0 0.0028205
9050.0 0.0028047
9070.0 0.0028
9090.0 0.0027948
9110.0 0.0027904
9130.0 0.0027845
9150.0 0.0027777
9170.0 0.0027652
9190.0 0.0027434
9210.0 0.0027696
9230.0 0.0027548
9250.0 0.0027438
9270.0 0.0027333
9290.0 0.0027231
9310.0 0.0027132
9330.0 0.0027033
9350.0 0.0026932
9370.0 0.002683
9390.0 0.0026725
9410.0 0.0026619
9430.0 0.0026509
9450.0 0.0026395
9470.0 0.0026281
9490.0 0.0026169
9510.0 0.0026054
9530.0 0.0025938
9550.0 0.0025819
9570.0 0.0025698
9590.0 0.0025577
9610.0 0.0025455
9630.0 0.0025332
9650.0 0.0025208
9670.0 0.0025084
9690.0 0.0024959
9710.0 0.0024833
9730.0 0.0024708
9750.0 0.0024582
9770.0 0.0024456
9790.0 0.002433
9810.0 0.0024205
9830.0 0.002408
9850.0 0.0023955
9870.0 0.002383
9890.0 0.0023706
9910.0 0.0023583
9930.0 0.0023459
9950.0 0.0023251
9970.0 0.0023155
9990.0 0.0023055
10010.0 0.0022954
10030.0 0.0022847
10050.0 0.0022731
10070.0 0.0022598
10090.0 0.0022494
10110.0 0.0022385
10130.0 0.0022278
10150.0 0.0022171
10170.0 0.0022062
10190.0 0.002195
10210.0 0.0021844
10230.0 0.0021741
10250.0 0.0021634
10270.0 0.002153
10290.0 0.0021431
10310.0 0.002133
10330.0 0.0021227
10350.0 0.0021131
10370.0 0.0021037
10390.0 0.002094
10410.0 0.0020845
10430.0 0.0020757
10450.0 0.0020666
10470.0 0.0020575
10490.0 0.0020489
10510.0 0.0020405
10530.0 0.0020317
10550.0 0.0020233
10570.0 0.0020154
10590.0 0.0020074
10610.0 0.0019993
10630.0 0.0019917
10650.0 0.0019843
10670.0 0.0019766
10690.0 0.0019692
10710.0 0.0019622
10730.0 0.001955
10750.0 0.0019477
10770.0 0.0019411
10790.0 0.0019346
10810.0 0.0019278
10830.0 0.0019213
10850.0 0.0019151
10870.0 0.0019082
10890.0 0.0019009
10910.0 0.0018933
10930.0 0.0018843
10950.0 0.0018726
10970.0 0.0018583
10990.0 0.0018412
11010.0 0.0017792
11030.0 0.0017552
11050.0 0.0017281
11070.0 0.0016974
11090.0 0.0016622
11110.0 0.0016273
11130.0 0.0015924
11150.0 0.0015561
11170.0 0.0015202
11190.0 0.0014867
11210.0 0.0014532
11230.0 0.0014199
11250.0 0.0013891
11270.0 0.0013601
11290.0 0.0013314
11310.0 0.0013044
11330.0 0.0012807
11350.0 0.001258
11370.0 0.0012365
11390.0 0.0012172
11410.0 0.0011995
11430.0 0.0011818
11450.0 0.0011653
11470.0 0.0011499
11490.0 0.0011343
11510.0 0.001118
11530.0 0.0011022
11550.0 0.0010859
11570.0 0.0010681
11590.0 0.0010494
11610.0 0.0010305
11630.0 0.0010098
11650.0 0.00098731
11670.0 0.00096522
11690.0 0.00094251
11710.0 0.00091842
11730.0 0.00089448
11750.0 0.00087177
11770.0 0.0008484
11790.0 0.00082532
11810.0 0.00080398
11830.0 0.00078368
11850.0 0.00076329
11870.0 0.00074489
11890.0 0.00072842
11910.0 0.0007125
11930.0 0.00069753
11950.0 0.00068433
11970.0 0.00067188
11990.0 0.0006596
12010.0 0.0006485
12030.0 0.00063833
12050.0 0.00062827
12070.0 0.00061844
12090.0 0.00060988
12110.0 0.0006016
12130.0 0.00059351
12150.0 0.00058626
12170.0 0.00057999
12190.0 0.00057396
12210.0 0.00056904
12230.0 0.00056559
12250.0 0.00056336
12270.0 0.00056255
12290.0 0.00056359
12310.0 0.00056644
12330.0 0.00057117
12350.0 0.00057793
12370.0 0.00058643
12390.0 0.00059675
12410.0 0.0006092
12430.0 0.00062259
12450.0 0.00063692
12470.0 0.00065239
12490.0 0.00066832
12510.0 0.00068383
12530.0 0.00069952
12550.0 0.000715
12570.0 0.0007294
12590.0 0.00074282
12610.0 0.00075554
12630.0 0.00076702
12650.0 0.00077692
12670.0 0.00078578
12690.0 0.00079344
12710.0 0.00079977
12730.0 0.00080495
12750.0 0.000809
12770.0 0.00081189
12790.0 0.00081381
12810.0 0.00081468
12830.0 0.00081444
12850.0 0.00081348
12870.0 0.00081171
12890.0 0.00080886
12910.0 0.00080526
12930.0 0.00080115
12950.0 0.00079595
12970.0 0.00078977
12990.0 0.00078333
13010.0 0.00077618
13030.0 0.00076797
13050.0 0.00075929
13070.0 0.00075049
13090.0 0.00074071
13110.0 0.00073039
13130.0 0.00072026
13150.0 0.00071003
13170.0 0.00069926
13190.0 0.00068929
13210.0 0.00068026
13230.0 0.00067166
13250.0 0.00066403
13270.0 0.00065798
13290.0 0.00065312
13310.0 0.00064947
13330.0 0.00064745
13350.0 0.00064681
13370.0 0.00064729
13390.0 0.00064875
13410.0 0.00065085
13430.0 0.00065324
13450.0 0.00065559
13470.0 0.00065749
13490.0 0.00065868
13510.0 0.0006588
13530.0 0.00065763
13550.0 0.00065523
13570.0 0.00065143
13590.0 0.00064609
13610.0 0.00063975
13630.0 0.00063265
13650.0 0.00062442
13670.0 0.00061568
13690.0 0.00060699
13710.0 0.00059807
13730.0 0.00058883
13750.0 0.00058044
13770.0 0.00057249
13790.0 0.00056471
13810.0 0.00055747
13830.0 0.000551
13850.0 0.00054471
13870.0 0.00053869
13890.0 0.0005332
13910.0 0.00052801
13930.0 0.00052282
13950.0 0.00051785
13970.0 0.00051329
13990.0 0.00050873
14010.0 0.00050428
14030.0 0.00050015
14050.0 0.00049625
14070.0 0.00049242
14090.0 0.00048897
14110.0 0.00048591
14130.0 0.00048312
14150.0 0.00048065
14170.0 0.00047863
14190.0 0.00047695
14210.0 0.00047562
14230.0 0.00047467
14250.0 0.00047409
14270.0 0.00047388
14290.0 0.00047408
14310.0 0.00047457
14330.0 0.00047537
14350.0 0.00047653
14370.0 0.00047789
14390.0 0.00047933
14410.0 0.00048099
14430.0 0.0004827
14450.0 0.00048427
14470.0 0.00048574
14490.0 0.00048718
14510.0 0.00048829
14530.0 0.00048912
14550.0 0.00048981
14570.0 0.00049033
14590.0 0.00049065
14610.0 0.00049097
14630.0 0.00049142
14650.0 0.00049198
14670.0 0.00049278
14690.0 0.00049407
14710.0 0.00049596
14730.0 0.00049823
14750.0 0.00050126
14770.0 0.00050519
14790.0 0.00050975
14810.0 0.00051491
14830.0 0.00052133
14850.0 0.00052837
14870.0 0.00053565
14890.0 0.00054348
14910.0 0.00055173
14930.0 0.00055939
14950.0 0.00056624
14970.0 0.00057246
14990.0 0.00057717
15010.0 0.0005801
15030.0 0.00058156
15050.0 0.00058161
15070.0 0.00058028
15090.0 0.00057809
15110.0 0.00057531
15130.0 0.00057215
15150.0 0.0005688
15170.0 0.00056533
15190.0 0.0005618
15210.0 0.00055826
15230.0 0.00055473
15250.0 0.00055116
15270.0 0.0005476
15290.0 0.00054408
15310.0 0.00054053
15330.0 0.00053698
15350.0 0.00053346
15370.0 0.00052994
15390.0 0.00052639
15410.0 0.00052287
15430.0 0.00051938
15450.0 0.00051588
15470.0 0.00051237
15490.0 0.0005089
15510.0 0.00050544
15530.0 0.00050197
15550.0 0.00049852
15570.0 0.00049511
15590.0 0.00049168
15610.0 0.00048825
15630.0 0.00048487
15650.0 0.0004815
15670.0 0.00047812
15690.0 0.00047477
15710.0 0.00047146
15730.0 0.00046814
15750.0 0.00046483
15770.0 0.00046156
15790.0 0.00045831
15810.0 0.00045504
15830.0 0.00045181
15850.0 0.00044863
15870.0 0.00044543
15890.0 0.00044226
15910.0 0.00043913
15930.0 0.00043601
15950.0 0.00043288
15970.0 0.0004298
15990.0 0.00042675
16010.0 0.0004237
16030.0 0.00042067
16050.0 0.00041769
16070.0 0.00041472
16090.0 0.00041175
16110.0 0.00040883
16130.0 0.00040594
16150.0 0.00040303
16170.0 0.00040016
16190.0 0.00039734
16210.0 0.00039452
16230.0 0.00039172
16250.0 0.00038896
16270.0 0.00038623
16290.0 0.00038349
16310.0 0.00038079
16330.0 0.00037813
16350.0 0.00037548
16370.0 0.00037283
16390.0 0.00037023
16410.0 0.00036766
16430.0 0.0003651
16450.0 0.00036256
16470.0 0.00036008
16490.0 0.00035758
16510.0 0.00035511
16530.0 0.00035268
16550.0 0.00035027
16570.0 0.00034787
16590.0 0.00034549
16610.0 0.00034317
16630.0 0.00034085
16650.0 0.00033854
16670.0 0.00033628
16690.0 0.00033404
16710.0 0.00033179
16730.0 0.00032959
16750.0 0.00032742
16770.0 0.00032525
16790.0 0.0003231
16810.0 0.000321
16830.0 0.00031892
16850.0 0.00031684
16870.0 0.00031479
16890.0 0.00031278
16910.0 0.00031077
16930.0 0.00030877
16950.0 0.00030683
16970.0 0.00030489
16990.0 0.00030296
17010.0 0.00030107
17030.0 0.00029921
17050.0 0.00029735
17070.0 0.00029551
17090.0 0.00029371
17110.0 0.00029192
17130.0 0.00029013
17150.0 0.00028838
17170.0 0.00028666
17190.0 0.00028494
17210.0 0.00028324
17230.0 0.00028158
17250.0 0.00027993
17270.0 0.00027828
17290.0 0.00027667
17310.0 0.00027508
17330.0 0.00027349
17350.0 0.00027192
17370.0 0.0002704
17390.0 0.00026887
17410.0 0.00026736
17430.0 0.00026588
17450.0 0.00026442
17470.0 0.00026295
17490.0 0.0002615
17510.0 0.0002601
17530.0 0.00025869
17550.0 0.0002573
17570.0 0.00025594
17590.0 0.00025459
17610.0 0.00025325
17630.0 0.00025192
17650.0 0.00025063
17670.0 0.00024934
17690.0 0.00024805
17710.0 0.0002468
17730.0 0.00024556
17750.0 0.00024433
17770.0 0.00024311
17790.0 0.00024193
17810.0 0.00024074
17830.0 0.00023956
17850.0 0.00023841
17870.0 0.00023727
17890.0 0.00023613
17910.0 0.00023501
17930.0 0.00023393
17950.0 0.00023284
17970.0 0.00023175
17990.0 0.0002307
18010.0 0.00022966
18030.0 0.00022861
18050.0 0.00022758
18070.0 0.00022658
18090.0 0.00022558
18110.0 0.00022458
18130.0 0.00022362
18150.0 0.00022266
18170.0 0.0002217
18190.0 0.00022077
18210.0 0.00021985
18230.0 0.00021892
18250.0 0.000218
18270.0 0.00021712
18290.0 0.00021624
18310.0 0.00021536
18330.0 0.0002145
18350.0 0.00021366
18370.0 0.0002128
18390.0 0.00021197
18410.0 0.00021115
18430.0 0.00021034
18450.0 0.00020952
18470.0 0.00020873
18490.0 0.00020796
18510.0 0.00020718
18530.0 0.00020641
18550.0 0.00020567
18570.0 0.00020492
18590.0 0.00020417
18610.0 0.00020344
18630.0 0.00020272
18650.0 0.000202
18670.0 0.00020129
18690.0 0.00020061
18710.0 0.00019992
18730.0 0.00019923
18750.0 0.00019856
18770.0 0.00019791
18790.0 0.00019724
18810.0 0.00019658
18830.0 0.00019595
18850.0 0.00019531
18870.0 0.00019467
18890.0 0.00019406
18910.0 0.00019346
18930.0 0.00019284
18950.0 0.00019224
18970.0 0.00019165
18990.0 0.00019106
19010.0 0.00019046
19030.0 0.0001899
19050.0 0.00018934
19070.0 0.00018877
19090.0 0.00018821
19110.0 0.00018768
19130.0 0.00018712
19150.0 0.00018658
19170.0 0.00018605
19190.0 0.00018553
19210.0 0.00018499
19230.0 0.00018447
19250.0 0.00018397
19270.0 0.00018347
19290.0 0.00018296
19310.0 0.00018247
19330.0 0.00018199
19350.0 0.00018148
19370.0 0.000181
19390.0 0.00018053
19410.0 0.00018006
19430.0 0.00017958
19450.0 0.00017913
19470.0 0.00017867
19490.0 0.00017821
19510.0 0.00017776
19530.0 0.00017733
19550.0 0.00017687
19570.0 0.00017643
19590.0 0.000176
19610.0 0.00017557
19630.0 0.00017514
19650.0 0.00017472
19670.0 0.00017431
19690.0 0.00017389
19710.0 0.00017347
19730.0 0.00017307
19750.0 0.00017266
19770.0 0.00017224
19790.0 0.00017185
19810.0 0.00017146
19830.0 0.00017106
19850.0 0.00017065
19870.0 0.00017025
19890.0 0.00016981
19910.0 0.00016931
19930.0 0.00016873
19950.0 0.00016803
19970.0 0.0001671
19990.0 0.00016591
20010.0 0.00016452
20030.0 0.00016277
20050.0 0.00016069
20070.0 0.00015842
20090.0 0.00015597
20110.0 0.00015319
20130.0 0.00015038
20150.0 0.00014761
20170.0 0.00014474
20190.0 0.00014184
20210.0 0.0001391
20230.0 0.00013643
20250.0 0.00013375
20270.0 0.00013127
20290.0 0.00012899
20310.0 0.00012683
20330.0 0.00012481
20350.0 0.00012314
20370.0 0.00012168
20390.0 0.00012042
20410.0 0.00011944
20430.0 0.00011875
20450.0 0.00011827
20470.0 0.00011807
20490.0 0.00011812
20510.0 0.0001184
20530.0 0.00011892
20550.0 0.00011963
20570.0 0.00012049
20590.0 0.00012154
20610.0 0.00012272
20630.0 0.00012395
20650.0 0.00012527
20670.0 0.00012669
20690.0 0.00012806
20710.0 0.00012938
20730.0 0.00013069
20750.0 0.00013193
20770.0 0.00013302
20790.0 0.00013402
20810.0 0.00013491
20830.0 0.00013563
20850.0 0.00013619
20870.0 0.00013661
20890.0 0.00013687
20910.0 0.00013696
20930.0 0.00013692
20950.0 0.00013673
20970.0 0.00013642
20990.0 0.000136
21010.0 0.00013545
21030.0 0.00013481
21050.0 0.00013412
21070.0 0.00013334
21090.0 0.00013248
21110.0 0.00013161
21130.0 0.00013074
21150.0 0.00012981
21170.0 0.00012889
21190.0 0.00012802
21210.0 0.00012714
21230.0 0.00012629
21250.0 0.00012553
21270.0 0.00012484
21290.0 0.00012421
21310.0 0.00012368
21330.0 0.00012327
21350.0 0.00012295
21370.0 0.00012274
21390.0 0.00012265
21410.0 0.00012268
21430.0 0.00012283
21450.0 0.0001231
21470.0 0.00012347
21490.0 0.00012395
21510.0 0.00012454
21530.0 0.00012519
21550.0 0.00012592
21570.0 0.00012675
21590.0 0.00012764
21610.0 0.00012855
21630.0 0.00012954
21650.0 0.0001306
21670.0 0.00013162
21690.0 0.00013269
21710.0 0.00013382
21730.0 0.00013495
21750.0 0.00013606
21770.0 0.00013725
21790.0 0.00013845
21810.0 0.00013963
21830.0 0.00014083
21850.0 0.00014208
21870.0 0.0001433
21890.0 0.0001445
21910.0 0.00014574
21930.0 0.00014698
21950.0 0.00014816
21970.0 0.00014935
21990.0 0.00015057
22010.0 0.00015169
22030.0 0.00015275
22050.0 0.00015378
22070.0 0.00015474
22090.0 0.00015558
22110.0 0.00015634
22130.0 0.00015699
22150.0 0.00015751
22170.0 0.00015788
22190.0 0.00015812
22210.0 0.00015818
22230.0 0.00015808
22250.0 0.00015781
22270.0 0.00015734
22290.0 0.00015672
22310.0 0.00015593
22330.0 0.00015492
22350.0 0.00015376
22370.0 0.00015247
22390.0 0.00015101
22410.0 0.00014934
22430.0 0.00014764
22450.0 0.00014584
22470.0 0.00014388
22490.0 0.00014187
22510.0 0.00013987
22530.0 0.00013775
22550.0 0.00013556
22570.0 0.00013347
22590.0 0.0001314
22610.0 0.00012928
22630.0 0.00012723
22650.0 0.00012533
22670.0 0.00012341
22690.0 0.00012156
22710.0 0.00011985
22730.0 0.00011823
22750.0 0.00011661
22770.0 0.00011515
22790.0 0.00011382
22810.0 0.00011254
22830.0 0.00011133
22850.0 0.00011026
22870.0 0.00010925
22890.0 0.00010828
22910.0 0.00010741
22930.0 0.00010663
22950.0 0.00010589
22970.0 0.00010519
22990.0 0.0001046
23010.0 0.00010405
23030.0 0.00010355
