#lamb flux
1010.0 8.5304e-09
1030.0 9.4347e-09
1050.0 1.0475e-08
1070.0 1.1646e-08
1090.0 1.2975e-08
1110.0 1.434e-08
1130.0 1.5712e-08
1150.0 1.715e-08
1170.0 1.8634e-08
1190.0 2.004e-08
1210.0 2.1466e-08
1230.0 2.2939e-08
1250.0 2.4383e-08
1270.0 2.5784e-08
1290.0 2.7265e-08
1310.0 2.8745e-08
1330.0 3.0165e-08
1350.0 3.16e-08
1370.0 3.3082e-08
1390.0 3.4527e-08
1410.0 3.5929e-08
1430.0 3.7395e-08
1450.0 3.886e-08
1470.0 4.0277e-08
1490.0 4.1709e-08
1510.0 4.3221e-08
1530.0 4.4655e-08
1550.0 4.6069e-08
1570.0 4.7533e-08
1590.0 4.8998e-08
1610.0 5.0399e-08
1630.0 5.1843e-08
1650.0 5.3326e-08
1670.0 5.4761e-08
1690.0 5.6178e-08
1710.0 5.7652e-08
1730.0 5.9134e-08
1750.0 6.053e-08
1770.0 6.1968e-08
1790.0 6.3437e-08
1810.0 6.4861e-08
1830.0 6.6262e-08
1850.0 6.775e-08
1870.0 6.9203e-08
1890.0 7.061e-08
1910.0 7.2047e-08
1930.0 7.3522e-08
1950.0 7.4933e-08
1970.0 7.633e-08
1990.0 7.7783e-08
2010.0 7.9216e-08
2030.0 8.06e-08
2050.0 8.203e-08
2070.0 8.3499e-08
2090.0 8.4888e-08
2110.0 8.6276e-08
2130.0 8.7709e-08
2150.0 8.9117e-08
2170.0 9.0467e-08
2190.0 9.1871e-08
2210.0 9.3286e-08
2230.0 9.4646e-08
2250.0 9.6001e-08
2270.0 9.742e-08
2290.0 9.8796e-08
2310.0 1.0012e-07
2330.0 1.0149e-07
2350.0 1.0291e-07
2370.0 1.0432e-07
2390.0 1.0584e-07
2410.0 1.0765e-07
2430.0 1.0972e-07
2450.0 1.1221e-07
2470.0 1.1539e-07
2490.0 1.194e-07
2510.0 1.2396e-07
2530.0 1.2944e-07
2550.0 1.3631e-07
2570.0 1.4485e-07
2590.0 1.5597e-07
2610.0 1.7261e-07
2630.0 1.9636e-07
2650.0 2.2742e-07
2670.0 2.6759e-07
2690.0 3.1694e-07
2710.0 3.6962e-07
2730.0 4.2167e-07
2750.0 4.7295e-07
2770.0 5.1754e-07
2790.0 5.5296e-07
2810.0 5.8107e-07
2830.0 6.0302e-07
2850.0 6.1801e-07
2870.0 6.2901e-07
2890.0 6.3772e-07
2910.0 6.4468e-07
2930.0 6.5036e-07
2950.0 6.5578e-07
2970.0 6.6108e-07
2990.0 6.6605e-07
3010.0 1.8826e-05
3030.0 1.8967e-05
3050.0 1.9103e-05
3070.0 1.922e-05
3090.0 1.932e-05
3110.0 1.9382e-05
3130.0 1.9379e-05
3150.0 1.9293e-05
3170.0 1.9087e-05
3190.0 1.8762e-05
3210.0 1.8351e-05
3230.0 1.788e-05
3250.0 1.7415e-05
3270.0 1.7075e-05
3290.0 1.6886e-05
3310.0 1.6917e-05
3330.0 1.7162e-05
3350.0 1.7588e-05
3370.0 1.8197e-05
3390.0 1.8964e-05
3410.0 1.9799e-05
3430.0 2.0736e-05
3450.0 2.1815e-05
3470.0 2.2994e-05
3490.0 2.4243e-05
3510.0 2.5654e-05
3530.0 2.7166e-05
3550.0 2.8696e-05
3570.0 3.0293e-05
3590.0 3.2029e-05
3610.0 3.3818e-05
3630.0 3.5601e-05
3650.0 3.7452e-05
3670.0 3.9141e-05
3690.0 4.0404e-05
3710.0 4.1128e-05
3730.0 4.1151e-05
3750.0 4.0579e-05
3770.0 4.0354e-05
3790.0 4.0114e-05
3810.0 3.9128e-05
3830.0 4.0339e-05
3850.0 4.5104e-05
3870.0 4.7719e-05
3890.0 4.7502e-05
3910.0 4.7704e-05
3930.0 4.896e-05
3950.0 4.9733e-05
3970.0 4.5311e-05
3990.0 3.8988e-05
4010.0 0.00011685
4030.0 0.00014159
4050.0 0.00016232
4070.0 0.00014084
4090.0 0.00012756
4110.0 0.00011256
4130.0 0.0001036
4150.0 0.0001102
4170.0 0.00010855
4190.0 0.0001157
4210.0 0.00011465
4230.0 0.00012126
4250.0 0.00014346
4270.0 0.00014514
4290.0 0.00013375
4310.0 0.00013898
4330.0 0.00014783
4350.0 0.00016575
4370.0 0.00018863
4390.0 0.00017701
4410.0 0.00013078
4430.0 0.00011071
4450.0 0.00010173
4470.0 7.8083e-05
4490.0 8.4261e-05
4510.0 0.00012728
4530.0 0.00014679
4550.0 0.00014806
4570.0 0.00016661
4590.0 0.00018978
4610.0 0.00025597
4630.0 0.00033245
4650.0 0.00036054
4670.0 0.0003339
4690.0 0.0003186
4710.0 0.00033678
4730.0 0.00031782
4750.0 0.00023761
4770.0 0.0001743
4790.0 0.00016276
4810.0 0.00015514
4830.0 0.00014203
4850.0 0.00015585
4870.0 0.00020589
4890.0 0.00024281
4910.0 0.00021303
4930.0 0.0001885
4950.0 0.0002071
4970.0 0.00026559
4990.0 0.00035994
5010.0 0.00041406
5030.0 0.0003651
5050.0 0.00024702
5070.0 0.00016279
5090.0 0.00013127
5110.0 0.000135
5130.0 0.00015581
5150.0 0.00016881
5170.0 0.00016627
5190.0 0.00015537
5210.0 0.0001624
5230.0 0.00017072
5250.0 0.00018399
5270.0 0.00019851
5290.0 0.00021999
5310.0 0.00025606
5330.0 0.00028337
5350.0 0.00028156
5370.0 0.00029575
5390.0 0.00033938
5410.0 0.00033908
5430.0 0.00029987
5450.0 0.00027551
5470.0 0.00029255
5490.0 0.00035741
5510.0 0.00044689
5530.0 0.00051256
5550.0 0.0004954
5570.0 0.00045035
5590.0 0.00039159
5610.0 0.00036113
5630.0 0.00035019
5650.0 0.00033352
5670.0 0.00031604
5690.0 0.00028254
5710.0 0.00027548
5730.0 0.00025376
5750.0 0.00017892
5770.0 0.00013958
5790.0 0.00015818
5810.0 0.00017861
5830.0 0.00021918
5850.0 0.00026092
5870.0 0.00028949
5890.0 0.0002944
5910.0 0.00028882
5930.0 0.00027493
5950.0 0.00028015
5970.0 0.00031934
5990.0 0.00030026
6010.0 0.00025171
6030.0 0.00021266
6050.0 0.0001852
6070.0 0.00018419
6090.0 0.00019972
6110.0 0.00022332
6130.0 0.00022674
6150.0 0.00019509
6170.0 0.00017162
6190.0 0.00019313
6210.0 0.00025532
6230.0 0.00033505
6250.0 0.0003629
6270.0 0.00031713
6290.0 0.00026682
6310.0 0.0002083
6330.0 0.0001596
6350.0 0.00014235
6370.0 0.0001497
6390.0 0.00017306
6410.0 0.00021339
6430.0 0.00024919
6450.0 0.00028513
6470.0 0.00032648
6490.0 0.00039437
6510.0 0.00044096
6530.0 0.00043261
6550.0 0.00039119
6570.0 0.00033209
6590.0 0.00029945
6610.0 0.0002582
6630.0 0.00023392
6650.0 0.00022112
6670.0 0.00021482
6690.0 0.0001941
6710.0 0.00017644
6730.0 0.00012709
6750.0 0.00012599
6770.0 0.00013695
6790.0 0.00015741
6810.0 0.00014403
6830.0 0.00014831
6850.0 0.00013872
6870.0 0.00012672
6890.0 0.00012167
6910.0 0.00012966
6930.0 0.00012144
6950.0 0.00012494
6970.0 0.00013142
6990.0 0.00014917
7010.0 0.00015044
7030.0 0.00015283
7050.0 0.00014575
7070.0 0.00013887
7090.0 0.00013928
7110.0 0.00014331
7130.0 0.00015422
7150.0 0.00016379
7170.0 0.00018074
7190.0 0.00019868
7210.0 0.00019523
7230.0 0.0002007
7250.0 0.00021568
7270.0 0.00023504
7290.0 0.00027897
7310.0 0.00030271
7330.0 0.00029259
7350.0 0.00026463
7370.0 0.00023025
7390.0 0.00022338
7410.0 0.00023738
7430.0 0.00026382
7450.0 0.00028735
7470.0 0.00028471
7490.0 0.0002596
7510.0 0.00029406
7530.0 0.00029084
7550.0 0.00026141
7570.0 0.00020421
7590.0 0.00014039
7610.0 0.0001205
7630.0 0.00013691
7650.0 0.00016187
7670.0 0.00020146
7690.0 0.00022169
7710.0 0.00023103
7730.0 0.00024278
7750.0 0.00027255
7770.0 0.00027684
7790.0 0.00025429
7810.0 0.00023202
7830.0 0.00023927
7850.0 0.00023259
7870.0 0.00021325
7890.0 0.00017917
7910.0 0.00014564
7930.0 0.00013906
7950.0 0.00012669
7970.0 0.00011727
7990.0 0.0001166
8010.0 8.6361e-06
8030.0 8.5238e-06
8050.0 8.4089e-06
8070.0 8.519e-06
8090.0 9.1534e-06
8110.0 8.9974e-06
8130.0 7.4218e-06
8150.0 7.2279e-06
8170.0 6.2258e-06
8190.0 5.9003e-06
8210.0 7.6621e-06
8230.0 8.5308e-06
8250.0 7.6887e-06
8270.0 6.6919e-06
8290.0 6.5234e-06
8310.0 5.0207e-06
8330.0 3.3839e-06
8350.0 2.4015e-06
8370.0 1.5131e-06
8390.0 2.7658e-06
8410.0 3.223e-06
8430.0 3.9728e-06
8450.0 4.6652e-06
8470.0 5.7985e-06
8490.0 5.7576e-06
8510.0 5.6635e-06
8530.0 5.9106e-06
8550.0 7.9746e-06
8570.0 9.4407e-06
8590.0 1.0186e-05
8610.0 1.2868e-05
8630.0 1.5501e-05
8650.0 1.6216e-05
8670.0 1.7232e-05
8690.0 1.7329e-05
8710.0 1.5694e-05
8730.0 1.4598e-05
8750.0 1.2885e-05
8770.0 1.2226e-05
8790.0 1.2011e-05
8810.0 1.151e-05
8830.0 9.2037e-06
8850.0 6.7377e-06
8870.0 5.159e-06
8890.0 5.0437e-06
8910.0 5.7802e-06
8930.0 6.5746e-06
8950.0 6.7005e-06
8970.0 6.7322e-06
8990.0 6.0043e-06
9010.0 6.2922e-05
9030.0 5.7015e-05
9050.0 5.729e-05
9070.0 5.7742e-05
9090.0 5.8139e-05
9110.0 5.8628e-05
9130.0 5.9006e-05
9150.0 5.93e-05
9170.0 5.9613e-05
9190.0 5.9948e-05
9210.0 6.03e-05
9230.0 6.0672e-05
9250.0 6.1049e-05
9270.0 6.1441e-05
9290.0 6.1844e-05
9310.0 6.225e-05
9330.0 6.2665e-05
9350.0 6.3094e-05
9370.0 6.3529e-05
9390.0 6.3967e-05
9410.0 6.4419e-05
9430.0 6.4884e-05
9450.0 6.5347e-05
9470.0 6.582e-05
9490.0 6.6307e-05
9510.0 6.68e-05
9530.0 6.7294e-05
9550.0 6.7807e-05
9570.0 6.8327e-05
9590.0 6.885e-05
9610.0 6.9381e-05
9630.0 6.9927e-05
9650.0 7.0477e-05
9670.0 7.1029e-05
9690.0 7.1595e-05
9710.0 7.217e-05
9730.0 7.2746e-05
9750.0 7.333e-05
9770.0 7.3933e-05
9790.0 7.4533e-05
9810.0 7.5137e-05
9830.0 7.5754e-05
9850.0 7.6379e-05
9870.0 7.7002e-05
9890.0 7.7634e-05
9910.0 7.8279e-05
9930.0 7.8923e-05
9950.0 7.9571e-05
9970.0 8.0231e-05
9990.0 8.0898e-05
10010.0 7.0198e-05
10030.0 7.0774e-05
10050.0 7.1362e-05
10070.0 7.197e-05
10090.0 7.2543e-05
10110.0 7.3131e-05
10130.0 7.3721e-05
10150.0 7.4308e-05
10170.0 7.4903e-05
10190.0 7.5509e-05
10210.0 7.6107e-05
10230.0 7.6703e-05
10250.0 7.7309e-05
10270.0 7.7915e-05
10290.0 7.8513e-05
10310.0 7.9118e-05
10330.0 7.973e-05
10350.0 8.0331e-05
10370.0 8.093e-05
10390.0 8.1537e-05
10410.0 8.214e-05
10430.0 8.2731e-05
10450.0 8.3329e-05
10470.0 8.3928e-05
10490.0 8.4516e-05
10510.0 8.5101e-05
10530.0 8.5695e-05
10550.0 8.628e-05
10570.0 8.6853e-05
10590.0 8.7428e-05
10610.0 8.8003e-05
10630.0 8.8563e-05
10650.0 8.912e-05
10670.0 8.9682e-05
10690.0 9.0232e-05
10710.0 9.0771e-05
10730.0 9.1312e-05
10750.0 9.1853e-05
10770.0 9.2372e-05
10790.0 9.2887e-05
10810.0 9.3401e-05
10830.0 9.3899e-05
10850.0 9.4372e-05
10870.0 9.483e-05
10890.0 9.5234e-05
10910.0 9.5544e-05
10930.0 9.572e-05
10950.0 9.5679e-05
10970.0 9.5355e-05
10990.0 9.4719e-05
11010.0 9.3655e-05
11030.0 9.2165e-05
11050.0 9.035e-05
11070.0 8.8178e-05
11090.0 8.5569e-05
11110.0 8.2871e-05
11130.0 8.0056e-05
11150.0 7.7025e-05
11170.0 7.3901e-05
11190.0 7.087e-05
11210.0 6.7741e-05
11230.0 6.4532e-05
11250.0 6.1465e-05
11270.0 5.852e-05
11290.0 5.557e-05
11310.0 5.2776e-05
11330.0 5.0314e-05
11350.0 4.7989e-05
11370.0 4.5841e-05
11390.0 4.3982e-05
11410.0 4.2356e-05
11430.0 4.0845e-05
11450.0 3.9543e-05
11470.0 3.8417e-05
11490.0 3.737e-05
11510.0 3.636e-05
11530.0 3.5424e-05
11550.0 3.4493e-05
11570.0 3.3501e-05
11590.0 3.2473e-05
11610.0 3.1426e-05
11630.0 3.0287e-05
11650.0 2.9068e-05
11670.0 2.7867e-05
11690.0 2.6648e-05
11710.0 2.5391e-05
11730.0 2.4173e-05
11750.0 2.3046e-05
11770.0 2.194e-05
11790.0 2.0904e-05
11810.0 1.9992e-05
11830.0 1.9176e-05
11850.0 1.8425e-05
11870.0 1.7796e-05
11890.0 1.7274e-05
11910.0 1.6815e-05
11930.0 1.642e-05
11950.0 1.6092e-05
11970.0 1.5798e-05
11990.0 1.552e-05
12010.0 1.5264e-05
12030.0 1.5016e-05
12050.0 1.4761e-05
12070.0 1.4495e-05
12090.0 1.4238e-05
12110.0 1.3978e-05
12130.0 1.3717e-05
12150.0 1.3476e-05
12170.0 1.3266e-05
12190.0 1.3085e-05
12210.0 1.2958e-05
12230.0 1.2897e-05
12250.0 1.2907e-05
12270.0 1.3004e-05
12290.0 1.3188e-05
12310.0 1.3452e-05
12330.0 1.3821e-05
12350.0 1.4282e-05
12370.0 1.4807e-05
12390.0 1.5412e-05
12410.0 1.612e-05
12430.0 1.6841e-05
12450.0 1.7587e-05
12470.0 1.838e-05
12490.0 1.9177e-05
12510.0 1.9924e-05
12530.0 2.0668e-05
12550.0 2.1385e-05
12570.0 2.2018e-05
12590.0 2.2574e-05
12610.0 2.3069e-05
12630.0 2.3464e-05
12650.0 2.3737e-05
12670.0 2.3916e-05
12690.0 2.3988e-05
12710.0 2.3948e-05
12730.0 2.3809e-05
12750.0 2.3562e-05
12770.0 2.3222e-05
12790.0 2.281e-05
12810.0 2.2318e-05
12830.0 2.1748e-05
12850.0 2.1153e-05
12870.0 2.0523e-05
12890.0 1.9842e-05
12910.0 1.9149e-05
12930.0 1.8466e-05
12950.0 1.7754e-05
12970.0 1.7029e-05
12990.0 1.6343e-05
13010.0 1.5666e-05
13030.0 1.4981e-05
13050.0 1.4323e-05
13070.0 1.3707e-05
13090.0 1.3088e-05
13110.0 1.249e-05
13130.0 1.1938e-05
13150.0 1.1416e-05
13170.0 1.0904e-05
13190.0 1.0449e-05
13210.0 1.0048e-05
13230.0 9.6821e-06
13250.0 9.3668e-06
13270.0 9.118e-06
13290.0 8.9245e-06
13310.0 8.7913e-06
13330.0 8.7306e-06
13350.0 8.7376e-06
13370.0 8.816e-06
13390.0 8.97e-06
13410.0 9.178e-06
13430.0 9.4485e-06
13450.0 9.7825e-06
13470.0 1.0153e-05
13490.0 1.0546e-05
13510.0 1.0989e-05
13530.0 1.1438e-05
13550.0 1.1868e-05
13570.0 1.2292e-05
13590.0 1.2705e-05
13610.0 1.3073e-05
13630.0 1.3393e-05
13650.0 1.3686e-05
13670.0 1.3929e-05
13690.0 1.4117e-05
13710.0 1.4263e-05
13730.0 1.4367e-05
13750.0 1.4419e-05
13770.0 1.4431e-05
13790.0 1.4404e-05
13810.0 1.4341e-05
13830.0 1.4247e-05
13850.0 1.4119e-05
13870.0 1.3959e-05
13890.0 1.3775e-05
13910.0 1.3568e-05
13930.0 1.3329e-05
13950.0 1.3067e-05
13970.0 1.28e-05
13990.0 1.2509e-05
14010.0 1.2199e-05
14030.0 1.189e-05
14050.0 1.1579e-05
14070.0 1.1251e-05
14090.0 1.0936e-05
14110.0 1.064e-05
14130.0 1.0353e-05
14150.0 1.0083e-05
14170.0 9.8526e-06
14190.0 9.6533e-06
14210.0 9.4844e-06
14230.0 9.3592e-06
14250.0 9.2783e-06
14270.0 9.2391e-06
14290.0 9.2475e-06
14310.0 9.299e-06
14330.0 9.3915e-06
14350.0 9.5277e-06
14370.0 9.6974e-06
14390.0 9.8902e-06
14410.0 1.0117e-05
14430.0 1.0366e-05
14450.0 1.0621e-05
14470.0 1.0885e-05
14490.0 1.1166e-05
14510.0 1.1435e-05
14530.0 1.169e-05
14550.0 1.1945e-05
14570.0 1.2189e-05
14590.0 1.2412e-05
14610.0 1.2628e-05
14630.0 1.2841e-05
14650.0 1.304e-05
14670.0 1.3231e-05
14690.0 1.3431e-05
14710.0 1.3642e-05
14730.0 1.3852e-05
14750.0 1.4085e-05
14770.0 1.4349e-05
14790.0 1.4636e-05
14810.0 1.4946e-05
14830.0 1.5314e-05
14850.0 1.5714e-05
14870.0 1.6131e-05
14890.0 1.6581e-05
14910.0 1.7059e-05
14930.0 1.7518e-05
14950.0 1.7948e-05
14970.0 1.8354e-05
14990.0 1.8695e-05
15010.0 1.8956e-05
15030.0 1.9149e-05
15050.0 1.9276e-05
15070.0 1.9339e-05
15090.0 1.9361e-05
15110.0 1.9354e-05
15130.0 1.933e-05
15150.0 1.9297e-05
15170.0 1.9259e-05
15190.0 1.9217e-05
15210.0 1.9176e-05
15230.0 1.9135e-05
15250.0 1.9093e-05
15270.0 1.9051e-05
15290.0 1.9012e-05
15310.0 1.8971e-05
15330.0 1.893e-05
15350.0 1.8891e-05
15370.0 1.8852e-05
15390.0 1.881e-05
15410.0 1.8771e-05
15430.0 1.8732e-05
15450.0 1.8693e-05
15470.0 1.8653e-05
15490.0 1.8615e-05
15510.0 1.8577e-05
15530.0 1.8537e-05
15550.0 1.8499e-05
15570.0 1.8462e-05
15590.0 1.8423e-05
15610.0 1.8384e-05
15630.0 1.8347e-05
15650.0 1.831e-05
15670.0 1.8272e-05
15690.0 1.8234e-05
15710.0 1.8198e-05
15730.0 1.8161e-05
15750.0 1.8123e-05
15770.0 1.8087e-05
15790.0 1.805e-05
15810.0 1.8012e-05
15830.0 1.7975e-05
15850.0 1.794e-05
15870.0 1.7903e-05
15890.0 1.7866e-05
15910.0 1.7831e-05
15930.0 1.7794e-05
15950.0 1.7757e-05
15970.0 1.7721e-05
15990.0 1.7685e-05
16010.0 1.7649e-05
16030.0 1.7611e-05
16050.0 1.7577e-05
16070.0 1.7541e-05
16090.0 1.7504e-05
16110.0 1.7468e-05
16130.0 1.7434e-05
16150.0 1.7396e-05
16170.0 1.736e-05
16190.0 1.7325e-05
16210.0 1.7289e-05
16230.0 1.7252e-05
16250.0 1.7216e-05
16270.0 1.7181e-05
16290.0 1.7145e-05
16310.0 1.7108e-05
16330.0 1.7073e-05
16350.0 1.7037e-05
16370.0 1.6999e-05
16390.0 1.6964e-05
16410.0 1.6929e-05
16430.0 1.6892e-05
16450.0 1.6855e-05
16470.0 1.682e-05
16490.0 1.6784e-05
16510.0 1.6746e-05
16530.0 1.671e-05
16550.0 1.6675e-05
16570.0 1.6637e-05
16590.0 1.66e-05
16610.0 1.6565e-05
16630.0 1.6528e-05
16650.0 1.649e-05
16670.0 1.6454e-05
16690.0 1.6418e-05
16710.0 1.638e-05
16730.0 1.6342e-05
16750.0 1.6306e-05
16770.0 1.6269e-05
16790.0 1.623e-05
16810.0 1.6194e-05
16830.0 1.6157e-05
16850.0 1.6119e-05
16870.0 1.6081e-05
16890.0 1.6045e-05
16910.0 1.6006e-05
16930.0 1.5967e-05
16950.0 1.593e-05
16970.0 1.5892e-05
16990.0 1.5853e-05
17010.0 1.5815e-05
17030.0 1.5778e-05
17050.0 1.5739e-05
17070.0 1.57e-05
17090.0 1.5662e-05
17110.0 1.5624e-05
17130.0 1.5583e-05
17150.0 1.5545e-05
17170.0 1.5507e-05
17190.0 1.5467e-05
17210.0 1.5427e-05
17230.0 1.5389e-05
17250.0 1.535e-05
17270.0 1.5309e-05
17290.0 1.527e-05
17310.0 1.5231e-05
17330.0 1.519e-05
17350.0 1.5149e-05
17370.0 1.5111e-05
17390.0 1.5071e-05
17410.0 1.503e-05
17430.0 1.499e-05
17450.0 1.4951e-05
17470.0 1.4909e-05
17490.0 1.4867e-05
17510.0 1.4828e-05
17530.0 1.4787e-05
17550.0 1.4745e-05
17570.0 1.4704e-05
17590.0 1.4664e-05
17610.0 1.4622e-05
17630.0 1.4581e-05
17650.0 1.454e-05
17670.0 1.4499e-05
17690.0 1.4455e-05
17710.0 1.4414e-05
17730.0 1.4373e-05
17750.0 1.4331e-05
17770.0 1.4289e-05
17790.0 1.4248e-05
17810.0 1.4205e-05
17830.0 1.4162e-05
17850.0 1.4121e-05
17870.0 1.4079e-05
17890.0 1.4035e-05
17910.0 1.3992e-05
17930.0 1.3951e-05
17950.0 1.3908e-05
17970.0 1.3864e-05
17990.0 1.3822e-05
18010.0 1.378e-05
18030.0 1.3736e-05
18050.0 1.3692e-05
18070.0 1.365e-05
18090.0 1.3607e-05
18110.0 1.3562e-05
18130.0 1.352e-05
18150.0 1.3477e-05
18170.0 1.3433e-05
18190.0 1.3389e-05
18210.0 1.3347e-05
18230.0 1.3302e-05
18250.0 1.3257e-05
18270.0 1.3214e-05
18290.0 1.3171e-05
18310.0 1.3126e-05
18330.0 1.3082e-05
18350.0 1.3039e-05
18370.0 1.2994e-05
18390.0 1.295e-05
18410.0 1.2906e-05
18430.0 1.2862e-05
18450.0 1.2816e-05
18470.0 1.2772e-05
18490.0 1.2729e-05
18510.0 1.2684e-05
18530.0 1.2639e-05
18550.0 1.2596e-05
18570.0 1.2551e-05
18590.0 1.2506e-05
18610.0 1.2461e-05
18630.0 1.2417e-05
18650.0 1.2372e-05
18670.0 1.2326e-05
18690.0 1.2283e-05
18710.0 1.2238e-05
18730.0 1.2193e-05
18750.0 1.2148e-05
18770.0 1.2105e-05
18790.0 1.2058e-05
18810.0 1.2013e-05
18830.0 1.1969e-05
18850.0 1.1924e-05
18870.0 1.1878e-05
18890.0 1.1834e-05
18910.0 1.179e-05
18930.0 1.1744e-05
18950.0 1.1699e-05
18970.0 1.1654e-05
18990.0 1.1609e-05
19010.0 1.1562e-05
19030.0 1.1518e-05
19050.0 1.1474e-05
19070.0 1.1428e-05
19090.0 1.1383e-05
19110.0 1.1339e-05
19130.0 1.1294e-05
19150.0 1.1248e-05
19170.0 1.1203e-05
19190.0 1.1158e-05
19210.0 1.1112e-05
19230.0 1.1067e-05
19250.0 1.1023e-05
19270.0 1.0978e-05
19290.0 1.0932e-05
19310.0 1.0888e-05
19330.0 1.0843e-05
19350.0 1.0797e-05
19370.0 1.0752e-05
19390.0 1.0708e-05
19410.0 1.0662e-05
19430.0 1.0616e-05
19450.0 1.0572e-05
19470.0 1.0528e-05
19490.0 1.0482e-05
19510.0 1.0437e-05
19530.0 1.0393e-05
19550.0 1.0347e-05
19570.0 1.0301e-05
19590.0 1.0258e-05
19610.0 1.0213e-05
19630.0 1.0167e-05
19650.0 1.0123e-05
19670.0 1.0079e-05
19690.0 1.0033e-05
19710.0 9.9881e-06
19730.0 9.9442e-06
19750.0 9.8996e-06
19770.0 9.8534e-06
19790.0 9.8091e-06
19810.0 9.7654e-06
19830.0 9.7199e-06
19850.0 9.6743e-06
19870.0 9.6295e-06
19890.0 9.5814e-06
19910.0 9.5286e-06
19930.0 9.4721e-06
19950.0 9.4074e-06
19970.0 9.3278e-06
19990.0 9.2319e-06
20010.0 8.2136e-06
20030.0 8.0947e-06
20050.0 7.9556e-06
20070.0 7.8048e-06
20090.0 7.6427e-06
20110.0 7.4592e-06
20130.0 7.2735e-06
20150.0 7.0895e-06
20170.0 6.8987e-06
20190.0 6.7052e-06
20210.0 6.5224e-06
20230.0 6.3441e-06
20250.0 6.1655e-06
20270.0 5.9996e-06
20290.0 5.8482e-06
20310.0 5.7044e-06
20330.0 5.5699e-06
20350.0 5.4583e-06
20370.0 5.3593e-06
20390.0 5.2724e-06
20410.0 5.2022e-06
20430.0 5.1481e-06
20450.0 5.1053e-06
20470.0 5.0766e-06
20490.0 5.0612e-06
20510.0 5.0567e-06
20530.0 5.063e-06
20550.0 5.0786e-06
20570.0 5.1013e-06
20590.0 5.1321e-06
20610.0 5.1694e-06
20630.0 5.2105e-06
20650.0 5.2564e-06
20670.0 5.3089e-06
20690.0 5.3625e-06
20710.0 5.4178e-06
20730.0 5.4775e-06
20750.0 5.5399e-06
20770.0 5.6012e-06
20790.0 5.6655e-06
20810.0 5.7336e-06
20830.0 5.8014e-06
20850.0 5.8695e-06
20870.0 5.9423e-06
20890.0 6.0166e-06
20910.0 6.0883e-06
20930.0 6.1627e-06
20950.0 6.2397e-06
20970.0 6.3149e-06
20990.0 6.389e-06
21010.0 6.467e-06
21030.0 6.5432e-06
21050.0 6.6159e-06
21070.0 6.6885e-06
21090.0 6.7613e-06
21110.0 6.8278e-06
21130.0 6.8902e-06
21150.0 6.9506e-06
21170.0 7.0053e-06
21190.0 7.0525e-06
21210.0 7.0948e-06
21230.0 7.13e-06
21250.0 7.1551e-06
21270.0 7.1711e-06
21290.0 7.177e-06
21310.0 7.1713e-06
21330.0 7.1544e-06
21350.0 7.1247e-06
21370.0 7.0811e-06
21390.0 7.0256e-06
21410.0 6.9577e-06
21430.0 6.8717e-06
21450.0 6.7752e-06
21470.0 6.6701e-06
21490.0 6.5512e-06
21510.0 6.4208e-06
21530.0 6.2883e-06
21550.0 6.1495e-06
21570.0 6.0014e-06
21590.0 5.8558e-06
21610.0 5.7151e-06
21630.0 5.5743e-06
21650.0 5.4367e-06
21670.0 5.3174e-06
21690.0 5.2074e-06
21710.0 5.1084e-06
21730.0 5.0272e-06
21750.0 4.9646e-06
21770.0 4.9169e-06
21790.0 4.8895e-06
21810.0 4.8819e-06
21830.0 4.8927e-06
21850.0 4.9233e-06
21870.0 4.971e-06
21890.0 5.0326e-06
21910.0 5.1117e-06
21930.0 5.2043e-06
21950.0 5.3048e-06
21970.0 5.416e-06
21990.0 5.5409e-06
22010.0 5.6656e-06
22030.0 5.7923e-06
22050.0 5.9254e-06
22070.0 6.0593e-06
22090.0 6.186e-06
22110.0 6.3137e-06
22130.0 6.4412e-06
22150.0 6.5603e-06
22170.0 6.6726e-06
22190.0 6.7839e-06
22210.0 6.8875e-06
22230.0 6.9786e-06
22250.0 7.0644e-06
22270.0 7.1434e-06
22290.0 7.211e-06
22310.0 7.269e-06
22330.0 7.32e-06
22350.0 7.3595e-06
22370.0 7.3873e-06
22390.0 7.4047e-06
22410.0 7.4102e-06
22430.0 7.4031e-06
22450.0 7.3841e-06
22470.0 7.3511e-06
22490.0 7.3048e-06
22510.0 7.2471e-06
22530.0 7.1733e-06
22550.0 7.0835e-06
22570.0 6.9839e-06
22590.0 6.8716e-06
22610.0 6.7424e-06
22630.0 6.6025e-06
