#lamb flux
1010.0 1.0448e-08
1030.0 1.1556e-08
1050.0 1.283e-08
1070.0 1.4264e-08
1090.0 1.5893e-08
1110.0 1.7564e-08
1130.0 1.9245e-08
1150.0 2.1006e-08
1170.0 2.2823e-08
1190.0 2.4546e-08
1210.0 2.6292e-08
1230.0 2.8097e-08
1250.0 2.9865e-08
1270.0 3.1582e-08
1290.0 3.3396e-08
1310.0 3.5208e-08
1330.0 3.6947e-08
1350.0 3.8705e-08
1370.0 4.052e-08
1390.0 4.229e-08
1410.0 4.4007e-08
1430.0 4.5802e-08
1450.0 4.7598e-08
1470.0 4.9333e-08
1490.0 5.1086e-08
1510.0 5.2939e-08
1530.0 5.4695e-08
1550.0 5.6427e-08
1570.0 5.822e-08
1590.0 6.0015e-08
1610.0 6.173e-08
1630.0 6.3499e-08
1650.0 6.5315e-08
1670.0 6.7073e-08
1690.0 6.8809e-08
1710.0 7.0614e-08
1730.0 7.243e-08
1750.0 7.4139e-08
1770.0 7.5901e-08
1790.0 7.77e-08
1810.0 7.9444e-08
1830.0 8.116e-08
1850.0 8.2983e-08
1870.0 8.4762e-08
1890.0 8.6485e-08
1910.0 8.8246e-08
1930.0 9.0052e-08
1950.0 9.178e-08
1970.0 9.3492e-08
1990.0 9.5272e-08
2010.0 9.7026e-08
2030.0 9.8722e-08
2050.0 1.0047e-07
2070.0 1.0227e-07
2090.0 1.0397e-07
2110.0 1.0567e-07
2130.0 1.0743e-07
2150.0 1.0915e-07
2170.0 1.1081e-07
2190.0 1.1253e-07
2210.0 1.1426e-07
2230.0 1.1593e-07
2250.0 1.1759e-07
2270.0 1.1932e-07
2290.0 1.2101e-07
2310.0 1.2263e-07
2330.0 1.2431e-07
2350.0 1.2605e-07
2370.0 1.2777e-07
2390.0 1.2964e-07
2410.0 1.3185e-07
2430.0 1.3439e-07
2450.0 1.3743e-07
2470.0 1.4133e-07
2490.0 1.4624e-07
2510.0 1.5183e-07
2530.0 1.5855e-07
2550.0 1.6696e-07
2570.0 1.7742e-07
2590.0 1.9103e-07
2610.0 2.1141e-07
2630.0 2.4051e-07
2650.0 2.7856e-07
2670.0 3.2775e-07
2690.0 3.882e-07
2710.0 4.5272e-07
2730.0 5.1648e-07
2750.0 5.7928e-07
2770.0 6.3391e-07
2790.0 6.7728e-07
2810.0 7.1171e-07
2830.0 7.386e-07
2850.0 7.5696e-07
2870.0 7.7044e-07
2890.0 7.8111e-07
2910.0 7.8962e-07
2930.0 7.9658e-07
2950.0 8.0322e-07
2970.0 8.0971e-07
2990.0 8.1581e-07
3010.0 2.3059e-05
3030.0 2.3232e-05
3050.0 2.3398e-05
3070.0 2.3541e-05
3090.0 2.3664e-05
3110.0 2.374e-05
3130.0 2.3737e-05
3150.0 2.3631e-05
3170.0 2.3378e-05
3190.0 2.2981e-05
3210.0 2.2477e-05
3230.0 2.19e-05
3250.0 2.133e-05
3270.0 2.0914e-05
3290.0 2.0683e-05
3310.0 2.072e-05
3330.0 2.102e-05
3350.0 2.1542e-05
3370.0 2.2288e-05
3390.0 2.3228e-05
3410.0 2.425e-05
3430.0 2.5399e-05
3450.0 2.672e-05
3470.0 2.8164e-05
3490.0 2.9693e-05
3510.0 3.1422e-05
3530.0 3.3274e-05
3550.0 3.5148e-05
3570.0 3.7103e-05
3590.0 3.923e-05
3610.0 4.1421e-05
3630.0 4.3606e-05
3650.0 4.5872e-05
3670.0 4.7941e-05
3690.0 4.9488e-05
3710.0 5.0374e-05
3730.0 5.0404e-05
3750.0 4.9702e-05
3770.0 4.9427e-05
3790.0 4.9133e-05
3810.0 4.7925e-05
3830.0 4.9409e-05
3850.0 5.5245e-05
3870.0 5.8448e-05
3890.0 5.8182e-05
3910.0 5.843e-05
3930.0 5.9968e-05
3950.0 6.0915e-05
3970.0 5.5499e-05
3990.0 4.7754e-05
4010.0 0.00014313
4030.0 0.00017342
4050.0 0.00019881
4070.0 0.0001725
4090.0 0.00015624
4110.0 0.00013786
4130.0 0.00012689
4150.0 0.00013497
4170.0 0.00013295
4190.0 0.00014172
4210.0 0.00014042
4230.0 0.00014853
4250.0 0.00017571
4270.0 0.00017778
4290.0 0.00016382
4310.0 0.00017022
4330.0 0.00018106
4350.0 0.00020302
4370.0 0.00023104
4390.0 0.0002168
4410.0 0.00016018
4430.0 0.0001356
4450.0 0.0001246
4470.0 9.5638e-05
4490.0 0.00010321
4510.0 0.00015589
4530.0 0.00017979
4550.0 0.00018135
4570.0 0.00020407
4590.0 0.00023245
4610.0 0.00031352
4630.0 0.0004072
4650.0 0.0004416
4670.0 0.00040897
4690.0 0.00039023
4710.0 0.0004125
4730.0 0.00038928
4750.0 0.00029104
4770.0 0.00021349
4790.0 0.00019935
4810.0 0.00019002
4830.0 0.00017396
4850.0 0.00019089
4870.0 0.00025218
4890.0 0.0002974
4910.0 0.00026093
4930.0 0.00023088
4950.0 0.00025366
4970.0 0.0003253
4990.0 0.00044086
5010.0 0.00050716
5030.0 0.00044719
5050.0 0.00030256
5070.0 0.0001994
5090.0 0.00016078
5110.0 0.00016535
5130.0 0.00019084
5150.0 0.00020676
5170.0 0.00020366
5190.0 0.00019031
5210.0 0.00019891
5230.0 0.0002091
5250.0 0.00022536
5270.0 0.00024314
5290.0 0.00026945
5310.0 0.00031364
5330.0 0.00034708
5350.0 0.00034487
5370.0 0.00036225
5390.0 0.00041569
5410.0 0.00041532
5430.0 0.00036729
5450.0 0.00033745
5470.0 0.00035832
5490.0 0.00043777
5510.0 0.00054736
5530.0 0.0006278
5550.0 0.00060678
5570.0 0.00055161
5590.0 0.00047963
5610.0 0.00044233
5630.0 0.00042892
5650.0 0.00040851
5670.0 0.00038709
5690.0 0.00034606
5710.0 0.00033742
5730.0 0.00031081
5750.0 0.00021914
5770.0 0.00017097
5790.0 0.00019374
5810.0 0.00021877
5830.0 0.00026846
5850.0 0.00031958
5870.0 0.00035457
5890.0 0.00036058
5910.0 0.00035376
5930.0 0.00033674
5950.0 0.00034313
5970.0 0.00039113
5990.0 0.00036777
6010.0 0.0003083
6030.0 0.00026047
6050.0 0.00022683
6070.0 0.00022559
6090.0 0.00024462
6110.0 0.00027352
6130.0 0.00027771
6150.0 0.00023895
6170.0 0.0002102
6190.0 0.00023655
6210.0 0.00031272
6230.0 0.00041037
6250.0 0.00044449
6270.0 0.00038843
6290.0 0.0003268
6310.0 0.00025513
6330.0 0.00019548
6350.0 0.00017436
6370.0 0.00018336
6390.0 0.00021197
6410.0 0.00026137
6430.0 0.00030521
6450.0 0.00034924
6470.0 0.00039988
6490.0 0.00048303
6510.0 0.00054009
6530.0 0.00052987
6550.0 0.00047914
6570.0 0.00040675
6590.0 0.00036677
6610.0 0.00031625
6630.0 0.00028651
6650.0 0.00027084
6670.0 0.00026311
6690.0 0.00023774
6710.0 0.00021611
6730.0 0.00015566
6750.0 0.00015432
6770.0 0.00016773
6790.0 0.0001928
6810.0 0.00017641
6830.0 0.00018166
6850.0 0.00016991
6870.0 0.00015521
6890.0 0.00014903
6910.0 0.00015881
6930.0 0.00014874
6950.0 0.00015303
6970.0 0.00016096
6990.0 0.00018271
7010.0 0.00018426
7030.0 0.00018719
7050.0 0.00017852
7070.0 0.00017009
7090.0 0.00017059
7110.0 0.00017553
7130.0 0.00018889
7150.0 0.00020062
7170.0 0.00022137
7190.0 0.00024335
7210.0 0.00023912
7230.0 0.00024582
7250.0 0.00026417
7270.0 0.00028788
7290.0 0.00034169
7310.0 0.00037077
7330.0 0.00035837
7350.0 0.00032413
7370.0 0.00028202
7390.0 0.0002736
7410.0 0.00029075
7430.0 0.00032313
7450.0 0.00035195
7470.0 0.00034871
7490.0 0.00031796
7510.0 0.00036017
7530.0 0.00035623
7550.0 0.00032018
7570.0 0.00025012
7590.0 0.00017195
7610.0 0.00014759
7630.0 0.00016768
7650.0 0.00019826
7670.0 0.00024675
7690.0 0.00027153
7710.0 0.00028297
7730.0 0.00029737
7750.0 0.00033383
7770.0 0.00033908
7790.0 0.00031146
7810.0 0.00028419
7830.0 0.00029306
7850.0 0.00028488
7870.0 0.00026119
7890.0 0.00021945
7910.0 0.00017838
7930.0 0.00017033
7950.0 0.00015517
7970.0 0.00014364
7990.0 0.00014282
8010.0 1.0578e-05
8030.0 1.044e-05
8050.0 1.0299e-05
8070.0 1.0434e-05
8090.0 1.1211e-05
8110.0 1.102e-05
8130.0 9.0904e-06
8150.0 8.8529e-06
8170.0 7.6255e-06
8190.0 7.2268e-06
8210.0 9.3847e-06
8230.0 1.0449e-05
8250.0 9.4173e-06
8270.0 8.1965e-06
8290.0 7.99e-06
8310.0 6.1495e-06
8330.0 4.1447e-06
8350.0 2.9415e-06
8370.0 1.8533e-06
8390.0 3.3877e-06
8410.0 3.9476e-06
8430.0 4.866e-06
8450.0 5.714e-06
8470.0 7.1022e-06
8490.0 7.0521e-06
8510.0 6.9368e-06
8530.0 7.2395e-06
8550.0 9.7675e-06
8570.0 1.1563e-05
8590.0 1.2477e-05
8610.0 1.5761e-05
8630.0 1.8986e-05
8650.0 1.9862e-05
8670.0 2.1107e-05
8690.0 2.1225e-05
8710.0 1.9222e-05
8730.0 1.788e-05
8750.0 1.5782e-05
8770.0 1.4975e-05
8790.0 1.4712e-05
8810.0 1.4097e-05
8830.0 1.1273e-05
8850.0 8.2526e-06
8870.0 6.3189e-06
8890.0 6.1778e-06
8910.0 7.0798e-06
8930.0 8.0528e-06
8950.0 8.207e-06
8970.0 8.2458e-06
8990.0 7.3542e-06
9010.0 7.7069e-05
9030.0 6.9834e-05
9050.0 7.0171e-05
9070.0 7.0725e-05
9090.0 7.1211e-05
9110.0 7.181e-05
9130.0 7.2273e-05
9150.0 7.2633e-05
9170.0 7.3017e-05
9190.0 7.3426e-05
9210.0 7.3858e-05
9230.0 7.4313e-05
9250.0 7.4775e-05
9270.0 7.5255e-05
9290.0 7.5749e-05
9310.0 7.6246e-05
9330.0 7.6754e-05
9350.0 7.728e-05
9370.0 7.7812e-05
9390.0 7.835e-05
9410.0 7.8903e-05
9430.0 7.9472e-05
9450.0 8.004e-05
9470.0 8.0619e-05
9490.0 8.1215e-05
9510.0 8.1819e-05
9530.0 8.2425e-05
9550.0 8.3052e-05
9570.0 8.369e-05
9590.0 8.433e-05
9610.0 8.4981e-05
9630.0 8.5649e-05
9650.0 8.6323e-05
9670.0 8.6998e-05
9690.0 8.7692e-05
9710.0 8.8396e-05
9730.0 8.9102e-05
9750.0 8.9818e-05
9770.0 9.0555e-05
9790.0 9.1291e-05
9810.0 9.2031e-05
9830.0 9.2787e-05
9850.0 9.3552e-05
9870.0 9.4315e-05
9890.0 9.5089e-05
9910.0 9.5879e-05
9930.0 9.6668e-05
9950.0 9.7461e-05
9970.0 9.827e-05
9990.0 9.9086e-05
10010.0 8.5981e-05
10030.0 8.6687e-05
10050.0 8.7407e-05
10070.0 8.8151e-05
10090.0 8.8854e-05
10110.0 8.9573e-05
10130.0 9.0296e-05
10150.0 9.1016e-05
10170.0 9.1744e-05
10190.0 9.2486e-05
10210.0 9.3218e-05
10230.0 9.3949e-05
10250.0 9.4691e-05
10270.0 9.5433e-05
10290.0 9.6165e-05
10310.0 9.6907e-05
10330.0 9.7656e-05
10350.0 9.8392e-05
10370.0 9.9126e-05
10390.0 9.9869e-05
10410.0 0.00010061
10430.0 0.00010133
10450.0 0.00010206
10470.0 0.0001028
10490.0 0.00010352
10510.0 0.00010423
10530.0 0.00010496
10550.0 0.00010568
10570.0 0.00010638
10590.0 0.00010708
10610.0 0.00010779
10630.0 0.00010848
10650.0 0.00010916
10670.0 0.00010985
10690.0 0.00011052
10710.0 0.00011118
10730.0 0.00011184
10750.0 0.0001125
10770.0 0.00011314
10790.0 0.00011377
10810.0 0.0001144
10830.0 0.00011501
10850.0 0.00011559
10870.0 0.00011615
10890.0 0.00011665
10910.0 0.00011703
10930.0 0.00011724
10950.0 0.00011719
10970.0 0.00011679
10990.0 0.00011601
11010.0 0.00011471
11030.0 0.00011289
11050.0 0.00011066
11070.0 0.000108
11090.0 0.00010481
11110.0 0.0001015
11130.0 9.8055e-05
11150.0 9.4343e-05
11170.0 9.0516e-05
11190.0 8.6804e-05
11210.0 8.2971e-05
11230.0 7.9041e-05
11250.0 7.5285e-05
11270.0 7.1678e-05
11290.0 6.8064e-05
11310.0 6.4641e-05
11330.0 6.1627e-05
11350.0 5.8779e-05
11370.0 5.6147e-05
11390.0 5.3871e-05
11410.0 5.1879e-05
11430.0 5.0028e-05
11450.0 4.8434e-05
11470.0 4.7054e-05
11490.0 4.5772e-05
11510.0 4.4535e-05
11530.0 4.3388e-05
11550.0 4.2249e-05
11570.0 4.1033e-05
11590.0 3.9774e-05
11610.0 3.8492e-05
11630.0 3.7097e-05
11650.0 3.5604e-05
11670.0 3.4132e-05
11690.0 3.2639e-05
11710.0 3.11e-05
11730.0 2.9608e-05
11750.0 2.8227e-05
11770.0 2.6873e-05
11790.0 2.5604e-05
11810.0 2.4487e-05
11830.0 2.3488e-05
11850.0 2.2567e-05
11870.0 2.1798e-05
11890.0 2.1158e-05
11910.0 2.0595e-05
11930.0 2.0112e-05
11950.0 1.971e-05
11970.0 1.935e-05
11990.0 1.901e-05
12010.0 1.8696e-05
12030.0 1.8393e-05
12050.0 1.8079e-05
12070.0 1.7753e-05
12090.0 1.7439e-05
12110.0 1.712e-05
12130.0 1.6801e-05
12150.0 1.6506e-05
12170.0 1.6249e-05
12190.0 1.6027e-05
12210.0 1.5872e-05
12230.0 1.5797e-05
12250.0 1.5809e-05
12270.0 1.5928e-05
12290.0 1.6153e-05
12310.0 1.6476e-05
12330.0 1.6929e-05
12350.0 1.7493e-05
12370.0 1.8136e-05
12390.0 1.8877e-05
12410.0 1.9745e-05
12430.0 2.0627e-05
12450.0 2.1541e-05
12470.0 2.2513e-05
12490.0 2.3488e-05
12510.0 2.4404e-05
12530.0 2.5315e-05
12550.0 2.6193e-05
12570.0 2.6969e-05
12590.0 2.765e-05
12610.0 2.8256e-05
12630.0 2.874e-05
12650.0 2.9074e-05
12670.0 2.9293e-05
12690.0 2.9381e-05
12710.0 2.9333e-05
12730.0 2.9163e-05
12750.0 2.8859e-05
12770.0 2.8443e-05
12790.0 2.7938e-05
12810.0 2.7335e-05
12830.0 2.6638e-05
12850.0 2.5909e-05
12870.0 2.5137e-05
12890.0 2.4303e-05
12910.0 2.3454e-05
12930.0 2.2618e-05
12950.0 2.1746e-05
12970.0 2.0858e-05
12990.0 2.0018e-05
13010.0 1.9188e-05
13030.0 1.8349e-05
13050.0 1.7543e-05
13070.0 1.6788e-05
13090.0 1.6031e-05
13110.0 1.5298e-05
13130.0 1.4622e-05
13150.0 1.3982e-05
13170.0 1.3356e-05
13190.0 1.2798e-05
13210.0 1.2308e-05
13230.0 1.1859e-05
13250.0 1.1473e-05
13270.0 1.1168e-05
13290.0 1.0931e-05
13310.0 1.0768e-05
13330.0 1.0694e-05
13350.0 1.0702e-05
13370.0 1.0798e-05
13390.0 1.0987e-05
13410.0 1.1242e-05
13430.0 1.1573e-05
13450.0 1.1982e-05
13470.0 1.2436e-05
13490.0 1.2917e-05
13510.0 1.346e-05
13530.0 1.401e-05
13550.0 1.4537e-05
13570.0 1.5056e-05
13590.0 1.5562e-05
13610.0 1.6012e-05
13630.0 1.6405e-05
13650.0 1.6763e-05
13670.0 1.7061e-05
13690.0 1.7292e-05
13710.0 1.747e-05
13730.0 1.7597e-05
13750.0 1.766e-05
13770.0 1.7675e-05
13790.0 1.7643e-05
13810.0 1.7565e-05
13830.0 1.745e-05
13850.0 1.7294e-05
13870.0 1.7097e-05
13890.0 1.6872e-05
13910.0 1.6619e-05
13930.0 1.6326e-05
13950.0 1.6005e-05
13970.0 1.5678e-05
13990.0 1.5321e-05
14010.0 1.4942e-05
14030.0 1.4564e-05
14050.0 1.4183e-05
14070.0 1.378e-05
14090.0 1.3394e-05
14110.0 1.3032e-05
14130.0 1.2681e-05
14150.0 1.235e-05
14170.0 1.2068e-05
14190.0 1.1824e-05
14210.0 1.1617e-05
14230.0 1.1463e-05
14250.0 1.1364e-05
14270.0 1.1316e-05
14290.0 1.1327e-05
14310.0 1.139e-05
14330.0 1.1503e-05
14350.0 1.167e-05
14370.0 1.1878e-05
14390.0 1.2114e-05
14410.0 1.2392e-05
14430.0 1.2697e-05
14450.0 1.3009e-05
14470.0 1.3332e-05
14490.0 1.3676e-05
14510.0 1.4005e-05
14530.0 1.4318e-05
14550.0 1.463e-05
14570.0 1.493e-05
14590.0 1.5203e-05
14610.0 1.5467e-05
14630.0 1.5728e-05
14650.0 1.5971e-05
14670.0 1.6206e-05
14690.0 1.6451e-05
14710.0 1.6709e-05
14730.0 1.6966e-05
14750.0 1.7252e-05
14770.0 1.7576e-05
14790.0 1.7926e-05
14810.0 1.8307e-05
14830.0 1.8757e-05
14850.0 1.9247e-05
14870.0 1.9758e-05
14890.0 2.0309e-05
14910.0 2.0894e-05
14930.0 2.1457e-05
14950.0 2.1983e-05
14970.0 2.2481e-05
14990.0 2.2898e-05
15010.0 2.3217e-05
15030.0 2.3454e-05
15050.0 2.361e-05
15070.0 2.3687e-05
15090.0 2.3713e-05
15110.0 2.3706e-05
15130.0 2.3676e-05
15150.0 2.3636e-05
15170.0 2.3589e-05
15190.0 2.3538e-05
15210.0 2.3488e-05
15230.0 2.3438e-05
15250.0 2.3386e-05
15270.0 2.3335e-05
15290.0 2.3286e-05
15310.0 2.3237e-05
15330.0 2.3186e-05
15350.0 2.3138e-05
15370.0 2.309e-05
15390.0 2.304e-05
15410.0 2.2991e-05
15430.0 2.2944e-05
15450.0 2.2896e-05
15470.0 2.2846e-05
15490.0 2.28e-05
15510.0 2.2753e-05
15530.0 2.2705e-05
15550.0 2.2658e-05
15570.0 2.2613e-05
15590.0 2.2566e-05
15610.0 2.2518e-05
15630.0 2.2472e-05
15650.0 2.2427e-05
15670.0 2.238e-05
15690.0 2.2334e-05
15710.0 2.229e-05
15730.0 2.2244e-05
15750.0 2.2198e-05
15770.0 2.2153e-05
15790.0 2.2109e-05
15810.0 2.2062e-05
15830.0 2.2017e-05
15850.0 2.1973e-05
15870.0 2.1928e-05
15890.0 2.1883e-05
15910.0 2.184e-05
15930.0 2.1795e-05
15950.0 2.1749e-05
15970.0 2.1705e-05
15990.0 2.1662e-05
16010.0 2.1617e-05
16030.0 2.1571e-05
16050.0 2.1529e-05
16070.0 2.1485e-05
16090.0 2.144e-05
16110.0 2.1396e-05
16130.0 2.1353e-05
16150.0 2.1308e-05
16170.0 2.1263e-05
16190.0 2.122e-05
16210.0 2.1176e-05
16230.0 2.1131e-05
16250.0 2.1087e-05
16270.0 2.1044e-05
16290.0 2.0999e-05
16310.0 2.0955e-05
16330.0 2.0912e-05
16350.0 2.0868e-05
16370.0 2.0821e-05
16390.0 2.0778e-05
16410.0 2.0735e-05
16430.0 2.069e-05
16450.0 2.0645e-05
16470.0 2.0602e-05
16490.0 2.0557e-05
16510.0 2.0512e-05
16530.0 2.0468e-05
16550.0 2.0424e-05
16570.0 2.0378e-05
16590.0 2.0332e-05
16610.0 2.0289e-05
16630.0 2.0244e-05
16650.0 2.0198e-05
16670.0 2.0154e-05
16690.0 2.0109e-05
16710.0 2.0062e-05
16730.0 2.0017e-05
16750.0 1.9972e-05
16770.0 1.9926e-05
16790.0 1.988e-05
16810.0 1.9835e-05
16830.0 1.979e-05
16850.0 1.9743e-05
16870.0 1.9697e-05
16890.0 1.9652e-05
16910.0 1.9605e-05
16930.0 1.9557e-05
16950.0 1.9512e-05
16970.0 1.9466e-05
16990.0 1.9418e-05
17010.0 1.9371e-05
17030.0 1.9326e-05
17050.0 1.9278e-05
17070.0 1.923e-05
17090.0 1.9183e-05
17110.0 1.9136e-05
17130.0 1.9087e-05
17150.0 1.904e-05
17170.0 1.8993e-05
17190.0 1.8945e-05
17210.0 1.8896e-05
17230.0 1.8849e-05
17250.0 1.8801e-05
17270.0 1.8751e-05
17290.0 1.8703e-05
17310.0 1.8655e-05
17330.0 1.8606e-05
17350.0 1.8555e-05
17370.0 1.8508e-05
17390.0 1.8459e-05
17410.0 1.8409e-05
17430.0 1.836e-05
17450.0 1.8312e-05
17470.0 1.826e-05
17490.0 1.821e-05
17510.0 1.8161e-05
17530.0 1.8111e-05
17550.0 1.806e-05
17570.0 1.8011e-05
17590.0 1.7961e-05
17610.0 1.791e-05
17630.0 1.7859e-05
17650.0 1.7809e-05
17670.0 1.7759e-05
17690.0 1.7705e-05
17710.0 1.7655e-05
17730.0 1.7605e-05
17750.0 1.7553e-05
17770.0 1.7501e-05
17790.0 1.7452e-05
17810.0 1.7399e-05
17830.0 1.7346e-05
17850.0 1.7295e-05
17870.0 1.7244e-05
17890.0 1.7191e-05
17910.0 1.7138e-05
17930.0 1.7087e-05
17950.0 1.7035e-05
17970.0 1.6982e-05
17990.0 1.693e-05
18010.0 1.6878e-05
18030.0 1.6824e-05
18050.0 1.6771e-05
18070.0 1.6719e-05
18090.0 1.6666e-05
18110.0 1.6611e-05
18130.0 1.656e-05
18150.0 1.6507e-05
18170.0 1.6453e-05
18190.0 1.64e-05
18210.0 1.6347e-05
18230.0 1.6293e-05
18250.0 1.6238e-05
18270.0 1.6185e-05
18290.0 1.6132e-05
18310.0 1.6077e-05
18330.0 1.6024e-05
18350.0 1.5971e-05
18370.0 1.5916e-05
18390.0 1.5861e-05
18410.0 1.5808e-05
18430.0 1.5754e-05
18450.0 1.5698e-05
18470.0 1.5644e-05
18490.0 1.5591e-05
18510.0 1.5536e-05
18530.0 1.5481e-05
18550.0 1.5428e-05
18570.0 1.5373e-05
18590.0 1.5317e-05
18610.0 1.5263e-05
18630.0 1.5209e-05
18650.0 1.5154e-05
18670.0 1.5098e-05
18690.0 1.5045e-05
18710.0 1.499e-05
18730.0 1.4934e-05
18750.0 1.488e-05
18770.0 1.4826e-05
18790.0 1.4769e-05
18810.0 1.4714e-05
18830.0 1.466e-05
18850.0 1.4605e-05
18870.0 1.4549e-05
18890.0 1.4494e-05
18910.0 1.444e-05
18930.0 1.4384e-05
18950.0 1.4329e-05
18970.0 1.4275e-05
18990.0 1.4219e-05
19010.0 1.4162e-05
19030.0 1.4108e-05
19050.0 1.4054e-05
19070.0 1.3998e-05
19090.0 1.3942e-05
19110.0 1.3889e-05
19130.0 1.3833e-05
19150.0 1.3776e-05
19170.0 1.3722e-05
19190.0 1.3667e-05
19210.0 1.3611e-05
19230.0 1.3555e-05
19250.0 1.3502e-05
19270.0 1.3446e-05
19290.0 1.339e-05
19310.0 1.3336e-05
19330.0 1.3281e-05
19350.0 1.3224e-05
19370.0 1.3169e-05
19390.0 1.3115e-05
19410.0 1.3059e-05
19430.0 1.3003e-05
19450.0 1.2949e-05
19470.0 1.2895e-05
19490.0 1.2839e-05
19510.0 1.2784e-05
19530.0 1.273e-05
19550.0 1.2674e-05
19570.0 1.2618e-05
19590.0 1.2564e-05
19610.0 1.2509e-05
19630.0 1.2453e-05
19650.0 1.2399e-05
19670.0 1.2345e-05
19690.0 1.2289e-05
19710.0 1.2234e-05
19730.0 1.218e-05
19750.0 1.2125e-05
19770.0 1.2069e-05
19790.0 1.2015e-05
19810.0 1.1961e-05
19830.0 1.1905e-05
19850.0 1.1849e-05
19870.0 1.1795e-05
19890.0 1.1736e-05
19910.0 1.1671e-05
19930.0 1.1602e-05
19950.0 1.1522e-05
19970.0 1.1425e-05
19990.0 1.1308e-05
20010.0 1.006e-05
20030.0 9.9147e-06
20050.0 9.7443e-06
20070.0 9.5597e-06
20090.0 9.361e-06
20110.0 9.1363e-06
20130.0 8.9089e-06
20150.0 8.6835e-06
20170.0 8.4498e-06
20190.0 8.2128e-06
20210.0 7.9889e-06
20230.0 7.7705e-06
20250.0 7.5517e-06
20270.0 7.3486e-06
20290.0 7.1631e-06
20310.0 6.9869e-06
20330.0 6.8223e-06
20350.0 6.6855e-06
20370.0 6.5642e-06
20390.0 6.4578e-06
20410.0 6.3719e-06
20430.0 6.3056e-06
20450.0 6.2531e-06
20470.0 6.218e-06
20490.0 6.1991e-06
20510.0 6.1936e-06
20530.0 6.2013e-06
20550.0 6.2204e-06
20570.0 6.2483e-06
20590.0 6.286e-06
20610.0 6.3317e-06
20630.0 6.382e-06
20650.0 6.4383e-06
20670.0 6.5026e-06
20690.0 6.5682e-06
20710.0 6.636e-06
20730.0 6.7091e-06
20750.0 6.7854e-06
20770.0 6.8605e-06
20790.0 6.9394e-06
20810.0 7.0228e-06
20830.0 7.1058e-06
20850.0 7.1891e-06
20870.0 7.2784e-06
20890.0 7.3694e-06
20910.0 7.4572e-06
20930.0 7.5483e-06
20950.0 7.6427e-06
20970.0 7.7347e-06
20990.0 7.8255e-06
21010.0 7.921e-06
21030.0 8.0143e-06
21050.0 8.1034e-06
21070.0 8.1923e-06
21090.0 8.2815e-06
21110.0 8.3629e-06
21130.0 8.4393e-06
21150.0 8.5134e-06
21170.0 8.5804e-06
21190.0 8.6381e-06
21210.0 8.69e-06
21230.0 8.7331e-06
21250.0 8.7639e-06
21270.0 8.7834e-06
21290.0 8.7907e-06
21310.0 8.7837e-06
21330.0 8.763e-06
21350.0 8.7266e-06
21370.0 8.6731e-06
21390.0 8.6052e-06
21410.0 8.5221e-06
21430.0 8.4167e-06
21450.0 8.2985e-06
21470.0 8.1698e-06
21490.0 8.0242e-06
21510.0 7.8644e-06
21530.0 7.7021e-06
21550.0 7.5321e-06
21570.0 7.3508e-06
21590.0 7.1724e-06
21610.0 7.0001e-06
21630.0 6.8276e-06
21650.0 6.6591e-06
21670.0 6.513e-06
21690.0 6.3783e-06
21710.0 6.2569e-06
21730.0 6.1575e-06
21750.0 6.0809e-06
21770.0 6.0225e-06
21790.0 5.9889e-06
21810.0 5.9796e-06
21830.0 5.9928e-06
21850.0 6.0303e-06
21870.0 6.0887e-06
21890.0 6.1641e-06
21910.0 6.2609e-06
21930.0 6.3745e-06
21950.0 6.4975e-06
21970.0 6.6337e-06
21990.0 6.7866e-06
22010.0 6.9395e-06
22030.0 7.0947e-06
22050.0 7.2577e-06
22070.0 7.4216e-06
22090.0 7.5768e-06
22110.0 7.7332e-06
22130.0 7.8895e-06
22150.0 8.0353e-06
22170.0 8.1729e-06
22190.0 8.3092e-06
22210.0 8.436e-06
22230.0 8.5477e-06
22250.0 8.6528e-06
22270.0 8.7495e-06
22290.0 8.8323e-06
22310.0 8.9033e-06
22330.0 8.9658e-06
22350.0 9.0141e-06
22370.0 9.0482e-06
22390.0 9.0695e-06
22410.0 9.0763e-06
22430.0 9.0676e-06
22450.0 9.0443e-06
22470.0 9.0039e-06
22490.0 8.9472e-06
22510.0 8.8765e-06
22530.0 8.7861e-06
22550.0 8.6761e-06
22570.0 8.5541e-06
22590.0 8.4166e-06
22610.0 8.2583e-06
22630.0 8.0869e-06
