#lamb flux
1010.0 1.0859e-05
1030.0 1.0859e-05
1050.0 1.0859e-05
1070.0 1.0859e-05
1090.0 1.0859e-05
1110.0 1.0859e-05
1130.0 1.0859e-05
1150.0 1.0859e-05
1170.0 1.0859e-05
1190.0 1.0859e-05
1210.0 1.0859e-05
1230.0 1.0859e-05
1250.0 1.0859e-05
1270.0 1.0859e-05
1290.0 1.0859e-05
1310.0 1.0859e-05
1330.0 1.0859e-05
1350.0 1.0859e-05
1370.0 1.0859e-05
1390.0 1.0859e-05
1410.0 1.0859e-05
1430.0 1.0859e-05
1450.0 1.2042e-05
1470.0 1.3686e-05
1490.0 1.5537e-05
1510.0 1.763e-05
1530.0 1.9905e-05
1550.0 2.2393e-05
1570.0 2.5146e-05
1590.0 2.8162e-05
1610.0 3.14e-05
1630.0 3.4903e-05
1650.0 3.8749e-05
1670.0 4.2894e-05
1690.0 4.7371e-05
1710.0 5.2263e-05
1730.0 5.7548e-05
1750.0 6.3127e-05
1770.0 6.9128e-05
1790.0 7.554e-05
1810.0 8.2253e-05
1830.0 8.926e-05
1850.0 9.6682e-05
1870.0 0.00010431
1890.0 0.00011206
1910.0 0.00011998
1930.0 0.00012804
1950.0 0.00013598
1970.0 0.0001438
1990.0 0.00015155
2010.0 0.00015902
2030.0 0.00016606
2050.0 0.00017279
2070.0 0.00017915
2090.0 0.00018481
2110.0 0.0001899
2130.0 0.00019447
2150.0 0.00019837
2170.0 0.00020148
2190.0 0.00020407
2210.0 0.00020604
2230.0 0.00020727
2250.0 0.0002079
2270.0 0.00020811
2290.0 0.00020771
2310.0 0.00020673
2330.0 0.00020542
2350.0 0.00020377
2370.0 0.0002017
2390.0 0.00019941
2410.0 0.00019708
2430.0 0.00019455
2450.0 0.00019192
2470.0 0.00018941
2490.0 0.0001871
2510.0 0.00018494
2530.0 0.00018348
2550.0 0.00018343
2570.0 0.00018541
2590.0 0.00019022
2610.0 0.00020004
2630.0 0.00021534
2650.0 0.00023522
2670.0 0.00026035
2690.0 0.00029047
2710.0 0.00032207
2730.0 0.00035383
2750.0 0.00038747
2770.0 0.00042084
2790.0 0.00045305
2810.0 0.00048631
2830.0 0.00052254
2850.0 0.00055829
2870.0 0.00059549
2890.0 0.00063597
2910.0 0.00067849
2930.0 0.00072147
2950.0 0.00076807
2970.0 0.00081793
2990.0 0.00086888
3010.0 0.00092193
3030.0 0.00097896
3050.0 0.0010381
3070.0 0.0010961
3090.0 0.001155
3110.0 0.0012116
3130.0 0.0012613
3150.0 0.001302
3170.0 0.0013309
3190.0 0.0013441
3210.0 0.0013391
3230.0 0.0013215
3250.0 0.0013148
3270.0 0.0013327
3290.0 0.0013679
3310.0 0.0014116
3330.0 0.0014656
3350.0 0.0015263
3370.0 0.0015948
3390.0 0.0016748
3410.0 0.0017507
3430.0 0.0018691
3450.0 0.0019635
3470.0 0.0020625
3490.0 0.0021464
3510.0 0.0022482
3530.0 0.002585
3550.0 0.0030559
3570.0 0.0033433
3590.0 0.003469
3610.0 0.0034818
3630.0 0.0033751
3650.0 0.0036474
3670.0 0.0043382
3690.0 0.0048849
3710.0 0.0051753
3730.0 0.0054173
3750.0 0.0056832
3770.0 0.0056366
3790.0 0.0053395
3810.0 0.0049996
3830.0 0.0046576
3850.0 0.004625
3870.0 0.0050066
3890.0 0.005403
3910.0 0.0056765
3930.0 0.0058497
3950.0 0.006364
3970.0 0.0068429
3990.0 0.0065393
4010.0 0.0057531
4030.0 0.0050394
4050.0 0.0048256
4070.0 0.0049474
4090.0 0.0049488
4110.0 0.0048396
4130.0 0.0047594
4150.0 0.0048088
4170.0 0.0052398
4190.0 0.0057541
4210.0 0.0056896
4230.0 0.005382
4250.0 0.0052463
4270.0 0.0052429
4290.0 0.0054673
4310.0 0.0057072
4330.0 0.0054335
4350.0 0.004714
4370.0 0.004127
4390.0 0.0037089
4410.0 0.0033534
4430.0 0.0033336
4450.0 0.0036183
4470.0 0.0038692
4490.0 0.0042027
4510.0 0.0048085
4530.0 0.0060829
4550.0 0.0077292
4570.0 0.0087146
4590.0 0.0092903
4610.0 0.010203
4630.0 0.010859
4650.0 0.010157
4670.0 0.008328
4690.0 0.0068146
4710.0 0.0061955
4730.0 0.0060135
4750.0 0.0055439
4770.0 0.0051414
4790.0 0.0054019
4810.0 0.0059067
4830.0 0.0059648
4850.0 0.0055739
4870.0 0.0054085
4890.0 0.0057693
4910.0 0.0061372
4930.0 0.006183
4950.0 0.0059701
4970.0 0.005596
4990.0 0.0050589
5010.0 0.0045801
5030.0 0.0043016
5050.0 0.0041732
5070.0 0.0040703
5090.0 0.0039501
5110.0 0.0039155
5130.0 0.0039395
5150.0 0.0041239
5170.0 0.0045831
5190.0 0.0051673
5210.0 0.0058443
5230.0 0.0063085
5250.0 0.0065633
5270.0 0.006955
5290.0 0.0074181
5310.0 0.007617
5330.0 0.0073663
5350.0 0.0069869
5370.0 0.0070019
5390.0 0.007533
5410.0 0.0082022
5430.0 0.0086329
5450.0 0.0087559
5470.0 0.0086011
5490.0 0.0083055
5510.0 0.008118
5530.0 0.0081104
5550.0 0.0082012
5570.0 0.008259
5590.0 0.0080976
5610.0 0.0077603
5630.0 0.0072793
5650.0 0.0067644
5670.0 0.0064556
5690.0 0.0063093
5710.0 0.006243
5730.0 0.0063002
5750.0 0.0062715
5770.0 0.0061736
5790.0 0.0062235
5810.0 0.0063041
5830.0 0.0064088
5850.0 0.0064899
5870.0 0.0063965
5890.0 0.0061575
5910.0 0.005823
5930.0 0.0052846
5950.0 0.0048406
5970.0 0.0047546
5990.0 0.0049442
6010.0 0.0050697
6030.0 0.0049008
6050.0 0.0047379
6070.0 0.0049167
6090.0 0.0052982
6110.0 0.0055214
6130.0 0.0053846
6150.0 0.0050732
6170.0 0.0048495
6190.0 0.004642
6210.0 0.0043645
6230.0 0.0040747
6250.0 0.0039371
6270.0 0.0040242
6290.0 0.004179
6310.0 0.0044257
6330.0 0.0047851
6350.0 0.005168
6370.0 0.0053819
6390.0 0.0054347
6410.0 0.0054877
6430.0 0.0055414
6450.0 0.0056013
6470.0 0.0057118
6490.0 0.005832
6510.0 0.0059157
6530.0 0.0059142
6550.0 0.0058211
6570.0 0.0056239
6590.0 0.0053628
6610.0 0.0051761
6630.0 0.0050689
6650.0 0.0049105
6670.0 0.0046888
6690.0 0.0044995
6710.0 0.0044011
6730.0 0.0043558
6750.0 0.0042895
6770.0 0.0042082
6790.0 0.0041398
6810.0 0.004054
6830.0 0.0040058
6850.0 0.0040756
6870.0 0.0041198
6890.0 0.004078
6910.0 0.0039886
6930.0 0.003905
6950.0 0.0038327
6970.0 0.0037029
6990.0 0.0035618
7010.0 0.0035
7030.0 0.0034654
7050.0 0.0033633
7070.0 0.0032123
7090.0 0.0031478
7110.0 0.0032277
7130.0 0.0034251
7150.0 0.0036366
7170.0 0.0037735
7190.0 0.0037468
7210.0 0.0036003
7230.0 0.0035062
7250.0 0.0034987
7270.0 0.00349
7290.0 0.0034613
7310.0 0.003487
7330.0 0.003591
7350.0 0.0037276
7370.0 0.0038114
7390.0 0.0038006
7410.0 0.0037184
7430.0 0.0036104
7450.0 0.0034846
7470.0 0.0033185
7490.0 0.0032039
7510.0 0.0031012
7530.0 0.0030355
7550.0 0.0030472
7570.0 0.0030749
7590.0 0.0030899
7610.0 0.0030702
7630.0 0.0030471
7650.0 0.0030626
7670.0 0.0031327
7690.0 0.0032227
7710.0 0.0033282
7730.0 0.0034075
7750.0 0.003502
7770.0 0.0035684
7790.0 0.0036007
7810.0 0.0035941
7830.0 0.0035827
7850.0 0.0035098
7870.0 0.0033496
7890.0 0.0031849
7910.0 0.0030779
7930.0 0.0029985
7950.0 0.0029222
7970.0 0.0028804
7990.0 0.0028896
8010.0 0.0027723
8030.0 0.0027361
8050.0 0.0026914
8070.0 0.0026379
8090.0 0.0025841
8110.0 0.0025758
8130.0 0.0025828
8150.0 0.002566
8170.0 0.0025396
8190.0 0.0024674
8210.0 0.0023197
8230.0 0.0021603
8250.0 0.0020667
8270.0 0.0019937
8290.0 0.0019192
8310.0 0.0018816
8330.0 0.0018718
8350.0 0.0018199
8370.0 0.0017909
8390.0 0.0018446
8410.0 0.0019466
8430.0 0.002079
8450.0 0.0022176
8470.0 0.0022948
8490.0 0.002362
8510.0 0.002407
8530.0 0.0024515
8550.0 0.0024959
8570.0 0.002523
8590.0 0.0025468
8610.0 0.0026072
8630.0 0.0026279
8650.0 0.0025698
8670.0 0.0025651
8690.0 0.0026
8710.0 0.0026318
8730.0 0.0026189
8750.0 0.0025494
8770.0 0.0025187
8790.0 0.0025005
8810.0 0.0024537
8830.0 0.0022879
8850.0 0.0020827
8870.0 0.0019351
8890.0 0.0018587
8910.0 0.0017558
8930.0 0.001629
8950.0 0.0015463
8970.0 0.0015289
8990.0 0.0015399
9010.0 0.0015366
9030.0 0.0015252
9050.0 0.0015147
9070.0 0.0015058
9090.0 0.0014973
9110.0 0.0014889
9130.0 0.0014804
9150.0 0.0014721
9170.0 0.0014638
9190.0 0.0014555
9210.0 0.0014472
9230.0 0.0014391
9250.0 0.001431
9270.0 0.0014229
9290.0 0.0014149
9310.0 0.0014069
9330.0 0.0013989
9350.0 0.0013911
9370.0 0.0013832
9390.0 0.0013754
9410.0 0.0013677
9430.0 0.0013599
9450.0 0.0013515
9470.0 0.0013434
9490.0 0.0013365
9510.0 0.0013293
9530.0 0.0013221
9550.0 0.0013148
9570.0 0.0013074
9590.0 0.0013002
9610.0 0.0012929
9630.0 0.0012856
9650.0 0.0012784
9670.0 0.0012713
9690.0 0.0012642
9710.0 0.0012571
9730.0 0.0012501
9750.0 0.0012431
9770.0 0.0012361
9790.0 0.0012291
9810.0 0.0012222
9830.0 0.0012152
9850.0 0.0012078
9870.0 0.0012011
9890.0 0.0011945
9910.0 0.0011878
9930.0 0.0011811
9950.0 0.0011745
9970.0 0.0011678
9990.0 0.0011609
10010.0 0.0011535
10030.0 0.0011465
10050.0 0.0011402
10070.0 0.0011339
10090.0 0.0011276
10110.0 0.0011206
10130.0 0.0011116
10150.0 0.0011054
10170.0 0.0010997
10190.0 0.0010934
10210.0 0.0010872
10230.0 0.001081
10250.0 0.0010743
10270.0 0.0010677
10290.0 0.0010612
10310.0 0.0010545
10330.0 0.0010475
10350.0 0.0010409
10370.0 0.0010342
10390.0 0.0010273
10410.0 0.0010204
10430.0 0.0010138
10450.0 0.001007
10470.0 0.00099991
10490.0 0.00099311
10510.0 0.00098633
10530.0 0.00097904
10550.0 0.00097195
10570.0 0.00096513
10590.0 0.00095802
10610.0 0.00095073
10630.0 0.00094375
10650.0 0.00093669
10670.0 0.00092921
10690.0 0.0009219
10710.0 0.00091475
10730.0 0.0009073
10750.0 0.00089955
10770.0 0.00089231
10790.0 0.00088491
10810.0 0.00087718
10830.0 0.00086957
10850.0 0.00086221
10870.0 0.0008543
10890.0 0.00084638
10910.0 0.00083878
10930.0 0.00083111
10950.0 0.00082319
10970.0 0.00081554
10990.0 0.00080828
11010.0 0.00078465
11030.0 0.00077709
11050.0 0.00077
11070.0 0.00076302
11090.0 0.00075585
11110.0 0.00074926
11130.0 0.00074298
11150.0 0.00073674
11170.0 0.00073079
11190.0 0.00072544
11210.0 0.0007203
11230.0 0.00071542
11250.0 0.00071109
11270.0 0.00070722
11290.0 0.00070357
11310.0 0.0007003
11330.0 0.00069751
11350.0 0.00069492
11370.0 0.0006925
11390.0 0.00069031
11410.0 0.00068824
11430.0 0.00068611
11450.0 0.00068399
11470.0 0.00068184
11490.0 0.00067951
11510.0 0.00067691
11530.0 0.00067418
11550.0 0.00067121
11570.0 0.00066781
11590.0 0.00066409
11610.0 0.00066013
11630.0 0.00065564
11650.0 0.0006506
11670.0 0.00064536
11690.0 0.00063969
11710.0 0.0006334
11730.0 0.00062671
11750.0 0.00061987
11770.0 0.00061237
11790.0 0.00060436
11810.0 0.00059625
11830.0 0.00058784
11850.0 0.00057872
11870.0 0.00056962
11890.0 0.00056067
11910.0 0.00055137
11930.0 0.00054196
11950.0 0.00053297
11970.0 0.00052403
11990.0 0.00051494
12010.0 0.00050634
12030.0 0.00049819
12050.0 0.00049014
12070.0 0.00048229
12090.0 0.00047525
12110.0 0.00046848
12130.0 0.00046193
12150.0 0.00045593
12170.0 0.0004505
12190.0 0.00044525
12210.0 0.00044053
12230.0 0.00043647
12250.0 0.00043286
12270.0 0.00042971
12290.0 0.00042715
12310.0 0.00042514
12330.0 0.00042355
12350.0 0.00042244
12370.0 0.00042173
12390.0 0.00042137
12410.0 0.00042135
12430.0 0.00042155
12450.0 0.0004219
12470.0 0.00042241
12490.0 0.000423
12510.0 0.00042356
12530.0 0.00042412
12550.0 0.00042464
12570.0 0.00042499
12590.0 0.00042517
12610.0 0.00042517
12630.0 0.00042488
12650.0 0.00042428
12670.0 0.00042335
12690.0 0.00042203
12710.0 0.00042034
12730.0 0.00041828
12750.0 0.00041573
12770.0 0.00041281
12790.0 0.00040961
12810.0 0.00040602
12830.0 0.00040207
12850.0 0.00039804
12870.0 0.00039388
12890.0 0.00038946
12910.0 0.00038504
12930.0 0.00038074
12950.0 0.00037632
12970.0 0.0003719
12990.0 0.00036776
13010.0 0.00036372
13030.0 0.00035969
13050.0 0.00035585
13070.0 0.00035226
13090.0 0.00034867
13110.0 0.0003452
13130.0 0.00034196
13150.0 0.00033884
13170.0 0.00033574
13190.0 0.00033286
13210.0 0.00033019
13230.0 0.00032759
13250.0 0.00032511
13270.0 0.00032284
13290.0 0.00032066
13310.0 0.00031852
13330.0 0.00031651
13350.0 0.0003146
13370.0 0.00031267
13390.0 0.00031073
13410.0 0.00030886
13430.0 0.00030693
13450.0 0.00030488
13470.0 0.00030279
13490.0 0.00030065
13510.0 0.0002983
13530.0 0.00029584
13550.0 0.00029335
13570.0 0.00029072
13590.0 0.00028792
13610.0 0.00028511
13630.0 0.00028229
13650.0 0.00027931
13670.0 0.0002763
13690.0 0.00027336
13710.0 0.00027037
13730.0 0.00026725
13750.0 0.0002643
13770.0 0.00026139
13790.0 0.00025841
13810.0 0.00025548
13830.0 0.0002527
13850.0 0.00024987
13870.0 0.00024704
13890.0 0.00024436
13910.0 0.00024176
13930.0 0.00023915
13950.0 0.00023663
13970.0 0.00023432
13990.0 0.00023204
14010.0 0.00022982
14030.0 0.00022777
14050.0 0.00022582
14070.0 0.00022386
14090.0 0.00022203
14110.0 0.00022033
14130.0 0.00021865
14150.0 0.000217
14170.0 0.00021547
14190.0 0.000214
14210.0 0.00021252
14230.0 0.00021111
14250.0 0.00020979
14270.0 0.00020845
14290.0 0.00020713
14310.0 0.00020592
14330.0 0.00020473
14350.0 0.00020355
14370.0 0.00020243
14390.0 0.00020139
14410.0 0.00020033
14430.0 0.0001993
14450.0 0.00019835
14470.0 0.00019742
14490.0 0.00019647
14510.0 0.00019559
14530.0 0.00019474
14550.0 0.00019388
14570.0 0.00019301
14590.0 0.00019216
14610.0 0.00019129
14630.0 0.00019035
14650.0 0.00018942
14670.0 0.00018849
14690.0 0.00018752
14710.0 0.00018657
14730.0 0.00018573
14750.0 0.00018497
14770.0 0.00018433
14790.0 0.00018391
14810.0 0.00018375
14830.0 0.00018386
14850.0 0.00018434
14870.0 0.00018515
14890.0 0.00018632
14910.0 0.00018785
14930.0 0.00018957
14950.0 0.00019139
14970.0 0.00019328
14990.0 0.00019504
15010.0 0.00019654
15030.0 0.0001978
15050.0 0.00019879
15070.0 0.00019949
15090.0 0.0002
15110.0 0.00020039
15130.0 0.00020069
15150.0 0.00020094
15170.0 0.00020118
15190.0 0.00020141
15210.0 0.00020164
15230.0 0.00020188
15250.0 0.00020212
15270.0 0.00020237
15290.0 0.00020263
15310.0 0.00020289
15330.0 0.00020316
15350.0 0.00020344
15370.0 0.00020372
15390.0 0.00020401
15410.0 0.0002043
15430.0 0.0002046
15450.0 0.00020491
15470.0 0.00020522
15490.0 0.00020554
15510.0 0.00020587
15530.0 0.0002062
15550.0 0.00020653
15570.0 0.00020688
15590.0 0.00020722
15610.0 0.00020757
15630.0 0.00020793
15650.0 0.0002083
15670.0 0.00020866
15690.0 0.00020903
15710.0 0.00020942
15730.0 0.0002098
15750.0 0.00021018
15770.0 0.00021057
15790.0 0.00021097
15810.0 0.00021137
15830.0 0.00021177
15850.0 0.00021218
15870.0 0.00021259
15890.0 0.00021301
15910.0 0.00021343
15930.0 0.00021385
15950.0 0.00021428
15970.0 0.00021471
15990.0 0.00021514
16010.0 0.00021558
16030.0 0.00021601
16050.0 0.00021646
16070.0 0.0002169
16090.0 0.00021735
16110.0 0.0002178
16130.0 0.00021825
16150.0 0.0002187
16170.0 0.00021916
16190.0 0.00021962
16210.0 0.00022008
16230.0 0.00022054
16250.0 0.000221
16270.0 0.00022147
16290.0 0.00022194
16310.0 0.0002224
16330.0 0.00022287
16350.0 0.00022334
16370.0 0.0002238
16390.0 0.00022428
16410.0 0.00022475
16430.0 0.00022522
16450.0 0.00022569
16470.0 0.00022616
16490.0 0.00022663
16510.0 0.0002271
16530.0 0.00022757
16550.0 0.00022804
16570.0 0.0002285
16590.0 0.00022897
16610.0 0.00022944
16630.0 0.0002299
16650.0 0.00023036
16670.0 0.00023082
16690.0 0.00023129
16710.0 0.00023174
16730.0 0.00023219
16750.0 0.00023265
16770.0 0.0002331
16790.0 0.00023354
16810.0 0.00023399
16830.0 0.00023443
16850.0 0.00023487
16870.0 0.0002353
16890.0 0.00023574
16910.0 0.00023617
16930.0 0.00023659
16950.0 0.00023701
16970.0 0.00023743
16990.0 0.00023784
17010.0 0.00023825
17030.0 0.00023865
17050.0 0.00023905
17070.0 0.00023944
17090.0 0.00023983
17110.0 0.00024021
17130.0 0.00024059
17150.0 0.00024096
17170.0 0.00024133
17190.0 0.00024169
17210.0 0.00024204
17230.0 0.00024239
17250.0 0.00024273
17270.0 0.00024306
17290.0 0.00024339
17310.0 0.00024372
17330.0 0.00024403
17350.0 0.00024433
17370.0 0.00024464
17390.0 0.00024493
17410.0 0.00024521
17430.0 0.00024549
17450.0 0.00024576
17470.0 0.00024601
17490.0 0.00024626
17510.0 0.00024651
17530.0 0.00024674
17550.0 0.00024697
17570.0 0.00024718
17590.0 0.0002474
17610.0 0.00024759
17630.0 0.00024778
17650.0 0.00024796
17670.0 0.00024813
17690.0 0.00024828
17710.0 0.00024844
17730.0 0.00024858
17750.0 0.00024871
17770.0 0.00024883
17790.0 0.00024894
17810.0 0.00024904
17830.0 0.00024912
17850.0 0.0002492
17870.0 0.00024927
17890.0 0.00024932
17910.0 0.00024936
17930.0 0.0002494
17950.0 0.00024942
17970.0 0.00024943
17990.0 0.00024943
18010.0 0.00024942
18030.0 0.00024939
18050.0 0.00024936
18070.0 0.00024931
18090.0 0.00024925
18110.0 0.00024917
18130.0 0.00024909
18150.0 0.000249
18170.0 0.00024889
18190.0 0.00024877
18210.0 0.00024864
18230.0 0.00024849
18250.0 0.00024832
18270.0 0.00024816
18290.0 0.00024798
18310.0 0.00024778
18330.0 0.00024757
18350.0 0.00024735
18370.0 0.00024711
18390.0 0.00024686
18410.0 0.00024661
18430.0 0.00024634
18450.0 0.00024604
18470.0 0.00024575
18490.0 0.00024544
18510.0 0.00024511
18530.0 0.00024477
18550.0 0.00024443
18570.0 0.00024407
18590.0 0.00024369
18610.0 0.0002433
18630.0 0.0002429
18650.0 0.00024248
18670.0 0.00024205
18690.0 0.00024162
18710.0 0.00024117
18730.0 0.0002407
18750.0 0.00024022
18770.0 0.00023973
18790.0 0.00023923
18810.0 0.00023871
18830.0 0.00023818
18850.0 0.00023764
18870.0 0.00023709
18890.0 0.00023652
18910.0 0.00023595
18930.0 0.00023536
18950.0 0.00023476
18970.0 0.00023415
18990.0 0.00023352
19010.0 0.00023288
19030.0 0.00023223
19050.0 0.00023157
19070.0 0.0002309
19090.0 0.00023022
19110.0 0.00022953
19130.0 0.00022882
19150.0 0.0002281
19170.0 0.00022737
19190.0 0.00022664
19210.0 0.00022588
19230.0 0.00022512
19250.0 0.00022435
19270.0 0.00022357
19290.0 0.00022278
19310.0 0.00022198
19330.0 0.00022117
19350.0 0.00022034
19370.0 0.00021951
19390.0 0.00021868
19410.0 0.00021782
19430.0 0.00021696
19450.0 0.0002161
19470.0 0.00021522
19490.0 0.00021433
19510.0 0.00021344
19530.0 0.00021254
19550.0 0.00021162
19570.0 0.0002107
19590.0 0.00020978
19610.0 0.00020884
19630.0 0.0002079
19650.0 0.00020695
19670.0 0.00020599
19690.0 0.00020502
19710.0 0.00020405
19730.0 0.00020307
19750.0 0.00020209
19770.0 0.00020109
19790.0 0.00020009
19810.0 0.00019909
19830.0 0.00019807
19850.0 0.00019704
19870.0 0.000196
19890.0 0.00019492
19910.0 0.00019377
19930.0 0.00019254
19950.0 0.00019118
19970.0 0.00018961
19990.0 0.00018781
20010.0 0.0001858
20030.0 0.00018349
20050.0 0.00018091
20070.0 0.00017818
20090.0 0.00017531
20110.0 0.00017221
20130.0 0.00016912
20150.0 0.00016609
20170.0 0.00016302
20190.0 0.00015994
20210.0 0.000157
20230.0 0.00015411
20250.0 0.00015121
20270.0 0.00014844
20290.0 0.0001458
20310.0 0.0001432
20330.0 0.00014064
20350.0 0.00013831
20370.0 0.00013606
20390.0 0.00013388
20410.0 0.00013185
20430.0 0.00012996
20450.0 0.00012813
20470.0 0.00012642
20490.0 0.00012486
20510.0 0.0001234
20530.0 0.00012203
20550.0 0.00012077
20570.0 0.00011962
20590.0 0.00011854
20610.0 0.00011754
20630.0 0.00011662
20650.0 0.00011576
20670.0 0.00011495
20690.0 0.00011418
20710.0 0.00011345
20730.0 0.00011274
20750.0 0.00011205
20770.0 0.00011136
20790.0 0.00011066
20810.0 0.00010995
20830.0 0.00010922
20850.0 0.00010846
20870.0 0.00010767
20890.0 0.00010683
20910.0 0.00010595
20930.0 0.00010503
20950.0 0.00010405
20970.0 0.00010303
20990.0 0.00010196
21010.0 0.00010083
21030.0 9.9664e-05
21050.0 9.8468e-05
21070.0 9.7225e-05
21090.0 9.593e-05
21110.0 9.4633e-05
21130.0 9.3321e-05
21150.0 9.197e-05
21170.0 9.0612e-05
21190.0 8.9271e-05
21210.0 8.7904e-05
21230.0 8.6524e-05
21250.0 8.5181e-05
21270.0 8.3852e-05
21290.0 8.2515e-05
21310.0 8.1203e-05
21330.0 7.9943e-05
21350.0 7.8684e-05
21370.0 7.7445e-05
21390.0 7.6254e-05
21410.0 7.5098e-05
21430.0 7.3943e-05
21450.0 7.2842e-05
21470.0 7.179e-05
21490.0 7.076e-05
21510.0 6.976e-05
21530.0 6.8813e-05
21550.0 6.7896e-05
21570.0 6.7e-05
21590.0 6.6145e-05
21610.0 6.5327e-05
21630.0 6.4529e-05
21650.0 6.3751e-05
21670.0 6.3012e-05
21690.0 6.229e-05
21710.0 6.1581e-05
21730.0 6.0891e-05
21750.0 6.0219e-05
21770.0 5.9548e-05
21790.0 5.8887e-05
21810.0 5.8236e-05
21830.0 5.7587e-05
21850.0 5.6935e-05
21870.0 5.6286e-05
21890.0 5.5641e-05
21910.0 5.4987e-05
21930.0 5.4329e-05
21950.0 5.3674e-05
21970.0 5.3012e-05
21990.0 5.2336e-05
22010.0 5.1663e-05
22030.0 5.099e-05
22050.0 5.0304e-05
22070.0 4.9613e-05
22090.0 4.893e-05
22110.0 4.8236e-05
22130.0 4.7532e-05
22150.0 4.6834e-05
22170.0 4.6136e-05
22190.0 4.5424e-05
22210.0 4.4711e-05
22230.0 4.4011e-05
22250.0 4.3303e-05
22270.0 4.2588e-05
22290.0 4.1884e-05
22310.0 4.1184e-05
22330.0 4.0469e-05
22350.0 3.9761e-05
22370.0 3.9065e-05
22390.0 3.8364e-05
22410.0 3.7655e-05
22430.0 3.6966e-05
22450.0 3.6283e-05
22470.0 3.5591e-05
22490.0 3.4909e-05
22510.0 3.4244e-05
22530.0 3.3572e-05
22550.0 3.2901e-05
22570.0 3.2253e-05
22590.0 3.1614e-05
22610.0 3.0976e-05
22630.0 3.0353e-05
22650.0 2.9756e-05
22670.0 2.9162e-05
22690.0 2.8581e-05
22710.0 2.8025e-05
22730.0 2.7487e-05
22750.0 2.6954e-05
22770.0 2.645e-05
22790.0 2.5971e-05
22810.0 2.5505e-05
22830.0 2.5058e-05
22850.0 2.4638e-05
22870.0 2.4235e-05
22890.0 2.3847e-05
22910.0 2.3482e-05
22930.0 2.3138e-05
22950.0 2.2809e-05
22970.0 2.2498e-05
22990.0 2.2207e-05
23010.0 2.1929e-05
23030.0 2.1666e-05
