#lamb flux
1010.0 8.3478e-06
1030.0 9.0811e-06
1050.0 9.9468e-06
1070.0 1.0921e-05
1090.0 1.2022e-05
1110.0 1.3152e-05
1130.0 1.429e-05
1150.0 1.5483e-05
1170.0 1.6713e-05
1190.0 1.7879e-05
1210.0 1.9057e-05
1230.0 2.0273e-05
1250.0 2.146e-05
1270.0 2.2609e-05
1290.0 2.3818e-05
1310.0 2.502e-05
1330.0 2.6166e-05
1350.0 2.732e-05
1370.0 2.8509e-05
1390.0 2.9663e-05
1410.0 3.078e-05
1430.0 3.1948e-05
1450.0 3.3116e-05
1470.0 3.4246e-05
1490.0 3.539e-05
1510.0 3.6605e-05
1530.0 3.7759e-05
1550.0 3.8903e-05
1570.0 4.0093e-05
1590.0 4.1291e-05
1610.0 4.2443e-05
1630.0 4.3641e-05
1650.0 4.4876e-05
1670.0 4.6079e-05
1690.0 4.7273e-05
1710.0 4.8518e-05
1730.0 4.9775e-05
1750.0 5.0962e-05
1770.0 5.2183e-05
1790.0 5.3428e-05
1810.0 5.4631e-05
1830.0 5.5808e-05
1850.0 5.7047e-05
1870.0 5.8242e-05
1890.0 5.9382e-05
1910.0 6.0528e-05
1930.0 6.1681e-05
1950.0 6.2756e-05
1970.0 6.3791e-05
1990.0 6.4842e-05
2010.0 6.5843e-05
2030.0 6.6774e-05
2050.0 6.7708e-05
2070.0 6.8642e-05
2090.0 6.9479e-05
2110.0 7.0285e-05
2130.0 7.1099e-05
2150.0 7.1867e-05
2170.0 7.2566e-05
2190.0 7.3286e-05
2210.0 7.3997e-05
2230.0 7.4649e-05
2250.0 7.5286e-05
2270.0 7.5961e-05
2290.0 7.6594e-05
2310.0 7.7179e-05
2330.0 7.7795e-05
2350.0 7.8418e-05
2370.0 7.9001e-05
2390.0 7.9601e-05
2410.0 8.0264e-05
2430.0 8.0915e-05
2450.0 8.1572e-05
2470.0 8.2302e-05
2490.0 8.3116e-05
2510.0 8.3982e-05
2530.0 8.5126e-05
2550.0 8.6882e-05
2570.0 8.96e-05
2590.0 9.3743e-05
2610.0 0.0001005
2630.0 0.00011027
2650.0 0.00012263
2670.0 0.00013782
2690.0 0.00015532
2710.0 0.00017268
2730.0 0.00018841
2750.0 0.00020215
2770.0 0.00021189
2790.0 0.00021709
2810.0 0.00021821
2830.0 0.00021535
2850.0 0.00020965
2870.0 0.00020206
2890.0 0.00019287
2910.0 0.00018293
2930.0 0.0001731
2950.0 0.00016277
2970.0 0.00015218
2990.0 0.00014202
3010.0 0.0001921
3030.0 0.00017709
3050.0 0.00016226
3070.0 0.00014863
3090.0 0.00013498
3110.0 0.00012196
3130.0 0.00011073
3150.0 0.00010316
3170.0 9.7111e-05
3190.0 0.00016029
3210.0 0.00045113
3230.0 0.00092228
3250.0 0.0011703
3270.0 0.0010334
3290.0 0.0007932
3310.0 0.00065642
3330.0 0.00061504
3350.0 0.00063155
3370.0 0.00066506
3390.0 0.00070069
3410.0 0.00073669
3430.0 0.00077037
3450.0 0.00080689
3470.0 0.0008466
3490.0 0.00087367
3510.0 0.00084585
3530.0 0.00086397
3550.0 0.0010836
3570.0 0.0013607
3590.0 0.0015027
3610.0 0.0015497
3630.0 0.001588
3650.0 0.0015858
3670.0 0.001681
3690.0 0.0020116
3710.0 0.0023837
3730.0 0.0026271
3750.0 0.0027999
3770.0 0.0028342
3790.0 0.0027245
3810.0 0.0025185
3830.0 0.0022019
3850.0 0.0018666
3870.0 0.0016936
3890.0 0.0018945
3910.0 0.0023964
3930.0 0.0028984
3950.0 0.0031967
3970.0 0.0033229
3990.0 0.0034615
4010.0 0.0035416
4030.0 0.0031953
4050.0 0.0025216
4070.0 0.0021761
4090.0 0.0022937
4110.0 0.0025252
4130.0 0.0026551
4150.0 0.0026694
4170.0 0.0026085
4190.0 0.0025641
4210.0 0.0026292
4230.0 0.0027824
4250.0 0.0029072
4270.0 0.0029535
4290.0 0.0029128
4310.0 0.0029316
4330.0 0.0031095
4350.0 0.00332
4370.0 0.0033046
4390.0 0.0030649
4410.0 0.0027052
4430.0 0.0022647
4450.0 0.0019538
4470.0 0.0019436
4490.0 0.002123
4510.0 0.0023525
4530.0 0.0026006
4550.0 0.0029891
4570.0 0.0037353
4590.0 0.0047993
4610.0 0.0056688
4630.0 0.0061072
4650.0 0.0064679
4670.0 0.0068183
4690.0 0.0066688
4710.0 0.0058157
4730.0 0.0046875
4750.0 0.0037785
4770.0 0.0032301
4790.0 0.003028
4810.0 0.0030273
4830.0 0.003239
4850.0 0.0036622
4870.0 0.0040412
4890.0 0.0041647
4910.0 0.0042626
4930.0 0.0046628
4950.0 0.0052025
4970.0 0.005481
4990.0 0.0053295
5010.0 0.0047734
5030.0 0.0039977
5050.0 0.0033413
5070.0 0.0029398
5090.0 0.0027751
5110.0 0.0027751
5130.0 0.0028019
5150.0 0.002777
5170.0 0.0027157
5190.0 0.0027457
5210.0 0.0029463
5230.0 0.0033089
5250.0 0.003854
5270.0 0.0044205
5290.0 0.0048013
5310.0 0.0051023
5330.0 0.0054841
5350.0 0.0057622
5370.0 0.0056825
5390.0 0.0053633
5410.0 0.0051255
5430.0 0.0052739
5450.0 0.0058821
5470.0 0.0066313
5490.0 0.0071401
5510.0 0.0072785
5530.0 0.0071576
5550.0 0.0068976
5570.0 0.0065883
5590.0 0.0062975
5610.0 0.0060791
5630.0 0.0059671
5650.0 0.0058142
5670.0 0.0054234
5690.0 0.0048807
5710.0 0.0043954
5730.0 0.0040437
5750.0 0.003904
5770.0 0.0039602
5790.0 0.0040305
5810.0 0.0040306
5830.0 0.0039941
5850.0 0.0038818
5870.0 0.0037241
5890.0 0.0036573
5910.0 0.0036683
5930.0 0.0035747
5950.0 0.0032968
5970.0 0.0028813
5990.0 0.0024238
6010.0 0.0020999
6030.0 0.0020112
6050.0 0.0021207
6070.0 0.0022227
6090.0 0.0021482
6110.0 0.0020267
6130.0 0.0020679
6150.0 0.0022425
6170.0 0.0024027
6190.0 0.0024944
6210.0 0.0025229
6230.0 0.002454
6250.0 0.002236
6270.0 0.0019245
6290.0 0.0016683
6310.0 0.0015775
6330.0 0.0016255
6350.0 0.0017089
6370.0 0.0018162
6390.0 0.0020459
6410.0 0.002391
6430.0 0.0026781
6450.0 0.0028212
6470.0 0.0029004
6490.0 0.0029585
6510.0 0.0029824
6530.0 0.0029984
6550.0 0.0030387
6570.0 0.0030893
6590.0 0.0031237
6610.0 0.0030864
6630.0 0.002948
6650.0 0.0027385
6670.0 0.0025389
6690.0 0.0024102
6710.0 0.0023129
6730.0 0.0022098
6750.0 0.0021605
6770.0 0.00221
6790.0 0.002281
6810.0 0.002303
6830.0 0.0022664
6850.0 0.0021777
6870.0 0.0020874
6890.0 0.0020366
6910.0 0.0020422
6930.0 0.0020769
6950.0 0.0021043
6970.0 0.0021283
6990.0 0.0021216
7010.0 0.0020543
7030.0 0.0019149
7050.0 0.0017332
7070.0 0.0016061
7090.0 0.0015892
7110.0 0.0016152
7130.0 0.0015598
7150.0 0.0014486
7170.0 0.0014344
7190.0 0.0015625
7210.0 0.001742
7230.0 0.0018876
7250.0 0.0019471
7270.0 0.0019049
7290.0 0.0018068
7310.0 0.0017319
7330.0 0.0017346
7350.0 0.0017764
7370.0 0.0018103
7390.0 0.0018882
7410.0 0.0020442
7430.0 0.0022228
7450.0 0.0023615
7470.0 0.0024017
7490.0 0.0022867
7510.0 0.0021305
7530.0 0.0020532
7550.0 0.0019603
7570.0 0.00186
7590.0 0.0018153
7610.0 0.0018278
7630.0 0.0019023
7650.0 0.0020458
7670.0 0.0022277
7690.0 0.0023956
7710.0 0.0025212
7730.0 0.0026296
7750.0 0.0027218
7770.0 0.0027711
7790.0 0.0028255
7810.0 0.0028419
7830.0 0.0027662
7850.0 0.0026797
7870.0 0.0026353
7890.0 0.0026461
7910.0 0.0026609
7930.0 0.002611
7950.0 0.0025349
7970.0 0.002454
7990.0 0.0023849
8010.0 0.0022818
8030.0 0.0022947
8050.0 0.0022998
8070.0 0.0022778
8090.0 0.002264
8110.0 0.0022372
8130.0 0.002247
8150.0 0.0022381
8170.0 0.0022063
8190.0 0.0021518
8210.0 0.0020881
8230.0 0.0020278
8250.0 0.0020106
8270.0 0.0019006
8290.0 0.0016555
8310.0 0.0013796
8330.0 0.0011918
8350.0 0.0011469
8370.0 0.0012745
8390.0 0.0014597
8410.0 0.0015624
8430.0 0.001626
8450.0 0.0017423
8470.0 0.0018858
8490.0 0.00208
8510.0 0.0023056
8530.0 0.0025418
8550.0 0.0027317
8570.0 0.0028747
8590.0 0.0029841
8610.0 0.0030498
8630.0 0.0030478
8650.0 0.0030034
8670.0 0.0030151
8690.0 0.003177
8710.0 0.003395
8730.0 0.003504
8750.0 0.0034871
8770.0 0.0035308
8790.0 0.00354
8810.0 0.0033926
8830.0 0.0031553
8850.0 0.0028546
8870.0 0.0026261
8890.0 0.0025597
8910.0 0.002521
8930.0 0.0023655
8950.0 0.0021943
8970.0 0.0021267
8990.0 0.0021376
9010.0 0.0021022
9030.0 0.0020649
9050.0 0.0020458
9070.0 0.0020356
9090.0 0.0020267
9110.0 0.002018
9130.0 0.0020094
9150.0 0.0020009
9170.0 0.0019922
9190.0 0.0019851
9210.0 0.0019807
9230.0 0.0019708
9250.0 0.0019618
9270.0 0.0019534
9290.0 0.0019454
9310.0 0.0019376
9330.0 0.00193
9350.0 0.0019227
9370.0 0.0019154
9390.0 0.0019082
9410.0 0.0019012
9430.0 0.0018938
9450.0 0.0018839
9470.0 0.001875
9490.0 0.001871
9510.0 0.0018657
9530.0 0.0018601
9550.0 0.0018542
9570.0 0.001848
9590.0 0.001842
9610.0 0.0018359
9630.0 0.0018297
9650.0 0.0018236
9670.0 0.0018177
9690.0 0.0018118
9710.0 0.0018058
9730.0 0.0018
9750.0 0.0017943
9770.0 0.0017883
9790.0 0.0017826
9810.0 0.001777
9830.0 0.0017712
9850.0 0.0017654
9870.0 0.0017599
9890.0 0.0017542
9910.0 0.0017485
9930.0 0.0017427
9950.0 0.0017307
9970.0 0.0017268
9990.0 0.0017225
10010.0 0.0017182
10030.0 0.0017133
10050.0 0.0017078
10070.0 0.0017023
10090.0 0.0016968
10110.0 0.0016904
10130.0 0.0016825
10150.0 0.0016769
10170.0 0.0016715
10190.0 0.0016652
10210.0 0.0016594
10230.0 0.0016535
10250.0 0.0016469
10270.0 0.0016402
10290.0 0.001634
10310.0 0.0016271
10330.0 0.0016197
10350.0 0.0016128
10370.0 0.0016059
10390.0 0.0015983
10410.0 0.0015907
10430.0 0.0015836
10450.0 0.0015758
10470.0 0.0015677
10490.0 0.0015598
10510.0 0.0015519
10530.0 0.001543
10550.0 0.0015343
10570.0 0.001526
10590.0 0.0015171
10610.0 0.0015077
10630.0 0.0014988
10650.0 0.0014896
10670.0 0.0014796
10690.0 0.0014697
10710.0 0.00146
10730.0 0.0014497
10750.0 0.0014386
10770.0 0.0014284
10790.0 0.0014178
10810.0 0.0014064
10830.0 0.0013952
10850.0 0.0013843
10870.0 0.0013722
10890.0 0.0013599
10910.0 0.001348
10930.0 0.0013357
10950.0 0.0013225
10970.0 0.0013095
10990.0 0.0012969
11010.0 0.001389
11030.0 0.0013749
11050.0 0.0013614
11070.0 0.0013476
11090.0 0.0013329
11110.0 0.0013191
11130.0 0.0013057
11150.0 0.0012917
11170.0 0.0012778
11190.0 0.0012648
11210.0 0.0012514
11230.0 0.0012378
11250.0 0.0012249
11270.0 0.0012124
11290.0 0.0011995
11310.0 0.0011869
11330.0 0.0011752
11350.0 0.0011634
11370.0 0.0011514
11390.0 0.0011399
11410.0 0.0011284
11430.0 0.0011159
11450.0 0.0011032
11470.0 0.0010905
11490.0 0.0010767
11510.0 0.0010618
11530.0 0.0010466
11550.0 0.0010308
11570.0 0.0010136
11590.0 0.0009957
11610.0 0.00097778
11630.0 0.00095866
11650.0 0.00093864
11670.0 0.00091919
11690.0 0.00089959
11710.0 0.00087928
11730.0 0.00085922
11750.0 0.00083999
11770.0 0.00082022
11790.0 0.00080039
11810.0 0.00078137
11830.0 0.00076258
11850.0 0.00074312
11870.0 0.00072445
11890.0 0.0007066
11910.0 0.00068855
11930.0 0.00067067
11950.0 0.00065383
11970.0 0.00063731
11990.0 0.00062073
12010.0 0.00060516
12030.0 0.00059054
12050.0 0.00057627
12070.0 0.00056259
12090.0 0.00055047
12110.0 0.00053908
12130.0 0.00052842
12150.0 0.00051901
12170.0 0.00051084
12190.0 0.00050346
12210.0 0.00049737
12230.0 0.0004926
12250.0 0.00048897
12270.0 0.00048655
12290.0 0.0004853
12310.0 0.00048507
12330.0 0.00048594
12350.0 0.00048777
12370.0 0.00049022
12390.0 0.00049339
12410.0 0.00049746
12430.0 0.00050158
12450.0 0.00050587
12470.0 0.00051053
12490.0 0.00051521
12510.0 0.00051945
12530.0 0.00052371
12550.0 0.00052782
12570.0 0.00053127
12590.0 0.00053414
12610.0 0.00053663
12630.0 0.00053834
12650.0 0.000539
12670.0 0.00053891
12690.0 0.00053791
12710.0 0.00053586
12730.0 0.00053286
12750.0 0.00052884
12770.0 0.00052384
12790.0 0.00051802
12810.0 0.00051136
12830.0 0.00050385
12850.0 0.00049598
12870.0 0.00048772
12890.0 0.00047894
12910.0 0.00047006
12930.0 0.00046131
12950.0 0.00045236
12970.0 0.0004434
12990.0 0.00043493
13010.0 0.00042666
13030.0 0.00041847
13050.0 0.00041063
13070.0 0.00040326
13090.0 0.00039594
13110.0 0.00038884
13130.0 0.00038215
13150.0 0.00037569
13170.0 0.00036925
13190.0 0.00036319
13210.0 0.00035747
13230.0 0.00035184
13250.0 0.00034641
13270.0 0.00034133
13290.0 0.00033642
13310.0 0.0003316
13330.0 0.00032708
13350.0 0.00032281
13370.0 0.00031865
13390.0 0.00031466
13410.0 0.00031099
13430.0 0.00030745
13450.0 0.00030403
13470.0 0.00030081
13490.0 0.00029777
13510.0 0.00029474
13530.0 0.00029184
13550.0 0.00028907
13570.0 0.00028632
13590.0 0.00028357
13610.0 0.00028088
13630.0 0.00027823
13650.0 0.00027552
13670.0 0.00027281
13690.0 0.00027016
13710.0 0.00026749
13730.0 0.00026474
13750.0 0.00026212
13770.0 0.00025955
13790.0 0.00025697
13810.0 0.00025445
13830.0 0.00025208
13850.0 0.00024973
13870.0 0.00024742
13890.0 0.00024525
13910.0 0.00024317
13930.0 0.00024111
13950.0 0.00023912
13970.0 0.00023725
13990.0 0.00023538
14010.0 0.00023351
14030.0 0.00023169
14050.0 0.00022988
14070.0 0.00022796
14090.0 0.00022604
14110.0 0.00022414
14130.0 0.00022216
14150.0 0.00022012
14170.0 0.00021814
14190.0 0.00021616
14210.0 0.00021415
14230.0 0.00021223
14250.0 0.00021042
14270.0 0.00020866
14290.0 0.000207
14310.0 0.00020556
14330.0 0.00020427
14350.0 0.00020311
14370.0 0.00020213
14390.0 0.00020135
14410.0 0.00020067
14430.0 0.00020012
14450.0 0.0001997
14470.0 0.00019936
14490.0 0.00019907
14510.0 0.00019885
14530.0 0.00019867
14550.0 0.00019851
14570.0 0.00019838
14590.0 0.00019831
14610.0 0.0001983
14630.0 0.00019837
14650.0 0.00019858
14670.0 0.00019895
14690.0 0.00019953
14710.0 0.00020041
14730.0 0.00020155
14750.0 0.00020306
14770.0 0.00020501
14790.0 0.00020738
14810.0 0.00021016
14830.0 0.00021363
14850.0 0.00021762
14870.0 0.00022199
14890.0 0.00022689
14910.0 0.00023229
14930.0 0.00023773
14950.0 0.00024306
14970.0 0.00024835
14990.0 0.0002531
15010.0 0.00025711
15030.0 0.00026048
15050.0 0.00026322
15070.0 0.00026525
15090.0 0.00026685
15110.0 0.00026818
15130.0 0.00026932
15150.0 0.00027036
15170.0 0.00027137
15190.0 0.00027237
15210.0 0.00027339
15230.0 0.00027442
15250.0 0.00027547
15270.0 0.00027654
15290.0 0.00027763
15310.0 0.00027874
15330.0 0.00027988
15350.0 0.00028103
15370.0 0.0002822
15390.0 0.00028339
15410.0 0.0002846
15430.0 0.00028584
15450.0 0.00028708
15470.0 0.00028835
15490.0 0.00028964
15510.0 0.00029094
15530.0 0.00029226
15550.0 0.0002936
15570.0 0.00029495
15590.0 0.00029632
15610.0 0.00029771
15630.0 0.00029911
15650.0 0.00030053
15670.0 0.00030196
15690.0 0.00030341
15710.0 0.00030487
15730.0 0.00030635
15750.0 0.00030784
15770.0 0.00030934
15790.0 0.00031085
15810.0 0.00031238
15830.0 0.00031391
15850.0 0.00031546
15870.0 0.00031702
15890.0 0.00031859
15910.0 0.00032017
15930.0 0.00032176
15950.0 0.00032335
15970.0 0.00032496
15990.0 0.00032657
16010.0 0.00032819
16030.0 0.00032982
16050.0 0.00033145
16070.0 0.00033309
16090.0 0.00033473
16110.0 0.00033638
16130.0 0.00033803
16150.0 0.00033969
16170.0 0.00034134
16190.0 0.00034301
16210.0 0.00034467
16230.0 0.00034633
16250.0 0.00034799
16270.0 0.00034966
16290.0 0.00035132
16310.0 0.00035298
16330.0 0.00035464
16350.0 0.0003563
16370.0 0.00035795
16390.0 0.0003596
16410.0 0.00036125
16430.0 0.00036289
16450.0 0.00036452
16470.0 0.00036615
16490.0 0.00036777
16510.0 0.00036938
16530.0 0.00037099
16550.0 0.00037258
16570.0 0.00037417
16590.0 0.00037574
16610.0 0.00037731
16630.0 0.00037886
16650.0 0.0003804
16670.0 0.00038193
16690.0 0.00038344
16710.0 0.00038494
16730.0 0.00038643
16750.0 0.0003879
16770.0 0.00038935
16790.0 0.00039078
16810.0 0.0003922
16830.0 0.00039361
16850.0 0.00039499
16870.0 0.00039635
16890.0 0.00039769
16910.0 0.00039902
16930.0 0.00040032
16950.0 0.0004016
16970.0 0.00040285
16990.0 0.00040409
17010.0 0.0004053
17030.0 0.00040649
17050.0 0.00040765
17070.0 0.00040878
17090.0 0.0004099
17110.0 0.00041098
17130.0 0.00041204
17150.0 0.00041307
17170.0 0.00041408
17190.0 0.00041505
17210.0 0.000416
17230.0 0.00041692
17250.0 0.00041781
17270.0 0.00041866
17290.0 0.00041949
17310.0 0.00042029
17330.0 0.00042106
17350.0 0.00042179
17370.0 0.00042249
17390.0 0.00042316
17410.0 0.0004238
17430.0 0.00042441
17450.0 0.00042498
17470.0 0.00042552
17490.0 0.00042602
17510.0 0.00042649
17530.0 0.00042693
17550.0 0.00042733
17570.0 0.0004277
17590.0 0.00042803
17610.0 0.00042833
17630.0 0.00042859
17650.0 0.00042882
17670.0 0.00042901
17690.0 0.00042916
17710.0 0.00042928
17730.0 0.00042937
17750.0 0.00042941
17770.0 0.00042943
17790.0 0.00042941
17810.0 0.00042934
17830.0 0.00042925
17850.0 0.00042912
17870.0 0.00042895
17890.0 0.00042875
17910.0 0.00042851
17930.0 0.00042824
17950.0 0.00042793
17970.0 0.00042758
17990.0 0.0004272
18010.0 0.00042679
18030.0 0.00042634
18050.0 0.00042585
18070.0 0.00042534
18090.0 0.00042478
18110.0 0.00042419
18130.0 0.00042357
18150.0 0.00042292
18170.0 0.00042223
18190.0 0.00042151
18210.0 0.00042076
18230.0 0.00041997
18250.0 0.00041915
18270.0 0.0004183
18290.0 0.00041742
18310.0 0.00041651
18330.0 0.00041556
18350.0 0.00041459
18370.0 0.00041359
18390.0 0.00041255
18410.0 0.00041149
18430.0 0.0004104
18450.0 0.00040928
18470.0 0.00040813
18490.0 0.00040696
18510.0 0.00040575
18530.0 0.00040453
18550.0 0.00040327
18570.0 0.00040199
18590.0 0.00040069
18610.0 0.00039936
18630.0 0.000398
18650.0 0.00039662
18670.0 0.00039522
18690.0 0.0003938
18710.0 0.00039235
18730.0 0.00039088
18750.0 0.00038939
18770.0 0.00038789
18790.0 0.00038635
18810.0 0.0003848
18830.0 0.00038324
18850.0 0.00038165
18870.0 0.00038004
18890.0 0.00037842
18910.0 0.00037678
18930.0 0.00037512
18950.0 0.00037345
18970.0 0.00037177
18990.0 0.00037006
19010.0 0.00036834
19030.0 0.00036661
19050.0 0.00036487
19070.0 0.00036311
19090.0 0.00036134
19110.0 0.00035956
19130.0 0.00035777
19150.0 0.00035596
19170.0 0.00035415
19190.0 0.00035233
19210.0 0.00035049
19230.0 0.00034865
19250.0 0.0003468
19270.0 0.00034495
19290.0 0.00034308
19310.0 0.00034121
19330.0 0.00033933
19350.0 0.00033745
19370.0 0.00033556
19390.0 0.00033367
19410.0 0.00033177
19430.0 0.00032986
19450.0 0.00032796
19470.0 0.00032605
19490.0 0.00032414
19510.0 0.00032222
19530.0 0.00032031
19550.0 0.00031839
19570.0 0.00031647
19590.0 0.00031455
19610.0 0.00031263
19630.0 0.00031071
19650.0 0.00030879
19670.0 0.00030687
19690.0 0.00030495
19710.0 0.00030304
19730.0 0.00030112
19750.0 0.00029921
19770.0 0.0002973
19790.0 0.00029539
19810.0 0.00029349
19830.0 0.00029158
19850.0 0.00028967
19870.0 0.00028773
19890.0 0.00028574
19910.0 0.00028364
19930.0 0.00028139
19950.0 0.0002789
19970.0 0.00027604
19990.0 0.00027273
20010.0 0.00026904
20030.0 0.00026481
20050.0 0.00026008
20070.0 0.00025509
20090.0 0.00024988
20110.0 0.00024428
20130.0 0.00023874
20150.0 0.00023335
20170.0 0.00022793
20190.0 0.00022256
20210.0 0.00021749
20230.0 0.00021258
20250.0 0.00020771
20270.0 0.00020312
20290.0 0.00019882
20310.0 0.00019465
20330.0 0.00019063
20350.0 0.00018702
20370.0 0.0001836
20390.0 0.00018035
20410.0 0.00017736
20430.0 0.00017465
20450.0 0.00017206
20470.0 0.00016969
20490.0 0.00016756
20510.0 0.00016559
20530.0 0.00016375
20550.0 0.00016209
20570.0 0.00016058
20590.0 0.00015916
20610.0 0.00015784
20630.0 0.00015661
20650.0 0.00015545
20670.0 0.00015433
20690.0 0.00015325
20710.0 0.00015218
20730.0 0.00015113
20750.0 0.00015006
20770.0 0.00014897
20790.0 0.00014785
20810.0 0.00014669
20830.0 0.00014549
20850.0 0.00014425
20870.0 0.00014294
20890.0 0.00014157
20910.0 0.00014017
20930.0 0.00013871
20950.0 0.00013719
20970.0 0.00013565
20990.0 0.00013408
21010.0 0.00013246
21030.0 0.00013082
21050.0 0.00012919
21070.0 0.00012753
21090.0 0.00012585
21110.0 0.00012422
21130.0 0.00012261
21150.0 0.00012098
21170.0 0.00011938
21190.0 0.00011784
21210.0 0.0001163
21230.0 0.00011477
21250.0 0.00011331
21270.0 0.00011189
21290.0 0.00011049
21310.0 0.00010913
21330.0 0.00010785
21350.0 0.00010659
21370.0 0.00010537
21390.0 0.00010421
21410.0 0.0001031
21430.0 0.00010201
21450.0 0.00010099
21470.0 0.00010003
21490.0 9.9105e-05
21510.0 9.8225e-05
21530.0 9.74e-05
21550.0 9.6614e-05
21570.0 9.5861e-05
21590.0 9.515e-05
21610.0 9.4474e-05
21630.0 9.3826e-05
21650.0 9.3204e-05
21670.0 9.2607e-05
21690.0 9.203e-05
21710.0 9.147e-05
21730.0 9.0925e-05
21750.0 9.0392e-05
21770.0 8.9872e-05
21790.0 8.9361e-05
21810.0 8.8859e-05
21830.0 8.8364e-05
21850.0 8.7877e-05
21870.0 8.7397e-05
21890.0 8.692e-05
21910.0 8.645e-05
21930.0 8.5983e-05
21950.0 8.5518e-05
21970.0 8.5054e-05
21990.0 8.459e-05
22010.0 8.4124e-05
22030.0 8.3653e-05
22050.0 8.3177e-05
22070.0 8.2693e-05
22090.0 8.2202e-05
22110.0 8.1702e-05
22130.0 8.1188e-05
22150.0 8.0666e-05
22170.0 8.0134e-05
22190.0 7.9585e-05
22210.0 7.9023e-05
22230.0 7.8456e-05
22250.0 7.7873e-05
22270.0 7.7272e-05
22290.0 7.6664e-05
22310.0 7.6045e-05
22330.0 7.5396e-05
22350.0 7.4734e-05
22370.0 7.406e-05
22390.0 7.3359e-05
22410.0 7.2622e-05
22430.0 7.1877e-05
22450.0 7.1108e-05
22470.0 7.0296e-05
22490.0 6.9459e-05
22510.0 6.8613e-05
22530.0 6.7717e-05
22550.0 6.6783e-05
22570.0 6.5851e-05
22590.0 6.49e-05
22610.0 6.391e-05
22630.0 6.2918e-05
22650.0 6.1949e-05
22670.0 6.0954e-05
22690.0 5.9956e-05
22710.0 5.8994e-05
22730.0 5.805e-05
22750.0 5.7088e-05
22770.0 5.6179e-05
22790.0 5.532e-05
22810.0 5.4474e-05
22830.0 5.3659e-05
22850.0 5.2906e-05
22870.0 5.2184e-05
22890.0 5.1483e-05
22910.0 5.0834e-05
22930.0 5.0231e-05
22950.0 4.965e-05
22970.0 4.9094e-05
22990.0 4.8592e-05
23010.0 4.811e-05
23030.0 4.7643e-05
23050.0 4.7204e-05
