#lamb flux
1010.0 1.2283e-08
1030.0 1.3522e-08
1050.0 1.4948e-08
1070.0 1.6552e-08
1090.0 1.8375e-08
1110.0 2.0245e-08
1130.0 2.2126e-08
1150.0 2.4097e-08
1170.0 2.613e-08
1190.0 2.8058e-08
1210.0 3.0012e-08
1230.0 3.2031e-08
1250.0 3.4009e-08
1270.0 3.593e-08
1290.0 3.7959e-08
1310.0 3.9988e-08
1330.0 4.1933e-08
1350.0 4.3899e-08
1370.0 4.593e-08
1390.0 4.791e-08
1410.0 4.983e-08
1430.0 5.1838e-08
1450.0 5.3845e-08
1470.0 5.5785e-08
1490.0 5.7745e-08
1510.0 5.9815e-08
1530.0 6.1776e-08
1550.0 6.371e-08
1570.0 6.571e-08
1590.0 6.7711e-08
1610.0 6.9622e-08
1630.0 7.1591e-08
1650.0 7.361e-08
1670.0 7.5562e-08
1690.0 7.7486e-08
1710.0 7.9483e-08
1730.0 8.1488e-08
1750.0 8.3368e-08
1770.0 8.5301e-08
1790.0 8.7269e-08
1810.0 8.9168e-08
1830.0 9.1026e-08
1850.0 9.2994e-08
1870.0 9.4901e-08
1890.0 9.6732e-08
1910.0 9.859e-08
1930.0 1.0048e-07
1950.0 1.0227e-07
1970.0 1.0402e-07
1990.0 1.0582e-07
2010.0 1.0757e-07
2030.0 1.0922e-07
2050.0 1.1091e-07
2070.0 1.1262e-07
2090.0 1.1419e-07
2110.0 1.1571e-07
2130.0 1.1726e-07
2150.0 1.1873e-07
2170.0 1.2007e-07
2190.0 1.2144e-07
2210.0 1.2277e-07
2230.0 1.2398e-07
2250.0 1.2512e-07
2270.0 1.2628e-07
2290.0 1.2732e-07
2310.0 1.2823e-07
2330.0 1.2914e-07
2350.0 1.3002e-07
2370.0 1.3081e-07
2390.0 1.3166e-07
2410.0 1.3275e-07
2430.0 1.3404e-07
2450.0 1.3567e-07
2470.0 1.3796e-07
2490.0 1.4104e-07
2510.0 1.4463e-07
2530.0 1.4918e-07
2550.0 1.5529e-07
2570.0 1.6334e-07
2590.0 1.7427e-07
2610.0 1.9122e-07
2630.0 2.1541e-07
2650.0 2.464e-07
2670.0 2.8546e-07
2690.0 3.3196e-07
2710.0 3.7953e-07
2730.0 4.2431e-07
2750.0 4.6628e-07
2770.0 5.0022e-07
2790.0 5.2445e-07
2810.0 5.4119e-07
2830.0 5.5185e-07
2850.0 5.5621e-07
2870.0 5.5707e-07
2890.0 5.5597e-07
2910.0 5.5347e-07
2930.0 5.5006e-07
2950.0 5.4654e-07
2970.0 5.4304e-07
2990.0 5.3946e-07
3010.0 1.6892e-05
3030.0 1.6791e-05
3050.0 1.6692e-05
3070.0 1.6584e-05
3090.0 1.6468e-05
3110.0 1.6328e-05
3130.0 1.6144e-05
3150.0 1.5901e-05
3170.0 1.557e-05
3190.0 1.5157e-05
3210.0 1.4688e-05
3230.0 1.4182e-05
3250.0 1.367e-05
3270.0 1.3288e-05
3290.0 1.2998e-05
3310.0 1.293e-05
3330.0 1.3011e-05
3350.0 1.3237e-05
3370.0 1.3607e-05
3390.0 1.4102e-05
3410.0 1.4658e-05
3430.0 1.5295e-05
3450.0 1.6039e-05
3470.0 1.6862e-05
3490.0 1.7747e-05
3510.0 1.8758e-05
3530.0 1.9864e-05
3550.0 2.1053e-05
3570.0 2.2371e-05
3590.0 2.3852e-05
3610.0 2.5511e-05
3630.0 2.7172e-05
3650.0 2.8938e-05
3670.0 3.0535e-05
3690.0 3.1729e-05
3710.0 3.233e-05
3730.0 3.1976e-05
3750.0 3.067e-05
3770.0 3.116e-05
3790.0 3.015e-05
3810.0 2.2961e-05
3830.0 2.1583e-05
3850.0 3.1209e-05
3870.0 2.8857e-05
3890.0 2.1966e-05
3910.0 2.295e-05
3930.0 3.0206e-05
3950.0 3.5797e-05
3970.0 4.1561e-05
3990.0 3.0187e-05
4010.0 5.0767e-05
4030.0 4.6993e-05
4050.0 4.6798e-05
4070.0 5.4551e-05
4090.0 5.2153e-05
4110.0 4.8381e-05
4130.0 6.0768e-05
4150.0 8.0634e-05
4170.0 6.4071e-05
4190.0 5.6181e-05
4210.0 6.3284e-05
4230.0 7.9116e-05
4250.0 9.3612e-05
4270.0 0.00010181
4290.0 9.1507e-05
4310.0 8.429e-05
4330.0 8.3992e-05
4350.0 0.00010808
4370.0 0.00013126
4390.0 0.00010447
4410.0 5.9459e-05
4430.0 4.2292e-05
4450.0 3.8928e-05
4470.0 2.6065e-05
4490.0 4.433e-05
4510.0 8.9767e-05
4530.0 0.00010903
4550.0 0.00010474
4570.0 9.5056e-05
4590.0 0.00010292
4610.0 0.00020015
4630.0 0.00027865
4650.0 0.00026175
4670.0 0.00023067
4690.0 0.00024032
4710.0 0.00025249
4730.0 0.00020356
4750.0 0.00012999
4770.0 9.0865e-05
4790.0 0.00010179
4810.0 0.00010636
4830.0 0.00010541
4850.0 0.00011514
4870.0 0.00015249
4890.0 0.00017689
4910.0 0.00013634
4930.0 0.00013156
4950.0 0.00015175
4970.0 0.00020401
4990.0 0.00027464
5010.0 0.00031484
5030.0 0.00024895
5050.0 0.0001498
5070.0 0.00010702
5090.0 8.279e-05
5110.0 7.7757e-05
5130.0 9.2194e-05
5150.0 8.8524e-05
5170.0 8.3338e-05
5190.0 7.4742e-05
5210.0 8.1821e-05
5230.0 0.00010201
5250.0 0.00011922
5270.0 0.0001107
5290.0 0.00012047
5310.0 0.00016141
5330.0 0.00017064
5350.0 0.00016808
5370.0 0.00019047
5390.0 0.00023692
5410.0 0.00020133
5430.0 0.00015209
5450.0 0.0001537
5470.0 0.00018094
5490.0 0.00022903
5510.0 0.00028089
5530.0 0.00032509
5550.0 0.00029254
5570.0 0.00026133
5590.0 0.00021463
5610.0 0.00021877
5630.0 0.000246
5650.0 0.00022919
5670.0 0.00021171
5690.0 0.00017124
5710.0 0.00017576
5730.0 0.00017143
5750.0 9.1187e-05
5770.0 6.639e-05
5790.0 8.2772e-05
5810.0 8.8998e-05
5830.0 0.00013766
5850.0 0.00017844
5870.0 0.00018934
5890.0 0.00017862
5910.0 0.00017286
5930.0 0.00016792
5950.0 0.00017417
5970.0 0.00021576
5990.0 0.00017666
6010.0 0.00013519
6030.0 0.00010961
6050.0 9.7675e-05
6070.0 0.00011758
6090.0 0.00013374
6110.0 0.00013594
6130.0 0.00012338
6150.0 9.7317e-05
6170.0 7.9028e-05
6190.0 9.8742e-05
6210.0 0.00015455
6230.0 0.00022419
6250.0 0.00023826
6270.0 0.00018179
6290.0 0.00015522
6310.0 0.00011856
6330.0 8.6636e-05
6350.0 8.526e-05
6370.0 8.9677e-05
6390.0 0.00010837
6410.0 0.00013903
6430.0 0.00016755
6450.0 0.00020689
6470.0 0.00022
6490.0 0.00026519
6510.0 0.0002978
6530.0 0.00030052
6550.0 0.00027699
6570.0 0.00022753
6590.0 0.00022002
6610.0 0.00018262
6630.0 0.00018955
6650.0 0.00018264
6670.0 0.00016188
6690.0 0.00012838
6710.0 0.00012459
6730.0 5.9893e-05
6750.0 7.6022e-05
6770.0 0.00011515
6790.0 0.00015254
6810.0 0.00011103
6830.0 0.00011349
6850.0 9.5977e-05
6870.0 9.0942e-05
6890.0 7.766e-05
6910.0 9.1605e-05
6930.0 8.5936e-05
6950.0 0.00010275
6970.0 0.00010525
6990.0 0.00011655
7010.0 0.00011469
7030.0 0.00012797
7050.0 0.0001106
7070.0 9.3393e-05
7090.0 9.8429e-05
7110.0 0.00010211
7130.0 0.00011644
7150.0 0.00013263
7170.0 0.0001479
7190.0 0.00015514
7210.0 0.000137
7230.0 0.0001384
7250.0 0.00015021
7270.0 0.00016404
7290.0 0.00019905
7310.0 0.00020579
7330.0 0.00018854
7350.0 0.00016814
7370.0 0.00012462
7390.0 0.00013058
7410.0 0.00016175
7430.0 0.00018378
7450.0 0.00019762
7470.0 0.0001836
7490.0 0.00015508
7510.0 0.00024789
7530.0 0.00022198
7550.0 0.00020574
7570.0 0.00013844
7590.0 6.0933e-05
7610.0 4.3088e-05
7630.0 6.5034e-05
7650.0 8.7213e-05
7670.0 0.00013859
7690.0 0.00015577
7710.0 0.00014024
7730.0 0.00013758
7750.0 0.00017946
7770.0 0.00018359
7790.0 0.00016903
7810.0 0.00013833
7830.0 0.00014844
7850.0 0.00016154
7870.0 0.00015817
7890.0 0.00012442
7910.0 8.3209e-05
7930.0 8.4828e-05
7950.0 7.6268e-05
7970.0 6.4468e-05
7990.0 5.8255e-05
8010.0 4.7847e-05
8030.0 4.4985e-05
8050.0 4.7881e-05
8070.0 5.1814e-05
8090.0 6.0446e-05
8110.0 5.6575e-05
8130.0 3.7182e-05
8150.0 3.7095e-05
8170.0 2.4411e-05
8190.0 1.8189e-05
8210.0 3.3603e-05
8230.0 3.9268e-05
8250.0 2.0763e-05
8270.0 1.7261e-05
8290.0 2.4206e-05
8310.0 1.9795e-05
8330.0 1.2215e-05
8350.0 9.6962e-06
8370.0 3.9303e-06
8390.0 1.0625e-05
8410.0 1.2673e-05
8430.0 1.5777e-05
8450.0 1.7683e-05
8470.0 2.6967e-05
8490.0 2.2677e-05
8510.0 1.8553e-05
8530.0 1.1627e-05
8550.0 3.0104e-05
8570.0 4.5252e-05
8590.0 3.4729e-05
8610.0 4.9661e-05
8630.0 5.4526e-05
8650.0 3.475e-05
8670.0 4.5996e-05
8690.0 6.529e-05
8710.0 5.718e-05
8730.0 6.0395e-05
8750.0 4.8989e-05
8770.0 4.4327e-05
8790.0 4.8269e-05
8810.0 5.1059e-05
8830.0 3.0922e-05
8850.0 1.6581e-05
8870.0 1.2537e-05
8890.0 2.3361e-05
8910.0 3.4348e-05
8930.0 4.381e-05
8950.0 4.9509e-05
8970.0 4.8177e-05
8990.0 3.8146e-05
9010.0 2.8197e-05
9030.0 2.2778e-05
9050.0 2.3648e-05
9070.0 2.4491e-05
9090.0 2.5163e-05
9110.0 2.5949e-05
9130.0 2.6522e-05
9150.0 2.6939e-05
9170.0 2.7382e-05
9190.0 2.7857e-05
9210.0 2.8354e-05
9230.0 2.8881e-05
9250.0 2.9416e-05
9270.0 2.9969e-05
9290.0 3.0537e-05
9310.0 3.1107e-05
9330.0 3.1687e-05
9350.0 3.2286e-05
9370.0 3.2891e-05
9390.0 3.3499e-05
9410.0 3.4124e-05
9430.0 3.4766e-05
9450.0 3.5404e-05
9470.0 3.6055e-05
9490.0 3.6723e-05
9510.0 3.7397e-05
9530.0 3.8074e-05
9550.0 3.8774e-05
9570.0 3.9484e-05
9590.0 4.0196e-05
9610.0 4.0919e-05
9630.0 4.166e-05
9650.0 4.2407e-05
9670.0 4.3156e-05
9690.0 4.3923e-05
9710.0 4.4702e-05
9730.0 4.5482e-05
9750.0 4.6274e-05
9770.0 4.7087e-05
9790.0 4.7899e-05
9810.0 4.8716e-05
9830.0 4.9549e-05
9850.0 5.0391e-05
9870.0 5.1232e-05
9890.0 5.2085e-05
9910.0 5.2953e-05
9930.0 5.3821e-05
9950.0 5.4693e-05
9970.0 5.5581e-05
9990.0 5.6477e-05
10010.0 5.1515e-05
10030.0 5.2312e-05
10050.0 5.3117e-05
10070.0 5.3913e-05
10090.0 5.4721e-05
10110.0 5.5542e-05
10130.0 5.6363e-05
10150.0 5.7179e-05
10170.0 5.7999e-05
10190.0 5.8828e-05
10210.0 5.9649e-05
10230.0 6.0467e-05
10250.0 6.1293e-05
10270.0 6.2117e-05
10290.0 6.2933e-05
10310.0 6.3753e-05
10330.0 6.4578e-05
10350.0 6.539e-05
10370.0 6.6199e-05
10390.0 6.7011e-05
10410.0 6.7816e-05
10430.0 6.8608e-05
10450.0 6.9402e-05
10470.0 7.0194e-05
10490.0 7.0971e-05
10510.0 7.1741e-05
10530.0 7.2515e-05
10550.0 7.3275e-05
10570.0 7.4019e-05
10590.0 7.476e-05
10610.0 7.5494e-05
10630.0 7.621e-05
10650.0 7.6916e-05
10670.0 7.762e-05
10690.0 7.8308e-05
10710.0 7.8978e-05
10730.0 7.9642e-05
10750.0 8.0299e-05
10770.0 8.0929e-05
10790.0 8.1547e-05
10810.0 8.2157e-05
10830.0 8.2744e-05
10850.0 8.3301e-05
10870.0 8.3836e-05
10890.0 8.4314e-05
10910.0 8.4701e-05
10930.0 8.4959e-05
10950.0 8.5016e-05
10970.0 8.4813e-05
10990.0 8.4323e-05
11010.0 8.6094e-05
11030.0 8.48e-05
11050.0 8.3185e-05
11070.0 8.1223e-05
11090.0 7.8845e-05
11110.0 7.6374e-05
11130.0 7.3792e-05
11150.0 7.1014e-05
11170.0 6.816e-05
11190.0 6.5403e-05
11210.0 6.2574e-05
11230.0 5.9695e-05
11250.0 5.6965e-05
11270.0 5.4361e-05
11290.0 5.1773e-05
11310.0 4.9336e-05
11330.0 4.7196e-05
11350.0 4.5177e-05
11370.0 4.3309e-05
11390.0 4.1681e-05
11410.0 4.024e-05
11430.0 3.8882e-05
11450.0 3.7684e-05
11470.0 3.6618e-05
11490.0 3.56e-05
11510.0 3.4595e-05
11530.0 3.3641e-05
11550.0 3.2684e-05
11570.0 3.1663e-05
11590.0 3.0611e-05
11610.0 2.9548e-05
11630.0 2.8406e-05
11650.0 2.7201e-05
11670.0 2.6023e-05
11690.0 2.484e-05
11710.0 2.3631e-05
11730.0 2.2465e-05
11750.0 2.1386e-05
11770.0 2.0331e-05
11790.0 1.934e-05
11810.0 1.8459e-05
11830.0 1.7663e-05
11850.0 1.6922e-05
11870.0 1.6287e-05
11890.0 1.5743e-05
11910.0 1.5251e-05
11930.0 1.4813e-05
11950.0 1.4431e-05
11970.0 1.4077e-05
11990.0 1.3734e-05
12010.0 1.3409e-05
12030.0 1.3092e-05
12050.0 1.2765e-05
12070.0 1.2427e-05
12090.0 1.2099e-05
12110.0 1.1767e-05
12130.0 1.143e-05
12150.0 1.111e-05
12170.0 1.0815e-05
12190.0 1.0535e-05
12210.0 1.0297e-05
12230.0 1.0111e-05
12250.0 9.9769e-06
12270.0 9.9045e-06
12290.0 9.8984e-06
12310.0 9.9535e-06
12330.0 1.0081e-05
12350.0 1.0274e-05
12370.0 1.0516e-05
12390.0 1.0813e-05
12410.0 1.1178e-05
12430.0 1.1554e-05
12450.0 1.1947e-05
12470.0 1.237e-05
12490.0 1.2793e-05
12510.0 1.3185e-05
12530.0 1.3573e-05
12550.0 1.3942e-05
12570.0 1.4258e-05
12590.0 1.4526e-05
12610.0 1.4755e-05
12630.0 1.4925e-05
12650.0 1.502e-05
12670.0 1.5062e-05
12690.0 1.5042e-05
12710.0 1.4958e-05
12730.0 1.4819e-05
12750.0 1.4621e-05
12770.0 1.4372e-05
12790.0 1.4084e-05
12810.0 1.3754e-05
12830.0 1.3384e-05
12850.0 1.3002e-05
12870.0 1.2602e-05
12890.0 1.2177e-05
12910.0 1.1748e-05
12930.0 1.1326e-05
12950.0 1.0889e-05
12970.0 1.0446e-05
12990.0 1.0025e-05
13010.0 9.6083e-06
13030.0 9.1872e-06
13050.0 8.78e-06
13070.0 8.3951e-06
13090.0 8.0073e-06
13110.0 7.6293e-06
13130.0 7.2764e-06
13150.0 6.9389e-06
13170.0 6.6058e-06
13190.0 6.3042e-06
13210.0 6.0337e-06
13230.0 5.782e-06
13250.0 5.5587e-06
13270.0 5.3742e-06
13290.0 5.2206e-06
13310.0 5.1001e-06
13330.0 5.021e-06
13350.0 4.9804e-06
13370.0 4.9787e-06
13390.0 5.0187e-06
13410.0 5.0906e-06
13430.0 5.1972e-06
13450.0 5.3394e-06
13470.0 5.5043e-06
13490.0 5.684e-06
13510.0 5.8934e-06
13530.0 6.1103e-06
13550.0 6.3213e-06
13570.0 6.5333e-06
13590.0 6.7442e-06
13610.0 6.9346e-06
13630.0 7.103e-06
13650.0 7.26e-06
13670.0 7.3925e-06
13690.0 7.4961e-06
13710.0 7.5777e-06
13730.0 7.6379e-06
13750.0 7.6685e-06
13770.0 7.6767e-06
13790.0 7.6639e-06
13810.0 7.6301e-06
13830.0 7.5789e-06
13850.0 7.5099e-06
13870.0 7.4234e-06
13890.0 7.3247e-06
13910.0 7.2145e-06
13930.0 7.0888e-06
13950.0 6.9531e-06
13970.0 6.8157e-06
13990.0 6.668e-06
14010.0 6.5131e-06
14030.0 6.36e-06
14050.0 6.2072e-06
14070.0 6.0477e-06
14090.0 5.8958e-06
14110.0 5.7538e-06
14130.0 5.6168e-06
14150.0 5.488e-06
14170.0 5.3777e-06
14190.0 5.2818e-06
14210.0 5.1996e-06
14230.0 5.1373e-06
14250.0 5.0952e-06
14270.0 5.0718e-06
14290.0 5.0702e-06
14310.0 5.0887e-06
14330.0 5.1267e-06
14350.0 5.1855e-06
14370.0 5.2611e-06
14390.0 5.3493e-06
14410.0 5.4554e-06
14430.0 5.5746e-06
14450.0 5.6994e-06
14470.0 5.8319e-06
14490.0 5.9767e-06
14510.0 6.1196e-06
14530.0 6.2598e-06
14550.0 6.4048e-06
14570.0 6.5497e-06
14590.0 6.6873e-06
14610.0 6.826e-06
14630.0 6.9692e-06
14650.0 7.1084e-06
14670.0 7.2474e-06
14690.0 7.3955e-06
14710.0 7.5528e-06
14730.0 7.7104e-06
14750.0 7.8828e-06
14770.0 8.0742e-06
14790.0 8.2768e-06
14810.0 8.4909e-06
14830.0 8.7369e-06
14850.0 8.9973e-06
14870.0 9.2629e-06
14890.0 9.5434e-06
14910.0 9.8356e-06
14930.0 1.0113e-05
14950.0 1.0371e-05
14970.0 1.0613e-05
14990.0 1.0817e-05
15010.0 1.0975e-05
15030.0 1.1096e-05
15050.0 1.118e-05
15070.0 1.1229e-05
15090.0 1.1256e-05
15110.0 1.1267e-05
15130.0 1.1269e-05
15150.0 1.1267e-05
15170.0 1.1262e-05
15190.0 1.1255e-05
15210.0 1.1249e-05
15230.0 1.1243e-05
15250.0 1.1236e-05
15270.0 1.1229e-05
15290.0 1.1225e-05
15310.0 1.1219e-05
15330.0 1.1214e-05
15350.0 1.1209e-05
15370.0 1.1205e-05
15390.0 1.1199e-05
15410.0 1.1194e-05
15430.0 1.1191e-05
15450.0 1.1186e-05
15470.0 1.1181e-05
15490.0 1.1178e-05
15510.0 1.1175e-05
15530.0 1.117e-05
15550.0 1.1167e-05
15570.0 1.1164e-05
15590.0 1.116e-05
15610.0 1.1155e-05
15630.0 1.1152e-05
15650.0 1.1149e-05
15670.0 1.1145e-05
15690.0 1.1141e-05
15710.0 1.1138e-05
15730.0 1.1134e-05
15750.0 1.113e-05
15770.0 1.1127e-05
15790.0 1.1123e-05
15810.0 1.1118e-05
15830.0 1.1114e-05
15850.0 1.1111e-05
15870.0 1.1106e-05
15890.0 1.1102e-05
15910.0 1.1098e-05
15930.0 1.1093e-05
15950.0 1.1088e-05
15970.0 1.1083e-05
15990.0 1.1078e-05
16010.0 1.1072e-05
16030.0 1.1066e-05
16050.0 1.1061e-05
16070.0 1.1056e-05
16090.0 1.1049e-05
16110.0 1.1043e-05
16130.0 1.1037e-05
16150.0 1.1029e-05
16170.0 1.1021e-05
16190.0 1.1015e-05
16210.0 1.1007e-05
16230.0 1.0998e-05
16250.0 1.0991e-05
16270.0 1.0983e-05
16290.0 1.0974e-05
16310.0 1.0964e-05
16330.0 1.0956e-05
16350.0 1.0946e-05
16370.0 1.0934e-05
16390.0 1.0925e-05
16410.0 1.0914e-05
16430.0 1.0903e-05
16450.0 1.0891e-05
16470.0 1.0881e-05
16490.0 1.0868e-05
16510.0 1.0855e-05
16530.0 1.0843e-05
16550.0 1.083e-05
16570.0 1.0816e-05
16590.0 1.0801e-05
16610.0 1.0788e-05
16630.0 1.0774e-05
16650.0 1.0758e-05
16670.0 1.0743e-05
16690.0 1.0728e-05
16710.0 1.0711e-05
16730.0 1.0694e-05
16750.0 1.0678e-05
16770.0 1.066e-05
16790.0 1.0642e-05
16810.0 1.0624e-05
16830.0 1.0606e-05
16850.0 1.0587e-05
16870.0 1.0567e-05
16890.0 1.0548e-05
16910.0 1.0528e-05
16930.0 1.0506e-05
16950.0 1.0486e-05
16970.0 1.0465e-05
16990.0 1.0443e-05
17010.0 1.0421e-05
17030.0 1.0399e-05
17050.0 1.0376e-05
17070.0 1.0352e-05
17090.0 1.0329e-05
17110.0 1.0305e-05
17130.0 1.0279e-05
17150.0 1.0254e-05
17170.0 1.023e-05
17190.0 1.0204e-05
17210.0 1.0177e-05
17230.0 1.0152e-05
17250.0 1.0125e-05
17270.0 1.0097e-05
17290.0 1.0069e-05
17310.0 1.0042e-05
17330.0 1.0013e-05
17350.0 9.9834e-06
17370.0 9.9553e-06
17390.0 9.926e-06
17410.0 9.8956e-06
17430.0 9.8657e-06
17450.0 9.8361e-06
17470.0 9.804e-06
17490.0 9.7724e-06
17510.0 9.7416e-06
17530.0 9.7097e-06
17550.0 9.6767e-06
17570.0 9.6447e-06
17590.0 9.6126e-06
17610.0 9.5787e-06
17630.0 9.545e-06
17650.0 9.512e-06
17670.0 9.4778e-06
17690.0 9.4419e-06
17710.0 9.4079e-06
17730.0 9.3735e-06
17750.0 9.3376e-06
17770.0 9.3019e-06
17790.0 9.2672e-06
17810.0 9.2307e-06
17830.0 9.1935e-06
17850.0 9.1574e-06
17870.0 9.1209e-06
17890.0 9.0829e-06
17910.0 9.0451e-06
17930.0 9.0086e-06
17950.0 8.9706e-06
17970.0 8.932e-06
17990.0 8.8944e-06
18010.0 8.8564e-06
18030.0 8.8164e-06
18050.0 8.7775e-06
18070.0 8.7391e-06
18090.0 8.6994e-06
18110.0 8.6592e-06
18130.0 8.6203e-06
18150.0 8.5809e-06
18170.0 8.5401e-06
18190.0 8.5001e-06
18210.0 8.4605e-06
18230.0 8.4193e-06
18250.0 8.3778e-06
18270.0 8.3377e-06
18290.0 8.297e-06
18310.0 8.2553e-06
18330.0 8.2143e-06
18350.0 8.1739e-06
18370.0 8.1318e-06
18390.0 8.0898e-06
18410.0 8.0488e-06
18430.0 8.0072e-06
18450.0 7.9641e-06
18470.0 7.9224e-06
18490.0 7.8812e-06
18510.0 7.8387e-06
18530.0 7.7962e-06
18550.0 7.7549e-06
18570.0 7.7125e-06
18590.0 7.6692e-06
18610.0 7.627e-06
18630.0 7.5851e-06
18650.0 7.5419e-06
18670.0 7.4988e-06
18690.0 7.4572e-06
18710.0 7.4146e-06
18730.0 7.3714e-06
18750.0 7.3291e-06
18770.0 7.2872e-06
18790.0 7.2433e-06
18810.0 7.2002e-06
18830.0 7.1582e-06
18850.0 7.1155e-06
18870.0 7.072e-06
18890.0 7.0299e-06
18910.0 6.9879e-06
18930.0 6.9445e-06
18950.0 6.9017e-06
18970.0 6.8598e-06
18990.0 6.817e-06
19010.0 6.7731e-06
19030.0 6.7313e-06
19050.0 6.6893e-06
19070.0 6.6463e-06
19090.0 6.6039e-06
19110.0 6.5626e-06
19130.0 6.5197e-06
19150.0 6.4768e-06
19170.0 6.4351e-06
19190.0 6.3934e-06
19210.0 6.3504e-06
19230.0 6.3082e-06
19250.0 6.2673e-06
19270.0 6.2253e-06
19290.0 6.1831e-06
19310.0 6.142e-06
19330.0 6.1009e-06
19350.0 6.0582e-06
19370.0 6.0168e-06
19390.0 5.9761e-06
19410.0 5.9346e-06
19430.0 5.8928e-06
19450.0 5.8526e-06
19470.0 5.812e-06
19490.0 5.7705e-06
19510.0 5.7299e-06
19530.0 5.69e-06
19550.0 5.6488e-06
19570.0 5.6077e-06
19590.0 5.5681e-06
19610.0 5.5281e-06
19630.0 5.4875e-06
19650.0 5.4478e-06
19670.0 5.4088e-06
19690.0 5.3685e-06
19710.0 5.3286e-06
19730.0 5.2897e-06
19750.0 5.2505e-06
19770.0 5.2103e-06
19790.0 5.1715e-06
19810.0 5.1332e-06
19830.0 5.0939e-06
19850.0 5.0547e-06
19870.0 5.0163e-06
19890.0 4.9761e-06
19910.0 4.9334e-06
19930.0 4.8893e-06
19950.0 4.8414e-06
19970.0 4.7859e-06
19990.0 4.7228e-06
20010.0 4.5062e-06
20030.0 4.4285e-06
20050.0 4.3407e-06
20070.0 4.2479e-06
20090.0 4.1501e-06
20110.0 4.042e-06
20130.0 3.9342e-06
20150.0 3.8287e-06
20170.0 3.7207e-06
20190.0 3.6124e-06
20210.0 3.5107e-06
20230.0 3.4121e-06
20250.0 3.3139e-06
20270.0 3.2228e-06
20290.0 3.1393e-06
20310.0 3.0599e-06
20330.0 2.9852e-06
20350.0 2.9221e-06
20370.0 2.8653e-06
20390.0 2.8146e-06
20410.0 2.7723e-06
20430.0 2.7381e-06
20450.0 2.7097e-06
20470.0 2.6885e-06
20490.0 2.6745e-06
20510.0 2.6665e-06
20530.0 2.6644e-06
20550.0 2.6677e-06
20570.0 2.6754e-06
20590.0 2.6879e-06
20610.0 2.7046e-06
20630.0 2.7239e-06
20650.0 2.7463e-06
20670.0 2.773e-06
20690.0 2.8005e-06
20710.0 2.8292e-06
20730.0 2.8605e-06
20750.0 2.8932e-06
20770.0 2.925e-06
20790.0 2.9582e-06
20810.0 2.9931e-06
20830.0 3.0273e-06
20850.0 3.061e-06
20870.0 3.0968e-06
20890.0 3.1327e-06
20910.0 3.1666e-06
20930.0 3.2015e-06
20950.0 3.2372e-06
20970.0 3.2716e-06
20990.0 3.3051e-06
21010.0 3.3404e-06
21030.0 3.3745e-06
21050.0 3.4068e-06
21070.0 3.4391e-06
21090.0 3.4716e-06
21110.0 3.501e-06
21130.0 3.5287e-06
21150.0 3.5558e-06
21170.0 3.5806e-06
21190.0 3.6021e-06
21210.0 3.622e-06
21230.0 3.6394e-06
21250.0 3.6524e-06
21270.0 3.6617e-06
21290.0 3.6673e-06
21310.0 3.668e-06
21330.0 3.6636e-06
21350.0 3.654e-06
21370.0 3.6385e-06
21390.0 3.6173e-06
21410.0 3.5904e-06
21430.0 3.5554e-06
21450.0 3.5149e-06
21470.0 3.4697e-06
21490.0 3.4176e-06
21510.0 3.3593e-06
21530.0 3.2989e-06
21550.0 3.2345e-06
21570.0 3.1648e-06
21590.0 3.0948e-06
21610.0 3.0259e-06
21630.0 2.9556e-06
21650.0 2.8853e-06
21670.0 2.8225e-06
21690.0 2.7627e-06
21710.0 2.7067e-06
21730.0 2.6581e-06
21750.0 2.6175e-06
21770.0 2.5824e-06
21790.0 2.556e-06
21810.0 2.5386e-06
21830.0 2.5292e-06
21850.0 2.5283e-06
21870.0 2.5356e-06
21890.0 2.5497e-06
21910.0 2.5717e-06
21930.0 2.6005e-06
21950.0 2.6338e-06
21970.0 2.6728e-06
21990.0 2.7187e-06
22010.0 2.7661e-06
22030.0 2.8157e-06
22050.0 2.8694e-06
22070.0 2.9248e-06
22090.0 2.9785e-06
22110.0 3.0338e-06
22130.0 3.0905e-06
22150.0 3.1445e-06
22170.0 3.1963e-06
22190.0 3.2488e-06
22210.0 3.2986e-06
22230.0 3.3429e-06
22250.0 3.3854e-06
22270.0 3.4251e-06
22290.0 3.4594e-06
22310.0 3.4891e-06
22330.0 3.5158e-06
22350.0 3.5367e-06
22370.0 3.5517e-06
22390.0 3.5617e-06
22410.0 3.5659e-06
22430.0 3.5636e-06
22450.0 3.5555e-06
22470.0 3.5407e-06
22490.0 3.5194e-06
22510.0 3.4926e-06
22530.0 3.4583e-06
22550.0 3.4164e-06
22570.0 3.3698e-06
22590.0 3.3172e-06
22610.0 3.2567e-06
