#lamb flux
1010.0 3.0175e-06
1030.0 3.145e-06
1050.0 3.293e-06
1070.0 3.46e-06
1090.0 3.6499e-06
1110.0 3.8456e-06
1130.0 4.0437e-06
1150.0 4.2522e-06
1170.0 4.4685e-06
1190.0 4.6755e-06
1210.0 4.8867e-06
1230.0 5.1065e-06
1250.0 5.324e-06
1270.0 5.5374e-06
1290.0 5.7643e-06
1310.0 5.9934e-06
1330.0 6.216e-06
1350.0 6.4434e-06
1370.0 6.6802e-06
1390.0 6.9143e-06
1410.0 7.1448e-06
1430.0 7.3875e-06
1450.0 7.6331e-06
1470.0 7.8742e-06
1490.0 8.1203e-06
1510.0 8.3813e-06
1530.0 8.6328e-06
1550.0 8.8836e-06
1570.0 9.1439e-06
1590.0 9.4061e-06
1610.0 9.6595e-06
1630.0 9.9207e-06
1650.0 1.0188e-05
1670.0 1.0448e-05
1690.0 1.0704e-05
1710.0 1.0968e-05
1730.0 1.1231e-05
1750.0 1.1478e-05
1770.0 1.1728e-05
1790.0 1.1978e-05
1810.0 1.2217e-05
1830.0 1.2447e-05
1850.0 1.2685e-05
1870.0 1.291e-05
1890.0 1.3121e-05
1910.0 1.333e-05
1930.0 1.3537e-05
1950.0 1.3726e-05
1970.0 1.3905e-05
1990.0 1.4086e-05
2010.0 1.4256e-05
2030.0 1.4411e-05
2050.0 1.4567e-05
2070.0 1.4724e-05
2090.0 1.4863e-05
2110.0 1.4999e-05
2130.0 1.514e-05
2150.0 1.5276e-05
2170.0 1.5403e-05
2190.0 1.5541e-05
2210.0 1.5684e-05
2230.0 1.5825e-05
2250.0 1.5972e-05
2270.0 1.6138e-05
2290.0 1.6309e-05
2310.0 1.6484e-05
2330.0 1.6681e-05
2350.0 1.6896e-05
2370.0 1.7122e-05
2390.0 1.7371e-05
2410.0 1.7651e-05
2430.0 1.795e-05
2450.0 1.8268e-05
2470.0 1.8616e-05
2490.0 1.8991e-05
2510.0 1.9384e-05
2530.0 1.9834e-05
2550.0 2.0405e-05
2570.0 2.1182e-05
2590.0 2.2283e-05
2610.0 2.3981e-05
2630.0 2.6424e-05
2650.0 2.959e-05
2670.0 3.3589e-05
2690.0 3.8401e-05
2710.0 4.3552e-05
2730.0 4.8779e-05
2750.0 5.4175e-05
2770.0 5.9377e-05
2790.0 6.4256e-05
2810.0 6.9052e-05
2830.0 7.3977e-05
2850.0 7.8796e-05
2870.0 8.3751e-05
2890.0 8.9041e-05
2910.0 9.4581e-05
2930.0 0.00010023
2950.0 0.00010627
2970.0 0.00011265
2990.0 0.00011916
3010.0 0.00021823
3030.0 0.0002304
3050.0 0.00024264
3070.0 0.00025403
3090.0 0.00026413
3110.0 0.00027079
3130.0 0.00027141
3150.0 0.00026303
3170.0 0.00023978
3190.0 0.00020072
3210.0 0.00014618
3230.0 8.4169e-05
3250.0 0.00014756
3270.0 6.3782e-05
3290.0 0.00021364
3310.0 4.2516e-05
3330.0 4.3375e-05
3350.0 6.6505e-05
3370.0 9.2844e-05
3390.0 0.00012078
3410.0 0.00014859
3430.0 0.00017765
3450.0 0.00020661
3470.0 0.00023315
3490.0 0.00025054
3510.0 0.00031188
3530.0 0.00042717
3550.0 0.00042822
3570.0 0.00036362
3590.0 0.00052107
3610.0 0.00033589
3630.0 0.00054151
3650.0 0.00061468
3670.0 0.00079017
3690.0 0.00075556
3710.0 0.00053919
3730.0 0.00072025
3750.0 0.00074895
3770.0 0.00077158
3790.0 0.00069802
3810.0 0.00061348
3830.0 0.00084822
3850.0 0.00091247
3870.0 0.0011332
3890.0 0.0010695
3910.0 0.00097101
3930.0 0.0010511
3950.0 0.001183
3970.0 0.0015428
3990.0 0.0012424
4010.0 0.00082093
4030.0 0.0011056
4050.0 0.0012093
4070.0 0.0013741
4090.0 0.001206
4110.0 0.00082473
4130.0 0.0010873
4150.0 0.00099944
4170.0 0.0010591
4190.0 0.0010539
4210.0 0.0013089
4230.0 0.00091551
4250.0 0.0010939
4270.0 0.0010927
4290.0 0.0011048
4310.0 0.0013457
4330.0 0.00138
4350.0 0.0010702
4370.0 0.00092672
4390.0 0.0011244
4410.0 0.0011454
4430.0 0.00088509
4450.0 0.00089051
4470.0 0.001032
4490.0 0.00077014
4510.0 0.00093741
4530.0 0.0010123
4550.0 0.0013534
4570.0 0.0019818
4590.0 0.0019247
4610.0 0.0012879
4630.0 0.0020475
4650.0 0.0029298
4670.0 0.0027102
4690.0 0.0016105
4710.0 0.0017401
4730.0 0.0022481
4750.0 0.0020095
4770.0 0.0015219
4790.0 0.0010524
4810.0 0.0015189
4830.0 0.001752
4850.0 0.001566
4870.0 0.00056784
4890.0 0.001681
4910.0 0.0023307
4930.0 0.0024994
4950.0 0.0024653
4970.0 0.0015566
4990.0 0.0017858
5010.0 0.0020751
5030.0 0.0022545
5050.0 0.0022221
5070.0 0.0016076
5090.0 0.0013196
5110.0 0.0012343
5130.0 0.0011009
5150.0 0.0012583
5170.0 0.0010969
5190.0 0.0013584
5210.0 0.0013632
5230.0 0.0015054
5250.0 0.0019266
5270.0 0.0016519
5290.0 0.0016373
5310.0 0.0024114
5330.0 0.0028187
5350.0 0.0024074
5370.0 0.002123
5390.0 0.0024259
5410.0 0.0030598
5430.0 0.0033992
5450.0 0.0036788
5470.0 0.0037431
5490.0 0.0037066
5510.0 0.0043661
5530.0 0.0045688
5550.0 0.0049317
5570.0 0.0052748
5590.0 0.0052777
5610.0 0.0050504
5630.0 0.0049219
5650.0 0.0050614
5670.0 0.0050567
5690.0 0.0043671
5710.0 0.0042273
5730.0 0.0043125
5750.0 0.0047417
5770.0 0.0041604
5790.0 0.0038518
5810.0 0.0039429
5830.0 0.0041794
5850.0 0.003862
5870.0 0.0039213
5890.0 0.0046953
5910.0 0.0045236
5930.0 0.0037589
5950.0 0.0033022
5970.0 0.0035606
5990.0 0.0033168
6010.0 0.0031426
6030.0 0.0032169
6050.0 0.0030179
6070.0 0.0022842
6090.0 0.0020546
6110.0 0.0026436
6130.0 0.0030454
6150.0 0.003205
6170.0 0.0031266
6190.0 0.0029452
6210.0 0.002886
6230.0 0.003335
6250.0 0.0030827
6270.0 0.0028193
6290.0 0.0025905
6310.0 0.0024504
6330.0 0.0023317
6350.0 0.0020439
6370.0 0.0020307
6390.0 0.0024066
6410.0 0.002989
6430.0 0.0034323
6450.0 0.0032368
6470.0 0.003176
6490.0 0.0039544
6510.0 0.0045241
6530.0 0.0042861
6550.0 0.0041257
6570.0 0.0041892
6590.0 0.0040587
6610.0 0.0044088
6630.0 0.0041514
6650.0 0.0036792
6670.0 0.0033163
6690.0 0.0032114
6710.0 0.0039216
6730.0 0.0036064
6750.0 0.003105
6770.0 0.0028003
6790.0 0.0029347
6810.0 0.0032457
6830.0 0.0031681
6850.0 0.0028838
6870.0 0.0029782
6890.0 0.0029242
6910.0 0.0027607
6930.0 0.0031627
6950.0 0.0029345
6970.0 0.0027524
6990.0 0.0027494
7010.0 0.0026316
7030.0 0.0024785
7050.0 0.0023907
7070.0 0.0025827
7090.0 0.0024473
7110.0 0.0021237
7130.0 0.00172
7150.0 0.0015613
7170.0 0.0020674
7190.0 0.0022529
7210.0 0.0021793
7230.0 0.0022681
7250.0 0.0021142
7270.0 0.002014
7290.0 0.0022259
7310.0 0.0024797
7330.0 0.0024336
7350.0 0.0022847
7370.0 0.0021845
7390.0 0.0022886
7410.0 0.0026674
7430.0 0.0029172
7450.0 0.0031064
7470.0 0.0030546
7490.0 0.0031366
7510.0 0.0030031
7530.0 0.0029899
7550.0 0.0029362
7570.0 0.0025751
7590.0 0.0025379
7610.0 0.0024543
7630.0 0.0022758
7650.0 0.0024858
7670.0 0.0027008
7690.0 0.0029187
7710.0 0.0032379
7730.0 0.0034337
7750.0 0.0035717
7770.0 0.0035556
7790.0 0.0038611
7810.0 0.0039667
7830.0 0.0036531
7850.0 0.0036619
7870.0 0.0034718
7890.0 0.0036074
7910.0 0.0034048
7930.0 0.0034134
7950.0 0.0030177
7970.0 0.0030807
7990.0 0.0029414
8010.0 0.002927
8030.0 0.0029019
8050.0 0.0030276
8070.0 0.0029077
8090.0 0.0029021
8110.0 0.0028161
8130.0 0.002802
8150.0 0.002671
8170.0 0.0025858
8190.0 0.0025425
8210.0 0.00255
8230.0 0.0022613
8250.0 0.0020618
8270.0 0.0018009
8290.0 0.0014902
8310.0 0.0012656
8330.0 0.001005
8350.0 0.00084244
8370.0 0.00086522
8390.0 0.00088274
8410.0 0.00093296
8430.0 0.0011311
8450.0 0.0012043
8470.0 0.0012665
8490.0 0.0014436
8510.0 0.001567
8530.0 0.0017974
8550.0 0.0021151
8570.0 0.0023474
8590.0 0.0025079
8610.0 0.002724
8630.0 0.0029788
8650.0 0.0030133
8670.0 0.0030308
8690.0 0.0031332
8710.0 0.0030875
8730.0 0.0030441
8750.0 0.0028695
8770.0 0.0028583
8790.0 0.0028061
8810.0 0.002579
8830.0 0.0025624
8850.0 0.0023954
8870.0 0.0022912
8890.0 0.0020897
8910.0 0.002225
8930.0 0.0020293
8950.0 0.0019847
8970.0 0.0019796
8990.0 0.0019059
9010.0 0.001932
9030.0 0.001855
9050.0 0.0018448
9070.0 0.0018425
9090.0 0.0018398
9110.0 0.0018378
9130.0 0.0018346
9150.0 0.0018307
9170.0 0.0018225
9190.0 0.0018075
9210.0 0.001828
9230.0 0.0018182
9250.0 0.0018112
9270.0 0.0018046
9290.0 0.0017982
9310.0 0.001792
9330.0 0.0017858
9350.0 0.0017795
9370.0 0.0017731
9390.0 0.0017665
9410.0 0.0017597
9430.0 0.0017528
9450.0 0.0017456
9470.0 0.0017383
9490.0 0.0017311
9510.0 0.0017237
9530.0 0.0017162
9550.0 0.0017085
9570.0 0.0017007
9590.0 0.0016929
9610.0 0.001685
9630.0 0.001677
9650.0 0.001669
9670.0 0.001661
9690.0 0.0016529
9710.0 0.0016447
9730.0 0.0016366
9750.0 0.0016285
9770.0 0.0016203
9790.0 0.0016122
9810.0 0.0016041
9830.0 0.001596
9850.0 0.001588
9870.0 0.0015799
9890.0 0.0015719
9910.0 0.001564
9930.0 0.0015561
9950.0 0.0015436
9970.0 0.0015372
9990.0 0.0015307
10010.0 0.001524
10030.0 0.0015171
10050.0 0.0015096
10070.0 0.0015007
10090.0 0.0014943
10110.0 0.0014876
10130.0 0.0014809
10150.0 0.0014743
10170.0 0.0014675
10190.0 0.0014606
10210.0 0.0014541
10230.0 0.0014477
10250.0 0.0014412
10270.0 0.0014348
10290.0 0.0014287
10310.0 0.0014226
10330.0 0.0014164
10350.0 0.0014106
10370.0 0.001405
10390.0 0.0013992
10410.0 0.0013937
10430.0 0.0013885
10450.0 0.0013832
10470.0 0.0013779
10490.0 0.0013729
10510.0 0.0013681
10530.0 0.0013631
10550.0 0.0013584
10570.0 0.001354
10590.0 0.0013495
10610.0 0.0013451
10630.0 0.001341
10650.0 0.001337
10670.0 0.0013328
10690.0 0.0013289
10710.0 0.0013253
10730.0 0.0013216
10750.0 0.0013178
10770.0 0.0013145
10790.0 0.0013112
10810.0 0.0013079
10830.0 0.0013047
10850.0 0.0013017
10870.0 0.0012983
10890.0 0.0012947
10910.0 0.0012906
10930.0 0.0012855
10950.0 0.0012784
10970.0 0.0012693
10990.0 0.0012578
11010.0 0.0012351
11030.0 0.0012177
11050.0 0.0011976
11070.0 0.0011746
11090.0 0.001148
11110.0 0.0011214
11130.0 0.0010948
11150.0 0.0010672
11170.0 0.0010399
11190.0 0.0010146
11210.0 0.00098958
11230.0 0.00096492
11250.0 0.00094228
11270.0 0.00092125
11290.0 0.00090067
11310.0 0.00088153
11330.0 0.0008649
11350.0 0.00084908
11370.0 0.00083415
11390.0 0.00082083
11410.0 0.00080861
11430.0 0.00079634
11450.0 0.00078485
11470.0 0.00077405
11490.0 0.00076303
11510.0 0.00075143
11530.0 0.00074012
11550.0 0.00072848
11570.0 0.0007157
11590.0 0.00070241
11610.0 0.00068901
11630.0 0.00067437
11650.0 0.00065865
11670.0 0.00064326
11690.0 0.00062753
11710.0 0.00061094
11730.0 0.00059454
11750.0 0.00057902
11770.0 0.0005631
11790.0 0.00054743
11810.0 0.00053295
11830.0 0.00051917
11850.0 0.00050535
11870.0 0.00049284
11890.0 0.00048161
11910.0 0.00047072
11930.0 0.00046043
11950.0 0.0004513
11970.0 0.00044265
11990.0 0.00043407
12010.0 0.00042625
12030.0 0.00041904
12050.0 0.00041188
12070.0 0.00040486
12090.0 0.00039871
12110.0 0.00039275
12130.0 0.00038693
12150.0 0.00038171
12170.0 0.0003772
12190.0 0.00037289
12210.0 0.0003694
12230.0 0.00036695
12250.0 0.0003654
12270.0 0.00036488
12290.0 0.00036567
12310.0 0.00036772
12330.0 0.00037112
12350.0 0.0003759
12370.0 0.00038187
12390.0 0.00038906
12410.0 0.00039769
12430.0 0.00040688
12450.0 0.00041665
12470.0 0.00042713
12490.0 0.00043784
12510.0 0.00044818
12530.0 0.00045857
12550.0 0.00046875
12570.0 0.00047814
12590.0 0.00048683
12610.0 0.00049501
12630.0 0.00050234
12650.0 0.00050862
12670.0 0.00051421
12690.0 0.00051901
12710.0 0.00052297
12730.0 0.0005262
12750.0 0.00052871
12770.0 0.0005305
12790.0 0.00053168
12810.0 0.0005322
12830.0 0.00053203
12850.0 0.00053139
12870.0 0.00053022
12890.0 0.00052833
12910.0 0.00052593
12930.0 0.00052317
12950.0 0.00051965
12970.0 0.00051543
12990.0 0.00051099
13010.0 0.00050604
13030.0 0.00050035
13050.0 0.00049431
13070.0 0.00048819
13090.0 0.00048139
13110.0 0.00047424
13130.0 0.00046725
13150.0 0.00046022
13170.0 0.00045287
13190.0 0.0004461
13210.0 0.00044001
13230.0 0.00043425
13250.0 0.00042918
13270.0 0.00042519
13290.0 0.000422
13310.0 0.00041962
13330.0 0.00041831
13350.0 0.00041788
13370.0 0.00041815
13390.0 0.00041902
13410.0 0.00042027
13430.0 0.00042165
13450.0 0.00042297
13470.0 0.00042396
13490.0 0.00042448
13510.0 0.00042429
13530.0 0.00042327
13550.0 0.0004215
13570.0 0.00041887
13590.0 0.00041531
13610.0 0.00041118
13630.0 0.00040663
13650.0 0.00040142
13670.0 0.00039598
13690.0 0.00039062
13710.0 0.00038517
13730.0 0.00037958
13750.0 0.00037453
13770.0 0.00036978
13790.0 0.00036515
13810.0 0.00036083
13830.0 0.00035695
13850.0 0.00035317
13870.0 0.0003495
13890.0 0.0003461
13910.0 0.00034283
13930.0 0.00033951
13950.0 0.00033627
13970.0 0.00033324
13990.0 0.00033018
14010.0 0.00032714
14030.0 0.00032431
14050.0 0.00032161
14070.0 0.00031896
14090.0 0.00031657
14110.0 0.00031446
14130.0 0.00031255
14150.0 0.00031089
14170.0 0.00030955
14190.0 0.00030847
14210.0 0.00030766
14230.0 0.00030715
14250.0 0.00030689
14270.0 0.00030692
14290.0 0.00030725
14310.0 0.00030778
14330.0 0.00030854
14350.0 0.00030956
14370.0 0.00031072
14390.0 0.00031193
14410.0 0.00031331
14430.0 0.00031473
14450.0 0.00031605
14470.0 0.0003173
14490.0 0.00031855
14510.0 0.00031958
14530.0 0.00032041
14550.0 0.00032116
14570.0 0.00032181
14590.0 0.00032233
14610.0 0.00032286
14630.0 0.00032351
14650.0 0.00032423
14670.0 0.00032513
14690.0 0.00032638
14710.0 0.00032805
14730.0 0.00032995
14750.0 0.00033238
14770.0 0.00033541
14790.0 0.00033885
14810.0 0.00034264
14830.0 0.00034728
14850.0 0.00035227
14870.0 0.00035734
14890.0 0.00036273
14910.0 0.00036832
14930.0 0.00037345
14950.0 0.00037797
14970.0 0.00038203
14990.0 0.00038505
15010.0 0.00038688
15030.0 0.00038772
15050.0 0.00038763
15070.0 0.00038664
15090.0 0.0003851
15110.0 0.00038316
15130.0 0.00038099
15150.0 0.00037869
15170.0 0.00037632
15190.0 0.0003739
15210.0 0.00037149
15230.0 0.00036908
15250.0 0.00036664
15270.0 0.00036421
15290.0 0.00036181
15310.0 0.00035939
15330.0 0.00035697
15350.0 0.00035457
15370.0 0.00035218
15390.0 0.00034976
15410.0 0.00034736
15430.0 0.00034499
15450.0 0.0003426
15470.0 0.00034021
15490.0 0.00033786
15510.0 0.00033551
15530.0 0.00033315
15550.0 0.0003308
15570.0 0.00032849
15590.0 0.00032615
15610.0 0.00032382
15630.0 0.00032153
15650.0 0.00031925
15670.0 0.00031695
15690.0 0.00031468
15710.0 0.00031244
15730.0 0.00031019
15750.0 0.00030795
15770.0 0.00030573
15790.0 0.00030353
15810.0 0.00030132
15830.0 0.00029913
15850.0 0.00029698
15870.0 0.00029482
15890.0 0.00029267
15910.0 0.00029056
15930.0 0.00028845
15950.0 0.00028634
15970.0 0.00028425
15990.0 0.0002822
16010.0 0.00028014
16030.0 0.00027808
16050.0 0.00027608
16070.0 0.00027407
16090.0 0.00027207
16110.0 0.0002701
16130.0 0.00026815
16150.0 0.00026619
16170.0 0.00026426
16190.0 0.00026236
16210.0 0.00026046
16230.0 0.00025857
16250.0 0.00025671
16270.0 0.00025487
16290.0 0.00025303
16310.0 0.00025121
16330.0 0.00024942
16350.0 0.00024764
16370.0 0.00024585
16390.0 0.00024411
16410.0 0.00024238
16430.0 0.00024066
16450.0 0.00023895
16470.0 0.00023728
16490.0 0.00023561
16510.0 0.00023395
16530.0 0.00023231
16550.0 0.0002307
16570.0 0.00022908
16590.0 0.00022749
16610.0 0.00022593
16630.0 0.00022437
16650.0 0.00022282
16670.0 0.0002213
16690.0 0.0002198
16710.0 0.00021829
16730.0 0.00021681
16750.0 0.00021535
16770.0 0.0002139
16790.0 0.00021246
16810.0 0.00021105
16830.0 0.00020965
16850.0 0.00020825
16870.0 0.00020688
16890.0 0.00020553
16910.0 0.00020418
16930.0 0.00020284
16950.0 0.00020154
16970.0 0.00020024
16990.0 0.00019894
17010.0 0.00019767
17030.0 0.00019643
17050.0 0.00019518
17070.0 0.00019394
17090.0 0.00019273
17110.0 0.00019153
17130.0 0.00019033
17150.0 0.00018915
17170.0 0.000188
17190.0 0.00018684
17210.0 0.0001857
17230.0 0.00018459
17250.0 0.00018348
17270.0 0.00018237
17290.0 0.00018128
17310.0 0.00018022
17330.0 0.00017915
17350.0 0.00017809
17370.0 0.00017707
17390.0 0.00017604
17410.0 0.00017502
17430.0 0.00017402
17450.0 0.00017304
17470.0 0.00017205
17490.0 0.00017108
17510.0 0.00017013
17530.0 0.00016919
17550.0 0.00016824
17570.0 0.00016732
17590.0 0.00016642
17610.0 0.00016551
17630.0 0.00016462
17650.0 0.00016374
17670.0 0.00016287
17690.0 0.00016199
17710.0 0.00016115
17730.0 0.00016032
17750.0 0.00015948
17770.0 0.00015866
17790.0 0.00015786
17810.0 0.00015705
17830.0 0.00015625
17850.0 0.00015547
17870.0 0.0001547
17890.0 0.00015392
17910.0 0.00015316
17930.0 0.00015242
17950.0 0.00015168
17970.0 0.00015095
17990.0 0.00015023
18010.0 0.00014952
18030.0 0.0001488
18050.0 0.0001481
18070.0 0.00014742
18090.0 0.00014674
18110.0 0.00014605
18130.0 0.0001454
18150.0 0.00014474
18170.0 0.00014408
18190.0 0.00014344
18210.0 0.00014282
18230.0 0.00014218
18250.0 0.00014155
18270.0 0.00014094
18290.0 0.00014034
18310.0 0.00013973
18330.0 0.00013914
18350.0 0.00013856
18370.0 0.00013797
18390.0 0.00013739
18410.0 0.00013683
18430.0 0.00013627
18450.0 0.0001357
18470.0 0.00013516
18490.0 0.00013462
18510.0 0.00013408
18530.0 0.00013355
18550.0 0.00013303
18570.0 0.00013251
18590.0 0.00013199
18610.0 0.00013148
18630.0 0.00013099
18650.0 0.00013048
18670.0 0.00012999
18690.0 0.00012951
18710.0 0.00012903
18730.0 0.00012855
18750.0 0.00012808
18770.0 0.00012762
18790.0 0.00012715
18810.0 0.00012669
18830.0 0.00012625
18850.0 0.0001258
18870.0 0.00012535
18890.0 0.00012492
18910.0 0.00012449
18930.0 0.00012406
18950.0 0.00012363
18970.0 0.00012322
18990.0 0.0001228
19010.0 0.00012237
19030.0 0.00012197
19050.0 0.00012158
19070.0 0.00012117
19090.0 0.00012077
19110.0 0.00012039
19130.0 0.00012
19150.0 0.00011961
19170.0 0.00011923
19190.0 0.00011886
19210.0 0.00011848
19230.0 0.0001181
19250.0 0.00011775
19270.0 0.00011738
19290.0 0.00011702
19310.0 0.00011667
19330.0 0.00011632
19350.0 0.00011595
19370.0 0.00011561
19390.0 0.00011527
19410.0 0.00011492
19430.0 0.00011458
19450.0 0.00011425
19470.0 0.00011392
19490.0 0.00011358
19510.0 0.00011326
19530.0 0.00011294
19550.0 0.00011261
19570.0 0.00011228
19590.0 0.00011197
19610.0 0.00011166
19630.0 0.00011134
19650.0 0.00011104
19670.0 0.00011074
19690.0 0.00011042
19710.0 0.00011012
19730.0 0.00010982
19750.0 0.00010952
19770.0 0.00010922
19790.0 0.00010892
19810.0 0.00010864
19830.0 0.00010834
19850.0 0.00010804
19870.0 0.00010775
19890.0 0.00010743
19910.0 0.00010706
19930.0 0.00010665
19950.0 0.00010615
19970.0 0.00010551
19990.0 0.0001047
20010.0 0.00010375
20030.0 0.00010258
20050.0 0.0001012
20070.0 9.9689e-05
20090.0 9.8071e-05
20110.0 9.6245e-05
20130.0 9.4412e-05
20150.0 9.2613e-05
20170.0 9.0759e-05
20190.0 8.8892e-05
20210.0 8.7143e-05
20230.0 8.5446e-05
20250.0 8.3752e-05
20270.0 8.2189e-05
20290.0 8.0773e-05
20310.0 7.9436e-05
20330.0 7.82e-05
20350.0 7.7198e-05
20370.0 7.6336e-05
20390.0 7.5615e-05
20410.0 7.5085e-05
20430.0 7.474e-05
20450.0 7.4551e-05
20470.0 7.4546e-05
20490.0 7.4711e-05
20510.0 7.5032e-05
20530.0 7.5521e-05
20550.0 7.6141e-05
20570.0 7.6856e-05
20590.0 7.7701e-05
20610.0 7.8637e-05
20630.0 7.9605e-05
20650.0 8.0625e-05
20670.0 8.1718e-05
20690.0 8.2764e-05
20710.0 8.3773e-05
20730.0 8.4771e-05
20750.0 8.5711e-05
20770.0 8.6538e-05
20790.0 8.7297e-05
20810.0 8.7976e-05
20830.0 8.8532e-05
20850.0 8.8977e-05
20870.0 8.9329e-05
20890.0 8.9568e-05
20910.0 8.9698e-05
20930.0 8.9737e-05
20950.0 8.9682e-05
20970.0 8.9549e-05
20990.0 8.9349e-05
21010.0 8.9066e-05
21030.0 8.8726e-05
21050.0 8.8347e-05
21070.0 8.7914e-05
21090.0 8.7422e-05
21110.0 8.6925e-05
21130.0 8.6411e-05
21150.0 8.586e-05
21170.0 8.5307e-05
21190.0 8.4777e-05
21210.0 8.4235e-05
21230.0 8.37e-05
21250.0 8.3219e-05
21270.0 8.2776e-05
21290.0 8.2364e-05
21310.0 8.2011e-05
21330.0 8.1735e-05
21350.0 8.1512e-05
21370.0 8.1358e-05
21390.0 8.1285e-05
21410.0 8.1284e-05
21430.0 8.1361e-05
21450.0 8.1515e-05
21470.0 8.1735e-05
21490.0 8.2029e-05
21510.0 8.2393e-05
21530.0 8.2801e-05
21550.0 8.3263e-05
21570.0 8.3793e-05
21590.0 8.4355e-05
21610.0 8.494e-05
21630.0 8.5576e-05
21650.0 8.6261e-05
21670.0 8.6928e-05
21690.0 8.7628e-05
21710.0 8.8367e-05
21730.0 8.9112e-05
21750.0 8.985e-05
21770.0 9.0648e-05
21790.0 9.1459e-05
21810.0 9.2258e-05
21830.0 9.3079e-05
21850.0 9.3944e-05
21870.0 9.4799e-05
21890.0 9.564e-05
21910.0 9.6523e-05
21930.0 9.7412e-05
21950.0 9.8272e-05
21970.0 9.9139e-05
21990.0 0.00010003
22010.0 0.00010087
22030.0 0.00010167
22050.0 0.00010246
22070.0 0.0001032
22090.0 0.00010386
22110.0 0.00010446
22130.0 0.00010501
22150.0 0.00010545
22170.0 0.00010579
22190.0 0.00010604
22210.0 0.00010616
22230.0 0.00010617
22250.0 0.00010605
22270.0 0.0001058
22290.0 0.00010543
22310.0 0.00010494
22330.0 0.00010429
22350.0 0.00010352
22370.0 0.00010265
22390.0 0.00010166
22410.0 0.00010052
22430.0 9.9344e-05
22450.0 9.8095e-05
22470.0 9.6726e-05
22490.0 9.5314e-05
22510.0 9.3909e-05
22530.0 9.241e-05
22550.0 9.0864e-05
22570.0 8.938e-05
22590.0 8.7904e-05
22610.0 8.6394e-05
22630.0 8.4935e-05
22650.0 8.3576e-05
22670.0 8.2208e-05
22690.0 8.0881e-05
22710.0 7.9658e-05
22730.0 7.8497e-05
22750.0 7.7336e-05
22770.0 7.6288e-05
22790.0 7.5335e-05
22810.0 7.4415e-05
22830.0 7.3552e-05
22850.0 7.2787e-05
22870.0 7.207e-05
22890.0 7.1384e-05
22910.0 7.0774e-05
22930.0 7.0229e-05
22950.0 6.9719e-05
22970.0 6.925e-05
22990.0 6.8863e-05
