#lamb flux
1010.0 7.76e-07
1030.0 8.4418e-07
1050.0 9.2464e-07
1070.0 1.0152e-06
1090.0 1.1175e-06
1110.0 1.2226e-06
1130.0 1.3284e-06
1150.0 1.4393e-06
1170.0 1.5537e-06
1190.0 1.662e-06
1210.0 1.7716e-06
1230.0 1.8845e-06
1250.0 1.9949e-06
1270.0 2.1017e-06
1290.0 2.2141e-06
1310.0 2.3258e-06
1330.0 2.4324e-06
1350.0 2.5397e-06
1370.0 2.6501e-06
1390.0 2.7574e-06
1410.0 2.8613e-06
1430.0 2.9699e-06
1450.0 3.0784e-06
1470.0 3.1834e-06
1490.0 3.2899e-06
1510.0 3.4027e-06
1530.0 3.51e-06
1550.0 3.6164e-06
1570.0 3.727e-06
1590.0 3.8384e-06
1610.0 3.9455e-06
1630.0 4.0568e-06
1650.0 4.1716e-06
1670.0 4.2835e-06
1690.0 4.3945e-06
1710.0 4.5102e-06
1730.0 4.627e-06
1750.0 4.7373e-06
1770.0 4.8509e-06
1790.0 4.9666e-06
1810.0 5.0785e-06
1830.0 5.1879e-06
1850.0 5.303e-06
1870.0 5.4141e-06
1890.0 5.5201e-06
1910.0 5.6266e-06
1930.0 5.7338e-06
1950.0 5.8337e-06
1970.0 5.93e-06
1990.0 6.0276e-06
2010.0 6.1207e-06
2030.0 6.2072e-06
2050.0 6.2941e-06
2070.0 6.3809e-06
2090.0 6.4587e-06
2110.0 6.5337e-06
2130.0 6.6093e-06
2150.0 6.6807e-06
2170.0 6.7457e-06
2190.0 6.8126e-06
2210.0 6.8787e-06
2230.0 6.9393e-06
2250.0 6.9985e-06
2270.0 7.0613e-06
2290.0 7.1201e-06
2310.0 7.1745e-06
2330.0 7.2317e-06
2350.0 7.2897e-06
2370.0 7.3438e-06
2390.0 7.3996e-06
2410.0 7.4612e-06
2430.0 7.5218e-06
2450.0 7.5829e-06
2470.0 7.6507e-06
2490.0 7.7264e-06
2510.0 7.8069e-06
2530.0 7.9133e-06
2550.0 8.0765e-06
2570.0 8.3292e-06
2590.0 8.7143e-06
2610.0 9.3427e-06
2630.0 1.025e-05
2650.0 1.1399e-05
2670.0 1.2811e-05
2690.0 1.4439e-05
2710.0 1.6052e-05
2730.0 1.7514e-05
2750.0 1.8791e-05
2770.0 1.9697e-05
2790.0 2.018e-05
2810.0 2.0285e-05
2830.0 2.0019e-05
2850.0 1.9489e-05
2870.0 1.8783e-05
2890.0 1.7929e-05
2910.0 1.7005e-05
2930.0 1.6091e-05
2950.0 1.5131e-05
2970.0 1.4147e-05
2990.0 1.3202e-05
3010.0 1.7857e-05
3030.0 1.6462e-05
3050.0 1.5083e-05
3070.0 1.3816e-05
3090.0 1.2548e-05
3110.0 1.1337e-05
3130.0 1.0293e-05
3150.0 9.5893e-06
3170.0 9.0274e-06
3190.0 1.49e-05
3210.0 4.1937e-05
3230.0 8.5734e-05
3250.0 0.00010879
3270.0 9.6063e-05
3290.0 7.3735e-05
3310.0 6.1021e-05
3330.0 5.7174e-05
3350.0 5.8708e-05
3370.0 6.1823e-05
3390.0 6.5136e-05
3410.0 6.8482e-05
3430.0 7.1613e-05
3450.0 7.5008e-05
3470.0 7.87e-05
3490.0 8.1215e-05
3510.0 7.8629e-05
3530.0 8.0314e-05
3550.0 0.00010073
3570.0 0.00012649
3590.0 0.00013969
3610.0 0.00014405
3630.0 0.00014762
3650.0 0.00014742
3670.0 0.00015627
3690.0 0.000187
3710.0 0.00022159
3730.0 0.00024421
3750.0 0.00026028
3770.0 0.00026346
3790.0 0.00025327
3810.0 0.00023412
3830.0 0.00020469
3850.0 0.00017352
3870.0 0.00015744
3890.0 0.00017611
3910.0 0.00022277
3930.0 0.00026943
3950.0 0.00029716
3970.0 0.00030889
3990.0 0.00032178
4010.0 0.00032922
4030.0 0.00029703
4050.0 0.00023441
4070.0 0.00020229
4090.0 0.00021322
4110.0 0.00023474
4130.0 0.00024682
4150.0 0.00024814
4170.0 0.00024248
4190.0 0.00023836
4210.0 0.0002444
4230.0 0.00025865
4250.0 0.00027025
4270.0 0.00027455
4290.0 0.00027077
4310.0 0.00027252
4330.0 0.00028906
4350.0 0.00030863
4370.0 0.0003072
4390.0 0.00028491
4410.0 0.00025147
4430.0 0.00021053
4450.0 0.00018162
4470.0 0.00018068
4490.0 0.00019736
4510.0 0.00021868
4530.0 0.00024175
4550.0 0.00027786
4570.0 0.00034723
4590.0 0.00044614
4610.0 0.00052697
4630.0 0.00056772
4650.0 0.00060125
4670.0 0.00063382
4690.0 0.00061993
4710.0 0.00054062
4730.0 0.00043575
4750.0 0.00035125
4770.0 0.00030026
4790.0 0.00028148
4810.0 0.00028141
4830.0 0.0003011
4850.0 0.00034044
4870.0 0.00037566
4890.0 0.00038715
4910.0 0.00039625
4930.0 0.00043345
4950.0 0.00048362
4970.0 0.00050951
4990.0 0.00049542
5010.0 0.00044373
5030.0 0.00037162
5050.0 0.0003106
5070.0 0.00027328
5090.0 0.00025797
5110.0 0.00025797
5130.0 0.00026046
5150.0 0.00025814
5170.0 0.00025245
5190.0 0.00025523
5210.0 0.00027463
5230.0 0.00031012
5250.0 0.00036324
5270.0 0.00041903
5290.0 0.0004578
5310.0 0.00048942
5330.0 0.00052926
5350.0 0.0005596
5370.0 0.00055541
5390.0 0.00052765
5410.0 0.00050766
5430.0 0.00052596
5450.0 0.00059075
5470.0 0.00067082
5490.0 0.00072765
5510.0 0.00074739
5530.0 0.00074072
5550.0 0.00071954
5570.0 0.00069291
5590.0 0.00066793
5610.0 0.00065036
5630.0 0.00064407
5650.0 0.00063332
5670.0 0.00059633
5690.0 0.00054186
5710.0 0.00049287
5730.0 0.0004581
5750.0 0.00044696
5770.0 0.00045836
5790.0 0.00047177
5810.0 0.00047727
5830.0 0.00047865
5850.0 0.00047097
5870.0 0.00045765
5890.0 0.00045544
5910.0 0.00046311
5930.0 0.00045774
5950.0 0.00042841
5970.0 0.00038019
5990.0 0.00032493
6010.0 0.00028381
6030.0 0.00027183
6050.0 0.00028663
6070.0 0.00030042
6090.0 0.00029034
6110.0 0.00027392
6130.0 0.00027949
6150.0 0.00030308
6170.0 0.00032474
6190.0 0.00033714
6210.0 0.00034098
6230.0 0.00033168
6250.0 0.00030221
6270.0 0.00026011
6290.0 0.00022548
6310.0 0.00021321
6330.0 0.0002197
6350.0 0.00023097
6370.0 0.00024548
6390.0 0.00027651
6410.0 0.00032316
6430.0 0.00036196
6450.0 0.0003813
6470.0 0.00039201
6490.0 0.00039986
6510.0 0.00040309
6530.0 0.00040525
6550.0 0.00041071
6570.0 0.00041754
6590.0 0.00042219
6610.0 0.00041715
6630.0 0.00039844
6650.0 0.00037013
6670.0 0.00034315
6690.0 0.00032576
6710.0 0.0003126
6730.0 0.00029868
6750.0 0.000292
6770.0 0.0002987
6790.0 0.0003083
6810.0 0.00031126
6830.0 0.00030632
6850.0 0.00029433
6870.0 0.00028212
6890.0 0.00027526
6910.0 0.00027602
6930.0 0.0002807
6950.0 0.00028441
6970.0 0.00028765
6990.0 0.00028674
7010.0 0.00027766
7030.0 0.00025881
7050.0 0.00023426
7070.0 0.00021707
7090.0 0.0002148
7110.0 0.00021831
7130.0 0.00021082
7150.0 0.00019579
7170.0 0.00019387
7190.0 0.00021118
7210.0 0.00023545
7230.0 0.00025513
7250.0 0.00026316
7270.0 0.00025746
7290.0 0.0002442
7310.0 0.00023407
7330.0 0.00023444
7350.0 0.0002401
7370.0 0.00024468
7390.0 0.0002552
7410.0 0.00027629
7430.0 0.00030043
7450.0 0.00031917
7470.0 0.00032461
7490.0 0.00030906
7510.0 0.00028669
7530.0 0.00027392
7550.0 0.00025933
7570.0 0.00024404
7590.0 0.00023625
7610.0 0.00023599
7630.0 0.0002437
7650.0 0.0002601
7670.0 0.0002811
7690.0 0.00030008
7710.0 0.00031354
7730.0 0.00032471
7750.0 0.00033376
7770.0 0.0003375
7790.0 0.00034182
7810.0 0.00034154
7830.0 0.00033029
7850.0 0.00031794
7870.0 0.00031072
7890.0 0.00031008
7910.0 0.00030993
7930.0 0.00030231
7950.0 0.00029179
7970.0 0.00028086
7990.0 0.0002714
8010.0 0.00025823
8030.0 0.00025827
8050.0 0.00025745
8070.0 0.00025363
8090.0 0.00025078
8110.0 0.00024654
8130.0 0.00024636
8150.0 0.00024416
8170.0 0.00023952
8190.0 0.00023247
8210.0 0.00022451
8230.0 0.00021701
8250.0 0.00021416
8270.0 0.00020153
8290.0 0.00017475
8310.0 0.00014498
8330.0 0.00012469
8350.0 0.00011948
8370.0 0.00013221
8390.0 0.00015079
8410.0 0.00016072
8430.0 0.00016658
8450.0 0.00017778
8470.0 0.00019165
8490.0 0.00021056
8510.0 0.0002325
8530.0 0.00025534
8550.0 0.00027338
8570.0 0.00028662
8590.0 0.00029643
8610.0 0.00030187
8630.0 0.00030058
8650.0 0.00029516
8670.0 0.00029527
8690.0 0.00031005
8710.0 0.0003302
8730.0 0.00033965
8750.0 0.00033688
8770.0 0.00033999
8790.0 0.00033977
8810.0 0.00032457
8830.0 0.00030092
8850.0 0.00027138
8870.0 0.00024889
8890.0 0.00024185
8910.0 0.00023747
8930.0 0.00022216
8950.0 0.00020547
8970.0 0.00019856
8990.0 0.00019899
9010.0 0.00019542
9030.0 0.00019195
9050.0 0.00019017
9070.0 0.00018923
9090.0 0.0001884
9110.0 0.00018759
9130.0 0.00018679
9150.0 0.00018601
9170.0 0.0001852
9190.0 0.00018453
9210.0 0.00018413
9230.0 0.00018321
9250.0 0.00018237
9270.0 0.00018159
9290.0 0.00018085
9310.0 0.00018012
9330.0 0.00017941
9350.0 0.00017873
9370.0 0.00017806
9390.0 0.00017739
9410.0 0.00017673
9430.0 0.00017605
9450.0 0.00017513
9470.0 0.0001743
9490.0 0.00017393
9510.0 0.00017343
9530.0 0.00017292
9550.0 0.00017236
9570.0 0.00017179
9590.0 0.00017123
9610.0 0.00017066
9630.0 0.00017009
9650.0 0.00016952
9670.0 0.00016898
9690.0 0.00016842
9710.0 0.00016787
9730.0 0.00016733
9750.0 0.00016679
9770.0 0.00016624
9790.0 0.00016571
9810.0 0.00016518
9830.0 0.00016465
9850.0 0.00016411
9870.0 0.00016359
9890.0 0.00016307
9910.0 0.00016254
9930.0 0.000162
9950.0 0.00016089
9970.0 0.00016053
9990.0 0.00016013
10010.0 0.00015972
10030.0 0.00015926
10050.0 0.00015875
10070.0 0.00015824
10090.0 0.00015774
10110.0 0.00015714
10130.0 0.0001564
10150.0 0.00015588
10170.0 0.00015538
10190.0 0.0001548
10210.0 0.00015425
10230.0 0.00015371
10250.0 0.00015309
10270.0 0.00015248
10290.0 0.00015189
10310.0 0.00015126
10330.0 0.00015057
10350.0 0.00014993
10370.0 0.00014928
10390.0 0.00014858
10410.0 0.00014787
10430.0 0.00014721
10450.0 0.00014649
10470.0 0.00014573
10490.0 0.000145
10510.0 0.00014427
10530.0 0.00014344
10550.0 0.00014263
10570.0 0.00014186
10590.0 0.00014103
10610.0 0.00014016
10630.0 0.00013933
10650.0 0.00013847
10670.0 0.00013754
10690.0 0.00013662
10710.0 0.00013572
10730.0 0.00013476
10750.0 0.00013373
10770.0 0.00013278
10790.0 0.0001318
10810.0 0.00013074
10830.0 0.0001297
10850.0 0.00012868
10870.0 0.00012756
10890.0 0.00012641
10910.0 0.00012531
10930.0 0.00012416
10950.0 0.00012294
10970.0 0.00012173
10990.0 0.00012055
11010.0 0.00012912
11030.0 0.00012781
11050.0 0.00012655
11070.0 0.00012527
11090.0 0.0001239
11110.0 0.00012262
11130.0 0.00012137
11150.0 0.00012008
11170.0 0.00011879
11190.0 0.00011757
11210.0 0.00011633
11230.0 0.00011507
11250.0 0.00011386
11270.0 0.0001127
11290.0 0.0001115
11310.0 0.00011033
11330.0 0.00010925
11350.0 0.00010815
11370.0 0.00010704
11390.0 0.00010596
11410.0 0.00010489
11430.0 0.00010373
11450.0 0.00010256
11470.0 0.00010137
11490.0 0.00010009
11510.0 9.8701e-05
11530.0 9.7294e-05
11550.0 9.5823e-05
11570.0 9.4219e-05
11590.0 9.256e-05
11610.0 9.0893e-05
11630.0 8.9116e-05
11650.0 8.7255e-05
11670.0 8.5447e-05
11690.0 8.3625e-05
11710.0 8.1737e-05
11730.0 7.9872e-05
11750.0 7.8085e-05
11770.0 7.6247e-05
11790.0 7.4404e-05
11810.0 7.2635e-05
11830.0 7.0889e-05
11850.0 6.908e-05
11870.0 6.7344e-05
11890.0 6.5685e-05
11910.0 6.4007e-05
11930.0 6.2345e-05
11950.0 6.0779e-05
11970.0 5.9243e-05
11990.0 5.7702e-05
12010.0 5.6255e-05
12030.0 5.4896e-05
12050.0 5.357e-05
12070.0 5.2298e-05
12090.0 5.1171e-05
12110.0 5.0112e-05
12130.0 4.9122e-05
12150.0 4.8247e-05
12170.0 4.7487e-05
12190.0 4.6801e-05
12210.0 4.6235e-05
12230.0 4.5792e-05
12250.0 4.5454e-05
12270.0 4.5229e-05
12290.0 4.5114e-05
12310.0 4.5091e-05
12330.0 4.5173e-05
12350.0 4.5342e-05
12370.0 4.557e-05
12390.0 4.5865e-05
12410.0 4.6244e-05
12430.0 4.6626e-05
12450.0 4.7025e-05
12470.0 4.7459e-05
12490.0 4.7893e-05
12510.0 4.8288e-05
12530.0 4.8684e-05
12550.0 4.9066e-05
12570.0 4.9387e-05
12590.0 4.9654e-05
12610.0 4.9885e-05
12630.0 5.0043e-05
12650.0 5.0105e-05
12670.0 5.0097e-05
12690.0 5.0004e-05
12710.0 4.9813e-05
12730.0 4.9534e-05
12750.0 4.916e-05
12770.0 4.8695e-05
12790.0 4.8155e-05
12810.0 4.7535e-05
12830.0 4.6838e-05
12850.0 4.6106e-05
12870.0 4.5338e-05
12890.0 4.4522e-05
12910.0 4.3696e-05
12930.0 4.2883e-05
12950.0 4.2051e-05
12970.0 4.1218e-05
12990.0 4.043e-05
13010.0 3.9662e-05
13030.0 3.8901e-05
13050.0 3.8172e-05
13070.0 3.7487e-05
13090.0 3.6806e-05
13110.0 3.6146e-05
13130.0 3.5525e-05
13150.0 3.4924e-05
13170.0 3.4325e-05
13190.0 3.3762e-05
13210.0 3.323e-05
13230.0 3.2707e-05
13250.0 3.2202e-05
13270.0 3.173e-05
13290.0 3.1273e-05
13310.0 3.0825e-05
13330.0 3.0405e-05
13350.0 3.0008e-05
13370.0 2.9622e-05
13390.0 2.925e-05
13410.0 2.8909e-05
13430.0 2.858e-05
13450.0 2.8262e-05
13470.0 2.7963e-05
13490.0 2.768e-05
13510.0 2.7399e-05
13530.0 2.7129e-05
13550.0 2.6871e-05
13570.0 2.6616e-05
13590.0 2.636e-05
13610.0 2.611e-05
13630.0 2.5864e-05
13650.0 2.5612e-05
13670.0 2.536e-05
13690.0 2.5114e-05
13710.0 2.4865e-05
13730.0 2.461e-05
13750.0 2.4366e-05
13770.0 2.4127e-05
13790.0 2.3888e-05
13810.0 2.3654e-05
13830.0 2.3433e-05
13850.0 2.3214e-05
13870.0 2.3e-05
13890.0 2.2798e-05
13910.0 2.2605e-05
13930.0 2.2413e-05
13950.0 2.2228e-05
13970.0 2.2055e-05
13990.0 2.1881e-05
14010.0 2.1707e-05
14030.0 2.1538e-05
14050.0 2.1369e-05
14070.0 2.1191e-05
14090.0 2.1013e-05
14110.0 2.0836e-05
14130.0 2.0652e-05
14150.0 2.0462e-05
14170.0 2.0278e-05
14190.0 2.0095e-05
14210.0 1.9908e-05
14230.0 1.9728e-05
14250.0 1.9561e-05
14270.0 1.9397e-05
14290.0 1.9243e-05
14310.0 1.9109e-05
14330.0 1.8989e-05
14350.0 1.8881e-05
14370.0 1.879e-05
14390.0 1.8717e-05
14410.0 1.8654e-05
14430.0 1.8603e-05
14450.0 1.8564e-05
14470.0 1.8533e-05
14490.0 1.8506e-05
14510.0 1.8485e-05
14530.0 1.8468e-05
14550.0 1.8453e-05
14570.0 1.8441e-05
14590.0 1.8435e-05
14610.0 1.8434e-05
14630.0 1.844e-05
14650.0 1.8459e-05
14670.0 1.8494e-05
14690.0 1.8549e-05
14710.0 1.863e-05
14730.0 1.8736e-05
14750.0 1.8876e-05
14770.0 1.9058e-05
14790.0 1.9278e-05
14810.0 1.9536e-05
14830.0 1.9859e-05
14850.0 2.023e-05
14870.0 2.0636e-05
14890.0 2.1092e-05
14910.0 2.1594e-05
14930.0 2.2099e-05
14950.0 2.2595e-05
14970.0 2.3086e-05
14990.0 2.3528e-05
15010.0 2.3901e-05
15030.0 2.4214e-05
15050.0 2.4468e-05
15070.0 2.4657e-05
15090.0 2.4806e-05
15110.0 2.493e-05
15130.0 2.5035e-05
15150.0 2.5132e-05
15170.0 2.5226e-05
15190.0 2.532e-05
15210.0 2.5414e-05
15230.0 2.551e-05
15250.0 2.5607e-05
15270.0 2.5707e-05
15290.0 2.5808e-05
15310.0 2.5912e-05
15330.0 2.6017e-05
15350.0 2.6124e-05
15370.0 2.6233e-05
15390.0 2.6344e-05
15410.0 2.6457e-05
15430.0 2.6571e-05
15450.0 2.6687e-05
15470.0 2.6805e-05
15490.0 2.6924e-05
15510.0 2.7046e-05
15530.0 2.7168e-05
15550.0 2.7293e-05
15570.0 2.7419e-05
15590.0 2.7546e-05
15610.0 2.7675e-05
15630.0 2.7805e-05
15650.0 2.7937e-05
15670.0 2.807e-05
15690.0 2.8205e-05
15710.0 2.8341e-05
15730.0 2.8478e-05
15750.0 2.8616e-05
15770.0 2.8756e-05
15790.0 2.8897e-05
15810.0 2.9038e-05
15830.0 2.9181e-05
15850.0 2.9325e-05
15870.0 2.947e-05
15890.0 2.9616e-05
15910.0 2.9763e-05
15930.0 2.991e-05
15950.0 3.0059e-05
15970.0 3.0208e-05
15990.0 3.0358e-05
16010.0 3.0508e-05
16030.0 3.0659e-05
16050.0 3.0811e-05
16070.0 3.0964e-05
16090.0 3.1116e-05
16110.0 3.127e-05
16130.0 3.1423e-05
16150.0 3.1577e-05
16170.0 3.1731e-05
16190.0 3.1886e-05
16210.0 3.204e-05
16230.0 3.2195e-05
16250.0 3.2349e-05
16270.0 3.2504e-05
16290.0 3.2659e-05
16310.0 3.2813e-05
16330.0 3.2967e-05
16350.0 3.3121e-05
16370.0 3.3275e-05
16390.0 3.3428e-05
16410.0 3.3581e-05
16430.0 3.3734e-05
16450.0 3.3885e-05
16470.0 3.4037e-05
16490.0 3.4187e-05
16510.0 3.4337e-05
16530.0 3.4487e-05
16550.0 3.4635e-05
16570.0 3.4782e-05
16590.0 3.4929e-05
16610.0 3.5074e-05
16630.0 3.5219e-05
16650.0 3.5362e-05
16670.0 3.5504e-05
16690.0 3.5645e-05
16710.0 3.5784e-05
16730.0 3.5922e-05
16750.0 3.6059e-05
16770.0 3.6194e-05
16790.0 3.6327e-05
16810.0 3.6459e-05
16830.0 3.6589e-05
16850.0 3.6718e-05
16870.0 3.6844e-05
16890.0 3.6969e-05
16910.0 3.7092e-05
16930.0 3.7213e-05
16950.0 3.7332e-05
16970.0 3.7449e-05
16990.0 3.7564e-05
17010.0 3.7676e-05
17030.0 3.7787e-05
17050.0 3.7895e-05
17070.0 3.8e-05
17090.0 3.8104e-05
17110.0 3.8205e-05
17130.0 3.8303e-05
17150.0 3.8399e-05
17170.0 3.8492e-05
17190.0 3.8583e-05
17210.0 3.8671e-05
17230.0 3.8756e-05
17250.0 3.8839e-05
17270.0 3.8919e-05
17290.0 3.8996e-05
17310.0 3.907e-05
17330.0 3.9141e-05
17350.0 3.9209e-05
17370.0 3.9275e-05
17390.0 3.9337e-05
17410.0 3.9396e-05
17430.0 3.9453e-05
17450.0 3.9506e-05
17470.0 3.9556e-05
17490.0 3.9603e-05
17510.0 3.9646e-05
17530.0 3.9687e-05
17550.0 3.9724e-05
17570.0 3.9758e-05
17590.0 3.9789e-05
17610.0 3.9817e-05
17630.0 3.9841e-05
17650.0 3.9862e-05
17670.0 3.988e-05
17690.0 3.9894e-05
17710.0 3.9906e-05
17730.0 3.9914e-05
17750.0 3.9918e-05
17770.0 3.9919e-05
17790.0 3.9917e-05
17810.0 3.9912e-05
17830.0 3.9903e-05
17850.0 3.9891e-05
17870.0 3.9875e-05
17890.0 3.9856e-05
17910.0 3.9834e-05
17930.0 3.9809e-05
17950.0 3.978e-05
17970.0 3.9748e-05
17990.0 3.9713e-05
18010.0 3.9674e-05
18030.0 3.9632e-05
18050.0 3.9587e-05
18070.0 3.9539e-05
18090.0 3.9487e-05
18110.0 3.9433e-05
18130.0 3.9375e-05
18150.0 3.9314e-05
18170.0 3.925e-05
18190.0 3.9183e-05
18210.0 3.9113e-05
18230.0 3.904e-05
18250.0 3.8964e-05
18270.0 3.8885e-05
18290.0 3.8803e-05
18310.0 3.8718e-05
18330.0 3.863e-05
18350.0 3.854e-05
18370.0 3.8447e-05
18390.0 3.8351e-05
18410.0 3.8252e-05
18430.0 3.815e-05
18450.0 3.8046e-05
18470.0 3.794e-05
18490.0 3.783e-05
18510.0 3.7719e-05
18530.0 3.7604e-05
18550.0 3.7488e-05
18570.0 3.7369e-05
18590.0 3.7247e-05
18610.0 3.7124e-05
18630.0 3.6998e-05
18650.0 3.687e-05
18670.0 3.6739e-05
18690.0 3.6607e-05
18710.0 3.6473e-05
18730.0 3.6336e-05
18750.0 3.6198e-05
18770.0 3.6058e-05
18790.0 3.5915e-05
18810.0 3.5771e-05
18830.0 3.5625e-05
18850.0 3.5478e-05
18870.0 3.5328e-05
18890.0 3.5178e-05
18910.0 3.5025e-05
18930.0 3.4871e-05
18950.0 3.4716e-05
18970.0 3.4559e-05
18990.0 3.4401e-05
19010.0 3.4241e-05
19030.0 3.408e-05
19050.0 3.3918e-05
19070.0 3.3755e-05
19090.0 3.359e-05
19110.0 3.3425e-05
19130.0 3.3258e-05
19150.0 3.309e-05
19170.0 3.2922e-05
19190.0 3.2752e-05
19210.0 3.2582e-05
19230.0 3.241e-05
19250.0 3.2239e-05
19270.0 3.2066e-05
19290.0 3.1893e-05
19310.0 3.1719e-05
19330.0 3.1544e-05
19350.0 3.1369e-05
19370.0 3.1193e-05
19390.0 3.1017e-05
19410.0 3.0841e-05
19430.0 3.0664e-05
19450.0 3.0487e-05
19470.0 3.0309e-05
19490.0 3.0131e-05
19510.0 2.9953e-05
19530.0 2.9775e-05
19550.0 2.9597e-05
19570.0 2.9418e-05
19590.0 2.924e-05
19610.0 2.9062e-05
19630.0 2.8883e-05
19650.0 2.8705e-05
19670.0 2.8526e-05
19690.0 2.8348e-05
19710.0 2.817e-05
19730.0 2.7992e-05
19750.0 2.7815e-05
19770.0 2.7637e-05
19790.0 2.746e-05
19810.0 2.7283e-05
19830.0 2.7105e-05
19850.0 2.6927e-05
19870.0 2.6747e-05
19890.0 2.6562e-05
19910.0 2.6367e-05
19930.0 2.6158e-05
19950.0 2.5926e-05
19970.0 2.566e-05
19990.0 2.5353e-05
20010.0 2.501e-05
20030.0 2.4617e-05
20050.0 2.4177e-05
20070.0 2.3713e-05
20090.0 2.3229e-05
20110.0 2.2708e-05
20130.0 2.2193e-05
20150.0 2.1692e-05
20170.0 2.1188e-05
20190.0 2.0689e-05
20210.0 2.0218e-05
20230.0 1.9761e-05
20250.0 1.9309e-05
20270.0 1.8882e-05
20290.0 1.8482e-05
20310.0 1.8095e-05
20330.0 1.7721e-05
20350.0 1.7385e-05
20370.0 1.7067e-05
20390.0 1.6765e-05
20410.0 1.6488e-05
20430.0 1.6235e-05
20450.0 1.5995e-05
20470.0 1.5775e-05
20490.0 1.5576e-05
20510.0 1.5393e-05
20530.0 1.5222e-05
20550.0 1.5068e-05
20570.0 1.4927e-05
20590.0 1.4795e-05
20610.0 1.4673e-05
20630.0 1.4559e-05
20650.0 1.445e-05
20670.0 1.4346e-05
20690.0 1.4246e-05
20710.0 1.4147e-05
20730.0 1.4048e-05
20750.0 1.3949e-05
20770.0 1.3848e-05
20790.0 1.3744e-05
20810.0 1.3637e-05
20830.0 1.3525e-05
20850.0 1.3409e-05
20870.0 1.3287e-05
20890.0 1.316e-05
20910.0 1.303e-05
20930.0 1.2894e-05
20950.0 1.2753e-05
20970.0 1.261e-05
20990.0 1.2464e-05
21010.0 1.2313e-05
21030.0 1.216e-05
21050.0 1.2009e-05
21070.0 1.1855e-05
21090.0 1.1699e-05
21110.0 1.1547e-05
21130.0 1.1397e-05
21150.0 1.1246e-05
21170.0 1.1098e-05
21190.0 1.0954e-05
21210.0 1.0811e-05
21230.0 1.0669e-05
21250.0 1.0534e-05
21270.0 1.0402e-05
21290.0 1.0271e-05
21310.0 1.0145e-05
21330.0 1.0026e-05
21350.0 9.9083e-06
21370.0 9.7947e-06
21390.0 9.687e-06
21410.0 9.5838e-06
21430.0 9.4829e-06
21450.0 9.3881e-06
21470.0 9.2986e-06
21490.0 9.2127e-06
21510.0 9.1309e-06
21530.0 9.0542e-06
21550.0 8.9811e-06
21570.0 8.9112e-06
21590.0 8.8451e-06
21610.0 8.7823e-06
21630.0 8.722e-06
21650.0 8.6641e-06
21670.0 8.6087e-06
21690.0 8.555e-06
21710.0 8.503e-06
21730.0 8.4523e-06
21750.0 8.4028e-06
21770.0 8.3544e-06
21790.0 8.307e-06
21810.0 8.2602e-06
21830.0 8.2142e-06
21850.0 8.169e-06
21870.0 8.1243e-06
21890.0 8.08e-06
21910.0 8.0363e-06
21930.0 7.9929e-06
21950.0 7.9497e-06
21970.0 7.9066e-06
21990.0 7.8635e-06
22010.0 7.8201e-06
22030.0 7.7763e-06
22050.0 7.7321e-06
22070.0 7.6871e-06
22090.0 7.6415e-06
22110.0 7.5949e-06
22130.0 7.5472e-06
22150.0 7.4987e-06
22170.0 7.4492e-06
22190.0 7.3982e-06
22210.0 7.3459e-06
22230.0 7.2932e-06
22250.0 7.239e-06
22270.0 7.1832e-06
22290.0 7.1266e-06
22310.0 7.069e-06
22330.0 7.0088e-06
22350.0 6.9472e-06
22370.0 6.8846e-06
22390.0 6.8194e-06
22410.0 6.7508e-06
22430.0 6.6816e-06
22450.0 6.6102e-06
22470.0 6.5346e-06
22490.0 6.4569e-06
22510.0 6.3782e-06
22530.0 6.2949e-06
22550.0 6.2081e-06
22570.0 6.1215e-06
22590.0 6.0331e-06
22610.0 5.9411e-06
22630.0 5.8488e-06
