#lamb flux
1010.0 7.4535e-06
1030.0 8.2934e-06
1050.0 9.4309e-06
1070.0 1.1132e-05
1090.0 1.3364e-05
1110.0 1.5758e-05
1130.0 1.8261e-05
1150.0 2.094e-05
1170.0 2.3717e-05
1190.0 2.6313e-05
1210.0 2.8819e-05
1230.0 3.1202e-05
1250.0 3.3407e-05
1270.0 3.5201e-05
1290.0 3.6704e-05
1310.0 3.7751e-05
1330.0 3.8244e-05
1350.0 3.8308e-05
1370.0 3.8006e-05
1390.0 3.7278e-05
1410.0 3.6193e-05
1430.0 3.4929e-05
1450.0 3.3478e-05
1470.0 3.1871e-05
1490.0 3.0227e-05
1510.0 2.8633e-05
1530.0 2.7021e-05
1550.0 2.5477e-05
1570.0 2.406e-05
1590.0 2.276e-05
1610.0 2.1623e-05
1630.0 2.0906e-05
1650.0 2.0391e-05
1670.0 2.006e-05
1690.0 1.994e-05
1710.0 2.0066e-05
1730.0 2.0431e-05
1750.0 2.101e-05
1770.0 2.1866e-05
1790.0 2.3009e-05
1810.0 2.4423e-05
1830.0 2.613e-05
1850.0 2.8189e-05
1870.0 3.0562e-05
1890.0 3.3247e-05
1910.0 3.6283e-05
1930.0 3.9676e-05
1950.0 4.3358e-05
1970.0 4.7336e-05
1990.0 5.1634e-05
2010.0 5.6172e-05
2030.0 6.0884e-05
2050.0 6.5797e-05
2070.0 7.0863e-05
2090.0 7.5921e-05
2110.0 8.0981e-05
2130.0 8.6035e-05
2150.0 9.0964e-05
2170.0 9.5679e-05
2190.0 0.00010026
2210.0 0.00010463
2230.0 0.00010869
2250.0 0.00011247
2270.0 0.00011607
2290.0 0.00011936
2310.0 0.00012234
2330.0 0.00012515
2350.0 0.00012781
2370.0 0.00013027
2390.0 0.00013271
2410.0 0.00013532
2430.0 0.00013807
2450.0 0.0001411
2470.0 0.00014474
2490.0 0.00014914
2510.0 0.00015411
2530.0 0.0001601
2550.0 0.00016764
2570.0 0.00017691
2590.0 0.00018841
2610.0 0.00020415
2630.0 0.00022437
2650.0 0.00024834
2670.0 0.00027677
2690.0 0.00030931
2710.0 0.00034261
2730.0 0.00037527
2750.0 0.00040844
2770.0 0.00044031
2790.0 0.00047063
2810.0 0.00050157
2830.0 0.00053519
2850.0 0.00056933
2870.0 0.00060546
2890.0 0.00064495
2910.0 0.00068657
2930.0 0.00072861
2950.0 0.00077356
2970.0 0.00082095
2990.0 0.00086874
3010.0 0.00091776
3030.0 0.00096969
3050.0 0.001023
3070.0 0.0010749
3090.0 0.0011278
3110.0 0.0011794
3130.0 0.0012263
3150.0 0.0012672
3170.0 0.0013008
3190.0 0.0013251
3210.0 0.0013427
3230.0 0.0013551
3250.0 0.0013621
3270.0 0.0013671
3290.0 0.0013733
3310.0 0.0013827
3330.0 0.0013956
3350.0 0.0014111
3370.0 0.0014278
3390.0 0.0014333
3410.0 0.0014424
3430.0 0.0014859
3450.0 0.0015167
3470.0 0.0015227
3490.0 0.0015806
3510.0 0.001813
3530.0 0.0022321
3550.0 0.0025282
3570.0 0.0027647
3590.0 0.0031119
3610.0 0.0031012
3630.0 0.0028581
3650.0 0.0030015
3670.0 0.0035417
3690.0 0.0039738
3710.0 0.0041189
3730.0 0.0041525
3750.0 0.0044352
3770.0 0.0044596
3790.0 0.0042487
3810.0 0.0040053
3830.0 0.0037968
3850.0 0.0038221
3870.0 0.0039916
3890.0 0.0041134
3910.0 0.0041741
3930.0 0.0041765
3950.0 0.0044696
3970.0 0.0048154
3990.0 0.0046818
4010.0 0.0041769
4030.0 0.0037634
4050.0 0.0037318
4070.0 0.0039006
4090.0 0.0038663
4110.0 0.0037208
4130.0 0.0037
4150.0 0.0038726
4170.0 0.0042798
4190.0 0.0044963
4210.0 0.004236
4230.0 0.003897
4250.0 0.0036881
4270.0 0.0035573
4290.0 0.0035808
4310.0 0.0036766
4330.0 0.0034983
4350.0 0.0031004
4370.0 0.0027656
4390.0 0.0025327
4410.0 0.0024048
4430.0 0.0024736
4450.0 0.0027219
4470.0 0.0029894
4490.0 0.0031968
4510.0 0.0035373
4530.0 0.0041573
4550.0 0.0048079
4570.0 0.0052055
4590.0 0.0055472
4610.0 0.0058463
4630.0 0.0058961
4650.0 0.0054718
4670.0 0.0047634
4690.0 0.0042098
4710.0 0.0040251
4730.0 0.0038458
4750.0 0.0033844
4770.0 0.0030271
4790.0 0.0031192
4810.0 0.0033811
4830.0 0.0033057
4850.0 0.0029377
4870.0 0.0030054
4890.0 0.0030825
4910.0 0.0031267
4930.0 0.0030758
4950.0 0.0030181
4970.0 0.0028845
4990.0 0.0026643
5010.0 0.0025081
5030.0 0.0024646
5050.0 0.0024513
5070.0 0.0024473
5090.0 0.0024437
5110.0 0.0024407
5130.0 0.0024904
5150.0 0.0026136
5170.0 0.0028453
5190.0 0.0031507
5210.0 0.003397
5230.0 0.0035441
5250.0 0.0036266
5270.0 0.003744
5290.0 0.0038363
5310.0 0.0038164
5330.0 0.0036841
5350.0 0.0035543
5370.0 0.0035589
5390.0 0.0036518
5410.0 0.0037197
5430.0 0.0036894
5450.0 0.0036361
5470.0 0.0035555
5490.0 0.0034737
5510.0 0.0034435
5530.0 0.0034604
5550.0 0.0034966
5570.0 0.0035098
5590.0 0.0034163
5610.0 0.0032451
5630.0 0.0030853
5650.0 0.0029418
5670.0 0.0028418
5690.0 0.0027277
5710.0 0.0026612
5730.0 0.0026734
5750.0 0.0026457
5770.0 0.0025986
5790.0 0.0026227
5810.0 0.002699
5830.0 0.0027575
5850.0 0.0027739
5870.0 0.002705
5890.0 0.0025967
5910.0 0.0025004
5930.0 0.0023747
5950.0 0.0022683
5970.0 0.0022807
5990.0 0.002336
6010.0 0.0023348
6030.0 0.0022548
6050.0 0.0022402
6070.0 0.0023182
6090.0 0.0023975
6110.0 0.0023911
6130.0 0.0022718
6150.0 0.0021154
6170.0 0.0020288
6190.0 0.0019819
6210.0 0.0019404
6230.0 0.0019016
6250.0 0.0019003
6270.0 0.0019543
6290.0 0.0020326
6310.0 0.0021208
6330.0 0.0022138
6350.0 0.0022704
6370.0 0.0022772
6390.0 0.0022644
6410.0 0.0022825
6430.0 0.0023112
6450.0 0.0023101
6470.0 0.0023148
6490.0 0.0023283
6510.0 0.0023276
6530.0 0.0022994
6550.0 0.002241
6570.0 0.0021696
6590.0 0.0021072
6610.0 0.0020583
6630.0 0.0020181
6650.0 0.0019525
6670.0 0.00188
6690.0 0.0018239
6710.0 0.0017918
6730.0 0.0017738
6750.0 0.0017566
6770.0 0.0017333
6790.0 0.0017019
6810.0 0.0016715
6830.0 0.0016618
6850.0 0.0016532
6870.0 0.001639
6890.0 0.0016366
6910.0 0.0016146
6930.0 0.0015876
6950.0 0.0015838
6970.0 0.0015698
6990.0 0.0015372
7010.0 0.0015121
7030.0 0.0014851
7050.0 0.0014568
7070.0 0.0014222
7090.0 0.0013919
7110.0 0.0014121
7130.0 0.0014522
7150.0 0.0014838
7170.0 0.001503
7190.0 0.0015005
7210.0 0.0014813
7230.0 0.0014571
7250.0 0.0014421
7270.0 0.0014166
7290.0 0.0013956
7310.0 0.001384
7330.0 0.0013984
7350.0 0.0014024
7370.0 0.0013979
7390.0 0.0013851
7410.0 0.0013636
7430.0 0.0013497
7450.0 0.0013356
7470.0 0.0012951
7490.0 0.0012518
7510.0 0.0011993
7530.0 0.0011572
7550.0 0.0011348
7570.0 0.0011501
7590.0 0.0011427
7610.0 0.0011302
7630.0 0.0011187
7650.0 0.0011244
7670.0 0.0011478
7690.0 0.0011945
7710.0 0.0012266
7730.0 0.0012724
7750.0 0.0013012
7770.0 0.0013247
7790.0 0.001327
7810.0 0.0013016
7830.0 0.0013056
7850.0 0.0012935
7870.0 0.0012611
7890.0 0.0012186
7910.0 0.0011823
7930.0 0.0011551
7950.0 0.0011385
7970.0 0.001139
7990.0 0.0011482
8010.0 0.001145
8030.0 0.0011329
8050.0 0.0011121
8070.0 0.0010919
8090.0 0.0010695
8110.0 0.0010736
8130.0 0.0010831
8150.0 0.001085
8170.0 0.0010759
8190.0 0.0010616
8210.0 0.0010199
8230.0 0.00095419
8250.0 0.00091372
8270.0 0.00089028
8290.0 0.00087897
8310.0 0.00088294
8330.0 0.00090289
8350.0 0.00088702
8370.0 0.00086775
8390.0 0.00087973
8410.0 0.00090739
8430.0 0.00095417
8450.0 0.00099706
8470.0 0.0010084
8490.0 0.0010177
8510.0 0.0010123
8530.0 0.0010064
8550.0 0.001014
8570.0 0.0010152
8590.0 0.0010121
8610.0 0.0010399
8630.0 0.0010477
8650.0 0.001025
8670.0 0.0010229
8690.0 0.0010268
8710.0 0.0010126
8730.0 0.001004
8750.0 0.0009733
8770.0 0.00096034
8790.0 0.00094998
8810.0 0.00094055
8830.0 0.00089949
8850.0 0.00083481
8870.0 0.00078476
8890.0 0.00075721
8910.0 0.00071086
8930.0 0.00066184
8950.0 0.00064435
8970.0 0.00063962
8990.0 0.00064032
9010.0 0.00063545
9030.0 0.0006309
9050.0 0.00062672
9070.0 0.00062265
9090.0 0.0006186
9110.0 0.00061456
9130.0 0.00061051
9150.0 0.00060648
9170.0 0.00060246
9190.0 0.00059843
9210.0 0.00059439
9230.0 0.0005904
9250.0 0.00058642
9270.0 0.00058244
9290.0 0.00057847
9310.0 0.00057451
9330.0 0.00057056
9350.0 0.00056664
9370.0 0.00056271
9390.0 0.00055881
9410.0 0.00055492
9430.0 0.00055103
9450.0 0.00054712
9470.0 0.0005433
9490.0 0.00053957
9510.0 0.00053575
9530.0 0.00053196
9550.0 0.00052818
9570.0 0.00052443
9590.0 0.0005207
9610.0 0.00051699
9630.0 0.00051331
9650.0 0.00050963
9670.0 0.00050599
9690.0 0.00050237
9710.0 0.00049876
9730.0 0.00049518
9750.0 0.00049162
9770.0 0.00048808
9790.0 0.00048456
9810.0 0.00048106
9830.0 0.00047749
9850.0 0.00047342
9870.0 0.0004701
9890.0 0.00046693
9910.0 0.00046369
9930.0 0.00046025
9950.0 0.000457
9970.0 0.00045374
9990.0 0.00045042
10010.0 0.00044674
10030.0 0.00044333
10050.0 0.00044032
10070.0 0.00043729
10090.0 0.00043425
10110.0 0.00043102
10130.0 0.00042745
10150.0 0.00042443
10170.0 0.00042147
10190.0 0.00041839
10210.0 0.0004154
10230.0 0.00041243
10250.0 0.00040936
10270.0 0.00040632
10290.0 0.00040337
10310.0 0.00040036
10330.0 0.00039728
10350.0 0.00039434
10370.0 0.00039143
10390.0 0.00038843
10410.0 0.00038547
10430.0 0.00038264
10450.0 0.00037974
10470.0 0.0003768
10490.0 0.00037396
10510.0 0.00037115
10530.0 0.00036821
10550.0 0.00036535
10570.0 0.00036259
10590.0 0.00035976
10610.0 0.00035691
10630.0 0.00035417
10650.0 0.00035143
10670.0 0.00034859
10690.0 0.00034581
10710.0 0.00034311
10730.0 0.00034034
10750.0 0.00033751
10770.0 0.00033484
10790.0 0.00033215
10810.0 0.00032939
10830.0 0.00032669
10850.0 0.00032407
10870.0 0.00032132
10890.0 0.0003186
10910.0 0.000316
10930.0 0.00031342
10950.0 0.00031081
10970.0 0.00030833
10990.0 0.00030601
11010.0 0.00030342
11030.0 0.00030139
11050.0 0.00029948
11070.0 0.00029759
11090.0 0.00029561
11110.0 0.00029371
11130.0 0.00029181
11150.0 0.00028983
11170.0 0.0002878
11190.0 0.00028584
11210.0 0.00028382
11230.0 0.00028175
11250.0 0.00027975
11270.0 0.00027782
11290.0 0.00027585
11310.0 0.00027393
11330.0 0.00027218
11350.0 0.00027045
11370.0 0.00026875
11390.0 0.00026716
11410.0 0.00026565
11430.0 0.00026411
11450.0 0.00026263
11470.0 0.00026121
11490.0 0.00025977
11510.0 0.00025827
11530.0 0.0002568
11550.0 0.00025531
11570.0 0.00025371
11590.0 0.00025207
11610.0 0.00025043
11630.0 0.00024866
11650.0 0.00024678
11670.0 0.00024494
11690.0 0.00024307
11710.0 0.0002411
11730.0 0.00023914
11750.0 0.00023726
11770.0 0.00023533
11790.0 0.00023341
11810.0 0.00023158
11830.0 0.00022981
11850.0 0.000228
11870.0 0.00022631
11890.0 0.00022474
11910.0 0.00022318
11930.0 0.00022168
11950.0 0.00022031
11970.0 0.000219
11990.0 0.00021771
12010.0 0.00021655
12030.0 0.00021551
12050.0 0.00021452
12070.0 0.00021363
12090.0 0.00021291
12110.0 0.00021228
12130.0 0.00021175
12150.0 0.00021137
12170.0 0.00021112
12190.0 0.00021098
12210.0 0.00021097
12230.0 0.00021109
12250.0 0.00021132
12270.0 0.00021167
12290.0 0.00021211
12310.0 0.00021263
12330.0 0.00021323
12350.0 0.00021388
12370.0 0.00021455
12390.0 0.00021524
12410.0 0.00021595
12430.0 0.00021659
12450.0 0.00021718
12470.0 0.0002177
12490.0 0.00021812
12510.0 0.00021841
12530.0 0.00021857
12550.0 0.00021857
12570.0 0.00021839
12590.0 0.00021804
12610.0 0.00021748
12630.0 0.00021671
12650.0 0.0002158
12670.0 0.00021469
12690.0 0.00021337
12710.0 0.00021195
12730.0 0.00021041
12750.0 0.00020865
12770.0 0.00020684
12790.0 0.00020502
12810.0 0.0002031
12830.0 0.00020109
12850.0 0.00019917
12870.0 0.00019726
12890.0 0.00019529
12910.0 0.00019337
12930.0 0.00019155
12950.0 0.00018968
12970.0 0.00018782
12990.0 0.00018608
13010.0 0.00018438
13030.0 0.00018266
13050.0 0.00018101
13070.0 0.00017947
13090.0 0.00017791
13110.0 0.0001764
13130.0 0.000175
13150.0 0.00017367
13170.0 0.00017234
13190.0 0.00017114
13210.0 0.00017005
13230.0 0.000169
13250.0 0.000168
13270.0 0.00016712
13290.0 0.00016627
13310.0 0.00016543
13330.0 0.00016465
13350.0 0.00016391
13370.0 0.00016315
13390.0 0.00016238
13410.0 0.00016165
13430.0 0.00016088
13450.0 0.00016007
13470.0 0.00015925
13490.0 0.00015843
13510.0 0.00015752
13530.0 0.00015659
13550.0 0.00015567
13570.0 0.00015471
13590.0 0.00015369
13610.0 0.00015269
13630.0 0.00015169
13650.0 0.00015063
13670.0 0.00014956
13690.0 0.00014852
13710.0 0.00014745
13730.0 0.00014631
13750.0 0.00014524
13770.0 0.00014416
13790.0 0.00014303
13810.0 0.00014189
13830.0 0.00014079
13850.0 0.00013964
13870.0 0.00013844
13890.0 0.00013726
13910.0 0.00013608
13930.0 0.00013481
13950.0 0.00013352
13970.0 0.00013228
13990.0 0.00013097
14010.0 0.00012962
14030.0 0.00012829
14050.0 0.00012696
14070.0 0.00012554
14090.0 0.00012415
14110.0 0.00012281
14130.0 0.00012146
14150.0 0.00012009
14170.0 0.00011882
14190.0 0.00011759
14210.0 0.00011636
14230.0 0.0001152
14250.0 0.00011412
14270.0 0.00011304
14290.0 0.00011199
14310.0 0.00011103
14330.0 0.0001101
14350.0 0.00010917
14370.0 0.00010828
14390.0 0.00010744
14410.0 0.00010658
14430.0 0.00010573
14450.0 0.00010493
14470.0 0.00010415
14490.0 0.00010335
14510.0 0.0001026
14530.0 0.0001019
14550.0 0.00010121
14570.0 0.00010053
14590.0 9.9917e-05
14610.0 9.9315e-05
14630.0 9.8719e-05
14650.0 9.8166e-05
14670.0 9.7646e-05
14690.0 9.7132e-05
14710.0 9.6637e-05
14730.0 9.6192e-05
14750.0 9.5764e-05
14770.0 9.5355e-05
14790.0 9.499e-05
14810.0 9.4668e-05
14830.0 9.4369e-05
14850.0 9.4125e-05
14870.0 9.3936e-05
14890.0 9.3793e-05
14910.0 9.3694e-05
14930.0 9.3637e-05
14950.0 9.3607e-05
14970.0 9.3589e-05
14990.0 9.357e-05
15010.0 9.3537e-05
15030.0 9.3481e-05
15050.0 9.3395e-05
15070.0 9.3288e-05
15090.0 9.3162e-05
15110.0 9.3017e-05
15130.0 9.2864e-05
15150.0 9.271e-05
15170.0 9.2548e-05
15190.0 9.2382e-05
15210.0 9.222e-05
15230.0 9.2058e-05
15250.0 9.189e-05
15270.0 9.1723e-05
15290.0 9.1563e-05
15310.0 9.1398e-05
15330.0 9.1231e-05
15350.0 9.1068e-05
15370.0 9.0906e-05
15390.0 9.0736e-05
15410.0 9.057e-05
15430.0 9.0408e-05
15450.0 9.0243e-05
15470.0 9.0074e-05
15490.0 8.9913e-05
15510.0 8.9751e-05
15530.0 8.9584e-05
15550.0 8.942e-05
15570.0 8.926e-05
15590.0 8.9094e-05
15610.0 8.8927e-05
15630.0 8.8767e-05
15650.0 8.8606e-05
15670.0 8.8441e-05
15690.0 8.828e-05
15710.0 8.8123e-05
15730.0 8.796e-05
15750.0 8.7798e-05
15770.0 8.764e-05
15790.0 8.7482e-05
15810.0 8.7319e-05
15830.0 8.7161e-05
15850.0 8.7007e-05
15870.0 8.6848e-05
15890.0 8.669e-05
15910.0 8.6538e-05
15930.0 8.6384e-05
15950.0 8.6226e-05
15970.0 8.6073e-05
15990.0 8.5922e-05
16010.0 8.5768e-05
16030.0 8.5613e-05
16050.0 8.5466e-05
16070.0 8.5317e-05
16090.0 8.5165e-05
16110.0 8.5018e-05
16130.0 8.4874e-05
16150.0 8.4722e-05
16170.0 8.4574e-05
16190.0 8.4432e-05
16210.0 8.4287e-05
16230.0 8.414e-05
16250.0 8.3999e-05
16270.0 8.386e-05
16290.0 8.3716e-05
16310.0 8.3574e-05
16330.0 8.3438e-05
16350.0 8.3299e-05
16370.0 8.3155e-05
16390.0 8.302e-05
16410.0 8.2885e-05
16430.0 8.2747e-05
16450.0 8.2611e-05
16470.0 8.2481e-05
16490.0 8.2347e-05
16510.0 8.2211e-05
16530.0 8.208e-05
16550.0 8.1951e-05
16570.0 8.1817e-05
16590.0 8.1685e-05
16610.0 8.156e-05
16630.0 8.1431e-05
16650.0 8.1301e-05
16670.0 8.1176e-05
16690.0 8.1052e-05
16710.0 8.0921e-05
16730.0 8.0796e-05
16750.0 8.0674e-05
16770.0 8.0549e-05
16790.0 8.0422e-05
16810.0 8.0302e-05
16830.0 8.0181e-05
16850.0 8.0056e-05
16870.0 7.9935e-05
16890.0 7.9817e-05
16910.0 7.9694e-05
16930.0 7.957e-05
16950.0 7.9452e-05
16970.0 7.9334e-05
16990.0 7.9212e-05
17010.0 7.9093e-05
17030.0 7.8979e-05
17050.0 7.8858e-05
17070.0 7.8738e-05
17090.0 7.8622e-05
17110.0 7.8505e-05
17130.0 7.8383e-05
17150.0 7.8266e-05
17170.0 7.8151e-05
17190.0 7.8032e-05
17210.0 7.7913e-05
17230.0 7.78e-05
17250.0 7.7682e-05
17270.0 7.7561e-05
17290.0 7.7444e-05
17310.0 7.7329e-05
17330.0 7.7209e-05
17350.0 7.7088e-05
17370.0 7.6974e-05
17390.0 7.6856e-05
17410.0 7.6735e-05
17430.0 7.6617e-05
17450.0 7.6501e-05
17470.0 7.6377e-05
17490.0 7.6255e-05
17510.0 7.6138e-05
17530.0 7.6017e-05
17550.0 7.5893e-05
17570.0 7.5773e-05
17590.0 7.5653e-05
17610.0 7.5528e-05
17630.0 7.5404e-05
17650.0 7.5283e-05
17670.0 7.5158e-05
17690.0 7.5027e-05
17710.0 7.4903e-05
17730.0 7.4779e-05
17750.0 7.4649e-05
17770.0 7.4521e-05
17790.0 7.4396e-05
17810.0 7.4264e-05
17830.0 7.4131e-05
17850.0 7.4001e-05
17870.0 7.387e-05
17890.0 7.3734e-05
17910.0 7.3598e-05
17930.0 7.3467e-05
17950.0 7.333e-05
17970.0 7.3191e-05
17990.0 7.3055e-05
18010.0 7.2918e-05
18030.0 7.2773e-05
18050.0 7.2632e-05
18070.0 7.2492e-05
18090.0 7.2347e-05
18110.0 7.22e-05
18130.0 7.2057e-05
18150.0 7.1912e-05
18170.0 7.1761e-05
18190.0 7.1612e-05
18210.0 7.1464e-05
18230.0 7.131e-05
18250.0 7.1153e-05
18270.0 7.1002e-05
18290.0 7.0848e-05
18310.0 7.0688e-05
18330.0 7.0531e-05
18350.0 7.0375e-05
18370.0 7.0212e-05
18390.0 7.0048e-05
18410.0 6.9888e-05
18430.0 6.9724e-05
18450.0 6.9553e-05
18470.0 6.9387e-05
18490.0 6.9221e-05
18510.0 6.9049e-05
18530.0 6.8877e-05
18550.0 6.8708e-05
18570.0 6.8534e-05
18590.0 6.8355e-05
18610.0 6.8179e-05
18630.0 6.8003e-05
18650.0 6.7821e-05
18670.0 6.7638e-05
18690.0 6.746e-05
18710.0 6.7277e-05
18730.0 6.709e-05
18750.0 6.6905e-05
18770.0 6.6721e-05
18790.0 6.6527e-05
18810.0 6.6336e-05
18830.0 6.6148e-05
18850.0 6.5955e-05
18870.0 6.5758e-05
18890.0 6.5565e-05
18910.0 6.5371e-05
18930.0 6.5171e-05
18950.0 6.4971e-05
18970.0 6.4774e-05
18990.0 6.4572e-05
19010.0 6.4364e-05
19030.0 6.4163e-05
19050.0 6.396e-05
19070.0 6.3752e-05
19090.0 6.3544e-05
19110.0 6.334e-05
19130.0 6.3129e-05
19150.0 6.2915e-05
19170.0 6.2706e-05
19190.0 6.2494e-05
19210.0 6.2277e-05
19230.0 6.2061e-05
19250.0 6.185e-05
19270.0 6.1632e-05
19290.0 6.1413e-05
19310.0 6.1197e-05
19330.0 6.0979e-05
19350.0 6.0754e-05
19370.0 6.0533e-05
19390.0 6.0313e-05
19410.0 6.0089e-05
19430.0 5.9863e-05
19450.0 5.9642e-05
19470.0 5.9418e-05
19490.0 5.9189e-05
19510.0 5.8963e-05
19530.0 5.8739e-05
19550.0 5.8509e-05
19570.0 5.8277e-05
19590.0 5.8051e-05
19610.0 5.7823e-05
19630.0 5.759e-05
19650.0 5.7361e-05
19670.0 5.7133e-05
19690.0 5.6899e-05
19710.0 5.6666e-05
19730.0 5.6436e-05
19750.0 5.6204e-05
19770.0 5.5967e-05
19790.0 5.5735e-05
19810.0 5.5504e-05
19830.0 5.5268e-05
19850.0 5.5031e-05
19870.0 5.4796e-05
19890.0 5.4551e-05
19910.0 5.4292e-05
19930.0 5.4021e-05
19950.0 5.3725e-05
19970.0 5.3385e-05
19990.0 5.2998e-05
20010.0 5.2572e-05
20030.0 5.2083e-05
20050.0 5.1531e-05
20070.0 5.0948e-05
20090.0 5.0335e-05
20110.0 4.9664e-05
20130.0 4.8995e-05
20150.0 4.8338e-05
20170.0 4.7667e-05
20190.0 4.6995e-05
20210.0 4.6358e-05
20230.0 4.5735e-05
20250.0 4.5109e-05
20270.0 4.4517e-05
20290.0 4.396e-05
20310.0 4.3415e-05
20330.0 4.2883e-05
20350.0 4.2406e-05
20370.0 4.195e-05
20390.0 4.151e-05
20410.0 4.1104e-05
20430.0 4.0733e-05
20450.0 4.0372e-05
20470.0 4.0037e-05
20490.0 3.9734e-05
20510.0 3.9452e-05
20530.0 3.9185e-05
20550.0 3.8944e-05
20570.0 3.8726e-05
20590.0 3.852e-05
20610.0 3.8331e-05
20630.0 3.8161e-05
20650.0 3.8002e-05
20670.0 3.7852e-05
20690.0 3.7714e-05
20710.0 3.7585e-05
20730.0 3.7459e-05
20750.0 3.7336e-05
20770.0 3.7215e-05
20790.0 3.7091e-05
20810.0 3.696e-05
20830.0 3.6824e-05
20850.0 3.668e-05
20870.0 3.6521e-05
20890.0 3.6348e-05
20910.0 3.6165e-05
20930.0 3.5965e-05
20950.0 3.5746e-05
20970.0 3.5516e-05
20990.0 3.5274e-05
21010.0 3.5008e-05
21030.0 3.4731e-05
21050.0 3.4449e-05
21070.0 3.4153e-05
21090.0 3.3839e-05
21110.0 3.3531e-05
21130.0 3.322e-05
21150.0 3.2897e-05
21170.0 3.2576e-05
21190.0 3.2264e-05
21210.0 3.1944e-05
21230.0 3.1622e-05
21250.0 3.1316e-05
21270.0 3.1016e-05
21290.0 3.0714e-05
21310.0 3.0422e-05
21330.0 3.0148e-05
21350.0 2.9874e-05
21370.0 2.9606e-05
21390.0 2.9353e-05
21410.0 2.9109e-05
21430.0 2.8861e-05
21450.0 2.8628e-05
21470.0 2.8407e-05
21490.0 2.8187e-05
21510.0 2.797e-05
21530.0 2.7765e-05
21550.0 2.7562e-05
21570.0 2.7357e-05
21590.0 2.7158e-05
21610.0 2.6966e-05
21630.0 2.677e-05
21650.0 2.6571e-05
21670.0 2.6385e-05
21690.0 2.6197e-05
21710.0 2.6005e-05
21730.0 2.5817e-05
21750.0 2.5634e-05
21770.0 2.5442e-05
21790.0 2.5251e-05
21810.0 2.5065e-05
21830.0 2.4878e-05
21850.0 2.4684e-05
21870.0 2.4495e-05
21890.0 2.431e-05
21910.0 2.4117e-05
21930.0 2.3924e-05
21950.0 2.3737e-05
21970.0 2.3546e-05
21990.0 2.3346e-05
22010.0 2.3155e-05
22030.0 2.2967e-05
22050.0 2.2774e-05
22070.0 2.2581e-05
22090.0 2.2399e-05
22110.0 2.2214e-05
22130.0 2.2027e-05
22150.0 2.185e-05
22170.0 2.1679e-05
22190.0 2.1505e-05
22210.0 2.1338e-05
22230.0 2.1184e-05
22250.0 2.1033e-05
22270.0 2.0885e-05
22290.0 2.0749e-05
22310.0 2.062e-05
22330.0 2.0491e-05
22350.0 2.0371e-05
22370.0 2.0261e-05
22390.0 2.0154e-05
22410.0 2.0048e-05
22430.0 1.9953e-05
22450.0 1.9863e-05
22470.0 1.9772e-05
22490.0 1.9686e-05
22510.0 1.9607e-05
22530.0 1.9526e-05
22550.0 1.9446e-05
22570.0 1.9372e-05
22590.0 1.9301e-05
22610.0 1.9229e-05
22630.0 1.916e-05
22650.0 1.9098e-05
22670.0 1.9035e-05
22690.0 1.8975e-05
22710.0 1.8921e-05
22730.0 1.8871e-05
22750.0 1.882e-05
22770.0 1.8777e-05
22790.0 1.8742e-05
22810.0 1.8709e-05
22830.0 1.8682e-05
22850.0 1.8665e-05
22870.0 1.8653e-05
22890.0 1.8647e-05
22910.0 1.8652e-05
