#lamb flux
1010.0 4.3132e-09
1030.0 4.7704e-09
1050.0 5.2963e-09
1070.0 5.8883e-09
1090.0 6.5607e-09
1110.0 7.2504e-09
1130.0 7.9445e-09
1150.0 8.6717e-09
1170.0 9.4217e-09
1190.0 1.0133e-08
1210.0 1.0854e-08
1230.0 1.1599e-08
1250.0 1.2328e-08
1270.0 1.3037e-08
1290.0 1.3786e-08
1310.0 1.4534e-08
1330.0 1.5252e-08
1350.0 1.5978e-08
1370.0 1.6727e-08
1390.0 1.7458e-08
1410.0 1.8167e-08
1430.0 1.8908e-08
1450.0 1.9649e-08
1470.0 2.0365e-08
1490.0 2.1089e-08
1510.0 2.1854e-08
1530.0 2.2579e-08
1550.0 2.3294e-08
1570.0 2.4034e-08
1590.0 2.4775e-08
1610.0 2.5483e-08
1630.0 2.6213e-08
1650.0 2.6963e-08
1670.0 2.7688e-08
1690.0 2.8405e-08
1710.0 2.915e-08
1730.0 2.99e-08
1750.0 3.0605e-08
1770.0 3.1333e-08
1790.0 3.2075e-08
1810.0 3.2795e-08
1830.0 3.3503e-08
1850.0 3.4256e-08
1870.0 3.4991e-08
1890.0 3.5702e-08
1910.0 3.6429e-08
1930.0 3.7174e-08
1950.0 3.7888e-08
1970.0 3.8594e-08
1990.0 3.9329e-08
2010.0 4.0053e-08
2030.0 4.0753e-08
2050.0 4.1476e-08
2070.0 4.2219e-08
2090.0 4.2921e-08
2110.0 4.3623e-08
2130.0 4.4348e-08
2150.0 4.506e-08
2170.0 4.5742e-08
2190.0 4.6452e-08
2210.0 4.7167e-08
2230.0 4.7855e-08
2250.0 4.854e-08
2270.0 4.9258e-08
2290.0 4.9953e-08
2310.0 5.0622e-08
2330.0 5.1318e-08
2350.0 5.2033e-08
2370.0 5.2744e-08
2390.0 5.3515e-08
2410.0 5.4428e-08
2430.0 5.5479e-08
2450.0 5.6734e-08
2470.0 5.8343e-08
2490.0 6.037e-08
2510.0 6.2675e-08
2530.0 6.5449e-08
2550.0 6.8921e-08
2570.0 7.3242e-08
2590.0 7.8861e-08
2610.0 8.7274e-08
2630.0 9.9286e-08
2650.0 1.1499e-07
2670.0 1.353e-07
2690.0 1.6025e-07
2710.0 1.8689e-07
2730.0 2.1321e-07
2750.0 2.3913e-07
2770.0 2.6168e-07
2790.0 2.7959e-07
2810.0 2.938e-07
2830.0 3.049e-07
2850.0 3.1248e-07
2870.0 3.1804e-07
2890.0 3.2245e-07
2910.0 3.2596e-07
2930.0 3.2884e-07
2950.0 3.3158e-07
2970.0 3.3426e-07
2990.0 3.3677e-07
3010.0 9.519e-06
3030.0 9.5902e-06
3050.0 9.659e-06
3070.0 9.7179e-06
3090.0 9.7685e-06
3110.0 9.8e-06
3130.0 9.7987e-06
3150.0 9.7552e-06
3170.0 9.6507e-06
3190.0 9.4866e-06
3210.0 9.2786e-06
3230.0 9.0404e-06
3250.0 8.8053e-06
3270.0 8.6335e-06
3290.0 8.5381e-06
3310.0 8.5535e-06
3330.0 8.6773e-06
3350.0 8.8929e-06
3370.0 9.2007e-06
3390.0 9.5886e-06
3410.0 1.0011e-05
3430.0 1.0485e-05
3450.0 1.103e-05
3470.0 1.1626e-05
3490.0 1.2258e-05
3510.0 1.2971e-05
3530.0 1.3736e-05
3550.0 1.4509e-05
3570.0 1.5317e-05
3590.0 1.6195e-05
3610.0 1.7099e-05
3630.0 1.8001e-05
3650.0 1.8936e-05
3670.0 1.9791e-05
3690.0 2.0429e-05
3710.0 2.0795e-05
3730.0 2.0807e-05
3750.0 2.0518e-05
3770.0 2.0404e-05
3790.0 2.0282e-05
3810.0 1.9784e-05
3830.0 2.0396e-05
3850.0 2.2806e-05
3870.0 2.4128e-05
3890.0 2.4018e-05
3910.0 2.412e-05
3930.0 2.4755e-05
3950.0 2.5146e-05
3970.0 2.291e-05
3990.0 1.9713e-05
4010.0 5.9084e-05
4030.0 7.1589e-05
4050.0 8.2072e-05
4070.0 7.1211e-05
4090.0 6.4496e-05
4110.0 5.6911e-05
4130.0 5.2381e-05
4150.0 5.5717e-05
4170.0 5.4884e-05
4190.0 5.8503e-05
4210.0 5.7967e-05
4230.0 6.1314e-05
4250.0 7.2536e-05
4270.0 7.3389e-05
4290.0 6.7627e-05
4310.0 7.0269e-05
4330.0 7.4745e-05
4350.0 8.3808e-05
4370.0 9.5375e-05
4390.0 8.9499e-05
4410.0 6.6125e-05
4430.0 5.5978e-05
4450.0 5.1438e-05
4470.0 3.948e-05
4490.0 4.2604e-05
4510.0 6.4354e-05
4530.0 7.422e-05
4550.0 7.4864e-05
4570.0 8.4241e-05
4590.0 9.5958e-05
4610.0 0.00012942
4630.0 0.0001681
4650.0 0.0001823
4670.0 0.00016883
4690.0 0.00016109
4710.0 0.00017028
4730.0 0.0001607
4750.0 0.00012014
4770.0 8.8129e-05
4790.0 8.2295e-05
4810.0 7.8441e-05
4830.0 7.1812e-05
4850.0 7.8801e-05
4870.0 0.0001041
4890.0 0.00012277
4910.0 0.00010771
4930.0 9.5311e-05
4950.0 0.00010471
4970.0 0.00013429
4990.0 0.00018199
5010.0 0.00020936
5030.0 0.00018461
5050.0 0.0001249
5070.0 8.2313e-05
5090.0 6.6373e-05
5110.0 6.8258e-05
5130.0 7.8781e-05
5150.0 8.5353e-05
5170.0 8.4072e-05
5190.0 7.856e-05
5210.0 8.2113e-05
5230.0 8.632e-05
5250.0 9.3029e-05
5270.0 0.00010037
5290.0 0.00011123
5310.0 0.00012947
5330.0 0.00014328
5350.0 0.00014236
5370.0 0.00014954
5390.0 0.0001716
5410.0 0.00017145
5430.0 0.00015162
5450.0 0.0001393
5470.0 0.00014792
5490.0 0.00018071
5510.0 0.00022596
5530.0 0.00025916
5550.0 0.00025048
5570.0 0.00022771
5590.0 0.000198
5610.0 0.0001826
5630.0 0.00017706
5650.0 0.00016864
5670.0 0.0001598
5690.0 0.00014286
5710.0 0.00013929
5730.0 0.00012831
5750.0 9.0464e-05
5770.0 7.0577e-05
5790.0 7.9979e-05
5810.0 9.0311e-05
5830.0 0.00011082
5850.0 0.00013192
5870.0 0.00014637
5890.0 0.00014885
5910.0 0.00014604
5930.0 0.00013901
5950.0 0.00014165
5970.0 0.00016146
5990.0 0.00015182
6010.0 0.00012727
6030.0 0.00010752
6050.0 9.364e-05
6070.0 9.3128e-05
6090.0 0.00010098
6110.0 0.00011291
6130.0 0.00011464
6150.0 9.8641e-05
6170.0 8.6774e-05
6190.0 9.7651e-05
6210.0 0.00012909
6230.0 0.00016941
6250.0 0.00018349
6270.0 0.00016035
6290.0 0.00013491
6310.0 0.00010532
6330.0 8.0695e-05
6350.0 7.1977e-05
6370.0 7.5692e-05
6390.0 8.7505e-05
6410.0 0.0001079
6430.0 0.00012599
6450.0 0.00014417
6470.0 0.00016508
6490.0 0.0001994
6510.0 0.00022296
6530.0 0.00021874
6550.0 0.0001978
6570.0 0.00016791
6590.0 0.00015141
6610.0 0.00013055
6630.0 0.00011828
6650.0 0.00011181
6670.0 0.00010862
6690.0 9.8141e-05
6710.0 8.9212e-05
6730.0 6.4258e-05
6750.0 6.3705e-05
6770.0 6.9243e-05
6790.0 7.9589e-05
6810.0 7.2826e-05
6830.0 7.4991e-05
6850.0 7.014e-05
6870.0 6.4073e-05
6890.0 6.152e-05
6910.0 6.5557e-05
6930.0 6.1404e-05
6950.0 6.3174e-05
6970.0 6.6448e-05
6990.0 7.5423e-05
7010.0 7.6066e-05
7030.0 7.7274e-05
7050.0 7.3693e-05
7070.0 7.0217e-05
7090.0 7.0422e-05
7110.0 7.2459e-05
7130.0 7.7977e-05
7150.0 8.2818e-05
7170.0 9.1384e-05
7190.0 0.00010046
7210.0 9.8712e-05
7230.0 0.00010148
7250.0 0.00010905
7270.0 0.00011884
7290.0 0.00014105
7310.0 0.00015306
7330.0 0.00014794
7350.0 0.0001338
7370.0 0.00011642
7390.0 0.00011294
7410.0 0.00012002
7430.0 0.00013339
7450.0 0.00014529
7470.0 0.00014395
7490.0 0.00013126
7510.0 0.00014868
7530.0 0.00014706
7550.0 0.00013218
7570.0 0.00010325
7590.0 7.0983e-05
7610.0 6.0925e-05
7630.0 6.9222e-05
7650.0 8.1846e-05
7670.0 0.00010186
7690.0 0.00011209
7710.0 0.00011681
7730.0 0.00012276
7750.0 0.00013781
7770.0 0.00013998
7790.0 0.00012857
7810.0 0.00011732
7830.0 0.00012098
7850.0 0.0001176
7870.0 0.00010782
7890.0 9.0591e-05
7910.0 7.3638e-05
7930.0 7.0313e-05
7950.0 6.4057e-05
7970.0 5.9297e-05
7990.0 5.8958e-05
8010.0 4.3666e-06
8030.0 4.3098e-06
8050.0 4.2517e-06
8070.0 4.3074e-06
8090.0 4.6282e-06
8110.0 4.5493e-06
8130.0 3.7526e-06
8150.0 3.6546e-06
8170.0 3.1479e-06
8190.0 2.9833e-06
8210.0 3.8741e-06
8230.0 4.3133e-06
8250.0 3.8876e-06
8270.0 3.3836e-06
8290.0 3.2984e-06
8310.0 2.5386e-06
8330.0 1.711e-06
8350.0 1.2143e-06
8370.0 7.6504e-07
8390.0 1.3985e-06
8410.0 1.6296e-06
8430.0 2.0087e-06
8450.0 2.3588e-06
8470.0 2.9318e-06
8490.0 2.9112e-06
8510.0 2.8636e-06
8530.0 2.9885e-06
8550.0 4.0321e-06
8570.0 4.7735e-06
8590.0 5.1505e-06
8610.0 6.5062e-06
8630.0 7.8377e-06
8650.0 8.199e-06
8670.0 8.7131e-06
8690.0 8.7619e-06
8710.0 7.9351e-06
8730.0 7.3809e-06
8750.0 6.515e-06
8770.0 6.1818e-06
8790.0 6.0733e-06
8810.0 5.8195e-06
8830.0 4.6536e-06
8850.0 3.4068e-06
8870.0 2.6085e-06
8890.0 2.5502e-06
8910.0 2.9226e-06
8930.0 3.3243e-06
8950.0 3.3879e-06
8970.0 3.4039e-06
8990.0 3.0359e-06
9010.0 3.1815e-05
9030.0 2.8828e-05
9050.0 2.8967e-05
9070.0 2.9196e-05
9090.0 2.9396e-05
9110.0 2.9644e-05
9130.0 2.9835e-05
9150.0 2.9984e-05
9170.0 3.0142e-05
9190.0 3.0311e-05
9210.0 3.0489e-05
9230.0 3.0677e-05
9250.0 3.0868e-05
9270.0 3.1066e-05
9290.0 3.127e-05
9310.0 3.1475e-05
9330.0 3.1685e-05
9350.0 3.1902e-05
9370.0 3.2122e-05
9390.0 3.2343e-05
9410.0 3.2572e-05
9430.0 3.2807e-05
9450.0 3.3041e-05
9470.0 3.328e-05
9490.0 3.3526e-05
9510.0 3.3775e-05
9530.0 3.4026e-05
9550.0 3.4285e-05
9570.0 3.4548e-05
9590.0 3.4812e-05
9610.0 3.5081e-05
9630.0 3.5357e-05
9650.0 3.5635e-05
9670.0 3.5914e-05
9690.0 3.62e-05
9710.0 3.6491e-05
9730.0 3.6782e-05
9750.0 3.7078e-05
9770.0 3.7382e-05
9790.0 3.7686e-05
9810.0 3.7991e-05
9830.0 3.8303e-05
9850.0 3.8619e-05
9870.0 3.8934e-05
9890.0 3.9254e-05
9910.0 3.958e-05
9930.0 3.9906e-05
9950.0 4.0233e-05
9970.0 4.0567e-05
9990.0 4.0904e-05
10010.0 3.5494e-05
10030.0 3.5785e-05
10050.0 3.6082e-05
10070.0 3.639e-05
10090.0 3.668e-05
10110.0 3.6977e-05
10130.0 3.7275e-05
10150.0 3.7572e-05
10170.0 3.7873e-05
10190.0 3.8179e-05
10210.0 3.8481e-05
10230.0 3.8783e-05
10250.0 3.909e-05
10270.0 3.9396e-05
10290.0 3.9698e-05
10310.0 4.0004e-05
10330.0 4.0313e-05
10350.0 4.0617e-05
10370.0 4.092e-05
10390.0 4.1227e-05
10410.0 4.1532e-05
10430.0 4.1831e-05
10450.0 4.2133e-05
10470.0 4.2436e-05
10490.0 4.2734e-05
10510.0 4.3029e-05
10530.0 4.333e-05
10550.0 4.3625e-05
10570.0 4.3915e-05
10590.0 4.4206e-05
10610.0 4.4496e-05
10630.0 4.478e-05
10650.0 4.5061e-05
10670.0 4.5345e-05
10690.0 4.5624e-05
10710.0 4.5896e-05
10730.0 4.6169e-05
10750.0 4.6443e-05
10770.0 4.6705e-05
10790.0 4.6966e-05
10810.0 4.7226e-05
10830.0 4.7478e-05
10850.0 4.7717e-05
10870.0 4.7948e-05
10890.0 4.8153e-05
10910.0 4.831e-05
10930.0 4.8398e-05
10950.0 4.8377e-05
10970.0 4.8214e-05
10990.0 4.7892e-05
11010.0 4.7354e-05
11030.0 4.6601e-05
11050.0 4.5683e-05
11070.0 4.4585e-05
11090.0 4.3266e-05
11110.0 4.1901e-05
11130.0 4.0478e-05
11150.0 3.8946e-05
11170.0 3.7366e-05
11190.0 3.5834e-05
11210.0 3.4251e-05
11230.0 3.2629e-05
11250.0 3.1078e-05
11270.0 2.9589e-05
11290.0 2.8098e-05
11310.0 2.6685e-05
11330.0 2.544e-05
11350.0 2.4265e-05
11370.0 2.3178e-05
11390.0 2.2238e-05
11410.0 2.1416e-05
11430.0 2.0652e-05
11450.0 1.9994e-05
11470.0 1.9425e-05
11490.0 1.8895e-05
11510.0 1.8385e-05
11530.0 1.7911e-05
11550.0 1.7441e-05
11570.0 1.6939e-05
11590.0 1.6419e-05
11610.0 1.589e-05
11630.0 1.5314e-05
11650.0 1.4698e-05
11670.0 1.409e-05
11690.0 1.3474e-05
11710.0 1.2838e-05
11730.0 1.2222e-05
11750.0 1.1652e-05
11770.0 1.1093e-05
11790.0 1.057e-05
11810.0 1.0108e-05
11830.0 9.6959e-06
11850.0 9.316e-06
11870.0 8.9982e-06
11890.0 8.7341e-06
11910.0 8.5019e-06
11930.0 8.3024e-06
11950.0 8.1363e-06
11970.0 7.9878e-06
11990.0 7.8475e-06
12010.0 7.7177e-06
12030.0 7.5926e-06
12050.0 7.4633e-06
12070.0 7.3288e-06
12090.0 7.1991e-06
12110.0 7.0675e-06
12130.0 6.9356e-06
12150.0 6.814e-06
12170.0 6.7078e-06
12190.0 6.616e-06
12210.0 6.552e-06
12230.0 6.521e-06
12250.0 6.526e-06
12270.0 6.5752e-06
12290.0 6.6682e-06
12310.0 6.8016e-06
12330.0 6.9883e-06
12350.0 7.2213e-06
12370.0 7.4866e-06
12390.0 7.7925e-06
12410.0 8.1508e-06
12430.0 8.5151e-06
12450.0 8.8923e-06
12470.0 9.2934e-06
12490.0 9.6962e-06
12510.0 1.0074e-05
12530.0 1.045e-05
12550.0 1.0813e-05
12570.0 1.1133e-05
12590.0 1.1414e-05
12610.0 1.1664e-05
12630.0 1.1864e-05
12650.0 1.2002e-05
12670.0 1.2093e-05
12690.0 1.2129e-05
12710.0 1.2109e-05
12730.0 1.2039e-05
12750.0 1.1913e-05
12770.0 1.1742e-05
12790.0 1.1533e-05
12810.0 1.1284e-05
12830.0 1.0996e-05
12850.0 1.0695e-05
12870.0 1.0377e-05
12890.0 1.0032e-05
12910.0 9.6822e-06
12930.0 9.3371e-06
12950.0 8.9769e-06
12970.0 8.6103e-06
12990.0 8.2635e-06
13010.0 7.921e-06
13030.0 7.5746e-06
13050.0 7.242e-06
13070.0 6.9304e-06
13090.0 6.6177e-06
13110.0 6.3151e-06
13130.0 6.0362e-06
13150.0 5.772e-06
13170.0 5.5134e-06
13190.0 5.2832e-06
13210.0 5.0807e-06
13230.0 4.8955e-06
13250.0 4.7361e-06
13270.0 4.6103e-06
13290.0 4.5125e-06
13310.0 4.4451e-06
13330.0 4.4144e-06
13350.0 4.418e-06
13370.0 4.4576e-06
13390.0 4.5354e-06
13410.0 4.6406e-06
13430.0 4.7774e-06
13450.0 4.9463e-06
13470.0 5.1338e-06
13490.0 5.3324e-06
13510.0 5.5564e-06
13530.0 5.7835e-06
13550.0 6.0008e-06
13570.0 6.2152e-06
13590.0 6.424e-06
13610.0 6.6098e-06
13630.0 6.772e-06
13650.0 6.9201e-06
13670.0 7.0431e-06
13690.0 7.1381e-06
13710.0 7.2117e-06
13730.0 7.2642e-06
13750.0 7.2904e-06
13770.0 7.2964e-06
13790.0 7.2831e-06
13810.0 7.251e-06
13830.0 7.2035e-06
13850.0 7.1391e-06
13870.0 7.0579e-06
13890.0 6.9651e-06
13910.0 6.8605e-06
13930.0 6.7394e-06
13950.0 6.6072e-06
13970.0 6.472e-06
13990.0 6.3248e-06
14010.0 6.1682e-06
14030.0 6.012e-06
14050.0 5.8547e-06
14070.0 5.6885e-06
14090.0 5.5293e-06
14110.0 5.3797e-06
14130.0 5.2347e-06
14150.0 5.0982e-06
14170.0 4.9817e-06
14190.0 4.881e-06
14210.0 4.7955e-06
14230.0 4.7322e-06
14250.0 4.6913e-06
14270.0 4.6715e-06
14290.0 4.6757e-06
14310.0 4.7018e-06
14330.0 4.7486e-06
14350.0 4.8175e-06
14370.0 4.9032e-06
14390.0 5.0007e-06
14410.0 5.1155e-06
14430.0 5.2415e-06
14450.0 5.3702e-06
14470.0 5.5037e-06
14490.0 5.6458e-06
14510.0 5.7816e-06
14530.0 5.9105e-06
14550.0 6.0395e-06
14570.0 6.1632e-06
14590.0 6.2759e-06
14610.0 6.3849e-06
14630.0 6.4927e-06
14650.0 6.5932e-06
14670.0 6.6901e-06
14690.0 6.7913e-06
14710.0 6.8976e-06
14730.0 7.0039e-06
14750.0 7.1217e-06
14770.0 7.2554e-06
14790.0 7.4002e-06
14810.0 7.5572e-06
14830.0 7.7431e-06
14850.0 7.9452e-06
14870.0 8.1561e-06
14890.0 8.3836e-06
14910.0 8.6253e-06
14930.0 8.8576e-06
14950.0 9.0747e-06
14970.0 9.2802e-06
14990.0 9.4526e-06
15010.0 9.5844e-06
15030.0 9.682e-06
15050.0 9.7466e-06
15070.0 9.7781e-06
15090.0 9.7892e-06
15110.0 9.786e-06
15130.0 9.7736e-06
15150.0 9.7571e-06
15170.0 9.7376e-06
15190.0 9.7166e-06
15210.0 9.696e-06
15230.0 9.6754e-06
15250.0 9.654e-06
15270.0 9.6328e-06
15290.0 9.6129e-06
15310.0 9.5923e-06
15330.0 9.5715e-06
15350.0 9.5516e-06
15370.0 9.5318e-06
15390.0 9.511e-06
15410.0 9.4909e-06
15430.0 9.4714e-06
15450.0 9.4515e-06
15470.0 9.4312e-06
15490.0 9.412e-06
15510.0 9.3929e-06
15530.0 9.373e-06
15550.0 9.3536e-06
15570.0 9.3349e-06
15590.0 9.3153e-06
15610.0 9.2955e-06
15630.0 9.2768e-06
15650.0 9.258e-06
15670.0 9.2386e-06
15690.0 9.2198e-06
15710.0 9.2016e-06
15730.0 9.1825e-06
15750.0 9.1634e-06
15770.0 9.1451e-06
15790.0 9.1267e-06
15810.0 9.1073e-06
15830.0 9.0888e-06
15850.0 9.0708e-06
15870.0 9.0521e-06
15890.0 9.0334e-06
15910.0 9.0156e-06
15930.0 8.9973e-06
15950.0 8.9783e-06
15970.0 8.9601e-06
15990.0 8.9422e-06
16010.0 8.9236e-06
16030.0 8.9048e-06
16050.0 8.8872e-06
16070.0 8.8691e-06
16090.0 8.8505e-06
16110.0 8.8325e-06
16130.0 8.8149e-06
16150.0 8.796e-06
16170.0 8.7775e-06
16190.0 8.7598e-06
16210.0 8.7416e-06
16230.0 8.7229e-06
16250.0 8.705e-06
16270.0 8.6873e-06
16290.0 8.6687e-06
16310.0 8.6504e-06
16330.0 8.6326e-06
16350.0 8.6144e-06
16370.0 8.5952e-06
16390.0 8.5774e-06
16410.0 8.5595e-06
16430.0 8.5408e-06
16450.0 8.5224e-06
16470.0 8.5048e-06
16490.0 8.4862e-06
16510.0 8.4673e-06
16530.0 8.4492e-06
16550.0 8.4311e-06
16570.0 8.412e-06
16590.0 8.3932e-06
16610.0 8.3754e-06
16630.0 8.3568e-06
16650.0 8.3379e-06
16670.0 8.3196e-06
16690.0 8.3014e-06
16710.0 8.2819e-06
16730.0 8.2631e-06
16750.0 8.2448e-06
16770.0 8.2258e-06
16790.0 8.2065e-06
16810.0 8.1881e-06
16830.0 8.1695e-06
16850.0 8.1501e-06
16870.0 8.1311e-06
16890.0 8.1126e-06
16910.0 8.0931e-06
16930.0 8.0733e-06
16950.0 8.0546e-06
16970.0 8.0355e-06
16990.0 8.0158e-06
17010.0 7.9966e-06
17030.0 7.9778e-06
17050.0 7.958e-06
17070.0 7.9382e-06
17090.0 7.9191e-06
17110.0 7.8997e-06
17130.0 7.8793e-06
17150.0 7.8597e-06
17170.0 7.8405e-06
17190.0 7.8205e-06
17210.0 7.8004e-06
17230.0 7.7812e-06
17250.0 7.7613e-06
17270.0 7.7406e-06
17290.0 7.7207e-06
17310.0 7.701e-06
17330.0 7.6805e-06
17350.0 7.6599e-06
17370.0 7.6403e-06
17390.0 7.6201e-06
17410.0 7.5994e-06
17430.0 7.5792e-06
17450.0 7.5594e-06
17470.0 7.5381e-06
17490.0 7.5173e-06
17510.0 7.4972e-06
17530.0 7.4766e-06
17550.0 7.4553e-06
17570.0 7.4349e-06
17590.0 7.4147e-06
17610.0 7.3934e-06
17630.0 7.3723e-06
17650.0 7.3519e-06
17670.0 7.3309e-06
17690.0 7.3089e-06
17710.0 7.2883e-06
17730.0 7.2675e-06
17750.0 7.246e-06
17770.0 7.2247e-06
17790.0 7.2042e-06
17810.0 7.1826e-06
17830.0 7.1608e-06
17850.0 7.1397e-06
17870.0 7.1185e-06
17890.0 7.0965e-06
17910.0 7.0747e-06
17930.0 7.0539e-06
17950.0 7.0322e-06
17970.0 7.0102e-06
17990.0 6.989e-06
18010.0 6.9676e-06
18030.0 6.945e-06
18050.0 6.9232e-06
18070.0 6.9018e-06
18090.0 6.8798e-06
18110.0 6.8574e-06
18130.0 6.836e-06
18150.0 6.8143e-06
18170.0 6.7918e-06
18190.0 6.7699e-06
18210.0 6.7484e-06
18230.0 6.7258e-06
18250.0 6.7031e-06
18270.0 6.6814e-06
18290.0 6.6594e-06
18310.0 6.6368e-06
18330.0 6.6147e-06
18350.0 6.593e-06
18370.0 6.5703e-06
18390.0 6.5477e-06
18410.0 6.5258e-06
18430.0 6.5035e-06
18450.0 6.4803e-06
18470.0 6.458e-06
18490.0 6.4361e-06
18510.0 6.4134e-06
18530.0 6.3907e-06
18550.0 6.3689e-06
18570.0 6.3463e-06
18590.0 6.3231e-06
18610.0 6.3007e-06
18630.0 6.2785e-06
18650.0 6.2555e-06
18670.0 6.2325e-06
18690.0 6.2106e-06
18710.0 6.188e-06
18730.0 6.1649e-06
18750.0 6.1425e-06
18770.0 6.1204e-06
18790.0 6.0969e-06
18810.0 6.074e-06
18830.0 6.0518e-06
18850.0 6.029e-06
18870.0 6.0058e-06
18890.0 5.9834e-06
18910.0 5.9611e-06
18930.0 5.9379e-06
18950.0 5.915e-06
18970.0 5.8928e-06
18990.0 5.8699e-06
19010.0 5.8462e-06
19030.0 5.8239e-06
19050.0 5.8015e-06
19070.0 5.7783e-06
19090.0 5.7555e-06
19110.0 5.7334e-06
19130.0 5.7103e-06
19150.0 5.687e-06
19170.0 5.6646e-06
19190.0 5.642e-06
19210.0 5.6186e-06
19230.0 5.5957e-06
19250.0 5.5735e-06
19270.0 5.5506e-06
19290.0 5.5275e-06
19310.0 5.5052e-06
19330.0 5.4827e-06
19350.0 5.4591e-06
19370.0 5.4363e-06
19390.0 5.414e-06
19410.0 5.391e-06
19430.0 5.3678e-06
19450.0 5.3457e-06
19470.0 5.3231e-06
19490.0 5.2999e-06
19510.0 5.2773e-06
19530.0 5.2551e-06
19550.0 5.2319e-06
19570.0 5.2086e-06
19590.0 5.1865e-06
19610.0 5.1639e-06
19630.0 5.1408e-06
19650.0 5.1183e-06
19670.0 5.0963e-06
19690.0 5.0731e-06
19710.0 5.0502e-06
19730.0 5.028e-06
19750.0 5.0055e-06
19770.0 4.9821e-06
19790.0 4.9597e-06
19810.0 4.9376e-06
19830.0 4.9146e-06
19850.0 4.8916e-06
19870.0 4.8689e-06
19890.0 4.8446e-06
19910.0 4.8179e-06
19930.0 4.7893e-06
19950.0 4.7566e-06
19970.0 4.7163e-06
19990.0 4.6679e-06
20010.0 4.153e-06
20030.0 4.0929e-06
20050.0 4.0225e-06
20070.0 3.9463e-06
20090.0 3.8643e-06
20110.0 3.7716e-06
20130.0 3.6777e-06
20150.0 3.5846e-06
20170.0 3.4881e-06
20190.0 3.3903e-06
20210.0 3.2979e-06
20230.0 3.2077e-06
20250.0 3.1174e-06
20270.0 3.0336e-06
20290.0 2.957e-06
20310.0 2.8843e-06
20330.0 2.8163e-06
20350.0 2.7599e-06
20370.0 2.7098e-06
20390.0 2.6658e-06
20410.0 2.6304e-06
20430.0 2.603e-06
20450.0 2.5814e-06
20470.0 2.5668e-06
20490.0 2.559e-06
20510.0 2.5568e-06
20530.0 2.56e-06
20550.0 2.5679e-06
20570.0 2.5794e-06
20590.0 2.5949e-06
20610.0 2.6138e-06
20630.0 2.6345e-06
20650.0 2.6578e-06
20670.0 2.6843e-06
20690.0 2.7114e-06
20710.0 2.7394e-06
20730.0 2.7696e-06
20750.0 2.8011e-06
20770.0 2.8321e-06
20790.0 2.8646e-06
20810.0 2.8991e-06
20830.0 2.9333e-06
20850.0 2.9677e-06
20870.0 3.0046e-06
20890.0 3.0422e-06
20910.0 3.0784e-06
20930.0 3.116e-06
20950.0 3.155e-06
20970.0 3.193e-06
20990.0 3.2304e-06
21010.0 3.2699e-06
21030.0 3.3084e-06
21050.0 3.3452e-06
21070.0 3.3819e-06
21090.0 3.4187e-06
21110.0 3.4523e-06
21130.0 3.4838e-06
21150.0 3.5144e-06
21170.0 3.5421e-06
21190.0 3.5659e-06
21210.0 3.5873e-06
21230.0 3.6051e-06
21250.0 3.6178e-06
21270.0 3.6259e-06
21290.0 3.6289e-06
21310.0 3.626e-06
21330.0 3.6174e-06
21350.0 3.6024e-06
21370.0 3.5804e-06
21390.0 3.5523e-06
21410.0 3.518e-06
21430.0 3.4745e-06
21450.0 3.4257e-06
21470.0 3.3726e-06
21490.0 3.3124e-06
21510.0 3.2465e-06
21530.0 3.1795e-06
21550.0 3.1093e-06
21570.0 3.0345e-06
21590.0 2.9608e-06
21610.0 2.8897e-06
21630.0 2.8185e-06
21650.0 2.7489e-06
21670.0 2.6886e-06
21690.0 2.633e-06
21710.0 2.5829e-06
21730.0 2.5419e-06
21750.0 2.5102e-06
21770.0 2.4861e-06
21790.0 2.4723e-06
21810.0 2.4684e-06
21830.0 2.4739e-06
21850.0 2.4894e-06
21870.0 2.5135e-06
21890.0 2.5446e-06
21910.0 2.5846e-06
21930.0 2.6314e-06
21950.0 2.6822e-06
21970.0 2.7385e-06
21990.0 2.8016e-06
22010.0 2.8647e-06
22030.0 2.9287e-06
22050.0 2.996e-06
22070.0 3.0637e-06
22090.0 3.1278e-06
22110.0 3.1924e-06
22130.0 3.2568e-06
22150.0 3.3171e-06
22170.0 3.3738e-06
22190.0 3.4301e-06
22210.0 3.4825e-06
22230.0 3.5286e-06
22250.0 3.5719e-06
22270.0 3.6119e-06
22290.0 3.646e-06
22310.0 3.6754e-06
22330.0 3.7012e-06
22350.0 3.7211e-06
22370.0 3.7352e-06
22390.0 3.744e-06
22410.0 3.7468e-06
22430.0 3.7432e-06
22450.0 3.7336e-06
22470.0 3.7169e-06
22490.0 3.6935e-06
22510.0 3.6643e-06
22530.0 3.627e-06
22550.0 3.5816e-06
22570.0 3.5312e-06
22590.0 3.4744e-06
22610.0 3.4091e-06
22630.0 3.3384e-06
