#lamb flux
1010.0 6.4107e-06
1030.0 6.7012e-06
1050.0 7.0381e-06
1070.0 7.4184e-06
1090.0 7.8508e-06
1110.0 8.2963e-06
1130.0 8.7471e-06
1150.0 9.2218e-06
1170.0 9.7142e-06
1190.0 1.0185e-05
1210.0 1.0666e-05
1230.0 1.1166e-05
1250.0 1.166e-05
1270.0 1.2146e-05
1290.0 1.2661e-05
1310.0 1.3182e-05
1330.0 1.3688e-05
1350.0 1.4205e-05
1370.0 1.4743e-05
1390.0 1.5274e-05
1410.0 1.5797e-05
1430.0 1.6348e-05
1450.0 1.6906e-05
1470.0 1.7453e-05
1490.0 1.8011e-05
1510.0 1.8603e-05
1530.0 1.9173e-05
1550.0 1.9741e-05
1570.0 2.0331e-05
1590.0 2.0925e-05
1610.0 2.1499e-05
1630.0 2.209e-05
1650.0 2.2696e-05
1670.0 2.3283e-05
1690.0 2.3863e-05
1710.0 2.4459e-05
1730.0 2.5054e-05
1750.0 2.5611e-05
1770.0 2.6175e-05
1790.0 2.6741e-05
1810.0 2.728e-05
1830.0 2.7797e-05
1850.0 2.8333e-05
1870.0 2.8839e-05
1890.0 2.9313e-05
1910.0 2.9781e-05
1930.0 3.0244e-05
1950.0 3.0665e-05
1970.0 3.1063e-05
1990.0 3.1462e-05
2010.0 3.1836e-05
2030.0 3.2175e-05
2050.0 3.2514e-05
2070.0 3.2853e-05
2090.0 3.3151e-05
2110.0 3.3438e-05
2130.0 3.3732e-05
2150.0 3.4013e-05
2170.0 3.4272e-05
2190.0 3.4551e-05
2210.0 3.4838e-05
2230.0 3.5115e-05
2250.0 3.5403e-05
2270.0 3.5728e-05
2290.0 3.6059e-05
2310.0 3.6396e-05
2330.0 3.6775e-05
2350.0 3.7191e-05
2370.0 3.7624e-05
2390.0 3.8101e-05
2410.0 3.8644e-05
2430.0 3.922e-05
2450.0 3.9835e-05
2470.0 4.0514e-05
2490.0 4.1257e-05
2510.0 4.2056e-05
2530.0 4.3009e-05
2550.0 4.4282e-05
2570.0 4.6083e-05
2590.0 4.8685e-05
2610.0 5.2736e-05
2630.0 5.8551e-05
2650.0 6.6024e-05
2670.0 7.5378e-05
2690.0 8.6509e-05
2710.0 9.8251e-05
2730.0 0.00010998
2750.0 0.00012189
2770.0 0.00013317
2790.0 0.00014355
2810.0 0.00015362
2830.0 0.00016385
2850.0 0.00017379
2870.0 0.00018398
2890.0 0.00019487
2910.0 0.00020628
2930.0 0.00021792
2950.0 0.00023038
2970.0 0.00024357
2990.0 0.00025704
3010.0 0.00051053
3030.0 0.00053794
3050.0 0.00056544
3070.0 0.00059088
3090.0 0.00061309
3110.0 0.00062689
3130.0 0.00062602
3150.0 0.00060347
3170.0 0.00054508
3190.0 0.00044898
3210.0 0.00031621
3230.0 0.0001659
3250.0 0.0003255
3270.0 0.00013491
3290.0 0.00050656
3310.0 9.3465e-05
3330.0 9.2253e-05
3350.0 0.00014469
3370.0 0.00020522
3390.0 0.00026987
3410.0 0.00033429
3430.0 0.0004018
3450.0 0.00046921
3470.0 0.00053087
3490.0 0.0005713
3510.0 0.00071878
3530.0 0.00099188
3550.0 0.00097624
3570.0 0.00079467
3590.0 0.0011542
3610.0 0.00069407
3630.0 0.0012004
3650.0 0.0013928
3670.0 0.0018188
3690.0 0.0017078
3710.0 0.0011422
3730.0 0.0015543
3750.0 0.0016122
3770.0 0.0016768
3790.0 0.0015241
3810.0 0.0013788
3830.0 0.0020519
3850.0 0.0023097
3870.0 0.0028885
3890.0 0.0027103
3910.0 0.0023961
3930.0 0.0025347
3950.0 0.0028372
3970.0 0.0036255
3990.0 0.0027312
4010.0 0.0016425
4030.0 0.0024271
4050.0 0.0028115
4070.0 0.0032147
4090.0 0.0026861
4110.0 0.0017347
4130.0 0.0024417
4150.0 0.0022748
4170.0 0.0023704
4190.0 0.0023264
4210.0 0.0030041
4230.0 0.0020395
4250.0 0.0024279
4270.0 0.0024228
4290.0 0.0024248
4310.0 0.0030283
4330.0 0.00312
4350.0 0.002364
4370.0 0.0019921
4390.0 0.0025144
4410.0 0.0026117
4430.0 0.0019808
4450.0 0.0019804
4470.0 0.0023518
4490.0 0.0017002
4510.0 0.0021445
4530.0 0.0022937
4550.0 0.0030484
4570.0 0.0044973
4590.0 0.0042662
4610.0 0.0027029
4630.0 0.004571
4650.0 0.0066917
4670.0 0.0061632
4690.0 0.0035416
4710.0 0.0039137
4730.0 0.0051882
4750.0 0.0046137
4770.0 0.0034589
4790.0 0.0022982
4810.0 0.0034159
4830.0 0.0039739
4850.0 0.0034408
4870.0 0.00098418
4890.0 0.0037134
4910.0 0.0052891
4930.0 0.00568
4950.0 0.0055337
4970.0 0.0032501
4990.0 0.0038035
5010.0 0.0046053
5030.0 0.0051786
5050.0 0.005165
5070.0 0.0036873
5090.0 0.0029889
5110.0 0.0027956
5130.0 0.0024897
5150.0 0.0028287
5170.0 0.0024411
5190.0 0.0030682
5210.0 0.0030727
5230.0 0.0033885
5250.0 0.0043017
5270.0 0.0035338
5290.0 0.0034598
5310.0 0.0052679
5330.0 0.0061645
5350.0 0.0050967
5370.0 0.0043926
5390.0 0.0051253
5410.0 0.0065726
5430.0 0.0072867
5450.0 0.0077849
5470.0 0.0077353
5490.0 0.007514
5510.0 0.0088901
5530.0 0.0092612
5550.0 0.010021
5570.0 0.010756
5590.0 0.010709
5610.0 0.010116
5630.0 0.0097762
5650.0 0.010039
5670.0 0.0099522
5690.0 0.0084476
5710.0 0.0082275
5730.0 0.0084622
5750.0 0.009339
5770.0 0.0080661
5790.0 0.0073809
5810.0 0.0074865
5830.0 0.0079401
5850.0 0.0072581
5870.0 0.0073796
5890.0 0.0089604
5910.0 0.0085355
5930.0 0.0069106
5950.0 0.005977
5970.0 0.0065281
5990.0 0.0060624
6010.0 0.0057566
6030.0 0.0059276
6050.0 0.0055225
6070.0 0.0040636
6090.0 0.00363
6110.0 0.004824
6130.0 0.0056197
6150.0 0.0058935
6170.0 0.0056633
6190.0 0.0052308
6210.0 0.0051234
6230.0 0.006088
6250.0 0.0056273
6270.0 0.0051535
6290.0 0.0047682
6310.0 0.00452
6330.0 0.0042988
6350.0 0.0037372
6370.0 0.0036997
6390.0 0.0044001
6410.0 0.0055008
6430.0 0.0063221
6450.0 0.0058852
6470.0 0.0057084
6490.0 0.0072342
6510.0 0.0083981
6530.0 0.007918
6550.0 0.0075605
6570.0 0.0076813
6590.0 0.0074493
6610.0 0.0081351
6630.0 0.0076078
6650.0 0.0066352
6670.0 0.0059639
6690.0 0.0058474
6710.0 0.0073229
6730.0 0.0066764
6750.0 0.0055994
6770.0 0.0049549
6790.0 0.0052147
6810.0 0.0058778
6830.0 0.0057527
6850.0 0.0051817
6870.0 0.005405
6890.0 0.00534
6910.0 0.005031
6930.0 0.0058152
6950.0 0.0053389
6970.0 0.0049289
6990.0 0.0048898
7010.0 0.004697
7030.0 0.0044506
7050.0 0.0043358
7070.0 0.0048015
7090.0 0.0045718
7110.0 0.0039185
7130.0 0.0031356
7150.0 0.0028604
7170.0 0.0038796
7190.0 0.0042376
7210.0 0.0040444
7230.0 0.0041831
7250.0 0.003852
7270.0 0.0036419
7290.0 0.0040776
7310.0 0.0046245
7330.0 0.0045588
7350.0 0.0042577
7370.0 0.0040199
7390.0 0.0041753
7410.0 0.0048882
7430.0 0.0053615
7450.0 0.0056671
7470.0 0.0055266
7490.0 0.0057563
7510.0 0.005557
7530.0 0.0055032
7550.0 0.0054613
7570.0 0.0048056
7590.0 0.0047556
7610.0 0.0045925
7630.0 0.0041942
7650.0 0.0045579
7670.0 0.0049645
7690.0 0.0053775
7710.0 0.0060339
7730.0 0.0064049
7750.0 0.0066749
7770.0 0.0066951
7790.0 0.0073375
7810.0 0.0075379
7830.0 0.0068612
7850.0 0.0069005
7870.0 0.0065645
7890.0 0.0068859
7910.0 0.0065175
7930.0 0.0065673
7950.0 0.0057152
7970.0 0.0058457
7990.0 0.0055803
8010.0 0.0056625
8030.0 0.0056251
8050.0 0.005915
8070.0 0.0056738
8090.0 0.005683
8110.0 0.0055502
8130.0 0.0055397
8150.0 0.0052728
8170.0 0.0051259
8190.0 0.0050618
8210.0 0.0050941
8230.0 0.0044853
8250.0 0.0040915
8270.0 0.0035945
8290.0 0.0030085
8310.0 0.0026078
8330.0 0.0020854
8350.0 0.0017362
8370.0 0.0017558
8390.0 0.0017533
8410.0 0.0018382
8430.0 0.0022788
8450.0 0.002444
8470.0 0.0025903
8490.0 0.0029884
8510.0 0.0032481
8530.0 0.003727
8550.0 0.0043999
8570.0 0.0048672
8590.0 0.0051766
8610.0 0.0056586
8630.0 0.0062712
8650.0 0.0063751
8670.0 0.0064493
8690.0 0.0066998
8710.0 0.0065968
8730.0 0.0064805
8750.0 0.0060731
8770.0 0.0060705
8790.0 0.0059826
8810.0 0.0055045
8830.0 0.0055089
8850.0 0.0051425
8870.0 0.0049299
8890.0 0.0044684
8910.0 0.0048316
8930.0 0.0043924
8950.0 0.0043311
8970.0 0.0043562
8990.0 0.0042053
9010.0 0.0042938
9030.0 0.0041067
9050.0 0.0040845
9070.0 0.0040812
9090.0 0.0040771
9110.0 0.0040748
9130.0 0.0040692
9150.0 0.0040622
9170.0 0.0040447
9190.0 0.0040108
9210.0 0.0040629
9230.0 0.0040415
9250.0 0.0040267
9270.0 0.004013
9290.0 0.004
9310.0 0.0039873
9330.0 0.0039747
9350.0 0.0039618
9370.0 0.0039487
9390.0 0.0039352
9410.0 0.0039213
9430.0 0.003907
9450.0 0.0038922
9470.0 0.0038772
9490.0 0.003862
9510.0 0.0038465
9530.0 0.0038308
9550.0 0.0038148
9570.0 0.0037985
9590.0 0.0037821
9610.0 0.0037655
9630.0 0.0037487
9650.0 0.0037319
9670.0 0.003715
9690.0 0.003698
9710.0 0.0036809
9730.0 0.0036638
9750.0 0.0036467
9770.0 0.0036297
9790.0 0.0036127
9810.0 0.0035956
9830.0 0.0035787
9850.0 0.0035619
9870.0 0.0035451
9890.0 0.0035284
9910.0 0.003512
9930.0 0.0034955
9950.0 0.0034705
9970.0 0.0034571
9990.0 0.0034434
10010.0 0.0034295
10030.0 0.0034151
10050.0 0.0033995
10070.0 0.0033799
10090.0 0.0033672
10110.0 0.003354
10130.0 0.0033407
10150.0 0.0033275
10170.0 0.0033141
10190.0 0.0033003
10210.0 0.0032873
10230.0 0.0032745
10250.0 0.0032616
10270.0 0.0032491
10290.0 0.0032372
10310.0 0.0032252
10330.0 0.0032133
10350.0 0.0032021
10370.0 0.0031912
10390.0 0.0031803
10410.0 0.0031697
10430.0 0.0031599
10450.0 0.00315
10470.0 0.0031402
10490.0 0.0031311
10510.0 0.0031223
10530.0 0.0031133
10550.0 0.0031048
10570.0 0.0030969
10590.0 0.0030891
10610.0 0.0030814
10630.0 0.0030744
10650.0 0.0030676
10670.0 0.0030606
10690.0 0.0030542
10710.0 0.0030483
10730.0 0.0030424
10750.0 0.0030365
10770.0 0.0030314
10790.0 0.0030265
10810.0 0.0030215
10830.0 0.0030168
10850.0 0.0030125
10870.0 0.0030074
10890.0 0.0030016
10910.0 0.0029946
10930.0 0.0029849
10950.0 0.0029702
10970.0 0.0029499
10990.0 0.0029236
11010.0 0.0029073
11030.0 0.0028642
11050.0 0.0028138
11070.0 0.0027555
11090.0 0.002688
11110.0 0.0026204
11130.0 0.0025526
11150.0 0.0024826
11170.0 0.0024138
11190.0 0.0023502
11210.0 0.0022877
11230.0 0.0022268
11250.0 0.0021714
11270.0 0.0021205
11290.0 0.0020712
11310.0 0.0020259
11330.0 0.0019869
11350.0 0.00195
11370.0 0.0019154
11390.0 0.0018845
11410.0 0.0018561
11430.0 0.0018274
11450.0 0.0018002
11470.0 0.0017743
11490.0 0.0017477
11510.0 0.0017195
11530.0 0.0016917
11550.0 0.0016631
11570.0 0.0016318
11590.0 0.0015994
11610.0 0.0015668
11630.0 0.0015316
11650.0 0.0014941
11670.0 0.0014576
11690.0 0.0014206
11710.0 0.0013819
11730.0 0.0013438
11750.0 0.0013079
11770.0 0.0012712
11790.0 0.0012352
11810.0 0.001202
11830.0 0.0011703
11850.0 0.0011386
11870.0 0.0011097
11890.0 0.0010836
11910.0 0.0010582
11930.0 0.0010341
11950.0 0.0010125
11970.0 0.00099181
11990.0 0.00097123
12010.0 0.00095228
12030.0 0.00093467
12050.0 0.00091713
12070.0 0.00089988
12090.0 0.00088468
12110.0 0.00086996
12130.0 0.00085563
12150.0 0.00084282
12170.0 0.00083173
12190.0 0.00082128
12210.0 0.00081289
12230.0 0.00080706
12250.0 0.00080348
12270.0 0.00080246
12290.0 0.00080458
12310.0 0.0008097
12330.0 0.00081802
12350.0 0.00082959
12370.0 0.00084382
12390.0 0.00086084
12410.0 0.00088109
12430.0 0.00090245
12450.0 0.00092495
12470.0 0.00094891
12490.0 0.00097316
12510.0 0.00099636
12530.0 0.0010195
12550.0 0.0010419
12570.0 0.0010624
12590.0 0.0010811
12610.0 0.0010986
12630.0 0.0011141
12650.0 0.0011272
12670.0 0.0011387
12690.0 0.0011484
12710.0 0.0011563
12730.0 0.0011626
12750.0 0.0011673
12770.0 0.0011705
12790.0 0.0011724
12810.0 0.0011729
12830.0 0.0011718
12850.0 0.0011698
12870.0 0.0011666
12890.0 0.0011618
12910.0 0.0011559
12930.0 0.0011491
12950.0 0.0011405
12970.0 0.0011302
12990.0 0.0011195
13010.0 0.0011075
13030.0 0.0010937
13050.0 0.0010792
13070.0 0.0010644
13090.0 0.0010482
13110.0 0.0010313
13130.0 0.0010148
13150.0 0.00099831
13170.0 0.00098124
13190.0 0.00096564
13210.0 0.00095172
13230.0 0.00093865
13250.0 0.00092725
13270.0 0.00091834
13290.0 0.00091129
13310.0 0.00090606
13330.0 0.0009032
13350.0 0.00090226
13370.0 0.00090279
13390.0 0.00090456
13410.0 0.00090708
13430.0 0.00090982
13450.0 0.00091229
13470.0 0.00091402
13490.0 0.00091469
13510.0 0.00091376
13530.0 0.00091111
13550.0 0.00090689
13570.0 0.00090091
13590.0 0.00089305
13610.0 0.0008841
13630.0 0.00087442
13650.0 0.0008635
13670.0 0.00085221
13690.0 0.00084122
13710.0 0.00083018
13730.0 0.00081893
13750.0 0.00080889
13770.0 0.00079947
13790.0 0.00079033
13810.0 0.00078181
13830.0 0.00077414
13850.0 0.00076659
13870.0 0.00075918
13890.0 0.00075221
13910.0 0.0007454
13930.0 0.00073834
13950.0 0.00073133
13970.0 0.00072468
13990.0 0.00071788
14010.0 0.00071107
14030.0 0.00070465
14050.0 0.00069855
14070.0 0.00069251
14090.0 0.00068709
14110.0 0.00068232
14130.0 0.00067803
14150.0 0.00067433
14170.0 0.0006714
14190.0 0.00066911
14210.0 0.00066745
14230.0 0.00066648
14250.0 0.00066613
14270.0 0.00066646
14290.0 0.00066749
14310.0 0.000669
14330.0 0.00067104
14350.0 0.00067371
14370.0 0.00067671
14390.0 0.00067984
14410.0 0.00068338
14430.0 0.00068704
14450.0 0.00069048
14470.0 0.00069381
14490.0 0.00069717
14510.0 0.00070006
14530.0 0.00070252
14550.0 0.00070488
14570.0 0.00070705
14590.0 0.00070894
14610.0 0.00071092
14630.0 0.00071326
14650.0 0.00071581
14670.0 0.00071876
14690.0 0.0007226
14710.0 0.00072743
14730.0 0.00073276
14750.0 0.00073928
14770.0 0.00074719
14790.0 0.00075594
14810.0 0.00076542
14830.0 0.00077674
14850.0 0.00078871
14870.0 0.00080071
14890.0 0.00081325
14910.0 0.00082608
14930.0 0.0008377
14950.0 0.00084785
14970.0 0.00085683
14990.0 0.00086343
15010.0 0.00086736
15030.0 0.00086908
15050.0 0.00086874
15070.0 0.00086644
15090.0 0.00086292
15110.0 0.00085856
15130.0 0.00085367
15150.0 0.00084855
15170.0 0.00084324
15190.0 0.00083783
15210.0 0.00083245
15230.0 0.00082707
15250.0 0.00082163
15270.0 0.00081621
15290.0 0.00081086
15310.0 0.00080547
15330.0 0.00080008
15350.0 0.00079473
15370.0 0.00078941
15390.0 0.00078402
15410.0 0.00077868
15430.0 0.0007734
15450.0 0.0007681
15470.0 0.00076278
15490.0 0.00075754
15510.0 0.00075232
15530.0 0.00074707
15550.0 0.00074187
15570.0 0.00073672
15590.0 0.00073154
15610.0 0.00072636
15630.0 0.00072128
15650.0 0.0007162
15670.0 0.00071111
15690.0 0.00070608
15710.0 0.00070111
15730.0 0.0006961
15750.0 0.00069113
15770.0 0.00068622
15790.0 0.00068134
15810.0 0.00067642
15830.0 0.00067159
15850.0 0.00066681
15870.0 0.00066202
15890.0 0.00065726
15910.0 0.00065258
15930.0 0.00064791
15950.0 0.00064322
15970.0 0.00063861
15990.0 0.00063405
16010.0 0.00062948
16030.0 0.00062494
16050.0 0.00062049
16070.0 0.00061605
16090.0 0.00061162
16110.0 0.00060725
16130.0 0.00060295
16150.0 0.0005986
16170.0 0.00059431
16190.0 0.0005901
16210.0 0.0005859
16230.0 0.0005817
16250.0 0.00057758
16270.0 0.00057352
16290.0 0.00056944
16310.0 0.0005654
16330.0 0.00056144
16350.0 0.00055749
16370.0 0.00055352
16390.0 0.00054966
16410.0 0.00054583
16430.0 0.000542
16450.0 0.00053822
16470.0 0.00053452
16490.0 0.0005308
16510.0 0.00052711
16530.0 0.00052349
16550.0 0.0005199
16570.0 0.00051631
16590.0 0.00051276
16610.0 0.0005093
16630.0 0.00050584
16650.0 0.00050239
16670.0 0.00049902
16690.0 0.00049568
16710.0 0.00049231
16730.0 0.00048901
16750.0 0.00048578
16770.0 0.00048254
16790.0 0.00047932
16810.0 0.00047619
16830.0 0.00047307
16850.0 0.00046995
16870.0 0.00046689
16890.0 0.00046388
16910.0 0.00046086
16930.0 0.00045786
16950.0 0.00045494
16970.0 0.00045204
16990.0 0.00044914
17010.0 0.0004463
17030.0 0.00044351
17050.0 0.0004407
17070.0 0.00043793
17090.0 0.00043522
17110.0 0.00043252
17130.0 0.00042981
17150.0 0.00042717
17170.0 0.00042458
17190.0 0.00042198
17210.0 0.00041941
17230.0 0.0004169
17250.0 0.0004144
17270.0 0.00041188
17290.0 0.00040944
17310.0 0.00040703
17330.0 0.00040461
17350.0 0.00040221
17370.0 0.00039989
17390.0 0.00039757
17410.0 0.00039525
17430.0 0.00039299
17450.0 0.00039076
17470.0 0.0003885
17490.0 0.00038628
17510.0 0.00038412
17530.0 0.00038197
17550.0 0.00037981
17570.0 0.00037771
17590.0 0.00037565
17610.0 0.00037356
17630.0 0.00037151
17650.0 0.00036951
17670.0 0.00036751
17690.0 0.00036548
17710.0 0.00036355
17730.0 0.00036163
17750.0 0.00035969
17770.0 0.00035779
17790.0 0.00035595
17810.0 0.00035408
17830.0 0.00035222
17850.0 0.00035041
17870.0 0.00034863
17890.0 0.00034682
17910.0 0.00034505
17930.0 0.00034334
17950.0 0.00034161
17970.0 0.00033988
17990.0 0.00033821
18010.0 0.00033656
18030.0 0.00033487
18050.0 0.00033323
18070.0 0.00033163
18090.0 0.00033001
18110.0 0.0003284
18130.0 0.00032686
18150.0 0.00032532
18170.0 0.00032376
18190.0 0.00032223
18210.0 0.00032075
18230.0 0.00031924
18250.0 0.00031773
18270.0 0.00031629
18290.0 0.00031485
18310.0 0.0003134
18330.0 0.00031198
18350.0 0.00031061
18370.0 0.0003092
18390.0 0.00030781
18410.0 0.00030646
18430.0 0.00030511
18450.0 0.00030374
18470.0 0.00030242
18490.0 0.00030113
18510.0 0.00029982
18530.0 0.00029853
18550.0 0.00029728
18570.0 0.00029602
18590.0 0.00029474
18610.0 0.0002935
18630.0 0.00029229
18650.0 0.00029106
18670.0 0.00028984
18690.0 0.00028868
18710.0 0.0002875
18730.0 0.00028631
18750.0 0.00028516
18770.0 0.00028403
18790.0 0.00028286
18810.0 0.00028172
18830.0 0.00028062
18850.0 0.00027951
18870.0 0.00027839
18890.0 0.00027732
18910.0 0.00027626
18930.0 0.00027517
18950.0 0.0002741
18970.0 0.00027307
18990.0 0.00027202
19010.0 0.00027095
19030.0 0.00026995
19050.0 0.00026894
19070.0 0.00026792
19090.0 0.00026692
19110.0 0.00026596
19130.0 0.00026496
19150.0 0.00026396
19170.0 0.00026301
19190.0 0.00026206
19210.0 0.00026108
19230.0 0.00026013
19250.0 0.00025922
19270.0 0.00025829
19290.0 0.00025735
19310.0 0.00025645
19330.0 0.00025556
19350.0 0.00025462
19370.0 0.00025372
19390.0 0.00025285
19410.0 0.00025196
19430.0 0.00025106
19450.0 0.00025022
19470.0 0.00024936
19490.0 0.00024849
19510.0 0.00024764
19530.0 0.00024681
19550.0 0.00024595
19570.0 0.00024509
19590.0 0.00024429
19610.0 0.00024347
19630.0 0.00024263
19650.0 0.00024183
19670.0 0.00024104
19690.0 0.00024022
19710.0 0.00023941
19730.0 0.00023864
19750.0 0.00023785
19770.0 0.00023703
19790.0 0.00023626
19810.0 0.0002355
19830.0 0.00023471
19850.0 0.00023392
19870.0 0.00023315
19890.0 0.00023231
19910.0 0.00023136
19930.0 0.00023031
19950.0 0.00022907
19970.0 0.00022749
19990.0 0.00022554
20010.0 0.00022328
20030.0 0.00022052
20050.0 0.00021728
20070.0 0.0002138
20090.0 0.00021008
20110.0 0.00020593
20130.0 0.00020179
20150.0 0.00019777
20170.0 0.00019366
20190.0 0.00018955
20210.0 0.00018574
20230.0 0.00018207
20250.0 0.00017844
20270.0 0.00017512
20290.0 0.00017215
20310.0 0.00016937
20330.0 0.00016683
20350.0 0.00016481
20370.0 0.00016311
20390.0 0.00016174
20410.0 0.0001608
20430.0 0.00016026
20450.0 0.00016009
20470.0 0.00016034
20490.0 0.00016096
20510.0 0.00016194
20530.0 0.00016331
20550.0 0.00016497
20570.0 0.00016684
20590.0 0.00016902
20610.0 0.00017141
20630.0 0.00017386
20650.0 0.00017642
20670.0 0.00017916
20690.0 0.00018178
20710.0 0.00018429
20730.0 0.00018677
20750.0 0.00018911
20770.0 0.00019117
20790.0 0.00019307
20810.0 0.00019478
20830.0 0.0001962
20850.0 0.00019736
20870.0 0.00019832
20890.0 0.00019903
20910.0 0.0001995
20930.0 0.00019978
20950.0 0.00019987
20970.0 0.00019979
20990.0 0.00019957
21010.0 0.00019919
21030.0 0.00019869
21050.0 0.0001981
21070.0 0.00019738
21090.0 0.00019654
21110.0 0.00019565
21130.0 0.00019471
21150.0 0.00019367
21170.0 0.0001926
21190.0 0.00019154
21210.0 0.00019043
21230.0 0.00018932
21250.0 0.00018828
21270.0 0.00018731
21290.0 0.00018638
21310.0 0.00018555
21330.0 0.00018488
21350.0 0.0001843
21370.0 0.00018386
21390.0 0.00018359
21410.0 0.00018346
21430.0 0.00018349
21450.0 0.00018369
21470.0 0.00018403
21490.0 0.00018453
21510.0 0.00018518
21530.0 0.00018593
21550.0 0.00018681
21570.0 0.00018783
21590.0 0.00018893
21610.0 0.0001901
21630.0 0.00019138
21650.0 0.00019278
21670.0 0.00019416
21690.0 0.00019563
21710.0 0.00019719
21730.0 0.00019879
21750.0 0.00020039
21770.0 0.00020214
21790.0 0.00020394
21810.0 0.00020574
21830.0 0.0002076
21850.0 0.00020959
21870.0 0.00021158
21890.0 0.00021355
21910.0 0.00021564
21930.0 0.00021776
21950.0 0.00021983
21970.0 0.00022193
21990.0 0.00022412
22010.0 0.00022619
22030.0 0.00022818
22050.0 0.00023016
22070.0 0.00023205
22090.0 0.00023373
22110.0 0.00023532
22130.0 0.00023676
22150.0 0.00023797
22170.0 0.00023894
22190.0 0.0002397
22210.0 0.00024018
22230.0 0.00024036
22250.0 0.00024026
22270.0 0.00023983
22290.0 0.0002391
22310.0 0.00023808
22330.0 0.00023668
22350.0 0.00023499
22370.0 0.00023306
22390.0 0.00023081
22410.0 0.0002282
22430.0 0.00022548
22450.0 0.00022257
22470.0 0.00021937
22490.0 0.00021605
22510.0 0.00021273
22530.0 0.00020918
22550.0 0.0002055
22570.0 0.00020196
22590.0 0.00019843
22610.0 0.0001948
22630.0 0.00019129
22650.0 0.00018801
22670.0 0.0001847
22690.0 0.00018148
22710.0 0.00017851
22730.0 0.00017568
22750.0 0.00017285
22770.0 0.00017028
22790.0 0.00016795
22810.0 0.0001657
22830.0 0.00016358
22850.0 0.00016171
22870.0 0.00015997
22890.0 0.0001583
22910.0 0.00015684
22930.0 0.00015554
22950.0 0.00015435
22970.0 0.00015328
22990.0 0.00015241
23010.0 0.00015167
23030.0 0.00015104
23050.0 0.00015057
23070.0 0.00015024
23090.0 0.00015002
