#lamb flux
1010.0 4.8206e-08
1030.0 5.3079e-08
1050.0 5.8682e-08
1070.0 6.4991e-08
1090.0 7.2157e-08
1110.0 7.9506e-08
1130.0 8.6903e-08
1150.0 9.4651e-08
1170.0 1.0264e-07
1190.0 1.1022e-07
1210.0 1.179e-07
1230.0 1.2584e-07
1250.0 1.3362e-07
1270.0 1.4117e-07
1290.0 1.4915e-07
1310.0 1.5712e-07
1330.0 1.6477e-07
1350.0 1.725e-07
1370.0 1.8049e-07
1390.0 1.8827e-07
1410.0 1.9583e-07
1430.0 2.0372e-07
1450.0 2.1162e-07
1470.0 2.1925e-07
1490.0 2.2696e-07
1510.0 2.3511e-07
1530.0 2.4283e-07
1550.0 2.5045e-07
1570.0 2.5833e-07
1590.0 2.6622e-07
1610.0 2.7376e-07
1630.0 2.8153e-07
1650.0 2.8952e-07
1670.0 2.9724e-07
1690.0 3.0486e-07
1710.0 3.1279e-07
1730.0 3.2076e-07
1750.0 3.2826e-07
1770.0 3.3598e-07
1790.0 3.4387e-07
1810.0 3.515e-07
1830.0 3.5901e-07
1850.0 3.6699e-07
1870.0 3.7476e-07
1890.0 3.8228e-07
1910.0 3.8995e-07
1930.0 3.9781e-07
1950.0 4.0532e-07
1970.0 4.1274e-07
1990.0 4.2045e-07
2010.0 4.2804e-07
2030.0 4.3534e-07
2050.0 4.4288e-07
2070.0 4.506e-07
2090.0 4.5787e-07
2110.0 4.6511e-07
2130.0 4.7256e-07
2150.0 4.7986e-07
2170.0 4.8682e-07
2190.0 4.9403e-07
2210.0 5.0127e-07
2230.0 5.0818e-07
2250.0 5.1503e-07
2270.0 5.2218e-07
2290.0 5.2906e-07
2310.0 5.3563e-07
2330.0 5.4243e-07
2350.0 5.4941e-07
2370.0 5.5631e-07
2390.0 5.6384e-07
2410.0 5.7287e-07
2430.0 5.8338e-07
2450.0 5.9611e-07
2470.0 6.1266e-07
2490.0 6.3376e-07
2510.0 6.5786e-07
2530.0 6.8704e-07
2550.0 7.2374e-07
2570.0 7.6948e-07
2590.0 8.2897e-07
2610.0 9.1797e-07
2630.0 1.0447e-06
2650.0 1.2096e-06
2670.0 1.4221e-06
2690.0 1.6822e-06
2710.0 1.9584e-06
2730.0 2.2299e-06
2750.0 2.4959e-06
2770.0 2.7254e-06
2790.0 2.9056e-06
2810.0 3.0466e-06
2830.0 3.1547e-06
2850.0 3.226e-06
2870.0 3.2764e-06
2890.0 3.3146e-06
2910.0 3.3437e-06
2930.0 3.3663e-06
2950.0 3.3877e-06
2970.0 3.4084e-06
2990.0 3.4277e-06
3010.0 0.00010022
3030.0 0.00010077
3050.0 0.0001013
3070.0 0.00010174
3090.0 0.00010209
3110.0 0.00010225
3130.0 0.00010208
3150.0 0.00010147
3170.0 0.00010023
3190.0 9.8384e-05
3210.0 9.6084e-05
3230.0 9.3472e-05
3250.0 9.086e-05
3270.0 8.8939e-05
3290.0 8.7759e-05
3310.0 8.7796e-05
3330.0 8.8922e-05
3350.0 9.0999e-05
3370.0 9.4027e-05
3390.0 9.788e-05
3410.0 0.00010209
3430.0 0.00010684
3450.0 0.00011231
3470.0 0.0001183
3490.0 0.00012467
3510.0 0.00013187
3530.0 0.00013961
3550.0 0.00014754
3570.0 0.0001559
3590.0 0.00016503
3610.0 0.00017459
3630.0 0.00018409
3650.0 0.00019398
3670.0 0.00020297
3690.0 0.00020967
3710.0 0.0002134
3730.0 0.00021304
3750.0 0.0002091
3770.0 0.00020952
3790.0 0.00020807
3810.0 0.00019464
3830.0 0.00019919
3850.0 0.00023584
3870.0 0.00024746
3890.0 0.00023381
3910.0 0.00023033
3930.0 0.00024326
3950.0 0.00025552
3970.0 0.0002425
3990.0 0.00019576
4010.0 0.0005513
4030.0 0.00065139
4050.0 0.00074586
4070.0 0.00067061
4090.0 0.00061081
4110.0 0.00053266
4130.0 0.00051447
4150.0 0.0005782
4170.0 0.00054146
4190.0 0.00055742
4210.0 0.00056618
4230.0 0.00061773
4250.0 0.0007352
4270.0 0.00075645
4290.0 0.0006881
4310.0 0.00069728
4330.0 0.00072925
4350.0 0.00083984
4370.0 0.00097115
4390.0 0.00087804
4410.0 0.00061288
4430.0 0.00050463
4450.0 0.00046619
4470.0 0.00034289
4490.0 0.00039827
4510.0 0.00065859
4530.0 0.00077119
4550.0 0.00076005
4570.0 0.00081157
4590.0 0.00091088
4610.0 0.0013431
4630.0 0.001785
4650.0 0.0018714
4670.0 0.0017103
4690.0 0.0016526
4710.0 0.0017401
4730.0 0.0015948
4750.0 0.0011599
4770.0 0.00083566
4790.0 0.00080704
4810.0 0.00078845
4830.0 0.00073519
4850.0 0.00080345
4870.0 0.0010621
4890.0 0.0012464
4910.0 0.0010651
4930.0 0.00096455
4950.0 0.0010723
4970.0 0.0013854
4990.0 0.0018767
5010.0 0.0021656
5030.0 0.0018671
5050.0 0.0012378
5070.0 0.00082941
5090.0 0.000657
5110.0 0.00066101
5130.0 0.00077174
5150.0 0.00081762
5170.0 0.00079735
5190.0 0.00073659
5210.0 0.00078204
5230.0 0.00085225
5250.0 0.00093584
5270.0 0.00097407
5290.0 0.0010715
5310.0 0.0012891
5330.0 0.0014202
5350.0 0.0014087
5370.0 0.0015017
5390.0 0.0017605
5410.0 0.0016963
5430.0 0.0014572
5450.0 0.0013663
5470.0 0.0014795
5490.0 0.001815
5510.0 0.0022519
5530.0 0.0025908
5550.0 0.0024662
5570.0 0.0022364
5590.0 0.0019203
5610.0 0.0018085
5630.0 0.0018189
5650.0 0.0017143
5670.0 0.0016112
5690.0 0.0014057
5710.0 0.0013886
5730.0 0.0012952
5750.0 0.00086333
5770.0 0.00065994
5790.0 0.00076105
5810.0 0.00084524
5830.0 0.0010932
5850.0 0.001333
5870.0 0.0014703
5890.0 0.0014745
5910.0 0.001445
5930.0 0.0013771
5950.0 0.0014065
5970.0 0.0016384
5990.0 0.0014915
6010.0 0.0012275
6030.0 0.00103
6050.0 0.0009021
6070.0 0.00093487
6090.0 0.0010214
6110.0 0.0011168
6130.0 0.0011112
6150.0 0.00093756
6170.0 0.00080035
6190.0 0.00091205
6210.0 0.0012553
6230.0 0.0016992
6250.0 0.0018419
6270.0 0.0015593
6290.0 0.0013179
6310.0 0.0010232
6330.0 0.00077497
6350.0 0.00070672
6370.0 0.00074284
6390.0 0.00086453
6410.0 0.0010802
6430.0 0.0012711
6450.0 0.0014802
6470.0 0.0016576
6490.0 0.001996
6510.0 0.002233
6530.0 0.002217
6550.0 0.0020138
6570.0 0.0016789
6590.0 0.0015315
6610.0 0.0013068
6630.0 0.0012284
6650.0 0.0011721
6670.0 0.0011031
6690.0 0.00095563
6710.0 0.00088489
6730.0 0.00056806
6750.0 0.00060075
6770.0 0.00072072
6790.0 0.00086458
6810.0 0.00073304
6830.0 0.00075298
6850.0 0.00068229
6870.0 0.00062594
6890.0 0.00058245
6910.0 0.00064283
6930.0 0.00060323
6950.0 0.0006458
6970.0 0.00067841
6990.0 0.00076553
7010.0 0.00076104
7030.0 0.00080218
7050.0 0.00074484
7070.0 0.00068431
7090.0 0.00069951
7110.0 0.00072776
7130.0 0.00079882
7150.0 0.00086381
7170.0 0.0009584
7190.0 0.0010471
7210.0 0.001002
7230.0 0.0010263
7250.0 0.0011004
7270.0 0.0011916
7290.0 0.0014314
7310.0 0.0015464
7330.0 0.0014852
7350.0 0.0013405
7370.0 0.0011205
7390.0 0.0011015
7410.0 0.001213
7430.0 0.0013581
7450.0 0.0014751
7470.0 0.0014279
7490.0 0.0012517
7510.0 0.0015573
7530.0 0.0015078
7550.0 0.001378
7570.0 0.0010364
7590.0 0.00064532
7610.0 0.00053498
7630.0 0.00064164
7650.0 0.00078057
7670.0 0.0010339
7690.0 0.0011404
7710.0 0.0011451
7730.0 0.0011882
7750.0 0.0013894
7770.0 0.0014166
7790.0 0.0012987
7810.0 0.0011468
7830.0 0.0011988
7850.0 0.0012048
7870.0 0.0011252
7890.0 0.00092531
7910.0 0.00071619
7930.0 0.00069927
7950.0 0.00063606
7970.0 0.00057488
7990.0 0.00055914
8010.0 0.00010622
8030.0 9.7195e-05
8050.0 0.00010382
8070.0 0.00011799
8090.0 0.00014527
8110.0 0.000138
8130.0 8.2162e-05
8150.0 8.666e-05
8170.0 4.8899e-05
8190.0 3.0191e-05
8210.0 8.0504e-05
8230.0 9.7378e-05
8250.0 4.2194e-05
8270.0 3.3104e-05
8290.0 6.1072e-05
8310.0 5.4367e-05
8330.0 3.4151e-05
8350.0 2.659e-05
8370.0 6.3132e-06
8390.0 2.8986e-05
8410.0 3.2933e-05
8430.0 4.0643e-05
8450.0 4.6451e-05
8470.0 7.6388e-05
8490.0 6.4271e-05
8510.0 5.1191e-05
8530.0 3.0677e-05
8550.0 9.0223e-05
8570.0 0.00013395
8590.0 9.8773e-05
8610.0 0.00014551
8630.0 0.00016207
8650.0 0.00010221
8670.0 0.00013945
8690.0 0.00019845
8710.0 0.00017043
8730.0 0.00017835
8750.0 0.00014169
8770.0 0.00012684
8790.0 0.00013764
8810.0 0.00014703
8830.0 8.547e-05
8850.0 3.9093e-05
8870.0 2.7328e-05
8890.0 5.9906e-05
8910.0 9.3005e-05
8930.0 0.00012294
8950.0 0.00013378
8970.0 0.00012867
8990.0 9.5121e-05
9010.0 0.00026954
9030.0 0.00022725
9050.0 0.00023069
9070.0 0.0002349
9090.0 0.00023845
9110.0 0.00024282
9130.0 0.00024604
9150.0 0.00024838
9170.0 0.00025088
9190.0 0.00025355
9210.0 0.00025636
9230.0 0.00025933
9250.0 0.00026232
9270.0 0.00026541
9290.0 0.00026859
9310.0 0.00027176
9330.0 0.00027498
9350.0 0.00027831
9370.0 0.00028166
9390.0 0.00028502
9410.0 0.00028847
9430.0 0.00029203
9450.0 0.00029553
9470.0 0.00029911
9490.0 0.00030278
9510.0 0.00030648
9530.0 0.00031018
9550.0 0.00031401
9570.0 0.00031791
9590.0 0.00032179
9610.0 0.00032573
9630.0 0.00032979
9650.0 0.00033386
9670.0 0.00033793
9690.0 0.00034211
9710.0 0.00034635
9730.0 0.00035059
9750.0 0.00035488
9770.0 0.00035933
9790.0 0.00036374
9810.0 0.00036816
9830.0 0.00037269
9850.0 0.00037728
9870.0 0.00038183
9890.0 0.00038646
9910.0 0.00039118
9930.0 0.0003959
9950.0 0.00040063
9970.0 0.00040547
9990.0 0.00041035
10010.0 0.00035829
10030.0 0.00036252
10050.0 0.00036682
10070.0 0.00037116
10090.0 0.0003754
10110.0 0.00037976
10130.0 0.00038412
10150.0 0.00038844
10170.0 0.00039282
10190.0 0.00039727
10210.0 0.00040166
10230.0 0.00040604
10250.0 0.00041049
10270.0 0.00041494
10290.0 0.00041932
10310.0 0.00042376
10330.0 0.00042826
10350.0 0.00043267
10370.0 0.00043706
10390.0 0.00044152
10410.0 0.00044594
10430.0 0.00045027
10450.0 0.00045465
10470.0 0.00045905
10490.0 0.00046336
10510.0 0.00046764
10530.0 0.000472
10550.0 0.00047628
10570.0 0.00048046
10590.0 0.00048467
10610.0 0.00048888
10630.0 0.00049296
10650.0 0.00049702
10670.0 0.00050112
10690.0 0.00050513
10710.0 0.00050905
10730.0 0.00051298
10750.0 0.00051692
10770.0 0.00052068
10790.0 0.00052441
10810.0 0.00052813
10830.0 0.00053174
10850.0 0.00053517
10870.0 0.00053852
10890.0 0.00054152
10910.0 0.00054394
10930.0 0.00054554
10950.0 0.00054585
10970.0 0.00054445
10990.0 0.00054116
11010.0 0.00050497
11030.0 0.00049703
11050.0 0.00048725
11070.0 0.0004755
11090.0 0.00046136
11110.0 0.00044673
11130.0 0.00043146
11150.0 0.00041505
11170.0 0.00039815
11190.0 0.00038179
11210.0 0.00036492
11230.0 0.00034766
11250.0 0.00033119
11270.0 0.00031539
11290.0 0.00029958
11310.0 0.00028462
11330.0 0.00027143
11350.0 0.00025896
11370.0 0.00024743
11390.0 0.00023742
11410.0 0.00022863
11430.0 0.00022043
11450.0 0.00021333
11470.0 0.00020714
11490.0 0.00020136
11510.0 0.00019577
11530.0 0.00019056
11550.0 0.00018539
11570.0 0.00017989
11590.0 0.00017421
11610.0 0.00016846
11630.0 0.00016222
11650.0 0.00015557
11670.0 0.00014904
11690.0 0.00014242
11710.0 0.00013561
11730.0 0.00012902
11750.0 0.00012291
11770.0 0.00011692
11790.0 0.0001113
11810.0 0.00010633
11830.0 0.00010187
11850.0 9.7748e-05
11870.0 9.4274e-05
11890.0 9.1362e-05
11910.0 8.8783e-05
11930.0 8.6546e-05
11950.0 8.4663e-05
11970.0 8.297e-05
11990.0 8.1365e-05
12010.0 7.9877e-05
12030.0 7.8447e-05
12050.0 7.6978e-05
12070.0 7.546e-05
12090.0 7.3999e-05
12110.0 7.252e-05
12130.0 7.1039e-05
12150.0 6.9665e-05
12170.0 6.845e-05
12190.0 6.7375e-05
12210.0 6.6581e-05
12230.0 6.6122e-05
12250.0 6.6025e-05
12270.0 6.637e-05
12290.0 6.7157e-05
12310.0 6.8352e-05
12330.0 7.0078e-05
12350.0 7.2269e-05
12370.0 7.4785e-05
12390.0 7.7707e-05
12410.0 8.115e-05
12430.0 8.4655e-05
12450.0 8.8288e-05
12470.0 9.2159e-05
12490.0 9.6046e-05
12510.0 9.9688e-05
12530.0 0.00010331
12550.0 0.0001068
12570.0 0.00010987
12590.0 0.00011256
12610.0 0.00011495
12630.0 0.00011684
12650.0 0.00011811
12670.0 0.00011893
12690.0 0.00011921
12710.0 0.00011894
12730.0 0.00011817
12750.0 0.00011687
12770.0 0.00011511
12790.0 0.00011299
12810.0 0.00011047
12830.0 0.00010758
12850.0 0.00010456
12870.0 0.00010137
12890.0 9.7934e-05
12910.0 9.4448e-05
12930.0 9.1017e-05
12950.0 8.7446e-05
12970.0 8.382e-05
12990.0 8.0392e-05
13010.0 7.7011e-05
13030.0 7.3599e-05
13050.0 7.0323e-05
13070.0 6.7255e-05
13090.0 6.4178e-05
13110.0 6.12e-05
13130.0 5.8452e-05
13150.0 5.5846e-05
13170.0 5.3292e-05
13190.0 5.1013e-05
13210.0 4.8999e-05
13230.0 4.715e-05
13250.0 4.5547e-05
13270.0 4.4269e-05
13290.0 4.3259e-05
13310.0 4.2539e-05
13330.0 4.2174e-05
13350.0 4.214e-05
13370.0 4.2454e-05
13390.0 4.3138e-05
13410.0 4.4093e-05
13430.0 4.5356e-05
13450.0 4.6936e-05
13470.0 4.8703e-05
13490.0 5.0587e-05
13510.0 5.2724e-05
13530.0 5.4902e-05
13550.0 5.6996e-05
13570.0 5.907e-05
13590.0 6.1101e-05
13610.0 6.2916e-05
13630.0 6.4507e-05
13650.0 6.5969e-05
13670.0 6.719e-05
13690.0 6.8141e-05
13710.0 6.8885e-05
13730.0 6.9426e-05
13750.0 6.9708e-05
13770.0 6.9792e-05
13790.0 6.9687e-05
13810.0 6.9395e-05
13830.0 6.8951e-05
13850.0 6.8341e-05
13870.0 6.7567e-05
13890.0 6.6677e-05
13910.0 6.5672e-05
13930.0 6.4507e-05
13950.0 6.3235e-05
13970.0 6.1933e-05
13990.0 6.0516e-05
14010.0 5.901e-05
14030.0 5.7508e-05
14050.0 5.5995e-05
14070.0 5.4399e-05
14090.0 5.2869e-05
14110.0 5.1431e-05
14130.0 5.0037e-05
14150.0 4.8723e-05
14170.0 4.76e-05
14190.0 4.6627e-05
14210.0 4.5799e-05
14230.0 4.5181e-05
14250.0 4.4777e-05
14270.0 4.4573e-05
14290.0 4.4599e-05
14310.0 4.4835e-05
14330.0 4.527e-05
14350.0 4.5918e-05
14370.0 4.6731e-05
14390.0 4.7659e-05
14410.0 4.8756e-05
14430.0 4.9965e-05
14450.0 5.1205e-05
14470.0 5.2496e-05
14490.0 5.3873e-05
14510.0 5.5195e-05
14530.0 5.6455e-05
14550.0 5.7717e-05
14570.0 5.8932e-05
14590.0 6.004e-05
14610.0 6.1114e-05
14630.0 6.2177e-05
14650.0 6.3167e-05
14670.0 6.4122e-05
14690.0 6.5115e-05
14710.0 6.6158e-05
14730.0 6.72e-05
14750.0 6.8352e-05
14770.0 6.9658e-05
14790.0 7.1073e-05
14810.0 7.2608e-05
14830.0 7.4427e-05
14850.0 7.6407e-05
14870.0 7.8476e-05
14890.0 8.0711e-05
14910.0 8.3087e-05
14930.0 8.5376e-05
14950.0 8.752e-05
14970.0 8.9553e-05
14990.0 9.1265e-05
15010.0 9.2581e-05
15030.0 9.3565e-05
15050.0 9.4227e-05
15070.0 9.4565e-05
15090.0 9.4704e-05
15110.0 9.4704e-05
15130.0 9.4615e-05
15150.0 9.4485e-05
15170.0 9.4325e-05
15190.0 9.4152e-05
15210.0 9.3982e-05
15230.0 9.3813e-05
15250.0 9.3636e-05
15270.0 9.3462e-05
15290.0 9.33e-05
15310.0 9.3132e-05
15330.0 9.2962e-05
15350.0 9.28e-05
15370.0 9.264e-05
15390.0 9.2469e-05
15410.0 9.2306e-05
15430.0 9.215e-05
15450.0 9.1988e-05
15470.0 9.1824e-05
15490.0 9.167e-05
15510.0 9.1516e-05
15530.0 9.1355e-05
15550.0 9.12e-05
15570.0 9.105e-05
15590.0 9.0893e-05
15610.0 9.0733e-05
15630.0 9.0584e-05
15650.0 9.0433e-05
15670.0 9.0277e-05
15690.0 9.0126e-05
15710.0 8.9981e-05
15730.0 8.9828e-05
15750.0 8.9674e-05
15770.0 8.9528e-05
15790.0 8.9381e-05
15810.0 8.9224e-05
15830.0 8.9076e-05
15850.0 8.8932e-05
15870.0 8.8782e-05
15890.0 8.8631e-05
15910.0 8.8488e-05
15930.0 8.8341e-05
15950.0 8.8187e-05
15970.0 8.804e-05
15990.0 8.7895e-05
16010.0 8.7744e-05
16030.0 8.7591e-05
16050.0 8.7449e-05
16070.0 8.7302e-05
16090.0 8.7149e-05
16110.0 8.7002e-05
16130.0 8.6859e-05
16150.0 8.6703e-05
16170.0 8.655e-05
16190.0 8.6405e-05
16210.0 8.6255e-05
16230.0 8.61e-05
16250.0 8.5951e-05
16270.0 8.5805e-05
16290.0 8.565e-05
16310.0 8.5496e-05
16330.0 8.5348e-05
16350.0 8.5195e-05
16370.0 8.5032e-05
16390.0 8.4882e-05
16410.0 8.4731e-05
16430.0 8.4572e-05
16450.0 8.4414e-05
16470.0 8.4265e-05
16490.0 8.4106e-05
16510.0 8.3943e-05
16530.0 8.3787e-05
16550.0 8.3631e-05
16570.0 8.3465e-05
16590.0 8.3301e-05
16610.0 8.3146e-05
16630.0 8.2983e-05
16650.0 8.2817e-05
16670.0 8.2657e-05
16690.0 8.2496e-05
16710.0 8.2323e-05
16730.0 8.2156e-05
16750.0 8.1993e-05
16770.0 8.1824e-05
16790.0 8.1649e-05
16810.0 8.1484e-05
16830.0 8.1317e-05
16850.0 8.1141e-05
16870.0 8.0969e-05
16890.0 8.0801e-05
16910.0 8.0623e-05
16930.0 8.0441e-05
16950.0 8.027e-05
16970.0 8.0094e-05
16990.0 7.9912e-05
17010.0 7.9733e-05
17030.0 7.956e-05
17050.0 7.9375e-05
17070.0 7.919e-05
17090.0 7.9011e-05
17110.0 7.8829e-05
17130.0 7.8636e-05
17150.0 7.8451e-05
17170.0 7.827e-05
17190.0 7.8079e-05
17210.0 7.7888e-05
17230.0 7.7705e-05
17250.0 7.7514e-05
17270.0 7.7316e-05
17290.0 7.7124e-05
17310.0 7.6935e-05
17330.0 7.6736e-05
17350.0 7.6536e-05
17370.0 7.6346e-05
17390.0 7.615e-05
17410.0 7.5947e-05
17430.0 7.575e-05
17450.0 7.5556e-05
17470.0 7.5346e-05
17490.0 7.5141e-05
17510.0 7.4943e-05
17530.0 7.4739e-05
17550.0 7.4529e-05
17570.0 7.4326e-05
17590.0 7.4125e-05
17610.0 7.3912e-05
17630.0 7.3702e-05
17650.0 7.3498e-05
17670.0 7.3287e-05
17690.0 7.3066e-05
17710.0 7.2859e-05
17730.0 7.265e-05
17750.0 7.2432e-05
17770.0 7.2217e-05
17790.0 7.2009e-05
17810.0 7.179e-05
17830.0 7.1568e-05
17850.0 7.1354e-05
17870.0 7.1138e-05
17890.0 7.0913e-05
17910.0 7.069e-05
17930.0 7.0477e-05
17950.0 7.0254e-05
17970.0 7.0029e-05
17990.0 6.9811e-05
18010.0 6.9591e-05
18030.0 6.9358e-05
18050.0 6.9133e-05
18070.0 6.8912e-05
18090.0 6.8684e-05
18110.0 6.8452e-05
18130.0 6.8231e-05
18150.0 6.8006e-05
18170.0 6.7772e-05
18190.0 6.7544e-05
18210.0 6.732e-05
18230.0 6.7085e-05
18250.0 6.6848e-05
18270.0 6.6622e-05
18290.0 6.6392e-05
18310.0 6.6155e-05
18330.0 6.5924e-05
18350.0 6.5697e-05
18370.0 6.546e-05
18390.0 6.5222e-05
18410.0 6.4992e-05
18430.0 6.4758e-05
18450.0 6.4515e-05
18470.0 6.4281e-05
18490.0 6.405e-05
18510.0 6.3811e-05
18530.0 6.3572e-05
18550.0 6.3342e-05
18570.0 6.3104e-05
18590.0 6.2859e-05
18610.0 6.2623e-05
18630.0 6.2388e-05
18650.0 6.2146e-05
18670.0 6.1902e-05
18690.0 6.1671e-05
18710.0 6.1432e-05
18730.0 6.1188e-05
18750.0 6.0951e-05
18770.0 6.0716e-05
18790.0 6.0468e-05
18810.0 6.0225e-05
18830.0 5.999e-05
18850.0 5.9749e-05
18870.0 5.9503e-05
18890.0 5.9266e-05
18910.0 5.9029e-05
18930.0 5.8783e-05
18950.0 5.8541e-05
18970.0 5.8304e-05
18990.0 5.8062e-05
19010.0 5.7811e-05
19030.0 5.7575e-05
19050.0 5.7336e-05
19070.0 5.7091e-05
19090.0 5.6849e-05
19110.0 5.6615e-05
19130.0 5.6369e-05
19150.0 5.6123e-05
19170.0 5.5884e-05
19190.0 5.5645e-05
19210.0 5.5397e-05
19230.0 5.5154e-05
19250.0 5.4919e-05
19270.0 5.4676e-05
19290.0 5.4431e-05
19310.0 5.4195e-05
19330.0 5.3956e-05
19350.0 5.3706e-05
19370.0 5.3466e-05
19390.0 5.3229e-05
19410.0 5.2986e-05
19430.0 5.2741e-05
19450.0 5.2506e-05
19470.0 5.2267e-05
19490.0 5.2022e-05
19510.0 5.1783e-05
19530.0 5.1548e-05
19550.0 5.1303e-05
19570.0 5.1058e-05
19590.0 5.0823e-05
19610.0 5.0585e-05
19630.0 5.0342e-05
19650.0 5.0104e-05
19670.0 4.9872e-05
19690.0 4.9628e-05
19710.0 4.9387e-05
19730.0 4.9153e-05
19750.0 4.8915e-05
19770.0 4.867e-05
19790.0 4.8434e-05
19810.0 4.8201e-05
19830.0 4.796e-05
19850.0 4.7718e-05
19870.0 4.7481e-05
19890.0 4.7227e-05
19910.0 4.695e-05
19930.0 4.6655e-05
19950.0 4.632e-05
19970.0 4.5912e-05
19990.0 4.5425e-05
20010.0 4.0634e-05
20030.0 4.0033e-05
20050.0 3.9333e-05
20070.0 3.8576e-05
20090.0 3.7764e-05
20110.0 3.6849e-05
20130.0 3.5923e-05
20150.0 3.5007e-05
20170.0 3.4059e-05
20190.0 3.3098e-05
20210.0 3.2192e-05
20230.0 3.1308e-05
20250.0 3.0423e-05
20270.0 2.9602e-05
20290.0 2.8851e-05
20310.0 2.8138e-05
20330.0 2.7471e-05
20350.0 2.6916e-05
20370.0 2.6422e-05
20390.0 2.5988e-05
20410.0 2.5635e-05
20430.0 2.5361e-05
20450.0 2.5142e-05
20470.0 2.4992e-05
20490.0 2.4907e-05
20510.0 2.4877e-05
20530.0 2.4899e-05
20550.0 2.4968e-05
20570.0 2.5073e-05
20590.0 2.5219e-05
20610.0 2.5397e-05
20630.0 2.5594e-05
20650.0 2.5817e-05
20670.0 2.6073e-05
20690.0 2.6334e-05
20710.0 2.6605e-05
20730.0 2.6898e-05
20750.0 2.7203e-05
20770.0 2.7504e-05
20790.0 2.7819e-05
20810.0 2.8152e-05
20830.0 2.8483e-05
20850.0 2.8815e-05
20870.0 2.9169e-05
20890.0 2.953e-05
20910.0 2.9877e-05
20930.0 3.0237e-05
20950.0 3.0609e-05
20970.0 3.0971e-05
20990.0 3.1327e-05
21010.0 3.1702e-05
21030.0 3.2068e-05
21050.0 3.2416e-05
21070.0 3.2764e-05
21090.0 3.3112e-05
21110.0 3.3429e-05
21130.0 3.3726e-05
21150.0 3.4014e-05
21170.0 3.4274e-05
21190.0 3.4497e-05
21210.0 3.4698e-05
21230.0 3.4864e-05
21250.0 3.4981e-05
21270.0 3.5054e-05
21290.0 3.5079e-05
21310.0 3.5047e-05
21330.0 3.4962e-05
21350.0 3.4815e-05
21370.0 3.46e-05
21390.0 3.4328e-05
21410.0 3.3996e-05
21430.0 3.3576e-05
21450.0 3.3105e-05
21470.0 3.2593e-05
21490.0 3.2013e-05
21510.0 3.1378e-05
21530.0 3.0732e-05
21550.0 3.0056e-05
21570.0 2.9335e-05
21590.0 2.8626e-05
21610.0 2.7941e-05
21630.0 2.7255e-05
21650.0 2.6584e-05
21670.0 2.6003e-05
21690.0 2.5466e-05
21710.0 2.4983e-05
21730.0 2.4586e-05
21750.0 2.4279e-05
21770.0 2.4043e-05
21790.0 2.3906e-05
21810.0 2.3864e-05
21830.0 2.3911e-05
21850.0 2.4053e-05
21870.0 2.4278e-05
21890.0 2.457e-05
21910.0 2.4946e-05
21930.0 2.5387e-05
21950.0 2.5866e-05
21970.0 2.6398e-05
21990.0 2.6994e-05
22010.0 2.7591e-05
22030.0 2.8197e-05
22050.0 2.8835e-05
22070.0 2.9476e-05
22090.0 3.0083e-05
22110.0 3.0695e-05
22130.0 3.1307e-05
22150.0 3.1878e-05
22170.0 3.2417e-05
22190.0 3.2951e-05
22210.0 3.3448e-05
22230.0 3.3885e-05
22250.0 3.4296e-05
22270.0 3.4675e-05
22290.0 3.4999e-05
22310.0 3.5276e-05
22330.0 3.5519e-05
22350.0 3.5707e-05
22370.0 3.5838e-05
22390.0 3.592e-05
22410.0 3.5944e-05
22430.0 3.5907e-05
22450.0 3.5812e-05
22470.0 3.565e-05
22490.0 3.5425e-05
22510.0 3.5144e-05
22530.0 3.4786e-05
22550.0 3.4351e-05
22570.0 3.3868e-05
22590.0 3.3325e-05
22610.0 3.27e-05
22630.0 3.2024e-05
22650.0 3.1326e-05
22670.0 3.0554e-05
22690.0 2.973e-05
22710.0 2.8899e-05
22730.0 2.8042e-05
