#lamb flux
1010.0 3.0265e-07
1030.0 3.3312e-07
1050.0 3.6816e-07
1070.0 4.0761e-07
1090.0 4.5241e-07
1110.0 4.9837e-07
1130.0 5.4462e-07
1150.0 5.9306e-07
1170.0 6.4303e-07
1190.0 6.9042e-07
1210.0 7.3844e-07
1230.0 7.8806e-07
1250.0 8.3668e-07
1270.0 8.8389e-07
1290.0 9.3377e-07
1310.0 9.8361e-07
1330.0 1.0314e-06
1350.0 1.0797e-06
1370.0 1.1296e-06
1390.0 1.1783e-06
1410.0 1.2255e-06
1430.0 1.2748e-06
1450.0 1.3241e-06
1470.0 1.3718e-06
1490.0 1.4199e-06
1510.0 1.4708e-06
1530.0 1.519e-06
1550.0 1.5665e-06
1570.0 1.6157e-06
1590.0 1.6648e-06
1610.0 1.7118e-06
1630.0 1.7602e-06
1650.0 1.8099e-06
1670.0 1.8579e-06
1690.0 1.9053e-06
1710.0 1.9544e-06
1730.0 2.0038e-06
1750.0 2.0502e-06
1770.0 2.0978e-06
1790.0 2.1464e-06
1810.0 2.1933e-06
1830.0 2.2393e-06
1850.0 2.288e-06
1870.0 2.3353e-06
1890.0 2.3808e-06
1910.0 2.4271e-06
1930.0 2.4742e-06
1950.0 2.5189e-06
1970.0 2.5628e-06
1990.0 2.608e-06
2010.0 2.6521e-06
2030.0 2.6941e-06
2050.0 2.737e-06
2070.0 2.7805e-06
2090.0 2.8207e-06
2110.0 2.8601e-06
2130.0 2.9002e-06
2150.0 2.9386e-06
2170.0 2.9741e-06
2190.0 3.0104e-06
2210.0 3.046e-06
2230.0 3.0786e-06
2250.0 3.1099e-06
2270.0 3.142e-06
2290.0 3.1713e-06
2310.0 3.1975e-06
2330.0 3.2237e-06
2350.0 3.2488e-06
2370.0 3.271e-06
2390.0 3.2926e-06
2410.0 3.3161e-06
2430.0 3.3391e-06
2450.0 3.3632e-06
2470.0 3.3934e-06
2490.0 3.4335e-06
2510.0 3.4842e-06
2530.0 3.562e-06
2550.0 3.6917e-06
2570.0 3.8944e-06
2590.0 4.195e-06
2610.0 4.6659e-06
2630.0 5.3118e-06
2650.0 6.0863e-06
2670.0 6.989e-06
2690.0 7.9747e-06
2710.0 8.898e-06
2730.0 9.6967e-06
2750.0 1.0387e-05
2770.0 1.0904e-05
2790.0 1.1253e-05
2810.0 1.1494e-05
2830.0 1.1671e-05
2850.0 1.1781e-05
2870.0 1.1867e-05
2890.0 1.1951e-05
2910.0 1.203e-05
2930.0 1.2096e-05
2950.0 1.2169e-05
2970.0 1.2245e-05
2990.0 1.2311e-05
3010.0 0.00013303
3030.0 0.00013376
3050.0 0.00013443
3070.0 0.00013487
3090.0 0.0001352
3110.0 0.00013525
3130.0 0.0001348
3150.0 0.00013378
3170.0 0.00013208
3190.0 0.00012975
3210.0 0.00012711
3230.0 0.00012442
3250.0 0.00012133
3270.0 0.00012019
3290.0 0.00011889
3310.0 0.00012132
3330.0 0.0001242
3350.0 0.00012813
3370.0 0.00013329
3390.0 0.00013949
3410.0 0.00014598
3430.0 0.000153
3450.0 0.00016073
3470.0 0.00016876
3490.0 0.00017691
3510.0 0.00018543
3530.0 0.00019397
3550.0 0.00020333
3570.0 0.00021357
3590.0 0.00022324
3610.0 0.00023525
3630.0 0.00024447
3650.0 0.00025437
3670.0 0.0002624
3690.0 0.00026962
3710.0 0.00027558
3730.0 0.0002762
3750.0 0.00027663
3770.0 0.00026676
3790.0 0.00026097
3810.0 0.00025389
3830.0 0.00022987
3850.0 0.00021265
3870.0 0.00022717
3890.0 0.00026864
3910.0 0.00034044
3930.0 0.0003988
3950.0 0.00042761
3970.0 0.00040951
3990.0 0.0003823
4010.0 0.00040066
4030.0 0.00043238
4050.0 0.0004486
4070.0 0.00040399
4090.0 0.00033444
4110.0 0.00035735
4130.0 0.00039678
4150.0 0.00041415
4170.0 0.00040091
4190.0 0.00038379
4210.0 0.00041914
4230.0 0.00045594
4250.0 0.00047104
4270.0 0.00048541
4290.0 0.00047206
4310.0 0.00049142
4330.0 0.00054301
4350.0 0.0006348
4370.0 0.00068606
4390.0 0.0006502
4410.0 0.00054822
4430.0 0.00046363
4450.0 0.00037893
4470.0 0.00036526
4490.0 0.00040929
4510.0 0.0004992
4530.0 0.00054053
4550.0 0.00057584
4570.0 0.00067208
4590.0 0.00084431
4610.0 0.0011248
4630.0 0.0013474
4650.0 0.0013552
4670.0 0.001366
4690.0 0.0014788
4710.0 0.0014789
4730.0 0.0012064
4750.0 0.00089261
4770.0 0.00073553
4790.0 0.00069795
4810.0 0.00064944
4830.0 0.00066227
4850.0 0.00078128
4870.0 0.0009793
4890.0 0.0010384
4910.0 0.00089438
4930.0 0.00086024
4950.0 0.0010286
4970.0 0.0013554
4990.0 0.0016238
5010.0 0.0016422
5030.0 0.0013307
5050.0 0.00091594
5070.0 0.00067417
5090.0 0.00058763
5110.0 0.00058935
5130.0 0.00064149
5150.0 0.00064488
5170.0 0.0006423
5190.0 0.00063636
5210.0 0.00062589
5230.0 0.00065844
5250.0 0.0006993
5270.0 0.00079919
5290.0 0.00094265
5310.0 0.0010207
5330.0 0.0010568
5350.0 0.0011196
5370.0 0.0012189
5390.0 0.0012487
5410.0 0.0011445
5430.0 0.0010185
5450.0 0.0010069
5470.0 0.0012058
5490.0 0.001547
5510.0 0.0018752
5530.0 0.0020077
5550.0 0.0019402
5570.0 0.0017969
5590.0 0.0016409
5610.0 0.0015693
5630.0 0.0015747
5650.0 0.0015981
5670.0 0.0015618
5690.0 0.0014855
5710.0 0.0014254
5730.0 0.0012535
5750.0 0.00096263
5770.0 0.00086041
5790.0 0.00094969
5810.0 0.0010959
5830.0 0.001231
5850.0 0.0013012
5870.0 0.0012881
5890.0 0.0011924
5910.0 0.0011407
5930.0 0.0011594
5950.0 0.0012245
5970.0 0.0012504
5990.0 0.0011345
6010.0 0.00092809
6030.0 0.00075645
6050.0 0.0006914
6070.0 0.00072917
6090.0 0.00081424
6110.0 0.0008264
6130.0 0.0007661
6150.0 0.00075143
6170.0 0.00083379
6190.0 0.00099708
6210.0 0.0011978
6230.0 0.0013304
6250.0 0.0013014
6270.0 0.0011539
6290.0 0.00094944
6310.0 0.00075473
6330.0 0.00062875
6350.0 0.00060234
6370.0 0.00066169
6390.0 0.00074818
6410.0 0.00086776
6430.0 0.0010234
6450.0 0.0012289
6470.0 0.0015088
6490.0 0.0017948
6510.0 0.0018915
6530.0 0.0017887
6550.0 0.0017133
6570.0 0.0017104
6590.0 0.0016585
6610.0 0.0015383
6630.0 0.0014336
6650.0 0.0013651
6670.0 0.0013684
6690.0 0.0013368
6710.0 0.0011981
6730.0 0.0010451
6750.0 0.00095021
6770.0 0.00099272
6790.0 0.0010621
6810.0 0.001119
6830.0 0.0011373
6850.0 0.0010922
6870.0 0.0010429
6890.0 0.001016
6910.0 0.00096429
6930.0 0.00092512
6950.0 0.00093467
6970.0 0.00096669
6990.0 0.0010518
7010.0 0.0011154
7030.0 0.0010732
7050.0 0.00098085
7070.0 0.00085731
7090.0 0.00072296
7110.0 0.00066603
7130.0 0.00070078
7150.0 0.00074332
7170.0 0.00075092
7190.0 0.00073073
7210.0 0.00072951
7230.0 0.00082401
7250.0 0.00095922
7270.0 0.0010659
7290.0 0.0011022
7310.0 0.0010273
7330.0 0.00092387
7350.0 0.00084708
7370.0 0.00082825
7390.0 0.0008512
7410.0 0.00090578
7430.0 0.0010073
7450.0 0.0011241
7470.0 0.0012492
7490.0 0.0013378
7510.0 0.0011917
7530.0 0.0011147
7550.0 0.00097602
7570.0 0.00082848
7590.0 0.00067571
7610.0 0.00064259
7630.0 0.00069322
7650.0 0.00079023
7670.0 0.00090008
7690.0 0.00099355
7710.0 0.001106
7730.0 0.001188
7750.0 0.0012385
7770.0 0.0012435
7790.0 0.0012377
7810.0 0.0012531
7830.0 0.0012275
7850.0 0.001182
7870.0 0.0011194
7890.0 0.0010287
7910.0 0.00092391
7930.0 0.00082107
7950.0 0.00074078
7970.0 0.00071878
7990.0 0.00074872
8010.0 0.00079569
8030.0 0.00080491
8050.0 0.00082104
8070.0 0.00081269
8090.0 0.00081158
8110.0 0.00078591
8130.0 0.00073528
8150.0 0.00069066
8170.0 0.00068431
8190.0 0.00069576
8210.0 0.00070362
8230.0 0.00068592
8250.0 0.00065657
8270.0 0.00057921
8290.0 0.00046439
8310.0 0.00034709
8330.0 0.00023766
8350.0 0.00017254
8370.0 0.00016909
8390.0 0.00020091
8410.0 0.00024963
8430.0 0.00030741
8450.0 0.00033891
8470.0 0.00035883
8490.0 0.00038122
8510.0 0.00040385
8530.0 0.00044741
8550.0 0.00052532
8570.0 0.00061337
8590.0 0.00069601
8610.0 0.00080999
8630.0 0.00094022
8650.0 0.0010094
8670.0 0.0010156
8690.0 0.00099086
8710.0 0.00094628
8730.0 0.00090799
8750.0 0.00086594
8770.0 0.00084545
8790.0 0.00081361
8810.0 0.00075505
8830.0 0.00069652
8850.0 0.00059964
8870.0 0.00053687
8890.0 0.00049894
8910.0 0.00053276
8930.0 0.00051779
8950.0 0.00053033
8970.0 0.00053779
8990.0 0.00054166
9010.0 0.00054918
9030.0 0.00053771
9050.0 0.00053695
9070.0 0.00053739
9090.0 0.00053786
9110.0 0.00053832
9130.0 0.00053886
9150.0 0.00053955
9170.0 0.00053982
9190.0 0.00053954
9210.0 0.00054329
9230.0 0.00054348
9250.0 0.0005441
9270.0 0.00054487
9290.0 0.00054576
9310.0 0.00054676
9330.0 0.00054785
9350.0 0.000549
9370.0 0.00055022
9390.0 0.00055149
9410.0 0.00055281
9430.0 0.00055418
9450.0 0.00055561
9470.0 0.00055709
9490.0 0.00055862
9510.0 0.00056019
9530.0 0.00056181
9550.0 0.00056348
9570.0 0.00056519
9590.0 0.00056695
9610.0 0.00056876
9630.0 0.0005706
9650.0 0.00057249
9670.0 0.00057443
9690.0 0.0005764
9710.0 0.00057841
9730.0 0.00058046
9750.0 0.00058254
9770.0 0.00058466
9790.0 0.00058681
9810.0 0.00058899
9830.0 0.0005912
9850.0 0.00059344
9870.0 0.0005957
9890.0 0.00059799
9910.0 0.0006003
9930.0 0.00060263
9950.0 0.00060476
9970.0 0.00060719
9990.0 0.00060961
10010.0 0.00061165
10030.0 0.00061407
10050.0 0.00061631
10070.0 0.00061771
10090.0 0.00062047
10110.0 0.00062317
10130.0 0.00062577
10150.0 0.00062833
10170.0 0.0006308
10190.0 0.00063316
10210.0 0.00063555
10230.0 0.00063793
10250.0 0.00064022
10270.0 0.0006425
10290.0 0.00064481
10310.0 0.00064704
10330.0 0.00064919
10350.0 0.00065138
10370.0 0.00065354
10390.0 0.00065561
10410.0 0.00065764
10430.0 0.0006597
10450.0 0.00066166
10470.0 0.00066354
10490.0 0.00066542
10510.0 0.00066725
10530.0 0.00066894
10550.0 0.00067061
10570.0 0.00067229
10590.0 0.00067384
10610.0 0.00067531
10630.0 0.00067678
10650.0 0.00067817
10670.0 0.00067942
10690.0 0.00068063
10710.0 0.00068181
10730.0 0.00068286
10750.0 0.00068379
10770.0 0.00068475
10790.0 0.0006856
10810.0 0.00068631
10830.0 0.00068694
10850.0 0.00068748
10870.0 0.00068769
10890.0 0.00068751
10910.0 0.0006868
10930.0 0.00068513
10950.0 0.00068185
10970.0 0.00067672
10990.0 0.00066959
11010.0 0.00065027
11030.0 0.00063678
11050.0 0.00062135
11070.0 0.00060368
11090.0 0.0005832
11110.0 0.00056279
11130.0 0.00054228
11150.0 0.00052112
11170.0 0.00050045
11190.0 0.00048159
11210.0 0.0004634
11230.0 0.00044616
11250.0 0.00043107
11270.0 0.00041782
11290.0 0.00040571
11310.0 0.00039529
11330.0 0.00038684
11350.0 0.00037933
11370.0 0.00037262
11390.0 0.00036676
11410.0 0.00036129
11430.0 0.00035555
11450.0 0.00034968
11470.0 0.00034355
11490.0 0.00033671
11510.0 0.00032895
11530.0 0.00032084
11550.0 0.00031219
11570.0 0.00030268
11590.0 0.00029288
11610.0 0.00028318
11630.0 0.0002731
11650.0 0.00026293
11670.0 0.00025353
11690.0 0.00024456
11710.0 0.00023588
11730.0 0.00022793
11750.0 0.00022091
11770.0 0.00021428
11790.0 0.0002082
11810.0 0.00020287
11830.0 0.00019799
11850.0 0.00019327
11870.0 0.00018895
11890.0 0.00018492
11910.0 0.00018083
11930.0 0.00017667
11950.0 0.00017258
11970.0 0.00016833
11990.0 0.00016376
12010.0 0.00015915
12030.0 0.00015453
12050.0 0.00014972
12070.0 0.00014483
12090.0 0.00014033
12110.0 0.00013598
12130.0 0.00013184
12150.0 0.00012823
12170.0 0.00012522
12190.0 0.0001227
12210.0 0.00012095
12230.0 0.00011999
12250.0 0.0001198
12270.0 0.00012046
12290.0 0.00012189
12310.0 0.00012396
12330.0 0.00012682
12350.0 0.00013026
12370.0 0.00013402
12390.0 0.00013817
12410.0 0.00014279
12430.0 0.00014719
12450.0 0.00015145
12470.0 0.00015568
12490.0 0.00015957
12510.0 0.00016285
12530.0 0.00016577
12550.0 0.0001682
12570.0 0.00016992
12590.0 0.00017103
12610.0 0.00017157
12630.0 0.00017148
12650.0 0.00017078
12670.0 0.00016958
12690.0 0.00016787
12710.0 0.00016576
12730.0 0.00016333
12750.0 0.00016048
12770.0 0.00015741
12790.0 0.00015423
12810.0 0.00015085
12830.0 0.00014727
12850.0 0.00014374
12870.0 0.00014014
12890.0 0.00013637
12910.0 0.00013257
12930.0 0.0001288
12950.0 0.00012484
12970.0 0.00012072
12990.0 0.0001167
13010.0 0.00011263
13030.0 0.00010842
13050.0 0.00010427
13070.0 0.00010031
13090.0 9.6324e-05
13110.0 9.2472e-05
13130.0 8.8959e-05
13150.0 8.5714e-05
13170.0 8.2673e-05
13190.0 8.0114e-05
13210.0 7.8018e-05
13230.0 7.6294e-05
13250.0 7.5016e-05
13270.0 7.4202e-05
13290.0 7.3787e-05
13310.0 7.378e-05
13330.0 7.413e-05
13350.0 7.4765e-05
13370.0 7.5688e-05
13390.0 7.6847e-05
13410.0 7.8056e-05
13430.0 7.9373e-05
13450.0 8.077e-05
13470.0 8.211e-05
13490.0 8.3354e-05
13510.0 8.4609e-05
13530.0 8.573e-05
13550.0 8.6677e-05
13570.0 8.7518e-05
13590.0 8.826e-05
13610.0 8.8845e-05
13630.0 8.9298e-05
13650.0 8.9681e-05
13670.0 8.9959e-05
13690.0 9.0134e-05
13710.0 9.0239e-05
13730.0 9.028e-05
13750.0 9.0228e-05
13770.0 9.0103e-05
13790.0 8.9905e-05
13810.0 8.9621e-05
13830.0 8.9255e-05
13850.0 8.8795e-05
13870.0 8.8229e-05
13890.0 8.7575e-05
13910.0 8.6832e-05
13930.0 8.5973e-05
13950.0 8.5032e-05
13970.0 8.4065e-05
13990.0 8.3029e-05
14010.0 8.1951e-05
14030.0 8.0901e-05
14050.0 7.9877e-05
14070.0 7.8848e-05
14090.0 7.7906e-05
14110.0 7.7062e-05
14130.0 7.6291e-05
14150.0 7.5612e-05
14170.0 7.5064e-05
14190.0 7.4624e-05
14210.0 7.4291e-05
14230.0 7.4082e-05
14250.0 7.399e-05
14270.0 7.4021e-05
14290.0 7.4183e-05
14310.0 7.4449e-05
14330.0 7.4826e-05
14350.0 7.5328e-05
14370.0 7.5915e-05
14390.0 7.6556e-05
14410.0 7.7298e-05
14430.0 7.8102e-05
14450.0 7.8917e-05
14470.0 7.9769e-05
14490.0 8.0701e-05
14510.0 8.1632e-05
14530.0 8.2577e-05
14550.0 8.3618e-05
14570.0 8.4754e-05
14590.0 8.5947e-05
14610.0 8.7298e-05
14630.0 8.8881e-05
14650.0 9.0609e-05
14670.0 9.2509e-05
14690.0 9.4702e-05
14710.0 9.7163e-05
14730.0 9.9678e-05
14750.0 0.00010243
14770.0 0.0001054
14790.0 0.00010839
14810.0 0.00011135
14830.0 0.00011449
14850.0 0.00011749
14870.0 0.00012022
14890.0 0.00012279
14910.0 0.00012514
14930.0 0.00012709
14950.0 0.00012867
14970.0 0.00012994
14990.0 0.00013084
15010.0 0.00013137
15030.0 0.00013164
15050.0 0.00013168
15070.0 0.00013154
15090.0 0.00013129
15110.0 0.00013097
15130.0 0.0001306
15150.0 0.00013024
15170.0 0.00012985
15190.0 0.00012945
15210.0 0.00012907
15230.0 0.0001287
15250.0 0.0001283
15270.0 0.00012792
15290.0 0.00012756
15310.0 0.00012718
15330.0 0.00012681
15350.0 0.00012645
15370.0 0.00012609
15390.0 0.00012571
15410.0 0.00012535
15430.0 0.000125
15450.0 0.00012464
15470.0 0.00012427
15490.0 0.00012393
15510.0 0.00012358
15530.0 0.00012322
15550.0 0.00012287
15570.0 0.00012254
15590.0 0.00012219
15610.0 0.00012183
15630.0 0.00012149
15650.0 0.00012115
15670.0 0.0001208
15690.0 0.00012046
15710.0 0.00012014
15730.0 0.00011979
15750.0 0.00011945
15770.0 0.00011912
15790.0 0.00011878
15810.0 0.00011843
15830.0 0.00011809
15850.0 0.00011777
15870.0 0.00011743
15890.0 0.00011709
15910.0 0.00011676
15930.0 0.00011643
15950.0 0.00011608
15970.0 0.00011575
15990.0 0.00011542
16010.0 0.00011508
16030.0 0.00011473
16050.0 0.00011441
16070.0 0.00011407
16090.0 0.00011373
16110.0 0.00011339
16130.0 0.00011307
16150.0 0.00011271
16170.0 0.00011237
16190.0 0.00011204
16210.0 0.0001117
16230.0 0.00011135
16250.0 0.00011101
16270.0 0.00011068
16290.0 0.00011033
16310.0 0.00010998
16330.0 0.00010964
16350.0 0.0001093
16370.0 0.00010893
16390.0 0.00010859
16410.0 0.00010825
16430.0 0.00010789
16450.0 0.00010754
16470.0 0.0001072
16490.0 0.00010684
16510.0 0.00010648
16530.0 0.00010613
16550.0 0.00010578
16570.0 0.00010541
16590.0 0.00010504
16610.0 0.00010469
16630.0 0.00010433
16650.0 0.00010396
16670.0 0.00010361
16690.0 0.00010325
16710.0 0.00010286
16730.0 0.0001025
16750.0 0.00010213
16770.0 0.00010176
16790.0 0.00010138
16810.0 0.00010101
16830.0 0.00010064
16850.0 0.00010026
16870.0 9.9883e-05
16890.0 9.9515e-05
16910.0 9.9127e-05
16930.0 9.8733e-05
16950.0 9.8359e-05
16970.0 9.7978e-05
16990.0 9.7583e-05
17010.0 9.7197e-05
17030.0 9.6821e-05
17050.0 9.6424e-05
17070.0 9.6026e-05
17090.0 9.5641e-05
17110.0 9.525e-05
17130.0 9.4839e-05
17150.0 9.4444e-05
17170.0 9.4056e-05
17190.0 9.3652e-05
17210.0 9.3247e-05
17230.0 9.2857e-05
17250.0 9.2454e-05
17270.0 9.2037e-05
17290.0 9.1634e-05
17310.0 9.1234e-05
17330.0 9.0819e-05
17350.0 9.04e-05
17370.0 9.0002e-05
17390.0 8.9592e-05
17410.0 8.9171e-05
17430.0 8.8761e-05
17450.0 8.8357e-05
17470.0 8.7926e-05
17490.0 8.7503e-05
17510.0 8.7094e-05
17530.0 8.6674e-05
17550.0 8.6243e-05
17570.0 8.5827e-05
17590.0 8.5414e-05
17610.0 8.4982e-05
17630.0 8.4554e-05
17650.0 8.4138e-05
17670.0 8.3711e-05
17690.0 8.3265e-05
17710.0 8.2845e-05
17730.0 8.2423e-05
17750.0 8.1986e-05
17770.0 8.1553e-05
17790.0 8.1135e-05
17810.0 8.0697e-05
17830.0 8.0255e-05
17850.0 7.9827e-05
17870.0 7.9397e-05
17890.0 7.895e-05
17910.0 7.851e-05
17930.0 7.8086e-05
17950.0 7.7647e-05
17970.0 7.7203e-05
17990.0 7.6772e-05
18010.0 7.634e-05
18030.0 7.5885e-05
18050.0 7.5444e-05
18070.0 7.5012e-05
18090.0 7.4568e-05
18110.0 7.4117e-05
18130.0 7.3685e-05
18150.0 7.3248e-05
18170.0 7.2797e-05
18190.0 7.2355e-05
18210.0 7.1922e-05
18230.0 7.1471e-05
18250.0 7.1016e-05
18270.0 7.0581e-05
18290.0 7.014e-05
18310.0 6.9687e-05
18330.0 6.9245e-05
18350.0 6.8812e-05
18370.0 6.836e-05
18390.0 6.7909e-05
18410.0 6.7472e-05
18430.0 6.7029e-05
18450.0 6.6569e-05
18470.0 6.6127e-05
18490.0 6.5691e-05
18510.0 6.5241e-05
18530.0 6.4792e-05
18550.0 6.4359e-05
18570.0 6.3913e-05
18590.0 6.3456e-05
18610.0 6.3015e-05
18630.0 6.2577e-05
18650.0 6.2125e-05
18670.0 6.1673e-05
18690.0 6.1242e-05
18710.0 6.0799e-05
18730.0 6.0348e-05
18750.0 5.991e-05
18770.0 5.9476e-05
18790.0 5.9019e-05
18810.0 5.8572e-05
18830.0 5.8139e-05
18850.0 5.7697e-05
18870.0 5.7246e-05
18890.0 5.6812e-05
18910.0 5.638e-05
18930.0 5.5931e-05
18950.0 5.5489e-05
18970.0 5.5059e-05
18990.0 5.4618e-05
19010.0 5.4162e-05
19030.0 5.3734e-05
19050.0 5.3302e-05
19070.0 5.2858e-05
19090.0 5.2421e-05
19110.0 5.1998e-05
19130.0 5.1556e-05
19150.0 5.1113e-05
19170.0 5.0685e-05
19190.0 5.0255e-05
19210.0 4.9811e-05
19230.0 4.9376e-05
19250.0 4.8956e-05
19270.0 4.8522e-05
19290.0 4.8086e-05
19310.0 4.7664e-05
19330.0 4.724e-05
19350.0 4.6796e-05
19370.0 4.6368e-05
19390.0 4.5949e-05
19410.0 4.5518e-05
19430.0 4.5084e-05
19450.0 4.4669e-05
19470.0 4.4248e-05
19490.0 4.3816e-05
19510.0 4.3395e-05
19530.0 4.2981e-05
19550.0 4.2551e-05
19570.0 4.212e-05
19590.0 4.1709e-05
19610.0 4.1292e-05
19630.0 4.0865e-05
19650.0 4.0451e-05
19670.0 4.0044e-05
19690.0 3.9619e-05
19710.0 3.9199e-05
19730.0 3.8792e-05
19750.0 3.8379e-05
19770.0 3.7951e-05
19790.0 3.7543e-05
19810.0 3.7139e-05
19830.0 3.6722e-05
19850.0 3.6305e-05
19870.0 3.59e-05
19890.0 3.5474e-05
19910.0 3.5023e-05
19930.0 3.4564e-05
19950.0 3.4073e-05
19970.0 3.3515e-05
19990.0 3.2897e-05
20010.0 3.2246e-05
20030.0 3.1515e-05
20050.0 3.0722e-05
20070.0 2.9922e-05
20090.0 2.9121e-05
20110.0 2.8284e-05
20130.0 2.7503e-05
20150.0 2.6791e-05
20170.0 2.6113e-05
20190.0 2.5487e-05
20210.0 2.4947e-05
20230.0 2.4467e-05
20250.0 2.4033e-05
20270.0 2.3672e-05
20290.0 2.3379e-05
20310.0 2.3135e-05
20330.0 2.2944e-05
20350.0 2.2818e-05
20370.0 2.2739e-05
20390.0 2.2708e-05
20410.0 2.2726e-05
20430.0 2.2786e-05
20450.0 2.2895e-05
20470.0 2.305e-05
20490.0 2.3241e-05
20510.0 2.3473e-05
20530.0 2.3754e-05
20550.0 2.4066e-05
20570.0 2.4397e-05
20590.0 2.4771e-05
20610.0 2.5171e-05
20630.0 2.5575e-05
20650.0 2.5996e-05
20670.0 2.6448e-05
20690.0 2.688e-05
20710.0 2.7301e-05
20730.0 2.7728e-05
20750.0 2.8146e-05
20770.0 2.8531e-05
20790.0 2.8913e-05
20810.0 2.9295e-05
20830.0 2.9657e-05
20850.0 3.0009e-05
20870.0 3.0378e-05
20890.0 3.0752e-05
20910.0 3.1116e-05
20930.0 3.1499e-05
20950.0 3.1906e-05
20970.0 3.2311e-05
20990.0 3.2719e-05
21010.0 3.3155e-05
21030.0 3.3585e-05
21050.0 3.3992e-05
21070.0 3.4391e-05
21090.0 3.478e-05
21110.0 3.5115e-05
21130.0 3.541e-05
21150.0 3.5671e-05
21170.0 3.5877e-05
21190.0 3.6024e-05
21210.0 3.6122e-05
21230.0 3.616e-05
21250.0 3.6138e-05
21270.0 3.6061e-05
21290.0 3.5925e-05
21310.0 3.5734e-05
21330.0 3.5503e-05
21350.0 3.5218e-05
21370.0 3.4884e-05
21390.0 3.4522e-05
21410.0 3.4129e-05
21430.0 3.3682e-05
21450.0 3.3226e-05
21470.0 3.2766e-05
21490.0 3.2282e-05
21510.0 3.1788e-05
21530.0 3.1316e-05
21550.0 3.0851e-05
21570.0 3.0384e-05
21590.0 2.9951e-05
21610.0 2.9558e-05
21630.0 2.9188e-05
21650.0 2.8853e-05
21670.0 2.8585e-05
21690.0 2.8361e-05
21710.0 2.8186e-05
21730.0 2.8072e-05
21750.0 2.8014e-05
21770.0 2.8014e-05
21790.0 2.8075e-05
21810.0 2.819e-05
21830.0 2.8361e-05
21850.0 2.8593e-05
21870.0 2.887e-05
21890.0 2.9183e-05
21910.0 2.9552e-05
21930.0 2.9961e-05
21950.0 3.0388e-05
21970.0 3.0851e-05
21990.0 3.1364e-05
22010.0 3.1873e-05
22030.0 3.2388e-05
22050.0 3.293e-05
22070.0 3.3477e-05
22090.0 3.3996e-05
22110.0 3.4521e-05
22130.0 3.5046e-05
22150.0 3.5535e-05
22170.0 3.5992e-05
22190.0 3.6437e-05
22210.0 3.684e-05
22230.0 3.7179e-05
22250.0 3.7478e-05
22270.0 3.7727e-05
22290.0 3.7907e-05
22310.0 3.8023e-05
22330.0 3.8076e-05
22350.0 3.8053e-05
22370.0 3.7959e-05
22390.0 3.7789e-05
22410.0 3.7534e-05
22430.0 3.7217e-05
22450.0 3.6833e-05
22470.0 3.6365e-05
22490.0 3.5834e-05
22510.0 3.5264e-05
22530.0 3.4614e-05
22550.0 3.3898e-05
22570.0 3.3168e-05
22590.0 3.2403e-05
22610.0 3.1579e-05
22630.0 3.0742e-05
22650.0 2.9925e-05
22670.0 2.9067e-05
22690.0 2.8198e-05
22710.0 2.7363e-05
