#lamb flux
1010.0 1.9058e-08
1030.0 2.128e-08
1050.0 2.3836e-08
1070.0 2.6714e-08
1090.0 2.9983e-08
1110.0 3.3335e-08
1130.0 3.671e-08
1150.0 4.0245e-08
1170.0 4.3891e-08
1190.0 4.7349e-08
1210.0 5.0854e-08
1230.0 5.4476e-08
1250.0 5.8024e-08
1270.0 6.1471e-08
1290.0 6.5113e-08
1310.0 6.8753e-08
1330.0 7.2243e-08
1350.0 7.5774e-08
1370.0 7.9418e-08
1390.0 8.2972e-08
1410.0 8.642e-08
1430.0 9.0025e-08
1450.0 9.363e-08
1470.0 9.7113e-08
1490.0 1.0063e-07
1510.0 1.0435e-07
1530.0 1.0788e-07
1550.0 1.1135e-07
1570.0 1.1494e-07
1590.0 1.1854e-07
1610.0 1.2197e-07
1630.0 1.2551e-07
1650.0 1.2914e-07
1670.0 1.3265e-07
1690.0 1.3611e-07
1710.0 1.397e-07
1730.0 1.433e-07
1750.0 1.4668e-07
1770.0 1.5015e-07
1790.0 1.5369e-07
1810.0 1.571e-07
1830.0 1.6043e-07
1850.0 1.6397e-07
1870.0 1.6739e-07
1890.0 1.7068e-07
1910.0 1.7401e-07
1930.0 1.774e-07
1950.0 1.8061e-07
1970.0 1.8374e-07
1990.0 1.8697e-07
2010.0 1.901e-07
2030.0 1.9307e-07
2050.0 1.9609e-07
2070.0 1.9915e-07
2090.0 2.0195e-07
2110.0 2.0467e-07
2130.0 2.0744e-07
2150.0 2.1006e-07
2170.0 2.1246e-07
2190.0 2.149e-07
2210.0 2.1727e-07
2230.0 2.1941e-07
2250.0 2.2144e-07
2270.0 2.235e-07
2290.0 2.2535e-07
2310.0 2.2695e-07
2330.0 2.2852e-07
2350.0 2.3001e-07
2370.0 2.3124e-07
2390.0 2.324e-07
2410.0 2.3363e-07
2430.0 2.3475e-07
2450.0 2.3583e-07
2470.0 2.3718e-07
2490.0 2.3897e-07
2510.0 2.4118e-07
2530.0 2.4477e-07
2550.0 2.5112e-07
2570.0 2.615e-07
2590.0 2.7747e-07
2610.0 3.0339e-07
2630.0 3.3985e-07
2650.0 3.8436e-07
2670.0 4.3699e-07
2690.0 4.9514e-07
2710.0 5.4995e-07
2730.0 5.9742e-07
2750.0 6.3836e-07
2770.0 6.6855e-07
2790.0 6.8814e-07
2810.0 7.0074e-07
2830.0 7.0882e-07
2850.0 7.1243e-07
2870.0 7.1414e-07
2890.0 7.1541e-07
2910.0 7.1621e-07
2930.0 7.163e-07
2950.0 7.1677e-07
2970.0 7.1751e-07
2990.0 7.1787e-07
3010.0 1.112e-05
3030.0 1.1111e-05
3050.0 1.11e-05
3070.0 1.1076e-05
3090.0 1.1045e-05
3110.0 1.0996e-05
3130.0 1.0912e-05
3150.0 1.0785e-05
3170.0 1.0604e-05
3190.0 1.0373e-05
3210.0 1.0114e-05
3230.0 9.8551e-06
3250.0 9.6914e-06
3270.0 9.5563e-06
3290.0 9.6183e-06
3310.0 9.6748e-06
3330.0 9.9202e-06
3350.0 1.027e-05
3370.0 1.0728e-05
3390.0 1.1277e-05
3410.0 1.186e-05
3430.0 1.2503e-05
3450.0 1.3227e-05
3470.0 1.3997e-05
3490.0 1.4792e-05
3510.0 1.5682e-05
3530.0 1.663e-05
3550.0 1.752e-05
3570.0 1.8407e-05
3590.0 1.9458e-05
3610.0 2.0399e-05
3630.0 2.152e-05
3650.0 2.2618e-05
3670.0 2.3669e-05
3690.0 2.4419e-05
3710.0 2.4834e-05
3730.0 2.5075e-05
3750.0 2.5006e-05
3770.0 2.2844e-05
3790.0 2.0596e-05
3810.0 1.9153e-05
3830.0 1.6605e-05
3850.0 1.2746e-05
3870.0 1.1161e-05
3890.0 1.6725e-05
3910.0 2.486e-05
3930.0 3.0153e-05
3950.0 3.1078e-05
3970.0 3.069e-05
3990.0 3.4229e-05
4010.0 4.0837e-05
4030.0 4.2687e-05
4050.0 3.9515e-05
4070.0 3.4437e-05
4090.0 3.1663e-05
4110.0 3.7062e-05
4130.0 3.8815e-05
4150.0 3.7149e-05
4170.0 3.8099e-05
4190.0 3.8765e-05
4210.0 3.882e-05
4230.0 4.1718e-05
4250.0 4.5354e-05
4270.0 4.5959e-05
4290.0 4.6267e-05
4310.0 4.8416e-05
4330.0 5.3355e-05
4350.0 6.0643e-05
4370.0 6.8336e-05
4390.0 6.5988e-05
4410.0 5.5693e-05
4430.0 4.6775e-05
4450.0 3.9518e-05
4470.0 3.8668e-05
4490.0 4.2093e-05
4510.0 4.6737e-05
4530.0 5.0953e-05
4550.0 5.8611e-05
4570.0 7.0455e-05
4590.0 8.6648e-05
4610.0 0.00010938
4630.0 0.00013074
4650.0 0.000135
4670.0 0.00013377
4690.0 0.00014219
4710.0 0.0001467
4730.0 0.00012426
4750.0 9.1367e-05
4770.0 7.4997e-05
4790.0 7.1112e-05
4810.0 6.6547e-05
4830.0 6.3967e-05
4850.0 7.3839e-05
4870.0 9.297e-05
4890.0 0.00010407
4910.0 9.033e-05
4930.0 8.2246e-05
4950.0 9.3456e-05
4970.0 0.00012335
4990.0 0.00015545
5010.0 0.00016104
5030.0 0.00013296
5050.0 8.9139e-05
5070.0 6.2497e-05
5090.0 5.5177e-05
5110.0 5.7175e-05
5130.0 6.1389e-05
5150.0 6.42e-05
5170.0 6.4031e-05
5190.0 6.3041e-05
5210.0 6.1373e-05
5230.0 6.2757e-05
5250.0 6.7024e-05
5270.0 7.8129e-05
5290.0 9.0205e-05
5310.0 9.8013e-05
5330.0 0.00010081
5350.0 0.00010315
5370.0 0.00011224
5390.0 0.00011836
5410.0 0.00011371
5430.0 0.00010015
5450.0 9.4435e-05
5470.0 0.00010782
5490.0 0.00013765
5510.0 0.00017235
5530.0 0.00018856
5550.0 0.00018445
5570.0 0.00016944
5590.0 0.00015338
5610.0 0.0001424
5630.0 0.00013682
5650.0 0.00014017
5670.0 0.00013729
5690.0 0.00012935
5710.0 0.00012211
5730.0 0.00010888
5750.0 8.2886e-05
5770.0 7.2994e-05
5790.0 8.1032e-05
5810.0 9.6719e-05
5830.0 0.00010805
5850.0 0.00011541
5870.0 0.0001172
5890.0 0.00011228
5910.0 0.00010755
5930.0 0.00010839
5950.0 0.00011394
5970.0 0.00011828
5990.0 0.00011122
6010.0 9.3939e-05
6030.0 7.8004e-05
6050.0 6.8664e-05
6070.0 6.8798e-05
6090.0 7.6846e-05
6110.0 8.25e-05
6130.0 7.8983e-05
6150.0 7.5167e-05
6170.0 8.3679e-05
6190.0 0.00010037
6210.0 0.00011975
6230.0 0.00013377
6250.0 0.00013252
6270.0 0.0001191
6290.0 9.8721e-05
6310.0 7.8949e-05
6330.0 6.3892e-05
6350.0 5.8839e-05
6370.0 6.4534e-05
6390.0 7.5166e-05
6410.0 8.6105e-05
6430.0 9.979e-05
6450.0 0.00011648
6470.0 0.00014382
6490.0 0.00017515
6510.0 0.00019071
6530.0 0.00017828
6550.0 0.00016582
6570.0 0.00016383
6590.0 0.00015769
6610.0 0.00014402
6630.0 0.00013029
6650.0 0.00012138
6670.0 0.00012486
6690.0 0.00012367
6710.0 0.00011014
6730.0 0.0001015
6750.0 9.0506e-05
6770.0 8.8422e-05
6790.0 9.4528e-05
6810.0 0.00010003
6830.0 0.00010219
6850.0 9.9969e-05
6870.0 9.6009e-05
6890.0 9.3926e-05
6910.0 8.8897e-05
6930.0 8.4583e-05
6950.0 8.4796e-05
6970.0 8.7032e-05
6990.0 9.6357e-05
7010.0 0.00010203
7030.0 9.3614e-05
7050.0 8.7091e-05
7070.0 8.2148e-05
7090.0 7.2918e-05
7110.0 6.7781e-05
7130.0 6.9244e-05
7150.0 7.1666e-05
7170.0 7.5123e-05
7190.0 7.4916e-05
7210.0 7.5506e-05
7230.0 8.0542e-05
7250.0 9.2873e-05
7270.0 0.00010753
7290.0 0.00011442
7310.0 0.00011013
7330.0 9.8117e-05
7350.0 8.8547e-05
7370.0 8.7278e-05
7390.0 8.8459e-05
7410.0 9.2139e-05
7430.0 0.00010144
7450.0 0.00011017
7470.0 0.00012184
7490.0 0.00013254
7510.0 0.00011859
7530.0 0.00011394
7550.0 9.7199e-05
7570.0 8.2741e-05
7590.0 6.8825e-05
7610.0 6.3554e-05
7630.0 6.6803e-05
7650.0 7.6743e-05
7670.0 8.4061e-05
7690.0 9.4329e-05
7710.0 0.00010528
7730.0 0.00011064
7750.0 0.00011162
7770.0 0.00011165
7790.0 0.00011085
7810.0 0.00011477
7830.0 0.00011109
7850.0 0.00010063
7870.0 9.1907e-05
7890.0 8.5661e-05
7910.0 7.73e-05
7930.0 6.6729e-05
7950.0 6.1112e-05
7970.0 6.0448e-05
7990.0 6.3098e-05
8010.0 6.7033e-05
8030.0 6.809e-05
8050.0 6.79e-05
8070.0 6.6069e-05
8090.0 6.5525e-05
8110.0 6.2537e-05
8130.0 5.8872e-05
8150.0 5.5455e-05
8170.0 5.4634e-05
8190.0 5.5933e-05
8210.0 5.5708e-05
8230.0 5.7053e-05
8250.0 5.6838e-05
8270.0 5.0676e-05
8290.0 3.8815e-05
8310.0 2.6826e-05
8330.0 1.7856e-05
8350.0 1.2666e-05
8370.0 1.4775e-05
8390.0 1.6474e-05
8410.0 2.1003e-05
8430.0 2.5456e-05
8450.0 2.7848e-05
8470.0 2.8691e-05
8490.0 2.9816e-05
8510.0 3.1353e-05
8530.0 3.532e-05
8550.0 3.9059e-05
8570.0 4.5573e-05
8590.0 5.5594e-05
8610.0 6.4754e-05
8630.0 7.5636e-05
8650.0 8.5089e-05
8670.0 8.3756e-05
8690.0 7.8436e-05
8710.0 7.4277e-05
8730.0 7.0282e-05
8750.0 6.752e-05
8770.0 6.5653e-05
8790.0 6.3309e-05
8810.0 5.8761e-05
8830.0 5.3676e-05
8850.0 4.6689e-05
8870.0 4.0362e-05
8890.0 3.6302e-05
8910.0 3.6736e-05
8930.0 3.6187e-05
8950.0 3.8563e-05
8970.0 3.9389e-05
8990.0 4.097e-05
9010.0 4.2742e-05
9030.0 4.2952e-05
9050.0 4.3032e-05
9070.0 4.3105e-05
9090.0 4.316e-05
9110.0 4.3176e-05
9130.0 4.3223e-05
9150.0 4.3301e-05
9170.0 4.3371e-05
9190.0 4.343e-05
9210.0 4.3594e-05
9230.0 4.3672e-05
9250.0 4.3769e-05
9270.0 4.3874e-05
9290.0 4.3987e-05
9310.0 4.4112e-05
9330.0 4.4246e-05
9350.0 4.4384e-05
9370.0 4.4531e-05
9390.0 4.4688e-05
9410.0 4.485e-05
9430.0 4.5016e-05
9450.0 4.5195e-05
9470.0 4.538e-05
9490.0 4.5568e-05
9510.0 4.5764e-05
9530.0 4.597e-05
9550.0 4.6177e-05
9570.0 4.639e-05
9590.0 4.6613e-05
9610.0 4.684e-05
9630.0 4.707e-05
9650.0 4.7307e-05
9670.0 4.7552e-05
9690.0 4.7799e-05
9710.0 4.805e-05
9730.0 4.8308e-05
9750.0 4.8571e-05
9770.0 4.8831e-05
9790.0 4.91e-05
9810.0 4.9375e-05
9830.0 4.965e-05
9850.0 4.9927e-05
9870.0 5.0212e-05
9890.0 5.0497e-05
9910.0 5.0781e-05
9930.0 5.1071e-05
9950.0 5.1358e-05
9970.0 5.165e-05
9990.0 5.1941e-05
10010.0 5.1478e-05
10030.0 5.1767e-05
10050.0 5.2049e-05
10070.0 5.2311e-05
10090.0 5.2612e-05
10110.0 5.2903e-05
10130.0 5.3193e-05
10150.0 5.3485e-05
10170.0 5.3771e-05
10190.0 5.4048e-05
10210.0 5.433e-05
10230.0 5.4611e-05
10250.0 5.4883e-05
10270.0 5.5153e-05
10290.0 5.5426e-05
10310.0 5.5689e-05
10330.0 5.5943e-05
10350.0 5.6201e-05
10370.0 5.6454e-05
10390.0 5.6697e-05
10410.0 5.6936e-05
10430.0 5.7177e-05
10450.0 5.7406e-05
10470.0 5.7626e-05
10490.0 5.7845e-05
10510.0 5.8059e-05
10530.0 5.8255e-05
10550.0 5.845e-05
10570.0 5.8643e-05
10590.0 5.8824e-05
10610.0 5.8993e-05
10630.0 5.9162e-05
10650.0 5.9322e-05
10670.0 5.9465e-05
10690.0 5.9604e-05
10710.0 5.9738e-05
10730.0 5.9858e-05
10750.0 5.9963e-05
10770.0 6.007e-05
10790.0 6.0165e-05
10810.0 6.0244e-05
10830.0 6.0314e-05
10850.0 6.0376e-05
10870.0 6.0405e-05
10890.0 6.04e-05
10910.0 6.0353e-05
10930.0 6.0225e-05
10950.0 5.9964e-05
10970.0 5.9553e-05
10990.0 5.8979e-05
11010.0 5.7382e-05
11030.0 5.6325e-05
11050.0 5.51e-05
11070.0 5.3676e-05
11090.0 5.1997e-05
11110.0 5.0291e-05
11130.0 4.854e-05
11150.0 4.669e-05
11170.0 4.4832e-05
11190.0 4.3085e-05
11210.0 4.1345e-05
11230.0 3.9637e-05
11250.0 3.8083e-05
11270.0 3.6664e-05
11290.0 3.5315e-05
11310.0 3.4105e-05
11330.0 3.3091e-05
11350.0 3.2171e-05
11370.0 3.1345e-05
11390.0 3.0638e-05
11410.0 3.001e-05
11430.0 2.9397e-05
11450.0 2.8821e-05
11470.0 2.8264e-05
11490.0 2.7679e-05
11510.0 2.7043e-05
11530.0 2.639e-05
11550.0 2.5698e-05
11570.0 2.4931e-05
11590.0 2.4129e-05
11610.0 2.332e-05
11630.0 2.2461e-05
11650.0 2.1573e-05
11670.0 2.0732e-05
11690.0 1.9914e-05
11710.0 1.9105e-05
11730.0 1.8353e-05
11750.0 1.7681e-05
11770.0 1.7045e-05
11790.0 1.6464e-05
11810.0 1.5962e-05
11830.0 1.5515e-05
11850.0 1.51e-05
11870.0 1.474e-05
11890.0 1.4421e-05
11910.0 1.4115e-05
11930.0 1.3819e-05
11950.0 1.3538e-05
11970.0 1.3251e-05
11990.0 1.2945e-05
12010.0 1.2635e-05
12030.0 1.2318e-05
12050.0 1.1981e-05
12070.0 1.1631e-05
12090.0 1.1298e-05
12110.0 1.0967e-05
12130.0 1.0642e-05
12150.0 1.0347e-05
12170.0 1.0091e-05
12190.0 9.8626e-06
12210.0 9.6871e-06
12230.0 9.57e-06
12250.0 9.5089e-06
12270.0 9.5107e-06
12290.0 9.5733e-06
12310.0 9.6884e-06
12330.0 9.8655e-06
12350.0 1.0093e-05
12370.0 1.0352e-05
12390.0 1.0648e-05
12410.0 1.0988e-05
12430.0 1.1321e-05
12450.0 1.1652e-05
12470.0 1.1989e-05
12490.0 1.2308e-05
12510.0 1.2588e-05
12530.0 1.2846e-05
12550.0 1.3073e-05
12570.0 1.3247e-05
12590.0 1.3373e-05
12610.0 1.3459e-05
12630.0 1.3494e-05
12650.0 1.3478e-05
12670.0 1.342e-05
12690.0 1.332e-05
12710.0 1.3184e-05
12730.0 1.3018e-05
12750.0 1.2817e-05
12770.0 1.2595e-05
12790.0 1.2358e-05
12810.0 1.2103e-05
12830.0 1.1829e-05
12850.0 1.1556e-05
12870.0 1.1275e-05
12890.0 1.098e-05
12910.0 1.0681e-05
12930.0 1.0384e-05
12950.0 1.0073e-05
12970.0 9.7502e-06
12990.0 9.4366e-06
13010.0 9.1196e-06
13030.0 8.7921e-06
13050.0 8.4701e-06
13070.0 8.1625e-06
13090.0 7.8509e-06
13110.0 7.5477e-06
13130.0 7.268e-06
13150.0 7.0057e-06
13170.0 6.7549e-06
13190.0 6.5381e-06
13210.0 6.3547e-06
13230.0 6.1972e-06
13250.0 6.0727e-06
13270.0 5.9853e-06
13290.0 5.9301e-06
13310.0 5.9089e-06
13330.0 5.9208e-06
13350.0 5.961e-06
13370.0 6.0304e-06
13390.0 6.1265e-06
13410.0 6.2342e-06
13430.0 6.3583e-06
13450.0 6.4969e-06
13470.0 6.637e-06
13490.0 6.7738e-06
13510.0 6.9178e-06
13530.0 7.0529e-06
13550.0 7.1727e-06
13570.0 7.2831e-06
13590.0 7.3836e-06
13610.0 7.4655e-06
13630.0 7.5305e-06
13650.0 7.5843e-06
13670.0 7.6223e-06
13690.0 7.6443e-06
13710.0 7.6538e-06
13730.0 7.6511e-06
13750.0 7.6353e-06
13770.0 7.609e-06
13790.0 7.5724e-06
13810.0 7.5261e-06
13830.0 7.4727e-06
13850.0 7.4101e-06
13870.0 7.3386e-06
13890.0 7.2617e-06
13910.0 7.179e-06
13930.0 7.0874e-06
13950.0 6.9908e-06
13970.0 6.8945e-06
13990.0 6.7929e-06
14010.0 6.6881e-06
14030.0 6.5864e-06
14050.0 6.4868e-06
14070.0 6.3856e-06
14090.0 6.2919e-06
14110.0 6.2069e-06
14130.0 6.1281e-06
14150.0 6.0576e-06
14170.0 6.0005e-06
14190.0 5.9546e-06
14210.0 5.92e-06
14230.0 5.899e-06
14250.0 5.8909e-06
14270.0 5.8962e-06
14290.0 5.9155e-06
14310.0 5.9457e-06
14330.0 5.9871e-06
14350.0 6.0406e-06
14370.0 6.102e-06
14390.0 6.168e-06
14410.0 6.2429e-06
14430.0 6.3229e-06
14450.0 6.4031e-06
14470.0 6.4859e-06
14490.0 6.5751e-06
14510.0 6.6629e-06
14530.0 6.7506e-06
14550.0 6.8453e-06
14570.0 6.9462e-06
14590.0 7.0499e-06
14610.0 7.1648e-06
14630.0 7.2965e-06
14650.0 7.438e-06
14670.0 7.5918e-06
14690.0 7.7677e-06
14710.0 7.9641e-06
14730.0 8.1648e-06
14750.0 8.3844e-06
14770.0 8.6233e-06
14790.0 8.8657e-06
14810.0 9.1081e-06
14830.0 9.3682e-06
14850.0 9.6213e-06
14870.0 9.8573e-06
14890.0 1.0085e-05
14910.0 1.03e-05
14930.0 1.0484e-05
14950.0 1.0639e-05
14970.0 1.0771e-05
14990.0 1.087e-05
15010.0 1.0937e-05
15030.0 1.0978e-05
15050.0 1.0997e-05
15070.0 1.0997e-05
15090.0 1.0987e-05
15110.0 1.0968e-05
15130.0 1.0945e-05
15150.0 1.0921e-05
15170.0 1.0894e-05
15190.0 1.0867e-05
15210.0 1.0841e-05
15230.0 1.0815e-05
15250.0 1.0788e-05
15270.0 1.0761e-05
15290.0 1.0736e-05
15310.0 1.071e-05
15330.0 1.0684e-05
15350.0 1.0659e-05
15370.0 1.0634e-05
15390.0 1.0608e-05
15410.0 1.0582e-05
15430.0 1.0558e-05
15450.0 1.0532e-05
15470.0 1.0506e-05
15490.0 1.0482e-05
15510.0 1.0458e-05
15530.0 1.0432e-05
15550.0 1.0407e-05
15570.0 1.0383e-05
15590.0 1.0358e-05
15610.0 1.0332e-05
15630.0 1.0308e-05
15650.0 1.0284e-05
15670.0 1.0258e-05
15690.0 1.0234e-05
15710.0 1.021e-05
15730.0 1.0185e-05
15750.0 1.0159e-05
15770.0 1.0135e-05
15790.0 1.011e-05
15810.0 1.0084e-05
15830.0 1.0059e-05
15850.0 1.0035e-05
15870.0 1.0009e-05
15890.0 9.9838e-06
15910.0 9.9593e-06
15930.0 9.9341e-06
15950.0 9.9077e-06
15970.0 9.8822e-06
15990.0 9.8572e-06
16010.0 9.8309e-06
16030.0 9.8042e-06
16050.0 9.7793e-06
16070.0 9.7534e-06
16090.0 9.7266e-06
16110.0 9.7005e-06
16130.0 9.675e-06
16150.0 9.6473e-06
16170.0 9.6201e-06
16190.0 9.594e-06
16210.0 9.567e-06
16230.0 9.5391e-06
16250.0 9.5122e-06
16270.0 9.4856e-06
16290.0 9.4574e-06
16310.0 9.4294e-06
16330.0 9.4023e-06
16350.0 9.3742e-06
16370.0 9.3446e-06
16390.0 9.3168e-06
16410.0 9.2889e-06
16430.0 9.2596e-06
16450.0 9.2306e-06
16470.0 9.2026e-06
16490.0 9.1731e-06
16510.0 9.143e-06
16530.0 9.1139e-06
16550.0 9.0846e-06
16570.0 9.0539e-06
16590.0 9.0234e-06
16610.0 8.9942e-06
16630.0 8.9637e-06
16650.0 8.9325e-06
16670.0 8.9024e-06
16690.0 8.8721e-06
16710.0 8.8398e-06
16730.0 8.8084e-06
16750.0 8.7776e-06
16770.0 8.7457e-06
16790.0 8.7131e-06
16810.0 8.6819e-06
16830.0 8.6502e-06
16850.0 8.6173e-06
16870.0 8.5848e-06
16890.0 8.553e-06
16910.0 8.5196e-06
16930.0 8.4856e-06
16950.0 8.4532e-06
16970.0 8.4202e-06
16990.0 8.386e-06
17010.0 8.3524e-06
17030.0 8.3196e-06
17050.0 8.2851e-06
17070.0 8.2505e-06
17090.0 8.2168e-06
17110.0 8.1826e-06
17130.0 8.1468e-06
17150.0 8.1122e-06
17170.0 8.0782e-06
17190.0 8.0428e-06
17210.0 8.0073e-06
17230.0 7.9729e-06
17250.0 7.9375e-06
17270.0 7.9009e-06
17290.0 7.8654e-06
17310.0 7.8302e-06
17330.0 7.7936e-06
17350.0 7.7568e-06
17370.0 7.7216e-06
17390.0 7.6854e-06
17410.0 7.6484e-06
17430.0 7.6121e-06
17450.0 7.5763e-06
17470.0 7.5384e-06
17490.0 7.5011e-06
17510.0 7.4648e-06
17530.0 7.4277e-06
17550.0 7.3898e-06
17570.0 7.353e-06
17590.0 7.3164e-06
17610.0 7.2782e-06
17630.0 7.2405e-06
17650.0 7.2036e-06
17670.0 7.1658e-06
17690.0 7.1267e-06
17710.0 7.0895e-06
17730.0 7.0521e-06
17750.0 7.0136e-06
17770.0 6.9754e-06
17790.0 6.9384e-06
17810.0 6.8998e-06
17830.0 6.8609e-06
17850.0 6.823e-06
17870.0 6.7851e-06
17890.0 6.7459e-06
17910.0 6.7072e-06
17930.0 6.6697e-06
17950.0 6.6311e-06
17970.0 6.5921e-06
17990.0 6.5542e-06
18010.0 6.5162e-06
18030.0 6.4764e-06
18050.0 6.4378e-06
18070.0 6.3998e-06
18090.0 6.3609e-06
18110.0 6.3216e-06
18130.0 6.2837e-06
18150.0 6.2454e-06
18170.0 6.2061e-06
18190.0 6.1676e-06
18210.0 6.1297e-06
18230.0 6.0904e-06
18250.0 6.051e-06
18270.0 6.0131e-06
18290.0 5.9747e-06
18310.0 5.9355e-06
18330.0 5.8971e-06
18350.0 5.8595e-06
18370.0 5.8204e-06
18390.0 5.7815e-06
18410.0 5.7436e-06
18430.0 5.7053e-06
18450.0 5.6658e-06
18470.0 5.6277e-06
18490.0 5.5901e-06
18510.0 5.5515e-06
18530.0 5.513e-06
18550.0 5.4757e-06
18570.0 5.4375e-06
18590.0 5.3985e-06
18610.0 5.3607e-06
18630.0 5.3233e-06
18650.0 5.2848e-06
18670.0 5.2464e-06
18690.0 5.2096e-06
18710.0 5.172e-06
18730.0 5.1337e-06
18750.0 5.0965e-06
18770.0 5.0597e-06
18790.0 5.0212e-06
18810.0 4.9835e-06
18830.0 4.9469e-06
18850.0 4.9096e-06
18870.0 4.8718e-06
18890.0 4.8353e-06
18910.0 4.7989e-06
18930.0 4.7614e-06
18950.0 4.7244e-06
18970.0 4.6884e-06
18990.0 4.6516e-06
19010.0 4.6138e-06
19030.0 4.578e-06
19050.0 4.5421e-06
19070.0 4.5053e-06
19090.0 4.4691e-06
19110.0 4.434e-06
19130.0 4.3975e-06
19150.0 4.361e-06
19170.0 4.3256e-06
19190.0 4.2902e-06
19210.0 4.2538e-06
19230.0 4.2181e-06
19250.0 4.1836e-06
19270.0 4.1481e-06
19290.0 4.1124e-06
19310.0 4.078e-06
19330.0 4.0433e-06
19350.0 4.0073e-06
19370.0 3.9726e-06
19390.0 3.9385e-06
19410.0 3.9036e-06
19430.0 3.8686e-06
19450.0 3.835e-06
19470.0 3.801e-06
19490.0 3.7662e-06
19510.0 3.7323e-06
19530.0 3.699e-06
19550.0 3.6646e-06
19570.0 3.6302e-06
19590.0 3.5973e-06
19610.0 3.5639e-06
19630.0 3.53e-06
19650.0 3.4969e-06
19670.0 3.4646e-06
19690.0 3.4309e-06
19710.0 3.3976e-06
19730.0 3.3653e-06
19750.0 3.3327e-06
19770.0 3.299e-06
19790.0 3.2668e-06
19810.0 3.235e-06
19830.0 3.2023e-06
19850.0 3.1697e-06
19870.0 3.1379e-06
19890.0 3.1047e-06
19910.0 3.0698e-06
19930.0 3.0343e-06
19950.0 2.9965e-06
19970.0 2.9537e-06
19990.0 2.9065e-06
20010.0 2.8835e-06
20030.0 2.8267e-06
20050.0 2.7644e-06
20070.0 2.7007e-06
20090.0 2.6356e-06
20110.0 2.566e-06
20130.0 2.4991e-06
20150.0 2.4359e-06
20170.0 2.3734e-06
20190.0 2.313e-06
20210.0 2.2584e-06
20230.0 2.2073e-06
20250.0 2.1582e-06
20270.0 2.1145e-06
20290.0 2.0761e-06
20310.0 2.0412e-06
20330.0 2.0103e-06
20350.0 1.986e-06
20370.0 1.966e-06
20390.0 1.9503e-06
20410.0 1.9397e-06
20430.0 1.9336e-06
20450.0 1.9319e-06
20470.0 1.9348e-06
20490.0 1.9415e-06
20510.0 1.9519e-06
20530.0 1.9665e-06
20550.0 1.984e-06
20570.0 2.0033e-06
20590.0 2.026e-06
20610.0 2.0508e-06
20630.0 2.0761e-06
20650.0 2.103e-06
20670.0 2.1322e-06
20690.0 2.1606e-06
20710.0 2.1886e-06
20730.0 2.2176e-06
20750.0 2.2466e-06
20770.0 2.2738e-06
20790.0 2.3014e-06
20810.0 2.3297e-06
20830.0 2.357e-06
20850.0 2.3838e-06
20870.0 2.4123e-06
20890.0 2.4411e-06
20910.0 2.4689e-06
20930.0 2.4979e-06
20950.0 2.5285e-06
20970.0 2.5586e-06
20990.0 2.5886e-06
21010.0 2.6206e-06
21030.0 2.6521e-06
21050.0 2.6823e-06
21070.0 2.7123e-06
21090.0 2.7423e-06
21110.0 2.7692e-06
21130.0 2.794e-06
21150.0 2.8175e-06
21170.0 2.8382e-06
21190.0 2.8553e-06
21210.0 2.8702e-06
21230.0 2.882e-06
21250.0 2.8898e-06
21270.0 2.8942e-06
21290.0 2.8952e-06
21310.0 2.8923e-06
21330.0 2.886e-06
21350.0 2.8758e-06
21370.0 2.8617e-06
21390.0 2.8444e-06
21410.0 2.8237e-06
21430.0 2.7981e-06
21450.0 2.7698e-06
21470.0 2.7393e-06
21490.0 2.7051e-06
21510.0 2.6679e-06
21530.0 2.6301e-06
21550.0 2.5905e-06
21570.0 2.5482e-06
21590.0 2.5064e-06
21610.0 2.4656e-06
21630.0 2.4244e-06
21650.0 2.3836e-06
21670.0 2.3475e-06
21690.0 2.3134e-06
21710.0 2.2817e-06
21730.0 2.2545e-06
21750.0 2.232e-06
21770.0 2.2131e-06
21790.0 2.1994e-06
21810.0 2.1912e-06
21830.0 2.1879e-06
21850.0 2.1901e-06
21870.0 2.1974e-06
21890.0 2.2091e-06
21910.0 2.2262e-06
21930.0 2.2479e-06
21950.0 2.273e-06
21970.0 2.3022e-06
21990.0 2.3366e-06
22010.0 2.3725e-06
22030.0 2.4104e-06
22050.0 2.4519e-06
22070.0 2.4952e-06
22090.0 2.5376e-06
22110.0 2.5818e-06
22130.0 2.6273e-06
22150.0 2.6711e-06
22170.0 2.7133e-06
22190.0 2.756e-06
22210.0 2.7964e-06
22230.0 2.8321e-06
22250.0 2.8657e-06
22270.0 2.8962e-06
22290.0 2.9216e-06
22310.0 2.9423e-06
22330.0 2.9591e-06
22350.0 2.97e-06
22370.0 2.9752e-06
22390.0 2.9748e-06
22410.0 2.968e-06
22430.0 2.9557e-06
22450.0 2.9377e-06
22470.0 2.9131e-06
22490.0 2.883e-06
22510.0 2.8487e-06
22530.0 2.8077e-06
22550.0 2.7606e-06
22570.0 2.7109e-06
22590.0 2.6572e-06
22610.0 2.5976e-06
22630.0 2.5354e-06
