#lamb flux
1010.0 6.926e-05
1030.0 7.7588e-05
1050.0 8.5853e-05
1070.0 9.5193e-05
1090.0 0.00010622
1110.0 0.00011753
1130.0 0.00012894
1150.0 0.00014096
1170.0 0.00015349
1190.0 0.0001656
1210.0 0.00017814
1230.0 0.00019143
1250.0 0.0002048
1270.0 0.0002183
1290.0 0.000233
1310.0 0.00024825
1330.0 0.00026353
1350.0 0.00027948
1370.0 0.00029635
1390.0 0.00031333
1410.0 0.00033027
1430.0 0.00034808
1450.0 0.00036609
1470.0 0.00038374
1490.0 0.00040154
1510.0 0.00042005
1530.0 0.00043763
1550.0 0.00045476
1570.0 0.00047205
1590.0 0.00048895
1610.0 0.00050469
1630.0 0.00052016
1650.0 0.00053539
1670.0 0.00054946
1690.0 0.00056261
1710.0 0.00057556
1730.0 0.0005878
1750.0 0.00059839
1770.0 0.00060861
1790.0 0.00061838
1810.0 0.00062699
1830.0 0.00063474
1850.0 0.00064276
1870.0 0.00064993
1890.0 0.00065626
1910.0 0.00066258
1930.0 0.00066901
1950.0 0.00067471
1970.0 0.00068023
1990.0 0.00068621
2010.0 0.00069199
2030.0 0.00069736
2050.0 0.00070309
2070.0 0.00070908
2090.0 0.00071424
2110.0 0.00071916
2130.0 0.00072412
2150.0 0.00072843
2170.0 0.00073171
2190.0 0.00073477
2210.0 0.00073714
2230.0 0.00073821
2250.0 0.00073832
2270.0 0.00073791
2290.0 0.00073611
2310.0 0.00073282
2330.0 0.00072877
2350.0 0.0007237
2370.0 0.00071713
2390.0 0.00070957
2410.0 0.00070127
2430.0 0.00069145
2450.0 0.00068017
2470.0 0.00066772
2490.0 0.00065398
2510.0 0.00063904
2530.0 0.00062442
2550.0 0.00061238
2570.0 0.00060565
2590.0 0.00060722
2610.0 0.00062349
2630.0 0.00065635
2650.0 0.00070269
2670.0 0.0007626
2690.0 0.00083228
2710.0 0.00089779
2730.0 0.00095114
2750.0 0.00099001
2770.0 0.0010035
2790.0 0.00098877
2810.0 0.00094736
2830.0 0.0008782
2850.0 0.00078908
2870.0 0.00068481
2890.0 0.00056609
2910.0 0.00043898
2930.0 0.00031051
2950.0 0.00017498
2970.0 4.7554e-05
2990.0 4.7554e-05
3010.0 9.6562e-05
3030.0 9.6562e-05
3050.0 9.6562e-05
3070.0 9.6562e-05
3090.0 9.6562e-05
3110.0 9.6562e-05
3130.0 9.6562e-05
3150.0 9.6562e-05
3170.0 9.6562e-05
3190.0 9.6562e-05
3210.0 9.6562e-05
3230.0 0.0039254
3250.0 0.0069926
3270.0 0.0065593
3290.0 0.0061229
3310.0 0.0046542
3330.0 0.004517
3350.0 0.0049886
3370.0 0.0056918
3390.0 0.006466
3410.0 0.0072962
3430.0 0.0083906
3450.0 0.0094618
3470.0 0.010571
3490.0 0.010978
3510.0 0.0099713
3530.0 0.0095904
3550.0 0.010612
3570.0 0.011395
3590.0 0.01235
3610.0 0.012058
3630.0 0.014608
3650.0 0.015949
3670.0 0.016844
3690.0 0.016735
3710.0 0.01515
3730.0 0.014961
3750.0 0.014212
3770.0 0.013726
3790.0 0.012927
3810.0 0.012295
3830.0 0.012688
3850.0 0.0067231
3870.0 0.0090192
3890.0 0.010456
3910.0 0.012854
3930.0 0.016499
3950.0 0.017885
3970.0 0.01998
3990.0 0.023934
4010.0 0.020294
4030.0 0.01746
4050.0 0.012609
4070.0 0.011883
4090.0 0.017514
4110.0 0.017515
4130.0 0.019065
4150.0 0.018271
4170.0 0.017301
4190.0 0.015703
4210.0 0.021156
4230.0 0.022342
4250.0 0.024349
4270.0 0.023182
4290.0 0.022853
4310.0 0.024825
4330.0 0.029157
4350.0 0.030433
4370.0 0.030251
4390.0 0.027601
4410.0 0.025465
4430.0 0.019851
4450.0 0.016164
4470.0 0.017454
4490.0 0.020465
4510.0 0.021305
4530.0 0.021473
4550.0 0.021723
4570.0 0.030952
4590.0 0.046329
4610.0 0.054436
4630.0 0.055141
4650.0 0.05946
4670.0 0.069327
4690.0 0.075149
4710.0 0.062646
4730.0 0.047784
4750.0 0.037432
4770.0 0.032274
4790.0 0.029521
4810.0 0.027987
4830.0 0.031021
4850.0 0.036656
4870.0 0.040194
4890.0 0.041979
4910.0 0.039538
4930.0 0.042747
4950.0 0.052172
4970.0 0.060782
4990.0 0.063035
5010.0 0.058045
5030.0 0.048206
5050.0 0.037129
5070.0 0.029613
5090.0 0.026744
5110.0 0.026326
5130.0 0.026811
5150.0 0.026622
5170.0 0.025034
5190.0 0.023485
5210.0 0.023112
5230.0 0.026285
5250.0 0.031446
5270.0 0.037751
5290.0 0.043216
5310.0 0.046423
5330.0 0.051418
5350.0 0.057325
5370.0 0.05968
5390.0 0.054344
5410.0 0.048536
5430.0 0.047766
5450.0 0.055978
5470.0 0.069433
5490.0 0.081164
5510.0 0.086739
5530.0 0.086032
5550.0 0.082754
5570.0 0.080578
5590.0 0.078193
5610.0 0.077363
5630.0 0.077635
5650.0 0.078479
5670.0 0.077641
5690.0 0.070986
5710.0 0.060463
5730.0 0.054607
5750.0 0.052867
5770.0 0.054604
5790.0 0.05687
5810.0 0.059481
5830.0 0.060952
5850.0 0.058747
5870.0 0.056032
5890.0 0.055159
5910.0 0.057684
5930.0 0.060607
5950.0 0.057638
5970.0 0.051389
5990.0 0.042928
6010.0 0.034986
6030.0 0.032302
6050.0 0.034984
6070.0 0.037189
6090.0 0.035454
6110.0 0.031292
6130.0 0.032022
6150.0 0.037255
6170.0 0.042831
6190.0 0.047015
6210.0 0.047693
6230.0 0.046943
6250.0 0.042868
6270.0 0.035832
6290.0 0.029583
6310.0 0.026255
6330.0 0.025651
6350.0 0.026112
6370.0 0.026466
6390.0 0.029766
6410.0 0.037127
6430.0 0.04582
6450.0 0.051408
6470.0 0.052998
6490.0 0.052635
6510.0 0.053725
6530.0 0.055369
6550.0 0.055099
6570.0 0.057176
6590.0 0.058622
6610.0 0.05962
6630.0 0.058623
6650.0 0.054747
6670.0 0.049951
6690.0 0.045423
6710.0 0.042989
6730.0 0.042461
6750.0 0.04323
6770.0 0.044415
6790.0 0.045857
6810.0 0.046831
6830.0 0.045937
6850.0 0.043718
6870.0 0.040957
6890.0 0.040036
6910.0 0.038829
6930.0 0.040186
6950.0 0.04258
6970.0 0.043707
6990.0 0.044518
7010.0 0.043244
7030.0 0.039764
7050.0 0.035183
7070.0 0.031394
7090.0 0.029378
7110.0 0.029123
7130.0 0.028424
7150.0 0.025406
7170.0 0.024104
7190.0 0.026371
7210.0 0.030495
7230.0 0.035164
7250.0 0.037224
7270.0 0.036794
7290.0 0.033936
7310.0 0.031325
7330.0 0.03006
7350.0 0.030144
7370.0 0.030713
7390.0 0.032172
7410.0 0.035648
7430.0 0.041198
7450.0 0.046513
7470.0 0.049061
7490.0 0.047918
7510.0 0.044546
7530.0 0.038586
7550.0 0.03493
7570.0 0.031067
7590.0 0.029129
7610.0 0.029771
7630.0 0.032052
7650.0 0.0353
7670.0 0.038562
7690.0 0.040795
7710.0 0.043117
7730.0 0.045493
7750.0 0.047453
7770.0 0.046839
7790.0 0.046927
7810.0 0.047537
7830.0 0.047134
7850.0 0.045405
7870.0 0.043782
7890.0 0.043853
7910.0 0.042485
7930.0 0.04168
7950.0 0.039354
7970.0 0.038099
7990.0 0.036582
8010.0 0.036971
8030.0 0.037124
8050.0 0.037241
8070.0 0.036685
8090.0 0.036317
8110.0 0.034904
8130.0 0.034731
8150.0 0.034171
8170.0 0.033188
8190.0 0.032377
8210.0 0.032141
8230.0 0.03125
8250.0 0.030514
8270.0 0.027569
8290.0 0.022464
8310.0 0.01685
8330.0 0.012994
8350.0 0.012126
8370.0 0.014428
8390.0 0.017456
8410.0 0.018819
8430.0 0.019265
8450.0 0.020213
8470.0 0.021608
8490.0 0.024153
8510.0 0.027504
8530.0 0.031514
8550.0 0.035248
8570.0 0.0383
8590.0 0.040612
8610.0 0.041887
8630.0 0.041871
8650.0 0.041374
8670.0 0.041289
8690.0 0.043269
8710.0 0.045934
8730.0 0.04768
8750.0 0.047404
8770.0 0.047959
8790.0 0.047677
8810.0 0.044689
8830.0 0.042021
8850.0 0.038513
8870.0 0.035679
8890.0 0.034707
8910.0 0.034695
8930.0 0.032722
8950.0 0.03049
8970.0 0.029537
8990.0 0.029235
9010.0 0.028095
9030.0 0.027464
9050.0 0.027232
9070.0 0.027125
9090.0 0.027033
9110.0 0.026944
9130.0 0.026855
9150.0 0.026767
9170.0 0.026668
9190.0 0.026595
9210.0 0.026628
9230.0 0.026493
9250.0 0.026382
9270.0 0.026283
9290.0 0.026193
9310.0 0.026106
9330.0 0.026022
9350.0 0.025944
9370.0 0.025867
9390.0 0.025788
9410.0 0.025713
9430.0 0.025635
9450.0 0.025524
9470.0 0.025425
9490.0 0.025384
9510.0 0.025327
9530.0 0.025264
9550.0 0.0252
9570.0 0.025133
9590.0 0.025065
9610.0 0.024997
9630.0 0.024929
9650.0 0.024861
9670.0 0.024793
9690.0 0.024725
9710.0 0.024658
9730.0 0.024591
9750.0 0.024524
9770.0 0.024458
9790.0 0.024391
9810.0 0.024324
9830.0 0.024258
9850.0 0.024192
9870.0 0.024124
9890.0 0.024057
9910.0 0.023989
9930.0 0.023919
9950.0 0.023665
9970.0 0.023652
9990.0 0.023627
10010.0 0.023595
10030.0 0.023548
10050.0 0.023488
10070.0 0.023425
10090.0 0.023362
10110.0 0.023285
10130.0 0.023212
10150.0 0.02314
10170.0 0.023063
10190.0 0.022977
10210.0 0.0229
10230.0 0.022824
10250.0 0.022738
10270.0 0.022653
10290.0 0.022574
10310.0 0.022486
10330.0 0.022391
10350.0 0.022303
10370.0 0.022214
10390.0 0.022117
10410.0 0.022018
10430.0 0.021927
10450.0 0.021827
10470.0 0.021721
10490.0 0.02162
10510.0 0.021517
10530.0 0.021401
10550.0 0.021288
10570.0 0.02118
10590.0 0.021063
10610.0 0.02094
10630.0 0.020824
10650.0 0.020704
10670.0 0.020572
10690.0 0.020442
10710.0 0.020316
10730.0 0.020179
10750.0 0.020034
10770.0 0.0199
10790.0 0.01976
10810.0 0.01961
10830.0 0.019462
10850.0 0.019318
10870.0 0.019157
10890.0 0.018993
10910.0 0.018833
10930.0 0.018666
10950.0 0.018484
10970.0 0.0183
10990.0 0.018118
11010.0 0.019117
11030.0 0.018897
11050.0 0.018683
11070.0 0.018464
11090.0 0.018231
11110.0 0.018017
11130.0 0.017811
11150.0 0.0176
11170.0 0.017394
11190.0 0.017203
11210.0 0.017008
11230.0 0.01681
11250.0 0.016621
11270.0 0.016437
11290.0 0.016244
11310.0 0.016053
11330.0 0.015873
11350.0 0.015688
11370.0 0.015497
11390.0 0.015309
11410.0 0.01512
11430.0 0.014913
11450.0 0.014702
11470.0 0.014489
11490.0 0.014261
11510.0 0.014013
11530.0 0.013764
11550.0 0.013507
11570.0 0.013228
11590.0 0.012943
11610.0 0.01266
11630.0 0.01236
11650.0 0.01205
11670.0 0.011753
11690.0 0.011458
11710.0 0.011155
11730.0 0.010862
11750.0 0.010586
11770.0 0.010308
11790.0 0.010036
11810.0 0.0097816
11830.0 0.0095367
11850.0 0.0092891
11870.0 0.0090581
11890.0 0.0088429
11910.0 0.0086293
11930.0 0.0084216
11950.0 0.008229
11970.0 0.0080418
11990.0 0.0078548
12010.0 0.0076798
12030.0 0.0075158
12050.0 0.0073551
12070.0 0.0072004
12090.0 0.0070634
12110.0 0.0069343
12130.0 0.0068131
12150.0 0.0067063
12170.0 0.006614
12190.0 0.0065309
12210.0 0.0064631
12230.0 0.0064113
12250.0 0.0063733
12270.0 0.00635
12290.0 0.0063416
12310.0 0.0063462
12330.0 0.0063655
12350.0 0.0063983
12370.0 0.006441
12390.0 0.0064956
12410.0 0.0065657
12430.0 0.0066401
12450.0 0.006721
12470.0 0.0068121
12490.0 0.0069083
12510.0 0.0070021
12530.0 0.0071006
12550.0 0.0072012
12570.0 0.0072941
12590.0 0.00738
12610.0 0.0074619
12630.0 0.007532
12650.0 0.007584
12670.0 0.0076235
12690.0 0.0076472
12710.0 0.0076516
12730.0 0.0076385
12750.0 0.0076075
12770.0 0.0075583
12790.0 0.007494
12810.0 0.0074146
12830.0 0.0073206
12850.0 0.0072197
12870.0 0.007112
12890.0 0.0069961
12910.0 0.0068785
12930.0 0.0067631
12950.0 0.0066452
12970.0 0.0065279
12990.0 0.0064184
13010.0 0.0063125
13030.0 0.0062082
13050.0 0.0061092
13070.0 0.0060166
13090.0 0.0059244
13110.0 0.0058344
13130.0 0.0057489
13150.0 0.005665
13170.0 0.0055794
13190.0 0.0054973
13210.0 0.0054182
13230.0 0.0053387
13250.0 0.0052607
13270.0 0.0051876
13290.0 0.0051171
13310.0 0.0050489
13330.0 0.0049876
13350.0 0.0049331
13370.0 0.0048842
13390.0 0.0048424
13410.0 0.0048093
13430.0 0.0047823
13450.0 0.0047612
13470.0 0.0047452
13490.0 0.0047322
13510.0 0.0047209
13530.0 0.0047091
13550.0 0.004695
13570.0 0.0046772
13590.0 0.0046537
13610.0 0.0046245
13630.0 0.0045896
13650.0 0.0045471
13670.0 0.0044986
13690.0 0.0044463
13710.0 0.0043894
13730.0 0.0043272
13750.0 0.0042668
13770.0 0.0042072
13790.0 0.0041475
13810.0 0.0040908
13830.0 0.0040398
13850.0 0.0039915
13870.0 0.0039471
13890.0 0.0039088
13910.0 0.0038751
13930.0 0.0038446
13950.0 0.003818
13970.0 0.0037953
13990.0 0.0037744
14010.0 0.0037548
14030.0 0.0037366
14050.0 0.0037185
14070.0 0.0036992
14090.0 0.0036791
14110.0 0.0036579
14130.0 0.0036344
14150.0 0.003608
14170.0 0.0035805
14190.0 0.003551
14210.0 0.0035187
14230.0 0.0034853
14250.0 0.003452
14270.0 0.0034172
14290.0 0.0033823
14310.0 0.0033502
14330.0 0.0033199
14350.0 0.0032914
14370.0 0.0032665
14390.0 0.0032458
14410.0 0.003228
14430.0 0.0032139
14450.0 0.0032038
14470.0 0.0031969
14490.0 0.0031928
14510.0 0.0031916
14530.0 0.0031926
14550.0 0.0031957
14570.0 0.0032008
14590.0 0.0032076
14610.0 0.0032165
14630.0 0.0032283
14650.0 0.0032425
14670.0 0.0032594
14690.0 0.0032803
14710.0 0.0033054
14730.0 0.003333
14750.0 0.0033652
14770.0 0.0034026
14790.0 0.0034435
14810.0 0.003488
14830.0 0.0035403
14850.0 0.0035972
14870.0 0.0036571
14890.0 0.0037227
14910.0 0.0037938
14930.0 0.0038643
14950.0 0.0039326
14970.0 0.0039999
14990.0 0.0040595
15010.0 0.0041086
15030.0 0.0041488
15050.0 0.0041801
15070.0 0.0042014
15090.0 0.0042168
15110.0 0.0042281
15130.0 0.0042366
15150.0 0.0042437
15170.0 0.0042501
15190.0 0.0042563
15210.0 0.0042626
15230.0 0.0042689
15250.0 0.0042753
15270.0 0.0042818
15290.0 0.0042885
15310.0 0.0042954
15330.0 0.0043023
15350.0 0.0043094
15370.0 0.0043167
15390.0 0.004324
15410.0 0.0043314
15430.0 0.004339
15450.0 0.0043467
15470.0 0.0043545
15490.0 0.0043624
15510.0 0.0043705
15530.0 0.0043786
15550.0 0.0043868
15570.0 0.0043951
15590.0 0.0044035
15610.0 0.004412
15630.0 0.0044206
15650.0 0.0044292
15670.0 0.004438
15690.0 0.0044468
15710.0 0.0044557
15730.0 0.0044646
15750.0 0.0044736
15770.0 0.0044827
15790.0 0.0044918
15810.0 0.0045009
15830.0 0.0045102
15850.0 0.0045195
15870.0 0.0045288
15890.0 0.0045381
15910.0 0.0045475
15930.0 0.0045569
15950.0 0.0045663
15970.0 0.0045757
15990.0 0.0045852
16010.0 0.0045946
16030.0 0.0046041
16050.0 0.0046136
16070.0 0.0046231
16090.0 0.0046325
16110.0 0.004642
16130.0 0.0046515
16150.0 0.0046609
16170.0 0.0046702
16190.0 0.0046797
16210.0 0.004689
16230.0 0.0046983
16250.0 0.0047075
16270.0 0.0047168
16290.0 0.0047259
16310.0 0.004735
16330.0 0.0047441
16350.0 0.0047531
16370.0 0.0047619
16390.0 0.0047708
16410.0 0.0047796
16430.0 0.0047882
16450.0 0.0047968
16470.0 0.0048053
16490.0 0.0048137
16510.0 0.004822
16530.0 0.0048302
16550.0 0.0048382
16570.0 0.0048462
16590.0 0.004854
16610.0 0.0048617
16630.0 0.0048693
16650.0 0.0048767
16670.0 0.004884
16690.0 0.0048912
16710.0 0.0048981
16730.0 0.0049049
16750.0 0.0049117
16770.0 0.0049182
16790.0 0.0049245
16810.0 0.0049307
16830.0 0.0049367
16850.0 0.0049425
16870.0 0.0049481
16890.0 0.0049536
16910.0 0.0049588
16930.0 0.0049638
16950.0 0.0049687
16970.0 0.0049734
16990.0 0.0049778
17010.0 0.004982
17030.0 0.004986
17050.0 0.0049898
17070.0 0.0049933
17090.0 0.0049966
17110.0 0.0049997
17130.0 0.0050025
17150.0 0.0050052
17170.0 0.0050076
17190.0 0.0050097
17210.0 0.0050116
17230.0 0.0050132
17250.0 0.0050146
17270.0 0.0050157
17290.0 0.0050166
17310.0 0.0050172
17330.0 0.0050175
17350.0 0.0050175
17370.0 0.0050174
17390.0 0.0050169
17410.0 0.0050162
17430.0 0.0050152
17450.0 0.0050139
17470.0 0.0050123
17490.0 0.0050105
17510.0 0.0050084
17530.0 0.005006
17550.0 0.0050033
17570.0 0.0050003
17590.0 0.0049971
17610.0 0.0049936
17630.0 0.0049898
17650.0 0.0049857
17670.0 0.0049814
17690.0 0.0049766
17710.0 0.0049717
17730.0 0.0049665
17750.0 0.004961
17770.0 0.0049552
17790.0 0.0049492
17810.0 0.0049428
17830.0 0.0049362
17850.0 0.0049293
17870.0 0.0049221
17890.0 0.0049146
17910.0 0.0049069
17930.0 0.0048989
17950.0 0.0048906
17970.0 0.004882
17990.0 0.0048732
18010.0 0.0048642
18030.0 0.0048548
18050.0 0.0048451
18070.0 0.0048353
18090.0 0.0048252
18110.0 0.0048147
18130.0 0.0048041
18150.0 0.0047933
18170.0 0.0047821
18190.0 0.0047707
18210.0 0.0047591
18230.0 0.0047472
18250.0 0.0047351
18270.0 0.0047228
18290.0 0.0047103
18310.0 0.0046975
18330.0 0.0046845
18350.0 0.0046713
18370.0 0.0046578
18390.0 0.0046442
18410.0 0.0046304
18430.0 0.0046163
18450.0 0.004602
18470.0 0.0045876
18490.0 0.004573
18510.0 0.0045581
18530.0 0.0045431
18550.0 0.004528
18570.0 0.0045126
18590.0 0.0044971
18610.0 0.0044814
18630.0 0.0044656
18650.0 0.0044495
18670.0 0.0044333
18690.0 0.0044171
18710.0 0.0044006
18730.0 0.004384
18750.0 0.0043673
18770.0 0.0043505
18790.0 0.0043334
18810.0 0.0043163
18830.0 0.0042991
18850.0 0.0042818
18870.0 0.0042643
18890.0 0.0042468
18910.0 0.0042291
18930.0 0.0042114
18950.0 0.0041935
18970.0 0.0041756
18990.0 0.0041576
19010.0 0.0041395
19030.0 0.0041214
19050.0 0.0041031
19070.0 0.0040848
19090.0 0.0040665
19110.0 0.0040481
19130.0 0.0040296
19150.0 0.0040111
19170.0 0.0039926
19190.0 0.003974
19210.0 0.0039553
19230.0 0.0039367
19250.0 0.003918
19270.0 0.0038993
19290.0 0.0038805
19310.0 0.0038618
19330.0 0.0038431
19350.0 0.0038242
19370.0 0.0038055
19390.0 0.0037867
19410.0 0.0037679
19430.0 0.0037491
19450.0 0.0037304
19470.0 0.0037117
19490.0 0.0036929
19510.0 0.0036742
19530.0 0.0036555
19550.0 0.0036368
19570.0 0.0036181
19590.0 0.0035995
19610.0 0.003581
19630.0 0.0035624
19650.0 0.0035439
19670.0 0.0035255
19690.0 0.003507
19710.0 0.0034886
19730.0 0.0034703
19750.0 0.003452
19770.0 0.0034338
19790.0 0.0034156
19810.0 0.0033975
19830.0 0.0033794
19850.0 0.0033611
19870.0 0.0033427
19890.0 0.0033236
19910.0 0.0033033
19930.0 0.0032811
19950.0 0.003256
19970.0 0.0032264
19990.0 0.0031915
20010.0 0.0031519
20030.0 0.0031058
20050.0 0.0030534
20070.0 0.0029977
20090.0 0.0029394
20110.0 0.0028762
20130.0 0.0028138
20150.0 0.0027532
20170.0 0.0026923
20190.0 0.002632
20210.0 0.0025754
20230.0 0.0025208
20250.0 0.0024665
20270.0 0.0024154
20290.0 0.0023676
20310.0 0.0023209
20330.0 0.0022754
20350.0 0.0022343
20370.0 0.0021949
20390.0 0.0021567
20410.0 0.002121
20430.0 0.002088
20450.0 0.0020557
20470.0 0.0020254
20490.0 0.0019976
20510.0 0.0019715
20530.0 0.0019467
20550.0 0.001924
20570.0 0.0019035
20590.0 0.0018843
20610.0 0.0018667
20630.0 0.001851
20650.0 0.0018367
20670.0 0.0018237
20690.0 0.0018122
20710.0 0.0018019
20730.0 0.0017927
20750.0 0.0017845
20770.0 0.0017769
20790.0 0.0017701
20810.0 0.0017638
20830.0 0.0017578
20850.0 0.001752
20870.0 0.0017464
20890.0 0.0017406
20910.0 0.0017345
20930.0 0.001728
20950.0 0.0017212
20970.0 0.0017137
20990.0 0.0017055
21010.0 0.0016967
21030.0 0.001687
21050.0 0.0016766
21070.0 0.0016654
21090.0 0.0016531
21110.0 0.0016403
21130.0 0.0016268
21150.0 0.0016125
21170.0 0.0015975
21190.0 0.0015822
21210.0 0.0015662
21230.0 0.0015494
21250.0 0.0015327
21270.0 0.0015158
21290.0 0.0014983
21310.0 0.0014808
21330.0 0.0014638
21350.0 0.0014465
21370.0 0.0014291
21390.0 0.0014124
21410.0 0.0013962
21430.0 0.0013797
21450.0 0.0013643
21470.0 0.0013498
21490.0 0.0013357
21510.0 0.0013225
21530.0 0.0013105
21550.0 0.0012994
21570.0 0.0012892
21590.0 0.0012802
21610.0 0.0012723
21630.0 0.0012655
21650.0 0.0012599
21670.0 0.0012553
21690.0 0.0012518
21710.0 0.0012492
21730.0 0.0012475
21750.0 0.0012463
21770.0 0.0012461
21790.0 0.0012465
21810.0 0.001247
21830.0 0.0012479
21850.0 0.0012492
21870.0 0.0012503
21890.0 0.0012512
21910.0 0.0012522
21930.0 0.0012528
21950.0 0.001253
21970.0 0.0012528
21990.0 0.0012523
22010.0 0.0012512
22030.0 0.0012495
22050.0 0.0012474
22070.0 0.0012448
22090.0 0.0012417
22110.0 0.0012382
22130.0 0.0012343
22150.0 0.00123
22170.0 0.0012254
22190.0 0.0012205
22210.0 0.0012153
22230.0 0.0012099
22250.0 0.0012042
22270.0 0.0011982
22290.0 0.001192
22310.0 0.0011856
22330.0 0.0011787
22350.0 0.0011714
22370.0 0.0011638
22390.0 0.0011556
22410.0 0.0011466
22430.0 0.0011373
22450.0 0.0011274
22470.0 0.0011166
22490.0 0.001105
22510.0 0.0010931
22530.0 0.0010801
22550.0 0.0010662
22570.0 0.001052
22590.0 0.0010374
22610.0 0.0010218
22630.0 0.0010061
22650.0 0.00099061
22670.0 0.00097456
22690.0 0.00095838
22710.0 0.00094281
22730.0 0.00092753
22750.0 0.00091196
22770.0 0.00089739
22790.0 0.00088375
22810.0 0.00087043
22830.0 0.00085777
22850.0 0.00084627
22870.0 0.00083542
22890.0 0.00082505
22910.0 0.00081566
22930.0 0.00080712
22950.0 0.00079904
22970.0 0.00079146
22990.0 0.00078475
23010.0 0.00077838
23030.0 0.00077227
23050.0 0.00076653
23070.0 0.00076109
23090.0 0.00075556
23110.0 0.0007501
23130.0 0.00074474
23150.0 0.00073926
23170.0 0.00073355
23190.0 0.00072783
23210.0 0.0007221
23230.0 0.00071609
23250.0 0.00071003
23270.0 0.00070409
23290.0 0.0006981
23310.0 0.000692
23330.0 0.00068623
23350.0 0.00068067
23370.0 0.00067517
23390.0 0.0006699
23410.0 0.00066499
23430.0 0.0006602
23450.0 0.00065552
23470.0 0.00065111
23490.0 0.00064686
23510.0 0.0006426
23530.0 0.00063845
23550.0 0.00063448
23570.0 0.00063049
23590.0 0.0006265
23610.0 0.00062264
23630.0 0.00061885
23650.0 0.00061503
23670.0 0.00061139
23690.0 0.00060798
23710.0 0.00060474
23730.0 0.00060177
23750.0 0.00059925
23770.0 0.00059716
23790.0 0.00059561
23810.0 0.00059471
23830.0 0.00059448
23850.0 0.00059511
23870.0 0.00059671
23890.0 0.00059912
23910.0 0.00060248
23930.0 0.000607
23950.0 0.0006124
23970.0 0.00061839
23990.0 0.00062551
24010.0 0.00063344
24030.0 0.00064166
24050.0 0.00065037
24070.0 0.00066006
24090.0 0.00066957
