#lamb flux
1010.0 6.1948e-07
1030.0 6.5952e-07
1050.0 7.0578e-07
1070.0 7.5791e-07
1090.0 8.1717e-07
1110.0 8.7808e-07
1130.0 9.3956e-07
1150.0 1.0041e-06
1170.0 1.0709e-06
1190.0 1.1345e-06
1210.0 1.1993e-06
1230.0 1.2664e-06
1250.0 1.3324e-06
1270.0 1.3969e-06
1290.0 1.4653e-06
1310.0 1.534e-06
1330.0 1.6004e-06
1350.0 1.6678e-06
1370.0 1.7377e-06
1390.0 1.8064e-06
1410.0 1.8736e-06
1430.0 1.944e-06
1450.0 2.015e-06
1470.0 2.0841e-06
1490.0 2.1543e-06
1510.0 2.2286e-06
1530.0 2.2997e-06
1550.0 2.3702e-06
1570.0 2.4432e-06
1590.0 2.5166e-06
1610.0 2.5871e-06
1630.0 2.6597e-06
1650.0 2.7341e-06
1670.0 2.8062e-06
1690.0 2.8773e-06
1710.0 2.9507e-06
1730.0 3.0241e-06
1750.0 3.0928e-06
1770.0 3.1628e-06
1790.0 3.2335e-06
1810.0 3.3011e-06
1830.0 3.3666e-06
1850.0 3.435e-06
1870.0 3.5004e-06
1890.0 3.5622e-06
1910.0 3.624e-06
1930.0 3.6859e-06
1950.0 3.7431e-06
1970.0 3.7979e-06
1990.0 3.8536e-06
2010.0 3.9065e-06
2030.0 3.9554e-06
2050.0 4.0047e-06
2070.0 4.0541e-06
2090.0 4.0982e-06
2110.0 4.1407e-06
2130.0 4.1838e-06
2150.0 4.2245e-06
2170.0 4.2615e-06
2190.0 4.3e-06
2210.0 4.3381e-06
2230.0 4.3732e-06
2250.0 4.4077e-06
2270.0 4.4448e-06
2290.0 4.4799e-06
2310.0 4.513e-06
2330.0 4.5483e-06
2350.0 4.5848e-06
2370.0 4.6198e-06
2390.0 4.6563e-06
2410.0 4.6968e-06
2430.0 4.737e-06
2450.0 4.7778e-06
2470.0 4.8229e-06
2490.0 4.8742e-06
2510.0 4.9325e-06
2530.0 5.0148e-06
2550.0 5.1484e-06
2570.0 5.3637e-06
2590.0 5.6972e-06
2610.0 6.2403e-06
2630.0 7.0227e-06
2650.0 8.0106e-06
2670.0 9.2202e-06
2690.0 1.0617e-05
2710.0 1.2023e-05
2730.0 1.335e-05
2750.0 1.4621e-05
2770.0 1.5729e-05
2790.0 1.6659e-05
2810.0 1.749e-05
2830.0 1.8284e-05
2850.0 1.9009e-05
2870.0 1.9731e-05
2890.0 2.0496e-05
2910.0 2.1289e-05
2930.0 2.2085e-05
2950.0 2.2939e-05
2970.0 2.3843e-05
2990.0 2.4756e-05
3010.0 8.7596e-05
3030.0 9.0942e-05
3050.0 9.4269e-05
3070.0 9.7272e-05
3090.0 9.9815e-05
3110.0 0.0001012
3130.0 0.0001006
3150.0 9.7125e-05
3170.0 8.8979e-05
3190.0 7.6006e-05
3210.0 5.8451e-05
3230.0 3.8751e-05
3250.0 5.9407e-05
3270.0 3.7152e-05
3290.0 8.5519e-05
3310.0 3.3712e-05
3330.0 3.3373e-05
3350.0 3.9969e-05
3370.0 4.7859e-05
3390.0 5.6485e-05
3410.0 6.513e-05
3430.0 7.424e-05
3450.0 8.3435e-05
3470.0 9.1918e-05
3490.0 9.7857e-05
3510.0 0.00011751
3530.0 0.00015216
3550.0 0.00014823
3570.0 0.00012223
3590.0 0.00016545
3610.0 0.00010708
3630.0 0.00017437
3650.0 0.00020311
3670.0 0.00025826
3690.0 0.00023979
3710.0 0.00016057
3730.0 0.00020723
3750.0 0.0002122
3770.0 0.00022774
3790.0 0.00022099
3810.0 0.0002275
3830.0 0.00035756
3850.0 0.0004389
3870.0 0.00054124
3890.0 0.00052599
3910.0 0.00047011
3930.0 0.00047617
3950.0 0.00051434
3970.0 0.00056712
3990.0 0.00036364
4010.0 0.00019684
4030.0 0.00035003
4050.0 0.000463
4070.0 0.00049532
4090.0 0.00034646
4110.0 0.0002193
4130.0 0.00036067
4150.0 0.00036822
4170.0 0.00034275
4190.0 0.00031101
4210.0 0.00044021
4230.0 0.00032431
4250.0 0.00035137
4270.0 0.00034907
4290.0 0.00033073
4310.0 0.00042396
4330.0 0.00045812
4350.0 0.0003817
4370.0 0.00032223
4390.0 0.00039272
4410.0 0.00040221
4430.0 0.00029573
4450.0 0.00026833
4470.0 0.00033162
4490.0 0.00025372
4510.0 0.00035415
4530.0 0.00036807
4550.0 0.0004368
4570.0 0.00061579
4590.0 0.00060898
4610.0 0.00048285
4630.0 0.00077059
4650.0 0.0010269
4670.0 0.00097932
4690.0 0.00069252
4710.0 0.00073437
4730.0 0.00083183
4750.0 0.00068526
4770.0 0.00052387
4790.0 0.00035356
4810.0 0.0004826
4830.0 0.00056837
4850.0 0.0004996
4870.0 0.00021002
4890.0 0.00056692
4910.0 0.00074326
4930.0 0.00080782
4950.0 0.0008324
4970.0 0.0005847
4990.0 0.00068044
5010.0 0.00079033
5030.0 0.00084713
5050.0 0.00079084
5070.0 0.00055924
5090.0 0.00045373
5110.0 0.00043863
5130.0 0.00041676
5150.0 0.00043411
5170.0 0.00038737
5190.0 0.00046183
5210.0 0.00046906
5230.0 0.00051983
5250.0 0.00061756
5270.0 0.00051227
5290.0 0.00053301
5310.0 0.00078383
5330.0 0.00090152
5350.0 0.00075701
5370.0 0.00068098
5390.0 0.00079051
5410.0 0.00094382
5430.0 0.001006
5450.0 0.0010587
5470.0 0.0010664
5490.0 0.0010987
5510.0 0.0013159
5530.0 0.0013675
5550.0 0.0014447
5570.0 0.0015177
5590.0 0.0014924
5610.0 0.001398
5630.0 0.0013655
5650.0 0.001413
5670.0 0.0013813
5690.0 0.0011832
5710.0 0.001171
5730.0 0.0011734
5750.0 0.0012208
5770.0 0.001052
5790.0 0.0010041
5810.0 0.0010293
5830.0 0.0011115
5850.0 0.0010354
5870.0 0.0010409
5890.0 0.0012146
5910.0 0.0011338
5930.0 0.00093687
5950.0 0.0008468
5970.0 0.00092339
5990.0 0.00083894
6010.0 0.00076712
6030.0 0.00075228
6050.0 0.000689
6070.0 0.00053387
6090.0 0.00050772
6110.0 0.00065135
6130.0 0.00073095
6150.0 0.00075499
6170.0 0.00073425
6190.0 0.0007003
6210.0 0.00073019
6230.0 0.00088611
6250.0 0.00081877
6270.0 0.00073616
6290.0 0.00066917
6310.0 0.00060611
6330.0 0.00056225
6350.0 0.00050252
6370.0 0.00050934
6390.0 0.00059267
6410.0 0.00073589
6430.0 0.00086986
6450.0 0.00087321
6470.0 0.00088294
6490.0 0.0010783
6510.0 0.001238
6530.0 0.0011764
6550.0 0.0011162
6570.0 0.0011323
6590.0 0.001116
6610.0 0.0011812
6630.0 0.0011015
6650.0 0.00095705
6670.0 0.00088286
6690.0 0.00087521
6710.0 0.001036
6730.0 0.00092243
6750.0 0.00075871
6770.0 0.00068489
6790.0 0.00072764
6810.0 0.00083561
6830.0 0.00083171
6850.0 0.00074594
6870.0 0.0007726
6890.0 0.00076784
6910.0 0.00072162
6930.0 0.00080118
6950.0 0.00074528
6970.0 0.00069427
6990.0 0.00069209
7010.0 0.00069717
7030.0 0.00067719
7050.0 0.00064842
7070.0 0.00069547
7090.0 0.00064776
7110.0 0.00054922
7130.0 0.00047174
7150.0 0.00046326
7170.0 0.00058492
7190.0 0.00062012
7210.0 0.00058799
7230.0 0.00061838
7250.0 0.00060061
7270.0 0.00058587
7290.0 0.00063467
7310.0 0.00069572
7330.0 0.00067784
7350.0 0.00062888
7370.0 0.00058176
7390.0 0.0005835
7410.0 0.00067043
7430.0 0.00075487
7450.0 0.00080371
7470.0 0.00081522
7490.0 0.00090685
7510.0 0.00089607
7530.0 0.00081134
7550.0 0.00076803
7570.0 0.00066371
7590.0 0.00063186
7610.0 0.0006103
7630.0 0.00056217
7650.0 0.00060391
7670.0 0.00066902
7690.0 0.00072833
7710.0 0.00083102
7730.0 0.0008716
7750.0 0.00090556
7770.0 0.00094125
7790.0 0.001021
7810.0 0.0010285
7830.0 0.00092294
7850.0 0.00092665
7870.0 0.00089222
7890.0 0.00091349
7910.0 0.00086032
7930.0 0.00085402
7950.0 0.0007171
7970.0 0.00071939
7990.0 0.00069518
8010.0 0.00075521
8030.0 0.00075192
8050.0 0.00079859
8070.0 0.000766
8090.0 0.00076897
8110.0 0.00075685
8130.0 0.00074799
8150.0 0.00070207
8170.0 0.00068847
8190.0 0.00068636
8210.0 0.0006927
8230.0 0.00060561
8250.0 0.00055343
8270.0 0.00048887
8290.0 0.00041544
8310.0 0.00036578
8330.0 0.00028959
8350.0 0.00023434
8370.0 0.00022614
8390.0 0.00021912
8410.0 0.0002292
8430.0 0.00029466
8450.0 0.00032074
8470.0 0.00034502
8490.0 0.00040354
8510.0 0.00043892
8530.0 0.00049883
8550.0 0.00058977
8570.0 0.00064748
8590.0 0.0006806
8610.0 0.00075551
8630.0 0.00085902
8650.0 0.00088075
8670.0 0.00089862
8690.0 0.00093198
8710.0 0.00091337
8730.0 0.00088405
8750.0 0.00081415
8770.0 0.00081394
8790.0 0.00080193
8810.0 0.00073706
8830.0 0.00073752
8850.0 0.00067506
8870.0 0.0006433
8890.0 0.000576
8910.0 0.00064169
8930.0 0.00058009
8950.0 0.00058126
8970.0 0.0005932
8990.0 0.00057576
9010.0 0.00059115
9030.0 0.00056116
9050.0 0.00055845
9070.0 0.00055869
9090.0 0.00055882
9110.0 0.00055932
9130.0 0.00055929
9150.0 0.00055898
9170.0 0.00055714
9190.0 0.00055306
9210.0 0.00056181
9230.0 0.00055933
9250.0 0.00055791
9270.0 0.0005567
9290.0 0.00055562
9310.0 0.00055463
9330.0 0.00055365
9350.0 0.00055268
9370.0 0.00055168
9390.0 0.00055062
9410.0 0.00054953
9430.0 0.00054841
9450.0 0.00054723
9470.0 0.00054601
9490.0 0.00054477
9510.0 0.00054349
9530.0 0.00054217
9550.0 0.00054085
9570.0 0.00053951
9590.0 0.00053813
9610.0 0.00053674
9630.0 0.00053537
9650.0 0.00053397
9670.0 0.00053254
9690.0 0.00053114
9710.0 0.00052975
9730.0 0.00052833
9750.0 0.00052692
9770.0 0.00052557
9790.0 0.00052418
9810.0 0.0005228
9830.0 0.00052146
9850.0 0.00052014
9870.0 0.00051881
9890.0 0.0005175
9910.0 0.00051626
9930.0 0.000515
9950.0 0.00051295
9970.0 0.00051202
9990.0 0.00051108
10010.0 0.00051008
10030.0 0.00050907
10050.0 0.00050788
10070.0 0.00050571
10090.0 0.00050511
10110.0 0.00050449
10130.0 0.0005038
10150.0 0.00050308
10170.0 0.0005023
10190.0 0.00050149
10210.0 0.00050073
10230.0 0.00050001
10250.0 0.00049928
10270.0 0.00049859
10290.0 0.00049797
10310.0 0.00049735
10330.0 0.00049674
10350.0 0.00049621
10370.0 0.00049572
10390.0 0.00049524
10410.0 0.0004948
10430.0 0.00049443
10450.0 0.00049407
10470.0 0.00049372
10490.0 0.00049344
10510.0 0.0004932
10530.0 0.00049294
10550.0 0.00049274
10570.0 0.0004926
10590.0 0.00049247
10610.0 0.00049236
10630.0 0.00049231
10650.0 0.00049228
10670.0 0.00049226
10690.0 0.00049228
10710.0 0.00049234
10730.0 0.00049241
10750.0 0.0004925
10770.0 0.00049264
10790.0 0.0004928
10810.0 0.00049297
10830.0 0.00049315
10850.0 0.00049333
10870.0 0.0004934
10890.0 0.00049329
10910.0 0.00049288
10930.0 0.00049189
10950.0 0.00048992
10970.0 0.00048676
10990.0 0.0004823
11010.0 0.00049065
11030.0 0.00048209
11050.0 0.00047204
11070.0 0.00046039
11090.0 0.00044689
11110.0 0.00043342
11130.0 0.00041995
11150.0 0.00040615
11170.0 0.00039275
11190.0 0.00038054
11210.0 0.00036877
11230.0 0.00035756
11250.0 0.00034765
11270.0 0.0003388
11290.0 0.00033052
11310.0 0.00032315
11330.0 0.00031694
11350.0 0.0003112
11370.0 0.00030586
11390.0 0.00030106
11410.0 0.00029654
11430.0 0.00029185
11450.0 0.0002872
11470.0 0.00028256
11490.0 0.00027761
11510.0 0.00027222
11530.0 0.00026681
11550.0 0.00026118
11570.0 0.00025509
11590.0 0.00024885
11610.0 0.00024269
11630.0 0.00023619
11650.0 0.00022948
11670.0 0.00022312
11690.0 0.00021682
11710.0 0.00021042
11730.0 0.00020426
11750.0 0.00019854
11770.0 0.00019279
11790.0 0.0001872
11810.0 0.00018204
11830.0 0.00017712
11850.0 0.00017216
11870.0 0.00016757
11890.0 0.00016333
11910.0 0.00015912
11930.0 0.00015501
11950.0 0.00015121
11970.0 0.00014747
11990.0 0.00014367
12010.0 0.00014007
12030.0 0.00013664
12050.0 0.00013321
12070.0 0.00012981
12090.0 0.00012677
12110.0 0.00012384
12130.0 0.00012104
12150.0 0.00011855
12170.0 0.00011643
12190.0 0.00011452
12210.0 0.00011304
12230.0 0.00011207
12250.0 0.00011156
12270.0 0.00011156
12290.0 0.00011212
12310.0 0.00011318
12330.0 0.00011482
12350.0 0.00011697
12370.0 0.00011949
12390.0 0.00012242
12410.0 0.00012582
12430.0 0.00012926
12450.0 0.00013278
12470.0 0.00013642
12490.0 0.00013999
12510.0 0.00014326
12530.0 0.00014642
12550.0 0.00014937
12570.0 0.00015193
12590.0 0.00015414
12610.0 0.00015609
12630.0 0.00015767
12650.0 0.00015887
12670.0 0.00015979
12690.0 0.00016043
12710.0 0.00016079
12730.0 0.00016093
12750.0 0.00016082
12770.0 0.00016051
12790.0 0.00016004
12810.0 0.00015937
12830.0 0.00015851
12850.0 0.00015753
12870.0 0.0001564
12890.0 0.00015503
12910.0 0.0001535
12930.0 0.00015185
12950.0 0.00014993
12970.0 0.00014774
12990.0 0.00014549
13010.0 0.00014305
13030.0 0.00014035
13050.0 0.00013755
13070.0 0.00013478
13090.0 0.00013181
13110.0 0.00012879
13130.0 0.00012592
13150.0 0.00012314
13170.0 0.00012035
13190.0 0.00011787
13210.0 0.00011572
13230.0 0.00011376
13250.0 0.00011211
13270.0 0.00011086
13290.0 0.00010991
13310.0 0.00010924
13330.0 0.0001089
13350.0 0.00010881
13370.0 0.0001089
13390.0 0.00010914
13410.0 0.00010944
13430.0 0.00010975
13450.0 0.00011
13470.0 0.00011014
13490.0 0.00011014
13510.0 0.00010994
13530.0 0.00010954
13550.0 0.00010897
13570.0 0.00010823
13590.0 0.00010731
13610.0 0.00010631
13630.0 0.00010527
13650.0 0.00010414
13670.0 0.00010302
13690.0 0.00010198
13710.0 0.00010097
13730.0 9.9979e-05
13750.0 9.9126e-05
13770.0 9.8347e-05
13790.0 9.7604e-05
13810.0 9.6913e-05
13830.0 9.6277e-05
13850.0 9.5628e-05
13870.0 9.4957e-05
13890.0 9.4281e-05
13910.0 9.3575e-05
13930.0 9.2796e-05
13950.0 9.1977e-05
13970.0 9.1162e-05
13990.0 9.03e-05
14010.0 8.9417e-05
14030.0 8.8571e-05
14050.0 8.776e-05
14070.0 8.6959e-05
14090.0 8.6243e-05
14110.0 8.562e-05
14130.0 8.5069e-05
14150.0 8.4603e-05
14170.0 8.4245e-05
14190.0 8.3974e-05
14210.0 8.379e-05
14230.0 8.3698e-05
14250.0 8.3688e-05
14270.0 8.377e-05
14290.0 8.3949e-05
14310.0 8.4195e-05
14330.0 8.4522e-05
14350.0 8.4945e-05
14370.0 8.5426e-05
14390.0 8.594e-05
14410.0 8.6531e-05
14430.0 8.7161e-05
14450.0 8.778e-05
14470.0 8.841e-05
14490.0 8.908e-05
14510.0 8.9708e-05
14530.0 9.0305e-05
14550.0 9.0928e-05
14570.0 9.1566e-05
14590.0 9.2191e-05
14610.0 9.2875e-05
14630.0 9.3664e-05
14650.0 9.4512e-05
14670.0 9.5447e-05
14690.0 9.6555e-05
14710.0 9.7837e-05
14730.0 9.9177e-05
14750.0 0.0001007
14770.0 0.00010243
14790.0 0.00010424
14810.0 0.00010611
14830.0 0.00010822
14850.0 0.00011035
14870.0 0.00011239
14890.0 0.00011443
14910.0 0.00011643
14930.0 0.00011819
14950.0 0.00011968
14970.0 0.00012096
14990.0 0.00012188
15010.0 0.00012243
15030.0 0.00012268
15050.0 0.00012266
15070.0 0.00012239
15090.0 0.00012197
15110.0 0.00012145
15130.0 0.00012086
15150.0 0.00012024
15170.0 0.00011961
15190.0 0.00011896
15210.0 0.00011831
15230.0 0.00011767
15250.0 0.00011702
15270.0 0.00011637
15290.0 0.00011574
15310.0 0.0001151
15330.0 0.00011445
15350.0 0.00011382
15370.0 0.00011319
15390.0 0.00011255
15410.0 0.00011191
15430.0 0.00011129
15450.0 0.00011066
15470.0 0.00011003
15490.0 0.00010941
15510.0 0.0001088
15530.0 0.00010818
15550.0 0.00010756
15570.0 0.00010696
15590.0 0.00010635
15610.0 0.00010573
15630.0 0.00010513
15650.0 0.00010454
15670.0 0.00010393
15690.0 0.00010334
15710.0 0.00010276
15730.0 0.00010217
15750.0 0.00010158
15770.0 0.000101
15790.0 0.00010042
15810.0 9.984e-05
15830.0 9.9268e-05
15850.0 9.8706e-05
15870.0 9.8139e-05
15890.0 9.7574e-05
15910.0 9.7022e-05
15930.0 9.6468e-05
15950.0 9.5909e-05
15970.0 9.5362e-05
15990.0 9.4822e-05
16010.0 9.4277e-05
16030.0 9.3732e-05
16050.0 9.3206e-05
16070.0 9.2676e-05
16090.0 9.2144e-05
16110.0 9.1622e-05
16130.0 9.1109e-05
16150.0 9.0583e-05
16170.0 9.0066e-05
16190.0 8.9561e-05
16210.0 8.9055e-05
16230.0 8.8546e-05
16250.0 8.8049e-05
16270.0 8.7558e-05
16290.0 8.706e-05
16310.0 8.6569e-05
16330.0 8.6088e-05
16350.0 8.5605e-05
16370.0 8.5115e-05
16390.0 8.4643e-05
16410.0 8.4174e-05
16430.0 8.37e-05
16450.0 8.3232e-05
16470.0 8.2777e-05
16490.0 8.2314e-05
16510.0 8.1852e-05
16530.0 8.1401e-05
16550.0 8.0953e-05
16570.0 8.0499e-05
16590.0 8.0051e-05
16610.0 7.9618e-05
16630.0 7.9178e-05
16650.0 7.8739e-05
16670.0 7.8311e-05
16690.0 7.7886e-05
16710.0 7.745e-05
16730.0 7.7026e-05
16750.0 7.661e-05
16770.0 7.619e-05
16790.0 7.5769e-05
16810.0 7.5362e-05
16830.0 7.4956e-05
16850.0 7.4544e-05
16870.0 7.414e-05
16890.0 7.3744e-05
16910.0 7.3341e-05
16930.0 7.2937e-05
16950.0 7.2549e-05
16970.0 7.2159e-05
16990.0 7.1765e-05
17010.0 7.138e-05
17030.0 7.1003e-05
17050.0 7.0618e-05
17070.0 7.0235e-05
17090.0 6.9863e-05
17110.0 6.949e-05
17130.0 6.9109e-05
17150.0 6.874e-05
17170.0 6.8378e-05
17190.0 6.801e-05
17210.0 6.7645e-05
17230.0 6.729e-05
17250.0 6.6932e-05
17270.0 6.6568e-05
17290.0 6.6215e-05
17310.0 6.5867e-05
17330.0 6.5512e-05
17350.0 6.5158e-05
17370.0 6.4819e-05
17390.0 6.4476e-05
17410.0 6.4129e-05
17430.0 6.3791e-05
17450.0 6.3458e-05
17470.0 6.3113e-05
17490.0 6.2775e-05
17510.0 6.2448e-05
17530.0 6.2116e-05
17550.0 6.1781e-05
17570.0 6.1457e-05
17590.0 6.1137e-05
17610.0 6.0808e-05
17630.0 6.0484e-05
17650.0 6.0168e-05
17670.0 5.9849e-05
17690.0 5.9521e-05
17710.0 5.921e-05
17730.0 5.89e-05
17750.0 5.8584e-05
17770.0 5.8272e-05
17790.0 5.797e-05
17810.0 5.7659e-05
17830.0 5.7348e-05
17850.0 5.7047e-05
17870.0 5.6746e-05
17890.0 5.6438e-05
17910.0 5.6136e-05
17930.0 5.5844e-05
17950.0 5.5546e-05
17970.0 5.5247e-05
17990.0 5.4957e-05
18010.0 5.4668e-05
18030.0 5.4367e-05
18050.0 5.4077e-05
18070.0 5.3793e-05
18090.0 5.3503e-05
18110.0 5.3212e-05
18130.0 5.2933e-05
18150.0 5.2653e-05
18170.0 5.2366e-05
18190.0 5.2086e-05
18210.0 5.1812e-05
18230.0 5.1529e-05
18250.0 5.1246e-05
18270.0 5.0976e-05
18290.0 5.0703e-05
18310.0 5.0426e-05
18330.0 5.0155e-05
18350.0 4.9891e-05
18370.0 4.9618e-05
18390.0 4.9346e-05
18410.0 4.9084e-05
18430.0 4.8819e-05
18450.0 4.8546e-05
18470.0 4.8285e-05
18490.0 4.8028e-05
18510.0 4.7764e-05
18530.0 4.7502e-05
18550.0 4.725e-05
18570.0 4.6992e-05
18590.0 4.6728e-05
18610.0 4.6475e-05
18630.0 4.6225e-05
18650.0 4.5967e-05
18670.0 4.5711e-05
18690.0 4.5467e-05
18710.0 4.5218e-05
18730.0 4.4965e-05
18750.0 4.472e-05
18770.0 4.4479e-05
18790.0 4.4225e-05
18810.0 4.3978e-05
18830.0 4.374e-05
18850.0 4.3497e-05
18870.0 4.3251e-05
18890.0 4.3015e-05
18910.0 4.278e-05
18930.0 4.2537e-05
18950.0 4.2298e-05
18970.0 4.2067e-05
18990.0 4.1831e-05
19010.0 4.1587e-05
19030.0 4.1359e-05
19050.0 4.113e-05
19070.0 4.0895e-05
19090.0 4.0664e-05
19110.0 4.0442e-05
19130.0 4.021e-05
19150.0 3.9977e-05
19170.0 3.9754e-05
19190.0 3.9531e-05
19210.0 3.93e-05
19230.0 3.9074e-05
19250.0 3.8858e-05
19270.0 3.8635e-05
19290.0 3.841e-05
19310.0 3.8195e-05
19330.0 3.7978e-05
19350.0 3.7751e-05
19370.0 3.7534e-05
19390.0 3.7322e-05
19410.0 3.7103e-05
19430.0 3.6884e-05
19450.0 3.6675e-05
19470.0 3.6464e-05
19490.0 3.6247e-05
19510.0 3.6036e-05
19530.0 3.583e-05
19550.0 3.5615e-05
19570.0 3.54e-05
19590.0 3.5197e-05
19610.0 3.4991e-05
19630.0 3.4779e-05
19650.0 3.4575e-05
19670.0 3.4375e-05
19690.0 3.4166e-05
19710.0 3.396e-05
19730.0 3.3761e-05
19750.0 3.3559e-05
19770.0 3.3349e-05
19790.0 3.315e-05
19810.0 3.2955e-05
19830.0 3.2751e-05
19850.0 3.2547e-05
19870.0 3.2349e-05
19890.0 3.2136e-05
19910.0 3.1902e-05
19930.0 3.1655e-05
19950.0 3.1375e-05
19970.0 3.1034e-05
19990.0 3.0632e-05
20010.0 3.0185e-05
20030.0 2.9658e-05
20050.0 2.9061e-05
20070.0 2.8438e-05
20090.0 2.7794e-05
20110.0 2.7099e-05
20130.0 2.6431e-05
20150.0 2.5804e-05
20170.0 2.5187e-05
20190.0 2.4594e-05
20210.0 2.4065e-05
20230.0 2.3575e-05
20250.0 2.3109e-05
20270.0 2.2701e-05
20290.0 2.235e-05
20310.0 2.2037e-05
20330.0 2.1768e-05
20350.0 2.1569e-05
20370.0 2.1417e-05
20390.0 2.1314e-05
20410.0 2.1268e-05
20430.0 2.1275e-05
20450.0 2.1336e-05
20470.0 2.1454e-05
20490.0 2.1621e-05
20510.0 2.184e-05
20530.0 2.2117e-05
20550.0 2.2435e-05
20570.0 2.2782e-05
20590.0 2.3177e-05
20610.0 2.3605e-05
20630.0 2.4038e-05
20650.0 2.449e-05
20670.0 2.4971e-05
20690.0 2.5428e-05
20710.0 2.5866e-05
20730.0 2.6301e-05
20750.0 2.6712e-05
20770.0 2.7077e-05
20790.0 2.7418e-05
20810.0 2.7734e-05
20830.0 2.8008e-05
20850.0 2.8247e-05
20870.0 2.8468e-05
20890.0 2.8663e-05
20910.0 2.8828e-05
20930.0 2.898e-05
20950.0 2.912e-05
20970.0 2.9245e-05
20990.0 2.9357e-05
21010.0 2.9462e-05
21030.0 2.9554e-05
21050.0 2.9628e-05
21070.0 2.9687e-05
21090.0 2.9727e-05
21110.0 2.9743e-05
21130.0 2.9738e-05
21150.0 2.9709e-05
21170.0 2.9656e-05
21190.0 2.9584e-05
21210.0 2.9488e-05
21230.0 2.9371e-05
21250.0 2.9244e-05
21270.0 2.9106e-05
21290.0 2.8955e-05
21310.0 2.8799e-05
21330.0 2.865e-05
21350.0 2.8497e-05
21370.0 2.8346e-05
21390.0 2.8208e-05
21410.0 2.808e-05
21430.0 2.7957e-05
21450.0 2.7852e-05
21470.0 2.7765e-05
21490.0 2.7691e-05
21510.0 2.7633e-05
21530.0 2.7593e-05
21550.0 2.7571e-05
21570.0 2.7565e-05
21590.0 2.7579e-05
21610.0 2.761e-05
21630.0 2.766e-05
21650.0 2.7732e-05
21670.0 2.782e-05
21690.0 2.7927e-05
21710.0 2.8058e-05
21730.0 2.8208e-05
21750.0 2.8373e-05
21770.0 2.857e-05
21790.0 2.8788e-05
21810.0 2.9019e-05
21830.0 2.9273e-05
21850.0 2.9557e-05
21870.0 2.9853e-05
21890.0 3.0158e-05
21910.0 3.0491e-05
21930.0 3.0839e-05
21950.0 3.1186e-05
21970.0 3.1548e-05
21990.0 3.1933e-05
22010.0 3.2303e-05
22030.0 3.2666e-05
22050.0 3.3036e-05
22070.0 3.3395e-05
22090.0 3.3725e-05
22110.0 3.4045e-05
22130.0 3.4348e-05
22150.0 3.4613e-05
22170.0 3.4843e-05
22190.0 3.5046e-05
22210.0 3.5203e-05
22230.0 3.5309e-05
22250.0 3.537e-05
22270.0 3.5379e-05
22290.0 3.5336e-05
22310.0 3.5241e-05
22330.0 3.5084e-05
22350.0 3.4873e-05
22370.0 3.4615e-05
22390.0 3.43e-05
22410.0 3.3921e-05
22430.0 3.3513e-05
22450.0 3.3067e-05
22470.0 3.2565e-05
22490.0 3.2034e-05
22510.0 3.1494e-05
22530.0 3.0907e-05
22550.0 3.0291e-05
22570.0 2.9689e-05
22590.0 2.908e-05
22610.0 2.8448e-05
22630.0 2.7828e-05
22650.0 2.724e-05
22670.0 2.6642e-05
22690.0 2.6052e-05
