#lamb flux
1010.0 1.2201e-06
1030.0 1.3735e-06
1050.0 1.5396e-06
1070.0 1.7276e-06
1090.0 1.9453e-06
1110.0 2.17e-06
1130.0 2.398e-06
1150.0 2.6391e-06
1170.0 2.8908e-06
1190.0 3.1344e-06
1210.0 3.386e-06
1230.0 3.6513e-06
1250.0 3.9177e-06
1270.0 4.1845e-06
1290.0 4.4727e-06
1310.0 4.7693e-06
1330.0 5.0644e-06
1350.0 5.3707e-06
1370.0 5.6938e-06
1390.0 6.0185e-06
1410.0 6.3429e-06
1430.0 6.6856e-06
1450.0 7.0343e-06
1470.0 7.379e-06
1490.0 7.7306e-06
1510.0 8.1006e-06
1530.0 8.4576e-06
1550.0 8.8115e-06
1570.0 9.1745e-06
1590.0 9.5362e-06
1610.0 9.8816e-06
1630.0 1.023e-05
1650.0 1.058e-05
1670.0 1.0913e-05
1690.0 1.1233e-05
1710.0 1.1555e-05
1730.0 1.1866e-05
1750.0 1.2147e-05
1770.0 1.2423e-05
1790.0 1.2689e-05
1810.0 1.293e-05
1830.0 1.3151e-05
1850.0 1.3371e-05
1870.0 1.3567e-05
1890.0 1.3735e-05
1910.0 1.3892e-05
1930.0 1.4037e-05
1950.0 1.4152e-05
1970.0 1.4246e-05
1990.0 1.4332e-05
2010.0 1.4395e-05
2030.0 1.4431e-05
2050.0 1.4457e-05
2070.0 1.4471e-05
2090.0 1.4451e-05
2110.0 1.4411e-05
2130.0 1.436e-05
2150.0 1.4284e-05
2170.0 1.4179e-05
2190.0 1.4063e-05
2210.0 1.3928e-05
2230.0 1.3766e-05
2250.0 1.3584e-05
2270.0 1.3394e-05
2290.0 1.3179e-05
2310.0 1.294e-05
2330.0 1.2692e-05
2350.0 1.2431e-05
2370.0 1.2149e-05
2390.0 1.1855e-05
2410.0 1.1555e-05
2430.0 1.1235e-05
2450.0 1.0896e-05
2470.0 1.0541e-05
2490.0 1.0168e-05
2510.0 9.7769e-06
2530.0 9.3902e-06
2550.0 9.0384e-06
2570.0 8.7611e-06
2590.0 8.5995e-06
2610.0 8.6347e-06
2630.0 8.8903e-06
2650.0 9.3225e-06
2670.0 9.929e-06
2690.0 1.0662e-05
2710.0 1.1353e-05
2730.0 1.1913e-05
2750.0 1.2343e-05
2770.0 1.2531e-05
2790.0 1.2455e-05
2810.0 1.216e-05
2830.0 1.1666e-05
2850.0 1.1007e-05
2870.0 1.0242e-05
2890.0 9.3937e-06
2910.0 8.4968e-06
2930.0 7.5912e-06
2950.0 6.6603e-06
2970.0 5.7153e-06
2990.0 4.7881e-06
3010.0 8.7155e-06
3030.0 6.6275e-06
3050.0 4.5428e-06
3070.0 2.5175e-06
3090.0 1.8959e-06
3110.0 1.8959e-06
3130.0 1.8959e-06
3150.0 1.8959e-06
3170.0 1.8959e-06
3190.0 1.8959e-06
3210.0 7.9726e-06
3230.0 3.7204e-05
3250.0 7.4292e-05
3270.0 8.0775e-05
3290.0 9.9895e-05
3310.0 8.4186e-05
3330.0 8.6697e-05
3350.0 9.591e-05
3370.0 0.00010853
3390.0 0.00012309
3410.0 0.0001386
3430.0 0.00015751
3450.0 0.00017746
3470.0 0.00019851
3490.0 0.00021417
3510.0 0.00022208
3530.0 0.00023484
3550.0 0.0002411
3570.0 0.00023481
3590.0 0.00024751
3610.0 0.00023668
3630.0 0.00028994
3650.0 0.00032834
3670.0 0.00035225
3690.0 0.00032449
3710.0 0.00025555
3730.0 0.00023176
3750.0 0.00020228
3770.0 0.00017963
3790.0 0.00015732
3810.0 0.00015349
3830.0 0.0001889
3850.0 7.466e-05
3870.0 0.00017429
3890.0 0.00021202
3910.0 0.00022528
3930.0 0.00026803
3950.0 0.00029162
3970.0 0.00034686
3990.0 0.00042892
4010.0 0.00030034
4030.0 0.00024214
4050.0 0.00020075
4070.0 0.00021694
4090.0 0.00033787
4110.0 0.00031266
4130.0 0.00033058
4150.0 0.00030925
4170.0 0.00029612
4190.0 0.00027284
4210.0 0.00040567
4230.0 0.00042231
4250.0 0.00045411
4270.0 0.00042382
4290.0 0.00043725
4310.0 0.00049898
4330.0 0.00058337
4350.0 0.0005714
4370.0 0.00054725
4390.0 0.00047783
4410.0 0.00044361
4430.0 0.00035494
4450.0 0.00030632
4470.0 0.00034652
4490.0 0.0004192
4510.0 0.00043557
4530.0 0.00046138
4550.0 0.00049256
4570.0 0.00068029
4590.0 0.00098888
4610.0 0.0011761
4630.0 0.0011734
4650.0 0.0011856
4670.0 0.0013237
4690.0 0.0014551
4710.0 0.0011917
4730.0 0.00090464
4750.0 0.00072587
4770.0 0.00065724
4790.0 0.00063398
4810.0 0.00060682
4830.0 0.0006668
4850.0 0.00076402
4870.0 0.00084206
4890.0 0.00086393
4910.0 0.00077833
4930.0 0.00081931
4950.0 0.0010232
4970.0 0.0012518
4990.0 0.0013108
5010.0 0.0012025
5030.0 0.00099188
5050.0 0.00074698
5070.0 0.00059098
5090.0 0.00053028
5110.0 0.00051764
5130.0 0.00053037
5150.0 0.00052948
5170.0 0.00051855
5190.0 0.0004949
5210.0 0.00048582
5230.0 0.0005366
5250.0 0.00060141
5270.0 0.00071489
5290.0 0.00083136
5310.0 0.00086337
5330.0 0.00091581
5350.0 0.0010179
5370.0 0.0010913
5390.0 0.0010004
5410.0 0.00088489
5430.0 0.00084889
5450.0 0.00097741
5470.0 0.0012258
5490.0 0.0014606
5510.0 0.0015698
5530.0 0.0015522
5550.0 0.001476
5570.0 0.0014274
5590.0 0.0013847
5610.0 0.001378
5630.0 0.0013701
5650.0 0.0013655
5670.0 0.0013677
5690.0 0.001281
5710.0 0.0010821
5730.0 0.00094953
5750.0 0.00087897
5770.0 0.00089343
5790.0 0.00093336
5810.0 0.00098538
5830.0 0.0010113
5850.0 0.00096861
5870.0 0.0009013
5890.0 0.00084303
5910.0 0.0008617
5930.0 0.00091776
5950.0 0.00087699
5970.0 0.00078524
5990.0 0.00066577
6010.0 0.00054076
6030.0 0.00048115
6050.0 0.00050653
6070.0 0.00055158
6090.0 0.00055154
6110.0 0.00048857
6130.0 0.0004835
6150.0 0.00055185
6170.0 0.00064692
6190.0 0.00073299
6210.0 0.00074621
6230.0 0.00072541
6250.0 0.00066616
6270.0 0.00056726
6290.0 0.0004726
6310.0 0.00041203
6330.0 0.00039582
6350.0 0.00040899
6370.0 0.00041186
6390.0 0.00044332
6410.0 0.00053797
6430.0 0.00068161
6450.0 0.0008034
6470.0 0.00084653
6490.0 0.00082993
6510.0 0.0008452
6530.0 0.00088154
6550.0 0.00087377
6570.0 0.00090269
6590.0 0.00091467
6610.0 0.00092699
6630.0 0.00093066
6650.0 0.00089058
6670.0 0.00081982
6690.0 0.00072928
6710.0 0.00066907
6730.0 0.00067078
6750.0 0.00070416
6770.0 0.00073018
6790.0 0.00074783
6810.0 0.00075655
6830.0 0.00074088
6850.0 0.00071489
6870.0 0.00067196
6890.0 0.00065376
6910.0 0.00062136
6930.0 0.00063431
6950.0 0.0006814
6970.0 0.00070564
6990.0 0.00072628
7010.0 0.00071361
7030.0 0.00066167
7050.0 0.00058224
7070.0 0.00050035
7090.0 0.00044726
7110.0 0.0004398
7130.0 0.00044971
7150.0 0.00041911
7170.0 0.00039163
7190.0 0.00041063
7210.0 0.00046126
7230.0 0.00053527
7250.0 0.0005816
7270.0 0.00058726
7290.0 0.00054038
7310.0 0.00049124
7330.0 0.0004617
7350.0 0.00045991
7370.0 0.00047105
7390.0 0.00049009
7410.0 0.0005344
7430.0 0.0006198
7450.0 0.00071139
7470.0 0.00077032
7490.0 0.00077486
7510.0 0.00073448
7530.0 0.00061467
7550.0 0.00054033
7570.0 0.00046996
7590.0 0.00043519
7610.0 0.00045432
7630.0 0.00050624
7650.0 0.0005698
7670.0 0.00062884
7690.0 0.00066699
7710.0 0.00071061
7730.0 0.00075818
7750.0 0.00080067
7770.0 0.00079702
7790.0 0.00079968
7810.0 0.00082044
7830.0 0.00083645
7850.0 0.00081565
7870.0 0.00078403
7890.0 0.00076947
7910.0 0.00073072
7930.0 0.00071931
7950.0 0.00068609
7970.0 0.00067361
7990.0 0.00065831
8010.0 0.00068382
8030.0 0.00068961
8050.0 0.00069919
8070.0 0.00069281
8090.0 0.00069064
8110.0 0.00066267
8130.0 0.00066013
8150.0 0.00064873
8170.0 0.00063141
8190.0 0.00062089
8210.0 0.0006236
8230.0 0.00060303
8250.0 0.00058146
8270.0 0.00051705
8290.0 0.00041696
8310.0 0.00031072
8330.0 0.00023558
8350.0 0.00021619
8370.0 0.0002572
8390.0 0.00031296
8410.0 0.00034349
8430.0 0.00035997
8450.0 0.00037794
8470.0 0.00040061
8490.0 0.00044719
8510.0 0.00050946
8530.0 0.00059181
8550.0 0.00067899
8570.0 0.00075623
8590.0 0.00081753
8610.0 0.00085878
8630.0 0.00087325
8650.0 0.0008716
8670.0 0.00087249
8690.0 0.00090975
8710.0 0.0009547
8730.0 0.00099054
8750.0 0.00098464
8770.0 0.00099558
8790.0 0.00098812
8810.0 0.00092469
8830.0 0.00088254
8850.0 0.00082193
8870.0 0.00077287
8890.0 0.00075156
8910.0 0.00075856
8930.0 0.00071894
8950.0 0.00067995
8970.0 0.0006644
8990.0 0.00065575
9010.0 0.00063189
9030.0 0.00061748
9050.0 0.00061295
9070.0 0.00061083
9090.0 0.00060893
9110.0 0.0006071
9130.0 0.00060521
9150.0 0.00060334
9170.0 0.00060105
9190.0 0.00059898
9210.0 0.00060046
9230.0 0.00059741
9250.0 0.00059491
9270.0 0.00059268
9290.0 0.00059062
9310.0 0.00058862
9330.0 0.00058668
9350.0 0.00058486
9370.0 0.00058302
9390.0 0.00058115
9410.0 0.00057933
9430.0 0.00057748
9450.0 0.00057507
9470.0 0.00057285
9490.0 0.00057156
9510.0 0.00056999
9530.0 0.00056832
9550.0 0.00056663
9570.0 0.0005649
9590.0 0.00056314
9610.0 0.00056136
9630.0 0.0005596
9650.0 0.00055782
9670.0 0.00055603
9690.0 0.00055426
9710.0 0.00055249
9730.0 0.00055071
9750.0 0.00054893
9770.0 0.00054717
9790.0 0.00054539
9810.0 0.0005436
9830.0 0.00054183
9850.0 0.00054006
9870.0 0.00053825
9890.0 0.00053645
9910.0 0.00053465
9930.0 0.00053278
9950.0 0.00052661
9970.0 0.00052607
9990.0 0.00052529
10010.0 0.00052434
10030.0 0.00052303
10050.0 0.00052142
10070.0 0.00051971
10090.0 0.00051805
10110.0 0.00051611
10130.0 0.00051432
10150.0 0.00051246
10170.0 0.00051046
10190.0 0.0005083
10210.0 0.00050632
10230.0 0.00050439
10250.0 0.00050228
10270.0 0.00050018
10290.0 0.00049821
10310.0 0.00049607
10330.0 0.00049378
10350.0 0.00049166
10370.0 0.00048953
10390.0 0.00048721
10410.0 0.0004849
10430.0 0.00048275
10450.0 0.00048041
10470.0 0.00047796
10490.0 0.00047562
10510.0 0.00047327
10530.0 0.00047063
10550.0 0.00046807
10570.0 0.00046564
10590.0 0.00046303
10610.0 0.00046031
10630.0 0.00045773
10650.0 0.00045509
10670.0 0.0004522
10690.0 0.00044937
10710.0 0.00044662
10730.0 0.00044368
10750.0 0.00044056
10770.0 0.00043769
10790.0 0.00043471
10810.0 0.00043153
10830.0 0.00042839
10850.0 0.00042535
10870.0 0.00042196
10890.0 0.00041851
10910.0 0.00041514
10930.0 0.00041158
10950.0 0.00040766
10970.0 0.00040363
10990.0 0.00039957
11010.0 0.00040069
11030.0 0.00039562
11050.0 0.00039071
11070.0 0.00038573
11090.0 0.00038048
11110.0 0.00037568
11130.0 0.00037113
11150.0 0.00036652
11170.0 0.00036206
11190.0 0.00035797
11210.0 0.00035384
11230.0 0.00034964
11250.0 0.00034567
11270.0 0.00034181
11290.0 0.00033778
11310.0 0.00033375
11330.0 0.00033002
11350.0 0.00032616
11370.0 0.00032217
11390.0 0.0003183
11410.0 0.00031443
11430.0 0.00031019
11450.0 0.0003059
11470.0 0.00030162
11490.0 0.00029704
11510.0 0.00029208
11530.0 0.00028716
11550.0 0.00028208
11570.0 0.00027656
11590.0 0.00027091
11610.0 0.00026532
11630.0 0.00025937
11650.0 0.00025317
11670.0 0.00024723
11690.0 0.00024129
11710.0 0.00023518
11730.0 0.00022922
11750.0 0.00022364
11770.0 0.00021798
11790.0 0.00021243
11810.0 0.00020727
11830.0 0.00020233
11850.0 0.00019734
11870.0 0.00019273
11890.0 0.00018848
11910.0 0.00018429
11930.0 0.00018024
11950.0 0.00017653
11970.0 0.00017295
11990.0 0.00016937
12010.0 0.00016605
12030.0 0.00016295
12050.0 0.0001599
12070.0 0.00015695
12090.0 0.00015435
12110.0 0.00015188
12130.0 0.00014955
12150.0 0.00014749
12170.0 0.0001457
12190.0 0.00014406
12210.0 0.00014271
12230.0 0.00014169
12250.0 0.00014094
12270.0 0.00014047
12290.0 0.00014032
12310.0 0.00014047
12330.0 0.00014093
12350.0 0.00014171
12370.0 0.00014275
12390.0 0.00014409
12410.0 0.00014581
12430.0 0.0001477
12450.0 0.00014978
12470.0 0.00015215
12490.0 0.00015468
12510.0 0.00015721
12530.0 0.00015989
12550.0 0.00016265
12570.0 0.00016527
12590.0 0.00016775
12610.0 0.00017016
12630.0 0.00017231
12650.0 0.00017405
12670.0 0.00017552
12690.0 0.00017662
12710.0 0.00017729
12730.0 0.00017755
12750.0 0.0001774
12770.0 0.00017683
12790.0 0.00017591
12810.0 0.00017463
12830.0 0.00017301
12850.0 0.00017121
12870.0 0.00016925
12890.0 0.00016708
12910.0 0.00016485
12930.0 0.00016265
12950.0 0.00016037
12970.0 0.00015807
12990.0 0.00015593
13010.0 0.00015385
13030.0 0.00015177
13050.0 0.00014978
13070.0 0.00014791
13090.0 0.00014602
13110.0 0.00014415
13130.0 0.00014236
13150.0 0.00014058
13170.0 0.00013874
13190.0 0.00013697
13210.0 0.00013528
13230.0 0.00013358
13250.0 0.00013194
13270.0 0.00013045
13290.0 0.00012905
13310.0 0.00012776
13330.0 0.00012668
13350.0 0.00012582
13370.0 0.00012514
13390.0 0.00012468
13410.0 0.00012443
13430.0 0.00012435
13450.0 0.00012441
13470.0 0.00012454
13490.0 0.0001247
13510.0 0.00012484
13530.0 0.00012487
13550.0 0.00012475
13570.0 0.00012444
13590.0 0.00012388
13610.0 0.00012309
13630.0 0.00012208
13650.0 0.0001208
13670.0 0.00011931
13690.0 0.0001177
13710.0 0.00011594
13730.0 0.00011402
13750.0 0.00011218
13770.0 0.00011037
13790.0 0.00010856
13810.0 0.00010686
13830.0 0.00010535
13850.0 0.00010392
13870.0 0.00010262
13890.0 0.00010152
13910.0 0.00010056
13930.0 9.9703e-05
13950.0 9.8979e-05
13970.0 9.8386e-05
13990.0 9.7861e-05
14010.0 9.7397e-05
14030.0 9.6992e-05
14050.0 9.6616e-05
14070.0 9.6236e-05
14090.0 9.5858e-05
14110.0 9.5466e-05
14130.0 9.5032e-05
14150.0 9.4543e-05
14170.0 9.4022e-05
14190.0 9.345e-05
14210.0 9.2807e-05
14230.0 9.2127e-05
14250.0 9.1431e-05
14270.0 9.0687e-05
14290.0 8.9924e-05
14310.0 8.9207e-05
14330.0 8.8516e-05
14350.0 8.7852e-05
14370.0 8.7262e-05
14390.0 8.6757e-05
14410.0 8.631e-05
14430.0 8.5945e-05
14450.0 8.5667e-05
14470.0 8.546e-05
14490.0 8.5316e-05
14510.0 8.5236e-05
14530.0 8.5204e-05
14550.0 8.5218e-05
14570.0 8.5276e-05
14590.0 8.537e-05
14610.0 8.5509e-05
14630.0 8.5709e-05
14650.0 8.5959e-05
14670.0 8.6266e-05
14690.0 8.6659e-05
14710.0 8.7143e-05
14730.0 8.7677e-05
14750.0 8.8309e-05
14770.0 8.9055e-05
14790.0 8.9878e-05
14810.0 9.0778e-05
14830.0 9.1853e-05
14850.0 9.3035e-05
14870.0 9.4286e-05
14890.0 9.5666e-05
14910.0 9.7173e-05
14930.0 9.8667e-05
14950.0 0.00010011
14970.0 0.00010151
14990.0 0.00010274
15010.0 0.00010371
15030.0 0.00010446
15050.0 0.00010499
15070.0 0.00010529
15090.0 0.00010545
15110.0 0.0001055
15130.0 0.00010548
15150.0 0.00010543
15170.0 0.00010536
15190.0 0.00010528
15210.0 0.0001052
15230.0 0.00010512
15250.0 0.00010504
15270.0 0.00010496
15290.0 0.00010488
15310.0 0.0001048
15330.0 0.00010471
15350.0 0.00010464
15370.0 0.00010456
15390.0 0.00010448
15410.0 0.0001044
15430.0 0.00010432
15450.0 0.00010424
15470.0 0.00010417
15490.0 0.00010409
15510.0 0.00010401
15530.0 0.00010394
15550.0 0.00010386
15570.0 0.00010379
15590.0 0.00010371
15610.0 0.00010363
15630.0 0.00010356
15650.0 0.00010348
15670.0 0.00010341
15690.0 0.00010333
15710.0 0.00010326
15730.0 0.00010318
15750.0 0.00010311
15770.0 0.00010303
15790.0 0.00010296
15810.0 0.00010288
15830.0 0.00010281
15850.0 0.00010273
15870.0 0.00010266
15890.0 0.00010258
15910.0 0.00010251
15930.0 0.00010243
15950.0 0.00010235
15970.0 0.00010228
15990.0 0.0001022
16010.0 0.00010212
16030.0 0.00010204
16050.0 0.00010196
16070.0 0.00010189
16090.0 0.00010181
16110.0 0.00010173
16130.0 0.00010165
16150.0 0.00010157
16170.0 0.00010148
16190.0 0.0001014
16210.0 0.00010132
16230.0 0.00010124
16250.0 0.00010115
16270.0 0.00010107
16290.0 0.00010098
16310.0 0.0001009
16330.0 0.00010081
16350.0 0.00010072
16370.0 0.00010063
16390.0 0.00010054
16410.0 0.00010045
16430.0 0.00010036
16450.0 0.00010027
16470.0 0.00010018
16490.0 0.00010008
16510.0 9.9986e-05
16530.0 9.989e-05
16550.0 9.9793e-05
16570.0 9.9693e-05
16590.0 9.9592e-05
16610.0 9.9492e-05
16630.0 9.9389e-05
16650.0 9.9285e-05
16670.0 9.9181e-05
16690.0 9.9075e-05
16710.0 9.8965e-05
16730.0 9.8856e-05
16750.0 9.8747e-05
16770.0 9.8634e-05
16790.0 9.852e-05
16810.0 9.8406e-05
16830.0 9.829e-05
16850.0 9.8171e-05
16870.0 9.8052e-05
16890.0 9.7932e-05
16910.0 9.7808e-05
16930.0 9.7682e-05
16950.0 9.7557e-05
16970.0 9.743e-05
16990.0 9.73e-05
17010.0 9.7169e-05
17030.0 9.7037e-05
17050.0 9.6902e-05
17070.0 9.6765e-05
17090.0 9.6627e-05
17110.0 9.6488e-05
17130.0 9.6344e-05
17150.0 9.6201e-05
17170.0 9.6056e-05
17190.0 9.5908e-05
17210.0 9.5759e-05
17230.0 9.5609e-05
17250.0 9.5456e-05
17270.0 9.5299e-05
17290.0 9.5142e-05
17310.0 9.4984e-05
17330.0 9.4822e-05
17350.0 9.4658e-05
17370.0 9.4495e-05
17390.0 9.4328e-05
17410.0 9.4159e-05
17430.0 9.3988e-05
17450.0 9.3816e-05
17470.0 9.364e-05
17490.0 9.3462e-05
17510.0 9.3284e-05
17530.0 9.3103e-05
17550.0 9.2919e-05
17570.0 9.2735e-05
17590.0 9.2549e-05
17610.0 9.2359e-05
17630.0 9.2168e-05
17650.0 9.1976e-05
17670.0 9.1781e-05
17690.0 9.1582e-05
17710.0 9.1384e-05
17730.0 9.1183e-05
17750.0 9.098e-05
17770.0 9.0775e-05
17790.0 9.0569e-05
17810.0 9.036e-05
17830.0 9.0148e-05
17850.0 8.9936e-05
17870.0 8.9723e-05
17890.0 8.9505e-05
17910.0 8.9286e-05
17930.0 8.9068e-05
17950.0 8.8846e-05
17970.0 8.8621e-05
17990.0 8.8397e-05
18010.0 8.817e-05
18030.0 8.794e-05
18050.0 8.7709e-05
18070.0 8.7478e-05
18090.0 8.7243e-05
18110.0 8.7007e-05
18130.0 8.677e-05
18150.0 8.6532e-05
18170.0 8.6291e-05
18190.0 8.6049e-05
18210.0 8.5807e-05
18230.0 8.5561e-05
18250.0 8.5313e-05
18270.0 8.5066e-05
18290.0 8.4817e-05
18310.0 8.4566e-05
18330.0 8.4314e-05
18350.0 8.4062e-05
18370.0 8.3807e-05
18390.0 8.3551e-05
18410.0 8.3295e-05
18430.0 8.3037e-05
18450.0 8.2776e-05
18470.0 8.2516e-05
18490.0 8.2256e-05
18510.0 8.1993e-05
18530.0 8.1729e-05
18550.0 8.1466e-05
18570.0 8.1201e-05
18590.0 8.0933e-05
18610.0 8.0667e-05
18630.0 8.0399e-05
18650.0 8.013e-05
18670.0 7.986e-05
18690.0 7.9591e-05
18710.0 7.9321e-05
18730.0 7.9049e-05
18750.0 7.8777e-05
18770.0 7.8506e-05
18790.0 7.8231e-05
18810.0 7.7957e-05
18830.0 7.7684e-05
18850.0 7.741e-05
18870.0 7.7134e-05
18890.0 7.686e-05
18910.0 7.6585e-05
18930.0 7.6309e-05
18950.0 7.6033e-05
18970.0 7.5758e-05
18990.0 7.5481e-05
19010.0 7.5203e-05
19030.0 7.4928e-05
19050.0 7.4652e-05
19070.0 7.4375e-05
19090.0 7.4098e-05
19110.0 7.3823e-05
19130.0 7.3546e-05
19150.0 7.3269e-05
19170.0 7.2993e-05
19190.0 7.2718e-05
19210.0 7.2441e-05
19230.0 7.2165e-05
19250.0 7.1891e-05
19270.0 7.1616e-05
19290.0 7.1341e-05
19310.0 7.1068e-05
19330.0 7.0794e-05
19350.0 7.0519e-05
19370.0 7.0247e-05
19390.0 6.9975e-05
19410.0 6.9703e-05
19430.0 6.943e-05
19450.0 6.9161e-05
19470.0 6.8891e-05
19490.0 6.862e-05
19510.0 6.8351e-05
19530.0 6.8084e-05
19550.0 6.7815e-05
19570.0 6.7547e-05
19590.0 6.7282e-05
19610.0 6.7017e-05
19630.0 6.6751e-05
19650.0 6.6488e-05
19670.0 6.6226e-05
19690.0 6.5963e-05
19710.0 6.5701e-05
19730.0 6.5441e-05
19750.0 6.5182e-05
19770.0 6.4922e-05
19790.0 6.4664e-05
19810.0 6.4407e-05
19830.0 6.4149e-05
19850.0 6.3889e-05
19870.0 6.3626e-05
19890.0 6.3351e-05
19910.0 6.305e-05
19930.0 6.2716e-05
19950.0 6.2328e-05
19970.0 6.1854e-05
19990.0 6.1278e-05
20010.0 6.0614e-05
20030.0 5.9823e-05
20050.0 5.8913e-05
20070.0 5.7939e-05
20090.0 5.691e-05
20110.0 5.5787e-05
20130.0 5.4674e-05
20150.0 5.3593e-05
20170.0 5.2503e-05
20190.0 5.1422e-05
20210.0 5.0409e-05
20230.0 4.9428e-05
20250.0 4.8451e-05
20270.0 4.753e-05
20290.0 4.6665e-05
20310.0 4.5818e-05
20330.0 4.4986e-05
20350.0 4.4234e-05
20370.0 4.3508e-05
20390.0 4.2799e-05
20410.0 4.2133e-05
20430.0 4.1517e-05
20450.0 4.0907e-05
20470.0 4.0333e-05
20490.0 3.981e-05
20510.0 3.9319e-05
20530.0 3.8853e-05
20550.0 3.8433e-05
20570.0 3.8061e-05
20590.0 3.7718e-05
20610.0 3.7413e-05
20630.0 3.7153e-05
20650.0 3.6928e-05
20670.0 3.6736e-05
20690.0 3.6583e-05
20710.0 3.6461e-05
20730.0 3.637e-05
20750.0 3.6306e-05
20770.0 3.6263e-05
20790.0 3.624e-05
20810.0 3.6237e-05
20830.0 3.6243e-05
20850.0 3.6254e-05
20870.0 3.6275e-05
20890.0 3.6295e-05
20910.0 3.6304e-05
20930.0 3.6307e-05
20950.0 3.63e-05
20970.0 3.6274e-05
20990.0 3.6228e-05
21010.0 3.6164e-05
21030.0 3.6074e-05
21050.0 3.5961e-05
21070.0 3.5822e-05
21090.0 3.5654e-05
21110.0 3.5464e-05
21130.0 3.5252e-05
21150.0 3.5012e-05
21170.0 3.4752e-05
21190.0 3.4478e-05
21210.0 3.4181e-05
21230.0 3.3863e-05
21250.0 3.3541e-05
21270.0 3.3209e-05
21290.0 3.2861e-05
21310.0 3.251e-05
21330.0 3.2167e-05
21350.0 3.1814e-05
21370.0 3.146e-05
21390.0 3.112e-05
21410.0 3.0789e-05
21430.0 3.0454e-05
21450.0 3.0141e-05
21470.0 2.9852e-05
21490.0 2.9575e-05
21510.0 2.9318e-05
21530.0 2.9091e-05
21550.0 2.8888e-05
21570.0 2.8709e-05
21590.0 2.8562e-05
21610.0 2.8444e-05
21630.0 2.8356e-05
21650.0 2.8299e-05
21670.0 2.8269e-05
21690.0 2.8265e-05
21710.0 2.8291e-05
21730.0 2.8337e-05
21750.0 2.8399e-05
21770.0 2.8487e-05
21790.0 2.8589e-05
21810.0 2.8695e-05
21830.0 2.8808e-05
21850.0 2.8932e-05
21870.0 2.905e-05
21890.0 2.9157e-05
21910.0 2.9266e-05
21930.0 2.9365e-05
21950.0 2.9446e-05
21970.0 2.9516e-05
21990.0 2.9578e-05
22010.0 2.9617e-05
22030.0 2.9639e-05
22050.0 2.9647e-05
22070.0 2.964e-05
22090.0 2.9614e-05
22110.0 2.9575e-05
22130.0 2.9523e-05
22150.0 2.9456e-05
22170.0 2.9378e-05
22190.0 2.9288e-05
22210.0 2.9185e-05
22230.0 2.9074e-05
22250.0 2.8952e-05
22270.0 2.8818e-05
22290.0 2.8675e-05
22310.0 2.8523e-05
22330.0 2.8355e-05
22350.0 2.8176e-05
22370.0 2.7988e-05
22390.0 2.7783e-05
22410.0 2.7558e-05
22430.0 2.7325e-05
22450.0 2.7079e-05
22470.0 2.6808e-05
22490.0 2.6524e-05
22510.0 2.6232e-05
22530.0 2.5916e-05
22550.0 2.5579e-05
22570.0 2.5242e-05
22590.0 2.4894e-05
22610.0 2.4528e-05
22630.0 2.416e-05
