#lamb flux
1010.0 1.5355e-06
1030.0 1.7986e-06
1050.0 2.0523e-06
1070.0 2.2842e-06
1090.0 2.4937e-06
1110.0 2.6348e-06
1130.0 2.7059e-06
1150.0 2.7254e-06
1170.0 2.6891e-06
1190.0 2.579e-06
1210.0 2.4215e-06
1230.0 2.2219e-06
1250.0 1.9736e-06
1270.0 1.6833e-06
1290.0 1.3662e-06
1310.0 1.0198e-06
1330.0 6.5101e-07
1350.0 2.7353e-07
1370.0 1e-99
1390.0 1e-99
1410.0 1e-99
1430.0 1e-99
1450.0 1e-99
1470.0 1e-99
1490.0 1e-99
1510.0 1e-99
1530.0 1e-99
1550.0 1e-99
1570.0 1e-99
1590.0 1e-99
1610.0 1e-99
1630.0 1e-99
1650.0 1e-99
1670.0 1e-99
1690.0 1e-99
1710.0 1e-99
1730.0 1e-99
1750.0 4.7949e-07
1770.0 1.1572e-06
1790.0 1.9334e-06
1810.0 2.8145e-06
1830.0 3.8086e-06
1850.0 4.9298e-06
1870.0 6.1856e-06
1890.0 7.5819e-06
1910.0 9.1356e-06
1930.0 1.086e-05
1950.0 1.2746e-05
1970.0 1.4804e-05
1990.0 1.7056e-05
2010.0 1.9486e-05
2030.0 2.2084e-05
2050.0 2.4871e-05
2070.0 2.7841e-05
2090.0 3.0941e-05
2110.0 3.4178e-05
2130.0 3.7554e-05
2150.0 4.1019e-05
2170.0 4.4523e-05
2190.0 4.8094e-05
2210.0 5.1682e-05
2230.0 5.5213e-05
2250.0 5.8681e-05
2270.0 6.2098e-05
2290.0 6.5361e-05
2310.0 6.8424e-05
2330.0 7.1328e-05
2350.0 7.4021e-05
2370.0 7.642e-05
2390.0 7.8545e-05
2410.0 8.0391e-05
2430.0 8.1834e-05
2450.0 8.2842e-05
2470.0 8.3403e-05
2490.0 8.3463e-05
2510.0 8.3031e-05
2530.0 8.2233e-05
2550.0 8.1261e-05
2570.0 8.0435e-05
2590.0 8.0116e-05
2610.0 8.0943e-05
2630.0 8.3415e-05
2650.0 8.7635e-05
2670.0 9.4034e-05
2690.0 0.00010291
2710.0 0.00011334
2730.0 0.00012467
2750.0 0.00013729
2770.0 0.00014971
2790.0 0.00016071
2810.0 0.00017048
2830.0 0.000179
2850.0 0.00018501
2870.0 0.00018943
2890.0 0.00019297
2910.0 0.00019573
2930.0 0.00019789
2950.0 0.00020015
2970.0 0.00020259
2990.0 0.00020508
3010.0 0.00020779
3030.0 0.00021095
3050.0 0.00021442
3070.0 0.00021791
3090.0 0.00022181
3110.0 0.000226
3130.0 0.00023026
3150.0 0.00023482
3170.0 0.00023987
3190.0 0.0002453
3210.0 0.00025135
3230.0 0.00025854
3250.0 0.00026707
3270.0 0.00027662
3290.0 0.00028793
3310.0 0.00030175
3330.0 0.00031695
3350.0 0.00033276
3370.0 0.00034952
3390.0 0.00036662
3410.0 0.00038245
3430.0 0.00039704
3450.0 0.00040913
3470.0 0.0004165
3490.0 0.00041974
3510.0 0.00041905
3530.0 0.00042738
3550.0 0.00047438
3570.0 0.00053382
3590.0 0.00053781
3610.0 0.00062713
3630.0 0.00063814
3650.0 0.00057657
3670.0 0.00054933
3690.0 0.00056497
3710.0 0.0005844
3730.0 0.00061493
3750.0 0.00059997
3770.0 0.00059791
3790.0 0.00059086
3810.0 0.00058164
3830.0 0.00052659
3850.0 0.00047718
3870.0 0.00049265
3890.0 0.00054559
3910.0 0.00056109
3930.0 0.0005514
3950.0 0.00054147
3970.0 0.00056273
3990.0 0.00059509
4010.0 0.00059185
4030.0 0.00054493
4050.0 0.00053306
4070.0 0.00053914
4090.0 0.00056042
4110.0 0.00055066
4130.0 0.00054066
4150.0 0.00052687
4170.0 0.00053236
4190.0 0.00053156
4210.0 0.00049911
4230.0 0.00046392
4250.0 0.00042068
4270.0 0.00037458
4290.0 0.00034578
4310.0 0.00031879
4330.0 0.00034055
4350.0 0.00037214
4370.0 0.00038712
4390.0 0.00041426
4410.0 0.00043886
4430.0 0.00044555
4450.0 0.00042771
4470.0 0.00042308
4490.0 0.00043822
4510.0 0.00044251
4530.0 0.00043859
4550.0 0.00043783
4570.0 0.00044788
4590.0 0.00046385
4610.0 0.00048722
4630.0 0.0005011
4650.0 0.00048974
4670.0 0.00048423
4690.0 0.0004527
4710.0 0.00042471
4730.0 0.00042497
4750.0 0.00041767
4770.0 0.00039809
4790.0 0.00037971
4810.0 0.00038042
4830.0 0.00035986
4850.0 0.00036833
4870.0 0.0002267
4890.0 0.00025407
4910.0 0.00032511
4930.0 0.00033784
4950.0 0.00029129
4970.0 0.00027276
4990.0 0.00026769
5010.0 0.00024288
5030.0 0.00023707
5050.0 0.00025834
5070.0 0.000271
5090.0 0.00028795
5110.0 0.00030649
5130.0 0.00030634
5150.0 0.00032393
5170.0 0.0003181
5190.0 0.00030804
5210.0 0.00032333
5230.0 0.00032068
5250.0 0.00032191
5270.0 0.00031708
5290.0 0.00031328
5310.0 0.00029452
5330.0 0.00028133
5350.0 0.00026048
5370.0 0.00025428
5390.0 0.00027235
5410.0 0.00025765
5430.0 0.0002719
5450.0 0.00026769
5470.0 0.00026718
5490.0 0.00026912
5510.0 0.00025118
5530.0 0.00025424
5550.0 0.00024622
5570.0 0.00024699
5590.0 0.00025055
5610.0 0.00025667
5630.0 0.00025446
5650.0 0.00025897
5670.0 0.00024193
5690.0 0.00024543
5710.0 0.00022912
5730.0 0.00023545
5750.0 0.00022868
5770.0 0.00021442
5790.0 0.00022363
5810.0 0.0002216
5830.0 0.00022788
5850.0 0.00023331
5870.0 0.00023213
5890.0 0.0002297
5910.0 0.00023273
5930.0 0.00022724
5950.0 0.00023302
5970.0 0.00022292
5990.0 0.00022532
6010.0 0.0002221
6030.0 0.00022087
6050.0 0.00022293
6070.0 0.00020968
6090.0 0.00020686
6110.0 0.00021267
6130.0 0.00020939
6150.0 0.00020619
6170.0 0.00020079
6190.0 0.00018707
6210.0 0.00017593
6230.0 0.00017591
6250.0 0.00017762
6270.0 0.00017538
6290.0 0.00018342
6310.0 0.00019705
6330.0 0.00020049
6350.0 0.00019416
6370.0 0.00019818
6390.0 0.00019853
6410.0 0.00019463
6430.0 0.00018553
6450.0 0.00018697
6470.0 0.00018882
6490.0 0.00018427
6510.0 0.00017974
6530.0 0.00017588
6550.0 0.00017571
6570.0 0.00017019
6590.0 0.0001689
6610.0 0.00016913
6630.0 0.0001623
6650.0 0.00015284
6670.0 0.00014985
6690.0 0.00015428
6710.0 0.00015296
6730.0 0.00014839
6750.0 0.00014446
6770.0 0.00013981
6790.0 0.00014094
6810.0 0.00014099
6830.0 0.00013784
6850.0 0.0001307
6870.0 0.00013031
6890.0 0.00013027
6910.0 0.00012562
6930.0 0.00012702
6950.0 0.0001221
6970.0 0.00012033
6990.0 0.00011855
7010.0 0.00012309
7030.0 0.00012361
7050.0 0.00011858
7070.0 0.00011733
7090.0 0.00011815
7110.0 0.00011471
7130.0 0.00011576
7150.0 0.00011509
7170.0 0.00011512
7190.0 0.00011192
7210.0 0.00011373
7230.0 0.00011926
7250.0 0.00011483
7270.0 0.00011996
7290.0 0.00011652
7310.0 0.00011146
7330.0 0.00010662
7350.0 0.00010887
7370.0 0.00010791
7390.0 0.00010723
7410.0 0.00010013
7430.0 9.6125e-05
7450.0 9.8077e-05
7470.0 9.986e-05
7490.0 0.00010767
7510.0 0.00010838
7530.0 0.00010593
7550.0 0.00010447
7570.0 8.9336e-05
7590.0 9.0805e-05
7610.0 8.5579e-05
7630.0 8.9258e-05
7650.0 8.7075e-05
7670.0 9.1408e-05
7690.0 8.1294e-05
7710.0 9.0469e-05
7730.0 8.8704e-05
7750.0 0.00010077
7770.0 0.00010261
7790.0 0.00010587
7810.0 0.00011343
7830.0 0.0001128
7850.0 0.00012295
7870.0 0.00011723
7890.0 0.00011974
7910.0 0.000119
7930.0 0.00011238
7950.0 0.00010774
7970.0 0.00010679
7990.0 0.00010472
8010.0 9.6418e-05
8030.0 9.5772e-05
8050.0 9.3783e-05
8070.0 9.279e-05
8090.0 8.9047e-05
8110.0 8.9676e-05
8130.0 9.179e-05
8150.0 9.3923e-05
8170.0 9.3391e-05
8190.0 9.5379e-05
8210.0 9.414e-05
8230.0 9.0082e-05
8250.0 8.9141e-05
8270.0 8.7522e-05
8290.0 8.5888e-05
8310.0 8.2078e-05
8330.0 8.2752e-05
8350.0 8.279e-05
8370.0 8.3164e-05
8390.0 8.4329e-05
8410.0 8.3432e-05
8430.0 8.3853e-05
8450.0 8.4491e-05
8470.0 8.5692e-05
8490.0 8.6843e-05
8510.0 8.4883e-05
8530.0 8.158e-05
8550.0 8.2083e-05
8570.0 8.1755e-05
8590.0 7.9194e-05
8610.0 8.0788e-05
8630.0 7.9647e-05
8650.0 7.8261e-05
8670.0 7.7693e-05
8690.0 7.734e-05
8710.0 7.3902e-05
8730.0 7.5119e-05
8750.0 7.27e-05
8770.0 7.2627e-05
8790.0 7.0575e-05
8810.0 6.9505e-05
8830.0 6.9832e-05
8850.0 6.7552e-05
8870.0 6.4323e-05
8890.0 6.3343e-05
8910.0 6.0051e-05
8930.0 5.5696e-05
8950.0 5.5541e-05
8970.0 5.3336e-05
8990.0 5.2825e-05
9010.0 5.209e-05
9030.0 5.1687e-05
9050.0 5.1328e-05
9070.0 5.0968e-05
9090.0 5.0605e-05
9110.0 5.0236e-05
9130.0 4.9867e-05
9150.0 4.9503e-05
9170.0 4.9137e-05
9190.0 4.8768e-05
9210.0 4.8398e-05
9230.0 4.8027e-05
9250.0 4.7656e-05
9270.0 4.7283e-05
9290.0 4.691e-05
9310.0 4.6539e-05
9330.0 4.6168e-05
9350.0 4.5797e-05
9370.0 4.5427e-05
9390.0 4.5057e-05
9410.0 4.4688e-05
9430.0 4.432e-05
9450.0 4.3954e-05
9470.0 4.3618e-05
9490.0 4.3268e-05
9510.0 4.2888e-05
9530.0 4.2514e-05
9550.0 4.2148e-05
9570.0 4.1787e-05
9590.0 4.1428e-05
9610.0 4.1073e-05
9630.0 4.0723e-05
9650.0 4.0374e-05
9670.0 4.0026e-05
9690.0 3.9683e-05
9710.0 3.9342e-05
9730.0 3.9003e-05
9750.0 3.8666e-05
9770.0 3.8335e-05
9790.0 3.8005e-05
9810.0 3.7677e-05
9830.0 3.7349e-05
9850.0 3.6985e-05
9870.0 3.6648e-05
9890.0 3.636e-05
9910.0 3.6068e-05
9930.0 3.571e-05
9950.0 3.5404e-05
9970.0 3.513e-05
9990.0 3.4847e-05
10010.0 3.4567e-05
10030.0 3.4282e-05
10050.0 3.3996e-05
10070.0 3.3714e-05
10090.0 3.3438e-05
10110.0 3.3157e-05
10130.0 3.2881e-05
10150.0 3.2613e-05
10170.0 3.2347e-05
10190.0 3.2081e-05
10210.0 3.1823e-05
10230.0 3.157e-05
10250.0 3.1316e-05
10270.0 3.1066e-05
10290.0 3.0824e-05
10310.0 3.0582e-05
10330.0 3.0339e-05
10350.0 3.0106e-05
10370.0 2.9876e-05
10390.0 2.9646e-05
10410.0 2.9415e-05
10430.0 2.919e-05
10450.0 2.8978e-05
10470.0 2.8764e-05
10490.0 2.8557e-05
10510.0 2.8353e-05
10530.0 2.8144e-05
10550.0 2.7942e-05
10570.0 2.7748e-05
10590.0 2.7552e-05
10610.0 2.7358e-05
10630.0 2.7172e-05
10650.0 2.6989e-05
10670.0 2.6803e-05
10690.0 2.6624e-05
10710.0 2.645e-05
10730.0 2.6275e-05
10750.0 2.61e-05
10770.0 2.5935e-05
10790.0 2.5772e-05
10810.0 2.5607e-05
10830.0 2.5448e-05
10850.0 2.5296e-05
10870.0 2.5139e-05
10890.0 2.4986e-05
10910.0 2.4841e-05
10930.0 2.4698e-05
10950.0 2.4556e-05
10970.0 2.4422e-05
10990.0 2.4297e-05
11010.0 2.3959e-05
11030.0 2.3855e-05
11050.0 2.3762e-05
11070.0 2.3674e-05
11090.0 2.3582e-05
11110.0 2.3495e-05
11130.0 2.3408e-05
11150.0 2.3314e-05
11170.0 2.3215e-05
11190.0 2.3119e-05
11210.0 2.3017e-05
11230.0 2.291e-05
11250.0 2.2807e-05
11270.0 2.2707e-05
11290.0 2.2604e-05
11310.0 2.2505e-05
11330.0 2.2418e-05
11350.0 2.2334e-05
11370.0 2.2252e-05
11390.0 2.218e-05
11410.0 2.2114e-05
11430.0 2.2046e-05
11450.0 2.1983e-05
11470.0 2.1924e-05
11490.0 2.1864e-05
11510.0 2.1798e-05
11530.0 2.1736e-05
11550.0 2.1672e-05
11570.0 2.1599e-05
11590.0 2.1524e-05
11610.0 2.145e-05
11630.0 2.1368e-05
11650.0 2.1278e-05
11670.0 2.1194e-05
11690.0 2.1109e-05
11710.0 2.1017e-05
11730.0 2.0928e-05
11750.0 2.0845e-05
11770.0 2.0757e-05
11790.0 2.0668e-05
11810.0 2.0586e-05
11830.0 2.0506e-05
11850.0 2.042e-05
11870.0 2.0342e-05
11890.0 2.0273e-05
11910.0 2.0203e-05
11930.0 2.0138e-05
11950.0 2.0084e-05
11970.0 2.0036e-05
11990.0 1.9993e-05
12010.0 1.9963e-05
12030.0 1.9946e-05
12050.0 1.9938e-05
12070.0 1.9942e-05
12090.0 1.9962e-05
12110.0 1.9993e-05
12130.0 2.0035e-05
12150.0 2.0088e-05
12170.0 2.0151e-05
12190.0 2.0222e-05
12210.0 2.03e-05
12230.0 2.0381e-05
12250.0 2.0466e-05
12270.0 2.0551e-05
12290.0 2.0635e-05
12310.0 2.0715e-05
12330.0 2.0792e-05
12350.0 2.0862e-05
12370.0 2.0926e-05
12390.0 2.0983e-05
12410.0 2.1029e-05
12430.0 2.1066e-05
12450.0 2.1093e-05
12470.0 2.1108e-05
12490.0 2.111e-05
12510.0 2.1103e-05
12530.0 2.1082e-05
12550.0 2.1044e-05
12570.0 2.0997e-05
12590.0 2.0937e-05
12610.0 2.086e-05
12630.0 2.0768e-05
12650.0 2.0674e-05
12670.0 2.0564e-05
12690.0 2.044e-05
12710.0 2.0314e-05
12730.0 2.0182e-05
12750.0 2.0033e-05
12770.0 1.9884e-05
12790.0 1.9738e-05
12810.0 1.9585e-05
12830.0 1.9427e-05
12850.0 1.9279e-05
12870.0 1.9135e-05
12890.0 1.8988e-05
12910.0 1.8849e-05
12930.0 1.8721e-05
12950.0 1.8594e-05
12970.0 1.8473e-05
12990.0 1.8367e-05
13010.0 1.8269e-05
13030.0 1.8175e-05
13050.0 1.8091e-05
13070.0 1.8019e-05
13090.0 1.7949e-05
13110.0 1.7885e-05
13130.0 1.7829e-05
13150.0 1.7778e-05
13170.0 1.7727e-05
13190.0 1.7683e-05
13210.0 1.7642e-05
13230.0 1.7602e-05
13250.0 1.7563e-05
13270.0 1.7527e-05
13290.0 1.749e-05
13310.0 1.745e-05
13330.0 1.741e-05
13350.0 1.7369e-05
13370.0 1.7322e-05
13390.0 1.7269e-05
13410.0 1.7215e-05
13430.0 1.7154e-05
13450.0 1.7084e-05
13470.0 1.7008e-05
13490.0 1.6928e-05
13510.0 1.6835e-05
13530.0 1.6736e-05
13550.0 1.6634e-05
13570.0 1.6525e-05
13590.0 1.6407e-05
13610.0 1.6288e-05
13630.0 1.6167e-05
13650.0 1.6036e-05
13670.0 1.5902e-05
13690.0 1.5769e-05
13710.0 1.563e-05
13730.0 1.5481e-05
13750.0 1.5337e-05
13770.0 1.5192e-05
13790.0 1.5039e-05
13810.0 1.4885e-05
13830.0 1.4737e-05
13850.0 1.4583e-05
13870.0 1.4427e-05
13890.0 1.4276e-05
13910.0 1.4128e-05
13930.0 1.3976e-05
13950.0 1.3829e-05
13970.0 1.3691e-05
13990.0 1.3552e-05
14010.0 1.3415e-05
14030.0 1.3285e-05
14050.0 1.3158e-05
14070.0 1.3029e-05
14090.0 1.2906e-05
14110.0 1.2787e-05
14130.0 1.2668e-05
14150.0 1.2547e-05
14170.0 1.2432e-05
14190.0 1.2318e-05
14210.0 1.2201e-05
14230.0 1.2087e-05
14250.0 1.1975e-05
14270.0 1.1861e-05
14290.0 1.1747e-05
14310.0 1.1639e-05
14330.0 1.1532e-05
14350.0 1.1426e-05
14370.0 1.1324e-05
14390.0 1.1227e-05
14410.0 1.1131e-05
14430.0 1.1038e-05
14450.0 1.095e-05
14470.0 1.0865e-05
14490.0 1.078e-05
14510.0 1.0699e-05
14530.0 1.0621e-05
14550.0 1.0543e-05
14570.0 1.0465e-05
14590.0 1.0389e-05
14610.0 1.0313e-05
14630.0 1.0234e-05
14650.0 1.0157e-05
14670.0 1.0079e-05
14690.0 1e-05
14710.0 9.9198e-06
14730.0 9.8418e-06
14750.0 9.7625e-06
14770.0 9.6817e-06
14790.0 9.6019e-06
14810.0 9.523e-06
14830.0 9.4409e-06
14850.0 9.3594e-06
14870.0 9.2796e-06
14890.0 9.199e-06
14910.0 9.1175e-06
14930.0 9.0387e-06
14950.0 8.9623e-06
14970.0 8.8865e-06
14990.0 8.8143e-06
15010.0 8.7468e-06
15030.0 8.6822e-06
15050.0 8.6197e-06
15070.0 8.5617e-06
15090.0 8.5057e-06
15110.0 8.4504e-06
15130.0 8.3962e-06
15150.0 8.3435e-06
15170.0 8.2903e-06
15190.0 8.237e-06
15210.0 8.1846e-06
15230.0 8.1325e-06
15250.0 8.0797e-06
15270.0 8.0273e-06
15290.0 7.976e-06
15310.0 7.9243e-06
15330.0 7.8724e-06
15350.0 7.8214e-06
15370.0 7.7707e-06
15390.0 7.7191e-06
15410.0 7.6684e-06
15430.0 7.6184e-06
15450.0 7.568e-06
15470.0 7.5176e-06
15490.0 7.4682e-06
15510.0 7.4191e-06
15530.0 7.3695e-06
15550.0 7.3205e-06
15570.0 7.2723e-06
15590.0 7.2236e-06
15610.0 7.1749e-06
15630.0 7.1274e-06
15650.0 7.08e-06
15670.0 7.0323e-06
15690.0 6.9852e-06
15710.0 6.939e-06
15730.0 6.8923e-06
15750.0 6.8459e-06
15770.0 6.8003e-06
15790.0 6.7549e-06
15810.0 6.709e-06
15830.0 6.6641e-06
15850.0 6.6198e-06
15870.0 6.5753e-06
15890.0 6.5311e-06
15910.0 6.4878e-06
15930.0 6.4444e-06
15950.0 6.4008e-06
15970.0 6.3581e-06
15990.0 6.3159e-06
16010.0 6.2735e-06
16030.0 6.2312e-06
16050.0 6.1902e-06
16070.0 6.1491e-06
16090.0 6.1079e-06
16110.0 6.0675e-06
16130.0 6.0277e-06
16150.0 5.9872e-06
16170.0 5.9474e-06
16190.0 5.9084e-06
16210.0 5.8695e-06
16230.0 5.8304e-06
16250.0 5.7923e-06
16270.0 5.7547e-06
16290.0 5.7167e-06
16310.0 5.6792e-06
16330.0 5.6425e-06
16350.0 5.6057e-06
16370.0 5.5686e-06
16390.0 5.5327e-06
16410.0 5.4972e-06
16430.0 5.4615e-06
16450.0 5.4262e-06
16470.0 5.3918e-06
16490.0 5.3571e-06
16510.0 5.3225e-06
16530.0 5.2888e-06
16550.0 5.2553e-06
16570.0 5.2216e-06
16590.0 5.1883e-06
16610.0 5.1561e-06
16630.0 5.1236e-06
16650.0 5.0912e-06
16670.0 5.0597e-06
16690.0 5.0284e-06
16710.0 4.9966e-06
16730.0 4.9656e-06
16750.0 4.9352e-06
16770.0 4.9048e-06
16790.0 4.8743e-06
16810.0 4.8448e-06
16830.0 4.8155e-06
16850.0 4.786e-06
16870.0 4.757e-06
16890.0 4.7287e-06
16910.0 4.7e-06
16930.0 4.6715e-06
16950.0 4.6439e-06
16970.0 4.6165e-06
16990.0 4.5888e-06
17010.0 4.5618e-06
17030.0 4.5354e-06
17050.0 4.5087e-06
17070.0 4.4822e-06
17090.0 4.4564e-06
17110.0 4.4307e-06
17130.0 4.4047e-06
17150.0 4.3795e-06
17170.0 4.3548e-06
17190.0 4.3299e-06
17210.0 4.3052e-06
17230.0 4.2813e-06
17250.0 4.2573e-06
17270.0 4.233e-06
17290.0 4.2096e-06
17310.0 4.1865e-06
17330.0 4.1631e-06
17350.0 4.1399e-06
17370.0 4.1177e-06
17390.0 4.0953e-06
17410.0 4.0728e-06
17430.0 4.051e-06
17450.0 4.0296e-06
17470.0 4.0075e-06
17490.0 3.986e-06
17510.0 3.9652e-06
17530.0 3.9442e-06
17550.0 3.9232e-06
17570.0 3.9028e-06
17590.0 3.8828e-06
17610.0 3.8624e-06
17630.0 3.8424e-06
17650.0 3.823e-06
17670.0 3.8034e-06
17690.0 3.7835e-06
17710.0 3.7646e-06
17730.0 3.7458e-06
17750.0 3.7268e-06
17770.0 3.7081e-06
17790.0 3.6901e-06
17810.0 3.6717e-06
17830.0 3.6533e-06
17850.0 3.6356e-06
17870.0 3.618e-06
17890.0 3.6e-06
17910.0 3.5825e-06
17930.0 3.5656e-06
17950.0 3.5485e-06
17970.0 3.5313e-06
17990.0 3.5148e-06
18010.0 3.4984e-06
18030.0 3.4814e-06
18050.0 3.4651e-06
18070.0 3.4492e-06
18090.0 3.433e-06
18110.0 3.4168e-06
18130.0 3.4014e-06
18150.0 3.3859e-06
18170.0 3.3702e-06
18190.0 3.3549e-06
18210.0 3.34e-06
18230.0 3.3246e-06
18250.0 3.3093e-06
18270.0 3.2948e-06
18290.0 3.2802e-06
18310.0 3.2653e-06
18330.0 3.2509e-06
18350.0 3.237e-06
18370.0 3.2225e-06
18390.0 3.2082e-06
18410.0 3.1944e-06
18430.0 3.1806e-06
18450.0 3.1663e-06
18470.0 3.1527e-06
18490.0 3.1395e-06
18510.0 3.1258e-06
18530.0 3.1123e-06
18550.0 3.0994e-06
18570.0 3.0862e-06
18590.0 3.0727e-06
18610.0 3.0598e-06
18630.0 3.0471e-06
18650.0 3.034e-06
18670.0 3.0211e-06
18690.0 3.0088e-06
18710.0 2.9963e-06
18730.0 2.9835e-06
18750.0 2.9713e-06
18770.0 2.9592e-06
18790.0 2.9465e-06
18810.0 2.9342e-06
18830.0 2.9224e-06
18850.0 2.9103e-06
18870.0 2.898e-06
18890.0 2.8864e-06
18910.0 2.8748e-06
18930.0 2.8627e-06
18950.0 2.8509e-06
18970.0 2.8395e-06
18990.0 2.8279e-06
19010.0 2.8158e-06
19030.0 2.8046e-06
19050.0 2.7934e-06
19070.0 2.7817e-06
19090.0 2.7704e-06
19110.0 2.7595e-06
19130.0 2.7481e-06
19150.0 2.7366e-06
19170.0 2.7256e-06
19190.0 2.7147e-06
19210.0 2.7033e-06
19230.0 2.6921e-06
19250.0 2.6815e-06
19270.0 2.6705e-06
19290.0 2.6594e-06
19310.0 2.6488e-06
19330.0 2.6381e-06
19350.0 2.6268e-06
19370.0 2.616e-06
19390.0 2.6055e-06
19410.0 2.5946e-06
19430.0 2.5836e-06
19450.0 2.5733e-06
19470.0 2.5628e-06
19490.0 2.5518e-06
19510.0 2.5413e-06
19530.0 2.531e-06
19550.0 2.5201e-06
19570.0 2.5092e-06
19590.0 2.499e-06
19610.0 2.4885e-06
19630.0 2.4777e-06
19650.0 2.4673e-06
19670.0 2.4572e-06
19690.0 2.4464e-06
19710.0 2.4358e-06
19730.0 2.4256e-06
19750.0 2.4151e-06
19770.0 2.4042e-06
19790.0 2.3939e-06
19810.0 2.3837e-06
19830.0 2.3731e-06
19850.0 2.3625e-06
19870.0 2.3525e-06
19890.0 2.3421e-06
19910.0 2.3316e-06
19930.0 2.3217e-06
19950.0 2.3123e-06
19970.0 2.3029e-06
19990.0 2.2942e-06
20010.0 2.2868e-06
20030.0 2.2797e-06
20050.0 2.2734e-06
20070.0 2.268e-06
20090.0 2.2634e-06
20110.0 2.2589e-06
20130.0 2.2551e-06
20150.0 2.2519e-06
20170.0 2.2488e-06
20190.0 2.2459e-06
20210.0 2.2434e-06
20230.0 2.2412e-06
20250.0 2.2389e-06
20270.0 2.2369e-06
20290.0 2.2351e-06
20310.0 2.2333e-06
20330.0 2.2315e-06
20350.0 2.23e-06
20370.0 2.2286e-06
20390.0 2.2272e-06
20410.0 2.2259e-06
20430.0 2.2248e-06
20450.0 2.2236e-06
20470.0 2.2225e-06
20490.0 2.2218e-06
20510.0 2.2212e-06
20530.0 2.2207e-06
20550.0 2.2206e-06
20570.0 2.2209e-06
20590.0 2.2215e-06
20610.0 2.2224e-06
20630.0 2.2239e-06
20650.0 2.2257e-06
20670.0 2.2278e-06
20690.0 2.2304e-06
20710.0 2.2334e-06
20730.0 2.2366e-06
20750.0 2.24e-06
20770.0 2.2435e-06
20790.0 2.2471e-06
20810.0 2.2506e-06
20830.0 2.254e-06
20850.0 2.2571e-06
20870.0 2.2599e-06
20890.0 2.2621e-06
20910.0 2.264e-06
20930.0 2.2652e-06
20950.0 2.2657e-06
20970.0 2.2657e-06
20990.0 2.2651e-06
21010.0 2.2635e-06
21030.0 2.2614e-06
21050.0 2.2587e-06
21070.0 2.2553e-06
21090.0 2.2511e-06
21110.0 2.2467e-06
21130.0 2.2418e-06
21150.0 2.2362e-06
21170.0 2.2302e-06
21190.0 2.2242e-06
21210.0 2.2175e-06
21230.0 2.2103e-06
21250.0 2.2033e-06
21270.0 2.196e-06
21290.0 2.1881e-06
21310.0 2.1801e-06
21330.0 2.1723e-06
21350.0 2.1639e-06
21370.0 2.155e-06
21390.0 2.1463e-06
21410.0 2.1374e-06
21430.0 2.1275e-06
21450.0 2.1177e-06
21470.0 2.108e-06
21490.0 2.0976e-06
21510.0 2.0867e-06
21530.0 2.0761e-06
21550.0 2.0651e-06
21570.0 2.0533e-06
21590.0 2.0415e-06
21610.0 2.0299e-06
21630.0 2.0176e-06
21650.0 2.0047e-06
21670.0 1.9925e-06
21690.0 1.98e-06
21710.0 1.967e-06
21730.0 1.9541e-06
21750.0 1.9416e-06
21770.0 1.9282e-06
21790.0 1.9149e-06
21810.0 1.902e-06
21830.0 1.8891e-06
21850.0 1.8757e-06
21870.0 1.8627e-06
21890.0 1.8503e-06
21910.0 1.8373e-06
21930.0 1.8245e-06
21950.0 1.8123e-06
21970.0 1.8e-06
21990.0 1.7873e-06
22010.0 1.7753e-06
22030.0 1.7636e-06
22050.0 1.7516e-06
22070.0 1.7398e-06
22090.0 1.7286e-06
22110.0 1.7171e-06
22130.0 1.7055e-06
22150.0 1.6942e-06
22170.0 1.6832e-06
22190.0 1.6716e-06
22210.0 1.66e-06
22230.0 1.649e-06
22250.0 1.6377e-06
22270.0 1.6261e-06
22290.0 1.6148e-06
22310.0 1.6036e-06
22330.0 1.5917e-06
22350.0 1.5799e-06
22370.0 1.5685e-06
22390.0 1.5568e-06
22410.0 1.5447e-06
22430.0 1.5332e-06
22450.0 1.5218e-06
22470.0 1.51e-06
22490.0 1.4985e-06
22510.0 1.4874e-06
22530.0 1.4761e-06
22550.0 1.4648e-06
22570.0 1.454e-06
22590.0 1.4435e-06
22610.0 1.4328e-06
22630.0 1.4225e-06
22650.0 1.4127e-06
22670.0 1.4027e-06
22690.0 1.3928e-06
22710.0 1.3833e-06
22730.0 1.374e-06
