#lamb flux
1010.0 1.5443e-07
1030.0 1.708e-07
1050.0 1.8963e-07
1070.0 2.1083e-07
1090.0 2.349e-07
1110.0 2.596e-07
1130.0 2.8445e-07
1150.0 3.1049e-07
1170.0 3.3734e-07
1190.0 3.6281e-07
1210.0 3.8862e-07
1230.0 4.1529e-07
1250.0 4.4142e-07
1270.0 4.6679e-07
1290.0 4.9361e-07
1310.0 5.204e-07
1330.0 5.461e-07
1350.0 5.7208e-07
1370.0 5.9891e-07
1390.0 6.2507e-07
1410.0 6.5045e-07
1430.0 6.7698e-07
1450.0 7.0352e-07
1470.0 7.2916e-07
1490.0 7.5509e-07
1510.0 7.8247e-07
1530.0 8.0842e-07
1550.0 8.3403e-07
1570.0 8.6052e-07
1590.0 8.8705e-07
1610.0 9.124e-07
1630.0 9.3855e-07
1650.0 9.6539e-07
1670.0 9.9137e-07
1690.0 1.017e-06
1710.0 1.0437e-06
1730.0 1.0706e-06
1750.0 1.0958e-06
1770.0 1.1219e-06
1790.0 1.1484e-06
1810.0 1.1742e-06
1830.0 1.1996e-06
1850.0 1.2265e-06
1870.0 1.2528e-06
1890.0 1.2783e-06
1910.0 1.3043e-06
1930.0 1.331e-06
1950.0 1.3566e-06
1970.0 1.3819e-06
1990.0 1.4082e-06
2010.0 1.4341e-06
2030.0 1.4592e-06
2050.0 1.4851e-06
2070.0 1.5116e-06
2090.0 1.5368e-06
2110.0 1.5619e-06
2130.0 1.5879e-06
2150.0 1.6134e-06
2170.0 1.6378e-06
2190.0 1.6632e-06
2210.0 1.6888e-06
2230.0 1.7134e-06
2250.0 1.738e-06
2270.0 1.7637e-06
2290.0 1.7886e-06
2310.0 1.8125e-06
2330.0 1.8374e-06
2350.0 1.863e-06
2370.0 1.8885e-06
2390.0 1.9161e-06
2410.0 1.9488e-06
2430.0 1.9864e-06
2450.0 2.0314e-06
2470.0 2.089e-06
2490.0 2.1616e-06
2510.0 2.2441e-06
2530.0 2.3434e-06
2550.0 2.4677e-06
2570.0 2.6224e-06
2590.0 2.8236e-06
2610.0 3.1248e-06
2630.0 3.5549e-06
2650.0 4.1172e-06
2670.0 4.8443e-06
2690.0 5.7378e-06
2710.0 6.6915e-06
2730.0 7.6339e-06
2750.0 8.5621e-06
2770.0 9.3695e-06
2790.0 1.0011e-05
2810.0 1.0519e-05
2830.0 1.0917e-05
2850.0 1.1188e-05
2870.0 1.1388e-05
2890.0 1.1545e-05
2910.0 1.1671e-05
2930.0 1.1774e-05
2950.0 1.1872e-05
2970.0 1.1968e-05
2990.0 1.2058e-05
3010.0 0.00034083
3030.0 0.00034338
3050.0 0.00034584
3070.0 0.00034795
3090.0 0.00034976
3110.0 0.00035089
3130.0 0.00035084
3150.0 0.00034928
3170.0 0.00034554
3190.0 0.00033967
3210.0 0.00033222
3230.0 0.00032369
3250.0 0.00031527
3270.0 0.00030912
3290.0 0.0003057
3310.0 0.00030626
3330.0 0.00031069
3350.0 0.00031841
3370.0 0.00032943
3390.0 0.00034332
3410.0 0.00035843
3430.0 0.0003754
3450.0 0.00039494
3470.0 0.00041627
3490.0 0.00043888
3510.0 0.00046444
3530.0 0.0004918
3550.0 0.00051951
3570.0 0.00054841
3590.0 0.00057984
3610.0 0.00061223
3630.0 0.00064452
3650.0 0.00067801
3670.0 0.0007086
3690.0 0.00073146
3710.0 0.00074456
3730.0 0.00074499
3750.0 0.00073463
3770.0 0.00073055
3790.0 0.00072621
3810.0 0.00070836
3830.0 0.00073029
3850.0 0.00081655
3870.0 0.0008639
3890.0 0.00085996
3910.0 0.00086362
3930.0 0.00088636
3950.0 0.00090036
3970.0 0.0008203
3990.0 0.00070584
4010.0 0.0021155
4030.0 0.0025632
4050.0 0.0029386
4070.0 0.0025497
4090.0 0.0023093
4110.0 0.0020377
4130.0 0.0018755
4150.0 0.001995
4170.0 0.0019651
4190.0 0.0020947
4210.0 0.0020755
4230.0 0.0021953
4250.0 0.0025971
4270.0 0.0026277
4290.0 0.0024214
4310.0 0.002516
4330.0 0.0026762
4350.0 0.0030007
4370.0 0.0034149
4390.0 0.0032045
4410.0 0.0023676
4430.0 0.0020043
4450.0 0.0018417
4470.0 0.0014136
4490.0 0.0015254
4510.0 0.0023042
4530.0 0.0026574
4550.0 0.0026805
4570.0 0.0030162
4590.0 0.0034358
4610.0 0.004634
4630.0 0.0060186
4650.0 0.0065271
4670.0 0.0060448
4690.0 0.0057678
4710.0 0.0060969
4730.0 0.0057538
4750.0 0.0043017
4770.0 0.0031555
4790.0 0.0029466
4810.0 0.0028086
4830.0 0.0025712
4850.0 0.0028215
4870.0 0.0037274
4890.0 0.0043957
4910.0 0.0038567
4930.0 0.0034126
4950.0 0.0037492
4970.0 0.0048082
4990.0 0.0065162
5010.0 0.007496
5030.0 0.0066098
5050.0 0.0044719
5070.0 0.0029472
5090.0 0.0023765
5110.0 0.002444
5130.0 0.0028207
5150.0 0.003056
5170.0 0.0030102
5190.0 0.0028128
5210.0 0.00294
5230.0 0.0030907
5250.0 0.0033309
5270.0 0.0035938
5290.0 0.0039827
5310.0 0.0046357
5330.0 0.00513
5350.0 0.0050973
5370.0 0.0053542
5390.0 0.0061441
5410.0 0.0061386
5430.0 0.0054287
5450.0 0.0049877
5470.0 0.0052961
5490.0 0.0064703
5510.0 0.0080902
5530.0 0.0092791
5550.0 0.0089684
5570.0 0.0081529
5590.0 0.0070891
5610.0 0.0065377
5630.0 0.0063396
5650.0 0.0060378
5670.0 0.0057213
5690.0 0.0051149
5710.0 0.0049871
5730.0 0.0045939
5750.0 0.0032389
5770.0 0.0025269
5790.0 0.0028636
5810.0 0.0032335
5830.0 0.0039679
5850.0 0.0047234
5870.0 0.0052406
5890.0 0.0053295
5910.0 0.0052286
5930.0 0.004977
5950.0 0.0050715
5970.0 0.005781
5990.0 0.0054356
6010.0 0.0045567
6030.0 0.0038497
6050.0 0.0033526
6070.0 0.0033343
6090.0 0.0036155
6110.0 0.0040427
6130.0 0.0041046
6150.0 0.0035317
6170.0 0.0031068
6190.0 0.0034962
6210.0 0.004622
6230.0 0.0060653
6250.0 0.0065696
6270.0 0.005741
6290.0 0.0048302
6310.0 0.0037708
6330.0 0.0028891
6350.0 0.002577
6370.0 0.00271
6390.0 0.003133
6410.0 0.0038631
6430.0 0.004511
6450.0 0.0051617
6470.0 0.0059103
6490.0 0.0071393
6510.0 0.0079826
6530.0 0.0078315
6550.0 0.0070817
6570.0 0.0060117
6590.0 0.005421
6610.0 0.0046743
6630.0 0.0042347
6650.0 0.004003
6670.0 0.0038888
6690.0 0.0035138
6710.0 0.0031941
6730.0 0.0023006
6750.0 0.0022809
6770.0 0.0024791
6790.0 0.0028496
6810.0 0.0026074
6830.0 0.0026849
6850.0 0.0025113
6870.0 0.002294
6890.0 0.0022026
6910.0 0.0023472
6930.0 0.0021985
6950.0 0.0022618
6970.0 0.002379
6990.0 0.0027004
7010.0 0.0027234
7030.0 0.0027667
7050.0 0.0026385
7070.0 0.002514
7090.0 0.0025214
7110.0 0.0025943
7130.0 0.0027918
7150.0 0.0029652
7170.0 0.0032719
7190.0 0.0035967
7210.0 0.0035342
7230.0 0.0036332
7250.0 0.0039045
7270.0 0.0042549
7290.0 0.0050502
7310.0 0.0054799
7330.0 0.0052968
7350.0 0.0047906
7370.0 0.0041683
7390.0 0.0040438
7410.0 0.0042973
7430.0 0.0047759
7450.0 0.0052018
7470.0 0.005154
7490.0 0.0046995
7510.0 0.0053234
7530.0 0.0052651
7550.0 0.0047323
7570.0 0.0036968
7590.0 0.0025414
7610.0 0.0021813
7630.0 0.0024784
7650.0 0.0029304
7670.0 0.0036471
7690.0 0.0040133
7710.0 0.0041824
7730.0 0.0043951
7750.0 0.004934
7770.0 0.0050116
7790.0 0.0046034
7810.0 0.0042003
7830.0 0.0043315
7850.0 0.0042106
7870.0 0.0038604
7890.0 0.0032435
7910.0 0.0026365
7930.0 0.0025175
7950.0 0.0022935
7970.0 0.002123
7990.0 0.0021109
8010.0 0.00015634
8030.0 0.00015431
8050.0 0.00015223
8070.0 0.00015422
8090.0 0.00016571
8110.0 0.00016288
8130.0 0.00013436
8150.0 0.00013085
8170.0 0.00011271
8190.0 0.00010681
8210.0 0.00013871
8230.0 0.00015443
8250.0 0.00013919
8270.0 0.00012115
8290.0 0.0001181
8310.0 9.0891e-05
8330.0 6.1261e-05
8350.0 4.3476e-05
8370.0 2.7392e-05
8390.0 5.0071e-05
8410.0 5.8347e-05
8430.0 7.1921e-05
8450.0 8.4455e-05
8470.0 0.00010497
8490.0 0.00010423
8510.0 0.00010253
8530.0 0.000107
8550.0 0.00014437
8570.0 0.00017091
8590.0 0.00018441
8610.0 0.00023295
8630.0 0.00028062
8650.0 0.00029356
8670.0 0.00031197
8690.0 0.00031371
8710.0 0.00028411
8730.0 0.00026427
8750.0 0.00023327
8770.0 0.00022134
8790.0 0.00021745
8810.0 0.00020837
8830.0 0.00016662
8850.0 0.00012198
8870.0 9.3397e-05
8890.0 9.131e-05
8910.0 0.00010464
8930.0 0.00011902
8950.0 0.0001213
8970.0 0.00012188
8990.0 0.0001087
9010.0 0.0011391
9030.0 0.0010322
9050.0 0.0010372
9070.0 0.0010453
9090.0 0.0010525
9110.0 0.0010614
9130.0 0.0010682
9150.0 0.0010736
9170.0 0.0010792
9190.0 0.0010853
9210.0 0.0010917
9230.0 0.0010984
9250.0 0.0011052
9270.0 0.0011123
9290.0 0.0011196
9310.0 0.001127
9330.0 0.0011345
9350.0 0.0011422
9370.0 0.0011501
9390.0 0.0011581
9410.0 0.0011662
9430.0 0.0011746
9450.0 0.001183
9470.0 0.0011916
9490.0 0.0012004
9510.0 0.0012093
9530.0 0.0012183
9550.0 0.0012276
9570.0 0.001237
9590.0 0.0012464
9610.0 0.0012561
9630.0 0.0012659
9650.0 0.0012759
9670.0 0.0012859
9690.0 0.0012961
9710.0 0.0013065
9730.0 0.001317
9750.0 0.0013276
9770.0 0.0013385
9790.0 0.0013493
9810.0 0.0013603
9830.0 0.0013714
9850.0 0.0013828
9870.0 0.001394
9890.0 0.0014055
9910.0 0.0014171
9930.0 0.0014288
9950.0 0.0014405
9970.0 0.0014525
9990.0 0.0014645
10010.0 0.0012708
10030.0 0.0012813
10050.0 0.0012919
10070.0 0.0013029
10090.0 0.0013133
10110.0 0.0013239
10130.0 0.0013346
10150.0 0.0013453
10170.0 0.001356
10190.0 0.001367
10210.0 0.0013778
10230.0 0.0013886
10250.0 0.0013996
10270.0 0.0014105
10290.0 0.0014214
10310.0 0.0014323
10330.0 0.0014434
10350.0 0.0014543
10370.0 0.0014651
10390.0 0.0014761
10410.0 0.001487
10430.0 0.0014977
10450.0 0.0015086
10470.0 0.0015194
10490.0 0.0015301
10510.0 0.0015406
10530.0 0.0015514
10550.0 0.001562
10570.0 0.0015724
10590.0 0.0015828
10610.0 0.0015932
10630.0 0.0016033
10650.0 0.0016134
10670.0 0.0016236
10690.0 0.0016335
10710.0 0.0016433
10730.0 0.0016531
10750.0 0.0016629
10770.0 0.0016723
10790.0 0.0016816
10810.0 0.0016909
10830.0 0.0016999
10850.0 0.0017085
10870.0 0.0017168
10890.0 0.0017241
10910.0 0.0017297
10930.0 0.0017329
10950.0 0.0017321
10970.0 0.0017263
10990.0 0.0017148
11010.0 0.0016955
11030.0 0.0016685
11050.0 0.0016357
11070.0 0.0015964
11090.0 0.0015491
11110.0 0.0015003
11130.0 0.0014493
11150.0 0.0013944
11170.0 0.0013379
11190.0 0.001283
11210.0 0.0012264
11230.0 0.0011683
11250.0 0.0011128
11270.0 0.0010594
11290.0 0.001006
11310.0 0.00095544
11330.0 0.00091088
11350.0 0.00086879
11370.0 0.00082989
11390.0 0.00079624
11410.0 0.0007668
11430.0 0.00073944
11450.0 0.00071587
11470.0 0.00069549
11490.0 0.00067653
11510.0 0.00065826
11530.0 0.0006413
11550.0 0.00062446
11570.0 0.00060648
11590.0 0.00058787
11610.0 0.00056893
11630.0 0.00054832
11650.0 0.00052624
11670.0 0.00050449
11690.0 0.00048243
11710.0 0.00045967
11730.0 0.00043762
11750.0 0.00041721
11770.0 0.0003972
11790.0 0.00037844
11810.0 0.00036193
11830.0 0.00034716
11850.0 0.00033356
11870.0 0.00032218
11890.0 0.00031272
11910.0 0.00030441
11930.0 0.00029727
11950.0 0.00029132
11970.0 0.000286
11990.0 0.00028098
12010.0 0.00027633
12030.0 0.00027185
12050.0 0.00026722
12070.0 0.00026241
12090.0 0.00025776
12110.0 0.00025305
12130.0 0.00024833
12150.0 0.00024397
12170.0 0.00024017
12190.0 0.00023688
12210.0 0.00023459
12230.0 0.00023348
12250.0 0.00023366
12270.0 0.00023542
12290.0 0.00023875
12310.0 0.00024353
12330.0 0.00025022
12350.0 0.00025856
12370.0 0.00026806
12390.0 0.00027901
12410.0 0.00029184
12430.0 0.00030488
12450.0 0.00031839
12470.0 0.00033275
12490.0 0.00034717
12510.0 0.0003607
12530.0 0.00037416
12550.0 0.00038715
12570.0 0.00039861
12590.0 0.00040868
12610.0 0.00041764
12630.0 0.00042479
12650.0 0.00042973
12670.0 0.00043297
12690.0 0.00043427
12710.0 0.00043355
12730.0 0.00043104
12750.0 0.00042656
12770.0 0.0004204
12790.0 0.00041294
12810.0 0.00040403
12830.0 0.00039372
12850.0 0.00038294
12870.0 0.00037154
12890.0 0.00035921
12910.0 0.00034667
12930.0 0.00033431
12950.0 0.00032142
12970.0 0.00030829
12990.0 0.00029587
13010.0 0.00028361
13030.0 0.00027121
13050.0 0.0002593
13070.0 0.00024814
13090.0 0.00023694
13110.0 0.00022611
13130.0 0.00021612
13150.0 0.00020667
13170.0 0.00019741
13190.0 0.00018917
13210.0 0.00018191
13230.0 0.00017528
13250.0 0.00016957
13270.0 0.00016507
13290.0 0.00016157
13310.0 0.00015916
13330.0 0.00015806
13350.0 0.00015818
13370.0 0.0001596
13390.0 0.00016239
13410.0 0.00016616
13430.0 0.00017105
13450.0 0.0001771
13470.0 0.00018382
13490.0 0.00019093
13510.0 0.00019895
13530.0 0.00020708
13550.0 0.00021486
13570.0 0.00022253
13590.0 0.00023001
13610.0 0.00023666
13630.0 0.00024247
13650.0 0.00024777
13670.0 0.00025217
13690.0 0.00025558
13710.0 0.00025821
13730.0 0.00026009
13750.0 0.00026103
13770.0 0.00026125
13790.0 0.00026077
13810.0 0.00025962
13830.0 0.00025792
13850.0 0.00025561
13870.0 0.00025271
13890.0 0.00024938
13910.0 0.00024564
13930.0 0.0002413
13950.0 0.00023657
13970.0 0.00023173
13990.0 0.00022646
14010.0 0.00022085
14030.0 0.00021526
14050.0 0.00020963
14070.0 0.00020368
14090.0 0.00019798
14110.0 0.00019262
14130.0 0.00018743
14150.0 0.00018254
14170.0 0.00017837
14190.0 0.00017476
14210.0 0.0001717
14230.0 0.00016944
14250.0 0.00016797
14270.0 0.00016726
14290.0 0.00016741
14310.0 0.00016835
14330.0 0.00017002
14350.0 0.00017249
14370.0 0.00017556
14390.0 0.00017905
14410.0 0.00018316
14430.0 0.00018767
14450.0 0.00019228
14470.0 0.00019706
14490.0 0.00020215
14510.0 0.00020701
14530.0 0.00021163
14550.0 0.00021624
14570.0 0.00022067
14590.0 0.00022471
14610.0 0.00022861
14630.0 0.00023247
14650.0 0.00023607
14670.0 0.00023954
14690.0 0.00024316
14710.0 0.00024697
14730.0 0.00025077
14750.0 0.00025499
14770.0 0.00025978
14790.0 0.00026496
14810.0 0.00027058
14830.0 0.00027724
14850.0 0.00028448
14870.0 0.00029203
14890.0 0.00030017
14910.0 0.00030883
14930.0 0.00031714
14950.0 0.00032492
14970.0 0.00033228
14990.0 0.00033845
15010.0 0.00034317
15030.0 0.00034666
15050.0 0.00034897
15070.0 0.0003501
15090.0 0.0003505
15110.0 0.00035038
15130.0 0.00034994
15150.0 0.00034935
15170.0 0.00034865
15190.0 0.0003479
15210.0 0.00034716
15230.0 0.00034642
15250.0 0.00034566
15270.0 0.0003449
15290.0 0.00034419
15310.0 0.00034345
15330.0 0.00034271
15350.0 0.00034199
15370.0 0.00034128
15390.0 0.00034054
15410.0 0.00033982
15430.0 0.00033912
15450.0 0.00033841
15470.0 0.00033768
15490.0 0.000337
15510.0 0.00033631
15530.0 0.0003356
15550.0 0.0003349
15570.0 0.00033423
15590.0 0.00033353
15610.0 0.00033282
15630.0 0.00033216
15650.0 0.00033148
15670.0 0.00033079
15690.0 0.00033011
15710.0 0.00032946
15730.0 0.00032878
15750.0 0.00032809
15770.0 0.00032744
15790.0 0.00032678
15810.0 0.00032608
15830.0 0.00032542
15850.0 0.00032478
15870.0 0.00032411
15890.0 0.00032344
15910.0 0.0003228
15930.0 0.00032215
15950.0 0.00032147
15970.0 0.00032081
15990.0 0.00032017
16010.0 0.00031951
16030.0 0.00031883
16050.0 0.0003182
16070.0 0.00031756
16090.0 0.00031689
16110.0 0.00031625
16130.0 0.00031562
16150.0 0.00031494
16170.0 0.00031428
16190.0 0.00031364
16210.0 0.00031299
16230.0 0.00031232
16250.0 0.00031168
16270.0 0.00031105
16290.0 0.00031038
16310.0 0.00030972
16330.0 0.00030909
16350.0 0.00030844
16370.0 0.00030775
16390.0 0.00030711
16410.0 0.00030647
16430.0 0.0003058
16450.0 0.00030514
16470.0 0.00030451
16490.0 0.00030385
16510.0 0.00030317
16530.0 0.00030252
16550.0 0.00030187
16570.0 0.00030119
16590.0 0.00030052
16610.0 0.00029988
16630.0 0.00029921
16650.0 0.00029854
16670.0 0.00029788
16690.0 0.00029723
16710.0 0.00029653
16730.0 0.00029586
16750.0 0.0002952
16770.0 0.00029452
16790.0 0.00029383
16810.0 0.00029317
16830.0 0.00029251
16850.0 0.00029181
16870.0 0.00029113
16890.0 0.00029047
16910.0 0.00028977
16930.0 0.00028906
16950.0 0.00028839
16970.0 0.00028771
16990.0 0.000287
17010.0 0.00028631
17030.0 0.00028564
17050.0 0.00028494
17070.0 0.00028423
17090.0 0.00028354
17110.0 0.00028285
17130.0 0.00028212
17150.0 0.00028141
17170.0 0.00028073
17190.0 0.00028001
17210.0 0.00027929
17230.0 0.0002786
17250.0 0.00027789
17270.0 0.00027715
17290.0 0.00027644
17310.0 0.00027573
17330.0 0.000275
17350.0 0.00027426
17370.0 0.00027356
17390.0 0.00027284
17410.0 0.00027209
17430.0 0.00027137
17450.0 0.00027066
17470.0 0.0002699
17490.0 0.00026915
17510.0 0.00026844
17530.0 0.0002677
17550.0 0.00026694
17570.0 0.00026621
17590.0 0.00026548
17610.0 0.00026472
17630.0 0.00026397
17650.0 0.00026323
17670.0 0.00026248
17690.0 0.00026169
17710.0 0.00026096
17730.0 0.00026021
17750.0 0.00025944
17770.0 0.00025868
17790.0 0.00025794
17810.0 0.00025717
17830.0 0.00025639
17850.0 0.00025564
17870.0 0.00025488
17890.0 0.00025409
17910.0 0.00025331
17930.0 0.00025256
17950.0 0.00025178
17970.0 0.000251
17990.0 0.00025024
18010.0 0.00024947
18030.0 0.00024866
18050.0 0.00024788
18070.0 0.00024712
18090.0 0.00024633
18110.0 0.00024553
18130.0 0.00024476
18150.0 0.00024398
18170.0 0.00024318
18190.0 0.00024239
18210.0 0.00024162
18230.0 0.00024082
18250.0 0.00024
18270.0 0.00023923
18290.0 0.00023844
18310.0 0.00023763
18330.0 0.00023684
18350.0 0.00023606
18370.0 0.00023525
18390.0 0.00023444
18410.0 0.00023365
18430.0 0.00023286
18450.0 0.00023203
18470.0 0.00023123
18490.0 0.00023044
18510.0 0.00022963
18530.0 0.00022882
18550.0 0.00022804
18570.0 0.00022723
18590.0 0.0002264
18610.0 0.0002256
18630.0 0.0002248
18650.0 0.00022398
18670.0 0.00022315
18690.0 0.00022237
18710.0 0.00022156
18730.0 0.00022073
18750.0 0.00021993
18770.0 0.00021914
18790.0 0.0002183
18810.0 0.00021748
18830.0 0.00021668
18850.0 0.00021587
18870.0 0.00021504
18890.0 0.00021424
18910.0 0.00021344
18930.0 0.00021261
18950.0 0.00021179
18970.0 0.00021099
18990.0 0.00021017
19010.0 0.00020932
19030.0 0.00020853
19050.0 0.00020772
19070.0 0.00020689
19090.0 0.00020607
19110.0 0.00020528
19130.0 0.00020446
19150.0 0.00020362
19170.0 0.00020282
19190.0 0.00020201
19210.0 0.00020117
19230.0 0.00020035
19250.0 0.00019956
19270.0 0.00019874
19290.0 0.00019791
19310.0 0.00019711
19330.0 0.00019631
19350.0 0.00019546
19370.0 0.00019465
19390.0 0.00019385
19410.0 0.00019302
19430.0 0.00019219
19450.0 0.0001914
19470.0 0.00019059
19490.0 0.00018976
19510.0 0.00018895
19530.0 0.00018816
19550.0 0.00018733
19570.0 0.00018649
19590.0 0.0001857
19610.0 0.00018489
19630.0 0.00018406
19650.0 0.00018326
19670.0 0.00018247
19690.0 0.00018164
19710.0 0.00018082
19730.0 0.00018003
19750.0 0.00017922
19770.0 0.00017838
19790.0 0.00017758
19810.0 0.00017679
19830.0 0.00017597
19850.0 0.00017514
19870.0 0.00017433
19890.0 0.00017346
19910.0 0.0001725
19930.0 0.00017148
19950.0 0.00017031
19970.0 0.00016887
19990.0 0.00016713
20010.0 0.0001487
20030.0 0.00014654
20050.0 0.00014403
20070.0 0.0001413
20090.0 0.00013836
20110.0 0.00013504
20130.0 0.00013168
20150.0 0.00012835
20170.0 0.00012489
20190.0 0.00012139
20210.0 0.00011808
20230.0 0.00011485
20250.0 0.00011162
20270.0 0.00010862
20290.0 0.00010587
20310.0 0.00010327
20330.0 0.00010084
20350.0 9.8816e-05
20370.0 9.7023e-05
20390.0 9.545e-05
20410.0 9.418e-05
20430.0 9.3201e-05
20450.0 9.2425e-05
20470.0 9.1905e-05
20490.0 9.1626e-05
20510.0 9.1545e-05
20530.0 9.1659e-05
20550.0 9.1941e-05
20570.0 9.2353e-05
20590.0 9.2911e-05
20610.0 9.3586e-05
20630.0 9.4329e-05
20650.0 9.5161e-05
20670.0 9.6112e-05
20690.0 9.7081e-05
20710.0 9.8083e-05
20730.0 9.9164e-05
20750.0 0.00010029
20770.0 0.0001014
20790.0 0.00010257
20810.0 0.0001038
20830.0 0.00010503
20850.0 0.00010626
20870.0 0.00010758
20890.0 0.00010892
20910.0 0.00011022
20930.0 0.00011157
20950.0 0.00011296
20970.0 0.00011432
20990.0 0.00011567
21010.0 0.00011708
21030.0 0.00011846
21050.0 0.00011977
21070.0 0.00012109
21090.0 0.00012241
21110.0 0.00012361
21130.0 0.00012474
21150.0 0.00012583
21170.0 0.00012682
21190.0 0.00012768
21210.0 0.00012844
21230.0 0.00012908
21250.0 0.00012954
21270.0 0.00012982
21290.0 0.00012993
21310.0 0.00012983
21330.0 0.00012952
21350.0 0.00012898
21370.0 0.00012819
21390.0 0.00012719
21410.0 0.00012596
21430.0 0.0001244
21450.0 0.00012266
21470.0 0.00012075
21490.0 0.0001186
21510.0 0.00011624
21530.0 0.00011384
21550.0 0.00011133
21570.0 0.00010865
21590.0 0.00010601
21610.0 0.00010347
21630.0 0.00010092
21650.0 9.8425e-05
21670.0 9.6265e-05
21690.0 9.4274e-05
21710.0 9.2481e-05
21730.0 9.1012e-05
21750.0 8.9879e-05
21770.0 8.9015e-05
21790.0 8.8519e-05
21810.0 8.8381e-05
21830.0 8.8577e-05
21850.0 8.9131e-05
21870.0 8.9994e-05
21890.0 9.1109e-05
21910.0 9.254e-05
21930.0 9.4218e-05
21950.0 9.6036e-05
21970.0 9.805e-05
21990.0 0.00010031
22010.0 0.00010257
22030.0 0.00010486
22050.0 0.00010727
22070.0 0.0001097
22090.0 0.00011199
22110.0 0.0001143
22130.0 0.00011661
22150.0 0.00011877
22170.0 0.0001208
22190.0 0.00012281
22210.0 0.00012469
22230.0 0.00012634
22250.0 0.00012789
22270.0 0.00012932
22290.0 0.00013055
22310.0 0.0001316
22330.0 0.00013252
22350.0 0.00013323
22370.0 0.00013374
22390.0 0.00013405
22410.0 0.00013415
22430.0 0.00013402
22450.0 0.00013368
22470.0 0.00013308
22490.0 0.00013224
22510.0 0.0001312
22530.0 0.00012986
22550.0 0.00012824
22570.0 0.00012643
22590.0 0.0001244
22610.0 0.00012206
22630.0 0.00011953
22650.0 0.00011691
22670.0 0.00011402
22690.0 0.00011093
22710.0 0.00010781
22730.0 0.0001046
22750.0 0.00010112
22770.0 9.7713e-05
22790.0 9.439e-05
22810.0 9.0979e-05
22830.0 8.7576e-05
22850.0 8.439e-05
22870.0 8.1267e-05
22890.0 7.816e-05
22910.0 7.5298e-05
22930.0 7.2675e-05
22950.0 7.0176e-05
