#lamb flux
1010.0 2.4236e-07
1030.0 2.6686e-07
1050.0 2.9503e-07
1070.0 3.2675e-07
1090.0 3.6277e-07
1110.0 3.9972e-07
1130.0 4.3691e-07
1150.0 4.7587e-07
1170.0 5.1605e-07
1190.0 5.5415e-07
1210.0 5.9277e-07
1230.0 6.3268e-07
1250.0 6.7177e-07
1270.0 7.0974e-07
1290.0 7.4986e-07
1310.0 7.8995e-07
1330.0 8.284e-07
1350.0 8.6728e-07
1370.0 9.0742e-07
1390.0 9.4656e-07
1410.0 9.8453e-07
1430.0 1.0242e-06
1450.0 1.0639e-06
1470.0 1.1023e-06
1490.0 1.1411e-06
1510.0 1.182e-06
1530.0 1.2209e-06
1550.0 1.2592e-06
1570.0 1.2988e-06
1590.0 1.3384e-06
1610.0 1.3763e-06
1630.0 1.4154e-06
1650.0 1.4556e-06
1670.0 1.4944e-06
1690.0 1.5327e-06
1710.0 1.5726e-06
1730.0 1.6126e-06
1750.0 1.6503e-06
1770.0 1.6892e-06
1790.0 1.7288e-06
1810.0 1.7672e-06
1830.0 1.8049e-06
1850.0 1.845e-06
1870.0 1.8841e-06
1890.0 1.9219e-06
1910.0 1.9605e-06
1930.0 2e-06
1950.0 2.0378e-06
1970.0 2.0751e-06
1990.0 2.1139e-06
2010.0 2.152e-06
2030.0 2.1887e-06
2050.0 2.2266e-06
2070.0 2.2654e-06
2090.0 2.302e-06
2110.0 2.3384e-06
2130.0 2.3758e-06
2150.0 2.4125e-06
2170.0 2.4475e-06
2190.0 2.4838e-06
2210.0 2.5202e-06
2230.0 2.5549e-06
2250.0 2.5893e-06
2270.0 2.6253e-06
2290.0 2.6599e-06
2310.0 2.6929e-06
2330.0 2.7271e-06
2350.0 2.7622e-06
2370.0 2.7969e-06
2390.0 2.8347e-06
2410.0 2.8801e-06
2430.0 2.933e-06
2450.0 2.997e-06
2470.0 3.0802e-06
2490.0 3.1863e-06
2510.0 3.3074e-06
2530.0 3.4541e-06
2550.0 3.6387e-06
2570.0 3.8686e-06
2590.0 4.1677e-06
2610.0 4.6152e-06
2630.0 5.2521e-06
2650.0 6.0814e-06
2670.0 7.1496e-06
2690.0 8.4571e-06
2710.0 9.8461e-06
2730.0 1.1211e-05
2750.0 1.2548e-05
2770.0 1.3702e-05
2790.0 1.4608e-05
2810.0 1.5317e-05
2830.0 1.586e-05
2850.0 1.6219e-05
2870.0 1.6472e-05
2890.0 1.6664e-05
2910.0 1.6811e-05
2930.0 1.6924e-05
2950.0 1.7032e-05
2970.0 1.7136e-05
2990.0 1.7233e-05
3010.0 0.00050385
3030.0 0.00050662
3050.0 0.00050929
3070.0 0.00051148
3090.0 0.00051326
3110.0 0.00051406
3130.0 0.00051319
3150.0 0.00051014
3170.0 0.00050393
3190.0 0.00049463
3210.0 0.00048307
3230.0 0.00046994
3250.0 0.00045681
3270.0 0.00044714
3290.0 0.00044122
3310.0 0.0004414
3330.0 0.00044706
3350.0 0.0004575
3370.0 0.00047273
3390.0 0.0004921
3410.0 0.00051329
3430.0 0.00053714
3450.0 0.00056466
3470.0 0.00059477
3490.0 0.00062676
3510.0 0.00066298
3530.0 0.00070191
3550.0 0.00074176
3570.0 0.00078379
3590.0 0.00082969
3610.0 0.00087776
3630.0 0.00092551
3650.0 0.00097526
3670.0 0.0010205
3690.0 0.0010541
3710.0 0.0010729
3730.0 0.0010711
3750.0 0.0010512
3770.0 0.0010534
3790.0 0.0010461
3810.0 0.00097858
3830.0 0.0010014
3850.0 0.0011857
3870.0 0.0012441
3890.0 0.0011755
3910.0 0.001158
3930.0 0.001223
3950.0 0.0012846
3970.0 0.0012192
3990.0 0.00098418
4010.0 0.0027717
4030.0 0.0032749
4050.0 0.0037499
4070.0 0.0033715
4090.0 0.0030709
4110.0 0.002678
4130.0 0.0025865
4150.0 0.0029069
4170.0 0.0027222
4190.0 0.0028024
4210.0 0.0028465
4230.0 0.0031057
4250.0 0.0036963
4270.0 0.0038031
4290.0 0.0034595
4310.0 0.0035056
4330.0 0.0036663
4350.0 0.0042224
4370.0 0.0048825
4390.0 0.0044144
4410.0 0.0030813
4430.0 0.0025371
4450.0 0.0023438
4470.0 0.0017239
4490.0 0.0020023
4510.0 0.0033111
4530.0 0.0038772
4550.0 0.0038212
4570.0 0.0040802
4590.0 0.0045795
4610.0 0.0067527
4630.0 0.0089743
4650.0 0.0094086
4670.0 0.0085987
4690.0 0.0083086
4710.0 0.0087483
4730.0 0.0080178
4750.0 0.0058316
4770.0 0.0042013
4790.0 0.0040574
4810.0 0.003964
4830.0 0.0036962
4850.0 0.0040394
4870.0 0.0053396
4890.0 0.0062663
4910.0 0.0053547
4930.0 0.0048494
4950.0 0.005391
4970.0 0.006965
4990.0 0.0094351
5010.0 0.010888
5030.0 0.0093869
5050.0 0.0062232
5070.0 0.0041699
5090.0 0.0033031
5110.0 0.0033233
5130.0 0.00388
5150.0 0.0041107
5170.0 0.0040087
5190.0 0.0037032
5210.0 0.0039317
5230.0 0.0042845
5250.0 0.0047046
5270.0 0.0048965
5290.0 0.0053863
5310.0 0.0064796
5330.0 0.0071384
5350.0 0.0070803
5370.0 0.0075474
5390.0 0.008848
5410.0 0.0085246
5430.0 0.007323
5450.0 0.0068658
5470.0 0.0074345
5490.0 0.0091202
5510.0 0.011315
5530.0 0.013017
5550.0 0.012391
5570.0 0.011236
5590.0 0.0096476
5610.0 0.0090854
5630.0 0.0091373
5650.0 0.0086116
5670.0 0.0080934
5690.0 0.0070609
5710.0 0.0069745
5730.0 0.006505
5750.0 0.0043359
5770.0 0.0033143
5790.0 0.003822
5810.0 0.0042446
5830.0 0.0054897
5850.0 0.0066935
5870.0 0.0073826
5890.0 0.0074036
5910.0 0.007255
5930.0 0.006914
5950.0 0.0070612
5970.0 0.0082252
5990.0 0.0074877
6010.0 0.0061621
6030.0 0.0051708
6050.0 0.0045285
6070.0 0.004693
6090.0 0.0051272
6110.0 0.0056062
6130.0 0.0055783
6150.0 0.0047065
6170.0 0.0040178
6190.0 0.0045785
6210.0 0.0063014
6230.0 0.0085298
6250.0 0.0092463
6270.0 0.0078276
6290.0 0.0066158
6310.0 0.0051367
6330.0 0.0038903
6350.0 0.0035477
6370.0 0.003729
6390.0 0.0043399
6410.0 0.0054224
6430.0 0.0063807
6450.0 0.0074306
6470.0 0.0083212
6490.0 0.01002
6510.0 0.01121
6530.0 0.01113
6550.0 0.010109
6570.0 0.008428
6590.0 0.0076882
6610.0 0.00656
6630.0 0.0061666
6650.0 0.0058841
6670.0 0.0055375
6690.0 0.0047972
6710.0 0.0044421
6730.0 0.0028516
6750.0 0.0030158
6770.0 0.003618
6790.0 0.0043402
6810.0 0.0036798
6830.0 0.0037799
6850.0 0.0034251
6870.0 0.0031422
6890.0 0.0029239
6910.0 0.003227
6930.0 0.0030282
6950.0 0.0032419
6970.0 0.0034056
6990.0 0.0038429
7010.0 0.0038204
7030.0 0.0040269
7050.0 0.0037391
7070.0 0.0034352
7090.0 0.0035115
7110.0 0.0036533
7130.0 0.0040101
7150.0 0.0043363
7170.0 0.0048111
7190.0 0.0052564
7210.0 0.0050299
7230.0 0.0051518
7250.0 0.0055238
7270.0 0.0059817
7290.0 0.0071856
7310.0 0.0077626
7330.0 0.0074558
7350.0 0.0067292
7370.0 0.005625
7390.0 0.0055294
7410.0 0.0060892
7430.0 0.0068175
7450.0 0.0074047
7470.0 0.0071682
7490.0 0.0062835
7510.0 0.0078175
7530.0 0.0075692
7550.0 0.0069176
7570.0 0.0052032
7590.0 0.0032398
7610.0 0.0026859
7630.0 0.0032214
7650.0 0.0039191
7670.0 0.005191
7690.0 0.0057257
7710.0 0.0057495
7730.0 0.0059661
7750.0 0.0069763
7770.0 0.0071133
7790.0 0.0065215
7810.0 0.0057585
7830.0 0.0060198
7850.0 0.00605
7870.0 0.0056506
7890.0 0.0046469
7910.0 0.0035967
7930.0 0.0035119
7950.0 0.0031945
7970.0 0.0028872
7990.0 0.0028083
8010.0 0.00053348
8030.0 0.00048818
8050.0 0.00052146
8070.0 0.00059267
8090.0 0.00072968
8110.0 0.00069318
8130.0 0.00041271
8150.0 0.00043531
8170.0 0.00024564
8190.0 0.00015166
8210.0 0.00040442
8230.0 0.0004892
8250.0 0.00021197
8270.0 0.00016631
8290.0 0.00030682
8310.0 0.00027314
8330.0 0.00017158
8350.0 0.00013359
8370.0 3.172e-05
8390.0 0.00014564
8410.0 0.00016547
8430.0 0.00020422
8450.0 0.0002334
8470.0 0.00038384
8490.0 0.00032296
8510.0 0.00025724
8530.0 0.00015416
8550.0 0.0004534
8570.0 0.00067313
8590.0 0.00049638
8610.0 0.00073126
8630.0 0.0008145
8650.0 0.00051368
8670.0 0.00070088
8690.0 0.00099739
8710.0 0.00085659
8730.0 0.00089644
8750.0 0.00071219
8770.0 0.00063755
8790.0 0.00069183
8810.0 0.00073908
8830.0 0.00042963
8850.0 0.00019651
8870.0 0.00013737
8890.0 0.00030115
8910.0 0.00046755
8930.0 0.00061803
8950.0 0.00067256
8970.0 0.00064688
8990.0 0.00047822
9010.0 0.0013551
9030.0 0.0011425
9050.0 0.0011598
9070.0 0.001181
9090.0 0.0011988
9110.0 0.0012208
9130.0 0.001237
9150.0 0.0012488
9170.0 0.0012613
9190.0 0.0012747
9210.0 0.0012889
9230.0 0.0013038
9250.0 0.0013188
9270.0 0.0013344
9290.0 0.0013504
9310.0 0.0013663
9330.0 0.0013825
9350.0 0.0013992
9370.0 0.0014161
9390.0 0.001433
9410.0 0.0014503
9430.0 0.0014682
9450.0 0.0014858
9470.0 0.0015038
9490.0 0.0015222
9510.0 0.0015409
9530.0 0.0015594
9550.0 0.0015787
9570.0 0.0015983
9590.0 0.0016178
9610.0 0.0016376
9630.0 0.001658
9650.0 0.0016785
9670.0 0.001699
9690.0 0.00172
9710.0 0.0017413
9730.0 0.0017626
9750.0 0.0017842
9770.0 0.0018065
9790.0 0.0018287
9810.0 0.001851
9830.0 0.0018737
9850.0 0.0018968
9870.0 0.0019197
9890.0 0.0019429
9910.0 0.0019667
9930.0 0.0019904
9950.0 0.0020142
9970.0 0.0020385
9990.0 0.0020631
10010.0 0.0018013
10030.0 0.0018226
10050.0 0.0018442
10070.0 0.001866
10090.0 0.0018873
10110.0 0.0019092
10130.0 0.0019312
10150.0 0.0019529
10170.0 0.0019749
10190.0 0.0019973
10210.0 0.0020194
10230.0 0.0020414
10250.0 0.0020638
10270.0 0.0020861
10290.0 0.0021082
10310.0 0.0021305
10330.0 0.0021531
10350.0 0.0021753
10370.0 0.0021974
10390.0 0.0022197
10410.0 0.002242
10430.0 0.0022638
10450.0 0.0022858
10470.0 0.0023079
10490.0 0.0023296
10510.0 0.0023511
10530.0 0.002373
10550.0 0.0023945
10570.0 0.0024156
10590.0 0.0024367
10610.0 0.0024579
10630.0 0.0024784
10650.0 0.0024988
10670.0 0.0025194
10690.0 0.0025396
10710.0 0.0025593
10730.0 0.002579
10750.0 0.0025989
10770.0 0.0026178
10790.0 0.0026365
10810.0 0.0026552
10830.0 0.0026734
10850.0 0.0026906
10870.0 0.0027074
10890.0 0.0027226
10910.0 0.0027347
10930.0 0.0027428
10950.0 0.0027443
10970.0 0.0027373
10990.0 0.0027207
11010.0 0.0025388
11030.0 0.0024988
11050.0 0.0024497
11070.0 0.0023906
11090.0 0.0023195
11110.0 0.0022459
11130.0 0.0021692
11150.0 0.0020867
11170.0 0.0020017
11190.0 0.0019195
11210.0 0.0018347
11230.0 0.0017479
11250.0 0.0016651
11270.0 0.0015857
11290.0 0.0015062
11310.0 0.0014309
11330.0 0.0013646
11350.0 0.001302
11370.0 0.001244
11390.0 0.0011936
11410.0 0.0011494
11430.0 0.0011082
11450.0 0.0010725
11470.0 0.0010414
11490.0 0.0010123
11510.0 0.00098423
11530.0 0.00095805
11550.0 0.00093205
11570.0 0.00090441
11590.0 0.00087587
11610.0 0.00084693
11630.0 0.00081558
11650.0 0.00078216
11670.0 0.00074929
11690.0 0.00071603
11710.0 0.0006818
11730.0 0.00064865
11750.0 0.00061794
11770.0 0.00058782
11790.0 0.00055955
11810.0 0.00053458
11830.0 0.00051216
11850.0 0.00049143
11870.0 0.00047397
11890.0 0.00045933
11910.0 0.00044636
11930.0 0.00043512
11950.0 0.00042565
11970.0 0.00041713
11990.0 0.00040907
12010.0 0.00040159
12030.0 0.0003944
12050.0 0.00038701
12070.0 0.00037938
12090.0 0.00037204
12110.0 0.0003646
12130.0 0.00035716
12150.0 0.00035025
12170.0 0.00034413
12190.0 0.00033873
12210.0 0.00033474
12230.0 0.00033243
12250.0 0.00033194
12270.0 0.00033368
12290.0 0.00033763
12310.0 0.00034364
12330.0 0.00035232
12350.0 0.00036334
12370.0 0.00037599
12390.0 0.00039068
12410.0 0.00040799
12430.0 0.00042561
12450.0 0.00044388
12470.0 0.00046333
12490.0 0.00048288
12510.0 0.00050119
12530.0 0.0005194
12550.0 0.00053695
12570.0 0.0005524
12590.0 0.00056591
12610.0 0.00057791
12630.0 0.0005874
12650.0 0.00059382
12670.0 0.00059792
12690.0 0.00059934
12710.0 0.00059797
12730.0 0.00059412
12750.0 0.00058757
12770.0 0.00057871
12790.0 0.00056806
12810.0 0.00055541
12830.0 0.00054086
12850.0 0.00052567
12870.0 0.00050965
12890.0 0.00049237
12910.0 0.00047484
12930.0 0.00045759
12950.0 0.00043964
12970.0 0.00042141
12990.0 0.00040417
13010.0 0.00038718
13030.0 0.00037002
13050.0 0.00035355
13070.0 0.00033813
13090.0 0.00032266
13110.0 0.00030769
13130.0 0.00029387
13150.0 0.00028077
13170.0 0.00026793
13190.0 0.00025647
13210.0 0.00024634
13230.0 0.00023705
13250.0 0.00022899
13270.0 0.00022257
13290.0 0.00021749
13310.0 0.00021387
13330.0 0.00021203
13350.0 0.00021186
13370.0 0.00021344
13390.0 0.00021688
13410.0 0.00022168
13430.0 0.00022803
13450.0 0.00023597
13470.0 0.00024486
13490.0 0.00025433
13510.0 0.00026508
13530.0 0.00027602
13550.0 0.00028655
13570.0 0.00029698
13590.0 0.00030719
13610.0 0.00031631
13630.0 0.00032431
13650.0 0.00033166
13670.0 0.0003378
13690.0 0.00034258
13710.0 0.00034632
13730.0 0.00034905
13750.0 0.00035046
13770.0 0.00035088
13790.0 0.00035035
13810.0 0.00034889
13830.0 0.00034665
13850.0 0.00034359
13870.0 0.0003397
13890.0 0.00033522
13910.0 0.00033017
13930.0 0.00032431
13950.0 0.00031792
13970.0 0.00031137
13990.0 0.00030425
14010.0 0.00029668
14030.0 0.00028913
14050.0 0.00028152
14070.0 0.00027349
14090.0 0.0002658
14110.0 0.00025857
14130.0 0.00025156
14150.0 0.00024496
14170.0 0.00023931
14190.0 0.00023442
14210.0 0.00023026
14230.0 0.00022715
14250.0 0.00022512
14270.0 0.0002241
14290.0 0.00022423
14310.0 0.00022541
14330.0 0.0002276
14350.0 0.00023086
14370.0 0.00023494
14390.0 0.00023961
14410.0 0.00024512
14430.0 0.0002512
14450.0 0.00025744
14470.0 0.00026393
14490.0 0.00027085
14510.0 0.0002775
14530.0 0.00028383
14550.0 0.00029017
14570.0 0.00029628
14590.0 0.00030186
14610.0 0.00030725
14630.0 0.0003126
14650.0 0.00031757
14670.0 0.00032238
14690.0 0.00032737
14710.0 0.00033262
14730.0 0.00033785
14750.0 0.00034364
14770.0 0.00035021
14790.0 0.00035733
14810.0 0.00036504
14830.0 0.00037419
14850.0 0.00038414
14870.0 0.00039454
14890.0 0.00040578
14910.0 0.00041772
14930.0 0.00042923
14950.0 0.00044001
14970.0 0.00045023
14990.0 0.00045884
15010.0 0.00046546
15030.0 0.0004704
15050.0 0.00047373
15070.0 0.00047543
15090.0 0.00047613
15110.0 0.00047613
15130.0 0.00047568
15150.0 0.00047503
15170.0 0.00047423
15190.0 0.00047336
15210.0 0.0004725
15230.0 0.00047165
15250.0 0.00047076
15270.0 0.00046989
15290.0 0.00046907
15310.0 0.00046823
15330.0 0.00046737
15350.0 0.00046656
15370.0 0.00046575
15390.0 0.0004649
15410.0 0.00046408
15430.0 0.00046329
15450.0 0.00046248
15470.0 0.00046165
15490.0 0.00046088
15510.0 0.0004601
15530.0 0.0004593
15550.0 0.00045851
15570.0 0.00045776
15590.0 0.00045697
15610.0 0.00045616
15630.0 0.00045541
15650.0 0.00045466
15670.0 0.00045387
15690.0 0.00045311
15710.0 0.00045239
15730.0 0.00045162
15750.0 0.00045084
15770.0 0.00045011
15790.0 0.00044937
15810.0 0.00044858
15830.0 0.00044783
15850.0 0.00044711
15870.0 0.00044636
15890.0 0.0004456
15910.0 0.00044488
15930.0 0.00044414
15950.0 0.00044336
15970.0 0.00044262
15990.0 0.0004419
16010.0 0.00044114
16030.0 0.00044037
16050.0 0.00043965
16070.0 0.00043892
16090.0 0.00043815
16110.0 0.00043741
16130.0 0.00043669
16150.0 0.0004359
16170.0 0.00043514
16190.0 0.00043441
16210.0 0.00043365
16230.0 0.00043287
16250.0 0.00043213
16270.0 0.00043139
16290.0 0.00043061
16310.0 0.00042984
16330.0 0.00042909
16350.0 0.00042832
16370.0 0.0004275
16390.0 0.00042675
16410.0 0.00042599
16430.0 0.00042519
16450.0 0.0004244
16470.0 0.00042365
16490.0 0.00042285
16510.0 0.00042203
16530.0 0.00042124
16550.0 0.00042046
16570.0 0.00041962
16590.0 0.0004188
16610.0 0.00041802
16630.0 0.0004172
16650.0 0.00041637
16670.0 0.00041556
16690.0 0.00041476
16710.0 0.00041388
16730.0 0.00041304
16750.0 0.00041223
16770.0 0.00041137
16790.0 0.0004105
16810.0 0.00040967
16830.0 0.00040883
16850.0 0.00040794
16870.0 0.00040708
16890.0 0.00040623
16910.0 0.00040534
16930.0 0.00040442
16950.0 0.00040356
16970.0 0.00040268
16990.0 0.00040176
17010.0 0.00040086
17030.0 0.00039999
17050.0 0.00039906
17070.0 0.00039813
17090.0 0.00039723
17110.0 0.00039632
17130.0 0.00039535
17150.0 0.00039442
17170.0 0.00039351
17190.0 0.00039255
17210.0 0.00039159
17230.0 0.00039066
17250.0 0.00038971
17270.0 0.00038871
17290.0 0.00038775
17310.0 0.00038679
17330.0 0.0003858
17350.0 0.00038479
17370.0 0.00038384
17390.0 0.00038285
17410.0 0.00038183
17430.0 0.00038084
17450.0 0.00037986
17470.0 0.00037881
17490.0 0.00037778
17510.0 0.00037678
17530.0 0.00037576
17550.0 0.0003747
17570.0 0.00037368
17590.0 0.00037267
17610.0 0.0003716
17630.0 0.00037054
17650.0 0.00036952
17670.0 0.00036846
17690.0 0.00036735
17710.0 0.0003663
17730.0 0.00036525
17750.0 0.00036416
17770.0 0.00036308
17790.0 0.00036203
17810.0 0.00036093
17830.0 0.00035981
17850.0 0.00035874
17870.0 0.00035765
17890.0 0.00035652
17910.0 0.0003554
17930.0 0.00035433
17950.0 0.00035321
17970.0 0.00035207
17990.0 0.00035098
18010.0 0.00034987
18030.0 0.0003487
18050.0 0.00034757
18070.0 0.00034646
18090.0 0.00034531
18110.0 0.00034415
18130.0 0.00034303
18150.0 0.0003419
18170.0 0.00034073
18190.0 0.00033958
18210.0 0.00033846
18230.0 0.00033728
18250.0 0.00033608
18270.0 0.00033495
18290.0 0.00033379
18310.0 0.0003326
18330.0 0.00033144
18350.0 0.0003303
18370.0 0.0003291
18390.0 0.00032791
18410.0 0.00032675
18430.0 0.00032558
18450.0 0.00032435
18470.0 0.00032318
18490.0 0.00032202
18510.0 0.00032081
18530.0 0.00031961
18550.0 0.00031845
18570.0 0.00031726
18590.0 0.00031603
18610.0 0.00031484
18630.0 0.00031366
18650.0 0.00031244
18670.0 0.00031122
18690.0 0.00031005
18710.0 0.00030885
18730.0 0.00030763
18750.0 0.00030643
18770.0 0.00030525
18790.0 0.000304
18810.0 0.00030279
18830.0 0.0003016
18850.0 0.00030039
18870.0 0.00029915
18890.0 0.00029796
18910.0 0.00029677
18930.0 0.00029554
18950.0 0.00029432
18970.0 0.00029313
18990.0 0.00029191
19010.0 0.00029065
19030.0 0.00028946
19050.0 0.00028826
19070.0 0.00028703
19090.0 0.00028581
19110.0 0.00028463
19130.0 0.0002834
19150.0 0.00028216
19170.0 0.00028096
19190.0 0.00027976
19210.0 0.00027851
19230.0 0.00027729
19250.0 0.00027611
19270.0 0.00027489
19290.0 0.00027366
19310.0 0.00027247
19330.0 0.00027127
19350.0 0.00027001
19370.0 0.0002688
19390.0 0.00026761
19410.0 0.00026639
19430.0 0.00026516
19450.0 0.00026398
19470.0 0.00026278
19490.0 0.00026154
19510.0 0.00026034
19530.0 0.00025916
19550.0 0.00025793
19570.0 0.0002567
19590.0 0.00025552
19610.0 0.00025432
19630.0 0.0002531
19650.0 0.0002519
19670.0 0.00025073
19690.0 0.00024951
19710.0 0.0002483
19730.0 0.00024712
19750.0 0.00024593
19770.0 0.00024469
19790.0 0.00024351
19810.0 0.00024234
19830.0 0.00024112
19850.0 0.00023991
19870.0 0.00023871
19890.0 0.00023744
19910.0 0.00023604
19930.0 0.00023456
19950.0 0.00023288
19970.0 0.00023083
19990.0 0.00022838
20010.0 0.00020429
20030.0 0.00020127
20050.0 0.00019775
20070.0 0.00019394
20090.0 0.00018986
20110.0 0.00018526
20130.0 0.00018061
20150.0 0.000176
20170.0 0.00017123
20190.0 0.0001664
20210.0 0.00016185
20230.0 0.0001574
20250.0 0.00015295
20270.0 0.00014882
20290.0 0.00014505
20310.0 0.00014147
20330.0 0.00013811
20350.0 0.00013532
20370.0 0.00013284
20390.0 0.00013066
20410.0 0.00012888
20430.0 0.00012751
20450.0 0.0001264
20470.0 0.00012565
20490.0 0.00012522
20510.0 0.00012507
20530.0 0.00012518
20550.0 0.00012553
20570.0 0.00012606
20590.0 0.00012679
20610.0 0.00012768
20630.0 0.00012868
20650.0 0.0001298
20670.0 0.00013108
20690.0 0.0001324
20710.0 0.00013376
20730.0 0.00013523
20750.0 0.00013677
20770.0 0.00013828
20790.0 0.00013986
20810.0 0.00014154
20830.0 0.0001432
20850.0 0.00014487
20870.0 0.00014665
20890.0 0.00014846
20910.0 0.00015021
20930.0 0.00015202
20950.0 0.00015389
20970.0 0.00015571
20990.0 0.0001575
21010.0 0.00015938
21030.0 0.00016122
21050.0 0.00016297
21070.0 0.00016472
21090.0 0.00016647
21110.0 0.00016807
21130.0 0.00016956
21150.0 0.00017101
21170.0 0.00017232
21190.0 0.00017344
21210.0 0.00017444
21230.0 0.00017528
21250.0 0.00017587
21270.0 0.00017624
21290.0 0.00017636
21310.0 0.0001762
21330.0 0.00017577
21350.0 0.00017503
21370.0 0.00017395
21390.0 0.00017259
21410.0 0.00017092
21430.0 0.00016881
21450.0 0.00016644
21470.0 0.00016386
21490.0 0.00016095
21510.0 0.00015775
21530.0 0.00015451
21550.0 0.00015111
21570.0 0.00014748
21590.0 0.00014392
21610.0 0.00014047
21630.0 0.00013702
21650.0 0.00013366
21670.0 0.00013073
21690.0 0.00012803
21710.0 0.0001256
21730.0 0.00012361
21750.0 0.00012206
21770.0 0.00012088
21790.0 0.00012019
21810.0 0.00011998
21830.0 0.00012021
21850.0 0.00012093
21870.0 0.00012206
21890.0 0.00012353
21910.0 0.00012542
21930.0 0.00012764
21950.0 0.00013005
21970.0 0.00013272
21990.0 0.00013572
22010.0 0.00013872
22030.0 0.00014176
22050.0 0.00014497
22070.0 0.00014819
22090.0 0.00015124
22110.0 0.00015432
22130.0 0.0001574
22150.0 0.00016027
22170.0 0.00016298
22190.0 0.00016566
22210.0 0.00016816
22230.0 0.00017036
22250.0 0.00017243
22270.0 0.00017433
22290.0 0.00017596
22310.0 0.00017735
22330.0 0.00017858
22350.0 0.00017952
22370.0 0.00018018
22390.0 0.00018059
22410.0 0.00018071
22430.0 0.00018052
22450.0 0.00018005
22470.0 0.00017923
22490.0 0.0001781
22510.0 0.00017669
22530.0 0.00017489
22550.0 0.0001727
22570.0 0.00017027
22590.0 0.00016754
22610.0 0.0001644
22630.0 0.000161
22650.0 0.00015749
22670.0 0.00015361
22690.0 0.00014947
22710.0 0.00014529
22730.0 0.00014099
22750.0 0.00013632
22770.0 0.00013176
22790.0 0.00012731
22810.0 0.00012274
22830.0 0.00011818
22850.0 0.00011391
22870.0 0.00010973
22890.0 0.00010557
22910.0 0.00010173
22930.0 9.8219e-05
22950.0 9.4871e-05
22970.0 9.1771e-05
22990.0 8.9201e-05
