#lamb flux
1010.0 1.6569e-06
1030.0 1.8024e-06
1050.0 1.9742e-06
1070.0 2.1676e-06
1090.0 2.3861e-06
1110.0 2.6104e-06
1130.0 2.8363e-06
1150.0 3.0731e-06
1170.0 3.3173e-06
1190.0 3.5486e-06
1210.0 3.7825e-06
1230.0 4.0237e-06
1250.0 4.2595e-06
1270.0 4.4874e-06
1290.0 4.7273e-06
1310.0 4.9659e-06
1330.0 5.1934e-06
1350.0 5.4226e-06
1370.0 5.6584e-06
1390.0 5.8875e-06
1410.0 6.1092e-06
1430.0 6.341e-06
1450.0 6.5729e-06
1470.0 6.7971e-06
1490.0 7.0243e-06
1510.0 7.2653e-06
1530.0 7.4944e-06
1550.0 7.7215e-06
1570.0 7.9577e-06
1590.0 8.1955e-06
1610.0 8.4242e-06
1630.0 8.6618e-06
1650.0 8.907e-06
1670.0 9.1458e-06
1690.0 9.3829e-06
1710.0 9.63e-06
1730.0 9.8793e-06
1750.0 1.0115e-05
1770.0 1.0357e-05
1790.0 1.0604e-05
1810.0 1.0843e-05
1830.0 1.1077e-05
1850.0 1.1323e-05
1870.0 1.156e-05
1890.0 1.1786e-05
1910.0 1.2014e-05
1930.0 1.2243e-05
1950.0 1.2456e-05
1970.0 1.2661e-05
1990.0 1.287e-05
2010.0 1.3069e-05
2030.0 1.3253e-05
2050.0 1.3439e-05
2070.0 1.3624e-05
2090.0 1.379e-05
2110.0 1.395e-05
2130.0 1.4112e-05
2150.0 1.4264e-05
2170.0 1.4403e-05
2190.0 1.4546e-05
2210.0 1.4687e-05
2230.0 1.4816e-05
2250.0 1.4943e-05
2270.0 1.5077e-05
2290.0 1.5202e-05
2310.0 1.5319e-05
2330.0 1.5441e-05
2350.0 1.5564e-05
2370.0 1.568e-05
2390.0 1.5799e-05
2410.0 1.5931e-05
2430.0 1.606e-05
2450.0 1.619e-05
2470.0 1.6335e-05
2490.0 1.6497e-05
2510.0 1.6669e-05
2530.0 1.6896e-05
2550.0 1.7244e-05
2570.0 1.7784e-05
2590.0 1.8606e-05
2610.0 1.9948e-05
2630.0 2.1886e-05
2650.0 2.4339e-05
2670.0 2.7354e-05
2690.0 3.0829e-05
2710.0 3.4274e-05
2730.0 3.7395e-05
2750.0 4.0122e-05
2770.0 4.2056e-05
2790.0 4.3088e-05
2810.0 4.3311e-05
2830.0 4.2744e-05
2850.0 4.1612e-05
2870.0 4.0105e-05
2890.0 3.8281e-05
2910.0 3.6308e-05
2930.0 3.4357e-05
2950.0 3.2307e-05
2970.0 3.0206e-05
2990.0 2.8188e-05
3010.0 3.8128e-05
3030.0 3.5149e-05
3050.0 3.2205e-05
3070.0 2.9499e-05
3090.0 2.6792e-05
3110.0 2.4206e-05
3130.0 2.1978e-05
3150.0 2.0474e-05
3170.0 1.9275e-05
3190.0 3.1814e-05
3210.0 8.9541e-05
3230.0 0.00018305
3250.0 0.00023228
3270.0 0.00020511
3290.0 0.00015744
3310.0 0.00013029
3330.0 0.00012207
3350.0 0.00012535
3370.0 0.000132
3390.0 0.00013907
3410.0 0.00014622
3430.0 0.0001529
3450.0 0.00016015
3470.0 0.00016803
3490.0 0.00017341
3510.0 0.00016788
3530.0 0.00017148
3550.0 0.00021507
3570.0 0.00027008
3590.0 0.00029825
3610.0 0.00030758
3630.0 0.00031518
3650.0 0.00031476
3670.0 0.00033365
3690.0 0.00039927
3710.0 0.00047312
3730.0 0.00052142
3750.0 0.00055573
3770.0 0.00056253
3790.0 0.00054076
3810.0 0.00049987
3830.0 0.00043703
3850.0 0.00037049
3870.0 0.00033615
3890.0 0.00037603
3910.0 0.00047565
3930.0 0.00057527
3950.0 0.00063448
3970.0 0.00065953
3990.0 0.00068704
4010.0 0.00070294
4030.0 0.0006342
4050.0 0.0005005
4070.0 0.00043191
4090.0 0.00045526
4110.0 0.0005012
4130.0 0.00052699
4150.0 0.00052982
4170.0 0.00051774
4190.0 0.00050893
4210.0 0.00052184
4230.0 0.00055226
4250.0 0.00057702
4270.0 0.00058621
4290.0 0.00057813
4310.0 0.00058186
4330.0 0.00061719
4350.0 0.00065896
4370.0 0.00065591
4390.0 0.00060833
4410.0 0.00053693
4430.0 0.0004495
4450.0 0.00038778
4470.0 0.00038577
4490.0 0.00042138
4510.0 0.00046692
4530.0 0.00051617
4550.0 0.00059327
4570.0 0.00074139
4590.0 0.00095256
4610.0 0.0011252
4630.0 0.0012122
4650.0 0.0012838
4670.0 0.0013533
4690.0 0.0013236
4710.0 0.0011543
4730.0 0.00093038
4750.0 0.00074996
4770.0 0.00064111
4790.0 0.000601
4810.0 0.00060085
4830.0 0.00064289
4850.0 0.00072688
4870.0 0.0008021
4890.0 0.00082662
4910.0 0.00084605
4930.0 0.00092547
4950.0 0.0010326
4970.0 0.0010879
4990.0 0.0010578
5010.0 0.00094744
5030.0 0.00079347
5050.0 0.00066318
5070.0 0.00058349
5090.0 0.0005508
5110.0 0.0005508
5130.0 0.00055612
5150.0 0.00055117
5170.0 0.00053901
5190.0 0.00054496
5210.0 0.0005873
5230.0 0.00066532
5250.0 0.0007818
5270.0 0.00090484
5290.0 0.00099184
5310.0 0.0010639
5330.0 0.0011544
5350.0 0.0012248
5370.0 0.0012199
5390.0 0.0011631
5410.0 0.001123
5430.0 0.0011677
5450.0 0.0013164
5470.0 0.0015004
5490.0 0.0016337
5510.0 0.0016845
5530.0 0.001676
5550.0 0.0016345
5570.0 0.0015803
5590.0 0.0015295
5610.0 0.0014954
5630.0 0.0014872
5650.0 0.0014686
5670.0 0.0013887
5690.0 0.0012674
5710.0 0.0011579
5730.0 0.0010811
5750.0 0.0010596
5770.0 0.0010917
5790.0 0.0011289
5810.0 0.0011476
5830.0 0.0011565
5850.0 0.0011436
5870.0 0.0011168
5890.0 0.0011171
5910.0 0.0011418
5930.0 0.0011345
5950.0 0.0010675
5970.0 0.00095252
5990.0 0.00081858
6010.0 0.00071701
6030.0 0.00068673
6050.0 0.00072412
6070.0 0.00075896
6090.0 0.0007335
6110.0 0.00069202
6130.0 0.00070609
6150.0 0.00076569
6170.0 0.00082041
6190.0 0.00085173
6210.0 0.00086144
6230.0 0.00083794
6250.0 0.00076349
6270.0 0.00065713
6290.0 0.00056965
6310.0 0.00053865
6330.0 0.00055503
6350.0 0.00058351
6370.0 0.00062016
6390.0 0.00069856
6410.0 0.0008164
6430.0 0.00091443
6450.0 0.0009633
6470.0 0.00099035
6490.0 0.0010102
6510.0 0.0010183
6530.0 0.0010238
6550.0 0.0010376
6570.0 0.0010548
6590.0 0.0010666
6610.0 0.0010539
6630.0 0.0010066
6650.0 0.00093506
6670.0 0.0008669
6690.0 0.00082298
6710.0 0.00078974
6730.0 0.00075456
6750.0 0.0007377
6770.0 0.00075462
6790.0 0.00077886
6810.0 0.00078635
6830.0 0.00077387
6850.0 0.00074359
6870.0 0.00071274
6890.0 0.00069541
6910.0 0.00069733
6930.0 0.00070915
6950.0 0.00071851
6970.0 0.0007267
6990.0 0.00072442
7010.0 0.00070146
7030.0 0.00065384
7050.0 0.00059182
7070.0 0.00054839
7090.0 0.00054265
7110.0 0.00055153
7130.0 0.00053261
7150.0 0.00049463
7170.0 0.00048978
7190.0 0.00053352
7210.0 0.00059482
7230.0 0.00064454
7250.0 0.00066484
7270.0 0.00065042
7290.0 0.00061694
7310.0 0.00059135
7330.0 0.00059229
7350.0 0.00060657
7370.0 0.00061814
7390.0 0.00064473
7410.0 0.000698
7430.0 0.00075898
7450.0 0.00080633
7470.0 0.00082008
7490.0 0.0007808
7510.0 0.0007232
7530.0 0.00068892
7550.0 0.00065033
7570.0 0.00061019
7590.0 0.000589
7610.0 0.00058668
7630.0 0.00060413
7650.0 0.00064296
7670.0 0.00069294
7690.0 0.00073768
7710.0 0.00076864
7730.0 0.00079386
7750.0 0.0008138
7770.0 0.00082071
7790.0 0.00082901
7810.0 0.00082617
7830.0 0.00079688
7850.0 0.00076509
7870.0 0.00074579
7890.0 0.00074237
7910.0 0.00074015
7930.0 0.00072014
7950.0 0.00069336
7970.0 0.00066574
7990.0 0.00064176
8010.0 0.00060914
8030.0 0.00060777
8050.0 0.00060439
8070.0 0.00059403
8090.0 0.00058598
8110.0 0.00057473
8130.0 0.00057299
8150.0 0.00056657
8170.0 0.00055453
8190.0 0.00053699
8210.0 0.00051746
8230.0 0.00049905
8250.0 0.00049143
8270.0 0.00046142
8290.0 0.00039923
8310.0 0.00033051
8330.0 0.00028366
8350.0 0.00027123
8370.0 0.00029948
8390.0 0.00034086
8410.0 0.00036257
8430.0 0.00037502
8450.0 0.00039941
8470.0 0.0004297
8490.0 0.00047114
8510.0 0.00051919
8530.0 0.00056905
8550.0 0.00060807
8570.0 0.00063628
8590.0 0.00065677
8610.0 0.00066753
8630.0 0.00066342
8650.0 0.0006502
8670.0 0.00064922
8690.0 0.00068045
8710.0 0.00072332
8730.0 0.00074264
8750.0 0.00073524
8770.0 0.00074067
8790.0 0.00073884
8810.0 0.00070453
8830.0 0.00065202
8850.0 0.00058697
8870.0 0.00053738
8890.0 0.00052126
8910.0 0.00051094
8930.0 0.00047717
8950.0 0.00044058
8970.0 0.00042503
8990.0 0.00042524
9010.0 0.00041725
9030.0 0.00040984
9050.0 0.00040604
9070.0 0.00040402
9090.0 0.00040225
9110.0 0.00040053
9130.0 0.00039882
9150.0 0.00039715
9170.0 0.00039542
9190.0 0.000394
9210.0 0.00039314
9230.0 0.00039117
9250.0 0.00038939
9270.0 0.00038772
9290.0 0.00038613
9310.0 0.00038457
9330.0 0.00038306
9350.0 0.00038161
9370.0 0.00038018
9390.0 0.00037874
9410.0 0.00037734
9430.0 0.00037589
9450.0 0.00037393
9470.0 0.00037216
9490.0 0.00037137
9510.0 0.00037031
9530.0 0.0003692
9550.0 0.00036801
9570.0 0.0003668
9590.0 0.00036559
9610.0 0.00036439
9630.0 0.00036316
9650.0 0.00036195
9670.0 0.00036079
9690.0 0.0003596
9710.0 0.00035842
9730.0 0.00035727
9750.0 0.00035613
9770.0 0.00035495
9790.0 0.00035381
9810.0 0.00035269
9830.0 0.00035155
9850.0 0.0003504
9870.0 0.0003493
9890.0 0.00034818
9910.0 0.00034704
9930.0 0.0003459
9950.0 0.00034352
9970.0 0.00034274
9990.0 0.00034189
10010.0 0.00034103
10030.0 0.00034005
10050.0 0.00033896
10070.0 0.00033787
10090.0 0.00033679
10110.0 0.00033551
10130.0 0.00033394
10150.0 0.00033283
10170.0 0.00033175
10190.0 0.00033052
10210.0 0.00032936
10230.0 0.00032819
10250.0 0.00032688
10270.0 0.00032556
10290.0 0.00032431
10310.0 0.00032295
10330.0 0.00032148
10350.0 0.00032012
10370.0 0.00031874
10390.0 0.00031723
10410.0 0.00031572
10430.0 0.00031431
10450.0 0.00031277
10470.0 0.00031115
10490.0 0.0003096
10510.0 0.00030803
10530.0 0.00030626
10550.0 0.00030453
10570.0 0.00030289
10590.0 0.00030111
10610.0 0.00029925
10630.0 0.00029748
10650.0 0.00029566
10670.0 0.00029366
10690.0 0.0002917
10710.0 0.00028978
10730.0 0.00028773
10750.0 0.00028554
10770.0 0.00028351
10790.0 0.0002814
10810.0 0.00027915
10830.0 0.00027692
10850.0 0.00027475
10870.0 0.00027235
10890.0 0.00026991
10910.0 0.00026755
10930.0 0.00026511
10950.0 0.0002625
10970.0 0.00025991
10990.0 0.0002574
11010.0 0.0002757
11030.0 0.0002729
11050.0 0.00027021
11070.0 0.00026748
11090.0 0.00026455
11110.0 0.00026182
11130.0 0.00025915
11150.0 0.00025638
11170.0 0.00025362
11190.0 0.00025104
11210.0 0.00024839
11230.0 0.00024568
11250.0 0.00024312
11270.0 0.00024063
11290.0 0.00023808
11310.0 0.00023557
11330.0 0.00023326
11350.0 0.00023092
11370.0 0.00022854
11390.0 0.00022624
11410.0 0.00022396
11430.0 0.00022148
11450.0 0.00021897
11470.0 0.00021644
11490.0 0.00021371
11510.0 0.00021074
11530.0 0.00020774
11550.0 0.0002046
11570.0 0.00020117
11590.0 0.00019763
11610.0 0.00019407
11630.0 0.00019028
11650.0 0.0001863
11670.0 0.00018244
11690.0 0.00017855
11710.0 0.00017452
11730.0 0.00017054
11750.0 0.00016672
11770.0 0.0001628
11790.0 0.00015886
11810.0 0.00015509
11830.0 0.00015136
11850.0 0.0001475
11870.0 0.00014379
11890.0 0.00014025
11910.0 0.00013666
11930.0 0.00013312
11950.0 0.00012977
11970.0 0.00012649
11990.0 0.0001232
12010.0 0.00012011
12030.0 0.00011721
12050.0 0.00011438
12070.0 0.00011166
12090.0 0.00010926
12110.0 0.000107
12130.0 0.00010488
12150.0 0.00010301
12170.0 0.00010139
12190.0 9.9927e-05
12210.0 9.8718e-05
12230.0 9.7771e-05
12250.0 9.7051e-05
12270.0 9.657e-05
12290.0 9.6324e-05
12310.0 9.6276e-05
12330.0 9.645e-05
12350.0 9.6812e-05
12370.0 9.7299e-05
12390.0 9.7929e-05
12410.0 9.8736e-05
12430.0 9.9554e-05
12450.0 0.0001004
12470.0 0.00010133
12490.0 0.00010226
12510.0 0.0001031
12530.0 0.00010395
12550.0 0.00010476
12570.0 0.00010545
12590.0 0.00010602
12610.0 0.00010651
12630.0 0.00010685
12650.0 0.00010698
12670.0 0.00010696
12690.0 0.00010677
12710.0 0.00010636
12730.0 0.00010576
12750.0 0.00010496
12770.0 0.00010397
12790.0 0.00010282
12810.0 0.00010149
12830.0 0.00010001
12850.0 9.8443e-05
12870.0 9.6803e-05
12890.0 9.5061e-05
12910.0 9.3298e-05
12930.0 9.156e-05
12950.0 8.9784e-05
12970.0 8.8006e-05
12990.0 8.6325e-05
13010.0 8.4685e-05
13030.0 8.3058e-05
13050.0 8.1503e-05
13070.0 8.0039e-05
13090.0 7.8587e-05
13110.0 7.7178e-05
13130.0 7.585e-05
13150.0 7.4567e-05
13170.0 7.3289e-05
13190.0 7.2086e-05
13210.0 7.095e-05
13230.0 6.9834e-05
13250.0 6.8756e-05
13270.0 6.7748e-05
13290.0 6.6773e-05
13310.0 6.5816e-05
13330.0 6.4918e-05
13350.0 6.4071e-05
13370.0 6.3246e-05
13390.0 6.2453e-05
13410.0 6.1725e-05
13430.0 6.1023e-05
13450.0 6.0344e-05
13470.0 5.9705e-05
13490.0 5.9102e-05
13510.0 5.8501e-05
13530.0 5.7925e-05
13550.0 5.7374e-05
13570.0 5.683e-05
13590.0 5.6283e-05
13610.0 5.5749e-05
13630.0 5.5224e-05
13650.0 5.4685e-05
13670.0 5.4148e-05
13690.0 5.3622e-05
13710.0 5.3091e-05
13730.0 5.2546e-05
13750.0 5.2026e-05
13770.0 5.1515e-05
13790.0 5.1003e-05
13810.0 5.0504e-05
13830.0 5.0033e-05
13850.0 4.9566e-05
13870.0 4.9109e-05
13890.0 4.8678e-05
13910.0 4.8265e-05
13930.0 4.7855e-05
13950.0 4.746e-05
13970.0 4.709e-05
13990.0 4.6719e-05
14010.0 4.6347e-05
14030.0 4.5986e-05
14050.0 4.5626e-05
14070.0 4.5245e-05
14090.0 4.4866e-05
14110.0 4.4488e-05
14130.0 4.4095e-05
14150.0 4.3689e-05
14170.0 4.3296e-05
14190.0 4.2905e-05
14210.0 4.2505e-05
14230.0 4.2123e-05
14250.0 4.1765e-05
14270.0 4.1415e-05
14290.0 4.1086e-05
14310.0 4.08e-05
14330.0 4.0544e-05
14350.0 4.0313e-05
14370.0 4.012e-05
14390.0 3.9963e-05
14410.0 3.9829e-05
14430.0 3.972e-05
14450.0 3.9636e-05
14470.0 3.9569e-05
14490.0 3.9512e-05
14510.0 3.9467e-05
14530.0 3.9432e-05
14550.0 3.94e-05
14570.0 3.9375e-05
14590.0 3.9361e-05
14610.0 3.9358e-05
14630.0 3.9372e-05
14650.0 3.9413e-05
14670.0 3.9487e-05
14690.0 3.9604e-05
14710.0 3.9777e-05
14730.0 4.0004e-05
14750.0 4.0303e-05
14770.0 4.0691e-05
14790.0 4.1161e-05
14810.0 4.1713e-05
14830.0 4.2402e-05
14850.0 4.3193e-05
14870.0 4.4061e-05
14890.0 4.5033e-05
14910.0 4.6105e-05
14930.0 4.7185e-05
14950.0 4.8243e-05
14970.0 4.9293e-05
14990.0 5.0236e-05
15010.0 5.1031e-05
15030.0 5.17e-05
15050.0 5.2243e-05
15070.0 5.2646e-05
15090.0 5.2965e-05
15110.0 5.3228e-05
15130.0 5.3454e-05
15150.0 5.3661e-05
15170.0 5.3862e-05
15190.0 5.4061e-05
15210.0 5.4262e-05
15230.0 5.4467e-05
15250.0 5.4675e-05
15270.0 5.4887e-05
15290.0 5.5104e-05
15310.0 5.5325e-05
15330.0 5.555e-05
15350.0 5.5779e-05
15370.0 5.6012e-05
15390.0 5.6248e-05
15410.0 5.6489e-05
15430.0 5.6733e-05
15450.0 5.6981e-05
15470.0 5.7232e-05
15490.0 5.7488e-05
15510.0 5.7746e-05
15530.0 5.8008e-05
15550.0 5.8274e-05
15570.0 5.8543e-05
15590.0 5.8815e-05
15610.0 5.909e-05
15630.0 5.9368e-05
15650.0 5.965e-05
15670.0 5.9934e-05
15690.0 6.0221e-05
15710.0 6.0512e-05
15730.0 6.0804e-05
15750.0 6.1099e-05
15770.0 6.1398e-05
15790.0 6.1698e-05
15810.0 6.2001e-05
15830.0 6.2306e-05
15850.0 6.2613e-05
15870.0 6.2923e-05
15890.0 6.3234e-05
15910.0 6.3547e-05
15930.0 6.3863e-05
15950.0 6.4179e-05
15970.0 6.4498e-05
15990.0 6.4818e-05
16010.0 6.514e-05
16030.0 6.5462e-05
16050.0 6.5787e-05
16070.0 6.6112e-05
16090.0 6.6438e-05
16110.0 6.6765e-05
16130.0 6.7093e-05
16150.0 6.7421e-05
16170.0 6.775e-05
16190.0 6.808e-05
16210.0 6.841e-05
16230.0 6.874e-05
16250.0 6.907e-05
16270.0 6.9401e-05
16290.0 6.973e-05
16310.0 7.006e-05
16330.0 7.039e-05
16350.0 7.0719e-05
16370.0 7.1046e-05
16390.0 7.1374e-05
16410.0 7.1701e-05
16430.0 7.2026e-05
16450.0 7.235e-05
16470.0 7.2674e-05
16490.0 7.2995e-05
16510.0 7.3315e-05
16530.0 7.3634e-05
16550.0 7.395e-05
16570.0 7.4265e-05
16590.0 7.4577e-05
16610.0 7.4888e-05
16630.0 7.5196e-05
16650.0 7.5502e-05
16670.0 7.5805e-05
16690.0 7.6106e-05
16710.0 7.6403e-05
16730.0 7.6698e-05
16750.0 7.699e-05
16770.0 7.7278e-05
16790.0 7.7563e-05
16810.0 7.7845e-05
16830.0 7.8123e-05
16850.0 7.8397e-05
16870.0 7.8668e-05
16890.0 7.8935e-05
16910.0 7.9197e-05
16930.0 7.9455e-05
16950.0 7.9709e-05
16970.0 7.9959e-05
16990.0 8.0204e-05
17010.0 8.0444e-05
17030.0 8.068e-05
17050.0 8.091e-05
17070.0 8.1136e-05
17090.0 8.1357e-05
17110.0 8.1572e-05
17130.0 8.1782e-05
17150.0 8.1987e-05
17170.0 8.2186e-05
17190.0 8.238e-05
17210.0 8.2568e-05
17230.0 8.275e-05
17250.0 8.2927e-05
17270.0 8.3097e-05
17290.0 8.3261e-05
17310.0 8.342e-05
17330.0 8.3572e-05
17350.0 8.3717e-05
17370.0 8.3857e-05
17390.0 8.399e-05
17410.0 8.4116e-05
17430.0 8.4237e-05
17450.0 8.435e-05
17470.0 8.4457e-05
17490.0 8.4557e-05
17510.0 8.4651e-05
17530.0 8.4737e-05
17550.0 8.4817e-05
17570.0 8.489e-05
17590.0 8.4956e-05
17610.0 8.5015e-05
17630.0 8.5067e-05
17650.0 8.5112e-05
17670.0 8.515e-05
17690.0 8.518e-05
17710.0 8.5204e-05
17730.0 8.5221e-05
17750.0 8.523e-05
17770.0 8.5233e-05
17790.0 8.5229e-05
17810.0 8.5217e-05
17830.0 8.5198e-05
17850.0 8.5172e-05
17870.0 8.5139e-05
17890.0 8.5098e-05
17910.0 8.5051e-05
17930.0 8.4997e-05
17950.0 8.4936e-05
17970.0 8.4867e-05
17990.0 8.4792e-05
18010.0 8.471e-05
18030.0 8.462e-05
18050.0 8.4524e-05
18070.0 8.4421e-05
18090.0 8.4311e-05
18110.0 8.4194e-05
18130.0 8.4071e-05
18150.0 8.3942e-05
18170.0 8.3805e-05
18190.0 8.3662e-05
18210.0 8.3512e-05
18230.0 8.3356e-05
18250.0 8.3193e-05
18270.0 8.3025e-05
18290.0 8.285e-05
18310.0 8.2669e-05
18330.0 8.2481e-05
18350.0 8.2289e-05
18370.0 8.2089e-05
18390.0 8.1884e-05
18410.0 8.1673e-05
18430.0 8.1457e-05
18450.0 8.1234e-05
18470.0 8.1006e-05
18490.0 8.0773e-05
18510.0 8.0535e-05
18530.0 8.0291e-05
18550.0 8.0042e-05
18570.0 7.9788e-05
18590.0 7.9528e-05
18610.0 7.9264e-05
18630.0 7.8996e-05
18650.0 7.8722e-05
18670.0 7.8444e-05
18690.0 7.8161e-05
18710.0 7.7874e-05
18730.0 7.7583e-05
18750.0 7.7287e-05
18770.0 7.6988e-05
18790.0 7.6684e-05
18810.0 7.6376e-05
18830.0 7.6065e-05
18850.0 7.575e-05
18870.0 7.5431e-05
18890.0 7.5109e-05
18910.0 7.4784e-05
18930.0 7.4455e-05
18950.0 7.4123e-05
18970.0 7.3788e-05
18990.0 7.345e-05
19010.0 7.3109e-05
19030.0 7.2766e-05
19050.0 7.242e-05
19070.0 7.2071e-05
19090.0 7.1719e-05
19110.0 7.1366e-05
19130.0 7.101e-05
19150.0 7.0652e-05
19170.0 7.0292e-05
19190.0 6.993e-05
19210.0 6.9566e-05
19230.0 6.9201e-05
19250.0 6.8834e-05
19270.0 6.8465e-05
19290.0 6.8095e-05
19310.0 6.7724e-05
19330.0 6.7351e-05
19350.0 6.6977e-05
19370.0 6.6602e-05
19390.0 6.6226e-05
19410.0 6.5849e-05
19430.0 6.5471e-05
19450.0 6.5093e-05
19470.0 6.4714e-05
19490.0 6.4335e-05
19510.0 6.3955e-05
19530.0 6.3575e-05
19550.0 6.3194e-05
19570.0 6.2813e-05
19590.0 6.2432e-05
19610.0 6.2051e-05
19630.0 6.1669e-05
19650.0 6.1289e-05
19670.0 6.0908e-05
19690.0 6.0527e-05
19710.0 6.0147e-05
19730.0 5.9767e-05
19750.0 5.9388e-05
19770.0 5.9009e-05
19790.0 5.863e-05
19810.0 5.8252e-05
19830.0 5.7874e-05
19850.0 5.7493e-05
19870.0 5.7109e-05
19890.0 5.6714e-05
19910.0 5.6298e-05
19930.0 5.5851e-05
19950.0 5.5357e-05
19970.0 5.4788e-05
19990.0 5.4132e-05
20010.0 5.3399e-05
20030.0 5.2561e-05
20050.0 5.1622e-05
20070.0 5.063e-05
20090.0 4.9596e-05
20110.0 4.8485e-05
20130.0 4.7386e-05
20150.0 4.6316e-05
20170.0 4.5239e-05
20190.0 4.4174e-05
20210.0 4.3168e-05
20230.0 4.2193e-05
20250.0 4.1227e-05
20270.0 4.0316e-05
20290.0 3.9462e-05
20310.0 3.8634e-05
20330.0 3.7836e-05
20350.0 3.712e-05
20370.0 3.6441e-05
20390.0 3.5795e-05
20410.0 3.5203e-05
20430.0 3.4664e-05
20450.0 3.4151e-05
20470.0 3.3681e-05
20490.0 3.3257e-05
20510.0 3.2866e-05
20530.0 3.2502e-05
20550.0 3.2172e-05
20570.0 3.1871e-05
20590.0 3.159e-05
20610.0 3.1328e-05
20630.0 3.1084e-05
20650.0 3.0853e-05
20670.0 3.0631e-05
20690.0 3.0417e-05
20710.0 3.0206e-05
20730.0 2.9995e-05
20750.0 2.9783e-05
20770.0 2.9568e-05
20790.0 2.9346e-05
20810.0 2.9116e-05
20830.0 2.8878e-05
20850.0 2.863e-05
20870.0 2.837e-05
20890.0 2.8098e-05
20910.0 2.782e-05
20930.0 2.7531e-05
20950.0 2.7229e-05
20970.0 2.6923e-05
20990.0 2.6613e-05
21010.0 2.629e-05
21030.0 2.5964e-05
21050.0 2.5641e-05
21070.0 2.5313e-05
21090.0 2.498e-05
21110.0 2.4655e-05
21130.0 2.4335e-05
21150.0 2.4012e-05
21170.0 2.3695e-05
21190.0 2.3389e-05
21210.0 2.3083e-05
21230.0 2.278e-05
21250.0 2.2491e-05
21270.0 2.2209e-05
21290.0 2.193e-05
21310.0 2.1661e-05
21330.0 2.1406e-05
21350.0 2.1156e-05
21370.0 2.0913e-05
21390.0 2.0683e-05
21410.0 2.0463e-05
21430.0 2.0247e-05
21450.0 2.0045e-05
21470.0 1.9854e-05
21490.0 1.967e-05
21510.0 1.9496e-05
21530.0 1.9332e-05
21550.0 1.9176e-05
21570.0 1.9027e-05
21590.0 1.8886e-05
21610.0 1.8751e-05
21630.0 1.8623e-05
21650.0 1.8499e-05
21670.0 1.8381e-05
21690.0 1.8266e-05
21710.0 1.8155e-05
21730.0 1.8047e-05
21750.0 1.7941e-05
21770.0 1.7838e-05
21790.0 1.7737e-05
21810.0 1.7637e-05
21830.0 1.7539e-05
21850.0 1.7442e-05
21870.0 1.7347e-05
21890.0 1.7252e-05
21910.0 1.7159e-05
21930.0 1.7066e-05
21950.0 1.6974e-05
21970.0 1.6882e-05
21990.0 1.679e-05
22010.0 1.6697e-05
22030.0 1.6604e-05
22050.0 1.6509e-05
22070.0 1.6413e-05
22090.0 1.6316e-05
22110.0 1.6216e-05
22130.0 1.6114e-05
22150.0 1.6011e-05
22170.0 1.5905e-05
22190.0 1.5796e-05
22210.0 1.5685e-05
22230.0 1.5572e-05
22250.0 1.5456e-05
22270.0 1.5337e-05
22290.0 1.5216e-05
22310.0 1.5093e-05
22330.0 1.4965e-05
22350.0 1.4833e-05
22370.0 1.47e-05
22390.0 1.456e-05
22410.0 1.4414e-05
22430.0 1.4266e-05
22450.0 1.4114e-05
22470.0 1.3952e-05
22490.0 1.3786e-05
22510.0 1.3618e-05
22530.0 1.3441e-05
22550.0 1.3255e-05
22570.0 1.307e-05
22590.0 1.2881e-05
22610.0 1.2685e-05
22630.0 1.2488e-05
22650.0 1.2296e-05
22670.0 1.2098e-05
22690.0 1.19e-05
