#lamb flux
1010.0 9.1173e-08
1030.0 1.0084e-07
1050.0 1.1195e-07
1070.0 1.2447e-07
1090.0 1.3868e-07
1110.0 1.5326e-07
1130.0 1.6793e-07
1150.0 1.833e-07
1170.0 1.9916e-07
1190.0 2.1419e-07
1210.0 2.2943e-07
1230.0 2.4518e-07
1250.0 2.606e-07
1270.0 2.7558e-07
1290.0 2.9141e-07
1310.0 3.0723e-07
1330.0 3.224e-07
1350.0 3.3774e-07
1370.0 3.5358e-07
1390.0 3.6903e-07
1410.0 3.8401e-07
1430.0 3.9968e-07
1450.0 4.1534e-07
1470.0 4.3048e-07
1490.0 4.4579e-07
1510.0 4.6195e-07
1530.0 4.7727e-07
1550.0 4.9239e-07
1570.0 5.0803e-07
1590.0 5.2369e-07
1610.0 5.3866e-07
1630.0 5.541e-07
1650.0 5.6995e-07
1670.0 5.8528e-07
1690.0 6.0044e-07
1710.0 6.1618e-07
1730.0 6.3203e-07
1750.0 6.4695e-07
1770.0 6.6232e-07
1790.0 6.7802e-07
1810.0 6.9323e-07
1830.0 7.0821e-07
1850.0 7.2412e-07
1870.0 7.3964e-07
1890.0 7.5468e-07
1910.0 7.7004e-07
1930.0 7.858e-07
1950.0 8.0088e-07
1970.0 8.1582e-07
1990.0 8.3135e-07
2010.0 8.4666e-07
2030.0 8.6145e-07
2050.0 8.7674e-07
2070.0 8.9244e-07
2090.0 9.0729e-07
2110.0 9.2212e-07
2130.0 9.3744e-07
2150.0 9.5249e-07
2170.0 9.6692e-07
2190.0 9.8192e-07
2210.0 9.9704e-07
2230.0 1.0116e-06
2250.0 1.0261e-06
2270.0 1.0412e-06
2290.0 1.0559e-06
2310.0 1.0701e-06
2330.0 1.0848e-06
2350.0 1.0999e-06
2370.0 1.1149e-06
2390.0 1.1312e-06
2410.0 1.1505e-06
2430.0 1.1727e-06
2450.0 1.1993e-06
2470.0 1.2333e-06
2490.0 1.2761e-06
2510.0 1.3248e-06
2530.0 1.3835e-06
2550.0 1.4569e-06
2570.0 1.5482e-06
2590.0 1.667e-06
2610.0 1.8448e-06
2630.0 2.0987e-06
2650.0 2.4307e-06
2670.0 2.86e-06
2690.0 3.3874e-06
2710.0 3.9505e-06
2730.0 4.5069e-06
2750.0 5.0549e-06
2770.0 5.5315e-06
2790.0 5.91e-06
2810.0 6.2104e-06
2830.0 6.4451e-06
2850.0 6.6053e-06
2870.0 6.7229e-06
2890.0 6.816e-06
2910.0 6.8903e-06
2930.0 6.951e-06
2950.0 7.009e-06
2970.0 7.0656e-06
2990.0 7.1188e-06
3010.0 0.00020122
3030.0 0.00020272
3050.0 0.00020417
3070.0 0.00020542
3090.0 0.00020649
3110.0 0.00020715
3130.0 0.00020713
3150.0 0.00020621
3170.0 0.000204
3190.0 0.00020053
3210.0 0.00019613
3230.0 0.0001911
3250.0 0.00018613
3270.0 0.0001825
3290.0 0.00018048
3310.0 0.00018081
3330.0 0.00018342
3350.0 0.00018798
3370.0 0.00019449
3390.0 0.00020269
3410.0 0.00021161
3430.0 0.00022163
3450.0 0.00023316
3470.0 0.00024576
3490.0 0.00025911
3510.0 0.00027419
3530.0 0.00029035
3550.0 0.0003067
3570.0 0.00032377
3590.0 0.00034232
3610.0 0.00036144
3630.0 0.00038051
3650.0 0.00040028
3670.0 0.00041834
3690.0 0.00043183
3710.0 0.00043957
3730.0 0.00043983
3750.0 0.00043371
3770.0 0.0004313
3790.0 0.00042874
3810.0 0.0004182
3830.0 0.00043114
3850.0 0.00048207
3870.0 0.00051003
3890.0 0.0005077
3910.0 0.00050986
3930.0 0.00052328
3950.0 0.00053155
3970.0 0.00048429
3990.0 0.00041671
4010.0 0.0012489
4030.0 0.0015132
4050.0 0.0017348
4070.0 0.0015053
4090.0 0.0013633
4110.0 0.001203
4130.0 0.0011072
4150.0 0.0011778
4170.0 0.0011602
4190.0 0.0012366
4210.0 0.0012253
4230.0 0.0012961
4250.0 0.0015333
4270.0 0.0015513
4290.0 0.0014295
4310.0 0.0014854
4330.0 0.00158
4350.0 0.0017716
4370.0 0.0020161
4390.0 0.0018918
4410.0 0.0013977
4430.0 0.0011833
4450.0 0.0010873
4470.0 0.00083453
4490.0 0.00090057
4510.0 0.0013603
4530.0 0.0015689
4550.0 0.0015825
4570.0 0.0017807
4590.0 0.0020284
4610.0 0.0027358
4630.0 0.0035533
4650.0 0.0038535
4670.0 0.0035687
4690.0 0.0034051
4710.0 0.0035995
4730.0 0.0033969
4750.0 0.0025396
4770.0 0.0018629
4790.0 0.0017396
4810.0 0.0016581
4830.0 0.001518
4850.0 0.0016657
4870.0 0.0022006
4890.0 0.0025951
4910.0 0.0022769
4930.0 0.0020147
4950.0 0.0022135
4970.0 0.0028386
4990.0 0.003847
5010.0 0.0044255
5030.0 0.0039022
5050.0 0.0026401
5070.0 0.0017399
5090.0 0.001403
5110.0 0.0014429
5130.0 0.0016653
5150.0 0.0018042
5170.0 0.0017771
5190.0 0.0016606
5210.0 0.0017357
5230.0 0.0018246
5250.0 0.0019664
5270.0 0.0021215
5290.0 0.002351
5310.0 0.0027365
5330.0 0.0030282
5350.0 0.0030088
5370.0 0.0031604
5390.0 0.0036265
5410.0 0.0036232
5430.0 0.0032041
5450.0 0.0029438
5470.0 0.0031257
5490.0 0.0038187
5510.0 0.0047746
5530.0 0.0054761
5550.0 0.0052926
5570.0 0.0048113
5590.0 0.0041834
5610.0 0.0038579
5630.0 0.0037409
5650.0 0.0035628
5670.0 0.003376
5690.0 0.003018
5710.0 0.0029426
5730.0 0.0027105
5750.0 0.001911
5770.0 0.0014909
5790.0 0.0016894
5810.0 0.0019076
5830.0 0.0023409
5850.0 0.0027865
5870.0 0.0030916
5890.0 0.003144
5910.0 0.0030844
5930.0 0.0029359
5950.0 0.0029916
5970.0 0.00341
5990.0 0.0032062
6010.0 0.0026877
6030.0 0.0022707
6050.0 0.0019775
6070.0 0.0019667
6090.0 0.0021326
6110.0 0.0023846
6130.0 0.0024211
6150.0 0.0020831
6170.0 0.0018325
6190.0 0.0020622
6210.0 0.0027262
6230.0 0.0035776
6250.0 0.0038751
6270.0 0.0033863
6290.0 0.0028491
6310.0 0.0022242
6330.0 0.0017041
6350.0 0.0015201
6370.0 0.0015985
6390.0 0.001848
6410.0 0.0022786
6430.0 0.0026608
6450.0 0.0030446
6470.0 0.0034862
6490.0 0.0042111
6510.0 0.0047085
6530.0 0.0046194
6550.0 0.0041772
6570.0 0.003546
6590.0 0.0031975
6610.0 0.0027571
6630.0 0.0024978
6650.0 0.0023612
6670.0 0.0022938
6690.0 0.0020726
6710.0 0.001884
6730.0 0.001357
6750.0 0.0013453
6770.0 0.0014623
6790.0 0.0016808
6810.0 0.001538
6830.0 0.0015837
6850.0 0.0014812
6870.0 0.0013531
6890.0 0.0012992
6910.0 0.0013845
6930.0 0.0012967
6950.0 0.0013341
6970.0 0.0014033
6990.0 0.0015928
7010.0 0.0016064
7030.0 0.0016319
7050.0 0.0015563
7070.0 0.0014829
7090.0 0.0014872
7110.0 0.0015302
7130.0 0.0016468
7150.0 0.001749
7170.0 0.0019299
7190.0 0.0021215
7210.0 0.0020847
7230.0 0.0021431
7250.0 0.0023031
7270.0 0.0025098
7290.0 0.0029788
7310.0 0.0032323
7330.0 0.0031243
7350.0 0.0028257
7370.0 0.0024586
7390.0 0.0023852
7410.0 0.0025347
7430.0 0.002817
7450.0 0.0030683
7470.0 0.0030401
7490.0 0.002772
7510.0 0.00314
7530.0 0.0031057
7550.0 0.0027915
7570.0 0.0021807
7590.0 0.0014991
7610.0 0.0012867
7630.0 0.001462
7650.0 0.0017286
7670.0 0.0021514
7690.0 0.0023675
7710.0 0.0024673
7730.0 0.0025928
7750.0 0.0029108
7770.0 0.0029566
7790.0 0.0027158
7810.0 0.002478
7830.0 0.0025554
7850.0 0.0024841
7870.0 0.0022776
7890.0 0.0019136
7910.0 0.0015555
7930.0 0.0014853
7950.0 0.0013532
7970.0 0.0012526
7990.0 0.0012455
8010.0 9.3255e-05
8030.0 9.1921e-05
8050.0 9.0796e-05
8070.0 9.2197e-05
8090.0 9.9369e-05
8110.0 9.7616e-05
8130.0 8.0016e-05
8150.0 7.8049e-05
8170.0 6.6817e-05
8190.0 6.3034e-05
8210.0 8.2583e-05
8230.0 9.2075e-05
8250.0 8.2254e-05
8270.0 7.1496e-05
8290.0 7.0209e-05
8310.0 5.4165e-05
8330.0 3.6472e-05
8350.0 2.5918e-05
8370.0 1.6118e-05
8390.0 2.9829e-05
8410.0 3.4741e-05
8430.0 4.2822e-05
8450.0 5.0266e-05
8470.0 6.2782e-05
8490.0 6.2162e-05
8510.0 6.0955e-05
8530.0 6.3242e-05
8550.0 8.6139e-05
8570.0 0.0001024
8590.0 0.00010976
8610.0 0.00013899
8630.0 0.00016723
8650.0 0.00017389
8670.0 0.00018529
8690.0 0.00018724
8710.0 0.00016942
8730.0 0.00015789
8750.0 0.00013912
8770.0 0.00013188
8790.0 0.00012977
8810.0 0.00012459
8830.0 9.9118e-05
8850.0 7.2176e-05
8870.0 5.5205e-05
8890.0 5.4507e-05
8910.0 6.2851e-05
8930.0 7.1767e-05
8950.0 7.3252e-05
8970.0 7.3504e-05
8990.0 6.5231e-05
9010.0 0.00067155
9030.0 0.00060812
9050.0 0.0006111
9070.0 0.00061597
9090.0 0.00062025
9110.0 0.00062552
9130.0 0.00062959
9150.0 0.00063275
9170.0 0.00063612
9190.0 0.00063971
9210.0 0.0006435
9230.0 0.00064749
9250.0 0.00065155
9270.0 0.00065576
9290.0 0.0006601
9310.0 0.00066446
9330.0 0.00066891
9350.0 0.00067353
9370.0 0.0006782
9390.0 0.00068291
9410.0 0.00068776
9430.0 0.00069276
9450.0 0.00069774
9470.0 0.00070282
9490.0 0.00070805
9510.0 0.00071334
9530.0 0.00071865
9550.0 0.00072415
9570.0 0.00072975
9590.0 0.00073536
9610.0 0.00074106
9630.0 0.00074692
9650.0 0.00075283
9670.0 0.00075875
9690.0 0.00076483
9710.0 0.000771
9730.0 0.00077719
9750.0 0.00078346
9770.0 0.00078993
9790.0 0.00079638
9810.0 0.00080287
9830.0 0.00080949
9850.0 0.0008162
9870.0 0.00082288
9890.0 0.00082967
9910.0 0.00083659
9930.0 0.00084351
9950.0 0.00085046
9970.0 0.00085755
9990.0 0.00086471
10010.0 0.00075037
10030.0 0.00075655
10050.0 0.00076287
10070.0 0.00076939
10090.0 0.00077555
10110.0 0.00078185
10130.0 0.00078819
10150.0 0.0007945
10170.0 0.00080088
10190.0 0.00080738
10210.0 0.0008138
10230.0 0.00082021
10250.0 0.00082672
10270.0 0.00083322
10290.0 0.00083963
10310.0 0.00084613
10330.0 0.0008527
10350.0 0.00085916
10370.0 0.00086559
10390.0 0.0008721
10410.0 0.00087858
10430.0 0.00088492
10450.0 0.00089134
10470.0 0.00089777
10490.0 0.00090409
10510.0 0.00091037
10530.0 0.00091675
10550.0 0.00092303
10570.0 0.00092917
10590.0 0.00093535
10610.0 0.00094152
10630.0 0.00094754
10650.0 0.00095351
10670.0 0.00095955
10690.0 0.00096546
10710.0 0.00097125
10730.0 0.00097705
10750.0 0.00098286
10770.0 0.00098843
10790.0 0.00099396
10810.0 0.00099948
10830.0 0.0010048
10850.0 0.0010099
10870.0 0.0010148
10890.0 0.0010192
10910.0 0.0010225
10930.0 0.0010244
10950.0 0.001024
10970.0 0.0010205
10990.0 0.0010137
11010.0 0.001001
11030.0 0.00098507
11050.0 0.00096566
11070.0 0.00094245
11090.0 0.00091457
11110.0 0.00088572
11130.0 0.00085564
11150.0 0.00082325
11170.0 0.00078986
11190.0 0.00075747
11210.0 0.00072402
11230.0 0.00068972
11250.0 0.00065694
11270.0 0.00062547
11290.0 0.00059394
11310.0 0.00056407
11330.0 0.00053776
11350.0 0.00051291
11370.0 0.00048995
11390.0 0.00047008
11410.0 0.0004527
11430.0 0.00043655
11450.0 0.00042264
11470.0 0.0004106
11490.0 0.00039941
11510.0 0.00038862
11530.0 0.00037861
11550.0 0.00036867
11570.0 0.00035806
11590.0 0.00034707
11610.0 0.00033589
11630.0 0.00032371
11650.0 0.00031068
11670.0 0.00029784
11690.0 0.00028482
11710.0 0.00027138
11730.0 0.00025836
11750.0 0.00024631
11770.0 0.0002345
11790.0 0.00022342
11810.0 0.00021367
11830.0 0.00020496
11850.0 0.00019692
11870.0 0.00019021
11890.0 0.00018462
11910.0 0.00017972
11930.0 0.0001755
11950.0 0.00017199
11970.0 0.00016885
11990.0 0.00016588
12010.0 0.00016314
12030.0 0.0001605
12050.0 0.00015776
12070.0 0.00015492
12090.0 0.00015218
12110.0 0.00014939
12130.0 0.00014661
12150.0 0.00014404
12170.0 0.00014179
12190.0 0.00013985
12210.0 0.0001385
12230.0 0.00013784
12250.0 0.00013795
12270.0 0.00013899
12290.0 0.00014095
12310.0 0.00014377
12330.0 0.00014772
12350.0 0.00015265
12370.0 0.00015825
12390.0 0.00016472
12410.0 0.00017229
12430.0 0.00017999
12450.0 0.00018797
12470.0 0.00019645
12490.0 0.00020496
12510.0 0.00021295
12530.0 0.0002209
12550.0 0.00022856
12570.0 0.00023533
12590.0 0.00024127
12610.0 0.00024657
12630.0 0.00025079
12650.0 0.0002537
12670.0 0.00025561
12690.0 0.00025638
12710.0 0.00025596
12730.0 0.00025447
12750.0 0.00025183
12770.0 0.00024819
12790.0 0.00024379
12810.0 0.00023853
12830.0 0.00023244
12850.0 0.00022608
12870.0 0.00021935
12890.0 0.00021207
12910.0 0.00020466
12930.0 0.00019737
12950.0 0.00018976
12970.0 0.00018201
12990.0 0.00017468
13010.0 0.00016743
13030.0 0.00016011
13050.0 0.00015308
13070.0 0.0001465
13090.0 0.00013988
13110.0 0.00013349
13130.0 0.00012759
13150.0 0.00012201
13170.0 0.00011654
13190.0 0.00011168
13210.0 0.0001074
13230.0 0.00010348
13250.0 0.00010011
13270.0 9.7453e-05
13290.0 9.5385e-05
13310.0 9.3961e-05
13330.0 9.3312e-05
13350.0 9.3387e-05
13370.0 9.4225e-05
13390.0 9.587e-05
13410.0 9.8094e-05
13430.0 0.00010098
13450.0 0.00010456
13470.0 0.00010852
13490.0 0.00011272
13510.0 0.00011745
13530.0 0.00012225
13550.0 0.00012685
13570.0 0.00013138
13590.0 0.00013579
13610.0 0.00013972
13630.0 0.00014315
13650.0 0.00014628
13670.0 0.00014888
13690.0 0.00015089
13710.0 0.00015244
13730.0 0.00015355
13750.0 0.00015411
13770.0 0.00015423
13790.0 0.00015395
13810.0 0.00015327
13830.0 0.00015227
13850.0 0.00015091
13870.0 0.00014919
13890.0 0.00014723
13910.0 0.00014502
13930.0 0.00014246
13950.0 0.00013966
13970.0 0.00013681
13990.0 0.00013369
14010.0 0.00013038
14030.0 0.00012708
14050.0 0.00012376
14070.0 0.00012025
14090.0 0.00011688
14110.0 0.00011372
14130.0 0.00011065
14150.0 0.00010777
14170.0 0.0001053
14190.0 0.00010317
14210.0 0.00010137
14230.0 0.00010003
14250.0 9.9166e-05
14270.0 9.8747e-05
14290.0 9.8836e-05
14310.0 9.9387e-05
14330.0 0.00010038
14350.0 0.00010183
14370.0 0.00010365
14390.0 0.00010571
14410.0 0.00010813
14430.0 0.0001108
14450.0 0.00011352
14470.0 0.00011634
14490.0 0.00011934
14510.0 0.00012221
14530.0 0.00012494
14550.0 0.00012766
14570.0 0.00013028
14590.0 0.00013266
14610.0 0.00013496
14630.0 0.00013724
14650.0 0.00013937
14670.0 0.00014142
14690.0 0.00014355
14710.0 0.0001458
14730.0 0.00014805
14750.0 0.00015054
14770.0 0.00015337
14790.0 0.00015643
14810.0 0.00015974
14830.0 0.00016368
14850.0 0.00016795
14870.0 0.0001724
14890.0 0.00017721
14910.0 0.00018232
14930.0 0.00018723
14950.0 0.00019182
14970.0 0.00019617
14990.0 0.00019981
15010.0 0.0002026
15030.0 0.00020466
15050.0 0.00020602
15070.0 0.00020669
15090.0 0.00020692
15110.0 0.00020686
15130.0 0.0002066
15150.0 0.00020625
15170.0 0.00020583
15190.0 0.00020539
15210.0 0.00020495
15230.0 0.00020452
15250.0 0.00020407
15270.0 0.00020362
15290.0 0.0002032
15310.0 0.00020276
15330.0 0.00020232
15350.0 0.0002019
15370.0 0.00020149
15390.0 0.00020105
15410.0 0.00020062
15430.0 0.00020021
15450.0 0.00019979
15470.0 0.00019936
15490.0 0.00019895
15510.0 0.00019855
15530.0 0.00019813
15550.0 0.00019772
15570.0 0.00019732
15590.0 0.00019691
15610.0 0.00019649
15630.0 0.0001961
15650.0 0.0001957
15670.0 0.00019529
15690.0 0.00019489
15710.0 0.0001945
15730.0 0.0001941
15750.0 0.0001937
15770.0 0.00019331
15790.0 0.00019292
15810.0 0.00019251
15830.0 0.00019212
15850.0 0.00019174
15870.0 0.00019135
15890.0 0.00019095
15910.0 0.00019057
15930.0 0.00019019
15950.0 0.00018979
15970.0 0.0001894
15990.0 0.00018902
16010.0 0.00018863
16030.0 0.00018823
16050.0 0.00018786
16070.0 0.00018748
16090.0 0.00018708
16110.0 0.0001867
16130.0 0.00018633
16150.0 0.00018593
16170.0 0.00018554
16190.0 0.00018517
16210.0 0.00018478
16230.0 0.00018439
16250.0 0.00018401
16270.0 0.00018363
16290.0 0.00018324
16310.0 0.00018285
16330.0 0.00018248
16350.0 0.00018209
16370.0 0.00018169
16390.0 0.00018131
16410.0 0.00018093
16430.0 0.00018054
16450.0 0.00018015
16470.0 0.00017978
16490.0 0.00017938
16510.0 0.00017898
16530.0 0.0001786
16550.0 0.00017822
16570.0 0.00017782
16590.0 0.00017742
16610.0 0.00017704
16630.0 0.00017665
16650.0 0.00017625
16670.0 0.00017586
16690.0 0.00017548
16710.0 0.00017506
16730.0 0.00017467
16750.0 0.00017428
16770.0 0.00017388
16790.0 0.00017347
16810.0 0.00017308
16830.0 0.00017269
16850.0 0.00017228
16870.0 0.00017188
16890.0 0.00017149
16910.0 0.00017107
16930.0 0.00017066
16950.0 0.00017026
16970.0 0.00016986
16990.0 0.00016944
17010.0 0.00016903
17030.0 0.00016864
17050.0 0.00016822
17070.0 0.0001678
17090.0 0.0001674
17110.0 0.00016699
17130.0 0.00016655
17150.0 0.00016614
17170.0 0.00016573
17190.0 0.00016531
17210.0 0.00016489
17230.0 0.00016448
17250.0 0.00016406
17270.0 0.00016362
17290.0 0.0001632
17310.0 0.00016279
17330.0 0.00016235
17350.0 0.00016192
17370.0 0.0001615
17390.0 0.00016108
17410.0 0.00016064
17430.0 0.00016021
17450.0 0.00015979
17470.0 0.00015934
17490.0 0.0001589
17510.0 0.00015848
17530.0 0.00015804
17550.0 0.00015759
17570.0 0.00015716
17590.0 0.00015673
17610.0 0.00015628
17630.0 0.00015584
17650.0 0.00015541
17670.0 0.00015496
17690.0 0.0001545
17710.0 0.00015406
17730.0 0.00015362
17750.0 0.00015317
17770.0 0.00015272
17790.0 0.00015228
17810.0 0.00015183
17830.0 0.00015137
17850.0 0.00015092
17870.0 0.00015047
17890.0 0.00015001
17910.0 0.00014955
17930.0 0.00014911
17950.0 0.00014865
17970.0 0.00014818
17990.0 0.00014773
18010.0 0.00014728
18030.0 0.0001468
18050.0 0.00014634
18070.0 0.00014589
18090.0 0.00014543
18110.0 0.00014495
18130.0 0.0001445
18150.0 0.00014404
18170.0 0.00014357
18190.0 0.0001431
18210.0 0.00014265
18230.0 0.00014217
18250.0 0.00014169
18270.0 0.00014123
18290.0 0.00014077
18310.0 0.00014029
18330.0 0.00013982
18350.0 0.00013936
18370.0 0.00013888
18390.0 0.00013841
18410.0 0.00013794
18430.0 0.00013747
18450.0 0.00013698
18470.0 0.00013651
18490.0 0.00013605
18510.0 0.00013557
18530.0 0.00013509
18550.0 0.00013463
18570.0 0.00013415
18590.0 0.00013366
18610.0 0.00013319
18630.0 0.00013272
18650.0 0.00013223
18670.0 0.00013174
18690.0 0.00013128
18710.0 0.0001308
18730.0 0.00013032
18750.0 0.00012984
18770.0 0.00012937
18790.0 0.00012888
18810.0 0.00012839
18830.0 0.00012792
18850.0 0.00012744
18870.0 0.00012695
18890.0 0.00012648
18910.0 0.00012601
18930.0 0.00012552
18950.0 0.00012503
18970.0 0.00012456
18990.0 0.00012408
19010.0 0.00012358
19030.0 0.00012311
19050.0 0.00012263
19070.0 0.00012214
19090.0 0.00012166
19110.0 0.00012119
19130.0 0.00012071
19150.0 0.00012021
19170.0 0.00011974
19190.0 0.00011926
19210.0 0.00011877
19230.0 0.00011828
19250.0 0.00011781
19270.0 0.00011733
19290.0 0.00011684
19310.0 0.00011637
19330.0 0.00011589
19350.0 0.00011539
19370.0 0.00011491
19390.0 0.00011444
19410.0 0.00011396
19430.0 0.00011347
19450.0 0.000113
19470.0 0.00011252
19490.0 0.00011203
19510.0 0.00011155
19530.0 0.00011108
19550.0 0.00011059
19570.0 0.0001101
19590.0 0.00010963
19610.0 0.00010916
19630.0 0.00010867
19650.0 0.00010819
19670.0 0.00010773
19690.0 0.00010724
19710.0 0.00010675
19730.0 0.00010628
19750.0 0.00010581
19770.0 0.00010531
19790.0 0.00010484
19810.0 0.00010437
19830.0 0.00010389
19850.0 0.0001034
19870.0 0.00010292
19890.0 0.00010241
19910.0 0.00010184
19930.0 0.00010124
19950.0 0.00010055
19970.0 9.9695e-05
19990.0 9.867e-05
20010.0 8.7786e-05
20030.0 8.6516e-05
20050.0 8.5029e-05
20070.0 8.3418e-05
20090.0 8.1684e-05
20110.0 7.9724e-05
20130.0 7.7739e-05
20150.0 7.5773e-05
20170.0 7.3733e-05
20190.0 7.1665e-05
20210.0 6.9711e-05
20230.0 6.7806e-05
20250.0 6.5896e-05
20270.0 6.4124e-05
20290.0 6.2506e-05
20310.0 6.0968e-05
20330.0 5.9531e-05
20350.0 5.8338e-05
20370.0 5.728e-05
20390.0 5.6351e-05
20410.0 5.5601e-05
20430.0 5.5023e-05
20450.0 5.4565e-05
20470.0 5.4258e-05
20490.0 5.4094e-05
20510.0 5.4046e-05
20530.0 5.4113e-05
20550.0 5.428e-05
20570.0 5.4523e-05
20590.0 5.4852e-05
20610.0 5.5251e-05
20630.0 5.569e-05
20650.0 5.6181e-05
20670.0 5.6742e-05
20690.0 5.7314e-05
20710.0 5.7906e-05
20730.0 5.8544e-05
20750.0 5.921e-05
20770.0 5.9865e-05
20790.0 6.0553e-05
20810.0 6.1281e-05
20830.0 6.2005e-05
20850.0 6.2733e-05
20870.0 6.3512e-05
20890.0 6.4306e-05
20910.0 6.5072e-05
20930.0 6.5867e-05
20950.0 6.669e-05
20970.0 6.7493e-05
20990.0 6.8286e-05
21010.0 6.9119e-05
21030.0 6.9933e-05
21050.0 7.0711e-05
21070.0 7.1486e-05
21090.0 7.2265e-05
21110.0 7.2975e-05
21130.0 7.3642e-05
21150.0 7.4288e-05
21170.0 7.4873e-05
21190.0 7.5376e-05
21210.0 7.5829e-05
21230.0 7.6206e-05
21250.0 7.6474e-05
21270.0 7.6644e-05
21290.0 7.6708e-05
21310.0 7.6647e-05
21330.0 7.6466e-05
21350.0 7.6148e-05
21370.0 7.5682e-05
21390.0 7.509e-05
21410.0 7.4364e-05
21430.0 7.3445e-05
21450.0 7.2413e-05
21470.0 7.129e-05
21490.0 7.0019e-05
21510.0 6.8625e-05
21530.0 6.7209e-05
21550.0 6.5725e-05
21570.0 6.4143e-05
21590.0 6.2587e-05
21610.0 6.1083e-05
21630.0 5.9578e-05
21650.0 5.8107e-05
21670.0 5.6832e-05
21690.0 5.5657e-05
21710.0 5.4598e-05
21730.0 5.3731e-05
21750.0 5.3062e-05
21770.0 5.2552e-05
21790.0 5.2259e-05
21810.0 5.2178e-05
21830.0 5.2293e-05
21850.0 5.262e-05
21870.0 5.313e-05
21890.0 5.3789e-05
21910.0 5.4633e-05
21930.0 5.5624e-05
21950.0 5.6697e-05
21970.0 5.7886e-05
21990.0 5.922e-05
22010.0 6.0554e-05
22030.0 6.1908e-05
22050.0 6.3331e-05
22070.0 6.4761e-05
22090.0 6.6115e-05
22110.0 6.7481e-05
22130.0 6.8844e-05
22150.0 7.0117e-05
22170.0 7.1317e-05
22190.0 7.2506e-05
22210.0 7.3613e-05
22230.0 7.4587e-05
22250.0 7.5504e-05
22270.0 7.6349e-05
22290.0 7.7071e-05
22310.0 7.769e-05
22330.0 7.8236e-05
22350.0 7.8657e-05
22370.0 7.8955e-05
22390.0 7.9141e-05
22410.0 7.92e-05
22430.0 7.9124e-05
22450.0 7.892e-05
22470.0 7.8568e-05
22490.0 7.8073e-05
22510.0 7.7457e-05
22530.0 7.6668e-05
22550.0 7.5708e-05
22570.0 7.4644e-05
22590.0 7.3443e-05
22610.0 7.2062e-05
22630.0 7.0567e-05
22650.0 6.9022e-05
22670.0 6.7313e-05
22690.0 6.5489e-05
22710.0 6.3649e-05
22730.0 6.1752e-05
22750.0 5.9696e-05
22770.0 5.7687e-05
22790.0 5.5725e-05
22810.0 5.3711e-05
22830.0 5.1702e-05
