#lamb flux
1010.0 2.9114e-06
1030.0 3.0996e-06
1050.0 3.317e-06
1070.0 3.5621e-06
1090.0 3.8405e-06
1110.0 4.1268e-06
1130.0 4.4158e-06
1150.0 4.7192e-06
1170.0 5.0332e-06
1190.0 5.3321e-06
1210.0 5.6363e-06
1230.0 5.9516e-06
1250.0 6.2622e-06
1270.0 6.5654e-06
1290.0 6.8868e-06
1310.0 7.2096e-06
1330.0 7.5214e-06
1350.0 7.8383e-06
1370.0 8.167e-06
1390.0 8.4898e-06
1410.0 8.8054e-06
1430.0 9.1367e-06
1450.0 9.47e-06
1470.0 9.7948e-06
1490.0 1.0125e-05
1510.0 1.0474e-05
1530.0 1.0808e-05
1550.0 1.1139e-05
1570.0 1.1483e-05
1590.0 1.1828e-05
1610.0 1.2159e-05
1630.0 1.25e-05
1650.0 1.285e-05
1670.0 1.3189e-05
1690.0 1.3523e-05
1710.0 1.3868e-05
1730.0 1.4213e-05
1750.0 1.4536e-05
1770.0 1.4865e-05
1790.0 1.5197e-05
1810.0 1.5515e-05
1830.0 1.5822e-05
1850.0 1.6144e-05
1870.0 1.6451e-05
1890.0 1.6742e-05
1910.0 1.7032e-05
1930.0 1.7323e-05
1950.0 1.7592e-05
1970.0 1.7849e-05
1990.0 1.8111e-05
2010.0 1.836e-05
2030.0 1.859e-05
2050.0 1.8822e-05
2070.0 1.9054e-05
2090.0 1.9261e-05
2110.0 1.9461e-05
2130.0 1.9663e-05
2150.0 1.9855e-05
2170.0 2.0028e-05
2190.0 2.0209e-05
2210.0 2.0388e-05
2230.0 2.0553e-05
2250.0 2.0715e-05
2270.0 2.089e-05
2290.0 2.1055e-05
2310.0 2.121e-05
2330.0 2.1376e-05
2350.0 2.1548e-05
2370.0 2.1712e-05
2390.0 2.1884e-05
2410.0 2.2074e-05
2430.0 2.2263e-05
2450.0 2.2455e-05
2470.0 2.2667e-05
2490.0 2.2908e-05
2510.0 2.3182e-05
2530.0 2.3569e-05
2550.0 2.4197e-05
2570.0 2.5208e-05
2590.0 2.6776e-05
2610.0 2.9328e-05
2630.0 3.3005e-05
2650.0 3.7648e-05
2670.0 4.3333e-05
2690.0 4.9897e-05
2710.0 5.6505e-05
2730.0 6.2743e-05
2750.0 6.8714e-05
2770.0 7.3924e-05
2790.0 7.8293e-05
2810.0 8.2198e-05
2830.0 8.5934e-05
2850.0 8.9341e-05
2870.0 9.2732e-05
2890.0 9.6325e-05
2910.0 0.00010005
2930.0 0.0001038
2950.0 0.00010781
2970.0 0.00011206
2990.0 0.00011635
3010.0 0.00041169
3030.0 0.00042741
3050.0 0.00044305
3070.0 0.00045716
3090.0 0.00046911
3110.0 0.00047562
3130.0 0.00047281
3150.0 0.00045647
3170.0 0.00041818
3190.0 0.00035721
3210.0 0.00027471
3230.0 0.00018212
3250.0 0.0002792
3270.0 0.00017461
3290.0 0.00040192
3310.0 0.00015844
3330.0 0.00015685
3350.0 0.00018785
3370.0 0.00022493
3390.0 0.00026547
3410.0 0.0003061
3430.0 0.00034891
3450.0 0.00039213
3470.0 0.000432
3490.0 0.00045991
3510.0 0.00055226
3530.0 0.00071514
3550.0 0.00069664
3570.0 0.00057445
3590.0 0.00077759
3610.0 0.00050325
3630.0 0.00081952
3650.0 0.00095458
3670.0 0.0012138
3690.0 0.001127
3710.0 0.00075464
3730.0 0.00097396
3750.0 0.00099729
3770.0 0.0010703
3790.0 0.0010386
3810.0 0.0010692
3830.0 0.0016805
3850.0 0.0020628
3870.0 0.0025437
3890.0 0.0024721
3910.0 0.0022094
3930.0 0.0022379
3950.0 0.0024173
3970.0 0.0026653
3990.0 0.001709
4010.0 0.00092511
4030.0 0.0016451
4050.0 0.002176
4070.0 0.0023279
4090.0 0.0016283
4110.0 0.0010306
4130.0 0.0016951
4150.0 0.0017306
4170.0 0.0016109
4190.0 0.0014617
4210.0 0.0020689
4230.0 0.0015242
4250.0 0.0016514
4270.0 0.0016406
4290.0 0.0015543
4310.0 0.0019925
4330.0 0.0021531
4350.0 0.0017939
4370.0 0.0015144
4390.0 0.0018457
4410.0 0.0018903
4430.0 0.0013899
4450.0 0.0012611
4470.0 0.0015585
4490.0 0.0011924
4510.0 0.0016644
4530.0 0.0017299
4550.0 0.0020529
4570.0 0.0028941
4590.0 0.0028621
4610.0 0.0022693
4630.0 0.0036216
4650.0 0.0048263
4670.0 0.0046026
4690.0 0.0032547
4710.0 0.0034514
4730.0 0.0039095
4750.0 0.0032206
4770.0 0.0024621
4790.0 0.0016617
4810.0 0.0022681
4830.0 0.0026713
4850.0 0.002348
4870.0 0.00098706
4890.0 0.0026644
4910.0 0.0034932
4930.0 0.0037966
4950.0 0.0039121
4970.0 0.002748
4990.0 0.0031979
5010.0 0.0037144
5030.0 0.0039814
5050.0 0.0037168
5070.0 0.0026283
5090.0 0.0021324
5110.0 0.0020615
5130.0 0.0019587
5150.0 0.0020402
5170.0 0.0018205
5190.0 0.0021705
5210.0 0.0022051
5230.0 0.002445
5250.0 0.0029062
5270.0 0.002412
5290.0 0.0025109
5310.0 0.0036944
5330.0 0.0042513
5350.0 0.0035717
5370.0 0.0032147
5390.0 0.0037338
5410.0 0.0044603
5430.0 0.0047565
5450.0 0.0050087
5470.0 0.0050477
5490.0 0.0052037
5510.0 0.0062353
5530.0 0.0064838
5550.0 0.0068535
5570.0 0.0072036
5590.0 0.0070877
5610.0 0.006643
5630.0 0.0064924
5650.0 0.0067219
5670.0 0.0065749
5690.0 0.0056352
5710.0 0.0055804
5730.0 0.0055951
5750.0 0.0058245
5770.0 0.0050221
5790.0 0.0047963
5810.0 0.0049193
5830.0 0.0053152
5850.0 0.0049543
5870.0 0.0049839
5890.0 0.0058188
5910.0 0.0054351
5930.0 0.0044937
5950.0 0.0040641
5970.0 0.0044345
5990.0 0.0040314
6010.0 0.0036874
6030.0 0.003616
6050.0 0.0033119
6070.0 0.0025662
6090.0 0.0024405
6110.0 0.0031309
6130.0 0.0035135
6150.0 0.0036291
6170.0 0.0035294
6190.0 0.0033662
6210.0 0.0035099
6230.0 0.0042593
6250.0 0.0039357
6270.0 0.0035386
6290.0 0.0032166
6310.0 0.0029134
6330.0 0.0027026
6350.0 0.0024155
6370.0 0.0024483
6390.0 0.0028488
6410.0 0.0035373
6430.0 0.0041812
6450.0 0.0041973
6470.0 0.0042441
6490.0 0.0051833
6510.0 0.0059509
6530.0 0.0056549
6550.0 0.0053655
6570.0 0.0054429
6590.0 0.0053645
6610.0 0.005678
6630.0 0.0052948
6650.0 0.0046003
6670.0 0.0042437
6690.0 0.004207
6710.0 0.0049797
6730.0 0.0044339
6750.0 0.003647
6770.0 0.0032921
6790.0 0.0034976
6810.0 0.0040166
6830.0 0.0039979
6850.0 0.0035856
6870.0 0.0037137
6890.0 0.0036909
6910.0 0.0034687
6930.0 0.0038511
6950.0 0.0035824
6970.0 0.0033372
6990.0 0.0033268
7010.0 0.0033512
7030.0 0.0032551
7050.0 0.0031168
7070.0 0.003343
7090.0 0.0031136
7110.0 0.00264
7130.0 0.0022676
7150.0 0.0022268
7170.0 0.0028116
7190.0 0.0029808
7210.0 0.0028263
7230.0 0.0029724
7250.0 0.002887
7270.0 0.0028161
7290.0 0.0030507
7310.0 0.0033442
7330.0 0.0032583
7350.0 0.0030229
7370.0 0.0027964
7390.0 0.0028048
7410.0 0.0032226
7430.0 0.0036285
7450.0 0.0038633
7470.0 0.0039186
7490.0 0.004359
7510.0 0.0043065
7530.0 0.003898
7550.0 0.0036887
7570.0 0.0031866
7590.0 0.0030328
7610.0 0.0029283
7630.0 0.0026965
7650.0 0.0028958
7670.0 0.003207
7690.0 0.0034901
7710.0 0.0039809
7730.0 0.004174
7750.0 0.0043352
7770.0 0.0045047
7790.0 0.0048846
7810.0 0.0049189
7830.0 0.0044128
7850.0 0.0044292
7870.0 0.0042633
7890.0 0.0043635
7910.0 0.0041083
7930.0 0.0040769
7950.0 0.0034222
7970.0 0.0034321
7990.0 0.0033155
8010.0 0.0036008
8030.0 0.003584
8050.0 0.0038052
8070.0 0.0036488
8090.0 0.0036619
8110.0 0.003603
8130.0 0.0035597
8150.0 0.0033402
8170.0 0.0032745
8190.0 0.0032635
8210.0 0.0032927
8230.0 0.0028778
8250.0 0.0026291
8270.0 0.0023217
8290.0 0.0019724
8310.0 0.0017361
8330.0 0.001374
8350.0 0.0011116
8370.0 0.0010723
8390.0 0.0010388
8410.0 0.0010862
8430.0 0.0013961
8450.0 0.0015192
8470.0 0.0016337
8490.0 0.0019103
8510.0 0.0020771
8530.0 0.00236
8550.0 0.0027894
8570.0 0.0030614
8590.0 0.0032171
8610.0 0.0035702
8630.0 0.0040582
8650.0 0.0041596
8670.0 0.0042428
8690.0 0.0043991
8710.0 0.00431
8730.0 0.0041705
8750.0 0.0038397
8770.0 0.0038376
8790.0 0.0037799
8810.0 0.0034731
8830.0 0.0034744
8850.0 0.0031792
8870.0 0.0030288
8890.0 0.0027112
8910.0 0.0030196
8930.0 0.002729
8950.0 0.0027337
8970.0 0.0027891
8990.0 0.0027063
9010.0 0.0027783
9030.0 0.0026374
9050.0 0.0026246
9070.0 0.0026257
9090.0 0.0026263
9110.0 0.0026287
9130.0 0.0026286
9150.0 0.0026271
9170.0 0.0026185
9190.0 0.0025993
9210.0 0.0026404
9230.0 0.0026288
9250.0 0.0026221
9270.0 0.0026164
9290.0 0.0026113
9310.0 0.0026066
9330.0 0.0026021
9350.0 0.0025975
9370.0 0.0025928
9390.0 0.0025878
9410.0 0.0025827
9430.0 0.0025774
9450.0 0.0025719
9470.0 0.0025661
9490.0 0.0025603
9510.0 0.0025543
9530.0 0.0025481
9550.0 0.0025419
9570.0 0.0025356
9590.0 0.0025291
9610.0 0.0025226
9630.0 0.0025161
9650.0 0.0025096
9670.0 0.0025029
9690.0 0.0024963
9710.0 0.0024897
9730.0 0.002483
9750.0 0.0024764
9770.0 0.0024701
9790.0 0.0024636
9810.0 0.0024571
9830.0 0.0024508
9850.0 0.0024446
9870.0 0.0024383
9890.0 0.0024322
9910.0 0.0024263
9930.0 0.0024204
9950.0 0.0024108
9970.0 0.0024064
9990.0 0.002402
10010.0 0.0023973
10030.0 0.0023925
10050.0 0.0023869
10070.0 0.0023767
10090.0 0.0023739
10110.0 0.002371
10130.0 0.0023678
10150.0 0.0023644
10170.0 0.0023607
10190.0 0.0023569
10210.0 0.0023533
10230.0 0.0023499
10250.0 0.0023465
10270.0 0.0023433
10290.0 0.0023403
10310.0 0.0023374
10330.0 0.0023346
10350.0 0.0023321
10370.0 0.0023298
10390.0 0.0023275
10410.0 0.0023255
10430.0 0.0023237
10450.0 0.002322
10470.0 0.0023204
10490.0 0.0023191
10510.0 0.0023179
10530.0 0.0023167
10550.0 0.0023158
10570.0 0.0023151
10590.0 0.0023145
10610.0 0.002314
10630.0 0.0023138
10650.0 0.0023136
10670.0 0.0023135
10690.0 0.0023136
10710.0 0.0023139
10730.0 0.0023142
10750.0 0.0023146
10770.0 0.0023153
10790.0 0.0023161
10810.0 0.0023169
10830.0 0.0023177
10850.0 0.0023186
10870.0 0.0023189
10890.0 0.0023184
10910.0 0.0023164
10930.0 0.0023118
10950.0 0.0023025
10970.0 0.0022877
10990.0 0.0022667
11010.0 0.002306
11030.0 0.0022658
11050.0 0.0022185
11070.0 0.0021638
11090.0 0.0021003
11110.0 0.002037
11130.0 0.0019737
11150.0 0.0019088
11170.0 0.0018458
11190.0 0.0017885
11210.0 0.0017331
11230.0 0.0016805
11250.0 0.0016339
11270.0 0.0015923
11290.0 0.0015534
11310.0 0.0015187
11330.0 0.0014896
11350.0 0.0014626
11370.0 0.0014375
11390.0 0.0014149
11410.0 0.0013937
11430.0 0.0013716
11450.0 0.0013498
11470.0 0.001328
11490.0 0.0013047
11510.0 0.0012794
11530.0 0.0012539
11550.0 0.0012275
11570.0 0.0011989
11590.0 0.0011696
11610.0 0.0011406
11630.0 0.0011101
11650.0 0.0010785
11670.0 0.0010486
11690.0 0.001019
11710.0 0.00098894
11730.0 0.00095999
11750.0 0.00093308
11770.0 0.00090608
11790.0 0.00087983
11810.0 0.00085557
11830.0 0.00083242
11850.0 0.00080911
11870.0 0.00078756
11890.0 0.00076763
11910.0 0.00074784
11930.0 0.00072854
11950.0 0.00071064
11970.0 0.00069308
11990.0 0.00067522
12010.0 0.0006583
12030.0 0.0006422
12050.0 0.00062604
12070.0 0.00061006
12090.0 0.00059578
12110.0 0.00058203
12130.0 0.00056884
12150.0 0.00055718
12170.0 0.0005472
12190.0 0.00053822
12210.0 0.00053128
12230.0 0.00052671
12250.0 0.00052429
12270.0 0.0005243
12290.0 0.00052693
12310.0 0.00053194
12330.0 0.00053962
12350.0 0.00054972
12370.0 0.00056159
12390.0 0.00057535
12410.0 0.00059132
12430.0 0.00060751
12450.0 0.00062403
12470.0 0.00064115
12490.0 0.00065791
12510.0 0.00067331
12530.0 0.00068815
12550.0 0.00070201
12570.0 0.00071402
12590.0 0.00072443
12610.0 0.00073358
12630.0 0.00074103
12650.0 0.00074666
12670.0 0.00075101
12690.0 0.000754
12710.0 0.0007557
12730.0 0.00075632
12750.0 0.0007558
12770.0 0.00075435
12790.0 0.00075214
12810.0 0.00074903
12830.0 0.00074495
12850.0 0.00074035
12870.0 0.00073503
12890.0 0.00072861
12910.0 0.00072142
12930.0 0.00071367
12950.0 0.00070463
12970.0 0.00069437
12990.0 0.00068377
13010.0 0.00067231
13030.0 0.00065962
13050.0 0.00064648
13070.0 0.00063342
13090.0 0.00061947
13110.0 0.00060529
13130.0 0.00059182
13150.0 0.00057873
13170.0 0.00056562
13190.0 0.00055398
13210.0 0.00054384
13230.0 0.00053466
13250.0 0.00052691
13270.0 0.00052103
13290.0 0.00051655
13310.0 0.00051341
13330.0 0.0005118
13350.0 0.00051137
13370.0 0.00051182
13390.0 0.00051294
13410.0 0.00051436
13430.0 0.0005158
13450.0 0.00051699
13470.0 0.00051764
13490.0 0.00051762
13510.0 0.00051668
13530.0 0.00051481
13550.0 0.00051215
13570.0 0.00050866
13590.0 0.00050433
13610.0 0.00049962
13630.0 0.00049473
13650.0 0.00048944
13670.0 0.00048419
13690.0 0.00047928
13710.0 0.00047453
13730.0 0.00046988
13750.0 0.00046587
13770.0 0.00046221
13790.0 0.00045872
13810.0 0.00045547
13830.0 0.00045248
13850.0 0.00044944
13870.0 0.00044628
13890.0 0.0004431
13910.0 0.00043978
13930.0 0.00043613
13950.0 0.00043227
13970.0 0.00042844
13990.0 0.00042439
14010.0 0.00042024
14030.0 0.00041627
14050.0 0.00041246
14070.0 0.00040869
14090.0 0.00040533
14110.0 0.0004024
14130.0 0.00039981
14150.0 0.00039762
14170.0 0.00039594
14190.0 0.00039466
14210.0 0.0003938
14230.0 0.00039337
14250.0 0.00039332
14270.0 0.0003937
14290.0 0.00039455
14310.0 0.0003957
14330.0 0.00039724
14350.0 0.00039922
14370.0 0.00040149
14390.0 0.0004039
14410.0 0.00040668
14430.0 0.00040964
14450.0 0.00041255
14470.0 0.00041551
14490.0 0.00041866
14510.0 0.00042161
14530.0 0.00042442
14550.0 0.00042735
14570.0 0.00043034
14590.0 0.00043328
14610.0 0.00043649
14630.0 0.00044021
14650.0 0.00044419
14670.0 0.00044858
14690.0 0.00045379
14710.0 0.00045981
14730.0 0.00046611
14750.0 0.00047328
14770.0 0.0004814
14790.0 0.00048992
14810.0 0.00049872
14830.0 0.00050862
14850.0 0.0005186
14870.0 0.0005282
14890.0 0.0005378
14910.0 0.00054722
14930.0 0.00055546
14950.0 0.00056246
14970.0 0.00056848
14990.0 0.00057282
15010.0 0.00057541
15030.0 0.00057659
15050.0 0.00057648
15070.0 0.00057522
15090.0 0.00057325
15110.0 0.00057077
15130.0 0.000568
15150.0 0.00056512
15170.0 0.00056212
15190.0 0.00055907
15210.0 0.00055605
15230.0 0.00055303
15250.0 0.00054997
15270.0 0.00054692
15290.0 0.00054394
15310.0 0.00054093
15330.0 0.0005379
15350.0 0.00053493
15370.0 0.00053197
15390.0 0.00052895
15410.0 0.00052598
15430.0 0.00052305
15450.0 0.00052009
15470.0 0.00051713
15490.0 0.00051423
15510.0 0.00051134
15530.0 0.00050842
15550.0 0.00050553
15570.0 0.00050269
15590.0 0.00049981
15610.0 0.00049692
15630.0 0.00049411
15650.0 0.00049131
15670.0 0.00048847
15690.0 0.00048568
15710.0 0.00048294
15730.0 0.00048016
15750.0 0.00047739
15770.0 0.00047468
15790.0 0.00047198
15810.0 0.00046923
15830.0 0.00046654
15850.0 0.0004639
15870.0 0.00046123
15890.0 0.00045858
15910.0 0.00045599
15930.0 0.00045338
15950.0 0.00045076
15970.0 0.00044818
15990.0 0.00044565
16010.0 0.00044308
16030.0 0.00044053
16050.0 0.00043805
16070.0 0.00043556
16090.0 0.00043306
16110.0 0.00043061
16130.0 0.0004282
16150.0 0.00042573
16170.0 0.00042329
16190.0 0.00042092
16210.0 0.00041854
16230.0 0.00041615
16250.0 0.00041381
16270.0 0.00041151
16290.0 0.00040917
16310.0 0.00040686
16330.0 0.0004046
16350.0 0.00040233
16370.0 0.00040002
16390.0 0.0003978
16410.0 0.0003956
16430.0 0.00039337
16450.0 0.00039117
16470.0 0.00038904
16490.0 0.00038686
16510.0 0.00038469
16530.0 0.00038257
16550.0 0.00038047
16570.0 0.00037833
16590.0 0.00037623
16610.0 0.00037419
16630.0 0.00037212
16650.0 0.00037006
16670.0 0.00036805
16690.0 0.00036605
16710.0 0.000364
16730.0 0.00036201
16750.0 0.00036005
16770.0 0.00035808
16790.0 0.0003561
16810.0 0.00035419
16830.0 0.00035228
16850.0 0.00035034
16870.0 0.00034844
16890.0 0.00034658
16910.0 0.00034469
16930.0 0.00034279
16950.0 0.00034096
16970.0 0.00033914
16990.0 0.00033728
17010.0 0.00033547
17030.0 0.0003337
17050.0 0.00033189
17070.0 0.00033009
17090.0 0.00032834
17110.0 0.00032659
17130.0 0.0003248
17150.0 0.00032307
17170.0 0.00032137
17190.0 0.00031964
17210.0 0.00031792
17230.0 0.00031625
17250.0 0.00031457
17270.0 0.00031286
17290.0 0.0003112
17310.0 0.00030956
17330.0 0.00030789
17350.0 0.00030623
17370.0 0.00030464
17390.0 0.00030303
17410.0 0.00030139
17430.0 0.00029981
17450.0 0.00029824
17470.0 0.00029662
17490.0 0.00029503
17510.0 0.00029349
17530.0 0.00029194
17550.0 0.00029036
17570.0 0.00028884
17590.0 0.00028733
17610.0 0.00028578
17630.0 0.00028426
17650.0 0.00028278
17670.0 0.00028128
17690.0 0.00027974
17710.0 0.00027828
17730.0 0.00027682
17750.0 0.00027533
17770.0 0.00027387
17790.0 0.00027245
17810.0 0.00027099
17830.0 0.00026953
17850.0 0.00026811
17870.0 0.0002667
17890.0 0.00026525
17910.0 0.00026383
17930.0 0.00026246
17950.0 0.00026106
17970.0 0.00025965
17990.0 0.00025829
18010.0 0.00025693
18030.0 0.00025552
18050.0 0.00025415
18070.0 0.00025282
18090.0 0.00025146
18110.0 0.00025009
18130.0 0.00024878
18150.0 0.00024746
18170.0 0.00024611
18190.0 0.00024479
18210.0 0.00024351
18230.0 0.00024218
18250.0 0.00024085
18270.0 0.00023958
18290.0 0.0002383
18310.0 0.00023699
18330.0 0.00023572
18350.0 0.00023448
18370.0 0.00023319
18390.0 0.00023192
18410.0 0.00023068
18430.0 0.00022944
18450.0 0.00022816
18470.0 0.00022693
18490.0 0.00022572
18510.0 0.00022448
18530.0 0.00022325
18550.0 0.00022207
18570.0 0.00022085
18590.0 0.00021962
18610.0 0.00021842
18630.0 0.00021725
18650.0 0.00021604
18670.0 0.00021483
18690.0 0.00021369
18710.0 0.00021252
18730.0 0.00021133
18750.0 0.00021018
18770.0 0.00020904
18790.0 0.00020785
18810.0 0.00020669
18830.0 0.00020557
18850.0 0.00020443
18870.0 0.00020327
18890.0 0.00020216
18910.0 0.00020106
18930.0 0.00019991
18950.0 0.00019879
18970.0 0.00019771
18990.0 0.0001966
19010.0 0.00019545
19030.0 0.00019438
19050.0 0.0001933
19070.0 0.0001922
19090.0 0.00019111
19110.0 0.00019007
19130.0 0.00018898
19150.0 0.00018789
19170.0 0.00018684
19190.0 0.00018579
19210.0 0.0001847
19230.0 0.00018364
19250.0 0.00018263
19270.0 0.00018158
19290.0 0.00018052
19310.0 0.00017951
19330.0 0.00017849
19350.0 0.00017742
19370.0 0.0001764
19390.0 0.0001754
19410.0 0.00017438
19430.0 0.00017335
19450.0 0.00017237
19470.0 0.00017137
19490.0 0.00017035
19510.0 0.00016936
19530.0 0.00016839
19550.0 0.00016738
19570.0 0.00016637
19590.0 0.00016542
19610.0 0.00016445
19630.0 0.00016346
19650.0 0.0001625
19670.0 0.00016156
19690.0 0.00016057
19710.0 0.0001596
19730.0 0.00015867
19750.0 0.00015772
19770.0 0.00015674
19790.0 0.0001558
19810.0 0.00015488
19830.0 0.00015392
19850.0 0.00015297
19870.0 0.00015203
19890.0 0.00015103
19910.0 0.00014994
19930.0 0.00014877
19950.0 0.00014746
19970.0 0.00014586
19990.0 0.00014396
20010.0 0.00014187
20030.0 0.00013939
20050.0 0.00013658
20070.0 0.00013365
20090.0 0.00013063
20110.0 0.00012736
20130.0 0.00012422
20150.0 0.00012127
20170.0 0.00011837
20190.0 0.00011559
20210.0 0.0001131
20230.0 0.0001108
20250.0 0.00010861
20270.0 0.00010669
20290.0 0.00010504
20310.0 0.00010357
20330.0 0.00010231
20350.0 0.00010137
20370.0 0.00010066
20390.0 0.00010017
20410.0 9.9957e-05
20430.0 9.9988e-05
20450.0 0.00010028
20470.0 0.00010083
20490.0 0.00010162
20510.0 0.00010264
20530.0 0.00010395
20550.0 0.00010544
20570.0 0.00010707
20590.0 0.00010893
20610.0 0.00011094
20630.0 0.00011297
20650.0 0.0001151
20670.0 0.00011736
20690.0 0.00011951
20710.0 0.00012157
20730.0 0.00012361
20750.0 0.00012554
20770.0 0.00012726
20790.0 0.00012886
20810.0 0.00013034
20830.0 0.00013163
20850.0 0.00013276
20870.0 0.0001338
20890.0 0.00013471
20910.0 0.00013549
20930.0 0.0001362
20950.0 0.00013686
20970.0 0.00013745
20990.0 0.00013797
21010.0 0.00013847
21030.0 0.0001389
21050.0 0.00013924
21070.0 0.00013952
21090.0 0.00013971
21110.0 0.00013979
21130.0 0.00013976
21150.0 0.00013963
21170.0 0.00013938
21190.0 0.00013904
21210.0 0.00013859
21230.0 0.00013804
21250.0 0.00013744
21270.0 0.00013679
21290.0 0.00013608
21310.0 0.00013535
21330.0 0.00013465
21350.0 0.00013393
21370.0 0.00013322
21390.0 0.00013257
21410.0 0.00013197
21430.0 0.00013139
21450.0 0.0001309
21470.0 0.00013049
21490.0 0.00013014
21510.0 0.00012987
21530.0 0.00012968
21550.0 0.00012958
21570.0 0.00012955
21590.0 0.00012962
21610.0 0.00012976
21630.0 0.00013
21650.0 0.00013034
21670.0 0.00013075
21690.0 0.00013125
21710.0 0.00013187
21730.0 0.00013257
21750.0 0.00013335
21770.0 0.00013427
21790.0 0.0001353
21810.0 0.00013638
21830.0 0.00013758
21850.0 0.00013891
21870.0 0.00014031
21890.0 0.00014174
21910.0 0.0001433
21930.0 0.00014494
21950.0 0.00014657
21970.0 0.00014827
21990.0 0.00015008
22010.0 0.00015182
22030.0 0.00015352
22050.0 0.00015526
22070.0 0.00015695
22090.0 0.0001585
22110.0 0.00016
22130.0 0.00016143
22150.0 0.00016268
22170.0 0.00016376
22190.0 0.00016471
22210.0 0.00016545
22230.0 0.00016594
22250.0 0.00016623
22270.0 0.00016628
22290.0 0.00016607
22310.0 0.00016563
22330.0 0.00016489
22350.0 0.0001639
22370.0 0.00016269
22390.0 0.0001612
22410.0 0.00015942
22430.0 0.00015751
22450.0 0.00015541
22470.0 0.00015305
22490.0 0.00015055
22510.0 0.00014801
22530.0 0.00014526
22550.0 0.00014236
22570.0 0.00013953
22590.0 0.00013667
22610.0 0.0001337
22630.0 0.00013078
22650.0 0.00012802
22670.0 0.00012521
22690.0 0.00012244
22710.0 0.00011985
22730.0 0.00011736
22750.0 0.00011484
22770.0 0.00011253
22790.0 0.00011042
22810.0 0.00010837
22830.0 0.00010645
22850.0 0.00010474
22870.0 0.00010316
22890.0 0.00010168
22910.0 0.0001004
22930.0 9.9301e-05
22950.0 9.8334e-05
22970.0 9.7526e-05
22990.0 9.6942e-05
23010.0 9.6513e-05
23030.0 9.6252e-05
