#lamb flux
1010.0 1.4241e-07
1030.0 1.5583e-07
1050.0 1.7126e-07
1070.0 1.8863e-07
1090.0 2.0836e-07
1110.0 2.286e-07
1130.0 2.4897e-07
1150.0 2.7031e-07
1170.0 2.9232e-07
1190.0 3.1319e-07
1210.0 3.3434e-07
1230.0 3.562e-07
1250.0 3.7761e-07
1270.0 3.9841e-07
1290.0 4.2038e-07
1310.0 4.4234e-07
1330.0 4.634e-07
1350.0 4.8469e-07
1370.0 5.0667e-07
1390.0 5.281e-07
1410.0 5.489e-07
1430.0 5.7064e-07
1450.0 5.9237e-07
1470.0 6.1337e-07
1490.0 6.346e-07
1510.0 6.5702e-07
1530.0 6.7825e-07
1550.0 6.992e-07
1570.0 7.2087e-07
1590.0 7.4255e-07
1610.0 7.6326e-07
1630.0 7.8461e-07
1650.0 8.065e-07
1670.0 8.2767e-07
1690.0 8.4855e-07
1710.0 8.7023e-07
1730.0 8.9202e-07
1750.0 9.1247e-07
1770.0 9.3351e-07
1790.0 9.5494e-07
1810.0 9.7565e-07
1830.0 9.9594e-07
1850.0 1.0175e-06
1870.0 1.0384e-06
1890.0 1.0585e-06
1910.0 1.0789e-06
1930.0 1.0998e-06
1950.0 1.1196e-06
1970.0 1.139e-06
1990.0 1.1591e-06
2010.0 1.1786e-06
2030.0 1.1973e-06
2050.0 1.2164e-06
2070.0 1.2358e-06
2090.0 1.2537e-06
2110.0 1.2714e-06
2130.0 1.2894e-06
2150.0 1.3066e-06
2170.0 1.3227e-06
2190.0 1.3392e-06
2210.0 1.3554e-06
2230.0 1.3704e-06
2250.0 1.3849e-06
2270.0 1.3999e-06
2290.0 1.4137e-06
2310.0 1.4263e-06
2330.0 1.4391e-06
2350.0 1.4519e-06
2370.0 1.4642e-06
2390.0 1.4776e-06
2410.0 1.4946e-06
2430.0 1.5151e-06
2450.0 1.541e-06
2470.0 1.5764e-06
2490.0 1.6232e-06
2510.0 1.6774e-06
2530.0 1.7447e-06
2550.0 1.8315e-06
2570.0 1.9417e-06
2590.0 2.0868e-06
2610.0 2.3061e-06
2630.0 2.6168e-06
2650.0 3.0165e-06
2670.0 3.5247e-06
2690.0 4.1373e-06
2710.0 4.775e-06
2730.0 5.3874e-06
2750.0 5.9735e-06
2770.0 6.4619e-06
2790.0 6.8264e-06
2810.0 7.0936e-06
2830.0 7.2802e-06
2850.0 7.3808e-06
2870.0 7.4329e-06
2890.0 7.4571e-06
2910.0 7.4613e-06
2930.0 7.4521e-06
2950.0 7.4405e-06
2970.0 7.4286e-06
2990.0 7.4148e-06
3010.0 0.00023557
3030.0 0.00023517
3050.0 0.00023478
3070.0 0.00023422
3090.0 0.00023353
3110.0 0.00023245
3130.0 0.00023068
3150.0 0.00022801
3170.0 0.00022399
3190.0 0.00021868
3210.0 0.00021245
3230.0 0.00020557
3250.0 0.00019853
3270.0 0.00019326
3290.0 0.00018933
3310.0 0.00018854
3330.0 0.00018994
3350.0 0.00019345
3370.0 0.00019903
3390.0 0.00020641
3410.0 0.00021465
3430.0 0.00022403
3450.0 0.00023495
3470.0 0.00024698
3490.0 0.0002599
3510.0 0.0002746
3530.0 0.00029063
3550.0 0.00030768
3570.0 0.00032634
3590.0 0.00034706
3610.0 0.00036991
3630.0 0.00039252
3650.0 0.00041642
3670.0 0.00043791
3690.0 0.00045386
3710.0 0.00046194
3730.0 0.00045772
3750.0 0.00044179
3770.0 0.00045172
3790.0 0.00044445
3810.0 0.00035681
3830.0 0.00035032
3850.0 0.00049981
3870.0 0.00049832
3890.0 0.00039289
3910.0 0.00037197
3930.0 0.00045069
3950.0 0.00052914
3970.0 0.00057809
3990.0 0.00039709
4010.0 0.00084045
4030.0 0.00086375
4050.0 0.00095138
4070.0 0.0010122
4090.0 0.00094753
4110.0 0.00081528
4130.0 0.00095171
4150.0 0.0012473
4170.0 0.0010116
4190.0 0.00091956
4210.0 0.0010183
4230.0 0.0012321
4250.0 0.00148
4270.0 0.0015957
4290.0 0.0014138
4310.0 0.0013267
4330.0 0.0013206
4350.0 0.0016609
4370.0 0.002008
4390.0 0.0016245
4410.0 0.00093198
4430.0 0.0006781
4450.0 0.00063632
4470.0 0.00039395
4490.0 0.00064683
4510.0 0.0013772
4530.0 0.0016743
4550.0 0.001573
4570.0 0.0014377
4590.0 0.0015422
4610.0 0.0029586
4630.0 0.00414
4650.0 0.0039674
4670.0 0.0035003
4690.0 0.0035422
4710.0 0.0037037
4730.0 0.0030873
4750.0 0.0020356
4770.0 0.001394
4790.0 0.0015195
4810.0 0.0015908
4830.0 0.0015627
4850.0 0.0016952
4870.0 0.0022453
4890.0 0.0026042
4910.0 0.0020485
4930.0 0.0019767
4950.0 0.0022699
4970.0 0.0030087
4990.0 0.0040662
5010.0 0.004709
5030.0 0.0037984
5050.0 0.0023497
5070.0 0.0016574
5090.0 0.0012596
5110.0 0.0011855
5130.0 0.001425
5150.0 0.0013952
5170.0 0.001315
5190.0 0.0011706
5210.0 0.0013029
5230.0 0.0016001
5250.0 0.0018573
5270.0 0.0017357
5290.0 0.0018727
5310.0 0.0024953
5330.0 0.002691
5350.0 0.0026536
5370.0 0.0029657
5390.0 0.0036824
5410.0 0.0031912
5430.0 0.0024789
5450.0 0.0024832
5470.0 0.0028673
5490.0 0.0035795
5510.0 0.0043617
5530.0 0.0050584
5550.0 0.0045921
5570.0 0.0041232
5590.0 0.0034005
5610.0 0.0034268
5630.0 0.0038165
5650.0 0.0035185
5670.0 0.0032403
5690.0 0.002633
5710.0 0.0027013
5730.0 0.0026167
5750.0 0.0014474
5770.0 0.0010366
5790.0 0.0012782
5810.0 0.0013501
5830.0 0.0020791
5850.0 0.0027071
5870.0 0.0029188
5890.0 0.0027971
5910.0 0.0027245
5930.0 0.0026176
5950.0 0.002698
5970.0 0.0033383
5990.0 0.0027647
6010.0 0.0021394
6030.0 0.0017498
6050.0 0.0015599
6070.0 0.0018405
6090.0 0.0020647
6110.0 0.002116
6130.0 0.0019634
6150.0 0.0015519
6170.0 0.0012082
6190.0 0.0014642
6210.0 0.002304
6230.0 0.0033921
6250.0 0.0036604
6270.0 0.0028165
6290.0 0.0024109
6310.0 0.0018409
6330.0 0.0013441
6350.0 0.0013151
6370.0 0.0013807
6390.0 0.0016483
6410.0 0.0021309
6430.0 0.0025628
6450.0 0.003136
6470.0 0.0033196
6490.0 0.003976
6510.0 0.0044593
6530.0 0.0045481
6550.0 0.0041828
6570.0 0.0033571
6590.0 0.0031876
6610.0 0.002643
6630.0 0.002736
6650.0 0.002658
6670.0 0.0023266
6690.0 0.0018073
6710.0 0.0017633
6730.0 0.00077302
6750.0 0.0010377
6770.0 0.0016284
6790.0 0.0021537
6810.0 0.0015374
6830.0 0.0015699
6850.0 0.0013076
6870.0 0.0012234
6890.0 0.001034
6910.0 0.001258
6930.0 0.0011842
6950.0 0.0014156
6970.0 0.0014707
6990.0 0.0016326
7010.0 0.0015771
7030.0 0.0018053
7050.0 0.0015648
7070.0 0.0013053
7090.0 0.0014
7110.0 0.0014854
7130.0 0.0017095
7150.0 0.0019373
7170.0 0.0021721
7190.0 0.0023195
7210.0 0.0020678
7230.0 0.0020942
7250.0 0.0022445
7270.0 0.0024094
7290.0 0.0029683
7310.0 0.0031379
7330.0 0.0029354
7350.0 0.002629
7370.0 0.00195
7390.0 0.0020112
7410.0 0.0024634
7430.0 0.0028073
7450.0 0.0030246
7470.0 0.0027675
7490.0 0.0022099
7510.0 0.0035626
7530.0 0.0032463
7550.0 0.003062
7570.0 0.0020804
7590.0 0.00092329
7610.0 0.00065184
7630.0 0.00098958
7650.0 0.0013306
7670.0 0.002118
7690.0 0.0023599
7710.0 0.0021326
7730.0 0.0021168
7750.0 0.0027789
7770.0 0.0028561
7790.0 0.0026115
7810.0 0.0021111
7830.0 0.0022875
7850.0 0.002507
7870.0 0.0024513
7890.0 0.0019161
7910.0 0.0012879
7930.0 0.0013344
7950.0 0.0012054
7970.0 0.0010154
7990.0 0.00091803
8010.0 0.00048235
8030.0 0.00044017
8050.0 0.00047792
8070.0 0.00054169
8090.0 0.00066516
8110.0 0.00062386
8130.0 0.00036504
8150.0 0.00038029
8170.0 0.00020679
8190.0 0.00011939
8210.0 0.00033752
8230.0 0.00041006
8250.0 0.00015019
8270.0 0.00011583
8290.0 0.00024223
8310.0 0.00021579
8330.0 0.00013168
8350.0 0.00010638
8370.0 2.1915e-05
8390.0 0.00011364
8410.0 0.00013111
8430.0 0.00016299
8450.0 0.00018348
8470.0 0.00031325
8490.0 0.00025301
8510.0 0.00019141
8530.0 8.8333e-05
8550.0 0.0003471
8570.0 0.00054628
8590.0 0.00037153
8610.0 0.00056493
8630.0 0.0006118
8650.0 0.00031144
8670.0 0.00047593
8690.0 0.00076144
8710.0 0.00065046
8730.0 0.00070473
8750.0 0.00054959
8770.0 0.00048642
8790.0 0.00054367
8810.0 0.00059353
8830.0 0.00032146
8850.0 0.00012957
8870.0 9.0042e-05
8890.0 0.00025014
8910.0 0.0004036
8930.0 0.00053809
8950.0 0.00060095
8970.0 0.00057774
8990.0 0.00042827
9010.0 0.00040734
9030.0 0.00030751
9050.0 0.00031971
9070.0 0.00033246
9090.0 0.00034283
9110.0 0.0003554
9130.0 0.00036447
9150.0 0.00037094
9170.0 0.00037781
9190.0 0.00038518
9210.0 0.00039291
9230.0 0.00040108
9250.0 0.00040933
9270.0 0.00041784
9290.0 0.00042658
9310.0 0.00043529
9330.0 0.00044412
9350.0 0.00045325
9370.0 0.00046242
9390.0 0.00047162
9410.0 0.00048105
9430.0 0.00049074
9450.0 0.00050032
9470.0 0.00051006
9490.0 0.00052007
9510.0 0.00053014
9530.0 0.00054021
9550.0 0.00055064
9570.0 0.00056122
9590.0 0.00057177
9610.0 0.00058249
9630.0 0.0005935
9650.0 0.00060456
9670.0 0.00061559
9690.0 0.00062694
9710.0 0.00063844
9730.0 0.00064993
9750.0 0.00066158
9770.0 0.00067361
9790.0 0.00068556
9810.0 0.00069756
9830.0 0.00070982
9850.0 0.00072224
9870.0 0.00073457
9890.0 0.00074711
9910.0 0.0007599
9930.0 0.00077267
9950.0 0.00078547
9970.0 0.00079855
9990.0 0.00081177
10010.0 0.00072319
10030.0 0.00073475
10050.0 0.00074648
10070.0 0.00075808
10090.0 0.00076976
10110.0 0.00078174
10130.0 0.00079369
10150.0 0.00080554
10170.0 0.00081751
10190.0 0.00082965
10210.0 0.00084162
10230.0 0.00085356
10250.0 0.00086567
10270.0 0.00087776
10290.0 0.00088969
10310.0 0.00090176
10330.0 0.00091394
10350.0 0.0009259
10370.0 0.00093782
10390.0 0.00094985
10410.0 0.00096181
10430.0 0.00097352
10450.0 0.00098533
10470.0 0.00099715
10490.0 0.0010087
10510.0 0.0010202
10530.0 0.0010319
10550.0 0.0010434
10570.0 0.0010545
10590.0 0.0010657
10610.0 0.0010769
10630.0 0.0010878
10650.0 0.0010985
10670.0 0.0011094
10690.0 0.0011199
10710.0 0.0011302
10730.0 0.0011405
10750.0 0.0011508
10770.0 0.0011606
10790.0 0.0011703
10810.0 0.0011799
10830.0 0.0011892
10850.0 0.0011981
10870.0 0.0012067
10890.0 0.0012145
10910.0 0.0012209
10930.0 0.0012254
10950.0 0.0012269
10970.0 0.0012245
10990.0 0.0012177
11010.0 0.0012106
11030.0 0.0011922
11050.0 0.0011691
11070.0 0.001141
11090.0 0.001107
11110.0 0.0010718
11130.0 0.001035
11150.0 0.00099549
11170.0 0.00095495
11190.0 0.00091579
11210.0 0.00087559
11230.0 0.00083463
11250.0 0.0007957
11270.0 0.00075848
11290.0 0.00072139
11310.0 0.00068636
11330.0 0.00065547
11350.0 0.00062628
11370.0 0.00059921
11390.0 0.00057558
11410.0 0.00055466
11430.0 0.00053498
11450.0 0.00051768
11470.0 0.00050238
11490.0 0.00048787
11510.0 0.0004737
11530.0 0.00046036
11550.0 0.00044707
11570.0 0.000433
11590.0 0.00041854
11610.0 0.00040396
11630.0 0.00038832
11650.0 0.0003718
11670.0 0.00035563
11690.0 0.00033935
11710.0 0.00032268
11730.0 0.00030658
11750.0 0.00029164
11770.0 0.000277
11790.0 0.00026322
11810.0 0.00025096
11830.0 0.00023987
11850.0 0.00022954
11870.0 0.0002207
11890.0 0.00021314
11910.0 0.00020635
11930.0 0.00020033
11950.0 0.00019514
11970.0 0.00019039
11990.0 0.00018584
12010.0 0.00018159
12030.0 0.00017748
12050.0 0.0001733
12070.0 0.00016901
12090.0 0.00016488
12110.0 0.0001607
12130.0 0.0001565
12150.0 0.00015253
12170.0 0.00014891
12190.0 0.00014554
12210.0 0.00014275
12230.0 0.00014069
12250.0 0.00013936
12270.0 0.00013892
12290.0 0.0001394
12310.0 0.00014075
12330.0 0.00014315
12350.0 0.0001465
12370.0 0.00015053
12390.0 0.00015537
12410.0 0.00016123
12430.0 0.00016723
12450.0 0.0001735
12470.0 0.00018021
12490.0 0.00018696
12510.0 0.00019324
12530.0 0.00019948
12550.0 0.00020546
12570.0 0.00021065
12590.0 0.00021511
12610.0 0.000219
12630.0 0.00022197
12650.0 0.00022379
12670.0 0.00022477
12690.0 0.00022477
12710.0 0.00022375
12730.0 0.00022183
12750.0 0.00021894
12770.0 0.00021523
12790.0 0.00021086
12810.0 0.0002058
12830.0 0.00020007
12850.0 0.00019413
12870.0 0.00018791
12890.0 0.00018127
12910.0 0.00017457
12930.0 0.000168
12950.0 0.00016121
12970.0 0.00015434
12990.0 0.00014785
13010.0 0.00014147
13030.0 0.00013504
13050.0 0.00012886
13070.0 0.00012306
13090.0 0.00011724
13110.0 0.0001116
13130.0 0.00010636
13150.0 0.00010136
13170.0 9.6437e-05
13190.0 9.1996e-05
13210.0 8.8023e-05
13230.0 8.4329e-05
13250.0 8.1059e-05
13270.0 7.8367e-05
13290.0 7.6138e-05
13310.0 7.4408e-05
13330.0 7.3308e-05
13350.0 7.2798e-05
13370.0 7.2896e-05
13390.0 7.3649e-05
13410.0 7.491e-05
13430.0 7.6728e-05
13450.0 7.9125e-05
13470.0 8.1893e-05
13490.0 8.491e-05
13510.0 8.8415e-05
13530.0 9.2047e-05
13550.0 9.5587e-05
13570.0 9.9147e-05
13590.0 0.00010269
13610.0 0.00010589
13630.0 0.00010874
13650.0 0.0001114
13670.0 0.00011365
13690.0 0.00011544
13710.0 0.00011687
13730.0 0.00011796
13750.0 0.00011856
13770.0 0.0001188
13790.0 0.00011871
13810.0 0.00011827
13830.0 0.00011754
13850.0 0.00011651
13870.0 0.00011519
13890.0 0.00011367
13910.0 0.00011194
13930.0 0.00010993
13950.0 0.00010775
13970.0 0.00010553
13990.0 0.00010311
14010.0 0.00010056
14030.0 9.8023e-05
14050.0 9.5476e-05
14070.0 9.2799e-05
14090.0 9.0239e-05
14110.0 8.7834e-05
14130.0 8.5503e-05
14150.0 8.3303e-05
14170.0 8.1414e-05
14190.0 7.9767e-05
14210.0 7.8349e-05
14230.0 7.7271e-05
14250.0 7.654e-05
14270.0 7.6129e-05
14290.0 7.6092e-05
14310.0 7.6404e-05
14330.0 7.7048e-05
14350.0 7.8049e-05
14370.0 7.9337e-05
14390.0 8.0836e-05
14410.0 8.2635e-05
14430.0 8.4649e-05
14450.0 8.6744e-05
14470.0 8.8955e-05
14490.0 9.1348e-05
14510.0 9.3681e-05
14530.0 9.594e-05
14550.0 9.8237e-05
14570.0 0.00010049
14590.0 0.00010257
14610.0 0.00010462
14630.0 0.00010668
14650.0 0.00010862
14670.0 0.00011051
14690.0 0.00011249
14710.0 0.00011456
14730.0 0.00011663
14750.0 0.0001189
14770.0 0.00012145
14790.0 0.0001242
14810.0 0.00012715
14830.0 0.00013062
14850.0 0.00013438
14870.0 0.00013828
14890.0 0.00014249
14910.0 0.00014694
14930.0 0.00015123
14950.0 0.00015526
14970.0 0.00015909
14990.0 0.00016233
15010.0 0.00016487
15030.0 0.00016681
15050.0 0.00016817
15070.0 0.00016895
15090.0 0.00016937
15110.0 0.00016955
15130.0 0.00016957
15150.0 0.00016951
15170.0 0.00016941
15190.0 0.00016928
15210.0 0.00016916
15230.0 0.00016904
15250.0 0.00016891
15270.0 0.00016879
15290.0 0.00016869
15310.0 0.00016858
15330.0 0.00016846
15350.0 0.00016836
15370.0 0.00016827
15390.0 0.00016816
15410.0 0.00016806
15430.0 0.00016797
15450.0 0.00016788
15470.0 0.00016778
15490.0 0.0001677
15510.0 0.00016762
15530.0 0.00016752
15550.0 0.00016744
15570.0 0.00016737
15590.0 0.00016728
15610.0 0.00016719
15630.0 0.00016711
15650.0 0.00016704
15670.0 0.00016695
15690.0 0.00016687
15710.0 0.0001668
15730.0 0.00016672
15750.0 0.00016663
15770.0 0.00016656
15790.0 0.00016648
15810.0 0.00016639
15830.0 0.00016631
15850.0 0.00016624
15870.0 0.00016615
15890.0 0.00016606
15910.0 0.00016598
15930.0 0.0001659
15950.0 0.0001658
15970.0 0.00016571
15990.0 0.00016563
16010.0 0.00016553
16030.0 0.00016542
16050.0 0.00016533
16070.0 0.00016524
16090.0 0.00016513
16110.0 0.00016502
16130.0 0.00016493
16150.0 0.0001648
16170.0 0.00016468
16190.0 0.00016458
16210.0 0.00016446
16230.0 0.00016433
16250.0 0.00016421
16270.0 0.00016409
16290.0 0.00016395
16310.0 0.00016381
16330.0 0.00016368
16350.0 0.00016354
16370.0 0.00016337
16390.0 0.00016323
16410.0 0.00016309
16430.0 0.00016292
16450.0 0.00016276
16470.0 0.00016261
16490.0 0.00016243
16510.0 0.00016225
16530.0 0.00016208
16550.0 0.0001619
16570.0 0.0001617
16590.0 0.0001615
16610.0 0.00016132
16630.0 0.00016112
16650.0 0.00016091
16670.0 0.00016071
16690.0 0.0001605
16710.0 0.00016027
16730.0 0.00016004
16750.0 0.00015982
16770.0 0.00015959
16790.0 0.00015934
16810.0 0.00015911
16830.0 0.00015887
16850.0 0.0001586
16870.0 0.00015835
16890.0 0.0001581
16910.0 0.00015782
16930.0 0.00015753
16950.0 0.00015727
16970.0 0.00015699
16990.0 0.00015669
17010.0 0.0001564
17030.0 0.00015612
17050.0 0.00015581
17070.0 0.00015549
17090.0 0.00015519
17110.0 0.00015488
17130.0 0.00015454
17150.0 0.00015421
17170.0 0.00015389
17190.0 0.00015355
17210.0 0.0001532
17230.0 0.00015287
17250.0 0.00015251
17270.0 0.00015214
17290.0 0.00015178
17310.0 0.00015143
17330.0 0.00015105
17350.0 0.00015066
17370.0 0.00015029
17390.0 0.00014991
17410.0 0.00014951
17430.0 0.00014912
17450.0 0.00014873
17470.0 0.00014831
17490.0 0.0001479
17510.0 0.0001475
17530.0 0.00014708
17550.0 0.00014665
17570.0 0.00014623
17590.0 0.00014581
17610.0 0.00014536
17630.0 0.00014492
17650.0 0.00014449
17670.0 0.00014404
17690.0 0.00014357
17710.0 0.00014312
17730.0 0.00014267
17750.0 0.0001422
17770.0 0.00014173
17790.0 0.00014128
17810.0 0.0001408
17830.0 0.00014031
17850.0 0.00013983
17870.0 0.00013935
17890.0 0.00013885
17910.0 0.00013836
17930.0 0.00013788
17950.0 0.00013738
17970.0 0.00013687
17990.0 0.00013637
18010.0 0.00013587
18030.0 0.00013534
18050.0 0.00013483
18070.0 0.00013432
18090.0 0.0001338
18110.0 0.00013326
18130.0 0.00013275
18150.0 0.00013223
18170.0 0.00013169
18190.0 0.00013116
18210.0 0.00013064
18230.0 0.00013009
18250.0 0.00012954
18270.0 0.00012901
18290.0 0.00012847
18310.0 0.00012791
18330.0 0.00012736
18350.0 0.00012683
18370.0 0.00012627
18390.0 0.00012571
18410.0 0.00012516
18430.0 0.00012461
18450.0 0.00012403
18470.0 0.00012347
18490.0 0.00012292
18510.0 0.00012235
18530.0 0.00012178
18550.0 0.00012123
18570.0 0.00012066
18590.0 0.00012008
18610.0 0.00011952
18630.0 0.00011895
18650.0 0.00011837
18670.0 0.00011779
18690.0 0.00011723
18710.0 0.00011666
18730.0 0.00011608
18750.0 0.00011551
18770.0 0.00011494
18790.0 0.00011435
18810.0 0.00011377
18830.0 0.0001132
18850.0 0.00011262
18870.0 0.00011203
18890.0 0.00011146
18910.0 0.00011089
18930.0 0.0001103
18950.0 0.00010972
18970.0 0.00010915
18990.0 0.00010857
19010.0 0.00010797
19030.0 0.0001074
19050.0 0.00010683
19070.0 0.00010624
19090.0 0.00010566
19110.0 0.0001051
19130.0 0.00010451
19150.0 0.00010392
19170.0 0.00010335
19190.0 0.00010278
19210.0 0.00010219
19230.0 0.00010161
19250.0 0.00010104
19270.0 0.00010046
19290.0 9.9883e-05
19310.0 9.9318e-05
19330.0 9.875e-05
19350.0 9.8158e-05
19370.0 9.7587e-05
19390.0 9.7025e-05
19410.0 9.6449e-05
19430.0 9.5869e-05
19450.0 9.5312e-05
19470.0 9.4748e-05
19490.0 9.4171e-05
19510.0 9.3607e-05
19530.0 9.3052e-05
19550.0 9.2478e-05
19570.0 9.1903e-05
19590.0 9.1352e-05
19610.0 9.0793e-05
19630.0 9.0224e-05
19650.0 8.9669e-05
19670.0 8.9124e-05
19690.0 8.8557e-05
19710.0 8.7997e-05
19730.0 8.7451e-05
19750.0 8.69e-05
19770.0 8.6332e-05
19790.0 8.5786e-05
19810.0 8.5247e-05
19830.0 8.4691e-05
19850.0 8.4136e-05
19870.0 8.3591e-05
19890.0 8.3018e-05
19910.0 8.2403e-05
19930.0 8.1762e-05
19950.0 8.1053e-05
19970.0 8.0219e-05
19990.0 7.925e-05
20010.0 7.3052e-05
20030.0 7.187e-05
20050.0 7.0517e-05
20070.0 6.9073e-05
20090.0 6.754e-05
20110.0 6.5831e-05
20130.0 6.4115e-05
20150.0 6.2427e-05
20170.0 6.0691e-05
20190.0 5.8942e-05
20210.0 5.7295e-05
20230.0 5.5695e-05
20250.0 5.4098e-05
20270.0 5.2615e-05
20290.0 5.1258e-05
20310.0 4.9966e-05
20330.0 4.8753e-05
20350.0 4.7734e-05
20370.0 4.682e-05
20390.0 4.6006e-05
20410.0 4.5332e-05
20430.0 4.4794e-05
20450.0 4.4349e-05
20470.0 4.4025e-05
20490.0 4.3816e-05
20510.0 4.3704e-05
20530.0 4.3687e-05
20550.0 4.3757e-05
20570.0 4.3895e-05
20590.0 4.4109e-05
20610.0 4.4388e-05
20630.0 4.4708e-05
20650.0 4.5077e-05
20670.0 4.5512e-05
20690.0 4.596e-05
20710.0 4.6428e-05
20730.0 4.6937e-05
20750.0 4.7469e-05
20770.0 4.799e-05
20790.0 4.8535e-05
20810.0 4.9109e-05
20830.0 4.9674e-05
20850.0 5.0235e-05
20870.0 5.0832e-05
20890.0 5.1434e-05
20910.0 5.2006e-05
20930.0 5.2595e-05
20950.0 5.3202e-05
20970.0 5.3786e-05
20990.0 5.4358e-05
21010.0 5.4958e-05
21030.0 5.554e-05
21050.0 5.6091e-05
21070.0 5.6639e-05
21090.0 5.7189e-05
21110.0 5.7685e-05
21130.0 5.8149e-05
21150.0 5.86e-05
21170.0 5.9006e-05
21190.0 5.9353e-05
21210.0 5.9667e-05
21230.0 5.9929e-05
21250.0 6.0112e-05
21270.0 6.0227e-05
21290.0 6.0269e-05
21310.0 6.0221e-05
21330.0 6.0085e-05
21350.0 5.9853e-05
21370.0 5.9512e-05
21390.0 5.9077e-05
21410.0 5.8542e-05
21430.0 5.7866e-05
21450.0 5.7101e-05
21470.0 5.6263e-05
21490.0 5.5314e-05
21510.0 5.4268e-05
21530.0 5.3199e-05
21550.0 5.2074e-05
21570.0 5.0871e-05
21590.0 4.9681e-05
21610.0 4.8523e-05
21630.0 4.7358e-05
21650.0 4.6213e-05
21670.0 4.5207e-05
21690.0 4.427e-05
21710.0 4.3414e-05
21730.0 4.2695e-05
21750.0 4.2119e-05
21770.0 4.1655e-05
21790.0 4.1347e-05
21810.0 4.1194e-05
21830.0 4.1183e-05
21850.0 4.1324e-05
21870.0 4.16e-05
21890.0 4.1987e-05
21910.0 4.251e-05
21930.0 4.3142e-05
21950.0 4.3839e-05
21970.0 4.4624e-05
21990.0 4.552e-05
22010.0 4.6423e-05
22030.0 4.7348e-05
22050.0 4.833e-05
22070.0 4.9326e-05
22090.0 5.0274e-05
22110.0 5.1238e-05
22130.0 5.2209e-05
22150.0 5.3121e-05
22170.0 5.3985e-05
22190.0 5.4848e-05
22210.0 5.5656e-05
22230.0 5.6368e-05
22250.0 5.7041e-05
22270.0 5.7664e-05
22290.0 5.8195e-05
22310.0 5.8651e-05
22330.0 5.9054e-05
22350.0 5.9364e-05
22370.0 5.9579e-05
22390.0 5.9712e-05
22410.0 5.9751e-05
22430.0 5.9688e-05
22450.0 5.9529e-05
22470.0 5.9262e-05
22490.0 5.8889e-05
22510.0 5.8426e-05
22530.0 5.7837e-05
22550.0 5.7124e-05
22570.0 5.6333e-05
22590.0 5.5443e-05
22610.0 5.4422e-05
22630.0 5.3316e-05
22650.0 5.2173e-05
22670.0 5.091e-05
22690.0 4.9562e-05
22710.0 4.82e-05
22730.0 4.6796e-05
22750.0 4.5274e-05
22770.0 4.3784e-05
22790.0 4.2328e-05
22810.0 4.0832e-05
22830.0 3.9338e-05
22850.0 3.7938e-05
