#lamb flux
1010.0 9.5085e-09
1030.0 1.0668e-08
1050.0 1.2002e-08
1070.0 1.3504e-08
1090.0 1.521e-08
1110.0 1.696e-08
1130.0 1.8721e-08
1150.0 2.0565e-08
1170.0 2.2468e-08
1190.0 2.4272e-08
1210.0 2.6101e-08
1230.0 2.7991e-08
1250.0 2.9842e-08
1270.0 3.164e-08
1290.0 3.3539e-08
1310.0 3.5438e-08
1330.0 3.7258e-08
1350.0 3.9099e-08
1370.0 4.1e-08
1390.0 4.2852e-08
1410.0 4.465e-08
1430.0 4.6529e-08
1450.0 4.8408e-08
1470.0 5.0223e-08
1490.0 5.2058e-08
1510.0 5.3996e-08
1530.0 5.5831e-08
1550.0 5.7641e-08
1570.0 5.9513e-08
1590.0 6.1386e-08
1610.0 6.3174e-08
1630.0 6.5016e-08
1650.0 6.6905e-08
1670.0 6.873e-08
1690.0 7.053e-08
1710.0 7.2397e-08
1730.0 7.4271e-08
1750.0 7.6029e-08
1770.0 7.7835e-08
1790.0 7.9673e-08
1810.0 8.1444e-08
1830.0 8.3178e-08
1850.0 8.5013e-08
1870.0 8.679e-08
1890.0 8.8494e-08
1910.0 9.0222e-08
1930.0 9.1981e-08
1950.0 9.3639e-08
1970.0 9.5258e-08
1990.0 9.6925e-08
2010.0 9.854e-08
2030.0 1.0007e-07
2050.0 1.0162e-07
2070.0 1.0319e-07
2090.0 1.0462e-07
2110.0 1.0601e-07
2130.0 1.0741e-07
2150.0 1.0874e-07
2170.0 1.0994e-07
2190.0 1.1117e-07
2210.0 1.1235e-07
2230.0 1.134e-07
2250.0 1.1439e-07
2270.0 1.154e-07
2290.0 1.1628e-07
2310.0 1.1703e-07
2330.0 1.1777e-07
2350.0 1.1845e-07
2370.0 1.1902e-07
2390.0 1.1957e-07
2410.0 1.2021e-07
2430.0 1.2086e-07
2450.0 1.2159e-07
2470.0 1.2258e-07
2490.0 1.2391e-07
2510.0 1.2544e-07
2530.0 1.2758e-07
2550.0 1.3085e-07
2570.0 1.3575e-07
2590.0 1.4303e-07
2610.0 1.5501e-07
2630.0 1.7241e-07
2650.0 1.9454e-07
2670.0 2.2194e-07
2690.0 2.5373e-07
2710.0 2.852e-07
2730.0 3.138e-07
2750.0 3.3963e-07
2770.0 3.5955e-07
2790.0 3.7292e-07
2810.0 3.8147e-07
2830.0 3.8636e-07
2850.0 3.8755e-07
2870.0 3.8682e-07
2890.0 3.851e-07
2910.0 3.8268e-07
2930.0 3.7974e-07
2950.0 3.7682e-07
2970.0 3.7398e-07
2990.0 3.7105e-07
3010.0 9.6145e-06
3030.0 9.5419e-06
3050.0 9.4704e-06
3070.0 9.3932e-06
3090.0 9.3128e-06
3110.0 9.2199e-06
3130.0 9.1035e-06
3150.0 8.9574e-06
3170.0 8.7685e-06
3190.0 8.5411e-06
3210.0 8.2914e-06
3230.0 8.0333e-06
3250.0 7.7946e-06
3270.0 7.6236e-06
3290.0 7.5267e-06
3310.0 7.5351e-06
3330.0 7.6388e-06
3350.0 7.8234e-06
3370.0 8.0915e-06
3390.0 8.4333e-06
3410.0 8.8086e-06
3430.0 9.2344e-06
3450.0 9.7275e-06
3470.0 1.0268e-05
3490.0 1.0842e-05
3510.0 1.1491e-05
3530.0 1.219e-05
3550.0 1.2915e-05
3570.0 1.3696e-05
3590.0 1.4574e-05
3610.0 1.5523e-05
3630.0 1.6505e-05
3650.0 1.7544e-05
3670.0 1.8509e-05
3690.0 1.9251e-05
3710.0 1.9672e-05
3730.0 1.9612e-05
3750.0 1.9054e-05
3770.0 1.8256e-05
3790.0 1.6934e-05
3810.0 1.4537e-05
3830.0 1.3041e-05
3850.0 1.2844e-05
3870.0 9.7523e-06
3890.0 1.1377e-05
3910.0 1.6833e-05
3930.0 2.1045e-05
3950.0 2.1601e-05
3970.0 2.3751e-05
3990.0 2.4199e-05
4010.0 3.3519e-05
4030.0 3.2263e-05
4050.0 2.8571e-05
4070.0 2.825e-05
4090.0 2.7005e-05
4110.0 3.0672e-05
4130.0 3.4439e-05
4150.0 3.8043e-05
4170.0 3.4914e-05
4190.0 3.3632e-05
4210.0 3.4726e-05
4230.0 4.0639e-05
4250.0 4.5558e-05
4270.0 4.7589e-05
4290.0 4.6209e-05
4310.0 4.516e-05
4330.0 4.8197e-05
4350.0 5.8198e-05
4370.0 6.7691e-05
4390.0 5.9951e-05
4410.0 4.3685e-05
4430.0 3.5158e-05
4450.0 3.0686e-05
4470.0 2.7795e-05
4490.0 3.3727e-05
4510.0 4.5414e-05
4530.0 5.2211e-05
4550.0 5.667e-05
4570.0 6.1159e-05
4590.0 7.1473e-05
4610.0 0.00010552
4630.0 0.00013568
4650.0 0.00013416
4670.0 0.0001242
4690.0 0.00013206
4710.0 0.00014044
4730.0 0.00011648
4750.0 7.904e-05
4770.0 6.1612e-05
4790.0 6.2809e-05
4810.0 6.0466e-05
4830.0 5.787e-05
4850.0 6.5063e-05
4870.0 8.5345e-05
4890.0 9.9398e-05
4910.0 8.0827e-05
4930.0 7.2948e-05
4950.0 8.2232e-05
4970.0 0.00011101
4990.0 0.00014711
5010.0 0.000162
5030.0 0.00013151
5050.0 8.1461e-05
5070.0 5.6516e-05
5090.0 4.8109e-05
5110.0 4.8725e-05
5130.0 5.3981e-05
5150.0 5.5001e-05
5170.0 5.4015e-05
5190.0 5.1608e-05
5210.0 5.1486e-05
5230.0 5.6348e-05
5250.0 6.2179e-05
5270.0 6.6076e-05
5290.0 7.5067e-05
5310.0 8.8658e-05
5330.0 9.156e-05
5350.0 9.103e-05
5370.0 0.00010046
5390.0 0.00011525
5410.0 0.00010682
5430.0 8.7404e-05
5450.0 8.2364e-05
5470.0 9.3586e-05
5490.0 0.00011994
5510.0 0.0001523
5530.0 0.00017251
5550.0 0.00016227
5570.0 0.00014559
5590.0 0.00012573
5610.0 0.00012006
5630.0 0.00012088
5650.0 0.00011963
5670.0 0.00011448
5690.0 0.00010084
5710.0 9.8294e-05
5730.0 9.2202e-05
5750.0 5.852e-05
5770.0 4.8291e-05
5790.0 5.6154e-05
5810.0 6.6188e-05
5830.0 8.2872e-05
5850.0 9.69e-05
5870.0 0.00010097
5890.0 9.6809e-05
5910.0 9.2868e-05
5930.0 9.2043e-05
5950.0 9.6013e-05
5970.0 0.00010895
5990.0 9.8098e-05
6010.0 7.9722e-05
6030.0 6.5653e-05
6050.0 5.7194e-05
6070.0 6.0594e-05
6090.0 6.8905e-05
6110.0 7.4163e-05
6130.0 6.9985e-05
6150.0 6.083e-05
6170.0 6.0849e-05
6190.0 7.4316e-05
6210.0 9.7911e-05
6230.0 0.00012264
6250.0 0.00012559
6270.0 0.00010632
6290.0 8.8837e-05
6310.0 6.9554e-05
6330.0 5.3626e-05
6350.0 4.9236e-05
6370.0 5.2465e-05
6390.0 6.2902e-05
6410.0 7.5447e-05
6430.0 8.8781e-05
6450.0 0.00010562
6470.0 0.00012251
6490.0 0.00015047
6510.0 0.00016819
6530.0 0.00016021
6550.0 0.00014678
6570.0 0.00013447
6590.0 0.00012984
6610.0 0.00011236
6630.0 0.0001059
6650.0 9.8399e-05
6670.0 9.7163e-05
6690.0 9.0046e-05
6710.0 8.2027e-05
6730.0 6.4057e-05
6750.0 6.1665e-05
6770.0 6.7534e-05
6790.0 8.0364e-05
6810.0 7.3183e-05
6830.0 7.5208e-05
6850.0 7.0779e-05
6870.0 6.7531e-05
6890.0 6.3746e-05
6910.0 6.4976e-05
6930.0 6.0684e-05
6950.0 6.5127e-05
6970.0 6.5775e-05
6990.0 7.3416e-05
7010.0 7.685e-05
7030.0 7.4734e-05
7050.0 6.8464e-05
7070.0 6.4531e-05
7090.0 6.2082e-05
7110.0 5.9976e-05
7130.0 6.3498e-05
7150.0 6.9109e-05
7170.0 7.4857e-05
7190.0 7.6501e-05
7210.0 7.2154e-05
7230.0 7.382e-05
7250.0 8.2993e-05
7270.0 9.5336e-05
7290.0 0.00010772
7310.0 0.00010744
7330.0 9.6272e-05
7350.0 8.5882e-05
7370.0 7.5266e-05
7390.0 7.6878e-05
7410.0 8.5343e-05
7430.0 9.428e-05
7450.0 0.00010182
7470.0 0.00010573
7490.0 0.00010988
7510.0 0.00012889
7530.0 0.00011845
7550.0 0.00010176
7570.0 7.6353e-05
7590.0 5.031e-05
7610.0 4.3108e-05
7630.0 4.909e-05
7650.0 5.8324e-05
7670.0 7.2797e-05
7690.0 8.2546e-05
7710.0 8.4451e-05
7730.0 8.5662e-05
7750.0 9.427e-05
7770.0 9.4428e-05
7790.0 8.9686e-05
7810.0 8.5366e-05
7830.0 8.5388e-05
7850.0 8.1272e-05
7870.0 7.5259e-05
7890.0 6.5132e-05
7910.0 5.2329e-05
7930.0 4.7226e-05
7950.0 4.2607e-05
7970.0 4.0178e-05
7990.0 4.0174e-05
8010.0 4.1642e-05
8030.0 4.1233e-05
8050.0 4.2014e-05
8070.0 4.2026e-05
8090.0 4.4225e-05
8110.0 4.1589e-05
8130.0 3.4364e-05
8150.0 3.2491e-05
8170.0 2.832e-05
8190.0 2.7013e-05
8210.0 3.1257e-05
8230.0 3.4039e-05
8250.0 2.9039e-05
8270.0 2.5693e-05
8290.0 2.2793e-05
8310.0 1.6153e-05
8330.0 1.0368e-05
8350.0 7.7138e-06
8370.0 7.0886e-06
8390.0 9.3511e-06
8410.0 1.1749e-05
8430.0 1.4448e-05
8450.0 1.6031e-05
8470.0 1.8986e-05
8490.0 1.801e-05
8510.0 1.7423e-05
8530.0 1.688e-05
8550.0 2.2945e-05
8570.0 2.9582e-05
8590.0 3.1133e-05
8610.0 3.8853e-05
8630.0 4.4564e-05
8650.0 4.3261e-05
8670.0 4.5694e-05
8690.0 4.8559e-05
8710.0 4.4867e-05
8730.0 4.3914e-05
8750.0 3.9474e-05
8770.0 3.749e-05
8790.0 3.7952e-05
8810.0 3.6984e-05
8830.0 2.9135e-05
8850.0 2.262e-05
8870.0 1.857e-05
8890.0 1.9967e-05
8910.0 2.3082e-05
8930.0 2.57e-05
8950.0 2.9105e-05
8970.0 2.9272e-05
8990.0 2.7376e-05
9010.0 2.4436e-05
9030.0 2.3522e-05
9050.0 2.387e-05
9070.0 2.4162e-05
9090.0 2.4385e-05
9110.0 2.4611e-05
9130.0 2.4792e-05
9150.0 2.4944e-05
9170.0 2.5106e-05
9190.0 2.5278e-05
9210.0 2.546e-05
9230.0 2.5651e-05
9250.0 2.5851e-05
9270.0 2.6059e-05
9290.0 2.6274e-05
9310.0 2.6496e-05
9330.0 2.6725e-05
9350.0 2.6961e-05
9370.0 2.7204e-05
9390.0 2.7453e-05
9410.0 2.771e-05
9430.0 2.7972e-05
9450.0 2.8242e-05
9470.0 2.8518e-05
9490.0 2.8801e-05
9510.0 2.909e-05
9530.0 2.9385e-05
9550.0 2.9687e-05
9570.0 2.9994e-05
9590.0 3.0308e-05
9610.0 3.0628e-05
9630.0 3.0954e-05
9650.0 3.1285e-05
9670.0 3.1622e-05
9690.0 3.1964e-05
9710.0 3.2312e-05
9730.0 3.2665e-05
9750.0 3.3023e-05
9770.0 3.3385e-05
9790.0 3.3752e-05
9810.0 3.4124e-05
9830.0 3.45e-05
9850.0 3.4879e-05
9870.0 3.5264e-05
9890.0 3.5651e-05
9910.0 3.6042e-05
9930.0 3.6436e-05
9950.0 3.6834e-05
9970.0 3.7233e-05
9990.0 3.7635e-05
10010.0 3.5779e-05
10030.0 3.6152e-05
10050.0 3.6525e-05
10070.0 3.6898e-05
10090.0 3.7276e-05
10110.0 3.7654e-05
10130.0 3.8032e-05
10150.0 3.8411e-05
10170.0 3.8788e-05
10190.0 3.9165e-05
10210.0 3.9541e-05
10230.0 3.9917e-05
10250.0 4.029e-05
10270.0 4.0662e-05
10290.0 4.1033e-05
10310.0 4.1401e-05
10330.0 4.1765e-05
10350.0 4.2127e-05
10370.0 4.2487e-05
10390.0 4.2841e-05
10410.0 4.3192e-05
10430.0 4.3541e-05
10450.0 4.3883e-05
10470.0 4.422e-05
10490.0 4.4554e-05
10510.0 4.4882e-05
10530.0 4.5202e-05
10550.0 4.5517e-05
10570.0 4.5828e-05
10590.0 4.613e-05
10610.0 4.6425e-05
10630.0 4.6715e-05
10650.0 4.6997e-05
10670.0 4.727e-05
10690.0 4.7536e-05
10710.0 4.7795e-05
10730.0 4.8044e-05
10750.0 4.8284e-05
10770.0 4.8517e-05
10790.0 4.8741e-05
10810.0 4.8954e-05
10830.0 4.9156e-05
10850.0 4.9346e-05
10870.0 4.9514e-05
10890.0 4.9652e-05
10910.0 4.9749e-05
10930.0 4.9777e-05
10950.0 4.9694e-05
10970.0 4.9481e-05
10990.0 4.9123e-05
11010.0 4.8353e-05
11030.0 4.7601e-05
11050.0 4.6696e-05
11070.0 4.5614e-05
11090.0 4.4309e-05
11110.0 4.2958e-05
11130.0 4.1546e-05
11150.0 4.0024e-05
11170.0 3.8458e-05
11190.0 3.6949e-05
11210.0 3.5404e-05
11230.0 3.3837e-05
11250.0 3.2363e-05
11270.0 3.097e-05
11290.0 2.9596e-05
11310.0 2.8318e-05
11330.0 2.721e-05
11350.0 2.6177e-05
11370.0 2.5231e-05
11390.0 2.4416e-05
11410.0 2.37e-05
11430.0 2.3026e-05
11450.0 2.2428e-05
11470.0 2.1891e-05
11490.0 2.1366e-05
11510.0 2.0834e-05
11530.0 2.0317e-05
11550.0 1.9784e-05
11570.0 1.9204e-05
11590.0 1.8597e-05
11610.0 1.7978e-05
11630.0 1.731e-05
11650.0 1.6605e-05
11670.0 1.5918e-05
11690.0 1.5231e-05
11710.0 1.4534e-05
11730.0 1.3868e-05
11750.0 1.3259e-05
11770.0 1.2668e-05
11790.0 1.2119e-05
11810.0 1.1638e-05
11830.0 1.1207e-05
11850.0 1.0809e-05
11870.0 1.0472e-05
11890.0 1.0183e-05
11910.0 9.9212e-06
11930.0 9.6844e-06
11950.0 9.4739e-06
11970.0 9.273e-06
11990.0 9.0703e-06
12010.0 8.8711e-06
12030.0 8.6709e-06
12050.0 8.4589e-06
12070.0 8.2353e-06
12090.0 8.0173e-06
12110.0 7.7945e-06
12130.0 7.5685e-06
12150.0 7.3545e-06
12170.0 7.1589e-06
12190.0 6.9743e-06
12210.0 6.8191e-06
12230.0 6.7001e-06
12250.0 6.6162e-06
12270.0 6.5731e-06
12290.0 6.5737e-06
12310.0 6.6139e-06
12330.0 6.6999e-06
12350.0 6.827e-06
12370.0 6.9836e-06
12390.0 7.1734e-06
12410.0 7.4034e-06
12430.0 7.6381e-06
12450.0 7.881e-06
12470.0 8.1384e-06
12490.0 8.3933e-06
12510.0 8.6259e-06
12530.0 8.8521e-06
12550.0 9.0634e-06
12570.0 9.2401e-06
12590.0 9.3854e-06
12610.0 9.5054e-06
12630.0 9.5882e-06
12650.0 9.6287e-06
12670.0 9.6375e-06
12690.0 9.6115e-06
12710.0 9.5516e-06
12730.0 9.4626e-06
12750.0 9.3423e-06
12770.0 9.1972e-06
12790.0 9.0336e-06
12810.0 8.849e-06
12830.0 8.6441e-06
12850.0 8.4336e-06
12870.0 8.2143e-06
12890.0 7.9801e-06
12910.0 7.7419e-06
12930.0 7.5055e-06
12950.0 7.2578e-06
12970.0 7.0031e-06
12990.0 6.7571e-06
13010.0 6.5104e-06
13030.0 6.2571e-06
13050.0 6.0091e-06
13070.0 5.7722e-06
13090.0 5.5316e-06
13110.0 5.2957e-06
13130.0 5.0752e-06
13150.0 4.8647e-06
13170.0 4.6581e-06
13190.0 4.4732e-06
13210.0 4.3098e-06
13230.0 4.161e-06
13250.0 4.0331e-06
13270.0 3.9317e-06
13290.0 3.8522e-06
13310.0 3.7962e-06
13330.0 3.7669e-06
13350.0 3.7616e-06
13370.0 3.7808e-06
13390.0 3.8245e-06
13410.0 3.8845e-06
13430.0 3.9629e-06
13450.0 4.0593e-06
13470.0 4.1646e-06
13490.0 4.2743e-06
13510.0 4.3969e-06
13530.0 4.5191e-06
13550.0 4.6337e-06
13570.0 4.7452e-06
13590.0 4.8524e-06
13610.0 4.9455e-06
13630.0 5.0247e-06
13650.0 5.0953e-06
13670.0 5.1513e-06
13690.0 5.1912e-06
13710.0 5.2184e-06
13730.0 5.2333e-06
13750.0 5.2331e-06
13770.0 5.2214e-06
13790.0 5.1986e-06
13810.0 5.1652e-06
13830.0 5.124e-06
13850.0 5.0736e-06
13870.0 5.0147e-06
13890.0 4.9507e-06
13910.0 4.8815e-06
13930.0 4.8046e-06
13950.0 4.7234e-06
13970.0 4.6425e-06
13990.0 4.5568e-06
14010.0 4.468e-06
14030.0 4.3812e-06
14050.0 4.2955e-06
14070.0 4.2072e-06
14090.0 4.1241e-06
14110.0 4.0473e-06
14130.0 3.9743e-06
14150.0 3.9071e-06
14170.0 3.8506e-06
14190.0 3.8029e-06
14210.0 3.7638e-06
14230.0 3.736e-06
14250.0 3.7195e-06
14270.0 3.7138e-06
14290.0 3.7202e-06
14310.0 3.7369e-06
14330.0 3.7639e-06
14350.0 3.8017e-06
14370.0 3.8477e-06
14390.0 3.8993e-06
14410.0 3.9598e-06
14430.0 4.0264e-06
14450.0 4.095e-06
14470.0 4.1673e-06
14490.0 4.246e-06
14510.0 4.324e-06
14530.0 4.4016e-06
14550.0 4.4836e-06
14570.0 4.5683e-06
14590.0 4.652e-06
14610.0 4.7405e-06
14630.0 4.837e-06
14650.0 4.9359e-06
14670.0 5.0392e-06
14690.0 5.1538e-06
14710.0 5.2788e-06
14730.0 5.4054e-06
14750.0 5.5437e-06
14770.0 5.6952e-06
14790.0 5.8516e-06
14810.0 6.0117e-06
14830.0 6.1888e-06
14850.0 6.3681e-06
14870.0 6.5429e-06
14890.0 6.7196e-06
14910.0 6.8957e-06
14930.0 7.056e-06
14950.0 7.1988e-06
14970.0 7.3282e-06
14990.0 7.4326e-06
15010.0 7.51e-06
15030.0 7.5654e-06
15050.0 7.6005e-06
15070.0 7.6169e-06
15090.0 7.6218e-06
15110.0 7.6185e-06
15130.0 7.6104e-06
15150.0 7.6005e-06
15170.0 7.5886e-06
15190.0 7.576e-06
15210.0 7.5639e-06
15230.0 7.552e-06
15250.0 7.5393e-06
15270.0 7.527e-06
15290.0 7.5157e-06
15310.0 7.5039e-06
15330.0 7.4918e-06
15350.0 7.4806e-06
15370.0 7.4695e-06
15390.0 7.4574e-06
15410.0 7.446e-06
15430.0 7.4351e-06
15450.0 7.4238e-06
15470.0 7.4121e-06
15490.0 7.4014e-06
15510.0 7.3907e-06
15530.0 7.3792e-06
15550.0 7.3682e-06
15570.0 7.3577e-06
15590.0 7.3464e-06
15610.0 7.3348e-06
15630.0 7.3242e-06
15650.0 7.3134e-06
15670.0 7.3019e-06
15690.0 7.2909e-06
15710.0 7.2804e-06
15730.0 7.269e-06
15750.0 7.2575e-06
15770.0 7.2467e-06
15790.0 7.2356e-06
15810.0 7.2236e-06
15830.0 7.2122e-06
15850.0 7.2013e-06
15870.0 7.1896e-06
15890.0 7.1777e-06
15910.0 7.1665e-06
15930.0 7.1549e-06
15950.0 7.1424e-06
15970.0 7.1305e-06
15990.0 7.1188e-06
16010.0 7.1063e-06
16030.0 7.0935e-06
16050.0 7.0817e-06
16070.0 7.0693e-06
16090.0 7.0562e-06
16110.0 7.0436e-06
16130.0 7.0313e-06
16150.0 7.0175e-06
16170.0 7.004e-06
16190.0 6.9911e-06
16210.0 6.9776e-06
16230.0 6.9635e-06
16250.0 6.9499e-06
16270.0 6.9365e-06
16290.0 6.922e-06
16310.0 6.9076e-06
16330.0 6.8936e-06
16350.0 6.879e-06
16370.0 6.8633e-06
16390.0 6.8488e-06
16410.0 6.834e-06
16430.0 6.8184e-06
16450.0 6.8028e-06
16470.0 6.7879e-06
16490.0 6.7718e-06
16510.0 6.7553e-06
16530.0 6.7394e-06
16550.0 6.7234e-06
16570.0 6.7062e-06
16590.0 6.6892e-06
16610.0 6.673e-06
16630.0 6.6558e-06
16650.0 6.6381e-06
16670.0 6.621e-06
16690.0 6.6037e-06
16710.0 6.5851e-06
16730.0 6.567e-06
16750.0 6.5492e-06
16770.0 6.5306e-06
16790.0 6.5114e-06
16810.0 6.4931e-06
16830.0 6.4744e-06
16850.0 6.4548e-06
16870.0 6.4354e-06
16890.0 6.4164e-06
16910.0 6.3962e-06
16930.0 6.3757e-06
16950.0 6.356e-06
16970.0 6.3359e-06
16990.0 6.3149e-06
17010.0 6.2943e-06
17030.0 6.2741e-06
17050.0 6.2527e-06
17070.0 6.2311e-06
17090.0 6.2101e-06
17110.0 6.1887e-06
17130.0 6.1662e-06
17150.0 6.1443e-06
17170.0 6.1228e-06
17190.0 6.1003e-06
17210.0 6.0776e-06
17230.0 6.0556e-06
17250.0 6.0329e-06
17270.0 6.0093e-06
17290.0 5.9864e-06
17310.0 5.9635e-06
17330.0 5.9398e-06
17350.0 5.9157e-06
17370.0 5.8927e-06
17390.0 5.869e-06
17410.0 5.8446e-06
17430.0 5.8207e-06
17450.0 5.797e-06
17470.0 5.7718e-06
17490.0 5.747e-06
17510.0 5.7228e-06
17530.0 5.698e-06
17550.0 5.6726e-06
17570.0 5.6478e-06
17590.0 5.6232e-06
17610.0 5.5974e-06
17630.0 5.5719e-06
17650.0 5.5469e-06
17670.0 5.5212e-06
17690.0 5.4945e-06
17710.0 5.4691e-06
17730.0 5.4435e-06
17750.0 5.4172e-06
17770.0 5.3909e-06
17790.0 5.3654e-06
17810.0 5.3388e-06
17830.0 5.312e-06
17850.0 5.2858e-06
17870.0 5.2595e-06
17890.0 5.2323e-06
17910.0 5.2053e-06
17930.0 5.1792e-06
17950.0 5.1522e-06
17970.0 5.125e-06
17990.0 5.0985e-06
18010.0 5.0717e-06
18030.0 5.0439e-06
18050.0 5.0167e-06
18070.0 4.9899e-06
18090.0 4.9625e-06
18110.0 4.9348e-06
18130.0 4.9079e-06
18150.0 4.8808e-06
18170.0 4.853e-06
18190.0 4.8256e-06
18210.0 4.7987e-06
18230.0 4.7708e-06
18250.0 4.7427e-06
18270.0 4.7157e-06
18290.0 4.6883e-06
18310.0 4.6603e-06
18330.0 4.6329e-06
18350.0 4.6059e-06
18370.0 4.5779e-06
18390.0 4.55e-06
18410.0 4.5228e-06
18430.0 4.4953e-06
18450.0 4.467e-06
18470.0 4.4395e-06
18490.0 4.4124e-06
18510.0 4.3846e-06
18530.0 4.3569e-06
18550.0 4.3299e-06
18570.0 4.3024e-06
18590.0 4.2743e-06
18610.0 4.247e-06
18630.0 4.2199e-06
18650.0 4.1921e-06
18670.0 4.1643e-06
18690.0 4.1376e-06
18710.0 4.1103e-06
18730.0 4.0827e-06
18750.0 4.0557e-06
18770.0 4.0289e-06
18790.0 4.001e-06
18810.0 3.9737e-06
18830.0 3.9471e-06
18850.0 3.92e-06
18870.0 3.8926e-06
18890.0 3.8661e-06
18910.0 3.8396e-06
18930.0 3.8123e-06
18950.0 3.7855e-06
18970.0 3.7592e-06
18990.0 3.7325e-06
19010.0 3.7051e-06
19030.0 3.6791e-06
19050.0 3.6529e-06
19070.0 3.6262e-06
19090.0 3.5999e-06
19110.0 3.5743e-06
19130.0 3.5478e-06
19150.0 3.5213e-06
19170.0 3.4955e-06
19190.0 3.4698e-06
19210.0 3.4434e-06
19230.0 3.4175e-06
19250.0 3.3923e-06
19270.0 3.3665e-06
19290.0 3.3407e-06
19310.0 3.3156e-06
19330.0 3.2905e-06
19350.0 3.2644e-06
19370.0 3.2393e-06
19390.0 3.2145e-06
19410.0 3.1892e-06
19430.0 3.1639e-06
19450.0 3.1395e-06
19470.0 3.1149e-06
19490.0 3.0898e-06
19510.0 3.0652e-06
19530.0 3.0411e-06
19550.0 3.0163e-06
19570.0 2.9915e-06
19590.0 2.9677e-06
19610.0 2.9436e-06
19630.0 2.9192e-06
19650.0 2.8953e-06
19670.0 2.8719e-06
19690.0 2.8478e-06
19710.0 2.8238e-06
19730.0 2.8006e-06
19750.0 2.7771e-06
19770.0 2.7531e-06
19790.0 2.7299e-06
19810.0 2.7071e-06
19830.0 2.6837e-06
19850.0 2.6603e-06
19870.0 2.6375e-06
19890.0 2.6137e-06
19910.0 2.5886e-06
19930.0 2.5628e-06
19950.0 2.5351e-06
19970.0 2.5034e-06
19990.0 2.4678e-06
20010.0 2.4639e-06
20030.0 2.4193e-06
20050.0 2.3694e-06
20070.0 2.3173e-06
20090.0 2.2629e-06
20110.0 2.2035e-06
20130.0 2.1448e-06
20150.0 2.0878e-06
20170.0 2.03e-06
20190.0 1.9724e-06
20210.0 1.9188e-06
20230.0 1.8671e-06
20250.0 1.8159e-06
20270.0 1.7686e-06
20290.0 1.7256e-06
20310.0 1.6849e-06
20330.0 1.6469e-06
20350.0 1.6151e-06
20370.0 1.5869e-06
20390.0 1.562e-06
20410.0 1.5418e-06
20430.0 1.526e-06
20450.0 1.5135e-06
20470.0 1.5051e-06
20490.0 1.5005e-06
20510.0 1.4992e-06
20530.0 1.5014e-06
20550.0 1.5063e-06
20570.0 1.5135e-06
20590.0 1.5233e-06
20610.0 1.5353e-06
20630.0 1.5484e-06
20650.0 1.5631e-06
20670.0 1.58e-06
20690.0 1.5971e-06
20710.0 1.6145e-06
20730.0 1.6333e-06
20750.0 1.6526e-06
20770.0 1.6713e-06
20790.0 1.6906e-06
20810.0 1.7109e-06
20830.0 1.7306e-06
20850.0 1.7501e-06
20870.0 1.7709e-06
20890.0 1.7918e-06
20910.0 1.8117e-06
20930.0 1.8323e-06
20950.0 1.8536e-06
20970.0 1.8742e-06
20990.0 1.8945e-06
21010.0 1.9161e-06
21030.0 1.9372e-06
21050.0 1.9573e-06
21070.0 1.9776e-06
21090.0 1.9982e-06
21110.0 2.0171e-06
21130.0 2.0351e-06
21150.0 2.053e-06
21170.0 2.0695e-06
21190.0 2.0842e-06
21210.0 2.0983e-06
21230.0 2.111e-06
21250.0 2.1214e-06
21270.0 2.1298e-06
21290.0 2.1364e-06
21310.0 2.1405e-06
21330.0 2.1418e-06
21350.0 2.1406e-06
21370.0 2.1363e-06
21390.0 2.1289e-06
21410.0 2.1184e-06
21430.0 2.1037e-06
21450.0 2.0858e-06
21470.0 2.0649e-06
21490.0 2.0401e-06
21510.0 2.0116e-06
21530.0 1.9813e-06
21550.0 1.9483e-06
21570.0 1.9118e-06
21590.0 1.8744e-06
21610.0 1.8367e-06
21630.0 1.7974e-06
21650.0 1.7573e-06
21670.0 1.7205e-06
21690.0 1.6847e-06
21710.0 1.65e-06
21730.0 1.6188e-06
21750.0 1.5916e-06
21770.0 1.5666e-06
21790.0 1.5461e-06
21810.0 1.5304e-06
21830.0 1.519e-06
21850.0 1.5121e-06
21870.0 1.5099e-06
21890.0 1.512e-06
21910.0 1.5185e-06
21930.0 1.5292e-06
21950.0 1.5432e-06
21970.0 1.5609e-06
21990.0 1.583e-06
22010.0 1.6069e-06
22030.0 1.6328e-06
22050.0 1.6618e-06
22070.0 1.6927e-06
22090.0 1.7234e-06
22110.0 1.7558e-06
22130.0 1.7898e-06
22150.0 1.8228e-06
22170.0 1.8552e-06
22190.0 1.8885e-06
22210.0 1.9206e-06
22230.0 1.9498e-06
22250.0 1.9779e-06
22270.0 2.0046e-06
22290.0 2.0279e-06
22310.0 2.0484e-06
22330.0 2.0669e-06
22350.0 2.0816e-06
22370.0 2.0924e-06
22390.0 2.0998e-06
22410.0 2.1034e-06
22430.0 2.1027e-06
22450.0 2.0982e-06
22470.0 2.0894e-06
22490.0 2.0765e-06
22510.0 2.06e-06
22530.0 2.0388e-06
22550.0 2.013e-06
22570.0 1.9843e-06
22590.0 1.9519e-06
22610.0 1.9148e-06
22630.0 1.8746e-06
