#lamb flux
1010.0 5.0691e-08
1030.0 5.595e-08
1050.0 6.2e-08
1070.0 6.881e-08
1090.0 7.6546e-08
1110.0 8.448e-08
1130.0 9.2465e-08
1150.0 1.0083e-07
1170.0 1.0946e-07
1190.0 1.1764e-07
1210.0 1.2593e-07
1230.0 1.345e-07
1250.0 1.429e-07
1270.0 1.5105e-07
1290.0 1.5966e-07
1310.0 1.6827e-07
1330.0 1.7653e-07
1350.0 1.8488e-07
1370.0 1.935e-07
1390.0 2.019e-07
1410.0 2.1005e-07
1430.0 2.1858e-07
1450.0 2.271e-07
1470.0 2.3534e-07
1490.0 2.4367e-07
1510.0 2.5247e-07
1530.0 2.608e-07
1550.0 2.6903e-07
1570.0 2.7754e-07
1590.0 2.8606e-07
1610.0 2.942e-07
1630.0 3.026e-07
1650.0 3.1122e-07
1670.0 3.1957e-07
1690.0 3.2781e-07
1710.0 3.3637e-07
1730.0 3.4499e-07
1750.0 3.5309e-07
1770.0 3.6145e-07
1790.0 3.6998e-07
1810.0 3.7825e-07
1830.0 3.8638e-07
1850.0 3.9502e-07
1870.0 4.0344e-07
1890.0 4.116e-07
1910.0 4.1992e-07
1930.0 4.2847e-07
1950.0 4.3663e-07
1970.0 4.4471e-07
1990.0 4.5311e-07
2010.0 4.6139e-07
2030.0 4.6937e-07
2050.0 4.7762e-07
2070.0 4.8608e-07
2090.0 4.9406e-07
2110.0 5.0203e-07
2130.0 5.1025e-07
2150.0 5.1831e-07
2170.0 5.2603e-07
2190.0 5.3404e-07
2210.0 5.421e-07
2230.0 5.4983e-07
2250.0 5.5751e-07
2270.0 5.6555e-07
2290.0 5.7332e-07
2310.0 5.8077e-07
2330.0 5.8851e-07
2350.0 5.9645e-07
2370.0 6.0435e-07
2390.0 6.1292e-07
2410.0 6.2312e-07
2430.0 6.3492e-07
2450.0 6.491e-07
2470.0 6.6739e-07
2490.0 6.9054e-07
2510.0 7.1691e-07
2530.0 7.4872e-07
2550.0 7.8863e-07
2570.0 8.383e-07
2590.0 9.0288e-07
2610.0 9.9953e-07
2630.0 1.1373e-06
2650.0 1.3172e-06
2670.0 1.5494e-06
2690.0 1.8343e-06
2710.0 2.1377e-06
2730.0 2.437e-06
2750.0 2.7311e-06
2770.0 2.9861e-06
2790.0 3.1876e-06
2810.0 3.3467e-06
2830.0 3.4701e-06
2850.0 3.5532e-06
2870.0 3.6132e-06
2890.0 3.6601e-06
2910.0 3.6969e-06
2930.0 3.7264e-06
2950.0 3.7544e-06
2970.0 3.7818e-06
2990.0 3.8074e-06
3010.0 0.0001092
3030.0 0.00010993
3050.0 0.00011063
3070.0 0.00011123
3090.0 0.00011173
3110.0 0.00011201
3130.0 0.00011192
3150.0 0.00011136
3170.0 0.0001101
3190.0 0.00010816
3210.0 0.00010573
3230.0 0.00010295
3250.0 0.00010019
3270.0 9.8164e-05
3290.0 9.6989e-05
3310.0 9.7109e-05
3330.0 9.8448e-05
3350.0 0.00010083
3370.0 0.00010427
3390.0 0.00010861
3410.0 0.00011335
3430.0 0.00011868
3450.0 0.00012481
3470.0 0.00013152
3490.0 0.00013863
3510.0 0.00014668
3530.0 0.00015531
3550.0 0.00016408
3570.0 0.00017328
3590.0 0.0001833
3610.0 0.00019369
3630.0 0.00020404
3650.0 0.00021479
3670.0 0.00022458
3690.0 0.00023189
3710.0 0.00023603
3730.0 0.00023595
3750.0 0.00023222
3770.0 0.00023167
3790.0 0.00023022
3810.0 0.00022075
3830.0 0.00022694
3850.0 0.00025987
3870.0 0.00027409
3890.0 0.000267
3910.0 0.00026593
3930.0 0.00027604
3950.0 0.00028431
3970.0 0.00026343
3990.0 0.0002206
4010.0 0.00064466
4030.0 0.00077342
4050.0 0.00088654
4070.0 0.00078039
4090.0 0.00070841
4110.0 0.0006218
4130.0 0.00058376
4150.0 0.00063581
4170.0 0.00061285
4190.0 0.00064386
4210.0 0.00064461
4230.0 0.00069077
4250.0 0.00081942
4270.0 0.00083508
4290.0 0.0007651
4310.0 0.00078657
4330.0 0.00083066
4350.0 0.00094191
4370.0 0.0010793
4390.0 0.00099689
4410.0 0.00071929
4430.0 0.00060213
4450.0 0.00055454
4470.0 0.00041828
4490.0 0.00046487
4510.0 0.00072987
4530.0 0.00084737
4550.0 0.00084597
4570.0 0.00093097
4590.0 0.0010539
4610.0 0.0014764
4630.0 0.001937
4650.0 0.0020701
4670.0 0.0019062
4690.0 0.0018283
4710.0 0.0019292
4730.0 0.0017984
4750.0 0.0013293
4770.0 0.00096761
4790.0 0.00091623
4810.0 0.00088257
4830.0 0.00081436
4850.0 0.00089199
4870.0 0.0011787
4890.0 0.001387
4910.0 0.0012035
4930.0 0.0010756
4950.0 0.0011877
4970.0 0.0015279
4990.0 0.0020703
5010.0 0.002385
5030.0 0.0020829
5050.0 0.0013973
5070.0 0.00092738
5090.0 0.00074201
5110.0 0.00075604
5130.0 0.00087692
5150.0 0.00094128
5170.0 0.00092329
5190.0 0.00085863
5210.0 0.0009034
5230.0 0.0009641
5250.0 0.0010473
5270.0 0.0011128
5290.0 0.0012293
5310.0 0.0014509
5330.0 0.0016028
5350.0 0.0015913
5370.0 0.001682
5390.0 0.001948
5410.0 0.0019162
5430.0 0.0016741
5450.0 0.0015513
5470.0 0.0016608
5490.0 0.0020324
5510.0 0.0025325
5530.0 0.0029085
5550.0 0.002793
5570.0 0.0025363
5590.0 0.0021937
5610.0 0.002041
5630.0 0.0020104
5650.0 0.0019058
5670.0 0.0017994
5690.0 0.001592
5710.0 0.0015608
5730.0 0.0014453
5750.0 0.0009953
5770.0 0.00076985
5790.0 0.00087868
5810.0 0.00098524
5830.0 0.0012359
5850.0 0.0014864
5870.0 0.0016451
5890.0 0.0016631
5910.0 0.0016309
5930.0 0.0015531
5950.0 0.001584
5970.0 0.0018224
5990.0 0.00169
6010.0 0.0014058
6030.0 0.0011844
6050.0 0.0010339
6070.0 0.0010463
6090.0 0.0011381
6110.0 0.0012605
6130.0 0.001269
6150.0 0.001083
6170.0 0.00094069
6190.0 0.0010639
6210.0 0.0014303
6230.0 0.0019021
6250.0 0.0020611
6270.0 0.001777
6290.0 0.001498
6310.0 0.0011668
6330.0 0.00088962
6350.0 0.00080096
6370.0 0.00084212
6390.0 0.00097622
6410.0 0.0012106
6430.0 0.0014183
6450.0 0.0016352
6470.0 0.0018544
6490.0 0.0022368
6510.0 0.0025016
6530.0 0.0024671
6550.0 0.0022352
6570.0 0.0018824
6590.0 0.0017056
6610.0 0.0014641
6630.0 0.0013477
6650.0 0.0012794
6670.0 0.0012257
6690.0 0.0010876
6710.0 0.00099643
6730.0 0.00068419
6750.0 0.00069646
6770.0 0.00078964
6790.0 0.0009249
6810.0 0.00081838
6830.0 0.00084181
6850.0 0.00077675
6870.0 0.00071077
6890.0 0.00067355
6910.0 0.00072848
6930.0 0.0006829
6950.0 0.0007146
6970.0 0.00075134
6990.0 0.00085068
7010.0 0.00085251
7030.0 0.00088015
7050.0 0.00082972
7070.0 0.00077832
7090.0 0.00078701
7110.0 0.00081377
7130.0 0.00088332
7150.0 0.00094549
7170.0 0.0010459
7190.0 0.0011468
7210.0 0.001114
7230.0 0.0011434
7250.0 0.0012275
7270.0 0.0013338
7290.0 0.0015915
7310.0 0.001724
7330.0 0.0016621
7350.0 0.0015019
7370.0 0.0012847
7390.0 0.0012532
7410.0 0.0013521
7430.0 0.0015075
7450.0 0.00164
7470.0 0.0016086
7490.0 0.0014419
7510.0 0.0017002
7530.0 0.0016663
7550.0 0.001509
7570.0 0.0011597
7590.0 0.000765
7610.0 0.00064752
7630.0 0.00075201
7650.0 0.00089974
7670.0 0.0011499
7690.0 0.0012665
7710.0 0.0012991
7730.0 0.0013581
7750.0 0.0015514
7770.0 0.0015785
7790.0 0.0014487
7810.0 0.0013033
7830.0 0.0013519
7850.0 0.0013333
7870.0 0.0012324
7890.0 0.0010257
7910.0 0.00081652
7930.0 0.00078718
7950.0 0.00071671
7970.0 0.00065673
7990.0 0.00064699
8010.0 8.906e-05
8030.0 8.2858e-05
8050.0 8.6828e-05
8070.0 9.6501e-05
8090.0 0.000116
8110.0 0.00011103
8130.0 7.0678e-05
8150.0 7.3393e-05
8170.0 4.6205e-05
8190.0 3.3018e-05
8210.0 7.0579e-05
8230.0 8.3748e-05
8250.0 4.5428e-05
8270.0 3.6971e-05
8290.0 5.5356e-05
8310.0 4.7591e-05
8330.0 3.0478e-05
8350.0 2.3139e-05
8370.0 7.4809e-06
8390.0 2.5618e-05
8410.0 2.9237e-05
8430.0 3.6035e-05
8450.0 4.1503e-05
8470.0 6.3965e-05
8490.0 5.5949e-05
8510.0 4.7104e-05
8530.0 3.4147e-05
8550.0 7.8508e-05
8570.0 0.00011071
8590.0 8.9278e-05
8610.0 0.00012653
8630.0 0.00014383
8650.0 0.00010623
8670.0 0.00013327
8690.0 0.00017229
8710.0 0.00014977
8730.0 0.00015228
8750.0 0.00012399
8770.0 0.0001126
8790.0 0.00011913
8810.0 0.00012414
8830.0 7.8103e-05
8850.0 4.1549e-05
8870.0 2.9974e-05
8890.0 5.117e-05
8910.0 7.4672e-05
8930.0 9.6308e-05
8950.0 0.00010346
8970.0 0.00010013
8990.0 7.6194e-05
9010.0 0.00032466
9030.0 0.00028214
9050.0 0.0002851
9070.0 0.000289
9090.0 0.00029232
9110.0 0.00029643
9130.0 0.00029949
9150.0 0.00030176
9170.0 0.00030417
9190.0 0.00030676
9210.0 0.00030948
9230.0 0.00031235
9250.0 0.00031524
9270.0 0.00031825
9290.0 0.00032133
9310.0 0.00032442
9330.0 0.00032755
9350.0 0.0003308
9370.0 0.00033407
9390.0 0.00033736
9410.0 0.00034073
9430.0 0.00034421
9450.0 0.00034765
9470.0 0.00035116
9490.0 0.00035476
9510.0 0.0003584
9530.0 0.00036204
9550.0 0.00036582
9570.0 0.00036965
9590.0 0.00037347
9610.0 0.00037737
9630.0 0.00038136
9650.0 0.00038539
9670.0 0.0003894
9690.0 0.00039353
9710.0 0.00039772
9730.0 0.00040191
9750.0 0.00040616
9770.0 0.00041055
9790.0 0.00041491
9810.0 0.00041929
9830.0 0.00042377
9850.0 0.0004283
9870.0 0.00043281
9890.0 0.00043739
9910.0 0.00044207
9930.0 0.00044674
9950.0 0.00045143
9970.0 0.00045621
9990.0 0.00046105
10010.0 0.00040139
10030.0 0.00040557
10050.0 0.00040983
10070.0 0.00041415
10090.0 0.00041834
10110.0 0.00042263
10130.0 0.00042693
10150.0 0.0004312
10170.0 0.00043553
10190.0 0.00043993
10210.0 0.00044427
10230.0 0.0004486
10250.0 0.000453
10270.0 0.00045739
10290.0 0.00046173
10310.0 0.00046612
10330.0 0.00047057
10350.0 0.00047493
10370.0 0.00047928
10390.0 0.00048368
10410.0 0.00048806
10430.0 0.00049235
10450.0 0.00049669
10470.0 0.00050104
10490.0 0.00050531
10510.0 0.00050955
10530.0 0.00051386
10550.0 0.0005181
10570.0 0.00052225
10590.0 0.00052642
10610.0 0.00053059
10630.0 0.00053465
10650.0 0.00053867
10670.0 0.00054274
10690.0 0.00054673
10710.0 0.00055062
10730.0 0.00055453
10750.0 0.00055844
10770.0 0.00056218
10790.0 0.0005659
10810.0 0.00056961
10830.0 0.0005732
10850.0 0.00057661
10870.0 0.00057994
10890.0 0.00058291
10910.0 0.00058527
10930.0 0.00058677
10950.0 0.00058691
10970.0 0.00058523
10990.0 0.00058156
11010.0 0.00054647
11030.0 0.00053782
11050.0 0.00052722
11070.0 0.00051453
11090.0 0.00049927
11110.0 0.00048348
11130.0 0.00046701
11150.0 0.00044929
11170.0 0.00043104
11190.0 0.00041334
11210.0 0.00039508
11230.0 0.00037637
11250.0 0.00035851
11270.0 0.00034136
11290.0 0.0003242
11310.0 0.00030794
11330.0 0.00029361
11350.0 0.00028008
11370.0 0.00026756
11390.0 0.00025672
11410.0 0.00024722
11430.0 0.00023838
11450.0 0.00023074
11470.0 0.00022411
11490.0 0.00021793
11510.0 0.00021197
11530.0 0.00020643
11550.0 0.00020093
11570.0 0.00019507
11590.0 0.00018901
11610.0 0.00018285
11630.0 0.00017616
11650.0 0.00016901
11670.0 0.00016197
11690.0 0.00015484
11710.0 0.0001475
11730.0 0.00014038
11750.0 0.00013379
11770.0 0.00012732
11790.0 0.00012126
11810.0 0.00011592
11830.0 0.00011113
11850.0 0.00010671
11870.0 0.000103
11890.0 9.991e-05
11910.0 9.7182e-05
11930.0 9.4828e-05
11950.0 9.2859e-05
11970.0 9.1093e-05
11990.0 8.9423e-05
12010.0 8.7877e-05
12030.0 8.6389e-05
12050.0 8.4855e-05
12070.0 8.3264e-05
12090.0 8.1732e-05
12110.0 8.0179e-05
12130.0 7.8624e-05
12150.0 7.7186e-05
12170.0 7.5923e-05
12190.0 7.4821e-05
12210.0 7.4031e-05
12230.0 7.3615e-05
12250.0 7.3603e-05
12270.0 7.4088e-05
12290.0 7.5066e-05
12310.0 7.65e-05
12330.0 7.8531e-05
12350.0 8.1082e-05
12370.0 8.3997e-05
12390.0 8.7367e-05
12410.0 9.1325e-05
12430.0 9.535e-05
12450.0 9.9521e-05
12470.0 0.00010396
12490.0 0.00010841
12510.0 0.00011259
12530.0 0.00011675
12550.0 0.00012076
12570.0 0.00012429
12590.0 0.00012739
12610.0 0.00013015
12630.0 0.00013234
12650.0 0.00013384
12670.0 0.00013481
12690.0 0.00013518
12710.0 0.00013493
12730.0 0.00013411
12750.0 0.00013268
12770.0 0.00013073
12790.0 0.00012837
12810.0 0.00012556
12830.0 0.00012232
12850.0 0.00011893
12870.0 0.00011536
12890.0 0.00011149
12910.0 0.00010757
12930.0 0.0001037
12950.0 9.9669e-05
12970.0 9.5571e-05
12990.0 9.1695e-05
13010.0 8.787e-05
13030.0 8.4006e-05
13050.0 8.0295e-05
13070.0 7.6819e-05
13090.0 7.3332e-05
13110.0 6.9958e-05
13130.0 6.6846e-05
13150.0 6.3898e-05
13170.0 6.101e-05
13190.0 5.8437e-05
13210.0 5.6168e-05
13230.0 5.4091e-05
13250.0 5.2297e-05
13270.0 5.0876e-05
13290.0 4.9763e-05
13310.0 4.8985e-05
13330.0 4.8613e-05
13350.0 4.862e-05
13370.0 4.9026e-05
13390.0 4.9856e-05
13410.0 5.0991e-05
13430.0 5.2477e-05
13450.0 5.4322e-05
13470.0 5.6377e-05
13490.0 5.8559e-05
13510.0 6.1027e-05
13530.0 6.3533e-05
13550.0 6.5937e-05
13570.0 6.8311e-05
13590.0 7.063e-05
13610.0 7.2697e-05
13630.0 7.4505e-05
13650.0 7.616e-05
13670.0 7.7537e-05
13690.0 7.8605e-05
13710.0 7.9436e-05
13730.0 8.0034e-05
13750.0 8.0339e-05
13770.0 8.0418e-05
13790.0 8.0282e-05
13810.0 7.9936e-05
13830.0 7.9418e-05
13850.0 7.8711e-05
13870.0 7.7818e-05
13890.0 7.6794e-05
13910.0 7.5639e-05
13930.0 7.4301e-05
13950.0 7.284e-05
13970.0 7.1345e-05
13990.0 6.9718e-05
14010.0 6.7988e-05
14030.0 6.6262e-05
14050.0 6.4523e-05
14070.0 6.2688e-05
14090.0 6.0929e-05
14110.0 5.9276e-05
14130.0 5.7674e-05
14150.0 5.6165e-05
14170.0 5.4876e-05
14190.0 5.376e-05
14210.0 5.2813e-05
14230.0 5.2109e-05
14250.0 5.1652e-05
14270.0 5.1427e-05
14290.0 5.1466e-05
14310.0 5.1747e-05
14330.0 5.2257e-05
14350.0 5.3011e-05
14370.0 5.3953e-05
14390.0 5.5026e-05
14410.0 5.6291e-05
14430.0 5.7683e-05
14450.0 5.9106e-05
14470.0 6.0585e-05
14490.0 6.216e-05
14510.0 6.3668e-05
14530.0 6.5102e-05
14550.0 6.6537e-05
14570.0 6.7916e-05
14590.0 6.9173e-05
14610.0 7.0388e-05
14630.0 7.1591e-05
14650.0 7.2712e-05
14670.0 7.3793e-05
14690.0 7.4919e-05
14710.0 7.6102e-05
14730.0 7.7284e-05
14750.0 7.8593e-05
14770.0 8.0078e-05
14790.0 8.1687e-05
14810.0 8.3432e-05
14830.0 8.5499e-05
14850.0 8.7749e-05
14870.0 9.0097e-05
14890.0 9.2632e-05
14910.0 9.5326e-05
14930.0 9.7919e-05
14950.0 0.00010034
14970.0 0.00010264
14990.0 0.00010457
15010.0 0.00010605
15030.0 0.00010715
15050.0 0.00010788
15070.0 0.00010825
15090.0 0.00010839
15110.0 0.00010837
15130.0 0.00010824
15150.0 0.00010808
15170.0 0.00010787
15190.0 0.00010766
15210.0 0.00010744
15230.0 0.00010723
15250.0 0.00010701
15270.0 0.00010679
15290.0 0.00010658
15310.0 0.00010637
15330.0 0.00010615
15350.0 0.00010595
15370.0 0.00010574
15390.0 0.00010553
15410.0 0.00010532
15430.0 0.00010512
15450.0 0.00010491
15470.0 0.0001047
15490.0 0.00010451
15510.0 0.00010431
15530.0 0.0001041
15550.0 0.0001039
15570.0 0.00010371
15590.0 0.00010351
15610.0 0.00010331
15630.0 0.00010311
15650.0 0.00010292
15670.0 0.00010272
15690.0 0.00010253
15710.0 0.00010234
15730.0 0.00010214
15750.0 0.00010195
15770.0 0.00010176
15790.0 0.00010157
15810.0 0.00010137
15830.0 0.00010118
15850.0 0.000101
15870.0 0.0001008
15890.0 0.00010061
15910.0 0.00010043
15930.0 0.00010024
15950.0 0.00010004
15970.0 9.9855e-05
15990.0 9.9671e-05
16010.0 9.9479e-05
16030.0 9.9284e-05
16050.0 9.9103e-05
16070.0 9.8916e-05
16090.0 9.8723e-05
16110.0 9.8537e-05
16130.0 9.8355e-05
16150.0 9.8159e-05
16170.0 9.7966e-05
16190.0 9.7783e-05
16210.0 9.7594e-05
16230.0 9.7399e-05
16250.0 9.7213e-05
16270.0 9.7029e-05
16290.0 9.6835e-05
16310.0 9.6643e-05
16330.0 9.6458e-05
16350.0 9.6268e-05
16370.0 9.6066e-05
16390.0 9.5879e-05
16410.0 9.5692e-05
16430.0 9.5496e-05
16450.0 9.5302e-05
16470.0 9.5117e-05
16490.0 9.4921e-05
16510.0 9.4722e-05
16530.0 9.453e-05
16550.0 9.4339e-05
16570.0 9.4137e-05
16590.0 9.3937e-05
16610.0 9.3749e-05
16630.0 9.3551e-05
16650.0 9.3349e-05
16670.0 9.3156e-05
16690.0 9.2961e-05
16710.0 9.2753e-05
16730.0 9.2552e-05
16750.0 9.2356e-05
16770.0 9.2153e-05
16790.0 9.1945e-05
16810.0 9.1748e-05
16830.0 9.1548e-05
16850.0 9.1339e-05
16870.0 9.1134e-05
16890.0 9.0935e-05
16910.0 9.0724e-05
16930.0 9.051e-05
16950.0 9.0307e-05
16970.0 9.0101e-05
16990.0 8.9887e-05
17010.0 8.9677e-05
17030.0 8.9474e-05
17050.0 8.9258e-05
17070.0 8.9042e-05
17090.0 8.8834e-05
17110.0 8.8622e-05
17130.0 8.8398e-05
17150.0 8.8183e-05
17170.0 8.7973e-05
17190.0 8.7753e-05
17210.0 8.7533e-05
17230.0 8.7321e-05
17250.0 8.7102e-05
17270.0 8.6874e-05
17290.0 8.6655e-05
17310.0 8.6437e-05
17330.0 8.6211e-05
17350.0 8.5982e-05
17370.0 8.5765e-05
17390.0 8.5541e-05
17410.0 8.5311e-05
17430.0 8.5087e-05
17450.0 8.4866e-05
17470.0 8.4629e-05
17490.0 8.4397e-05
17510.0 8.4173e-05
17530.0 8.3943e-05
17550.0 8.3706e-05
17570.0 8.3478e-05
17590.0 8.3251e-05
17610.0 8.3012e-05
17630.0 8.2777e-05
17650.0 8.2548e-05
17670.0 8.2311e-05
17690.0 8.2064e-05
17710.0 8.1833e-05
17730.0 8.1599e-05
17750.0 8.1356e-05
17770.0 8.1116e-05
17790.0 8.0885e-05
17810.0 8.0641e-05
17830.0 8.0395e-05
17850.0 8.0157e-05
17870.0 7.9917e-05
17890.0 7.9668e-05
17910.0 7.9421e-05
17930.0 7.9185e-05
17950.0 7.8939e-05
17970.0 7.869e-05
17990.0 7.8449e-05
18010.0 7.8206e-05
18030.0 7.795e-05
18050.0 7.7702e-05
18070.0 7.7459e-05
18090.0 7.7208e-05
18110.0 7.6953e-05
18130.0 7.6709e-05
18150.0 7.6462e-05
18170.0 7.6206e-05
18190.0 7.5955e-05
18210.0 7.571e-05
18230.0 7.5452e-05
18250.0 7.5193e-05
18270.0 7.4946e-05
18290.0 7.4694e-05
18310.0 7.4435e-05
18330.0 7.4182e-05
18350.0 7.3934e-05
18370.0 7.3674e-05
18390.0 7.3415e-05
18410.0 7.3164e-05
18430.0 7.2909e-05
18450.0 7.2643e-05
18470.0 7.2388e-05
18490.0 7.2137e-05
18510.0 7.1876e-05
18530.0 7.1616e-05
18550.0 7.1365e-05
18570.0 7.1106e-05
18590.0 7.084e-05
18610.0 7.0583e-05
18630.0 7.0328e-05
18650.0 7.0064e-05
18670.0 6.9799e-05
18690.0 6.9547e-05
18710.0 6.9288e-05
18730.0 6.9023e-05
18750.0 6.8765e-05
18770.0 6.851e-05
18790.0 6.824e-05
18810.0 6.7977e-05
18830.0 6.7721e-05
18850.0 6.746e-05
18870.0 6.7192e-05
18890.0 6.6935e-05
18910.0 6.6679e-05
18930.0 6.6411e-05
18950.0 6.6148e-05
18970.0 6.5892e-05
18990.0 6.5629e-05
19010.0 6.5356e-05
19030.0 6.51e-05
19050.0 6.4841e-05
19070.0 6.4575e-05
19090.0 6.4312e-05
19110.0 6.4058e-05
19130.0 6.3791e-05
19150.0 6.3524e-05
19170.0 6.3265e-05
19190.0 6.3006e-05
19210.0 6.2736e-05
19230.0 6.2472e-05
19250.0 6.2218e-05
19270.0 6.1954e-05
19290.0 6.1688e-05
19310.0 6.1431e-05
19330.0 6.1172e-05
19350.0 6.0901e-05
19370.0 6.0639e-05
19390.0 6.0382e-05
19410.0 6.0118e-05
19430.0 5.9851e-05
19450.0 5.9596e-05
19470.0 5.9337e-05
19490.0 5.907e-05
19510.0 5.881e-05
19530.0 5.8555e-05
19550.0 5.8288e-05
19570.0 5.8021e-05
19590.0 5.7767e-05
19610.0 5.7507e-05
19630.0 5.7242e-05
19650.0 5.6984e-05
19670.0 5.673e-05
19690.0 5.6465e-05
19710.0 5.6202e-05
19730.0 5.5947e-05
19750.0 5.5688e-05
19770.0 5.542e-05
19790.0 5.5163e-05
19810.0 5.491e-05
19830.0 5.4646e-05
19850.0 5.4382e-05
19870.0 5.4122e-05
19890.0 5.3844e-05
19910.0 5.354e-05
19930.0 5.3214e-05
19950.0 5.2843e-05
19970.0 5.2389e-05
19990.0 5.1843e-05
20010.0 4.6222e-05
20030.0 4.5547e-05
20050.0 4.4759e-05
20070.0 4.3906e-05
20090.0 4.2989e-05
20110.0 4.1952e-05
20130.0 4.0904e-05
20150.0 3.9866e-05
20170.0 3.879e-05
20190.0 3.77e-05
20210.0 3.667e-05
20230.0 3.5666e-05
20250.0 3.466e-05
20270.0 3.3726e-05
20290.0 3.2874e-05
20310.0 3.2064e-05
20330.0 3.1306e-05
20350.0 3.0677e-05
20370.0 3.0118e-05
20390.0 2.9627e-05
20410.0 2.9229e-05
20430.0 2.8922e-05
20450.0 2.8677e-05
20470.0 2.8512e-05
20490.0 2.8421e-05
20510.0 2.8392e-05
20530.0 2.8423e-05
20550.0 2.8508e-05
20570.0 2.8632e-05
20590.0 2.8802e-05
20610.0 2.9009e-05
20630.0 2.9237e-05
20650.0 2.9494e-05
20670.0 2.9787e-05
20690.0 3.0087e-05
20710.0 3.0397e-05
20730.0 3.0732e-05
20750.0 3.1081e-05
20770.0 3.1425e-05
20790.0 3.1786e-05
20810.0 3.2167e-05
20830.0 3.2546e-05
20850.0 3.2927e-05
20870.0 3.3334e-05
20890.0 3.3749e-05
20910.0 3.4149e-05
20930.0 3.4564e-05
20950.0 3.4993e-05
20970.0 3.5411e-05
20990.0 3.5824e-05
21010.0 3.6257e-05
21030.0 3.6681e-05
21050.0 3.7085e-05
21070.0 3.7488e-05
21090.0 3.7892e-05
21110.0 3.826e-05
21130.0 3.8606e-05
21150.0 3.8941e-05
21170.0 3.9244e-05
21190.0 3.9504e-05
21210.0 3.9738e-05
21230.0 3.9932e-05
21250.0 4.007e-05
21270.0 4.0157e-05
21290.0 4.0188e-05
21310.0 4.0154e-05
21330.0 4.0058e-05
21350.0 3.989e-05
21370.0 3.9644e-05
21390.0 3.9333e-05
21410.0 3.8953e-05
21430.0 3.8471e-05
21450.0 3.7931e-05
21470.0 3.7342e-05
21490.0 3.6677e-05
21510.0 3.5947e-05
21530.0 3.5206e-05
21550.0 3.443e-05
21570.0 3.3602e-05
21590.0 3.2787e-05
21610.0 3.2001e-05
21630.0 3.1213e-05
21650.0 3.0444e-05
21670.0 2.9777e-05
21690.0 2.9162e-05
21710.0 2.8608e-05
21730.0 2.8154e-05
21750.0 2.7803e-05
21770.0 2.7535e-05
21790.0 2.7381e-05
21810.0 2.7336e-05
21830.0 2.7395e-05
21850.0 2.7563e-05
21870.0 2.7827e-05
21890.0 2.8168e-05
21910.0 2.8606e-05
21930.0 2.912e-05
21950.0 2.9677e-05
21970.0 3.0294e-05
21990.0 3.0988e-05
22010.0 3.168e-05
22030.0 3.2384e-05
22050.0 3.3123e-05
22070.0 3.3867e-05
22090.0 3.457e-05
22110.0 3.528e-05
22130.0 3.5989e-05
22150.0 3.6651e-05
22170.0 3.7274e-05
22190.0 3.7893e-05
22210.0 3.8468e-05
22230.0 3.8974e-05
22250.0 3.9451e-05
22270.0 3.989e-05
22290.0 4.0265e-05
22310.0 4.0586e-05
22330.0 4.0869e-05
22350.0 4.1087e-05
22370.0 4.1241e-05
22390.0 4.1336e-05
22410.0 4.1365e-05
22430.0 4.1324e-05
22450.0 4.1217e-05
22470.0 4.1032e-05
22490.0 4.0773e-05
22510.0 4.045e-05
22530.0 4.0038e-05
22550.0 3.9537e-05
22570.0 3.8981e-05
22590.0 3.8355e-05
22610.0 3.7634e-05
22630.0 3.6855e-05
22650.0 3.6049e-05
22670.0 3.5158e-05
22690.0 3.4208e-05
22710.0 3.3248e-05
22730.0 3.226e-05
22750.0 3.1189e-05
