#lamb flux
1010.0 8.4275e-05
1030.0 8.4624e-05
1050.0 8.5008e-05
1070.0 8.7001e-05
1090.0 9.248e-05
1110.0 9.6737e-05
1130.0 9.9776e-05
1150.0 0.00010221
1170.0 0.00010399
1190.0 0.00010451
1210.0 0.00010463
1230.0 0.00010459
1250.0 0.00010415
1270.0 0.00010335
1290.0 0.00010283
1310.0 0.00010228
1330.0 0.00010155
1350.0 0.00010105
1370.0 0.00010094
1390.0 0.00010099
1410.0 0.00010131
1430.0 0.00010229
1450.0 0.00010383
1470.0 0.00010589
1490.0 0.00010876
1510.0 0.00011271
1530.0 0.00011744
1550.0 0.00012323
1570.0 0.00013041
1590.0 0.00013903
1610.0 0.00014906
1630.0 0.0001611
1650.0 0.00017528
1670.0 0.00019157
1690.0 0.00021028
1710.0 0.000232
1730.0 0.00025685
1750.0 0.00028463
1770.0 0.00031623
1790.0 0.0003519
1810.0 0.00039146
1830.0 0.00043516
1850.0 0.00048398
1870.0 0.00053715
1890.0 0.00059451
1910.0 0.00065658
1930.0 0.0007233
1950.0 0.00079332
1970.0 0.0008666
1990.0 0.00094342
2010.0 0.0010222
2030.0 0.0011018
2050.0 0.0011826
2070.0 0.0012637
2090.0 0.0013423
2110.0 0.0014187
2130.0 0.0014927
2150.0 0.0015624
2170.0 0.0016264
2190.0 0.0016861
2210.0 0.0017404
2230.0 0.0017874
2250.0 0.0018281
2270.0 0.0018637
2290.0 0.0018922
2310.0 0.0019135
2330.0 0.00193
2350.0 0.0019414
2370.0 0.001947
2390.0 0.0019488
2410.0 0.0019487
2430.0 0.0019455
2450.0 0.0019404
2470.0 0.0019359
2490.0 0.0019332
2510.0 0.0019314
2530.0 0.0019361
2550.0 0.0019542
2570.0 0.0019911
2590.0 0.0020542
2610.0 0.0021655
2630.0 0.0023285
2650.0 0.0025342
2670.0 0.0027891
2690.0 0.0030903
2710.0 0.0034032
2730.0 0.0037148
2750.0 0.0040421
2770.0 0.0043641
2790.0 0.0046724
2810.0 0.004988
2830.0 0.0053289
2850.0 0.0056611
2870.0 0.0060027
2890.0 0.0063706
2910.0 0.0067522
2930.0 0.0071328
2950.0 0.0075417
2970.0 0.0079754
2990.0 0.0084137
3010.0 0.0088662
3030.0 0.0093505
3050.0 0.0098502
3070.0 0.010337
3090.0 0.010834
3110.0 0.011317
3130.0 0.011749
3150.0 0.012118
3170.0 0.012412
3190.0 0.012618
3210.0 0.012766
3230.0 0.012889
3250.0 0.013033
3270.0 0.013253
3290.0 0.013578
3310.0 0.014034
3330.0 0.014609
3350.0 0.015266
3370.0 0.015992
3390.0 0.016739
3410.0 0.017498
3430.0 0.019035
3450.0 0.020172
3470.0 0.021176
3490.0 0.0215
3510.0 0.021219
3530.0 0.024043
3550.0 0.028602
3570.0 0.031446
3590.0 0.033603
3610.0 0.033886
3630.0 0.032143
3650.0 0.034546
3670.0 0.041323
3690.0 0.046434
3710.0 0.048483
3730.0 0.049631
3750.0 0.052213
3770.0 0.052332
3790.0 0.050158
3810.0 0.047208
3830.0 0.044034
3850.0 0.043911
3870.0 0.046593
3890.0 0.049224
3910.0 0.05126
3930.0 0.051877
3950.0 0.055358
3970.0 0.059141
3990.0 0.056975
4010.0 0.050894
4030.0 0.0452
4050.0 0.04351
4070.0 0.045296
4090.0 0.045663
4110.0 0.04438
4130.0 0.04382
4150.0 0.044982
4170.0 0.049654
4190.0 0.053771
4210.0 0.052086
4230.0 0.048619
4250.0 0.046751
4270.0 0.045688
4290.0 0.046499
4310.0 0.047892
4330.0 0.04561
4350.0 0.040121
4370.0 0.035517
4390.0 0.032356
4410.0 0.029869
4430.0 0.02988
4450.0 0.032502
4470.0 0.035145
4490.0 0.038248
4510.0 0.043269
4530.0 0.052933
4550.0 0.063889
4570.0 0.070466
4590.0 0.075354
4610.0 0.081025
4630.0 0.083769
4650.0 0.078032
4670.0 0.065464
4690.0 0.055643
4710.0 0.05227
4730.0 0.050527
4750.0 0.045277
4770.0 0.041083
4790.0 0.042666
4810.0 0.046366
4830.0 0.046167
4850.0 0.042559
4870.0 0.041687
4890.0 0.043491
4910.0 0.045499
4930.0 0.045447
4950.0 0.044188
4970.0 0.042091
4990.0 0.038687
5010.0 0.035532
5030.0 0.033741
5050.0 0.032912
5070.0 0.032353
5090.0 0.031835
5110.0 0.031788
5130.0 0.032277
5150.0 0.03409
5170.0 0.037646
5190.0 0.041964
5210.0 0.046466
5230.0 0.049174
5250.0 0.050552
5270.0 0.053085
5290.0 0.055543
5310.0 0.056082
5330.0 0.053927
5350.0 0.051439
5370.0 0.051382
5390.0 0.05409
5410.0 0.056699
5430.0 0.057556
5450.0 0.057155
5470.0 0.055424
5490.0 0.053317
5510.0 0.05222
5530.0 0.05238
5550.0 0.053097
5570.0 0.05355
5590.0 0.051898
5610.0 0.048877
5630.0 0.045918
5650.0 0.043588
5670.0 0.042143
5690.0 0.040388
5710.0 0.039036
5730.0 0.039558
5750.0 0.039422
5770.0 0.038549
5790.0 0.038839
5810.0 0.039684
5830.0 0.04047
5850.0 0.040718
5870.0 0.039823
5890.0 0.03807
5910.0 0.036077
5930.0 0.033273
5950.0 0.031258
5970.0 0.031172
5990.0 0.032109
6010.0 0.032444
6030.0 0.031297
6050.0 0.030828
6070.0 0.032017
6090.0 0.033603
6110.0 0.034194
6130.0 0.033025
6150.0 0.0311
6170.0 0.029835
6190.0 0.028582
6210.0 0.027244
6230.0 0.026226
6250.0 0.025913
6270.0 0.026583
6290.0 0.027787
6310.0 0.029334
6330.0 0.031031
6350.0 0.03244
6370.0 0.033072
6390.0 0.033138
6410.0 0.033485
6430.0 0.033895
6450.0 0.034009
6470.0 0.034446
6490.0 0.034973
6510.0 0.035118
6530.0 0.034742
6550.0 0.033759
6570.0 0.032519
6590.0 0.031571
6610.0 0.03087
6630.0 0.030254
6650.0 0.029214
6670.0 0.027979
6690.0 0.027056
6710.0 0.026484
6730.0 0.026307
6750.0 0.025985
6770.0 0.025463
6790.0 0.025068
6810.0 0.024752
6830.0 0.024688
6850.0 0.024706
6870.0 0.024515
6890.0 0.024362
6910.0 0.023851
6930.0 0.023294
6950.0 0.023165
6970.0 0.022775
6990.0 0.022064
7010.0 0.021726
7030.0 0.021454
7050.0 0.020971
7070.0 0.020399
7090.0 0.019992
7110.0 0.020202
7130.0 0.020988
7150.0 0.021886
7170.0 0.022465
7190.0 0.022296
7210.0 0.021864
7230.0 0.021581
7250.0 0.021295
7270.0 0.02111
7290.0 0.020838
7310.0 0.020704
7330.0 0.021063
7350.0 0.021476
7370.0 0.021695
7390.0 0.021483
7410.0 0.020957
7430.0 0.020703
7450.0 0.02047
7470.0 0.019474
7490.0 0.018748
7510.0 0.017966
7530.0 0.017397
7550.0 0.017331
7570.0 0.017543
7590.0 0.017448
7610.0 0.017283
7630.0 0.017217
7650.0 0.017154
7670.0 0.017489
7690.0 0.018133
7710.0 0.018895
7730.0 0.019477
7750.0 0.020047
7770.0 0.020334
7790.0 0.020292
7810.0 0.019993
7830.0 0.020214
7850.0 0.020193
7870.0 0.019547
7890.0 0.018851
7910.0 0.01826
7930.0 0.01766
7950.0 0.017242
7970.0 0.017184
7990.0 0.017404
8010.0 0.01722
8030.0 0.017028
8050.0 0.016743
8070.0 0.016429
8090.0 0.0161
8110.0 0.016127
8130.0 0.016257
8150.0 0.016236
8170.0 0.016123
8190.0 0.015794
8210.0 0.015
8230.0 0.013992
8250.0 0.013372
8270.0 0.01298
8290.0 0.012735
8310.0 0.012776
8330.0 0.012984
8350.0 0.012709
8370.0 0.012417
8390.0 0.012647
8410.0 0.013228
8430.0 0.014078
8450.0 0.014903
8470.0 0.015241
8490.0 0.015506
8510.0 0.015582
8530.0 0.015673
8550.0 0.015862
8570.0 0.01595
8590.0 0.016033
8610.0 0.016481
8630.0 0.016665
8650.0 0.016322
8670.0 0.016318
8690.0 0.016449
8710.0 0.016428
8730.0 0.016294
8750.0 0.01584
8770.0 0.01564
8790.0 0.015529
8810.0 0.015347
8830.0 0.014488
8850.0 0.013336
8870.0 0.012494
8890.0 0.012019
8910.0 0.011314
8930.0 0.010537
8950.0 0.010144
8970.0 0.010094
8990.0 0.010151
9010.0 0.010103
9030.0 0.010032
9050.0 0.0099657
9070.0 0.0099047
9090.0 0.0098447
9110.0 0.009785
9130.0 0.0097254
9150.0 0.0096661
9170.0 0.0096069
9190.0 0.0095478
9210.0 0.0094885
9230.0 0.0094302
9250.0 0.0093722
9270.0 0.0093142
9290.0 0.0092565
9310.0 0.009199
9330.0 0.0091417
9350.0 0.0090847
9370.0 0.0090279
9390.0 0.0089715
9410.0 0.0089151
9430.0 0.0088587
9450.0 0.0088007
9470.0 0.008744
9490.0 0.0086912
9510.0 0.008637
9530.0 0.0085833
9550.0 0.0085291
9570.0 0.0084752
9590.0 0.0084217
9610.0 0.0083683
9630.0 0.0083151
9650.0 0.0082621
9670.0 0.0082098
9690.0 0.0081575
9710.0 0.0081053
9730.0 0.0080538
9750.0 0.0080023
9770.0 0.0079509
9790.0 0.0078999
9810.0 0.0078493
9830.0 0.0077979
9850.0 0.0077409
9870.0 0.0076925
9890.0 0.0076452
9910.0 0.0075972
9930.0 0.007548
9950.0 0.0075007
9970.0 0.007452
9990.0 0.0074025
10010.0 0.0073472
10030.0 0.0072963
10050.0 0.007252
10070.0 0.0072071
10090.0 0.0071619
10110.0 0.0071131
10130.0 0.0070544
10150.0 0.0070097
10170.0 0.0069673
10190.0 0.0069219
10210.0 0.0068774
10230.0 0.006833
10250.0 0.0067863
10270.0 0.0067397
10290.0 0.0066948
10310.0 0.0066482
10330.0 0.0066003
10350.0 0.0065547
10370.0 0.0065093
10390.0 0.0064622
10410.0 0.0064156
10430.0 0.0063711
10450.0 0.006325
10470.0 0.006278
10490.0 0.0062327
10510.0 0.0061876
10530.0 0.0061399
10550.0 0.0060934
10570.0 0.0060486
10590.0 0.0060024
10610.0 0.0059553
10630.0 0.0059102
10650.0 0.0058649
10670.0 0.0058173
10690.0 0.0057708
10710.0 0.0057255
10730.0 0.0056787
10750.0 0.0056303
10770.0 0.005585
10790.0 0.005539
10810.0 0.0054913
10830.0 0.0054445
10850.0 0.0053993
10870.0 0.0053511
10890.0 0.0053032
10910.0 0.0052574
10930.0 0.0052115
10950.0 0.0051645
10970.0 0.0051196
10990.0 0.0050773
11010.0 0.005178
11030.0 0.0051393
11050.0 0.0051024
11070.0 0.0050651
11090.0 0.0050255
11110.0 0.0049875
11130.0 0.0049497
11150.0 0.0049105
11170.0 0.0048712
11190.0 0.0048341
11210.0 0.0047967
11230.0 0.0047595
11250.0 0.0047246
11270.0 0.0046916
11290.0 0.0046589
11310.0 0.0046278
11330.0 0.0045998
11350.0 0.0045725
11370.0 0.004546
11390.0 0.0045212
11410.0 0.0044975
11430.0 0.004473
11450.0 0.004449
11470.0 0.0044255
11490.0 0.004401
11510.0 0.0043748
11530.0 0.0043485
11550.0 0.004321
11570.0 0.0042909
11590.0 0.0042594
11610.0 0.004227
11630.0 0.0041916
11650.0 0.0041536
11670.0 0.0041154
11690.0 0.0040757
11710.0 0.0040335
11730.0 0.0039906
11750.0 0.0039484
11770.0 0.0039043
11790.0 0.0038593
11810.0 0.0038156
11830.0 0.0037721
11850.0 0.0037268
11870.0 0.0036833
11890.0 0.0036417
11910.0 0.0035997
11930.0 0.0035582
11950.0 0.0035192
11970.0 0.003481
11990.0 0.0034426
12010.0 0.0034065
12030.0 0.0033724
12050.0 0.0033389
12070.0 0.0033063
12090.0 0.0032771
12110.0 0.0032492
12130.0 0.0032224
12150.0 0.003198
12170.0 0.0031761
12190.0 0.0031555
12210.0 0.0031373
12230.0 0.003122
12250.0 0.003109
12270.0 0.0030983
12290.0 0.0030903
12310.0 0.0030846
12330.0 0.0030811
12350.0 0.0030796
12370.0 0.0030797
12390.0 0.0030812
12410.0 0.0030842
12430.0 0.0030876
12450.0 0.003091
12470.0 0.0030947
12490.0 0.0030979
12510.0 0.0030998
12530.0 0.0031007
12550.0 0.0031001
12570.0 0.0030973
12590.0 0.0030924
12610.0 0.003085
12630.0 0.0030748
12650.0 0.0030622
12670.0 0.0030468
12690.0 0.0030284
12710.0 0.003008
12730.0 0.0029855
12750.0 0.0029599
12770.0 0.0029328
12790.0 0.002905
12810.0 0.0028755
12830.0 0.0028444
12850.0 0.0028139
12870.0 0.0027833
12890.0 0.0027515
12910.0 0.0027202
12930.0 0.00269
12950.0 0.002659
12970.0 0.0026279
12990.0 0.0025984
13010.0 0.0025693
13030.0 0.0025398
13050.0 0.0025113
13070.0 0.0024841
13090.0 0.0024566
13110.0 0.0024296
13130.0 0.0024041
13150.0 0.0023794
13170.0 0.0023547
13190.0 0.0023317
13210.0 0.0023104
13230.0 0.0022896
13250.0 0.0022698
13270.0 0.0022517
13290.0 0.0022344
13310.0 0.0022174
13330.0 0.0022016
13350.0 0.0021866
13370.0 0.0021717
13390.0 0.0021568
13410.0 0.0021427
13430.0 0.0021285
13450.0 0.0021138
13470.0 0.0020992
13490.0 0.0020847
13510.0 0.0020692
13530.0 0.0020535
13550.0 0.0020381
13570.0 0.0020222
13590.0 0.0020056
13610.0 0.0019894
13630.0 0.0019734
13650.0 0.0019566
13670.0 0.0019399
13690.0 0.0019237
13710.0 0.0019073
13730.0 0.0018901
13750.0 0.0018738
13770.0 0.0018577
13790.0 0.001841
13810.0 0.0018244
13830.0 0.0018083
13850.0 0.0017917
13870.0 0.0017747
13890.0 0.0017581
13910.0 0.0017416
13930.0 0.0017243
13950.0 0.001707
13970.0 0.0016905
13990.0 0.0016734
14010.0 0.0016559
14030.0 0.0016389
14050.0 0.001622
14070.0 0.0016041
14090.0 0.0015866
14110.0 0.0015698
14130.0 0.0015526
14150.0 0.0015353
14170.0 0.0015191
14190.0 0.0015032
14210.0 0.0014873
14230.0 0.0014723
14250.0 0.0014583
14270.0 0.0014445
14290.0 0.0014312
14310.0 0.0014193
14330.0 0.0014081
14350.0 0.0013973
14370.0 0.0013874
14390.0 0.0013785
14410.0 0.0013698
14430.0 0.0013616
14450.0 0.0013541
14470.0 0.0013469
14490.0 0.0013397
14510.0 0.0013331
14530.0 0.0013269
14550.0 0.0013207
14570.0 0.0013146
14590.0 0.0013089
14610.0 0.0013032
14630.0 0.0012974
14650.0 0.001292
14670.0 0.0012869
14690.0 0.0012818
14710.0 0.0012769
14730.0 0.0012729
14750.0 0.0012692
14770.0 0.0012661
14790.0 0.0012639
14810.0 0.0012627
14830.0 0.0012626
14850.0 0.0012638
14870.0 0.0012662
14890.0 0.00127
14910.0 0.001275
14930.0 0.0012809
14950.0 0.0012871
14970.0 0.0012936
14990.0 0.0012997
15010.0 0.0013049
15030.0 0.0013093
15050.0 0.0013126
15070.0 0.001315
15090.0 0.0013167
15110.0 0.0013179
15130.0 0.0013189
15150.0 0.0013197
15170.0 0.0013205
15190.0 0.0013212
15210.0 0.001322
15230.0 0.0013228
15250.0 0.0013236
15270.0 0.0013245
15290.0 0.0013255
15310.0 0.0013264
15330.0 0.0013274
15350.0 0.0013285
15370.0 0.0013296
15390.0 0.0013307
15410.0 0.0013319
15430.0 0.0013332
15450.0 0.0013344
15470.0 0.0013357
15490.0 0.001337
15510.0 0.0013384
15530.0 0.0013398
15550.0 0.0013413
15570.0 0.0013428
15590.0 0.0013443
15610.0 0.0013458
15630.0 0.0013474
15650.0 0.001349
15670.0 0.0013507
15690.0 0.0013523
15710.0 0.0013541
15730.0 0.0013558
15750.0 0.0013576
15770.0 0.0013594
15790.0 0.0013613
15810.0 0.0013631
15830.0 0.001365
15850.0 0.0013669
15870.0 0.0013689
15890.0 0.0013708
15910.0 0.0013728
15930.0 0.0013749
15950.0 0.0013769
15970.0 0.0013789
15990.0 0.0013811
16010.0 0.0013831
16030.0 0.0013852
16050.0 0.0013874
16070.0 0.0013896
16090.0 0.0013917
16110.0 0.001394
16130.0 0.0013962
16150.0 0.0013984
16170.0 0.0014006
16190.0 0.0014029
16210.0 0.0014052
16230.0 0.0014074
16250.0 0.0014098
16270.0 0.0014121
16290.0 0.0014144
16310.0 0.0014167
16330.0 0.0014191
16350.0 0.0014214
16370.0 0.0014237
16390.0 0.0014261
16410.0 0.0014285
16430.0 0.0014308
16450.0 0.0014331
16470.0 0.0014355
16490.0 0.0014379
16510.0 0.0014402
16530.0 0.0014426
16550.0 0.001445
16570.0 0.0014473
16590.0 0.0014496
16610.0 0.001452
16630.0 0.0014543
16650.0 0.0014566
16670.0 0.001459
16690.0 0.0014613
16710.0 0.0014635
16730.0 0.0014658
16750.0 0.0014681
16770.0 0.0014704
16790.0 0.0014725
16810.0 0.0014748
16830.0 0.001477
16850.0 0.0014792
16870.0 0.0014814
16890.0 0.0014836
16910.0 0.0014857
16930.0 0.0014877
16950.0 0.0014898
16970.0 0.0014919
16990.0 0.0014939
17010.0 0.0014959
17030.0 0.001498
17050.0 0.0014999
17070.0 0.0015018
17090.0 0.0015037
17110.0 0.0015056
17130.0 0.0015073
17150.0 0.0015091
17170.0 0.0015109
17190.0 0.0015126
17210.0 0.0015143
17230.0 0.001516
17250.0 0.0015176
17270.0 0.0015191
17290.0 0.0015206
17310.0 0.0015222
17330.0 0.0015236
17350.0 0.0015249
17370.0 0.0015263
17390.0 0.0015276
17410.0 0.0015289
17430.0 0.0015301
17450.0 0.0015313
17470.0 0.0015324
17490.0 0.0015334
17510.0 0.0015344
17530.0 0.0015354
17550.0 0.0015363
17570.0 0.0015371
17590.0 0.001538
17610.0 0.0015387
17630.0 0.0015394
17650.0 0.00154
17670.0 0.0015406
17690.0 0.001541
17710.0 0.0015415
17730.0 0.0015419
17750.0 0.0015422
17770.0 0.0015425
17790.0 0.0015427
17810.0 0.0015429
17830.0 0.0015429
17850.0 0.0015429
17870.0 0.0015429
17890.0 0.0015427
17910.0 0.0015425
17930.0 0.0015423
17950.0 0.001542
17970.0 0.0015415
17990.0 0.0015411
18010.0 0.0015406
18030.0 0.0015399
18050.0 0.0015393
18070.0 0.0015386
18090.0 0.0015377
18110.0 0.0015368
18130.0 0.0015359
18150.0 0.0015349
18170.0 0.0015337
18190.0 0.0015326
18210.0 0.0015314
18230.0 0.00153
18250.0 0.0015285
18270.0 0.0015271
18290.0 0.0015256
18310.0 0.0015239
18330.0 0.0015222
18350.0 0.0015205
18370.0 0.0015186
18390.0 0.0015167
18410.0 0.0015147
18430.0 0.0015127
18450.0 0.0015104
18470.0 0.0015082
18490.0 0.001506
18510.0 0.0015036
18530.0 0.0015011
18550.0 0.0014986
18570.0 0.001496
18590.0 0.0014933
18610.0 0.0014905
18630.0 0.0014877
18650.0 0.0014848
18670.0 0.0014818
18690.0 0.0014788
18710.0 0.0014757
18730.0 0.0014724
18750.0 0.0014692
18770.0 0.0014659
18790.0 0.0014624
18810.0 0.0014589
18830.0 0.0014554
18850.0 0.0014517
18870.0 0.001448
18890.0 0.0014442
18910.0 0.0014404
18930.0 0.0014365
18950.0 0.0014325
18970.0 0.0014285
18990.0 0.0014244
19010.0 0.0014201
19030.0 0.0014159
19050.0 0.0014116
19070.0 0.0014072
19090.0 0.0014027
19110.0 0.0013983
19130.0 0.0013936
19150.0 0.001389
19170.0 0.0013843
19190.0 0.0013795
19210.0 0.0013747
19230.0 0.0013697
19250.0 0.0013649
19270.0 0.0013598
19290.0 0.0013548
19310.0 0.0013497
19330.0 0.0013445
19350.0 0.0013392
19370.0 0.0013339
19390.0 0.0013286
19410.0 0.0013232
19430.0 0.0013178
19450.0 0.0013123
19470.0 0.0013068
19490.0 0.0013012
19510.0 0.0012955
19530.0 0.0012899
19550.0 0.0012841
19570.0 0.0012783
19590.0 0.0012725
19610.0 0.0012667
19630.0 0.0012607
19650.0 0.0012548
19670.0 0.0012489
19690.0 0.0012428
19710.0 0.0012367
19730.0 0.0012307
19750.0 0.0012245
19770.0 0.0012183
19790.0 0.0012121
19810.0 0.0012059
19830.0 0.0011996
19850.0 0.0011932
19870.0 0.0011868
19890.0 0.0011802
19910.0 0.0011731
19930.0 0.0011657
19950.0 0.0011576
19970.0 0.0011484
19990.0 0.0011378
20010.0 0.0011262
20030.0 0.0011129
20050.0 0.0010981
20070.0 0.0010824
20090.0 0.001066
20110.0 0.0010481
20130.0 0.0010303
20150.0 0.0010128
20170.0 0.00099502
20190.0 0.00097718
20210.0 0.00096018
20230.0 0.00094351
20250.0 0.00092679
20270.0 0.00091084
20290.0 0.00089573
20310.0 0.00088091
20330.0 0.00086641
20350.0 0.00085324
20370.0 0.0008406
20390.0 0.0008284
20410.0 0.00081704
20430.0 0.00080656
20450.0 0.0007964
20470.0 0.00078693
20490.0 0.00077827
20510.0 0.00077015
20530.0 0.00076247
20550.0 0.00075542
20570.0 0.00074894
20590.0 0.00074281
20610.0 0.00073709
20630.0 0.00073177
20650.0 0.00072674
20670.0 0.00072195
20690.0 0.0007174
20710.0 0.00071301
20730.0 0.00070872
20750.0 0.00070448
20770.0 0.00070024
20790.0 0.00069595
20810.0 0.00069155
20830.0 0.000687
20850.0 0.00068228
20870.0 0.00067729
20890.0 0.00067203
20910.0 0.00066656
20930.0 0.00066076
20950.0 0.00065461
20970.0 0.00064823
20990.0 0.00064159
21010.0 0.00063454
21030.0 0.00062724
21050.0 0.00061981
21070.0 0.00061211
21090.0 0.00060408
21110.0 0.00059609
21130.0 0.00058804
21150.0 0.00057975
21170.0 0.00057147
21190.0 0.00056334
21210.0 0.00055508
21230.0 0.00054677
21250.0 0.00053875
21270.0 0.00053086
21290.0 0.00052295
21310.0 0.00051525
21330.0 0.0005079
21350.0 0.0005006
21370.0 0.00049343
21390.0 0.00048658
21410.0 0.00047994
21430.0 0.00047329
21450.0 0.00046695
21470.0 0.00046087
21490.0 0.00045488
21510.0 0.000449
21530.0 0.00044337
21550.0 0.00043786
21570.0 0.00043237
21590.0 0.00042705
21610.0 0.00042188
21630.0 0.00041673
21650.0 0.0004116
21670.0 0.0004067
21690.0 0.00040182
21710.0 0.00039695
21730.0 0.00039217
21750.0 0.0003875
21770.0 0.00038276
21790.0 0.00037808
21810.0 0.00037348
21830.0 0.00036889
21850.0 0.00036425
21870.0 0.00035967
21890.0 0.00035516
21910.0 0.00035057
21930.0 0.00034597
21950.0 0.00034145
21970.0 0.00033688
21990.0 0.00033221
22010.0 0.00032765
22030.0 0.00032311
22050.0 0.00031851
22070.0 0.00031392
22090.0 0.00030946
22110.0 0.00030497
22130.0 0.00030047
22150.0 0.00029608
22170.0 0.00029178
22190.0 0.00028744
22210.0 0.00028318
22230.0 0.0002791
22250.0 0.00027505
22270.0 0.00027103
22290.0 0.00026715
22310.0 0.00026337
22330.0 0.00025958
22350.0 0.00025588
22370.0 0.00025231
22390.0 0.00024875
22410.0 0.00024519
22430.0 0.00024176
22450.0 0.00023837
22470.0 0.00023495
22490.0 0.00023158
22510.0 0.00022828
22530.0 0.00022494
22550.0 0.00022158
22570.0 0.0002183
22590.0 0.00021503
22610.0 0.00021173
22630.0 0.00020847
22650.0 0.00020531
22670.0 0.00020212
22690.0 0.00019895
22710.0 0.00019589
22730.0 0.00019288
22750.0 0.00018986
22770.0 0.00018697
22790.0 0.00018421
22810.0 0.00018149
22830.0 0.00017887
22850.0 0.00017641
22870.0 0.00017406
22890.0 0.0001718
22910.0 0.00016971
22930.0 0.00016778
22950.0 0.00016598
22970.0 0.00016434
22990.0 0.00016288
23010.0 0.00016156
23030.0 0.0001604
23050.0 0.00015937
23070.0 0.00015846
23090.0 0.00015767
23110.0 0.00015697
23130.0 0.00015632
23150.0 0.00015571
23170.0 0.00015513
23190.0 0.00015454
23210.0 0.00015391
23230.0 0.00015327
23250.0 0.00015259
23270.0 0.00015184
23290.0 0.00015105
23310.0 0.00015021
23330.0 0.0001493
23350.0 0.00014834
23370.0 0.00014734
23390.0 0.00014628
23410.0 0.0001452
23430.0 0.00014408
23450.0 0.00014293
23470.0 0.00014177
23490.0 0.0001406
23510.0 0.00013942
23530.0 0.00013824
23550.0 0.00013708
23570.0 0.00013594
23590.0 0.00013482
23610.0 0.00013376
23630.0 0.00013275
23650.0 0.00013183
23670.0 0.00013103
23690.0 0.00013034
23710.0 0.00012982
23730.0 0.0001295
23750.0 0.00012936
23770.0 0.00012942
23790.0 0.00012973
23810.0 0.00013026
23830.0 0.00013093
23850.0 0.00013186
23870.0 0.000133
23890.0 0.00013419
23910.0 0.00013548
