#lamb flux
1010.0 1.0663e-05
1030.0 1.1859e-05
1050.0 1.3014e-05
1070.0 1.4318e-05
1090.0 1.5866e-05
1110.0 1.7448e-05
1130.0 1.9039e-05
1150.0 2.0711e-05
1170.0 2.2448e-05
1190.0 2.4124e-05
1210.0 2.5857e-05
1230.0 2.7693e-05
1250.0 2.9538e-05
1270.0 3.1399e-05
1290.0 3.3429e-05
1310.0 3.5535e-05
1330.0 3.7645e-05
1350.0 3.9848e-05
1370.0 4.2174e-05
1390.0 4.4511e-05
1410.0 4.6836e-05
1430.0 4.9272e-05
1450.0 5.1726e-05
1470.0 5.4116e-05
1490.0 5.6513e-05
1510.0 5.8993e-05
1530.0 6.1326e-05
1550.0 6.3581e-05
1570.0 6.584e-05
1590.0 6.8027e-05
1610.0 7.0037e-05
1630.0 7.199e-05
1650.0 7.3895e-05
1670.0 7.5626e-05
1690.0 7.7222e-05
1710.0 7.8781e-05
1730.0 8.0239e-05
1750.0 8.1472e-05
1770.0 8.266e-05
1790.0 8.3795e-05
1810.0 8.4788e-05
1830.0 8.5686e-05
1850.0 8.6646e-05
1870.0 8.7527e-05
1890.0 8.8336e-05
1910.0 8.9188e-05
1930.0 9.0107e-05
1950.0 9.0987e-05
1970.0 9.1902e-05
1990.0 9.2944e-05
2010.0 9.4026e-05
2030.0 9.5118e-05
2050.0 9.6325e-05
2070.0 9.7631e-05
2090.0 9.8883e-05
2110.0 0.00010016
2130.0 0.00010149
2150.0 0.00010278
2170.0 0.00010396
2190.0 0.00010515
2210.0 0.00010627
2230.0 0.00010723
2250.0 0.00010807
2270.0 0.00010884
2290.0 0.00010943
2310.0 0.0001098
2330.0 0.00011006
2350.0 0.00011016
2370.0 0.00011005
2390.0 0.00010978
2410.0 0.00010939
2430.0 0.00010878
2450.0 0.00010795
2470.0 0.00010695
2490.0 0.00010578
2510.0 0.00010442
2530.0 0.00010315
2550.0 0.00010234
2570.0 0.00010244
2590.0 0.00010397
2610.0 0.0001081
2630.0 0.00011517
2650.0 0.00012468
2670.0 0.00013672
2690.0 0.00015062
2710.0 0.00016388
2730.0 0.00017502
2750.0 0.00018355
2770.0 0.00018743
2790.0 0.00018606
2810.0 0.00017969
2830.0 0.00016809
2850.0 0.00015275
2870.0 0.00013457
2890.0 0.00011367
2910.0 9.1194e-05
2930.0 6.8474e-05
2950.0 4.4411e-05
2970.0 1.9368e-05
2990.0 7.4542e-06
3010.0 1.3926e-05
3030.0 1.3926e-05
3050.0 1.3926e-05
3070.0 1.3926e-05
3090.0 1.3926e-05
3110.0 1.3926e-05
3130.0 1.3926e-05
3150.0 1.3926e-05
3170.0 1.3926e-05
3190.0 1.3926e-05
3210.0 9.0618e-05
3230.0 0.00078861
3250.0 0.0012636
3270.0 0.0011391
3290.0 0.00095145
3310.0 0.00071812
3330.0 0.00068141
3350.0 0.0007432
3370.0 0.00083916
3390.0 0.00094234
3410.0 0.0010528
3430.0 0.0012006
3450.0 0.0013413
3470.0 0.0014861
3490.0 0.0015171
3510.0 0.0013035
3530.0 0.0011968
3550.0 0.0014095
3570.0 0.0016339
3590.0 0.0017987
3610.0 0.0018035
3630.0 0.0020972
3650.0 0.0022114
3670.0 0.0023077
3690.0 0.0024427
3710.0 0.0024586
3730.0 0.0025423
3750.0 0.0025288
3770.0 0.0025177
3790.0 0.0024241
3810.0 0.0022774
3830.0 0.0021558
3850.0 0.001351
3870.0 0.0014269
3890.0 0.0016339
3910.0 0.0021495
3930.0 0.0027829
3950.0 0.0030151
3970.0 0.0032349
3990.0 0.0037519
4010.0 0.0035346
4030.0 0.003127
4050.0 0.0022391
4070.0 0.0019688
4090.0 0.0026368
4110.0 0.0027803
4130.0 0.0030267
4150.0 0.0029547
4170.0 0.0027956
4190.0 0.0025602
4210.0 0.0031496
4230.0 0.0033715
4250.0 0.0036558
4270.0 0.0035428
4290.0 0.0034317
4310.0 0.0035976
4330.0 0.0041737
4350.0 0.004517
4370.0 0.0045635
4390.0 0.0042214
4410.0 0.0038436
4430.0 0.0030056
4450.0 0.0024134
4470.0 0.0025151
4490.0 0.0028964
4510.0 0.003051
4530.0 0.003054
4550.0 0.0030681
4570.0 0.0043066
4590.0 0.0064208
4610.0 0.0075831
4630.0 0.0077912
4650.0 0.0085555
4670.0 0.010014
4690.0 0.010715
4710.0 0.0090591
4730.0 0.0069314
4750.0 0.005378
4770.0 0.0045514
4790.0 0.0040992
4810.0 0.0038792
4830.0 0.0042954
4850.0 0.0051574
4870.0 0.0057143
4890.0 0.0059277
4910.0 0.0057082
4930.0 0.0062593
4950.0 0.0075375
4970.0 0.0085924
4990.0 0.0088112
5010.0 0.0080636
5030.0 0.0066711
5050.0 0.0052007
5070.0 0.0042193
5090.0 0.0038525
5110.0 0.0038209
5130.0 0.003886
5150.0 0.0038436
5170.0 0.0035857
5190.0 0.0033685
5210.0 0.0033533
5230.0 0.0038104
5250.0 0.0046044
5270.0 0.0054922
5290.0 0.006158
5310.0 0.0066028
5330.0 0.0073191
5350.0 0.0080593
5370.0 0.0081845
5390.0 0.0073903
5410.0 0.0065824
5430.0 0.0064963
5450.0 0.0075426
5470.0 0.0091513
5490.0 0.010457
5510.0 0.010988
5530.0 0.010797
5550.0 0.010305
5570.0 0.0098907
5590.0 0.0094643
5610.0 0.0092165
5630.0 0.0091613
5650.0 0.0091569
5670.0 0.0088364
5690.0 0.0079045
5710.0 0.006718
5730.0 0.0060295
5750.0 0.0058021
5770.0 0.0059291
5790.0 0.0060816
5810.0 0.0062174
5830.0 0.0062426
5850.0 0.0059503
5870.0 0.0056253
5890.0 0.0055081
5910.0 0.0056653
5930.0 0.0057824
5950.0 0.0053922
5970.0 0.0046951
5990.0 0.0038207
6010.0 0.0031019
6030.0 0.0029012
6050.0 0.0031568
6070.0 0.0033369
6090.0 0.0031406
6110.0 0.0027876
6130.0 0.0028728
6150.0 0.0033299
6170.0 0.0037829
6190.0 0.0040973
6210.0 0.0041687
6230.0 0.0041135
6250.0 0.0037469
6270.0 0.0031192
6290.0 0.0025751
6310.0 0.0023067
6330.0 0.0022727
6350.0 0.0023118
6370.0 0.002373
6390.0 0.0027125
6410.0 0.0033794
6430.0 0.0040864
6450.0 0.0044954
6470.0 0.0046193
6490.0 0.0046242
6510.0 0.0047012
6530.0 0.004806
6550.0 0.0048095
6570.0 0.0049822
6590.0 0.0051226
6610.0 0.0051873
6630.0 0.0050459
6650.0 0.0046797
6670.0 0.0042742
6690.0 0.003938
6710.0 0.0037502
6730.0 0.0036619
6750.0 0.0036774
6770.0 0.0037774
6790.0 0.0039147
6810.0 0.0040017
6830.0 0.0039313
6850.0 0.0037276
6870.0 0.0034933
6890.0 0.0034131
6910.0 0.0033498
6930.0 0.0034651
6950.0 0.0036368
6970.0 0.0037286
6990.0 0.0037811
7010.0 0.0036627
7030.0 0.0033646
7050.0 0.0029853
7070.0 0.0027004
7090.0 0.0025776
7110.0 0.0025681
7130.0 0.0024662
7150.0 0.0021874
7170.0 0.002091
7190.0 0.0023155
7210.0 0.0026974
7230.0 0.0030847
7250.0 0.0032369
7270.0 0.0031788
7290.0 0.0029441
7310.0 0.0027363
7330.0 0.0026529
7350.0 0.0026708
7370.0 0.0027169
7390.0 0.0028526
7410.0 0.0031681
7430.0 0.0036328
7450.0 0.0040581
7470.0 0.0042394
7490.0 0.0040971
7510.0 0.0038081
7530.0 0.003421
7550.0 0.0031647
7570.0 0.0028797
7590.0 0.0027436
7610.0 0.0028073
7630.0 0.0030151
7650.0 0.003325
7670.0 0.003661
7690.0 0.0039237
7710.0 0.0041735
7730.0 0.0044186
7750.0 0.0046256
7770.0 0.0046218
7790.0 0.004677
7810.0 0.0047492
7830.0 0.0046981
7850.0 0.0045551
7870.0 0.0044508
7890.0 0.0045148
7910.0 0.0044587
7930.0 0.0043953
7950.0 0.0041942
7970.0 0.0040735
7990.0 0.0039307
8010.0 0.003933
8030.0 0.0039733
8050.0 0.0040029
8070.0 0.0039659
8090.0 0.0039478
8110.0 0.0038371
8130.0 0.0038471
8150.0 0.0038165
8170.0 0.0037359
8190.0 0.0036597
8210.0 0.0036337
8230.0 0.003559
8250.0 0.0035159
8270.0 0.0032291
8290.0 0.0026768
8310.0 0.002053
8330.0 0.0016251
8350.0 0.0015372
8370.0 0.0018202
8390.0 0.0021922
8410.0 0.0023619
8430.0 0.0024238
8450.0 0.0025645
8470.0 0.0027687
8490.0 0.0031086
8510.0 0.0035447
8530.0 0.0040473
8550.0 0.0044959
8570.0 0.0048565
8590.0 0.0051338
8610.0 0.0052886
8630.0 0.0052903
8650.0 0.0052369
8670.0 0.0052513
8690.0 0.0055431
8710.0 0.0059356
8730.0 0.0061842
8750.0 0.0061762
8770.0 0.0062789
8790.0 0.0062796
8810.0 0.0059311
8830.0 0.0055713
8850.0 0.0050961
8870.0 0.0047174
8890.0 0.0046078
8910.0 0.0046077
8930.0 0.0043537
8950.0 0.0040537
8970.0 0.0039323
8990.0 0.0039174
9010.0 0.0037833
9030.0 0.0037
9050.0 0.003667
9070.0 0.0036516
9090.0 0.0036384
9110.0 0.0036258
9130.0 0.0036131
9150.0 0.0036007
9170.0 0.003587
9190.0 0.0035774
9210.0 0.0035792
9230.0 0.0035611
9250.0 0.0035459
9270.0 0.0035324
9290.0 0.00352
9310.0 0.003508
9330.0 0.0034964
9350.0 0.0034858
9370.0 0.0034752
9390.0 0.0034643
9410.0 0.003454
9430.0 0.0034433
9450.0 0.0034278
9470.0 0.003414
9490.0 0.0034089
9510.0 0.0034014
9530.0 0.0033931
9550.0 0.0033845
9570.0 0.0033756
9590.0 0.0033666
9610.0 0.0033575
9630.0 0.0033484
9650.0 0.0033394
9670.0 0.0033304
9690.0 0.0033215
9710.0 0.0033126
9730.0 0.0033038
9750.0 0.0032951
9770.0 0.0032863
9790.0 0.0032776
9810.0 0.0032689
9830.0 0.0032602
9850.0 0.0032515
9870.0 0.0032427
9890.0 0.003234
9910.0 0.0032251
9930.0 0.003216
9950.0 0.0031847
9970.0 0.0031823
9990.0 0.0031787
10010.0 0.0031743
10030.0 0.003168
10050.0 0.00316
10070.0 0.0031517
10090.0 0.0031435
10110.0 0.0031334
10130.0 0.0031232
10150.0 0.0031139
10170.0 0.003104
10190.0 0.0030929
10210.0 0.0030829
10230.0 0.0030729
10250.0 0.0030618
10270.0 0.0030506
10290.0 0.0030401
10310.0 0.0030286
10330.0 0.0030159
10350.0 0.0030043
10370.0 0.0029926
10390.0 0.0029796
10410.0 0.0029665
10430.0 0.0029544
10450.0 0.0029411
10470.0 0.0029269
10490.0 0.0029134
10510.0 0.0028997
10530.0 0.002884
10550.0 0.0028688
10570.0 0.0028544
10590.0 0.0028387
10610.0 0.0028221
10630.0 0.0028064
10650.0 0.0027903
10670.0 0.0027724
10690.0 0.0027548
10710.0 0.0027377
10730.0 0.0027192
10750.0 0.0026994
10770.0 0.0026812
10790.0 0.0026622
10810.0 0.0026418
10830.0 0.0026216
10850.0 0.002602
10870.0 0.00258
10890.0 0.0025577
10910.0 0.002536
10930.0 0.0025133
10950.0 0.0024887
10970.0 0.002464
10990.0 0.0024396
11010.0 0.0026153
11030.0 0.0025866
11050.0 0.0025586
11070.0 0.0025301
11090.0 0.0024995
11110.0 0.0024712
11130.0 0.0024437
11150.0 0.0024155
11170.0 0.0023876
11190.0 0.0023616
11210.0 0.002335
11230.0 0.0023078
11250.0 0.0022818
11270.0 0.0022565
11290.0 0.0022301
11310.0 0.0022037
11330.0 0.0021792
11350.0 0.0021538
11370.0 0.0021277
11390.0 0.0021022
11410.0 0.0020765
11430.0 0.0020484
11450.0 0.0020198
11470.0 0.0019909
11490.0 0.0019599
11510.0 0.0019262
11530.0 0.0018923
11550.0 0.0018572
11570.0 0.0018192
11590.0 0.0017802
11610.0 0.0017415
11630.0 0.0017005
11650.0 0.001658
11670.0 0.0016173
11690.0 0.0015768
11710.0 0.0015353
11730.0 0.001495
11750.0 0.001457
11770.0 0.0014187
11790.0 0.001381
11810.0 0.0013457
11830.0 0.0013115
11850.0 0.0012769
11870.0 0.0012445
11890.0 0.001214
11910.0 0.0011838
11930.0 0.0011542
11950.0 0.0011267
11970.0 0.0010999
11990.0 0.0010731
12010.0 0.001048
12030.0 0.0010244
12050.0 0.0010014
12070.0 0.00097932
12090.0 0.00095973
12110.0 0.00094132
12130.0 0.0009241
12150.0 0.00090895
12170.0 0.00089587
12190.0 0.00088416
12210.0 0.00087465
12230.0 0.00086739
12250.0 0.00086209
12270.0 0.0008589
12290.0 0.00085775
12310.0 0.00085838
12330.0 0.00086104
12350.0 0.00086549
12370.0 0.00087119
12390.0 0.00087841
12410.0 0.00088759
12430.0 0.00089717
12450.0 0.00090742
12470.0 0.00091885
12490.0 0.00093074
12510.0 0.00094212
12530.0 0.00095394
12550.0 0.00096585
12570.0 0.00097663
12590.0 0.00098636
12610.0 0.00099547
12630.0 0.001003
12650.0 0.0010081
12670.0 0.0010116
12690.0 0.001013
12710.0 0.001012
12730.0 0.0010087
12750.0 0.0010031
12770.0 0.00099519
12790.0 0.00098539
12810.0 0.00097367
12830.0 0.00096009
12850.0 0.00094565
12870.0 0.00093037
12890.0 0.00091402
12910.0 0.00089747
12930.0 0.00088124
12950.0 0.00086467
12970.0 0.00084819
12990.0 0.00083273
13010.0 0.00081776
13030.0 0.00080299
13050.0 0.00078896
13070.0 0.0007758
13090.0 0.00076273
13110.0 0.00075
13130.0 0.00073794
13150.0 0.00072616
13170.0 0.00071422
13190.0 0.00070281
13210.0 0.00069187
13230.0 0.00068092
13250.0 0.00067018
13270.0 0.00066009
13290.0 0.0006503
13310.0 0.00064076
13330.0 0.00063202
13350.0 0.00062406
13370.0 0.00061669
13390.0 0.00061011
13410.0 0.00060457
13430.0 0.00059973
13450.0 0.00059558
13470.0 0.0005921
13490.0 0.00058908
13510.0 0.00058634
13530.0 0.0005837
13550.0 0.00058101
13570.0 0.00057805
13590.0 0.00057464
13610.0 0.00057076
13630.0 0.00056639
13650.0 0.00056132
13670.0 0.00055569
13690.0 0.00054972
13710.0 0.0005433
13730.0 0.00053637
13750.0 0.00052962
13770.0 0.00052295
13790.0 0.00051627
13810.0 0.0005099
13830.0 0.0005041
13850.0 0.00049858
13870.0 0.00049346
13890.0 0.00048896
13910.0 0.00048492
13930.0 0.00048118
13950.0 0.00047784
13970.0 0.00047489
13990.0 0.00047207
14010.0 0.00046935
14030.0 0.00046672
14050.0 0.00046408
14070.0 0.00046122
14090.0 0.00045824
14110.0 0.00045511
14130.0 0.00045168
14150.0 0.00044791
14170.0 0.00044404
14190.0 0.00043996
14210.0 0.00043557
14230.0 0.00043113
14250.0 0.00042678
14270.0 0.0004223
14290.0 0.00041789
14310.0 0.00041391
14330.0 0.0004102
14350.0 0.00040676
14370.0 0.00040382
14390.0 0.00040141
14410.0 0.00039936
14430.0 0.00039778
14450.0 0.00039669
14470.0 0.00039597
14490.0 0.00039557
14510.0 0.0003955
14530.0 0.00039569
14550.0 0.0003961
14570.0 0.00039674
14590.0 0.0003976
14610.0 0.00039871
14630.0 0.00040017
14650.0 0.00040196
14670.0 0.00040413
14690.0 0.00040682
14710.0 0.00041011
14730.0 0.00041377
14750.0 0.00041809
14770.0 0.00042315
14790.0 0.00042876
14810.0 0.0004349
14830.0 0.00044214
14850.0 0.00045005
14870.0 0.00045842
14890.0 0.00046756
14910.0 0.00047745
14930.0 0.00048728
14950.0 0.00049682
14970.0 0.00050621
14990.0 0.00051459
15010.0 0.00052155
15030.0 0.00052733
15050.0 0.00053193
15070.0 0.00053521
15090.0 0.00053769
15110.0 0.00053965
15130.0 0.00054124
15150.0 0.00054265
15170.0 0.00054398
15190.0 0.00054529
15210.0 0.00054661
15230.0 0.00054795
15250.0 0.00054931
15270.0 0.0005507
15290.0 0.00055211
15310.0 0.00055356
15330.0 0.00055502
15350.0 0.00055651
15370.0 0.00055803
15390.0 0.00055957
15410.0 0.00056113
15430.0 0.00056272
15450.0 0.00056433
15470.0 0.00056596
15490.0 0.00056761
15510.0 0.00056929
15530.0 0.00057098
15550.0 0.00057269
15570.0 0.00057443
15590.0 0.00057618
15610.0 0.00057795
15630.0 0.00057974
15650.0 0.00058154
15670.0 0.00058336
15690.0 0.0005852
15710.0 0.00058706
15730.0 0.00058892
15750.0 0.0005908
15770.0 0.0005927
15790.0 0.0005946
15810.0 0.00059652
15830.0 0.00059845
15850.0 0.00060039
15870.0 0.00060234
15890.0 0.0006043
15910.0 0.00060627
15930.0 0.00060825
15950.0 0.00061023
15970.0 0.00061222
15990.0 0.00061422
16010.0 0.00061622
16030.0 0.00061822
16050.0 0.00062023
16070.0 0.00062224
16090.0 0.00062425
16110.0 0.00062627
16130.0 0.00062829
16150.0 0.00063029
16170.0 0.00063231
16190.0 0.00063432
16210.0 0.00063633
16230.0 0.00063833
16250.0 0.00064033
16270.0 0.00064233
16290.0 0.00064431
16310.0 0.00064629
16330.0 0.00064827
16350.0 0.00065023
16370.0 0.00065218
16390.0 0.00065413
16410.0 0.00065606
16430.0 0.00065798
16450.0 0.00065989
16470.0 0.00066178
16490.0 0.00066366
16510.0 0.00066552
16530.0 0.00066737
16550.0 0.0006692
16570.0 0.00067101
16590.0 0.0006728
16610.0 0.00067457
16630.0 0.00067632
16650.0 0.00067805
16670.0 0.00067976
16690.0 0.00068145
16710.0 0.0006831
16730.0 0.00068473
16750.0 0.00068634
16770.0 0.00068792
16790.0 0.00068947
16810.0 0.000691
16830.0 0.0006925
16850.0 0.00069396
16870.0 0.00069539
16890.0 0.0006968
16910.0 0.00069817
16930.0 0.0006995
16950.0 0.00070081
16970.0 0.00070208
16990.0 0.0007033
17010.0 0.0007045
17030.0 0.00070567
17050.0 0.00070679
17070.0 0.00070787
17090.0 0.00070891
17110.0 0.00070992
17130.0 0.00071088
17150.0 0.0007118
17170.0 0.00071269
17190.0 0.00071353
17210.0 0.00071433
17230.0 0.00071509
17250.0 0.0007158
17270.0 0.00071646
17290.0 0.00071708
17310.0 0.00071766
17330.0 0.00071819
17350.0 0.00071867
17370.0 0.00071912
17390.0 0.00071951
17410.0 0.00071985
17430.0 0.00072015
17450.0 0.00072041
17470.0 0.0007206
17490.0 0.00072075
17510.0 0.00072086
17530.0 0.00072092
17550.0 0.00072092
17570.0 0.00072088
17590.0 0.00072079
17610.0 0.00072065
17630.0 0.00072045
17650.0 0.00072022
17670.0 0.00071992
17690.0 0.00071957
17710.0 0.00071919
17730.0 0.00071875
17750.0 0.00071825
17770.0 0.00071771
17790.0 0.00071713
17810.0 0.00071648
17830.0 0.00071579
17850.0 0.00071505
17870.0 0.00071427
17890.0 0.00071342
17910.0 0.00071253
17930.0 0.0007116
17950.0 0.00071062
17970.0 0.00070958
17990.0 0.0007085
18010.0 0.00070738
18030.0 0.0007062
18050.0 0.00070497
18070.0 0.00070371
18090.0 0.00070239
18110.0 0.00070103
18130.0 0.00069962
18150.0 0.00069818
18170.0 0.00069668
18190.0 0.00069514
18210.0 0.00069356
18230.0 0.00069193
18250.0 0.00069026
18270.0 0.00068855
18290.0 0.0006868
18310.0 0.00068501
18330.0 0.00068318
18350.0 0.00068131
18370.0 0.0006794
18390.0 0.00067745
18410.0 0.00067546
18430.0 0.00067344
18450.0 0.00067138
18470.0 0.00066928
18490.0 0.00066716
18510.0 0.00066499
18530.0 0.00066279
18550.0 0.00066057
18570.0 0.00065831
18590.0 0.00065601
18610.0 0.00065368
18630.0 0.00065133
18650.0 0.00064895
18670.0 0.00064653
18690.0 0.0006441
18710.0 0.00064164
18730.0 0.00063914
18750.0 0.00063663
18770.0 0.00063409
18790.0 0.00063152
18810.0 0.00062893
18830.0 0.00062632
18850.0 0.00062369
18870.0 0.00062103
18890.0 0.00061836
18910.0 0.00061567
18930.0 0.00061296
18950.0 0.00061023
18970.0 0.00060749
18990.0 0.00060473
19010.0 0.00060194
19030.0 0.00059916
19050.0 0.00059635
19070.0 0.00059353
19090.0 0.0005907
19110.0 0.00058787
19130.0 0.00058501
19150.0 0.00058214
19170.0 0.00057927
19190.0 0.00057639
19210.0 0.0005735
19230.0 0.0005706
19250.0 0.0005677
19270.0 0.00056479
19290.0 0.00056187
19310.0 0.00055896
19330.0 0.00055604
19350.0 0.0005531
19370.0 0.00055017
19390.0 0.00054725
19410.0 0.00054431
19430.0 0.00054137
19450.0 0.00053844
19470.0 0.00053551
19490.0 0.00053257
19510.0 0.00052964
19530.0 0.00052672
19550.0 0.00052379
19570.0 0.00052086
19590.0 0.00051794
19610.0 0.00051503
19630.0 0.00051211
19650.0 0.00050921
19670.0 0.00050631
19690.0 0.00050341
19710.0 0.00050053
19730.0 0.00049765
19750.0 0.00049477
19770.0 0.0004919
19790.0 0.00048905
19810.0 0.0004862
19830.0 0.00048334
19850.0 0.00048048
19870.0 0.00047758
19890.0 0.0004746
19910.0 0.00047143
19930.0 0.000468
19950.0 0.00046416
19970.0 0.00045968
19990.0 0.00045443
20010.0 0.00044853
20030.0 0.00044169
20050.0 0.00043397
20070.0 0.00042579
20090.0 0.00041723
20110.0 0.000408
20130.0 0.00039887
20150.0 0.00039001
20170.0 0.0003811
20190.0 0.0003723
20210.0 0.00036403
20230.0 0.00035603
20250.0 0.00034811
20270.0 0.00034065
20290.0 0.00033367
20310.0 0.00032688
20330.0 0.00032029
20350.0 0.00031436
20370.0 0.0003087
20390.0 0.00030324
20410.0 0.00029818
20430.0 0.00029352
20450.0 0.000289
20470.0 0.00028478
20490.0 0.00028093
20510.0 0.00027733
20530.0 0.00027393
20550.0 0.00027082
20570.0 0.00026799
20590.0 0.00026533
20610.0 0.00026289
20630.0 0.00026067
20650.0 0.00025862
20670.0 0.00025671
20690.0 0.00025497
20710.0 0.00025336
20730.0 0.00025184
20750.0 0.00025042
20770.0 0.00024907
20790.0 0.00024776
20810.0 0.00024649
20830.0 0.00024522
20850.0 0.00024396
20870.0 0.00024267
20890.0 0.00024135
20910.0 0.00023999
20930.0 0.00023857
20950.0 0.00023708
20970.0 0.00023552
20990.0 0.0002339
21010.0 0.00023217
21030.0 0.00023037
21050.0 0.00022851
21070.0 0.00022655
21090.0 0.0002245
21110.0 0.00022241
21130.0 0.00022028
21150.0 0.00021805
21170.0 0.00021578
21190.0 0.00021352
21210.0 0.00021118
21230.0 0.00020878
21250.0 0.00020643
21270.0 0.00020407
21290.0 0.00020167
21310.0 0.00019929
21330.0 0.00019699
21350.0 0.00019467
21370.0 0.00019238
21390.0 0.00019017
21410.0 0.00018803
21430.0 0.00018589
21450.0 0.00018387
21470.0 0.00018197
21490.0 0.00018014
21510.0 0.0001784
21530.0 0.0001768
21550.0 0.00017532
21570.0 0.00017393
21590.0 0.00017268
21610.0 0.00017156
21630.0 0.00017056
21650.0 0.00016968
21670.0 0.00016891
21690.0 0.00016825
21710.0 0.0001677
21730.0 0.00016724
21750.0 0.00016684
21770.0 0.00016654
21790.0 0.0001663
21810.0 0.00016608
21830.0 0.00016591
21850.0 0.00016577
21870.0 0.00016563
21890.0 0.00016547
21910.0 0.00016531
21930.0 0.00016514
21950.0 0.00016491
21970.0 0.00016466
21990.0 0.00016438
22010.0 0.00016404
22030.0 0.00016364
22050.0 0.00016321
22070.0 0.00016272
22090.0 0.00016218
22110.0 0.0001616
22130.0 0.00016098
22150.0 0.00016033
22170.0 0.00015964
22190.0 0.00015892
22210.0 0.00015817
22230.0 0.00015739
22250.0 0.00015659
22270.0 0.00015576
22290.0 0.0001549
22310.0 0.00015401
22330.0 0.00015307
22350.0 0.00015209
22370.0 0.00015107
22390.0 0.00014998
22410.0 0.0001488
22430.0 0.00014757
22450.0 0.00014627
22470.0 0.00014485
22490.0 0.00014335
22510.0 0.00014179
22530.0 0.0001401
22550.0 0.0001383
22570.0 0.00013646
22590.0 0.00013456
22610.0 0.00013254
22630.0 0.0001305
22650.0 0.00012849
22670.0 0.0001264
22690.0 0.00012429
22710.0 0.00012225
22730.0 0.00012025
22750.0 0.00011821
22770.0 0.00011629
22790.0 0.00011449
22810.0 0.00011272
22830.0 0.00011103
22850.0 0.00010949
22870.0 0.00010803
22890.0 0.00010663
22910.0 0.00010535
22930.0 0.00010418
22950.0 0.00010307
22970.0 0.00010203
22990.0 0.0001011
23010.0 0.00010021
23030.0 9.9362e-05
23050.0 9.8565e-05
23070.0 9.7811e-05
23090.0 9.7047e-05
23110.0 9.63e-05
