#lamb flux
1010.0 1.9205e-08
1030.0 2.1163e-08
1050.0 2.3416e-08
1070.0 2.5952e-08
1090.0 2.8832e-08
1110.0 3.1786e-08
1130.0 3.4759e-08
1150.0 3.7874e-08
1170.0 4.1087e-08
1190.0 4.4133e-08
1210.0 4.7221e-08
1230.0 5.0411e-08
1250.0 5.3537e-08
1270.0 5.6573e-08
1290.0 5.9781e-08
1310.0 6.2987e-08
1330.0 6.6061e-08
1350.0 6.9169e-08
1370.0 7.2379e-08
1390.0 7.5508e-08
1410.0 7.8544e-08
1430.0 8.1717e-08
1450.0 8.489e-08
1470.0 8.7957e-08
1490.0 9.1056e-08
1510.0 9.433e-08
1530.0 9.7431e-08
1550.0 1.0049e-07
1570.0 1.0365e-07
1590.0 1.0682e-07
1610.0 1.0984e-07
1630.0 1.1296e-07
1650.0 1.1615e-07
1670.0 1.1924e-07
1690.0 1.2229e-07
1710.0 1.2546e-07
1730.0 1.2863e-07
1750.0 1.3162e-07
1770.0 1.3468e-07
1790.0 1.3781e-07
1810.0 1.4083e-07
1830.0 1.4378e-07
1850.0 1.4692e-07
1870.0 1.4996e-07
1890.0 1.5288e-07
1910.0 1.5585e-07
1930.0 1.5888e-07
1950.0 1.6175e-07
1970.0 1.6456e-07
1990.0 1.6747e-07
2010.0 1.7029e-07
2030.0 1.7298e-07
2050.0 1.7573e-07
2070.0 1.7852e-07
2090.0 1.8109e-07
2110.0 1.8362e-07
2130.0 1.8618e-07
2150.0 1.8863e-07
2170.0 1.909e-07
2190.0 1.9322e-07
2210.0 1.9549e-07
2230.0 1.9757e-07
2250.0 1.9957e-07
2270.0 2.0161e-07
2290.0 2.0348e-07
2310.0 2.0515e-07
2330.0 2.0682e-07
2350.0 2.0842e-07
2370.0 2.0984e-07
2390.0 2.1124e-07
2410.0 2.1278e-07
2430.0 2.1431e-07
2450.0 2.1596e-07
2470.0 2.1809e-07
2490.0 2.2095e-07
2510.0 2.2458e-07
2530.0 2.3006e-07
2550.0 2.3902e-07
2570.0 2.5275e-07
2590.0 2.728e-07
2610.0 3.0383e-07
2630.0 3.4599e-07
2650.0 3.9613e-07
2670.0 4.5415e-07
2690.0 5.1704e-07
2710.0 5.7548e-07
2730.0 6.2559e-07
2750.0 6.6845e-07
2770.0 7.0006e-07
2790.0 7.2091e-07
2810.0 7.3488e-07
2830.0 7.447e-07
2850.0 7.504e-07
2870.0 7.5454e-07
2890.0 7.5858e-07
2910.0 7.6234e-07
2930.0 7.6539e-07
2950.0 7.6889e-07
2970.0 7.7267e-07
2990.0 7.7589e-07
3010.0 9.1019e-06
3030.0 9.1421e-06
3050.0 9.1794e-06
3070.0 9.202e-06
3090.0 9.2178e-06
3110.0 9.2148e-06
3130.0 9.1775e-06
3150.0 9.1004e-06
3170.0 8.9737e-06
3190.0 8.8e-06
3210.0 8.5998e-06
3230.0 8.3951e-06
3250.0 8.232e-06
3270.0 8.1312e-06
3290.0 8.1363e-06
3310.0 8.228e-06
3330.0 8.4365e-06
3350.0 8.7287e-06
3370.0 9.1098e-06
3390.0 9.5653e-06
3410.0 1.0043e-05
3430.0 1.0563e-05
3450.0 1.1137e-05
3470.0 1.1737e-05
3490.0 1.2347e-05
3510.0 1.3011e-05
3530.0 1.3702e-05
3550.0 1.4376e-05
3570.0 1.5065e-05
3590.0 1.5821e-05
3610.0 1.6561e-05
3630.0 1.7324e-05
3650.0 1.8081e-05
3670.0 1.8772e-05
3690.0 1.9302e-05
3710.0 1.9658e-05
3730.0 1.9848e-05
3750.0 1.991e-05
3770.0 1.8549e-05
3790.0 1.7215e-05
3810.0 1.5124e-05
3830.0 1.1306e-05
3850.0 8.2336e-06
3870.0 8.0574e-06
3890.0 1.0118e-05
3910.0 1.572e-05
3930.0 2.0909e-05
3950.0 2.3584e-05
3970.0 2.4764e-05
3990.0 2.644e-05
4010.0 2.928e-05
4030.0 2.9252e-05
4050.0 2.7531e-05
4070.0 2.555e-05
4090.0 2.4455e-05
4110.0 2.6248e-05
4130.0 2.6979e-05
4150.0 2.7004e-05
4170.0 2.7754e-05
4190.0 2.7758e-05
4210.0 2.8359e-05
4230.0 3.067e-05
4250.0 3.3533e-05
4270.0 3.4954e-05
4290.0 3.4622e-05
4310.0 3.5273e-05
4330.0 3.7698e-05
4350.0 4.3675e-05
4370.0 4.9109e-05
4390.0 4.6145e-05
4410.0 3.7992e-05
4430.0 3.2512e-05
4450.0 2.7511e-05
4470.0 2.5468e-05
4490.0 2.8764e-05
4510.0 3.4166e-05
4530.0 3.7801e-05
4550.0 4.1738e-05
4570.0 4.8796e-05
4590.0 5.9803e-05
4610.0 7.853e-05
4630.0 9.4745e-05
4650.0 9.5961e-05
4670.0 9.5168e-05
4690.0 0.00010101
4710.0 0.00010199
4730.0 8.4811e-05
4750.0 6.3979e-05
4770.0 5.1845e-05
4790.0 5.0176e-05
4810.0 4.7684e-05
4830.0 4.7548e-05
4850.0 5.6094e-05
4870.0 6.9769e-05
4890.0 7.4821e-05
4910.0 6.4847e-05
4930.0 6.1096e-05
4950.0 7.088e-05
4970.0 9.3318e-05
4990.0 0.00011425
5010.0 0.00011686
5030.0 9.372e-05
5050.0 6.4047e-05
5070.0 4.7122e-05
5090.0 4.0675e-05
5110.0 4.0132e-05
5130.0 4.3508e-05
5150.0 4.5059e-05
5170.0 4.4464e-05
5190.0 4.4124e-05
5210.0 4.3115e-05
5230.0 4.5277e-05
5250.0 4.9444e-05
5270.0 5.6552e-05
5290.0 6.5377e-05
5310.0 7.1104e-05
5330.0 7.3411e-05
5350.0 7.7813e-05
5370.0 8.5173e-05
5390.0 8.8127e-05
5410.0 8.1072e-05
5430.0 7.1574e-05
5450.0 7.0407e-05
5470.0 8.3827e-05
5490.0 0.00010606
5510.0 0.00012878
5530.0 0.00013911
5550.0 0.00013465
5570.0 0.0001246
5590.0 0.00011265
5610.0 0.00010782
5630.0 0.00010811
5650.0 0.00010852
5670.0 0.00010631
5690.0 0.00010034
5710.0 9.5758e-05
5730.0 8.4913e-05
5750.0 6.5209e-05
5770.0 5.7164e-05
5790.0 6.1831e-05
5810.0 7.2094e-05
5830.0 8.1786e-05
5850.0 8.7463e-05
5870.0 8.764e-05
5890.0 8.1605e-05
5910.0 7.8996e-05
5930.0 7.9815e-05
5950.0 8.3655e-05
5970.0 8.6335e-05
5990.0 7.8751e-05
6010.0 6.4999e-05
6030.0 5.3806e-05
6050.0 4.9311e-05
6070.0 5.1302e-05
6090.0 5.6676e-05
6110.0 5.7827e-05
6130.0 5.3878e-05
6150.0 5.2459e-05
6170.0 5.7553e-05
6190.0 6.8868e-05
6210.0 8.2712e-05
6230.0 9.2186e-05
6250.0 9.1419e-05
6270.0 8.0872e-05
6290.0 6.6697e-05
6310.0 5.3452e-05
6330.0 4.4214e-05
6350.0 4.1872e-05
6370.0 4.595e-05
6390.0 5.2806e-05
6410.0 6.1341e-05
6430.0 7.0887e-05
6450.0 8.3294e-05
6470.0 0.00010299
6490.0 0.00012559
6510.0 0.00013295
6530.0 0.0001253
6550.0 0.00011955
6570.0 0.00011815
6590.0 0.00011335
6610.0 0.00010446
6630.0 9.7228e-05
6650.0 9.33e-05
6670.0 9.3133e-05
6690.0 9.0475e-05
6710.0 8.1397e-05
6730.0 7.0591e-05
6750.0 6.4745e-05
6770.0 6.814e-05
6790.0 7.3211e-05
6810.0 7.5462e-05
6830.0 7.6459e-05
6850.0 7.3694e-05
6870.0 7.0276e-05
6890.0 6.8071e-05
6910.0 6.4856e-05
6930.0 6.2676e-05
6950.0 6.3243e-05
6970.0 6.5559e-05
6990.0 7.2042e-05
7010.0 7.5221e-05
7030.0 7.1813e-05
7050.0 6.58e-05
7070.0 5.7308e-05
7090.0 4.8706e-05
7110.0 4.5636e-05
7130.0 4.7637e-05
7150.0 4.9688e-05
7170.0 5.101e-05
7190.0 5.0037e-05
7210.0 4.9787e-05
7230.0 5.5749e-05
7250.0 6.4786e-05
7270.0 7.279e-05
7290.0 7.689e-05
7310.0 7.1927e-05
7330.0 6.4277e-05
7350.0 5.8612e-05
7370.0 5.7213e-05
7390.0 5.9878e-05
7410.0 6.4363e-05
7430.0 7.0789e-05
7450.0 7.8287e-05
7470.0 8.5112e-05
7490.0 8.665e-05
7510.0 7.5353e-05
7530.0 7.4735e-05
7550.0 6.7723e-05
7570.0 5.785e-05
7590.0 4.6567e-05
7610.0 4.3529e-05
7630.0 4.7451e-05
7650.0 5.531e-05
7670.0 6.3424e-05
7690.0 7.0089e-05
7710.0 7.6986e-05
7730.0 8.317e-05
7750.0 8.7619e-05
7770.0 8.6345e-05
7790.0 8.5873e-05
7810.0 8.7468e-05
7830.0 8.6672e-05
7850.0 8.3279e-05
7870.0 7.8268e-05
7890.0 7.2075e-05
7910.0 6.3847e-05
7930.0 5.6681e-05
7950.0 5.2201e-05
7970.0 5.1014e-05
7990.0 5.2816e-05
8010.0 5.4002e-05
8030.0 5.474e-05
8050.0 5.5322e-05
8070.0 5.4742e-05
8090.0 5.459e-05
8110.0 5.2652e-05
8130.0 4.9213e-05
8150.0 4.6493e-05
8170.0 4.601e-05
8190.0 4.6821e-05
8210.0 4.7283e-05
8230.0 4.6897e-05
8250.0 4.533e-05
8270.0 4.004e-05
8290.0 3.1671e-05
8310.0 2.3061e-05
8330.0 1.552e-05
8350.0 1.1093e-05
8370.0 1.1267e-05
8390.0 1.3669e-05
8410.0 1.7275e-05
8430.0 2.1099e-05
8450.0 2.3192e-05
8470.0 2.4358e-05
8490.0 2.5543e-05
8510.0 2.6906e-05
8530.0 2.9876e-05
8550.0 3.4805e-05
8570.0 4.0942e-05
8590.0 4.7314e-05
8610.0 5.5233e-05
8630.0 6.4191e-05
8650.0 6.966e-05
8670.0 6.9696e-05
8690.0 6.7291e-05
8710.0 6.3913e-05
8730.0 6.1282e-05
8750.0 5.8831e-05
8770.0 5.728e-05
8790.0 5.5041e-05
8810.0 5.1127e-05
8830.0 4.6776e-05
8850.0 4.0168e-05
8870.0 3.5566e-05
8890.0 3.3015e-05
8910.0 3.469e-05
8930.0 3.4057e-05
8950.0 3.5017e-05
8970.0 3.5449e-05
8990.0 3.5966e-05
9010.0 3.6592e-05
9030.0 3.6097e-05
9050.0 3.6065e-05
9070.0 3.609e-05
9090.0 3.6119e-05
9110.0 3.6136e-05
9130.0 3.617e-05
9150.0 3.6221e-05
9170.0 3.6252e-05
9190.0 3.6259e-05
9210.0 3.6458e-05
9230.0 3.6488e-05
9250.0 3.6542e-05
9270.0 3.6604e-05
9290.0 3.6674e-05
9310.0 3.6751e-05
9330.0 3.6835e-05
9350.0 3.6923e-05
9370.0 3.7016e-05
9390.0 3.7114e-05
9410.0 3.7216e-05
9430.0 3.7321e-05
9450.0 3.7432e-05
9470.0 3.7547e-05
9490.0 3.7665e-05
9510.0 3.7787e-05
9530.0 3.7914e-05
9550.0 3.8044e-05
9570.0 3.8176e-05
9590.0 3.8314e-05
9610.0 3.8455e-05
9630.0 3.8598e-05
9650.0 3.8745e-05
9670.0 3.8896e-05
9690.0 3.9049e-05
9710.0 3.9205e-05
9730.0 3.9364e-05
9750.0 3.9526e-05
9770.0 3.9689e-05
9790.0 3.9856e-05
9810.0 4.0025e-05
9830.0 4.0196e-05
9850.0 4.0368e-05
9870.0 4.0543e-05
9890.0 4.072e-05
9910.0 4.0897e-05
9930.0 4.1076e-05
9950.0 4.1246e-05
9970.0 4.1429e-05
9990.0 4.1613e-05
10010.0 4.175e-05
10030.0 4.1934e-05
10050.0 4.2107e-05
10070.0 4.2235e-05
10090.0 4.2438e-05
10110.0 4.2636e-05
10130.0 4.2828e-05
10150.0 4.3018e-05
10170.0 4.3202e-05
10190.0 4.338e-05
10210.0 4.3559e-05
10230.0 4.3738e-05
10250.0 4.391e-05
10270.0 4.4081e-05
10290.0 4.4253e-05
10310.0 4.442e-05
10330.0 4.458e-05
10350.0 4.4743e-05
10370.0 4.4903e-05
10390.0 4.5056e-05
10410.0 4.5206e-05
10430.0 4.5358e-05
10450.0 4.5502e-05
10470.0 4.564e-05
10490.0 4.5778e-05
10510.0 4.5913e-05
10530.0 4.6036e-05
10550.0 4.6157e-05
10570.0 4.6278e-05
10590.0 4.6391e-05
10610.0 4.6496e-05
10630.0 4.6601e-05
10650.0 4.67e-05
10670.0 4.6789e-05
10690.0 4.6874e-05
10710.0 4.6957e-05
10730.0 4.703e-05
10750.0 4.7094e-05
10770.0 4.7159e-05
10790.0 4.7216e-05
10810.0 4.7263e-05
10830.0 4.7303e-05
10850.0 4.7338e-05
10870.0 4.7348e-05
10890.0 4.7331e-05
10910.0 4.7279e-05
10930.0 4.716e-05
10950.0 4.693e-05
10970.0 4.6575e-05
10990.0 4.6083e-05
11010.0 4.4548e-05
11030.0 4.3637e-05
11050.0 4.2592e-05
11070.0 4.139e-05
11090.0 3.9993e-05
11110.0 3.8593e-05
11130.0 3.7179e-05
11150.0 3.5713e-05
11170.0 3.4272e-05
11190.0 3.2948e-05
11210.0 3.1661e-05
11230.0 3.0433e-05
11250.0 2.935e-05
11270.0 2.839e-05
11290.0 2.7508e-05
11310.0 2.6743e-05
11330.0 2.612e-05
11350.0 2.5567e-05
11370.0 2.5076e-05
11390.0 2.4651e-05
11410.0 2.4262e-05
11430.0 2.3862e-05
11450.0 2.346e-05
11470.0 2.3046e-05
11490.0 2.2587e-05
11510.0 2.2067e-05
11530.0 2.1522e-05
11550.0 2.0939e-05
11570.0 2.0294e-05
11590.0 1.9626e-05
11610.0 1.8961e-05
11630.0 1.8267e-05
11650.0 1.7564e-05
11670.0 1.6911e-05
11690.0 1.6288e-05
11710.0 1.5685e-05
11730.0 1.5135e-05
11750.0 1.4651e-05
11770.0 1.4198e-05
11790.0 1.3788e-05
11810.0 1.3433e-05
11830.0 1.3114e-05
11850.0 1.2811e-05
11870.0 1.2539e-05
11890.0 1.2287e-05
11910.0 1.2035e-05
11930.0 1.178e-05
11950.0 1.1528e-05
11970.0 1.1264e-05
11990.0 1.0979e-05
12010.0 1.0687e-05
12030.0 1.0392e-05
12050.0 1.0083e-05
12070.0 9.7653e-06
12090.0 9.4708e-06
12110.0 9.1846e-06
12130.0 8.9117e-06
12150.0 8.6725e-06
12170.0 8.4723e-06
12190.0 8.3045e-06
12210.0 8.1874e-06
12230.0 8.1235e-06
12250.0 8.1108e-06
12270.0 8.1546e-06
12290.0 8.2497e-06
12310.0 8.3872e-06
12330.0 8.5769e-06
12350.0 8.8058e-06
12370.0 9.0557e-06
12390.0 9.3314e-06
12410.0 9.6387e-06
12430.0 9.9316e-06
12450.0 1.0216e-05
12470.0 1.0498e-05
12490.0 1.0757e-05
12510.0 1.0977e-05
12530.0 1.1172e-05
12550.0 1.1334e-05
12570.0 1.1448e-05
12590.0 1.1521e-05
12610.0 1.1554e-05
12630.0 1.1543e-05
12650.0 1.1492e-05
12670.0 1.1405e-05
12690.0 1.1282e-05
12710.0 1.1133e-05
12730.0 1.0961e-05
12750.0 1.076e-05
12770.0 1.0546e-05
12790.0 1.0324e-05
12810.0 1.0088e-05
12830.0 9.8406e-06
12850.0 9.5972e-06
12870.0 9.3514e-06
12890.0 9.0947e-06
12910.0 8.8381e-06
12930.0 8.5857e-06
12950.0 8.3218e-06
12970.0 8.0499e-06
12990.0 7.7868e-06
13010.0 7.5217e-06
13030.0 7.2487e-06
13050.0 6.9815e-06
13070.0 6.7278e-06
13090.0 6.4726e-06
13110.0 6.2269e-06
13130.0 6.0033e-06
13150.0 5.797e-06
13170.0 5.6041e-06
13190.0 5.4422e-06
13210.0 5.3101e-06
13230.0 5.2023e-06
13250.0 5.1238e-06
13270.0 5.0757e-06
13290.0 5.0545e-06
13310.0 5.0613e-06
13330.0 5.0927e-06
13350.0 5.1442e-06
13370.0 5.2169e-06
13390.0 5.3076e-06
13410.0 5.4027e-06
13430.0 5.5072e-06
13450.0 5.6194e-06
13470.0 5.7288e-06
13490.0 5.8322e-06
13510.0 5.9383e-06
13530.0 6.035e-06
13550.0 6.1186e-06
13570.0 6.1941e-06
13590.0 6.2615e-06
13610.0 6.3156e-06
13630.0 6.3578e-06
13650.0 6.393e-06
13670.0 6.4179e-06
13690.0 6.4328e-06
13710.0 6.4402e-06
13730.0 6.4406e-06
13750.0 6.4325e-06
13770.0 6.4176e-06
13790.0 6.3961e-06
13810.0 6.3677e-06
13830.0 6.3334e-06
13850.0 6.2921e-06
13870.0 6.2433e-06
13890.0 6.189e-06
13910.0 6.129e-06
13930.0 6.0612e-06
13950.0 5.9883e-06
13970.0 5.9144e-06
13990.0 5.8359e-06
14010.0 5.7546e-06
14030.0 5.6755e-06
14050.0 5.5982e-06
14070.0 5.5202e-06
14090.0 5.4484e-06
14110.0 5.3837e-06
14130.0 5.3243e-06
14150.0 5.2717e-06
14170.0 5.2294e-06
14190.0 5.1956e-06
14210.0 5.1703e-06
14230.0 5.155e-06
14250.0 5.1492e-06
14270.0 5.1532e-06
14290.0 5.1676e-06
14310.0 5.1899e-06
14330.0 5.2204e-06
14350.0 5.2599e-06
14370.0 5.3052e-06
14390.0 5.3538e-06
14410.0 5.4089e-06
14430.0 5.4675e-06
14450.0 5.5259e-06
14470.0 5.586e-06
14490.0 5.6506e-06
14510.0 5.7142e-06
14530.0 5.7778e-06
14550.0 5.8472e-06
14570.0 5.9224e-06
14590.0 6.0009e-06
14610.0 6.0897e-06
14630.0 6.1938e-06
14650.0 6.3077e-06
14670.0 6.4332e-06
14690.0 6.5784e-06
14710.0 6.7419e-06
14730.0 6.9094e-06
14750.0 7.0929e-06
14770.0 7.2919e-06
14790.0 7.4925e-06
14810.0 7.6913e-06
14830.0 7.9023e-06
14850.0 8.1039e-06
14870.0 8.288e-06
14890.0 8.4612e-06
14910.0 8.6202e-06
14930.0 8.7518e-06
14950.0 8.8579e-06
14970.0 8.9438e-06
14990.0 9.0035e-06
15010.0 9.039e-06
15030.0 9.0562e-06
15050.0 9.0573e-06
15070.0 9.0465e-06
15090.0 9.0285e-06
15110.0 9.005e-06
15130.0 8.979e-06
15150.0 8.9527e-06
15170.0 8.9248e-06
15190.0 8.8964e-06
15210.0 8.869e-06
15230.0 8.8418e-06
15250.0 8.8138e-06
15270.0 8.7861e-06
15290.0 8.7599e-06
15310.0 8.7331e-06
15330.0 8.7059e-06
15350.0 8.6799e-06
15370.0 8.6541e-06
15390.0 8.627e-06
15410.0 8.6008e-06
15430.0 8.5755e-06
15450.0 8.5495e-06
15470.0 8.5231e-06
15490.0 8.4982e-06
15510.0 8.4732e-06
15530.0 8.4474e-06
15550.0 8.4221e-06
15570.0 8.3978e-06
15590.0 8.3723e-06
15610.0 8.3465e-06
15630.0 8.3222e-06
15650.0 8.2977e-06
15670.0 8.2725e-06
15690.0 8.2478e-06
15710.0 8.2241e-06
15730.0 8.1992e-06
15750.0 8.1743e-06
15770.0 8.1503e-06
15790.0 8.1262e-06
15810.0 8.1008e-06
15830.0 8.0765e-06
15850.0 8.0529e-06
15870.0 8.0283e-06
15890.0 8.0037e-06
15910.0 7.9802e-06
15930.0 7.9561e-06
15950.0 7.9311e-06
15970.0 7.907e-06
15990.0 7.8833e-06
16010.0 7.8586e-06
16030.0 7.8337e-06
16050.0 7.8103e-06
16070.0 7.7862e-06
16090.0 7.7614e-06
16110.0 7.7373e-06
16130.0 7.7138e-06
16150.0 7.6885e-06
16170.0 7.6637e-06
16190.0 7.6399e-06
16210.0 7.6155e-06
16230.0 7.5904e-06
16250.0 7.5661e-06
16270.0 7.5423e-06
16290.0 7.5171e-06
16310.0 7.4923e-06
16330.0 7.4682e-06
16350.0 7.4434e-06
16370.0 7.4174e-06
16390.0 7.393e-06
16410.0 7.3686e-06
16430.0 7.3431e-06
16450.0 7.3179e-06
16470.0 7.2937e-06
16490.0 7.2683e-06
16510.0 7.2424e-06
16530.0 7.2174e-06
16550.0 7.1925e-06
16570.0 7.1663e-06
16590.0 7.1404e-06
16610.0 7.1157e-06
16630.0 7.0899e-06
16650.0 7.0637e-06
16670.0 7.0384e-06
16690.0 7.013e-06
16710.0 6.986e-06
16730.0 6.9599e-06
16750.0 6.9344e-06
16770.0 6.908e-06
16790.0 6.881e-06
16810.0 6.8553e-06
16830.0 6.8293e-06
16850.0 6.8022e-06
16870.0 6.7756e-06
16890.0 6.7497e-06
16910.0 6.7224e-06
16930.0 6.6948e-06
16950.0 6.6685e-06
16970.0 6.6417e-06
16990.0 6.6141e-06
17010.0 6.587e-06
17030.0 6.5606e-06
17050.0 6.5328e-06
17070.0 6.505e-06
17090.0 6.4781e-06
17110.0 6.4507e-06
17130.0 6.4221e-06
17150.0 6.3945e-06
17170.0 6.3674e-06
17190.0 6.3393e-06
17210.0 6.311e-06
17230.0 6.2838e-06
17250.0 6.2558e-06
17270.0 6.2268e-06
17290.0 6.1988e-06
17310.0 6.171e-06
17330.0 6.1421e-06
17350.0 6.1131e-06
17370.0 6.0855e-06
17390.0 6.057e-06
17410.0 6.0279e-06
17430.0 5.9995e-06
17450.0 5.9715e-06
17470.0 5.9417e-06
17490.0 5.9124e-06
17510.0 5.8841e-06
17530.0 5.8551e-06
17550.0 5.8254e-06
17570.0 5.7967e-06
17590.0 5.7682e-06
17610.0 5.7384e-06
17630.0 5.709e-06
17650.0 5.6803e-06
17670.0 5.6509e-06
17690.0 5.6202e-06
17710.0 5.5913e-06
17730.0 5.5623e-06
17750.0 5.5323e-06
17770.0 5.5026e-06
17790.0 5.4739e-06
17810.0 5.4438e-06
17830.0 5.4135e-06
17850.0 5.3841e-06
17870.0 5.3546e-06
17890.0 5.3241e-06
17910.0 5.2939e-06
17930.0 5.2649e-06
17950.0 5.2349e-06
17970.0 5.2045e-06
17990.0 5.1751e-06
18010.0 5.1455e-06
18030.0 5.1144e-06
18050.0 5.0844e-06
18070.0 5.0549e-06
18090.0 5.0246e-06
18110.0 4.9938e-06
18130.0 4.9644e-06
18150.0 4.9346e-06
18170.0 4.9039e-06
18190.0 4.8738e-06
18210.0 4.8444e-06
18230.0 4.8136e-06
18250.0 4.7827e-06
18270.0 4.7531e-06
18290.0 4.7232e-06
18310.0 4.6924e-06
18330.0 4.6624e-06
18350.0 4.633e-06
18370.0 4.6023e-06
18390.0 4.5717e-06
18410.0 4.542e-06
18430.0 4.512e-06
18450.0 4.4808e-06
18470.0 4.4508e-06
18490.0 4.4213e-06
18510.0 4.3909e-06
18530.0 4.3605e-06
18550.0 4.3311e-06
18570.0 4.301e-06
18590.0 4.2701e-06
18610.0 4.2402e-06
18630.0 4.2106e-06
18650.0 4.1801e-06
18670.0 4.1495e-06
18690.0 4.1204e-06
18710.0 4.0905e-06
18730.0 4.06e-06
18750.0 4.0304e-06
18770.0 4.0012e-06
18790.0 3.9703e-06
18810.0 3.9402e-06
18830.0 3.911e-06
18850.0 3.8812e-06
18870.0 3.8508e-06
18890.0 3.8215e-06
18910.0 3.7924e-06
18930.0 3.7621e-06
18950.0 3.7324e-06
18970.0 3.7034e-06
18990.0 3.6738e-06
19010.0 3.6431e-06
19030.0 3.6143e-06
19050.0 3.5852e-06
19070.0 3.5554e-06
19090.0 3.526e-06
19110.0 3.4975e-06
19130.0 3.4678e-06
19150.0 3.438e-06
19170.0 3.4092e-06
19190.0 3.3804e-06
19210.0 3.3505e-06
19230.0 3.3213e-06
19250.0 3.2931e-06
19270.0 3.2639e-06
19290.0 3.2347e-06
19310.0 3.2063e-06
19330.0 3.1779e-06
19350.0 3.1481e-06
19370.0 3.1194e-06
19390.0 3.0912e-06
19410.0 3.0623e-06
19430.0 3.0332e-06
19450.0 3.0054e-06
19470.0 2.9772e-06
19490.0 2.9482e-06
19510.0 2.9199e-06
19530.0 2.8922e-06
19550.0 2.8634e-06
19570.0 2.8345e-06
19590.0 2.807e-06
19610.0 2.779e-06
19630.0 2.7504e-06
19650.0 2.7226e-06
19670.0 2.6954e-06
19690.0 2.6669e-06
19710.0 2.6387e-06
19730.0 2.6115e-06
19750.0 2.5838e-06
19770.0 2.5552e-06
19790.0 2.5278e-06
19810.0 2.5008e-06
19830.0 2.4728e-06
19850.0 2.445e-06
19870.0 2.4179e-06
19890.0 2.3896e-06
19910.0 2.3596e-06
19930.0 2.3294e-06
19950.0 2.2974e-06
19970.0 2.2613e-06
19990.0 2.2218e-06
20010.0 2.1805e-06
20030.0 2.1343e-06
20050.0 2.0844e-06
20070.0 2.034e-06
20090.0 1.9833e-06
20110.0 1.9301e-06
20130.0 1.8801e-06
20150.0 1.834e-06
20170.0 1.7897e-06
20190.0 1.7482e-06
20210.0 1.7118e-06
20230.0 1.6791e-06
20250.0 1.6489e-06
20270.0 1.6234e-06
20290.0 1.6021e-06
20310.0 1.5841e-06
20330.0 1.5695e-06
20350.0 1.5593e-06
20370.0 1.5525e-06
20390.0 1.5489e-06
20410.0 1.5487e-06
20430.0 1.5515e-06
20450.0 1.5577e-06
20470.0 1.5671e-06
20490.0 1.5789e-06
20510.0 1.5934e-06
20530.0 1.6111e-06
20550.0 1.6308e-06
20570.0 1.6516e-06
20590.0 1.6752e-06
20610.0 1.7003e-06
20630.0 1.7257e-06
20650.0 1.7521e-06
20670.0 1.7804e-06
20690.0 1.8075e-06
20710.0 1.8341e-06
20730.0 1.8611e-06
20750.0 1.8877e-06
20770.0 1.9125e-06
20790.0 1.9371e-06
20810.0 1.962e-06
20830.0 1.9858e-06
20850.0 2.009e-06
20870.0 2.0334e-06
20890.0 2.0582e-06
20910.0 2.0822e-06
20930.0 2.1074e-06
20950.0 2.134e-06
20970.0 2.1605e-06
20990.0 2.187e-06
21010.0 2.2152e-06
21030.0 2.2429e-06
21050.0 2.2693e-06
21070.0 2.2952e-06
21090.0 2.3206e-06
21110.0 2.3428e-06
21130.0 2.3624e-06
21150.0 2.3801e-06
21170.0 2.3945e-06
21190.0 2.4051e-06
21210.0 2.4128e-06
21230.0 2.4167e-06
21250.0 2.4167e-06
21270.0 2.4132e-06
21290.0 2.4058e-06
21310.0 2.3948e-06
21330.0 2.3809e-06
21350.0 2.3634e-06
21370.0 2.3425e-06
21390.0 2.3195e-06
21410.0 2.2942e-06
21430.0 2.2651e-06
21450.0 2.2351e-06
21470.0 2.2046e-06
21490.0 2.1723e-06
21510.0 2.1389e-06
21530.0 2.1069e-06
21550.0 2.0751e-06
21570.0 2.0429e-06
21590.0 2.0129e-06
21610.0 1.9854e-06
21630.0 1.9594e-06
21650.0 1.9355e-06
21670.0 1.9162e-06
21690.0 1.8998e-06
21710.0 1.8866e-06
21730.0 1.8775e-06
21750.0 1.8724e-06
21770.0 1.871e-06
21790.0 1.8739e-06
21810.0 1.8805e-06
21830.0 1.891e-06
21850.0 1.9056e-06
21870.0 1.9235e-06
21890.0 1.9438e-06
21910.0 1.968e-06
21930.0 1.9951e-06
21950.0 2.0236e-06
21970.0 2.0546e-06
21990.0 2.089e-06
22010.0 2.1234e-06
22030.0 2.1583e-06
22050.0 2.1952e-06
22070.0 2.2326e-06
22090.0 2.2683e-06
22110.0 2.3046e-06
22130.0 2.3409e-06
22150.0 2.375e-06
22170.0 2.4071e-06
22190.0 2.4385e-06
22210.0 2.4672e-06
22230.0 2.4917e-06
22250.0 2.5136e-06
22270.0 2.5323e-06
22290.0 2.5463e-06
22310.0 2.5562e-06
22330.0 2.5618e-06
22350.0 2.5624e-06
22370.0 2.5582e-06
22390.0 2.5489e-06
22410.0 2.5339e-06
22430.0 2.5146e-06
22450.0 2.4908e-06
22470.0 2.4612e-06
22490.0 2.4273e-06
22510.0 2.3906e-06
22530.0 2.3483e-06
22550.0 2.3015e-06
22570.0 2.2536e-06
22590.0 2.203e-06
22610.0 2.1484e-06
