#lamb flux
1010.0 4.0404e-08
1030.0 4.5514e-08
1050.0 5.1393e-08
1070.0 5.801e-08
1090.0 6.5527e-08
1110.0 7.3236e-08
1130.0 8.0995e-08
1150.0 8.9123e-08
1170.0 9.7507e-08
1190.0 1.0546e-07
1210.0 1.1351e-07
1230.0 1.2184e-07
1250.0 1.3e-07
1270.0 1.3792e-07
1290.0 1.4629e-07
1310.0 1.5466e-07
1330.0 1.6268e-07
1350.0 1.7079e-07
1370.0 1.7916e-07
1390.0 1.8733e-07
1410.0 1.9525e-07
1430.0 2.0353e-07
1450.0 2.1181e-07
1470.0 2.1981e-07
1490.0 2.2789e-07
1510.0 2.3643e-07
1530.0 2.4452e-07
1550.0 2.5249e-07
1570.0 2.6074e-07
1590.0 2.6899e-07
1610.0 2.7687e-07
1630.0 2.8499e-07
1650.0 2.9332e-07
1670.0 3.0136e-07
1690.0 3.0929e-07
1710.0 3.1752e-07
1730.0 3.2578e-07
1750.0 3.3353e-07
1770.0 3.4149e-07
1790.0 3.4959e-07
1810.0 3.574e-07
1830.0 3.6504e-07
1850.0 3.7313e-07
1870.0 3.8096e-07
1890.0 3.8847e-07
1910.0 3.9609e-07
1930.0 4.0384e-07
1950.0 4.1116e-07
1970.0 4.183e-07
1990.0 4.2565e-07
2010.0 4.3277e-07
2030.0 4.395e-07
2050.0 4.4635e-07
2070.0 4.5327e-07
2090.0 4.5959e-07
2110.0 4.6572e-07
2130.0 4.7192e-07
2150.0 4.7778e-07
2170.0 4.8312e-07
2190.0 4.8852e-07
2210.0 4.9374e-07
2230.0 4.9841e-07
2250.0 5.028e-07
2270.0 5.0725e-07
2290.0 5.1117e-07
2310.0 5.145e-07
2330.0 5.1776e-07
2350.0 5.2079e-07
2370.0 5.2325e-07
2390.0 5.2558e-07
2410.0 5.2818e-07
2430.0 5.3063e-07
2450.0 5.332e-07
2470.0 5.366e-07
2490.0 5.4111e-07
2510.0 5.4634e-07
2530.0 5.5405e-07
2550.0 5.6674e-07
2570.0 5.8668e-07
2590.0 6.1726e-07
2610.0 6.6808e-07
2630.0 7.4185e-07
2650.0 8.3497e-07
2670.0 9.4904e-07
2690.0 1.0797e-06
2710.0 1.2073e-06
2730.0 1.3216e-06
2750.0 1.4233e-06
2770.0 1.5003e-06
2790.0 1.551e-06
2810.0 1.5829e-06
2830.0 1.6009e-06
2850.0 1.605e-06
2870.0 1.6021e-06
2890.0 1.596e-06
2910.0 1.5874e-06
2930.0 1.5769e-06
2950.0 1.5667e-06
2970.0 1.5568e-06
2990.0 1.5465e-06
3010.0 3.6139e-05
3030.0 3.5898e-05
3050.0 3.566e-05
3070.0 3.5396e-05
3090.0 3.5121e-05
3110.0 3.4798e-05
3130.0 3.4386e-05
3150.0 3.3862e-05
3170.0 3.3184e-05
3190.0 3.2368e-05
3210.0 3.1478e-05
3230.0 3.0572e-05
3250.0 2.9774e-05
3270.0 2.9223e-05
3290.0 2.8989e-05
3310.0 2.9124e-05
3330.0 2.964e-05
3350.0 3.0462e-05
3370.0 3.1606e-05
3390.0 3.3034e-05
3410.0 3.4586e-05
3430.0 3.6334e-05
3450.0 3.8347e-05
3470.0 4.054e-05
3490.0 4.2855e-05
3510.0 4.5455e-05
3530.0 4.8233e-05
3550.0 5.1061e-05
3570.0 5.4057e-05
3590.0 5.7409e-05
3610.0 6.0949e-05
3630.0 6.4646e-05
3650.0 6.8529e-05
3670.0 7.2163e-05
3690.0 7.4987e-05
3710.0 7.6677e-05
3730.0 7.674e-05
3750.0 7.514e-05
3770.0 7.0369e-05
3790.0 6.428e-05
3810.0 5.791e-05
3830.0 5.13e-05
3850.0 4.2891e-05
3870.0 3.0674e-05
3890.0 4.4414e-05
3910.0 7.0476e-05
3930.0 8.611e-05
3950.0 8.5347e-05
3970.0 9.0242e-05
3990.0 0.00010087
4010.0 0.00013422
4030.0 0.00013285
4050.0 0.00011705
4070.0 0.00010837
4090.0 0.00010305
4110.0 0.00012197
4130.0 0.00013114
4150.0 0.00013488
4170.0 0.00013116
4190.0 0.00013077
4210.0 0.00013125
4230.0 0.00014881
4250.0 0.00016421
4270.0 0.00016859
4290.0 0.00016796
4310.0 0.0001686
4330.0 0.00018369
4350.0 0.00021606
4370.0 0.00024764
4390.0 0.00022833
4410.0 0.00017846
4430.0 0.00014757
4450.0 0.00012743
4470.0 0.0001208
4490.0 0.00013747
4510.0 0.00016546
4530.0 0.00018602
4550.0 0.00021009
4570.0 0.00023958
4590.0 0.000286
4610.0 0.00038797
4630.0 0.00048327
4650.0 0.00048889
4670.0 0.00046271
4690.0 0.00049295
4710.0 0.00052364
4730.0 0.00044025
4750.0 0.00030718
4770.0 0.00024606
4790.0 0.00024311
4810.0 0.00022882
4830.0 0.00021673
4850.0 0.00024614
4870.0 0.00032061
4890.0 0.00037183
4910.0 0.00030946
4930.0 0.00027493
4950.0 0.00030809
4970.0 0.00041478
4990.0 0.00054447
5010.0 0.00058921
5030.0 0.00048394
5050.0 0.00030591
5070.0 0.00021046
5090.0 0.000184
5110.0 0.00019025
5130.0 0.00020705
5150.0 0.00021506
5170.0 0.00021353
5190.0 0.0002071
5210.0 0.00020259
5230.0 0.00021299
5250.0 0.00023053
5270.0 0.00025682
5290.0 0.00029484
5310.0 0.00033433
5330.0 0.0003439
5350.0 0.00034414
5370.0 0.0003762
5390.0 0.00041767
5410.0 0.00039946
5430.0 0.00033748
5450.0 0.00031237
5470.0 0.0003511
5490.0 0.00045068
5510.0 0.0005763
5530.0 0.00064689
5550.0 0.00061946
5570.0 0.00055853
5590.0 0.0004914
5610.0 0.00045968
5630.0 0.00044599
5650.0 0.00045046
5670.0 0.00043641
5690.0 0.00039641
5710.0 0.00037997
5730.0 0.0003503
5750.0 0.00023834
5770.0 0.00020295
5790.0 0.00023147
5810.0 0.00027783
5830.0 0.00032836
5850.0 0.00037044
5870.0 0.00038392
5890.0 0.00037043
5910.0 0.00035495
5930.0 0.00035416
5950.0 0.00037031
5970.0 0.00040599
5990.0 0.0003776
6010.0 0.00031338
6030.0 0.00025948
6050.0 0.00022511
6070.0 0.00022893
6090.0 0.00025928
6110.0 0.00028349
6130.0 0.00027127
6150.0 0.0002437
6170.0 0.00025629
6190.0 0.00031049
6210.0 0.00039067
6230.0 0.00046654
6250.0 0.00047218
6270.0 0.00041362
6290.0 0.00034364
6310.0 0.00027131
6330.0 0.00021283
6350.0 0.00019238
6370.0 0.00020648
6390.0 0.00024591
6410.0 0.00028852
6430.0 0.00033654
6450.0 0.00039492
6470.0 0.00047239
6490.0 0.00058192
6510.0 0.00064759
6530.0 0.00060725
6550.0 0.00055617
6570.0 0.00052724
6590.0 0.0005077
6610.0 0.00044668
6630.0 0.00040893
6650.0 0.00037692
6670.0 0.00038399
6690.0 0.00037044
6710.0 0.0003321
6730.0 0.00028563
6750.0 0.00026234
6770.0 0.0002657
6790.0 0.00030289
6810.0 0.00029656
6830.0 0.00030484
6850.0 0.00029431
6870.0 0.00028121
6890.0 0.00027124
6910.0 0.00026709
6930.0 0.0002499
6950.0 0.00025978
6970.0 0.00026259
6990.0 0.00029347
7010.0 0.00031113
7030.0 0.00029147
7050.0 0.00027129
7070.0 0.00026158
7090.0 0.00024484
7110.0 0.00023219
7130.0 0.00024046
7150.0 0.0002566
7170.0 0.00027485
7190.0 0.00027867
7210.0 0.00027035
7230.0 0.00027884
7250.0 0.00031694
7270.0 0.00036861
7290.0 0.0004069
7310.0 0.00040142
7330.0 0.00035814
7350.0 0.00032008
7370.0 0.00029671
7390.0 0.00030051
7410.0 0.00032157
7430.0 0.00035256
7450.0 0.00038134
7470.0 0.00040986
7490.0 0.00044505
7510.0 0.0004701
7530.0 0.00043854
7550.0 0.00036918
7570.0 0.00029018
7590.0 0.00021367
7610.0 0.00018972
7630.0 0.00020526
7650.0 0.00023769
7670.0 0.00027572
7690.0 0.00031263
7710.0 0.00033382
7730.0 0.00034294
7750.0 0.0003583
7770.0 0.000357
7790.0 0.00034362
7810.0 0.00034257
7830.0 0.00033603
7850.0 0.00030683
7870.0 0.0002788
7890.0 0.0002502
7910.0 0.00021347
7930.0 0.00018638
7950.0 0.00016891
7970.0 0.00016431
7990.0 0.00016865
8010.0 0.00017776
8030.0 0.00017809
8050.0 0.00017935
8070.0 0.0001764
8090.0 0.00018067
8110.0 0.00017039
8130.0 0.0001491
8150.0 0.00014005
8170.0 0.00012905
8190.0 0.00012771
8210.0 0.00013688
8230.0 0.00014641
8250.0 0.00013566
8270.0 0.00012091
8290.0 9.932e-05
8310.0 6.8442e-05
8330.0 4.4412e-05
8350.0 3.2344e-05
8370.0 3.4371e-05
8390.0 4.0698e-05
8410.0 5.1687e-05
8430.0 6.3148e-05
8450.0 6.9711e-05
8470.0 7.733e-05
8490.0 7.6005e-05
8510.0 7.6383e-05
8530.0 7.976e-05
8550.0 9.654e-05
8570.0 0.0001189
8590.0 0.00013584
8610.0 0.00016416
8630.0 0.00019026
8650.0 0.00020015
8670.0 0.00020343
8690.0 0.00020218
8710.0 0.00018902
8730.0 0.0001814
8750.0 0.00016784
8770.0 0.00016114
8790.0 0.00015983
8810.0 0.00015235
8830.0 0.00012813
8850.0 0.00010557
8870.0 8.8019e-05
8890.0 8.6018e-05
8910.0 9.289e-05
8930.0 9.8566e-05
8950.0 0.0001106
8970.0 0.00011232
8990.0 0.00011056
9010.0 0.0001063
9030.0 0.00010519
9050.0 0.00010622
9070.0 0.00010704
9090.0 0.00010765
9110.0 0.00010821
9130.0 0.00010869
9150.0 0.00010916
9170.0 0.00010965
9190.0 0.00011016
9210.0 0.00011072
9230.0 0.0001113
9250.0 0.00011191
9270.0 0.00011255
9290.0 0.00011321
9310.0 0.00011391
9330.0 0.00011463
9350.0 0.00011538
9370.0 0.00011616
9390.0 0.00011696
9410.0 0.00011779
9430.0 0.00011864
9450.0 0.00011952
9470.0 0.00012043
9490.0 0.00012136
9510.0 0.00012232
9530.0 0.0001233
9550.0 0.0001243
9570.0 0.00012532
9590.0 0.00012637
9610.0 0.00012744
9630.0 0.00012853
9650.0 0.00012964
9670.0 0.00013078
9690.0 0.00013193
9710.0 0.0001331
9730.0 0.0001343
9750.0 0.00013551
9770.0 0.00013673
9790.0 0.00013797
9810.0 0.00013923
9830.0 0.0001405
9850.0 0.00014179
9870.0 0.00014309
9890.0 0.00014441
9910.0 0.00014572
9930.0 0.00014706
9950.0 0.00014841
9970.0 0.00014976
9990.0 0.00015111
10010.0 0.00014552
10030.0 0.0001468
10050.0 0.00014807
10070.0 0.00014935
10090.0 0.00015065
10110.0 0.00015193
10130.0 0.00015322
10150.0 0.00015452
10170.0 0.0001558
10190.0 0.00015707
10210.0 0.00015835
10230.0 0.00015963
10250.0 0.00016089
10270.0 0.00016214
10290.0 0.0001634
10310.0 0.00016463
10330.0 0.00016584
10350.0 0.00016706
10370.0 0.00016826
10390.0 0.00016943
10410.0 0.0001706
10430.0 0.00017175
10450.0 0.00017288
10470.0 0.00017399
10490.0 0.00017508
10510.0 0.00017615
10530.0 0.00017718
10550.0 0.0001782
10570.0 0.0001792
10590.0 0.00018017
10610.0 0.00018111
10630.0 0.00018203
10650.0 0.00018292
10670.0 0.00018377
10690.0 0.00018459
10710.0 0.00018539
10730.0 0.00018615
10750.0 0.00018687
10770.0 0.00018757
10790.0 0.00018824
10810.0 0.00018885
10830.0 0.00018943
10850.0 0.00018998
10870.0 0.00019042
10890.0 0.00019076
10910.0 0.00019095
10930.0 0.00019088
10950.0 0.0001904
10970.0 0.00018943
10990.0 0.00018794
11010.0 0.00018252
11030.0 0.00017959
11050.0 0.0001761
11070.0 0.00017198
11090.0 0.00016702
11110.0 0.00016191
11130.0 0.00015658
11150.0 0.00015084
11170.0 0.00014495
11190.0 0.0001393
11210.0 0.00013353
11230.0 0.00012771
11250.0 0.00012227
11270.0 0.00011715
11290.0 0.00011214
11310.0 0.00010751
11330.0 0.00010352
11350.0 9.9826e-05
11370.0 9.6462e-05
11390.0 9.3576e-05
11410.0 9.1045e-05
11430.0 8.8653e-05
11450.0 8.652e-05
11470.0 8.4582e-05
11490.0 8.2665e-05
11510.0 8.0688e-05
11530.0 7.8739e-05
11550.0 7.6713e-05
11570.0 7.4489e-05
11590.0 7.2153e-05
11610.0 6.9773e-05
11630.0 6.7203e-05
11650.0 6.4494e-05
11670.0 6.187e-05
11690.0 5.9259e-05
11710.0 5.6621e-05
11730.0 5.4114e-05
11750.0 5.1833e-05
11770.0 4.9634e-05
11790.0 4.7603e-05
11810.0 4.5831e-05
11830.0 4.4253e-05
11850.0 4.2799e-05
11870.0 4.1565e-05
11890.0 4.051e-05
11910.0 3.9544e-05
11930.0 3.8662e-05
11950.0 3.7867e-05
11970.0 3.7095e-05
11990.0 3.6303e-05
12010.0 3.5514e-05
12030.0 3.4713e-05
12050.0 3.386e-05
12070.0 3.2958e-05
12090.0 3.208e-05
12110.0 3.1186e-05
12130.0 3.0282e-05
12150.0 2.9433e-05
12170.0 2.8664e-05
12190.0 2.7945e-05
12210.0 2.7349e-05
12230.0 2.6904e-05
12250.0 2.6602e-05
12270.0 2.6467e-05
12290.0 2.6506e-05
12310.0 2.6702e-05
12330.0 2.7079e-05
12350.0 2.7616e-05
12370.0 2.8266e-05
12390.0 2.9041e-05
12410.0 2.997e-05
12430.0 3.0911e-05
12450.0 3.1876e-05
12470.0 3.2891e-05
12490.0 3.3887e-05
12510.0 3.4789e-05
12530.0 3.5658e-05
12550.0 3.6461e-05
12570.0 3.7123e-05
12590.0 3.7658e-05
12610.0 3.8088e-05
12630.0 3.8371e-05
12650.0 3.8491e-05
12670.0 3.8487e-05
12690.0 3.835e-05
12710.0 3.8086e-05
12730.0 3.7715e-05
12750.0 3.7226e-05
12770.0 3.6649e-05
12790.0 3.6007e-05
12810.0 3.5289e-05
12830.0 3.4498e-05
12850.0 3.369e-05
12870.0 3.285e-05
12890.0 3.1953e-05
12910.0 3.1041e-05
12930.0 3.0134e-05
12950.0 2.9181e-05
12970.0 2.8197e-05
12990.0 2.7244e-05
13010.0 2.6284e-05
13030.0 2.5295e-05
13050.0 2.4323e-05
13070.0 2.3394e-05
13090.0 2.245e-05
13110.0 2.1524e-05
13130.0 2.066e-05
13150.0 1.9838e-05
13170.0 1.9035e-05
13190.0 1.8322e-05
13210.0 1.7697e-05
13230.0 1.7135e-05
13250.0 1.666e-05
13270.0 1.6292e-05
13290.0 1.6015e-05
13310.0 1.5834e-05
13330.0 1.5759e-05
13350.0 1.5778e-05
13370.0 1.5893e-05
13390.0 1.6102e-05
13410.0 1.6369e-05
13430.0 1.6704e-05
13450.0 1.7103e-05
13470.0 1.753e-05
13490.0 1.7966e-05
13510.0 1.8446e-05
13530.0 1.8916e-05
13550.0 1.9351e-05
13570.0 1.9767e-05
13590.0 2.0162e-05
13610.0 2.0499e-05
13630.0 2.078e-05
13650.0 2.1025e-05
13670.0 2.1214e-05
13690.0 2.1342e-05
13710.0 2.1421e-05
13730.0 2.1453e-05
13750.0 2.1431e-05
13770.0 2.1367e-05
13790.0 2.1261e-05
13810.0 2.1117e-05
13830.0 2.0945e-05
13850.0 2.074e-05
13870.0 2.0504e-05
13890.0 2.025e-05
13910.0 1.9977e-05
13930.0 1.9676e-05
13950.0 1.9359e-05
13970.0 1.9044e-05
13990.0 1.8712e-05
14010.0 1.8369e-05
14030.0 1.8034e-05
14050.0 1.7705e-05
14070.0 1.7366e-05
14090.0 1.7049e-05
14110.0 1.6758e-05
14130.0 1.6483e-05
14150.0 1.6231e-05
14170.0 1.6022e-05
14190.0 1.5847e-05
14210.0 1.5707e-05
14230.0 1.5611e-05
14250.0 1.5559e-05
14270.0 1.5549e-05
14290.0 1.5586e-05
14310.0 1.5661e-05
14330.0 1.5775e-05
14350.0 1.593e-05
14370.0 1.6115e-05
14390.0 1.6319e-05
14410.0 1.6555e-05
14430.0 1.6813e-05
14450.0 1.7076e-05
14470.0 1.7351e-05
14490.0 1.765e-05
14510.0 1.7946e-05
14530.0 1.8241e-05
14550.0 1.8554e-05
14570.0 1.8881e-05
14590.0 1.9207e-05
14610.0 1.9558e-05
14630.0 1.9945e-05
14650.0 2.0349e-05
14670.0 2.0776e-05
14690.0 2.1254e-05
14710.0 2.1781e-05
14730.0 2.2315e-05
14750.0 2.2899e-05
14770.0 2.3537e-05
14790.0 2.4191e-05
14810.0 2.4856e-05
14830.0 2.5585e-05
14850.0 2.6313e-05
14870.0 2.7013e-05
14890.0 2.771e-05
14910.0 2.8395e-05
14930.0 2.9009e-05
14950.0 2.9547e-05
14970.0 3.0027e-05
14990.0 3.0407e-05
15010.0 3.0683e-05
15030.0 3.0874e-05
15050.0 3.0989e-05
15070.0 3.1034e-05
15090.0 3.1037e-05
15110.0 3.1009e-05
15130.0 3.0965e-05
15150.0 3.0913e-05
15170.0 3.0855e-05
15190.0 3.0794e-05
15210.0 3.0735e-05
15230.0 3.0676e-05
15250.0 3.0615e-05
15270.0 3.0554e-05
15290.0 3.0498e-05
15310.0 3.044e-05
15330.0 3.0381e-05
15350.0 3.0325e-05
15370.0 3.027e-05
15390.0 3.021e-05
15410.0 3.0153e-05
15430.0 3.0099e-05
15450.0 3.0042e-05
15470.0 2.9984e-05
15490.0 2.993e-05
15510.0 2.9876e-05
15530.0 2.9819e-05
15550.0 2.9763e-05
15570.0 2.971e-05
15590.0 2.9654e-05
15610.0 2.9596e-05
15630.0 2.9542e-05
15650.0 2.9488e-05
15670.0 2.943e-05
15690.0 2.9375e-05
15710.0 2.9322e-05
15730.0 2.9265e-05
15750.0 2.9207e-05
15770.0 2.9153e-05
15790.0 2.9097e-05
15810.0 2.9037e-05
15830.0 2.8981e-05
15850.0 2.8926e-05
15870.0 2.8868e-05
15890.0 2.8809e-05
15910.0 2.8753e-05
15930.0 2.8695e-05
15950.0 2.8634e-05
15970.0 2.8575e-05
15990.0 2.8517e-05
16010.0 2.8456e-05
16030.0 2.8394e-05
16050.0 2.8336e-05
16070.0 2.8275e-05
16090.0 2.8212e-05
16110.0 2.815e-05
16130.0 2.809e-05
16150.0 2.8024e-05
16170.0 2.796e-05
16190.0 2.7897e-05
16210.0 2.7833e-05
16230.0 2.7766e-05
16250.0 2.7701e-05
16270.0 2.7637e-05
16290.0 2.7568e-05
16310.0 2.75e-05
16330.0 2.7434e-05
16350.0 2.7366e-05
16370.0 2.7293e-05
16390.0 2.7224e-05
16410.0 2.7155e-05
16430.0 2.7083e-05
16450.0 2.7011e-05
16470.0 2.6941e-05
16490.0 2.6867e-05
16510.0 2.6792e-05
16530.0 2.6719e-05
16550.0 2.6645e-05
16570.0 2.6567e-05
16590.0 2.649e-05
16610.0 2.6415e-05
16630.0 2.6338e-05
16650.0 2.6258e-05
16670.0 2.6181e-05
16690.0 2.6103e-05
16710.0 2.602e-05
16730.0 2.5938e-05
16750.0 2.5859e-05
16770.0 2.5776e-05
16790.0 2.5691e-05
16810.0 2.561e-05
16830.0 2.5527e-05
16850.0 2.544e-05
16870.0 2.5355e-05
16890.0 2.5271e-05
16910.0 2.5183e-05
16930.0 2.5093e-05
16950.0 2.5007e-05
16970.0 2.4919e-05
16990.0 2.4828e-05
17010.0 2.4738e-05
17030.0 2.4651e-05
17050.0 2.4558e-05
17070.0 2.4465e-05
17090.0 2.4374e-05
17110.0 2.4282e-05
17130.0 2.4185e-05
17150.0 2.4092e-05
17170.0 2.3999e-05
17190.0 2.3903e-05
17210.0 2.3807e-05
17230.0 2.3713e-05
17250.0 2.3616e-05
17270.0 2.3516e-05
17290.0 2.3419e-05
17310.0 2.3322e-05
17330.0 2.3222e-05
17350.0 2.3121e-05
17370.0 2.3024e-05
17390.0 2.2924e-05
17410.0 2.2821e-05
17430.0 2.2721e-05
17450.0 2.2622e-05
17470.0 2.2516e-05
17490.0 2.2413e-05
17510.0 2.2312e-05
17530.0 2.2208e-05
17550.0 2.2103e-05
17570.0 2.2e-05
17590.0 2.1897e-05
17610.0 2.1791e-05
17630.0 2.1685e-05
17650.0 2.1581e-05
17670.0 2.1475e-05
17690.0 2.1365e-05
17710.0 2.1261e-05
17730.0 2.1155e-05
17750.0 2.1047e-05
17770.0 2.0939e-05
17790.0 2.0834e-05
17810.0 2.0725e-05
17830.0 2.0615e-05
17850.0 2.0508e-05
17870.0 2.0401e-05
17890.0 2.029e-05
17910.0 2.018e-05
17930.0 2.0073e-05
17950.0 1.9964e-05
17970.0 1.9853e-05
17990.0 1.9745e-05
18010.0 1.9636e-05
18030.0 1.9523e-05
18050.0 1.9413e-05
18070.0 1.9305e-05
18090.0 1.9194e-05
18110.0 1.9082e-05
18130.0 1.8973e-05
18150.0 1.8864e-05
18170.0 1.8752e-05
18190.0 1.8641e-05
18210.0 1.8533e-05
18230.0 1.8421e-05
18250.0 1.8308e-05
18270.0 1.8199e-05
18290.0 1.8089e-05
18310.0 1.7977e-05
18330.0 1.7867e-05
18350.0 1.7758e-05
18370.0 1.7646e-05
18390.0 1.7535e-05
18410.0 1.7426e-05
18430.0 1.7316e-05
18450.0 1.7203e-05
18470.0 1.7093e-05
18490.0 1.6985e-05
18510.0 1.6874e-05
18530.0 1.6764e-05
18550.0 1.6656e-05
18570.0 1.6547e-05
18590.0 1.6435e-05
18610.0 1.6326e-05
18630.0 1.6218e-05
18650.0 1.6108e-05
18670.0 1.5998e-05
18690.0 1.5892e-05
18710.0 1.5784e-05
18730.0 1.5674e-05
18750.0 1.5567e-05
18770.0 1.5461e-05
18790.0 1.535e-05
18810.0 1.5242e-05
18830.0 1.5137e-05
18850.0 1.503e-05
18870.0 1.4921e-05
18890.0 1.4816e-05
18910.0 1.4712e-05
18930.0 1.4604e-05
18950.0 1.4498e-05
18970.0 1.4395e-05
18990.0 1.4289e-05
19010.0 1.4181e-05
19030.0 1.4078e-05
19050.0 1.3975e-05
19070.0 1.387e-05
19090.0 1.3766e-05
19110.0 1.3665e-05
19130.0 1.3561e-05
19150.0 1.3457e-05
19170.0 1.3355e-05
19190.0 1.3254e-05
19210.0 1.315e-05
19230.0 1.3048e-05
19250.0 1.295e-05
19270.0 1.2848e-05
19290.0 1.2747e-05
19310.0 1.2648e-05
19330.0 1.2549e-05
19350.0 1.2447e-05
19370.0 1.2348e-05
19390.0 1.2251e-05
19410.0 1.2152e-05
19430.0 1.2052e-05
19450.0 1.1957e-05
19470.0 1.186e-05
19490.0 1.1761e-05
19510.0 1.1665e-05
19530.0 1.1571e-05
19550.0 1.1473e-05
19570.0 1.1376e-05
19590.0 1.1283e-05
19610.0 1.1188e-05
19630.0 1.1092e-05
19650.0 1.0999e-05
19670.0 1.0907e-05
19690.0 1.0813e-05
19710.0 1.0719e-05
19730.0 1.0628e-05
19750.0 1.0536e-05
19770.0 1.0441e-05
19790.0 1.0351e-05
19810.0 1.0261e-05
19830.0 1.0169e-05
19850.0 1.0078e-05
19870.0 9.9887e-06
19890.0 9.8955e-06
19910.0 9.7972e-06
19930.0 9.6967e-06
19950.0 9.5889e-06
19970.0 9.4661e-06
19990.0 9.3286e-06
20010.0 9.3653e-06
20030.0 9.1935e-06
20050.0 9.0024e-06
20070.0 8.8033e-06
20090.0 8.5965e-06
20110.0 8.3713e-06
20130.0 8.15e-06
20150.0 7.936e-06
20170.0 7.7199e-06
20190.0 7.5059e-06
20210.0 7.307e-06
20230.0 7.1162e-06
20250.0 6.9282e-06
20270.0 6.7554e-06
20290.0 6.5988e-06
20310.0 6.4515e-06
20330.0 6.3151e-06
20350.0 6.2019e-06
20370.0 6.1021e-06
20390.0 6.0158e-06
20410.0 5.9469e-06
20430.0 5.8946e-06
20450.0 5.8555e-06
20470.0 5.8318e-06
20490.0 5.8223e-06
20510.0 5.8254e-06
20530.0 5.8415e-06
20550.0 5.8681e-06
20570.0 5.9025e-06
20590.0 5.9471e-06
20610.0 5.9994e-06
20630.0 6.0555e-06
20650.0 6.1173e-06
20670.0 6.1872e-06
20690.0 6.2569e-06
20710.0 6.3277e-06
20730.0 6.403e-06
20750.0 6.4801e-06
20770.0 6.5541e-06
20790.0 6.6307e-06
20810.0 6.7104e-06
20830.0 6.7883e-06
20850.0 6.8653e-06
20870.0 6.9472e-06
20890.0 7.03e-06
20910.0 7.1091e-06
20930.0 7.1911e-06
20950.0 7.2764e-06
20970.0 7.3594e-06
20990.0 7.4416e-06
21010.0 7.5289e-06
21030.0 7.6146e-06
21050.0 7.6967e-06
21070.0 7.7794e-06
21090.0 7.8635e-06
21110.0 7.9404e-06
21130.0 8.0135e-06
21150.0 8.0858e-06
21170.0 8.1527e-06
21190.0 8.2118e-06
21210.0 8.2679e-06
21230.0 8.3185e-06
21250.0 8.3592e-06
21270.0 8.3923e-06
21290.0 8.418e-06
21310.0 8.4337e-06
21330.0 8.4387e-06
21350.0 8.4337e-06
21370.0 8.4168e-06
21390.0 8.3881e-06
21410.0 8.3476e-06
21430.0 8.2913e-06
21450.0 8.2226e-06
21470.0 8.1431e-06
21490.0 8.0488e-06
21510.0 7.9404e-06
21530.0 7.8254e-06
21550.0 7.7001e-06
21570.0 7.5614e-06
21590.0 7.4193e-06
21610.0 7.2762e-06
21630.0 7.1271e-06
21650.0 6.9744e-06
21670.0 6.8345e-06
21690.0 6.6979e-06
21710.0 6.5657e-06
21730.0 6.4466e-06
21750.0 6.3426e-06
21770.0 6.247e-06
21790.0 6.1682e-06
21810.0 6.1082e-06
21830.0 6.0644e-06
21850.0 6.0375e-06
21870.0 6.0292e-06
21890.0 6.0373e-06
21910.0 6.0627e-06
21930.0 6.1045e-06
21950.0 6.1593e-06
21970.0 6.2286e-06
21990.0 6.3152e-06
22010.0 6.4094e-06
22030.0 6.5118e-06
22050.0 6.6266e-06
22070.0 6.7491e-06
22090.0 6.8711e-06
22110.0 7.0004e-06
22130.0 7.1358e-06
22150.0 7.2679e-06
22170.0 7.3973e-06
22190.0 7.5307e-06
22210.0 7.6593e-06
22230.0 7.7757e-06
22250.0 7.8884e-06
22270.0 7.9946e-06
22290.0 8.0872e-06
22310.0 8.168e-06
22330.0 8.2403e-06
22350.0 8.2971e-06
22370.0 8.3379e-06
22390.0 8.3647e-06
22410.0 8.3755e-06
22430.0 8.3692e-06
22450.0 8.3471e-06
22470.0 8.3073e-06
22490.0 8.2509e-06
22510.0 8.1806e-06
22530.0 8.0911e-06
22550.0 7.9831e-06
22570.0 7.8642e-06
22590.0 7.7311e-06
22610.0 7.5791e-06
22630.0 7.4154e-06
