#lamb flux
1010.0 5.8678e-09
1030.0 6.4899e-09
1050.0 7.2053e-09
1070.0 8.0107e-09
1090.0 8.9255e-09
1110.0 9.8638e-09
1130.0 1.0808e-08
1150.0 1.1797e-08
1170.0 1.2818e-08
1190.0 1.3785e-08
1210.0 1.4766e-08
1230.0 1.5779e-08
1250.0 1.6772e-08
1270.0 1.7736e-08
1290.0 1.8755e-08
1310.0 1.9773e-08
1330.0 2.075e-08
1350.0 2.1737e-08
1370.0 2.2756e-08
1390.0 2.375e-08
1410.0 2.4715e-08
1430.0 2.5723e-08
1450.0 2.6731e-08
1470.0 2.7706e-08
1490.0 2.8691e-08
1510.0 2.9731e-08
1530.0 3.0717e-08
1550.0 3.169e-08
1570.0 3.2697e-08
1590.0 3.3705e-08
1610.0 3.4668e-08
1630.0 3.5661e-08
1650.0 3.6681e-08
1670.0 3.7669e-08
1690.0 3.8644e-08
1710.0 3.9657e-08
1730.0 4.0677e-08
1750.0 4.1637e-08
1770.0 4.2626e-08
1790.0 4.3637e-08
1810.0 4.4616e-08
1830.0 4.558e-08
1850.0 4.6604e-08
1870.0 4.7603e-08
1890.0 4.8571e-08
1910.0 4.9559e-08
1930.0 5.0574e-08
1950.0 5.1545e-08
1970.0 5.2506e-08
1990.0 5.3505e-08
2010.0 5.4491e-08
2030.0 5.5443e-08
2050.0 5.6427e-08
2070.0 5.7437e-08
2090.0 5.8393e-08
2110.0 5.9347e-08
2130.0 6.0333e-08
2150.0 6.1302e-08
2170.0 6.223e-08
2190.0 6.3196e-08
2210.0 6.4169e-08
2230.0 6.5104e-08
2250.0 6.6037e-08
2270.0 6.7013e-08
2290.0 6.7959e-08
2310.0 6.8869e-08
2330.0 6.9816e-08
2350.0 7.0788e-08
2370.0 7.1756e-08
2390.0 7.2805e-08
2410.0 7.4047e-08
2430.0 7.5476e-08
2450.0 7.7184e-08
2470.0 7.9373e-08
2490.0 8.2131e-08
2510.0 8.5266e-08
2530.0 8.904e-08
2550.0 9.3764e-08
2570.0 9.9642e-08
2590.0 1.0729e-07
2610.0 1.1873e-07
2630.0 1.3507e-07
2650.0 1.5644e-07
2670.0 1.8407e-07
2690.0 2.1801e-07
2710.0 2.5425e-07
2730.0 2.9006e-07
2750.0 3.2533e-07
2770.0 3.5601e-07
2790.0 3.8037e-07
2810.0 3.997e-07
2830.0 4.1481e-07
2850.0 4.2512e-07
2870.0 4.3268e-07
2890.0 4.3868e-07
2910.0 4.4346e-07
2930.0 4.4736e-07
2950.0 4.5109e-07
2970.0 4.5474e-07
2990.0 4.5816e-07
3010.0 1.295e-05
3030.0 1.3047e-05
3050.0 1.3141e-05
3070.0 1.3221e-05
3090.0 1.329e-05
3110.0 1.3332e-05
3130.0 1.3331e-05
3150.0 1.3271e-05
3170.0 1.3129e-05
3190.0 1.2906e-05
3210.0 1.2623e-05
3230.0 1.2299e-05
3250.0 1.1979e-05
3270.0 1.1745e-05
3290.0 1.1616e-05
3310.0 1.1637e-05
3330.0 1.1805e-05
3350.0 1.2098e-05
3370.0 1.2517e-05
3390.0 1.3045e-05
3410.0 1.3619e-05
3430.0 1.4264e-05
3450.0 1.5006e-05
3470.0 1.5817e-05
3490.0 1.6676e-05
3510.0 1.7647e-05
3530.0 1.8687e-05
3550.0 1.9739e-05
3570.0 2.0838e-05
3590.0 2.2032e-05
3610.0 2.3262e-05
3630.0 2.4489e-05
3650.0 2.5762e-05
3670.0 2.6924e-05
3690.0 2.7793e-05
3710.0 2.8291e-05
3730.0 2.8307e-05
3750.0 2.7913e-05
3770.0 2.7758e-05
3790.0 2.7593e-05
3810.0 2.6915e-05
3830.0 2.7748e-05
3850.0 3.1026e-05
3870.0 3.2825e-05
3890.0 3.2675e-05
3910.0 3.2815e-05
3930.0 3.3678e-05
3950.0 3.421e-05
3970.0 3.1169e-05
3990.0 2.6819e-05
4010.0 8.0381e-05
4030.0 9.7393e-05
4050.0 0.00011165
4070.0 9.6879e-05
4090.0 8.7743e-05
4110.0 7.7425e-05
4130.0 7.1262e-05
4150.0 7.5801e-05
4170.0 7.4667e-05
4190.0 7.959e-05
4210.0 7.8862e-05
4230.0 8.3415e-05
4250.0 9.8682e-05
4270.0 9.9842e-05
4290.0 9.2003e-05
4310.0 9.5598e-05
4330.0 0.00010169
4350.0 0.00011402
4370.0 0.00012975
4390.0 0.00012176
4410.0 8.9959e-05
4430.0 7.6156e-05
4450.0 6.9979e-05
4470.0 5.3711e-05
4490.0 5.7961e-05
4510.0 8.7551e-05
4530.0 0.00010097
4550.0 0.00010185
4570.0 0.00011461
4590.0 0.00013055
4610.0 0.00017608
4630.0 0.00022869
4650.0 0.00024801
4670.0 0.00022968
4690.0 0.00021915
4710.0 0.00023166
4730.0 0.00021862
4750.0 0.00016345
4770.0 0.0001199
4790.0 0.00011196
4810.0 0.00010671
4830.0 9.7697e-05
4850.0 0.0001072
4870.0 0.00014163
4890.0 0.00016702
4910.0 0.00014654
4930.0 0.00012967
4950.0 0.00014246
4970.0 0.00018269
4990.0 0.00024759
5010.0 0.00028482
5030.0 0.00025115
5050.0 0.00016992
5070.0 0.00011198
5090.0 9.0297e-05
5110.0 9.2862e-05
5130.0 0.00010718
5150.0 0.00011612
5170.0 0.00011438
5190.0 0.00010688
5210.0 0.00011171
5230.0 0.00011743
5250.0 0.00012656
5270.0 0.00013655
5290.0 0.00015133
5310.0 0.00017614
5330.0 0.00019492
5350.0 0.00019368
5370.0 0.00020344
5390.0 0.00023345
5410.0 0.00023325
5430.0 0.00020627
5450.0 0.00018952
5470.0 0.00020123
5490.0 0.00024585
5510.0 0.0003074
5530.0 0.00035258
5550.0 0.00034077
5570.0 0.00030979
5590.0 0.00026936
5610.0 0.00024841
5630.0 0.00024089
5650.0 0.00022942
5670.0 0.0002174
5690.0 0.00019435
5710.0 0.0001895
5730.0 0.00017456
5750.0 0.00012307
5770.0 9.6017e-05
5790.0 0.00010881
5810.0 0.00012286
5830.0 0.00015077
5850.0 0.00017948
5870.0 0.00019913
5890.0 0.00020251
5910.0 0.00019867
5930.0 0.00018911
5950.0 0.00019271
5970.0 0.00021966
5990.0 0.00020654
6010.0 0.00017314
6030.0 0.00014628
6050.0 0.00012739
6070.0 0.0001267
6090.0 0.00013738
6110.0 0.00015361
6130.0 0.00015597
6150.0 0.0001342
6170.0 0.00011805
6190.0 0.00013285
6210.0 0.00017562
6230.0 0.00023047
6250.0 0.00024963
6270.0 0.00021814
6290.0 0.00018354
6310.0 0.00014328
6330.0 0.00010978
6350.0 9.7922e-05
6370.0 0.00010297
6390.0 0.00011905
6410.0 0.00014679
6430.0 0.00017141
6450.0 0.00019614
6470.0 0.00022458
6490.0 0.00027128
6510.0 0.00030332
6530.0 0.00029758
6550.0 0.00026909
6570.0 0.00022843
6590.0 0.00020598
6610.0 0.00017761
6630.0 0.00016091
6650.0 0.00015211
6670.0 0.00014777
6690.0 0.00013352
6710.0 0.00012137
6730.0 8.742e-05
6750.0 8.6667e-05
6770.0 9.4201e-05
6790.0 0.00010828
6810.0 9.9076e-05
6830.0 0.00010202
6850.0 9.5422e-05
6870.0 8.7168e-05
6890.0 8.3695e-05
6910.0 8.9187e-05
6930.0 8.3537e-05
6950.0 8.5945e-05
6970.0 9.0399e-05
6990.0 0.00010261
7010.0 0.00010348
7030.0 0.00010513
7050.0 0.00010026
7070.0 9.5526e-05
7090.0 9.5806e-05
7110.0 9.8577e-05
7130.0 0.00010608
7150.0 0.00011267
7170.0 0.00012432
7190.0 0.00013667
7210.0 0.00013429
7230.0 0.00013806
7250.0 0.00014836
7270.0 0.00016168
7290.0 0.0001919
7310.0 0.00020823
7330.0 0.00020127
7350.0 0.00018203
7370.0 0.00015839
7390.0 0.00015365
7410.0 0.00016329
7430.0 0.00018147
7450.0 0.00019766
7470.0 0.00019584
7490.0 0.00017857
7510.0 0.00020228
7530.0 0.00020006
7550.0 0.00017982
7570.0 0.00014047
7590.0 9.6569e-05
7610.0 8.2885e-05
7630.0 9.4173e-05
7650.0 0.00011135
7670.0 0.00013858
7690.0 0.0001525
7710.0 0.00015892
7730.0 0.000167
7750.0 0.00018748
7770.0 0.00019043
7790.0 0.00017492
7810.0 0.0001596
7830.0 0.00016459
7850.0 0.00015999
7870.0 0.00014669
7890.0 0.00012324
7910.0 0.00010018
7930.0 9.5658e-05
7950.0 8.7147e-05
7970.0 8.067e-05
7990.0 8.021e-05
8010.0 5.9405e-06
8030.0 5.8633e-06
8050.0 5.7842e-06
8070.0 5.86e-06
8090.0 6.2964e-06
8110.0 6.1891e-06
8130.0 5.1052e-06
8150.0 4.9719e-06
8170.0 4.2826e-06
8190.0 4.0587e-06
8210.0 5.2706e-06
8230.0 5.8681e-06
8250.0 5.2888e-06
8270.0 4.6032e-06
8290.0 4.4873e-06
8310.0 3.4536e-06
8330.0 2.3277e-06
8350.0 1.652e-06
8370.0 1.0408e-06
8390.0 1.9026e-06
8410.0 2.217e-06
8430.0 2.7328e-06
8450.0 3.209e-06
8470.0 3.9886e-06
8490.0 3.9605e-06
8510.0 3.8958e-06
8530.0 4.0658e-06
8550.0 5.4855e-06
8570.0 6.4941e-06
8590.0 7.007e-06
8610.0 8.8514e-06
8630.0 1.0663e-05
8650.0 1.1154e-05
8670.0 1.1854e-05
8690.0 1.192e-05
8710.0 1.0795e-05
8730.0 1.0041e-05
8750.0 8.8634e-06
8770.0 8.41e-06
8790.0 8.2624e-06
8810.0 7.9172e-06
8830.0 6.331e-06
8850.0 4.6347e-06
8870.0 3.5488e-06
8890.0 3.4695e-06
8910.0 3.9761e-06
8930.0 4.5225e-06
8950.0 4.6091e-06
8970.0 4.6309e-06
8990.0 4.1302e-06
9010.0 4.3282e-05
9030.0 3.9219e-05
9050.0 3.9408e-05
9070.0 3.9719e-05
9090.0 3.9992e-05
9110.0 4.0329e-05
9130.0 4.0589e-05
9150.0 4.0791e-05
9170.0 4.1007e-05
9190.0 4.1237e-05
9210.0 4.1479e-05
9230.0 4.1735e-05
9250.0 4.1994e-05
9270.0 4.2264e-05
9290.0 4.2541e-05
9310.0 4.2821e-05
9330.0 4.3105e-05
9350.0 4.3401e-05
9370.0 4.37e-05
9390.0 4.4002e-05
9410.0 4.4312e-05
9430.0 4.4632e-05
9450.0 4.4951e-05
9470.0 4.5276e-05
9490.0 4.5611e-05
9510.0 4.595e-05
9530.0 4.629e-05
9550.0 4.6643e-05
9570.0 4.7001e-05
9590.0 4.736e-05
9610.0 4.7726e-05
9630.0 4.8101e-05
9650.0 4.848e-05
9670.0 4.8859e-05
9690.0 4.9248e-05
9710.0 4.9644e-05
9730.0 5.004e-05
9750.0 5.0442e-05
9770.0 5.0856e-05
9790.0 5.127e-05
9810.0 5.1685e-05
9830.0 5.211e-05
9850.0 5.254e-05
9870.0 5.2968e-05
9890.0 5.3403e-05
9910.0 5.3846e-05
9930.0 5.429e-05
9950.0 5.4735e-05
9970.0 5.5189e-05
9990.0 5.5648e-05
10010.0 4.8287e-05
10030.0 4.8684e-05
10050.0 4.9088e-05
10070.0 4.9507e-05
10090.0 4.9901e-05
10110.0 5.0305e-05
10130.0 5.0711e-05
10150.0 5.1115e-05
10170.0 5.1524e-05
10190.0 5.1941e-05
10210.0 5.2352e-05
10230.0 5.2762e-05
10250.0 5.3179e-05
10270.0 5.3596e-05
10290.0 5.4007e-05
10310.0 5.4424e-05
10330.0 5.4844e-05
10350.0 5.5258e-05
10370.0 5.567e-05
10390.0 5.6087e-05
10410.0 5.6502e-05
10430.0 5.6909e-05
10450.0 5.732e-05
10470.0 5.7732e-05
10490.0 5.8137e-05
10510.0 5.8539e-05
10530.0 5.8948e-05
10550.0 5.935e-05
10570.0 5.9744e-05
10590.0 6.014e-05
10610.0 6.0535e-05
10630.0 6.0921e-05
10650.0 6.1303e-05
10670.0 6.169e-05
10690.0 6.2069e-05
10710.0 6.244e-05
10730.0 6.2811e-05
10750.0 6.3184e-05
10770.0 6.3541e-05
10790.0 6.3895e-05
10810.0 6.4248e-05
10830.0 6.4591e-05
10850.0 6.4917e-05
10870.0 6.5232e-05
10890.0 6.5509e-05
10910.0 6.5723e-05
10930.0 6.5844e-05
10950.0 6.5815e-05
10970.0 6.5592e-05
10990.0 6.5155e-05
11010.0 6.4423e-05
11030.0 6.3398e-05
11050.0 6.2149e-05
11070.0 6.0656e-05
11090.0 5.8861e-05
11110.0 5.7005e-05
11130.0 5.5068e-05
11150.0 5.2984e-05
11170.0 5.0835e-05
11190.0 4.875e-05
11210.0 4.6597e-05
11230.0 4.439e-05
11250.0 4.228e-05
11270.0 4.0255e-05
11290.0 3.8225e-05
11310.0 3.6303e-05
11330.0 3.461e-05
11350.0 3.3011e-05
11370.0 3.1533e-05
11390.0 3.0254e-05
11410.0 2.9136e-05
11430.0 2.8096e-05
11450.0 2.7201e-05
11470.0 2.6426e-05
11490.0 2.5706e-05
11510.0 2.5011e-05
11530.0 2.4367e-05
11550.0 2.3727e-05
11570.0 2.3044e-05
11590.0 2.2337e-05
11610.0 2.1617e-05
11630.0 2.0834e-05
11650.0 1.9995e-05
11670.0 1.9169e-05
11690.0 1.8331e-05
11710.0 1.7466e-05
11730.0 1.6628e-05
11750.0 1.5853e-05
11770.0 1.5092e-05
11790.0 1.4379e-05
11810.0 1.3752e-05
11830.0 1.3191e-05
11850.0 1.2674e-05
11870.0 1.2242e-05
11890.0 1.1882e-05
11910.0 1.1566e-05
11930.0 1.1295e-05
11950.0 1.1069e-05
11970.0 1.0867e-05
11990.0 1.0676e-05
12010.0 1.05e-05
12030.0 1.0329e-05
12050.0 1.0153e-05
12070.0 9.9705e-06
12090.0 9.7941e-06
12110.0 9.615e-06
12130.0 9.4355e-06
12150.0 9.2701e-06
12170.0 9.1257e-06
12190.0 9.0008e-06
12210.0 8.9136e-06
12230.0 8.8715e-06
12250.0 8.8783e-06
12270.0 8.9452e-06
12290.0 9.0718e-06
12310.0 9.2533e-06
12330.0 9.5073e-06
12350.0 9.8243e-06
12370.0 1.0185e-05
12390.0 1.0601e-05
12410.0 1.1089e-05
12430.0 1.1584e-05
12450.0 1.2098e-05
12470.0 1.2643e-05
12490.0 1.3191e-05
12510.0 1.3705e-05
12530.0 1.4217e-05
12550.0 1.471e-05
12570.0 1.5146e-05
12590.0 1.5528e-05
12610.0 1.5869e-05
12630.0 1.6141e-05
12650.0 1.6328e-05
12670.0 1.6451e-05
12690.0 1.6501e-05
12710.0 1.6474e-05
12730.0 1.6378e-05
12750.0 1.6208e-05
12770.0 1.5974e-05
12790.0 1.569e-05
12810.0 1.5352e-05
12830.0 1.496e-05
12850.0 1.455e-05
12870.0 1.4117e-05
12890.0 1.3649e-05
12910.0 1.3172e-05
12930.0 1.2703e-05
12950.0 1.2213e-05
12970.0 1.1714e-05
12990.0 1.1242e-05
13010.0 1.0776e-05
13030.0 1.0305e-05
13050.0 9.8523e-06
13070.0 9.4285e-06
13090.0 9.003e-06
13110.0 8.5914e-06
13130.0 8.2119e-06
13150.0 7.8525e-06
13170.0 7.5007e-06
13190.0 7.1876e-06
13210.0 6.912e-06
13230.0 6.6601e-06
13250.0 6.4432e-06
13270.0 6.2721e-06
13290.0 6.139e-06
13310.0 6.0473e-06
13330.0 6.0056e-06
13350.0 6.0104e-06
13370.0 6.0643e-06
13390.0 6.1702e-06
13410.0 6.3133e-06
13430.0 6.4994e-06
13450.0 6.7292e-06
13470.0 6.9843e-06
13490.0 7.2545e-06
13510.0 7.5593e-06
13530.0 7.8681e-06
13550.0 8.1639e-06
13570.0 8.4554e-06
13590.0 8.7396e-06
13610.0 8.9924e-06
13630.0 9.213e-06
13650.0 9.4145e-06
13670.0 9.5817e-06
13690.0 9.7111e-06
13710.0 9.8111e-06
13730.0 9.8826e-06
13750.0 9.9183e-06
13770.0 9.9264e-06
13790.0 9.9084e-06
13810.0 9.8646e-06
13830.0 9.8e-06
13850.0 9.7124e-06
13870.0 9.602e-06
13890.0 9.4757e-06
13910.0 9.3334e-06
13930.0 9.1686e-06
13950.0 8.9888e-06
13970.0 8.8048e-06
13990.0 8.6045e-06
14010.0 8.3916e-06
14030.0 8.1791e-06
14050.0 7.965e-06
14070.0 7.739e-06
14090.0 7.5224e-06
14110.0 7.3188e-06
14130.0 7.1216e-06
14150.0 6.9359e-06
14170.0 6.7774e-06
14190.0 6.6403e-06
14210.0 6.5241e-06
14230.0 6.438e-06
14250.0 6.3823e-06
14270.0 6.3554e-06
14290.0 6.3611e-06
14310.0 6.3966e-06
14330.0 6.4602e-06
14350.0 6.5539e-06
14370.0 6.6706e-06
14390.0 6.8032e-06
14410.0 6.9594e-06
14430.0 7.1308e-06
14450.0 7.3059e-06
14470.0 7.4876e-06
14490.0 7.6808e-06
14510.0 7.8655e-06
14530.0 8.041e-06
14550.0 8.2164e-06
14570.0 8.3848e-06
14590.0 8.5381e-06
14610.0 8.6863e-06
14630.0 8.833e-06
14650.0 8.9697e-06
14670.0 9.1016e-06
14690.0 9.2392e-06
14710.0 9.3839e-06
14730.0 9.5285e-06
14750.0 9.6888e-06
14770.0 9.8706e-06
14790.0 1.0068e-05
14810.0 1.0281e-05
14830.0 1.0534e-05
14850.0 1.0809e-05
14870.0 1.1096e-05
14890.0 1.1406e-05
14910.0 1.1734e-05
14930.0 1.205e-05
14950.0 1.2346e-05
14970.0 1.2625e-05
14990.0 1.286e-05
15010.0 1.3039e-05
15030.0 1.3172e-05
15050.0 1.326e-05
15070.0 1.3303e-05
15090.0 1.3318e-05
15110.0 1.3313e-05
15130.0 1.3297e-05
15150.0 1.3274e-05
15170.0 1.3248e-05
15190.0 1.3219e-05
15210.0 1.3191e-05
15230.0 1.3163e-05
15250.0 1.3134e-05
15270.0 1.3105e-05
15290.0 1.3078e-05
15310.0 1.305e-05
15330.0 1.3022e-05
15350.0 1.2994e-05
15370.0 1.2968e-05
15390.0 1.2939e-05
15410.0 1.2912e-05
15430.0 1.2885e-05
15450.0 1.2858e-05
15470.0 1.2831e-05
15490.0 1.2805e-05
15510.0 1.2779e-05
15530.0 1.2751e-05
15550.0 1.2725e-05
15570.0 1.27e-05
15590.0 1.2673e-05
15610.0 1.2646e-05
15630.0 1.2621e-05
15650.0 1.2595e-05
15670.0 1.2569e-05
15690.0 1.2543e-05
15710.0 1.2518e-05
15730.0 1.2492e-05
15750.0 1.2466e-05
15770.0 1.2441e-05
15790.0 1.2416e-05
15810.0 1.239e-05
15830.0 1.2365e-05
15850.0 1.234e-05
15870.0 1.2315e-05
15890.0 1.229e-05
15910.0 1.2265e-05
15930.0 1.224e-05
15950.0 1.2215e-05
15970.0 1.219e-05
15990.0 1.2165e-05
16010.0 1.214e-05
16030.0 1.2115e-05
16050.0 1.2091e-05
16070.0 1.2066e-05
16090.0 1.2041e-05
16110.0 1.2016e-05
16130.0 1.1992e-05
16150.0 1.1967e-05
16170.0 1.1941e-05
16190.0 1.1917e-05
16210.0 1.1893e-05
16230.0 1.1867e-05
16250.0 1.1843e-05
16270.0 1.1819e-05
16290.0 1.1793e-05
16310.0 1.1768e-05
16330.0 1.1744e-05
16350.0 1.172e-05
16370.0 1.1693e-05
16390.0 1.1669e-05
16410.0 1.1645e-05
16430.0 1.1619e-05
16450.0 1.1594e-05
16470.0 1.157e-05
16490.0 1.1545e-05
16510.0 1.1519e-05
16530.0 1.1495e-05
16550.0 1.147e-05
16570.0 1.1444e-05
16590.0 1.1419e-05
16610.0 1.1394e-05
16630.0 1.1369e-05
16650.0 1.1343e-05
16670.0 1.1318e-05
16690.0 1.1294e-05
16710.0 1.1267e-05
16730.0 1.1242e-05
16750.0 1.1217e-05
16770.0 1.1191e-05
16790.0 1.1164e-05
16810.0 1.1139e-05
16830.0 1.1114e-05
16850.0 1.1088e-05
16870.0 1.1062e-05
16890.0 1.1037e-05
16910.0 1.101e-05
16930.0 1.0983e-05
16950.0 1.0958e-05
16970.0 1.0932e-05
16990.0 1.0905e-05
17010.0 1.0879e-05
17030.0 1.0853e-05
17050.0 1.0827e-05
17070.0 1.08e-05
17090.0 1.0774e-05
17110.0 1.0747e-05
17130.0 1.0719e-05
17150.0 1.0693e-05
17170.0 1.0667e-05
17190.0 1.0639e-05
17210.0 1.0612e-05
17230.0 1.0586e-05
17250.0 1.0559e-05
17270.0 1.0531e-05
17290.0 1.0504e-05
17310.0 1.0477e-05
17330.0 1.0449e-05
17350.0 1.0421e-05
17370.0 1.0394e-05
17390.0 1.0367e-05
17410.0 1.0339e-05
17430.0 1.0311e-05
17450.0 1.0284e-05
17470.0 1.0255e-05
17490.0 1.0227e-05
17510.0 1.02e-05
17530.0 1.0171e-05
17550.0 1.0143e-05
17570.0 1.0115e-05
17590.0 1.0087e-05
17610.0 1.0058e-05
17630.0 1.003e-05
17650.0 1.0002e-05
17670.0 9.9733e-06
17690.0 9.9434e-06
17710.0 9.9154e-06
17730.0 9.8871e-06
17750.0 9.8578e-06
17770.0 9.8289e-06
17790.0 9.801e-06
17810.0 9.7716e-06
17830.0 9.7419e-06
17850.0 9.7132e-06
17870.0 9.6844e-06
17890.0 9.6544e-06
17910.0 9.6248e-06
17930.0 9.5964e-06
17950.0 9.5669e-06
17970.0 9.537e-06
17990.0 9.5081e-06
18010.0 9.4791e-06
18030.0 9.4483e-06
18050.0 9.4187e-06
18070.0 9.3896e-06
18090.0 9.3596e-06
18110.0 9.3291e-06
18130.0 9.3e-06
18150.0 9.2705e-06
18170.0 9.24e-06
18190.0 9.2101e-06
18210.0 9.1808e-06
18230.0 9.1502e-06
18250.0 9.1192e-06
18270.0 9.0898e-06
18290.0 9.0598e-06
18310.0 9.029e-06
18330.0 8.9989e-06
18350.0 8.9695e-06
18370.0 8.9386e-06
18390.0 8.9078e-06
18410.0 8.878e-06
18430.0 8.8477e-06
18450.0 8.8161e-06
18470.0 8.7859e-06
18490.0 8.7561e-06
18510.0 8.7251e-06
18530.0 8.6943e-06
18550.0 8.6645e-06
18570.0 8.6338e-06
18590.0 8.6023e-06
18610.0 8.5718e-06
18630.0 8.5416e-06
18650.0 8.5103e-06
18670.0 8.479e-06
18690.0 8.4492e-06
18710.0 8.4185e-06
18730.0 8.3871e-06
18750.0 8.3566e-06
18770.0 8.3265e-06
18790.0 8.2945e-06
18810.0 8.2633e-06
18830.0 8.2331e-06
18850.0 8.2022e-06
18870.0 8.1706e-06
18890.0 8.1402e-06
18910.0 8.1099e-06
18930.0 8.0782e-06
18950.0 8.0471e-06
18970.0 8.0168e-06
18990.0 7.9857e-06
19010.0 7.9535e-06
19030.0 7.9232e-06
19050.0 7.8926e-06
19070.0 7.8611e-06
19090.0 7.8301e-06
19110.0 7.8001e-06
19130.0 7.7686e-06
19150.0 7.7369e-06
19170.0 7.7064e-06
19190.0 7.6757e-06
19210.0 7.6438e-06
19230.0 7.6126e-06
19250.0 7.5825e-06
19270.0 7.5513e-06
19290.0 7.5199e-06
19310.0 7.4895e-06
19330.0 7.4589e-06
19350.0 7.4268e-06
19370.0 7.3959e-06
19390.0 7.3655e-06
19410.0 7.3342e-06
19430.0 7.3027e-06
19450.0 7.2725e-06
19470.0 7.2419e-06
19490.0 7.2103e-06
19510.0 7.1795e-06
19530.0 7.1493e-06
19550.0 7.1177e-06
19570.0 7.0861e-06
19590.0 7.0559e-06
19610.0 7.0253e-06
19630.0 6.9938e-06
19650.0 6.9632e-06
19670.0 6.9332e-06
19690.0 6.9018e-06
19710.0 6.8706e-06
19730.0 6.8404e-06
19750.0 6.8097e-06
19770.0 6.7779e-06
19790.0 6.7475e-06
19810.0 6.7174e-06
19830.0 6.6861e-06
19850.0 6.6547e-06
19870.0 6.6239e-06
19890.0 6.5908e-06
19910.0 6.5545e-06
19930.0 6.5156e-06
19950.0 6.4711e-06
19970.0 6.4164e-06
19990.0 6.3504e-06
20010.0 5.6499e-06
20030.0 5.5682e-06
20050.0 5.4724e-06
20070.0 5.3688e-06
20090.0 5.2572e-06
20110.0 5.131e-06
20130.0 5.0033e-06
20150.0 4.8767e-06
20170.0 4.7455e-06
20190.0 4.6123e-06
20210.0 4.4866e-06
20230.0 4.364e-06
20250.0 4.2411e-06
20270.0 4.127e-06
20290.0 4.0229e-06
20310.0 3.9239e-06
20330.0 3.8314e-06
20350.0 3.7547e-06
20370.0 3.6865e-06
20390.0 3.6267e-06
20410.0 3.5785e-06
20430.0 3.5413e-06
20450.0 3.5118e-06
20470.0 3.4921e-06
20490.0 3.4815e-06
20510.0 3.4784e-06
20530.0 3.4827e-06
20550.0 3.4934e-06
20570.0 3.5091e-06
20590.0 3.5303e-06
20610.0 3.5559e-06
20630.0 3.5842e-06
20650.0 3.6158e-06
20670.0 3.6519e-06
20690.0 3.6887e-06
20710.0 3.7268e-06
20730.0 3.7679e-06
20750.0 3.8107e-06
20770.0 3.8529e-06
20790.0 3.8972e-06
20810.0 3.944e-06
20830.0 3.9906e-06
20850.0 4.0375e-06
20870.0 4.0876e-06
20890.0 4.1387e-06
20910.0 4.188e-06
20930.0 4.2392e-06
20950.0 4.2922e-06
20970.0 4.3439e-06
20990.0 4.3949e-06
21010.0 4.4485e-06
21030.0 4.5009e-06
21050.0 4.5509e-06
21070.0 4.6009e-06
21090.0 4.651e-06
21110.0 4.6967e-06
21130.0 4.7396e-06
21150.0 4.7812e-06
21170.0 4.8188e-06
21190.0 4.8512e-06
21210.0 4.8804e-06
21230.0 4.9046e-06
21250.0 4.9219e-06
21270.0 4.9328e-06
21290.0 4.9369e-06
21310.0 4.933e-06
21330.0 4.9214e-06
21350.0 4.9009e-06
21370.0 4.8709e-06
21390.0 4.8328e-06
21410.0 4.7861e-06
21430.0 4.7269e-06
21450.0 4.6605e-06
21470.0 4.5882e-06
21490.0 4.5064e-06
21510.0 4.4167e-06
21530.0 4.3256e-06
21550.0 4.2301e-06
21570.0 4.1282e-06
21590.0 4.0281e-06
21610.0 3.9313e-06
21630.0 3.8344e-06
21650.0 3.7398e-06
21670.0 3.6577e-06
21690.0 3.5821e-06
21710.0 3.5139e-06
21730.0 3.4581e-06
21750.0 3.4151e-06
21770.0 3.3823e-06
21790.0 3.3634e-06
21810.0 3.3582e-06
21830.0 3.3656e-06
21850.0 3.3866e-06
21870.0 3.4194e-06
21890.0 3.4618e-06
21910.0 3.5162e-06
21930.0 3.5799e-06
21950.0 3.649e-06
21970.0 3.7255e-06
21990.0 3.8114e-06
22010.0 3.8973e-06
22030.0 3.9844e-06
22050.0 4.076e-06
22070.0 4.168e-06
22090.0 4.2552e-06
22110.0 4.343e-06
22130.0 4.4308e-06
22150.0 4.5127e-06
22170.0 4.59e-06
22190.0 4.6665e-06
22210.0 4.7377e-06
22230.0 4.8004e-06
22250.0 4.8595e-06
22270.0 4.9138e-06
22290.0 4.9603e-06
22310.0 5.0001e-06
22330.0 5.0353e-06
22350.0 5.0624e-06
22370.0 5.0815e-06
22390.0 5.0935e-06
22410.0 5.0973e-06
22430.0 5.0924e-06
22450.0 5.0793e-06
22470.0 5.0566e-06
22490.0 5.0248e-06
22510.0 4.9851e-06
22530.0 4.9343e-06
22550.0 4.8726e-06
22570.0 4.8041e-06
22590.0 4.7268e-06
22610.0 4.6379e-06
22630.0 4.5417e-06
