#lamb flux
1010.0 7.486e-07
1030.0 8.2494e-07
1050.0 9.1274e-07
1070.0 1.0116e-06
1090.0 1.1239e-06
1110.0 1.239e-06
1130.0 1.3549e-06
1150.0 1.4763e-06
1170.0 1.6015e-06
1190.0 1.7203e-06
1210.0 1.8406e-06
1230.0 1.965e-06
1250.0 2.0869e-06
1270.0 2.2052e-06
1290.0 2.3302e-06
1310.0 2.4552e-06
1330.0 2.575e-06
1350.0 2.6962e-06
1370.0 2.8213e-06
1390.0 2.9433e-06
1410.0 3.0616e-06
1430.0 3.1853e-06
1450.0 3.309e-06
1470.0 3.4285e-06
1490.0 3.5493e-06
1510.0 3.6769e-06
1530.0 3.7978e-06
1550.0 3.917e-06
1570.0 4.0404e-06
1590.0 4.1638e-06
1610.0 4.2816e-06
1630.0 4.4031e-06
1650.0 4.5277e-06
1670.0 4.6481e-06
1690.0 4.7669e-06
1710.0 4.8902e-06
1730.0 5.0141e-06
1750.0 5.1304e-06
1770.0 5.25e-06
1790.0 5.3718e-06
1810.0 5.4894e-06
1830.0 5.6046e-06
1850.0 5.7268e-06
1870.0 5.8453e-06
1890.0 5.9592e-06
1910.0 6.075e-06
1930.0 6.1931e-06
1950.0 6.305e-06
1970.0 6.4146e-06
1990.0 6.5278e-06
2010.0 6.638e-06
2030.0 6.7429e-06
2050.0 6.85e-06
2070.0 6.9587e-06
2090.0 7.059e-06
2110.0 7.1573e-06
2130.0 7.2572e-06
2150.0 7.3528e-06
2170.0 7.4413e-06
2190.0 7.5316e-06
2210.0 7.6201e-06
2230.0 7.7013e-06
2250.0 7.7791e-06
2270.0 7.8589e-06
2290.0 7.9318e-06
2310.0 7.9967e-06
2330.0 8.0617e-06
2350.0 8.1243e-06
2370.0 8.1795e-06
2390.0 8.2339e-06
2410.0 8.2939e-06
2430.0 8.3537e-06
2450.0 8.4182e-06
2470.0 8.5009e-06
2490.0 8.6125e-06
2510.0 8.7539e-06
2530.0 8.9678e-06
2550.0 9.317e-06
2570.0 9.8522e-06
2590.0 1.0634e-05
2610.0 1.1843e-05
2630.0 1.3486e-05
2650.0 1.5441e-05
2670.0 1.7702e-05
2690.0 2.0154e-05
2710.0 2.2432e-05
2730.0 2.4385e-05
2750.0 2.6056e-05
2770.0 2.7288e-05
2790.0 2.8101e-05
2810.0 2.8646e-05
2830.0 2.9028e-05
2850.0 2.925e-05
2870.0 2.9412e-05
2890.0 2.9569e-05
2910.0 2.9716e-05
2930.0 2.9835e-05
2950.0 2.9971e-05
2970.0 3.0118e-05
2990.0 3.0244e-05
3010.0 0.00035479
3030.0 0.00035636
3050.0 0.00035781
3070.0 0.00035869
3090.0 0.00035931
3110.0 0.00035919
3130.0 0.00035774
3150.0 0.00035473
3170.0 0.00034979
3190.0 0.00034302
3210.0 0.00033522
3230.0 0.00032724
3250.0 0.00032088
3270.0 0.00031695
3290.0 0.00031715
3310.0 0.00032073
3330.0 0.00032885
3350.0 0.00034024
3370.0 0.0003551
3390.0 0.00037285
3410.0 0.00039148
3430.0 0.00041172
3450.0 0.00043412
3470.0 0.00045752
3490.0 0.00048128
3510.0 0.00050716
3530.0 0.00053409
3550.0 0.00056038
3570.0 0.00058722
3590.0 0.0006167
3610.0 0.00064556
3630.0 0.00067529
3650.0 0.00070478
3670.0 0.00073172
3690.0 0.00075239
3710.0 0.00076627
3730.0 0.00077368
3750.0 0.00077607
3770.0 0.00072302
3790.0 0.00067103
3810.0 0.00058952
3830.0 0.0004407
3850.0 0.00032094
3870.0 0.00031408
3890.0 0.00039439
3910.0 0.00061278
3930.0 0.00081501
3950.0 0.0009193
3970.0 0.00096528
3990.0 0.0010306
4010.0 0.0011413
4030.0 0.0011403
4050.0 0.0010732
4070.0 0.00099591
4090.0 0.00095326
4110.0 0.0010231
4130.0 0.0010516
4150.0 0.0010526
4170.0 0.0010818
4190.0 0.001082
4210.0 0.0011054
4230.0 0.0011955
4250.0 0.0013071
4270.0 0.0013625
4290.0 0.0013496
4310.0 0.0013749
4330.0 0.0014695
4350.0 0.0017024
4370.0 0.0019143
4390.0 0.0017987
4410.0 0.0014809
4430.0 0.0012673
4450.0 0.0010724
4470.0 0.00099273
4490.0 0.0011212
4510.0 0.0013318
4530.0 0.0014735
4550.0 0.0016269
4570.0 0.001902
4590.0 0.0023311
4610.0 0.0030611
4630.0 0.0036931
4650.0 0.0037405
4670.0 0.0037096
4690.0 0.0039374
4710.0 0.0039756
4730.0 0.0033059
4750.0 0.0024939
4770.0 0.0020209
4790.0 0.0019558
4810.0 0.0018587
4830.0 0.0018534
4850.0 0.0021865
4870.0 0.0027196
4890.0 0.0029165
4910.0 0.0025277
4930.0 0.0023815
4950.0 0.0027629
4970.0 0.0036375
4990.0 0.0044534
5010.0 0.0045553
5030.0 0.0036532
5050.0 0.0024965
5070.0 0.0018368
5090.0 0.0015855
5110.0 0.0015643
5130.0 0.0016959
5150.0 0.0017564
5170.0 0.0017332
5190.0 0.0017199
5210.0 0.0016818
5230.0 0.0017686
5250.0 0.0019341
5270.0 0.0022152
5290.0 0.0025645
5310.0 0.0027931
5330.0 0.0028878
5350.0 0.0030653
5370.0 0.00336
5390.0 0.0034814
5410.0 0.0032073
5430.0 0.0028356
5450.0 0.0027934
5470.0 0.0033305
5490.0 0.0042201
5510.0 0.0051314
5530.0 0.0055509
5550.0 0.0053806
5570.0 0.0049863
5590.0 0.0045145
5610.0 0.0043272
5630.0 0.0043453
5650.0 0.0043682
5670.0 0.0042853
5690.0 0.0040506
5710.0 0.0038715
5730.0 0.003438
5750.0 0.0026441
5770.0 0.0023213
5790.0 0.0025146
5810.0 0.0029363
5830.0 0.0033361
5850.0 0.0035729
5870.0 0.0035855
5890.0 0.0033436
5910.0 0.0032415
5930.0 0.0032801
5950.0 0.0034431
5970.0 0.0035588
5990.0 0.0032511
6010.0 0.0026854
6030.0 0.002223
6050.0 0.0020373
6070.0 0.0021195
6090.0 0.0023415
6110.0 0.0023891
6130.0 0.0022259
6150.0 0.0021673
6170.0 0.0023778
6190.0 0.0028452
6210.0 0.0034172
6230.0 0.0038086
6250.0 0.0037769
6270.0 0.0033411
6290.0 0.0027555
6310.0 0.0022083
6330.0 0.0018267
6350.0 0.0017299
6370.0 0.0018984
6390.0 0.0021816
6410.0 0.0025342
6430.0 0.0029286
6450.0 0.0034412
6470.0 0.0042548
6490.0 0.0051885
6510.0 0.0054926
6530.0 0.0051765
6550.0 0.004939
6570.0 0.0048813
6590.0 0.004683
6610.0 0.0043156
6630.0 0.0040169
6650.0 0.0038546
6670.0 0.0038477
6690.0 0.0037379
6710.0 0.0033628
6730.0 0.0029164
6750.0 0.0026749
6770.0 0.0028151
6790.0 0.0030246
6810.0 0.0031176
6830.0 0.0031588
6850.0 0.0030446
6870.0 0.0029034
6890.0 0.0028123
6910.0 0.0026795
6930.0 0.0025894
6950.0 0.0026128
6970.0 0.0027085
6990.0 0.0029764
7010.0 0.0031077
7030.0 0.0029669
7050.0 0.0027185
7070.0 0.0023676
7090.0 0.0020122
7110.0 0.0018854
7130.0 0.0019681
7150.0 0.0020528
7170.0 0.0021074
7190.0 0.0020672
7210.0 0.0020569
7230.0 0.0023032
7250.0 0.0026766
7270.0 0.0030072
7290.0 0.0031766
7310.0 0.0029716
7330.0 0.0026556
7350.0 0.0024215
7370.0 0.0023637
7390.0 0.0024738
7410.0 0.0026591
7430.0 0.0029246
7450.0 0.0032344
7470.0 0.0035163
7490.0 0.0035799
7510.0 0.0031119
7530.0 0.0030838
7550.0 0.0027923
7570.0 0.0023833
7590.0 0.0019169
7610.0 0.0017904
7630.0 0.0019502
7650.0 0.0022713
7670.0 0.0026025
7690.0 0.0028736
7710.0 0.0031539
7730.0 0.0034045
7750.0 0.0035838
7770.0 0.0035288
7790.0 0.0035067
7810.0 0.003569
7830.0 0.0035338
7850.0 0.0033927
7870.0 0.0031861
7890.0 0.0029316
7910.0 0.0025949
7930.0 0.0023018
7950.0 0.0021182
7970.0 0.0020685
7990.0 0.0021398
8010.0 0.0021862
8030.0 0.0022143
8050.0 0.0022361
8070.0 0.0022109
8090.0 0.0022031
8110.0 0.0021232
8130.0 0.001983
8150.0 0.0018719
8170.0 0.001851
8190.0 0.0018821
8210.0 0.0018993
8230.0 0.0018823
8250.0 0.001818
8270.0 0.0016046
8290.0 0.0012682
8310.0 0.00092271
8330.0 0.00062051
8350.0 0.00044317
8370.0 0.0004498
8390.0 0.00054526
8410.0 0.00068855
8430.0 0.00084032
8450.0 0.00092297
8470.0 0.00096864
8490.0 0.001015
8510.0 0.0010683
8530.0 0.0011854
8550.0 0.0013799
8570.0 0.0016219
8590.0 0.001873
8610.0 0.0021848
8630.0 0.0025372
8650.0 0.0027513
8670.0 0.0027506
8690.0 0.0026537
8710.0 0.0025185
8730.0 0.002413
8750.0 0.0023148
8770.0 0.0022521
8790.0 0.0021624
8810.0 0.0020071
8830.0 0.0018349
8850.0 0.0015745
8870.0 0.0013931
8890.0 0.0012922
8910.0 0.0013567
8930.0 0.001331
8950.0 0.0013675
8970.0 0.0013833
8990.0 0.0014025
9010.0 0.0014263
9030.0 0.0014071
9050.0 0.0014058
9070.0 0.0014068
9090.0 0.0014079
9110.0 0.0014086
9130.0 0.0014099
9150.0 0.0014119
9170.0 0.0014131
9190.0 0.0014134
9210.0 0.0014211
9230.0 0.0014223
9250.0 0.0014244
9270.0 0.0014268
9290.0 0.0014295
9310.0 0.0014326
9330.0 0.0014358
9350.0 0.0014392
9370.0 0.0014429
9390.0 0.0014467
9410.0 0.0014507
9430.0 0.0014548
9450.0 0.0014591
9470.0 0.0014636
9490.0 0.0014682
9510.0 0.0014729
9530.0 0.0014779
9550.0 0.0014829
9570.0 0.0014881
9590.0 0.0014935
9610.0 0.001499
9630.0 0.0015045
9650.0 0.0015103
9670.0 0.0015162
9690.0 0.0015221
9710.0 0.0015282
9730.0 0.0015344
9750.0 0.0015407
9770.0 0.0015471
9790.0 0.0015536
9810.0 0.0015602
9830.0 0.0015668
9850.0 0.0015735
9870.0 0.0015804
9890.0 0.0015872
9910.0 0.0015941
9930.0 0.0016011
9950.0 0.0016078
9970.0 0.0016149
9990.0 0.0016221
10010.0 0.0016274
10030.0 0.0016346
10050.0 0.0016413
10070.0 0.0016463
10090.0 0.0016542
10110.0 0.0016619
10130.0 0.0016694
10150.0 0.0016768
10170.0 0.001684
10190.0 0.0016909
10210.0 0.0016979
10230.0 0.0017049
10250.0 0.0017116
10270.0 0.0017182
10290.0 0.001725
10310.0 0.0017315
10330.0 0.0017377
10350.0 0.0017441
10370.0 0.0017503
10390.0 0.0017563
10410.0 0.0017621
10430.0 0.0017681
10450.0 0.0017737
10470.0 0.0017791
10490.0 0.0017844
10510.0 0.0017897
10530.0 0.0017945
10550.0 0.0017992
10570.0 0.0018039
10590.0 0.0018083
10610.0 0.0018124
10630.0 0.0018165
10650.0 0.0018204
10670.0 0.0018238
10690.0 0.0018271
10710.0 0.0018304
10730.0 0.0018332
10750.0 0.0018357
10770.0 0.0018382
10790.0 0.0018405
10810.0 0.0018423
10830.0 0.0018439
10850.0 0.0018452
10870.0 0.0018456
10890.0 0.001845
10910.0 0.0018429
10930.0 0.0018383
10950.0 0.0018293
10970.0 0.0018155
10990.0 0.0017963
11010.0 0.0017365
11030.0 0.001701
11050.0 0.0016602
11070.0 0.0016134
11090.0 0.0015589
11110.0 0.0015043
11130.0 0.0014492
11150.0 0.0013921
11170.0 0.0013359
11190.0 0.0012843
11210.0 0.0012341
11230.0 0.0011863
11250.0 0.001144
11270.0 0.0011066
11290.0 0.0010722
11310.0 0.0010424
11330.0 0.0010182
11350.0 0.00099659
11370.0 0.00097744
11390.0 0.00096089
11410.0 0.00094573
11430.0 0.00093014
11450.0 0.00091447
11470.0 0.00089832
11490.0 0.00088042
11510.0 0.00086015
11530.0 0.0008389
11550.0 0.00081618
11570.0 0.00079106
11590.0 0.00076501
11610.0 0.0007391
11630.0 0.00071204
11650.0 0.00068462
11670.0 0.00065919
11690.0 0.00063492
11710.0 0.0006114
11730.0 0.00058995
11750.0 0.00057109
11770.0 0.00055343
11790.0 0.00053744
11810.0 0.0005236
11830.0 0.00051116
11850.0 0.00049936
11870.0 0.00048875
11890.0 0.00047896
11910.0 0.00046914
11930.0 0.00045919
11950.0 0.00044935
11970.0 0.00043908
11990.0 0.00042794
12010.0 0.00041659
12030.0 0.00040508
12050.0 0.00039301
12070.0 0.00038065
12090.0 0.00036917
12110.0 0.00035801
12130.0 0.00034738
12150.0 0.00033805
12170.0 0.00033025
12190.0 0.00032371
12210.0 0.00031914
12230.0 0.00031665
12250.0 0.00031616
12270.0 0.00031787
12290.0 0.00032157
12310.0 0.00032693
12330.0 0.00033432
12350.0 0.00034325
12370.0 0.00035299
12390.0 0.00036373
12410.0 0.00037571
12430.0 0.00038713
12450.0 0.00039821
12470.0 0.0004092
12490.0 0.00041932
12510.0 0.00042788
12530.0 0.00043548
12550.0 0.0004418
12570.0 0.00044626
12590.0 0.00044907
12610.0 0.00045037
12630.0 0.00044995
12650.0 0.00044795
12670.0 0.00044455
12690.0 0.00043977
12710.0 0.00043395
12730.0 0.00042725
12750.0 0.00041943
12770.0 0.00041107
12790.0 0.00040242
12810.0 0.00039324
12830.0 0.00038358
12850.0 0.0003741
12870.0 0.00036452
12890.0 0.00035451
12910.0 0.0003445
12930.0 0.00033467
12950.0 0.00032438
12970.0 0.00031378
12990.0 0.00030353
13010.0 0.00029319
13030.0 0.00028255
13050.0 0.00027214
13070.0 0.00026225
13090.0 0.0002523
13110.0 0.00024272
13130.0 0.00023401
13150.0 0.00022597
13170.0 0.00021845
13190.0 0.00021213
13210.0 0.00020699
13230.0 0.00020278
13250.0 0.00019972
13270.0 0.00019785
13290.0 0.00019702
13310.0 0.00019729
13330.0 0.00019851
13350.0 0.00020052
13370.0 0.00020335
13390.0 0.00020689
13410.0 0.0002106
13430.0 0.00021467
13450.0 0.00021904
13470.0 0.00022331
13490.0 0.00022734
13510.0 0.00023147
13530.0 0.00023524
13550.0 0.0002385
13570.0 0.00024144
13590.0 0.00024407
13610.0 0.00024618
13630.0 0.00024783
13650.0 0.0002492
13670.0 0.00025017
13690.0 0.00025075
13710.0 0.00025104
13730.0 0.00025105
13750.0 0.00025074
13770.0 0.00025016
13790.0 0.00024932
13810.0 0.00024821
13830.0 0.00024688
13850.0 0.00024526
13870.0 0.00024336
13890.0 0.00024124
13910.0 0.00023891
13930.0 0.00023626
13950.0 0.00023342
13970.0 0.00023054
13990.0 0.00022748
14010.0 0.00022431
14030.0 0.00022123
14050.0 0.00021822
14070.0 0.00021518
14090.0 0.00021238
14110.0 0.00020985
14130.0 0.00020754
14150.0 0.00020549
14170.0 0.00020384
14190.0 0.00020252
14210.0 0.00020154
14230.0 0.00020094
14250.0 0.00020071
14270.0 0.00020087
14290.0 0.00020143
14310.0 0.0002023
14330.0 0.00020349
14350.0 0.00020503
14370.0 0.0002068
14390.0 0.00020869
14410.0 0.00021084
14430.0 0.00021312
14450.0 0.0002154
14470.0 0.00021774
14490.0 0.00022026
14510.0 0.00022274
14530.0 0.00022522
14550.0 0.00022792
14570.0 0.00023085
14590.0 0.00023391
14610.0 0.00023738
14630.0 0.00024143
14650.0 0.00024587
14670.0 0.00025076
14690.0 0.00025642
14710.0 0.0002628
14730.0 0.00026933
14750.0 0.00027648
14770.0 0.00028424
14790.0 0.00029206
14810.0 0.00029981
14830.0 0.00030803
14850.0 0.00031589
14870.0 0.00032306
14890.0 0.00032982
14910.0 0.00033601
14930.0 0.00034114
14950.0 0.00034528
14970.0 0.00034863
14990.0 0.00035095
15010.0 0.00035234
15030.0 0.00035301
15050.0 0.00035305
15070.0 0.00035263
15090.0 0.00035193
15110.0 0.00035101
15130.0 0.00035
15150.0 0.00034897
15170.0 0.00034789
15190.0 0.00034678
15210.0 0.00034571
15230.0 0.00034465
15250.0 0.00034356
15270.0 0.00034248
15290.0 0.00034146
15310.0 0.00034041
15330.0 0.00033936
15350.0 0.00033834
15370.0 0.00033734
15390.0 0.00033628
15410.0 0.00033526
15430.0 0.00033427
15450.0 0.00033326
15470.0 0.00033223
15490.0 0.00033126
15510.0 0.00033028
15530.0 0.00032928
15550.0 0.00032829
15570.0 0.00032734
15590.0 0.00032635
15610.0 0.00032535
15630.0 0.0003244
15650.0 0.00032344
15670.0 0.00032246
15690.0 0.0003215
15710.0 0.00032057
15730.0 0.0003196
15750.0 0.00031863
15770.0 0.0003177
15790.0 0.00031676
15810.0 0.00031577
15830.0 0.00031482
15850.0 0.0003139
15870.0 0.00031294
15890.0 0.00031198
15910.0 0.00031107
15930.0 0.00031013
15950.0 0.00030915
15970.0 0.00030821
15990.0 0.00030729
16010.0 0.00030633
16030.0 0.00030535
16050.0 0.00030444
16070.0 0.0003035
16090.0 0.00030254
16110.0 0.0003016
16130.0 0.00030068
16150.0 0.0002997
16170.0 0.00029873
16190.0 0.0002978
16210.0 0.00029685
16230.0 0.00029587
16250.0 0.00029493
16270.0 0.000294
16290.0 0.00029302
16310.0 0.00029205
16330.0 0.00029111
16350.0 0.00029014
16370.0 0.00028913
16390.0 0.00028818
16410.0 0.00028723
16430.0 0.00028623
16450.0 0.00028525
16470.0 0.00028431
16490.0 0.00028332
16510.0 0.00028231
16530.0 0.00028133
16550.0 0.00028036
16570.0 0.00027934
16590.0 0.00027833
16610.0 0.00027737
16630.0 0.00027636
16650.0 0.00027534
16670.0 0.00027436
16690.0 0.00027337
16710.0 0.00027231
16730.0 0.0002713
16750.0 0.0002703
16770.0 0.00026927
16790.0 0.00026822
16810.0 0.00026722
16830.0 0.0002662
16850.0 0.00026515
16870.0 0.00026411
16890.0 0.0002631
16910.0 0.00026204
16930.0 0.00026096
16950.0 0.00025993
16970.0 0.00025889
16990.0 0.00025781
17010.0 0.00025676
17030.0 0.00025573
17050.0 0.00025465
17070.0 0.00025356
17090.0 0.00025251
17110.0 0.00025145
17130.0 0.00025033
17150.0 0.00024926
17170.0 0.0002482
17190.0 0.0002471
17210.0 0.000246
17230.0 0.00024494
17250.0 0.00024385
17270.0 0.00024272
17290.0 0.00024163
17310.0 0.00024054
17330.0 0.00023942
17350.0 0.00023829
17370.0 0.00023721
17390.0 0.0002361
17410.0 0.00023497
17430.0 0.00023386
17450.0 0.00023277
17470.0 0.0002316
17490.0 0.00023047
17510.0 0.00022936
17530.0 0.00022823
17550.0 0.00022707
17570.0 0.00022595
17590.0 0.00022484
17610.0 0.00022368
17630.0 0.00022253
17650.0 0.00022142
17670.0 0.00022027
17690.0 0.00021907
17710.0 0.00021795
17730.0 0.00021682
17750.0 0.00021565
17770.0 0.00021449
17790.0 0.00021337
17810.0 0.0002122
17830.0 0.00021102
17850.0 0.00020987
17870.0 0.00020872
17890.0 0.00020753
17910.0 0.00020636
17930.0 0.00020522
17950.0 0.00020405
17970.0 0.00020287
17990.0 0.00020172
18010.0 0.00020057
18030.0 0.00019936
18050.0 0.00019819
18070.0 0.00019704
18090.0 0.00019586
18110.0 0.00019466
18130.0 0.00019351
18150.0 0.00019235
18170.0 0.00019115
18190.0 0.00018998
18210.0 0.00018883
18230.0 0.00018763
18250.0 0.00018643
18270.0 0.00018528
18290.0 0.00018411
18310.0 0.00018291
18330.0 0.00018174
18350.0 0.00018059
18370.0 0.00017939
18390.0 0.0001782
18410.0 0.00017705
18430.0 0.00017588
18450.0 0.00017466
18470.0 0.00017349
18490.0 0.00017234
18510.0 0.00017115
18530.0 0.00016997
18550.0 0.00016883
18570.0 0.00016765
18590.0 0.00016645
18610.0 0.00016528
18630.0 0.00016413
18650.0 0.00016294
18670.0 0.00016175
18690.0 0.00016061
18710.0 0.00015945
18730.0 0.00015826
18750.0 0.0001571
18770.0 0.00015596
18790.0 0.00015476
18810.0 0.00015359
18830.0 0.00015245
18850.0 0.00015129
18870.0 0.0001501
18890.0 0.00014896
18910.0 0.00014783
18930.0 0.00014665
18950.0 0.00014549
18970.0 0.00014436
18990.0 0.0001432
19010.0 0.00014201
19030.0 0.00014088
19050.0 0.00013975
19070.0 0.00013859
19090.0 0.00013744
19110.0 0.00013633
19130.0 0.00013517
19150.0 0.00013401
19170.0 0.00013289
19190.0 0.00013177
19210.0 0.0001306
19230.0 0.00012946
19250.0 0.00012836
19270.0 0.00012723
19290.0 0.00012609
19310.0 0.00012498
19330.0 0.00012387
19350.0 0.00012271
19370.0 0.00012159
19390.0 0.0001205
19410.0 0.00011937
19430.0 0.00011823
19450.0 0.00011715
19470.0 0.00011605
19490.0 0.00011492
19510.0 0.00011382
19530.0 0.00011274
19550.0 0.00011161
19570.0 0.00011049
19590.0 0.00010941
19610.0 0.00010832
19630.0 0.00010721
19650.0 0.00010613
19670.0 0.00010506
19690.0 0.00010396
19710.0 0.00010286
19730.0 0.00010179
19750.0 0.00010072
19770.0 9.96e-05
19790.0 9.8533e-05
19810.0 9.748e-05
19830.0 9.639e-05
19850.0 9.5305e-05
19870.0 9.425e-05
19890.0 9.3144e-05
19910.0 9.1978e-05
19930.0 9.0801e-05
19950.0 8.9551e-05
19970.0 8.8146e-05
19990.0 8.6605e-05
20010.0 8.4995e-05
20030.0 8.3196e-05
20050.0 8.1247e-05
20070.0 7.9283e-05
20090.0 7.7309e-05
20110.0 7.5235e-05
20130.0 7.3287e-05
20150.0 7.1491e-05
20170.0 6.9762e-05
20190.0 6.8143e-05
20210.0 6.6727e-05
20230.0 6.545e-05
20250.0 6.4275e-05
20270.0 6.3279e-05
20290.0 6.2451e-05
20310.0 6.1747e-05
20330.0 6.1178e-05
20350.0 6.0783e-05
20370.0 6.0514e-05
20390.0 6.0375e-05
20410.0 6.0369e-05
20430.0 6.0479e-05
20450.0 6.072e-05
20470.0 6.1085e-05
20490.0 6.1544e-05
20510.0 6.2109e-05
20530.0 6.28e-05
20550.0 6.3566e-05
20570.0 6.438e-05
20590.0 6.5298e-05
20610.0 6.6278e-05
20630.0 6.7266e-05
20650.0 6.8295e-05
20670.0 6.9399e-05
20690.0 7.0457e-05
20710.0 7.1491e-05
20730.0 7.2545e-05
20750.0 7.3583e-05
20770.0 7.4547e-05
20790.0 7.5509e-05
20810.0 7.648e-05
20830.0 7.7406e-05
20850.0 7.831e-05
20870.0 7.9263e-05
20890.0 8.0228e-05
20910.0 8.1163e-05
20930.0 8.2146e-05
20950.0 8.3184e-05
20970.0 8.4214e-05
20990.0 8.5247e-05
21010.0 8.6348e-05
21030.0 8.7429e-05
21050.0 8.8456e-05
21070.0 8.9468e-05
21090.0 9.0457e-05
21110.0 9.132e-05
21130.0 9.2087e-05
21150.0 9.2776e-05
21170.0 9.3336e-05
21190.0 9.3751e-05
21210.0 9.4049e-05
21230.0 9.4203e-05
21250.0 9.4204e-05
21270.0 9.4065e-05
21290.0 9.3777e-05
21310.0 9.3347e-05
21330.0 9.2807e-05
21350.0 9.2125e-05
21370.0 9.131e-05
21390.0 9.0413e-05
21410.0 8.9428e-05
21430.0 8.8294e-05
21450.0 8.7124e-05
21470.0 8.5935e-05
21490.0 8.4675e-05
21510.0 8.3375e-05
21530.0 8.2127e-05
21550.0 8.0886e-05
21570.0 7.9632e-05
21590.0 7.8463e-05
21610.0 7.7391e-05
21630.0 7.6376e-05
21650.0 7.5445e-05
21670.0 7.4692e-05
21690.0 7.4052e-05
21710.0 7.3538e-05
21730.0 7.3184e-05
21750.0 7.2984e-05
21770.0 7.2932e-05
21790.0 7.3044e-05
21810.0 7.3302e-05
21830.0 7.3709e-05
21850.0 7.4281e-05
21870.0 7.4976e-05
21890.0 7.5769e-05
21910.0 7.6714e-05
21930.0 7.7768e-05
21950.0 7.8878e-05
21970.0 8.0086e-05
21990.0 8.1429e-05
22010.0 8.2768e-05
22030.0 8.4131e-05
22050.0 8.557e-05
22070.0 8.7027e-05
22090.0 8.8418e-05
22110.0 8.9831e-05
22130.0 9.1249e-05
22150.0 9.2577e-05
22170.0 9.3826e-05
22190.0 9.5053e-05
22210.0 9.6172e-05
22230.0 9.7126e-05
22250.0 9.7981e-05
22270.0 9.8707e-05
22290.0 9.9255e-05
22310.0 9.9639e-05
22330.0 9.9859e-05
22350.0 9.9882e-05
22370.0 9.9718e-05
22390.0 9.9356e-05
22410.0 9.8772e-05
22430.0 9.802e-05
22450.0 9.7089e-05
22470.0 9.5936e-05
22490.0 9.4616e-05
22510.0 9.3184e-05
22530.0 9.1537e-05
22550.0 8.9713e-05
22570.0 8.7844e-05
22590.0 8.5874e-05
22610.0 8.3745e-05
22630.0 8.1573e-05
22650.0 7.9445e-05
22670.0 7.7203e-05
22690.0 7.4924e-05
22710.0 7.2728e-05
22730.0 7.0559e-05
22750.0 6.8308e-05
22770.0 6.6202e-05
22790.0 6.423e-05
22810.0 6.2288e-05
22830.0 6.0437e-05
22850.0 5.8783e-05
22870.0 5.7241e-05
22890.0 5.5793e-05
22910.0 5.4549e-05
22930.0 5.35e-05
22950.0 5.2599e-05
22970.0 5.1883e-05
22990.0 5.141e-05
