#lamb flux
1010.0 8.6675e-07
1030.0 9.7248e-07
1050.0 1.0941e-06
1070.0 1.231e-06
1090.0 1.3865e-06
1110.0 1.546e-06
1130.0 1.7065e-06
1150.0 1.8746e-06
1170.0 2.0481e-06
1190.0 2.2126e-06
1210.0 2.3792e-06
1230.0 2.5515e-06
1250.0 2.7202e-06
1270.0 2.8841e-06
1290.0 3.0573e-06
1310.0 3.2304e-06
1330.0 3.3963e-06
1350.0 3.5641e-06
1370.0 3.7373e-06
1390.0 3.9062e-06
1410.0 4.0701e-06
1430.0 4.2414e-06
1450.0 4.4127e-06
1470.0 4.5782e-06
1490.0 4.7454e-06
1510.0 4.922e-06
1530.0 5.0893e-06
1550.0 5.2543e-06
1570.0 5.4249e-06
1590.0 5.5956e-06
1610.0 5.7586e-06
1630.0 5.9266e-06
1650.0 6.0988e-06
1670.0 6.2652e-06
1690.0 6.4292e-06
1710.0 6.5994e-06
1730.0 6.7702e-06
1750.0 6.9305e-06
1770.0 7.0951e-06
1790.0 7.2626e-06
1810.0 7.4241e-06
1830.0 7.5821e-06
1850.0 7.7494e-06
1870.0 7.9114e-06
1890.0 8.0667e-06
1910.0 8.2242e-06
1930.0 8.3845e-06
1950.0 8.5357e-06
1970.0 8.6833e-06
1990.0 8.8353e-06
2010.0 8.9825e-06
2030.0 9.1216e-06
2050.0 9.2631e-06
2070.0 9.406e-06
2090.0 9.5363e-06
2110.0 9.6631e-06
2130.0 9.7909e-06
2150.0 9.9119e-06
2170.0 1.0022e-05
2190.0 1.0133e-05
2210.0 1.0241e-05
2230.0 1.0337e-05
2250.0 1.0427e-05
2270.0 1.0519e-05
2290.0 1.06e-05
2310.0 1.0668e-05
2330.0 1.0735e-05
2350.0 1.0798e-05
2370.0 1.0849e-05
2390.0 1.0899e-05
2410.0 1.0958e-05
2430.0 1.1017e-05
2450.0 1.1083e-05
2470.0 1.1174e-05
2490.0 1.1295e-05
2510.0 1.1435e-05
2530.0 1.1629e-05
2550.0 1.1928e-05
2570.0 1.2374e-05
2590.0 1.3038e-05
2610.0 1.413e-05
2630.0 1.5716e-05
2650.0 1.7733e-05
2670.0 2.0231e-05
2690.0 2.3129e-05
2710.0 2.5998e-05
2730.0 2.8604e-05
2750.0 3.0959e-05
2770.0 3.2775e-05
2790.0 3.3994e-05
2810.0 3.4773e-05
2830.0 3.5219e-05
2850.0 3.5328e-05
2870.0 3.526e-05
2890.0 3.5104e-05
2910.0 3.4883e-05
2930.0 3.4615e-05
2950.0 3.4349e-05
2970.0 3.409e-05
2990.0 3.3823e-05
3010.0 0.00087642
3030.0 0.00086979
3050.0 0.00086328
3070.0 0.00085624
3090.0 0.00084892
3110.0 0.00084045
3130.0 0.00082984
3150.0 0.00081652
3170.0 0.0007993
3190.0 0.00077857
3210.0 0.00075581
3230.0 0.00073228
3250.0 0.00071052
3270.0 0.00069494
3290.0 0.0006861
3310.0 0.00068686
3330.0 0.00069632
3350.0 0.00071314
3370.0 0.00073759
3390.0 0.00076874
3410.0 0.00080296
3430.0 0.00084177
3450.0 0.00088672
3470.0 0.00093596
3490.0 0.00098832
3510.0 0.0010475
3530.0 0.0011112
3550.0 0.0011773
3570.0 0.0012485
3590.0 0.0013285
3610.0 0.001415
3630.0 0.0015046
3650.0 0.0015992
3670.0 0.0016872
3690.0 0.0017548
3710.0 0.0017932
3730.0 0.0017877
3750.0 0.0017369
3770.0 0.0016642
3790.0 0.0015436
3810.0 0.0013252
3830.0 0.0011888
3850.0 0.0011708
3870.0 0.00088898
3890.0 0.0010371
3910.0 0.0015344
3930.0 0.0019183
3950.0 0.001969
3970.0 0.002165
3990.0 0.0022059
4010.0 0.0030555
4030.0 0.002941
4050.0 0.0026044
4070.0 0.0025752
4090.0 0.0024616
4110.0 0.0027959
4130.0 0.0031393
4150.0 0.0034678
4170.0 0.0031826
4190.0 0.0030657
4210.0 0.0031655
4230.0 0.0037045
4250.0 0.0041528
4270.0 0.004338
4290.0 0.0042122
4310.0 0.0041166
4330.0 0.0043934
4350.0 0.005305
4370.0 0.0061704
4390.0 0.0054649
4410.0 0.0039821
4430.0 0.0032048
4450.0 0.0027972
4470.0 0.0025336
4490.0 0.0030744
4510.0 0.0041397
4530.0 0.0047594
4550.0 0.0051658
4570.0 0.0055749
4590.0 0.0065152
4610.0 0.0096191
4630.0 0.012368
4650.0 0.012229
4670.0 0.011322
4690.0 0.012038
4710.0 0.012802
4730.0 0.010618
4750.0 0.007205
4770.0 0.0056163
4790.0 0.0057254
4810.0 0.0055119
4830.0 0.0052752
4850.0 0.0059308
4870.0 0.0077797
4890.0 0.0090607
4910.0 0.0073679
4930.0 0.0066496
4950.0 0.0074959
4970.0 0.01012
4990.0 0.01341
5010.0 0.014767
5030.0 0.011988
5050.0 0.0074257
5070.0 0.0051517
5090.0 0.0043854
5110.0 0.0044416
5130.0 0.0049206
5150.0 0.0050137
5170.0 0.0049238
5190.0 0.0047043
5210.0 0.0046933
5230.0 0.0051365
5250.0 0.0056682
5270.0 0.0060234
5290.0 0.0068431
5310.0 0.0080821
5330.0 0.0083467
5350.0 0.0082985
5370.0 0.0091586
5390.0 0.010507
5410.0 0.0097383
5430.0 0.0079683
5450.0 0.0075089
5470.0 0.0085321
5490.0 0.010935
5510.0 0.013885
5530.0 0.015728
5550.0 0.014795
5570.0 0.013274
5590.0 0.011463
5610.0 0.010946
5630.0 0.011021
5650.0 0.010907
5670.0 0.010438
5690.0 0.0091941
5710.0 0.0089624
5730.0 0.0084071
5750.0 0.005336
5770.0 0.0044033
5790.0 0.0051204
5810.0 0.0060354
5830.0 0.0075567
5850.0 0.008836
5870.0 0.0092072
5890.0 0.0088279
5910.0 0.0084685
5930.0 0.0083934
5950.0 0.0087556
5970.0 0.0099351
5990.0 0.0089459
6010.0 0.0072702
6030.0 0.0059871
6050.0 0.0052157
6070.0 0.0055258
6090.0 0.0062837
6110.0 0.0067632
6130.0 0.0063822
6150.0 0.0055473
6170.0 0.005549
6190.0 0.0067772
6210.0 0.0089289
6230.0 0.011184
6250.0 0.011453
6270.0 0.009696
6290.0 0.0081014
6310.0 0.0063428
6330.0 0.0048903
6350.0 0.00449
6370.0 0.0047845
6390.0 0.0057363
6410.0 0.0068803
6430.0 0.0080963
6450.0 0.0096319
6470.0 0.011172
6490.0 0.013722
6510.0 0.015338
6530.0 0.01461
6550.0 0.013385
6570.0 0.012262
6590.0 0.011841
6610.0 0.010247
6630.0 0.0096577
6650.0 0.0089734
6670.0 0.0088606
6690.0 0.0082116
6710.0 0.0074803
6730.0 0.0058416
6750.0 0.0056235
6770.0 0.0061587
6790.0 0.0073287
6810.0 0.0066738
6830.0 0.0068585
6850.0 0.0064546
6870.0 0.0061584
6890.0 0.0058133
6910.0 0.0059254
6930.0 0.005534
6950.0 0.0059392
6970.0 0.0059983
6990.0 0.006695
7010.0 0.0070082
7030.0 0.0068153
7050.0 0.0062435
7070.0 0.0058848
7090.0 0.0056615
7110.0 0.0054694
7130.0 0.0057906
7150.0 0.0063023
7170.0 0.0068264
7190.0 0.0069764
7210.0 0.00658
7230.0 0.0067319
7250.0 0.0075684
7270.0 0.0086941
7290.0 0.0098231
7310.0 0.0097976
7330.0 0.0087794
7350.0 0.0078319
7370.0 0.0068638
7390.0 0.0070108
7410.0 0.0077828
7430.0 0.0085978
7450.0 0.0092852
7470.0 0.0096422
7490.0 0.01002
7510.0 0.011754
7530.0 0.010802
7550.0 0.00928
7570.0 0.0069627
7590.0 0.0045878
7610.0 0.0039311
7630.0 0.0044766
7650.0 0.0053185
7670.0 0.0066383
7690.0 0.0075273
7710.0 0.0077009
7730.0 0.0078113
7750.0 0.0085962
7770.0 0.0086106
7790.0 0.0081782
7810.0 0.0077842
7830.0 0.0077861
7850.0 0.0074107
7870.0 0.0068625
7890.0 0.005939
7910.0 0.0047715
7930.0 0.0043062
7950.0 0.003885
7970.0 0.0036635
7990.0 0.0036631
8010.0 0.0037969
8030.0 0.0037596
8050.0 0.0038308
8070.0 0.0038319
8090.0 0.0040324
8110.0 0.003792
8130.0 0.0031332
8150.0 0.0029624
8170.0 0.0025822
8190.0 0.002463
8210.0 0.0028499
8230.0 0.0031035
8250.0 0.0026476
8270.0 0.0023426
8290.0 0.0020781
8310.0 0.0014727
8330.0 0.0009453
8350.0 0.00070328
8370.0 0.00064628
8390.0 0.00085255
8410.0 0.0010712
8430.0 0.0013172
8450.0 0.0014615
8470.0 0.0017309
8490.0 0.0016419
8510.0 0.0015884
8530.0 0.0015389
8550.0 0.0020918
8570.0 0.0026969
8590.0 0.0028383
8610.0 0.003542
8630.0 0.0040627
8650.0 0.0039439
8670.0 0.0041656
8690.0 0.0044268
8710.0 0.0040902
8730.0 0.0040033
8750.0 0.0035985
8770.0 0.0034177
8790.0 0.0034598
8810.0 0.0033715
8830.0 0.002656
8850.0 0.002062
8870.0 0.0016929
8890.0 0.0018202
8910.0 0.0021041
8930.0 0.0023428
8950.0 0.0026531
8970.0 0.0026683
8990.0 0.0024955
9010.0 0.0022275
9030.0 0.0021442
9050.0 0.0021758
9070.0 0.0022025
9090.0 0.0022228
9110.0 0.0022434
9130.0 0.0022599
9150.0 0.0022738
9170.0 0.0022885
9190.0 0.0023043
9210.0 0.0023208
9230.0 0.0023383
9250.0 0.0023565
9270.0 0.0023754
9290.0 0.002395
9310.0 0.0024153
9330.0 0.0024361
9350.0 0.0024576
9370.0 0.0024798
9390.0 0.0025025
9410.0 0.0025259
9430.0 0.0025498
9450.0 0.0025744
9470.0 0.0025996
9490.0 0.0026254
9510.0 0.0026517
9530.0 0.0026786
9550.0 0.0027061
9570.0 0.0027342
9590.0 0.0027628
9610.0 0.0027919
9630.0 0.0028216
9650.0 0.0028518
9670.0 0.0028825
9690.0 0.0029137
9710.0 0.0029454
9730.0 0.0029776
9750.0 0.0030102
9770.0 0.0030432
9790.0 0.0030767
9810.0 0.0031106
9830.0 0.0031448
9850.0 0.0031795
9870.0 0.0032145
9890.0 0.0032498
9910.0 0.0032854
9930.0 0.0033214
9950.0 0.0033576
9970.0 0.003394
9990.0 0.0034306
10010.0 0.0032614
10030.0 0.0032955
10050.0 0.0033295
10070.0 0.0033635
10090.0 0.0033979
10110.0 0.0034324
10130.0 0.0034668
10150.0 0.0035013
10170.0 0.0035358
10190.0 0.0035701
10210.0 0.0036044
10230.0 0.0036387
10250.0 0.0036727
10270.0 0.0037066
10290.0 0.0037404
10310.0 0.0037739
10330.0 0.0038071
10350.0 0.0038401
10370.0 0.0038729
10390.0 0.0039052
10410.0 0.0039372
10430.0 0.003969
10450.0 0.0040002
10470.0 0.0040309
10490.0 0.0040613
10510.0 0.0040912
10530.0 0.0041204
10550.0 0.0041492
10570.0 0.0041775
10590.0 0.004205
10610.0 0.0042319
10630.0 0.0042584
10650.0 0.0042841
10670.0 0.0043089
10690.0 0.0043332
10710.0 0.0043568
10730.0 0.0043795
10750.0 0.0044013
10770.0 0.0044226
10790.0 0.004443
10810.0 0.0044624
10830.0 0.0044808
10850.0 0.0044982
10870.0 0.0045135
10890.0 0.0045261
10910.0 0.0045349
10930.0 0.0045374
10950.0 0.0045299
10970.0 0.0045105
10990.0 0.0044779
11010.0 0.0044077
11030.0 0.0043391
11050.0 0.0042566
11070.0 0.004158
11090.0 0.004039
11110.0 0.0039159
11130.0 0.0037872
11150.0 0.0036484
11170.0 0.0035056
11190.0 0.0033681
11210.0 0.0032272
11230.0 0.0030845
11250.0 0.0029501
11270.0 0.0028231
11290.0 0.0026979
11310.0 0.0025813
11330.0 0.0024804
11350.0 0.0023861
11370.0 0.0022999
11390.0 0.0022256
11410.0 0.0021604
11430.0 0.0020989
11450.0 0.0020445
11470.0 0.0019955
11490.0 0.0019477
11510.0 0.0018992
11530.0 0.001852
11550.0 0.0018034
11570.0 0.0017505
11590.0 0.0016952
11610.0 0.0016388
11630.0 0.0015779
11650.0 0.0015136
11670.0 0.001451
11690.0 0.0013884
11710.0 0.0013249
11730.0 0.0012642
11750.0 0.0012086
11770.0 0.0011547
11790.0 0.0011047
11810.0 0.0010608
11830.0 0.0010216
11850.0 0.00098534
11870.0 0.00095454
11890.0 0.00092826
11910.0 0.00090438
11930.0 0.00088279
11950.0 0.0008636
11970.0 0.00084528
11990.0 0.00082681
12010.0 0.00080865
12030.0 0.0007904
12050.0 0.00077108
12070.0 0.00075069
12090.0 0.00073082
12110.0 0.00071051
12130.0 0.00068991
12150.0 0.00067041
12170.0 0.00065257
12190.0 0.00063575
12210.0 0.0006216
12230.0 0.00061075
12250.0 0.0006031
12270.0 0.00059918
12290.0 0.00059923
12310.0 0.0006029
12330.0 0.00061073
12350.0 0.00062232
12370.0 0.0006366
12390.0 0.00065389
12410.0 0.00067486
12430.0 0.00069626
12450.0 0.00071839
12470.0 0.00074186
12490.0 0.00076509
12510.0 0.0007863
12530.0 0.00080692
12550.0 0.00082618
12570.0 0.00084229
12590.0 0.00085553
12610.0 0.00086647
12630.0 0.00087402
12650.0 0.00087771
12670.0 0.00087851
12690.0 0.00087615
12710.0 0.00087069
12730.0 0.00086257
12750.0 0.00085161
12770.0 0.00083838
12790.0 0.00082346
12810.0 0.00080663
12830.0 0.00078796
12850.0 0.00076877
12870.0 0.00074878
12890.0 0.00072743
12910.0 0.00070572
12930.0 0.00068417
12950.0 0.00066159
12970.0 0.00063837
12990.0 0.00061595
13010.0 0.00059346
13030.0 0.00057037
13050.0 0.00054776
13070.0 0.00052617
13090.0 0.00050423
13110.0 0.00048273
13130.0 0.00046263
13150.0 0.00044344
13170.0 0.00042461
13190.0 0.00040775
13210.0 0.00039286
13230.0 0.0003793
13250.0 0.00036764
13270.0 0.00035839
13290.0 0.00035115
13310.0 0.00034604
13330.0 0.00034337
13350.0 0.00034289
13370.0 0.00034464
13390.0 0.00034863
13410.0 0.00035409
13430.0 0.00036124
13450.0 0.00037003
13470.0 0.00037963
13490.0 0.00038963
13510.0 0.0004008
13530.0 0.00041194
13550.0 0.00042239
13570.0 0.00043255
13590.0 0.00044232
13610.0 0.00045081
13630.0 0.00045803
13650.0 0.00046447
13670.0 0.00046957
13690.0 0.0004732
13710.0 0.00047569
13730.0 0.00047704
13750.0 0.00047703
13770.0 0.00047596
13790.0 0.00047388
13810.0 0.00047084
13830.0 0.00046708
13850.0 0.00046249
13870.0 0.00045712
13890.0 0.00045128
13910.0 0.00044497
13930.0 0.00043797
13950.0 0.00043057
13970.0 0.00042319
13990.0 0.00041537
14010.0 0.00040728
14030.0 0.00039937
14050.0 0.00039156
14070.0 0.00038351
14090.0 0.00037594
14110.0 0.00036893
14130.0 0.00036228
14150.0 0.00035615
14170.0 0.00035101
14190.0 0.00034666
14210.0 0.00034309
14230.0 0.00034056
14250.0 0.00033905
14270.0 0.00033854
14290.0 0.00033912
14310.0 0.00034064
14330.0 0.0003431
14350.0 0.00034655
14370.0 0.00035074
14390.0 0.00035544
14410.0 0.00036096
14430.0 0.00036703
14450.0 0.00037328
14470.0 0.00037987
14490.0 0.00038705
14510.0 0.00039416
14530.0 0.00040123
14550.0 0.00040871
14570.0 0.00041643
14590.0 0.00042406
14610.0 0.00043212
14630.0 0.00044092
14650.0 0.00044993
14670.0 0.00045936
14690.0 0.00046979
14710.0 0.0004812
14730.0 0.00049273
14750.0 0.00050534
14770.0 0.00051915
14790.0 0.00053341
14810.0 0.000548
14830.0 0.00056415
14850.0 0.00058049
14870.0 0.00059642
14890.0 0.00061253
14910.0 0.00062858
14930.0 0.00064319
14950.0 0.00065621
14970.0 0.000668
14990.0 0.00067752
15010.0 0.00068458
15030.0 0.00068963
15050.0 0.00069283
15070.0 0.00069433
15090.0 0.00069477
15110.0 0.00069447
15130.0 0.00069373
15150.0 0.00069282
15170.0 0.00069175
15190.0 0.00069059
15210.0 0.00068949
15230.0 0.0006884
15250.0 0.00068725
15270.0 0.00068612
15290.0 0.0006851
15310.0 0.00068402
15330.0 0.00068292
15350.0 0.0006819
15370.0 0.00068089
15390.0 0.00067979
15410.0 0.00067874
15430.0 0.00067775
15450.0 0.00067672
15470.0 0.00067565
15490.0 0.00067468
15510.0 0.0006737
15530.0 0.00067266
15550.0 0.00067165
15570.0 0.0006707
15590.0 0.00066967
15610.0 0.00066861
15630.0 0.00066764
15650.0 0.00066666
15670.0 0.00066561
15690.0 0.00066461
15710.0 0.00066365
15730.0 0.00066261
15750.0 0.00066157
15770.0 0.00066058
15790.0 0.00065957
15810.0 0.00065847
15830.0 0.00065743
15850.0 0.00065644
15870.0 0.00065537
15890.0 0.00065429
15910.0 0.00065327
15930.0 0.00065221
15950.0 0.00065107
15970.0 0.00064998
15990.0 0.00064892
16010.0 0.00064778
16030.0 0.00064661
16050.0 0.00064553
16070.0 0.0006444
16090.0 0.00064321
16110.0 0.00064206
16130.0 0.00064094
16150.0 0.00063968
16170.0 0.00063845
16190.0 0.00063728
16210.0 0.00063605
16230.0 0.00063476
16250.0 0.00063352
16270.0 0.0006323
16290.0 0.00063098
16310.0 0.00062966
16330.0 0.00062839
16350.0 0.00062706
16370.0 0.00062563
16390.0 0.0006243
16410.0 0.00062296
16430.0 0.00062153
16450.0 0.00062011
16470.0 0.00061875
16490.0 0.00061729
16510.0 0.00061579
16530.0 0.00061434
16550.0 0.00061287
16570.0 0.00061131
16590.0 0.00060976
16610.0 0.00060828
16630.0 0.00060671
16650.0 0.0006051
16670.0 0.00060354
16690.0 0.00060197
16710.0 0.00060027
16730.0 0.00059862
16750.0 0.00059699
16770.0 0.0005953
16790.0 0.00059355
16810.0 0.00059188
16830.0 0.00059018
16850.0 0.00058839
16870.0 0.00058662
16890.0 0.00058489
16910.0 0.00058305
16930.0 0.00058118
16950.0 0.00057938
16970.0 0.00057755
16990.0 0.00057564
17010.0 0.00057376
17030.0 0.00057192
17050.0 0.00056997
17070.0 0.000568
17090.0 0.00056609
17110.0 0.00056414
17130.0 0.00056208
17150.0 0.00056009
17170.0 0.00055813
17190.0 0.00055607
17210.0 0.00055401
17230.0 0.000552
17250.0 0.00054993
17270.0 0.00054778
17290.0 0.00054569
17310.0 0.00054361
17330.0 0.00054144
17350.0 0.00053925
17370.0 0.00053716
17390.0 0.00053499
17410.0 0.00053277
17430.0 0.00053059
17450.0 0.00052843
17470.0 0.00052613
17490.0 0.00052387
17510.0 0.00052167
17530.0 0.00051941
17550.0 0.00051709
17570.0 0.00051483
17590.0 0.00051258
17610.0 0.00051024
17630.0 0.00050791
17650.0 0.00050563
17670.0 0.00050329
17690.0 0.00050086
17710.0 0.00049854
17730.0 0.00049621
17750.0 0.0004938
17770.0 0.00049141
17790.0 0.00048909
17810.0 0.00048666
17830.0 0.00048422
17850.0 0.00048183
17870.0 0.00047943
17890.0 0.00047695
17910.0 0.00047449
17930.0 0.00047211
17950.0 0.00046966
17970.0 0.00046717
17990.0 0.00046475
18010.0 0.00046232
18030.0 0.00045978
18050.0 0.0004573
18070.0 0.00045486
18090.0 0.00045236
18110.0 0.00044983
18130.0 0.00044739
18150.0 0.00044492
18170.0 0.00044238
18190.0 0.00043988
18210.0 0.00043743
18230.0 0.00043488
18250.0 0.00043233
18270.0 0.00042986
18290.0 0.00042736
18310.0 0.00042481
18330.0 0.00042231
18350.0 0.00041985
18370.0 0.0004173
18390.0 0.00041476
18410.0 0.00041228
18430.0 0.00040977
18450.0 0.00040719
18470.0 0.00040469
18490.0 0.00040222
18510.0 0.00039968
18530.0 0.00039716
18550.0 0.0003947
18570.0 0.00039219
18590.0 0.00038963
18610.0 0.00038714
18630.0 0.00038466
18650.0 0.00038213
18670.0 0.0003796
18690.0 0.00037717
18710.0 0.00037468
18730.0 0.00037216
18750.0 0.0003697
18770.0 0.00036726
18790.0 0.00036472
18810.0 0.00036223
18830.0 0.0003598
18850.0 0.00035733
18870.0 0.00035484
18890.0 0.00035241
18910.0 0.00035
18930.0 0.00034752
18950.0 0.00034507
18970.0 0.00034268
18990.0 0.00034024
19010.0 0.00033774
19030.0 0.00033537
19050.0 0.00033298
19070.0 0.00033055
19090.0 0.00032815
19110.0 0.00032581
19130.0 0.0003234
19150.0 0.00032098
19170.0 0.00031864
19190.0 0.00031629
19210.0 0.00031388
19230.0 0.00031152
19250.0 0.00030923
19270.0 0.00030688
19290.0 0.00030453
19310.0 0.00030224
19330.0 0.00029995
19350.0 0.00029757
19370.0 0.00029528
19390.0 0.00029302
19410.0 0.00029072
19430.0 0.00028841
19450.0 0.00028618
19470.0 0.00028394
19490.0 0.00028165
19510.0 0.00027941
19530.0 0.00027721
19550.0 0.00027495
19570.0 0.00027269
19590.0 0.00027052
19610.0 0.00026833
19630.0 0.0002661
19650.0 0.00026393
19670.0 0.00026179
19690.0 0.00025959
19710.0 0.00025741
19730.0 0.00025529
19750.0 0.00025315
19770.0 0.00025096
19790.0 0.00024885
19810.0 0.00024677
19830.0 0.00024463
19850.0 0.0002425
19870.0 0.00024042
19890.0 0.00023825
19910.0 0.00023596
19930.0 0.00023361
19950.0 0.00023109
19970.0 0.0002282
19990.0 0.00022496
20010.0 0.0002246
20030.0 0.00022053
20050.0 0.00021599
20070.0 0.00021124
20090.0 0.00020628
20110.0 0.00020086
20130.0 0.00019551
20150.0 0.00019031
20170.0 0.00018504
20190.0 0.0001798
20210.0 0.00017491
20230.0 0.00017019
20250.0 0.00016553
20270.0 0.00016122
20290.0 0.0001573
20310.0 0.00015359
20330.0 0.00015013
20350.0 0.00014723
20370.0 0.00014465
20390.0 0.00014239
20410.0 0.00014054
20430.0 0.0001391
20450.0 0.00013796
20470.0 0.0001372
20490.0 0.00013678
20510.0 0.00013666
20530.0 0.00013686
20550.0 0.00013731
20570.0 0.00013796
20590.0 0.00013886
20610.0 0.00013995
20630.0 0.00014114
20650.0 0.00014249
20670.0 0.00014403
20690.0 0.00014558
20710.0 0.00014717
20730.0 0.00014888
20750.0 0.00015065
20770.0 0.00015234
20790.0 0.00015411
20810.0 0.00015595
20830.0 0.00015776
20850.0 0.00015954
20870.0 0.00016143
20890.0 0.00016334
20910.0 0.00016515
20930.0 0.00016702
20950.0 0.00016896
20970.0 0.00017085
20990.0 0.0001727
21010.0 0.00017466
21030.0 0.00017659
21050.0 0.00017842
21070.0 0.00018027
21090.0 0.00018215
21110.0 0.00018387
21130.0 0.00018551
21150.0 0.00018714
21170.0 0.00018865
21190.0 0.00018999
21210.0 0.00019127
21230.0 0.00019243
21250.0 0.00019337
21270.0 0.00019414
21290.0 0.00019475
21310.0 0.00019512
21330.0 0.00019524
21350.0 0.00019513
21370.0 0.00019474
21390.0 0.00019406
21410.0 0.0001931
21430.0 0.00019176
21450.0 0.00019013
21470.0 0.00018823
21490.0 0.00018597
21510.0 0.00018337
21530.0 0.00018061
21550.0 0.0001776
21570.0 0.00017427
21590.0 0.00017086
21610.0 0.00016743
21630.0 0.00016385
21650.0 0.00016019
21670.0 0.00015683
21690.0 0.00015357
21710.0 0.00015041
21730.0 0.00014756
21750.0 0.00014508
21770.0 0.0001428
21790.0 0.00014093
21810.0 0.00013951
21830.0 0.00013847
21850.0 0.00013783
21870.0 0.00013763
21890.0 0.00013782
21910.0 0.00013842
21930.0 0.0001394
21950.0 0.00014067
21970.0 0.00014228
21990.0 0.0001443
22010.0 0.00014647
22030.0 0.00014884
22050.0 0.00015148
22070.0 0.0001543
22090.0 0.0001571
22110.0 0.00016005
22130.0 0.00016315
22150.0 0.00016616
22170.0 0.00016911
22190.0 0.00017215
22210.0 0.00017508
22230.0 0.00017773
22250.0 0.0001803
22270.0 0.00018273
22290.0 0.00018486
22310.0 0.00018672
22330.0 0.00018841
22350.0 0.00018975
22370.0 0.00019073
22390.0 0.00019141
22410.0 0.00019174
22430.0 0.00019168
22450.0 0.00019126
22470.0 0.00019046
22490.0 0.00018928
22510.0 0.00018778
22530.0 0.00018585
22550.0 0.00018349
22570.0 0.00018088
22590.0 0.00017793
22610.0 0.00017454
22630.0 0.00017088
22650.0 0.00016709
22670.0 0.0001629
22690.0 0.00015841
22710.0 0.00015387
22730.0 0.00014918
22750.0 0.00014408
22770.0 0.00013907
22790.0 0.00013415
22810.0 0.00012908
22830.0 0.00012401
22850.0 0.00011925
22870.0 0.00011457
22890.0 0.00010991
22910.0 0.00010562
22930.0 0.0001017
22950.0 9.7987e-05
22970.0 9.4583e-05
22990.0 9.1801e-05
23010.0 8.9382e-05
23030.0 8.737e-05
23050.0 8.5889e-05
23070.0 8.4911e-05
23090.0 8.4384e-05
