#lamb flux
1010.0 2.998e-06
1030.0 3.1335e-06
1050.0 3.2901e-06
1070.0 3.4666e-06
1090.0 3.6673e-06
1110.0 3.8737e-06
1130.0 4.082e-06
1150.0 4.3009e-06
1170.0 4.5274e-06
1190.0 4.7433e-06
1210.0 4.9629e-06
1230.0 5.1908e-06
1250.0 5.4153e-06
1270.0 5.6347e-06
1290.0 5.8673e-06
1310.0 6.1012e-06
1330.0 6.3271e-06
1350.0 6.557e-06
1370.0 6.7956e-06
1390.0 7.03e-06
1410.0 7.2596e-06
1430.0 7.5006e-06
1450.0 7.7433e-06
1470.0 7.9801e-06
1490.0 8.2209e-06
1510.0 8.4759e-06
1530.0 8.7201e-06
1550.0 8.9626e-06
1570.0 9.2141e-06
1590.0 9.4669e-06
1610.0 9.7103e-06
1630.0 9.9612e-06
1650.0 1.0219e-05
1670.0 1.0468e-05
1690.0 1.0715e-05
1710.0 1.097e-05
1730.0 1.1225e-05
1750.0 1.1466e-05
1770.0 1.1711e-05
1790.0 1.1959e-05
1810.0 1.2197e-05
1830.0 1.2429e-05
1850.0 1.2672e-05
1870.0 1.2906e-05
1890.0 1.3129e-05
1910.0 1.3354e-05
1930.0 1.3581e-05
1950.0 1.3793e-05
1970.0 1.4e-05
1990.0 1.4213e-05
2010.0 1.4419e-05
2030.0 1.4614e-05
2050.0 1.4815e-05
2070.0 1.502e-05
2090.0 1.5212e-05
2110.0 1.5403e-05
2130.0 1.5602e-05
2150.0 1.5799e-05
2170.0 1.5989e-05
2190.0 1.6191e-05
2210.0 1.64e-05
2230.0 1.6607e-05
2250.0 1.6821e-05
2270.0 1.7052e-05
2290.0 1.7288e-05
2310.0 1.7525e-05
2330.0 1.7782e-05
2350.0 1.8055e-05
2370.0 1.8334e-05
2390.0 1.8632e-05
2410.0 1.8958e-05
2430.0 1.9295e-05
2450.0 1.9644e-05
2470.0 2.0011e-05
2490.0 2.0387e-05
2510.0 2.0758e-05
2530.0 2.1153e-05
2550.0 2.1622e-05
2570.0 2.2245e-05
2590.0 2.3135e-05
2610.0 2.4539e-05
2630.0 2.6612e-05
2650.0 2.9355e-05
2670.0 3.2879e-05
2690.0 3.7182e-05
2710.0 4.1847e-05
2730.0 4.663e-05
2750.0 5.1619e-05
2770.0 5.6466e-05
2790.0 6.1026e-05
2810.0 6.5512e-05
2830.0 7.0118e-05
2850.0 7.4589e-05
2870.0 7.9152e-05
2890.0 8.3995e-05
2910.0 8.9024e-05
2930.0 9.4096e-05
2950.0 9.9477e-05
2970.0 0.00010513
2990.0 0.00011083
3010.0 0.00020605
3030.0 0.00021681
3050.0 0.00022766
3070.0 0.00023786
3090.0 0.00024739
3110.0 0.00025484
3130.0 0.00025838
3150.0 0.00025611
3170.0 0.00024427
3190.0 0.00022175
3210.0 0.00018858
3230.0 0.00015012
3250.0 0.00017861
3270.0 0.00011015
3290.0 0.00018786
3310.0 8.3138e-05
3330.0 8.8975e-05
3350.0 0.00010901
3370.0 0.00013092
3390.0 0.00015373
3410.0 0.00017643
3430.0 0.00019988
3450.0 0.00022319
3470.0 0.00024487
3490.0 0.00025968
3510.0 0.00030016
3530.0 0.00038033
3550.0 0.0004087
3570.0 0.00040758
3590.0 0.00053603
3610.0 0.00044422
3630.0 0.00055976
3650.0 0.00058556
3670.0 0.0006919
3690.0 0.00070951
3710.0 0.00063654
3730.0 0.00078092
3750.0 0.00081383
3770.0 0.00082714
3790.0 0.00076563
3810.0 0.00066388
3830.0 0.0007197
3850.0 0.00068505
3870.0 0.00080304
3890.0 0.00082121
3910.0 0.00085661
3930.0 0.00097448
3950.0 0.0010823
3970.0 0.0013448
3990.0 0.001263
4010.0 0.0010648
4030.0 0.0011841
4050.0 0.0011496
4070.0 0.0012031
4090.0 0.001141
4110.0 0.00094485
4130.0 0.0010889
4150.0 0.0010167
4170.0 0.0010569
4190.0 0.0010528
4210.0 0.0011935
4230.0 0.00098877
4250.0 0.0011243
4270.0 0.001123
4290.0 0.0011382
4310.0 0.0012839
4330.0 0.0013361
4350.0 0.001196
4370.0 0.001122
4390.0 0.0011747
4410.0 0.0011047
4430.0 0.00089482
4450.0 0.00086714
4470.0 0.00093824
4490.0 0.00081889
4510.0 0.0009423
4530.0 0.0010313
4550.0 0.001303
4570.0 0.0017967
4590.0 0.0019676
4610.0 0.0017629
4630.0 0.0022689
4650.0 0.0028023
4670.0 0.0027065
4690.0 0.0020609
4710.0 0.0020217
4730.0 0.0021247
4750.0 0.0018315
4770.0 0.0014673
4790.0 0.0011767
4810.0 0.0014559
4830.0 0.0016417
4850.0 0.0016668
4870.0 0.001169
4890.0 0.0018018
4910.0 0.002148
4930.0 0.0023183
4950.0 0.002498
4970.0 0.0021684
4990.0 0.0023477
5010.0 0.0023568
5030.0 0.002202
5050.0 0.0019728
5070.0 0.0015008
5090.0 0.0012964
5110.0 0.0012417
5130.0 0.0011643
5150.0 0.0012778
5170.0 0.00118
5190.0 0.0013382
5210.0 0.0013488
5230.0 0.0014609
5250.0 0.0017886
5270.0 0.0017507
5290.0 0.0018207
5310.0 0.0022827
5330.0 0.002552
5350.0 0.0024096
5370.0 0.0022847
5390.0 0.0023677
5410.0 0.0026014
5430.0 0.0027552
5450.0 0.0030287
5470.0 0.0033158
5490.0 0.0035427
5510.0 0.0040278
5530.0 0.0041575
5550.0 0.0042653
5570.0 0.0043227
5590.0 0.0042557
5610.0 0.0041396
5630.0 0.0040793
5650.0 0.004125
5670.0 0.0040886
5690.0 0.003678
5710.0 0.0034264
5730.0 0.0032415
5750.0 0.0032802
5770.0 0.0029842
5790.0 0.0028929
5810.0 0.0029987
5830.0 0.003121
5850.0 0.0029532
5870.0 0.0028815
5890.0 0.0030932
5910.0 0.0029905
5930.0 0.0027085
5950.0 0.0025149
5970.0 0.002523
5990.0 0.0022789
6010.0 0.0020615
6030.0 0.0019959
6050.0 0.0019064
6070.0 0.0016557
6090.0 0.001578
6110.0 0.0017755
6130.0 0.0019103
6150.0 0.0020209
6170.0 0.0021093
6190.0 0.0021704
6210.0 0.002205
6230.0 0.0023472
6250.0 0.0021647
6270.0 0.0019442
6290.0 0.0017221
6310.0 0.0015674
6330.0 0.0014718
6350.0 0.0013599
6370.0 0.0013907
6390.0 0.0016014
6410.0 0.0019302
6430.0 0.0022555
6450.0 0.0023496
6470.0 0.0024531
6490.0 0.0027981
6510.0 0.0030097
6530.0 0.0029253
6550.0 0.0028894
6570.0 0.002926
6590.0 0.0028605
6610.0 0.0029869
6630.0 0.0028822
6650.0 0.0026953
6670.0 0.0024902
6690.0 0.0023265
6710.0 0.0024879
6730.0 0.0023307
6750.0 0.0021892
6770.0 0.0021312
6790.0 0.0022141
6810.0 0.0023234
6830.0 0.0022707
6850.0 0.0021352
6870.0 0.0021225
6890.0 0.0020459
6910.0 0.0019427
6930.0 0.0020966
6950.0 0.0020423
6970.0 0.0020361
6990.0 0.0020838
7010.0 0.0020287
7030.0 0.0019042
7050.0 0.0017564
7070.0 0.0016974
7090.0 0.0015534
7110.0 0.0014038
7130.0 0.0012465
7150.0 0.0011711
7170.0 0.0013491
7190.0 0.001424
7210.0 0.0014466
7230.0 0.0015593
7250.0 0.0015716
7270.0 0.0015627
7290.0 0.0016155
7310.0 0.0016478
7330.0 0.0015778
7350.0 0.001506
7370.0 0.0014873
7390.0 0.0015693
7410.0 0.0017778
7430.0 0.0019599
7450.0 0.0021564
7470.0 0.0022406
7490.0 0.002297
7510.0 0.0021973
7530.0 0.0021099
7550.0 0.0019522
7570.0 0.0016917
7590.0 0.0016228
7610.0 0.0016047
7630.0 0.0016105
7650.0 0.0018036
7670.0 0.0019899
7690.0 0.0021685
7710.0 0.0023657
7730.0 0.0025138
7750.0 0.0026284
7770.0 0.0026461
7790.0 0.0027998
7810.0 0.0028789
7830.0 0.0027828
7850.0 0.0027956
7870.0 0.0026774
7890.0 0.002685
7910.0 0.0025382
7930.0 0.002512
7950.0 0.0023419
7970.0 0.0023819
7990.0 0.0023235
8010.0 0.0022806
8030.0 0.0022785
8050.0 0.0023618
8070.0 0.002303
8090.0 0.0023054
8110.0 0.0022296
8130.0 0.002221
8150.0 0.0021431
8170.0 0.0020818
8190.0 0.0020535
8210.0 0.0020676
8230.0 0.0018891
8250.0 0.0017455
8270.0 0.0015238
8290.0 0.0012444
8310.0 0.0010134
8330.0 0.00079497
8350.0 0.00068405
8370.0 0.00073538
8390.0 0.0008003
8410.0 0.0008706
8430.0 0.0010135
8450.0 0.0010752
8470.0 0.0011276
8490.0 0.0012675
8510.0 0.001393
8530.0 0.0016123
8550.0 0.0019024
8570.0 0.0021462
8590.0 0.0023349
8610.0 0.00253
8630.0 0.0027165
8650.0 0.0027497
8670.0 0.0027647
8690.0 0.0028588
8710.0 0.0028633
8730.0 0.0028775
8750.0 0.0027748
8770.0 0.0027763
8790.0 0.0027345
8810.0 0.0025359
8830.0 0.002501
8850.0 0.0023608
8870.0 0.0022663
8890.0 0.0021214
8910.0 0.0022159
8930.0 0.0020594
8950.0 0.0020035
8970.0 0.0019883
8990.0 0.0019299
9010.0 0.0019296
9030.0 0.0018674
9050.0 0.0018568
9070.0 0.0018529
9090.0 0.0018488
9110.0 0.0018452
9130.0 0.0018406
9150.0 0.0018357
9170.0 0.0018275
9190.0 0.0018141
9210.0 0.0018283
9230.0 0.0018186
9250.0 0.0018112
9270.0 0.0018041
9290.0 0.0017972
9310.0 0.0017905
9330.0 0.0017838
9350.0 0.001777
9370.0 0.0017701
9390.0 0.0017631
9410.0 0.001756
9430.0 0.0017487
9450.0 0.001741
9470.0 0.0017334
9490.0 0.0017261
9510.0 0.0017186
9530.0 0.001711
9550.0 0.0017032
9570.0 0.0016954
9590.0 0.0016875
9610.0 0.0016795
9630.0 0.0016714
9650.0 0.0016634
9670.0 0.0016553
9690.0 0.0016471
9710.0 0.001639
9730.0 0.0016308
9750.0 0.0016226
9770.0 0.0016144
9790.0 0.0016062
9810.0 0.001598
9830.0 0.0015899
9850.0 0.0015817
9870.0 0.0015736
9890.0 0.0015654
9910.0 0.0015573
9930.0 0.0015492
9950.0 0.0015342
9970.0 0.0015283
9990.0 0.001522
10010.0 0.0015156
10030.0 0.0015086
10050.0 0.0015011
10070.0 0.0014926
10090.0 0.0014857
10110.0 0.0014782
10130.0 0.001471
10150.0 0.0014638
10170.0 0.0014564
10190.0 0.0014487
10210.0 0.0014415
10230.0 0.0014344
10250.0 0.0014271
10270.0 0.00142
10290.0 0.0014131
10310.0 0.0014061
10330.0 0.0013989
10350.0 0.0013922
10370.0 0.0013856
10390.0 0.0013787
10410.0 0.001372
10430.0 0.0013657
10450.0 0.0013591
10470.0 0.0013526
10490.0 0.0013463
10510.0 0.0013402
10530.0 0.0013336
10550.0 0.0013274
10570.0 0.0013215
10590.0 0.0013154
10610.0 0.0013093
10630.0 0.0013035
10650.0 0.0012978
10670.0 0.0012918
10690.0 0.001286
10710.0 0.0012805
10730.0 0.0012748
10750.0 0.0012689
10770.0 0.0012636
10790.0 0.0012582
10810.0 0.0012526
10830.0 0.0012472
10850.0 0.001242
10870.0 0.0012363
10890.0 0.0012303
10910.0 0.0012243
10930.0 0.0012174
10950.0 0.0012089
10970.0 0.0011991
10990.0 0.0011878
11010.0 0.0011252
11030.0 0.0011104
11050.0 0.0010943
11070.0 0.0010765
11090.0 0.0010564
11110.0 0.0010366
11130.0 0.0010169
11150.0 0.00099647
11170.0 0.00097612
11190.0 0.0009571
11210.0 0.00093793
11230.0 0.00091863
11250.0 0.00090058
11270.0 0.00088347
11290.0 0.00086626
11310.0 0.00084987
11330.0 0.00083541
11350.0 0.00082138
11370.0 0.00080791
11390.0 0.00079582
11410.0 0.00078471
11430.0 0.00077348
11450.0 0.00076306
11470.0 0.00075339
11490.0 0.0007436
11510.0 0.00073336
11530.0 0.00072349
11550.0 0.00071336
11570.0 0.00070219
11590.0 0.00069053
11610.0 0.00067872
11630.0 0.00066566
11650.0 0.00065148
11670.0 0.00063751
11690.0 0.00062309
11710.0 0.00060773
11730.0 0.00059242
11750.0 0.00057787
11770.0 0.00056285
11790.0 0.00054797
11810.0 0.0005342
11830.0 0.00052109
11850.0 0.00050789
11870.0 0.00049598
11890.0 0.00048533
11910.0 0.00047504
11930.0 0.00046537
11950.0 0.00045688
11970.0 0.00044889
11990.0 0.00044103
12010.0 0.00043396
12030.0 0.00042752
12050.0 0.00042117
12070.0 0.000415
12090.0 0.00040966
12110.0 0.00040451
12130.0 0.00039949
12150.0 0.00039501
12170.0 0.00039115
12190.0 0.00038744
12210.0 0.00038441
12230.0 0.00038229
12250.0 0.00038092
12270.0 0.00038042
12290.0 0.00038106
12310.0 0.00038284
12330.0 0.00038579
12350.0 0.00039001
12370.0 0.00039535
12390.0 0.00040185
12410.0 0.00040974
12430.0 0.00041827
12450.0 0.00042745
12470.0 0.00043741
12490.0 0.00044774
12510.0 0.00045785
12530.0 0.00046812
12550.0 0.00047833
12570.0 0.00048788
12590.0 0.00049681
12610.0 0.00050531
12630.0 0.00051301
12650.0 0.00051965
12670.0 0.00052559
12690.0 0.00053072
12710.0 0.00053492
12730.0 0.00053831
12750.0 0.0005409
12770.0 0.00054269
12790.0 0.00054377
12810.0 0.00054412
12830.0 0.0005437
12850.0 0.0005428
12870.0 0.00054135
12890.0 0.00053918
12910.0 0.00053655
12930.0 0.00053362
12950.0 0.00053001
12970.0 0.00052581
12990.0 0.00052149
13010.0 0.00051676
13030.0 0.0005114
13050.0 0.00050577
13070.0 0.00050009
13090.0 0.0004938
13110.0 0.00048717
13130.0 0.00048066
13150.0 0.00047408
13170.0 0.00046712
13190.0 0.00046066
13210.0 0.00045477
13230.0 0.00044914
13250.0 0.00044412
13270.0 0.00044011
13290.0 0.00043688
13310.0 0.00043444
13330.0 0.0004331
13350.0 0.00043269
13370.0 0.00043306
13390.0 0.00043414
13410.0 0.00043568
13430.0 0.00043747
13450.0 0.00043929
13470.0 0.00044084
13490.0 0.00044194
13510.0 0.00044235
13530.0 0.00044188
13550.0 0.00044053
13570.0 0.0004382
13590.0 0.00043479
13610.0 0.00043061
13630.0 0.00042584
13650.0 0.00042023
13670.0 0.00041419
13690.0 0.00040811
13710.0 0.00040182
13730.0 0.00039525
13750.0 0.00038924
13770.0 0.00038352
13790.0 0.00037792
13810.0 0.0003727
13830.0 0.00036805
13850.0 0.00036357
13870.0 0.00035933
13890.0 0.00035552
13910.0 0.00035198
13930.0 0.00034851
13950.0 0.00034525
13970.0 0.00034232
13990.0 0.00033944
14010.0 0.00033667
14030.0 0.00033413
14050.0 0.00033175
14070.0 0.00032943
14090.0 0.00032735
14110.0 0.00032548
14130.0 0.00032376
14150.0 0.00032221
14170.0 0.0003209
14190.0 0.00031978
14210.0 0.00031882
14230.0 0.00031807
14250.0 0.00031752
14270.0 0.00031716
14290.0 0.00031703
14310.0 0.00031706
14330.0 0.00031728
14350.0 0.0003177
14370.0 0.00031824
14390.0 0.00031885
14410.0 0.00031958
14430.0 0.00032035
14450.0 0.00032104
14470.0 0.00032168
14490.0 0.00032229
14510.0 0.00032271
14530.0 0.00032296
14550.0 0.00032312
14570.0 0.00032317
14590.0 0.00032311
14610.0 0.00032303
14630.0 0.00032303
14650.0 0.00032311
14670.0 0.00032334
14690.0 0.00032388
14710.0 0.00032479
14730.0 0.00032596
14750.0 0.00032762
14770.0 0.00032985
14790.0 0.00033252
14810.0 0.00033559
14830.0 0.0003395
14850.0 0.00034386
14870.0 0.00034843
14890.0 0.00035343
14910.0 0.00035876
14930.0 0.00036378
14950.0 0.00036833
14970.0 0.00037252
14990.0 0.00037576
15010.0 0.00037786
15030.0 0.000379
15050.0 0.00037922
15070.0 0.00037852
15090.0 0.00037725
15110.0 0.00037559
15130.0 0.00037367
15150.0 0.00037163
15170.0 0.0003695
15190.0 0.00036733
15210.0 0.00036516
15230.0 0.00036299
15250.0 0.0003608
15270.0 0.00035861
15290.0 0.00035644
15310.0 0.00035426
15330.0 0.00035207
15350.0 0.0003499
15370.0 0.00034774
15390.0 0.00034555
15410.0 0.00034338
15430.0 0.00034123
15450.0 0.00033906
15470.0 0.0003369
15490.0 0.00033476
15510.0 0.00033262
15530.0 0.00033047
15550.0 0.00032834
15570.0 0.00032623
15590.0 0.0003241
15610.0 0.00032198
15630.0 0.00031989
15650.0 0.0003178
15670.0 0.0003157
15690.0 0.00031363
15710.0 0.00031157
15730.0 0.00030951
15750.0 0.00030746
15770.0 0.00030543
15790.0 0.0003034
15810.0 0.00030137
15830.0 0.00029936
15850.0 0.00029738
15870.0 0.00029539
15890.0 0.00029341
15910.0 0.00029146
15930.0 0.00028951
15950.0 0.00028756
15970.0 0.00028564
15990.0 0.00028373
16010.0 0.00028183
16030.0 0.00027993
16050.0 0.00027806
16070.0 0.0002762
16090.0 0.00027435
16110.0 0.00027251
16130.0 0.0002707
16150.0 0.00026888
16170.0 0.00026708
16190.0 0.0002653
16210.0 0.00026354
16230.0 0.00026177
16250.0 0.00026003
16270.0 0.00025832
16290.0 0.0002566
16310.0 0.00025489
16330.0 0.00025322
16350.0 0.00025154
16370.0 0.00024987
16390.0 0.00024823
16410.0 0.00024661
16430.0 0.00024499
16450.0 0.00024339
16470.0 0.00024181
16490.0 0.00024023
16510.0 0.00023867
16530.0 0.00023713
16550.0 0.0002356
16570.0 0.00023408
16590.0 0.00023257
16610.0 0.00023109
16630.0 0.00022962
16650.0 0.00022815
16670.0 0.00022671
16690.0 0.00022529
16710.0 0.00022386
16730.0 0.00022245
16750.0 0.00022107
16770.0 0.00021969
16790.0 0.00021832
16810.0 0.00021698
16830.0 0.00021565
16850.0 0.00021432
16870.0 0.00021301
16890.0 0.00021172
16910.0 0.00021043
16930.0 0.00020916
16950.0 0.00020791
16970.0 0.00020667
16990.0 0.00020543
17010.0 0.00020422
17030.0 0.00020302
17050.0 0.00020183
17070.0 0.00020065
17090.0 0.00019949
17110.0 0.00019834
17130.0 0.00019718
17150.0 0.00019606
17170.0 0.00019495
17190.0 0.00019384
17210.0 0.00019275
17230.0 0.00019168
17250.0 0.00019061
17270.0 0.00018955
17290.0 0.00018851
17310.0 0.00018748
17330.0 0.00018645
17350.0 0.00018544
17370.0 0.00018445
17390.0 0.00018347
17410.0 0.00018248
17430.0 0.00018152
17450.0 0.00018058
17470.0 0.00017963
17490.0 0.00017869
17510.0 0.00017778
17530.0 0.00017687
17550.0 0.00017596
17570.0 0.00017507
17590.0 0.0001742
17610.0 0.00017333
17630.0 0.00017247
17650.0 0.00017162
17670.0 0.00017078
17690.0 0.00016994
17710.0 0.00016913
17730.0 0.00016832
17750.0 0.00016752
17770.0 0.00016673
17790.0 0.00016595
17810.0 0.00016518
17830.0 0.00016441
17850.0 0.00016366
17870.0 0.00016291
17890.0 0.00016217
17910.0 0.00016144
17930.0 0.00016073
17950.0 0.00016001
17970.0 0.00015931
17990.0 0.00015862
18010.0 0.00015794
18030.0 0.00015725
18050.0 0.00015658
18070.0 0.00015592
18090.0 0.00015527
18110.0 0.00015461
18130.0 0.00015398
18150.0 0.00015335
18170.0 0.00015272
18190.0 0.00015211
18210.0 0.0001515
18230.0 0.0001509
18250.0 0.0001503
18270.0 0.00014971
18290.0 0.00014914
18310.0 0.00014856
18330.0 0.00014799
18350.0 0.00014744
18370.0 0.00014688
18390.0 0.00014633
18410.0 0.00014579
18430.0 0.00014526
18450.0 0.00014472
18470.0 0.0001442
18490.0 0.00014369
18510.0 0.00014318
18530.0 0.00014267
18550.0 0.00014218
18570.0 0.00014169
18590.0 0.0001412
18610.0 0.00014072
18630.0 0.00014025
18650.0 0.00013977
18670.0 0.00013931
18690.0 0.00013886
18710.0 0.0001384
18730.0 0.00013795
18750.0 0.00013751
18770.0 0.00013708
18790.0 0.00013664
18810.0 0.00013621
18830.0 0.00013579
18850.0 0.00013537
18870.0 0.00013495
18890.0 0.00013455
18910.0 0.00013415
18930.0 0.00013374
18950.0 0.00013335
18970.0 0.00013296
18990.0 0.00013257
19010.0 0.00013218
19030.0 0.00013181
19050.0 0.00013144
19070.0 0.00013106
19090.0 0.0001307
19110.0 0.00013034
19130.0 0.00012998
19150.0 0.00012962
19170.0 0.00012928
19190.0 0.00012893
19210.0 0.00012858
19230.0 0.00012824
19250.0 0.00012791
19270.0 0.00012758
19290.0 0.00012725
19310.0 0.00012693
19330.0 0.00012661
19350.0 0.00012628
19370.0 0.00012597
19390.0 0.00012566
19410.0 0.00012535
19430.0 0.00012504
19450.0 0.00012474
19470.0 0.00012444
19490.0 0.00012414
19510.0 0.00012384
19530.0 0.00012356
19550.0 0.00012327
19570.0 0.00012297
19590.0 0.0001227
19610.0 0.00012242
19630.0 0.00012213
19650.0 0.00012186
19670.0 0.00012159
19690.0 0.00012132
19710.0 0.00012105
19730.0 0.00012079
19750.0 0.00012052
19770.0 0.00012025
19790.0 0.00012
19810.0 0.00011974
19830.0 0.00011948
19850.0 0.00011922
19870.0 0.00011896
19890.0 0.00011867
19910.0 0.00011834
19930.0 0.00011796
19950.0 0.00011749
19970.0 0.00011687
19990.0 0.00011607
20010.0 0.00011512
20030.0 0.00011393
20050.0 0.00011251
20070.0 0.00011096
20090.0 0.00010928
20110.0 0.00010738
20130.0 0.00010545
20150.0 0.00010355
20170.0 0.00010158
20190.0 9.958e-05
20210.0 9.7693e-05
20230.0 9.5848e-05
20250.0 9.3991e-05
20270.0 9.2259e-05
20290.0 9.0667e-05
20310.0 8.9141e-05
20330.0 8.7702e-05
20350.0 8.6497e-05
20370.0 8.542e-05
20390.0 8.4469e-05
20410.0 8.3701e-05
20430.0 8.3115e-05
20450.0 8.266e-05
20470.0 8.2378e-05
20490.0 8.2262e-05
20510.0 8.2289e-05
20530.0 8.2463e-05
20550.0 8.2764e-05
20570.0 8.3163e-05
20590.0 8.3675e-05
20610.0 8.4275e-05
20630.0 8.4917e-05
20650.0 8.5612e-05
20670.0 8.6373e-05
20690.0 8.7113e-05
20710.0 8.7834e-05
20730.0 8.8555e-05
20750.0 8.9239e-05
20770.0 8.9841e-05
20790.0 9.0392e-05
20810.0 9.088e-05
20830.0 9.127e-05
20850.0 9.1568e-05
20870.0 9.1782e-05
20890.0 9.1893e-05
20910.0 9.1906e-05
20930.0 9.1829e-05
20950.0 9.1657e-05
20970.0 9.1407e-05
20990.0 9.1088e-05
21010.0 9.0678e-05
21030.0 9.021e-05
21050.0 8.9705e-05
21070.0 8.9146e-05
21090.0 8.8528e-05
21110.0 8.7916e-05
21130.0 8.7295e-05
21150.0 8.6644e-05
21170.0 8.6002e-05
21190.0 8.5397e-05
21210.0 8.479e-05
21230.0 8.4201e-05
21250.0 8.3679e-05
21270.0 8.3204e-05
21290.0 8.2768e-05
21310.0 8.24e-05
21330.0 8.2113e-05
21350.0 8.1884e-05
21370.0 8.1729e-05
21390.0 8.1654e-05
21410.0 8.1653e-05
21430.0 8.1731e-05
21450.0 8.1884e-05
21470.0 8.2102e-05
21490.0 8.2392e-05
21510.0 8.2751e-05
21530.0 8.3153e-05
21550.0 8.3607e-05
21570.0 8.4127e-05
21590.0 8.4679e-05
21610.0 8.5253e-05
21630.0 8.5875e-05
21650.0 8.6544e-05
21670.0 8.7194e-05
21690.0 8.7872e-05
21710.0 8.8587e-05
21730.0 8.9301e-05
21750.0 9.0004e-05
21770.0 9.0756e-05
21790.0 9.1512e-05
21810.0 9.2247e-05
21830.0 9.2993e-05
21850.0 9.3765e-05
21870.0 9.4517e-05
21890.0 9.5243e-05
21910.0 9.5993e-05
21930.0 9.6732e-05
21950.0 9.7434e-05
21970.0 9.8128e-05
21990.0 9.8829e-05
22010.0 9.9468e-05
22030.0 0.00010006
22050.0 0.00010064
22070.0 0.00010116
22090.0 0.0001016
22110.0 0.00010199
22130.0 0.00010231
22150.0 0.00010255
22170.0 0.0001027
22190.0 0.00010276
22210.0 0.00010272
22230.0 0.00010258
22250.0 0.00010234
22270.0 0.00010198
22290.0 0.00010154
22310.0 0.000101
22330.0 0.00010033
22350.0 9.9563e-05
22370.0 9.8734e-05
22390.0 9.7801e-05
22410.0 9.6753e-05
22430.0 9.5687e-05
22450.0 9.4568e-05
22470.0 9.3353e-05
22490.0 9.211e-05
22510.0 9.0881e-05
22530.0 8.9577e-05
22550.0 8.8237e-05
22570.0 8.6956e-05
22590.0 8.5683e-05
22610.0 8.4385e-05
22630.0 8.3132e-05
22650.0 8.1965e-05
22670.0 8.0792e-05
22690.0 7.9654e-05
22710.0 7.8605e-05
22730.0 7.7609e-05
22750.0 7.6612e-05
22770.0 7.5711e-05
22790.0 7.4889e-05
22810.0 7.4095e-05
22830.0 7.3345e-05
22850.0 7.2677e-05
22870.0 7.2046e-05
22890.0 7.1436e-05
22910.0 7.0885e-05
22930.0 7.0383e-05
22950.0 6.9902e-05
22970.0 6.9445e-05
22990.0 6.9052e-05
