#lamb flux
1010.0 1.7382e-07
1030.0 1.9527e-07
1050.0 2.1994e-07
1070.0 2.4771e-07
1090.0 2.7925e-07
1110.0 3.116e-07
1130.0 3.4416e-07
1150.0 3.7827e-07
1170.0 4.1345e-07
1190.0 4.4681e-07
1210.0 4.8063e-07
1230.0 5.1557e-07
1250.0 5.498e-07
1270.0 5.8305e-07
1290.0 6.1818e-07
1310.0 6.5329e-07
1330.0 6.8696e-07
1350.0 7.21e-07
1370.0 7.5615e-07
1390.0 7.9042e-07
1410.0 8.2367e-07
1430.0 8.5843e-07
1450.0 8.9318e-07
1470.0 9.2676e-07
1490.0 9.607e-07
1510.0 9.9655e-07
1530.0 1.0305e-06
1550.0 1.064e-06
1570.0 1.0986e-06
1590.0 1.1333e-06
1610.0 1.1664e-06
1630.0 1.2005e-06
1650.0 1.2354e-06
1670.0 1.2692e-06
1690.0 1.3025e-06
1710.0 1.3371e-06
1730.0 1.3718e-06
1750.0 1.4043e-06
1770.0 1.4378e-06
1790.0 1.4718e-06
1810.0 1.5047e-06
1830.0 1.5368e-06
1850.0 1.5708e-06
1870.0 1.6038e-06
1890.0 1.6354e-06
1910.0 1.6675e-06
1930.0 1.7002e-06
1950.0 1.731e-06
1970.0 1.7611e-06
1990.0 1.7921e-06
2010.0 1.8222e-06
2030.0 1.8507e-06
2050.0 1.8797e-06
2070.0 1.909e-06
2090.0 1.9358e-06
2110.0 1.9619e-06
2130.0 1.9883e-06
2150.0 2.0133e-06
2170.0 2.0361e-06
2190.0 2.0593e-06
2210.0 2.0818e-06
2230.0 2.102e-06
2250.0 2.1211e-06
2270.0 2.1404e-06
2290.0 2.1576e-06
2310.0 2.1724e-06
2330.0 2.187e-06
2350.0 2.2005e-06
2370.0 2.2116e-06
2390.0 2.2219e-06
2410.0 2.2329e-06
2430.0 2.2427e-06
2450.0 2.2521e-06
2470.0 2.264e-06
2490.0 2.2796e-06
2510.0 2.2986e-06
2530.0 2.3292e-06
2550.0 2.3837e-06
2570.0 2.4736e-06
2590.0 2.613e-06
2610.0 2.8425e-06
2630.0 3.1692e-06
2650.0 3.5721e-06
2670.0 4.0532e-06
2690.0 4.5897e-06
2710.0 5.0993e-06
2730.0 5.5436e-06
2750.0 5.9286e-06
2770.0 6.2129e-06
2790.0 6.3958e-06
2810.0 6.5101e-06
2830.0 6.5782e-06
2850.0 6.6008e-06
2870.0 6.6026e-06
2890.0 6.5977e-06
2910.0 6.5868e-06
2930.0 6.569e-06
2950.0 6.5539e-06
2970.0 6.541e-06
2990.0 6.5251e-06
3010.0 0.00011766
3030.0 0.00011728
3050.0 0.0001169
3070.0 0.0001164
3090.0 0.00011585
3110.0 0.00011512
3130.0 0.00011406
3150.0 0.00011261
3170.0 0.00011065
3190.0 0.00010822
3210.0 0.00010556
3230.0 0.00010291
3250.0 0.00010088
3270.0 9.9533e-05
3290.0 9.9597e-05
3310.0 0.0001005
3330.0 0.00010292
3350.0 0.00010638
3370.0 0.00011094
3390.0 0.00011648
3410.0 0.00012239
3430.0 0.00012895
3450.0 0.00013641
3470.0 0.00014442
3490.0 0.00015275
3510.0 0.00016202
3530.0 0.00017182
3550.0 0.00018142
3570.0 0.00019126
3590.0 0.00020229
3610.0 0.00021321
3630.0 0.00022497
3650.0 0.00023697
3670.0 0.00024831
3690.0 0.00025703
3710.0 0.00026248
3730.0 0.00026433
3750.0 0.00026241
3770.0 0.00023922
3790.0 0.00021461
3810.0 0.00020035
3830.0 0.00017288
3850.0 0.00012459
3870.0 9.5628e-05
3890.0 0.00016076
3910.0 0.00025581
3930.0 0.00030971
3950.0 0.00030948
3970.0 0.00030934
3990.0 0.00036284
4010.0 0.00045036
4030.0 0.0004634
4050.0 0.00041716
4070.0 0.0003628
4090.0 0.00034002
4110.0 0.00040796
4130.0 0.0004225
4150.0 0.00040244
4170.0 0.00041551
4190.0 0.00042648
4210.0 0.00042032
4230.0 0.00045628
4250.0 0.00049701
4270.0 0.00050216
4290.0 0.00050998
4310.0 0.00053011
4330.0 0.0005861
4350.0 0.00066849
4370.0 0.00075578
4390.0 0.00072802
4410.0 0.00061036
4430.0 0.00051438
4450.0 0.00043762
4470.0 0.00042829
4490.0 0.00046494
4510.0 0.00050881
4530.0 0.00055668
4550.0 0.00064844
4570.0 0.00077989
4590.0 0.00095467
4610.0 0.0011997
4630.0 0.0014374
4650.0 0.0014874
4670.0 0.0014586
4690.0 0.0015534
4710.0 0.0016234
4730.0 0.0013799
4750.0 0.0010035
4770.0 0.00082354
4790.0 0.00078589
4810.0 0.00072994
4830.0 0.00069216
4850.0 0.00079719
4870.0 0.0010176
4890.0 0.0011546
4910.0 0.00099301
4930.0 0.00088659
4950.0 0.00099752
4970.0 0.0013287
4990.0 0.0017002
5010.0 0.0017819
5030.0 0.0014756
5050.0 0.00097147
5070.0 0.00067216
5090.0 0.0005978
5110.0 0.0006247
5130.0 0.00066995
5150.0 0.00070525
5170.0 0.00070523
5190.0 0.00069318
5210.0 0.00067097
5230.0 0.00068227
5250.0 0.00072683
5270.0 0.00084932
5290.0 0.00098159
5310.0 0.0010673
5330.0 0.0010955
5350.0 0.0011133
5370.0 0.0012097
5390.0 0.0012859
5410.0 0.0012514
5430.0 0.0010963
5450.0 0.001016
5470.0 0.001146
5490.0 0.001468
5510.0 0.0018619
5530.0 0.0020536
5550.0 0.0020062
5570.0 0.0018308
5590.0 0.0016485
5610.0 0.0015212
5630.0 0.0014428
5650.0 0.0014821
5670.0 0.0014526
5690.0 0.0013646
5710.0 0.0012867
5730.0 0.001155
5750.0 0.00086045
5770.0 0.00075495
5790.0 0.00084266
5810.0 0.0010166
5830.0 0.0011388
5850.0 0.0012284
5870.0 0.001257
5890.0 0.0012113
5910.0 0.0011605
5930.0 0.0011686
5950.0 0.0012274
5970.0 0.0012855
5990.0 0.0012216
6010.0 0.0010338
6030.0 0.00085926
6050.0 0.00074954
6070.0 0.0007428
6090.0 0.00083332
6110.0 0.00090858
6130.0 0.00087515
6150.0 0.00082215
6170.0 0.00091017
6190.0 0.0010943
6210.0 0.001313
6230.0 0.0014801
6250.0 0.0014739
6270.0 0.0013297
6290.0 0.0011007
6310.0 0.00087821
6330.0 0.00070502
6350.0 0.00063946
6370.0 0.00069725
6390.0 0.00081839
6410.0 0.0009379
6430.0 0.0010849
6450.0 0.001261
6470.0 0.0015579
6490.0 0.0019105
6510.0 0.0020974
6530.0 0.00195
6550.0 0.0017999
6570.0 0.0017707
6590.0 0.0017016
6610.0 0.0015382
6630.0 0.001381
6650.0 0.0012767
6670.0 0.0013257
6690.0 0.0013184
6710.0 0.0011689
6730.0 0.0010833
6750.0 0.0009633
6770.0 0.00092738
6790.0 0.0010003
6810.0 0.0010541
6830.0 0.0010799
6850.0 0.0010614
6870.0 0.0010175
6890.0 0.00099684
6910.0 0.00094769
6930.0 0.0008953
6950.0 0.00090049
6970.0 0.00091921
6990.0 0.0010234
7010.0 0.0010889
7030.0 0.00099165
7050.0 0.00092891
7070.0 0.0008935
7090.0 0.00080391
7110.0 0.00074895
7130.0 0.00076233
7150.0 0.0007917
7170.0 0.00083396
7190.0 0.00083526
7210.0 0.0008394
7230.0 0.00088414
7250.0 0.0010182
7270.0 0.0011894
7290.0 0.0012747
7310.0 0.001235
7330.0 0.0010985
7350.0 0.00098744
7370.0 0.00097104
7390.0 0.00098025
7410.0 0.0010161
7430.0 0.0011125
7450.0 0.001206
7470.0 0.0013364
7490.0 0.0014767
7510.0 0.0013574
7530.0 0.001299
7550.0 0.0010907
7570.0 0.00091634
7590.0 0.00075496
7610.0 0.00069279
7630.0 0.00072467
7650.0 0.00082852
7670.0 0.00090232
7690.0 0.0010174
7710.0 0.0011339
7730.0 0.0011854
7750.0 0.0011879
7770.0 0.0011832
7790.0 0.0011655
7810.0 0.0012103
7830.0 0.0011697
7850.0 0.0010433
7870.0 0.00094197
7890.0 0.00087739
7910.0 0.00079116
7930.0 0.00067682
7950.0 0.0006194
7970.0 0.00061563
7990.0 0.00064417
8010.0 0.00068369
8030.0 0.00069348
8050.0 0.00069045
8070.0 0.00067066
8090.0 0.00066738
8110.0 0.00063404
8130.0 0.00059076
8150.0 0.00055524
8170.0 0.00054154
8190.0 0.00055294
8210.0 0.00055425
8230.0 0.00057618
8250.0 0.00057253
8270.0 0.00051159
8290.0 0.00039286
8310.0 0.00026744
8330.0 0.00017634
8350.0 0.00012513
8370.0 0.00014853
8390.0 0.00016431
8410.0 0.00021037
8430.0 0.00025484
8450.0 0.00027913
8470.0 0.00028943
8490.0 0.00029715
8510.0 0.00031032
8530.0 0.00034691
8550.0 0.00038319
8570.0 0.00045009
8590.0 0.00055187
8610.0 0.00064605
8630.0 0.00075498
8650.0 0.00084891
8670.0 0.00083613
8690.0 0.00078332
8710.0 0.0007401
8730.0 0.00069929
8750.0 0.00066868
8770.0 0.00064875
8790.0 0.0006284
8810.0 0.00058528
8830.0 0.00052761
8850.0 0.00045673
8870.0 0.00039011
8890.0 0.00035227
8910.0 0.00035617
8930.0 0.00035561
8950.0 0.00038602
8970.0 0.00039487
8990.0 0.00041007
9010.0 0.00042522
9030.0 0.00042861
9050.0 0.00043021
9070.0 0.00043141
9090.0 0.0004323
9110.0 0.00043274
9130.0 0.00043344
9150.0 0.00043442
9170.0 0.0004354
9190.0 0.00043635
9210.0 0.00043785
9230.0 0.00043897
9250.0 0.00044025
9270.0 0.00044161
9290.0 0.00044305
9310.0 0.00044462
9330.0 0.00044628
9350.0 0.00044799
9370.0 0.00044981
9390.0 0.00045173
9410.0 0.00045372
9430.0 0.00045575
9450.0 0.00045792
9470.0 0.00046017
9490.0 0.00046246
9510.0 0.00046484
9530.0 0.00046733
9550.0 0.00046983
9570.0 0.00047241
9590.0 0.00047509
9610.0 0.00047783
9630.0 0.00048059
9650.0 0.00048344
9670.0 0.00048639
9690.0 0.00048936
9710.0 0.00049237
9730.0 0.00049547
9750.0 0.00049862
9770.0 0.00050174
9790.0 0.00050497
9810.0 0.00050826
9830.0 0.00051155
9850.0 0.00051487
9870.0 0.00051828
9890.0 0.0005217
9910.0 0.00052511
9930.0 0.00052857
9950.0 0.00053206
9970.0 0.00053554
9990.0 0.00053903
10010.0 0.00053021
10030.0 0.00053363
10050.0 0.00053699
10070.0 0.00054026
10090.0 0.00054376
10110.0 0.00054718
10130.0 0.00055058
10150.0 0.00055402
10170.0 0.0005574
10190.0 0.0005607
10210.0 0.00056405
10230.0 0.00056739
10250.0 0.00057064
10270.0 0.00057386
10290.0 0.00057711
10310.0 0.00058026
10330.0 0.00058331
10350.0 0.0005864
10370.0 0.00058945
10390.0 0.00059237
10410.0 0.00059526
10430.0 0.00059816
10450.0 0.00060093
10470.0 0.00060361
10490.0 0.00060627
10510.0 0.00060887
10530.0 0.00061129
10550.0 0.00061368
10570.0 0.00061605
10590.0 0.00061828
10610.0 0.0006204
10630.0 0.00062249
10650.0 0.00062449
10670.0 0.00062631
10690.0 0.00062807
10710.0 0.00062978
10730.0 0.00063133
10750.0 0.00063272
10770.0 0.00063412
10790.0 0.00063539
10810.0 0.00063648
10830.0 0.00063747
10850.0 0.00063837
10870.0 0.00063891
10890.0 0.0006391
10910.0 0.00063883
10930.0 0.00063773
10950.0 0.00063522
10970.0 0.00063116
10990.0 0.00062539
11010.0 0.00060427
11030.0 0.00059364
11050.0 0.00058126
11070.0 0.0005668
11090.0 0.00054964
11110.0 0.00053211
11130.0 0.000514
11150.0 0.00049472
11170.0 0.00047519
11190.0 0.00045667
11210.0 0.00043805
11230.0 0.00041957
11250.0 0.00040257
11270.0 0.00038688
11290.0 0.0003718
11310.0 0.00035812
11330.0 0.00034655
11350.0 0.00033598
11370.0 0.00032646
11390.0 0.00031832
11410.0 0.00031115
11430.0 0.00030426
11450.0 0.00029793
11470.0 0.00029196
11490.0 0.00028581
11510.0 0.00027924
11530.0 0.00027257
11550.0 0.00026553
11570.0 0.00025772
11590.0 0.00024953
11610.0 0.00024123
11630.0 0.00023234
11650.0 0.00022309
11670.0 0.00021425
11690.0 0.00020558
11710.0 0.00019694
11730.0 0.00018886
11750.0 0.0001816
11770.0 0.00017469
11790.0 0.00016837
11810.0 0.0001629
11830.0 0.00015805
11850.0 0.00015358
11870.0 0.00014974
11890.0 0.0001464
11910.0 0.00014326
11930.0 0.00014028
11950.0 0.00013749
11970.0 0.00013469
11990.0 0.00013173
12010.0 0.00012873
12030.0 0.00012565
12050.0 0.00012237
12070.0 0.00011893
12090.0 0.00011563
12110.0 0.00011231
12130.0 0.00010901
12150.0 0.00010599
12170.0 0.00010331
12190.0 0.00010089
12210.0 9.8978e-05
12230.0 9.7642e-05
12250.0 9.6859e-05
12270.0 9.6706e-05
12290.0 9.7177e-05
12310.0 9.8195e-05
12330.0 9.9854e-05
12350.0 0.00010205
12370.0 0.0001046
12390.0 0.00010754
12410.0 0.00011097
12430.0 0.00011437
12450.0 0.00011778
12470.0 0.0001213
12490.0 0.00012468
12510.0 0.00012767
12530.0 0.00013047
12550.0 0.00013298
12570.0 0.00013496
12590.0 0.00013646
12610.0 0.00013756
12630.0 0.00013813
12650.0 0.00013816
12670.0 0.00013776
12690.0 0.00013691
12710.0 0.00013566
12730.0 0.00013409
12750.0 0.00013214
12770.0 0.00012994
12790.0 0.00012757
12810.0 0.00012499
12830.0 0.00012219
12850.0 0.00011938
12870.0 0.00011648
12890.0 0.00011342
12910.0 0.00011031
12930.0 0.00010722
12950.0 0.00010398
12970.0 0.00010062
12990.0 9.735e-05
13010.0 9.4052e-05
13030.0 9.0645e-05
13050.0 8.7295e-05
13070.0 8.4092e-05
13090.0 8.0842e-05
13110.0 7.7671e-05
13130.0 7.4733e-05
13150.0 7.1963e-05
13170.0 6.9295e-05
13190.0 6.6965e-05
13210.0 6.4972e-05
13230.0 6.3232e-05
13250.0 6.1824e-05
13270.0 6.0801e-05
13290.0 6.0109e-05
13310.0 5.977e-05
13330.0 5.9788e-05
13350.0 6.0115e-05
13370.0 6.0761e-05
13390.0 6.1708e-05
13410.0 6.2802e-05
13430.0 6.4093e-05
13450.0 6.5562e-05
13470.0 6.7072e-05
13490.0 6.8568e-05
13510.0 7.0165e-05
13530.0 7.1684e-05
13550.0 7.3051e-05
13570.0 7.4326e-05
13590.0 7.5502e-05
13610.0 7.6475e-05
13630.0 7.7259e-05
13650.0 7.7917e-05
13670.0 7.8394e-05
13690.0 7.8684e-05
13710.0 7.8826e-05
13730.0 7.8823e-05
13750.0 7.8664e-05
13770.0 7.8382e-05
13790.0 7.7977e-05
13810.0 7.7461e-05
13830.0 7.6865e-05
13850.0 7.6167e-05
13870.0 7.5372e-05
13890.0 7.4522e-05
13910.0 7.3612e-05
13930.0 7.261e-05
13950.0 7.1557e-05
13970.0 7.0511e-05
13990.0 6.9409e-05
14010.0 6.8273e-05
14030.0 6.717e-05
14050.0 6.6089e-05
14070.0 6.4986e-05
14090.0 6.3961e-05
14110.0 6.3026e-05
14130.0 6.2155e-05
14150.0 6.137e-05
14170.0 6.073e-05
14190.0 6.0209e-05
14210.0 5.9809e-05
14230.0 5.9559e-05
14250.0 5.945e-05
14270.0 5.9486e-05
14290.0 5.9676e-05
14310.0 5.9987e-05
14330.0 6.042e-05
14350.0 6.0985e-05
14370.0 6.1638e-05
14390.0 6.2344e-05
14410.0 6.3148e-05
14430.0 6.4009e-05
14450.0 6.4876e-05
14470.0 6.5773e-05
14490.0 6.6741e-05
14510.0 6.7694e-05
14530.0 6.8645e-05
14550.0 6.9667e-05
14570.0 7.0748e-05
14590.0 7.1852e-05
14610.0 7.3063e-05
14630.0 7.4439e-05
14650.0 7.5904e-05
14670.0 7.7486e-05
14690.0 7.9285e-05
14710.0 8.1286e-05
14730.0 8.3328e-05
14750.0 8.5562e-05
14770.0 8.7993e-05
14790.0 9.0468e-05
14810.0 9.2952e-05
14830.0 9.5634e-05
14850.0 9.8261e-05
14870.0 0.00010073
14890.0 0.00010313
14910.0 0.00010543
14930.0 0.00010743
14950.0 0.00010913
14970.0 0.0001106
14990.0 0.00011172
15010.0 0.00011249
15030.0 0.00011299
15050.0 0.00011325
15070.0 0.0001133
15090.0 0.00011322
15110.0 0.00011305
15130.0 0.00011283
15150.0 0.0001126
15170.0 0.00011234
15190.0 0.00011207
15210.0 0.00011182
15230.0 0.00011156
15250.0 0.0001113
15270.0 0.00011103
15290.0 0.00011079
15310.0 0.00011053
15330.0 0.00011028
15350.0 0.00011003
15370.0 0.00010979
15390.0 0.00010953
15410.0 0.00010928
15430.0 0.00010904
15450.0 0.00010879
15470.0 0.00010853
15490.0 0.00010829
15510.0 0.00010805
15530.0 0.0001078
15550.0 0.00010756
15570.0 0.00010732
15590.0 0.00010707
15610.0 0.00010682
15630.0 0.00010658
15650.0 0.00010634
15670.0 0.00010609
15690.0 0.00010584
15710.0 0.00010561
15730.0 0.00010536
15750.0 0.00010511
15770.0 0.00010487
15790.0 0.00010462
15810.0 0.00010436
15830.0 0.00010411
15850.0 0.00010387
15870.0 0.00010362
15890.0 0.00010336
15910.0 0.00010312
15930.0 0.00010287
15950.0 0.00010261
15970.0 0.00010235
15990.0 0.0001021
16010.0 0.00010184
16030.0 0.00010157
16050.0 0.00010132
16070.0 0.00010106
16090.0 0.00010079
16110.0 0.00010053
16130.0 0.00010028
16150.0 9.9998e-05
16170.0 9.9725e-05
16190.0 9.9462e-05
16210.0 9.919e-05
16230.0 9.8909e-05
16250.0 9.8637e-05
16270.0 9.8368e-05
16290.0 9.8084e-05
16310.0 9.7801e-05
16330.0 9.7526e-05
16350.0 9.7242e-05
16370.0 9.6942e-05
16390.0 9.666e-05
16410.0 9.6376e-05
16430.0 9.608e-05
16450.0 9.5785e-05
16470.0 9.55e-05
16490.0 9.52e-05
16510.0 9.4894e-05
16530.0 9.4597e-05
16550.0 9.4299e-05
16570.0 9.3985e-05
16590.0 9.3674e-05
16610.0 9.3376e-05
16630.0 9.3064e-05
16650.0 9.2746e-05
16670.0 9.2438e-05
16690.0 9.2127e-05
16710.0 9.1797e-05
16730.0 9.1476e-05
16750.0 9.116e-05
16770.0 9.0834e-05
16790.0 9.0499e-05
16810.0 9.0179e-05
16830.0 8.9854e-05
16850.0 8.9515e-05
16870.0 8.9182e-05
16890.0 8.8855e-05
16910.0 8.8511e-05
16930.0 8.8162e-05
16950.0 8.7828e-05
16970.0 8.7488e-05
16990.0 8.7137e-05
17010.0 8.6791e-05
17030.0 8.6453e-05
17050.0 8.6097e-05
17070.0 8.5741e-05
17090.0 8.5393e-05
17110.0 8.504e-05
17130.0 8.4671e-05
17150.0 8.4315e-05
17170.0 8.3963e-05
17190.0 8.3598e-05
17210.0 8.3231e-05
17230.0 8.2875e-05
17250.0 8.251e-05
17270.0 8.2132e-05
17290.0 8.1765e-05
17310.0 8.14e-05
17330.0 8.1023e-05
17350.0 8.0643e-05
17370.0 8.0278e-05
17390.0 7.9904e-05
17410.0 7.9521e-05
17430.0 7.9146e-05
17450.0 7.8775e-05
17470.0 7.8383e-05
17490.0 7.7997e-05
17510.0 7.7621e-05
17530.0 7.7237e-05
17550.0 7.6845e-05
17570.0 7.6464e-05
17590.0 7.6084e-05
17610.0 7.569e-05
17630.0 7.5299e-05
17650.0 7.4917e-05
17670.0 7.4526e-05
17690.0 7.412e-05
17710.0 7.3735e-05
17730.0 7.3348e-05
17750.0 7.2949e-05
17770.0 7.2554e-05
17790.0 7.217e-05
17810.0 7.177e-05
17830.0 7.1368e-05
17850.0 7.0976e-05
17870.0 7.0583e-05
17890.0 7.0177e-05
17910.0 6.9776e-05
17930.0 6.9388e-05
17950.0 6.8988e-05
17970.0 6.8585e-05
17990.0 6.8192e-05
18010.0 6.7798e-05
18030.0 6.7387e-05
18050.0 6.6987e-05
18070.0 6.6594e-05
18090.0 6.6192e-05
18110.0 6.5785e-05
18130.0 6.5393e-05
18150.0 6.4997e-05
18170.0 6.4591e-05
18190.0 6.4192e-05
18210.0 6.38e-05
18230.0 6.3394e-05
18250.0 6.2986e-05
18270.0 6.2594e-05
18290.0 6.2197e-05
18310.0 6.1792e-05
18330.0 6.1396e-05
18350.0 6.1007e-05
18370.0 6.0603e-05
18390.0 6.0201e-05
18410.0 5.981e-05
18430.0 5.9415e-05
18450.0 5.9007e-05
18470.0 5.8614e-05
18490.0 5.8226e-05
18510.0 5.7827e-05
18530.0 5.743e-05
18550.0 5.7045e-05
18570.0 5.6652e-05
18590.0 5.625e-05
18610.0 5.586e-05
18630.0 5.5474e-05
18650.0 5.5078e-05
18670.0 5.4683e-05
18690.0 5.4303e-05
18710.0 5.3915e-05
18730.0 5.3522e-05
18750.0 5.3139e-05
18770.0 5.276e-05
18790.0 5.2364e-05
18810.0 5.1977e-05
18830.0 5.16e-05
18850.0 5.1217e-05
18870.0 5.0829e-05
18890.0 5.0453e-05
18910.0 5.0079e-05
18930.0 4.9694e-05
18950.0 4.9314e-05
18970.0 4.8944e-05
18990.0 4.8567e-05
19010.0 4.8179e-05
19030.0 4.7812e-05
19050.0 4.7444e-05
19070.0 4.7067e-05
19090.0 4.6696e-05
19110.0 4.6335e-05
19130.0 4.5962e-05
19150.0 4.5588e-05
19170.0 4.5226e-05
19190.0 4.4864e-05
19210.0 4.4491e-05
19230.0 4.4126e-05
19250.0 4.3773e-05
19270.0 4.341e-05
19290.0 4.3047e-05
19310.0 4.2694e-05
19330.0 4.234e-05
19350.0 4.1973e-05
19370.0 4.1619e-05
19390.0 4.1271e-05
19410.0 4.0915e-05
19430.0 4.0558e-05
19450.0 4.0215e-05
19470.0 3.9869e-05
19490.0 3.9515e-05
19510.0 3.9169e-05
19530.0 3.8831e-05
19550.0 3.848e-05
19570.0 3.813e-05
19590.0 3.7795e-05
19610.0 3.7456e-05
19630.0 3.7111e-05
19650.0 3.6776e-05
19670.0 3.6447e-05
19690.0 3.6105e-05
19710.0 3.5767e-05
19730.0 3.544e-05
19750.0 3.5108e-05
19770.0 3.4768e-05
19790.0 3.4441e-05
19810.0 3.4119e-05
19830.0 3.3787e-05
19850.0 3.3457e-05
19870.0 3.3135e-05
19890.0 3.2799e-05
19910.0 3.2446e-05
19930.0 3.2086e-05
19950.0 3.1702e-05
19970.0 3.1268e-05
19990.0 3.0786e-05
20010.0 3.0736e-05
20030.0 3.0149e-05
20050.0 2.9503e-05
20070.0 2.8837e-05
20090.0 2.8152e-05
20110.0 2.7416e-05
20130.0 2.6701e-05
20150.0 2.602e-05
20170.0 2.534e-05
20190.0 2.4677e-05
20210.0 2.4069e-05
20230.0 2.3495e-05
20250.0 2.2937e-05
20270.0 2.2434e-05
20290.0 2.1985e-05
20310.0 2.1571e-05
20330.0 2.1197e-05
20350.0 2.0896e-05
20370.0 2.064e-05
20390.0 2.043e-05
20410.0 2.0275e-05
20430.0 2.0172e-05
20450.0 2.0114e-05
20470.0 2.0105e-05
20490.0 2.014e-05
20510.0 2.0216e-05
20530.0 2.0334e-05
20550.0 2.0484e-05
20570.0 2.0657e-05
20590.0 2.0863e-05
20610.0 2.1092e-05
20630.0 2.133e-05
20650.0 2.1584e-05
20670.0 2.1863e-05
20690.0 2.2136e-05
20710.0 2.2408e-05
20730.0 2.2692e-05
20750.0 2.2978e-05
20770.0 2.325e-05
20790.0 2.3527e-05
20810.0 2.3813e-05
20830.0 2.4091e-05
20850.0 2.4365e-05
20870.0 2.4657e-05
20890.0 2.4952e-05
20910.0 2.5237e-05
20930.0 2.5534e-05
20950.0 2.5845e-05
20970.0 2.615e-05
20990.0 2.6454e-05
21010.0 2.6779e-05
21030.0 2.7098e-05
21050.0 2.7404e-05
21070.0 2.771e-05
21090.0 2.8019e-05
21110.0 2.8298e-05
21130.0 2.8559e-05
21150.0 2.8812e-05
21170.0 2.904e-05
21190.0 2.9235e-05
21210.0 2.9411e-05
21230.0 2.9561e-05
21250.0 2.9672e-05
21270.0 2.9752e-05
21290.0 2.9799e-05
21310.0 2.9809e-05
21330.0 2.9782e-05
21350.0 2.9717e-05
21370.0 2.9612e-05
21390.0 2.9469e-05
21410.0 2.9289e-05
21430.0 2.9056e-05
21450.0 2.8789e-05
21470.0 2.8492e-05
21490.0 2.8152e-05
21510.0 2.7773e-05
21530.0 2.7379e-05
21550.0 2.696e-05
21570.0 2.6505e-05
21590.0 2.6047e-05
21610.0 2.5593e-05
21630.0 2.5127e-05
21650.0 2.4657e-05
21670.0 2.4234e-05
21690.0 2.3827e-05
21710.0 2.344e-05
21730.0 2.3099e-05
21750.0 2.2809e-05
21770.0 2.255e-05
21790.0 2.2348e-05
21810.0 2.2206e-05
21830.0 2.2117e-05
21850.0 2.2086e-05
21870.0 2.2113e-05
21890.0 2.2191e-05
21910.0 2.2327e-05
21930.0 2.2515e-05
21950.0 2.2744e-05
21970.0 2.3019e-05
21990.0 2.3351e-05
22010.0 2.3705e-05
22030.0 2.4084e-05
22050.0 2.4503e-05
22070.0 2.4945e-05
22090.0 2.5383e-05
22110.0 2.5843e-05
22130.0 2.632e-05
22150.0 2.6783e-05
22170.0 2.7234e-05
22190.0 2.7693e-05
22210.0 2.8131e-05
22230.0 2.8524e-05
22250.0 2.8899e-05
22270.0 2.9245e-05
22290.0 2.9541e-05
22310.0 2.979e-05
22330.0 3.0002e-05
22350.0 3.0156e-05
22370.0 3.0251e-05
22390.0 3.029e-05
22410.0 3.0267e-05
22430.0 3.0184e-05
22450.0 3.0043e-05
22470.0 2.9836e-05
22490.0 2.957e-05
22510.0 2.9257e-05
22530.0 2.8875e-05
22550.0 2.8429e-05
22570.0 2.7951e-05
22590.0 2.7427e-05
22610.0 2.6839e-05
22630.0 2.6218e-05
22650.0 2.5589e-05
22670.0 2.4906e-05
22690.0 2.4187e-05
22710.0 2.3473e-05
22730.0 2.2745e-05
