#lamb flux
1010.0 7.7576e-05
1030.0 8.557e-05
1050.0 9.3351e-05
1070.0 0.00010212
1090.0 0.0001125
1110.0 0.00012309
1130.0 0.00013371
1150.0 0.00014485
1170.0 0.00015638
1190.0 0.00016746
1210.0 0.00017887
1230.0 0.00019091
1250.0 0.00020294
1270.0 0.00021502
1290.0 0.00022814
1310.0 0.00024169
1330.0 0.00025519
1350.0 0.00026922
1370.0 0.00028398
1390.0 0.00029873
1410.0 0.00031333
1430.0 0.00032859
1450.0 0.00034389
1470.0 0.00035871
1490.0 0.00037351
1510.0 0.0003888
1530.0 0.00040308
1550.0 0.00041681
1570.0 0.00043054
1590.0 0.00044378
1610.0 0.00045586
1630.0 0.00046757
1650.0 0.00047898
1670.0 0.00048931
1690.0 0.0004988
1710.0 0.00050811
1730.0 0.00051685
1750.0 0.00052423
1770.0 0.00053143
1790.0 0.00053841
1810.0 0.00054463
1830.0 0.0005504
1850.0 0.00055674
1870.0 0.00056276
1890.0 0.00056853
1910.0 0.00057479
1930.0 0.00058172
1950.0 0.00058864
1970.0 0.00059602
1990.0 0.00060447
2010.0 0.00061344
2030.0 0.00062272
2050.0 0.00063299
2070.0 0.00064416
2090.0 0.00065522
2110.0 0.00066667
2130.0 0.00067872
2150.0 0.0006907
2170.0 0.00070219
2190.0 0.00071391
2210.0 0.00072537
2230.0 0.00073593
2250.0 0.00074584
2270.0 0.00075553
2290.0 0.00076406
2310.0 0.00077128
2330.0 0.00077789
2350.0 0.00078361
2370.0 0.00078788
2390.0 0.00079122
2410.0 0.00079398
2430.0 0.00079532
2450.0 0.0007953
2470.0 0.00079441
2490.0 0.00079259
2510.0 0.00078978
2530.0 0.00078796
2550.0 0.00079011
2570.0 0.00079965
2590.0 0.00082069
2610.0 0.0008628
2630.0 0.00092907
2650.0 0.0010157
2670.0 0.0011238
2690.0 0.0012484
2710.0 0.0013689
2730.0 0.0014729
2750.0 0.0015565
2770.0 0.0016024
2790.0 0.0016058
2810.0 0.0015686
2830.0 0.0014894
2850.0 0.0013803
2870.0 0.0012486
2890.0 0.0010957
2910.0 0.00093087
2930.0 0.00076441
2950.0 0.00058781
2970.0 0.00040393
2990.0 0.00022194
3010.0 9.5503e-05
3030.0 9.5503e-05
3050.0 9.5503e-05
3070.0 9.5503e-05
3090.0 9.5503e-05
3110.0 9.5503e-05
3130.0 9.5503e-05
3150.0 9.5503e-05
3170.0 9.5503e-05
3190.0 9.5503e-05
3210.0 0.0016462
3230.0 0.0069579
3250.0 0.010208
3270.0 0.0090136
3290.0 0.0070234
3310.0 0.0053852
3330.0 0.0050422
3350.0 0.0054009
3370.0 0.005986
3390.0 0.0066032
3410.0 0.0072599
3430.0 0.0081256
3450.0 0.0089387
3470.0 0.0097744
3490.0 0.0098802
3510.0 0.0083123
3530.0 0.0075049
3550.0 0.0093596
3570.0 0.011573
3590.0 0.012866
3610.0 0.013186
3630.0 0.014614
3650.0 0.014923
3670.0 0.015476
3690.0 0.017417
3710.0 0.019147
3730.0 0.020477
3750.0 0.021067
3770.0 0.021304
3790.0 0.020688
3810.0 0.019278
3830.0 0.017297
3850.0 0.012342
3870.0 0.011434
3890.0 0.012977
3910.0 0.017491
3930.0 0.022401
3950.0 0.02434
3970.0 0.025443
3990.0 0.028458
4010.0 0.028665
4030.0 0.025764
4050.0 0.018778
4070.0 0.015947
4090.0 0.019379
4110.0 0.021203
4130.0 0.022921
4150.0 0.02271
4170.0 0.021599
4190.0 0.020138
4210.0 0.02281
4230.0 0.024586
4250.0 0.026394
4270.0 0.026042
4290.0 0.025065
4310.0 0.025548
4330.0 0.028972
4350.0 0.032002
4370.0 0.032564
4390.0 0.03034
4410.0 0.027264
4430.0 0.021602
4450.0 0.01742
4470.0 0.017628
4490.0 0.019922
4510.0 0.021328
4530.0 0.021651
4550.0 0.022236
4570.0 0.030172
4590.0 0.043714
4610.0 0.051902
4630.0 0.054223
4650.0 0.05973
4670.0 0.068896
4690.0 0.072229
4710.0 0.061897
4730.0 0.047766
4750.0 0.037042
4770.0 0.031062
4790.0 0.027921
4810.0 0.026619
4830.0 0.02928
4850.0 0.035209
4870.0 0.03933
4890.0 0.04048
4910.0 0.039843
4930.0 0.044051
4950.0 0.052067
4970.0 0.058007
4990.0 0.058615
5010.0 0.053211
5030.0 0.043917
5050.0 0.034805
5070.0 0.028909
5090.0 0.026728
5110.0 0.026673
5130.0 0.027086
5150.0 0.02673
5170.0 0.025034
5190.0 0.023831
5210.0 0.024255
5230.0 0.027551
5250.0 0.033322
5270.0 0.039485
5290.0 0.043666
5310.0 0.046801
5330.0 0.051772
5350.0 0.056403
5370.0 0.056427
5390.0 0.051228
5410.0 0.046196
5430.0 0.04612
5450.0 0.053095
5470.0 0.063143
5490.0 0.070892
5510.0 0.073735
5530.0 0.072379
5550.0 0.069126
5570.0 0.065967
5590.0 0.062852
5610.0 0.060836
5630.0 0.06031
5650.0 0.059926
5670.0 0.056949
5690.0 0.050593
5710.0 0.043548
5730.0 0.03923
5750.0 0.037749
5770.0 0.038484
5790.0 0.039304
5810.0 0.039731
5830.0 0.039545
5850.0 0.037778
5870.0 0.035787
5890.0 0.035089
5910.0 0.035787
5930.0 0.035894
5950.0 0.033261
5970.0 0.028742
5990.0 0.023276
6010.0 0.019092
6030.0 0.018038
6050.0 0.019574
6070.0 0.020618
6090.0 0.019353
6110.0 0.017401
6130.0 0.017956
6150.0 0.020538
6170.0 0.022981
6190.0 0.024564
6210.0 0.025044
6230.0 0.024694
6250.0 0.022458
6270.0 0.018739
6290.0 0.015576
6310.0 0.014132
6330.0 0.014081
6350.0 0.014398
6370.0 0.014989
6390.0 0.017246
6410.0 0.021237
6430.0 0.025082
6450.0 0.027131
6470.0 0.027862
6490.0 0.028103
6510.0 0.028444
6530.0 0.028859
6550.0 0.029047
6570.0 0.029967
6590.0 0.030787
6610.0 0.030965
6630.0 0.029846
6650.0 0.027588
6670.0 0.025285
6690.0 0.023587
6710.0 0.022533
6730.0 0.021767
6750.0 0.021603
6770.0 0.022196
6790.0 0.023047
6810.0 0.023522
6830.0 0.02314
6850.0 0.021935
6870.0 0.020623
6890.0 0.02013
6910.0 0.019966
6930.0 0.020577
6950.0 0.021363
6970.0 0.021864
6990.0 0.022069
7010.0 0.02135
7030.0 0.019644
7050.0 0.017503
7070.0 0.016003
7090.0 0.015529
7110.0 0.015562
7130.0 0.01482
7150.0 0.01319
7170.0 0.012726
7190.0 0.014145
7210.0 0.016442
7230.0 0.018565
7250.0 0.019347
7270.0 0.018927
7290.0 0.017636
7310.0 0.016522
7330.0 0.016189
7350.0 0.016374
7370.0 0.016647
7390.0 0.017486
7410.0 0.019368
7430.0 0.021934
7450.0 0.024182
7470.0 0.025043
7490.0 0.024014
7510.0 0.022293
7530.0 0.020618
7550.0 0.01932
7570.0 0.017859
7590.0 0.01717
7610.0 0.017485
7630.0 0.018623
7650.0 0.020423
7670.0 0.022498
7690.0 0.024252
7710.0 0.025776
7730.0 0.027201
7750.0 0.028401
7770.0 0.028599
7790.0 0.029058
7810.0 0.029413
7830.0 0.028912
7850.0 0.028069
7870.0 0.027604
7890.0 0.028069
7910.0 0.028034
7930.0 0.027605
7950.0 0.026525
7970.0 0.025733
7990.0 0.024878
8010.0 0.024508
8030.0 0.024767
8050.0 0.024937
8070.0 0.024728
8090.0 0.024632
8110.0 0.024105
8130.0 0.02422
8150.0 0.024098
8170.0 0.023669
8190.0 0.023173
8210.0 0.022876
8230.0 0.022414
8250.0 0.022248
8270.0 0.02067
8290.0 0.017399
8310.0 0.013671
8330.0 0.011118
8350.0 0.010599
8370.0 0.012352
8390.0 0.014683
8410.0 0.015772
8430.0 0.016226
8450.0 0.017253
8470.0 0.018701
8490.0 0.020946
8510.0 0.023743
8530.0 0.026854
8550.0 0.029515
8570.0 0.031598
8590.0 0.033197
8610.0 0.03408
8630.0 0.034052
8650.0 0.033663
8670.0 0.033794
8690.0 0.035742
8710.0 0.038371
8730.0 0.039925
8750.0 0.039881
8770.0 0.040555
8790.0 0.040642
8810.0 0.038577
8830.0 0.036104
8850.0 0.03288
8870.0 0.03035
8890.0 0.029652
8910.0 0.029543
8930.0 0.027867
8950.0 0.025884
8970.0 0.025083
8990.0 0.025073
9010.0 0.024344
9030.0 0.02383
9050.0 0.02361
9070.0 0.023504
9090.0 0.023414
9110.0 0.023327
9130.0 0.02324
9150.0 0.023155
9170.0 0.023064
9190.0 0.022998
9210.0 0.02299
9230.0 0.022874
9250.0 0.022775
9270.0 0.022685
9290.0 0.022602
9310.0 0.022522
9330.0 0.022444
9350.0 0.022372
9370.0 0.0223
9390.0 0.022227
9410.0 0.022157
9430.0 0.022084
9450.0 0.02198
9470.0 0.021887
9490.0 0.021853
9510.0 0.021803
9530.0 0.021748
9550.0 0.021691
9570.0 0.021631
9590.0 0.021571
9610.0 0.02151
9630.0 0.02145
9650.0 0.02139
9670.0 0.021331
9690.0 0.021272
9710.0 0.021213
9730.0 0.021155
9750.0 0.021097
9770.0 0.021039
9790.0 0.020982
9810.0 0.020925
9830.0 0.020868
9850.0 0.02081
9870.0 0.020754
9890.0 0.020697
9910.0 0.020639
9930.0 0.02058
9950.0 0.020399
9970.0 0.020377
9990.0 0.020347
10010.0 0.020315
10030.0 0.020271
10050.0 0.020218
10070.0 0.020164
10090.0 0.020109
10110.0 0.020043
10130.0 0.019972
10150.0 0.019912
10170.0 0.01985
10190.0 0.019781
10210.0 0.019716
10230.0 0.019653
10250.0 0.019581
10270.0 0.019509
10290.0 0.019442
10310.0 0.019367
10330.0 0.019286
10350.0 0.019211
10370.0 0.019136
10390.0 0.019052
10410.0 0.018968
10430.0 0.01889
10450.0 0.018804
10470.0 0.018712
10490.0 0.018625
10510.0 0.018537
10530.0 0.018436
10550.0 0.018338
10570.0 0.018245
10590.0 0.018143
10610.0 0.018037
10630.0 0.017935
10650.0 0.017831
10670.0 0.017716
10690.0 0.017602
10710.0 0.017491
10730.0 0.017372
10750.0 0.017245
10770.0 0.017127
10790.0 0.017004
10810.0 0.016872
10830.0 0.016741
10850.0 0.016615
10870.0 0.016473
10890.0 0.016329
10910.0 0.016189
10930.0 0.016044
10950.0 0.015886
10970.0 0.015729
10990.0 0.015575
11010.0 0.016846
11030.0 0.016669
11050.0 0.016496
11070.0 0.01632
11090.0 0.01613
11110.0 0.015954
11130.0 0.015782
11150.0 0.015604
11170.0 0.015427
11190.0 0.015261
11210.0 0.015091
11230.0 0.014916
11250.0 0.014749
11270.0 0.014586
11290.0 0.014417
11310.0 0.014248
11330.0 0.014092
11350.0 0.013931
11370.0 0.013766
11390.0 0.013605
11410.0 0.013444
11430.0 0.013268
11450.0 0.013089
11470.0 0.012908
11490.0 0.012714
11510.0 0.012503
11530.0 0.01229
11550.0 0.01207
11570.0 0.011831
11590.0 0.011585
11610.0 0.01134
11630.0 0.011081
11650.0 0.010812
11670.0 0.010553
11690.0 0.010295
11710.0 0.01003
11730.0 0.009772
11750.0 0.0095282
11770.0 0.0092809
11790.0 0.009037
11810.0 0.0088069
11830.0 0.0085834
11850.0 0.0083557
11870.0 0.0081408
11890.0 0.0079382
11910.0 0.0077358
11930.0 0.0075374
11950.0 0.0073519
11970.0 0.007171
11990.0 0.00699
12010.0 0.0068204
12030.0 0.0066613
12050.0 0.006506
12070.0 0.006357
12090.0 0.006225
12110.0 0.0061011
12130.0 0.0059855
12150.0 0.0058838
12170.0 0.005796
12190.0 0.0057176
12210.0 0.005654
12230.0 0.0056053
12250.0 0.0055697
12270.0 0.0055482
12290.0 0.0055402
12310.0 0.0055436
12330.0 0.0055604
12350.0 0.0055886
12370.0 0.0056244
12390.0 0.0056694
12410.0 0.0057263
12430.0 0.0057847
12450.0 0.0058463
12470.0 0.0059142
12490.0 0.0059837
12510.0 0.0060489
12530.0 0.0061157
12550.0 0.0061819
12570.0 0.0062403
12590.0 0.0062915
12610.0 0.0063383
12630.0 0.0063748
12650.0 0.0063968
12670.0 0.0064086
12690.0 0.0064079
12710.0 0.0063923
12730.0 0.0063634
12750.0 0.0063206
12770.0 0.0062641
12790.0 0.0061963
12810.0 0.006117
12830.0 0.0060266
12850.0 0.0059311
12870.0 0.0058306
12890.0 0.0057235
12910.0 0.0056152
12930.0 0.0055088
12950.0 0.0054003
12970.0 0.0052921
12990.0 0.0051902
13010.0 0.0050912
13030.0 0.0049933
13050.0 0.0049
13070.0 0.0048123
13090.0 0.0047252
13110.0 0.0046405
13130.0 0.0045604
13150.0 0.0044824
13170.0 0.0044039
13190.0 0.0043293
13210.0 0.0042581
13230.0 0.0041872
13250.0 0.0041181
13270.0 0.0040531
13290.0 0.00399
13310.0 0.0039282
13330.0 0.0038709
13350.0 0.0038179
13370.0 0.0037679
13390.0 0.0037216
13410.0 0.0036812
13430.0 0.0036444
13450.0 0.0036111
13470.0 0.0035816
13490.0 0.0035552
13510.0 0.0035303
13530.0 0.0035069
13550.0 0.0034841
13570.0 0.0034609
13590.0 0.0034363
13610.0 0.0034104
13630.0 0.003383
13650.0 0.0033528
13670.0 0.0033205
13690.0 0.0032872
13710.0 0.0032522
13730.0 0.0032149
13750.0 0.0031787
13770.0 0.003143
13790.0 0.0031073
13810.0 0.003073
13830.0 0.0030414
13850.0 0.003011
13870.0 0.0029823
13890.0 0.0029564
13910.0 0.0029326
13930.0 0.00291
13950.0 0.0028891
13970.0 0.00287
13990.0 0.0028513
14010.0 0.0028327
14030.0 0.0028145
14050.0 0.002796
14070.0 0.0027759
14090.0 0.0027551
14110.0 0.0027336
14130.0 0.0027104
14150.0 0.0026853
14170.0 0.0026602
14190.0 0.0026341
14210.0 0.0026066
14230.0 0.0025794
14250.0 0.0025531
14270.0 0.0025266
14290.0 0.002501
14310.0 0.0024783
14330.0 0.0024575
14350.0 0.0024385
14370.0 0.0024226
14390.0 0.0024098
14410.0 0.0023991
14430.0 0.002391
14450.0 0.0023855
14470.0 0.0023819
14490.0 0.0023799
14510.0 0.0023795
14530.0 0.0023804
14550.0 0.0023823
14570.0 0.0023853
14590.0 0.0023895
14610.0 0.002395
14630.0 0.0024025
14650.0 0.002412
14670.0 0.0024239
14690.0 0.0024391
14710.0 0.0024581
14730.0 0.0024798
14750.0 0.002506
14770.0 0.0025372
14790.0 0.0025724
14810.0 0.0026114
14830.0 0.002658
14850.0 0.0027094
14870.0 0.002764
14890.0 0.0028239
14910.0 0.002889
14930.0 0.0029536
14950.0 0.0030165
14970.0 0.0030785
14990.0 0.0031339
15010.0 0.0031803
15030.0 0.0032191
15050.0 0.0032504
15070.0 0.0032733
15090.0 0.0032911
15110.0 0.0033056
15130.0 0.0033178
15150.0 0.0033289
15170.0 0.0033396
15190.0 0.0033501
15210.0 0.0033607
15230.0 0.0033716
15250.0 0.0033825
15270.0 0.0033937
15290.0 0.0034052
15310.0 0.0034168
15330.0 0.0034287
15350.0 0.0034407
15370.0 0.003453
15390.0 0.0034654
15410.0 0.003478
15430.0 0.0034908
15450.0 0.0035038
15470.0 0.003517
15490.0 0.0035303
15510.0 0.0035439
15530.0 0.0035576
15550.0 0.0035714
15570.0 0.0035855
15590.0 0.0035996
15610.0 0.0036139
15630.0 0.0036284
15650.0 0.0036431
15670.0 0.0036578
15690.0 0.0036727
15710.0 0.0036878
15730.0 0.0037029
15750.0 0.0037182
15770.0 0.0037336
15790.0 0.0037492
15810.0 0.0037647
15830.0 0.0037805
15850.0 0.0037963
15870.0 0.0038122
15890.0 0.0038282
15910.0 0.0038443
15930.0 0.0038605
15950.0 0.0038767
15970.0 0.003893
15990.0 0.0039093
16010.0 0.0039257
16030.0 0.0039422
16050.0 0.0039587
16070.0 0.0039753
16090.0 0.0039918
16110.0 0.0040084
16130.0 0.0040251
16150.0 0.0040417
16170.0 0.0040583
16190.0 0.0040749
16210.0 0.0040916
16230.0 0.0041082
16250.0 0.0041248
16270.0 0.0041414
16290.0 0.0041579
16310.0 0.0041744
16330.0 0.0041909
16350.0 0.0042073
16370.0 0.0042237
16390.0 0.00424
16410.0 0.0042562
16430.0 0.0042723
16450.0 0.0042884
16470.0 0.0043044
16490.0 0.0043203
16510.0 0.004336
16530.0 0.0043517
16550.0 0.0043673
16570.0 0.0043826
16590.0 0.0043979
16610.0 0.0044131
16630.0 0.0044281
16650.0 0.0044429
16670.0 0.0044577
16690.0 0.0044722
16710.0 0.0044865
16730.0 0.0045007
16750.0 0.0045147
16770.0 0.0045285
16790.0 0.0045421
16810.0 0.0045555
16830.0 0.0045687
16850.0 0.0045817
16870.0 0.0045944
16890.0 0.004607
16910.0 0.0046192
16930.0 0.0046312
16950.0 0.0046431
16970.0 0.0046546
16990.0 0.0046659
17010.0 0.0046769
17030.0 0.0046876
17050.0 0.0046981
17070.0 0.0047083
17090.0 0.0047182
17110.0 0.0047278
17130.0 0.004737
17150.0 0.004746
17170.0 0.0047548
17190.0 0.0047631
17210.0 0.0047712
17230.0 0.0047789
17250.0 0.0047864
17270.0 0.0047934
17290.0 0.0048002
17310.0 0.0048066
17330.0 0.0048127
17350.0 0.0048184
17370.0 0.0048238
17390.0 0.0048288
17410.0 0.0048335
17430.0 0.0048378
17450.0 0.0048418
17470.0 0.0048453
17490.0 0.0048485
17510.0 0.0048514
17530.0 0.0048539
17550.0 0.004856
17570.0 0.0048577
17590.0 0.0048591
17610.0 0.0048601
17630.0 0.0048607
17650.0 0.004861
17670.0 0.0048608
17690.0 0.0048603
17710.0 0.0048594
17730.0 0.0048581
17750.0 0.0048564
17770.0 0.0048544
17790.0 0.004852
17810.0 0.0048492
17830.0 0.004846
17850.0 0.0048424
17870.0 0.0048385
17890.0 0.0048342
17910.0 0.0048295
17930.0 0.0048244
17950.0 0.004819
17970.0 0.0048132
17990.0 0.004807
18010.0 0.0048005
18030.0 0.0047936
18050.0 0.0047863
18070.0 0.0047787
18090.0 0.0047707
18110.0 0.0047624
18130.0 0.0047537
18150.0 0.0047447
18170.0 0.0047353
18190.0 0.0047256
18210.0 0.0047156
18230.0 0.0047052
18250.0 0.0046945
18270.0 0.0046835
18290.0 0.0046722
18310.0 0.0046605
18330.0 0.0046485
18350.0 0.0046363
18370.0 0.0046236
18390.0 0.0046108
18410.0 0.0045976
18430.0 0.0045841
18450.0 0.0045704
18470.0 0.0045563
18490.0 0.0045421
18510.0 0.0045275
18530.0 0.0045126
18550.0 0.0044976
18570.0 0.0044823
18590.0 0.0044666
18610.0 0.0044508
18630.0 0.0044348
18650.0 0.0044185
18670.0 0.0044019
18690.0 0.0043852
18710.0 0.0043683
18730.0 0.0043511
18750.0 0.0043337
18770.0 0.0043162
18790.0 0.0042984
18810.0 0.0042805
18830.0 0.0042624
18850.0 0.0042441
18870.0 0.0042256
18890.0 0.004207
18910.0 0.0041883
18930.0 0.0041693
18950.0 0.0041502
18970.0 0.0041311
18990.0 0.0041117
19010.0 0.0040922
19030.0 0.0040726
19050.0 0.004053
19070.0 0.0040331
19090.0 0.0040132
19110.0 0.0039932
19130.0 0.0039731
19150.0 0.0039529
19170.0 0.0039326
19190.0 0.0039122
19210.0 0.0038918
19230.0 0.0038713
19250.0 0.0038508
19270.0 0.0038301
19290.0 0.0038095
19310.0 0.0037888
19330.0 0.003768
19350.0 0.0037472
19370.0 0.0037264
19390.0 0.0037055
19410.0 0.0036847
19430.0 0.0036638
19450.0 0.0036429
19470.0 0.003622
19490.0 0.0036011
19510.0 0.0035801
19530.0 0.0035593
19550.0 0.0035383
19570.0 0.0035174
19590.0 0.0034966
19610.0 0.0034758
19630.0 0.0034549
19650.0 0.0034341
19670.0 0.0034134
19690.0 0.0033927
19710.0 0.003372
19730.0 0.0033514
19750.0 0.0033308
19770.0 0.0033102
19790.0 0.0032898
19810.0 0.0032693
19830.0 0.0032489
19850.0 0.0032283
19870.0 0.0032076
19890.0 0.0031862
19910.0 0.0031636
19930.0 0.0031393
19950.0 0.0031123
19970.0 0.003081
19990.0 0.0030445
20010.0 0.0030037
20030.0 0.0029567
20050.0 0.0029039
20070.0 0.002848
20090.0 0.0027896
20110.0 0.0027267
20130.0 0.0026645
20150.0 0.0026041
20170.0 0.0025434
20190.0 0.0024834
20210.0 0.002427
20230.0 0.0023724
20250.0 0.0023183
20270.0 0.0022675
20290.0 0.0022199
20310.0 0.0021737
20330.0 0.0021291
20350.0 0.002089
20370.0 0.0020509
20390.0 0.0020144
20410.0 0.0019807
20430.0 0.0019499
20450.0 0.0019203
20470.0 0.0018928
20490.0 0.0018679
20510.0 0.0018447
20530.0 0.0018229
20550.0 0.001803
20570.0 0.0017849
20590.0 0.0017679
20610.0 0.0017521
20630.0 0.0017377
20650.0 0.0017241
20670.0 0.0017113
20690.0 0.0016993
20710.0 0.0016879
20730.0 0.0016768
20750.0 0.0016661
20770.0 0.0016555
20790.0 0.001645
20810.0 0.0016343
20830.0 0.0016236
20850.0 0.0016126
20870.0 0.0016012
20890.0 0.0015895
20910.0 0.0015774
20930.0 0.0015649
20950.0 0.0015518
20970.0 0.0015385
20990.0 0.0015247
21010.0 0.0015103
21030.0 0.0014956
21050.0 0.0014808
21070.0 0.0014655
21090.0 0.0014497
21110.0 0.001434
21130.0 0.0014183
21150.0 0.0014022
21170.0 0.0013861
21190.0 0.0013702
21210.0 0.0013542
21230.0 0.0013379
21250.0 0.0013222
21270.0 0.0013067
21290.0 0.0012911
21310.0 0.0012757
21330.0 0.0012611
21350.0 0.0012465
21370.0 0.0012321
21390.0 0.0012184
21410.0 0.0012052
21430.0 0.0011921
21450.0 0.0011797
21470.0 0.0011681
21490.0 0.0011569
21510.0 0.0011462
21530.0 0.0011364
21550.0 0.0011271
21570.0 0.0011184
21590.0 0.0011104
21610.0 0.001103
21630.0 0.0010961
21650.0 0.0010899
21670.0 0.0010842
21690.0 0.001079
21710.0 0.0010743
21730.0 0.00107
21750.0 0.001066
21770.0 0.0010625
21790.0 0.0010592
21810.0 0.0010561
21830.0 0.0010531
21850.0 0.0010504
21870.0 0.0010477
21890.0 0.0010449
21910.0 0.0010422
21930.0 0.0010395
21950.0 0.0010365
21970.0 0.0010335
21990.0 0.0010304
22010.0 0.001027
22030.0 0.0010234
22050.0 0.0010197
22070.0 0.0010157
22090.0 0.0010115
22110.0 0.0010071
22130.0 0.0010026
22150.0 0.0009978
22170.0 0.00099289
22190.0 0.00098779
22210.0 0.00098254
22230.0 0.00097718
22250.0 0.00097166
22270.0 0.00096595
22290.0 0.00096013
22310.0 0.00095414
22330.0 0.00094782
22350.0 0.00094128
22370.0 0.00093452
22390.0 0.00092736
22410.0 0.00091968
22430.0 0.00091176
22450.0 0.00090341
22470.0 0.00089439
22490.0 0.0008849
22510.0 0.00087512
22530.0 0.00086455
22550.0 0.00085331
22570.0 0.00084194
22590.0 0.00083017
22610.0 0.00081774
22630.0 0.00080514
22650.0 0.00079276
22670.0 0.00077991
22690.0 0.00076695
22710.0 0.00075442
22730.0 0.00074209
22750.0 0.00072947
22770.0 0.00071759
22790.0 0.00070638
22810.0 0.00069537
22830.0 0.00068481
22850.0 0.00067513
22870.0 0.0006659
22890.0 0.000657
22910.0 0.00064885
22930.0 0.00064135
22950.0 0.00063418
22970.0 0.0006274
22990.0 0.00062133
23010.0 0.00061555
23030.0 0.00060998
23050.0 0.00060476
23070.0 0.00059983
23090.0 0.00059487
23110.0 0.00059005
23130.0 0.0005854
23150.0 0.00058074
23170.0 0.00057599
23190.0 0.00057133
23210.0 0.00056675
23230.0 0.00056206
23250.0 0.00055741
23270.0 0.00055293
23290.0 0.00054847
23310.0 0.00054401
23330.0 0.00053984
23350.0 0.00053587
23370.0 0.00053201
23390.0 0.00052835
23410.0 0.00052499
23430.0 0.00052176
23450.0 0.00051866
23470.0 0.00051577
23490.0 0.00051303
23510.0 0.00051035
23530.0 0.00050778
23550.0 0.00050535
23570.0 0.00050295
23590.0 0.00050061
23610.0 0.00049838
23630.0 0.00049624
23650.0 0.00049419
23670.0 0.00049231
23690.0 0.00049064
23710.0 0.00048922
23730.0 0.00048813
23750.0 0.0004874
23770.0 0.0004871
23790.0 0.00048735
23810.0 0.00048815
23830.0 0.00048949
23850.0 0.0004916
23870.0 0.00049451
23890.0 0.00049794
23910.0 0.00050206
23930.0 0.00050704
23950.0 0.00051254
23970.0 0.00051829
23990.0 0.00052476
24010.0 0.00053166
24030.0 0.00053851
24050.0 0.00054553
24070.0 0.00055305
