#lamb flux
1010.0 1.7474e-07
1030.0 1.9288e-07
1050.0 2.1373e-07
1070.0 2.3721e-07
1090.0 2.6387e-07
1110.0 2.9122e-07
1130.0 3.1875e-07
1150.0 3.4759e-07
1170.0 3.7733e-07
1190.0 4.0553e-07
1210.0 4.3412e-07
1230.0 4.6366e-07
1250.0 4.926e-07
1270.0 5.207e-07
1290.0 5.504e-07
1310.0 5.8008e-07
1330.0 6.0854e-07
1350.0 6.3732e-07
1370.0 6.6703e-07
1390.0 6.96e-07
1410.0 7.2411e-07
1430.0 7.535e-07
1450.0 7.8289e-07
1470.0 8.1129e-07
1490.0 8.4e-07
1510.0 8.7032e-07
1530.0 8.9906e-07
1550.0 9.2742e-07
1570.0 9.5676e-07
1590.0 9.8613e-07
1610.0 1.0142e-06
1630.0 1.0431e-06
1650.0 1.0729e-06
1670.0 1.1016e-06
1690.0 1.13e-06
1710.0 1.1596e-06
1730.0 1.1893e-06
1750.0 1.2172e-06
1770.0 1.246e-06
1790.0 1.2754e-06
1810.0 1.3039e-06
1830.0 1.3319e-06
1850.0 1.3617e-06
1870.0 1.3908e-06
1890.0 1.4189e-06
1910.0 1.4476e-06
1930.0 1.477e-06
1950.0 1.5052e-06
1970.0 1.533e-06
1990.0 1.562e-06
2010.0 1.5905e-06
2030.0 1.618e-06
2050.0 1.6465e-06
2070.0 1.6756e-06
2090.0 1.7032e-06
2110.0 1.7306e-06
2130.0 1.759e-06
2150.0 1.7868e-06
2170.0 1.8134e-06
2190.0 1.841e-06
2210.0 1.8688e-06
2230.0 1.8954e-06
2250.0 1.9219e-06
2270.0 1.9496e-06
2290.0 1.9764e-06
2310.0 2.0021e-06
2330.0 2.0288e-06
2350.0 2.0561e-06
2370.0 2.0833e-06
2390.0 2.1129e-06
2410.0 2.1481e-06
2430.0 2.1887e-06
2450.0 2.2376e-06
2470.0 2.3007e-06
2490.0 2.3805e-06
2510.0 2.4714e-06
2530.0 2.5811e-06
2550.0 2.7186e-06
2570.0 2.8898e-06
2590.0 3.1125e-06
2610.0 3.4457e-06
2630.0 3.9207e-06
2650.0 4.5407e-06
2670.0 5.3411e-06
2690.0 6.3232e-06
2710.0 7.3694e-06
2730.0 8.4009e-06
2750.0 9.4147e-06
2770.0 1.0294e-05
2790.0 1.0989e-05
2810.0 1.1537e-05
2830.0 1.1962e-05
2850.0 1.2249e-05
2870.0 1.2456e-05
2890.0 1.2617e-05
2910.0 1.2744e-05
2930.0 1.2846e-05
2950.0 1.2942e-05
2970.0 1.3037e-05
2990.0 1.3125e-05
3010.0 0.00037644
3030.0 0.00037895
3050.0 0.00038138
3070.0 0.00038342
3090.0 0.00038515
3110.0 0.00038613
3130.0 0.00038584
3150.0 0.00038389
3170.0 0.00037954
3190.0 0.00037287
3210.0 0.00036447
3230.0 0.00035488
3250.0 0.00034537
3270.0 0.0003384
3290.0 0.00033435
3310.0 0.00033476
3330.0 0.00033938
3350.0 0.0003476
3370.0 0.00035944
3390.0 0.00037442
3410.0 0.00039075
3430.0 0.00040911
3450.0 0.00043026
3470.0 0.00045338
3490.0 0.0004779
3510.0 0.00050564
3530.0 0.00053539
3550.0 0.00056564
3570.0 0.00059735
3590.0 0.00063188
3610.0 0.00066771
3630.0 0.00070337
3650.0 0.00074043
3670.0 0.0007742
3690.0 0.0007994
3710.0 0.00081367
3730.0 0.00081338
3750.0 0.00080053
3770.0 0.00079864
3790.0 0.00079364
3810.0 0.000761
3830.0 0.00078231
3850.0 0.00089583
3870.0 0.00094485
3890.0 0.0009204
3910.0 0.00091673
3930.0 0.00095158
3950.0 0.0009801
3970.0 0.00090811
3990.0 0.00076047
4010.0 0.0022223
4030.0 0.0026662
4050.0 0.0030561
4070.0 0.0026902
4090.0 0.0024421
4110.0 0.0021435
4130.0 0.0020124
4150.0 0.0021918
4170.0 0.0021127
4190.0 0.0022196
4210.0 0.0022221
4230.0 0.0023813
4250.0 0.0028248
4270.0 0.0028787
4290.0 0.0026375
4310.0 0.0027115
4330.0 0.0028635
4350.0 0.003247
4370.0 0.0037206
4390.0 0.0034366
4410.0 0.0024796
4430.0 0.0020757
4450.0 0.0019116
4470.0 0.0014419
4490.0 0.0016025
4510.0 0.0025161
4530.0 0.0029211
4550.0 0.0029163
4570.0 0.0032093
4590.0 0.003633
4610.0 0.0050894
4630.0 0.0066775
4650.0 0.0071361
4670.0 0.0065711
4690.0 0.0063027
4710.0 0.0066506
4730.0 0.0061995
4750.0 0.0045823
4770.0 0.0033356
4790.0 0.0031585
4810.0 0.0030425
4830.0 0.0028073
4850.0 0.0030749
4870.0 0.0040632
4890.0 0.0047815
4910.0 0.0041488
4930.0 0.0037078
4950.0 0.0040943
4970.0 0.005267
4990.0 0.0071367
5010.0 0.0082217
5030.0 0.0071803
5050.0 0.0048169
5070.0 0.0031969
5090.0 0.0025579
5110.0 0.0026063
5130.0 0.003023
5150.0 0.0032448
5170.0 0.0031828
5190.0 0.0029599
5210.0 0.0031143
5230.0 0.0033236
5250.0 0.0036106
5270.0 0.0038365
5290.0 0.0042381
5310.0 0.0050023
5330.0 0.0055259
5350.0 0.0054866
5370.0 0.0057991
5390.0 0.0067163
5410.0 0.0066068
5430.0 0.0057724
5450.0 0.0053489
5470.0 0.0057268
5490.0 0.0070082
5510.0 0.0087329
5530.0 0.010029
5550.0 0.0096313
5570.0 0.0087465
5590.0 0.007565
5610.0 0.0070385
5630.0 0.0069331
5650.0 0.0065726
5670.0 0.0062058
5690.0 0.0054906
5710.0 0.0053831
5730.0 0.004985
5750.0 0.0034329
5770.0 0.0026553
5790.0 0.0030307
5810.0 0.0033984
5830.0 0.004263
5850.0 0.0051271
5870.0 0.0056747
5890.0 0.005737
5910.0 0.0056259
5930.0 0.0053575
5950.0 0.0054644
5970.0 0.006287
5990.0 0.0058303
6010.0 0.0048499
6030.0 0.0040859
6050.0 0.0035668
6070.0 0.0036096
6090.0 0.0039263
6110.0 0.0043485
6130.0 0.004378
6150.0 0.0037361
6170.0 0.0032453
6190.0 0.0036703
6210.0 0.0049343
6230.0 0.0065619
6250.0 0.0071107
6270.0 0.0061306
6290.0 0.0051681
6310.0 0.0040253
6330.0 0.0030691
6350.0 0.0027632
6370.0 0.0029052
6390.0 0.0033679
6410.0 0.0041765
6430.0 0.004893
6450.0 0.0056413
6470.0 0.0063974
6490.0 0.0077168
6510.0 0.0086303
6530.0 0.0085112
6550.0 0.0077113
6570.0 0.0064942
6590.0 0.0058843
6610.0 0.005051
6630.0 0.0046496
6650.0 0.0044137
6670.0 0.0042284
6690.0 0.003752
6710.0 0.0034376
6730.0 0.0023604
6750.0 0.0024027
6770.0 0.0027242
6790.0 0.0031908
6810.0 0.0028233
6830.0 0.0029041
6850.0 0.0026797
6870.0 0.0024521
6890.0 0.0023237
6910.0 0.0025132
6930.0 0.0023559
6950.0 0.0024653
6970.0 0.002592
6990.0 0.0029348
7010.0 0.0029411
7030.0 0.0030364
7050.0 0.0028625
7070.0 0.0026851
7090.0 0.0027151
7110.0 0.0028074
7130.0 0.0030474
7150.0 0.0032619
7170.0 0.0036081
7190.0 0.0039562
7210.0 0.0038432
7230.0 0.0039447
7250.0 0.0042347
7270.0 0.0046016
7290.0 0.0054906
7310.0 0.0059475
7330.0 0.0057339
7350.0 0.0051815
7370.0 0.0044322
7390.0 0.0043234
7410.0 0.0046646
7430.0 0.0052008
7450.0 0.0056578
7470.0 0.0055495
7490.0 0.0049745
7510.0 0.0058654
7530.0 0.0057486
7550.0 0.0052056
7570.0 0.0040007
7590.0 0.0026391
7610.0 0.0022338
7630.0 0.0025942
7650.0 0.0031038
7670.0 0.0039666
7690.0 0.004369
7710.0 0.0044813
7730.0 0.0046846
7750.0 0.0053515
7770.0 0.0054449
7790.0 0.0049971
7810.0 0.0044956
7830.0 0.0046633
7850.0 0.0045989
7870.0 0.0042508
7890.0 0.003538
7910.0 0.0028163
7930.0 0.0027151
7950.0 0.002472
7970.0 0.0022651
7990.0 0.0022315
8010.0 0.00030717
8030.0 0.00028578
8050.0 0.00029946
8070.0 0.00033282
8090.0 0.00040005
8110.0 0.00038291
8130.0 0.00024375
8150.0 0.00025311
8170.0 0.00015935
8190.0 0.00011387
8210.0 0.0002434
8230.0 0.00028882
8250.0 0.00015666
8270.0 0.0001275
8290.0 0.0001909
8310.0 0.00016412
8330.0 0.0001051
8350.0 7.9791e-05
8370.0 2.5797e-05
8390.0 8.8339e-05
8410.0 0.00010082
8430.0 0.00012426
8450.0 0.00014311
8470.0 0.00022056
8490.0 0.00019292
8510.0 0.00016242
8530.0 0.00011774
8550.0 0.0002707
8570.0 0.00038172
8590.0 0.00030783
8610.0 0.00043627
8630.0 0.00049591
8650.0 0.00036627
8670.0 0.00045948
8690.0 0.00059401
8710.0 0.00051638
8730.0 0.00052504
8750.0 0.00042748
8770.0 0.00038821
8790.0 0.00041071
8810.0 0.000428
8830.0 0.00026926
8850.0 0.00014324
8870.0 0.00010333
8890.0 0.00017641
8910.0 0.00025742
8930.0 0.00033201
8950.0 0.00035667
8970.0 0.00034518
8990.0 0.00026266
9010.0 0.0011192
9030.0 0.0009726
9050.0 0.00098281
9070.0 0.00099625
9090.0 0.0010077
9110.0 0.0010219
9130.0 0.0010324
9150.0 0.0010402
9170.0 0.0010486
9190.0 0.0010575
9210.0 0.0010668
9230.0 0.0010767
9250.0 0.0010867
9270.0 0.0010971
9290.0 0.0011077
9310.0 0.0011183
9330.0 0.0011292
9350.0 0.0011404
9370.0 0.0011516
9390.0 0.001163
9410.0 0.0011746
9430.0 0.0011866
9450.0 0.0011984
9470.0 0.0012105
9490.0 0.001223
9510.0 0.0012355
9530.0 0.0012481
9550.0 0.0012611
9570.0 0.0012743
9590.0 0.0012875
9610.0 0.0013009
9630.0 0.0013147
9650.0 0.0013285
9670.0 0.0013424
9690.0 0.0013566
9710.0 0.001371
9730.0 0.0013855
9750.0 0.0014001
9770.0 0.0014153
9790.0 0.0014303
9810.0 0.0014454
9830.0 0.0014608
9850.0 0.0014765
9870.0 0.001492
9890.0 0.0015078
9910.0 0.0015239
9930.0 0.00154
9950.0 0.0015562
9970.0 0.0015727
9990.0 0.0015894
10010.0 0.0013837
10030.0 0.0013981
10050.0 0.0014128
10070.0 0.0014277
10090.0 0.0014421
10110.0 0.0014569
10130.0 0.0014717
10150.0 0.0014865
10170.0 0.0015014
10190.0 0.0015165
10210.0 0.0015315
10230.0 0.0015464
10250.0 0.0015616
10270.0 0.0015768
10290.0 0.0015917
10310.0 0.0016069
10330.0 0.0016222
10350.0 0.0016372
10370.0 0.0016522
10390.0 0.0016674
10410.0 0.0016825
10430.0 0.0016973
10450.0 0.0017122
10470.0 0.0017272
10490.0 0.0017419
10510.0 0.0017565
10530.0 0.0017714
10550.0 0.001786
10570.0 0.0018003
10590.0 0.0018147
10610.0 0.0018291
10630.0 0.0018431
10650.0 0.0018569
10670.0 0.001871
10690.0 0.0018847
10710.0 0.0018981
10730.0 0.0019116
10750.0 0.0019251
10770.0 0.001938
10790.0 0.0019508
10810.0 0.0019636
10830.0 0.001976
10850.0 0.0019877
10870.0 0.0019992
10890.0 0.0020095
10910.0 0.0020176
10930.0 0.0020228
10950.0 0.0020232
10970.0 0.0020174
10990.0 0.0020048
11010.0 0.0018838
11030.0 0.001854
11050.0 0.0018175
11070.0 0.0017737
11090.0 0.0017211
11110.0 0.0016667
11130.0 0.0016099
11150.0 0.0015488
11170.0 0.0014859
11190.0 0.0014249
11210.0 0.0013619
11230.0 0.0012975
11250.0 0.0012359
11270.0 0.0011768
11290.0 0.0011176
11310.0 0.0010615
11330.0 0.0010122
11350.0 0.00096549
11370.0 0.00092235
11390.0 0.00088497
11410.0 0.00085222
11430.0 0.00082174
11450.0 0.00079541
11470.0 0.00077257
11490.0 0.00075127
11510.0 0.00073072
11530.0 0.00071163
11550.0 0.00069266
11570.0 0.00067245
11590.0 0.00065156
11610.0 0.00063033
11630.0 0.00060727
11650.0 0.00058263
11670.0 0.00055837
11690.0 0.00053379
11710.0 0.00050846
11730.0 0.00048392
11750.0 0.0004612
11770.0 0.00043891
11790.0 0.00041802
11810.0 0.00039959
11830.0 0.00038309
11850.0 0.00036786
11870.0 0.00035508
11890.0 0.00034442
11910.0 0.00033501
11930.0 0.0003269
11950.0 0.00032011
11970.0 0.00031402
11990.0 0.00030827
12010.0 0.00030294
12030.0 0.0002978
12050.0 0.00029252
12070.0 0.00028703
12090.0 0.00028175
12110.0 0.0002764
12130.0 0.00027104
12150.0 0.00026608
12170.0 0.00026173
12190.0 0.00025793
12210.0 0.0002552
12230.0 0.00025377
12250.0 0.00025373
12270.0 0.0002554
12290.0 0.00025877
12310.0 0.00026372
12330.0 0.00027072
12350.0 0.00027951
12370.0 0.00028956
12390.0 0.00030118
12410.0 0.00031482
12430.0 0.0003287
12450.0 0.00034307
12470.0 0.00035837
12490.0 0.00037373
12510.0 0.00038814
12530.0 0.00040247
12550.0 0.00041629
12570.0 0.00042847
12590.0 0.00043915
12610.0 0.00044866
12630.0 0.00045621
12650.0 0.00046138
12670.0 0.00046474
12690.0 0.00046601
12710.0 0.00046512
12730.0 0.0004623
12750.0 0.00045737
12770.0 0.00045065
12790.0 0.00044252
12810.0 0.00043284
12830.0 0.00042167
12850.0 0.00040999
12870.0 0.00039766
12890.0 0.00038434
12910.0 0.00037081
12930.0 0.00035748
12950.0 0.00034358
12970.0 0.00032946
12990.0 0.0003161
13010.0 0.00030291
13030.0 0.00028959
13050.0 0.0002768
13070.0 0.00026482
13090.0 0.00025279
13110.0 0.00024116
13130.0 0.00023044
13150.0 0.00022027
13170.0 0.00021032
13190.0 0.00020145
13210.0 0.00019363
13230.0 0.00018647
13250.0 0.00018028
13270.0 0.00017538
13290.0 0.00017154
13310.0 0.00016886
13330.0 0.00016758
13350.0 0.00016761
13370.0 0.00016901
13390.0 0.00017187
13410.0 0.00017578
13430.0 0.0001809
13450.0 0.00018726
13470.0 0.00019435
13490.0 0.00020187
13510.0 0.00021038
13530.0 0.00021902
13550.0 0.0002273
13570.0 0.00023549
13590.0 0.00024348
13610.0 0.00025061
13630.0 0.00025684
13650.0 0.00026254
13670.0 0.00026729
13690.0 0.00027097
13710.0 0.00027384
13730.0 0.0002759
13750.0 0.00027695
13770.0 0.00027722
13790.0 0.00027675
13810.0 0.00027556
13830.0 0.00027377
13850.0 0.00027134
13870.0 0.00026826
13890.0 0.00026473
13910.0 0.00026075
13930.0 0.00025613
13950.0 0.0002511
13970.0 0.00024595
13990.0 0.00024034
14010.0 0.00023437
14030.0 0.00022842
14050.0 0.00022243
14070.0 0.0002161
14090.0 0.00021004
14110.0 0.00020434
14130.0 0.00019882
14150.0 0.00019362
14170.0 0.00018917
14190.0 0.00018533
14210.0 0.00018206
14230.0 0.00017963
14250.0 0.00017806
14270.0 0.00017728
14290.0 0.00017742
14310.0 0.00017839
14330.0 0.00018014
14350.0 0.00018274
14370.0 0.00018599
14390.0 0.00018969
14410.0 0.00019405
14430.0 0.00019885
14450.0 0.00020375
14470.0 0.00020885
14490.0 0.00021428
14510.0 0.00021948
14530.0 0.00022442
14550.0 0.00022937
14570.0 0.00023413
14590.0 0.00023846
14610.0 0.00024265
14630.0 0.00024679
14650.0 0.00025066
14670.0 0.00025438
14690.0 0.00025826
14710.0 0.00026234
14730.0 0.00026642
14750.0 0.00027093
14770.0 0.00027605
14790.0 0.0002816
14810.0 0.00028761
14830.0 0.00029474
14850.0 0.00030249
14870.0 0.00031059
14890.0 0.00031933
14910.0 0.00032861
14930.0 0.00033755
14950.0 0.00034591
14970.0 0.00035383
14990.0 0.00036049
15010.0 0.00036559
15030.0 0.00036938
15050.0 0.00037191
15070.0 0.00037317
15090.0 0.00037364
15110.0 0.00037357
15130.0 0.00037315
15150.0 0.00037257
15170.0 0.00037187
15190.0 0.00037112
15210.0 0.00037038
15230.0 0.00036964
15250.0 0.00036888
15270.0 0.00036812
15290.0 0.00036741
15310.0 0.00036667
15330.0 0.00036593
15350.0 0.00036522
15370.0 0.00036452
15390.0 0.00036377
15410.0 0.00036306
15430.0 0.00036237
15450.0 0.00036166
15470.0 0.00036094
15490.0 0.00036026
15510.0 0.00035958
15530.0 0.00035887
15550.0 0.00035818
15570.0 0.00035752
15590.0 0.00035683
15610.0 0.00035612
15630.0 0.00035546
15650.0 0.00035479
15670.0 0.00035411
15690.0 0.00035344
15710.0 0.00035279
15730.0 0.00035212
15750.0 0.00035144
15770.0 0.00035079
15790.0 0.00035014
15810.0 0.00034945
15830.0 0.00034879
15850.0 0.00034816
15870.0 0.0003475
15890.0 0.00034683
15910.0 0.0003462
15930.0 0.00034555
15950.0 0.00034488
15970.0 0.00034423
15990.0 0.00034359
16010.0 0.00034293
16030.0 0.00034226
16050.0 0.00034163
16070.0 0.00034099
16090.0 0.00034033
16110.0 0.00033968
16130.0 0.00033906
16150.0 0.00033838
16170.0 0.00033772
16190.0 0.00033708
16210.0 0.00033643
16230.0 0.00033576
16250.0 0.00033512
16270.0 0.00033449
16290.0 0.00033382
16310.0 0.00033315
16330.0 0.00033252
16350.0 0.00033186
16370.0 0.00033117
16390.0 0.00033052
16410.0 0.00032987
16430.0 0.0003292
16450.0 0.00032853
16470.0 0.00032789
16490.0 0.00032722
16510.0 0.00032653
16530.0 0.00032587
16550.0 0.00032521
16570.0 0.00032451
16590.0 0.00032383
16610.0 0.00032318
16630.0 0.00032249
16650.0 0.0003218
16670.0 0.00032113
16690.0 0.00032046
16710.0 0.00031974
16730.0 0.00031905
16750.0 0.00031838
16770.0 0.00031768
16790.0 0.00031696
16810.0 0.00031628
16830.0 0.00031559
16850.0 0.00031487
16870.0 0.00031416
16890.0 0.00031348
16910.0 0.00031275
16930.0 0.00031201
16950.0 0.00031131
16970.0 0.0003106
16990.0 0.00030986
17010.0 0.00030914
17030.0 0.00030844
17050.0 0.0003077
17070.0 0.00030695
17090.0 0.00030623
17110.0 0.0003055
17130.0 0.00030473
17150.0 0.00030399
17170.0 0.00030327
17190.0 0.00030251
17210.0 0.00030175
17230.0 0.00030102
17250.0 0.00030026
17270.0 0.00029948
17290.0 0.00029872
17310.0 0.00029797
17330.0 0.00029719
17350.0 0.0002964
17370.0 0.00029566
17390.0 0.00029488
17410.0 0.00029409
17430.0 0.00029332
17450.0 0.00029256
17470.0 0.00029174
17490.0 0.00029094
17510.0 0.00029017
17530.0 0.00028937
17550.0 0.00028856
17570.0 0.00028777
17590.0 0.00028699
17610.0 0.00028617
17630.0 0.00028535
17650.0 0.00028456
17670.0 0.00028375
17690.0 0.0002829
17710.0 0.0002821
17730.0 0.00028129
17750.0 0.00028046
17770.0 0.00027963
17790.0 0.00027883
17810.0 0.00027799
17830.0 0.00027714
17850.0 0.00027632
17870.0 0.0002755
17890.0 0.00027464
17910.0 0.00027379
17930.0 0.00027297
17950.0 0.00027212
17970.0 0.00027126
17990.0 0.00027043
18010.0 0.0002696
18030.0 0.00026871
18050.0 0.00026786
18070.0 0.00026702
18090.0 0.00026616
18110.0 0.00026528
18130.0 0.00026444
18150.0 0.00026358
18170.0 0.0002627
18190.0 0.00026184
18210.0 0.00026099
18230.0 0.0002601
18250.0 0.00025921
18270.0 0.00025836
18290.0 0.00025749
18310.0 0.0002566
18330.0 0.00025572
18350.0 0.00025487
18370.0 0.00025397
18390.0 0.00025308
18410.0 0.00025222
18430.0 0.00025134
18450.0 0.00025042
18470.0 0.00024954
18490.0 0.00024867
18510.0 0.00024778
18530.0 0.00024688
18550.0 0.00024601
18570.0 0.00024512
18590.0 0.0002442
18610.0 0.00024332
18630.0 0.00024244
18650.0 0.00024153
18670.0 0.00024062
18690.0 0.00023975
18710.0 0.00023885
18730.0 0.00023794
18750.0 0.00023705
18770.0 0.00023617
18790.0 0.00023524
18810.0 0.00023433
18830.0 0.00023345
18850.0 0.00023255
18870.0 0.00023163
18890.0 0.00023074
18910.0 0.00022986
18930.0 0.00022894
18950.0 0.00022803
18970.0 0.00022715
18990.0 0.00022624
19010.0 0.0002253
19030.0 0.00022442
19050.0 0.00022352
19070.0 0.00022261
19090.0 0.0002217
19110.0 0.00022082
19130.0 0.00021991
19150.0 0.00021898
19170.0 0.00021809
19190.0 0.0002172
19210.0 0.00021627
19230.0 0.00021536
19250.0 0.00021448
19270.0 0.00021357
19290.0 0.00021266
19310.0 0.00021177
19330.0 0.00021088
19350.0 0.00020994
19370.0 0.00020904
19390.0 0.00020815
19410.0 0.00020724
19430.0 0.00020632
19450.0 0.00020544
19470.0 0.00020455
19490.0 0.00020363
19510.0 0.00020273
19530.0 0.00020185
19550.0 0.00020094
19570.0 0.00020001
19590.0 0.00019914
19610.0 0.00019824
19630.0 0.00019733
19650.0 0.00019644
19670.0 0.00019556
19690.0 0.00019465
19710.0 0.00019374
19730.0 0.00019286
19750.0 0.00019197
19770.0 0.00019105
19790.0 0.00019016
19810.0 0.00018929
19830.0 0.00018838
19850.0 0.00018747
19870.0 0.00018657
19890.0 0.00018562
19910.0 0.00018457
19930.0 0.00018344
19950.0 0.00018217
19970.0 0.0001806
19990.0 0.00017872
20010.0 0.00015934
20030.0 0.00015701
20050.0 0.0001543
20070.0 0.00015135
20090.0 0.00014819
20110.0 0.00014462
20130.0 0.00014101
20150.0 0.00013743
20170.0 0.00013372
20190.0 0.00012996
20210.0 0.00012641
20230.0 0.00012295
20250.0 0.00011948
20270.0 0.00011626
20290.0 0.00011332
20310.0 0.00011053
20330.0 0.00010792
20350.0 0.00010575
20370.0 0.00010382
20390.0 0.00010213
20410.0 0.00010076
20430.0 9.9701e-05
20450.0 9.8858e-05
20470.0 9.8288e-05
20490.0 9.7976e-05
20510.0 9.7876e-05
20530.0 9.7983e-05
20550.0 9.8273e-05
20570.0 9.8702e-05
20590.0 9.9288e-05
20610.0 0.0001
20630.0 0.00010079
20650.0 0.00010167
20670.0 0.00010268
20690.0 0.00010372
20710.0 0.00010479
20730.0 0.00010594
20750.0 0.00010715
20770.0 0.00010833
20790.0 0.00010957
20810.0 0.00011089
20830.0 0.0001122
20850.0 0.00011351
20870.0 0.00011491
20890.0 0.00011634
20910.0 0.00011772
20930.0 0.00011915
20950.0 0.00012063
20970.0 0.00012207
20990.0 0.00012349
21010.0 0.00012499
21030.0 0.00012645
21050.0 0.00012784
21070.0 0.00012923
21090.0 0.00013062
21110.0 0.00013189
21130.0 0.00013308
21150.0 0.00013424
21170.0 0.00013528
21190.0 0.00013618
21210.0 0.00013699
21230.0 0.00013766
21250.0 0.00013813
21270.0 0.00013843
21290.0 0.00013854
21310.0 0.00013842
21330.0 0.00013809
21350.0 0.00013751
21370.0 0.00013666
21390.0 0.00013559
21410.0 0.00013428
21430.0 0.00013262
21450.0 0.00013076
21470.0 0.00012873
21490.0 0.00012643
21510.0 0.00012392
21530.0 0.00012136
21550.0 0.00011869
21570.0 0.00011583
21590.0 0.00011303
21610.0 0.00011032
21630.0 0.0001076
21650.0 0.00010495
21670.0 0.00010265
21690.0 0.00010053
21710.0 9.8619e-05
21730.0 9.7053e-05
21750.0 9.5844e-05
21770.0 9.4921e-05
21790.0 9.4388e-05
21810.0 9.4235e-05
21830.0 9.4436e-05
21850.0 9.5017e-05
21870.0 9.5926e-05
21890.0 9.7102e-05
21910.0 9.8612e-05
21930.0 0.00010038
21950.0 0.0001023
21970.0 0.00010443
21990.0 0.00010682
22010.0 0.00010921
22030.0 0.00011164
22050.0 0.00011418
22070.0 0.00011675
22090.0 0.00011917
22110.0 0.00012162
22130.0 0.00012406
22150.0 0.00012634
22170.0 0.00012849
22190.0 0.00013063
22210.0 0.00013261
22230.0 0.00013436
22250.0 0.000136
22270.0 0.00013751
22290.0 0.0001388
22310.0 0.00013991
22330.0 0.00014089
22350.0 0.00014164
22370.0 0.00014217
22390.0 0.0001425
22410.0 0.0001426
22430.0 0.00014246
22450.0 0.00014209
22470.0 0.00014145
22490.0 0.00014055
22510.0 0.00013944
22530.0 0.00013802
22550.0 0.00013629
22570.0 0.00013438
22590.0 0.00013222
22610.0 0.00012974
22630.0 0.00012705
22650.0 0.00012427
22670.0 0.0001212
22690.0 0.00011792
22710.0 0.00011462
22730.0 0.00011121
22750.0 0.00010752
22770.0 0.00010391
22790.0 0.00010038
22810.0 9.6765e-05
22830.0 9.3157e-05
22850.0 8.9779e-05
22870.0 8.6468e-05
22890.0 8.3174e-05
22910.0 8.0139e-05
22930.0 7.7358e-05
22950.0 7.4709e-05
