#lamb flux
1010.0 4.1039e-06
1030.0 4.2898e-06
1050.0 4.5055e-06
1070.0 4.749e-06
1090.0 5.0258e-06
1110.0 5.311e-06
1130.0 5.5996e-06
1150.0 5.9034e-06
1170.0 6.2187e-06
1190.0 6.5201e-06
1210.0 6.8278e-06
1230.0 7.1478e-06
1250.0 7.4644e-06
1270.0 7.7751e-06
1290.0 8.1054e-06
1310.0 8.4387e-06
1330.0 8.7626e-06
1350.0 9.0933e-06
1370.0 9.4376e-06
1390.0 9.7779e-06
1410.0 1.0113e-05
1430.0 1.0466e-05
1450.0 1.0822e-05
1470.0 1.1173e-05
1490.0 1.153e-05
1510.0 1.1909e-05
1530.0 1.2274e-05
1550.0 1.2638e-05
1570.0 1.3015e-05
1590.0 1.3395e-05
1610.0 1.3763e-05
1630.0 1.4141e-05
1650.0 1.4529e-05
1670.0 1.4905e-05
1690.0 1.5276e-05
1710.0 1.5658e-05
1730.0 1.6039e-05
1750.0 1.6395e-05
1770.0 1.6757e-05
1790.0 1.7119e-05
1810.0 1.7463e-05
1830.0 1.7795e-05
1850.0 1.8137e-05
1870.0 1.8462e-05
1890.0 1.8765e-05
1910.0 1.9065e-05
1930.0 1.9361e-05
1950.0 1.9631e-05
1970.0 1.9885e-05
1990.0 2.0141e-05
2010.0 2.038e-05
2030.0 2.0597e-05
2050.0 2.0815e-05
2070.0 2.1031e-05
2090.0 2.1222e-05
2110.0 2.1406e-05
2130.0 2.1594e-05
2150.0 2.1774e-05
2170.0 2.194e-05
2190.0 2.2118e-05
2210.0 2.2302e-05
2230.0 2.2479e-05
2250.0 2.2664e-05
2270.0 2.2872e-05
2290.0 2.3084e-05
2310.0 2.3299e-05
2330.0 2.3542e-05
2350.0 2.3808e-05
2370.0 2.4085e-05
2390.0 2.4391e-05
2410.0 2.4739e-05
2430.0 2.5107e-05
2450.0 2.5501e-05
2470.0 2.5935e-05
2490.0 2.6411e-05
2510.0 2.6923e-05
2530.0 2.7533e-05
2550.0 2.8348e-05
2570.0 2.9501e-05
2590.0 3.1166e-05
2610.0 3.376e-05
2630.0 3.7482e-05
2650.0 4.2266e-05
2670.0 4.8254e-05
2690.0 5.538e-05
2710.0 6.2897e-05
2730.0 7.0404e-05
2750.0 7.8032e-05
2770.0 8.5251e-05
2790.0 9.1897e-05
2810.0 9.8339e-05
2830.0 0.00010489
2850.0 0.00011125
2870.0 0.00011778
2890.0 0.00012475
2910.0 0.00013205
2930.0 0.0001395
2950.0 0.00014748
2970.0 0.00015593
2990.0 0.00016454
3010.0 0.00032682
3030.0 0.00034437
3050.0 0.00036197
3070.0 0.00037826
3090.0 0.00039248
3110.0 0.00040131
3130.0 0.00040076
3150.0 0.00038632
3170.0 0.00034894
3190.0 0.00028742
3210.0 0.00020243
3230.0 0.0001062
3250.0 0.00020838
3270.0 8.6364e-05
3290.0 0.00032428
3310.0 5.9833e-05
3330.0 5.9057e-05
3350.0 9.2625e-05
3370.0 0.00013137
3390.0 0.00017276
3410.0 0.000214
3430.0 0.00025722
3450.0 0.00030037
3470.0 0.00033984
3490.0 0.00036572
3510.0 0.00046014
3530.0 0.00063496
3550.0 0.00062496
3570.0 0.00050872
3590.0 0.00073889
3610.0 0.00044432
3630.0 0.00076843
3650.0 0.00089162
3670.0 0.0011643
3690.0 0.0010933
3710.0 0.00073118
3730.0 0.00099503
3750.0 0.0010321
3770.0 0.0010734
3790.0 0.00097569
3810.0 0.00088267
3830.0 0.0013135
3850.0 0.0014786
3870.0 0.0018491
3890.0 0.001735
3910.0 0.0015339
3930.0 0.0016226
3950.0 0.0018163
3970.0 0.0023209
3990.0 0.0017484
4010.0 0.0010515
4030.0 0.0015537
4050.0 0.0017998
4070.0 0.0020579
4090.0 0.0017196
4110.0 0.0011105
4130.0 0.0015631
4150.0 0.0014562
4170.0 0.0015175
4190.0 0.0014893
4210.0 0.0019231
4230.0 0.0013056
4250.0 0.0015543
4270.0 0.001551
4290.0 0.0015523
4310.0 0.0019386
4330.0 0.0019973
4350.0 0.0015133
4370.0 0.0012753
4390.0 0.0016096
4410.0 0.0016719
4430.0 0.001268
4450.0 0.0012678
4470.0 0.0015055
4490.0 0.0010884
4510.0 0.0013728
4530.0 0.0014684
4550.0 0.0019515
4570.0 0.002879
4590.0 0.0027311
4610.0 0.0017303
4630.0 0.0029262
4650.0 0.0042838
4670.0 0.0039454
4690.0 0.0022672
4710.0 0.0025054
4730.0 0.0033213
4750.0 0.0029535
4770.0 0.0022143
4790.0 0.0014712
4810.0 0.0021867
4830.0 0.0025439
4850.0 0.0022027
4870.0 0.00063004
4890.0 0.0023772
4910.0 0.0033859
4930.0 0.0036361
4950.0 0.0035424
4970.0 0.0020806
4990.0 0.0024348
5010.0 0.0029482
5030.0 0.0033151
5050.0 0.0033065
5070.0 0.0023604
5090.0 0.0019134
5110.0 0.0017896
5130.0 0.0015938
5150.0 0.0018108
5170.0 0.0015627
5190.0 0.0019642
5210.0 0.0019628
5230.0 0.0021552
5250.0 0.0027241
5270.0 0.0022281
5290.0 0.0021718
5310.0 0.0032922
5330.0 0.0038354
5350.0 0.0031569
5370.0 0.0027085
5390.0 0.003146
5410.0 0.0040161
5430.0 0.004432
5450.0 0.0047133
5470.0 0.0046616
5490.0 0.0045071
5510.0 0.0053075
5530.0 0.005503
5550.0 0.0059265
5570.0 0.0063303
5590.0 0.0062724
5610.0 0.0058967
5630.0 0.0056709
5650.0 0.0057947
5670.0 0.0057164
5690.0 0.0048282
5710.0 0.0046789
5730.0 0.0047883
5750.0 0.0052577
5770.0 0.004518
5790.0 0.0041131
5810.0 0.0041504
5830.0 0.0043791
5850.0 0.0039821
5870.0 0.0040275
5890.0 0.0048644
5910.0 0.0046091
5930.0 0.0037117
5950.0 0.003193
5970.0 0.0034684
5990.0 0.0032034
6010.0 0.0030334
6030.0 0.0031235
6050.0 0.0029101
6070.0 0.0021413
6090.0 0.0019128
6110.0 0.002542
6130.0 0.0029613
6150.0 0.0031056
6170.0 0.0029843
6190.0 0.0027564
6210.0 0.0026998
6230.0 0.003208
6250.0 0.0029653
6270.0 0.0027156
6290.0 0.0025126
6310.0 0.0023818
6330.0 0.0022652
6350.0 0.0019693
6370.0 0.0019495
6390.0 0.0023186
6410.0 0.0028986
6430.0 0.0033314
6450.0 0.0031012
6470.0 0.003008
6490.0 0.003812
6510.0 0.0044253
6530.0 0.0041723
6550.0 0.003984
6570.0 0.0040476
6590.0 0.0039254
6610.0 0.0042867
6630.0 0.0040089
6650.0 0.0034964
6670.0 0.0031427
6690.0 0.0030813
6710.0 0.0038588
6730.0 0.0035181
6750.0 0.0029506
6770.0 0.002611
6790.0 0.0027479
6810.0 0.0030973
6830.0 0.0030314
6850.0 0.0027305
6870.0 0.0028482
6890.0 0.0028139
6910.0 0.0026511
6930.0 0.0030643
6950.0 0.0028133
6970.0 0.0025973
6990.0 0.0025767
7010.0 0.0024751
7030.0 0.0023452
7050.0 0.0022847
7070.0 0.0025301
7090.0 0.0024091
7110.0 0.0020649
7130.0 0.0016523
7150.0 0.0015073
7170.0 0.0020443
7190.0 0.002233
7210.0 0.0021312
7230.0 0.0022043
7250.0 0.0020298
7270.0 0.0019191
7290.0 0.0021487
7310.0 0.0024369
7330.0 0.0024022
7350.0 0.0022436
7370.0 0.0021183
7390.0 0.0022002
7410.0 0.0025758
7430.0 0.0028252
7450.0 0.0029863
7470.0 0.0029122
7490.0 0.0030333
7510.0 0.0029326
7530.0 0.0029127
7550.0 0.002899
7570.0 0.0025584
7590.0 0.0025391
7610.0 0.0024591
7630.0 0.0022523
7650.0 0.0024546
7670.0 0.0026813
7690.0 0.0029126
7710.0 0.0032774
7730.0 0.0034888
7750.0 0.0036461
7770.0 0.0036675
7790.0 0.0040306
7810.0 0.0041523
7830.0 0.00379
7850.0 0.0038223
7870.0 0.0036462
7890.0 0.0038353
7910.0 0.00364
7930.0 0.0036779
7950.0 0.0032094
7970.0 0.0032916
7990.0 0.0031507
8010.0 0.0032057
8030.0 0.0031931
8050.0 0.0033667
8070.0 0.003238
8090.0 0.0032519
8110.0 0.0031843
8130.0 0.0031867
8150.0 0.0030411
8170.0 0.0029642
8190.0 0.0029347
8210.0 0.0029612
8230.0 0.0026141
8250.0 0.0023907
8270.0 0.0021058
8290.0 0.001767
8310.0 0.0015356
8330.0 0.0012311
8350.0 0.0010275
8370.0 0.0010418
8390.0 0.0010429
8410.0 0.0010962
8430.0 0.0013624
8450.0 0.0014648
8470.0 0.0015564
8490.0 0.0018001
8510.0 0.0019613
8530.0 0.0022561
8550.0 0.00267
8570.0 0.0029608
8590.0 0.0031568
8610.0 0.0034592
8630.0 0.003843
8650.0 0.0039161
8670.0 0.0039714
8690.0 0.0041355
8710.0 0.0040817
8730.0 0.0040194
8750.0 0.0037758
8770.0 0.0037831
8790.0 0.0037372
8810.0 0.0034467
8830.0 0.0034576
8850.0 0.0032352
8870.0 0.0031088
8890.0 0.0028243
8910.0 0.003061
8930.0 0.0027892
8950.0 0.0027567
8970.0 0.0027791
8990.0 0.002689
9010.0 0.0027488
9030.0 0.002629
9050.0 0.0026148
9070.0 0.0026127
9090.0 0.00261
9110.0 0.0026085
9130.0 0.002605
9150.0 0.0026004
9170.0 0.0025892
9190.0 0.0025676
9210.0 0.0026009
9230.0 0.0025872
9250.0 0.0025778
9270.0 0.002569
9290.0 0.0025606
9310.0 0.0025525
9330.0 0.0025445
9350.0 0.0025362
9370.0 0.0025278
9390.0 0.0025192
9410.0 0.0025103
9430.0 0.0025011
9450.0 0.0024917
9470.0 0.002482
9490.0 0.0024723
9510.0 0.0024624
9530.0 0.0024523
9550.0 0.0024421
9570.0 0.0024317
9590.0 0.0024211
9610.0 0.0024105
9630.0 0.0023998
9650.0 0.002389
9670.0 0.0023782
9690.0 0.0023673
9710.0 0.0023564
9730.0 0.0023454
9750.0 0.0023345
9770.0 0.0023236
9790.0 0.0023127
9810.0 0.0023018
9830.0 0.002291
9850.0 0.0022802
9870.0 0.0022694
9890.0 0.0022588
9910.0 0.0022482
9930.0 0.0022377
9950.0 0.0022217
9970.0 0.0022131
9990.0 0.0022043
10010.0 0.0021954
10030.0 0.0021862
10050.0 0.0021763
10070.0 0.0021637
10090.0 0.0021555
10110.0 0.0021471
10130.0 0.0021386
10150.0 0.0021302
10170.0 0.0021216
10190.0 0.0021128
10210.0 0.0021044
10230.0 0.0020962
10250.0 0.002088
10270.0 0.0020799
10290.0 0.0020723
10310.0 0.0020647
10330.0 0.002057
10350.0 0.0020498
10370.0 0.0020429
10390.0 0.0020359
10410.0 0.0020291
10430.0 0.0020228
10450.0 0.0020165
10470.0 0.0020103
10490.0 0.0020044
10510.0 0.0019988
10530.0 0.001993
10550.0 0.0019876
10570.0 0.0019825
10590.0 0.0019775
10610.0 0.0019726
10630.0 0.0019681
10650.0 0.0019637
10670.0 0.0019593
10690.0 0.0019552
10710.0 0.0019514
10730.0 0.0019476
10750.0 0.0019438
10770.0 0.0019406
10790.0 0.0019374
10810.0 0.0019342
10830.0 0.0019313
10850.0 0.0019285
10870.0 0.0019252
10890.0 0.0019215
10910.0 0.001917
10930.0 0.0019108
10950.0 0.0019014
10970.0 0.0018884
10990.0 0.0018716
11010.0 0.0018612
11030.0 0.0018336
11050.0 0.0018013
11070.0 0.001764
11090.0 0.0017207
11110.0 0.0016775
11130.0 0.0016341
11150.0 0.0015893
11170.0 0.0015452
11190.0 0.0015045
11210.0 0.0014645
11230.0 0.0014255
11250.0 0.00139
11270.0 0.0013574
11290.0 0.0013259
11310.0 0.0012969
11330.0 0.0012719
11350.0 0.0012483
11370.0 0.0012262
11390.0 0.0012064
11410.0 0.0011882
11430.0 0.0011698
11450.0 0.0011524
11470.0 0.0011359
11490.0 0.0011188
11510.0 0.0011007
11530.0 0.001083
11550.0 0.0010646
11570.0 0.0010446
11590.0 0.0010239
11610.0 0.001003
11630.0 0.00098045
11650.0 0.00095644
11670.0 0.00093309
11690.0 0.0009094
11710.0 0.00088462
11730.0 0.00086023
11750.0 0.00083725
11770.0 0.00081379
11790.0 0.00079075
11810.0 0.00076946
11830.0 0.0007492
11850.0 0.00072886
11870.0 0.00071039
11890.0 0.0006937
11910.0 0.00067745
11930.0 0.00066199
11950.0 0.00064815
11970.0 0.00063492
11990.0 0.00062174
12010.0 0.00060961
12030.0 0.00059834
12050.0 0.00058711
12070.0 0.00057607
12090.0 0.00056634
12110.0 0.00055692
12130.0 0.00054774
12150.0 0.00053954
12170.0 0.00053244
12190.0 0.00052576
12210.0 0.00052038
12230.0 0.00051665
12250.0 0.00051436
12270.0 0.00051371
12290.0 0.00051506
12310.0 0.00051834
12330.0 0.00052367
12350.0 0.00053107
12370.0 0.00054018
12390.0 0.00055108
12410.0 0.00056404
12430.0 0.00057772
12450.0 0.00059212
12470.0 0.00060746
12490.0 0.00062298
12510.0 0.00063783
12530.0 0.00065262
12550.0 0.00066698
12570.0 0.0006801
12590.0 0.0006921
12610.0 0.00070329
12630.0 0.0007132
12650.0 0.00072158
12670.0 0.00072894
12690.0 0.00073517
12710.0 0.00074021
12730.0 0.00074424
12750.0 0.00074725
12770.0 0.0007493
12790.0 0.00075051
12810.0 0.00075083
12830.0 0.00075016
12850.0 0.00074888
12870.0 0.00074684
12890.0 0.00074377
12910.0 0.00073995
12930.0 0.00073558
12950.0 0.00073009
12970.0 0.00072353
12990.0 0.00071663
13010.0 0.00070895
13030.0 0.00070015
13050.0 0.00069083
13070.0 0.00068142
13090.0 0.00067103
13110.0 0.00066017
13130.0 0.00064962
13150.0 0.00063908
13170.0 0.00062815
13190.0 0.00061817
13210.0 0.00060925
13230.0 0.00060089
13250.0 0.00059359
13270.0 0.00058789
13290.0 0.00058337
13310.0 0.00058003
13330.0 0.0005782
13350.0 0.00057759
13370.0 0.00057793
13390.0 0.00057907
13410.0 0.00058068
13430.0 0.00058243
13450.0 0.00058401
13470.0 0.00058512
13490.0 0.00058555
13510.0 0.00058496
13530.0 0.00058326
13550.0 0.00058056
13570.0 0.00057673
13590.0 0.00057169
13610.0 0.00056597
13630.0 0.00055977
13650.0 0.00055278
13670.0 0.00054555
13690.0 0.00053852
13710.0 0.00053145
13730.0 0.00052425
13750.0 0.00051782
13770.0 0.00051179
13790.0 0.00050594
13810.0 0.00050049
13830.0 0.00049558
13850.0 0.00049074
13870.0 0.000486
13890.0 0.00048154
13910.0 0.00047717
13930.0 0.00047266
13950.0 0.00046817
13970.0 0.00046392
13990.0 0.00045956
14010.0 0.0004552
14030.0 0.00045109
14050.0 0.00044718
14070.0 0.00044332
14090.0 0.00043985
14110.0 0.0004368
14130.0 0.00043405
14150.0 0.00043168
14170.0 0.00042981
14190.0 0.00042834
14210.0 0.00042728
14230.0 0.00042666
14250.0 0.00042643
14270.0 0.00042664
14290.0 0.00042731
14310.0 0.00042827
14330.0 0.00042958
14350.0 0.00043128
14370.0 0.0004332
14390.0 0.00043521
14410.0 0.00043747
14430.0 0.00043982
14450.0 0.00044202
14470.0 0.00044415
14490.0 0.0004463
14510.0 0.00044815
14530.0 0.00044973
14550.0 0.00045124
14570.0 0.00045263
14590.0 0.00045384
14610.0 0.00045511
14630.0 0.00045661
14650.0 0.00045823
14670.0 0.00046012
14690.0 0.00046258
14710.0 0.00046567
14730.0 0.00046909
14750.0 0.00047326
14770.0 0.00047833
14790.0 0.00048393
14810.0 0.00048999
14830.0 0.00049724
14850.0 0.0005049
14870.0 0.00051259
14890.0 0.00052061
14910.0 0.00052883
14930.0 0.00053627
14950.0 0.00054276
14970.0 0.00054851
14990.0 0.00055274
15010.0 0.00055525
15030.0 0.00055635
15050.0 0.00055614
15070.0 0.00055466
15090.0 0.00055241
15110.0 0.00054962
15130.0 0.00054649
15150.0 0.00054321
15170.0 0.00053981
15190.0 0.00053635
15210.0 0.0005329
15230.0 0.00052946
15250.0 0.00052598
15270.0 0.00052251
15290.0 0.00051908
15310.0 0.00051563
15330.0 0.00051218
15350.0 0.00050876
15370.0 0.00050535
15390.0 0.0005019
15410.0 0.00049849
15430.0 0.0004951
15450.0 0.00049171
15470.0 0.0004883
15490.0 0.00048495
15510.0 0.00048161
15530.0 0.00047825
15550.0 0.00047492
15570.0 0.00047162
15590.0 0.00046831
15610.0 0.00046499
15630.0 0.00046173
15650.0 0.00045849
15670.0 0.00045523
15690.0 0.000452
15710.0 0.00044882
15730.0 0.00044562
15750.0 0.00044243
15770.0 0.00043929
15790.0 0.00043617
15810.0 0.00043302
15830.0 0.00042992
15850.0 0.00042687
15870.0 0.0004238
15890.0 0.00042075
15910.0 0.00041776
15930.0 0.00041477
15950.0 0.00041177
15970.0 0.00040881
15990.0 0.0004059
16010.0 0.00040297
16030.0 0.00040006
16050.0 0.00039722
16070.0 0.00039438
16090.0 0.00039154
16110.0 0.00038874
16130.0 0.00038598
16150.0 0.0003832
16170.0 0.00038045
16190.0 0.00037776
16210.0 0.00037507
16230.0 0.00037238
16250.0 0.00036975
16270.0 0.00036715
16290.0 0.00036453
16310.0 0.00036195
16330.0 0.00035941
16350.0 0.00035688
16370.0 0.00035434
16390.0 0.00035187
16410.0 0.00034942
16430.0 0.00034697
16450.0 0.00034455
16470.0 0.00034218
16490.0 0.0003398
16510.0 0.00033743
16530.0 0.00033512
16550.0 0.00033282
16570.0 0.00033052
16590.0 0.00032825
16610.0 0.00032604
16630.0 0.00032382
16650.0 0.00032161
16670.0 0.00031945
16690.0 0.00031732
16710.0 0.00031516
16730.0 0.00031305
16750.0 0.00031098
16770.0 0.00030891
16790.0 0.00030684
16810.0 0.00030484
16830.0 0.00030284
16850.0 0.00030085
16870.0 0.00029889
16890.0 0.00029696
16910.0 0.00029503
16930.0 0.0002931
16950.0 0.00029124
16970.0 0.00028938
16990.0 0.00028752
17010.0 0.0002857
17030.0 0.00028392
17050.0 0.00028212
17070.0 0.00028034
17090.0 0.00027861
17110.0 0.00027689
17130.0 0.00027515
17150.0 0.00027346
17170.0 0.0002718
17190.0 0.00027014
17210.0 0.00026849
17230.0 0.00026689
17250.0 0.00026528
17270.0 0.00026367
17290.0 0.00026211
17310.0 0.00026056
17330.0 0.00025902
17350.0 0.00025748
17370.0 0.000256
17390.0 0.00025451
17410.0 0.00025302
17430.0 0.00025157
17450.0 0.00025015
17470.0 0.0002487
17490.0 0.00024728
17510.0 0.0002459
17530.0 0.00024452
17550.0 0.00024314
17570.0 0.0002418
17590.0 0.00024048
17610.0 0.00023914
17630.0 0.00023783
17650.0 0.00023655
17670.0 0.00023527
17690.0 0.00023397
17710.0 0.00023273
17730.0 0.0002315
17750.0 0.00023026
17770.0 0.00022904
17790.0 0.00022787
17810.0 0.00022667
17830.0 0.00022548
17850.0 0.00022432
17870.0 0.00022318
17890.0 0.00022202
17910.0 0.00022089
17930.0 0.00021979
17950.0 0.00021868
17970.0 0.00021758
17990.0 0.00021651
18010.0 0.00021545
18030.0 0.00021437
18050.0 0.00021332
18070.0 0.0002123
18090.0 0.00021126
18110.0 0.00021023
18130.0 0.00020924
18150.0 0.00020825
18170.0 0.00020726
18190.0 0.00020628
18210.0 0.00020533
18230.0 0.00020436
18250.0 0.0002034
18270.0 0.00020248
18290.0 0.00020156
18310.0 0.00020063
18330.0 0.00019972
18350.0 0.00019884
18370.0 0.00019794
18390.0 0.00019705
18410.0 0.00019618
18430.0 0.00019532
18450.0 0.00019444
18470.0 0.0001936
18490.0 0.00019277
18510.0 0.00019193
18530.0 0.00019111
18550.0 0.00019031
18570.0 0.0001895
18590.0 0.00018868
18610.0 0.00018789
18630.0 0.00018712
18650.0 0.00018633
18670.0 0.00018554
18690.0 0.0001848
18710.0 0.00018404
18730.0 0.00018328
18750.0 0.00018255
18770.0 0.00018183
18790.0 0.00018107
18810.0 0.00018035
18830.0 0.00017964
18850.0 0.00017893
18870.0 0.00017822
18890.0 0.00017753
18910.0 0.00017685
18930.0 0.00017615
18950.0 0.00017547
18970.0 0.00017481
18990.0 0.00017414
19010.0 0.00017345
19030.0 0.00017281
19050.0 0.00017217
19070.0 0.00017151
19090.0 0.00017087
19110.0 0.00017026
19130.0 0.00016962
19150.0 0.00016898
19170.0 0.00016837
19190.0 0.00016776
19210.0 0.00016713
19230.0 0.00016653
19250.0 0.00016594
19270.0 0.00016534
19290.0 0.00016475
19310.0 0.00016417
19330.0 0.0001636
19350.0 0.000163
19370.0 0.00016242
19390.0 0.00016187
19410.0 0.0001613
19430.0 0.00016072
19450.0 0.00016018
19470.0 0.00015963
19490.0 0.00015907
19510.0 0.00015853
19530.0 0.000158
19550.0 0.00015745
19570.0 0.0001569
19590.0 0.00015638
19610.0 0.00015586
19630.0 0.00015532
19650.0 0.00015481
19670.0 0.00015431
19690.0 0.00015378
19710.0 0.00015326
19730.0 0.00015277
19750.0 0.00015226
19770.0 0.00015174
19790.0 0.00015125
19810.0 0.00015076
19830.0 0.00015026
19850.0 0.00014975
19870.0 0.00014926
19890.0 0.00014871
19910.0 0.0001481
19930.0 0.00014744
19950.0 0.00014664
19970.0 0.00014563
19990.0 0.00014438
20010.0 0.00014294
20030.0 0.00014117
20050.0 0.00013909
20070.0 0.00013686
20090.0 0.00013449
20110.0 0.00013183
20130.0 0.00012918
20150.0 0.0001266
20170.0 0.00012397
20190.0 0.00012135
20210.0 0.0001189
20230.0 0.00011656
20250.0 0.00011423
20270.0 0.00011211
20290.0 0.0001102
20310.0 0.00010842
20330.0 0.0001068
20350.0 0.00010551
20370.0 0.00010442
20390.0 0.00010354
20410.0 0.00010294
20430.0 0.00010259
20450.0 0.00010248
20470.0 0.00010264
20490.0 0.00010304
20510.0 0.00010367
20530.0 0.00010454
20550.0 0.00010561
20570.0 0.0001068
20590.0 0.0001082
20610.0 0.00010973
20630.0 0.0001113
20650.0 0.00011294
20670.0 0.00011469
20690.0 0.00011637
20710.0 0.00011798
20730.0 0.00011957
20750.0 0.00012106
20770.0 0.00012238
20790.0 0.0001236
20810.0 0.00012469
20830.0 0.0001256
20850.0 0.00012634
20870.0 0.00012696
20890.0 0.00012741
20910.0 0.00012771
20930.0 0.00012789
20950.0 0.00012795
20970.0 0.0001279
20990.0 0.00012776
21010.0 0.00012752
21030.0 0.00012719
21050.0 0.00012681
21070.0 0.00012636
21090.0 0.00012582
21110.0 0.00012525
21130.0 0.00012465
21150.0 0.00012398
21170.0 0.00012329
21190.0 0.00012262
21210.0 0.00012191
21230.0 0.00012119
21250.0 0.00012053
21270.0 0.00011991
21290.0 0.00011931
21310.0 0.00011879
21330.0 0.00011835
21350.0 0.00011799
21370.0 0.0001177
21390.0 0.00011753
21410.0 0.00011745
21430.0 0.00011746
21450.0 0.00011759
21470.0 0.00011781
21490.0 0.00011813
21510.0 0.00011854
21530.0 0.00011903
21550.0 0.00011959
21570.0 0.00012024
21590.0 0.00012095
21610.0 0.0001217
21630.0 0.00012252
21650.0 0.00012341
21670.0 0.0001243
21690.0 0.00012523
21710.0 0.00012624
21730.0 0.00012726
21750.0 0.00012828
21770.0 0.0001294
21790.0 0.00013056
21810.0 0.00013171
21830.0 0.0001329
21850.0 0.00013417
21870.0 0.00013544
21890.0 0.0001367
21910.0 0.00013804
21930.0 0.0001394
21950.0 0.00014073
21970.0 0.00014207
21990.0 0.00014348
22010.0 0.0001448
22030.0 0.00014607
22050.0 0.00014734
22070.0 0.00014855
22090.0 0.00014963
22110.0 0.00015064
22130.0 0.00015157
22150.0 0.00015234
22170.0 0.00015296
22190.0 0.00015345
22210.0 0.00015376
22230.0 0.00015387
22250.0 0.0001538
22270.0 0.00015353
22290.0 0.00015306
22310.0 0.00015241
22330.0 0.00015152
22350.0 0.00015043
22370.0 0.0001492
22390.0 0.00014775
22410.0 0.00014608
22430.0 0.00014434
22450.0 0.00014248
22470.0 0.00014043
22490.0 0.00013831
22510.0 0.00013618
22530.0 0.00013391
22550.0 0.00013156
22570.0 0.00012929
22590.0 0.00012703
22610.0 0.00012471
22630.0 0.00012246
22650.0 0.00012036
22670.0 0.00011824
22690.0 0.00011618
22710.0 0.00011428
22730.0 0.00011246
22750.0 0.00011065
22770.0 0.00010901
22790.0 0.00010751
22810.0 0.00010607
22830.0 0.00010472
22850.0 0.00010352
22870.0 0.0001024
22890.0 0.00010134
22910.0 0.0001004
22930.0 9.9574e-05
22950.0 9.8809e-05
22970.0 9.8122e-05
22990.0 9.757e-05
23010.0 9.7093e-05
23030.0 9.6692e-05
23050.0 9.6391e-05
