#lamb flux
1010.0 1.6734e-07
1030.0 1.8508e-07
1050.0 2.0548e-07
1070.0 2.2845e-07
1090.0 2.5453e-07
1110.0 2.8129e-07
1130.0 3.0822e-07
1150.0 3.3643e-07
1170.0 3.6553e-07
1190.0 3.9312e-07
1210.0 4.2109e-07
1230.0 4.4999e-07
1250.0 4.783e-07
1270.0 5.058e-07
1290.0 5.3485e-07
1310.0 5.6388e-07
1330.0 5.9173e-07
1350.0 6.1988e-07
1370.0 6.4895e-07
1390.0 6.773e-07
1410.0 7.048e-07
1430.0 7.3355e-07
1450.0 7.623e-07
1470.0 7.9009e-07
1490.0 8.1818e-07
1510.0 8.4785e-07
1530.0 8.7597e-07
1550.0 9.0372e-07
1570.0 9.3243e-07
1590.0 9.6117e-07
1610.0 9.8864e-07
1630.0 1.017e-06
1650.0 1.0461e-06
1670.0 1.0742e-06
1690.0 1.102e-06
1710.0 1.1309e-06
1730.0 1.16e-06
1750.0 1.1874e-06
1770.0 1.2156e-06
1790.0 1.2444e-06
1810.0 1.2723e-06
1830.0 1.2998e-06
1850.0 1.329e-06
1870.0 1.3575e-06
1890.0 1.3851e-06
1910.0 1.4133e-06
1930.0 1.4422e-06
1950.0 1.4699e-06
1970.0 1.4973e-06
1990.0 1.5258e-06
2010.0 1.5539e-06
2030.0 1.5811e-06
2050.0 1.6091e-06
2070.0 1.638e-06
2090.0 1.6652e-06
2110.0 1.6924e-06
2130.0 1.7205e-06
2150.0 1.7482e-06
2170.0 1.7746e-06
2190.0 1.8022e-06
2210.0 1.8299e-06
2230.0 1.8566e-06
2250.0 1.8832e-06
2270.0 1.911e-06
2290.0 1.938e-06
2310.0 1.964e-06
2330.0 1.991e-06
2350.0 2.0187e-06
2370.0 2.0463e-06
2390.0 2.0762e-06
2410.0 2.1116e-06
2430.0 2.1524e-06
2450.0 2.2011e-06
2470.0 2.2635e-06
2490.0 2.3422e-06
2510.0 2.4316e-06
2530.0 2.5392e-06
2550.0 2.6739e-06
2570.0 2.8415e-06
2590.0 3.0595e-06
2610.0 3.3859e-06
2630.0 3.8519e-06
2650.0 4.4613e-06
2670.0 5.2491e-06
2690.0 6.2172e-06
2710.0 7.2506e-06
2730.0 8.2717e-06
2750.0 9.2775e-06
2770.0 1.0152e-05
2790.0 1.0847e-05
2810.0 1.1398e-05
2830.0 1.1829e-05
2850.0 1.2123e-05
2870.0 1.2339e-05
2890.0 1.251e-05
2910.0 1.2646e-05
2930.0 1.2758e-05
2950.0 1.2864e-05
2970.0 1.2968e-05
2990.0 1.3066e-05
3010.0 0.0003693
3030.0 0.00037207
3050.0 0.00037473
3070.0 0.00037702
3090.0 0.00037898
3110.0 0.0003802
3130.0 0.00038016
3150.0 0.00037847
3170.0 0.00037441
3190.0 0.00036805
3210.0 0.00035998
3230.0 0.00035073
3250.0 0.00034161
3270.0 0.00033495
3290.0 0.00033125
3310.0 0.00033185
3330.0 0.00033665
3350.0 0.00034501
3370.0 0.00035696
3390.0 0.00037201
3410.0 0.00038838
3430.0 0.00040677
3450.0 0.00042794
3470.0 0.00045106
3490.0 0.00047555
3510.0 0.00050324
3530.0 0.00053289
3550.0 0.00056291
3570.0 0.00059423
3590.0 0.00062829
3610.0 0.00066338
3630.0 0.00069837
3650.0 0.00073467
3670.0 0.0007678
3690.0 0.00079257
3710.0 0.00080677
3730.0 0.00080724
3750.0 0.00079601
3770.0 0.0007916
3790.0 0.00078689
3810.0 0.00076755
3830.0 0.00079131
3850.0 0.00088478
3870.0 0.00093608
3890.0 0.00093181
3910.0 0.00093578
3930.0 0.00096042
3950.0 0.00097559
3970.0 0.00088885
3990.0 0.00076481
4010.0 0.0022922
4030.0 0.0027774
4050.0 0.0031841
4070.0 0.0027627
4090.0 0.0025022
4110.0 0.0022079
4130.0 0.0020322
4150.0 0.0021616
4170.0 0.0021293
4190.0 0.0022697
4210.0 0.0022489
4230.0 0.0023788
4250.0 0.0028141
4270.0 0.0028472
4290.0 0.0026237
4310.0 0.0027262
4330.0 0.0028998
4350.0 0.0032514
4370.0 0.0037002
4390.0 0.0034722
4410.0 0.0025654
4430.0 0.0021717
4450.0 0.0019956
4470.0 0.0015317
4490.0 0.0016529
4510.0 0.0024967
4530.0 0.0028795
4550.0 0.0029044
4570.0 0.0032682
4590.0 0.0037228
4610.0 0.0050212
4630.0 0.0065216
4650.0 0.0070725
4670.0 0.0065498
4690.0 0.0062497
4710.0 0.0066064
4730.0 0.0062345
4750.0 0.0046611
4770.0 0.0034191
4790.0 0.0031928
4810.0 0.0030432
4830.0 0.002786
4850.0 0.0030572
4870.0 0.0040389
4890.0 0.004763
4910.0 0.0041789
4930.0 0.0036977
4950.0 0.0040625
4970.0 0.0052099
4990.0 0.0070607
5010.0 0.0081224
5030.0 0.007162
5050.0 0.0048456
5070.0 0.0031934
5090.0 0.002575
5110.0 0.0026482
5130.0 0.0030564
5150.0 0.0033114
5170.0 0.0032617
5190.0 0.0030478
5210.0 0.0031856
5230.0 0.0033488
5250.0 0.0036091
5270.0 0.0038938
5290.0 0.0043151
5310.0 0.0050226
5330.0 0.0055581
5350.0 0.0055226
5370.0 0.0058009
5390.0 0.0066566
5410.0 0.0066505
5430.0 0.0058814
5450.0 0.0054036
5470.0 0.0057376
5490.0 0.0070096
5510.0 0.0087644
5530.0 0.010052
5550.0 0.0097154
5570.0 0.0088319
5590.0 0.0076794
5610.0 0.0070821
5630.0 0.0068673
5650.0 0.0065404
5670.0 0.0061975
5690.0 0.0055404
5710.0 0.005402
5730.0 0.004976
5750.0 0.0035083
5770.0 0.002737
5790.0 0.0031016
5810.0 0.0035022
5830.0 0.0042977
5850.0 0.0051158
5870.0 0.005676
5890.0 0.0057721
5910.0 0.0056628
5930.0 0.0053903
5950.0 0.0054925
5970.0 0.0062608
5990.0 0.0058867
6010.0 0.0049348
6030.0 0.0041692
6050.0 0.0036308
6070.0 0.003611
6090.0 0.0039155
6110.0 0.0043782
6130.0 0.0044452
6150.0 0.0038247
6170.0 0.0033646
6190.0 0.0037863
6210.0 0.0050055
6230.0 0.0065687
6250.0 0.0071148
6270.0 0.0062173
6290.0 0.005231
6310.0 0.0040837
6330.0 0.0031289
6350.0 0.0027909
6370.0 0.0029349
6390.0 0.0033929
6410.0 0.0041836
6430.0 0.0048853
6450.0 0.0055901
6470.0 0.0064008
6490.0 0.0077317
6510.0 0.0086451
6530.0 0.0084813
6550.0 0.0076694
6570.0 0.0065106
6590.0 0.0058708
6610.0 0.0050621
6630.0 0.0045861
6650.0 0.0043352
6670.0 0.0042115
6690.0 0.0038053
6710.0 0.0034591
6730.0 0.0024915
6750.0 0.0024701
6770.0 0.0026849
6790.0 0.0030861
6810.0 0.0028238
6830.0 0.0029077
6850.0 0.0027196
6870.0 0.0024844
6890.0 0.0023854
6910.0 0.0025419
6930.0 0.0023809
6950.0 0.0024495
6970.0 0.0025765
6990.0 0.0029245
7010.0 0.0029494
7030.0 0.0029963
7050.0 0.0028574
7070.0 0.0027226
7090.0 0.0027306
7110.0 0.0028096
7130.0 0.0030235
7150.0 0.0032112
7170.0 0.0035434
7190.0 0.0038952
7210.0 0.0038275
7230.0 0.0039347
7250.0 0.0042285
7270.0 0.004608
7290.0 0.0054693
7310.0 0.0059347
7330.0 0.0057364
7350.0 0.0051882
7370.0 0.0045142
7390.0 0.0043793
7410.0 0.0046539
7430.0 0.0051722
7450.0 0.0056335
7470.0 0.0055817
7490.0 0.0050894
7510.0 0.0057652
7530.0 0.0057021
7550.0 0.0051252
7570.0 0.0040037
7590.0 0.0027524
7610.0 0.0023624
7630.0 0.0026842
7650.0 0.0031737
7670.0 0.0039499
7690.0 0.0043466
7710.0 0.0045297
7730.0 0.0047602
7750.0 0.0053439
7770.0 0.005428
7790.0 0.0049859
7810.0 0.0045494
7830.0 0.0046915
7850.0 0.0045606
7870.0 0.0041813
7890.0 0.0035131
7910.0 0.0028557
7930.0 0.0027268
7950.0 0.0024842
7970.0 0.0022996
7990.0 0.0022865
8010.0 0.0001712
8030.0 0.00016875
8050.0 0.00016668
8070.0 0.00016925
8090.0 0.00018242
8110.0 0.0001792
8130.0 0.00014689
8150.0 0.00014328
8170.0 0.00012266
8190.0 0.00011571
8210.0 0.0001516
8230.0 0.00016902
8250.0 0.00015099
8270.0 0.00013125
8290.0 0.00012888
8310.0 9.943e-05
8330.0 6.695e-05
8350.0 4.7576e-05
8370.0 2.9588e-05
8390.0 5.4756e-05
8410.0 6.3772e-05
8430.0 7.8604e-05
8450.0 9.227e-05
8470.0 0.00011524
8490.0 0.0001141
8510.0 0.00011189
8530.0 0.00011609
8550.0 0.00015811
8570.0 0.00018796
8590.0 0.00020147
8610.0 0.00025512
8630.0 0.00030696
8650.0 0.00031918
8670.0 0.0003401
8690.0 0.00034369
8710.0 0.00031097
8730.0 0.00028981
8750.0 0.00025535
8770.0 0.00024206
8790.0 0.00023818
8810.0 0.00022867
8830.0 0.00018193
8850.0 0.00013247
8870.0 0.00010132
8890.0 0.00010004
8910.0 0.00011536
8930.0 0.00013172
8950.0 0.00013445
8970.0 0.00013491
8990.0 0.00011972
9010.0 0.0012325
9030.0 0.0011161
9050.0 0.0011216
9070.0 0.0011305
9090.0 0.0011384
9110.0 0.0011481
9130.0 0.0011555
9150.0 0.0011613
9170.0 0.0011675
9190.0 0.0011741
9210.0 0.0011811
9230.0 0.0011884
9250.0 0.0011958
9270.0 0.0012036
9290.0 0.0012115
9310.0 0.0012195
9330.0 0.0012277
9350.0 0.0012362
9370.0 0.0012447
9390.0 0.0012534
9410.0 0.0012623
9430.0 0.0012715
9450.0 0.0012806
9470.0 0.0012899
9490.0 0.0012995
9510.0 0.0013092
9530.0 0.001319
9550.0 0.0013291
9570.0 0.0013393
9590.0 0.0013496
9610.0 0.0013601
9630.0 0.0013709
9650.0 0.0013817
9670.0 0.0013926
9690.0 0.0014037
9710.0 0.0014151
9730.0 0.0014264
9750.0 0.0014379
9770.0 0.0014498
9790.0 0.0014616
9810.0 0.0014736
9830.0 0.0014857
9850.0 0.001498
9870.0 0.0015103
9890.0 0.0015228
9910.0 0.0015354
9930.0 0.0015482
9950.0 0.0015609
9970.0 0.0015739
9990.0 0.0015871
10010.0 0.0013772
10030.0 0.0013885
10050.0 0.0014001
10070.0 0.0014121
10090.0 0.0014234
10110.0 0.001435
10130.0 0.0014466
10150.0 0.0014582
10170.0 0.0014699
10190.0 0.0014818
10210.0 0.0014936
10230.0 0.0015054
10250.0 0.0015173
10270.0 0.0015293
10290.0 0.001541
10310.0 0.001553
10330.0 0.001565
10350.0 0.0015769
10370.0 0.0015887
10390.0 0.0016006
10410.0 0.0016125
10430.0 0.0016242
10450.0 0.0016359
10470.0 0.0016477
10490.0 0.0016593
10510.0 0.0016709
10530.0 0.0016826
10550.0 0.0016941
10570.0 0.0017054
10590.0 0.0017167
10610.0 0.001728
10630.0 0.0017391
10650.0 0.00175
10670.0 0.0017611
10690.0 0.001772
10710.0 0.0017826
10730.0 0.0017932
10750.0 0.0018039
10770.0 0.0018141
10790.0 0.0018243
10810.0 0.0018344
10830.0 0.0018442
10850.0 0.0018536
10870.0 0.0018626
10890.0 0.0018705
10910.0 0.0018767
10930.0 0.0018801
10950.0 0.0018793
10970.0 0.001873
10990.0 0.0018605
11010.0 0.0018372
11030.0 0.001808
11050.0 0.0017723
11070.0 0.0017297
11090.0 0.0016786
11110.0 0.0016256
11130.0 0.0015704
11150.0 0.001511
11170.0 0.0014497
11190.0 0.0013902
11210.0 0.0013288
11230.0 0.0012659
11250.0 0.0012057
11270.0 0.001148
11290.0 0.0010901
11310.0 0.0010353
11330.0 0.00098699
11350.0 0.00094138
11370.0 0.00089923
11390.0 0.00086277
11410.0 0.00083087
11430.0 0.00080123
11450.0 0.00077569
11470.0 0.00075361
11490.0 0.00073306
11510.0 0.00071326
11530.0 0.00069489
11550.0 0.00067664
11570.0 0.00065716
11590.0 0.000637
11610.0 0.00061647
11630.0 0.00059413
11650.0 0.00057022
11670.0 0.00054664
11690.0 0.00052274
11710.0 0.00049808
11730.0 0.00047419
11750.0 0.00045207
11770.0 0.00043039
11790.0 0.00041006
11810.0 0.00039217
11830.0 0.00037617
11850.0 0.00036143
11870.0 0.0003491
11890.0 0.00033885
11910.0 0.00032985
11930.0 0.00032211
11950.0 0.00031566
11970.0 0.0003099
11990.0 0.00030446
12010.0 0.00029942
12030.0 0.00029457
12050.0 0.00028955
12070.0 0.00028433
12090.0 0.0002793
12110.0 0.00027419
12130.0 0.00026908
12150.0 0.00026436
12170.0 0.00026024
12190.0 0.00025668
12210.0 0.00025419
12230.0 0.00025299
12250.0 0.00025318
12270.0 0.00025509
12290.0 0.0002587
12310.0 0.00026388
12330.0 0.00027112
12350.0 0.00028016
12370.0 0.00029045
12390.0 0.00030232
12410.0 0.00031622
12430.0 0.00033036
12450.0 0.00034499
12470.0 0.00036055
12490.0 0.00037618
12510.0 0.00039084
12530.0 0.00040543
12550.0 0.0004195
12570.0 0.00043192
12590.0 0.00044282
12610.0 0.00045254
12630.0 0.00046029
12650.0 0.00046563
12670.0 0.00046915
12690.0 0.00047055
12710.0 0.00046978
12730.0 0.00046705
12750.0 0.00046219
12770.0 0.00045553
12790.0 0.00044744
12810.0 0.00043779
12830.0 0.00042662
12850.0 0.00041494
12870.0 0.00040258
12890.0 0.00038922
12910.0 0.00037563
12930.0 0.00036224
12950.0 0.00034827
12970.0 0.00033405
12990.0 0.00032059
13010.0 0.0003073
13030.0 0.00029387
13050.0 0.00028096
13070.0 0.00026887
13090.0 0.00025674
13110.0 0.000245
13130.0 0.00023418
13150.0 0.00022393
13170.0 0.0002139
13190.0 0.00020497
13210.0 0.00019711
13230.0 0.00018993
13250.0 0.00018374
13270.0 0.00017886
13290.0 0.00017507
13310.0 0.00017245
13330.0 0.00017126
13350.0 0.0001714
13370.0 0.00017294
13390.0 0.00017596
13410.0 0.00018004
13430.0 0.00018534
13450.0 0.0001919
13470.0 0.00019917
13490.0 0.00020688
13510.0 0.00021557
13530.0 0.00022438
13550.0 0.00023281
13570.0 0.00024112
13590.0 0.00024923
13610.0 0.00025644
13630.0 0.00026273
13650.0 0.00026847
13670.0 0.00027324
13690.0 0.00027693
13710.0 0.00027978
13730.0 0.00028182
13750.0 0.00028284
13770.0 0.00028307
13790.0 0.00028256
13810.0 0.00028131
13830.0 0.00027947
13850.0 0.00027697
13870.0 0.00027382
13890.0 0.00027022
13910.0 0.00026616
13930.0 0.00026146
13950.0 0.00025633
13970.0 0.00025109
13990.0 0.00024538
14010.0 0.0002393
14030.0 0.00023324
14050.0 0.00022714
14070.0 0.00022069
14090.0 0.00021452
14110.0 0.00020871
14130.0 0.00020309
14150.0 0.00019779
14170.0 0.00019327
14190.0 0.00018936
14210.0 0.00018605
14230.0 0.00018359
14250.0 0.00018201
14270.0 0.00018124
14290.0 0.0001814
14310.0 0.00018241
14330.0 0.00018423
14350.0 0.0001869
14370.0 0.00019023
14390.0 0.00019401
14410.0 0.00019846
14430.0 0.00020335
14450.0 0.00020834
14470.0 0.00021352
14490.0 0.00021903
14510.0 0.0002243
14530.0 0.00022931
14550.0 0.00023431
14570.0 0.00023911
14590.0 0.00024348
14610.0 0.00024771
14630.0 0.00025189
14650.0 0.00025579
14670.0 0.00025955
14690.0 0.00026347
14710.0 0.0002676
14730.0 0.00027173
14750.0 0.0002763
14770.0 0.00028148
14790.0 0.0002871
14810.0 0.00029319
14830.0 0.0003004
14850.0 0.00030825
14870.0 0.00031643
14890.0 0.00032525
14910.0 0.00033463
14930.0 0.00034364
14950.0 0.00035206
14970.0 0.00036004
14990.0 0.00036673
15010.0 0.00037184
15030.0 0.00037563
15050.0 0.00037813
15070.0 0.00037935
15090.0 0.00037978
15110.0 0.00037966
15130.0 0.00037918
15150.0 0.00037854
15170.0 0.00037778
15190.0 0.00037697
15210.0 0.00037617
15230.0 0.00037537
15250.0 0.00037454
15270.0 0.00037372
15290.0 0.00037294
15310.0 0.00037215
15330.0 0.00037134
15350.0 0.00037057
15370.0 0.0003698
15390.0 0.00036899
15410.0 0.00036821
15430.0 0.00036746
15450.0 0.00036668
15470.0 0.0003659
15490.0 0.00036515
15510.0 0.00036441
15530.0 0.00036364
15550.0 0.00036288
15570.0 0.00036216
15590.0 0.0003614
15610.0 0.00036063
15630.0 0.00035991
15650.0 0.00035918
15670.0 0.00035842
15690.0 0.00035769
15710.0 0.00035699
15730.0 0.00035625
15750.0 0.00035551
15770.0 0.0003548
15790.0 0.00035408
15810.0 0.00035333
15830.0 0.00035261
15850.0 0.00035191
15870.0 0.00035119
15890.0 0.00035046
15910.0 0.00034977
15930.0 0.00034906
15950.0 0.00034833
15970.0 0.00034762
15990.0 0.00034692
16010.0 0.0003462
16030.0 0.00034547
16050.0 0.00034479
16070.0 0.00034409
16090.0 0.00034337
16110.0 0.00034267
16130.0 0.00034199
16150.0 0.00034125
16170.0 0.00034053
16190.0 0.00033985
16210.0 0.00033914
16230.0 0.00033842
16250.0 0.00033772
16270.0 0.00033704
16290.0 0.00033631
16310.0 0.0003356
16330.0 0.00033491
16350.0 0.00033421
16370.0 0.00033346
16390.0 0.00033277
16410.0 0.00033208
16430.0 0.00033135
16450.0 0.00033064
16470.0 0.00032995
16490.0 0.00032923
16510.0 0.0003285
16530.0 0.0003278
16550.0 0.00032709
16570.0 0.00032636
16590.0 0.00032563
16610.0 0.00032494
16630.0 0.00032421
16650.0 0.00032348
16670.0 0.00032277
16690.0 0.00032206
16710.0 0.00032131
16730.0 0.00032058
16750.0 0.00031987
16770.0 0.00031913
16790.0 0.00031838
16810.0 0.00031767
16830.0 0.00031695
16850.0 0.00031619
16870.0 0.00031546
16890.0 0.00031474
16910.0 0.00031398
16930.0 0.00031321
16950.0 0.00031249
16970.0 0.00031175
16990.0 0.00031098
17010.0 0.00031024
17030.0 0.00030951
17050.0 0.00030874
17070.0 0.00030797
17090.0 0.00030723
17110.0 0.00030648
17130.0 0.00030569
17150.0 0.00030493
17170.0 0.00030418
17190.0 0.00030341
17210.0 0.00030263
17230.0 0.00030188
17250.0 0.00030111
17270.0 0.00030031
17290.0 0.00029954
17310.0 0.00029877
17330.0 0.00029798
17350.0 0.00029717
17370.0 0.00029642
17390.0 0.00029563
17410.0 0.00029483
17430.0 0.00029405
17450.0 0.00029328
17470.0 0.00029245
17490.0 0.00029164
17510.0 0.00029086
17530.0 0.00029006
17550.0 0.00028924
17570.0 0.00028845
17590.0 0.00028766
17610.0 0.00028684
17630.0 0.00028602
17650.0 0.00028523
17670.0 0.00028441
17690.0 0.00028356
17710.0 0.00028276
17730.0 0.00028195
17750.0 0.00028112
17770.0 0.00028029
17790.0 0.0002795
17810.0 0.00027866
17830.0 0.00027781
17850.0 0.00027699
17870.0 0.00027617
17890.0 0.00027532
17910.0 0.00027447
17930.0 0.00027366
17950.0 0.00027282
17970.0 0.00027197
17990.0 0.00027115
18010.0 0.00027032
18030.0 0.00026944
18050.0 0.0002686
18070.0 0.00026777
18090.0 0.00026691
18110.0 0.00026604
18130.0 0.00026521
18150.0 0.00026437
18170.0 0.0002635
18190.0 0.00026265
18210.0 0.00026181
18230.0 0.00026094
18250.0 0.00026006
18270.0 0.00025922
18290.0 0.00025836
18310.0 0.00025748
18330.0 0.00025662
18350.0 0.00025579
18370.0 0.0002549
18390.0 0.00025403
18410.0 0.00025318
18430.0 0.00025231
18450.0 0.00025141
18470.0 0.00025055
18490.0 0.0002497
18510.0 0.00024882
18530.0 0.00024794
18550.0 0.00024709
18570.0 0.00024621
18590.0 0.00024531
18610.0 0.00024444
18630.0 0.00024358
18650.0 0.00024269
18670.0 0.0002418
18690.0 0.00024095
18710.0 0.00024007
18730.0 0.00023918
18750.0 0.00023831
18770.0 0.00023745
18790.0 0.00023654
18810.0 0.00023565
18830.0 0.00023479
18850.0 0.0002339
18870.0 0.000233
18890.0 0.00023214
18910.0 0.00023127
18930.0 0.00023037
18950.0 0.00022948
18970.0 0.00022862
18990.0 0.00022773
19010.0 0.00022681
19030.0 0.00022595
19050.0 0.00022508
19070.0 0.00022418
19090.0 0.00022329
19110.0 0.00022244
19130.0 0.00022154
19150.0 0.00022064
19170.0 0.00021976
19190.0 0.00021889
19210.0 0.00021798
19230.0 0.00021709
19250.0 0.00021623
19270.0 0.00021534
19290.0 0.00021445
19310.0 0.00021358
19330.0 0.00021271
19350.0 0.00021179
19370.0 0.00021091
19390.0 0.00021004
19410.0 0.00020915
19430.0 0.00020825
19450.0 0.00020739
19470.0 0.00020652
19490.0 0.00020562
19510.0 0.00020474
19530.0 0.00020388
19550.0 0.00020298
19570.0 0.00020208
19590.0 0.00020122
19610.0 0.00020034
19630.0 0.00019944
19650.0 0.00019857
19670.0 0.00019772
19690.0 0.00019682
19710.0 0.00019593
19730.0 0.00019507
19750.0 0.00019419
19770.0 0.00019329
19790.0 0.00019242
19810.0 0.00019156
19830.0 0.00019067
19850.0 0.00018977
19870.0 0.0001889
19890.0 0.00018795
19910.0 0.00018692
19930.0 0.00018581
19950.0 0.00018454
19970.0 0.00018298
19990.0 0.0001811
20010.0 0.00016112
20030.0 0.00015879
20050.0 0.00015606
20070.0 0.0001531
20090.0 0.00014992
20110.0 0.00014632
20130.0 0.00014268
20150.0 0.00013907
20170.0 0.00013533
20190.0 0.00013153
20210.0 0.00012795
20230.0 0.00012445
20250.0 0.00012094
20270.0 0.00011769
20290.0 0.00011472
20310.0 0.0001119
20330.0 0.00010926
20350.0 0.00010707
20370.0 0.00010513
20390.0 0.00010342
20410.0 0.00010205
20430.0 0.00010099
20450.0 0.00010015
20470.0 9.9584e-05
20490.0 9.9281e-05
20510.0 9.9194e-05
20530.0 9.9317e-05
20550.0 9.9623e-05
20570.0 0.00010007
20590.0 0.00010067
20610.0 0.0001014
20630.0 0.00010221
20650.0 0.00010311
20670.0 0.00010414
20690.0 0.00010519
20710.0 0.00010628
20730.0 0.00010745
20750.0 0.00010867
20770.0 0.00010987
20790.0 0.00011114
20810.0 0.00011247
20830.0 0.0001138
20850.0 0.00011514
20870.0 0.00011657
20890.0 0.00011802
20910.0 0.00011943
20930.0 0.00012089
20950.0 0.0001224
20970.0 0.00012387
20990.0 0.00012533
21010.0 0.00012686
21030.0 0.00012835
21050.0 0.00012978
21070.0 0.0001312
21090.0 0.00013263
21110.0 0.00013394
21130.0 0.00013516
21150.0 0.00013635
21170.0 0.00013742
21190.0 0.00013834
21210.0 0.00013917
21230.0 0.00013986
21250.0 0.00014036
21270.0 0.00014067
21290.0 0.00014079
21310.0 0.00014067
21330.0 0.00014034
21350.0 0.00013976
21370.0 0.0001389
21390.0 0.00013782
21410.0 0.00013649
21430.0 0.0001348
21450.0 0.0001329
21470.0 0.00013084
21490.0 0.00012851
21510.0 0.00012595
21530.0 0.00012335
21550.0 0.00012063
21570.0 0.00011773
21590.0 0.00011487
21610.0 0.00011211
21630.0 0.00010935
21650.0 0.00010665
21670.0 0.00010431
21690.0 0.00010215
21710.0 0.00010021
21730.0 9.8616e-05
21750.0 9.7388e-05
21770.0 9.6452e-05
21790.0 9.5914e-05
21810.0 9.5765e-05
21830.0 9.5977e-05
21850.0 9.6577e-05
21870.0 9.7513e-05
21890.0 9.8722e-05
21910.0 0.00010027
21930.0 0.00010209
21950.0 0.00010406
21970.0 0.00010624
21990.0 0.00010869
22010.0 0.00011114
22030.0 0.00011362
22050.0 0.00011624
22070.0 0.00011886
22090.0 0.00012135
22110.0 0.00012385
22130.0 0.00012635
22150.0 0.00012869
22170.0 0.00013089
22190.0 0.00013308
22210.0 0.00013511
22230.0 0.00013689
22250.0 0.00013858
22270.0 0.00014013
22290.0 0.00014145
22310.0 0.00014259
22330.0 0.00014359
22350.0 0.00014437
22370.0 0.00014491
22390.0 0.00014525
22410.0 0.00014536
22430.0 0.00014522
22450.0 0.00014485
22470.0 0.0001442
22490.0 0.00014329
22510.0 0.00014216
22530.0 0.00014071
22550.0 0.00013895
22570.0 0.000137
22590.0 0.00013479
22610.0 0.00013226
22630.0 0.00012952
22650.0 0.00012668
22670.0 0.00012354
22690.0 0.0001202
22710.0 0.00011682
22730.0 0.00011334
22750.0 0.00010956
22770.0 0.00010588
22790.0 0.00010228
22810.0 9.858e-05
22830.0 9.4893e-05
22850.0 9.1441e-05
22870.0 8.8057e-05
22890.0 8.469e-05
22910.0 8.1589e-05
22930.0 7.8747e-05
22950.0 7.6039e-05
