#lamb flux
1010.0 0.00028684
1030.0 0.00031916
1050.0 0.00036294
1070.0 0.00042841
1090.0 0.00051429
1110.0 0.00060643
1130.0 0.00070276
1150.0 0.00080587
1170.0 0.00091274
1190.0 0.0010126
1210.0 0.0011091
1230.0 0.0012008
1250.0 0.0012856
1270.0 0.0013547
1290.0 0.0014125
1310.0 0.0014528
1330.0 0.0014718
1350.0 0.0014742
1370.0 0.0014626
1390.0 0.0014346
1410.0 0.0013928
1430.0 0.0013442
1450.0 0.0012884
1470.0 0.0012265
1490.0 0.0011633
1510.0 0.0011019
1530.0 0.0010399
1550.0 0.00098047
1570.0 0.00092592
1590.0 0.00087589
1610.0 0.00083214
1630.0 0.00080457
1650.0 0.00078472
1670.0 0.00077201
1690.0 0.00076737
1710.0 0.00077222
1730.0 0.00078625
1750.0 0.00080856
1770.0 0.00084151
1790.0 0.00088548
1810.0 0.0009399
1830.0 0.0010056
1850.0 0.0010848
1870.0 0.0011762
1890.0 0.0012795
1910.0 0.0013963
1930.0 0.0015269
1950.0 0.0016686
1970.0 0.0018217
1990.0 0.0019871
2010.0 0.0021617
2030.0 0.0023431
2050.0 0.0025321
2070.0 0.0027271
2090.0 0.0029218
2110.0 0.0031165
2130.0 0.003311
2150.0 0.0035007
2170.0 0.0036821
2190.0 0.0038584
2210.0 0.0040265
2230.0 0.0041827
2250.0 0.0043285
2270.0 0.004467
2290.0 0.0045936
2310.0 0.0047081
2330.0 0.0048164
2350.0 0.0049187
2370.0 0.0050135
2390.0 0.0051073
2410.0 0.0052076
2430.0 0.0053133
2450.0 0.0054303
2470.0 0.0055703
2490.0 0.0057396
2510.0 0.0059306
2530.0 0.0061614
2550.0 0.0064515
2570.0 0.0068081
2590.0 0.0072508
2610.0 0.0078567
2630.0 0.0086348
2650.0 0.0095573
2670.0 0.010651
2690.0 0.011903
2710.0 0.013185
2730.0 0.014442
2750.0 0.015719
2770.0 0.016945
2790.0 0.018112
2810.0 0.019303
2830.0 0.020596
2850.0 0.02191
2870.0 0.023301
2890.0 0.02482
2910.0 0.026422
2930.0 0.02804
2950.0 0.02977
2970.0 0.031594
2990.0 0.033433
3010.0 0.035319
3030.0 0.037318
3050.0 0.039368
3070.0 0.041367
3090.0 0.043402
3110.0 0.045389
3130.0 0.047192
3150.0 0.048766
3170.0 0.050058
3190.0 0.050994
3210.0 0.051674
3230.0 0.052151
3250.0 0.052419
3270.0 0.052614
3290.0 0.05285
3310.0 0.053212
3330.0 0.05371
3350.0 0.054303
3370.0 0.054947
3390.0 0.05516
3410.0 0.055508
3430.0 0.057184
3450.0 0.058368
3470.0 0.058598
3490.0 0.060828
3510.0 0.06977
3530.0 0.0859
3550.0 0.097297
3570.0 0.1064
3590.0 0.11976
3610.0 0.11935
3630.0 0.10999
3650.0 0.11551
3670.0 0.1363
3690.0 0.15293
3710.0 0.15851
3730.0 0.15981
3750.0 0.17069
3770.0 0.17162
3790.0 0.16351
3810.0 0.15414
3830.0 0.14612
3850.0 0.14709
3870.0 0.15361
3890.0 0.1583
3910.0 0.16064
3930.0 0.16073
3950.0 0.17201
3970.0 0.18532
3990.0 0.18018
4010.0 0.16074
4030.0 0.14483
4050.0 0.14361
4070.0 0.15011
4090.0 0.14879
4110.0 0.14319
4130.0 0.14239
4150.0 0.14903
4170.0 0.1647
4190.0 0.17304
4210.0 0.16302
4230.0 0.14997
4250.0 0.14193
4270.0 0.1369
4290.0 0.1378
4310.0 0.14149
4330.0 0.13463
4350.0 0.11931
4370.0 0.10643
4390.0 0.097471
4410.0 0.092548
4430.0 0.095195
4450.0 0.10475
4470.0 0.11505
4490.0 0.12303
4510.0 0.13613
4530.0 0.15999
4550.0 0.18503
4570.0 0.20033
4590.0 0.21348
4610.0 0.22499
4630.0 0.22691
4650.0 0.21058
4670.0 0.18332
4690.0 0.16201
4710.0 0.1549
4730.0 0.148
4750.0 0.13025
4770.0 0.1165
4790.0 0.12004
4810.0 0.13012
4830.0 0.12722
4850.0 0.11305
4870.0 0.11566
4890.0 0.11863
4910.0 0.12033
4930.0 0.11837
4950.0 0.11615
4970.0 0.11101
4990.0 0.10253
5010.0 0.096522
5030.0 0.094848
5050.0 0.094337
5070.0 0.094182
5090.0 0.094043
5110.0 0.093927
5130.0 0.095841
5150.0 0.10058
5170.0 0.1095
5190.0 0.12125
5210.0 0.13073
5230.0 0.1364
5250.0 0.13957
5270.0 0.1441
5290.0 0.14765
5310.0 0.14689
5330.0 0.1418
5350.0 0.1368
5370.0 0.13698
5390.0 0.14056
5410.0 0.14318
5430.0 0.14202
5450.0 0.13997
5470.0 0.13687
5490.0 0.13372
5510.0 0.13256
5530.0 0.13322
5550.0 0.13461
5570.0 0.13512
5590.0 0.13153
5610.0 0.12493
5630.0 0.11879
5650.0 0.11326
5670.0 0.10941
5690.0 0.10502
5710.0 0.10247
5730.0 0.10294
5750.0 0.10188
5770.0 0.10006
5790.0 0.10099
5810.0 0.10393
5830.0 0.10619
5850.0 0.10682
5870.0 0.10417
5890.0 0.1
5910.0 0.096295
5930.0 0.091453
5950.0 0.08736
5970.0 0.087839
5990.0 0.089971
6010.0 0.089926
6030.0 0.086843
6050.0 0.086282
6070.0 0.089284
6090.0 0.092341
6110.0 0.092092
6130.0 0.087496
6150.0 0.081474
6170.0 0.07814
6190.0 0.076331
6210.0 0.074734
6230.0 0.07324
6250.0 0.07319
6270.0 0.075271
6290.0 0.078284
6310.0 0.081684
6330.0 0.085265
6350.0 0.087444
6370.0 0.087705
6390.0 0.087212
6410.0 0.087911
6430.0 0.089015
6450.0 0.088973
6470.0 0.089155
6490.0 0.089675
6510.0 0.089647
6530.0 0.08856
6550.0 0.086311
6570.0 0.083563
6590.0 0.081157
6610.0 0.079276
6630.0 0.077729
6650.0 0.075202
6670.0 0.072408
6690.0 0.070248
6710.0 0.06901
6730.0 0.068319
6750.0 0.067656
6770.0 0.066759
6790.0 0.06555
6810.0 0.064377
6830.0 0.064002
6850.0 0.063672
6870.0 0.063128
6890.0 0.063034
6910.0 0.062184
6930.0 0.061145
6950.0 0.061001
6970.0 0.060462
6990.0 0.059205
7010.0 0.058238
7030.0 0.0572
7050.0 0.056109
7070.0 0.054776
7090.0 0.053609
7110.0 0.054386
7130.0 0.05593
7150.0 0.057147
7170.0 0.057886
7190.0 0.05779
7210.0 0.057051
7230.0 0.056121
7250.0 0.055541
7270.0 0.054562
7290.0 0.053752
7310.0 0.053305
7330.0 0.053859
7350.0 0.054014
7370.0 0.053841
7390.0 0.053345
7410.0 0.052519
7430.0 0.051984
7450.0 0.05144
7470.0 0.049881
7490.0 0.048212
7510.0 0.046191
7530.0 0.044568
7550.0 0.043705
7570.0 0.044295
7590.0 0.04401
7610.0 0.043525
7630.0 0.043085
7650.0 0.043302
7670.0 0.044202
7690.0 0.046003
7710.0 0.047237
7730.0 0.048999
7750.0 0.05011
7770.0 0.051013
7790.0 0.051102
7810.0 0.050124
7830.0 0.050276
7850.0 0.04981
7870.0 0.048561
7890.0 0.046924
7910.0 0.045528
7930.0 0.044479
7950.0 0.043839
7970.0 0.043859
7990.0 0.04421
8010.0 0.044088
8030.0 0.043623
8050.0 0.042821
8070.0 0.04204
8090.0 0.041181
8110.0 0.041336
8130.0 0.0417
8150.0 0.041772
8170.0 0.041423
8190.0 0.040872
8210.0 0.039268
8230.0 0.036736
8250.0 0.035178
8270.0 0.034275
8290.0 0.033839
8310.0 0.033992
8330.0 0.034759
8350.0 0.034148
8370.0 0.033406
8390.0 0.033867
8410.0 0.034931
8430.0 0.036732
8450.0 0.038382
8470.0 0.03882
8490.0 0.039178
8510.0 0.038969
8530.0 0.038739
8550.0 0.039033
8570.0 0.039079
8590.0 0.03896
8610.0 0.040028
8630.0 0.040329
8650.0 0.039453
8670.0 0.039374
8690.0 0.039521
8710.0 0.038976
8730.0 0.038642
8750.0 0.037461
8770.0 0.036962
8790.0 0.036563
8810.0 0.0362
8830.0 0.034619
8850.0 0.032129
8870.0 0.030203
8890.0 0.029142
8910.0 0.027358
8930.0 0.025471
8950.0 0.024798
8970.0 0.024616
8990.0 0.024642
9010.0 0.024455
9030.0 0.02428
9050.0 0.024119
9070.0 0.023962
9090.0 0.023806
9110.0 0.023651
9130.0 0.023495
9150.0 0.02334
9170.0 0.023185
9190.0 0.02303
9210.0 0.022875
9230.0 0.022721
9250.0 0.022568
9270.0 0.022415
9290.0 0.022262
9310.0 0.02211
9330.0 0.021958
9350.0 0.021807
9370.0 0.021655
9390.0 0.021505
9410.0 0.021356
9430.0 0.021206
9450.0 0.021055
9470.0 0.020909
9490.0 0.020765
9510.0 0.020618
9530.0 0.020472
9550.0 0.020327
9570.0 0.020182
9590.0 0.020039
9610.0 0.019896
9630.0 0.019754
9650.0 0.019613
9670.0 0.019473
9690.0 0.019333
9710.0 0.019194
9730.0 0.019057
9750.0 0.018919
9770.0 0.018783
9790.0 0.018648
9810.0 0.018513
9830.0 0.018376
9850.0 0.018219
9870.0 0.018092
9890.0 0.017969
9910.0 0.017845
9930.0 0.017712
9950.0 0.017587
9970.0 0.017462
9990.0 0.017334
10010.0 0.017192
10030.0 0.017061
10050.0 0.016945
10070.0 0.016829
10090.0 0.016712
10110.0 0.016588
10130.0 0.01645
10150.0 0.016334
10170.0 0.01622
10190.0 0.016102
10210.0 0.015986
10230.0 0.015872
10250.0 0.015754
10270.0 0.015637
10290.0 0.015524
10310.0 0.015407
10330.0 0.015289
10350.0 0.015176
10370.0 0.015064
10390.0 0.014949
10410.0 0.014835
10430.0 0.014726
10450.0 0.014614
10470.0 0.014501
10490.0 0.014392
10510.0 0.014283
10530.0 0.01417
10550.0 0.01406
10570.0 0.013954
10590.0 0.013845
10610.0 0.013735
10630.0 0.01363
10650.0 0.013525
10670.0 0.013415
10690.0 0.013308
10710.0 0.013204
10730.0 0.013098
10750.0 0.012989
10770.0 0.012886
10790.0 0.012783
10810.0 0.012676
10830.0 0.012572
10850.0 0.012472
10870.0 0.012366
10890.0 0.012261
10910.0 0.012161
10930.0 0.012062
10950.0 0.011961
10970.0 0.011866
10990.0 0.011776
11010.0 0.011677
11030.0 0.011599
11050.0 0.011525
11070.0 0.011452
11090.0 0.011376
11110.0 0.011303
11130.0 0.01123
11150.0 0.011154
11170.0 0.011076
11190.0 0.011
11210.0 0.010923
11230.0 0.010843
11250.0 0.010766
11270.0 0.010692
11290.0 0.010616
11310.0 0.010542
11330.0 0.010475
11350.0 0.010408
11370.0 0.010342
11390.0 0.010281
11410.0 0.010223
11430.0 0.010164
11450.0 0.010107
11470.0 0.010052
11490.0 0.0099969
11510.0 0.0099392
11530.0 0.0098828
11550.0 0.0098255
11570.0 0.009764
11590.0 0.0097008
11610.0 0.0096374
11630.0 0.0095694
11650.0 0.0094972
11670.0 0.0094264
11690.0 0.0093542
11710.0 0.0092784
11730.0 0.0092031
11750.0 0.0091309
11770.0 0.0090566
11790.0 0.0089824
11810.0 0.0089123
11830.0 0.0088441
11850.0 0.0087745
11870.0 0.0087094
11890.0 0.0086489
11910.0 0.008589
11930.0 0.0085312
11950.0 0.0084784
11970.0 0.008428
11990.0 0.0083785
12010.0 0.0083338
12030.0 0.0082936
12050.0 0.0082558
12070.0 0.0082214
12090.0 0.0081935
12110.0 0.0081693
12130.0 0.0081492
12150.0 0.0081344
12170.0 0.0081247
12190.0 0.0081193
12210.0 0.0081191
12230.0 0.0081236
12250.0 0.0081326
12270.0 0.008146
12290.0 0.008163
12310.0 0.0081827
12330.0 0.0082058
12350.0 0.008231
12370.0 0.0082567
12390.0 0.0082832
12410.0 0.0083105
12430.0 0.0083353
12450.0 0.0083579
12470.0 0.0083781
12490.0 0.0083943
12510.0 0.0084054
12530.0 0.0084116
12550.0 0.0084114
12570.0 0.0084047
12590.0 0.0083913
12610.0 0.0083696
12630.0 0.0083399
12650.0 0.008305
12670.0 0.0082621
12690.0 0.0082114
12710.0 0.0081566
12730.0 0.0080974
12750.0 0.0080299
12770.0 0.0079602
12790.0 0.00789
12810.0 0.0078161
12830.0 0.0077389
12850.0 0.0076649
12870.0 0.0075915
12890.0 0.0075156
12910.0 0.0074418
12930.0 0.0073716
12950.0 0.0072998
12970.0 0.0072279
12990.0 0.0071611
13010.0 0.0070956
13030.0 0.0070293
13050.0 0.0069659
13070.0 0.0069066
13090.0 0.0068468
13110.0 0.0067886
13130.0 0.0067349
13150.0 0.0066836
13170.0 0.0066325
13190.0 0.0065862
13210.0 0.0065443
13230.0 0.0065037
13250.0 0.0064655
13270.0 0.0064313
13290.0 0.0063987
13310.0 0.0063664
13330.0 0.0063365
13350.0 0.006308
13370.0 0.0062789
13390.0 0.0062491
13410.0 0.0062209
13430.0 0.0061915
13450.0 0.0061602
13470.0 0.0061288
13490.0 0.0060972
13510.0 0.0060621
13530.0 0.0060264
13550.0 0.0059909
13570.0 0.005954
13590.0 0.0059148
13610.0 0.0058761
13630.0 0.0058377
13650.0 0.0057969
13670.0 0.0057558
13690.0 0.0057157
13710.0 0.0056746
13730.0 0.0056308
13750.0 0.0055893
13770.0 0.0055477
13790.0 0.0055043
13810.0 0.0054605
13830.0 0.0054183
13850.0 0.0053739
13870.0 0.0053278
13890.0 0.0052825
13910.0 0.0052367
13930.0 0.005188
13950.0 0.0051386
13970.0 0.0050908
13990.0 0.0050404
14010.0 0.0049883
14030.0 0.0049372
14050.0 0.0048859
14070.0 0.0048312
14090.0 0.0047779
14110.0 0.0047264
14130.0 0.0046742
14150.0 0.0046216
14170.0 0.0045728
14190.0 0.0045255
14210.0 0.0044782
14230.0 0.0044335
14250.0 0.0043919
14270.0 0.0043504
14290.0 0.00431
14310.0 0.0042731
14330.0 0.0042372
14350.0 0.0042013
14370.0 0.004167
14390.0 0.0041346
14410.0 0.0041016
14430.0 0.004069
14450.0 0.0040382
14470.0 0.004008
14490.0 0.0039773
14510.0 0.0039486
14530.0 0.0039216
14550.0 0.0038948
14570.0 0.003869
14590.0 0.0038452
14610.0 0.0038221
14630.0 0.0037991
14650.0 0.0037778
14670.0 0.0037578
14690.0 0.0037381
14710.0 0.003719
14730.0 0.0037019
14750.0 0.0036854
14770.0 0.0036697
14790.0 0.0036556
14810.0 0.0036432
14830.0 0.0036317
14850.0 0.0036223
14870.0 0.003615
14890.0 0.0036095
14910.0 0.0036057
14930.0 0.0036035
14950.0 0.0036024
14970.0 0.0036017
14990.0 0.003601
15010.0 0.0035997
15030.0 0.0035975
15050.0 0.0035942
15070.0 0.0035901
15090.0 0.0035852
15110.0 0.0035797
15130.0 0.0035738
15150.0 0.0035679
15170.0 0.0035616
15190.0 0.0035552
15210.0 0.003549
15230.0 0.0035428
15250.0 0.0035363
15270.0 0.0035299
15290.0 0.0035237
15310.0 0.0035174
15330.0 0.0035109
15350.0 0.0035047
15370.0 0.0034984
15390.0 0.0034919
15410.0 0.0034855
15430.0 0.0034793
15450.0 0.0034729
15470.0 0.0034664
15490.0 0.0034602
15510.0 0.003454
15530.0 0.0034476
15550.0 0.0034412
15570.0 0.0034351
15590.0 0.0034287
15610.0 0.0034223
15630.0 0.0034161
15650.0 0.0034099
15670.0 0.0034036
15690.0 0.0033974
15710.0 0.0033913
15730.0 0.0033851
15750.0 0.0033788
15770.0 0.0033728
15790.0 0.0033667
15810.0 0.0033604
15830.0 0.0033543
15850.0 0.0033484
15870.0 0.0033423
15890.0 0.0033362
15910.0 0.0033304
15930.0 0.0033244
15950.0 0.0033183
15970.0 0.0033124
15990.0 0.0033066
16010.0 0.0033007
16030.0 0.0032947
16050.0 0.0032891
16070.0 0.0032834
16090.0 0.0032775
16110.0 0.0032718
16130.0 0.0032663
16150.0 0.0032605
16170.0 0.0032548
16190.0 0.0032493
16210.0 0.0032437
16230.0 0.0032381
16250.0 0.0032326
16270.0 0.0032273
16290.0 0.0032217
16310.0 0.0032163
16330.0 0.003211
16350.0 0.0032057
16370.0 0.0032001
16390.0 0.0031949
16410.0 0.0031898
16430.0 0.0031845
16450.0 0.0031792
16470.0 0.0031742
16490.0 0.003169
16510.0 0.0031638
16530.0 0.0031588
16550.0 0.0031538
16570.0 0.0031487
16590.0 0.0031436
16610.0 0.0031388
16630.0 0.0031338
16650.0 0.0031288
16670.0 0.003124
16690.0 0.0031192
16710.0 0.0031142
16730.0 0.0031094
16750.0 0.0031047
16770.0 0.0030998
16790.0 0.003095
16810.0 0.0030903
16830.0 0.0030857
16850.0 0.0030809
16870.0 0.0030762
16890.0 0.0030717
16910.0 0.003067
16930.0 0.0030622
16950.0 0.0030577
16970.0 0.0030531
16990.0 0.0030484
17010.0 0.0030438
17030.0 0.0030394
17050.0 0.0030348
17070.0 0.0030302
17090.0 0.0030257
17110.0 0.0030212
17130.0 0.0030165
17150.0 0.003012
17170.0 0.0030076
17190.0 0.003003
17210.0 0.0029984
17230.0 0.0029941
17250.0 0.0029895
17270.0 0.0029849
17290.0 0.0029804
17310.0 0.0029759
17330.0 0.0029713
17350.0 0.0029667
17370.0 0.0029623
17390.0 0.0029577
17410.0 0.0029531
17430.0 0.0029485
17450.0 0.0029441
17470.0 0.0029393
17490.0 0.0029346
17510.0 0.0029301
17530.0 0.0029255
17550.0 0.0029207
17570.0 0.002916
17590.0 0.0029115
17610.0 0.0029066
17630.0 0.0029018
17650.0 0.0028972
17670.0 0.0028924
17690.0 0.0028873
17710.0 0.0028826
17730.0 0.0028778
17750.0 0.0028728
17770.0 0.0028679
17790.0 0.0028631
17810.0 0.002858
17830.0 0.0028529
17850.0 0.0028479
17870.0 0.0028428
17890.0 0.0028376
17910.0 0.0028324
17930.0 0.0028273
17950.0 0.002822
17970.0 0.0028167
17990.0 0.0028115
18010.0 0.0028062
18030.0 0.0028006
18050.0 0.0027952
18070.0 0.0027898
18090.0 0.0027842
18110.0 0.0027785
18130.0 0.0027731
18150.0 0.0027675
18170.0 0.0027617
18190.0 0.0027559
18210.0 0.0027503
18230.0 0.0027443
18250.0 0.0027383
18270.0 0.0027325
18290.0 0.0027265
18310.0 0.0027204
18330.0 0.0027143
18350.0 0.0027083
18370.0 0.0027021
18390.0 0.0026958
18410.0 0.0026896
18430.0 0.0026833
18450.0 0.0026767
18470.0 0.0026703
18490.0 0.0026639
18510.0 0.0026573
18530.0 0.0026507
18550.0 0.0026442
18570.0 0.0026375
18590.0 0.0026306
18610.0 0.0026238
18630.0 0.002617
18650.0 0.00261
18670.0 0.002603
18690.0 0.0025961
18710.0 0.0025891
18730.0 0.0025819
18750.0 0.0025748
18770.0 0.0025677
18790.0 0.0025603
18810.0 0.0025529
18830.0 0.0025456
18850.0 0.0025382
18870.0 0.0025306
18890.0 0.0025232
18910.0 0.0025158
18930.0 0.002508
18950.0 0.0025004
18970.0 0.0024928
18990.0 0.002485
19010.0 0.002477
19030.0 0.0024693
19050.0 0.0024615
19070.0 0.0024534
19090.0 0.0024455
19110.0 0.0024376
19130.0 0.0024294
19150.0 0.0024212
19170.0 0.0024132
19190.0 0.002405
19210.0 0.0023967
19230.0 0.0023884
19250.0 0.0023802
19270.0 0.0023719
19290.0 0.0023634
19310.0 0.0023551
19330.0 0.0023467
19350.0 0.0023381
19370.0 0.0023296
19390.0 0.0023211
19410.0 0.0023125
19430.0 0.0023038
19450.0 0.0022953
19470.0 0.0022866
19490.0 0.0022779
19510.0 0.0022692
19530.0 0.0022605
19550.0 0.0022517
19570.0 0.0022428
19590.0 0.0022341
19610.0 0.0022253
19630.0 0.0022163
19650.0 0.0022075
19670.0 0.0021987
19690.0 0.0021897
19710.0 0.0021807
19730.0 0.0021719
19750.0 0.002163
19770.0 0.0021538
19790.0 0.0021449
19810.0 0.002136
19830.0 0.0021269
19850.0 0.0021178
19870.0 0.0021088
19890.0 0.0020994
19910.0 0.0020894
19930.0 0.0020789
19950.0 0.0020676
19970.0 0.0020545
19990.0 0.0020396
20010.0 0.0020232
20030.0 0.0020044
20050.0 0.0019831
20070.0 0.0019607
20090.0 0.0019371
20110.0 0.0019113
20130.0 0.0018855
20150.0 0.0018602
20170.0 0.0018344
20190.0 0.0018086
20210.0 0.001784
20230.0 0.0017601
20250.0 0.001736
20270.0 0.0017132
20290.0 0.0016918
20310.0 0.0016708
20330.0 0.0016503
20350.0 0.001632
20370.0 0.0016144
20390.0 0.0015975
20410.0 0.0015819
20430.0 0.0015676
20450.0 0.0015537
20470.0 0.0015408
20490.0 0.0015291
20510.0 0.0015183
20530.0 0.001508
20550.0 0.0014987
20570.0 0.0014903
20590.0 0.0014824
20610.0 0.0014751
20630.0 0.0014686
20650.0 0.0014625
20670.0 0.0014567
20690.0 0.0014514
20710.0 0.0014464
20730.0 0.0014416
20750.0 0.0014368
20770.0 0.0014322
20790.0 0.0014274
20810.0 0.0014224
20830.0 0.0014171
20850.0 0.0014116
20870.0 0.0014055
20890.0 0.0013988
20910.0 0.0013918
20930.0 0.0013841
20950.0 0.0013757
20970.0 0.0013668
20990.0 0.0013575
21010.0 0.0013473
21030.0 0.0013366
21050.0 0.0013257
21070.0 0.0013143
21090.0 0.0013023
21110.0 0.0012904
21130.0 0.0012784
21150.0 0.001266
21170.0 0.0012536
21190.0 0.0012416
21210.0 0.0012293
21230.0 0.001217
21250.0 0.0012052
21270.0 0.0011936
21290.0 0.001182
21310.0 0.0011708
21330.0 0.0011602
21350.0 0.0011497
21370.0 0.0011394
21390.0 0.0011296
21410.0 0.0011202
21430.0 0.0011107
21450.0 0.0011017
21470.0 0.0010932
21490.0 0.0010848
21510.0 0.0010764
21530.0 0.0010685
21550.0 0.0010607
21570.0 0.0010528
21590.0 0.0010451
21610.0 0.0010377
21630.0 0.0010302
21650.0 0.0010226
21670.0 0.0010154
21690.0 0.0010082
21710.0 0.0010008
21730.0 0.00099353
21750.0 0.0009865
21770.0 0.00097911
21790.0 0.00097175
21810.0 0.00096462
21830.0 0.00095741
21850.0 0.00094995
21870.0 0.00094266
21890.0 0.00093555
21910.0 0.00092814
21930.0 0.0009207
21950.0 0.00091348
21970.0 0.00090614
21990.0 0.00089845
22010.0 0.00089111
22030.0 0.00088387
22050.0 0.00087642
22070.0 0.00086901
22090.0 0.00086199
22110.0 0.00085488
22130.0 0.0008477
22150.0 0.00084088
22170.0 0.00083431
22190.0 0.00082762
22210.0 0.00082117
22230.0 0.00081526
22250.0 0.00080944
22270.0 0.00080374
22290.0 0.00079849
22310.0 0.00079355
22330.0 0.00078859
22350.0 0.00078398
22370.0 0.00077974
22390.0 0.00077562
22410.0 0.00077155
22430.0 0.00076789
22450.0 0.00076441
22470.0 0.00076092
22490.0 0.00075761
22510.0 0.00075456
22530.0 0.00075144
22550.0 0.00074835
22570.0 0.00074552
22590.0 0.00074278
22610.0 0.00073999
22630.0 0.00073735
22650.0 0.00073497
22670.0 0.00073255
22690.0 0.00073023
22710.0 0.00072815
22730.0 0.00072622
22750.0 0.00072427
22770.0 0.00072262
22790.0 0.00072125
22810.0 0.00072001
22830.0 0.00071897
22850.0 0.00071829
22870.0 0.00071785
22890.0 0.00071763
22910.0 0.0007178
22930.0 0.00071834
22950.0 0.00071922
22970.0 0.00072051
22990.0 0.00072225
23010.0 0.0007244
23030.0 0.00072701
23050.0 0.00073005
23070.0 0.00073347
23090.0 0.0007374
23110.0 0.00074173
23130.0 0.00074635
23150.0 0.00075134
23170.0 0.00075674
23190.0 0.00076232
23210.0 0.00076804
23230.0 0.00077413
23250.0 0.00078039
23270.0 0.00078667
23290.0 0.00079316
23310.0 0.00079994
23330.0 0.00080659
23350.0 0.00081328
23370.0 0.00082014
23390.0 0.00082703
23410.0 0.00083377
23430.0 0.00084063
23450.0 0.00084786
23470.0 0.00085504
23490.0 0.00086221
23510.0 0.00086956
23530.0 0.00087692
23550.0 0.00088414
23570.0 0.00089149
23590.0 0.00089895
23610.0 0.00090634
23630.0 0.00091377
23650.0 0.00092145
23670.0 0.00092917
23690.0 0.00093693
23710.0 0.00094493
23730.0 0.00095324
23750.0 0.00096157
23770.0 0.00097014
23790.0 0.00097913
23810.0 0.00098832
23830.0 0.00099762
23850.0 0.0010074
23870.0 0.0010175
23890.0 0.0010276
23910.0 0.0010379
23930.0 0.0010486
23950.0 0.0010593
23970.0 0.0010698
23990.0 0.0010807
24010.0 0.0010915
24030.0 0.0011021
24050.0 0.0011126
24070.0 0.0011232
24090.0 0.0011333
24110.0 0.001143
24130.0 0.0011526
24150.0 0.0011618
24170.0 0.0011706
24190.0 0.0011792
24210.0 0.0011875
24230.0 0.0011956
24250.0 0.0012034
24270.0 0.0012112
24290.0 0.0012189
