#lamb flux
1010.0 9.0235e-05
1030.0 9.714e-05
1050.0 0.00010882
1070.0 0.00012195
1090.0 0.0001359
1110.0 0.00015035
1130.0 0.000165
1150.0 0.00018038
1170.0 0.0001962
1190.0 0.000211
1210.0 0.00022568
1230.0 0.00024043
1250.0 0.00025451
1270.0 0.0002675
1290.0 0.00028058
1310.0 0.00029287
1330.0 0.00030382
1350.0 0.00031429
1370.0 0.00032471
1390.0 0.0003344
1410.0 0.00034354
1430.0 0.00035334
1450.0 0.00036342
1470.0 0.00037353
1490.0 0.00038448
1510.0 0.00039704
1530.0 0.00040994
1550.0 0.00042387
1570.0 0.00043956
1590.0 0.00045671
1610.0 0.00047484
1630.0 0.0004953
1650.0 0.00051776
1670.0 0.00054138
1690.0 0.00056638
1710.0 0.00059341
1730.0 0.00062187
1750.0 0.00065056
1770.0 0.00068056
1790.0 0.00071149
1810.0 0.00074217
1830.0 0.00077242
1850.0 0.00080313
1870.0 0.00083242
1890.0 0.00085969
1910.0 0.00088542
1930.0 0.00090928
1950.0 0.00092964
1970.0 0.0009468
1990.0 0.00096137
2010.0 0.00097224
2030.0 0.000979
2050.0 0.00098283
2070.0 0.00098373
2090.0 0.0009805
2110.0 0.00097438
2130.0 0.00096621
2150.0 0.0009556
2170.0 0.00094267
2190.0 0.00092904
2210.0 0.00091469
2230.0 0.00089942
2250.0 0.00088418
2270.0 0.00086992
2290.0 0.00085603
2310.0 0.00084276
2330.0 0.00083121
2350.0 0.00082133
2370.0 0.00081279
2390.0 0.00080639
2410.0 0.0008028
2430.0 0.00080144
2450.0 0.00080267
2470.0 0.0008075
2490.0 0.00081627
2510.0 0.00082837
2530.0 0.0008463
2550.0 0.00087355
2570.0 0.00091314
2590.0 0.00096963
2610.0 0.0010563
2630.0 0.001177
2650.0 0.0013274
2670.0 0.0015113
2690.0 0.0017245
2710.0 0.001941
2730.0 0.0021465
2750.0 0.0023415
2770.0 0.0025071
2790.0 0.0026395
2810.0 0.0027487
2830.0 0.0028418
2850.0 0.0029222
2870.0 0.0030006
2890.0 0.0030835
2910.0 0.0031733
2930.0 0.0032703
2950.0 0.003378
2970.0 0.0034966
2990.0 0.0036241
3010.0 0.0046324
3030.0 0.0048155
3050.0 0.0050094
3070.0 0.0052066
3090.0 0.0054066
3110.0 0.0055982
3130.0 0.005767
3150.0 0.0059112
3170.0 0.0059996
3190.0 0.0063965
3210.0 0.0079875
3230.0 0.010516
3250.0 0.011691
3270.0 0.010767
3290.0 0.009209
3310.0 0.0083871
3330.0 0.0080606
3350.0 0.0080492
3370.0 0.0081313
3390.0 0.0082602
3410.0 0.0083495
3430.0 0.0081234
3450.0 0.0080684
3470.0 0.0080777
3490.0 0.0089261
3510.0 0.011248
3530.0 0.013554
3550.0 0.01572
3570.0 0.018121
3590.0 0.019459
3610.0 0.019514
3630.0 0.019314
3650.0 0.019931
3670.0 0.022239
3690.0 0.026021
3710.0 0.029809
3730.0 0.032693
3750.0 0.035102
3770.0 0.03491
3790.0 0.032721
3810.0 0.030221
3830.0 0.027368
3850.0 0.025651
3870.0 0.025809
3890.0 0.028508
3910.0 0.032333
3930.0 0.036374
3950.0 0.040756
3970.0 0.04351
3990.0 0.042899
4010.0 0.040473
4030.0 0.035873
4050.0 0.031462
4070.0 0.029186
4090.0 0.028879
4110.0 0.030084
4130.0 0.030551
4150.0 0.03071
4170.0 0.031312
4190.0 0.032657
4210.0 0.032697
4230.0 0.032973
4250.0 0.033485
4270.0 0.034487
4290.0 0.035707
4310.0 0.036964
4330.0 0.036766
4350.0 0.035213
4370.0 0.032897
4390.0 0.029799
4410.0 0.026243
4430.0 0.023911
4450.0 0.02318
4470.0 0.023759
4490.0 0.025459
4510.0 0.028873
4530.0 0.035217
4550.0 0.044858
4570.0 0.053256
4590.0 0.060879
4610.0 0.070139
4630.0 0.076653
4650.0 0.076101
4670.0 0.070255
4690.0 0.062262
4710.0 0.054467
4730.0 0.047512
4750.0 0.041428
4770.0 0.037284
4790.0 0.03744
4810.0 0.039656
4830.0 0.04123
4850.0 0.041971
4870.0 0.044114
4890.0 0.046645
4910.0 0.049016
4930.0 0.051671
4950.0 0.053591
4970.0 0.052855
4990.0 0.049141
5010.0 0.0439
5030.0 0.038565
5050.0 0.03466
5070.0 0.032183
5090.0 0.03069
5110.0 0.030391
5130.0 0.030443
5150.0 0.030648
5170.0 0.032025
5190.0 0.034748
5210.0 0.03873
5230.0 0.042701
5250.0 0.046808
5270.0 0.051187
5290.0 0.05501
5310.0 0.057489
5330.0 0.058596
5350.0 0.058219
5370.0 0.057349
5390.0 0.057494
5410.0 0.059306
5430.0 0.062519
5450.0 0.066667
5470.0 0.070287
5490.0 0.071686
5510.0 0.071197
5530.0 0.06987
5550.0 0.068089
5570.0 0.065762
5590.0 0.063434
5610.0 0.061143
5630.0 0.058505
5650.0 0.054896
5670.0 0.050704
5690.0 0.047227
5710.0 0.044729
5730.0 0.042346
5750.0 0.040977
5770.0 0.040863
5790.0 0.041078
5810.0 0.040719
5830.0 0.040301
5850.0 0.039714
5870.0 0.038376
5890.0 0.03723
5910.0 0.036152
5930.0 0.033776
5950.0 0.030532
5970.0 0.02742
5990.0 0.02495
6010.0 0.023373
6030.0 0.02255
6050.0 0.022636
6070.0 0.023597
6090.0 0.024255
6110.0 0.02432
6130.0 0.024329
6150.0 0.024577
6170.0 0.024915
6190.0 0.025013
6210.0 0.024569
6230.0 0.023228
6250.0 0.021402
6270.0 0.019696
6290.0 0.018395
6310.0 0.01837
6330.0 0.019668
6350.0 0.021386
6370.0 0.022816
6390.0 0.024465
6410.0 0.026616
6430.0 0.028281
6450.0 0.029251
6470.0 0.030041
6490.0 0.030773
6510.0 0.031192
6530.0 0.031372
6550.0 0.031692
6570.0 0.03157
6590.0 0.030894
6610.0 0.029963
6630.0 0.028795
6650.0 0.027237
6670.0 0.025584
6690.0 0.02441
6710.0 0.023614
6730.0 0.022747
6750.0 0.022199
6770.0 0.022374
6790.0 0.022637
6810.0 0.022438
6830.0 0.022013
6850.0 0.021813
6870.0 0.021613
6890.0 0.021179
6910.0 0.021107
6930.0 0.021135
6950.0 0.020924
6970.0 0.020622
6990.0 0.020206
7010.0 0.019648
7030.0 0.018774
7050.0 0.017449
7070.0 0.016258
7090.0 0.016096
7110.0 0.016607
7130.0 0.016837
7150.0 0.016776
7170.0 0.017095
7190.0 0.017847
7210.0 0.018408
7230.0 0.018852
7250.0 0.019285
7270.0 0.019024
7290.0 0.018456
7310.0 0.018235
7330.0 0.018644
7350.0 0.019359
7370.0 0.019836
7390.0 0.020363
7410.0 0.021157
7430.0 0.02173
7450.0 0.021936
7470.0 0.021803
7490.0 0.020836
7510.0 0.019787
7530.0 0.01954
7550.0 0.019164
7570.0 0.018774
7590.0 0.018746
7610.0 0.018847
7630.0 0.019216
7650.0 0.020261
7670.0 0.021642
7690.0 0.022958
7710.0 0.023921
7730.0 0.02478
7750.0 0.025591
7770.0 0.026304
7790.0 0.026977
7810.0 0.027236
7830.0 0.026614
7850.0 0.025752
7870.0 0.025045
7890.0 0.024558
7910.0 0.024489
7930.0 0.024138
7950.0 0.023635
7970.0 0.02301
7990.0 0.022631
8010.0 0.021368
8030.0 0.021386
8050.0 0.021356
8070.0 0.02115
8090.0 0.020988
8110.0 0.020906
8130.0 0.021007
8150.0 0.020947
8170.0 0.020742
8190.0 0.0202
8210.0 0.019304
8230.0 0.018491
8250.0 0.018181
8270.0 0.017419
8290.0 0.01579
8310.0 0.014065
8330.0 0.012922
8350.0 0.012523
8370.0 0.013238
8390.0 0.014572
8410.0 0.015603
8430.0 0.016509
8450.0 0.017794
8470.0 0.019086
8490.0 0.020608
8510.0 0.022223
8530.0 0.02384
8550.0 0.025131
8570.0 0.026103
8590.0 0.026862
8610.0 0.027481
8630.0 0.027591
8650.0 0.027162
8670.0 0.027275
8690.0 0.028472
8710.0 0.030047
8730.0 0.030691
8750.0 0.030383
8770.0 0.030568
8790.0 0.030625
8810.0 0.029676
8830.0 0.027563
8850.0 0.024926
8870.0 0.022985
8890.0 0.022341
8910.0 0.021712
8930.0 0.02029
8950.0 0.018935
8970.0 0.018469
8990.0 0.018666
9010.0 0.018575
9030.0 0.018329
9050.0 0.018171
9070.0 0.018074
9090.0 0.017986
9110.0 0.017899
9130.0 0.017814
9150.0 0.017729
9170.0 0.017644
9190.0 0.017566
9210.0 0.017499
9230.0 0.01741
9250.0 0.017325
9270.0 0.017244
9290.0 0.017164
9310.0 0.017085
9330.0 0.017008
9350.0 0.016933
9370.0 0.016858
9390.0 0.016784
9410.0 0.01671
9430.0 0.016635
9450.0 0.016541
9470.0 0.016455
9490.0 0.016404
9510.0 0.016344
9530.0 0.016283
9550.0 0.016218
9570.0 0.016152
9590.0 0.016087
9610.0 0.016022
9630.0 0.015956
9650.0 0.015891
9670.0 0.015828
9690.0 0.015764
9710.0 0.0157
9730.0 0.015638
9750.0 0.015576
9770.0 0.015513
9790.0 0.015451
9810.0 0.01539
9830.0 0.015329
9850.0 0.015265
9870.0 0.015206
9890.0 0.015146
9910.0 0.015085
9930.0 0.015025
9950.0 0.014939
9970.0 0.014886
9990.0 0.01483
10010.0 0.014774
10030.0 0.014715
10050.0 0.014656
10070.0 0.014598
10090.0 0.014539
10110.0 0.014472
10130.0 0.014383
10150.0 0.014326
10170.0 0.014274
10190.0 0.014213
10210.0 0.014155
10230.0 0.014096
10250.0 0.01403
10270.0 0.013964
10290.0 0.013901
10310.0 0.013834
10330.0 0.013761
10350.0 0.013694
10370.0 0.013626
10390.0 0.013553
10410.0 0.01348
10430.0 0.013412
10450.0 0.013338
10470.0 0.013261
10490.0 0.013187
10510.0 0.013113
10530.0 0.01303
10550.0 0.01295
10570.0 0.012873
10590.0 0.012791
10610.0 0.012705
10630.0 0.012624
10650.0 0.01254
10670.0 0.01245
10690.0 0.012361
10710.0 0.012275
10730.0 0.012183
10750.0 0.012085
10770.0 0.011995
10790.0 0.011901
10810.0 0.011802
10830.0 0.011703
10850.0 0.011608
10870.0 0.011503
10890.0 0.011398
10910.0 0.011296
10930.0 0.011191
10950.0 0.01108
10970.0 0.010971
10990.0 0.010867
11010.0 0.011034
11030.0 0.010917
11050.0 0.010807
11070.0 0.010697
11090.0 0.010582
11110.0 0.010476
11130.0 0.010375
11150.0 0.010272
11170.0 0.010172
11190.0 0.01008
11210.0 0.0099889
11230.0 0.0098982
11250.0 0.0098144
11270.0 0.0097356
11290.0 0.0096569
11310.0 0.0095819
11330.0 0.0095147
11350.0 0.0094481
11370.0 0.0093818
11390.0 0.0093189
11410.0 0.009257
11430.0 0.0091902
11450.0 0.0091224
11470.0 0.0090536
11490.0 0.008979
11510.0 0.0088967
11530.0 0.0088123
11550.0 0.0087229
11570.0 0.0086239
11590.0 0.0085198
11610.0 0.0084135
11630.0 0.0082981
11650.0 0.0081747
11670.0 0.0080521
11690.0 0.0079257
11710.0 0.0077913
11730.0 0.0076548
11750.0 0.0075202
11770.0 0.0073777
11790.0 0.0072304
11810.0 0.0070848
11830.0 0.0069372
11850.0 0.0067801
11870.0 0.0066257
11890.0 0.0064754
11910.0 0.0063207
11930.0 0.0061653
11950.0 0.0060175
11970.0 0.0058714
11990.0 0.0057238
12010.0 0.0055846
12030.0 0.0054537
12050.0 0.0053254
12070.0 0.0052019
12090.0 0.0050922
12110.0 0.0049885
12130.0 0.0048903
12150.0 0.0048025
12170.0 0.0047252
12190.0 0.0046533
12210.0 0.0045919
12230.0 0.0045416
12250.0 0.0045003
12270.0 0.0044683
12290.0 0.0044464
12310.0 0.0044331
12330.0 0.0044283
12350.0 0.0044314
12370.0 0.0044403
12390.0 0.0044549
12410.0 0.0044761
12430.0 0.0044989
12450.0 0.0045234
12470.0 0.0045507
12490.0 0.0045786
12510.0 0.0046043
12530.0 0.0046303
12550.0 0.0046557
12570.0 0.0046773
12590.0 0.0046955
12610.0 0.0047115
12630.0 0.0047226
12650.0 0.0047271
12670.0 0.0047266
12690.0 0.0047199
12710.0 0.0047059
12730.0 0.0046851
12750.0 0.0046566
12770.0 0.0046209
12790.0 0.0045789
12810.0 0.0045303
12830.0 0.0044749
12850.0 0.0044165
12870.0 0.004355
12890.0 0.0042892
12910.0 0.0042224
12930.0 0.0041567
12950.0 0.0040893
12970.0 0.004022
12990.0 0.0039586
13010.0 0.003897
13030.0 0.0038362
13050.0 0.0037784
13070.0 0.0037245
13090.0 0.0036713
13110.0 0.0036201
13130.0 0.0035723
13150.0 0.0035265
13170.0 0.0034812
13190.0 0.003439
13210.0 0.0033996
13230.0 0.0033611
13250.0 0.0033242
13270.0 0.00329
13290.0 0.003257
13310.0 0.0032246
13330.0 0.003194
13350.0 0.0031648
13370.0 0.0031357
13390.0 0.0031068
13410.0 0.0030794
13430.0 0.0030519
13450.0 0.0030238
13470.0 0.002996
13490.0 0.0029685
13510.0 0.0029395
13530.0 0.0029103
13550.0 0.0028815
13570.0 0.0028521
13590.0 0.0028217
13610.0 0.0027918
13630.0 0.0027623
13650.0 0.0027318
13670.0 0.0027014
13690.0 0.002672
13710.0 0.0026424
13730.0 0.002612
13750.0 0.0025832
13770.0 0.002555
13790.0 0.0025265
13810.0 0.0024986
13830.0 0.0024722
13850.0 0.0024456
13870.0 0.0024193
13890.0 0.0023945
13910.0 0.0023706
13930.0 0.0023469
13950.0 0.0023244
13970.0 0.0023037
13990.0 0.0022836
14010.0 0.0022641
14030.0 0.0022462
14050.0 0.0022291
14070.0 0.0022121
14090.0 0.0021961
14110.0 0.0021812
14130.0 0.0021664
14150.0 0.0021518
14170.0 0.0021382
14190.0 0.0021251
14210.0 0.002112
14230.0 0.0020996
14250.0 0.0020881
14270.0 0.0020766
14290.0 0.0020656
14310.0 0.0020557
14330.0 0.0020463
14350.0 0.0020372
14370.0 0.0020288
14390.0 0.0020212
14410.0 0.0020136
14430.0 0.0020065
14450.0 0.0019999
14470.0 0.0019936
14490.0 0.0019871
14510.0 0.001981
14530.0 0.0019752
14550.0 0.0019691
14570.0 0.001963
14590.0 0.0019572
14610.0 0.0019513
14630.0 0.0019453
14650.0 0.0019399
14670.0 0.0019351
14690.0 0.0019312
14710.0 0.0019286
14730.0 0.0019283
14750.0 0.0019303
14770.0 0.0019357
14790.0 0.0019448
14810.0 0.001958
14830.0 0.0019769
14850.0 0.0020013
14870.0 0.0020301
14890.0 0.0020643
14910.0 0.0021037
14930.0 0.0021446
14950.0 0.0021856
14970.0 0.0022268
14990.0 0.0022642
15010.0 0.0022958
15030.0 0.0023223
15050.0 0.0023436
15070.0 0.0023591
15090.0 0.0023711
15110.0 0.0023807
15130.0 0.0023887
15150.0 0.0023958
15170.0 0.0024027
15190.0 0.0024094
15210.0 0.0024162
15230.0 0.0024232
15250.0 0.0024302
15270.0 0.0024374
15290.0 0.0024448
15310.0 0.0024522
15330.0 0.0024599
15350.0 0.0024676
15370.0 0.0024756
15390.0 0.0024836
15410.0 0.0024918
15430.0 0.0025001
15450.0 0.0025085
15470.0 0.0025171
15490.0 0.0025258
15510.0 0.0025346
15530.0 0.0025436
15550.0 0.0025526
15570.0 0.0025618
15590.0 0.0025711
15610.0 0.0025805
15630.0 0.0025901
15650.0 0.0025997
15670.0 0.0026095
15690.0 0.0026193
15710.0 0.0026293
15730.0 0.0026393
15750.0 0.0026495
15770.0 0.0026597
15790.0 0.0026701
15810.0 0.0026805
15830.0 0.002691
15850.0 0.0027016
15870.0 0.0027123
15890.0 0.002723
15910.0 0.0027339
15930.0 0.0027448
15950.0 0.0027557
15970.0 0.0027668
15990.0 0.0027779
16010.0 0.002789
16030.0 0.0028002
16050.0 0.0028115
16070.0 0.0028228
16090.0 0.0028341
16110.0 0.0028455
16130.0 0.0028569
16150.0 0.0028684
16170.0 0.0028799
16190.0 0.0028914
16210.0 0.0029029
16230.0 0.0029144
16250.0 0.002926
16270.0 0.0029376
16290.0 0.0029492
16310.0 0.0029607
16330.0 0.0029723
16350.0 0.0029839
16370.0 0.0029954
16390.0 0.003007
16410.0 0.0030185
16430.0 0.00303
16450.0 0.0030414
16470.0 0.0030529
16490.0 0.0030643
16510.0 0.0030756
16530.0 0.0030869
16550.0 0.0030982
16570.0 0.0031094
16590.0 0.0031205
16610.0 0.0031316
16630.0 0.0031426
16650.0 0.0031536
16670.0 0.0031644
16690.0 0.0031752
16710.0 0.0031859
16730.0 0.0031965
16750.0 0.003207
16770.0 0.0032174
16790.0 0.0032277
16810.0 0.0032379
16830.0 0.003248
16850.0 0.003258
16870.0 0.0032678
16890.0 0.0032776
16910.0 0.0032872
16930.0 0.0032966
16950.0 0.003306
16970.0 0.0033151
16990.0 0.0033242
17010.0 0.0033331
17030.0 0.0033418
17050.0 0.0033504
17070.0 0.0033588
17090.0 0.003367
17110.0 0.0033751
17130.0 0.003383
17150.0 0.0033908
17170.0 0.0033983
17190.0 0.0034057
17210.0 0.0034128
17230.0 0.0034198
17250.0 0.0034266
17270.0 0.0034332
17290.0 0.0034396
17310.0 0.0034458
17330.0 0.0034518
17350.0 0.0034576
17370.0 0.0034631
17390.0 0.0034685
17410.0 0.0034736
17430.0 0.0034785
17450.0 0.0034832
17470.0 0.0034876
17490.0 0.0034919
17510.0 0.0034959
17530.0 0.0034996
17550.0 0.0035032
17570.0 0.0035065
17590.0 0.0035095
17610.0 0.0035124
17630.0 0.0035149
17650.0 0.0035173
17670.0 0.0035194
17690.0 0.0035212
17710.0 0.0035228
17730.0 0.0035242
17750.0 0.0035253
17770.0 0.0035261
17790.0 0.0035267
17810.0 0.0035271
17830.0 0.0035272
17850.0 0.003527
17870.0 0.0035266
17890.0 0.003526
17910.0 0.003525
17930.0 0.0035239
17950.0 0.0035225
17970.0 0.0035208
17990.0 0.0035189
18010.0 0.0035167
18030.0 0.0035143
18050.0 0.0035116
18070.0 0.0035087
18090.0 0.0035055
18110.0 0.0035021
18130.0 0.0034984
18150.0 0.0034945
18170.0 0.0034904
18190.0 0.0034859
18210.0 0.0034813
18230.0 0.0034764
18250.0 0.0034713
18270.0 0.0034659
18290.0 0.0034603
18310.0 0.0034545
18330.0 0.0034484
18350.0 0.0034421
18370.0 0.0034356
18390.0 0.0034288
18410.0 0.0034218
18430.0 0.0034146
18450.0 0.0034072
18470.0 0.0033996
18490.0 0.0033917
18510.0 0.0033836
18530.0 0.0033753
18550.0 0.0033669
18570.0 0.0033582
18590.0 0.0033493
18610.0 0.0033402
18630.0 0.0033309
18650.0 0.0033214
18670.0 0.0033117
18690.0 0.0033019
18710.0 0.0032918
18730.0 0.0032816
18750.0 0.0032712
18770.0 0.0032606
18790.0 0.0032498
18810.0 0.0032389
18830.0 0.0032278
18850.0 0.0032165
18870.0 0.0032051
18890.0 0.0031935
18910.0 0.0031818
18930.0 0.0031699
18950.0 0.0031579
18970.0 0.0031458
18990.0 0.0031334
19010.0 0.003121
19030.0 0.0031084
19050.0 0.0030957
19070.0 0.0030829
19090.0 0.0030699
19110.0 0.0030569
19130.0 0.0030437
19150.0 0.0030304
19170.0 0.003017
19190.0 0.0030035
19210.0 0.0029898
19230.0 0.0029761
19250.0 0.0029623
19270.0 0.0029484
19290.0 0.0029344
19310.0 0.0029203
19330.0 0.0029062
19350.0 0.0028919
19370.0 0.0028776
19390.0 0.0028632
19410.0 0.0028488
19430.0 0.0028343
19450.0 0.0028197
19470.0 0.0028051
19490.0 0.0027904
19510.0 0.0027756
19530.0 0.0027608
19550.0 0.002746
19570.0 0.0027311
19590.0 0.0027161
19610.0 0.0027012
19630.0 0.0026862
19650.0 0.0026711
19670.0 0.0026561
19690.0 0.002641
19710.0 0.0026259
19730.0 0.0026107
19750.0 0.0025956
19770.0 0.0025804
19790.0 0.0025652
19810.0 0.00255
19830.0 0.0025348
19850.0 0.0025194
19870.0 0.0025038
19890.0 0.0024878
19910.0 0.0024708
19930.0 0.0024526
19950.0 0.0024323
19970.0 0.002409
19990.0 0.0023821
20010.0 0.002352
20030.0 0.0023175
20050.0 0.0022788
20070.0 0.002238
20090.0 0.0021954
20110.0 0.0021495
20130.0 0.0021041
20150.0 0.0020598
20170.0 0.0020151
20190.0 0.0019707
20210.0 0.0019286
20230.0 0.0018876
20250.0 0.0018468
20270.0 0.0018081
20290.0 0.0017716
20310.0 0.0017361
20330.0 0.0017015
20350.0 0.0016703
20370.0 0.0016406
20390.0 0.0016122
20410.0 0.0015859
20430.0 0.001562
20450.0 0.001539
20470.0 0.0015179
20490.0 0.0014989
20510.0 0.0014813
20530.0 0.0014649
20550.0 0.0014501
20570.0 0.0014366
20590.0 0.0014241
20610.0 0.0014124
20630.0 0.0014016
20650.0 0.0013915
20670.0 0.0013818
20690.0 0.0013725
20710.0 0.0013634
20730.0 0.0013543
20750.0 0.0013453
20770.0 0.001336
20790.0 0.0013265
20810.0 0.0013167
20830.0 0.0013064
20850.0 0.0012957
20870.0 0.0012844
20890.0 0.0012726
20910.0 0.0012603
20930.0 0.0012475
20950.0 0.0012341
20970.0 0.0012204
20990.0 0.0012064
21010.0 0.0011918
21030.0 0.001177
21050.0 0.0011621
21070.0 0.0011469
21090.0 0.0011315
21110.0 0.0011163
21130.0 0.0011012
21150.0 0.0010859
21170.0 0.0010708
21190.0 0.0010562
21210.0 0.0010414
21230.0 0.0010268
21250.0 0.0010127
21270.0 0.00099893
21290.0 0.00098523
21310.0 0.00097194
21330.0 0.00095927
21350.0 0.00094676
21370.0 0.00093457
21390.0 0.00092297
21410.0 0.00091181
21430.0 0.00090082
21450.0 0.00089046
21470.0 0.00088065
21490.0 0.00087119
21510.0 0.00086215
21530.0 0.00085366
21550.0 0.00084555
21570.0 0.00083776
21590.0 0.00083039
21610.0 0.00082338
21630.0 0.00081662
21650.0 0.00081012
21670.0 0.00080389
21690.0 0.00079783
21710.0 0.00079191
21730.0 0.00078612
21750.0 0.00078043
21770.0 0.00077481
21790.0 0.00076924
21810.0 0.00076373
21830.0 0.00075826
21850.0 0.0007528
21870.0 0.00074737
21890.0 0.00074197
21910.0 0.00073658
21930.0 0.0007312
21950.0 0.00072584
21970.0 0.00072047
21990.0 0.00071507
22010.0 0.00070967
22030.0 0.00070424
22050.0 0.00069873
22070.0 0.00069316
22090.0 0.00068755
22110.0 0.00068183
22130.0 0.00067596
22150.0 0.00067002
22170.0 0.00066399
22190.0 0.00065773
22210.0 0.00065135
22230.0 0.00064494
22250.0 0.00063834
22270.0 0.00063155
22290.0 0.00062472
22310.0 0.00061781
22330.0 0.0006106
22350.0 0.00060333
22370.0 0.00059604
22390.0 0.00058855
22410.0 0.0005808
22430.0 0.00057314
22450.0 0.0005654
22470.0 0.0005574
22490.0 0.00054935
22510.0 0.00054139
22530.0 0.00053316
22550.0 0.00052479
22570.0 0.00051662
22590.0 0.00050845
22610.0 0.00050014
22630.0 0.00049195
22650.0 0.00048409
22670.0 0.00047615
22690.0 0.00046832
22710.0 0.00046084
22730.0 0.00045359
22750.0 0.00044631
22770.0 0.00043947
22790.0 0.00043303
22810.0 0.00042675
22830.0 0.00042072
22850.0 0.00041514
22870.0 0.0004098
22890.0 0.00040462
22910.0 0.0003998
22930.0 0.00039529
22950.0 0.00039093
22970.0 0.00038673
22990.0 0.00038288
23010.0 0.00037916
23030.0 0.00037553
23050.0 0.00037209
23070.0 0.0003688
23090.0 0.00036553
23110.0 0.00036236
23130.0 0.00035933
23150.0 0.00035634
23170.0 0.00035338
23190.0 0.00035051
23210.0 0.00034773
23230.0 0.00034494
23250.0 0.00034219
23270.0 0.00033952
23290.0 0.00033686
23310.0 0.00033418
23330.0 0.00033158
23350.0 0.00032903
23370.0 0.00032647
23390.0 0.00032394
23410.0 0.00032151
23430.0 0.00031908
23450.0 0.0003167
23470.0 0.00031444
23490.0 0.00031226
23510.0 0.00031013
23530.0 0.00030812
23550.0 0.00030628
23570.0 0.00030455
23590.0 0.00030296
23610.0 0.00030157
23630.0 0.00030036
23650.0 0.00029934
23670.0 0.00029855
23690.0 0.00029799
23710.0 0.00029769
23730.0 0.0002977
23750.0 0.00029797
23770.0 0.00029855
23790.0 0.00029952
23810.0 0.00030084
23830.0 0.00030244
23850.0 0.00030454
23870.0 0.00030708
23890.0 0.00030985
23910.0 0.00031296
23930.0 0.0003165
23950.0 0.00032023
23970.0 0.00032397
23990.0 0.000328
24010.0 0.00033211
24030.0 0.00033602
