#lamb flux
1010.0 5.8091e-07
1030.0 6.2536e-07
1050.0 7.0054e-07
1070.0 7.8509e-07
1090.0 8.7487e-07
1110.0 9.6792e-07
1130.0 1.0622e-06
1150.0 1.1613e-06
1170.0 1.2631e-06
1190.0 1.3583e-06
1210.0 1.4529e-06
1230.0 1.5478e-06
1250.0 1.6385e-06
1270.0 1.7221e-06
1290.0 1.8063e-06
1310.0 1.8854e-06
1330.0 1.9559e-06
1350.0 2.0233e-06
1370.0 2.0904e-06
1390.0 2.1528e-06
1410.0 2.2116e-06
1430.0 2.2747e-06
1450.0 2.3396e-06
1470.0 2.4047e-06
1490.0 2.4752e-06
1510.0 2.5561e-06
1530.0 2.6391e-06
1550.0 2.7287e-06
1570.0 2.8298e-06
1590.0 2.9401e-06
1610.0 3.0569e-06
1630.0 3.1886e-06
1650.0 3.3332e-06
1670.0 3.4853e-06
1690.0 3.6462e-06
1710.0 3.8202e-06
1730.0 4.0035e-06
1750.0 4.1881e-06
1770.0 4.3812e-06
1790.0 4.5804e-06
1810.0 4.7779e-06
1830.0 4.9726e-06
1850.0 5.1703e-06
1870.0 5.3589e-06
1890.0 5.5345e-06
1910.0 5.7001e-06
1930.0 5.8537e-06
1950.0 5.9848e-06
1970.0 6.0952e-06
1990.0 6.189e-06
2010.0 6.259e-06
2030.0 6.3025e-06
2050.0 6.3272e-06
2070.0 6.333e-06
2090.0 6.3122e-06
2110.0 6.2728e-06
2130.0 6.2202e-06
2150.0 6.1519e-06
2170.0 6.0687e-06
2190.0 5.9809e-06
2210.0 5.8885e-06
2230.0 5.7902e-06
2250.0 5.6921e-06
2270.0 5.6003e-06
2290.0 5.5109e-06
2310.0 5.4255e-06
2330.0 5.3511e-06
2350.0 5.2875e-06
2370.0 5.2325e-06
2390.0 5.1913e-06
2410.0 5.1682e-06
2430.0 5.1594e-06
2450.0 5.1674e-06
2470.0 5.1984e-06
2490.0 5.2549e-06
2510.0 5.3328e-06
2530.0 5.4483e-06
2550.0 5.6237e-06
2570.0 5.8786e-06
2590.0 6.2422e-06
2610.0 6.8003e-06
2630.0 7.5771e-06
2650.0 8.5457e-06
2670.0 9.7295e-06
2690.0 1.1102e-05
2710.0 1.2495e-05
2730.0 1.3819e-05
2750.0 1.5074e-05
2770.0 1.614e-05
2790.0 1.6993e-05
2810.0 1.7695e-05
2830.0 1.8295e-05
2850.0 1.8812e-05
2870.0 1.9317e-05
2890.0 1.9851e-05
2910.0 2.0429e-05
2930.0 2.1053e-05
2950.0 2.1746e-05
2970.0 2.251e-05
2990.0 2.3331e-05
3010.0 2.9822e-05
3030.0 3.1001e-05
3050.0 3.2249e-05
3070.0 3.3519e-05
3090.0 3.4806e-05
3110.0 3.604e-05
3130.0 3.7126e-05
3150.0 3.8055e-05
3170.0 3.8624e-05
3190.0 4.1179e-05
3210.0 5.1421e-05
3230.0 6.7699e-05
3250.0 7.5265e-05
3270.0 6.9318e-05
3290.0 5.9285e-05
3310.0 5.3994e-05
3330.0 5.1892e-05
3350.0 5.1819e-05
3370.0 5.2347e-05
3390.0 5.3177e-05
3410.0 5.3752e-05
3430.0 5.2297e-05
3450.0 5.1942e-05
3470.0 5.2002e-05
3490.0 5.7464e-05
3510.0 7.241e-05
3530.0 8.7255e-05
3550.0 0.0001012
3570.0 0.00011666
3590.0 0.00012527
3610.0 0.00012562
3630.0 0.00012434
3650.0 0.00012831
3670.0 0.00014317
3690.0 0.00016751
3710.0 0.0001919
3730.0 0.00021047
3750.0 0.00022598
3770.0 0.00022474
3790.0 0.00021065
3810.0 0.00019455
3830.0 0.00017619
3850.0 0.00016514
3870.0 0.00016615
3890.0 0.00018352
3910.0 0.00020815
3930.0 0.00023417
3950.0 0.00026238
3970.0 0.00028011
3990.0 0.00027617
4010.0 0.00026056
4030.0 0.00023094
4050.0 0.00020254
4070.0 0.00018789
4090.0 0.00018591
4110.0 0.00019367
4130.0 0.00019668
4150.0 0.00019771
4170.0 0.00020158
4190.0 0.00021024
4210.0 0.0002105
4230.0 0.00021227
4250.0 0.00021557
4270.0 0.00022202
4290.0 0.00022987
4310.0 0.00023796
4330.0 0.00023669
4350.0 0.00022669
4370.0 0.00021178
4390.0 0.00019184
4410.0 0.00016895
4430.0 0.00015393
4450.0 0.00014923
4470.0 0.00015296
4490.0 0.0001639
4510.0 0.00018588
4530.0 0.00022671
4550.0 0.00028878
4570.0 0.00034285
4590.0 0.00039192
4610.0 0.00045153
4630.0 0.00049347
4650.0 0.00048992
4670.0 0.00045228
4690.0 0.00040082
4710.0 0.00035064
4730.0 0.00030587
4750.0 0.0002667
4770.0 0.00024002
4790.0 0.00024103
4810.0 0.0002553
4830.0 0.00026543
4850.0 0.0002702
4870.0 0.000284
4890.0 0.00030029
4910.0 0.00031555
4930.0 0.00033264
4950.0 0.000345
4970.0 0.00034027
4990.0 0.00031636
5010.0 0.00028262
5030.0 0.00024827
5050.0 0.00022313
5070.0 0.00020718
5090.0 0.00019757
5110.0 0.00019565
5130.0 0.00019598
5150.0 0.00019731
5170.0 0.00020617
5190.0 0.0002237
5210.0 0.0002514
5230.0 0.00028181
5250.0 0.00031412
5270.0 0.00034936
5290.0 0.00038189
5310.0 0.00040601
5330.0 0.00042105
5350.0 0.00042572
5370.0 0.00042682
5390.0 0.00043558
5410.0 0.00045746
5430.0 0.00049108
5450.0 0.00053336
5470.0 0.00057284
5490.0 0.00059529
5510.0 0.00060253
5530.0 0.00060273
5550.0 0.00059884
5570.0 0.00058982
5590.0 0.00058033
5610.0 0.00057071
5630.0 0.00055728
5650.0 0.00053377
5670.0 0.0005034
5690.0 0.00047887
5710.0 0.00046336
5730.0 0.00044829
5750.0 0.00044346
5770.0 0.00045221
5790.0 0.00046501
5810.0 0.00047168
5830.0 0.00047788
5850.0 0.00048224
5870.0 0.00047739
5890.0 0.00047465
5910.0 0.00047258
5930.0 0.00045289
5950.0 0.00042015
5970.0 0.00038742
5990.0 0.00036214
6010.0 0.00034391
6030.0 0.0003318
6050.0 0.00033307
6070.0 0.00034721
6090.0 0.00035689
6110.0 0.00035785
6130.0 0.00035798
6150.0 0.00036163
6170.0 0.00036661
6190.0 0.00036805
6210.0 0.00036151
6230.0 0.00034178
6250.0 0.00031491
6270.0 0.0002898
6290.0 0.00027066
6310.0 0.00027029
6330.0 0.0002894
6350.0 0.00031468
6370.0 0.00033572
6390.0 0.00035997
6410.0 0.00039164
6430.0 0.00041613
6450.0 0.0004304
6470.0 0.00044202
6490.0 0.00045279
6510.0 0.00045896
6530.0 0.00046161
6550.0 0.00046632
6570.0 0.00046452
6590.0 0.00045457
6610.0 0.00044088
6630.0 0.0004237
6650.0 0.00040077
6670.0 0.00037644
6690.0 0.00035917
6710.0 0.00034746
6730.0 0.0003347
6750.0 0.00032664
6770.0 0.00032921
6790.0 0.00033308
6810.0 0.00033016
6830.0 0.0003239
6850.0 0.00032096
6870.0 0.00031802
6890.0 0.00031163
6910.0 0.00031057
6930.0 0.00031099
6950.0 0.00030788
6970.0 0.00030344
6990.0 0.00029732
7010.0 0.00028911
7030.0 0.00027625
7050.0 0.00025674
7070.0 0.00023922
7090.0 0.00023684
7110.0 0.00024435
7130.0 0.00024774
7150.0 0.00024684
7170.0 0.00025154
7190.0 0.0002626
7210.0 0.00027086
7230.0 0.00027739
7250.0 0.00028376
7270.0 0.00027992
7290.0 0.00027156
7310.0 0.0002683
7330.0 0.00027433
7350.0 0.00028486
7370.0 0.00029187
7390.0 0.00029962
7410.0 0.00031131
7430.0 0.00031974
7450.0 0.00032277
7470.0 0.00032081
7490.0 0.00030658
7510.0 0.00028903
7530.0 0.00028132
7550.0 0.00027198
7570.0 0.00026268
7590.0 0.00025864
7610.0 0.00025644
7630.0 0.00025788
7650.0 0.00026822
7670.0 0.00028266
7690.0 0.00029587
7710.0 0.00030421
7730.0 0.00031103
7750.0 0.00031706
7770.0 0.00032171
7790.0 0.00032576
7810.0 0.00032475
7830.0 0.00031337
7850.0 0.00029946
7870.0 0.00028767
7890.0 0.00027864
7910.0 0.00027449
7930.0 0.00026733
7950.0 0.00025864
7970.0 0.00024884
7990.0 0.00024187
8010.0 0.00022572
8030.0 0.00022331
8050.0 0.00022044
8070.0 0.00021584
8090.0 0.00021177
8110.0 0.00020858
8130.0 0.00020726
8150.0 0.00020438
8170.0 0.00020016
8190.0 0.00019281
8210.0 0.00018227
8230.0 0.00017271
8250.0 0.000168
8270.0 0.00015925
8290.0 0.00014284
8310.0 0.0001259
8330.0 0.00011447
8350.0 0.00010979
8370.0 0.00011486
8390.0 0.00012514
8410.0 0.00013263
8430.0 0.00013892
8450.0 0.00014823
8470.0 0.0001574
8490.0 0.00016827
8510.0 0.00017967
8530.0 0.00019084
8550.0 0.00019922
8570.0 0.00020491
8590.0 0.00020883
8610.0 0.00021159
8630.0 0.00021041
8650.0 0.00020518
8670.0 0.00020408
8690.0 0.00021103
8710.0 0.00022062
8730.0 0.00022325
8750.0 0.00021896
8770.0 0.00021826
8790.0 0.00021666
8810.0 0.00020803
8830.0 0.00019145
8850.0 0.00017157
8870.0 0.00015678
8890.0 0.00015103
8910.0 0.00014546
8930.0 0.00013473
8950.0 0.00012462
8970.0 0.00012048
8990.0 0.0001207
9010.0 0.00011958
9030.0 0.000118
9050.0 0.00011698
9070.0 0.00011636
9090.0 0.00011579
9110.0 0.00011523
9130.0 0.00011468
9150.0 0.00011413
9170.0 0.00011359
9190.0 0.00011308
9210.0 0.00011265
9230.0 0.00011208
9250.0 0.00011154
9270.0 0.00011101
9290.0 0.0001105
9310.0 0.00010999
9330.0 0.00010949
9350.0 0.00010901
9370.0 0.00010853
9390.0 0.00010805
9410.0 0.00010758
9430.0 0.00010709
9450.0 0.00010649
9470.0 0.00010593
9490.0 0.00010561
9510.0 0.00010522
9530.0 0.00010482
9550.0 0.00010441
9570.0 0.00010398
9590.0 0.00010356
9610.0 0.00010314
9630.0 0.00010272
9650.0 0.0001023
9670.0 0.0001019
9690.0 0.00010148
9710.0 0.00010107
9730.0 0.00010067
9750.0 0.00010028
9770.0 9.9866e-05
9790.0 9.9469e-05
9810.0 9.9079e-05
9830.0 9.8681e-05
9850.0 9.8275e-05
9870.0 9.7893e-05
9890.0 9.7507e-05
9910.0 9.7113e-05
9930.0 9.6724e-05
9950.0 9.6176e-05
9970.0 9.583e-05
9990.0 9.547e-05
10010.0 9.5109e-05
10030.0 9.4734e-05
10050.0 9.4353e-05
10070.0 9.3975e-05
10090.0 9.3599e-05
10110.0 9.317e-05
10130.0 9.2596e-05
10150.0 9.223e-05
10170.0 9.189e-05
10190.0 9.1501e-05
10210.0 9.1124e-05
10230.0 9.0743e-05
10250.0 9.0321e-05
10270.0 8.9897e-05
10290.0 8.9493e-05
10310.0 8.9057e-05
10330.0 8.8592e-05
10350.0 8.8158e-05
10370.0 8.7722e-05
10390.0 8.7252e-05
10410.0 8.6782e-05
10430.0 8.6341e-05
10450.0 8.5866e-05
10470.0 8.537e-05
10490.0 8.4894e-05
10510.0 8.4415e-05
10530.0 8.3883e-05
10550.0 8.3366e-05
10570.0 8.287e-05
10590.0 8.2342e-05
10610.0 8.1793e-05
10630.0 8.1268e-05
10650.0 8.0732e-05
10670.0 8.015e-05
10690.0 7.958e-05
10710.0 7.9021e-05
10730.0 7.8428e-05
10750.0 7.7801e-05
10770.0 7.7218e-05
10790.0 7.6616e-05
10810.0 7.5976e-05
10830.0 7.5344e-05
10850.0 7.473e-05
10870.0 7.4056e-05
10890.0 7.3375e-05
10910.0 7.2718e-05
10930.0 7.2044e-05
10950.0 7.133e-05
10970.0 7.0631e-05
10990.0 6.9957e-05
11010.0 7.1036e-05
11030.0 7.0283e-05
11050.0 6.9572e-05
11070.0 6.8864e-05
11090.0 6.8123e-05
11110.0 6.7443e-05
11130.0 6.6791e-05
11150.0 6.6129e-05
11170.0 6.5486e-05
11190.0 6.4894e-05
11210.0 6.4306e-05
11230.0 6.3722e-05
11250.0 6.3182e-05
11270.0 6.2675e-05
11290.0 6.2169e-05
11310.0 6.1686e-05
11330.0 6.1253e-05
11350.0 6.0824e-05
11370.0 6.0398e-05
11390.0 5.9992e-05
11410.0 5.9594e-05
11430.0 5.9164e-05
11450.0 5.8728e-05
11470.0 5.8284e-05
11490.0 5.7804e-05
11510.0 5.7274e-05
11530.0 5.6731e-05
11550.0 5.6155e-05
11570.0 5.5518e-05
11590.0 5.4848e-05
11610.0 5.4164e-05
11630.0 5.3421e-05
11650.0 5.2626e-05
11670.0 5.1837e-05
11690.0 5.1023e-05
11710.0 5.0158e-05
11730.0 4.9279e-05
11750.0 4.8413e-05
11770.0 4.7495e-05
11790.0 4.6547e-05
11810.0 4.561e-05
11830.0 4.466e-05
11850.0 4.3648e-05
11870.0 4.2655e-05
11890.0 4.1687e-05
11910.0 4.0691e-05
11930.0 3.969e-05
11950.0 3.8739e-05
11970.0 3.7799e-05
11990.0 3.6848e-05
12010.0 3.5952e-05
12030.0 3.511e-05
12050.0 3.4284e-05
12070.0 3.3488e-05
12090.0 3.2782e-05
12110.0 3.2114e-05
12130.0 3.1482e-05
12150.0 3.0917e-05
12170.0 3.042e-05
12190.0 2.9957e-05
12210.0 2.9561e-05
12230.0 2.9238e-05
12250.0 2.8972e-05
12270.0 2.8766e-05
12290.0 2.8624e-05
12310.0 2.8539e-05
12330.0 2.8508e-05
12350.0 2.8528e-05
12370.0 2.8585e-05
12390.0 2.868e-05
12410.0 2.8816e-05
12430.0 2.8962e-05
12450.0 2.912e-05
12470.0 2.9296e-05
12490.0 2.9476e-05
12510.0 2.9641e-05
12530.0 2.9809e-05
12550.0 2.9972e-05
12570.0 3.0111e-05
12590.0 3.0228e-05
12610.0 3.0331e-05
12630.0 3.0403e-05
12650.0 3.0432e-05
12670.0 3.0429e-05
12690.0 3.0385e-05
12710.0 3.0295e-05
12730.0 3.0161e-05
12750.0 2.9978e-05
12770.0 2.9748e-05
12790.0 2.9478e-05
12810.0 2.9165e-05
12830.0 2.8808e-05
12850.0 2.8432e-05
12870.0 2.8036e-05
12890.0 2.7612e-05
12910.0 2.7183e-05
12930.0 2.676e-05
12950.0 2.6326e-05
12970.0 2.5892e-05
12990.0 2.5484e-05
13010.0 2.5088e-05
13030.0 2.4696e-05
13050.0 2.4325e-05
13070.0 2.3977e-05
13090.0 2.3635e-05
13110.0 2.3305e-05
13130.0 2.2997e-05
13150.0 2.2703e-05
13170.0 2.2411e-05
13190.0 2.2139e-05
13210.0 2.1885e-05
13230.0 2.1638e-05
13250.0 2.1401e-05
13270.0 2.118e-05
13290.0 2.0968e-05
13310.0 2.0759e-05
13330.0 2.0562e-05
13350.0 2.0374e-05
13370.0 2.0187e-05
13390.0 2.0001e-05
13410.0 1.9824e-05
13430.0 1.9647e-05
13450.0 1.9466e-05
13470.0 1.9287e-05
13490.0 1.911e-05
13510.0 1.8923e-05
13530.0 1.8736e-05
13550.0 1.855e-05
13570.0 1.8361e-05
13590.0 1.8165e-05
13610.0 1.7973e-05
13630.0 1.7783e-05
13650.0 1.7586e-05
13670.0 1.7391e-05
13690.0 1.7202e-05
13710.0 1.7011e-05
13730.0 1.6815e-05
13750.0 1.663e-05
13770.0 1.6449e-05
13790.0 1.6265e-05
13810.0 1.6085e-05
13830.0 1.5915e-05
13850.0 1.5744e-05
13870.0 1.5575e-05
13890.0 1.5415e-05
13910.0 1.5262e-05
13930.0 1.5109e-05
13950.0 1.4964e-05
13970.0 1.4831e-05
13990.0 1.4701e-05
14010.0 1.4576e-05
14030.0 1.446e-05
14050.0 1.4351e-05
14070.0 1.4241e-05
14090.0 1.4138e-05
14110.0 1.4042e-05
14130.0 1.3947e-05
14150.0 1.3853e-05
14170.0 1.3765e-05
14190.0 1.3681e-05
14210.0 1.3597e-05
14230.0 1.3517e-05
14250.0 1.3442e-05
14270.0 1.3369e-05
14290.0 1.3298e-05
14310.0 1.3234e-05
14330.0 1.3173e-05
14350.0 1.3115e-05
14370.0 1.3061e-05
14390.0 1.3012e-05
14410.0 1.2963e-05
14430.0 1.2917e-05
14450.0 1.2875e-05
14470.0 1.2834e-05
14490.0 1.2792e-05
14510.0 1.2753e-05
14530.0 1.2716e-05
14550.0 1.2677e-05
14570.0 1.2637e-05
14590.0 1.26e-05
14610.0 1.2562e-05
14630.0 1.2523e-05
14650.0 1.2488e-05
14670.0 1.2458e-05
14690.0 1.2432e-05
14710.0 1.2416e-05
14730.0 1.2414e-05
14750.0 1.2427e-05
14770.0 1.2461e-05
14790.0 1.252e-05
14810.0 1.2605e-05
14830.0 1.2727e-05
14850.0 1.2884e-05
14870.0 1.3069e-05
14890.0 1.3289e-05
14910.0 1.3543e-05
14930.0 1.3806e-05
14950.0 1.407e-05
14970.0 1.4336e-05
14990.0 1.4576e-05
15010.0 1.478e-05
15030.0 1.495e-05
15050.0 1.5088e-05
15070.0 1.5187e-05
15090.0 1.5264e-05
15110.0 1.5326e-05
15130.0 1.5378e-05
15150.0 1.5424e-05
15170.0 1.5468e-05
15190.0 1.5511e-05
15210.0 1.5555e-05
15230.0 1.56e-05
15250.0 1.5645e-05
15270.0 1.5691e-05
15290.0 1.5739e-05
15310.0 1.5787e-05
15330.0 1.5836e-05
15350.0 1.5886e-05
15370.0 1.5937e-05
15390.0 1.5989e-05
15410.0 1.6041e-05
15430.0 1.6095e-05
15450.0 1.6149e-05
15470.0 1.6204e-05
15490.0 1.626e-05
15510.0 1.6317e-05
15530.0 1.6375e-05
15550.0 1.6433e-05
15570.0 1.6492e-05
15590.0 1.6552e-05
15610.0 1.6613e-05
15630.0 1.6674e-05
15650.0 1.6736e-05
15670.0 1.6799e-05
15690.0 1.6862e-05
15710.0 1.6927e-05
15730.0 1.6991e-05
15750.0 1.7057e-05
15770.0 1.7123e-05
15790.0 1.7189e-05
15810.0 1.7256e-05
15830.0 1.7324e-05
15850.0 1.7392e-05
15870.0 1.7461e-05
15890.0 1.753e-05
15910.0 1.76e-05
15930.0 1.767e-05
15950.0 1.7741e-05
15970.0 1.7812e-05
15990.0 1.7883e-05
16010.0 1.7955e-05
16030.0 1.8027e-05
16050.0 1.81e-05
16070.0 1.8172e-05
16090.0 1.8245e-05
16110.0 1.8319e-05
16130.0 1.8392e-05
16150.0 1.8466e-05
16170.0 1.854e-05
16190.0 1.8614e-05
16210.0 1.8688e-05
16230.0 1.8762e-05
16250.0 1.8837e-05
16270.0 1.8911e-05
16290.0 1.8986e-05
16310.0 1.906e-05
16330.0 1.9135e-05
16350.0 1.9209e-05
16370.0 1.9284e-05
16390.0 1.9358e-05
16410.0 1.9432e-05
16430.0 1.9506e-05
16450.0 1.958e-05
16470.0 1.9654e-05
16490.0 1.9727e-05
16510.0 1.98e-05
16530.0 1.9873e-05
16550.0 1.9945e-05
16570.0 2.0017e-05
16590.0 2.0089e-05
16610.0 2.016e-05
16630.0 2.0231e-05
16650.0 2.0302e-05
16670.0 2.0372e-05
16690.0 2.0441e-05
16710.0 2.051e-05
16730.0 2.0578e-05
16750.0 2.0646e-05
16770.0 2.0713e-05
16790.0 2.0779e-05
16810.0 2.0845e-05
16830.0 2.091e-05
16850.0 2.0974e-05
16870.0 2.1037e-05
16890.0 2.11e-05
16910.0 2.1162e-05
16930.0 2.1223e-05
16950.0 2.1283e-05
16970.0 2.1342e-05
16990.0 2.14e-05
17010.0 2.1457e-05
17030.0 2.1514e-05
17050.0 2.1569e-05
17070.0 2.1623e-05
17090.0 2.1676e-05
17110.0 2.1728e-05
17130.0 2.1779e-05
17150.0 2.1829e-05
17170.0 2.1877e-05
17190.0 2.1925e-05
17210.0 2.1971e-05
17230.0 2.2016e-05
17250.0 2.206e-05
17270.0 2.2102e-05
17290.0 2.2143e-05
17310.0 2.2183e-05
17330.0 2.2222e-05
17350.0 2.2259e-05
17370.0 2.2295e-05
17390.0 2.2329e-05
17410.0 2.2362e-05
17430.0 2.2394e-05
17450.0 2.2424e-05
17470.0 2.2452e-05
17490.0 2.248e-05
17510.0 2.2505e-05
17530.0 2.253e-05
17550.0 2.2552e-05
17570.0 2.2574e-05
17590.0 2.2593e-05
17610.0 2.2612e-05
17630.0 2.2628e-05
17650.0 2.2643e-05
17670.0 2.2657e-05
17690.0 2.2669e-05
17710.0 2.2679e-05
17730.0 2.2688e-05
17750.0 2.2695e-05
17770.0 2.27e-05
17790.0 2.2704e-05
17810.0 2.2706e-05
17830.0 2.2707e-05
17850.0 2.2706e-05
17870.0 2.2703e-05
17890.0 2.2699e-05
17910.0 2.2693e-05
17930.0 2.2686e-05
17950.0 2.2677e-05
17970.0 2.2666e-05
17990.0 2.2654e-05
18010.0 2.264e-05
18030.0 2.2624e-05
18050.0 2.2607e-05
18070.0 2.2588e-05
18090.0 2.2568e-05
18110.0 2.2545e-05
18130.0 2.2522e-05
18150.0 2.2497e-05
18170.0 2.247e-05
18190.0 2.2442e-05
18210.0 2.2412e-05
18230.0 2.238e-05
18250.0 2.2347e-05
18270.0 2.2313e-05
18290.0 2.2277e-05
18310.0 2.2239e-05
18330.0 2.22e-05
18350.0 2.2159e-05
18370.0 2.2117e-05
18390.0 2.2074e-05
18410.0 2.2029e-05
18430.0 2.1982e-05
18450.0 2.1935e-05
18470.0 2.1885e-05
18490.0 2.1835e-05
18510.0 2.1783e-05
18530.0 2.173e-05
18550.0 2.1675e-05
18570.0 2.1619e-05
18590.0 2.1562e-05
18610.0 2.1503e-05
18630.0 2.1443e-05
18650.0 2.1382e-05
18670.0 2.132e-05
18690.0 2.1256e-05
18710.0 2.1192e-05
18730.0 2.1126e-05
18750.0 2.1059e-05
18770.0 2.0991e-05
18790.0 2.0921e-05
18810.0 2.0851e-05
18830.0 2.078e-05
18850.0 2.0707e-05
18870.0 2.0634e-05
18890.0 2.0559e-05
18910.0 2.0484e-05
18930.0 2.0407e-05
18950.0 2.033e-05
18970.0 2.0251e-05
18990.0 2.0172e-05
19010.0 2.0092e-05
19030.0 2.0011e-05
19050.0 1.9929e-05
19070.0 1.9847e-05
19090.0 1.9763e-05
19110.0 1.9679e-05
19130.0 1.9594e-05
19150.0 1.9509e-05
19170.0 1.9422e-05
19190.0 1.9335e-05
19210.0 1.9248e-05
19230.0 1.9159e-05
19250.0 1.9071e-05
19270.0 1.8981e-05
19290.0 1.8891e-05
19310.0 1.88e-05
19330.0 1.8709e-05
19350.0 1.8618e-05
19370.0 1.8525e-05
19390.0 1.8433e-05
19410.0 1.834e-05
19430.0 1.8246e-05
19450.0 1.8152e-05
19470.0 1.8058e-05
19490.0 1.7964e-05
19510.0 1.7869e-05
19530.0 1.7773e-05
19550.0 1.7678e-05
19570.0 1.7582e-05
19590.0 1.7486e-05
19610.0 1.7389e-05
19630.0 1.7293e-05
19650.0 1.7196e-05
19670.0 1.7099e-05
19690.0 1.7002e-05
19710.0 1.6905e-05
19730.0 1.6807e-05
19750.0 1.671e-05
19770.0 1.6612e-05
19790.0 1.6514e-05
19810.0 1.6416e-05
19830.0 1.6318e-05
19850.0 1.6219e-05
19870.0 1.6119e-05
19890.0 1.6016e-05
19910.0 1.5907e-05
19930.0 1.5789e-05
19950.0 1.5659e-05
19970.0 1.5509e-05
19990.0 1.5335e-05
20010.0 1.5141e-05
20030.0 1.4919e-05
20050.0 1.467e-05
20070.0 1.4408e-05
20090.0 1.4133e-05
20110.0 1.3838e-05
20130.0 1.3546e-05
20150.0 1.326e-05
20170.0 1.2973e-05
20190.0 1.2687e-05
20210.0 1.2416e-05
20230.0 1.2152e-05
20250.0 1.1889e-05
20270.0 1.164e-05
20290.0 1.1405e-05
20310.0 1.1176e-05
20330.0 1.0954e-05
20350.0 1.0753e-05
20370.0 1.0562e-05
20390.0 1.0379e-05
20410.0 1.021e-05
20430.0 1.0055e-05
20450.0 9.9078e-06
20470.0 9.7721e-06
20490.0 9.6494e-06
20510.0 9.5362e-06
20530.0 9.4309e-06
20550.0 9.3355e-06
20570.0 9.2486e-06
20590.0 9.1677e-06
20610.0 9.0929e-06
20630.0 9.0234e-06
20650.0 8.9579e-06
20670.0 8.8956e-06
20690.0 8.8357e-06
20710.0 8.777e-06
20730.0 8.7189e-06
20750.0 8.6604e-06
20770.0 8.6009e-06
20790.0 8.5397e-06
20810.0 8.4763e-06
20830.0 8.4102e-06
20850.0 8.3413e-06
20870.0 8.2687e-06
20890.0 8.1924e-06
20910.0 8.1136e-06
20930.0 8.0313e-06
20950.0 7.945e-06
20970.0 7.8568e-06
20990.0 7.7667e-06
21010.0 7.6725e-06
21030.0 7.5769e-06
21050.0 7.4812e-06
21070.0 7.3837e-06
21090.0 7.284e-06
21110.0 7.1863e-06
21130.0 7.0892e-06
21150.0 6.9908e-06
21170.0 6.8937e-06
21190.0 6.7994e-06
21210.0 6.7045e-06
21230.0 6.6102e-06
21250.0 6.5196e-06
21270.0 6.4308e-06
21290.0 6.3427e-06
21310.0 6.2571e-06
21330.0 6.1755e-06
21350.0 6.095e-06
21370.0 6.0165e-06
21390.0 5.9418e-06
21410.0 5.87e-06
21430.0 5.7992e-06
21450.0 5.7325e-06
21470.0 5.6694e-06
21490.0 5.6085e-06
21510.0 5.5503e-06
21530.0 5.4956e-06
21550.0 5.4434e-06
21570.0 5.3933e-06
21590.0 5.3458e-06
21610.0 5.3007e-06
21630.0 5.2572e-06
21650.0 5.2153e-06
21670.0 5.1752e-06
21690.0 5.1362e-06
21710.0 5.0981e-06
21730.0 5.0608e-06
21750.0 5.0242e-06
21770.0 4.988e-06
21790.0 4.9522e-06
21810.0 4.9167e-06
21830.0 4.8814e-06
21850.0 4.8463e-06
21870.0 4.8114e-06
21890.0 4.7766e-06
21910.0 4.7419e-06
21930.0 4.7073e-06
21950.0 4.6728e-06
21970.0 4.6382e-06
21990.0 4.6034e-06
22010.0 4.5686e-06
22030.0 4.5337e-06
22050.0 4.4983e-06
22070.0 4.4624e-06
22090.0 4.4263e-06
22110.0 4.3894e-06
22130.0 4.3517e-06
22150.0 4.3134e-06
22170.0 4.2746e-06
22190.0 4.2343e-06
22210.0 4.1932e-06
22230.0 4.1519e-06
22250.0 4.1095e-06
22270.0 4.0658e-06
22290.0 4.0218e-06
22310.0 3.9773e-06
22330.0 3.9309e-06
22350.0 3.8841e-06
22370.0 3.8371e-06
22390.0 3.7889e-06
22410.0 3.739e-06
22430.0 3.6897e-06
22450.0 3.6399e-06
22470.0 3.5884e-06
22490.0 3.5366e-06
22510.0 3.4853e-06
22530.0 3.4324e-06
22550.0 3.3785e-06
22570.0 3.3259e-06
22590.0 3.2733e-06
22610.0 3.2197e-06
22630.0 3.1671e-06
