#lamb flux
1010.0 2.4359e-07
1030.0 2.6772e-07
1050.0 2.9548e-07
1070.0 3.2675e-07
1090.0 3.6226e-07
1110.0 3.9869e-07
1130.0 4.3538e-07
1150.0 4.7381e-07
1170.0 5.1347e-07
1190.0 5.5109e-07
1210.0 5.8924e-07
1230.0 6.2868e-07
1250.0 6.6734e-07
1270.0 7.0491e-07
1290.0 7.4462e-07
1310.0 7.8433e-07
1330.0 8.2244e-07
1350.0 8.61e-07
1370.0 9.0083e-07
1390.0 9.3969e-07
1410.0 9.7744e-07
1430.0 1.0169e-06
1450.0 1.0564e-06
1470.0 1.0946e-06
1490.0 1.1333e-06
1510.0 1.1741e-06
1530.0 1.2128e-06
1550.0 1.251e-06
1570.0 1.2905e-06
1590.0 1.3301e-06
1610.0 1.3679e-06
1630.0 1.4069e-06
1650.0 1.4468e-06
1670.0 1.4855e-06
1690.0 1.5236e-06
1710.0 1.5631e-06
1730.0 1.6028e-06
1750.0 1.64e-06
1770.0 1.6782e-06
1790.0 1.7171e-06
1810.0 1.7546e-06
1830.0 1.7912e-06
1850.0 1.83e-06
1870.0 1.8675e-06
1890.0 1.9035e-06
1910.0 1.9399e-06
1930.0 1.977e-06
1950.0 2.012e-06
1970.0 2.0462e-06
1990.0 2.0814e-06
2010.0 2.1155e-06
2030.0 2.1478e-06
2050.0 2.1807e-06
2070.0 2.2141e-06
2090.0 2.2446e-06
2110.0 2.2744e-06
2130.0 2.3046e-06
2150.0 2.3334e-06
2170.0 2.3598e-06
2190.0 2.3868e-06
2210.0 2.4132e-06
2230.0 2.4372e-06
2250.0 2.4602e-06
2270.0 2.4837e-06
2290.0 2.5051e-06
2310.0 2.524e-06
2330.0 2.543e-06
2350.0 2.5612e-06
2370.0 2.5769e-06
2390.0 2.5922e-06
2410.0 2.6087e-06
2430.0 2.6241e-06
2450.0 2.6396e-06
2470.0 2.6585e-06
2490.0 2.6829e-06
2510.0 2.7133e-06
2530.0 2.7611e-06
2550.0 2.8437e-06
2570.0 2.9768e-06
2590.0 3.1791e-06
2610.0 3.5031e-06
2630.0 3.9552e-06
2650.0 4.5047e-06
2670.0 5.1526e-06
2690.0 5.8682e-06
2710.0 6.5462e-06
2730.0 7.14e-06
2750.0 7.6609e-06
2770.0 8.0592e-06
2790.0 8.3365e-06
2810.0 8.5371e-06
2830.0 8.6923e-06
2850.0 8.7991e-06
2870.0 8.8884e-06
2890.0 8.9787e-06
2910.0 9.0672e-06
2930.0 9.1478e-06
2950.0 9.2367e-06
2970.0 9.3315e-06
2990.0 9.4209e-06
3010.0 0.00010179
3030.0 0.00010234
3050.0 0.00010286
3070.0 0.00010321
3090.0 0.00010345
3110.0 0.0001034
3130.0 0.00010285
3150.0 0.00010165
3170.0 9.9566e-05
3190.0 9.6611e-05
3210.0 9.3019e-05
3230.0 8.9223e-05
3250.0 8.9362e-05
3270.0 8.6464e-05
3290.0 9.0713e-05
3310.0 8.7193e-05
3330.0 8.9267e-05
3350.0 9.2779e-05
3370.0 9.7302e-05
3390.0 0.00010265
3410.0 0.00010824
3430.0 0.00011432
3450.0 0.00012099
3470.0 0.0001279
3490.0 0.00013472
3510.0 0.00014331
3530.0 0.00015347
3550.0 0.00016015
3570.0 0.00016509
3590.0 0.00017677
3610.0 0.00017962
3630.0 0.00019363
3650.0 0.00020426
3670.0 0.00021631
3690.0 0.00022005
3710.0 0.00021641
3730.0 0.00022171
3750.0 0.00022223
3770.0 0.00021124
3790.0 0.00019915
3810.0 0.00019044
3830.0 0.00018826
3850.0 0.00018603
3870.0 0.00020099
3890.0 0.00023342
3910.0 0.00027926
3930.0 0.00032286
3950.0 0.00034627
3970.0 0.00033678
3990.0 0.00030626
4010.0 0.00032018
4030.0 0.00035989
4050.0 0.00037164
4070.0 0.00033629
4090.0 0.00027819
4110.0 0.00029392
4130.0 0.00033694
4150.0 0.00034197
4170.0 0.00033028
4190.0 0.00031893
4210.0 0.00034956
4230.0 0.00036455
4250.0 0.00038767
4270.0 0.00039586
4290.0 0.00038521
4310.0 0.00041118
4330.0 0.0004522
4350.0 0.00050876
4370.0 0.0005551
4390.0 0.00053679
4410.0 0.0004568
4430.0 0.00037516
4450.0 0.00031131
4470.0 0.00030975
4490.0 0.00033611
4510.0 0.00040735
4530.0 0.00044093
4550.0 0.00048336
4570.0 0.00057515
4590.0 0.00070287
4610.0 0.00090417
4630.0 0.0011035
4650.0 0.0011382
4670.0 0.0011391
4690.0 0.0011907
4710.0 0.0012015
4730.0 0.001013
4750.0 0.00075139
4770.0 0.00061264
4790.0 0.00056684
4810.0 0.00054767
4830.0 0.00055355
4850.0 0.00062853
4870.0 0.0007479
4890.0 0.00084014
4910.0 0.0007498
4930.0 0.00072273
4950.0 0.00083887
4970.0 0.0010562
4990.0 0.001287
5010.0 0.0013191
5030.0 0.0010957
5050.0 0.00076828
5070.0 0.00055316
5090.0 0.00047782
5110.0 0.00048432
5130.0 0.00052075
5150.0 0.000529
5170.0 0.00052186
5190.0 0.00051959
5210.0 0.00051563
5230.0 0.00054339
5250.0 0.00058589
5270.0 0.00065374
5290.0 0.00075489
5310.0 0.00084471
5330.0 0.00088167
5350.0 0.00090022
5370.0 0.00097213
5390.0 0.0010249
5410.0 0.00096733
5430.0 0.00086738
5450.0 0.00085567
5470.0 0.00099172
5490.0 0.0012471
5510.0 0.0015238
5530.0 0.0016413
5550.0 0.0016059
5570.0 0.0015041
5590.0 0.0013801
5610.0 0.0013051
5630.0 0.0012966
5650.0 0.0013224
5670.0 0.0012901
5690.0 0.0012062
5710.0 0.0011554
5730.0 0.0010344
5750.0 0.00082243
5770.0 0.00072735
5790.0 0.00079628
5810.0 0.00091543
5830.0 0.0010278
5850.0 0.001078
5870.0 0.0010788
5890.0 0.0010368
5910.0 0.00098806
5930.0 0.0009814
5950.0 0.0010245
5970.0 0.0010616
5990.0 0.00096817
6010.0 0.00081031
6030.0 0.00067607
6050.0 0.00060748
6070.0 0.00061687
6090.0 0.00068117
6110.0 0.00071645
6130.0 0.00068279
6150.0 0.0006639
6170.0 0.00072881
6190.0 0.0008574
6210.0 0.0010191
6230.0 0.0011448
6250.0 0.0011191
6270.0 0.00098913
6290.0 0.00082618
6310.0 0.00066496
6330.0 0.0005507
6350.0 0.00052211
6370.0 0.00057227
6390.0 0.00065569
6410.0 0.00076115
6430.0 0.00089511
6450.0 0.0010529
6470.0 0.001268
6490.0 0.0015145
6510.0 0.0016297
6530.0 0.0015461
6550.0 0.0014615
6570.0 0.0014476
6590.0 0.0014054
6610.0 0.0013133
6630.0 0.0012156
6650.0 0.0011395
6670.0 0.0011396
6690.0 0.0011131
6710.0 0.0010222
6730.0 0.00090911
6750.0 0.00081503
6770.0 0.00082524
6790.0 0.00088181
6810.0 0.0009327
6830.0 0.00094797
6850.0 0.00090796
6870.0 0.00087793
6890.0 0.0008557
6910.0 0.00081028
6930.0 0.0007863
6950.0 0.00078707
6970.0 0.00080673
6990.0 0.00087573
7010.0 0.00092102
7030.0 0.00087197
7050.0 0.00080061
7070.0 0.0007326
7090.0 0.00063978
7110.0 0.00058774
7130.0 0.00060334
7150.0 0.00062928
7170.0 0.00065978
7190.0 0.00065526
7210.0 0.00065272
7230.0 0.00071259
7250.0 0.00081256
7270.0 0.00090906
7290.0 0.00095622
7310.0 0.00091728
7330.0 0.00082738
7350.0 0.00075418
7370.0 0.00072927
7390.0 0.00074218
7410.0 0.00079198
7430.0 0.00088516
7450.0 0.00096819
7470.0 0.0010592
7490.0 0.0011322
7510.0 0.0010245
7530.0 0.00095885
7550.0 0.00084164
7570.0 0.00071558
7590.0 0.00059222
7610.0 0.0005544
7630.0 0.00058593
7650.0 0.00067174
7670.0 0.00075773
7690.0 0.00084096
7710.0 0.00093428
7730.0 0.00098595
7750.0 0.001019
7770.0 0.001034
7790.0 0.0010395
7810.0 0.0010532
7830.0 0.0010171
7850.0 0.0009629
7870.0 0.00090444
7890.0 0.00084074
7910.0 0.00075534
7930.0 0.00067424
7950.0 0.0006062
7970.0 0.00059086
7990.0 0.00060851
8010.0 0.00065512
8030.0 0.00066289
8050.0 0.00067173
8070.0 0.00065712
8090.0 0.00065358
8110.0 0.00063032
8130.0 0.00059654
8150.0 0.00056115
8170.0 0.00055513
8190.0 0.00056517
8210.0 0.00056616
8230.0 0.00055589
8250.0 0.00054029
8270.0 0.00047857
8290.0 0.00037679
8310.0 0.00027748
8330.0 0.00019158
8350.0 0.00013968
8370.0 0.00014709
8390.0 0.00016533
8410.0 0.00020365
8430.0 0.00024989
8450.0 0.00027378
8470.0 0.00028598
8490.0 0.00030511
8510.0 0.00032359
8530.0 0.00036299
8550.0 0.00041492
8570.0 0.00047939
8590.0 0.00055647
8610.0 0.0006436
8630.0 0.00074742
8650.0 0.00081705
8670.0 0.00081388
8690.0 0.00078296
8710.0 0.00074676
8730.0 0.00071226
8750.0 0.00067916
8770.0 0.0006635
8790.0 0.00063976
8810.0 0.00059239
8830.0 0.00055075
8850.0 0.00048012
8870.0 0.0004275
8890.0 0.00038876
8910.0 0.00040771
8930.0 0.00039314
8950.0 0.00040663
8970.0 0.00041377
8990.0 0.00042089
9010.0 0.00043354
9030.0 0.00042766
9050.0 0.00042731
9070.0 0.00042769
9090.0 0.00042804
9110.0 0.00042824
9130.0 0.00042858
9150.0 0.0004291
9170.0 0.00042929
9190.0 0.00042903
9210.0 0.00043187
9230.0 0.00043198
9250.0 0.00043244
9270.0 0.00043301
9290.0 0.00043366
9310.0 0.00043442
9330.0 0.00043524
9350.0 0.0004361
9370.0 0.00043702
9390.0 0.000438
9410.0 0.00043901
9430.0 0.00044005
9450.0 0.00044116
9470.0 0.00044231
9490.0 0.00044348
9510.0 0.00044471
9530.0 0.00044599
9550.0 0.00044728
9570.0 0.00044862
9590.0 0.00045001
9610.0 0.00045143
9630.0 0.00045288
9650.0 0.00045437
9670.0 0.00045591
9690.0 0.00045746
9710.0 0.00045905
9730.0 0.00046069
9750.0 0.00046235
9770.0 0.00046402
9790.0 0.00046573
9810.0 0.00046748
9830.0 0.00046924
9850.0 0.00047102
9870.0 0.00047284
9890.0 0.00047468
9910.0 0.00047652
9930.0 0.00047839
9950.0 0.0004801
9970.0 0.00048204
9990.0 0.00048398
10010.0 0.00048369
10030.0 0.00048561
10050.0 0.00048743
10070.0 0.00048876
10090.0 0.00049091
10110.0 0.00049299
10130.0 0.00049502
10150.0 0.00049703
10170.0 0.00049899
10190.0 0.00050086
10210.0 0.00050277
10230.0 0.00050468
10250.0 0.00050651
10270.0 0.00050833
10290.0 0.00051019
10310.0 0.00051197
10330.0 0.00051369
10350.0 0.00051544
10370.0 0.00051717
10390.0 0.00051882
10410.0 0.00052044
10430.0 0.0005221
10450.0 0.00052366
10470.0 0.00052516
10490.0 0.00052667
10510.0 0.00052813
10530.0 0.00052948
10550.0 0.00053081
10570.0 0.00053215
10590.0 0.00053339
10610.0 0.00053455
10630.0 0.00053572
10650.0 0.00053682
10670.0 0.00053781
10690.0 0.00053876
10710.0 0.0005397
10730.0 0.00054052
10750.0 0.00054125
10770.0 0.00054199
10790.0 0.00054266
10810.0 0.0005432
10830.0 0.00054368
10850.0 0.0005441
10870.0 0.00054425
10890.0 0.0005441
10910.0 0.00054355
10930.0 0.00054227
10950.0 0.00053976
10970.0 0.00053585
10990.0 0.00053042
11010.0 0.00052461
11030.0 0.00051433
11050.0 0.00050246
11070.0 0.00048875
11090.0 0.00047276
11110.0 0.00045669
11130.0 0.00044041
11150.0 0.00042348
11170.0 0.00040675
11190.0 0.00039131
11210.0 0.00037621
11230.0 0.00036169
11250.0 0.00034877
11270.0 0.0003372
11290.0 0.00032644
11310.0 0.00031698
11330.0 0.00030917
11350.0 0.00030214
11370.0 0.00029583
11390.0 0.00029035
11410.0 0.00028535
11430.0 0.00028028
11450.0 0.00027528
11470.0 0.00027024
11490.0 0.00026478
11510.0 0.0002587
11530.0 0.00025241
11550.0 0.00024573
11570.0 0.00023838
11590.0 0.00023077
11610.0 0.00022319
11630.0 0.00021524
11650.0 0.00020714
11670.0 0.00019957
11690.0 0.00019227
11710.0 0.00018513
11730.0 0.00017852
11750.0 0.00017264
11770.0 0.00016705
11790.0 0.00016191
11810.0 0.00015741
11830.0 0.00015332
11850.0 0.00014941
11870.0 0.00014589
11890.0 0.00014267
11910.0 0.00013948
11930.0 0.00013631
11950.0 0.00013324
11970.0 0.00013009
11990.0 0.00012673
12010.0 0.00012336
12030.0 0.00011997
12050.0 0.00011643
12070.0 0.00011282
12090.0 0.00010946
12110.0 0.00010618
12130.0 0.00010303
12150.0 0.00010023
12170.0 9.7846e-05
12190.0 9.5789e-05
12210.0 9.4275e-05
12230.0 9.3345e-05
12250.0 9.2972e-05
12270.0 9.322e-05
12290.0 9.4051e-05
12310.0 9.5376e-05
12330.0 9.7293e-05
12350.0 9.9679e-05
12370.0 0.00010234
12390.0 0.00010532
12410.0 0.00010868
12430.0 0.00011194
12450.0 0.00011514
12470.0 0.00011835
12490.0 0.00012135
12510.0 0.00012394
12530.0 0.00012629
12550.0 0.0001283
12570.0 0.0001298
12590.0 0.00013086
12610.0 0.00013152
12630.0 0.0001317
12650.0 0.00013142
12670.0 0.00013077
12690.0 0.00012974
12710.0 0.0001284
12730.0 0.0001268
12750.0 0.00012489
12770.0 0.00012281
12790.0 0.00012062
12810.0 0.00011826
12830.0 0.00011575
12850.0 0.00011325
12870.0 0.00011069
12890.0 0.00010798
12910.0 0.00010523
12930.0 0.0001025
12950.0 9.9611e-05
12970.0 9.6596e-05
12990.0 9.3649e-05
13010.0 9.065e-05
13030.0 8.7531e-05
13050.0 8.4452e-05
13070.0 8.1504e-05
13090.0 7.851e-05
13110.0 7.5599e-05
13130.0 7.2922e-05
13150.0 7.0424e-05
13170.0 6.805e-05
13190.0 6.6021e-05
13210.0 6.4328e-05
13230.0 6.2896e-05
13250.0 6.1791e-05
13270.0 6.104e-05
13290.0 6.0593e-05
13310.0 6.0459e-05
13330.0 6.0614e-05
13350.0 6.1007e-05
13370.0 6.1637e-05
13390.0 6.2469e-05
13410.0 6.3367e-05
13430.0 6.4365e-05
13450.0 6.5441e-05
13470.0 6.6487e-05
13490.0 6.7469e-05
13510.0 6.8461e-05
13530.0 6.9349e-05
13550.0 7.0097e-05
13570.0 7.0752e-05
13590.0 7.1315e-05
13610.0 7.1743e-05
13630.0 7.2055e-05
13650.0 7.2291e-05
13670.0 7.2431e-05
13690.0 7.2481e-05
13710.0 7.2462e-05
13730.0 7.2377e-05
13750.0 7.2222e-05
13770.0 7.2008e-05
13790.0 7.1732e-05
13810.0 7.1394e-05
13830.0 7.1003e-05
13850.0 7.0541e-05
13870.0 7.0004e-05
13890.0 6.9413e-05
13910.0 6.8763e-05
13930.0 6.8029e-05
13950.0 6.724e-05
13970.0 6.6443e-05
13990.0 6.5596e-05
14010.0 6.4719e-05
14030.0 6.3867e-05
14050.0 6.3037e-05
14070.0 6.2201e-05
14090.0 6.1434e-05
14110.0 6.0745e-05
14130.0 6.0115e-05
14150.0 5.956e-05
14170.0 5.9116e-05
14190.0 5.8763e-05
14210.0 5.8501e-05
14230.0 5.8346e-05
14250.0 5.8292e-05
14270.0 5.8343e-05
14290.0 5.8507e-05
14310.0 5.8756e-05
14330.0 5.9098e-05
14350.0 5.9541e-05
14370.0 6.0052e-05
14390.0 6.0603e-05
14410.0 6.1234e-05
14430.0 6.1911e-05
14450.0 6.2592e-05
14470.0 6.3298e-05
14490.0 6.4062e-05
14510.0 6.4818e-05
14530.0 6.5577e-05
14550.0 6.6402e-05
14570.0 6.7291e-05
14590.0 6.8213e-05
14610.0 6.9246e-05
14630.0 7.0444e-05
14650.0 7.1743e-05
14670.0 7.3166e-05
14690.0 7.4804e-05
14710.0 7.6642e-05
14730.0 7.8524e-05
14750.0 8.0586e-05
14770.0 8.2827e-05
14790.0 8.5098e-05
14810.0 8.736e-05
14830.0 8.9777e-05
14850.0 9.2113e-05
14870.0 9.4271e-05
14890.0 9.6331e-05
14910.0 9.8254e-05
14930.0 9.988e-05
14950.0 0.00010122
14970.0 0.00010234
14990.0 0.00010316
15010.0 0.00010368
15030.0 0.00010397
15050.0 0.00010407
15070.0 0.00010401
15090.0 0.00010385
15110.0 0.00010363
15130.0 0.00010336
15150.0 0.00010309
15170.0 0.0001028
15190.0 0.00010251
15210.0 0.00010222
15230.0 0.00010193
15250.0 0.00010164
15270.0 0.00010135
15290.0 0.00010108
15310.0 0.00010079
15330.0 0.00010051
15350.0 0.00010023
15370.0 9.9961e-05
15390.0 9.9675e-05
15410.0 9.9398e-05
15430.0 9.913e-05
15450.0 9.8856e-05
15470.0 9.8576e-05
15490.0 9.8312e-05
15510.0 9.8047e-05
15530.0 9.7773e-05
15550.0 9.7504e-05
15570.0 9.7245e-05
15590.0 9.6974e-05
15610.0 9.6699e-05
15630.0 9.644e-05
15650.0 9.6178e-05
15670.0 9.5907e-05
15690.0 9.5644e-05
15710.0 9.5389e-05
15730.0 9.5122e-05
15750.0 9.4854e-05
15770.0 9.4597e-05
15790.0 9.4337e-05
15810.0 9.4063e-05
15830.0 9.3801e-05
15850.0 9.3546e-05
15870.0 9.3281e-05
15890.0 9.3014e-05
15910.0 9.276e-05
15930.0 9.2499e-05
15950.0 9.2226e-05
15970.0 9.1964e-05
15990.0 9.1706e-05
16010.0 9.1437e-05
16030.0 9.1165e-05
16050.0 9.0909e-05
16070.0 9.0646e-05
16090.0 9.0374e-05
16110.0 9.011e-05
16130.0 8.9852e-05
16150.0 8.9574e-05
16170.0 8.9301e-05
16190.0 8.9039e-05
16210.0 8.877e-05
16230.0 8.8492e-05
16250.0 8.8224e-05
16270.0 8.796e-05
16290.0 8.7681e-05
16310.0 8.7405e-05
16330.0 8.7137e-05
16350.0 8.6862e-05
16370.0 8.6572e-05
16390.0 8.63e-05
16410.0 8.6028e-05
16430.0 8.5743e-05
16450.0 8.5461e-05
16470.0 8.519e-05
16490.0 8.4905e-05
16510.0 8.4614e-05
16530.0 8.4334e-05
16550.0 8.4053e-05
16570.0 8.3758e-05
16590.0 8.3466e-05
16610.0 8.3187e-05
16630.0 8.2896e-05
16650.0 8.26e-05
16670.0 8.2313e-05
16690.0 8.2026e-05
16710.0 8.172e-05
16730.0 8.1423e-05
16750.0 8.1133e-05
16770.0 8.0832e-05
16790.0 8.0525e-05
16810.0 8.0232e-05
16830.0 7.9935e-05
16850.0 7.9626e-05
16870.0 7.9322e-05
16890.0 7.9025e-05
16910.0 7.8713e-05
16930.0 7.8397e-05
16950.0 7.8095e-05
16970.0 7.7788e-05
16990.0 7.747e-05
17010.0 7.7159e-05
17030.0 7.6855e-05
17050.0 7.6536e-05
17070.0 7.6216e-05
17090.0 7.5905e-05
17110.0 7.5589e-05
17130.0 7.5259e-05
17150.0 7.494e-05
17170.0 7.4627e-05
17190.0 7.4301e-05
17210.0 7.3975e-05
17230.0 7.3659e-05
17250.0 7.3334e-05
17270.0 7.2999e-05
17290.0 7.2673e-05
17310.0 7.2351e-05
17330.0 7.2016e-05
17350.0 7.1679e-05
17370.0 7.1358e-05
17390.0 7.1027e-05
17410.0 7.0688e-05
17430.0 7.0357e-05
17450.0 7.0031e-05
17470.0 6.9684e-05
17490.0 6.9344e-05
17510.0 6.9013e-05
17530.0 6.8675e-05
17550.0 6.8329e-05
17570.0 6.7994e-05
17590.0 6.7661e-05
17610.0 6.7313e-05
17630.0 6.697e-05
17650.0 6.6634e-05
17670.0 6.6291e-05
17690.0 6.5933e-05
17710.0 6.5595e-05
17730.0 6.5256e-05
17750.0 6.4905e-05
17770.0 6.4558e-05
17790.0 6.4221e-05
17810.0 6.387e-05
17830.0 6.3516e-05
17850.0 6.3172e-05
17870.0 6.2827e-05
17890.0 6.247e-05
17910.0 6.2118e-05
17930.0 6.1778e-05
17950.0 6.1426e-05
17970.0 6.1071e-05
17990.0 6.0727e-05
18010.0 6.0381e-05
18030.0 6.0018e-05
18050.0 5.9666e-05
18070.0 5.9321e-05
18090.0 5.8967e-05
18110.0 5.8608e-05
18130.0 5.8263e-05
18150.0 5.7915e-05
18170.0 5.7556e-05
18190.0 5.7205e-05
18210.0 5.686e-05
18230.0 5.6501e-05
18250.0 5.614e-05
18270.0 5.5795e-05
18290.0 5.5445e-05
18310.0 5.5086e-05
18330.0 5.4736e-05
18350.0 5.4392e-05
18370.0 5.4034e-05
18390.0 5.3678e-05
18410.0 5.3332e-05
18430.0 5.2982e-05
18450.0 5.2619e-05
18470.0 5.227e-05
18490.0 5.1926e-05
18510.0 5.1572e-05
18530.0 5.1218e-05
18550.0 5.0877e-05
18570.0 5.0526e-05
18590.0 5.0168e-05
18610.0 4.9821e-05
18630.0 4.9477e-05
18650.0 4.9123e-05
18670.0 4.8769e-05
18690.0 4.8431e-05
18710.0 4.8084e-05
18730.0 4.7731e-05
18750.0 4.7388e-05
18770.0 4.705e-05
18790.0 4.6693e-05
18810.0 4.6345e-05
18830.0 4.6007e-05
18850.0 4.5663e-05
18870.0 4.5313e-05
18890.0 4.4975e-05
18910.0 4.4639e-05
18930.0 4.429e-05
18950.0 4.3948e-05
18970.0 4.3614e-05
18990.0 4.3273e-05
19010.0 4.2921e-05
19030.0 4.2589e-05
19050.0 4.2256e-05
19070.0 4.1913e-05
19090.0 4.1576e-05
19110.0 4.125e-05
19130.0 4.0909e-05
19150.0 4.0569e-05
19170.0 4.0239e-05
19190.0 3.9909e-05
19210.0 3.9568e-05
19230.0 3.9234e-05
19250.0 3.8912e-05
19270.0 3.858e-05
19290.0 3.8247e-05
19310.0 3.7924e-05
19330.0 3.76e-05
19350.0 3.7261e-05
19370.0 3.6935e-05
19390.0 3.6615e-05
19410.0 3.6287e-05
19430.0 3.5958e-05
19450.0 3.5642e-05
19470.0 3.5322e-05
19490.0 3.4994e-05
19510.0 3.4675e-05
19530.0 3.4361e-05
19550.0 3.4036e-05
19570.0 3.371e-05
19590.0 3.34e-05
19610.0 3.3085e-05
19630.0 3.2763e-05
19650.0 3.2451e-05
19670.0 3.2144e-05
19690.0 3.1825e-05
19710.0 3.1509e-05
19730.0 3.1203e-05
19750.0 3.0892e-05
19770.0 3.0572e-05
19790.0 3.0266e-05
19810.0 2.9964e-05
19830.0 2.9652e-05
19850.0 2.9341e-05
19870.0 2.9038e-05
19890.0 2.872e-05
19910.0 2.8383e-05
19930.0 2.8041e-05
19950.0 2.7673e-05
19970.0 2.7255e-05
19990.0 2.6791e-05
20010.0 2.635e-05
20030.0 2.5794e-05
20050.0 2.5187e-05
20070.0 2.457e-05
20090.0 2.3946e-05
20110.0 2.3287e-05
20130.0 2.2663e-05
20150.0 2.2085e-05
20170.0 2.1524e-05
20190.0 2.0995e-05
20210.0 2.0528e-05
20230.0 2.0102e-05
20250.0 1.9705e-05
20270.0 1.9363e-05
20290.0 1.9072e-05
20310.0 1.8818e-05
20330.0 1.8605e-05
20350.0 1.8448e-05
20370.0 1.833e-05
20390.0 1.8252e-05
20410.0 1.8218e-05
20430.0 1.8222e-05
20450.0 1.8267e-05
20470.0 1.8353e-05
20490.0 1.8472e-05
20510.0 1.8625e-05
20530.0 1.8819e-05
20550.0 1.9039e-05
20570.0 1.9277e-05
20590.0 1.9548e-05
20610.0 1.984e-05
20630.0 2.0136e-05
20650.0 2.0446e-05
20670.0 2.078e-05
20690.0 2.1099e-05
20710.0 2.1411e-05
20730.0 2.1729e-05
20750.0 2.2041e-05
20770.0 2.2328e-05
20790.0 2.2614e-05
20810.0 2.2899e-05
20830.0 2.3169e-05
20850.0 2.343e-05
20870.0 2.3702e-05
20890.0 2.3976e-05
20910.0 2.4239e-05
20930.0 2.4513e-05
20950.0 2.4802e-05
20970.0 2.5087e-05
20990.0 2.5372e-05
21010.0 2.5675e-05
21030.0 2.5972e-05
21050.0 2.6254e-05
21070.0 2.6531e-05
21090.0 2.6802e-05
21110.0 2.7038e-05
21130.0 2.7247e-05
21150.0 2.7436e-05
21170.0 2.759e-05
21190.0 2.7706e-05
21210.0 2.779e-05
21230.0 2.7838e-05
21250.0 2.7845e-05
21270.0 2.7817e-05
21290.0 2.7751e-05
21310.0 2.7648e-05
21330.0 2.7516e-05
21350.0 2.7349e-05
21370.0 2.7148e-05
21390.0 2.6924e-05
21410.0 2.6677e-05
21430.0 2.639e-05
21450.0 2.6091e-05
21470.0 2.5784e-05
21490.0 2.5456e-05
21510.0 2.5113e-05
21530.0 2.4779e-05
21550.0 2.4442e-05
21570.0 2.4096e-05
21590.0 2.3768e-05
21610.0 2.346e-05
21630.0 2.3162e-05
21650.0 2.2881e-05
21670.0 2.2646e-05
21690.0 2.2437e-05
21710.0 2.2259e-05
21730.0 2.2123e-05
21750.0 2.203e-05
21770.0 2.1974e-05
21790.0 2.1965e-05
21810.0 2.1999e-05
21830.0 2.2075e-05
21850.0 2.2199e-05
21870.0 2.2361e-05
21890.0 2.2554e-05
21910.0 2.2793e-05
21930.0 2.3066e-05
21950.0 2.3359e-05
21970.0 2.3683e-05
21990.0 2.4049e-05
22010.0 2.4417e-05
22030.0 2.4795e-05
22050.0 2.5197e-05
22070.0 2.5608e-05
22090.0 2.6002e-05
22110.0 2.6403e-05
22130.0 2.6809e-05
22150.0 2.719e-05
22170.0 2.755e-05
22190.0 2.7904e-05
22210.0 2.8228e-05
22230.0 2.8506e-05
22250.0 2.8755e-05
22270.0 2.8968e-05
22290.0 2.913e-05
22310.0 2.9244e-05
22330.0 2.9312e-05
22350.0 2.9323e-05
22370.0 2.9281e-05
22390.0 2.9182e-05
22410.0 2.9019e-05
22430.0 2.8808e-05
22450.0 2.8546e-05
22470.0 2.8221e-05
22490.0 2.7848e-05
22510.0 2.7442e-05
22530.0 2.6975e-05
22550.0 2.6457e-05
22570.0 2.5925e-05
22590.0 2.5363e-05
22610.0 2.4754e-05
22630.0 2.4131e-05
22650.0 2.3518e-05
22670.0 2.2871e-05
