#lamb flux
1010.0 4.1717e-06
1030.0 4.2483e-06
1050.0 4.5666e-06
1070.0 4.9116e-06
1090.0 5.2828e-06
1110.0 5.6168e-06
1130.0 5.9085e-06
1150.0 6.1869e-06
1170.0 6.4477e-06
1190.0 6.6533e-06
1210.0 6.8491e-06
1230.0 7.0507e-06
1250.0 7.2389e-06
1270.0 7.4194e-06
1290.0 7.636e-06
1310.0 7.8698e-06
1330.0 8.1108e-06
1350.0 8.3881e-06
1370.0 8.7159e-06
1390.0 9.0775e-06
1410.0 9.478e-06
1430.0 9.9533e-06
1450.0 1.0493e-05
1470.0 1.1091e-05
1490.0 1.1772e-05
1510.0 1.2564e-05
1530.0 1.3429e-05
1550.0 1.4391e-05
1570.0 1.5482e-05
1590.0 1.6694e-05
1610.0 1.801e-05
1630.0 1.9476e-05
1650.0 2.1099e-05
1670.0 2.2847e-05
1690.0 2.4733e-05
1710.0 2.679e-05
1730.0 2.8997e-05
1750.0 3.1295e-05
1770.0 3.3738e-05
1790.0 3.6309e-05
1810.0 3.8946e-05
1830.0 4.1636e-05
1850.0 4.4427e-05
1870.0 4.7209e-05
1890.0 4.9941e-05
1910.0 5.2644e-05
1930.0 5.5291e-05
1950.0 5.7771e-05
1970.0 6.0089e-05
1990.0 6.2272e-05
2010.0 6.4234e-05
2030.0 6.593e-05
2050.0 6.7421e-05
2070.0 6.8692e-05
2090.0 6.9639e-05
2110.0 7.0327e-05
2130.0 7.0801e-05
2150.0 7.1013e-05
2170.0 7.0954e-05
2190.0 7.073e-05
2210.0 7.0328e-05
2230.0 6.972e-05
2250.0 6.8972e-05
2270.0 6.8154e-05
2290.0 6.7213e-05
2310.0 6.6169e-05
2330.0 6.5111e-05
2350.0 6.404e-05
2370.0 6.2933e-05
2390.0 6.186e-05
2410.0 6.0876e-05
2430.0 5.9939e-05
2450.0 5.9083e-05
2470.0 5.8383e-05
2490.0 5.787e-05
2510.0 5.7515e-05
2530.0 5.7498e-05
2550.0 5.8046e-05
2570.0 5.9351e-05
2590.0 6.1672e-05
2610.0 6.578e-05
2630.0 7.1839e-05
2650.0 7.9563e-05
2670.0 8.9199e-05
2690.0 0.00010064
2710.0 0.0001126
2730.0 0.00012455
2750.0 0.00013702
2770.0 0.00014922
2790.0 0.00016094
2810.0 0.00017299
2830.0 0.0001861
2850.0 0.00019931
2870.0 0.00021327
2890.0 0.00022861
2910.0 0.00024492
2930.0 0.00026163
2950.0 0.00027977
2970.0 0.00029922
2990.0 0.0003192
3010.0 0.00034005
3030.0 0.00036242
3050.0 0.00038563
3070.0 0.00040846
3090.0 0.0004316
3110.0 0.00045377
3130.0 0.00047313
3150.0 0.00048879
3170.0 0.00049937
3190.0 0.00050426
3210.0 0.0005047
3230.0 0.00050184
3250.0 0.00049815
3270.0 0.00049708
3290.0 0.00049932
3310.0 0.00050508
3330.0 0.00051449
3350.0 0.0005262
3370.0 0.00054012
3390.0 0.00055828
3410.0 0.00057409
3430.0 0.00058956
3450.0 0.00060494
3470.0 0.00062334
3490.0 0.00066912
3510.0 0.00077962
3530.0 0.00093639
3550.0 0.0010814
3570.0 0.0011784
3590.0 0.0012269
3610.0 0.0012209
3630.0 0.0011884
3650.0 0.0012791
3670.0 0.0015068
3690.0 0.0017009
3710.0 0.0018225
3730.0 0.0019321
3750.0 0.0020422
3770.0 0.0020153
3790.0 0.0018875
3810.0 0.0017596
3830.0 0.001645
3850.0 0.001631
3870.0 0.0017701
3890.0 0.0019222
3910.0 0.0020242
3930.0 0.002114
3950.0 0.002334
3970.0 0.002525
3990.0 0.0024114
4010.0 0.002111
4030.0 0.0018429
4050.0 0.0017637
4070.0 0.0017819
4090.0 0.0017611
4110.0 0.0017295
4130.0 0.0017038
4150.0 0.0017152
4170.0 0.0018483
4190.0 0.002024
4210.0 0.0020121
4230.0 0.0019202
4250.0 0.0018862
4270.0 0.0019095
4290.0 0.0020151
4310.0 0.0021186
4330.0 0.0020202
4350.0 0.0017519
4370.0 0.0015323
4390.0 0.0013665
4410.0 0.0012254
4430.0 0.0012154
4450.0 0.0013126
4470.0 0.0013977
4490.0 0.0015068
4510.0 0.0017262
4530.0 0.0022042
4550.0 0.0028608
4570.0 0.0032629
4590.0 0.003486
4610.0 0.003871
4630.0 0.0041717
4650.0 0.0039219
4670.0 0.0032276
4690.0 0.0026253
4710.0 0.0023462
4730.0 0.0022562
4750.0 0.0020945
4770.0 0.001954
4790.0 0.002057
4810.0 0.002253
4830.0 0.0022869
4850.0 0.0021456
4870.0 0.0021095
4890.0 0.0022667
4910.0 0.0024143
4930.0 0.0024441
4950.0 0.0023704
4970.0 0.0022151
4990.0 0.0019914
5010.0 0.0017953
5030.0 0.0016782
5050.0 0.0016193
5070.0 0.0015715
5090.0 0.0015165
5110.0 0.0014962
5130.0 0.0014988
5150.0 0.0015546
5170.0 0.0017216
5190.0 0.0019478
5210.0 0.0022076
5230.0 0.0023903
5250.0 0.0024944
5270.0 0.0026375
5290.0 0.0028155
5310.0 0.0028952
5330.0 0.0028052
5350.0 0.0026535
5370.0 0.0026452
5390.0 0.0028303
5410.0 0.0030936
5430.0 0.0032813
5450.0 0.0033507
5470.0 0.0033151
5490.0 0.0032109
5510.0 0.0031284
5530.0 0.0030987
5550.0 0.0031005
5570.0 0.0030881
5590.0 0.003023
5610.0 0.0029069
5630.0 0.0027193
5650.0 0.0024935
5670.0 0.0023443
5690.0 0.0022879
5710.0 0.0022687
5730.0 0.0022564
5750.0 0.0022244
5770.0 0.0021881
5790.0 0.0021936
5810.0 0.0021991
5830.0 0.0022147
5850.0 0.0022311
5870.0 0.002189
5890.0 0.0021048
5910.0 0.0019871
5930.0 0.0017937
5950.0 0.0016171
5970.0 0.0015563
5990.0 0.0015947
6010.0 0.0016261
6030.0 0.001573
6050.0 0.0015144
6070.0 0.0015712
6090.0 0.0017037
6110.0 0.0017838
6130.0 0.0017464
6150.0 0.0016525
6170.0 0.0015853
6190.0 0.0015282
6210.0 0.0014404
6230.0 0.0013314
6250.0 0.001269
6270.0 0.0012824
6290.0 0.0013141
6310.0 0.0013842
6330.0 0.0015086
6350.0 0.0016511
6370.0 0.0017356
6390.0 0.0017656
6410.0 0.0017933
6430.0 0.0018172
6450.0 0.0018457
6470.0 0.0018862
6490.0 0.0019292
6510.0 0.0019642
6530.0 0.001973
6550.0 0.0019583
6570.0 0.0019012
6590.0 0.0018039
6610.0 0.0017317
6630.0 0.0016919
6650.0 0.0016379
6670.0 0.0015606
6690.0 0.0014925
6710.0 0.0014586
6730.0 0.0014367
6750.0 0.001412
6770.0 0.001391
6790.0 0.001371
6810.0 0.0013382
6830.0 0.0013154
6850.0 0.0013437
6870.0 0.0013667
6890.0 0.0013503
6910.0 0.001324
6930.0 0.0013014
6950.0 0.0012716
6970.0 0.0012229
6990.0 0.0011764
7010.0 0.0011534
7030.0 0.0011384
7050.0 0.0010974
7070.0 0.0010375
7090.0 0.0010175
7110.0 0.001052
7130.0 0.0011207
7150.0 0.0011896
7170.0 0.0012362
7190.0 0.0012341
7210.0 0.0011838
7230.0 0.0011504
7250.0 0.0011571
7270.0 0.0011544
7290.0 0.0011447
7310.0 0.001158
7330.0 0.0011974
7350.0 0.0012498
7370.0 0.0012823
7390.0 0.0012861
7410.0 0.0012686
7430.0 0.0012303
7450.0 0.0011811
7470.0 0.0011331
7490.0 0.001094
7510.0 0.0010623
7530.0 0.0010483
7550.0 0.0010538
7570.0 0.0010625
7590.0 0.0010743
7610.0 0.0010728
7630.0 0.0010678
7650.0 0.0010864
7670.0 0.0011209
7690.0 0.0011576
7710.0 0.0011933
7730.0 0.0012242
7750.0 0.00126
7770.0 0.0012917
7790.0 0.0013153
7810.0 0.0013234
7830.0 0.0013115
7850.0 0.0012753
7870.0 0.0012172
7890.0 0.0011577
7910.0 0.001125
7930.0 0.0011051
7950.0 0.0010813
7970.0 0.0010631
7990.0 0.0010626
8010.0 0.0010087
8030.0 0.00099902
8050.0 0.00098703
8070.0 0.00097089
8090.0 0.00095493
8110.0 0.00095301
8130.0 0.00095645
8150.0 0.00095155
8170.0 0.00094305
8190.0 0.0009166
8210.0 0.00086301
8230.0 0.00080813
8250.0 0.00077814
8270.0 0.00075089
8290.0 0.00071532
8310.0 0.0006901
8330.0 0.0006777
8350.0 0.00065911
8370.0 0.00065697
8390.0 0.00068594
8410.0 0.00072853
8430.0 0.00077971
8450.0 0.00083642
8470.0 0.00087447
8490.0 0.0009105
8510.0 0.00094017
8530.0 0.00096907
8550.0 0.00099478
8570.0 0.0010128
8590.0 0.0010281
8610.0 0.0010534
8630.0 0.0010625
8650.0 0.0010418
8670.0 0.0010426
8690.0 0.0010651
8710.0 0.0010906
8730.0 0.0010926
8750.0 0.0010688
8770.0 0.0010611
8790.0 0.001057
8810.0 0.001036
8830.0 0.0009647
8850.0 0.00087672
8870.0 0.00081366
8890.0 0.00078447
8910.0 0.00074617
8930.0 0.00069362
8950.0 0.00065603
8970.0 0.00064757
8990.0 0.00065444
9010.0 0.00065443
9030.0 0.00064908
9050.0 0.00064439
9070.0 0.00064071
9090.0 0.00063719
9110.0 0.00063373
9130.0 0.00063027
9150.0 0.00062685
9170.0 0.00062344
9190.0 0.00062007
9210.0 0.00061676
9230.0 0.0006134
9250.0 0.00061008
9270.0 0.00060678
9290.0 0.00060351
9310.0 0.00060027
9330.0 0.00059705
9350.0 0.00059386
9370.0 0.00059069
9390.0 0.00058755
9410.0 0.00058441
9430.0 0.00058123
9450.0 0.00057774
9470.0 0.00057438
9490.0 0.00057172
9510.0 0.00056887
9530.0 0.00056603
9550.0 0.0005631
9570.0 0.00056016
9590.0 0.00055727
9610.0 0.00055437
9630.0 0.00055145
9650.0 0.00054856
9670.0 0.00054574
9690.0 0.00054288
9710.0 0.00054003
9730.0 0.00053724
9750.0 0.00053445
9770.0 0.00053162
9790.0 0.00052884
9810.0 0.0005261
9830.0 0.00052332
9850.0 0.00052038
9870.0 0.00051772
9890.0 0.00051506
9910.0 0.00051236
9930.0 0.00050968
9950.0 0.00050693
9970.0 0.00050424
9990.0 0.00050151
10010.0 0.00049859
10030.0 0.00049581
10050.0 0.00049327
10070.0 0.00049071
10090.0 0.00048814
10110.0 0.0004853
10130.0 0.00048151
10150.0 0.00047903
10170.0 0.00047676
10190.0 0.00047423
10210.0 0.00047173
10230.0 0.00046921
10250.0 0.00046649
10270.0 0.00046376
10290.0 0.00046113
10310.0 0.00045836
10330.0 0.00045547
10350.0 0.00045273
10370.0 0.00045
10390.0 0.00044711
10410.0 0.00044424
10430.0 0.00044152
10450.0 0.00043865
10470.0 0.0004357
10490.0 0.00043285
10510.0 0.00043001
10530.0 0.00042693
10550.0 0.00042393
10570.0 0.00042105
10590.0 0.00041803
10610.0 0.00041492
10630.0 0.00041195
10650.0 0.00040894
10670.0 0.00040573
10690.0 0.00040259
10710.0 0.00039952
10730.0 0.0003963
10750.0 0.00039294
10770.0 0.00038981
10790.0 0.00038659
10810.0 0.00038322
10830.0 0.00037991
10850.0 0.00037669
10870.0 0.00037321
10890.0 0.00036973
10910.0 0.00036638
10930.0 0.00036299
10950.0 0.00035946
10970.0 0.00035604
10990.0 0.00035279
11010.0 0.00033624
11030.0 0.00033268
11050.0 0.00032937
11070.0 0.00032613
11090.0 0.00032284
11110.0 0.00031986
11130.0 0.00031706
11150.0 0.00031432
11170.0 0.00031175
11190.0 0.00030947
11210.0 0.00030732
11230.0 0.0003053
11250.0 0.00030355
11270.0 0.000302
11290.0 0.00030057
11310.0 0.00029932
11330.0 0.00029827
11350.0 0.00029731
11370.0 0.00029643
11390.0 0.00029565
11410.0 0.00029491
11430.0 0.00029414
11450.0 0.00029336
11470.0 0.00029255
11490.0 0.00029166
11510.0 0.00029064
11530.0 0.00028954
11550.0 0.00028833
11570.0 0.00028692
11590.0 0.00028536
11610.0 0.00028369
11630.0 0.00028177
11650.0 0.00027961
11670.0 0.00027733
11690.0 0.00027486
11710.0 0.00027208
11730.0 0.0002691
11750.0 0.00026602
11770.0 0.00026261
11790.0 0.00025892
11810.0 0.00025515
11830.0 0.00025121
11850.0 0.00024689
11870.0 0.00024254
11890.0 0.00023824
11910.0 0.00023374
11930.0 0.00022917
11950.0 0.00022478
11970.0 0.00022042
11990.0 0.00021597
12010.0 0.00021177
12030.0 0.00020779
12050.0 0.00020386
12070.0 0.00020005
12090.0 0.00019664
12110.0 0.00019337
12130.0 0.00019022
12150.0 0.00018735
12170.0 0.00018476
12190.0 0.00018227
12210.0 0.00018004
12230.0 0.00017814
12250.0 0.00017645
12270.0 0.00017499
12290.0 0.00017383
12310.0 0.00017292
12330.0 0.00017222
12350.0 0.00017174
12370.0 0.00017147
12390.0 0.00017135
12410.0 0.00017141
12430.0 0.00017156
12450.0 0.0001718
12470.0 0.00017213
12490.0 0.0001725
12510.0 0.00017287
12530.0 0.00017326
12550.0 0.00017366
12570.0 0.00017401
12590.0 0.0001743
12610.0 0.00017454
12630.0 0.00017468
12650.0 0.00017467
12670.0 0.00017455
12690.0 0.00017425
12710.0 0.00017379
12730.0 0.00017315
12750.0 0.00017229
12770.0 0.00017124
12790.0 0.00017004
12810.0 0.00016865
12830.0 0.00016707
12850.0 0.00016543
12870.0 0.0001637
12890.0 0.00016185
12910.0 0.00015999
12930.0 0.00015816
12950.0 0.00015629
12970.0 0.00015443
12990.0 0.00015269
13010.0 0.000151
13030.0 0.00014934
13050.0 0.00014777
13070.0 0.00014632
13090.0 0.00014488
13110.0 0.0001435
13130.0 0.00014223
13150.0 0.00014101
13170.0 0.00013981
13190.0 0.00013869
13210.0 0.00013767
13230.0 0.00013667
13250.0 0.00013571
13270.0 0.00013484
13290.0 0.000134
13310.0 0.00013318
13330.0 0.0001324
13350.0 0.00013166
13370.0 0.0001309
13390.0 0.00013014
13410.0 0.00012939
13430.0 0.00012861
13450.0 0.00012777
13470.0 0.00012691
13490.0 0.00012601
13510.0 0.00012501
13530.0 0.00012396
13550.0 0.00012288
13570.0 0.00012174
13590.0 0.00012051
13610.0 0.00011927
13630.0 0.00011802
13650.0 0.00011669
13670.0 0.00011535
13690.0 0.00011404
13710.0 0.0001127
13730.0 0.00011131
13750.0 0.00010999
13770.0 0.00010869
13790.0 0.00010737
13810.0 0.00010607
13830.0 0.00010484
13850.0 0.0001036
13870.0 0.00010237
13890.0 0.00010121
13910.0 0.0001001
13930.0 9.8993e-05
13950.0 9.7945e-05
13970.0 9.7e-05
13990.0 9.6083e-05
14010.0 9.521e-05
14030.0 9.4422e-05
14050.0 9.3691e-05
14070.0 9.2977e-05
14090.0 9.233e-05
14110.0 9.1742e-05
14130.0 9.1176e-05
14150.0 9.0632e-05
14170.0 9.0138e-05
14190.0 8.9664e-05
14210.0 8.9191e-05
14230.0 8.8738e-05
14250.0 8.8308e-05
14270.0 8.7868e-05
14290.0 8.7425e-05
14310.0 8.7007e-05
14330.0 8.6587e-05
14350.0 8.6155e-05
14370.0 8.5733e-05
14390.0 8.5327e-05
14410.0 8.4906e-05
14430.0 8.4487e-05
14450.0 8.4089e-05
14470.0 8.3696e-05
14490.0 8.3291e-05
14510.0 8.2909e-05
14530.0 8.2542e-05
14550.0 8.2164e-05
14570.0 8.1781e-05
14590.0 8.1408e-05
14610.0 8.1017e-05
14630.0 8.0595e-05
14650.0 8.0173e-05
14670.0 7.9748e-05
14690.0 7.9305e-05
14710.0 7.8866e-05
14730.0 7.8482e-05
14750.0 7.8137e-05
14770.0 7.7856e-05
14790.0 7.7685e-05
14810.0 7.7639e-05
14830.0 7.7742e-05
14850.0 7.8024e-05
14870.0 7.8476e-05
14890.0 7.9107e-05
14910.0 7.9918e-05
14930.0 8.0822e-05
14950.0 8.1767e-05
14970.0 8.2749e-05
14990.0 8.3656e-05
15010.0 8.4425e-05
15030.0 8.5067e-05
15050.0 8.5575e-05
15070.0 8.5927e-05
15090.0 8.6183e-05
15110.0 8.6373e-05
15130.0 8.6518e-05
15150.0 8.6641e-05
15170.0 8.6752e-05
15190.0 8.686e-05
15210.0 8.6968e-05
15230.0 8.7079e-05
15250.0 8.7191e-05
15270.0 8.7305e-05
15290.0 8.7424e-05
15310.0 8.7545e-05
15330.0 8.7668e-05
15350.0 8.7794e-05
15370.0 8.7924e-05
15390.0 8.8054e-05
15410.0 8.8187e-05
15430.0 8.8325e-05
15450.0 8.8463e-05
15470.0 8.8604e-05
15490.0 8.8748e-05
15510.0 8.8895e-05
15530.0 8.9043e-05
15550.0 8.9194e-05
15570.0 8.9348e-05
15590.0 8.9504e-05
15610.0 8.966e-05
15630.0 8.9821e-05
15650.0 8.9984e-05
15670.0 9.0147e-05
15690.0 9.0313e-05
15710.0 9.0483e-05
15730.0 9.0653e-05
15750.0 9.0824e-05
15770.0 9.0999e-05
15790.0 9.1175e-05
15810.0 9.1352e-05
15830.0 9.1532e-05
15850.0 9.1714e-05
15870.0 9.1896e-05
15890.0 9.2081e-05
15910.0 9.2268e-05
15930.0 9.2455e-05
15950.0 9.2643e-05
15970.0 9.2834e-05
15990.0 9.3026e-05
16010.0 9.3219e-05
16030.0 9.3413e-05
16050.0 9.3609e-05
16070.0 9.3806e-05
16090.0 9.4003e-05
16110.0 9.4202e-05
16130.0 9.4403e-05
16150.0 9.4603e-05
16170.0 9.4804e-05
16190.0 9.5007e-05
16210.0 9.521e-05
16230.0 9.5413e-05
16250.0 9.5617e-05
16270.0 9.5823e-05
16290.0 9.6028e-05
16310.0 9.6233e-05
16330.0 9.644e-05
16350.0 9.6647e-05
16370.0 9.6852e-05
16390.0 9.7059e-05
16410.0 9.7267e-05
16430.0 9.7473e-05
16450.0 9.768e-05
16470.0 9.7887e-05
16490.0 9.8094e-05
16510.0 9.8299e-05
16530.0 9.8506e-05
16550.0 9.8712e-05
16570.0 9.8916e-05
16590.0 9.912e-05
16610.0 9.9325e-05
16630.0 9.9528e-05
16650.0 9.973e-05
16670.0 9.9933e-05
16690.0 0.00010013
16710.0 0.00010033
16730.0 0.00010053
16750.0 0.00010073
16770.0 0.00010093
16790.0 0.00010112
16810.0 0.00010132
16830.0 0.00010151
16850.0 0.0001017
16870.0 0.00010189
16890.0 0.00010208
16910.0 0.00010226
16930.0 0.00010245
16950.0 0.00010263
16970.0 0.00010281
16990.0 0.00010299
17010.0 0.00010316
17030.0 0.00010334
17050.0 0.00010351
17070.0 0.00010368
17090.0 0.00010385
17110.0 0.00010401
17130.0 0.00010418
17150.0 0.00010434
17170.0 0.00010449
17190.0 0.00010465
17210.0 0.0001048
17230.0 0.00010495
17250.0 0.00010509
17270.0 0.00010524
17290.0 0.00010538
17310.0 0.00010551
17330.0 0.00010564
17350.0 0.00010577
17370.0 0.0001059
17390.0 0.00010602
17410.0 0.00010614
17430.0 0.00010626
17450.0 0.00010637
17470.0 0.00010648
17490.0 0.00010658
17510.0 0.00010668
17530.0 0.00010678
17550.0 0.00010687
17570.0 0.00010696
17590.0 0.00010705
17610.0 0.00010713
17630.0 0.0001072
17650.0 0.00010728
17670.0 0.00010734
17690.0 0.0001074
17710.0 0.00010746
17730.0 0.00010752
17750.0 0.00010757
17770.0 0.00010761
17790.0 0.00010765
17810.0 0.00010769
17830.0 0.00010772
17850.0 0.00010775
17870.0 0.00010777
17890.0 0.00010778
17910.0 0.00010779
17930.0 0.0001078
17950.0 0.0001078
17970.0 0.0001078
17990.0 0.00010779
18010.0 0.00010778
18030.0 0.00010776
18050.0 0.00010773
18070.0 0.0001077
18090.0 0.00010767
18110.0 0.00010763
18130.0 0.00010758
18150.0 0.00010753
18170.0 0.00010747
18190.0 0.00010741
18210.0 0.00010735
18230.0 0.00010727
18250.0 0.00010719
18270.0 0.00010711
18290.0 0.00010702
18310.0 0.00010693
18330.0 0.00010683
18350.0 0.00010672
18370.0 0.00010661
18390.0 0.00010649
18410.0 0.00010637
18430.0 0.00010625
18450.0 0.00010611
18470.0 0.00010597
18490.0 0.00010583
18510.0 0.00010568
18530.0 0.00010552
18550.0 0.00010536
18570.0 0.0001052
18590.0 0.00010503
18610.0 0.00010485
18630.0 0.00010467
18650.0 0.00010448
18670.0 0.00010428
18690.0 0.00010409
18710.0 0.00010388
18730.0 0.00010367
18750.0 0.00010346
18770.0 0.00010324
18790.0 0.00010301
18810.0 0.00010278
18830.0 0.00010254
18850.0 0.0001023
18870.0 0.00010205
18890.0 0.0001018
18910.0 0.00010155
18930.0 0.00010128
18950.0 0.00010102
18970.0 0.00010075
18990.0 0.00010047
19010.0 0.00010019
19030.0 9.9901e-05
19050.0 9.961e-05
19070.0 9.9313e-05
19090.0 9.9013e-05
19110.0 9.8708e-05
19130.0 9.8398e-05
19150.0 9.8082e-05
19170.0 9.7764e-05
19190.0 9.744e-05
19210.0 9.7111e-05
19230.0 9.6779e-05
19250.0 9.6443e-05
19270.0 9.6102e-05
19290.0 9.5757e-05
19310.0 9.5408e-05
19330.0 9.5056e-05
19350.0 9.4697e-05
19370.0 9.4336e-05
19390.0 9.3972e-05
19410.0 9.3603e-05
19430.0 9.323e-05
19450.0 9.2855e-05
19470.0 9.2475e-05
19490.0 9.2092e-05
19510.0 9.1705e-05
19530.0 9.1316e-05
19550.0 9.0922e-05
19570.0 9.0524e-05
19590.0 9.0125e-05
19610.0 8.9723e-05
19630.0 8.9316e-05
19650.0 8.8908e-05
19670.0 8.8497e-05
19690.0 8.8082e-05
19710.0 8.7664e-05
19730.0 8.7245e-05
19750.0 8.6822e-05
19770.0 8.6396e-05
19790.0 8.5969e-05
19810.0 8.5539e-05
19830.0 8.5104e-05
19850.0 8.4665e-05
19870.0 8.4218e-05
19890.0 8.3755e-05
19910.0 8.3264e-05
19930.0 8.2733e-05
19950.0 8.2144e-05
19970.0 8.1463e-05
19990.0 8.0674e-05
20010.0 7.9792e-05
20030.0 7.8778e-05
20050.0 7.7641e-05
20070.0 7.6436e-05
20090.0 7.5174e-05
20110.0 7.3812e-05
20130.0 7.2457e-05
20150.0 7.1128e-05
20170.0 6.9781e-05
20190.0 6.8435e-05
20210.0 6.715e-05
20230.0 6.589e-05
20250.0 6.4625e-05
20270.0 6.3414e-05
20290.0 6.2261e-05
20310.0 6.1126e-05
20330.0 6.0011e-05
20350.0 5.8992e-05
20370.0 5.8009e-05
20390.0 5.7058e-05
20410.0 5.6169e-05
20430.0 5.5347e-05
20450.0 5.455e-05
20470.0 5.3808e-05
20490.0 5.3131e-05
20510.0 5.2499e-05
20530.0 5.1905e-05
20550.0 5.1365e-05
20570.0 5.0872e-05
20590.0 5.0411e-05
20610.0 4.9987e-05
20630.0 4.9597e-05
20650.0 4.9233e-05
20670.0 4.8893e-05
20690.0 4.8573e-05
20710.0 4.8267e-05
20730.0 4.7972e-05
20750.0 4.7684e-05
20770.0 4.7395e-05
20790.0 4.7104e-05
20810.0 4.6809e-05
20830.0 4.6503e-05
20850.0 4.6185e-05
20870.0 4.5851e-05
20890.0 4.5499e-05
20910.0 4.5131e-05
20930.0 4.4742e-05
20950.0 4.433e-05
20970.0 4.39e-05
20990.0 4.3454e-05
21010.0 4.298e-05
21030.0 4.249e-05
21050.0 4.1989e-05
21070.0 4.1469e-05
21090.0 4.0928e-05
21110.0 4.0387e-05
21130.0 3.984e-05
21150.0 3.9276e-05
21170.0 3.871e-05
21190.0 3.8152e-05
21210.0 3.7582e-05
21230.0 3.7007e-05
21250.0 3.6446e-05
21270.0 3.5891e-05
21290.0 3.5332e-05
21310.0 3.4783e-05
21330.0 3.4255e-05
21350.0 3.3727e-05
21370.0 3.3207e-05
21390.0 3.2708e-05
21410.0 3.2223e-05
21430.0 3.1739e-05
21450.0 3.1279e-05
21470.0 3.084e-05
21490.0 3.0413e-05
21510.0 3e-05
21530.0 2.9611e-05
21550.0 2.9237e-05
21570.0 2.8875e-05
21590.0 2.8532e-05
21610.0 2.8205e-05
21630.0 2.789e-05
21650.0 2.7586e-05
21670.0 2.7299e-05
21690.0 2.702e-05
21710.0 2.6748e-05
21730.0 2.6485e-05
21750.0 2.6228e-05
21770.0 2.5974e-05
21790.0 2.5723e-05
21810.0 2.5476e-05
21830.0 2.5229e-05
21850.0 2.4982e-05
21870.0 2.4735e-05
21890.0 2.4488e-05
21910.0 2.4239e-05
21930.0 2.3988e-05
21950.0 2.3736e-05
21970.0 2.3481e-05
21990.0 2.3221e-05
22010.0 2.2961e-05
22030.0 2.2699e-05
22050.0 2.2432e-05
22070.0 2.2162e-05
22090.0 2.1892e-05
22110.0 2.1618e-05
22130.0 2.1337e-05
22150.0 2.1056e-05
22170.0 2.0773e-05
22190.0 2.0482e-05
22210.0 2.0188e-05
22230.0 1.9897e-05
22250.0 1.9601e-05
22270.0 1.9299e-05
22290.0 1.8999e-05
22310.0 1.8699e-05
22330.0 1.839e-05
22350.0 1.8082e-05
22370.0 1.7778e-05
22390.0 1.7471e-05
22410.0 1.7158e-05
22430.0 1.6854e-05
22450.0 1.6551e-05
22470.0 1.6245e-05
22490.0 1.5942e-05
22510.0 1.5648e-05
22530.0 1.535e-05
22550.0 1.5053e-05
22570.0 1.4767e-05
22590.0 1.4487e-05
22610.0 1.4207e-05
22630.0 1.3936e-05
22650.0 1.3678e-05
22670.0 1.3422e-05
22690.0 1.3173e-05
22710.0 1.2937e-05
22730.0 1.271e-05
22750.0 1.2486e-05
22770.0 1.2276e-05
22790.0 1.2079e-05
22810.0 1.1888e-05
22830.0 1.1706e-05
22850.0 1.1536e-05
22870.0 1.1373e-05
