#lamb flux
1010.0 4.7604e-05
1030.0 5.2105e-05
1050.0 5.6767e-05
1070.0 6.2015e-05
1090.0 6.8127e-05
1110.0 7.4367e-05
1130.0 8.0631e-05
1150.0 8.7186e-05
1170.0 9.3961e-05
1190.0 0.00010042
1210.0 0.00010703
1230.0 0.00011393
1250.0 0.00012077
1270.0 0.00012754
1290.0 0.00013481
1310.0 0.00014222
1330.0 0.00014949
1350.0 0.00015697
1370.0 0.00016477
1390.0 0.00017249
1410.0 0.00018006
1430.0 0.00018796
1450.0 0.00019586
1470.0 0.00020348
1490.0 0.0002111
1510.0 0.00021902
1530.0 0.00022642
1550.0 0.00023358
1570.0 0.00024081
1590.0 0.00024785
1610.0 0.00025436
1630.0 0.00026079
1650.0 0.00026718
1670.0 0.0002731
1690.0 0.00027868
1710.0 0.0002843
1730.0 0.00028973
1750.0 0.00029454
1770.0 0.00029937
1790.0 0.00030419
1810.0 0.00030868
1830.0 0.00031299
1850.0 0.00031769
1870.0 0.00032224
1890.0 0.00032665
1910.0 0.00033133
1930.0 0.00033635
1950.0 0.0003413
1970.0 0.00034644
1990.0 0.00035209
2010.0 0.00035793
2030.0 0.00036384
2050.0 0.00037023
2070.0 0.00037703
2090.0 0.00038369
2110.0 0.00039052
2130.0 0.00039767
2150.0 0.00040477
2170.0 0.00041161
2190.0 0.00041863
2210.0 0.0004256
2230.0 0.00043214
2250.0 0.00043845
2270.0 0.00044477
2290.0 0.0004506
2310.0 0.00045585
2330.0 0.00046094
2350.0 0.00046572
2370.0 0.00046986
2390.0 0.00047368
2410.0 0.00047742
2430.0 0.0004806
2450.0 0.00048328
2470.0 0.0004858
2490.0 0.00048817
2510.0 0.00049027
2530.0 0.00049338
2550.0 0.00049939
2570.0 0.00051041
2590.0 0.00052909
2610.0 0.00056185
2630.0 0.00061081
2650.0 0.00067364
2670.0 0.00075132
2690.0 0.0008408
2710.0 0.00092843
2730.0 0.001006
2750.0 0.001071
2770.0 0.0011122
2790.0 0.0011262
2810.0 0.0011149
2830.0 0.0010778
2850.0 0.0010223
2870.0 0.00095345
2890.0 0.00087252
2910.0 0.00078504
2930.0 0.00069711
2950.0 0.00060392
2970.0 0.00050716
2990.0 0.00041201
3010.0 0.00050072
3030.0 0.00034338
3050.0 0.00018522
3070.0 5.538e-05
3090.0 5.538e-05
3110.0 5.538e-05
3130.0 5.538e-05
3150.0 5.538e-05
3170.0 5.538e-05
3190.0 5.538e-05
3210.0 0.0017484
3230.0 0.0048632
3250.0 0.0066162
3270.0 0.0058059
3290.0 0.0044007
3310.0 0.0034861
3330.0 0.0032519
3350.0 0.003411
3370.0 0.00369
3390.0 0.0039819
3410.0 0.0042877
3430.0 0.0046613
3450.0 0.0050186
3470.0 0.0053896
3490.0 0.0054586
3510.0 0.0047608
3530.0 0.0044575
3550.0 0.0057004
3570.0 0.007259
3590.0 0.008079
3610.0 0.0083639
3630.0 0.0088664
3650.0 0.0088744
3670.0 0.009247
3690.0 0.010875
3710.0 0.012641
3730.0 0.013801
3750.0 0.014517
3770.0 0.014748
3790.0 0.014302
3810.0 0.01326
3830.0 0.011608
3850.0 0.0091327
3870.0 0.0081199
3890.0 0.0091469
3910.0 0.012117
3930.0 0.015146
3950.0 0.016558
3970.0 0.017139
3990.0 0.018483
4010.0 0.019111
4030.0 0.017279
4050.0 0.013026
4070.0 0.011021
4090.0 0.012342
4110.0 0.013701
4130.0 0.014633
4150.0 0.014642
4170.0 0.014078
4190.0 0.013447
4210.0 0.014318
4230.0 0.015377
4250.0 0.016297
4270.0 0.016341
4290.0 0.015827
4310.0 0.015904
4330.0 0.017483
4350.0 0.019245
4370.0 0.019496
4390.0 0.018181
4410.0 0.016162
4430.0 0.013099
4450.0 0.010821
4470.0 0.010771
4490.0 0.011954
4510.0 0.013027
4530.0 0.013696
4550.0 0.014773
4570.0 0.019207
4590.0 0.026394
4610.0 0.031364
4630.0 0.033316
4650.0 0.03623
4670.0 0.040343
4690.0 0.041066
4710.0 0.035576
4730.0 0.027915
4750.0 0.021911
4770.0 0.018431
4790.0 0.016797
4810.0 0.01632
4830.0 0.017735
4850.0 0.020907
4870.0 0.023349
4890.0 0.02395
4910.0 0.024066
4930.0 0.026595
4950.0 0.030649
4970.0 0.033274
4990.0 0.03303
5010.0 0.029753
5030.0 0.024628
5050.0 0.01997
5070.0 0.017055
5090.0 0.015954
5110.0 0.01597
5130.0 0.01618
5150.0 0.015975
5170.0 0.015205
5190.0 0.014847
5210.0 0.015546
5230.0 0.017649
5250.0 0.02115
5270.0 0.024836
5290.0 0.027287
5310.0 0.029277
5330.0 0.032195
5350.0 0.034699
5370.0 0.034535
5390.0 0.03197
5410.0 0.029662
5430.0 0.030189
5450.0 0.034467
5470.0 0.040217
5490.0 0.044528
5510.0 0.046119
5530.0 0.045564
5550.0 0.043924
5570.0 0.042103
5590.0 0.040361
5610.0 0.03922
5630.0 0.039006
5650.0 0.038723
5670.0 0.036653
5690.0 0.032877
5710.0 0.029093
5730.0 0.026639
5750.0 0.025875
5770.0 0.026559
5790.0 0.027322
5810.0 0.027689
5830.0 0.02772
5850.0 0.026948
5870.0 0.025942
5890.0 0.025756
5910.0 0.026372
5930.0 0.02639
5950.0 0.024708
5970.0 0.021675
5990.0 0.018
6010.0 0.015201
6030.0 0.014474
6050.0 0.015543
6070.0 0.01633
6090.0 0.015463
6110.0 0.014191
6130.0 0.014589
6150.0 0.016317
6170.0 0.017908
6190.0 0.018877
6210.0 0.019221
6230.0 0.018867
6250.0 0.017158
6270.0 0.014468
6290.0 0.012217
6310.0 0.011284
6330.0 0.011412
6350.0 0.011802
6370.0 0.012439
6390.0 0.014242
6410.0 0.017161
6430.0 0.019753
6450.0 0.021061
6470.0 0.021641
6490.0 0.021969
6510.0 0.022163
6530.0 0.022355
6550.0 0.022604
6570.0 0.023173
6590.0 0.023682
6610.0 0.023619
6630.0 0.022619
6650.0 0.020917
6670.0 0.019272
6690.0 0.018165
6710.0 0.017388
6730.0 0.016665
6750.0 0.016388
6770.0 0.016822
6790.0 0.01745
6810.0 0.017736
6830.0 0.017461
6850.0 0.01662
6870.0 0.01574
6890.0 0.015352
6910.0 0.015345
6930.0 0.015719
6950.0 0.016127
6970.0 0.01644
6990.0 0.016502
7010.0 0.015963
7030.0 0.014758
7050.0 0.013233
7070.0 0.012196
7090.0 0.011982
7110.0 0.012087
7130.0 0.011526
7150.0 0.010418
7170.0 0.01017
7190.0 0.011242
7210.0 0.012883
7230.0 0.01429
7250.0 0.014809
7270.0 0.014469
7290.0 0.01359
7310.0 0.01286
7330.0 0.012738
7350.0 0.012957
7370.0 0.013181
7390.0 0.013816
7410.0 0.015175
7430.0 0.016887
7450.0 0.018315
7470.0 0.018804
7490.0 0.017941
7510.0 0.016596
7530.0 0.015595
7550.0 0.014645
7570.0 0.013619
7590.0 0.013097
7610.0 0.013168
7630.0 0.013782
7650.0 0.014885
7670.0 0.016231
7690.0 0.017408
7710.0 0.018319
7730.0 0.019111
7750.0 0.019755
7770.0 0.019904
7790.0 0.020154
7810.0 0.020214
7830.0 0.019648
7850.0 0.018969
7870.0 0.018602
7890.0 0.018751
7910.0 0.01875
7930.0 0.018337
7950.0 0.01764
7970.0 0.017011
7990.0 0.016408
8010.0 0.015844
8030.0 0.015914
8050.0 0.015925
8070.0 0.015722
8090.0 0.015587
8110.0 0.015276
8130.0 0.015294
8150.0 0.015176
8170.0 0.014882
8190.0 0.014492
8210.0 0.014141
8230.0 0.013763
8250.0 0.013628
8270.0 0.012738
8290.0 0.010864
8310.0 0.0087495
8330.0 0.0073055
8350.0 0.0069808
8370.0 0.0079325
8390.0 0.0092389
8410.0 0.0098719
8430.0 0.010176
8450.0 0.010834
8470.0 0.011717
8490.0 0.013005
8510.0 0.014557
8530.0 0.016224
8550.0 0.017584
8570.0 0.01861
8590.0 0.01938
8610.0 0.01979
8630.0 0.019716
8650.0 0.01941
8670.0 0.019443
8690.0 0.020499
8710.0 0.021935
8730.0 0.022693
8750.0 0.022585
8770.0 0.02288
8790.0 0.022893
8810.0 0.021785
8830.0 0.020273
8850.0 0.018352
8870.0 0.016867
8890.0 0.01643
8910.0 0.016251
8930.0 0.01526
8950.0 0.014126
8970.0 0.013655
8990.0 0.013661
9010.0 0.013335
9030.0 0.013072
9050.0 0.01295
9070.0 0.012889
9090.0 0.012836
9110.0 0.012784
9130.0 0.012733
9150.0 0.012683
9170.0 0.012631
9190.0 0.012591
9210.0 0.012575
9230.0 0.012512
9250.0 0.012456
9270.0 0.012405
9290.0 0.012358
9310.0 0.012311
9330.0 0.012266
9350.0 0.012223
9370.0 0.012181
9390.0 0.012138
9410.0 0.012097
9430.0 0.012054
9450.0 0.011994
9470.0 0.011941
9490.0 0.011919
9510.0 0.011889
9530.0 0.011857
9550.0 0.011823
9570.0 0.011788
9590.0 0.011752
9610.0 0.011717
9630.0 0.011681
9650.0 0.011646
9670.0 0.011612
9690.0 0.011577
9710.0 0.011543
9730.0 0.011509
9750.0 0.011475
9770.0 0.011441
9790.0 0.011408
9810.0 0.011375
9830.0 0.011342
9850.0 0.011308
9870.0 0.011275
9890.0 0.011243
9910.0 0.011209
9930.0 0.011175
9950.0 0.011088
9970.0 0.01107
9990.0 0.011049
10010.0 0.011027
10030.0 0.011
10050.0 0.010968
10070.0 0.010937
10090.0 0.010905
10110.0 0.010867
10130.0 0.010823
10150.0 0.010789
10170.0 0.010756
10190.0 0.010717
10210.0 0.010681
10230.0 0.010646
10250.0 0.010606
10270.0 0.010565
10290.0 0.010527
10310.0 0.010486
10330.0 0.01044
10350.0 0.010398
10370.0 0.010356
10390.0 0.010309
10410.0 0.010262
10430.0 0.010219
10450.0 0.010171
10470.0 0.01012
10490.0 0.010072
10510.0 0.010023
10530.0 0.0099671
10550.0 0.0099129
10570.0 0.0098612
10590.0 0.0098053
10610.0 0.0097465
10630.0 0.0096906
10650.0 0.0096331
10670.0 0.0095696
10690.0 0.0095074
10710.0 0.0094463
10730.0 0.0093808
10750.0 0.0093109
10770.0 0.0092462
10790.0 0.0091789
10810.0 0.0091067
10830.0 0.0090352
10850.0 0.0089657
10870.0 0.0088884
10890.0 0.0088098
10910.0 0.0087336
10930.0 0.0086546
10950.0 0.0085696
10970.0 0.008485
10990.0 0.0084025
11010.0 0.0090938
11030.0 0.0090007
11050.0 0.0089106
11070.0 0.0088186
11090.0 0.0087197
11110.0 0.0086273
11130.0 0.008537
11150.0 0.0084431
11170.0 0.0083495
11190.0 0.0082613
11210.0 0.0081709
11230.0 0.0080781
11250.0 0.0079895
11270.0 0.0079034
11290.0 0.0078141
11310.0 0.0077258
11330.0 0.007644
11350.0 0.0075605
11370.0 0.0074751
11390.0 0.0073923
11410.0 0.0073096
11430.0 0.0072197
11450.0 0.0071284
11470.0 0.0070362
11490.0 0.0069372
11510.0 0.0068295
11530.0 0.0067209
11550.0 0.0066078
11570.0 0.0064849
11590.0 0.0063583
11610.0 0.0062317
11630.0 0.0060973
11650.0 0.0059573
11670.0 0.0058221
11690.0 0.0056867
11710.0 0.0055473
11730.0 0.0054108
11750.0 0.0052809
11770.0 0.0051486
11790.0 0.0050172
11810.0 0.0048923
11830.0 0.0047702
11850.0 0.0046449
11870.0 0.0045257
11890.0 0.0044127
11910.0 0.0042991
11930.0 0.0041873
11950.0 0.0040824
11970.0 0.0039799
11990.0 0.0038772
12010.0 0.0037808
12030.0 0.0036904
12050.0 0.0036022
12070.0 0.0035177
12090.0 0.0034428
12110.0 0.0033725
12130.0 0.0033069
12150.0 0.0032492
12170.0 0.0031992
12190.0 0.0031546
12210.0 0.0031181
12230.0 0.0030899
12250.0 0.0030691
12270.0 0.0030561
12290.0 0.0030506
12310.0 0.0030514
12330.0 0.0030595
12350.0 0.0030737
12370.0 0.003092
12390.0 0.003115
12410.0 0.0031442
12430.0 0.0031738
12450.0 0.0032046
12470.0 0.0032384
12490.0 0.0032724
12510.0 0.0033037
12530.0 0.0033354
12550.0 0.0033662
12570.0 0.0033927
12590.0 0.0034153
12610.0 0.0034353
12630.0 0.0034499
12650.0 0.0034571
12670.0 0.0034591
12690.0 0.0034547
12710.0 0.0034429
12730.0 0.0034244
12750.0 0.0033989
12770.0 0.0033665
12790.0 0.0033286
12810.0 0.0032847
12830.0 0.0032352
12850.0 0.0031832
12870.0 0.0031286
12890.0 0.0030706
12910.0 0.0030119
12930.0 0.0029542
12950.0 0.0028952
12970.0 0.0028363
12990.0 0.0027806
13010.0 0.0027264
13030.0 0.0026726
13050.0 0.0026213
13070.0 0.0025729
13090.0 0.0025249
13110.0 0.0024783
13130.0 0.0024342
13150.0 0.0023915
13170.0 0.0023487
13190.0 0.0023082
13210.0 0.0022698
13230.0 0.0022319
13250.0 0.002195
13270.0 0.0021605
13290.0 0.002127
13310.0 0.0020941
13330.0 0.0020634
13350.0 0.0020347
13370.0 0.0020071
13390.0 0.0019811
13410.0 0.0019577
13430.0 0.0019357
13450.0 0.001915
13470.0 0.0018961
13490.0 0.0018786
13510.0 0.0018617
13530.0 0.0018457
13550.0 0.0018305
13570.0 0.0018154
13590.0 0.0018001
13610.0 0.0017847
13630.0 0.0017692
13650.0 0.001753
13670.0 0.0017363
13690.0 0.0017195
13710.0 0.0017023
13730.0 0.0016844
13750.0 0.0016672
13770.0 0.0016502
13790.0 0.0016332
13810.0 0.0016167
13830.0 0.0016014
13850.0 0.0015863
13870.0 0.0015719
13890.0 0.0015585
13910.0 0.0015459
13930.0 0.0015336
13950.0 0.0015219
13970.0 0.001511
13990.0 0.0015001
14010.0 0.0014891
14030.0 0.0014783
14050.0 0.0014674
14070.0 0.0014557
14090.0 0.0014437
14110.0 0.0014315
14130.0 0.0014186
14150.0 0.001405
14170.0 0.0013915
14190.0 0.0013779
14210.0 0.0013637
14230.0 0.00135
14250.0 0.0013369
14270.0 0.001324
14290.0 0.0013117
14310.0 0.001301
14330.0 0.0012914
14350.0 0.0012827
14370.0 0.0012755
14390.0 0.0012697
14410.0 0.0012649
14430.0 0.0012613
14450.0 0.0012587
14470.0 0.001257
14490.0 0.0012558
14510.0 0.0012552
14530.0 0.0012551
14550.0 0.0012553
14570.0 0.001256
14590.0 0.0012571
14610.0 0.0012587
14630.0 0.0012612
14650.0 0.0012648
14670.0 0.0012695
14690.0 0.0012759
14710.0 0.0012843
14730.0 0.0012943
14750.0 0.0013068
14770.0 0.0013221
14790.0 0.0013399
14810.0 0.00136
14830.0 0.0013845
14850.0 0.0014119
14870.0 0.0014413
14890.0 0.0014739
14910.0 0.0015094
14930.0 0.0015449
14950.0 0.0015795
14970.0 0.0016136
14990.0 0.0016443
15010.0 0.00167
15030.0 0.0016917
15050.0 0.0017092
15070.0 0.0017222
15090.0 0.0017325
15110.0 0.0017409
15130.0 0.0017482
15150.0 0.0017548
15170.0 0.0017612
15190.0 0.0017676
15210.0 0.001774
15230.0 0.0017806
15250.0 0.0017872
15270.0 0.001794
15290.0 0.001801
15310.0 0.001808
15330.0 0.0018152
15350.0 0.0018225
15370.0 0.0018299
15390.0 0.0018375
15410.0 0.0018451
15430.0 0.0018529
15450.0 0.0018608
15470.0 0.0018688
15490.0 0.0018769
15510.0 0.0018852
15530.0 0.0018935
15550.0 0.001902
15570.0 0.0019105
15590.0 0.0019191
15610.0 0.0019279
15630.0 0.0019367
15650.0 0.0019456
15670.0 0.0019547
15690.0 0.0019638
15710.0 0.001973
15730.0 0.0019822
15750.0 0.0019916
15770.0 0.002001
15790.0 0.0020105
15810.0 0.0020201
15830.0 0.0020297
15850.0 0.0020394
15870.0 0.0020492
15890.0 0.002059
15910.0 0.0020689
15930.0 0.0020789
15950.0 0.0020889
15970.0 0.0020989
15990.0 0.002109
16010.0 0.0021191
16030.0 0.0021292
16050.0 0.0021394
16070.0 0.0021497
16090.0 0.0021599
16110.0 0.0021702
16130.0 0.0021805
16150.0 0.0021908
16170.0 0.0022011
16190.0 0.0022114
16210.0 0.0022217
16230.0 0.0022321
16250.0 0.0022424
16270.0 0.0022527
16290.0 0.002263
16310.0 0.0022733
16330.0 0.0022836
16350.0 0.0022939
16370.0 0.0023041
16390.0 0.0023143
16410.0 0.0023244
16430.0 0.0023346
16450.0 0.0023446
16470.0 0.0023547
16490.0 0.0023647
16510.0 0.0023746
16530.0 0.0023845
16550.0 0.0023943
16570.0 0.002404
16590.0 0.0024137
16610.0 0.0024233
16630.0 0.0024328
16650.0 0.0024422
16670.0 0.0024516
16690.0 0.0024608
16710.0 0.0024699
16730.0 0.002479
16750.0 0.002488
16770.0 0.0024968
16790.0 0.0025055
16810.0 0.0025141
16830.0 0.0025226
16850.0 0.002531
16870.0 0.0025393
16890.0 0.0025474
16910.0 0.0025553
16930.0 0.0025632
16950.0 0.0025709
16970.0 0.0025784
16990.0 0.0025858
17010.0 0.0025931
17030.0 0.0026002
17050.0 0.0026071
17070.0 0.0026139
17090.0 0.0026205
17110.0 0.0026269
17130.0 0.0026331
17150.0 0.0026392
17170.0 0.0026451
17190.0 0.0026508
17210.0 0.0026564
17230.0 0.0026617
17250.0 0.0026669
17270.0 0.0026718
17290.0 0.0026766
17310.0 0.0026812
17330.0 0.0026855
17350.0 0.0026897
17370.0 0.0026937
17390.0 0.0026974
17410.0 0.0027009
17430.0 0.0027043
17450.0 0.0027074
17470.0 0.0027103
17490.0 0.002713
17510.0 0.0027155
17530.0 0.0027177
17550.0 0.0027197
17570.0 0.0027216
17590.0 0.0027232
17610.0 0.0027245
17630.0 0.0027257
17650.0 0.0027266
17670.0 0.0027273
17690.0 0.0027277
17710.0 0.002728
17730.0 0.002728
17750.0 0.0027278
17770.0 0.0027273
17790.0 0.0027267
17810.0 0.0027258
17830.0 0.0027247
17850.0 0.0027233
17870.0 0.0027218
17890.0 0.00272
17910.0 0.0027179
17930.0 0.0027157
17950.0 0.0027132
17970.0 0.0027105
17990.0 0.0027076
18010.0 0.0027045
18030.0 0.0027011
18050.0 0.0026976
18070.0 0.0026938
18090.0 0.0026898
18110.0 0.0026856
18130.0 0.0026812
18150.0 0.0026766
18170.0 0.0026717
18190.0 0.0026667
18210.0 0.0026614
18230.0 0.002656
18250.0 0.0026503
18270.0 0.0026445
18290.0 0.0026385
18310.0 0.0026322
18330.0 0.0026258
18350.0 0.0026192
18370.0 0.0026124
18390.0 0.0026054
18410.0 0.0025983
18430.0 0.002591
18450.0 0.0025834
18470.0 0.0025758
18490.0 0.0025679
18510.0 0.0025599
18530.0 0.0025518
18550.0 0.0025434
18570.0 0.002535
18590.0 0.0025263
18610.0 0.0025175
18630.0 0.0025086
18650.0 0.0024995
18670.0 0.0024903
18690.0 0.002481
18710.0 0.0024715
18730.0 0.0024619
18750.0 0.0024521
18770.0 0.0024423
18790.0 0.0024323
18810.0 0.0024222
18830.0 0.002412
18850.0 0.0024017
18870.0 0.0023912
18890.0 0.0023807
18910.0 0.0023701
18930.0 0.0023594
18950.0 0.0023485
18970.0 0.0023377
18990.0 0.0023267
19010.0 0.0023156
19030.0 0.0023044
19050.0 0.0022932
19070.0 0.0022819
19090.0 0.0022705
19110.0 0.0022591
19130.0 0.0022476
19150.0 0.002236
19170.0 0.0022244
19190.0 0.0022128
19210.0 0.002201
19230.0 0.0021893
19250.0 0.0021775
19270.0 0.0021656
19290.0 0.0021537
19310.0 0.0021418
19330.0 0.0021299
19350.0 0.0021179
19370.0 0.0021059
19390.0 0.0020939
19410.0 0.0020818
19430.0 0.0020697
19450.0 0.0020577
19470.0 0.0020456
19490.0 0.0020335
19510.0 0.0020214
19530.0 0.0020093
19550.0 0.0019972
19570.0 0.0019851
19590.0 0.001973
19610.0 0.0019609
19630.0 0.0019488
19650.0 0.0019367
19670.0 0.0019247
19690.0 0.0019126
19710.0 0.0019006
19730.0 0.0018886
19750.0 0.0018766
19770.0 0.0018647
19790.0 0.0018527
19810.0 0.0018408
19830.0 0.0018289
19850.0 0.0018169
19870.0 0.0018048
19890.0 0.0017924
19910.0 0.0017793
19930.0 0.0017652
19950.0 0.0017496
19970.0 0.0017316
19990.0 0.0017107
20010.0 0.0016875
20030.0 0.0016608
20050.0 0.0016309
20070.0 0.0015992
20090.0 0.0015662
20110.0 0.0015308
20130.0 0.0014957
20150.0 0.0014615
20170.0 0.0014272
20190.0 0.0013933
20210.0 0.0013614
20230.0 0.0013304
20250.0 0.0012998
20270.0 0.001271
20290.0 0.001244
20310.0 0.0012178
20330.0 0.0011926
20350.0 0.0011699
20370.0 0.0011485
20390.0 0.0011281
20410.0 0.0011093
20430.0 0.0010922
20450.0 0.0010758
20470.0 0.0010607
20490.0 0.0010471
20510.0 0.0010345
20530.0 0.0010228
20550.0 0.0010121
20570.0 0.0010023
20590.0 0.00099318
20610.0 0.00098469
20630.0 0.00097681
20650.0 0.00096936
20670.0 0.00096226
20690.0 0.00095546
20710.0 0.00094885
20730.0 0.00094234
20750.0 0.00093585
20770.0 0.00092932
20790.0 0.00092269
20810.0 0.00091587
20830.0 0.00090886
20850.0 0.00090164
20870.0 0.00089409
20890.0 0.00088623
20910.0 0.00087819
20930.0 0.00086984
20950.0 0.00086114
20970.0 0.0008523
20990.0 0.00084331
21010.0 0.00083393
21030.0 0.00082445
21050.0 0.00081499
21070.0 0.00080536
21090.0 0.00079553
21110.0 0.0007859
21130.0 0.00077635
21150.0 0.00076667
21170.0 0.00075712
21190.0 0.00074785
21210.0 0.00073852
21230.0 0.00072924
21250.0 0.00072032
21270.0 0.0007116
21290.0 0.00070293
21310.0 0.00069452
21330.0 0.00068652
21350.0 0.00067861
21370.0 0.00067092
21390.0 0.00066361
21410.0 0.0006566
21430.0 0.0006497
21450.0 0.00064322
21470.0 0.00063711
21490.0 0.00063123
21510.0 0.00062565
21530.0 0.00062043
21550.0 0.0006155
21570.0 0.0006108
21590.0 0.00060641
21610.0 0.00060228
21630.0 0.00059838
21650.0 0.0005947
21670.0 0.00059124
21690.0 0.00058796
21710.0 0.00058485
21730.0 0.00058188
21750.0 0.00057903
21770.0 0.00057632
21790.0 0.00057371
21810.0 0.00057117
21830.0 0.0005687
21850.0 0.00056631
21870.0 0.00056395
21890.0 0.0005616
21910.0 0.00055929
21930.0 0.00055698
21950.0 0.00055464
21970.0 0.00055229
21990.0 0.00054993
22010.0 0.0005475
22030.0 0.00054501
22050.0 0.00054246
22070.0 0.00053984
22090.0 0.00053714
22110.0 0.00053437
22130.0 0.00053151
22150.0 0.00052858
22170.0 0.00052558
22190.0 0.00052249
22210.0 0.00051931
22230.0 0.00051609
22250.0 0.00051279
22270.0 0.00050937
22290.0 0.00050591
22310.0 0.00050236
22330.0 0.00049864
22350.0 0.00049481
22370.0 0.00049089
22390.0 0.00048677
22410.0 0.00048239
22430.0 0.00047792
22450.0 0.00047326
22470.0 0.00046827
22490.0 0.00046307
22510.0 0.00045776
22530.0 0.00045207
22550.0 0.00044607
22570.0 0.00044003
22590.0 0.00043382
22610.0 0.0004273
22630.0 0.00042071
22650.0 0.00041426
22670.0 0.00040759
22690.0 0.00040086
22710.0 0.00039437
22730.0 0.00038798
22750.0 0.00038144
22770.0 0.00037528
22790.0 0.00036944
22810.0 0.00036371
22830.0 0.00035818
22850.0 0.0003531
22870.0 0.00034823
22890.0 0.00034352
22910.0 0.00033918
22930.0 0.00033516
22950.0 0.00033131
22970.0 0.00032764
22990.0 0.00032434
23010.0 0.00032119
23030.0 0.00031814
23050.0 0.00031529
23070.0 0.0003126
23090.0 0.0003099
23110.0 0.00030729
23130.0 0.0003048
23150.0 0.00030232
23170.0 0.00029983
23190.0 0.00029741
23210.0 0.00029505
23230.0 0.00029266
23250.0 0.00029032
23270.0 0.00028808
23290.0 0.00028586
23310.0 0.00028367
23330.0 0.00028162
23350.0 0.00027968
23370.0 0.0002778
23390.0 0.00027603
23410.0 0.00027441
23430.0 0.00027286
23450.0 0.00027138
23470.0 0.00027002
23490.0 0.00026874
23510.0 0.00026751
23530.0 0.00026635
23550.0 0.00026526
23570.0 0.00026421
23590.0 0.00026321
23610.0 0.00026228
23630.0 0.00026141
23650.0 0.00026062
23670.0 0.00025994
23690.0 0.00025938
23710.0 0.00025897
23730.0 0.00025876
23750.0 0.00025874
23770.0 0.00025896
23790.0 0.0002595
23810.0 0.00026033
23830.0 0.00026143
23850.0 0.00026295
23870.0 0.00026489
23890.0 0.00026706
23910.0 0.00026958
