#lamb flux
1010.0 1.367e-07
1030.0 1.4958e-07
1050.0 1.6439e-07
1070.0 1.8107e-07
1090.0 2.0001e-07
1110.0 2.1943e-07
1130.0 2.3899e-07
1150.0 2.5947e-07
1170.0 2.806e-07
1190.0 3.0063e-07
1210.0 3.2093e-07
1230.0 3.4191e-07
1250.0 3.6247e-07
1270.0 3.8243e-07
1290.0 4.0352e-07
1310.0 4.246e-07
1330.0 4.4481e-07
1350.0 4.6525e-07
1370.0 4.8635e-07
1390.0 5.0693e-07
1410.0 5.2688e-07
1430.0 5.4775e-07
1450.0 5.6861e-07
1470.0 5.8877e-07
1490.0 6.0915e-07
1510.0 6.3067e-07
1530.0 6.5105e-07
1550.0 6.7116e-07
1570.0 6.9196e-07
1590.0 7.1277e-07
1610.0 7.3265e-07
1630.0 7.5314e-07
1650.0 7.7416e-07
1670.0 7.9448e-07
1690.0 8.1452e-07
1710.0 8.3533e-07
1730.0 8.5624e-07
1750.0 8.7588e-07
1770.0 8.9607e-07
1790.0 9.1665e-07
1810.0 9.3652e-07
1830.0 9.56e-07
1850.0 9.7666e-07
1870.0 9.9671e-07
1890.0 1.016e-06
1910.0 1.0356e-06
1930.0 1.0557e-06
1950.0 1.0747e-06
1970.0 1.0933e-06
1990.0 1.1126e-06
2010.0 1.1314e-06
2030.0 1.1493e-06
2050.0 1.1676e-06
2070.0 1.1862e-06
2090.0 1.2034e-06
2110.0 1.2204e-06
2130.0 1.2376e-06
2150.0 1.2542e-06
2170.0 1.2697e-06
2190.0 1.2855e-06
2210.0 1.3011e-06
2230.0 1.3155e-06
2250.0 1.3294e-06
2270.0 1.3437e-06
2290.0 1.357e-06
2310.0 1.3691e-06
2330.0 1.3814e-06
2350.0 1.3937e-06
2370.0 1.4055e-06
2390.0 1.4184e-06
2410.0 1.4347e-06
2430.0 1.4544e-06
2450.0 1.4792e-06
2470.0 1.5131e-06
2490.0 1.5581e-06
2510.0 1.6101e-06
2530.0 1.6747e-06
2550.0 1.7581e-06
2570.0 1.8639e-06
2590.0 2.0031e-06
2610.0 2.2136e-06
2630.0 2.5118e-06
2650.0 2.8955e-06
2670.0 3.3834e-06
2690.0 3.9714e-06
2710.0 4.5835e-06
2730.0 5.1713e-06
2750.0 5.7339e-06
2770.0 6.2028e-06
2790.0 6.5526e-06
2810.0 6.8091e-06
2830.0 6.9882e-06
2850.0 7.0848e-06
2870.0 7.1348e-06
2890.0 7.1581e-06
2910.0 7.162e-06
2930.0 7.1532e-06
2950.0 7.1421e-06
2970.0 7.1307e-06
2990.0 7.1174e-06
3010.0 0.00022612
3030.0 0.00022574
3050.0 0.00022536
3070.0 0.00022483
3090.0 0.00022416
3110.0 0.00022312
3130.0 0.00022143
3150.0 0.00021887
3170.0 0.000215
3190.0 0.00020991
3210.0 0.00020393
3230.0 0.00019732
3250.0 0.00019056
3270.0 0.00018551
3290.0 0.00018174
3310.0 0.00018098
3330.0 0.00018233
3350.0 0.00018569
3370.0 0.00019105
3390.0 0.00019814
3410.0 0.00020604
3430.0 0.00021505
3450.0 0.00022553
3470.0 0.00023708
3490.0 0.00024947
3510.0 0.00026359
3530.0 0.00027898
3550.0 0.00029534
3570.0 0.00031326
3590.0 0.00033314
3610.0 0.00035507
3630.0 0.00037678
3650.0 0.00039972
3670.0 0.00042035
3690.0 0.00043566
3710.0 0.00044342
3730.0 0.00043937
3750.0 0.00042407
3770.0 0.0004336
3790.0 0.00042663
3810.0 0.0003425
3830.0 0.00033627
3850.0 0.00047976
3870.0 0.00047834
3890.0 0.00037713
3910.0 0.00035705
3930.0 0.00043261
3950.0 0.00050792
3970.0 0.00055491
3990.0 0.00038116
4010.0 0.00080674
4030.0 0.00082911
4050.0 0.00091323
4070.0 0.00097164
4090.0 0.00090953
4110.0 0.00078258
4130.0 0.00091354
4150.0 0.0011973
4170.0 0.00097106
4190.0 0.00088268
4210.0 0.00097748
4230.0 0.0011827
4250.0 0.0014206
4270.0 0.0015317
4290.0 0.0013571
4310.0 0.0012734
4330.0 0.0012677
4350.0 0.0015943
4370.0 0.0019275
4390.0 0.0015594
4410.0 0.0008946
4430.0 0.00065091
4450.0 0.0006108
4470.0 0.00037815
4490.0 0.00062089
4510.0 0.001322
4530.0 0.0016071
4550.0 0.0015099
4570.0 0.00138
4590.0 0.0014804
4610.0 0.0028399
4630.0 0.003974
4650.0 0.0038083
4670.0 0.0033599
4690.0 0.0034001
4710.0 0.0035551
4730.0 0.0029635
4750.0 0.001954
4770.0 0.0013381
4790.0 0.0014586
4810.0 0.001527
4830.0 0.0015
4850.0 0.0016272
4870.0 0.0021553
4890.0 0.0024998
4910.0 0.0019663
4930.0 0.0018975
4950.0 0.0021789
4970.0 0.002888
4990.0 0.0039031
5010.0 0.0045202
5030.0 0.0036461
5050.0 0.0022555
5070.0 0.0015909
5090.0 0.0012091
5110.0 0.0011379
5130.0 0.0013679
5150.0 0.0013393
5170.0 0.0012623
5190.0 0.0011236
5210.0 0.0012506
5230.0 0.0015359
5250.0 0.0017829
5270.0 0.0016662
5290.0 0.0017977
5310.0 0.0023954
5330.0 0.0025833
5350.0 0.0025475
5370.0 0.0028471
5390.0 0.0035352
5410.0 0.0030636
5430.0 0.0023798
5450.0 0.0023841
5470.0 0.0027528
5490.0 0.0034367
5510.0 0.0041877
5530.0 0.0048567
5550.0 0.004409
5570.0 0.0039589
5590.0 0.0032651
5610.0 0.0032903
5630.0 0.0036646
5650.0 0.0033785
5670.0 0.0031114
5690.0 0.0025283
5710.0 0.0025939
5730.0 0.0025127
5750.0 0.0013899
5770.0 0.00099543
5790.0 0.0012275
5810.0 0.0012965
5830.0 0.0019966
5850.0 0.0025998
5870.0 0.0028031
5890.0 0.0026863
5910.0 0.0026166
5930.0 0.0025139
5950.0 0.0025912
5970.0 0.0032062
5990.0 0.0026554
6010.0 0.0020548
6030.0 0.0016806
6050.0 0.0014982
6070.0 0.0017677
6090.0 0.001983
6110.0 0.0020323
6130.0 0.0018857
6150.0 0.0014905
6170.0 0.0011604
6190.0 0.0014063
6210.0 0.0022129
6230.0 0.0032579
6250.0 0.0035156
6270.0 0.0027051
6290.0 0.0023155
6310.0 0.001768
6330.0 0.0012909
6350.0 0.0012631
6370.0 0.0013261
6390.0 0.0015831
6410.0 0.0020467
6430.0 0.0024615
6450.0 0.003012
6470.0 0.0031883
6490.0 0.0038187
6510.0 0.004283
6530.0 0.0043682
6550.0 0.0040173
6570.0 0.0032243
6590.0 0.0030615
6610.0 0.0025385
6630.0 0.0026278
6650.0 0.0025528
6670.0 0.0022346
6690.0 0.0017359
6710.0 0.0016935
6730.0 0.00074244
6750.0 0.00099667
6770.0 0.001564
6790.0 0.0020686
6810.0 0.0014766
6830.0 0.0015078
6850.0 0.0012559
6870.0 0.001175
6890.0 0.00099308
6910.0 0.0012082
6930.0 0.0011374
6950.0 0.0013596
6970.0 0.0014125
6990.0 0.001568
7010.0 0.0015147
7030.0 0.0017339
7050.0 0.0015029
7070.0 0.0012537
7090.0 0.0013446
7110.0 0.0014266
7130.0 0.0016419
7150.0 0.0018607
7170.0 0.0020862
7190.0 0.0022278
7210.0 0.001986
7230.0 0.0020113
7250.0 0.0021557
7270.0 0.0023141
7290.0 0.0028509
7310.0 0.0030138
7330.0 0.0028193
7350.0 0.0025251
7370.0 0.0018729
7390.0 0.0019317
7410.0 0.0023659
7430.0 0.0026963
7450.0 0.0029049
7470.0 0.002658
7490.0 0.0021225
7510.0 0.0034216
7530.0 0.0031179
7550.0 0.0029408
7570.0 0.001998
7590.0 0.00088674
7610.0 0.00062603
7630.0 0.00095039
7650.0 0.0012779
7670.0 0.0020341
7690.0 0.0022664
7710.0 0.0020481
7730.0 0.0020329
7750.0 0.0026688
7770.0 0.0027428
7790.0 0.0025079
7810.0 0.0020274
7830.0 0.0021967
7850.0 0.0024075
7870.0 0.002354
7890.0 0.00184
7910.0 0.0012368
7930.0 0.0012814
7950.0 0.0011575
7970.0 0.00097509
7990.0 0.00088156
8010.0 0.00046318
8030.0 0.00042268
8050.0 0.00045892
8070.0 0.00052015
8090.0 0.0006387
8110.0 0.00059905
8130.0 0.00035051
8150.0 0.00036515
8170.0 0.00019856
8190.0 0.00011464
8210.0 0.00032408
8230.0 0.00039373
8250.0 0.00014421
8270.0 0.00011122
8290.0 0.00023257
8310.0 0.00020719
8330.0 0.00012643
8350.0 0.00010214
8370.0 2.1041e-05
8390.0 0.00010911
8410.0 0.00012588
8430.0 0.00015648
8450.0 0.00017616
8470.0 0.00030075
8490.0 0.00024291
8510.0 0.00018377
8530.0 8.4805e-05
8550.0 0.00033324
8570.0 0.00052446
8590.0 0.00035669
8610.0 0.00054235
8630.0 0.00058734
8650.0 0.00029899
8670.0 0.0004569
8690.0 0.00073099
8710.0 0.00062444
8730.0 0.00067654
8750.0 0.0005276
8770.0 0.00046696
8790.0 0.00052191
8810.0 0.00056976
8830.0 0.00030859
8850.0 0.00012438
8870.0 8.6435e-05
8890.0 0.00024012
8910.0 0.00038743
8930.0 0.00051652
8950.0 0.00057686
8970.0 0.00055457
8990.0 0.0004111
9010.0 0.00039101
9030.0 0.00029518
9050.0 0.00030689
9070.0 0.00031913
9090.0 0.00032908
9110.0 0.00034115
9130.0 0.00034985
9150.0 0.00035606
9170.0 0.00036266
9190.0 0.00036973
9210.0 0.00037715
9230.0 0.000385
9250.0 0.00039291
9270.0 0.00040109
9290.0 0.00040947
9310.0 0.00041783
9330.0 0.00042631
9350.0 0.00043507
9370.0 0.00044388
9390.0 0.0004527
9410.0 0.00046176
9430.0 0.00047106
9450.0 0.00048025
9470.0 0.0004896
9490.0 0.00049921
9510.0 0.00050888
9530.0 0.00051854
9550.0 0.00052856
9570.0 0.00053871
9590.0 0.00054884
9610.0 0.00055913
9630.0 0.0005697
9650.0 0.00058032
9670.0 0.0005909
9690.0 0.00060179
9710.0 0.00061284
9730.0 0.00062386
9750.0 0.00063504
9770.0 0.0006466
9790.0 0.00065807
9810.0 0.00066958
9830.0 0.00068136
9850.0 0.00069328
9870.0 0.00070511
9890.0 0.00071715
9910.0 0.00072942
9930.0 0.00074168
9950.0 0.00075397
9970.0 0.00076653
9990.0 0.00077922
10010.0 0.00069418
10030.0 0.00070528
10050.0 0.00071654
10070.0 0.00072767
10090.0 0.00073889
10110.0 0.00075038
10130.0 0.00076186
10150.0 0.00077324
10170.0 0.00078472
10190.0 0.00079637
10210.0 0.00080787
10230.0 0.00081933
10250.0 0.00083095
10270.0 0.00084256
10290.0 0.00085401
10310.0 0.0008656
10330.0 0.00087729
10350.0 0.00088877
10370.0 0.00090021
10390.0 0.00091176
10410.0 0.00092324
10430.0 0.00093448
10450.0 0.00094581
10470.0 0.00095716
10490.0 0.00096829
10510.0 0.00097933
10530.0 0.00099052
10550.0 0.0010015
10570.0 0.0010122
10590.0 0.001023
10610.0 0.0010337
10630.0 0.0010442
10650.0 0.0010545
10670.0 0.0010649
10690.0 0.001075
10710.0 0.0010849
10730.0 0.0010948
10750.0 0.0011046
10770.0 0.0011141
10790.0 0.0011234
10810.0 0.0011326
10830.0 0.0011415
10850.0 0.00115
10870.0 0.0011583
10890.0 0.0011658
10910.0 0.0011719
10930.0 0.0011762
10950.0 0.0011777
10970.0 0.0011754
10990.0 0.0011689
11010.0 0.001162
11030.0 0.0011444
11050.0 0.0011222
11070.0 0.0010952
11090.0 0.0010626
11110.0 0.0010288
11130.0 0.00099348
11150.0 0.00095557
11170.0 0.00091665
11190.0 0.00087906
11210.0 0.00084047
11230.0 0.00080116
11250.0 0.00076379
11270.0 0.00072807
11290.0 0.00069246
11310.0 0.00065883
11330.0 0.00062919
11350.0 0.00060116
11370.0 0.00057518
11390.0 0.00055249
11410.0 0.00053241
11430.0 0.00051353
11450.0 0.00049692
11470.0 0.00048223
11490.0 0.00046831
11510.0 0.0004547
11530.0 0.0004419
11550.0 0.00042914
11570.0 0.00041563
11590.0 0.00040176
11610.0 0.00038776
11630.0 0.00037275
11650.0 0.00035689
11670.0 0.00034136
11690.0 0.00032574
11710.0 0.00030974
11730.0 0.00029428
11750.0 0.00027994
11770.0 0.00026589
11790.0 0.00025266
11810.0 0.00024089
11830.0 0.00023025
11850.0 0.00022033
11870.0 0.00021184
11890.0 0.0002046
11910.0 0.00019807
11930.0 0.00019229
11950.0 0.00018731
11970.0 0.00018275
11990.0 0.00017839
12010.0 0.0001743
12030.0 0.00017037
12050.0 0.00016635
12070.0 0.00016223
12090.0 0.00015826
12110.0 0.00015425
12130.0 0.00015022
12150.0 0.00014641
12170.0 0.00014294
12190.0 0.0001397
12210.0 0.00013703
12230.0 0.00013504
12250.0 0.00013377
12270.0 0.00013335
12290.0 0.00013381
12310.0 0.0001351
12330.0 0.00013741
12350.0 0.00014062
12370.0 0.00014449
12390.0 0.00014914
12410.0 0.00015476
12430.0 0.00016052
12450.0 0.00016654
12470.0 0.00017299
12490.0 0.00017947
12510.0 0.00018549
12530.0 0.00019148
12550.0 0.00019722
12570.0 0.0002022
12590.0 0.00020648
12610.0 0.00021022
12630.0 0.00021307
12650.0 0.00021482
12670.0 0.00021576
12690.0 0.00021576
12710.0 0.00021478
12730.0 0.00021294
12750.0 0.00021016
12770.0 0.00020659
12790.0 0.00020241
12810.0 0.00019755
12830.0 0.00019205
12850.0 0.00018634
12870.0 0.00018037
12890.0 0.000174
12910.0 0.00016757
12930.0 0.00016126
12950.0 0.00015474
12970.0 0.00014815
12990.0 0.00014192
13010.0 0.00013579
13030.0 0.00012962
13050.0 0.0001237
13070.0 0.00011813
13090.0 0.00011254
13110.0 0.00010712
13130.0 0.00010209
13150.0 9.7293e-05
13170.0 9.2569e-05
13190.0 8.8307e-05
13210.0 8.4493e-05
13230.0 8.0947e-05
13250.0 7.7808e-05
13270.0 7.5224e-05
13290.0 7.3085e-05
13310.0 7.1423e-05
13330.0 7.0368e-05
13350.0 6.9879e-05
13370.0 6.9973e-05
13390.0 7.0696e-05
13410.0 7.1905e-05
13430.0 7.3651e-05
13450.0 7.5951e-05
13470.0 7.8609e-05
13490.0 8.1505e-05
13510.0 8.4869e-05
13530.0 8.8355e-05
13550.0 9.1754e-05
13570.0 9.5171e-05
13590.0 9.8569e-05
13610.0 0.00010164
13630.0 0.00010438
13650.0 0.00010693
13670.0 0.00010909
13690.0 0.00011081
13710.0 0.00011218
13730.0 0.00011323
13750.0 0.00011381
13770.0 0.00011404
13790.0 0.00011395
13810.0 0.00011352
13830.0 0.00011282
13850.0 0.00011184
13870.0 0.00011057
13890.0 0.00010911
13910.0 0.00010745
13930.0 0.00010553
13950.0 0.00010343
13970.0 0.00010129
13990.0 9.8978e-05
14010.0 9.6528e-05
14030.0 9.4092e-05
14050.0 9.1647e-05
14070.0 8.9078e-05
14090.0 8.662e-05
14110.0 8.4311e-05
14130.0 8.2074e-05
14150.0 7.9962e-05
14170.0 7.8149e-05
14190.0 7.6568e-05
14210.0 7.5207e-05
14230.0 7.4172e-05
14250.0 7.347e-05
14270.0 7.3076e-05
14290.0 7.304e-05
14310.0 7.334e-05
14330.0 7.3958e-05
14350.0 7.4919e-05
14370.0 7.6156e-05
14390.0 7.7594e-05
14410.0 7.9321e-05
14430.0 8.1254e-05
14450.0 8.3265e-05
14470.0 8.5387e-05
14490.0 8.7684e-05
14510.0 8.9924e-05
14530.0 9.2092e-05
14550.0 9.4298e-05
14570.0 9.6455e-05
14590.0 9.8458e-05
14610.0 0.00010043
14630.0 0.0001024
14650.0 0.00010427
14670.0 0.00010608
14690.0 0.00010798
14710.0 0.00010997
14730.0 0.00011195
14750.0 0.00011413
14770.0 0.00011658
14790.0 0.00011921
14810.0 0.00012205
14830.0 0.00012538
14850.0 0.00012899
14870.0 0.00013274
14890.0 0.00013677
14910.0 0.00014105
14930.0 0.00014517
14950.0 0.00014903
14970.0 0.00015271
14990.0 0.00015582
15010.0 0.00015826
15030.0 0.00016012
15050.0 0.00016142
15070.0 0.00016217
15090.0 0.00016258
15110.0 0.00016275
15130.0 0.00016277
15150.0 0.00016272
15170.0 0.00016262
15190.0 0.00016249
15210.0 0.00016238
15230.0 0.00016226
15250.0 0.00016214
15270.0 0.00016202
15290.0 0.00016192
15310.0 0.00016182
15330.0 0.00016171
15350.0 0.00016161
15370.0 0.00016152
15390.0 0.00016141
15410.0 0.00016132
15430.0 0.00016124
15450.0 0.00016115
15470.0 0.00016105
15490.0 0.00016097
15510.0 0.00016089
15530.0 0.00016081
15550.0 0.00016072
15570.0 0.00016066
15590.0 0.00016057
15610.0 0.00016048
15630.0 0.00016041
15650.0 0.00016034
15670.0 0.00016025
15690.0 0.00016018
15710.0 0.00016011
15730.0 0.00016003
15750.0 0.00015995
15770.0 0.00015988
15790.0 0.00015981
15810.0 0.00015972
15830.0 0.00015964
15850.0 0.00015957
15870.0 0.00015949
15890.0 0.0001594
15910.0 0.00015933
15930.0 0.00015925
15950.0 0.00015915
15970.0 0.00015906
15990.0 0.00015898
16010.0 0.00015889
16030.0 0.00015878
16050.0 0.0001587
16070.0 0.00015861
16090.0 0.0001585
16110.0 0.00015841
16130.0 0.00015831
16150.0 0.00015819
16170.0 0.00015808
16190.0 0.00015798
16210.0 0.00015786
16230.0 0.00015774
16250.0 0.00015762
16270.0 0.00015751
16290.0 0.00015737
16310.0 0.00015724
16330.0 0.00015712
16350.0 0.00015698
16370.0 0.00015682
16390.0 0.00015669
16410.0 0.00015655
16430.0 0.00015639
16450.0 0.00015623
16470.0 0.00015609
16490.0 0.00015592
16510.0 0.00015574
16530.0 0.00015558
16550.0 0.00015541
16570.0 0.00015522
16590.0 0.00015503
16610.0 0.00015485
16630.0 0.00015466
16650.0 0.00015446
16670.0 0.00015426
16690.0 0.00015407
16710.0 0.00015384
16730.0 0.00015362
16750.0 0.00015341
16770.0 0.00015319
16790.0 0.00015295
16810.0 0.00015273
16830.0 0.00015249
16850.0 0.00015224
16870.0 0.000152
16890.0 0.00015176
16910.0 0.00015149
16930.0 0.00015122
16950.0 0.00015096
16970.0 0.00015069
16990.0 0.00015041
17010.0 0.00015013
17030.0 0.00014986
17050.0 0.00014956
17070.0 0.00014926
17090.0 0.00014897
17110.0 0.00014866
17130.0 0.00014834
17150.0 0.00014803
17170.0 0.00014772
17190.0 0.00014739
17210.0 0.00014706
17230.0 0.00014674
17250.0 0.0001464
17270.0 0.00014604
17290.0 0.0001457
17310.0 0.00014535
17330.0 0.00014499
17350.0 0.00014462
17370.0 0.00014427
17390.0 0.0001439
17410.0 0.00014352
17430.0 0.00014314
17450.0 0.00014277
17470.0 0.00014237
17490.0 0.00014197
17510.0 0.00014158
17530.0 0.00014118
17550.0 0.00014076
17570.0 0.00014036
17590.0 0.00013996
17610.0 0.00013953
17630.0 0.00013911
17650.0 0.00013869
17670.0 0.00013826
17690.0 0.00013781
17710.0 0.00013738
17730.0 0.00013695
17750.0 0.0001365
17770.0 0.00013605
17790.0 0.00013561
17810.0 0.00013515
17830.0 0.00013468
17850.0 0.00013423
17870.0 0.00013377
17890.0 0.00013328
17910.0 0.00013281
17930.0 0.00013235
17950.0 0.00013187
17970.0 0.00013138
17990.0 0.0001309
18010.0 0.00013042
18030.0 0.00012991
18050.0 0.00012942
18070.0 0.00012893
18090.0 0.00012843
18110.0 0.00012792
18130.0 0.00012743
18150.0 0.00012693
18170.0 0.00012641
18190.0 0.0001259
18210.0 0.0001254
18230.0 0.00012487
18250.0 0.00012434
18270.0 0.00012383
18290.0 0.00012331
18310.0 0.00012278
18330.0 0.00012226
18350.0 0.00012174
18370.0 0.0001212
18390.0 0.00012067
18410.0 0.00012014
18430.0 0.00011961
18450.0 0.00011906
18470.0 0.00011852
18490.0 0.00011799
18510.0 0.00011745
18530.0 0.0001169
18550.0 0.00011637
18570.0 0.00011583
18590.0 0.00011527
18610.0 0.00011472
18630.0 0.00011418
18650.0 0.00011363
18670.0 0.00011307
18690.0 0.00011253
18710.0 0.00011198
18730.0 0.00011142
18750.0 0.00011087
18770.0 0.00011033
18790.0 0.00010976
18810.0 0.0001092
18830.0 0.00010866
18850.0 0.0001081
18870.0 0.00010754
18890.0 0.00010699
18910.0 0.00010644
18930.0 0.00010588
18950.0 0.00010532
18970.0 0.00010477
18990.0 0.00010421
19010.0 0.00010364
19030.0 0.00010309
19050.0 0.00010254
19070.0 0.00010198
19090.0 0.00010142
19110.0 0.00010088
19130.0 0.00010032
19150.0 9.9752e-05
19170.0 9.9204e-05
19190.0 9.8654e-05
19210.0 9.8087e-05
19230.0 9.753e-05
19250.0 9.6991e-05
19270.0 9.6435e-05
19290.0 9.5877e-05
19310.0 9.5335e-05
19330.0 9.4789e-05
19350.0 9.4222e-05
19370.0 9.3673e-05
19390.0 9.3133e-05
19410.0 9.2581e-05
19430.0 9.2025e-05
19450.0 9.149e-05
19470.0 9.0949e-05
19490.0 9.0394e-05
19510.0 8.9853e-05
19530.0 8.932e-05
19550.0 8.8769e-05
19570.0 8.8217e-05
19590.0 8.7688e-05
19610.0 8.7152e-05
19630.0 8.6606e-05
19650.0 8.6073e-05
19670.0 8.5549e-05
19690.0 8.5006e-05
19710.0 8.4468e-05
19730.0 8.3944e-05
19750.0 8.3415e-05
19770.0 8.287e-05
19790.0 8.2346e-05
19810.0 8.1828e-05
19830.0 8.1295e-05
19850.0 8.0762e-05
19870.0 8.0239e-05
19890.0 7.9688e-05
19910.0 7.9098e-05
19930.0 7.8483e-05
19950.0 7.7803e-05
19970.0 7.7002e-05
19990.0 7.6072e-05
20010.0 7.0123e-05
20030.0 6.8988e-05
20050.0 6.7689e-05
20070.0 6.6303e-05
20090.0 6.4831e-05
20110.0 6.319e-05
20130.0 6.1544e-05
20150.0 5.9924e-05
20170.0 5.8257e-05
20190.0 5.6578e-05
20210.0 5.4998e-05
20230.0 5.3462e-05
20250.0 5.1928e-05
20270.0 5.0505e-05
20290.0 4.9202e-05
20310.0 4.7962e-05
20330.0 4.6798e-05
20350.0 4.582e-05
20370.0 4.4942e-05
20390.0 4.4161e-05
20410.0 4.3514e-05
20430.0 4.2998e-05
20450.0 4.2571e-05
20470.0 4.2259e-05
20490.0 4.2059e-05
20510.0 4.1951e-05
20530.0 4.1935e-05
20550.0 4.2002e-05
20570.0 4.2134e-05
20590.0 4.234e-05
20610.0 4.2608e-05
20630.0 4.2915e-05
20650.0 4.3269e-05
20670.0 4.3687e-05
20690.0 4.4117e-05
20710.0 4.4566e-05
20730.0 4.5054e-05
20750.0 4.5565e-05
20770.0 4.6065e-05
20790.0 4.6589e-05
20810.0 4.714e-05
20830.0 4.7682e-05
20850.0 4.8221e-05
20870.0 4.8794e-05
20890.0 4.9372e-05
20910.0 4.9921e-05
20930.0 5.0486e-05
20950.0 5.1068e-05
20970.0 5.1629e-05
20990.0 5.2178e-05
21010.0 5.2754e-05
21030.0 5.3313e-05
21050.0 5.3841e-05
21070.0 5.4368e-05
21090.0 5.4895e-05
21110.0 5.5372e-05
21130.0 5.5817e-05
21150.0 5.625e-05
21170.0 5.664e-05
21190.0 5.6973e-05
21210.0 5.7274e-05
21230.0 5.7525e-05
21250.0 5.7702e-05
21270.0 5.7812e-05
21290.0 5.7852e-05
21310.0 5.7806e-05
21330.0 5.7676e-05
21350.0 5.7452e-05
21370.0 5.7126e-05
21390.0 5.6708e-05
21410.0 5.6194e-05
21430.0 5.5545e-05
21450.0 5.4811e-05
21470.0 5.4007e-05
21490.0 5.3095e-05
21510.0 5.2092e-05
21530.0 5.1065e-05
21550.0 4.9986e-05
21570.0 4.8831e-05
21590.0 4.7688e-05
21610.0 4.6577e-05
21630.0 4.5459e-05
21650.0 4.4359e-05
21670.0 4.3394e-05
21690.0 4.2495e-05
21710.0 4.1673e-05
21730.0 4.0982e-05
21750.0 4.043e-05
21770.0 3.9984e-05
21790.0 3.9689e-05
21810.0 3.9542e-05
21830.0 3.9531e-05
21850.0 3.9667e-05
21870.0 3.9932e-05
21890.0 4.0303e-05
21910.0 4.0805e-05
21930.0 4.1411e-05
21950.0 4.2081e-05
21970.0 4.2834e-05
21990.0 4.3694e-05
22010.0 4.4561e-05
22030.0 4.5449e-05
22050.0 4.6392e-05
22070.0 4.7348e-05
22090.0 4.8258e-05
22110.0 4.9183e-05
22130.0 5.0115e-05
22150.0 5.099e-05
22170.0 5.182e-05
22190.0 5.2649e-05
22210.0 5.3424e-05
22230.0 5.4107e-05
22250.0 5.4753e-05
22270.0 5.5351e-05
22290.0 5.5861e-05
22310.0 5.6299e-05
22330.0 5.6686e-05
22350.0 5.6983e-05
22370.0 5.719e-05
22390.0 5.7317e-05
22410.0 5.7355e-05
22430.0 5.7294e-05
22450.0 5.7142e-05
22470.0 5.6885e-05
22490.0 5.6527e-05
22510.0 5.6083e-05
22530.0 5.5518e-05
22550.0 5.4833e-05
22570.0 5.4074e-05
22590.0 5.322e-05
22610.0 5.2239e-05
22630.0 5.1178e-05
22650.0 5.0081e-05
22670.0 4.8868e-05
22690.0 4.7574e-05
22710.0 4.6267e-05
22730.0 4.4919e-05
22750.0 4.3459e-05
22770.0 4.2028e-05
22790.0 4.063e-05
22810.0 3.9194e-05
