#lamb flux
1010.0 4.0841e-07
1030.0 4.5006e-07
1050.0 4.9796e-07
1070.0 5.5188e-07
1090.0 6.1314e-07
1110.0 6.7596e-07
1130.0 7.3919e-07
1150.0 8.0542e-07
1170.0 8.7375e-07
1190.0 9.3853e-07
1210.0 1.0042e-06
1230.0 1.072e-06
1250.0 1.1385e-06
1270.0 1.2031e-06
1290.0 1.2713e-06
1310.0 1.3395e-06
1330.0 1.4048e-06
1350.0 1.471e-06
1370.0 1.5392e-06
1390.0 1.6057e-06
1410.0 1.6703e-06
1430.0 1.7378e-06
1450.0 1.8053e-06
1470.0 1.8705e-06
1490.0 1.9364e-06
1510.0 2.006e-06
1530.0 2.072e-06
1550.0 2.137e-06
1570.0 2.2043e-06
1590.0 2.2716e-06
1610.0 2.3359e-06
1630.0 2.4022e-06
1650.0 2.4701e-06
1670.0 2.5359e-06
1690.0 2.6007e-06
1710.0 2.6679e-06
1730.0 2.7355e-06
1750.0 2.799e-06
1770.0 2.8642e-06
1790.0 2.9307e-06
1810.0 2.9948e-06
1830.0 3.0577e-06
1850.0 3.1243e-06
1870.0 3.189e-06
1890.0 3.2511e-06
1910.0 3.3143e-06
1930.0 3.3788e-06
1950.0 3.4398e-06
1970.0 3.4996e-06
1990.0 3.5614e-06
2010.0 3.6215e-06
2030.0 3.6787e-06
2050.0 3.7371e-06
2070.0 3.7964e-06
2090.0 3.8511e-06
2110.0 3.9048e-06
2130.0 3.9593e-06
2150.0 4.0114e-06
2170.0 4.0597e-06
2190.0 4.109e-06
2210.0 4.1573e-06
2230.0 4.2016e-06
2250.0 4.244e-06
2270.0 4.2875e-06
2290.0 4.3273e-06
2310.0 4.3627e-06
2330.0 4.3982e-06
2350.0 4.4324e-06
2370.0 4.4625e-06
2390.0 4.4922e-06
2410.0 4.5249e-06
2430.0 4.5575e-06
2450.0 4.5927e-06
2470.0 4.6378e-06
2490.0 4.6987e-06
2510.0 4.7758e-06
2530.0 4.8926e-06
2550.0 5.083e-06
2570.0 5.375e-06
2590.0 5.8014e-06
2610.0 6.4613e-06
2630.0 7.3577e-06
2650.0 8.424e-06
2670.0 9.6579e-06
2690.0 1.0995e-05
2710.0 1.2238e-05
2730.0 1.3304e-05
2750.0 1.4215e-05
2770.0 1.4887e-05
2790.0 1.5331e-05
2810.0 1.5628e-05
2830.0 1.5837e-05
2850.0 1.5958e-05
2870.0 1.6046e-05
2890.0 1.6132e-05
2910.0 1.6212e-05
2930.0 1.6277e-05
2950.0 1.6351e-05
2970.0 1.6432e-05
2990.0 1.65e-05
3010.0 0.00019356
3030.0 0.00019442
3050.0 0.00019521
3070.0 0.00019569
3090.0 0.00019603
3110.0 0.00019596
3130.0 0.00019517
3150.0 0.00019353
3170.0 0.00019083
3190.0 0.00018714
3210.0 0.00018288
3230.0 0.00017853
3250.0 0.00017506
3270.0 0.00017292
3290.0 0.00017303
3310.0 0.00017498
3330.0 0.00017941
3350.0 0.00018562
3370.0 0.00019373
3390.0 0.00020342
3410.0 0.00021358
3430.0 0.00022462
3450.0 0.00023684
3470.0 0.00024961
3490.0 0.00026257
3510.0 0.00027669
3530.0 0.00029138
3550.0 0.00030573
3570.0 0.00032036
3590.0 0.00033645
3610.0 0.00035219
3630.0 0.00036841
3650.0 0.0003845
3670.0 0.0003992
3690.0 0.00041048
3710.0 0.00041805
3730.0 0.00042209
3750.0 0.0004234
3770.0 0.00039445
3790.0 0.00036609
3810.0 0.00032162
3830.0 0.00024043
3850.0 0.0001751
3870.0 0.00017135
3890.0 0.00021517
3910.0 0.00033431
3930.0 0.00044464
3950.0 0.00050154
3970.0 0.00052662
3990.0 0.00056226
4010.0 0.00062267
4030.0 0.00062208
4050.0 0.00058548
4070.0 0.00054334
4090.0 0.00052007
4110.0 0.00055819
4130.0 0.00057373
4150.0 0.00057426
4170.0 0.00059022
4190.0 0.0005903
4210.0 0.00060308
4230.0 0.00065224
4250.0 0.00071312
4270.0 0.00074332
4290.0 0.00073628
4310.0 0.00075012
4330.0 0.00080169
4350.0 0.00092878
4370.0 0.0010444
4390.0 0.00098132
4410.0 0.00080793
4430.0 0.0006914
4450.0 0.00058505
4470.0 0.0005416
4490.0 0.0006117
4510.0 0.00072658
4530.0 0.00080388
4550.0 0.00088759
4570.0 0.0010377
4590.0 0.0012718
4610.0 0.00167
4630.0 0.0020148
4650.0 0.0020407
4670.0 0.0020238
4690.0 0.0021481
4710.0 0.0021689
4730.0 0.0018036
4750.0 0.0013606
4770.0 0.0011025
4790.0 0.001067
4810.0 0.001014
4830.0 0.0010112
4850.0 0.0011929
4870.0 0.0014837
4890.0 0.0015911
4910.0 0.001379
4930.0 0.0012993
4950.0 0.0015073
4970.0 0.0019845
4990.0 0.0024296
5010.0 0.0024852
5030.0 0.0019931
5050.0 0.001362
5070.0 0.0010021
5090.0 0.000865
5110.0 0.00085345
5130.0 0.00092525
5150.0 0.00095823
5170.0 0.00094557
5190.0 0.00093833
5210.0 0.00091695
5230.0 0.00096311
5250.0 0.0010519
5270.0 0.0012034
5290.0 0.0013914
5310.0 0.0015135
5330.0 0.0015629
5350.0 0.0016569
5370.0 0.0018139
5390.0 0.0018772
5410.0 0.0017272
5430.0 0.0015251
5450.0 0.0015005
5470.0 0.0017868
5490.0 0.0022612
5510.0 0.0027461
5530.0 0.0029668
5550.0 0.0028722
5570.0 0.0026583
5590.0 0.0024038
5610.0 0.0023011
5630.0 0.0023078
5650.0 0.002317
5670.0 0.0022701
5690.0 0.002143
5710.0 0.0020456
5730.0 0.0018143
5750.0 0.0013935
5770.0 0.0012218
5790.0 0.0013218
5810.0 0.0015415
5830.0 0.0017491
5850.0 0.0018709
5870.0 0.001875
5890.0 0.0017462
5910.0 0.0016907
5930.0 0.0017086
5950.0 0.0017911
5970.0 0.0018488
5990.0 0.0016868
6010.0 0.0013923
6030.0 0.0011526
6050.0 0.0010563
6070.0 0.0010989
6090.0 0.0012141
6110.0 0.0012387
6130.0 0.0011541
6150.0 0.0011237
6170.0 0.0012328
6190.0 0.0014752
6210.0 0.0017718
6230.0 0.0019747
6250.0 0.0019583
6270.0 0.0017323
6290.0 0.0014287
6310.0 0.001145
6330.0 0.00094711
6350.0 0.00089694
6370.0 0.0009843
6390.0 0.0011312
6410.0 0.001314
6430.0 0.0015185
6450.0 0.0017842
6470.0 0.0022061
6490.0 0.0026902
6510.0 0.0028479
6530.0 0.0026839
6550.0 0.0025608
6570.0 0.0025309
6590.0 0.0024281
6610.0 0.0022376
6630.0 0.0020827
6650.0 0.0019986
6670.0 0.001995
6690.0 0.0019381
6710.0 0.0017436
6730.0 0.0015121
6750.0 0.0013869
6770.0 0.0014596
6790.0 0.0015682
6810.0 0.0016165
6830.0 0.0016378
6850.0 0.0015786
6870.0 0.0015054
6890.0 0.0014581
6910.0 0.0013893
6930.0 0.0013426
6950.0 0.0013547
6970.0 0.0014043
6990.0 0.0015432
7010.0 0.0016113
7030.0 0.0015383
7050.0 0.0014095
7070.0 0.0012276
7090.0 0.0010433
7110.0 0.00097756
7130.0 0.0010204
7150.0 0.0010644
7170.0 0.0010927
7190.0 0.0010718
7210.0 0.0010665
7230.0 0.0011942
7250.0 0.0013878
7270.0 0.0015592
7290.0 0.001647
7310.0 0.0015407
7330.0 0.0013769
7350.0 0.0012555
7370.0 0.0012256
7390.0 0.0012826
7410.0 0.0013787
7430.0 0.0015164
7450.0 0.001677
7470.0 0.0018232
7490.0 0.0018561
7510.0 0.001614
7530.0 0.0016006
7550.0 0.0014503
7570.0 0.0012388
7590.0 0.00099704
7610.0 0.0009319
7630.0 0.0010158
7650.0 0.0011839
7670.0 0.0013574
7690.0 0.0014999
7710.0 0.0016473
7730.0 0.0017795
7750.0 0.0018745
7770.0 0.001847
7790.0 0.0018368
7810.0 0.0018707
7830.0 0.0018535
7850.0 0.0017807
7870.0 0.0016734
7890.0 0.0015409
7910.0 0.0013648
7930.0 0.0012115
7950.0 0.0011156
7970.0 0.0010902
7990.0 0.0011286
8010.0 0.0011538
8030.0 0.0011694
8050.0 0.0011818
8070.0 0.0011693
8090.0 0.0011659
8110.0 0.0011244
8130.0 0.0010509
8150.0 0.00099268
8170.0 0.00098226
8190.0 0.00099948
8210.0 0.0010092
8230.0 0.0010009
8250.0 0.00096737
8270.0 0.00085439
8290.0 0.00067575
8310.0 0.00049199
8330.0 0.00033108
8350.0 0.00023662
8370.0 0.00024032
8390.0 0.00029152
8410.0 0.00036837
8430.0 0.00044987
8450.0 0.00049445
8470.0 0.00051926
8490.0 0.00054448
8510.0 0.00057348
8530.0 0.00063672
8550.0 0.00074169
8570.0 0.0008724
8590.0 0.0010081
8610.0 0.0011767
8630.0 0.0013674
8650.0 0.0014838
8670.0 0.0014844
8690.0 0.001433
8710.0 0.001361
8730.0 0.0013048
8750.0 0.0012525
8770.0 0.0012194
8790.0 0.0011716
8810.0 0.0010882
8830.0 0.0009955
8850.0 0.00085479
8870.0 0.0007568
8890.0 0.00070245
8910.0 0.00073801
8930.0 0.00072449
8950.0 0.00074484
8970.0 0.00075395
8990.0 0.0007649
9010.0 0.00077816
9030.0 0.00076764
9050.0 0.00076695
9070.0 0.0007675
9090.0 0.0007681
9110.0 0.00076848
9130.0 0.00076919
9150.0 0.00077027
9170.0 0.00077094
9190.0 0.00077108
9210.0 0.00077531
9230.0 0.00077596
9250.0 0.0007771
9270.0 0.00077842
9290.0 0.0007799
9310.0 0.00078155
9330.0 0.00078333
9350.0 0.00078519
9370.0 0.00078717
9390.0 0.00078926
9410.0 0.00079143
9430.0 0.00079367
9450.0 0.00079603
9470.0 0.00079847
9490.0 0.00080098
9510.0 0.00080358
9530.0 0.00080628
9550.0 0.00080903
9570.0 0.00081186
9590.0 0.00081478
9610.0 0.00081778
9630.0 0.00082082
9650.0 0.00082395
9670.0 0.00082716
9690.0 0.00083042
9710.0 0.00083373
9730.0 0.00083712
9750.0 0.00084057
9770.0 0.00084403
9790.0 0.00084757
9810.0 0.00085118
9830.0 0.0008548
9850.0 0.00085847
9870.0 0.0008622
9890.0 0.00086595
9910.0 0.00086971
9930.0 0.00087351
9950.0 0.00087714
9970.0 0.00088104
9990.0 0.00088494
10010.0 0.00088785
10030.0 0.00089176
10050.0 0.00089545
10070.0 0.00089817
10090.0 0.00090249
10110.0 0.00090669
10130.0 0.00091077
10150.0 0.00091482
10170.0 0.00091874
10190.0 0.00092251
10210.0 0.00092632
10230.0 0.00093012
10250.0 0.00093378
10270.0 0.00093742
10290.0 0.00094109
10310.0 0.00094463
10330.0 0.00094803
10350.0 0.0009515
10370.0 0.00095491
10390.0 0.00095816
10410.0 0.00096136
10430.0 0.00096459
10450.0 0.00096765
10470.0 0.00097059
10490.0 0.00097352
10510.0 0.00097638
10530.0 0.00097899
10550.0 0.00098158
10570.0 0.00098415
10590.0 0.00098654
10610.0 0.00098879
10630.0 0.00099102
10650.0 0.00099313
10670.0 0.00099501
10690.0 0.00099683
10710.0 0.00099859
10730.0 0.0010001
10750.0 0.0010015
10770.0 0.0010029
10790.0 0.0010041
10810.0 0.0010051
10830.0 0.001006
10850.0 0.0010067
10870.0 0.0010069
10890.0 0.0010065
10910.0 0.0010054
10930.0 0.0010029
10950.0 0.00099802
10970.0 0.00099046
10990.0 0.00098001
11010.0 0.00094735
11030.0 0.00092799
11050.0 0.00090576
11070.0 0.0008802
11090.0 0.00085049
11110.0 0.00082071
11130.0 0.00079064
11150.0 0.00075947
11170.0 0.00072882
11190.0 0.00070066
11210.0 0.0006733
11230.0 0.00064719
11250.0 0.00062415
11270.0 0.00060375
11290.0 0.00058498
11310.0 0.00056871
11330.0 0.00055547
11350.0 0.00054371
11370.0 0.00053326
11390.0 0.00052423
11410.0 0.00051596
11430.0 0.00050745
11450.0 0.0004989
11470.0 0.00049009
11490.0 0.00048033
11510.0 0.00046927
11530.0 0.00045768
11550.0 0.00044528
11570.0 0.00043158
11590.0 0.00041736
11610.0 0.00040323
11630.0 0.00038846
11650.0 0.00037351
11670.0 0.00035963
11690.0 0.00034639
11710.0 0.00033356
11730.0 0.00032186
11750.0 0.00031157
11770.0 0.00030193
11790.0 0.00029321
11810.0 0.00028566
11830.0 0.00027887
11850.0 0.00027243
11870.0 0.00026664
11890.0 0.0002613
11910.0 0.00025594
11930.0 0.00025052
11950.0 0.00024515
11970.0 0.00023955
11990.0 0.00023347
12010.0 0.00022728
12030.0 0.000221
12050.0 0.00021441
12070.0 0.00020767
12090.0 0.00020141
12110.0 0.00019532
12130.0 0.00018952
12150.0 0.00018443
12170.0 0.00018017
12190.0 0.0001766
12210.0 0.00017411
12230.0 0.00017275
12250.0 0.00017248
12270.0 0.00017342
12290.0 0.00017544
12310.0 0.00017836
12330.0 0.0001824
12350.0 0.00018726
12370.0 0.00019258
12390.0 0.00019844
12410.0 0.00020498
12430.0 0.00021121
12450.0 0.00021725
12470.0 0.00022325
12490.0 0.00022877
12510.0 0.00023344
12530.0 0.00023758
12550.0 0.00024103
12570.0 0.00024346
12590.0 0.000245
12610.0 0.00024571
12630.0 0.00024548
12650.0 0.00024438
12670.0 0.00024253
12690.0 0.00023993
12710.0 0.00023675
12730.0 0.0002331
12750.0 0.00022883
12770.0 0.00022426
12790.0 0.00021954
12810.0 0.00021454
12830.0 0.00020927
12850.0 0.00020409
12870.0 0.00019887
12890.0 0.00019341
12910.0 0.00018795
12930.0 0.00018258
12950.0 0.00017697
12970.0 0.00017119
12990.0 0.00016559
13010.0 0.00015996
13030.0 0.00015415
13050.0 0.00014847
13070.0 0.00014307
13090.0 0.00013765
13110.0 0.00013242
13130.0 0.00012767
13150.0 0.00012328
13170.0 0.00011918
13190.0 0.00011573
13210.0 0.00011292
13230.0 0.00011063
13250.0 0.00010896
13270.0 0.00010794
13290.0 0.00010749
13310.0 0.00010763
13330.0 0.0001083
13350.0 0.0001094
13370.0 0.00011094
13390.0 0.00011287
13410.0 0.00011489
13430.0 0.00011712
13450.0 0.0001195
13470.0 0.00012183
13490.0 0.00012403
13510.0 0.00012628
13530.0 0.00012834
13550.0 0.00013012
13570.0 0.00013172
13590.0 0.00013316
13610.0 0.00013431
13630.0 0.00013521
13650.0 0.00013595
13670.0 0.00013648
13690.0 0.0001368
13710.0 0.00013696
13730.0 0.00013697
13750.0 0.00013679
13770.0 0.00013648
13790.0 0.00013602
13810.0 0.00013542
13830.0 0.00013469
13850.0 0.00013381
13870.0 0.00013277
13890.0 0.00013161
13910.0 0.00013034
13930.0 0.0001289
13950.0 0.00012735
13970.0 0.00012578
13990.0 0.00012411
14010.0 0.00012238
14030.0 0.00012069
14050.0 0.00011905
14070.0 0.00011739
14090.0 0.00011587
14110.0 0.00011449
14130.0 0.00011323
14150.0 0.00011211
14170.0 0.00011121
14190.0 0.00011049
14210.0 0.00010995
14230.0 0.00010963
14250.0 0.0001095
14270.0 0.00010959
14290.0 0.00010989
14310.0 0.00011037
14330.0 0.00011102
14350.0 0.00011186
14370.0 0.00011282
14390.0 0.00011385
14410.0 0.00011503
14430.0 0.00011627
14450.0 0.00011751
14470.0 0.00011879
14490.0 0.00012017
14510.0 0.00012152
14530.0 0.00012287
14550.0 0.00012435
14570.0 0.00012594
14590.0 0.00012762
14610.0 0.0001295
14630.0 0.00013172
14650.0 0.00013414
14670.0 0.00013681
14690.0 0.0001399
14710.0 0.00014337
14730.0 0.00014694
14750.0 0.00015084
14770.0 0.00015507
14790.0 0.00015934
14810.0 0.00016356
14830.0 0.00016805
14850.0 0.00017234
14870.0 0.00017625
14890.0 0.00017994
14910.0 0.00018332
14930.0 0.00018612
14950.0 0.00018837
14970.0 0.0001902
14990.0 0.00019147
15010.0 0.00019222
15030.0 0.00019259
15050.0 0.00019261
15070.0 0.00019238
15090.0 0.000192
15110.0 0.0001915
15130.0 0.00019095
15150.0 0.00019039
15170.0 0.0001898
15190.0 0.00018919
15210.0 0.00018861
15230.0 0.00018803
15250.0 0.00018743
15270.0 0.00018684
15290.0 0.00018629
15310.0 0.00018572
15330.0 0.00018514
15350.0 0.00018459
15370.0 0.00018404
15390.0 0.00018346
15410.0 0.0001829
15430.0 0.00018237
15450.0 0.00018181
15470.0 0.00018125
15490.0 0.00018072
15510.0 0.00018019
15530.0 0.00017964
15550.0 0.00017911
15570.0 0.00017859
15590.0 0.00017805
15610.0 0.0001775
15630.0 0.00017698
15650.0 0.00017646
15670.0 0.00017592
15690.0 0.0001754
15710.0 0.00017489
15730.0 0.00017436
15750.0 0.00017383
15770.0 0.00017332
15790.0 0.00017281
15810.0 0.00017227
15830.0 0.00017175
15850.0 0.00017125
15870.0 0.00017073
15890.0 0.00017021
15910.0 0.00016971
15930.0 0.0001692
15950.0 0.00016866
15970.0 0.00016815
15990.0 0.00016765
16010.0 0.00016712
16030.0 0.00016659
16050.0 0.00016609
16070.0 0.00016558
16090.0 0.00016505
16110.0 0.00016454
16130.0 0.00016404
16150.0 0.0001635
16170.0 0.00016298
16190.0 0.00016247
16210.0 0.00016195
16230.0 0.00016142
16250.0 0.0001609
16270.0 0.00016039
16290.0 0.00015986
16310.0 0.00015933
16330.0 0.00015882
16350.0 0.00015829
16370.0 0.00015774
16390.0 0.00015722
16410.0 0.0001567
16430.0 0.00015616
16450.0 0.00015562
16470.0 0.00015511
16490.0 0.00015457
16510.0 0.00015402
16530.0 0.00015349
16550.0 0.00015295
16570.0 0.0001524
16590.0 0.00015185
16610.0 0.00015132
16630.0 0.00015077
16650.0 0.00015022
16670.0 0.00014968
16690.0 0.00014914
16710.0 0.00014856
16730.0 0.00014801
16750.0 0.00014747
16770.0 0.0001469
16790.0 0.00014633
16810.0 0.00014578
16830.0 0.00014523
16850.0 0.00014466
16870.0 0.00014409
16890.0 0.00014354
16910.0 0.00014296
16930.0 0.00014237
16950.0 0.00014181
16970.0 0.00014124
16990.0 0.00014065
17010.0 0.00014008
17030.0 0.00013952
17050.0 0.00013893
17070.0 0.00013834
17090.0 0.00013776
17110.0 0.00013718
17130.0 0.00013657
17150.0 0.00013599
17170.0 0.00013541
17190.0 0.00013481
17210.0 0.00013421
17230.0 0.00013363
17250.0 0.00013304
17270.0 0.00013242
17290.0 0.00013182
17310.0 0.00013123
17330.0 0.00013062
17350.0 0.00013
17370.0 0.00012941
17390.0 0.00012881
17410.0 0.00012819
17430.0 0.00012758
17450.0 0.00012699
17470.0 0.00012636
17490.0 0.00012573
17510.0 0.00012513
17530.0 0.00012452
17550.0 0.00012388
17570.0 0.00012327
17590.0 0.00012267
17610.0 0.00012203
17630.0 0.00012141
17650.0 0.0001208
17670.0 0.00012017
17690.0 0.00011952
17710.0 0.00011891
17730.0 0.00011829
17750.0 0.00011765
17770.0 0.00011702
17790.0 0.00011641
17810.0 0.00011577
17830.0 0.00011512
17850.0 0.0001145
17870.0 0.00011387
17890.0 0.00011322
17910.0 0.00011258
17930.0 0.00011196
17950.0 0.00011132
17970.0 0.00011068
17990.0 0.00011005
18010.0 0.00010942
18030.0 0.00010876
18050.0 0.00010812
18070.0 0.0001075
18090.0 0.00010685
18110.0 0.0001062
18130.0 0.00010557
18150.0 0.00010494
18170.0 0.00010429
18190.0 0.00010365
18210.0 0.00010302
18230.0 0.00010237
18250.0 0.00010171
18270.0 0.00010108
18290.0 0.00010044
18310.0 9.9788e-05
18330.0 9.915e-05
18350.0 9.8525e-05
18370.0 9.7871e-05
18390.0 9.7221e-05
18410.0 9.6591e-05
18430.0 9.5952e-05
18450.0 9.5289e-05
18470.0 9.4651e-05
18490.0 9.4024e-05
18510.0 9.3376e-05
18530.0 9.2729e-05
18550.0 9.2106e-05
18570.0 9.1464e-05
18590.0 9.0807e-05
18610.0 9.0172e-05
18630.0 8.9542e-05
18650.0 8.8893e-05
18670.0 8.8244e-05
18690.0 8.7624e-05
18710.0 8.6988e-05
18730.0 8.634e-05
18750.0 8.5711e-05
18770.0 8.5089e-05
18790.0 8.4432e-05
18810.0 8.3792e-05
18830.0 8.3171e-05
18850.0 8.2537e-05
18870.0 8.1891e-05
18890.0 8.1269e-05
18910.0 8.0649e-05
18930.0 8.0006e-05
18950.0 7.9373e-05
18970.0 7.8757e-05
18990.0 7.8126e-05
19010.0 7.7474e-05
19030.0 7.6861e-05
19050.0 7.6243e-05
19070.0 7.5608e-05
19090.0 7.4983e-05
19110.0 7.4378e-05
19130.0 7.3746e-05
19150.0 7.3113e-05
19170.0 7.2501e-05
19190.0 7.1887e-05
19210.0 7.1252e-05
19230.0 7.063e-05
19250.0 7.0031e-05
19270.0 6.9411e-05
19290.0 6.8788e-05
19310.0 6.8186e-05
19330.0 6.758e-05
19350.0 6.6946e-05
19370.0 6.6337e-05
19390.0 6.5738e-05
19410.0 6.5124e-05
19430.0 6.4504e-05
19450.0 6.3912e-05
19470.0 6.3312e-05
19490.0 6.2696e-05
19510.0 6.2095e-05
19530.0 6.1506e-05
19550.0 6.0892e-05
19570.0 6.0278e-05
19590.0 5.9693e-05
19610.0 5.9098e-05
19630.0 5.849e-05
19650.0 5.7899e-05
19670.0 5.732e-05
19690.0 5.6714e-05
19710.0 5.6115e-05
19730.0 5.5535e-05
19750.0 5.4947e-05
19770.0 5.4338e-05
19790.0 5.3756e-05
19810.0 5.3182e-05
19830.0 5.2587e-05
19850.0 5.1995e-05
19870.0 5.1419e-05
19890.0 5.0816e-05
19910.0 5.018e-05
19930.0 4.9538e-05
19950.0 4.8856e-05
19970.0 4.8089e-05
19990.0 4.7249e-05
20010.0 4.637e-05
20030.0 4.5389e-05
20050.0 4.4326e-05
20070.0 4.3254e-05
20090.0 4.2177e-05
20110.0 4.1046e-05
20130.0 3.9983e-05
20150.0 3.9003e-05
20170.0 3.806e-05
20190.0 3.7176e-05
20210.0 3.6404e-05
20230.0 3.5707e-05
20250.0 3.5066e-05
20270.0 3.4523e-05
20290.0 3.4071e-05
20310.0 3.3687e-05
20330.0 3.3376e-05
20350.0 3.3161e-05
20370.0 3.3014e-05
20390.0 3.2939e-05
20410.0 3.2935e-05
20430.0 3.2995e-05
20450.0 3.3127e-05
20470.0 3.3326e-05
20490.0 3.3576e-05
20510.0 3.3885e-05
20530.0 3.4262e-05
20550.0 3.468e-05
20570.0 3.5123e-05
20590.0 3.5624e-05
20610.0 3.6159e-05
20630.0 3.6698e-05
20650.0 3.7259e-05
20670.0 3.7862e-05
20690.0 3.8439e-05
20710.0 3.9003e-05
20730.0 3.9578e-05
20750.0 4.0145e-05
20770.0 4.067e-05
20790.0 4.1195e-05
20810.0 4.1725e-05
20830.0 4.223e-05
20850.0 4.2723e-05
20870.0 4.3243e-05
20890.0 4.377e-05
20910.0 4.428e-05
20930.0 4.4816e-05
20950.0 4.5382e-05
20970.0 4.5944e-05
20990.0 4.6508e-05
21010.0 4.7108e-05
21030.0 4.7698e-05
21050.0 4.8259e-05
21070.0 4.8811e-05
21090.0 4.935e-05
21110.0 4.9821e-05
21130.0 5.0239e-05
21150.0 5.0615e-05
21170.0 5.0921e-05
21190.0 5.1147e-05
21210.0 5.131e-05
21230.0 5.1394e-05
21250.0 5.1394e-05
21270.0 5.1319e-05
21290.0 5.1162e-05
21310.0 5.0927e-05
21330.0 5.0632e-05
21350.0 5.026e-05
21370.0 4.9815e-05
21390.0 4.9326e-05
21410.0 4.8789e-05
21430.0 4.817e-05
21450.0 4.7532e-05
21470.0 4.6883e-05
21490.0 4.6196e-05
21510.0 4.5487e-05
21530.0 4.4806e-05
21550.0 4.4129e-05
21570.0 4.3445e-05
21590.0 4.2807e-05
21610.0 4.2222e-05
21630.0 4.1668e-05
21650.0 4.116e-05
21670.0 4.0749e-05
21690.0 4.04e-05
21710.0 4.012e-05
21730.0 3.9927e-05
21750.0 3.9818e-05
21770.0 3.9789e-05
21790.0 3.985e-05
21810.0 3.9991e-05
21830.0 4.0213e-05
21850.0 4.0525e-05
21870.0 4.0904e-05
21890.0 4.1337e-05
21910.0 4.1852e-05
21930.0 4.2428e-05
21950.0 4.3033e-05
21970.0 4.3692e-05
21990.0 4.4425e-05
22010.0 4.5155e-05
22030.0 4.5899e-05
22050.0 4.6684e-05
22070.0 4.7479e-05
22090.0 4.8238e-05
22110.0 4.9009e-05
22130.0 4.9782e-05
22150.0 5.0507e-05
22170.0 5.1189e-05
22190.0 5.1858e-05
22210.0 5.2468e-05
22230.0 5.2989e-05
22250.0 5.3455e-05
22270.0 5.3851e-05
22290.0 5.415e-05
22310.0 5.4359e-05
22330.0 5.448e-05
22350.0 5.4492e-05
22370.0 5.4403e-05
22390.0 5.4205e-05
22410.0 5.3886e-05
22430.0 5.3476e-05
22450.0 5.2969e-05
22470.0 5.2339e-05
22490.0 5.1619e-05
22510.0 5.0838e-05
22530.0 4.994e-05
22550.0 4.8944e-05
22570.0 4.7925e-05
22590.0 4.685e-05
22610.0 4.5689e-05
22630.0 4.4504e-05
22650.0 4.3343e-05
22670.0 4.212e-05
22690.0 4.0876e-05
22710.0 3.9678e-05
22730.0 3.8495e-05
22750.0 3.7266e-05
22770.0 3.6118e-05
22790.0 3.5042e-05
22810.0 3.3982e-05
22830.0 3.2972e-05
