#lamb flux
1010.0 2.9735e-07
1030.0 3.1552e-07
1050.0 3.3642e-07
1070.0 3.5996e-07
1090.0 3.8669e-07
1110.0 4.1412e-07
1130.0 4.4172e-07
1150.0 4.7065e-07
1170.0 5.0049e-07
1190.0 5.2879e-07
1210.0 5.5748e-07
1230.0 5.8714e-07
1250.0 6.1621e-07
1270.0 6.4444e-07
1290.0 6.7429e-07
1310.0 7.0412e-07
1330.0 7.3274e-07
1350.0 7.617e-07
1370.0 7.9161e-07
1390.0 8.2078e-07
1410.0 8.491e-07
1430.0 8.7872e-07
1450.0 9.0835e-07
1470.0 9.37e-07
1490.0 9.6598e-07
1510.0 9.966e-07
1530.0 1.0256e-06
1550.0 1.0543e-06
1570.0 1.084e-06
1590.0 1.1137e-06
1610.0 1.1421e-06
1630.0 1.1714e-06
1650.0 1.2015e-06
1670.0 1.2307e-06
1690.0 1.2595e-06
1710.0 1.2894e-06
1730.0 1.3195e-06
1750.0 1.3479e-06
1770.0 1.3771e-06
1790.0 1.407e-06
1810.0 1.4359e-06
1830.0 1.4644e-06
1850.0 1.4947e-06
1870.0 1.5242e-06
1890.0 1.5528e-06
1910.0 1.5821e-06
1930.0 1.6121e-06
1950.0 1.6409e-06
1970.0 1.6694e-06
1990.0 1.6991e-06
2010.0 1.7284e-06
2030.0 1.7568e-06
2050.0 1.7861e-06
2070.0 1.8164e-06
2090.0 1.8451e-06
2110.0 1.8738e-06
2130.0 1.9036e-06
2150.0 1.933e-06
2170.0 1.9614e-06
2190.0 1.9911e-06
2210.0 2.0211e-06
2230.0 2.0502e-06
2250.0 2.0794e-06
2270.0 2.1101e-06
2290.0 2.1402e-06
2310.0 2.1693e-06
2330.0 2.1996e-06
2350.0 2.2304e-06
2370.0 2.2603e-06
2390.0 2.2908e-06
2410.0 2.3229e-06
2430.0 2.354e-06
2450.0 2.384e-06
2470.0 2.4136e-06
2490.0 2.4411e-06
2510.0 2.4648e-06
2530.0 2.4881e-06
2550.0 2.5171e-06
2570.0 2.5614e-06
2590.0 2.6343e-06
2610.0 2.7636e-06
2630.0 2.9659e-06
2650.0 3.2389e-06
2670.0 3.5924e-06
2690.0 4.0232e-06
2710.0 4.4814e-06
2730.0 4.9386e-06
2750.0 5.4031e-06
2770.0 5.8362e-06
2790.0 6.2228e-06
2810.0 6.5868e-06
2830.0 6.9488e-06
2850.0 7.2828e-06
2870.0 7.6129e-06
2890.0 7.9576e-06
2910.0 8.3065e-06
2930.0 8.6451e-06
2950.0 8.999e-06
2970.0 9.3632e-06
2990.0 9.7177e-06
3010.0 2.0861e-05
3030.0 2.1624e-05
3050.0 2.2394e-05
3070.0 2.3131e-05
3090.0 2.3905e-05
3110.0 2.4709e-05
3130.0 2.5504e-05
3150.0 2.6292e-05
3170.0 2.7097e-05
3190.0 2.7794e-05
3210.0 2.8334e-05
3230.0 2.8758e-05
3250.0 2.5344e-05
3270.0 2.1954e-05
3290.0 1.6767e-05
3310.0 1.8789e-05
3330.0 2.0235e-05
3350.0 2.1612e-05
3370.0 2.2977e-05
3390.0 2.4343e-05
3410.0 2.571e-05
3430.0 2.7075e-05
3450.0 2.8442e-05
3470.0 2.9805e-05
3490.0 3.0958e-05
3510.0 3.1346e-05
3530.0 3.2801e-05
3550.0 4.0076e-05
3570.0 5.0802e-05
3590.0 5.7484e-05
3610.0 6.5432e-05
3630.0 6.095e-05
3650.0 5.5753e-05
3670.0 5.3734e-05
3690.0 6.3869e-05
3710.0 8.105e-05
3730.0 8.7129e-05
3750.0 9.0452e-05
3770.0 9.1347e-05
3790.0 8.9833e-05
3810.0 8.1536e-05
3830.0 6.3145e-05
3850.0 5.0431e-05
3870.0 4.9126e-05
3890.0 6.7044e-05
3910.0 9.1159e-05
3930.0 0.00010688
3950.0 0.00011278
3970.0 0.0001122
3990.0 0.00012804
4010.0 0.00014313
4030.0 0.00013388
4050.0 0.00011712
4070.0 9.9085e-05
4090.0 9.8495e-05
4110.0 0.00011159
4130.0 0.00011325
4150.0 0.00011417
4170.0 0.00010757
4190.0 0.00010256
4210.0 0.00010383
4230.0 0.00011934
4250.0 0.0001205
4270.0 0.00011971
4290.0 0.00011858
4310.0 0.00011867
4330.0 0.00013112
4350.0 0.00015101
4370.0 0.00015346
4390.0 0.0001328
4410.0 0.0001097
4430.0 9.4052e-05
4450.0 8.0923e-05
4470.0 7.8405e-05
4490.0 9.3738e-05
4510.0 0.00010517
4530.0 0.00011529
4550.0 0.00012393
4570.0 0.00014641
4590.0 0.00020876
4610.0 0.00027965
4630.0 0.00028967
4650.0 0.00027499
4670.0 0.00029225
4690.0 0.0003206
4710.0 0.00028347
4730.0 0.00020874
4750.0 0.00015885
4770.0 0.00014462
4790.0 0.00014517
4810.0 0.00013609
4830.0 0.00014848
4850.0 0.0001885
4870.0 0.00023413
4890.0 0.00020926
4910.0 0.00018394
4930.0 0.00020407
4950.0 0.0002681
4970.0 0.00034784
4990.0 0.0003585
5010.0 0.00030887
5030.0 0.00023176
5050.0 0.00016617
5070.0 0.00013974
5090.0 0.00013254
5110.0 0.00013449
5130.0 0.00013993
5150.0 0.00013808
5170.0 0.00014072
5190.0 0.00013625
5210.0 0.00014096
5230.0 0.0001512
5250.0 0.00016711
5270.0 0.00020649
5290.0 0.00023639
5310.0 0.00023826
5330.0 0.00024878
5350.0 0.00028156
5370.0 0.0003003
5390.0 0.00027943
5410.0 0.00023999
5430.0 0.00022897
5450.0 0.00026513
5470.0 0.00034317
5490.0 0.00042736
5510.0 0.00047158
5530.0 0.00048308
5550.0 0.00046203
5570.0 0.00043176
5590.0 0.00041872
5610.0 0.00042521
5630.0 0.00043663
5650.0 0.00043892
5670.0 0.00043384
5690.0 0.00042321
5710.0 0.00038115
5730.0 0.00031998
5750.0 0.00026948
5770.0 0.00027204
5790.0 0.0003
5810.0 0.00032389
5830.0 0.00033579
5850.0 0.00033676
5870.0 0.00031249
5890.0 0.00027461
5910.0 0.00026979
5930.0 0.00029381
5950.0 0.00030481
5970.0 0.00028053
5990.0 0.00024258
6010.0 0.00020053
6030.0 0.0001684
6050.0 0.00016584
6070.0 0.00018851
6090.0 0.00019847
6110.0 0.00018148
6130.0 0.00016797
6150.0 0.00017843
6170.0 0.00021364
6190.0 0.00025489
6210.0 0.00027716
6230.0 0.00026757
6250.0 0.00024525
6270.0 0.00021223
6290.0 0.00017594
6310.0 0.00014563
6330.0 0.00013154
6350.0 0.000137
6370.0 0.00014853
6390.0 0.00016076
6410.0 0.00018292
6430.0 0.00022521
6450.0 0.00028363
6470.0 0.00032286
6490.0 0.00032368
6510.0 0.00031603
6530.0 0.00032203
6550.0 0.00032921
6570.0 0.00033212
6590.0 0.00033214
6610.0 0.00032311
6630.0 0.00032357
6650.0 0.00032466
6670.0 0.00031216
6690.0 0.00027993
6710.0 0.00023663
6730.0 0.00022657
6750.0 0.00024349
6770.0 0.00026476
6790.0 0.00027293
6810.0 0.00026985
6830.0 0.00026616
6850.0 0.00026036
6870.0 0.0002455
6890.0 0.00023133
6910.0 0.00022108
6930.0 0.00021309
6950.0 0.00022619
6970.0 0.00024619
6990.0 0.00025966
7010.0 0.0002627
7030.0 0.00024827
7050.0 0.00021553
7070.0 0.00017473
7090.0 0.00014845
7110.0 0.0001432
7130.0 0.00015105
7150.0 0.00015292
7170.0 0.00014065
7190.0 0.0001379
7210.0 0.00015193
7230.0 0.00017447
7250.0 0.00019941
7270.0 0.00020999
7290.0 0.00019772
7310.0 0.00017544
7330.0 0.00016056
7350.0 0.00015716
7370.0 0.00016127
7390.0 0.00016854
7410.0 0.00018058
7430.0 0.00020527
7450.0 0.00023862
7470.0 0.00027244
7490.0 0.0002882
7510.0 0.00027893
7530.0 0.00024075
7550.0 0.00019561
7570.0 0.00016224
7590.0 0.00014262
7610.0 0.00014634
7630.0 0.00016863
7650.0 0.00019339
7670.0 0.00021823
7690.0 0.00023914
7710.0 0.00025406
7730.0 0.00026643
7750.0 0.00027794
7770.0 0.00028799
7790.0 0.00028834
7810.0 0.00029067
7830.0 0.00029907
7850.0 0.00029883
7870.0 0.00029015
7890.0 0.00026882
7910.0 0.00025191
7930.0 0.00023955
7950.0 0.00023877
7970.0 0.00023665
7990.0 0.0002384
8010.0 0.000237
8030.0 0.00023741
8050.0 0.0002432
8070.0 0.00023915
8090.0 0.00023867
8110.0 0.00022897
8130.0 0.00022714
8150.0 0.00022046
8170.0 0.00021388
8190.0 0.00021055
8210.0 0.00021168
8230.0 0.00019833
8250.0 0.00018561
8270.0 0.00016188
8290.0 0.00013035
8310.0 0.00010095
8330.0 7.7434e-05
8350.0 6.8241e-05
8370.0 7.6714e-05
8390.0 8.8538e-05
8410.0 9.7666e-05
8430.0 0.00010829
8450.0 0.00011399
8470.0 0.00011922
8490.0 0.00013239
8510.0 0.00014736
8530.0 0.00017102
8550.0 0.00020032
8570.0 0.00022664
8590.0 0.00024766
8610.0 0.00026544
8630.0 0.00027804
8650.0 0.00027977
8670.0 0.00028008
8690.0 0.00028901
8710.0 0.00029409
8730.0 0.00029963
8750.0 0.00029318
8770.0 0.00029375
8790.0 0.0002893
8810.0 0.00026906
8830.0 0.0002615
8850.0 0.00024637
8870.0 0.00023504
8890.0 0.00022422
8910.0 0.00022962
8930.0 0.00021579
8950.0 0.00020754
8970.0 0.00020427
8990.0 0.00019928
9010.0 0.00019559
9030.0 0.00019044
9050.0 0.00018928
9070.0 0.00018876
9090.0 0.00018825
9110.0 0.00018777
9130.0 0.00018723
9150.0 0.00018668
9170.0 0.00018588
9190.0 0.0001848
9210.0 0.00018572
9230.0 0.00018476
9250.0 0.00018399
9270.0 0.00018327
9290.0 0.00018258
9310.0 0.0001819
9330.0 0.00018123
9350.0 0.00018057
9370.0 0.0001799
9390.0 0.00017922
9410.0 0.00017854
9430.0 0.00017784
9450.0 0.00017707
9470.0 0.00017632
9490.0 0.00017568
9510.0 0.000175
9530.0 0.0001743
9550.0 0.00017359
9570.0 0.00017288
9590.0 0.00017215
9610.0 0.00017142
9630.0 0.00017069
9650.0 0.00016995
9670.0 0.00016921
9690.0 0.00016847
9710.0 0.00016773
9730.0 0.00016699
9750.0 0.00016624
9770.0 0.0001655
9790.0 0.00016475
9810.0 0.00016401
9830.0 0.00016326
9850.0 0.00016252
9870.0 0.00016177
9890.0 0.00016103
9910.0 0.00016028
9930.0 0.00015952
9950.0 0.00015777
9970.0 0.00015733
9990.0 0.00015683
10010.0 0.0001563
10030.0 0.00015569
10050.0 0.000155
10070.0 0.00015426
10090.0 0.00015359
10110.0 0.00015286
10130.0 0.00015217
10150.0 0.00015146
10170.0 0.00015073
10190.0 0.00014996
10210.0 0.00014924
10230.0 0.00014853
10250.0 0.00014779
10270.0 0.00014706
10290.0 0.00014636
10310.0 0.00014564
10330.0 0.00014488
10350.0 0.00014417
10370.0 0.00014346
10390.0 0.00014272
10410.0 0.00014199
10430.0 0.0001413
10450.0 0.00014058
10470.0 0.00013983
10490.0 0.00013912
10510.0 0.00013842
10530.0 0.00013766
10550.0 0.00013692
10570.0 0.00013622
10590.0 0.00013549
10610.0 0.00013474
10630.0 0.00013403
10650.0 0.00013332
10670.0 0.00013255
10690.0 0.00013181
10710.0 0.0001311
10730.0 0.00013035
10750.0 0.00012956
10770.0 0.00012884
10790.0 0.00012811
10810.0 0.00012733
10830.0 0.00012657
10850.0 0.00012585
10870.0 0.00012504
10890.0 0.00012421
10910.0 0.00012339
10930.0 0.0001225
10950.0 0.00012148
10970.0 0.00012038
10990.0 0.0001192
11010.0 0.00010758
11030.0 0.00010615
11050.0 0.00010477
11070.0 0.00010336
11090.0 0.00010184
11110.0 0.00010043
11130.0 9.9065e-05
11150.0 9.7651e-05
11170.0 9.6246e-05
11190.0 9.4938e-05
11210.0 9.3592e-05
11230.0 9.2202e-05
11250.0 9.0881e-05
11270.0 8.9599e-05
11290.0 8.8265e-05
11310.0 8.6955e-05
11330.0 8.5778e-05
11350.0 8.4598e-05
11370.0 8.3426e-05
11390.0 8.235e-05
11410.0 8.1336e-05
11430.0 8.0275e-05
11450.0 7.927e-05
11470.0 7.8323e-05
11490.0 7.7349e-05
11510.0 7.6318e-05
11530.0 7.5325e-05
11550.0 7.4308e-05
11570.0 7.3187e-05
11590.0 7.2025e-05
11610.0 7.0858e-05
11630.0 6.9573e-05
11650.0 6.8184e-05
11670.0 6.6824e-05
11690.0 6.5424e-05
11710.0 6.3933e-05
11730.0 6.2447e-05
11750.0 6.1034e-05
11770.0 5.9568e-05
11790.0 5.8109e-05
11810.0 5.6752e-05
11830.0 5.5451e-05
11850.0 5.413e-05
11870.0 5.2929e-05
11890.0 5.1845e-05
11910.0 5.0789e-05
11930.0 4.9788e-05
11950.0 4.8902e-05
11970.0 4.8064e-05
11990.0 4.7239e-05
12010.0 4.6495e-05
12030.0 4.5818e-05
12050.0 4.5156e-05
12070.0 4.4519e-05
12090.0 4.3974e-05
12110.0 4.3456e-05
12130.0 4.296e-05
12150.0 4.2526e-05
12170.0 4.2158e-05
12190.0 4.1812e-05
12210.0 4.1537e-05
12230.0 4.1351e-05
12250.0 4.1238e-05
12270.0 4.1207e-05
12290.0 4.1283e-05
12310.0 4.1461e-05
12330.0 4.1748e-05
12350.0 4.2152e-05
12370.0 4.2658e-05
12390.0 4.3274e-05
12410.0 4.4022e-05
12430.0 4.4833e-05
12450.0 4.571e-05
12470.0 4.6669e-05
12490.0 4.7669e-05
12510.0 4.8654e-05
12530.0 4.9663e-05
12550.0 5.0672e-05
12570.0 5.1619e-05
12590.0 5.2505e-05
12610.0 5.3351e-05
12630.0 5.4111e-05
12650.0 5.4755e-05
12670.0 5.532e-05
12690.0 5.579e-05
12710.0 5.6151e-05
12730.0 5.6415e-05
12750.0 5.6581e-05
12770.0 5.6649e-05
12790.0 5.6633e-05
12810.0 5.6529e-05
12830.0 5.6337e-05
12850.0 5.6092e-05
12870.0 5.579e-05
12890.0 5.5416e-05
12910.0 5.5001e-05
12930.0 5.4566e-05
12950.0 5.4073e-05
12970.0 5.3533e-05
12990.0 5.2999e-05
13010.0 5.244e-05
13030.0 5.1833e-05
13050.0 5.1215e-05
13070.0 5.0604e-05
13090.0 4.9946e-05
13110.0 4.9264e-05
13130.0 4.8601e-05
13150.0 4.7934e-05
13170.0 4.7237e-05
13190.0 4.6586e-05
13210.0 4.599e-05
13230.0 4.542e-05
13250.0 4.4908e-05
13270.0 4.4493e-05
13290.0 4.4156e-05
13310.0 4.3903e-05
13330.0 4.3761e-05
13350.0 4.3719e-05
13370.0 4.3767e-05
13390.0 4.39e-05
13410.0 4.4088e-05
13430.0 4.4315e-05
13450.0 4.4562e-05
13470.0 4.4788e-05
13490.0 4.4972e-05
13510.0 4.5097e-05
13530.0 4.5128e-05
13550.0 4.506e-05
13570.0 4.4882e-05
13590.0 4.4581e-05
13610.0 4.418e-05
13630.0 4.3699e-05
13650.0 4.3114e-05
13670.0 4.2465e-05
13690.0 4.1795e-05
13710.0 4.1089e-05
13730.0 4.0341e-05
13750.0 3.9647e-05
13770.0 3.8981e-05
13790.0 3.8328e-05
13810.0 3.7721e-05
13830.0 3.7184e-05
13850.0 3.6675e-05
13870.0 3.6206e-05
13890.0 3.5798e-05
13910.0 3.5434e-05
13930.0 3.5095e-05
13950.0 3.4794e-05
13970.0 3.4537e-05
13990.0 3.4299e-05
14010.0 3.4083e-05
14030.0 3.3893e-05
14050.0 3.3722e-05
14070.0 3.3559e-05
14090.0 3.3413e-05
14110.0 3.328e-05
14130.0 3.3153e-05
14150.0 3.3029e-05
14170.0 3.2912e-05
14190.0 3.2798e-05
14210.0 3.2684e-05
14230.0 3.2574e-05
14250.0 3.2469e-05
14270.0 3.2367e-05
14290.0 3.2272e-05
14310.0 3.2188e-05
14330.0 3.2114e-05
14350.0 3.2052e-05
14370.0 3.2002e-05
14390.0 3.1961e-05
14410.0 3.1931e-05
14430.0 3.1907e-05
14450.0 3.1885e-05
14470.0 3.1863e-05
14490.0 3.184e-05
14510.0 3.1809e-05
14530.0 3.1771e-05
14550.0 3.1728e-05
14570.0 3.1679e-05
14590.0 3.1627e-05
14610.0 3.1577e-05
14630.0 3.1535e-05
14650.0 3.1505e-05
14670.0 3.1493e-05
14690.0 3.151e-05
14710.0 3.1562e-05
14730.0 3.1643e-05
14750.0 3.1768e-05
14770.0 3.1948e-05
14790.0 3.2171e-05
14810.0 3.2437e-05
14830.0 3.2784e-05
14850.0 3.3181e-05
14870.0 3.361e-05
14890.0 3.409e-05
14910.0 3.4614e-05
14930.0 3.5124e-05
14950.0 3.56e-05
14970.0 3.6053e-05
14990.0 3.6422e-05
15010.0 3.6685e-05
15030.0 3.6857e-05
15050.0 3.6941e-05
15070.0 3.6933e-05
15090.0 3.6868e-05
15110.0 3.6764e-05
15130.0 3.6634e-05
15150.0 3.6491e-05
15170.0 3.6339e-05
15190.0 3.6183e-05
15210.0 3.6027e-05
15230.0 3.5869e-05
15250.0 3.5711e-05
15270.0 3.5552e-05
15290.0 3.5395e-05
15310.0 3.5236e-05
15330.0 3.5077e-05
15350.0 3.4919e-05
15370.0 3.4761e-05
15390.0 3.4601e-05
15410.0 3.4442e-05
15430.0 3.4284e-05
15450.0 3.4125e-05
15470.0 3.3966e-05
15490.0 3.3808e-05
15510.0 3.3651e-05
15530.0 3.3492e-05
15550.0 3.3334e-05
15570.0 3.3177e-05
15590.0 3.3019e-05
15610.0 3.2861e-05
15630.0 3.2705e-05
15650.0 3.2549e-05
15670.0 3.2392e-05
15690.0 3.2236e-05
15710.0 3.2081e-05
15730.0 3.1926e-05
15750.0 3.177e-05
15770.0 3.1616e-05
15790.0 3.1463e-05
15810.0 3.1308e-05
15830.0 3.1155e-05
15850.0 3.1003e-05
15870.0 3.0851e-05
15890.0 3.0699e-05
15910.0 3.0549e-05
15930.0 3.0398e-05
15950.0 3.0247e-05
15970.0 3.0098e-05
15990.0 2.995e-05
16010.0 2.9801e-05
16030.0 2.9653e-05
16050.0 2.9507e-05
16070.0 2.936e-05
16090.0 2.9214e-05
16110.0 2.9069e-05
16130.0 2.8926e-05
16150.0 2.8781e-05
16170.0 2.8637e-05
16190.0 2.8496e-05
16210.0 2.8354e-05
16230.0 2.8212e-05
16250.0 2.8072e-05
16270.0 2.7933e-05
16290.0 2.7794e-05
16310.0 2.7656e-05
16330.0 2.7519e-05
16350.0 2.7382e-05
16370.0 2.7245e-05
16390.0 2.7111e-05
16410.0 2.6977e-05
16430.0 2.6843e-05
16450.0 2.671e-05
16470.0 2.6579e-05
16490.0 2.6447e-05
16510.0 2.6316e-05
16530.0 2.6187e-05
16550.0 2.6058e-05
16570.0 2.5929e-05
16590.0 2.5802e-05
16610.0 2.5676e-05
16630.0 2.555e-05
16650.0 2.5425e-05
16670.0 2.5301e-05
16690.0 2.5179e-05
16710.0 2.5055e-05
16730.0 2.4934e-05
16750.0 2.4813e-05
16770.0 2.4693e-05
16790.0 2.4573e-05
16810.0 2.4455e-05
16830.0 2.4338e-05
16850.0 2.4221e-05
16870.0 2.4105e-05
16890.0 2.3991e-05
16910.0 2.3876e-05
16930.0 2.3762e-05
16950.0 2.365e-05
16970.0 2.3538e-05
16990.0 2.3426e-05
17010.0 2.3316e-05
17030.0 2.3208e-05
17050.0 2.3098e-05
17070.0 2.299e-05
17090.0 2.2884e-05
17110.0 2.2778e-05
17130.0 2.2671e-05
17150.0 2.2567e-05
17170.0 2.2464e-05
17190.0 2.236e-05
17210.0 2.2258e-05
17230.0 2.2157e-05
17250.0 2.2056e-05
17270.0 2.1956e-05
17290.0 2.1857e-05
17310.0 2.1759e-05
17330.0 2.1661e-05
17350.0 2.1564e-05
17370.0 2.1468e-05
17390.0 2.1373e-05
17410.0 2.1278e-05
17430.0 2.1185e-05
17450.0 2.1092e-05
17470.0 2.0999e-05
17490.0 2.0908e-05
17510.0 2.0817e-05
17530.0 2.0727e-05
17550.0 2.0638e-05
17570.0 2.0549e-05
17590.0 2.0462e-05
17610.0 2.0374e-05
17630.0 2.0288e-05
17650.0 2.0203e-05
17670.0 2.0118e-05
17690.0 2.0033e-05
17710.0 1.9949e-05
17730.0 1.9867e-05
17750.0 1.9784e-05
17770.0 1.9703e-05
17790.0 1.9623e-05
17810.0 1.9542e-05
17830.0 1.9462e-05
17850.0 1.9384e-05
17870.0 1.9306e-05
17890.0 1.9228e-05
17910.0 1.9151e-05
17930.0 1.9076e-05
17950.0 1.9e-05
17970.0 1.8925e-05
17990.0 1.8851e-05
18010.0 1.8778e-05
18030.0 1.8704e-05
18050.0 1.8632e-05
18070.0 1.856e-05
18090.0 1.8489e-05
18110.0 1.8418e-05
18130.0 1.8349e-05
18150.0 1.828e-05
18170.0 1.8211e-05
18190.0 1.8143e-05
18210.0 1.8076e-05
18230.0 1.8008e-05
18250.0 1.7941e-05
18270.0 1.7876e-05
18290.0 1.7811e-05
18310.0 1.7746e-05
18330.0 1.7682e-05
18350.0 1.7619e-05
18370.0 1.7556e-05
18390.0 1.7493e-05
18410.0 1.7432e-05
18430.0 1.737e-05
18450.0 1.7309e-05
18470.0 1.7249e-05
18490.0 1.7189e-05
18510.0 1.713e-05
18530.0 1.7071e-05
18550.0 1.7013e-05
18570.0 1.6956e-05
18590.0 1.6898e-05
18610.0 1.6841e-05
18630.0 1.6785e-05
18650.0 1.6729e-05
18670.0 1.6674e-05
18690.0 1.6619e-05
18710.0 1.6565e-05
18730.0 1.6511e-05
18750.0 1.6458e-05
18770.0 1.6405e-05
18790.0 1.6352e-05
18810.0 1.63e-05
18830.0 1.6249e-05
18850.0 1.6198e-05
18870.0 1.6147e-05
18890.0 1.6097e-05
18910.0 1.6048e-05
18930.0 1.5998e-05
18950.0 1.5949e-05
18970.0 1.5901e-05
18990.0 1.5853e-05
19010.0 1.5804e-05
19030.0 1.5757e-05
19050.0 1.5711e-05
19070.0 1.5664e-05
19090.0 1.5618e-05
19110.0 1.5573e-05
19130.0 1.5527e-05
19150.0 1.5482e-05
19170.0 1.5438e-05
19190.0 1.5394e-05
19210.0 1.5349e-05
19230.0 1.5306e-05
19250.0 1.5264e-05
19270.0 1.5221e-05
19290.0 1.5178e-05
19310.0 1.5137e-05
19330.0 1.5095e-05
19350.0 1.5053e-05
19370.0 1.5012e-05
19390.0 1.4972e-05
19410.0 1.4932e-05
19430.0 1.4892e-05
19450.0 1.4852e-05
19470.0 1.4813e-05
19490.0 1.4774e-05
19510.0 1.4736e-05
19530.0 1.4698e-05
19550.0 1.4659e-05
19570.0 1.4621e-05
19590.0 1.4584e-05
19610.0 1.4548e-05
19630.0 1.451e-05
19650.0 1.4474e-05
19670.0 1.4439e-05
19690.0 1.4402e-05
19710.0 1.4367e-05
19730.0 1.4332e-05
19750.0 1.4297e-05
19770.0 1.4261e-05
19790.0 1.4227e-05
19810.0 1.4193e-05
19830.0 1.4159e-05
19850.0 1.4124e-05
19870.0 1.4089e-05
19890.0 1.4051e-05
19910.0 1.4008e-05
19930.0 1.3958e-05
19950.0 1.3897e-05
19970.0 1.3818e-05
19990.0 1.3717e-05
20010.0 1.3597e-05
20030.0 1.345e-05
20050.0 1.3275e-05
20070.0 1.3085e-05
20090.0 1.2882e-05
20110.0 1.2654e-05
20130.0 1.2426e-05
20150.0 1.2203e-05
20170.0 1.1973e-05
20190.0 1.1743e-05
20210.0 1.1527e-05
20230.0 1.1316e-05
20250.0 1.1104e-05
20270.0 1.0906e-05
20290.0 1.0723e-05
20310.0 1.0547e-05
20330.0 1.0377e-05
20350.0 1.0231e-05
20370.0 1.0096e-05
20390.0 9.9718e-06
20410.0 9.8639e-06
20430.0 9.7728e-06
20450.0 9.6915e-06
20470.0 9.6251e-06
20490.0 9.5743e-06
20510.0 9.536e-06
20530.0 9.5094e-06
20550.0 9.4953e-06
20570.0 9.4915e-06
20590.0 9.4972e-06
20610.0 9.5115e-06
20630.0 9.5321e-06
20650.0 9.5585e-06
20670.0 9.5914e-06
20690.0 9.6258e-06
20710.0 9.6612e-06
20730.0 9.6985e-06
20750.0 9.7352e-06
20770.0 9.768e-06
20790.0 9.7987e-06
20810.0 9.8265e-06
20830.0 9.8484e-06
20850.0 9.8646e-06
20870.0 9.8754e-06
20890.0 9.8792e-06
20910.0 9.8758e-06
20930.0 9.8655e-06
20950.0 9.8476e-06
20970.0 9.8231e-06
20990.0 9.7925e-06
21010.0 9.7539e-06
21030.0 9.7094e-06
21050.0 9.6609e-06
21070.0 9.6069e-06
21090.0 9.5467e-06
21110.0 9.4859e-06
21130.0 9.4234e-06
21150.0 9.3572e-06
21170.0 9.2909e-06
21190.0 9.2271e-06
21210.0 9.1621e-06
21230.0 9.0977e-06
21250.0 9.0385e-06
21270.0 8.9829e-06
21290.0 8.9295e-06
21310.0 8.8815e-06
21330.0 8.8403e-06
21350.0 8.8031e-06
21370.0 8.7714e-06
21390.0 8.7467e-06
21410.0 8.7278e-06
21430.0 8.7146e-06
21450.0 8.7082e-06
21470.0 8.7077e-06
21490.0 8.7131e-06
21510.0 8.7246e-06
21530.0 8.7409e-06
21550.0 8.7623e-06
21570.0 8.7899e-06
21590.0 8.8217e-06
21610.0 8.8569e-06
21630.0 8.8974e-06
21650.0 8.9434e-06
21670.0 8.9896e-06
21690.0 9.0397e-06
21710.0 9.0941e-06
21730.0 9.1499e-06
21750.0 9.2056e-06
21770.0 9.2665e-06
21790.0 9.3282e-06
21810.0 9.3884e-06
21830.0 9.4494e-06
21850.0 9.5124e-06
21870.0 9.5729e-06
21890.0 9.6303e-06
21910.0 9.6886e-06
21930.0 9.7447e-06
21950.0 9.7961e-06
21970.0 9.8455e-06
21990.0 9.8934e-06
22010.0 9.9349e-06
22030.0 9.9714e-06
22050.0 1.0004e-05
22070.0 1.0031e-05
22090.0 1.0052e-05
22110.0 1.0066e-05
22130.0 1.0075e-05
22150.0 1.0076e-05
22170.0 1.007e-05
22190.0 1.0057e-05
22210.0 1.0035e-05
22230.0 1.0007e-05
22250.0 9.9711e-06
22270.0 9.9265e-06
22290.0 9.8758e-06
22310.0 9.8189e-06
22330.0 9.7517e-06
22350.0 9.6788e-06
22370.0 9.6018e-06
22390.0 9.5173e-06
22410.0 9.4242e-06
22430.0 9.3307e-06
22450.0 9.2335e-06
22470.0 9.1289e-06
22490.0 9.0222e-06
22510.0 8.9167e-06
22530.0 8.805e-06
22550.0 8.6898e-06
22570.0 8.5792e-06
22590.0 8.4687e-06
22610.0 8.3552e-06
