#lamb flux
1010.0 1.4687e-06
1030.0 1.4748e-06
1050.0 1.4815e-06
1070.0 1.5162e-06
1090.0 1.6117e-06
1110.0 1.6859e-06
1130.0 1.7389e-06
1150.0 1.7813e-06
1170.0 1.8123e-06
1190.0 1.8214e-06
1210.0 1.8234e-06
1230.0 1.8228e-06
1250.0 1.8151e-06
1270.0 1.8012e-06
1290.0 1.7921e-06
1310.0 1.7825e-06
1330.0 1.7698e-06
1350.0 1.7611e-06
1370.0 1.7591e-06
1390.0 1.76e-06
1410.0 1.7655e-06
1430.0 1.7827e-06
1450.0 1.8096e-06
1470.0 1.8455e-06
1490.0 1.8954e-06
1510.0 1.9643e-06
1530.0 2.0467e-06
1550.0 2.1475e-06
1570.0 2.2728e-06
1590.0 2.4229e-06
1610.0 2.5978e-06
1630.0 2.8075e-06
1650.0 3.0548e-06
1670.0 3.3386e-06
1690.0 3.6648e-06
1710.0 4.0432e-06
1730.0 4.4762e-06
1750.0 4.9605e-06
1770.0 5.5111e-06
1790.0 6.1327e-06
1810.0 6.8221e-06
1830.0 7.5839e-06
1850.0 8.4345e-06
1870.0 9.3613e-06
1890.0 1.0361e-05
1910.0 1.1443e-05
1930.0 1.2605e-05
1950.0 1.3826e-05
1970.0 1.5103e-05
1990.0 1.6442e-05
2010.0 1.7815e-05
2030.0 1.9202e-05
2050.0 2.061e-05
2070.0 2.2023e-05
2090.0 2.3393e-05
2110.0 2.4724e-05
2130.0 2.6014e-05
2150.0 2.7229e-05
2170.0 2.8345e-05
2190.0 2.9385e-05
2210.0 3.033e-05
2230.0 3.115e-05
2250.0 3.186e-05
2270.0 3.248e-05
2290.0 3.2976e-05
2310.0 3.3348e-05
2330.0 3.3635e-05
2350.0 3.3834e-05
2370.0 3.3931e-05
2390.0 3.3963e-05
2410.0 3.3961e-05
2430.0 3.3905e-05
2450.0 3.3816e-05
2470.0 3.3739e-05
2490.0 3.3691e-05
2510.0 3.366e-05
2530.0 3.3742e-05
2550.0 3.4057e-05
2570.0 3.4699e-05
2590.0 3.58e-05
2610.0 3.7739e-05
2630.0 4.058e-05
2650.0 4.4165e-05
2670.0 4.8608e-05
2690.0 5.3856e-05
2710.0 5.9309e-05
2730.0 6.474e-05
2750.0 7.0445e-05
2770.0 7.6056e-05
2790.0 8.1428e-05
2810.0 8.6928e-05
2830.0 9.287e-05
2850.0 9.8659e-05
2870.0 0.00010461
2890.0 0.00011102
2910.0 0.00011768
2930.0 0.00012431
2950.0 0.00013143
2970.0 0.00013899
2990.0 0.00014663
3010.0 0.00015452
3030.0 0.00016296
3050.0 0.00017167
3070.0 0.00018015
3090.0 0.00018881
3110.0 0.00019722
3130.0 0.00020475
3150.0 0.00021119
3170.0 0.00021632
3190.0 0.00021991
3210.0 0.00022248
3230.0 0.00022462
3250.0 0.00022714
3270.0 0.00023097
3290.0 0.00023663
3310.0 0.00024458
3330.0 0.00025461
3350.0 0.00026605
3370.0 0.00027871
3390.0 0.00029172
3410.0 0.00030496
3430.0 0.00033174
3450.0 0.00035155
3470.0 0.00036905
3490.0 0.0003747
3510.0 0.00036979
3530.0 0.00041901
3550.0 0.00049846
3570.0 0.00054802
3590.0 0.00058562
3610.0 0.00059055
3630.0 0.00056018
3650.0 0.00060205
3670.0 0.00072016
3690.0 0.00080923
3710.0 0.00084494
3730.0 0.00086495
3750.0 0.00090995
3770.0 0.00091203
3790.0 0.00087413
3810.0 0.00082273
3830.0 0.0007674
3850.0 0.00076526
3870.0 0.00081201
3890.0 0.00085785
3910.0 0.00089335
3930.0 0.00090408
3950.0 0.00096476
3970.0 0.0010307
3990.0 0.00099294
4010.0 0.00088695
4030.0 0.00078772
4050.0 0.00075828
4070.0 0.00078941
4090.0 0.00079579
4110.0 0.00077344
4130.0 0.00076368
4150.0 0.00078393
4170.0 0.00086535
4190.0 0.0009371
4210.0 0.00090774
4230.0 0.00084732
4250.0 0.00081475
4270.0 0.00079624
4290.0 0.00081037
4310.0 0.00083464
4330.0 0.00079487
4350.0 0.00069922
4370.0 0.00061897
4390.0 0.0005639
4410.0 0.00052055
4430.0 0.00052074
4450.0 0.00056644
4470.0 0.00061249
4490.0 0.00066657
4510.0 0.00075407
4530.0 0.0009225
4550.0 0.0011134
4570.0 0.0012281
4590.0 0.0013132
4610.0 0.0014121
4630.0 0.0014599
4650.0 0.0013599
4670.0 0.0011409
4690.0 0.00096973
4710.0 0.00091094
4730.0 0.00088056
4750.0 0.00078907
4770.0 0.00071598
4790.0 0.00074357
4810.0 0.00080806
4830.0 0.00080458
4850.0 0.00074171
4870.0 0.0007265
4890.0 0.00075794
4910.0 0.00079293
4930.0 0.00079203
4950.0 0.0007701
4970.0 0.00073354
4990.0 0.00067423
5010.0 0.00061924
5030.0 0.00058802
5050.0 0.00057357
5070.0 0.00056384
5090.0 0.0005548
5110.0 0.00055399
5130.0 0.00056251
5150.0 0.00059411
5170.0 0.00065608
5190.0 0.00073133
5210.0 0.00080974
5230.0 0.00085681
5250.0 0.0008807
5270.0 0.00092471
5290.0 0.00096739
5310.0 0.00097664
5330.0 0.00093899
5350.0 0.00089554
5370.0 0.00089444
5390.0 0.00094145
5410.0 0.00098671
5430.0 0.0010015
5450.0 0.00099437
5470.0 0.00096413
5490.0 0.00092733
5510.0 0.00090812
5530.0 0.00091078
5550.0 0.00092311
5570.0 0.00093085
5590.0 0.00090201
5610.0 0.00084937
5630.0 0.00079784
5650.0 0.00075724
5670.0 0.00073204
5690.0 0.00070144
5710.0 0.00067787
5730.0 0.00068683
5750.0 0.00068437
5770.0 0.00066912
5790.0 0.00067405
5810.0 0.00068861
5830.0 0.00070214
5850.0 0.00070633
5870.0 0.00069071
5890.0 0.00066019
5910.0 0.00062554
5930.0 0.00057683
5950.0 0.00054182
5970.0 0.00054023
5990.0 0.0005564
6010.0 0.00056216
6030.0 0.00054229
6050.0 0.00053416
6070.0 0.00055476
6090.0 0.00058224
6110.0 0.00059247
6130.0 0.00057222
6150.0 0.00053887
6170.0 0.00051694
6190.0 0.00049524
6210.0 0.00047205
6230.0 0.00045441
6250.0 0.00044899
6270.0 0.0004606
6290.0 0.00048146
6310.0 0.00050826
6330.0 0.00053767
6350.0 0.00056209
6370.0 0.00057303
6390.0 0.00057417
6410.0 0.00058018
6430.0 0.0005873
6450.0 0.00058927
6470.0 0.00059684
6490.0 0.00060598
6510.0 0.00060849
6530.0 0.00060198
6550.0 0.00058495
6570.0 0.00056345
6590.0 0.00054703
6610.0 0.00053488
6630.0 0.00052421
6650.0 0.00050618
6670.0 0.0004848
6690.0 0.0004688
6710.0 0.00045888
6730.0 0.00045582
6750.0 0.00045024
6770.0 0.0004412
6790.0 0.00043435
6810.0 0.00042888
6830.0 0.00042776
6850.0 0.00042809
6870.0 0.00042477
6890.0 0.00042211
6910.0 0.00041327
6930.0 0.00040362
6950.0 0.00040138
6970.0 0.00039461
6990.0 0.00038231
7010.0 0.00037645
7030.0 0.00037173
7050.0 0.00036337
7070.0 0.00035345
7090.0 0.0003464
7110.0 0.00035003
7130.0 0.00036366
7150.0 0.00037922
7170.0 0.00038925
7190.0 0.00038633
7210.0 0.00037884
7230.0 0.00037393
7250.0 0.00036897
7270.0 0.00036578
7290.0 0.00036106
7310.0 0.00035874
7330.0 0.00036496
7350.0 0.00037211
7370.0 0.00037591
7390.0 0.00037223
7410.0 0.00036313
7430.0 0.00035872
7450.0 0.00035468
7470.0 0.00033742
7490.0 0.00032485
7510.0 0.00031131
7530.0 0.00030147
7550.0 0.00030036
7570.0 0.00030406
7590.0 0.00030243
7610.0 0.0002996
7630.0 0.00029848
7650.0 0.00029742
7670.0 0.00030325
7690.0 0.00031444
7710.0 0.00032767
7730.0 0.0003378
7750.0 0.0003477
7770.0 0.00035272
7790.0 0.00035202
7810.0 0.00034686
7830.0 0.00035073
7850.0 0.00035039
7870.0 0.0003392
7890.0 0.00032716
7910.0 0.00031692
7930.0 0.00030653
7950.0 0.0002993
7970.0 0.00029831
7990.0 0.00030217
8010.0 0.000299
8030.0 0.00029568
8050.0 0.00029075
8070.0 0.00028532
8090.0 0.00027964
8110.0 0.00028012
8130.0 0.00028241
8150.0 0.00028205
8170.0 0.00028012
8190.0 0.00027443
8210.0 0.00026065
8230.0 0.00024315
8250.0 0.0002324
8270.0 0.0002256
8290.0 0.00022136
8310.0 0.00022209
8330.0 0.00022573
8350.0 0.00022095
8370.0 0.0002159
8390.0 0.00021991
8410.0 0.00023003
8430.0 0.00024483
8450.0 0.0002592
8470.0 0.00026509
8490.0 0.00026973
8510.0 0.00027108
8530.0 0.00027268
8550.0 0.00027598
8570.0 0.00027753
8590.0 0.00027901
8610.0 0.00028682
8630.0 0.00029004
8650.0 0.00028408
8670.0 0.00028404
8690.0 0.00028634
8710.0 0.000286
8730.0 0.00028368
8750.0 0.0002758
8770.0 0.00027234
8790.0 0.00027042
8810.0 0.00026728
8830.0 0.00025233
8850.0 0.00023229
8870.0 0.00021764
8890.0 0.00020938
8910.0 0.00019712
8930.0 0.00018359
8950.0 0.00017675
8970.0 0.0001759
8990.0 0.0001769
9010.0 0.00017607
9030.0 0.00017483
9050.0 0.00017368
9070.0 0.00017262
9090.0 0.00017157
9110.0 0.00017053
9130.0 0.00016949
9150.0 0.00016846
9170.0 0.00016743
9190.0 0.00016639
9210.0 0.00016536
9230.0 0.00016435
9250.0 0.00016333
9270.0 0.00016232
9290.0 0.00016132
9310.0 0.00016032
9330.0 0.00015932
9350.0 0.00015833
9370.0 0.00015733
9390.0 0.00015635
9410.0 0.00015537
9430.0 0.00015439
9450.0 0.00015338
9470.0 0.00015239
9490.0 0.00015147
9510.0 0.00015052
9530.0 0.00014959
9550.0 0.00014864
9570.0 0.0001477
9590.0 0.00014677
9610.0 0.00014584
9630.0 0.00014491
9650.0 0.00014399
9670.0 0.00014308
9690.0 0.00014217
9710.0 0.00014126
9730.0 0.00014036
9750.0 0.00013946
9770.0 0.00013857
9790.0 0.00013768
9810.0 0.0001368
9830.0 0.0001359
9850.0 0.00013491
9870.0 0.00013406
9890.0 0.00013324
9910.0 0.0001324
9930.0 0.00013154
9950.0 0.00013072
9970.0 0.00012987
9990.0 0.00012901
10010.0 0.00012804
10030.0 0.00012716
10050.0 0.00012639
10070.0 0.0001256
10090.0 0.00012481
10110.0 0.00012396
10130.0 0.00012294
10150.0 0.00012216
10170.0 0.00012142
10190.0 0.00012063
10210.0 0.00011986
10230.0 0.00011908
10250.0 0.00011827
10270.0 0.00011746
10290.0 0.00011667
10310.0 0.00011586
10330.0 0.00011503
10350.0 0.00011423
10370.0 0.00011344
10390.0 0.00011262
10410.0 0.00011181
10430.0 0.00011103
10450.0 0.00011023
10470.0 0.00010941
10490.0 0.00010862
10510.0 0.00010784
10530.0 0.000107
10550.0 0.00010619
10570.0 0.00010541
10590.0 0.00010461
10610.0 0.00010379
10630.0 0.000103
10650.0 0.00010221
10670.0 0.00010138
10690.0 0.00010057
10710.0 9.9782e-05
10730.0 9.8965e-05
10750.0 9.8123e-05
10770.0 9.7333e-05
10790.0 9.6531e-05
10810.0 9.57e-05
10830.0 9.4885e-05
10850.0 9.4096e-05
10870.0 9.3257e-05
10890.0 9.2422e-05
10910.0 9.1624e-05
10930.0 9.0824e-05
10950.0 9.0006e-05
10970.0 8.9222e-05
10990.0 8.8485e-05
11010.0 9.0241e-05
11030.0 8.9566e-05
11050.0 8.8922e-05
11070.0 8.8272e-05
11090.0 8.7582e-05
11110.0 8.692e-05
11130.0 8.6262e-05
11150.0 8.5578e-05
11170.0 8.4894e-05
11190.0 8.4246e-05
11210.0 8.3596e-05
11230.0 8.2946e-05
11250.0 8.2338e-05
11270.0 8.1763e-05
11290.0 8.1193e-05
11310.0 8.0651e-05
11330.0 8.0163e-05
11350.0 7.9688e-05
11370.0 7.9225e-05
11390.0 7.8794e-05
11410.0 7.838e-05
11430.0 7.7953e-05
11450.0 7.7536e-05
11470.0 7.7126e-05
11490.0 7.6698e-05
11510.0 7.6242e-05
11530.0 7.5784e-05
11550.0 7.5305e-05
11570.0 7.4781e-05
11590.0 7.423e-05
11610.0 7.3666e-05
11630.0 7.305e-05
11650.0 7.2387e-05
11670.0 7.1721e-05
11690.0 7.103e-05
11710.0 7.0294e-05
11730.0 6.9546e-05
11750.0 6.8812e-05
11770.0 6.8042e-05
11790.0 6.7258e-05
11810.0 6.6496e-05
11830.0 6.5738e-05
11850.0 6.4949e-05
11870.0 6.4191e-05
11890.0 6.3466e-05
11910.0 6.2734e-05
11930.0 6.2011e-05
11950.0 6.1332e-05
11970.0 6.0666e-05
11990.0 5.9997e-05
12010.0 5.9367e-05
12030.0 5.8773e-05
12050.0 5.8189e-05
12070.0 5.7622e-05
12090.0 5.7112e-05
12110.0 5.6625e-05
12130.0 5.6158e-05
12150.0 5.5733e-05
12170.0 5.5353e-05
12190.0 5.4992e-05
12210.0 5.4676e-05
12230.0 5.441e-05
12250.0 5.4183e-05
12270.0 5.3997e-05
12290.0 5.3857e-05
12310.0 5.3757e-05
12330.0 5.3695e-05
12350.0 5.367e-05
12370.0 5.3671e-05
12390.0 5.3698e-05
12410.0 5.3751e-05
12430.0 5.3809e-05
12450.0 5.3869e-05
12470.0 5.3934e-05
12490.0 5.3988e-05
12510.0 5.4022e-05
12530.0 5.4038e-05
12550.0 5.4027e-05
12570.0 5.3979e-05
12590.0 5.3893e-05
12610.0 5.3764e-05
12630.0 5.3586e-05
12650.0 5.3367e-05
12670.0 5.3098e-05
12690.0 5.2778e-05
12710.0 5.2422e-05
12730.0 5.203e-05
12750.0 5.1583e-05
12770.0 5.1112e-05
12790.0 5.0627e-05
12810.0 5.0112e-05
12830.0 4.957e-05
12850.0 4.9039e-05
12870.0 4.8505e-05
12890.0 4.7953e-05
12910.0 4.7407e-05
12930.0 4.688e-05
12950.0 4.6341e-05
12970.0 4.5798e-05
12990.0 4.5284e-05
13010.0 4.4777e-05
13030.0 4.4263e-05
13050.0 4.3765e-05
13070.0 4.3292e-05
13090.0 4.2813e-05
13110.0 4.2342e-05
13130.0 4.1898e-05
13150.0 4.1468e-05
13170.0 4.1037e-05
13190.0 4.0637e-05
13210.0 4.0265e-05
13230.0 3.9903e-05
13250.0 3.9558e-05
13270.0 3.9242e-05
13290.0 3.894e-05
13310.0 3.8645e-05
13330.0 3.8369e-05
13350.0 3.8108e-05
13370.0 3.7847e-05
13390.0 3.7588e-05
13410.0 3.7343e-05
13430.0 3.7094e-05
13450.0 3.6838e-05
13470.0 3.6584e-05
13490.0 3.6331e-05
13510.0 3.6061e-05
13530.0 3.5788e-05
13550.0 3.5518e-05
13570.0 3.5242e-05
13590.0 3.4954e-05
13610.0 3.467e-05
13630.0 3.4391e-05
13650.0 3.4099e-05
13670.0 3.3809e-05
13690.0 3.3526e-05
13710.0 3.3239e-05
13730.0 3.2941e-05
13750.0 3.2657e-05
13770.0 3.2375e-05
13790.0 3.2084e-05
13810.0 3.1794e-05
13830.0 3.1514e-05
13850.0 3.1225e-05
13870.0 3.0929e-05
13890.0 3.064e-05
13910.0 3.0352e-05
13930.0 3.0051e-05
13950.0 2.975e-05
13970.0 2.9461e-05
13990.0 2.9163e-05
14010.0 2.8858e-05
14030.0 2.8562e-05
14050.0 2.8267e-05
14070.0 2.7955e-05
14090.0 2.7651e-05
14110.0 2.7357e-05
14130.0 2.7058e-05
14150.0 2.6756e-05
14170.0 2.6473e-05
14190.0 2.6198e-05
14210.0 2.5921e-05
14230.0 2.5658e-05
14250.0 2.5415e-05
14270.0 2.5173e-05
14290.0 2.4942e-05
14310.0 2.4735e-05
14330.0 2.454e-05
14350.0 2.4352e-05
14370.0 2.418e-05
14390.0 2.4024e-05
14410.0 2.3872e-05
14430.0 2.3729e-05
14450.0 2.3598e-05
14470.0 2.3473e-05
14490.0 2.3348e-05
14510.0 2.3233e-05
14530.0 2.3125e-05
14550.0 2.3017e-05
14570.0 2.2911e-05
14590.0 2.2811e-05
14610.0 2.2712e-05
14630.0 2.2611e-05
14650.0 2.2517e-05
14670.0 2.2427e-05
14690.0 2.2338e-05
14710.0 2.2254e-05
14730.0 2.2183e-05
14750.0 2.2119e-05
14770.0 2.2065e-05
14790.0 2.2027e-05
14810.0 2.2007e-05
14830.0 2.2004e-05
14850.0 2.2024e-05
14870.0 2.2067e-05
14890.0 2.2133e-05
14910.0 2.2221e-05
14930.0 2.2322e-05
14950.0 2.2431e-05
14970.0 2.2545e-05
14990.0 2.2651e-05
15010.0 2.2741e-05
15030.0 2.2817e-05
15050.0 2.2876e-05
15070.0 2.2917e-05
15090.0 2.2947e-05
15110.0 2.2968e-05
15130.0 2.2985e-05
15150.0 2.2999e-05
15170.0 2.3012e-05
15190.0 2.3025e-05
15210.0 2.3039e-05
15230.0 2.3053e-05
15250.0 2.3067e-05
15270.0 2.3082e-05
15290.0 2.31e-05
15310.0 2.3117e-05
15330.0 2.3134e-05
15350.0 2.3153e-05
15370.0 2.3173e-05
15390.0 2.3192e-05
15410.0 2.3212e-05
15430.0 2.3234e-05
15450.0 2.3256e-05
15470.0 2.3278e-05
15490.0 2.3301e-05
15510.0 2.3326e-05
15530.0 2.335e-05
15550.0 2.3375e-05
15570.0 2.3402e-05
15590.0 2.3428e-05
15610.0 2.3454e-05
15630.0 2.3482e-05
15650.0 2.3511e-05
15670.0 2.3539e-05
15690.0 2.3568e-05
15710.0 2.3599e-05
15730.0 2.3629e-05
15750.0 2.366e-05
15770.0 2.3691e-05
15790.0 2.3724e-05
15810.0 2.3755e-05
15830.0 2.3788e-05
15850.0 2.3822e-05
15870.0 2.3856e-05
15890.0 2.389e-05
15910.0 2.3925e-05
15930.0 2.3961e-05
15950.0 2.3995e-05
15970.0 2.4032e-05
15990.0 2.4068e-05
16010.0 2.4105e-05
16030.0 2.4141e-05
16050.0 2.4179e-05
16070.0 2.4217e-05
16090.0 2.4255e-05
16110.0 2.4293e-05
16130.0 2.4333e-05
16150.0 2.4371e-05
16170.0 2.441e-05
16190.0 2.445e-05
16210.0 2.4489e-05
16230.0 2.4528e-05
16250.0 2.4569e-05
16270.0 2.461e-05
16290.0 2.465e-05
16310.0 2.469e-05
16330.0 2.4731e-05
16350.0 2.4772e-05
16370.0 2.4811e-05
16390.0 2.4853e-05
16410.0 2.4895e-05
16430.0 2.4935e-05
16450.0 2.4976e-05
16470.0 2.5018e-05
16490.0 2.5059e-05
16510.0 2.5099e-05
16530.0 2.5141e-05
16550.0 2.5182e-05
16570.0 2.5222e-05
16590.0 2.5263e-05
16610.0 2.5305e-05
16630.0 2.5345e-05
16650.0 2.5385e-05
16670.0 2.5426e-05
16690.0 2.5467e-05
16710.0 2.5506e-05
16730.0 2.5545e-05
16750.0 2.5586e-05
16770.0 2.5625e-05
16790.0 2.5663e-05
16810.0 2.5702e-05
16830.0 2.5741e-05
16850.0 2.5779e-05
16870.0 2.5817e-05
16890.0 2.5855e-05
16910.0 2.5892e-05
16930.0 2.5927e-05
16950.0 2.5964e-05
16970.0 2.6001e-05
16990.0 2.6035e-05
17010.0 2.607e-05
17030.0 2.6106e-05
17050.0 2.6139e-05
17070.0 2.6172e-05
17090.0 2.6206e-05
17110.0 2.6238e-05
17130.0 2.6269e-05
17150.0 2.63e-05
17170.0 2.6332e-05
17190.0 2.6361e-05
17210.0 2.639e-05
17230.0 2.642e-05
17250.0 2.6448e-05
17270.0 2.6474e-05
17290.0 2.6501e-05
17310.0 2.6528e-05
17330.0 2.6552e-05
17350.0 2.6576e-05
17370.0 2.66e-05
17390.0 2.6623e-05
17410.0 2.6644e-05
17430.0 2.6666e-05
17450.0 2.6687e-05
17470.0 2.6705e-05
17490.0 2.6723e-05
17510.0 2.6742e-05
17530.0 2.6758e-05
17550.0 2.6773e-05
17570.0 2.6789e-05
17590.0 2.6803e-05
17610.0 2.6816e-05
17630.0 2.6827e-05
17650.0 2.6839e-05
17670.0 2.6849e-05
17690.0 2.6856e-05
17710.0 2.6865e-05
17730.0 2.6872e-05
17750.0 2.6877e-05
17770.0 2.6882e-05
17790.0 2.6886e-05
17810.0 2.6888e-05
17830.0 2.6889e-05
17850.0 2.6889e-05
17870.0 2.6889e-05
17890.0 2.6886e-05
17910.0 2.6882e-05
17930.0 2.6879e-05
17950.0 2.6873e-05
17970.0 2.6865e-05
17990.0 2.6858e-05
18010.0 2.6849e-05
18030.0 2.6838e-05
18050.0 2.6826e-05
18070.0 2.6814e-05
18090.0 2.6799e-05
18110.0 2.6783e-05
18130.0 2.6767e-05
18150.0 2.6749e-05
18170.0 2.6729e-05
18190.0 2.6709e-05
18210.0 2.6688e-05
18230.0 2.6664e-05
18250.0 2.6639e-05
18270.0 2.6614e-05
18290.0 2.6587e-05
18310.0 2.6558e-05
18330.0 2.6529e-05
18350.0 2.6499e-05
18370.0 2.6466e-05
18390.0 2.6432e-05
18410.0 2.6398e-05
18430.0 2.6362e-05
18450.0 2.6323e-05
18470.0 2.6285e-05
18490.0 2.6245e-05
18510.0 2.6204e-05
18530.0 2.616e-05
18550.0 2.6117e-05
18570.0 2.6072e-05
18590.0 2.6024e-05
18610.0 2.5976e-05
18630.0 2.5928e-05
18650.0 2.5877e-05
18670.0 2.5824e-05
18690.0 2.5772e-05
18710.0 2.5718e-05
18730.0 2.5661e-05
18750.0 2.5604e-05
18770.0 2.5547e-05
18790.0 2.5486e-05
18810.0 2.5425e-05
18830.0 2.5364e-05
18850.0 2.53e-05
18870.0 2.5235e-05
18890.0 2.517e-05
18910.0 2.5103e-05
18930.0 2.5034e-05
18950.0 2.4965e-05
18970.0 2.4895e-05
18990.0 2.4823e-05
19010.0 2.4749e-05
19030.0 2.4675e-05
19050.0 2.46e-05
19070.0 2.4523e-05
19090.0 2.4446e-05
19110.0 2.4368e-05
19130.0 2.4288e-05
19150.0 2.4206e-05
19170.0 2.4125e-05
19190.0 2.4042e-05
19210.0 2.3957e-05
19230.0 2.3871e-05
19250.0 2.3786e-05
19270.0 2.3699e-05
19290.0 2.361e-05
19310.0 2.3522e-05
19330.0 2.3432e-05
19350.0 2.3339e-05
19370.0 2.3247e-05
19390.0 2.3155e-05
19410.0 2.3061e-05
19430.0 2.2965e-05
19450.0 2.2871e-05
19470.0 2.2774e-05
19490.0 2.2676e-05
19510.0 2.2578e-05
19530.0 2.248e-05
19550.0 2.2379e-05
19570.0 2.2278e-05
19590.0 2.2177e-05
19610.0 2.2075e-05
19630.0 2.1972e-05
19650.0 2.1868e-05
19670.0 2.1765e-05
19690.0 2.1659e-05
19710.0 2.1553e-05
19730.0 2.1447e-05
19750.0 2.1341e-05
19770.0 2.1232e-05
19790.0 2.1124e-05
19810.0 2.1016e-05
19830.0 2.0906e-05
19850.0 2.0795e-05
19870.0 2.0683e-05
19890.0 2.0568e-05
19910.0 2.0445e-05
19930.0 2.0316e-05
19950.0 2.0175e-05
19970.0 2.0013e-05
19990.0 1.9829e-05
20010.0 1.9627e-05
20030.0 1.9396e-05
20050.0 1.9137e-05
20070.0 1.8864e-05
20090.0 1.8577e-05
20110.0 1.8266e-05
20130.0 1.7956e-05
20150.0 1.7651e-05
20170.0 1.7341e-05
20190.0 1.703e-05
20210.0 1.6734e-05
20230.0 1.6443e-05
20250.0 1.6152e-05
20270.0 1.5874e-05
20290.0 1.561e-05
20310.0 1.5352e-05
20330.0 1.5099e-05
20350.0 1.487e-05
20370.0 1.465e-05
20390.0 1.4437e-05
20410.0 1.4239e-05
20430.0 1.4056e-05
20450.0 1.3879e-05
20470.0 1.3714e-05
20490.0 1.3563e-05
20510.0 1.3422e-05
20530.0 1.3288e-05
20550.0 1.3165e-05
20570.0 1.3052e-05
20590.0 1.2945e-05
20610.0 1.2846e-05
20630.0 1.2753e-05
20650.0 1.2665e-05
20670.0 1.2582e-05
20690.0 1.2503e-05
20710.0 1.2426e-05
20730.0 1.2351e-05
20750.0 1.2277e-05
20770.0 1.2204e-05
20790.0 1.2129e-05
20810.0 1.2052e-05
20830.0 1.1973e-05
20850.0 1.189e-05
20870.0 1.1804e-05
20890.0 1.1712e-05
20910.0 1.1617e-05
20930.0 1.1516e-05
20950.0 1.1408e-05
20970.0 1.1297e-05
20990.0 1.1181e-05
21010.0 1.1058e-05
21030.0 1.0931e-05
21050.0 1.0802e-05
21070.0 1.0668e-05
21090.0 1.0528e-05
21110.0 1.0388e-05
21130.0 1.0248e-05
21150.0 1.0104e-05
21170.0 9.9593e-06
21190.0 9.8177e-06
21210.0 9.6736e-06
21230.0 9.5289e-06
21250.0 9.3891e-06
21270.0 9.2515e-06
21290.0 9.1138e-06
21310.0 8.9796e-06
21330.0 8.8515e-06
21350.0 8.7242e-06
21370.0 8.5993e-06
21390.0 8.4799e-06
21410.0 8.3641e-06
21430.0 8.2483e-06
21450.0 8.1378e-06
21470.0 8.0319e-06
21490.0 7.9274e-06
21510.0 7.8249e-06
21530.0 7.7269e-06
21550.0 7.6308e-06
21570.0 7.5351e-06
21590.0 7.4424e-06
21610.0 7.3523e-06
21630.0 7.2626e-06
21650.0 7.1733e-06
21670.0 7.0877e-06
21690.0 7.0028e-06
21710.0 6.9178e-06
21730.0 6.8346e-06
21750.0 6.7532e-06
21770.0 6.6707e-06
21790.0 6.5889e-06
21810.0 6.5089e-06
21830.0 6.4289e-06
21850.0 6.3481e-06
21870.0 6.2683e-06
21890.0 6.1896e-06
21910.0 6.1096e-06
21930.0 6.0295e-06
21950.0 5.9506e-06
21970.0 5.8711e-06
21990.0 5.7897e-06
22010.0 5.7101e-06
22030.0 5.631e-06
22050.0 5.5509e-06
22070.0 5.4709e-06
22090.0 5.3931e-06
22110.0 5.3149e-06
22130.0 5.2365e-06
22150.0 5.16e-06
22170.0 5.085e-06
22190.0 5.0094e-06
22210.0 4.9352e-06
22230.0 4.8641e-06
22250.0 4.7934e-06
22270.0 4.7234e-06
22290.0 4.6558e-06
22310.0 4.59e-06
22330.0 4.5238e-06
22350.0 4.4594e-06
22370.0 4.3971e-06
22390.0 4.3351e-06
22410.0 4.2731e-06
22430.0 4.2133e-06
22450.0 4.1542e-06
22470.0 4.0947e-06
22490.0 4.0359e-06
22510.0 3.9784e-06
22530.0 3.9201e-06
22550.0 3.8615e-06
22570.0 3.8044e-06
22590.0 3.7475e-06
22610.0 3.69e-06
22630.0 3.6332e-06
