#lamb flux
1010.0 2.6444e-06
1030.0 2.7562e-06
1050.0 2.8859e-06
1070.0 3.0322e-06
1090.0 3.1986e-06
1110.0 3.3701e-06
1130.0 3.5437e-06
1150.0 3.7264e-06
1170.0 3.916e-06
1190.0 4.0974e-06
1210.0 4.2825e-06
1230.0 4.4751e-06
1250.0 4.6657e-06
1270.0 4.8527e-06
1290.0 5.0516e-06
1310.0 5.2524e-06
1330.0 5.4475e-06
1350.0 5.6467e-06
1370.0 5.8542e-06
1390.0 6.0594e-06
1410.0 6.2614e-06
1430.0 6.4741e-06
1450.0 6.6893e-06
1470.0 6.9006e-06
1490.0 7.1163e-06
1510.0 7.345e-06
1530.0 7.5654e-06
1550.0 7.7852e-06
1570.0 8.0133e-06
1590.0 8.2431e-06
1610.0 8.4652e-06
1630.0 8.6941e-06
1650.0 8.9285e-06
1670.0 9.1562e-06
1690.0 9.3808e-06
1710.0 9.6119e-06
1730.0 9.8425e-06
1750.0 1.0059e-05
1770.0 1.0278e-05
1790.0 1.0497e-05
1810.0 1.0707e-05
1830.0 1.0908e-05
1850.0 1.1116e-05
1870.0 1.1314e-05
1890.0 1.1499e-05
1910.0 1.1682e-05
1930.0 1.1863e-05
1950.0 1.2029e-05
1970.0 1.2186e-05
1990.0 1.2344e-05
2010.0 1.2493e-05
2030.0 1.2629e-05
2050.0 1.2766e-05
2070.0 1.2903e-05
2090.0 1.3026e-05
2110.0 1.3145e-05
2130.0 1.3268e-05
2150.0 1.3387e-05
2170.0 1.3499e-05
2190.0 1.362e-05
2210.0 1.3745e-05
2230.0 1.3868e-05
2250.0 1.3997e-05
2270.0 1.4143e-05
2290.0 1.4292e-05
2310.0 1.4446e-05
2330.0 1.4619e-05
2350.0 1.4807e-05
2370.0 1.5005e-05
2390.0 1.5223e-05
2410.0 1.5469e-05
2430.0 1.573e-05
2450.0 1.6009e-05
2470.0 1.6314e-05
2490.0 1.6643e-05
2510.0 1.6987e-05
2530.0 1.7382e-05
2550.0 1.7882e-05
2570.0 1.8563e-05
2590.0 1.9528e-05
2610.0 2.1016e-05
2630.0 2.3157e-05
2650.0 2.5932e-05
2670.0 2.9436e-05
2690.0 3.3653e-05
2710.0 3.8167e-05
2730.0 4.2748e-05
2750.0 4.7476e-05
2770.0 5.2036e-05
2790.0 5.6311e-05
2810.0 6.0515e-05
2830.0 6.483e-05
2850.0 6.9053e-05
2870.0 7.3396e-05
2890.0 7.8032e-05
2910.0 8.2887e-05
2930.0 8.7841e-05
2950.0 9.313e-05
2970.0 9.8726e-05
2990.0 0.00010443
3010.0 0.00019125
3030.0 0.00020192
3050.0 0.00021264
3070.0 0.00022262
3090.0 0.00023147
3110.0 0.00023731
3130.0 0.00023785
3150.0 0.00023051
3170.0 0.00021014
3190.0 0.0001759
3210.0 0.0001281
3230.0 7.3762e-05
3250.0 0.00012931
3270.0 5.5896e-05
3290.0 0.00018723
3310.0 3.7259e-05
3330.0 3.8012e-05
3350.0 5.8282e-05
3370.0 8.1365e-05
3390.0 0.00010584
3410.0 0.00013022
3430.0 0.00015568
3450.0 0.00018106
3470.0 0.00020432
3490.0 0.00021956
3510.0 0.00027332
3530.0 0.00037435
3550.0 0.00037527
3570.0 0.00031866
3590.0 0.00045665
3610.0 0.00029436
3630.0 0.00047455
3650.0 0.00053868
3670.0 0.00069248
3690.0 0.00066214
3710.0 0.00047252
3730.0 0.0006312
3750.0 0.00065635
3770.0 0.00067618
3790.0 0.00061172
3810.0 0.00053763
3830.0 0.00074335
3850.0 0.00079965
3870.0 0.00099311
3890.0 0.0009373
3910.0 0.00085096
3930.0 0.00092112
3950.0 0.0010367
3970.0 0.001352
3990.0 0.0010888
4010.0 0.00071943
4030.0 0.00096892
4050.0 0.0010598
4070.0 0.0012042
4090.0 0.0010569
4110.0 0.00072276
4130.0 0.00095284
4150.0 0.00087586
4170.0 0.00092816
4190.0 0.00092362
4210.0 0.0011471
4230.0 0.00080231
4250.0 0.00095868
4270.0 0.00095763
4290.0 0.0009682
4310.0 0.0011793
4330.0 0.0012094
4350.0 0.00093786
4370.0 0.00081214
4390.0 0.00098535
4410.0 0.0010037
4430.0 0.00077566
4450.0 0.00078041
4470.0 0.00090439
4490.0 0.00067492
4510.0 0.00082151
4530.0 0.00088715
4550.0 0.0011861
4570.0 0.0017368
4590.0 0.0016867
4610.0 0.0011286
4630.0 0.0017943
4650.0 0.0025676
4670.0 0.0023751
4690.0 0.0014113
4710.0 0.0015249
4730.0 0.0019702
4750.0 0.0017611
4770.0 0.0013337
4790.0 0.00092225
4810.0 0.0013311
4830.0 0.0015354
4850.0 0.0013724
4870.0 0.00049763
4890.0 0.0014732
4910.0 0.0020425
4930.0 0.0021904
4950.0 0.0021605
4970.0 0.0013641
4990.0 0.001565
5010.0 0.0018185
5030.0 0.0019758
5050.0 0.0019474
5070.0 0.0014088
5090.0 0.0011564
5110.0 0.0010816
5130.0 0.00096475
5150.0 0.0011027
5170.0 0.00096132
5190.0 0.0011905
5210.0 0.0011883
5230.0 0.0012983
5250.0 0.0016438
5270.0 0.0013944
5290.0 0.0013674
5310.0 0.0019924
5330.0 0.002304
5350.0 0.0019468
5370.0 0.0016984
5390.0 0.0019199
5410.0 0.0023955
5430.0 0.0026326
5450.0 0.0028184
5470.0 0.0028368
5490.0 0.0027787
5510.0 0.0032376
5530.0 0.0033512
5550.0 0.003578
5570.0 0.0037852
5590.0 0.003746
5610.0 0.0035454
5630.0 0.0034173
5650.0 0.0034755
5670.0 0.003434
5690.0 0.002933
5710.0 0.0028077
5730.0 0.0028325
5750.0 0.0030798
5770.0 0.0026721
5790.0 0.0024462
5810.0 0.002476
5830.0 0.0025951
5850.0 0.0023709
5870.0 0.0023801
5890.0 0.0028176
5910.0 0.0026837
5930.0 0.0022046
5950.0 0.0019146
5970.0 0.0020407
5990.0 0.001879
6010.0 0.00177
6030.0 0.0018119
6050.0 0.0016998
6070.0 0.0012865
6090.0 0.0011572
6110.0 0.001489
6130.0 0.0017153
6150.0 0.0018052
6170.0 0.0017611
6190.0 0.0016589
6210.0 0.0016255
6230.0 0.0018784
6250.0 0.0017363
6270.0 0.001588
6290.0 0.0014591
6310.0 0.0013802
6330.0 0.0013133
6350.0 0.0011512
6370.0 0.0011438
6390.0 0.0013555
6410.0 0.0016835
6430.0 0.0019332
6450.0 0.0018231
6470.0 0.0017889
6490.0 0.0022273
6510.0 0.0025482
6530.0 0.0024141
6550.0 0.0023238
6570.0 0.0023596
6590.0 0.0022861
6610.0 0.0024832
6630.0 0.0023383
6650.0 0.0020723
6670.0 0.0018679
6690.0 0.0018088
6710.0 0.0022088
6730.0 0.0020313
6750.0 0.0017489
6770.0 0.0015772
6790.0 0.001653
6810.0 0.0018281
6830.0 0.0017844
6850.0 0.0016243
6870.0 0.0016775
6890.0 0.001647
6910.0 0.0015549
6930.0 0.0017814
6950.0 0.0016528
6970.0 0.0015503
6990.0 0.0015486
7010.0 0.0014823
7030.0 0.001396
7050.0 0.0013465
7070.0 0.0014547
7090.0 0.0013784
7110.0 0.0011962
7130.0 0.00096875
7150.0 0.00087941
7170.0 0.0011645
7190.0 0.0012689
7210.0 0.0012275
7230.0 0.0012775
7250.0 0.0011908
7270.0 0.0011344
7290.0 0.0012538
7310.0 0.0013967
7330.0 0.0013707
7350.0 0.0012869
7370.0 0.0012304
7390.0 0.001289
7410.0 0.0015024
7430.0 0.0016431
7450.0 0.0017497
7470.0 0.0017205
7490.0 0.0017667
7510.0 0.0016967
7530.0 0.0016997
7550.0 0.0016796
7570.0 0.0014821
7590.0 0.0014697
7610.0 0.0014301
7630.0 0.0013342
7650.0 0.0014663
7670.0 0.0016029
7690.0 0.0017428
7710.0 0.0019453
7730.0 0.0020755
7750.0 0.0021721
7770.0 0.0021754
7790.0 0.0023766
7810.0 0.0024565
7830.0 0.002276
7850.0 0.0022953
7870.0 0.0021892
7890.0 0.0022885
7910.0 0.0021729
7930.0 0.0021915
7950.0 0.0019491
7970.0 0.0020017
7990.0 0.0019226
8010.0 0.0019247
8030.0 0.0019196
8050.0 0.0020147
8070.0 0.0019463
8090.0 0.0019541
8110.0 0.0019075
8130.0 0.0019092
8150.0 0.0018308
8170.0 0.0017828
8190.0 0.0017633
8210.0 0.001779
8230.0 0.0015868
8250.0 0.0014554
8270.0 0.0012787
8290.0 0.0010643
8310.0 0.00090923
8330.0 0.00072621
8350.0 0.00061231
8370.0 0.00063255
8390.0 0.00064913
8410.0 0.00069006
8430.0 0.0008415
8450.0 0.00090115
8470.0 0.00095325
8490.0 0.0010929
8510.0 0.0011932
8530.0 0.0013765
8550.0 0.0016293
8570.0 0.0018187
8590.0 0.0019543
8610.0 0.002135
8630.0 0.0023482
8650.0 0.0023891
8670.0 0.0024168
8690.0 0.0025128
8710.0 0.0024905
8730.0 0.0024696
8750.0 0.0023413
8770.0 0.0023456
8790.0 0.0023161
8810.0 0.0021408
8830.0 0.0021392
8850.0 0.0020113
8870.0 0.0019348
8890.0 0.0017747
8910.0 0.0019006
8930.0 0.0017432
8950.0 0.0017147
8970.0 0.0017201
8990.0 0.0016655
9010.0 0.0016931
9030.0 0.0016257
9050.0 0.0016167
9070.0 0.0016147
9090.0 0.0016124
9110.0 0.0016106
9130.0 0.0016077
9150.0 0.0016044
9170.0 0.0015972
9190.0 0.0015841
9210.0 0.001602
9230.0 0.0015934
9250.0 0.0015873
9270.0 0.0015815
9290.0 0.0015759
9310.0 0.0015705
9330.0 0.001565
9350.0 0.0015595
9370.0 0.0015538
9390.0 0.0015481
9410.0 0.0015422
9430.0 0.0015361
9450.0 0.0015298
9470.0 0.0015234
9490.0 0.0015171
9510.0 0.0015106
9530.0 0.001504
9550.0 0.0014973
9570.0 0.0014905
9590.0 0.0014836
9610.0 0.0014767
9630.0 0.0014697
9650.0 0.0014627
9670.0 0.0014556
9690.0 0.0014485
9710.0 0.0014414
9730.0 0.0014343
9750.0 0.0014271
9770.0 0.00142
9790.0 0.0014129
9810.0 0.0014058
9830.0 0.0013987
9850.0 0.0013916
9870.0 0.0013846
9890.0 0.0013776
9910.0 0.0013706
9930.0 0.0013637
9950.0 0.0013527
9970.0 0.0013471
9990.0 0.0013414
10010.0 0.0013356
10030.0 0.0013295
10050.0 0.001323
10070.0 0.0013152
10090.0 0.0013095
10110.0 0.0013036
10130.0 0.0012978
10150.0 0.001292
10170.0 0.0012861
10190.0 0.00128
10210.0 0.0012743
10230.0 0.0012687
10250.0 0.001263
10270.0 0.0012574
10290.0 0.0012521
10310.0 0.0012467
10330.0 0.0012413
10350.0 0.0012362
10370.0 0.0012313
10390.0 0.0012262
10410.0 0.0012214
10430.0 0.0012168
10450.0 0.0012122
10470.0 0.0012075
10490.0 0.0012032
10510.0 0.001199
10530.0 0.0011946
10550.0 0.0011905
10570.0 0.0011866
10590.0 0.0011827
10610.0 0.0011788
10630.0 0.0011752
10650.0 0.0011717
10670.0 0.001168
10690.0 0.0011646
10710.0 0.0011614
10730.0 0.0011582
10750.0 0.0011549
10770.0 0.001152
10790.0 0.0011491
10810.0 0.0011462
10830.0 0.0011434
10850.0 0.0011408
10870.0 0.0011378
10890.0 0.0011346
10910.0 0.0011311
10930.0 0.0011266
10950.0 0.0011204
10970.0 0.0011123
10990.0 0.0011023
11010.0 0.0010824
11030.0 0.0010672
11050.0 0.0010496
11070.0 0.0010294
11090.0 0.001006
11110.0 0.00098276
11130.0 0.00095939
11150.0 0.00093521
11170.0 0.00091134
11190.0 0.00088918
11210.0 0.00086723
11230.0 0.00084562
11250.0 0.00082577
11270.0 0.00080734
11290.0 0.00078931
11310.0 0.00077254
11330.0 0.00075796
11350.0 0.0007441
11370.0 0.00073101
11390.0 0.00071934
11410.0 0.00070864
11430.0 0.00069788
11450.0 0.00068781
11470.0 0.00067835
11490.0 0.00066869
11510.0 0.00065853
11530.0 0.00064861
11550.0 0.00063841
11570.0 0.00062721
11590.0 0.00061557
11610.0 0.00060382
11630.0 0.00059099
11650.0 0.00057721
11670.0 0.00056372
11690.0 0.00054994
11710.0 0.00053541
11730.0 0.00052103
11750.0 0.00050743
11770.0 0.00049348
11790.0 0.00047975
11810.0 0.00046706
11830.0 0.00045498
11850.0 0.00044287
11870.0 0.00043191
11890.0 0.00042206
11910.0 0.00041252
11930.0 0.00040351
11950.0 0.0003955
11970.0 0.00038792
11990.0 0.0003804
12010.0 0.00037355
12030.0 0.00036723
12050.0 0.00036096
12070.0 0.0003548
12090.0 0.00034941
12110.0 0.00034419
12130.0 0.00033909
12150.0 0.00033452
12170.0 0.00033056
12190.0 0.00032679
12210.0 0.00032372
12230.0 0.00032158
12250.0 0.00032022
12270.0 0.00031977
12290.0 0.00032046
12310.0 0.00032226
12330.0 0.00032523
12350.0 0.00032943
12370.0 0.00033465
12390.0 0.00034096
12410.0 0.00034852
12430.0 0.00035657
12450.0 0.00036514
12470.0 0.00037432
12490.0 0.0003837
12510.0 0.00039277
12530.0 0.00040187
12550.0 0.00041079
12570.0 0.00041902
12590.0 0.00042664
12610.0 0.00043381
12630.0 0.00044023
12650.0 0.00044573
12670.0 0.00045063
12690.0 0.00045484
12710.0 0.00045831
12730.0 0.00046114
12750.0 0.00046334
12770.0 0.00046491
12790.0 0.00046594
12810.0 0.0004664
12830.0 0.00046625
12850.0 0.00046569
12870.0 0.00046466
12890.0 0.00046301
12910.0 0.00046091
12930.0 0.00045848
12950.0 0.0004554
12970.0 0.0004517
12990.0 0.00044781
13010.0 0.00044348
13030.0 0.00043849
13050.0 0.00043319
13070.0 0.00042783
13090.0 0.00042187
13110.0 0.0004156
13130.0 0.00040948
13150.0 0.00040332
13170.0 0.00039688
13190.0 0.00039095
13210.0 0.00038561
13230.0 0.00038056
13250.0 0.00037612
13270.0 0.00037262
13290.0 0.00036982
13310.0 0.00036774
13330.0 0.00036659
13350.0 0.00036621
13370.0 0.00036645
13390.0 0.00036721
13410.0 0.0003683
13430.0 0.00036952
13450.0 0.00037067
13470.0 0.00037154
13490.0 0.000372
13510.0 0.00037183
13530.0 0.00037094
13550.0 0.00036939
13570.0 0.00036708
13590.0 0.00036396
13610.0 0.00036034
13630.0 0.00035635
13650.0 0.00035179
13670.0 0.00034702
13690.0 0.00034232
13710.0 0.00033755
13730.0 0.00033265
13750.0 0.00032823
13770.0 0.00032406
13790.0 0.00032
13810.0 0.00031622
13830.0 0.00031282
13850.0 0.0003095
13870.0 0.00030628
13890.0 0.00030331
13910.0 0.00030044
13930.0 0.00029753
13950.0 0.00029469
13970.0 0.00029204
13990.0 0.00028935
14010.0 0.0002867
14030.0 0.00028421
14050.0 0.00028185
14070.0 0.00027952
14090.0 0.00027743
14110.0 0.00027558
14130.0 0.00027391
14150.0 0.00027245
14170.0 0.00027128
14190.0 0.00027033
14210.0 0.00026962
14230.0 0.00026917
14250.0 0.00026894
14270.0 0.00026897
14290.0 0.00026926
14310.0 0.00026973
14330.0 0.00027039
14350.0 0.00027129
14370.0 0.0002723
14390.0 0.00027337
14410.0 0.00027457
14430.0 0.00027582
14450.0 0.00027697
14470.0 0.00027807
14490.0 0.00027916
14510.0 0.00028006
14530.0 0.00028079
14550.0 0.00028145
14570.0 0.00028203
14590.0 0.00028248
14610.0 0.00028294
14630.0 0.00028351
14650.0 0.00028415
14670.0 0.00028493
14690.0 0.00028602
14710.0 0.00028749
14730.0 0.00028916
14750.0 0.00029128
14770.0 0.00029394
14790.0 0.00029695
14810.0 0.00030028
14830.0 0.00030434
14850.0 0.00030871
14870.0 0.00031316
14890.0 0.00031788
14910.0 0.00032278
14930.0 0.00032727
14950.0 0.00033124
14970.0 0.00033479
14990.0 0.00033744
15010.0 0.00033904
15030.0 0.00033978
15050.0 0.0003397
15070.0 0.00033884
15090.0 0.00033748
15110.0 0.00033579
15130.0 0.00033388
15150.0 0.00033187
15170.0 0.00032979
15190.0 0.00032767
15210.0 0.00032556
15230.0 0.00032344
15250.0 0.00032131
15270.0 0.00031918
15290.0 0.00031707
15310.0 0.00031496
15330.0 0.00031283
15350.0 0.00031073
15370.0 0.00030863
15390.0 0.00030651
15410.0 0.00030441
15430.0 0.00030233
15450.0 0.00030024
15470.0 0.00029815
15490.0 0.00029608
15510.0 0.00029402
15530.0 0.00029196
15550.0 0.0002899
15570.0 0.00028787
15590.0 0.00028583
15610.0 0.00028379
15630.0 0.00028178
15650.0 0.00027977
15670.0 0.00027776
15690.0 0.00027578
15710.0 0.00027381
15730.0 0.00027184
15750.0 0.00026987
15770.0 0.00026793
15790.0 0.000266
15810.0 0.00026406
15830.0 0.00026215
15850.0 0.00026026
15870.0 0.00025837
15890.0 0.00025649
15910.0 0.00025463
15930.0 0.00025278
15950.0 0.00025093
15970.0 0.00024911
15990.0 0.00024731
16010.0 0.0002455
16030.0 0.0002437
16050.0 0.00024194
16070.0 0.00024019
16090.0 0.00023843
16110.0 0.00023671
16130.0 0.000235
16150.0 0.00023328
16170.0 0.00023158
16190.0 0.00022992
16210.0 0.00022826
16230.0 0.0002266
16250.0 0.00022497
16270.0 0.00022336
16290.0 0.00022175
16310.0 0.00022015
16330.0 0.00021859
16350.0 0.00021702
16370.0 0.00021546
16390.0 0.00021393
16410.0 0.00021242
16430.0 0.0002109
16450.0 0.00020941
16470.0 0.00020795
16490.0 0.00020648
16510.0 0.00020502
16530.0 0.00020359
16550.0 0.00020218
16570.0 0.00020076
16590.0 0.00019936
16610.0 0.00019799
16630.0 0.00019663
16650.0 0.00019527
16670.0 0.00019394
16690.0 0.00019262
16710.0 0.0001913
16730.0 0.00019
16750.0 0.00018873
16770.0 0.00018745
16790.0 0.00018619
16810.0 0.00018495
16830.0 0.00018373
16850.0 0.00018251
16870.0 0.0001813
16890.0 0.00018012
16910.0 0.00017894
16930.0 0.00017776
16950.0 0.00017662
16970.0 0.00017548
16990.0 0.00017435
17010.0 0.00017323
17030.0 0.00017214
17050.0 0.00017104
17070.0 0.00016996
17090.0 0.0001689
17110.0 0.00016785
17130.0 0.00016679
17150.0 0.00016576
17170.0 0.00016475
17190.0 0.00016374
17210.0 0.00016274
17230.0 0.00016177
17250.0 0.00016079
17270.0 0.00015982
17290.0 0.00015887
17310.0 0.00015794
17330.0 0.000157
17350.0 0.00015607
17370.0 0.00015517
17390.0 0.00015428
17410.0 0.00015338
17430.0 0.00015251
17450.0 0.00015165
17470.0 0.00015078
17490.0 0.00014993
17510.0 0.0001491
17530.0 0.00014827
17550.0 0.00014744
17570.0 0.00014664
17590.0 0.00014584
17610.0 0.00014505
17630.0 0.00014426
17650.0 0.0001435
17670.0 0.00014273
17690.0 0.00014196
17710.0 0.00014123
17730.0 0.00014049
17750.0 0.00013976
17770.0 0.00013904
17790.0 0.00013834
17810.0 0.00013763
17830.0 0.00013693
17850.0 0.00013625
17870.0 0.00013557
17890.0 0.00013489
17910.0 0.00013422
17930.0 0.00013358
17950.0 0.00013293
17970.0 0.00013228
17990.0 0.00013166
18010.0 0.00013104
18030.0 0.0001304
18050.0 0.00012979
18070.0 0.00012919
18090.0 0.00012859
18110.0 0.000128
18130.0 0.00012742
18150.0 0.00012685
18170.0 0.00012627
18190.0 0.00012571
18210.0 0.00012516
18230.0 0.0001246
18250.0 0.00012405
18270.0 0.00012352
18290.0 0.00012299
18310.0 0.00012245
18330.0 0.00012193
18350.0 0.00012143
18370.0 0.00012091
18390.0 0.00012041
18410.0 0.00011991
18430.0 0.00011942
18450.0 0.00011893
18470.0 0.00011845
18490.0 0.00011798
18510.0 0.0001175
18530.0 0.00011704
18550.0 0.00011659
18570.0 0.00011613
18590.0 0.00011567
18610.0 0.00011523
18630.0 0.00011479
18650.0 0.00011435
18670.0 0.00011391
18690.0 0.0001135
18710.0 0.00011308
18730.0 0.00011265
18750.0 0.00011225
18770.0 0.00011184
18790.0 0.00011143
18810.0 0.00011103
18830.0 0.00011064
18850.0 0.00011025
18870.0 0.00010985
18890.0 0.00010947
18910.0 0.0001091
18930.0 0.00010872
18950.0 0.00010834
18970.0 0.00010798
18990.0 0.00010762
19010.0 0.00010724
19030.0 0.00010689
19050.0 0.00010654
19070.0 0.00010619
19090.0 0.00010584
19110.0 0.00010551
19130.0 0.00010516
19150.0 0.00010482
19170.0 0.00010449
19190.0 0.00010416
19210.0 0.00010383
19230.0 0.0001035
19250.0 0.00010319
19270.0 0.00010287
19290.0 0.00010255
19310.0 0.00010224
19330.0 0.00010194
19350.0 0.00010162
19370.0 0.00010131
19390.0 0.00010102
19410.0 0.00010071
19430.0 0.00010041
19450.0 0.00010013
19470.0 9.9836e-05
19490.0 9.954e-05
19510.0 9.9255e-05
19530.0 9.8977e-05
19550.0 9.8688e-05
19570.0 9.84e-05
19590.0 9.813e-05
19610.0 9.7855e-05
19630.0 9.7576e-05
19650.0 9.7307e-05
19670.0 9.7045e-05
19690.0 9.6771e-05
19710.0 9.6502e-05
19730.0 9.6244e-05
19750.0 9.5983e-05
19770.0 9.5712e-05
19790.0 9.5456e-05
19810.0 9.5206e-05
19830.0 9.4944e-05
19850.0 9.4683e-05
19870.0 9.4426e-05
19890.0 9.4144e-05
19910.0 9.3821e-05
19930.0 9.3462e-05
19950.0 9.3028e-05
19970.0 9.2464e-05
19990.0 9.1754e-05
20010.0 9.0926e-05
20030.0 8.99e-05
20050.0 8.8684e-05
20070.0 8.7364e-05
20090.0 8.5946e-05
20110.0 8.4345e-05
20130.0 8.2739e-05
20150.0 8.1162e-05
20170.0 7.9538e-05
20190.0 7.7902e-05
20210.0 7.6369e-05
20230.0 7.4882e-05
20250.0 7.3397e-05
20270.0 7.2027e-05
20290.0 7.0786e-05
20310.0 6.9614e-05
20330.0 6.8531e-05
20350.0 6.7654e-05
20370.0 6.6897e-05
20390.0 6.6266e-05
20410.0 6.5802e-05
20430.0 6.5499e-05
20450.0 6.5334e-05
20470.0 6.5329e-05
20490.0 6.5474e-05
20510.0 6.5755e-05
20530.0 6.6184e-05
20550.0 6.6727e-05
20570.0 6.7353e-05
20590.0 6.8094e-05
20610.0 6.8914e-05
20630.0 6.9762e-05
20650.0 7.0657e-05
20670.0 7.1614e-05
20690.0 7.2531e-05
20710.0 7.3415e-05
20730.0 7.429e-05
20750.0 7.5114e-05
20770.0 7.5839e-05
20790.0 7.6504e-05
20810.0 7.7099e-05
20830.0 7.7586e-05
20850.0 7.7976e-05
20870.0 7.8285e-05
20890.0 7.8494e-05
20910.0 7.8608e-05
20930.0 7.8642e-05
20950.0 7.8594e-05
20970.0 7.8477e-05
20990.0 7.8302e-05
21010.0 7.8054e-05
21030.0 7.7756e-05
21050.0 7.7423e-05
21070.0 7.7044e-05
21090.0 7.6613e-05
21110.0 7.6178e-05
21130.0 7.5727e-05
21150.0 7.5244e-05
21170.0 7.476e-05
21190.0 7.4295e-05
21210.0 7.382e-05
21230.0 7.3352e-05
21250.0 7.293e-05
21270.0 7.2542e-05
21290.0 7.218e-05
21310.0 7.1871e-05
21330.0 7.1629e-05
21350.0 7.1434e-05
21370.0 7.1299e-05
21390.0 7.1235e-05
21410.0 7.1234e-05
21430.0 7.1301e-05
21450.0 7.1436e-05
21470.0 7.1629e-05
21490.0 7.1886e-05
21510.0 7.2205e-05
21530.0 7.2563e-05
21550.0 7.2969e-05
21570.0 7.3432e-05
21590.0 7.3925e-05
21610.0 7.4438e-05
21630.0 7.4995e-05
21650.0 7.5595e-05
21670.0 7.618e-05
21690.0 7.6793e-05
21710.0 7.7442e-05
21730.0 7.8094e-05
21750.0 7.8741e-05
21770.0 7.944e-05
21790.0 8.0151e-05
21810.0 8.0851e-05
21830.0 8.1571e-05
21850.0 8.2328e-05
21870.0 8.3078e-05
21890.0 8.3815e-05
21910.0 8.4589e-05
21930.0 8.5368e-05
21950.0 8.6121e-05
21970.0 8.6881e-05
21990.0 8.7666e-05
22010.0 8.8399e-05
22030.0 8.9099e-05
22050.0 8.979e-05
22070.0 9.044e-05
22090.0 9.1015e-05
22110.0 9.1547e-05
22130.0 9.2023e-05
22150.0 9.2409e-05
22170.0 9.2709e-05
22190.0 9.2926e-05
22210.0 9.3037e-05
22230.0 9.3043e-05
22250.0 9.2941e-05
22270.0 9.2719e-05
22290.0 9.2393e-05
22310.0 9.1963e-05
22330.0 9.1392e-05
22350.0 9.0717e-05
22370.0 8.9961e-05
22390.0 8.909e-05
22410.0 8.8092e-05
22430.0 8.7061e-05
22450.0 8.5967e-05
22470.0 8.4767e-05
22490.0 8.3529e-05
22510.0 8.2298e-05
22530.0 8.0985e-05
22550.0 7.9629e-05
22570.0 7.8329e-05
22590.0 7.7035e-05
22610.0 7.5712e-05
22630.0 7.4434e-05
22650.0 7.3242e-05
22670.0 7.2044e-05
22690.0 7.0881e-05
22710.0 6.9809e-05
22730.0 6.8792e-05
22750.0 6.7774e-05
22770.0 6.6856e-05
22790.0 6.602e-05
22810.0 6.5214e-05
22830.0 6.4458e-05
22850.0 6.3787e-05
22870.0 6.3159e-05
22890.0 6.2558e-05
22910.0 6.2023e-05
22930.0 6.1546e-05
22950.0 6.1099e-05
