#lamb flux
1010.0 4.9441e-07
1030.0 5.1941e-07
1050.0 5.4839e-07
1070.0 5.8108e-07
1090.0 6.1825e-07
1110.0 6.5653e-07
1130.0 6.9523e-07
1150.0 7.3594e-07
1170.0 7.7815e-07
1190.0 8.1847e-07
1210.0 8.5958e-07
1230.0 9.0231e-07
1250.0 9.4453e-07
1270.0 9.859e-07
1290.0 1.0298e-06
1310.0 1.0741e-06
1330.0 1.1171e-06
1350.0 1.1609e-06
1370.0 1.2065e-06
1390.0 1.2515e-06
1410.0 1.2956e-06
1430.0 1.3421e-06
1450.0 1.3891e-06
1470.0 1.4351e-06
1490.0 1.482e-06
1510.0 1.5316e-06
1530.0 1.5794e-06
1550.0 1.627e-06
1570.0 1.6763e-06
1590.0 1.7259e-06
1610.0 1.7738e-06
1630.0 1.8232e-06
1650.0 1.8737e-06
1670.0 1.9227e-06
1690.0 1.971e-06
1710.0 2.0208e-06
1730.0 2.0704e-06
1750.0 2.1169e-06
1770.0 2.1641e-06
1790.0 2.2114e-06
1810.0 2.2565e-06
1830.0 2.3e-06
1850.0 2.345e-06
1870.0 2.3877e-06
1890.0 2.4277e-06
1910.0 2.4672e-06
1930.0 2.5065e-06
1950.0 2.5423e-06
1970.0 2.5763e-06
1990.0 2.6104e-06
2010.0 2.6424e-06
2030.0 2.6715e-06
2050.0 2.7006e-06
2070.0 2.7297e-06
2090.0 2.7552e-06
2110.0 2.7797e-06
2130.0 2.8046e-06
2150.0 2.8283e-06
2170.0 2.8498e-06
2190.0 2.8727e-06
2210.0 2.8959e-06
2230.0 2.9179e-06
2250.0 2.9404e-06
2270.0 2.9655e-06
2290.0 2.9904e-06
2310.0 3.0153e-06
2330.0 3.043e-06
2350.0 3.073e-06
2370.0 3.1037e-06
2390.0 3.1372e-06
2410.0 3.1753e-06
2430.0 3.2151e-06
2450.0 3.2573e-06
2470.0 3.3042e-06
2490.0 3.3561e-06
2510.0 3.413e-06
2530.0 3.4844e-06
2550.0 3.5857e-06
2570.0 3.7357e-06
2590.0 3.9577e-06
2610.0 4.3088e-06
2630.0 4.813e-06
2650.0 5.4566e-06
2670.0 6.2555e-06
2690.0 7.1959e-06
2710.0 8.1719e-06
2730.0 9.1285e-06
2750.0 1.0082e-05
2770.0 1.0962e-05
2790.0 1.1751e-05
2810.0 1.25e-05
2830.0 1.325e-05
2850.0 1.3968e-05
2870.0 1.47e-05
2890.0 1.5481e-05
2910.0 1.6298e-05
2930.0 1.713e-05
2950.0 1.8021e-05
2970.0 1.8966e-05
2990.0 1.9928e-05
3010.0 4.5717e-05
3030.0 4.7989e-05
3050.0 5.0263e-05
3070.0 5.2353e-05
3090.0 5.4155e-05
3110.0 5.5219e-05
3130.0 5.5008e-05
3150.0 5.2918e-05
3170.0 4.7735e-05
3190.0 3.9321e-05
3210.0 2.7786e-05
3230.0 1.4769e-05
3250.0 2.8779e-05
3270.0 1.3016e-05
3290.0 4.547e-05
3310.0 1.0004e-05
3330.0 9.7583e-06
3350.0 1.4136e-05
3370.0 1.925e-05
3390.0 2.475e-05
3410.0 3.0239e-05
3430.0 3.6003e-05
3450.0 4.1773e-05
3470.0 4.7053e-05
3490.0 5.0553e-05
3510.0 6.331e-05
3530.0 8.6602e-05
3550.0 8.4381e-05
3570.0 6.7509e-05
3590.0 9.7424e-05
3610.0 5.7367e-05
3630.0 0.00010159
3650.0 0.00011917
3670.0 0.000156
3690.0 0.00014499
3710.0 9.3956e-05
3730.0 0.00012789
3750.0 0.00013219
3770.0 0.00013896
3790.0 0.00012816
3810.0 0.00012059
3830.0 0.00018737
3850.0 0.00021876
3870.0 0.00027343
3890.0 0.00025802
3910.0 0.00022635
3930.0 0.00023494
3950.0 0.00026032
3970.0 0.00031992
3990.0 0.0002268
4010.0 0.00012735
4030.0 0.00020433
4050.0 0.00024943
4070.0 0.00028221
4090.0 0.0002232
4110.0 0.0001395
4130.0 0.00020873
4150.0 0.00019921
4170.0 0.00020146
4190.0 0.0001936
4210.0 0.00025895
4230.0 0.00017614
4250.0 0.0002055
4270.0 0.00020476
4290.0 0.00020188
4310.0 0.00025642
4330.0 0.00026711
4350.0 0.00020388
4370.0 0.00016949
4390.0 0.00021655
4410.0 0.0002264
4430.0 0.00016916
4450.0 0.00016567
4470.0 0.00020054
4490.0 0.00014429
4510.0 0.00018881
4530.0 0.0001999
4550.0 0.00025923
4570.0 0.00038073
4590.0 0.00035987
4610.0 0.00023229
4630.0 0.00039958
4650.0 0.00058018
4670.0 0.00053699
4690.0 0.00031772
4710.0 0.00035118
4730.0 0.0004556
4750.0 0.00039835
4770.0 0.00029839
4790.0 0.00019503
4810.0 0.00028949
4830.0 0.00033901
4850.0 0.00028987
4870.0 7.9112e-05
4890.0 0.00031643
4910.0 0.00044977
4930.0 0.00048461
4950.0 0.00047443
4970.0 0.0002791
4990.0 0.00032914
5010.0 0.00040262
5030.0 0.00045557
5050.0 0.00045116
5070.0 0.00031963
5090.0 0.00025767
5110.0 0.00024257
5130.0 0.00021868
5150.0 0.00024344
5170.0 0.00021046
5190.0 0.00026368
5210.0 0.00026508
5230.0 0.00029355
5250.0 0.00036803
5270.0 0.00029782
5290.0 0.00029435
5310.0 0.00045409
5330.0 0.00053193
5350.0 0.00043596
5370.0 0.00037605
5390.0 0.00044437
5410.0 0.00056858
5430.0 0.00062767
5450.0 0.00066739
5470.0 0.00065981
5490.0 0.00064442
5510.0 0.00076848
5530.0 0.00080128
5550.0 0.00086727
5570.0 0.00093203
5590.0 0.00092717
5610.0 0.00087243
5630.0 0.00084454
5650.0 0.00087101
5670.0 0.00086118
5690.0 0.00072884
5710.0 0.00071661
5730.0 0.00073883
5750.0 0.0008111
5770.0 0.0006977
5790.0 0.00064212
5810.0 0.00065195
5830.0 0.00069633
5850.0 0.00063772
5870.0 0.00064957
5890.0 0.00079065
5910.0 0.00074903
5930.0 0.00060343
5950.0 0.00052422
5970.0 0.00057777
5990.0 0.0005353
6010.0 0.00050615
6030.0 0.0005181
6050.0 0.00047972
6070.0 0.00035149
6090.0 0.00031661
6110.0 0.00042442
6130.0 0.00049368
6150.0 0.00051556
6170.0 0.000493
6190.0 0.00045366
6210.0 0.00044949
6230.0 0.00054336
6250.0 0.00050206
6270.0 0.00045838
6290.0 0.0004241
6310.0 0.00039906
6330.0 0.0003778
6350.0 0.00032891
6370.0 0.00032647
6390.0 0.00038728
6410.0 0.00048506
6430.0 0.00056072
6450.0 0.0005266
6470.0 0.00051217
6490.0 0.0006491
6510.0 0.00075687
6530.0 0.0007133
6550.0 0.00067784
6570.0 0.00068867
6590.0 0.00067044
6610.0 0.00072957
6630.0 0.00067988
6650.0 0.0005881
6670.0 0.00053057
6690.0 0.00052429
6710.0 0.00065693
6730.0 0.00059399
6750.0 0.00049041
6770.0 0.00043166
6790.0 0.00045602
6810.0 0.00052054
6830.0 0.00051177
6850.0 0.00045829
6870.0 0.00047965
6890.0 0.00047578
6910.0 0.0004476
6930.0 0.00051553
6950.0 0.00047219
6970.0 0.00043346
6990.0 0.00042892
7010.0 0.00041662
7030.0 0.00039792
7050.0 0.00038803
7070.0 0.00043186
7090.0 0.00041039
7110.0 0.00034903
7130.0 0.00028164
7150.0 0.00026148
7170.0 0.00035316
7190.0 0.00038389
7210.0 0.00036377
7230.0 0.00037642
7250.0 0.0003484
7270.0 0.00033031
7290.0 0.00036935
7310.0 0.00041943
7330.0 0.00041339
7350.0 0.00038473
7370.0 0.00035971
7390.0 0.00036958
7410.0 0.00043208
7430.0 0.000477
7450.0 0.00050318
7470.0 0.00049264
7490.0 0.00052363
7510.0 0.00050968
7530.0 0.00049313
7550.0 0.00048623
7570.0 0.00042623
7590.0 0.0004189
7610.0 0.00040361
7630.0 0.00036587
7650.0 0.00039501
7670.0 0.00043131
7690.0 0.00046726
7710.0 0.00052779
7730.0 0.0005581
7750.0 0.00058072
7770.0 0.00058753
7790.0 0.00064427
7810.0 0.00065815
7830.0 0.00059304
7850.0 0.00059614
7870.0 0.00056829
7890.0 0.00059506
7910.0 0.00056246
7930.0 0.00056564
7950.0 0.00048455
7970.0 0.00049346
7990.0 0.00047106
8010.0 0.00048753
8030.0 0.000484
8050.0 0.00051091
8070.0 0.00048871
8090.0 0.00048961
8110.0 0.00047944
8130.0 0.00047762
8150.0 0.00045227
8170.0 0.00044037
8190.0 0.00043561
8210.0 0.00043849
8230.0 0.0003833
8250.0 0.00034911
8270.0 0.00030732
8290.0 0.00025895
8310.0 0.00022704
8330.0 0.00018158
8350.0 0.00014968
8370.0 0.00014875
8390.0 0.00014579
8410.0 0.00015169
8430.0 0.00019101
8450.0 0.0002057
8470.0 0.00021903
8490.0 0.00025447
8510.0 0.00027631
8530.0 0.000316
8550.0 0.00037296
8570.0 0.00041032
8590.0 0.0004334
8610.0 0.00047544
8630.0 0.00053168
8650.0 0.00054141
8670.0 0.00054905
8690.0 0.00057064
8710.0 0.00056016
8730.0 0.00054677
8750.0 0.00050815
8770.0 0.00050789
8790.0 0.00050054
8810.0 0.00045972
8830.0 0.00046097
8850.0 0.00042768
8870.0 0.00040923
8890.0 0.00036811
8910.0 0.00040249
8930.0 0.00036406
8950.0 0.00036068
8970.0 0.00036452
8990.0 0.00035193
9010.0 0.00036062
9030.0 0.00034372
9050.0 0.0003419
9070.0 0.00034179
9090.0 0.00034159
9110.0 0.00034157
9130.0 0.00034126
9150.0 0.0003408
9170.0 0.00033942
9190.0 0.00033662
9210.0 0.00034145
9230.0 0.00033971
9250.0 0.00033857
9270.0 0.00033753
9290.0 0.00033655
9310.0 0.00033562
9330.0 0.00033469
9350.0 0.00033374
9370.0 0.00033277
9390.0 0.00033177
9410.0 0.00033073
9430.0 0.00032967
9450.0 0.00032857
9470.0 0.00032744
9490.0 0.00032629
9510.0 0.00032512
9530.0 0.00032393
9550.0 0.00032271
9570.0 0.00032148
9590.0 0.00032024
9610.0 0.00031898
9630.0 0.00031771
9650.0 0.00031643
9670.0 0.00031514
9690.0 0.00031385
9710.0 0.00031256
9730.0 0.00031126
9750.0 0.00030996
9770.0 0.00030868
9790.0 0.00030739
9810.0 0.0003061
9830.0 0.00030483
9850.0 0.00030356
9870.0 0.0003023
9890.0 0.00030104
9910.0 0.00029981
9930.0 0.00029858
9950.0 0.00029674
9970.0 0.00029574
9990.0 0.00029472
10010.0 0.00029368
10030.0 0.00029261
10050.0 0.00029145
10070.0 0.00028986
10090.0 0.00028898
10110.0 0.00028807
10130.0 0.00028714
10150.0 0.0002862
10170.0 0.00028525
10190.0 0.00028428
10210.0 0.00028335
10230.0 0.00028245
10250.0 0.00028154
10270.0 0.00028066
10290.0 0.00027983
10310.0 0.000279
10330.0 0.00027818
10350.0 0.00027741
10370.0 0.00027667
10390.0 0.00027594
10410.0 0.00027523
10430.0 0.00027458
10450.0 0.00027393
10470.0 0.0002733
10490.0 0.00027271
10510.0 0.00027216
10530.0 0.00027159
10550.0 0.00027106
10570.0 0.00027058
10590.0 0.00027011
10610.0 0.00026966
10630.0 0.00026925
10650.0 0.00026886
10670.0 0.00026847
10690.0 0.00026812
10710.0 0.00026781
10730.0 0.0002675
10750.0 0.0002672
10770.0 0.00026696
10790.0 0.00026673
10810.0 0.00026651
10830.0 0.00026631
10850.0 0.00026612
10870.0 0.00026588
10890.0 0.00026557
10910.0 0.00026512
10930.0 0.00026441
10950.0 0.00026323
10970.0 0.0002615
10990.0 0.00025917
11010.0 0.00026025
11030.0 0.00025618
11050.0 0.00025138
11070.0 0.00024582
11090.0 0.00023937
11110.0 0.00023291
11130.0 0.00022644
11150.0 0.00021977
11170.0 0.00021325
11190.0 0.00020725
11210.0 0.0002014
11230.0 0.00019574
11250.0 0.00019064
11270.0 0.00018601
11290.0 0.00018158
11310.0 0.00017754
11330.0 0.00017409
11350.0 0.00017086
11370.0 0.00016784
11390.0 0.00016514
11410.0 0.00016263
11430.0 0.00016009
11450.0 0.00015764
11470.0 0.00015528
11490.0 0.00015282
11510.0 0.00015019
11530.0 0.00014758
11550.0 0.00014489
11570.0 0.00014196
11590.0 0.00013893
11610.0 0.00013591
11630.0 0.00013267
11650.0 0.00012925
11670.0 0.00012596
11690.0 0.00012264
11710.0 0.0001192
11730.0 0.00011584
11750.0 0.00011268
11770.0 0.00010948
11790.0 0.00010634
11810.0 0.00010344
11830.0 0.00010068
11850.0 9.7908e-05
11870.0 9.5374e-05
11890.0 9.3069e-05
11910.0 9.0811e-05
11930.0 8.8647e-05
11950.0 8.6686e-05
11970.0 8.4798e-05
11990.0 8.2903e-05
12010.0 8.1142e-05
12030.0 7.9492e-05
12050.0 7.7844e-05
12070.0 7.622e-05
12090.0 7.4781e-05
12110.0 7.339e-05
12130.0 7.2042e-05
12150.0 7.084e-05
12170.0 6.9803e-05
12190.0 6.884e-05
12210.0 6.8076e-05
12230.0 6.7553e-05
12250.0 6.7243e-05
12270.0 6.7178e-05
12290.0 6.7398e-05
12310.0 6.7888e-05
12330.0 6.8669e-05
12350.0 6.9737e-05
12370.0 7.103e-05
12390.0 7.2563e-05
12410.0 7.4372e-05
12430.0 7.6256e-05
12450.0 7.8221e-05
12470.0 8.0296e-05
12490.0 8.2375e-05
12510.0 8.4341e-05
12530.0 8.6279e-05
12550.0 8.8142e-05
12570.0 8.9819e-05
12590.0 9.1333e-05
12610.0 9.2725e-05
12630.0 9.3935e-05
12650.0 9.4937e-05
12670.0 9.5797e-05
12690.0 9.6504e-05
12710.0 9.7053e-05
12730.0 9.747e-05
12750.0 9.7752e-05
12770.0 9.791e-05
12790.0 9.7965e-05
12810.0 9.7903e-05
12830.0 9.7715e-05
12850.0 9.7449e-05
12870.0 9.7086e-05
12890.0 9.6585e-05
12910.0 9.5984e-05
12930.0 9.5309e-05
12950.0 9.4479e-05
12970.0 9.3502e-05
12990.0 9.2478e-05
13010.0 9.1347e-05
13030.0 9.0062e-05
13050.0 8.871e-05
13070.0 8.735e-05
13090.0 8.5863e-05
13110.0 8.4323e-05
13130.0 8.2836e-05
13150.0 8.1364e-05
13170.0 7.9853e-05
13190.0 7.8486e-05
13210.0 7.7274e-05
13230.0 7.6149e-05
13250.0 7.5177e-05
13270.0 7.4424e-05
13290.0 7.3833e-05
13310.0 7.3402e-05
13330.0 7.3168e-05
13350.0 7.3092e-05
13370.0 7.3135e-05
13390.0 7.3276e-05
13410.0 7.3471e-05
13430.0 7.3677e-05
13450.0 7.3856e-05
13470.0 7.3969e-05
13490.0 7.3994e-05
13510.0 7.3887e-05
13530.0 7.3642e-05
13550.0 7.3277e-05
13570.0 7.2775e-05
13590.0 7.2132e-05
13610.0 7.1413e-05
13630.0 7.0646e-05
13650.0 6.9793e-05
13670.0 6.8923e-05
13690.0 6.8086e-05
13710.0 6.7254e-05
13730.0 6.6416e-05
13750.0 6.5675e-05
13770.0 6.4985e-05
13790.0 6.4318e-05
13810.0 6.3698e-05
13830.0 6.3136e-05
13850.0 6.2578e-05
13870.0 6.2024e-05
13890.0 6.1493e-05
13910.0 6.0963e-05
13930.0 6.0405e-05
13950.0 5.9841e-05
13970.0 5.9297e-05
13990.0 5.8734e-05
14010.0 5.8166e-05
14030.0 5.7628e-05
14050.0 5.7114e-05
14070.0 5.6606e-05
14090.0 5.6151e-05
14110.0 5.5751e-05
14130.0 5.5394e-05
14150.0 5.5088e-05
14170.0 5.485e-05
14190.0 5.4666e-05
14210.0 5.4538e-05
14230.0 5.4468e-05
14250.0 5.4451e-05
14270.0 5.4493e-05
14290.0 5.4596e-05
14310.0 5.4739e-05
14330.0 5.4929e-05
14350.0 5.5174e-05
14370.0 5.5449e-05
14390.0 5.5738e-05
14410.0 5.6065e-05
14430.0 5.6405e-05
14450.0 5.673e-05
14470.0 5.7049e-05
14490.0 5.7377e-05
14510.0 5.7668e-05
14530.0 5.7927e-05
14550.0 5.8183e-05
14570.0 5.8431e-05
14590.0 5.8658e-05
14610.0 5.89e-05
14630.0 5.9182e-05
14650.0 5.9485e-05
14670.0 5.9828e-05
14690.0 6.0254e-05
14710.0 6.077e-05
14730.0 6.1325e-05
14750.0 6.1985e-05
14770.0 6.2763e-05
14790.0 6.3607e-05
14810.0 6.4505e-05
14830.0 6.5554e-05
14850.0 6.6645e-05
14870.0 6.7723e-05
14890.0 6.8832e-05
14910.0 6.9952e-05
14930.0 7.0953e-05
14950.0 7.1819e-05
14970.0 7.2577e-05
14990.0 7.3129e-05
15010.0 7.3455e-05
15030.0 7.3595e-05
15050.0 7.3564e-05
15070.0 7.3371e-05
15090.0 7.308e-05
15110.0 7.2719e-05
15130.0 7.2316e-05
15150.0 7.1895e-05
15170.0 7.1457e-05
15190.0 7.1013e-05
15210.0 7.057e-05
15230.0 7.0128e-05
15250.0 6.9681e-05
15270.0 6.9236e-05
15290.0 6.8797e-05
15310.0 6.8355e-05
15330.0 6.7912e-05
15350.0 6.7474e-05
15370.0 6.7038e-05
15390.0 6.6595e-05
15410.0 6.6158e-05
15430.0 6.5725e-05
15450.0 6.5291e-05
15470.0 6.4855e-05
15490.0 6.4427e-05
15510.0 6.3999e-05
15530.0 6.3569e-05
15550.0 6.3143e-05
15570.0 6.2723e-05
15590.0 6.2298e-05
15610.0 6.1874e-05
15630.0 6.1458e-05
15650.0 6.1043e-05
15670.0 6.0627e-05
15690.0 6.0215e-05
15710.0 5.9809e-05
15730.0 5.9399e-05
15750.0 5.8992e-05
15770.0 5.8591e-05
15790.0 5.8192e-05
15810.0 5.7789e-05
15830.0 5.7394e-05
15850.0 5.7004e-05
15870.0 5.6612e-05
15890.0 5.6222e-05
15910.0 5.584e-05
15930.0 5.5458e-05
15950.0 5.5074e-05
15970.0 5.4697e-05
15990.0 5.4324e-05
16010.0 5.395e-05
16030.0 5.3577e-05
16050.0 5.3214e-05
16070.0 5.2851e-05
16090.0 5.2487e-05
16110.0 5.213e-05
16130.0 5.1777e-05
16150.0 5.142e-05
16170.0 5.1069e-05
16190.0 5.0724e-05
16210.0 5.0379e-05
16230.0 5.0035e-05
16250.0 4.9697e-05
16270.0 4.9364e-05
16290.0 4.9028e-05
16310.0 4.8697e-05
16330.0 4.8372e-05
16350.0 4.8047e-05
16370.0 4.772e-05
16390.0 4.7403e-05
16410.0 4.7088e-05
16430.0 4.6772e-05
16450.0 4.6461e-05
16470.0 4.6156e-05
16490.0 4.585e-05
16510.0 4.5544e-05
16530.0 4.5246e-05
16550.0 4.495e-05
16570.0 4.4652e-05
16590.0 4.4359e-05
16610.0 4.4073e-05
16630.0 4.3786e-05
16650.0 4.3501e-05
16670.0 4.3221e-05
16690.0 4.2945e-05
16710.0 4.2665e-05
16730.0 4.2391e-05
16750.0 4.2122e-05
16770.0 4.1853e-05
16790.0 4.1584e-05
16810.0 4.1323e-05
16830.0 4.1064e-05
16850.0 4.0804e-05
16870.0 4.0548e-05
16890.0 4.0297e-05
16910.0 4.0044e-05
16930.0 3.9792e-05
16950.0 3.9548e-05
16970.0 3.9305e-05
16990.0 3.9061e-05
17010.0 3.8822e-05
17030.0 3.8588e-05
17050.0 3.8351e-05
17070.0 3.8117e-05
17090.0 3.7889e-05
17110.0 3.7661e-05
17130.0 3.7431e-05
17150.0 3.7208e-05
17170.0 3.6989e-05
17190.0 3.6768e-05
17210.0 3.6549e-05
17230.0 3.6337e-05
17250.0 3.6124e-05
17270.0 3.5909e-05
17290.0 3.57e-05
17310.0 3.5495e-05
17330.0 3.5287e-05
17350.0 3.5082e-05
17370.0 3.4883e-05
17390.0 3.4684e-05
17410.0 3.4484e-05
17430.0 3.4289e-05
17450.0 3.4098e-05
17470.0 3.3902e-05
17490.0 3.371e-05
17510.0 3.3524e-05
17530.0 3.3337e-05
17550.0 3.3149e-05
17570.0 3.2967e-05
17590.0 3.2788e-05
17610.0 3.2606e-05
17630.0 3.2426e-05
17650.0 3.2252e-05
17670.0 3.2077e-05
17690.0 3.1898e-05
17710.0 3.1729e-05
17730.0 3.156e-05
17750.0 3.1389e-05
17770.0 3.1221e-05
17790.0 3.1059e-05
17810.0 3.0893e-05
17830.0 3.0728e-05
17850.0 3.0568e-05
17870.0 3.0409e-05
17890.0 3.0248e-05
17910.0 3.0089e-05
17930.0 2.9937e-05
17950.0 2.9782e-05
17970.0 2.9627e-05
17990.0 2.9477e-05
18010.0 2.9329e-05
18030.0 2.9176e-05
18050.0 2.9028e-05
18070.0 2.8883e-05
18090.0 2.8737e-05
18110.0 2.8591e-05
18130.0 2.845e-05
18150.0 2.831e-05
18170.0 2.8167e-05
18190.0 2.8028e-05
18210.0 2.7893e-05
18230.0 2.7754e-05
18250.0 2.7615e-05
18270.0 2.7483e-05
18290.0 2.735e-05
18310.0 2.7216e-05
18330.0 2.7085e-05
18350.0 2.6958e-05
18370.0 2.6827e-05
18390.0 2.6697e-05
18410.0 2.6572e-05
18430.0 2.6446e-05
18450.0 2.6318e-05
18470.0 2.6194e-05
18490.0 2.6074e-05
18510.0 2.595e-05
18530.0 2.5828e-05
18550.0 2.5711e-05
18570.0 2.5592e-05
18590.0 2.547e-05
18610.0 2.5354e-05
18630.0 2.5239e-05
18650.0 2.5121e-05
18670.0 2.5005e-05
18690.0 2.4894e-05
18710.0 2.4781e-05
18730.0 2.4667e-05
18750.0 2.4557e-05
18770.0 2.4449e-05
18790.0 2.4336e-05
18810.0 2.4226e-05
18830.0 2.412e-05
18850.0 2.4012e-05
18870.0 2.3904e-05
18890.0 2.38e-05
18910.0 2.3697e-05
18930.0 2.359e-05
18950.0 2.3486e-05
18970.0 2.3386e-05
18990.0 2.3283e-05
19010.0 2.3178e-05
19030.0 2.3079e-05
19050.0 2.2981e-05
19070.0 2.288e-05
19090.0 2.2781e-05
19110.0 2.2686e-05
19130.0 2.2587e-05
19150.0 2.2489e-05
19170.0 2.2394e-05
19190.0 2.2299e-05
19210.0 2.2202e-05
19230.0 2.2107e-05
19250.0 2.2017e-05
19270.0 2.1923e-05
19290.0 2.1829e-05
19310.0 2.1739e-05
19330.0 2.1649e-05
19350.0 2.1555e-05
19370.0 2.1465e-05
19390.0 2.1377e-05
19410.0 2.1287e-05
19430.0 2.1196e-05
19450.0 2.1111e-05
19470.0 2.1024e-05
19490.0 2.0935e-05
19510.0 2.0849e-05
19530.0 2.0765e-05
19550.0 2.0678e-05
19570.0 2.059e-05
19590.0 2.0508e-05
19610.0 2.0424e-05
19630.0 2.0338e-05
19650.0 2.0256e-05
19670.0 2.0176e-05
19690.0 2.0091e-05
19710.0 2.0008e-05
19730.0 1.9928e-05
19750.0 1.9847e-05
19770.0 1.9763e-05
19790.0 1.9684e-05
19810.0 1.9606e-05
19830.0 1.9524e-05
19850.0 1.9443e-05
19870.0 1.9363e-05
19890.0 1.9277e-05
19910.0 1.9181e-05
19930.0 1.9076e-05
19950.0 1.8955e-05
19970.0 1.8803e-05
19990.0 1.8618e-05
20010.0 1.8408e-05
20030.0 1.8154e-05
20050.0 1.7859e-05
20070.0 1.7546e-05
20090.0 1.7215e-05
20110.0 1.6848e-05
20130.0 1.6488e-05
20150.0 1.6141e-05
20170.0 1.579e-05
20190.0 1.5444e-05
20210.0 1.5126e-05
20230.0 1.4824e-05
20250.0 1.4528e-05
20270.0 1.4261e-05
20290.0 1.4024e-05
20310.0 1.3805e-05
20330.0 1.3609e-05
20350.0 1.3456e-05
20370.0 1.3331e-05
20390.0 1.3234e-05
20410.0 1.3173e-05
20430.0 1.3146e-05
20450.0 1.315e-05
20470.0 1.319e-05
20490.0 1.3261e-05
20510.0 1.3363e-05
20530.0 1.3498e-05
20550.0 1.3659e-05
20570.0 1.3837e-05
20590.0 1.4042e-05
20610.0 1.4266e-05
20630.0 1.4494e-05
20650.0 1.4732e-05
20670.0 1.4985e-05
20690.0 1.5227e-05
20710.0 1.5459e-05
20730.0 1.5688e-05
20750.0 1.5904e-05
20770.0 1.6094e-05
20790.0 1.6271e-05
20810.0 1.6431e-05
20830.0 1.6566e-05
20850.0 1.6679e-05
20870.0 1.6776e-05
20890.0 1.6853e-05
20910.0 1.691e-05
20930.0 1.6953e-05
20950.0 1.6983e-05
20970.0 1.6999e-05
20990.0 1.7005e-05
21010.0 1.7e-05
21030.0 1.6985e-05
21050.0 1.6961e-05
21070.0 1.6928e-05
21090.0 1.6883e-05
21110.0 1.6832e-05
21130.0 1.6774e-05
21150.0 1.6706e-05
21170.0 1.6632e-05
21190.0 1.6556e-05
21210.0 1.6473e-05
21230.0 1.6386e-05
21250.0 1.6302e-05
21270.0 1.622e-05
21290.0 1.6139e-05
21310.0 1.6063e-05
21330.0 1.5998e-05
21350.0 1.5939e-05
21370.0 1.5888e-05
21390.0 1.585e-05
21410.0 1.5822e-05
21430.0 1.5806e-05
21450.0 1.5802e-05
21470.0 1.5811e-05
21490.0 1.5832e-05
21510.0 1.5864e-05
21530.0 1.5906e-05
21550.0 1.5959e-05
21570.0 1.6023e-05
21590.0 1.6095e-05
21610.0 1.6174e-05
21630.0 1.6264e-05
21650.0 1.6364e-05
21670.0 1.6465e-05
21690.0 1.6574e-05
21710.0 1.6694e-05
21730.0 1.6818e-05
21750.0 1.6946e-05
21770.0 1.7087e-05
21790.0 1.7235e-05
21810.0 1.7385e-05
21830.0 1.7543e-05
21850.0 1.7714e-05
21870.0 1.7886e-05
21890.0 1.8059e-05
21910.0 1.8245e-05
21930.0 1.8435e-05
21950.0 1.8622e-05
21970.0 1.8813e-05
21990.0 1.9014e-05
22010.0 1.9205e-05
22030.0 1.939e-05
22050.0 1.9575e-05
22070.0 1.9754e-05
22090.0 1.9915e-05
22110.0 2.0068e-05
22130.0 2.0209e-05
22150.0 2.033e-05
22170.0 2.043e-05
22190.0 2.0513e-05
22210.0 2.057e-05
22230.0 2.0601e-05
22250.0 2.0606e-05
22270.0 2.0582e-05
22290.0 2.0531e-05
22310.0 2.0453e-05
22330.0 2.0341e-05
22350.0 2.0201e-05
22370.0 2.0039e-05
22390.0 1.9848e-05
22410.0 1.9623e-05
22430.0 1.9387e-05
22450.0 1.9133e-05
22470.0 1.8851e-05
22490.0 1.8557e-05
22510.0 1.8261e-05
22530.0 1.7944e-05
22550.0 1.7613e-05
22570.0 1.7294e-05
22590.0 1.6974e-05
22610.0 1.6645e-05
22630.0 1.6324e-05
