#lamb flux
1010.0 8.8712e-06
1030.0 9.9079e-06
1050.0 1.1077e-05
1070.0 1.2399e-05
1090.0 1.3916e-05
1110.0 1.5485e-05
1130.0 1.7078e-05
1150.0 1.8764e-05
1170.0 2.0523e-05
1190.0 2.2221e-05
1210.0 2.397e-05
1230.0 2.5808e-05
1250.0 2.7646e-05
1270.0 2.9477e-05
1290.0 3.1443e-05
1310.0 3.3456e-05
1330.0 3.5444e-05
1350.0 3.75e-05
1370.0 3.966e-05
1390.0 4.1825e-05
1410.0 4.3984e-05
1430.0 4.6266e-05
1450.0 4.8591e-05
1470.0 5.0893e-05
1490.0 5.325e-05
1510.0 5.5741e-05
1530.0 5.8156e-05
1550.0 6.0565e-05
1570.0 6.3051e-05
1590.0 6.5546e-05
1610.0 6.7949e-05
1630.0 7.0397e-05
1650.0 7.2877e-05
1670.0 7.5261e-05
1690.0 7.758e-05
1710.0 7.9924e-05
1730.0 8.2219e-05
1750.0 8.432e-05
1770.0 8.6397e-05
1790.0 8.8422e-05
1810.0 9.0281e-05
1830.0 9.1994e-05
1850.0 9.3709e-05
1870.0 9.5243e-05
1890.0 9.6577e-05
1910.0 9.781e-05
1930.0 9.8945e-05
1950.0 9.9839e-05
1970.0 0.00010056
1990.0 0.00010119
2010.0 0.00010164
2030.0 0.00010186
2050.0 0.00010198
2070.0 0.00010198
2090.0 0.00010172
2110.0 0.0001013
2130.0 0.00010077
2150.0 0.00010007
2170.0 9.9155e-05
2190.0 9.8159e-05
2210.0 9.704e-05
2230.0 9.5736e-05
2250.0 9.4313e-05
2270.0 9.2841e-05
2290.0 9.1226e-05
2310.0 8.9471e-05
2330.0 8.7677e-05
2350.0 8.582e-05
2370.0 8.3852e-05
2390.0 8.1838e-05
2410.0 7.981e-05
2430.0 7.7677e-05
2450.0 7.5445e-05
2470.0 7.3134e-05
2490.0 7.0716e-05
2510.0 6.819e-05
2530.0 6.5691e-05
2550.0 6.3416e-05
2570.0 6.1633e-05
2590.0 6.0633e-05
2610.0 6.098e-05
2630.0 6.2877e-05
2650.0 6.6074e-05
2670.0 7.0594e-05
2690.0 7.6181e-05
2710.0 8.1716e-05
2730.0 8.6651e-05
2750.0 9.1123e-05
2770.0 9.4449e-05
2790.0 9.6481e-05
2810.0 9.7679e-05
2830.0 9.836e-05
2850.0 9.835e-05
2870.0 9.8081e-05
2890.0 9.7813e-05
2910.0 9.7521e-05
2930.0 9.7167e-05
2950.0 9.6989e-05
2970.0 9.6972e-05
2990.0 9.7006e-05
3010.0 0.00022158
3030.0 0.00022249
3050.0 0.00022364
3070.0 0.00022461
3090.0 0.00022532
3110.0 0.00022488
3130.0 0.00022246
3150.0 0.00021772
3170.0 0.00020928
3190.0 0.00020971
3210.0 0.0002473
3230.0 0.0003182
3250.0 0.00046495
3270.0 0.00052488
3290.0 0.00066694
3310.0 0.0006242
3330.0 0.0006597
3350.0 0.00072183
3370.0 0.00080183
3390.0 0.00089493
3410.0 0.00099341
3430.0 0.0011067
3450.0 0.0012308
3470.0 0.0013627
3490.0 0.0014853
3510.0 0.0016091
3530.0 0.0017459
3550.0 0.0017969
3570.0 0.0017766
3590.0 0.0018711
3610.0 0.0018496
3630.0 0.0021423
3650.0 0.0023731
3670.0 0.0025183
3690.0 0.0023564
3710.0 0.0019657
3730.0 0.0018031
3750.0 0.0016115
3770.0 0.001445
3790.0 0.0012835
3810.0 0.0012343
3830.0 0.0013948
3850.0 0.00063157
3870.0 0.0013555
3890.0 0.0017241
3910.0 0.0018737
3930.0 0.0021572
3950.0 0.0023302
3970.0 0.0026792
3990.0 0.0032872
4010.0 0.0024661
4030.0 0.0020277
4050.0 0.0018025
4070.0 0.0018545
4090.0 0.0026121
4110.0 0.0024973
4130.0 0.0025746
4150.0 0.0024445
4170.0 0.0023357
4190.0 0.0021874
4210.0 0.0030543
4230.0 0.0032535
4250.0 0.0034226
4270.0 0.0032188
4290.0 0.003345
4310.0 0.0037688
4330.0 0.0043503
4350.0 0.0043151
4370.0 0.0041315
4390.0 0.0035268
4410.0 0.0031937
4430.0 0.0026263
4450.0 0.0023105
4470.0 0.0025721
4490.0 0.0031565
4510.0 0.0033251
4530.0 0.0036098
4550.0 0.0039199
4570.0 0.0051908
4590.0 0.007467
4610.0 0.0091545
4630.0 0.0091313
4650.0 0.008882
4670.0 0.0096779
4690.0 0.010729
4710.0 0.0088398
4730.0 0.0066221
4750.0 0.0053024
4770.0 0.0049029
4790.0 0.0048691
4810.0 0.0046367
4830.0 0.0050653
4850.0 0.0058652
4870.0 0.0066917
4890.0 0.0065885
4910.0 0.0057945
4930.0 0.0061034
4950.0 0.0077686
4970.0 0.0098209
4990.0 0.010254
5010.0 0.0092519
5030.0 0.0074582
5050.0 0.0055121
5070.0 0.0044186
5090.0 0.0040096
5110.0 0.0039382
5130.0 0.0040644
5150.0 0.0040437
5170.0 0.0040576
5190.0 0.003897
5210.0 0.0038837
5230.0 0.0042422
5250.0 0.0046414
5270.0 0.0055875
5290.0 0.0065398
5310.0 0.006664
5330.0 0.0069476
5350.0 0.0077928
5370.0 0.0084785
5390.0 0.0078383
5410.0 0.0068774
5430.0 0.0065551
5450.0 0.0075398
5470.0 0.0096012
5490.0 0.011677
5510.0 0.012666
5530.0 0.012651
5550.0 0.012034
5570.0 0.011563
5590.0 0.011265
5610.0 0.011341
5630.0 0.011377
5650.0 0.011352
5670.0 0.011433
5690.0 0.010957
5710.0 0.0094084
5730.0 0.008138
5750.0 0.0073003
5770.0 0.0074436
5790.0 0.007938
5810.0 0.0084967
5830.0 0.0087933
5850.0 0.0085532
5870.0 0.0079399
5890.0 0.0072284
5910.0 0.0073322
5930.0 0.0079664
5950.0 0.0078169
5970.0 0.0070856
5990.0 0.0061072
6010.0 0.0049899
6030.0 0.0043262
6050.0 0.0044595
6070.0 0.0049698
6090.0 0.0051113
6110.0 0.0045445
6130.0 0.0043755
6150.0 0.0048906
6170.0 0.0058006
6190.0 0.0067148
6210.0 0.0069358
6230.0 0.006688
6250.0 0.0061494
6270.0 0.0052827
6290.0 0.0044084
6310.0 0.0037843
6330.0 0.0035818
6350.0 0.0037425
6370.0 0.0038212
6390.0 0.0040507
6410.0 0.0047934
6430.0 0.0060876
6450.0 0.0074004
6470.0 0.0079782
6490.0 0.0078029
6510.0 0.0078551
6530.0 0.008195
6550.0 0.0081695
6570.0 0.0083857
6590.0 0.0084464
6610.0 0.0084655
6630.0 0.0085547
6650.0 0.0083314
6670.0 0.0077625
6690.0 0.0068703
6710.0 0.0061119
6730.0 0.006108
6750.0 0.0065163
6770.0 0.0068501
6790.0 0.0070049
6810.0 0.0070251
6830.0 0.0068871
6850.0 0.0066987
6870.0 0.0063021
6890.0 0.006085
6910.0 0.0057586
6930.0 0.0057752
6950.0 0.0062257
6970.0 0.0065307
6990.0 0.0067731
7010.0 0.0067195
7030.0 0.0062715
7050.0 0.0054914
7070.0 0.0046004
7090.0 0.0040142
7110.0 0.0039344
7130.0 0.0041245
7150.0 0.0039626
7170.0 0.0036596
7190.0 0.0037347
7210.0 0.0041447
7230.0 0.0048093
7250.0 0.0053283
7270.0 0.0054627
7290.0 0.0050367
7310.0 0.0045258
7330.0 0.0042062
7350.0 0.0041741
7370.0 0.0042882
7390.0 0.0044521
7410.0 0.0048021
7430.0 0.0055511
7450.0 0.0064179
7470.0 0.0070843
7490.0 0.0072607
7510.0 0.0069376
7530.0 0.0057499
7550.0 0.0049003
7570.0 0.0041783
7590.0 0.003795
7610.0 0.0039643
7630.0 0.0044874
7650.0 0.0050805
7670.0 0.0056264
7690.0 0.0059865
7710.0 0.0063596
7730.0 0.0067558
7750.0 0.0071163
7770.0 0.0071406
7790.0 0.0071292
7810.0 0.0072856
7830.0 0.0074869
7850.0 0.0073347
7870.0 0.0070393
7890.0 0.0067507
7910.0 0.0063367
7930.0 0.0061755
7950.0 0.0059535
7970.0 0.0058565
7990.0 0.0057775
8010.0 0.0059815
8030.0 0.0060137
8050.0 0.0061076
8070.0 0.0060371
8090.0 0.0060138
8110.0 0.0057548
8130.0 0.0057137
8150.0 0.0055862
8170.0 0.0054238
8190.0 0.0053315
8210.0 0.0053549
8230.0 0.0051278
8250.0 0.0048886
8270.0 0.0043049
8290.0 0.0034562
8310.0 0.0025885
8330.0 0.0019586
8350.0 0.0017725
8370.0 0.002077
8390.0 0.0024985
8410.0 0.0027533
8430.0 0.0029283
8450.0 0.0030709
8470.0 0.0032324
8490.0 0.0035917
8510.0 0.0040618
8530.0 0.0047199
8550.0 0.0054574
8570.0 0.006122
8590.0 0.0066517
8610.0 0.0070328
8630.0 0.0072084
8650.0 0.0072098
8670.0 0.0072087
8690.0 0.0074759
8710.0 0.0077608
8730.0 0.0080068
8750.0 0.0079215
8770.0 0.0079779
8790.0 0.0078884
8810.0 0.0073605
8830.0 0.007061
8850.0 0.0066053
8870.0 0.0062411
8890.0 0.0060373
8910.0 0.0061106
8930.0 0.0057801
8950.0 0.005495
8970.0 0.0053782
8990.0 0.0052848
9010.0 0.0051122
9030.0 0.0049928
9050.0 0.0049588
9070.0 0.0049427
9090.0 0.0049279
9110.0 0.0049137
9130.0 0.0048987
9150.0 0.0048837
9170.0 0.0048646
9190.0 0.0048444
9210.0 0.0048596
9230.0 0.0048348
9250.0 0.0048147
9270.0 0.0047963
9290.0 0.0047792
9310.0 0.0047625
9330.0 0.0047462
9350.0 0.0047306
9370.0 0.0047149
9390.0 0.004699
9410.0 0.0046832
9430.0 0.0046672
9450.0 0.0046477
9470.0 0.0046292
9490.0 0.0046167
9510.0 0.0046023
9530.0 0.0045872
9550.0 0.004572
9570.0 0.0045565
9590.0 0.0045407
9610.0 0.0045248
9630.0 0.004509
9650.0 0.004493
9670.0 0.004477
9690.0 0.004461
9710.0 0.0044451
9730.0 0.004429
9750.0 0.004413
9770.0 0.004397
9790.0 0.004381
9810.0 0.0043649
9830.0 0.0043488
9850.0 0.0043328
9870.0 0.0043166
9890.0 0.0043004
9910.0 0.0042842
9930.0 0.0042674
9950.0 0.0042178
9970.0 0.0042113
9990.0 0.004203
10010.0 0.0041934
10030.0 0.0041811
10050.0 0.0041665
10070.0 0.0041509
10090.0 0.0041361
10110.0 0.0041192
10130.0 0.0041035
10150.0 0.0040872
10170.0 0.0040698
10190.0 0.0040513
10210.0 0.0040342
10230.0 0.0040175
10250.0 0.0039995
10270.0 0.0039816
10290.0 0.0039648
10310.0 0.0039467
10330.0 0.0039276
10350.0 0.0039098
10370.0 0.0038919
10390.0 0.0038728
10410.0 0.0038537
10430.0 0.0038359
10450.0 0.0038167
10470.0 0.0037967
10490.0 0.0037777
10510.0 0.0037586
10530.0 0.0037374
10550.0 0.0037169
10570.0 0.0036974
10590.0 0.0036767
10610.0 0.0036551
10630.0 0.0036347
10650.0 0.0036139
10670.0 0.0035913
10690.0 0.0035692
10710.0 0.0035478
10730.0 0.003525
10750.0 0.0035009
10770.0 0.0034788
10790.0 0.0034559
10810.0 0.0034315
10830.0 0.0034076
10850.0 0.0033844
10870.0 0.0033587
10890.0 0.0033323
10910.0 0.0033066
10930.0 0.0032793
10950.0 0.003249
10970.0 0.0032174
10990.0 0.0031851
11010.0 0.0030823
11030.0 0.0030419
11050.0 0.003003
11070.0 0.0029637
11090.0 0.0029221
11110.0 0.0028844
11130.0 0.0028485
11150.0 0.0028123
11170.0 0.002777
11190.0 0.0027448
11210.0 0.0027122
11230.0 0.0026789
11250.0 0.0026474
11270.0 0.0026169
11290.0 0.0025849
11310.0 0.0025531
11330.0 0.0025239
11350.0 0.0024938
11370.0 0.0024629
11390.0 0.0024333
11410.0 0.002404
11430.0 0.0023722
11450.0 0.0023405
11470.0 0.0023091
11490.0 0.0022758
11510.0 0.0022399
11530.0 0.0022044
11550.0 0.0021679
11570.0 0.0021282
11590.0 0.0020875
11610.0 0.0020471
11630.0 0.0020038
11650.0 0.0019583
11670.0 0.0019146
11690.0 0.0018706
11710.0 0.001825
11730.0 0.0017803
11750.0 0.0017383
11770.0 0.0016954
11790.0 0.0016533
11810.0 0.0016141
11830.0 0.0015766
11850.0 0.0015387
11870.0 0.0015038
11890.0 0.0014719
11910.0 0.0014405
11930.0 0.0014103
11950.0 0.0013829
11970.0 0.0013566
11990.0 0.0013303
12010.0 0.0013061
12030.0 0.0012836
12050.0 0.0012615
12070.0 0.0012401
12090.0 0.0012214
12110.0 0.0012036
12130.0 0.0011866
12150.0 0.0011717
12170.0 0.0011588
12190.0 0.0011468
12210.0 0.001137
12230.0 0.0011297
12250.0 0.0011244
12270.0 0.0011213
12290.0 0.0011208
12310.0 0.0011227
12330.0 0.0011272
12350.0 0.0011344
12370.0 0.0011439
12390.0 0.0011559
12410.0 0.0011711
12430.0 0.0011878
12450.0 0.0012063
12470.0 0.0012272
12490.0 0.0012494
12510.0 0.0012716
12530.0 0.001295
12550.0 0.0013191
12570.0 0.0013419
12590.0 0.0013636
12610.0 0.0013846
12630.0 0.0014035
12650.0 0.0014192
12670.0 0.0014328
12690.0 0.0014434
12710.0 0.0014507
12730.0 0.0014548
12750.0 0.0014557
12770.0 0.0014534
12790.0 0.0014483
12810.0 0.0014404
12830.0 0.0014298
12850.0 0.0014178
12870.0 0.0014044
12890.0 0.0013892
12910.0 0.0013733
12930.0 0.0013575
12950.0 0.0013409
12970.0 0.0013239
12990.0 0.0013079
13010.0 0.001292
13030.0 0.0012759
13050.0 0.0012603
13070.0 0.0012455
13090.0 0.0012302
13110.0 0.0012148
13130.0 0.0012001
13150.0 0.0011854
13170.0 0.00117
13190.0 0.0011554
13210.0 0.0011416
13230.0 0.0011279
13250.0 0.0011148
13270.0 0.0011034
13290.0 0.001093
13310.0 0.0010839
13330.0 0.0010768
13350.0 0.0010718
13370.0 0.0010686
13390.0 0.0010673
13410.0 0.0010677
13430.0 0.0010695
13450.0 0.0010723
13470.0 0.0010754
13490.0 0.0010783
13510.0 0.0010807
13530.0 0.0010817
13550.0 0.001081
13570.0 0.0010782
13590.0 0.001073
13610.0 0.0010655
13630.0 0.001056
13650.0 0.0010439
13670.0 0.0010301
13690.0 0.0010152
13710.0 0.00099919
13730.0 0.00098175
13750.0 0.00096514
13770.0 0.00094893
13790.0 0.00093284
13810.0 0.00091777
13830.0 0.00090438
13850.0 0.00089178
13870.0 0.0008803
13890.0 0.00087049
13910.0 0.00086197
13930.0 0.00085433
13950.0 0.00084783
13970.0 0.00084251
13990.0 0.0008378
14010.0 0.00083366
14030.0 0.00083011
14050.0 0.00082691
14070.0 0.00082378
14090.0 0.00082078
14110.0 0.00081778
14130.0 0.00081456
14150.0 0.00081101
14170.0 0.00080727
14190.0 0.0008032
14210.0 0.00079864
14230.0 0.00079381
14250.0 0.00078886
14270.0 0.00078357
14290.0 0.00077816
14310.0 0.00077305
14330.0 0.00076812
14350.0 0.00076339
14370.0 0.00075917
14390.0 0.00075553
14410.0 0.00075231
14430.0 0.00074963
14450.0 0.00074754
14470.0 0.00074589
14490.0 0.00074465
14510.0 0.00074378
14530.0 0.0007432
14550.0 0.00074288
14570.0 0.00074281
14590.0 0.00074296
14610.0 0.00074341
14630.0 0.00074429
14650.0 0.00074554
14670.0 0.00074725
14690.0 0.00074965
14710.0 0.0007528
14730.0 0.00075642
14750.0 0.00076089
14770.0 0.00076637
14790.0 0.00077258
14810.0 0.0007795
14830.0 0.00078797
14850.0 0.00079741
14870.0 0.00080748
14890.0 0.00081866
14910.0 0.00083092
14930.0 0.00084302
14950.0 0.00085461
14970.0 0.00086587
14990.0 0.00087548
15010.0 0.00088289
15030.0 0.00088838
15050.0 0.000892
15070.0 0.00089357
15090.0 0.00089389
15110.0 0.00089334
15130.0 0.00089219
15150.0 0.00089074
15170.0 0.00088912
15190.0 0.0008874
15210.0 0.00088567
15230.0 0.00088392
15250.0 0.00088215
15270.0 0.00088037
15290.0 0.00087862
15310.0 0.00087685
15330.0 0.00087507
15350.0 0.00087331
15370.0 0.00087154
15390.0 0.00086974
15410.0 0.00086796
15430.0 0.00086619
15450.0 0.0008644
15470.0 0.00086259
15490.0 0.00086082
15510.0 0.00085903
15530.0 0.00085723
15550.0 0.00085543
15570.0 0.00085365
15590.0 0.00085184
15610.0 0.00085003
15630.0 0.00084823
15650.0 0.00084644
15670.0 0.00084462
15690.0 0.00084281
15710.0 0.00084102
15730.0 0.0008392
15750.0 0.00083738
15770.0 0.00083558
15790.0 0.00083377
15810.0 0.00083194
15830.0 0.00083012
15850.0 0.00082832
15870.0 0.00082649
15890.0 0.00082467
15910.0 0.00082286
15930.0 0.00082104
15950.0 0.0008192
15970.0 0.00081738
15990.0 0.00081557
16010.0 0.00081373
16030.0 0.00081189
16050.0 0.00081008
16070.0 0.00080825
16090.0 0.00080641
16110.0 0.00080459
16130.0 0.00080277
16150.0 0.00080092
16170.0 0.00079908
16190.0 0.00079726
16210.0 0.00079542
16230.0 0.00079358
16250.0 0.00079175
16270.0 0.00078992
16290.0 0.00078807
16310.0 0.00078623
16330.0 0.0007844
16350.0 0.00078256
16370.0 0.0007807
16390.0 0.00077887
16410.0 0.00077703
16430.0 0.00077518
16450.0 0.00077333
16470.0 0.00077151
16490.0 0.00076966
16510.0 0.0007678
16530.0 0.00076596
16550.0 0.00076412
16570.0 0.00076226
16590.0 0.0007604
16610.0 0.00075856
16630.0 0.00075671
16650.0 0.00075485
16670.0 0.00075301
16690.0 0.00075116
16710.0 0.00074929
16730.0 0.00074744
16750.0 0.00074559
16770.0 0.00074373
16790.0 0.00074186
16810.0 0.00074001
16830.0 0.00073816
16850.0 0.00073629
16870.0 0.00073443
16890.0 0.00073258
16910.0 0.00073071
16930.0 0.00072883
16950.0 0.00072698
16970.0 0.00072512
16990.0 0.00072324
17010.0 0.00072138
17030.0 0.00071952
17050.0 0.00071765
17070.0 0.00071577
17090.0 0.00071391
17110.0 0.00071204
17130.0 0.00071015
17150.0 0.00070828
17170.0 0.00070641
17190.0 0.00070453
17210.0 0.00070265
17230.0 0.00070079
17250.0 0.00069891
17270.0 0.00069702
17290.0 0.00069514
17310.0 0.00069327
17330.0 0.00069138
17350.0 0.00068948
17370.0 0.00068761
17390.0 0.00068573
17410.0 0.00068384
17430.0 0.00068196
17450.0 0.00068008
17470.0 0.00067818
17490.0 0.00067628
17510.0 0.0006744
17530.0 0.00067251
17550.0 0.00067061
17570.0 0.00066873
17590.0 0.00066685
17610.0 0.00066495
17630.0 0.00066305
17650.0 0.00066117
17670.0 0.00065927
17690.0 0.00065736
17710.0 0.00065547
17730.0 0.00065359
17750.0 0.00065168
17770.0 0.00064979
17790.0 0.0006479
17810.0 0.000646
17830.0 0.0006441
17850.0 0.00064221
17870.0 0.00064032
17890.0 0.00063841
17910.0 0.00063651
17930.0 0.00063463
17950.0 0.00063273
17970.0 0.00063083
17990.0 0.00062894
18010.0 0.00062705
18030.0 0.00062514
18050.0 0.00062325
18070.0 0.00062136
18090.0 0.00061947
18110.0 0.00061757
18130.0 0.00061568
18150.0 0.0006138
18170.0 0.0006119
18190.0 0.00061002
18210.0 0.00060814
18230.0 0.00060625
18250.0 0.00060435
18270.0 0.00060248
18290.0 0.0006006
18310.0 0.00059871
18330.0 0.00059683
18350.0 0.00059497
18370.0 0.00059308
18390.0 0.00059121
18410.0 0.00058934
18430.0 0.00058747
18450.0 0.00058559
18470.0 0.00058373
18490.0 0.00058188
18510.0 0.00058001
18530.0 0.00057815
18550.0 0.00057631
18570.0 0.00057445
18590.0 0.00057259
18610.0 0.00057075
18630.0 0.00056891
18650.0 0.00056706
18670.0 0.00056521
18690.0 0.00056339
18710.0 0.00056156
18730.0 0.00055972
18750.0 0.0005579
18770.0 0.00055609
18790.0 0.00055426
18810.0 0.00055244
18830.0 0.00055064
18850.0 0.00054883
18870.0 0.00054702
18890.0 0.00054523
18910.0 0.00054344
18930.0 0.00054164
18950.0 0.00053985
18970.0 0.00053808
18990.0 0.0005363
19010.0 0.00053451
19030.0 0.00053275
19050.0 0.00053099
19070.0 0.00052922
19090.0 0.00052747
19110.0 0.00052573
19130.0 0.00052398
19150.0 0.00052223
19170.0 0.0005205
19190.0 0.00051877
19210.0 0.00051704
19230.0 0.00051532
19250.0 0.00051362
19270.0 0.00051191
19290.0 0.0005102
19310.0 0.00050851
19330.0 0.00050682
19350.0 0.00050512
19370.0 0.00050344
19390.0 0.00050177
19410.0 0.0005001
19430.0 0.00049843
19450.0 0.00049678
19470.0 0.00049514
19490.0 0.00049348
19510.0 0.00049185
19530.0 0.00049022
19550.0 0.00048859
19570.0 0.00048696
19590.0 0.00048535
19610.0 0.00048375
19630.0 0.00048214
19650.0 0.00048055
19670.0 0.00047897
19690.0 0.00047738
19710.0 0.0004758
19730.0 0.00047424
19750.0 0.00047268
19770.0 0.00047111
19790.0 0.00046956
19810.0 0.00046802
19830.0 0.00046647
19850.0 0.00046491
19870.0 0.00046332
19890.0 0.00046164
19910.0 0.00045978
19930.0 0.00045769
19950.0 0.0004552
19970.0 0.00045209
19990.0 0.00044825
20010.0 0.00044377
20030.0 0.00043837
20050.0 0.00043209
20070.0 0.00042534
20090.0 0.00041818
20110.0 0.0004103
20130.0 0.00040248
20150.0 0.00039488
20170.0 0.00038718
20190.0 0.00037953
20210.0 0.00037236
20230.0 0.0003654
20250.0 0.00035846
20270.0 0.00035191
20290.0 0.00034578
20310.0 0.00033977
20330.0 0.00033388
20350.0 0.00032859
20370.0 0.0003235
20390.0 0.00031854
20410.0 0.00031393
20430.0 0.0003097
20450.0 0.00030555
20470.0 0.00030168
20490.0 0.00029821
20510.0 0.000295
20530.0 0.000292
20550.0 0.00028937
20570.0 0.00028709
20590.0 0.00028504
20610.0 0.0002833
20630.0 0.00028188
20650.0 0.00028073
20670.0 0.00027983
20690.0 0.0002792
20710.0 0.00027879
20730.0 0.0002786
20750.0 0.0002786
20770.0 0.00027872
20790.0 0.00027897
20810.0 0.00027935
20830.0 0.00027977
20850.0 0.00028019
20870.0 0.00028067
20890.0 0.00028111
20910.0 0.00028143
20930.0 0.00028169
20950.0 0.00028183
20970.0 0.00028181
20990.0 0.00028163
21010.0 0.00028128
21030.0 0.00028072
21050.0 0.00027997
21070.0 0.00027902
21090.0 0.00027783
21110.0 0.00027648
21130.0 0.00027495
21150.0 0.00027322
21170.0 0.00027134
21190.0 0.00026938
21210.0 0.00026723
21230.0 0.00026495
21250.0 0.00026266
21270.0 0.00026031
21290.0 0.00025786
21310.0 0.00025541
21330.0 0.00025304
21350.0 0.00025063
21370.0 0.00024823
21390.0 0.00024595
21410.0 0.00024376
21430.0 0.00024157
21450.0 0.00023957
21470.0 0.00023774
21490.0 0.00023604
21510.0 0.00023449
21530.0 0.00023317
21550.0 0.00023204
21570.0 0.0002311
21590.0 0.0002304
21610.0 0.00022992
21630.0 0.00022966
21650.0 0.00022964
21670.0 0.00022981
21690.0 0.00023018
21710.0 0.00023078
21730.0 0.00023152
21750.0 0.00023236
21770.0 0.00023341
21790.0 0.00023456
21810.0 0.00023572
21830.0 0.00023694
21850.0 0.00023824
21870.0 0.00023947
21890.0 0.00024062
21910.0 0.00024178
21930.0 0.00024285
21950.0 0.00024378
21970.0 0.00024462
21990.0 0.00024538
22010.0 0.00024595
22030.0 0.00024638
22050.0 0.00024669
22070.0 0.00024686
22090.0 0.00024686
22110.0 0.00024674
22130.0 0.00024649
22150.0 0.0002461
22170.0 0.0002456
22190.0 0.00024496
22210.0 0.00024419
22230.0 0.00024333
22250.0 0.00024235
22270.0 0.00024123
22290.0 0.00024003
22310.0 0.00023873
22330.0 0.00023726
22350.0 0.00023568
22370.0 0.00023403
22390.0 0.00023222
22410.0 0.00023024
22430.0 0.00022821
22450.0 0.00022606
22470.0 0.00022373
22490.0 0.00022129
22510.0 0.00021882
22530.0 0.00021616
22550.0 0.00021335
22570.0 0.00021057
22590.0 0.00020772
22610.0 0.00020475
22630.0 0.00020178
22650.0 0.00019892
22670.0 0.00019598
22690.0 0.00019306
22710.0 0.00019029
22730.0 0.00018759
22750.0 0.00018487
22770.0 0.00018235
22790.0 0.00018002
22810.0 0.00017776
22830.0 0.00017563
22850.0 0.00017371
22870.0 0.0001719
22890.0 0.00017018
22910.0 0.00016863
22930.0 0.00016723
22950.0 0.0001659
22970.0 0.00016466
22990.0 0.00016356
23010.0 0.00016252
23030.0 0.00016153
23050.0 0.00016059
23070.0 0.00015971
23090.0 0.00015881
23110.0 0.00015793
23130.0 0.00015706
23150.0 0.00015617
23170.0 0.00015524
