#lamb flux
1010.0 7.7148e-06
1030.0 8.0408e-06
1050.0 8.4191e-06
1070.0 8.8461e-06
1090.0 9.3316e-06
1110.0 9.8319e-06
1130.0 1.0338e-05
1150.0 1.0871e-05
1170.0 1.1425e-05
1190.0 1.1954e-05
1210.0 1.2494e-05
1230.0 1.3056e-05
1250.0 1.3612e-05
1270.0 1.4157e-05
1290.0 1.4737e-05
1310.0 1.5323e-05
1330.0 1.5892e-05
1350.0 1.6474e-05
1370.0 1.7079e-05
1390.0 1.7677e-05
1410.0 1.8267e-05
1430.0 1.8887e-05
1450.0 1.9515e-05
1470.0 2.0132e-05
1490.0 2.0761e-05
1510.0 2.1428e-05
1530.0 2.2071e-05
1550.0 2.2712e-05
1570.0 2.3378e-05
1590.0 2.4048e-05
1610.0 2.4696e-05
1630.0 2.5364e-05
1650.0 2.6048e-05
1670.0 2.6712e-05
1690.0 2.7367e-05
1710.0 2.8041e-05
1730.0 2.8714e-05
1750.0 2.9345e-05
1770.0 2.9983e-05
1790.0 3.0625e-05
1810.0 3.1235e-05
1830.0 3.1822e-05
1850.0 3.243e-05
1870.0 3.3007e-05
1890.0 3.3547e-05
1910.0 3.408e-05
1930.0 3.461e-05
1950.0 3.5093e-05
1970.0 3.5552e-05
1990.0 3.6013e-05
2010.0 3.6447e-05
2030.0 3.6844e-05
2050.0 3.7243e-05
2070.0 3.7643e-05
2090.0 3.8e-05
2110.0 3.8348e-05
2130.0 3.8707e-05
2150.0 3.9054e-05
2170.0 3.9381e-05
2190.0 3.9733e-05
2210.0 4.0099e-05
2230.0 4.0459e-05
2250.0 4.0836e-05
2270.0 4.126e-05
2290.0 4.1696e-05
2310.0 4.2144e-05
2330.0 4.2647e-05
2350.0 4.3198e-05
2370.0 4.3775e-05
2390.0 4.4411e-05
2410.0 4.5129e-05
2430.0 4.5891e-05
2450.0 4.6705e-05
2470.0 4.7594e-05
2490.0 4.8552e-05
2510.0 4.9558e-05
2530.0 5.0709e-05
2550.0 5.2167e-05
2570.0 5.4154e-05
2590.0 5.697e-05
2610.0 6.131e-05
2630.0 6.7556e-05
2650.0 7.5652e-05
2670.0 8.5877e-05
2690.0 9.8179e-05
2710.0 0.00011135
2730.0 0.00012471
2750.0 0.00013851
2770.0 0.00015181
2790.0 0.00016428
2810.0 0.00017654
2830.0 0.00018913
2850.0 0.00020145
2870.0 0.00021412
2890.0 0.00022765
2910.0 0.00024181
2930.0 0.00025626
2950.0 0.00027169
2970.0 0.00028802
2990.0 0.00030466
3010.0 0.00055794
3030.0 0.00058907
3050.0 0.00062035
3070.0 0.00064946
3090.0 0.00067528
3110.0 0.00069233
3130.0 0.0006939
3150.0 0.00067249
3170.0 0.00061304
3190.0 0.00051317
3210.0 0.00037372
3230.0 0.00021519
3250.0 0.00037726
3270.0 0.00016307
3290.0 0.0005462
3310.0 0.0001087
3330.0 0.0001109
3350.0 0.00017003
3370.0 0.00023737
3390.0 0.00030879
3410.0 0.0003799
3430.0 0.00045418
3450.0 0.00052822
3470.0 0.00059608
3490.0 0.00064055
3510.0 0.00079736
3530.0 0.0010921
3550.0 0.0010948
3570.0 0.00092965
3590.0 0.0013322
3610.0 0.00085874
3630.0 0.0013844
3650.0 0.0015715
3670.0 0.0020202
3690.0 0.0019317
3710.0 0.0013785
3730.0 0.0018414
3750.0 0.0019148
3770.0 0.0019727
3790.0 0.0017846
3810.0 0.0015685
3830.0 0.0021686
3850.0 0.0023329
3870.0 0.0028972
3890.0 0.0027344
3910.0 0.0024825
3930.0 0.0026872
3950.0 0.0030245
3970.0 0.0039444
3990.0 0.0031763
4010.0 0.0020988
4030.0 0.0028267
4050.0 0.0030917
4070.0 0.0035132
4090.0 0.0030833
4110.0 0.0021086
4130.0 0.0027798
4150.0 0.0025552
4170.0 0.0027078
4190.0 0.0026945
4210.0 0.0033465
4230.0 0.0023406
4250.0 0.0027968
4270.0 0.0027938
4290.0 0.0028246
4310.0 0.0034405
4330.0 0.0035283
4350.0 0.0027361
4370.0 0.0023693
4390.0 0.0028746
4410.0 0.0029283
4430.0 0.0022629
4450.0 0.0022767
4470.0 0.0026384
4490.0 0.001969
4510.0 0.0023966
4530.0 0.0025881
4550.0 0.0034603
4570.0 0.0050669
4590.0 0.0049208
4610.0 0.0032927
4630.0 0.0052347
4650.0 0.0074906
4670.0 0.0069291
4690.0 0.0041174
4710.0 0.0044487
4730.0 0.0057477
4750.0 0.0051377
4770.0 0.003891
4790.0 0.0026905
4810.0 0.0038834
4830.0 0.0044793
4850.0 0.0040037
4870.0 0.0014518
4890.0 0.0042978
4910.0 0.0059588
4930.0 0.00639
4950.0 0.006303
4970.0 0.0039796
4990.0 0.0045656
5010.0 0.0053053
5030.0 0.0057641
5050.0 0.0056812
5070.0 0.0041101
5090.0 0.0033737
5110.0 0.0031556
5130.0 0.0028145
5150.0 0.003217
5170.0 0.0028045
5190.0 0.0034731
5210.0 0.0034722
5230.0 0.003806
5250.0 0.0048349
5270.0 0.0041149
5290.0 0.0040487
5310.0 0.0059189
5330.0 0.0068679
5350.0 0.0058229
5370.0 0.0050976
5390.0 0.0057823
5410.0 0.0072403
5430.0 0.007985
5450.0 0.0085792
5470.0 0.0086662
5490.0 0.0085196
5510.0 0.0099634
5530.0 0.010351
5550.0 0.011093
5570.0 0.01178
5590.0 0.011702
5610.0 0.011118
5630.0 0.010758
5650.0 0.010984
5670.0 0.010896
5690.0 0.0093435
5710.0 0.0089804
5730.0 0.0090967
5750.0 0.0099314
5770.0 0.0086526
5790.0 0.0079544
5810.0 0.0080854
5830.0 0.0085103
5850.0 0.0078088
5870.0 0.0078733
5890.0 0.0093616
5910.0 0.0089564
5930.0 0.0073904
5950.0 0.0064474
5970.0 0.0069036
5990.0 0.0063862
6010.0 0.0060298
6030.0 0.0061723
6050.0 0.0057906
6070.0 0.0043827
6090.0 0.0039423
6110.0 0.0050723
6130.0 0.0058434
6150.0 0.0061496
6170.0 0.0059993
6190.0 0.0056512
6210.0 0.0055376
6230.0 0.006399
6250.0 0.005915
6270.0 0.0054096
6290.0 0.0049706
6310.0 0.0047017
6330.0 0.0044739
6350.0 0.0039217
6370.0 0.0038964
6390.0 0.0046177
6410.0 0.0057351
6430.0 0.0065857
6450.0 0.0062105
6470.0 0.006094
6490.0 0.0075876
6510.0 0.0086806
6530.0 0.008224
6550.0 0.0079162
6570.0 0.0080381
6590.0 0.0077877
6610.0 0.0084594
6630.0 0.0079655
6650.0 0.0070595
6670.0 0.0063632
6690.0 0.0061618
6710.0 0.0075246
6730.0 0.0069198
6750.0 0.0059577
6770.0 0.005373
6790.0 0.005631
6810.0 0.0062277
6830.0 0.0060789
6850.0 0.0055332
6870.0 0.0057145
6890.0 0.0056108
6910.0 0.0052971
6930.0 0.0060684
6950.0 0.0056306
6970.0 0.0052811
6990.0 0.0052754
7010.0 0.0050495
7030.0 0.0047556
7050.0 0.0045871
7070.0 0.0049556
7090.0 0.0046958
7110.0 0.0040748
7130.0 0.0033002
7150.0 0.0029958
7170.0 0.0039668
7190.0 0.0043228
7210.0 0.0041815
7230.0 0.0043518
7250.0 0.0040566
7270.0 0.0038643
7290.0 0.004271
7310.0 0.0047578
7330.0 0.0046695
7350.0 0.0043838
7370.0 0.0041914
7390.0 0.0043912
7410.0 0.0051181
7430.0 0.0055973
7450.0 0.0059604
7470.0 0.0058609
7490.0 0.0060183
7510.0 0.0057728
7530.0 0.0057688
7550.0 0.0056864
7570.0 0.0050056
7590.0 0.0049517
7610.0 0.0048064
7630.0 0.0044734
7650.0 0.0049045
7670.0 0.0053487
7690.0 0.0058017
7710.0 0.0064603
7730.0 0.0068767
7750.0 0.0071798
7770.0 0.0071741
7790.0 0.0078198
7810.0 0.0080638
7830.0 0.0074543
7850.0 0.0075004
7870.0 0.0071377
7890.0 0.0074445
7910.0 0.0070528
7930.0 0.0070974
7950.0 0.0062983
7970.0 0.0064541
7990.0 0.0061854
8010.0 0.0061786
8030.0 0.0061488
8050.0 0.0064395
8070.0 0.0062078
8090.0 0.0062194
8110.0 0.0060581
8130.0 0.0060507
8150.0 0.0057899
8170.0 0.0056264
8190.0 0.0055533
8210.0 0.005591
8230.0 0.0049769
8250.0 0.0045552
8270.0 0.0039941
8290.0 0.0033177
8310.0 0.0028285
8330.0 0.0022546
8350.0 0.0018972
8370.0 0.001956
8390.0 0.0020033
8410.0 0.0021254
8430.0 0.0025868
8450.0 0.0027647
8470.0 0.0029189
8490.0 0.0033399
8510.0 0.0036395
8530.0 0.0041906
8550.0 0.0049506
8570.0 0.0055156
8590.0 0.0059157
8610.0 0.0064505
8630.0 0.0070813
8650.0 0.0071913
8670.0 0.0072613
8690.0 0.0075359
8710.0 0.007455
8730.0 0.0073791
8750.0 0.0069831
8770.0 0.0069832
8790.0 0.0068828
8810.0 0.0063505
8830.0 0.0063344
8850.0 0.0059452
8870.0 0.0057089
8890.0 0.0052273
8910.0 0.0055881
8930.0 0.0051166
8950.0 0.0050241
8970.0 0.005031
8990.0 0.0048632
9010.0 0.0049394
9030.0 0.0047426
9050.0 0.0047166
9070.0 0.0047106
9090.0 0.0047039
9110.0 0.0046987
9130.0 0.0046904
9150.0 0.0046805
9170.0 0.0046596
9190.0 0.0046213
9210.0 0.0046735
9230.0 0.0046486
9250.0 0.0046307
9270.0 0.0046138
9290.0 0.0045974
9310.0 0.0045816
9330.0 0.0045657
9350.0 0.0045496
9370.0 0.0045331
9390.0 0.0045163
9410.0 0.004499
9430.0 0.0044812
9450.0 0.0044629
9470.0 0.0044443
9490.0 0.0044258
9510.0 0.0044068
9530.0 0.0043876
9550.0 0.0043681
9570.0 0.0043482
9590.0 0.0043282
9610.0 0.004308
9630.0 0.0042876
9650.0 0.0042671
9670.0 0.0042465
9690.0 0.0042258
9710.0 0.0042051
9730.0 0.0041843
9750.0 0.0041635
9770.0 0.0041426
9790.0 0.0041219
9810.0 0.0041011
9830.0 0.0040804
9850.0 0.0040599
9870.0 0.0040393
9890.0 0.0040189
9910.0 0.0039986
9930.0 0.0039783
9950.0 0.0039464
9970.0 0.0039301
9990.0 0.0039133
10010.0 0.0038964
10030.0 0.0038787
10050.0 0.0038596
10070.0 0.0038368
10090.0 0.0038203
10110.0 0.0038032
10130.0 0.0037862
10150.0 0.0037693
10170.0 0.003752
10190.0 0.0037343
10210.0 0.0037176
10230.0 0.0037012
10250.0 0.0036845
10270.0 0.0036683
10290.0 0.0036528
10310.0 0.0036371
10330.0 0.0036213
10350.0 0.0036065
10370.0 0.0035921
10390.0 0.0035774
10410.0 0.0035631
10430.0 0.0035498
10450.0 0.0035363
10470.0 0.0035228
10490.0 0.0035102
10510.0 0.0034979
10530.0 0.0034851
10550.0 0.003473
10570.0 0.0034617
10590.0 0.0034503
10610.0 0.0034389
10630.0 0.0034284
10650.0 0.0034181
10670.0 0.0034076
10690.0 0.0033976
10710.0 0.0033883
10730.0 0.0033788
10750.0 0.0033693
10770.0 0.0033608
10790.0 0.0033524
10810.0 0.0033439
10830.0 0.0033357
10850.0 0.0033281
10870.0 0.0033194
10890.0 0.0033101
10910.0 0.0032997
10930.0 0.0032866
10950.0 0.0032685
10970.0 0.0032451
10990.0 0.0032158
11010.0 0.0031578
11030.0 0.0031133
11050.0 0.0030619
11070.0 0.003003
11090.0 0.0029349
11110.0 0.0028671
11130.0 0.0027989
11150.0 0.0027284
11170.0 0.0026587
11190.0 0.0025941
11210.0 0.00253
11230.0 0.002467
11250.0 0.0024091
11270.0 0.0023553
11290.0 0.0023027
11310.0 0.0022538
11330.0 0.0022112
11350.0 0.0021708
11370.0 0.0021326
11390.0 0.0020986
11410.0 0.0020674
11430.0 0.002036
11450.0 0.0020066
11470.0 0.001979
11490.0 0.0019508
11510.0 0.0019212
11530.0 0.0018922
11550.0 0.0018625
11570.0 0.0018298
11590.0 0.0017958
11610.0 0.0017616
11630.0 0.0017241
11650.0 0.0016839
11670.0 0.0016446
11690.0 0.0016044
11710.0 0.001562
11730.0 0.00152
11750.0 0.0014803
11770.0 0.0014397
11790.0 0.0013996
11810.0 0.0013626
11830.0 0.0013274
11850.0 0.001292
11870.0 0.00126
11890.0 0.0012313
11910.0 0.0012035
11930.0 0.0011772
11950.0 0.0011538
11970.0 0.0011317
11990.0 0.0011098
12010.0 0.0010898
12030.0 0.0010713
12050.0 0.001053
12070.0 0.0010351
12090.0 0.0010194
12110.0 0.0010041
12130.0 0.00098924
12150.0 0.00097591
12170.0 0.00096437
12190.0 0.00095335
12210.0 0.00094442
12230.0 0.00093816
12250.0 0.0009342
12270.0 0.00093287
12290.0 0.00093489
12310.0 0.00094014
12330.0 0.00094882
12350.0 0.00096105
12370.0 0.0009763
12390.0 0.0009947
12410.0 0.0010167
12430.0 0.0010403
12450.0 0.0010652
12470.0 0.001092
12490.0 0.0011194
12510.0 0.0011459
12530.0 0.0011724
12550.0 0.0011984
12570.0 0.0012224
12590.0 0.0012447
12610.0 0.0012656
12630.0 0.0012843
12650.0 0.0013004
12670.0 0.0013147
12690.0 0.0013269
12710.0 0.0013371
12730.0 0.0013453
12750.0 0.0013517
12770.0 0.0013563
12790.0 0.0013593
12810.0 0.0013607
12830.0 0.0013602
12850.0 0.0013586
12870.0 0.0013556
12890.0 0.0013508
12910.0 0.0013446
12930.0 0.0013376
12950.0 0.0013286
12970.0 0.0013178
12990.0 0.0013064
13010.0 0.0012938
13030.0 0.0012792
13050.0 0.0012638
13070.0 0.0012481
13090.0 0.0012307
13110.0 0.0012125
13130.0 0.0011946
13150.0 0.0011766
13170.0 0.0011578
13190.0 0.0011405
13210.0 0.001125
13230.0 0.0011102
13250.0 0.0010973
13270.0 0.0010871
13290.0 0.0010789
13310.0 0.0010728
13330.0 0.0010695
13350.0 0.0010684
13370.0 0.0010691
13390.0 0.0010713
13410.0 0.0010745
13430.0 0.001078
13450.0 0.0010814
13470.0 0.0010839
13490.0 0.0010853
13510.0 0.0010848
13530.0 0.0010822
13550.0 0.0010776
13570.0 0.0010709
13590.0 0.0010618
13610.0 0.0010512
13630.0 0.0010396
13650.0 0.0010263
13670.0 0.0010124
13690.0 0.00099867
13710.0 0.00098476
13730.0 0.00097045
13750.0 0.00095755
13770.0 0.0009454
13790.0 0.00093355
13810.0 0.00092251
13830.0 0.00091261
13850.0 0.00090292
13870.0 0.00089354
13890.0 0.00088486
13910.0 0.00087651
13930.0 0.00086802
13950.0 0.00085973
13970.0 0.00085198
13990.0 0.00084415
14010.0 0.00083639
14030.0 0.00082914
14050.0 0.00082226
14070.0 0.00081547
14090.0 0.00080937
14110.0 0.00080397
14130.0 0.00079909
14150.0 0.00079483
14170.0 0.00079141
14190.0 0.00078866
14210.0 0.00078659
14230.0 0.00078527
14250.0 0.00078461
14270.0 0.00078469
14290.0 0.00078553
14310.0 0.00078689
14330.0 0.00078883
14350.0 0.00079144
14370.0 0.00079441
14390.0 0.00079751
14410.0 0.00080103
14430.0 0.00080466
14450.0 0.00080803
14470.0 0.00081124
14490.0 0.00081442
14510.0 0.00081705
14530.0 0.00081917
14550.0 0.0008211
14570.0 0.00082277
14590.0 0.00082409
14610.0 0.00082544
14630.0 0.0008271
14650.0 0.00082895
14670.0 0.00083124
14690.0 0.00083444
14710.0 0.0008387
14730.0 0.00084358
14750.0 0.00084977
14770.0 0.00085753
14790.0 0.00086632
14810.0 0.00087602
14830.0 0.00088787
14850.0 0.00090063
14870.0 0.00091361
14890.0 0.00092737
14910.0 0.00094167
14930.0 0.00095477
14950.0 0.00096634
14970.0 0.00097671
14990.0 0.00098443
15010.0 0.00098911
15030.0 0.00099126
15050.0 0.00099104
15070.0 0.00098851
15090.0 0.00098456
15110.0 0.00097962
15130.0 0.00097405
15150.0 0.00096819
15170.0 0.00096212
15190.0 0.00095594
15210.0 0.00094977
15230.0 0.0009436
15250.0 0.00093737
15270.0 0.00093116
15290.0 0.00092502
15310.0 0.00091884
15330.0 0.00091265
15350.0 0.00090651
15370.0 0.0009004
15390.0 0.00089421
15410.0 0.00088808
15430.0 0.00088201
15450.0 0.00087591
15470.0 0.0008698
15490.0 0.00086378
15510.0 0.00085778
15530.0 0.00085174
15550.0 0.00084575
15570.0 0.00083983
15590.0 0.00083386
15610.0 0.00082791
15630.0 0.00082205
15650.0 0.0008162
15670.0 0.00081034
15690.0 0.00080454
15710.0 0.00079881
15730.0 0.00079305
15750.0 0.00078731
15770.0 0.00078166
15790.0 0.00077602
15810.0 0.00077036
15830.0 0.00076478
15850.0 0.00075927
15870.0 0.00075375
15890.0 0.00074826
15910.0 0.00074286
15930.0 0.00073746
15950.0 0.00073206
15970.0 0.00072674
15990.0 0.00072148
16010.0 0.00071621
16030.0 0.00071097
16050.0 0.00070584
16070.0 0.00070071
16090.0 0.0006956
16110.0 0.00069055
16130.0 0.00068558
16150.0 0.00068056
16170.0 0.00067562
16190.0 0.00067075
16210.0 0.00066591
16230.0 0.00066107
16250.0 0.00065632
16270.0 0.00065162
16290.0 0.00064692
16310.0 0.00064226
16330.0 0.00063769
16350.0 0.00063313
16370.0 0.00062856
16390.0 0.00062411
16410.0 0.0006197
16430.0 0.00061528
16450.0 0.00061092
16470.0 0.00060665
16490.0 0.00060237
16510.0 0.00059812
16530.0 0.00059395
16550.0 0.00058982
16570.0 0.00058568
16590.0 0.00058161
16610.0 0.00057762
16630.0 0.00057363
16650.0 0.00056967
16670.0 0.00056579
16690.0 0.00056195
16710.0 0.00055809
16730.0 0.0005543
16750.0 0.00055058
16770.0 0.00054687
16790.0 0.00054318
16810.0 0.00053958
16830.0 0.00053601
16850.0 0.00053244
16870.0 0.00052893
16890.0 0.00052548
16910.0 0.00052203
16930.0 0.00051859
16950.0 0.00051526
16970.0 0.00051194
16990.0 0.00050863
17010.0 0.00050538
17030.0 0.0005022
17050.0 0.000499
17070.0 0.00049584
17090.0 0.00049275
17110.0 0.00048968
17130.0 0.0004866
17150.0 0.00048359
17170.0 0.00048065
17190.0 0.0004777
17210.0 0.00047478
17230.0 0.00047193
17250.0 0.00046909
17270.0 0.00046625
17290.0 0.00046348
17310.0 0.00046076
17330.0 0.00045802
17350.0 0.00045532
17370.0 0.0004527
17390.0 0.00045008
17410.0 0.00044747
17430.0 0.00044492
17450.0 0.00044241
17470.0 0.00043988
17490.0 0.00043739
17510.0 0.00043497
17530.0 0.00043255
17550.0 0.00043014
17570.0 0.00042779
17590.0 0.00042548
17610.0 0.00042315
17630.0 0.00042087
17650.0 0.00041864
17670.0 0.00041641
17690.0 0.00041416
17710.0 0.00041201
17730.0 0.00040987
17750.0 0.00040773
17770.0 0.00040563
17790.0 0.00040358
17810.0 0.00040152
17830.0 0.00039947
17850.0 0.00039748
17870.0 0.00039551
17890.0 0.00039352
17910.0 0.00039158
17930.0 0.0003897
17950.0 0.0003878
17970.0 0.00038592
17990.0 0.00038409
18010.0 0.00038228
18030.0 0.00038044
18050.0 0.00037865
18070.0 0.00037691
18090.0 0.00037516
18110.0 0.00037341
18130.0 0.00037173
18150.0 0.00037006
18170.0 0.00036838
18190.0 0.00036673
18210.0 0.00036513
18230.0 0.0003635
18250.0 0.00036189
18270.0 0.00036034
18290.0 0.00035879
18310.0 0.00035724
18330.0 0.00035572
18350.0 0.00035425
18370.0 0.00035275
18390.0 0.00035127
18410.0 0.00034983
18430.0 0.0003484
18450.0 0.00034695
18470.0 0.00034555
18490.0 0.00034419
18510.0 0.0003428
18530.0 0.00034144
18550.0 0.00034012
18570.0 0.00033879
18590.0 0.00033745
18610.0 0.00033616
18630.0 0.00033489
18650.0 0.0003336
18670.0 0.00033233
18690.0 0.00033112
18710.0 0.00032989
18730.0 0.00032865
18750.0 0.00032746
18770.0 0.00032629
18790.0 0.00032508
18810.0 0.0003239
18830.0 0.00032277
18850.0 0.00032163
18870.0 0.00032048
18890.0 0.00031937
18910.0 0.00031828
18930.0 0.00031717
18950.0 0.00031608
18970.0 0.00031503
18990.0 0.00031396
19010.0 0.00031287
19030.0 0.00031185
19050.0 0.00031083
19070.0 0.00030979
19090.0 0.00030878
19110.0 0.00030781
19130.0 0.0003068
19150.0 0.0003058
19170.0 0.00030484
19190.0 0.00030388
19210.0 0.0003029
19230.0 0.00030195
19250.0 0.00030104
19270.0 0.0003001
19290.0 0.00029917
19310.0 0.00029828
19330.0 0.00029738
19350.0 0.00029645
19370.0 0.00029557
19390.0 0.0002947
19410.0 0.00029382
19430.0 0.00029294
19450.0 0.0002921
19470.0 0.00029126
19490.0 0.0002904
19510.0 0.00028956
19530.0 0.00028875
19550.0 0.00028791
19570.0 0.00028707
19590.0 0.00028628
19610.0 0.00028548
19630.0 0.00028466
19650.0 0.00028388
19670.0 0.00028312
19690.0 0.00028232
19710.0 0.00028153
19730.0 0.00028078
19750.0 0.00028002
19770.0 0.00027923
19790.0 0.00027848
19810.0 0.00027775
19830.0 0.00027699
19850.0 0.00027622
19870.0 0.00027547
19890.0 0.00027465
19910.0 0.00027371
19930.0 0.00027266
19950.0 0.0002714
19970.0 0.00026975
19990.0 0.00026768
20010.0 0.00026526
20030.0 0.00026227
20050.0 0.00025872
20070.0 0.00025487
20090.0 0.00025073
20110.0 0.00024607
20130.0 0.00024138
20150.0 0.00023678
20170.0 0.00023204
20190.0 0.00022727
20210.0 0.00022279
20230.0 0.00021846
20250.0 0.00021412
20270.0 0.00021013
20290.0 0.00020651
20310.0 0.00020309
20330.0 0.00019993
20350.0 0.00019737
20370.0 0.00019516
20390.0 0.00019332
20410.0 0.00019197
20430.0 0.00019109
20450.0 0.0001906
20470.0 0.00019059
20490.0 0.00019101
20510.0 0.00019183
20530.0 0.00019308
20550.0 0.00019467
20570.0 0.00019649
20590.0 0.00019866
20610.0 0.00020105
20630.0 0.00020352
20650.0 0.00020613
20670.0 0.00020892
20690.0 0.0002116
20710.0 0.00021418
20730.0 0.00021673
20750.0 0.00021913
20770.0 0.00022125
20790.0 0.00022319
20810.0 0.00022492
20830.0 0.00022635
20850.0 0.00022748
20870.0 0.00022838
20890.0 0.00022899
20910.0 0.00022933
20930.0 0.00022943
20950.0 0.00022929
20970.0 0.00022895
20990.0 0.00022843
21010.0 0.00022771
21030.0 0.00022684
21050.0 0.00022587
21070.0 0.00022477
21090.0 0.00022351
21110.0 0.00022224
21130.0 0.00022092
21150.0 0.00021952
21170.0 0.0002181
21190.0 0.00021675
21210.0 0.00021536
21230.0 0.00021399
21250.0 0.00021276
21270.0 0.00021163
21290.0 0.00021058
21310.0 0.00020967
21330.0 0.00020897
21350.0 0.0002084
21370.0 0.00020801
21390.0 0.00020782
21410.0 0.00020781
21430.0 0.00020801
21450.0 0.0002084
21470.0 0.00020897
21490.0 0.00020972
21510.0 0.00021065
21530.0 0.00021169
21550.0 0.00021288
21570.0 0.00021423
21590.0 0.00021567
21610.0 0.00021716
21630.0 0.00021879
21650.0 0.00022054
21670.0 0.00022225
21690.0 0.00022403
21710.0 0.00022593
21730.0 0.00022783
21750.0 0.00022972
21770.0 0.00023176
21790.0 0.00023383
21810.0 0.00023587
21830.0 0.00023797
21850.0 0.00024018
21870.0 0.00024237
21890.0 0.00024452
21910.0 0.00024678
21930.0 0.00024905
21950.0 0.00025125
21970.0 0.00025346
21990.0 0.00025575
22010.0 0.00025789
22030.0 0.00025994
22050.0 0.00026195
22070.0 0.00026385
22090.0 0.00026552
22110.0 0.00026708
22130.0 0.00026846
22150.0 0.00026959
22170.0 0.00027047
22190.0 0.0002711
22210.0 0.00027142
22230.0 0.00027144
22250.0 0.00027114
22270.0 0.0002705
22290.0 0.00026954
22310.0 0.00026829
22330.0 0.00026662
22350.0 0.00026465
22370.0 0.00026245
22390.0 0.00025991
22410.0 0.000257
22430.0 0.00025399
22450.0 0.0002508
22470.0 0.0002473
22490.0 0.00024369
22510.0 0.00024009
22530.0 0.00023626
22550.0 0.00023231
22570.0 0.00022851
22590.0 0.00022474
22610.0 0.00022088
22630.0 0.00021715
22650.0 0.00021367
22670.0 0.00021018
22690.0 0.00020679
22710.0 0.00020366
22730.0 0.00020069
22750.0 0.00019772
22770.0 0.00019504
22790.0 0.0001926
22810.0 0.00019025
22830.0 0.00018805
22850.0 0.00018609
22870.0 0.00018426
22890.0 0.0001825
22910.0 0.00018094
22930.0 0.00017955
22950.0 0.00017825
22970.0 0.00017705
22990.0 0.00017606
23010.0 0.00017517
23030.0 0.00017438
23050.0 0.00017373
23070.0 0.00017322
23090.0 0.00017279
23110.0 0.00017248
23130.0 0.00017229
