#lamb flux
1010.0 5.3136e-07
1030.0 5.657e-07
1050.0 6.0538e-07
1070.0 6.501e-07
1090.0 7.0092e-07
1110.0 7.5318e-07
1130.0 8.0591e-07
1150.0 8.6129e-07
1170.0 9.1859e-07
1190.0 9.7316e-07
1210.0 1.0287e-06
1230.0 1.0862e-06
1250.0 1.1429e-06
1270.0 1.1982e-06
1290.0 1.2569e-06
1310.0 1.3158e-06
1330.0 1.3727e-06
1350.0 1.4306e-06
1370.0 1.4905e-06
1390.0 1.5495e-06
1410.0 1.6071e-06
1430.0 1.6675e-06
1450.0 1.7283e-06
1470.0 1.7876e-06
1490.0 1.8479e-06
1510.0 1.9116e-06
1530.0 1.9726e-06
1550.0 2.033e-06
1570.0 2.0957e-06
1590.0 2.1586e-06
1610.0 2.2191e-06
1630.0 2.2814e-06
1650.0 2.3452e-06
1670.0 2.4071e-06
1690.0 2.468e-06
1710.0 2.531e-06
1730.0 2.5939e-06
1750.0 2.6528e-06
1770.0 2.7129e-06
1790.0 2.7736e-06
1810.0 2.8315e-06
1830.0 2.8877e-06
1850.0 2.9464e-06
1870.0 3.0025e-06
1890.0 3.0555e-06
1910.0 3.1085e-06
1930.0 3.1615e-06
1950.0 3.2106e-06
1970.0 3.2577e-06
1990.0 3.3054e-06
2010.0 3.3508e-06
2030.0 3.3928e-06
2050.0 3.4351e-06
2070.0 3.4774e-06
2090.0 3.5152e-06
2110.0 3.5517e-06
2130.0 3.5887e-06
2150.0 3.6236e-06
2170.0 3.6553e-06
2190.0 3.6883e-06
2210.0 3.721e-06
2230.0 3.7511e-06
2250.0 3.7807e-06
2270.0 3.8125e-06
2290.0 3.8427e-06
2310.0 3.871e-06
2330.0 3.9013e-06
2350.0 3.9326e-06
2370.0 3.9626e-06
2390.0 3.994e-06
2410.0 4.0287e-06
2430.0 4.0632e-06
2450.0 4.0981e-06
2470.0 4.1369e-06
2490.0 4.1808e-06
2510.0 4.2309e-06
2530.0 4.3015e-06
2550.0 4.4161e-06
2570.0 4.6007e-06
2590.0 4.8868e-06
2610.0 5.3526e-06
2630.0 6.0237e-06
2650.0 6.8711e-06
2670.0 7.9086e-06
2690.0 9.1065e-06
2710.0 1.0313e-05
2730.0 1.1451e-05
2750.0 1.2541e-05
2770.0 1.3492e-05
2790.0 1.4289e-05
2810.0 1.5002e-05
2830.0 1.5684e-05
2850.0 1.6305e-05
2870.0 1.6924e-05
2890.0 1.758e-05
2910.0 1.826e-05
2930.0 1.8944e-05
2950.0 1.9676e-05
2970.0 2.0452e-05
2990.0 2.1234e-05
3010.0 7.5136e-05
3030.0 7.8005e-05
3050.0 8.086e-05
3070.0 8.3435e-05
3090.0 8.5617e-05
3110.0 8.6805e-05
3130.0 8.629e-05
3150.0 8.3309e-05
3170.0 7.6322e-05
3190.0 6.5194e-05
3210.0 5.0136e-05
3230.0 3.3239e-05
3250.0 5.0957e-05
3270.0 3.1867e-05
3290.0 7.3354e-05
3310.0 2.8917e-05
3330.0 2.8626e-05
3350.0 3.4284e-05
3370.0 4.1051e-05
3390.0 4.8451e-05
3410.0 5.5865e-05
3430.0 6.3679e-05
3450.0 7.1566e-05
3470.0 7.8843e-05
3490.0 8.3937e-05
3510.0 0.00010079
3530.0 0.00013052
3550.0 0.00012714
3570.0 0.00010484
3590.0 0.00014192
3610.0 9.1847e-05
3630.0 0.00014957
3650.0 0.00017422
3670.0 0.00022153
3690.0 0.00020568
3710.0 0.00013773
3730.0 0.00017776
3750.0 0.00018201
3770.0 0.00019535
3790.0 0.00018956
3810.0 0.00019514
3830.0 0.0003067
3850.0 0.00037647
3870.0 0.00046425
3890.0 0.00045117
3910.0 0.00040324
3930.0 0.00040843
3950.0 0.00044118
3970.0 0.00048645
3990.0 0.00031191
4010.0 0.00016884
4030.0 0.00030024
4050.0 0.00039714
4070.0 0.00042486
4090.0 0.00029717
4110.0 0.0001881
4130.0 0.00030936
4150.0 0.00031584
4170.0 0.000294
4190.0 0.00026677
4210.0 0.00037759
4230.0 0.00027818
4250.0 0.00030139
4270.0 0.00029942
4290.0 0.00028368
4310.0 0.00036365
4330.0 0.00039295
4350.0 0.0003274
4370.0 0.00027639
4390.0 0.00033686
4410.0 0.000345
4430.0 0.00025366
4450.0 0.00023016
4470.0 0.00028445
4490.0 0.00021763
4510.0 0.00030377
4530.0 0.00031571
4550.0 0.00037467
4570.0 0.0005282
4590.0 0.00052235
4610.0 0.00041416
4630.0 0.00066098
4650.0 0.00088084
4670.0 0.00084001
4690.0 0.00059401
4710.0 0.0006299
4730.0 0.00071351
4750.0 0.00058779
4770.0 0.00044935
4790.0 0.00030327
4810.0 0.00041395
4830.0 0.00048752
4850.0 0.00042853
4870.0 0.00018015
4890.0 0.00048628
4910.0 0.00063753
4930.0 0.00069291
4950.0 0.00071399
4970.0 0.00050153
4990.0 0.00058365
5010.0 0.0006779
5030.0 0.00072663
5050.0 0.00067835
5070.0 0.00047969
5090.0 0.00038919
5110.0 0.00037624
5130.0 0.00035748
5150.0 0.00037235
5170.0 0.00033226
5190.0 0.00039613
5210.0 0.00040222
5230.0 0.0004455
5250.0 0.00052894
5270.0 0.0004385
5290.0 0.00045598
5310.0 0.00067015
5330.0 0.00077031
5350.0 0.00064644
5370.0 0.00058116
5390.0 0.00067422
5410.0 0.00080449
5430.0 0.00085693
5450.0 0.00090131
5470.0 0.00090727
5490.0 0.00093422
5510.0 0.0011181
5530.0 0.0011613
5550.0 0.001226
5570.0 0.0012871
5590.0 0.0012649
5610.0 0.0011841
5630.0 0.0011558
5650.0 0.0011952
5670.0 0.0011676
5690.0 0.00099952
5710.0 0.00098856
5730.0 0.00098993
5750.0 0.0010292
5770.0 0.00088631
5790.0 0.00084538
5810.0 0.00086595
5830.0 0.00093443
5850.0 0.00086986
5870.0 0.00087391
5890.0 0.001019
5910.0 0.00095054
5930.0 0.00078485
5950.0 0.00070889
5970.0 0.00077245
5990.0 0.00070129
6010.0 0.00064102
6030.0 0.00062861
6050.0 0.00057574
6070.0 0.00044611
6090.0 0.00042426
6110.0 0.00054428
6130.0 0.00061079
6150.0 0.00063088
6170.0 0.00061355
6190.0 0.00058518
6210.0 0.00061016
6230.0 0.00074044
6250.0 0.00068418
6270.0 0.00061514
6290.0 0.00055917
6310.0 0.00050647
6330.0 0.00046983
6350.0 0.00041992
6370.0 0.00042561
6390.0 0.00049524
6410.0 0.00061492
6430.0 0.00072687
6450.0 0.00072966
6470.0 0.0007378
6490.0 0.00090107
6510.0 0.0010345
6530.0 0.00098304
6550.0 0.00093274
6570.0 0.0009462
6590.0 0.00093256
6610.0 0.00098706
6630.0 0.00092045
6650.0 0.00079973
6670.0 0.00073773
6690.0 0.00073134
6710.0 0.00086567
6730.0 0.00077079
6750.0 0.00063399
6770.0 0.00057231
6790.0 0.00060802
6810.0 0.00069825
6830.0 0.00069499
6850.0 0.00062332
6870.0 0.0006456
6890.0 0.00064162
6910.0 0.000603
6930.0 0.00066947
6950.0 0.00062276
6970.0 0.00058014
6990.0 0.00057832
7010.0 0.00058256
7030.0 0.00056587
7050.0 0.00054183
7070.0 0.00058114
7090.0 0.00054127
7110.0 0.00045893
7130.0 0.00039419
7150.0 0.00038711
7170.0 0.00048876
7190.0 0.00051818
7210.0 0.00049133
7230.0 0.00051673
7250.0 0.00050188
7270.0 0.00048956
7290.0 0.00053034
7310.0 0.00058135
7330.0 0.00056641
7350.0 0.0005255
7370.0 0.00048613
7390.0 0.00048758
7410.0 0.00056022
7430.0 0.00063078
7450.0 0.00067159
7470.0 0.00068121
7490.0 0.00075778
7510.0 0.00074892
7530.0 0.00067836
7550.0 0.0006424
7570.0 0.00055536
7590.0 0.00052892
7610.0 0.00051106
7630.0 0.00047095
7650.0 0.00050611
7670.0 0.00056088
7690.0 0.00061084
7710.0 0.00069723
7730.0 0.00073155
7750.0 0.00076034
7770.0 0.00079061
7790.0 0.00085788
7810.0 0.0008645
7830.0 0.0007761
7850.0 0.0007795
7870.0 0.00075082
7890.0 0.000769
7910.0 0.00072451
7930.0 0.00071946
7950.0 0.00060434
7970.0 0.00060649
7990.0 0.00058629
8010.0 0.00063715
8030.0 0.0006346
8050.0 0.00067423
8070.0 0.00064695
8090.0 0.00064969
8110.0 0.00063968
8130.0 0.00063241
8150.0 0.0005938
8170.0 0.0005825
8190.0 0.00058092
8210.0 0.00058649
8230.0 0.00051294
8250.0 0.0004689
8270.0 0.00041434
8290.0 0.00035223
8310.0 0.00031023
8330.0 0.00024569
8350.0 0.00019889
8370.0 0.00019199
8390.0 0.0001861
8410.0 0.00019473
8430.0 0.00025043
8450.0 0.00027268
8470.0 0.00029343
8490.0 0.00034331
8510.0 0.00037353
8530.0 0.00042466
8550.0 0.00050224
8570.0 0.00055157
8590.0 0.00057998
8610.0 0.00064402
8630.0 0.0007325
8650.0 0.00075127
8670.0 0.00076677
8690.0 0.00079549
8710.0 0.00077986
8730.0 0.00075506
8750.0 0.00069559
8770.0 0.00069563
8790.0 0.00068559
8810.0 0.00063033
8830.0 0.00063093
8850.0 0.00057768
8870.0 0.00055067
8890.0 0.00049322
8910.0 0.00054964
8930.0 0.00049703
8950.0 0.00049819
8970.0 0.00050858
8990.0 0.00049378
9010.0 0.00050706
9030.0 0.00048134
9050.0 0.00047901
9070.0 0.00047922
9090.0 0.00047933
9110.0 0.00047976
9130.0 0.00047973
9150.0 0.00047946
9170.0 0.00047789
9190.0 0.00047439
9210.0 0.00048189
9230.0 0.00047977
9250.0 0.00047855
9270.0 0.00047751
9290.0 0.00047659
9310.0 0.00047573
9330.0 0.00047489
9350.0 0.00047406
9370.0 0.0004732
9390.0 0.00047229
9410.0 0.00047136
9430.0 0.0004704
9450.0 0.00046939
9470.0 0.00046834
9490.0 0.00046728
9510.0 0.00046618
9530.0 0.00046504
9550.0 0.00046391
9570.0 0.00046276
9590.0 0.00046158
9610.0 0.00046039
9630.0 0.00045921
9650.0 0.00045802
9670.0 0.00045679
9690.0 0.00045559
9710.0 0.00045439
9730.0 0.00045317
9750.0 0.00045196
9770.0 0.0004508
9790.0 0.00044962
9810.0 0.00044843
9830.0 0.00044728
9850.0 0.00044615
9870.0 0.00044501
9890.0 0.00044389
9910.0 0.00044282
9930.0 0.00044174
9950.0 0.00043999
9970.0 0.00043918
9990.0 0.00043838
10010.0 0.00043752
10030.0 0.00043665
10050.0 0.00043563
10070.0 0.00043377
10090.0 0.00043326
10110.0 0.00043273
10130.0 0.00043214
10150.0 0.00043151
10170.0 0.00043085
10190.0 0.00043015
10210.0 0.0004295
10230.0 0.00042888
10250.0 0.00042826
10270.0 0.00042766
10290.0 0.00042713
10310.0 0.0004266
10330.0 0.00042608
10350.0 0.00042563
10370.0 0.00042521
10390.0 0.00042479
10410.0 0.00042441
10430.0 0.0004241
10450.0 0.00042379
10470.0 0.00042349
10490.0 0.00042325
10510.0 0.00042304
10530.0 0.00042282
10550.0 0.00042265
10570.0 0.00042253
10590.0 0.00042242
10610.0 0.00042232
10630.0 0.00042228
10650.0 0.00042225
10670.0 0.00042223
10690.0 0.00042225
10710.0 0.0004223
10730.0 0.00042237
10750.0 0.00042244
10770.0 0.00042256
10790.0 0.0004227
10810.0 0.00042284
10830.0 0.000423
10850.0 0.00042315
10870.0 0.00042322
10890.0 0.00042312
10910.0 0.00042277
10930.0 0.00042192
10950.0 0.00042023
10970.0 0.00041752
10990.0 0.00041369
11010.0 0.00042086
11030.0 0.00041352
11050.0 0.00040489
11070.0 0.0003949
11090.0 0.00038332
11110.0 0.00037177
11130.0 0.00036021
11150.0 0.00034838
11170.0 0.00033688
11190.0 0.00032641
11210.0 0.00031631
11230.0 0.0003067
11250.0 0.0002982
11270.0 0.0002906
11290.0 0.0002835
11310.0 0.00027718
11330.0 0.00027186
11350.0 0.00026693
11370.0 0.00026235
11390.0 0.00025824
11410.0 0.00025436
11430.0 0.00025033
11450.0 0.00024635
11470.0 0.00024237
11490.0 0.00023812
11510.0 0.0002335
11530.0 0.00022885
11550.0 0.00022403
11570.0 0.0002188
11590.0 0.00021345
11610.0 0.00020817
11630.0 0.00020259
11650.0 0.00019684
11670.0 0.00019138
11690.0 0.00018598
11710.0 0.00018049
11730.0 0.00017521
11750.0 0.00017029
11770.0 0.00016537
11790.0 0.00016058
11810.0 0.00015615
11830.0 0.00015192
11850.0 0.00014767
11870.0 0.00014373
11890.0 0.0001401
11910.0 0.00013649
11930.0 0.00013296
11950.0 0.0001297
11970.0 0.00012649
11990.0 0.00012323
12010.0 0.00012015
12030.0 0.00011721
12050.0 0.00011426
12070.0 0.00011134
12090.0 0.00010873
12110.0 0.00010622
12130.0 0.00010382
12150.0 0.00010169
12170.0 9.9869e-05
12190.0 9.8228e-05
12210.0 9.6963e-05
12230.0 9.6128e-05
12250.0 9.5687e-05
12270.0 9.5689e-05
12290.0 9.6169e-05
12310.0 9.7083e-05
12330.0 9.8484e-05
12350.0 0.00010033
12370.0 0.00010249
12390.0 0.00010501
12410.0 0.00010792
12430.0 0.00011088
12450.0 0.00011389
12470.0 0.00011702
12490.0 0.00012007
12510.0 0.00012288
12530.0 0.00012559
12550.0 0.00012812
12570.0 0.00013031
12590.0 0.00013221
12610.0 0.00013388
12630.0 0.00013524
12650.0 0.00013627
12670.0 0.00013706
12690.0 0.00013761
12710.0 0.00013792
12730.0 0.00013803
12750.0 0.00013794
12770.0 0.00013767
12790.0 0.00013727
12810.0 0.0001367
12830.0 0.00013596
12850.0 0.00013512
12870.0 0.00013415
12890.0 0.00013298
12910.0 0.00013166
12930.0 0.00013025
12950.0 0.0001286
12970.0 0.00012673
12990.0 0.00012479
13010.0 0.0001227
13030.0 0.00012038
13050.0 0.00011799
13070.0 0.0001156
13090.0 0.00011306
13110.0 0.00011047
13130.0 0.00010801
13150.0 0.00010562
13170.0 0.00010323
13190.0 0.0001011
13210.0 9.9255e-05
13230.0 9.7579e-05
13250.0 9.6166e-05
13270.0 9.5092e-05
13290.0 9.4275e-05
13310.0 9.3701e-05
13330.0 9.3407e-05
13350.0 9.3328e-05
13370.0 9.3411e-05
13390.0 9.3615e-05
13410.0 9.3875e-05
13430.0 9.4138e-05
13450.0 9.4354e-05
13470.0 9.4472e-05
13490.0 9.4469e-05
13510.0 9.4298e-05
13530.0 9.3956e-05
13550.0 9.3472e-05
13570.0 9.2834e-05
13590.0 9.2044e-05
13610.0 9.1185e-05
13630.0 9.0292e-05
13650.0 8.9326e-05
13670.0 8.8368e-05
13690.0 8.7471e-05
13710.0 8.6604e-05
13730.0 8.5757e-05
13750.0 8.5025e-05
13770.0 8.4357e-05
13790.0 8.372e-05
13810.0 8.3127e-05
13830.0 8.2582e-05
13850.0 8.2025e-05
13870.0 8.145e-05
13890.0 8.087e-05
13910.0 8.0264e-05
13930.0 7.9596e-05
13950.0 7.8893e-05
13970.0 7.8194e-05
13990.0 7.7455e-05
14010.0 7.6697e-05
14030.0 7.5972e-05
14050.0 7.5276e-05
14070.0 7.4589e-05
14090.0 7.3975e-05
14110.0 7.3441e-05
14130.0 7.2968e-05
14150.0 7.2568e-05
14170.0 7.2261e-05
14190.0 7.2029e-05
14210.0 7.1871e-05
14230.0 7.1793e-05
14250.0 7.1783e-05
14270.0 7.1854e-05
14290.0 7.2008e-05
14310.0 7.2219e-05
14330.0 7.2499e-05
14350.0 7.2861e-05
14370.0 7.3274e-05
14390.0 7.3715e-05
14410.0 7.4222e-05
14430.0 7.4762e-05
14450.0 7.5294e-05
14470.0 7.5834e-05
14490.0 7.6408e-05
14510.0 7.6948e-05
14530.0 7.7459e-05
14550.0 7.7994e-05
14570.0 7.8541e-05
14590.0 7.9077e-05
14610.0 7.9664e-05
14630.0 8.0341e-05
14650.0 8.1068e-05
14670.0 8.187e-05
14690.0 8.282e-05
14710.0 8.392e-05
14730.0 8.5069e-05
14750.0 8.6377e-05
14770.0 8.786e-05
14790.0 8.9415e-05
14810.0 9.102e-05
14830.0 9.2826e-05
14850.0 9.4649e-05
14870.0 9.6401e-05
14890.0 9.8153e-05
14910.0 9.9871e-05
14930.0 0.00010138
14950.0 0.00010265
14970.0 0.00010375
14990.0 0.00010454
15010.0 0.00010502
15030.0 0.00010523
15050.0 0.00010521
15070.0 0.00010498
15090.0 0.00010462
15110.0 0.00010417
15130.0 0.00010366
15150.0 0.00010314
15170.0 0.00010259
15190.0 0.00010203
15210.0 0.00010148
15230.0 0.00010093
15250.0 0.00010037
15270.0 9.9817e-05
15290.0 9.9273e-05
15310.0 9.8723e-05
15330.0 9.8171e-05
15350.0 9.7629e-05
15370.0 9.7088e-05
15390.0 9.6537e-05
15410.0 9.5995e-05
15430.0 9.546e-05
15450.0 9.4921e-05
15470.0 9.438e-05
15490.0 9.3851e-05
15510.0 9.3323e-05
15530.0 9.279e-05
15550.0 9.2263e-05
15570.0 9.1744e-05
15590.0 9.1219e-05
15610.0 9.0692e-05
15630.0 9.0179e-05
15650.0 8.9667e-05
15670.0 8.915e-05
15690.0 8.8641e-05
15710.0 8.814e-05
15730.0 8.7633e-05
15750.0 8.7128e-05
15770.0 8.6633e-05
15790.0 8.6139e-05
15810.0 8.5638e-05
15830.0 8.5148e-05
15850.0 8.4665e-05
15870.0 8.4179e-05
15890.0 8.3694e-05
15910.0 8.3221e-05
15930.0 8.2746e-05
15950.0 8.2266e-05
15970.0 8.1797e-05
15990.0 8.1334e-05
16010.0 8.0866e-05
16030.0 8.0399e-05
16050.0 7.9947e-05
16070.0 7.9493e-05
16090.0 7.9037e-05
16110.0 7.8589e-05
16130.0 7.8149e-05
16150.0 7.7698e-05
16170.0 7.7254e-05
16190.0 7.6821e-05
16210.0 7.6387e-05
16230.0 7.595e-05
16250.0 7.5524e-05
16270.0 7.5103e-05
16290.0 7.4676e-05
16310.0 7.4255e-05
16330.0 7.3842e-05
16350.0 7.3428e-05
16370.0 7.3007e-05
16390.0 7.2602e-05
16410.0 7.22e-05
16430.0 7.1794e-05
16450.0 7.1392e-05
16470.0 7.1002e-05
16490.0 7.0605e-05
16510.0 7.0208e-05
16530.0 6.9822e-05
16550.0 6.9438e-05
16570.0 6.9048e-05
16590.0 6.8664e-05
16610.0 6.8292e-05
16630.0 6.7915e-05
16650.0 6.7538e-05
16670.0 6.7171e-05
16690.0 6.6807e-05
16710.0 6.6433e-05
16730.0 6.6069e-05
16750.0 6.5712e-05
16770.0 6.5352e-05
16790.0 6.4991e-05
16810.0 6.4642e-05
16830.0 6.4293e-05
16850.0 6.394e-05
16870.0 6.3593e-05
16890.0 6.3254e-05
16910.0 6.2908e-05
16930.0 6.2562e-05
16950.0 6.2229e-05
16970.0 6.1895e-05
16990.0 6.1557e-05
17010.0 6.1226e-05
17030.0 6.0903e-05
17050.0 6.0572e-05
17070.0 6.0244e-05
17090.0 5.9925e-05
17110.0 5.9605e-05
17130.0 5.9278e-05
17150.0 5.8962e-05
17170.0 5.8652e-05
17190.0 5.8336e-05
17210.0 5.8022e-05
17230.0 5.7718e-05
17250.0 5.7411e-05
17270.0 5.7099e-05
17290.0 5.6796e-05
17310.0 5.6497e-05
17330.0 5.6193e-05
17350.0 5.589e-05
17370.0 5.5599e-05
17390.0 5.5304e-05
17410.0 5.5007e-05
17430.0 5.4717e-05
17450.0 5.4432e-05
17470.0 5.4135e-05
17490.0 5.3846e-05
17510.0 5.3565e-05
17530.0 5.328e-05
17550.0 5.2993e-05
17570.0 5.2715e-05
17590.0 5.244e-05
17610.0 5.2158e-05
17630.0 5.188e-05
17650.0 5.1609e-05
17670.0 5.1335e-05
17690.0 5.1054e-05
17710.0 5.0788e-05
17730.0 5.0522e-05
17750.0 5.025e-05
17770.0 4.9983e-05
17790.0 4.9724e-05
17810.0 4.9457e-05
17830.0 4.919e-05
17850.0 4.8932e-05
17870.0 4.8674e-05
17890.0 4.841e-05
17910.0 4.815e-05
17930.0 4.7901e-05
17950.0 4.7645e-05
17970.0 4.7388e-05
17990.0 4.7139e-05
18010.0 4.6891e-05
18030.0 4.6634e-05
18050.0 4.6385e-05
18070.0 4.6141e-05
18090.0 4.5893e-05
18110.0 4.5643e-05
18130.0 4.5404e-05
18150.0 4.5163e-05
18170.0 4.4917e-05
18190.0 4.4677e-05
18210.0 4.4442e-05
18230.0 4.4199e-05
18250.0 4.3957e-05
18270.0 4.3725e-05
18290.0 4.3491e-05
18310.0 4.3253e-05
18330.0 4.3021e-05
18350.0 4.2794e-05
18370.0 4.256e-05
18390.0 4.2327e-05
18410.0 4.2102e-05
18430.0 4.1875e-05
18450.0 4.1641e-05
18470.0 4.1416e-05
18490.0 4.1196e-05
18510.0 4.097e-05
18530.0 4.0745e-05
18550.0 4.0529e-05
18570.0 4.0307e-05
18590.0 4.0081e-05
18610.0 3.9864e-05
18630.0 3.9649e-05
18650.0 3.9429e-05
18670.0 3.9209e-05
18690.0 3.9e-05
18710.0 3.8786e-05
18730.0 3.8569e-05
18750.0 3.8359e-05
18770.0 3.8152e-05
18790.0 3.7934e-05
18810.0 3.7722e-05
18830.0 3.7518e-05
18850.0 3.731e-05
18870.0 3.7099e-05
18890.0 3.6896e-05
18910.0 3.6694e-05
18930.0 3.6486e-05
18950.0 3.6281e-05
18970.0 3.6083e-05
18990.0 3.588e-05
19010.0 3.5671e-05
19030.0 3.5476e-05
19050.0 3.5279e-05
19070.0 3.5077e-05
19090.0 3.488e-05
19110.0 3.4689e-05
19130.0 3.449e-05
19150.0 3.4291e-05
19170.0 3.4099e-05
19190.0 3.3907e-05
19210.0 3.3709e-05
19230.0 3.3516e-05
19250.0 3.3331e-05
19270.0 3.3139e-05
19290.0 3.2947e-05
19310.0 3.2762e-05
19330.0 3.2576e-05
19350.0 3.2381e-05
19370.0 3.2195e-05
19390.0 3.2013e-05
19410.0 3.1825e-05
19430.0 3.1637e-05
19450.0 3.1458e-05
19470.0 3.1277e-05
19490.0 3.1091e-05
19510.0 3.091e-05
19530.0 3.0733e-05
19550.0 3.0549e-05
19570.0 3.0365e-05
19590.0 3.019e-05
19610.0 3.0013e-05
19630.0 2.9832e-05
19650.0 2.9657e-05
19670.0 2.9486e-05
19690.0 2.9306e-05
19710.0 2.9129e-05
19730.0 2.8958e-05
19750.0 2.8785e-05
19770.0 2.8605e-05
19790.0 2.8435e-05
19810.0 2.8267e-05
19830.0 2.8092e-05
19850.0 2.7918e-05
19870.0 2.7747e-05
19890.0 2.7565e-05
19910.0 2.7364e-05
19930.0 2.7152e-05
19950.0 2.6912e-05
19970.0 2.662e-05
19990.0 2.6275e-05
20010.0 2.5892e-05
20030.0 2.544e-05
20050.0 2.4927e-05
20070.0 2.4393e-05
20090.0 2.3841e-05
20110.0 2.3244e-05
20130.0 2.2671e-05
20150.0 2.2133e-05
20170.0 2.1604e-05
20190.0 2.1096e-05
20210.0 2.0641e-05
20230.0 2.0221e-05
20250.0 1.9822e-05
20270.0 1.9472e-05
20290.0 1.9171e-05
20310.0 1.8903e-05
20330.0 1.8672e-05
20350.0 1.8501e-05
20370.0 1.8371e-05
20390.0 1.8282e-05
20410.0 1.8243e-05
20430.0 1.8248e-05
20450.0 1.8301e-05
20470.0 1.8403e-05
20490.0 1.8546e-05
20510.0 1.8733e-05
20530.0 1.8971e-05
20550.0 1.9244e-05
20570.0 1.9541e-05
20590.0 1.988e-05
20610.0 2.0247e-05
20630.0 2.0619e-05
20650.0 2.1006e-05
20670.0 2.1419e-05
20690.0 2.1811e-05
20710.0 2.2187e-05
20730.0 2.256e-05
20750.0 2.2912e-05
20770.0 2.3225e-05
20790.0 2.3518e-05
20810.0 2.3789e-05
20830.0 2.4024e-05
20850.0 2.4229e-05
20870.0 2.4419e-05
20890.0 2.4586e-05
20910.0 2.4727e-05
20930.0 2.4857e-05
20950.0 2.4978e-05
20970.0 2.5085e-05
20990.0 2.5181e-05
21010.0 2.5271e-05
21030.0 2.535e-05
21050.0 2.5413e-05
21070.0 2.5464e-05
21090.0 2.5498e-05
21110.0 2.5512e-05
21130.0 2.5508e-05
21150.0 2.5483e-05
21170.0 2.5437e-05
21190.0 2.5376e-05
21210.0 2.5294e-05
21230.0 2.5193e-05
21250.0 2.5084e-05
21270.0 2.4966e-05
21290.0 2.4836e-05
21310.0 2.4703e-05
21330.0 2.4575e-05
21350.0 2.4443e-05
21370.0 2.4314e-05
21390.0 2.4196e-05
21410.0 2.4086e-05
21430.0 2.398e-05
21450.0 2.389e-05
21470.0 2.3816e-05
21490.0 2.3752e-05
21510.0 2.3702e-05
21530.0 2.3668e-05
21550.0 2.3649e-05
21570.0 2.3644e-05
21590.0 2.3656e-05
21610.0 2.3682e-05
21630.0 2.3725e-05
21650.0 2.3787e-05
21670.0 2.3862e-05
21690.0 2.3954e-05
21710.0 2.4067e-05
21730.0 2.4196e-05
21750.0 2.4337e-05
21770.0 2.4506e-05
21790.0 2.4693e-05
21810.0 2.4891e-05
21830.0 2.5109e-05
21850.0 2.5353e-05
21870.0 2.5607e-05
21890.0 2.5868e-05
21910.0 2.6154e-05
21930.0 2.6452e-05
21950.0 2.675e-05
21970.0 2.706e-05
21990.0 2.7391e-05
22010.0 2.7708e-05
22030.0 2.8019e-05
22050.0 2.8336e-05
22070.0 2.8645e-05
22090.0 2.8928e-05
22110.0 2.9202e-05
22130.0 2.9462e-05
22150.0 2.9689e-05
22170.0 2.9887e-05
22190.0 3.006e-05
22210.0 3.0195e-05
22230.0 3.0286e-05
22250.0 3.0338e-05
22270.0 3.0347e-05
22290.0 3.0309e-05
22310.0 3.0228e-05
22330.0 3.0094e-05
22350.0 2.9912e-05
22370.0 2.9691e-05
22390.0 2.9421e-05
22410.0 2.9096e-05
22430.0 2.8746e-05
22450.0 2.8363e-05
22470.0 2.7932e-05
22490.0 2.7477e-05
22510.0 2.7014e-05
22530.0 2.6511e-05
22550.0 2.5982e-05
22570.0 2.5466e-05
22590.0 2.4943e-05
22610.0 2.4401e-05
22630.0 2.3869e-05
