#lamb flux
1010.0 4.5838e-07
1030.0 5.1494e-07
1050.0 5.7999e-07
1070.0 6.5321e-07
1090.0 7.3639e-07
1110.0 8.217e-07
1130.0 9.0756e-07
1150.0 9.9751e-07
1170.0 1.0903e-06
1190.0 1.1783e-06
1210.0 1.2674e-06
1230.0 1.3596e-06
1250.0 1.4499e-06
1270.0 1.5375e-06
1290.0 1.6302e-06
1310.0 1.7228e-06
1330.0 1.8115e-06
1350.0 1.9013e-06
1370.0 1.994e-06
1390.0 2.0844e-06
1410.0 2.1721e-06
1430.0 2.2637e-06
1450.0 2.3554e-06
1470.0 2.4439e-06
1490.0 2.5334e-06
1510.0 2.6279e-06
1530.0 2.7175e-06
1550.0 2.8058e-06
1570.0 2.8971e-06
1590.0 2.9885e-06
1610.0 3.0758e-06
1630.0 3.1657e-06
1650.0 3.2579e-06
1670.0 3.347e-06
1690.0 3.4348e-06
1710.0 3.526e-06
1730.0 3.6175e-06
1750.0 3.7033e-06
1770.0 3.7915e-06
1790.0 3.8813e-06
1810.0 3.9679e-06
1830.0 4.0526e-06
1850.0 4.1423e-06
1870.0 4.2292e-06
1890.0 4.3127e-06
1910.0 4.3972e-06
1930.0 4.4834e-06
1950.0 4.5647e-06
1970.0 4.6441e-06
1990.0 4.7259e-06
2010.0 4.8053e-06
2030.0 4.8803e-06
2050.0 4.9568e-06
2070.0 5.0341e-06
2090.0 5.1048e-06
2110.0 5.1736e-06
2130.0 5.2432e-06
2150.0 5.3091e-06
2170.0 5.3694e-06
2190.0 5.4305e-06
2210.0 5.4897e-06
2230.0 5.543e-06
2250.0 5.5933e-06
2270.0 5.6444e-06
2290.0 5.6898e-06
2310.0 5.7288e-06
2330.0 5.7671e-06
2350.0 5.8028e-06
2370.0 5.832e-06
2390.0 5.8593e-06
2410.0 5.8883e-06
2430.0 5.9141e-06
2450.0 5.939e-06
2470.0 5.9702e-06
2490.0 6.0115e-06
2510.0 6.0614e-06
2530.0 6.1421e-06
2550.0 6.286e-06
2570.0 6.5229e-06
2590.0 6.8907e-06
2610.0 7.4959e-06
2630.0 8.3573e-06
2650.0 9.4197e-06
2670.0 1.0688e-05
2690.0 1.2103e-05
2710.0 1.3447e-05
2730.0 1.4619e-05
2750.0 1.5634e-05
2770.0 1.6384e-05
2790.0 1.6866e-05
2810.0 1.7167e-05
2830.0 1.7347e-05
2850.0 1.7406e-05
2870.0 1.7411e-05
2890.0 1.7398e-05
2910.0 1.737e-05
2930.0 1.7323e-05
2950.0 1.7283e-05
2970.0 1.7249e-05
2990.0 1.7207e-05
3010.0 0.00031027
3030.0 0.00030928
3050.0 0.00030827
3070.0 0.00030694
3090.0 0.00030549
3110.0 0.00030358
3130.0 0.00030079
3150.0 0.00029696
3170.0 0.00029179
3190.0 0.00028539
3210.0 0.00027838
3230.0 0.00027138
3250.0 0.00026603
3270.0 0.00026247
3290.0 0.00026264
3310.0 0.00026503
3330.0 0.00027141
3350.0 0.00028052
3370.0 0.00029256
3390.0 0.00030716
3410.0 0.00032274
3430.0 0.00034006
3450.0 0.00035972
3470.0 0.00038083
3490.0 0.0004028
3510.0 0.00042726
3530.0 0.0004531
3550.0 0.00047842
3570.0 0.00050436
3590.0 0.00053346
3610.0 0.00056223
3630.0 0.00059324
3650.0 0.00062491
3670.0 0.00065479
3690.0 0.00067779
3710.0 0.00069216
3730.0 0.00069705
3750.0 0.00069199
3770.0 0.00063083
3790.0 0.00056594
3810.0 0.00052832
3830.0 0.0004559
3850.0 0.00032855
3870.0 0.00025217
3890.0 0.00042392
3910.0 0.00067458
3930.0 0.00081672
3950.0 0.00081611
3970.0 0.00081576
3990.0 0.00095683
4010.0 0.0011876
4030.0 0.001222
4050.0 0.0011001
4070.0 0.00095673
4090.0 0.00089666
4110.0 0.0010758
4130.0 0.0011142
4150.0 0.0010612
4170.0 0.0010957
4190.0 0.0011247
4210.0 0.0011084
4230.0 0.0012032
4250.0 0.0013106
4270.0 0.0013242
4290.0 0.0013448
4310.0 0.0013979
4330.0 0.0015456
4350.0 0.0017628
4370.0 0.001993
4390.0 0.0019198
4410.0 0.0016095
4430.0 0.0013564
4450.0 0.001154
4470.0 0.0011294
4490.0 0.0012261
4510.0 0.0013418
4530.0 0.001468
4550.0 0.00171
4570.0 0.0020566
4590.0 0.0025175
4610.0 0.0031638
4630.0 0.0037905
4650.0 0.0039223
4670.0 0.0038465
4690.0 0.0040963
4710.0 0.004281
4730.0 0.0036389
4750.0 0.0026462
4770.0 0.0021717
4790.0 0.0020724
4810.0 0.0019249
4830.0 0.0018253
4850.0 0.0021022
4870.0 0.0026835
4890.0 0.0030446
4910.0 0.0026186
4930.0 0.002338
4950.0 0.0026305
4970.0 0.0035039
4990.0 0.0044835
5010.0 0.0046989
5030.0 0.0038912
5050.0 0.0025618
5070.0 0.0017725
5090.0 0.0015764
5110.0 0.0016474
5130.0 0.0017667
5150.0 0.0018598
5170.0 0.0018597
5190.0 0.0018279
5210.0 0.0017686
5230.0 0.0017967
5250.0 0.0019124
5270.0 0.0022327
5290.0 0.002578
5310.0 0.0028007
5330.0 0.0028722
5350.0 0.0029161
5370.0 0.0031657
5390.0 0.0033622
5410.0 0.003269
5430.0 0.0028611
5450.0 0.0026491
5470.0 0.0029854
5490.0 0.0038209
5510.0 0.0048417
5530.0 0.0053354
5550.0 0.0052075
5570.0 0.0047478
5590.0 0.0042713
5610.0 0.0039379
5630.0 0.0037314
5650.0 0.0038295
5670.0 0.0037498
5690.0 0.0035196
5710.0 0.0033157
5730.0 0.0029735
5750.0 0.0022132
5770.0 0.00194
5790.0 0.0021635
5810.0 0.0026077
5830.0 0.0029184
5850.0 0.0031452
5870.0 0.0032153
5890.0 0.0030957
5910.0 0.0029631
5930.0 0.0029811
5950.0 0.0031281
5970.0 0.0032732
5990.0 0.0031076
6010.0 0.0026287
6030.0 0.0021849
6050.0 0.0019059
6070.0 0.0018887
6090.0 0.0021189
6110.0 0.0023103
6130.0 0.0022253
6150.0 0.0020905
6170.0 0.0023143
6190.0 0.0027824
6210.0 0.0033387
6230.0 0.0037636
6250.0 0.0037477
6270.0 0.003381
6290.0 0.0027987
6310.0 0.0022331
6330.0 0.0017927
6350.0 0.001626
6370.0 0.0017729
6390.0 0.0020809
6410.0 0.0023848
6430.0 0.0027586
6450.0 0.0032063
6470.0 0.0039614
6490.0 0.0048579
6510.0 0.0053332
6530.0 0.0049582
6550.0 0.0045766
6570.0 0.0045025
6590.0 0.0043266
6610.0 0.0039112
6630.0 0.0035116
6650.0 0.0032463
6670.0 0.0033708
6690.0 0.0033524
6710.0 0.0029721
6730.0 0.0027545
6750.0 0.0024494
6770.0 0.0023581
6790.0 0.0025434
6810.0 0.0026803
6830.0 0.0027458
6850.0 0.0026988
6870.0 0.0025871
6890.0 0.0025347
6910.0 0.0024097
6930.0 0.0022765
6950.0 0.0022897
6970.0 0.0023373
6990.0 0.0026021
7010.0 0.0027688
7030.0 0.0025215
7050.0 0.002362
7070.0 0.0022719
7090.0 0.0020441
7110.0 0.0019044
7130.0 0.0019384
7150.0 0.0020131
7170.0 0.0021205
7190.0 0.0021238
7210.0 0.0021344
7230.0 0.0022481
7250.0 0.002589
7270.0 0.0030243
7290.0 0.0032412
7310.0 0.0031404
7330.0 0.0027931
7350.0 0.0025108
7370.0 0.0024691
7390.0 0.0024925
7410.0 0.0025837
7430.0 0.0028289
7450.0 0.0030665
7470.0 0.0033981
7490.0 0.0037548
7510.0 0.0034523
7530.0 0.0033056
7550.0 0.0027767
7570.0 0.002334
7590.0 0.0019239
7610.0 0.0017663
7630.0 0.0018485
7650.0 0.0021145
7670.0 0.002304
7690.0 0.0025992
7710.0 0.002898
7730.0 0.0030312
7750.0 0.0030392
7770.0 0.0030285
7790.0 0.0029847
7810.0 0.0031011
7830.0 0.0029984
7850.0 0.0026758
7870.0 0.002417
7890.0 0.0022524
7910.0 0.002032
7930.0 0.0017392
7950.0 0.0015924
7970.0 0.0015835
7990.0 0.0016577
8010.0 0.0017603
8030.0 0.0017864
8050.0 0.0017794
8070.0 0.0017293
8090.0 0.0017217
8110.0 0.0016364
8130.0 0.0015255
8150.0 0.0014345
8170.0 0.0013998
8190.0 0.0014299
8210.0 0.001434
8230.0 0.0014915
8250.0 0.0014827
8270.0 0.0013256
8290.0 0.0010184
8310.0 0.00069363
8330.0 0.00045757
8350.0 0.00032485
8370.0 0.00038577
8390.0 0.00042697
8410.0 0.00054694
8430.0 0.00066287
8450.0 0.00072641
8470.0 0.00075357
8490.0 0.00077404
8510.0 0.00080873
8530.0 0.00090454
8550.0 0.00099961
8570.0 0.0011747
8590.0 0.001441
8610.0 0.0016878
8630.0 0.0019733
8650.0 0.0022199
8670.0 0.0021875
8690.0 0.0020503
8710.0 0.0019381
8730.0 0.0018322
8750.0 0.0017528
8770.0 0.0017014
8790.0 0.0016488
8810.0 0.0015364
8830.0 0.0013857
8850.0 0.0012001
8870.0 0.0010255
8890.0 0.00092652
8910.0 0.00093721
8930.0 0.00093618
8950.0 0.0010167
8970.0 0.0010405
8990.0 0.0010811
9010.0 0.0011213
9030.0 0.0011303
9050.0 0.0011345
9070.0 0.0011376
9090.0 0.00114
9110.0 0.0011412
9130.0 0.001143
9150.0 0.0011456
9170.0 0.0011482
9190.0 0.0011507
9210.0 0.0011546
9230.0 0.0011576
9250.0 0.001161
9270.0 0.0011645
9290.0 0.0011683
9310.0 0.0011725
9330.0 0.0011769
9350.0 0.0011814
9370.0 0.0011862
9390.0 0.0011912
9410.0 0.0011965
9430.0 0.0012018
9450.0 0.0012076
9470.0 0.0012135
9490.0 0.0012195
9510.0 0.0012258
9530.0 0.0012324
9550.0 0.001239
9570.0 0.0012458
9590.0 0.0012528
9610.0 0.0012601
9630.0 0.0012673
9650.0 0.0012749
9670.0 0.0012826
9690.0 0.0012905
9710.0 0.0012984
9730.0 0.0013066
9750.0 0.0013149
9770.0 0.0013231
9790.0 0.0013316
9810.0 0.0013403
9830.0 0.001349
9850.0 0.0013577
9870.0 0.0013667
9890.0 0.0013757
9910.0 0.0013847
9930.0 0.0013939
9950.0 0.0014031
9970.0 0.0014122
9990.0 0.0014214
10010.0 0.0013982
10030.0 0.0014072
10050.0 0.0014161
10070.0 0.0014247
10090.0 0.0014339
10110.0 0.0014429
10130.0 0.0014519
10150.0 0.001461
10170.0 0.0014699
10190.0 0.0014786
10210.0 0.0014874
10230.0 0.0014962
10250.0 0.0015048
10270.0 0.0015133
10290.0 0.0015219
10310.0 0.0015302
10330.0 0.0015382
10350.0 0.0015464
10370.0 0.0015544
10390.0 0.0015621
10410.0 0.0015697
10430.0 0.0015774
10450.0 0.0015847
10470.0 0.0015917
10490.0 0.0015988
10510.0 0.0016056
10530.0 0.001612
10550.0 0.0016183
10570.0 0.0016246
10590.0 0.0016304
10610.0 0.001636
10630.0 0.0016415
10650.0 0.0016468
10670.0 0.0016516
10690.0 0.0016562
10710.0 0.0016608
10730.0 0.0016648
10750.0 0.0016685
10770.0 0.0016722
10790.0 0.0016756
10810.0 0.0016784
10830.0 0.001681
10850.0 0.0016834
10870.0 0.0016848
10890.0 0.0016853
10910.0 0.0016846
10930.0 0.0016817
10950.0 0.0016751
10970.0 0.0016644
10990.0 0.0016492
11010.0 0.0015935
11030.0 0.0015654
11050.0 0.0015328
11070.0 0.0014947
11090.0 0.0014494
11110.0 0.0014032
11130.0 0.0013554
11150.0 0.0013046
11170.0 0.0012531
11190.0 0.0012043
11210.0 0.0011552
11230.0 0.0011064
11250.0 0.0010616
11270.0 0.0010202
11290.0 0.00098044
11310.0 0.00094437
11330.0 0.00091387
11350.0 0.00088599
11370.0 0.00086088
11390.0 0.00083943
11410.0 0.00082052
11430.0 0.00080234
11450.0 0.00078565
11470.0 0.00076991
11490.0 0.0007537
11510.0 0.00073636
11530.0 0.00071878
11550.0 0.0007002
11570.0 0.00067963
11590.0 0.00065803
11610.0 0.00063613
11630.0 0.0006127
11650.0 0.0005883
11670.0 0.00056499
11690.0 0.00054213
11710.0 0.00051935
11730.0 0.00049803
11750.0 0.00047889
11770.0 0.00046066
11790.0 0.000444
11810.0 0.00042958
11830.0 0.00041679
11850.0 0.00040499
11870.0 0.00039487
11890.0 0.00038606
11910.0 0.00037777
11930.0 0.00036992
11950.0 0.00036258
11970.0 0.00035519
11990.0 0.00034738
12010.0 0.00033946
12030.0 0.00033135
12050.0 0.00032271
12070.0 0.00031362
12090.0 0.00030491
12110.0 0.00029616
12130.0 0.00028748
12150.0 0.0002795
12170.0 0.00027244
12190.0 0.00026606
12210.0 0.00026101
12230.0 0.00025749
12250.0 0.00025542
12270.0 0.00025502
12290.0 0.00025626
12310.0 0.00025895
12330.0 0.00026332
12350.0 0.00026911
12370.0 0.00027582
12390.0 0.00028359
12410.0 0.00029264
12430.0 0.00030159
12450.0 0.0003106
12470.0 0.00031987
12490.0 0.00032878
12510.0 0.00033666
12530.0 0.00034406
12550.0 0.00035067
12570.0 0.00035588
12590.0 0.00035985
12610.0 0.00036275
12630.0 0.00036425
12650.0 0.00036433
12670.0 0.00036327
12690.0 0.00036102
12710.0 0.00035775
12730.0 0.00035359
12750.0 0.00034845
12770.0 0.00034265
12790.0 0.00033641
12810.0 0.00032959
12830.0 0.00032222
12850.0 0.00031481
12870.0 0.00030718
12890.0 0.00029909
12910.0 0.00029089
12930.0 0.00028275
12950.0 0.00027419
12970.0 0.00026533
12990.0 0.00025672
13010.0 0.00024802
13030.0 0.00023903
13050.0 0.0002302
13070.0 0.00022175
13090.0 0.00021318
13110.0 0.00020482
13130.0 0.00019707
13150.0 0.00018977
13170.0 0.00018273
13190.0 0.00017659
13210.0 0.00017133
13230.0 0.00016674
13250.0 0.00016303
13270.0 0.00016033
13290.0 0.00015851
13310.0 0.00015762
13330.0 0.00015766
13350.0 0.00015853
13370.0 0.00016023
13390.0 0.00016273
13410.0 0.00016561
13430.0 0.00016902
13450.0 0.00017289
13470.0 0.00017687
13490.0 0.00018082
13510.0 0.00018503
13530.0 0.00018903
13550.0 0.00019264
13570.0 0.000196
13590.0 0.0001991
13610.0 0.00020167
13630.0 0.00020373
13650.0 0.00020547
13670.0 0.00020673
13690.0 0.00020749
13710.0 0.00020787
13730.0 0.00020786
13750.0 0.00020744
13770.0 0.0002067
13790.0 0.00020563
13810.0 0.00020427
13830.0 0.0002027
13850.0 0.00020086
13870.0 0.00019876
13890.0 0.00019652
13910.0 0.00019412
13930.0 0.00019147
13950.0 0.0001887
13970.0 0.00018594
13990.0 0.00018303
14010.0 0.00018004
14030.0 0.00017713
14050.0 0.00017428
14070.0 0.00017137
14090.0 0.00016867
14110.0 0.0001662
14130.0 0.0001639
14150.0 0.00016183
14170.0 0.00016015
14190.0 0.00015877
14210.0 0.00015772
14230.0 0.00015706
14250.0 0.00015677
14270.0 0.00015687
14290.0 0.00015737
14310.0 0.00015819
14330.0 0.00015933
14350.0 0.00016082
14370.0 0.00016254
14390.0 0.0001644
14410.0 0.00016652
14430.0 0.00016879
14450.0 0.00017108
14470.0 0.00017345
14490.0 0.000176
14510.0 0.00017851
14530.0 0.00018102
14550.0 0.00018371
14570.0 0.00018657
14590.0 0.00018948
14610.0 0.00019267
14630.0 0.0001963
14650.0 0.00020016
14670.0 0.00020433
14690.0 0.00020908
14710.0 0.00021436
14730.0 0.00021974
14750.0 0.00022563
14770.0 0.00023204
14790.0 0.00023857
14810.0 0.00024512
14830.0 0.00025219
14850.0 0.00025912
14870.0 0.00026563
14890.0 0.00027197
14910.0 0.00027802
14930.0 0.00028329
14950.0 0.00028777
14970.0 0.00029165
14990.0 0.0002946
15010.0 0.00029664
15030.0 0.00029796
15050.0 0.00029864
15070.0 0.00029877
15090.0 0.00029856
15110.0 0.00029812
15130.0 0.00029754
15150.0 0.00029692
15170.0 0.00029625
15190.0 0.00029554
15210.0 0.00029487
15230.0 0.00029419
15250.0 0.00029349
15270.0 0.0002928
15290.0 0.00029215
15310.0 0.00029148
15330.0 0.0002908
15350.0 0.00029015
15370.0 0.00028951
15390.0 0.00028882
15410.0 0.00028817
15430.0 0.00028753
15450.0 0.00028687
15470.0 0.0002862
15490.0 0.00028557
15510.0 0.00028494
15530.0 0.00028428
15550.0 0.00028363
15570.0 0.00028301
15590.0 0.00028235
15610.0 0.00028168
15630.0 0.00028106
15650.0 0.00028042
15670.0 0.00027976
15690.0 0.00027911
15710.0 0.00027849
15730.0 0.00027783
15750.0 0.00027717
15770.0 0.00027654
15790.0 0.00027589
15810.0 0.00027521
15830.0 0.00027455
15850.0 0.00027392
15870.0 0.00027325
15890.0 0.00027258
15910.0 0.00027194
15930.0 0.00027127
15950.0 0.00027058
15970.0 0.00026991
15990.0 0.00026925
16010.0 0.00026856
16030.0 0.00026785
16050.0 0.00026719
16070.0 0.00026651
16090.0 0.0002658
16110.0 0.00026511
16130.0 0.00026443
16150.0 0.0002637
16170.0 0.00026298
16190.0 0.00026228
16210.0 0.00026157
16230.0 0.00026083
16250.0 0.00026011
16270.0 0.0002594
16290.0 0.00025865
16310.0 0.0002579
16330.0 0.00025718
16350.0 0.00025643
16370.0 0.00025564
16390.0 0.0002549
16410.0 0.00025415
16430.0 0.00025337
16450.0 0.00025259
16470.0 0.00025184
16490.0 0.00025105
16510.0 0.00025024
16530.0 0.00024946
16550.0 0.00024867
16570.0 0.00024784
16590.0 0.00024702
16610.0 0.00024624
16630.0 0.00024541
16650.0 0.00024458
16670.0 0.00024376
16690.0 0.00024294
16710.0 0.00024207
16730.0 0.00024123
16750.0 0.00024039
16770.0 0.00023953
16790.0 0.00023865
16810.0 0.00023781
16830.0 0.00023695
16850.0 0.00023605
16870.0 0.00023518
16890.0 0.00023431
16910.0 0.00023341
16930.0 0.00023249
16950.0 0.00023161
16970.0 0.00023071
16990.0 0.00022978
17010.0 0.00022887
17030.0 0.00022798
17050.0 0.00022704
17070.0 0.0002261
17090.0 0.00022519
17110.0 0.00022426
17130.0 0.00022328
17150.0 0.00022234
17170.0 0.00022141
17190.0 0.00022045
17210.0 0.00021948
17230.0 0.00021855
17250.0 0.00021758
17270.0 0.00021659
17290.0 0.00021562
17310.0 0.00021466
17330.0 0.00021366
17350.0 0.00021266
17370.0 0.0002117
17390.0 0.00021071
17410.0 0.0002097
17430.0 0.00020871
17450.0 0.00020773
17470.0 0.0002067
17490.0 0.00020568
17510.0 0.00020469
17530.0 0.00020368
17550.0 0.00020264
17570.0 0.00020164
17590.0 0.00020064
17610.0 0.0001996
17630.0 0.00019857
17650.0 0.00019756
17670.0 0.00019653
17690.0 0.00019546
17710.0 0.00019444
17730.0 0.00019342
17750.0 0.00019237
17770.0 0.00019133
17790.0 0.00019032
17810.0 0.00018926
17830.0 0.0001882
17850.0 0.00018717
17870.0 0.00018613
17890.0 0.00018506
17910.0 0.000184
17930.0 0.00018298
17950.0 0.00018193
17970.0 0.00018086
17990.0 0.00017983
18010.0 0.00017879
18030.0 0.0001777
18050.0 0.00017665
18070.0 0.00017561
18090.0 0.00017455
18110.0 0.00017348
18130.0 0.00017244
18150.0 0.0001714
18170.0 0.00017033
18190.0 0.00016928
18210.0 0.00016824
18230.0 0.00016717
18250.0 0.0001661
18270.0 0.00016506
18290.0 0.00016402
18310.0 0.00016295
18330.0 0.0001619
18350.0 0.00016088
18370.0 0.00015981
18390.0 0.00015875
18410.0 0.00015772
18430.0 0.00015668
18450.0 0.0001556
18470.0 0.00015457
18490.0 0.00015354
18510.0 0.00015249
18530.0 0.00015145
18550.0 0.00015043
18570.0 0.00014939
18590.0 0.00014833
18610.0 0.00014731
18630.0 0.00014629
18650.0 0.00014524
18670.0 0.0001442
18690.0 0.0001432
18710.0 0.00014218
18730.0 0.00014114
18750.0 0.00014013
18770.0 0.00013913
18790.0 0.00013809
18810.0 0.00013706
18830.0 0.00013607
18850.0 0.00013506
18870.0 0.00013404
18890.0 0.00013305
18910.0 0.00013206
18930.0 0.00013104
18950.0 0.00013004
18970.0 0.00012907
18990.0 0.00012807
19010.0 0.00012705
19030.0 0.00012608
19050.0 0.00012511
19070.0 0.00012412
19090.0 0.00012314
19110.0 0.00012219
19130.0 0.0001212
19150.0 0.00012022
19170.0 0.00011926
19190.0 0.00011831
19210.0 0.00011733
19230.0 0.00011636
19250.0 0.00011543
19270.0 0.00011447
19290.0 0.00011352
19310.0 0.00011259
19330.0 0.00011165
19350.0 0.00011068
19370.0 0.00010975
19390.0 0.00010883
19410.0 0.00010789
19430.0 0.00010695
19450.0 0.00010605
19470.0 0.00010514
19490.0 0.0001042
19510.0 0.00010329
19530.0 0.0001024
19550.0 0.00010147
19570.0 0.00010055
19590.0 9.9668e-05
19610.0 9.8774e-05
19630.0 9.7864e-05
19650.0 9.6979e-05
19670.0 9.6111e-05
19690.0 9.521e-05
19710.0 9.432e-05
19730.0 9.3456e-05
19750.0 9.2582e-05
19770.0 9.1684e-05
19790.0 9.0823e-05
19810.0 8.9973e-05
19830.0 8.9098e-05
19850.0 8.8228e-05
19870.0 8.7379e-05
19890.0 8.6494e-05
19910.0 8.5561e-05
19930.0 8.4612e-05
19950.0 8.36e-05
19970.0 8.2455e-05
19990.0 8.1185e-05
20010.0 8.1053e-05
20030.0 7.9505e-05
20050.0 7.78e-05
20070.0 7.6044e-05
20090.0 7.4239e-05
20110.0 7.2296e-05
20130.0 7.0412e-05
20150.0 6.8615e-05
20170.0 6.6823e-05
20190.0 6.5074e-05
20210.0 6.3472e-05
20230.0 6.1957e-05
20250.0 6.0487e-05
20270.0 5.9158e-05
20290.0 5.7976e-05
20310.0 5.6884e-05
20330.0 5.5898e-05
20350.0 5.5103e-05
20370.0 5.4429e-05
20390.0 5.3874e-05
20410.0 5.3466e-05
20430.0 5.3193e-05
20450.0 5.3041e-05
20470.0 5.3019e-05
20490.0 5.3111e-05
20510.0 5.3309e-05
20530.0 5.3622e-05
20550.0 5.4018e-05
20570.0 5.4473e-05
20590.0 5.5016e-05
20610.0 5.5622e-05
20630.0 5.6248e-05
20650.0 5.6917e-05
20670.0 5.7654e-05
20690.0 5.8373e-05
20710.0 5.909e-05
20730.0 5.9839e-05
20750.0 6.0595e-05
20770.0 6.131e-05
20790.0 6.2042e-05
20810.0 6.2797e-05
20830.0 6.3529e-05
20850.0 6.4252e-05
20870.0 6.5021e-05
20890.0 6.5801e-05
20910.0 6.655e-05
20930.0 6.7333e-05
20950.0 6.8153e-05
20970.0 6.8959e-05
20990.0 6.9761e-05
21010.0 7.0616e-05
21030.0 7.1458e-05
21050.0 7.2264e-05
21070.0 7.3073e-05
21090.0 7.3886e-05
21110.0 7.4624e-05
21130.0 7.5313e-05
21150.0 7.5979e-05
21170.0 7.6579e-05
21190.0 7.7093e-05
21210.0 7.7559e-05
21230.0 7.7954e-05
21250.0 7.8248e-05
21270.0 7.8457e-05
21290.0 7.8582e-05
21310.0 7.8608e-05
21330.0 7.8537e-05
21350.0 7.8366e-05
21370.0 7.8087e-05
21390.0 7.7711e-05
21410.0 7.7236e-05
21430.0 7.6622e-05
21450.0 7.5918e-05
21470.0 7.5136e-05
21490.0 7.4238e-05
21510.0 7.3238e-05
21530.0 7.2201e-05
21550.0 7.1096e-05
21570.0 6.9895e-05
21590.0 6.8686e-05
21610.0 6.749e-05
21630.0 6.6261e-05
21650.0 6.5022e-05
21670.0 6.3906e-05
21690.0 6.2833e-05
21710.0 6.1813e-05
21730.0 6.0913e-05
21750.0 6.0147e-05
21770.0 5.9466e-05
21790.0 5.8932e-05
21810.0 5.8558e-05
21830.0 5.8324e-05
21850.0 5.8241e-05
21870.0 5.8312e-05
21890.0 5.8519e-05
21910.0 5.8877e-05
21930.0 5.9374e-05
21950.0 5.9976e-05
21970.0 6.0701e-05
21990.0 6.1578e-05
22010.0 6.2511e-05
22030.0 6.351e-05
22050.0 6.4615e-05
22070.0 6.5782e-05
22090.0 6.6936e-05
22110.0 6.8148e-05
22130.0 6.9408e-05
22150.0 7.0628e-05
22170.0 7.1816e-05
22190.0 7.3028e-05
22210.0 7.4184e-05
22230.0 7.522e-05
22250.0 7.6208e-05
22270.0 7.7122e-05
22290.0 7.79e-05
22310.0 7.8557e-05
22330.0 7.9117e-05
22350.0 7.9522e-05
22370.0 7.9772e-05
22390.0 7.9876e-05
22410.0 7.9816e-05
22430.0 7.9597e-05
22450.0 7.9225e-05
22470.0 7.8679e-05
22490.0 7.7976e-05
22510.0 7.7153e-05
22530.0 7.6146e-05
22550.0 7.4969e-05
22570.0 7.3708e-05
22590.0 7.2326e-05
22610.0 7.0777e-05
22630.0 6.9139e-05
22650.0 6.748e-05
22670.0 6.5677e-05
22690.0 6.3783e-05
22710.0 6.1899e-05
22730.0 5.9981e-05
22750.0 5.7923e-05
22770.0 5.5934e-05
22790.0 5.401e-05
22810.0 5.2052e-05
22830.0 5.0118e-05
22850.0 4.8327e-05
22870.0 4.6592e-05
22890.0 4.4891e-05
22910.0 4.3353e-05
22930.0 4.1976e-05
22950.0 4.0702e-05
22970.0 3.9571e-05
