#lamb flux
1010.0 2.3849e-06
1030.0 2.4857e-06
1050.0 2.6027e-06
1070.0 2.7346e-06
1090.0 2.8847e-06
1110.0 3.0394e-06
1130.0 3.1959e-06
1150.0 3.3607e-06
1170.0 3.5317e-06
1190.0 3.6953e-06
1210.0 3.8623e-06
1230.0 4.036e-06
1250.0 4.2078e-06
1270.0 4.3765e-06
1290.0 4.5559e-06
1310.0 4.7369e-06
1330.0 4.9129e-06
1350.0 5.0926e-06
1370.0 5.2797e-06
1390.0 5.4647e-06
1410.0 5.6469e-06
1430.0 5.8388e-06
1450.0 6.0329e-06
1470.0 6.2234e-06
1490.0 6.4179e-06
1510.0 6.6242e-06
1530.0 6.823e-06
1550.0 7.0212e-06
1570.0 7.2269e-06
1590.0 7.4341e-06
1610.0 7.6345e-06
1630.0 7.8409e-06
1650.0 8.0523e-06
1670.0 8.2577e-06
1690.0 8.4602e-06
1710.0 8.6686e-06
1730.0 8.8766e-06
1750.0 9.0715e-06
1770.0 9.269e-06
1790.0 9.4672e-06
1810.0 9.6559e-06
1830.0 9.8374e-06
1850.0 1.0025e-05
1870.0 1.0204e-05
1890.0 1.0371e-05
1910.0 1.0536e-05
1930.0 1.0699e-05
1950.0 1.0849e-05
1970.0 1.099e-05
1990.0 1.1133e-05
2010.0 1.1267e-05
2030.0 1.139e-05
2050.0 1.1513e-05
2070.0 1.1637e-05
2090.0 1.1747e-05
2110.0 1.1855e-05
2130.0 1.1966e-05
2150.0 1.2073e-05
2170.0 1.2174e-05
2190.0 1.2283e-05
2210.0 1.2396e-05
2230.0 1.2507e-05
2250.0 1.2624e-05
2270.0 1.2755e-05
2290.0 1.289e-05
2310.0 1.3028e-05
2330.0 1.3184e-05
2350.0 1.3354e-05
2370.0 1.3533e-05
2390.0 1.3729e-05
2410.0 1.3951e-05
2430.0 1.4187e-05
2450.0 1.4438e-05
2470.0 1.4713e-05
2490.0 1.5009e-05
2510.0 1.532e-05
2530.0 1.5676e-05
2550.0 1.6127e-05
2570.0 1.6741e-05
2590.0 1.7612e-05
2610.0 1.8953e-05
2630.0 2.0884e-05
2650.0 2.3387e-05
2670.0 2.6548e-05
2690.0 3.0351e-05
2710.0 3.4422e-05
2730.0 3.8553e-05
2750.0 4.2817e-05
2770.0 4.6929e-05
2790.0 5.0785e-05
2810.0 5.4576e-05
2830.0 5.8468e-05
2850.0 6.2277e-05
2870.0 6.6194e-05
2890.0 7.0374e-05
2910.0 7.4753e-05
2930.0 7.922e-05
2950.0 8.3991e-05
2970.0 8.9037e-05
2990.0 9.4182e-05
3010.0 0.00017248
3030.0 0.0001821
3050.0 0.00019177
3070.0 0.00020077
3090.0 0.00020875
3110.0 0.00021402
3130.0 0.00021451
3150.0 0.00020789
3170.0 0.00018951
3190.0 0.00015864
3210.0 0.00011553
3230.0 6.6524e-05
3250.0 0.00011662
3270.0 5.041e-05
3290.0 0.00016885
3310.0 3.3603e-05
3330.0 3.4282e-05
3350.0 5.2563e-05
3370.0 7.338e-05
3390.0 9.5457e-05
3410.0 0.00011744
3430.0 0.00014041
3450.0 0.00016329
3470.0 0.00018427
3490.0 0.00019802
3510.0 0.00024649
3530.0 0.00033761
3550.0 0.00033844
3570.0 0.00028739
3590.0 0.00041183
3610.0 0.00026547
3630.0 0.00042798
3650.0 0.00048582
3670.0 0.00062452
3690.0 0.00059716
3710.0 0.00042615
3730.0 0.00056926
3750.0 0.00059193
3770.0 0.00060982
3790.0 0.00055169
3810.0 0.00048487
3830.0 0.0006704
3850.0 0.00072118
3870.0 0.00089565
3890.0 0.00084531
3910.0 0.00076745
3930.0 0.00083073
3950.0 0.00093497
3970.0 0.0012194
3990.0 0.00098191
4010.0 0.00064883
4030.0 0.00087384
4050.0 0.00095577
4070.0 0.0010861
4090.0 0.00095317
4110.0 0.00065183
4130.0 0.00085933
4150.0 0.00078991
4170.0 0.00083707
4190.0 0.00083298
4210.0 0.0010345
4230.0 0.00072358
4250.0 0.0008646
4270.0 0.00086366
4290.0 0.00087318
4310.0 0.0010636
4330.0 0.0010907
4350.0 0.00084583
4370.0 0.00073244
4390.0 0.00088865
4410.0 0.00090524
4430.0 0.00069954
4450.0 0.00070382
4470.0 0.00081564
4490.0 0.00060869
4510.0 0.00074089
4530.0 0.00080009
4550.0 0.0010697
4570.0 0.0015664
4590.0 0.0015212
4610.0 0.0010179
4630.0 0.0016183
4650.0 0.0023156
4670.0 0.002142
4690.0 0.0012728
4710.0 0.0013753
4730.0 0.0017768
4750.0 0.0015883
4770.0 0.0012029
4790.0 0.00083174
4810.0 0.0012005
4830.0 0.0013847
4850.0 0.0012377
4870.0 0.00044879
4890.0 0.0013286
4910.0 0.0018421
4930.0 0.0019754
4950.0 0.0019485
4970.0 0.0012302
4990.0 0.0014114
5010.0 0.0016401
5030.0 0.0017819
5050.0 0.0017563
5070.0 0.0012706
5090.0 0.0010429
5110.0 0.0009755
5130.0 0.00087008
5150.0 0.0009945
5170.0 0.00086698
5190.0 0.0010737
5210.0 0.0010727
5230.0 0.0011744
5250.0 0.00149
5270.0 0.0012666
5290.0 0.0012446
5310.0 0.0018173
5330.0 0.0021059
5350.0 0.0017832
5370.0 0.0015591
5390.0 0.0017662
5410.0 0.0022087
5430.0 0.0024326
5450.0 0.0026102
5470.0 0.0026332
5490.0 0.0025852
5510.0 0.0030192
5530.0 0.0031324
5550.0 0.0033523
5570.0 0.003555
5590.0 0.0035267
5610.0 0.003346
5630.0 0.0032331
5650.0 0.0032964
5670.0 0.0032653
5690.0 0.002796
5710.0 0.0026835
5730.0 0.0027143
5750.0 0.002959
5770.0 0.0025741
5790.0 0.0023629
5810.0 0.0023982
5830.0 0.0025205
5850.0 0.0023092
5870.0 0.0023247
5890.0 0.0027599
5910.0 0.0026363
5930.0 0.002172
5950.0 0.0018919
5970.0 0.0020225
5990.0 0.001868
6010.0 0.0017623
6030.0 0.001804
6050.0 0.0016924
6070.0 0.0012809
6090.0 0.0011522
6110.0 0.0014825
6130.0 0.0017078
6150.0 0.0017973
6170.0 0.0017534
6190.0 0.0016516
6210.0 0.0016184
6230.0 0.0018702
6250.0 0.0017288
6270.0 0.001581
6290.0 0.0014527
6310.0 0.0013741
6330.0 0.0013076
6350.0 0.0011462
6370.0 0.0011388
6390.0 0.0013496
6410.0 0.0016762
6430.0 0.0019248
6450.0 0.0018151
6470.0 0.0017811
6490.0 0.0022176
6510.0 0.002537
6530.0 0.0024036
6550.0 0.0023136
6570.0 0.0023492
6590.0 0.0022761
6610.0 0.0024724
6630.0 0.002328
6650.0 0.0020632
6670.0 0.0018598
6690.0 0.0018009
6710.0 0.0021992
6730.0 0.0020224
6750.0 0.0017412
6770.0 0.0015703
6790.0 0.0016457
6810.0 0.0018201
6830.0 0.0017766
6850.0 0.0016172
6870.0 0.0016702
6890.0 0.0016398
6910.0 0.0015482
6930.0 0.0017736
6950.0 0.0016456
6970.0 0.0015435
6990.0 0.0015418
7010.0 0.0014758
7030.0 0.0013899
7050.0 0.0013407
7070.0 0.0014484
7090.0 0.0013724
7110.0 0.0011909
7130.0 0.00096452
7150.0 0.00087556
7170.0 0.0011594
7190.0 0.0012634
7210.0 0.0012221
7230.0 0.0012719
7250.0 0.0011856
7270.0 0.0011294
7290.0 0.0012483
7310.0 0.0013905
7330.0 0.0013647
7350.0 0.0012812
7370.0 0.001225
7390.0 0.0012834
7410.0 0.0014959
7430.0 0.0016359
7450.0 0.001742
7470.0 0.0017129
7490.0 0.0017589
7510.0 0.0016879
7530.0 0.0016882
7550.0 0.0016655
7570.0 0.0014673
7590.0 0.0014528
7610.0 0.0014113
7630.0 0.0013146
7650.0 0.0014425
7670.0 0.0015745
7690.0 0.0017092
7710.0 0.0019049
7730.0 0.0020293
7750.0 0.0021205
7770.0 0.0021205
7790.0 0.0023133
7810.0 0.0023874
7830.0 0.0022087
7850.0 0.0022242
7870.0 0.0021183
7890.0 0.0022111
7910.0 0.0020964
7930.0 0.0021114
7950.0 0.0018751
7970.0 0.001923
7990.0 0.0018444
8010.0 0.0018438
8030.0 0.0018364
8050.0 0.0019247
8070.0 0.0018568
8090.0 0.0018617
8110.0 0.0018149
8130.0 0.001814
8150.0 0.0017371
8170.0 0.0016894
8190.0 0.0016687
8210.0 0.0016813
8230.0 0.0014977
8250.0 0.0013718
8270.0 0.0012037
8290.0 0.0010006
8310.0 0.00085372
8330.0 0.000681
8350.0 0.00057347
8370.0 0.00059168
8390.0 0.00060642
8410.0 0.00064386
8430.0 0.00078418
8450.0 0.00083872
8470.0 0.00088613
8490.0 0.0010147
8510.0 0.0011065
8530.0 0.0012749
8550.0 0.0015072
8570.0 0.0016804
8590.0 0.0018036
8610.0 0.001968
8630.0 0.002162
8650.0 0.0021971
8670.0 0.00222
8690.0 0.0023055
8710.0 0.0022824
8730.0 0.0022607
8750.0 0.0021408
8770.0 0.0021423
8790.0 0.0021129
8810.0 0.0019508
8830.0 0.0019472
8850.0 0.0018288
8870.0 0.0017573
8890.0 0.0016101
8910.0 0.0017224
8930.0 0.0015781
8950.0 0.0015506
8970.0 0.0015537
8990.0 0.0015029
9010.0 0.0015269
9030.0 0.0014661
9050.0 0.0014581
9070.0 0.0014562
9090.0 0.0014541
9110.0 0.0014525
9130.0 0.00145
9150.0 0.0014469
9170.0 0.0014405
9190.0 0.0014286
9210.0 0.0014448
9230.0 0.0014371
9250.0 0.0014315
9270.0 0.0014263
9290.0 0.0014212
9310.0 0.0014163
9330.0 0.0014114
9350.0 0.0014064
9370.0 0.0014014
9390.0 0.0013962
9410.0 0.0013908
9430.0 0.0013853
9450.0 0.0013797
9470.0 0.0013739
9490.0 0.0013682
9510.0 0.0013623
9530.0 0.0013564
9550.0 0.0013503
9570.0 0.0013442
9590.0 0.001338
9610.0 0.0013318
9630.0 0.0013255
9650.0 0.0013191
9670.0 0.0013128
9690.0 0.0013064
9710.0 0.0012999
9730.0 0.0012935
9750.0 0.0012871
9770.0 0.0012806
9790.0 0.0012742
9810.0 0.0012678
9830.0 0.0012614
9850.0 0.001255
9870.0 0.0012487
9890.0 0.0012424
9910.0 0.0012361
9930.0 0.0012298
9950.0 0.00122
9970.0 0.0012149
9990.0 0.0012098
10010.0 0.0012045
10030.0 0.001199
10050.0 0.0011931
10070.0 0.0011861
10090.0 0.001181
10110.0 0.0011757
10130.0 0.0011704
10150.0 0.0011652
10170.0 0.0011599
10190.0 0.0011544
10210.0 0.0011492
10230.0 0.0011442
10250.0 0.001139
10270.0 0.001134
10290.0 0.0011292
10310.0 0.0011244
10330.0 0.0011195
10350.0 0.0011149
10370.0 0.0011104
10390.0 0.0011059
10410.0 0.0011015
10430.0 0.0010974
10450.0 0.0010932
10470.0 0.001089
10490.0 0.0010851
10510.0 0.0010813
10530.0 0.0010774
10550.0 0.0010736
10570.0 0.0010701
10590.0 0.0010666
10610.0 0.0010631
10630.0 0.0010598
10650.0 0.0010567
10670.0 0.0010534
10690.0 0.0010503
10710.0 0.0010474
10730.0 0.0010445
10750.0 0.0010416
10770.0 0.0010389
10790.0 0.0010364
10810.0 0.0010337
10830.0 0.0010312
10850.0 0.0010288
10870.0 0.0010262
10890.0 0.0010233
10910.0 0.0010201
10930.0 0.001016
10950.0 0.0010104
10970.0 0.0010032
10990.0 0.00099413
11010.0 0.00097619
11030.0 0.00096244
11050.0 0.00094656
11070.0 0.00092835
11090.0 0.0009073
11110.0 0.00088632
11130.0 0.00086524
11150.0 0.00084343
11170.0 0.0008219
11190.0 0.00080192
11210.0 0.00078212
11230.0 0.00076263
11250.0 0.00074474
11270.0 0.00072811
11290.0 0.00071185
11310.0 0.00069673
11330.0 0.00068358
11350.0 0.00067108
11370.0 0.00065927
11390.0 0.00064875
11410.0 0.00063909
11430.0 0.00062939
11450.0 0.00062031
11470.0 0.00061178
11490.0 0.00060306
11510.0 0.0005939
11530.0 0.00058496
11550.0 0.00057576
11570.0 0.00056566
11590.0 0.00055516
11610.0 0.00054457
11630.0 0.00053299
11650.0 0.00052057
11670.0 0.0005084
11690.0 0.00049597
11710.0 0.00048286
11730.0 0.0004699
11750.0 0.00045763
11770.0 0.00044505
11790.0 0.00043267
11810.0 0.00042122
11830.0 0.00041033
11850.0 0.0003994
11870.0 0.00038952
11890.0 0.00038064
11910.0 0.00037204
11930.0 0.00036391
11950.0 0.00035669
11970.0 0.00034985
11990.0 0.00034307
12010.0 0.00033689
12030.0 0.00033119
12050.0 0.00032553
12070.0 0.00031998
12090.0 0.00031512
12110.0 0.00031041
12130.0 0.00030581
12150.0 0.00030169
12170.0 0.00029812
12190.0 0.00029472
12210.0 0.00029195
12230.0 0.00029002
12250.0 0.00028879
12270.0 0.00028838
12290.0 0.00028901
12310.0 0.00029063
12330.0 0.00029331
12350.0 0.0002971
12370.0 0.00030181
12390.0 0.0003075
12410.0 0.00031431
12430.0 0.00032158
12450.0 0.0003293
12470.0 0.00033759
12490.0 0.00034605
12510.0 0.00035423
12530.0 0.00036243
12550.0 0.00037048
12570.0 0.0003779
12590.0 0.00038477
12610.0 0.00039123
12630.0 0.00039703
12650.0 0.00040199
12670.0 0.00040641
12690.0 0.00041021
12710.0 0.00041333
12730.0 0.00041588
12750.0 0.00041787
12770.0 0.00041928
12790.0 0.00042022
12810.0 0.00042063
12830.0 0.00042049
12850.0 0.00041999
12870.0 0.00041906
12890.0 0.00041757
12910.0 0.00041568
12930.0 0.00041349
12950.0 0.00041071
12970.0 0.00040737
12990.0 0.00040387
13010.0 0.00039995
13030.0 0.00039545
13050.0 0.00039068
13070.0 0.00038584
13090.0 0.00038047
13110.0 0.00037482
13130.0 0.00036929
13150.0 0.00036374
13170.0 0.00035793
13190.0 0.00035258
13210.0 0.00034777
13230.0 0.00034321
13250.0 0.00033921
13270.0 0.00033605
13290.0 0.00033353
13310.0 0.00033165
13330.0 0.00033061
13350.0 0.00033027
13370.0 0.00033048
13390.0 0.00033117
13410.0 0.00033216
13430.0 0.00033326
13450.0 0.00033429
13470.0 0.00033508
13490.0 0.00033549
13510.0 0.00033534
13530.0 0.00033454
13550.0 0.00033314
13570.0 0.00033106
13590.0 0.00032824
13610.0 0.00032498
13630.0 0.00032138
13650.0 0.00031727
13670.0 0.00031296
13690.0 0.00030873
13710.0 0.00030442
13730.0 0.0003
13750.0 0.00029601
13770.0 0.00029226
13790.0 0.0002886
13810.0 0.00028518
13830.0 0.00028212
13850.0 0.00027913
13870.0 0.00027623
13890.0 0.00027354
13910.0 0.00027096
13930.0 0.00026834
13950.0 0.00026577
13970.0 0.00026338
13990.0 0.00026096
14010.0 0.00025856
14030.0 0.00025632
14050.0 0.00025419
14070.0 0.00025209
14090.0 0.00025021
14110.0 0.00024854
14130.0 0.00024703
14150.0 0.00024571
14170.0 0.00024465
14190.0 0.0002438
14210.0 0.00024316
14230.0 0.00024275
14250.0 0.00024255
14270.0 0.00024258
14290.0 0.00024284
14310.0 0.00024326
14330.0 0.00024386
14350.0 0.00024466
14370.0 0.00024558
14390.0 0.00024654
14410.0 0.00024763
14430.0 0.00024875
14450.0 0.00024979
14470.0 0.00025078
14490.0 0.00025177
14510.0 0.00025258
14530.0 0.00025324
14550.0 0.00025383
14570.0 0.00025435
14590.0 0.00025476
14610.0 0.00025517
14630.0 0.00025569
14650.0 0.00025626
14670.0 0.00025697
14690.0 0.00025796
14710.0 0.00025927
14730.0 0.00026078
14750.0 0.0002627
14770.0 0.00026509
14790.0 0.00026781
14810.0 0.00027081
14830.0 0.00027447
14850.0 0.00027842
14870.0 0.00028243
14890.0 0.00028669
14910.0 0.0002911
14930.0 0.00029516
14950.0 0.00029873
14970.0 0.00030194
14990.0 0.00030432
15010.0 0.00030577
15030.0 0.00030644
15050.0 0.00030637
15070.0 0.00030558
15090.0 0.00030436
15110.0 0.00030284
15130.0 0.00030111
15150.0 0.0002993
15170.0 0.00029743
15190.0 0.00029551
15210.0 0.00029361
15230.0 0.0002917
15250.0 0.00028978
15270.0 0.00028785
15290.0 0.00028596
15310.0 0.00028405
15330.0 0.00028213
15350.0 0.00028024
15370.0 0.00027835
15390.0 0.00027643
15410.0 0.00027454
15430.0 0.00027266
15450.0 0.00027078
15470.0 0.00026889
15490.0 0.00026703
15510.0 0.00026517
15530.0 0.0002633
15550.0 0.00026145
15570.0 0.00025962
15590.0 0.00025778
15610.0 0.00025594
15630.0 0.00025413
15650.0 0.00025232
15670.0 0.00025051
15690.0 0.00024871
15710.0 0.00024694
15730.0 0.00024516
15750.0 0.00024339
15770.0 0.00024164
15790.0 0.0002399
15810.0 0.00023815
15830.0 0.00023642
15850.0 0.00023472
15870.0 0.00023301
15890.0 0.00023131
15910.0 0.00022964
15930.0 0.00022798
15950.0 0.00022631
15970.0 0.00022466
15990.0 0.00022304
16010.0 0.00022141
16030.0 0.00021979
16050.0 0.0002182
16070.0 0.00021662
16090.0 0.00021503
16110.0 0.00021348
16130.0 0.00021194
16150.0 0.00021039
16170.0 0.00020886
16190.0 0.00020735
16210.0 0.00020586
16230.0 0.00020436
16250.0 0.00020289
16270.0 0.00020144
16290.0 0.00019999
16310.0 0.00019855
16330.0 0.00019713
16350.0 0.00019572
16370.0 0.00019431
16390.0 0.00019294
16410.0 0.00019157
16430.0 0.00019021
16450.0 0.00018886
16470.0 0.00018754
16490.0 0.00018622
16510.0 0.0001849
16530.0 0.00018361
16550.0 0.00018233
16570.0 0.00018106
16590.0 0.0001798
16610.0 0.00017856
16630.0 0.00017733
16650.0 0.00017611
16670.0 0.00017491
16690.0 0.00017372
16710.0 0.00017253
16730.0 0.00017136
16750.0 0.00017021
16770.0 0.00016906
16790.0 0.00016792
16810.0 0.0001668
16830.0 0.0001657
16850.0 0.0001646
16870.0 0.00016351
16890.0 0.00016245
16910.0 0.00016138
16930.0 0.00016032
16950.0 0.00015928
16970.0 0.00015826
16990.0 0.00015724
17010.0 0.00015623
17030.0 0.00015525
17050.0 0.00015426
17070.0 0.00015328
17090.0 0.00015233
17110.0 0.00015138
17130.0 0.00015043
17150.0 0.0001495
17170.0 0.00014859
17190.0 0.00014767
17210.0 0.00014677
17230.0 0.00014589
17250.0 0.00014501
17270.0 0.00014414
17290.0 0.00014328
17310.0 0.00014244
17330.0 0.00014159
17350.0 0.00014076
17370.0 0.00013995
17390.0 0.00013914
17410.0 0.00013833
17430.0 0.00013754
17450.0 0.00013677
17470.0 0.00013598
17490.0 0.00013521
17510.0 0.00013446
17530.0 0.00013372
17550.0 0.00013297
17570.0 0.00013225
17590.0 0.00013153
17610.0 0.00013081
17630.0 0.00013011
17650.0 0.00012942
17670.0 0.00012873
17690.0 0.00012803
17710.0 0.00012737
17730.0 0.00012671
17750.0 0.00012604
17770.0 0.00012539
17790.0 0.00012476
17810.0 0.00012412
17830.0 0.00012349
17850.0 0.00012287
17870.0 0.00012227
17890.0 0.00012165
17910.0 0.00012105
17930.0 0.00012047
17950.0 0.00011988
17970.0 0.0001193
17990.0 0.00011874
18010.0 0.00011818
18030.0 0.00011761
18050.0 0.00011705
18070.0 0.00011652
18090.0 0.00011597
18110.0 0.00011544
18130.0 0.00011492
18150.0 0.0001144
18170.0 0.00011388
18190.0 0.00011337
18210.0 0.00011288
18230.0 0.00011237
18250.0 0.00011187
18270.0 0.00011139
18290.0 0.00011092
18310.0 0.00011044
18330.0 0.00010997
18350.0 0.00010951
18370.0 0.00010905
18390.0 0.00010859
18410.0 0.00010815
18430.0 0.0001077
18450.0 0.00010725
18470.0 0.00010682
18490.0 0.0001064
18510.0 0.00010597
18530.0 0.00010555
18550.0 0.00010514
18570.0 0.00010473
18590.0 0.00010432
18610.0 0.00010392
18630.0 0.00010353
18650.0 0.00010313
18670.0 0.00010274
18690.0 0.00010236
18710.0 0.00010198
18730.0 0.0001016
18750.0 0.00010123
18770.0 0.00010087
18790.0 0.00010049
18810.0 0.00010013
18830.0 9.978e-05
18850.0 9.9427e-05
18870.0 9.9071e-05
18890.0 9.873e-05
18910.0 9.8393e-05
18930.0 9.8048e-05
18950.0 9.7712e-05
18970.0 9.7386e-05
18990.0 9.7056e-05
19010.0 9.6719e-05
19030.0 9.6403e-05
19050.0 9.6089e-05
19070.0 9.5768e-05
19090.0 9.5455e-05
19110.0 9.5154e-05
19130.0 9.4843e-05
19150.0 9.4533e-05
19170.0 9.4236e-05
19190.0 9.3941e-05
19210.0 9.3638e-05
19230.0 9.3344e-05
19250.0 9.3062e-05
19270.0 9.2773e-05
19290.0 9.2485e-05
19310.0 9.2208e-05
19330.0 9.1932e-05
19350.0 9.1644e-05
19370.0 9.137e-05
19390.0 9.1104e-05
19410.0 9.0831e-05
19430.0 9.0557e-05
19450.0 9.0299e-05
19470.0 9.0039e-05
19490.0 8.9772e-05
19510.0 8.9514e-05
19530.0 8.9264e-05
19550.0 8.9003e-05
19570.0 8.8743e-05
19590.0 8.85e-05
19610.0 8.8252e-05
19630.0 8.8e-05
19650.0 8.7757e-05
19670.0 8.7522e-05
19690.0 8.7274e-05
19710.0 8.7031e-05
19730.0 8.6799e-05
19750.0 8.6563e-05
19770.0 8.6319e-05
19790.0 8.6089e-05
19810.0 8.5863e-05
19830.0 8.5627e-05
19850.0 8.5391e-05
19870.0 8.5159e-05
19890.0 8.4905e-05
19910.0 8.4614e-05
19930.0 8.429e-05
19950.0 8.3899e-05
19970.0 8.339e-05
19990.0 8.275e-05
20010.0 8.2002e-05
20030.0 8.1077e-05
20050.0 7.9981e-05
20070.0 7.879e-05
20090.0 7.7511e-05
20110.0 7.6068e-05
20130.0 7.4619e-05
20150.0 7.3197e-05
20170.0 7.1732e-05
20190.0 7.0257e-05
20210.0 6.8874e-05
20230.0 6.7533e-05
20250.0 6.6194e-05
20270.0 6.4959e-05
20290.0 6.3839e-05
20310.0 6.2782e-05
20330.0 6.1806e-05
20350.0 6.1014e-05
20370.0 6.0332e-05
20390.0 5.9763e-05
20410.0 5.9344e-05
20430.0 5.9071e-05
20450.0 5.8922e-05
20470.0 5.8918e-05
20490.0 5.9048e-05
20510.0 5.9302e-05
20530.0 5.9689e-05
20550.0 6.0178e-05
20570.0 6.0743e-05
20590.0 6.1412e-05
20610.0 6.2151e-05
20630.0 6.2916e-05
20650.0 6.3723e-05
20670.0 6.4586e-05
20690.0 6.5413e-05
20710.0 6.621e-05
20730.0 6.6999e-05
20750.0 6.7743e-05
20770.0 6.8396e-05
20790.0 6.8996e-05
20810.0 6.9532e-05
20830.0 6.9972e-05
20850.0 7.0324e-05
20870.0 7.0602e-05
20890.0 7.0791e-05
20910.0 7.0893e-05
20930.0 7.0924e-05
20950.0 7.0881e-05
20970.0 7.0776e-05
20990.0 7.0618e-05
21010.0 7.0394e-05
21030.0 7.0125e-05
21050.0 6.9825e-05
21070.0 6.9483e-05
21090.0 6.9095e-05
21110.0 6.8702e-05
21130.0 6.8296e-05
21150.0 6.786e-05
21170.0 6.7423e-05
21190.0 6.7004e-05
21210.0 6.6576e-05
21230.0 6.6153e-05
21250.0 6.5773e-05
21270.0 6.5423e-05
21290.0 6.5097e-05
21310.0 6.4818e-05
21330.0 6.46e-05
21350.0 6.4423e-05
21370.0 6.4302e-05
21390.0 6.4244e-05
21410.0 6.4243e-05
21430.0 6.4304e-05
21450.0 6.4426e-05
21470.0 6.46e-05
21490.0 6.4832e-05
21510.0 6.512e-05
21530.0 6.5442e-05
21550.0 6.5808e-05
21570.0 6.6226e-05
21590.0 6.667e-05
21610.0 6.7133e-05
21630.0 6.7636e-05
21650.0 6.8177e-05
21670.0 6.8704e-05
21690.0 6.9257e-05
21710.0 6.9842e-05
21730.0 7.043e-05
21750.0 7.1014e-05
21770.0 7.1644e-05
21790.0 7.2285e-05
21810.0 7.2917e-05
21830.0 7.3566e-05
21850.0 7.4249e-05
21870.0 7.4925e-05
21890.0 7.559e-05
21910.0 7.6288e-05
21930.0 7.699e-05
21950.0 7.767e-05
21970.0 7.8355e-05
21990.0 7.9063e-05
22010.0 7.9724e-05
22030.0 8.0356e-05
22050.0 8.0979e-05
22070.0 8.1564e-05
22090.0 8.2083e-05
22110.0 8.2563e-05
22130.0 8.2992e-05
22150.0 8.334e-05
22170.0 8.3611e-05
22190.0 8.3807e-05
22210.0 8.3907e-05
22230.0 8.3912e-05
22250.0 8.382e-05
22270.0 8.362e-05
22290.0 8.3326e-05
22310.0 8.2938e-05
22330.0 8.2423e-05
22350.0 8.1814e-05
22370.0 8.1133e-05
22390.0 8.0347e-05
22410.0 7.9447e-05
22430.0 7.8517e-05
22450.0 7.753e-05
22470.0 7.6448e-05
22490.0 7.5332e-05
22510.0 7.4221e-05
22530.0 7.3037e-05
22550.0 7.1815e-05
22570.0 7.0642e-05
22590.0 6.9475e-05
22610.0 6.8282e-05
22630.0 6.7129e-05
22650.0 6.6054e-05
22670.0 6.4974e-05
22690.0 6.3925e-05
22710.0 6.2958e-05
22730.0 6.2041e-05
22750.0 6.1123e-05
22770.0 6.0295e-05
22790.0 5.9541e-05
22810.0 5.8815e-05
22830.0 5.8132e-05
22850.0 5.7527e-05
22870.0 5.6961e-05
22890.0 5.6419e-05
22910.0 5.5937e-05
22930.0 5.5506e-05
