#lamb flux
1010.0 0.00013292
1030.0 0.00014662
1050.0 0.00015995
1070.0 0.00017498
1090.0 0.00019277
1110.0 0.00021091
1130.0 0.00022911
1150.0 0.00024819
1170.0 0.00026796
1190.0 0.00028693
1210.0 0.00030649
1230.0 0.00032712
1250.0 0.00034773
1270.0 0.00036843
1290.0 0.00039091
1310.0 0.00041413
1330.0 0.00043726
1350.0 0.00046129
1370.0 0.00048658
1390.0 0.00051186
1410.0 0.00053688
1430.0 0.00056302
1450.0 0.00058924
1470.0 0.00061463
1490.0 0.00063999
1510.0 0.00066618
1530.0 0.00069066
1550.0 0.00071418
1570.0 0.0007377
1590.0 0.00076039
1610.0 0.00078108
1630.0 0.00080116
1650.0 0.00082071
1670.0 0.0008384
1690.0 0.00085467
1710.0 0.00087062
1730.0 0.00088559
1750.0 0.00089824
1770.0 0.00091057
1790.0 0.00092253
1810.0 0.00093319
1830.0 0.00094308
1850.0 0.00095394
1870.0 0.00096426
1890.0 0.00097414
1910.0 0.00098488
1930.0 0.00099675
1950.0 0.0010086
1970.0 0.0010212
1990.0 0.0010357
2010.0 0.0010511
2030.0 0.001067
2050.0 0.0010846
2070.0 0.0011037
2090.0 0.0011227
2110.0 0.0011423
2130.0 0.0011629
2150.0 0.0011835
2170.0 0.0012032
2190.0 0.0012232
2210.0 0.0012429
2230.0 0.001261
2250.0 0.001278
2270.0 0.0012946
2290.0 0.0013092
2310.0 0.0013215
2330.0 0.0013329
2350.0 0.0013427
2370.0 0.00135
2390.0 0.0013557
2410.0 0.0013604
2430.0 0.0013627
2450.0 0.0013627
2470.0 0.0013612
2490.0 0.0013581
2510.0 0.0013532
2530.0 0.0013501
2550.0 0.0013538
2570.0 0.0013702
2590.0 0.0014062
2610.0 0.0014784
2630.0 0.0015919
2650.0 0.0017404
2670.0 0.0019256
2690.0 0.002139
2710.0 0.0023455
2730.0 0.0025238
2750.0 0.002667
2770.0 0.0027457
2790.0 0.0027514
2810.0 0.0026878
2830.0 0.002552
2850.0 0.002365
2870.0 0.0021394
2890.0 0.0018775
2910.0 0.001595
2930.0 0.0013098
2950.0 0.0010072
2970.0 0.0006921
2990.0 0.00038028
3010.0 0.00016364
3030.0 0.00016364
3050.0 0.00016364
3070.0 0.00016364
3090.0 0.00016364
3110.0 0.00016364
3130.0 0.00016364
3150.0 0.00016364
3170.0 0.00016364
3190.0 0.00016364
3210.0 0.0028207
3230.0 0.011922
3250.0 0.017491
3270.0 0.015444
3290.0 0.012034
3310.0 0.0092272
3330.0 0.0086395
3350.0 0.0092541
3370.0 0.010257
3390.0 0.011314
3410.0 0.01244
3430.0 0.013923
3450.0 0.015316
3470.0 0.016748
3490.0 0.016929
3510.0 0.014243
3530.0 0.012859
3550.0 0.016037
3570.0 0.019829
3590.0 0.022046
3610.0 0.022593
3630.0 0.02504
3650.0 0.02557
3670.0 0.026518
3690.0 0.029842
3710.0 0.032808
3730.0 0.035086
3750.0 0.036096
3770.0 0.036504
3790.0 0.035448
3810.0 0.033032
3830.0 0.029638
3850.0 0.021147
3870.0 0.019591
3890.0 0.022235
3910.0 0.029969
3930.0 0.038383
3950.0 0.041706
3970.0 0.043595
3990.0 0.048761
4010.0 0.049116
4030.0 0.044146
4050.0 0.032175
4070.0 0.027324
4090.0 0.033205
4110.0 0.036331
4130.0 0.039274
4150.0 0.038913
4170.0 0.037009
4190.0 0.034505
4210.0 0.039085
4230.0 0.042126
4250.0 0.045224
4270.0 0.044622
4290.0 0.042947
4310.0 0.043775
4330.0 0.049641
4350.0 0.054833
4370.0 0.055796
4390.0 0.051986
4410.0 0.046716
4430.0 0.037013
4450.0 0.029848
4470.0 0.030205
4490.0 0.034135
4510.0 0.036544
4530.0 0.037098
4550.0 0.038099
4570.0 0.051697
4590.0 0.074902
4610.0 0.088931
4630.0 0.092908
4650.0 0.10234
4670.0 0.11805
4690.0 0.12376
4710.0 0.10606
4730.0 0.081845
4750.0 0.06347
4770.0 0.053224
4790.0 0.047841
4810.0 0.04561
4830.0 0.05017
4850.0 0.06033
4870.0 0.06739
4890.0 0.069361
4910.0 0.06827
4930.0 0.075479
4950.0 0.089214
4970.0 0.099392
4990.0 0.10043
5010.0 0.091175
5030.0 0.075249
5050.0 0.059637
5070.0 0.049534
5090.0 0.045796
5110.0 0.045702
5130.0 0.04641
5150.0 0.0458
5170.0 0.042894
5190.0 0.040834
5210.0 0.041476
5230.0 0.046915
5250.0 0.056498
5270.0 0.06665
5290.0 0.07337
5310.0 0.078261
5330.0 0.086146
5350.0 0.093371
5370.0 0.092913
5390.0 0.083886
5410.0 0.075211
5430.0 0.074638
5450.0 0.085391
5470.0 0.10089
5490.0 0.11251
5510.0 0.11619
5530.0 0.11321
5550.0 0.10729
5570.0 0.10156
5590.0 0.095939
5610.0 0.092036
5630.0 0.090385
5650.0 0.088925
5670.0 0.083632
5690.0 0.073483
5710.0 0.062519
5730.0 0.055629
5750.0 0.052834
5770.0 0.053118
5790.0 0.053453
5810.0 0.053186
5830.0 0.05205
5850.0 0.04883
5870.0 0.045363
5890.0 0.043551
5910.0 0.043418
5930.0 0.042484
5950.0 0.038321
5970.0 0.032151
5990.0 0.025205
6010.0 0.020316
6030.0 0.019195
6050.0 0.020829
6070.0 0.02194
6090.0 0.020594
6110.0 0.018517
6130.0 0.019107
6150.0 0.021855
6170.0 0.024455
6190.0 0.026139
6210.0 0.02665
6230.0 0.026278
6250.0 0.023898
6270.0 0.019941
6290.0 0.016575
6310.0 0.015039
6330.0 0.014983
6350.0 0.015322
6370.0 0.01595
6390.0 0.018352
6410.0 0.022599
6430.0 0.026691
6450.0 0.028871
6470.0 0.029648
6490.0 0.029905
6510.0 0.030268
6530.0 0.030709
6550.0 0.030909
6570.0 0.031889
6590.0 0.032762
6610.0 0.032951
6630.0 0.03176
6650.0 0.029357
6670.0 0.026907
6690.0 0.0251
6710.0 0.023978
6730.0 0.023163
6750.0 0.022988
6770.0 0.023619
6790.0 0.024525
6810.0 0.025031
6830.0 0.024624
6850.0 0.023341
6870.0 0.021946
6890.0 0.02142
6910.0 0.021247
6930.0 0.021896
6950.0 0.022733
6970.0 0.023266
6990.0 0.023484
7010.0 0.022719
7030.0 0.020904
7050.0 0.018625
7070.0 0.017029
7090.0 0.016525
7110.0 0.01656
7130.0 0.01577
7150.0 0.014035
7170.0 0.013542
7190.0 0.015052
7210.0 0.017496
7230.0 0.019755
7250.0 0.020587
7270.0 0.02014
7290.0 0.018767
7310.0 0.017582
7330.0 0.017227
7350.0 0.017424
7370.0 0.017715
7390.0 0.018607
7410.0 0.02061
7430.0 0.023341
7450.0 0.025732
7470.0 0.026649
7490.0 0.025554
7510.0 0.023947
7530.0 0.022553
7550.0 0.0215
7570.0 0.020201
7590.0 0.019726
7610.0 0.020388
7630.0 0.022024
7650.0 0.02448
7670.0 0.027316
7690.0 0.029812
7710.0 0.032063
7730.0 0.03422
7750.0 0.036121
7770.0 0.036756
7790.0 0.037722
7810.0 0.038555
7830.0 0.038252
7850.0 0.037472
7870.0 0.037171
7890.0 0.038114
7910.0 0.038375
7930.0 0.038084
7950.0 0.03687
7970.0 0.036032
7990.0 0.035081
8010.0 0.034797
8030.0 0.035398
8050.0 0.035871
8070.0 0.035793
8090.0 0.03587
8110.0 0.03531
8130.0 0.035681
8150.0 0.035699
8170.0 0.035253
8190.0 0.034696
8210.0 0.034425
8230.0 0.033899
8250.0 0.033811
8270.0 0.031561
8290.0 0.026689
8310.0 0.021064
8330.0 0.017205
8350.0 0.016473
8370.0 0.019276
8390.0 0.023006
8410.0 0.02481
8430.0 0.025624
8450.0 0.02735
8470.0 0.029754
8490.0 0.033446
8510.0 0.038045
8530.0 0.043179
8550.0 0.047618
8570.0 0.051147
8590.0 0.053908
8610.0 0.055518
8630.0 0.055644
8650.0 0.055174
8670.0 0.055554
8690.0 0.058928
8710.0 0.063441
8730.0 0.066196
8750.0 0.066304
8770.0 0.067606
8790.0 0.06793
8810.0 0.064644
8830.0 0.060654
8850.0 0.055375
8870.0 0.051239
8890.0 0.05018
8910.0 0.050113
8930.0 0.04738
8950.0 0.044107
8970.0 0.042839
8990.0 0.042915
9010.0 0.041713
9030.0 0.040831
9050.0 0.040454
9070.0 0.040273
9090.0 0.040118
9110.0 0.039969
9130.0 0.03982
9150.0 0.039674
9170.0 0.039519
9190.0 0.039405
9210.0 0.039391
9230.0 0.039193
9250.0 0.039023
9270.0 0.03887
9290.0 0.038728
9310.0 0.03859
9330.0 0.038457
9350.0 0.038333
9370.0 0.03821
9390.0 0.038085
9410.0 0.037965
9430.0 0.03784
9450.0 0.037661
9470.0 0.037503
9490.0 0.037444
9510.0 0.037358
9530.0 0.037264
9550.0 0.037166
9570.0 0.037063
9590.0 0.03696
9610.0 0.036857
9630.0 0.036753
9650.0 0.03665
9670.0 0.036549
9690.0 0.036448
9710.0 0.036347
9730.0 0.036248
9750.0 0.036149
9770.0 0.036049
9790.0 0.035951
9810.0 0.035854
9830.0 0.035756
9850.0 0.035657
9870.0 0.035561
9890.0 0.035463
9910.0 0.035364
9930.0 0.035262
9950.0 0.034953
9970.0 0.034915
9990.0 0.034864
10010.0 0.034809
10030.0 0.034734
10050.0 0.034642
10070.0 0.034549
10090.0 0.034456
10110.0 0.034343
10130.0 0.034221
10150.0 0.034119
10170.0 0.034013
10190.0 0.033893
10210.0 0.033783
10230.0 0.033674
10250.0 0.033551
10270.0 0.033428
10290.0 0.033313
10310.0 0.033185
10330.0 0.033046
10350.0 0.032918
10370.0 0.032788
10390.0 0.032644
10410.0 0.0325
10430.0 0.032367
10450.0 0.032219
10470.0 0.032062
10490.0 0.031913
10510.0 0.031762
10530.0 0.031589
10550.0 0.031421
10570.0 0.031261
10590.0 0.031088
10610.0 0.030905
10630.0 0.030731
10650.0 0.030552
10670.0 0.030355
10690.0 0.030161
10710.0 0.029971
10730.0 0.029766
10750.0 0.029548
10770.0 0.029346
10790.0 0.029135
10810.0 0.02891
10830.0 0.028686
10850.0 0.028468
10870.0 0.028226
10890.0 0.027979
10910.0 0.027739
10930.0 0.02749
10950.0 0.02722
10970.0 0.026951
10990.0 0.026687
11010.0 0.028865
11030.0 0.028561
11050.0 0.028266
11070.0 0.027963
11090.0 0.027639
11110.0 0.027336
11130.0 0.027042
11150.0 0.026737
11170.0 0.026434
11190.0 0.026149
11210.0 0.025857
11230.0 0.025558
11250.0 0.025272
11270.0 0.024993
11290.0 0.024702
11310.0 0.024414
11330.0 0.024146
11350.0 0.02387
11370.0 0.023587
11390.0 0.023311
11410.0 0.023035
11430.0 0.022734
11450.0 0.022427
11470.0 0.022117
11490.0 0.021784
11510.0 0.021423
11530.0 0.021059
11550.0 0.020681
11570.0 0.020272
11590.0 0.019851
11610.0 0.019431
11630.0 0.018987
11650.0 0.018526
11670.0 0.018082
11690.0 0.01764
11710.0 0.017186
11730.0 0.016744
11750.0 0.016326
11770.0 0.015902
11790.0 0.015484
11810.0 0.01509
11830.0 0.014707
11850.0 0.014317
11870.0 0.013949
11890.0 0.013602
11910.0 0.013255
11930.0 0.012915
11950.0 0.012597
11970.0 0.012287
11990.0 0.011977
12010.0 0.011686
12030.0 0.011414
12050.0 0.011148
12070.0 0.010892
12090.0 0.010666
12110.0 0.010454
12130.0 0.010256
12150.0 0.010082
12170.0 0.0099311
12190.0 0.0097968
12210.0 0.0096878
12230.0 0.0096043
12250.0 0.0095434
12270.0 0.0095065
12290.0 0.0094928
12310.0 0.0094987
12330.0 0.0095275
12350.0 0.0095757
12370.0 0.009637
12390.0 0.0097141
12410.0 0.0098118
12430.0 0.0099117
12450.0 0.010017
12470.0 0.010134
12490.0 0.010253
12510.0 0.010364
12530.0 0.010479
12550.0 0.010592
12570.0 0.010692
12590.0 0.01078
12610.0 0.01086
12630.0 0.010923
12650.0 0.010961
12670.0 0.010981
12690.0 0.01098
12710.0 0.010953
12730.0 0.010903
12750.0 0.01083
12770.0 0.010733
12790.0 0.010617
12810.0 0.010481
12830.0 0.010326
12850.0 0.010163
12870.0 0.0099904
12890.0 0.0098069
12910.0 0.0096214
12930.0 0.0094391
12950.0 0.0092531
12970.0 0.0090677
12990.0 0.0088931
13010.0 0.0087234
13030.0 0.0085558
13050.0 0.0083959
13070.0 0.0082456
13090.0 0.0080964
13110.0 0.0079513
13130.0 0.007814
13150.0 0.0076804
13170.0 0.0075459
13190.0 0.007418
13210.0 0.007296
13230.0 0.0071746
13250.0 0.0070561
13270.0 0.0069447
13290.0 0.0068366
13310.0 0.0067307
13330.0 0.0066326
13350.0 0.0065418
13370.0 0.006456
13390.0 0.0063768
13410.0 0.0063076
13430.0 0.0062445
13450.0 0.0061874
13470.0 0.0061369
13490.0 0.0060916
13510.0 0.006049
13530.0 0.0060088
13550.0 0.0059699
13570.0 0.0059301
13590.0 0.0058879
13610.0 0.0058435
13630.0 0.0057965
13650.0 0.0057448
13670.0 0.0056896
13690.0 0.0056325
13710.0 0.0055724
13730.0 0.0055086
13750.0 0.0054466
13770.0 0.0053854
13790.0 0.0053242
13810.0 0.0052654
13830.0 0.0052113
13850.0 0.0051591
13870.0 0.0051099
13890.0 0.0050656
13910.0 0.0050249
13930.0 0.0049862
13950.0 0.0049503
13970.0 0.0049176
13990.0 0.0048856
14010.0 0.0048537
14030.0 0.0048225
14050.0 0.0047908
14070.0 0.0047563
14090.0 0.0047207
14110.0 0.0046839
14130.0 0.0046441
14150.0 0.0046012
14170.0 0.004558
14190.0 0.0045134
14210.0 0.0044663
14230.0 0.0044196
14250.0 0.0043746
14270.0 0.0043292
14290.0 0.0042853
14310.0 0.0042464
14330.0 0.0042108
14350.0 0.0041783
14370.0 0.004151
14390.0 0.0041291
14410.0 0.0041107
14430.0 0.0040968
14450.0 0.0040874
14470.0 0.0040812
14490.0 0.0040778
14510.0 0.0040772
14530.0 0.0040786
14550.0 0.0040819
14570.0 0.0040871
14590.0 0.0040942
14610.0 0.0041037
14630.0 0.0041166
14650.0 0.0041328
14670.0 0.0041532
14690.0 0.0041792
14710.0 0.0042117
14730.0 0.0042491
14750.0 0.0042938
14770.0 0.0043473
14790.0 0.0044076
14810.0 0.0044746
14830.0 0.0045544
14850.0 0.0046424
14870.0 0.004736
14890.0 0.0048387
14910.0 0.0049501
14930.0 0.0050609
14950.0 0.0051686
14970.0 0.0052748
14990.0 0.0053697
15010.0 0.0054492
15030.0 0.0055157
15050.0 0.0055693
15070.0 0.0056085
15090.0 0.0056391
15110.0 0.0056639
15130.0 0.0056849
15150.0 0.0057039
15170.0 0.0057222
15190.0 0.0057402
15210.0 0.0057584
15230.0 0.005777
15250.0 0.0057958
15270.0 0.005815
15290.0 0.0058346
15310.0 0.0058545
15330.0 0.0058748
15350.0 0.0058955
15370.0 0.0059165
15390.0 0.0059377
15410.0 0.0059593
15430.0 0.0059813
15450.0 0.0060036
15470.0 0.0060261
15490.0 0.006049
15510.0 0.0060722
15530.0 0.0060957
15550.0 0.0061194
15570.0 0.0061435
15590.0 0.0061678
15610.0 0.0061923
15630.0 0.0062171
15650.0 0.0062422
15670.0 0.0062675
15690.0 0.006293
15710.0 0.0063188
15730.0 0.0063448
15750.0 0.006371
15770.0 0.0063974
15790.0 0.006424
15810.0 0.0064507
15830.0 0.0064776
15850.0 0.0065048
15870.0 0.006532
15890.0 0.0065594
15910.0 0.006587
15930.0 0.0066147
15950.0 0.0066425
15970.0 0.0066704
15990.0 0.0066985
16010.0 0.0067266
16030.0 0.0067547
16050.0 0.006783
16070.0 0.0068114
16090.0 0.0068398
16110.0 0.0068682
16130.0 0.0068967
16150.0 0.0069252
16170.0 0.0069537
16190.0 0.0069822
16210.0 0.0070107
16230.0 0.0070391
16250.0 0.0070676
16270.0 0.0070961
16290.0 0.0071244
16310.0 0.0071527
16330.0 0.0071809
16350.0 0.007209
16370.0 0.007237
16390.0 0.007265
16410.0 0.0072928
16430.0 0.0073204
16450.0 0.0073479
16470.0 0.0073754
16490.0 0.0074026
16510.0 0.0074295
16530.0 0.0074564
16550.0 0.0074831
16570.0 0.0075094
16590.0 0.0075356
16610.0 0.0075616
16630.0 0.0075873
16650.0 0.0076127
16670.0 0.007638
16690.0 0.0076629
16710.0 0.0076874
16730.0 0.0077117
16750.0 0.0077357
16770.0 0.0077594
16790.0 0.0077826
16810.0 0.0078056
16830.0 0.0078283
16850.0 0.0078504
16870.0 0.0078723
16890.0 0.0078938
16910.0 0.0079148
16930.0 0.0079354
16950.0 0.0079556
16970.0 0.0079754
16990.0 0.0079947
17010.0 0.0080136
17030.0 0.008032
17050.0 0.0080499
17070.0 0.0080673
17090.0 0.0080843
17110.0 0.0081008
17130.0 0.0081167
17150.0 0.0081321
17170.0 0.008147
17190.0 0.0081614
17210.0 0.0081752
17230.0 0.0081885
17250.0 0.0082012
17270.0 0.0082133
17290.0 0.0082248
17310.0 0.0082359
17330.0 0.0082462
17350.0 0.008256
17370.0 0.0082653
17390.0 0.0082739
17410.0 0.0082819
17430.0 0.0082893
17450.0 0.0082961
17470.0 0.0083022
17490.0 0.0083077
17510.0 0.0083126
17530.0 0.0083169
17550.0 0.0083205
17570.0 0.0083235
17590.0 0.0083259
17610.0 0.0083275
17630.0 0.0083286
17650.0 0.008329
17670.0 0.0083288
17690.0 0.0083278
17710.0 0.0083263
17730.0 0.0083241
17750.0 0.0083212
17770.0 0.0083177
17790.0 0.0083136
17810.0 0.0083088
17830.0 0.0083033
17850.0 0.0082972
17870.0 0.0082905
17890.0 0.0082831
17910.0 0.008275
17930.0 0.0082664
17950.0 0.0082571
17970.0 0.0082471
17990.0 0.0082366
18010.0 0.0082254
18030.0 0.0082135
18050.0 0.0082011
18070.0 0.0081881
18090.0 0.0081744
18110.0 0.0081601
18130.0 0.0081453
18150.0 0.0081298
18170.0 0.0081137
18190.0 0.0080971
18210.0 0.00808
18230.0 0.0080621
18250.0 0.0080438
18270.0 0.0080249
18290.0 0.0080055
18310.0 0.0079855
18330.0 0.007965
18350.0 0.007944
18370.0 0.0079224
18390.0 0.0079003
18410.0 0.0078777
18430.0 0.0078547
18450.0 0.0078311
18470.0 0.007807
18490.0 0.0077826
18510.0 0.0077576
18530.0 0.0077322
18550.0 0.0077064
18570.0 0.0076801
18590.0 0.0076533
18610.0 0.0076262
18630.0 0.0075987
18650.0 0.0075708
18670.0 0.0075424
18690.0 0.0075138
18710.0 0.0074848
18730.0 0.0074553
18750.0 0.0074256
18770.0 0.0073956
18790.0 0.0073651
18810.0 0.0073343
18830.0 0.0073033
18850.0 0.007272
18870.0 0.0072404
18890.0 0.0072085
18910.0 0.0071764
18930.0 0.0071439
18950.0 0.0071112
18970.0 0.0070783
18990.0 0.0070452
19010.0 0.0070118
19030.0 0.0069782
19050.0 0.0069445
19070.0 0.0069105
19090.0 0.0068764
19110.0 0.0068422
19130.0 0.0068077
19150.0 0.006773
19170.0 0.0067383
19190.0 0.0067034
19210.0 0.0066684
19230.0 0.0066332
19250.0 0.0065981
19270.0 0.0065627
19290.0 0.0065273
19310.0 0.0064918
19330.0 0.0064563
19350.0 0.0064206
19370.0 0.0063849
19390.0 0.0063492
19410.0 0.0063135
19430.0 0.0062776
19450.0 0.0062419
19470.0 0.0062061
19490.0 0.0061702
19510.0 0.0061344
19530.0 0.0060986
19550.0 0.0060628
19570.0 0.0060269
19590.0 0.0059912
19610.0 0.0059555
19630.0 0.0059198
19650.0 0.0058842
19670.0 0.0058487
19690.0 0.0058132
19710.0 0.0057777
19730.0 0.0057424
19750.0 0.0057071
19770.0 0.0056719
19790.0 0.0056368
19810.0 0.0056018
19830.0 0.0055667
19850.0 0.0055315
19870.0 0.005496
19890.0 0.0054594
19910.0 0.0054207
19930.0 0.0053791
19950.0 0.0053328
19970.0 0.0052791
19990.0 0.0052167
20010.0 0.0051467
20030.0 0.0050662
20050.0 0.0049756
20070.0 0.0048798
20090.0 0.0047797
20110.0 0.004672
20130.0 0.0045655
20150.0 0.004462
20170.0 0.004358
20190.0 0.0042552
20210.0 0.0041585
20230.0 0.004065
20250.0 0.0039724
20270.0 0.0038852
20290.0 0.0038036
20310.0 0.0037246
20330.0 0.0036481
20350.0 0.0035794
20370.0 0.0035141
20390.0 0.0034516
20410.0 0.0033939
20430.0 0.0033411
20450.0 0.0032903
20470.0 0.0032432
20490.0 0.0032005
20510.0 0.0031607
20530.0 0.0031234
20550.0 0.0030893
20570.0 0.0030583
20590.0 0.0030291
20610.0 0.0030022
20630.0 0.0029774
20650.0 0.0029541
20670.0 0.0029322
20690.0 0.0029117
20710.0 0.0028921
20730.0 0.0028732
20750.0 0.0028548
20770.0 0.0028366
20790.0 0.0028186
20810.0 0.0028004
20830.0 0.0027819
20850.0 0.0027631
20870.0 0.0027436
20890.0 0.0027235
20910.0 0.0027028
20930.0 0.0026814
20950.0 0.002659
20970.0 0.0026361
20990.0 0.0026125
21010.0 0.0025879
21030.0 0.0025627
21050.0 0.0025372
21070.0 0.002511
21090.0 0.0024839
21110.0 0.0024571
21130.0 0.0024302
21150.0 0.0024025
21170.0 0.0023749
21190.0 0.0023478
21210.0 0.0023203
21230.0 0.0022925
21250.0 0.0022656
21270.0 0.0022389
21290.0 0.0022122
21310.0 0.0021859
21330.0 0.0021608
21350.0 0.0021358
21370.0 0.0021112
21390.0 0.0020877
21410.0 0.002065
21430.0 0.0020425
21450.0 0.0020214
21470.0 0.0020015
21490.0 0.0019823
21510.0 0.001964
21530.0 0.0019471
21550.0 0.0019313
21570.0 0.0019163
21590.0 0.0019025
21610.0 0.0018899
21630.0 0.0018782
21650.0 0.0018675
21670.0 0.0018578
21690.0 0.0018489
21710.0 0.0018408
21730.0 0.0018334
21750.0 0.0018266
21770.0 0.0018205
21790.0 0.0018149
21810.0 0.0018095
21830.0 0.0018045
21850.0 0.0017998
21870.0 0.0017951
21890.0 0.0017904
21910.0 0.0017858
21930.0 0.001781
21950.0 0.001776
21970.0 0.0017708
21990.0 0.0017655
22010.0 0.0017597
22030.0 0.0017536
22050.0 0.0017472
22070.0 0.0017404
22090.0 0.0017332
22110.0 0.0017257
22130.0 0.0017178
22150.0 0.0017097
22170.0 0.0017013
22190.0 0.0016925
22210.0 0.0016835
22230.0 0.0016744
22250.0 0.0016649
22270.0 0.0016551
22290.0 0.0016451
22310.0 0.0016349
22330.0 0.001624
22350.0 0.0016128
22370.0 0.0016013
22390.0 0.001589
22410.0 0.0015758
22430.0 0.0015623
22450.0 0.001548
22470.0 0.0015325
22490.0 0.0015162
22510.0 0.0014995
22530.0 0.0014814
22550.0 0.0014621
22570.0 0.0014426
22590.0 0.0014225
22610.0 0.0014012
22630.0 0.0013796
22650.0 0.0013583
22670.0 0.0013363
22690.0 0.0013141
22710.0 0.0012927
22730.0 0.0012715
22750.0 0.0012499
22770.0 0.0012296
22790.0 0.0012103
22810.0 0.0011915
22830.0 0.0011734
22850.0 0.0011568
22870.0 0.001141
22890.0 0.0011257
22910.0 0.0011118
22930.0 0.0010989
22950.0 0.0010866
22970.0 0.001075
22990.0 0.0010646
23010.0 0.0010547
23030.0 0.0010452
23050.0 0.0010362
23070.0 0.0010278
23090.0 0.0010193
23110.0 0.001011
23130.0 0.001003
23150.0 0.00099506
23170.0 0.00098693
23190.0 0.00097894
23210.0 0.0009711
23230.0 0.00096306
23250.0 0.0009551
23270.0 0.00094741
23290.0 0.00093977
23310.0 0.00093213
23330.0 0.00092499
23350.0 0.00091819
23370.0 0.00091157
23390.0 0.00090531
23410.0 0.00089954
23430.0 0.000894
23450.0 0.00088869
23470.0 0.00088374
23490.0 0.00087905
23510.0 0.00087446
23530.0 0.00087005
23550.0 0.00086589
23570.0 0.00086178
23590.0 0.00085777
23610.0 0.00085395
23630.0 0.00085029
23650.0 0.00084676
23670.0 0.00084355
23690.0 0.00084069
23710.0 0.00083825
23730.0 0.00083638
23750.0 0.00083514
23770.0 0.00083462
23790.0 0.00083504
23810.0 0.00083643
23830.0 0.00083871
23850.0 0.00084234
23870.0 0.00084731
23890.0 0.00085319
23910.0 0.00086025
23930.0 0.00086878
23950.0 0.0008782
23970.0 0.00088806
23990.0 0.00089915
24010.0 0.00091096
24030.0 0.00092272
24050.0 0.00093473
24070.0 0.00094763
24090.0 0.00095989
24110.0 0.00097166
24130.0 0.00098366
24150.0 0.00099551
24170.0 0.0010065
24190.0 0.0010175
24210.0 0.0010287
24230.0 0.0010394
