#lamb flux
1010.0 3.4257e-06
1030.0 3.8484e-06
1050.0 4.3345e-06
1070.0 4.8818e-06
1090.0 5.5034e-06
1110.0 6.1409e-06
1130.0 6.7826e-06
1150.0 7.4548e-06
1170.0 8.1482e-06
1190.0 8.8057e-06
1210.0 9.4721e-06
1230.0 1.0161e-05
1250.0 1.0835e-05
1270.0 1.1491e-05
1290.0 1.2183e-05
1310.0 1.2875e-05
1330.0 1.3538e-05
1350.0 1.4209e-05
1370.0 1.4902e-05
1390.0 1.5577e-05
1410.0 1.6233e-05
1430.0 1.6918e-05
1450.0 1.7603e-05
1470.0 1.8265e-05
1490.0 1.8933e-05
1510.0 1.964e-05
1530.0 2.0309e-05
1550.0 2.0969e-05
1570.0 2.1652e-05
1590.0 2.2334e-05
1610.0 2.2987e-05
1630.0 2.3658e-05
1650.0 2.4348e-05
1670.0 2.5013e-05
1690.0 2.567e-05
1710.0 2.6351e-05
1730.0 2.7035e-05
1750.0 2.7677e-05
1770.0 2.8336e-05
1790.0 2.9007e-05
1810.0 2.9654e-05
1830.0 3.0287e-05
1850.0 3.0958e-05
1870.0 3.1607e-05
1890.0 3.223e-05
1910.0 3.2863e-05
1930.0 3.3506e-05
1950.0 3.4114e-05
1970.0 3.4708e-05
1990.0 3.5319e-05
2010.0 3.5912e-05
2030.0 3.6473e-05
2050.0 3.7044e-05
2070.0 3.7622e-05
2090.0 3.815e-05
2110.0 3.8665e-05
2130.0 3.9184e-05
2150.0 3.9678e-05
2170.0 4.0128e-05
2190.0 4.0585e-05
2210.0 4.1027e-05
2230.0 4.1426e-05
2250.0 4.1801e-05
2270.0 4.2183e-05
2290.0 4.2522e-05
2310.0 4.2814e-05
2330.0 4.31e-05
2350.0 4.3367e-05
2370.0 4.3585e-05
2390.0 4.3789e-05
2410.0 4.4006e-05
2430.0 4.4199e-05
2450.0 4.4385e-05
2470.0 4.4618e-05
2490.0 4.4926e-05
2510.0 4.53e-05
2530.0 4.5903e-05
2550.0 4.6978e-05
2570.0 4.8748e-05
2590.0 5.1497e-05
2610.0 5.602e-05
2630.0 6.2458e-05
2650.0 7.0398e-05
2670.0 7.988e-05
2690.0 9.0452e-05
2710.0 0.0001005
2730.0 0.00010925
2750.0 0.00011684
2770.0 0.00012244
2790.0 0.00012605
2810.0 0.0001283
2830.0 0.00012964
2850.0 0.00013009
2870.0 0.00013012
2890.0 0.00013003
2910.0 0.00012981
2930.0 0.00012946
2950.0 0.00012916
2970.0 0.00012891
2990.0 0.00012859
3010.0 0.0023188
3030.0 0.0023114
3050.0 0.0023038
3070.0 0.0022939
3090.0 0.0022831
3110.0 0.0022688
3130.0 0.0022479
3150.0 0.0022193
3170.0 0.0021807
3190.0 0.0021329
3210.0 0.0020804
3230.0 0.0020282
3250.0 0.0019882
3270.0 0.0019616
3290.0 0.0019628
3310.0 0.0019807
3330.0 0.0020283
3350.0 0.0020965
3370.0 0.0021865
3390.0 0.0022956
3410.0 0.002412
3430.0 0.0025414
3450.0 0.0026883
3470.0 0.0028461
3490.0 0.0030103
3510.0 0.0031931
3530.0 0.0033862
3550.0 0.0035755
3570.0 0.0037693
3590.0 0.0039868
3610.0 0.0042018
3630.0 0.0044336
3650.0 0.0046702
3670.0 0.0048936
3690.0 0.0050655
3710.0 0.0051728
3730.0 0.0052094
3750.0 0.0051716
3770.0 0.0047144
3790.0 0.0042295
3810.0 0.0039484
3830.0 0.0034072
3850.0 0.0024554
3870.0 0.0018846
3890.0 0.0031681
3910.0 0.0050414
3930.0 0.0061037
3950.0 0.0060992
3970.0 0.0060965
3990.0 0.0071508
4010.0 0.0088756
4030.0 0.0091326
4050.0 0.0082214
4070.0 0.0071501
4090.0 0.0067011
4110.0 0.0080401
4130.0 0.0083266
4150.0 0.0079312
4170.0 0.0081887
4190.0 0.008405
4210.0 0.0082835
4230.0 0.0089923
4250.0 0.009795
4270.0 0.0098965
4290.0 0.010051
4310.0 0.010447
4330.0 0.011551
4350.0 0.013175
4370.0 0.014895
4390.0 0.014348
4410.0 0.012029
4430.0 0.010137
4450.0 0.0086245
4470.0 0.0084407
4490.0 0.009163
4510.0 0.010028
4530.0 0.010971
4550.0 0.012779
4570.0 0.01537
4590.0 0.018814
4610.0 0.023644
4630.0 0.028328
4650.0 0.029313
4670.0 0.028746
4690.0 0.030613
4710.0 0.031994
4730.0 0.027195
4750.0 0.019777
4770.0 0.01623
4790.0 0.015488
4810.0 0.014386
4830.0 0.013641
4850.0 0.015711
4870.0 0.020055
4890.0 0.022754
4910.0 0.01957
4930.0 0.017473
4950.0 0.019659
4970.0 0.026186
4990.0 0.033507
5010.0 0.035117
5030.0 0.029081
5050.0 0.019146
5070.0 0.013247
5090.0 0.011781
5110.0 0.012311
5130.0 0.013203
5150.0 0.013899
5170.0 0.013899
5190.0 0.013661
5210.0 0.013221
5230.0 0.013438
5250.0 0.01431
5270.0 0.016715
5290.0 0.019311
5310.0 0.02099
5330.0 0.021536
5350.0 0.021877
5370.0 0.023761
5390.0 0.025249
5410.0 0.024562
5430.0 0.021508
5450.0 0.019925
5470.0 0.022466
5490.0 0.028768
5510.0 0.036473
5530.0 0.040213
5550.0 0.039269
5570.0 0.035821
5590.0 0.032243
5610.0 0.029741
5630.0 0.028196
5650.0 0.028953
5670.0 0.028365
5690.0 0.026638
5710.0 0.025107
5730.0 0.022528
5750.0 0.016776
5770.0 0.014713
5790.0 0.016417
5810.0 0.019798
5830.0 0.022168
5850.0 0.023904
5870.0 0.024449
5890.0 0.023552
5910.0 0.022555
5930.0 0.022704
5950.0 0.023837
5970.0 0.024956
5990.0 0.023706
6010.0 0.020058
6030.0 0.016671
6050.0 0.014542
6070.0 0.014412
6090.0 0.016168
6110.0 0.017628
6130.0 0.016979
6150.0 0.015951
6170.0 0.017659
6190.0 0.02123
6210.0 0.025475
6230.0 0.028717
6250.0 0.028596
6270.0 0.025798
6290.0 0.021355
6310.0 0.017039
6330.0 0.013678
6350.0 0.012407
6370.0 0.013528
6390.0 0.015878
6410.0 0.018197
6430.0 0.021049
6450.0 0.024465
6470.0 0.030227
6490.0 0.037067
6510.0 0.040694
6530.0 0.037832
6550.0 0.03492
6570.0 0.034355
6590.0 0.033013
6610.0 0.029844
6630.0 0.026794
6650.0 0.02477
6670.0 0.02572
6690.0 0.02558
6710.0 0.022678
6730.0 0.021018
6750.0 0.01869
6770.0 0.017993
6790.0 0.019407
6810.0 0.020451
6830.0 0.020951
6850.0 0.020592
6870.0 0.01974
6890.0 0.01934
6910.0 0.018387
6930.0 0.01737
6950.0 0.017471
6970.0 0.017834
6990.0 0.019855
7010.0 0.021126
7030.0 0.01924
7050.0 0.018022
7070.0 0.017335
7090.0 0.015597
7110.0 0.014531
7130.0 0.01479
7150.0 0.01536
7170.0 0.01618
7190.0 0.016205
7210.0 0.016286
7230.0 0.017154
7250.0 0.019755
7270.0 0.023076
7290.0 0.024731
7310.0 0.023962
7330.0 0.021312
7350.0 0.019158
7370.0 0.01884
7390.0 0.019018
7410.0 0.019714
7430.0 0.021585
7450.0 0.023398
7470.0 0.025928
7490.0 0.02865
7510.0 0.026338
7530.0 0.025212
7550.0 0.021172
7570.0 0.017792
7590.0 0.014661
7610.0 0.013457
7630.0 0.014079
7650.0 0.0161
7670.0 0.017538
7690.0 0.019779
7710.0 0.022047
7730.0 0.023054
7750.0 0.023108
7770.0 0.02302
7790.0 0.022681
7810.0 0.023559
7830.0 0.022772
7850.0 0.020316
7870.0 0.018347
7890.0 0.017092
7910.0 0.015416
7930.0 0.013191
7950.0 0.012074
7970.0 0.012003
7990.0 0.012562
8010.0 0.013336
8030.0 0.013529
8050.0 0.013473
8070.0 0.01309
8090.0 0.013029
8110.0 0.01238
8130.0 0.011538
8150.0 0.010846
8170.0 0.010581
8190.0 0.010806
8210.0 0.010834
8230.0 0.011265
8250.0 0.011195
8270.0 0.010006
8290.0 0.0076854
8310.0 0.005233
8330.0 0.0034511
8350.0 0.0024494
8370.0 0.002908
8390.0 0.0032176
8410.0 0.0041206
8430.0 0.0049926
8450.0 0.0054697
8470.0 0.0056727
8490.0 0.0058251
8510.0 0.0060845
8530.0 0.0068035
8550.0 0.0075165
8570.0 0.0088308
8590.0 0.01083
8610.0 0.012681
8630.0 0.014822
8650.0 0.016669
8670.0 0.016422
8690.0 0.015388
8710.0 0.014542
8730.0 0.013743
8750.0 0.013144
8770.0 0.012755
8790.0 0.012357
8810.0 0.011512
8830.0 0.01038
8850.0 0.0089871
8870.0 0.0076778
8890.0 0.0069346
8910.0 0.0070127
8930.0 0.0070031
8950.0 0.0076037
8970.0 0.0077796
8990.0 0.0080808
9010.0 0.0083801
9030.0 0.008447
9050.0 0.0084785
9070.0 0.0085021
9090.0 0.0085196
9110.0 0.0085283
9130.0 0.0085422
9150.0 0.0085615
9170.0 0.0085807
9190.0 0.0085996
9210.0 0.0086292
9230.0 0.0086511
9250.0 0.0086764
9270.0 0.0087032
9290.0 0.0087315
9310.0 0.0087624
9330.0 0.0087952
9350.0 0.0088289
9370.0 0.0088647
9390.0 0.0089027
9410.0 0.0089418
9430.0 0.0089818
9450.0 0.0090247
9470.0 0.0090689
9490.0 0.009114
9510.0 0.0091609
9530.0 0.00921
9550.0 0.0092594
9570.0 0.0093101
9590.0 0.0093629
9610.0 0.0094169
9630.0 0.0094714
9650.0 0.0095276
9670.0 0.0095857
9690.0 0.0096441
9710.0 0.0097035
9730.0 0.0097646
9750.0 0.0098266
9770.0 0.0098883
9790.0 0.0099519
9810.0 0.010017
9830.0 0.010082
9850.0 0.010147
9870.0 0.010214
9890.0 0.010282
9910.0 0.010349
9930.0 0.010417
9950.0 0.010486
9970.0 0.010554
9990.0 0.010623
10010.0 0.010449
10030.0 0.010517
10050.0 0.010583
10070.0 0.010647
10090.0 0.010716
10110.0 0.010784
10130.0 0.010851
10150.0 0.010919
10170.0 0.010985
10190.0 0.01105
10210.0 0.011116
10230.0 0.011182
10250.0 0.011246
10270.0 0.01131
10290.0 0.011374
10310.0 0.011436
10330.0 0.011496
10350.0 0.011557
10370.0 0.011617
10390.0 0.011674
10410.0 0.011731
10430.0 0.011788
10450.0 0.011843
10470.0 0.011896
10490.0 0.011948
10510.0 0.011999
10530.0 0.012047
10550.0 0.012094
10570.0 0.012141
10590.0 0.012185
10610.0 0.012227
10630.0 0.012268
10650.0 0.012307
10670.0 0.012343
10690.0 0.012378
10710.0 0.012412
10730.0 0.012442
10750.0 0.012469
10770.0 0.012497
10790.0 0.012522
10810.0 0.012544
10830.0 0.012563
10850.0 0.012581
10870.0 0.012592
10890.0 0.012595
10910.0 0.01259
10930.0 0.012568
10950.0 0.012519
10970.0 0.012439
10990.0 0.012325
11010.0 0.011909
11030.0 0.011699
11050.0 0.011455
11070.0 0.01117
11090.0 0.010832
11110.0 0.010487
11130.0 0.01013
11150.0 0.0097499
11170.0 0.0093649
11190.0 0.0090001
11210.0 0.008633
11230.0 0.0082687
11250.0 0.0079338
11270.0 0.0076246
11290.0 0.0073273
11310.0 0.0070577
11330.0 0.0068298
11350.0 0.0066214
11370.0 0.0064338
11390.0 0.0062734
11410.0 0.0061321
11430.0 0.0059963
11450.0 0.0058715
11470.0 0.0057539
11490.0 0.0056328
11510.0 0.0055032
11530.0 0.0053718
11550.0 0.0052329
11570.0 0.0050792
11590.0 0.0049177
11610.0 0.0047541
11630.0 0.004579
11650.0 0.0043966
11670.0 0.0042225
11690.0 0.0040516
11710.0 0.0038814
11730.0 0.003722
11750.0 0.003579
11770.0 0.0034427
11790.0 0.0033182
11810.0 0.0032105
11830.0 0.0031149
11850.0 0.0030267
11870.0 0.002951
11890.0 0.0028852
11910.0 0.0028233
11930.0 0.0027646
11950.0 0.0027097
11970.0 0.0026545
11990.0 0.0025962
12010.0 0.0025369
12030.0 0.0024764
12050.0 0.0024117
12070.0 0.0023439
12090.0 0.0022787
12110.0 0.0022133
12130.0 0.0021484
12150.0 0.0020888
12170.0 0.0020361
12190.0 0.0019884
12210.0 0.0019506
12230.0 0.0019243
12250.0 0.0019089
12270.0 0.0019059
12290.0 0.0019151
12310.0 0.0019352
12330.0 0.0019679
12350.0 0.0020112
12370.0 0.0020613
12390.0 0.0021194
12410.0 0.002187
12430.0 0.0022539
12450.0 0.0023213
12470.0 0.0023906
12490.0 0.0024571
12510.0 0.002516
12530.0 0.0025713
12550.0 0.0026207
12570.0 0.0026597
12590.0 0.0026894
12610.0 0.002711
12630.0 0.0027222
12650.0 0.0027228
12670.0 0.0027149
12690.0 0.0026981
12710.0 0.0026736
12730.0 0.0026426
12750.0 0.0026041
12770.0 0.0025608
12790.0 0.0025141
12810.0 0.0024632
12830.0 0.0024081
12850.0 0.0023527
12870.0 0.0022957
12890.0 0.0022352
12910.0 0.0021739
12930.0 0.0021131
12950.0 0.0020491
12970.0 0.0019829
12990.0 0.0019186
13010.0 0.0018536
13030.0 0.0017864
13050.0 0.0017204
13070.0 0.0016573
13090.0 0.0015932
13110.0 0.0015307
13130.0 0.0014728
13150.0 0.0014182
13170.0 0.0013656
13190.0 0.0013197
13210.0 0.0012805
13230.0 0.0012462
13250.0 0.0012184
13270.0 0.0011982
13290.0 0.0011846
13310.0 0.0011779
13330.0 0.0011783
13350.0 0.0011847
13370.0 0.0011975
13390.0 0.0012161
13410.0 0.0012377
13430.0 0.0012631
13450.0 0.0012921
13470.0 0.0013219
13490.0 0.0013513
13510.0 0.0013828
13530.0 0.0014127
13550.0 0.0014397
13570.0 0.0014648
13590.0 0.001488
13610.0 0.0015071
13630.0 0.0015226
13650.0 0.0015356
13670.0 0.001545
13690.0 0.0015507
13710.0 0.0015535
13730.0 0.0015534
13750.0 0.0015503
13770.0 0.0015447
13790.0 0.0015368
13810.0 0.0015266
13830.0 0.0015148
13850.0 0.0015011
13870.0 0.0014854
13890.0 0.0014687
13910.0 0.0014507
13930.0 0.001431
13950.0 0.0014102
13970.0 0.0013896
13990.0 0.0013679
14010.0 0.0013455
14030.0 0.0013238
14050.0 0.0013025
14070.0 0.0012807
14090.0 0.0012605
14110.0 0.0012421
14130.0 0.0012249
14150.0 0.0012095
14170.0 0.0011968
14190.0 0.0011866
14210.0 0.0011787
14230.0 0.0011738
14250.0 0.0011716
14270.0 0.0011723
14290.0 0.0011761
14310.0 0.0011822
14330.0 0.0011907
14350.0 0.0012019
14370.0 0.0012148
14390.0 0.0012287
14410.0 0.0012445
14430.0 0.0012615
14450.0 0.0012786
14470.0 0.0012962
14490.0 0.0013153
14510.0 0.0013341
14530.0 0.0013528
14550.0 0.001373
14570.0 0.0013943
14590.0 0.001416
14610.0 0.0014399
14630.0 0.001467
14650.0 0.0014959
14670.0 0.0015271
14690.0 0.0015625
14710.0 0.001602
14730.0 0.0016422
14750.0 0.0016862
14770.0 0.0017342
14790.0 0.0017829
14810.0 0.0018319
14830.0 0.0018847
14850.0 0.0019365
14870.0 0.0019852
14890.0 0.0020326
14910.0 0.0020778
14930.0 0.0021171
14950.0 0.0021507
14970.0 0.0021796
14990.0 0.0022017
15010.0 0.0022169
15030.0 0.0022268
15050.0 0.0022318
15070.0 0.0022328
15090.0 0.0022313
15110.0 0.002228
15130.0 0.0022237
15150.0 0.002219
15170.0 0.002214
15190.0 0.0022087
15210.0 0.0022037
15230.0 0.0021986
15250.0 0.0021934
15270.0 0.0021882
15290.0 0.0021834
15310.0 0.0021784
15330.0 0.0021733
15350.0 0.0021685
15370.0 0.0021637
15390.0 0.0021585
15410.0 0.0021536
15430.0 0.0021488
15450.0 0.0021439
15470.0 0.0021389
15490.0 0.0021342
15510.0 0.0021295
15530.0 0.0021245
15550.0 0.0021197
15570.0 0.0021151
15590.0 0.0021102
15610.0 0.0021051
15630.0 0.0021005
15650.0 0.0020957
15670.0 0.0020908
15690.0 0.0020859
15710.0 0.0020813
15730.0 0.0020764
15750.0 0.0020714
15770.0 0.0020667
15790.0 0.0020619
15810.0 0.0020568
15830.0 0.0020519
15850.0 0.0020471
15870.0 0.0020421
15890.0 0.0020371
15910.0 0.0020323
15930.0 0.0020274
15950.0 0.0020222
15970.0 0.0020172
15990.0 0.0020122
16010.0 0.002007
16030.0 0.0020018
16050.0 0.0019969
16070.0 0.0019917
16090.0 0.0019864
16110.0 0.0019813
16130.0 0.0019762
16150.0 0.0019707
16170.0 0.0019654
16190.0 0.0019602
16210.0 0.0019548
16230.0 0.0019493
16250.0 0.0019439
16270.0 0.0019386
16290.0 0.001933
16310.0 0.0019274
16330.0 0.001922
16350.0 0.0019164
16370.0 0.0019105
16390.0 0.001905
16410.0 0.0018994
16430.0 0.0018935
16450.0 0.0018877
16470.0 0.0018821
16490.0 0.0018762
16510.0 0.0018701
16530.0 0.0018643
16550.0 0.0018584
16570.0 0.0018522
16590.0 0.0018461
16610.0 0.0018402
16630.0 0.0018341
16650.0 0.0018278
16670.0 0.0018217
16690.0 0.0018156
16710.0 0.0018091
16730.0 0.0018028
16750.0 0.0017966
16770.0 0.0017901
16790.0 0.0017835
16810.0 0.0017772
16830.0 0.0017708
16850.0 0.0017641
16870.0 0.0017576
16890.0 0.0017511
16910.0 0.0017444
16930.0 0.0017375
16950.0 0.0017309
16970.0 0.0017242
16990.0 0.0017173
17010.0 0.0017105
17030.0 0.0017038
17050.0 0.0016968
17070.0 0.0016898
17090.0 0.0016829
17110.0 0.001676
17130.0 0.0016687
17150.0 0.0016617
17170.0 0.0016547
17190.0 0.0016475
17210.0 0.0016403
17230.0 0.0016333
17250.0 0.0016261
17270.0 0.0016186
17290.0 0.0016114
17310.0 0.0016042
17330.0 0.0015968
17350.0 0.0015893
17370.0 0.0015821
17390.0 0.0015747
17410.0 0.0015672
17430.0 0.0015598
17450.0 0.0015525
17470.0 0.0015448
17490.0 0.0015371
17510.0 0.0015297
17530.0 0.0015222
17550.0 0.0015144
17570.0 0.0015069
17590.0 0.0014995
17610.0 0.0014917
17630.0 0.001484
17650.0 0.0014764
17670.0 0.0014687
17690.0 0.0014608
17710.0 0.0014532
17730.0 0.0014455
17750.0 0.0014377
17770.0 0.0014299
17790.0 0.0014223
17810.0 0.0014144
17830.0 0.0014065
17850.0 0.0013988
17870.0 0.001391
17890.0 0.001383
17910.0 0.0013751
17930.0 0.0013675
17950.0 0.0013596
17970.0 0.0013517
17990.0 0.0013439
18010.0 0.0013362
18030.0 0.0013281
18050.0 0.0013202
18070.0 0.0013124
18090.0 0.0013045
18110.0 0.0012965
18130.0 0.0012887
18150.0 0.0012809
18170.0 0.0012729
18190.0 0.0012651
18210.0 0.0012574
18230.0 0.0012494
18250.0 0.0012413
18270.0 0.0012336
18290.0 0.0012258
18310.0 0.0012178
18330.0 0.00121
18350.0 0.0012023
18370.0 0.0011943
18390.0 0.0011864
18410.0 0.0011787
18430.0 0.0011709
18450.0 0.0011629
18470.0 0.0011551
18490.0 0.0011475
18510.0 0.0011396
18530.0 0.0011318
18550.0 0.0011242
18570.0 0.0011165
18590.0 0.0011086
18610.0 0.0011009
18630.0 0.0010933
18650.0 0.0010855
18670.0 0.0010777
18690.0 0.0010702
18710.0 0.0010626
18730.0 0.0010548
18750.0 0.0010473
18770.0 0.0010398
18790.0 0.001032
18810.0 0.0010243
18830.0 0.0010169
18850.0 0.0010094
18870.0 0.0010017
18890.0 0.00099432
18910.0 0.00098695
18930.0 0.00097936
18950.0 0.00097188
18970.0 0.00096458
18990.0 0.00095715
19010.0 0.00094951
19030.0 0.00094228
19050.0 0.00093501
19070.0 0.00092758
19090.0 0.00092027
19110.0 0.00091317
19130.0 0.00090581
19150.0 0.00089844
19170.0 0.00089131
19190.0 0.00088416
19210.0 0.00087683
19230.0 0.00086963
19250.0 0.00086267
19270.0 0.00085552
19290.0 0.00084835
19310.0 0.00084141
19330.0 0.00083444
19350.0 0.0008272
19370.0 0.00082021
19390.0 0.00081335
19410.0 0.00080634
19430.0 0.0007993
19450.0 0.00079255
19470.0 0.00078572
19490.0 0.00077875
19510.0 0.00077194
19530.0 0.00076526
19550.0 0.00075836
19570.0 0.00075146
19590.0 0.00074486
19610.0 0.00073818
19630.0 0.00073139
19650.0 0.00072477
19670.0 0.00071828
19690.0 0.00071155
19710.0 0.00070489
19730.0 0.00069844
19750.0 0.00069191
19770.0 0.0006852
19790.0 0.00067876
19810.0 0.00067241
19830.0 0.00066587
19850.0 0.00065937
19870.0 0.00065303
19890.0 0.00064641
19910.0 0.00063943
19930.0 0.00063235
19950.0 0.00062478
19970.0 0.00061622
19990.0 0.00060673
20010.0 0.00060575
20030.0 0.00059418
20050.0 0.00058143
20070.0 0.00056831
20090.0 0.00055482
20110.0 0.0005403
20130.0 0.00052622
20150.0 0.00051279
20170.0 0.0004994
20190.0 0.00048632
20210.0 0.00047436
20230.0 0.00046303
20250.0 0.00045204
20270.0 0.00044212
20290.0 0.00043328
20310.0 0.00042512
20330.0 0.00041775
20350.0 0.00041181
20370.0 0.00040677
20390.0 0.00040263
20410.0 0.00039957
20430.0 0.00039754
20450.0 0.0003964
20470.0 0.00039623
20490.0 0.00039692
20510.0 0.0003984
20530.0 0.00040074
20550.0 0.0004037
20570.0 0.0004071
20590.0 0.00041116
20610.0 0.00041568
20630.0 0.00042036
20650.0 0.00042537
20670.0 0.00043087
20690.0 0.00043625
20710.0 0.00044161
20730.0 0.00044721
20750.0 0.00045285
20770.0 0.0004582
20790.0 0.00046367
20810.0 0.00046931
20830.0 0.00047478
20850.0 0.00048019
20870.0 0.00048593
20890.0 0.00049176
20910.0 0.00049736
20930.0 0.00050321
20950.0 0.00050934
20970.0 0.00051536
20990.0 0.00052136
21010.0 0.00052775
21030.0 0.00053404
21050.0 0.00054006
21070.0 0.00054611
21090.0 0.00055219
21110.0 0.0005577
21130.0 0.00056285
21150.0 0.00056783
21170.0 0.00057231
21190.0 0.00057615
21210.0 0.00057963
21230.0 0.00058259
21250.0 0.00058478
21270.0 0.00058634
21290.0 0.00058728
21310.0 0.00058748
21330.0 0.00058694
21350.0 0.00058567
21370.0 0.00058358
21390.0 0.00058077
21410.0 0.00057722
21430.0 0.00057263
21450.0 0.00056737
21470.0 0.00056152
21490.0 0.00055482
21510.0 0.00054734
21530.0 0.00053959
21550.0 0.00053133
21570.0 0.00052235
21590.0 0.00051332
21610.0 0.00050438
21630.0 0.0004952
21650.0 0.00048594
21670.0 0.0004776
21690.0 0.00046958
21710.0 0.00046196
21730.0 0.00045523
21750.0 0.00044951
21770.0 0.00044441
21790.0 0.00044043
21810.0 0.00043763
21830.0 0.00043588
21850.0 0.00043526
21870.0 0.00043579
21890.0 0.00043734
21910.0 0.00044001
21930.0 0.00044373
21950.0 0.00044823
21970.0 0.00045365
21990.0 0.0004602
22010.0 0.00046717
22030.0 0.00047464
22050.0 0.0004829
22070.0 0.00049162
22090.0 0.00050024
22110.0 0.0005093
22130.0 0.00051872
22150.0 0.00052784
22170.0 0.00053671
22190.0 0.00054577
22210.0 0.00055441
22230.0 0.00056215
22250.0 0.00056953
22270.0 0.00057636
22290.0 0.00058218
22310.0 0.00058709
22330.0 0.00059128
22350.0 0.00059431
22370.0 0.00059617
22390.0 0.00059695
22410.0 0.0005965
22430.0 0.00059486
22450.0 0.00059209
22470.0 0.000588
22490.0 0.00058275
22510.0 0.0005766
22530.0 0.00056907
22550.0 0.00056028
22570.0 0.00055085
22590.0 0.00054052
22610.0 0.00052895
22630.0 0.00051671
22650.0 0.00050431
22670.0 0.00049084
22690.0 0.00047668
22710.0 0.0004626
22730.0 0.00044826
22750.0 0.00043289
22770.0 0.00041802
22790.0 0.00040364
22810.0 0.00038901
22830.0 0.00037455
22850.0 0.00036117
22870.0 0.0003482
22890.0 0.00033549
22910.0 0.000324
22930.0 0.0003137
22950.0 0.00030418
22970.0 0.00029573
22990.0 0.00028913
23010.0 0.00028372
23030.0 0.00027965
23050.0 0.00027718
23070.0 0.0002762
23090.0 0.00027671
23110.0 0.00027879
23130.0 0.00028221
23150.0 0.00028699
23170.0 0.00029325
23190.0 0.00030047
23210.0 0.00030842
23230.0 0.00031752
23250.0 0.00032726
23270.0 0.00033711
23290.0 0.00034739
23310.0 0.00035821
23330.0 0.00036835
23350.0 0.00037809
23370.0 0.00038764
23390.0 0.00039648
23410.0 0.00040416
23430.0 0.00041116
23450.0 0.00041722
23470.0 0.00042196
23490.0 0.00042551
23510.0 0.00042791
23530.0 0.00042895
23550.0 0.0004287
23570.0 0.00042722
23590.0 0.00042443
23610.0 0.00042057
23630.0 0.00041569
23650.0 0.00040946
23670.0 0.00040242
23690.0 0.00039479
23710.0 0.00038631
23730.0 0.00037704
