#lamb flux
1010.0 1.8752e-07
1030.0 2.0609e-07
1050.0 2.2747e-07
1070.0 2.5154e-07
1090.0 2.7888e-07
1110.0 3.0692e-07
1130.0 3.3516e-07
1150.0 3.6475e-07
1170.0 3.9528e-07
1190.0 4.2425e-07
1210.0 4.5362e-07
1230.0 4.8397e-07
1250.0 5.1374e-07
1270.0 5.4266e-07
1290.0 5.7323e-07
1310.0 6.038e-07
1330.0 6.3313e-07
1350.0 6.6282e-07
1370.0 6.9348e-07
1390.0 7.234e-07
1410.0 7.5246e-07
1430.0 7.8285e-07
1450.0 8.1325e-07
1470.0 8.4267e-07
1490.0 8.7241e-07
1510.0 9.0384e-07
1530.0 9.3364e-07
1550.0 9.6305e-07
1570.0 9.9348e-07
1590.0 1.0239e-06
1610.0 1.0531e-06
1630.0 1.0831e-06
1650.0 1.1138e-06
1670.0 1.1436e-06
1690.0 1.1729e-06
1710.0 1.2033e-06
1730.0 1.2339e-06
1750.0 1.2625e-06
1770.0 1.2919e-06
1790.0 1.3219e-06
1810.0 1.3507e-06
1830.0 1.3789e-06
1850.0 1.4088e-06
1870.0 1.4376e-06
1890.0 1.4653e-06
1910.0 1.4934e-06
1930.0 1.522e-06
1950.0 1.5489e-06
1970.0 1.5752e-06
1990.0 1.6023e-06
2010.0 1.6286e-06
2030.0 1.6535e-06
2050.0 1.6788e-06
2070.0 1.7044e-06
2090.0 1.7279e-06
2110.0 1.7509e-06
2130.0 1.7741e-06
2150.0 1.7963e-06
2170.0 1.8167e-06
2190.0 1.8374e-06
2210.0 1.8577e-06
2230.0 1.8762e-06
2250.0 1.8939e-06
2270.0 1.912e-06
2290.0 1.9285e-06
2310.0 1.9431e-06
2330.0 1.9577e-06
2350.0 1.9717e-06
2370.0 1.9838e-06
2390.0 1.9956e-06
2410.0 2.0082e-06
2430.0 2.0201e-06
2450.0 2.032e-06
2470.0 2.0465e-06
2490.0 2.0654e-06
2510.0 2.0888e-06
2530.0 2.1256e-06
2550.0 2.1891e-06
2570.0 2.2916e-06
2590.0 2.4474e-06
2610.0 2.6968e-06
2630.0 3.0448e-06
2650.0 3.4678e-06
2670.0 3.9666e-06
2690.0 4.5175e-06
2710.0 5.0395e-06
2730.0 5.4966e-06
2750.0 5.8976e-06
2770.0 6.2042e-06
2790.0 6.4176e-06
2810.0 6.5721e-06
2830.0 6.6916e-06
2850.0 6.7738e-06
2870.0 6.8425e-06
2890.0 6.912e-06
2910.0 6.9802e-06
2930.0 7.0422e-06
2950.0 7.1106e-06
2970.0 7.1836e-06
2990.0 7.2525e-06
3010.0 7.8359e-05
3030.0 7.8782e-05
3050.0 7.9183e-05
3070.0 7.945e-05
3090.0 7.9637e-05
3110.0 7.9603e-05
3130.0 7.9175e-05
3150.0 7.8254e-05
3170.0 7.6648e-05
3190.0 7.4373e-05
3210.0 7.1608e-05
3230.0 6.8686e-05
3250.0 6.8793e-05
3270.0 6.6562e-05
3290.0 6.9833e-05
3310.0 6.7123e-05
3330.0 6.872e-05
3350.0 7.1424e-05
3370.0 7.4906e-05
3390.0 7.9024e-05
3410.0 8.3326e-05
3430.0 8.8003e-05
3450.0 9.3141e-05
3470.0 9.846e-05
3490.0 0.00010371
3510.0 0.00011032
3530.0 0.00011815
3550.0 0.00012329
3570.0 0.00012709
3590.0 0.00013608
3610.0 0.00013828
3630.0 0.00014906
3650.0 0.00015724
3670.0 0.00016652
3690.0 0.0001694
3710.0 0.0001666
3730.0 0.00017068
3750.0 0.00017108
3770.0 0.00016262
3790.0 0.00015331
3810.0 0.00014661
3830.0 0.00014493
3850.0 0.00014321
3870.0 0.00015473
3890.0 0.00017969
3910.0 0.00021498
3930.0 0.00024855
3950.0 0.00026657
3970.0 0.00025926
3990.0 0.00023577
4010.0 0.00024649
4030.0 0.00027706
4050.0 0.0002861
4070.0 0.00025888
4090.0 0.00021416
4110.0 0.00022627
4130.0 0.00025939
4150.0 0.00026325
4170.0 0.00025426
4190.0 0.00024552
4210.0 0.0002691
4230.0 0.00028064
4250.0 0.00029844
4270.0 0.00030475
4290.0 0.00029654
4310.0 0.00031654
4330.0 0.00034811
4350.0 0.00039166
4370.0 0.00042733
4390.0 0.00041323
4410.0 0.00035166
4430.0 0.00028881
4450.0 0.00023966
4470.0 0.00023845
4490.0 0.00025874
4510.0 0.00031359
4530.0 0.00033944
4550.0 0.0003721
4570.0 0.00044276
4590.0 0.00054109
4610.0 0.00069605
4630.0 0.00084948
4650.0 0.00087623
4670.0 0.00087689
4690.0 0.0009166
4710.0 0.00092494
4730.0 0.00077987
4750.0 0.00057844
4770.0 0.00047162
4790.0 0.00043637
4810.0 0.00042161
4830.0 0.00042614
4850.0 0.00048386
4870.0 0.00057575
4890.0 0.00064676
4910.0 0.00057722
4930.0 0.00055638
4950.0 0.00064579
4970.0 0.0008131
4990.0 0.00099076
5010.0 0.0010155
5030.0 0.00084347
5050.0 0.00059144
5070.0 0.00042584
5090.0 0.00036784
5110.0 0.00037285
5130.0 0.00040089
5150.0 0.00040724
5170.0 0.00040174
5190.0 0.00039999
5210.0 0.00039692
5230.0 0.00041825
5250.0 0.00045092
5270.0 0.00050308
5290.0 0.00058086
5310.0 0.00064991
5330.0 0.00067828
5350.0 0.00069247
5370.0 0.00074771
5390.0 0.00078819
5410.0 0.00074386
5430.0 0.00066693
5450.0 0.00065786
5470.0 0.00076238
5490.0 0.00095856
5510.0 0.0011711
5530.0 0.0012614
5550.0 0.001234
5570.0 0.0011556
5590.0 0.0010603
5610.0 0.0010026
5630.0 0.00099593
5650.0 0.0010156
5670.0 0.00099069
5690.0 0.00092622
5710.0 0.00088711
5730.0 0.00079409
5750.0 0.00063131
5770.0 0.00055826
5790.0 0.0006111
5810.0 0.00070247
5830.0 0.00078863
5850.0 0.00082706
5870.0 0.00082758
5890.0 0.00079527
5910.0 0.0007578
5930.0 0.00075261
5950.0 0.00078554
5970.0 0.00081395
5990.0 0.00074223
6010.0 0.00062117
6030.0 0.00051826
6050.0 0.00046569
6070.0 0.00047288
6090.0 0.00052217
6110.0 0.00054923
6130.0 0.00052342
6150.0 0.00050894
6170.0 0.0005587
6190.0 0.00065727
6210.0 0.00078125
6230.0 0.00087761
6250.0 0.00085792
6270.0 0.00075825
6290.0 0.00063334
6310.0 0.00050975
6330.0 0.00042216
6350.0 0.00040025
6370.0 0.0004387
6390.0 0.00050265
6410.0 0.00058349
6430.0 0.00068618
6450.0 0.00080713
6470.0 0.00097205
6490.0 0.001161
6510.0 0.0012493
6530.0 0.0011852
6550.0 0.0011204
6570.0 0.0011097
6590.0 0.0010774
6610.0 0.0010067
6630.0 0.00093185
6650.0 0.0008735
6670.0 0.00087362
6690.0 0.00085333
6710.0 0.00078361
6730.0 0.00069691
6750.0 0.00062479
6770.0 0.00063262
6790.0 0.00067598
6810.0 0.000715
6830.0 0.0007267
6850.0 0.00069603
6870.0 0.00067301
6890.0 0.00065597
6910.0 0.00062115
6930.0 0.00060277
6950.0 0.00060336
6970.0 0.00061843
6990.0 0.00067132
7010.0 0.00070604
7030.0 0.00066844
7050.0 0.00061374
7070.0 0.00056161
7090.0 0.00049045
7110.0 0.00045056
7130.0 0.00046251
7150.0 0.0004824
7170.0 0.00050578
7190.0 0.00050231
7210.0 0.00050036
7230.0 0.00054626
7250.0 0.0006229
7270.0 0.00069688
7290.0 0.00073303
7310.0 0.00070317
7330.0 0.00063426
7350.0 0.00057814
7370.0 0.00055905
7390.0 0.00056895
7410.0 0.00060712
7430.0 0.00067855
7450.0 0.0007422
7470.0 0.00081197
7490.0 0.00086794
7510.0 0.00078537
7530.0 0.00073511
7550.0 0.00064528
7570.0 0.00054867
7590.0 0.0004541
7610.0 0.00042513
7630.0 0.00044934
7650.0 0.00051516
7670.0 0.00058115
7690.0 0.00064502
7710.0 0.00071664
7730.0 0.00075631
7750.0 0.00078171
7770.0 0.00079324
7790.0 0.00079751
7810.0 0.00080809
7830.0 0.00078045
7850.0 0.00073888
7870.0 0.00069406
7890.0 0.00064522
7910.0 0.00057971
7930.0 0.00051749
7950.0 0.0004653
7970.0 0.00045355
7990.0 0.00046713
8010.0 0.00050293
8030.0 0.00050893
8050.0 0.00051575
8070.0 0.00050456
8090.0 0.00050187
8110.0 0.00048403
8130.0 0.00045812
8150.0 0.00043096
8170.0 0.00042637
8190.0 0.0004341
8210.0 0.00043488
8230.0 0.00042702
8250.0 0.00041506
8270.0 0.00036767
8290.0 0.00028949
8310.0 0.0002132
8330.0 0.00014721
8350.0 0.00010734
8370.0 0.00011304
8390.0 0.00012706
8410.0 0.00015652
8430.0 0.00019207
8450.0 0.00021044
8470.0 0.00021983
8490.0 0.00023455
8510.0 0.00024877
8530.0 0.00027908
8550.0 0.00031902
8570.0 0.00036861
8590.0 0.0004279
8610.0 0.00049492
8630.0 0.00057479
8650.0 0.00062838
8670.0 0.00062597
8690.0 0.00060223
8710.0 0.00057441
8730.0 0.00054791
8750.0 0.00052247
8770.0 0.00051046
8790.0 0.00049222
8810.0 0.0004558
8830.0 0.00042378
8850.0 0.00036946
8870.0 0.00032898
8890.0 0.00029918
8910.0 0.00031379
8930.0 0.00030259
8950.0 0.00031299
8970.0 0.00031851
8990.0 0.000324
9010.0 0.00033375
9030.0 0.00032922
9050.0 0.00032896
9070.0 0.00032925
9090.0 0.00032951
9110.0 0.00032967
9130.0 0.00032993
9150.0 0.00033033
9170.0 0.00033048
9190.0 0.00033028
9210.0 0.00033246
9230.0 0.00033255
9250.0 0.00033291
9270.0 0.00033334
9290.0 0.00033384
9310.0 0.00033442
9330.0 0.00033506
9350.0 0.00033572
9370.0 0.00033643
9390.0 0.00033718
9410.0 0.00033796
9430.0 0.00033876
9450.0 0.00033962
9470.0 0.0003405
9490.0 0.00034141
9510.0 0.00034235
9530.0 0.00034333
9550.0 0.00034433
9570.0 0.00034536
9590.0 0.00034643
9610.0 0.00034752
9630.0 0.00034864
9650.0 0.00034978
9670.0 0.00035097
9690.0 0.00035217
9710.0 0.00035339
9730.0 0.00035465
9750.0 0.00035593
9770.0 0.00035721
9790.0 0.00035853
9810.0 0.00035988
9830.0 0.00036123
9850.0 0.00036261
9870.0 0.00036401
9890.0 0.00036542
9910.0 0.00036684
9930.0 0.00036827
9950.0 0.0003696
9970.0 0.00037109
9990.0 0.00037258
10010.0 0.00037235
10030.0 0.00037384
10050.0 0.00037524
10070.0 0.00037626
10090.0 0.00037791
10110.0 0.00037951
10130.0 0.00038108
10150.0 0.00038263
10170.0 0.00038413
10190.0 0.00038558
10210.0 0.00038705
10230.0 0.00038851
10250.0 0.00038992
10270.0 0.00039133
10290.0 0.00039275
10310.0 0.00039413
10330.0 0.00039545
10350.0 0.0003968
10370.0 0.00039813
10390.0 0.0003994
10410.0 0.00040065
10430.0 0.00040192
10450.0 0.00040313
10470.0 0.00040428
10490.0 0.00040544
10510.0 0.00040657
10530.0 0.00040761
10550.0 0.00040863
10570.0 0.00040966
10590.0 0.00041061
10610.0 0.00041151
10630.0 0.00041241
10650.0 0.00041326
10670.0 0.00041402
10690.0 0.00041475
10710.0 0.00041547
10730.0 0.00041611
10750.0 0.00041666
10770.0 0.00041724
10790.0 0.00041775
10810.0 0.00041817
10830.0 0.00041854
10850.0 0.00041886
10870.0 0.00041897
10890.0 0.00041886
10910.0 0.00041844
10930.0 0.00041746
10950.0 0.00041552
10970.0 0.00041251
10990.0 0.00040833
11010.0 0.00040386
11030.0 0.00039594
11050.0 0.0003868
11070.0 0.00037625
11090.0 0.00036394
11110.0 0.00035157
11130.0 0.00033904
11150.0 0.000326
11170.0 0.00031313
11190.0 0.00030124
11210.0 0.00028962
11230.0 0.00027844
11250.0 0.00026849
11270.0 0.00025959
11290.0 0.0002513
11310.0 0.00024402
11330.0 0.00023801
11350.0 0.0002326
11370.0 0.00022774
11390.0 0.00022352
11410.0 0.00021967
11430.0 0.00021576
11450.0 0.00021192
11470.0 0.00020804
11490.0 0.00020383
11510.0 0.00019915
11530.0 0.00019431
11550.0 0.00018917
11570.0 0.00018351
11590.0 0.00017765
11610.0 0.00017182
11630.0 0.0001657
11650.0 0.00015946
11670.0 0.00015363
11690.0 0.00014802
11710.0 0.00014252
11730.0 0.00013743
11750.0 0.0001329
11770.0 0.0001286
11790.0 0.00012465
11810.0 0.00012118
11830.0 0.00011803
11850.0 0.00011502
11870.0 0.00011231
11890.0 0.00010983
11910.0 0.00010738
11930.0 0.00010494
11950.0 0.00010257
11970.0 0.00010015
11990.0 9.7563e-05
12010.0 9.4965e-05
12030.0 9.2356e-05
12050.0 8.9634e-05
12070.0 8.6852e-05
12090.0 8.4265e-05
12110.0 8.174e-05
12130.0 7.9313e-05
12150.0 7.7159e-05
12170.0 7.5325e-05
12190.0 7.3741e-05
12210.0 7.2575e-05
12230.0 7.1859e-05
12250.0 7.1573e-05
12270.0 7.1763e-05
12290.0 7.2403e-05
12310.0 7.3423e-05
12330.0 7.4899e-05
12350.0 7.6735e-05
12370.0 7.8781e-05
12390.0 8.1074e-05
12410.0 8.3668e-05
12430.0 8.6174e-05
12450.0 8.8636e-05
12470.0 9.1108e-05
12490.0 9.342e-05
12510.0 9.541e-05
12530.0 9.7218e-05
12550.0 9.8768e-05
12570.0 9.9927e-05
12590.0 0.00010074
12610.0 0.00010124
12630.0 0.00010138
12650.0 0.00010117
12670.0 0.00010067
12690.0 9.9875e-05
12710.0 9.8843e-05
12730.0 9.7614e-05
12750.0 9.6145e-05
12770.0 9.4541e-05
12790.0 9.2855e-05
12810.0 9.1042e-05
12830.0 8.9107e-05
12850.0 8.718e-05
12870.0 8.5209e-05
12890.0 8.3124e-05
12910.0 8.1011e-05
12930.0 7.8908e-05
12950.0 7.6683e-05
12970.0 7.4362e-05
12990.0 7.2093e-05
13010.0 6.9785e-05
13030.0 6.7384e-05
13050.0 6.5013e-05
13070.0 6.2743e-05
13090.0 6.0439e-05
13110.0 5.8198e-05
13130.0 5.6137e-05
13150.0 5.4214e-05
13170.0 5.2387e-05
13190.0 5.0825e-05
13210.0 4.9521e-05
13230.0 4.8419e-05
13250.0 4.7568e-05
13270.0 4.699e-05
13290.0 4.6646e-05
13310.0 4.6543e-05
13330.0 4.6662e-05
13350.0 4.6965e-05
13370.0 4.745e-05
13390.0 4.8091e-05
13410.0 4.8781e-05
13430.0 4.955e-05
13450.0 5.0378e-05
13470.0 5.1184e-05
13490.0 5.1939e-05
13510.0 5.2703e-05
13530.0 5.3387e-05
13550.0 5.3962e-05
13570.0 5.4467e-05
13590.0 5.49e-05
13610.0 5.523e-05
13630.0 5.547e-05
13650.0 5.5652e-05
13670.0 5.5759e-05
13690.0 5.5798e-05
13710.0 5.5783e-05
13730.0 5.5718e-05
13750.0 5.5598e-05
13770.0 5.5434e-05
13790.0 5.5221e-05
13810.0 5.4961e-05
13830.0 5.466e-05
13850.0 5.4305e-05
13870.0 5.3891e-05
13890.0 5.3436e-05
13910.0 5.2935e-05
13930.0 5.237e-05
13950.0 5.1763e-05
13970.0 5.115e-05
13990.0 5.0497e-05
14010.0 4.9822e-05
14030.0 4.9166e-05
14050.0 4.8527e-05
14070.0 4.7884e-05
14090.0 4.7293e-05
14110.0 4.6763e-05
14130.0 4.6278e-05
14150.0 4.5851e-05
14170.0 4.5509e-05
14190.0 4.5237e-05
14210.0 4.5035e-05
14230.0 4.4916e-05
14250.0 4.4874e-05
14270.0 4.4914e-05
14290.0 4.504e-05
14310.0 4.5232e-05
14330.0 4.5495e-05
14350.0 4.5836e-05
14370.0 4.623e-05
14390.0 4.6654e-05
14410.0 4.714e-05
14430.0 4.7661e-05
14450.0 4.8185e-05
14470.0 4.8728e-05
14490.0 4.9317e-05
14510.0 4.9898e-05
14530.0 5.0483e-05
14550.0 5.1118e-05
14570.0 5.1802e-05
14590.0 5.2512e-05
14610.0 5.3307e-05
14630.0 5.4229e-05
14650.0 5.523e-05
14670.0 5.6325e-05
14690.0 5.7586e-05
14710.0 5.9001e-05
14730.0 6.0449e-05
14750.0 6.2037e-05
14770.0 6.3763e-05
14790.0 6.551e-05
14810.0 6.7252e-05
14830.0 6.9113e-05
14850.0 7.0911e-05
14870.0 7.2572e-05
14890.0 7.4158e-05
14910.0 7.5638e-05
14930.0 7.689e-05
14950.0 7.7924e-05
14970.0 7.8787e-05
14990.0 7.9412e-05
15010.0 7.9813e-05
15030.0 8.0041e-05
15050.0 8.0115e-05
15070.0 8.0068e-05
15090.0 7.9948e-05
15110.0 7.9774e-05
15130.0 7.9571e-05
15150.0 7.9363e-05
15170.0 7.914e-05
15190.0 7.8912e-05
15210.0 7.8691e-05
15230.0 7.8472e-05
15250.0 7.8245e-05
15270.0 7.8021e-05
15290.0 7.781e-05
15310.0 7.7593e-05
15330.0 7.7373e-05
15350.0 7.7162e-05
15370.0 7.6953e-05
15390.0 7.6732e-05
15410.0 7.6519e-05
15430.0 7.6313e-05
15450.0 7.6102e-05
15470.0 7.5886e-05
15490.0 7.5683e-05
15510.0 7.5479e-05
15530.0 7.5268e-05
15550.0 7.5061e-05
15570.0 7.4862e-05
15590.0 7.4653e-05
15610.0 7.4441e-05
15630.0 7.4242e-05
15650.0 7.404e-05
15670.0 7.3832e-05
15690.0 7.3629e-05
15710.0 7.3433e-05
15730.0 7.3227e-05
15750.0 7.3021e-05
15770.0 7.2823e-05
15790.0 7.2623e-05
15810.0 7.2412e-05
15830.0 7.2211e-05
15850.0 7.2014e-05
15870.0 7.181e-05
15890.0 7.1605e-05
15910.0 7.1409e-05
15930.0 7.1208e-05
15950.0 7.0998e-05
15970.0 7.0796e-05
15990.0 7.0598e-05
16010.0 7.0391e-05
16030.0 7.0181e-05
16050.0 6.9984e-05
16070.0 6.9781e-05
16090.0 6.9572e-05
16110.0 6.9369e-05
16130.0 6.917e-05
16150.0 6.8956e-05
16170.0 6.8746e-05
16190.0 6.8544e-05
16210.0 6.8337e-05
16230.0 6.8123e-05
16250.0 6.7917e-05
16270.0 6.7714e-05
16290.0 6.7499e-05
16310.0 6.7287e-05
16330.0 6.7081e-05
16350.0 6.6869e-05
16370.0 6.6645e-05
16390.0 6.6436e-05
16410.0 6.6226e-05
16430.0 6.6007e-05
16450.0 6.579e-05
16470.0 6.5582e-05
16490.0 6.5362e-05
16510.0 6.5138e-05
16530.0 6.4922e-05
16550.0 6.4706e-05
16570.0 6.4479e-05
16590.0 6.4254e-05
16610.0 6.4039e-05
16630.0 6.3815e-05
16650.0 6.3587e-05
16670.0 6.3367e-05
16690.0 6.3145e-05
16710.0 6.291e-05
16730.0 6.2681e-05
16750.0 6.2458e-05
16770.0 6.2227e-05
16790.0 6.199e-05
16810.0 6.1765e-05
16830.0 6.1536e-05
16850.0 6.1298e-05
16870.0 6.1064e-05
16890.0 6.0836e-05
16910.0 6.0596e-05
16930.0 6.0352e-05
16950.0 6.0119e-05
16970.0 5.9883e-05
16990.0 5.9639e-05
17010.0 5.9399e-05
17030.0 5.9165e-05
17050.0 5.8919e-05
17070.0 5.8673e-05
17090.0 5.8433e-05
17110.0 5.8191e-05
17130.0 5.7936e-05
17150.0 5.7691e-05
17170.0 5.745e-05
17190.0 5.7199e-05
17210.0 5.6948e-05
17230.0 5.6705e-05
17250.0 5.6455e-05
17270.0 5.6196e-05
17290.0 5.5946e-05
17310.0 5.5697e-05
17330.0 5.544e-05
17350.0 5.518e-05
17370.0 5.4933e-05
17390.0 5.4678e-05
17410.0 5.4417e-05
17430.0 5.4163e-05
17450.0 5.3911e-05
17470.0 5.3644e-05
17490.0 5.3382e-05
17510.0 5.3128e-05
17530.0 5.2868e-05
17550.0 5.2601e-05
17570.0 5.2343e-05
17590.0 5.2087e-05
17610.0 5.1819e-05
17630.0 5.1555e-05
17650.0 5.1297e-05
17670.0 5.1032e-05
17690.0 5.0757e-05
17710.0 5.0497e-05
17730.0 5.0235e-05
17750.0 4.9965e-05
17770.0 4.9698e-05
17790.0 4.9439e-05
17810.0 4.9169e-05
17830.0 4.8896e-05
17850.0 4.8631e-05
17870.0 4.8366e-05
17890.0 4.8091e-05
17910.0 4.782e-05
17930.0 4.7558e-05
17950.0 4.7287e-05
17970.0 4.7014e-05
17990.0 4.6749e-05
18010.0 4.6483e-05
18030.0 4.6203e-05
18050.0 4.5933e-05
18070.0 4.5667e-05
18090.0 4.5394e-05
18110.0 4.5118e-05
18130.0 4.4852e-05
18150.0 4.4584e-05
18170.0 4.4308e-05
18190.0 4.4038e-05
18210.0 4.3772e-05
18230.0 4.3496e-05
18250.0 4.3218e-05
18270.0 4.2952e-05
18290.0 4.2683e-05
18310.0 4.2407e-05
18330.0 4.2137e-05
18350.0 4.1872e-05
18370.0 4.1597e-05
18390.0 4.1323e-05
18410.0 4.1056e-05
18430.0 4.0787e-05
18450.0 4.0508e-05
18470.0 4.0239e-05
18490.0 3.9974e-05
18510.0 3.9701e-05
18530.0 3.9429e-05
18550.0 3.9166e-05
18570.0 3.8896e-05
18590.0 3.862e-05
18610.0 3.8353e-05
18630.0 3.8088e-05
18650.0 3.7816e-05
18670.0 3.7544e-05
18690.0 3.7283e-05
18710.0 3.7016e-05
18730.0 3.6745e-05
18750.0 3.6481e-05
18770.0 3.622e-05
18790.0 3.5946e-05
18810.0 3.5678e-05
18830.0 3.5418e-05
18850.0 3.5152e-05
18870.0 3.4883e-05
18890.0 3.4623e-05
18910.0 3.4364e-05
18930.0 3.4096e-05
18950.0 3.3832e-05
18970.0 3.3575e-05
18990.0 3.3312e-05
19010.0 3.3042e-05
19030.0 3.2786e-05
19050.0 3.2529e-05
19070.0 3.2266e-05
19090.0 3.2006e-05
19110.0 3.1755e-05
19130.0 3.1493e-05
19150.0 3.1231e-05
19170.0 3.0977e-05
19190.0 3.0723e-05
19210.0 3.0461e-05
19230.0 3.0204e-05
19250.0 2.9956e-05
19270.0 2.97e-05
19290.0 2.9443e-05
19310.0 2.9195e-05
19330.0 2.8945e-05
19350.0 2.8685e-05
19370.0 2.8434e-05
19390.0 2.8187e-05
19410.0 2.7935e-05
19430.0 2.7681e-05
19450.0 2.7438e-05
19470.0 2.7192e-05
19490.0 2.694e-05
19510.0 2.6694e-05
19530.0 2.6452e-05
19550.0 2.6202e-05
19570.0 2.5951e-05
19590.0 2.5712e-05
19610.0 2.547e-05
19630.0 2.5222e-05
19650.0 2.4981e-05
19670.0 2.4745e-05
19690.0 2.4499e-05
19710.0 2.4256e-05
19730.0 2.4021e-05
19750.0 2.3782e-05
19770.0 2.3535e-05
19790.0 2.33e-05
19810.0 2.3067e-05
19830.0 2.2827e-05
19850.0 2.2587e-05
19870.0 2.2354e-05
19890.0 2.2109e-05
19910.0 2.185e-05
19930.0 2.1586e-05
19950.0 2.1304e-05
19970.0 2.0982e-05
19990.0 2.0624e-05
20010.0 2.0285e-05
20030.0 1.9857e-05
20050.0 1.9389e-05
20070.0 1.8915e-05
20090.0 1.8434e-05
20110.0 1.7927e-05
20130.0 1.7447e-05
20150.0 1.7001e-05
20170.0 1.657e-05
20190.0 1.6163e-05
20210.0 1.5803e-05
20230.0 1.5475e-05
20250.0 1.517e-05
20270.0 1.4906e-05
20290.0 1.4682e-05
20310.0 1.4487e-05
20330.0 1.4322e-05
20350.0 1.4202e-05
20370.0 1.4111e-05
20390.0 1.4051e-05
20410.0 1.4025e-05
20430.0 1.4028e-05
20450.0 1.4063e-05
20470.0 1.4129e-05
20490.0 1.422e-05
20510.0 1.4338e-05
20530.0 1.4487e-05
20550.0 1.4657e-05
20570.0 1.484e-05
20590.0 1.5049e-05
20610.0 1.5274e-05
20630.0 1.5501e-05
20650.0 1.574e-05
20670.0 1.5997e-05
20690.0 1.6243e-05
20710.0 1.6483e-05
20730.0 1.6728e-05
20750.0 1.6968e-05
20770.0 1.7189e-05
20790.0 1.7409e-05
20810.0 1.7628e-05
20830.0 1.7836e-05
20850.0 1.8037e-05
20870.0 1.8247e-05
20890.0 1.8457e-05
20910.0 1.866e-05
20930.0 1.8871e-05
20950.0 1.9093e-05
20970.0 1.9313e-05
20990.0 1.9532e-05
21010.0 1.9765e-05
21030.0 1.9994e-05
21050.0 2.0211e-05
21070.0 2.0424e-05
21090.0 2.0633e-05
21110.0 2.0814e-05
21130.0 2.0976e-05
21150.0 2.1121e-05
21170.0 2.124e-05
21190.0 2.1328e-05
21210.0 2.1394e-05
21230.0 2.143e-05
21250.0 2.1436e-05
21270.0 2.1414e-05
21290.0 2.1363e-05
21310.0 2.1284e-05
21330.0 2.1183e-05
21350.0 2.1054e-05
21370.0 2.0899e-05
21390.0 2.0727e-05
21410.0 2.0536e-05
21430.0 2.0316e-05
21450.0 2.0086e-05
21470.0 1.9849e-05
21490.0 1.9596e-05
21510.0 1.9332e-05
21530.0 1.9075e-05
21550.0 1.8816e-05
21570.0 1.855e-05
21590.0 1.8297e-05
21610.0 1.806e-05
21630.0 1.7831e-05
21650.0 1.7615e-05
21670.0 1.7433e-05
21690.0 1.7273e-05
21710.0 1.7136e-05
21730.0 1.7031e-05
21750.0 1.6959e-05
21770.0 1.6916e-05
21790.0 1.6909e-05
21810.0 1.6935e-05
21830.0 1.6994e-05
21850.0 1.7089e-05
21870.0 1.7214e-05
21890.0 1.7363e-05
21910.0 1.7546e-05
21930.0 1.7757e-05
21950.0 1.7982e-05
21970.0 1.8232e-05
21990.0 1.8513e-05
22010.0 1.8797e-05
22030.0 1.9088e-05
22050.0 1.9398e-05
22070.0 1.9713e-05
22090.0 2.0017e-05
22110.0 2.0326e-05
22130.0 2.0638e-05
22150.0 2.0932e-05
22170.0 2.1208e-05
22190.0 2.1481e-05
22210.0 2.1731e-05
22230.0 2.1944e-05
22250.0 2.2136e-05
22270.0 2.23e-05
22290.0 2.2425e-05
22310.0 2.2513e-05
22330.0 2.2565e-05
22350.0 2.2574e-05
22370.0 2.2541e-05
22390.0 2.2465e-05
22410.0 2.234e-05
22430.0 2.2177e-05
22450.0 2.1976e-05
22470.0 2.1725e-05
22490.0 2.1438e-05
22510.0 2.1126e-05
22530.0 2.0766e-05
22550.0 2.0367e-05
22570.0 1.9958e-05
22590.0 1.9525e-05
22610.0 1.9056e-05
