#lamb flux
1010.0 0.00011425
1030.0 0.00012886
1050.0 0.00014147
1070.0 0.00015065
1090.0 0.00015528
1110.0 0.00015212
1130.0 0.00014091
1150.0 0.00012255
1170.0 9.7234e-05
1190.0 6.5689e-05
1210.0 3.0268e-05
1230.0 1e-99
1250.0 1e-99
1270.0 1e-99
1290.0 1e-99
1310.0 1e-99
1330.0 1e-99
1350.0 1e-99
1370.0 1e-99
1390.0 1e-99
1410.0 1e-99
1430.0 1e-99
1450.0 1e-99
1470.0 1e-99
1490.0 1e-99
1510.0 1e-99
1530.0 1e-99
1550.0 1e-99
1570.0 1e-99
1590.0 1e-99
1610.0 1e-99
1630.0 1e-99
1650.0 1e-99
1670.0 8.2644e-06
1690.0 2.638e-05
1710.0 4.4919e-05
1730.0 6.4316e-05
1750.0 8.5523e-05
1770.0 0.00010829
1790.0 0.000133
1810.0 0.00015986
1830.0 0.00018992
1850.0 0.00023322
1870.0 0.00027883
1890.0 0.00032879
1910.0 0.00038394
1930.0 0.00044488
1950.0 0.00051141
1970.0 0.00058416
1990.0 0.00066409
2010.0 0.00075093
2030.0 0.0008445
2050.0 0.00094593
2070.0 0.0010554
2090.0 0.0011711
2110.0 0.001294
2130.0 0.0014243
2150.0 0.0015607
2170.0 0.0017017
2190.0 0.0018487
2210.0 0.0020002
2230.0 0.0021538
2250.0 0.0023094
2270.0 0.0024678
2290.0 0.002625
2310.0 0.0027793
2330.0 0.0029322
2350.0 0.0030817
2370.0 0.0032241
2390.0 0.0033602
2410.0 0.0034901
2430.0 0.0036084
2450.0 0.0037138
2470.0 0.0038067
2490.0 0.0038852
2510.0 0.0039482
2530.0 0.0040023
2550.0 0.0040579
2570.0 0.004129
2590.0 0.004234
2610.0 0.0044138
2630.0 0.0046958
2650.0 0.0050865
2670.0 0.0056172
2690.0 0.0063101
2710.0 0.0071081
2730.0 0.0079751
2750.0 0.0089409
2770.0 0.0099149
2790.0 0.010821
2810.0 0.011672
2830.0 0.012469
2850.0 0.013114
2870.0 0.013664
2890.0 0.014163
2910.0 0.014609
2930.0 0.015006
2950.0 0.015409
2970.0 0.015822
2990.0 0.016227
3010.0 0.016638
3030.0 0.017078
3050.0 0.017526
3070.0 0.017953
3090.0 0.018386
3110.0 0.0188
3130.0 0.01916
3150.0 0.019457
3170.0 0.019692
3190.0 0.019856
3210.0 0.019986
3230.0 0.020133
3250.0 0.02037
3270.0 0.020751
3290.0 0.02131
3310.0 0.02209
3330.0 0.023064
3350.0 0.024176
3370.0 0.025438
3390.0 0.026773
3410.0 0.028041
3430.0 0.029214
3450.0 0.030202
3470.0 0.032717
3490.0 0.033323
3510.0 0.029267
3530.0 0.028269
3550.0 0.036187
3570.0 0.04302
3590.0 0.043565
3610.0 0.047287
3630.0 0.048498
3650.0 0.043846
3670.0 0.041593
3690.0 0.045104
3710.0 0.04992
3730.0 0.053954
3750.0 0.04971
3770.0 0.049269
3790.0 0.051581
3810.0 0.049488
3830.0 0.043087
3850.0 0.038473
3870.0 0.039316
3890.0 0.044389
3910.0 0.047867
3930.0 0.049248
3950.0 0.050464
3970.0 0.051461
3990.0 0.052841
4010.0 0.052276
4030.0 0.048106
4050.0 0.044362
4070.0 0.044647
4090.0 0.047681
4110.0 0.049999
4130.0 0.049052
4150.0 0.047943
4170.0 0.047781
4190.0 0.049113
4210.0 0.047999
4230.0 0.04397
4250.0 0.039261
4270.0 0.035793
4290.0 0.033008
4310.0 0.030545
4330.0 0.031344
4350.0 0.033596
4370.0 0.034466
4390.0 0.035734
4410.0 0.036128
4430.0 0.035916
4450.0 0.035657
4470.0 0.035212
4490.0 0.037475
4510.0 0.038582
4530.0 0.039363
4550.0 0.040112
4570.0 0.041176
4590.0 0.041985
4610.0 0.042512
4630.0 0.043391
4650.0 0.044858
4670.0 0.042776
4690.0 0.039751
4710.0 0.036617
4730.0 0.035483
4750.0 0.034556
4770.0 0.033569
4790.0 0.032455
4810.0 0.031154
4830.0 0.032663
4850.0 0.035691
4870.0 0.027579
4890.0 0.027367
4910.0 0.028555
4930.0 0.029553
4950.0 0.026947
4970.0 0.024757
4990.0 0.024104
5010.0 0.022413
5030.0 0.020979
5050.0 0.021534
5070.0 0.02308
5090.0 0.023891
5110.0 0.026269
5130.0 0.027013
5150.0 0.028023
5170.0 0.028892
5190.0 0.028031
5210.0 0.028974
5230.0 0.029541
5250.0 0.029779
5270.0 0.030305
5290.0 0.029665
5310.0 0.028878
5330.0 0.027366
5350.0 0.025869
5370.0 0.024482
5390.0 0.025147
5410.0 0.025154
5430.0 0.025456
5450.0 0.025479
5470.0 0.025091
5490.0 0.024799
5510.0 0.024174
5530.0 0.023553
5550.0 0.023295
5570.0 0.023576
5590.0 0.023913
5610.0 0.024122
5630.0 0.023637
5650.0 0.023364
5670.0 0.022516
5690.0 0.021983
5710.0 0.021188
5730.0 0.021077
5750.0 0.02078
5770.0 0.020078
5790.0 0.020465
5810.0 0.020326
5830.0 0.020852
5850.0 0.021112
5870.0 0.021336
5890.0 0.021017
5910.0 0.021004
5930.0 0.020563
5950.0 0.020792
5970.0 0.020316
5990.0 0.019904
6010.0 0.020013
6030.0 0.020432
6050.0 0.020152
6070.0 0.019716
6090.0 0.019478
6110.0 0.019779
6130.0 0.0197
6150.0 0.019163
6170.0 0.018002
6190.0 0.016703
6210.0 0.015843
6230.0 0.015676
6250.0 0.01581
6270.0 0.0162
6290.0 0.016826
6310.0 0.017855
6330.0 0.018367
6350.0 0.018431
6370.0 0.018566
6390.0 0.018382
6410.0 0.017946
6430.0 0.017365
6450.0 0.01706
6470.0 0.01699
6490.0 0.016909
6510.0 0.016756
6530.0 0.016741
6550.0 0.016531
6570.0 0.01593
6590.0 0.015831
6610.0 0.015671
6630.0 0.01519
6650.0 0.014728
6670.0 0.014306
6690.0 0.01415
6710.0 0.013712
6730.0 0.013513
6750.0 0.013281
6770.0 0.012984
6790.0 0.013089
6810.0 0.012934
6830.0 0.012596
6850.0 0.01244
6870.0 0.012278
6890.0 0.012078
6910.0 0.011977
6930.0 0.011848
6950.0 0.011684
6970.0 0.011443
6990.0 0.011443
7010.0 0.011354
7030.0 0.01142
7050.0 0.011151
7070.0 0.011004
7090.0 0.010976
7110.0 0.010578
7130.0 0.010524
7150.0 0.010648
7170.0 0.010819
7190.0 0.01071
7210.0 0.010806
7230.0 0.011058
7250.0 0.010875
7270.0 0.010965
7290.0 0.010818
7310.0 0.010513
7330.0 0.0099734
7350.0 0.010007
7370.0 0.010022
7390.0 0.0098107
7410.0 0.0096097
7430.0 0.0095018
7450.0 0.0093987
7470.0 0.0094339
7490.0 0.0095357
7510.0 0.0092597
7530.0 0.009077
7550.0 0.0091839
7570.0 0.0085057
7590.0 0.0081733
7610.0 0.0080947
7630.0 0.0082098
7650.0 0.0080439
7670.0 0.0082659
7690.0 0.0079848
7710.0 0.0083754
7730.0 0.0084404
7750.0 0.0091419
7770.0 0.0094291
7790.0 0.009775
7810.0 0.010213
7830.0 0.010458
7850.0 0.010774
7870.0 0.010668
7890.0 0.010588
7910.0 0.01037
7930.0 0.010023
7950.0 0.0097497
7970.0 0.009696
7990.0 0.0096172
8010.0 0.0087431
8030.0 0.0086903
8050.0 0.0085205
8070.0 0.0084377
8090.0 0.0082213
8110.0 0.0082849
8130.0 0.0083719
8150.0 0.0085031
8170.0 0.0084117
8190.0 0.0085217
8210.0 0.0084013
8230.0 0.0079592
8250.0 0.0078015
8270.0 0.0076659
8290.0 0.0075423
8310.0 0.0072902
8330.0 0.0073879
8350.0 0.007343
8370.0 0.0073412
8390.0 0.0074757
8410.0 0.0074527
8430.0 0.0075758
8450.0 0.007684
8470.0 0.0077303
8490.0 0.0078196
8510.0 0.0076918
8530.0 0.0074348
8550.0 0.0074977
8570.0 0.0075105
8590.0 0.0072914
8610.0 0.0074511
8630.0 0.0073562
8650.0 0.0072062
8670.0 0.0071605
8690.0 0.0071533
8710.0 0.0068765
8730.0 0.0069703
8750.0 0.0067355
8770.0 0.0066955
8790.0 0.006514
8810.0 0.0064394
8830.0 0.0064192
8850.0 0.0061086
8870.0 0.0057935
8890.0 0.0057153
8910.0 0.0053796
8930.0 0.0049653
8950.0 0.0049623
8970.0 0.0048035
8990.0 0.0047721
9010.0 0.0047344
9030.0 0.0047025
9050.0 0.004669
9070.0 0.0046352
9090.0 0.0046012
9110.0 0.0045669
9130.0 0.0045325
9150.0 0.0044985
9170.0 0.0044642
9190.0 0.0044299
9210.0 0.0043954
9230.0 0.0043609
9250.0 0.0043265
9270.0 0.0042919
9290.0 0.0042574
9310.0 0.004223
9330.0 0.0041885
9350.0 0.0041542
9370.0 0.0041199
9390.0 0.0040857
9410.0 0.0040516
9430.0 0.0040175
9450.0 0.0039836
9470.0 0.0039522
9490.0 0.0039196
9510.0 0.0038849
9530.0 0.0038506
9550.0 0.0038169
9570.0 0.0037837
9590.0 0.0037507
9610.0 0.003718
9630.0 0.0036857
9650.0 0.0036536
9670.0 0.0036216
9690.0 0.0035899
9710.0 0.0035585
9730.0 0.0035273
9750.0 0.0034963
9770.0 0.0034658
9790.0 0.0034353
9810.0 0.0034051
9830.0 0.0033746
9850.0 0.00334
9870.0 0.00331
9890.0 0.0032835
9910.0 0.0032566
9930.0 0.0032242
9950.0 0.0031961
9970.0 0.0031705
9990.0 0.0031442
10010.0 0.0031177
10030.0 0.0030911
10050.0 0.0030649
10070.0 0.003039
10090.0 0.0030136
10110.0 0.0029876
10130.0 0.0029618
10150.0 0.0029371
10170.0 0.0029124
10190.0 0.0028876
10210.0 0.0028636
10230.0 0.0028401
10250.0 0.0028164
10270.0 0.0027931
10290.0 0.0027705
10310.0 0.0027478
10330.0 0.0027251
10350.0 0.0027032
10370.0 0.0026817
10390.0 0.00266
10410.0 0.0026386
10430.0 0.0026179
10450.0 0.0025975
10470.0 0.0025771
10490.0 0.0025573
10510.0 0.0025379
10530.0 0.002518
10550.0 0.0024988
10570.0 0.0024802
10590.0 0.0024616
10610.0 0.002443
10630.0 0.0024252
10650.0 0.0024076
10670.0 0.0023897
10690.0 0.0023723
10710.0 0.0023555
10730.0 0.0023386
10750.0 0.0023216
10770.0 0.0023056
10790.0 0.0022896
10810.0 0.0022736
10830.0 0.0022579
10850.0 0.002243
10870.0 0.0022275
10890.0 0.0022124
10910.0 0.0021981
10930.0 0.0021842
10950.0 0.0021703
10970.0 0.0021572
10990.0 0.0021452
11010.0 0.0022275
11030.0 0.0022186
11050.0 0.00221
11070.0 0.0022013
11090.0 0.0021916
11110.0 0.0021818
11130.0 0.0021715
11150.0 0.0021601
11170.0 0.002148
11190.0 0.0021359
11210.0 0.0021232
11230.0 0.0021098
11250.0 0.0020968
11270.0 0.0020841
11290.0 0.0020711
11310.0 0.0020584
11330.0 0.0020471
11350.0 0.002036
11370.0 0.0020253
11390.0 0.0020156
11410.0 0.0020066
11430.0 0.0019976
11450.0 0.0019892
11470.0 0.0019815
11490.0 0.0019737
11510.0 0.0019655
11530.0 0.0019577
11550.0 0.0019497
11570.0 0.0019411
11590.0 0.0019322
11610.0 0.0019234
11630.0 0.0019138
11650.0 0.0019036
11670.0 0.0018939
11690.0 0.0018841
11710.0 0.0018739
11730.0 0.0018638
11750.0 0.0018545
11770.0 0.0018449
11790.0 0.0018353
11810.0 0.0018264
11830.0 0.0018177
11850.0 0.0018087
11870.0 0.0018003
11890.0 0.0017926
11910.0 0.001785
11930.0 0.0017776
11950.0 0.0017712
11970.0 0.0017653
11990.0 0.0017597
12010.0 0.0017552
12030.0 0.0017519
12050.0 0.0017493
12070.0 0.0017478
12090.0 0.0017478
12110.0 0.0017488
12130.0 0.001751
12150.0 0.0017543
12170.0 0.0017586
12190.0 0.0017639
12210.0 0.00177
12230.0 0.0017768
12250.0 0.0017841
12270.0 0.0017918
12290.0 0.0017998
12310.0 0.0018078
12330.0 0.0018158
12350.0 0.0018237
12370.0 0.0018312
12390.0 0.0018383
12410.0 0.0018449
12430.0 0.0018508
12450.0 0.0018557
12470.0 0.0018597
12490.0 0.0018625
12510.0 0.0018643
12530.0 0.0018646
12550.0 0.0018633
12570.0 0.0018607
12590.0 0.0018567
12610.0 0.0018508
12630.0 0.0018434
12650.0 0.0018353
12670.0 0.0018257
12690.0 0.0018145
12710.0 0.0018029
12730.0 0.0017907
12750.0 0.0017768
12770.0 0.0017629
12790.0 0.0017492
12810.0 0.0017349
12830.0 0.0017202
12850.0 0.0017066
12870.0 0.0016933
12890.0 0.0016798
12910.0 0.0016671
12930.0 0.0016556
12950.0 0.001644
12970.0 0.0016329
12990.0 0.0016232
13010.0 0.001614
13030.0 0.0016049
13050.0 0.0015966
13070.0 0.0015891
13090.0 0.0015816
13110.0 0.0015742
13130.0 0.0015675
13150.0 0.001561
13170.0 0.0015542
13190.0 0.001548
13210.0 0.0015421
13230.0 0.0015361
13250.0 0.0015302
13270.0 0.0015246
13290.0 0.0015189
13310.0 0.0015128
13330.0 0.0015069
13350.0 0.0015009
13370.0 0.0014944
13390.0 0.0014874
13410.0 0.0014806
13430.0 0.0014733
13450.0 0.0014653
13470.0 0.0014572
13490.0 0.0014489
13510.0 0.0014397
13530.0 0.0014302
13550.0 0.0014208
13570.0 0.0014109
13590.0 0.0014005
13610.0 0.0013901
13630.0 0.0013798
13650.0 0.0013688
13670.0 0.0013577
13690.0 0.0013468
13710.0 0.0013356
13730.0 0.0013237
13750.0 0.0013124
13770.0 0.0013011
13790.0 0.0012894
13810.0 0.0012776
13830.0 0.0012663
13850.0 0.0012547
13870.0 0.0012428
13890.0 0.0012314
13910.0 0.0012201
13930.0 0.0012084
13950.0 0.0011969
13970.0 0.001186
13990.0 0.0011749
14010.0 0.0011637
14030.0 0.0011529
14050.0 0.0011424
14070.0 0.0011314
14090.0 0.0011208
14110.0 0.0011105
14130.0 0.0011001
14150.0 0.0010897
14170.0 0.0010797
14190.0 0.0010698
14210.0 0.0010598
14230.0 0.0010499
14250.0 0.0010405
14270.0 0.0010308
14290.0 0.0010212
14310.0 0.0010122
14330.0 0.0010032
14350.0 0.00099425
14370.0 0.00098562
14390.0 0.00097742
14410.0 0.00096916
14430.0 0.00096109
14450.0 0.00095344
14470.0 0.00094595
14490.0 0.00093838
14510.0 0.00093118
14530.0 0.00092427
14550.0 0.00091731
14570.0 0.00091043
14590.0 0.00090383
14610.0 0.00089723
14630.0 0.00089052
14650.0 0.00088401
14670.0 0.00087763
14690.0 0.00087117
14710.0 0.00086472
14730.0 0.00085857
14750.0 0.0008524
14770.0 0.00084623
14790.0 0.00084025
14810.0 0.00083445
14830.0 0.00082854
14850.0 0.00082279
14870.0 0.00081726
14890.0 0.00081177
14910.0 0.00080629
14930.0 0.00080102
14950.0 0.0007959
14970.0 0.0007908
14990.0 0.00078586
15010.0 0.00078115
15030.0 0.00077652
15050.0 0.00077193
15070.0 0.00076757
15090.0 0.00076327
15110.0 0.00075897
15130.0 0.00075472
15150.0 0.00075055
15170.0 0.00074632
15190.0 0.00074208
15210.0 0.00073789
15230.0 0.00073372
15250.0 0.00072948
15270.0 0.00072527
15290.0 0.00072114
15310.0 0.00071696
15330.0 0.00071276
15350.0 0.00070863
15370.0 0.00070451
15390.0 0.00070031
15410.0 0.00069617
15430.0 0.00069208
15450.0 0.00068796
15470.0 0.00068382
15490.0 0.00067976
15510.0 0.00067571
15530.0 0.00067162
15550.0 0.00066756
15570.0 0.00066357
15590.0 0.00065952
15610.0 0.00065546
15630.0 0.0006515
15650.0 0.00064754
15670.0 0.00064354
15690.0 0.0006396
15710.0 0.00063571
15730.0 0.00063178
15750.0 0.00062786
15770.0 0.00062401
15790.0 0.00062016
15810.0 0.00061626
15830.0 0.00061244
15850.0 0.00060867
15870.0 0.00060487
15890.0 0.00060108
15910.0 0.00059737
15930.0 0.00059365
15950.0 0.0005899
15970.0 0.00058622
15990.0 0.00058257
16010.0 0.0005789
16030.0 0.00057524
16050.0 0.00057168
16070.0 0.0005681
16090.0 0.00056451
16110.0 0.00056098
16130.0 0.0005575
16150.0 0.00055395
16170.0 0.00055045
16190.0 0.00054703
16210.0 0.00054359
16230.0 0.00054015
16250.0 0.00053677
16270.0 0.00053344
16290.0 0.00053007
16310.0 0.00052673
16330.0 0.00052346
16350.0 0.00052019
16370.0 0.00051687
16390.0 0.00051366
16410.0 0.00051048
16430.0 0.00050727
16450.0 0.00050409
16470.0 0.00050099
16490.0 0.00049786
16510.0 0.00049473
16530.0 0.00049168
16550.0 0.00048864
16570.0 0.00048558
16590.0 0.00048255
16610.0 0.00047961
16630.0 0.00047664
16650.0 0.00047369
16670.0 0.00047079
16690.0 0.00046792
16710.0 0.00046501
16730.0 0.00046215
16750.0 0.00045935
16770.0 0.00045654
16790.0 0.00045373
16810.0 0.000451
16830.0 0.00044828
16850.0 0.00044554
16870.0 0.00044285
16890.0 0.00044021
16910.0 0.00043754
16930.0 0.00043488
16950.0 0.0004323
16970.0 0.00042973
16990.0 0.00042714
17010.0 0.00042461
17030.0 0.00042212
17050.0 0.00041961
17070.0 0.00041711
17090.0 0.00041468
17110.0 0.00041226
17130.0 0.0004098
17150.0 0.00040742
17170.0 0.00040508
17190.0 0.00040271
17210.0 0.00040037
17230.0 0.0003981
17250.0 0.00039581
17270.0 0.00039351
17290.0 0.00039127
17310.0 0.00038906
17330.0 0.00038683
17350.0 0.00038462
17370.0 0.00038249
17390.0 0.00038035
17410.0 0.0003782
17430.0 0.0003761
17450.0 0.00037404
17470.0 0.00037193
17490.0 0.00036987
17510.0 0.00036786
17530.0 0.00036585
17550.0 0.00036382
17570.0 0.00036186
17590.0 0.00035993
17610.0 0.00035797
17630.0 0.00035604
17650.0 0.00035417
17670.0 0.00035228
17690.0 0.00035037
17710.0 0.00034854
17730.0 0.00034673
17750.0 0.00034489
17770.0 0.00034309
17790.0 0.00034135
17810.0 0.00033957
17830.0 0.00033781
17850.0 0.00033609
17870.0 0.00033439
17890.0 0.00033267
17910.0 0.00033098
17930.0 0.00032935
17950.0 0.0003277
17970.0 0.00032606
17990.0 0.00032446
18010.0 0.00032288
18030.0 0.00032126
18050.0 0.00031969
18070.0 0.00031816
18090.0 0.00031662
18110.0 0.00031507
18130.0 0.0003136
18150.0 0.00031212
18170.0 0.00031062
18190.0 0.00030916
18210.0 0.00030774
18230.0 0.00030629
18250.0 0.00030484
18270.0 0.00030346
18290.0 0.00030208
18310.0 0.00030068
18330.0 0.00029933
18350.0 0.00029801
18370.0 0.00029665
18390.0 0.00029532
18410.0 0.00029403
18430.0 0.00029274
18450.0 0.00029141
18470.0 0.00029015
18490.0 0.00028892
18510.0 0.00028766
18530.0 0.00028642
18550.0 0.00028523
18570.0 0.00028402
18590.0 0.00028279
18610.0 0.00028161
18630.0 0.00028045
18650.0 0.00027927
18670.0 0.0002781
18690.0 0.000277
18710.0 0.00027587
18730.0 0.00027473
18750.0 0.00027364
18770.0 0.00027256
18790.0 0.00027144
18810.0 0.00027035
18830.0 0.00026931
18850.0 0.00026825
18870.0 0.00026718
18890.0 0.00026616
18910.0 0.00026516
18930.0 0.00026412
18950.0 0.00026311
18970.0 0.00026213
18990.0 0.00026113
19010.0 0.00026011
19030.0 0.00025916
19050.0 0.00025821
19070.0 0.00025724
19090.0 0.00025629
19110.0 0.00025538
19130.0 0.00025443
19150.0 0.00025348
19170.0 0.00025258
19190.0 0.00025168
19210.0 0.00025075
19230.0 0.00024985
19250.0 0.00024899
19270.0 0.0002481
19290.0 0.00024721
19310.0 0.00024637
19330.0 0.00024552
19350.0 0.00024462
19370.0 0.00024377
19390.0 0.00024295
19410.0 0.0002421
19430.0 0.00024124
19450.0 0.00024044
19470.0 0.00023963
19490.0 0.00023878
19510.0 0.00023798
19530.0 0.00023719
19550.0 0.00023636
19570.0 0.00023554
19590.0 0.00023476
19610.0 0.00023398
19630.0 0.00023317
19650.0 0.00023239
19670.0 0.00023164
19690.0 0.00023084
19710.0 0.00023005
19730.0 0.0002293
19750.0 0.00022853
19770.0 0.00022773
19790.0 0.00022698
19810.0 0.00022624
19830.0 0.00022546
19850.0 0.0002247
19870.0 0.00022398
19890.0 0.00022322
19910.0 0.00022244
19930.0 0.0002217
19950.0 0.00022098
19970.0 0.00022023
19990.0 0.00021948
20010.0 0.00021879
20030.0 0.00021806
20050.0 0.00021732
20070.0 0.0002166
20090.0 0.00021587
20110.0 0.00021507
20130.0 0.00021429
20150.0 0.00021353
20170.0 0.00021273
20190.0 0.0002119
20210.0 0.00021112
20230.0 0.00021033
20250.0 0.00020951
20270.0 0.00020873
20290.0 0.00020799
20310.0 0.00020725
20330.0 0.0002065
20350.0 0.00020586
20370.0 0.00020524
20390.0 0.00020463
20410.0 0.00020409
20430.0 0.00020363
20450.0 0.00020317
20470.0 0.00020277
20490.0 0.00020245
20510.0 0.00020219
20530.0 0.00020197
20550.0 0.00020183
20570.0 0.00020176
20590.0 0.00020175
20610.0 0.00020181
20630.0 0.00020195
20650.0 0.00020216
20670.0 0.00020243
20690.0 0.00020277
20710.0 0.00020317
20730.0 0.00020363
20750.0 0.00020413
20770.0 0.00020466
20790.0 0.00020522
20810.0 0.00020579
20830.0 0.00020634
20850.0 0.00020688
20870.0 0.00020738
20890.0 0.00020784
20910.0 0.00020822
20930.0 0.00020853
20950.0 0.00020874
20970.0 0.00020887
20990.0 0.0002089
21010.0 0.00020881
21030.0 0.00020861
21050.0 0.00020832
21070.0 0.00020793
21090.0 0.0002074
21110.0 0.00020683
21130.0 0.00020619
21150.0 0.00020544
21170.0 0.00020465
21190.0 0.00020386
21210.0 0.00020298
21230.0 0.00020206
21250.0 0.00020118
21270.0 0.00020029
21290.0 0.00019936
21310.0 0.00019845
21330.0 0.00019759
21350.0 0.0001967
21370.0 0.00019579
21390.0 0.00019492
21410.0 0.00019406
21430.0 0.00019311
21450.0 0.0001922
21470.0 0.0001913
21490.0 0.00019034
21510.0 0.00018934
21530.0 0.00018836
21550.0 0.00018734
21570.0 0.00018625
21590.0 0.00018515
21610.0 0.00018406
21630.0 0.00018291
21650.0 0.0001817
21670.0 0.00018057
21690.0 0.00017941
21710.0 0.0001782
21730.0 0.00017702
21750.0 0.00017589
21770.0 0.00017469
21790.0 0.00017352
21810.0 0.00017239
21830.0 0.00017128
21850.0 0.00017013
21870.0 0.00016903
21890.0 0.00016799
21910.0 0.0001669
21930.0 0.00016582
21950.0 0.00016479
21970.0 0.00016374
21990.0 0.00016264
22010.0 0.00016158
22030.0 0.00016052
22050.0 0.00015941
22070.0 0.00015828
22090.0 0.00015717
22110.0 0.00015602
22130.0 0.00015481
22150.0 0.0001536
22170.0 0.00015239
22190.0 0.00015109
22210.0 0.00014978
22230.0 0.0001485
22250.0 0.00014718
22270.0 0.00014581
22290.0 0.00014447
22310.0 0.00014314
22330.0 0.00014173
22350.0 0.00014035
22370.0 0.00013901
22390.0 0.00013764
22410.0 0.00013625
22430.0 0.00013493
22450.0 0.00013364
22470.0 0.00013232
22490.0 0.00013104
22510.0 0.00012982
22530.0 0.00012859
22550.0 0.00012737
22570.0 0.00012623
22590.0 0.00012512
22610.0 0.00012402
22630.0 0.00012295
22650.0 0.00012196
22670.0 0.00012096
22690.0 0.00011999
22710.0 0.00011907
22730.0 0.00011817
22750.0 0.00011726
22770.0 0.0001164
22790.0 0.00011558
22810.0 0.00011476
22830.0 0.00011396
22850.0 0.00011321
22870.0 0.00011248
22890.0 0.00011175
22910.0 0.00011106
22930.0 0.00011042
22950.0 0.00010979
22970.0 0.00010919
22990.0 0.00010865
23010.0 0.00010815
23030.0 0.00010767
23050.0 0.00010725
23070.0 0.00010688
23090.0 0.00010654
23110.0 0.00010627
23130.0 0.00010604
23150.0 0.00010586
23170.0 0.00010574
23190.0 0.00010566
23210.0 0.00010562
23230.0 0.00010563
23250.0 0.00010568
23270.0 0.00010575
23290.0 0.00010584
23310.0 0.00010597
23330.0 0.00010608
23350.0 0.00010618
23370.0 0.00010628
23390.0 0.00010635
23410.0 0.00010637
23430.0 0.00010636
23450.0 0.00010611
23470.0 0.00010575
23490.0 0.00010534
23510.0 0.00010489
23530.0 0.00010441
23550.0 0.00010389
23570.0 0.00010338
23590.0 0.00010289
23610.0 0.00010244
