#lamb flux
1010.0 2.4881e-08
1030.0 2.7276e-08
1050.0 3.0031e-08
1070.0 3.3133e-08
1090.0 3.6655e-08
1110.0 4.0269e-08
1130.0 4.3905e-08
1150.0 4.7715e-08
1170.0 5.1644e-08
1190.0 5.537e-08
1210.0 5.9146e-08
1230.0 6.3048e-08
1250.0 6.6871e-08
1270.0 7.0584e-08
1290.0 7.4507e-08
1310.0 7.8427e-08
1330.0 8.2186e-08
1350.0 8.5987e-08
1370.0 8.9912e-08
1390.0 9.3738e-08
1410.0 9.745e-08
1430.0 1.0133e-07
1450.0 1.0521e-07
1470.0 1.0896e-07
1490.0 1.1275e-07
1510.0 1.1675e-07
1530.0 1.2054e-07
1550.0 1.2428e-07
1570.0 1.2815e-07
1590.0 1.3201e-07
1610.0 1.3571e-07
1630.0 1.3952e-07
1650.0 1.4342e-07
1670.0 1.472e-07
1690.0 1.5092e-07
1710.0 1.5478e-07
1730.0 1.5866e-07
1750.0 1.623e-07
1770.0 1.6605e-07
1790.0 1.6986e-07
1810.0 1.7354e-07
1830.0 1.7715e-07
1850.0 1.8097e-07
1870.0 1.8467e-07
1890.0 1.8823e-07
1910.0 1.9184e-07
1930.0 1.9553e-07
1950.0 1.9901e-07
1970.0 2.0243e-07
1990.0 2.0595e-07
2010.0 2.0938e-07
2030.0 2.1263e-07
2050.0 2.1596e-07
2070.0 2.1932e-07
2090.0 2.2242e-07
2110.0 2.2546e-07
2130.0 2.2854e-07
2150.0 2.3148e-07
2170.0 2.3419e-07
2190.0 2.3695e-07
2210.0 2.3966e-07
2230.0 2.4213e-07
2250.0 2.4449e-07
2270.0 2.4691e-07
2290.0 2.4911e-07
2310.0 2.5107e-07
2330.0 2.5305e-07
2350.0 2.55e-07
2370.0 2.5681e-07
2390.0 2.5879e-07
2410.0 2.6132e-07
2430.0 2.6437e-07
2450.0 2.6824e-07
2470.0 2.7363e-07
2490.0 2.8083e-07
2510.0 2.8919e-07
2530.0 2.9969e-07
2550.0 3.1345e-07
2570.0 3.3119e-07
2590.0 3.5483e-07
2610.0 3.9093e-07
2630.0 4.4222e-07
2650.0 5.0802e-07
2670.0 5.913e-07
2690.0 6.9108e-07
2710.0 7.9405e-07
2730.0 8.9197e-07
2750.0 9.8473e-07
2770.0 1.0609e-06
2790.0 1.1164e-06
2810.0 1.156e-06
2830.0 1.1824e-06
2850.0 1.1949e-06
2870.0 1.1997e-06
2890.0 1.2001e-06
2910.0 1.1974e-06
2930.0 1.1925e-06
2950.0 1.1874e-06
2970.0 1.1823e-06
2990.0 1.1769e-06
3010.0 3.7547e-05
3030.0 3.7393e-05
3050.0 3.7241e-05
3070.0 3.7068e-05
3090.0 3.6876e-05
3110.0 3.6625e-05
3130.0 3.6272e-05
3150.0 3.5782e-05
3170.0 3.5085e-05
3190.0 3.4194e-05
3210.0 3.3167e-05
3230.0 3.2047e-05
3250.0 3.0902e-05
3270.0 3.0044e-05
3290.0 2.939e-05
3310.0 2.9238e-05
3330.0 2.9421e-05
3350.0 2.9934e-05
3370.0 3.0769e-05
3390.0 3.1887e-05
3410.0 3.3139e-05
3430.0 3.4572e-05
3450.0 3.6244e-05
3470.0 3.8091e-05
3490.0 4.0078e-05
3510.0 4.2344e-05
3530.0 4.4823e-05
3550.0 4.7484e-05
3570.0 5.0424e-05
3590.0 5.3709e-05
3610.0 5.7374e-05
3630.0 6.1017e-05
3650.0 6.4881e-05
3670.0 6.8361e-05
3690.0 7.0948e-05
3710.0 7.2242e-05
3730.0 7.1463e-05
3750.0 6.8665e-05
3770.0 7.0239e-05
3790.0 6.8621e-05
3810.0 5.2902e-05
3830.0 5.082e-05
3850.0 7.4903e-05
3870.0 7.2285e-05
3890.0 5.4695e-05
3910.0 5.3168e-05
3930.0 6.7895e-05
3950.0 8.1246e-05
3970.0 9.2349e-05
3990.0 6.3526e-05
4010.0 0.00011887
4030.0 0.00011467
4050.0 0.000121
4070.0 0.0001372
4090.0 0.00012998
4110.0 0.00011463
4130.0 0.0001413
4150.0 0.00018945
4170.0 0.00014995
4190.0 0.00013223
4210.0 0.00014915
4230.0 0.00018505
4250.0 0.00022128
4270.0 0.00024061
4290.0 0.00021369
4310.0 0.00019733
4330.0 0.00019528
4350.0 0.00025044
4370.0 0.00030483
4390.0 0.00024187
4410.0 0.00013449
4430.0 9.4954e-05
4450.0 8.8717e-05
4470.0 5.4718e-05
4490.0 9.6956e-05
4510.0 0.0002091
4530.0 0.00025516
4550.0 0.00024049
4570.0 0.0002151
4590.0 0.00023012
4610.0 0.00045803
4630.0 0.00064307
4650.0 0.00060605
4670.0 0.0005323
4690.0 0.00054739
4710.0 0.00057307
4730.0 0.00046665
4750.0 0.00030016
4770.0 0.00020569
4790.0 0.00023026
4810.0 0.00024285
4830.0 0.00024073
4850.0 0.00026161
4870.0 0.00034661
4890.0 0.0004016
4910.0 0.00031045
4930.0 0.00030174
4950.0 0.00034831
4970.0 0.00046544
4990.0 0.00062804
5010.0 0.00072492
5030.0 0.0005762
5050.0 0.00034982
5070.0 0.00024943
5090.0 0.0001899
5110.0 0.00017709
5130.0 0.00021258
5150.0 0.00020445
5170.0 0.00019168
5190.0 0.00017016
5210.0 0.00018953
5230.0 0.00023789
5250.0 0.00027873
5270.0 0.00025633
5290.0 0.00027676
5310.0 0.00037446
5330.0 0.00039981
5350.0 0.00039378
5370.0 0.00044492
5390.0 0.00055653
5410.0 0.00047291
5430.0 0.00035872
5450.0 0.00036375
5470.0 0.00042642
5490.0 0.00053621
5510.0 0.00065364
5530.0 0.00075829
5550.0 0.00068212
5570.0 0.00061051
5590.0 0.00050003
5610.0 0.0005105
5630.0 0.00057745
5650.0 0.00053312
5670.0 0.00049038
5690.0 0.00039435
5710.0 0.00040658
5730.0 0.00039668
5750.0 0.000211
5770.0 0.00015055
5790.0 0.00018832
5810.0 0.00019882
5830.0 0.00031414
5850.0 0.00041163
5870.0 0.00044006
5890.0 0.00041701
5910.0 0.00040491
5930.0 0.00039099
5950.0 0.00040441
5970.0 0.00050428
5990.0 0.00041118
6010.0 0.00031428
6030.0 0.0002553
6050.0 0.00022812
6070.0 0.00027571
6090.0 0.00031186
6110.0 0.00031622
6130.0 0.0002884
6150.0 0.00022565
6170.0 0.00017596
6190.0 0.00021785
6210.0 0.00034851
6230.0 0.00051556
6250.0 0.00055291
6270.0 0.00041912
6290.0 0.00035901
6310.0 0.00027355
6330.0 0.0001988
6350.0 0.00019671
6370.0 0.0002066
6390.0 0.00024859
6410.0 0.0003218
6430.0 0.00038831
6450.0 0.00047941
6470.0 0.0005051
6490.0 0.00060611
6510.0 0.00068037
6530.0 0.00069323
6550.0 0.00063892
6570.0 0.00051504
6590.0 0.00049467
6610.0 0.00040895
6630.0 0.00042816
6650.0 0.00041536
6670.0 0.00036259
6690.0 0.00028043
6710.0 0.00027471
6730.0 0.00011853
6750.0 0.00016111
6770.0 0.00025714
6790.0 0.00034354
6810.0 0.00024291
6830.0 0.00024799
6850.0 0.00020585
6870.0 0.000194
6890.0 0.00016275
6910.0 0.00019792
6930.0 0.00018611
6950.0 0.00022519
6970.0 0.00023236
6990.0 0.00025728
7010.0 0.0002496
7030.0 0.00028532
7050.0 0.00024529
7070.0 0.00020342
7090.0 0.00021794
7110.0 0.00022973
7130.0 0.00026483
7150.0 0.00030219
7170.0 0.00033849
7190.0 0.00035821
7210.0 0.00031578
7230.0 0.00031907
7250.0 0.00034357
7270.0 0.00037087
7290.0 0.0004556
7310.0 0.00047649
7330.0 0.00044095
7350.0 0.00039392
7370.0 0.00028763
7390.0 0.00030033
7410.0 0.0003742
7430.0 0.0004268
7450.0 0.00045909
7470.0 0.00041971
7490.0 0.00033864
7510.0 0.00056051
7530.0 0.0005042
7550.0 0.00047388
7570.0 0.00031721
7590.0 0.00013377
7610.0 9.1682e-05
7630.0 0.00014487
7650.0 0.00019747
7670.0 0.00032153
7690.0 0.00035983
7710.0 0.00032064
7730.0 0.00031502
7750.0 0.00041859
7770.0 0.00042985
7790.0 0.00039385
7810.0 0.00031637
7830.0 0.00034311
7850.0 0.0003789
7870.0 0.00037252
7890.0 0.0002902
7910.0 0.00019131
7930.0 0.00019855
7950.0 0.00017887
7970.0 0.00014947
7990.0 0.00013369
8010.0 9.091e-05
8030.0 8.4043e-05
8050.0 9.0542e-05
8070.0 0.00010055
8090.0 0.00012081
8110.0 0.00011312
8130.0 6.9512e-05
8150.0 7.0972e-05
8170.0 4.2019e-05
8190.0 2.7518e-05
8210.0 6.3384e-05
8230.0 7.5739e-05
8250.0 3.2733e-05
8270.0 2.623e-05
8290.0 4.5452e-05
8310.0 3.9019e-05
8330.0 2.3877e-05
8350.0 1.9198e-05
8370.0 5.4422e-06
8390.0 2.0672e-05
8410.0 2.4212e-05
8430.0 3.0145e-05
8450.0 3.3855e-05
8470.0 5.5264e-05
8490.0 4.526e-05
8510.0 3.5288e-05
8530.0 1.8501e-05
8550.0 6.1143e-05
8570.0 9.4817e-05
8590.0 6.7413e-05
8610.0 0.00010011
8630.0 0.00010884
8650.0 6.0313e-05
8670.0 8.704e-05
8690.0 0.00013348
8710.0 0.00011516
8730.0 0.00012375
8750.0 9.7943e-05
8770.0 8.743e-05
8790.0 9.6853e-05
8810.0 0.00010451
8830.0 5.9044e-05
8850.0 2.7002e-05
8870.0 1.9568e-05
8890.0 4.5643e-05
8910.0 7.1063e-05
8930.0 9.3148e-05
8950.0 0.00010469
8970.0 0.00010114
8990.0 7.7014e-05
9010.0 6.086e-05
9030.0 4.6571e-05
9050.0 4.8555e-05
9070.0 5.0551e-05
9090.0 5.2158e-05
9110.0 5.4079e-05
9130.0 5.5468e-05
9150.0 5.6463e-05
9170.0 5.7523e-05
9190.0 5.8657e-05
9210.0 5.9847e-05
9230.0 6.1105e-05
9250.0 6.2378e-05
9270.0 6.3694e-05
9290.0 6.5043e-05
9310.0 6.6392e-05
9330.0 6.7761e-05
9350.0 6.9176e-05
9370.0 7.06e-05
9390.0 7.203e-05
9410.0 7.3496e-05
9430.0 7.5003e-05
9450.0 7.6496e-05
9470.0 7.8016e-05
9490.0 7.9576e-05
9510.0 8.1149e-05
9530.0 8.2723e-05
9550.0 8.4353e-05
9570.0 8.6005e-05
9590.0 8.7657e-05
9610.0 8.9335e-05
9630.0 9.1057e-05
9650.0 9.279e-05
9670.0 9.452e-05
9690.0 9.6298e-05
9710.0 9.8101e-05
9730.0 9.9904e-05
9750.0 0.00010173
9770.0 0.00010362
9790.0 0.00010549
9810.0 0.00010738
9830.0 0.0001093
9850.0 0.00011125
9870.0 0.00011319
9890.0 0.00011516
9910.0 0.00011716
9930.0 0.00011917
9950.0 0.00012118
9970.0 0.00012323
9990.0 0.0001253
10010.0 0.00011286
10030.0 0.00011469
10050.0 0.00011654
10070.0 0.00011836
10090.0 0.00012021
10110.0 0.0001221
10130.0 0.00012398
10150.0 0.00012586
10170.0 0.00012774
10190.0 0.00012965
10210.0 0.00013154
10230.0 0.00013342
10250.0 0.00013532
10270.0 0.00013723
10290.0 0.0001391
10310.0 0.000141
10330.0 0.00014291
10350.0 0.00014479
10370.0 0.00014666
10390.0 0.00014854
10410.0 0.00015041
10430.0 0.00015225
10450.0 0.00015409
10470.0 0.00015594
10490.0 0.00015775
10510.0 0.00015954
10530.0 0.00016135
10550.0 0.00016313
10570.0 0.00016487
10590.0 0.00016661
10610.0 0.00016834
10630.0 0.00017003
10650.0 0.00017169
10670.0 0.00017336
10690.0 0.00017499
10710.0 0.00017658
10730.0 0.00017816
10750.0 0.00017973
10770.0 0.00018123
10790.0 0.00018271
10810.0 0.00018418
10830.0 0.0001856
10850.0 0.00018694
10870.0 0.00018825
10890.0 0.00018942
10910.0 0.00019038
10930.0 0.00019105
10950.0 0.00019126
10970.0 0.00019086
10990.0 0.00018979
11010.0 0.00019253
11030.0 0.00018962
11050.0 0.00018598
11070.0 0.00018155
11090.0 0.00017618
11110.0 0.0001706
11130.0 0.00016478
11150.0 0.00015852
11170.0 0.0001521
11190.0 0.0001459
11210.0 0.00013953
11230.0 0.00013305
11250.0 0.0001269
11270.0 0.00012103
11290.0 0.00011518
11310.0 0.00010967
11330.0 0.00010481
11350.0 0.00010022
11370.0 9.5971e-05
11390.0 9.2261e-05
11410.0 8.8974e-05
11430.0 8.5879e-05
11450.0 8.315e-05
11470.0 8.0727e-05
11490.0 7.8422e-05
11510.0 7.616e-05
11530.0 7.4022e-05
11550.0 7.1885e-05
11570.0 6.9618e-05
11590.0 6.7288e-05
11610.0 6.4935e-05
11630.0 6.2413e-05
11650.0 5.9751e-05
11670.0 5.7149e-05
11690.0 5.4531e-05
11710.0 5.1856e-05
11730.0 4.9272e-05
11750.0 4.6877e-05
11770.0 4.4531e-05
11790.0 4.2324e-05
11810.0 4.0361e-05
11830.0 3.8585e-05
11850.0 3.6929e-05
11870.0 3.5509e-05
11890.0 3.4293e-05
11910.0 3.3196e-05
11930.0 3.222e-05
11950.0 3.1374e-05
11970.0 3.0595e-05
11990.0 2.9845e-05
12010.0 2.914e-05
12030.0 2.8456e-05
12050.0 2.7757e-05
12070.0 2.7037e-05
12090.0 2.6343e-05
12110.0 2.5639e-05
12130.0 2.4929e-05
12150.0 2.4256e-05
12170.0 2.3637e-05
12190.0 2.3055e-05
12210.0 2.2565e-05
12230.0 2.2188e-05
12250.0 2.1926e-05
12270.0 2.1801e-05
12290.0 2.1822e-05
12310.0 2.1978e-05
12330.0 2.2296e-05
12350.0 2.2762e-05
12370.0 2.3333e-05
12390.0 2.4029e-05
12410.0 2.4881e-05
12430.0 2.5756e-05
12450.0 2.6671e-05
12470.0 2.7654e-05
12490.0 2.8642e-05
12510.0 2.9557e-05
12530.0 3.0465e-05
12550.0 3.1334e-05
12570.0 3.2081e-05
12590.0 3.2719e-05
12610.0 3.3272e-05
12630.0 3.3685e-05
12650.0 3.3929e-05
12670.0 3.4047e-05
12690.0 3.4021e-05
12710.0 3.3845e-05
12730.0 3.3537e-05
12750.0 3.3087e-05
12770.0 3.2517e-05
12790.0 3.1854e-05
12810.0 3.109e-05
12830.0 3.0229e-05
12850.0 2.9338e-05
12870.0 2.8407e-05
12890.0 2.7415e-05
12910.0 2.6415e-05
12930.0 2.5433e-05
12950.0 2.4419e-05
12970.0 2.3393e-05
12990.0 2.2421e-05
13010.0 2.1464e-05
13030.0 2.0499e-05
13050.0 1.9569e-05
13070.0 1.8693e-05
13090.0 1.7813e-05
13110.0 1.6957e-05
13130.0 1.6161e-05
13150.0 1.54e-05
13170.0 1.4649e-05
13190.0 1.397e-05
13210.0 1.3361e-05
13230.0 1.2793e-05
13250.0 1.2289e-05
13270.0 1.1872e-05
13290.0 1.1524e-05
13310.0 1.125e-05
13330.0 1.1071e-05
13350.0 1.0979e-05
13370.0 1.0977e-05
13390.0 1.1071e-05
13410.0 1.1241e-05
13430.0 1.1493e-05
13450.0 1.1829e-05
13470.0 1.2219e-05
13490.0 1.2647e-05
13510.0 1.3146e-05
13530.0 1.3665e-05
13550.0 1.4171e-05
13570.0 1.4681e-05
13590.0 1.519e-05
13610.0 1.565e-05
13630.0 1.606e-05
13650.0 1.6442e-05
13670.0 1.6768e-05
13690.0 1.7025e-05
13710.0 1.723e-05
13730.0 1.7385e-05
13750.0 1.747e-05
13770.0 1.7501e-05
13790.0 1.7483e-05
13810.0 1.7415e-05
13830.0 1.7304e-05
13850.0 1.7151e-05
13870.0 1.6956e-05
13890.0 1.673e-05
13910.0 1.6476e-05
13930.0 1.6184e-05
13950.0 1.5867e-05
13970.0 1.5543e-05
13990.0 1.5195e-05
14010.0 1.4827e-05
14030.0 1.4463e-05
14050.0 1.4098e-05
14070.0 1.3716e-05
14090.0 1.3351e-05
14110.0 1.3009e-05
14130.0 1.2678e-05
14150.0 1.2365e-05
14170.0 1.2098e-05
14190.0 1.1864e-05
14210.0 1.1663e-05
14230.0 1.1509e-05
14250.0 1.1405e-05
14270.0 1.1346e-05
14290.0 1.1339e-05
14310.0 1.1382e-05
14330.0 1.1471e-05
14350.0 1.1611e-05
14370.0 1.1793e-05
14390.0 1.2004e-05
14410.0 1.2259e-05
14430.0 1.2546e-05
14450.0 1.2845e-05
14470.0 1.3163e-05
14490.0 1.3508e-05
14510.0 1.3847e-05
14530.0 1.4178e-05
14550.0 1.4516e-05
14570.0 1.4851e-05
14590.0 1.5165e-05
14610.0 1.5478e-05
14630.0 1.5795e-05
14650.0 1.6098e-05
14670.0 1.6397e-05
14690.0 1.6711e-05
14710.0 1.7042e-05
14730.0 1.7373e-05
14750.0 1.7736e-05
14770.0 1.8141e-05
14790.0 1.8574e-05
14810.0 1.9036e-05
14830.0 1.9574e-05
14850.0 2.015e-05
14870.0 2.0745e-05
14890.0 2.1381e-05
14910.0 2.205e-05
14930.0 2.2691e-05
14950.0 2.329e-05
14970.0 2.3858e-05
14990.0 2.4339e-05
15010.0 2.4714e-05
15030.0 2.5002e-05
15050.0 2.5204e-05
15070.0 2.5322e-05
15090.0 2.5388e-05
15110.0 2.5418e-05
15130.0 2.5425e-05
15150.0 2.5422e-05
15170.0 2.5411e-05
15190.0 2.5397e-05
15210.0 2.5385e-05
15230.0 2.5372e-05
15250.0 2.5358e-05
15270.0 2.5345e-05
15290.0 2.5335e-05
15310.0 2.5324e-05
15330.0 2.5312e-05
15350.0 2.5303e-05
15370.0 2.5295e-05
15390.0 2.5283e-05
15410.0 2.5274e-05
15430.0 2.5267e-05
15450.0 2.5258e-05
15470.0 2.5248e-05
15490.0 2.5242e-05
15510.0 2.5236e-05
15530.0 2.5227e-05
15550.0 2.522e-05
15570.0 2.5215e-05
15590.0 2.5207e-05
15610.0 2.5198e-05
15630.0 2.5193e-05
15650.0 2.5187e-05
15670.0 2.5179e-05
15690.0 2.5173e-05
15710.0 2.5168e-05
15730.0 2.516e-05
15750.0 2.5153e-05
15770.0 2.5147e-05
15790.0 2.514e-05
15810.0 2.5131e-05
15830.0 2.5124e-05
15850.0 2.5118e-05
15870.0 2.511e-05
15890.0 2.5101e-05
15910.0 2.5094e-05
15930.0 2.5086e-05
15950.0 2.5075e-05
15970.0 2.5067e-05
15990.0 2.5058e-05
16010.0 2.5047e-05
16030.0 2.5036e-05
16050.0 2.5027e-05
16070.0 2.5016e-05
16090.0 2.5004e-05
16110.0 2.4992e-05
16130.0 2.4982e-05
16150.0 2.4966e-05
16170.0 2.4952e-05
16190.0 2.4939e-05
16210.0 2.4925e-05
16230.0 2.4908e-05
16250.0 2.4893e-05
16270.0 2.4878e-05
16290.0 2.486e-05
16310.0 2.4842e-05
16330.0 2.4825e-05
16350.0 2.4807e-05
16370.0 2.4784e-05
16390.0 2.4765e-05
16410.0 2.4745e-05
16430.0 2.4723e-05
16450.0 2.47e-05
16470.0 2.4679e-05
16490.0 2.4655e-05
16510.0 2.4628e-05
16530.0 2.4604e-05
16550.0 2.4579e-05
16570.0 2.455e-05
16590.0 2.4521e-05
16610.0 2.4495e-05
16630.0 2.4466e-05
16650.0 2.4434e-05
16670.0 2.4405e-05
16690.0 2.4374e-05
16710.0 2.4339e-05
16730.0 2.4305e-05
16750.0 2.4273e-05
16770.0 2.4237e-05
16790.0 2.4199e-05
16810.0 2.4164e-05
16830.0 2.4127e-05
16850.0 2.4087e-05
16870.0 2.4048e-05
16890.0 2.4009e-05
16910.0 2.3967e-05
16930.0 2.3923e-05
16950.0 2.3881e-05
16970.0 2.3838e-05
16990.0 2.3792e-05
17010.0 2.3747e-05
17030.0 2.3703e-05
17050.0 2.3654e-05
17070.0 2.3605e-05
17090.0 2.3557e-05
17110.0 2.3508e-05
17130.0 2.3454e-05
17150.0 2.3403e-05
17170.0 2.3352e-05
17190.0 2.3298e-05
17210.0 2.3243e-05
17230.0 2.319e-05
17250.0 2.3134e-05
17270.0 2.3075e-05
17290.0 2.3018e-05
17310.0 2.2961e-05
17330.0 2.29e-05
17350.0 2.2839e-05
17370.0 2.278e-05
17390.0 2.2719e-05
17410.0 2.2655e-05
17430.0 2.2592e-05
17450.0 2.253e-05
17470.0 2.2463e-05
17490.0 2.2396e-05
17510.0 2.2331e-05
17530.0 2.2264e-05
17550.0 2.2195e-05
17570.0 2.2127e-05
17590.0 2.2059e-05
17610.0 2.1988e-05
17630.0 2.1916e-05
17650.0 2.1847e-05
17670.0 2.1774e-05
17690.0 2.1698e-05
17710.0 2.1626e-05
17730.0 2.1553e-05
17750.0 2.1477e-05
17770.0 2.1401e-05
17790.0 2.1328e-05
17810.0 2.125e-05
17830.0 2.1171e-05
17850.0 2.1094e-05
17870.0 2.1016e-05
17890.0 2.0935e-05
17910.0 2.0855e-05
17930.0 2.0777e-05
17950.0 2.0696e-05
17970.0 2.0613e-05
17990.0 2.0533e-05
18010.0 2.0452e-05
18030.0 2.0366e-05
18050.0 2.0283e-05
18070.0 2.0201e-05
18090.0 2.0116e-05
18110.0 2.0029e-05
18130.0 1.9946e-05
18150.0 1.9861e-05
18170.0 1.9774e-05
18190.0 1.9688e-05
18210.0 1.9603e-05
18230.0 1.9514e-05
18250.0 1.9424e-05
18270.0 1.9338e-05
18290.0 1.9251e-05
18310.0 1.9161e-05
18330.0 1.9072e-05
18350.0 1.8985e-05
18370.0 1.8894e-05
18390.0 1.8803e-05
18410.0 1.8715e-05
18430.0 1.8625e-05
18450.0 1.8532e-05
18470.0 1.8441e-05
18490.0 1.8352e-05
18510.0 1.826e-05
18530.0 1.8168e-05
18550.0 1.8078e-05
18570.0 1.7987e-05
18590.0 1.7892e-05
18610.0 1.7801e-05
18630.0 1.771e-05
18650.0 1.7616e-05
18670.0 1.7522e-05
18690.0 1.7432e-05
18710.0 1.7339e-05
18730.0 1.7245e-05
18750.0 1.7153e-05
18770.0 1.7061e-05
18790.0 1.6965e-05
18810.0 1.6871e-05
18830.0 1.678e-05
18850.0 1.6687e-05
18870.0 1.6592e-05
18890.0 1.6499e-05
18910.0 1.6408e-05
18930.0 1.6313e-05
18950.0 1.6219e-05
18970.0 1.6127e-05
18990.0 1.6034e-05
19010.0 1.5937e-05
19030.0 1.5846e-05
19050.0 1.5753e-05
19070.0 1.5659e-05
19090.0 1.5566e-05
19110.0 1.5475e-05
19130.0 1.5381e-05
19150.0 1.5287e-05
19170.0 1.5195e-05
19190.0 1.5103e-05
19210.0 1.5008e-05
19230.0 1.4915e-05
19250.0 1.4825e-05
19270.0 1.4733e-05
19290.0 1.4639e-05
19310.0 1.4549e-05
19330.0 1.4458e-05
19350.0 1.4364e-05
19370.0 1.4272e-05
19390.0 1.4182e-05
19410.0 1.409e-05
19430.0 1.3998e-05
19450.0 1.3909e-05
19470.0 1.3819e-05
19490.0 1.3727e-05
19510.0 1.3637e-05
19530.0 1.3549e-05
19550.0 1.3457e-05
19570.0 1.3366e-05
19590.0 1.3278e-05
19610.0 1.3189e-05
19630.0 1.3099e-05
19650.0 1.3011e-05
19670.0 1.2924e-05
19690.0 1.2834e-05
19710.0 1.2746e-05
19730.0 1.2659e-05
19750.0 1.2572e-05
19770.0 1.2482e-05
19790.0 1.2395e-05
19810.0 1.231e-05
19830.0 1.2222e-05
19850.0 1.2135e-05
19870.0 1.2049e-05
19890.0 1.1959e-05
19910.0 1.1863e-05
19930.0 1.1763e-05
19950.0 1.1654e-05
19970.0 1.1527e-05
19990.0 1.138e-05
20010.0 1.0665e-05
20030.0 1.0486e-05
20050.0 1.0283e-05
20070.0 1.0068e-05
20090.0 9.8394e-06
20110.0 9.5863e-06
20130.0 9.3331e-06
20150.0 9.0846e-06
20170.0 8.8297e-06
20190.0 8.5735e-06
20210.0 8.3326e-06
20230.0 8.0987e-06
20250.0 7.8655e-06
20270.0 7.6491e-06
20290.0 7.4509e-06
20310.0 7.2621e-06
20330.0 7.0848e-06
20350.0 6.9353e-06
20370.0 6.8008e-06
20390.0 6.6807e-06
20410.0 6.5807e-06
20430.0 6.5003e-06
20450.0 6.4333e-06
20470.0 6.3838e-06
20490.0 6.3511e-06
20510.0 6.3325e-06
20530.0 6.3278e-06
20550.0 6.336e-06
20570.0 6.3543e-06
20590.0 6.384e-06
20610.0 6.4233e-06
20630.0 6.4687e-06
20650.0 6.5217e-06
20670.0 6.5844e-06
20690.0 6.6492e-06
20710.0 6.7168e-06
20730.0 6.7906e-06
20750.0 6.8679e-06
20770.0 6.9431e-06
20790.0 7.0219e-06
20810.0 7.1048e-06
20830.0 7.1861e-06
20850.0 7.2665e-06
20870.0 7.3519e-06
20890.0 7.4378e-06
20910.0 7.519e-06
20930.0 7.6025e-06
20950.0 7.6883e-06
20970.0 7.7708e-06
20990.0 7.8513e-06
21010.0 7.9359e-06
21030.0 8.0178e-06
21050.0 8.0952e-06
21070.0 8.1723e-06
21090.0 8.2497e-06
21110.0 8.3196e-06
21130.0 8.3851e-06
21150.0 8.449e-06
21170.0 8.5068e-06
21190.0 8.5565e-06
21210.0 8.6019e-06
21230.0 8.6404e-06
21250.0 8.6681e-06
21270.0 8.6865e-06
21290.0 8.6952e-06
21310.0 8.6916e-06
21330.0 8.6757e-06
21350.0 8.6465e-06
21370.0 8.6025e-06
21390.0 8.545e-06
21410.0 8.4734e-06
21430.0 8.3821e-06
21450.0 8.278e-06
21470.0 8.1629e-06
21490.0 8.0317e-06
21510.0 7.8864e-06
21530.0 7.7369e-06
21550.0 7.5788e-06
21570.0 7.4089e-06
21590.0 7.2398e-06
21610.0 7.0743e-06
21630.0 6.9069e-06
21650.0 6.7412e-06
21670.0 6.5944e-06
21690.0 6.4564e-06
21710.0 6.3289e-06
21730.0 6.22e-06
21750.0 6.1311e-06
21770.0 6.0568e-06
21790.0 6.0042e-06
21810.0 5.9734e-06
21830.0 5.9623e-06
21850.0 5.9723e-06
21870.0 6.0015e-06
21890.0 6.0469e-06
21910.0 6.1112e-06
21930.0 6.1914e-06
21950.0 6.2816e-06
21970.0 6.3846e-06
21990.0 6.5037e-06
22010.0 6.625e-06
22030.0 6.7502e-06
22050.0 6.8843e-06
22070.0 7.0214e-06
22090.0 7.1527e-06
22110.0 7.2872e-06
22130.0 7.4235e-06
22150.0 7.5523e-06
22170.0 7.675e-06
22190.0 7.7985e-06
22210.0 7.9146e-06
22230.0 8.0174e-06
22250.0 8.1151e-06
22270.0 8.2059e-06
22290.0 8.2839e-06
22310.0 8.3509e-06
22330.0 8.4107e-06
22350.0 8.4569e-06
22370.0 8.4895e-06
22390.0 8.5103e-06
22410.0 8.5176e-06
22430.0 8.5099e-06
22450.0 8.4885e-06
22470.0 8.4516e-06
22490.0 8.3995e-06
22510.0 8.3343e-06
22530.0 8.2513e-06
22550.0 8.1506e-06
22570.0 8.0387e-06
22590.0 7.9126e-06
22610.0 7.7679e-06
