#lamb flux
1010.0 1.7345e-07
1030.0 1.9539e-07
1050.0 2.2063e-07
1070.0 2.4903e-07
1090.0 2.813e-07
1110.0 3.144e-07
1130.0 3.477e-07
1150.0 3.826e-07
1170.0 4.1859e-07
1190.0 4.5272e-07
1210.0 4.8731e-07
1230.0 5.2305e-07
1250.0 5.5807e-07
1270.0 5.9208e-07
1290.0 6.2801e-07
1310.0 6.6392e-07
1330.0 6.9836e-07
1350.0 7.3318e-07
1370.0 7.6913e-07
1390.0 8.0418e-07
1410.0 8.3819e-07
1430.0 8.7373e-07
1450.0 9.0927e-07
1470.0 9.4361e-07
1490.0 9.7832e-07
1510.0 1.015e-06
1530.0 1.0497e-06
1550.0 1.0839e-06
1570.0 1.1193e-06
1590.0 1.1548e-06
1610.0 1.1886e-06
1630.0 1.2234e-06
1650.0 1.2592e-06
1670.0 1.2937e-06
1690.0 1.3278e-06
1710.0 1.3631e-06
1730.0 1.3985e-06
1750.0 1.4318e-06
1770.0 1.466e-06
1790.0 1.5007e-06
1810.0 1.5343e-06
1830.0 1.5671e-06
1850.0 1.6018e-06
1870.0 1.6354e-06
1890.0 1.6677e-06
1910.0 1.7004e-06
1930.0 1.7337e-06
1950.0 1.7651e-06
1970.0 1.7957e-06
1990.0 1.8273e-06
2010.0 1.8579e-06
2030.0 1.8868e-06
2050.0 1.9162e-06
2070.0 1.9459e-06
2090.0 1.973e-06
2110.0 1.9993e-06
2130.0 2.0259e-06
2150.0 2.0511e-06
2170.0 2.074e-06
2190.0 2.0972e-06
2210.0 2.1196e-06
2230.0 2.1397e-06
2250.0 2.1585e-06
2270.0 2.1776e-06
2290.0 2.1944e-06
2310.0 2.2087e-06
2330.0 2.2227e-06
2350.0 2.2357e-06
2370.0 2.2463e-06
2390.0 2.2563e-06
2410.0 2.2674e-06
2430.0 2.278e-06
2450.0 2.289e-06
2470.0 2.3036e-06
2490.0 2.3229e-06
2510.0 2.3454e-06
2530.0 2.3785e-06
2550.0 2.433e-06
2570.0 2.5186e-06
2590.0 2.6498e-06
2610.0 2.868e-06
2630.0 3.1847e-06
2650.0 3.5845e-06
2670.0 4.0742e-06
2690.0 4.6352e-06
2710.0 5.183e-06
2730.0 5.6734e-06
2750.0 6.1099e-06
2770.0 6.4409e-06
2790.0 6.6585e-06
2810.0 6.7952e-06
2830.0 6.8724e-06
2850.0 6.8901e-06
2870.0 6.8778e-06
2890.0 6.8515e-06
2910.0 6.8147e-06
2930.0 6.7695e-06
2950.0 6.7256e-06
2970.0 6.6832e-06
2990.0 6.6389e-06
3010.0 0.00015514
3030.0 0.00015411
3050.0 0.00015308
3070.0 0.00015195
3090.0 0.00015077
3110.0 0.00014939
3130.0 0.00014762
3150.0 0.00014537
3170.0 0.00014246
3190.0 0.00013895
3210.0 0.00013513
3230.0 0.00013124
3250.0 0.00012782
3270.0 0.00012545
3290.0 0.00012445
3310.0 0.00012503
3330.0 0.00012724
3350.0 0.00013077
3370.0 0.00013568
3390.0 0.00014181
3410.0 0.00014847
3430.0 0.00015598
3450.0 0.00016462
3470.0 0.00017403
3490.0 0.00018397
3510.0 0.00019513
3530.0 0.00020706
3550.0 0.0002192
3570.0 0.00023206
3590.0 0.00024645
3610.0 0.00026165
3630.0 0.00027752
3650.0 0.00029419
3670.0 0.00030979
3690.0 0.00032191
3710.0 0.00032917
3730.0 0.00032944
3750.0 0.00032257
3770.0 0.00030209
3790.0 0.00027595
3810.0 0.0002486
3830.0 0.00022023
3850.0 0.00018413
3870.0 0.00013168
3890.0 0.00019067
3910.0 0.00030255
3930.0 0.00036966
3950.0 0.00036639
3970.0 0.0003874
3990.0 0.00043304
4010.0 0.00057621
4030.0 0.00057032
4050.0 0.00050247
4070.0 0.00046522
4090.0 0.00044237
4110.0 0.00052362
4130.0 0.00056296
4150.0 0.00057902
4170.0 0.00056305
4190.0 0.00056138
4210.0 0.00056346
4230.0 0.00063881
4250.0 0.00070494
4270.0 0.00072376
4290.0 0.00072106
4310.0 0.00072381
4330.0 0.00078856
4350.0 0.00092755
4370.0 0.0010631
4390.0 0.0009802
4410.0 0.00076612
4430.0 0.00063351
4450.0 0.00054705
4470.0 0.00051859
4490.0 0.00059014
4510.0 0.00071029
4530.0 0.00079859
4550.0 0.00090192
4570.0 0.0010285
4590.0 0.0012278
4610.0 0.0016655
4630.0 0.0020746
4650.0 0.0020988
4670.0 0.0019864
4690.0 0.0021162
4710.0 0.002248
4730.0 0.00189
4750.0 0.0013187
4770.0 0.0010563
4790.0 0.0010436
4810.0 0.00098229
4830.0 0.0009304
4850.0 0.0010567
4870.0 0.0013763
4890.0 0.0015962
4910.0 0.0013285
4930.0 0.0011803
4950.0 0.0013226
4970.0 0.0017806
4990.0 0.0023374
5010.0 0.0025294
5030.0 0.0020775
5050.0 0.0013133
5070.0 0.0009035
5090.0 0.00078989
5110.0 0.00081671
5130.0 0.00088887
5150.0 0.00092324
5170.0 0.00091668
5190.0 0.00088908
5210.0 0.0008695
5230.0 0.00091377
5250.0 0.00098861
5270.0 0.0011009
5290.0 0.0012634
5310.0 0.001432
5330.0 0.0014723
5350.0 0.0014727
5370.0 0.0016093
5390.0 0.0017859
5410.0 0.0017073
5430.0 0.0014418
5450.0 0.001334
5470.0 0.0014987
5490.0 0.001923
5510.0 0.002458
5530.0 0.0027579
5550.0 0.0026399
5570.0 0.0023792
5590.0 0.0020924
5610.0 0.0019565
5630.0 0.0018974
5650.0 0.0019157
5670.0 0.0018551
5690.0 0.0016844
5710.0 0.0016138
5730.0 0.0014872
5750.0 0.0010114
5770.0 0.00086089
5790.0 0.00098146
5810.0 0.0011776
5830.0 0.0013911
5850.0 0.0015687
5870.0 0.0016251
5890.0 0.0015674
5910.0 0.0015012
5930.0 0.0014973
5950.0 0.0015649
5970.0 0.001715
5990.0 0.0015944
6010.0 0.0013229
6030.0 0.0010954
6050.0 0.00095028
6070.0 0.0009664
6090.0 0.0010945
6110.0 0.0011967
6130.0 0.0011451
6150.0 0.0010288
6170.0 0.0010819
6190.0 0.0013107
6210.0 0.0016492
6230.0 0.0019695
6250.0 0.0019933
6270.0 0.0017461
6290.0 0.0014507
6310.0 0.0011453
6330.0 0.00089846
6350.0 0.00081211
6370.0 0.00087163
6390.0 0.0010381
6410.0 0.001218
6430.0 0.0014207
6450.0 0.0016671
6470.0 0.0019942
6490.0 0.0024566
6510.0 0.0027338
6530.0 0.0025635
6550.0 0.0023479
6570.0 0.0022257
6590.0 0.0021432
6610.0 0.0018856
6630.0 0.0017263
6650.0 0.0015911
6670.0 0.001621
6690.0 0.0015638
6710.0 0.0014019
6730.0 0.0012058
6750.0 0.0011075
6770.0 0.0011216
6790.0 0.0012786
6810.0 0.0012519
6830.0 0.0012869
6850.0 0.0012424
6870.0 0.0011871
6890.0 0.001145
6910.0 0.0011275
6930.0 0.001055
6950.0 0.0010966
6970.0 0.0011085
6990.0 0.0012389
7010.0 0.0013134
7030.0 0.0012304
7050.0 0.0011452
7070.0 0.0011042
7090.0 0.0010336
7110.0 0.00098017
7130.0 0.0010151
7150.0 0.0010832
7170.0 0.0011603
7190.0 0.0011764
7210.0 0.0011412
7230.0 0.0011771
7250.0 0.0013379
7270.0 0.0015561
7290.0 0.0017177
7310.0 0.0016946
7330.0 0.0015119
7350.0 0.0013512
7370.0 0.0012525
7390.0 0.0012686
7410.0 0.0013575
7430.0 0.0014883
7450.0 0.0016098
7470.0 0.0017302
7490.0 0.0018787
7510.0 0.0019847
7530.0 0.0018519
7550.0 0.0015594
7570.0 0.0012259
7590.0 0.00090293
7610.0 0.00080187
7630.0 0.00086774
7650.0 0.0010051
7670.0 0.0011661
7690.0 0.0013226
7710.0 0.0014125
7730.0 0.0014514
7750.0 0.0015168
7770.0 0.0015116
7790.0 0.0014553
7810.0 0.0014512
7830.0 0.0014238
7850.0 0.0013004
7870.0 0.0011818
7890.0 0.0010608
7910.0 0.00090532
7930.0 0.00079059
7950.0 0.00071667
7970.0 0.00069729
7990.0 0.00071589
8010.0 0.00075471
8030.0 0.00075629
8050.0 0.00076182
8070.0 0.00074943
8090.0 0.00076775
8110.0 0.00072422
8130.0 0.00063386
8150.0 0.00059554
8170.0 0.0005489
8190.0 0.0005433
8210.0 0.00058247
8230.0 0.00062316
8250.0 0.00057752
8270.0 0.00051483
8290.0 0.000423
8310.0 0.00029156
8330.0 0.00018924
8350.0 0.00013784
8370.0 0.00014652
8390.0 0.00017353
8410.0 0.00022043
8430.0 0.00026937
8450.0 0.00029743
8470.0 0.00033001
8490.0 0.00032443
8510.0 0.00032612
8530.0 0.00034061
8550.0 0.00041236
8570.0 0.000508
8590.0 0.00058048
8610.0 0.00070166
8630.0 0.00081339
8650.0 0.00085587
8670.0 0.00087012
8690.0 0.00086496
8710.0 0.00080884
8730.0 0.00077641
8750.0 0.00071852
8770.0 0.00068997
8790.0 0.00068455
8810.0 0.00065263
8830.0 0.000549
8850.0 0.00045243
8870.0 0.00037731
8890.0 0.00036882
8910.0 0.00039837
8930.0 0.00042281
8950.0 0.00047454
8970.0 0.00048201
8990.0 0.00047456
9010.0 0.00045635
9030.0 0.00045157
9050.0 0.00045599
9070.0 0.00045952
9090.0 0.00046215
9110.0 0.00046452
9130.0 0.00046662
9150.0 0.0004686
9170.0 0.0004707
9190.0 0.00047292
9210.0 0.00047532
9230.0 0.00047779
9250.0 0.00048042
9270.0 0.00048316
9290.0 0.00048601
9310.0 0.000489
9330.0 0.00049212
9350.0 0.00049532
9370.0 0.00049865
9390.0 0.00050211
9410.0 0.00050567
9430.0 0.00050931
9450.0 0.00051311
9470.0 0.00051701
9490.0 0.00052099
9510.0 0.00052509
9530.0 0.00052932
9550.0 0.00053361
9570.0 0.00053799
9590.0 0.00054251
9610.0 0.00054711
9630.0 0.00055178
9650.0 0.00055655
9670.0 0.00056144
9690.0 0.00056638
9710.0 0.00057141
9730.0 0.00057653
9750.0 0.00058174
9770.0 0.00058696
9790.0 0.0005923
9810.0 0.00059772
9830.0 0.00060317
9850.0 0.00060868
9870.0 0.00061428
9890.0 0.00061992
9910.0 0.00062558
9930.0 0.00063132
9950.0 0.0006371
9970.0 0.00064289
9990.0 0.0006487
10010.0 0.0006247
10030.0 0.0006302
10050.0 0.00063567
10070.0 0.00064114
10090.0 0.00064672
10110.0 0.00065224
10130.0 0.00065777
10150.0 0.00066332
10170.0 0.00066884
10190.0 0.0006743
10210.0 0.0006798
10230.0 0.00068528
10250.0 0.00069068
10270.0 0.00069606
10290.0 0.00070145
10310.0 0.00070674
10330.0 0.00071195
10350.0 0.00071716
10370.0 0.00072232
10390.0 0.00072737
10410.0 0.00073235
10430.0 0.00073733
10450.0 0.00074217
10470.0 0.00074691
10490.0 0.0007516
10510.0 0.00075621
10530.0 0.00076064
10550.0 0.000765
10570.0 0.00076931
10590.0 0.00077347
10610.0 0.00077748
10630.0 0.00078144
10650.0 0.00078527
10670.0 0.0007889
10690.0 0.00079244
10710.0 0.00079588
10730.0 0.00079914
10750.0 0.00080221
10770.0 0.00080523
10790.0 0.00080809
10810.0 0.00081073
10830.0 0.00081322
10850.0 0.00081555
10870.0 0.00081747
10890.0 0.00081891
10910.0 0.00081972
10930.0 0.00081943
10950.0 0.00081735
10970.0 0.00081321
10990.0 0.0008068
11010.0 0.00078355
11030.0 0.00077095
11050.0 0.000756
11070.0 0.00073829
11090.0 0.00071701
11110.0 0.00069506
11130.0 0.00067217
11150.0 0.00064753
11170.0 0.00062226
11190.0 0.000598
11210.0 0.00057324
11230.0 0.00054826
11250.0 0.00052489
11270.0 0.00050293
11290.0 0.00048141
11310.0 0.00046152
11330.0 0.00044441
11350.0 0.00042855
11370.0 0.00041411
11390.0 0.00040171
11410.0 0.00039085
11430.0 0.00038058
11450.0 0.00037142
11470.0 0.0003631
11490.0 0.00035487
11510.0 0.00034639
11530.0 0.00033802
11550.0 0.00032933
11570.0 0.00031978
11590.0 0.00030975
11610.0 0.00029953
11630.0 0.0002885
11650.0 0.00027687
11670.0 0.0002656
11690.0 0.00025439
11710.0 0.00024307
11730.0 0.00023231
11750.0 0.00022252
11770.0 0.00021308
11790.0 0.00020436
11810.0 0.00019675
11830.0 0.00018997
11850.0 0.00018373
11870.0 0.00017844
11890.0 0.00017391
11910.0 0.00016976
11930.0 0.00016597
11950.0 0.00016256
11970.0 0.00015925
11990.0 0.00015585
12010.0 0.00015246
12030.0 0.00014902
12050.0 0.00014536
12070.0 0.00014148
12090.0 0.00013772
12110.0 0.00013388
12130.0 0.00013
12150.0 0.00012635
12170.0 0.00012305
12190.0 0.00011996
12210.0 0.00011741
12230.0 0.0001155
12250.0 0.0001142
12270.0 0.00011362
12290.0 0.00011379
12310.0 0.00011463
12330.0 0.00011625
12350.0 0.00011855
12370.0 0.00012134
12390.0 0.00012467
12410.0 0.00012866
12430.0 0.0001327
12450.0 0.00013684
12470.0 0.0001412
12490.0 0.00014547
12510.0 0.00014935
12530.0 0.00015308
12550.0 0.00015652
12570.0 0.00015937
12590.0 0.00016166
12610.0 0.00016351
12630.0 0.00016472
12650.0 0.00016524
12670.0 0.00016522
12690.0 0.00016463
12710.0 0.0001635
12730.0 0.00016191
12750.0 0.00015981
12770.0 0.00015733
12790.0 0.00015457
12810.0 0.00015149
12830.0 0.0001481
12850.0 0.00014463
12870.0 0.00014102
12890.0 0.00013717
12910.0 0.00013326
12930.0 0.00012936
12950.0 0.00012527
12970.0 0.00012105
12990.0 0.00011696
13010.0 0.00011283
13030.0 0.00010859
13050.0 0.00010442
13070.0 0.00010043
13090.0 9.6375e-05
13110.0 9.2401e-05
13130.0 8.8694e-05
13150.0 8.5164e-05
13170.0 8.1717e-05
13190.0 7.8654e-05
13210.0 7.5972e-05
13230.0 7.3559e-05
13250.0 7.152e-05
13270.0 6.9942e-05
13290.0 6.8752e-05
13310.0 6.7975e-05
13330.0 6.7653e-05
13350.0 6.7734e-05
13370.0 6.8227e-05
13390.0 6.9126e-05
13410.0 7.0271e-05
13430.0 7.1708e-05
13450.0 7.3422e-05
13470.0 7.5254e-05
13490.0 7.7127e-05
13510.0 7.9186e-05
13530.0 8.1204e-05
13550.0 8.307e-05
13570.0 8.4859e-05
13590.0 8.6553e-05
13610.0 8.8e-05
13630.0 8.9207e-05
13650.0 9.0261e-05
13670.0 9.107e-05
13690.0 9.1618e-05
13710.0 9.196e-05
13730.0 9.2098e-05
13750.0 9.2002e-05
13770.0 9.1725e-05
13790.0 9.1271e-05
13810.0 9.0654e-05
13830.0 8.9917e-05
13850.0 8.9037e-05
13870.0 8.8023e-05
13890.0 8.6931e-05
13910.0 8.576e-05
13930.0 8.4466e-05
13950.0 8.3106e-05
13970.0 8.1755e-05
13990.0 8.0328e-05
14010.0 7.8855e-05
14030.0 7.7419e-05
14050.0 7.6005e-05
14070.0 7.4553e-05
14090.0 7.3192e-05
14110.0 7.1941e-05
14130.0 7.0759e-05
14150.0 6.9678e-05
14170.0 6.878e-05
14190.0 6.8031e-05
14210.0 6.7429e-05
14230.0 6.7018e-05
14250.0 6.6793e-05
14270.0 6.6752e-05
14290.0 6.6909e-05
14310.0 6.7234e-05
14330.0 6.7722e-05
14350.0 6.8388e-05
14370.0 6.918e-05
14390.0 7.0056e-05
14410.0 7.1071e-05
14430.0 7.2177e-05
14450.0 7.3306e-05
14470.0 7.4488e-05
14490.0 7.5772e-05
14510.0 7.7042e-05
14530.0 7.8306e-05
14550.0 7.9651e-05
14570.0 8.1053e-05
14590.0 8.2455e-05
14610.0 8.3959e-05
14630.0 8.5624e-05
14650.0 8.7357e-05
14670.0 8.9191e-05
14690.0 9.1244e-05
14710.0 9.3503e-05
14730.0 9.5796e-05
14750.0 9.8303e-05
14770.0 0.00010104
14790.0 0.00010385
14810.0 0.00010671
14830.0 0.00010983
14850.0 0.00011296
14870.0 0.00011596
14890.0 0.00011896
14910.0 0.0001219
14930.0 0.00012453
14950.0 0.00012684
14970.0 0.0001289
14990.0 0.00013054
15010.0 0.00013172
15030.0 0.00013254
15050.0 0.00013303
15070.0 0.00013323
15090.0 0.00013324
15110.0 0.00013312
15130.0 0.00013293
15150.0 0.00013271
15170.0 0.00013246
15190.0 0.00013219
15210.0 0.00013194
15230.0 0.00013169
15250.0 0.00013143
15270.0 0.00013117
15290.0 0.00013093
15310.0 0.00013068
15330.0 0.00013042
15350.0 0.00013018
15370.0 0.00012995
15390.0 0.00012969
15410.0 0.00012945
15430.0 0.00012921
15450.0 0.00012897
15470.0 0.00012872
15490.0 0.00012849
15510.0 0.00012826
15530.0 0.00012801
15550.0 0.00012777
15570.0 0.00012754
15590.0 0.0001273
15610.0 0.00012705
15630.0 0.00012682
15650.0 0.00012659
15670.0 0.00012634
15690.0 0.0001261
15710.0 0.00012588
15730.0 0.00012563
15750.0 0.00012539
15770.0 0.00012515
15790.0 0.00012491
15810.0 0.00012466
15830.0 0.00012441
15850.0 0.00012418
15870.0 0.00012393
15890.0 0.00012367
15910.0 0.00012343
15930.0 0.00012319
15950.0 0.00012292
15970.0 0.00012267
15990.0 0.00012242
16010.0 0.00012216
16030.0 0.00012189
16050.0 0.00012164
16070.0 0.00012138
16090.0 0.00012111
16110.0 0.00012085
16130.0 0.00012059
16150.0 0.00012031
16170.0 0.00012003
16190.0 0.00011976
16210.0 0.00011948
16230.0 0.0001192
16250.0 0.00011892
16270.0 0.00011864
16290.0 0.00011835
16310.0 0.00011806
16330.0 0.00011777
16350.0 0.00011748
16370.0 0.00011716
16390.0 0.00011687
16410.0 0.00011658
16430.0 0.00011626
16450.0 0.00011595
16470.0 0.00011566
16490.0 0.00011534
16510.0 0.00011502
16530.0 0.0001147
16550.0 0.00011438
16570.0 0.00011405
16590.0 0.00011372
16610.0 0.0001134
16630.0 0.00011307
16650.0 0.00011272
16670.0 0.00011239
16690.0 0.00011206
16710.0 0.0001117
16730.0 0.00011135
16750.0 0.00011101
16770.0 0.00011065
16790.0 0.00011029
16810.0 0.00010994
16830.0 0.00010958
16850.0 0.00010921
16870.0 0.00010885
16890.0 0.00010849
16910.0 0.00010811
16930.0 0.00010772
16950.0 0.00010735
16970.0 0.00010698
16990.0 0.00010658
17010.0 0.0001062
17030.0 0.00010582
17050.0 0.00010543
17070.0 0.00010503
17090.0 0.00010464
17110.0 0.00010424
17130.0 0.00010383
17150.0 0.00010342
17170.0 0.00010303
17190.0 0.00010262
17210.0 0.0001022
17230.0 0.0001018
17250.0 0.00010138
17270.0 0.00010095
17290.0 0.00010054
17310.0 0.00010012
17330.0 9.969e-05
17350.0 9.9255e-05
17370.0 9.8838e-05
17390.0 9.8409e-05
17410.0 9.797e-05
17430.0 9.7539e-05
17450.0 9.7113e-05
17470.0 9.6661e-05
17490.0 9.6216e-05
17510.0 9.5783e-05
17530.0 9.5339e-05
17550.0 9.4885e-05
17570.0 9.4444e-05
17590.0 9.4004e-05
17610.0 9.3546e-05
17630.0 9.3092e-05
17650.0 9.2647e-05
17670.0 9.2192e-05
17690.0 9.172e-05
17710.0 9.1271e-05
17730.0 9.0818e-05
17750.0 9.0352e-05
17770.0 8.989e-05
17790.0 8.9441e-05
17810.0 8.8973e-05
17830.0 8.85e-05
17850.0 8.804e-05
17870.0 8.7579e-05
17890.0 8.7102e-05
17910.0 8.663e-05
17930.0 8.6173e-05
17950.0 8.5702e-05
17970.0 8.5227e-05
17990.0 8.4763e-05
18010.0 8.4298e-05
18030.0 8.3812e-05
18050.0 8.334e-05
18070.0 8.2875e-05
18090.0 8.2398e-05
18110.0 8.1916e-05
18130.0 8.1451e-05
18150.0 8.0982e-05
18170.0 8.05e-05
18190.0 8.0026e-05
18210.0 7.956e-05
18230.0 7.9078e-05
18250.0 7.8594e-05
18270.0 7.8127e-05
18290.0 7.7655e-05
18310.0 7.7173e-05
18330.0 7.67e-05
18350.0 7.6236e-05
18370.0 7.5755e-05
18390.0 7.5276e-05
18410.0 7.4809e-05
18430.0 7.4337e-05
18450.0 7.3851e-05
18470.0 7.3381e-05
18490.0 7.2916e-05
18510.0 7.244e-05
18530.0 7.1966e-05
18550.0 7.1505e-05
18570.0 7.1034e-05
18590.0 7.0554e-05
18610.0 7.0087e-05
18630.0 6.9625e-05
18650.0 6.9151e-05
18670.0 6.8677e-05
18690.0 6.8222e-05
18710.0 6.7757e-05
18730.0 6.7287e-05
18750.0 6.6827e-05
18770.0 6.6372e-05
18790.0 6.5898e-05
18810.0 6.5434e-05
18830.0 6.4982e-05
18850.0 6.4522e-05
18870.0 6.4057e-05
18890.0 6.3606e-05
18910.0 6.3157e-05
18930.0 6.2695e-05
18950.0 6.224e-05
18970.0 6.1795e-05
18990.0 6.1342e-05
19010.0 6.0878e-05
19030.0 6.0437e-05
19050.0 5.9995e-05
19070.0 5.9543e-05
19090.0 5.9097e-05
19110.0 5.8665e-05
19130.0 5.8217e-05
19150.0 5.7769e-05
19170.0 5.7334e-05
19190.0 5.6899e-05
19210.0 5.6453e-05
19230.0 5.6016e-05
19250.0 5.5592e-05
19270.0 5.5157e-05
19290.0 5.4721e-05
19310.0 5.4298e-05
19330.0 5.3874e-05
19350.0 5.3434e-05
19370.0 5.301e-05
19390.0 5.2592e-05
19410.0 5.2167e-05
19430.0 5.174e-05
19450.0 5.1329e-05
19470.0 5.0914e-05
19490.0 5.0491e-05
19510.0 5.0078e-05
19530.0 4.9672e-05
19550.0 4.9254e-05
19570.0 4.8836e-05
19590.0 4.8435e-05
19610.0 4.803e-05
19630.0 4.7619e-05
19650.0 4.7218e-05
19670.0 4.6825e-05
19690.0 4.6418e-05
19710.0 4.6015e-05
19730.0 4.5624e-05
19750.0 4.5229e-05
19770.0 4.4824e-05
19790.0 4.4435e-05
19810.0 4.4051e-05
19830.0 4.3657e-05
19850.0 4.3264e-05
19870.0 4.2881e-05
19890.0 4.2481e-05
19910.0 4.2059e-05
19930.0 4.1627e-05
19950.0 4.1164e-05
19970.0 4.0637e-05
19990.0 4.0047e-05
20010.0 4.0205e-05
20030.0 3.9467e-05
20050.0 3.8646e-05
20070.0 3.7792e-05
20090.0 3.6904e-05
20110.0 3.5938e-05
20130.0 3.4987e-05
20150.0 3.4069e-05
20170.0 3.3141e-05
20190.0 3.2222e-05
20210.0 3.1369e-05
20230.0 3.0549e-05
20250.0 2.9742e-05
20270.0 2.9e-05
20290.0 2.8328e-05
20310.0 2.7696e-05
20330.0 2.711e-05
20350.0 2.6624e-05
20370.0 2.6196e-05
20390.0 2.5825e-05
20410.0 2.553e-05
20430.0 2.5305e-05
20450.0 2.5137e-05
20470.0 2.5035e-05
20490.0 2.4995e-05
20510.0 2.5008e-05
20530.0 2.5077e-05
20550.0 2.5191e-05
20570.0 2.5339e-05
20590.0 2.553e-05
20610.0 2.5755e-05
20630.0 2.5996e-05
20650.0 2.6261e-05
20670.0 2.6561e-05
20690.0 2.6861e-05
20710.0 2.7164e-05
20730.0 2.7487e-05
20750.0 2.7819e-05
20770.0 2.8136e-05
20790.0 2.8465e-05
20810.0 2.8807e-05
20830.0 2.9142e-05
20850.0 2.9472e-05
20870.0 2.9824e-05
20890.0 3.0179e-05
20910.0 3.0519e-05
20930.0 3.0871e-05
20950.0 3.1237e-05
20970.0 3.1594e-05
20990.0 3.1946e-05
21010.0 3.2321e-05
21030.0 3.2689e-05
21050.0 3.3041e-05
21070.0 3.3396e-05
21090.0 3.3757e-05
21110.0 3.4088e-05
21130.0 3.4401e-05
21150.0 3.4712e-05
21170.0 3.4999e-05
21190.0 3.5253e-05
21210.0 3.5493e-05
21230.0 3.5711e-05
21250.0 3.5886e-05
21270.0 3.6027e-05
21290.0 3.6138e-05
21310.0 3.6205e-05
21330.0 3.6227e-05
21350.0 3.6205e-05
21370.0 3.6133e-05
21390.0 3.601e-05
21410.0 3.5836e-05
21430.0 3.5594e-05
21450.0 3.5299e-05
21470.0 3.4958e-05
21490.0 3.4553e-05
21510.0 3.4088e-05
21530.0 3.3594e-05
21550.0 3.3056e-05
21570.0 3.2461e-05
21590.0 3.185e-05
21610.0 3.1236e-05
21630.0 3.0596e-05
21650.0 2.994e-05
21670.0 2.934e-05
21690.0 2.8754e-05
21710.0 2.8186e-05
21730.0 2.7675e-05
21750.0 2.7228e-05
21770.0 2.6818e-05
21790.0 2.648e-05
21810.0 2.6222e-05
21830.0 2.6034e-05
21850.0 2.5919e-05
21870.0 2.5883e-05
21890.0 2.5918e-05
21910.0 2.6027e-05
21930.0 2.6206e-05
21950.0 2.6441e-05
21970.0 2.6739e-05
21990.0 2.7111e-05
22010.0 2.7515e-05
22030.0 2.7955e-05
22050.0 2.8448e-05
22070.0 2.8973e-05
22090.0 2.9497e-05
22110.0 3.0052e-05
22130.0 3.0633e-05
22150.0 3.12e-05
22170.0 3.1756e-05
22190.0 3.2329e-05
22210.0 3.2881e-05
22230.0 3.3381e-05
22250.0 3.3864e-05
22270.0 3.432e-05
22290.0 3.4718e-05
22310.0 3.5064e-05
22330.0 3.5375e-05
22350.0 3.5619e-05
22370.0 3.5794e-05
22390.0 3.5909e-05
22410.0 3.5955e-05
22430.0 3.5928e-05
22450.0 3.5833e-05
22470.0 3.5663e-05
22490.0 3.542e-05
22510.0 3.5119e-05
22530.0 3.4735e-05
22550.0 3.4271e-05
22570.0 3.3761e-05
22590.0 3.3189e-05
22610.0 3.2536e-05
22630.0 3.1834e-05
22650.0 3.1111e-05
22670.0 3.0314e-05
22690.0 2.9465e-05
22710.0 2.8609e-05
22730.0 2.7726e-05
22750.0 2.6769e-05
22770.0 2.5832e-05
22790.0 2.4916e-05
