#lamb flux
1010.0 2.2629e-08
1030.0 2.4838e-08
1050.0 2.7379e-08
1070.0 3.0239e-08
1090.0 3.3488e-08
1110.0 3.682e-08
1130.0 4.0174e-08
1150.0 4.3687e-08
1170.0 4.7311e-08
1190.0 5.0747e-08
1210.0 5.423e-08
1230.0 5.7829e-08
1250.0 6.1355e-08
1270.0 6.4779e-08
1290.0 6.8397e-08
1310.0 7.2012e-08
1330.0 7.5479e-08
1350.0 7.8986e-08
1370.0 8.2605e-08
1390.0 8.6134e-08
1410.0 8.9559e-08
1430.0 9.3139e-08
1450.0 9.6718e-08
1470.0 1.0018e-07
1490.0 1.0367e-07
1510.0 1.0737e-07
1530.0 1.1087e-07
1550.0 1.1432e-07
1570.0 1.1789e-07
1590.0 1.2147e-07
1610.0 1.2488e-07
1630.0 1.284e-07
1650.0 1.3202e-07
1670.0 1.3551e-07
1690.0 1.3897e-07
1710.0 1.4255e-07
1730.0 1.4616e-07
1750.0 1.4955e-07
1770.0 1.5304e-07
1790.0 1.566e-07
1810.0 1.6005e-07
1830.0 1.6344e-07
1850.0 1.6703e-07
1870.0 1.7053e-07
1890.0 1.7391e-07
1910.0 1.7736e-07
1930.0 1.8089e-07
1950.0 1.8425e-07
1970.0 1.8757e-07
1990.0 1.9101e-07
2010.0 1.9439e-07
2030.0 1.9763e-07
2050.0 2.0097e-07
2070.0 2.0438e-07
2090.0 2.0758e-07
2110.0 2.1076e-07
2130.0 2.1402e-07
2150.0 2.172e-07
2170.0 2.2021e-07
2190.0 2.2332e-07
2210.0 2.2643e-07
2230.0 2.2937e-07
2250.0 2.3228e-07
2270.0 2.353e-07
2290.0 2.3818e-07
2310.0 2.409e-07
2330.0 2.4371e-07
2350.0 2.4658e-07
2370.0 2.494e-07
2390.0 2.5249e-07
2410.0 2.5625e-07
2430.0 2.6067e-07
2450.0 2.6609e-07
2470.0 2.7324e-07
2490.0 2.8245e-07
2510.0 2.9302e-07
2530.0 3.059e-07
2550.0 3.2218e-07
2570.0 3.4253e-07
2590.0 3.6902e-07
2610.0 4.087e-07
2630.0 4.6504e-07
2650.0 5.3813e-07
2670.0 6.3193e-07
2690.0 7.4629e-07
2710.0 8.6715e-07
2730.0 9.8526e-07
2750.0 1.1003e-06
2770.0 1.1987e-06
2790.0 1.2751e-06
2810.0 1.3339e-06
2830.0 1.3781e-06
2850.0 1.4061e-06
2870.0 1.4249e-06
2890.0 1.4384e-06
2910.0 1.4479e-06
2930.0 1.4547e-06
2950.0 1.4609e-06
2970.0 1.4669e-06
2990.0 1.4724e-06
3010.0 4.4312e-05
3030.0 4.4469e-05
3050.0 4.462e-05
3070.0 4.4732e-05
3090.0 4.4811e-05
3110.0 4.4807e-05
3130.0 4.466e-05
3150.0 4.4328e-05
3170.0 4.3723e-05
3190.0 4.2854e-05
3210.0 4.1791e-05
3230.0 4.0594e-05
3250.0 3.9385e-05
3270.0 3.849e-05
3290.0 3.7899e-05
3310.0 3.7865e-05
3330.0 3.829e-05
3350.0 3.913e-05
3370.0 4.0382e-05
3390.0 4.1991e-05
3410.0 4.376e-05
3430.0 4.5757e-05
3450.0 4.8067e-05
3470.0 5.0599e-05
3490.0 5.3296e-05
3510.0 5.6354e-05
3530.0 5.9654e-05
3550.0 6.3069e-05
3570.0 6.6709e-05
3590.0 7.07e-05
3610.0 7.4945e-05
3630.0 7.9152e-05
3650.0 8.3552e-05
3670.0 8.7535e-05
3690.0 9.0496e-05
3710.0 9.2095e-05
3730.0 9.174e-05
3750.0 8.9627e-05
3770.0 9.042e-05
3790.0 8.9657e-05
3810.0 8.0442e-05
3830.0 8.1604e-05
3850.0 0.00010206
3870.0 0.000106
3890.0 9.5201e-05
3910.0 9.2211e-05
3930.0 0.00010054
3950.0 0.0001091
3970.0 0.00010772
3990.0 8.2181e-05
4010.0 0.00021656
4030.0 0.00024849
4050.0 0.00028342
4070.0 0.00026486
4090.0 0.00024274
4110.0 0.00020975
4130.0 0.0002128
4150.0 0.00025111
4170.0 0.00022481
4190.0 0.00022365
4210.0 0.00023273
4230.0 0.00026152
4250.0 0.00031266
4270.0 0.00032646
4290.0 0.00029393
4310.0 0.00029108
4330.0 0.00029976
4350.0 0.0003541
4370.0 0.0004153
4390.0 0.00036295
4410.0 0.00023958
4430.0 0.0001914
4450.0 0.00017774
4470.0 0.00012491
4490.0 0.00015754
4510.0 0.0002828
4530.0 0.00033541
4550.0 0.0003245
4570.0 0.00033021
4590.0 0.00036546
4610.0 0.0005847
4630.0 0.0007916
4650.0 0.00080624
4670.0 0.0007284
4690.0 0.00071256
4710.0 0.00074803
4730.0 0.00066698
4750.0 0.00047216
4770.0 0.00033456
4790.0 0.0003341
4810.0 0.00033373
4830.0 0.00031632
4850.0 0.0003446
4870.0 0.00045578
4890.0 0.0005327
4910.0 0.00044415
4930.0 0.00041059
4950.0 0.00046121
4970.0 0.0006001
4990.0 0.00081252
5010.0 0.0009397
5030.0 0.00079392
5050.0 0.00051621
5070.0 0.00035121
5090.0 0.00027407
5110.0 0.00027017
5130.0 0.00031865
5150.0 0.00033026
5170.0 0.00031894
5190.0 0.00029138
5210.0 0.00031398
5230.0 0.00035421
5250.0 0.00039564
5270.0 0.00039844
5290.0 0.00043543
5310.0 0.00054026
5330.0 0.00059232
5350.0 0.00058655
5370.0 0.00063396
5390.0 0.00075725
5410.0 0.00070621
5430.0 0.00058987
5450.0 0.00056383
5470.0 0.00062196
5490.0 0.00076632
5510.0 0.00094463
5530.0 0.0010897
5550.0 0.0010228
5570.0 0.00092518
5590.0 0.00078506
5610.0 0.00075415
5630.0 0.00078342
5650.0 0.00073221
5670.0 0.0006834
5690.0 0.00058322
5710.0 0.00058298
5730.0 0.00055002
5750.0 0.0003475
5770.0 0.00026048
5790.0 0.00030581
5810.0 0.00033435
5830.0 0.00045503
5850.0 0.00056681
5870.0 0.00062154
5890.0 0.00061524
5910.0 0.00060214
5930.0 0.00057477
5950.0 0.00058842
5970.0 0.00069879
5990.0 0.00061785
6010.0 0.00049956
6030.0 0.00041634
6050.0 0.00036657
6070.0 0.00039478
6090.0 0.00043443
6110.0 0.00046556
6130.0 0.00045427
6150.0 0.0003761
6170.0 0.00031195
6190.0 0.00036056
6210.0 0.00051611
6230.0 0.00071825
6250.0 0.00077859
6270.0 0.00064016
6290.0 0.00054329
6310.0 0.00041968
6330.0 0.00031438
6350.0 0.00029275
6370.0 0.00030757
6390.0 0.00036038
6410.0 0.0004555
6430.0 0.00053969
6450.0 0.00063833
6470.0 0.00070136
6490.0 0.00084249
6510.0 0.00094313
6530.0 0.00094569
6550.0 0.00086238
6570.0 0.00070844
6590.0 0.00065351
6610.0 0.00055243
6630.0 0.00053616
6650.0 0.0005153
6670.0 0.00047246
6690.0 0.00039442
6710.0 0.00037144
6730.0 0.00021275
6750.0 0.00024066
6770.0 0.00031545
6790.0 0.0003917
6810.0 0.00031213
6830.0 0.00031995
6850.0 0.00028181
6870.0 0.00025976
6890.0 0.00023458
6910.0 0.00026743
6930.0 0.00025132
6950.0 0.00027885
6970.0 0.00029234
6990.0 0.00032816
7010.0 0.00032248
7030.0 0.00035045
7050.0 0.000318
7070.0 0.00028286
7090.0 0.00029405
7110.0 0.00030861
7130.0 0.00034444
7150.0 0.00037825
7170.0 0.00042145
7190.0 0.0004577
7210.0 0.00042805
7230.0 0.00043694
7250.0 0.00046785
7270.0 0.00050427
7290.0 0.00061173
7310.0 0.00065762
7330.0 0.0006275
7350.0 0.00056519
7370.0 0.00045535
7390.0 0.0004535
7410.0 0.00051597
7430.0 0.00058128
7450.0 0.00062977
7470.0 0.00059772
7490.0 0.00050634
7510.0 0.00068511
7530.0 0.00065095
7550.0 0.00060259
7570.0 0.00043854
7590.0 0.00024781
7610.0 0.00019763
7630.0 0.0002514
7650.0 0.00031464
7670.0 0.00044124
7690.0 0.00048786
7710.0 0.00047381
7730.0 0.00048559
7750.0 0.00058907
7770.0 0.00060247
7790.0 0.00055154
7810.0 0.00047306
7830.0 0.0005005
7850.0 0.0005177
7870.0 0.00049104
7890.0 0.00039671
7910.0 0.00029378
7930.0 0.00029256
7950.0 0.00026567
7970.0 0.00023491
7990.0 0.00022367
8010.0 6.046e-05
8030.0 5.4822e-05
8050.0 5.9318e-05
8070.0 6.8143e-05
8090.0 8.4834e-05
8110.0 8.0121e-05
8130.0 4.5964e-05
8150.0 4.877e-05
8170.0 2.5671e-05
8190.0 1.411e-05
8210.0 4.4121e-05
8230.0 5.3977e-05
8250.0 1.9604e-05
8270.0 1.4892e-05
8290.0 3.2549e-05
8310.0 2.9567e-05
8330.0 1.8284e-05
8350.0 1.4528e-05
8370.0 2.6878e-06
8390.0 1.5639e-05
8410.0 1.7765e-05
8430.0 2.1971e-05
8450.0 2.4943e-05
8470.0 4.2771e-05
8490.0 3.501e-05
8510.0 2.6778e-05
8530.0 1.342e-05
8550.0 4.8977e-05
8570.0 7.5426e-05
8590.0 5.2265e-05
8610.0 7.9122e-05
8630.0 8.6739e-05
8650.0 4.7654e-05
8670.0 7.0216e-05
8690.0 0.00010782
8710.0 9.1891e-05
8730.0 9.8239e-05
8750.0 7.6769e-05
8770.0 6.8041e-05
8790.0 7.5247e-05
8810.0 8.1748e-05
8830.0 4.4929e-05
8850.0 1.8133e-05
8870.0 1.2344e-05
8890.0 3.3274e-05
8910.0 5.3668e-05
8930.0 7.1879e-05
8950.0 7.9029e-05
8970.0 7.579e-05
8990.0 5.5299e-05
9010.0 0.00010338
9030.0 8.369e-05
9050.0 8.5546e-05
9070.0 8.768e-05
9090.0 8.9453e-05
9110.0 9.1634e-05
9130.0 9.3222e-05
9150.0 9.4366e-05
9170.0 9.5582e-05
9190.0 9.6884e-05
9210.0 9.8252e-05
9230.0 9.9696e-05
9250.0 0.00010115
9270.0 0.00010266
9290.0 0.0001042
9310.0 0.00010574
9330.0 0.0001073
9350.0 0.00010891
9370.0 0.00011054
9390.0 0.00011216
9410.0 0.00011383
9430.0 0.00011554
9450.0 0.00011724
9470.0 0.00011896
9490.0 0.00012073
9510.0 0.00012251
9530.0 0.00012429
9550.0 0.00012614
9570.0 0.00012801
9590.0 0.00012987
9610.0 0.00013177
9630.0 0.00013372
9650.0 0.00013567
9670.0 0.00013762
9690.0 0.00013963
9710.0 0.00014167
9730.0 0.0001437
9750.0 0.00014576
9770.0 0.00014789
9790.0 0.00015
9810.0 0.00015212
9830.0 0.00015429
9850.0 0.00015649
9870.0 0.00015867
9890.0 0.00016089
9910.0 0.00016315
9930.0 0.00016541
9950.0 0.00016768
9970.0 0.00016999
9990.0 0.00017233
10010.0 0.00015116
10030.0 0.00015319
10050.0 0.00015525
10070.0 0.00015732
10090.0 0.00015936
10110.0 0.00016146
10130.0 0.00016355
10150.0 0.00016563
10170.0 0.00016773
10190.0 0.00016987
10210.0 0.00017198
10230.0 0.00017408
10250.0 0.00017622
10270.0 0.00017835
10290.0 0.00018045
10310.0 0.00018258
10330.0 0.00018474
10350.0 0.00018685
10370.0 0.00018896
10390.0 0.00019109
10410.0 0.00019321
10430.0 0.00019529
10450.0 0.00019738
10470.0 0.00019949
10490.0 0.00020155
10510.0 0.0002036
10530.0 0.00020568
10550.0 0.00020773
10570.0 0.00020973
10590.0 0.00021174
10610.0 0.00021374
10630.0 0.00021569
10650.0 0.00021763
10670.0 0.00021958
10690.0 0.0002215
10710.0 0.00022336
10730.0 0.00022523
10750.0 0.0002271
10770.0 0.00022889
10790.0 0.00023066
10810.0 0.00023242
10830.0 0.00023413
10850.0 0.00023576
10870.0 0.00023735
10890.0 0.00023878
10910.0 0.00023995
10930.0 0.00024075
10950.0 0.00024097
10970.0 0.00024042
10990.0 0.00023902
11010.0 0.00022528
11030.0 0.00022176
11050.0 0.00021741
11070.0 0.00021217
11090.0 0.00020584
11110.0 0.00019929
11130.0 0.00019245
11150.0 0.00018511
11170.0 0.00017756
11190.0 0.00017026
11210.0 0.00016274
11230.0 0.00015506
11250.0 0.00014774
11270.0 0.00014072
11290.0 0.00013371
11310.0 0.00012708
11330.0 0.00012123
11350.0 0.0001157
11370.0 0.00011058
11390.0 0.00010612
11410.0 0.0001022
11430.0 9.8528e-05
11450.0 9.5331e-05
11470.0 9.2534e-05
11490.0 8.9907e-05
11510.0 8.736e-05
11530.0 8.4981e-05
11550.0 8.2618e-05
11570.0 8.011e-05
11590.0 7.7528e-05
11610.0 7.4915e-05
11630.0 7.2096e-05
11650.0 6.91e-05
11670.0 6.6158e-05
11690.0 6.3187e-05
11710.0 6.0135e-05
11730.0 5.718e-05
11750.0 5.4441e-05
11770.0 5.1755e-05
11790.0 4.9231e-05
11810.0 4.6996e-05
11830.0 4.4983e-05
11850.0 4.3117e-05
11870.0 4.1535e-05
11890.0 4.02e-05
11910.0 3.9011e-05
11930.0 3.7973e-05
11950.0 3.7092e-05
11970.0 3.6295e-05
11990.0 3.5538e-05
12010.0 3.4834e-05
12030.0 3.4159e-05
12050.0 3.3467e-05
12070.0 3.2756e-05
12090.0 3.2072e-05
12110.0 3.1381e-05
12130.0 3.0688e-05
12150.0 3.0042e-05
12170.0 2.9464e-05
12190.0 2.8944e-05
12210.0 2.8544e-05
12230.0 2.8287e-05
12250.0 2.8183e-05
12270.0 2.8266e-05
12290.0 2.8537e-05
12310.0 2.8982e-05
12330.0 2.9651e-05
12350.0 3.0516e-05
12370.0 3.1519e-05
12390.0 3.2694e-05
12410.0 3.4086e-05
12430.0 3.5506e-05
12450.0 3.6981e-05
12470.0 3.8554e-05
12490.0 4.0134e-05
12510.0 4.1612e-05
12530.0 4.3082e-05
12550.0 4.4497e-05
12570.0 4.5738e-05
12590.0 4.6819e-05
12610.0 4.7776e-05
12630.0 4.8526e-05
12650.0 4.9023e-05
12670.0 4.933e-05
12690.0 4.9416e-05
12710.0 4.9272e-05
12730.0 4.8925e-05
12750.0 4.8357e-05
12770.0 4.7599e-05
12790.0 4.6694e-05
12810.0 4.5627e-05
12830.0 4.4404e-05
12850.0 4.313e-05
12870.0 4.179e-05
12890.0 4.0349e-05
12910.0 3.8889e-05
12930.0 3.7454e-05
12950.0 3.5965e-05
12970.0 3.4455e-05
12990.0 3.3028e-05
13010.0 3.1623e-05
13030.0 3.0207e-05
13050.0 2.8847e-05
13070.0 2.7574e-05
13090.0 2.6297e-05
13110.0 2.5061e-05
13130.0 2.3918e-05
13150.0 2.2834e-05
13170.0 2.1769e-05
13190.0 2.0817e-05
13210.0 1.9972e-05
13230.0 1.9193e-05
13250.0 1.8514e-05
13270.0 1.7967e-05
13290.0 1.7528e-05
13310.0 1.7206e-05
13330.0 1.7029e-05
13350.0 1.6988e-05
13370.0 1.7087e-05
13390.0 1.7338e-05
13410.0 1.7701e-05
13430.0 1.8192e-05
13450.0 1.8813e-05
13470.0 1.9513e-05
13490.0 2.0264e-05
13510.0 2.1122e-05
13530.0 2.2001e-05
13550.0 2.2849e-05
13570.0 2.3693e-05
13590.0 2.4522e-05
13610.0 2.5267e-05
13630.0 2.5923e-05
13650.0 2.6528e-05
13670.0 2.7036e-05
13690.0 2.7435e-05
13710.0 2.7749e-05
13730.0 2.7982e-05
13750.0 2.8107e-05
13770.0 2.815e-05
13790.0 2.8115e-05
13810.0 2.8003e-05
13830.0 2.7827e-05
13850.0 2.7583e-05
13870.0 2.7271e-05
13890.0 2.6911e-05
13910.0 2.6504e-05
13930.0 2.6032e-05
13950.0 2.5517e-05
13970.0 2.4989e-05
13990.0 2.4415e-05
14010.0 2.3806e-05
14030.0 2.3198e-05
14050.0 2.2586e-05
14070.0 2.1941e-05
14090.0 2.1323e-05
14110.0 2.0742e-05
14130.0 2.0179e-05
14150.0 1.9648e-05
14170.0 1.9193e-05
14190.0 1.8798e-05
14210.0 1.8461e-05
14230.0 1.8208e-05
14250.0 1.804e-05
14270.0 1.7953e-05
14290.0 1.7958e-05
14310.0 1.8047e-05
14330.0 1.8217e-05
14350.0 1.8474e-05
14370.0 1.8797e-05
14390.0 1.9169e-05
14410.0 1.9609e-05
14430.0 2.0097e-05
14450.0 2.06e-05
14470.0 2.1124e-05
14490.0 2.1686e-05
14510.0 2.2227e-05
14530.0 2.2744e-05
14550.0 2.3264e-05
14570.0 2.3767e-05
14590.0 2.4226e-05
14610.0 2.4673e-05
14630.0 2.5115e-05
14650.0 2.5528e-05
14670.0 2.5926e-05
14690.0 2.634e-05
14710.0 2.6774e-05
14730.0 2.7207e-05
14750.0 2.7686e-05
14770.0 2.8227e-05
14790.0 2.8813e-05
14810.0 2.9449e-05
14830.0 3.0202e-05
14850.0 3.1021e-05
14870.0 3.1878e-05
14890.0 3.2803e-05
14910.0 3.3788e-05
14930.0 3.4738e-05
14950.0 3.5629e-05
14970.0 3.6475e-05
14990.0 3.719e-05
15010.0 3.7742e-05
15030.0 3.8158e-05
15050.0 3.8442e-05
15070.0 3.8593e-05
15090.0 3.8662e-05
15110.0 3.8674e-05
15130.0 3.8649e-05
15150.0 3.8608e-05
15170.0 3.8555e-05
15190.0 3.8496e-05
15210.0 3.8438e-05
15230.0 3.8381e-05
15250.0 3.8321e-05
15270.0 3.8262e-05
15290.0 3.8208e-05
15310.0 3.8152e-05
15330.0 3.8095e-05
15350.0 3.8041e-05
15370.0 3.7988e-05
15390.0 3.7931e-05
15410.0 3.7877e-05
15430.0 3.7826e-05
15450.0 3.7773e-05
15470.0 3.7718e-05
15490.0 3.7668e-05
15510.0 3.7618e-05
15530.0 3.7565e-05
15550.0 3.7514e-05
15570.0 3.7465e-05
15590.0 3.7414e-05
15610.0 3.7361e-05
15630.0 3.7313e-05
15650.0 3.7264e-05
15670.0 3.7213e-05
15690.0 3.7163e-05
15710.0 3.7117e-05
15730.0 3.7067e-05
15750.0 3.7016e-05
15770.0 3.6969e-05
15790.0 3.6921e-05
15810.0 3.6869e-05
15830.0 3.6821e-05
15850.0 3.6774e-05
15870.0 3.6725e-05
15890.0 3.6675e-05
15910.0 3.6629e-05
15930.0 3.658e-05
15950.0 3.6529e-05
15970.0 3.6481e-05
15990.0 3.6433e-05
16010.0 3.6383e-05
16030.0 3.6331e-05
16050.0 3.6284e-05
16070.0 3.6235e-05
16090.0 3.6184e-05
16110.0 3.6135e-05
16130.0 3.6087e-05
16150.0 3.6034e-05
16170.0 3.5982e-05
16190.0 3.5933e-05
16210.0 3.5882e-05
16230.0 3.5828e-05
16250.0 3.5777e-05
16270.0 3.5727e-05
16290.0 3.5673e-05
16310.0 3.562e-05
16330.0 3.5569e-05
16350.0 3.5515e-05
16370.0 3.5457e-05
16390.0 3.5405e-05
16410.0 3.5352e-05
16430.0 3.5295e-05
16450.0 3.5239e-05
16470.0 3.5186e-05
16490.0 3.5129e-05
16510.0 3.507e-05
16530.0 3.5014e-05
16550.0 3.4957e-05
16570.0 3.4897e-05
16590.0 3.4837e-05
16610.0 3.478e-05
16630.0 3.472e-05
16650.0 3.4658e-05
16670.0 3.4599e-05
16690.0 3.454e-05
16710.0 3.4475e-05
16730.0 3.4412e-05
16750.0 3.4351e-05
16770.0 3.4287e-05
16790.0 3.422e-05
16810.0 3.4158e-05
16830.0 3.4094e-05
16850.0 3.4027e-05
16870.0 3.396e-05
16890.0 3.3896e-05
16910.0 3.3827e-05
16930.0 3.3756e-05
16950.0 3.369e-05
16970.0 3.3621e-05
16990.0 3.3549e-05
17010.0 3.3479e-05
17030.0 3.3411e-05
17050.0 3.3338e-05
17070.0 3.3265e-05
17090.0 3.3193e-05
17110.0 3.3121e-05
17130.0 3.3043e-05
17150.0 3.2969e-05
17170.0 3.2896e-05
17190.0 3.282e-05
17210.0 3.2742e-05
17230.0 3.2668e-05
17250.0 3.259e-05
17270.0 3.2509e-05
17290.0 3.2431e-05
17310.0 3.2354e-05
17330.0 3.2272e-05
17350.0 3.2189e-05
17370.0 3.2111e-05
17390.0 3.203e-05
17410.0 3.1946e-05
17430.0 3.1864e-05
17450.0 3.1783e-05
17470.0 3.1696e-05
17490.0 3.161e-05
17510.0 3.1527e-05
17530.0 3.1442e-05
17550.0 3.1353e-05
17570.0 3.1268e-05
17590.0 3.1183e-05
17610.0 3.1093e-05
17630.0 3.1004e-05
17650.0 3.0918e-05
17670.0 3.0828e-05
17690.0 3.0734e-05
17710.0 3.0646e-05
17730.0 3.0556e-05
17750.0 3.0463e-05
17770.0 3.0371e-05
17790.0 3.0282e-05
17810.0 3.0188e-05
17830.0 3.0093e-05
17850.0 3e-05
17870.0 2.9907e-05
17890.0 2.981e-05
17910.0 2.9714e-05
17930.0 2.9621e-05
17950.0 2.9525e-05
17970.0 2.9427e-05
17990.0 2.9332e-05
18010.0 2.9237e-05
18030.0 2.9136e-05
18050.0 2.9038e-05
18070.0 2.8941e-05
18090.0 2.8842e-05
18110.0 2.8741e-05
18130.0 2.8644e-05
18150.0 2.8545e-05
18170.0 2.8443e-05
18190.0 2.8343e-05
18210.0 2.8244e-05
18230.0 2.8141e-05
18250.0 2.8037e-05
18270.0 2.7938e-05
18290.0 2.7837e-05
18310.0 2.7733e-05
18330.0 2.7631e-05
18350.0 2.7531e-05
18370.0 2.7426e-05
18390.0 2.7321e-05
18410.0 2.7219e-05
18430.0 2.7116e-05
18450.0 2.7009e-05
18470.0 2.6905e-05
18490.0 2.6803e-05
18510.0 2.6697e-05
18530.0 2.6591e-05
18550.0 2.6489e-05
18570.0 2.6384e-05
18590.0 2.6275e-05
18610.0 2.6171e-05
18630.0 2.6067e-05
18650.0 2.5959e-05
18670.0 2.5851e-05
18690.0 2.5748e-05
18710.0 2.5642e-05
18730.0 2.5534e-05
18750.0 2.5428e-05
18770.0 2.5324e-05
18790.0 2.5214e-05
18810.0 2.5106e-05
18830.0 2.5001e-05
18850.0 2.4894e-05
18870.0 2.4785e-05
18890.0 2.4679e-05
18910.0 2.4574e-05
18930.0 2.4465e-05
18950.0 2.4357e-05
18970.0 2.4252e-05
18990.0 2.4144e-05
19010.0 2.4032e-05
19030.0 2.3927e-05
19050.0 2.3821e-05
19070.0 2.3712e-05
19090.0 2.3604e-05
19110.0 2.35e-05
19130.0 2.3391e-05
19150.0 2.3281e-05
19170.0 2.3175e-05
19190.0 2.3069e-05
19210.0 2.2959e-05
19230.0 2.2851e-05
19250.0 2.2746e-05
19270.0 2.2638e-05
19290.0 2.253e-05
19310.0 2.2424e-05
19330.0 2.2319e-05
19350.0 2.2208e-05
19370.0 2.2101e-05
19390.0 2.1996e-05
19410.0 2.1888e-05
19430.0 2.1779e-05
19450.0 2.1675e-05
19470.0 2.1569e-05
19490.0 2.1461e-05
19510.0 2.1355e-05
19530.0 2.125e-05
19550.0 2.1142e-05
19570.0 2.1034e-05
19590.0 2.093e-05
19610.0 2.0824e-05
19630.0 2.0717e-05
19650.0 2.0612e-05
19670.0 2.0509e-05
19690.0 2.0401e-05
19710.0 2.0295e-05
19730.0 2.0191e-05
19750.0 2.0087e-05
19770.0 1.9978e-05
19790.0 1.9874e-05
19810.0 1.9772e-05
19830.0 1.9666e-05
19850.0 1.9559e-05
19870.0 1.9455e-05
19890.0 1.9343e-05
19910.0 1.9223e-05
19930.0 1.9095e-05
19950.0 1.8951e-05
19970.0 1.8778e-05
19990.0 1.8572e-05
20010.0 1.6718e-05
20030.0 1.6465e-05
20050.0 1.6172e-05
20070.0 1.5856e-05
20090.0 1.5518e-05
20110.0 1.5137e-05
20130.0 1.4754e-05
20150.0 1.4374e-05
20170.0 1.3982e-05
20190.0 1.3586e-05
20210.0 1.3212e-05
20230.0 1.2848e-05
20250.0 1.2483e-05
20270.0 1.2145e-05
20290.0 1.1835e-05
20310.0 1.1541e-05
20330.0 1.1266e-05
20350.0 1.1037e-05
20370.0 1.0832e-05
20390.0 1.0651e-05
20410.0 1.0504e-05
20430.0 1.0388e-05
20450.0 1.0295e-05
20470.0 1.023e-05
20490.0 1.0192e-05
20510.0 1.0176e-05
20530.0 1.0181e-05
20550.0 1.0206e-05
20570.0 1.0246e-05
20590.0 1.0303e-05
20610.0 1.0374e-05
20630.0 1.0453e-05
20650.0 1.0543e-05
20670.0 1.0646e-05
20690.0 1.0752e-05
20710.0 1.0863e-05
20730.0 1.0982e-05
20750.0 1.1107e-05
20770.0 1.1229e-05
20790.0 1.1357e-05
20810.0 1.1493e-05
20830.0 1.1627e-05
20850.0 1.1762e-05
20870.0 1.1905e-05
20890.0 1.2051e-05
20910.0 1.219e-05
20930.0 1.2335e-05
20950.0 1.2484e-05
20970.0 1.2629e-05
20990.0 1.2772e-05
21010.0 1.2921e-05
21030.0 1.3067e-05
21050.0 1.3206e-05
21070.0 1.3344e-05
21090.0 1.3482e-05
21110.0 1.3608e-05
21130.0 1.3726e-05
21150.0 1.384e-05
21170.0 1.3943e-05
21190.0 1.4031e-05
21210.0 1.411e-05
21230.0 1.4175e-05
21250.0 1.4221e-05
21270.0 1.4249e-05
21290.0 1.4258e-05
21310.0 1.4245e-05
21330.0 1.4209e-05
21350.0 1.4149e-05
21370.0 1.4063e-05
21390.0 1.3953e-05
21410.0 1.3818e-05
21430.0 1.3649e-05
21450.0 1.3459e-05
21470.0 1.3251e-05
21490.0 1.3017e-05
21510.0 1.2761e-05
21530.0 1.25e-05
21550.0 1.2226e-05
21570.0 1.1935e-05
21590.0 1.1648e-05
21610.0 1.137e-05
21630.0 1.1092e-05
21650.0 1.0821e-05
21670.0 1.0584e-05
21690.0 1.0366e-05
21710.0 1.0169e-05
21730.0 1.0007e-05
21750.0 9.8806e-06
21770.0 9.783e-06
21790.0 9.7246e-06
21810.0 9.7046e-06
21830.0 9.7201e-06
21850.0 9.7738e-06
21870.0 9.8605e-06
21890.0 9.9741e-06
21910.0 1.0121e-05
21930.0 1.0295e-05
21950.0 1.0484e-05
21970.0 1.0694e-05
21990.0 1.093e-05
22010.0 1.1166e-05
22030.0 1.1407e-05
22050.0 1.166e-05
22070.0 1.1915e-05
22090.0 1.2156e-05
22110.0 1.24e-05
22130.0 1.2644e-05
22150.0 1.2871e-05
22170.0 1.3086e-05
22190.0 1.33e-05
22210.0 1.3498e-05
22230.0 1.3673e-05
22250.0 1.3837e-05
22270.0 1.3988e-05
22290.0 1.4118e-05
22310.0 1.4228e-05
22330.0 1.4325e-05
22350.0 1.44e-05
22370.0 1.4452e-05
22390.0 1.4484e-05
22410.0 1.4493e-05
22430.0 1.4477e-05
22450.0 1.4438e-05
22470.0 1.4373e-05
22490.0 1.4282e-05
22510.0 1.4168e-05
22530.0 1.4024e-05
22550.0 1.3849e-05
22570.0 1.3655e-05
22590.0 1.3436e-05
22610.0 1.3186e-05
22630.0 1.2914e-05
