#lamb flux
1010.0 5.3592e-05
1030.0 5.9114e-05
1050.0 6.449e-05
1070.0 7.0549e-05
1090.0 7.7721e-05
1110.0 8.5034e-05
1130.0 9.2373e-05
1150.0 0.00010006
1170.0 0.00010804
1190.0 0.00011569
1210.0 0.00012357
1230.0 0.00013189
1250.0 0.0001402
1270.0 0.00014854
1290.0 0.00015761
1310.0 0.00016697
1330.0 0.00017629
1350.0 0.00018598
1370.0 0.00019618
1390.0 0.00020637
1410.0 0.00021646
1430.0 0.000227
1450.0 0.00023757
1470.0 0.00024781
1490.0 0.00025803
1510.0 0.00026859
1530.0 0.00027846
1550.0 0.00028795
1570.0 0.00029743
1590.0 0.00030657
1610.0 0.00031492
1630.0 0.00032301
1650.0 0.0003309
1670.0 0.00033803
1690.0 0.00034459
1710.0 0.00035102
1730.0 0.00035705
1750.0 0.00036215
1770.0 0.00036713
1790.0 0.00037195
1810.0 0.00037625
1830.0 0.00038023
1850.0 0.00038461
1870.0 0.00038877
1890.0 0.00039276
1910.0 0.00039708
1930.0 0.00040187
1950.0 0.00040665
1970.0 0.00041175
1990.0 0.00041759
2010.0 0.00042378
2030.0 0.00043019
2050.0 0.00043729
2070.0 0.00044501
2090.0 0.00045265
2110.0 0.00046056
2130.0 0.00046888
2150.0 0.00047715
2170.0 0.0004851
2190.0 0.00049319
2210.0 0.00050111
2230.0 0.0005084
2250.0 0.00051525
2270.0 0.00052194
2290.0 0.00052784
2310.0 0.00053282
2330.0 0.00053739
2350.0 0.00054134
2370.0 0.00054429
2390.0 0.0005466
2410.0 0.00054851
2430.0 0.00054943
2450.0 0.00054942
2470.0 0.0005488
2490.0 0.00054755
2510.0 0.0005456
2530.0 0.00054435
2550.0 0.00054583
2570.0 0.00055242
2590.0 0.00056696
2610.0 0.00059605
2630.0 0.00064183
2650.0 0.0007017
2670.0 0.00077636
2690.0 0.00086242
2710.0 0.00094566
2730.0 0.0010175
2750.0 0.0010753
2770.0 0.001107
2790.0 0.0011093
2810.0 0.0010837
2830.0 0.0010289
2850.0 0.00095352
2870.0 0.00086258
2890.0 0.00075697
2910.0 0.00064308
2930.0 0.00052808
2950.0 0.00040608
2970.0 0.00027904
2990.0 0.00015332
3010.0 6.5977e-05
3030.0 6.5977e-05
3050.0 6.5977e-05
3070.0 6.5977e-05
3090.0 6.5977e-05
3110.0 6.5977e-05
3130.0 6.5977e-05
3150.0 6.5977e-05
3170.0 6.5977e-05
3190.0 6.5977e-05
3210.0 0.0011372
3230.0 0.0048067
3250.0 0.0070519
3270.0 0.0062268
3290.0 0.004852
3310.0 0.0037202
3330.0 0.0034833
3350.0 0.0037311
3370.0 0.0041353
3390.0 0.0045617
3410.0 0.0050154
3430.0 0.0056134
3450.0 0.0061751
3470.0 0.0067525
3490.0 0.0068256
3510.0 0.0057424
3530.0 0.0051846
3550.0 0.0064659
3570.0 0.0079948
3590.0 0.0088884
3610.0 0.0091092
3630.0 0.010096
3650.0 0.010309
3670.0 0.010691
3690.0 0.012032
3710.0 0.013228
3730.0 0.014146
3750.0 0.014553
3770.0 0.014718
3790.0 0.014292
3810.0 0.013318
3830.0 0.01195
3850.0 0.0085259
3870.0 0.0078988
3890.0 0.0089648
3910.0 0.012083
3930.0 0.015475
3950.0 0.016815
3970.0 0.017577
3990.0 0.01966
4010.0 0.019803
4030.0 0.017799
4050.0 0.012972
4070.0 0.011017
4090.0 0.013388
4110.0 0.014648
4130.0 0.015835
4150.0 0.015689
4170.0 0.014921
4190.0 0.013912
4210.0 0.015758
4230.0 0.016984
4250.0 0.018234
4270.0 0.017991
4290.0 0.017315
4310.0 0.017649
4330.0 0.020015
4350.0 0.022108
4370.0 0.022496
4390.0 0.02096
4410.0 0.018835
4430.0 0.014923
4450.0 0.012034
4470.0 0.012178
4490.0 0.013763
4510.0 0.014734
4530.0 0.014957
4550.0 0.015361
4570.0 0.020843
4590.0 0.030199
4610.0 0.035855
4630.0 0.037459
4650.0 0.041263
4670.0 0.047595
4690.0 0.049898
4710.0 0.04276
4730.0 0.032998
4750.0 0.02559
4770.0 0.021459
4790.0 0.019289
4810.0 0.018389
4830.0 0.020228
4850.0 0.024324
4870.0 0.02717
4890.0 0.027965
4910.0 0.027525
4930.0 0.030432
4950.0 0.035969
4970.0 0.040073
4990.0 0.040493
5010.0 0.03676
5030.0 0.030339
5050.0 0.024045
5070.0 0.019971
5090.0 0.018464
5110.0 0.018426
5130.0 0.018712
5150.0 0.018466
5170.0 0.017294
5190.0 0.016463
5210.0 0.016787
5230.0 0.019139
5250.0 0.023237
5270.0 0.027642
5290.0 0.030693
5310.0 0.033033
5330.0 0.036698
5350.0 0.040156
5370.0 0.040353
5390.0 0.036805
5410.0 0.033348
5430.0 0.033456
5450.0 0.038711
5470.0 0.046276
5490.0 0.052234
5510.0 0.054629
5530.0 0.053932
5550.0 0.051812
5570.0 0.049745
5590.0 0.047694
5610.0 0.046466
5630.0 0.046374
5650.0 0.046401
5670.0 0.044415
5690.0 0.039754
5710.0 0.034485
5730.0 0.031316
5750.0 0.030387
5770.0 0.031249
5790.0 0.032205
5810.0 0.032863
5830.0 0.033032
5850.0 0.031881
5870.0 0.030526
5890.0 0.030267
5910.0 0.031233
5930.0 0.031713
5950.0 0.029768
5970.0 0.026073
5990.0 0.021417
6010.0 0.017698
6030.0 0.016721
6050.0 0.018144
6070.0 0.019112
6090.0 0.01794
6110.0 0.01613
6130.0 0.016644
6150.0 0.019039
6170.0 0.021303
6190.0 0.02277
6210.0 0.023215
6230.0 0.022891
6250.0 0.020818
6270.0 0.017371
6290.0 0.014439
6310.0 0.0131
6330.0 0.013052
6350.0 0.013347
6370.0 0.013894
6390.0 0.015987
6410.0 0.019686
6430.0 0.023251
6450.0 0.02515
6470.0 0.025827
6490.0 0.026051
6510.0 0.026367
6530.0 0.026751
6550.0 0.026926
6570.0 0.027779
6590.0 0.028539
6610.0 0.028704
6630.0 0.027666
6650.0 0.025573
6670.0 0.023439
6690.0 0.021865
6710.0 0.020888
6730.0 0.020178
6750.0 0.020025
6770.0 0.020575
6790.0 0.021364
6810.0 0.021804
6830.0 0.02145
6850.0 0.020333
6870.0 0.019117
6890.0 0.01866
6910.0 0.018508
6930.0 0.019074
6950.0 0.019803
6970.0 0.020268
6990.0 0.020457
7010.0 0.019791
7030.0 0.01821
7050.0 0.016224
7070.0 0.014834
7090.0 0.014395
7110.0 0.014426
7130.0 0.013738
7150.0 0.012226
7170.0 0.011797
7190.0 0.013112
7210.0 0.015241
7230.0 0.017209
7250.0 0.017934
7270.0 0.017545
7290.0 0.016348
7310.0 0.015316
7330.0 0.015006
7350.0 0.015179
7370.0 0.015432
7390.0 0.016209
7410.0 0.017954
7430.0 0.020332
7450.0 0.022416
7470.0 0.023215
7490.0 0.02226
7510.0 0.020583
7530.0 0.018889
7550.0 0.017567
7570.0 0.016119
7590.0 0.015387
7610.0 0.015561
7630.0 0.016461
7650.0 0.017932
7670.0 0.019627
7690.0 0.021024
7710.0 0.022209
7730.0 0.023296
7750.0 0.024181
7770.0 0.024212
7790.0 0.024462
7810.0 0.024627
7830.0 0.024078
7850.0 0.023255
7870.0 0.022752
7890.0 0.02302
7910.0 0.022879
7930.0 0.022422
7950.0 0.021444
7970.0 0.020708
7990.0 0.01993
8010.0 0.019548
8030.0 0.019669
8050.0 0.019721
8070.0 0.019475
8090.0 0.01932
8110.0 0.018832
8130.0 0.018848
8150.0 0.018681
8170.0 0.01828
8190.0 0.017831
8210.0 0.017538
8230.0 0.017123
8250.0 0.016937
8270.0 0.015682
8290.0 0.013156
8310.0 0.010303
8330.0 0.0083516
8350.0 0.0079365
8370.0 0.0092199
8390.0 0.010926
8410.0 0.0117
8430.0 0.012002
8450.0 0.012724
8470.0 0.013752
8490.0 0.015359
8510.0 0.017361
8530.0 0.019582
8550.0 0.021464
8570.0 0.022918
8590.0 0.024014
8610.0 0.02459
8630.0 0.024507
8650.0 0.024166
8670.0 0.024201
8690.0 0.025534
8710.0 0.027346
8730.0 0.028386
8750.0 0.028289
8770.0 0.028702
8790.0 0.028698
8810.0 0.027179
8830.0 0.025381
8850.0 0.023065
8870.0 0.021245
8890.0 0.020712
8910.0 0.020593
8930.0 0.019386
8950.0 0.01797
8970.0 0.017379
8990.0 0.017338
9010.0 0.016818
9030.0 0.016462
9050.0 0.01631
9070.0 0.016238
9090.0 0.016175
9110.0 0.016115
9130.0 0.016055
9150.0 0.015996
9170.0 0.015933
9190.0 0.015887
9210.0 0.015882
9230.0 0.015802
9250.0 0.015733
9270.0 0.015672
9290.0 0.015614
9310.0 0.015559
9330.0 0.015505
9350.0 0.015455
9370.0 0.015405
9390.0 0.015355
9410.0 0.015307
9430.0 0.015257
9450.0 0.015184
9470.0 0.01512
9490.0 0.015097
9510.0 0.015062
9530.0 0.015024
9550.0 0.014984
9570.0 0.014943
9590.0 0.014902
9610.0 0.01486
9630.0 0.014818
9650.0 0.014777
9670.0 0.014736
9690.0 0.014695
9710.0 0.014654
9730.0 0.014615
9750.0 0.014575
9770.0 0.014534
9790.0 0.014495
9810.0 0.014456
9830.0 0.014416
9850.0 0.014376
9870.0 0.014337
9890.0 0.014298
9910.0 0.014258
9930.0 0.014217
9950.0 0.014092
9970.0 0.014077
9990.0 0.014057
10010.0 0.014034
10030.0 0.014004
10050.0 0.013967
10070.0 0.01393
10090.0 0.013892
10110.0 0.013846
10130.0 0.013797
10150.0 0.013756
10170.0 0.013713
10190.0 0.013665
10210.0 0.013621
10230.0 0.013577
10250.0 0.013527
10270.0 0.013478
10290.0 0.013431
10310.0 0.01338
10330.0 0.013323
10350.0 0.013272
10370.0 0.013219
10390.0 0.013162
10410.0 0.013104
10430.0 0.01305
10450.0 0.01299
10470.0 0.012927
10490.0 0.012867
10510.0 0.012806
10530.0 0.012736
10550.0 0.012668
10570.0 0.012604
10590.0 0.012534
10610.0 0.01246
10630.0 0.01239
10650.0 0.012318
10670.0 0.012238
10690.0 0.01216
10710.0 0.012084
10730.0 0.012001
10750.0 0.011913
10770.0 0.011832
10790.0 0.011747
10810.0 0.011656
10830.0 0.011566
10850.0 0.011478
10870.0 0.01138
10890.0 0.011281
10910.0 0.011184
10930.0 0.011083
10950.0 0.010975
10970.0 0.010866
10990.0 0.01076
11010.0 0.011638
11030.0 0.011515
11050.0 0.011396
11070.0 0.011274
11090.0 0.011143
11110.0 0.011022
11130.0 0.010903
11150.0 0.01078
11170.0 0.010658
11190.0 0.010543
11210.0 0.010425
11230.0 0.010304
11250.0 0.010189
11270.0 0.010077
11290.0 0.0099595
11310.0 0.0098432
11330.0 0.0097351
11350.0 0.009624
11370.0 0.0095099
11390.0 0.0093987
11410.0 0.0092873
11430.0 0.0091658
11450.0 0.0090421
11470.0 0.0089171
11490.0 0.008783
11510.0 0.0086373
11530.0 0.0084907
11550.0 0.0083384
11570.0 0.0081731
11590.0 0.0080034
11610.0 0.0078343
11630.0 0.0076553
11650.0 0.0074693
11670.0 0.0072905
11690.0 0.007112
11710.0 0.0069291
11730.0 0.0067508
11750.0 0.0065824
11770.0 0.0064115
11790.0 0.006243
11810.0 0.0060841
11830.0 0.0059297
11850.0 0.0057724
11870.0 0.0056239
11890.0 0.005484
11910.0 0.0053441
11930.0 0.0052071
11950.0 0.0050789
11970.0 0.0049539
11990.0 0.0048289
12010.0 0.0047118
12030.0 0.0046018
12050.0 0.0044945
12070.0 0.0043916
12090.0 0.0043004
12110.0 0.0042148
12130.0 0.004135
12150.0 0.0040647
12170.0 0.004004
12190.0 0.0039499
12210.0 0.0039059
12230.0 0.0038723
12250.0 0.0038477
12270.0 0.0038329
12290.0 0.0038273
12310.0 0.0038297
12330.0 0.0038413
12350.0 0.0038608
12370.0 0.0038855
12390.0 0.0039166
12410.0 0.0039559
12430.0 0.0039962
12450.0 0.0040388
12470.0 0.0040857
12490.0 0.0041338
12510.0 0.0041788
12530.0 0.0042249
12550.0 0.0042707
12570.0 0.004311
12590.0 0.0043464
12610.0 0.0043787
12630.0 0.0044039
12650.0 0.0044191
12670.0 0.0044273
12690.0 0.0044268
12710.0 0.004416
12730.0 0.004396
12750.0 0.0043665
12770.0 0.0043274
12790.0 0.0042806
12810.0 0.0042258
12830.0 0.0041634
12850.0 0.0040974
12870.0 0.0040279
12890.0 0.003954
12910.0 0.0038792
12930.0 0.0038057
12950.0 0.0037307
12970.0 0.0036559
12990.0 0.0035855
13010.0 0.0035171
13030.0 0.0034495
13050.0 0.0033851
13070.0 0.0033245
13090.0 0.0032643
13110.0 0.0032058
13130.0 0.0031505
13150.0 0.0030966
13170.0 0.0030424
13190.0 0.0029908
13210.0 0.0029416
13230.0 0.0028927
13250.0 0.0028449
13270.0 0.0028
13290.0 0.0027564
13310.0 0.0027137
13330.0 0.0026742
13350.0 0.0026376
13370.0 0.0026029
13390.0 0.002571
13410.0 0.0025431
13430.0 0.0025177
13450.0 0.0024947
13470.0 0.0024743
13490.0 0.002456
13510.0 0.0024389
13530.0 0.0024226
13550.0 0.0024069
13570.0 0.0023909
13590.0 0.0023739
13610.0 0.002356
13630.0 0.0023371
13650.0 0.0023162
13670.0 0.0022939
13690.0 0.0022709
13710.0 0.0022467
13730.0 0.002221
13750.0 0.002196
13770.0 0.0021713
13790.0 0.0021466
13810.0 0.0021229
13830.0 0.0021011
13850.0 0.0020801
13870.0 0.0020602
13890.0 0.0020424
13910.0 0.0020259
13930.0 0.0020103
13950.0 0.0019959
13970.0 0.0019827
13990.0 0.0019698
14010.0 0.0019569
14030.0 0.0019443
14050.0 0.0019315
14070.0 0.0019177
14090.0 0.0019033
14110.0 0.0018885
14130.0 0.0018724
14150.0 0.0018551
14170.0 0.0018377
14190.0 0.0018197
14210.0 0.0018007
14230.0 0.0017819
14250.0 0.0017638
14270.0 0.0017455
14290.0 0.0017278
14310.0 0.0017121
14330.0 0.0016977
14350.0 0.0016846
14370.0 0.0016736
14390.0 0.0016648
14410.0 0.0016574
14430.0 0.0016518
14450.0 0.0016479
14470.0 0.0016455
14490.0 0.0016441
14510.0 0.0016438
14530.0 0.0016444
14550.0 0.0016457
14570.0 0.0016478
14590.0 0.0016507
14610.0 0.0016545
14630.0 0.0016597
14650.0 0.0016663
14670.0 0.0016745
14690.0 0.001685
14710.0 0.0016981
14730.0 0.0017131
14750.0 0.0017312
14770.0 0.0017528
14790.0 0.0017771
14810.0 0.0018041
14830.0 0.0018362
14850.0 0.0018717
14870.0 0.0019095
14890.0 0.0019509
14910.0 0.0019958
14930.0 0.0020405
14950.0 0.0020839
14970.0 0.0021267
14990.0 0.002165
15010.0 0.002197
15030.0 0.0022238
15050.0 0.0022455
15070.0 0.0022613
15090.0 0.0022736
15110.0 0.0022836
15130.0 0.002292
15150.0 0.0022997
15170.0 0.0023071
15190.0 0.0023144
15210.0 0.0023217
15230.0 0.0023292
15250.0 0.0023368
15270.0 0.0023445
15290.0 0.0023524
15310.0 0.0023604
15330.0 0.0023686
15350.0 0.0023769
15370.0 0.0023854
15390.0 0.002394
15410.0 0.0024027
15430.0 0.0024116
15450.0 0.0024205
15470.0 0.0024296
15490.0 0.0024389
15510.0 0.0024482
15530.0 0.0024577
15550.0 0.0024672
15570.0 0.002477
15590.0 0.0024867
15610.0 0.0024966
15630.0 0.0025066
15650.0 0.0025168
15670.0 0.0025269
15690.0 0.0025372
15710.0 0.0025476
15730.0 0.0025581
15750.0 0.0025687
15770.0 0.0025793
15790.0 0.00259
15810.0 0.0026008
15830.0 0.0026117
15850.0 0.0026226
15870.0 0.0026336
15890.0 0.0026446
15910.0 0.0026558
15930.0 0.0026669
15950.0 0.0026781
15970.0 0.0026894
15990.0 0.0027007
16010.0 0.002712
16030.0 0.0027234
16050.0 0.0027348
16070.0 0.0027462
16090.0 0.0027577
16110.0 0.0027691
16130.0 0.0027806
16150.0 0.0027921
16170.0 0.0028036
16190.0 0.0028151
16210.0 0.0028266
16230.0 0.0028381
16250.0 0.0028495
16270.0 0.002861
16290.0 0.0028724
16310.0 0.0028838
16330.0 0.0028952
16350.0 0.0029066
16370.0 0.0029178
16390.0 0.0029291
16410.0 0.0029403
16430.0 0.0029515
16450.0 0.0029626
16470.0 0.0029736
16490.0 0.0029846
16510.0 0.0029955
16530.0 0.0030063
16550.0 0.003017
16570.0 0.0030277
16590.0 0.0030382
16610.0 0.0030487
16630.0 0.0030591
16650.0 0.0030693
16670.0 0.0030795
16690.0 0.0030895
16710.0 0.0030994
16730.0 0.0031092
16750.0 0.0031189
16770.0 0.0031284
16790.0 0.0031378
16810.0 0.0031471
16830.0 0.0031562
16850.0 0.0031652
16870.0 0.003174
16890.0 0.0031826
16910.0 0.0031911
16930.0 0.0031994
16950.0 0.0032076
16970.0 0.0032155
16990.0 0.0032233
17010.0 0.0032309
17030.0 0.0032384
17050.0 0.0032456
17070.0 0.0032526
17090.0 0.0032595
17110.0 0.0032661
17130.0 0.0032725
17150.0 0.0032787
17170.0 0.0032847
17190.0 0.0032905
17210.0 0.0032961
17230.0 0.0033014
17250.0 0.0033066
17270.0 0.0033114
17290.0 0.0033161
17310.0 0.0033205
17330.0 0.0033247
17350.0 0.0033287
17370.0 0.0033324
17390.0 0.0033359
17410.0 0.0033391
17430.0 0.0033421
17450.0 0.0033448
17470.0 0.0033473
17490.0 0.0033495
17510.0 0.0033515
17530.0 0.0033532
17550.0 0.0033547
17570.0 0.0033559
17590.0 0.0033568
17610.0 0.0033575
17630.0 0.0033579
17650.0 0.0033581
17670.0 0.003358
17690.0 0.0033576
17710.0 0.003357
17730.0 0.0033561
17750.0 0.003355
17770.0 0.0033536
17790.0 0.0033519
17810.0 0.00335
17830.0 0.0033478
17850.0 0.0033453
17870.0 0.0033426
17890.0 0.0033396
17910.0 0.0033363
17930.0 0.0033329
17950.0 0.0033291
17970.0 0.0033251
17990.0 0.0033208
18010.0 0.0033163
18030.0 0.0033115
18050.0 0.0033065
18070.0 0.0033013
18090.0 0.0032958
18110.0 0.00329
18130.0 0.003284
18150.0 0.0032778
18170.0 0.0032713
18190.0 0.0032646
18210.0 0.0032577
18230.0 0.0032505
18250.0 0.0032431
18270.0 0.0032355
18290.0 0.0032277
18310.0 0.0032196
18330.0 0.0032113
18350.0 0.0032029
18370.0 0.0031942
18390.0 0.0031853
18410.0 0.0031762
18430.0 0.0031669
18450.0 0.0031573
18470.0 0.0031477
18490.0 0.0031378
18510.0 0.0031277
18530.0 0.0031175
18550.0 0.0031071
18570.0 0.0030965
18590.0 0.0030857
18610.0 0.0030748
18630.0 0.0030637
18650.0 0.0030524
18670.0 0.003041
18690.0 0.0030294
18710.0 0.0030177
18730.0 0.0030059
18750.0 0.0029939
18770.0 0.0029818
18790.0 0.0029695
18810.0 0.0029571
18830.0 0.0029446
18850.0 0.0029319
18870.0 0.0029192
18890.0 0.0029063
18910.0 0.0028934
18930.0 0.0028803
18950.0 0.0028671
18970.0 0.0028539
18990.0 0.0028405
19010.0 0.002827
19030.0 0.0028135
19050.0 0.0027999
19070.0 0.0027862
19090.0 0.0027724
19110.0 0.0027586
19130.0 0.0027447
19150.0 0.0027308
19170.0 0.0027168
19190.0 0.0027027
19210.0 0.0026886
19230.0 0.0026744
19250.0 0.0026602
19270.0 0.002646
19290.0 0.0026317
19310.0 0.0026174
19330.0 0.0026031
19350.0 0.0025887
19370.0 0.0025743
19390.0 0.0025599
19410.0 0.0025455
19430.0 0.002531
19450.0 0.0025166
19470.0 0.0025022
19490.0 0.0024877
19510.0 0.0024733
19530.0 0.0024588
19550.0 0.0024444
19570.0 0.00243
19590.0 0.0024156
19610.0 0.0024012
19630.0 0.0023868
19650.0 0.0023724
19670.0 0.0023581
19690.0 0.0023438
19710.0 0.0023295
19730.0 0.0023152
19750.0 0.002301
19770.0 0.0022868
19790.0 0.0022727
19810.0 0.0022585
19830.0 0.0022444
19850.0 0.0022302
19870.0 0.0022159
19890.0 0.0022011
19910.0 0.0021855
19930.0 0.0021687
19950.0 0.0021501
19970.0 0.0021284
19990.0 0.0021033
20010.0 0.0020751
20030.0 0.0020426
20050.0 0.0020061
20070.0 0.0019675
20090.0 0.0019271
20110.0 0.0018837
20130.0 0.0018407
20150.0 0.001799
20170.0 0.0017571
20190.0 0.0017156
20210.0 0.0016766
20230.0 0.0016389
20250.0 0.0016016
20270.0 0.0015664
20290.0 0.0015336
20310.0 0.0015017
20330.0 0.0014709
20350.0 0.0014432
20370.0 0.0014168
20390.0 0.0013916
20410.0 0.0013684
20430.0 0.0013471
20450.0 0.0013266
20470.0 0.0013076
20490.0 0.0012904
20510.0 0.0012743
20530.0 0.0012593
20550.0 0.0012456
20570.0 0.0012331
20590.0 0.0012213
20610.0 0.0012104
20630.0 0.0012004
20650.0 0.0011911
20670.0 0.0011822
20690.0 0.0011739
20710.0 0.001166
20730.0 0.0011584
20750.0 0.001151
20770.0 0.0011437
20790.0 0.0011364
20810.0 0.0011291
20830.0 0.0011216
20850.0 0.001114
20870.0 0.0011062
20890.0 0.0010981
20910.0 0.0010897
20930.0 0.0010811
20950.0 0.0010721
20970.0 0.0010628
20990.0 0.0010533
21010.0 0.0010434
21030.0 0.0010332
21050.0 0.001023
21070.0 0.0010124
21090.0 0.0010015
21110.0 0.00099067
21130.0 0.0009798
21150.0 0.00096867
21170.0 0.00095754
21190.0 0.00094661
21210.0 0.00093549
21230.0 0.0009243
21250.0 0.00091343
21270.0 0.00090269
21290.0 0.0008919
21310.0 0.00088133
21330.0 0.0008712
21350.0 0.0008611
21370.0 0.00085118
21390.0 0.00084172
21410.0 0.00083258
21430.0 0.00082352
21450.0 0.00081498
21470.0 0.00080695
21490.0 0.00079921
21510.0 0.00079186
21530.0 0.00078505
21550.0 0.00077865
21570.0 0.00077262
21590.0 0.00076707
21610.0 0.00076197
21630.0 0.00075725
21650.0 0.00075294
21670.0 0.00074902
21690.0 0.00074543
21710.0 0.00074218
21730.0 0.00073921
21750.0 0.00073646
21770.0 0.000734
21790.0 0.00073173
21810.0 0.00072957
21830.0 0.00072754
21850.0 0.00072565
21870.0 0.00072377
21890.0 0.00072185
21910.0 0.00071999
21930.0 0.00071809
21950.0 0.00071606
21970.0 0.00071397
21990.0 0.00071183
22010.0 0.00070949
22030.0 0.00070702
22050.0 0.00070443
22070.0 0.00070169
22090.0 0.00069879
22110.0 0.00069576
22130.0 0.0006926
22150.0 0.00068931
22170.0 0.00068592
22190.0 0.0006824
22210.0 0.00067877
22230.0 0.00067507
22250.0 0.00067125
22270.0 0.00066731
22290.0 0.00066328
22310.0 0.00065915
22330.0 0.00065479
22350.0 0.00065027
22370.0 0.0006456
22390.0 0.00064065
22410.0 0.00063535
22430.0 0.00062987
22450.0 0.00062411
22470.0 0.00061787
22490.0 0.00061132
22510.0 0.00060456
22530.0 0.00059726
22550.0 0.00058949
22570.0 0.00058164
22590.0 0.00057351
22610.0 0.00056492
22630.0 0.00055622
22650.0 0.00054766
22670.0 0.00053879
22690.0 0.00052984
22710.0 0.00052118
22730.0 0.00051266
22750.0 0.00050394
22770.0 0.00049574
22790.0 0.00048799
22810.0 0.00048039
22830.0 0.00047309
22850.0 0.0004664
22870.0 0.00046003
22890.0 0.00045388
22910.0 0.00044825
22930.0 0.00044306
22950.0 0.00043811
22970.0 0.00043342
22990.0 0.00042924
23010.0 0.00042524
23030.0 0.00042139
23050.0 0.00041779
23070.0 0.00041438
23090.0 0.00041095
23110.0 0.00040762
23130.0 0.00040441
23150.0 0.00040119
23170.0 0.00039791
23190.0 0.00039469
23210.0 0.00039153
23230.0 0.00038829
23250.0 0.00038508
23270.0 0.00038198
23290.0 0.0003789
23310.0 0.00037582
23330.0 0.00037294
23350.0 0.0003702
23370.0 0.00036753
23390.0 0.000365
23410.0 0.00036268
23430.0 0.00036044
23450.0 0.0003583
23470.0 0.00035631
23490.0 0.00035442
23510.0 0.00035257
23530.0 0.00035079
23550.0 0.00034911
23570.0 0.00034746
23590.0 0.00034584
23610.0 0.0003443
23630.0 0.00034282
23650.0 0.0003414
23670.0 0.0003401
23690.0 0.00033895
23710.0 0.00033797
23730.0 0.00033721
23750.0 0.00033671
23770.0 0.0003365
23790.0 0.00033667
23810.0 0.00033723
23830.0 0.00033815
23850.0 0.00033961
23870.0 0.00034162
23890.0 0.00034399
23910.0 0.00034684
23930.0 0.00035028
23950.0 0.00035408
23970.0 0.00035805
