#lamb flux
1010.0 1.9812e-06
1030.0 2.0708e-06
1050.0 2.1743e-06
1070.0 2.291e-06
1090.0 2.4236e-06
1110.0 2.56e-06
1130.0 2.6976e-06
1150.0 2.8423e-06
1170.0 2.992e-06
1190.0 3.1346e-06
1210.0 3.2798e-06
1230.0 3.4304e-06
1250.0 3.5788e-06
1270.0 3.7237e-06
1290.0 3.8775e-06
1310.0 4.032e-06
1330.0 4.1813e-06
1350.0 4.3333e-06
1370.0 4.4909e-06
1390.0 4.6459e-06
1410.0 4.7975e-06
1430.0 4.9568e-06
1450.0 5.1172e-06
1470.0 5.2737e-06
1490.0 5.4329e-06
1510.0 5.6014e-06
1530.0 5.7627e-06
1550.0 5.923e-06
1570.0 6.0892e-06
1590.0 6.2563e-06
1610.0 6.4171e-06
1630.0 6.5829e-06
1650.0 6.753e-06
1670.0 6.9181e-06
1690.0 7.0812e-06
1710.0 7.2496e-06
1730.0 7.4185e-06
1750.0 7.5772e-06
1770.0 7.7392e-06
1790.0 7.9032e-06
1810.0 8.0607e-06
1830.0 8.214e-06
1850.0 8.3747e-06
1870.0 8.5293e-06
1890.0 8.6767e-06
1910.0 8.825e-06
1930.0 8.9748e-06
1950.0 9.1154e-06
1970.0 9.2522e-06
1990.0 9.3926e-06
2010.0 9.5288e-06
2030.0 9.6581e-06
2050.0 9.7907e-06
2070.0 9.9263e-06
2090.0 1.0053e-05
2110.0 1.0179e-05
2130.0 1.0311e-05
2150.0 1.0441e-05
2170.0 1.0566e-05
2190.0 1.07e-05
2210.0 1.0838e-05
2230.0 1.0975e-05
2250.0 1.1116e-05
2270.0 1.1269e-05
2290.0 1.1425e-05
2310.0 1.1582e-05
2330.0 1.1751e-05
2350.0 1.1932e-05
2370.0 1.2116e-05
2390.0 1.2313e-05
2410.0 1.2528e-05
2430.0 1.2751e-05
2450.0 1.2982e-05
2470.0 1.3224e-05
2490.0 1.3473e-05
2510.0 1.3718e-05
2530.0 1.3979e-05
2550.0 1.4289e-05
2570.0 1.4701e-05
2590.0 1.5289e-05
2610.0 1.6217e-05
2630.0 1.7587e-05
2650.0 1.94e-05
2670.0 2.1728e-05
2690.0 2.4572e-05
2710.0 2.7655e-05
2730.0 3.0816e-05
2750.0 3.4113e-05
2770.0 3.7316e-05
2790.0 4.0329e-05
2810.0 4.3294e-05
2830.0 4.6338e-05
2850.0 4.9293e-05
2870.0 5.2308e-05
2890.0 5.5509e-05
2910.0 5.8832e-05
2930.0 6.2184e-05
2950.0 6.574e-05
2970.0 6.9474e-05
2990.0 7.324e-05
3010.0 0.00013617
3030.0 0.00014328
3050.0 0.00015045
3070.0 0.00015719
3090.0 0.00016349
3110.0 0.00016842
3130.0 0.00017076
3150.0 0.00016925
3170.0 0.00016143
3190.0 0.00014655
3210.0 0.00012463
3230.0 9.9209e-05
3250.0 0.00011804
3270.0 7.2795e-05
3290.0 0.00012415
3310.0 5.4943e-05
3330.0 5.88e-05
3350.0 7.204e-05
3370.0 8.6522e-05
3390.0 0.0001016
3410.0 0.0001166
3430.0 0.00013209
3450.0 0.0001475
3470.0 0.00016183
3490.0 0.00017161
3510.0 0.00019836
3530.0 0.00025134
3550.0 0.00027009
3570.0 0.00026935
3590.0 0.00035424
3610.0 0.00029356
3630.0 0.00036992
3650.0 0.00038697
3670.0 0.00045725
3690.0 0.00046889
3710.0 0.00042067
3730.0 0.00051608
3750.0 0.00053782
3770.0 0.00054662
3790.0 0.00050597
3810.0 0.00043873
3830.0 0.00047562
3850.0 0.00045272
3870.0 0.0005307
3890.0 0.0005427
3910.0 0.0005661
3930.0 0.00064399
3950.0 0.00071528
3970.0 0.00088875
3990.0 0.00083466
4010.0 0.0007037
4030.0 0.00078254
4050.0 0.00075973
4070.0 0.00079506
4090.0 0.00075405
4110.0 0.00062441
4130.0 0.00071961
4150.0 0.00067189
4170.0 0.00069848
4190.0 0.00069577
4210.0 0.0007887
4230.0 0.00065344
4250.0 0.00074304
4270.0 0.00074214
4290.0 0.00075219
4310.0 0.00084847
4330.0 0.000883
4350.0 0.00079041
4370.0 0.00074147
4390.0 0.00077633
4410.0 0.00073006
4430.0 0.00059135
4450.0 0.00057306
4470.0 0.00062004
4490.0 0.00054117
4510.0 0.00062273
4530.0 0.00068152
4550.0 0.0008611
4570.0 0.0011874
4590.0 0.0013003
4610.0 0.001165
4630.0 0.0014994
4650.0 0.001852
4670.0 0.0017886
4690.0 0.0013619
4710.0 0.0013361
4730.0 0.0014042
4750.0 0.0012104
4770.0 0.0009697
4790.0 0.00077761
4810.0 0.00096217
4830.0 0.0010849
4850.0 0.0011015
4870.0 0.00077255
4890.0 0.0011907
4910.0 0.0014196
4930.0 0.0015321
4950.0 0.0016508
4970.0 0.001433
4990.0 0.0015515
5010.0 0.0015575
5030.0 0.0014552
5050.0 0.0013037
5070.0 0.00099179
5090.0 0.00085672
5110.0 0.00082057
5130.0 0.00076945
5150.0 0.00084441
5170.0 0.00077982
5190.0 0.00088439
5210.0 0.00089448
5230.0 0.0009756
5250.0 0.0012029
5270.0 0.0011856
5290.0 0.0012418
5310.0 0.0015679
5330.0 0.0017654
5350.0 0.0016788
5370.0 0.0016031
5390.0 0.0016733
5410.0 0.0018517
5430.0 0.0019753
5450.0 0.0021871
5470.0 0.0024118
5490.0 0.0025956
5510.0 0.0029727
5530.0 0.0030909
5550.0 0.0031945
5570.0 0.0032614
5590.0 0.0032346
5610.0 0.0031697
5630.0 0.003147
5650.0 0.003206
5670.0 0.0032016
5690.0 0.0029019
5710.0 0.0027238
5730.0 0.0025964
5750.0 0.0026474
5770.0 0.002427
5790.0 0.0023708
5810.0 0.0024765
5830.0 0.0025975
5850.0 0.0024769
5870.0 0.0024357
5890.0 0.002635
5910.0 0.0025676
5930.0 0.0023439
5950.0 0.0021936
5970.0 0.0022181
5990.0 0.0020195
6010.0 0.0018342
6030.0 0.0017759
6050.0 0.0016962
6070.0 0.0014731
6090.0 0.001404
6110.0 0.0015798
6130.0 0.0016997
6150.0 0.0017981
6170.0 0.0018767
6190.0 0.0019311
6210.0 0.0019619
6230.0 0.0020885
6250.0 0.0019261
6270.0 0.0017298
6290.0 0.0015323
6310.0 0.0013946
6330.0 0.0013096
6350.0 0.00121
6370.0 0.0012374
6390.0 0.0014248
6410.0 0.0017174
6430.0 0.0020068
6450.0 0.0020905
6470.0 0.0021827
6490.0 0.0024896
6510.0 0.0026779
6530.0 0.0026028
6550.0 0.0025709
6570.0 0.0026034
6590.0 0.0025451
6610.0 0.0026576
6630.0 0.0025645
6650.0 0.0023982
6670.0 0.0022157
6690.0 0.00207
6710.0 0.0022136
6730.0 0.0020738
6750.0 0.0019478
6770.0 0.0018962
6790.0 0.00197
6810.0 0.0020673
6830.0 0.0020204
6850.0 0.0018998
6870.0 0.0018885
6890.0 0.0018203
6910.0 0.0017285
6930.0 0.0018654
6950.0 0.0018171
6970.0 0.0018117
6990.0 0.0018541
7010.0 0.0018051
7030.0 0.0016943
7050.0 0.0015628
7070.0 0.0015103
7090.0 0.0013821
7110.0 0.0012491
7130.0 0.0011091
7150.0 0.001042
7170.0 0.0012004
7190.0 0.001267
7210.0 0.0012872
7230.0 0.0013874
7250.0 0.0013984
7270.0 0.0013905
7290.0 0.0014374
7310.0 0.0014661
7330.0 0.0014038
7350.0 0.0013399
7370.0 0.0013233
7390.0 0.0013963
7410.0 0.0015818
7430.0 0.0017439
7450.0 0.0019187
7470.0 0.0019936
7490.0 0.0020438
7510.0 0.0019509
7530.0 0.0018654
7550.0 0.0017186
7570.0 0.001483
7590.0 0.0014166
7610.0 0.0013949
7630.0 0.0013941
7650.0 0.0015546
7670.0 0.001708
7690.0 0.0018536
7710.0 0.0020138
7730.0 0.0021309
7750.0 0.0022188
7770.0 0.0022245
7790.0 0.002344
7810.0 0.0024003
7830.0 0.0023106
7850.0 0.0023117
7870.0 0.0022049
7890.0 0.0022021
7910.0 0.0020732
7930.0 0.0020435
7950.0 0.0018974
7970.0 0.001922
7990.0 0.0018672
8010.0 0.0018254
8030.0 0.0018163
8050.0 0.0018751
8070.0 0.0018211
8090.0 0.0018157
8110.0 0.001749
8130.0 0.0017352
8150.0 0.0016678
8170.0 0.0016135
8190.0 0.0015853
8210.0 0.0015899
8230.0 0.0014469
8250.0 0.0013316
8270.0 0.0011579
8290.0 0.00094188
8310.0 0.00076398
8330.0 0.00059699
8350.0 0.00051169
8370.0 0.00054793
8390.0 0.00059397
8410.0 0.00064364
8430.0 0.00074635
8450.0 0.00078873
8470.0 0.00082398
8490.0 0.00092263
8510.0 0.0010101
8530.0 0.0011646
8550.0 0.0013688
8570.0 0.0015383
8590.0 0.0016672
8610.0 0.0017995
8630.0 0.0019248
8650.0 0.0019409
8670.0 0.0019441
8690.0 0.0020026
8710.0 0.0019982
8730.0 0.0020004
8750.0 0.0019218
8770.0 0.0019155
8790.0 0.0018796
8810.0 0.0017365
8830.0 0.0017061
8850.0 0.0016045
8870.0 0.0015345
8890.0 0.001431
8910.0 0.0014891
8930.0 0.0013788
8950.0 0.0013364
8970.0 0.0013213
8990.0 0.0012777
9010.0 0.0012752
9030.0 0.0012341
9050.0 0.0012271
9070.0 0.0012245
9090.0 0.0012218
9110.0 0.0012194
9130.0 0.0012164
9150.0 0.0012132
9170.0 0.0012077
9190.0 0.0011989
9210.0 0.0012082
9230.0 0.0012019
9250.0 0.0011969
9270.0 0.0011922
9290.0 0.0011877
9310.0 0.0011832
9330.0 0.0011788
9350.0 0.0011743
9370.0 0.0011698
9390.0 0.0011652
9410.0 0.0011605
9430.0 0.0011556
9450.0 0.0011506
9470.0 0.0011455
9490.0 0.0011407
9510.0 0.0011358
9530.0 0.0011307
9550.0 0.0011256
9570.0 0.0011204
9590.0 0.0011152
9610.0 0.0011099
9630.0 0.0011046
9650.0 0.0010992
9670.0 0.0010939
9690.0 0.0010885
9710.0 0.0010831
9730.0 0.0010777
9750.0 0.0010723
9770.0 0.0010669
9790.0 0.0010615
9810.0 0.0010561
9830.0 0.0010507
9850.0 0.0010453
9870.0 0.0010399
9890.0 0.0010345
9910.0 0.0010292
9930.0 0.0010238
9950.0 0.0010139
9970.0 0.00101
9990.0 0.0010058
10010.0 0.0010016
10030.0 0.00099699
10050.0 0.00099198
10070.0 0.00098642
10090.0 0.00098181
10110.0 0.0009769
10130.0 0.00097212
10150.0 0.00096735
10170.0 0.00096246
10190.0 0.0009574
10210.0 0.00095262
10230.0 0.00094796
10250.0 0.00094313
10270.0 0.00093839
10290.0 0.00093389
10310.0 0.00092925
10330.0 0.0009245
10350.0 0.00092004
10370.0 0.00091566
10390.0 0.00091112
10410.0 0.00090668
10430.0 0.00090251
10450.0 0.00089821
10470.0 0.00089385
10490.0 0.00088972
10510.0 0.00088566
10530.0 0.00088134
10550.0 0.00087722
10570.0 0.00087332
10590.0 0.00086931
10610.0 0.00086525
10630.0 0.00086145
10650.0 0.00085767
10670.0 0.00085369
10690.0 0.00084987
10710.0 0.00084622
10730.0 0.00084245
10750.0 0.00083856
10770.0 0.00083504
10790.0 0.00083149
10810.0 0.00082779
10830.0 0.00082421
10850.0 0.00082079
10870.0 0.000817
10890.0 0.00081307
10910.0 0.00080906
10930.0 0.00080451
10950.0 0.00079893
10970.0 0.00079243
10990.0 0.00078499
11010.0 0.00074357
11030.0 0.0007338
11050.0 0.00072318
11070.0 0.00071143
11090.0 0.0006981
11110.0 0.00068506
11130.0 0.00067205
11150.0 0.00065853
11170.0 0.00064508
11190.0 0.00063251
11210.0 0.00061984
11230.0 0.00060709
11250.0 0.00059516
11270.0 0.00058385
11290.0 0.00057248
11310.0 0.00056165
11330.0 0.00055209
11350.0 0.00054281
11370.0 0.00053391
11390.0 0.00052592
11410.0 0.00051858
11430.0 0.00051116
11450.0 0.00050428
11470.0 0.00049789
11490.0 0.00049141
11510.0 0.00048465
11530.0 0.00047812
11550.0 0.00047143
11570.0 0.00046405
11590.0 0.00045634
11610.0 0.00044854
11630.0 0.00043991
11650.0 0.00043054
11670.0 0.0004213
11690.0 0.00041178
11710.0 0.00040163
11730.0 0.00039151
11750.0 0.00038189
11770.0 0.00037196
11790.0 0.00036213
11810.0 0.00035303
11830.0 0.00034437
11850.0 0.00033564
11870.0 0.00032777
11890.0 0.00032074
11910.0 0.00031393
11930.0 0.00030755
11950.0 0.00030193
11970.0 0.00029665
11990.0 0.00029146
12010.0 0.00028679
12030.0 0.00028253
12050.0 0.00027834
12070.0 0.00027425
12090.0 0.00027073
12110.0 0.00026733
12130.0 0.00026401
12150.0 0.00026105
12170.0 0.0002585
12190.0 0.00025604
12210.0 0.00025404
12230.0 0.00025264
12250.0 0.00025173
12270.0 0.0002514
12290.0 0.00025183
12310.0 0.000253
12330.0 0.00025495
12350.0 0.00025774
12370.0 0.00026127
12390.0 0.00026557
12410.0 0.00027078
12430.0 0.00027642
12450.0 0.00028248
12470.0 0.00028907
12490.0 0.00029589
12510.0 0.00030257
12530.0 0.00030936
12550.0 0.00031611
12570.0 0.00032242
12590.0 0.00032832
12610.0 0.00033394
12630.0 0.00033903
12650.0 0.00034342
12670.0 0.00034734
12690.0 0.00035073
12710.0 0.0003535
12730.0 0.00035575
12750.0 0.00035746
12770.0 0.00035864
12790.0 0.00035936
12810.0 0.00035959
12830.0 0.00035931
12850.0 0.00035871
12870.0 0.00035775
12890.0 0.00035632
12910.0 0.00035459
12930.0 0.00035264
12950.0 0.00035026
12970.0 0.00034749
12990.0 0.00034463
13010.0 0.00034151
13030.0 0.00033796
13050.0 0.00033424
13070.0 0.00033049
13090.0 0.00032633
13110.0 0.00032195
13130.0 0.00031765
13150.0 0.0003133
13170.0 0.0003087
13190.0 0.00030443
13210.0 0.00030054
13230.0 0.00029682
13250.0 0.0002935
13270.0 0.00029085
13290.0 0.00028871
13310.0 0.00028711
13330.0 0.00028622
13350.0 0.00028595
13370.0 0.00028619
13390.0 0.0002869
13410.0 0.00028792
13430.0 0.0002891
13450.0 0.00029031
13470.0 0.00029134
13490.0 0.00029206
13510.0 0.00029233
13530.0 0.00029202
13550.0 0.00029113
13570.0 0.00028959
13590.0 0.00028734
13610.0 0.00028458
13630.0 0.00028142
13650.0 0.00027771
13670.0 0.00027372
13690.0 0.0002697
13710.0 0.00026555
13730.0 0.0002612
13750.0 0.00025723
13770.0 0.00025345
13790.0 0.00024975
13810.0 0.0002463
13830.0 0.00024323
13850.0 0.00024027
13870.0 0.00023747
13890.0 0.00023495
13910.0 0.00023261
13930.0 0.00023031
13950.0 0.00022816
13970.0 0.00022622
13990.0 0.00022432
14010.0 0.00022249
14030.0 0.00022081
14050.0 0.00021924
14070.0 0.00021771
14090.0 0.00021633
14110.0 0.0002151
14130.0 0.00021396
14150.0 0.00021294
14170.0 0.00021207
14190.0 0.00021133
14210.0 0.0002107
14230.0 0.0002102
14250.0 0.00020983
14270.0 0.0002096
14290.0 0.00020951
14310.0 0.00020953
14330.0 0.00020968
14350.0 0.00020995
14370.0 0.00021031
14390.0 0.00021071
14410.0 0.0002112
14430.0 0.0002117
14450.0 0.00021216
14470.0 0.00021258
14490.0 0.00021299
14510.0 0.00021326
14530.0 0.00021343
14550.0 0.00021354
14570.0 0.00021357
14590.0 0.00021353
14610.0 0.00021348
14630.0 0.00021348
14650.0 0.00021353
14670.0 0.00021368
14690.0 0.00021404
14710.0 0.00021464
14730.0 0.00021542
14750.0 0.00021651
14770.0 0.00021798
14790.0 0.00021975
14810.0 0.00022178
14830.0 0.00022436
14850.0 0.00022724
14870.0 0.00023027
14890.0 0.00023357
14910.0 0.00023709
14930.0 0.00024041
14950.0 0.00024341
14970.0 0.00024618
14990.0 0.00024832
15010.0 0.00024971
15030.0 0.00025046
15050.0 0.00025061
15070.0 0.00025015
15090.0 0.00024931
15110.0 0.00024821
15130.0 0.00024694
15150.0 0.00024559
15170.0 0.00024419
15190.0 0.00024276
15210.0 0.00024132
15230.0 0.00023989
15250.0 0.00023844
15270.0 0.00023699
15290.0 0.00023556
15310.0 0.00023411
15330.0 0.00023267
15350.0 0.00023124
15370.0 0.00022981
15390.0 0.00022836
15410.0 0.00022693
15430.0 0.0002255
15450.0 0.00022407
15470.0 0.00022264
15490.0 0.00022123
15510.0 0.00021981
15530.0 0.0002184
15550.0 0.00021699
15570.0 0.00021559
15590.0 0.00021419
15610.0 0.00021278
15630.0 0.0002114
15650.0 0.00021002
15670.0 0.00020864
15690.0 0.00020726
15710.0 0.00020591
15730.0 0.00020454
15750.0 0.00020318
15770.0 0.00020184
15790.0 0.00020051
15810.0 0.00019916
15830.0 0.00019784
15850.0 0.00019652
15870.0 0.00019521
15890.0 0.0001939
15910.0 0.00019261
15930.0 0.00019133
15950.0 0.00019004
15970.0 0.00018877
15990.0 0.00018751
16010.0 0.00018625
16030.0 0.00018499
16050.0 0.00018376
16070.0 0.00018253
16090.0 0.00018131
16110.0 0.00018009
16130.0 0.0001789
16150.0 0.00017769
16170.0 0.0001765
16190.0 0.00017533
16210.0 0.00017416
16230.0 0.00017299
16250.0 0.00017185
16270.0 0.00017071
16290.0 0.00016957
16310.0 0.00016845
16330.0 0.00016734
16350.0 0.00016623
16370.0 0.00016513
16390.0 0.00016405
16410.0 0.00016297
16430.0 0.0001619
16450.0 0.00016084
16470.0 0.0001598
16490.0 0.00015876
16510.0 0.00015773
16530.0 0.00015671
16550.0 0.0001557
16570.0 0.00015469
16590.0 0.0001537
16610.0 0.00015272
16630.0 0.00015174
16650.0 0.00015078
16670.0 0.00014983
16690.0 0.00014888
16710.0 0.00014794
16730.0 0.00014701
16750.0 0.00014609
16770.0 0.00014518
16790.0 0.00014428
16810.0 0.00014339
16830.0 0.00014251
16850.0 0.00014163
16870.0 0.00014077
16890.0 0.00013992
16910.0 0.00013907
16930.0 0.00013822
16950.0 0.0001374
16970.0 0.00013658
16990.0 0.00013576
17010.0 0.00013496
17030.0 0.00013417
17050.0 0.00013338
17070.0 0.0001326
17090.0 0.00013183
17110.0 0.00013107
17130.0 0.00013031
17150.0 0.00012957
17170.0 0.00012883
17190.0 0.0001281
17210.0 0.00012738
17230.0 0.00012667
17250.0 0.00012597
17270.0 0.00012526
17290.0 0.00012458
17310.0 0.0001239
17330.0 0.00012322
17350.0 0.00012255
17370.0 0.0001219
17390.0 0.00012124
17410.0 0.0001206
17430.0 0.00011996
17450.0 0.00011934
17470.0 0.00011871
17490.0 0.00011809
17510.0 0.00011749
17530.0 0.00011688
17550.0 0.00011628
17570.0 0.0001157
17590.0 0.00011512
17610.0 0.00011454
17630.0 0.00011398
17650.0 0.00011342
17670.0 0.00011286
17690.0 0.00011231
17710.0 0.00011177
17730.0 0.00011124
17750.0 0.00011071
17770.0 0.00011018
17790.0 0.00010967
17810.0 0.00010916
17830.0 0.00010865
17850.0 0.00010815
17870.0 0.00010766
17890.0 0.00010717
17910.0 0.00010669
17930.0 0.00010622
17950.0 0.00010575
17970.0 0.00010528
17990.0 0.00010482
18010.0 0.00010437
18030.0 0.00010392
18050.0 0.00010348
18070.0 0.00010304
18090.0 0.00010261
18110.0 0.00010218
18130.0 0.00010176
18150.0 0.00010134
18170.0 0.00010093
18190.0 0.00010052
18210.0 0.00010012
18230.0 9.9722e-05
18250.0 9.9324e-05
18270.0 9.894e-05
18290.0 9.8558e-05
18310.0 9.8175e-05
18330.0 9.7801e-05
18350.0 9.7436e-05
18370.0 9.7067e-05
18390.0 9.6703e-05
18410.0 9.6349e-05
18430.0 9.5996e-05
18450.0 9.5641e-05
18470.0 9.5298e-05
18490.0 9.4961e-05
18510.0 9.4622e-05
18530.0 9.4288e-05
18550.0 9.3964e-05
18570.0 9.3638e-05
18590.0 9.3312e-05
18610.0 9.2996e-05
18630.0 9.2685e-05
18650.0 9.2371e-05
18670.0 9.2062e-05
18690.0 9.1764e-05
18710.0 9.1464e-05
18730.0 9.1165e-05
18750.0 9.0875e-05
18770.0 9.0589e-05
18790.0 9.0297e-05
18810.0 9.0013e-05
18830.0 8.9737e-05
18850.0 8.946e-05
18870.0 8.9183e-05
18890.0 8.8916e-05
18910.0 8.8652e-05
18930.0 8.8384e-05
18950.0 8.8122e-05
18970.0 8.7868e-05
18990.0 8.7612e-05
19010.0 8.7352e-05
19030.0 8.7106e-05
19050.0 8.6861e-05
19070.0 8.6614e-05
19090.0 8.6372e-05
19110.0 8.6139e-05
19130.0 8.5899e-05
19150.0 8.5662e-05
19170.0 8.5433e-05
19190.0 8.5206e-05
19210.0 8.4975e-05
19230.0 8.4749e-05
19250.0 8.4533e-05
19270.0 8.4312e-05
19290.0 8.4092e-05
19310.0 8.3881e-05
19330.0 8.367e-05
19350.0 8.3453e-05
19370.0 8.3245e-05
19390.0 8.3042e-05
19410.0 8.2836e-05
19430.0 8.263e-05
19450.0 8.2434e-05
19470.0 8.2237e-05
19490.0 8.2038e-05
19510.0 8.1844e-05
19530.0 8.1655e-05
19550.0 8.1461e-05
19570.0 8.1268e-05
19590.0 8.1084e-05
19610.0 8.09e-05
19630.0 8.0713e-05
19650.0 8.0532e-05
19670.0 8.0356e-05
19690.0 8.0174e-05
19710.0 7.9995e-05
19730.0 7.9822e-05
19750.0 7.9648e-05
19770.0 7.947e-05
19790.0 7.93e-05
19810.0 7.9134e-05
19830.0 7.8961e-05
19850.0 7.8788e-05
19870.0 7.8616e-05
19890.0 7.8427e-05
19910.0 7.8208e-05
19930.0 7.7956e-05
19950.0 7.7645e-05
19970.0 7.7233e-05
19990.0 7.6705e-05
20010.0 7.6076e-05
20030.0 7.5292e-05
20050.0 7.4355e-05
20070.0 7.3328e-05
20090.0 7.2218e-05
20110.0 7.096e-05
20130.0 6.9688e-05
20150.0 6.8431e-05
20170.0 6.7128e-05
20190.0 6.5808e-05
20210.0 6.4561e-05
20230.0 6.3342e-05
20250.0 6.2115e-05
20270.0 6.097e-05
20290.0 5.9918e-05
20310.0 5.891e-05
20330.0 5.7958e-05
20350.0 5.7162e-05
20370.0 5.6451e-05
20390.0 5.5822e-05
20410.0 5.5315e-05
20430.0 5.4927e-05
20450.0 5.4627e-05
20470.0 5.444e-05
20490.0 5.4363e-05
20510.0 5.4381e-05
20530.0 5.4496e-05
20550.0 5.4695e-05
20570.0 5.4959e-05
20590.0 5.5298e-05
20610.0 5.5694e-05
20630.0 5.6118e-05
20650.0 5.6577e-05
20670.0 5.708e-05
20690.0 5.7569e-05
20710.0 5.8046e-05
20730.0 5.8522e-05
20750.0 5.8974e-05
20770.0 5.9372e-05
20790.0 5.9736e-05
20810.0 6.0059e-05
20830.0 6.0316e-05
20850.0 6.0513e-05
20870.0 6.0655e-05
20890.0 6.0728e-05
20910.0 6.0737e-05
20930.0 6.0686e-05
20950.0 6.0572e-05
20970.0 6.0407e-05
20990.0 6.0196e-05
21010.0 5.9926e-05
21030.0 5.9616e-05
21050.0 5.9282e-05
21070.0 5.8913e-05
21090.0 5.8505e-05
21110.0 5.81e-05
21130.0 5.769e-05
21150.0 5.7259e-05
21170.0 5.6835e-05
21190.0 5.6436e-05
21210.0 5.6034e-05
21230.0 5.5645e-05
21250.0 5.53e-05
21270.0 5.4986e-05
21290.0 5.4698e-05
21310.0 5.4455e-05
21330.0 5.4265e-05
21350.0 5.4114e-05
21370.0 5.4011e-05
21390.0 5.3962e-05
21410.0 5.3961e-05
21430.0 5.4012e-05
21450.0 5.4114e-05
21470.0 5.4258e-05
21490.0 5.445e-05
21510.0 5.4687e-05
21530.0 5.4952e-05
21550.0 5.5253e-05
21570.0 5.5596e-05
21590.0 5.5961e-05
21610.0 5.634e-05
21630.0 5.6751e-05
21650.0 5.7194e-05
21670.0 5.7623e-05
21690.0 5.8071e-05
21710.0 5.8543e-05
21730.0 5.9015e-05
21750.0 5.948e-05
21770.0 5.9977e-05
21790.0 6.0476e-05
21810.0 6.0962e-05
21830.0 6.1455e-05
21850.0 6.1966e-05
21870.0 6.2462e-05
21890.0 6.2942e-05
21910.0 6.3438e-05
21930.0 6.3926e-05
21950.0 6.439e-05
21970.0 6.4849e-05
21990.0 6.5312e-05
22010.0 6.5734e-05
22030.0 6.6128e-05
22050.0 6.6506e-05
22070.0 6.685e-05
22090.0 6.7143e-05
22110.0 6.74e-05
22130.0 6.7615e-05
22150.0 6.777e-05
22170.0 6.787e-05
22190.0 6.791e-05
22210.0 6.7882e-05
22230.0 6.7792e-05
22250.0 6.7633e-05
22270.0 6.7398e-05
22290.0 6.7102e-05
22310.0 6.6746e-05
22330.0 6.6301e-05
22350.0 6.5797e-05
22370.0 6.5249e-05
22390.0 6.4633e-05
22410.0 6.394e-05
22430.0 6.3235e-05
22450.0 6.2496e-05
22470.0 6.1693e-05
22490.0 6.0872e-05
22510.0 6.0059e-05
22530.0 5.9198e-05
22550.0 5.8312e-05
22570.0 5.7466e-05
22590.0 5.6625e-05
22610.0 5.5767e-05
22630.0 5.4939e-05
22650.0 5.4167e-05
22670.0 5.3392e-05
22690.0 5.264e-05
22710.0 5.1947e-05
22730.0 5.1289e-05
22750.0 5.063e-05
22770.0 5.0034e-05
22790.0 4.9491e-05
22810.0 4.8966e-05
22830.0 4.8471e-05
22850.0 4.8029e-05
22870.0 4.7612e-05
22890.0 4.7209e-05
