#lamb flux
1010.0 1.7808e-09
1030.0 1.9696e-09
1050.0 2.1868e-09
1070.0 2.4312e-09
1090.0 2.7088e-09
1110.0 2.9936e-09
1130.0 3.2802e-09
1150.0 3.5804e-09
1170.0 3.8901e-09
1190.0 4.1837e-09
1210.0 4.4814e-09
1230.0 4.7889e-09
1250.0 5.0902e-09
1270.0 5.3829e-09
1290.0 5.6921e-09
1310.0 6.001e-09
1330.0 6.2974e-09
1350.0 6.597e-09
1370.0 6.9064e-09
1390.0 7.208e-09
1410.0 7.5007e-09
1430.0 7.8067e-09
1450.0 8.1127e-09
1470.0 8.4084e-09
1490.0 8.7073e-09
1510.0 9.0231e-09
1530.0 9.3224e-09
1550.0 9.6177e-09
1570.0 9.9232e-09
1590.0 1.0229e-08
1610.0 1.0521e-08
1630.0 1.0823e-08
1650.0 1.1133e-08
1670.0 1.1432e-08
1690.0 1.1728e-08
1710.0 1.2036e-08
1730.0 1.2345e-08
1750.0 1.2637e-08
1770.0 1.2937e-08
1790.0 1.3243e-08
1810.0 1.3541e-08
1830.0 1.3833e-08
1850.0 1.4144e-08
1870.0 1.4447e-08
1890.0 1.4741e-08
1910.0 1.5041e-08
1930.0 1.5349e-08
1950.0 1.5643e-08
1970.0 1.5935e-08
1990.0 1.6238e-08
2010.0 1.6537e-08
2030.0 1.6826e-08
2050.0 1.7125e-08
2070.0 1.7432e-08
2090.0 1.7722e-08
2110.0 1.8011e-08
2130.0 1.8311e-08
2150.0 1.8605e-08
2170.0 1.8886e-08
2190.0 1.9179e-08
2210.0 1.9475e-08
2230.0 1.9759e-08
2250.0 2.0042e-08
2270.0 2.0338e-08
2290.0 2.0625e-08
2310.0 2.0901e-08
2330.0 2.1189e-08
2350.0 2.1484e-08
2370.0 2.1777e-08
2390.0 2.2096e-08
2410.0 2.2473e-08
2430.0 2.2906e-08
2450.0 2.3425e-08
2470.0 2.4089e-08
2490.0 2.4926e-08
2510.0 2.5878e-08
2530.0 2.7023e-08
2550.0 2.8457e-08
2570.0 3.024e-08
2590.0 3.2561e-08
2610.0 3.6034e-08
2630.0 4.0994e-08
2650.0 4.7478e-08
2670.0 5.5863e-08
2690.0 6.6166e-08
2710.0 7.7164e-08
2730.0 8.8031e-08
2750.0 9.8735e-08
2770.0 1.0805e-07
2790.0 1.1544e-07
2810.0 1.2131e-07
2830.0 1.2589e-07
2850.0 1.2902e-07
2870.0 1.3132e-07
2890.0 1.3313e-07
2910.0 1.3459e-07
2930.0 1.3577e-07
2950.0 1.369e-07
2970.0 1.3801e-07
2990.0 1.3905e-07
3010.0 3.9303e-06
3030.0 3.9597e-06
3050.0 3.9881e-06
3070.0 4.0124e-06
3090.0 4.0333e-06
3110.0 4.0463e-06
3130.0 4.0457e-06
3150.0 4.0278e-06
3170.0 3.9846e-06
3190.0 3.9169e-06
3210.0 3.831e-06
3230.0 3.7326e-06
3250.0 3.6356e-06
3270.0 3.5646e-06
3290.0 3.5253e-06
3310.0 3.5316e-06
3330.0 3.5828e-06
3350.0 3.6718e-06
3370.0 3.7989e-06
3390.0 3.959e-06
3410.0 4.1333e-06
3430.0 4.329e-06
3450.0 4.5543e-06
3470.0 4.8003e-06
3490.0 5.061e-06
3510.0 5.3557e-06
3530.0 5.6712e-06
3550.0 5.9907e-06
3570.0 6.324e-06
3590.0 6.6865e-06
3610.0 7.06e-06
3630.0 7.4323e-06
3650.0 7.8186e-06
3670.0 8.1713e-06
3690.0 8.4349e-06
3710.0 8.586e-06
3730.0 8.591e-06
3750.0 8.4714e-06
3770.0 8.4245e-06
3790.0 8.3744e-06
3810.0 8.1686e-06
3830.0 8.4214e-06
3850.0 9.4161e-06
3870.0 9.9621e-06
3890.0 9.9167e-06
3910.0 9.959e-06
3930.0 1.0221e-05
3950.0 1.0383e-05
3970.0 9.4594e-06
3990.0 8.1394e-06
4010.0 2.4395e-05
4030.0 2.9558e-05
4050.0 3.3886e-05
4070.0 2.9402e-05
4090.0 2.6629e-05
4110.0 2.3498e-05
4130.0 2.1627e-05
4150.0 2.3005e-05
4170.0 2.2661e-05
4190.0 2.4155e-05
4210.0 2.3934e-05
4230.0 2.5316e-05
4250.0 2.9949e-05
4270.0 3.0301e-05
4290.0 2.7922e-05
4310.0 2.9013e-05
4330.0 3.0861e-05
4350.0 3.4603e-05
4370.0 3.9379e-05
4390.0 3.6953e-05
4410.0 2.7302e-05
4430.0 2.3113e-05
4450.0 2.1238e-05
4470.0 1.6301e-05
4490.0 1.7591e-05
4510.0 2.6571e-05
4530.0 3.0644e-05
4550.0 3.091e-05
4570.0 3.4782e-05
4590.0 3.962e-05
4610.0 5.3438e-05
4630.0 6.9404e-05
4650.0 7.5268e-05
4670.0 6.9706e-05
4690.0 6.6511e-05
4710.0 7.0307e-05
4730.0 6.635e-05
4750.0 4.9605e-05
4770.0 3.6387e-05
4790.0 3.3979e-05
4810.0 3.2387e-05
4830.0 2.965e-05
4850.0 3.2536e-05
4870.0 4.2983e-05
4890.0 5.0689e-05
4910.0 4.4473e-05
4930.0 3.9353e-05
4950.0 4.3235e-05
4970.0 5.5446e-05
4990.0 7.5142e-05
5010.0 8.6441e-05
5030.0 7.6221e-05
5050.0 5.1569e-05
5070.0 3.3986e-05
5090.0 2.7404e-05
5110.0 2.8183e-05
5130.0 3.2527e-05
5150.0 3.5241e-05
5170.0 3.4712e-05
5190.0 3.2436e-05
5210.0 3.3903e-05
5230.0 3.564e-05
5250.0 3.841e-05
5270.0 4.1442e-05
5290.0 4.5927e-05
5310.0 5.3457e-05
5330.0 5.9157e-05
5350.0 5.878e-05
5370.0 6.1743e-05
5390.0 7.0852e-05
5410.0 7.0788e-05
5430.0 6.2602e-05
5450.0 5.7517e-05
5470.0 6.1073e-05
5490.0 7.4614e-05
5510.0 9.3294e-05
5530.0 0.000107
5550.0 0.00010342
5570.0 9.4018e-05
5590.0 8.175e-05
5610.0 7.5392e-05
5630.0 7.3107e-05
5650.0 6.9628e-05
5670.0 6.5978e-05
5690.0 5.8984e-05
5710.0 5.7511e-05
5730.0 5.2976e-05
5750.0 3.7351e-05
5770.0 2.914e-05
5790.0 3.3022e-05
5810.0 3.7288e-05
5830.0 4.5758e-05
5850.0 5.447e-05
5870.0 6.0435e-05
5890.0 6.1459e-05
5910.0 6.0296e-05
5930.0 5.7395e-05
5950.0 5.8485e-05
5970.0 6.6666e-05
5990.0 6.2684e-05
6010.0 5.2548e-05
6030.0 4.4395e-05
6050.0 3.8663e-05
6070.0 3.8451e-05
6090.0 4.1694e-05
6110.0 4.6621e-05
6130.0 4.7335e-05
6150.0 4.0728e-05
6170.0 3.5828e-05
6190.0 4.0319e-05
6210.0 5.3301e-05
6230.0 6.9946e-05
6250.0 7.5761e-05
6270.0 6.6205e-05
6290.0 5.5702e-05
6310.0 4.3485e-05
6330.0 3.3318e-05
6350.0 2.9719e-05
6370.0 3.1252e-05
6390.0 3.6129e-05
6410.0 4.4549e-05
6430.0 5.2021e-05
6450.0 5.9526e-05
6470.0 6.8158e-05
6490.0 8.2331e-05
6510.0 9.2056e-05
6530.0 9.0313e-05
6550.0 8.1667e-05
6570.0 6.9328e-05
6590.0 6.2515e-05
6610.0 5.3904e-05
6630.0 4.8835e-05
6650.0 4.6163e-05
6670.0 4.4846e-05
6690.0 4.0521e-05
6710.0 3.6835e-05
6730.0 2.6531e-05
6750.0 2.6303e-05
6770.0 2.8589e-05
6790.0 3.2861e-05
6810.0 3.0069e-05
6830.0 3.0963e-05
6850.0 2.896e-05
6870.0 2.6455e-05
6890.0 2.5401e-05
6910.0 2.7068e-05
6930.0 2.5353e-05
6950.0 2.6084e-05
6970.0 2.7435e-05
6990.0 3.1141e-05
7010.0 3.1407e-05
7030.0 3.1906e-05
7050.0 3.0427e-05
7070.0 2.8992e-05
7090.0 2.9076e-05
7110.0 2.9917e-05
7130.0 3.2196e-05
7150.0 3.4195e-05
7170.0 3.7731e-05
7190.0 4.1477e-05
7210.0 4.0757e-05
7230.0 4.1899e-05
7250.0 4.5027e-05
7270.0 4.9068e-05
7290.0 5.8239e-05
7310.0 6.3195e-05
7330.0 6.1083e-05
7350.0 5.5246e-05
7370.0 4.8069e-05
7390.0 4.6633e-05
7410.0 4.9557e-05
7430.0 5.5076e-05
7450.0 5.9988e-05
7470.0 5.9437e-05
7490.0 5.4195e-05
7510.0 6.1389e-05
7530.0 6.0717e-05
7550.0 5.4574e-05
7570.0 4.2632e-05
7590.0 2.9308e-05
7610.0 2.5155e-05
7630.0 2.8581e-05
7650.0 3.3793e-05
7670.0 4.2058e-05
7690.0 4.6281e-05
7710.0 4.8231e-05
7730.0 5.0685e-05
7750.0 5.6899e-05
7770.0 5.7794e-05
7790.0 5.3086e-05
7810.0 4.8438e-05
7830.0 4.9951e-05
7850.0 4.8556e-05
7870.0 4.4518e-05
7890.0 3.7404e-05
7910.0 3.0404e-05
7930.0 2.9031e-05
7950.0 2.6448e-05
7970.0 2.4483e-05
7990.0 2.4343e-05
8010.0 1.8029e-06
8030.0 1.7795e-06
8050.0 1.7555e-06
8070.0 1.7785e-06
8090.0 1.9109e-06
8110.0 1.8783e-06
8130.0 1.5494e-06
8150.0 1.5089e-06
8170.0 1.2997e-06
8190.0 1.2318e-06
8210.0 1.5996e-06
8230.0 1.7809e-06
8250.0 1.6051e-06
8270.0 1.397e-06
8290.0 1.3619e-06
8310.0 1.0481e-06
8330.0 7.0644e-07
8350.0 5.0136e-07
8370.0 3.1588e-07
8390.0 5.7741e-07
8410.0 6.7284e-07
8430.0 8.2938e-07
8450.0 9.7392e-07
8470.0 1.2105e-06
8490.0 1.202e-06
8510.0 1.1823e-06
8530.0 1.2339e-06
8550.0 1.6648e-06
8570.0 1.9709e-06
8590.0 2.1266e-06
8610.0 2.6863e-06
8630.0 3.2361e-06
8650.0 3.3853e-06
8670.0 3.5975e-06
8690.0 3.6177e-06
8710.0 3.2763e-06
8730.0 3.0475e-06
8750.0 2.69e-06
8770.0 2.5524e-06
8790.0 2.5076e-06
8810.0 2.4028e-06
8830.0 1.9214e-06
8850.0 1.4066e-06
8870.0 1.077e-06
8890.0 1.053e-06
8910.0 1.2067e-06
8930.0 1.3725e-06
8950.0 1.3988e-06
8970.0 1.4054e-06
8990.0 1.2535e-06
9010.0 1.3136e-05
9030.0 1.1903e-05
9050.0 1.196e-05
9070.0 1.2055e-05
9090.0 1.2137e-05
9110.0 1.224e-05
9130.0 1.2318e-05
9150.0 1.238e-05
9170.0 1.2445e-05
9190.0 1.2515e-05
9210.0 1.2589e-05
9230.0 1.2666e-05
9250.0 1.2745e-05
9270.0 1.2827e-05
9290.0 1.2911e-05
9310.0 1.2996e-05
9330.0 1.3082e-05
9350.0 1.3172e-05
9370.0 1.3263e-05
9390.0 1.3354e-05
9410.0 1.3448e-05
9430.0 1.3545e-05
9450.0 1.3642e-05
9470.0 1.3741e-05
9490.0 1.3843e-05
9510.0 1.3945e-05
9530.0 1.4049e-05
9550.0 1.4156e-05
9570.0 1.4264e-05
9590.0 1.4373e-05
9610.0 1.4484e-05
9630.0 1.4598e-05
9650.0 1.4713e-05
9670.0 1.4828e-05
9690.0 1.4946e-05
9710.0 1.5066e-05
9730.0 1.5187e-05
9750.0 1.5309e-05
9770.0 1.5435e-05
9790.0 1.556e-05
9810.0 1.5686e-05
9830.0 1.5815e-05
9850.0 1.5945e-05
9870.0 1.6075e-05
9890.0 1.6207e-05
9910.0 1.6342e-05
9930.0 1.6476e-05
9950.0 1.6612e-05
9970.0 1.6749e-05
9990.0 1.6889e-05
10010.0 1.4655e-05
10030.0 1.4775e-05
10050.0 1.4898e-05
10070.0 1.5025e-05
10090.0 1.5145e-05
10110.0 1.5267e-05
10130.0 1.539e-05
10150.0 1.5513e-05
10170.0 1.5637e-05
10190.0 1.5764e-05
10210.0 1.5888e-05
10230.0 1.6013e-05
10250.0 1.614e-05
10270.0 1.6266e-05
10290.0 1.6391e-05
10310.0 1.6517e-05
10330.0 1.6645e-05
10350.0 1.677e-05
10370.0 1.6895e-05
10390.0 1.7022e-05
10410.0 1.7148e-05
10430.0 1.7271e-05
10450.0 1.7396e-05
10470.0 1.7521e-05
10490.0 1.7644e-05
10510.0 1.7766e-05
10530.0 1.789e-05
10550.0 1.8012e-05
10570.0 1.8132e-05
10590.0 1.8252e-05
10610.0 1.8372e-05
10630.0 1.8489e-05
10650.0 1.8605e-05
10670.0 1.8722e-05
10690.0 1.8837e-05
10710.0 1.895e-05
10730.0 1.9063e-05
10750.0 1.9176e-05
10770.0 1.9284e-05
10790.0 1.9391e-05
10810.0 1.9499e-05
10830.0 1.9603e-05
10850.0 1.9702e-05
10870.0 1.9797e-05
10890.0 1.9882e-05
10910.0 1.9946e-05
10930.0 1.9983e-05
10950.0 1.9974e-05
10970.0 1.9907e-05
10990.0 1.9774e-05
11010.0 1.9552e-05
11030.0 1.9241e-05
11050.0 1.8862e-05
11070.0 1.8408e-05
11090.0 1.7864e-05
11110.0 1.73e-05
11130.0 1.6713e-05
11150.0 1.608e-05
11170.0 1.5428e-05
11190.0 1.4795e-05
11210.0 1.4142e-05
11230.0 1.3472e-05
11250.0 1.2832e-05
11270.0 1.2217e-05
11290.0 1.1601e-05
11310.0 1.1018e-05
11330.0 1.0504e-05
11350.0 1.0018e-05
11370.0 9.5699e-06
11390.0 9.1819e-06
11410.0 8.8424e-06
11430.0 8.527e-06
11450.0 8.2552e-06
11470.0 8.0201e-06
11490.0 7.8014e-06
11510.0 7.5907e-06
11530.0 7.3952e-06
11550.0 7.201e-06
11570.0 6.9937e-06
11590.0 6.7791e-06
11610.0 6.5607e-06
11630.0 6.323e-06
11650.0 6.0684e-06
11670.0 5.8176e-06
11690.0 5.5632e-06
11710.0 5.3007e-06
11730.0 5.0464e-06
11750.0 4.8111e-06
11770.0 4.5803e-06
11790.0 4.364e-06
11810.0 4.1736e-06
11830.0 4.0033e-06
11850.0 3.8465e-06
11870.0 3.7152e-06
11890.0 3.6062e-06
11910.0 3.5103e-06
11930.0 3.428e-06
11950.0 3.3594e-06
11970.0 3.2981e-06
11990.0 3.2401e-06
12010.0 3.1865e-06
12030.0 3.1349e-06
12050.0 3.0815e-06
12070.0 3.026e-06
12090.0 2.9724e-06
12110.0 2.9181e-06
12130.0 2.8636e-06
12150.0 2.8134e-06
12170.0 2.7696e-06
12190.0 2.7317e-06
12210.0 2.7052e-06
12230.0 2.6924e-06
12250.0 2.6945e-06
12270.0 2.7148e-06
12290.0 2.7532e-06
12310.0 2.8083e-06
12330.0 2.8854e-06
12350.0 2.9816e-06
12370.0 3.0911e-06
12390.0 3.2174e-06
12410.0 3.3654e-06
12430.0 3.5158e-06
12450.0 3.6715e-06
12470.0 3.8371e-06
12490.0 4.0034e-06
12510.0 4.1595e-06
12530.0 4.3147e-06
12550.0 4.4644e-06
12570.0 4.5966e-06
12590.0 4.7127e-06
12610.0 4.8161e-06
12630.0 4.8985e-06
12650.0 4.9554e-06
12670.0 4.9928e-06
12690.0 5.0078e-06
12710.0 4.9996e-06
12730.0 4.9706e-06
12750.0 4.9189e-06
12770.0 4.8479e-06
12790.0 4.7619e-06
12810.0 4.6591e-06
12830.0 4.5403e-06
12850.0 4.4159e-06
12870.0 4.2845e-06
12890.0 4.1422e-06
12910.0 3.9976e-06
12930.0 3.8551e-06
12950.0 3.7064e-06
12970.0 3.5551e-06
12990.0 3.4119e-06
13010.0 3.2705e-06
13030.0 3.1275e-06
13050.0 2.9901e-06
13070.0 2.8615e-06
13090.0 2.7323e-06
13110.0 2.6074e-06
13130.0 2.4922e-06
13150.0 2.3832e-06
13170.0 2.2764e-06
13190.0 2.1814e-06
13210.0 2.0977e-06
13230.0 2.0213e-06
13250.0 1.9555e-06
13270.0 1.9035e-06
13290.0 1.8631e-06
13310.0 1.8353e-06
13330.0 1.8226e-06
13350.0 1.8241e-06
13370.0 1.8405e-06
13390.0 1.8726e-06
13410.0 1.916e-06
13430.0 1.9725e-06
13450.0 2.0423e-06
13470.0 2.1197e-06
13490.0 2.2017e-06
13510.0 2.2942e-06
13530.0 2.3879e-06
13550.0 2.4777e-06
13570.0 2.5662e-06
13590.0 2.6524e-06
13610.0 2.7291e-06
13630.0 2.7961e-06
13650.0 2.8572e-06
13670.0 2.908e-06
13690.0 2.9472e-06
13710.0 2.9776e-06
13730.0 2.9993e-06
13750.0 3.0101e-06
13770.0 3.0126e-06
13790.0 3.0071e-06
13810.0 2.9938e-06
13830.0 2.9742e-06
13850.0 2.9476e-06
13870.0 2.9141e-06
13890.0 2.8758e-06
13910.0 2.8326e-06
13930.0 2.7826e-06
13950.0 2.728e-06
13970.0 2.6722e-06
13990.0 2.6114e-06
14010.0 2.5468e-06
14030.0 2.4823e-06
14050.0 2.4173e-06
14070.0 2.3487e-06
14090.0 2.283e-06
14110.0 2.2212e-06
14130.0 2.1613e-06
14150.0 2.105e-06
14170.0 2.0569e-06
14190.0 2.0153e-06
14210.0 1.98e-06
14230.0 1.9539e-06
14250.0 1.937e-06
14270.0 1.9288e-06
14290.0 1.9305e-06
14310.0 1.9413e-06
14330.0 1.9606e-06
14350.0 1.9891e-06
14370.0 2.0245e-06
14390.0 2.0647e-06
14410.0 2.1121e-06
14430.0 2.1641e-06
14450.0 2.2173e-06
14470.0 2.2724e-06
14490.0 2.3311e-06
14510.0 2.3871e-06
14530.0 2.4404e-06
14550.0 2.4936e-06
14570.0 2.5447e-06
14590.0 2.5912e-06
14610.0 2.6362e-06
14630.0 2.6807e-06
14650.0 2.7222e-06
14670.0 2.7623e-06
14690.0 2.804e-06
14710.0 2.8479e-06
14730.0 2.8918e-06
14750.0 2.9405e-06
14770.0 2.9956e-06
14790.0 3.0554e-06
14810.0 3.1202e-06
14830.0 3.197e-06
14850.0 3.2805e-06
14870.0 3.3675e-06
14890.0 3.4615e-06
14910.0 3.5612e-06
14930.0 3.6572e-06
14950.0 3.7468e-06
14970.0 3.8317e-06
14990.0 3.9028e-06
15010.0 3.9573e-06
15030.0 3.9976e-06
15050.0 4.0242e-06
15070.0 4.0372e-06
15090.0 4.0418e-06
15110.0 4.0405e-06
15130.0 4.0354e-06
15150.0 4.0286e-06
15170.0 4.0205e-06
15190.0 4.0119e-06
15210.0 4.0033e-06
15230.0 3.9948e-06
15250.0 3.986e-06
15270.0 3.9773e-06
15290.0 3.969e-06
15310.0 3.9605e-06
15330.0 3.952e-06
15350.0 3.9437e-06
15370.0 3.9356e-06
15390.0 3.927e-06
15410.0 3.9187e-06
15430.0 3.9106e-06
15450.0 3.9024e-06
15470.0 3.894e-06
15490.0 3.8861e-06
15510.0 3.8782e-06
15530.0 3.87e-06
15550.0 3.862e-06
15570.0 3.8542e-06
15590.0 3.8462e-06
15610.0 3.838e-06
15630.0 3.8303e-06
15650.0 3.8225e-06
15670.0 3.8145e-06
15690.0 3.8067e-06
15710.0 3.7992e-06
15730.0 3.7913e-06
15750.0 3.7834e-06
15770.0 3.7759e-06
15790.0 3.7683e-06
15810.0 3.7603e-06
15830.0 3.7526e-06
15850.0 3.7452e-06
15870.0 3.7375e-06
15890.0 3.7298e-06
15910.0 3.7224e-06
15930.0 3.7149e-06
15950.0 3.707e-06
15970.0 3.6995e-06
15990.0 3.6921e-06
16010.0 3.6844e-06
16030.0 3.6767e-06
16050.0 3.6694e-06
16070.0 3.6619e-06
16090.0 3.6542e-06
16110.0 3.6468e-06
16130.0 3.6395e-06
16150.0 3.6317e-06
16170.0 3.6241e-06
16190.0 3.6168e-06
16210.0 3.6093e-06
16230.0 3.6016e-06
16250.0 3.5942e-06
16270.0 3.5869e-06
16290.0 3.5792e-06
16310.0 3.5716e-06
16330.0 3.5643e-06
16350.0 3.5568e-06
16370.0 3.5489e-06
16390.0 3.5415e-06
16410.0 3.5341e-06
16430.0 3.5264e-06
16450.0 3.5188e-06
16470.0 3.5115e-06
16490.0 3.5038e-06
16510.0 3.496e-06
16530.0 3.4886e-06
16550.0 3.4811e-06
16570.0 3.4732e-06
16590.0 3.4655e-06
16610.0 3.4581e-06
16630.0 3.4504e-06
16650.0 3.4426e-06
16670.0 3.4351e-06
16690.0 3.4275e-06
16710.0 3.4195e-06
16730.0 3.4117e-06
16750.0 3.4042e-06
16770.0 3.3963e-06
16790.0 3.3883e-06
16810.0 3.3807e-06
16830.0 3.3731e-06
16850.0 3.365e-06
16870.0 3.3572e-06
16890.0 3.3496e-06
16910.0 3.3415e-06
16930.0 3.3334e-06
16950.0 3.3256e-06
16970.0 3.3178e-06
16990.0 3.3096e-06
17010.0 3.3017e-06
17030.0 3.2939e-06
17050.0 3.2858e-06
17070.0 3.2776e-06
17090.0 3.2697e-06
17110.0 3.2617e-06
17130.0 3.2532e-06
17150.0 3.2452e-06
17170.0 3.2372e-06
17190.0 3.229e-06
17210.0 3.2207e-06
17230.0 3.2127e-06
17250.0 3.2045e-06
17270.0 3.196e-06
17290.0 3.1878e-06
17310.0 3.1797e-06
17330.0 3.1712e-06
17350.0 3.1627e-06
17370.0 3.1546e-06
17390.0 3.1462e-06
17410.0 3.1377e-06
17430.0 3.1294e-06
17450.0 3.1212e-06
17470.0 3.1124e-06
17490.0 3.1038e-06
17510.0 3.0955e-06
17530.0 3.087e-06
17550.0 3.0782e-06
17570.0 3.0698e-06
17590.0 3.0614e-06
17610.0 3.0526e-06
17630.0 3.0439e-06
17650.0 3.0355e-06
17670.0 3.0268e-06
17690.0 3.0177e-06
17710.0 3.0092e-06
17730.0 3.0007e-06
17750.0 2.9918e-06
17770.0 2.983e-06
17790.0 2.9745e-06
17810.0 2.9656e-06
17830.0 2.9566e-06
17850.0 2.9479e-06
17870.0 2.9391e-06
17890.0 2.93e-06
17910.0 2.9211e-06
17930.0 2.9124e-06
17950.0 2.9035e-06
17970.0 2.8944e-06
17990.0 2.8856e-06
18010.0 2.8768e-06
18030.0 2.8675e-06
18050.0 2.8585e-06
18070.0 2.8497e-06
18090.0 2.8406e-06
18110.0 2.8313e-06
18130.0 2.8225e-06
18150.0 2.8135e-06
18170.0 2.8043e-06
18190.0 2.7952e-06
18210.0 2.7863e-06
18230.0 2.777e-06
18250.0 2.7676e-06
18270.0 2.7587e-06
18290.0 2.7496e-06
18310.0 2.7402e-06
18330.0 2.7311e-06
18350.0 2.7222e-06
18370.0 2.7128e-06
18390.0 2.7034e-06
18410.0 2.6944e-06
18430.0 2.6852e-06
18450.0 2.6756e-06
18470.0 2.6664e-06
18490.0 2.6574e-06
18510.0 2.648e-06
18530.0 2.6386e-06
18550.0 2.6296e-06
18570.0 2.6203e-06
18590.0 2.6107e-06
18610.0 2.6015e-06
18630.0 2.5923e-06
18650.0 2.5828e-06
18670.0 2.5733e-06
18690.0 2.5643e-06
18710.0 2.5549e-06
18730.0 2.5454e-06
18750.0 2.5362e-06
18770.0 2.527e-06
18790.0 2.5173e-06
18810.0 2.5079e-06
18830.0 2.4987e-06
18850.0 2.4893e-06
18870.0 2.4797e-06
18890.0 2.4705e-06
18910.0 2.4613e-06
18930.0 2.4517e-06
18950.0 2.4422e-06
18970.0 2.433e-06
18990.0 2.4236e-06
19010.0 2.4138e-06
19030.0 2.4046e-06
19050.0 2.3954e-06
19070.0 2.3858e-06
19090.0 2.3764e-06
19110.0 2.3673e-06
19130.0 2.3577e-06
19150.0 2.3481e-06
19170.0 2.3388e-06
19190.0 2.3295e-06
19210.0 2.3198e-06
19230.0 2.3104e-06
19250.0 2.3012e-06
19270.0 2.2918e-06
19290.0 2.2822e-06
19310.0 2.273e-06
19330.0 2.2637e-06
19350.0 2.254e-06
19370.0 2.2446e-06
19390.0 2.2354e-06
19410.0 2.2259e-06
19430.0 2.2163e-06
19450.0 2.2071e-06
19470.0 2.1978e-06
19490.0 2.1883e-06
19510.0 2.1789e-06
19530.0 2.1698e-06
19550.0 2.1602e-06
19570.0 2.1506e-06
19590.0 2.1414e-06
19610.0 2.1321e-06
19630.0 2.1226e-06
19650.0 2.1133e-06
19670.0 2.1042e-06
19690.0 2.0946e-06
19710.0 2.0852e-06
19730.0 2.076e-06
19750.0 2.0667e-06
19770.0 2.057e-06
19790.0 2.0478e-06
19810.0 2.0387e-06
19830.0 2.0292e-06
19850.0 2.0197e-06
19870.0 2.0103e-06
19890.0 2.0003e-06
19910.0 1.9892e-06
19930.0 1.9774e-06
19950.0 1.9639e-06
19970.0 1.9473e-06
19990.0 1.9273e-06
20010.0 1.7147e-06
20030.0 1.6899e-06
20050.0 1.6608e-06
20070.0 1.6294e-06
20090.0 1.5955e-06
20110.0 1.5572e-06
20130.0 1.5185e-06
20150.0 1.48e-06
20170.0 1.4402e-06
20190.0 1.3998e-06
20210.0 1.3616e-06
20230.0 1.3244e-06
20250.0 1.2871e-06
20270.0 1.2525e-06
20290.0 1.2209e-06
20310.0 1.1909e-06
20330.0 1.1628e-06
20350.0 1.1395e-06
20370.0 1.1188e-06
20390.0 1.1007e-06
20410.0 1.086e-06
20430.0 1.0747e-06
20450.0 1.0658e-06
20470.0 1.0598e-06
20490.0 1.0566e-06
20510.0 1.0557e-06
20530.0 1.057e-06
20550.0 1.0602e-06
20570.0 1.065e-06
20590.0 1.0714e-06
20610.0 1.0792e-06
20630.0 1.0878e-06
20650.0 1.0974e-06
20670.0 1.1083e-06
20690.0 1.1195e-06
20710.0 1.1311e-06
20730.0 1.1435e-06
20750.0 1.1565e-06
20770.0 1.1693e-06
20790.0 1.1828e-06
20810.0 1.197e-06
20830.0 1.2111e-06
20850.0 1.2253e-06
20870.0 1.2406e-06
20890.0 1.2561e-06
20910.0 1.271e-06
20930.0 1.2866e-06
20950.0 1.3026e-06
20970.0 1.3183e-06
20990.0 1.3338e-06
21010.0 1.3501e-06
21030.0 1.366e-06
21050.0 1.3812e-06
21070.0 1.3963e-06
21090.0 1.4115e-06
21110.0 1.4254e-06
21130.0 1.4384e-06
21150.0 1.451e-06
21170.0 1.4625e-06
21190.0 1.4723e-06
21210.0 1.4811e-06
21230.0 1.4885e-06
21250.0 1.4937e-06
21270.0 1.4971e-06
21290.0 1.4983e-06
21310.0 1.4971e-06
21330.0 1.4936e-06
21350.0 1.4874e-06
21370.0 1.4783e-06
21390.0 1.4667e-06
21410.0 1.4525e-06
21430.0 1.4346e-06
21450.0 1.4144e-06
21470.0 1.3925e-06
21490.0 1.3677e-06
21510.0 1.3404e-06
21530.0 1.3128e-06
21550.0 1.2838e-06
21570.0 1.2529e-06
21590.0 1.2225e-06
21610.0 1.1931e-06
21630.0 1.1637e-06
21650.0 1.135e-06
21670.0 1.1101e-06
21690.0 1.0871e-06
21710.0 1.0664e-06
21730.0 1.0495e-06
21750.0 1.0364e-06
21770.0 1.0265e-06
21790.0 1.0208e-06
21810.0 1.0192e-06
21830.0 1.0214e-06
21850.0 1.0278e-06
21870.0 1.0378e-06
21890.0 1.0506e-06
21910.0 1.0671e-06
21930.0 1.0865e-06
21950.0 1.1075e-06
21970.0 1.1307e-06
21990.0 1.1567e-06
22010.0 1.1828e-06
22030.0 1.2092e-06
22050.0 1.237e-06
22070.0 1.265e-06
22090.0 1.2914e-06
22110.0 1.3181e-06
22130.0 1.3447e-06
22150.0 1.3696e-06
22170.0 1.393e-06
22190.0 1.4162e-06
22210.0 1.4379e-06
22230.0 1.4569e-06
22250.0 1.4748e-06
22270.0 1.4913e-06
22290.0 1.5054e-06
22310.0 1.5175e-06
22330.0 1.5282e-06
22350.0 1.5364e-06
22370.0 1.5422e-06
22390.0 1.5458e-06
22410.0 1.547e-06
22430.0 1.5455e-06
22450.0 1.5415e-06
22470.0 1.5347e-06
22490.0 1.525e-06
22510.0 1.5129e-06
22530.0 1.4975e-06
22550.0 1.4788e-06
22570.0 1.458e-06
22590.0 1.4345e-06
22610.0 1.4076e-06
