#lamb flux
1010.0 9.726e-06
1030.0 1.0495e-05
1050.0 1.1381e-05
1070.0 1.2378e-05
1090.0 1.3512e-05
1110.0 1.4676e-05
1130.0 1.5849e-05
1150.0 1.708e-05
1170.0 1.8351e-05
1190.0 1.9558e-05
1210.0 2.0784e-05
1230.0 2.2053e-05
1250.0 2.3299e-05
1270.0 2.4512e-05
1290.0 2.5796e-05
1310.0 2.7082e-05
1330.0 2.8319e-05
1350.0 2.9574e-05
1370.0 3.0872e-05
1390.0 3.2141e-05
1410.0 3.3378e-05
1430.0 3.4673e-05
1450.0 3.5972e-05
1470.0 3.7232e-05
1490.0 3.8509e-05
1510.0 3.9859e-05
1530.0 4.1144e-05
1550.0 4.2414e-05
1570.0 4.373e-05
1590.0 4.5048e-05
1610.0 4.6311e-05
1630.0 4.7613e-05
1650.0 4.8947e-05
1670.0 5.0238e-05
1690.0 5.151e-05
1710.0 5.2828e-05
1730.0 5.4148e-05
1750.0 5.5386e-05
1770.0 5.6653e-05
1790.0 5.7938e-05
1810.0 5.9172e-05
1830.0 6.0374e-05
1850.0 6.1639e-05
1870.0 6.2857e-05
1890.0 6.4019e-05
1910.0 6.5188e-05
1930.0 6.6371e-05
1950.0 6.7478e-05
1970.0 6.8552e-05
1990.0 6.965e-05
2010.0 7.0707e-05
2030.0 7.1699e-05
2050.0 7.2705e-05
2070.0 7.3719e-05
2090.0 7.4638e-05
2110.0 7.5532e-05
2130.0 7.6437e-05
2150.0 7.7297e-05
2170.0 7.8082e-05
2190.0 7.8889e-05
2210.0 7.968e-05
2230.0 8.0402e-05
2250.0 8.1099e-05
2270.0 8.1825e-05
2290.0 8.2496e-05
2310.0 8.3101e-05
2330.0 8.3722e-05
2350.0 8.4335e-05
2370.0 8.4885e-05
2390.0 8.5432e-05
2410.0 8.6017e-05
2430.0 8.6561e-05
2450.0 8.7082e-05
2470.0 8.7659e-05
2490.0 8.8336e-05
2510.0 8.9139e-05
2530.0 9.041e-05
2550.0 9.2699e-05
2570.0 9.6582e-05
2590.0 0.00010274
2610.0 0.0001129
2630.0 0.00012751
2650.0 0.00014577
2670.0 0.00016787
2690.0 0.00019299
2710.0 0.00021767
2730.0 0.00024025
2750.0 0.0002611
2770.0 0.00027833
2790.0 0.00029176
2810.0 0.00030291
2830.0 0.00031291
2850.0 0.00032134
2870.0 0.00032937
2890.0 0.00033777
2910.0 0.00034632
2930.0 0.00035467
2950.0 0.00036362
2970.0 0.00037304
2990.0 0.00038234
3010.0 0.0021701
3030.0 0.0022249
3050.0 0.0022788
3070.0 0.0023259
3090.0 0.0023652
3110.0 0.0023852
3130.0 0.0023721
3150.0 0.0023127
3170.0 0.0021802
3190.0 0.001973
3210.0 0.0016974
3230.0 0.0013905
3250.0 0.0016718
3270.0 0.0013486
3290.0 0.0020462
3310.0 0.0013082
3330.0 0.0013159
3350.0 0.0014306
3370.0 0.0015719
3390.0 0.0017302
3410.0 0.0018901
3430.0 0.0020593
3450.0 0.0022328
3470.0 0.0023964
3490.0 0.0025234
3510.0 0.0028508
3530.0 0.0033918
3550.0 0.0033697
3570.0 0.0030296
3590.0 0.0036959
3610.0 0.0029142
3630.0 0.0039543
3650.0 0.0044415
3670.0 0.0052804
3690.0 0.0050137
3710.0 0.0038384
3730.0 0.0044709
3750.0 0.004526
3770.0 0.0049068
3790.0 0.0050521
3810.0 0.0055926
3830.0 0.0082718
3850.0 0.010373
3870.0 0.012511
3890.0 0.012657
3910.0 0.011809
3930.0 0.011881
3950.0 0.012538
3970.0 0.012295
3990.0 0.0074621
4010.0 0.0045386
4030.0 0.0079224
4050.0 0.010837
4070.0 0.010695
4090.0 0.0066363
4110.0 0.0047561
4130.0 0.0080241
4150.0 0.0087762
4170.0 0.0075295
4190.0 0.0064375
4210.0 0.0093308
4230.0 0.0079303
4250.0 0.0078966
4270.0 0.007844
4290.0 0.0071483
4310.0 0.0089161
4330.0 0.010084
4350.0 0.0096703
4370.0 0.0086247
4390.0 0.0095353
4410.0 0.0092632
4430.0 0.0068586
4450.0 0.0056315
4470.0 0.0068702
4490.0 0.0060048
4510.0 0.0086629
4530.0 0.0089128
4550.0 0.009496
4570.0 0.012399
4590.0 0.013563
4610.0 0.014233
4630.0 0.020015
4650.0 0.023457
4670.0 0.02332
4690.0 0.020423
4710.0 0.020626
4730.0 0.019674
4750.0 0.015033
4770.0 0.011952
4790.0 0.0088748
4810.0 0.010375
4830.0 0.012093
4850.0 0.011571
4870.0 0.008417
4890.0 0.013835
4910.0 0.015532
4930.0 0.016928
4950.0 0.019007
4970.0 0.017381
4990.0 0.019845
5010.0 0.021257
5030.0 0.020633
5050.0 0.017452
5070.0 0.012479
5090.0 0.01036
5110.0 0.010354
5130.0 0.01051
5150.0 0.010218
5170.0 0.0095921
5190.0 0.010548
5210.0 0.010826
5230.0 0.011957
5250.0 0.013254
5270.0 0.01202
5290.0 0.013452
5310.0 0.017826
5330.0 0.019854
5350.0 0.017885
5370.0 0.017338
5390.0 0.019223
5410.0 0.020458
5430.0 0.020567
5450.0 0.021487
5470.0 0.022907
5490.0 0.025924
5510.0 0.031048
5530.0 0.032279
5550.0 0.032835
5570.0 0.033113
5590.0 0.03203
5610.0 0.030171
5630.0 0.030032
5650.0 0.031156
5670.0 0.030191
5690.0 0.026781
5710.0 0.026473
5730.0 0.025194
5750.0 0.023827
5770.0 0.020931
5790.0 0.021361
5810.0 0.022459
5830.0 0.024583
5850.0 0.023724
5870.0 0.023409
5890.0 0.025202
5910.0 0.023307
5930.0 0.020612
5950.0 0.019941
5970.0 0.021139
5990.0 0.018797
6010.0 0.016325
6030.0 0.014836
6050.0 0.013467
6070.0 0.011801
6090.0 0.012146
6110.0 0.014176
6130.0 0.014838
6150.0 0.015098
6170.0 0.015377
6190.0 0.015854
6210.0 0.01767
6230.0 0.020929
6250.0 0.019419
6270.0 0.017134
6290.0 0.015066
6310.0 0.012876
6330.0 0.011551
6350.0 0.010817
6370.0 0.011344
6390.0 0.012826
6410.0 0.015587
6430.0 0.018939
6450.0 0.020962
6470.0 0.022514
6490.0 0.026132
6510.0 0.029004
6530.0 0.027899
6550.0 0.026604
6570.0 0.026904
6590.0 0.026815
6610.0 0.02719
6630.0 0.025507
6650.0 0.022685
6670.0 0.021588
6690.0 0.021256
6710.0 0.022734
6730.0 0.019982
6750.0 0.016841
6770.0 0.016062
6790.0 0.017116
6810.0 0.01937
6830.0 0.019528
6850.0 0.01777
6870.0 0.017956
6890.0 0.017774
6910.0 0.016722
6930.0 0.017492
6950.0 0.016811
6970.0 0.016242
6990.0 0.016512
7010.0 0.017281
7030.0 0.016977
7050.0 0.0158
7070.0 0.015766
7090.0 0.014197
7110.0 0.012173
7130.0 0.011462
7150.0 0.011911
7170.0 0.013624
7190.0 0.01394
7210.0 0.013407
7230.0 0.014491
7250.0 0.0151
7270.0 0.015345
7290.0 0.015946
7310.0 0.016452
7330.0 0.015691
7350.0 0.014552
7370.0 0.013482
7390.0 0.013269
7410.0 0.014796
7430.0 0.017002
7450.0 0.018467
7470.0 0.019717
7490.0 0.022672
7510.0 0.022464
7530.0 0.01913
7550.0 0.017063
7570.0 0.014441
7590.0 0.013024
7610.0 0.012637
7630.0 0.012181
7650.0 0.013126
7670.0 0.014808
7690.0 0.01621
7710.0 0.018519
7730.0 0.019263
7750.0 0.019961
7770.0 0.021257
7790.0 0.02247
7810.0 0.022268
7830.0 0.020231
7850.0 0.020179
7870.0 0.019606
7890.0 0.019215
7910.0 0.017926
7930.0 0.017296
7950.0 0.014428
7970.0 0.014118
7990.0 0.013971
8010.0 0.01593
8030.0 0.015925
8050.0 0.016875
8070.0 0.016332
8090.0 0.016392
8110.0 0.016133
8130.0 0.01568
8150.0 0.014596
8170.0 0.014412
8190.0 0.014487
8210.0 0.014638
8230.0 0.013025
8250.0 0.011999
8270.0 0.010592
8290.0 0.0089578
8310.0 0.0076836
8330.0 0.0059073
8350.0 0.0046669
8370.0 0.0043991
8390.0 0.0043745
8410.0 0.0047359
8430.0 0.0060938
8450.0 0.0066929
8470.0 0.0072327
8490.0 0.0083563
8510.0 0.0090795
8530.0 0.010221
8550.0 0.012095
8570.0 0.013392
8590.0 0.014181
8610.0 0.01597
8630.0 0.018348
8650.0 0.018974
8670.0 0.019395
8690.0 0.019884
8710.0 0.019435
8730.0 0.018699
8750.0 0.017225
8770.0 0.017146
8790.0 0.016801
8810.0 0.015477
8830.0 0.015245
8850.0 0.013696
8870.0 0.01292
8890.0 0.011646
8910.0 0.013043
8930.0 0.011919
8950.0 0.012046
8970.0 0.01234
8990.0 0.012071
9010.0 0.012336
9030.0 0.01173
9050.0 0.011682
9070.0 0.011693
9090.0 0.011702
9110.0 0.011719
9130.0 0.011727
9150.0 0.011728
9170.0 0.011702
9190.0 0.011637
9210.0 0.011812
9230.0 0.011773
9250.0 0.011756
9270.0 0.011744
9290.0 0.011735
9310.0 0.011727
9330.0 0.011721
9350.0 0.011715
9370.0 0.011709
9390.0 0.011702
9410.0 0.011695
9430.0 0.011688
9450.0 0.01168
9470.0 0.011672
9490.0 0.011664
9510.0 0.011655
9530.0 0.011645
9550.0 0.011636
9570.0 0.011628
9590.0 0.011618
9610.0 0.011609
9630.0 0.0116
9650.0 0.011591
9670.0 0.011581
9690.0 0.011572
9710.0 0.011564
9730.0 0.011555
9750.0 0.011547
9770.0 0.01154
9790.0 0.011533
9810.0 0.011525
9830.0 0.011519
9850.0 0.011513
9870.0 0.011507
9890.0 0.011502
9910.0 0.011497
9930.0 0.011493
9950.0 0.011475
9970.0 0.011477
9990.0 0.011478
10010.0 0.011478
10030.0 0.011478
10050.0 0.011474
10070.0 0.011445
10090.0 0.011455
10110.0 0.011465
10130.0 0.011472
10150.0 0.011479
10170.0 0.011484
10190.0 0.011487
10210.0 0.011492
10230.0 0.011497
10250.0 0.011501
10270.0 0.011506
10290.0 0.011512
10310.0 0.011518
10330.0 0.011524
10350.0 0.011531
10370.0 0.011538
10390.0 0.011546
10410.0 0.011554
10430.0 0.011563
10450.0 0.011571
10470.0 0.01158
10490.0 0.01159
10510.0 0.0116
10530.0 0.011609
10550.0 0.011619
10570.0 0.01163
10590.0 0.01164
10610.0 0.01165
10630.0 0.011662
10650.0 0.011673
10670.0 0.011684
10690.0 0.011695
10710.0 0.011706
10730.0 0.011718
10750.0 0.011729
10770.0 0.01174
10790.0 0.011752
10810.0 0.011763
10830.0 0.011774
10850.0 0.011784
10870.0 0.01179
10890.0 0.011792
10910.0 0.011785
10930.0 0.011763
10950.0 0.011715
10970.0 0.011637
10990.0 0.011525
11010.0 0.011788
11030.0 0.011562
11050.0 0.0113
11070.0 0.010998
11090.0 0.010648
11110.0 0.010301
11130.0 0.0099551
11150.0 0.0096017
11170.0 0.0092598
11190.0 0.0089507
11210.0 0.008655
11230.0 0.0083768
11250.0 0.008134
11270.0 0.0079206
11290.0 0.0077246
11310.0 0.0075534
11330.0 0.0074117
11350.0 0.0072822
11370.0 0.0071626
11390.0 0.0070543
11410.0 0.0069509
11430.0 0.0068409
11450.0 0.0067288
11470.0 0.0066137
11490.0 0.0064881
11510.0 0.0063492
11530.0 0.0062078
11550.0 0.0060602
11570.0 0.0059007
11590.0 0.0057382
11610.0 0.0055787
11630.0 0.0054129
11650.0 0.0052446
11670.0 0.0050871
11690.0 0.004934
11710.0 0.0047814
11730.0 0.0046368
11750.0 0.004504
11770.0 0.0043727
11790.0 0.0042463
11810.0 0.0041298
11830.0 0.0040187
11850.0 0.0039067
11870.0 0.0038021
11890.0 0.0037038
11910.0 0.003605
11930.0 0.0035069
11950.0 0.0034139
11970.0 0.0033211
11990.0 0.0032254
12010.0 0.0031332
12030.0 0.0030442
12050.0 0.0029544
12070.0 0.0028654
12090.0 0.0027851
12110.0 0.0027082
12130.0 0.0026351
12150.0 0.0025708
12170.0 0.0025164
12190.0 0.0024687
12210.0 0.0024331
12230.0 0.0024107
12250.0 0.0024005
12270.0 0.0024041
12290.0 0.0024214
12310.0 0.0024508
12330.0 0.0024942
12350.0 0.0025494
12370.0 0.0026123
12390.0 0.0026838
12410.0 0.0027654
12430.0 0.0028459
12450.0 0.0029263
12470.0 0.003008
12490.0 0.003086
12510.0 0.0031554
12530.0 0.0032203
12550.0 0.0032788
12570.0 0.0033267
12590.0 0.0033655
12610.0 0.0033968
12630.0 0.0034189
12650.0 0.0034314
12670.0 0.0034369
12690.0 0.0034352
12710.0 0.003427
12730.0 0.0034135
12750.0 0.003394
12770.0 0.0033703
12790.0 0.0033433
12810.0 0.0033122
12830.0 0.0032766
12850.0 0.0032393
12870.0 0.0031991
12890.0 0.0031538
12910.0 0.0031053
12930.0 0.0030548
12950.0 0.0029983
12970.0 0.0029362
12990.0 0.0028732
13010.0 0.0028066
13030.0 0.0027345
13050.0 0.0026612
13070.0 0.0025893
13090.0 0.0025141
13110.0 0.0024392
13130.0 0.002369
13150.0 0.0023022
13170.0 0.0022369
13190.0 0.0021799
13210.0 0.0021312
13230.0 0.0020884
13250.0 0.0020532
13270.0 0.0020272
13290.0 0.0020083
13310.0 0.0019961
13330.0 0.0019907
13350.0 0.0019906
13370.0 0.0019945
13390.0 0.0020013
13410.0 0.0020089
13430.0 0.0020166
13450.0 0.0020233
13470.0 0.0020277
13490.0 0.0020292
13510.0 0.0020275
13530.0 0.0020223
13550.0 0.0020141
13570.0 0.0020031
13590.0 0.0019895
13610.0 0.0019748
13630.0 0.0019598
13650.0 0.0019441
13670.0 0.001929
13690.0 0.0019152
13710.0 0.0019025
13730.0 0.0018907
13750.0 0.0018809
13770.0 0.0018721
13790.0 0.001864
13810.0 0.0018562
13830.0 0.0018487
13850.0 0.0018406
13870.0 0.0018314
13890.0 0.0018212
13910.0 0.0018097
13930.0 0.0017964
13950.0 0.0017816
13970.0 0.0017664
13990.0 0.0017499
14010.0 0.0017328
14030.0 0.0017163
14050.0 0.0017004
14070.0 0.0016848
14090.0 0.0016708
14110.0 0.0016587
14130.0 0.0016481
14150.0 0.0016391
14170.0 0.0016322
14190.0 0.001627
14210.0 0.0016233
14230.0 0.0016213
14250.0 0.0016209
14270.0 0.0016221
14290.0 0.0016253
14310.0 0.0016298
14330.0 0.0016361
14350.0 0.0016444
14370.0 0.0016542
14390.0 0.001665
14410.0 0.0016777
14430.0 0.0016916
14450.0 0.0017057
14470.0 0.0017206
14490.0 0.0017369
14510.0 0.001753
14530.0 0.001769
14550.0 0.0017863
14570.0 0.0018048
14590.0 0.0018236
14610.0 0.0018445
14630.0 0.0018687
14650.0 0.0018948
14670.0 0.0019233
14690.0 0.0019564
14710.0 0.0019938
14730.0 0.0020323
14750.0 0.002075
14770.0 0.0021221
14790.0 0.0021704
14810.0 0.0022192
14830.0 0.0022725
14850.0 0.0023249
14870.0 0.0023742
14890.0 0.0024222
14910.0 0.002468
14930.0 0.0025074
14950.0 0.0025403
14970.0 0.0025682
14990.0 0.0025883
15010.0 0.0026007
15030.0 0.002607
15050.0 0.0026078
15070.0 0.002604
15090.0 0.0025974
15110.0 0.0025887
15130.0 0.0025789
15150.0 0.0025687
15170.0 0.002558
15190.0 0.0025471
15210.0 0.0025364
15230.0 0.0025258
15250.0 0.0025149
15270.0 0.0025041
15290.0 0.0024937
15310.0 0.0024831
15330.0 0.0024724
15350.0 0.002462
15370.0 0.0024516
15390.0 0.002441
15410.0 0.0024306
15430.0 0.0024203
15450.0 0.00241
15470.0 0.0023996
15490.0 0.0023895
15510.0 0.0023794
15530.0 0.0023692
15550.0 0.0023591
15570.0 0.0023492
15590.0 0.0023391
15610.0 0.0023289
15630.0 0.0023192
15650.0 0.0023094
15670.0 0.0022994
15690.0 0.0022896
15710.0 0.0022801
15730.0 0.0022703
15750.0 0.0022605
15770.0 0.0022511
15790.0 0.0022416
15810.0 0.0022318
15830.0 0.0022223
15850.0 0.0022131
15870.0 0.0022036
15890.0 0.0021942
15910.0 0.002185
15930.0 0.0021758
15950.0 0.0021664
15970.0 0.0021572
15990.0 0.0021482
16010.0 0.002139
16030.0 0.0021297
16050.0 0.0021209
16070.0 0.0021119
16090.0 0.0021029
16110.0 0.002094
16130.0 0.0020853
16150.0 0.0020762
16170.0 0.0020673
16190.0 0.0020587
16210.0 0.00205
16230.0 0.0020411
16250.0 0.0020325
16270.0 0.002024
16290.0 0.0020153
16310.0 0.0020066
16330.0 0.0019982
16350.0 0.0019897
16370.0 0.0019809
16390.0 0.0019726
16410.0 0.0019643
16430.0 0.0019558
16450.0 0.0019474
16470.0 0.0019392
16490.0 0.0019308
16510.0 0.0019224
16530.0 0.0019142
16550.0 0.001906
16570.0 0.0018976
16590.0 0.0018893
16610.0 0.0018814
16630.0 0.0018732
16650.0 0.001865
16670.0 0.001857
16690.0 0.001849
16710.0 0.0018407
16730.0 0.0018326
16750.0 0.0018247
16770.0 0.0018167
16790.0 0.0018085
16810.0 0.0018007
16830.0 0.0017928
16850.0 0.0017847
16870.0 0.0017768
16890.0 0.0017691
16910.0 0.0017611
16930.0 0.001753
16950.0 0.0017453
16970.0 0.0017375
16990.0 0.0017295
17010.0 0.0017217
17030.0 0.0017141
17050.0 0.0017062
17070.0 0.0016983
17090.0 0.0016906
17110.0 0.0016829
17130.0 0.0016749
17150.0 0.0016672
17170.0 0.0016596
17190.0 0.0016519
17210.0 0.0016441
17230.0 0.0016366
17250.0 0.0016289
17270.0 0.001621
17290.0 0.0016134
17310.0 0.0016058
17330.0 0.0015981
17350.0 0.0015903
17370.0 0.0015829
17390.0 0.0015753
17410.0 0.0015675
17430.0 0.00156
17450.0 0.0015526
17470.0 0.0015448
17490.0 0.0015371
17510.0 0.0015297
17530.0 0.0015221
17550.0 0.0015144
17570.0 0.001507
17590.0 0.0014996
17610.0 0.0014919
17630.0 0.0014843
17650.0 0.001477
17670.0 0.0014694
17690.0 0.0014617
17710.0 0.0014543
17730.0 0.0014469
17750.0 0.0014393
17770.0 0.0014319
17790.0 0.0014246
17810.0 0.0014171
17830.0 0.0014095
17850.0 0.0014021
17870.0 0.0013948
17890.0 0.0013872
17910.0 0.0013797
17930.0 0.0013725
17950.0 0.0013651
17970.0 0.0013576
17990.0 0.0013504
18010.0 0.0013431
18030.0 0.0013355
18050.0 0.0013281
18070.0 0.0013209
18090.0 0.0013135
18110.0 0.0013061
18130.0 0.0012989
18150.0 0.0012917
18170.0 0.0012843
18190.0 0.001277
18210.0 0.0012699
18230.0 0.0012625
18250.0 0.0012551
18270.0 0.001248
18290.0 0.0012408
18310.0 0.0012335
18330.0 0.0012263
18350.0 0.0012193
18370.0 0.001212
18390.0 0.0012047
18410.0 0.0011977
18430.0 0.0011905
18450.0 0.0011832
18470.0 0.0011761
18490.0 0.0011691
18510.0 0.001162
18530.0 0.0011548
18550.0 0.0011479
18570.0 0.0011408
18590.0 0.0011336
18610.0 0.0011266
18630.0 0.0011197
18650.0 0.0011126
18670.0 0.0011055
18690.0 0.0010987
18710.0 0.0010917
18730.0 0.0010847
18750.0 0.0010778
18770.0 0.001071
18790.0 0.0010639
18810.0 0.0010569
18830.0 0.0010502
18850.0 0.0010433
18870.0 0.0010363
18890.0 0.0010296
18910.0 0.0010229
18930.0 0.001016
18950.0 0.0010092
18970.0 0.0010025
18990.0 0.00099575
19010.0 0.00098875
19030.0 0.00098218
19050.0 0.00097556
19070.0 0.00096876
19090.0 0.00096208
19110.0 0.00095563
19130.0 0.00094888
19150.0 0.00094213
19170.0 0.00093562
19190.0 0.00092909
19210.0 0.00092235
19230.0 0.00091575
19250.0 0.0009094
19270.0 0.00090284
19290.0 0.00089624
19310.0 0.00088988
19330.0 0.00088349
19350.0 0.0008768
19370.0 0.00087038
19390.0 0.00086409
19410.0 0.00085762
19430.0 0.00085111
19450.0 0.00084491
19470.0 0.00083862
19490.0 0.00083216
19510.0 0.00082587
19530.0 0.00081972
19550.0 0.00081331
19570.0 0.00080689
19590.0 0.0008008
19610.0 0.00079461
19630.0 0.00078828
19650.0 0.00078214
19670.0 0.00077613
19690.0 0.00076985
19710.0 0.00076364
19730.0 0.00075763
19750.0 0.00075155
19770.0 0.00074525
19790.0 0.00073924
19810.0 0.00073332
19830.0 0.00072717
19850.0 0.00072104
19870.0 0.00071504
19890.0 0.00070866
19910.0 0.00070176
19930.0 0.00069453
19950.0 0.00068649
19970.0 0.00067694
19990.0 0.00066589
20010.0 0.00065385
20030.0 0.0006399
20050.0 0.00062437
20070.0 0.00060844
20090.0 0.00059226
20110.0 0.00057514
20130.0 0.00055905
20150.0 0.00054425
20170.0 0.00053005
20190.0 0.00051679
20210.0 0.00050527
20230.0 0.00049492
20250.0 0.00048541
20270.0 0.00047737
20290.0 0.00047071
20310.0 0.00046503
20330.0 0.00046041
20350.0 0.00045721
20370.0 0.00045502
20390.0 0.00045389
20410.0 0.00045387
20430.0 0.00045487
20450.0 0.00045702
20470.0 0.0004603
20490.0 0.00046453
20510.0 0.00046981
20530.0 0.00047635
20550.0 0.00048373
20570.0 0.00049168
20590.0 0.00050072
20610.0 0.00051046
20630.0 0.00052032
20650.0 0.0005306
20670.0 0.00054155
20690.0 0.00055197
20710.0 0.00056199
20730.0 0.00057197
20750.0 0.00058146
20770.0 0.00058994
20790.0 0.00059799
20810.0 0.00060562
20830.0 0.00061243
20850.0 0.00061861
20870.0 0.00062465
20890.0 0.00063035
20910.0 0.00063555
20930.0 0.00064076
20950.0 0.00064604
20970.0 0.00065113
20990.0 0.0006561
21010.0 0.00066124
21030.0 0.00066614
21050.0 0.0006706
21070.0 0.00067477
21090.0 0.00067855
21110.0 0.00068151
21130.0 0.00068376
21150.0 0.00068532
21170.0 0.00068604
21190.0 0.00068594
21210.0 0.00068506
21230.0 0.00068336
21250.0 0.00068101
21270.0 0.00067805
21290.0 0.00067443
21310.0 0.00067035
21330.0 0.00066608
21350.0 0.00066137
21370.0 0.00065636
21390.0 0.00065138
21410.0 0.00064637
21430.0 0.00064107
21450.0 0.00063603
21470.0 0.00063128
21490.0 0.0006266
21510.0 0.00062212
21530.0 0.00061813
21550.0 0.00061446
21570.0 0.00061107
21590.0 0.00060822
21610.0 0.00060592
21630.0 0.0006041
21650.0 0.00060285
21670.0 0.00060229
21690.0 0.00060233
21710.0 0.00060308
21730.0 0.00060451
21750.0 0.00060656
21770.0 0.00060947
21790.0 0.00061313
21810.0 0.00061734
21830.0 0.00062228
21850.0 0.00062809
21870.0 0.00063439
21890.0 0.00064104
21910.0 0.0006485
21930.0 0.00065646
21950.0 0.00066453
21970.0 0.00067304
21990.0 0.00068223
22010.0 0.00069115
22030.0 0.00070001
22050.0 0.00070912
22070.0 0.0007181
22090.0 0.00072642
22110.0 0.00073461
22130.0 0.00074253
22150.0 0.00074962
22170.0 0.00075595
22190.0 0.00076176
22210.0 0.00076657
22230.0 0.00077017
22250.0 0.0007728
22270.0 0.00077429
22290.0 0.0007745
22310.0 0.00077351
22330.0 0.00077112
22350.0 0.00076738
22370.0 0.00076247
22390.0 0.00075617
22410.0 0.00074831
22430.0 0.00073962
22450.0 0.00072991
22470.0 0.00071879
22490.0 0.00070683
22510.0 0.0006945
22530.0 0.00068095
22550.0 0.00066652
22570.0 0.00065226
22590.0 0.0006377
22610.0 0.00062242
22630.0 0.00060726
22650.0 0.00059277
22670.0 0.00057787
22690.0 0.00056305
22710.0 0.00054907
22730.0 0.00053551
22750.0 0.0005217
22770.0 0.00050898
22790.0 0.00049724
22810.0 0.00048582
22830.0 0.00047505
22850.0 0.00046552
22870.0 0.00045669
22890.0 0.00044844
22910.0 0.00044138
22930.0 0.00043542
22950.0 0.00043029
22970.0 0.00042619
22990.0 0.00042342
23010.0 0.00042165
23030.0 0.00042097
23050.0 0.00042144
23070.0 0.0004229
23090.0 0.00042554
23110.0 0.0004292
23130.0 0.00043364
23150.0 0.00043894
23170.0 0.00044517
23190.0 0.00045181
23210.0 0.00045871
23230.0 0.0004662
23250.0 0.00047385
23270.0 0.00048125
23290.0 0.00048866
23310.0 0.00049612
23330.0 0.0005028
23350.0 0.00050892
23370.0 0.00051463
23390.0 0.00051959
23410.0 0.00052361
23430.0 0.00052694
23450.0 0.00052947
23470.0 0.00053105
23490.0 0.00053177
23510.0 0.00053164
23530.0 0.00053064
23550.0 0.00052892
23570.0 0.00052644
23590.0 0.00052322
23610.0 0.00051952
23630.0 0.00051539
23650.0 0.00051061
23670.0 0.00050564
23690.0 0.00050066
23710.0 0.00049554
23730.0 0.00049044
23750.0 0.00048592
23770.0 0.0004819
23790.0 0.00047845
23810.0 0.00047598
