#lamb flux
1010.0 1.4104e-07
1030.0 1.5343e-07
1050.0 1.6806e-07
1070.0 1.8452e-07
1090.0 2.0311e-07
1110.0 2.2221e-07
1130.0 2.4144e-07
1150.0 2.616e-07
1170.0 2.8238e-07
1190.0 3.0207e-07
1210.0 3.2199e-07
1230.0 3.4252e-07
1250.0 3.6259e-07
1270.0 3.8199e-07
1290.0 4.0241e-07
1310.0 4.2272e-07
1330.0 4.4209e-07
1350.0 4.616e-07
1370.0 4.8167e-07
1390.0 5.0117e-07
1410.0 5.2004e-07
1430.0 5.3978e-07
1450.0 5.5952e-07
1470.0 5.786e-07
1490.0 5.9794e-07
1510.0 6.1846e-07
1530.0 6.3796e-07
1550.0 6.5729e-07
1570.0 6.774e-07
1590.0 6.9764e-07
1610.0 7.1711e-07
1630.0 7.3734e-07
1650.0 7.5821e-07
1670.0 7.7853e-07
1690.0 7.9871e-07
1710.0 8.1975e-07
1730.0 8.4097e-07
1750.0 8.6103e-07
1770.0 8.8167e-07
1790.0 9.027e-07
1810.0 9.2303e-07
1830.0 9.4291e-07
1850.0 9.6384e-07
1870.0 9.8404e-07
1890.0 1.0033e-06
1910.0 1.0227e-06
1930.0 1.0421e-06
1950.0 1.0603e-06
1970.0 1.0778e-06
1990.0 1.0955e-06
2010.0 1.1125e-06
2030.0 1.1282e-06
2050.0 1.144e-06
2070.0 1.1597e-06
2090.0 1.1739e-06
2110.0 1.1875e-06
2130.0 1.2013e-06
2150.0 1.2142e-06
2170.0 1.2261e-06
2190.0 1.2382e-06
2210.0 1.2502e-06
2230.0 1.2612e-06
2250.0 1.272e-06
2270.0 1.2834e-06
2290.0 1.2941e-06
2310.0 1.304e-06
2330.0 1.3144e-06
2350.0 1.3249e-06
2370.0 1.3348e-06
2390.0 1.3449e-06
2410.0 1.3561e-06
2430.0 1.3671e-06
2450.0 1.3782e-06
2470.0 1.3905e-06
2490.0 1.4043e-06
2510.0 1.4189e-06
2530.0 1.4383e-06
2550.0 1.4679e-06
2570.0 1.5138e-06
2590.0 1.5839e-06
2610.0 1.6981e-06
2630.0 1.863e-06
2650.0 2.0718e-06
2670.0 2.3285e-06
2690.0 2.6243e-06
2710.0 2.9175e-06
2730.0 3.1832e-06
2750.0 3.4154e-06
2770.0 3.58e-06
2790.0 3.6678e-06
2810.0 3.6868e-06
2830.0 3.6386e-06
2850.0 3.5422e-06
2870.0 3.4139e-06
2890.0 3.2587e-06
2910.0 3.0907e-06
2930.0 2.9246e-06
2950.0 2.7501e-06
2970.0 2.5713e-06
2990.0 2.3995e-06
3010.0 3.2456e-06
3030.0 2.9921e-06
3050.0 2.7415e-06
3070.0 2.5111e-06
3090.0 2.2807e-06
3110.0 2.0606e-06
3130.0 1.8709e-06
3150.0 1.7429e-06
3170.0 1.6407e-06
3190.0 2.7082e-06
3210.0 7.6222e-06
3230.0 1.5582e-05
3250.0 1.9772e-05
3270.0 1.746e-05
3290.0 1.3402e-05
3310.0 1.1091e-05
3330.0 1.0392e-05
3350.0 1.067e-05
3370.0 1.1237e-05
3390.0 1.1839e-05
3410.0 1.2447e-05
3430.0 1.3016e-05
3450.0 1.3633e-05
3470.0 1.4304e-05
3490.0 1.4761e-05
3510.0 1.4291e-05
3530.0 1.4597e-05
3550.0 1.8308e-05
3570.0 2.299e-05
3590.0 2.5388e-05
3610.0 2.6182e-05
3630.0 2.683e-05
3650.0 2.6794e-05
3670.0 2.8402e-05
3690.0 3.3988e-05
3710.0 4.0274e-05
3730.0 4.4386e-05
3750.0 4.7306e-05
3770.0 4.7885e-05
3790.0 4.6032e-05
3810.0 4.2551e-05
3830.0 3.7202e-05
3850.0 3.1538e-05
3870.0 2.8615e-05
3890.0 3.2009e-05
3910.0 4.0489e-05
3930.0 4.897e-05
3950.0 5.401e-05
3970.0 5.6142e-05
3990.0 5.8484e-05
4010.0 5.9837e-05
4030.0 5.3986e-05
4050.0 4.2605e-05
4070.0 3.6766e-05
4090.0 3.8754e-05
4110.0 4.2665e-05
4130.0 4.486e-05
4150.0 4.5101e-05
4170.0 4.4072e-05
4190.0 4.3323e-05
4210.0 4.4421e-05
4230.0 4.7011e-05
4250.0 4.9118e-05
4270.0 4.9901e-05
4290.0 4.9213e-05
4310.0 4.9531e-05
4330.0 5.2538e-05
4350.0 5.6094e-05
4370.0 5.5834e-05
4390.0 5.1784e-05
4410.0 4.5706e-05
4430.0 3.8264e-05
4450.0 3.301e-05
4470.0 3.2839e-05
4490.0 3.587e-05
4510.0 3.9747e-05
4530.0 4.3939e-05
4550.0 5.0502e-05
4570.0 6.311e-05
4590.0 8.1087e-05
4610.0 9.5779e-05
4630.0 0.00010319
4650.0 0.00010928
4670.0 0.0001152
4690.0 0.00011267
4710.0 9.826e-05
4730.0 7.9199e-05
4750.0 6.384e-05
4770.0 5.4574e-05
4790.0 5.116e-05
4810.0 5.1148e-05
4830.0 5.4726e-05
4850.0 6.1876e-05
4870.0 6.8278e-05
4890.0 7.0366e-05
4910.0 7.202e-05
4930.0 7.878e-05
4950.0 8.79e-05
4970.0 9.2605e-05
4990.0 9.0044e-05
5010.0 8.065e-05
5030.0 6.7544e-05
5050.0 5.6453e-05
5070.0 4.9669e-05
5090.0 4.6887e-05
5110.0 4.6887e-05
5130.0 4.7339e-05
5150.0 4.6918e-05
5170.0 4.5883e-05
5190.0 4.6389e-05
5210.0 4.9874e-05
5230.0 5.6225e-05
5250.0 6.5743e-05
5270.0 7.5709e-05
5290.0 8.2567e-05
5310.0 8.8111e-05
5330.0 9.511e-05
5350.0 0.00010037
5370.0 9.9433e-05
5390.0 9.4281e-05
5410.0 9.053e-05
5430.0 9.3605e-05
5450.0 0.00010492
5470.0 0.00011889
5490.0 0.00012869
5510.0 0.0001319
5530.0 0.00013043
5550.0 0.00012641
5570.0 0.00012145
5590.0 0.0001168
5610.0 0.00011345
5630.0 0.00011208
5650.0 0.00010993
5670.0 0.00010325
5690.0 9.3573e-05
5710.0 8.4884e-05
5730.0 7.868e-05
5750.0 7.6553e-05
5770.0 7.8281e-05
5790.0 8.0334e-05
5810.0 8.1028e-05
5830.0 8.1013e-05
5850.0 7.9464e-05
5870.0 7.6968e-05
5890.0 7.6343e-05
5910.0 7.7367e-05
5930.0 7.6206e-05
5950.0 7.107e-05
5970.0 6.284e-05
5990.0 5.3505e-05
6010.0 4.6646e-05
6030.0 4.4676e-05
6050.0 4.7108e-05
6070.0 4.9375e-05
6090.0 4.7718e-05
6110.0 4.502e-05
6130.0 4.5935e-05
6150.0 4.9813e-05
6170.0 5.3373e-05
6190.0 5.541e-05
6210.0 5.6042e-05
6230.0 5.4513e-05
6250.0 4.967e-05
6270.0 4.275e-05
6290.0 3.7059e-05
6310.0 3.5043e-05
6330.0 3.6108e-05
6350.0 3.7961e-05
6370.0 4.0345e-05
6390.0 4.5446e-05
6410.0 5.3112e-05
6430.0 5.949e-05
6450.0 6.2669e-05
6470.0 6.4429e-05
6490.0 6.5718e-05
6510.0 6.625e-05
6530.0 6.6605e-05
6550.0 6.7501e-05
6570.0 6.8625e-05
6590.0 6.9389e-05
6610.0 6.856e-05
6630.0 6.5486e-05
6650.0 6.0832e-05
6670.0 5.6398e-05
6690.0 5.354e-05
6710.0 5.1378e-05
6730.0 4.9089e-05
6750.0 4.7992e-05
6770.0 4.9093e-05
6790.0 5.067e-05
6810.0 5.1157e-05
6830.0 5.0345e-05
6850.0 4.8375e-05
6870.0 4.6368e-05
6890.0 4.5241e-05
6910.0 4.5365e-05
6930.0 4.6134e-05
6950.0 4.6744e-05
6970.0 4.7277e-05
6990.0 4.7128e-05
7010.0 4.5634e-05
7030.0 4.2536e-05
7050.0 3.8501e-05
7070.0 3.5676e-05
7090.0 3.5303e-05
7110.0 3.588e-05
7130.0 3.465e-05
7150.0 3.2179e-05
7170.0 3.1863e-05
7190.0 3.4709e-05
7210.0 3.8697e-05
7230.0 4.1931e-05
7250.0 4.3252e-05
7270.0 4.2314e-05
7290.0 4.0136e-05
7310.0 3.8471e-05
7330.0 3.8532e-05
7350.0 3.9461e-05
7370.0 4.0214e-05
7390.0 4.1944e-05
7410.0 4.5409e-05
7430.0 4.9377e-05
7450.0 5.2457e-05
7470.0 5.3351e-05
7490.0 5.0796e-05
7510.0 4.7167e-05
7530.0 4.5157e-05
7550.0 4.2838e-05
7570.0 4.0391e-05
7590.0 3.9177e-05
7610.0 3.921e-05
7630.0 4.0568e-05
7650.0 4.3377e-05
7670.0 4.6967e-05
7690.0 5.0228e-05
7710.0 5.2574e-05
7730.0 5.4544e-05
7750.0 5.6162e-05
7770.0 5.6889e-05
7790.0 5.7715e-05
7810.0 5.7765e-05
7830.0 5.5955e-05
7850.0 5.395e-05
7870.0 5.281e-05
7890.0 5.2785e-05
7910.0 5.2844e-05
7930.0 5.1624e-05
7950.0 4.9905e-05
7970.0 4.8108e-05
7990.0 4.6558e-05
8010.0 4.4365e-05
8030.0 4.4437e-05
8050.0 4.4359e-05
8070.0 4.3764e-05
8090.0 4.3334e-05
8110.0 4.266e-05
8130.0 4.2688e-05
8150.0 4.2365e-05
8170.0 4.1615e-05
8190.0 4.0444e-05
8210.0 3.9111e-05
8230.0 3.7853e-05
8250.0 3.7406e-05
8270.0 3.5243e-05
8290.0 3.0599e-05
8310.0 2.5417e-05
8330.0 2.1888e-05
8350.0 2.0999e-05
8370.0 2.3264e-05
8390.0 2.6565e-05
8410.0 2.8349e-05
8430.0 2.9417e-05
8450.0 3.1431e-05
8470.0 3.3922e-05
8490.0 3.7311e-05
8510.0 4.1245e-05
8530.0 4.5346e-05
8550.0 4.8604e-05
8570.0 5.1014e-05
8590.0 5.2816e-05
8610.0 5.3842e-05
8630.0 5.367e-05
8650.0 5.2756e-05
8670.0 5.283e-05
8690.0 5.5533e-05
8710.0 5.9201e-05
8730.0 6.0957e-05
8750.0 6.052e-05
8770.0 6.1139e-05
8790.0 6.1158e-05
8810.0 5.8479e-05
8830.0 5.4269e-05
8850.0 4.8988e-05
8870.0 4.497e-05
8890.0 4.3739e-05
8910.0 4.2987e-05
8930.0 4.0252e-05
8950.0 3.7262e-05
8970.0 3.6041e-05
8990.0 3.6152e-05
9010.0 3.5519e-05
9030.0 3.4888e-05
9050.0 3.4564e-05
9070.0 3.4392e-05
9090.0 3.4242e-05
9110.0 3.4095e-05
9130.0 3.395e-05
9150.0 3.3807e-05
9170.0 3.366e-05
9190.0 3.3539e-05
9210.0 3.3466e-05
9230.0 3.3299e-05
9250.0 3.3147e-05
9270.0 3.3004e-05
9290.0 3.2869e-05
9310.0 3.2737e-05
9330.0 3.2608e-05
9350.0 3.2485e-05
9370.0 3.2363e-05
9390.0 3.224e-05
9410.0 3.2121e-05
9430.0 3.1997e-05
9450.0 3.183e-05
9470.0 3.168e-05
9490.0 3.1613e-05
9510.0 3.1522e-05
9530.0 3.1428e-05
9550.0 3.1327e-05
9570.0 3.1224e-05
9590.0 3.1121e-05
9610.0 3.1018e-05
9630.0 3.0914e-05
9650.0 3.0811e-05
9670.0 3.0712e-05
9690.0 3.0611e-05
9710.0 3.051e-05
9730.0 3.0413e-05
9750.0 3.0315e-05
9770.0 3.0215e-05
9790.0 3.0118e-05
9810.0 3.0023e-05
9830.0 2.9926e-05
9850.0 2.9828e-05
9870.0 2.9734e-05
9890.0 2.9639e-05
9910.0 2.9542e-05
9930.0 2.9445e-05
9950.0 2.9242e-05
9970.0 2.9176e-05
9990.0 2.9103e-05
10010.0 2.903e-05
10030.0 2.8947e-05
10050.0 2.8854e-05
10070.0 2.8761e-05
10090.0 2.8669e-05
10110.0 2.856e-05
10130.0 2.8427e-05
10150.0 2.8332e-05
10170.0 2.824e-05
10190.0 2.8135e-05
10210.0 2.8036e-05
10230.0 2.7937e-05
10250.0 2.7825e-05
10270.0 2.7713e-05
10290.0 2.7607e-05
10310.0 2.7491e-05
10330.0 2.7366e-05
10350.0 2.725e-05
10370.0 2.7133e-05
10390.0 2.7004e-05
10410.0 2.6876e-05
10430.0 2.6756e-05
10450.0 2.6625e-05
10470.0 2.6487e-05
10490.0 2.6354e-05
10510.0 2.6221e-05
10530.0 2.607e-05
10550.0 2.5923e-05
10570.0 2.5783e-05
10590.0 2.5632e-05
10610.0 2.5474e-05
10630.0 2.5323e-05
10650.0 2.5168e-05
10670.0 2.4998e-05
10690.0 2.4831e-05
10710.0 2.4668e-05
10730.0 2.4493e-05
10750.0 2.4306e-05
10770.0 2.4134e-05
10790.0 2.3954e-05
10810.0 2.3763e-05
10830.0 2.3573e-05
10850.0 2.3388e-05
10870.0 2.3184e-05
10890.0 2.2976e-05
10910.0 2.2775e-05
10930.0 2.2567e-05
10950.0 2.2345e-05
10970.0 2.2125e-05
10990.0 2.1911e-05
11010.0 2.3469e-05
11030.0 2.3231e-05
11050.0 2.3002e-05
11070.0 2.2769e-05
11090.0 2.2519e-05
11110.0 2.2287e-05
11130.0 2.206e-05
11150.0 2.1824e-05
11170.0 2.159e-05
11190.0 2.1369e-05
11210.0 2.1144e-05
11230.0 2.0914e-05
11250.0 2.0695e-05
11270.0 2.0484e-05
11290.0 2.0266e-05
11310.0 2.0053e-05
11330.0 1.9856e-05
11350.0 1.9657e-05
11370.0 1.9454e-05
11390.0 1.9259e-05
11410.0 1.9064e-05
11430.0 1.8854e-05
11450.0 1.864e-05
11470.0 1.8424e-05
11490.0 1.8192e-05
11510.0 1.7939e-05
11530.0 1.7683e-05
11550.0 1.7416e-05
11570.0 1.7125e-05
11590.0 1.6823e-05
11610.0 1.652e-05
11630.0 1.6197e-05
11650.0 1.5859e-05
11670.0 1.553e-05
11690.0 1.5199e-05
11710.0 1.4856e-05
11730.0 1.4517e-05
11750.0 1.4192e-05
11770.0 1.3858e-05
11790.0 1.3523e-05
11810.0 1.3202e-05
11830.0 1.2884e-05
11850.0 1.2556e-05
11870.0 1.224e-05
11890.0 1.1938e-05
11910.0 1.1633e-05
11930.0 1.1331e-05
11950.0 1.1047e-05
11970.0 1.0768e-05
11990.0 1.0488e-05
12010.0 1.0224e-05
12030.0 9.9775e-06
12050.0 9.7364e-06
12070.0 9.5053e-06
12090.0 9.3005e-06
12110.0 9.108e-06
12130.0 8.9281e-06
12150.0 8.769e-06
12170.0 8.6309e-06
12190.0 8.5063e-06
12210.0 8.4033e-06
12230.0 8.3228e-06
12250.0 8.2615e-06
12270.0 8.2205e-06
12290.0 8.1995e-06
12310.0 8.1955e-06
12330.0 8.2103e-06
12350.0 8.2411e-06
12370.0 8.2826e-06
12390.0 8.3362e-06
12410.0 8.4049e-06
12430.0 8.4745e-06
12450.0 8.5469e-06
12470.0 8.6258e-06
12490.0 8.7048e-06
12510.0 8.7765e-06
12530.0 8.8484e-06
12550.0 8.9178e-06
12570.0 8.9762e-06
12590.0 9.0247e-06
12610.0 9.0667e-06
12630.0 9.0956e-06
12650.0 9.1067e-06
12670.0 9.1053e-06
12690.0 9.0884e-06
12710.0 9.0538e-06
12730.0 9.003e-06
12750.0 8.9351e-06
12770.0 8.8505e-06
12790.0 8.7523e-06
12810.0 8.6397e-06
12830.0 8.5129e-06
12850.0 8.3799e-06
12870.0 8.2404e-06
12890.0 8.092e-06
12910.0 7.9419e-06
12930.0 7.7941e-06
12950.0 7.6428e-06
12970.0 7.4915e-06
12990.0 7.3484e-06
13010.0 7.2087e-06
13030.0 7.0703e-06
13050.0 6.9379e-06
13070.0 6.8133e-06
13090.0 6.6897e-06
13110.0 6.5697e-06
13130.0 6.4567e-06
13150.0 6.3475e-06
13170.0 6.2387e-06
13190.0 6.1363e-06
13210.0 6.0396e-06
13230.0 5.9446e-06
13250.0 5.8528e-06
13270.0 5.7671e-06
13290.0 5.684e-06
13310.0 5.6026e-06
13330.0 5.5262e-06
13350.0 5.454e-06
13370.0 5.3838e-06
13390.0 5.3163e-06
13410.0 5.2543e-06
13430.0 5.1946e-06
13450.0 5.1368e-06
13470.0 5.0824e-06
13490.0 5.031e-06
13510.0 4.9799e-06
13530.0 4.9308e-06
13550.0 4.884e-06
13570.0 4.8376e-06
13590.0 4.791e-06
13610.0 4.7456e-06
13630.0 4.7009e-06
13650.0 4.6551e-06
13670.0 4.6093e-06
13690.0 4.5645e-06
13710.0 4.5194e-06
13730.0 4.4729e-06
13750.0 4.4287e-06
13770.0 4.3852e-06
13790.0 4.3416e-06
13810.0 4.2992e-06
13830.0 4.2591e-06
13850.0 4.2193e-06
13870.0 4.1804e-06
13890.0 4.1437e-06
13910.0 4.1086e-06
13930.0 4.0737e-06
13950.0 4.04e-06
13970.0 4.0085e-06
13990.0 3.9769e-06
14010.0 3.9453e-06
14030.0 3.9146e-06
14050.0 3.8839e-06
14070.0 3.8515e-06
14090.0 3.8192e-06
14110.0 3.787e-06
14130.0 3.7536e-06
14150.0 3.719e-06
14170.0 3.6856e-06
14190.0 3.6522e-06
14210.0 3.6183e-06
14230.0 3.5857e-06
14250.0 3.5553e-06
14270.0 3.5254e-06
14290.0 3.4974e-06
14310.0 3.4731e-06
14330.0 3.4513e-06
14350.0 3.4316e-06
14370.0 3.4152e-06
14390.0 3.4019e-06
14410.0 3.3904e-06
14430.0 3.3811e-06
14450.0 3.374e-06
14470.0 3.3683e-06
14490.0 3.3635e-06
14510.0 3.3597e-06
14530.0 3.3566e-06
14550.0 3.3539e-06
14570.0 3.3518e-06
14590.0 3.3506e-06
14610.0 3.3503e-06
14630.0 3.3516e-06
14650.0 3.3551e-06
14670.0 3.3613e-06
14690.0 3.3713e-06
14710.0 3.386e-06
14730.0 3.4053e-06
14750.0 3.4308e-06
14770.0 3.4638e-06
14790.0 3.5038e-06
14810.0 3.5508e-06
14830.0 3.6094e-06
14850.0 3.6768e-06
14870.0 3.7507e-06
14890.0 3.8334e-06
14910.0 3.9247e-06
14930.0 4.0166e-06
14950.0 4.1067e-06
14970.0 4.196e-06
14990.0 4.2764e-06
15010.0 4.344e-06
15030.0 4.4009e-06
15050.0 4.4472e-06
15070.0 4.4815e-06
15090.0 4.5087e-06
15110.0 4.5311e-06
15130.0 4.5503e-06
15150.0 4.5679e-06
15170.0 4.585e-06
15190.0 4.6019e-06
15210.0 4.619e-06
15230.0 4.6365e-06
15250.0 4.6542e-06
15270.0 4.6723e-06
15290.0 4.6907e-06
15310.0 4.7095e-06
15330.0 4.7287e-06
15350.0 4.7482e-06
15370.0 4.768e-06
15390.0 4.7881e-06
15410.0 4.8086e-06
15430.0 4.8294e-06
15450.0 4.8505e-06
15470.0 4.8719e-06
15490.0 4.8936e-06
15510.0 4.9156e-06
15530.0 4.9379e-06
15550.0 4.9605e-06
15570.0 4.9834e-06
15590.0 5.0066e-06
15610.0 5.03e-06
15630.0 5.0537e-06
15650.0 5.0777e-06
15670.0 5.1019e-06
15690.0 5.1263e-06
15710.0 5.151e-06
15730.0 5.1759e-06
15750.0 5.2011e-06
15770.0 5.2264e-06
15790.0 5.252e-06
15810.0 5.2778e-06
15830.0 5.3037e-06
15850.0 5.3299e-06
15870.0 5.3563e-06
15890.0 5.3828e-06
15910.0 5.4095e-06
15930.0 5.4363e-06
15950.0 5.4633e-06
15970.0 5.4904e-06
15990.0 5.5176e-06
16010.0 5.545e-06
16030.0 5.5725e-06
16050.0 5.6001e-06
16070.0 5.6278e-06
16090.0 5.6555e-06
16110.0 5.6834e-06
16130.0 5.7113e-06
16150.0 5.7392e-06
16170.0 5.7672e-06
16190.0 5.7953e-06
16210.0 5.8234e-06
16230.0 5.8515e-06
16250.0 5.8796e-06
16270.0 5.9077e-06
16290.0 5.9358e-06
16310.0 5.9638e-06
16330.0 5.9919e-06
16350.0 6.0199e-06
16370.0 6.0478e-06
16390.0 6.0757e-06
16410.0 6.1035e-06
16430.0 6.1312e-06
16450.0 6.1588e-06
16470.0 6.1863e-06
16490.0 6.2137e-06
16510.0 6.2409e-06
16530.0 6.268e-06
16550.0 6.295e-06
16570.0 6.3218e-06
16590.0 6.3484e-06
16610.0 6.3748e-06
16630.0 6.4011e-06
16650.0 6.4271e-06
16670.0 6.4529e-06
16690.0 6.4785e-06
16710.0 6.5038e-06
16730.0 6.5289e-06
16750.0 6.5537e-06
16770.0 6.5783e-06
16790.0 6.6025e-06
16810.0 6.6265e-06
16830.0 6.6502e-06
16850.0 6.6736e-06
16870.0 6.6966e-06
16890.0 6.7193e-06
16910.0 6.7416e-06
16930.0 6.7636e-06
16950.0 6.7852e-06
16970.0 6.8065e-06
16990.0 6.8273e-06
17010.0 6.8478e-06
17030.0 6.8679e-06
17050.0 6.8875e-06
17070.0 6.9067e-06
17090.0 6.9255e-06
17110.0 6.9438e-06
17130.0 6.9617e-06
17150.0 6.9791e-06
17170.0 6.9961e-06
17190.0 7.0126e-06
17210.0 7.0286e-06
17230.0 7.0441e-06
17250.0 7.0591e-06
17270.0 7.0736e-06
17290.0 7.0876e-06
17310.0 7.1011e-06
17330.0 7.114e-06
17350.0 7.1264e-06
17370.0 7.1383e-06
17390.0 7.1496e-06
17410.0 7.1604e-06
17430.0 7.1706e-06
17450.0 7.1803e-06
17470.0 7.1894e-06
17490.0 7.1979e-06
17510.0 7.2059e-06
17530.0 7.2132e-06
17550.0 7.22e-06
17570.0 7.2262e-06
17590.0 7.2318e-06
17610.0 7.2368e-06
17630.0 7.2413e-06
17650.0 7.2451e-06
17670.0 7.2483e-06
17690.0 7.2509e-06
17710.0 7.253e-06
17730.0 7.2544e-06
17750.0 7.2552e-06
17770.0 7.2554e-06
17790.0 7.2551e-06
17810.0 7.2541e-06
17830.0 7.2524e-06
17850.0 7.2502e-06
17870.0 7.2474e-06
17890.0 7.244e-06
17910.0 7.2399e-06
17930.0 7.2354e-06
17950.0 7.2301e-06
17970.0 7.2243e-06
17990.0 7.2179e-06
18010.0 7.2109e-06
18030.0 7.2033e-06
18050.0 7.1951e-06
18070.0 7.1863e-06
18090.0 7.177e-06
18110.0 7.167e-06
18130.0 7.1566e-06
18150.0 7.1455e-06
18170.0 7.1339e-06
18190.0 7.1217e-06
18210.0 7.109e-06
18230.0 7.0957e-06
18250.0 7.0818e-06
18270.0 7.0675e-06
18290.0 7.0526e-06
18310.0 7.0371e-06
18330.0 7.0212e-06
18350.0 7.0048e-06
18370.0 6.9878e-06
18390.0 6.9703e-06
18410.0 6.9524e-06
18430.0 6.934e-06
18450.0 6.915e-06
18470.0 6.8956e-06
18490.0 6.8758e-06
18510.0 6.8555e-06
18530.0 6.8347e-06
18550.0 6.8135e-06
18570.0 6.7919e-06
18590.0 6.7698e-06
18610.0 6.7474e-06
18630.0 6.7245e-06
18650.0 6.7012e-06
18670.0 6.6775e-06
18690.0 6.6535e-06
18710.0 6.629e-06
18730.0 6.6042e-06
18750.0 6.5791e-06
18770.0 6.5536e-06
18790.0 6.5277e-06
18810.0 6.5015e-06
18830.0 6.475e-06
18850.0 6.4482e-06
18870.0 6.4211e-06
18890.0 6.3937e-06
18910.0 6.366e-06
18930.0 6.338e-06
18950.0 6.3097e-06
18970.0 6.2812e-06
18990.0 6.2524e-06
19010.0 6.2234e-06
19030.0 6.1942e-06
19050.0 6.1647e-06
19070.0 6.135e-06
19090.0 6.1051e-06
19110.0 6.075e-06
19130.0 6.0447e-06
19150.0 6.0142e-06
19170.0 5.9836e-06
19190.0 5.9528e-06
19210.0 5.9218e-06
19230.0 5.8907e-06
19250.0 5.8595e-06
19270.0 5.8281e-06
19290.0 5.7966e-06
19310.0 5.765e-06
19330.0 5.7333e-06
19350.0 5.7014e-06
19370.0 5.6695e-06
19390.0 5.6375e-06
19410.0 5.6054e-06
19430.0 5.5732e-06
19450.0 5.541e-06
19470.0 5.5088e-06
19490.0 5.4765e-06
19510.0 5.4441e-06
19530.0 5.4118e-06
19550.0 5.3793e-06
19570.0 5.3469e-06
19590.0 5.3145e-06
19610.0 5.282e-06
19630.0 5.2496e-06
19650.0 5.2172e-06
19670.0 5.1848e-06
19690.0 5.1524e-06
19710.0 5.12e-06
19730.0 5.0877e-06
19750.0 5.0554e-06
19770.0 5.0231e-06
19790.0 4.9909e-06
19810.0 4.9587e-06
19830.0 4.9265e-06
19850.0 4.8941e-06
19870.0 4.8614e-06
19890.0 4.8277e-06
19910.0 4.7923e-06
19930.0 4.7543e-06
19950.0 4.7122e-06
19970.0 4.6638e-06
19990.0 4.6079e-06
20010.0 4.5456e-06
20030.0 4.4742e-06
20050.0 4.3943e-06
20070.0 4.3099e-06
20090.0 4.2219e-06
20110.0 4.1273e-06
20130.0 4.0337e-06
20150.0 3.9426e-06
20170.0 3.851e-06
20190.0 3.7603e-06
20210.0 3.6746e-06
20230.0 3.5917e-06
20250.0 3.5094e-06
20270.0 3.4319e-06
20290.0 3.3592e-06
20310.0 3.2887e-06
20330.0 3.2208e-06
20350.0 3.1598e-06
20370.0 3.102e-06
20390.0 3.0471e-06
20410.0 2.9967e-06
20430.0 2.9508e-06
20450.0 2.9071e-06
20470.0 2.8671e-06
20490.0 2.831e-06
20510.0 2.7977e-06
20530.0 2.7667e-06
20550.0 2.7387e-06
20570.0 2.713e-06
20590.0 2.6891e-06
20610.0 2.6668e-06
20630.0 2.6461e-06
20650.0 2.6264e-06
20670.0 2.6075e-06
20690.0 2.5892e-06
20710.0 2.5712e-06
20730.0 2.5534e-06
20750.0 2.5353e-06
20770.0 2.5169e-06
20790.0 2.4981e-06
20810.0 2.4785e-06
20830.0 2.4582e-06
20850.0 2.4372e-06
20870.0 2.415e-06
20890.0 2.3919e-06
20910.0 2.3682e-06
20930.0 2.3436e-06
20950.0 2.3179e-06
20970.0 2.2918e-06
20990.0 2.2654e-06
21010.0 2.2379e-06
21030.0 2.2102e-06
21050.0 2.1827e-06
21070.0 2.1548e-06
21090.0 2.1264e-06
21110.0 2.0988e-06
21130.0 2.0715e-06
21150.0 2.044e-06
21170.0 2.017e-06
21190.0 1.991e-06
21210.0 1.9649e-06
21230.0 1.9391e-06
21250.0 1.9145e-06
21270.0 1.8905e-06
21290.0 1.8668e-06
21310.0 1.8439e-06
21330.0 1.8222e-06
21350.0 1.8009e-06
21370.0 1.7802e-06
21390.0 1.7606e-06
21410.0 1.7419e-06
21430.0 1.7235e-06
21450.0 1.7063e-06
21470.0 1.6901e-06
21490.0 1.6744e-06
21510.0 1.6596e-06
21530.0 1.6456e-06
21550.0 1.6323e-06
21570.0 1.6196e-06
21590.0 1.6076e-06
21610.0 1.5962e-06
21630.0 1.5852e-06
21650.0 1.5747e-06
21670.0 1.5647e-06
21690.0 1.5549e-06
21710.0 1.5454e-06
21730.0 1.5362e-06
21750.0 1.5272e-06
21770.0 1.5184e-06
21790.0 1.5098e-06
21810.0 1.5013e-06
21830.0 1.493e-06
21850.0 1.4847e-06
21870.0 1.4766e-06
21890.0 1.4686e-06
21910.0 1.4606e-06
21930.0 1.4527e-06
21950.0 1.4449e-06
21970.0 1.437e-06
21990.0 1.4292e-06
22010.0 1.4213e-06
22030.0 1.4134e-06
22050.0 1.4053e-06
22070.0 1.3972e-06
22090.0 1.3889e-06
22110.0 1.3804e-06
22130.0 1.3717e-06
22150.0 1.3629e-06
22170.0 1.3539e-06
22190.0 1.3446e-06
22210.0 1.3351e-06
22230.0 1.3256e-06
22250.0 1.3157e-06
22270.0 1.3056e-06
22290.0 1.2953e-06
22310.0 1.2848e-06
22330.0 1.2739e-06
22350.0 1.2627e-06
22370.0 1.2513e-06
22390.0 1.2395e-06
22410.0 1.227e-06
22430.0 1.2144e-06
22450.0 1.2014e-06
22470.0 1.1877e-06
22490.0 1.1736e-06
22510.0 1.1593e-06
22530.0 1.1441e-06
22550.0 1.1283e-06
22570.0 1.1126e-06
22590.0 1.0965e-06
22610.0 1.0798e-06
22630.0 1.063e-06
