#lamb flux
1010.0 3.3807e-08
1030.0 3.7391e-08
1050.0 4.1513e-08
1070.0 4.6153e-08
1090.0 5.1424e-08
1110.0 5.683e-08
1130.0 6.2271e-08
1150.0 6.797e-08
1170.0 7.3849e-08
1190.0 7.9424e-08
1210.0 8.5074e-08
1230.0 9.0912e-08
1250.0 9.6632e-08
1270.0 1.0219e-07
1290.0 1.0806e-07
1310.0 1.1392e-07
1330.0 1.1955e-07
1350.0 1.2524e-07
1370.0 1.3111e-07
1390.0 1.3684e-07
1410.0 1.4239e-07
1430.0 1.482e-07
1450.0 1.5401e-07
1470.0 1.5962e-07
1490.0 1.653e-07
1510.0 1.7129e-07
1530.0 1.7697e-07
1550.0 1.8258e-07
1570.0 1.8838e-07
1590.0 1.9419e-07
1610.0 1.9974e-07
1630.0 2.0546e-07
1650.0 2.1134e-07
1670.0 2.1703e-07
1690.0 2.2264e-07
1710.0 2.2848e-07
1730.0 2.3436e-07
1750.0 2.3989e-07
1770.0 2.4559e-07
1790.0 2.5141e-07
1810.0 2.5705e-07
1830.0 2.6261e-07
1850.0 2.6851e-07
1870.0 2.7426e-07
1890.0 2.7984e-07
1910.0 2.8553e-07
1930.0 2.9138e-07
1950.0 2.9697e-07
1970.0 3.0251e-07
1990.0 3.0827e-07
2010.0 3.1394e-07
2030.0 3.1943e-07
2050.0 3.251e-07
2070.0 3.3092e-07
2090.0 3.3643e-07
2110.0 3.4193e-07
2130.0 3.476e-07
2150.0 3.5319e-07
2170.0 3.5854e-07
2190.0 3.641e-07
2210.0 3.6971e-07
2230.0 3.751e-07
2250.0 3.8047e-07
2270.0 3.8609e-07
2290.0 3.9154e-07
2310.0 3.9679e-07
2330.0 4.0224e-07
2350.0 4.0784e-07
2370.0 4.1342e-07
2390.0 4.1946e-07
2410.0 4.2662e-07
2430.0 4.3485e-07
2450.0 4.4469e-07
2470.0 4.573e-07
2490.0 4.7319e-07
2510.0 4.9126e-07
2530.0 5.13e-07
2550.0 5.4022e-07
2570.0 5.7408e-07
2590.0 6.1812e-07
2610.0 6.8407e-07
2630.0 7.7822e-07
2650.0 9.0132e-07
2670.0 1.0605e-06
2690.0 1.2561e-06
2710.0 1.4649e-06
2730.0 1.6712e-06
2750.0 1.8744e-06
2770.0 2.0511e-06
2790.0 2.1915e-06
2810.0 2.3029e-06
2830.0 2.3899e-06
2850.0 2.4493e-06
2870.0 2.4929e-06
2890.0 2.5274e-06
2910.0 2.555e-06
2930.0 2.5775e-06
2950.0 2.599e-06
2970.0 2.62e-06
2990.0 2.6397e-06
3010.0 7.4612e-05
3030.0 7.517e-05
3050.0 7.5709e-05
3070.0 7.617e-05
3090.0 7.6567e-05
3110.0 7.6814e-05
3130.0 7.6804e-05
3150.0 7.6463e-05
3170.0 7.5644e-05
3190.0 7.4358e-05
3210.0 7.2727e-05
3230.0 7.086e-05
3250.0 6.9017e-05
3270.0 6.7671e-05
3290.0 6.6923e-05
3310.0 6.7044e-05
3330.0 6.8014e-05
3350.0 6.9704e-05
3370.0 7.2117e-05
3390.0 7.5157e-05
3410.0 7.8466e-05
3430.0 8.2181e-05
3450.0 8.6457e-05
3470.0 9.1128e-05
3490.0 9.6077e-05
3510.0 0.00010167
3530.0 0.00010766
3550.0 0.00011373
3570.0 0.00012005
3590.0 0.00012694
3610.0 0.00013403
3630.0 0.00014109
3650.0 0.00014843
3670.0 0.00015512
3690.0 0.00016013
3710.0 0.000163
3730.0 0.00016309
3750.0 0.00016082
3770.0 0.00015993
3790.0 0.00015898
3810.0 0.00015507
3830.0 0.00015987
3850.0 0.00017875
3870.0 0.00018912
3890.0 0.00018826
3910.0 0.00018906
3930.0 0.00019404
3950.0 0.0001971
3970.0 0.00017958
3990.0 0.00015452
4010.0 0.00046311
4030.0 0.00056112
4050.0 0.00064329
4070.0 0.00055816
4090.0 0.00050553
4110.0 0.00044608
4130.0 0.00041057
4150.0 0.00043672
4170.0 0.00043019
4190.0 0.00045855
4210.0 0.00045436
4230.0 0.00048059
4250.0 0.00056855
4270.0 0.00057523
4290.0 0.00053007
4310.0 0.00055078
4330.0 0.00058587
4350.0 0.0006569
4370.0 0.00074756
4390.0 0.00070151
4410.0 0.00051829
4430.0 0.00043877
4450.0 0.00040318
4470.0 0.00030945
4490.0 0.00033394
4510.0 0.00050442
4530.0 0.00058175
4550.0 0.00058679
4570.0 0.00066029
4590.0 0.00075214
4610.0 0.0010145
4630.0 0.0013176
4650.0 0.0014289
4670.0 0.0013233
4690.0 0.0012626
4710.0 0.0013347
4730.0 0.0012596
4750.0 0.0009417
4770.0 0.00069077
4790.0 0.00064505
4810.0 0.00061483
4830.0 0.00056287
4850.0 0.00061765
4870.0 0.00081598
4890.0 0.00096228
4910.0 0.00084428
4930.0 0.00074706
4950.0 0.00082076
4970.0 0.0010526
4990.0 0.0014265
5010.0 0.001641
5030.0 0.001447
5050.0 0.00097897
5070.0 0.00064518
5090.0 0.00052024
5110.0 0.00053502
5130.0 0.0006175
5150.0 0.00066901
5170.0 0.00065897
5190.0 0.00061577
5210.0 0.00064361
5230.0 0.00067658
5250.0 0.00072917
5270.0 0.00078671
5290.0 0.00087184
5310.0 0.0010148
5330.0 0.001123
5350.0 0.0011158
5370.0 0.0011721
5390.0 0.001345
5410.0 0.0013438
5430.0 0.0011884
5450.0 0.0010918
5470.0 0.0011593
5490.0 0.0014164
5510.0 0.0017709
5530.0 0.0020312
5550.0 0.0019632
5570.0 0.0017846
5590.0 0.0015518
5610.0 0.0014311
5630.0 0.0013877
5650.0 0.0013216
5670.0 0.0012524
5690.0 0.0011196
5710.0 0.0010916
5730.0 0.0010056
5750.0 0.00070897
5770.0 0.00055311
5790.0 0.0006268
5810.0 0.00070776
5830.0 0.00086852
5850.0 0.0010339
5870.0 0.0011471
5890.0 0.0011665
5910.0 0.0011444
5930.0 0.0010894
5950.0 0.00111
5970.0 0.0012653
5990.0 0.0011897
6010.0 0.00099736
6030.0 0.00084262
6050.0 0.00073381
6070.0 0.0007298
6090.0 0.00079135
6110.0 0.00088486
6130.0 0.00089841
6150.0 0.000773
6170.0 0.00068
6190.0 0.00076525
6210.0 0.0010116
6230.0 0.0013276
6250.0 0.0014379
6270.0 0.0012566
6290.0 0.0010572
6310.0 0.00082534
6330.0 0.00063237
6350.0 0.00056405
6370.0 0.00059316
6390.0 0.00068573
6410.0 0.00084554
6430.0 0.00098736
6450.0 0.0011298
6470.0 0.0012936
6490.0 0.0015626
6510.0 0.0017472
6530.0 0.0017141
6550.0 0.00155
6570.0 0.0013158
6590.0 0.0011865
6610.0 0.0010231
6630.0 0.00092688
6650.0 0.00087617
6670.0 0.00085118
6690.0 0.00076908
6710.0 0.00069911
6730.0 0.00050356
6750.0 0.00049923
6770.0 0.00054262
6790.0 0.00062371
6810.0 0.0005707
6830.0 0.00058767
6850.0 0.00054966
6870.0 0.00050211
6890.0 0.0004821
6910.0 0.00051374
6930.0 0.00048119
6950.0 0.00049507
6970.0 0.00052072
6990.0 0.00059106
7010.0 0.00059609
7030.0 0.00060556
7050.0 0.0005775
7070.0 0.00055026
7090.0 0.00055187
7110.0 0.00056783
7130.0 0.00061107
7150.0 0.00064901
7170.0 0.00071613
7190.0 0.00078723
7210.0 0.00077356
7230.0 0.00079523
7250.0 0.0008546
7270.0 0.00093131
7290.0 0.0011054
7310.0 0.0011994
7330.0 0.0011593
7350.0 0.0010486
7370.0 0.00091234
7390.0 0.00088509
7410.0 0.00094058
7430.0 0.0010453
7450.0 0.0011386
7470.0 0.0011281
7490.0 0.0010286
7510.0 0.0011652
7530.0 0.0011524
7550.0 0.0010358
7570.0 0.00080916
7590.0 0.00055627
7610.0 0.00047745
7630.0 0.00054247
7650.0 0.0006414
7670.0 0.00079827
7690.0 0.00087844
7710.0 0.00091544
7730.0 0.00096202
7750.0 0.00108
7770.0 0.001097
7790.0 0.0010076
7810.0 0.00091939
7830.0 0.0009481
7850.0 0.00092164
7870.0 0.00084499
7890.0 0.00070996
7910.0 0.0005771
7930.0 0.00055104
7950.0 0.00050202
7970.0 0.00046471
7990.0 0.00046206
8010.0 3.4221e-05
8030.0 3.3777e-05
8050.0 3.3321e-05
8070.0 3.3758e-05
8090.0 3.6272e-05
8110.0 3.5654e-05
8130.0 2.941e-05
8150.0 2.8642e-05
8170.0 2.4671e-05
8190.0 2.3381e-05
8210.0 3.0363e-05
8230.0 3.3805e-05
8250.0 3.0468e-05
8270.0 2.6518e-05
8290.0 2.5851e-05
8310.0 1.9896e-05
8330.0 1.341e-05
8350.0 9.5168e-06
8370.0 5.996e-06
8390.0 1.0961e-05
8410.0 1.2772e-05
8430.0 1.5744e-05
8450.0 1.8487e-05
8470.0 2.2979e-05
8490.0 2.2817e-05
8510.0 2.2444e-05
8530.0 2.3423e-05
8550.0 3.1602e-05
8570.0 3.7413e-05
8590.0 4.0368e-05
8610.0 5.0994e-05
8630.0 6.143e-05
8650.0 6.4262e-05
8670.0 6.8291e-05
8690.0 6.8674e-05
8710.0 6.2194e-05
8730.0 5.7851e-05
8750.0 5.1064e-05
8770.0 4.8452e-05
8790.0 4.7602e-05
8810.0 4.5613e-05
8830.0 3.6475e-05
8850.0 2.6702e-05
8870.0 2.0446e-05
8890.0 1.9989e-05
8910.0 2.2908e-05
8930.0 2.6056e-05
8950.0 2.6555e-05
8970.0 2.668e-05
8990.0 2.3796e-05
9010.0 0.00024937
9030.0 0.00022596
9050.0 0.00022705
9070.0 0.00022884
9090.0 0.00023041
9110.0 0.00023235
9130.0 0.00023385
9150.0 0.00023502
9170.0 0.00023626
9190.0 0.00023758
9210.0 0.00023898
9230.0 0.00024045
9250.0 0.00024195
9270.0 0.0002435
9290.0 0.0002451
9310.0 0.00024671
9330.0 0.00024835
9350.0 0.00025005
9370.0 0.00025177
9390.0 0.00025351
9410.0 0.0002553
9430.0 0.00025715
9450.0 0.00025898
9470.0 0.00026086
9490.0 0.00026279
9510.0 0.00026474
9530.0 0.0002667
9550.0 0.00026873
9570.0 0.00027079
9590.0 0.00027286
9610.0 0.00027497
9630.0 0.00027713
9650.0 0.00027931
9670.0 0.0002815
9690.0 0.00028374
9710.0 0.00028602
9730.0 0.0002883
9750.0 0.00029062
9770.0 0.00029301
9790.0 0.00029539
9810.0 0.00029778
9830.0 0.00030023
9850.0 0.0003027
9870.0 0.00030517
9890.0 0.00030768
9910.0 0.00031023
9930.0 0.00031279
9950.0 0.00031535
9970.0 0.00031797
9990.0 0.00032061
10010.0 0.0002782
10030.0 0.00028049
10050.0 0.00028282
10070.0 0.00028523
10090.0 0.0002875
10110.0 0.00028983
10130.0 0.00029217
10150.0 0.0002945
10170.0 0.00029685
10190.0 0.00029925
10210.0 0.00030162
10230.0 0.00030399
10250.0 0.00030639
10270.0 0.00030879
10290.0 0.00031116
10310.0 0.00031356
10330.0 0.00031598
10350.0 0.00031836
10370.0 0.00032074
10390.0 0.00032314
10410.0 0.00032553
10430.0 0.00032788
10450.0 0.00033024
10470.0 0.00033262
10490.0 0.00033495
10510.0 0.00033727
10530.0 0.00033962
10550.0 0.00034194
10570.0 0.00034421
10590.0 0.00034649
10610.0 0.00034877
10630.0 0.00035099
10650.0 0.0003532
10670.0 0.00035542
10690.0 0.00035761
10710.0 0.00035974
10730.0 0.00036188
10750.0 0.00036403
10770.0 0.00036608
10790.0 0.00036813
10810.0 0.00037016
10830.0 0.00037214
10850.0 0.00037401
10870.0 0.00037583
10890.0 0.00037743
10910.0 0.00037866
10930.0 0.00037935
10950.0 0.00037919
10970.0 0.00037791
10990.0 0.00037539
11010.0 0.00037117
11030.0 0.00036527
11050.0 0.00035807
11070.0 0.00034946
11090.0 0.00033912
11110.0 0.00032843
11130.0 0.00031727
11150.0 0.00030526
11170.0 0.00029288
11190.0 0.00028087
11210.0 0.00026847
11230.0 0.00025575
11250.0 0.0002436
11270.0 0.00023193
11290.0 0.00022023
11310.0 0.00020916
11330.0 0.0001994
11350.0 0.00019019
11370.0 0.00018167
11390.0 0.00017431
11410.0 0.00016786
11430.0 0.00016187
11450.0 0.00015671
11470.0 0.00015225
11490.0 0.0001481
11510.0 0.0001441
11530.0 0.00014039
11550.0 0.0001367
11570.0 0.00013277
11590.0 0.00012869
11610.0 0.00012455
11630.0 0.00012003
11650.0 0.0001152
11670.0 0.00011044
11690.0 0.00010561
11710.0 0.00010063
11730.0 9.5801e-05
11750.0 9.1333e-05
11770.0 8.6952e-05
11790.0 8.2846e-05
11810.0 7.9231e-05
11830.0 7.5998e-05
11850.0 7.302e-05
11870.0 7.053e-05
11890.0 6.8459e-05
11910.0 6.664e-05
11930.0 6.5076e-05
11950.0 6.3773e-05
11970.0 6.261e-05
11990.0 6.151e-05
12010.0 6.0493e-05
12030.0 5.9512e-05
12050.0 5.8499e-05
12070.0 5.7444e-05
12090.0 5.6428e-05
12110.0 5.5396e-05
12130.0 5.4362e-05
12150.0 5.3409e-05
12170.0 5.2577e-05
12190.0 5.1857e-05
12210.0 5.1355e-05
12230.0 5.1113e-05
12250.0 5.1152e-05
12270.0 5.1537e-05
12290.0 5.2267e-05
12310.0 5.3312e-05
12330.0 5.4776e-05
12350.0 5.6602e-05
12370.0 5.8681e-05
12390.0 6.1079e-05
12410.0 6.3888e-05
12430.0 6.6743e-05
12450.0 6.9699e-05
12470.0 7.2843e-05
12490.0 7.6e-05
12510.0 7.8963e-05
12530.0 8.191e-05
12550.0 8.4752e-05
12570.0 8.7262e-05
12590.0 8.9465e-05
12610.0 9.1428e-05
12630.0 9.2993e-05
12650.0 9.4073e-05
12670.0 9.4783e-05
12690.0 9.5068e-05
12710.0 9.4911e-05
12730.0 9.436e-05
12750.0 9.3379e-05
12770.0 9.2032e-05
12790.0 9.0399e-05
12810.0 8.8448e-05
12830.0 8.6191e-05
12850.0 8.3831e-05
12870.0 8.1336e-05
12890.0 7.8636e-05
12910.0 7.5891e-05
12930.0 7.3186e-05
12950.0 7.0363e-05
12970.0 6.7489e-05
12990.0 6.4771e-05
13010.0 6.2086e-05
13030.0 5.9371e-05
13050.0 5.6764e-05
13070.0 5.4321e-05
13090.0 5.187e-05
13110.0 4.9499e-05
13130.0 4.7312e-05
13150.0 4.5242e-05
13170.0 4.3215e-05
13190.0 4.1411e-05
13210.0 3.9823e-05
13230.0 3.8372e-05
13250.0 3.7122e-05
13270.0 3.6136e-05
13290.0 3.5369e-05
13310.0 3.4841e-05
13330.0 3.4601e-05
13350.0 3.4629e-05
13370.0 3.4939e-05
13390.0 3.5549e-05
13410.0 3.6374e-05
13430.0 3.7446e-05
13450.0 3.877e-05
13470.0 4.024e-05
13490.0 4.1796e-05
13510.0 4.3552e-05
13530.0 4.5332e-05
13550.0 4.7036e-05
13570.0 4.8715e-05
13590.0 5.0353e-05
13610.0 5.1809e-05
13630.0 5.308e-05
13650.0 5.4241e-05
13670.0 5.5205e-05
13690.0 5.595e-05
13710.0 5.6526e-05
13730.0 5.6938e-05
13750.0 5.7143e-05
13770.0 5.719e-05
13790.0 5.7086e-05
13810.0 5.6834e-05
13830.0 5.6462e-05
13850.0 5.5957e-05
13870.0 5.5321e-05
13890.0 5.4594e-05
13910.0 5.3774e-05
13930.0 5.2824e-05
13950.0 5.1788e-05
13970.0 5.0729e-05
13990.0 4.9575e-05
14010.0 4.8347e-05
14030.0 4.7123e-05
14050.0 4.589e-05
14070.0 4.4588e-05
14090.0 4.334e-05
14110.0 4.2167e-05
14130.0 4.103e-05
14150.0 3.9961e-05
14170.0 3.9047e-05
14190.0 3.8258e-05
14210.0 3.7588e-05
14230.0 3.7092e-05
14250.0 3.6771e-05
14270.0 3.6616e-05
14290.0 3.6649e-05
14310.0 3.6853e-05
14330.0 3.722e-05
14350.0 3.776e-05
14370.0 3.8432e-05
14390.0 3.9196e-05
14410.0 4.0096e-05
14430.0 4.1084e-05
14450.0 4.2093e-05
14470.0 4.3139e-05
14490.0 4.4252e-05
14510.0 4.5317e-05
14530.0 4.6328e-05
14550.0 4.7338e-05
14570.0 4.8309e-05
14590.0 4.9192e-05
14610.0 5.0046e-05
14630.0 5.0891e-05
14650.0 5.1678e-05
14670.0 5.2438e-05
14690.0 5.3231e-05
14710.0 5.4065e-05
14730.0 5.4898e-05
14750.0 5.5821e-05
14770.0 5.6869e-05
14790.0 5.8004e-05
14810.0 5.9234e-05
14830.0 6.0692e-05
14850.0 6.2276e-05
14870.0 6.3929e-05
14890.0 6.5712e-05
14910.0 6.7606e-05
14930.0 6.9427e-05
14950.0 7.1129e-05
14970.0 7.274e-05
14990.0 7.4091e-05
15010.0 7.5124e-05
15030.0 7.5889e-05
15050.0 7.6395e-05
15070.0 7.6642e-05
15090.0 7.6729e-05
15110.0 7.6704e-05
15130.0 7.6607e-05
15150.0 7.6478e-05
15170.0 7.6325e-05
15190.0 7.616e-05
15210.0 7.5998e-05
15230.0 7.5837e-05
15250.0 7.5669e-05
15270.0 7.5504e-05
15290.0 7.5347e-05
15310.0 7.5186e-05
15330.0 7.5023e-05
15350.0 7.4867e-05
15370.0 7.4712e-05
15390.0 7.4549e-05
15410.0 7.4391e-05
15430.0 7.4239e-05
15450.0 7.4082e-05
15470.0 7.3923e-05
15490.0 7.3773e-05
15510.0 7.3623e-05
15530.0 7.3467e-05
15550.0 7.3315e-05
15570.0 7.3168e-05
15590.0 7.3015e-05
15610.0 7.286e-05
15630.0 7.2713e-05
15650.0 7.2566e-05
15670.0 7.2414e-05
15690.0 7.2266e-05
15710.0 7.2123e-05
15730.0 7.1974e-05
15750.0 7.1824e-05
15770.0 7.1681e-05
15790.0 7.1536e-05
15810.0 7.1384e-05
15830.0 7.1239e-05
15850.0 7.1098e-05
15870.0 7.0952e-05
15890.0 7.0805e-05
15910.0 7.0666e-05
15930.0 7.0522e-05
15950.0 7.0374e-05
15970.0 7.0231e-05
15990.0 7.009e-05
16010.0 6.9945e-05
16030.0 6.9797e-05
16050.0 6.9659e-05
16070.0 6.9518e-05
16090.0 6.9372e-05
16110.0 6.923e-05
16130.0 6.9093e-05
16150.0 6.8944e-05
16170.0 6.8799e-05
16190.0 6.8661e-05
16210.0 6.8518e-05
16230.0 6.8372e-05
16250.0 6.8231e-05
16270.0 6.8093e-05
16290.0 6.7947e-05
16310.0 6.7803e-05
16330.0 6.7664e-05
16350.0 6.7521e-05
16370.0 6.7371e-05
16390.0 6.7231e-05
16410.0 6.7091e-05
16430.0 6.6944e-05
16450.0 6.68e-05
16470.0 6.6662e-05
16490.0 6.6516e-05
16510.0 6.6368e-05
16530.0 6.6226e-05
16550.0 6.6084e-05
16570.0 6.5935e-05
16590.0 6.5788e-05
16610.0 6.5648e-05
16630.0 6.5502e-05
16650.0 6.5354e-05
16670.0 6.5211e-05
16690.0 6.5068e-05
16710.0 6.4915e-05
16730.0 6.4768e-05
16750.0 6.4624e-05
16770.0 6.4475e-05
16790.0 6.4323e-05
16810.0 6.4179e-05
16830.0 6.4034e-05
16850.0 6.3881e-05
16870.0 6.3733e-05
16890.0 6.3588e-05
16910.0 6.3435e-05
16930.0 6.328e-05
16950.0 6.3133e-05
16970.0 6.2984e-05
16990.0 6.2829e-05
17010.0 6.2678e-05
17030.0 6.2531e-05
17050.0 6.2376e-05
17070.0 6.2221e-05
17090.0 6.2071e-05
17110.0 6.1919e-05
17130.0 6.1759e-05
17150.0 6.1606e-05
17170.0 6.1455e-05
17190.0 6.1298e-05
17210.0 6.1141e-05
17230.0 6.099e-05
17250.0 6.0834e-05
17270.0 6.0672e-05
17290.0 6.0516e-05
17310.0 6.0362e-05
17330.0 6.0201e-05
17350.0 6.0039e-05
17370.0 5.9886e-05
17390.0 5.9728e-05
17410.0 5.9565e-05
17430.0 5.9407e-05
17450.0 5.9252e-05
17470.0 5.9085e-05
17490.0 5.8922e-05
17510.0 5.8764e-05
17530.0 5.8602e-05
17550.0 5.8436e-05
17570.0 5.8276e-05
17590.0 5.8117e-05
17610.0 5.795e-05
17630.0 5.7786e-05
17650.0 5.7626e-05
17670.0 5.7461e-05
17690.0 5.7288e-05
17710.0 5.7127e-05
17730.0 5.6964e-05
17750.0 5.6795e-05
17770.0 5.6629e-05
17790.0 5.6468e-05
17810.0 5.6298e-05
17830.0 5.6127e-05
17850.0 5.5962e-05
17870.0 5.5796e-05
17890.0 5.5623e-05
17910.0 5.5453e-05
17930.0 5.5289e-05
17950.0 5.5119e-05
17970.0 5.4947e-05
17990.0 5.4781e-05
18010.0 5.4613e-05
18030.0 5.4436e-05
18050.0 5.4265e-05
18070.0 5.4098e-05
18090.0 5.3925e-05
18110.0 5.3749e-05
18130.0 5.3582e-05
18150.0 5.3412e-05
18170.0 5.3236e-05
18190.0 5.3063e-05
18210.0 5.2895e-05
18230.0 5.2718e-05
18250.0 5.254e-05
18270.0 5.237e-05
18290.0 5.2198e-05
18310.0 5.202e-05
18330.0 5.1847e-05
18350.0 5.1677e-05
18370.0 5.1499e-05
18390.0 5.1322e-05
18410.0 5.115e-05
18430.0 5.0975e-05
18450.0 5.0794e-05
18470.0 5.0619e-05
18490.0 5.0447e-05
18510.0 5.0269e-05
18530.0 5.0092e-05
18550.0 4.992e-05
18570.0 4.9743e-05
18590.0 4.9561e-05
18610.0 4.9386e-05
18630.0 4.9212e-05
18650.0 4.9032e-05
18670.0 4.8851e-05
18690.0 4.868e-05
18710.0 4.8502e-05
18730.0 4.8322e-05
18750.0 4.8146e-05
18770.0 4.7973e-05
18790.0 4.7788e-05
18810.0 4.7609e-05
18830.0 4.7435e-05
18850.0 4.7256e-05
18870.0 4.7074e-05
18890.0 4.6899e-05
18910.0 4.6724e-05
18930.0 4.6542e-05
18950.0 4.6363e-05
18970.0 4.6189e-05
18990.0 4.6009e-05
19010.0 4.5823e-05
19030.0 4.5649e-05
19050.0 4.5473e-05
19070.0 4.5291e-05
19090.0 4.5113e-05
19110.0 4.494e-05
19130.0 4.4758e-05
19150.0 4.4576e-05
19170.0 4.44e-05
19190.0 4.4223e-05
19210.0 4.404e-05
19230.0 4.386e-05
19250.0 4.3686e-05
19270.0 4.3507e-05
19290.0 4.3326e-05
19310.0 4.3151e-05
19330.0 4.2974e-05
19350.0 4.2789e-05
19370.0 4.2611e-05
19390.0 4.2436e-05
19410.0 4.2256e-05
19430.0 4.2074e-05
19450.0 4.19e-05
19470.0 4.1724e-05
19490.0 4.1542e-05
19510.0 4.1364e-05
19530.0 4.119e-05
19550.0 4.1008e-05
19570.0 4.0826e-05
19590.0 4.0652e-05
19610.0 4.0476e-05
19630.0 4.0294e-05
19650.0 4.0118e-05
19670.0 3.9945e-05
19690.0 3.9764e-05
19710.0 3.9585e-05
19730.0 3.9411e-05
19750.0 3.9234e-05
19770.0 3.9051e-05
19790.0 3.8875e-05
19810.0 3.8702e-05
19830.0 3.8522e-05
19850.0 3.8341e-05
19870.0 3.8163e-05
19890.0 3.7973e-05
19910.0 3.7763e-05
19930.0 3.7539e-05
19950.0 3.7283e-05
19970.0 3.6967e-05
19990.0 3.6588e-05
20010.0 3.2552e-05
20030.0 3.2081e-05
20050.0 3.1529e-05
20070.0 3.0932e-05
20090.0 3.0289e-05
20110.0 2.9562e-05
20130.0 2.8826e-05
20150.0 2.8097e-05
20170.0 2.7341e-05
20190.0 2.6574e-05
20210.0 2.5849e-05
20230.0 2.5143e-05
20250.0 2.4435e-05
20270.0 2.3777e-05
20290.0 2.3177e-05
20310.0 2.2607e-05
20330.0 2.2075e-05
20350.0 2.1632e-05
20370.0 2.124e-05
20390.0 2.0895e-05
20410.0 2.0617e-05
20430.0 2.0403e-05
20450.0 2.0233e-05
20470.0 2.0119e-05
20490.0 2.0058e-05
20510.0 2.0041e-05
20530.0 2.0065e-05
20550.0 2.0127e-05
20570.0 2.0217e-05
20590.0 2.0339e-05
20610.0 2.0487e-05
20630.0 2.065e-05
20650.0 2.0832e-05
20670.0 2.104e-05
20690.0 2.1252e-05
20710.0 2.1472e-05
20730.0 2.1708e-05
20750.0 2.1955e-05
20770.0 2.2198e-05
20790.0 2.2453e-05
20810.0 2.2723e-05
20830.0 2.2992e-05
20850.0 2.3262e-05
20870.0 2.355e-05
20890.0 2.3845e-05
20910.0 2.4129e-05
20930.0 2.4424e-05
20950.0 2.4729e-05
20970.0 2.5027e-05
20990.0 2.5321e-05
21010.0 2.563e-05
21030.0 2.5932e-05
21050.0 2.622e-05
21070.0 2.6508e-05
21090.0 2.6796e-05
21110.0 2.706e-05
21130.0 2.7307e-05
21150.0 2.7546e-05
21170.0 2.7763e-05
21190.0 2.795e-05
21210.0 2.8118e-05
21230.0 2.8257e-05
21250.0 2.8357e-05
21270.0 2.842e-05
21290.0 2.8444e-05
21310.0 2.8421e-05
21330.0 2.8354e-05
21350.0 2.8236e-05
21370.0 2.8063e-05
21390.0 2.7844e-05
21410.0 2.7575e-05
21430.0 2.7234e-05
21450.0 2.6851e-05
21470.0 2.6435e-05
21490.0 2.5963e-05
21510.0 2.5447e-05
21530.0 2.4921e-05
21550.0 2.4371e-05
21570.0 2.3785e-05
21590.0 2.3208e-05
21610.0 2.265e-05
21630.0 2.2092e-05
21650.0 2.1547e-05
21670.0 2.1074e-05
21690.0 2.0638e-05
21710.0 2.0245e-05
21730.0 1.9924e-05
21750.0 1.9676e-05
21770.0 1.9487e-05
21790.0 1.9378e-05
21810.0 1.9348e-05
21830.0 1.9391e-05
21850.0 1.9512e-05
21870.0 1.9701e-05
21890.0 1.9945e-05
21910.0 2.0258e-05
21930.0 2.0626e-05
21950.0 2.1024e-05
21970.0 2.1464e-05
21990.0 2.1959e-05
22010.0 2.2454e-05
22030.0 2.2956e-05
22050.0 2.3483e-05
22070.0 2.4014e-05
22090.0 2.4516e-05
22110.0 2.5022e-05
22130.0 2.5528e-05
22150.0 2.6e-05
22170.0 2.6445e-05
22190.0 2.6886e-05
22210.0 2.7296e-05
22230.0 2.7657e-05
22250.0 2.7997e-05
22270.0 2.8311e-05
22290.0 2.8578e-05
22310.0 2.8808e-05
22330.0 2.901e-05
22350.0 2.9167e-05
22370.0 2.9277e-05
22390.0 2.9346e-05
22410.0 2.9368e-05
22430.0 2.934e-05
22450.0 2.9264e-05
22470.0 2.9134e-05
22490.0 2.895e-05
22510.0 2.8721e-05
22530.0 2.8429e-05
22550.0 2.8073e-05
22570.0 2.7678e-05
22590.0 2.7233e-05
22610.0 2.6721e-05
22630.0 2.6167e-05
22650.0 2.5594e-05
22670.0 2.496e-05
22690.0 2.4284e-05
22710.0 2.3601e-05
