#lamb flux
1010.0 1.1697e-08
1030.0 1.2878e-08
1050.0 1.4235e-08
1070.0 1.5763e-08
1090.0 1.7499e-08
1110.0 1.9279e-08
1130.0 2.1071e-08
1150.0 2.2948e-08
1170.0 2.4884e-08
1190.0 2.672e-08
1210.0 2.8581e-08
1230.0 3.0504e-08
1250.0 3.2387e-08
1270.0 3.4217e-08
1290.0 3.615e-08
1310.0 3.8081e-08
1330.0 3.9933e-08
1350.0 4.1807e-08
1370.0 4.374e-08
1390.0 4.5625e-08
1410.0 4.7454e-08
1430.0 4.9366e-08
1450.0 5.1278e-08
1470.0 5.3125e-08
1490.0 5.4992e-08
1510.0 5.6963e-08
1530.0 5.8831e-08
1550.0 6.0673e-08
1570.0 6.2577e-08
1590.0 6.4483e-08
1610.0 6.6303e-08
1630.0 6.8178e-08
1650.0 7.0101e-08
1670.0 7.1959e-08
1690.0 7.3792e-08
1710.0 7.5693e-08
1730.0 7.7603e-08
1750.0 7.9394e-08
1770.0 8.1235e-08
1790.0 8.3109e-08
1810.0 8.4916e-08
1830.0 8.6686e-08
1850.0 8.856e-08
1870.0 9.0376e-08
1890.0 9.212e-08
1910.0 9.3889e-08
1930.0 9.5692e-08
1950.0 9.7394e-08
1970.0 9.9059e-08
1990.0 1.0077e-07
2010.0 1.0244e-07
2030.0 1.0402e-07
2050.0 1.0562e-07
2070.0 1.0725e-07
2090.0 1.0874e-07
2110.0 1.102e-07
2130.0 1.1167e-07
2150.0 1.1307e-07
2170.0 1.1435e-07
2190.0 1.1565e-07
2210.0 1.1692e-07
2230.0 1.1806e-07
2250.0 1.1915e-07
2270.0 1.2026e-07
2290.0 1.2125e-07
2310.0 1.2212e-07
2330.0 1.2298e-07
2350.0 1.2382e-07
2370.0 1.2458e-07
2390.0 1.2539e-07
2410.0 1.2642e-07
2430.0 1.2765e-07
2450.0 1.292e-07
2470.0 1.3138e-07
2490.0 1.3432e-07
2510.0 1.3773e-07
2530.0 1.4207e-07
2550.0 1.4789e-07
2570.0 1.5555e-07
2590.0 1.6597e-07
2610.0 1.821e-07
2630.0 2.0514e-07
2650.0 2.3466e-07
2670.0 2.7185e-07
2690.0 3.1614e-07
2710.0 3.6143e-07
2730.0 4.0408e-07
2750.0 4.4405e-07
2770.0 4.7637e-07
2790.0 4.9945e-07
2810.0 5.1539e-07
2830.0 5.2554e-07
2850.0 5.297e-07
2870.0 5.3051e-07
2890.0 5.2946e-07
2910.0 5.2708e-07
2930.0 5.2383e-07
2950.0 5.2048e-07
2970.0 5.1715e-07
2990.0 5.1374e-07
3010.0 1.6087e-05
3030.0 1.599e-05
3050.0 1.5896e-05
3070.0 1.5793e-05
3090.0 1.5683e-05
3110.0 1.555e-05
3130.0 1.5374e-05
3150.0 1.5143e-05
3170.0 1.4828e-05
3190.0 1.4434e-05
3210.0 1.3988e-05
3230.0 1.3506e-05
3250.0 1.3019e-05
3270.0 1.2654e-05
3290.0 1.2378e-05
3310.0 1.2313e-05
3330.0 1.2391e-05
3350.0 1.2606e-05
3370.0 1.2958e-05
3390.0 1.343e-05
3410.0 1.3959e-05
3430.0 1.4566e-05
3450.0 1.5274e-05
3470.0 1.6058e-05
3490.0 1.6901e-05
3510.0 1.7863e-05
3530.0 1.8917e-05
3550.0 2.0049e-05
3570.0 2.1305e-05
3590.0 2.2715e-05
3610.0 2.4294e-05
3630.0 2.5877e-05
3650.0 2.7558e-05
3670.0 2.908e-05
3690.0 3.0216e-05
3710.0 3.0789e-05
3730.0 3.0451e-05
3750.0 2.9207e-05
3770.0 2.9675e-05
3790.0 2.8713e-05
3810.0 2.1866e-05
3830.0 2.0554e-05
3850.0 2.9721e-05
3870.0 2.7482e-05
3890.0 2.0919e-05
3910.0 2.1856e-05
3930.0 2.8766e-05
3950.0 3.409e-05
3970.0 3.958e-05
3990.0 2.8748e-05
4010.0 4.8347e-05
4030.0 4.4753e-05
4050.0 4.4567e-05
4070.0 5.1951e-05
4090.0 4.9667e-05
4110.0 4.6074e-05
4130.0 5.7871e-05
4150.0 7.679e-05
4170.0 6.1016e-05
4190.0 5.3503e-05
4210.0 6.0267e-05
4230.0 7.5344e-05
4250.0 8.9149e-05
4270.0 9.6958e-05
4290.0 8.7144e-05
4310.0 8.0272e-05
4330.0 7.9988e-05
4350.0 0.00010293
4370.0 0.000125
4390.0 9.9489e-05
4410.0 5.6624e-05
4430.0 4.0276e-05
4450.0 3.7072e-05
4470.0 2.4822e-05
4490.0 4.2217e-05
4510.0 8.5488e-05
4530.0 0.00010383
4550.0 9.975e-05
4570.0 9.0525e-05
4590.0 9.8014e-05
4610.0 0.0001906
4630.0 0.00026536
4650.0 0.00024927
4670.0 0.00021967
4690.0 0.00022886
4710.0 0.00024045
4730.0 0.00019386
4750.0 0.0001238
4770.0 8.6533e-05
4790.0 9.6939e-05
4810.0 0.00010129
4830.0 0.00010039
4850.0 0.00010965
4870.0 0.00014522
4890.0 0.00016846
4910.0 0.00012984
4930.0 0.00012528
4950.0 0.00014452
4970.0 0.00019428
4990.0 0.00026154
5010.0 0.00029983
5030.0 0.00023708
5050.0 0.00014266
5070.0 0.00010192
5090.0 7.8843e-05
5110.0 7.405e-05
5130.0 8.7799e-05
5150.0 8.4304e-05
5170.0 7.9365e-05
5190.0 7.1179e-05
5210.0 7.7917e-05
5230.0 9.713e-05
5250.0 0.00011351
5270.0 0.00010539
5290.0 0.00011469
5310.0 0.00015364
5330.0 0.00016241
5350.0 0.00015996
5370.0 0.00018125
5390.0 0.00022543
5410.0 0.00019155
5430.0 0.0001447
5450.0 0.00014621
5470.0 0.00017211
5490.0 0.00021783
5510.0 0.00026713
5530.0 0.00030914
5550.0 0.00027816
5570.0 0.00024846
5590.0 0.00020405
5610.0 0.00020796
5630.0 0.00023383
5650.0 0.00021783
5670.0 0.0002012
5690.0 0.00016272
5710.0 0.000167
5730.0 0.00016287
5750.0 8.6627e-05
5770.0 6.3065e-05
5790.0 7.8619e-05
5810.0 8.4526e-05
5830.0 0.00013073
5850.0 0.00016944
5870.0 0.00017977
5890.0 0.00016959
5910.0 0.0001641
5930.0 0.00015939
5950.0 0.00016532
5970.0 0.00020477
5990.0 0.00016765
6010.0 0.00012829
6030.0 0.00010401
6050.0 9.2688e-05
6070.0 0.00011158
6090.0 0.00012691
6110.0 0.000129
6130.0 0.00011708
6150.0 9.2348e-05
6170.0 7.4993e-05
6190.0 9.37e-05
6210.0 0.00014666
6230.0 0.00021274
6250.0 0.0002261
6270.0 0.00017251
6290.0 0.0001473
6310.0 0.0001125
6330.0 8.2213e-05
6350.0 8.0907e-05
6370.0 8.5098e-05
6390.0 0.00010284
6410.0 0.00013193
6430.0 0.00015899
6450.0 0.00019633
6470.0 0.00020877
6490.0 0.00025165
6510.0 0.0002826
6530.0 0.00028517
6550.0 0.00026285
6570.0 0.00021591
6590.0 0.00020878
6610.0 0.0001733
6630.0 0.00017987
6650.0 0.00017331
6670.0 0.00015361
6690.0 0.00012183
6710.0 0.00011823
6730.0 5.6835e-05
6750.0 7.214e-05
6770.0 0.00010927
6790.0 0.00014475
6810.0 0.00010536
6830.0 0.00010769
6850.0 9.1077e-05
6870.0 8.6299e-05
6890.0 7.3694e-05
6910.0 8.6928e-05
6930.0 8.1548e-05
6950.0 9.7504e-05
6970.0 9.9879e-05
6990.0 0.0001106
7010.0 0.00010884
7030.0 0.00012144
7050.0 0.00010495
7070.0 8.8624e-05
7090.0 9.3403e-05
7110.0 9.6893e-05
7130.0 0.0001105
7150.0 0.00012586
7170.0 0.00014035
7190.0 0.00014722
7210.0 0.00013001
7230.0 0.00013133
7250.0 0.00014254
7270.0 0.00015567
7290.0 0.00018889
7310.0 0.00019528
7330.0 0.00017891
7350.0 0.00015955
7370.0 0.00011825
7390.0 0.00012391
7410.0 0.00015349
7430.0 0.00017439
7450.0 0.00018753
7470.0 0.00017423
7490.0 0.00014716
7510.0 0.00023524
7530.0 0.00021066
7550.0 0.00019526
7570.0 0.00013139
7590.0 5.7834e-05
7610.0 4.0899e-05
7630.0 6.1732e-05
7650.0 8.2789e-05
7670.0 0.00013157
7690.0 0.00014788
7710.0 0.00013314
7730.0 0.00013062
7750.0 0.0001704
7770.0 0.00017433
7790.0 0.00016051
7810.0 0.00013137
7830.0 0.00014097
7850.0 0.00015342
7870.0 0.00015023
7890.0 0.00011818
7910.0 7.9037e-05
7930.0 8.0579e-05
7950.0 7.2451e-05
7970.0 6.1245e-05
7990.0 5.5345e-05
8010.0 4.5459e-05
8030.0 4.2742e-05
8050.0 4.5496e-05
8070.0 4.9235e-05
8090.0 5.744e-05
8110.0 5.3764e-05
8130.0 3.5336e-05
8150.0 3.5255e-05
8170.0 2.3202e-05
8190.0 1.7288e-05
8210.0 3.1941e-05
8230.0 3.7327e-05
8250.0 1.9738e-05
8270.0 1.6409e-05
8290.0 2.3014e-05
8310.0 1.882e-05
8330.0 1.1614e-05
8350.0 9.2197e-06
8370.0 3.7374e-06
8390.0 1.0104e-05
8410.0 1.2052e-05
8430.0 1.5004e-05
8450.0 1.6818e-05
8470.0 2.565e-05
8490.0 2.157e-05
8510.0 1.7648e-05
8530.0 1.106e-05
8550.0 2.8638e-05
8570.0 4.3051e-05
8590.0 3.3041e-05
8610.0 4.725e-05
8630.0 5.1881e-05
8650.0 3.3066e-05
8670.0 4.3769e-05
8690.0 6.2131e-05
8710.0 5.4416e-05
8730.0 5.7479e-05
8750.0 4.6626e-05
8770.0 4.2191e-05
8790.0 4.5945e-05
8810.0 4.8603e-05
8830.0 2.9436e-05
8850.0 1.5785e-05
8870.0 1.1936e-05
8890.0 2.2241e-05
8910.0 3.2703e-05
8930.0 4.1714e-05
8950.0 4.7143e-05
8970.0 4.5877e-05
8990.0 3.6326e-05
9010.0 2.6853e-05
9030.0 2.1692e-05
9050.0 2.2521e-05
9070.0 2.3324e-05
9090.0 2.3963e-05
9110.0 2.4712e-05
9130.0 2.5258e-05
9150.0 2.5655e-05
9170.0 2.6077e-05
9190.0 2.6529e-05
9210.0 2.7003e-05
9230.0 2.7504e-05
9250.0 2.8014e-05
9270.0 2.8541e-05
9290.0 2.9081e-05
9310.0 2.9624e-05
9330.0 3.0177e-05
9350.0 3.0747e-05
9370.0 3.1322e-05
9390.0 3.1902e-05
9410.0 3.2497e-05
9430.0 3.3108e-05
9450.0 3.3716e-05
9470.0 3.4336e-05
9490.0 3.4972e-05
9510.0 3.5614e-05
9530.0 3.6259e-05
9550.0 3.6925e-05
9570.0 3.7601e-05
9590.0 3.8279e-05
9610.0 3.8968e-05
9630.0 3.9674e-05
9650.0 4.0386e-05
9670.0 4.1098e-05
9690.0 4.1829e-05
9710.0 4.2571e-05
9730.0 4.3314e-05
9750.0 4.4068e-05
9770.0 4.4842e-05
9790.0 4.5615e-05
9810.0 4.6393e-05
9830.0 4.7186e-05
9850.0 4.7989e-05
9870.0 4.879e-05
9890.0 4.9602e-05
9910.0 5.0428e-05
9930.0 5.1255e-05
9950.0 5.2086e-05
9970.0 5.2931e-05
9990.0 5.3784e-05
10010.0 4.9059e-05
10030.0 4.9818e-05
10050.0 5.0585e-05
10070.0 5.1343e-05
10090.0 5.2112e-05
10110.0 5.2894e-05
10130.0 5.3676e-05
10150.0 5.4453e-05
10170.0 5.5234e-05
10190.0 5.6024e-05
10210.0 5.6805e-05
10230.0 5.7585e-05
10250.0 5.8371e-05
10270.0 5.9156e-05
10290.0 5.9932e-05
10310.0 6.0714e-05
10330.0 6.1499e-05
10350.0 6.2273e-05
10370.0 6.3043e-05
10390.0 6.3816e-05
10410.0 6.4583e-05
10430.0 6.5337e-05
10450.0 6.6093e-05
10470.0 6.6847e-05
10490.0 6.7588e-05
10510.0 6.8321e-05
10530.0 6.9058e-05
10550.0 6.9782e-05
10570.0 7.049e-05
10590.0 7.1196e-05
10610.0 7.1895e-05
10630.0 7.2577e-05
10650.0 7.3249e-05
10670.0 7.392e-05
10690.0 7.4575e-05
10710.0 7.5213e-05
10730.0 7.5845e-05
10750.0 7.6471e-05
10770.0 7.7071e-05
10790.0 7.7659e-05
10810.0 7.824e-05
10830.0 7.8799e-05
10850.0 7.933e-05
10870.0 7.9839e-05
10890.0 8.0294e-05
10910.0 8.0663e-05
10930.0 8.0909e-05
10950.0 8.0963e-05
10970.0 8.077e-05
10990.0 8.0303e-05
11010.0 8.199e-05
11030.0 8.0758e-05
11050.0 7.9219e-05
11070.0 7.7351e-05
11090.0 7.5086e-05
11110.0 7.2733e-05
11130.0 7.0274e-05
11150.0 6.7628e-05
11170.0 6.491e-05
11190.0 6.2285e-05
11210.0 5.9591e-05
11230.0 5.6849e-05
11250.0 5.4249e-05
11270.0 5.177e-05
11290.0 4.9305e-05
11310.0 4.6984e-05
11330.0 4.4945e-05
11350.0 4.3023e-05
11370.0 4.1244e-05
11390.0 3.9693e-05
11410.0 3.8321e-05
11430.0 3.7028e-05
11450.0 3.5887e-05
11470.0 3.4872e-05
11490.0 3.3903e-05
11510.0 3.2946e-05
11530.0 3.2038e-05
11550.0 3.1126e-05
11570.0 3.0154e-05
11590.0 2.9152e-05
11610.0 2.8139e-05
11630.0 2.7052e-05
11650.0 2.5904e-05
11670.0 2.4782e-05
11690.0 2.3655e-05
11710.0 2.2504e-05
11730.0 2.1394e-05
11750.0 2.0367e-05
11770.0 1.9361e-05
11790.0 1.8417e-05
11810.0 1.7579e-05
11830.0 1.6821e-05
11850.0 1.6115e-05
11870.0 1.551e-05
11890.0 1.4992e-05
11910.0 1.4524e-05
11930.0 1.4107e-05
11950.0 1.3743e-05
11970.0 1.3406e-05
11990.0 1.3079e-05
12010.0 1.277e-05
12030.0 1.2467e-05
12050.0 1.2156e-05
12070.0 1.1834e-05
12090.0 1.1523e-05
12110.0 1.1206e-05
12130.0 1.0885e-05
12150.0 1.058e-05
12170.0 1.0299e-05
12190.0 1.0033e-05
12210.0 9.8059e-06
12230.0 9.6289e-06
12250.0 9.5012e-06
12270.0 9.4323e-06
12290.0 9.4265e-06
12310.0 9.4789e-06
12330.0 9.6003e-06
12350.0 9.7845e-06
12370.0 1.0014e-05
12390.0 1.0297e-05
12410.0 1.0645e-05
12430.0 1.1003e-05
12450.0 1.1377e-05
12470.0 1.178e-05
12490.0 1.2183e-05
12510.0 1.2557e-05
12530.0 1.2926e-05
12550.0 1.3278e-05
12570.0 1.3578e-05
12590.0 1.3833e-05
12610.0 1.4052e-05
12630.0 1.4213e-05
12650.0 1.4304e-05
12670.0 1.4344e-05
12690.0 1.4325e-05
12710.0 1.4245e-05
12730.0 1.4113e-05
12750.0 1.3924e-05
12770.0 1.3687e-05
12790.0 1.3413e-05
12810.0 1.3099e-05
12830.0 1.2746e-05
12850.0 1.2382e-05
12870.0 1.2002e-05
12890.0 1.1597e-05
12910.0 1.1188e-05
12930.0 1.0786e-05
12950.0 1.037e-05
12970.0 9.948e-06
12990.0 9.5468e-06
13010.0 9.1502e-06
13030.0 8.7492e-06
13050.0 8.3614e-06
13070.0 7.9948e-06
13090.0 7.6256e-06
13110.0 7.2656e-06
13130.0 6.9295e-06
13150.0 6.6081e-06
13170.0 6.2908e-06
13190.0 6.0037e-06
13210.0 5.7461e-06
13230.0 5.5063e-06
13250.0 5.2937e-06
13270.0 5.118e-06
13290.0 4.9717e-06
13310.0 4.8569e-06
13330.0 4.7816e-06
13350.0 4.7429e-06
13370.0 4.7414e-06
13390.0 4.7794e-06
13410.0 4.8479e-06
13430.0 4.9494e-06
13450.0 5.0848e-06
13470.0 5.2418e-06
13490.0 5.413e-06
13510.0 5.6124e-06
13530.0 5.819e-06
13550.0 6.0199e-06
13570.0 6.2219e-06
13590.0 6.4227e-06
13610.0 6.604e-06
13630.0 6.7644e-06
13650.0 6.9139e-06
13670.0 7.04e-06
13690.0 7.1387e-06
13710.0 7.2164e-06
13730.0 7.2738e-06
13750.0 7.3029e-06
13770.0 7.3107e-06
13790.0 7.2986e-06
13810.0 7.2664e-06
13830.0 7.2176e-06
13850.0 7.1518e-06
13870.0 7.0694e-06
13890.0 6.9755e-06
13910.0 6.8706e-06
13930.0 6.7508e-06
13950.0 6.6216e-06
13970.0 6.4907e-06
13990.0 6.3501e-06
14010.0 6.2025e-06
14030.0 6.0567e-06
14050.0 5.9112e-06
14070.0 5.7594e-06
14090.0 5.6148e-06
14110.0 5.4795e-06
14130.0 5.349e-06
14150.0 5.2263e-06
14170.0 5.1213e-06
14190.0 5.03e-06
14210.0 4.9517e-06
14230.0 4.8924e-06
14250.0 4.8522e-06
14270.0 4.83e-06
14290.0 4.8284e-06
14310.0 4.8461e-06
14330.0 4.8822e-06
14350.0 4.9383e-06
14370.0 5.0103e-06
14390.0 5.0942e-06
14410.0 5.1953e-06
14430.0 5.3088e-06
14450.0 5.4276e-06
14470.0 5.5539e-06
14490.0 5.6918e-06
14510.0 5.8279e-06
14530.0 5.9614e-06
14550.0 6.0995e-06
14570.0 6.2374e-06
14590.0 6.3684e-06
14610.0 6.5006e-06
14630.0 6.6369e-06
14650.0 6.7695e-06
14670.0 6.9019e-06
14690.0 7.0429e-06
14710.0 7.1927e-06
14730.0 7.3428e-06
14750.0 7.507e-06
14770.0 7.6893e-06
14790.0 7.8822e-06
14810.0 8.0861e-06
14830.0 8.3204e-06
14850.0 8.5683e-06
14870.0 8.8213e-06
14890.0 9.0885e-06
14910.0 9.3667e-06
14930.0 9.6311e-06
14950.0 9.8763e-06
14970.0 1.0107e-05
14990.0 1.0301e-05
15010.0 1.0452e-05
15030.0 1.0567e-05
15050.0 1.0647e-05
15070.0 1.0693e-05
15090.0 1.0719e-05
15110.0 1.073e-05
15130.0 1.0732e-05
15150.0 1.073e-05
15170.0 1.0725e-05
15190.0 1.0718e-05
15210.0 1.0712e-05
15230.0 1.0707e-05
15250.0 1.07e-05
15270.0 1.0694e-05
15290.0 1.069e-05
15310.0 1.0684e-05
15330.0 1.0679e-05
15350.0 1.0675e-05
15370.0 1.0671e-05
15390.0 1.0665e-05
15410.0 1.0661e-05
15430.0 1.0657e-05
15450.0 1.0653e-05
15470.0 1.0648e-05
15490.0 1.0645e-05
15510.0 1.0642e-05
15530.0 1.0638e-05
15550.0 1.0634e-05
15570.0 1.0631e-05
15590.0 1.0628e-05
15610.0 1.0623e-05
15630.0 1.062e-05
15650.0 1.0617e-05
15670.0 1.0613e-05
15690.0 1.061e-05
15710.0 1.0607e-05
15730.0 1.0603e-05
15750.0 1.0599e-05
15770.0 1.0596e-05
15790.0 1.0593e-05
15810.0 1.0588e-05
15830.0 1.0584e-05
15850.0 1.0581e-05
15870.0 1.0577e-05
15890.0 1.0572e-05
15910.0 1.0569e-05
15930.0 1.0564e-05
15950.0 1.0559e-05
15970.0 1.0554e-05
15990.0 1.055e-05
16010.0 1.0545e-05
16030.0 1.0539e-05
16050.0 1.0534e-05
16070.0 1.0528e-05
16090.0 1.0522e-05
16110.0 1.0516e-05
16130.0 1.0511e-05
16150.0 1.0503e-05
16170.0 1.0496e-05
16190.0 1.049e-05
16210.0 1.0482e-05
16230.0 1.0474e-05
16250.0 1.0467e-05
16270.0 1.0459e-05
16290.0 1.045e-05
16310.0 1.0441e-05
16330.0 1.0433e-05
16350.0 1.0424e-05
16370.0 1.0413e-05
16390.0 1.0404e-05
16410.0 1.0394e-05
16430.0 1.0383e-05
16450.0 1.0372e-05
16470.0 1.0362e-05
16490.0 1.035e-05
16510.0 1.0338e-05
16530.0 1.0326e-05
16550.0 1.0314e-05
16570.0 1.03e-05
16590.0 1.0287e-05
16610.0 1.0274e-05
16630.0 1.026e-05
16650.0 1.0245e-05
16670.0 1.0231e-05
16690.0 1.0217e-05
16710.0 1.02e-05
16730.0 1.0184e-05
16750.0 1.0169e-05
16770.0 1.0152e-05
16790.0 1.0134e-05
16810.0 1.0118e-05
16830.0 1.0101e-05
16850.0 1.0082e-05
16870.0 1.0064e-05
16890.0 1.0046e-05
16910.0 1.0026e-05
16930.0 1.0005e-05
16950.0 9.9861e-06
16970.0 9.9661e-06
16990.0 9.9447e-06
17010.0 9.9238e-06
17030.0 9.9032e-06
17050.0 9.8809e-06
17070.0 9.8582e-06
17090.0 9.8361e-06
17110.0 9.8134e-06
17130.0 9.7889e-06
17150.0 9.7653e-06
17170.0 9.742e-06
17190.0 9.7171e-06
17210.0 9.6919e-06
17230.0 9.6676e-06
17250.0 9.6421e-06
17270.0 9.6152e-06
17290.0 9.5891e-06
17310.0 9.563e-06
17330.0 9.5355e-06
17350.0 9.5074e-06
17370.0 9.4807e-06
17390.0 9.4528e-06
17410.0 9.4238e-06
17430.0 9.3954e-06
17450.0 9.3672e-06
17470.0 9.3366e-06
17490.0 9.3065e-06
17510.0 9.2772e-06
17530.0 9.2468e-06
17550.0 9.2154e-06
17570.0 9.1849e-06
17590.0 9.1543e-06
17610.0 9.122e-06
17630.0 9.0899e-06
17650.0 9.0585e-06
17670.0 9.0259e-06
17690.0 8.9918e-06
17710.0 8.9594e-06
17730.0 8.9266e-06
17750.0 8.8924e-06
17770.0 8.8584e-06
17790.0 8.8254e-06
17810.0 8.7906e-06
17830.0 8.7552e-06
17850.0 8.7208e-06
17870.0 8.6861e-06
17890.0 8.6499e-06
17910.0 8.6139e-06
17930.0 8.5791e-06
17950.0 8.5429e-06
17970.0 8.5062e-06
17990.0 8.4703e-06
18010.0 8.4342e-06
18030.0 8.3961e-06
18050.0 8.359e-06
18070.0 8.3224e-06
18090.0 8.2847e-06
18110.0 8.2463e-06
18130.0 8.2094e-06
18150.0 8.1718e-06
18170.0 8.133e-06
18190.0 8.0948e-06
18210.0 8.0572e-06
18230.0 8.0179e-06
18250.0 7.9783e-06
18270.0 7.9402e-06
18290.0 7.9015e-06
18310.0 7.8617e-06
18330.0 7.8227e-06
18350.0 7.7842e-06
18370.0 7.7441e-06
18390.0 7.7041e-06
18410.0 7.6651e-06
18430.0 7.6255e-06
18450.0 7.5844e-06
18470.0 7.5447e-06
18490.0 7.5055e-06
18510.0 7.465e-06
18530.0 7.4245e-06
18550.0 7.3852e-06
18570.0 7.3448e-06
18590.0 7.3035e-06
18610.0 7.2634e-06
18630.0 7.2234e-06
18650.0 7.1824e-06
18670.0 7.1413e-06
18690.0 7.1017e-06
18710.0 7.0611e-06
18730.0 7.0199e-06
18750.0 6.9797e-06
18770.0 6.9398e-06
18790.0 6.8979e-06
18810.0 6.8569e-06
18830.0 6.817e-06
18850.0 6.7762e-06
18870.0 6.7349e-06
18890.0 6.6947e-06
18910.0 6.6547e-06
18930.0 6.6134e-06
18950.0 6.5726e-06
18970.0 6.5327e-06
18990.0 6.492e-06
19010.0 6.4502e-06
19030.0 6.4104e-06
19050.0 6.3704e-06
19070.0 6.3295e-06
19090.0 6.289e-06
19110.0 6.2497e-06
19130.0 6.2089e-06
19150.0 6.1681e-06
19170.0 6.1283e-06
19190.0 6.0885e-06
19210.0 6.0477e-06
19230.0 6.0075e-06
19250.0 5.9685e-06
19270.0 5.9285e-06
19290.0 5.8883e-06
19310.0 5.8492e-06
19330.0 5.81e-06
19350.0 5.7693e-06
19370.0 5.73e-06
19390.0 5.6912e-06
19410.0 5.6516e-06
19430.0 5.6119e-06
19450.0 5.5736e-06
19470.0 5.5349e-06
19490.0 5.4954e-06
19510.0 5.4567e-06
19530.0 5.4187e-06
19550.0 5.3795e-06
19570.0 5.3403e-06
19590.0 5.3027e-06
19610.0 5.2646e-06
19630.0 5.2259e-06
19650.0 5.1881e-06
19670.0 5.151e-06
19690.0 5.1126e-06
19710.0 5.0745e-06
19730.0 5.0375e-06
19750.0 5.0002e-06
19770.0 4.9619e-06
19790.0 4.9249e-06
19810.0 4.8885e-06
19830.0 4.851e-06
19850.0 4.8137e-06
19870.0 4.7771e-06
19890.0 4.7388e-06
19910.0 4.6982e-06
19930.0 4.6562e-06
19950.0 4.6106e-06
19970.0 4.5578e-06
19990.0 4.4976e-06
20010.0 4.2914e-06
20030.0 4.2174e-06
20050.0 4.1338e-06
20070.0 4.0454e-06
20090.0 3.9522e-06
20110.0 3.8493e-06
20130.0 3.7467e-06
20150.0 3.6461e-06
20170.0 3.5433e-06
20190.0 3.4402e-06
20210.0 3.3433e-06
20230.0 3.2494e-06
20250.0 3.1559e-06
20270.0 3.0691e-06
20290.0 2.9897e-06
20310.0 2.914e-06
20330.0 2.8429e-06
20350.0 2.7828e-06
20370.0 2.7287e-06
20390.0 2.6804e-06
20410.0 2.6401e-06
20430.0 2.6076e-06
20450.0 2.5805e-06
20470.0 2.5604e-06
20490.0 2.547e-06
20510.0 2.5394e-06
20530.0 2.5374e-06
20550.0 2.5405e-06
20570.0 2.5478e-06
20590.0 2.5598e-06
20610.0 2.5757e-06
20630.0 2.594e-06
20650.0 2.6154e-06
20670.0 2.6408e-06
20690.0 2.667e-06
20710.0 2.6943e-06
20730.0 2.7241e-06
20750.0 2.7552e-06
20770.0 2.7855e-06
20790.0 2.8172e-06
20810.0 2.8504e-06
20830.0 2.8829e-06
20850.0 2.9151e-06
20870.0 2.9492e-06
20890.0 2.9834e-06
20910.0 3.0157e-06
20930.0 3.0488e-06
20950.0 3.0829e-06
20970.0 3.1156e-06
20990.0 3.1475e-06
21010.0 3.1811e-06
21030.0 3.2137e-06
21050.0 3.2444e-06
21070.0 3.2751e-06
21090.0 3.3061e-06
21110.0 3.3341e-06
21130.0 3.3604e-06
21150.0 3.3863e-06
21170.0 3.4099e-06
21190.0 3.4304e-06
21210.0 3.4494e-06
21230.0 3.4659e-06
21250.0 3.4783e-06
21270.0 3.4871e-06
21290.0 3.4924e-06
21310.0 3.4931e-06
21330.0 3.4889e-06
21350.0 3.4798e-06
21370.0 3.465e-06
21390.0 3.4449e-06
21410.0 3.4192e-06
21430.0 3.3859e-06
21450.0 3.3474e-06
21470.0 3.3042e-06
21490.0 3.2546e-06
21510.0 3.1992e-06
21530.0 3.1416e-06
21550.0 3.0803e-06
21570.0 3.0139e-06
21590.0 2.9473e-06
21610.0 2.8816e-06
21630.0 2.8147e-06
21650.0 2.7477e-06
21670.0 2.6879e-06
21690.0 2.631e-06
21710.0 2.5777e-06
21730.0 2.5314e-06
21750.0 2.4927e-06
21770.0 2.4593e-06
21790.0 2.4342e-06
21810.0 2.4176e-06
21830.0 2.4086e-06
21850.0 2.4078e-06
21870.0 2.4147e-06
21890.0 2.4281e-06
21910.0 2.4491e-06
21930.0 2.4765e-06
21950.0 2.5083e-06
21970.0 2.5454e-06
21990.0 2.5891e-06
22010.0 2.6343e-06
22030.0 2.6815e-06
22050.0 2.7326e-06
22070.0 2.7854e-06
22090.0 2.8365e-06
22110.0 2.8892e-06
22130.0 2.9432e-06
22150.0 2.9946e-06
22170.0 3.0439e-06
22190.0 3.0939e-06
22210.0 3.1413e-06
22230.0 3.1836e-06
22250.0 3.224e-06
22270.0 3.2618e-06
22290.0 3.2945e-06
22310.0 3.3228e-06
22330.0 3.3482e-06
22350.0 3.3681e-06
22370.0 3.3824e-06
22390.0 3.3919e-06
22410.0 3.3959e-06
22430.0 3.3937e-06
22450.0 3.3859e-06
22470.0 3.3719e-06
22490.0 3.3517e-06
22510.0 3.3261e-06
22530.0 3.2934e-06
22550.0 3.2535e-06
22570.0 3.2091e-06
22590.0 3.159e-06
22610.0 3.1014e-06
