#lamb flux
1010.0 2.2101e-11
1030.0 2.7564e-11
1050.0 3.367e-11
1070.0 4.0319e-11
1090.0 4.7598e-11
1110.0 5.4664e-11
1130.0 6.1331e-11
1150.0 6.7896e-11
1170.0 7.422e-11
1190.0 7.9656e-11
1210.0 8.4807e-11
1230.0 8.9889e-11
1250.0 9.4617e-11
1270.0 9.9097e-11
1290.0 1.0408e-10
1310.0 1.0936e-10
1330.0 1.1483e-10
1350.0 1.2103e-10
1370.0 1.2824e-10
1390.0 1.362e-10
1410.0 1.4495e-10
1430.0 1.55e-10
1450.0 1.6606e-10
1470.0 1.7781e-10
1490.0 1.9046e-10
1510.0 2.0427e-10
1530.0 2.1825e-10
1550.0 2.3254e-10
1570.0 2.4738e-10
1590.0 2.624e-10
1610.0 2.7707e-10
1630.0 2.9193e-10
1650.0 3.069e-10
1670.0 3.2136e-10
1690.0 3.3545e-10
1710.0 3.4962e-10
1730.0 3.6355e-10
1750.0 3.7659e-10
1770.0 3.8961e-10
1790.0 4.0254e-10
1810.0 4.1486e-10
1830.0 4.2675e-10
1850.0 4.3785e-10
1870.0 4.4755e-10
1890.0 4.5701e-10
1910.0 4.6678e-10
1930.0 4.7689e-10
1950.0 4.8676e-10
1970.0 4.9662e-10
1990.0 5.0687e-10
2010.0 5.1699e-10
2030.0 5.2678e-10
2050.0 5.369e-10
2070.0 5.4751e-10
2090.0 5.5765e-10
2110.0 5.6788e-10
2130.0 5.7849e-10
2150.0 5.8902e-10
2170.0 5.9922e-10
2190.0 6.0987e-10
2210.0 6.1987e-10
2230.0 6.2852e-10
2250.0 6.3712e-10
2270.0 6.4617e-10
2290.0 6.5493e-10
2310.0 6.6332e-10
2330.0 6.7207e-10
2350.0 6.8093e-10
2370.0 6.8946e-10
2390.0 6.9813e-10
2410.0 7.0735e-10
2430.0 7.1648e-10
2450.0 7.2587e-10
2470.0 7.3653e-10
2490.0 7.4928e-10
2510.0 7.6433e-10
2530.0 7.843e-10
2550.0 8.1244e-10
2570.0 8.506e-10
2590.0 9.013e-10
2610.0 9.7388e-10
2630.0 1.07e-09
2650.0 1.1871e-09
2670.0 1.3314e-09
2690.0 1.5055e-09
2710.0 1.6956e-09
2730.0 1.8951e-09
2750.0 2.1104e-09
2770.0 2.324e-09
2790.0 2.523e-09
2810.0 2.7105e-09
2830.0 2.8867e-09
2850.0 3.0361e-09
2870.0 3.1696e-09
2890.0 3.295e-09
2910.0 3.4132e-09
2930.0 3.5265e-09
2950.0 3.6433e-09
2970.0 3.7652e-09
2990.0 3.8901e-09
3010.0 4.0206e-09
3030.0 4.1597e-09
3050.0 4.3055e-09
3070.0 4.4541e-09
3090.0 4.6113e-09
3110.0 4.7781e-09
3130.0 4.9568e-09
3150.0 5.1659e-09
3170.0 5.4283e-09
3190.0 5.7683e-09
3210.0 6.2101e-09
3230.0 6.7923e-09
3250.0 7.5157e-09
3270.0 8.182e-09
3290.0 9.2757e-09
3310.0 1.159e-08
3330.0 1.2349e-08
3350.0 1.2715e-08
3370.0 1.3067e-08
3390.0 1.3424e-08
3410.0 1.3789e-08
3430.0 1.4158e-08
3450.0 1.4529e-08
3470.0 1.4891e-08
3490.0 1.5245e-08
3510.0 1.5585e-08
3530.0 1.5466e-08
3550.0 1.5035e-08
3570.0 1.5226e-08
3590.0 1.6108e-08
3610.0 1.7526e-08
3630.0 1.7996e-08
3650.0 1.7253e-08
3670.0 1.5885e-08
3690.0 1.5133e-08
3710.0 1.5375e-08
3730.0 1.5881e-08
3750.0 1.6147e-08
3770.0 1.6691e-08
3790.0 1.73e-08
3810.0 1.7017e-08
3830.0 1.5865e-08
3850.0 1.4861e-08
3870.0 1.4389e-08
3890.0 1.4191e-08
3910.0 1.3846e-08
3930.0 1.3684e-08
3950.0 1.4058e-08
3970.0 1.4497e-08
3990.0 1.4641e-08
4010.0 1.4081e-08
4030.0 1.3315e-08
4050.0 1.283e-08
4070.0 1.2419e-08
4090.0 1.2075e-08
4110.0 1.1619e-08
4130.0 1.0918e-08
4150.0 1.0221e-08
4170.0 9.8081e-09
4190.0 9.1312e-09
4210.0 8.2707e-09
4230.0 7.3961e-09
4250.0 6.5725e-09
4270.0 5.9656e-09
4290.0 5.4988e-09
4310.0 5.2554e-09
4330.0 5.248e-09
4350.0 5.2469e-09
4370.0 5.2975e-09
4390.0 5.4767e-09
4410.0 5.6017e-09
4430.0 5.39e-09
4450.0 4.9008e-09
4470.0 4.4815e-09
4490.0 4.2455e-09
4510.0 4.099e-09
4530.0 4.0275e-09
4550.0 3.9679e-09
4570.0 3.953e-09
4590.0 4.0069e-09
4610.0 4.1455e-09
4630.0 4.2285e-09
4650.0 4.2758e-09
4670.0 4.1715e-09
4690.0 3.9309e-09
4710.0 3.6871e-09
4730.0 3.5355e-09
4750.0 3.4412e-09
4770.0 3.4487e-09
4790.0 3.4357e-09
4810.0 3.3616e-09
4830.0 3.3606e-09
4850.0 3.4687e-09
4870.0 3.501e-09
4890.0 3.4368e-09
4910.0 3.364e-09
4930.0 3.1742e-09
4950.0 2.8904e-09
4970.0 2.7026e-09
4990.0 2.5486e-09
5010.0 2.514e-09
5030.0 2.5991e-09
5050.0 2.6668e-09
5070.0 2.766e-09
5090.0 2.9335e-09
5110.0 2.9791e-09
5130.0 3.0045e-09
5150.0 3.0617e-09
5170.0 3.084e-09
5190.0 3.1653e-09
5210.0 3.1826e-09
5230.0 3.1488e-09
5250.0 3.1769e-09
5270.0 3.2232e-09
5290.0 3.2329e-09
5310.0 3.2081e-09
5330.0 3.1479e-09
5350.0 3.1014e-09
5370.0 3.0693e-09
5390.0 3.0307e-09
5410.0 2.9962e-09
5430.0 2.9977e-09
5450.0 3.0386e-09
5470.0 3.0949e-09
5490.0 3.1719e-09
5510.0 3.2691e-09
5530.0 3.3087e-09
5550.0 3.3618e-09
5570.0 3.3616e-09
5590.0 3.2817e-09
5610.0 3.257e-09
5630.0 3.2857e-09
5650.0 3.2444e-09
5670.0 3.1722e-09
5690.0 3.0728e-09
5710.0 3.0718e-09
5730.0 3.1005e-09
5750.0 2.9669e-09
5770.0 2.8159e-09
5790.0 2.5772e-09
5810.0 2.2436e-09
5830.0 2.4265e-09
5850.0 2.7028e-09
5870.0 2.7685e-09
5890.0 2.7841e-09
5910.0 2.799e-09
5930.0 2.796e-09
5950.0 2.7459e-09
5970.0 2.7122e-09
5990.0 2.6685e-09
6010.0 2.5887e-09
6030.0 2.4971e-09
6050.0 2.4588e-09
6070.0 2.4544e-09
6090.0 2.4125e-09
6110.0 2.3289e-09
6130.0 2.2523e-09
6150.0 2.1602e-09
6170.0 2.067e-09
6190.0 1.9847e-09
6210.0 1.9126e-09
6230.0 1.8811e-09
6250.0 1.8412e-09
6270.0 1.8026e-09
6290.0 1.784e-09
6310.0 1.7665e-09
6330.0 1.7261e-09
6350.0 1.6705e-09
6370.0 1.636e-09
6390.0 1.6097e-09
6410.0 1.5618e-09
6430.0 1.5219e-09
6450.0 1.4862e-09
6470.0 1.4521e-09
6490.0 1.4284e-09
6510.0 1.4091e-09
6530.0 1.3714e-09
6550.0 1.3408e-09
6570.0 1.3232e-09
6590.0 1.3174e-09
6610.0 1.3086e-09
6630.0 1.2635e-09
6650.0 1.2303e-09
6670.0 1.2193e-09
6690.0 1.201e-09
6710.0 1.1733e-09
6730.0 1.1641e-09
6750.0 1.1731e-09
6770.0 1.2478e-09
6790.0 1.4098e-09
6810.0 1.3356e-09
6830.0 1.1621e-09
6850.0 1.1192e-09
6870.0 1.1019e-09
6890.0 1.1025e-09
6910.0 1.1052e-09
6930.0 1.1091e-09
6950.0 1.1031e-09
6970.0 1.0753e-09
6990.0 1.0656e-09
7010.0 1.082e-09
7030.0 1.0848e-09
7050.0 1.0688e-09
7070.0 1.0642e-09
7090.0 1.0767e-09
7110.0 1.1011e-09
7130.0 1.1049e-09
7150.0 1.1077e-09
7170.0 1.1138e-09
7190.0 1.1297e-09
7210.0 1.1394e-09
7230.0 1.1467e-09
7250.0 1.1626e-09
7270.0 1.1729e-09
7290.0 1.1892e-09
7310.0 1.2155e-09
7330.0 1.207e-09
7350.0 1.1825e-09
7370.0 1.1625e-09
7390.0 1.1548e-09
7410.0 1.1668e-09
7430.0 1.1803e-09
7450.0 1.1881e-09
7470.0 1.2006e-09
7490.0 1.1925e-09
7510.0 1.1829e-09
7530.0 1.1942e-09
7550.0 1.2415e-09
7570.0 1.2375e-09
7590.0 1.1717e-09
7610.0 1.1557e-09
7630.0 1.2257e-09
7650.0 1.2468e-09
7670.0 1.2637e-09
7690.0 1.318e-09
7710.0 1.3618e-09
7730.0 1.3728e-09
7750.0 1.4465e-09
7770.0 1.4054e-09
7790.0 1.3682e-09
7810.0 1.4555e-09
7830.0 1.5069e-09
7850.0 1.5522e-09
7870.0 1.5768e-09
7890.0 1.5929e-09
7910.0 1.5809e-09
7930.0 1.5938e-09
7950.0 1.6639e-09
7970.0 1.6649e-09
7990.0 1.55e-09
8010.0 1.5608e-09
8030.0 1.5855e-09
8050.0 1.6159e-09
8070.0 1.4689e-09
8090.0 9.9046e-10
8110.0 1.026e-09
8130.0 1.4356e-09
8150.0 1.5465e-09
8170.0 1.6088e-09
8190.0 1.6486e-09
8210.0 1.6223e-09
8230.0 1.7495e-09
8250.0 1.7837e-09
8270.0 1.6962e-09
8290.0 1.6338e-09
8310.0 1.6052e-09
8330.0 1.6804e-09
8350.0 1.7595e-09
8370.0 1.7313e-09
8390.0 1.6522e-09
8410.0 1.6497e-09
8430.0 1.5478e-09
8450.0 1.5748e-09
8470.0 1.7215e-09
8490.0 1.7268e-09
8510.0 1.6005e-09
8530.0 1.5087e-09
8550.0 1.4492e-09
8570.0 1.3614e-09
8590.0 1.4005e-09
8610.0 1.4797e-09
8630.0 1.5233e-09
8650.0 1.5489e-09
8670.0 1.5111e-09
8690.0 1.4755e-09
8710.0 1.3785e-09
8730.0 1.3266e-09
8750.0 1.3744e-09
8770.0 1.3933e-09
8790.0 1.3971e-09
8810.0 1.3824e-09
8830.0 1.4076e-09
8850.0 1.4809e-09
8870.0 1.3836e-09
8890.0 1.3013e-09
8910.0 1.2828e-09
8930.0 1.2148e-09
8950.0 1.1643e-09
8970.0 1.1607e-09
8990.0 1.1121e-09
9010.0 1.0434e-09
9030.0 1.02e-09
9050.0 1.0117e-09
9070.0 1.0044e-09
9090.0 9.9696e-10
9110.0 9.8952e-10
9130.0 9.8204e-10
9150.0 9.7453e-10
9170.0 9.6698e-10
9190.0 9.5942e-10
9210.0 9.5185e-10
9230.0 9.4428e-10
9250.0 9.367e-10
9270.0 9.2913e-10
9290.0 9.2157e-10
9310.0 9.1409e-10
9330.0 9.0672e-10
9350.0 8.9937e-10
9370.0 8.9205e-10
9390.0 8.8476e-10
9410.0 8.7751e-10
9430.0 8.7029e-10
9450.0 8.6311e-10
9470.0 8.5601e-10
9490.0 8.4894e-10
9510.0 8.4189e-10
9530.0 8.3488e-10
9550.0 8.2795e-10
9570.0 8.2107e-10
9590.0 8.1425e-10
9610.0 8.0759e-10
9630.0 8.0101e-10
9650.0 7.9449e-10
9670.0 7.8802e-10
9690.0 7.8162e-10
9710.0 7.7529e-10
9730.0 7.6901e-10
9750.0 7.628e-10
9770.0 7.5666e-10
9790.0 7.5058e-10
9810.0 7.4456e-10
9830.0 7.3862e-10
9850.0 7.327e-10
9870.0 7.2681e-10
9890.0 7.211e-10
9910.0 7.1545e-10
9930.0 7.0983e-10
9950.0 7.0428e-10
9970.0 6.9881e-10
9990.0 6.934e-10
10010.0 6.8804e-10
10030.0 6.8275e-10
10050.0 6.7753e-10
10070.0 6.7236e-10
10090.0 6.6726e-10
10110.0 6.6222e-10
10130.0 6.5724e-10
10150.0 6.5232e-10
10170.0 6.4746e-10
10190.0 6.4267e-10
10210.0 6.3793e-10
10230.0 6.3324e-10
10250.0 6.2862e-10
10270.0 6.2405e-10
10290.0 6.1954e-10
10310.0 6.1508e-10
10330.0 6.1069e-10
10350.0 6.0633e-10
10370.0 6.0204e-10
10390.0 5.9773e-10
10410.0 5.9265e-10
10430.0 5.8734e-10
10450.0 5.8422e-10
10470.0 5.8062e-10
10490.0 5.7695e-10
10510.0 5.7322e-10
10530.0 5.6934e-10
10550.0 5.6551e-10
10570.0 5.6177e-10
10590.0 5.58e-10
10610.0 5.5423e-10
10630.0 5.5059e-10
10650.0 5.4698e-10
10670.0 5.4331e-10
10690.0 5.3973e-10
10710.0 5.3625e-10
10730.0 5.3273e-10
10750.0 5.2919e-10
10770.0 5.2583e-10
10790.0 5.2248e-10
10810.0 5.1908e-10
10830.0 5.1577e-10
10850.0 5.1256e-10
10870.0 5.0924e-10
10890.0 5.0596e-10
10910.0 5.0277e-10
10930.0 4.9957e-10
10950.0 4.9627e-10
10970.0 4.9299e-10
10990.0 4.8975e-10
11010.0 4.3867e-10
11030.0 4.3545e-10
11050.0 4.323e-10
11070.0 4.2911e-10
11090.0 4.2573e-10
11110.0 4.2247e-10
11130.0 4.1921e-10
11150.0 4.1583e-10
11170.0 4.1241e-10
11190.0 4.091e-10
11210.0 4.0571e-10
11230.0 4.0224e-10
11250.0 3.9889e-10
11270.0 3.9563e-10
11290.0 3.9232e-10
11310.0 3.8909e-10
11330.0 3.8614e-10
11350.0 3.8324e-10
11370.0 3.8042e-10
11390.0 3.7782e-10
11410.0 3.7537e-10
11430.0 3.7293e-10
11450.0 3.7064e-10
11470.0 3.685e-10
11490.0 3.6638e-10
11510.0 3.6425e-10
11530.0 3.6222e-10
11550.0 3.6021e-10
11570.0 3.5812e-10
11590.0 3.5602e-10
11610.0 3.5395e-10
11630.0 3.5176e-10
11650.0 3.4947e-10
11670.0 3.4723e-10
11690.0 3.4494e-10
11710.0 3.4254e-10
11730.0 3.4013e-10
11750.0 3.3778e-10
11770.0 3.3532e-10
11790.0 3.3284e-10
11810.0 3.3043e-10
11830.0 3.2805e-10
11850.0 3.2558e-10
11870.0 3.2323e-10
11890.0 3.2101e-10
11910.0 3.1879e-10
11930.0 3.1664e-10
11950.0 3.1466e-10
11970.0 3.1276e-10
11990.0 3.1089e-10
12010.0 3.0919e-10
12030.0 3.0763e-10
12050.0 3.0615e-10
12070.0 3.0476e-10
12090.0 3.0355e-10
12110.0 3.0243e-10
12130.0 3.0137e-10
12150.0 3.0042e-10
12170.0 2.9956e-10
12190.0 2.987e-10
12210.0 2.9789e-10
12230.0 2.9712e-10
12250.0 2.9632e-10
12270.0 2.9547e-10
12290.0 2.9457e-10
12310.0 2.9363e-10
12330.0 2.9255e-10
12350.0 2.9136e-10
12370.0 2.9008e-10
12390.0 2.8866e-10
12410.0 2.8701e-10
12430.0 2.8531e-10
12450.0 2.835e-10
12470.0 2.815e-10
12490.0 2.7938e-10
12510.0 2.7726e-10
12530.0 2.7498e-10
12550.0 2.7256e-10
12570.0 2.7015e-10
12590.0 2.6773e-10
12610.0 2.6517e-10
12630.0 2.6259e-10
12650.0 2.6015e-10
12670.0 2.5766e-10
12690.0 2.5514e-10
12710.0 2.5276e-10
12730.0 2.5045e-10
12750.0 2.4809e-10
12770.0 2.4588e-10
12790.0 2.4382e-10
12810.0 2.4181e-10
12830.0 2.3987e-10
12850.0 2.3813e-10
12870.0 2.3652e-10
12890.0 2.3498e-10
12910.0 2.3359e-10
12930.0 2.3238e-10
12950.0 2.3126e-10
12970.0 2.3026e-10
12990.0 2.2946e-10
13010.0 2.2879e-10
13030.0 2.2823e-10
13050.0 2.2782e-10
13070.0 2.2753e-10
13090.0 2.2733e-10
13110.0 2.2721e-10
13130.0 2.2715e-10
13150.0 2.2711e-10
13170.0 2.2708e-10
13190.0 2.2701e-10
13210.0 2.269e-10
13230.0 2.2669e-10
13250.0 2.2638e-10
13270.0 2.2596e-10
13290.0 2.2541e-10
13310.0 2.247e-10
13330.0 2.2385e-10
13350.0 2.2289e-10
13370.0 2.2176e-10
13390.0 2.2046e-10
13410.0 2.1912e-10
13430.0 2.1764e-10
13450.0 2.1601e-10
13470.0 2.1432e-10
13490.0 2.1259e-10
13510.0 2.1066e-10
13530.0 2.0869e-10
13550.0 2.0673e-10
13570.0 2.0468e-10
13590.0 2.0253e-10
13610.0 2.0041e-10
13630.0 1.9832e-10
13650.0 1.9612e-10
13670.0 1.9391e-10
13690.0 1.9177e-10
13710.0 1.896e-10
13730.0 1.8733e-10
13750.0 1.8521e-10
13770.0 1.8314e-10
13790.0 1.8103e-10
13810.0 1.7898e-10
13830.0 1.7707e-10
13850.0 1.7514e-10
13870.0 1.7325e-10
13890.0 1.7148e-10
13910.0 1.6978e-10
13930.0 1.6809e-10
13950.0 1.6647e-10
13970.0 1.65e-10
13990.0 1.6354e-10
14010.0 1.6212e-10
14030.0 1.608e-10
14050.0 1.5955e-10
14070.0 1.5829e-10
14090.0 1.5712e-10
14110.0 1.5603e-10
14130.0 1.5498e-10
14150.0 1.5395e-10
14170.0 1.5302e-10
14190.0 1.5213e-10
14210.0 1.5125e-10
14230.0 1.5042e-10
14250.0 1.4965e-10
14270.0 1.4887e-10
14290.0 1.481e-10
14310.0 1.4738e-10
14330.0 1.4668e-10
14350.0 1.4597e-10
14370.0 1.4529e-10
14390.0 1.4463e-10
14410.0 1.4397e-10
14430.0 1.433e-10
14450.0 1.4267e-10
14470.0 1.4204e-10
14490.0 1.4138e-10
14510.0 1.4075e-10
14530.0 1.4015e-10
14550.0 1.3952e-10
14570.0 1.3888e-10
14590.0 1.3827e-10
14610.0 1.3764e-10
14630.0 1.3698e-10
14650.0 1.3634e-10
14670.0 1.357e-10
14690.0 1.3503e-10
14710.0 1.3434e-10
14730.0 1.3369e-10
14750.0 1.3301e-10
14770.0 1.323e-10
14790.0 1.316e-10
14810.0 1.3091e-10
14830.0 1.3015e-10
14850.0 1.294e-10
14870.0 1.2867e-10
14890.0 1.2791e-10
14910.0 1.2714e-10
14930.0 1.2641e-10
14950.0 1.2572e-10
14970.0 1.2504e-10
14990.0 1.2442e-10
15010.0 1.2388e-10
15030.0 1.2338e-10
15050.0 1.2292e-10
15070.0 1.2254e-10
15090.0 1.2218e-10
15110.0 1.2184e-10
15130.0 1.2151e-10
15150.0 1.212e-10
15170.0 1.2089e-10
15190.0 1.2057e-10
15210.0 1.2027e-10
15230.0 1.1996e-10
15250.0 1.1964e-10
15270.0 1.1933e-10
15290.0 1.1903e-10
15310.0 1.1872e-10
15330.0 1.1841e-10
15350.0 1.1811e-10
15370.0 1.1781e-10
15390.0 1.1749e-10
15410.0 1.1718e-10
15430.0 1.1688e-10
15450.0 1.1657e-10
15470.0 1.1626e-10
15490.0 1.1596e-10
15510.0 1.1566e-10
15530.0 1.1535e-10
15550.0 1.1505e-10
15570.0 1.1475e-10
15590.0 1.1444e-10
15610.0 1.1413e-10
15630.0 1.1383e-10
15650.0 1.1353e-10
15670.0 1.1322e-10
15690.0 1.1292e-10
15710.0 1.1263e-10
15730.0 1.1232e-10
15750.0 1.1201e-10
15770.0 1.1172e-10
15790.0 1.1142e-10
15810.0 1.1111e-10
15830.0 1.1081e-10
15850.0 1.1052e-10
15870.0 1.1021e-10
15890.0 1.0991e-10
15910.0 1.0962e-10
15930.0 1.0932e-10
15950.0 1.0901e-10
15970.0 1.0872e-10
15990.0 1.0843e-10
16010.0 1.0812e-10
16030.0 1.0782e-10
16050.0 1.0753e-10
16070.0 1.0724e-10
16090.0 1.0693e-10
16110.0 1.0664e-10
16130.0 1.0635e-10
16150.0 1.0605e-10
16170.0 1.0575e-10
16190.0 1.0546e-10
16210.0 1.0517e-10
16230.0 1.0486e-10
16250.0 1.0457e-10
16270.0 1.0429e-10
16290.0 1.0399e-10
16310.0 1.0369e-10
16330.0 1.0341e-10
16350.0 1.0311e-10
16370.0 1.0281e-10
16390.0 1.0252e-10
16410.0 1.0223e-10
16430.0 1.0194e-10
16450.0 1.0164e-10
16470.0 1.0136e-10
16490.0 1.0107e-10
16510.0 1.0077e-10
16530.0 1.0048e-10
16550.0 1.002e-10
16570.0 9.9898e-11
16590.0 9.9604e-11
16610.0 9.9324e-11
16630.0 9.9033e-11
16650.0 9.8738e-11
16670.0 9.8454e-11
16690.0 9.8171e-11
16710.0 9.7871e-11
16730.0 9.7581e-11
16750.0 9.7298e-11
16770.0 9.7007e-11
16790.0 9.6712e-11
16810.0 9.643e-11
16830.0 9.6146e-11
16850.0 9.5852e-11
16870.0 9.5565e-11
16890.0 9.5285e-11
16910.0 9.4991e-11
16930.0 9.4695e-11
16950.0 9.4414e-11
16970.0 9.413e-11
16990.0 9.3836e-11
17010.0 9.355e-11
17030.0 9.3272e-11
17050.0 9.298e-11
17070.0 9.2689e-11
17090.0 9.2407e-11
17110.0 9.2123e-11
17130.0 9.1825e-11
17150.0 9.154e-11
17170.0 9.1261e-11
17190.0 9.0971e-11
17210.0 9.0681e-11
17230.0 9.0403e-11
17250.0 9.0117e-11
17270.0 8.9822e-11
17290.0 8.9538e-11
17310.0 8.9257e-11
17330.0 8.8965e-11
17350.0 8.8673e-11
17370.0 8.8396e-11
17390.0 8.8111e-11
17410.0 8.7819e-11
17430.0 8.7536e-11
17450.0 8.7258e-11
17470.0 8.6961e-11
17490.0 8.6672e-11
17510.0 8.6392e-11
17530.0 8.6106e-11
17550.0 8.5813e-11
17570.0 8.5531e-11
17590.0 8.5252e-11
17610.0 8.496e-11
17630.0 8.4672e-11
17650.0 8.4393e-11
17670.0 8.4106e-11
17690.0 8.3807e-11
17710.0 8.3527e-11
17730.0 8.3245e-11
17750.0 8.2954e-11
17770.0 8.2667e-11
17790.0 8.239e-11
17810.0 8.21e-11
17830.0 8.1807e-11
17850.0 8.1524e-11
17870.0 8.1241e-11
17890.0 8.0947e-11
17910.0 8.0657e-11
17930.0 8.038e-11
17950.0 8.0091e-11
17970.0 7.98e-11
17990.0 7.9519e-11
18010.0 7.9237e-11
18030.0 7.8939e-11
18050.0 7.8651e-11
18070.0 7.837e-11
18090.0 7.808e-11
18110.0 7.7786e-11
18130.0 7.7506e-11
18150.0 7.7223e-11
18170.0 7.6929e-11
18190.0 7.6642e-11
18210.0 7.6362e-11
18230.0 7.6068e-11
18250.0 7.5772e-11
18270.0 7.5491e-11
18290.0 7.5206e-11
18310.0 7.4911e-11
18330.0 7.4625e-11
18350.0 7.4346e-11
18370.0 7.4051e-11
18390.0 7.3759e-11
18410.0 7.3476e-11
18430.0 7.3189e-11
18450.0 7.289e-11
18470.0 7.2603e-11
18490.0 7.2321e-11
18510.0 7.2029e-11
18530.0 7.1737e-11
18550.0 7.1457e-11
18570.0 7.1167e-11
18590.0 7.0868e-11
18610.0 7.0581e-11
18630.0 7.0297e-11
18650.0 7.0002e-11
18670.0 6.9707e-11
18690.0 6.9427e-11
18710.0 6.9137e-11
18730.0 6.8842e-11
18750.0 6.8555e-11
18770.0 6.8272e-11
18790.0 6.7971e-11
18810.0 6.7678e-11
18830.0 6.7394e-11
18850.0 6.7103e-11
18870.0 6.6806e-11
18890.0 6.652e-11
18910.0 6.6236e-11
18930.0 6.5938e-11
18950.0 6.5646e-11
18970.0 6.5361e-11
18990.0 6.5069e-11
19010.0 6.4765e-11
19030.0 6.4481e-11
19050.0 6.4194e-11
19070.0 6.3897e-11
19090.0 6.3605e-11
19110.0 6.3323e-11
19130.0 6.3026e-11
19150.0 6.2728e-11
19170.0 6.244e-11
19190.0 6.2152e-11
19210.0 6.1851e-11
19230.0 6.1557e-11
19250.0 6.1274e-11
19270.0 6.0979e-11
19290.0 6.0682e-11
19310.0 6.0396e-11
19330.0 6.0107e-11
19350.0 5.9803e-11
19370.0 5.9511e-11
19390.0 5.9224e-11
19410.0 5.8927e-11
19430.0 5.8628e-11
19450.0 5.8343e-11
19470.0 5.8053e-11
19490.0 5.7753e-11
19510.0 5.7461e-11
19530.0 5.7174e-11
19550.0 5.6874e-11
19570.0 5.6573e-11
19590.0 5.6286e-11
19610.0 5.5994e-11
19630.0 5.5694e-11
19650.0 5.5403e-11
19670.0 5.5117e-11
19690.0 5.4817e-11
19710.0 5.4519e-11
19730.0 5.4231e-11
19750.0 5.3937e-11
19770.0 5.3632e-11
19790.0 5.3341e-11
19810.0 5.3053e-11
19830.0 5.2755e-11
19850.0 5.246e-11
19870.0 5.2176e-11
19890.0 5.1886e-11
19910.0 5.1594e-11
19930.0 5.1323e-11
19950.0 5.1068e-11
19970.0 5.0824e-11
19990.0 5.0607e-11
20010.0 5.0429e-11
20030.0 5.0273e-11
20050.0 5.0145e-11
20070.0 5.0045e-11
20090.0 4.9964e-11
20110.0 4.9893e-11
20130.0 4.9832e-11
20150.0 4.9778e-11
20170.0 4.9724e-11
20190.0 4.9669e-11
20210.0 4.9614e-11
20230.0 4.9557e-11
20250.0 4.9494e-11
20270.0 4.9429e-11
20290.0 4.9362e-11
20310.0 4.9289e-11
20330.0 4.9209e-11
20350.0 4.913e-11
20370.0 4.9047e-11
20390.0 4.8957e-11
20410.0 4.8865e-11
20430.0 4.8773e-11
20450.0 4.8674e-11
20470.0 4.8573e-11
20490.0 4.8474e-11
20510.0 4.8375e-11
20530.0 4.8272e-11
20550.0 4.8173e-11
20570.0 4.8079e-11
20590.0 4.7984e-11
20610.0 4.789e-11
20630.0 4.7802e-11
20650.0 4.7715e-11
20670.0 4.7624e-11
20690.0 4.7538e-11
20710.0 4.7454e-11
20730.0 4.7364e-11
20750.0 4.7271e-11
20770.0 4.7179e-11
20790.0 4.708e-11
20810.0 4.6971e-11
20830.0 4.6858e-11
20850.0 4.6739e-11
20870.0 4.6606e-11
20890.0 4.6464e-11
20910.0 4.6321e-11
20930.0 4.6167e-11
20950.0 4.6002e-11
20970.0 4.5837e-11
20990.0 4.5669e-11
21010.0 4.5489e-11
21030.0 4.5309e-11
21050.0 4.5133e-11
21070.0 4.4954e-11
21090.0 4.4769e-11
21110.0 4.4595e-11
21130.0 4.4424e-11
21150.0 4.4249e-11
21170.0 4.4077e-11
21190.0 4.3914e-11
21210.0 4.3745e-11
21230.0 4.3574e-11
21250.0 4.3409e-11
21270.0 4.3244e-11
21290.0 4.3071e-11
21310.0 4.2898e-11
21330.0 4.2729e-11
21350.0 4.255e-11
21370.0 4.2364e-11
21390.0 4.2172e-11
21410.0 4.1977e-11
21430.0 4.1764e-11
21450.0 4.1552e-11
21470.0 4.1343e-11
21490.0 4.1123e-11
21510.0 4.0895e-11
21530.0 4.0673e-11
21550.0 4.0447e-11
21570.0 4.0208e-11
21590.0 3.9973e-11
21610.0 3.9742e-11
21630.0 3.9502e-11
21650.0 3.9255e-11
21670.0 3.9024e-11
21690.0 3.879e-11
21710.0 3.8549e-11
21730.0 3.8313e-11
21750.0 3.8086e-11
21770.0 3.7846e-11
21790.0 3.7607e-11
21810.0 3.7378e-11
21830.0 3.7146e-11
21850.0 3.6906e-11
21870.0 3.6673e-11
21890.0 3.6448e-11
21910.0 3.6213e-11
21930.0 3.598e-11
21950.0 3.5755e-11
21970.0 3.553e-11
21990.0 3.5296e-11
22010.0 3.5077e-11
22030.0 3.4865e-11
22050.0 3.4651e-11
22070.0 3.4445e-11
22090.0 3.4259e-11
22110.0 3.4076e-11
22130.0 3.3896e-11
22150.0 3.3729e-11
22170.0 3.3573e-11
22190.0 3.3417e-11
22210.0 3.3271e-11
22230.0 3.3139e-11
22250.0 3.301e-11
22270.0 3.2885e-11
22290.0 3.2769e-11
22310.0 3.2659e-11
22330.0 3.2547e-11
22350.0 3.2439e-11
22370.0 3.2337e-11
22390.0 3.2233e-11
22410.0 3.2127e-11
22430.0 3.2025e-11
22450.0 3.1923e-11
22470.0 3.1817e-11
22490.0 3.1711e-11
22510.0 3.1607e-11
22530.0 3.1498e-11
22550.0 3.1386e-11
22570.0 3.1279e-11
22590.0 3.1171e-11
22610.0 3.106e-11
