#lamb flux
1010.0 3.682e-07
1030.0 4.1363e-07
1050.0 4.6588e-07
1070.0 5.247e-07
1090.0 5.9151e-07
1110.0 6.6004e-07
1130.0 7.2901e-07
1150.0 8.0126e-07
1170.0 8.7578e-07
1190.0 9.4645e-07
1210.0 1.0181e-06
1230.0 1.0921e-06
1250.0 1.1646e-06
1270.0 1.235e-06
1290.0 1.3095e-06
1310.0 1.3838e-06
1330.0 1.4551e-06
1350.0 1.5273e-06
1370.0 1.6017e-06
1390.0 1.6743e-06
1410.0 1.7447e-06
1430.0 1.8184e-06
1450.0 1.892e-06
1470.0 1.9631e-06
1490.0 2.035e-06
1510.0 2.1109e-06
1530.0 2.1828e-06
1550.0 2.2538e-06
1570.0 2.3271e-06
1590.0 2.4005e-06
1610.0 2.4706e-06
1630.0 2.5428e-06
1650.0 2.6169e-06
1670.0 2.6885e-06
1690.0 2.759e-06
1710.0 2.8323e-06
1730.0 2.9058e-06
1750.0 2.9747e-06
1770.0 3.0456e-06
1790.0 3.1177e-06
1810.0 3.1872e-06
1830.0 3.2553e-06
1850.0 3.3274e-06
1870.0 3.3972e-06
1890.0 3.4642e-06
1910.0 3.5321e-06
1930.0 3.6013e-06
1950.0 3.6666e-06
1970.0 3.7304e-06
1990.0 3.7961e-06
2010.0 3.8599e-06
2030.0 3.9202e-06
2050.0 3.9816e-06
2070.0 4.0437e-06
2090.0 4.1004e-06
2110.0 4.1557e-06
2130.0 4.2116e-06
2150.0 4.2646e-06
2170.0 4.313e-06
2190.0 4.3621e-06
2210.0 4.4097e-06
2230.0 4.4525e-06
2250.0 4.4929e-06
2270.0 4.5339e-06
2290.0 4.5704e-06
2310.0 4.6017e-06
2330.0 4.6325e-06
2350.0 4.6611e-06
2370.0 4.6846e-06
2390.0 4.7065e-06
2410.0 4.7298e-06
2430.0 4.7506e-06
2450.0 4.7706e-06
2470.0 4.7956e-06
2490.0 4.8288e-06
2510.0 4.8689e-06
2530.0 4.9337e-06
2550.0 5.0493e-06
2570.0 5.2396e-06
2590.0 5.535e-06
2610.0 6.0211e-06
2630.0 6.7131e-06
2650.0 7.5665e-06
2670.0 8.5856e-06
2690.0 9.722e-06
2710.0 1.0802e-05
2730.0 1.1743e-05
2750.0 1.2558e-05
2770.0 1.316e-05
2790.0 1.3548e-05
2810.0 1.379e-05
2830.0 1.3934e-05
2850.0 1.3982e-05
2870.0 1.3986e-05
2890.0 1.3975e-05
2910.0 1.3952e-05
2930.0 1.3915e-05
2950.0 1.3883e-05
2970.0 1.3855e-05
2990.0 1.3822e-05
3010.0 0.00024923
3030.0 0.00024843
3050.0 0.00024762
3070.0 0.00024655
3090.0 0.00024539
3110.0 0.00024385
3130.0 0.00024161
3150.0 0.00023854
3170.0 0.00023438
3190.0 0.00022924
3210.0 0.00022361
3230.0 0.00021799
3250.0 0.00021369
3270.0 0.00021083
3290.0 0.00021097
3310.0 0.00021289
3330.0 0.00021801
3350.0 0.00022533
3370.0 0.000235
3390.0 0.00024673
3410.0 0.00025925
3430.0 0.00027316
3450.0 0.00028895
3470.0 0.0003059
3490.0 0.00032355
3510.0 0.0003432
3530.0 0.00036396
3550.0 0.0003843
3570.0 0.00040513
3590.0 0.0004285
3610.0 0.00045162
3630.0 0.00047653
3650.0 0.00050196
3670.0 0.00052597
3690.0 0.00054444
3710.0 0.00055598
3730.0 0.00055992
3750.0 0.00055585
3770.0 0.00050672
3790.0 0.0004546
3810.0 0.00042438
3830.0 0.00036621
3850.0 0.00026391
3870.0 0.00020256
3890.0 0.00034052
3910.0 0.00054186
3930.0 0.00065604
3950.0 0.00065555
3970.0 0.00065526
3990.0 0.00076858
4010.0 0.00095396
4030.0 0.00098159
4050.0 0.00088365
4070.0 0.0007685
4090.0 0.00072025
4110.0 0.00086416
4130.0 0.00089496
4150.0 0.00085246
4170.0 0.00088014
4190.0 0.00090339
4210.0 0.00089033
4230.0 0.00096651
4250.0 0.0010528
4270.0 0.0010637
4290.0 0.0010802
4310.0 0.0011229
4330.0 0.0012415
4350.0 0.001416
4370.0 0.0016009
4390.0 0.0015421
4410.0 0.0012929
4430.0 0.0010896
4450.0 0.00092698
4470.0 0.00090722
4490.0 0.00098486
4510.0 0.0010778
4530.0 0.0011792
4550.0 0.0013735
4570.0 0.001652
4590.0 0.0020222
4610.0 0.0025413
4630.0 0.0030447
4650.0 0.0031506
4670.0 0.0030897
4690.0 0.0032904
4710.0 0.0034388
4730.0 0.002923
4750.0 0.0021256
4770.0 0.0017445
4790.0 0.0016647
4810.0 0.0015462
4830.0 0.0014662
4850.0 0.0016886
4870.0 0.0021556
4890.0 0.0024456
4910.0 0.0021034
4930.0 0.001878
4950.0 0.002113
4970.0 0.0028145
4990.0 0.0036014
5010.0 0.0037744
5030.0 0.0031257
5050.0 0.0020578
5070.0 0.0014238
5090.0 0.0012663
5110.0 0.0013233
5130.0 0.0014191
5150.0 0.0014939
5170.0 0.0014938
5190.0 0.0014683
5210.0 0.0014207
5230.0 0.0014436
5250.0 0.0015367
5270.0 0.0017943
5290.0 0.0020722
5310.0 0.0022515
5330.0 0.0023093
5350.0 0.002345
5370.0 0.0025461
5390.0 0.0027045
5410.0 0.00263
5430.0 0.0023021
5450.0 0.0021319
5470.0 0.0024029
5490.0 0.0030758
5510.0 0.0038981
5530.0 0.0042963
5550.0 0.0041939
5570.0 0.0038243
5590.0 0.003441
5610.0 0.0031729
5630.0 0.0030069
5650.0 0.0030864
5670.0 0.0030227
5690.0 0.0028376
5710.0 0.0026736
5730.0 0.002398
5750.0 0.0017851
5770.0 0.001565
5790.0 0.0017455
5810.0 0.0021043
5830.0 0.0023554
5850.0 0.0025388
5870.0 0.0025958
5890.0 0.0024996
5910.0 0.0023929
5930.0 0.0024078
5950.0 0.002527
5970.0 0.0026446
5990.0 0.0025112
6010.0 0.0021244
6030.0 0.0017657
6050.0 0.0015402
6070.0 0.0015264
6090.0 0.0017124
6110.0 0.001867
6130.0 0.0017983
6150.0 0.0016894
6170.0 0.0018703
6190.0 0.0022486
6210.0 0.0026981
6230.0 0.0030415
6250.0 0.0030287
6270.0 0.0027323
6290.0 0.0022617
6310.0 0.0018046
6330.0 0.0014487
6350.0 0.001314
6370.0 0.0014328
6390.0 0.0016817
6410.0 0.0019273
6430.0 0.0022293
6450.0 0.0025911
6470.0 0.0032014
6490.0 0.0039258
6510.0 0.00431
6530.0 0.0040069
6550.0 0.0036985
6570.0 0.0036386
6590.0 0.0034965
6610.0 0.0031608
6630.0 0.0028379
6650.0 0.0026235
6670.0 0.0027241
6690.0 0.0027092
6710.0 0.0024019
6730.0 0.002226
6750.0 0.0019795
6770.0 0.0019057
6790.0 0.0020554
6810.0 0.002166
6830.0 0.002219
6850.0 0.002181
6870.0 0.0020908
6890.0 0.0020484
6910.0 0.0019474
6930.0 0.0018397
6950.0 0.0018504
6970.0 0.0018889
6990.0 0.0021029
7010.0 0.0022376
7030.0 0.0020377
7050.0 0.0019088
7070.0 0.001836
7090.0 0.0016519
7110.0 0.001539
7130.0 0.0015665
7150.0 0.0016269
7170.0 0.0017137
7190.0 0.0017164
7210.0 0.0017249
7230.0 0.0018168
7250.0 0.0020923
7270.0 0.0024441
7290.0 0.0026193
7310.0 0.0025379
7330.0 0.0022573
7350.0 0.0020291
7370.0 0.0019954
7390.0 0.0020143
7410.0 0.002088
7430.0 0.0022862
7450.0 0.0024781
7470.0 0.0027462
7490.0 0.0030344
7510.0 0.0027898
7530.0 0.002671
7550.0 0.0022435
7570.0 0.0018857
7590.0 0.0015542
7610.0 0.0014268
7630.0 0.0014931
7650.0 0.0017077
7670.0 0.0018606
7690.0 0.0020989
7710.0 0.00234
7730.0 0.0024473
7750.0 0.0024535
7770.0 0.0024447
7790.0 0.0024092
7810.0 0.0025029
7830.0 0.0024198
7850.0 0.0021593
7870.0 0.0019503
7890.0 0.0018173
7910.0 0.0016394
7930.0 0.001403
7950.0 0.0012845
7970.0 0.0012772
7990.0 0.001337
8010.0 0.0014196
8030.0 0.0014405
8050.0 0.0014348
8070.0 0.0013942
8090.0 0.001388
8110.0 0.0013192
8130.0 0.0012296
8150.0 0.0011562
8170.0 0.0011281
8190.0 0.0011523
8210.0 0.0011555
8230.0 0.0012017
8250.0 0.0011946
8270.0 0.0010679
8290.0 0.00082037
8310.0 0.0005587
8330.0 0.00036853
8350.0 0.00026161
8370.0 0.00031065
8390.0 0.0003438
8410.0 0.00044036
8430.0 0.00053366
8450.0 0.00058477
8470.0 0.00060659
8490.0 0.00062301
8510.0 0.00065088
8530.0 0.00072794
8550.0 0.00080438
8570.0 0.00094521
8590.0 0.0011594
8610.0 0.0013578
8630.0 0.0015874
8650.0 0.0017856
8670.0 0.0017594
8690.0 0.001649
8710.0 0.0015586
8730.0 0.0014733
8750.0 0.0014093
8770.0 0.0013679
8790.0 0.0013255
8810.0 0.001235
8830.0 0.0011138
8850.0 0.00096455
8870.0 0.00082419
8890.0 0.00074455
8910.0 0.00075309
8930.0 0.0007522
8950.0 0.00081686
8970.0 0.00083592
8990.0 0.00086846
9010.0 0.00090071
9030.0 0.0009079
9050.0 0.00091128
9070.0 0.00091382
9090.0 0.0009157
9110.0 0.00091664
9130.0 0.00091813
9150.0 0.0009202
9170.0 0.00092227
9190.0 0.0009243
9210.0 0.00092748
9230.0 0.00092984
9250.0 0.00093256
9270.0 0.00093543
9290.0 0.00093848
9310.0 0.0009418
9330.0 0.00094533
9350.0 0.00094895
9370.0 0.00095279
9390.0 0.00095688
9410.0 0.00096108
9430.0 0.00096538
9450.0 0.00096999
9470.0 0.00097474
9490.0 0.00097959
9510.0 0.00098463
9530.0 0.00098991
9550.0 0.00099521
9570.0 0.0010007
9590.0 0.0010063
9610.0 0.0010121
9630.0 0.001018
9650.0 0.001024
9670.0 0.0010303
9690.0 0.0010366
9710.0 0.0010429
9730.0 0.0010495
9750.0 0.0010562
9770.0 0.0010628
9790.0 0.0010696
9810.0 0.0010766
9830.0 0.0010836
9850.0 0.0010906
9870.0 0.0010978
9890.0 0.0011051
9910.0 0.0011123
9930.0 0.0011196
9950.0 0.001127
9970.0 0.0011344
9990.0 0.0011418
10010.0 0.0011231
10030.0 0.0011303
10050.0 0.0011375
10070.0 0.0011444
10090.0 0.0011518
10110.0 0.001159
10130.0 0.0011663
10150.0 0.0011735
10170.0 0.0011807
10190.0 0.0011877
10210.0 0.0011948
10230.0 0.0012019
10250.0 0.0012087
10270.0 0.0012156
10290.0 0.0012224
10310.0 0.0012291
10330.0 0.0012356
10350.0 0.0012421
10370.0 0.0012486
10390.0 0.0012548
10410.0 0.0012609
10430.0 0.001267
10450.0 0.0012729
10470.0 0.0012786
10490.0 0.0012842
10510.0 0.0012897
10530.0 0.0012948
10550.0 0.0012999
10570.0 0.0013049
10590.0 0.0013097
10610.0 0.0013141
10630.0 0.0013186
10650.0 0.0013228
10670.0 0.0013267
10690.0 0.0013304
10710.0 0.001334
10730.0 0.0013373
10750.0 0.0013402
10770.0 0.0013432
10790.0 0.0013459
10810.0 0.0013482
10830.0 0.0013503
10850.0 0.0013522
10870.0 0.0013534
10890.0 0.0013538
10910.0 0.0013532
10930.0 0.0013508
10950.0 0.0013456
10970.0 0.0013369
10990.0 0.0013247
11010.0 0.00128
11030.0 0.0012575
11050.0 0.0012312
11070.0 0.0012006
11090.0 0.0011643
11110.0 0.0011271
11130.0 0.0010888
11150.0 0.0010479
11170.0 0.0010066
11190.0 0.00096734
11210.0 0.00092789
11230.0 0.00088874
11250.0 0.00085274
11270.0 0.0008195
11290.0 0.00078755
11310.0 0.00075857
11330.0 0.00073407
11350.0 0.00071168
11370.0 0.00069151
11390.0 0.00067428
11410.0 0.00065909
11430.0 0.00064449
11450.0 0.00063108
11470.0 0.00061843
11490.0 0.00060542
11510.0 0.00059149
11530.0 0.00057737
11550.0 0.00056244
11570.0 0.00054592
11590.0 0.00052856
11610.0 0.00051097
11630.0 0.00049216
11650.0 0.00047256
11670.0 0.00045384
11690.0 0.00043547
11710.0 0.00041717
11730.0 0.00040005
11750.0 0.00038467
11770.0 0.00037003
11790.0 0.00035665
11810.0 0.00034506
11830.0 0.00033479
11850.0 0.00032531
11870.0 0.00031718
11890.0 0.0003101
11910.0 0.00030345
11930.0 0.00029714
11950.0 0.00029124
11970.0 0.00028531
11990.0 0.00027904
12010.0 0.00027267
12030.0 0.00026616
12050.0 0.00025922
12070.0 0.00025192
12090.0 0.00024492
12110.0 0.00023789
12130.0 0.00023092
12150.0 0.00022451
12170.0 0.00021884
12190.0 0.00021371
12210.0 0.00020966
12230.0 0.00020683
12250.0 0.00020517
12270.0 0.00020484
12290.0 0.00020584
12310.0 0.000208
12330.0 0.00021151
12350.0 0.00021617
12370.0 0.00022156
12390.0 0.0002278
12410.0 0.00023506
12430.0 0.00024226
12450.0 0.00024949
12470.0 0.00025694
12490.0 0.00026409
12510.0 0.00027043
12530.0 0.00027637
12550.0 0.00028168
12570.0 0.00028587
12590.0 0.00028906
12610.0 0.00029138
12630.0 0.00029259
12650.0 0.00029265
12670.0 0.0002918
12690.0 0.00029
12710.0 0.00028736
12730.0 0.00028403
12750.0 0.0002799
12770.0 0.00027524
12790.0 0.00027022
12810.0 0.00026475
12830.0 0.00025883
12850.0 0.00025287
12870.0 0.00024674
12890.0 0.00024024
12910.0 0.00023366
12930.0 0.00022712
12950.0 0.00022025
12970.0 0.00021313
12990.0 0.00020621
13010.0 0.00019922
13030.0 0.00019201
13050.0 0.00018491
13070.0 0.00017813
13090.0 0.00017124
13110.0 0.00016452
13130.0 0.0001583
13150.0 0.00015243
13170.0 0.00014678
13190.0 0.00014185
13210.0 0.00013763
13230.0 0.00013394
13250.0 0.00013096
13270.0 0.00012879
13290.0 0.00012733
13310.0 0.00012661
13330.0 0.00012664
13350.0 0.00012734
13370.0 0.00012871
13390.0 0.00013071
13410.0 0.00013303
13430.0 0.00013576
13450.0 0.00013887
13470.0 0.00014207
13490.0 0.00014524
13510.0 0.00014863
13530.0 0.00015184
13550.0 0.00015474
13570.0 0.00015744
13590.0 0.00015993
13610.0 0.00016199
13630.0 0.00016365
13650.0 0.00016505
13670.0 0.00016606
13690.0 0.00016667
13710.0 0.00016697
13730.0 0.00016697
13750.0 0.00016663
13770.0 0.00016603
13790.0 0.00016517
13810.0 0.00016408
13830.0 0.00016282
13850.0 0.00016134
13870.0 0.00015965
13890.0 0.00015785
13910.0 0.00015593
13930.0 0.0001538
13950.0 0.00015157
13970.0 0.00014936
13990.0 0.00014702
14010.0 0.00014462
14030.0 0.00014228
14050.0 0.00013999
14070.0 0.00013766
14090.0 0.00013548
14110.0 0.0001335
14130.0 0.00013166
14150.0 0.00012999
14170.0 0.00012864
14190.0 0.00012754
14210.0 0.00012669
14230.0 0.00012616
14250.0 0.00012593
14270.0 0.00012601
14290.0 0.00012641
14310.0 0.00012707
14330.0 0.00012798
14350.0 0.00012918
14370.0 0.00013056
14390.0 0.00013206
14410.0 0.00013376
14430.0 0.00013559
14450.0 0.00013742
14470.0 0.00013932
14490.0 0.00014137
14510.0 0.00014339
14530.0 0.00014541
14550.0 0.00014757
14570.0 0.00014986
14590.0 0.0001522
14610.0 0.00015476
14630.0 0.00015768
14650.0 0.00016078
14670.0 0.00016413
14690.0 0.00016794
14710.0 0.00017218
14730.0 0.00017651
14750.0 0.00018124
14770.0 0.00018639
14790.0 0.00019163
14810.0 0.00019689
14830.0 0.00020257
14850.0 0.00020814
14870.0 0.00021337
14890.0 0.00021846
14910.0 0.00022333
14930.0 0.00022755
14950.0 0.00023116
14970.0 0.00023427
14990.0 0.00023664
15010.0 0.00023828
15030.0 0.00023934
15050.0 0.00023988
15070.0 0.00023999
15090.0 0.00023982
15110.0 0.00023947
15130.0 0.000239
15150.0 0.00023851
15170.0 0.00023796
15190.0 0.0002374
15210.0 0.00023685
15230.0 0.00023631
15250.0 0.00023575
15270.0 0.00023519
15290.0 0.00023468
15310.0 0.00023414
15330.0 0.00023359
15350.0 0.00023307
15370.0 0.00023255
15390.0 0.000232
15410.0 0.00023147
15430.0 0.00023096
15450.0 0.00023043
15470.0 0.00022989
15490.0 0.00022939
15510.0 0.00022888
15530.0 0.00022835
15550.0 0.00022783
15570.0 0.00022733
15590.0 0.0002268
15610.0 0.00022626
15630.0 0.00022576
15650.0 0.00022525
15670.0 0.00022472
15690.0 0.0002242
15710.0 0.0002237
15730.0 0.00022317
15750.0 0.00022264
15770.0 0.00022213
15790.0 0.00022161
15810.0 0.00022106
15830.0 0.00022054
15850.0 0.00022003
15870.0 0.00021949
15890.0 0.00021895
15910.0 0.00021844
15930.0 0.0002179
15950.0 0.00021734
15970.0 0.00021681
15990.0 0.00021628
16010.0 0.00021572
16030.0 0.00021515
16050.0 0.00021463
16070.0 0.00021408
16090.0 0.00021351
16110.0 0.00021295
16130.0 0.00021241
16150.0 0.00021182
16170.0 0.00021124
16190.0 0.00021068
16210.0 0.00021011
16230.0 0.00020951
16250.0 0.00020894
16270.0 0.00020837
16290.0 0.00020776
16310.0 0.00020716
16330.0 0.00020658
16350.0 0.00020598
16370.0 0.00020535
16390.0 0.00020475
16410.0 0.00020415
16430.0 0.00020352
16450.0 0.00020289
16470.0 0.00020229
16490.0 0.00020166
16510.0 0.00020101
16530.0 0.00020038
16550.0 0.00019975
16570.0 0.00019908
16590.0 0.00019842
16610.0 0.00019779
16630.0 0.00019713
16650.0 0.00019646
16670.0 0.0001958
16690.0 0.00019515
16710.0 0.00019445
16730.0 0.00019377
16750.0 0.0001931
16770.0 0.00019241
16790.0 0.0001917
16810.0 0.00019102
16830.0 0.00019033
16850.0 0.00018961
16870.0 0.00018891
16890.0 0.00018821
16910.0 0.00018749
16930.0 0.00018675
16950.0 0.00018604
16970.0 0.00018532
16990.0 0.00018458
17010.0 0.00018384
17030.0 0.00018313
17050.0 0.00018237
17070.0 0.00018162
17090.0 0.00018088
17110.0 0.00018013
17130.0 0.00017935
17150.0 0.0001786
17170.0 0.00017785
17190.0 0.00017708
17210.0 0.0001763
17230.0 0.00017555
17250.0 0.00017477
17270.0 0.00017397
17290.0 0.0001732
17310.0 0.00017242
17330.0 0.00017163
17350.0 0.00017082
17370.0 0.00017005
17390.0 0.00016925
17410.0 0.00016844
17430.0 0.00016765
17450.0 0.00016686
17470.0 0.00016603
17490.0 0.00016522
17510.0 0.00016442
17530.0 0.00016361
17550.0 0.00016278
17570.0 0.00016197
17590.0 0.00016116
17610.0 0.00016033
17630.0 0.0001595
17650.0 0.00015869
17670.0 0.00015786
17690.0 0.000157
17710.0 0.00015619
17730.0 0.00015537
17750.0 0.00015452
17770.0 0.00015369
17790.0 0.00015287
17810.0 0.00015203
17830.0 0.00015117
17850.0 0.00015034
17870.0 0.00014951
17890.0 0.00014865
17910.0 0.0001478
17930.0 0.00014698
17950.0 0.00014613
17970.0 0.00014528
17990.0 0.00014445
18010.0 0.00014361
18030.0 0.00014274
18050.0 0.00014189
18070.0 0.00014106
18090.0 0.00014021
18110.0 0.00013935
18130.0 0.00013852
18150.0 0.00013768
18170.0 0.00013682
18190.0 0.00013597
18210.0 0.00013514
18230.0 0.00013428
18250.0 0.00013342
18270.0 0.00013259
18290.0 0.00013175
18310.0 0.00013089
18330.0 0.00013005
18350.0 0.00012923
18370.0 0.00012837
18390.0 0.00012752
18410.0 0.00012669
18430.0 0.00012585
18450.0 0.00012499
18470.0 0.00012416
18490.0 0.00012334
18510.0 0.00012249
18530.0 0.00012165
18550.0 0.00012083
18570.0 0.00012
18590.0 0.00011915
18610.0 0.00011833
18630.0 0.00011751
18650.0 0.00011667
18670.0 0.00011583
18690.0 0.00011503
18710.0 0.00011421
18730.0 0.00011337
18750.0 0.00011256
18770.0 0.00011176
18790.0 0.00011092
18810.0 0.0001101
18830.0 0.0001093
18850.0 0.00010849
18870.0 0.00010767
18890.0 0.00010687
18910.0 0.00010608
18930.0 0.00010526
18950.0 0.00010446
18970.0 0.00010367
18990.0 0.00010288
19010.0 0.00010205
19030.0 0.00010128
19050.0 0.0001005
19070.0 9.9698e-05
19090.0 9.8912e-05
19110.0 9.8149e-05
19130.0 9.7358e-05
19150.0 9.6566e-05
19170.0 9.5799e-05
19190.0 9.5031e-05
19210.0 9.4243e-05
19230.0 9.3469e-05
19250.0 9.2722e-05
19270.0 9.1953e-05
19290.0 9.1183e-05
19310.0 9.0436e-05
19330.0 8.9687e-05
19350.0 8.8909e-05
19370.0 8.8158e-05
19390.0 8.742e-05
19410.0 8.6667e-05
19430.0 8.591e-05
19450.0 8.5184e-05
19470.0 8.4451e-05
19490.0 8.3701e-05
19510.0 8.297e-05
19530.0 8.2252e-05
19550.0 8.151e-05
19570.0 8.0768e-05
19590.0 8.0059e-05
19610.0 7.9341e-05
19630.0 7.8611e-05
19650.0 7.79e-05
19670.0 7.7202e-05
19690.0 7.6479e-05
19710.0 7.5763e-05
19730.0 7.5069e-05
19750.0 7.4367e-05
19770.0 7.3646e-05
19790.0 7.2954e-05
19810.0 7.2271e-05
19830.0 7.1569e-05
19850.0 7.087e-05
19870.0 7.0188e-05
19890.0 6.9477e-05
19910.0 6.8727e-05
19930.0 6.7966e-05
19950.0 6.7153e-05
19970.0 6.6233e-05
19990.0 6.5212e-05
20010.0 6.5107e-05
20030.0 6.3863e-05
20050.0 6.2493e-05
20070.0 6.1083e-05
20090.0 5.9633e-05
20110.0 5.8073e-05
20130.0 5.6559e-05
20150.0 5.5116e-05
20170.0 5.3676e-05
20190.0 5.2271e-05
20210.0 5.0984e-05
20230.0 4.9768e-05
20250.0 4.8586e-05
20270.0 4.7519e-05
20290.0 4.6569e-05
20310.0 4.5693e-05
20330.0 4.4901e-05
20350.0 4.4262e-05
20370.0 4.372e-05
20390.0 4.3275e-05
20410.0 4.2947e-05
20430.0 4.2728e-05
20450.0 4.2605e-05
20470.0 4.2588e-05
20490.0 4.2662e-05
20510.0 4.2821e-05
20530.0 4.3073e-05
20550.0 4.3391e-05
20570.0 4.3756e-05
20590.0 4.4192e-05
20610.0 4.4679e-05
20630.0 4.5181e-05
20650.0 4.5719e-05
20670.0 4.6311e-05
20690.0 4.6889e-05
20710.0 4.7465e-05
20730.0 4.8066e-05
20750.0 4.8673e-05
20770.0 4.9248e-05
20790.0 4.9836e-05
20810.0 5.0442e-05
20830.0 5.1031e-05
20850.0 5.1611e-05
20870.0 5.2229e-05
20890.0 5.2855e-05
20910.0 5.3457e-05
20930.0 5.4086e-05
20950.0 5.4745e-05
20970.0 5.5392e-05
20990.0 5.6036e-05
21010.0 5.6723e-05
21030.0 5.7399e-05
21050.0 5.8047e-05
21070.0 5.8696e-05
21090.0 5.935e-05
21110.0 5.9942e-05
21130.0 6.0496e-05
21150.0 6.1031e-05
21170.0 6.1513e-05
21190.0 6.1925e-05
21210.0 6.23e-05
21230.0 6.2617e-05
21250.0 6.2853e-05
21270.0 6.3021e-05
21290.0 6.3122e-05
21310.0 6.3143e-05
21330.0 6.3085e-05
21350.0 6.2948e-05
21370.0 6.2724e-05
21390.0 6.2422e-05
21410.0 6.204e-05
21430.0 6.1547e-05
21450.0 6.0982e-05
21470.0 6.0354e-05
21490.0 5.9633e-05
21510.0 5.8829e-05
21530.0 5.7996e-05
21550.0 5.7108e-05
21570.0 5.6144e-05
21590.0 5.5173e-05
21610.0 5.4212e-05
21630.0 5.3225e-05
21650.0 5.223e-05
21670.0 5.1333e-05
21690.0 5.0471e-05
21710.0 4.9652e-05
21730.0 4.8929e-05
21750.0 4.8314e-05
21770.0 4.7766e-05
21790.0 4.7338e-05
21810.0 4.7037e-05
21830.0 4.685e-05
21850.0 4.6783e-05
21870.0 4.684e-05
21890.0 4.7006e-05
21910.0 4.7293e-05
21930.0 4.7693e-05
21950.0 4.8176e-05
21970.0 4.8759e-05
21990.0 4.9463e-05
22010.0 5.0212e-05
22030.0 5.1015e-05
22050.0 5.1903e-05
22070.0 5.284e-05
22090.0 5.3767e-05
22110.0 5.4741e-05
22130.0 5.5753e-05
22150.0 5.6733e-05
22170.0 5.7687e-05
22190.0 5.866e-05
22210.0 5.9589e-05
22230.0 6.0421e-05
22250.0 6.1215e-05
22270.0 6.1949e-05
22290.0 6.2574e-05
22310.0 6.3102e-05
22330.0 6.3552e-05
22350.0 6.3877e-05
22370.0 6.4078e-05
22390.0 6.4161e-05
22410.0 6.4113e-05
22430.0 6.3937e-05
22450.0 6.3639e-05
22470.0 6.3199e-05
22490.0 6.2635e-05
22510.0 6.1973e-05
22530.0 6.1165e-05
22550.0 6.0219e-05
22570.0 5.9206e-05
22590.0 5.8096e-05
22610.0 5.6852e-05
22630.0 5.5536e-05
22650.0 5.4204e-05
22670.0 5.2756e-05
22690.0 5.1235e-05
22710.0 4.9721e-05
22730.0 4.818e-05
22750.0 4.6527e-05
22770.0 4.4929e-05
22790.0 4.3384e-05
22810.0 4.1811e-05
22830.0 4.0257e-05
22850.0 3.8819e-05
22870.0 3.7425e-05
22890.0 3.6059e-05
22910.0 3.4824e-05
22930.0 3.3717e-05
