#lamb flux
1010.0 5.6445e-08
1030.0 6.0906e-08
1050.0 6.6048e-08
1070.0 7.1839e-08
1090.0 7.8419e-08
1110.0 8.5175e-08
1130.0 9.1983e-08
1150.0 9.9123e-08
1170.0 1.065e-07
1190.0 1.1351e-07
1210.0 1.2062e-07
1230.0 1.2798e-07
1250.0 1.3522e-07
1270.0 1.4226e-07
1290.0 1.4971e-07
1310.0 1.5717e-07
1330.0 1.6435e-07
1350.0 1.7163e-07
1370.0 1.7916e-07
1390.0 1.8653e-07
1410.0 1.9371e-07
1430.0 2.0123e-07
1450.0 2.0876e-07
1470.0 2.1608e-07
1490.0 2.2349e-07
1510.0 2.3132e-07
1530.0 2.3878e-07
1550.0 2.4615e-07
1570.0 2.5379e-07
1590.0 2.6144e-07
1610.0 2.6877e-07
1630.0 2.7632e-07
1650.0 2.8406e-07
1670.0 2.9156e-07
1690.0 2.9894e-07
1710.0 3.0659e-07
1730.0 3.1425e-07
1750.0 3.2144e-07
1770.0 3.2879e-07
1790.0 3.3624e-07
1810.0 3.4341e-07
1830.0 3.5038e-07
1850.0 3.5773e-07
1870.0 3.648e-07
1890.0 3.7153e-07
1910.0 3.7832e-07
1930.0 3.8519e-07
1950.0 3.9161e-07
1970.0 3.9784e-07
1990.0 4.0422e-07
2010.0 4.1035e-07
2030.0 4.1611e-07
2050.0 4.2195e-07
2070.0 4.2783e-07
2090.0 4.3317e-07
2110.0 4.3835e-07
2130.0 4.4361e-07
2150.0 4.486e-07
2170.0 4.5316e-07
2190.0 4.5783e-07
2210.0 4.6242e-07
2230.0 4.6662e-07
2250.0 4.7066e-07
2270.0 4.7488e-07
2290.0 4.7877e-07
2310.0 4.8228e-07
2330.0 4.8589e-07
2350.0 4.8944e-07
2370.0 4.9264e-07
2390.0 4.9581e-07
2410.0 4.9921e-07
2430.0 5.0236e-07
2450.0 5.0539e-07
2470.0 5.0873e-07
2490.0 5.1266e-07
2510.0 5.1732e-07
2530.0 5.247e-07
2550.0 5.3798e-07
2570.0 5.6052e-07
2590.0 5.9623e-07
2610.0 6.5521e-07
2630.0 7.4001e-07
2650.0 8.4599e-07
2670.0 9.7425e-07
2690.0 1.12e-06
2710.0 1.2633e-06
2730.0 1.3943e-06
2750.0 1.5153e-06
2770.0 1.6153e-06
2790.0 1.6933e-06
2810.0 1.758e-06
2830.0 1.816e-06
2850.0 1.8649e-06
2870.0 1.9115e-06
2890.0 1.9603e-06
2910.0 2.0099e-06
2930.0 2.0583e-06
2950.0 2.1103e-06
2970.0 2.165e-06
2990.0 2.2189e-06
3010.0 1.2594e-05
3030.0 1.2912e-05
3050.0 1.3225e-05
3070.0 1.3498e-05
3090.0 1.3726e-05
3110.0 1.3843e-05
3130.0 1.3767e-05
3150.0 1.3422e-05
3170.0 1.2653e-05
3190.0 1.145e-05
3210.0 9.8508e-06
3230.0 8.0698e-06
3250.0 9.7021e-06
3270.0 7.8265e-06
3290.0 1.1875e-05
3310.0 7.5922e-06
3330.0 7.6372e-06
3350.0 8.3028e-06
3370.0 9.1228e-06
3390.0 1.0041e-05
3410.0 1.0969e-05
3430.0 1.1951e-05
3450.0 1.2958e-05
3470.0 1.3907e-05
3490.0 1.4645e-05
3510.0 1.6545e-05
3530.0 1.9685e-05
3550.0 1.9556e-05
3570.0 1.7583e-05
3590.0 2.1449e-05
3610.0 1.6912e-05
3630.0 2.2949e-05
3650.0 2.5777e-05
3670.0 3.0645e-05
3690.0 2.9097e-05
3710.0 2.2276e-05
3730.0 2.5947e-05
3750.0 2.6267e-05
3770.0 2.8477e-05
3790.0 2.932e-05
3810.0 3.2457e-05
3830.0 4.8006e-05
3850.0 6.0201e-05
3870.0 7.2607e-05
3890.0 7.3456e-05
3910.0 6.8536e-05
3930.0 6.8954e-05
3950.0 7.2767e-05
3970.0 7.1355e-05
3990.0 4.3307e-05
4010.0 2.634e-05
4030.0 4.5978e-05
4050.0 6.289e-05
4070.0 6.2066e-05
4090.0 3.8514e-05
4110.0 2.7602e-05
4130.0 4.6568e-05
4150.0 5.0933e-05
4170.0 4.3698e-05
4190.0 3.736e-05
4210.0 5.4152e-05
4230.0 4.6024e-05
4250.0 4.5828e-05
4270.0 4.5523e-05
4290.0 4.1485e-05
4310.0 5.1745e-05
4330.0 5.8521e-05
4350.0 5.6122e-05
4370.0 5.0054e-05
4390.0 5.5338e-05
4410.0 5.376e-05
4430.0 3.9805e-05
4450.0 3.2683e-05
4470.0 3.9872e-05
4490.0 3.4849e-05
4510.0 5.0275e-05
4530.0 5.1726e-05
4550.0 5.5111e-05
4570.0 7.1956e-05
4590.0 7.8716e-05
4610.0 8.26e-05
4630.0 0.00011616
4650.0 0.00013613
4670.0 0.00013534
4690.0 0.00011853
4710.0 0.0001197
4730.0 0.00011418
4750.0 8.7242e-05
4770.0 6.9365e-05
4790.0 5.1505e-05
4810.0 6.0211e-05
4830.0 7.0185e-05
4850.0 6.7155e-05
4870.0 4.8848e-05
4890.0 8.0292e-05
4910.0 9.014e-05
4930.0 9.8245e-05
4950.0 0.00011031
4970.0 0.00010087
4990.0 0.00011517
5010.0 0.00012337
5030.0 0.00011975
5050.0 0.00010129
5070.0 7.2421e-05
5090.0 6.0123e-05
5110.0 6.0088e-05
5130.0 6.0994e-05
5150.0 5.9303e-05
5170.0 5.5668e-05
5190.0 6.1219e-05
5210.0 6.2885e-05
5230.0 6.958e-05
5250.0 7.7266e-05
5270.0 7.0199e-05
5290.0 7.8703e-05
5310.0 0.00010448
5330.0 0.00011658
5350.0 0.00010522
5370.0 0.00010218
5390.0 0.0001135
5410.0 0.00012102
5430.0 0.00012189
5450.0 0.00012759
5470.0 0.00013628
5490.0 0.00015451
5510.0 0.0001854
5530.0 0.00019312
5550.0 0.00019682
5570.0 0.00019887
5590.0 0.00019274
5610.0 0.00018191
5630.0 0.00018142
5650.0 0.00018858
5670.0 0.0001831
5690.0 0.00016274
5710.0 0.00016119
5730.0 0.00015371
5750.0 0.00014566
5770.0 0.00012821
5790.0 0.00013111
5810.0 0.00013812
5830.0 0.0001515
5850.0 0.0001465
5870.0 0.00014486
5890.0 0.00015627
5910.0 0.00014482
5930.0 0.00012834
5950.0 0.00012443
5970.0 0.00013217
5990.0 0.00011778
6010.0 0.0001024
6030.0 9.3058e-05
6050.0 8.4475e-05
6070.0 7.4021e-05
6090.0 7.6189e-05
6110.0 8.8919e-05
6130.0 9.3073e-05
6150.0 9.4706e-05
6170.0 9.645e-05
6190.0 9.9444e-05
6210.0 0.00011084
6230.0 0.00013128
6250.0 0.00012181
6270.0 0.00010748
6290.0 9.4505e-05
6310.0 8.0767e-05
6330.0 7.2452e-05
6350.0 6.7849e-05
6370.0 7.1153e-05
6390.0 8.0449e-05
6410.0 9.777e-05
6430.0 0.0001188
6450.0 0.00013148
6470.0 0.00014122
6490.0 0.00016391
6510.0 0.00018193
6530.0 0.000175
6550.0 0.00016688
6570.0 0.00016876
6590.0 0.0001682
6610.0 0.00017055
6630.0 0.00015999
6650.0 0.00014229
6670.0 0.00013541
6690.0 0.00013333
6710.0 0.0001426
6730.0 0.00012534
6750.0 0.00010563
6770.0 0.00010075
6790.0 0.00010736
6810.0 0.0001215
6830.0 0.00012249
6850.0 0.00011147
6870.0 0.00011263
6890.0 0.00011149
6910.0 0.00010489
6930.0 0.00010972
6950.0 0.00010545
6970.0 0.00010188
6990.0 0.00010357
7010.0 0.0001084
7030.0 0.00010649
7050.0 9.9107e-05
7070.0 9.8892e-05
7090.0 8.9049e-05
7110.0 7.6358e-05
7130.0 7.1899e-05
7150.0 7.4712e-05
7170.0 8.5455e-05
7190.0 8.7439e-05
7210.0 8.4094e-05
7230.0 9.0899e-05
7250.0 9.4713e-05
7270.0 9.6251e-05
7290.0 0.00010002
7310.0 0.0001032
7330.0 9.8424e-05
7350.0 9.1276e-05
7370.0 8.4565e-05
7390.0 8.323e-05
7410.0 9.2808e-05
7430.0 0.00010664
7450.0 0.00011583
7470.0 0.00012367
7490.0 0.00014221
7510.0 0.00014083
7530.0 0.00011979
7550.0 0.00010673
7570.0 9.0224e-05
7590.0 8.1282e-05
7610.0 7.8777e-05
7630.0 7.5854e-05
7650.0 8.1645e-05
7670.0 9.2004e-05
7690.0 0.0001006
7710.0 0.00011481
7730.0 0.00011929
7750.0 0.00012347
7770.0 0.00013135
7790.0 0.00013869
7810.0 0.0001373
7830.0 0.0001246
7850.0 0.00012414
7870.0 0.00012049
7890.0 0.00011796
7910.0 0.00010993
7930.0 0.00010595
7950.0 8.8285e-05
7970.0 8.6297e-05
7990.0 8.5308e-05
8010.0 9.717e-05
8030.0 9.7032e-05
8050.0 0.00010271
8070.0 9.9304e-05
8090.0 9.9561e-05
8110.0 9.7888e-05
8130.0 9.5039e-05
8150.0 8.8378e-05
8170.0 8.7171e-05
8190.0 8.7532e-05
8210.0 8.8352e-05
8230.0 7.8535e-05
8250.0 7.2276e-05
8270.0 6.3734e-05
8290.0 5.3844e-05
8310.0 4.6138e-05
8330.0 3.5436e-05
8350.0 2.7966e-05
8370.0 2.6334e-05
8390.0 2.6161e-05
8410.0 2.8293e-05
8430.0 3.6369e-05
8450.0 3.9903e-05
8470.0 4.3078e-05
8490.0 4.972e-05
8510.0 5.3969e-05
8530.0 6.0694e-05
8550.0 7.1749e-05
8570.0 7.9364e-05
8590.0 8.396e-05
8610.0 9.4453e-05
8630.0 0.00010841
8650.0 0.000112
8670.0 0.00011437
8690.0 0.00011714
8710.0 0.00011438
8730.0 0.00010994
8750.0 0.00010118
8770.0 0.00010061
8790.0 9.8497e-05
8810.0 9.0642e-05
8830.0 8.9197e-05
8850.0 8.0059e-05
8870.0 7.5452e-05
8890.0 6.7942e-05
8910.0 7.6021e-05
8930.0 6.9402e-05
8950.0 7.0077e-05
8970.0 7.172e-05
8990.0 7.0089e-05
9010.0 7.1591e-05
9030.0 6.8076e-05
9050.0 6.7797e-05
9070.0 6.7859e-05
9090.0 6.7912e-05
9110.0 6.8014e-05
9130.0 6.8056e-05
9150.0 6.8067e-05
9170.0 6.7915e-05
9190.0 6.7535e-05
9210.0 6.8549e-05
9230.0 6.8328e-05
9250.0 6.8227e-05
9270.0 6.8155e-05
9290.0 6.8102e-05
9310.0 6.8059e-05
9330.0 6.8021e-05
9350.0 6.7988e-05
9370.0 6.7953e-05
9390.0 6.7914e-05
9410.0 6.7874e-05
9430.0 6.7834e-05
9450.0 6.7787e-05
9470.0 6.7739e-05
9490.0 6.7691e-05
9510.0 6.7639e-05
9530.0 6.7584e-05
9550.0 6.7533e-05
9570.0 6.7481e-05
9590.0 6.7426e-05
9610.0 6.7371e-05
9630.0 6.732e-05
9650.0 6.7268e-05
9670.0 6.7212e-05
9690.0 6.7161e-05
9710.0 6.7113e-05
9730.0 6.7062e-05
9750.0 6.7014e-05
9770.0 6.6975e-05
9790.0 6.6931e-05
9810.0 6.6888e-05
9830.0 6.6851e-05
9850.0 6.6818e-05
9870.0 6.6782e-05
9890.0 6.675e-05
9910.0 6.6726e-05
9930.0 6.67e-05
9950.0 6.6598e-05
9970.0 6.6606e-05
9990.0 6.6615e-05
10010.0 6.6614e-05
10030.0 6.6614e-05
10050.0 6.6589e-05
10070.0 6.642e-05
10090.0 6.6479e-05
10110.0 6.6537e-05
10130.0 6.6581e-05
10150.0 6.6618e-05
10170.0 6.6646e-05
10190.0 6.6667e-05
10210.0 6.6693e-05
10230.0 6.6721e-05
10250.0 6.6747e-05
10270.0 6.6775e-05
10290.0 6.6811e-05
10310.0 6.6845e-05
10330.0 6.6879e-05
10350.0 6.692e-05
10370.0 6.6964e-05
10390.0 6.7007e-05
10410.0 6.7052e-05
10430.0 6.7104e-05
10450.0 6.7155e-05
10470.0 6.7205e-05
10490.0 6.7261e-05
10510.0 6.7319e-05
10530.0 6.7373e-05
10550.0 6.7431e-05
10570.0 6.7493e-05
10590.0 6.7554e-05
10610.0 6.7614e-05
10630.0 6.7679e-05
10650.0 6.7744e-05
10670.0 6.7806e-05
10690.0 6.7871e-05
10710.0 6.7938e-05
10730.0 6.8004e-05
10750.0 6.8067e-05
10770.0 6.8135e-05
10790.0 6.8202e-05
10810.0 6.8266e-05
10830.0 6.8329e-05
10850.0 6.8387e-05
10870.0 6.8426e-05
10890.0 6.8434e-05
10910.0 6.8394e-05
10930.0 6.8266e-05
10950.0 6.7989e-05
10970.0 6.7534e-05
10990.0 6.6884e-05
11010.0 6.8411e-05
11030.0 6.7102e-05
11050.0 6.558e-05
11070.0 6.3827e-05
11090.0 6.1799e-05
11110.0 5.9785e-05
11130.0 5.7775e-05
11150.0 5.5724e-05
11170.0 5.374e-05
11190.0 5.1946e-05
11210.0 5.023e-05
11230.0 4.8615e-05
11250.0 4.7206e-05
11270.0 4.5968e-05
11290.0 4.483e-05
11310.0 4.3836e-05
11330.0 4.3014e-05
11350.0 4.2263e-05
11370.0 4.1568e-05
11390.0 4.094e-05
11410.0 4.034e-05
11430.0 3.9702e-05
11450.0 3.9051e-05
11470.0 3.8383e-05
11490.0 3.7654e-05
11510.0 3.6848e-05
11530.0 3.6027e-05
11550.0 3.5171e-05
11570.0 3.4245e-05
11590.0 3.3302e-05
11610.0 3.2376e-05
11630.0 3.1414e-05
11650.0 3.0437e-05
11670.0 2.9523e-05
11690.0 2.8635e-05
11710.0 2.7749e-05
11730.0 2.691e-05
11750.0 2.6139e-05
11770.0 2.5377e-05
11790.0 2.4644e-05
11810.0 2.3968e-05
11830.0 2.3323e-05
11850.0 2.2673e-05
11870.0 2.2066e-05
11890.0 2.1495e-05
11910.0 2.0922e-05
11930.0 2.0352e-05
11950.0 1.9813e-05
11970.0 1.9274e-05
11990.0 1.8719e-05
12010.0 1.8184e-05
12030.0 1.7667e-05
12050.0 1.7146e-05
12070.0 1.6629e-05
12090.0 1.6164e-05
12110.0 1.5717e-05
12130.0 1.5293e-05
12150.0 1.492e-05
12170.0 1.4604e-05
12190.0 1.4327e-05
12210.0 1.4121e-05
12230.0 1.399e-05
12250.0 1.3931e-05
12270.0 1.3952e-05
12290.0 1.4053e-05
12310.0 1.4223e-05
12330.0 1.4475e-05
12350.0 1.4796e-05
12370.0 1.5161e-05
12390.0 1.5575e-05
12410.0 1.6049e-05
12430.0 1.6517e-05
12450.0 1.6983e-05
12470.0 1.7457e-05
12490.0 1.791e-05
12510.0 1.8312e-05
12530.0 1.8689e-05
12550.0 1.9029e-05
12570.0 1.9307e-05
12590.0 1.9532e-05
12610.0 1.9714e-05
12630.0 1.9841e-05
12650.0 1.9915e-05
12670.0 1.9946e-05
12690.0 1.9936e-05
12710.0 1.9889e-05
12730.0 1.9811e-05
12750.0 1.9698e-05
12770.0 1.956e-05
12790.0 1.9403e-05
12810.0 1.9222e-05
12830.0 1.9016e-05
12850.0 1.88e-05
12870.0 1.8566e-05
12890.0 1.8303e-05
12910.0 1.8022e-05
12930.0 1.7729e-05
12950.0 1.7401e-05
12970.0 1.7041e-05
12990.0 1.6675e-05
13010.0 1.6288e-05
13030.0 1.587e-05
13050.0 1.5444e-05
13070.0 1.5027e-05
13090.0 1.4591e-05
13110.0 1.4156e-05
13130.0 1.3749e-05
13150.0 1.3361e-05
13170.0 1.2982e-05
13190.0 1.2651e-05
13210.0 1.2369e-05
13230.0 1.212e-05
13250.0 1.1916e-05
13270.0 1.1765e-05
13290.0 1.1655e-05
13310.0 1.1584e-05
13330.0 1.1553e-05
13350.0 1.1552e-05
13370.0 1.1575e-05
13390.0 1.1614e-05
13410.0 1.1659e-05
13430.0 1.1704e-05
13450.0 1.1742e-05
13470.0 1.1768e-05
13490.0 1.1777e-05
13510.0 1.1767e-05
13530.0 1.1736e-05
13550.0 1.1689e-05
13570.0 1.1625e-05
13590.0 1.1546e-05
13610.0 1.1461e-05
13630.0 1.1374e-05
13650.0 1.1283e-05
13670.0 1.1195e-05
13690.0 1.1115e-05
13710.0 1.1041e-05
13730.0 1.0973e-05
13750.0 1.0916e-05
13770.0 1.0865e-05
13790.0 1.0818e-05
13810.0 1.0773e-05
13830.0 1.0729e-05
13850.0 1.0682e-05
13870.0 1.0628e-05
13890.0 1.0569e-05
13910.0 1.0503e-05
13930.0 1.0425e-05
13950.0 1.0339e-05
13970.0 1.0251e-05
13990.0 1.0156e-05
14010.0 1.0057e-05
14030.0 9.9608e-06
14050.0 9.8685e-06
14070.0 9.7776e-06
14090.0 9.6967e-06
14110.0 9.6264e-06
14130.0 9.5647e-06
14150.0 9.5127e-06
14170.0 9.4727e-06
14190.0 9.4422e-06
14210.0 9.421e-06
14230.0 9.4095e-06
14250.0 9.4068e-06
14270.0 9.4142e-06
14290.0 9.4324e-06
14310.0 9.4588e-06
14330.0 9.4951e-06
14350.0 9.5435e-06
14370.0 9.6003e-06
14390.0 9.6628e-06
14410.0 9.7364e-06
14430.0 9.8171e-06
14450.0 9.8994e-06
14470.0 9.9858e-06
14490.0 1.008e-05
14510.0 1.0174e-05
14530.0 1.0267e-05
14550.0 1.0367e-05
14570.0 1.0474e-05
14590.0 1.0583e-05
14610.0 1.0705e-05
14630.0 1.0845e-05
14650.0 1.0997e-05
14670.0 1.1162e-05
14690.0 1.1354e-05
14710.0 1.1571e-05
14730.0 1.1795e-05
14750.0 1.2042e-05
14770.0 1.2316e-05
14790.0 1.2596e-05
14810.0 1.2879e-05
14830.0 1.3189e-05
14850.0 1.3493e-05
14870.0 1.3779e-05
14890.0 1.4057e-05
14910.0 1.4323e-05
14930.0 1.4552e-05
14950.0 1.4743e-05
14970.0 1.4905e-05
14990.0 1.5021e-05
15010.0 1.5093e-05
15030.0 1.513e-05
15050.0 1.5135e-05
15070.0 1.5112e-05
15090.0 1.5074e-05
15110.0 1.5024e-05
15130.0 1.4967e-05
15150.0 1.4908e-05
15170.0 1.4846e-05
15190.0 1.4782e-05
15210.0 1.472e-05
15230.0 1.4658e-05
15250.0 1.4595e-05
15270.0 1.4533e-05
15290.0 1.4472e-05
15310.0 1.4411e-05
15330.0 1.4349e-05
15350.0 1.4288e-05
15370.0 1.4228e-05
15390.0 1.4166e-05
15410.0 1.4106e-05
15430.0 1.4047e-05
15450.0 1.3987e-05
15470.0 1.3926e-05
15490.0 1.3867e-05
15510.0 1.3809e-05
15530.0 1.375e-05
15550.0 1.3691e-05
15570.0 1.3634e-05
15590.0 1.3575e-05
15610.0 1.3516e-05
15630.0 1.3459e-05
15650.0 1.3402e-05
15670.0 1.3345e-05
15690.0 1.3288e-05
15710.0 1.3233e-05
15730.0 1.3176e-05
15750.0 1.3119e-05
15770.0 1.3064e-05
15790.0 1.3009e-05
15810.0 1.2952e-05
15830.0 1.2897e-05
15850.0 1.2844e-05
15870.0 1.2789e-05
15890.0 1.2734e-05
15910.0 1.2681e-05
15930.0 1.2627e-05
15950.0 1.2573e-05
15970.0 1.2519e-05
15990.0 1.2467e-05
16010.0 1.2414e-05
16030.0 1.236e-05
16050.0 1.2309e-05
16070.0 1.2257e-05
16090.0 1.2204e-05
16110.0 1.2153e-05
16130.0 1.2102e-05
16150.0 1.205e-05
16170.0 1.1998e-05
16190.0 1.1948e-05
16210.0 1.1897e-05
16230.0 1.1846e-05
16250.0 1.1796e-05
16270.0 1.1746e-05
16290.0 1.1696e-05
16310.0 1.1646e-05
16330.0 1.1597e-05
16350.0 1.1547e-05
16370.0 1.1497e-05
16390.0 1.1448e-05
16410.0 1.14e-05
16430.0 1.135e-05
16450.0 1.1302e-05
16470.0 1.1254e-05
16490.0 1.1206e-05
16510.0 1.1157e-05
16530.0 1.1109e-05
16550.0 1.1062e-05
16570.0 1.1013e-05
16590.0 1.0965e-05
16610.0 1.0919e-05
16630.0 1.0871e-05
16650.0 1.0823e-05
16670.0 1.0777e-05
16690.0 1.0731e-05
16710.0 1.0683e-05
16730.0 1.0636e-05
16750.0 1.059e-05
16770.0 1.0543e-05
16790.0 1.0496e-05
16810.0 1.045e-05
16830.0 1.0405e-05
16850.0 1.0358e-05
16870.0 1.0312e-05
16890.0 1.0267e-05
16910.0 1.022e-05
16930.0 1.0174e-05
16950.0 1.0129e-05
16970.0 1.0083e-05
16990.0 1.0037e-05
17010.0 9.9919e-06
17030.0 9.9477e-06
17050.0 9.9018e-06
17070.0 9.8561e-06
17090.0 9.8116e-06
17110.0 9.7669e-06
17130.0 9.7205e-06
17150.0 9.6757e-06
17170.0 9.6318e-06
17190.0 9.5866e-06
17210.0 9.5415e-06
17230.0 9.4979e-06
17250.0 9.4533e-06
17270.0 9.4076e-06
17290.0 9.3634e-06
17310.0 9.3196e-06
17330.0 9.2746e-06
17350.0 9.2294e-06
17370.0 9.1863e-06
17390.0 9.1422e-06
17410.0 9.0973e-06
17430.0 9.0536e-06
17450.0 9.0105e-06
17470.0 8.9651e-06
17490.0 8.9207e-06
17510.0 8.8776e-06
17530.0 8.8337e-06
17550.0 8.7889e-06
17570.0 8.7457e-06
17590.0 8.7028e-06
17610.0 8.6583e-06
17630.0 8.6144e-06
17650.0 8.5717e-06
17670.0 8.528e-06
17690.0 8.4828e-06
17710.0 8.4402e-06
17730.0 8.3973e-06
17750.0 8.3533e-06
17770.0 8.3098e-06
17790.0 8.2678e-06
17810.0 8.224e-06
17830.0 8.18e-06
17850.0 8.1374e-06
17870.0 8.0947e-06
17890.0 8.0507e-06
17910.0 8.0072e-06
17930.0 7.9655e-06
17950.0 7.9224e-06
17970.0 7.8789e-06
17990.0 7.8369e-06
18010.0 7.7947e-06
18030.0 7.7506e-06
18050.0 7.7079e-06
18070.0 7.6661e-06
18090.0 7.6232e-06
18110.0 7.5798e-06
18130.0 7.5383e-06
18150.0 7.4964e-06
18170.0 7.4533e-06
18190.0 7.4112e-06
18210.0 7.3699e-06
18230.0 7.327e-06
18250.0 7.2839e-06
18270.0 7.2427e-06
18290.0 7.2011e-06
18310.0 7.1584e-06
18330.0 7.1168e-06
18350.0 7.0761e-06
18370.0 7.0337e-06
18390.0 6.9916e-06
18410.0 6.9507e-06
18430.0 6.9094e-06
18450.0 6.8666e-06
18470.0 6.8255e-06
18490.0 6.7851e-06
18510.0 6.7435e-06
18530.0 6.702e-06
18550.0 6.662e-06
18570.0 6.621e-06
18590.0 6.5789e-06
18610.0 6.5384e-06
18630.0 6.4983e-06
18650.0 6.4569e-06
18670.0 6.4156e-06
18690.0 6.3763e-06
18710.0 6.3359e-06
18730.0 6.2949e-06
18750.0 6.2551e-06
18770.0 6.2158e-06
18790.0 6.1743e-06
18810.0 6.134e-06
18830.0 6.0949e-06
18850.0 6.055e-06
18870.0 6.0144e-06
18890.0 5.9754e-06
18910.0 5.9366e-06
18930.0 5.8963e-06
18950.0 5.8567e-06
18970.0 5.8183e-06
18990.0 5.7789e-06
19010.0 5.7383e-06
19030.0 5.7001e-06
19050.0 5.6617e-06
19070.0 5.6223e-06
19090.0 5.5835e-06
19110.0 5.546e-06
19130.0 5.5069e-06
19150.0 5.4677e-06
19170.0 5.4299e-06
19190.0 5.392e-06
19210.0 5.3529e-06
19230.0 5.3146e-06
19250.0 5.2778e-06
19270.0 5.2396e-06
19290.0 5.2014e-06
19310.0 5.1645e-06
19330.0 5.1274e-06
19350.0 5.0886e-06
19370.0 5.0513e-06
19390.0 5.0148e-06
19410.0 4.9772e-06
19430.0 4.9395e-06
19450.0 4.9035e-06
19470.0 4.867e-06
19490.0 4.8295e-06
19510.0 4.793e-06
19530.0 4.7573e-06
19550.0 4.7201e-06
19570.0 4.6828e-06
19590.0 4.6475e-06
19610.0 4.6115e-06
19630.0 4.5748e-06
19650.0 4.5392e-06
19670.0 4.5043e-06
19690.0 4.4679e-06
19710.0 4.4318e-06
19730.0 4.397e-06
19750.0 4.3616e-06
19770.0 4.3251e-06
19790.0 4.2902e-06
19810.0 4.2558e-06
19830.0 4.2202e-06
19850.0 4.1846e-06
19870.0 4.1498e-06
19890.0 4.1128e-06
19910.0 4.0727e-06
19930.0 4.0307e-06
19950.0 3.9841e-06
19970.0 3.9286e-06
19990.0 3.8645e-06
20010.0 3.7947e-06
20030.0 3.7137e-06
20050.0 3.6236e-06
20070.0 3.5311e-06
20090.0 3.4372e-06
20110.0 3.3379e-06
20130.0 3.2445e-06
20150.0 3.1586e-06
20170.0 3.0762e-06
20190.0 2.9992e-06
20210.0 2.9324e-06
20230.0 2.8723e-06
20250.0 2.8171e-06
20270.0 2.7705e-06
20290.0 2.7318e-06
20310.0 2.6988e-06
20330.0 2.672e-06
20350.0 2.6534e-06
20370.0 2.6408e-06
20390.0 2.6342e-06
20410.0 2.6341e-06
20430.0 2.6398e-06
20450.0 2.6523e-06
20470.0 2.6714e-06
20490.0 2.6959e-06
20510.0 2.7266e-06
20530.0 2.7645e-06
20550.0 2.8074e-06
20570.0 2.8535e-06
20590.0 2.906e-06
20610.0 2.9625e-06
20630.0 3.0197e-06
20650.0 3.0793e-06
20670.0 3.1429e-06
20690.0 3.2034e-06
20710.0 3.2616e-06
20730.0 3.3194e-06
20750.0 3.3746e-06
20770.0 3.4238e-06
20790.0 3.4705e-06
20810.0 3.5148e-06
20830.0 3.5542e-06
20850.0 3.5901e-06
20870.0 3.6252e-06
20890.0 3.6582e-06
20910.0 3.6884e-06
20930.0 3.7187e-06
20950.0 3.7493e-06
20970.0 3.7789e-06
20990.0 3.8077e-06
21010.0 3.8376e-06
21030.0 3.866e-06
21050.0 3.8919e-06
21070.0 3.9161e-06
21090.0 3.938e-06
21110.0 3.9552e-06
21130.0 3.9682e-06
21150.0 3.9773e-06
21170.0 3.9814e-06
21190.0 3.9809e-06
21210.0 3.9758e-06
21230.0 3.9659e-06
21250.0 3.9523e-06
21270.0 3.9351e-06
21290.0 3.9141e-06
21310.0 3.8904e-06
21330.0 3.8656e-06
21350.0 3.8383e-06
21370.0 3.8092e-06
21390.0 3.7803e-06
21410.0 3.7512e-06
21430.0 3.7205e-06
21450.0 3.6913e-06
21470.0 3.6637e-06
21490.0 3.6365e-06
21510.0 3.6105e-06
21530.0 3.5874e-06
21550.0 3.5661e-06
21570.0 3.5464e-06
21590.0 3.5299e-06
21610.0 3.5165e-06
21630.0 3.5059e-06
21650.0 3.4987e-06
21670.0 3.4954e-06
21690.0 3.4957e-06
21710.0 3.5e-06
21730.0 3.5083e-06
21750.0 3.5202e-06
21770.0 3.5371e-06
21790.0 3.5583e-06
21810.0 3.5828e-06
21830.0 3.6114e-06
21850.0 3.6452e-06
21870.0 3.6817e-06
21890.0 3.7203e-06
21910.0 3.7636e-06
21930.0 3.8098e-06
21950.0 3.8566e-06
21970.0 3.906e-06
21990.0 3.9594e-06
22010.0 4.0111e-06
22030.0 4.0625e-06
22050.0 4.1154e-06
22070.0 4.1675e-06
22090.0 4.2158e-06
22110.0 4.2634e-06
22130.0 4.3093e-06
22150.0 4.3505e-06
22170.0 4.3872e-06
22190.0 4.4209e-06
22210.0 4.4488e-06
22230.0 4.4697e-06
22250.0 4.485e-06
22270.0 4.4936e-06
22290.0 4.4949e-06
22310.0 4.4891e-06
22330.0 4.4752e-06
22350.0 4.4536e-06
22370.0 4.425e-06
22390.0 4.3884e-06
22410.0 4.3428e-06
22430.0 4.2924e-06
22450.0 4.2361e-06
22470.0 4.1715e-06
22490.0 4.1021e-06
22510.0 4.0306e-06
22530.0 3.9519e-06
22550.0 3.8682e-06
22570.0 3.7855e-06
22590.0 3.7009e-06
22610.0 3.6122e-06
