#lamb flux
1010.0 4.9441e-05
1030.0 5.5386e-05
1050.0 6.1286e-05
1070.0 6.7953e-05
1090.0 7.5828e-05
1110.0 8.3899e-05
1130.0 9.2046e-05
1150.0 0.00010063
1170.0 0.00010957
1190.0 0.00011821
1210.0 0.00012716
1230.0 0.00013665
1250.0 0.00014619
1270.0 0.00015583
1290.0 0.00016632
1310.0 0.00017721
1330.0 0.00018812
1350.0 0.00019951
1370.0 0.00021155
1390.0 0.00022367
1410.0 0.00023576
1430.0 0.00024848
1450.0 0.00026133
1470.0 0.00027393
1490.0 0.00028664
1510.0 0.00029985
1530.0 0.0003124
1550.0 0.00032463
1570.0 0.00033697
1590.0 0.00034904
1610.0 0.00036027
1630.0 0.00037131
1650.0 0.00038219
1670.0 0.00039223
1690.0 0.00040162
1710.0 0.00041086
1730.0 0.0004196
1750.0 0.00042715
1770.0 0.00043445
1790.0 0.00044143
1810.0 0.00044757
1830.0 0.00045311
1850.0 0.00045883
1870.0 0.00046395
1890.0 0.00046847
1910.0 0.00047298
1930.0 0.00047757
1950.0 0.00048164
1970.0 0.00048558
1990.0 0.00048985
2010.0 0.00049398
2030.0 0.0004978
2050.0 0.0005019
2070.0 0.00050617
2090.0 0.00050985
2110.0 0.00051337
2130.0 0.00051691
2150.0 0.00051999
2170.0 0.00052233
2190.0 0.00052451
2210.0 0.0005262
2230.0 0.00052697
2250.0 0.00052705
2270.0 0.00052675
2290.0 0.00052547
2310.0 0.00052312
2330.0 0.00052023
2350.0 0.00051661
2370.0 0.00051192
2390.0 0.00050652
2410.0 0.0005006
2430.0 0.00049359
2450.0 0.00048554
2470.0 0.00047665
2490.0 0.00046684
2510.0 0.00045618
2530.0 0.00044574
2550.0 0.00043714
2570.0 0.00043234
2590.0 0.00043346
2610.0 0.00044508
2630.0 0.00046853
2650.0 0.00050161
2670.0 0.00054438
2690.0 0.00059412
2710.0 0.00064088
2730.0 0.00067896
2750.0 0.00070671
2770.0 0.00071637
2790.0 0.00070583
2810.0 0.00067627
2830.0 0.0006269
2850.0 0.00056328
2870.0 0.00048885
2890.0 0.0004041
2910.0 0.00031336
2930.0 0.00022166
2950.0 0.00012491
2970.0 3.3946e-05
2990.0 3.3946e-05
3010.0 6.8931e-05
3030.0 6.8931e-05
3050.0 6.8931e-05
3070.0 6.8931e-05
3090.0 6.8931e-05
3110.0 6.8931e-05
3130.0 6.8931e-05
3150.0 6.8931e-05
3170.0 6.8931e-05
3190.0 6.8931e-05
3210.0 6.8931e-05
3230.0 0.0028021
3250.0 0.0049916
3270.0 0.0046824
3290.0 0.0043708
3310.0 0.0033224
3330.0 0.0032245
3350.0 0.0035611
3370.0 0.0040631
3390.0 0.0046157
3410.0 0.0052084
3430.0 0.0059896
3450.0 0.0067542
3470.0 0.0075463
3490.0 0.0078368
3510.0 0.007118
3530.0 0.0068461
3550.0 0.007575
3570.0 0.0081344
3590.0 0.008816
3610.0 0.0086077
3630.0 0.010428
3650.0 0.011385
3670.0 0.012024
3690.0 0.011946
3710.0 0.010815
3730.0 0.01068
3750.0 0.010145
3770.0 0.0097986
3790.0 0.009228
3810.0 0.0087768
3830.0 0.0090571
3850.0 0.0047992
3870.0 0.0064383
3890.0 0.0074642
3910.0 0.0091759
3930.0 0.011778
3950.0 0.012767
3970.0 0.014262
3990.0 0.017085
4010.0 0.014487
4030.0 0.012464
4050.0 0.0090007
4070.0 0.0084826
4090.0 0.012502
4110.0 0.012503
4130.0 0.013609
4150.0 0.013043
4170.0 0.012351
4190.0 0.011209
4210.0 0.015102
4230.0 0.015949
4250.0 0.017382
4270.0 0.016548
4290.0 0.016314
4310.0 0.017721
4330.0 0.020814
4350.0 0.021725
4370.0 0.021594
4390.0 0.019703
4410.0 0.018178
4430.0 0.014171
4450.0 0.011539
4470.0 0.012459
4490.0 0.014609
4510.0 0.015208
4530.0 0.015329
4550.0 0.015507
4570.0 0.022095
4590.0 0.033072
4610.0 0.038859
4630.0 0.039362
4650.0 0.042445
4670.0 0.049489
4690.0 0.053644
4710.0 0.044719
4730.0 0.034111
4750.0 0.02672
4770.0 0.023039
4790.0 0.021074
4810.0 0.019978
4830.0 0.022144
4850.0 0.026166
4870.0 0.028692
4890.0 0.029967
4910.0 0.028224
4930.0 0.030515
4950.0 0.037243
4970.0 0.043389
4990.0 0.044997
5010.0 0.041435
5030.0 0.034411
5050.0 0.026505
5070.0 0.021139
5090.0 0.019091
5110.0 0.018792
5130.0 0.019139
5150.0 0.019004
5170.0 0.01787
5190.0 0.016765
5210.0 0.016529
5230.0 0.018868
5250.0 0.022658
5270.0 0.027304
5290.0 0.031375
5310.0 0.033833
5330.0 0.03762
5350.0 0.042106
5370.0 0.044009
5390.0 0.040234
5410.0 0.036078
5430.0 0.03565
5450.0 0.04195
5470.0 0.052248
5490.0 0.061331
5510.0 0.06582
5530.0 0.06556
5550.0 0.063333
5570.0 0.061933
5590.0 0.060363
5610.0 0.059985
5630.0 0.060464
5650.0 0.061395
5670.0 0.061015
5690.0 0.05604
5710.0 0.047954
5730.0 0.043511
5750.0 0.042323
5770.0 0.043921
5790.0 0.045963
5810.0 0.048307
5830.0 0.049744
5850.0 0.048182
5870.0 0.046184
5890.0 0.045694
5910.0 0.04803
5930.0 0.050723
5950.0 0.04849
5970.0 0.04346
5990.0 0.036498
6010.0 0.029824
6030.0 0.027537
6050.0 0.029823
6070.0 0.031702
6090.0 0.030223
6110.0 0.026676
6130.0 0.027298
6150.0 0.031759
6170.0 0.036512
6190.0 0.040079
6210.0 0.040657
6230.0 0.040018
6250.0 0.036544
6270.0 0.030546
6290.0 0.025218
6310.0 0.022382
6330.0 0.021867
6350.0 0.022259
6370.0 0.022562
6390.0 0.025375
6410.0 0.03165
6430.0 0.039061
6450.0 0.043824
6470.0 0.045179
6490.0 0.04487
6510.0 0.045799
6530.0 0.047201
6550.0 0.046971
6570.0 0.048741
6590.0 0.049974
6610.0 0.050825
6630.0 0.049975
6650.0 0.04667
6670.0 0.042582
6690.0 0.038722
6710.0 0.036647
6730.0 0.036197
6750.0 0.036852
6770.0 0.037863
6790.0 0.039092
6810.0 0.039922
6830.0 0.03916
6850.0 0.037269
6870.0 0.034914
6890.0 0.034129
6910.0 0.033101
6930.0 0.034257
6950.0 0.036298
6970.0 0.037259
6990.0 0.03795
7010.0 0.036864
7030.0 0.033898
7050.0 0.029993
7070.0 0.026762
7090.0 0.025044
7110.0 0.024827
7130.0 0.024231
7150.0 0.021658
7170.0 0.020548
7190.0 0.022481
7210.0 0.025996
7230.0 0.029977
7250.0 0.031733
7270.0 0.031366
7290.0 0.028929
7310.0 0.026704
7330.0 0.025625
7350.0 0.025697
7370.0 0.026182
7390.0 0.027426
7410.0 0.030389
7430.0 0.03512
7450.0 0.039651
7470.0 0.041823
7490.0 0.040849
7510.0 0.03792
7530.0 0.032753
7550.0 0.029567
7570.0 0.026223
7590.0 0.024518
7610.0 0.02499
7630.0 0.02683
7650.0 0.029467
7670.0 0.032103
7690.0 0.033869
7710.0 0.035701
7730.0 0.037567
7750.0 0.039081
7770.0 0.038472
7790.0 0.038443
7810.0 0.03884
7830.0 0.038411
7850.0 0.036905
7870.0 0.035494
7890.0 0.03546
7910.0 0.034265
7930.0 0.033531
7950.0 0.031579
7970.0 0.030495
7990.0 0.029208
8010.0 0.029445
8030.0 0.029494
8050.0 0.029513
8070.0 0.029001
8090.0 0.02864
8110.0 0.027459
8130.0 0.027257
8150.0 0.026752
8170.0 0.02592
8190.0 0.025227
8210.0 0.024984
8230.0 0.024234
8250.0 0.023608
8270.0 0.021279
8290.0 0.017299
8310.0 0.012946
8330.0 0.0099605
8350.0 0.0092735
8370.0 0.011009
8390.0 0.013289
8410.0 0.014294
8430.0 0.014601
8450.0 0.015285
8470.0 0.016303
8490.0 0.018182
8510.0 0.020659
8530.0 0.02362
8550.0 0.026361
8570.0 0.028581
8590.0 0.030241
8610.0 0.031123
8630.0 0.031045
8650.0 0.030611
8670.0 0.030483
8690.0 0.031878
8710.0 0.03377
8730.0 0.03498
8750.0 0.034705
8770.0 0.035039
8790.0 0.034761
8810.0 0.032516
8830.0 0.030512
8850.0 0.027908
8870.0 0.025801
8890.0 0.025048
8910.0 0.024989
8930.0 0.023521
8950.0 0.021873
8970.0 0.021147
8990.0 0.02089
9010.0 0.020056
9030.0 0.019605
9050.0 0.01944
9070.0 0.019363
9090.0 0.019297
9110.0 0.019234
9130.0 0.01917
9150.0 0.019107
9170.0 0.019037
9190.0 0.018985
9210.0 0.019008
9230.0 0.018912
9250.0 0.018832
9270.0 0.018762
9290.0 0.018698
9310.0 0.018635
9330.0 0.018575
9350.0 0.01852
9370.0 0.018465
9390.0 0.018409
9410.0 0.018355
9430.0 0.018299
9450.0 0.01822
9470.0 0.018149
9490.0 0.01812
9510.0 0.018079
9530.0 0.018035
9550.0 0.017989
9570.0 0.017941
9590.0 0.017892
9610.0 0.017844
9630.0 0.017795
9650.0 0.017747
9670.0 0.017698
9690.0 0.01765
9710.0 0.017602
9730.0 0.017554
9750.0 0.017506
9770.0 0.017459
9790.0 0.017412
9810.0 0.017364
9830.0 0.017316
9850.0 0.017269
9870.0 0.017221
9890.0 0.017173
9910.0 0.017125
9930.0 0.017074
9950.0 0.016893
9970.0 0.016883
9990.0 0.016866
10010.0 0.016843
10030.0 0.01681
10050.0 0.016767
10070.0 0.016722
10090.0 0.016677
10110.0 0.016622
10130.0 0.01657
10150.0 0.016519
10170.0 0.016463
10190.0 0.016402
10210.0 0.016347
10230.0 0.016292
10250.0 0.016232
10270.0 0.016171
10290.0 0.016114
10310.0 0.016052
10330.0 0.015984
10350.0 0.015921
10370.0 0.015858
10390.0 0.015788
10410.0 0.015718
10430.0 0.015653
10450.0 0.015581
10470.0 0.015505
10490.0 0.015433
10510.0 0.01536
10530.0 0.015277
10550.0 0.015196
10570.0 0.015119
10590.0 0.015036
10610.0 0.014948
10630.0 0.014865
10650.0 0.01478
10670.0 0.014685
10690.0 0.014593
10710.0 0.014502
10730.0 0.014405
10750.0 0.014301
10770.0 0.014205
10790.0 0.014106
10810.0 0.013998
10830.0 0.013893
10850.0 0.01379
10870.0 0.013675
10890.0 0.013558
10910.0 0.013444
10930.0 0.013325
10950.0 0.013195
10970.0 0.013063
10990.0 0.012933
11010.0 0.013647
11030.0 0.01349
11050.0 0.013337
11070.0 0.013181
11090.0 0.013014
11110.0 0.012861
11130.0 0.012714
11150.0 0.012564
11170.0 0.012417
11190.0 0.01228
11210.0 0.012141
11230.0 0.012
11250.0 0.011865
11270.0 0.011733
11290.0 0.011596
11310.0 0.011459
11330.0 0.011331
11350.0 0.011199
11370.0 0.011062
11390.0 0.010928
11410.0 0.010794
11430.0 0.010646
11450.0 0.010495
11470.0 0.010343
11490.0 0.01018
11510.0 0.010003
11530.0 0.0098254
11550.0 0.0096417
11570.0 0.0094428
11590.0 0.0092391
11610.0 0.0090371
11630.0 0.0088234
11650.0 0.0086019
11670.0 0.0083899
11690.0 0.0081789
11710.0 0.0079631
11730.0 0.0077537
11750.0 0.0075571
11770.0 0.0073587
11790.0 0.0071642
11810.0 0.0069825
11830.0 0.0068077
11850.0 0.006631
11870.0 0.0064661
11890.0 0.0063124
11910.0 0.00616
11930.0 0.0060117
11950.0 0.0058742
11970.0 0.0057406
11990.0 0.0056071
12010.0 0.0054822
12030.0 0.0053651
12050.0 0.0052504
12070.0 0.00514
12090.0 0.0050422
12110.0 0.00495
12130.0 0.0048635
12150.0 0.0047873
12170.0 0.0047214
12190.0 0.004662
12210.0 0.0046136
12230.0 0.0045767
12250.0 0.0045496
12270.0 0.0045329
12290.0 0.0045269
12310.0 0.0045302
12330.0 0.004544
12350.0 0.0045674
12370.0 0.0045979
12390.0 0.0046369
12410.0 0.0046869
12430.0 0.00474
12450.0 0.0047978
12470.0 0.0048628
12490.0 0.0049315
12510.0 0.0049984
12530.0 0.0050687
12550.0 0.0051405
12570.0 0.0052069
12590.0 0.0052682
12610.0 0.0053266
12630.0 0.0053767
12650.0 0.0054138
12670.0 0.005442
12690.0 0.0054589
12710.0 0.0054621
12730.0 0.0054527
12750.0 0.0054306
12770.0 0.0053954
12790.0 0.0053495
12810.0 0.0052928
12830.0 0.0052258
12850.0 0.0051537
12870.0 0.0050769
12890.0 0.0049941
12910.0 0.0049102
12930.0 0.0048278
12950.0 0.0047436
12970.0 0.0046599
12990.0 0.0045818
13010.0 0.0045062
13030.0 0.0044317
13050.0 0.004361
13070.0 0.0042949
13090.0 0.0042291
13110.0 0.0041648
13130.0 0.0041038
13150.0 0.004044
13170.0 0.0039829
13190.0 0.0039242
13210.0 0.0038678
13230.0 0.003811
13250.0 0.0037553
13270.0 0.0037032
13290.0 0.0036528
13310.0 0.0036041
13330.0 0.0035603
13350.0 0.0035214
13370.0 0.0034865
13390.0 0.0034567
13410.0 0.0034331
13430.0 0.0034138
13450.0 0.0033988
13470.0 0.0033873
13490.0 0.003378
13510.0 0.00337
13530.0 0.0033615
13550.0 0.0033515
13570.0 0.0033388
13590.0 0.003322
13610.0 0.0033012
13630.0 0.0032762
13650.0 0.0032459
13670.0 0.0032113
13690.0 0.0031739
13710.0 0.0031333
13730.0 0.003089
13750.0 0.0030459
13770.0 0.0030033
13790.0 0.0029606
13810.0 0.0029202
13830.0 0.0028838
13850.0 0.0028493
13870.0 0.0028176
13890.0 0.0027903
13910.0 0.0027662
13930.0 0.0027444
13950.0 0.0027254
13970.0 0.0027093
13990.0 0.0026943
14010.0 0.0026804
14030.0 0.0026673
14050.0 0.0026545
14070.0 0.0026407
14090.0 0.0026263
14110.0 0.0026112
14130.0 0.0025944
14150.0 0.0025756
14170.0 0.0025559
14190.0 0.0025349
14210.0 0.0025118
14230.0 0.002488
14250.0 0.0024642
14270.0 0.0024393
14290.0 0.0024144
14310.0 0.0023915
14330.0 0.0023699
14350.0 0.0023495
14370.0 0.0023318
14390.0 0.002317
14410.0 0.0023043
14430.0 0.0022942
14450.0 0.002287
14470.0 0.0022821
14490.0 0.0022792
14510.0 0.0022783
14530.0 0.002279
14550.0 0.0022812
14570.0 0.0022849
14590.0 0.0022897
14610.0 0.0022961
14630.0 0.0023045
14650.0 0.0023146
14670.0 0.0023267
14690.0 0.0023416
14710.0 0.0023596
14730.0 0.0023793
14750.0 0.0024022
14770.0 0.0024289
14790.0 0.0024581
14810.0 0.0024899
14830.0 0.0025272
14850.0 0.0025678
14870.0 0.0026106
14890.0 0.0026574
14910.0 0.0027082
14930.0 0.0027585
14950.0 0.0028073
14970.0 0.0028553
14990.0 0.0028979
15010.0 0.0029329
15030.0 0.0029616
15050.0 0.0029839
15070.0 0.0029992
15090.0 0.0030101
15110.0 0.0030182
15130.0 0.0030243
15150.0 0.0030293
15170.0 0.0030339
15190.0 0.0030384
15210.0 0.0030428
15230.0 0.0030473
15250.0 0.0030519
15270.0 0.0030565
15290.0 0.0030613
15310.0 0.0030662
15330.0 0.0030712
15350.0 0.0030763
15370.0 0.0030814
15390.0 0.0030866
15410.0 0.003092
15430.0 0.0030974
15450.0 0.0031029
15470.0 0.0031084
15490.0 0.0031141
15510.0 0.0031198
15530.0 0.0031256
15550.0 0.0031315
15570.0 0.0031374
15590.0 0.0031434
15610.0 0.0031495
15630.0 0.0031556
15650.0 0.0031618
15670.0 0.003168
15690.0 0.0031743
15710.0 0.0031807
15730.0 0.003187
15750.0 0.0031935
15770.0 0.0031999
15790.0 0.0032065
15810.0 0.003213
15830.0 0.0032196
15850.0 0.0032262
15870.0 0.0032328
15890.0 0.0032395
15910.0 0.0032462
15930.0 0.0032529
15950.0 0.0032596
15970.0 0.0032663
15990.0 0.0032731
16010.0 0.0032799
16030.0 0.0032866
16050.0 0.0032934
16070.0 0.0033002
16090.0 0.0033069
16110.0 0.0033137
16130.0 0.0033204
16150.0 0.0033271
16170.0 0.0033338
16190.0 0.0033405
16210.0 0.0033472
16230.0 0.0033538
16250.0 0.0033605
16270.0 0.0033671
16290.0 0.0033736
16310.0 0.0033801
16330.0 0.0033865
16350.0 0.003393
16370.0 0.0033993
16390.0 0.0034056
16410.0 0.0034119
16430.0 0.003418
16450.0 0.0034242
16470.0 0.0034303
16490.0 0.0034362
16510.0 0.0034421
16530.0 0.003448
16550.0 0.0034538
16570.0 0.0034594
16590.0 0.003465
16610.0 0.0034705
16630.0 0.0034759
16650.0 0.0034812
16670.0 0.0034864
16690.0 0.0034915
16710.0 0.0034965
16730.0 0.0035014
16750.0 0.0035062
16770.0 0.0035108
16790.0 0.0035153
16810.0 0.0035197
16830.0 0.003524
16850.0 0.0035282
16870.0 0.0035322
16890.0 0.0035361
16910.0 0.0035398
16930.0 0.0035434
16950.0 0.0035469
16970.0 0.0035502
16990.0 0.0035533
17010.0 0.0035564
17030.0 0.0035592
17050.0 0.0035619
17070.0 0.0035644
17090.0 0.0035668
17110.0 0.003569
17130.0 0.003571
17150.0 0.0035729
17170.0 0.0035746
17190.0 0.0035761
17210.0 0.0035775
17230.0 0.0035787
17250.0 0.0035797
17270.0 0.0035804
17290.0 0.003581
17310.0 0.0035815
17330.0 0.0035817
17350.0 0.0035817
17370.0 0.0035816
17390.0 0.0035813
17410.0 0.0035808
17430.0 0.0035801
17450.0 0.0035792
17470.0 0.003578
17490.0 0.0035767
17510.0 0.0035752
17530.0 0.0035735
17550.0 0.0035716
17570.0 0.0035695
17590.0 0.0035672
17610.0 0.0035646
17630.0 0.0035619
17650.0 0.003559
17670.0 0.0035559
17690.0 0.0035525
17710.0 0.003549
17730.0 0.0035453
17750.0 0.0035414
17770.0 0.0035373
17790.0 0.003533
17810.0 0.0035284
17830.0 0.0035237
17850.0 0.0035187
17870.0 0.0035136
17890.0 0.0035083
17910.0 0.0035027
17930.0 0.003497
17950.0 0.0034911
17970.0 0.003485
17990.0 0.0034787
18010.0 0.0034723
18030.0 0.0034655
18050.0 0.0034587
18070.0 0.0034517
18090.0 0.0034444
18110.0 0.003437
18130.0 0.0034294
18150.0 0.0034216
18170.0 0.0034137
18190.0 0.0034055
18210.0 0.0033973
18230.0 0.0033888
18250.0 0.0033801
18270.0 0.0033714
18290.0 0.0033624
18310.0 0.0033533
18330.0 0.003344
18350.0 0.0033346
18370.0 0.003325
18390.0 0.0033152
18410.0 0.0033054
18430.0 0.0032953
18450.0 0.0032851
18470.0 0.0032748
18490.0 0.0032644
18510.0 0.0032538
18530.0 0.0032431
18550.0 0.0032323
18570.0 0.0032213
18590.0 0.0032102
18610.0 0.003199
18630.0 0.0031877
18650.0 0.0031763
18670.0 0.0031647
18690.0 0.0031531
18710.0 0.0031414
18730.0 0.0031295
18750.0 0.0031176
18770.0 0.0031055
18790.0 0.0030934
18810.0 0.0030812
18830.0 0.0030689
18850.0 0.0030565
18870.0 0.003044
18890.0 0.0030315
18910.0 0.0030189
18930.0 0.0030063
18950.0 0.0029935
18970.0 0.0029807
18990.0 0.0029679
19010.0 0.0029549
19030.0 0.002942
19050.0 0.002929
19070.0 0.0029159
19090.0 0.0029028
19110.0 0.0028897
19130.0 0.0028765
19150.0 0.0028633
19170.0 0.0028501
19190.0 0.0028368
19210.0 0.0028235
19230.0 0.0028102
19250.0 0.0027969
19270.0 0.0027835
19290.0 0.0027701
19310.0 0.0027567
19330.0 0.0027434
19350.0 0.0027299
19370.0 0.0027165
19390.0 0.0027031
19410.0 0.0026897
19430.0 0.0026763
19450.0 0.0026629
19470.0 0.0026495
19490.0 0.0026361
19510.0 0.0026228
19530.0 0.0026095
19550.0 0.0025961
19570.0 0.0025828
19590.0 0.0025695
19610.0 0.0025562
19630.0 0.002543
19650.0 0.0025298
19670.0 0.0025166
19690.0 0.0025035
19710.0 0.0024903
19730.0 0.0024773
19750.0 0.0024642
19770.0 0.0024512
19790.0 0.0024382
19810.0 0.0024253
19830.0 0.0024123
19850.0 0.0023993
19870.0 0.0023862
19890.0 0.0023725
19910.0 0.002358
19930.0 0.0023422
19950.0 0.0023243
19970.0 0.0023032
19990.0 0.0022782
20010.0 0.00225
20030.0 0.002217
20050.0 0.0021797
20070.0 0.0021399
20090.0 0.0020983
20110.0 0.0020532
20130.0 0.0020086
20150.0 0.0019653
20170.0 0.0019218
20190.0 0.0018788
20210.0 0.0018385
20230.0 0.0017994
20250.0 0.0017607
20270.0 0.0017243
20290.0 0.0016901
20310.0 0.0016568
20330.0 0.0016243
20350.0 0.001595
20370.0 0.0015668
20390.0 0.0015395
20410.0 0.0015141
20430.0 0.0014905
20450.0 0.0014674
20470.0 0.0014458
20490.0 0.001426
20510.0 0.0014073
20530.0 0.0013896
20550.0 0.0013735
20570.0 0.0013588
20590.0 0.0013451
20610.0 0.0013326
20630.0 0.0013213
20650.0 0.0013111
20670.0 0.0013018
20690.0 0.0012936
20710.0 0.0012863
20730.0 0.0012797
20750.0 0.0012738
20770.0 0.0012685
20790.0 0.0012636
20810.0 0.0012591
20830.0 0.0012548
20850.0 0.0012507
20870.0 0.0012466
20890.0 0.0012425
20910.0 0.0012381
20930.0 0.0012335
20950.0 0.0012286
20970.0 0.0012233
20990.0 0.0012175
21010.0 0.0012112
21030.0 0.0012043
21050.0 0.0011968
21070.0 0.0011888
21090.0 0.0011801
21110.0 0.0011709
21130.0 0.0011613
21150.0 0.001151
21170.0 0.0011403
21190.0 0.0011295
21210.0 0.001118
21230.0 0.001106
21250.0 0.0010941
21270.0 0.0010821
21290.0 0.0010696
21310.0 0.0010571
21330.0 0.0010449
21350.0 0.0010326
21370.0 0.0010202
21390.0 0.0010083
21410.0 0.00099664
21430.0 0.00098493
21450.0 0.00097388
21470.0 0.00096352
21490.0 0.00095351
21510.0 0.00094406
21530.0 0.00093549
21550.0 0.00092757
21570.0 0.00092026
21590.0 0.00091384
21610.0 0.00090825
21630.0 0.0009034
21650.0 0.00089937
21670.0 0.00089612
21690.0 0.00089356
21710.0 0.00089174
21730.0 0.0008905
21750.0 0.0008897
21770.0 0.00088955
21790.0 0.00088979
21810.0 0.00089019
21830.0 0.00089083
21850.0 0.00089174
21870.0 0.00089255
21890.0 0.00089318
21910.0 0.00089385
21930.0 0.00089433
21950.0 0.00089442
21970.0 0.00089429
21990.0 0.00089397
22010.0 0.00089314
22030.0 0.00089194
22050.0 0.00089045
22070.0 0.0008886
22090.0 0.00088636
22110.0 0.00088386
22130.0 0.00088108
22150.0 0.00087803
22170.0 0.00087475
22190.0 0.00087124
22210.0 0.00086753
22230.0 0.00086367
22250.0 0.00085962
22270.0 0.00085535
22290.0 0.00085093
22310.0 0.00084633
22330.0 0.00084138
22350.0 0.00083618
22370.0 0.00083074
22390.0 0.00082489
22410.0 0.00081851
22430.0 0.00081187
22450.0 0.00080479
22470.0 0.00079705
22490.0 0.00078883
22510.0 0.00078031
22530.0 0.00077102
22550.0 0.00076108
22570.0 0.000751
22590.0 0.00074053
22610.0 0.00072943
22630.0 0.00071818
22650.0 0.00070714
22670.0 0.00069568
22690.0 0.00068414
22710.0 0.00067302
22730.0 0.00066211
22750.0 0.00065099
22770.0 0.0006406
22790.0 0.00063086
22810.0 0.00062136
22830.0 0.00061231
22850.0 0.00060411
22870.0 0.00059636
22890.0 0.00058896
22910.0 0.00058226
22930.0 0.00057616
22950.0 0.00057039
22970.0 0.00056498
22990.0 0.00056019
23010.0 0.00055564
23030.0 0.00055128
23050.0 0.00054719
23070.0 0.0005433
23090.0 0.00053935
23110.0 0.00053545
23130.0 0.00053163
23150.0 0.00052772
23170.0 0.00052364
23190.0 0.00051956
23210.0 0.00051546
23230.0 0.00051118
23250.0 0.00050685
23270.0 0.00050261
23290.0 0.00049834
23310.0 0.00049398
23330.0 0.00048986
23350.0 0.00048589
23370.0 0.00048197
23390.0 0.0004782
23410.0 0.0004747
23430.0 0.00047128
23450.0 0.00046794
23470.0 0.00046479
23490.0 0.00046175
23510.0 0.00045872
23530.0 0.00045575
23550.0 0.00045292
23570.0 0.00045008
23590.0 0.00044723
23610.0 0.00044447
23630.0 0.00044176
23650.0 0.00043904
23670.0 0.00043644
23690.0 0.000434
23710.0 0.00043169
23730.0 0.00042957
23750.0 0.00042777
23770.0 0.00042628
23790.0 0.00042517
23810.0 0.00042453
23830.0 0.00042436
23850.0 0.00042482
23870.0 0.00042596
23890.0 0.00042768
23910.0 0.00043007
23930.0 0.0004333
23950.0 0.00043716
23970.0 0.00044144
23990.0 0.00044651
