#lamb flux
1010.0 3.6813e-05
1030.0 3.6966e-05
1050.0 3.7133e-05
1070.0 3.8004e-05
1090.0 4.0397e-05
1110.0 4.2257e-05
1130.0 4.3584e-05
1150.0 4.4648e-05
1170.0 4.5424e-05
1190.0 4.5652e-05
1210.0 4.5703e-05
1230.0 4.5688e-05
1250.0 4.5494e-05
1270.0 4.5146e-05
1290.0 4.492e-05
1310.0 4.4677e-05
1330.0 4.4361e-05
1350.0 4.4143e-05
1370.0 4.4091e-05
1390.0 4.4115e-05
1410.0 4.4253e-05
1430.0 4.4683e-05
1450.0 4.5357e-05
1470.0 4.6256e-05
1490.0 4.7507e-05
1510.0 4.9236e-05
1530.0 5.1299e-05
1550.0 5.3828e-05
1570.0 5.6967e-05
1590.0 6.0731e-05
1610.0 6.5114e-05
1630.0 7.037e-05
1650.0 7.6567e-05
1670.0 8.3681e-05
1690.0 9.1857e-05
1710.0 0.00010134
1730.0 0.0001122
1750.0 0.00012433
1770.0 0.00013814
1790.0 0.00015372
1810.0 0.000171
1830.0 0.00019009
1850.0 0.00021141
1870.0 0.00023464
1890.0 0.0002597
1910.0 0.00028681
1930.0 0.00031595
1950.0 0.00034654
1970.0 0.00037855
1990.0 0.00041211
2010.0 0.00044654
2030.0 0.0004813
2050.0 0.00051659
2070.0 0.00055201
2090.0 0.00058635
2110.0 0.0006197
2130.0 0.00065204
2150.0 0.0006825
2170.0 0.00071046
2190.0 0.00073655
2210.0 0.00076022
2230.0 0.00078079
2250.0 0.00079856
2270.0 0.00081411
2290.0 0.00082655
2310.0 0.00083586
2330.0 0.00084305
2350.0 0.00084804
2370.0 0.00085048
2390.0 0.00085127
2410.0 0.00085123
2430.0 0.00084983
2450.0 0.00084759
2470.0 0.00084566
2490.0 0.00084447
2510.0 0.00084369
2530.0 0.00084574
2550.0 0.00085364
2570.0 0.00086974
2590.0 0.00089733
2610.0 0.00094593
2630.0 0.0010171
2650.0 0.001107
2670.0 0.0012184
2690.0 0.0013499
2710.0 0.0014866
2730.0 0.0016227
2750.0 0.0017657
2770.0 0.0019063
2790.0 0.002041
2810.0 0.0021789
2830.0 0.0023278
2850.0 0.0024729
2870.0 0.0026221
2890.0 0.0027828
2910.0 0.0029495
2930.0 0.0031157
2950.0 0.0032944
2970.0 0.0034838
2990.0 0.0036753
3010.0 0.003873
3030.0 0.0040845
3050.0 0.0043028
3070.0 0.0045155
3090.0 0.0047326
3110.0 0.0049434
3130.0 0.005132
3150.0 0.0052934
3170.0 0.005422
3190.0 0.005512
3210.0 0.0055765
3230.0 0.0056301
3250.0 0.0056932
3270.0 0.0057892
3290.0 0.0059311
3310.0 0.0061305
3330.0 0.0063817
3350.0 0.0066684
3370.0 0.0069857
3390.0 0.0073118
3410.0 0.0076437
3430.0 0.008315
3450.0 0.0088116
3470.0 0.0092503
3490.0 0.0093918
3510.0 0.0092688
3530.0 0.010503
3550.0 0.012494
3570.0 0.013736
3590.0 0.014679
3610.0 0.014802
3630.0 0.014041
3650.0 0.01509
3670.0 0.018051
3690.0 0.020283
3710.0 0.021178
3730.0 0.02168
3750.0 0.022808
3770.0 0.02286
3790.0 0.02191
3810.0 0.020622
3830.0 0.019235
3850.0 0.019181
3870.0 0.020353
3890.0 0.021502
3910.0 0.022392
3930.0 0.022661
3950.0 0.024182
3970.0 0.025834
3990.0 0.024888
4010.0 0.022231
4030.0 0.019744
4050.0 0.019006
4070.0 0.019786
4090.0 0.019947
4110.0 0.019386
4130.0 0.019142
4150.0 0.019649
4170.0 0.02169
4190.0 0.023488
4210.0 0.022753
4230.0 0.021238
4250.0 0.020422
4270.0 0.019958
4290.0 0.020312
4310.0 0.02092
4330.0 0.019923
4350.0 0.017526
4370.0 0.015514
4390.0 0.014134
4410.0 0.013048
4430.0 0.013052
4450.0 0.014198
4470.0 0.015352
4490.0 0.016708
4510.0 0.018901
4530.0 0.023122
4550.0 0.027908
4570.0 0.030781
4590.0 0.032916
4610.0 0.035394
4630.0 0.036592
4650.0 0.034086
4670.0 0.028596
4690.0 0.024306
4710.0 0.022833
4730.0 0.022071
4750.0 0.019778
4770.0 0.017946
4790.0 0.018637
4810.0 0.020254
4830.0 0.020167
4850.0 0.018591
4870.0 0.01821
4890.0 0.018998
4910.0 0.019875
4930.0 0.019852
4950.0 0.019302
4970.0 0.018386
4990.0 0.016899
5010.0 0.015521
5030.0 0.014739
5050.0 0.014377
5070.0 0.014132
5090.0 0.013906
5110.0 0.013886
5130.0 0.014099
5150.0 0.014891
5170.0 0.016445
5190.0 0.018331
5210.0 0.020289
5230.0 0.021454
5250.0 0.022036
5270.0 0.023122
5290.0 0.024172
5310.0 0.024386
5330.0 0.023429
5350.0 0.022329
5370.0 0.022285
5390.0 0.02344
5410.0 0.024549
5430.0 0.024898
5450.0 0.024703
5470.0 0.023935
5490.0 0.023004
5510.0 0.022511
5530.0 0.02256
5550.0 0.022848
5570.0 0.023023
5590.0 0.022293
5610.0 0.020976
5630.0 0.019688
5650.0 0.018672
5670.0 0.018037
5690.0 0.017269
5710.0 0.016676
5730.0 0.016883
5750.0 0.01681
5770.0 0.016422
5790.0 0.01653
5810.0 0.016874
5830.0 0.017192
5850.0 0.01728
5870.0 0.016884
5890.0 0.016125
5910.0 0.015266
5930.0 0.014066
5950.0 0.013202
5970.0 0.013152
5990.0 0.013534
6010.0 0.013668
6030.0 0.013185
6050.0 0.012988
6070.0 0.013489
6090.0 0.014157
6110.0 0.014406
6130.0 0.013913
6150.0 0.013102
6170.0 0.012569
6190.0 0.012042
6210.0 0.011478
6230.0 0.011049
6250.0 0.010917
6270.0 0.011199
6290.0 0.011706
6310.0 0.012358
6330.0 0.013073
6350.0 0.013667
6370.0 0.013933
6390.0 0.013961
6410.0 0.014107
6430.0 0.01428
6450.0 0.014328
6470.0 0.014512
6490.0 0.014734
6510.0 0.014795
6530.0 0.014637
6550.0 0.014223
6570.0 0.0137
6590.0 0.013301
6610.0 0.013005
6630.0 0.012746
6650.0 0.012308
6670.0 0.011788
6690.0 0.011398
6710.0 0.011157
6730.0 0.011083
6750.0 0.010947
6770.0 0.010728
6790.0 0.010561
6810.0 0.010428
6830.0 0.010401
6850.0 0.010409
6870.0 0.010328
6890.0 0.010263
6910.0 0.010048
6930.0 0.0098137
6950.0 0.0097594
6970.0 0.0095948
6990.0 0.0092956
7010.0 0.0091532
7030.0 0.0090384
7050.0 0.008835
7070.0 0.0085939
7090.0 0.0084224
7110.0 0.0085109
7130.0 0.0088422
7150.0 0.0092205
7170.0 0.0094644
7190.0 0.0093934
7210.0 0.0092113
7230.0 0.0090918
7250.0 0.0089714
7270.0 0.0088936
7290.0 0.0087789
7310.0 0.0087225
7330.0 0.0088739
7350.0 0.0090476
7370.0 0.00914
7390.0 0.0090504
7410.0 0.0088292
7430.0 0.008722
7450.0 0.0086239
7470.0 0.0082042
7490.0 0.0078984
7510.0 0.0075709
7530.0 0.007335
7550.0 0.0073111
7570.0 0.0074046
7590.0 0.0073682
7610.0 0.0073023
7630.0 0.0072784
7650.0 0.0072555
7670.0 0.007401
7690.0 0.0076774
7710.0 0.0080041
7730.0 0.008255
7750.0 0.0085007
7770.0 0.0086272
7790.0 0.0086137
7810.0 0.008491
7830.0 0.0085894
7850.0 0.0085848
7870.0 0.0083141
7890.0 0.0080224
7910.0 0.0077748
7930.0 0.0075228
7950.0 0.0073486
7970.0 0.0073274
7990.0 0.0074252
8010.0 0.0073504
8030.0 0.0072718
8050.0 0.0071537
8070.0 0.0070228
8090.0 0.0068859
8110.0 0.0069006
8130.0 0.0069598
8150.0 0.006954
8170.0 0.0069091
8190.0 0.0067714
8210.0 0.0064341
8230.0 0.0060046
8250.0 0.0057415
8270.0 0.0055757
8290.0 0.0054731
8310.0 0.0054934
8330.0 0.0055855
8350.0 0.0054695
8370.0 0.0053467
8390.0 0.0054481
8410.0 0.0057011
8430.0 0.0060703
8450.0 0.0064292
8470.0 0.0065779
8490.0 0.0066956
8510.0 0.0067316
8530.0 0.0067742
8550.0 0.0068589
8570.0 0.0069001
8590.0 0.0069394
8610.0 0.0071365
8630.0 0.0072195
8650.0 0.0070738
8670.0 0.0070753
8690.0 0.0071355
8710.0 0.0071296
8730.0 0.0070746
8750.0 0.0068807
8770.0 0.006797
8790.0 0.0067516
8810.0 0.0066757
8830.0 0.0063047
8850.0 0.0058061
8870.0 0.0054419
8890.0 0.0052373
8910.0 0.0049325
8930.0 0.0045957
8950.0 0.0044261
8970.0 0.0044065
8990.0 0.0044331
9010.0 0.0044131
9030.0 0.004382
9050.0 0.0043532
9070.0 0.0043266
9090.0 0.0043004
9110.0 0.0042743
9130.0 0.0042482
9150.0 0.0042224
9170.0 0.0041965
9190.0 0.0041707
9210.0 0.0041448
9230.0 0.0041193
9250.0 0.004094
9270.0 0.0040686
9290.0 0.0040434
9310.0 0.0040183
9330.0 0.0039933
9350.0 0.0039684
9370.0 0.0039436
9390.0 0.0039189
9410.0 0.0038943
9430.0 0.0038697
9450.0 0.0038443
9470.0 0.0038196
9490.0 0.0037965
9510.0 0.0037728
9530.0 0.0037494
9550.0 0.0037257
9570.0 0.0037021
9590.0 0.0036788
9610.0 0.0036555
9630.0 0.0036322
9650.0 0.0036091
9670.0 0.0035862
9690.0 0.0035634
9710.0 0.0035406
9730.0 0.0035181
9750.0 0.0034956
9770.0 0.0034731
9790.0 0.0034509
9810.0 0.0034288
9830.0 0.0034063
9850.0 0.0033814
9870.0 0.0033603
9890.0 0.0033396
9910.0 0.0033186
9930.0 0.0032971
9950.0 0.0032765
9970.0 0.0032552
9990.0 0.0032336
10010.0 0.0032094
10030.0 0.0031872
10050.0 0.0031678
10070.0 0.0031482
10090.0 0.0031285
10110.0 0.0031072
10130.0 0.0030815
10150.0 0.003062
10170.0 0.0030435
10190.0 0.0030236
10210.0 0.0030042
10230.0 0.0029848
10250.0 0.0029644
10270.0 0.002944
10290.0 0.0029244
10310.0 0.0029041
10330.0 0.0028832
10350.0 0.0028632
10370.0 0.0028434
10390.0 0.0028229
10410.0 0.0028025
10430.0 0.002783
10450.0 0.0027629
10470.0 0.0027424
10490.0 0.0027226
10510.0 0.0027029
10530.0 0.002682
10550.0 0.0026617
10570.0 0.0026422
10590.0 0.002622
10610.0 0.0026014
10630.0 0.0025817
10650.0 0.0025619
10670.0 0.0025411
10690.0 0.0025208
10710.0 0.002501
10730.0 0.0024806
10750.0 0.0024594
10770.0 0.0024396
10790.0 0.0024195
10810.0 0.0023987
10830.0 0.0023783
10850.0 0.0023585
10870.0 0.0023375
10890.0 0.0023166
10910.0 0.0022965
10930.0 0.0022765
10950.0 0.002256
10970.0 0.0022364
10990.0 0.0022179
11010.0 0.0022619
11030.0 0.002245
11050.0 0.0022288
11070.0 0.0022125
11090.0 0.0021952
11110.0 0.0021786
11130.0 0.0021621
11150.0 0.002145
11170.0 0.0021279
11190.0 0.0021116
11210.0 0.0020953
11230.0 0.002079
11250.0 0.0020638
11270.0 0.0020494
11290.0 0.0020351
11310.0 0.0020215
11330.0 0.0020093
11350.0 0.0019974
11370.0 0.0019858
11390.0 0.001975
11410.0 0.0019646
11430.0 0.0019539
11450.0 0.0019434
11470.0 0.0019332
11490.0 0.0019224
11510.0 0.001911
11530.0 0.0018995
11550.0 0.0018875
11570.0 0.0018744
11590.0 0.0018606
11610.0 0.0018464
11630.0 0.001831
11650.0 0.0018144
11670.0 0.0017977
11690.0 0.0017804
11710.0 0.0017619
11730.0 0.0017432
11750.0 0.0017248
11770.0 0.0017055
11790.0 0.0016858
11810.0 0.0016667
11830.0 0.0016477
11850.0 0.0016279
11870.0 0.0016089
11890.0 0.0015908
11910.0 0.0015724
11930.0 0.0015543
11950.0 0.0015373
11970.0 0.0015206
11990.0 0.0015038
12010.0 0.001488
12030.0 0.0014731
12050.0 0.0014585
12070.0 0.0014443
12090.0 0.0014315
12110.0 0.0014193
12130.0 0.0014076
12150.0 0.001397
12170.0 0.0013874
12190.0 0.0013784
12210.0 0.0013705
12230.0 0.0013638
12250.0 0.0013581
12270.0 0.0013534
12290.0 0.0013499
12310.0 0.0013474
12330.0 0.0013459
12350.0 0.0013452
12370.0 0.0013453
12390.0 0.0013459
12410.0 0.0013473
12430.0 0.0013487
12450.0 0.0013502
12470.0 0.0013518
12490.0 0.0013532
12510.0 0.0013541
12530.0 0.0013544
12550.0 0.0013542
12570.0 0.001353
12590.0 0.0013508
12610.0 0.0013476
12630.0 0.0013431
12650.0 0.0013376
12670.0 0.0013309
12690.0 0.0013229
12710.0 0.0013139
12730.0 0.0013041
12750.0 0.0012929
12770.0 0.0012811
12790.0 0.001269
12810.0 0.0012561
12830.0 0.0012425
12850.0 0.0012292
12870.0 0.0012158
12890.0 0.0012019
12910.0 0.0011883
12930.0 0.001175
12950.0 0.0011615
12970.0 0.0011479
12990.0 0.001135
13010.0 0.0011223
13030.0 0.0011095
13050.0 0.001097
13070.0 0.0010851
13090.0 0.0010731
13110.0 0.0010613
13130.0 0.0010502
13150.0 0.0010394
13170.0 0.0010286
13190.0 0.0010186
13210.0 0.0010092
13230.0 0.0010002
13250.0 0.00099151
13270.0 0.00098361
13290.0 0.00097604
13310.0 0.00096862
13330.0 0.00096171
13350.0 0.00095516
13370.0 0.00094864
13390.0 0.00094214
13410.0 0.000936
13430.0 0.00092977
13450.0 0.00092335
13470.0 0.00091698
13490.0 0.00091065
13510.0 0.00090387
13530.0 0.00089702
13550.0 0.00089027
13570.0 0.00088333
13590.0 0.00087611
13610.0 0.00086901
13630.0 0.00086201
13650.0 0.0008547
13670.0 0.00084741
13690.0 0.00084033
13710.0 0.00083315
13730.0 0.00082565
13750.0 0.00081854
13770.0 0.00081147
13790.0 0.00080419
13810.0 0.00079692
13830.0 0.00078991
13850.0 0.00078265
13870.0 0.00077522
13890.0 0.00076798
13910.0 0.00076077
13930.0 0.00075323
13950.0 0.00074568
13970.0 0.00073845
13990.0 0.00073097
14010.0 0.00072333
14030.0 0.0007159
14050.0 0.0007085
14070.0 0.00070069
14090.0 0.00069308
14110.0 0.0006857
14130.0 0.00067821
14150.0 0.00067064
14170.0 0.00066356
14190.0 0.00065664
14210.0 0.0006497
14230.0 0.00064312
14250.0 0.00063702
14270.0 0.00063097
14290.0 0.00062517
14310.0 0.00061999
14330.0 0.0006151
14350.0 0.00061038
14370.0 0.00060607
14390.0 0.00060217
14410.0 0.00059836
14430.0 0.00059476
14450.0 0.00059148
14470.0 0.00058836
14490.0 0.00058523
14510.0 0.00058234
14530.0 0.00057964
14550.0 0.00057692
14570.0 0.00057425
14590.0 0.00057177
14610.0 0.00056928
14630.0 0.00056675
14650.0 0.00056438
14670.0 0.00056214
14690.0 0.00055991
14710.0 0.0005578
14730.0 0.00055601
14750.0 0.00055441
14770.0 0.00055305
14790.0 0.0005521
14810.0 0.00055159
14830.0 0.00055152
14850.0 0.00055204
14870.0 0.00055312
14890.0 0.00055476
14910.0 0.00055696
14930.0 0.0005595
14950.0 0.00056223
14970.0 0.00056508
14990.0 0.00056773
15010.0 0.00057001
15030.0 0.00057191
15050.0 0.00057338
15070.0 0.00057442
15090.0 0.00057517
15110.0 0.0005757
15130.0 0.00057611
15150.0 0.00057648
15170.0 0.00057681
15190.0 0.00057712
15210.0 0.00057746
15230.0 0.00057783
15250.0 0.00057818
15270.0 0.00057856
15290.0 0.00057899
15310.0 0.00057942
15330.0 0.00057985
15350.0 0.00058033
15370.0 0.00058082
15390.0 0.0005813
15410.0 0.00058181
15430.0 0.00058236
15450.0 0.0005829
15470.0 0.00058345
15490.0 0.00058405
15510.0 0.00058466
15530.0 0.00058526
15550.0 0.0005859
15570.0 0.00058656
15590.0 0.00058721
15610.0 0.00058787
15630.0 0.00058858
15650.0 0.00058929
15670.0 0.00059
15690.0 0.00059074
15710.0 0.00059151
15730.0 0.00059226
15750.0 0.00059302
15770.0 0.00059383
15790.0 0.00059463
15810.0 0.00059542
15830.0 0.00059625
15850.0 0.0005971
15870.0 0.00059795
15890.0 0.0005988
15910.0 0.00059969
15930.0 0.00060057
15950.0 0.00060145
15970.0 0.00060235
15990.0 0.00060327
16010.0 0.00060418
16030.0 0.0006051
16050.0 0.00060606
16070.0 0.00060701
16090.0 0.00060795
16110.0 0.00060891
16130.0 0.0006099
16150.0 0.00061085
16170.0 0.00061182
16190.0 0.00061283
16210.0 0.00061382
16230.0 0.0006148
16250.0 0.00061581
16270.0 0.00061684
16290.0 0.00061784
16310.0 0.00061885
16330.0 0.00061988
16350.0 0.00062091
16370.0 0.0006219
16390.0 0.00062294
16410.0 0.00062398
16430.0 0.000625
16450.0 0.00062602
16470.0 0.00062708
16490.0 0.0006281
16510.0 0.00062911
16530.0 0.00063015
16550.0 0.00063119
16570.0 0.0006322
16590.0 0.00063321
16610.0 0.00063426
16630.0 0.00063527
16650.0 0.00063628
16670.0 0.0006373
16690.0 0.00063833
16710.0 0.0006393
16730.0 0.00064029
16750.0 0.0006413
16770.0 0.00064228
16790.0 0.00064324
16810.0 0.00064423
16830.0 0.00064521
16850.0 0.00064615
16870.0 0.0006471
16890.0 0.00064806
16910.0 0.00064897
16930.0 0.00064987
16950.0 0.0006508
16970.0 0.0006517
16990.0 0.00065257
17010.0 0.00065345
17030.0 0.00065434
17050.0 0.00065518
17070.0 0.00065601
17090.0 0.00065685
17110.0 0.00065766
17130.0 0.00065843
17150.0 0.00065922
17170.0 0.00066
17190.0 0.00066075
17210.0 0.00066147
17230.0 0.00066221
17250.0 0.00066292
17270.0 0.00066358
17290.0 0.00066425
17310.0 0.00066491
17330.0 0.00066553
17350.0 0.00066612
17370.0 0.00066673
17390.0 0.00066731
17410.0 0.00066784
17430.0 0.00066838
17450.0 0.00066891
17470.0 0.00066937
17490.0 0.00066982
17510.0 0.00067028
17530.0 0.0006707
17550.0 0.00067107
17570.0 0.00067146
17590.0 0.00067183
17610.0 0.00067213
17630.0 0.00067242
17650.0 0.00067272
17670.0 0.00067296
17690.0 0.00067315
17710.0 0.00067336
17730.0 0.00067355
17750.0 0.00067367
17770.0 0.00067379
17790.0 0.0006739
17810.0 0.00067395
17830.0 0.00067396
17850.0 0.00067398
17870.0 0.00067397
17890.0 0.00067389
17910.0 0.0006738
17930.0 0.00067371
17950.0 0.00067357
17970.0 0.00067338
17990.0 0.0006732
18010.0 0.00067298
18030.0 0.00067268
18050.0 0.00067239
18070.0 0.00067208
18090.0 0.00067172
18110.0 0.00067131
18130.0 0.00067091
18150.0 0.00067047
18170.0 0.00066997
18190.0 0.00066946
18210.0 0.00066894
18230.0 0.00066834
18250.0 0.0006677
18270.0 0.00066708
18290.0 0.00066641
18310.0 0.00066568
18330.0 0.00066495
18350.0 0.0006642
18370.0 0.00066337
18390.0 0.00066252
18410.0 0.00066166
18430.0 0.00066076
18450.0 0.00065979
18470.0 0.00065882
18490.0 0.00065784
18510.0 0.00065679
18530.0 0.00065571
18550.0 0.00065463
18570.0 0.00065349
18590.0 0.00065229
18610.0 0.0006511
18630.0 0.00064988
18650.0 0.00064859
18670.0 0.00064728
18690.0 0.00064597
18710.0 0.00064461
18730.0 0.00064319
18750.0 0.00064178
18770.0 0.00064034
18790.0 0.00063881
18810.0 0.00063728
18830.0 0.00063574
18850.0 0.00063415
18870.0 0.00063251
18890.0 0.00063088
18910.0 0.00062922
18930.0 0.00062749
18950.0 0.00062574
18970.0 0.00062399
18990.0 0.00062219
19010.0 0.00062032
19030.0 0.00061848
19050.0 0.00061661
19070.0 0.00061468
19090.0 0.00061273
19110.0 0.00061079
19130.0 0.00060877
19150.0 0.00060672
19170.0 0.00060468
19190.0 0.00060261
19210.0 0.00060048
19230.0 0.00059834
19250.0 0.0005962
19270.0 0.00059401
19290.0 0.00059179
19310.0 0.00058957
19330.0 0.00058732
19350.0 0.000585
19370.0 0.0005827
19390.0 0.00058038
19410.0 0.00057802
19430.0 0.00057562
19450.0 0.00057325
19470.0 0.00057084
19490.0 0.00056838
19510.0 0.00056592
19530.0 0.00056345
19550.0 0.00056093
19570.0 0.00055839
19590.0 0.00055587
19610.0 0.00055331
19630.0 0.00055072
19650.0 0.00054813
19670.0 0.00054553
19690.0 0.00054288
19710.0 0.00054023
19730.0 0.00053758
19750.0 0.0005349
19770.0 0.00053218
19790.0 0.00052947
19810.0 0.00052676
19830.0 0.00052401
19850.0 0.00052122
19870.0 0.00051843
19890.0 0.00051552
19910.0 0.00051246
19930.0 0.00050922
19950.0 0.00050567
19970.0 0.00050163
19990.0 0.00049702
20010.0 0.00049195
20030.0 0.00048616
20050.0 0.00047967
20070.0 0.00047282
20090.0 0.00046564
20110.0 0.00045784
20130.0 0.00045007
20150.0 0.00044242
20170.0 0.00043465
20190.0 0.00042685
20210.0 0.00041943
20230.0 0.00041215
20250.0 0.00040484
20270.0 0.00039787
20290.0 0.00039128
20310.0 0.0003848
20330.0 0.00037847
20350.0 0.00037271
20370.0 0.00036719
20390.0 0.00036186
20410.0 0.0003569
20430.0 0.00035232
20450.0 0.00034788
20470.0 0.00034375
20490.0 0.00033996
20510.0 0.00033642
20530.0 0.00033306
20550.0 0.00032999
20570.0 0.00032716
20590.0 0.00032448
20610.0 0.00032198
20630.0 0.00031965
20650.0 0.00031746
20670.0 0.00031536
20690.0 0.00031338
20710.0 0.00031146
20730.0 0.00030959
20750.0 0.00030773
20770.0 0.00030588
20790.0 0.00030401
20810.0 0.00030208
20830.0 0.0003001
20850.0 0.00029803
20870.0 0.00029586
20890.0 0.00029356
20910.0 0.00029117
20930.0 0.00028864
20950.0 0.00028595
20970.0 0.00028316
20990.0 0.00028026
21010.0 0.00027718
21030.0 0.00027399
21050.0 0.00027075
21070.0 0.00026738
21090.0 0.00026387
21110.0 0.00026039
21130.0 0.00025687
21150.0 0.00025325
21170.0 0.00024963
21190.0 0.00024608
21210.0 0.00024247
21230.0 0.00023884
21250.0 0.00023534
21270.0 0.00023189
21290.0 0.00022844
21310.0 0.00022507
21330.0 0.00022186
21350.0 0.00021867
21370.0 0.00021554
21390.0 0.00021255
21410.0 0.00020965
21430.0 0.00020674
21450.0 0.00020397
21470.0 0.00020132
21490.0 0.0001987
21510.0 0.00019613
21530.0 0.00019367
21550.0 0.00019127
21570.0 0.00018887
21590.0 0.00018654
21610.0 0.00018428
21630.0 0.00018204
21650.0 0.0001798
21670.0 0.00017765
21690.0 0.00017552
21710.0 0.0001734
21730.0 0.00017131
21750.0 0.00016927
21770.0 0.0001672
21790.0 0.00016515
21810.0 0.00016315
21830.0 0.00016114
21850.0 0.00015911
21870.0 0.00015711
21890.0 0.00015514
21910.0 0.00015314
21930.0 0.00015113
21950.0 0.00014915
21970.0 0.00014716
21990.0 0.00014512
22010.0 0.00014312
22030.0 0.00014114
22050.0 0.00013913
22070.0 0.00013713
22090.0 0.00013518
22110.0 0.00013322
22130.0 0.00013125
22150.0 0.00012933
22170.0 0.00012745
22190.0 0.00012556
22210.0 0.0001237
22230.0 0.00012192
22250.0 0.00012015
22270.0 0.00011839
22290.0 0.0001167
22310.0 0.00011505
22330.0 0.00011339
22350.0 0.00011178
22370.0 0.00011021
22390.0 0.00010866
22410.0 0.0001071
22430.0 0.00010561
22450.0 0.00010412
22470.0 0.00010263
22490.0 0.00010116
22510.0 9.9719e-05
22530.0 9.8258e-05
22550.0 9.6789e-05
22570.0 9.5357e-05
22590.0 9.3932e-05
22610.0 9.249e-05
22630.0 9.1066e-05
22650.0 8.9684e-05
22670.0 8.829e-05
22690.0 8.6906e-05
22710.0 8.5568e-05
22730.0 8.4255e-05
22750.0 8.2935e-05
22770.0 8.1673e-05
22790.0 8.0466e-05
22810.0 7.9281e-05
22830.0 7.8136e-05
22850.0 7.7062e-05
22870.0 7.6033e-05
22890.0 7.5047e-05
22910.0 7.4133e-05
22930.0 7.3289e-05
22950.0 7.2503e-05
22970.0 7.1786e-05
22990.0 7.1147e-05
23010.0 7.0573e-05
23030.0 7.0065e-05
23050.0 6.9617e-05
23070.0 6.9219e-05
23090.0 6.8876e-05
23110.0 6.857e-05
23130.0 6.8283e-05
23150.0 6.8016e-05
23170.0 6.7765e-05
23190.0 6.7505e-05
23210.0 6.723e-05
23230.0 6.6952e-05
23250.0 6.6653e-05
23270.0 6.6326e-05
23290.0 6.598e-05
23310.0 6.5614e-05
23330.0 6.5217e-05
23350.0 6.4798e-05
23370.0 6.4359e-05
