#lamb flux
1010.0 6.1152e-07
1030.0 6.8836e-07
1050.0 7.6786e-07
1070.0 8.5777e-07
1090.0 9.6301e-07
1110.0 1.0713e-06
1130.0 1.1809e-06
1150.0 1.2966e-06
1170.0 1.4173e-06
1190.0 1.5342e-06
1210.0 1.6551e-06
1230.0 1.783e-06
1250.0 1.9117e-06
1270.0 2.0412e-06
1290.0 2.1817e-06
1310.0 2.327e-06
1330.0 2.4723e-06
1350.0 2.6236e-06
1370.0 2.7834e-06
1390.0 2.9443e-06
1410.0 3.1051e-06
1430.0 3.2745e-06
1450.0 3.4465e-06
1470.0 3.6159e-06
1490.0 3.7878e-06
1510.0 3.9676e-06
1530.0 4.1398e-06
1550.0 4.3092e-06
1570.0 4.4816e-06
1590.0 4.6519e-06
1610.0 4.8126e-06
1630.0 4.9727e-06
1650.0 5.1321e-06
1670.0 5.2816e-06
1690.0 5.4236e-06
1710.0 5.5648e-06
1730.0 5.7e-06
1750.0 5.8197e-06
1770.0 5.9362e-06
1790.0 6.048e-06
1810.0 6.148e-06
1830.0 6.2385e-06
1850.0 6.3301e-06
1870.0 6.4112e-06
1890.0 6.4814e-06
1910.0 6.5483e-06
1930.0 6.6128e-06
1950.0 6.6659e-06
1970.0 6.7127e-06
1990.0 6.7595e-06
2010.0 6.7996e-06
2030.0 6.8306e-06
2050.0 6.8605e-06
2070.0 6.8882e-06
2090.0 6.9035e-06
2110.0 6.9126e-06
2130.0 6.9186e-06
2150.0 6.9152e-06
2170.0 6.8995e-06
2190.0 6.8797e-06
2210.0 6.8518e-06
2230.0 6.8108e-06
2250.0 6.7602e-06
2270.0 6.7045e-06
2290.0 6.6362e-06
2310.0 6.5548e-06
2330.0 6.4673e-06
2350.0 6.3715e-06
2370.0 6.2635e-06
2390.0 6.1477e-06
2410.0 6.0266e-06
2430.0 5.8933e-06
2450.0 5.7481e-06
2470.0 5.5934e-06
2490.0 5.4278e-06
2510.0 5.2522e-06
2530.0 5.0788e-06
2550.0 4.9252e-06
2570.0 4.8133e-06
2590.0 4.7664e-06
2610.0 4.8318e-06
2630.0 5.0228e-06
2650.0 5.3141e-06
2670.0 5.7047e-06
2690.0 6.1654e-06
2710.0 6.5939e-06
2730.0 6.9346e-06
2750.0 7.1765e-06
2770.0 7.2458e-06
2790.0 7.1245e-06
2810.0 6.8303e-06
2830.0 6.3614e-06
2850.0 5.7628e-06
2870.0 5.0696e-06
2890.0 4.2892e-06
2910.0 3.4581e-06
2930.0 2.619e-06
2950.0 1.7405e-06
2970.0 8.3445e-07
2990.0 4.1716e-07
3010.0 9.2069e-07
3030.0 9.2069e-07
3050.0 9.2069e-07
3070.0 9.2069e-07
3090.0 9.2069e-07
3110.0 9.2069e-07
3130.0 9.2069e-07
3150.0 9.2069e-07
3170.0 9.2069e-07
3190.0 9.2069e-07
3210.0 9.2069e-07
3230.0 2.5072e-05
3250.0 4.9842e-05
3270.0 4.9868e-05
3290.0 5.3735e-05
3310.0 4.2312e-05
3330.0 4.2271e-05
3350.0 4.6915e-05
3370.0 5.3574e-05
3390.0 6.1086e-05
3410.0 6.913e-05
3430.0 7.9392e-05
3450.0 8.9802e-05
3470.0 0.00010068
3490.0 0.00010666
3510.0 0.00010373
3530.0 0.00010507
3550.0 0.00011076
3570.0 0.00011155
3590.0 0.00011893
3610.0 0.0001138
3630.0 0.00014088
3650.0 0.00015805
3670.0 0.00016882
3690.0 0.00015947
3710.0 0.00013122
3730.0 0.00012317
3750.0 0.00011109
3770.0 0.00010262
3790.0 9.3104e-05
3810.0 8.9952e-05
3830.0 0.0001034
3850.0 4.5436e-05
3870.0 8.3554e-05
3890.0 9.8715e-05
3910.0 0.00011115
3930.0 0.00013829
3950.0 0.00015033
3970.0 0.0001753
3990.0 0.00021491
4010.0 0.00016155
4030.0 0.00013385
4050.0 0.00010158
4070.0 0.00010447
4090.0 0.00016398
4110.0 0.0001556
4130.0 0.00016775
4150.0 0.00015801
4170.0 0.00015045
4190.0 0.00013686
4210.0 0.00019873
4230.0 0.00020719
4250.0 0.00022533
4270.0 0.00021153
4290.0 0.00021358
4310.0 0.00023967
4330.0 0.00028205
4350.0 0.00028311
4370.0 0.00027568
4390.0 0.00024657
4410.0 0.00022953
4430.0 0.00018029
4450.0 0.00015087
4470.0 0.00016811
4490.0 0.00020038
4510.0 0.00020753
4530.0 0.00021379
4550.0 0.00022185
4570.0 0.0003141
4590.0 0.00046442
4610.0 0.00054593
4630.0 0.00054748
4650.0 0.0005733
4670.0 0.00065653
4690.0 0.00071735
4710.0 0.00059092
4730.0 0.00045027
4750.0 0.00035751
4770.0 0.00031574
4790.0 0.00029596
4810.0 0.00028222
4830.0 0.00031181
4850.0 0.0003613
4870.0 0.0003943
4890.0 0.00041136
4910.0 0.00037898
4930.0 0.00040341
4950.0 0.00049771
4970.0 0.00059314
4990.0 0.00061958
5010.0 0.00057158
5030.0 0.00047506
5050.0 0.00036213
5070.0 0.00028626
5090.0 0.00025677
5110.0 0.00025115
5130.0 0.00025631
5150.0 0.00025549
5170.0 0.00024448
5190.0 0.000231
5210.0 0.00022558
5230.0 0.00025239
5250.0 0.00029189
5270.0 0.00034709
5290.0 0.00039984
5310.0 0.00042214
5330.0 0.00045711
5350.0 0.00050715
5370.0 0.0005343
5390.0 0.00048593
5410.0 0.00043061
5430.0 0.00041672
5450.0 0.0004828
5470.0 0.00060017
5490.0 0.00070526
5510.0 0.00075312
5530.0 0.00074202
5550.0 0.0007069
5570.0 0.00068467
5590.0 0.00066178
5610.0 0.00065352
5630.0 0.00064928
5650.0 0.00064913
5670.0 0.00064438
5690.0 0.00059251
5710.0 0.00049831
5730.0 0.00044231
5750.0 0.00041857
5770.0 0.0004266
5790.0 0.00044161
5810.0 0.00046147
5830.0 0.00047078
5850.0 0.00044866
5870.0 0.00042025
5890.0 0.00040229
5910.0 0.00041426
5930.0 0.00043526
5950.0 0.00041097
5970.0 0.00036461
5990.0 0.00030449
6010.0 0.00024647
6030.0 0.00022387
6050.0 0.00023972
6070.0 0.00025718
6090.0 0.00025042
6110.0 0.00022106
6130.0 0.00022321
6150.0 0.00025828
6170.0 0.00029989
6190.0 0.00033402
6210.0 0.0003385
6230.0 0.00033144
6250.0 0.00030357
6270.0 0.00025588
6290.0 0.00021213
6310.0 0.00018677
6330.0 0.00018111
6350.0 0.00018541
6370.0 0.00018651
6390.0 0.00020522
6410.0 0.00025364
6430.0 0.00031809
6450.0 0.00036512
6470.0 0.00037932
6490.0 0.00037397
6510.0 0.00038225
6530.0 0.0003968
6550.0 0.00039336
6570.0 0.00040784
6590.0 0.00041594
6610.0 0.00042334
6630.0 0.00042089
6650.0 0.00039719
6670.0 0.00036322
6690.0 0.00032626
6710.0 0.00030523
6730.0 0.00030444
6750.0 0.00031462
6770.0 0.00032405
6790.0 0.00033311
6810.0 0.00033901
6830.0 0.00033213
6850.0 0.00031804
6870.0 0.00029838
6890.0 0.00029136
6910.0 0.0002794
6930.0 0.00028803
6950.0 0.00030759
6970.0 0.00031655
6990.0 0.00032395
7010.0 0.00031613
7030.0 0.00029163
7050.0 0.00025741
7070.0 0.00022584
7090.0 0.0002067
7110.0 0.00020402
7130.0 0.00020351
7150.0 0.00018504
7170.0 0.00017434
7190.0 0.00018718
7210.0 0.00021354
7230.0 0.00024737
7250.0 0.00026484
7270.0 0.0002642
7290.0 0.00024315
7310.0 0.0002229
7330.0 0.00021171
7350.0 0.00021158
7370.0 0.00021609
7390.0 0.00022559
7410.0 0.00024833
7430.0 0.00028804
7450.0 0.00032809
7470.0 0.00035009
7490.0 0.00034653
7510.0 0.00032567
7530.0 0.00027745
7550.0 0.00024909
7570.0 0.00022003
7590.0 0.00020608
7610.0 0.00021377
7630.0 0.00023469
7650.0 0.00026217
7670.0 0.0002886
7690.0 0.00030623
7710.0 0.00032616
7730.0 0.00034756
7750.0 0.00036621
7770.0 0.00036328
7790.0 0.00036539
7810.0 0.00037405
7830.0 0.00037719
7850.0 0.0003663
7870.0 0.00035332
7890.0 0.00035224
7910.0 0.00033871
7930.0 0.00033434
7950.0 0.00031731
7970.0 0.00031018
7990.0 0.00030079
8010.0 0.0003099
8030.0 0.00031276
8050.0 0.00031616
8070.0 0.00031321
8090.0 0.00031191
8110.0 0.00030005
8130.0 0.00029948
8150.0 0.00029525
8170.0 0.00028769
8190.0 0.00028247
8210.0 0.0002829
8230.0 0.00027525
8250.0 0.00026785
8270.0 0.00024051
8290.0 0.00019511
8310.0 0.00014561
8330.0 0.00011119
8350.0 0.00010319
8370.0 0.00012355
8390.0 0.00015072
8410.0 0.00016428
8430.0 0.00017011
8450.0 0.00017879
8470.0 0.00019072
8490.0 0.00021359
8510.0 0.00024416
8530.0 0.00028256
8550.0 0.00032082
8570.0 0.00035371
8590.0 0.00037948
8610.0 0.00039559
8630.0 0.00039919
8650.0 0.00039711
8670.0 0.00039758
8690.0 0.00041643
8710.0 0.0004407
8730.0 0.00045854
8750.0 0.00045687
8770.0 0.00046304
8790.0 0.00046077
8810.0 0.00043213
8830.0 0.00040996
8850.0 0.00037941
8870.0 0.00035461
8890.0 0.00034567
8910.0 0.00034775
8930.0 0.00032945
8950.0 0.00030967
8970.0 0.00030174
8990.0 0.00029872
9010.0 0.00028731
9030.0 0.00028081
9050.0 0.00027859
9070.0 0.00027756
9090.0 0.00027666
9110.0 0.0002758
9130.0 0.00027492
9150.0 0.00027405
9170.0 0.00027303
9190.0 0.00027222
9210.0 0.00027273
9230.0 0.00027135
9250.0 0.00027021
9270.0 0.00026921
9290.0 0.00026829
9310.0 0.00026739
9330.0 0.00026653
9350.0 0.00026573
9370.0 0.00026493
9390.0 0.00026412
9410.0 0.00026333
9430.0 0.00026252
9450.0 0.00026142
9470.0 0.00026041
9490.0 0.00025993
9510.0 0.00025929
9530.0 0.00025861
9550.0 0.00025791
9570.0 0.00025719
9590.0 0.00025645
9610.0 0.00025571
9630.0 0.00025498
9650.0 0.00025424
9670.0 0.0002535
9690.0 0.00025276
9710.0 0.00025203
9730.0 0.0002513
9750.0 0.00025056
9770.0 0.00024984
9790.0 0.00024911
9810.0 0.00024837
9830.0 0.00024764
9850.0 0.00024691
9870.0 0.00024617
9890.0 0.00024543
9910.0 0.00024469
9930.0 0.00024391
9950.0 0.00024117
9970.0 0.00024101
9990.0 0.00024073
10010.0 0.00024037
10030.0 0.00023985
10050.0 0.00023919
10070.0 0.00023849
10090.0 0.0002378
10110.0 0.00023698
10130.0 0.00023622
10150.0 0.00023543
10170.0 0.00023458
10190.0 0.00023366
10210.0 0.00023282
10230.0 0.000232
10250.0 0.00023109
10270.0 0.00023018
10290.0 0.00022933
10310.0 0.0002284
10330.0 0.0002274
10350.0 0.00022647
10370.0 0.00022554
10390.0 0.00022451
10410.0 0.00022348
10430.0 0.00022253
10450.0 0.00022149
10470.0 0.00022039
10490.0 0.00021934
10510.0 0.00021828
10530.0 0.00021708
10550.0 0.00021592
10570.0 0.00021481
10590.0 0.00021362
10610.0 0.00021237
10630.0 0.00021118
10650.0 0.00020997
10670.0 0.00020863
10690.0 0.00020731
10710.0 0.00020603
10730.0 0.00020466
10750.0 0.0002032
10770.0 0.00020185
10790.0 0.00020045
10810.0 0.00019895
10830.0 0.00019747
10850.0 0.00019603
10870.0 0.00019443
10890.0 0.00019279
10910.0 0.00019119
10930.0 0.00018952
10950.0 0.00018768
10970.0 0.00018582
10990.0 0.00018395
11010.0 0.00018984
11030.0 0.00018755
11050.0 0.00018531
11070.0 0.00018305
11090.0 0.00018064
11110.0 0.00017844
11130.0 0.00017633
11150.0 0.0001742
11170.0 0.00017212
11190.0 0.00017021
11210.0 0.00016827
11230.0 0.0001663
11250.0 0.00016443
11270.0 0.00016262
11290.0 0.00016072
11310.0 0.00015882
11330.0 0.00015705
11350.0 0.00015522
11370.0 0.00015333
11390.0 0.00015147
11410.0 0.00014961
11430.0 0.00014757
11450.0 0.00014549
11470.0 0.0001434
11490.0 0.00014116
11510.0 0.00013872
11530.0 0.0001363
11550.0 0.00013379
11570.0 0.00013107
11590.0 0.00012829
11610.0 0.00012553
11630.0 0.00012261
11650.0 0.00011958
11670.0 0.00011668
11690.0 0.00011379
11710.0 0.00011082
11730.0 0.00010795
11750.0 0.00010525
11770.0 0.00010253
11790.0 9.9859e-05
11810.0 9.7374e-05
11830.0 9.4989e-05
11850.0 9.2581e-05
11870.0 9.0347e-05
11890.0 8.8275e-05
11910.0 8.6227e-05
11930.0 8.424e-05
11950.0 8.2409e-05
11970.0 8.0632e-05
11990.0 7.8857e-05
12010.0 7.7202e-05
12030.0 7.5651e-05
12050.0 7.413e-05
12070.0 7.2661e-05
12090.0 7.1362e-05
12110.0 7.0134e-05
12130.0 6.8977e-05
12150.0 6.7955e-05
12170.0 6.7071e-05
12190.0 6.6267e-05
12210.0 6.5609e-05
12230.0 6.5106e-05
12250.0 6.4735e-05
12270.0 6.4503e-05
12290.0 6.4421e-05
12310.0 6.4471e-05
12330.0 6.4667e-05
12350.0 6.5003e-05
12370.0 6.545e-05
12390.0 6.6025e-05
12410.0 6.6764e-05
12430.0 6.7565e-05
12450.0 6.8446e-05
12470.0 6.9445e-05
12490.0 7.051e-05
12510.0 7.1565e-05
12530.0 7.268e-05
12550.0 7.3826e-05
12570.0 7.4904e-05
12590.0 7.5915e-05
12610.0 7.6891e-05
12630.0 7.7749e-05
12650.0 7.8419e-05
12670.0 7.8963e-05
12690.0 7.9342e-05
12710.0 7.9519e-05
12730.0 7.9511e-05
12750.0 7.9317e-05
12770.0 7.8931e-05
12790.0 7.8384e-05
12810.0 7.7677e-05
12830.0 7.6817e-05
12850.0 7.5879e-05
12870.0 7.4869e-05
12890.0 7.3769e-05
12910.0 7.2649e-05
12930.0 7.1548e-05
12950.0 7.0419e-05
12970.0 6.9293e-05
12990.0 6.8243e-05
13010.0 6.7227e-05
13030.0 6.6222e-05
13050.0 6.5269e-05
13070.0 6.4377e-05
13090.0 6.3484e-05
13110.0 6.2607e-05
13130.0 6.1772e-05
13150.0 6.0949e-05
13170.0 6.0102e-05
13190.0 5.9287e-05
13210.0 5.8504e-05
13230.0 5.7714e-05
13250.0 5.6942e-05
13270.0 5.6225e-05
13290.0 5.5542e-05
13310.0 5.4892e-05
13330.0 5.4324e-05
13350.0 5.3838e-05
13370.0 5.3423e-05
13390.0 5.3093e-05
13410.0 5.2859e-05
13430.0 5.2695e-05
13450.0 5.2595e-05
13470.0 5.2541e-05
13490.0 5.2511e-05
13510.0 5.2488e-05
13530.0 5.2442e-05
13550.0 5.235e-05
13570.0 5.2197e-05
13590.0 5.1961e-05
13610.0 5.1641e-05
13630.0 5.1241e-05
13650.0 5.074e-05
13670.0 5.0159e-05
13690.0 4.9529e-05
13710.0 4.884e-05
13730.0 4.8086e-05
13750.0 4.7356e-05
13770.0 4.6636e-05
13790.0 4.5916e-05
13810.0 4.5237e-05
13830.0 4.4628e-05
13850.0 4.4054e-05
13870.0 4.3531e-05
13890.0 4.3083e-05
13910.0 4.2694e-05
13930.0 4.2345e-05
13950.0 4.2048e-05
13970.0 4.1801e-05
13990.0 4.1579e-05
14010.0 4.1378e-05
14030.0 4.1197e-05
14050.0 4.1024e-05
14070.0 4.0842e-05
14090.0 4.0656e-05
14110.0 4.0461e-05
14130.0 4.0242e-05
14150.0 3.9995e-05
14170.0 3.9734e-05
14190.0 3.9449e-05
14210.0 3.9132e-05
14230.0 3.88e-05
14250.0 3.8463e-05
14270.0 3.8106e-05
14290.0 3.7744e-05
14310.0 3.7406e-05
14330.0 3.7083e-05
14350.0 3.6775e-05
14370.0 3.6503e-05
14390.0 3.6274e-05
14410.0 3.6072e-05
14430.0 3.5911e-05
14450.0 3.5791e-05
14470.0 3.5706e-05
14490.0 3.5651e-05
14510.0 3.5627e-05
14530.0 3.5628e-05
14550.0 3.5651e-05
14570.0 3.5696e-05
14590.0 3.5758e-05
14610.0 3.5843e-05
14630.0 3.5957e-05
14650.0 3.6096e-05
14670.0 3.6261e-05
14690.0 3.6466e-05
14710.0 3.6712e-05
14730.0 3.6982e-05
14750.0 3.7297e-05
14770.0 3.7662e-05
14790.0 3.8062e-05
14810.0 3.8495e-05
14830.0 3.9007e-05
14850.0 3.9565e-05
14870.0 4.0152e-05
14890.0 4.0797e-05
14910.0 4.1499e-05
14930.0 4.2195e-05
14950.0 4.2867e-05
14970.0 4.3528e-05
14990.0 4.411e-05
15010.0 4.4581e-05
15030.0 4.4959e-05
15050.0 4.5242e-05
15070.0 4.5422e-05
15090.0 4.5539e-05
15110.0 4.5612e-05
15130.0 4.5656e-05
15150.0 4.5685e-05
15170.0 4.5706e-05
15190.0 4.5724e-05
15210.0 4.5741e-05
15230.0 4.5759e-05
15250.0 4.5777e-05
15270.0 4.5795e-05
15290.0 4.5816e-05
15310.0 4.5836e-05
15330.0 4.5857e-05
15350.0 4.5879e-05
15370.0 4.5902e-05
15390.0 4.5925e-05
15410.0 4.5949e-05
15430.0 4.5974e-05
15450.0 4.5999e-05
15470.0 4.6025e-05
15490.0 4.6052e-05
15510.0 4.6079e-05
15530.0 4.6106e-05
15550.0 4.6134e-05
15570.0 4.6163e-05
15590.0 4.6192e-05
15610.0 4.6221e-05
15630.0 4.6251e-05
15650.0 4.6282e-05
15670.0 4.6312e-05
15690.0 4.6343e-05
15710.0 4.6375e-05
15730.0 4.6406e-05
15750.0 4.6438e-05
15770.0 4.647e-05
15790.0 4.6502e-05
15810.0 4.6534e-05
15830.0 4.6567e-05
15850.0 4.66e-05
15870.0 4.6633e-05
15890.0 4.6666e-05
15910.0 4.6699e-05
15930.0 4.6732e-05
15950.0 4.6765e-05
15970.0 4.6798e-05
15990.0 4.6831e-05
16010.0 4.6863e-05
16030.0 4.6896e-05
16050.0 4.6929e-05
16070.0 4.6961e-05
16090.0 4.6993e-05
16110.0 4.7025e-05
16130.0 4.7058e-05
16150.0 4.7089e-05
16170.0 4.7119e-05
16190.0 4.7151e-05
16210.0 4.7181e-05
16230.0 4.7211e-05
16250.0 4.724e-05
16270.0 4.727e-05
16290.0 4.7298e-05
16310.0 4.7326e-05
16330.0 4.7354e-05
16350.0 4.7381e-05
16370.0 4.7407e-05
16390.0 4.7433e-05
16410.0 4.7458e-05
16430.0 4.7482e-05
16450.0 4.7506e-05
16470.0 4.7529e-05
16490.0 4.7551e-05
16510.0 4.7572e-05
16530.0 4.7593e-05
16550.0 4.7612e-05
16570.0 4.7631e-05
16590.0 4.7648e-05
16610.0 4.7665e-05
16630.0 4.7681e-05
16650.0 4.7695e-05
16670.0 4.7709e-05
16690.0 4.7722e-05
16710.0 4.7733e-05
16730.0 4.7743e-05
16750.0 4.7752e-05
16770.0 4.776e-05
16790.0 4.7766e-05
16810.0 4.7772e-05
16830.0 4.7776e-05
16850.0 4.7779e-05
16870.0 4.778e-05
16890.0 4.7781e-05
16910.0 4.7779e-05
16930.0 4.7776e-05
16950.0 4.7772e-05
16970.0 4.7766e-05
16990.0 4.7759e-05
17010.0 4.775e-05
17030.0 4.7741e-05
17050.0 4.7729e-05
17070.0 4.7715e-05
17090.0 4.77e-05
17110.0 4.7684e-05
17130.0 4.7665e-05
17150.0 4.7645e-05
17170.0 4.7624e-05
17190.0 4.7601e-05
17210.0 4.7575e-05
17230.0 4.7549e-05
17250.0 4.7521e-05
17270.0 4.749e-05
17290.0 4.7458e-05
17310.0 4.7425e-05
17330.0 4.7389e-05
17350.0 4.7351e-05
17370.0 4.7312e-05
17390.0 4.7271e-05
17410.0 4.7228e-05
17430.0 4.7183e-05
17450.0 4.7137e-05
17470.0 4.7088e-05
17490.0 4.7037e-05
17510.0 4.6985e-05
17530.0 4.6931e-05
17550.0 4.6875e-05
17570.0 4.6817e-05
17590.0 4.6758e-05
17610.0 4.6695e-05
17630.0 4.6632e-05
17650.0 4.6566e-05
17670.0 4.6499e-05
17690.0 4.6429e-05
17710.0 4.6358e-05
17730.0 4.6285e-05
17750.0 4.621e-05
17770.0 4.6132e-05
17790.0 4.6054e-05
17810.0 4.5973e-05
17830.0 4.589e-05
17850.0 4.5806e-05
17870.0 4.572e-05
17890.0 4.5632e-05
17910.0 4.5541e-05
17930.0 4.545e-05
17950.0 4.5357e-05
17970.0 4.5261e-05
17990.0 4.5164e-05
18010.0 4.5066e-05
18030.0 4.4965e-05
18050.0 4.4862e-05
18070.0 4.4759e-05
18090.0 4.4653e-05
18110.0 4.4545e-05
18130.0 4.4437e-05
18150.0 4.4326e-05
18170.0 4.4214e-05
18190.0 4.41e-05
18210.0 4.3985e-05
18230.0 4.3868e-05
18250.0 4.3749e-05
18270.0 4.363e-05
18290.0 4.3508e-05
18310.0 4.3385e-05
18330.0 4.3261e-05
18350.0 4.3136e-05
18370.0 4.3009e-05
18390.0 4.288e-05
18410.0 4.2751e-05
18430.0 4.262e-05
18450.0 4.2487e-05
18470.0 4.2354e-05
18490.0 4.222e-05
18510.0 4.2084e-05
18530.0 4.1947e-05
18550.0 4.1809e-05
18570.0 4.167e-05
18590.0 4.1529e-05
18610.0 4.1388e-05
18630.0 4.1246e-05
18650.0 4.1103e-05
18670.0 4.0958e-05
18690.0 4.0814e-05
18710.0 4.0668e-05
18730.0 4.0521e-05
18750.0 4.0374e-05
18770.0 4.0226e-05
18790.0 4.0076e-05
18810.0 3.9926e-05
18830.0 3.9776e-05
18850.0 3.9625e-05
18870.0 3.9473e-05
18890.0 3.9321e-05
18910.0 3.9168e-05
18930.0 3.9014e-05
18950.0 3.886e-05
18970.0 3.8706e-05
18990.0 3.8551e-05
19010.0 3.8395e-05
19030.0 3.824e-05
19050.0 3.8084e-05
19070.0 3.7927e-05
19090.0 3.7771e-05
19110.0 3.7614e-05
19130.0 3.7457e-05
19150.0 3.7299e-05
19170.0 3.7142e-05
19190.0 3.6984e-05
19210.0 3.6826e-05
19230.0 3.6668e-05
19250.0 3.651e-05
19270.0 3.6352e-05
19290.0 3.6194e-05
19310.0 3.6036e-05
19330.0 3.5878e-05
19350.0 3.572e-05
19370.0 3.5562e-05
19390.0 3.5404e-05
19410.0 3.5246e-05
19430.0 3.5088e-05
19450.0 3.4931e-05
19470.0 3.4774e-05
19490.0 3.4617e-05
19510.0 3.446e-05
19530.0 3.4304e-05
19550.0 3.4148e-05
19570.0 3.3991e-05
19590.0 3.3836e-05
19610.0 3.3681e-05
19630.0 3.3526e-05
19650.0 3.3372e-05
19670.0 3.3218e-05
19690.0 3.3064e-05
19710.0 3.2911e-05
19730.0 3.2758e-05
19750.0 3.2606e-05
19770.0 3.2454e-05
19790.0 3.2302e-05
19810.0 3.2152e-05
19830.0 3.2e-05
19850.0 3.1848e-05
19870.0 3.1694e-05
19890.0 3.1534e-05
19910.0 3.1362e-05
19930.0 3.1172e-05
19950.0 3.0956e-05
19970.0 3.0696e-05
19990.0 3.0386e-05
20010.0 3.0031e-05
20030.0 2.9614e-05
20050.0 2.9137e-05
20070.0 2.8629e-05
20090.0 2.8095e-05
20110.0 2.7515e-05
20130.0 2.694e-05
20150.0 2.6383e-05
20170.0 2.5822e-05
20190.0 2.5266e-05
20210.0 2.4746e-05
20230.0 2.4242e-05
20250.0 2.3741e-05
20270.0 2.3269e-05
20290.0 2.2827e-05
20310.0 2.2394e-05
20330.0 2.197e-05
20350.0 2.1587e-05
20370.0 2.1217e-05
20390.0 2.0857e-05
20410.0 2.0519e-05
20430.0 2.0206e-05
20450.0 1.9897e-05
20470.0 1.9606e-05
20490.0 1.9339e-05
20510.0 1.9088e-05
20530.0 1.8848e-05
20550.0 1.8631e-05
20570.0 1.8435e-05
20590.0 1.8253e-05
20610.0 1.8088e-05
20630.0 1.7944e-05
20650.0 1.7815e-05
20670.0 1.77e-05
20690.0 1.7603e-05
20710.0 1.7521e-05
20730.0 1.7451e-05
20750.0 1.7393e-05
20770.0 1.7345e-05
20790.0 1.7306e-05
20810.0 1.7275e-05
20830.0 1.7248e-05
20850.0 1.7223e-05
20870.0 1.7203e-05
20890.0 1.7182e-05
20910.0 1.7158e-05
20930.0 1.713e-05
20950.0 1.7099e-05
20970.0 1.7059e-05
20990.0 1.7013e-05
21010.0 1.6958e-05
21030.0 1.6893e-05
21050.0 1.6818e-05
21070.0 1.6733e-05
21090.0 1.6636e-05
21110.0 1.653e-05
21130.0 1.6415e-05
21150.0 1.6289e-05
21170.0 1.6154e-05
21190.0 1.6014e-05
21210.0 1.5864e-05
21230.0 1.5705e-05
21250.0 1.5545e-05
21270.0 1.5381e-05
21290.0 1.521e-05
21310.0 1.5037e-05
21330.0 1.4868e-05
21350.0 1.4695e-05
21370.0 1.4521e-05
21390.0 1.4353e-05
21410.0 1.419e-05
21430.0 1.4024e-05
21450.0 1.3868e-05
21470.0 1.3722e-05
21490.0 1.3582e-05
21510.0 1.345e-05
21530.0 1.3332e-05
21550.0 1.3224e-05
21570.0 1.3127e-05
21590.0 1.3043e-05
21610.0 1.2973e-05
21630.0 1.2915e-05
21650.0 1.287e-05
21670.0 1.2838e-05
21690.0 1.2818e-05
21710.0 1.2809e-05
21730.0 1.2811e-05
21750.0 1.2819e-05
21770.0 1.2838e-05
21790.0 1.2864e-05
21810.0 1.2891e-05
21830.0 1.2923e-05
21850.0 1.2958e-05
21870.0 1.2992e-05
21890.0 1.3022e-05
21910.0 1.3052e-05
21930.0 1.3079e-05
21950.0 1.3099e-05
21970.0 1.3114e-05
21990.0 1.3126e-05
22010.0 1.3129e-05
22030.0 1.3125e-05
22050.0 1.3116e-05
22070.0 1.3101e-05
22090.0 1.3079e-05
22110.0 1.3051e-05
22130.0 1.3019e-05
22150.0 1.2982e-05
22170.0 1.294e-05
22190.0 1.2894e-05
22210.0 1.2845e-05
22230.0 1.2792e-05
22250.0 1.2735e-05
22270.0 1.2675e-05
22290.0 1.2612e-05
22310.0 1.2545e-05
22330.0 1.2473e-05
22350.0 1.2396e-05
22370.0 1.2315e-05
22390.0 1.2228e-05
22410.0 1.2132e-05
22430.0 1.2033e-05
22450.0 1.1927e-05
22470.0 1.1811e-05
22490.0 1.1688e-05
22510.0 1.1561e-05
22530.0 1.1423e-05
22550.0 1.1275e-05
22570.0 1.1126e-05
22590.0 1.0971e-05
