#lamb flux
1010.0 4.1839e-10
1030.0 5.2622e-10
1050.0 6.502e-10
1070.0 7.8973e-10
1090.0 9.4819e-10
1110.0 1.1107e-09
1130.0 1.2741e-09
1150.0 1.4453e-09
1170.0 1.6218e-09
1190.0 1.7892e-09
1210.0 1.9587e-09
1230.0 2.1339e-09
1250.0 2.3054e-09
1270.0 2.4721e-09
1290.0 2.6481e-09
1310.0 2.8241e-09
1330.0 2.993e-09
1350.0 3.1638e-09
1370.0 3.3403e-09
1390.0 3.5125e-09
1410.0 3.6797e-09
1430.0 3.8546e-09
1450.0 4.0296e-09
1470.0 4.1989e-09
1490.0 4.3702e-09
1510.0 4.5512e-09
1530.0 4.7228e-09
1550.0 4.8922e-09
1570.0 5.0675e-09
1590.0 5.2431e-09
1610.0 5.4109e-09
1630.0 5.584e-09
1650.0 5.7617e-09
1670.0 5.9337e-09
1690.0 6.1037e-09
1710.0 6.2803e-09
1730.0 6.458e-09
1750.0 6.6254e-09
1770.0 6.7979e-09
1790.0 6.9741e-09
1810.0 7.1449e-09
1830.0 7.3131e-09
1850.0 7.4918e-09
1870.0 7.6661e-09
1890.0 7.8351e-09
1910.0 8.008e-09
1930.0 8.1855e-09
1950.0 8.3557e-09
1970.0 8.5245e-09
1990.0 8.7003e-09
2010.0 8.8739e-09
2030.0 9.0422e-09
2050.0 9.2163e-09
2070.0 9.3955e-09
2090.0 9.5656e-09
2110.0 9.7362e-09
2130.0 9.9128e-09
2150.0 1.0087e-08
2170.0 1.0255e-08
2190.0 1.043e-08
2210.0 1.0608e-08
2230.0 1.0779e-08
2250.0 1.0952e-08
2270.0 1.1133e-08
2290.0 1.1309e-08
2310.0 1.1481e-08
2330.0 1.1659e-08
2350.0 1.1839e-08
2370.0 1.2014e-08
2390.0 1.2191e-08
2410.0 1.2377e-08
2430.0 1.2561e-08
2450.0 1.2748e-08
2470.0 1.2955e-08
2490.0 1.3197e-08
2510.0 1.3476e-08
2530.0 1.3837e-08
2550.0 1.4337e-08
2570.0 1.501e-08
2590.0 1.59e-08
2610.0 1.7172e-08
2630.0 1.8859e-08
2650.0 2.0922e-08
2670.0 2.3469e-08
2690.0 2.6553e-08
2710.0 2.9933e-08
2730.0 3.3489e-08
2750.0 3.7336e-08
2770.0 4.1155e-08
2790.0 4.4707e-08
2810.0 4.8044e-08
2830.0 5.1168e-08
2850.0 5.3793e-08
2870.0 5.6117e-08
2890.0 5.8281e-08
2910.0 6.0304e-08
2930.0 6.2222e-08
2950.0 6.4194e-08
2970.0 6.6243e-08
2990.0 6.8336e-08
3010.0 7.0516e-08
3030.0 7.2844e-08
3050.0 7.5283e-08
3070.0 7.7764e-08
3090.0 8.0393e-08
3110.0 8.3189e-08
3130.0 8.6191e-08
3150.0 8.9603e-08
3170.0 9.3955e-08
3190.0 9.9623e-08
3210.0 1.0704e-07
3230.0 1.1691e-07
3250.0 1.2945e-07
3270.0 1.4138e-07
3290.0 1.6031e-07
3310.0 1.991e-07
3330.0 2.1199e-07
3350.0 2.1833e-07
3370.0 2.2442e-07
3390.0 2.3061e-07
3410.0 2.3687e-07
3430.0 2.4319e-07
3450.0 2.4949e-07
3470.0 2.5569e-07
3490.0 2.6167e-07
3510.0 2.6709e-07
3530.0 2.6471e-07
3550.0 2.574e-07
3570.0 2.6118e-07
3590.0 2.7765e-07
3610.0 3.026e-07
3630.0 3.1252e-07
3650.0 3.0017e-07
3670.0 2.7569e-07
3690.0 2.6147e-07
3710.0 2.6477e-07
3730.0 2.7349e-07
3750.0 2.7817e-07
3770.0 2.8754e-07
3790.0 2.98e-07
3810.0 2.9378e-07
3830.0 2.7379e-07
3850.0 2.559e-07
3870.0 2.4742e-07
3890.0 2.4458e-07
3910.0 2.391e-07
3930.0 2.3633e-07
3950.0 2.4299e-07
3970.0 2.5079e-07
3990.0 2.5306e-07
4010.0 2.4376e-07
4030.0 2.3049e-07
4050.0 2.2197e-07
4070.0 2.1475e-07
4090.0 2.0891e-07
4110.0 2.0128e-07
4130.0 1.8924e-07
4150.0 1.7713e-07
4170.0 1.6995e-07
4190.0 1.5848e-07
4210.0 1.4347e-07
4230.0 1.2827e-07
4250.0 1.1385e-07
4270.0 1.0308e-07
4290.0 9.5119e-08
4310.0 9.0903e-08
4330.0 9.0753e-08
4350.0 9.1197e-08
4370.0 9.2069e-08
4390.0 9.547e-08
4410.0 9.782e-08
4430.0 9.443e-08
4450.0 8.5739e-08
4470.0 7.8143e-08
4490.0 7.4013e-08
4510.0 7.136e-08
4530.0 7.0033e-08
4550.0 6.8895e-08
4570.0 6.8606e-08
4590.0 6.9547e-08
4610.0 7.1684e-08
4630.0 7.2958e-08
4650.0 7.3588e-08
4670.0 7.1799e-08
4690.0 6.7527e-08
4710.0 6.3272e-08
4730.0 6.0516e-08
4750.0 5.8824e-08
4770.0 5.9035e-08
4790.0 5.8804e-08
4810.0 5.7543e-08
4830.0 5.7658e-08
4850.0 5.9456e-08
4870.0 6.0049e-08
4890.0 5.8968e-08
4910.0 5.7601e-08
4930.0 5.4322e-08
4950.0 4.9589e-08
4970.0 4.6349e-08
4990.0 4.369e-08
5010.0 4.3121e-08
5030.0 4.4573e-08
5050.0 4.5716e-08
5070.0 4.7424e-08
5090.0 5.0291e-08
5110.0 5.1057e-08
5130.0 5.1502e-08
5150.0 5.2453e-08
5170.0 5.2894e-08
5190.0 5.4281e-08
5210.0 5.4563e-08
5230.0 5.4e-08
5250.0 5.4436e-08
5270.0 5.5196e-08
5290.0 5.5345e-08
5310.0 5.4932e-08
5330.0 5.3888e-08
5350.0 5.3154e-08
5370.0 5.2588e-08
5390.0 5.1892e-08
5410.0 5.1315e-08
5430.0 5.1298e-08
5450.0 5.205e-08
5470.0 5.3017e-08
5490.0 5.4519e-08
5510.0 5.617e-08
5530.0 5.6863e-08
5550.0 5.771e-08
5570.0 5.7834e-08
5590.0 5.6635e-08
5610.0 5.6224e-08
5630.0 5.6648e-08
5650.0 5.5962e-08
5670.0 5.4723e-08
5690.0 5.3084e-08
5710.0 5.2944e-08
5730.0 5.3503e-08
5750.0 5.1223e-08
5770.0 4.8595e-08
5790.0 4.4674e-08
5810.0 3.9078e-08
5830.0 4.2126e-08
5850.0 4.6637e-08
5870.0 4.7648e-08
5890.0 4.7904e-08
5910.0 4.8295e-08
5930.0 4.8193e-08
5950.0 4.7395e-08
5970.0 4.6829e-08
5990.0 4.6154e-08
6010.0 4.4748e-08
6030.0 4.3215e-08
6050.0 4.254e-08
6070.0 4.2349e-08
6090.0 4.1705e-08
6110.0 4.0315e-08
6130.0 3.8944e-08
6150.0 3.7381e-08
6170.0 3.5818e-08
6190.0 3.4214e-08
6210.0 3.3006e-08
6230.0 3.2527e-08
6250.0 3.1837e-08
6270.0 3.1172e-08
6290.0 3.093e-08
6310.0 3.0729e-08
6330.0 3.0053e-08
6350.0 2.9076e-08
6370.0 2.852e-08
6390.0 2.7959e-08
6410.0 2.7179e-08
6430.0 2.6442e-08
6450.0 2.586e-08
6470.0 2.5307e-08
6490.0 2.4921e-08
6510.0 2.4491e-08
6530.0 2.3868e-08
6550.0 2.334e-08
6570.0 2.298e-08
6590.0 2.2942e-08
6610.0 2.2798e-08
6630.0 2.2035e-08
6650.0 2.1413e-08
6670.0 2.1191e-08
6690.0 2.0857e-08
6710.0 2.0357e-08
6730.0 2.0177e-08
6750.0 2.0334e-08
6770.0 2.1543e-08
6790.0 2.4077e-08
6810.0 2.2863e-08
6830.0 2.0082e-08
6850.0 1.9289e-08
6870.0 1.8993e-08
6890.0 1.8996e-08
6910.0 1.9036e-08
6930.0 1.908e-08
6950.0 1.9021e-08
6970.0 1.8538e-08
6990.0 1.8371e-08
7010.0 1.8644e-08
7030.0 1.8731e-08
7050.0 1.846e-08
7070.0 1.8274e-08
7090.0 1.8392e-08
7110.0 1.8821e-08
7130.0 1.8882e-08
7150.0 1.8952e-08
7170.0 1.9053e-08
7190.0 1.9317e-08
7210.0 1.9526e-08
7230.0 1.9735e-08
7250.0 1.9998e-08
7270.0 2.0186e-08
7290.0 2.0504e-08
7310.0 2.0882e-08
7330.0 2.0721e-08
7350.0 2.0286e-08
7370.0 2.001e-08
7390.0 1.9961e-08
7410.0 2.0044e-08
7430.0 2.0294e-08
7450.0 2.042e-08
7470.0 2.0709e-08
7490.0 2.059e-08
7510.0 2.0367e-08
7530.0 2.0605e-08
7550.0 2.1245e-08
7570.0 2.1191e-08
7590.0 2.0097e-08
7610.0 1.9929e-08
7630.0 2.1059e-08
7650.0 2.1481e-08
7670.0 2.1626e-08
7690.0 2.2588e-08
7710.0 2.3319e-08
7730.0 2.3543e-08
7750.0 2.4771e-08
7770.0 2.4136e-08
7790.0 2.3563e-08
7810.0 2.4964e-08
7830.0 2.592e-08
7850.0 2.657e-08
7870.0 2.7092e-08
7890.0 2.7301e-08
7910.0 2.7101e-08
7930.0 2.7288e-08
7950.0 2.8519e-08
7970.0 2.8513e-08
7990.0 2.6558e-08
8010.0 2.5487e-08
8030.0 2.5996e-08
8050.0 2.6553e-08
8070.0 2.4021e-08
8090.0 1.5717e-08
8110.0 1.6411e-08
8130.0 2.3433e-08
8150.0 2.5237e-08
8170.0 2.624e-08
8190.0 2.681e-08
8210.0 2.6471e-08
8230.0 2.8698e-08
8250.0 2.9324e-08
8270.0 2.7731e-08
8290.0 2.6636e-08
8310.0 2.6247e-08
8330.0 2.7679e-08
8350.0 2.8988e-08
8370.0 2.8441e-08
8390.0 2.7122e-08
8410.0 2.7096e-08
8430.0 2.5388e-08
8450.0 2.5944e-08
8470.0 2.835e-08
8490.0 2.8436e-08
8510.0 2.6368e-08
8530.0 2.4713e-08
8550.0 2.3689e-08
8570.0 2.2326e-08
8590.0 2.2964e-08
8610.0 2.4367e-08
8630.0 2.502e-08
8650.0 2.5453e-08
8670.0 2.4755e-08
8690.0 2.4178e-08
8710.0 2.2488e-08
8730.0 2.1681e-08
8750.0 2.2566e-08
8770.0 2.2919e-08
8790.0 2.2848e-08
8810.0 2.2739e-08
8830.0 2.3223e-08
8850.0 2.4386e-08
8870.0 2.2771e-08
8890.0 2.1478e-08
8910.0 2.1161e-08
8930.0 1.9891e-08
8950.0 1.9162e-08
8970.0 1.9154e-08
8990.0 1.8335e-08
9010.0 1.7213e-08
9030.0 1.6822e-08
9050.0 1.6682e-08
9070.0 1.6557e-08
9090.0 1.6431e-08
9110.0 1.6305e-08
9130.0 1.6178e-08
9150.0 1.605e-08
9170.0 1.5922e-08
9190.0 1.5794e-08
9210.0 1.5666e-08
9230.0 1.5537e-08
9250.0 1.5409e-08
9270.0 1.5281e-08
9290.0 1.5152e-08
9310.0 1.5025e-08
9330.0 1.4897e-08
9350.0 1.477e-08
9370.0 1.4644e-08
9390.0 1.4518e-08
9410.0 1.4393e-08
9430.0 1.4268e-08
9450.0 1.4144e-08
9470.0 1.4021e-08
9490.0 1.3899e-08
9510.0 1.3778e-08
9530.0 1.3658e-08
9550.0 1.3538e-08
9570.0 1.342e-08
9590.0 1.3303e-08
9610.0 1.3187e-08
9630.0 1.3072e-08
9650.0 1.2958e-08
9670.0 1.2845e-08
9690.0 1.2734e-08
9710.0 1.2623e-08
9730.0 1.2514e-08
9750.0 1.2406e-08
9770.0 1.2299e-08
9790.0 1.2193e-08
9810.0 1.2089e-08
9830.0 1.1986e-08
9850.0 1.1884e-08
9870.0 1.1783e-08
9890.0 1.1683e-08
9910.0 1.1585e-08
9930.0 1.1488e-08
9950.0 1.1392e-08
9970.0 1.1297e-08
9990.0 1.1204e-08
10010.0 1.1112e-08
10030.0 1.102e-08
10050.0 1.093e-08
10070.0 1.0842e-08
10090.0 1.0754e-08
10110.0 1.0667e-08
10130.0 1.0582e-08
10150.0 1.0498e-08
10170.0 1.0415e-08
10190.0 1.0333e-08
10210.0 1.0252e-08
10230.0 1.0172e-08
10250.0 1.0093e-08
10270.0 1.0015e-08
10290.0 9.9379e-09
10310.0 9.8619e-09
10330.0 9.787e-09
10350.0 9.7131e-09
10370.0 9.6401e-09
10390.0 9.5669e-09
10410.0 9.481e-09
10430.0 9.3913e-09
10450.0 9.3382e-09
10470.0 9.2771e-09
10490.0 9.215e-09
10510.0 9.152e-09
10530.0 9.0863e-09
10550.0 9.0216e-09
10570.0 8.9586e-09
10590.0 8.8951e-09
10610.0 8.8315e-09
10630.0 8.7702e-09
10650.0 8.7095e-09
10670.0 8.6478e-09
10690.0 8.5877e-09
10710.0 8.5292e-09
10730.0 8.4703e-09
10750.0 8.4109e-09
10770.0 8.3545e-09
10790.0 8.2983e-09
10810.0 8.2415e-09
10830.0 8.1861e-09
10850.0 8.1323e-09
10870.0 8.077e-09
10890.0 8.0221e-09
10910.0 7.9691e-09
10930.0 7.9158e-09
10950.0 7.8612e-09
10970.0 7.8073e-09
10990.0 7.7542e-09
11010.0 7.6929e-09
11030.0 7.6367e-09
11050.0 7.5813e-09
11070.0 7.5247e-09
11090.0 7.4649e-09
11110.0 7.4067e-09
11130.0 7.3486e-09
11150.0 7.2883e-09
11170.0 7.2272e-09
11190.0 7.1681e-09
11210.0 7.1075e-09
11230.0 7.0456e-09
11250.0 6.9857e-09
11270.0 6.9273e-09
11290.0 6.8681e-09
11310.0 6.8104e-09
11330.0 6.7574e-09
11350.0 6.7054e-09
11370.0 6.6549e-09
11390.0 6.608e-09
11410.0 6.564e-09
11430.0 6.5201e-09
11450.0 6.4788e-09
11470.0 6.4401e-09
11490.0 6.4019e-09
11510.0 6.3635e-09
11530.0 6.3269e-09
11550.0 6.2906e-09
11570.0 6.253e-09
11590.0 6.2152e-09
11610.0 6.1778e-09
11630.0 6.1386e-09
11650.0 6.0976e-09
11670.0 6.0574e-09
11690.0 6.0164e-09
11710.0 5.9735e-09
11730.0 5.9303e-09
11750.0 5.8882e-09
11770.0 5.8444e-09
11790.0 5.7999e-09
11810.0 5.7569e-09
11830.0 5.7143e-09
11850.0 5.6701e-09
11870.0 5.628e-09
11890.0 5.5882e-09
11910.0 5.5485e-09
11930.0 5.5098e-09
11950.0 5.4742e-09
11970.0 5.44e-09
11990.0 5.4065e-09
12010.0 5.3759e-09
12030.0 5.3478e-09
12050.0 5.321e-09
12070.0 5.2959e-09
12090.0 5.2741e-09
12110.0 5.2537e-09
12130.0 5.2346e-09
12150.0 5.2173e-09
12170.0 5.2017e-09
12190.0 5.1863e-09
12210.0 5.1716e-09
12230.0 5.1577e-09
12250.0 5.1434e-09
12270.0 5.1282e-09
12290.0 5.1123e-09
12310.0 5.0957e-09
12330.0 5.0766e-09
12350.0 5.0557e-09
12370.0 5.0333e-09
12390.0 5.0083e-09
12410.0 4.9796e-09
12430.0 4.9499e-09
12450.0 4.9183e-09
12470.0 4.8835e-09
12490.0 4.8465e-09
12510.0 4.8094e-09
12530.0 4.7696e-09
12550.0 4.7274e-09
12570.0 4.6853e-09
12590.0 4.6429e-09
12610.0 4.5981e-09
12630.0 4.553e-09
12650.0 4.5102e-09
12670.0 4.4664e-09
12690.0 4.4222e-09
12710.0 4.3802e-09
12730.0 4.3396e-09
12750.0 4.298e-09
12770.0 4.2589e-09
12790.0 4.2224e-09
12810.0 4.1869e-09
12830.0 4.1524e-09
12850.0 4.1215e-09
12870.0 4.0928e-09
12890.0 4.0652e-09
12910.0 4.0403e-09
12930.0 4.0184e-09
12950.0 3.9981e-09
12970.0 3.98e-09
12990.0 3.9653e-09
13010.0 3.9529e-09
13030.0 3.9426e-09
13050.0 3.9348e-09
13070.0 3.9292e-09
13090.0 3.9252e-09
13110.0 3.9226e-09
13130.0 3.9212e-09
13150.0 3.9203e-09
13170.0 3.9194e-09
13190.0 3.9181e-09
13210.0 3.916e-09
13230.0 3.9124e-09
13250.0 3.9071e-09
13270.0 3.9001e-09
13290.0 3.8908e-09
13310.0 3.8787e-09
13330.0 3.8645e-09
13350.0 3.8482e-09
13370.0 3.8291e-09
13390.0 3.8072e-09
13410.0 3.7845e-09
13430.0 3.7595e-09
13450.0 3.7318e-09
13470.0 3.703e-09
13490.0 3.6736e-09
13510.0 3.6409e-09
13530.0 3.6072e-09
13550.0 3.5737e-09
13570.0 3.5389e-09
13590.0 3.5022e-09
13610.0 3.4659e-09
13630.0 3.4302e-09
13650.0 3.3924e-09
13670.0 3.3546e-09
13690.0 3.318e-09
13710.0 3.2808e-09
13730.0 3.242e-09
13750.0 3.2056e-09
13770.0 3.17e-09
13790.0 3.1338e-09
13810.0 3.0985e-09
13830.0 3.0656e-09
13850.0 3.0324e-09
13870.0 2.9997e-09
13890.0 2.9691e-09
13910.0 2.9398e-09
13930.0 2.9105e-09
13950.0 2.8824e-09
13970.0 2.8569e-09
13990.0 2.8315e-09
14010.0 2.8068e-09
14030.0 2.784e-09
14050.0 2.7623e-09
14070.0 2.7404e-09
14090.0 2.7201e-09
14110.0 2.7014e-09
14130.0 2.6831e-09
14150.0 2.6653e-09
14170.0 2.6493e-09
14190.0 2.6339e-09
14210.0 2.6188e-09
14230.0 2.6045e-09
14250.0 2.5911e-09
14270.0 2.5777e-09
14290.0 2.5645e-09
14310.0 2.5523e-09
14330.0 2.5402e-09
14350.0 2.5281e-09
14370.0 2.5163e-09
14390.0 2.5052e-09
14410.0 2.4938e-09
14430.0 2.4825e-09
14450.0 2.4717e-09
14470.0 2.461e-09
14490.0 2.4499e-09
14510.0 2.4393e-09
14530.0 2.429e-09
14550.0 2.4183e-09
14570.0 2.4076e-09
14590.0 2.3973e-09
14610.0 2.3867e-09
14630.0 2.3756e-09
14650.0 2.3647e-09
14670.0 2.3539e-09
14690.0 2.3426e-09
14710.0 2.331e-09
14730.0 2.32e-09
14750.0 2.3085e-09
14770.0 2.2965e-09
14790.0 2.2846e-09
14810.0 2.2729e-09
14830.0 2.2601e-09
14850.0 2.2473e-09
14870.0 2.2348e-09
14890.0 2.222e-09
14910.0 2.2089e-09
14930.0 2.1964e-09
14950.0 2.1847e-09
14970.0 2.1731e-09
14990.0 2.1626e-09
15010.0 2.1534e-09
15030.0 2.145e-09
15050.0 2.1373e-09
15070.0 2.1308e-09
15090.0 2.1249e-09
15110.0 2.1192e-09
15130.0 2.1138e-09
15150.0 2.1087e-09
15170.0 2.1035e-09
15190.0 2.0982e-09
15210.0 2.0932e-09
15230.0 2.0881e-09
15250.0 2.0828e-09
15270.0 2.0776e-09
15290.0 2.0727e-09
15310.0 2.0675e-09
15330.0 2.0623e-09
15350.0 2.0573e-09
15370.0 2.0522e-09
15390.0 2.0469e-09
15410.0 2.0418e-09
15430.0 2.0368e-09
15450.0 2.0316e-09
15470.0 2.0263e-09
15490.0 2.0213e-09
15510.0 2.0163e-09
15530.0 2.0111e-09
15550.0 2.0059e-09
15570.0 2.0009e-09
15590.0 1.9957e-09
15610.0 1.9904e-09
15630.0 1.9854e-09
15650.0 1.9804e-09
15670.0 1.9751e-09
15690.0 1.97e-09
15710.0 1.965e-09
15730.0 1.9598e-09
15750.0 1.9546e-09
15770.0 1.9496e-09
15790.0 1.9445e-09
15810.0 1.9392e-09
15830.0 1.9341e-09
15850.0 1.9291e-09
15870.0 1.9239e-09
15890.0 1.9187e-09
15910.0 1.9137e-09
15930.0 1.9086e-09
15950.0 1.9034e-09
15970.0 1.8983e-09
15990.0 1.8932e-09
16010.0 1.888e-09
16030.0 1.8828e-09
16050.0 1.8778e-09
16070.0 1.8727e-09
16090.0 1.8675e-09
16110.0 1.8624e-09
16130.0 1.8574e-09
16150.0 1.8521e-09
16170.0 1.847e-09
16190.0 1.8419e-09
16210.0 1.8368e-09
16230.0 1.8316e-09
16250.0 1.8265e-09
16270.0 1.8215e-09
16290.0 1.8163e-09
16310.0 1.8111e-09
16330.0 1.8061e-09
16350.0 1.801e-09
16370.0 1.7957e-09
16390.0 1.7906e-09
16410.0 1.7856e-09
16430.0 1.7804e-09
16450.0 1.7752e-09
16470.0 1.7703e-09
16490.0 1.7651e-09
16510.0 1.7599e-09
16530.0 1.7548e-09
16550.0 1.7498e-09
16570.0 1.7445e-09
16590.0 1.7393e-09
16610.0 1.7344e-09
16630.0 1.7292e-09
16650.0 1.724e-09
16670.0 1.719e-09
16690.0 1.714e-09
16710.0 1.7087e-09
16730.0 1.7035e-09
16750.0 1.6985e-09
16770.0 1.6933e-09
16790.0 1.6881e-09
16810.0 1.6831e-09
16830.0 1.678e-09
16850.0 1.6728e-09
16870.0 1.6677e-09
16890.0 1.6627e-09
16910.0 1.6575e-09
16930.0 1.6522e-09
16950.0 1.6472e-09
16970.0 1.6422e-09
16990.0 1.6369e-09
17010.0 1.6318e-09
17030.0 1.6269e-09
17050.0 1.6216e-09
17070.0 1.6164e-09
17090.0 1.6114e-09
17110.0 1.6063e-09
17130.0 1.601e-09
17150.0 1.5959e-09
17170.0 1.5909e-09
17190.0 1.5858e-09
17210.0 1.5806e-09
17230.0 1.5756e-09
17250.0 1.5705e-09
17270.0 1.5652e-09
17290.0 1.5601e-09
17310.0 1.5551e-09
17330.0 1.5499e-09
17350.0 1.5446e-09
17370.0 1.5397e-09
17390.0 1.5346e-09
17410.0 1.5294e-09
17430.0 1.5243e-09
17450.0 1.5193e-09
17470.0 1.514e-09
17490.0 1.5088e-09
17510.0 1.5038e-09
17530.0 1.4987e-09
17550.0 1.4935e-09
17570.0 1.4884e-09
17590.0 1.4834e-09
17610.0 1.4782e-09
17630.0 1.473e-09
17650.0 1.468e-09
17670.0 1.4629e-09
17690.0 1.4576e-09
17710.0 1.4525e-09
17730.0 1.4475e-09
17750.0 1.4423e-09
17770.0 1.4372e-09
17790.0 1.4322e-09
17810.0 1.427e-09
17830.0 1.4218e-09
17850.0 1.4167e-09
17870.0 1.4117e-09
17890.0 1.4064e-09
17910.0 1.4012e-09
17930.0 1.3963e-09
17950.0 1.3911e-09
17970.0 1.3859e-09
17990.0 1.3809e-09
18010.0 1.3759e-09
18030.0 1.3706e-09
18050.0 1.3654e-09
18070.0 1.3604e-09
18090.0 1.3553e-09
18110.0 1.35e-09
18130.0 1.345e-09
18150.0 1.34e-09
18170.0 1.3347e-09
18190.0 1.3296e-09
18210.0 1.3246e-09
18230.0 1.3194e-09
18250.0 1.3141e-09
18270.0 1.3091e-09
18290.0 1.3041e-09
18310.0 1.2988e-09
18330.0 1.2937e-09
18350.0 1.2888e-09
18370.0 1.2836e-09
18390.0 1.2784e-09
18410.0 1.2733e-09
18430.0 1.2682e-09
18450.0 1.2629e-09
18470.0 1.2579e-09
18490.0 1.2529e-09
18510.0 1.2477e-09
18530.0 1.2425e-09
18550.0 1.2375e-09
18570.0 1.2324e-09
18590.0 1.2271e-09
18610.0 1.222e-09
18630.0 1.217e-09
18650.0 1.2118e-09
18670.0 1.2066e-09
18690.0 1.2016e-09
18710.0 1.1965e-09
18730.0 1.1913e-09
18750.0 1.1862e-09
18770.0 1.1812e-09
18790.0 1.1759e-09
18810.0 1.1707e-09
18830.0 1.1657e-09
18850.0 1.1606e-09
18870.0 1.1554e-09
18890.0 1.1503e-09
18910.0 1.1453e-09
18930.0 1.1401e-09
18950.0 1.1349e-09
18970.0 1.1299e-09
18990.0 1.1248e-09
19010.0 1.1195e-09
19030.0 1.1145e-09
19050.0 1.1094e-09
19070.0 1.1042e-09
19090.0 1.0991e-09
19110.0 1.0941e-09
19130.0 1.0889e-09
19150.0 1.0837e-09
19170.0 1.0786e-09
19190.0 1.0736e-09
19210.0 1.0683e-09
19230.0 1.0631e-09
19250.0 1.0582e-09
19270.0 1.053e-09
19290.0 1.0478e-09
19310.0 1.0428e-09
19330.0 1.0378e-09
19350.0 1.0324e-09
19370.0 1.0273e-09
19390.0 1.0223e-09
19410.0 1.0171e-09
19430.0 1.0119e-09
19450.0 1.0069e-09
19470.0 1.0019e-09
19490.0 9.9662e-10
19510.0 9.9153e-10
19530.0 9.8653e-10
19550.0 9.8129e-10
19570.0 9.7603e-10
19590.0 9.7104e-10
19610.0 9.6595e-10
19630.0 9.6072e-10
19650.0 9.5565e-10
19670.0 9.5067e-10
19690.0 9.4543e-10
19710.0 9.4025e-10
19730.0 9.3523e-10
19750.0 9.3012e-10
19770.0 9.2481e-10
19790.0 9.1974e-10
19810.0 9.1474e-10
19830.0 9.0956e-10
19850.0 9.0442e-10
19870.0 8.9949e-10
19890.0 8.9444e-10
19910.0 8.8936e-10
19930.0 8.8465e-10
19950.0 8.8021e-10
19970.0 8.7596e-10
19990.0 8.7218e-10
20010.0 8.6906e-10
20030.0 8.6634e-10
20050.0 8.6408e-10
20070.0 8.6232e-10
20090.0 8.6089e-10
20110.0 8.5963e-10
20130.0 8.5856e-10
20150.0 8.5761e-10
20170.0 8.5666e-10
20190.0 8.557e-10
20210.0 8.5474e-10
20230.0 8.5375e-10
20250.0 8.5267e-10
20270.0 8.5155e-10
20290.0 8.504e-10
20310.0 8.4915e-10
20330.0 8.4779e-10
20350.0 8.4644e-10
20370.0 8.4502e-10
20390.0 8.4348e-10
20410.0 8.419e-10
20430.0 8.4033e-10
20450.0 8.3863e-10
20470.0 8.369e-10
20490.0 8.3521e-10
20510.0 8.335e-10
20530.0 8.3173e-10
20550.0 8.3003e-10
20570.0 8.2841e-10
20590.0 8.2676e-10
20610.0 8.2515e-10
20630.0 8.2363e-10
20650.0 8.2212e-10
20670.0 8.2057e-10
20690.0 8.1909e-10
20710.0 8.1762e-10
20730.0 8.1608e-10
20750.0 8.1449e-10
20770.0 8.1289e-10
20790.0 8.1118e-10
20810.0 8.093e-10
20830.0 8.0735e-10
20850.0 8.0529e-10
20870.0 8.0299e-10
20890.0 8.0054e-10
20910.0 7.9806e-10
20930.0 7.954e-10
20950.0 7.9254e-10
20970.0 7.8967e-10
20990.0 7.8676e-10
21010.0 7.8363e-10
21030.0 7.805e-10
21050.0 7.7744e-10
21070.0 7.7432e-10
21090.0 7.711e-10
21110.0 7.6806e-10
21130.0 7.6508e-10
21150.0 7.6202e-10
21170.0 7.5902e-10
21190.0 7.5616e-10
21210.0 7.532e-10
21230.0 7.5019e-10
21250.0 7.473e-10
21270.0 7.444e-10
21290.0 7.4136e-10
21310.0 7.383e-10
21330.0 7.3533e-10
21350.0 7.3218e-10
21370.0 7.2891e-10
21390.0 7.2566e-10
21410.0 7.2235e-10
21430.0 7.1875e-10
21450.0 7.1519e-10
21470.0 7.1165e-10
21490.0 7.0793e-10
21510.0 7.0408e-10
21530.0 7.0033e-10
21550.0 6.965e-10
21570.0 6.9247e-10
21590.0 6.885e-10
21610.0 6.846e-10
21630.0 6.8056e-10
21650.0 6.764e-10
21670.0 6.725e-10
21690.0 6.6855e-10
21710.0 6.6449e-10
21730.0 6.6052e-10
21750.0 6.567e-10
21770.0 6.5265e-10
21790.0 6.4864e-10
21810.0 6.4478e-10
21830.0 6.4088e-10
21850.0 6.3685e-10
21870.0 6.3294e-10
21890.0 6.2915e-10
21910.0 6.2521e-10
21930.0 6.2129e-10
21950.0 6.1753e-10
21970.0 6.1374e-10
21990.0 6.0982e-10
22010.0 6.0615e-10
22030.0 6.026e-10
22050.0 5.9902e-10
22070.0 5.9554e-10
22090.0 5.9234e-10
22110.0 5.8918e-10
22130.0 5.8607e-10
22150.0 5.8319e-10
22170.0 5.8049e-10
22190.0 5.7781e-10
22210.0 5.7528e-10
22230.0 5.73e-10
22250.0 5.7078e-10
22270.0 5.6861e-10
22290.0 5.6661e-10
22310.0 5.647e-10
22330.0 5.6276e-10
22350.0 5.609e-10
22370.0 5.5913e-10
22390.0 5.5733e-10
22410.0 5.5548e-10
22430.0 5.5373e-10
22450.0 5.5197e-10
22470.0 5.5012e-10
22490.0 5.4829e-10
22510.0 5.4649e-10
22530.0 5.446e-10
22550.0 5.4266e-10
22570.0 5.408e-10
22590.0 5.3893e-10
22610.0 5.3701e-10
22630.0 5.3513e-10
