#lamb flux
1010.0 6.3406e-06
1030.0 7.1373e-06
1050.0 7.9617e-06
1070.0 8.8939e-06
1090.0 9.9851e-06
1110.0 1.1107e-05
1130.0 1.2244e-05
1150.0 1.3443e-05
1170.0 1.4695e-05
1190.0 1.5907e-05
1210.0 1.7161e-05
1230.0 1.8487e-05
1250.0 1.9822e-05
1270.0 2.1165e-05
1290.0 2.2621e-05
1310.0 2.4128e-05
1330.0 2.5634e-05
1350.0 2.7203e-05
1370.0 2.886e-05
1390.0 3.0528e-05
1410.0 3.2195e-05
1430.0 3.3952e-05
1450.0 3.5736e-05
1470.0 3.7492e-05
1490.0 3.9274e-05
1510.0 4.1138e-05
1530.0 4.2924e-05
1550.0 4.4681e-05
1570.0 4.6468e-05
1590.0 4.8234e-05
1610.0 4.99e-05
1630.0 5.156e-05
1650.0 5.3212e-05
1670.0 5.4763e-05
1690.0 5.6236e-05
1710.0 5.7699e-05
1730.0 5.9101e-05
1750.0 6.0342e-05
1770.0 6.155e-05
1790.0 6.271e-05
1810.0 6.3747e-05
1830.0 6.4685e-05
1850.0 6.5634e-05
1870.0 6.6475e-05
1890.0 6.7203e-05
1910.0 6.7897e-05
1930.0 6.8565e-05
1950.0 6.9116e-05
1970.0 6.9602e-05
1990.0 7.0087e-05
2010.0 7.0502e-05
2030.0 7.0824e-05
2050.0 7.1134e-05
2070.0 7.1421e-05
2090.0 7.158e-05
2110.0 7.1674e-05
2130.0 7.1736e-05
2150.0 7.1701e-05
2170.0 7.1538e-05
2190.0 7.1333e-05
2210.0 7.1044e-05
2230.0 7.0618e-05
2250.0 7.0094e-05
2270.0 6.9516e-05
2290.0 6.8808e-05
2310.0 6.7965e-05
2330.0 6.7057e-05
2350.0 6.6064e-05
2370.0 6.4943e-05
2390.0 6.3743e-05
2410.0 6.2487e-05
2430.0 6.1105e-05
2450.0 5.96e-05
2470.0 5.7996e-05
2490.0 5.6278e-05
2510.0 5.4458e-05
2530.0 5.266e-05
2550.0 5.1067e-05
2570.0 4.9908e-05
2590.0 4.9421e-05
2610.0 5.0099e-05
2630.0 5.2079e-05
2650.0 5.51e-05
2670.0 5.915e-05
2690.0 6.3926e-05
2710.0 6.837e-05
2730.0 7.1902e-05
2750.0 7.4411e-05
2770.0 7.5129e-05
2790.0 7.3871e-05
2810.0 7.0821e-05
2830.0 6.5959e-05
2850.0 5.9753e-05
2870.0 5.2564e-05
2890.0 4.4473e-05
2910.0 3.5855e-05
2930.0 2.7155e-05
2950.0 1.8046e-05
2970.0 8.6521e-06
2990.0 4.3253e-06
3010.0 9.5463e-06
3030.0 9.5463e-06
3050.0 9.5463e-06
3070.0 9.5463e-06
3090.0 9.5463e-06
3110.0 9.5463e-06
3130.0 9.5463e-06
3150.0 9.5463e-06
3170.0 9.5463e-06
3190.0 9.5463e-06
3210.0 9.5463e-06
3230.0 0.00025996
3250.0 0.00051679
3270.0 0.00051707
3290.0 0.00055715
3310.0 0.00043872
3330.0 0.00043829
3350.0 0.00048644
3370.0 0.00055548
3390.0 0.00063338
3410.0 0.00071678
3430.0 0.00082318
3450.0 0.00093112
3470.0 0.0010439
3490.0 0.0011059
3510.0 0.0010756
3530.0 0.0010894
3550.0 0.0011484
3570.0 0.0011566
3590.0 0.0012332
3610.0 0.0011799
3630.0 0.0014607
3650.0 0.0016387
3670.0 0.0017504
3690.0 0.0016534
3710.0 0.0013605
3730.0 0.0012771
3750.0 0.0011519
3770.0 0.001064
3790.0 0.00096536
3810.0 0.00093268
3830.0 0.0010721
3850.0 0.00047111
3870.0 0.00086633
3890.0 0.0010235
3910.0 0.0011525
3930.0 0.0014339
3950.0 0.0015587
3970.0 0.0018177
3990.0 0.0022283
4010.0 0.0016751
4030.0 0.0013878
4050.0 0.0010532
4070.0 0.0010832
4090.0 0.0017002
4110.0 0.0016134
4130.0 0.0017394
4150.0 0.0016383
4170.0 0.00156
4190.0 0.001419
4210.0 0.0020606
4230.0 0.0021482
4250.0 0.0023364
4270.0 0.0021932
4290.0 0.0022145
4310.0 0.002485
4330.0 0.0029245
4350.0 0.0029355
4370.0 0.0028584
4390.0 0.0025565
4410.0 0.0023799
4430.0 0.0018694
4450.0 0.0015643
4470.0 0.0017431
4490.0 0.0020777
4510.0 0.0021518
4530.0 0.0022167
4550.0 0.0023003
4570.0 0.0032568
4590.0 0.0048153
4610.0 0.0056605
4630.0 0.0056766
4650.0 0.0059443
4670.0 0.0068073
4690.0 0.007438
4710.0 0.006127
4730.0 0.0046686
4750.0 0.0037069
4770.0 0.0032738
4790.0 0.0030687
4810.0 0.0029263
4830.0 0.0032331
4850.0 0.0037462
4870.0 0.0040883
4890.0 0.0042652
4910.0 0.0039294
4930.0 0.0041828
4950.0 0.0051606
4970.0 0.00615
4990.0 0.0064242
5010.0 0.0059265
5030.0 0.0049257
5050.0 0.0037548
5070.0 0.0029681
5090.0 0.0026623
5110.0 0.0026041
5130.0 0.0026576
5150.0 0.002649
5170.0 0.0025349
5190.0 0.0023952
5210.0 0.0023466
5230.0 0.002643
5250.0 0.0030774
5270.0 0.0036845
5290.0 0.0042742
5310.0 0.0045446
5330.0 0.0049567
5350.0 0.0055397
5370.0 0.00588
5390.0 0.0053884
5410.0 0.0048119
5430.0 0.0046935
5450.0 0.0054813
5470.0 0.0068695
5490.0 0.0081396
5510.0 0.0087655
5530.0 0.008711
5550.0 0.0083717
5570.0 0.0081811
5590.0 0.0079799
5610.0 0.0079538
5630.0 0.0079773
5650.0 0.0080529
5670.0 0.008073
5690.0 0.0074982
5710.0 0.0063711
5730.0 0.0057148
5750.0 0.0054663
5770.0 0.0056324
5790.0 0.005896
5810.0 0.0062321
5830.0 0.0064325
5850.0 0.006204
5870.0 0.0058828
5890.0 0.0057023
5910.0 0.0059477
5930.0 0.0063318
5950.0 0.0060596
5970.0 0.0054507
5990.0 0.0046169
6010.0 0.0037641
6030.0 0.003419
6050.0 0.003661
6070.0 0.0039278
6090.0 0.0038245
6110.0 0.0033761
6130.0 0.0034089
6150.0 0.0039446
6170.0 0.00458
6190.0 0.0051013
6210.0 0.0051696
6230.0 0.0050619
6250.0 0.0046362
6270.0 0.0039079
6290.0 0.0032398
6310.0 0.0028524
6330.0 0.0027659
6350.0 0.0028317
6370.0 0.0028485
6390.0 0.0031342
6410.0 0.0038736
6430.0 0.004858
6450.0 0.0055763
6470.0 0.0057932
6490.0 0.0057114
6510.0 0.0058378
6530.0 0.0060601
6550.0 0.0060076
6570.0 0.0062286
6590.0 0.0063523
6610.0 0.0064654
6630.0 0.0064279
6650.0 0.006066
6670.0 0.0055473
6690.0 0.0049827
6710.0 0.0046616
6730.0 0.0046496
6750.0 0.004805
6770.0 0.0049489
6790.0 0.0050873
6810.0 0.0051775
6830.0 0.0050724
6850.0 0.0048573
6870.0 0.0045569
6890.0 0.0044498
6910.0 0.0042671
6930.0 0.0043989
6950.0 0.0046977
6970.0 0.0048345
6990.0 0.0049474
7010.0 0.004828
7030.0 0.0044539
7050.0 0.0039313
7070.0 0.0034491
7090.0 0.0031569
7110.0 0.0031159
7130.0 0.003108
7150.0 0.0028261
7170.0 0.0026626
7190.0 0.0028587
7210.0 0.0032612
7230.0 0.0037779
7250.0 0.0040447
7270.0 0.004035
7290.0 0.0037134
7310.0 0.0034041
7330.0 0.0032333
7350.0 0.0032313
7370.0 0.0033002
7390.0 0.0034453
7410.0 0.0037926
7430.0 0.0043991
7450.0 0.0050107
7470.0 0.0053467
7490.0 0.0052923
7510.0 0.0049546
7530.0 0.0041889
7550.0 0.0037325
7570.0 0.0032725
7590.0 0.0030427
7610.0 0.0031335
7630.0 0.0034157
7650.0 0.0037887
7670.0 0.0041417
7690.0 0.0043647
7710.0 0.0046174
7730.0 0.0048874
7750.0 0.0051157
7770.0 0.0050417
7790.0 0.0050384
7810.0 0.005125
7830.0 0.0051355
7850.0 0.0049564
7870.0 0.0047514
7890.0 0.0047082
7910.0 0.0045002
7930.0 0.0044159
7950.0 0.0041665
7970.0 0.0040493
7990.0 0.0039043
8010.0 0.0039997
8030.0 0.0040141
8050.0 0.0040353
8070.0 0.0039759
8090.0 0.003938
8110.0 0.003768
8130.0 0.0037409
8150.0 0.0036687
8170.0 0.0035563
8190.0 0.0034738
8210.0 0.0034615
8230.0 0.003351
8250.0 0.0032448
8270.0 0.0028993
8290.0 0.0023406
8310.0 0.0017384
8330.0 0.0013211
8350.0 0.0012203
8370.0 0.0014542
8390.0 0.0017658
8410.0 0.0019159
8430.0 0.0019749
8450.0 0.0020663
8470.0 0.0021944
8490.0 0.0024468
8510.0 0.0027848
8530.0 0.0032088
8550.0 0.0036277
8570.0 0.0039827
8590.0 0.004255
8610.0 0.0044171
8630.0 0.004439
8650.0 0.0043979
8670.0 0.0043853
8690.0 0.0045748
8710.0 0.0048223
8730.0 0.0049977
8750.0 0.0049601
8770.0 0.0050077
8790.0 0.0049641
8810.0 0.0046378
8830.0 0.0043834
8850.0 0.0040416
8870.0 0.0037634
8890.0 0.0036551
8910.0 0.0036638
8930.0 0.0034585
8950.0 0.0032392
8970.0 0.0031451
8990.0 0.0031027
9010.0 0.002979
9030.0 0.0029116
9050.0 0.0028886
9070.0 0.002878
9090.0 0.0028686
9110.0 0.0028597
9130.0 0.0028505
9150.0 0.0028415
9170.0 0.002831
9190.0 0.0028226
9210.0 0.0028279
9230.0 0.0028135
9250.0 0.0028017
9270.0 0.0027913
9290.0 0.0027818
9310.0 0.0027725
9330.0 0.0027636
9350.0 0.0027553
9370.0 0.002747
9390.0 0.0027385
9410.0 0.0027303
9430.0 0.002722
9450.0 0.0027105
9470.0 0.0027001
9490.0 0.0026951
9510.0 0.0026885
9530.0 0.0026814
9550.0 0.0026741
9570.0 0.0026667
9590.0 0.002659
9610.0 0.0026514
9630.0 0.0026438
9650.0 0.0026361
9670.0 0.0026284
9690.0 0.0026208
9710.0 0.0026132
9730.0 0.0026056
9750.0 0.002598
9770.0 0.0025905
9790.0 0.0025829
9810.0 0.0025753
9830.0 0.0025677
9850.0 0.0025602
9870.0 0.0025525
9890.0 0.0025448
9910.0 0.0025371
9930.0 0.002529
9950.0 0.0025006
9970.0 0.0024989
9990.0 0.002496
10010.0 0.0024923
10030.0 0.0024869
10050.0 0.00248
10070.0 0.0024728
10090.0 0.0024657
10110.0 0.0024571
10130.0 0.0024492
10150.0 0.0024411
10170.0 0.0024323
10190.0 0.0024228
10210.0 0.002414
10230.0 0.0024055
10250.0 0.0023961
10270.0 0.0023867
10290.0 0.0023779
10310.0 0.0023682
10330.0 0.0023578
10350.0 0.0023482
10370.0 0.0023385
10390.0 0.0023279
10410.0 0.0023172
10430.0 0.0023073
10450.0 0.0022965
10470.0 0.0022851
10490.0 0.0022742
10510.0 0.0022633
10530.0 0.0022508
10550.0 0.0022388
10570.0 0.0022273
10590.0 0.0022149
10610.0 0.002202
10630.0 0.0021897
10650.0 0.0021771
10670.0 0.0021632
10690.0 0.0021496
10710.0 0.0021363
10730.0 0.0021221
10750.0 0.0021069
10770.0 0.0020929
10790.0 0.0020784
10810.0 0.0020628
10830.0 0.0020475
10850.0 0.0020326
10870.0 0.0020159
10890.0 0.0019989
10910.0 0.0019824
10930.0 0.0019651
10950.0 0.001946
10970.0 0.0019267
10990.0 0.0019073
11010.0 0.0019684
11030.0 0.0019446
11050.0 0.0019215
11070.0 0.0018979
11090.0 0.001873
11110.0 0.0018501
11130.0 0.0018283
11150.0 0.0018062
11170.0 0.0017847
11190.0 0.0017648
11210.0 0.0017448
11230.0 0.0017243
11250.0 0.001705
11270.0 0.0016861
11290.0 0.0016664
11310.0 0.0016467
11330.0 0.0016284
11350.0 0.0016094
11370.0 0.0015898
11390.0 0.0015705
11410.0 0.0015513
11430.0 0.0015301
11450.0 0.0015085
11470.0 0.0014868
11490.0 0.0014636
11510.0 0.0014384
11530.0 0.0014132
11550.0 0.0013872
11570.0 0.001359
11590.0 0.0013302
11610.0 0.0013016
11630.0 0.0012713
11650.0 0.0012399
11670.0 0.0012098
11690.0 0.0011798
11710.0 0.0011491
11730.0 0.0011193
11750.0 0.0010913
11770.0 0.0010631
11790.0 0.0010354
11810.0 0.0010096
11830.0 0.00098491
11850.0 0.00095994
11870.0 0.00093677
11890.0 0.00091529
11910.0 0.00089405
11930.0 0.00087346
11950.0 0.00085446
11970.0 0.00083604
11990.0 0.00081764
12010.0 0.00080047
12030.0 0.0007844
12050.0 0.00076862
12070.0 0.00075339
12090.0 0.00073992
12110.0 0.00072719
12130.0 0.00071519
12150.0 0.0007046
12170.0 0.00069543
12190.0 0.0006871
12210.0 0.00068028
12230.0 0.00067506
12250.0 0.00067121
12270.0 0.00066881
12290.0 0.00066795
12310.0 0.00066847
12330.0 0.00067051
12350.0 0.00067399
12370.0 0.00067862
12390.0 0.00068458
12410.0 0.00069225
12430.0 0.00070056
12450.0 0.00070969
12470.0 0.00072005
12490.0 0.00073109
12510.0 0.00074203
12530.0 0.00075359
12550.0 0.00076548
12570.0 0.00077665
12590.0 0.00078713
12610.0 0.00079725
12630.0 0.00080615
12650.0 0.0008131
12670.0 0.00081873
12690.0 0.00082266
12710.0 0.0008245
12730.0 0.00082442
12750.0 0.00082241
12770.0 0.0008184
12790.0 0.00081273
12810.0 0.0008054
12830.0 0.00079648
12850.0 0.00078676
12870.0 0.00077628
12890.0 0.00076488
12910.0 0.00075327
12930.0 0.00074186
12950.0 0.00073015
12970.0 0.00071847
12990.0 0.00070758
13010.0 0.00069705
13030.0 0.00068663
13050.0 0.00067675
13070.0 0.0006675
13090.0 0.00065824
13110.0 0.00064915
13130.0 0.00064049
13150.0 0.00063196
13170.0 0.00062318
13190.0 0.00061473
13210.0 0.0006066
13230.0 0.00059841
13250.0 0.00059041
13270.0 0.00058298
13290.0 0.00057589
13310.0 0.00056915
13330.0 0.00056326
13350.0 0.00055822
13370.0 0.00055392
13390.0 0.00055051
13410.0 0.00054807
13430.0 0.00054637
13450.0 0.00054533
13470.0 0.00054478
13490.0 0.00054447
13510.0 0.00054423
13530.0 0.00054375
13550.0 0.0005428
13570.0 0.00054121
13590.0 0.00053876
13610.0 0.00053544
13630.0 0.0005313
13650.0 0.0005261
13670.0 0.00052008
13690.0 0.00051355
13710.0 0.00050641
13730.0 0.00049858
13750.0 0.00049101
13770.0 0.00048355
13790.0 0.00047609
13810.0 0.00046904
13830.0 0.00046273
13850.0 0.00045678
13870.0 0.00045136
13890.0 0.00044671
13910.0 0.00044268
13930.0 0.00043906
13950.0 0.00043598
13970.0 0.00043342
13990.0 0.00043112
14010.0 0.00042903
14030.0 0.00042715
14050.0 0.00042536
14070.0 0.00042348
14090.0 0.00042155
14110.0 0.00041952
14130.0 0.00041726
14150.0 0.0004147
14170.0 0.00041199
14190.0 0.00040903
14210.0 0.00040574
14230.0 0.0004023
14250.0 0.00039881
14270.0 0.00039511
14290.0 0.00039135
14310.0 0.00038785
14330.0 0.0003845
14350.0 0.0003813
14370.0 0.00037849
14390.0 0.00037611
14410.0 0.00037402
14430.0 0.00037234
14450.0 0.0003711
14470.0 0.00037022
14490.0 0.00036965
14510.0 0.00036941
14530.0 0.00036941
14550.0 0.00036965
14570.0 0.00037011
14590.0 0.00037076
14610.0 0.00037165
14630.0 0.00037283
14650.0 0.00037426
14670.0 0.00037597
14690.0 0.0003781
14710.0 0.00038066
14730.0 0.00038345
14750.0 0.00038671
14770.0 0.0003905
14790.0 0.00039465
14810.0 0.00039914
14830.0 0.00040445
14850.0 0.00041023
14870.0 0.00041633
14890.0 0.00042301
14910.0 0.00043028
14930.0 0.0004375
14950.0 0.00044448
14970.0 0.00045133
14990.0 0.00045736
15010.0 0.00046224
15030.0 0.00046616
15050.0 0.0004691
15070.0 0.00047097
15090.0 0.00047218
15110.0 0.00047294
15130.0 0.00047339
15150.0 0.00047369
15170.0 0.00047391
15190.0 0.00047409
15210.0 0.00047427
15230.0 0.00047446
15250.0 0.00047464
15270.0 0.00047483
15290.0 0.00047504
15310.0 0.00047526
15330.0 0.00047547
15350.0 0.0004757
15370.0 0.00047594
15390.0 0.00047618
15410.0 0.00047643
15430.0 0.00047669
15450.0 0.00047695
15470.0 0.00047721
15490.0 0.00047749
15510.0 0.00047777
15530.0 0.00047806
15550.0 0.00047835
15570.0 0.00047865
15590.0 0.00047895
15610.0 0.00047925
15630.0 0.00047956
15650.0 0.00047988
15670.0 0.00048019
15690.0 0.00048051
15710.0 0.00048084
15730.0 0.00048117
15750.0 0.00048149
15770.0 0.00048183
15790.0 0.00048217
15810.0 0.0004825
15830.0 0.00048283
15850.0 0.00048318
15870.0 0.00048352
15890.0 0.00048386
15910.0 0.0004842
15930.0 0.00048455
15950.0 0.00048488
15970.0 0.00048523
15990.0 0.00048557
16010.0 0.00048591
16030.0 0.00048624
16050.0 0.00048659
16070.0 0.00048692
16090.0 0.00048726
16110.0 0.00048759
16130.0 0.00048792
16150.0 0.00048824
16170.0 0.00048856
16190.0 0.00048889
16210.0 0.0004892
16230.0 0.00048951
16250.0 0.00048982
16270.0 0.00049012
16290.0 0.00049042
16310.0 0.00049071
16330.0 0.000491
16350.0 0.00049128
16370.0 0.00049154
16390.0 0.00049181
16410.0 0.00049208
16430.0 0.00049233
16450.0 0.00049257
16470.0 0.00049281
16490.0 0.00049304
16510.0 0.00049326
16530.0 0.00049347
16550.0 0.00049368
16570.0 0.00049386
16590.0 0.00049404
16610.0 0.00049422
16630.0 0.00049438
16650.0 0.00049453
16670.0 0.00049468
16690.0 0.00049481
16710.0 0.00049492
16730.0 0.00049503
16750.0 0.00049513
16770.0 0.00049521
16790.0 0.00049527
16810.0 0.00049533
16830.0 0.00049537
16850.0 0.0004954
16870.0 0.00049541
16890.0 0.00049542
16910.0 0.0004954
16930.0 0.00049537
16950.0 0.00049533
16970.0 0.00049527
16990.0 0.00049519
17010.0 0.0004951
17030.0 0.000495
17050.0 0.00049488
17070.0 0.00049474
17090.0 0.00049459
17110.0 0.00049442
17130.0 0.00049422
17150.0 0.00049401
17170.0 0.0004938
17190.0 0.00049355
17210.0 0.00049329
17230.0 0.00049302
17250.0 0.00049272
17270.0 0.00049241
17290.0 0.00049207
17310.0 0.00049173
17330.0 0.00049136
17350.0 0.00049096
17370.0 0.00049056
17390.0 0.00049014
17410.0 0.00048969
17430.0 0.00048923
17450.0 0.00048875
17470.0 0.00048824
17490.0 0.00048771
17510.0 0.00048717
17530.0 0.00048661
17550.0 0.00048603
17570.0 0.00048543
17590.0 0.00048481
17610.0 0.00048417
17630.0 0.0004835
17650.0 0.00048283
17670.0 0.00048213
17690.0 0.0004814
17710.0 0.00048067
17730.0 0.00047991
17750.0 0.00047913
17770.0 0.00047833
17790.0 0.00047752
17810.0 0.00047668
17830.0 0.00047582
17850.0 0.00047495
17870.0 0.00047405
17890.0 0.00047314
17910.0 0.0004722
17930.0 0.00047126
17950.0 0.00047029
17970.0 0.0004693
17990.0 0.00046829
18010.0 0.00046727
18030.0 0.00046622
18050.0 0.00046516
18070.0 0.00046409
18090.0 0.00046299
18110.0 0.00046187
18130.0 0.00046075
18150.0 0.0004596
18170.0 0.00045844
18190.0 0.00045726
18210.0 0.00045607
18230.0 0.00045485
18250.0 0.00045362
18270.0 0.00045238
18290.0 0.00045112
18310.0 0.00044984
18330.0 0.00044856
18350.0 0.00044726
18370.0 0.00044594
18390.0 0.00044461
18410.0 0.00044327
18430.0 0.00044191
18450.0 0.00044053
18470.0 0.00043915
18490.0 0.00043776
18510.0 0.00043635
18530.0 0.00043493
18550.0 0.0004335
18570.0 0.00043206
18590.0 0.0004306
18610.0 0.00042914
18630.0 0.00042767
18650.0 0.00042618
18670.0 0.00042468
18690.0 0.00042318
18710.0 0.00042167
18730.0 0.00042015
18750.0 0.00041862
18770.0 0.00041709
18790.0 0.00041553
18810.0 0.00041398
18830.0 0.00041242
18850.0 0.00041086
18870.0 0.00040928
18890.0 0.0004077
18910.0 0.00040612
18930.0 0.00040452
18950.0 0.00040293
18970.0 0.00040133
18990.0 0.00039972
19010.0 0.00039811
19030.0 0.00039649
19050.0 0.00039488
19070.0 0.00039326
19090.0 0.00039163
19110.0 0.00039001
19130.0 0.00038838
19150.0 0.00038674
19170.0 0.00038511
19190.0 0.00038348
19210.0 0.00038183
19230.0 0.0003802
19250.0 0.00037856
19270.0 0.00037692
19290.0 0.00037528
19310.0 0.00037364
19330.0 0.00037201
19350.0 0.00037036
19370.0 0.00036872
19390.0 0.00036709
19410.0 0.00036545
19430.0 0.00036382
19450.0 0.00036219
19470.0 0.00036056
19490.0 0.00035893
19510.0 0.00035731
19530.0 0.00035569
19550.0 0.00035406
19570.0 0.00035244
19590.0 0.00035083
19610.0 0.00034923
19630.0 0.00034762
19650.0 0.00034602
19670.0 0.00034442
19690.0 0.00034283
19710.0 0.00034124
19730.0 0.00033966
19750.0 0.00033808
19770.0 0.0003365
19790.0 0.00033493
19810.0 0.00033337
19830.0 0.0003318
19850.0 0.00033022
19870.0 0.00032862
19890.0 0.00032696
19910.0 0.00032518
19930.0 0.00032321
19950.0 0.00032097
19970.0 0.00031827
19990.0 0.00031506
20010.0 0.00031138
20030.0 0.00030706
20050.0 0.00030212
20070.0 0.00029685
20090.0 0.00029131
20110.0 0.00028529
20130.0 0.00027933
20150.0 0.00027355
20170.0 0.00026773
20190.0 0.00026198
20210.0 0.00025658
20230.0 0.00025135
20250.0 0.00024616
20270.0 0.00024127
20290.0 0.00023668
20310.0 0.00023219
20330.0 0.0002278
20350.0 0.00022382
20370.0 0.00021999
20390.0 0.00021626
20410.0 0.00021275
20430.0 0.00020951
20450.0 0.0002063
20470.0 0.00020328
20490.0 0.00020052
20510.0 0.00019791
20530.0 0.00019543
20550.0 0.00019318
20570.0 0.00019115
20590.0 0.00018926
20610.0 0.00018755
20630.0 0.00018605
20650.0 0.00018471
20670.0 0.00018353
20690.0 0.00018252
20710.0 0.00018167
20730.0 0.00018094
20750.0 0.00018035
20770.0 0.00017985
20790.0 0.00017944
20810.0 0.00017911
20830.0 0.00017883
20850.0 0.00017858
20870.0 0.00017837
20890.0 0.00017816
20910.0 0.0001779
20930.0 0.00017762
20950.0 0.00017729
20970.0 0.00017688
20990.0 0.0001764
21010.0 0.00017583
21030.0 0.00017515
21050.0 0.00017438
21070.0 0.0001735
21090.0 0.00017249
21110.0 0.00017139
21130.0 0.0001702
21150.0 0.00016889
21170.0 0.00016749
21190.0 0.00016604
21210.0 0.00016449
21230.0 0.00016284
21250.0 0.00016118
21270.0 0.00015948
21290.0 0.0001577
21310.0 0.00015591
21330.0 0.00015416
21350.0 0.00015237
21370.0 0.00015056
21390.0 0.00014883
21410.0 0.00014713
21430.0 0.00014541
21450.0 0.00014379
21470.0 0.00014228
21490.0 0.00014083
21510.0 0.00013946
21530.0 0.00013824
21550.0 0.00013712
21570.0 0.00013611
21590.0 0.00013524
21610.0 0.00013451
21630.0 0.00013391
21650.0 0.00013345
21670.0 0.00013311
21690.0 0.0001329
21710.0 0.00013281
21730.0 0.00013283
21750.0 0.00013291
21770.0 0.00013311
21790.0 0.00013338
21810.0 0.00013366
21830.0 0.00013399
21850.0 0.00013436
21870.0 0.00013471
21890.0 0.00013502
21910.0 0.00013534
21930.0 0.00013561
21950.0 0.00013582
21970.0 0.00013598
21990.0 0.0001361
22010.0 0.00013613
22030.0 0.00013609
22050.0 0.000136
22070.0 0.00013584
22090.0 0.00013561
22110.0 0.00013532
22130.0 0.00013499
22150.0 0.0001346
22170.0 0.00013417
22190.0 0.0001337
22210.0 0.00013318
22230.0 0.00013263
22250.0 0.00013205
22270.0 0.00013142
22290.0 0.00013077
22310.0 0.00013008
22330.0 0.00012932
22350.0 0.00012853
22370.0 0.00012769
22390.0 0.00012679
22410.0 0.0001258
22430.0 0.00012476
22450.0 0.00012367
22470.0 0.00012246
22490.0 0.00012119
22510.0 0.00011987
22530.0 0.00011844
22550.0 0.00011691
22570.0 0.00011536
22590.0 0.00011375
22610.0 0.00011206
22630.0 0.00011034
22650.0 0.00010867
22670.0 0.00010693
22690.0 0.00010519
22710.0 0.00010351
22730.0 0.00010188
22750.0 0.00010021
22770.0 9.8663e-05
22790.0 9.7218e-05
22810.0 9.5812e-05
22830.0 9.4479e-05
22850.0 9.3275e-05
22870.0 9.2143e-05
22890.0 9.1064e-05
22910.0 9.0092e-05
22930.0 8.9211e-05
22950.0 8.8381e-05
22970.0 8.7604e-05
22990.0 8.692e-05
23010.0 8.6271e-05
23030.0 8.5648e-05
23050.0 8.5064e-05
23070.0 8.4509e-05
