#lamb flux
1010.0 2.4824e-07
1030.0 2.7214e-07
1050.0 2.9963e-07
1070.0 3.3057e-07
1090.0 3.6572e-07
1110.0 4.0177e-07
1130.0 4.3805e-07
1150.0 4.7606e-07
1170.0 5.1526e-07
1190.0 5.5244e-07
1210.0 5.9011e-07
1230.0 6.2905e-07
1250.0 6.6719e-07
1270.0 7.0423e-07
1290.0 7.4337e-07
1310.0 7.8249e-07
1330.0 8.1999e-07
1350.0 8.5792e-07
1370.0 8.9707e-07
1390.0 9.3525e-07
1410.0 9.7228e-07
1430.0 1.011e-06
1450.0 1.0497e-06
1470.0 1.0871e-06
1490.0 1.1249e-06
1510.0 1.1648e-06
1530.0 1.2027e-06
1550.0 1.24e-06
1570.0 1.2785e-06
1590.0 1.3171e-06
1610.0 1.354e-06
1630.0 1.392e-06
1650.0 1.431e-06
1670.0 1.4686e-06
1690.0 1.5058e-06
1710.0 1.5443e-06
1730.0 1.583e-06
1750.0 1.6194e-06
1770.0 1.6567e-06
1790.0 1.6948e-06
1810.0 1.7315e-06
1830.0 1.7674e-06
1850.0 1.8055e-06
1870.0 1.8425e-06
1890.0 1.878e-06
1910.0 1.9141e-06
1930.0 1.9508e-06
1950.0 1.9856e-06
1970.0 2.0197e-06
1990.0 2.0548e-06
2010.0 2.089e-06
2030.0 2.1215e-06
2050.0 2.1546e-06
2070.0 2.1883e-06
2090.0 2.2192e-06
2110.0 2.2494e-06
2130.0 2.2802e-06
2150.0 2.3095e-06
2170.0 2.3366e-06
2190.0 2.3642e-06
2210.0 2.3911e-06
2230.0 2.4158e-06
2250.0 2.4393e-06
2270.0 2.4635e-06
2290.0 2.4854e-06
2310.0 2.505e-06
2330.0 2.5247e-06
2350.0 2.5442e-06
2370.0 2.5623e-06
2390.0 2.582e-06
2410.0 2.6072e-06
2430.0 2.6376e-06
2450.0 2.6763e-06
2470.0 2.73e-06
2490.0 2.8019e-06
2510.0 2.8854e-06
2530.0 2.99e-06
2550.0 3.1274e-06
2570.0 3.3043e-06
2590.0 3.5402e-06
2610.0 3.9004e-06
2630.0 4.4122e-06
2650.0 5.0687e-06
2670.0 5.8996e-06
2690.0 6.8951e-06
2710.0 7.9224e-06
2730.0 8.8994e-06
2750.0 9.8249e-06
2770.0 1.0585e-05
2790.0 1.1139e-05
2810.0 1.1534e-05
2830.0 1.1797e-05
2850.0 1.1922e-05
2870.0 1.197e-05
2890.0 1.1974e-05
2910.0 1.1946e-05
2930.0 1.1898e-05
2950.0 1.1847e-05
2970.0 1.1796e-05
2990.0 1.1742e-05
3010.0 0.00037461
3030.0 0.00037308
3050.0 0.00037157
3070.0 0.00036984
3090.0 0.00036792
3110.0 0.00036542
3130.0 0.00036189
3150.0 0.000357
3170.0 0.00035005
3190.0 0.00034116
3210.0 0.00033092
3230.0 0.00031974
3250.0 0.00030832
3270.0 0.00029976
3290.0 0.00029323
3310.0 0.00029171
3330.0 0.00029355
3350.0 0.00029865
3370.0 0.00030699
3390.0 0.00031814
3410.0 0.00033064
3430.0 0.00034494
3450.0 0.00036161
3470.0 0.00038004
3490.0 0.00039987
3510.0 0.00042248
3530.0 0.00044721
3550.0 0.00047376
3570.0 0.00050309
3590.0 0.00053587
3610.0 0.00057243
3630.0 0.00060878
3650.0 0.00064734
3670.0 0.00068206
3690.0 0.00070787
3710.0 0.00072077
3730.0 0.00071301
3750.0 0.00068509
3770.0 0.00070079
3790.0 0.00068465
3810.0 0.00052781
3830.0 0.00050705
3850.0 0.00074733
3870.0 0.00072121
3890.0 0.0005457
3910.0 0.00053047
3930.0 0.0006774
3950.0 0.00081061
3970.0 0.00092139
3990.0 0.00063382
4010.0 0.001186
4030.0 0.0011441
4050.0 0.0012072
4070.0 0.0013689
4090.0 0.0012968
4110.0 0.0011437
4130.0 0.0014098
4150.0 0.0018902
4170.0 0.0014961
4190.0 0.0013193
4210.0 0.0014881
4230.0 0.0018463
4250.0 0.0022078
4270.0 0.0024006
4290.0 0.0021321
4310.0 0.0019688
4330.0 0.0019484
4350.0 0.0024987
4370.0 0.0030414
4390.0 0.0024132
4410.0 0.0013418
4430.0 0.00094737
4450.0 0.00088515
4470.0 0.00054594
4490.0 0.00096735
4510.0 0.0020863
4530.0 0.0025458
4550.0 0.0023994
4570.0 0.0021461
4590.0 0.002296
4610.0 0.0045699
4630.0 0.0064161
4650.0 0.0060467
4670.0 0.0053109
4690.0 0.0054615
4710.0 0.0057176
4730.0 0.0046559
4750.0 0.0029948
4770.0 0.0020522
4790.0 0.0022974
4810.0 0.002423
4830.0 0.0024018
4850.0 0.0026101
4870.0 0.0034582
4890.0 0.0040069
4910.0 0.0030975
4930.0 0.0030106
4950.0 0.0034751
4970.0 0.0046438
4990.0 0.0062661
5010.0 0.0072327
5030.0 0.0057488
5050.0 0.0034903
5070.0 0.0024887
5090.0 0.0018947
5110.0 0.0017669
5130.0 0.002121
5150.0 0.0020398
5170.0 0.0019124
5190.0 0.0016978
5210.0 0.0018909
5230.0 0.0023732
5250.0 0.0027804
5270.0 0.0025569
5290.0 0.0027604
5310.0 0.0037346
5330.0 0.0039871
5350.0 0.0039267
5370.0 0.0044363
5390.0 0.0055489
5410.0 0.0047148
5430.0 0.0035761
5450.0 0.0036259
5470.0 0.0042504
5490.0 0.0053444
5510.0 0.0065142
5530.0 0.0075567
5550.0 0.0067971
5570.0 0.0060831
5590.0 0.0049819
5610.0 0.0050859
5630.0 0.0057525
5650.0 0.0053105
5670.0 0.0048844
5690.0 0.0039276
5710.0 0.0040492
5730.0 0.0039503
5750.0 0.0021011
5770.0 0.0014991
5790.0 0.001875
5810.0 0.0019793
5830.0 0.0031272
5850.0 0.0040973
5870.0 0.0043801
5890.0 0.0041503
5910.0 0.0040297
5930.0 0.0038908
5950.0 0.004024
5970.0 0.0050175
5990.0 0.0040909
6010.0 0.0031267
6030.0 0.0025399
6050.0 0.0022695
6070.0 0.002743
6090.0 0.0031025
6110.0 0.003146
6130.0 0.0028692
6150.0 0.0022449
6170.0 0.0017506
6190.0 0.0021673
6210.0 0.0034672
6230.0 0.0051291
6250.0 0.0055007
6270.0 0.0041697
6290.0 0.0035716
6310.0 0.0027215
6330.0 0.0019778
6350.0 0.001957
6370.0 0.0020554
6390.0 0.0024732
6410.0 0.0032015
6430.0 0.0038632
6450.0 0.0047695
6470.0 0.0050251
6490.0 0.00603
6510.0 0.0067688
6530.0 0.0068967
6550.0 0.0063564
6570.0 0.005124
6590.0 0.0049213
6610.0 0.0040685
6630.0 0.0042597
6650.0 0.0041323
6670.0 0.0036073
6690.0 0.0027899
6710.0 0.002733
6730.0 0.0011792
6750.0 0.0016029
6770.0 0.0025582
6790.0 0.0034178
6810.0 0.0024167
6830.0 0.0024672
6850.0 0.002048
6870.0 0.00193
6890.0 0.0016192
6910.0 0.001969
6930.0 0.0018515
6950.0 0.0022403
6970.0 0.0023117
6990.0 0.0025596
7010.0 0.0024832
7030.0 0.0028386
7050.0 0.0024403
7070.0 0.0020238
7090.0 0.0021682
7110.0 0.0022855
7130.0 0.0026347
7150.0 0.0030064
7170.0 0.0033675
7190.0 0.0035637
7210.0 0.0031416
7230.0 0.0031743
7250.0 0.0034181
7270.0 0.0036896
7290.0 0.0045326
7310.0 0.0047404
7330.0 0.0043868
7350.0 0.003919
7370.0 0.0028615
7390.0 0.0029879
7410.0 0.0037228
7430.0 0.0042461
7450.0 0.0045674
7470.0 0.0041756
7490.0 0.003369
7510.0 0.0055765
7530.0 0.0050164
7550.0 0.004715
7570.0 0.0031563
7590.0 0.001331
7610.0 0.00091231
7630.0 0.0014417
7650.0 0.0019651
7670.0 0.0031998
7690.0 0.0035812
7710.0 0.0031912
7730.0 0.0031354
7750.0 0.0041664
7770.0 0.0042786
7790.0 0.0039205
7810.0 0.0031494
7830.0 0.0034157
7850.0 0.0037721
7870.0 0.0037087
7890.0 0.0028892
7910.0 0.0019048
7930.0 0.001977
7950.0 0.0017811
7970.0 0.0014884
7990.0 0.0013313
8010.0 0.00090532
8030.0 0.00083697
8050.0 0.00090173
8070.0 0.0010015
8090.0 0.0012032
8110.0 0.0011267
8130.0 0.00069239
8150.0 0.00070696
8170.0 0.00041857
8190.0 0.00027413
8210.0 0.00063144
8230.0 0.00075455
8250.0 0.00032612
8270.0 0.00026134
8290.0 0.00045288
8310.0 0.00038879
8330.0 0.00023793
8350.0 0.0001913
8370.0 5.4233e-05
8390.0 0.00020601
8410.0 0.0002413
8430.0 0.00030044
8450.0 0.00033743
8470.0 0.00055083
8490.0 0.00045113
8510.0 0.00035174
8530.0 0.00018442
8550.0 0.00060952
8570.0 0.00094524
8590.0 0.00067207
8610.0 0.00099804
8630.0 0.0010851
8650.0 0.00060136
8670.0 0.00086787
8690.0 0.0013309
8710.0 0.0011484
8730.0 0.001234
8750.0 0.00097673
8770.0 0.00087193
8790.0 0.00096594
8810.0 0.0010423
8830.0 0.0005889
8850.0 0.00026932
8870.0 0.00019519
8890.0 0.00045529
8910.0 0.00070889
8930.0 0.00092924
8950.0 0.0010445
8970.0 0.001009
8990.0 0.00076837
9010.0 0.00060721
9030.0 0.00046465
9050.0 0.00048445
9070.0 0.00050436
9090.0 0.0005204
9110.0 0.00053956
9130.0 0.00055342
9150.0 0.00056335
9170.0 0.00057392
9190.0 0.00058523
9210.0 0.0005971
9230.0 0.00060966
9250.0 0.00062236
9270.0 0.00063549
9290.0 0.00064895
9310.0 0.00066241
9330.0 0.00067607
9350.0 0.00069019
9370.0 0.00070439
9390.0 0.00071866
9410.0 0.00073329
9430.0 0.00074833
9450.0 0.00076322
9470.0 0.00077838
9490.0 0.00079395
9510.0 0.00080964
9530.0 0.00082535
9550.0 0.00084161
9570.0 0.00085809
9590.0 0.00087458
9610.0 0.00089132
9630.0 0.0009085
9650.0 0.00092578
9670.0 0.00094305
9690.0 0.00096079
9710.0 0.00097878
9730.0 0.00099676
9750.0 0.001015
9770.0 0.0010338
9790.0 0.0010525
9810.0 0.0010713
9830.0 0.0010905
9850.0 0.00111
9870.0 0.0011293
9890.0 0.0011489
9910.0 0.001169
9930.0 0.001189
9950.0 0.001209
9970.0 0.0012295
9990.0 0.0012502
10010.0 0.001126
10030.0 0.0011443
10050.0 0.0011627
10070.0 0.0011809
10090.0 0.0011994
10110.0 0.0012182
10130.0 0.001237
10150.0 0.0012557
10170.0 0.0012745
10190.0 0.0012936
10210.0 0.0013124
10230.0 0.0013312
10250.0 0.0013502
10270.0 0.0013691
10290.0 0.0013879
10310.0 0.0014068
10330.0 0.0014258
10350.0 0.0014446
10370.0 0.0014632
10390.0 0.001482
10410.0 0.0015007
10430.0 0.001519
10450.0 0.0015374
10470.0 0.0015558
10490.0 0.0015739
10510.0 0.0015918
10530.0 0.0016099
10550.0 0.0016276
10570.0 0.001645
10590.0 0.0016623
10610.0 0.0016796
10630.0 0.0016964
10650.0 0.001713
10670.0 0.0017296
10690.0 0.0017459
10710.0 0.0017617
10730.0 0.0017775
10750.0 0.0017932
10770.0 0.0018082
10790.0 0.001823
10810.0 0.0018376
10830.0 0.0018518
10850.0 0.0018652
10870.0 0.0018782
10890.0 0.0018899
10910.0 0.0018995
10930.0 0.0019062
10950.0 0.0019082
10970.0 0.0019042
10990.0 0.0018936
11010.0 0.0019209
11030.0 0.0018919
11050.0 0.0018555
11070.0 0.0018113
11090.0 0.0017578
11110.0 0.0017021
11130.0 0.001644
11150.0 0.0015816
11170.0 0.0015175
11190.0 0.0014557
11210.0 0.0013922
11230.0 0.0013275
11250.0 0.0012661
11270.0 0.0012075
11290.0 0.0011492
11310.0 0.0010942
11330.0 0.0010457
11350.0 0.00099994
11370.0 0.00095753
11390.0 0.00092051
11410.0 0.00088772
11430.0 0.00085683
11450.0 0.0008296
11470.0 0.00080543
11490.0 0.00078244
11510.0 0.00075986
11530.0 0.00073854
11550.0 0.00071722
11570.0 0.0006946
11590.0 0.00067134
11610.0 0.00064787
11630.0 0.00062271
11650.0 0.00059616
11670.0 0.00057018
11690.0 0.00054407
11710.0 0.00051738
11730.0 0.00049159
11750.0 0.0004677
11770.0 0.0004443
11790.0 0.00042228
11810.0 0.00040269
11830.0 0.00038497
11850.0 0.00036845
11870.0 0.00035428
11890.0 0.00034215
11910.0 0.0003312
11930.0 0.00032147
11950.0 0.00031303
11970.0 0.00030526
11990.0 0.00029778
12010.0 0.00029073
12030.0 0.00028391
12050.0 0.00027693
12070.0 0.00026976
12090.0 0.00026283
12110.0 0.00025581
12130.0 0.00024873
12150.0 0.00024201
12170.0 0.00023583
12190.0 0.00023003
12210.0 0.00022513
12230.0 0.00022137
12250.0 0.00021876
12270.0 0.00021752
12290.0 0.00021773
12310.0 0.00021928
12330.0 0.00022246
12350.0 0.0002271
12370.0 0.0002328
12390.0 0.00023975
12410.0 0.00024824
12430.0 0.00025698
12450.0 0.00026611
12470.0 0.00027591
12490.0 0.00028576
12510.0 0.0002949
12530.0 0.00030396
12550.0 0.00031262
12570.0 0.00032008
12590.0 0.00032644
12610.0 0.00033196
12630.0 0.00033609
12650.0 0.00033852
12670.0 0.00033969
12690.0 0.00033943
12710.0 0.00033768
12730.0 0.0003346
12750.0 0.00033012
12770.0 0.00032443
12790.0 0.00031782
12810.0 0.00031019
12830.0 0.0003016
12850.0 0.00029271
12870.0 0.00028342
12890.0 0.00027353
12910.0 0.00026355
12930.0 0.00025375
12950.0 0.00024363
12970.0 0.0002334
12990.0 0.0002237
13010.0 0.00021415
13030.0 0.00020452
13050.0 0.00019524
13070.0 0.0001865
13090.0 0.00017773
13110.0 0.00016919
13130.0 0.00016124
13150.0 0.00015365
13170.0 0.00014616
13190.0 0.00013938
13210.0 0.0001333
13230.0 0.00012764
13250.0 0.00012261
13270.0 0.00011845
13290.0 0.00011498
13310.0 0.00011225
13330.0 0.00011046
13350.0 0.00010954
13370.0 0.00010952
13390.0 0.00011046
13410.0 0.00011215
13430.0 0.00011466
13450.0 0.00011802
13470.0 0.00012192
13490.0 0.00012618
13510.0 0.00013116
13530.0 0.00013634
13550.0 0.00014139
13570.0 0.00014648
13590.0 0.00015155
13610.0 0.00015615
13630.0 0.00016023
13650.0 0.00016405
13670.0 0.00016729
13690.0 0.00016986
13710.0 0.00017191
13730.0 0.00017345
13750.0 0.0001743
13770.0 0.00017461
13790.0 0.00017443
13810.0 0.00017375
13830.0 0.00017265
13850.0 0.00017112
13870.0 0.00016917
13890.0 0.00016692
13910.0 0.00016439
13930.0 0.00016147
13950.0 0.0001583
13970.0 0.00015508
13990.0 0.0001516
14010.0 0.00014794
14030.0 0.0001443
14050.0 0.00014066
14070.0 0.00013685
14090.0 0.00013321
14110.0 0.00012979
14130.0 0.00012649
14150.0 0.00012337
14170.0 0.0001207
14190.0 0.00011837
14210.0 0.00011636
14230.0 0.00011483
14250.0 0.00011379
14270.0 0.0001132
14290.0 0.00011313
14310.0 0.00011356
14330.0 0.00011445
14350.0 0.00011585
14370.0 0.00011766
14390.0 0.00011977
14410.0 0.00012232
14430.0 0.00012517
14450.0 0.00012816
14470.0 0.00013133
14490.0 0.00013477
14510.0 0.00013816
14530.0 0.00014145
14550.0 0.00014483
14570.0 0.00014817
14590.0 0.00015131
14610.0 0.00015442
14630.0 0.00015759
14650.0 0.00016061
14670.0 0.00016359
14690.0 0.00016673
14710.0 0.00017004
14730.0 0.00017334
14750.0 0.00017696
14770.0 0.000181
14790.0 0.00018532
14810.0 0.00018993
14830.0 0.00019529
14850.0 0.00020104
14870.0 0.00020698
14890.0 0.00021332
14910.0 0.00022
14930.0 0.0002264
14950.0 0.00023237
14970.0 0.00023804
14990.0 0.00024283
15010.0 0.00024658
15030.0 0.00024945
15050.0 0.00025147
15070.0 0.00025265
15090.0 0.00025331
15110.0 0.0002536
15130.0 0.00025367
15150.0 0.00025364
15170.0 0.00025354
15190.0 0.0002534
15210.0 0.00025327
15230.0 0.00025315
15250.0 0.000253
15270.0 0.00025287
15290.0 0.00025278
15310.0 0.00025266
15330.0 0.00025255
15350.0 0.00025246
15370.0 0.00025237
15390.0 0.00025226
15410.0 0.00025217
15430.0 0.00025209
15450.0 0.00025201
15470.0 0.00025191
15490.0 0.00025185
15510.0 0.00025178
15530.0 0.0002517
15550.0 0.00025163
15570.0 0.00025157
15590.0 0.0002515
15610.0 0.00025141
15630.0 0.00025136
15650.0 0.0002513
15670.0 0.00025122
15690.0 0.00025115
15710.0 0.00025111
15730.0 0.00025103
15750.0 0.00025095
15770.0 0.0002509
15790.0 0.00025083
15810.0 0.00025074
15830.0 0.00025067
15850.0 0.00025061
15870.0 0.00025052
15890.0 0.00025044
15910.0 0.00025037
15930.0 0.00025029
15950.0 0.00025018
15970.0 0.0002501
15990.0 0.00025001
16010.0 0.0002499
16030.0 0.00024979
16050.0 0.0002497
16070.0 0.00024959
16090.0 0.00024947
16110.0 0.00024935
16130.0 0.00024925
16150.0 0.0002491
16170.0 0.00024895
16190.0 0.00024883
16210.0 0.00024868
16230.0 0.00024851
16250.0 0.00024836
16270.0 0.00024822
16290.0 0.00024804
16310.0 0.00024786
16330.0 0.00024769
16350.0 0.0002475
16370.0 0.00024728
16390.0 0.00024709
16410.0 0.00024689
16430.0 0.00024666
16450.0 0.00024644
16470.0 0.00024623
16490.0 0.00024598
16510.0 0.00024572
16530.0 0.00024548
16550.0 0.00024523
16570.0 0.00024494
16590.0 0.00024466
16610.0 0.00024439
16630.0 0.0002441
16650.0 0.00024379
16670.0 0.00024349
16690.0 0.00024319
16710.0 0.00024284
16730.0 0.0002425
16750.0 0.00024217
16770.0 0.00024182
16790.0 0.00024144
16810.0 0.00024109
16830.0 0.00024072
16850.0 0.00024032
16870.0 0.00023993
16890.0 0.00023955
16910.0 0.00023912
16930.0 0.00023868
16950.0 0.00023827
16970.0 0.00023784
16990.0 0.00023738
17010.0 0.00023693
17030.0 0.00023649
17050.0 0.000236
17070.0 0.00023551
17090.0 0.00023503
17110.0 0.00023454
17130.0 0.00023401
17150.0 0.0002335
17170.0 0.00023299
17190.0 0.00023245
17210.0 0.0002319
17230.0 0.00023137
17250.0 0.00023081
17270.0 0.00023023
17290.0 0.00022966
17310.0 0.00022909
17330.0 0.00022848
17350.0 0.00022787
17370.0 0.00022728
17390.0 0.00022667
17410.0 0.00022603
17430.0 0.00022541
17450.0 0.00022479
17470.0 0.00022411
17490.0 0.00022345
17510.0 0.00022281
17530.0 0.00022214
17550.0 0.00022144
17570.0 0.00022077
17590.0 0.00022009
17610.0 0.00021938
17630.0 0.00021867
17650.0 0.00021797
17670.0 0.00021725
17690.0 0.00021649
17710.0 0.00021577
17730.0 0.00021504
17750.0 0.00021428
17770.0 0.00021353
17790.0 0.00021279
17810.0 0.00021202
17830.0 0.00021123
17850.0 0.00021046
17870.0 0.00020969
17890.0 0.00020888
17910.0 0.00020807
17930.0 0.0002073
17950.0 0.00020649
17970.0 0.00020566
17990.0 0.00020486
18010.0 0.00020405
18030.0 0.0002032
18050.0 0.00020237
18070.0 0.00020155
18090.0 0.0002007
18110.0 0.00019984
18130.0 0.00019901
18150.0 0.00019816
18170.0 0.00019729
18190.0 0.00019643
18210.0 0.00019558
18230.0 0.0001947
18250.0 0.0001938
18270.0 0.00019294
18290.0 0.00019207
18310.0 0.00019117
18330.0 0.00019029
18350.0 0.00018942
18370.0 0.00018851
18390.0 0.00018761
18410.0 0.00018672
18430.0 0.00018583
18450.0 0.00018489
18470.0 0.00018399
18490.0 0.0001831
18510.0 0.00018219
18530.0 0.00018127
18550.0 0.00018037
18570.0 0.00017946
18590.0 0.00017852
18610.0 0.0001776
18630.0 0.00017669
18650.0 0.00017576
18670.0 0.00017482
18690.0 0.00017392
18710.0 0.000173
18730.0 0.00017205
18750.0 0.00017114
18770.0 0.00017022
18790.0 0.00016927
18810.0 0.00016833
18830.0 0.00016742
18850.0 0.00016649
18870.0 0.00016554
18890.0 0.00016462
18910.0 0.0001637
18930.0 0.00016275
18950.0 0.00016182
18970.0 0.00016091
18990.0 0.00015997
19010.0 0.00015901
19030.0 0.0001581
19050.0 0.00015718
19070.0 0.00015623
19090.0 0.0001553
19110.0 0.0001544
19130.0 0.00015346
19150.0 0.00015252
19170.0 0.0001516
19190.0 0.00015069
19210.0 0.00014974
19230.0 0.00014881
19250.0 0.00014792
19270.0 0.00014699
19290.0 0.00014606
19310.0 0.00014516
19330.0 0.00014425
19350.0 0.00014331
19370.0 0.0001424
19390.0 0.0001415
19410.0 0.00014058
19430.0 0.00013966
19450.0 0.00013877
19470.0 0.00013788
19490.0 0.00013696
19510.0 0.00013606
19530.0 0.00013518
19550.0 0.00013427
19570.0 0.00013336
19590.0 0.00013248
19610.0 0.00013159
19630.0 0.00013069
19650.0 0.00012981
19670.0 0.00012895
19690.0 0.00012805
19710.0 0.00012717
19730.0 0.0001263
19750.0 0.00012543
19770.0 0.00012453
19790.0 0.00012367
19810.0 0.00012282
19830.0 0.00012194
19850.0 0.00012107
19870.0 0.00012021
19890.0 0.00011931
19910.0 0.00011836
19930.0 0.00011736
19950.0 0.00011627
19970.0 0.000115
19990.0 0.00011354
20010.0 0.00010641
20030.0 0.00010462
20050.0 0.0001026
20070.0 0.00010045
20090.0 9.817e-05
20110.0 9.5645e-05
20130.0 9.3119e-05
20150.0 9.0639e-05
20170.0 8.8096e-05
20190.0 8.554e-05
20210.0 8.3136e-05
20230.0 8.0803e-05
20250.0 7.8476e-05
20270.0 7.6317e-05
20290.0 7.4339e-05
20310.0 7.2456e-05
20330.0 7.0686e-05
20350.0 6.9195e-05
20370.0 6.7853e-05
20390.0 6.6655e-05
20410.0 6.5658e-05
20430.0 6.4855e-05
20450.0 6.4187e-05
20470.0 6.3693e-05
20490.0 6.3366e-05
20510.0 6.3181e-05
20530.0 6.3134e-05
20550.0 6.3215e-05
20570.0 6.3398e-05
20590.0 6.3694e-05
20610.0 6.4087e-05
20630.0 6.454e-05
20650.0 6.5068e-05
20670.0 6.5694e-05
20690.0 6.6341e-05
20710.0 6.7016e-05
20730.0 6.7752e-05
20750.0 6.8522e-05
20770.0 6.9273e-05
20790.0 7.006e-05
20810.0 7.0886e-05
20830.0 7.1697e-05
20850.0 7.2499e-05
20870.0 7.3352e-05
20890.0 7.4208e-05
20910.0 7.5019e-05
20930.0 7.5852e-05
20950.0 7.6708e-05
20970.0 7.7531e-05
20990.0 7.8335e-05
21010.0 7.9178e-05
21030.0 7.9996e-05
21050.0 8.0768e-05
21070.0 8.1537e-05
21090.0 8.231e-05
21110.0 8.3007e-05
21130.0 8.366e-05
21150.0 8.4298e-05
21170.0 8.4875e-05
21190.0 8.537e-05
21210.0 8.5823e-05
21230.0 8.6207e-05
21250.0 8.6484e-05
21270.0 8.6668e-05
21290.0 8.6754e-05
21310.0 8.6718e-05
21330.0 8.6559e-05
21350.0 8.6269e-05
21370.0 8.5829e-05
21390.0 8.5255e-05
21410.0 8.4541e-05
21430.0 8.3631e-05
21450.0 8.2591e-05
21470.0 8.1443e-05
21490.0 8.0134e-05
21510.0 7.8685e-05
21530.0 7.7193e-05
21550.0 7.5616e-05
21570.0 7.3921e-05
21590.0 7.2233e-05
21610.0 7.0582e-05
21630.0 6.8912e-05
21650.0 6.7258e-05
21670.0 6.5794e-05
21690.0 6.4417e-05
21710.0 6.3145e-05
21730.0 6.2059e-05
21750.0 6.1171e-05
21770.0 6.0431e-05
21790.0 5.9905e-05
21810.0 5.9598e-05
21830.0 5.9488e-05
21850.0 5.9587e-05
21870.0 5.9879e-05
21890.0 6.0331e-05
21910.0 6.0973e-05
21930.0 6.1773e-05
21950.0 6.2673e-05
21970.0 6.3701e-05
21990.0 6.4889e-05
22010.0 6.6099e-05
22030.0 6.7349e-05
22050.0 6.8687e-05
22070.0 7.0054e-05
22090.0 7.1365e-05
22110.0 7.2706e-05
22130.0 7.4066e-05
22150.0 7.5351e-05
22170.0 7.6576e-05
22190.0 7.7807e-05
22210.0 7.8966e-05
22230.0 7.9991e-05
22250.0 8.0966e-05
22270.0 8.1873e-05
22290.0 8.265e-05
22310.0 8.3319e-05
22330.0 8.3915e-05
22350.0 8.4377e-05
22370.0 8.4702e-05
22390.0 8.4909e-05
22410.0 8.4982e-05
22430.0 8.4906e-05
22450.0 8.4692e-05
22470.0 8.4324e-05
22490.0 8.3804e-05
22510.0 8.3153e-05
22530.0 8.2326e-05
22550.0 8.1321e-05
22570.0 8.0204e-05
22590.0 7.8946e-05
22610.0 7.7502e-05
22630.0 7.5937e-05
22650.0 7.4317e-05
22670.0 7.2526e-05
22690.0 7.0612e-05
22710.0 6.8676e-05
22730.0 6.6678e-05
22750.0 6.451e-05
22770.0 6.2385e-05
22790.0 6.0304e-05
22810.0 5.8164e-05
22830.0 5.6026e-05
22850.0 5.4019e-05
22870.0 5.2048e-05
22890.0 5.0085e-05
22910.0 4.8273e-05
22930.0 4.6609e-05
22950.0 4.5021e-05
