#lamb flux
1010.0 8.2428e-05
1030.0 8.3941e-05
1050.0 9.023e-05
1070.0 9.7046e-05
1090.0 0.00010438
1110.0 0.00011098
1130.0 0.00011674
1150.0 0.00012225
1170.0 0.0001274
1190.0 0.00013146
1210.0 0.00013533
1230.0 0.00013931
1250.0 0.00014303
1270.0 0.0001466
1290.0 0.00015088
1310.0 0.0001555
1330.0 0.00016026
1350.0 0.00016574
1370.0 0.00017221
1390.0 0.00017936
1410.0 0.00018727
1430.0 0.00019666
1450.0 0.00020733
1470.0 0.00021914
1490.0 0.00023259
1510.0 0.00024825
1530.0 0.00026534
1550.0 0.00028436
1570.0 0.0003059
1590.0 0.00032984
1610.0 0.00035586
1630.0 0.00038482
1650.0 0.00041688
1670.0 0.00045143
1690.0 0.00048869
1710.0 0.00052934
1730.0 0.00057294
1750.0 0.00061834
1770.0 0.00066661
1790.0 0.00071742
1810.0 0.00076953
1830.0 0.00082268
1850.0 0.00087781
1870.0 0.00093279
1890.0 0.00098677
1910.0 0.0010402
1930.0 0.0010925
1950.0 0.0011415
1970.0 0.0011873
1990.0 0.0012304
2010.0 0.0012692
2030.0 0.0013027
2050.0 0.0013321
2070.0 0.0013573
2090.0 0.001376
2110.0 0.0013896
2130.0 0.0013989
2150.0 0.0014031
2170.0 0.0014019
2190.0 0.0013975
2210.0 0.0013896
2230.0 0.0013776
2250.0 0.0013628
2270.0 0.0013466
2290.0 0.001328
2310.0 0.0013074
2330.0 0.0012865
2350.0 0.0012653
2370.0 0.0012435
2390.0 0.0012223
2410.0 0.0012028
2430.0 0.0011843
2450.0 0.0011674
2470.0 0.0011536
2490.0 0.0011434
2510.0 0.0011364
2530.0 0.0011361
2550.0 0.0011469
2570.0 0.0011727
2590.0 0.0012186
2610.0 0.0012997
2630.0 0.0014194
2650.0 0.0015721
2670.0 0.0017625
2690.0 0.0019884
2710.0 0.0022248
2730.0 0.002461
2750.0 0.0027073
2770.0 0.0029485
2790.0 0.00318
2810.0 0.003418
2830.0 0.0036772
2850.0 0.0039381
2870.0 0.0042139
2890.0 0.0045171
2910.0 0.0048393
2930.0 0.0051694
2950.0 0.0055278
2970.0 0.0059121
2990.0 0.006307
3010.0 0.0067189
3030.0 0.0071609
3050.0 0.0076195
3070.0 0.0080707
3090.0 0.0085279
3110.0 0.0089658
3130.0 0.0093485
3150.0 0.0096579
3170.0 0.0098669
3190.0 0.0099636
3210.0 0.0099721
3230.0 0.0099156
3250.0 0.0098427
3270.0 0.0098215
3290.0 0.0098658
3310.0 0.0099797
3330.0 0.010166
3350.0 0.010397
3370.0 0.010672
3390.0 0.011031
3410.0 0.011343
3430.0 0.011649
3450.0 0.011953
3470.0 0.012316
3490.0 0.013221
3510.0 0.015404
3530.0 0.018502
3550.0 0.021366
3570.0 0.023283
3590.0 0.024241
3610.0 0.024123
3630.0 0.02348
3650.0 0.025273
3670.0 0.029772
3690.0 0.033607
3710.0 0.036011
3730.0 0.038176
3750.0 0.040351
3770.0 0.03982
3790.0 0.037295
3810.0 0.034768
3830.0 0.032503
3850.0 0.032226
3870.0 0.034974
3890.0 0.037981
3910.0 0.039995
3930.0 0.04177
3950.0 0.046116
3970.0 0.049891
3990.0 0.047646
4010.0 0.041711
4030.0 0.036413
4050.0 0.034848
4070.0 0.035207
4090.0 0.034797
4110.0 0.034173
4130.0 0.033665
4150.0 0.033889
4170.0 0.036519
4190.0 0.039992
4210.0 0.039757
4230.0 0.037941
4250.0 0.037269
4270.0 0.037729
4290.0 0.039815
4310.0 0.041861
4330.0 0.039916
4350.0 0.034615
4370.0 0.030276
4390.0 0.027
4410.0 0.024212
4430.0 0.024015
4450.0 0.025936
4470.0 0.027617
4490.0 0.029773
4510.0 0.034107
4530.0 0.043551
4550.0 0.056525
4570.0 0.064471
4590.0 0.068879
4610.0 0.076486
4630.0 0.082428
4650.0 0.077492
4670.0 0.063773
4690.0 0.051872
4710.0 0.046358
4730.0 0.044579
4750.0 0.041385
4770.0 0.038608
4790.0 0.040643
4810.0 0.044516
4830.0 0.045186
4850.0 0.042394
4870.0 0.041681
4890.0 0.044787
4910.0 0.047703
4930.0 0.048292
4950.0 0.046837
4970.0 0.043767
4990.0 0.039347
5010.0 0.035473
5030.0 0.033158
5050.0 0.031995
5070.0 0.031051
5090.0 0.029963
5110.0 0.029563
5130.0 0.029615
5150.0 0.030717
5170.0 0.034016
5190.0 0.038486
5210.0 0.04362
5230.0 0.047233
5250.0 0.049293
5270.0 0.052123
5290.0 0.055645
5310.0 0.057223
5330.0 0.055449
5350.0 0.052452
5370.0 0.052291
5390.0 0.055954
5410.0 0.061164
5430.0 0.064879
5450.0 0.066254
5470.0 0.065555
5490.0 0.0635
5510.0 0.061872
5530.0 0.061288
5550.0 0.061328
5570.0 0.061087
5590.0 0.059802
5610.0 0.05751
5630.0 0.053803
5650.0 0.049338
5670.0 0.046389
5690.0 0.045276
5710.0 0.044899
5730.0 0.044659
5750.0 0.04403
5770.0 0.043314
5790.0 0.043426
5810.0 0.043537
5830.0 0.043849
5850.0 0.044178
5870.0 0.043349
5890.0 0.041684
5910.0 0.039356
5930.0 0.035529
5950.0 0.032033
5970.0 0.030832
5990.0 0.031595
6010.0 0.032218
6030.0 0.031166
6050.0 0.030004
6070.0 0.031131
6090.0 0.033756
6110.0 0.035343
6130.0 0.034602
6150.0 0.032741
6170.0 0.03141
6190.0 0.030279
6210.0 0.02854
6230.0 0.026379
6250.0 0.025142
6270.0 0.025409
6290.0 0.026036
6310.0 0.027426
6330.0 0.02989
6350.0 0.032713
6370.0 0.034388
6390.0 0.034983
6410.0 0.035532
6430.0 0.036005
6450.0 0.036569
6470.0 0.037373
6490.0 0.038223
6510.0 0.038917
6530.0 0.039092
6550.0 0.038799
6570.0 0.037669
6590.0 0.035741
6610.0 0.03431
6630.0 0.033523
6650.0 0.032453
6670.0 0.03092
6690.0 0.029571
6710.0 0.0289
6730.0 0.028465
6750.0 0.027977
6770.0 0.02756
6790.0 0.027165
6810.0 0.026513
6830.0 0.026062
6850.0 0.026624
6870.0 0.02708
6890.0 0.026753
6910.0 0.026233
6930.0 0.025786
6950.0 0.025194
6970.0 0.02423
6990.0 0.023308
7010.0 0.022853
7030.0 0.022554
7050.0 0.021743
7070.0 0.020556
7090.0 0.020159
7110.0 0.020843
7130.0 0.022205
7150.0 0.02357
7170.0 0.024494
7190.0 0.024451
7210.0 0.023455
7230.0 0.022794
7250.0 0.022926
7270.0 0.022873
7290.0 0.02268
7310.0 0.022943
7330.0 0.023724
7350.0 0.024762
7370.0 0.025407
7390.0 0.025482
7410.0 0.025135
7430.0 0.024377
7450.0 0.023402
7470.0 0.022451
7490.0 0.021676
7510.0 0.021046
7530.0 0.020769
7550.0 0.020876
7570.0 0.021048
7590.0 0.021281
7610.0 0.02125
7630.0 0.021151
7650.0 0.021519
7670.0 0.0222
7690.0 0.022926
7710.0 0.023632
7730.0 0.024244
7750.0 0.024951
7770.0 0.025577
7790.0 0.026045
7810.0 0.026204
7830.0 0.025966
7850.0 0.025249
7870.0 0.024097
7890.0 0.022918
7910.0 0.022271
7930.0 0.021876
7950.0 0.021403
7970.0 0.021042
7990.0 0.021032
8010.0 0.019964
8030.0 0.019772
8050.0 0.019534
8070.0 0.019214
8090.0 0.018897
8110.0 0.018858
8130.0 0.018926
8150.0 0.018828
8170.0 0.018659
8190.0 0.018135
8210.0 0.017074
8230.0 0.015988
8250.0 0.015394
8270.0 0.014854
8290.0 0.01415
8310.0 0.013651
8330.0 0.013405
8350.0 0.013037
8370.0 0.012994
8390.0 0.013567
8410.0 0.014409
8430.0 0.01542
8450.0 0.016541
8470.0 0.017293
8490.0 0.018005
8510.0 0.018591
8530.0 0.019162
8550.0 0.01967
8570.0 0.020026
8590.0 0.020326
8610.0 0.020827
8630.0 0.021006
8650.0 0.020597
8670.0 0.020612
8690.0 0.021055
8710.0 0.021558
8730.0 0.021597
8750.0 0.021126
8770.0 0.020973
8790.0 0.020892
8810.0 0.020476
8830.0 0.019066
8850.0 0.017327
8870.0 0.01608
8890.0 0.015503
8910.0 0.014745
8930.0 0.013706
8950.0 0.012963
8970.0 0.012796
8990.0 0.012931
9010.0 0.012931
9030.0 0.012825
9050.0 0.012732
9070.0 0.012659
9090.0 0.01259
9110.0 0.012522
9130.0 0.012453
9150.0 0.012386
9170.0 0.012318
9190.0 0.012252
9210.0 0.012186
9230.0 0.01212
9250.0 0.012054
9270.0 0.011989
9290.0 0.011925
9310.0 0.011861
9330.0 0.011797
9350.0 0.011734
9370.0 0.011671
9390.0 0.011609
9410.0 0.011547
9430.0 0.011484
9450.0 0.011415
9470.0 0.011349
9490.0 0.011296
9510.0 0.01124
9530.0 0.011184
9550.0 0.011126
9570.0 0.011068
9590.0 0.011011
9610.0 0.010953
9630.0 0.010896
9650.0 0.010839
9670.0 0.010783
9690.0 0.010727
9710.0 0.01067
9730.0 0.010615
9750.0 0.01056
9770.0 0.010504
9790.0 0.010449
9810.0 0.010395
9830.0 0.01034
9850.0 0.010282
9870.0 0.01023
9890.0 0.010177
9910.0 0.010124
9930.0 0.010071
9950.0 0.010016
9970.0 0.0099632
9990.0 0.0099092
10010.0 0.0098515
10030.0 0.0097966
10050.0 0.0097463
10070.0 0.0096957
10090.0 0.009645
10110.0 0.0095888
10130.0 0.0095139
10150.0 0.0094649
10170.0 0.0094201
10190.0 0.0093701
10210.0 0.0093208
10230.0 0.009271
10250.0 0.0092172
10270.0 0.0091632
10290.0 0.0091113
10310.0 0.0090566
10330.0 0.0089994
10350.0 0.0089453
10370.0 0.0088913
10390.0 0.0088343
10410.0 0.0087776
10430.0 0.0087239
10450.0 0.0086671
10470.0 0.0086088
10490.0 0.0085525
10510.0 0.0084963
10530.0 0.0084355
10550.0 0.0083763
10570.0 0.0083193
10590.0 0.0082597
10610.0 0.0081983
10630.0 0.0081396
10650.0 0.0080801
10670.0 0.0080167
10690.0 0.0079546
10710.0 0.0078939
10730.0 0.0078303
10750.0 0.007764
10770.0 0.007702
10790.0 0.0076385
10810.0 0.007572
10830.0 0.0075064
10850.0 0.0074429
10870.0 0.0073742
10890.0 0.0073053
10910.0 0.0072392
10930.0 0.0071721
10950.0 0.0071024
10970.0 0.0070349
10990.0 0.0069707
11010.0 0.0066437
11030.0 0.0065734
11050.0 0.0065079
11070.0 0.0064439
11090.0 0.0063789
11110.0 0.00632
11130.0 0.0062648
11150.0 0.0062106
11170.0 0.0061598
11190.0 0.0061148
11210.0 0.0060722
11230.0 0.0060324
11250.0 0.0059977
11270.0 0.0059672
11290.0 0.0059389
11310.0 0.0059141
11330.0 0.0058934
11350.0 0.0058745
11370.0 0.0058571
11390.0 0.0058416
11410.0 0.005827
11430.0 0.0058117
11450.0 0.0057963
11470.0 0.0057804
11490.0 0.0057628
11510.0 0.0057426
11530.0 0.0057209
11550.0 0.0056969
11570.0 0.0056691
11590.0 0.0056383
11610.0 0.0056053
11630.0 0.0055675
11650.0 0.0055247
11670.0 0.0054797
11690.0 0.0054308
11710.0 0.0053759
11730.0 0.005317
11750.0 0.0052562
11770.0 0.0051887
11790.0 0.005116
11810.0 0.0050415
11830.0 0.0049636
11850.0 0.0048781
11870.0 0.0047923
11890.0 0.0047072
11910.0 0.0046184
11930.0 0.004528
11950.0 0.0044414
11970.0 0.0043552
11990.0 0.0042674
12010.0 0.0041842
12030.0 0.0041057
12050.0 0.0040281
12070.0 0.0039527
12090.0 0.0038853
12110.0 0.0038207
12130.0 0.0037584
12150.0 0.0037017
12170.0 0.0036507
12190.0 0.0036014
12210.0 0.0035574
12230.0 0.0035197
12250.0 0.0034865
12270.0 0.0034576
12290.0 0.0034346
12310.0 0.0034167
12330.0 0.0034028
12350.0 0.0033934
12370.0 0.0033879
12390.0 0.0033857
12410.0 0.0033867
12430.0 0.0033898
12450.0 0.0033946
12470.0 0.003401
12490.0 0.0034084
12510.0 0.0034157
12530.0 0.0034235
12550.0 0.0034314
12570.0 0.0034382
12590.0 0.003444
12610.0 0.0034487
12630.0 0.0034514
12650.0 0.0034513
12670.0 0.0034488
12690.0 0.003443
12710.0 0.0034339
12730.0 0.0034212
12750.0 0.0034042
12770.0 0.0033836
12790.0 0.0033598
12810.0 0.0033323
12830.0 0.0033011
12850.0 0.0032686
12870.0 0.0032345
12890.0 0.0031979
12910.0 0.0031611
12930.0 0.0031251
12950.0 0.0030881
12970.0 0.0030513
12990.0 0.0030169
13010.0 0.0029836
13030.0 0.0029507
13050.0 0.0029197
13070.0 0.002891
13090.0 0.0028626
13110.0 0.0028354
13130.0 0.0028102
13150.0 0.0027862
13170.0 0.0027624
13190.0 0.0027404
13210.0 0.0027201
13230.0 0.0027003
13250.0 0.0026815
13270.0 0.0026643
13290.0 0.0026477
13310.0 0.0026314
13330.0 0.0026161
13350.0 0.0026014
13370.0 0.0025865
13390.0 0.0025713
13410.0 0.0025565
13430.0 0.0025411
13450.0 0.0025246
13470.0 0.0025075
13490.0 0.0024898
13510.0 0.00247
13530.0 0.0024493
13550.0 0.002428
13570.0 0.0024054
13590.0 0.0023811
13610.0 0.0023566
13630.0 0.0023319
13650.0 0.0023057
13670.0 0.0022792
13690.0 0.0022532
13710.0 0.0022268
13730.0 0.0021992
13750.0 0.0021732
13770.0 0.0021476
13790.0 0.0021214
13810.0 0.0020958
13830.0 0.0020715
13850.0 0.002047
13870.0 0.0020227
13890.0 0.0019998
13910.0 0.0019778
13930.0 0.001956
13950.0 0.0019353
13970.0 0.0019166
13990.0 0.0018985
14010.0 0.0018812
14030.0 0.0018656
14050.0 0.0018512
14070.0 0.0018371
14090.0 0.0018243
14110.0 0.0018127
14130.0 0.0018015
14150.0 0.0017908
14170.0 0.001781
14190.0 0.0017716
14210.0 0.0017623
14230.0 0.0017533
14250.0 0.0017449
14270.0 0.0017362
14290.0 0.0017274
14310.0 0.0017191
14330.0 0.0017108
14350.0 0.0017023
14370.0 0.001694
14390.0 0.0016859
14410.0 0.0016776
14430.0 0.0016693
14450.0 0.0016615
14470.0 0.0016537
14490.0 0.0016457
14510.0 0.0016382
14530.0 0.0016309
14550.0 0.0016235
14570.0 0.0016159
14590.0 0.0016085
14610.0 0.0016008
14630.0 0.0015924
14650.0 0.0015841
14670.0 0.0015757
14690.0 0.001567
14710.0 0.0015583
14730.0 0.0015507
14750.0 0.0015439
14770.0 0.0015383
14790.0 0.001535
14810.0 0.001534
14830.0 0.0015361
14850.0 0.0015417
14870.0 0.0015506
14890.0 0.0015631
14910.0 0.0015791
14930.0 0.0015969
14950.0 0.0016156
14970.0 0.001635
14990.0 0.0016529
15010.0 0.0016681
15030.0 0.0016808
15050.0 0.0016908
15070.0 0.0016978
15090.0 0.0017029
15110.0 0.0017066
15130.0 0.0017095
15150.0 0.0017119
15170.0 0.0017141
15190.0 0.0017162
15210.0 0.0017184
15230.0 0.0017206
15250.0 0.0017228
15270.0 0.001725
15290.0 0.0017274
15310.0 0.0017298
15330.0 0.0017322
15350.0 0.0017347
15370.0 0.0017372
15390.0 0.0017398
15410.0 0.0017425
15430.0 0.0017452
15450.0 0.0017479
15470.0 0.0017507
15490.0 0.0017535
15510.0 0.0017564
15530.0 0.0017594
15550.0 0.0017624
15570.0 0.0017654
15590.0 0.0017685
15610.0 0.0017716
15630.0 0.0017747
15650.0 0.001778
15670.0 0.0017812
15690.0 0.0017845
15710.0 0.0017878
15730.0 0.0017912
15750.0 0.0017946
15770.0 0.001798
15790.0 0.0018015
15810.0 0.001805
15830.0 0.0018085
15850.0 0.0018121
15870.0 0.0018157
15890.0 0.0018194
15910.0 0.0018231
15930.0 0.0018268
15950.0 0.0018305
15970.0 0.0018343
15990.0 0.0018381
16010.0 0.0018419
16030.0 0.0018457
16050.0 0.0018496
16070.0 0.0018535
16090.0 0.0018574
16110.0 0.0018613
16130.0 0.0018653
16150.0 0.0018692
16170.0 0.0018732
16190.0 0.0018772
16210.0 0.0018812
16230.0 0.0018852
16250.0 0.0018893
16270.0 0.0018933
16290.0 0.0018974
16310.0 0.0019014
16330.0 0.0019055
16350.0 0.0019096
16370.0 0.0019137
16390.0 0.0019178
16410.0 0.0019219
16430.0 0.0019259
16450.0 0.00193
16470.0 0.0019341
16490.0 0.0019382
16510.0 0.0019423
16530.0 0.0019463
16550.0 0.0019504
16570.0 0.0019544
16590.0 0.0019585
16610.0 0.0019625
16630.0 0.0019665
16650.0 0.0019705
16670.0 0.0019745
16690.0 0.0019785
16710.0 0.0019824
16730.0 0.0019864
16750.0 0.0019903
16770.0 0.0019942
16790.0 0.001998
16810.0 0.0020019
16830.0 0.0020057
16850.0 0.0020094
16870.0 0.0020132
16890.0 0.0020169
16910.0 0.0020206
16930.0 0.0020242
16950.0 0.0020278
16970.0 0.0020314
16990.0 0.0020349
17010.0 0.0020384
17030.0 0.0020419
17050.0 0.0020452
17070.0 0.0020486
17090.0 0.0020519
17110.0 0.0020552
17130.0 0.0020584
17150.0 0.0020615
17170.0 0.0020646
17190.0 0.0020677
17210.0 0.0020707
17230.0 0.0020736
17250.0 0.0020765
17270.0 0.0020793
17290.0 0.0020821
17310.0 0.0020848
17330.0 0.0020874
17350.0 0.0020899
17370.0 0.0020925
17390.0 0.0020949
17410.0 0.0020972
17430.0 0.0020995
17450.0 0.0021018
17470.0 0.0021039
17490.0 0.0021059
17510.0 0.0021079
17530.0 0.0021098
17550.0 0.0021117
17570.0 0.0021134
17590.0 0.0021151
17610.0 0.0021167
17630.0 0.0021182
17650.0 0.0021196
17670.0 0.002121
17690.0 0.0021222
17710.0 0.0021233
17730.0 0.0021244
17750.0 0.0021254
17770.0 0.0021263
17790.0 0.0021271
17810.0 0.0021278
17830.0 0.0021284
17850.0 0.0021289
17870.0 0.0021293
17890.0 0.0021296
17910.0 0.0021299
17930.0 0.00213
17950.0 0.00213
17970.0 0.0021299
17990.0 0.0021298
18010.0 0.0021295
18030.0 0.0021291
18050.0 0.0021286
18070.0 0.0021281
18090.0 0.0021274
18110.0 0.0021265
18130.0 0.0021257
18150.0 0.0021247
18170.0 0.0021235
18190.0 0.0021223
18210.0 0.002121
18230.0 0.0021196
18250.0 0.002118
18270.0 0.0021164
18290.0 0.0021146
18310.0 0.0021127
18330.0 0.0021108
18350.0 0.0021087
18370.0 0.0021065
18390.0 0.0021042
18410.0 0.0021018
18430.0 0.0020993
18450.0 0.0020966
18470.0 0.0020939
18490.0 0.0020911
18510.0 0.0020881
18530.0 0.002085
18550.0 0.0020819
18570.0 0.0020786
18590.0 0.0020752
18610.0 0.0020717
18630.0 0.0020681
18650.0 0.0020643
18670.0 0.0020605
18690.0 0.0020566
18710.0 0.0020526
18730.0 0.0020484
18750.0 0.0020442
18770.0 0.0020398
18790.0 0.0020353
18810.0 0.0020308
18830.0 0.0020261
18850.0 0.0020213
18870.0 0.0020165
18890.0 0.0020115
18910.0 0.0020064
18930.0 0.0020013
18950.0 0.001996
18970.0 0.0019906
18990.0 0.0019851
19010.0 0.0019796
19030.0 0.0019739
19050.0 0.0019682
19070.0 0.0019623
19090.0 0.0019564
19110.0 0.0019503
19130.0 0.0019442
19150.0 0.001938
19170.0 0.0019317
19190.0 0.0019253
19210.0 0.0019188
19230.0 0.0019122
19250.0 0.0019056
19270.0 0.0018988
19290.0 0.001892
19310.0 0.0018851
19330.0 0.0018782
19350.0 0.0018711
19370.0 0.001864
19390.0 0.0018568
19410.0 0.0018495
19430.0 0.0018421
19450.0 0.0018347
19470.0 0.0018272
19490.0 0.0018196
19510.0 0.001812
19530.0 0.0018043
19550.0 0.0017965
19570.0 0.0017886
19590.0 0.0017808
19610.0 0.0017728
19630.0 0.0017648
19650.0 0.0017567
19670.0 0.0017486
19690.0 0.0017404
19710.0 0.0017321
19730.0 0.0017238
19750.0 0.0017155
19770.0 0.0017071
19790.0 0.0016986
19810.0 0.0016901
19830.0 0.0016815
19850.0 0.0016729
19870.0 0.001664
19890.0 0.0016549
19910.0 0.0016452
19930.0 0.0016347
19950.0 0.0016231
19970.0 0.0016096
19990.0 0.001594
20010.0 0.0015766
20030.0 0.0015566
20050.0 0.0015341
20070.0 0.0015103
20090.0 0.0014853
20110.0 0.0014584
20130.0 0.0014316
20150.0 0.0014054
20170.0 0.0013788
20190.0 0.0013522
20210.0 0.0013268
20230.0 0.0013019
20250.0 0.0012769
20270.0 0.001253
20290.0 0.0012302
20310.0 0.0012078
20330.0 0.0011857
20350.0 0.0011656
20370.0 0.0011462
20390.0 0.0011274
20410.0 0.0011098
20430.0 0.0010936
20450.0 0.0010778
20470.0 0.0010632
20490.0 0.0010498
20510.0 0.0010373
20530.0 0.0010256
20550.0 0.0010149
20570.0 0.0010052
20590.0 0.00099605
20610.0 0.00098767
20630.0 0.00097996
20650.0 0.00097278
20670.0 0.00096606
20690.0 0.00095974
20710.0 0.00095369
20730.0 0.00094786
20750.0 0.00094216
20770.0 0.00093645
20790.0 0.00093072
20810.0 0.00092488
20830.0 0.00091883
20850.0 0.00091255
20870.0 0.00090596
20890.0 0.00089901
20910.0 0.00089172
20930.0 0.00088403
20950.0 0.00087589
20970.0 0.00086741
20990.0 0.00085858
21010.0 0.00084923
21030.0 0.00083954
21050.0 0.00082964
21070.0 0.00081938
21090.0 0.00080869
21110.0 0.00079799
21130.0 0.00078718
21150.0 0.00077605
21170.0 0.00076486
21190.0 0.00075383
21210.0 0.00074257
21230.0 0.0007312
21250.0 0.00072013
21270.0 0.00070916
21290.0 0.00069812
21310.0 0.00068727
21330.0 0.00067684
21350.0 0.00066641
21370.0 0.00065613
21390.0 0.00064626
21410.0 0.00063668
21430.0 0.00062712
21450.0 0.00061803
21470.0 0.00060937
21490.0 0.00060092
21510.0 0.00059276
21530.0 0.00058508
21550.0 0.00057769
21570.0 0.00057053
21590.0 0.00056374
21610.0 0.0005573
21630.0 0.00055108
21650.0 0.00054507
21670.0 0.00053939
21690.0 0.00053388
21710.0 0.00052851
21730.0 0.0005233
21750.0 0.00051823
21770.0 0.00051321
21790.0 0.00050825
21810.0 0.00050336
21830.0 0.00049849
21850.0 0.00049361
21870.0 0.00048873
21890.0 0.00048386
21910.0 0.00047893
21930.0 0.00047396
21950.0 0.00046899
21970.0 0.00046396
21990.0 0.00045882
22010.0 0.00045368
22030.0 0.00044851
22050.0 0.00044324
22070.0 0.00043789
22090.0 0.00043256
22110.0 0.00042713
22130.0 0.00042159
22150.0 0.00041604
22170.0 0.00041045
22190.0 0.0004047
22210.0 0.00039889
22230.0 0.00039314
22250.0 0.00038728
22270.0 0.00038131
22290.0 0.00037539
22310.0 0.00036946
22330.0 0.00036336
22350.0 0.00035728
22370.0 0.00035127
22390.0 0.00034519
22410.0 0.00033902
22430.0 0.000333
22450.0 0.00032703
22470.0 0.00032097
22490.0 0.00031499
22510.0 0.00030917
22530.0 0.00030329
22550.0 0.00029742
22570.0 0.00029178
22590.0 0.00028624
22610.0 0.00028071
22630.0 0.00027535
22650.0 0.00027025
22670.0 0.00026519
22690.0 0.00026027
22710.0 0.00025561
22730.0 0.00025113
22750.0 0.00024671
22770.0 0.00024257
22790.0 0.00023866
22810.0 0.00023489
22830.0 0.00023129
22850.0 0.00022793
22870.0 0.00022472
22890.0 0.00022164
22910.0 0.00021874
22930.0 0.00021602
22950.0 0.0002134
22970.0 0.0002109
22990.0 0.00020856
23010.0 0.0002063
23030.0 0.00020413
23050.0 0.00020204
23070.0 0.00020003
23090.0 0.00019805
23110.0 0.00019612
23130.0 0.00019421
23150.0 0.00019232
23170.0 0.00019042
23190.0 0.00018852
23210.0 0.0001866
23230.0 0.00018463
23250.0 0.00018261
23270.0 0.00018055
23290.0 0.00017842
23310.0 0.00017617
23330.0 0.00017389
23350.0 0.00017153
23370.0 0.00016907
23390.0 0.00016654
23410.0 0.00016399
23430.0 0.00016136
23450.0 0.00015867
23470.0 0.00015601
23490.0 0.00015337
23510.0 0.0001507
23530.0 0.00014809
23550.0 0.00014563
23570.0 0.00014323
23590.0 0.00014093
23610.0 0.0001388
23630.0 0.00013683
23650.0 0.00013499
23670.0 0.00013337
23690.0 0.00013195
23710.0 0.00013073
23730.0 0.00012975
23750.0 0.00012899
23770.0 0.00012846
23790.0 0.00012819
23810.0 0.00012816
23830.0 0.00012833
23850.0 0.00012878
23870.0 0.0001295
23890.0 0.00013034
23910.0 0.00013137
23930.0 0.00013262
23950.0 0.00013397
