#lamb flux
1010.0 1.134e-06
1030.0 1.1817e-06
1050.0 1.2371e-06
1070.0 1.2995e-06
1090.0 1.3705e-06
1110.0 1.4436e-06
1130.0 1.5176e-06
1150.0 1.5954e-06
1170.0 1.676e-06
1190.0 1.753e-06
1210.0 1.8316e-06
1230.0 1.9132e-06
1250.0 1.9939e-06
1270.0 2.073e-06
1290.0 2.157e-06
1310.0 2.2416e-06
1330.0 2.3238e-06
1350.0 2.4076e-06
1370.0 2.4947e-06
1390.0 2.5807e-06
1410.0 2.6652e-06
1430.0 2.7541e-06
1450.0 2.844e-06
1470.0 2.932e-06
1490.0 3.0218e-06
1510.0 3.1169e-06
1530.0 3.2084e-06
1550.0 3.2995e-06
1570.0 3.3941e-06
1590.0 3.4893e-06
1610.0 3.5812e-06
1630.0 3.6759e-06
1650.0 3.773e-06
1670.0 3.8673e-06
1690.0 3.9603e-06
1710.0 4.0562e-06
1730.0 4.1521e-06
1750.0 4.242e-06
1770.0 4.3334e-06
1790.0 4.4253e-06
1810.0 4.5132e-06
1830.0 4.5981e-06
1850.0 4.6864e-06
1870.0 4.7706e-06
1890.0 4.85e-06
1910.0 4.929e-06
1930.0 5.008e-06
1950.0 5.0809e-06
1970.0 5.1507e-06
1990.0 5.2217e-06
2010.0 5.2893e-06
2030.0 5.3522e-06
2050.0 5.4161e-06
2070.0 5.4807e-06
2090.0 5.5397e-06
2110.0 5.598e-06
2130.0 5.6584e-06
2150.0 5.7177e-06
2170.0 5.7744e-06
2190.0 5.8353e-06
2210.0 5.8985e-06
2230.0 5.9612e-06
2250.0 6.0266e-06
2270.0 6.0991e-06
2290.0 6.1734e-06
2310.0 6.2496e-06
2330.0 6.3338e-06
2350.0 6.4248e-06
2370.0 6.5195e-06
2390.0 6.6226e-06
2410.0 6.7375e-06
2430.0 6.8585e-06
2450.0 6.9862e-06
2470.0 7.1237e-06
2490.0 7.2686e-06
2510.0 7.4165e-06
2530.0 7.5796e-06
2550.0 7.7784e-06
2570.0 8.0426e-06
2590.0 8.4147e-06
2610.0 8.9893e-06
2630.0 9.8235e-06
2650.0 1.0916e-05
2670.0 1.2308e-05
2690.0 1.3998e-05
2710.0 1.5826e-05
2730.0 1.7699e-05
2750.0 1.9651e-05
2770.0 2.1552e-05
2790.0 2.3348e-05
2810.0 2.5124e-05
2830.0 2.6954e-05
2850.0 2.8744e-05
2870.0 3.0583e-05
2890.0 3.2542e-05
2910.0 3.4588e-05
2930.0 3.6668e-05
2950.0 3.8883e-05
2970.0 4.122e-05
2990.0 4.3594e-05
3010.0 7.8345e-05
3030.0 8.2691e-05
3050.0 8.7063e-05
3070.0 9.1155e-05
3090.0 9.4862e-05
3110.0 9.7501e-05
3130.0 9.8211e-05
3150.0 9.6055e-05
3170.0 8.9157e-05
3190.0 7.7136e-05
3210.0 6.0062e-05
3230.0 4.0523e-05
3250.0 5.8849e-05
3270.0 2.9737e-05
3290.0 7.4637e-05
3310.0 2.0785e-05
3330.0 2.1886e-05
3350.0 3.0072e-05
3370.0 3.9237e-05
3390.0 4.8879e-05
3410.0 5.8475e-05
3430.0 6.8456e-05
3450.0 7.8389e-05
3470.0 8.7539e-05
3490.0 9.3608e-05
3510.0 0.0001133
3530.0 0.00015105
3550.0 0.00015578
3570.0 0.00014156
3590.0 0.00019618
3610.0 0.00014125
3630.0 0.00020414
3650.0 0.00022397
3670.0 0.00027894
3690.0 0.00027432
3710.0 0.00021591
3730.0 0.00027839
3750.0 0.00028993
3770.0 0.00029637
3790.0 0.00026973
3810.0 0.0002336
3830.0 0.00029054
3850.0 0.00029568
3870.0 0.00036031
3890.0 0.00034855
3910.0 0.00033361
3930.0 0.00037034
3950.0 0.00041606
3970.0 0.00053923
3990.0 0.00046712
4010.0 0.00034594
4030.0 0.00042309
4050.0 0.0004359
4070.0 0.00048183
4090.0 0.00044123
4110.0 0.00032756
4130.0 0.00040374
4150.0 0.00037115
4170.0 0.00039335
4190.0 0.00039354
4210.0 0.00046817
4230.0 0.00034956
4250.0 0.00041144
4270.0 0.00041115
4290.0 0.00041752
4310.0 0.00049179
4330.0 0.00050578
4350.0 0.00041468
4370.0 0.00037277
4390.0 0.00042411
4410.0 0.00041799
4430.0 0.0003302
4450.0 0.00032901
4470.0 0.00036986
4490.0 0.00029351
4510.0 0.00034621
4530.0 0.00037685
4550.0 0.00049591
4570.0 0.00071083
4590.0 0.00072301
4610.0 0.00054625
4630.0 0.00078823
4650.0 0.0010657
4670.0 0.0010011
4690.0 0.00065623
4710.0 0.0006794
4730.0 0.00081158
4750.0 0.00071878
4770.0 0.00055605
4790.0 0.00040953
4810.0 0.00055612
4830.0 0.00063487
4850.0 0.00059799
4870.0 0.00030025
4890.0 0.00064234
4910.0 0.00084017
4930.0 0.00090212
4950.0 0.00091916
4970.0 0.00066569
4990.0 0.00074266
5010.0 0.00080754
5030.0 0.0008239
5050.0 0.00078466
5070.0 0.0005794
5090.0 0.00048556
5110.0 0.00045763
5130.0 0.0004152
5150.0 0.0004693
5170.0 0.00041852
5190.0 0.00050086
5210.0 0.00050095
5230.0 0.00054417
5250.0 0.00068141
5270.0 0.00061279
5290.0 0.00061373
5310.0 0.00083749
5330.0 0.00095433
5350.0 0.00084295
5370.0 0.00076012
5390.0 0.0008252
5410.0 0.00097877
5430.0 0.0010604
5450.0 0.0011458
5470.0 0.0011903
5490.0 0.0012038
5510.0 0.0013841
5530.0 0.0014285
5550.0 0.0014985
5570.0 0.0015558
5590.0 0.0015341
5610.0 0.0014661
5630.0 0.0014223
5650.0 0.0014392
5670.0 0.0014221
5690.0 0.0012385
5710.0 0.001168
5730.0 0.0011464
5750.0 0.0012125
5770.0 0.0010695
5790.0 0.00099736
5810.0 0.0010168
5830.0 0.0010589
5850.0 0.00097856
5870.0 0.00096892
5890.0 0.0011018
5910.0 0.0010545
5930.0 0.00089838
5950.0 0.00079892
5970.0 0.00082733
5990.0 0.00075474
6010.0 0.00069974
6030.0 0.00070244
6050.0 0.00066433
6070.0 0.00053085
6090.0 0.00048816
6110.0 0.0005939
6130.0 0.00066686
6150.0 0.00070384
6170.0 0.00070525
6190.0 0.0006887
6210.0 0.0006834
6230.0 0.0007607
6250.0 0.00070269
6270.0 0.00063853
6290.0 0.00057831
6310.0 0.00053996
6330.0 0.00051176
6350.0 0.00045744
6370.0 0.00045935
6390.0 0.00053868
6410.0 0.00066111
6430.0 0.00076308
6450.0 0.00074691
6470.0 0.00075179
6490.0 0.00090301
6510.0 0.0010071
6530.0 0.00096371
6550.0 0.00093825
6570.0 0.00095163
6590.0 0.00092438
6610.0 0.00098919
6630.0 0.00094122
6650.0 0.00085409
6670.0 0.00077716
6690.0 0.00074025
6710.0 0.00085787
6730.0 0.00079608
6750.0 0.00071161
6770.0 0.00066284
6790.0 0.00069162
6810.0 0.00074652
6830.0 0.0007283
6850.0 0.00067272
6870.0 0.00068348
6890.0 0.00066551
6910.0 0.00062997
6930.0 0.00070554
6950.0 0.00066757
6970.0 0.00064259
6990.0 0.00064879
7010.0 0.00062394
7030.0 0.00058572
7050.0 0.00055446
7070.0 0.00057226
7090.0 0.00053534
7110.0 0.00047273
7130.0 0.00039632
7150.0 0.0003634
7170.0 0.00045544
7190.0 0.0004909
7210.0 0.00048472
7230.0 0.0005114
7250.0 0.00049152
7270.0 0.00047655
7290.0 0.0005124
7310.0 0.0005508
7330.0 0.00053541
7350.0 0.00050629
7370.0 0.00049144
7390.0 0.00051769
7410.0 0.0005969
7430.0 0.00065375
7450.0 0.00070548
7470.0 0.00070865
7490.0 0.00072359
7510.0 0.00069263
7530.0 0.00068704
7550.0 0.00066357
7570.0 0.00058281
7590.0 0.00057239
7610.0 0.00056125
7630.0 0.00054007
7650.0 0.00059958
7670.0 0.00065826
7690.0 0.00071721
7710.0 0.00079305
7730.0 0.00084658
7750.0 0.00088699
7770.0 0.00088929
7790.0 0.00096036
7810.0 0.00099312
7830.0 0.00093875
7850.0 0.00094636
7870.0 0.00090461
7890.0 0.00093176
7910.0 0.00088437
7930.0 0.00088679
7950.0 0.00080683
7970.0 0.00082715
7990.0 0.00080011
8010.0 0.00079175
8030.0 0.00079117
8050.0 0.00082632
8070.0 0.00080285
8090.0 0.00080588
8110.0 0.00078401
8130.0 0.00078399
8150.0 0.00075516
8170.0 0.00073519
8190.0 0.00072691
8210.0 0.00073345
8230.0 0.00066254
8250.0 0.00061023
8270.0 0.00053486
8290.0 0.0004414
8310.0 0.00036908
8330.0 0.00029281
8350.0 0.00024959
8370.0 0.00026311
8390.0 0.00027803
8410.0 0.00029941
8430.0 0.00035741
8450.0 0.00038132
8470.0 0.00040186
8490.0 0.00045651
8510.0 0.00050019
8530.0 0.00057862
8550.0 0.00068476
8570.0 0.00076959
8590.0 0.00083345
8610.0 0.00090788
8630.0 0.00098787
8650.0 0.0010036
8670.0 0.001013
8690.0 0.0010513
8710.0 0.0010477
8730.0 0.0010468
8750.0 0.001002
8770.0 0.0010039
8790.0 0.00099082
8810.0 0.0009182
8830.0 0.00091276
8850.0 0.0008613
8870.0 0.00082885
8890.0 0.0007686
8910.0 0.00081334
8930.0 0.00075161
8950.0 0.00073591
8970.0 0.00073473
8990.0 0.00071266
9010.0 0.00071924
9030.0 0.00069338
9050.0 0.00068951
9070.0 0.00068834
9090.0 0.00068707
9110.0 0.00068599
9130.0 0.00068452
9150.0 0.00068287
9170.0 0.00067978
9190.0 0.00067442
9210.0 0.00068086
9230.0 0.00067724
9250.0 0.00067452
9270.0 0.00067194
9290.0 0.00066944
9310.0 0.000667
9330.0 0.00066457
9350.0 0.00066208
9370.0 0.00065957
9390.0 0.00065701
9410.0 0.00065439
9430.0 0.00065169
9450.0 0.0006489
9470.0 0.00064608
9490.0 0.00064332
9510.0 0.0006405
9530.0 0.00063764
9550.0 0.00063472
9570.0 0.00063176
9590.0 0.00062878
9610.0 0.00062578
9630.0 0.00062274
9650.0 0.0006197
9670.0 0.00061665
9690.0 0.00061357
9710.0 0.00061049
9730.0 0.00060741
9750.0 0.00060432
9770.0 0.00060122
9790.0 0.00059813
9810.0 0.00059505
9830.0 0.00059197
9850.0 0.0005889
9870.0 0.00058584
9890.0 0.00058279
9910.0 0.00057975
9930.0 0.00057671
9950.0 0.00057159
9970.0 0.00056924
9990.0 0.00056679
10010.0 0.0005643
10030.0 0.00056166
10050.0 0.00055881
10070.0 0.00055555
10090.0 0.000553
10110.0 0.00055031
10130.0 0.00054767
10150.0 0.00054505
10170.0 0.00054238
10190.0 0.00053962
10210.0 0.00053701
10230.0 0.00053447
10250.0 0.00053185
10270.0 0.00052929
10290.0 0.00052686
10310.0 0.00052437
10330.0 0.00052185
10350.0 0.00051948
10370.0 0.00051716
10390.0 0.00051478
10410.0 0.00051246
10430.0 0.00051028
10450.0 0.00050805
10470.0 0.00050582
10490.0 0.00050371
10510.0 0.00050164
10530.0 0.00049947
10550.0 0.00049741
10570.0 0.00049546
10590.0 0.00049348
10610.0 0.00049149
10630.0 0.00048964
10650.0 0.00048781
10670.0 0.00048591
10690.0 0.0004841
10710.0 0.00048238
10730.0 0.00048062
10750.0 0.00047882
10770.0 0.0004772
10790.0 0.00047559
10810.0 0.00047392
10830.0 0.00047232
10850.0 0.0004708
10870.0 0.0004691
10890.0 0.00046732
10910.0 0.00046544
10930.0 0.00046322
10950.0 0.00046035
10970.0 0.00045683
10990.0 0.00045264
11010.0 0.00043739
11030.0 0.00043148
11050.0 0.00042482
11070.0 0.00041728
11090.0 0.00040863
11110.0 0.00040006
11130.0 0.00039146
11150.0 0.00038255
11170.0 0.00037371
11190.0 0.00036548
11210.0 0.00035725
11230.0 0.00034907
11250.0 0.00034148
11270.0 0.00033436
11290.0 0.0003273
11310.0 0.00032066
11330.0 0.00031485
11350.0 0.00030927
11370.0 0.00030397
11390.0 0.00029923
11410.0 0.00029488
11430.0 0.00029052
11450.0 0.00028647
11470.0 0.00028269
11490.0 0.00027886
11510.0 0.00027485
11530.0 0.00027096
11550.0 0.00026696
11570.0 0.00026257
11590.0 0.00025798
11610.0 0.00025334
11630.0 0.00024824
11650.0 0.00024272
11670.0 0.00023729
11690.0 0.0002317
11710.0 0.00022578
11730.0 0.0002199
11750.0 0.00021431
11770.0 0.00020857
11790.0 0.00020289
11810.0 0.00019765
11830.0 0.00019266
11850.0 0.00018764
11870.0 0.00018312
11890.0 0.00017907
11910.0 0.00017516
11930.0 0.00017148
11950.0 0.00016823
11970.0 0.00016517
11990.0 0.00016216
12010.0 0.00015942
12030.0 0.00015692
12050.0 0.00015445
12070.0 0.00015203
12090.0 0.00014993
12110.0 0.0001479
12130.0 0.00014591
12150.0 0.00014412
12170.0 0.00014258
12190.0 0.0001411
12210.0 0.00013989
12230.0 0.00013904
12250.0 0.00013849
12270.0 0.0001383
12290.0 0.00013855
12310.0 0.00013925
12330.0 0.00014042
12350.0 0.00014208
12370.0 0.00014417
12390.0 0.0001467
12410.0 0.00014976
12430.0 0.00015306
12450.0 0.00015658
12470.0 0.00016038
12490.0 0.0001643
12510.0 0.00016811
12530.0 0.00017197
12550.0 0.00017577
12570.0 0.00017931
12590.0 0.00018261
12610.0 0.00018574
12630.0 0.00018856
12650.0 0.00019099
12670.0 0.00019317
12690.0 0.00019506
12710.0 0.00019661
12730.0 0.00019789
12750.0 0.00019888
12770.0 0.00019959
12790.0 0.00020006
12810.0 0.00020028
12830.0 0.00020022
12850.0 0.00019998
12870.0 0.00019955
12890.0 0.00019885
12910.0 0.00019796
12930.0 0.00019695
12950.0 0.00019567
12970.0 0.00019416
12990.0 0.00019257
13010.0 0.00019081
13030.0 0.0001888
13050.0 0.00018666
13070.0 0.0001845
13090.0 0.00018209
13110.0 0.00017956
13130.0 0.00017707
13150.0 0.00017455
13170.0 0.0001719
13190.0 0.00016945
13210.0 0.00016723
13230.0 0.00016512
13250.0 0.00016324
13270.0 0.00016175
13290.0 0.00016056
13310.0 0.00015966
13330.0 0.00015917
13350.0 0.00015901
13370.0 0.00015913
13390.0 0.00015949
13410.0 0.00016
13430.0 0.00016059
13450.0 0.00016117
13470.0 0.00016164
13490.0 0.00016193
13510.0 0.00016196
13530.0 0.00016167
13550.0 0.00016108
13570.0 0.00016014
13590.0 0.00015883
13610.0 0.00015727
13630.0 0.00015553
13650.0 0.0001535
13670.0 0.00015136
13690.0 0.00014922
13710.0 0.00014703
13730.0 0.00014476
13750.0 0.00014269
13770.0 0.00014074
13790.0 0.00013883
13810.0 0.00013705
13830.0 0.00013546
13850.0 0.00013391
13870.0 0.00013243
13890.0 0.00013108
13910.0 0.0001298
13930.0 0.00012853
13950.0 0.00012731
13970.0 0.00012618
13990.0 0.00012506
14010.0 0.00012397
14030.0 0.00012295
14050.0 0.000122
14070.0 0.00012105
14090.0 0.00012021
14110.0 0.00011946
14130.0 0.00011877
14150.0 0.00011816
14170.0 0.00011766
14190.0 0.00011725
14210.0 0.00011692
14230.0 0.00011669
14250.0 0.00011655
14270.0 0.0001165
14290.0 0.00011655
14310.0 0.00011667
14330.0 0.00011686
14350.0 0.00011715
14370.0 0.00011748
14390.0 0.00011784
14410.0 0.00011824
14430.0 0.00011867
14450.0 0.00011905
14470.0 0.00011941
14490.0 0.00011977
14510.0 0.00012004
14530.0 0.00012024
14550.0 0.00012041
14570.0 0.00012054
14590.0 0.00012062
14610.0 0.0001207
14630.0 0.00012081
14650.0 0.00012095
14670.0 0.00012114
14690.0 0.00012146
14710.0 0.00012193
14730.0 0.00012248
14750.0 0.00012323
14770.0 0.00012419
14790.0 0.00012532
14810.0 0.00012658
14830.0 0.00012816
14850.0 0.00012989
14870.0 0.00013168
14890.0 0.00013361
14910.0 0.00013564
14930.0 0.00013752
14950.0 0.0001392
14970.0 0.00014073
14990.0 0.00014189
15010.0 0.00014261
15030.0 0.00014297
15050.0 0.00014298
15070.0 0.00014265
15090.0 0.00014212
15110.0 0.00014143
15130.0 0.00014065
15150.0 0.00013983
15170.0 0.00013898
15190.0 0.00013811
15210.0 0.00013724
15230.0 0.00013637
15250.0 0.0001355
15270.0 0.00013462
15290.0 0.00013375
15310.0 0.00013288
15330.0 0.00013201
15350.0 0.00013114
15370.0 0.00013028
15390.0 0.00012941
15410.0 0.00012854
15430.0 0.00012768
15450.0 0.00012682
15470.0 0.00012596
15490.0 0.00012511
15510.0 0.00012426
15530.0 0.0001234
15550.0 0.00012256
15570.0 0.00012172
15590.0 0.00012087
15610.0 0.00012003
15630.0 0.0001192
15650.0 0.00011837
15670.0 0.00011754
15690.0 0.00011672
15710.0 0.0001159
15730.0 0.00011509
15750.0 0.00011427
15770.0 0.00011347
15790.0 0.00011267
15810.0 0.00011186
15830.0 0.00011107
15850.0 0.00011029
15870.0 0.0001095
15890.0 0.00010872
15910.0 0.00010795
15930.0 0.00010719
15950.0 0.00010642
15970.0 0.00010566
15990.0 0.00010491
16010.0 0.00010416
16030.0 0.00010342
16050.0 0.00010268
16070.0 0.00010195
16090.0 0.00010122
16110.0 0.00010051
16130.0 9.9795e-05
16150.0 9.908e-05
16170.0 9.8375e-05
16190.0 9.768e-05
16210.0 9.6989e-05
16230.0 9.6298e-05
16250.0 9.5619e-05
16270.0 9.4949e-05
16290.0 9.4277e-05
16310.0 9.3612e-05
16330.0 9.2958e-05
16350.0 9.2307e-05
16370.0 9.1654e-05
16390.0 9.1017e-05
16410.0 9.0385e-05
16430.0 8.9755e-05
16450.0 8.9131e-05
16470.0 8.852e-05
16490.0 8.7907e-05
16510.0 8.7299e-05
16530.0 8.6702e-05
16550.0 8.611e-05
16570.0 8.5519e-05
16590.0 8.4935e-05
16610.0 8.4364e-05
16630.0 8.3793e-05
16650.0 8.3226e-05
16670.0 8.267e-05
16690.0 8.2119e-05
16710.0 8.1566e-05
16730.0 8.1024e-05
16750.0 8.0491e-05
16770.0 7.9959e-05
16790.0 7.9431e-05
16810.0 7.8914e-05
16830.0 7.8402e-05
16850.0 7.7891e-05
16870.0 7.7388e-05
16890.0 7.6894e-05
16910.0 7.6399e-05
16930.0 7.5908e-05
16950.0 7.5429e-05
16970.0 7.4954e-05
16990.0 7.448e-05
17010.0 7.4014e-05
17030.0 7.3557e-05
17050.0 7.3099e-05
17070.0 7.2647e-05
17090.0 7.2204e-05
17110.0 7.1764e-05
17130.0 7.1324e-05
17150.0 7.0894e-05
17170.0 7.0471e-05
17190.0 7.0049e-05
17210.0 6.9631e-05
17230.0 6.9224e-05
17250.0 6.8817e-05
17270.0 6.8411e-05
17290.0 6.8015e-05
17310.0 6.7625e-05
17330.0 6.7235e-05
17350.0 6.6848e-05
17370.0 6.6473e-05
17390.0 6.6099e-05
17410.0 6.5726e-05
17430.0 6.5362e-05
17450.0 6.5004e-05
17470.0 6.4642e-05
17490.0 6.4287e-05
17510.0 6.3941e-05
17530.0 6.3597e-05
17550.0 6.3253e-05
17570.0 6.2918e-05
17590.0 6.2589e-05
17610.0 6.2258e-05
17630.0 6.1932e-05
17650.0 6.1614e-05
17670.0 6.1297e-05
17690.0 6.0979e-05
17710.0 6.0672e-05
17730.0 6.0368e-05
17750.0 6.0064e-05
17770.0 5.9766e-05
17790.0 5.9475e-05
17810.0 5.9182e-05
17830.0 5.8892e-05
17850.0 5.8609e-05
17870.0 5.833e-05
17890.0 5.805e-05
17910.0 5.7774e-05
17930.0 5.7508e-05
17950.0 5.724e-05
17970.0 5.6974e-05
17990.0 5.6715e-05
18010.0 5.6459e-05
18030.0 5.62e-05
18050.0 5.5949e-05
18070.0 5.5703e-05
18090.0 5.5456e-05
18110.0 5.5211e-05
18130.0 5.4974e-05
18150.0 5.4739e-05
18170.0 5.4503e-05
18190.0 5.4272e-05
18210.0 5.4047e-05
18230.0 5.3819e-05
18250.0 5.3593e-05
18270.0 5.3376e-05
18290.0 5.3159e-05
18310.0 5.2942e-05
18330.0 5.2731e-05
18350.0 5.2524e-05
18370.0 5.2315e-05
18390.0 5.2109e-05
18410.0 5.1909e-05
18430.0 5.171e-05
18450.0 5.1508e-05
18470.0 5.1314e-05
18490.0 5.1124e-05
18510.0 5.0932e-05
18530.0 5.0743e-05
18550.0 5.056e-05
18570.0 5.0376e-05
18590.0 5.0191e-05
18610.0 5.0013e-05
18630.0 4.9837e-05
18650.0 4.966e-05
18670.0 4.9484e-05
18690.0 4.9317e-05
18710.0 4.9148e-05
18730.0 4.8978e-05
18750.0 4.8814e-05
18770.0 4.8653e-05
18790.0 4.8488e-05
18810.0 4.8327e-05
18830.0 4.8171e-05
18850.0 4.8015e-05
18870.0 4.7858e-05
18890.0 4.7707e-05
18910.0 4.7559e-05
18930.0 4.7407e-05
18950.0 4.7259e-05
18970.0 4.7115e-05
18990.0 4.697e-05
19010.0 4.6823e-05
19030.0 4.6684e-05
19050.0 4.6546e-05
19070.0 4.6406e-05
19090.0 4.6269e-05
19110.0 4.6137e-05
19130.0 4.6002e-05
19150.0 4.5867e-05
19170.0 4.5738e-05
19190.0 4.5609e-05
19210.0 4.5478e-05
19230.0 4.535e-05
19250.0 4.5228e-05
19270.0 4.5102e-05
19290.0 4.4978e-05
19310.0 4.4858e-05
19330.0 4.4739e-05
19350.0 4.4615e-05
19370.0 4.4497e-05
19390.0 4.4382e-05
19410.0 4.4265e-05
19430.0 4.4148e-05
19450.0 4.4036e-05
19470.0 4.3925e-05
19490.0 4.3811e-05
19510.0 4.37e-05
19530.0 4.3593e-05
19550.0 4.3482e-05
19570.0 4.3372e-05
19590.0 4.3268e-05
19610.0 4.3162e-05
19630.0 4.3055e-05
19650.0 4.2952e-05
19670.0 4.2852e-05
19690.0 4.2747e-05
19710.0 4.2645e-05
19730.0 4.2546e-05
19750.0 4.2447e-05
19770.0 4.2344e-05
19790.0 4.2247e-05
19810.0 4.2151e-05
19830.0 4.2052e-05
19850.0 4.1953e-05
19870.0 4.1855e-05
19890.0 4.1747e-05
19910.0 4.1622e-05
19930.0 4.148e-05
19950.0 4.1307e-05
19970.0 4.1079e-05
19990.0 4.0788e-05
20010.0 4.0444e-05
20030.0 4.0015e-05
20050.0 3.9504e-05
20070.0 3.8946e-05
20090.0 3.8342e-05
20110.0 3.7659e-05
20130.0 3.6969e-05
20150.0 3.6287e-05
20170.0 3.5582e-05
20190.0 3.4869e-05
20210.0 3.4196e-05
20230.0 3.354e-05
20250.0 3.2882e-05
20270.0 3.227e-05
20290.0 3.1711e-05
20310.0 3.1179e-05
20330.0 3.0682e-05
20350.0 3.0272e-05
20370.0 2.9912e-05
20390.0 2.9603e-05
20410.0 2.9363e-05
20430.0 2.9192e-05
20450.0 2.9075e-05
20470.0 2.9025e-05
20490.0 2.9037e-05
20510.0 2.9106e-05
20530.0 2.9234e-05
20550.0 2.941e-05
20570.0 2.9621e-05
20590.0 2.9879e-05
20610.0 3.0169e-05
20630.0 3.0473e-05
20650.0 3.0796e-05
20670.0 3.1145e-05
20690.0 3.1481e-05
20710.0 3.1806e-05
20730.0 3.2129e-05
20750.0 3.2434e-05
20770.0 3.2702e-05
20790.0 3.2947e-05
20810.0 3.3165e-05
20830.0 3.3342e-05
20850.0 3.348e-05
20870.0 3.3584e-05
20890.0 3.3647e-05
20910.0 3.3671e-05
20930.0 3.366e-05
20950.0 3.3613e-05
20970.0 3.3537e-05
20990.0 3.3434e-05
21010.0 3.3299e-05
21030.0 3.3142e-05
21050.0 3.2971e-05
21070.0 3.278e-05
21090.0 3.2567e-05
21110.0 3.2356e-05
21130.0 3.2139e-05
21150.0 3.1911e-05
21170.0 3.1686e-05
21190.0 3.1472e-05
21210.0 3.1256e-05
21230.0 3.1047e-05
21250.0 3.086e-05
21270.0 3.0691e-05
21290.0 3.0535e-05
21310.0 3.0405e-05
21330.0 3.0304e-05
21350.0 3.0225e-05
21370.0 3.0174e-05
21390.0 3.0153e-05
21410.0 3.016e-05
21430.0 3.0197e-05
21450.0 3.0263e-05
21470.0 3.0353e-05
21490.0 3.0471e-05
21510.0 3.0615e-05
21530.0 3.0776e-05
21550.0 3.0956e-05
21570.0 3.1161e-05
21590.0 3.1378e-05
21610.0 3.1602e-05
21630.0 3.1845e-05
21650.0 3.2105e-05
21670.0 3.2358e-05
21690.0 3.2621e-05
21710.0 3.2898e-05
21730.0 3.3175e-05
21750.0 3.3448e-05
21770.0 3.3741e-05
21790.0 3.4037e-05
21810.0 3.4326e-05
21830.0 3.462e-05
21850.0 3.4927e-05
21870.0 3.5229e-05
21890.0 3.5522e-05
21910.0 3.5828e-05
21930.0 3.6132e-05
21950.0 3.6424e-05
21970.0 3.6716e-05
21990.0 3.7014e-05
22010.0 3.729e-05
22030.0 3.7551e-05
22050.0 3.7805e-05
22070.0 3.8041e-05
22090.0 3.8247e-05
22110.0 3.8433e-05
22130.0 3.8595e-05
22150.0 3.8721e-05
22170.0 3.8813e-05
22190.0 3.8871e-05
22210.0 3.8887e-05
22230.0 3.8862e-05
22250.0 3.8795e-05
22270.0 3.8681e-05
22290.0 3.8527e-05
22310.0 3.8334e-05
22330.0 3.8086e-05
22350.0 3.7799e-05
22370.0 3.7483e-05
22390.0 3.7123e-05
22410.0 3.6714e-05
22430.0 3.6295e-05
22450.0 3.5853e-05
22470.0 3.5371e-05
22490.0 3.4876e-05
22510.0 3.4385e-05
22530.0 3.3863e-05
22550.0 3.3326e-05
22570.0 3.2812e-05
22590.0 3.2302e-05
22610.0 3.1781e-05
22630.0 3.1278e-05
22650.0 3.0809e-05
