#lamb flux
1010.0 8.6916e-07
1030.0 9.2533e-07
1050.0 9.9023e-07
1070.0 1.0634e-06
1090.0 1.1465e-06
1110.0 1.232e-06
1130.0 1.3182e-06
1150.0 1.4088e-06
1170.0 1.5025e-06
1190.0 1.5918e-06
1210.0 1.6826e-06
1230.0 1.7767e-06
1250.0 1.8694e-06
1270.0 1.96e-06
1290.0 2.0559e-06
1310.0 2.1523e-06
1330.0 2.2454e-06
1350.0 2.34e-06
1370.0 2.4381e-06
1390.0 2.5345e-06
1410.0 2.6287e-06
1430.0 2.7276e-06
1450.0 2.8271e-06
1470.0 2.924e-06
1490.0 3.0226e-06
1510.0 3.1268e-06
1530.0 3.2265e-06
1550.0 3.3255e-06
1570.0 3.428e-06
1590.0 3.5309e-06
1610.0 3.6298e-06
1630.0 3.7317e-06
1650.0 3.8361e-06
1670.0 3.9373e-06
1690.0 4.037e-06
1710.0 4.1399e-06
1730.0 4.2429e-06
1750.0 4.3393e-06
1770.0 4.4376e-06
1790.0 4.5368e-06
1810.0 4.6316e-06
1830.0 4.7235e-06
1850.0 4.8195e-06
1870.0 4.9112e-06
1890.0 4.998e-06
1910.0 5.0846e-06
1930.0 5.1714e-06
1950.0 5.2517e-06
1970.0 5.3286e-06
1990.0 5.4067e-06
2010.0 5.481e-06
2030.0 5.5496e-06
2050.0 5.6188e-06
2070.0 5.6881e-06
2090.0 5.7499e-06
2110.0 5.8096e-06
2130.0 5.87e-06
2150.0 5.9272e-06
2170.0 5.9791e-06
2190.0 6.033e-06
2210.0 6.0865e-06
2230.0 6.1357e-06
2250.0 6.1842e-06
2270.0 6.2362e-06
2290.0 6.2855e-06
2310.0 6.3319e-06
2330.0 6.3815e-06
2350.0 6.4327e-06
2370.0 6.4817e-06
2390.0 6.533e-06
2410.0 6.5898e-06
2430.0 6.6462e-06
2450.0 6.7034e-06
2470.0 6.7667e-06
2490.0 6.8386e-06
2510.0 6.9206e-06
2530.0 7.036e-06
2550.0 7.2234e-06
2570.0 7.5255e-06
2590.0 7.9934e-06
2610.0 8.7554e-06
2630.0 9.8531e-06
2650.0 1.1239e-05
2670.0 1.2936e-05
2690.0 1.4896e-05
2710.0 1.6868e-05
2730.0 1.8731e-05
2750.0 2.0513e-05
2770.0 2.2069e-05
2790.0 2.3373e-05
2810.0 2.4538e-05
2830.0 2.5654e-05
2850.0 2.6671e-05
2870.0 2.7683e-05
2890.0 2.8756e-05
2910.0 2.9869e-05
2930.0 3.0987e-05
2950.0 3.2185e-05
2970.0 3.3453e-05
2990.0 3.4733e-05
3010.0 0.0001229
3030.0 0.00012759
3050.0 0.00013226
3070.0 0.00013648
3090.0 0.00014004
3110.0 0.00014199
3130.0 0.00014115
3150.0 0.00013627
3170.0 0.00012484
3190.0 0.00010664
3210.0 8.2009e-05
3230.0 5.4369e-05
3250.0 8.335e-05
3270.0 5.2125e-05
3290.0 0.00011999
3310.0 4.7299e-05
3330.0 4.6824e-05
3350.0 5.6078e-05
3370.0 6.7148e-05
3390.0 7.9251e-05
3410.0 9.138e-05
3430.0 0.00010416
3450.0 0.00011706
3470.0 0.00012896
3490.0 0.0001373
3510.0 0.00016487
3530.0 0.00021349
3550.0 0.00020797
3570.0 0.00017149
3590.0 0.00023213
3610.0 0.00015024
3630.0 0.00024465
3650.0 0.00028497
3670.0 0.00036235
3690.0 0.00033644
3710.0 0.00022528
3730.0 0.00029076
3750.0 0.00029772
3770.0 0.00031953
3790.0 0.00031006
3810.0 0.0003192
3830.0 0.00050167
3850.0 0.0006158
3870.0 0.00075938
3890.0 0.00073799
3910.0 0.00065959
3930.0 0.00066808
3950.0 0.00072164
3970.0 0.00079569
3990.0 0.0005102
4010.0 0.00027617
4030.0 0.00049111
4050.0 0.00064961
4070.0 0.00069495
4090.0 0.00048609
4110.0 0.00030768
4130.0 0.00050603
4150.0 0.00051663
4170.0 0.00048089
4190.0 0.00043636
4210.0 0.00061763
4230.0 0.00045502
4250.0 0.00049299
4270.0 0.00048977
4290.0 0.00046402
4310.0 0.00059484
4330.0 0.00064276
4350.0 0.00053554
4370.0 0.0004521
4390.0 0.000551
4410.0 0.00056432
4430.0 0.00041492
4450.0 0.00037648
4470.0 0.00046527
4490.0 0.00035597
4510.0 0.00049689
4530.0 0.00051641
4550.0 0.00061285
4570.0 0.00086398
4590.0 0.00085442
4610.0 0.00067746
4630.0 0.0010812
4650.0 0.0014408
4670.0 0.001374
4690.0 0.00097163
4710.0 0.0010303
4730.0 0.0011671
4750.0 0.00096145
4770.0 0.00073501
4790.0 0.00049606
4810.0 0.0006771
4830.0 0.00079745
4850.0 0.00070095
4870.0 0.00029467
4890.0 0.00079541
4910.0 0.0010428
4930.0 0.0011334
4950.0 0.0011679
4970.0 0.00082036
4990.0 0.00095468
5010.0 0.0011089
5030.0 0.0011886
5050.0 0.0011096
5070.0 0.00078463
5090.0 0.0006366
5110.0 0.00061542
5130.0 0.00058473
5150.0 0.00060907
5170.0 0.00054349
5190.0 0.00064796
5210.0 0.00065791
5230.0 0.00072866
5250.0 0.00086511
5270.0 0.00071717
5290.0 0.00074572
5310.0 0.0010959
5330.0 0.0012597
5350.0 0.0010571
5370.0 0.00095029
5390.0 0.0011024
5410.0 0.0013154
5430.0 0.001401
5450.0 0.0014735
5470.0 0.0014832
5490.0 0.0015272
5510.0 0.0018277
5530.0 0.0018982
5550.0 0.002004
5570.0 0.0021037
5590.0 0.0020673
5610.0 0.0019351
5630.0 0.0018889
5650.0 0.0019531
5670.0 0.001908
5690.0 0.0016332
5710.0 0.0016152
5730.0 0.0016174
5750.0 0.0016815
5770.0 0.001448
5790.0 0.001381
5810.0 0.0014146
5830.0 0.0015263
5850.0 0.0014208
5870.0 0.0014274
5890.0 0.0016642
5910.0 0.0015524
5930.0 0.0012817
5950.0 0.0011576
5970.0 0.0012613
5990.0 0.0011451
6010.0 0.0010466
6030.0 0.0010264
6050.0 0.00094004
6070.0 0.00072839
6090.0 0.00069271
6110.0 0.00088867
6130.0 0.00099727
6150.0 0.0010301
6170.0 0.0010018
6190.0 0.00095546
6210.0 0.00099624
6230.0 0.001209
6250.0 0.0011171
6270.0 0.0010044
6290.0 0.00091299
6310.0 0.00082694
6330.0 0.00076711
6350.0 0.00068562
6370.0 0.00069491
6390.0 0.00080861
6410.0 0.001004
6430.0 0.0011868
6450.0 0.0011914
6470.0 0.0012046
6490.0 0.0014712
6510.0 0.0016891
6530.0 0.0016051
6550.0 0.0015229
6570.0 0.0015449
6590.0 0.0015226
6610.0 0.0016116
6630.0 0.0015029
6650.0 0.0013058
6670.0 0.0012045
6690.0 0.0011941
6710.0 0.0014134
6730.0 0.0012585
6750.0 0.0010351
6770.0 0.00093444
6790.0 0.00099275
6810.0 0.0011401
6830.0 0.0011347
6850.0 0.0010177
6870.0 0.0010541
6890.0 0.0010476
6910.0 0.00098454
6930.0 0.0010931
6950.0 0.0010168
6970.0 0.00094723
6990.0 0.00094426
7010.0 0.00095118
7030.0 0.00092392
7050.0 0.00088467
7070.0 0.00094886
7090.0 0.00088377
7110.0 0.00074933
7130.0 0.00064362
7150.0 0.00063205
7170.0 0.00079803
7190.0 0.00084606
7210.0 0.00080222
7230.0 0.00084368
7250.0 0.00081944
7270.0 0.00079933
7290.0 0.00086591
7310.0 0.0009492
7330.0 0.00092482
7350.0 0.00085801
7370.0 0.00079372
7390.0 0.0007961
7410.0 0.0009147
7430.0 0.0010299
7450.0 0.0010965
7470.0 0.0011122
7490.0 0.0012373
7510.0 0.0012228
7530.0 0.0011076
7550.0 0.001049
7570.0 0.00090685
7590.0 0.0008637
7610.0 0.00083457
7630.0 0.00076908
7650.0 0.00082651
7670.0 0.000916
7690.0 0.0009976
7710.0 0.0011387
7730.0 0.0011948
7750.0 0.0012419
7770.0 0.0012913
7790.0 0.0014013
7810.0 0.0014121
7830.0 0.0012677
7850.0 0.0012733
7870.0 0.0012265
7890.0 0.0012562
7910.0 0.0011836
7930.0 0.0011754
7950.0 0.00098732
7970.0 0.00099086
7990.0 0.00095789
8010.0 0.001041
8030.0 0.0010369
8050.0 0.0011017
8070.0 0.0010571
8090.0 0.0010616
8110.0 0.0010453
8130.0 0.0010334
8150.0 0.00097035
8170.0 0.00095191
8190.0 0.00094934
8210.0 0.00095848
8230.0 0.00083829
8250.0 0.00076634
8270.0 0.00067719
8290.0 0.00057569
8310.0 0.00050705
8330.0 0.00040159
8350.0 0.00032509
8370.0 0.00031382
8390.0 0.0003042
8410.0 0.00031831
8430.0 0.00040937
8450.0 0.00044576
8470.0 0.00047968
8490.0 0.00056124
8510.0 0.00061066
8530.0 0.00069427
8550.0 0.00082111
8570.0 0.00090178
8590.0 0.00094825
8610.0 0.001053
8630.0 0.0011977
8650.0 0.0012284
8670.0 0.0012538
8690.0 0.0013008
8710.0 0.0012752
8730.0 0.0012347
8750.0 0.0011375
8770.0 0.0011376
8790.0 0.0011212
8810.0 0.0010308
8830.0 0.0010318
8850.0 0.00094476
8870.0 0.00090062
8890.0 0.00080667
8910.0 0.00089897
8930.0 0.00081295
8950.0 0.00081485
8970.0 0.00083187
8990.0 0.00080768
9010.0 0.00082941
9030.0 0.00078734
9050.0 0.00078352
9070.0 0.00078386
9090.0 0.00078404
9110.0 0.00078475
9130.0 0.00078471
9150.0 0.00078427
9170.0 0.00078169
9190.0 0.00077597
9210.0 0.00078824
9230.0 0.00078476
9250.0 0.00078276
9270.0 0.00078107
9290.0 0.00077956
9310.0 0.00077816
9330.0 0.00077679
9350.0 0.00077543
9370.0 0.00077402
9390.0 0.00077254
9410.0 0.00077101
9430.0 0.00076945
9450.0 0.00076778
9470.0 0.00076607
9490.0 0.00076433
9510.0 0.00076254
9530.0 0.00076068
9550.0 0.00075883
9570.0 0.00075695
9590.0 0.00075502
9610.0 0.00075307
9630.0 0.00075114
9650.0 0.00074918
9670.0 0.00074718
9690.0 0.00074521
9710.0 0.00074325
9730.0 0.00074126
9750.0 0.00073929
9770.0 0.00073739
9790.0 0.00073545
9810.0 0.00073351
9830.0 0.00073163
9850.0 0.00072978
9870.0 0.00072791
9890.0 0.00072608
9910.0 0.00072433
9930.0 0.00072256
9950.0 0.00071969
9970.0 0.00071838
9990.0 0.00071706
10010.0 0.00071566
10030.0 0.00071424
10050.0 0.00071257
10070.0 0.00070953
10090.0 0.00070869
10110.0 0.00070783
10130.0 0.00070685
10150.0 0.00070584
10170.0 0.00070475
10190.0 0.00070361
10210.0 0.00070255
10230.0 0.00070153
10250.0 0.0007005
10270.0 0.00069954
10290.0 0.00069866
10310.0 0.0006978
10330.0 0.00069695
10350.0 0.00069621
10370.0 0.00069552
10390.0 0.00069484
10410.0 0.00069422
10430.0 0.0006937
10450.0 0.00069319
10470.0 0.00069271
10490.0 0.00069232
10510.0 0.00069197
10530.0 0.00069162
10550.0 0.00069134
10570.0 0.00069114
10590.0 0.00069096
10610.0 0.0006908
10630.0 0.00069073
10650.0 0.00069069
10670.0 0.00069065
10690.0 0.00069068
10710.0 0.00069077
10730.0 0.00069087
10750.0 0.00069099
10770.0 0.0006912
10790.0 0.00069142
10810.0 0.00069165
10830.0 0.00069191
10850.0 0.00069216
10870.0 0.00069226
10890.0 0.00069211
10910.0 0.00069153
10930.0 0.00069014
10950.0 0.00068738
10970.0 0.00068294
10990.0 0.00067668
11010.0 0.0006884
11030.0 0.0006764
11050.0 0.00066229
11070.0 0.00064595
11090.0 0.000627
11110.0 0.00060811
11130.0 0.00058921
11150.0 0.00056985
11170.0 0.00055104
11190.0 0.00053391
11210.0 0.00051739
11230.0 0.00050168
11250.0 0.00048777
11270.0 0.00047535
11290.0 0.00046373
11310.0 0.00045339
11330.0 0.00044468
11350.0 0.00043663
11370.0 0.00042914
11390.0 0.0004224
11410.0 0.00041606
11430.0 0.00040947
11450.0 0.00040295
11470.0 0.00039644
11490.0 0.00038949
11510.0 0.00038194
11530.0 0.00037434
11550.0 0.00036645
11570.0 0.0003579
11590.0 0.00034915
11610.0 0.0003405
11630.0 0.00033138
11650.0 0.00032198
11670.0 0.00031304
11690.0 0.00030421
11710.0 0.00029523
11730.0 0.00028659
11750.0 0.00027855
11770.0 0.00027049
11790.0 0.00026266
11810.0 0.00025541
11830.0 0.0002485
11850.0 0.00024154
11870.0 0.00023511
11890.0 0.00022916
11910.0 0.00022325
11930.0 0.00021749
11950.0 0.00021215
11970.0 0.00020691
11990.0 0.00020157
12010.0 0.00019652
12030.0 0.00019172
12050.0 0.00018689
12070.0 0.00018212
12090.0 0.00017786
12110.0 0.00017375
12130.0 0.00016982
12150.0 0.00016633
12170.0 0.00016336
12190.0 0.00016067
12210.0 0.0001586
12230.0 0.00015724
12250.0 0.00015652
12270.0 0.00015652
12290.0 0.0001573
12310.0 0.0001588
12330.0 0.00016109
12350.0 0.00016411
12370.0 0.00016765
12390.0 0.00017176
12410.0 0.00017653
12430.0 0.00018136
12450.0 0.00018629
12470.0 0.0001914
12490.0 0.00019641
12510.0 0.000201
12530.0 0.00020543
12550.0 0.00020957
12570.0 0.00021316
12590.0 0.00021626
12610.0 0.000219
12630.0 0.00022122
12650.0 0.0002229
12670.0 0.0002242
12690.0 0.00022509
12710.0 0.0002256
12730.0 0.00022578
12750.0 0.00022563
12770.0 0.0002252
12790.0 0.00022454
12810.0 0.00022361
12830.0 0.00022239
12850.0 0.00022102
12870.0 0.00021943
12890.0 0.00021751
12910.0 0.00021537
12930.0 0.00021305
12950.0 0.00021035
12970.0 0.00020729
12990.0 0.00020412
13010.0 0.0002007
13030.0 0.00019692
13050.0 0.00019299
13070.0 0.00018909
13090.0 0.00018493
13110.0 0.0001807
13130.0 0.00017667
13150.0 0.00017277
13170.0 0.00016886
13190.0 0.00016538
13210.0 0.00016235
13230.0 0.00015961
13250.0 0.0001573
13270.0 0.00015554
13290.0 0.00015421
13310.0 0.00015327
13330.0 0.00015279
13350.0 0.00015266
13370.0 0.00015279
13390.0 0.00015313
13410.0 0.00015355
13430.0 0.00015398
13450.0 0.00015434
13470.0 0.00015453
13490.0 0.00015452
13510.0 0.00015425
13530.0 0.00015369
13550.0 0.00015289
13570.0 0.00015185
13590.0 0.00015056
13610.0 0.00014915
13630.0 0.00014769
13650.0 0.00014611
13670.0 0.00014455
13690.0 0.00014308
13710.0 0.00014166
13730.0 0.00014027
13750.0 0.00013908
13770.0 0.00013798
13790.0 0.00013694
13810.0 0.00013597
13830.0 0.00013508
13850.0 0.00013417
13870.0 0.00013323
13890.0 0.00013228
13910.0 0.00013129
13930.0 0.0001302
13950.0 0.00012905
13970.0 0.0001279
13990.0 0.00012669
14010.0 0.00012546
14030.0 0.00012427
14050.0 0.00012313
14070.0 0.00012201
14090.0 0.000121
14110.0 0.00012013
14130.0 0.00011935
14150.0 0.0001187
14170.0 0.0001182
14190.0 0.00011782
14210.0 0.00011756
14230.0 0.00011743
14250.0 0.00011742
14270.0 0.00011753
14290.0 0.00011778
14310.0 0.00011813
14330.0 0.00011859
14350.0 0.00011918
14370.0 0.00011986
14390.0 0.00012058
14410.0 0.00012141
14430.0 0.00012229
14450.0 0.00012316
14470.0 0.00012404
14490.0 0.00012498
14510.0 0.00012586
14530.0 0.0001267
14550.0 0.00012758
14570.0 0.00012847
14590.0 0.00012935
14610.0 0.00013031
14630.0 0.00013141
14650.0 0.0001326
14670.0 0.00013392
14690.0 0.00013547
14710.0 0.00013727
14730.0 0.00013915
14750.0 0.00014129
14770.0 0.00014371
14790.0 0.00014626
14810.0 0.00014888
14830.0 0.00015184
14850.0 0.00015482
14870.0 0.00015768
14890.0 0.00016055
14910.0 0.00016336
14930.0 0.00016582
14950.0 0.00016791
14970.0 0.00016971
14990.0 0.000171
15010.0 0.00017178
15030.0 0.00017213
15050.0 0.0001721
15070.0 0.00017172
15090.0 0.00017113
15110.0 0.00017039
15130.0 0.00016957
15150.0 0.00016871
15170.0 0.00016781
15190.0 0.0001669
15210.0 0.000166
15230.0 0.0001651
15250.0 0.00016418
15270.0 0.00016327
15290.0 0.00016238
15310.0 0.00016148
15330.0 0.00016058
15350.0 0.00015969
15370.0 0.00015881
15390.0 0.00015791
15410.0 0.00015702
15430.0 0.00015615
15450.0 0.00015526
15470.0 0.00015438
15490.0 0.00015351
15510.0 0.00015265
15530.0 0.00015178
15550.0 0.00015092
15570.0 0.00015007
15590.0 0.00014921
15610.0 0.00014835
15630.0 0.00014751
15650.0 0.00014667
15670.0 0.00014582
15690.0 0.00014499
15710.0 0.00014417
15730.0 0.00014334
15750.0 0.00014252
15770.0 0.00014171
15790.0 0.0001409
15810.0 0.00014008
15830.0 0.00013928
15850.0 0.00013849
15870.0 0.00013769
15890.0 0.0001369
15910.0 0.00013613
15930.0 0.00013535
15950.0 0.00013456
15970.0 0.0001338
15990.0 0.00013304
16010.0 0.00013227
16030.0 0.00013151
16050.0 0.00013077
16070.0 0.00013003
16090.0 0.00012928
16110.0 0.00012855
16130.0 0.00012783
16150.0 0.00012709
16170.0 0.00012637
16190.0 0.00012566
16210.0 0.00012495
16230.0 0.00012423
16250.0 0.00012354
16270.0 0.00012285
16290.0 0.00012215
16310.0 0.00012146
16330.0 0.00012079
16350.0 0.00012011
16370.0 0.00011942
16390.0 0.00011876
16410.0 0.0001181
16430.0 0.00011743
16450.0 0.00011678
16470.0 0.00011614
16490.0 0.00011549
16510.0 0.00011484
16530.0 0.00011421
16550.0 0.00011358
16570.0 0.00011294
16590.0 0.00011232
16610.0 0.00011171
16630.0 0.00011109
16650.0 0.00011047
16670.0 0.00010987
16690.0 0.00010928
16710.0 0.00010867
16730.0 0.00010807
16750.0 0.00010749
16770.0 0.0001069
16790.0 0.00010631
16810.0 0.00010574
16830.0 0.00010517
16850.0 0.00010459
16870.0 0.00010402
16890.0 0.00010347
16910.0 0.0001029
16930.0 0.00010233
16950.0 0.00010179
16970.0 0.00010124
16990.0 0.00010069
17010.0 0.00010015
17030.0 9.962e-05
17050.0 9.9079e-05
17070.0 9.8542e-05
17090.0 9.802e-05
17110.0 9.7497e-05
17130.0 9.6962e-05
17150.0 9.6445e-05
17170.0 9.5938e-05
17190.0 9.5421e-05
17210.0 9.4908e-05
17230.0 9.4411e-05
17250.0 9.3908e-05
17270.0 9.3398e-05
17290.0 9.2902e-05
17310.0 9.2413e-05
17330.0 9.1916e-05
17350.0 9.142e-05
17370.0 9.0944e-05
17390.0 9.0462e-05
17410.0 8.9975e-05
17430.0 8.9501e-05
17450.0 8.9035e-05
17470.0 8.855e-05
17490.0 8.8076e-05
17510.0 8.7616e-05
17530.0 8.7152e-05
17550.0 8.6682e-05
17570.0 8.6227e-05
17590.0 8.5777e-05
17610.0 8.5315e-05
17630.0 8.4861e-05
17650.0 8.4418e-05
17670.0 8.397e-05
17690.0 8.351e-05
17710.0 8.3074e-05
17730.0 8.2639e-05
17750.0 8.2195e-05
17770.0 8.1758e-05
17790.0 8.1335e-05
17810.0 8.0898e-05
17830.0 8.0462e-05
17850.0 8.0039e-05
17870.0 7.9617e-05
17890.0 7.9185e-05
17910.0 7.8761e-05
17930.0 7.8352e-05
17950.0 7.7933e-05
17970.0 7.7513e-05
17990.0 7.7107e-05
18010.0 7.6701e-05
18030.0 7.6279e-05
18050.0 7.5872e-05
18070.0 7.5474e-05
18090.0 7.5067e-05
18110.0 7.4659e-05
18130.0 7.4267e-05
18150.0 7.3874e-05
18170.0 7.3471e-05
18190.0 7.3078e-05
18210.0 7.2694e-05
18230.0 7.2298e-05
18250.0 7.19e-05
18270.0 7.1521e-05
18290.0 7.1139e-05
18310.0 7.0749e-05
18330.0 7.037e-05
18350.0 6.9999e-05
18370.0 6.9615e-05
18390.0 6.9235e-05
18410.0 6.8866e-05
18430.0 6.8495e-05
18450.0 6.8112e-05
18470.0 6.7745e-05
18490.0 6.7385e-05
18510.0 6.7015e-05
18530.0 6.6647e-05
18550.0 6.6293e-05
18570.0 6.5931e-05
18590.0 6.5562e-05
18610.0 6.5206e-05
18630.0 6.4855e-05
18650.0 6.4494e-05
18670.0 6.4134e-05
18690.0 6.3793e-05
18710.0 6.3443e-05
18730.0 6.3088e-05
18750.0 6.2744e-05
18770.0 6.2406e-05
18790.0 6.205e-05
18810.0 6.1703e-05
18830.0 6.1369e-05
18850.0 6.1029e-05
18870.0 6.0683e-05
18890.0 6.0351e-05
18910.0 6.0022e-05
18930.0 5.968e-05
18950.0 5.9346e-05
18970.0 5.9022e-05
18990.0 5.869e-05
19010.0 5.8348e-05
19030.0 5.8028e-05
19050.0 5.7707e-05
19070.0 5.7377e-05
19090.0 5.7053e-05
19110.0 5.6741e-05
19130.0 5.6416e-05
19150.0 5.609e-05
19170.0 5.5776e-05
19190.0 5.5463e-05
19210.0 5.5139e-05
19230.0 5.4823e-05
19250.0 5.452e-05
19270.0 5.4206e-05
19290.0 5.3891e-05
19310.0 5.3589e-05
19330.0 5.3285e-05
19350.0 5.2966e-05
19370.0 5.2661e-05
19390.0 5.2364e-05
19410.0 5.2057e-05
19430.0 5.1749e-05
19450.0 5.1457e-05
19470.0 5.116e-05
19490.0 5.0856e-05
19510.0 5.056e-05
19530.0 5.0271e-05
19550.0 4.9969e-05
19570.0 4.9668e-05
19590.0 4.9383e-05
19610.0 4.9093e-05
19630.0 4.8797e-05
19650.0 4.851e-05
19670.0 4.823e-05
19690.0 4.7936e-05
19710.0 4.7647e-05
19730.0 4.7367e-05
19750.0 4.7084e-05
19770.0 4.679e-05
19790.0 4.6511e-05
19810.0 4.6236e-05
19830.0 4.5951e-05
19850.0 4.5665e-05
19870.0 4.5387e-05
19890.0 4.5088e-05
19910.0 4.476e-05
19930.0 4.4413e-05
19950.0 4.402e-05
19970.0 4.3542e-05
19990.0 4.2978e-05
20010.0 4.2351e-05
20030.0 4.1612e-05
20050.0 4.0773e-05
20070.0 3.9899e-05
20090.0 3.8996e-05
20110.0 3.8021e-05
20130.0 3.7084e-05
20150.0 3.6204e-05
20170.0 3.5338e-05
20190.0 3.4506e-05
20210.0 3.3764e-05
20230.0 3.3076e-05
20250.0 3.2422e-05
20270.0 3.185e-05
20290.0 3.1358e-05
20310.0 3.0919e-05
20330.0 3.0542e-05
20350.0 3.0263e-05
20370.0 3.0049e-05
20390.0 2.9905e-05
20410.0 2.984e-05
20430.0 2.9849e-05
20450.0 2.9935e-05
20470.0 3.0101e-05
20490.0 3.0336e-05
20510.0 3.0642e-05
20530.0 3.1031e-05
20550.0 3.1478e-05
20570.0 3.1964e-05
20590.0 3.2519e-05
20610.0 3.3118e-05
20630.0 3.3726e-05
20650.0 3.4361e-05
20670.0 3.5035e-05
20690.0 3.5676e-05
20710.0 3.6292e-05
20730.0 3.6901e-05
20750.0 3.7478e-05
20770.0 3.799e-05
20790.0 3.8468e-05
20810.0 3.8912e-05
20830.0 3.9296e-05
20850.0 3.9632e-05
20870.0 3.9942e-05
20890.0 4.0215e-05
20910.0 4.0447e-05
20930.0 4.066e-05
20950.0 4.0857e-05
20970.0 4.1032e-05
20990.0 4.1189e-05
21010.0 4.1337e-05
21030.0 4.1465e-05
21050.0 4.1569e-05
21070.0 4.1651e-05
21090.0 4.1708e-05
21110.0 4.1731e-05
21130.0 4.1724e-05
21150.0 4.1683e-05
21170.0 4.1608e-05
21190.0 4.1507e-05
21210.0 4.1373e-05
21230.0 4.1209e-05
21250.0 4.1031e-05
21270.0 4.0837e-05
21290.0 4.0624e-05
21310.0 4.0407e-05
21330.0 4.0197e-05
21350.0 3.9982e-05
21370.0 3.9771e-05
21390.0 3.9577e-05
21410.0 3.9398e-05
21430.0 3.9225e-05
21450.0 3.9078e-05
21470.0 3.8956e-05
21490.0 3.8851e-05
21510.0 3.8769e-05
21530.0 3.8715e-05
21550.0 3.8683e-05
21570.0 3.8675e-05
21590.0 3.8694e-05
21610.0 3.8738e-05
21630.0 3.8808e-05
21650.0 3.891e-05
21670.0 3.9032e-05
21690.0 3.9183e-05
21710.0 3.9367e-05
21730.0 3.9577e-05
21750.0 3.9809e-05
21770.0 4.0084e-05
21790.0 4.039e-05
21810.0 4.0715e-05
21830.0 4.1071e-05
21850.0 4.147e-05
21870.0 4.1885e-05
21890.0 4.2312e-05
21910.0 4.278e-05
21930.0 4.3268e-05
21950.0 4.3756e-05
21970.0 4.4263e-05
21990.0 4.4803e-05
22010.0 4.5322e-05
22030.0 4.5832e-05
22050.0 4.635e-05
22070.0 4.6855e-05
22090.0 4.7318e-05
22110.0 4.7766e-05
22130.0 4.8191e-05
22150.0 4.8564e-05
22170.0 4.8887e-05
22190.0 4.917e-05
22210.0 4.9391e-05
22230.0 4.9539e-05
22250.0 4.9625e-05
22270.0 4.9638e-05
22290.0 4.9577e-05
22310.0 4.9445e-05
22330.0 4.9225e-05
22350.0 4.8928e-05
22370.0 4.8567e-05
22390.0 4.8124e-05
22410.0 4.7592e-05
22430.0 4.702e-05
22450.0 4.6394e-05
22470.0 4.569e-05
22490.0 4.4944e-05
22510.0 4.4187e-05
22530.0 4.3364e-05
22550.0 4.2499e-05
22570.0 4.1654e-05
22590.0 4.08e-05
22610.0 3.9914e-05
22630.0 3.9043e-05
22650.0 3.8219e-05
22670.0 3.7379e-05
22690.0 3.6552e-05
22710.0 3.5778e-05
22730.0 3.5034e-05
22750.0 3.4282e-05
