#lamb flux
1010.0 2.6292e-07
1030.0 2.9076e-07
1050.0 3.2278e-07
1070.0 3.5884e-07
1090.0 3.9978e-07
1110.0 4.4178e-07
1130.0 4.8405e-07
1150.0 5.2833e-07
1170.0 5.7401e-07
1190.0 6.1732e-07
1210.0 6.6121e-07
1230.0 7.0657e-07
1250.0 7.5101e-07
1270.0 7.9417e-07
1290.0 8.3978e-07
1310.0 8.8535e-07
1330.0 9.2905e-07
1350.0 9.7325e-07
1370.0 1.0189e-06
1390.0 1.0634e-06
1410.0 1.1065e-06
1430.0 1.1517e-06
1450.0 1.1968e-06
1470.0 1.2404e-06
1490.0 1.2845e-06
1510.0 1.3311e-06
1530.0 1.3752e-06
1550.0 1.4188e-06
1570.0 1.4638e-06
1590.0 1.5089e-06
1610.0 1.5521e-06
1630.0 1.5965e-06
1650.0 1.6422e-06
1670.0 1.6864e-06
1690.0 1.73e-06
1710.0 1.7754e-06
1730.0 1.821e-06
1750.0 1.864e-06
1770.0 1.9083e-06
1790.0 1.9535e-06
1810.0 1.9973e-06
1830.0 2.0405e-06
1850.0 2.0863e-06
1870.0 2.131e-06
1890.0 2.1743e-06
1910.0 2.2186e-06
1930.0 2.264e-06
1950.0 2.3074e-06
1970.0 2.3504e-06
1990.0 2.3952e-06
2010.0 2.4392e-06
2030.0 2.4819e-06
2050.0 2.5259e-06
2070.0 2.5711e-06
2090.0 2.6138e-06
2110.0 2.6566e-06
2130.0 2.7006e-06
2150.0 2.744e-06
2170.0 2.7855e-06
2190.0 2.8287e-06
2210.0 2.8722e-06
2230.0 2.9141e-06
2250.0 2.9558e-06
2270.0 2.9994e-06
2290.0 3.0417e-06
2310.0 3.0824e-06
2330.0 3.1247e-06
2350.0 3.1682e-06
2370.0 3.2114e-06
2390.0 3.2583e-06
2410.0 3.3139e-06
2430.0 3.3778e-06
2450.0 3.4542e-06
2470.0 3.5521e-06
2490.0 3.6756e-06
2510.0 3.8159e-06
2530.0 3.9848e-06
2550.0 4.1963e-06
2570.0 4.4594e-06
2590.0 4.8017e-06
2610.0 5.314e-06
2630.0 6.0455e-06
2650.0 7.0018e-06
2670.0 8.2382e-06
2690.0 9.7575e-06
2710.0 1.1379e-05
2730.0 1.2981e-05
2750.0 1.4559e-05
2770.0 1.5932e-05
2790.0 1.7021e-05
2810.0 1.7886e-05
2830.0 1.8561e-05
2850.0 1.9022e-05
2870.0 1.9359e-05
2890.0 1.9627e-05
2910.0 1.984e-05
2930.0 2.0014e-05
2950.0 2.018e-05
2970.0 2.0343e-05
2990.0 2.0495e-05
3010.0 0.0005797
3030.0 0.00058401
3050.0 0.00058818
3070.0 0.00059175
3090.0 0.00059482
3110.0 0.00059672
3130.0 0.00059662
3150.0 0.00059396
3170.0 0.00058758
3190.0 0.00057758
3210.0 0.0005649
3230.0 0.00055038
3250.0 0.00053605
3270.0 0.00052557
3290.0 0.00051975
3310.0 0.00052067
3330.0 0.0005282
3350.0 0.00054131
3370.0 0.00056003
3390.0 0.00058363
3410.0 0.00060931
3430.0 0.00063815
3450.0 0.00067135
3470.0 0.00070761
3490.0 0.00074603
3510.0 0.00078946
3530.0 0.00083597
3550.0 0.00088308
3570.0 0.00093222
3590.0 0.00098567
3610.0 0.0010408
3630.0 0.0010957
3650.0 0.0011527
3670.0 0.0012047
3690.0 0.0012435
3710.0 0.0012658
3730.0 0.0012665
3750.0 0.0012488
3770.0 0.001242
3790.0 0.0012346
3810.0 0.0012034
3830.0 0.0012405
3850.0 0.0013885
3870.0 0.0014689
3890.0 0.0014608
3910.0 0.0014665
3930.0 0.0015058
3950.0 0.0015305
3970.0 0.0013954
3990.0 0.0011992
4010.0 0.0035902
4030.0 0.0043482
4050.0 0.0049851
4070.0 0.0043281
4090.0 0.0039204
4110.0 0.0034584
4130.0 0.0031859
4150.0 0.0033925
4170.0 0.0033385
4190.0 0.0035563
4210.0 0.0035254
4230.0 0.0037311
4250.0 0.0044146
4270.0 0.0044679
4290.0 0.004116
4310.0 0.0042748
4330.0 0.0045456
4350.0 0.0050993
4370.0 0.0058049
4390.0 0.0054433
4410.0 0.0040174
4430.0 0.0033993
4450.0 0.0031239
4470.0 0.0023958
4490.0 0.0025887
4510.0 0.0039173
4530.0 0.0045192
4550.0 0.0045562
4570.0 0.0051216
4590.0 0.0058323
4610.0 0.0078801
4630.0 0.01024
4650.0 0.011097
4670.0 0.010274
4690.0 0.0098057
4710.0 0.010364
4730.0 0.0097757
4750.0 0.0073049
4770.0 0.0053565
4790.0 0.005005
4810.0 0.0047729
4830.0 0.0043711
4850.0 0.0047961
4870.0 0.0063362
4890.0 0.0074714
4910.0 0.006552
4930.0 0.0058002
4950.0 0.0063739
4970.0 0.0081752
4990.0 0.011079
5010.0 0.012746
5030.0 0.011234
5050.0 0.0075979
5070.0 0.0050089
5090.0 0.0040374
5110.0 0.0041504
5130.0 0.0047913
5150.0 0.0051888
5170.0 0.00511
5190.0 0.0047739
5210.0 0.0049914
5230.0 0.0052507
5250.0 0.0056608
5270.0 0.0061034
5290.0 0.0067628
5310.0 0.0078768
5330.0 0.008716
5350.0 0.0086602
5370.0 0.0090993
5390.0 0.010446
5410.0 0.010429
5430.0 0.0092182
5450.0 0.0084728
5470.0 0.009
5490.0 0.010996
5510.0 0.013747
5530.0 0.015768
5550.0 0.015236
5570.0 0.01385
5590.0 0.01204
5610.0 0.011108
5630.0 0.010779
5650.0 0.010264
5670.0 0.0097241
5690.0 0.0086892
5710.0 0.0084743
5730.0 0.007808
5750.0 0.0054992
5770.0 0.0042887
5790.0 0.0048615
5810.0 0.0054878
5830.0 0.006741
5850.0 0.0080283
5870.0 0.0089065
5890.0 0.0090551
5910.0 0.0088836
5930.0 0.0084563
5950.0 0.0086172
5970.0 0.0098269
5990.0 0.009234
6010.0 0.0077382
6030.0 0.0065368
6050.0 0.0056934
6070.0 0.0056667
6090.0 0.0061455
6110.0 0.0068686
6130.0 0.0069712
6150.0 0.0059958
6170.0 0.0052714
6190.0 0.0059335
6210.0 0.0078499
6230.0 0.010308
6250.0 0.011165
6270.0 0.0097507
6290.0 0.0082045
6310.0 0.0064043
6330.0 0.0049059
6350.0 0.0043778
6370.0 0.0046036
6390.0 0.0053227
6410.0 0.0065649
6430.0 0.0076672
6450.0 0.0087762
6470.0 0.010044
6490.0 0.012132
6510.0 0.013566
6530.0 0.013312
6550.0 0.012039
6570.0 0.010216
6590.0 0.0092138
6610.0 0.007943
6630.0 0.0072014
6650.0 0.0068088
6670.0 0.0066102
6690.0 0.0059677
6710.0 0.0054267
6730.0 0.0039003
6750.0 0.0038713
6770.0 0.004216
6790.0 0.0048503
6810.0 0.0044311
6830.0 0.0045626
6850.0 0.0042648
6870.0 0.0038962
6890.0 0.0037387
6910.0 0.0039868
6930.0 0.0037343
6950.0 0.003845
6970.0 0.0040442
6990.0 0.00459
7010.0 0.0046277
7030.0 0.0047047
7050.0 0.0044843
7070.0 0.0042697
7090.0 0.0042838
7110.0 0.0044088
7130.0 0.0047464
7150.0 0.0050429
7170.0 0.0055652
7190.0 0.006117
7210.0 0.0060076
7230.0 0.0061755
7250.0 0.0066362
7270.0 0.0072308
7290.0 0.0085844
7310.0 0.0093142
7330.0 0.009002
7350.0 0.0081414
7370.0 0.0070782
7390.0 0.0068684
7410.0 0.0073041
7430.0 0.0081188
7450.0 0.0088424
7470.0 0.008757
7490.0 0.0079783
7510.0 0.0090541
7530.0 0.0089512
7550.0 0.0080484
7570.0 0.0062826
7590.0 0.004311
7610.0 0.0036978
7630.0 0.0042055
7650.0 0.0049752
7670.0 0.0061995
7690.0 0.0068223
7710.0 0.0071045
7730.0 0.0074642
7750.0 0.0083861
7770.0 0.0085187
7790.0 0.0078244
7810.0 0.0071346
7830.0 0.0073594
7850.0 0.0071588
7870.0 0.006566
7890.0 0.0055142
7910.0 0.004478
7930.0 0.0042777
7950.0 0.003897
7970.0 0.0036057
7990.0 0.0035836
8010.0 0.00030051
8030.0 0.00029219
8050.0 0.00029247
8070.0 0.00030387
8090.0 0.0003374
8110.0 0.00032927
8130.0 0.00025335
8150.0 0.00025098
8170.0 0.0002013
8190.0 0.00018092
8210.0 0.00026013
8230.0 0.00029421
8250.0 0.00023885
8270.0 0.00020511
8290.0 0.00021758
8310.0 0.00017199
8330.0 0.00011459
8350.0 8.2575e-05
8370.0 4.5222e-05
8390.0 9.4288e-05
8410.0 0.00010925
8430.0 0.00013461
8450.0 0.00015739
8470.0 0.00020652
8490.0 0.00019857
8510.0 0.00018841
8530.0 0.00018339
8550.0 0.00027623
8570.0 0.00034232
8590.0 0.00034305
8610.0 0.00044544
8630.0 0.00052926
8650.0 0.00051536
8670.0 0.00056548
8690.0 0.00060183
8710.0 0.00053939
8730.0 0.00051288
8750.0 0.00044355
8770.0 0.00041641
8790.0 0.00041638
8810.0 0.0004077
8830.0 0.00030759
8850.0 0.00021135
8870.0 0.00015994
8890.0 0.00017551
8910.0 0.00021504
8930.0 0.00025459
8950.0 0.00026367
8970.0 0.00026153
8990.0 0.0002216
9010.0 0.0019051
9030.0 0.0017139
9050.0 0.0017237
9070.0 0.0017389
9090.0 0.0017522
9110.0 0.0017686
9130.0 0.0017811
9150.0 0.0017908
9170.0 0.0018011
9190.0 0.001812
9210.0 0.0018236
9230.0 0.0018358
9250.0 0.0018481
9270.0 0.001861
9290.0 0.0018742
9310.0 0.0018874
9330.0 0.001901
9350.0 0.001915
9370.0 0.0019291
9390.0 0.0019434
9410.0 0.0019581
9430.0 0.0019733
9450.0 0.0019883
9470.0 0.0020037
9490.0 0.0020195
9510.0 0.0020355
9530.0 0.0020515
9550.0 0.0020681
9570.0 0.002085
9590.0 0.002102
9610.0 0.0021192
9630.0 0.0021368
9650.0 0.0021547
9670.0 0.0021725
9690.0 0.0021908
9710.0 0.0022094
9730.0 0.002228
9750.0 0.0022469
9770.0 0.0022664
9790.0 0.0022858
9810.0 0.0023054
9830.0 0.0023253
9850.0 0.0023455
9870.0 0.0023656
9890.0 0.002386
9910.0 0.0024069
9930.0 0.0024277
9950.0 0.0024486
9970.0 0.0024699
9990.0 0.0024915
10010.0 0.002163
10030.0 0.0021816
10050.0 0.0022006
10070.0 0.0022201
10090.0 0.0022387
10110.0 0.0022577
10130.0 0.0022768
10150.0 0.0022958
10170.0 0.002315
10190.0 0.0023346
10210.0 0.0023539
10230.0 0.0023732
10250.0 0.0023928
10270.0 0.0024123
10290.0 0.0024317
10310.0 0.0024512
10330.0 0.002471
10350.0 0.0024904
10370.0 0.0025098
10390.0 0.0025294
10410.0 0.0025489
10430.0 0.002568
10450.0 0.0025873
10470.0 0.0026067
10490.0 0.0026257
10510.0 0.0026446
10530.0 0.0026638
10550.0 0.0026827
10570.0 0.0027012
10590.0 0.0027198
10610.0 0.0027384
10630.0 0.0027565
10650.0 0.0027745
10670.0 0.0027927
10690.0 0.0028105
10710.0 0.0028279
10730.0 0.0028453
10750.0 0.0028628
10770.0 0.0028796
10790.0 0.0028962
10810.0 0.0029128
10830.0 0.0029289
10850.0 0.0029442
10870.0 0.0029591
10890.0 0.0029722
10910.0 0.0029823
10930.0 0.0029882
10950.0 0.0029873
10970.0 0.0029775
10990.0 0.0029579
11010.0 0.0028847
11030.0 0.0028388
11050.0 0.0027829
11070.0 0.002716
11090.0 0.0026356
11110.0 0.0025525
11130.0 0.0024658
11150.0 0.0023724
11170.0 0.0022762
11190.0 0.0021828
11210.0 0.0020864
11230.0 0.0019876
11250.0 0.0018932
11270.0 0.0018025
11290.0 0.0017116
11310.0 0.0016255
11330.0 0.0015497
11350.0 0.0014781
11370.0 0.001412
11390.0 0.0013547
11410.0 0.0013046
11430.0 0.0012581
11450.0 0.0012179
11470.0 0.0011833
11490.0 0.001151
11510.0 0.0011199
11530.0 0.001091
11550.0 0.0010623
11570.0 0.0010317
11590.0 0.0010001
11610.0 0.00096782
11630.0 0.00093273
11650.0 0.00089517
11670.0 0.00085815
11690.0 0.00082061
11710.0 0.00078189
11730.0 0.00074437
11750.0 0.00070965
11770.0 0.00067559
11790.0 0.00064367
11810.0 0.00061558
11830.0 0.00059045
11850.0 0.0005673
11870.0 0.00054793
11890.0 0.00053183
11910.0 0.00051767
11930.0 0.00050551
11950.0 0.00049537
11970.0 0.00048632
11990.0 0.00047776
12010.0 0.00046984
12030.0 0.00046221
12050.0 0.00045432
12070.0 0.00044612
12090.0 0.00043821
12110.0 0.00043018
12130.0 0.00042214
12150.0 0.00041472
12170.0 0.00040825
12190.0 0.00040265
12210.0 0.00039873
12230.0 0.00039683
12250.0 0.00039712
12270.0 0.0004001
12290.0 0.00040574
12310.0 0.00041385
12330.0 0.00042519
12350.0 0.00043935
12370.0 0.00045547
12390.0 0.00047407
12410.0 0.00049586
12430.0 0.000518
12450.0 0.00054094
12470.0 0.00056532
12490.0 0.00058982
12510.0 0.00061279
12530.0 0.00063565
12550.0 0.0006577
12570.0 0.00067717
12590.0 0.00069426
12610.0 0.00070948
12630.0 0.00072162
12650.0 0.00072999
12670.0 0.00073549
12690.0 0.00073769
12710.0 0.00073647
12730.0 0.00073219
12750.0 0.00072456
12770.0 0.0007141
12790.0 0.00070142
12810.0 0.00068627
12830.0 0.00066875
12850.0 0.00065043
12870.0 0.00063106
12890.0 0.0006101
12910.0 0.0005888
12930.0 0.0005678
12950.0 0.00054589
12970.0 0.00052359
12990.0 0.00050249
13010.0 0.00048166
13030.0 0.00046059
13050.0 0.00044036
13070.0 0.0004214
13090.0 0.00040238
13110.0 0.00038398
13130.0 0.00036702
13150.0 0.00035095
13170.0 0.00033522
13190.0 0.00032122
13210.0 0.0003089
13230.0 0.00029763
13250.0 0.00028793
13270.0 0.00028027
13290.0 0.00027432
13310.0 0.00027021
13330.0 0.00026834
13350.0 0.00026855
13370.0 0.00027095
13390.0 0.00027568
13410.0 0.00028207
13430.0 0.00029037
13450.0 0.00030064
13470.0 0.00031204
13490.0 0.00032411
13510.0 0.00033773
13530.0 0.00035153
13550.0 0.00036475
13570.0 0.00037778
13590.0 0.00039048
13610.0 0.00040178
13630.0 0.00041165
13650.0 0.00042065
13670.0 0.00042813
13690.0 0.00043392
13710.0 0.00043839
13730.0 0.00044159
13750.0 0.00044319
13770.0 0.00044356
13790.0 0.00044275
13810.0 0.0004408
13830.0 0.00043792
13850.0 0.000434
13870.0 0.00042907
13890.0 0.00042343
13910.0 0.00041707
13930.0 0.0004097
13950.0 0.00040166
13970.0 0.00039344
13990.0 0.00038449
14010.0 0.00037497
14030.0 0.00036548
14050.0 0.00035591
14070.0 0.00034581
14090.0 0.00033613
14110.0 0.00032703
14130.0 0.00031822
14150.0 0.00030992
14170.0 0.00030284
14190.0 0.00029671
14210.0 0.00029151
14230.0 0.00028766
14250.0 0.00028518
14270.0 0.00028397
14290.0 0.00028422
14310.0 0.00028581
14330.0 0.00028865
14350.0 0.00029284
14370.0 0.00029805
14390.0 0.00030397
14410.0 0.00031095
14430.0 0.00031861
14450.0 0.00032644
14470.0 0.00033456
14490.0 0.0003432
14510.0 0.00035145
14530.0 0.0003593
14550.0 0.00036714
14570.0 0.00037467
14590.0 0.00038152
14610.0 0.00038815
14630.0 0.00039471
14650.0 0.00040082
14670.0 0.00040671
14690.0 0.00041286
14710.0 0.00041933
14730.0 0.0004258
14750.0 0.00043296
14770.0 0.00044109
14790.0 0.00044989
14810.0 0.00045944
14830.0 0.00047075
14850.0 0.00048304
14870.0 0.00049586
14890.0 0.0005097
14910.0 0.0005244
14930.0 0.00053853
14950.0 0.00055174
14970.0 0.00056424
14990.0 0.00057473
15010.0 0.00058274
15030.0 0.00058868
15050.0 0.00059262
15070.0 0.00059454
15090.0 0.00059521
15110.0 0.00059502
15130.0 0.00059428
15150.0 0.00059328
15170.0 0.00059209
15190.0 0.00059082
15210.0 0.00058957
15230.0 0.00058832
15250.0 0.00058702
15270.0 0.00058574
15290.0 0.00058453
15310.0 0.00058328
15330.0 0.00058202
15350.0 0.00058081
15370.0 0.00057962
15390.0 0.00057835
15410.0 0.00057713
15430.0 0.00057596
15450.0 0.00057475
15470.0 0.00057352
15490.0 0.00057235
15510.0 0.00057119
15530.0 0.00056999
15550.0 0.00056881
15570.0 0.00056768
15590.0 0.00056649
15610.0 0.00056529
15630.0 0.00056416
15650.0 0.00056302
15670.0 0.00056184
15690.0 0.0005607
15710.0 0.0005596
15730.0 0.00055844
15750.0 0.00055729
15770.0 0.00055618
15790.0 0.00055506
15810.0 0.00055388
15830.0 0.00055276
15850.0 0.00055167
15870.0 0.00055054
15890.0 0.00054941
15910.0 0.00054833
15930.0 0.00054722
15950.0 0.00054607
15970.0 0.00054496
15990.0 0.00054388
16010.0 0.00054275
16030.0 0.00054161
16050.0 0.00054054
16070.0 0.00053945
16090.0 0.00053832
16110.0 0.00053723
16130.0 0.00053616
16150.0 0.00053501
16170.0 0.00053389
16190.0 0.00053282
16210.0 0.00053172
16230.0 0.00053058
16250.0 0.0005295
16270.0 0.00052843
16290.0 0.0005273
16310.0 0.00052618
16330.0 0.00052511
16350.0 0.000524
16370.0 0.00052284
16390.0 0.00052176
16410.0 0.00052067
16430.0 0.00051954
16450.0 0.00051842
16470.0 0.00051735
16490.0 0.00051623
16510.0 0.00051508
16530.0 0.00051398
16550.0 0.00051288
16570.0 0.00051173
16590.0 0.00051059
16610.0 0.0005095
16630.0 0.00050837
16650.0 0.00050722
16670.0 0.00050612
16690.0 0.00050501
16710.0 0.00050383
16730.0 0.00050269
16750.0 0.00050158
16770.0 0.00050042
16790.0 0.00049925
16810.0 0.00049813
16830.0 0.000497
16850.0 0.00049582
16870.0 0.00049467
16890.0 0.00049355
16910.0 0.00049236
16930.0 0.00049116
16950.0 0.00049003
16970.0 0.00048887
16990.0 0.00048767
17010.0 0.0004865
17030.0 0.00048536
17050.0 0.00048416
17070.0 0.00048296
17090.0 0.0004818
17110.0 0.00048062
17130.0 0.00047937
17150.0 0.00047818
17170.0 0.00047702
17190.0 0.0004758
17210.0 0.00047458
17230.0 0.00047341
17250.0 0.0004722
17270.0 0.00047095
17290.0 0.00046974
17310.0 0.00046854
17330.0 0.00046729
17350.0 0.00046604
17370.0 0.00046485
17390.0 0.00046362
17410.0 0.00046236
17430.0 0.00046113
17450.0 0.00045993
17470.0 0.00045863
17490.0 0.00045737
17510.0 0.00045615
17530.0 0.00045489
17550.0 0.0004536
17570.0 0.00045236
17590.0 0.00045113
17610.0 0.00044983
17630.0 0.00044855
17650.0 0.00044731
17670.0 0.00044603
17690.0 0.00044469
17710.0 0.00044344
17730.0 0.00044218
17750.0 0.00044087
17770.0 0.00043957
17790.0 0.00043832
17810.0 0.00043701
17830.0 0.00043568
17850.0 0.0004344
17870.0 0.00043311
17890.0 0.00043177
17910.0 0.00043044
17930.0 0.00042917
17950.0 0.00042785
17970.0 0.00042651
17990.0 0.00042522
18010.0 0.00042392
18030.0 0.00042255
18050.0 0.00042122
18070.0 0.00041992
18090.0 0.00041858
18110.0 0.00041721
18130.0 0.00041591
18150.0 0.00041459
18170.0 0.00041322
18190.0 0.00041188
18210.0 0.00041057
18230.0 0.0004092
18250.0 0.00040782
18270.0 0.0004065
18290.0 0.00040516
18310.0 0.00040378
18330.0 0.00040243
18350.0 0.00040112
18370.0 0.00039973
18390.0 0.00039836
18410.0 0.00039702
18430.0 0.00039567
18450.0 0.00039425
18470.0 0.0003929
18490.0 0.00039156
18510.0 0.00039018
18530.0 0.0003888
18550.0 0.00038747
18570.0 0.00038609
18590.0 0.00038468
18610.0 0.00038332
18630.0 0.00038196
18650.0 0.00038056
18670.0 0.00037916
18690.0 0.00037783
18710.0 0.00037645
18730.0 0.00037505
18750.0 0.00037368
18770.0 0.00037233
18790.0 0.0003709
18810.0 0.00036951
18830.0 0.00036815
18850.0 0.00036677
18870.0 0.00036535
18890.0 0.00036399
18910.0 0.00036263
18930.0 0.00036122
18950.0 0.00035983
18970.0 0.00035847
18990.0 0.00035708
19010.0 0.00035563
19030.0 0.00035428
19050.0 0.00035291
19070.0 0.0003515
19090.0 0.00035011
19110.0 0.00034877
19130.0 0.00034735
19150.0 0.00034594
19170.0 0.00034457
19190.0 0.0003432
19210.0 0.00034177
19230.0 0.00034037
19250.0 0.00033903
19270.0 0.00033763
19290.0 0.00033622
19310.0 0.00033486
19330.0 0.00033349
19350.0 0.00033205
19370.0 0.00033067
19390.0 0.00032931
19410.0 0.00032791
19430.0 0.0003265
19450.0 0.00032515
19470.0 0.00032377
19490.0 0.00032236
19510.0 0.00032098
19530.0 0.00031963
19550.0 0.00031822
19570.0 0.0003168
19590.0 0.00031545
19610.0 0.00031408
19630.0 0.00031267
19650.0 0.0003113
19670.0 0.00030996
19690.0 0.00030855
19710.0 0.00030715
19730.0 0.0003058
19750.0 0.00030443
19770.0 0.000303
19790.0 0.00030164
19810.0 0.00030029
19830.0 0.00029889
19850.0 0.00029749
19870.0 0.00029611
19890.0 0.00029463
19910.0 0.000293
19930.0 0.00029126
19950.0 0.00028927
19970.0 0.00028682
19990.0 0.00028387
20010.0 0.00025258
20030.0 0.00024893
20050.0 0.00024465
20070.0 0.00024001
20090.0 0.00023502
20110.0 0.00022938
20130.0 0.00022367
20150.0 0.00021801
20170.0 0.00021214
20190.0 0.00020619
20210.0 0.00020057
20230.0 0.00019508
20250.0 0.00018959
20270.0 0.00018449
20290.0 0.00017983
20310.0 0.00017541
20330.0 0.00017128
20350.0 0.00016784
20370.0 0.0001648
20390.0 0.00016212
20410.0 0.00015997
20430.0 0.0001583
20450.0 0.00015698
20470.0 0.0001561
20490.0 0.00015563
20510.0 0.00015549
20530.0 0.00015568
20550.0 0.00015616
20570.0 0.00015686
20590.0 0.0001578
20610.0 0.00015895
20630.0 0.00016021
20650.0 0.00016162
20670.0 0.00016324
20690.0 0.00016488
20710.0 0.00016659
20730.0 0.00016842
20750.0 0.00017034
20770.0 0.00017222
20790.0 0.0001742
20810.0 0.0001763
20830.0 0.00017838
20850.0 0.00018047
20870.0 0.00018271
20890.0 0.000185
20910.0 0.0001872
20930.0 0.00018949
20950.0 0.00019185
20970.0 0.00019416
20990.0 0.00019644
21010.0 0.00019884
21030.0 0.00020118
21050.0 0.00020342
21070.0 0.00020565
21090.0 0.00020789
21110.0 0.00020993
21130.0 0.00021184
21150.0 0.0002137
21170.0 0.00021538
21190.0 0.00021683
21210.0 0.00021813
21230.0 0.00021922
21250.0 0.00021999
21270.0 0.00022048
21290.0 0.00022066
21310.0 0.00022048
21330.0 0.00021996
21350.0 0.00021905
21370.0 0.00021771
21390.0 0.000216
21410.0 0.00021391
21430.0 0.00021127
21450.0 0.0002083
21470.0 0.00020507
21490.0 0.00020141
21510.0 0.0001974
21530.0 0.00019333
21550.0 0.00018906
21570.0 0.00018451
21590.0 0.00018003
21610.0 0.00017571
21630.0 0.00017138
21650.0 0.00016715
21670.0 0.00016348
21690.0 0.0001601
21710.0 0.00015706
21730.0 0.00015456
21750.0 0.00015264
21770.0 0.00015117
21790.0 0.00015033
21810.0 0.00015009
21830.0 0.00015043
21850.0 0.00015137
21870.0 0.00015283
21890.0 0.00015473
21910.0 0.00015715
21930.0 0.00016
21950.0 0.00016309
21970.0 0.00016651
21990.0 0.00017035
22010.0 0.00017418
22030.0 0.00017807
22050.0 0.00018217
22070.0 0.00018628
22090.0 0.00019017
22110.0 0.0001941
22130.0 0.00019802
22150.0 0.00020168
22170.0 0.00020513
22190.0 0.00020855
22210.0 0.00021173
22230.0 0.00021453
22250.0 0.00021717
22270.0 0.0002196
22290.0 0.00022168
22310.0 0.00022346
22330.0 0.00022503
22350.0 0.00022624
22370.0 0.00022709
22390.0 0.00022763
22410.0 0.0002278
22430.0 0.00022758
22450.0 0.00022699
22470.0 0.00022598
22490.0 0.00022455
22510.0 0.00022278
22530.0 0.00022051
22550.0 0.00021775
22570.0 0.00021469
22590.0 0.00021124
22610.0 0.00020727
22630.0 0.00020296
22650.0 0.00019852
22670.0 0.00019361
22690.0 0.00018836
22710.0 0.00018307
22730.0 0.00017762
22750.0 0.0001717
22770.0 0.00016592
22790.0 0.00016028
22810.0 0.00015449
22830.0 0.00014871
22850.0 0.0001433
22870.0 0.000138
22890.0 0.00013273
22910.0 0.00012787
22930.0 0.00012341
22950.0 0.00011917
22970.0 0.00011524
22990.0 0.00011199
23010.0 0.00010911
23030.0 0.00010663
