#lamb flux
1010.0 3.9898e-05
1030.0 4.1946e-05
1050.0 4.4306e-05
1070.0 4.6964e-05
1090.0 4.9984e-05
1110.0 5.3085e-05
1130.0 5.6209e-05
1150.0 5.9486e-05
1170.0 6.287e-05
1190.0 6.6085e-05
1210.0 6.9348e-05
1230.0 7.2725e-05
1250.0 7.6042e-05
1270.0 7.927e-05
1290.0 8.2686e-05
1310.0 8.6107e-05
1330.0 8.9398e-05
1350.0 9.2734e-05
1370.0 9.6185e-05
1390.0 9.9561e-05
1410.0 0.00010285
1430.0 0.00010629
1450.0 0.00010974
1470.0 0.00011309
1490.0 0.00011649
1510.0 0.00012008
1530.0 0.00012349
1550.0 0.00012688
1570.0 0.00013038
1590.0 0.00013389
1610.0 0.00013726
1630.0 0.00014073
1650.0 0.0001443
1670.0 0.00014776
1690.0 0.00015118
1710.0 0.00015472
1730.0 0.00015828
1750.0 0.00016164
1770.0 0.00016509
1790.0 0.0001686
1810.0 0.000172
1830.0 0.00017533
1850.0 0.00017885
1870.0 0.00018228
1890.0 0.00018559
1910.0 0.00018896
1930.0 0.0001924
1950.0 0.00019568
1970.0 0.00019892
1990.0 0.00020228
2010.0 0.00020559
2030.0 0.00020879
2050.0 0.0002121
2070.0 0.00021551
2090.0 0.00021874
2110.0 0.00022199
2130.0 0.00022537
2150.0 0.00022873
2170.0 0.000232
2190.0 0.00023544
2210.0 0.00023896
2230.0 0.00024243
2250.0 0.00024596
2270.0 0.00024972
2290.0 0.00025348
2310.0 0.00025721
2330.0 0.00026115
2350.0 0.00026525
2370.0 0.00026934
2390.0 0.00027361
2410.0 0.00027818
2430.0 0.00028279
2450.0 0.00028742
2470.0 0.00029215
2490.0 0.00029683
2510.0 0.0003012
2530.0 0.0003057
2550.0 0.00031103
2570.0 0.00031832
2590.0 0.0003292
2610.0 0.00034712
2630.0 0.00037422
2650.0 0.00041044
2670.0 0.00045721
2690.0 0.00051436
2710.0 0.00057594
2730.0 0.00063849
2750.0 0.00070315
2770.0 0.00076503
2790.0 0.00082213
2810.0 0.00087742
2830.0 0.00093351
2850.0 0.00098693
2870.0 0.0010408
2890.0 0.0010976
2910.0 0.001156
2930.0 0.001214
2950.0 0.0012752
2970.0 0.0013389
2990.0 0.0014024
3010.0 0.0027907
3030.0 0.0029185
3050.0 0.0030474
3070.0 0.0031695
3090.0 0.0032888
3110.0 0.0033945
3130.0 0.0034702
3150.0 0.0035018
3170.0 0.0034623
3190.0 0.0033358
3210.0 0.0031201
3230.0 0.0028576
3250.0 0.0028608
3270.0 0.0021264
3290.0 0.0023873
3310.0 0.0017153
3330.0 0.0018459
3350.0 0.0020791
3370.0 0.0023249
3390.0 0.0025765
3410.0 0.002827
3430.0 0.0030826
3450.0 0.0033364
3470.0 0.0035772
3490.0 0.0037518
3510.0 0.0040711
3530.0 0.0047586
3550.0 0.0054203
3570.0 0.0060748
3590.0 0.0074576
3610.0 0.0072477
3630.0 0.0078321
3650.0 0.0076914
3670.0 0.0083657
3690.0 0.0091361
3710.0 0.0096666
3730.0 0.011153
3750.0 0.01162
3770.0 0.011771
3790.0 0.011196
3810.0 0.0098718
3830.0 0.0090754
3850.0 0.00798
3870.0 0.0086976
3890.0 0.0098962
3910.0 0.011669
3930.0 0.013539
3950.0 0.014711
3970.0 0.016737
3990.0 0.01722
4010.0 0.016742
4030.0 0.017008
4050.0 0.015608
4070.0 0.014941
4090.0 0.014545
4110.0 0.013878
4130.0 0.014974
4150.0 0.014436
4170.0 0.014416
4190.0 0.014135
4210.0 0.015153
4230.0 0.014526
4250.0 0.015663
4270.0 0.015621
4290.0 0.015693
4310.0 0.016749
4330.0 0.017837
4350.0 0.017965
4370.0 0.017596
4390.0 0.01676
4410.0 0.014832
4430.0 0.012354
4450.0 0.0114
4470.0 0.011738
4490.0 0.01173
4510.0 0.013278
4530.0 0.014565
4550.0 0.017188
4570.0 0.022257
4590.0 0.027209
4610.0 0.029773
4630.0 0.034155
4650.0 0.037359
4670.0 0.037615
4690.0 0.034313
4710.0 0.031868
4730.0 0.028304
4750.0 0.02321
4770.0 0.019606
4790.0 0.017471
4810.0 0.019066
4830.0 0.021179
4850.0 0.023784
4870.0 0.022723
4890.0 0.026005
4910.0 0.027164
4930.0 0.029632
4950.0 0.034743
4970.0 0.036943
4990.0 0.038915
5010.0 0.036005
5030.0 0.030224
5050.0 0.024648
5070.0 0.019568
5090.0 0.017623
5110.0 0.017313
5130.0 0.017024
5150.0 0.017823
5170.0 0.017233
5190.0 0.018178
5210.0 0.018536
5230.0 0.019988
5250.0 0.023486
5270.0 0.025598
5290.0 0.027883
5310.0 0.031498
5330.0 0.034203
5350.0 0.035135
5370.0 0.035305
5390.0 0.034686
5410.0 0.034166
5430.0 0.034743
5450.0 0.039053
5470.0 0.045975
5490.0 0.052756
5510.0 0.059147
5530.0 0.060907
5550.0 0.060542
5570.0 0.059199
5590.0 0.057956
5610.0 0.057535
5630.0 0.05781
5650.0 0.058332
5670.0 0.057811
5690.0 0.054063
5710.0 0.049595
5730.0 0.044492
5750.0 0.041803
5770.0 0.03971
5790.0 0.040704
5810.0 0.043021
5830.0 0.044707
5850.0 0.043514
5870.0 0.041524
5890.0 0.040895
5910.0 0.039874
5930.0 0.039192
5950.0 0.038387
5970.0 0.036977
5990.0 0.03279
6010.0 0.028541
6030.0 0.026077
6050.0 0.025226
6070.0 0.024635
6090.0 0.024608
6110.0 0.025112
6130.0 0.025345
6150.0 0.026862
6170.0 0.02973
6190.0 0.032754
6210.0 0.034371
6230.0 0.034837
6250.0 0.032042
6270.0 0.028298
6290.0 0.024321
6310.0 0.021261
6330.0 0.019648
6350.0 0.019089
6370.0 0.020043
6390.0 0.022472
6410.0 0.026406
6430.0 0.031513
6450.0 0.035794
6470.0 0.039035
6490.0 0.041814
6510.0 0.042959
6530.0 0.04265
6550.0 0.042849
6570.0 0.043304
6590.0 0.042764
6610.0 0.043198
6630.0 0.042415
6650.0 0.041072
6670.0 0.038696
6690.0 0.03541
6710.0 0.03399
6730.0 0.032166
6750.0 0.032153
6770.0 0.033025
6790.0 0.034172
6810.0 0.034789
6830.0 0.034133
6850.0 0.032739
6870.0 0.031715
6890.0 0.03022
6910.0 0.028794
6930.0 0.029515
6950.0 0.029891
6970.0 0.031099
6990.0 0.032318
7010.0 0.032037
7030.0 0.03015
7050.0 0.02698
7070.0 0.023988
7090.0 0.021252
7110.0 0.019782
7130.0 0.019006
7150.0 0.018501
7170.0 0.019139
7190.0 0.019561
7210.0 0.020622
7230.0 0.022882
7250.0 0.024504
7270.0 0.025089
7290.0 0.024761
7310.0 0.023631
7330.0 0.022165
7350.0 0.021403
7370.0 0.021541
7390.0 0.022669
7410.0 0.025052
7430.0 0.027962
7450.0 0.031556
7470.0 0.034282
7490.0 0.035604
7510.0 0.0342
7530.0 0.031288
7550.0 0.027284
7570.0 0.023194
7590.0 0.021455
7610.0 0.021525
7630.0 0.022941
7650.0 0.025978
7670.0 0.028936
7690.0 0.031605
7710.0 0.034015
7730.0 0.035924
7750.0 0.037503
7770.0 0.038191
7790.0 0.039386
7810.0 0.040152
7830.0 0.039937
7850.0 0.040006
7870.0 0.038524
7890.0 0.037269
7910.0 0.035083
7930.0 0.034109
7950.0 0.03279
7970.0 0.032979
7990.0 0.032612
8010.0 0.032034
8030.0 0.03203
8050.0 0.032985
8070.0 0.032298
8090.0 0.032268
8110.0 0.031058
8130.0 0.030849
8150.0 0.029842
8170.0 0.028953
8190.0 0.028519
8210.0 0.028682
8230.0 0.026533
8250.0 0.024647
8270.0 0.021475
8290.0 0.01739
8310.0 0.013793
8330.0 0.010694
8350.0 0.009305
8370.0 0.010222
8390.0 0.011466
8410.0 0.012578
8430.0 0.014281
8450.0 0.015081
8470.0 0.015774
8490.0 0.017592
8510.0 0.019437
8530.0 0.022521
8550.0 0.026486
8570.0 0.029953
8590.0 0.032689
8610.0 0.035232
8630.0 0.037347
8650.0 0.037681
8670.0 0.037781
8690.0 0.038985
8710.0 0.039319
8730.0 0.039774
8750.0 0.038639
8770.0 0.038658
8790.0 0.038045
8810.0 0.035323
8830.0 0.03457
8850.0 0.032615
8870.0 0.031219
8890.0 0.029506
8910.0 0.03048
8930.0 0.02849
8950.0 0.027552
8970.0 0.027211
8990.0 0.026463
9010.0 0.026209
9030.0 0.025449
9050.0 0.025301
9070.0 0.025239
9090.0 0.025176
9110.0 0.025118
9130.0 0.02505
9150.0 0.024979
9170.0 0.024869
9190.0 0.024704
9210.0 0.02486
9230.0 0.02473
9250.0 0.024627
9270.0 0.02453
9290.0 0.024436
9310.0 0.024344
9330.0 0.024253
9350.0 0.024161
9370.0 0.024069
9390.0 0.023975
9410.0 0.02388
9430.0 0.023782
9450.0 0.023678
9470.0 0.023575
9490.0 0.023481
9510.0 0.023383
9530.0 0.023284
9550.0 0.023182
9570.0 0.02308
9590.0 0.022976
9610.0 0.022872
9630.0 0.022767
9650.0 0.022662
9670.0 0.022556
9690.0 0.02245
9710.0 0.022344
9730.0 0.022237
9750.0 0.022131
9770.0 0.022024
9790.0 0.021917
9810.0 0.02181
9830.0 0.021703
9850.0 0.021597
9870.0 0.02149
9890.0 0.021384
9910.0 0.021278
9930.0 0.02117
9950.0 0.020951
9970.0 0.020879
9990.0 0.020802
10010.0 0.020721
10030.0 0.020632
10050.0 0.020533
10070.0 0.020426
10090.0 0.020332
10110.0 0.020231
10130.0 0.020134
10150.0 0.020037
10170.0 0.019936
10190.0 0.019831
10210.0 0.019733
10230.0 0.019637
10250.0 0.019536
10270.0 0.019437
10290.0 0.019343
10310.0 0.019246
10330.0 0.019145
10350.0 0.01905
10370.0 0.018957
10390.0 0.01886
10410.0 0.018764
10430.0 0.018674
10450.0 0.01858
10470.0 0.018484
10490.0 0.018394
10510.0 0.018304
10530.0 0.018207
10550.0 0.018115
10570.0 0.018027
10590.0 0.017936
10610.0 0.017843
10630.0 0.017756
10650.0 0.017668
10670.0 0.017575
10690.0 0.017486
10710.0 0.0174
10730.0 0.01731
10750.0 0.017216
10770.0 0.017131
10790.0 0.017045
10810.0 0.016954
10830.0 0.016866
10850.0 0.016782
10870.0 0.016688
10890.0 0.016592
10910.0 0.016495
10930.0 0.016389
10950.0 0.016263
10970.0 0.016123
10990.0 0.015968
11010.0 0.01477
11030.0 0.014577
11050.0 0.014378
11070.0 0.014166
11090.0 0.013929
11110.0 0.013703
11130.0 0.013479
11150.0 0.013246
11170.0 0.013015
11190.0 0.012798
11210.0 0.012577
11230.0 0.012353
11250.0 0.01214
11270.0 0.011937
11290.0 0.011729
11310.0 0.011529
11330.0 0.01135
11350.0 0.011175
11370.0 0.011004
11390.0 0.010849
11410.0 0.010706
11430.0 0.010559
11450.0 0.010422
11470.0 0.010294
11490.0 0.010164
11510.0 0.010028
11530.0 0.0098975
11550.0 0.0097634
11570.0 0.0096153
11590.0 0.009461
11610.0 0.0093052
11630.0 0.0091327
11650.0 0.0089454
11670.0 0.008761
11690.0 0.0085706
11710.0 0.0083675
11730.0 0.0081647
11750.0 0.0079719
11770.0 0.0077722
11790.0 0.0075739
11810.0 0.0073901
11830.0 0.0072145
11850.0 0.0070371
11870.0 0.0068767
11890.0 0.0067329
11910.0 0.0065936
11930.0 0.0064624
11950.0 0.0063469
11970.0 0.0062383
11990.0 0.0061315
12010.0 0.0060355
12030.0 0.0059483
12050.0 0.0058628
12070.0 0.0057799
12090.0 0.0057088
12110.0 0.0056406
12130.0 0.0055746
12150.0 0.0055161
12170.0 0.0054661
12190.0 0.0054183
12210.0 0.0053797
12230.0 0.005353
12250.0 0.005336
12270.0 0.0053304
12290.0 0.0053396
12310.0 0.0053632
12330.0 0.0054021
12350.0 0.0054574
12370.0 0.0055273
12390.0 0.0056126
12410.0 0.0057161
12430.0 0.0058284
12450.0 0.0059496
12470.0 0.0060819
12490.0 0.0062194
12510.0 0.0063545
12530.0 0.0064926
12550.0 0.0066302
12570.0 0.0067593
12590.0 0.0068802
12610.0 0.0069956
12630.0 0.0070999
12650.0 0.0071894
12670.0 0.0072689
12690.0 0.0073367
12710.0 0.007391
12730.0 0.0074335
12750.0 0.0074642
12770.0 0.0074829
12790.0 0.0074913
12810.0 0.007489
12830.0 0.0074755
12850.0 0.0074553
12870.0 0.0074275
12890.0 0.0073901
12910.0 0.0073467
12930.0 0.0072997
12950.0 0.0072443
12970.0 0.0071817
12990.0 0.0071184
13010.0 0.0070505
13030.0 0.0069751
13050.0 0.0068968
13070.0 0.0068186
13090.0 0.0067328
13110.0 0.0066431
13130.0 0.0065551
13150.0 0.0064663
13170.0 0.0063727
13190.0 0.0062855
13210.0 0.0062058
13230.0 0.0061294
13250.0 0.0060611
13270.0 0.0060062
13290.0 0.0059617
13310.0 0.0059283
13330.0 0.0059099
13350.0 0.0059044
13370.0 0.0059103
13390.0 0.0059268
13410.0 0.00595
13430.0 0.0059775
13450.0 0.0060064
13470.0 0.0060322
13490.0 0.0060517
13510.0 0.0060626
13530.0 0.0060612
13550.0 0.006047
13570.0 0.0060187
13590.0 0.0059748
13610.0 0.005919
13630.0 0.0058537
13650.0 0.0057757
13670.0 0.0056906
13690.0 0.005604
13710.0 0.0055135
13730.0 0.0054183
13750.0 0.0053305
13770.0 0.0052467
13790.0 0.0051645
13810.0 0.0050881
13830.0 0.0050202
13850.0 0.0049553
13870.0 0.0048947
13890.0 0.004841
13910.0 0.004792
13930.0 0.0047452
13950.0 0.0047023
13970.0 0.0046645
13990.0 0.0046283
14010.0 0.0045942
14030.0 0.0045635
14050.0 0.0045352
14070.0 0.0045078
14090.0 0.0044832
14110.0 0.004461
14130.0 0.0044402
14150.0 0.004421
14170.0 0.0044041
14190.0 0.0043887
14210.0 0.0043747
14230.0 0.0043625
14250.0 0.004352
14270.0 0.0043433
14290.0 0.0043367
14310.0 0.0043321
14330.0 0.0043295
14350.0 0.004329
14370.0 0.0043302
14390.0 0.0043324
14410.0 0.0043361
14430.0 0.0043404
14450.0 0.0043442
14470.0 0.0043475
14490.0 0.0043504
14510.0 0.0043514
14530.0 0.0043506
14550.0 0.0043487
14570.0 0.0043456
14590.0 0.0043414
14610.0 0.0043371
14630.0 0.0043338
14650.0 0.0043317
14670.0 0.0043318
14690.0 0.0043359
14710.0 0.0043448
14730.0 0.0043575
14750.0 0.0043765
14770.0 0.0044031
14790.0 0.0044356
14810.0 0.0044739
14830.0 0.0045233
14850.0 0.0045793
14870.0 0.0046389
14890.0 0.0047048
14910.0 0.0047761
14930.0 0.0048443
14950.0 0.004907
14970.0 0.0049656
14990.0 0.0050122
15010.0 0.0050436
15030.0 0.0050624
15050.0 0.005069
15070.0 0.0050631
15090.0 0.0050495
15110.0 0.0050305
15130.0 0.005008
15150.0 0.0049837
15170.0 0.0049584
15190.0 0.0049324
15210.0 0.0049064
15230.0 0.0048804
15250.0 0.0048541
15270.0 0.0048278
15290.0 0.0048018
15310.0 0.0047755
15330.0 0.0047493
15350.0 0.0047232
15370.0 0.0046971
15390.0 0.0046708
15410.0 0.0046446
15430.0 0.0046187
15450.0 0.0045926
15470.0 0.0045664
15490.0 0.0045406
15510.0 0.0045148
15530.0 0.0044888
15550.0 0.004463
15570.0 0.0044375
15590.0 0.0044117
15610.0 0.004386
15630.0 0.0043606
15650.0 0.0043352
15670.0 0.0043098
15690.0 0.0042845
15710.0 0.0042595
15730.0 0.0042344
15750.0 0.0042094
15770.0 0.0041846
15790.0 0.0041599
15810.0 0.0041351
15830.0 0.0041105
15850.0 0.0040862
15870.0 0.0040619
15890.0 0.0040376
15910.0 0.0040137
15930.0 0.0039898
15950.0 0.0039658
15970.0 0.0039421
15990.0 0.0039187
16010.0 0.0038952
16030.0 0.0038718
16050.0 0.0038488
16070.0 0.0038258
16090.0 0.0038028
16110.0 0.0037801
16130.0 0.0037576
16150.0 0.003735
16170.0 0.0037127
16190.0 0.0036906
16210.0 0.0036686
16230.0 0.0036466
16250.0 0.003625
16270.0 0.0036035
16290.0 0.003582
16310.0 0.0035607
16330.0 0.0035397
16350.0 0.0035188
16370.0 0.0034978
16390.0 0.0034772
16410.0 0.0034568
16430.0 0.0034364
16450.0 0.0034163
16470.0 0.0033964
16490.0 0.0033765
16510.0 0.0033567
16530.0 0.0033372
16550.0 0.0033179
16570.0 0.0032985
16590.0 0.0032794
16610.0 0.0032606
16630.0 0.0032419
16650.0 0.0032232
16670.0 0.0032049
16690.0 0.0031866
16710.0 0.0031684
16730.0 0.0031504
16750.0 0.0031327
16770.0 0.003115
16790.0 0.0030974
16810.0 0.0030802
16830.0 0.003063
16850.0 0.0030459
16870.0 0.0030291
16890.0 0.0030124
16910.0 0.0029958
16930.0 0.0029793
16950.0 0.0029631
16970.0 0.002947
16990.0 0.002931
17010.0 0.0029152
17030.0 0.0028996
17050.0 0.002884
17070.0 0.0028686
17090.0 0.0028535
17110.0 0.0028384
17130.0 0.0028233
17150.0 0.0028086
17170.0 0.002794
17190.0 0.0027795
17210.0 0.0027651
17230.0 0.002751
17250.0 0.0027369
17270.0 0.0027229
17290.0 0.0027091
17310.0 0.0026955
17330.0 0.0026819
17350.0 0.0026684
17370.0 0.0026553
17390.0 0.0026422
17410.0 0.0026291
17430.0 0.0026163
17450.0 0.0026037
17470.0 0.002591
17490.0 0.0025785
17510.0 0.0025662
17530.0 0.002554
17550.0 0.0025418
17570.0 0.0025299
17590.0 0.0025181
17610.0 0.0025063
17630.0 0.0024947
17650.0 0.0024833
17670.0 0.002472
17690.0 0.0024606
17710.0 0.0024495
17730.0 0.0024386
17750.0 0.0024277
17770.0 0.0024169
17790.0 0.0024063
17810.0 0.0023957
17830.0 0.0023852
17850.0 0.0023749
17870.0 0.0023648
17890.0 0.0023546
17910.0 0.0023445
17930.0 0.0023347
17950.0 0.0023249
17970.0 0.0023152
17990.0 0.0023057
18010.0 0.0022962
18030.0 0.0022867
18050.0 0.0022775
18070.0 0.0022683
18090.0 0.0022592
18110.0 0.0022502
18130.0 0.0022414
18150.0 0.0022326
18170.0 0.0022238
18190.0 0.0022152
18210.0 0.0022068
18230.0 0.0021983
18250.0 0.0021899
18270.0 0.0021817
18290.0 0.0021736
18310.0 0.0021654
18330.0 0.0021575
18350.0 0.0021497
18370.0 0.0021418
18390.0 0.002134
18410.0 0.0021264
18430.0 0.0021189
18450.0 0.0021113
18470.0 0.0021039
18490.0 0.0020966
18510.0 0.0020893
18530.0 0.0020821
18550.0 0.0020751
18570.0 0.0020681
18590.0 0.0020611
18610.0 0.0020542
18630.0 0.0020475
18650.0 0.0020407
18670.0 0.002034
18690.0 0.0020275
18710.0 0.0020209
18730.0 0.0020144
18750.0 0.0020081
18770.0 0.0020018
18790.0 0.0019955
18810.0 0.0019893
18830.0 0.0019832
18850.0 0.0019771
18870.0 0.0019711
18890.0 0.0019652
18910.0 0.0019594
18930.0 0.0019535
18950.0 0.0019478
18970.0 0.0019421
18990.0 0.0019365
19010.0 0.0019308
19030.0 0.0019253
19050.0 0.0019199
19070.0 0.0019144
19090.0 0.0019091
19110.0 0.0019039
19130.0 0.0018986
19150.0 0.0018933
19170.0 0.0018882
19190.0 0.0018832
19210.0 0.001878
19230.0 0.001873
19250.0 0.0018682
19270.0 0.0018633
19290.0 0.0018584
19310.0 0.0018536
19330.0 0.0018489
19350.0 0.0018441
19370.0 0.0018394
19390.0 0.0018349
19410.0 0.0018303
19430.0 0.0018257
19450.0 0.0018213
19470.0 0.0018168
19490.0 0.0018124
19510.0 0.001808
19530.0 0.0018038
19550.0 0.0017994
19570.0 0.0017951
19590.0 0.001791
19610.0 0.0017868
19630.0 0.0017826
19650.0 0.0017786
19670.0 0.0017746
19690.0 0.0017705
19710.0 0.0017665
19730.0 0.0017626
19750.0 0.0017587
19770.0 0.0017547
19790.0 0.0017509
19810.0 0.0017471
19830.0 0.0017432
19850.0 0.0017394
19870.0 0.0017355
19890.0 0.0017312
19910.0 0.0017263
19930.0 0.0017207
19950.0 0.0017137
19970.0 0.0017044
19990.0 0.0016926
20010.0 0.0016786
20030.0 0.0016611
20050.0 0.0016403
20070.0 0.0016175
20090.0 0.001593
20110.0 0.0015653
20130.0 0.0015374
20150.0 0.0015099
20170.0 0.0014815
20190.0 0.0014527
20210.0 0.0014256
20230.0 0.0013991
20250.0 0.0013725
20270.0 0.0013475
20290.0 0.0013245
20310.0 0.0013024
20330.0 0.0012813
20350.0 0.0012634
20370.0 0.0012472
20390.0 0.0012325
20410.0 0.0012202
20430.0 0.0012103
20450.0 0.001202
20470.0 0.0011958
20490.0 0.0011919
20510.0 0.0011898
20530.0 0.0011895
20550.0 0.0011909
20570.0 0.0011936
20590.0 0.0011978
20610.0 0.0012031
20630.0 0.0012091
20650.0 0.0012158
20670.0 0.0012234
20690.0 0.001231
20710.0 0.0012384
20730.0 0.001246
20750.0 0.0012532
20770.0 0.0012596
20790.0 0.0012655
20810.0 0.0012707
20830.0 0.0012749
20850.0 0.0012779
20870.0 0.00128
20890.0 0.0012809
20910.0 0.0012806
20930.0 0.0012792
20950.0 0.0012766
20970.0 0.001273
20990.0 0.0012685
21010.0 0.0012628
21030.0 0.0012563
21050.0 0.0012493
21070.0 0.0012416
21090.0 0.0012331
21110.0 0.0012246
21130.0 0.001216
21150.0 0.0012069
21170.0 0.001198
21190.0 0.0011895
21210.0 0.001181
21230.0 0.0011727
21250.0 0.0011652
21270.0 0.0011583
21290.0 0.001152
21310.0 0.0011465
21330.0 0.001142
21350.0 0.0011382
21370.0 0.0011354
21390.0 0.0011336
21410.0 0.0011327
21430.0 0.0011328
21450.0 0.0011339
21470.0 0.0011358
21490.0 0.0011386
21510.0 0.0011423
21530.0 0.0011466
21550.0 0.0011516
21570.0 0.0011575
21590.0 0.0011638
21610.0 0.0011705
21630.0 0.0011779
21650.0 0.0011859
21670.0 0.0011938
21690.0 0.001202
21710.0 0.0012108
21730.0 0.0012197
21750.0 0.0012284
21770.0 0.0012378
21790.0 0.0012473
21810.0 0.0012564
21830.0 0.0012657
21850.0 0.0012753
21870.0 0.0012846
21890.0 0.0012934
21910.0 0.0013025
21930.0 0.0013114
21950.0 0.0013197
21970.0 0.0013278
21990.0 0.0013358
22010.0 0.001343
22030.0 0.0013496
22050.0 0.0013557
22070.0 0.0013612
22090.0 0.0013656
22110.0 0.0013693
22130.0 0.0013721
22150.0 0.0013738
22170.0 0.0013745
22190.0 0.001374
22210.0 0.0013723
22230.0 0.0013695
22250.0 0.0013654
22270.0 0.00136
22290.0 0.0013535
22310.0 0.001346
22330.0 0.0013368
22350.0 0.0013267
22370.0 0.0013158
22390.0 0.0013037
22410.0 0.0012903
22430.0 0.0012767
22450.0 0.0012625
22470.0 0.0012472
22490.0 0.0012315
22510.0 0.0012161
22530.0 0.0011997
22550.0 0.0011829
22570.0 0.0011668
22590.0 0.0011508
22610.0 0.0011344
22630.0 0.0011186
22650.0 0.0011038
22670.0 0.0010889
22690.0 0.0010743
22710.0 0.0010609
22730.0 0.0010481
22750.0 0.0010352
22770.0 0.0010236
22790.0 0.0010129
22810.0 0.0010025
22830.0 0.00099267
22850.0 0.00098386
22870.0 0.00097552
22890.0 0.00096741
22910.0 0.00096005
22930.0 0.00095331
22950.0 0.0009468
22970.0 0.00094057
22990.0 0.00093514
23010.0 0.00092994
23030.0 0.00092494
23050.0 0.00092037
23070.0 0.00091622
23090.0 0.00091208
23110.0 0.00090825
23130.0 0.00090478
23150.0 0.00090146
23170.0 0.00089823
23190.0 0.00089527
23210.0 0.00089256
23230.0 0.00088989
23250.0 0.00088741
23270.0 0.00088521
23290.0 0.00088318
23310.0 0.00088132
23330.0 0.00087984
23350.0 0.00087867
23370.0 0.0008778
23390.0 0.00087728
23410.0 0.00087713
23430.0 0.0008773
23450.0 0.00087782
23470.0 0.00087861
23490.0 0.00087964
23510.0 0.00088094
23530.0 0.0008824
23550.0 0.0008839
23570.0 0.0008855
23590.0 0.00088717
23610.0 0.00088879
23630.0 0.00089039
23650.0 0.00089204
23670.0 0.00089367
23690.0 0.00089529
23710.0 0.00089704
23730.0 0.00089901
23750.0 0.00090115
23770.0 0.00090362
23790.0 0.00090666
23810.0 0.00091026
23830.0 0.00091442
23850.0 0.00091959
23870.0 0.00092582
23890.0 0.00093275
23910.0 0.00094069
23930.0 0.00094995
23950.0 0.00096004
23970.0 0.00097059
23990.0 0.00098232
24010.0 0.00099477
24030.0 0.0010072
24050.0 0.0010199
24070.0 0.0010334
24090.0 0.0010461
