#lamb flux
1010.0 3.2012e-06
1030.0 3.3631e-06
1050.0 3.5508e-06
1070.0 3.7624e-06
1090.0 4.0031e-06
1110.0 4.2509e-06
1130.0 4.5015e-06
1150.0 4.7651e-06
1170.0 5.0384e-06
1190.0 5.2995e-06
1210.0 5.5657e-06
1230.0 5.8424e-06
1250.0 6.1157e-06
1270.0 6.3836e-06
1290.0 6.6681e-06
1310.0 6.9549e-06
1330.0 7.2331e-06
1350.0 7.5168e-06
1370.0 7.8119e-06
1390.0 8.1031e-06
1410.0 8.3891e-06
1430.0 8.6901e-06
1450.0 8.9941e-06
1470.0 9.2919e-06
1490.0 9.5954e-06
1510.0 9.9171e-06
1530.0 1.0226e-05
1550.0 1.0534e-05
1570.0 1.0854e-05
1590.0 1.1175e-05
1610.0 1.1485e-05
1630.0 1.1805e-05
1650.0 1.2132e-05
1670.0 1.2449e-05
1690.0 1.2762e-05
1710.0 1.3084e-05
1730.0 1.3406e-05
1750.0 1.3707e-05
1770.0 1.4012e-05
1790.0 1.4319e-05
1810.0 1.4611e-05
1830.0 1.4892e-05
1850.0 1.5183e-05
1870.0 1.546e-05
1890.0 1.5719e-05
1910.0 1.5975e-05
1930.0 1.6229e-05
1950.0 1.6461e-05
1970.0 1.6681e-05
1990.0 1.6902e-05
2010.0 1.7109e-05
2030.0 1.7298e-05
2050.0 1.7486e-05
2070.0 1.7674e-05
2090.0 1.7839e-05
2110.0 1.7998e-05
2130.0 1.816e-05
2150.0 1.8313e-05
2170.0 1.8452e-05
2190.0 1.86e-05
2210.0 1.8751e-05
2230.0 1.8893e-05
2250.0 1.9039e-05
2270.0 1.9201e-05
2290.0 1.9363e-05
2310.0 1.9524e-05
2330.0 1.9703e-05
2350.0 1.9897e-05
2370.0 2.0096e-05
2390.0 2.0313e-05
2410.0 2.056e-05
2430.0 2.0817e-05
2450.0 2.1091e-05
2470.0 2.1394e-05
2490.0 2.173e-05
2510.0 2.2099e-05
2530.0 2.2561e-05
2550.0 2.3217e-05
2570.0 2.4188e-05
2590.0 2.5625e-05
2610.0 2.7899e-05
2630.0 3.1164e-05
2650.0 3.5331e-05
2670.0 4.0504e-05
2690.0 4.6593e-05
2710.0 5.2912e-05
2730.0 5.9106e-05
2750.0 6.5279e-05
2770.0 7.0978e-05
2790.0 7.6088e-05
2810.0 8.0936e-05
2830.0 8.5792e-05
2850.0 9.0442e-05
2870.0 9.5183e-05
2890.0 0.00010024
2910.0 0.00010553
2930.0 0.00011092
2950.0 0.00011669
2970.0 0.0001228
2990.0 0.00012903
3010.0 0.00029601
3030.0 0.00031072
3050.0 0.00032545
3070.0 0.00033898
3090.0 0.00035065
3110.0 0.00035754
3130.0 0.00035617
3150.0 0.00034264
3170.0 0.00030908
3190.0 0.0002546
3210.0 0.00017991
3230.0 9.5627e-05
3250.0 0.00018634
3270.0 8.4277e-05
3290.0 0.00029441
3310.0 6.4774e-05
3330.0 6.3184e-05
3350.0 9.1527e-05
3370.0 0.00012464
3390.0 0.00016025
3410.0 0.00019579
3430.0 0.00023311
3450.0 0.00027047
3470.0 0.00030466
3490.0 0.00032733
3510.0 0.00040993
3530.0 0.00056074
3550.0 0.00054636
3570.0 0.00043711
3590.0 0.00063081
3610.0 0.00037144
3630.0 0.00065781
3650.0 0.00077164
3670.0 0.0010101
3690.0 0.00093878
3710.0 0.00060836
3730.0 0.00082806
3750.0 0.00085594
3770.0 0.00089976
3790.0 0.00082979
3810.0 0.0007808
3830.0 0.0012132
3850.0 0.0014164
3870.0 0.0017704
3890.0 0.0016707
3910.0 0.0014656
3930.0 0.0015212
3950.0 0.0016855
3970.0 0.0020715
3990.0 0.0014685
4010.0 0.0008246
4030.0 0.001323
4050.0 0.001615
4070.0 0.0018273
4090.0 0.0014452
4110.0 0.00090322
4130.0 0.0013515
4150.0 0.0012899
4170.0 0.0013044
4190.0 0.0012535
4210.0 0.0016767
4230.0 0.0011405
4250.0 0.0013306
4270.0 0.0013258
4290.0 0.0013071
4310.0 0.0016603
4330.0 0.0017295
4350.0 0.0013201
4370.0 0.0010974
4390.0 0.0014021
4410.0 0.0014659
4430.0 0.0010953
4450.0 0.0010727
4470.0 0.0012985
4490.0 0.00093427
4510.0 0.0012225
4530.0 0.0012943
4550.0 0.0016785
4570.0 0.0024652
4590.0 0.0023301
4610.0 0.001504
4630.0 0.0025872
4650.0 0.0037566
4670.0 0.003477
4690.0 0.0020572
4710.0 0.0022739
4730.0 0.0029499
4750.0 0.0025793
4770.0 0.0019321
4790.0 0.0012628
4810.0 0.0018744
4830.0 0.0021951
4850.0 0.0018769
4870.0 0.00051224
4890.0 0.0020488
4910.0 0.0029122
4930.0 0.0031378
4950.0 0.0030718
4970.0 0.0018071
4990.0 0.0021311
5010.0 0.0026069
5030.0 0.0029497
5050.0 0.0029212
5070.0 0.0020696
5090.0 0.0016684
5110.0 0.0015706
5130.0 0.0014159
5150.0 0.0015762
5170.0 0.0013627
5190.0 0.0017073
5210.0 0.0017139
5230.0 0.0018924
5250.0 0.0023656
5270.0 0.0019087
5290.0 0.0018809
5310.0 0.002893
5330.0 0.003379
5350.0 0.0027611
5370.0 0.0023746
5390.0 0.0027976
5410.0 0.0035689
5430.0 0.003928
5450.0 0.004164
5470.0 0.0041043
5490.0 0.0039964
5510.0 0.0047514
5530.0 0.0049391
5550.0 0.0053296
5570.0 0.00571
5590.0 0.0056628
5610.0 0.0053121
5630.0 0.0051264
5650.0 0.0052707
5670.0 0.0051951
5690.0 0.0043831
5710.0 0.0042961
5730.0 0.0044154
5750.0 0.0048321
5770.0 0.0041435
5790.0 0.0038014
5810.0 0.0038473
5830.0 0.0040962
5850.0 0.0037395
5870.0 0.0037968
5890.0 0.0046067
5910.0 0.0043501
5930.0 0.0034933
5950.0 0.0030249
5970.0 0.0033231
5990.0 0.0030688
6010.0 0.002897
6030.0 0.0029654
6050.0 0.0027457
6070.0 0.0020118
6090.0 0.0018122
6110.0 0.0024292
6130.0 0.0028256
6150.0 0.0029509
6170.0 0.0028217
6190.0 0.0025966
6210.0 0.0025727
6230.0 0.00311
6250.0 0.0028736
6270.0 0.0026236
6290.0 0.0024274
6310.0 0.0022841
6330.0 0.0021624
6350.0 0.0018825
6370.0 0.0018686
6390.0 0.0022167
6410.0 0.0027763
6430.0 0.0032094
6450.0 0.003014
6470.0 0.0029315
6490.0 0.0037152
6510.0 0.004332
6530.0 0.0040827
6550.0 0.0038797
6570.0 0.0039416
6590.0 0.0038373
6610.0 0.0041758
6630.0 0.0038914
6650.0 0.0033661
6670.0 0.0030368
6690.0 0.0030008
6710.0 0.00376
6730.0 0.0033998
6750.0 0.0028069
6770.0 0.0024707
6790.0 0.0026101
6810.0 0.0029794
6830.0 0.0029292
6850.0 0.002623
6870.0 0.0027453
6890.0 0.0027232
6910.0 0.0025619
6930.0 0.0029507
6950.0 0.0027026
6970.0 0.0024809
6990.0 0.002455
7010.0 0.0023845
7030.0 0.0022776
7050.0 0.0022209
7070.0 0.0024718
7090.0 0.0023489
7110.0 0.0019977
7130.0 0.001612
7150.0 0.0014966
7170.0 0.0020213
7190.0 0.0021973
7210.0 0.0020821
7230.0 0.0021545
7250.0 0.0019941
7270.0 0.0018906
7290.0 0.002114
7310.0 0.0024007
7330.0 0.0023661
7350.0 0.0022021
7370.0 0.0020588
7390.0 0.0021153
7410.0 0.0024731
7430.0 0.0027301
7450.0 0.00288
7470.0 0.0028197
7490.0 0.0029971
7510.0 0.0029197
7530.0 0.0028298
7550.0 0.0027951
7570.0 0.0024544
7590.0 0.0024164
7610.0 0.0023322
7630.0 0.0021178
7650.0 0.0022904
7670.0 0.0025052
7690.0 0.0027187
7710.0 0.0030761
7730.0 0.0032583
7750.0 0.0033962
7770.0 0.0034419
7790.0 0.0037807
7810.0 0.0038687
7830.0 0.0034919
7850.0 0.0035161
7870.0 0.0033576
7890.0 0.0035216
7910.0 0.0033344
7930.0 0.0033588
7950.0 0.0028822
7970.0 0.0029401
7990.0 0.0028114
8010.0 0.0029145
8030.0 0.0028983
8050.0 0.0030645
8070.0 0.0029363
8090.0 0.0029465
8110.0 0.0028901
8130.0 0.002884
8150.0 0.0027354
8170.0 0.0026678
8190.0 0.0026434
8210.0 0.0026652
8230.0 0.0023336
8250.0 0.002129
8270.0 0.0018772
8290.0 0.0015843
8310.0 0.0013914
8330.0 0.0011146
8350.0 0.0009203
8370.0 0.00091606
8390.0 0.00089927
8410.0 0.00093721
8430.0 0.0011821
8450.0 0.001275
8470.0 0.0013598
8490.0 0.0015824
8510.0 0.001721
8530.0 0.0019714
8550.0 0.0023305
8570.0 0.0025681
8590.0 0.0027169
8610.0 0.0029852
8630.0 0.0033436
8650.0 0.0034103
8670.0 0.0034639
8690.0 0.0036058
8710.0 0.0035452
8730.0 0.003466
8750.0 0.0032263
8770.0 0.0032298
8790.0 0.003188
8810.0 0.0029327
8830.0 0.0029453
8850.0 0.0027369
8870.0 0.002623
8890.0 0.0023631
8910.0 0.0025879
8930.0 0.0023444
8950.0 0.0023263
8970.0 0.0023547
8990.0 0.002277
9010.0 0.002335
9030.0 0.0022255
9050.0 0.0022138
9070.0 0.002213
9090.0 0.0022118
9110.0 0.0022117
9130.0 0.0022096
9150.0 0.0022066
9170.0 0.0021977
9190.0 0.0021796
9210.0 0.0022109
9230.0 0.0021996
9250.0 0.0021922
9270.0 0.0021855
9290.0 0.0021791
9310.0 0.0021731
9330.0 0.0021671
9350.0 0.0021609
9370.0 0.0021546
9390.0 0.0021482
9410.0 0.0021415
9430.0 0.0021346
9450.0 0.0021274
9470.0 0.0021201
9490.0 0.0021127
9510.0 0.0021051
9530.0 0.0020974
9550.0 0.0020895
9570.0 0.0020816
9590.0 0.0020735
9610.0 0.0020653
9630.0 0.0020571
9650.0 0.0020489
9670.0 0.0020405
9690.0 0.0020321
9710.0 0.0020238
9730.0 0.0020154
9750.0 0.002007
9770.0 0.0019987
9790.0 0.0019903
9810.0 0.001982
9830.0 0.0019737
9850.0 0.0019655
9870.0 0.0019573
9890.0 0.0019492
9910.0 0.0019413
9930.0 0.0019333
9950.0 0.0019213
9970.0 0.0019149
9990.0 0.0019083
10010.0 0.0019016
10030.0 0.0018946
10050.0 0.0018871
10070.0 0.0018768
10090.0 0.0018711
10110.0 0.0018652
10130.0 0.0018592
10150.0 0.0018531
10170.0 0.001847
10190.0 0.0018406
10210.0 0.0018346
10230.0 0.0018288
10250.0 0.0018229
10270.0 0.0018172
10290.0 0.0018119
10310.0 0.0018065
10330.0 0.0018012
10350.0 0.0017962
10370.0 0.0017914
10390.0 0.0017867
10410.0 0.0017821
10430.0 0.0017779
10450.0 0.0017737
10470.0 0.0017696
10490.0 0.0017658
10510.0 0.0017622
10530.0 0.0017585
10550.0 0.0017551
10570.0 0.001752
10590.0 0.0017489
10610.0 0.001746
10630.0 0.0017433
10650.0 0.0017408
10670.0 0.0017383
10690.0 0.0017361
10710.0 0.001734
10730.0 0.001732
10750.0 0.0017301
10770.0 0.0017285
10790.0 0.0017271
10810.0 0.0017256
10830.0 0.0017243
10850.0 0.0017231
10870.0 0.0017216
10890.0 0.0017195
10910.0 0.0017166
10930.0 0.001712
10950.0 0.0017044
10970.0 0.0016932
10990.0 0.0016781
11010.0 0.0016851
11030.0 0.0016587
11050.0 0.0016277
11070.0 0.0015917
11090.0 0.0015499
11110.0 0.0015081
11130.0 0.0014661
11150.0 0.001423
11170.0 0.0013807
11190.0 0.0013419
11210.0 0.001304
11230.0 0.0012674
11250.0 0.0012344
11270.0 0.0012044
11290.0 0.0011757
11310.0 0.0011496
11330.0 0.0011272
11350.0 0.0011063
11370.0 0.0010867
11390.0 0.0010692
11410.0 0.001053
11430.0 0.0010365
11450.0 0.0010207
11470.0 0.0010054
11490.0 0.00098948
11510.0 0.00097246
11530.0 0.00095559
11550.0 0.00093816
11570.0 0.00091916
11590.0 0.00089957
11610.0 0.00087999
11630.0 0.000859
11650.0 0.00083689
11670.0 0.00081555
11690.0 0.00079407
11710.0 0.00077181
11730.0 0.00075005
11750.0 0.00072962
11770.0 0.00070888
11790.0 0.00068856
11810.0 0.00066979
11830.0 0.00065191
11850.0 0.00063394
11870.0 0.00061754
11890.0 0.00060261
11910.0 0.00058799
11930.0 0.00057398
11950.0 0.00056128
11970.0 0.00054905
11990.0 0.00053678
12010.0 0.00052538
12030.0 0.0005147
12050.0 0.00050403
12070.0 0.00049352
12090.0 0.0004842
12110.0 0.00047519
12130.0 0.00046646
12150.0 0.00045868
12170.0 0.00045197
12190.0 0.00044573
12210.0 0.00044078
12230.0 0.00043739
12250.0 0.00043539
12270.0 0.00043497
12290.0 0.0004364
12310.0 0.00043957
12330.0 0.00044463
12350.0 0.00045154
12370.0 0.00045991
12390.0 0.00046983
12410.0 0.00048155
12430.0 0.00049375
12450.0 0.00050647
12470.0 0.00051991
12490.0 0.00053337
12510.0 0.00054609
12530.0 0.00055865
12550.0 0.00057071
12570.0 0.00058157
12590.0 0.00059137
12610.0 0.00060038
12630.0 0.00060822
12650.0 0.00061471
12670.0 0.00062028
12690.0 0.00062485
12710.0 0.00062841
12730.0 0.00063111
12750.0 0.00063293
12770.0 0.00063396
12790.0 0.00063431
12810.0 0.00063391
12830.0 0.00063269
12850.0 0.00063097
12870.0 0.00062862
12890.0 0.00062537
12910.0 0.00062148
12930.0 0.00061711
12950.0 0.00061174
12970.0 0.00060542
12990.0 0.00059878
13010.0 0.00059146
13030.0 0.00058314
13050.0 0.00057439
13070.0 0.00056558
13090.0 0.00055596
13110.0 0.00054598
13130.0 0.00053635
13150.0 0.00052682
13170.0 0.00051704
13190.0 0.00050818
13210.0 0.00050034
13230.0 0.00049305
13250.0 0.00048676
13270.0 0.00048188
13290.0 0.00047806
13310.0 0.00047527
13330.0 0.00047375
13350.0 0.00047326
13370.0 0.00047354
13390.0 0.00047445
13410.0 0.00047571
13430.0 0.00047705
13450.0 0.00047821
13470.0 0.00047894
13490.0 0.0004791
13510.0 0.00047841
13530.0 0.00047682
13550.0 0.00047446
13570.0 0.00047121
13590.0 0.00046704
13610.0 0.00046239
13630.0 0.00045743
13650.0 0.0004519
13670.0 0.00044626
13690.0 0.00044085
13710.0 0.00043546
13730.0 0.00043004
13750.0 0.00042524
13770.0 0.00042077
13790.0 0.00041645
13810.0 0.00041244
13830.0 0.0004088
13850.0 0.00040519
13870.0 0.0004016
13890.0 0.00039816
13910.0 0.00039473
13930.0 0.00039112
13950.0 0.00038746
13970.0 0.00038394
13990.0 0.0003803
14010.0 0.00037662
14030.0 0.00037314
14050.0 0.00036981
14070.0 0.00036652
14090.0 0.00036357
14110.0 0.00036098
14130.0 0.00035867
14150.0 0.00035669
14170.0 0.00035515
14190.0 0.00035396
14210.0 0.00035313
14230.0 0.00035268
14250.0 0.00035256
14270.0 0.00035284
14290.0 0.0003535
14310.0 0.00035443
14330.0 0.00035566
14350.0 0.00035725
14370.0 0.00035903
14390.0 0.0003609
14410.0 0.00036301
14430.0 0.00036522
14450.0 0.00036732
14470.0 0.00036939
14490.0 0.00037151
14510.0 0.00037339
14530.0 0.00037507
14550.0 0.00037673
14570.0 0.00037833
14590.0 0.0003798
14610.0 0.00038137
14630.0 0.0003832
14650.0 0.00038516
14670.0 0.00038738
14690.0 0.00039014
14710.0 0.00039348
14730.0 0.00039707
14750.0 0.00040134
14770.0 0.00040639
14790.0 0.00041185
14810.0 0.00041766
14830.0 0.00042445
14850.0 0.00043152
14870.0 0.0004385
14890.0 0.00044568
14910.0 0.00045293
14930.0 0.00045941
14950.0 0.00046502
14970.0 0.00046993
14990.0 0.0004735
15010.0 0.00047561
15030.0 0.00047652
15050.0 0.00047632
15070.0 0.00047507
15090.0 0.00047318
15110.0 0.00047085
15130.0 0.00046824
15150.0 0.00046551
15170.0 0.00046268
15190.0 0.0004598
15210.0 0.00045693
15230.0 0.00045407
15250.0 0.00045118
15270.0 0.00044829
15290.0 0.00044545
15310.0 0.00044259
15330.0 0.00043972
15350.0 0.00043689
15370.0 0.00043406
15390.0 0.0004312
15410.0 0.00042837
15430.0 0.00042556
15450.0 0.00042275
15470.0 0.00041993
15490.0 0.00041715
15510.0 0.00041439
15530.0 0.0004116
15550.0 0.00040884
15570.0 0.00040612
15590.0 0.00040337
15610.0 0.00040063
15630.0 0.00039793
15650.0 0.00039525
15670.0 0.00039255
15690.0 0.00038988
15710.0 0.00038725
15730.0 0.0003846
15750.0 0.00038197
15770.0 0.00037937
15790.0 0.00037679
15810.0 0.00037418
15830.0 0.00037162
15850.0 0.00036909
15870.0 0.00036656
15890.0 0.00036403
15910.0 0.00036156
15930.0 0.00035908
15950.0 0.0003566
15970.0 0.00035416
15990.0 0.00035174
16010.0 0.00034932
16030.0 0.00034691
16050.0 0.00034456
16070.0 0.0003422
16090.0 0.00033985
16110.0 0.00033753
16130.0 0.00033525
16150.0 0.00033294
16170.0 0.00033066
16190.0 0.00032843
16210.0 0.0003262
16230.0 0.00032397
16250.0 0.00032178
16270.0 0.00031963
16290.0 0.00031745
16310.0 0.00031531
16330.0 0.0003132
16350.0 0.0003111
16370.0 0.00030898
16390.0 0.00030693
16410.0 0.00030489
16430.0 0.00030285
16450.0 0.00030083
16470.0 0.00029886
16490.0 0.00029687
16510.0 0.00029489
16530.0 0.00029296
16550.0 0.00029105
16570.0 0.00028912
16590.0 0.00028722
16610.0 0.00028537
16630.0 0.00028351
16650.0 0.00028166
16670.0 0.00027985
16690.0 0.00027806
16710.0 0.00027625
16730.0 0.00027448
16750.0 0.00027274
16770.0 0.00027099
16790.0 0.00026925
16810.0 0.00026756
16830.0 0.00026589
16850.0 0.0002642
16870.0 0.00026254
16890.0 0.00026092
16910.0 0.00025928
16930.0 0.00025765
16950.0 0.00025607
16970.0 0.00025449
16990.0 0.00025291
17010.0 0.00025137
17030.0 0.00024985
17050.0 0.00024832
17070.0 0.0002468
17090.0 0.00024532
17110.0 0.00024385
17130.0 0.00024236
17150.0 0.00024092
17170.0 0.0002395
17190.0 0.00023807
17210.0 0.00023665
17230.0 0.00023528
17250.0 0.0002339
17270.0 0.00023251
17290.0 0.00023115
17310.0 0.00022982
17330.0 0.00022848
17350.0 0.00022715
17370.0 0.00022587
17390.0 0.00022457
17410.0 0.00022328
17430.0 0.00022202
17450.0 0.00022078
17470.0 0.00021951
17490.0 0.00021827
17510.0 0.00021706
17530.0 0.00021585
17550.0 0.00021464
17570.0 0.00021346
17590.0 0.0002123
17610.0 0.00021112
17630.0 0.00020996
17650.0 0.00020883
17670.0 0.00020769
17690.0 0.00020654
17710.0 0.00020544
17730.0 0.00020435
17750.0 0.00020324
17770.0 0.00020215
17790.0 0.0002011
17810.0 0.00020003
17830.0 0.00019896
17850.0 0.00019792
17870.0 0.00019689
17890.0 0.00019585
17910.0 0.00019482
17930.0 0.00019384
17950.0 0.00019283
17970.0 0.00019183
17990.0 0.00019086
18010.0 0.0001899
18030.0 0.00018891
18050.0 0.00018795
18070.0 0.00018702
18090.0 0.00018607
18110.0 0.00018512
18130.0 0.00018421
18150.0 0.0001833
18170.0 0.00018238
18190.0 0.00018148
18210.0 0.0001806
18230.0 0.0001797
18250.0 0.00017881
18270.0 0.00017795
18290.0 0.00017709
18310.0 0.00017622
18330.0 0.00017537
18350.0 0.00017455
18370.0 0.0001737
18390.0 0.00017286
18410.0 0.00017205
18430.0 0.00017124
18450.0 0.0001704
18470.0 0.00016961
18490.0 0.00016882
18510.0 0.00016803
18530.0 0.00016724
18550.0 0.00016648
18570.0 0.0001657
18590.0 0.00016492
18610.0 0.00016416
18630.0 0.00016342
18650.0 0.00016266
18670.0 0.0001619
18690.0 0.00016119
18710.0 0.00016045
18730.0 0.00015972
18750.0 0.000159
18770.0 0.0001583
18790.0 0.00015757
18810.0 0.00015686
18830.0 0.00015617
18850.0 0.00015548
18870.0 0.00015477
18890.0 0.0001541
18910.0 0.00015343
18930.0 0.00015274
18950.0 0.00015207
18970.0 0.00015142
18990.0 0.00015076
19010.0 0.00015007
19030.0 0.00014944
19050.0 0.0001488
19070.0 0.00014814
19090.0 0.0001475
19110.0 0.00014689
19130.0 0.00014625
19150.0 0.00014561
19170.0 0.000145
19190.0 0.00014439
19210.0 0.00014376
19230.0 0.00014314
19250.0 0.00014255
19270.0 0.00014195
19290.0 0.00014134
19310.0 0.00014076
19330.0 0.00014018
19350.0 0.00013956
19370.0 0.00013898
19390.0 0.00013841
19410.0 0.00013783
19430.0 0.00013724
19450.0 0.00013669
19470.0 0.00013613
19490.0 0.00013555
19510.0 0.000135
19530.0 0.00013445
19550.0 0.00013388
19570.0 0.00013332
19590.0 0.00013278
19610.0 0.00013224
19630.0 0.00013169
19650.0 0.00013115
19670.0 0.00013063
19690.0 0.00013009
19710.0 0.00012955
19730.0 0.00012903
19750.0 0.00012851
19770.0 0.00012796
19790.0 0.00012745
19810.0 0.00012694
19830.0 0.00012642
19850.0 0.00012589
19870.0 0.00012537
19890.0 0.00012482
19910.0 0.00012419
19930.0 0.00012352
19950.0 0.00012273
19970.0 0.00012175
19990.0 0.00012055
20010.0 0.00011919
20030.0 0.00011755
20050.0 0.00011564
20070.0 0.00011361
20090.0 0.00011146
20110.0 0.00010909
20130.0 0.00010676
20150.0 0.00010451
20170.0 0.00010224
20190.0 9.9999e-05
20210.0 9.7942e-05
20230.0 9.5984e-05
20250.0 9.4066e-05
20270.0 9.2335e-05
20290.0 9.08e-05
20310.0 8.9386e-05
20330.0 8.8116e-05
20350.0 8.7127e-05
20370.0 8.6315e-05
20390.0 8.5689e-05
20410.0 8.5293e-05
20430.0 8.5117e-05
20450.0 8.5146e-05
20470.0 8.5404e-05
20490.0 8.5864e-05
20510.0 8.6522e-05
20530.0 8.7401e-05
20550.0 8.844e-05
20570.0 8.9593e-05
20590.0 9.0923e-05
20610.0 9.2369e-05
20630.0 9.3845e-05
20650.0 9.5387e-05
20670.0 9.7029e-05
20690.0 9.8592e-05
20710.0 0.00010009
20730.0 0.00010158
20750.0 0.00010298
20770.0 0.00010421
20790.0 0.00010535
20810.0 0.00010639
20830.0 0.00010726
20850.0 0.00010799
20870.0 0.00010862
20890.0 0.00010912
20910.0 0.00010949
20930.0 0.00010977
20950.0 0.00010996
20970.0 0.00011007
20990.0 0.00011011
21010.0 0.00011007
21030.0 0.00010997
21050.0 0.00010982
21070.0 0.00010961
21090.0 0.00010932
21110.0 0.00010899
21130.0 0.00010861
21150.0 0.00010817
21170.0 0.00010769
21190.0 0.0001072
21210.0 0.00010666
21230.0 0.0001061
21250.0 0.00010555
21270.0 0.00010502
21290.0 0.00010449
21310.0 0.00010401
21330.0 0.00010359
21350.0 0.0001032
21370.0 0.00010287
21390.0 0.00010262
21410.0 0.00010245
21430.0 0.00010234
21450.0 0.00010232
21470.0 0.00010238
21490.0 0.00010251
21510.0 0.00010272
21530.0 0.00010299
21550.0 0.00010333
21570.0 0.00010375
21590.0 0.00010422
21610.0 0.00010473
21630.0 0.00010531
21650.0 0.00010595
21670.0 0.00010661
21690.0 0.00010732
21710.0 0.00010809
21730.0 0.0001089
21750.0 0.00010972
21770.0 0.00011064
21790.0 0.0001116
21810.0 0.00011257
21830.0 0.00011359
21850.0 0.00011469
21870.0 0.00011581
21890.0 0.00011693
21910.0 0.00011813
21930.0 0.00011936
21950.0 0.00012057
21970.0 0.00012181
21990.0 0.00012311
22010.0 0.00012435
22030.0 0.00012555
22050.0 0.00012675
22070.0 0.0001279
22090.0 0.00012894
22110.0 0.00012994
22130.0 0.00013085
22150.0 0.00013163
22170.0 0.00013228
22190.0 0.00013282
22210.0 0.00013319
22230.0 0.00013339
22250.0 0.00013342
22270.0 0.00013327
22290.0 0.00013293
22310.0 0.00013243
22330.0 0.0001317
22350.0 0.0001308
22370.0 0.00012975
22390.0 0.00012851
22410.0 0.00012706
22430.0 0.00012553
22450.0 0.00012388
22470.0 0.00012206
22490.0 0.00012015
22510.0 0.00011824
22530.0 0.00011618
22550.0 0.00011404
22570.0 0.00011198
22590.0 0.0001099
22610.0 0.00010777
22630.0 0.0001057
22650.0 0.00010375
22670.0 0.00010179
22690.0 9.9867e-05
22710.0 9.8087e-05
22730.0 9.6388e-05
22750.0 9.4681e-05
22770.0 9.3133e-05
22790.0 9.172e-05
22810.0 9.0356e-05
22830.0 8.9075e-05
22850.0 8.7943e-05
22870.0 8.6888e-05
22890.0 8.589e-05
22910.0 8.5016e-05
22930.0 8.4253e-05
22950.0 8.356e-05
22970.0 8.2951e-05
22990.0 8.2479e-05
23010.0 8.2088e-05
