#lamb flux
1010.0 5.0272e-07
1030.0 5.4245e-07
1050.0 5.8824e-07
1070.0 6.3982e-07
1090.0 6.9842e-07
1110.0 7.5859e-07
1130.0 8.1923e-07
1150.0 8.8282e-07
1170.0 9.4851e-07
1190.0 1.0109e-06
1210.0 1.0743e-06
1230.0 1.1399e-06
1250.0 1.2043e-06
1270.0 1.267e-06
1290.0 1.3333e-06
1310.0 1.3998e-06
1330.0 1.4638e-06
1350.0 1.5286e-06
1370.0 1.5957e-06
1390.0 1.6613e-06
1410.0 1.7252e-06
1430.0 1.7922e-06
1450.0 1.8593e-06
1470.0 1.9244e-06
1490.0 1.9904e-06
1510.0 2.0602e-06
1530.0 2.1266e-06
1550.0 2.1923e-06
1570.0 2.2603e-06
1590.0 2.3285e-06
1610.0 2.3937e-06
1630.0 2.461e-06
1650.0 2.53e-06
1670.0 2.5967e-06
1690.0 2.6625e-06
1710.0 2.7306e-06
1730.0 2.7988e-06
1750.0 2.8628e-06
1770.0 2.9283e-06
1790.0 2.9947e-06
1810.0 3.0585e-06
1830.0 3.1206e-06
1850.0 3.186e-06
1870.0 3.249e-06
1890.0 3.309e-06
1910.0 3.3695e-06
1930.0 3.4306e-06
1950.0 3.4878e-06
1970.0 3.5433e-06
1990.0 3.6001e-06
2010.0 3.6547e-06
2030.0 3.706e-06
2050.0 3.758e-06
2070.0 3.8104e-06
2090.0 3.8579e-06
2110.0 3.9041e-06
2130.0 3.9509e-06
2150.0 3.9953e-06
2170.0 4.0359e-06
2190.0 4.0776e-06
2210.0 4.1185e-06
2230.0 4.1558e-06
2250.0 4.1919e-06
2270.0 4.2294e-06
2290.0 4.264e-06
2310.0 4.2953e-06
2330.0 4.3274e-06
2350.0 4.3591e-06
2370.0 4.3876e-06
2390.0 4.4158e-06
2410.0 4.4461e-06
2430.0 4.4742e-06
2450.0 4.5011e-06
2470.0 4.5309e-06
2490.0 4.5659e-06
2510.0 4.6075e-06
2530.0 4.6732e-06
2550.0 4.7915e-06
2570.0 4.9922e-06
2590.0 5.3102e-06
2610.0 5.8355e-06
2630.0 6.5907e-06
2650.0 7.5347e-06
2670.0 8.677e-06
2690.0 9.9754e-06
2710.0 1.1251e-05
2730.0 1.2418e-05
2750.0 1.3496e-05
2770.0 1.4386e-05
2790.0 1.5081e-05
2810.0 1.5657e-05
2830.0 1.6174e-05
2850.0 1.6609e-05
2870.0 1.7025e-05
2890.0 1.7459e-05
2910.0 1.7901e-05
2930.0 1.8332e-05
2950.0 1.8795e-05
2970.0 1.9282e-05
2990.0 1.9763e-05
3010.0 0.00011217
3030.0 0.000115
3050.0 0.00011779
3070.0 0.00012022
3090.0 0.00012225
3110.0 0.00012329
3130.0 0.00012261
3150.0 0.00011954
3170.0 0.00011269
3190.0 0.00010198
3210.0 8.7734e-05
3230.0 7.1872e-05
3250.0 8.641e-05
3270.0 6.9705e-05
3290.0 0.00010576
3310.0 6.7619e-05
3330.0 6.8019e-05
3350.0 7.3947e-05
3370.0 8.125e-05
3390.0 8.9432e-05
3410.0 9.7697e-05
3430.0 0.00010644
3450.0 0.00011541
3470.0 0.00012386
3490.0 0.00013043
3510.0 0.00014735
3530.0 0.00017532
3550.0 0.00017417
3570.0 0.0001566
3590.0 0.00019104
3610.0 0.00015063
3630.0 0.00020439
3650.0 0.00022958
3670.0 0.00027293
3690.0 0.00025915
3710.0 0.0001984
3730.0 0.00023109
3750.0 0.00023394
3770.0 0.00025363
3790.0 0.00026113
3810.0 0.00028907
3830.0 0.00042756
3850.0 0.00053617
3870.0 0.00064666
3890.0 0.00065422
3910.0 0.0006104
3930.0 0.00061412
3950.0 0.00064809
3970.0 0.00063551
3990.0 0.0003857
4010.0 0.00023459
4030.0 0.0004095
4050.0 0.00056012
4070.0 0.00055278
4090.0 0.00034302
4110.0 0.00024583
4130.0 0.00041475
4150.0 0.00045363
4170.0 0.00038918
4190.0 0.00033274
4210.0 0.00048229
4230.0 0.0004099
4250.0 0.00040816
4270.0 0.00040545
4290.0 0.00036948
4310.0 0.00046086
4330.0 0.00052121
4350.0 0.00049984
4370.0 0.0004458
4390.0 0.00049286
4410.0 0.0004788
4430.0 0.00035451
4450.0 0.00029108
4470.0 0.00035511
4490.0 0.00031038
4510.0 0.00044777
4530.0 0.00046069
4550.0 0.00049083
4570.0 0.00064086
4590.0 0.00070107
4610.0 0.00073567
4630.0 0.0010345
4650.0 0.0012124
4670.0 0.0012054
4690.0 0.0010556
4710.0 0.0010661
4730.0 0.0010169
4750.0 0.000777
4770.0 0.00061779
4790.0 0.00045872
4810.0 0.00053626
4830.0 0.00062509
4850.0 0.00059811
4870.0 0.00043506
4890.0 0.0007151
4910.0 0.00080282
4930.0 0.000875
4950.0 0.00098244
4970.0 0.0008984
4990.0 0.0010258
5010.0 0.0010987
5030.0 0.0010665
5050.0 0.00090208
5070.0 0.000645
5090.0 0.00053547
5110.0 0.00053516
5130.0 0.00054323
5150.0 0.00052817
5170.0 0.0004958
5190.0 0.00054523
5210.0 0.00055978
5230.0 0.00061874
5250.0 0.00068636
5270.0 0.00062294
5290.0 0.00069766
5310.0 0.00092522
5330.0 0.0010313
5350.0 0.00092974
5370.0 0.00090198
5390.0 0.0010008
5410.0 0.001066
5430.0 0.0010725
5450.0 0.0011214
5470.0 0.0011965
5490.0 0.0013551
5510.0 0.0016242
5530.0 0.00169
5550.0 0.0017205
5570.0 0.0017365
5590.0 0.0016811
5610.0 0.0015849
5630.0 0.0015788
5650.0 0.0016393
5670.0 0.0015899
5690.0 0.0014115
5710.0 0.0013965
5730.0 0.0013301
5750.0 0.0012591
5770.0 0.001107
5790.0 0.0011307
5810.0 0.0011898
5830.0 0.0013036
5850.0 0.0012591
5870.0 0.0012435
5890.0 0.00134
5910.0 0.0012403
5930.0 0.0010979
5950.0 0.0010631
5970.0 0.001128
5990.0 0.001004
6010.0 0.00087234
6030.0 0.00079275
6050.0 0.00071963
6070.0 0.00063057
6090.0 0.00064905
6110.0 0.00075749
6130.0 0.00079288
6150.0 0.00080679
6170.0 0.00082165
6190.0 0.00084715
6210.0 0.0009442
6230.0 0.0011183
6250.0 0.0010377
6270.0 0.00091557
6290.0 0.00080507
6310.0 0.00068804
6330.0 0.00061721
6350.0 0.000578
6370.0 0.00060615
6390.0 0.00068533
6410.0 0.00083289
6430.0 0.001012
6450.0 0.0011201
6470.0 0.0012031
6490.0 0.0013963
6510.0 0.0015498
6530.0 0.0014908
6550.0 0.0014216
6570.0 0.0014376
6590.0 0.0014328
6610.0 0.0014529
6630.0 0.001363
6650.0 0.0012122
6670.0 0.0011535
6690.0 0.0011358
6710.0 0.0012148
6730.0 0.0010677
6750.0 0.00089988
6770.0 0.00085825
6790.0 0.00091458
6810.0 0.0010351
6830.0 0.0010435
6850.0 0.00094957
6870.0 0.00095951
6890.0 0.00094974
6910.0 0.00089356
6930.0 0.0009347
6950.0 0.0008983
6970.0 0.00086792
6990.0 0.00088232
7010.0 0.00092341
7030.0 0.00090715
7050.0 0.00084428
7070.0 0.00084245
7090.0 0.00075859
7110.0 0.00065049
7130.0 0.0006125
7150.0 0.00063646
7170.0 0.00072798
7190.0 0.00074488
7210.0 0.00071639
7230.0 0.00077435
7250.0 0.00080685
7270.0 0.00081995
7290.0 0.00085208
7310.0 0.00087912
7330.0 0.00083846
7350.0 0.00077757
7370.0 0.0007204
7390.0 0.00070902
7410.0 0.00079062
7430.0 0.00090849
7450.0 0.00098677
7470.0 0.0010536
7490.0 0.0012115
7510.0 0.0012001
7530.0 0.0010215
7550.0 0.00091066
7570.0 0.00077031
7590.0 0.00069441
7610.0 0.00067343
7630.0 0.00064885
7650.0 0.00069883
7670.0 0.00078799
7690.0 0.00086218
7710.0 0.00098453
7730.0 0.0010236
7750.0 0.0010602
7770.0 0.0011285
7790.0 0.0011923
7810.0 0.001181
7830.0 0.0010725
7850.0 0.0010692
7870.0 0.0010384
7890.0 0.0010172
7910.0 0.00094849
7930.0 0.00091473
7950.0 0.0007627
7970.0 0.00074598
7990.0 0.00073788
8010.0 0.00084098
8030.0 0.0008403
8050.0 0.00089002
8070.0 0.00086102
8090.0 0.00086376
8110.0 0.00084976
8130.0 0.00082552
8150.0 0.00076812
8170.0 0.00075809
8190.0 0.00076168
8210.0 0.00076928
8230.0 0.0006842
8250.0 0.00063005
8270.0 0.00055592
8290.0 0.00046993
8310.0 0.00040291
8330.0 0.00030963
8350.0 0.00024451
8370.0 0.00023037
8390.0 0.00022899
8410.0 0.0002478
8430.0 0.00031871
8450.0 0.00034989
8470.0 0.00037795
8490.0 0.00043648
8510.0 0.00047406
8530.0 0.00053343
8550.0 0.00063096
8570.0 0.00069832
8590.0 0.00073919
8610.0 0.00083205
8630.0 0.00095554
8650.0 0.00098772
8670.0 0.0010092
8690.0 0.0010343
8710.0 0.0010105
8730.0 0.00097179
8750.0 0.00089482
8770.0 0.00089036
8790.0 0.00087212
8810.0 0.00080302
8830.0 0.00079067
8850.0 0.00071006
8870.0 0.00066957
8890.0 0.00060327
8910.0 0.00067538
8930.0 0.00061692
8950.0 0.00062326
8970.0 0.00063823
8990.0 0.00062406
9010.0 0.00063761
9030.0 0.00060631
9050.0 0.00060382
9070.0 0.00060437
9090.0 0.00060485
9110.0 0.00060576
9130.0 0.00060613
9150.0 0.00060622
9170.0 0.00060487
9190.0 0.00060149
9210.0 0.00061052
9230.0 0.00060855
9250.0 0.00060765
9270.0 0.00060701
9290.0 0.00060654
9310.0 0.00060615
9330.0 0.00060582
9350.0 0.00060552
9370.0 0.00060521
9390.0 0.00060486
9410.0 0.0006045
9430.0 0.00060415
9450.0 0.00060373
9470.0 0.0006033
9490.0 0.00060287
9510.0 0.00060242
9530.0 0.00060192
9550.0 0.00060147
9570.0 0.00060101
9590.0 0.00060051
9610.0 0.00060003
9630.0 0.00059957
9650.0 0.00059911
9670.0 0.00059861
9690.0 0.00059816
9710.0 0.00059773
9730.0 0.00059728
9750.0 0.00059685
9770.0 0.0005965
9790.0 0.00059611
9810.0 0.00059572
9830.0 0.0005954
9850.0 0.0005951
9870.0 0.00059478
9890.0 0.0005945
9910.0 0.00059428
9930.0 0.00059405
9950.0 0.00059315
9970.0 0.00059321
9990.0 0.00059329
10010.0 0.00059328
10030.0 0.00059328
10050.0 0.00059306
10070.0 0.00059156
10090.0 0.00059208
10110.0 0.0005926
10130.0 0.00059299
10150.0 0.00059332
10170.0 0.00059357
10190.0 0.00059376
10210.0 0.00059399
10230.0 0.00059424
10250.0 0.00059447
10270.0 0.00059472
10290.0 0.00059504
10310.0 0.00059534
10330.0 0.00059564
10350.0 0.00059601
10370.0 0.0005964
10390.0 0.00059678
10410.0 0.00059719
10430.0 0.00059765
10450.0 0.0005981
10470.0 0.00059855
10490.0 0.00059905
10510.0 0.00059956
10530.0 0.00060004
10550.0 0.00060056
10570.0 0.00060111
10590.0 0.00060165
10610.0 0.00060219
10630.0 0.00060277
10650.0 0.00060335
10670.0 0.0006039
10690.0 0.00060448
10710.0 0.00060508
10730.0 0.00060566
10750.0 0.00060623
10770.0 0.00060684
10790.0 0.00060743
10810.0 0.000608
10830.0 0.00060856
10850.0 0.00060908
10870.0 0.00060942
10890.0 0.0006095
10910.0 0.00060914
10930.0 0.000608
10950.0 0.00060553
10970.0 0.00060148
10990.0 0.00059569
11010.0 0.00060929
11030.0 0.00059763
11050.0 0.00058408
11070.0 0.00056846
11090.0 0.0005504
11110.0 0.00053246
11130.0 0.00051456
11150.0 0.00049629
11170.0 0.00047862
11190.0 0.00046265
11210.0 0.00044736
11230.0 0.00043298
11250.0 0.00042043
11270.0 0.0004094
11290.0 0.00039927
11310.0 0.00039042
11330.0 0.0003831
11350.0 0.00037641
11370.0 0.00037022
11390.0 0.00036462
11410.0 0.00035928
11430.0 0.0003536
11450.0 0.0003478
11470.0 0.00034185
11490.0 0.00033536
11510.0 0.00032818
11530.0 0.00032087
11550.0 0.00031324
11570.0 0.00030499
11590.0 0.0002966
11610.0 0.00028835
11630.0 0.00027978
11650.0 0.00027108
11670.0 0.00026294
11690.0 0.00025503
11710.0 0.00024714
11730.0 0.00023967
11750.0 0.00023281
11770.0 0.00022602
11790.0 0.00021948
11810.0 0.00021346
11830.0 0.00020772
11850.0 0.00020193
11870.0 0.00019652
11890.0 0.00019144
11910.0 0.00018634
11930.0 0.00018126
11950.0 0.00017646
11970.0 0.00017166
11990.0 0.00016672
12010.0 0.00016195
12030.0 0.00015735
12050.0 0.00015271
12070.0 0.00014811
12090.0 0.00014396
12110.0 0.00013998
12130.0 0.0001362
12150.0 0.00013288
12170.0 0.00013007
12190.0 0.0001276
12210.0 0.00012576
12230.0 0.0001246
12250.0 0.00012408
12270.0 0.00012426
12290.0 0.00012516
12310.0 0.00012668
12330.0 0.00012892
12350.0 0.00013177
12370.0 0.00013502
12390.0 0.00013872
12410.0 0.00014294
12430.0 0.0001471
12450.0 0.00015126
12470.0 0.00015548
12490.0 0.00015951
12510.0 0.00016309
12530.0 0.00016645
12550.0 0.00016947
12570.0 0.00017195
12590.0 0.00017396
12610.0 0.00017558
12630.0 0.00017671
12650.0 0.00017736
12670.0 0.00017765
12690.0 0.00017756
12710.0 0.00017714
12730.0 0.00017644
12750.0 0.00017543
12770.0 0.0001742
12790.0 0.00017281
12810.0 0.0001712
12830.0 0.00016936
12850.0 0.00016744
12870.0 0.00016535
12890.0 0.00016301
12910.0 0.00016051
12930.0 0.0001579
12950.0 0.00015498
12970.0 0.00015177
12990.0 0.00014851
13010.0 0.00014507
13030.0 0.00014134
13050.0 0.00013755
13070.0 0.00013384
13090.0 0.00012995
13110.0 0.00012608
13130.0 0.00012245
13150.0 0.000119
13170.0 0.00011562
13190.0 0.00011267
13210.0 0.00011016
13230.0 0.00010794
13250.0 0.00010613
13270.0 0.00010478
13290.0 0.00010381
13310.0 0.00010317
13330.0 0.0001029
13350.0 0.00010289
13370.0 0.00010309
13390.0 0.00010344
13410.0 0.00010384
13430.0 0.00010424
13450.0 0.00010458
13470.0 0.00010481
13490.0 0.00010489
13510.0 0.0001048
13530.0 0.00010453
13550.0 0.0001041
13570.0 0.00010353
13590.0 0.00010283
13610.0 0.00010207
13630.0 0.0001013
13650.0 0.00010049
13670.0 9.9704e-05
13690.0 9.8995e-05
13710.0 9.8338e-05
13730.0 9.7728e-05
13750.0 9.7219e-05
13770.0 9.6767e-05
13790.0 9.6345e-05
13810.0 9.5946e-05
13830.0 9.5558e-05
13850.0 9.5136e-05
13870.0 9.4659e-05
13890.0 9.4133e-05
13910.0 9.3541e-05
13930.0 9.285e-05
13950.0 9.2087e-05
13970.0 9.13e-05
13990.0 9.045e-05
14010.0 8.9567e-05
14030.0 8.8714e-05
14050.0 8.7892e-05
14070.0 8.7082e-05
14090.0 8.6362e-05
14110.0 8.5736e-05
14130.0 8.5186e-05
14150.0 8.4723e-05
14170.0 8.4367e-05
14190.0 8.4095e-05
14210.0 8.3906e-05
14230.0 8.3804e-05
14250.0 8.378e-05
14270.0 8.3846e-05
14290.0 8.4008e-05
14310.0 8.4243e-05
14330.0 8.4567e-05
14350.0 8.4997e-05
14370.0 8.5503e-05
14390.0 8.606e-05
14410.0 8.6715e-05
14430.0 8.7434e-05
14450.0 8.8167e-05
14470.0 8.8936e-05
14490.0 8.978e-05
14510.0 9.0611e-05
14530.0 9.1437e-05
14550.0 9.2333e-05
14570.0 9.3286e-05
14590.0 9.4259e-05
14610.0 9.534e-05
14630.0 9.6591e-05
14650.0 9.7938e-05
14670.0 9.9413e-05
14690.0 0.00010112
14710.0 0.00010306
14730.0 0.00010505
14750.0 0.00010725
14770.0 0.00010969
14790.0 0.00011219
14810.0 0.00011471
14830.0 0.00011746
14850.0 0.00012017
14870.0 0.00012272
14890.0 0.0001252
14910.0 0.00012757
14930.0 0.0001296
14950.0 0.00013131
14970.0 0.00013274
14990.0 0.00013378
15010.0 0.00013442
15030.0 0.00013475
15050.0 0.00013479
15070.0 0.0001346
15090.0 0.00013425
15110.0 0.0001338
15130.0 0.0001333
15150.0 0.00013277
15170.0 0.00013222
15190.0 0.00013166
15210.0 0.0001311
15230.0 0.00013055
15250.0 0.00012999
15270.0 0.00012943
15290.0 0.00012889
15310.0 0.00012835
15330.0 0.00012779
15350.0 0.00012726
15370.0 0.00012672
15390.0 0.00012617
15410.0 0.00012563
15430.0 0.0001251
15450.0 0.00012457
15470.0 0.00012403
15490.0 0.00012351
15510.0 0.00012299
15530.0 0.00012246
15550.0 0.00012194
15570.0 0.00012143
15590.0 0.0001209
15610.0 0.00012038
15630.0 0.00011987
15650.0 0.00011937
15670.0 0.00011885
15690.0 0.00011835
15710.0 0.00011785
15730.0 0.00011735
15750.0 0.00011684
15770.0 0.00011635
15790.0 0.00011586
15810.0 0.00011536
15830.0 0.00011487
15850.0 0.00011439
15870.0 0.0001139
15890.0 0.00011341
15910.0 0.00011294
15930.0 0.00011246
15950.0 0.00011198
15970.0 0.0001115
15990.0 0.00011104
16010.0 0.00011056
16030.0 0.00011008
16050.0 0.00010963
16070.0 0.00010916
16090.0 0.00010869
16110.0 0.00010824
16130.0 0.00010779
16150.0 0.00010732
16170.0 0.00010686
16190.0 0.00010641
16210.0 0.00010596
16230.0 0.0001055
16250.0 0.00010506
16270.0 0.00010462
16290.0 0.00010417
16310.0 0.00010372
16330.0 0.00010329
16350.0 0.00010285
16370.0 0.00010239
16390.0 0.00010196
16410.0 0.00010153
16430.0 0.00010109
16450.0 0.00010066
16470.0 0.00010024
16490.0 9.9801e-05
16510.0 9.9365e-05
16530.0 9.8941e-05
16550.0 9.852e-05
16570.0 9.8086e-05
16590.0 9.7657e-05
16610.0 9.7245e-05
16630.0 9.6822e-05
16650.0 9.6397e-05
16670.0 9.5984e-05
16690.0 9.5571e-05
16710.0 9.5142e-05
16730.0 9.4725e-05
16750.0 9.4317e-05
16770.0 9.39e-05
16790.0 9.3478e-05
16810.0 9.3073e-05
16830.0 9.2667e-05
16850.0 9.2249e-05
16870.0 9.184e-05
16890.0 9.144e-05
16910.0 9.1026e-05
16930.0 9.0608e-05
16950.0 9.0209e-05
16970.0 8.9806e-05
16990.0 8.9394e-05
17010.0 8.8991e-05
17030.0 8.8597e-05
17050.0 8.8189e-05
17070.0 8.7781e-05
17090.0 8.7386e-05
17110.0 8.6987e-05
17130.0 8.6574e-05
17150.0 8.6175e-05
17170.0 8.5784e-05
17190.0 8.5381e-05
17210.0 8.4979e-05
17230.0 8.4591e-05
17250.0 8.4194e-05
17270.0 8.3787e-05
17290.0 8.3393e-05
17310.0 8.3003e-05
17330.0 8.2602e-05
17350.0 8.22e-05
17370.0 8.1816e-05
17390.0 8.1423e-05
17410.0 8.1024e-05
17430.0 8.0634e-05
17450.0 8.025e-05
17470.0 7.9846e-05
17490.0 7.945e-05
17510.0 7.9066e-05
17530.0 7.8675e-05
17550.0 7.8277e-05
17570.0 7.7892e-05
17590.0 7.751e-05
17610.0 7.7114e-05
17630.0 7.6723e-05
17650.0 7.6342e-05
17670.0 7.5953e-05
17690.0 7.5551e-05
17710.0 7.5171e-05
17730.0 7.4789e-05
17750.0 7.4397e-05
17770.0 7.401e-05
17790.0 7.3636e-05
17810.0 7.3246e-05
17830.0 7.2854e-05
17850.0 7.2474e-05
17870.0 7.2094e-05
17890.0 7.1702e-05
17910.0 7.1315e-05
17930.0 7.0943e-05
17950.0 7.0559e-05
17970.0 7.0172e-05
17990.0 6.9798e-05
18010.0 6.9422e-05
18030.0 6.9029e-05
18050.0 6.8649e-05
18070.0 6.8276e-05
18090.0 6.7894e-05
18110.0 6.7508e-05
18130.0 6.7139e-05
18150.0 6.6765e-05
18170.0 6.6382e-05
18190.0 6.6006e-05
18210.0 6.5638e-05
18230.0 6.5256e-05
18250.0 6.4873e-05
18270.0 6.4506e-05
18290.0 6.4135e-05
18310.0 6.3755e-05
18330.0 6.3384e-05
18350.0 6.3022e-05
18370.0 6.2644e-05
18390.0 6.2269e-05
18410.0 6.1905e-05
18430.0 6.1537e-05
18450.0 6.1156e-05
18470.0 6.079e-05
18490.0 6.043e-05
18510.0 6.0059e-05
18530.0 5.969e-05
18550.0 5.9334e-05
18570.0 5.8968e-05
18590.0 5.8594e-05
18610.0 5.8233e-05
18630.0 5.7875e-05
18650.0 5.7507e-05
18670.0 5.714e-05
18690.0 5.6789e-05
18710.0 5.643e-05
18730.0 5.6064e-05
18750.0 5.571e-05
18770.0 5.536e-05
18790.0 5.4991e-05
18810.0 5.4631e-05
18830.0 5.4283e-05
18850.0 5.3928e-05
18870.0 5.3566e-05
18890.0 5.3219e-05
18910.0 5.2873e-05
18930.0 5.2514e-05
18950.0 5.2162e-05
18970.0 5.1819e-05
18990.0 5.1469e-05
19010.0 5.1107e-05
19030.0 5.0767e-05
19050.0 5.0425e-05
19070.0 5.0074e-05
19090.0 4.9728e-05
19110.0 4.9395e-05
19130.0 4.9046e-05
19150.0 4.8697e-05
19170.0 4.836e-05
19190.0 4.8023e-05
19210.0 4.7675e-05
19230.0 4.7333e-05
19250.0 4.7005e-05
19270.0 4.6666e-05
19290.0 4.6325e-05
19310.0 4.5997e-05
19330.0 4.5666e-05
19350.0 4.532e-05
19370.0 4.4988e-05
19390.0 4.4663e-05
19410.0 4.4329e-05
19430.0 4.3993e-05
19450.0 4.3672e-05
19470.0 4.3347e-05
19490.0 4.3013e-05
19510.0 4.2688e-05
19530.0 4.237e-05
19550.0 4.2038e-05
19570.0 4.1707e-05
19590.0 4.1392e-05
19610.0 4.1072e-05
19630.0 4.0745e-05
19650.0 4.0427e-05
19670.0 4.0117e-05
19690.0 3.9792e-05
19710.0 3.9471e-05
19730.0 3.9161e-05
19750.0 3.8846e-05
19770.0 3.8521e-05
19790.0 3.821e-05
19810.0 3.7904e-05
19830.0 3.7586e-05
19850.0 3.7269e-05
19870.0 3.6959e-05
19890.0 3.663e-05
19910.0 3.6273e-05
19930.0 3.5899e-05
19950.0 3.5483e-05
19970.0 3.499e-05
19990.0 3.4419e-05
20010.0 3.3796e-05
20030.0 3.3075e-05
20050.0 3.2273e-05
20070.0 3.1449e-05
20090.0 3.0613e-05
20110.0 2.9728e-05
20130.0 2.8896e-05
20150.0 2.8131e-05
20170.0 2.7397e-05
20190.0 2.6712e-05
20210.0 2.6116e-05
20230.0 2.5582e-05
20250.0 2.509e-05
20270.0 2.4675e-05
20290.0 2.433e-05
20310.0 2.4037e-05
20330.0 2.3798e-05
20350.0 2.3632e-05
20370.0 2.3519e-05
20390.0 2.3461e-05
20410.0 2.346e-05
20430.0 2.3511e-05
20450.0 2.3622e-05
20470.0 2.3792e-05
20490.0 2.4011e-05
20510.0 2.4284e-05
20530.0 2.4622e-05
20550.0 2.5003e-05
20570.0 2.5414e-05
20590.0 2.5881e-05
20610.0 2.6385e-05
20630.0 2.6894e-05
20650.0 2.7426e-05
20670.0 2.7992e-05
20690.0 2.853e-05
20710.0 2.9048e-05
20730.0 2.9564e-05
20750.0 3.0055e-05
20770.0 3.0493e-05
20790.0 3.0909e-05
20810.0 3.1304e-05
20830.0 3.1655e-05
20850.0 3.1975e-05
20870.0 3.2287e-05
20890.0 3.2581e-05
20910.0 3.285e-05
20930.0 3.312e-05
20950.0 3.3393e-05
20970.0 3.3656e-05
20990.0 3.3912e-05
21010.0 3.4179e-05
21030.0 3.4432e-05
21050.0 3.4662e-05
21070.0 3.4878e-05
21090.0 3.5073e-05
21110.0 3.5226e-05
21130.0 3.5342e-05
21150.0 3.5423e-05
21170.0 3.546e-05
21190.0 3.5455e-05
21210.0 3.541e-05
21230.0 3.5322e-05
21250.0 3.52e-05
21270.0 3.5047e-05
21290.0 3.486e-05
21310.0 3.4649e-05
21330.0 3.4429e-05
21350.0 3.4185e-05
21370.0 3.3926e-05
21390.0 3.3669e-05
21410.0 3.341e-05
21430.0 3.3136e-05
21450.0 3.2875e-05
21470.0 3.263e-05
21490.0 3.2388e-05
21510.0 3.2156e-05
21530.0 3.195e-05
21550.0 3.176e-05
21570.0 3.1585e-05
21590.0 3.1438e-05
21610.0 3.1319e-05
21630.0 3.1225e-05
21650.0 3.116e-05
21670.0 3.1131e-05
21690.0 3.1134e-05
21710.0 3.1172e-05
21730.0 3.1246e-05
21750.0 3.1352e-05
21770.0 3.1503e-05
21790.0 3.1691e-05
21810.0 3.1909e-05
21830.0 3.2165e-05
21850.0 3.2465e-05
21870.0 3.279e-05
21890.0 3.3134e-05
21910.0 3.352e-05
21930.0 3.3931e-05
21950.0 3.4348e-05
21970.0 3.4788e-05
21990.0 3.5263e-05
22010.0 3.5724e-05
22030.0 3.6182e-05
22050.0 3.6653e-05
22070.0 3.7117e-05
22090.0 3.7548e-05
22110.0 3.7971e-05
22130.0 3.838e-05
22150.0 3.8747e-05
22170.0 3.9074e-05
22190.0 3.9374e-05
22210.0 3.9623e-05
22230.0 3.9809e-05
22250.0 3.9945e-05
22270.0 4.0022e-05
22290.0 4.0033e-05
22310.0 3.9981e-05
22330.0 3.9858e-05
22350.0 3.9665e-05
22370.0 3.9411e-05
22390.0 3.9085e-05
22410.0 3.8679e-05
22430.0 3.823e-05
22450.0 3.7728e-05
22470.0 3.7153e-05
22490.0 3.6535e-05
22510.0 3.5898e-05
22530.0 3.5197e-05
22550.0 3.4451e-05
22570.0 3.3714e-05
22590.0 3.2961e-05
22610.0 3.2172e-05
22630.0 3.1388e-05
22650.0 3.0639e-05
22670.0 2.9869e-05
22690.0 2.9103e-05
22710.0 2.838e-05
22730.0 2.768e-05
