#lamb flux
1010.0 0.00010741
1030.0 0.00013795
1050.0 0.00017522
1070.0 0.00021995
1090.0 0.00027407
1110.0 0.00033447
1130.0 0.00040072
1150.0 0.0004754
1170.0 0.00055797
1190.0 0.00064311
1210.0 0.00073263
1230.0 0.00082797
1250.0 0.00092433
1270.0 0.0010192
1290.0 0.0011165
1310.0 0.0012103
1330.0 0.0012954
1350.0 0.0013736
1370.0 0.0014447
1390.0 0.0015031
1410.0 0.0015478
1430.0 0.0015837
1450.0 0.0016079
1470.0 0.0016187
1490.0 0.0016204
1510.0 0.0016145
1530.0 0.0015971
1550.0 0.0015738
1570.0 0.0015498
1590.0 0.0015238
1610.0 0.0014952
1630.0 0.0014689
1650.0 0.0014456
1670.0 0.0014233
1690.0 0.0014038
1710.0 0.0013894
1730.0 0.0013789
1750.0 0.00137
1770.0 0.0013661
1790.0 0.0013667
1810.0 0.0013699
1830.0 0.0013762
1850.0 0.0013877
1870.0 0.0014017
1890.0 0.0014177
1910.0 0.0014373
1930.0 0.0014604
1950.0 0.0014848
1970.0 0.0015115
1990.0 0.0015418
2010.0 0.001574
2030.0 0.0016074
2050.0 0.001644
2070.0 0.0016836
2090.0 0.0017235
2110.0 0.0017653
2130.0 0.00181
2150.0 0.0018559
2170.0 0.0019022
2190.0 0.0019513
2210.0 0.0020021
2230.0 0.002053
2250.0 0.0021051
2270.0 0.0021597
2290.0 0.0022143
2310.0 0.0022684
2330.0 0.0023241
2350.0 0.0023806
2370.0 0.0024359
2390.0 0.0024915
2410.0 0.0025485
2430.0 0.0026045
2450.0 0.0026599
2470.0 0.0027181
2490.0 0.0027811
2510.0 0.0028492
2530.0 0.0029312
2550.0 0.0030383
2570.0 0.0031777
2590.0 0.0033594
2610.0 0.0036177
2630.0 0.0039618
2650.0 0.0043851
2670.0 0.0049116
2690.0 0.0055542
2710.0 0.0062616
2730.0 0.0070056
2750.0 0.0078093
2770.0 0.008598
2790.0 0.0093132
2810.0 0.0099627
2830.0 0.010545
2850.0 0.010993
2870.0 0.011351
2890.0 0.011651
2910.0 0.011897
2930.0 0.012093
2950.0 0.012277
2970.0 0.012451
2990.0 0.012607
3010.0 0.012753
3030.0 0.012902
3050.0 0.013045
3070.0 0.013169
3090.0 0.013295
3110.0 0.013425
3130.0 0.013561
3150.0 0.013654
3170.0 0.013871
3190.0 0.014226
3210.0 0.014779
3230.0 0.015638
3250.0 0.016946
3270.0 0.018366
3290.0 0.020324
3310.0 0.023747
3330.0 0.024513
3350.0 0.024611
3370.0 0.024679
3390.0 0.024736
3410.0 0.024752
3430.0 0.024733
3450.0 0.024699
3470.0 0.024663
3490.0 0.024559
3510.0 0.024189
3530.0 0.022913
3550.0 0.02164
3570.0 0.022278
3590.0 0.024204
3610.0 0.026294
3630.0 0.028031
3650.0 0.026977
3670.0 0.024016
3690.0 0.021709
3710.0 0.021181
3730.0 0.02174
3750.0 0.022088
3770.0 0.022775
3790.0 0.023577
3810.0 0.023744
3830.0 0.022136
3850.0 0.020413
3870.0 0.019639
3890.0 0.020039
3910.0 0.020173
3930.0 0.020259
3950.0 0.021313
3970.0 0.022552
3990.0 0.023072
4010.0 0.023003
4030.0 0.022273
4050.0 0.021905
4070.0 0.021698
4090.0 0.021801
4110.0 0.021834
4130.0 0.021256
4150.0 0.020525
4170.0 0.020336
4190.0 0.019806
4210.0 0.018511
4230.0 0.017129
4250.0 0.015655
4270.0 0.014512
4290.0 0.013963
4310.0 0.013836
4330.0 0.014309
4350.0 0.015244
4370.0 0.015933
4390.0 0.017303
4410.0 0.018451
4430.0 0.018617
4450.0 0.017353
4470.0 0.016117
4490.0 0.015709
4510.0 0.015509
4530.0 0.015577
4550.0 0.015646
4570.0 0.015934
4590.0 0.016523
4610.0 0.017191
4630.0 0.017719
4650.0 0.018052
4670.0 0.017897
4690.0 0.016972
4710.0 0.016042
4730.0 0.015386
4750.0 0.015024
4770.0 0.014925
4790.0 0.014958
4810.0 0.014668
4830.0 0.014282
4850.0 0.014998
4870.0 0.014681
4890.0 0.014642
4910.0 0.014508
4930.0 0.013655
4950.0 0.012078
4970.0 0.011242
4990.0 0.010522
5010.0 0.010089
5030.0 0.010222
5050.0 0.010599
5070.0 0.010816
5090.0 0.011307
5110.0 0.011334
5130.0 0.011226
5150.0 0.011308
5170.0 0.011051
5190.0 0.011074
5210.0 0.011083
5230.0 0.010704
5250.0 0.01074
5270.0 0.010948
5290.0 0.010782
5310.0 0.010382
5330.0 0.010053
5350.0 0.0096272
5370.0 0.0094149
5390.0 0.0092385
5410.0 0.0089798
5430.0 0.0089941
5450.0 0.0088649
5470.0 0.008923
5490.0 0.0094166
5510.0 0.009595
5530.0 0.0096431
5550.0 0.009668
5570.0 0.0097197
5590.0 0.0095968
5610.0 0.0095012
5630.0 0.0094925
5650.0 0.0093781
5670.0 0.0091628
5690.0 0.0089428
5710.0 0.0088373
5730.0 0.008993
5750.0 0.0086536
5770.0 0.0082231
5790.0 0.0077406
5810.0 0.0069434
5830.0 0.007432
5850.0 0.0080781
5870.0 0.0082291
5890.0 0.0083353
5910.0 0.0085784
5930.0 0.0086079
5950.0 0.0086028
5970.0 0.0086023
5990.0 0.0086326
6010.0 0.008451
6030.0 0.0082968
6050.0 0.0082626
6070.0 0.0082457
6090.0 0.0082846
6110.0 0.008157
6130.0 0.0079528
6150.0 0.0077589
6170.0 0.0075714
6190.0 0.0072017
6210.0 0.0070661
6230.0 0.0071043
6250.0 0.0070465
6270.0 0.0069909
6290.0 0.0070842
6310.0 0.0072014
6330.0 0.0071482
6350.0 0.006991
6370.0 0.0069673
6390.0 0.0068324
6410.0 0.0067494
6430.0 0.0066015
6450.0 0.0065468
6470.0 0.0064949
6490.0 0.0064695
6510.0 0.0063412
6530.0 0.0062494
6550.0 0.0061553
6570.0 0.0060599
6590.0 0.0061286
6610.0 0.006127
6630.0 0.005964
6650.0 0.0057848
6670.0 0.0057208
6690.0 0.0056346
6710.0 0.0054947
6730.0 0.0054373
6750.0 0.0054809
6770.0 0.0057431
6790.0 0.0061776
6810.0 0.0059398
6830.0 0.005344
6850.0 0.0050811
6870.0 0.0049889
6890.0 0.0049633
6910.0 0.0049464
6930.0 0.004915
6950.0 0.0049018
6970.0 0.0047454
6990.0 0.0046709
7010.0 0.0047004
7030.0 0.004713
7050.0 0.0046091
7070.0 0.0044477
7090.0 0.0043666
7110.0 0.0044001
7130.0 0.0043993
7150.0 0.0043848
7170.0 0.0043583
7190.0 0.0043236
7210.0 0.0043901
7230.0 0.0044472
7250.0 0.0044445
7270.0 0.0044419
7290.0 0.0044828
7310.0 0.0044554
7330.0 0.0043527
7350.0 0.0041971
7370.0 0.0041362
7390.0 0.004133
7410.0 0.0040078
7430.0 0.004017
7450.0 0.003985
7470.0 0.0040428
7490.0 0.0039848
7510.0 0.0038508
7530.0 0.0038771
7550.0 0.0037882
7570.0 0.0036969
7590.0 0.003554
7610.0 0.0035568
7630.0 0.0036569
7650.0 0.0037272
7670.0 0.0036025
7690.0 0.0036253
7710.0 0.0037429
7730.0 0.0038194
7750.0 0.0038862
7770.0 0.0038553
7790.0 0.0037702
7810.0 0.0038793
7830.0 0.0040377
7850.0 0.0040064
7870.0 0.0041144
7890.0 0.004058
7910.0 0.0039932
7930.0 0.003922
7950.0 0.0039935
7970.0 0.0040079
7990.0 0.0037667
8010.0 0.0036715
8030.0 0.0036299
8050.0 0.0035596
8070.0 0.0034822
8090.0 0.0031907
8110.0 0.0031991
8130.0 0.0034344
8150.0 0.0035687
8170.0 0.0036044
8190.0 0.0037123
8210.0 0.0036373
8230.0 0.0035762
8250.0 0.0035695
8270.0 0.003503
8290.0 0.0034314
8310.0 0.0032662
8330.0 0.0032655
8350.0 0.003316
8370.0 0.0033375
8390.0 0.0033224
8410.0 0.0032763
8430.0 0.0032236
8450.0 0.0032168
8470.0 0.0033431
8490.0 0.0033789
8510.0 0.0032433
8530.0 0.0031298
8550.0 0.0031162
8570.0 0.0030294
8590.0 0.002978
8610.0 0.0030328
8630.0 0.0030367
8650.0 0.0030122
8670.0 0.0029922
8690.0 0.0029562
8710.0 0.0028266
8730.0 0.0028244
8750.0 0.0027593
8770.0 0.0027683
8790.0 0.0027405
8810.0 0.0026664
8830.0 0.0026749
8850.0 0.0026888
8870.0 0.0025616
8890.0 0.0024635
8910.0 0.0023807
8930.0 0.0022703
8950.0 0.0022098
8970.0 0.0021166
8990.0 0.0020829
9010.0 0.0020101
9030.0 0.0019874
9050.0 0.0019752
9070.0 0.0019634
9090.0 0.0019516
9110.0 0.0019394
9130.0 0.0019272
9150.0 0.0019153
9170.0 0.0019032
9190.0 0.001891
9210.0 0.0018787
9230.0 0.0018664
9250.0 0.001854
9270.0 0.0018416
9290.0 0.0018291
9310.0 0.0018168
9330.0 0.0018049
9350.0 0.0017929
9370.0 0.0017808
9390.0 0.0017688
9410.0 0.0017568
9430.0 0.0017448
9450.0 0.0017327
9470.0 0.0017219
9490.0 0.0017104
9510.0 0.0016978
9530.0 0.0016854
9550.0 0.0016732
9570.0 0.0016612
9590.0 0.0016493
9610.0 0.0016377
9630.0 0.0016263
9650.0 0.0016149
9670.0 0.0016034
9690.0 0.0015921
9710.0 0.0015809
9730.0 0.0015697
9750.0 0.0015585
9770.0 0.0015476
9790.0 0.0015366
9810.0 0.0015257
9830.0 0.0015148
9850.0 0.0015031
9870.0 0.0014913
9890.0 0.0014817
9910.0 0.0014718
9930.0 0.00146
9950.0 0.0014497
9970.0 0.0014403
9990.0 0.0014307
10010.0 0.0014211
10030.0 0.0014115
10050.0 0.0014017
10070.0 0.001392
10090.0 0.0013825
10110.0 0.001373
10130.0 0.0013636
10150.0 0.0013543
10170.0 0.0013452
10190.0 0.0013361
10210.0 0.0013271
10230.0 0.0013184
10250.0 0.0013096
10270.0 0.001301
10290.0 0.0012925
10310.0 0.0012841
10330.0 0.0012758
10350.0 0.0012676
10370.0 0.0012596
10390.0 0.0012515
10410.0 0.001243
10430.0 0.0012345
10450.0 0.0012276
10470.0 0.0012204
10490.0 0.0012132
10510.0 0.0012061
10530.0 0.0011989
10550.0 0.0011918
10570.0 0.0011849
10590.0 0.001178
10610.0 0.0011712
10630.0 0.0011646
10650.0 0.0011581
10670.0 0.0011516
10690.0 0.0011452
10710.0 0.001139
10730.0 0.0011328
10750.0 0.0011266
10770.0 0.0011207
10790.0 0.0011149
10810.0 0.001109
10830.0 0.0011033
10850.0 0.0010979
10870.0 0.0010923
10890.0 0.0010868
10910.0 0.0010815
10930.0 0.0010762
10950.0 0.0010709
10970.0 0.0010656
10990.0 0.0010605
11010.0 0.0011399
11030.0 0.0011339
11050.0 0.0011278
11070.0 0.0011212
11090.0 0.0011141
11110.0 0.0011071
11130.0 0.0011
11150.0 0.0010926
11170.0 0.0010851
11190.0 0.0010778
11210.0 0.0010703
11230.0 0.0010626
11250.0 0.0010552
11270.0 0.001048
11290.0 0.0010407
11310.0 0.0010336
11330.0 0.0010272
11350.0 0.001021
11370.0 0.001015
11390.0 0.0010095
11410.0 0.0010045
11430.0 0.00099954
11450.0 0.00099497
11470.0 0.00099079
11490.0 0.00098669
11510.0 0.00098259
11530.0 0.00097877
11550.0 0.00097501
11570.0 0.00097105
11590.0 0.00096707
11610.0 0.00096316
11630.0 0.00095895
11650.0 0.00095447
11670.0 0.00095009
11690.0 0.00094558
11710.0 0.00094074
11730.0 0.00093584
11750.0 0.00093108
11770.0 0.00092601
11790.0 0.00092081
11810.0 0.00091579
11830.0 0.0009108
11850.0 0.00090552
11870.0 0.00090054
11890.0 0.00089588
11910.0 0.00089121
11930.0 0.00088669
11950.0 0.00088263
11970.0 0.00087878
11990.0 0.00087502
12010.0 0.00087173
12030.0 0.00086885
12050.0 0.00086618
12070.0 0.00086378
12090.0 0.00086192
12110.0 0.00086032
12130.0 0.00085893
12150.0 0.00085786
12170.0 0.00085706
12190.0 0.00085632
12210.0 0.00085571
12230.0 0.00085522
12250.0 0.00085469
12270.0 0.000854
12290.0 0.0008532
12310.0 0.00085224
12330.0 0.00085089
12350.0 0.0008492
12370.0 0.00084722
12390.0 0.0008448
12410.0 0.00084172
12430.0 0.00083841
12450.0 0.00083472
12470.0 0.00083044
12490.0 0.00082573
12510.0 0.00082091
12530.0 0.00081557
12550.0 0.00080974
12570.0 0.00080385
12590.0 0.00079781
12610.0 0.00079128
12630.0 0.0007846
12650.0 0.00077822
12670.0 0.00077159
12690.0 0.0007648
12710.0 0.00075831
12730.0 0.00075197
12750.0 0.00074537
12770.0 0.00073911
12790.0 0.00073326
12810.0 0.00072749
12830.0 0.00072183
12850.0 0.00071674
12870.0 0.00071197
12890.0 0.00070734
12910.0 0.00070314
12930.0 0.00069945
12950.0 0.00069598
12970.0 0.00069287
12990.0 0.00069034
13010.0 0.00068821
13030.0 0.00068643
13050.0 0.00068508
13070.0 0.00068415
13090.0 0.00068348
13110.0 0.00068309
13130.0 0.00068291
13150.0 0.00068284
13170.0 0.00068281
13190.0 0.00068272
13210.0 0.00068251
13230.0 0.00068209
13250.0 0.00068137
13270.0 0.00068036
13290.0 0.00067899
13310.0 0.00067715
13330.0 0.00067494
13350.0 0.00067237
13370.0 0.00066931
13390.0 0.00066576
13410.0 0.00066202
13430.0 0.00065786
13450.0 0.00065322
13470.0 0.00064835
13490.0 0.00064332
13510.0 0.00063769
13530.0 0.00063185
13550.0 0.00062601
13570.0 0.0006199
13590.0 0.00061343
13610.0 0.00060702
13630.0 0.00060066
13650.0 0.00059393
13670.0 0.00058717
13690.0 0.00058059
13710.0 0.00057388
13730.0 0.00056685
13750.0 0.00056022
13770.0 0.00055367
13790.0 0.00054699
13810.0 0.00054043
13830.0 0.00053423
13850.0 0.00052796
13870.0 0.00052172
13890.0 0.00051582
13910.0 0.00051012
13930.0 0.00050438
13950.0 0.00049885
13970.0 0.00049373
13990.0 0.00048865
14010.0 0.00048366
14030.0 0.000479
14050.0 0.00047454
14070.0 0.00047005
14090.0 0.00046584
14110.0 0.00046191
14130.0 0.00045806
14150.0 0.00045431
14170.0 0.00045086
14190.0 0.00044754
14210.0 0.00044424
14230.0 0.00044111
14250.0 0.00043814
14270.0 0.00043516
14290.0 0.00043221
14310.0 0.00042944
14330.0 0.00042671
14350.0 0.00042396
14370.0 0.0004213
14390.0 0.00041876
14410.0 0.00041617
14430.0 0.00041361
14450.0 0.00041115
14470.0 0.00040873
14490.0 0.00040624
14510.0 0.00040384
14530.0 0.00040151
14550.0 0.00039914
14570.0 0.00039675
14590.0 0.00039444
14610.0 0.00039209
14630.0 0.00038967
14650.0 0.00038729
14670.0 0.00038493
14690.0 0.00038249
14710.0 0.00038001
14730.0 0.00037762
14750.0 0.00037517
14770.0 0.00037264
14790.0 0.00037013
14810.0 0.00036764
14830.0 0.00036499
14850.0 0.00036234
14870.0 0.00035975
14890.0 0.00035711
14910.0 0.00035442
14930.0 0.00035185
14950.0 0.0003494
14970.0 0.00034698
14990.0 0.00034473
15010.0 0.00034271
15030.0 0.00034083
15050.0 0.00033906
15070.0 0.00033749
15090.0 0.00033602
15110.0 0.00033459
15130.0 0.00033321
15150.0 0.00033188
15170.0 0.00033054
15190.0 0.0003292
15210.0 0.00032789
15230.0 0.00032659
15250.0 0.00032526
15270.0 0.00032394
15290.0 0.00032267
15310.0 0.00032137
15330.0 0.00032007
15350.0 0.0003188
15370.0 0.00031754
15390.0 0.00031623
15410.0 0.00031496
15430.0 0.00031371
15450.0 0.00031244
15470.0 0.00031117
15490.0 0.00030993
15510.0 0.0003087
15530.0 0.00030744
15550.0 0.00030621
15570.0 0.000305
15590.0 0.00030376
15610.0 0.00030252
15630.0 0.00030132
15650.0 0.00030012
15670.0 0.00029889
15690.0 0.0002977
15710.0 0.00029652
15730.0 0.00029532
15750.0 0.00029413
15770.0 0.00029296
15790.0 0.00029179
15810.0 0.0002906
15830.0 0.00028943
15850.0 0.00028829
15870.0 0.00028713
15890.0 0.00028597
15910.0 0.00028485
15930.0 0.00028372
15950.0 0.00028256
15970.0 0.00028144
15990.0 0.00028033
16010.0 0.0002792
16030.0 0.00027807
16050.0 0.00027698
16070.0 0.00027588
16090.0 0.00027477
16110.0 0.00027369
16130.0 0.00027262
16150.0 0.00027152
16170.0 0.00027043
16190.0 0.00026938
16210.0 0.00026831
16230.0 0.00026723
16250.0 0.00026618
16270.0 0.00026515
16290.0 0.00026409
16310.0 0.00026305
16330.0 0.00026203
16350.0 0.000261
16370.0 0.00025994
16390.0 0.00025894
16410.0 0.00025794
16430.0 0.00025692
16450.0 0.00025591
16470.0 0.00025493
16490.0 0.00025393
16510.0 0.00025293
16530.0 0.00025195
16550.0 0.00025099
16570.0 0.00024999
16590.0 0.00024901
16610.0 0.00024808
16630.0 0.00024711
16650.0 0.00024615
16670.0 0.00024522
16690.0 0.00024429
16710.0 0.00024332
16730.0 0.00024239
16750.0 0.00024147
16770.0 0.00024054
16790.0 0.00023961
16810.0 0.00023871
16830.0 0.00023781
16850.0 0.0002369
16870.0 0.000236
16890.0 0.00023512
16910.0 0.00023422
16930.0 0.00023331
16950.0 0.00023245
16970.0 0.00023158
16990.0 0.0002307
17010.0 0.00022983
17030.0 0.000229
17050.0 0.00022813
17070.0 0.00022727
17090.0 0.00022643
17110.0 0.0002256
17130.0 0.00022473
17150.0 0.0002239
17170.0 0.00022309
17190.0 0.00022226
17210.0 0.00022143
17230.0 0.00022064
17250.0 0.00021983
17270.0 0.000219
17290.0 0.0002182
17310.0 0.00021741
17330.0 0.00021661
17350.0 0.0002158
17370.0 0.00021504
17390.0 0.00021426
17410.0 0.00021347
17430.0 0.0002127
17450.0 0.00021195
17470.0 0.00021116
17490.0 0.00021039
17510.0 0.00020965
17530.0 0.0002089
17550.0 0.00020813
17570.0 0.00020739
17590.0 0.00020667
17610.0 0.00020592
17630.0 0.00020518
17650.0 0.00020446
17670.0 0.00020373
17690.0 0.00020298
17710.0 0.00020227
17730.0 0.00020157
17750.0 0.00020084
17770.0 0.00020013
17790.0 0.00019944
17810.0 0.00019873
17830.0 0.00019801
17850.0 0.00019733
17870.0 0.00019664
17890.0 0.00019593
17910.0 0.00019523
17930.0 0.00019457
17950.0 0.00019389
17970.0 0.0001932
17990.0 0.00019253
18010.0 0.00019187
18030.0 0.00019117
18050.0 0.0001905
18070.0 0.00018985
18090.0 0.00018918
18110.0 0.00018851
18130.0 0.00018787
18150.0 0.00018722
18170.0 0.00018655
18190.0 0.0001859
18210.0 0.00018527
18230.0 0.00018461
18250.0 0.00018395
18270.0 0.00018333
18290.0 0.00018269
18310.0 0.00018204
18330.0 0.00018141
18350.0 0.0001808
18370.0 0.00018015
18390.0 0.00017951
18410.0 0.0001789
18430.0 0.00017828
18450.0 0.00017763
18470.0 0.00017701
18490.0 0.00017641
18510.0 0.00017578
18530.0 0.00017516
18550.0 0.00017456
18570.0 0.00017395
18590.0 0.00017331
18610.0 0.0001727
18630.0 0.00017211
18650.0 0.00017148
18670.0 0.00017086
18690.0 0.00017028
18710.0 0.00016968
18730.0 0.00016906
18750.0 0.00016846
18770.0 0.00016788
18790.0 0.00016725
18810.0 0.00016664
18830.0 0.00016606
18850.0 0.00016546
18870.0 0.00016485
18890.0 0.00016426
18910.0 0.00016368
18930.0 0.00016307
18950.0 0.00016247
18970.0 0.00016189
18990.0 0.0001613
19010.0 0.00016067
19030.0 0.0001601
19050.0 0.00015951
19070.0 0.00015891
19090.0 0.00015831
19110.0 0.00015775
19130.0 0.00015714
19150.0 0.00015654
19170.0 0.00015596
19190.0 0.00015537
19210.0 0.00015476
19230.0 0.00015416
19250.0 0.00015359
19270.0 0.000153
19290.0 0.0001524
19310.0 0.00015182
19330.0 0.00015124
19350.0 0.00015061
19370.0 0.00015002
19390.0 0.00014945
19410.0 0.00014884
19430.0 0.00014823
19450.0 0.00014766
19470.0 0.00014707
19490.0 0.00014646
19510.0 0.00014587
19530.0 0.00014529
19550.0 0.00014468
19570.0 0.00014406
19590.0 0.00014348
19610.0 0.00014288
19630.0 0.00014227
19650.0 0.00014167
19670.0 0.00014109
19690.0 0.00014047
19710.0 0.00013986
19730.0 0.00013927
19750.0 0.00013866
19770.0 0.00013803
19790.0 0.00013743
19810.0 0.00013684
19830.0 0.00013622
19850.0 0.0001356
19870.0 0.00013502
19890.0 0.00013442
19910.0 0.00013381
19930.0 0.00013325
19950.0 0.00013273
19970.0 0.00013224
19990.0 0.00013182
20010.0 0.0001315
20030.0 0.00013123
20050.0 0.00013104
20070.0 0.00013092
20090.0 0.00013086
20110.0 0.00013082
20130.0 0.00013082
20150.0 0.00013083
20170.0 0.00013085
20190.0 0.00013088
20210.0 0.0001309
20230.0 0.00013093
20250.0 0.00013094
20270.0 0.00013095
20290.0 0.00013095
20310.0 0.00013094
20330.0 0.00013091
20350.0 0.00013089
20370.0 0.00013085
20390.0 0.00013079
20410.0 0.00013073
20430.0 0.00013066
20450.0 0.00013058
20470.0 0.00013048
20490.0 0.00013039
20510.0 0.0001303
20530.0 0.0001302
20550.0 0.0001301
20570.0 0.00013002
20590.0 0.00012993
20610.0 0.00012985
20630.0 0.00012977
20650.0 0.0001297
20670.0 0.00012963
20690.0 0.00012956
20710.0 0.00012949
20730.0 0.00012941
20750.0 0.00012932
20770.0 0.00012923
20790.0 0.00012912
20810.0 0.00012898
20830.0 0.00012883
20850.0 0.00012866
20870.0 0.00012844
20890.0 0.0001282
20910.0 0.00012796
20930.0 0.00012768
20950.0 0.00012737
20970.0 0.00012705
20990.0 0.00012672
21010.0 0.00012635
21030.0 0.00012598
21050.0 0.00012562
21070.0 0.00012524
21090.0 0.00012485
21110.0 0.00012447
21130.0 0.00012411
21150.0 0.00012373
21170.0 0.00012335
21190.0 0.000123
21210.0 0.00012262
21230.0 0.00012224
21250.0 0.00012187
21270.0 0.00012149
21290.0 0.00012109
21310.0 0.00012068
21330.0 0.00012028
21350.0 0.00011985
21370.0 0.00011939
21390.0 0.00011894
21410.0 0.00011847
21430.0 0.00011795
21450.0 0.00011743
21470.0 0.00011691
21490.0 0.00011636
21510.0 0.00011578
21530.0 0.00011521
21550.0 0.00011463
21570.0 0.00011401
21590.0 0.00011339
21610.0 0.00011278
21630.0 0.00011214
21650.0 0.00011148
21670.0 0.00011086
21690.0 0.00011022
21710.0 0.00010957
21730.0 0.00010892
21750.0 0.00010829
21770.0 0.00010762
21790.0 0.00010695
21810.0 0.0001063
21830.0 0.00010564
21850.0 0.00010495
21870.0 0.00010428
21890.0 0.00010363
21910.0 0.00010295
21930.0 0.00010226
21950.0 0.0001016
21970.0 0.00010093
21990.0 0.00010023
22010.0 9.9569e-05
22030.0 9.8927e-05
22050.0 9.8275e-05
22070.0 9.7637e-05
22090.0 9.7041e-05
22110.0 9.6449e-05
22130.0 9.5862e-05
22150.0 9.5313e-05
22170.0 9.479e-05
22190.0 9.4267e-05
22210.0 9.3768e-05
22230.0 9.3309e-05
22250.0 9.2857e-05
22270.0 9.2413e-05
22290.0 9.1995e-05
22310.0 9.1591e-05
22330.0 9.1178e-05
22350.0 9.0778e-05
22370.0 9.0391e-05
22390.0 8.9998e-05
22410.0 8.9595e-05
22430.0 8.9203e-05
22450.0 8.8809e-05
22470.0 8.8399e-05
22490.0 8.7987e-05
22510.0 8.7579e-05
22530.0 8.7152e-05
22550.0 8.6714e-05
22570.0 8.6283e-05
22590.0 8.5849e-05
22610.0 8.5401e-05
22630.0 8.4956e-05
22650.0 8.4522e-05
22670.0 8.4079e-05
22690.0 8.3636e-05
22710.0 8.3207e-05
22730.0 8.2784e-05
22750.0 8.2354e-05
22770.0 8.1942e-05
22790.0 8.1544e-05
22810.0 8.115e-05
22830.0 8.0764e-05
22850.0 8.0394e-05
22870.0 8.003e-05
22890.0 7.967e-05
22910.0 7.9321e-05
22930.0 7.8979e-05
22950.0 7.8638e-05
22970.0 7.8298e-05
22990.0 7.7966e-05
23010.0 7.7632e-05
23030.0 7.7296e-05
23050.0 7.696e-05
23070.0 7.6624e-05
23090.0 7.6284e-05
23110.0 7.5945e-05
23130.0 7.5608e-05
23150.0 7.5273e-05
23170.0 7.4941e-05
23190.0 7.4614e-05
23210.0 7.4293e-05
23230.0 7.398e-05
23250.0 7.3674e-05
23270.0 7.3375e-05
23290.0 7.3083e-05
