#lamb flux
1010.0 2.37e-05
1030.0 2.6469e-05
1050.0 2.9592e-05
1070.0 3.3124e-05
1090.0 3.7178e-05
1110.0 4.1368e-05
1130.0 4.5626e-05
1150.0 5.0129e-05
1170.0 5.4827e-05
1190.0 5.9365e-05
1210.0 6.4038e-05
1230.0 6.8947e-05
1250.0 7.3859e-05
1270.0 7.875e-05
1290.0 8.4003e-05
1310.0 8.9379e-05
1330.0 9.4691e-05
1350.0 0.00010018
1370.0 0.00010596
1390.0 0.00011174
1410.0 0.00011751
1430.0 0.0001236
1450.0 0.00012981
1470.0 0.00013596
1490.0 0.00014226
1510.0 0.00014892
1530.0 0.00015537
1550.0 0.0001618
1570.0 0.00016844
1590.0 0.00017511
1610.0 0.00018153
1630.0 0.00018807
1650.0 0.0001947
1670.0 0.00020107
1690.0 0.00020726
1710.0 0.00021352
1730.0 0.00021965
1750.0 0.00022527
1770.0 0.00023081
1790.0 0.00023623
1810.0 0.00024119
1830.0 0.00024577
1850.0 0.00025035
1870.0 0.00025445
1890.0 0.00025801
1910.0 0.00026131
1930.0 0.00026434
1950.0 0.00026673
1970.0 0.00026865
1990.0 0.00027035
2010.0 0.00027154
2030.0 0.00027213
2050.0 0.00027244
2070.0 0.00027244
2090.0 0.00027174
2110.0 0.00027062
2130.0 0.00026923
2150.0 0.00026734
2170.0 0.0002649
2190.0 0.00026224
2210.0 0.00025925
2230.0 0.00025577
2250.0 0.00025196
2270.0 0.00024803
2290.0 0.00024372
2310.0 0.00023903
2330.0 0.00023423
2350.0 0.00022927
2370.0 0.00022402
2390.0 0.00021863
2410.0 0.00021322
2430.0 0.00020752
2450.0 0.00020155
2470.0 0.00019538
2490.0 0.00018892
2510.0 0.00018217
2530.0 0.0001755
2550.0 0.00016942
2570.0 0.00016466
2590.0 0.00016198
2610.0 0.00016291
2630.0 0.00016798
2650.0 0.00017652
2670.0 0.0001886
2690.0 0.00020352
2710.0 0.00021831
2730.0 0.00023149
2750.0 0.00024344
2770.0 0.00025233
2790.0 0.00025776
2810.0 0.00026096
2830.0 0.00026278
2850.0 0.00026275
2870.0 0.00026203
2890.0 0.00026131
2910.0 0.00026053
2930.0 0.00025959
2950.0 0.00025911
2970.0 0.00025907
2990.0 0.00025916
3010.0 0.00059197
3030.0 0.00059439
3050.0 0.00059747
3070.0 0.00060006
3090.0 0.00060194
3110.0 0.00060079
3130.0 0.00059432
3150.0 0.00058166
3170.0 0.00055912
3190.0 0.00056024
3210.0 0.00066069
3230.0 0.00085008
3250.0 0.0012421
3270.0 0.0014023
3290.0 0.0017818
3310.0 0.0016676
3330.0 0.0017624
3350.0 0.0019284
3370.0 0.0021421
3390.0 0.0023909
3410.0 0.002654
3430.0 0.0029567
3450.0 0.0032883
3470.0 0.0036406
3490.0 0.0039682
3510.0 0.0042989
3530.0 0.0046644
3550.0 0.0048004
3570.0 0.0047463
3590.0 0.0049988
3610.0 0.0049414
3630.0 0.0057232
3650.0 0.00634
3670.0 0.0067279
3690.0 0.0062954
3710.0 0.0052516
3730.0 0.0048171
3750.0 0.0043053
3770.0 0.0038604
3790.0 0.0034289
3810.0 0.0032974
3830.0 0.0037262
3850.0 0.0016873
3870.0 0.0036214
3890.0 0.004606
3910.0 0.0050058
3930.0 0.0057631
3950.0 0.0062253
3970.0 0.0071577
3990.0 0.0087821
4010.0 0.0065883
4030.0 0.0054173
4050.0 0.0048156
4070.0 0.0049545
4090.0 0.0069785
4110.0 0.0066716
4130.0 0.0068783
4150.0 0.0065307
4170.0 0.0062401
4190.0 0.0058438
4210.0 0.0081598
4230.0 0.008692
4250.0 0.0091436
4270.0 0.0085991
4290.0 0.0089363
4310.0 0.010069
4330.0 0.011622
4350.0 0.011528
4370.0 0.011037
4390.0 0.009422
4410.0 0.0085321
4430.0 0.0070164
4450.0 0.0061726
4470.0 0.0068714
4490.0 0.0084327
4510.0 0.0088832
4530.0 0.0096439
4550.0 0.010472
4570.0 0.013868
4590.0 0.019949
4610.0 0.024457
4630.0 0.024395
4650.0 0.023729
4670.0 0.025855
4690.0 0.028662
4710.0 0.023616
4730.0 0.017691
4750.0 0.014166
4770.0 0.013098
4790.0 0.013008
4810.0 0.012387
4830.0 0.013532
4850.0 0.015669
4870.0 0.017877
4890.0 0.017602
4910.0 0.01548
4930.0 0.016306
4950.0 0.020754
4970.0 0.026237
4990.0 0.027393
5010.0 0.024717
5030.0 0.019925
5050.0 0.014726
5070.0 0.011805
5090.0 0.010712
5110.0 0.010521
5130.0 0.010858
5150.0 0.010803
5170.0 0.01084
5190.0 0.010411
5210.0 0.010385
5230.0 0.011366
5250.0 0.012461
5270.0 0.015031
5290.0 0.017628
5310.0 0.018
5330.0 0.018805
5350.0 0.021138
5370.0 0.023047
5390.0 0.021353
5410.0 0.018777
5430.0 0.017937
5450.0 0.020678
5470.0 0.026393
5490.0 0.032173
5510.0 0.034981
5530.0 0.035023
5550.0 0.033398
5570.0 0.03217
5590.0 0.031421
5610.0 0.031713
5630.0 0.031896
5650.0 0.031909
5670.0 0.032224
5690.0 0.030966
5710.0 0.026662
5730.0 0.023127
5750.0 0.020805
5770.0 0.021275
5790.0 0.022755
5810.0 0.024429
5830.0 0.025359
5850.0 0.024743
5870.0 0.02304
5890.0 0.021043
5910.0 0.021415
5930.0 0.023344
5950.0 0.022983
5970.0 0.020904
5990.0 0.01808
6010.0 0.014798
6030.0 0.01283
6050.0 0.013225
6070.0 0.014739
6090.0 0.015159
6110.0 0.013478
6130.0 0.012977
6150.0 0.014504
6170.0 0.017203
6190.0 0.019914
6210.0 0.020569
6230.0 0.019835
6250.0 0.018237
6270.0 0.015667
6290.0 0.013074
6310.0 0.011223
6330.0 0.010623
6350.0 0.011099
6370.0 0.011332
6390.0 0.012013
6410.0 0.014216
6430.0 0.018054
6450.0 0.021947
6470.0 0.023661
6490.0 0.023141
6510.0 0.023296
6530.0 0.024304
6550.0 0.024228
6570.0 0.024869
6590.0 0.025049
6610.0 0.025106
6630.0 0.025371
6650.0 0.024708
6670.0 0.023021
6690.0 0.020375
6710.0 0.018126
6730.0 0.018114
6750.0 0.019325
6770.0 0.020315
6790.0 0.020774
6810.0 0.020834
6830.0 0.020425
6850.0 0.019866
6870.0 0.01869
6890.0 0.018046
6910.0 0.017078
6930.0 0.017127
6950.0 0.018464
6970.0 0.019368
6990.0 0.020087
7010.0 0.019928
7030.0 0.0186
7050.0 0.016286
7070.0 0.013643
7090.0 0.011905
7110.0 0.011668
7130.0 0.012232
7150.0 0.011752
7170.0 0.010853
7190.0 0.011076
7210.0 0.012292
7230.0 0.014263
7250.0 0.015802
7270.0 0.016201
7290.0 0.014937
7310.0 0.013422
7330.0 0.012474
7350.0 0.012379
7370.0 0.012718
7390.0 0.013204
7410.0 0.014242
7430.0 0.016463
7450.0 0.019033
7470.0 0.02101
7490.0 0.021533
7510.0 0.020556
7530.0 0.017004
7550.0 0.014465
7570.0 0.012311
7590.0 0.011162
7610.0 0.011638
7630.0 0.013151
7650.0 0.014862
7670.0 0.016431
7690.0 0.017452
7710.0 0.018508
7730.0 0.019627
7750.0 0.02064
7770.0 0.020676
7790.0 0.020608
7810.0 0.021026
7830.0 0.021571
7850.0 0.021099
7870.0 0.020217
7890.0 0.019357
7910.0 0.018141
7930.0 0.017652
7950.0 0.016991
7970.0 0.016689
7990.0 0.016439
8010.0 0.016993
8030.0 0.017059
8050.0 0.0173
8070.0 0.017075
8090.0 0.016985
8110.0 0.01623
8130.0 0.016091
8150.0 0.015709
8170.0 0.015231
8190.0 0.014951
8210.0 0.014996
8230.0 0.01434
8250.0 0.013652
8270.0 0.012006
8290.0 0.009626
8310.0 0.0071997
8330.0 0.0054406
8350.0 0.0049173
8370.0 0.0057544
8390.0 0.0069133
8410.0 0.0076084
8430.0 0.0080818
8450.0 0.0084646
8470.0 0.0088986
8490.0 0.0098756
8510.0 0.011154
8530.0 0.012946
8550.0 0.01495
8570.0 0.016751
8590.0 0.018178
8610.0 0.019197
8630.0 0.019653
8650.0 0.019634
8670.0 0.019608
8690.0 0.020312
8710.0 0.021061
8730.0 0.021704
8750.0 0.021449
8770.0 0.021578
8790.0 0.021312
8810.0 0.019864
8830.0 0.019035
8850.0 0.017787
8870.0 0.016788
8890.0 0.016222
8910.0 0.016402
8930.0 0.015498
8950.0 0.014718
8970.0 0.014391
8990.0 0.014126
9010.0 0.013658
9030.0 0.013339
9050.0 0.013248
9070.0 0.013205
9090.0 0.013165
9110.0 0.013127
9130.0 0.013087
9150.0 0.013047
9170.0 0.012996
9190.0 0.012942
9210.0 0.012983
9230.0 0.012917
9250.0 0.012863
9270.0 0.012814
9290.0 0.012768
9310.0 0.012723
9330.0 0.01268
9350.0 0.012638
9370.0 0.012596
9390.0 0.012554
9410.0 0.012512
9430.0 0.012469
9450.0 0.012417
9470.0 0.012367
9490.0 0.012334
9510.0 0.012295
9530.0 0.012255
9550.0 0.012214
9570.0 0.012173
9590.0 0.012131
9610.0 0.012088
9630.0 0.012046
9650.0 0.012003
9670.0 0.011961
9690.0 0.011918
9710.0 0.011875
9730.0 0.011832
9750.0 0.011789
9770.0 0.011747
9790.0 0.011704
9810.0 0.011661
9830.0 0.011618
9850.0 0.011575
9870.0 0.011532
9890.0 0.011489
9910.0 0.011445
9930.0 0.011401
9950.0 0.011268
9970.0 0.011251
9990.0 0.011229
10010.0 0.011203
10030.0 0.01117
10050.0 0.011131
10070.0 0.011089
10090.0 0.01105
10110.0 0.011005
10130.0 0.010963
10150.0 0.010919
10170.0 0.010873
10190.0 0.010823
10210.0 0.010778
10230.0 0.010733
10250.0 0.010685
10270.0 0.010637
10290.0 0.010592
10310.0 0.010544
10330.0 0.010493
10350.0 0.010445
10370.0 0.010398
10390.0 0.010346
10410.0 0.010295
10430.0 0.010248
10450.0 0.010196
10470.0 0.010143
10490.0 0.010092
10510.0 0.010041
10530.0 0.0099848
10550.0 0.00993
10570.0 0.0098779
10590.0 0.0098225
10610.0 0.0097648
10630.0 0.0097104
10650.0 0.0096548
10670.0 0.0095943
10690.0 0.0095355
10710.0 0.0094782
10730.0 0.0094173
10750.0 0.0093528
10770.0 0.0092937
10790.0 0.0092326
10810.0 0.0091676
10830.0 0.0091035
10850.0 0.0090417
10870.0 0.0089729
10890.0 0.0089026
10910.0 0.0088339
10930.0 0.008761
10950.0 0.0086798
10970.0 0.0085955
10990.0 0.0085091
11010.0 0.0082345
11030.0 0.0081265
11050.0 0.0080226
11070.0 0.0079176
11090.0 0.0078067
11110.0 0.0077059
11130.0 0.00761
11150.0 0.0075132
11170.0 0.0074191
11190.0 0.0073329
11210.0 0.0072457
11230.0 0.0071568
11250.0 0.0070727
11270.0 0.0069911
11290.0 0.0069058
11310.0 0.0068209
11330.0 0.0067427
11350.0 0.0066623
11370.0 0.0065798
11390.0 0.0065006
11410.0 0.0064225
11430.0 0.0063375
11450.0 0.0062527
11470.0 0.0061689
11490.0 0.0060799
11510.0 0.005984
11530.0 0.0058893
11550.0 0.0057918
11570.0 0.0056857
11590.0 0.0055769
11610.0 0.0054689
11630.0 0.0053532
11650.0 0.0052317
11670.0 0.0051149
11690.0 0.0049974
11710.0 0.0048755
11730.0 0.0047562
11750.0 0.0046439
11770.0 0.0045295
11790.0 0.0044168
11810.0 0.0043122
11830.0 0.004212
11850.0 0.0041106
11870.0 0.0040175
11890.0 0.0039322
11910.0 0.0038483
11930.0 0.0037677
11950.0 0.0036945
11970.0 0.0036241
11990.0 0.003554
12010.0 0.0034893
12030.0 0.0034292
12050.0 0.0033702
12070.0 0.003313
12090.0 0.003263
12110.0 0.0032154
12130.0 0.0031702
12150.0 0.0031302
12170.0 0.0030958
12190.0 0.0030638
12210.0 0.0030376
12230.0 0.0030181
12250.0 0.0030039
12270.0 0.0029956
12290.0 0.0029943
12310.0 0.0029994
12330.0 0.0030115
12350.0 0.0030306
12370.0 0.0030559
12390.0 0.003088
12410.0 0.0031287
12430.0 0.0031734
12450.0 0.0032228
12470.0 0.0032784
12490.0 0.0033379
12510.0 0.0033973
12530.0 0.0034598
12550.0 0.003524
12570.0 0.003585
12590.0 0.0036428
12610.0 0.003699
12630.0 0.0037497
12650.0 0.0037916
12670.0 0.0038277
12690.0 0.0038562
12710.0 0.0038756
12730.0 0.0038866
12750.0 0.0038891
12770.0 0.0038828
12790.0 0.0038692
12810.0 0.0038482
12830.0 0.0038199
12850.0 0.0037878
12870.0 0.0037518
12890.0 0.0037112
12910.0 0.0036689
12930.0 0.0036267
12950.0 0.0035823
12970.0 0.0035369
12990.0 0.003494
13010.0 0.0034517
13030.0 0.0034087
13050.0 0.003367
13070.0 0.0033273
13090.0 0.0032865
13110.0 0.0032455
13130.0 0.0032061
13150.0 0.0031668
13170.0 0.0031258
13190.0 0.0030868
13210.0 0.0030498
13230.0 0.0030131
13250.0 0.0029784
13270.0 0.0029477
13290.0 0.00292
13310.0 0.0028956
13330.0 0.0028768
13350.0 0.0028633
13370.0 0.0028547
13390.0 0.0028513
13410.0 0.0028525
13430.0 0.0028572
13450.0 0.0028646
13470.0 0.002873
13490.0 0.0028807
13510.0 0.0028871
13530.0 0.0028898
13550.0 0.0028879
13570.0 0.0028805
13590.0 0.0028665
13610.0 0.0028465
13630.0 0.0028211
13650.0 0.0027889
13670.0 0.0027519
13690.0 0.0027123
13710.0 0.0026694
13730.0 0.0026228
13750.0 0.0025784
13770.0 0.0025351
13790.0 0.0024921
13810.0 0.0024519
13830.0 0.0024161
13850.0 0.0023824
13870.0 0.0023518
13890.0 0.0023256
13910.0 0.0023028
13930.0 0.0022824
13950.0 0.002265
13970.0 0.0022508
13990.0 0.0022382
14010.0 0.0022272
14030.0 0.0022177
14050.0 0.0022091
14070.0 0.0022008
14090.0 0.0021928
14110.0 0.0021848
14130.0 0.0021762
14150.0 0.0021667
14170.0 0.0021567
14190.0 0.0021458
14210.0 0.0021336
14230.0 0.0021207
14250.0 0.0021075
14270.0 0.0020934
14290.0 0.0020789
14310.0 0.0020652
14330.0 0.0020521
14350.0 0.0020394
14370.0 0.0020282
14390.0 0.0020185
14410.0 0.0020098
14430.0 0.0020027
14450.0 0.0019971
14470.0 0.0019927
14490.0 0.0019894
14510.0 0.0019871
14530.0 0.0019855
14550.0 0.0019846
14570.0 0.0019845
14590.0 0.0019849
14610.0 0.0019861
14630.0 0.0019884
14650.0 0.0019918
14670.0 0.0019963
14690.0 0.0020027
14710.0 0.0020112
14730.0 0.0020208
14750.0 0.0020328
14770.0 0.0020474
14790.0 0.002064
14810.0 0.0020825
14830.0 0.0021051
14850.0 0.0021303
14870.0 0.0021572
14890.0 0.0021871
14910.0 0.0022199
14930.0 0.0022522
14950.0 0.0022831
14970.0 0.0023132
14990.0 0.0023389
15010.0 0.0023587
15030.0 0.0023734
15050.0 0.002383
15070.0 0.0023872
15090.0 0.0023881
15110.0 0.0023866
15130.0 0.0023836
15150.0 0.0023797
15170.0 0.0023753
15190.0 0.0023707
15210.0 0.0023661
15230.0 0.0023615
15250.0 0.0023567
15270.0 0.002352
15290.0 0.0023473
15310.0 0.0023426
15330.0 0.0023378
15350.0 0.0023331
15370.0 0.0023284
15390.0 0.0023236
15410.0 0.0023188
15430.0 0.0023141
15450.0 0.0023093
15470.0 0.0023045
15490.0 0.0022997
15510.0 0.002295
15530.0 0.0022901
15550.0 0.0022853
15570.0 0.0022806
15590.0 0.0022758
15610.0 0.0022709
15630.0 0.0022661
15650.0 0.0022613
15670.0 0.0022565
15690.0 0.0022516
15710.0 0.0022468
15730.0 0.002242
15750.0 0.0022371
15770.0 0.0022323
15790.0 0.0022275
15810.0 0.0022226
15830.0 0.0022177
15850.0 0.0022129
15870.0 0.002208
15890.0 0.0022032
15910.0 0.0021983
15930.0 0.0021935
15950.0 0.0021886
15970.0 0.0021837
15990.0 0.0021788
16010.0 0.0021739
16030.0 0.002169
16050.0 0.0021642
16070.0 0.0021593
16090.0 0.0021544
16110.0 0.0021495
16130.0 0.0021447
16150.0 0.0021397
16170.0 0.0021348
16190.0 0.0021299
16210.0 0.002125
16230.0 0.0021201
16250.0 0.0021152
16270.0 0.0021103
16290.0 0.0021054
16310.0 0.0021005
16330.0 0.0020956
16350.0 0.0020907
16370.0 0.0020857
16390.0 0.0020808
16410.0 0.0020759
16430.0 0.0020709
16450.0 0.002066
16470.0 0.0020611
16490.0 0.0020562
16510.0 0.0020512
16530.0 0.0020463
16550.0 0.0020414
16570.0 0.0020364
16590.0 0.0020315
16610.0 0.0020266
16630.0 0.0020216
16650.0 0.0020166
16670.0 0.0020117
16690.0 0.0020068
16710.0 0.0020018
16730.0 0.0019968
16750.0 0.0019919
16770.0 0.0019869
16790.0 0.0019819
16810.0 0.001977
16830.0 0.001972
16850.0 0.001967
16870.0 0.0019621
16890.0 0.0019571
16910.0 0.0019521
16930.0 0.0019471
16950.0 0.0019422
16970.0 0.0019372
16990.0 0.0019322
17010.0 0.0019272
17030.0 0.0019222
17050.0 0.0019172
17070.0 0.0019122
17090.0 0.0019072
17110.0 0.0019023
17130.0 0.0018972
17150.0 0.0018922
17170.0 0.0018872
17190.0 0.0018822
17210.0 0.0018772
17230.0 0.0018722
17250.0 0.0018672
17270.0 0.0018621
17290.0 0.0018571
17310.0 0.0018521
17330.0 0.0018471
17350.0 0.001842
17370.0 0.001837
17390.0 0.001832
17410.0 0.0018269
17430.0 0.0018219
17450.0 0.0018169
17470.0 0.0018118
17490.0 0.0018067
17510.0 0.0018017
17530.0 0.0017967
17550.0 0.0017916
17570.0 0.0017866
17590.0 0.0017815
17610.0 0.0017764
17630.0 0.0017714
17650.0 0.0017663
17670.0 0.0017613
17690.0 0.0017562
17710.0 0.0017511
17730.0 0.0017461
17750.0 0.001741
17770.0 0.0017359
17790.0 0.0017309
17810.0 0.0017258
17830.0 0.0017207
17850.0 0.0017157
17870.0 0.0017106
17890.0 0.0017055
17910.0 0.0017005
17930.0 0.0016954
17950.0 0.0016904
17970.0 0.0016853
17990.0 0.0016802
18010.0 0.0016752
18030.0 0.0016701
18050.0 0.001665
18070.0 0.00166
18090.0 0.0016549
18110.0 0.0016499
18130.0 0.0016448
18150.0 0.0016398
18170.0 0.0016347
18190.0 0.0016297
18210.0 0.0016247
18230.0 0.0016196
18250.0 0.0016146
18270.0 0.0016096
18290.0 0.0016045
18310.0 0.0015995
18330.0 0.0015945
18350.0 0.0015895
18370.0 0.0015845
18390.0 0.0015794
18410.0 0.0015745
18430.0 0.0015695
18450.0 0.0015644
18470.0 0.0015595
18490.0 0.0015545
18510.0 0.0015495
18530.0 0.0015446
18550.0 0.0015396
18570.0 0.0015347
18590.0 0.0015297
18610.0 0.0015248
18630.0 0.0015199
18650.0 0.0015149
18670.0 0.00151
18690.0 0.0015051
18710.0 0.0015002
18730.0 0.0014953
18750.0 0.0014905
18770.0 0.0014856
18790.0 0.0014807
18810.0 0.0014759
18830.0 0.0014711
18850.0 0.0014662
18870.0 0.0014614
18890.0 0.0014566
18910.0 0.0014518
18930.0 0.001447
18950.0 0.0014422
18970.0 0.0014375
18990.0 0.0014327
19010.0 0.001428
19030.0 0.0014233
19050.0 0.0014186
19070.0 0.0014138
19090.0 0.0014092
19110.0 0.0014045
19130.0 0.0013998
19150.0 0.0013952
19170.0 0.0013905
19190.0 0.0013859
19210.0 0.0013813
19230.0 0.0013767
19250.0 0.0013722
19270.0 0.0013676
19290.0 0.001363
19310.0 0.0013585
19330.0 0.001354
19350.0 0.0013495
19370.0 0.001345
19390.0 0.0013405
19410.0 0.0013361
19430.0 0.0013316
19450.0 0.0013272
19470.0 0.0013228
19490.0 0.0013184
19510.0 0.001314
19530.0 0.0013097
19550.0 0.0013053
19570.0 0.0013009
19590.0 0.0012967
19610.0 0.0012924
19630.0 0.0012881
19650.0 0.0012838
19670.0 0.0012796
19690.0 0.0012753
19710.0 0.0012711
19730.0 0.001267
19750.0 0.0012628
19770.0 0.0012586
19790.0 0.0012545
19810.0 0.0012504
19830.0 0.0012462
19850.0 0.001242
19870.0 0.0012378
19890.0 0.0012333
19910.0 0.0012283
19930.0 0.0012227
19950.0 0.0012161
19970.0 0.0012078
19990.0 0.0011975
20010.0 0.0011856
20030.0 0.0011711
20050.0 0.0011544
20070.0 0.0011363
20090.0 0.0011172
20110.0 0.0010961
20130.0 0.0010753
20150.0 0.0010549
20170.0 0.0010344
20190.0 0.0010139
20210.0 0.00099477
20230.0 0.00097619
20250.0 0.00095764
20270.0 0.00094016
20290.0 0.00092378
20310.0 0.00090773
20330.0 0.00089199
20350.0 0.00087786
20370.0 0.00086425
20390.0 0.00085101
20410.0 0.00083869
20430.0 0.00082739
20450.0 0.00081629
20470.0 0.00080597
20490.0 0.00079669
20510.0 0.00078811
20530.0 0.0007801
20550.0 0.00077307
20570.0 0.00076698
20590.0 0.00076151
20610.0 0.00075686
20630.0 0.00075307
20650.0 0.00074998
20670.0 0.00074758
20690.0 0.0007459
20710.0 0.00074481
20730.0 0.0007443
20750.0 0.0007443
20770.0 0.00074461
20790.0 0.00074529
20810.0 0.0007463
20830.0 0.00074741
20850.0 0.00074855
20870.0 0.00074982
20890.0 0.000751
20910.0 0.00075186
20930.0 0.00075254
20950.0 0.00075294
20970.0 0.00075288
20990.0 0.00075239
21010.0 0.00075146
21030.0 0.00074997
21050.0 0.00074796
21070.0 0.00074541
21090.0 0.00074224
21110.0 0.00073863
21130.0 0.00073456
21150.0 0.00072993
21170.0 0.00072491
21190.0 0.00071965
21210.0 0.00071393
21230.0 0.00070783
21250.0 0.0007017
21270.0 0.00069544
21290.0 0.00068889
21310.0 0.00068234
21330.0 0.00067601
21350.0 0.00066957
21370.0 0.00066316
21390.0 0.00065707
21410.0 0.00065122
21430.0 0.00064538
21450.0 0.00064002
21470.0 0.00063515
21490.0 0.00063058
21510.0 0.00062645
21530.0 0.00062294
21550.0 0.00061992
21570.0 0.00061741
21590.0 0.00061553
21610.0 0.00061424
21630.0 0.00061355
21650.0 0.00061351
21670.0 0.00061396
21690.0 0.00061495
21710.0 0.00061653
21730.0 0.00061851
21750.0 0.00062076
21770.0 0.00062357
21790.0 0.00062663
21810.0 0.00062974
21830.0 0.000633
21850.0 0.00063646
21870.0 0.00063976
21890.0 0.00064283
21910.0 0.00064593
21930.0 0.0006488
21950.0 0.00065127
21970.0 0.0006535
21990.0 0.00065555
22010.0 0.00065708
22030.0 0.00065822
22050.0 0.00065905
22070.0 0.00065949
22090.0 0.0006595
22110.0 0.00065919
22130.0 0.00065852
22150.0 0.00065748
22170.0 0.00065613
22190.0 0.00065442
22210.0 0.00065237
22230.0 0.00065007
22250.0 0.00064744
22270.0 0.00064447
22290.0 0.00064125
22310.0 0.00063777
22330.0 0.00063385
22350.0 0.00062964
22370.0 0.00062522
22390.0 0.0006204
22410.0 0.0006151
22430.0 0.00060967
22450.0 0.00060394
22470.0 0.00059771
22490.0 0.0005912
22510.0 0.0005846
22530.0 0.00057748
22550.0 0.00056998
22570.0 0.00056255
22590.0 0.00055495
22610.0 0.000547
22630.0 0.00053907
22650.0 0.00053143
22670.0 0.00052358
22690.0 0.00051577
22710.0 0.00050836
22730.0 0.00050117
22750.0 0.00049389
22770.0 0.00048717
22790.0 0.00048095
22810.0 0.00047491
22830.0 0.0004692
22850.0 0.00046407
22870.0 0.00045925
22890.0 0.00045465
22910.0 0.00045051
22930.0 0.00044676
22950.0 0.00044322
22970.0 0.00043989
22990.0 0.00043697
23010.0 0.00043419
23030.0 0.00043153
23050.0 0.00042903
23070.0 0.00042668
23090.0 0.00042428
23110.0 0.00042191
23130.0 0.00041959
23150.0 0.00041722
23170.0 0.00041474
23190.0 0.00041225
23210.0 0.00040976
23230.0 0.00040713
23250.0 0.00040447
23270.0 0.00040187
23290.0 0.00039923
23310.0 0.00039654
23330.0 0.00039401
23350.0 0.00039159
23370.0 0.0003892
23390.0 0.00038693
23410.0 0.00038486
23430.0 0.00038286
23450.0 0.00038094
23470.0 0.00037917
23490.0 0.00037751
23510.0 0.00037587
23530.0 0.00037431
23550.0 0.00037285
23570.0 0.00037139
23590.0 0.00036994
23610.0 0.00036854
23630.0 0.00036716
23650.0 0.00036574
23670.0 0.00036437
23690.0 0.00036306
23710.0 0.00036178
23730.0 0.00036056
23750.0 0.0003595
23770.0 0.00035859
23790.0 0.00035787
23810.0 0.00035741
