#lamb flux
1010.0 8.8288e-08
1030.0 9.7779e-08
1050.0 1.087e-07
1070.0 1.2098e-07
1090.0 1.3494e-07
1110.0 1.4926e-07
1130.0 1.6367e-07
1150.0 1.7876e-07
1170.0 1.9433e-07
1190.0 2.0909e-07
1210.0 2.2405e-07
1230.0 2.3952e-07
1250.0 2.5466e-07
1270.0 2.6937e-07
1290.0 2.8492e-07
1310.0 3.0045e-07
1330.0 3.1534e-07
1350.0 3.3041e-07
1370.0 3.4596e-07
1390.0 3.6112e-07
1410.0 3.7582e-07
1430.0 3.912e-07
1450.0 4.0657e-07
1470.0 4.2142e-07
1490.0 4.3643e-07
1510.0 4.5229e-07
1530.0 4.673e-07
1550.0 4.8211e-07
1570.0 4.9743e-07
1590.0 5.1275e-07
1610.0 5.2738e-07
1630.0 5.4246e-07
1650.0 5.5791e-07
1670.0 5.7285e-07
1690.0 5.8758e-07
1710.0 6.0286e-07
1730.0 6.182e-07
1750.0 6.3259e-07
1770.0 6.4737e-07
1790.0 6.6242e-07
1810.0 6.7693e-07
1830.0 6.9113e-07
1850.0 7.0617e-07
1870.0 7.2073e-07
1890.0 7.347e-07
1910.0 7.4887e-07
1930.0 7.633e-07
1950.0 7.7691e-07
1970.0 7.9022e-07
1990.0 8.0392e-07
2010.0 8.1719e-07
2030.0 8.2976e-07
2050.0 8.4254e-07
2070.0 8.5547e-07
2090.0 8.6728e-07
2110.0 8.7878e-07
2130.0 8.904e-07
2150.0 9.0141e-07
2170.0 9.1145e-07
2190.0 9.2163e-07
2210.0 9.315e-07
2230.0 9.4036e-07
2250.0 9.4871e-07
2270.0 9.5719e-07
2290.0 9.6472e-07
2310.0 9.712e-07
2330.0 9.7761e-07
2350.0 9.8374e-07
2370.0 9.8906e-07
2390.0 9.9461e-07
2410.0 1.0016e-06
2430.0 1.0096e-06
2450.0 1.0195e-06
2470.0 1.0334e-06
2490.0 1.0521e-06
2510.0 1.0739e-06
2530.0 1.1022e-06
2550.0 1.1412e-06
2570.0 1.1943e-06
2590.0 1.2683e-06
2610.0 1.3852e-06
2630.0 1.5531e-06
2650.0 1.768e-06
2670.0 2.0376e-06
2690.0 2.3564e-06
2710.0 2.6795e-06
2730.0 2.9803e-06
2750.0 3.2592e-06
2770.0 3.4814e-06
2790.0 3.6366e-06
2810.0 3.741e-06
2830.0 3.8046e-06
2850.0 3.8265e-06
2870.0 3.8254e-06
2890.0 3.8119e-06
2910.0 3.7894e-06
2930.0 3.761e-06
2950.0 3.7321e-06
2970.0 3.7035e-06
2990.0 3.6744e-06
3010.0 0.00011034
3030.0 0.00010955
3050.0 0.00010877
3070.0 0.00010793
3090.0 0.00010705
3110.0 0.00010602
3130.0 0.00010471
3150.0 0.00010303
3170.0 0.00010081
3190.0 9.8088e-05
3210.0 9.5035e-05
3230.0 9.1784e-05
3250.0 8.8562e-05
3270.0 8.6165e-05
3290.0 8.4428e-05
3310.0 8.4074e-05
3330.0 8.4714e-05
3350.0 8.6288e-05
3370.0 8.8797e-05
3390.0 9.2125e-05
3410.0 9.5847e-05
3430.0 0.00010011
3450.0 0.00010508
3470.0 0.00011058
3490.0 0.00011648
3510.0 0.0001232
3530.0 0.00013054
3550.0 0.00013839
3570.0 0.00014705
3590.0 0.00015681
3610.0 0.00016769
3630.0 0.00017871
3650.0 0.00019042
3670.0 0.0002011
3690.0 0.00020914
3710.0 0.0002133
3730.0 0.00021126
3750.0 0.00020293
3770.0 0.00020323
3790.0 0.00019426
3810.0 0.0001509
3830.0 0.00013918
3850.0 0.00018569
3870.0 0.00016251
3890.0 0.00013304
3910.0 0.00015558
3930.0 0.0002048
3950.0 0.00023373
3970.0 0.00027134
3990.0 0.00021747
4010.0 0.00033664
4030.0 0.00030924
4050.0 0.00029102
4070.0 0.00033111
4090.0 0.00031793
4110.0 0.00031602
4130.0 0.00038958
4150.0 0.00049564
4170.0 0.00040632
4190.0 0.00036313
4210.0 0.00040074
4230.0 0.00049582
4250.0 0.00057747
4270.0 0.00062309
4290.0 0.00057179
4310.0 0.00053251
4330.0 0.00054041
4350.0 0.00068684
4370.0 0.00082556
4390.0 0.00067316
4410.0 0.00041064
4430.0 0.00030333
4450.0 0.00027364
4470.0 0.00020689
4490.0 0.00031299
4510.0 0.00056143
4530.0 0.00067322
4550.0 0.0006687
4570.0 0.00063504
4590.0 0.00070365
4610.0 0.0012716
4630.0 0.0017365
4650.0 0.0016462
4670.0 0.0014668
4690.0 0.001543
4710.0 0.0016291
4730.0 0.0013167
4750.0 0.00084948
4770.0 0.00061445
4790.0 0.00067309
4810.0 0.00068737
4830.0 0.00067568
4850.0 0.00074403
4870.0 0.00098382
4890.0 0.0011439
4910.0 0.00089083
4930.0 0.0008435
4950.0 0.00096743
4970.0 0.0013053
4990.0 0.0017511
5010.0 0.0019866
5030.0 0.0015766
5050.0 0.00095015
5070.0 0.00067468
5090.0 0.00053662
5110.0 0.00051457
5130.0 0.00059756
5150.0 0.00058154
5170.0 0.00055412
5190.0 0.00050698
5210.0 0.00053835
5230.0 0.00064929
5250.0 0.0007485
5270.0 0.00071834
5290.0 0.00079225
5310.0 0.0010274
5330.0 0.001076
5350.0 0.0010612
5370.0 0.0011967
5390.0 0.001461
5410.0 0.0012647
5430.0 0.00097036
5450.0 0.00096296
5470.0 0.0011261
5490.0 0.0014328
5510.0 0.0017758
5530.0 0.0020442
5550.0 0.0018568
5570.0 0.0016579
5590.0 0.0013778
5610.0 0.0013825
5630.0 0.0015142
5650.0 0.0014334
5670.0 0.001336
5690.0 0.001103
5710.0 0.0011172
5730.0 0.0010808
5750.0 0.00059721
5770.0 0.00045197
5790.0 0.00055288
5810.0 0.00061312
5830.0 0.00089292
5850.0 0.0011269
5870.0 0.0011877
5890.0 0.0011225
5910.0 0.0010824
5930.0 0.0010581
5950.0 0.0010997
5970.0 0.0013342
5990.0 0.0011171
6010.0 0.00086679
6030.0 0.00070485
6050.0 0.00062384
6070.0 0.0007285
6090.0 0.0008307
6110.0 0.00085643
6130.0 0.00078278
6150.0 0.00063311
6170.0 0.00055037
6190.0 0.00068556
6210.0 0.0010194
6230.0 0.0014201
6250.0 0.0014921
6270.0 0.0011683
6290.0 0.00099125
6310.0 0.00076202
6330.0 0.00056495
6350.0 0.00054524
6370.0 0.0005751
6390.0 0.00069528
6410.0 0.00087585
6430.0 0.0010496
6450.0 0.0012859
6470.0 0.0013978
6490.0 0.0016957
6510.0 0.0019035
6530.0 0.0018888
6550.0 0.0017381
6570.0 0.0014729
6590.0 0.0014275
6610.0 0.0011972
6630.0 0.0012114
6650.0 0.0011544
6670.0 0.0010545
6690.0 0.00087661
6710.0 0.00083458
6730.0 0.00047699
6750.0 0.0005449
6770.0 0.00074634
6790.0 0.00096398
6810.0 0.00074554
6830.0 0.00076355
6850.0 0.00066788
6870.0 0.00063501
6890.0 0.0005606
6910.0 0.00062987
6930.0 0.00058937
6950.0 0.00068366
6970.0 0.00069561
6990.0 0.00077196
7010.0 0.00077548
7030.0 0.00083031
7050.0 0.00072904
7070.0 0.00063742
7090.0 0.00065356
7110.0 0.00066276
7130.0 0.00074018
7150.0 0.00083474
7170.0 0.00092376
7190.0 0.00096051
7210.0 0.0008602
7230.0 0.00087076
7250.0 0.00095519
7270.0 0.0010601
7290.0 0.0012605
7310.0 0.0012876
7330.0 0.0011693
7350.0 0.0010419
7370.0 0.00080615
7390.0 0.00084066
7410.0 0.0010138
7430.0 0.0011429
7450.0 0.00123
7470.0 0.0011786
7490.0 0.0010666
7510.0 0.0015682
7530.0 0.001409
7550.0 0.0012771
7570.0 0.00088045
7590.0 0.00043571
7610.0 0.00033017
7630.0 0.00045085
7650.0 0.00058185
7670.0 0.00086652
7690.0 0.00097782
7710.0 0.00090925
7730.0 0.00089834
7750.0 0.0011197
7770.0 0.0011384
7790.0 0.0010565
7810.0 0.00090083
7830.0 0.00094729
7850.0 0.00099559
7870.0 0.00096213
7890.0 0.00077441
7910.0 0.00054231
7930.0 0.00053394
7950.0 0.00047979
7970.0 0.00041774
7990.0 0.00038848
8010.0 0.00036098
8030.0 0.00034576
8050.0 0.00036275
8070.0 0.00038163
8090.0 0.00043024
8110.0 0.00040299
8130.0 0.0002863
8150.0 0.00027932
8170.0 0.00020475
8190.0 0.00017001
8210.0 0.00025805
8230.0 0.00029419
8250.0 0.00018884
8270.0 0.00016157
8290.0 0.00018717
8310.0 0.0001452
8330.0 9.071e-05
8350.0 7.0664e-05
8370.0 3.9886e-05
8390.0 7.9576e-05
8410.0 9.6761e-05
8430.0 0.00012021
8450.0 0.00013442
8470.0 0.00018863
8490.0 0.00016454
8510.0 0.00014269
8530.0 0.00010675
8550.0 0.00021475
8570.0 0.00030857
8590.0 0.00026187
8610.0 0.00035754
8630.0 0.00039814
8650.0 0.00029729
8670.0 0.00035949
8690.0 0.00046257
8710.0 0.00041262
8730.0 0.00042557
8750.0 0.00035651
8770.0 0.00032802
8790.0 0.00034908
8810.0 0.0003598
8830.0 0.00023779
8850.0 0.00014862
8870.0 0.00011639
8890.0 0.00017391
8910.0 0.00023735
8930.0 0.00029153
8950.0 0.0003308
8970.0 0.00032508
8990.0 0.00027062
9010.0 0.00020524
9030.0 0.00017777
9050.0 0.00018307
9070.0 0.00018801
9090.0 0.00019189
9110.0 0.0001963
9130.0 0.00019957
9150.0 0.00020201
9170.0 0.0002046
9190.0 0.00020738
9210.0 0.00021029
9230.0 0.00021337
9250.0 0.00021652
9270.0 0.00021978
9290.0 0.00022313
9310.0 0.00022652
9330.0 0.00022998
9350.0 0.00023354
9370.0 0.00023716
9390.0 0.00024082
9410.0 0.00024458
9430.0 0.00024843
9450.0 0.0002523
9470.0 0.00025624
9490.0 0.00026029
9510.0 0.00026438
9530.0 0.00026852
9550.0 0.00027277
9570.0 0.00027709
9590.0 0.00028145
9610.0 0.00028588
9630.0 0.00029041
9650.0 0.00029499
9670.0 0.00029959
9690.0 0.0003043
9710.0 0.00030908
9730.0 0.00031389
9750.0 0.00031876
9770.0 0.00032375
9790.0 0.00032875
9810.0 0.00033379
9830.0 0.00033892
9850.0 0.0003441
9870.0 0.0003493
9890.0 0.00035456
9910.0 0.0003599
9930.0 0.00036525
9950.0 0.00037064
9970.0 0.0003761
9990.0 0.0003816
10010.0 0.00035286
10030.0 0.00035782
10050.0 0.00036282
10070.0 0.00036776
10090.0 0.00037279
10110.0 0.00037788
10130.0 0.00038296
10150.0 0.00038803
10170.0 0.00039311
10190.0 0.00039823
10210.0 0.00040331
10230.0 0.00040837
10250.0 0.00041347
10270.0 0.00041855
10290.0 0.00042358
10310.0 0.00042863
10330.0 0.00043369
10350.0 0.00043868
10370.0 0.00044365
10390.0 0.00044861
10410.0 0.00045354
10430.0 0.00045839
10450.0 0.00046323
10470.0 0.00046804
10490.0 0.00047277
10510.0 0.00047745
10530.0 0.00048212
10550.0 0.00048671
10570.0 0.00049121
10590.0 0.00049566
10610.0 0.00050007
10630.0 0.00050436
10650.0 0.00050859
10670.0 0.00051277
10690.0 0.00051685
10710.0 0.00052083
10730.0 0.00052475
10750.0 0.0005286
10770.0 0.00053231
10790.0 0.00053592
10810.0 0.00053946
10830.0 0.00054286
10850.0 0.00054608
10870.0 0.00054913
10890.0 0.00055181
10910.0 0.00055393
10930.0 0.00055524
10950.0 0.00055527
10970.0 0.00055366
10990.0 0.00055027
11010.0 0.00055842
11030.0 0.00055001
11050.0 0.0005396
11070.0 0.00052701
11090.0 0.00051175
11110.0 0.0004959
11130.0 0.00047932
11150.0 0.00046146
11170.0 0.0004431
11190.0 0.00042536
11210.0 0.00040715
11230.0 0.00038863
11250.0 0.00037109
11270.0 0.0003544
11290.0 0.00033783
11310.0 0.00032228
11330.0 0.00030865
11350.0 0.00029584
11370.0 0.00028401
11390.0 0.00027373
11410.0 0.00026466
11430.0 0.00025611
11450.0 0.00024856
11470.0 0.00024183
11490.0 0.00023538
11510.0 0.00022896
11530.0 0.00022284
11550.0 0.00021665
11570.0 0.00021001
11590.0 0.00020314
11610.0 0.00019617
11630.0 0.00018868
11650.0 0.00018077
11670.0 0.00017303
11690.0 0.00016527
11710.0 0.00015735
11730.0 0.00014972
11750.0 0.00014269
11770.0 0.00013582
11790.0 0.00012938
11810.0 0.00012368
11830.0 0.00011854
11850.0 0.00011377
11870.0 0.00010969
11890.0 0.0001062
11910.0 0.00010304
11930.0 0.00010021
11950.0 9.7741e-05
11970.0 9.5436e-05
11990.0 9.3177e-05
12010.0 9.1014e-05
12030.0 8.8884e-05
12050.0 8.6672e-05
12070.0 8.4369e-05
12090.0 8.213e-05
12110.0 7.9847e-05
12130.0 7.7532e-05
12150.0 7.5326e-05
12170.0 7.3292e-05
12190.0 7.136e-05
12210.0 6.9712e-05
12230.0 6.8421e-05
12250.0 6.748e-05
12270.0 6.6954e-05
12290.0 6.6875e-05
12310.0 6.7208e-05
12330.0 6.8022e-05
12350.0 6.9276e-05
12370.0 7.0849e-05
12390.0 7.2786e-05
12410.0 7.5171e-05
12430.0 7.7626e-05
12450.0 8.019e-05
12470.0 8.2938e-05
12490.0 8.5687e-05
12510.0 8.8221e-05
12530.0 9.0718e-05
12550.0 9.3085e-05
12570.0 9.5097e-05
12590.0 9.6787e-05
12610.0 9.8226e-05
12630.0 9.9268e-05
12650.0 9.9837e-05
12670.0 0.00010006
12690.0 9.9886e-05
12710.0 9.9313e-05
12730.0 9.8391e-05
12750.0 9.71e-05
12770.0 9.5496e-05
12790.0 9.3655e-05
12810.0 9.1554e-05
12830.0 8.9204e-05
12850.0 8.6776e-05
12870.0 8.4244e-05
12890.0 8.1547e-05
12910.0 7.8816e-05
12930.0 7.6122e-05
12950.0 7.3325e-05
12970.0 7.0477e-05
12990.0 6.7755e-05
13010.0 6.5051e-05
13030.0 6.2304e-05
13050.0 5.9637e-05
13070.0 5.7105e-05
13090.0 5.4546e-05
13110.0 5.2046e-05
13130.0 4.9708e-05
13150.0 4.747e-05
13170.0 4.5264e-05
13190.0 4.3269e-05
13210.0 4.1485e-05
13230.0 3.9832e-05
13250.0 3.8375e-05
13270.0 3.7181e-05
13290.0 3.6198e-05
13310.0 3.5441e-05
13330.0 3.496e-05
13350.0 3.4733e-05
13370.0 3.4763e-05
13390.0 3.5062e-05
13410.0 3.5562e-05
13430.0 3.628e-05
13450.0 3.722e-05
13470.0 3.8295e-05
13490.0 3.9453e-05
13510.0 4.079e-05
13530.0 4.2162e-05
13550.0 4.3485e-05
13570.0 4.4805e-05
13590.0 4.6107e-05
13610.0 4.7273e-05
13630.0 4.8295e-05
13650.0 4.9238e-05
13670.0 5.0023e-05
13690.0 5.0625e-05
13710.0 5.1086e-05
13730.0 5.1409e-05
13750.0 5.1548e-05
13770.0 5.1546e-05
13790.0 5.1414e-05
13810.0 5.1151e-05
13830.0 5.0783e-05
13850.0 5.0305e-05
13870.0 4.9719e-05
13890.0 4.9063e-05
13910.0 4.8337e-05
13930.0 4.7518e-05
13950.0 4.664e-05
13970.0 4.5755e-05
13990.0 4.4811e-05
14010.0 4.3823e-05
14030.0 4.2852e-05
14050.0 4.1886e-05
14070.0 4.0881e-05
14090.0 3.9929e-05
14110.0 3.904e-05
14130.0 3.8187e-05
14150.0 3.7389e-05
14170.0 3.6709e-05
14190.0 3.6122e-05
14210.0 3.5623e-05
14230.0 3.5251e-05
14250.0 3.5004e-05
14270.0 3.4877e-05
14290.0 3.4886e-05
14310.0 3.5019e-05
14330.0 3.5272e-05
14350.0 3.5654e-05
14370.0 3.6139e-05
14390.0 3.6699e-05
14410.0 3.737e-05
14430.0 3.812e-05
14450.0 3.8904e-05
14470.0 3.9735e-05
14490.0 4.0646e-05
14510.0 4.1546e-05
14530.0 4.2435e-05
14550.0 4.3363e-05
14570.0 4.4299e-05
14590.0 4.5201e-05
14610.0 4.6125e-05
14630.0 4.7096e-05
14650.0 4.8057e-05
14670.0 4.9032e-05
14690.0 5.0085e-05
14710.0 5.1214e-05
14730.0 5.2349e-05
14750.0 5.359e-05
14770.0 5.496e-05
14790.0 5.6396e-05
14810.0 5.7897e-05
14830.0 5.9598e-05
14850.0 6.1372e-05
14870.0 6.3156e-05
14890.0 6.5013e-05
14910.0 6.6922e-05
14930.0 6.8714e-05
14950.0 7.0357e-05
14970.0 7.1887e-05
14990.0 7.3161e-05
15010.0 7.414e-05
15030.0 7.4876e-05
15050.0 7.538e-05
15070.0 7.5661e-05
15090.0 7.5804e-05
15110.0 7.5852e-05
15130.0 7.584e-05
15150.0 7.5803e-05
15170.0 7.5746e-05
15190.0 7.5679e-05
15210.0 7.5617e-05
15230.0 7.5557e-05
15250.0 7.549e-05
15270.0 7.5427e-05
15290.0 7.5374e-05
15310.0 7.5316e-05
15330.0 7.5257e-05
15350.0 7.5206e-05
15370.0 7.5156e-05
15390.0 7.5097e-05
15410.0 7.5045e-05
15430.0 7.4998e-05
15450.0 7.4947e-05
15470.0 7.4893e-05
15490.0 7.4848e-05
15510.0 7.4804e-05
15530.0 7.4753e-05
15550.0 7.4706e-05
15570.0 7.4664e-05
15590.0 7.4614e-05
15610.0 7.4562e-05
15630.0 7.452e-05
15650.0 7.4475e-05
15670.0 7.4425e-05
15690.0 7.4378e-05
15710.0 7.4337e-05
15730.0 7.4288e-05
15750.0 7.4237e-05
15770.0 7.4192e-05
15790.0 7.4146e-05
15810.0 7.4089e-05
15830.0 7.4039e-05
15850.0 7.3994e-05
15870.0 7.394e-05
15890.0 7.3885e-05
15910.0 7.3837e-05
15930.0 7.3784e-05
15950.0 7.3723e-05
15970.0 7.3667e-05
15990.0 7.3613e-05
16010.0 7.3551e-05
16030.0 7.3485e-05
16050.0 7.343e-05
16070.0 7.3368e-05
16090.0 7.33e-05
16110.0 7.3235e-05
16130.0 7.3174e-05
16150.0 7.3097e-05
16170.0 7.3023e-05
16190.0 7.2955e-05
16210.0 7.2881e-05
16230.0 7.2799e-05
16250.0 7.2724e-05
16270.0 7.2649e-05
16290.0 7.2563e-05
16310.0 7.2477e-05
16330.0 7.2396e-05
16350.0 7.2308e-05
16370.0 7.2209e-05
16390.0 7.212e-05
16410.0 7.2029e-05
16430.0 7.1929e-05
16450.0 7.1829e-05
16470.0 7.1735e-05
16490.0 7.163e-05
16510.0 7.1519e-05
16530.0 7.1414e-05
16550.0 7.1306e-05
16570.0 7.1188e-05
16590.0 7.107e-05
16610.0 7.0959e-05
16630.0 7.0839e-05
16650.0 7.0713e-05
16670.0 7.0592e-05
16690.0 7.0469e-05
16710.0 7.0331e-05
16730.0 7.0198e-05
16750.0 7.0068e-05
16770.0 6.9929e-05
16790.0 6.9783e-05
16810.0 6.9646e-05
16830.0 6.9504e-05
16850.0 6.9353e-05
16870.0 6.9203e-05
16890.0 6.9056e-05
16910.0 6.8897e-05
16930.0 6.8733e-05
16950.0 6.8578e-05
16970.0 6.8417e-05
16990.0 6.8247e-05
17010.0 6.808e-05
17030.0 6.7917e-05
17050.0 6.774e-05
17070.0 6.7562e-05
17090.0 6.7388e-05
17110.0 6.721e-05
17130.0 6.7019e-05
17150.0 6.6835e-05
17170.0 6.6653e-05
17190.0 6.6461e-05
17210.0 6.6266e-05
17230.0 6.6077e-05
17250.0 6.5881e-05
17270.0 6.5675e-05
17290.0 6.5474e-05
17310.0 6.5274e-05
17330.0 6.5064e-05
17350.0 6.485e-05
17370.0 6.4647e-05
17390.0 6.4435e-05
17410.0 6.4215e-05
17430.0 6.4e-05
17450.0 6.3787e-05
17470.0 6.3557e-05
17490.0 6.3331e-05
17510.0 6.311e-05
17530.0 6.2882e-05
17550.0 6.2647e-05
17570.0 6.2419e-05
17590.0 6.219e-05
17610.0 6.195e-05
17630.0 6.1711e-05
17650.0 6.1477e-05
17670.0 6.1235e-05
17690.0 6.0983e-05
17710.0 6.0743e-05
17730.0 6.05e-05
17750.0 6.0248e-05
17770.0 5.9998e-05
17790.0 5.9754e-05
17810.0 5.9498e-05
17830.0 5.9239e-05
17850.0 5.8986e-05
17870.0 5.8732e-05
17890.0 5.8467e-05
17910.0 5.8204e-05
17930.0 5.795e-05
17950.0 5.7686e-05
17970.0 5.7418e-05
17990.0 5.7157e-05
18010.0 5.6894e-05
18030.0 5.6618e-05
18050.0 5.6349e-05
18070.0 5.6084e-05
18090.0 5.581e-05
18110.0 5.5533e-05
18130.0 5.5266e-05
18150.0 5.4994e-05
18170.0 5.4715e-05
18190.0 5.4439e-05
18210.0 5.4168e-05
18230.0 5.3886e-05
18250.0 5.3602e-05
18270.0 5.3328e-05
18290.0 5.305e-05
18310.0 5.2765e-05
18330.0 5.2485e-05
18350.0 5.2209e-05
18370.0 5.1923e-05
18390.0 5.1637e-05
18410.0 5.1358e-05
18430.0 5.1075e-05
18450.0 5.0783e-05
18470.0 5.05e-05
18490.0 5.022e-05
18510.0 4.9932e-05
18530.0 4.9645e-05
18550.0 4.9365e-05
18570.0 4.9078e-05
18590.0 4.8786e-05
18610.0 4.8501e-05
18630.0 4.8218e-05
18650.0 4.7927e-05
18670.0 4.7636e-05
18690.0 4.7356e-05
18710.0 4.707e-05
18730.0 4.6779e-05
18750.0 4.6494e-05
18770.0 4.6213e-05
18790.0 4.5918e-05
18810.0 4.5629e-05
18830.0 4.5348e-05
18850.0 4.5061e-05
18870.0 4.477e-05
18890.0 4.4488e-05
18910.0 4.4207e-05
18930.0 4.3917e-05
18950.0 4.3631e-05
18970.0 4.3351e-05
18990.0 4.3065e-05
19010.0 4.2773e-05
19030.0 4.2494e-05
19050.0 4.2214e-05
19070.0 4.1927e-05
19090.0 4.1645e-05
19110.0 4.137e-05
19130.0 4.1085e-05
19150.0 4.08e-05
19170.0 4.0523e-05
19190.0 4.0245e-05
19210.0 3.996e-05
19230.0 3.968e-05
19250.0 3.9409e-05
19270.0 3.913e-05
19290.0 3.885e-05
19310.0 3.8579e-05
19330.0 3.8306e-05
19350.0 3.8023e-05
19370.0 3.775e-05
19390.0 3.7481e-05
19410.0 3.7206e-05
19430.0 3.6931e-05
19450.0 3.6665e-05
19470.0 3.6397e-05
19490.0 3.6123e-05
19510.0 3.5856e-05
19530.0 3.5592e-05
19550.0 3.5321e-05
19570.0 3.505e-05
19590.0 3.479e-05
19610.0 3.4527e-05
19630.0 3.4259e-05
19650.0 3.3998e-05
19670.0 3.3742e-05
19690.0 3.3477e-05
19710.0 3.3215e-05
19730.0 3.296e-05
19750.0 3.2702e-05
19770.0 3.2438e-05
19790.0 3.2184e-05
19810.0 3.1933e-05
19830.0 3.1675e-05
19850.0 3.1418e-05
19870.0 3.1167e-05
19890.0 3.0904e-05
19910.0 3.0626e-05
19930.0 3.034e-05
19950.0 3.003e-05
19970.0 2.9673e-05
19990.0 2.9269e-05
20010.0 2.8432e-05
20030.0 2.7931e-05
20050.0 2.7368e-05
20070.0 2.6774e-05
20090.0 2.6151e-05
20110.0 2.5465e-05
20130.0 2.4783e-05
20150.0 2.4117e-05
20170.0 2.3437e-05
20190.0 2.2756e-05
20210.0 2.2118e-05
20230.0 2.15e-05
20250.0 2.0886e-05
20270.0 2.0316e-05
20290.0 1.9795e-05
20310.0 1.9299e-05
20330.0 1.8833e-05
20350.0 1.844e-05
20370.0 1.8087e-05
20390.0 1.7771e-05
20410.0 1.7509e-05
20430.0 1.7298e-05
20450.0 1.7124e-05
20470.0 1.6996e-05
20490.0 1.6912e-05
20510.0 1.6867e-05
20530.0 1.6859e-05
20550.0 1.6886e-05
20570.0 1.694e-05
20590.0 1.7025e-05
20610.0 1.7135e-05
20630.0 1.7262e-05
20650.0 1.7409e-05
20670.0 1.7582e-05
20690.0 1.7759e-05
20710.0 1.7944e-05
20730.0 1.8144e-05
20750.0 1.8354e-05
20770.0 1.8557e-05
20790.0 1.8769e-05
20810.0 1.8991e-05
20830.0 1.9208e-05
20850.0 1.9422e-05
20870.0 1.9649e-05
20890.0 1.9878e-05
20910.0 2.0093e-05
20930.0 2.0315e-05
20950.0 2.0542e-05
20970.0 2.0762e-05
20990.0 2.0976e-05
21010.0 2.1201e-05
21030.0 2.1421e-05
21050.0 2.1629e-05
21070.0 2.1837e-05
21090.0 2.2048e-05
21110.0 2.2239e-05
21130.0 2.242e-05
21150.0 2.2599e-05
21170.0 2.2764e-05
21190.0 2.2909e-05
21210.0 2.3045e-05
21230.0 2.3166e-05
21250.0 2.326e-05
21270.0 2.3333e-05
21290.0 2.3383e-05
21310.0 2.3404e-05
21330.0 2.3394e-05
21350.0 2.3353e-05
21370.0 2.3276e-05
21390.0 2.3163e-05
21410.0 2.3014e-05
21430.0 2.2816e-05
21450.0 2.2582e-05
21470.0 2.2316e-05
21490.0 2.2007e-05
21510.0 2.1658e-05
21530.0 2.1291e-05
21550.0 2.0897e-05
21570.0 2.0467e-05
21590.0 2.0031e-05
21610.0 1.9599e-05
21630.0 1.9153e-05
21650.0 1.8704e-05
21670.0 1.8298e-05
21690.0 1.7908e-05
21710.0 1.7537e-05
21730.0 1.721e-05
21750.0 1.6931e-05
21770.0 1.6683e-05
21790.0 1.6488e-05
21810.0 1.6349e-05
21830.0 1.626e-05
21850.0 1.6222e-05
21870.0 1.6237e-05
21890.0 1.6296e-05
21910.0 1.6406e-05
21930.0 1.6559e-05
21950.0 1.6745e-05
21970.0 1.6968e-05
21990.0 1.7236e-05
22010.0 1.7519e-05
22030.0 1.7818e-05
22050.0 1.8147e-05
22070.0 1.849e-05
22090.0 1.8826e-05
22110.0 1.9176e-05
22130.0 1.9537e-05
22150.0 1.9884e-05
22170.0 2.0221e-05
22190.0 2.0564e-05
22210.0 2.0892e-05
22230.0 2.1186e-05
22250.0 2.147e-05
22270.0 2.1737e-05
22290.0 2.1968e-05
22310.0 2.2171e-05
22330.0 2.2354e-05
22350.0 2.2499e-05
22370.0 2.2605e-05
22390.0 2.2677e-05
22410.0 2.2712e-05
22430.0 2.2704e-05
22450.0 2.2657e-05
22470.0 2.2567e-05
22490.0 2.2434e-05
22510.0 2.2265e-05
22530.0 2.2047e-05
22550.0 2.178e-05
22570.0 2.1483e-05
22590.0 2.1146e-05
22610.0 2.0759e-05
22630.0 2.0338e-05
22650.0 1.9901e-05
22670.0 1.9418e-05
22690.0 1.89e-05
22710.0 1.8374e-05
