#lamb flux
1010.0 9.0772e-05
1030.0 9.6738e-05
1050.0 0.00010875
1070.0 0.00012223
1090.0 0.00013631
1110.0 0.0001508
1130.0 0.00016536
1150.0 0.00018059
1170.0 0.00019616
1190.0 0.00021056
1210.0 0.00022475
1230.0 0.00023893
1250.0 0.00025237
1270.0 0.00026462
1290.0 0.00027689
1310.0 0.0002883
1330.0 0.00029832
1350.0 0.00030787
1370.0 0.0003174
1390.0 0.00032631
1410.0 0.00033482
1430.0 0.0003442
1450.0 0.00035413
1470.0 0.00036444
1490.0 0.00037598
1510.0 0.0003896
1530.0 0.00040407
1550.0 0.00042014
1570.0 0.00043859
1590.0 0.00045915
1610.0 0.00048141
1630.0 0.00050679
1650.0 0.00053494
1670.0 0.00056499
1690.0 0.00059716
1710.0 0.00063213
1730.0 0.00066926
1750.0 0.00070714
1770.0 0.00074692
1790.0 0.00078813
1810.0 0.00082933
1830.0 0.00087024
1850.0 0.00091177
1870.0 0.00095165
1890.0 0.00098907
1910.0 0.0010245
1930.0 0.0010573
1950.0 0.0010857
1970.0 0.0011097
1990.0 0.00113
2010.0 0.0011453
2030.0 0.001155
2050.0 0.0011604
2070.0 0.0011615
2090.0 0.0011569
2110.0 0.0011481
2130.0 0.0011359
2150.0 0.0011202
2170.0 0.0011009
2190.0 0.0010802
2210.0 0.0010581
2230.0 0.0010343
2250.0 0.0010102
2270.0 0.00098683
2290.0 0.00096367
2310.0 0.00094108
2330.0 0.00092041
2350.0 0.00090166
2370.0 0.00088456
2390.0 0.00087008
2410.0 0.00085902
2430.0 0.00085083
2450.0 0.00084599
2470.0 0.00084569
2490.0 0.0008504
2510.0 0.00085942
2530.0 0.00087546
2550.0 0.00090216
2570.0 0.00094244
2590.0 0.0010008
2610.0 0.0010911
2630.0 0.0012168
2650.0 0.0013735
2670.0 0.0015654
2690.0 0.0017892
2710.0 0.0020191
2730.0 0.0022422
2750.0 0.0024618
2770.0 0.0026609
2790.0 0.0028363
2810.0 0.0030008
2830.0 0.0031652
2850.0 0.0033258
2870.0 0.0034941
2890.0 0.0036785
2910.0 0.0038773
2930.0 0.0040857
2950.0 0.0043135
2970.0 0.00456
2990.0 0.0048171
3010.0 0.0057655
3030.0 0.0060954
3050.0 0.0064397
3070.0 0.0067826
3090.0 0.0071297
3110.0 0.0074615
3130.0 0.0077517
3150.0 0.007989
3170.0 0.0081399
3190.0 0.0083982
3210.0 0.0092628
3230.0 0.0106
3250.0 0.011156
3270.0 0.010571
3290.0 0.0096415
3310.0 0.0091567
3330.0 0.0089584
3350.0 0.0089436
3370.0 0.0089907
3390.0 0.009101
3410.0 0.0091586
3430.0 0.0088725
3450.0 0.0087703
3470.0 0.0087421
3490.0 0.0097879
3510.0 0.012888
3530.0 0.015989
3550.0 0.018219
3570.0 0.020336
3590.0 0.021558
3610.0 0.021418
3630.0 0.021032
3650.0 0.022111
3670.0 0.025235
3690.0 0.029045
3710.0 0.032407
3730.0 0.035207
3750.0 0.0377
3770.0 0.037248
3790.0 0.034665
3810.0 0.032079
3830.0 0.02957
3850.0 0.028553
3870.0 0.029915
3890.0 0.032853
3910.0 0.035863
3930.0 0.039124
3950.0 0.04388
3970.0 0.047318
3990.0 0.04586
4010.0 0.041621
4030.0 0.036572
4050.0 0.033494
4070.0 0.032172
4090.0 0.031528
4110.0 0.031962
4130.0 0.031997
4150.0 0.032139
4170.0 0.033478
4190.0 0.035731
4210.0 0.035695
4230.0 0.035175
4250.0 0.035267
4270.0 0.036288
4290.0 0.038184
4310.0 0.039982
4330.0 0.038925
4350.0 0.035501
4370.0 0.032136
4390.0 0.028792
4410.0 0.025456
4430.0 0.024137
4450.0 0.024625
4470.0 0.025666
4490.0 0.027445
4510.0 0.031317
4530.0 0.039346
4550.0 0.05127
4570.0 0.059921
4590.0 0.066123
4610.0 0.07519
4630.0 0.08214
4650.0 0.079518
4670.0 0.069509
4690.0 0.058996
4710.0 0.05174
4730.0 0.04702
4750.0 0.042405
4770.0 0.038959
4790.0 0.040117
4810.0 0.043287
4830.0 0.04455
4850.0 0.043573
4870.0 0.044642
4890.0 0.047721
4910.0 0.050526
4930.0 0.05234
4950.0 0.052652
4970.0 0.050535
4990.0 0.046127
5010.0 0.041289
5030.0 0.037245
5050.0 0.034562
5070.0 0.032743
5090.0 0.031334
5110.0 0.030906
5130.0 0.030893
5150.0 0.031406
5170.0 0.033721
5190.0 0.037462
5210.0 0.042132
5230.0 0.045998
5250.0 0.049146
5270.0 0.052665
5290.0 0.056283
5310.0 0.05825
5330.0 0.05785
5350.0 0.055949
5370.0 0.055121
5390.0 0.056685
5410.0 0.060075
5430.0 0.063561
5450.0 0.066334
5470.0 0.067807
5490.0 0.067354
5510.0 0.065986
5530.0 0.064579
5550.0 0.063189
5570.0 0.061363
5590.0 0.059309
5610.0 0.056939
5630.0 0.053643
5650.0 0.049344
5670.0 0.045435
5690.0 0.042972
5710.0 0.041415
5730.0 0.039673
5750.0 0.03836
5770.0 0.037793
5790.0 0.037644
5810.0 0.037121
5830.0 0.036657
5850.0 0.03619
5870.0 0.034923
5890.0 0.0335
5910.0 0.031872
5930.0 0.029051
5950.0 0.025884
5970.0 0.023571
5990.0 0.022287
6010.0 0.021578
6030.0 0.020856
6050.0 0.020492
6070.0 0.021313
6090.0 0.02252
6110.0 0.023108
6130.0 0.022913
6150.0 0.022468
6170.0 0.022226
6190.0 0.021962
6210.0 0.02121
6230.0 0.019781
6250.0 0.018395
6270.0 0.01757
6290.0 0.017036
6310.0 0.017416
6330.0 0.018884
6350.0 0.020729
6370.0 0.022056
6390.0 0.023128
6410.0 0.024406
6430.0 0.025386
6450.0 0.026074
6470.0 0.026743
6490.0 0.027401
6510.0 0.027865
6530.0 0.028052
6550.0 0.028212
6570.0 0.027826
6590.0 0.026806
6610.0 0.025818
6630.0 0.02496
6650.0 0.023846
6670.0 0.022529
6690.0 0.021502
6710.0 0.02089
6730.0 0.020277
6750.0 0.019828
6770.0 0.019812
6790.0 0.019827
6810.0 0.019489
6830.0 0.019099
6850.0 0.019215
6870.0 0.019318
6890.0 0.018985
6910.0 0.018809
6930.0 0.018702
6950.0 0.018363
6970.0 0.017871
6990.0 0.017366
7010.0 0.016933
7030.0 0.016394
7050.0 0.015451
7070.0 0.014438
7090.0 0.014246
7110.0 0.014767
7130.0 0.015337
7150.0 0.015748
7170.0 0.016214
7190.0 0.016605
7210.0 0.016543
7230.0 0.016521
7250.0 0.016822
7270.0 0.016677
7290.0 0.016342
7310.0 0.016352
7330.0 0.016839
7350.0 0.017567
7370.0 0.018035
7390.0 0.018357
7410.0 0.018685
7430.0 0.018691
7450.0 0.018418
7470.0 0.018077
7490.0 0.017343
7510.0 0.01668
7530.0 0.016614
7550.0 0.016554
7570.0 0.0165
7590.0 0.016681
7610.0 0.016817
7630.0 0.017045
7650.0 0.017835
7670.0 0.018893
7690.0 0.019919
7710.0 0.020718
7730.0 0.021462
7750.0 0.022217
7770.0 0.022947
7790.0 0.023622
7810.0 0.023955
7830.0 0.023574
7850.0 0.022874
7870.0 0.02214
7890.0 0.021492
7910.0 0.021311
7930.0 0.021097
7950.0 0.020748
7970.0 0.020324
7990.0 0.020163
8010.0 0.019049
8030.0 0.019053
8050.0 0.019018
8070.0 0.018856
8090.0 0.018717
8110.0 0.018723
8130.0 0.018854
8150.0 0.018837
8170.0 0.018716
8190.0 0.018254
8210.0 0.01737
8230.0 0.01654
8250.0 0.016191
8270.0 0.015607
8290.0 0.014447
8310.0 0.013299
8330.0 0.012572
8350.0 0.012232
8370.0 0.012665
8390.0 0.013702
8410.0 0.014684
8430.0 0.015665
8450.0 0.016922
8470.0 0.018051
8490.0 0.019291
8510.0 0.020534
8530.0 0.021762
8550.0 0.02277
8570.0 0.023538
8590.0 0.024158
8610.0 0.024777
8630.0 0.024972
8650.0 0.024603
8670.0 0.02473
8690.0 0.025685
8710.0 0.026904
8730.0 0.027352
8750.0 0.027021
8770.0 0.027113
8790.0 0.027168
8810.0 0.026489
8830.0 0.024647
8850.0 0.022347
8870.0 0.020678
8890.0 0.020082
8910.0 0.019401
8930.0 0.01812
8950.0 0.017006
8970.0 0.01668
8990.0 0.016903
9010.0 0.016892
9030.0 0.016704
9050.0 0.016568
9070.0 0.016477
9090.0 0.016393
9110.0 0.016311
9130.0 0.016228
9150.0 0.016148
9170.0 0.016066
9190.0 0.015989
9210.0 0.015918
9230.0 0.015836
9250.0 0.015756
9270.0 0.015679
9290.0 0.015602
9310.0 0.015527
9330.0 0.015452
9350.0 0.015378
9370.0 0.015306
9390.0 0.015233
9410.0 0.015162
9430.0 0.015088
9450.0 0.015001
9470.0 0.01492
9490.0 0.014866
9510.0 0.014805
9530.0 0.014743
9550.0 0.014678
9570.0 0.014613
9590.0 0.014548
9610.0 0.014484
9630.0 0.014419
9650.0 0.014354
9670.0 0.014292
9690.0 0.014228
9710.0 0.014165
9730.0 0.014103
9750.0 0.014041
9770.0 0.013978
9790.0 0.013917
9810.0 0.013856
9830.0 0.013795
9850.0 0.013731
9870.0 0.013672
9890.0 0.013613
9910.0 0.013552
9930.0 0.013492
9950.0 0.01342
9970.0 0.013363
9990.0 0.013305
10010.0 0.013245
10030.0 0.013185
10050.0 0.013127
10070.0 0.013069
10090.0 0.013011
10110.0 0.012946
10130.0 0.012857
10150.0 0.012802
10170.0 0.01275
10190.0 0.012692
10210.0 0.012635
10230.0 0.012578
10250.0 0.012514
10270.0 0.012451
10290.0 0.01239
10310.0 0.012325
10330.0 0.012256
10350.0 0.012191
10370.0 0.012126
10390.0 0.012057
10410.0 0.011988
10430.0 0.011923
10450.0 0.011853
10470.0 0.011781
10490.0 0.011711
10510.0 0.011641
10530.0 0.011564
10550.0 0.011489
10570.0 0.011418
10590.0 0.011342
10610.0 0.011263
10630.0 0.011188
10650.0 0.011111
10670.0 0.011028
10690.0 0.010947
10710.0 0.010868
10730.0 0.010784
10750.0 0.010696
10770.0 0.010613
10790.0 0.010529
10810.0 0.010439
10830.0 0.010351
10850.0 0.010265
10870.0 0.010171
10890.0 0.010076
10910.0 0.0099854
10930.0 0.0098923
10950.0 0.0097945
10970.0 0.0096989
10990.0 0.0096073
11010.0 0.0094499
11030.0 0.0093471
11050.0 0.0092508
11070.0 0.0091559
11090.0 0.009058
11110.0 0.0089691
11130.0 0.0088848
11150.0 0.0088008
11170.0 0.0087204
11190.0 0.0086479
11210.0 0.0085772
11230.0 0.0085087
11250.0 0.0084469
11270.0 0.0083902
11290.0 0.008335
11310.0 0.0082838
11330.0 0.0082391
11350.0 0.0081957
11370.0 0.0081534
11390.0 0.0081139
11410.0 0.0080754
11430.0 0.0080341
11450.0 0.0079921
11470.0 0.0079491
11490.0 0.0079021
11510.0 0.0078496
11530.0 0.007795
11550.0 0.0077365
11570.0 0.0076707
11590.0 0.0076005
11610.0 0.0075277
11630.0 0.0074473
11650.0 0.0073599
11670.0 0.0072715
11690.0 0.0071785
11710.0 0.0070778
11730.0 0.0069732
11750.0 0.0068683
11770.0 0.0067549
11790.0 0.0066355
11810.0 0.0065157
11830.0 0.0063922
11850.0 0.0062589
11870.0 0.0061264
11890.0 0.0059962
11910.0 0.0058611
11930.0 0.0057245
11950.0 0.0055941
11970.0 0.0054647
11990.0 0.0053334
12010.0 0.0052095
12030.0 0.0050927
12050.0 0.004978
12070.0 0.0048672
12090.0 0.0047687
12110.0 0.004675
12130.0 0.0045859
12150.0 0.0045056
12170.0 0.0044343
12190.0 0.004367
12210.0 0.0043085
12230.0 0.0042597
12250.0 0.0042184
12270.0 0.0041845
12290.0 0.0041595
12310.0 0.0041421
12330.0 0.0041317
12350.0 0.004128
12370.0 0.0041297
12390.0 0.0041364
12410.0 0.0041484
12430.0 0.0041625
12450.0 0.0041785
12470.0 0.004197
12490.0 0.0042164
12510.0 0.0042347
12530.0 0.0042537
12550.0 0.0042725
12570.0 0.0042889
12590.0 0.0043031
12610.0 0.0043158
12630.0 0.004325
12650.0 0.0043293
12670.0 0.0043298
12690.0 0.0043252
12710.0 0.0043149
12730.0 0.0042991
12750.0 0.0042767
12770.0 0.0042483
12790.0 0.0042147
12810.0 0.0041752
12830.0 0.00413
12850.0 0.0040823
12870.0 0.0040317
12890.0 0.0039775
12910.0 0.0039225
12930.0 0.0038684
12950.0 0.0038129
12970.0 0.0037575
12990.0 0.0037056
13010.0 0.0036554
13030.0 0.003606
13050.0 0.0035592
13070.0 0.0035159
13090.0 0.0034732
13110.0 0.0034324
13130.0 0.0033945
13150.0 0.0033583
13170.0 0.0033226
13190.0 0.0032895
13210.0 0.0032587
13230.0 0.0032288
13250.0 0.0032003
13270.0 0.0031738
13290.0 0.0031484
13310.0 0.0031234
13330.0 0.0030998
13350.0 0.0030771
13370.0 0.0030543
13390.0 0.0030314
13410.0 0.0030093
13430.0 0.0029866
13450.0 0.0029629
13470.0 0.002939
13490.0 0.0029147
13510.0 0.0028884
13530.0 0.0028613
13550.0 0.0028341
13570.0 0.0028058
13590.0 0.0027759
13610.0 0.0027461
13630.0 0.0027165
13650.0 0.0026854
13670.0 0.0026543
13690.0 0.0026241
13710.0 0.0025935
13730.0 0.0025618
13750.0 0.0025319
13770.0 0.0025026
13790.0 0.0024728
13810.0 0.0024436
13830.0 0.0024161
13850.0 0.0023883
13870.0 0.0023608
13890.0 0.002335
13910.0 0.0023103
13930.0 0.0022858
13950.0 0.0022627
13970.0 0.0022418
13990.0 0.0022216
14010.0 0.0022024
14030.0 0.0021851
14050.0 0.002169
14070.0 0.0021533
14090.0 0.002139
14110.0 0.0021259
14130.0 0.0021133
14150.0 0.0021011
14170.0 0.0020901
14190.0 0.0020795
14210.0 0.002069
14230.0 0.002059
14250.0 0.0020496
14270.0 0.0020401
14290.0 0.0020307
14310.0 0.0020219
14330.0 0.0020133
14350.0 0.0020046
14370.0 0.0019962
14390.0 0.0019882
14410.0 0.0019799
14430.0 0.0019718
14450.0 0.001964
14470.0 0.0019564
14490.0 0.0019485
14510.0 0.001941
14530.0 0.0019337
14550.0 0.0019262
14570.0 0.0019186
14590.0 0.0019111
14610.0 0.0019034
14630.0 0.0018953
14650.0 0.0018874
14670.0 0.0018798
14690.0 0.0018723
14710.0 0.0018656
14730.0 0.0018607
14750.0 0.0018576
14770.0 0.001857
14790.0 0.0018597
14810.0 0.0018662
14830.0 0.0018775
14850.0 0.0018939
14870.0 0.0019147
14890.0 0.0019406
14910.0 0.0019714
14930.0 0.0020042
14950.0 0.0020375
14970.0 0.0020713
14990.0 0.0021022
15010.0 0.0021283
15030.0 0.0021501
15050.0 0.0021676
15070.0 0.00218
15090.0 0.0021894
15110.0 0.0021967
15130.0 0.0022027
15150.0 0.0022078
15170.0 0.0022128
15190.0 0.0022176
15210.0 0.0022224
15230.0 0.0022273
15250.0 0.0022323
15270.0 0.0022374
15290.0 0.0022426
15310.0 0.0022479
15330.0 0.0022534
15350.0 0.0022589
15370.0 0.0022645
15390.0 0.0022702
15410.0 0.002276
15430.0 0.002282
15450.0 0.002288
15470.0 0.0022941
15490.0 0.0023003
15510.0 0.0023066
15530.0 0.002313
15550.0 0.0023195
15570.0 0.002326
15590.0 0.0023327
15610.0 0.0023394
15630.0 0.0023462
15650.0 0.0023531
15670.0 0.0023601
15690.0 0.0023671
15710.0 0.0023743
15730.0 0.0023815
15750.0 0.0023888
15770.0 0.0023961
15790.0 0.0024035
15810.0 0.002411
15830.0 0.0024186
15850.0 0.0024262
15870.0 0.0024339
15890.0 0.0024416
15910.0 0.0024494
15930.0 0.0024572
15950.0 0.0024651
15970.0 0.002473
15990.0 0.002481
16010.0 0.0024891
16030.0 0.0024971
16050.0 0.0025053
16070.0 0.0025134
16090.0 0.0025216
16110.0 0.0025298
16130.0 0.0025381
16150.0 0.0025464
16170.0 0.0025547
16190.0 0.002563
16210.0 0.0025714
16230.0 0.0025797
16250.0 0.0025881
16270.0 0.0025965
16290.0 0.0026049
16310.0 0.0026133
16330.0 0.0026217
16350.0 0.0026301
16370.0 0.0026385
16390.0 0.0026469
16410.0 0.0026553
16430.0 0.0026636
16450.0 0.002672
16470.0 0.0026803
16490.0 0.0026886
16510.0 0.0026969
16530.0 0.0027052
16550.0 0.0027134
16570.0 0.0027216
16590.0 0.0027298
16610.0 0.0027379
16630.0 0.002746
16650.0 0.002754
16670.0 0.002762
16690.0 0.0027699
16710.0 0.0027778
16730.0 0.0027856
16750.0 0.0027934
16770.0 0.002801
16790.0 0.0028087
16810.0 0.0028162
16830.0 0.0028237
16850.0 0.0028311
16870.0 0.0028384
16890.0 0.0028456
16910.0 0.0028527
16930.0 0.0028598
16950.0 0.0028667
16970.0 0.0028736
16990.0 0.0028803
17010.0 0.002887
17030.0 0.0028936
17050.0 0.0029
17070.0 0.0029063
17090.0 0.0029125
17110.0 0.0029186
17130.0 0.0029246
17150.0 0.0029304
17170.0 0.0029362
17190.0 0.0029418
17210.0 0.0029472
17230.0 0.0029526
17250.0 0.0029578
17270.0 0.0029628
17290.0 0.0029677
17310.0 0.0029725
17330.0 0.0029771
17350.0 0.0029816
17370.0 0.0029859
17390.0 0.0029901
17410.0 0.0029941
17430.0 0.002998
17450.0 0.0030017
17470.0 0.0030052
17490.0 0.0030086
17510.0 0.0030118
17530.0 0.0030149
17550.0 0.0030177
17570.0 0.0030204
17590.0 0.003023
17610.0 0.0030253
17630.0 0.0030275
17650.0 0.0030295
17670.0 0.0030313
17690.0 0.003033
17710.0 0.0030345
17730.0 0.0030358
17750.0 0.0030369
17770.0 0.0030378
17790.0 0.0030385
17810.0 0.0030391
17830.0 0.0030394
17850.0 0.0030396
17870.0 0.0030396
17890.0 0.0030394
17910.0 0.003039
17930.0 0.0030384
17950.0 0.0030377
17970.0 0.0030367
17990.0 0.0030356
18010.0 0.0030342
18030.0 0.0030327
18050.0 0.003031
18070.0 0.0030291
18090.0 0.003027
18110.0 0.0030247
18130.0 0.0030222
18150.0 0.0030196
18170.0 0.0030167
18190.0 0.0030136
18210.0 0.0030104
18230.0 0.003007
18250.0 0.0030034
18270.0 0.0029996
18290.0 0.0029956
18310.0 0.0029914
18330.0 0.0029871
18350.0 0.0029826
18370.0 0.0029779
18390.0 0.002973
18410.0 0.0029679
18430.0 0.0029626
18450.0 0.0029572
18470.0 0.0029516
18490.0 0.0029458
18510.0 0.0029399
18530.0 0.0029337
18550.0 0.0029275
18570.0 0.002921
18590.0 0.0029144
18610.0 0.0029076
18630.0 0.0029006
18650.0 0.0028935
18670.0 0.0028862
18690.0 0.0028788
18710.0 0.0028712
18730.0 0.0028634
18750.0 0.0028555
18770.0 0.0028475
18790.0 0.0028393
18810.0 0.0028309
18830.0 0.0028225
18850.0 0.0028138
18870.0 0.0028051
18890.0 0.0027961
18910.0 0.0027871
18930.0 0.0027779
18950.0 0.0027686
18970.0 0.0027592
18990.0 0.0027496
19010.0 0.0027399
19030.0 0.0027301
19050.0 0.0027202
19070.0 0.0027101
19090.0 0.0027
19110.0 0.0026897
19130.0 0.0026793
19150.0 0.0026688
19170.0 0.0026582
19190.0 0.0026475
19210.0 0.0026367
19230.0 0.0026258
19250.0 0.0026148
19270.0 0.0026037
19290.0 0.0025925
19310.0 0.0025813
19330.0 0.0025699
19350.0 0.0025585
19370.0 0.002547
19390.0 0.0025354
19410.0 0.0025237
19430.0 0.002512
19450.0 0.0025001
19470.0 0.0024883
19490.0 0.0024763
19510.0 0.0024643
19530.0 0.0024522
19550.0 0.0024401
19570.0 0.0024279
19590.0 0.0024156
19610.0 0.0024034
19630.0 0.002391
19650.0 0.0023786
19670.0 0.0023662
19690.0 0.0023537
19710.0 0.0023412
19730.0 0.0023286
19750.0 0.002316
19770.0 0.0023034
19790.0 0.0022907
19810.0 0.002278
19830.0 0.0022652
19850.0 0.0022524
19870.0 0.0022393
19890.0 0.0022258
19910.0 0.0022115
19930.0 0.0021961
19950.0 0.0021789
19970.0 0.0021591
19990.0 0.0021362
20010.0 0.0021105
20030.0 0.0020811
20050.0 0.0020481
20070.0 0.0020132
20090.0 0.0019767
20110.0 0.0019374
20130.0 0.0018984
20150.0 0.0018603
20170.0 0.0018219
20190.0 0.0017836
20210.0 0.0017472
20230.0 0.0017117
20250.0 0.0016762
20270.0 0.0016425
20290.0 0.0016105
20310.0 0.0015792
20330.0 0.0015487
20350.0 0.001521
20370.0 0.0014944
20390.0 0.0014689
20410.0 0.0014453
20430.0 0.0014236
20450.0 0.0014028
20470.0 0.0013835
20490.0 0.0013661
20510.0 0.0013499
20530.0 0.0013348
20550.0 0.0013211
20570.0 0.0013087
20590.0 0.0012971
20610.0 0.0012864
20630.0 0.0012766
20650.0 0.0012673
20670.0 0.0012586
20690.0 0.0012503
20710.0 0.0012422
20730.0 0.0012343
20750.0 0.0012264
20770.0 0.0012184
20790.0 0.0012103
20810.0 0.0012019
20830.0 0.0011932
20850.0 0.0011841
20870.0 0.0011745
20890.0 0.0011644
20910.0 0.0011539
20930.0 0.0011429
20950.0 0.0011314
20970.0 0.0011194
20990.0 0.0011072
21010.0 0.0010943
21030.0 0.0010812
21050.0 0.0010679
21070.0 0.0010543
21090.0 0.0010403
21110.0 0.0010265
21130.0 0.0010127
21150.0 0.00099857
21170.0 0.00098456
21190.0 0.00097086
21210.0 0.00095701
21230.0 0.00094315
21250.0 0.00092975
21270.0 0.00091656
21290.0 0.00090338
21310.0 0.00089052
21330.0 0.00087821
21350.0 0.00086598
21370.0 0.00085401
21390.0 0.00084257
21410.0 0.00083153
21430.0 0.00082059
21450.0 0.00081025
21470.0 0.00080044
21490.0 0.00079095
21510.0 0.00078185
21530.0 0.00077331
21550.0 0.00076515
21570.0 0.0007573
21590.0 0.00074989
21610.0 0.00074286
21630.0 0.00073611
21650.0 0.00072961
21670.0 0.00072344
21690.0 0.00071745
21710.0 0.00071163
21730.0 0.00070595
21750.0 0.0007004
21770.0 0.00069491
21790.0 0.00068948
21810.0 0.00068411
21830.0 0.00067876
21850.0 0.00067341
21870.0 0.00066807
21890.0 0.00066276
21910.0 0.00065741
21930.0 0.00065205
21950.0 0.00064669
21970.0 0.0006413
21990.0 0.00063583
22010.0 0.00063036
22030.0 0.00062485
22050.0 0.00061924
22070.0 0.00061355
22090.0 0.00060784
22110.0 0.000602
22130.0 0.00059601
22150.0 0.00058995
22170.0 0.00058381
22190.0 0.00057745
22210.0 0.00057096
22230.0 0.00056447
22250.0 0.00055779
22270.0 0.00055094
22290.0 0.00054406
22310.0 0.00053713
22330.0 0.00052992
22350.0 0.00052267
22370.0 0.00051545
22390.0 0.00050807
22410.0 0.00050049
22430.0 0.00049305
22450.0 0.00048559
22470.0 0.00047793
22490.0 0.00047031
22510.0 0.00046283
22530.0 0.00045518
22550.0 0.00044747
22570.0 0.00044002
22590.0 0.00043264
22610.0 0.00042519
22630.0 0.00041793
22650.0 0.000411
22670.0 0.00040407
22690.0 0.00039729
22710.0 0.00039085
22730.0 0.00038465
22750.0 0.00037847
22770.0 0.0003727
22790.0 0.00036728
22810.0 0.00036201
22830.0 0.00035698
22850.0 0.00035233
22870.0 0.00034788
22890.0 0.00034358
22910.0 0.00033957
22930.0 0.00033581
22950.0 0.00033217
22970.0 0.00032868
22990.0 0.00032544
23010.0 0.0003223
23030.0 0.00031924
23050.0 0.00031631
23070.0 0.00031351
23090.0 0.00031071
23110.0 0.00030799
23130.0 0.00030537
23150.0 0.00030278
23170.0 0.0003002
23190.0 0.00029769
23210.0 0.00029522
23230.0 0.00029273
23250.0 0.00029025
23270.0 0.00028781
23290.0 0.00028534
23310.0 0.0002828
23330.0 0.0002803
23350.0 0.00027779
23370.0 0.00027521
23390.0 0.00027262
23410.0 0.00027008
23430.0 0.0002675
23450.0 0.00026493
23470.0 0.00026243
23490.0 0.00026
23510.0 0.00025759
23530.0 0.00025529
23550.0 0.00025316
23570.0 0.00025115
23590.0 0.00024927
23610.0 0.0002476
23630.0 0.00024612
23650.0 0.00024483
23670.0 0.00024377
23690.0 0.00024295
23710.0 0.00024237
23730.0 0.00024207
23750.0 0.00024203
23770.0 0.00024225
23790.0 0.00024281
23810.0 0.00024367
23830.0 0.00024479
23850.0 0.0002463
23870.0 0.00024819
23890.0 0.00025028
23910.0 0.00025264
23930.0 0.00025537
23950.0 0.00025825
23970.0 0.00026113
23990.0 0.00026425
24010.0 0.00026743
