#lamb flux
1010.0 3.8378e-10
1030.0 4.8268e-10
1050.0 5.9639e-10
1070.0 7.2438e-10
1090.0 8.6971e-10
1110.0 1.0187e-09
1130.0 1.1687e-09
1150.0 1.3257e-09
1170.0 1.4875e-09
1190.0 1.641e-09
1210.0 1.7965e-09
1230.0 1.9571e-09
1250.0 2.1144e-09
1270.0 2.2672e-09
1290.0 2.4287e-09
1310.0 2.5901e-09
1330.0 2.7449e-09
1350.0 2.9016e-09
1370.0 3.0634e-09
1390.0 3.2214e-09
1410.0 3.3747e-09
1430.0 3.5352e-09
1450.0 3.6958e-09
1470.0 3.8511e-09
1490.0 4.0082e-09
1510.0 4.1743e-09
1530.0 4.3317e-09
1550.0 4.4872e-09
1570.0 4.648e-09
1590.0 4.8091e-09
1610.0 4.9631e-09
1630.0 5.122e-09
1650.0 5.285e-09
1670.0 5.4429e-09
1690.0 5.5988e-09
1710.0 5.7608e-09
1730.0 5.9239e-09
1750.0 6.0775e-09
1770.0 6.2357e-09
1790.0 6.3974e-09
1810.0 6.5541e-09
1830.0 6.7084e-09
1850.0 6.8723e-09
1870.0 7.0322e-09
1890.0 7.1872e-09
1910.0 7.3458e-09
1930.0 7.5087e-09
1950.0 7.6648e-09
1970.0 7.8196e-09
1990.0 7.9809e-09
2010.0 8.1402e-09
2030.0 8.2945e-09
2050.0 8.4542e-09
2070.0 8.6186e-09
2090.0 8.7747e-09
2110.0 8.9312e-09
2130.0 9.0931e-09
2150.0 9.253e-09
2170.0 9.4071e-09
2190.0 9.5679e-09
2210.0 9.7306e-09
2230.0 9.8881e-09
2250.0 1.0046e-08
2270.0 1.0212e-08
2290.0 1.0374e-08
2310.0 1.0531e-08
2330.0 1.0695e-08
2350.0 1.086e-08
2370.0 1.102e-08
2390.0 1.1183e-08
2410.0 1.1353e-08
2430.0 1.1522e-08
2450.0 1.1693e-08
2470.0 1.1884e-08
2490.0 1.2106e-08
2510.0 1.2361e-08
2530.0 1.2693e-08
2550.0 1.3152e-08
2570.0 1.3769e-08
2590.0 1.4585e-08
2610.0 1.5752e-08
2630.0 1.7299e-08
2650.0 1.9191e-08
2670.0 2.1528e-08
2690.0 2.4357e-08
2710.0 2.7457e-08
2730.0 3.0719e-08
2750.0 3.4248e-08
2770.0 3.7751e-08
2790.0 4.1009e-08
2810.0 4.407e-08
2830.0 4.6936e-08
2850.0 4.9344e-08
2870.0 5.1476e-08
2890.0 5.3461e-08
2910.0 5.5316e-08
2930.0 5.7076e-08
2950.0 5.8885e-08
2970.0 6.0765e-08
2990.0 6.2685e-08
3010.0 6.4684e-08
3030.0 6.682e-08
3050.0 6.9057e-08
3070.0 7.1333e-08
3090.0 7.3744e-08
3110.0 7.631e-08
3130.0 7.9063e-08
3150.0 8.2194e-08
3170.0 8.6186e-08
3190.0 9.1385e-08
3210.0 9.8189e-08
3230.0 1.0724e-07
3250.0 1.1875e-07
3270.0 1.2969e-07
3290.0 1.4705e-07
3310.0 1.8264e-07
3330.0 1.9446e-07
3350.0 2.0027e-07
3370.0 2.0586e-07
3390.0 2.1154e-07
3410.0 2.1729e-07
3430.0 2.2308e-07
3450.0 2.2886e-07
3470.0 2.3455e-07
3490.0 2.4003e-07
3510.0 2.45e-07
3530.0 2.4282e-07
3550.0 2.3611e-07
3570.0 2.3958e-07
3590.0 2.5469e-07
3610.0 2.7758e-07
3630.0 2.8668e-07
3650.0 2.7535e-07
3670.0 2.529e-07
3690.0 2.3985e-07
3710.0 2.4288e-07
3730.0 2.5087e-07
3750.0 2.5517e-07
3770.0 2.6376e-07
3790.0 2.7336e-07
3810.0 2.6948e-07
3830.0 2.5115e-07
3850.0 2.3474e-07
3870.0 2.2696e-07
3890.0 2.2436e-07
3910.0 2.1933e-07
3930.0 2.1679e-07
3950.0 2.229e-07
3970.0 2.3005e-07
3990.0 2.3213e-07
4010.0 2.236e-07
4030.0 2.1143e-07
4050.0 2.0361e-07
4070.0 1.9699e-07
4090.0 1.9164e-07
4110.0 1.8463e-07
4130.0 1.7359e-07
4150.0 1.6249e-07
4170.0 1.559e-07
4190.0 1.4537e-07
4210.0 1.316e-07
4230.0 1.1767e-07
4250.0 1.0444e-07
4270.0 9.4558e-08
4290.0 8.7253e-08
4310.0 8.3386e-08
4330.0 8.3249e-08
4350.0 8.3656e-08
4370.0 8.4456e-08
4390.0 8.7575e-08
4410.0 8.9731e-08
4430.0 8.6621e-08
4450.0 7.8648e-08
4470.0 7.1681e-08
4490.0 6.7893e-08
4510.0 6.5458e-08
4530.0 6.4242e-08
4550.0 6.3198e-08
4570.0 6.2932e-08
4590.0 6.3796e-08
4610.0 6.5756e-08
4630.0 6.6925e-08
4650.0 6.7503e-08
4670.0 6.5862e-08
4690.0 6.1943e-08
4710.0 5.804e-08
4730.0 5.5512e-08
4750.0 5.396e-08
4770.0 5.4153e-08
4790.0 5.3942e-08
4810.0 5.2785e-08
4830.0 5.289e-08
4850.0 5.454e-08
4870.0 5.5084e-08
4890.0 5.4092e-08
4910.0 5.2838e-08
4930.0 4.983e-08
4950.0 4.5489e-08
4970.0 4.2516e-08
4990.0 4.0078e-08
5010.0 3.9555e-08
5030.0 4.0887e-08
5050.0 4.1936e-08
5070.0 4.3503e-08
5090.0 4.6133e-08
5110.0 4.6836e-08
5130.0 4.7244e-08
5150.0 4.8115e-08
5170.0 4.852e-08
5190.0 4.9792e-08
5210.0 5.0051e-08
5230.0 4.9535e-08
5250.0 4.9935e-08
5270.0 5.0632e-08
5290.0 5.0769e-08
5310.0 5.039e-08
5330.0 4.9433e-08
5350.0 4.8759e-08
5370.0 4.824e-08
5390.0 4.7601e-08
5410.0 4.7072e-08
5430.0 4.7056e-08
5450.0 4.7746e-08
5470.0 4.8633e-08
5490.0 5.0011e-08
5510.0 5.1526e-08
5530.0 5.2161e-08
5550.0 5.2938e-08
5570.0 5.3052e-08
5590.0 5.1952e-08
5610.0 5.1575e-08
5630.0 5.1964e-08
5650.0 5.1335e-08
5670.0 5.0198e-08
5690.0 4.8694e-08
5710.0 4.8566e-08
5730.0 4.9079e-08
5750.0 4.6988e-08
5770.0 4.4577e-08
5790.0 4.098e-08
5810.0 3.5846e-08
5830.0 3.8642e-08
5850.0 4.2781e-08
5870.0 4.3708e-08
5890.0 4.3943e-08
5910.0 4.4301e-08
5930.0 4.4208e-08
5950.0 4.3476e-08
5970.0 4.2957e-08
5990.0 4.2337e-08
6010.0 4.1048e-08
6030.0 3.9641e-08
6050.0 3.9022e-08
6070.0 3.8847e-08
6090.0 3.8257e-08
6110.0 3.6982e-08
6130.0 3.5723e-08
6150.0 3.429e-08
6170.0 3.2856e-08
6190.0 3.1385e-08
6210.0 3.0277e-08
6230.0 2.9837e-08
6250.0 2.9205e-08
6270.0 2.8594e-08
6290.0 2.8372e-08
6310.0 2.8188e-08
6330.0 2.7568e-08
6350.0 2.6672e-08
6370.0 2.6162e-08
6390.0 2.5647e-08
6410.0 2.4931e-08
6430.0 2.4256e-08
6450.0 2.3722e-08
6470.0 2.3214e-08
6490.0 2.286e-08
6510.0 2.2465e-08
6530.0 2.1895e-08
6550.0 2.141e-08
6570.0 2.108e-08
6590.0 2.1045e-08
6610.0 2.0913e-08
6630.0 2.0213e-08
6650.0 1.9642e-08
6670.0 1.9438e-08
6690.0 1.9132e-08
6710.0 1.8673e-08
6730.0 1.8508e-08
6750.0 1.8652e-08
6770.0 1.9761e-08
6790.0 2.2086e-08
6810.0 2.0973e-08
6830.0 1.8421e-08
6850.0 1.7694e-08
6870.0 1.7423e-08
6890.0 1.7425e-08
6910.0 1.7462e-08
6930.0 1.7502e-08
6950.0 1.7448e-08
6970.0 1.7005e-08
6990.0 1.6852e-08
7010.0 1.7102e-08
7030.0 1.7182e-08
7050.0 1.6933e-08
7070.0 1.6763e-08
7090.0 1.6872e-08
7110.0 1.7265e-08
7130.0 1.7321e-08
7150.0 1.7385e-08
7170.0 1.7478e-08
7190.0 1.772e-08
7210.0 1.7911e-08
7230.0 1.8104e-08
7250.0 1.8345e-08
7270.0 1.8517e-08
7290.0 1.8809e-08
7310.0 1.9156e-08
7330.0 1.9008e-08
7350.0 1.8609e-08
7370.0 1.8355e-08
7390.0 1.831e-08
7410.0 1.8387e-08
7430.0 1.8616e-08
7450.0 1.8732e-08
7470.0 1.8997e-08
7490.0 1.8888e-08
7510.0 1.8682e-08
7530.0 1.8901e-08
7550.0 1.9488e-08
7570.0 1.9439e-08
7590.0 1.8435e-08
7610.0 1.8281e-08
7630.0 1.9317e-08
7650.0 1.9704e-08
7670.0 1.9838e-08
7690.0 2.0721e-08
7710.0 2.1391e-08
7730.0 2.1596e-08
7750.0 2.2722e-08
7770.0 2.2141e-08
7790.0 2.1615e-08
7810.0 2.29e-08
7830.0 2.3777e-08
7850.0 2.4373e-08
7870.0 2.4852e-08
7890.0 2.5044e-08
7910.0 2.486e-08
7930.0 2.5031e-08
7950.0 2.6161e-08
7970.0 2.6155e-08
7990.0 2.4362e-08
8010.0 2.338e-08
8030.0 2.3847e-08
8050.0 2.4358e-08
8070.0 2.2036e-08
8090.0 1.4418e-08
8110.0 1.5055e-08
8130.0 2.1496e-08
8150.0 2.3151e-08
8170.0 2.4071e-08
8190.0 2.4594e-08
8210.0 2.4283e-08
8230.0 2.6326e-08
8250.0 2.69e-08
8270.0 2.5438e-08
8290.0 2.4434e-08
8310.0 2.4077e-08
8330.0 2.5391e-08
8350.0 2.6592e-08
8370.0 2.609e-08
8390.0 2.488e-08
8410.0 2.4857e-08
8430.0 2.3289e-08
8450.0 2.38e-08
8470.0 2.6007e-08
8490.0 2.6086e-08
8510.0 2.4189e-08
8530.0 2.267e-08
8550.0 2.1731e-08
8570.0 2.048e-08
8590.0 2.1066e-08
8610.0 2.2353e-08
8630.0 2.2952e-08
8650.0 2.3349e-08
8670.0 2.2708e-08
8690.0 2.2179e-08
8710.0 2.0629e-08
8730.0 1.9888e-08
8750.0 2.0701e-08
8770.0 2.1025e-08
8790.0 2.096e-08
8810.0 2.0859e-08
8830.0 2.1304e-08
8850.0 2.237e-08
8870.0 2.0889e-08
8890.0 1.9702e-08
8910.0 1.9412e-08
8930.0 1.8247e-08
8950.0 1.7578e-08
8970.0 1.757e-08
8990.0 1.6819e-08
9010.0 1.579e-08
9030.0 1.5431e-08
9050.0 1.5303e-08
9070.0 1.5188e-08
9090.0 1.5073e-08
9110.0 1.4957e-08
9130.0 1.4841e-08
9150.0 1.4724e-08
9170.0 1.4606e-08
9190.0 1.4489e-08
9210.0 1.4371e-08
9230.0 1.4253e-08
9250.0 1.4135e-08
9270.0 1.4017e-08
9290.0 1.39e-08
9310.0 1.3783e-08
9330.0 1.3666e-08
9350.0 1.3549e-08
9370.0 1.3433e-08
9390.0 1.3318e-08
9410.0 1.3203e-08
9430.0 1.3089e-08
9450.0 1.2975e-08
9470.0 1.2862e-08
9490.0 1.275e-08
9510.0 1.2639e-08
9530.0 1.2529e-08
9550.0 1.2419e-08
9570.0 1.2311e-08
9590.0 1.2203e-08
9610.0 1.2097e-08
9630.0 1.1991e-08
9650.0 1.1887e-08
9670.0 1.1783e-08
9690.0 1.1681e-08
9710.0 1.158e-08
9730.0 1.148e-08
9750.0 1.138e-08
9770.0 1.1282e-08
9790.0 1.1185e-08
9810.0 1.109e-08
9830.0 1.0995e-08
9850.0 1.0901e-08
9870.0 1.0809e-08
9890.0 1.0718e-08
9910.0 1.0628e-08
9930.0 1.0538e-08
9950.0 1.045e-08
9970.0 1.0364e-08
9990.0 1.0278e-08
10010.0 1.0193e-08
10030.0 1.011e-08
10050.0 1.0027e-08
10070.0 9.9456e-09
10090.0 9.8652e-09
10110.0 9.7858e-09
10130.0 9.7075e-09
10150.0 9.6302e-09
10170.0 9.5539e-09
10190.0 9.4786e-09
10210.0 9.4042e-09
10230.0 9.3309e-09
10250.0 9.2585e-09
10270.0 9.187e-09
10290.0 9.1165e-09
10310.0 9.0468e-09
10330.0 8.9782e-09
10350.0 8.9103e-09
10370.0 8.8433e-09
10390.0 8.7762e-09
10410.0 8.6974e-09
10430.0 8.6151e-09
10450.0 8.5665e-09
10470.0 8.5104e-09
10490.0 8.4534e-09
10510.0 8.3956e-09
10530.0 8.3354e-09
10550.0 8.276e-09
10570.0 8.2183e-09
10590.0 8.1599e-09
10610.0 8.1017e-09
10630.0 8.0454e-09
10650.0 7.9897e-09
10670.0 7.9331e-09
10690.0 7.878e-09
10710.0 7.8243e-09
10730.0 7.7703e-09
10750.0 7.7158e-09
10770.0 7.6641e-09
10790.0 7.6125e-09
10810.0 7.5604e-09
10830.0 7.5095e-09
10850.0 7.4603e-09
10870.0 7.4095e-09
10890.0 7.3592e-09
10910.0 7.3105e-09
10930.0 7.2617e-09
10950.0 7.2116e-09
10970.0 7.1621e-09
10990.0 7.1134e-09
11010.0 7.0567e-09
11030.0 7.0052e-09
11050.0 6.9543e-09
11070.0 6.9024e-09
11090.0 6.8475e-09
11110.0 6.7942e-09
11130.0 6.7408e-09
11150.0 6.6855e-09
11170.0 6.6295e-09
11190.0 6.5753e-09
11210.0 6.5197e-09
11230.0 6.4629e-09
11250.0 6.408e-09
11270.0 6.3544e-09
11290.0 6.3001e-09
11310.0 6.2472e-09
11330.0 6.1986e-09
11350.0 6.1509e-09
11370.0 6.1045e-09
11390.0 6.0616e-09
11410.0 6.0212e-09
11430.0 5.9809e-09
11450.0 5.9431e-09
11470.0 5.9075e-09
11490.0 5.8725e-09
11510.0 5.8372e-09
11530.0 5.8037e-09
11550.0 5.7704e-09
11570.0 5.7359e-09
11590.0 5.7012e-09
11610.0 5.667e-09
11630.0 5.631e-09
11650.0 5.5933e-09
11670.0 5.5565e-09
11690.0 5.5189e-09
11710.0 5.4795e-09
11730.0 5.4399e-09
11750.0 5.4013e-09
11770.0 5.3611e-09
11790.0 5.3203e-09
11810.0 5.2808e-09
11830.0 5.2417e-09
11850.0 5.2012e-09
11870.0 5.1626e-09
11890.0 5.1261e-09
11910.0 5.0897e-09
11930.0 5.0542e-09
11950.0 5.0215e-09
11970.0 4.9902e-09
11990.0 4.9594e-09
12010.0 4.9313e-09
12030.0 4.9056e-09
12050.0 4.881e-09
12070.0 4.858e-09
12090.0 4.8379e-09
12110.0 4.8193e-09
12130.0 4.8017e-09
12150.0 4.7859e-09
12170.0 4.7716e-09
12190.0 4.7574e-09
12210.0 4.744e-09
12230.0 4.7312e-09
12250.0 4.7181e-09
12270.0 4.7041e-09
12290.0 4.6896e-09
12310.0 4.6743e-09
12330.0 4.6568e-09
12350.0 4.6376e-09
12370.0 4.617e-09
12390.0 4.5942e-09
12410.0 4.5678e-09
12430.0 4.5406e-09
12450.0 4.5116e-09
12470.0 4.4796e-09
12490.0 4.4457e-09
12510.0 4.4117e-09
12530.0 4.3752e-09
12550.0 4.3364e-09
12570.0 4.2979e-09
12590.0 4.259e-09
12610.0 4.2179e-09
12630.0 4.1765e-09
12650.0 4.1372e-09
12670.0 4.097e-09
12690.0 4.0565e-09
12710.0 4.018e-09
12730.0 3.9808e-09
12750.0 3.9426e-09
12770.0 3.9067e-09
12790.0 3.8733e-09
12810.0 3.8407e-09
12830.0 3.809e-09
12850.0 3.7807e-09
12870.0 3.7543e-09
12890.0 3.729e-09
12910.0 3.7062e-09
12930.0 3.6861e-09
12950.0 3.6675e-09
12970.0 3.6509e-09
12990.0 3.6374e-09
13010.0 3.6261e-09
13030.0 3.6166e-09
13050.0 3.6094e-09
13070.0 3.6043e-09
13090.0 3.6006e-09
13110.0 3.5983e-09
13130.0 3.5969e-09
13150.0 3.5961e-09
13170.0 3.5953e-09
13190.0 3.5941e-09
13210.0 3.5921e-09
13230.0 3.5889e-09
13250.0 3.584e-09
13270.0 3.5776e-09
13290.0 3.5691e-09
13310.0 3.558e-09
13330.0 3.5449e-09
13350.0 3.53e-09
13370.0 3.5125e-09
13390.0 3.4924e-09
13410.0 3.4716e-09
13430.0 3.4486e-09
13450.0 3.4232e-09
13470.0 3.3968e-09
13490.0 3.3698e-09
13510.0 3.3398e-09
13530.0 3.3089e-09
13550.0 3.2782e-09
13570.0 3.2462e-09
13590.0 3.2126e-09
13610.0 3.1793e-09
13630.0 3.1465e-09
13650.0 3.1119e-09
13670.0 3.0772e-09
13690.0 3.0436e-09
13710.0 3.0095e-09
13730.0 2.9739e-09
13750.0 2.9405e-09
13770.0 2.9079e-09
13790.0 2.8747e-09
13810.0 2.8423e-09
13830.0 2.8121e-09
13850.0 2.7817e-09
13870.0 2.7516e-09
13890.0 2.7236e-09
13910.0 2.6967e-09
13930.0 2.6698e-09
13950.0 2.6441e-09
13970.0 2.6206e-09
13990.0 2.5974e-09
14010.0 2.5747e-09
14030.0 2.5538e-09
14050.0 2.5338e-09
14070.0 2.5138e-09
14090.0 2.4952e-09
14110.0 2.478e-09
14130.0 2.4612e-09
14150.0 2.4449e-09
14170.0 2.4302e-09
14190.0 2.4161e-09
14210.0 2.4022e-09
14230.0 2.3891e-09
14250.0 2.3769e-09
14270.0 2.3646e-09
14290.0 2.3524e-09
14310.0 2.3412e-09
14330.0 2.3302e-09
14350.0 2.319e-09
14370.0 2.3083e-09
14390.0 2.2981e-09
14410.0 2.2876e-09
14430.0 2.2772e-09
14450.0 2.2673e-09
14470.0 2.2575e-09
14490.0 2.2473e-09
14510.0 2.2376e-09
14530.0 2.2281e-09
14550.0 2.2184e-09
14570.0 2.2085e-09
14590.0 2.199e-09
14610.0 2.1893e-09
14630.0 2.1791e-09
14650.0 2.1692e-09
14670.0 2.1593e-09
14690.0 2.1489e-09
14710.0 2.1383e-09
14730.0 2.1281e-09
14750.0 2.1176e-09
14770.0 2.1066e-09
14790.0 2.0957e-09
14810.0 2.0849e-09
14830.0 2.0732e-09
14850.0 2.0615e-09
14870.0 2.05e-09
14890.0 2.0383e-09
14910.0 2.0262e-09
14930.0 2.0148e-09
14950.0 2.004e-09
14970.0 1.9934e-09
14990.0 1.9838e-09
15010.0 1.9753e-09
15030.0 1.9677e-09
15050.0 1.9606e-09
15070.0 1.9546e-09
15090.0 1.9492e-09
15110.0 1.944e-09
15130.0 1.939e-09
15150.0 1.9343e-09
15170.0 1.9296e-09
15190.0 1.9247e-09
15210.0 1.9201e-09
15230.0 1.9154e-09
15250.0 1.9106e-09
15270.0 1.9058e-09
15290.0 1.9013e-09
15310.0 1.8965e-09
15330.0 1.8918e-09
15350.0 1.8871e-09
15370.0 1.8825e-09
15390.0 1.8777e-09
15410.0 1.8729e-09
15430.0 1.8683e-09
15450.0 1.8636e-09
15470.0 1.8588e-09
15490.0 1.8542e-09
15510.0 1.8495e-09
15530.0 1.8447e-09
15550.0 1.84e-09
15570.0 1.8355e-09
15590.0 1.8307e-09
15610.0 1.8258e-09
15630.0 1.8212e-09
15650.0 1.8166e-09
15670.0 1.8118e-09
15690.0 1.8071e-09
15710.0 1.8025e-09
15730.0 1.7978e-09
15750.0 1.793e-09
15770.0 1.7884e-09
15790.0 1.7837e-09
15810.0 1.7788e-09
15830.0 1.7741e-09
15850.0 1.7696e-09
15870.0 1.7648e-09
15890.0 1.7601e-09
15910.0 1.7555e-09
15930.0 1.7508e-09
15950.0 1.746e-09
15970.0 1.7413e-09
15990.0 1.7367e-09
16010.0 1.7319e-09
16030.0 1.7271e-09
16050.0 1.7225e-09
16070.0 1.7179e-09
16090.0 1.7131e-09
16110.0 1.7084e-09
16130.0 1.7038e-09
16150.0 1.699e-09
16170.0 1.6942e-09
16190.0 1.6896e-09
16210.0 1.6849e-09
16230.0 1.6801e-09
16250.0 1.6755e-09
16270.0 1.6709e-09
16290.0 1.6661e-09
16310.0 1.6614e-09
16330.0 1.6568e-09
16350.0 1.6521e-09
16370.0 1.6472e-09
16390.0 1.6426e-09
16410.0 1.6379e-09
16430.0 1.6332e-09
16450.0 1.6284e-09
16470.0 1.6239e-09
16490.0 1.6192e-09
16510.0 1.6143e-09
16530.0 1.6097e-09
16550.0 1.6051e-09
16570.0 1.6002e-09
16590.0 1.5955e-09
16610.0 1.5909e-09
16630.0 1.5862e-09
16650.0 1.5814e-09
16670.0 1.5768e-09
16690.0 1.5722e-09
16710.0 1.5674e-09
16730.0 1.5626e-09
16750.0 1.558e-09
16770.0 1.5533e-09
16790.0 1.5485e-09
16810.0 1.5439e-09
16830.0 1.5393e-09
16850.0 1.5345e-09
16870.0 1.5298e-09
16890.0 1.5252e-09
16910.0 1.5204e-09
16930.0 1.5156e-09
16950.0 1.511e-09
16970.0 1.5064e-09
16990.0 1.5016e-09
17010.0 1.4969e-09
17030.0 1.4923e-09
17050.0 1.4875e-09
17070.0 1.4828e-09
17090.0 1.4782e-09
17110.0 1.4735e-09
17130.0 1.4686e-09
17150.0 1.464e-09
17170.0 1.4594e-09
17190.0 1.4546e-09
17210.0 1.4499e-09
17230.0 1.4453e-09
17250.0 1.4406e-09
17270.0 1.4358e-09
17290.0 1.4311e-09
17310.0 1.4265e-09
17330.0 1.4217e-09
17350.0 1.4169e-09
17370.0 1.4124e-09
17390.0 1.4077e-09
17410.0 1.4029e-09
17430.0 1.3983e-09
17450.0 1.3937e-09
17470.0 1.3888e-09
17490.0 1.3841e-09
17510.0 1.3795e-09
17530.0 1.3748e-09
17550.0 1.37e-09
17570.0 1.3653e-09
17590.0 1.3607e-09
17610.0 1.3559e-09
17630.0 1.3512e-09
17650.0 1.3466e-09
17670.0 1.3419e-09
17690.0 1.337e-09
17710.0 1.3324e-09
17730.0 1.3278e-09
17750.0 1.323e-09
17770.0 1.3183e-09
17790.0 1.3138e-09
17810.0 1.309e-09
17830.0 1.3042e-09
17850.0 1.2996e-09
17870.0 1.2949e-09
17890.0 1.2901e-09
17910.0 1.2854e-09
17930.0 1.2808e-09
17950.0 1.2761e-09
17970.0 1.2713e-09
17990.0 1.2667e-09
18010.0 1.2621e-09
18030.0 1.2572e-09
18050.0 1.2525e-09
18070.0 1.2479e-09
18090.0 1.2432e-09
18110.0 1.2384e-09
18130.0 1.2338e-09
18150.0 1.2292e-09
18170.0 1.2244e-09
18190.0 1.2197e-09
18210.0 1.2151e-09
18230.0 1.2103e-09
18250.0 1.2055e-09
18270.0 1.2009e-09
18290.0 1.1962e-09
18310.0 1.1914e-09
18330.0 1.1868e-09
18350.0 1.1822e-09
18370.0 1.1774e-09
18390.0 1.1727e-09
18410.0 1.168e-09
18430.0 1.1634e-09
18450.0 1.1585e-09
18470.0 1.1538e-09
18490.0 1.1493e-09
18510.0 1.1445e-09
18530.0 1.1398e-09
18550.0 1.1352e-09
18570.0 1.1305e-09
18590.0 1.1256e-09
18610.0 1.121e-09
18630.0 1.1164e-09
18650.0 1.1116e-09
18670.0 1.1068e-09
18690.0 1.1023e-09
18710.0 1.0976e-09
18730.0 1.0928e-09
18750.0 1.0881e-09
18770.0 1.0836e-09
18790.0 1.0787e-09
18810.0 1.0739e-09
18830.0 1.0693e-09
18850.0 1.0646e-09
18870.0 1.0598e-09
18890.0 1.0552e-09
18910.0 1.0506e-09
18930.0 1.0458e-09
18950.0 1.0411e-09
18970.0 1.0365e-09
18990.0 1.0318e-09
19010.0 1.0269e-09
19030.0 1.0223e-09
19050.0 1.0177e-09
19070.0 1.0129e-09
19090.0 1.0082e-09
19110.0 1.0036e-09
19130.0 9.9887e-10
19150.0 9.9407e-10
19170.0 9.8945e-10
19190.0 9.848e-10
19210.0 9.7997e-10
19230.0 9.7523e-10
19250.0 9.7069e-10
19270.0 9.6595e-10
19290.0 9.6119e-10
19310.0 9.5659e-10
19330.0 9.5196e-10
19350.0 9.4707e-10
19370.0 9.4238e-10
19390.0 9.3778e-10
19410.0 9.3303e-10
19430.0 9.2824e-10
19450.0 9.2366e-10
19470.0 9.1901e-10
19490.0 9.1421e-10
19510.0 9.0954e-10
19530.0 9.0495e-10
19550.0 9.0015e-10
19570.0 8.9532e-10
19590.0 8.9075e-10
19610.0 8.8608e-10
19630.0 8.8128e-10
19650.0 8.7662e-10
19670.0 8.7206e-10
19690.0 8.6725e-10
19710.0 8.625e-10
19730.0 8.5789e-10
19750.0 8.5321e-10
19770.0 8.4834e-10
19790.0 8.4369e-10
19810.0 8.391e-10
19830.0 8.3435e-10
19850.0 8.2963e-10
19870.0 8.2511e-10
19890.0 8.2048e-10
19910.0 8.1582e-10
19930.0 8.115e-10
19950.0 8.0742e-10
19970.0 8.0353e-10
19990.0 8.0006e-10
20010.0 7.972e-10
20030.0 7.947e-10
20050.0 7.9263e-10
20070.0 7.9101e-10
20090.0 7.897e-10
20110.0 7.8855e-10
20130.0 7.8757e-10
20150.0 7.867e-10
20170.0 7.8583e-10
20190.0 7.8494e-10
20210.0 7.8407e-10
20230.0 7.8316e-10
20250.0 7.8216e-10
20270.0 7.8114e-10
20290.0 7.8008e-10
20310.0 7.7894e-10
20330.0 7.7769e-10
20350.0 7.7645e-10
20370.0 7.7514e-10
20390.0 7.7373e-10
20410.0 7.7229e-10
20430.0 7.7085e-10
20450.0 7.6929e-10
20470.0 7.6769e-10
20490.0 7.6614e-10
20510.0 7.6457e-10
20530.0 7.6295e-10
20550.0 7.6139e-10
20570.0 7.5991e-10
20590.0 7.584e-10
20610.0 7.5692e-10
20630.0 7.5552e-10
20650.0 7.5414e-10
20670.0 7.5271e-10
20690.0 7.5136e-10
20710.0 7.5001e-10
20730.0 7.486e-10
20750.0 7.4714e-10
20770.0 7.4568e-10
20790.0 7.441e-10
20810.0 7.4238e-10
20830.0 7.4059e-10
20850.0 7.387e-10
20870.0 7.3659e-10
20890.0 7.3434e-10
20910.0 7.3207e-10
20930.0 7.2963e-10
20950.0 7.2701e-10
20970.0 7.2437e-10
20990.0 7.217e-10
21010.0 7.1883e-10
21030.0 7.1596e-10
21050.0 7.1316e-10
21070.0 7.103e-10
21090.0 7.0734e-10
21110.0 7.0455e-10
21130.0 7.0182e-10
21150.0 6.9901e-10
21170.0 6.9626e-10
21190.0 6.9363e-10
21210.0 6.9092e-10
21230.0 6.8816e-10
21250.0 6.8551e-10
21270.0 6.8285e-10
21290.0 6.8006e-10
21310.0 6.7725e-10
21330.0 6.7453e-10
21350.0 6.7164e-10
21370.0 6.6863e-10
21390.0 6.6566e-10
21410.0 6.6262e-10
21430.0 6.5932e-10
21450.0 6.5605e-10
21470.0 6.528e-10
21490.0 6.4939e-10
21510.0 6.4586e-10
21530.0 6.4242e-10
21550.0 6.3891e-10
21570.0 6.3521e-10
21590.0 6.3157e-10
21610.0 6.2799e-10
21630.0 6.2429e-10
21650.0 6.2046e-10
21670.0 6.1689e-10
21690.0 6.1327e-10
21710.0 6.0954e-10
21730.0 6.059e-10
21750.0 6.0239e-10
21770.0 5.9868e-10
21790.0 5.95e-10
21810.0 5.9146e-10
21830.0 5.8789e-10
21850.0 5.8419e-10
21870.0 5.806e-10
21890.0 5.7712e-10
21910.0 5.7351e-10
21930.0 5.6991e-10
21950.0 5.6646e-10
21970.0 5.6299e-10
21990.0 5.5939e-10
22010.0 5.5602e-10
22030.0 5.5277e-10
22050.0 5.4949e-10
22070.0 5.463e-10
22090.0 5.4336e-10
22110.0 5.4046e-10
22130.0 5.376e-10
22150.0 5.3497e-10
22170.0 5.3249e-10
22190.0 5.3003e-10
22210.0 5.2771e-10
22230.0 5.2562e-10
22250.0 5.2358e-10
22270.0 5.2159e-10
22290.0 5.1976e-10
22310.0 5.1801e-10
22330.0 5.1622e-10
22350.0 5.1452e-10
22370.0 5.1289e-10
22390.0 5.1124e-10
22410.0 5.0955e-10
22430.0 5.0794e-10
22450.0 5.0632e-10
22470.0 5.0463e-10
22490.0 5.0295e-10
22510.0 5.013e-10
22530.0 4.9957e-10
22550.0 4.9779e-10
22570.0 4.9608e-10
22590.0 4.9437e-10
22610.0 4.926e-10
22630.0 4.9087e-10
