#lamb flux
1010.0 8.662e-08
1030.0 9.5802e-08
1050.0 1.0636e-07
1070.0 1.1825e-07
1090.0 1.3176e-07
1110.0 1.4561e-07
1130.0 1.5955e-07
1150.0 1.7415e-07
1170.0 1.8921e-07
1190.0 2.035e-07
1210.0 2.1797e-07
1230.0 2.3293e-07
1250.0 2.4759e-07
1270.0 2.6182e-07
1290.0 2.7686e-07
1310.0 2.9189e-07
1330.0 3.063e-07
1350.0 3.2088e-07
1370.0 3.3593e-07
1390.0 3.506e-07
1410.0 3.6483e-07
1430.0 3.7972e-07
1450.0 3.946e-07
1470.0 4.0898e-07
1490.0 4.2352e-07
1510.0 4.3888e-07
1530.0 4.5344e-07
1550.0 4.678e-07
1570.0 4.8266e-07
1590.0 4.9754e-07
1610.0 5.1176e-07
1630.0 5.2643e-07
1650.0 5.4148e-07
1670.0 5.5606e-07
1690.0 5.7045e-07
1710.0 5.8541e-07
1730.0 6.0047e-07
1750.0 6.1464e-07
1770.0 6.2924e-07
1790.0 6.4416e-07
1810.0 6.5861e-07
1830.0 6.7284e-07
1850.0 6.8796e-07
1870.0 7.0271e-07
1890.0 7.1699e-07
1910.0 7.3159e-07
1930.0 7.4656e-07
1950.0 7.6089e-07
1970.0 7.7508e-07
1990.0 7.8983e-07
2010.0 8.0438e-07
2030.0 8.1844e-07
2050.0 8.3296e-07
2070.0 8.4787e-07
2090.0 8.6198e-07
2110.0 8.7607e-07
2130.0 8.9062e-07
2150.0 9.0492e-07
2170.0 9.1863e-07
2190.0 9.3288e-07
2210.0 9.4725e-07
2230.0 9.6106e-07
2250.0 9.7482e-07
2270.0 9.8923e-07
2290.0 1.0032e-06
2310.0 1.0166e-06
2330.0 1.0306e-06
2350.0 1.045e-06
2370.0 1.0593e-06
2390.0 1.0747e-06
2410.0 1.0931e-06
2430.0 1.1142e-06
2450.0 1.1394e-06
2470.0 1.1717e-06
2490.0 1.2124e-06
2510.0 1.2587e-06
2530.0 1.3144e-06
2550.0 1.3841e-06
2570.0 1.4709e-06
2590.0 1.5837e-06
2610.0 1.7527e-06
2630.0 1.9939e-06
2650.0 2.3093e-06
2670.0 2.7171e-06
2690.0 3.2183e-06
2710.0 3.7532e-06
2730.0 4.2818e-06
2750.0 4.8024e-06
2770.0 5.2553e-06
2790.0 5.6149e-06
2810.0 5.9003e-06
2830.0 6.1233e-06
2850.0 6.2755e-06
2870.0 6.3872e-06
2890.0 6.4756e-06
2910.0 6.5462e-06
2930.0 6.6039e-06
2950.0 6.659e-06
2970.0 6.7128e-06
2990.0 6.7633e-06
3010.0 0.00019117
3030.0 0.0001926
3050.0 0.00019398
3070.0 0.00019516
3090.0 0.00019618
3110.0 0.00019681
3130.0 0.00019678
3150.0 0.00019591
3170.0 0.00019381
3190.0 0.00019052
3210.0 0.00018634
3230.0 0.00018155
3250.0 0.00017683
3270.0 0.00017338
3290.0 0.00017147
3310.0 0.00017178
3330.0 0.00017426
3350.0 0.00017859
3370.0 0.00018478
3390.0 0.00019257
3410.0 0.00020104
3430.0 0.00021056
3450.0 0.00022152
3470.0 0.00023349
3490.0 0.00024617
3510.0 0.0002605
3530.0 0.00027585
3550.0 0.00029139
3570.0 0.0003076
3590.0 0.00032523
3610.0 0.0003434
3630.0 0.00036151
3650.0 0.00038029
3670.0 0.00039745
3690.0 0.00041027
3710.0 0.00041762
3730.0 0.00041786
3750.0 0.00041205
3770.0 0.00040976
3790.0 0.00040733
3810.0 0.00039732
3830.0 0.00040962
3850.0 0.000458
3870.0 0.00048456
3890.0 0.00048235
3910.0 0.0004844
3930.0 0.00049715
3950.0 0.000505
3970.0 0.0004601
3990.0 0.0003959
4010.0 0.0011866
4030.0 0.0014377
4050.0 0.0016482
4070.0 0.0014301
4090.0 0.0012952
4110.0 0.0011429
4130.0 0.001052
4150.0 0.001119
4170.0 0.0011022
4190.0 0.0011749
4210.0 0.0011641
4230.0 0.0012314
4250.0 0.0014567
4270.0 0.0014738
4290.0 0.0013581
4310.0 0.0014112
4330.0 0.0015011
4350.0 0.0016831
4370.0 0.0019154
4390.0 0.0017974
4410.0 0.001328
4430.0 0.0011242
4450.0 0.001033
4470.0 0.00079287
4490.0 0.00085561
4510.0 0.0012924
4530.0 0.0014905
4550.0 0.0015035
4570.0 0.0016918
4590.0 0.0019271
4610.0 0.0025992
4630.0 0.0033758
4650.0 0.003661
4670.0 0.0033905
4690.0 0.0032351
4710.0 0.0034197
4730.0 0.0032273
4750.0 0.0024128
4770.0 0.0017699
4790.0 0.0016527
4810.0 0.0015753
4830.0 0.0014422
4850.0 0.0015825
4870.0 0.0020907
4890.0 0.0024655
4910.0 0.0021632
4930.0 0.0019141
4950.0 0.0021029
4970.0 0.0026969
4990.0 0.0036549
5010.0 0.0042045
5030.0 0.0037074
5050.0 0.0025083
5070.0 0.0016531
5090.0 0.0013329
5110.0 0.0013708
5130.0 0.0015821
5150.0 0.0017141
5170.0 0.0016884
5190.0 0.0015777
5210.0 0.001649
5230.0 0.0017335
5250.0 0.0018682
5270.0 0.0020157
5290.0 0.0022338
5310.0 0.0026001
5330.0 0.0028773
5350.0 0.0028589
5370.0 0.003003
5390.0 0.003446
5410.0 0.0034429
5430.0 0.0030448
5450.0 0.0027974
5470.0 0.0029704
5490.0 0.0036289
5510.0 0.0045374
5530.0 0.0052042
5550.0 0.0050299
5570.0 0.0045725
5590.0 0.0039759
5610.0 0.0036666
5630.0 0.0035555
5650.0 0.0033863
5670.0 0.0032087
5690.0 0.0028686
5710.0 0.0027969
5730.0 0.0025764
5750.0 0.0018165
5770.0 0.0014172
5790.0 0.0016059
5810.0 0.0018134
5830.0 0.0022253
5850.0 0.0026489
5870.0 0.002939
5890.0 0.0029888
5910.0 0.0029322
5930.0 0.0027911
5950.0 0.0028441
5970.0 0.0032419
5990.0 0.0030483
6010.0 0.0025554
6030.0 0.0021589
6050.0 0.0018801
6070.0 0.0018699
6090.0 0.0020276
6110.0 0.0022671
6130.0 0.0023019
6150.0 0.0019805
6170.0 0.0017423
6190.0 0.0019607
6210.0 0.002592
6230.0 0.0034014
6250.0 0.0036842
6270.0 0.0032195
6290.0 0.0027087
6310.0 0.0021146
6330.0 0.0016202
6350.0 0.0014452
6370.0 0.0015198
6390.0 0.0017569
6410.0 0.0021664
6430.0 0.0025297
6450.0 0.0028947
6470.0 0.0033145
6490.0 0.0040037
6510.0 0.0044766
6530.0 0.0043918
6550.0 0.0039714
6570.0 0.0033713
6590.0 0.00304
6610.0 0.0026213
6630.0 0.0023748
6650.0 0.0022449
6670.0 0.0021808
6690.0 0.0019705
6710.0 0.0017912
6730.0 0.0012902
6750.0 0.0012791
6770.0 0.0013903
6790.0 0.001598
6810.0 0.0014622
6830.0 0.0015057
6850.0 0.0014083
6870.0 0.0012865
6890.0 0.0012352
6910.0 0.0013163
6930.0 0.0012329
6950.0 0.0012684
6970.0 0.0013342
6990.0 0.0015144
7010.0 0.0015273
7030.0 0.0015515
7050.0 0.0014796
7070.0 0.0014098
7090.0 0.001414
7110.0 0.0014549
7130.0 0.0015657
7150.0 0.0016628
7170.0 0.0018348
7190.0 0.002017
7210.0 0.001982
7230.0 0.0020375
7250.0 0.0021896
7270.0 0.0023861
7290.0 0.0028321
7310.0 0.0030731
7330.0 0.0029704
7350.0 0.0026866
7370.0 0.0023376
7390.0 0.0022677
7410.0 0.0024099
7430.0 0.0026783
7450.0 0.0029171
7470.0 0.0028904
7490.0 0.0026354
7510.0 0.0029853
7530.0 0.0029526
7550.0 0.0026539
7570.0 0.0020732
7590.0 0.0014252
7610.0 0.0012233
7630.0 0.0013899
7650.0 0.0016434
7670.0 0.0020453
7690.0 0.0022507
7710.0 0.0023455
7730.0 0.0024648
7750.0 0.0027671
7770.0 0.0028106
7790.0 0.0025816
7810.0 0.0023556
7830.0 0.0024292
7850.0 0.0023614
7870.0 0.002165
7890.0 0.001819
7910.0 0.0014786
7930.0 0.0014119
7950.0 0.0012862
7970.0 0.0011907
7990.0 0.0011839
8010.0 8.7681e-05
8030.0 8.6541e-05
8050.0 8.5375e-05
8070.0 8.6493e-05
8090.0 9.2934e-05
8110.0 9.1351e-05
8130.0 7.5353e-05
8150.0 7.3386e-05
8170.0 6.3211e-05
8190.0 5.9906e-05
8210.0 7.7794e-05
8230.0 8.6614e-05
8250.0 7.8064e-05
8270.0 6.7945e-05
8290.0 6.6234e-05
8310.0 5.0976e-05
8330.0 3.4358e-05
8350.0 2.4384e-05
8370.0 1.5363e-05
8390.0 2.8083e-05
8410.0 3.2724e-05
8430.0 4.0338e-05
8450.0 4.7368e-05
8470.0 5.8875e-05
8490.0 5.846e-05
8510.0 5.7505e-05
8530.0 6.0014e-05
8550.0 8.0971e-05
8570.0 9.5859e-05
8590.0 0.00010343
8610.0 0.00013066
8630.0 0.00015739
8650.0 0.00016465
8670.0 0.00017497
8690.0 0.00017596
8710.0 0.00015935
8730.0 0.00014822
8750.0 0.00013084
8770.0 0.00012414
8790.0 0.00012196
8810.0 0.00011687
8830.0 9.3455e-05
8850.0 6.8416e-05
8870.0 5.2385e-05
8890.0 5.1215e-05
8910.0 5.8694e-05
8930.0 6.676e-05
8950.0 6.8039e-05
8970.0 6.8361e-05
8990.0 6.097e-05
9010.0 0.00063892
9030.0 0.00057894
9050.0 0.00058174
9070.0 0.00058633
9090.0 0.00059036
9110.0 0.00059533
9130.0 0.00059917
9150.0 0.00060215
9170.0 0.00060533
9190.0 0.00060873
9210.0 0.0006123
9230.0 0.00061608
9250.0 0.00061991
9270.0 0.00062389
9290.0 0.00062798
9310.0 0.00063211
9330.0 0.00063631
9350.0 0.00064068
9370.0 0.00064509
9390.0 0.00064954
9410.0 0.00065413
9430.0 0.00065885
9450.0 0.00066356
9470.0 0.00066836
9490.0 0.0006733
9510.0 0.0006783
9530.0 0.00068333
9550.0 0.00068853
9570.0 0.00069382
9590.0 0.00069912
9610.0 0.00070452
9630.0 0.00071006
9650.0 0.00071565
9670.0 0.00072124
9690.0 0.00072699
9710.0 0.00073283
9730.0 0.00073868
9750.0 0.00074462
9770.0 0.00075073
9790.0 0.00075683
9810.0 0.00076297
9830.0 0.00076923
9850.0 0.00077558
9870.0 0.0007819
9890.0 0.00078832
9910.0 0.00079486
9930.0 0.00080141
9950.0 0.00080798
9970.0 0.00081469
9990.0 0.00082146
10010.0 0.00071281
10030.0 0.00071866
10050.0 0.00072463
10070.0 0.0007308
10090.0 0.00073663
10110.0 0.00074259
10130.0 0.00074858
10150.0 0.00075455
10170.0 0.00076059
10190.0 0.00076674
10210.0 0.00077281
10230.0 0.00077887
10250.0 0.00078502
10270.0 0.00079117
10290.0 0.00079724
10310.0 0.00080339
10330.0 0.0008096
10350.0 0.00081571
10370.0 0.00082179
10390.0 0.00082795
10410.0 0.00083407
10430.0 0.00084008
10450.0 0.00084614
10470.0 0.00085223
10490.0 0.0008582
10510.0 0.00086414
10530.0 0.00087018
10550.0 0.00087611
10570.0 0.00088193
10590.0 0.00088777
10610.0 0.00089361
10630.0 0.0008993
10650.0 0.00090495
10670.0 0.00091065
10690.0 0.00091625
10710.0 0.00092172
10730.0 0.00092721
10750.0 0.0009327
10770.0 0.00093797
10790.0 0.0009432
10810.0 0.00094842
10830.0 0.00095348
10850.0 0.00095829
10870.0 0.00096294
10890.0 0.00096703
10910.0 0.00097019
10930.0 0.00097197
10950.0 0.00097155
10970.0 0.00096826
10990.0 0.0009618
11010.0 0.000951
11030.0 0.00093587
11050.0 0.00091744
11070.0 0.00089538
11090.0 0.00086889
11110.0 0.00084149
11130.0 0.00081291
11150.0 0.00078213
11170.0 0.00075041
11190.0 0.00071964
11210.0 0.00068786
11230.0 0.00065527
11250.0 0.00062414
11270.0 0.00059423
11290.0 0.00056428
11310.0 0.0005359
11330.0 0.00051091
11350.0 0.0004873
11370.0 0.00046548
11390.0 0.0004466
11410.0 0.00043009
11430.0 0.00041475
11450.0 0.00040153
11470.0 0.0003901
11490.0 0.00037946
11510.0 0.00036921
11530.0 0.0003597
11550.0 0.00035025
11570.0 0.00034017
11590.0 0.00032974
11610.0 0.00031911
11630.0 0.00030755
11650.0 0.00029517
11670.0 0.00028297
11690.0 0.00027059
11710.0 0.00025783
11730.0 0.00024546
11750.0 0.00023401
11770.0 0.00022279
11790.0 0.00021226
11810.0 0.000203
11830.0 0.00019472
11850.0 0.00018709
11870.0 0.00018071
11890.0 0.0001754
11910.0 0.00017074
11930.0 0.00016674
11950.0 0.0001634
11970.0 0.00016042
11990.0 0.0001576
12010.0 0.00015499
12030.0 0.00015248
12050.0 0.00014988
12070.0 0.00014718
12090.0 0.00014458
12110.0 0.00014193
12130.0 0.00013929
12150.0 0.00013684
12170.0 0.00013471
12190.0 0.00013287
12210.0 0.00013158
12230.0 0.00013096
12250.0 0.00013106
12270.0 0.00013205
12290.0 0.00013392
12310.0 0.0001366
12330.0 0.00014034
12350.0 0.00014502
12370.0 0.00015035
12390.0 0.00015649
12410.0 0.00016369
12430.0 0.00017101
12450.0 0.00017858
12470.0 0.00018664
12490.0 0.00019473
12510.0 0.00020232
12530.0 0.00020987
12550.0 0.00021715
12570.0 0.00022358
12590.0 0.00022922
12610.0 0.00023425
12630.0 0.00023826
12650.0 0.00024103
12670.0 0.00024285
12690.0 0.00024358
12710.0 0.00024318
12730.0 0.00024177
12750.0 0.00023925
12770.0 0.0002358
12790.0 0.00023162
12810.0 0.00022662
12830.0 0.00022084
12850.0 0.00021479
12870.0 0.0002084
12890.0 0.00020148
12910.0 0.00019445
12930.0 0.00018751
12950.0 0.00018028
12970.0 0.00017292
12990.0 0.00016595
13010.0 0.00015907
13030.0 0.00015212
13050.0 0.00014544
13070.0 0.00013918
13090.0 0.0001329
13110.0 0.00012682
13130.0 0.00012122
13150.0 0.00011592
13170.0 0.00011072
13190.0 0.0001061
13210.0 0.00010203
13230.0 9.8315e-05
13250.0 9.5113e-05
13270.0 9.2587e-05
13290.0 9.0622e-05
13310.0 8.9269e-05
13330.0 8.8653e-05
13350.0 8.8725e-05
13370.0 8.952e-05
13390.0 9.1084e-05
13410.0 9.3196e-05
13430.0 9.5943e-05
13450.0 9.9335e-05
13470.0 0.0001031
13490.0 0.00010709
13510.0 0.00011159
13530.0 0.00011615
13550.0 0.00012051
13570.0 0.00012482
13590.0 0.00012901
13610.0 0.00013274
13630.0 0.000136
13650.0 0.00013897
13670.0 0.00014144
13690.0 0.00014335
13710.0 0.00014483
13730.0 0.00014588
13750.0 0.00014641
13770.0 0.00014653
13790.0 0.00014627
13810.0 0.00014562
13830.0 0.00014467
13850.0 0.00014337
13870.0 0.00014174
13890.0 0.00013988
13910.0 0.00013778
13930.0 0.00013535
13950.0 0.00013269
13970.0 0.00012998
13990.0 0.00012702
14010.0 0.00012387
14030.0 0.00012074
14050.0 0.00011758
14070.0 0.00011424
14090.0 0.00011104
14110.0 0.00010804
14130.0 0.00010513
14150.0 0.00010239
14170.0 0.00010005
14190.0 9.8023e-05
14210.0 9.6307e-05
14230.0 9.5036e-05
14250.0 9.4215e-05
14270.0 9.3816e-05
14290.0 9.3901e-05
14310.0 9.4425e-05
14330.0 9.5364e-05
14350.0 9.6747e-05
14370.0 9.847e-05
14390.0 0.00010043
14410.0 0.00010273
14430.0 0.00010526
14450.0 0.00010785
14470.0 0.00011053
14490.0 0.00011338
14510.0 0.00011611
14530.0 0.0001187
14550.0 0.00012129
14570.0 0.00012377
14590.0 0.00012604
14610.0 0.00012823
14630.0 0.00013039
14650.0 0.00013241
14670.0 0.00013436
14690.0 0.00013639
14710.0 0.00013852
14730.0 0.00014066
14750.0 0.00014302
14770.0 0.00014571
14790.0 0.00014862
14810.0 0.00015177
14830.0 0.0001555
14850.0 0.00015956
14870.0 0.0001638
14890.0 0.00016837
14910.0 0.00017322
14930.0 0.00017788
14950.0 0.00018224
14970.0 0.00018637
14990.0 0.00018983
15010.0 0.00019248
15030.0 0.00019444
15050.0 0.00019574
15070.0 0.00019637
15090.0 0.00019659
15110.0 0.00019653
15130.0 0.00019628
15150.0 0.00019595
15170.0 0.00019556
15190.0 0.00019514
15210.0 0.00019472
15230.0 0.00019431
15250.0 0.00019388
15270.0 0.00019345
15290.0 0.00019305
15310.0 0.00019264
15330.0 0.00019222
15350.0 0.00019182
15370.0 0.00019142
15390.0 0.00019101
15410.0 0.0001906
15430.0 0.00019021
15450.0 0.00018981
15470.0 0.0001894
15490.0 0.00018902
15510.0 0.00018863
15530.0 0.00018824
15550.0 0.00018785
15570.0 0.00018747
15590.0 0.00018708
15610.0 0.00018668
15630.0 0.0001863
15650.0 0.00018593
15670.0 0.00018554
15690.0 0.00018516
15710.0 0.00018479
15730.0 0.00018441
15750.0 0.00018403
15770.0 0.00018366
15790.0 0.00018329
15810.0 0.0001829
15830.0 0.00018253
15850.0 0.00018217
15870.0 0.00018179
15890.0 0.00018142
15910.0 0.00018106
15930.0 0.00018069
15950.0 0.00018031
15970.0 0.00017994
15990.0 0.00017958
16010.0 0.00017921
16030.0 0.00017883
16050.0 0.00017848
16070.0 0.00017812
16090.0 0.00017774
16110.0 0.00017738
16130.0 0.00017703
16150.0 0.00017665
16170.0 0.00017628
16190.0 0.00017592
16210.0 0.00017556
16230.0 0.00017518
16250.0 0.00017482
16270.0 0.00017447
16290.0 0.00017409
16310.0 0.00017372
16330.0 0.00017337
16350.0 0.000173
16370.0 0.00017262
16390.0 0.00017226
16410.0 0.0001719
16430.0 0.00017152
16450.0 0.00017115
16470.0 0.0001708
16490.0 0.00017043
16510.0 0.00017005
16530.0 0.00016968
16550.0 0.00016932
16570.0 0.00016894
16590.0 0.00016856
16610.0 0.0001682
16630.0 0.00016783
16650.0 0.00016745
16670.0 0.00016708
16690.0 0.00016671
16710.0 0.00016632
16730.0 0.00016595
16750.0 0.00016558
16770.0 0.0001652
16790.0 0.00016481
16810.0 0.00016444
16830.0 0.00016406
16850.0 0.00016368
16870.0 0.00016329
16890.0 0.00016292
16910.0 0.00016253
16930.0 0.00016213
16950.0 0.00016176
16970.0 0.00016138
16990.0 0.00016098
17010.0 0.00016059
17030.0 0.00016022
17050.0 0.00015982
17070.0 0.00015942
17090.0 0.00015904
17110.0 0.00015865
17130.0 0.00015824
17150.0 0.00015784
17170.0 0.00015746
17190.0 0.00015706
17210.0 0.00015665
17230.0 0.00015627
17250.0 0.00015587
17270.0 0.00015545
17290.0 0.00015505
17310.0 0.00015466
17330.0 0.00015425
17350.0 0.00015383
17370.0 0.00015344
17390.0 0.00015303
17410.0 0.00015262
17430.0 0.00015221
17450.0 0.00015181
17470.0 0.00015139
17490.0 0.00015097
17510.0 0.00015056
17530.0 0.00015015
17550.0 0.00014972
17570.0 0.00014931
17590.0 0.00014891
17610.0 0.00014848
17630.0 0.00014806
17650.0 0.00014765
17670.0 0.00014722
17690.0 0.00014678
17710.0 0.00014637
17730.0 0.00014595
17750.0 0.00014552
17770.0 0.00014509
17790.0 0.00014468
17810.0 0.00014425
17830.0 0.00014381
17850.0 0.00014338
17870.0 0.00014296
17890.0 0.00014252
17910.0 0.00014208
17930.0 0.00014166
17950.0 0.00014122
17970.0 0.00014078
17990.0 0.00014036
18010.0 0.00013993
18030.0 0.00013947
18050.0 0.00013904
18070.0 0.00013861
18090.0 0.00013816
18110.0 0.00013771
18130.0 0.00013729
18150.0 0.00013685
18170.0 0.0001364
18190.0 0.00013596
18210.0 0.00013553
18230.0 0.00013507
18250.0 0.00013462
18270.0 0.00013418
18290.0 0.00013374
18310.0 0.00013328
18330.0 0.00013284
18350.0 0.00013241
18370.0 0.00013195
18390.0 0.0001315
18410.0 0.00013105
18430.0 0.00013061
18450.0 0.00013014
18470.0 0.0001297
18490.0 0.00012925
18510.0 0.0001288
18530.0 0.00012834
18550.0 0.0001279
18570.0 0.00012745
18590.0 0.00012698
18610.0 0.00012654
18630.0 0.00012609
18650.0 0.00012563
18670.0 0.00012517
18690.0 0.00012473
18710.0 0.00012427
18730.0 0.00012381
18750.0 0.00012336
18770.0 0.00012291
18790.0 0.00012244
18810.0 0.00012198
18830.0 0.00012154
18850.0 0.00012108
18870.0 0.00012061
18890.0 0.00012016
18910.0 0.00011972
18930.0 0.00011925
18950.0 0.00011879
18970.0 0.00011834
18990.0 0.00011788
19010.0 0.00011741
19030.0 0.00011696
19050.0 0.00011651
19070.0 0.00011604
19090.0 0.00011559
19110.0 0.00011514
19130.0 0.00011468
19150.0 0.00011421
19170.0 0.00011376
19190.0 0.00011331
19210.0 0.00011284
19230.0 0.00011238
19250.0 0.00011193
19270.0 0.00011147
19290.0 0.00011101
19310.0 0.00011056
19330.0 0.00011011
19350.0 0.00010963
19370.0 0.00010918
19390.0 0.00010873
19410.0 0.00010827
19430.0 0.0001078
19450.0 0.00010736
19470.0 0.0001069
19490.0 0.00010644
19510.0 0.00010598
19530.0 0.00010554
19550.0 0.00010507
19570.0 0.0001046
19590.0 0.00010416
19610.0 0.00010371
19630.0 0.00010324
19650.0 0.00010279
19670.0 0.00010235
19690.0 0.00010188
19710.0 0.00010142
19730.0 0.00010098
19750.0 0.00010052
19770.0 0.00010005
19790.0 9.9605e-05
19810.0 9.916e-05
19830.0 9.8699e-05
19850.0 9.8236e-05
19870.0 9.7781e-05
19890.0 9.7293e-05
19910.0 9.6756e-05
19930.0 9.6182e-05
19950.0 9.5525e-05
19970.0 9.4717e-05
19990.0 9.3743e-05
20010.0 8.3403e-05
20030.0 8.2196e-05
20050.0 8.0783e-05
20070.0 7.9253e-05
20090.0 7.7606e-05
20110.0 7.5743e-05
20130.0 7.3858e-05
20150.0 7.1989e-05
20170.0 7.0051e-05
20190.0 6.8086e-05
20210.0 6.623e-05
20230.0 6.442e-05
20250.0 6.2606e-05
20270.0 6.0922e-05
20290.0 5.9385e-05
20310.0 5.7924e-05
20330.0 5.6559e-05
20350.0 5.5425e-05
20370.0 5.4419e-05
20390.0 5.3537e-05
20410.0 5.2825e-05
20430.0 5.2276e-05
20450.0 5.1841e-05
20470.0 5.1549e-05
20490.0 5.1393e-05
20510.0 5.1347e-05
20530.0 5.1411e-05
20550.0 5.1569e-05
20570.0 5.18e-05
20590.0 5.2113e-05
20610.0 5.2492e-05
20630.0 5.2909e-05
20650.0 5.3375e-05
20670.0 5.3908e-05
20690.0 5.4452e-05
20710.0 5.5014e-05
20730.0 5.562e-05
20750.0 5.6253e-05
20770.0 5.6876e-05
20790.0 5.753e-05
20810.0 5.8221e-05
20830.0 5.8909e-05
20850.0 5.96e-05
20870.0 6.034e-05
20890.0 6.1095e-05
20910.0 6.1823e-05
20930.0 6.2578e-05
20950.0 6.336e-05
20970.0 6.4123e-05
20990.0 6.4876e-05
21010.0 6.5668e-05
21030.0 6.6441e-05
21050.0 6.718e-05
21070.0 6.7917e-05
21090.0 6.8657e-05
21110.0 6.9331e-05
21130.0 6.9965e-05
21150.0 7.0579e-05
21170.0 7.1134e-05
21190.0 7.1613e-05
21210.0 7.2043e-05
21230.0 7.24e-05
21250.0 7.2655e-05
21270.0 7.2817e-05
21290.0 7.2878e-05
21310.0 7.282e-05
21330.0 7.2648e-05
21350.0 7.2346e-05
21370.0 7.1903e-05
21390.0 7.134e-05
21410.0 7.0651e-05
21430.0 6.9778e-05
21450.0 6.8798e-05
21470.0 6.773e-05
21490.0 6.6523e-05
21510.0 6.5198e-05
21530.0 6.3853e-05
21550.0 6.2443e-05
21570.0 6.094e-05
21590.0 5.9462e-05
21610.0 5.8033e-05
21630.0 5.6603e-05
21650.0 5.5206e-05
21670.0 5.3995e-05
21690.0 5.2878e-05
21710.0 5.1872e-05
21730.0 5.1048e-05
21750.0 5.0412e-05
21770.0 4.9928e-05
21790.0 4.965e-05
21810.0 4.9572e-05
21830.0 4.9682e-05
21850.0 4.9993e-05
21870.0 5.0477e-05
21890.0 5.1103e-05
21910.0 5.1905e-05
21930.0 5.2846e-05
21950.0 5.3866e-05
21970.0 5.4996e-05
21990.0 5.6263e-05
22010.0 5.753e-05
22030.0 5.8817e-05
22050.0 6.0169e-05
22070.0 6.1527e-05
22090.0 6.2814e-05
22110.0 6.4111e-05
22130.0 6.5406e-05
22150.0 6.6616e-05
22170.0 6.7756e-05
22190.0 6.8886e-05
22210.0 6.9937e-05
22230.0 7.0863e-05
22250.0 7.1734e-05
22270.0 7.2536e-05
22290.0 7.3222e-05
22310.0 7.3811e-05
22330.0 7.4329e-05
22350.0 7.473e-05
22370.0 7.5013e-05
22390.0 7.5189e-05
22410.0 7.5245e-05
22430.0 7.5174e-05
22450.0 7.498e-05
22470.0 7.4645e-05
22490.0 7.4175e-05
22510.0 7.3589e-05
22530.0 7.284e-05
22550.0 7.1928e-05
22570.0 7.0917e-05
22590.0 6.9776e-05
22610.0 6.8464e-05
22630.0 6.7043e-05
22650.0 6.5576e-05
22670.0 6.3952e-05
22690.0 6.2219e-05
22710.0 6.0471e-05
22730.0 5.8669e-05
22750.0 5.6716e-05
22770.0 5.4807e-05
22790.0 5.2943e-05
22810.0 5.103e-05
22830.0 4.9121e-05
