#lamb flux
1010.0 8.7153e-08
1030.0 9.6392e-08
1050.0 1.0702e-07
1070.0 1.1898e-07
1090.0 1.3257e-07
1110.0 1.465e-07
1130.0 1.6053e-07
1150.0 1.7522e-07
1170.0 1.9038e-07
1190.0 2.0475e-07
1210.0 2.1932e-07
1230.0 2.3437e-07
1250.0 2.4911e-07
1270.0 2.6343e-07
1290.0 2.7857e-07
1310.0 2.9369e-07
1330.0 3.0819e-07
1350.0 3.2285e-07
1370.0 3.3799e-07
1390.0 3.5276e-07
1410.0 3.6708e-07
1430.0 3.8206e-07
1450.0 3.9703e-07
1470.0 4.115e-07
1490.0 4.2613e-07
1510.0 4.4159e-07
1530.0 4.5623e-07
1550.0 4.7068e-07
1570.0 4.8564e-07
1590.0 5.006e-07
1610.0 5.1491e-07
1630.0 5.2967e-07
1650.0 5.4482e-07
1670.0 5.5948e-07
1690.0 5.7397e-07
1710.0 5.8902e-07
1730.0 6.0417e-07
1750.0 6.1843e-07
1770.0 6.3312e-07
1790.0 6.4813e-07
1810.0 6.6267e-07
1830.0 6.7698e-07
1850.0 6.9219e-07
1870.0 7.0704e-07
1890.0 7.2141e-07
1910.0 7.3609e-07
1930.0 7.5116e-07
1950.0 7.6558e-07
1970.0 7.7985e-07
1990.0 7.947e-07
2010.0 8.0933e-07
2030.0 8.2348e-07
2050.0 8.3809e-07
2070.0 8.531e-07
2090.0 8.6729e-07
2110.0 8.8147e-07
2130.0 8.9611e-07
2150.0 9.105e-07
2170.0 9.2429e-07
2190.0 9.3863e-07
2210.0 9.5308e-07
2230.0 9.6698e-07
2250.0 9.8083e-07
2270.0 9.9532e-07
2290.0 1.0094e-06
2310.0 1.0229e-06
2330.0 1.037e-06
2350.0 1.0514e-06
2370.0 1.0658e-06
2390.0 1.0814e-06
2410.0 1.0998e-06
2430.0 1.121e-06
2450.0 1.1464e-06
2470.0 1.1789e-06
2490.0 1.2199e-06
2510.0 1.2664e-06
2530.0 1.3225e-06
2550.0 1.3927e-06
2570.0 1.48e-06
2590.0 1.5935e-06
2610.0 1.7635e-06
2630.0 2.0062e-06
2650.0 2.3236e-06
2670.0 2.7339e-06
2690.0 3.2381e-06
2710.0 3.7763e-06
2730.0 4.3082e-06
2750.0 4.832e-06
2770.0 5.2877e-06
2790.0 5.6495e-06
2810.0 5.9367e-06
2830.0 6.161e-06
2850.0 6.3141e-06
2870.0 6.4265e-06
2890.0 6.5155e-06
2910.0 6.5865e-06
2930.0 6.6446e-06
2950.0 6.7e-06
2970.0 6.7541e-06
2990.0 6.805e-06
3010.0 0.00019235
3030.0 0.00019378
3050.0 0.00019517
3070.0 0.00019636
3090.0 0.00019739
3110.0 0.00019802
3130.0 0.000198
3150.0 0.00019712
3170.0 0.00019501
3190.0 0.00019169
3210.0 0.00018749
3230.0 0.00018267
3250.0 0.00017792
3270.0 0.00017445
3290.0 0.00017252
3310.0 0.00017284
3330.0 0.00017534
3350.0 0.00017969
3370.0 0.00018591
3390.0 0.00019375
3410.0 0.00020228
3430.0 0.00021186
3450.0 0.00022288
3470.0 0.00023492
3490.0 0.00024768
3510.0 0.0002621
3530.0 0.00027755
3550.0 0.00029318
3570.0 0.00030949
3590.0 0.00032723
3610.0 0.00034551
3630.0 0.00036373
3650.0 0.00038264
3670.0 0.0003999
3690.0 0.0004128
3710.0 0.00042019
3730.0 0.00042044
3750.0 0.00041459
3770.0 0.00041229
3790.0 0.00040984
3810.0 0.00039976
3830.0 0.00041214
3850.0 0.00046082
3870.0 0.00048754
3890.0 0.00048532
3910.0 0.00048739
3930.0 0.00050022
3950.0 0.00050812
3970.0 0.00046294
3990.0 0.00039834
4010.0 0.0011939
4030.0 0.0014466
4050.0 0.0016584
4070.0 0.0014389
4090.0 0.0013032
4110.0 0.00115
4130.0 0.0010584
4150.0 0.0011259
4170.0 0.001109
4190.0 0.0011821
4210.0 0.0011713
4230.0 0.0012389
4250.0 0.0014657
4270.0 0.0014829
4290.0 0.0013665
4310.0 0.0014199
4330.0 0.0015103
4350.0 0.0016935
4370.0 0.0019272
4390.0 0.0018085
4410.0 0.0013361
4430.0 0.0011311
4450.0 0.0010394
4470.0 0.00079776
4490.0 0.00086088
4510.0 0.0013004
4530.0 0.0014997
4550.0 0.0015127
4570.0 0.0017022
4590.0 0.001939
4610.0 0.0026152
4630.0 0.0033966
4650.0 0.0036836
4670.0 0.0034114
4690.0 0.003255
4710.0 0.0034408
4730.0 0.0032471
4750.0 0.0024277
4770.0 0.0017808
4790.0 0.0016629
4810.0 0.001585
4830.0 0.0014511
4850.0 0.0015923
4870.0 0.0021036
4890.0 0.0024807
4910.0 0.0021765
4930.0 0.0019259
4950.0 0.0021159
4970.0 0.0027135
4990.0 0.0036774
5010.0 0.0042304
5030.0 0.0037302
5050.0 0.0025237
5070.0 0.0016632
5090.0 0.0013412
5110.0 0.0013793
5130.0 0.0015919
5150.0 0.0017247
5170.0 0.0016988
5190.0 0.0015874
5210.0 0.0016592
5230.0 0.0017442
5250.0 0.0018798
5270.0 0.0020281
5290.0 0.0022476
5310.0 0.0026161
5330.0 0.0028951
5350.0 0.0028767
5370.0 0.0030217
5390.0 0.0034674
5410.0 0.0034643
5430.0 0.0030637
5450.0 0.0028148
5470.0 0.0029888
5490.0 0.0036515
5510.0 0.0045657
5530.0 0.0052367
5550.0 0.0050613
5570.0 0.0046011
5590.0 0.0040007
5610.0 0.0036896
5630.0 0.0035777
5650.0 0.0034075
5670.0 0.0032288
5690.0 0.0028866
5710.0 0.0028145
5730.0 0.0025926
5750.0 0.0018279
5770.0 0.0014261
5790.0 0.0016161
5810.0 0.0018248
5830.0 0.0022393
5850.0 0.0026657
5870.0 0.0029576
5890.0 0.0030077
5910.0 0.0029508
5930.0 0.0028088
5950.0 0.0028621
5970.0 0.0032625
5990.0 0.0030676
6010.0 0.0025716
6030.0 0.0021726
6050.0 0.0018921
6070.0 0.0018817
6090.0 0.0020404
6110.0 0.0022815
6130.0 0.0023165
6150.0 0.0019931
6170.0 0.0017533
6190.0 0.0019731
6210.0 0.0026084
6230.0 0.003423
6250.0 0.0037076
6270.0 0.0032399
6290.0 0.0027259
6310.0 0.0021281
6330.0 0.0016305
6350.0 0.0014544
6370.0 0.0015294
6390.0 0.0017681
6410.0 0.0021801
6430.0 0.0025458
6450.0 0.002913
6470.0 0.0033355
6490.0 0.0040291
6510.0 0.004505
6530.0 0.0044197
6550.0 0.0039966
6570.0 0.0033927
6590.0 0.0030593
6610.0 0.0026379
6630.0 0.0023899
6650.0 0.0022591
6670.0 0.0021947
6690.0 0.001983
6710.0 0.0018026
6730.0 0.0012984
6750.0 0.0012872
6770.0 0.0013991
6790.0 0.0016082
6810.0 0.0014715
6830.0 0.0015152
6850.0 0.0014172
6870.0 0.0012946
6890.0 0.0012431
6910.0 0.0013246
6930.0 0.0012407
6950.0 0.0012765
6970.0 0.0013426
6990.0 0.001524
7010.0 0.001537
7030.0 0.0015614
7050.0 0.001489
7070.0 0.0014188
7090.0 0.0014229
7110.0 0.0014641
7130.0 0.0015756
7150.0 0.0016734
7170.0 0.0018465
7190.0 0.0020298
7210.0 0.0019945
7230.0 0.0020504
7250.0 0.0022035
7270.0 0.0024013
7290.0 0.0028501
7310.0 0.0030926
7330.0 0.0029893
7350.0 0.0027036
7370.0 0.0023524
7390.0 0.0022821
7410.0 0.0024252
7430.0 0.0026953
7450.0 0.0029357
7470.0 0.0029087
7490.0 0.0026522
7510.0 0.0030043
7530.0 0.0029714
7550.0 0.0026707
7570.0 0.0020863
7590.0 0.0014343
7610.0 0.001231
7630.0 0.0013987
7650.0 0.0016538
7670.0 0.0020582
7690.0 0.0022649
7710.0 0.0023603
7730.0 0.0024804
7750.0 0.0027845
7770.0 0.0028283
7790.0 0.0025979
7810.0 0.0023705
7830.0 0.0024445
7850.0 0.0023762
7870.0 0.0021786
7890.0 0.0018305
7910.0 0.0014879
7930.0 0.0014207
7950.0 0.0012943
7970.0 0.0011981
7990.0 0.0011913
8010.0 8.8231e-05
8030.0 8.7084e-05
8050.0 8.591e-05
8070.0 8.7035e-05
8090.0 9.3517e-05
8110.0 9.1923e-05
8130.0 7.5825e-05
8150.0 7.3845e-05
8170.0 6.3607e-05
8190.0 6.0281e-05
8210.0 7.8281e-05
8230.0 8.7156e-05
8250.0 7.8552e-05
8270.0 6.8369e-05
8290.0 6.6647e-05
8310.0 5.1295e-05
8330.0 3.4572e-05
8350.0 2.4536e-05
8370.0 1.5459e-05
8390.0 2.8258e-05
8410.0 3.2928e-05
8430.0 4.0589e-05
8450.0 4.7663e-05
8470.0 5.9241e-05
8490.0 5.8824e-05
8510.0 5.7862e-05
8530.0 6.0387e-05
8550.0 8.1474e-05
8570.0 9.6453e-05
8590.0 0.00010407
8610.0 0.00013147
8630.0 0.00015837
8650.0 0.00016567
8670.0 0.00017606
8690.0 0.00017705
8710.0 0.00016034
8730.0 0.00014914
8750.0 0.00013164
8770.0 0.00012491
8790.0 0.00012272
8810.0 0.00011759
8830.0 9.4032e-05
8850.0 6.8838e-05
8870.0 5.2708e-05
8890.0 5.1531e-05
8910.0 5.9055e-05
8930.0 6.7171e-05
8950.0 6.8458e-05
8970.0 6.8781e-05
8990.0 6.1345e-05
9010.0 0.00064286
9030.0 0.00058251
9050.0 0.00058532
9070.0 0.00058994
9090.0 0.000594
9110.0 0.000599
9130.0 0.00060286
9150.0 0.00060586
9170.0 0.00060906
9190.0 0.00061248
9210.0 0.00061608
9230.0 0.00061987
9250.0 0.00062373
9270.0 0.00062773
9290.0 0.00063185
9310.0 0.000636
9330.0 0.00064023
9350.0 0.00064462
9370.0 0.00064906
9390.0 0.00065354
9410.0 0.00065816
9430.0 0.00066291
9450.0 0.00066764
9470.0 0.00067248
9490.0 0.00067745
9510.0 0.00068248
9530.0 0.00068754
9550.0 0.00069277
9570.0 0.00069809
9590.0 0.00070343
9610.0 0.00070886
9630.0 0.00071443
9650.0 0.00072006
9670.0 0.00072569
9690.0 0.00073147
9710.0 0.00073734
9730.0 0.00074323
9750.0 0.0007492
9770.0 0.00075536
9790.0 0.00076149
9810.0 0.00076767
9830.0 0.00077397
9850.0 0.00078035
9870.0 0.00078672
9890.0 0.00079318
9910.0 0.00079976
9930.0 0.00080635
9950.0 0.00081296
9970.0 0.00081971
9990.0 0.00082652
10010.0 0.0007172
10030.0 0.00072309
10050.0 0.0007291
10070.0 0.00073531
10090.0 0.00074116
10110.0 0.00074717
10130.0 0.00075319
10150.0 0.0007592
10170.0 0.00076528
10190.0 0.00077146
10210.0 0.00077757
10230.0 0.00078366
10250.0 0.00078986
10270.0 0.00079604
10290.0 0.00080215
10310.0 0.00080834
10330.0 0.00081459
10350.0 0.00082073
10370.0 0.00082685
10390.0 0.00083305
10410.0 0.00083921
10430.0 0.00084525
10450.0 0.00085135
10470.0 0.00085748
10490.0 0.00086349
10510.0 0.00086946
10530.0 0.00087554
10550.0 0.00088151
10570.0 0.00088736
10590.0 0.00089324
10610.0 0.00089911
10630.0 0.00090484
10650.0 0.00091052
10670.0 0.00091626
10690.0 0.00092189
10710.0 0.0009274
10730.0 0.00093292
10750.0 0.00093845
10770.0 0.00094375
10790.0 0.00094901
10810.0 0.00095426
10830.0 0.00095935
10850.0 0.00096419
10870.0 0.00096887
10890.0 0.00097299
10910.0 0.00097616
10930.0 0.00097796
10950.0 0.00097753
10970.0 0.00097422
10990.0 0.00096773
11010.0 0.00095686
11030.0 0.00094164
11050.0 0.00092309
11070.0 0.0009009
11090.0 0.00087425
11110.0 0.00084667
11130.0 0.00081792
11150.0 0.00078695
11170.0 0.00075503
11190.0 0.00072407
11210.0 0.0006921
11230.0 0.00065931
11250.0 0.00062798
11270.0 0.00059789
11290.0 0.00056775
11310.0 0.0005392
11330.0 0.00051405
11350.0 0.0004903
11370.0 0.00046835
11390.0 0.00044936
11410.0 0.00043274
11430.0 0.0004173
11450.0 0.000404
11470.0 0.0003925
11490.0 0.0003818
11510.0 0.00037149
11530.0 0.00036192
11550.0 0.00035241
11570.0 0.00034227
11590.0 0.00033177
11610.0 0.00032108
11630.0 0.00030944
11650.0 0.00029699
11670.0 0.00028471
11690.0 0.00027226
11710.0 0.00025942
11730.0 0.00024697
11750.0 0.00023545
11770.0 0.00022416
11790.0 0.00021357
11810.0 0.00020425
11830.0 0.00019592
11850.0 0.00018824
11870.0 0.00018182
11890.0 0.00017648
11910.0 0.00017179
11930.0 0.00016776
11950.0 0.0001644
11970.0 0.00016141
11990.0 0.00015857
12010.0 0.00015595
12030.0 0.00015342
12050.0 0.00015081
12070.0 0.00014809
12090.0 0.00014547
12110.0 0.00014281
12130.0 0.00014014
12150.0 0.00013769
12170.0 0.00013554
12190.0 0.00013369
12210.0 0.00013239
12230.0 0.00013177
12250.0 0.00013187
12270.0 0.00013286
12290.0 0.00013474
12310.0 0.00013744
12330.0 0.00014121
12350.0 0.00014592
12370.0 0.00015128
12390.0 0.00015746
12410.0 0.0001647
12430.0 0.00017206
12450.0 0.00017968
12470.0 0.00018779
12490.0 0.00019593
12510.0 0.00020356
12530.0 0.00021116
12550.0 0.00021849
12570.0 0.00022496
12590.0 0.00023064
12610.0 0.0002357
12630.0 0.00023973
12650.0 0.00024252
12670.0 0.00024435
12690.0 0.00024508
12710.0 0.00024468
12730.0 0.00024326
12750.0 0.00024073
12770.0 0.00023725
12790.0 0.00023304
12810.0 0.00022801
12830.0 0.0002222
12850.0 0.00021611
12870.0 0.00020968
12890.0 0.00020272
12910.0 0.00019564
12930.0 0.00018867
12950.0 0.00018139
12970.0 0.00017398
12990.0 0.00016698
13010.0 0.00016005
13030.0 0.00015306
13050.0 0.00014633
13070.0 0.00014004
13090.0 0.00013372
13110.0 0.00012761
13130.0 0.00012197
13150.0 0.00011663
13170.0 0.00011141
13190.0 0.00010676
13210.0 0.00010266
13230.0 9.8921e-05
13250.0 9.5699e-05
13270.0 9.3157e-05
13290.0 9.118e-05
13310.0 8.9819e-05
13330.0 8.9199e-05
13350.0 8.9271e-05
13370.0 9.0072e-05
13390.0 9.1645e-05
13410.0 9.377e-05
13430.0 9.6534e-05
13450.0 9.9947e-05
13470.0 0.00010374
13490.0 0.00010775
13510.0 0.00011228
13530.0 0.00011686
13550.0 0.00012126
13570.0 0.00012559
13590.0 0.00012981
13610.0 0.00013356
13630.0 0.00013684
13650.0 0.00013983
13670.0 0.00014231
13690.0 0.00014424
13710.0 0.00014572
13730.0 0.00014678
13750.0 0.00014731
13770.0 0.00014743
13790.0 0.00014717
13810.0 0.00014652
13830.0 0.00014556
13850.0 0.00014426
13870.0 0.00014262
13890.0 0.00014074
13910.0 0.00013863
13930.0 0.00013618
13950.0 0.00013351
13970.0 0.00013078
13990.0 0.0001278
14010.0 0.00012464
14030.0 0.00012148
14050.0 0.0001183
14070.0 0.00011494
14090.0 0.00011173
14110.0 0.0001087
14130.0 0.00010577
14150.0 0.00010302
14170.0 0.00010066
14190.0 9.8627e-05
14210.0 9.69e-05
14230.0 9.5621e-05
14250.0 9.4795e-05
14270.0 9.4394e-05
14290.0 9.448e-05
14310.0 9.5006e-05
14330.0 9.5951e-05
14350.0 9.7343e-05
14370.0 9.9077e-05
14390.0 0.00010105
14410.0 0.00010337
14430.0 0.00010591
14450.0 0.00010851
14470.0 0.00011121
14490.0 0.00011408
14510.0 0.00011682
14530.0 0.00011943
14550.0 0.00012204
14570.0 0.00012454
14590.0 0.00012681
14610.0 0.00012902
14630.0 0.00013119
14650.0 0.00013322
14670.0 0.00013518
14690.0 0.00013723
14710.0 0.00013938
14730.0 0.00014152
14750.0 0.0001439
14770.0 0.0001466
14790.0 0.00014953
14810.0 0.0001527
14830.0 0.00015646
14850.0 0.00016054
14870.0 0.00016481
14890.0 0.0001694
14910.0 0.00017429
14930.0 0.00017898
14950.0 0.00018337
14970.0 0.00018752
14990.0 0.000191
15010.0 0.00019367
15030.0 0.00019564
15050.0 0.00019694
15070.0 0.00019758
15090.0 0.0001978
15110.0 0.00019774
15130.0 0.00019749
15150.0 0.00019716
15170.0 0.00019676
15190.0 0.00019634
15210.0 0.00019592
15230.0 0.0001955
15250.0 0.00019507
15270.0 0.00019465
15290.0 0.00019424
15310.0 0.00019383
15330.0 0.00019341
15350.0 0.000193
15370.0 0.0001926
15390.0 0.00019218
15410.0 0.00019178
15430.0 0.00019138
15450.0 0.00019098
15470.0 0.00019057
15490.0 0.00019018
15510.0 0.0001898
15530.0 0.00018939
15550.0 0.000189
15570.0 0.00018862
15590.0 0.00018823
15610.0 0.00018783
15630.0 0.00018745
15650.0 0.00018707
15670.0 0.00018668
15690.0 0.0001863
15710.0 0.00018593
15730.0 0.00018554
15750.0 0.00018516
15770.0 0.00018479
15790.0 0.00018442
15810.0 0.00018403
15830.0 0.00018365
15850.0 0.00018329
15870.0 0.00018291
15890.0 0.00018253
15910.0 0.00018217
15930.0 0.0001818
15950.0 0.00018142
15970.0 0.00018105
15990.0 0.00018069
16010.0 0.00018031
16030.0 0.00017993
16050.0 0.00017958
16070.0 0.00017921
16090.0 0.00017884
16110.0 0.00017847
16130.0 0.00017812
16150.0 0.00017774
16170.0 0.00017736
16190.0 0.000177
16210.0 0.00017664
16230.0 0.00017626
16250.0 0.0001759
16270.0 0.00017554
16290.0 0.00017516
16310.0 0.00017479
16330.0 0.00017443
16350.0 0.00017407
16370.0 0.00017368
16390.0 0.00017332
16410.0 0.00017296
16430.0 0.00017258
16450.0 0.00017221
16470.0 0.00017185
16490.0 0.00017148
16510.0 0.00017109
16530.0 0.00017073
16550.0 0.00017036
16570.0 0.00016998
16590.0 0.0001696
16610.0 0.00016924
16630.0 0.00016886
16650.0 0.00016848
16670.0 0.00016811
16690.0 0.00016774
16710.0 0.00016735
16730.0 0.00016697
16750.0 0.0001666
16770.0 0.00016621
16790.0 0.00016582
16810.0 0.00016545
16830.0 0.00016508
16850.0 0.00016468
16870.0 0.0001643
16890.0 0.00016393
16910.0 0.00016353
16930.0 0.00016313
16950.0 0.00016275
16970.0 0.00016237
16990.0 0.00016197
17010.0 0.00016158
17030.0 0.0001612
17050.0 0.0001608
17070.0 0.0001604
17090.0 0.00016002
17110.0 0.00015962
17130.0 0.00015921
17150.0 0.00015882
17170.0 0.00015843
17190.0 0.00015802
17210.0 0.00015762
17230.0 0.00015723
17250.0 0.00015683
17270.0 0.00015641
17290.0 0.00015601
17310.0 0.00015561
17330.0 0.0001552
17350.0 0.00015478
17370.0 0.00015438
17390.0 0.00015398
17410.0 0.00015356
17430.0 0.00015315
17450.0 0.00015275
17470.0 0.00015232
17490.0 0.0001519
17510.0 0.00015149
17530.0 0.00015107
17550.0 0.00015065
17570.0 0.00015023
17590.0 0.00014982
17610.0 0.00014939
17630.0 0.00014897
17650.0 0.00014856
17670.0 0.00014813
17690.0 0.00014769
17710.0 0.00014727
17730.0 0.00014685
17750.0 0.00014642
17770.0 0.00014599
17790.0 0.00014557
17810.0 0.00014513
17830.0 0.00014469
17850.0 0.00014427
17870.0 0.00014384
17890.0 0.00014339
17910.0 0.00014295
17930.0 0.00014253
17950.0 0.00014209
17970.0 0.00014165
17990.0 0.00014122
18010.0 0.00014079
18030.0 0.00014033
18050.0 0.00013989
18070.0 0.00013946
18090.0 0.00013902
18110.0 0.00013856
18130.0 0.00013813
18150.0 0.00013769
18170.0 0.00013724
18190.0 0.00013679
18210.0 0.00013636
18230.0 0.0001359
18250.0 0.00013545
18270.0 0.00013501
18290.0 0.00013456
18310.0 0.00013411
18330.0 0.00013366
18350.0 0.00013322
18370.0 0.00013276
18390.0 0.00013231
18410.0 0.00013186
18430.0 0.00013141
18450.0 0.00013094
18470.0 0.00013049
18490.0 0.00013005
18510.0 0.00012959
18530.0 0.00012913
18550.0 0.00012869
18570.0 0.00012824
18590.0 0.00012777
18610.0 0.00012731
18630.0 0.00012687
18650.0 0.0001264
18670.0 0.00012594
18690.0 0.00012549
18710.0 0.00012504
18730.0 0.00012457
18750.0 0.00012412
18770.0 0.00012367
18790.0 0.0001232
18810.0 0.00012273
18830.0 0.00012228
18850.0 0.00012182
18870.0 0.00012136
18890.0 0.0001209
18910.0 0.00012045
18930.0 0.00011998
18950.0 0.00011952
18970.0 0.00011907
18990.0 0.00011861
19010.0 0.00011813
19030.0 0.00011768
19050.0 0.00011723
19070.0 0.00011676
19090.0 0.0001163
19110.0 0.00011585
19130.0 0.00011538
19150.0 0.00011491
19170.0 0.00011446
19190.0 0.000114
19210.0 0.00011353
19230.0 0.00011307
19250.0 0.00011262
19270.0 0.00011216
19290.0 0.00011169
19310.0 0.00011124
19330.0 0.00011079
19350.0 0.00011031
19370.0 0.00010985
19390.0 0.0001094
19410.0 0.00010893
19430.0 0.00010846
19450.0 0.00010802
19470.0 0.00010756
19490.0 0.00010709
19510.0 0.00010664
19530.0 0.00010619
19550.0 0.00010572
19570.0 0.00010525
19590.0 0.0001048
19610.0 0.00010434
19630.0 0.00010388
19650.0 0.00010342
19670.0 0.00010298
19690.0 0.00010251
19710.0 0.00010205
19730.0 0.0001016
19750.0 0.00010114
19770.0 0.00010067
19790.0 0.00010022
19810.0 9.9771e-05
19830.0 9.9307e-05
19850.0 9.8841e-05
19870.0 9.8383e-05
19890.0 9.7892e-05
19910.0 9.7352e-05
19930.0 9.6774e-05
19950.0 9.6113e-05
19970.0 9.53e-05
19990.0 9.4321e-05
20010.0 8.3917e-05
20030.0 8.2702e-05
20050.0 8.1281e-05
20070.0 7.9741e-05
20090.0 7.8084e-05
20110.0 7.621e-05
20130.0 7.4312e-05
20150.0 7.2432e-05
20170.0 7.0483e-05
20190.0 6.8506e-05
20210.0 6.6638e-05
20230.0 6.4817e-05
20250.0 6.2991e-05
20270.0 6.1297e-05
20290.0 5.975e-05
20310.0 5.8281e-05
20330.0 5.6907e-05
20350.0 5.5767e-05
20370.0 5.4755e-05
20390.0 5.3867e-05
20410.0 5.315e-05
20430.0 5.2598e-05
20450.0 5.216e-05
20470.0 5.1867e-05
20490.0 5.1709e-05
20510.0 5.1664e-05
20530.0 5.1728e-05
20550.0 5.1887e-05
20570.0 5.212e-05
20590.0 5.2434e-05
20610.0 5.2815e-05
20630.0 5.3235e-05
20650.0 5.3704e-05
20670.0 5.4241e-05
20690.0 5.4788e-05
20710.0 5.5353e-05
20730.0 5.5963e-05
20750.0 5.66e-05
20770.0 5.7226e-05
20790.0 5.7884e-05
20810.0 5.858e-05
20830.0 5.9272e-05
20850.0 5.9967e-05
20870.0 6.0712e-05
20890.0 6.1471e-05
20910.0 6.2204e-05
20930.0 6.2963e-05
20950.0 6.375e-05
20970.0 6.4518e-05
20990.0 6.5276e-05
21010.0 6.6072e-05
21030.0 6.6851e-05
21050.0 6.7594e-05
21070.0 6.8335e-05
21090.0 6.908e-05
21110.0 6.9758e-05
21130.0 7.0396e-05
21150.0 7.1013e-05
21170.0 7.1572e-05
21190.0 7.2054e-05
21210.0 7.2487e-05
21230.0 7.2846e-05
21250.0 7.3103e-05
21270.0 7.3266e-05
21290.0 7.3327e-05
21310.0 7.3268e-05
21330.0 7.3095e-05
21350.0 7.2792e-05
21370.0 7.2346e-05
21390.0 7.178e-05
21410.0 7.1086e-05
21430.0 7.0207e-05
21450.0 6.9221e-05
21470.0 6.8147e-05
21490.0 6.6933e-05
21510.0 6.56e-05
21530.0 6.4246e-05
21550.0 6.2828e-05
21570.0 6.1316e-05
21590.0 5.9828e-05
21610.0 5.8391e-05
21630.0 5.6952e-05
21650.0 5.5546e-05
21670.0 5.4327e-05
21690.0 5.3204e-05
21710.0 5.2191e-05
21730.0 5.1362e-05
21750.0 5.0723e-05
21770.0 5.0236e-05
21790.0 4.9955e-05
21810.0 4.9878e-05
21830.0 4.9988e-05
21850.0 5.0301e-05
21870.0 5.0788e-05
21890.0 5.1418e-05
21910.0 5.2225e-05
21930.0 5.3172e-05
21950.0 5.4198e-05
21970.0 5.5334e-05
21990.0 5.661e-05
22010.0 5.7885e-05
22030.0 5.9179e-05
22050.0 6.0539e-05
22070.0 6.1906e-05
22090.0 6.3201e-05
22110.0 6.4506e-05
22130.0 6.5809e-05
22150.0 6.7026e-05
22170.0 6.8173e-05
22190.0 6.931e-05
22210.0 7.0368e-05
22230.0 7.1299e-05
22250.0 7.2176e-05
22270.0 7.2983e-05
22290.0 7.3673e-05
22310.0 7.4266e-05
22330.0 7.4787e-05
22350.0 7.519e-05
22370.0 7.5475e-05
22390.0 7.5653e-05
22410.0 7.5709e-05
22430.0 7.5637e-05
22450.0 7.5442e-05
22470.0 7.5105e-05
22490.0 7.4632e-05
22510.0 7.4043e-05
22530.0 7.3288e-05
22550.0 7.2371e-05
22570.0 7.1353e-05
22590.0 7.0206e-05
22610.0 6.8886e-05
22630.0 6.7456e-05
22650.0 6.598e-05
22670.0 6.4346e-05
22690.0 6.2602e-05
22710.0 6.0843e-05
22730.0 5.903e-05
22750.0 5.7065e-05
22770.0 5.5144e-05
22790.0 5.3269e-05
22810.0 5.1344e-05
22830.0 4.9423e-05
