#lamb flux
1010.0 8.3977e-08
1030.0 8.8787e-08
1050.0 9.4353e-08
1070.0 1.0063e-07
1090.0 1.0776e-07
1110.0 1.151e-07
1130.0 1.2252e-07
1150.0 1.3031e-07
1170.0 1.3838e-07
1190.0 1.4608e-07
1210.0 1.5392e-07
1230.0 1.6206e-07
1250.0 1.7009e-07
1270.0 1.7794e-07
1290.0 1.8627e-07
1310.0 1.9466e-07
1330.0 2.0277e-07
1350.0 2.1103e-07
1370.0 2.1961e-07
1390.0 2.2806e-07
1410.0 2.3634e-07
1430.0 2.4504e-07
1450.0 2.5381e-07
1470.0 2.6238e-07
1490.0 2.7111e-07
1510.0 2.8034e-07
1530.0 2.892e-07
1550.0 2.9801e-07
1570.0 3.0713e-07
1590.0 3.1631e-07
1610.0 3.2514e-07
1630.0 3.3424e-07
1650.0 3.4357e-07
1670.0 3.526e-07
1690.0 3.6151e-07
1710.0 3.707e-07
1730.0 3.7987e-07
1750.0 3.8846e-07
1770.0 3.972e-07
1790.0 4.0599e-07
1810.0 4.1438e-07
1830.0 4.2247e-07
1850.0 4.309e-07
1870.0 4.3893e-07
1890.0 4.4647e-07
1910.0 4.5397e-07
1930.0 4.6145e-07
1950.0 4.6832e-07
1970.0 4.7485e-07
1990.0 4.8146e-07
2010.0 4.8769e-07
2030.0 4.9341e-07
2050.0 4.9914e-07
2070.0 5.0486e-07
2090.0 5.0993e-07
2110.0 5.148e-07
2130.0 5.1974e-07
2150.0 5.2441e-07
2170.0 5.2865e-07
2190.0 5.3309e-07
2210.0 5.3754e-07
2230.0 5.4169e-07
2250.0 5.4584e-07
2270.0 5.5038e-07
2290.0 5.5479e-07
2310.0 5.5906e-07
2330.0 5.6372e-07
2350.0 5.6866e-07
2370.0 5.7357e-07
2390.0 5.7883e-07
2410.0 5.8474e-07
2430.0 5.9079e-07
2450.0 5.9709e-07
2470.0 6.0408e-07
2490.0 6.1192e-07
2510.0 6.2069e-07
2530.0 6.323e-07
2550.0 6.4994e-07
2570.0 6.7724e-07
2590.0 7.1867e-07
2610.0 7.8524e-07
2630.0 8.8102e-07
2650.0 1.0026e-06
2670.0 1.1524e-06
2690.0 1.3269e-06
2710.0 1.5052e-06
2730.0 1.6766e-06
2750.0 1.8439e-06
2770.0 1.9942e-06
2790.0 2.1248e-06
2810.0 2.2452e-06
2830.0 2.3635e-06
2850.0 2.4744e-06
2870.0 2.5863e-06
2890.0 2.7054e-06
2910.0 2.8295e-06
2930.0 2.9553e-06
2950.0 3.0901e-06
2970.0 3.233e-06
2990.0 3.378e-06
3010.0 9.4508e-06
3030.0 9.87e-06
3050.0 1.0288e-05
3070.0 1.067e-05
3090.0 1.0996e-05
3110.0 1.118e-05
3130.0 1.1121e-05
3150.0 1.0706e-05
3170.0 9.708e-06
3190.0 8.1051e-06
3210.0 5.922e-06
3230.0 3.4652e-06
3250.0 6.0984e-06
3270.0 3.231e-06
3290.0 9.3417e-06
3310.0 2.7409e-06
3330.0 2.6874e-06
3350.0 3.5026e-06
3370.0 4.4659e-06
3390.0 5.51e-06
3410.0 6.5537e-06
3430.0 7.6517e-06
3450.0 8.7548e-06
3470.0 9.7668e-06
3490.0 1.0453e-05
3510.0 1.2872e-05
3530.0 1.7223e-05
3550.0 1.6729e-05
3570.0 1.3458e-05
3590.0 1.895e-05
3610.0 1.1467e-05
3630.0 1.9851e-05
3650.0 2.3307e-05
3670.0 3.023e-05
3690.0 2.7996e-05
3710.0 1.8163e-05
3730.0 2.4275e-05
3750.0 2.4984e-05
3770.0 2.655e-05
3790.0 2.5046e-05
3810.0 2.4647e-05
3830.0 3.8941e-05
3850.0 4.6787e-05
3870.0 5.8176e-05
3890.0 5.5594e-05
3910.0 4.9018e-05
3930.0 5.0146e-05
3950.0 5.4876e-05
3970.0 6.409e-05
3990.0 4.3036e-05
4010.0 2.3291e-05
4030.0 3.9848e-05
4050.0 5.088e-05
4070.0 5.6238e-05
4090.0 4.1894e-05
4110.0 2.5995e-05
4130.0 4.1027e-05
4150.0 4.0417e-05
4170.0 3.9304e-05
4190.0 3.6771e-05
4210.0 5.0735e-05
4230.0 3.5527e-05
4250.0 4.0102e-05
4270.0 3.9894e-05
4290.0 3.86e-05
4310.0 4.9466e-05
4330.0 5.2374e-05
4350.0 4.1343e-05
4370.0 3.4409e-05
4390.0 4.3372e-05
4410.0 4.5109e-05
4430.0 3.3351e-05
4450.0 3.1597e-05
4470.0 3.8772e-05
4490.0 2.8453e-05
4510.0 3.8553e-05
4530.0 4.0414e-05
4550.0 5.0394e-05
4570.0 7.2883e-05
4590.0 6.9889e-05
4610.0 4.8965e-05
4630.0 8.2244e-05
4650.0 0.00011546
4670.0 0.00010819
4690.0 6.9075e-05
4710.0 7.5094e-05
4730.0 9.2013e-05
4750.0 7.8363e-05
4770.0 5.911e-05
4790.0 3.8869e-05
4810.0 5.6002e-05
4830.0 6.5866e-05
4850.0 5.6629e-05
4870.0 1.8131e-05
4890.0 6.2877e-05
4910.0 8.6849e-05
4930.0 9.3983e-05
4950.0 9.3826e-05
4970.0 5.9009e-05
4990.0 6.9345e-05
5010.0 8.3384e-05
5030.0 9.2663e-05
5050.0 8.9678e-05
5070.0 6.335e-05
5090.0 5.1101e-05
5110.0 4.8664e-05
5130.0 4.4882e-05
5150.0 4.8461e-05
5170.0 4.24e-05
5190.0 5.2133e-05
5210.0 5.2707e-05
5230.0 5.8542e-05
5250.0 7.1835e-05
5270.0 5.8428e-05
5290.0 5.908e-05
5310.0 9.0081e-05
5330.0 0.00010502
5350.0 8.6695e-05
5370.0 7.6045e-05
5390.0 8.9746e-05
5410.0 0.00011211
5430.0 0.00012228
5450.0 0.00012956
5470.0 0.00012888
5490.0 0.00012867
5510.0 0.00015424
5530.0 0.00016088
5550.0 0.00017289
5570.0 0.00018465
5590.0 0.00018316
5610.0 0.00017211
5630.0 0.00016746
5650.0 0.00017338
5670.0 0.00017083
5690.0 0.00014526
5710.0 0.00014377
5730.0 0.00014705
5750.0 0.00015844
5770.0 0.0001364
5790.0 0.00012753
5810.0 0.00013012
5830.0 0.00014001
5850.0 0.00012925
5870.0 0.00013128
5890.0 0.00015778
5910.0 0.00014865
5930.0 0.0001208
5950.0 0.00010673
5970.0 0.00011766
5990.0 0.00010832
6010.0 0.00010116
6030.0 0.00010184
6050.0 9.3767e-05
6070.0 6.9944e-05
6090.0 6.4399e-05
6110.0 8.5215e-05
6130.0 9.7852e-05
6150.0 0.00010167
6170.0 9.7641e-05
6190.0 9.0868e-05
6210.0 9.2018e-05
6230.0 0.00011197
6250.0 0.00010343
6270.0 9.3815e-05
6290.0 8.6258e-05
6310.0 7.9906e-05
6330.0 7.5019e-05
6350.0 6.5945e-05
6370.0 6.5994e-05
6390.0 7.7688e-05
6410.0 9.7065e-05
6430.0 0.0001133
6450.0 0.0001093
6470.0 0.00010791
6490.0 0.00013484
6510.0 0.00015655
6530.0 0.00014798
6550.0 0.00014036
6570.0 0.00014252
6590.0 0.00013955
6610.0 0.00015019
6630.0 0.00013986
6650.0 0.00012088
6670.0 0.00011006
6690.0 0.00010912
6710.0 0.00013398
6730.0 0.00012019
6750.0 9.8625e-05
6770.0 8.7451e-05
6790.0 9.2679e-05
6810.0 0.00010644
6830.0 0.00010525
6850.0 9.4136e-05
6870.0 9.8254e-05
6890.0 9.7647e-05
6910.0 9.1788e-05
6930.0 0.00010423
6950.0 9.5929e-05
6970.0 8.8373e-05
6990.0 8.7603e-05
7010.0 8.6523e-05
7030.0 8.3362e-05
7050.0 8.0757e-05
7070.0 8.8812e-05
7090.0 8.3746e-05
7110.0 7.0977e-05
7130.0 5.873e-05
7150.0 5.5968e-05
7170.0 7.3628e-05
7190.0 7.9203e-05
7210.0 7.4911e-05
7230.0 7.7983e-05
7250.0 7.3579e-05
7270.0 7.0555e-05
7290.0 7.7913e-05
7310.0 8.7372e-05
7330.0 8.5757e-05
7350.0 7.9645e-05
7370.0 7.3958e-05
7390.0 7.5078e-05
7410.0 8.7202e-05
7430.0 9.7148e-05
7450.0 0.00010276
7470.0 0.00010203
7490.0 0.00011098
7510.0 0.00010888
7530.0 0.00010197
7550.0 9.8799e-05
7570.0 8.6e-05
7590.0 8.3358e-05
7610.0 8.0273e-05
7630.0 7.2949e-05
7650.0 7.8394e-05
7670.0 8.6037e-05
7690.0 9.3304e-05
7710.0 0.00010591
7730.0 0.00011144
7750.0 0.00011575
7770.0 0.00011849
7790.0 0.00012936
7810.0 0.00013116
7830.0 0.00011755
7850.0 0.00011802
7870.0 0.0001129
7890.0 0.00011715
7910.0 0.00011047
7930.0 0.00011046
7950.0 9.3435e-05
7970.0 9.4467e-05
7990.0 9.0484e-05
8010.0 9.5761e-05
8030.0 9.5072e-05
8050.0 0.00010063
8070.0 9.6189e-05
8090.0 9.6372e-05
8110.0 9.4551e-05
8130.0 9.3821e-05
8150.0 8.8358e-05
8170.0 8.6224e-05
8190.0 8.5506e-05
8210.0 8.6095e-05
8230.0 7.5015e-05
8250.0 6.8315e-05
8270.0 6.0205e-05
8290.0 5.0962e-05
8310.0 4.4892e-05
8330.0 3.5763e-05
8350.0 2.9187e-05
8370.0 2.8535e-05
8390.0 2.7657e-05
8410.0 2.872e-05
8430.0 3.6587e-05
8450.0 3.9569e-05
8470.0 4.2318e-05
8490.0 4.9374e-05
8510.0 5.3596e-05
8530.0 6.1057e-05
8550.0 7.2046e-05
8570.0 7.8993e-05
8590.0 8.303e-05
8610.0 9.1483e-05
8630.0 0.00010311
8650.0 0.00010522
8670.0 0.00010695
8690.0 0.00011103
8710.0 0.00010876
8730.0 0.00010556
8750.0 9.7446e-05
8770.0 9.7342e-05
8790.0 9.5866e-05
8810.0 8.7955e-05
8830.0 8.8141e-05
8850.0 8.1186e-05
8870.0 7.748e-05
8890.0 6.9353e-05
8910.0 7.6558e-05
8930.0 6.9058e-05
8950.0 6.8741e-05
8970.0 6.9772e-05
8990.0 6.7439e-05
9010.0 6.9204e-05
9030.0 6.5789e-05
9050.0 6.5454e-05
9070.0 6.5458e-05
9090.0 6.5449e-05
9110.0 6.5479e-05
9130.0 6.5448e-05
9150.0 6.5385e-05
9170.0 6.5142e-05
9190.0 6.4628e-05
9210.0 6.562e-05
9230.0 6.5303e-05
9250.0 6.5108e-05
9270.0 6.4935e-05
9290.0 6.4777e-05
9310.0 6.4626e-05
9330.0 6.4477e-05
9350.0 6.4327e-05
9370.0 6.4173e-05
9390.0 6.4012e-05
9410.0 6.3846e-05
9430.0 6.3676e-05
9450.0 6.3497e-05
9470.0 6.3314e-05
9490.0 6.3128e-05
9510.0 6.2937e-05
9530.0 6.2741e-05
9550.0 6.2543e-05
9570.0 6.2342e-05
9590.0 6.2138e-05
9610.0 6.1931e-05
9630.0 6.1724e-05
9650.0 6.1515e-05
9670.0 6.1303e-05
9690.0 6.1092e-05
9710.0 6.0882e-05
9730.0 6.0669e-05
9750.0 6.0457e-05
9770.0 6.025e-05
9790.0 6.004e-05
9810.0 5.9831e-05
9830.0 5.9625e-05
9850.0 5.9422e-05
9870.0 5.9217e-05
9890.0 5.9015e-05
9910.0 5.8819e-05
9930.0 5.8622e-05
9950.0 5.8323e-05
9970.0 5.8166e-05
9990.0 5.8009e-05
10010.0 5.7846e-05
10030.0 5.7679e-05
10050.0 5.7493e-05
10070.0 5.7209e-05
10090.0 5.7084e-05
10110.0 5.6957e-05
10130.0 5.6823e-05
10150.0 5.6687e-05
10170.0 5.6547e-05
10190.0 5.6402e-05
10210.0 5.6264e-05
10230.0 5.6132e-05
10250.0 5.5998e-05
10270.0 5.587e-05
10290.0 5.5751e-05
10310.0 5.5633e-05
10330.0 5.5515e-05
10350.0 5.5408e-05
10370.0 5.5307e-05
10390.0 5.5205e-05
10410.0 5.511e-05
10430.0 5.5024e-05
10450.0 5.4938e-05
10470.0 5.4856e-05
10490.0 5.4782e-05
10510.0 5.4713e-05
10530.0 5.4643e-05
10550.0 5.458e-05
10570.0 5.4525e-05
10590.0 5.4472e-05
10610.0 5.4421e-05
10630.0 5.4379e-05
10650.0 5.434e-05
10670.0 5.4302e-05
10690.0 5.4271e-05
10710.0 5.4245e-05
10730.0 5.4221e-05
10750.0 5.4199e-05
10770.0 5.4186e-05
10790.0 5.4176e-05
10810.0 5.4166e-05
10830.0 5.416e-05
10850.0 5.4155e-05
10870.0 5.4139e-05
10890.0 5.4106e-05
10910.0 5.4042e-05
10930.0 5.392e-05
10950.0 5.3695e-05
10970.0 5.3349e-05
10990.0 5.2868e-05
11010.0 5.3487e-05
11030.0 5.2602e-05
11050.0 5.156e-05
11070.0 5.0351e-05
11090.0 4.8948e-05
11110.0 4.7546e-05
11130.0 4.6142e-05
11150.0 4.47e-05
11170.0 4.3294e-05
11190.0 4.2009e-05
11210.0 4.0762e-05
11230.0 3.9567e-05
11250.0 3.85e-05
11270.0 3.7538e-05
11290.0 3.663e-05
11310.0 3.5812e-05
11330.0 3.5118e-05
11350.0 3.4472e-05
11370.0 3.3869e-05
11390.0 3.3329e-05
11410.0 3.2825e-05
11430.0 3.2308e-05
11450.0 3.1803e-05
11470.0 3.1307e-05
11490.0 3.0784e-05
11510.0 3.0221e-05
11530.0 2.9658e-05
11550.0 2.9076e-05
11570.0 2.8443e-05
11590.0 2.7792e-05
11610.0 2.7146e-05
11630.0 2.646e-05
11650.0 2.5744e-05
11670.0 2.5059e-05
11690.0 2.4375e-05
11710.0 2.3673e-05
11730.0 2.2993e-05
11750.0 2.2356e-05
11770.0 2.1714e-05
11790.0 2.1087e-05
11810.0 2.0508e-05
11830.0 1.9955e-05
11850.0 1.94e-05
11870.0 1.8889e-05
11890.0 1.8421e-05
11910.0 1.7959e-05
11930.0 1.7513e-05
11950.0 1.7104e-05
11970.0 1.6706e-05
11990.0 1.6304e-05
12010.0 1.5927e-05
12030.0 1.5571e-05
12050.0 1.5214e-05
12070.0 1.4863e-05
12090.0 1.4549e-05
12110.0 1.4247e-05
12130.0 1.3955e-05
12150.0 1.3697e-05
12170.0 1.3474e-05
12190.0 1.3271e-05
12210.0 1.3112e-05
12230.0 1.3004e-05
12250.0 1.2944e-05
12270.0 1.2937e-05
12290.0 1.299e-05
12310.0 1.3098e-05
12330.0 1.3267e-05
12350.0 1.3494e-05
12370.0 1.3764e-05
12390.0 1.4081e-05
12410.0 1.4452e-05
12430.0 1.4833e-05
12450.0 1.5227e-05
12470.0 1.5639e-05
12490.0 1.6046e-05
12510.0 1.6427e-05
12530.0 1.6798e-05
12550.0 1.715e-05
12570.0 1.7462e-05
12590.0 1.7738e-05
12610.0 1.7987e-05
12630.0 1.8198e-05
12650.0 1.8367e-05
12670.0 1.8506e-05
12690.0 1.8614e-05
12710.0 1.8692e-05
12730.0 1.8743e-05
12750.0 1.8767e-05
12770.0 1.8769e-05
12790.0 1.875e-05
12810.0 1.871e-05
12830.0 1.8646e-05
12850.0 1.8567e-05
12870.0 1.847e-05
12890.0 1.8346e-05
12910.0 1.8203e-05
12930.0 1.8046e-05
12950.0 1.7857e-05
12970.0 1.764e-05
12990.0 1.7413e-05
13010.0 1.7165e-05
13030.0 1.6886e-05
13050.0 1.6596e-05
13070.0 1.6305e-05
13090.0 1.5991e-05
13110.0 1.5669e-05
13130.0 1.536e-05
13150.0 1.5057e-05
13170.0 1.4749e-05
13190.0 1.4474e-05
13210.0 1.4232e-05
13230.0 1.401e-05
13250.0 1.382e-05
13270.0 1.3674e-05
13290.0 1.3562e-05
13310.0 1.3481e-05
13330.0 1.3438e-05
13350.0 1.3425e-05
13370.0 1.3434e-05
13390.0 1.346e-05
13410.0 1.3496e-05
13430.0 1.3533e-05
13450.0 1.3563e-05
13470.0 1.3581e-05
13490.0 1.3582e-05
13510.0 1.3558e-05
13530.0 1.351e-05
13550.0 1.344e-05
13570.0 1.3347e-05
13590.0 1.3229e-05
13610.0 1.31e-05
13630.0 1.2964e-05
13650.0 1.2815e-05
13670.0 1.2665e-05
13690.0 1.2523e-05
13710.0 1.2383e-05
13730.0 1.2244e-05
13750.0 1.2122e-05
13770.0 1.201e-05
13790.0 1.1903e-05
13810.0 1.1802e-05
13830.0 1.1711e-05
13850.0 1.1619e-05
13870.0 1.1527e-05
13890.0 1.1436e-05
13910.0 1.1343e-05
13930.0 1.1244e-05
13950.0 1.1141e-05
13970.0 1.1041e-05
13990.0 1.0936e-05
14010.0 1.0829e-05
14030.0 1.0728e-05
14050.0 1.063e-05
14070.0 1.0534e-05
14090.0 1.0448e-05
14110.0 1.0373e-05
14130.0 1.0306e-05
14150.0 1.0249e-05
14170.0 1.0205e-05
14190.0 1.0172e-05
14210.0 1.0149e-05
14230.0 1.0137e-05
14250.0 1.0135e-05
14270.0 1.0145e-05
14290.0 1.0166e-05
14310.0 1.0195e-05
14330.0 1.0233e-05
14350.0 1.0282e-05
14370.0 1.0337e-05
14390.0 1.0396e-05
14410.0 1.0463e-05
14430.0 1.0533e-05
14450.0 1.0601e-05
14470.0 1.0669e-05
14490.0 1.074e-05
14510.0 1.0804e-05
14530.0 1.0864e-05
14550.0 1.0925e-05
14570.0 1.0986e-05
14590.0 1.1044e-05
14610.0 1.1106e-05
14630.0 1.1179e-05
14650.0 1.1256e-05
14670.0 1.1343e-05
14690.0 1.1447e-05
14710.0 1.157e-05
14730.0 1.1701e-05
14750.0 1.1852e-05
14770.0 1.2026e-05
14790.0 1.2212e-05
14810.0 1.2406e-05
14830.0 1.2629e-05
14850.0 1.2857e-05
14870.0 1.3079e-05
14890.0 1.3305e-05
14910.0 1.3529e-05
14930.0 1.3727e-05
14950.0 1.3897e-05
14970.0 1.4044e-05
14990.0 1.4151e-05
15010.0 1.4214e-05
15030.0 1.4241e-05
15050.0 1.4236e-05
15070.0 1.4201e-05
15090.0 1.4148e-05
15110.0 1.4082e-05
15130.0 1.4008e-05
15150.0 1.393e-05
15170.0 1.385e-05
15190.0 1.3769e-05
15210.0 1.3688e-05
15230.0 1.3607e-05
15250.0 1.3525e-05
15270.0 1.3443e-05
15290.0 1.3363e-05
15310.0 1.3282e-05
15330.0 1.3201e-05
15350.0 1.3121e-05
15370.0 1.3042e-05
15390.0 1.2961e-05
15410.0 1.2881e-05
15430.0 1.2802e-05
15450.0 1.2722e-05
15470.0 1.2643e-05
15490.0 1.2565e-05
15510.0 1.2487e-05
15530.0 1.2408e-05
15550.0 1.2331e-05
15570.0 1.2254e-05
15590.0 1.2177e-05
15610.0 1.2099e-05
15630.0 1.2023e-05
15650.0 1.1948e-05
15670.0 1.1872e-05
15690.0 1.1797e-05
15710.0 1.1723e-05
15730.0 1.1648e-05
15750.0 1.1574e-05
15770.0 1.1501e-05
15790.0 1.1428e-05
15810.0 1.1354e-05
15830.0 1.1282e-05
15850.0 1.1211e-05
15870.0 1.1139e-05
15890.0 1.1068e-05
15910.0 1.0999e-05
15930.0 1.0929e-05
15950.0 1.0859e-05
15970.0 1.079e-05
15990.0 1.0722e-05
16010.0 1.0653e-05
16030.0 1.0585e-05
16050.0 1.0519e-05
16070.0 1.0452e-05
16090.0 1.0385e-05
16110.0 1.032e-05
16130.0 1.0255e-05
16150.0 1.019e-05
16170.0 1.0125e-05
16190.0 1.0062e-05
16210.0 9.9988e-06
16230.0 9.9354e-06
16250.0 9.8733e-06
16270.0 9.8121e-06
16290.0 9.7503e-06
16310.0 9.6892e-06
16330.0 9.6294e-06
16350.0 9.5695e-06
16370.0 9.5089e-06
16390.0 9.4504e-06
16410.0 9.3923e-06
16430.0 9.3339e-06
16450.0 9.2762e-06
16470.0 9.2199e-06
16490.0 9.163e-06
16510.0 9.1062e-06
16530.0 9.0508e-06
16550.0 8.9959e-06
16570.0 8.9404e-06
16590.0 8.8857e-06
16610.0 8.8326e-06
16630.0 8.779e-06
16650.0 8.7256e-06
16670.0 8.6735e-06
16690.0 8.6217e-06
16710.0 8.5691e-06
16730.0 8.5177e-06
16750.0 8.4674e-06
16770.0 8.4167e-06
16790.0 8.366e-06
16810.0 8.317e-06
16830.0 8.2681e-06
16850.0 8.2188e-06
16870.0 8.1704e-06
16890.0 8.123e-06
16910.0 8.075e-06
16930.0 8.027e-06
16950.0 7.9807e-06
16970.0 7.9345e-06
16990.0 7.8879e-06
17010.0 7.8423e-06
17030.0 7.7977e-06
17050.0 7.7523e-06
17070.0 7.7073e-06
17090.0 7.6636e-06
17110.0 7.6198e-06
17130.0 7.5754e-06
17150.0 7.5324e-06
17170.0 7.4901e-06
17190.0 7.4474e-06
17210.0 7.405e-06
17230.0 7.3638e-06
17250.0 7.3224e-06
17270.0 7.2805e-06
17290.0 7.2398e-06
17310.0 7.1997e-06
17330.0 7.1591e-06
17350.0 7.1187e-06
17370.0 7.0799e-06
17390.0 7.0407e-06
17410.0 7.0013e-06
17430.0 6.9629e-06
17450.0 6.9251e-06
17470.0 6.8862e-06
17490.0 6.8481e-06
17510.0 6.8111e-06
17530.0 6.7739e-06
17550.0 6.7364e-06
17570.0 6.7001e-06
17590.0 6.6642e-06
17610.0 6.6276e-06
17630.0 6.5916e-06
17650.0 6.5566e-06
17670.0 6.5212e-06
17690.0 6.4851e-06
17710.0 6.4508e-06
17730.0 6.4166e-06
17750.0 6.3819e-06
17770.0 6.3477e-06
17790.0 6.3146e-06
17810.0 6.2807e-06
17830.0 6.2469e-06
17850.0 6.2141e-06
17870.0 6.1815e-06
17890.0 6.1482e-06
17910.0 6.1155e-06
17930.0 6.084e-06
17950.0 6.0519e-06
17970.0 6.0198e-06
17990.0 5.9887e-06
18010.0 5.9577e-06
18030.0 5.9257e-06
18050.0 5.8948e-06
18070.0 5.8646e-06
18090.0 5.8339e-06
18110.0 5.8031e-06
18130.0 5.7735e-06
18150.0 5.7439e-06
18170.0 5.7138e-06
18190.0 5.6843e-06
18210.0 5.6556e-06
18230.0 5.626e-06
18250.0 5.5964e-06
18270.0 5.5682e-06
18290.0 5.5398e-06
18310.0 5.511e-06
18330.0 5.4829e-06
18350.0 5.4555e-06
18370.0 5.4273e-06
18390.0 5.3993e-06
18410.0 5.3722e-06
18430.0 5.345e-06
18450.0 5.317e-06
18470.0 5.2902e-06
18490.0 5.2639e-06
18510.0 5.237e-06
18530.0 5.2103e-06
18550.0 5.1846e-06
18570.0 5.1584e-06
18590.0 5.1317e-06
18610.0 5.106e-06
18630.0 5.0806e-06
18650.0 5.0547e-06
18670.0 5.0288e-06
18690.0 5.0043e-06
18710.0 4.9792e-06
18730.0 4.9538e-06
18750.0 4.9293e-06
18770.0 4.9052e-06
18790.0 4.8798e-06
18810.0 4.8552e-06
18830.0 4.8314e-06
18850.0 4.8073e-06
18870.0 4.7828e-06
18890.0 4.7593e-06
18910.0 4.7361e-06
18930.0 4.712e-06
18950.0 4.6885e-06
18970.0 4.6656e-06
18990.0 4.6424e-06
19010.0 4.6184e-06
19030.0 4.5959e-06
19050.0 4.5734e-06
19070.0 4.5504e-06
19090.0 4.5278e-06
19110.0 4.506e-06
19130.0 4.4833e-06
19150.0 4.4607e-06
19170.0 4.4389e-06
19190.0 4.4171e-06
19210.0 4.3946e-06
19230.0 4.3727e-06
19250.0 4.3518e-06
19270.0 4.3301e-06
19290.0 4.3083e-06
19310.0 4.2874e-06
19330.0 4.2665e-06
19350.0 4.2446e-06
19370.0 4.2236e-06
19390.0 4.2031e-06
19410.0 4.1821e-06
19430.0 4.1609e-06
19450.0 4.1409e-06
19470.0 4.1206e-06
19490.0 4.0997e-06
19510.0 4.0795e-06
19530.0 4.0598e-06
19550.0 4.0392e-06
19570.0 4.0186e-06
19590.0 3.9992e-06
19610.0 3.9794e-06
19630.0 3.9592e-06
19650.0 3.9397e-06
19670.0 3.9207e-06
19690.0 3.9007e-06
19710.0 3.881e-06
19730.0 3.8621e-06
19750.0 3.8429e-06
19770.0 3.823e-06
19790.0 3.8041e-06
19810.0 3.7855e-06
19830.0 3.7661e-06
19850.0 3.7468e-06
19870.0 3.7279e-06
19890.0 3.7075e-06
19910.0 3.685e-06
19930.0 3.661e-06
19950.0 3.6334e-06
19970.0 3.5994e-06
19990.0 3.5587e-06
20010.0 3.513e-06
20030.0 3.4584e-06
20050.0 3.3958e-06
20070.0 3.3299e-06
20090.0 3.2611e-06
20110.0 3.1859e-06
20130.0 3.1129e-06
20150.0 3.0434e-06
20170.0 2.974e-06
20190.0 2.9065e-06
20210.0 2.8453e-06
20230.0 2.7878e-06
20250.0 2.7323e-06
20270.0 2.6829e-06
20290.0 2.6397e-06
20310.0 2.6005e-06
20330.0 2.566e-06
20350.0 2.5397e-06
20370.0 2.5189e-06
20390.0 2.5036e-06
20410.0 2.4952e-06
20430.0 2.4931e-06
20450.0 2.4973e-06
20470.0 2.5082e-06
20490.0 2.525e-06
20510.0 2.5477e-06
20530.0 2.5773e-06
20550.0 2.6116e-06
20570.0 2.6492e-06
20590.0 2.6923e-06
20610.0 2.739e-06
20630.0 2.7866e-06
20650.0 2.8361e-06
20670.0 2.8888e-06
20690.0 2.939e-06
20710.0 2.9871e-06
20730.0 3.0347e-06
20750.0 3.0797e-06
20770.0 3.1194e-06
20790.0 3.1563e-06
20810.0 3.1902e-06
20830.0 3.2192e-06
20850.0 3.244e-06
20870.0 3.2661e-06
20890.0 3.2847e-06
20910.0 3.2996e-06
20930.0 3.3123e-06
20950.0 3.323e-06
20970.0 3.3314e-06
20990.0 3.3381e-06
21010.0 3.3433e-06
21030.0 3.3467e-06
21050.0 3.3483e-06
21070.0 3.348e-06
21090.0 3.3456e-06
21110.0 3.3413e-06
21130.0 3.335e-06
21150.0 3.3264e-06
21170.0 3.3159e-06
21190.0 3.3041e-06
21210.0 3.2904e-06
21230.0 3.275e-06
21250.0 3.2595e-06
21270.0 3.2436e-06
21290.0 3.2271e-06
21310.0 3.2109e-06
21330.0 3.1962e-06
21350.0 3.1819e-06
21370.0 3.1686e-06
21390.0 3.1573e-06
21410.0 3.1478e-06
21430.0 3.1396e-06
21450.0 3.1337e-06
21470.0 3.1301e-06
21490.0 3.1285e-06
21510.0 3.1289e-06
21530.0 3.1314e-06
21550.0 3.1359e-06
21570.0 3.1425e-06
21590.0 3.151e-06
21610.0 3.161e-06
21630.0 3.1732e-06
21650.0 3.1877e-06
21670.0 3.2031e-06
21690.0 3.2204e-06
21710.0 3.2401e-06
21730.0 3.2612e-06
21750.0 3.2835e-06
21770.0 3.3089e-06
21790.0 3.3361e-06
21810.0 3.3643e-06
21830.0 3.3945e-06
21850.0 3.4276e-06
21870.0 3.4617e-06
21890.0 3.4962e-06
21910.0 3.5335e-06
21930.0 3.5721e-06
21950.0 3.6104e-06
21970.0 3.65e-06
21990.0 3.6918e-06
22010.0 3.7317e-06
22030.0 3.7707e-06
22050.0 3.8101e-06
22070.0 3.8482e-06
22090.0 3.8829e-06
22110.0 3.9162e-06
22130.0 3.9475e-06
22150.0 3.9745e-06
22170.0 3.9975e-06
22190.0 4.0171e-06
22210.0 4.0317e-06
22230.0 4.0407e-06
22250.0 4.0445e-06
22270.0 4.0426e-06
22290.0 4.035e-06
22310.0 4.0218e-06
22330.0 4.0017e-06
22350.0 3.9758e-06
22370.0 3.945e-06
22390.0 3.9079e-06
22410.0 3.864e-06
22430.0 3.8174e-06
22450.0 3.7668e-06
22470.0 3.7103e-06
22490.0 3.6509e-06
22510.0 3.591e-06
22530.0 3.5262e-06
22550.0 3.4585e-06
22570.0 3.3927e-06
22590.0 3.3265e-06
22610.0 3.2581e-06
22630.0 3.1913e-06
