#lamb flux
1010.0 3.4822e-08
1030.0 3.9118e-08
1050.0 4.4059e-08
1070.0 4.9622e-08
1090.0 5.5941e-08
1110.0 6.2422e-08
1130.0 6.8944e-08
1150.0 7.5777e-08
1170.0 8.2825e-08
1190.0 8.9509e-08
1210.0 9.6282e-08
1230.0 1.0328e-07
1250.0 1.1014e-07
1270.0 1.168e-07
1290.0 1.2384e-07
1310.0 1.3087e-07
1330.0 1.3762e-07
1350.0 1.4444e-07
1370.0 1.5148e-07
1390.0 1.5834e-07
1410.0 1.65e-07
1430.0 1.7197e-07
1450.0 1.7893e-07
1470.0 1.8566e-07
1490.0 1.9245e-07
1510.0 1.9964e-07
1530.0 2.0644e-07
1550.0 2.1315e-07
1570.0 2.2008e-07
1590.0 2.2703e-07
1610.0 2.3365e-07
1630.0 2.4048e-07
1650.0 2.4749e-07
1670.0 2.5426e-07
1690.0 2.6093e-07
1710.0 2.6785e-07
1730.0 2.7481e-07
1750.0 2.8133e-07
1770.0 2.8803e-07
1790.0 2.9485e-07
1810.0 3.0143e-07
1830.0 3.0786e-07
1850.0 3.1468e-07
1870.0 3.2128e-07
1890.0 3.2762e-07
1910.0 3.3404e-07
1930.0 3.4059e-07
1950.0 3.4676e-07
1970.0 3.528e-07
1990.0 3.5901e-07
2010.0 3.6504e-07
2030.0 3.7074e-07
2050.0 3.7655e-07
2070.0 3.8242e-07
2090.0 3.8779e-07
2110.0 3.9302e-07
2130.0 3.983e-07
2150.0 4.0332e-07
2170.0 4.0789e-07
2190.0 4.1254e-07
2210.0 4.1704e-07
2230.0 4.2109e-07
2250.0 4.249e-07
2270.0 4.2878e-07
2290.0 4.3223e-07
2310.0 4.352e-07
2330.0 4.381e-07
2350.0 4.4082e-07
2370.0 4.4304e-07
2390.0 4.4511e-07
2410.0 4.4731e-07
2430.0 4.4927e-07
2450.0 4.5116e-07
2470.0 4.5354e-07
2490.0 4.5667e-07
2510.0 4.6047e-07
2530.0 4.666e-07
2550.0 4.7753e-07
2570.0 4.9552e-07
2590.0 5.2346e-07
2610.0 5.6943e-07
2630.0 6.3488e-07
2650.0 7.1558e-07
2670.0 8.1196e-07
2690.0 9.1943e-07
2710.0 1.0215e-06
2730.0 1.1105e-06
2750.0 1.1877e-06
2770.0 1.2446e-06
2790.0 1.2812e-06
2810.0 1.3042e-06
2830.0 1.3178e-06
2850.0 1.3223e-06
2870.0 1.3227e-06
2890.0 1.3217e-06
2910.0 1.3195e-06
2930.0 1.3159e-06
2950.0 1.3129e-06
2970.0 1.3103e-06
2990.0 1.3071e-06
3010.0 2.357e-05
3030.0 2.3495e-05
3050.0 2.3418e-05
3070.0 2.3317e-05
3090.0 2.3207e-05
3110.0 2.3062e-05
3130.0 2.285e-05
3150.0 2.2559e-05
3170.0 2.2166e-05
3190.0 2.168e-05
3210.0 2.1147e-05
3230.0 2.0616e-05
3250.0 2.021e-05
3270.0 1.9939e-05
3290.0 1.9952e-05
3310.0 2.0134e-05
3330.0 2.0618e-05
3350.0 2.131e-05
3370.0 2.2225e-05
3390.0 2.3334e-05
3410.0 2.4518e-05
3430.0 2.5833e-05
3450.0 2.7326e-05
3470.0 2.893e-05
3490.0 3.0599e-05
3510.0 3.2457e-05
3530.0 3.4421e-05
3550.0 3.6344e-05
3570.0 3.8314e-05
3590.0 4.0525e-05
3610.0 4.2711e-05
3630.0 4.5067e-05
3650.0 4.7472e-05
3670.0 4.9742e-05
3690.0 5.149e-05
3710.0 5.2581e-05
3730.0 5.2953e-05
3750.0 5.2568e-05
3770.0 4.7922e-05
3790.0 4.2992e-05
3810.0 4.0135e-05
3830.0 3.4633e-05
3850.0 2.4959e-05
3870.0 1.9157e-05
3890.0 3.2204e-05
3910.0 5.1245e-05
3930.0 6.2043e-05
3950.0 6.1997e-05
3970.0 6.197e-05
3990.0 7.2687e-05
4010.0 9.0219e-05
4030.0 9.2832e-05
4050.0 8.3569e-05
4070.0 7.2679e-05
4090.0 6.8116e-05
4110.0 8.1726e-05
4130.0 8.4639e-05
4150.0 8.0619e-05
4170.0 8.3237e-05
4190.0 8.5436e-05
4210.0 8.4201e-05
4230.0 9.1406e-05
4250.0 9.9564e-05
4270.0 0.0001006
4290.0 0.00010216
4310.0 0.00010619
4330.0 0.00011741
4350.0 0.00013392
4370.0 0.0001514
4390.0 0.00014584
4410.0 0.00012227
4430.0 0.00010304
4450.0 8.7667e-05
4470.0 8.5798e-05
4490.0 9.3141e-05
4510.0 0.00010193
4530.0 0.00011152
4550.0 0.0001299
4570.0 0.00015623
4590.0 0.00019125
4610.0 0.00024034
4630.0 0.00028795
4650.0 0.00029796
4670.0 0.0002922
4690.0 0.00031118
4710.0 0.00032521
4730.0 0.00027644
4750.0 0.00020103
4770.0 0.00016498
4790.0 0.00015743
4810.0 0.00014623
4830.0 0.00013866
4850.0 0.0001597
4870.0 0.00020386
4890.0 0.00023129
4910.0 0.00019893
4930.0 0.00017761
4950.0 0.00019983
4970.0 0.00026618
4990.0 0.0003406
5010.0 0.00035696
5030.0 0.0002956
5050.0 0.00019461
5070.0 0.00013465
5090.0 0.00011976
5110.0 0.00012514
5130.0 0.00013421
5150.0 0.00014128
5170.0 0.00014128
5190.0 0.00013886
5210.0 0.00013435
5230.0 0.0001365
5250.0 0.00014528
5270.0 0.00016962
5290.0 0.00019586
5310.0 0.00021278
5330.0 0.00021822
5350.0 0.00022156
5370.0 0.00024053
5390.0 0.00025546
5410.0 0.00024839
5430.0 0.0002174
5450.0 0.0002013
5470.0 0.00022686
5490.0 0.00029035
5510.0 0.00036793
5530.0 0.00040546
5550.0 0.00039575
5570.0 0.00036082
5590.0 0.00032461
5610.0 0.00029928
5630.0 0.00028359
5650.0 0.00029105
5670.0 0.000285
5690.0 0.00026751
5710.0 0.00025202
5730.0 0.00022602
5750.0 0.00016823
5770.0 0.00014747
5790.0 0.00016445
5810.0 0.00019823
5830.0 0.00022185
5850.0 0.0002391
5870.0 0.00024443
5890.0 0.00023534
5910.0 0.00022527
5930.0 0.00022664
5950.0 0.00023782
5970.0 0.00024886
5990.0 0.00023628
6010.0 0.00019987
6030.0 0.00016612
6050.0 0.00014491
6070.0 0.0001436
6090.0 0.00016111
6110.0 0.00017566
6130.0 0.00016919
6150.0 0.00015895
6170.0 0.00017596
6190.0 0.00021155
6210.0 0.00025385
6230.0 0.00028616
6250.0 0.00028495
6270.0 0.00025706
6290.0 0.00021279
6310.0 0.00016978
6330.0 0.0001363
6350.0 0.00012363
6370.0 0.0001348
6390.0 0.00015822
6410.0 0.00018132
6430.0 0.00020974
6450.0 0.00024378
6470.0 0.0003012
6490.0 0.00036935
6510.0 0.0004055
6530.0 0.00037698
6550.0 0.00034797
6570.0 0.00034233
6590.0 0.00032896
6610.0 0.00029738
6630.0 0.000267
6650.0 0.00024682
6670.0 0.00025629
6690.0 0.00025489
6710.0 0.00022598
6730.0 0.00020943
6750.0 0.00018623
6770.0 0.00017929
6790.0 0.00019338
6810.0 0.00020379
6830.0 0.00020877
6850.0 0.00020519
6870.0 0.0001967
6890.0 0.00019272
6910.0 0.00018322
6930.0 0.00017309
6950.0 0.00017409
6970.0 0.00017771
6990.0 0.00019784
7010.0 0.00021052
7030.0 0.00019172
7050.0 0.00017959
7070.0 0.00017274
7090.0 0.00015542
7110.0 0.00014479
7130.0 0.00014738
7150.0 0.00015306
7170.0 0.00016123
7190.0 0.00016148
7210.0 0.00016228
7230.0 0.00017093
7250.0 0.00019685
7270.0 0.00022995
7290.0 0.00024643
7310.0 0.00023877
7330.0 0.00021237
7350.0 0.0001909
7370.0 0.00018773
7390.0 0.00018951
7410.0 0.00019645
7430.0 0.00021509
7450.0 0.00023315
7470.0 0.00025837
7490.0 0.00028548
7510.0 0.00026248
7530.0 0.00025132
7550.0 0.00021111
7570.0 0.00017745
7590.0 0.00014627
7610.0 0.00013429
7630.0 0.00014054
7650.0 0.00016075
7670.0 0.00017516
7690.0 0.0001976
7710.0 0.00022031
7730.0 0.00023044
7750.0 0.00023104
7770.0 0.00023022
7790.0 0.0002269
7810.0 0.00023574
7830.0 0.00022793
7850.0 0.0002034
7870.0 0.00018373
7890.0 0.00017122
7910.0 0.00015446
7930.0 0.0001322
7950.0 0.00012104
7970.0 0.00012037
7990.0 0.000126
8010.0 0.0001338
8030.0 0.00013578
8050.0 0.00013525
8070.0 0.00013144
8090.0 0.00013086
8110.0 0.00012438
8130.0 0.00011594
8150.0 0.00010902
8170.0 0.00010638
8190.0 0.00010868
8210.0 0.00010898
8230.0 0.00011335
8250.0 0.00011268
8270.0 0.00010074
8290.0 7.7397e-05
8310.0 5.2713e-05
8330.0 3.4773e-05
8350.0 2.4687e-05
8370.0 2.9316e-05
8390.0 3.2447e-05
8410.0 4.1563e-05
8430.0 5.0372e-05
8450.0 5.52e-05
8470.0 5.7263e-05
8490.0 5.8818e-05
8510.0 6.1453e-05
8530.0 6.8733e-05
8550.0 7.5956e-05
8570.0 8.926e-05
8590.0 0.0001095
8610.0 0.00012824
8630.0 0.00014993
8650.0 0.00016867
8670.0 0.00016621
8690.0 0.00015578
8710.0 0.00014726
8730.0 0.0001392
8750.0 0.00013317
8770.0 0.00012926
8790.0 0.00012527
8810.0 0.00011673
8830.0 0.00010528
8850.0 9.1174e-05
8870.0 7.7912e-05
8890.0 7.0388e-05
8910.0 7.12e-05
8930.0 7.1121e-05
8950.0 7.724e-05
8970.0 7.9047e-05
8990.0 8.213e-05
9010.0 8.5183e-05
9030.0 8.5862e-05
9050.0 8.6182e-05
9070.0 8.6423e-05
9090.0 8.66e-05
9110.0 8.6689e-05
9130.0 8.683e-05
9150.0 8.7026e-05
9170.0 8.7222e-05
9190.0 8.7413e-05
9210.0 8.7714e-05
9230.0 8.7937e-05
9250.0 8.8194e-05
9270.0 8.8466e-05
9290.0 8.8754e-05
9310.0 8.9069e-05
9330.0 8.9402e-05
9350.0 8.9744e-05
9370.0 9.0108e-05
9390.0 9.0494e-05
9410.0 9.0892e-05
9430.0 9.1299e-05
9450.0 9.1734e-05
9470.0 9.2184e-05
9490.0 9.2643e-05
9510.0 9.3119e-05
9530.0 9.3618e-05
9550.0 9.412e-05
9570.0 9.4635e-05
9590.0 9.5173e-05
9610.0 9.5722e-05
9630.0 9.6276e-05
9650.0 9.6846e-05
9670.0 9.7438e-05
9690.0 9.8031e-05
9710.0 9.8634e-05
9730.0 9.9256e-05
9750.0 9.9886e-05
9770.0 0.00010051
9790.0 0.00010116
9810.0 0.00010182
9830.0 0.00010248
9850.0 0.00010314
9870.0 0.00010383
9890.0 0.00010451
9910.0 0.00010519
9930.0 0.00010589
9950.0 0.00010658
9970.0 0.00010728
9990.0 0.00010798
10010.0 0.00010622
10030.0 0.0001069
10050.0 0.00010757
10070.0 0.00010823
10090.0 0.00010893
10110.0 0.00010961
10130.0 0.0001103
10150.0 0.00011098
10170.0 0.00011166
10190.0 0.00011232
10210.0 0.00011299
10230.0 0.00011366
10250.0 0.00011431
10270.0 0.00011496
10290.0 0.00011561
10310.0 0.00011624
10330.0 0.00011685
10350.0 0.00011747
10370.0 0.00011808
10390.0 0.00011867
10410.0 0.00011925
10430.0 0.00011983
10450.0 0.00012038
10470.0 0.00012092
10490.0 0.00012145
10510.0 0.00012197
10530.0 0.00012246
10550.0 0.00012294
10570.0 0.00012341
10590.0 0.00012386
10610.0 0.00012428
10630.0 0.0001247
10650.0 0.0001251
10670.0 0.00012547
10690.0 0.00012582
10710.0 0.00012616
10730.0 0.00012647
10750.0 0.00012675
10770.0 0.00012703
10790.0 0.00012729
10810.0 0.0001275
10830.0 0.0001277
10850.0 0.00012788
10870.0 0.00012799
10890.0 0.00012803
10910.0 0.00012798
10930.0 0.00012775
10950.0 0.00012725
10970.0 0.00012644
10990.0 0.00012528
11010.0 0.00012105
11030.0 0.00011892
11050.0 0.00011644
11070.0 0.00011355
11090.0 0.00011011
11110.0 0.0001066
11130.0 0.00010297
11150.0 9.9106e-05
11170.0 9.5193e-05
11190.0 9.1484e-05
11210.0 8.7753e-05
11230.0 8.405e-05
11250.0 8.0646e-05
11270.0 7.7503e-05
11290.0 7.4481e-05
11310.0 7.174e-05
11330.0 6.9423e-05
11350.0 6.7306e-05
11370.0 6.5398e-05
11390.0 6.3768e-05
11410.0 6.2332e-05
11430.0 6.0951e-05
11450.0 5.9683e-05
11470.0 5.8487e-05
11490.0 5.7256e-05
11510.0 5.5939e-05
11530.0 5.4603e-05
11550.0 5.3192e-05
11570.0 5.1629e-05
11590.0 4.9988e-05
11610.0 4.8324e-05
11630.0 4.6545e-05
11650.0 4.4691e-05
11670.0 4.2921e-05
11690.0 4.1183e-05
11710.0 3.9453e-05
11730.0 3.7834e-05
11750.0 3.638e-05
11770.0 3.4995e-05
11790.0 3.3729e-05
11810.0 3.2634e-05
11830.0 3.1662e-05
11850.0 3.0766e-05
11870.0 2.9997e-05
11890.0 2.9327e-05
11910.0 2.8698e-05
11930.0 2.8102e-05
11950.0 2.7544e-05
11970.0 2.6983e-05
11990.0 2.6389e-05
12010.0 2.5787e-05
12030.0 2.5172e-05
12050.0 2.4515e-05
12070.0 2.3825e-05
12090.0 2.3163e-05
12110.0 2.2498e-05
12130.0 2.1839e-05
12150.0 2.1232e-05
12170.0 2.0697e-05
12190.0 2.0212e-05
12210.0 1.9828e-05
12230.0 1.956e-05
12250.0 1.9404e-05
12270.0 1.9373e-05
12290.0 1.9467e-05
12310.0 1.9671e-05
12330.0 2.0003e-05
12350.0 2.0443e-05
12370.0 2.0953e-05
12390.0 2.1543e-05
12410.0 2.2231e-05
12430.0 2.2911e-05
12450.0 2.3595e-05
12470.0 2.43e-05
12490.0 2.4976e-05
12510.0 2.5575e-05
12530.0 2.6137e-05
12550.0 2.6639e-05
12570.0 2.7035e-05
12590.0 2.7337e-05
12610.0 2.7557e-05
12630.0 2.7671e-05
12650.0 2.7677e-05
12670.0 2.7596e-05
12690.0 2.7426e-05
12710.0 2.7177e-05
12730.0 2.6861e-05
12750.0 2.647e-05
12770.0 2.603e-05
12790.0 2.5556e-05
12810.0 2.5038e-05
12830.0 2.4478e-05
12850.0 2.3915e-05
12870.0 2.3335e-05
12890.0 2.272e-05
12910.0 2.2098e-05
12930.0 2.148e-05
12950.0 2.0829e-05
12970.0 2.0156e-05
12990.0 1.9502e-05
13010.0 1.8841e-05
13030.0 1.8159e-05
13050.0 1.7488e-05
13070.0 1.6846e-05
13090.0 1.6195e-05
13110.0 1.5559e-05
13130.0 1.4971e-05
13150.0 1.4416e-05
13170.0 1.3882e-05
13190.0 1.3415e-05
13210.0 1.3016e-05
13230.0 1.2667e-05
13250.0 1.2385e-05
13270.0 1.218e-05
13290.0 1.2041e-05
13310.0 1.1974e-05
13330.0 1.1977e-05
13350.0 1.2043e-05
13370.0 1.2172e-05
13390.0 1.2362e-05
13410.0 1.2581e-05
13430.0 1.2839e-05
13450.0 1.3134e-05
13470.0 1.3436e-05
13490.0 1.3736e-05
13510.0 1.4056e-05
13530.0 1.436e-05
13550.0 1.4634e-05
13570.0 1.489e-05
13590.0 1.5125e-05
13610.0 1.532e-05
13630.0 1.5477e-05
13650.0 1.5609e-05
13670.0 1.5704e-05
13690.0 1.5762e-05
13710.0 1.5791e-05
13730.0 1.579e-05
13750.0 1.5759e-05
13770.0 1.5702e-05
13790.0 1.5621e-05
13810.0 1.5518e-05
13830.0 1.5398e-05
13850.0 1.5258e-05
13870.0 1.5099e-05
13890.0 1.4929e-05
13910.0 1.4746e-05
13930.0 1.4546e-05
13950.0 1.4335e-05
13970.0 1.4125e-05
13990.0 1.3904e-05
14010.0 1.3677e-05
14030.0 1.3456e-05
14050.0 1.3239e-05
14070.0 1.3018e-05
14090.0 1.2813e-05
14110.0 1.2626e-05
14130.0 1.2451e-05
14150.0 1.2294e-05
14170.0 1.2166e-05
14190.0 1.2061e-05
14210.0 1.1981e-05
14230.0 1.1931e-05
14250.0 1.1909e-05
14270.0 1.1917e-05
14290.0 1.1955e-05
14310.0 1.2017e-05
14330.0 1.2104e-05
14350.0 1.2217e-05
14370.0 1.2348e-05
14390.0 1.2489e-05
14410.0 1.265e-05
14430.0 1.2823e-05
14450.0 1.2996e-05
14470.0 1.3176e-05
14490.0 1.337e-05
14510.0 1.3561e-05
14530.0 1.3751e-05
14550.0 1.3956e-05
14570.0 1.4173e-05
14590.0 1.4394e-05
14610.0 1.4636e-05
14630.0 1.4912e-05
14650.0 1.5206e-05
14670.0 1.5523e-05
14690.0 1.5883e-05
14710.0 1.6284e-05
14730.0 1.6693e-05
14750.0 1.714e-05
14770.0 1.7627e-05
14790.0 1.8123e-05
14810.0 1.8621e-05
14830.0 1.9158e-05
14850.0 1.9684e-05
14870.0 2.0179e-05
14890.0 2.0661e-05
14910.0 2.112e-05
14930.0 2.152e-05
14950.0 2.1861e-05
14970.0 2.2155e-05
14990.0 2.238e-05
15010.0 2.2535e-05
15030.0 2.2635e-05
15050.0 2.2686e-05
15070.0 2.2696e-05
15090.0 2.2681e-05
15110.0 2.2647e-05
15130.0 2.2603e-05
15150.0 2.2556e-05
15170.0 2.2505e-05
15190.0 2.2451e-05
15210.0 2.24e-05
15230.0 2.2349e-05
15250.0 2.2296e-05
15270.0 2.2243e-05
15290.0 2.2194e-05
15310.0 2.2143e-05
15330.0 2.2091e-05
15350.0 2.2042e-05
15370.0 2.1993e-05
15390.0 2.1941e-05
15410.0 2.1891e-05
15430.0 2.1843e-05
15450.0 2.1793e-05
15470.0 2.1742e-05
15490.0 2.1694e-05
15510.0 2.1646e-05
15530.0 2.1596e-05
15550.0 2.1547e-05
15570.0 2.1499e-05
15590.0 2.1449e-05
15610.0 2.1398e-05
15630.0 2.1351e-05
15650.0 2.1303e-05
15670.0 2.1252e-05
15690.0 2.1203e-05
15710.0 2.1156e-05
15730.0 2.1106e-05
15750.0 2.1056e-05
15770.0 2.1007e-05
15790.0 2.0959e-05
15810.0 2.0907e-05
15830.0 2.0857e-05
15850.0 2.0809e-05
15870.0 2.0758e-05
15890.0 2.0707e-05
15910.0 2.0658e-05
15930.0 2.0608e-05
15950.0 2.0555e-05
15970.0 2.0504e-05
15990.0 2.0454e-05
16010.0 2.0401e-05
16030.0 2.0348e-05
16050.0 2.0298e-05
16070.0 2.0246e-05
16090.0 2.0192e-05
16110.0 2.0139e-05
16130.0 2.0088e-05
16150.0 2.0032e-05
16170.0 1.9978e-05
16190.0 1.9925e-05
16210.0 1.987e-05
16230.0 1.9814e-05
16250.0 1.976e-05
16270.0 1.9706e-05
16290.0 1.9649e-05
16310.0 1.9592e-05
16330.0 1.9537e-05
16350.0 1.948e-05
16370.0 1.942e-05
16390.0 1.9364e-05
16410.0 1.9307e-05
16430.0 1.9247e-05
16450.0 1.9188e-05
16470.0 1.9131e-05
16490.0 1.9071e-05
16510.0 1.901e-05
16530.0 1.895e-05
16550.0 1.8891e-05
16570.0 1.8828e-05
16590.0 1.8765e-05
16610.0 1.8706e-05
16630.0 1.8643e-05
16650.0 1.858e-05
16670.0 1.8518e-05
16690.0 1.8456e-05
16710.0 1.8389e-05
16730.0 1.8325e-05
16750.0 1.8262e-05
16770.0 1.8196e-05
16790.0 1.8129e-05
16810.0 1.8065e-05
16830.0 1.8e-05
16850.0 1.7932e-05
16870.0 1.7865e-05
16890.0 1.78e-05
16910.0 1.7731e-05
16930.0 1.7661e-05
16950.0 1.7594e-05
16970.0 1.7526e-05
16990.0 1.7456e-05
17010.0 1.7387e-05
17030.0 1.7319e-05
17050.0 1.7248e-05
17070.0 1.7176e-05
17090.0 1.7107e-05
17110.0 1.7036e-05
17130.0 1.6962e-05
17150.0 1.689e-05
17170.0 1.682e-05
17190.0 1.6747e-05
17210.0 1.6673e-05
17230.0 1.6602e-05
17250.0 1.6529e-05
17270.0 1.6453e-05
17290.0 1.638e-05
17310.0 1.6307e-05
17330.0 1.6231e-05
17350.0 1.6155e-05
17370.0 1.6082e-05
17390.0 1.6007e-05
17410.0 1.593e-05
17430.0 1.5855e-05
17450.0 1.5781e-05
17470.0 1.5702e-05
17490.0 1.5625e-05
17510.0 1.555e-05
17530.0 1.5473e-05
17550.0 1.5394e-05
17570.0 1.5318e-05
17590.0 1.5242e-05
17610.0 1.5163e-05
17630.0 1.5084e-05
17650.0 1.5008e-05
17670.0 1.4929e-05
17690.0 1.4848e-05
17710.0 1.4771e-05
17730.0 1.4694e-05
17750.0 1.4614e-05
17770.0 1.4534e-05
17790.0 1.4458e-05
17810.0 1.4378e-05
17830.0 1.4297e-05
17850.0 1.4218e-05
17870.0 1.414e-05
17890.0 1.4058e-05
17910.0 1.3978e-05
17930.0 1.39e-05
17950.0 1.382e-05
17970.0 1.3739e-05
17990.0 1.3661e-05
18010.0 1.3582e-05
18030.0 1.3499e-05
18050.0 1.3419e-05
18070.0 1.3341e-05
18090.0 1.326e-05
18110.0 1.3178e-05
18130.0 1.31e-05
18150.0 1.3021e-05
18170.0 1.2939e-05
18190.0 1.2859e-05
18210.0 1.2781e-05
18230.0 1.27e-05
18250.0 1.2618e-05
18270.0 1.2539e-05
18290.0 1.246e-05
18310.0 1.2379e-05
18330.0 1.2299e-05
18350.0 1.2221e-05
18370.0 1.214e-05
18390.0 1.206e-05
18410.0 1.1982e-05
18430.0 1.1902e-05
18450.0 1.1821e-05
18470.0 1.1742e-05
18490.0 1.1664e-05
18510.0 1.1584e-05
18530.0 1.1505e-05
18550.0 1.1428e-05
18570.0 1.1349e-05
18590.0 1.1268e-05
18610.0 1.119e-05
18630.0 1.1113e-05
18650.0 1.1034e-05
18670.0 1.0954e-05
18690.0 1.0878e-05
18710.0 1.0801e-05
18730.0 1.0722e-05
18750.0 1.0645e-05
18770.0 1.0569e-05
18790.0 1.049e-05
18810.0 1.0412e-05
18830.0 1.0337e-05
18850.0 1.026e-05
18870.0 1.0182e-05
18890.0 1.0107e-05
18910.0 1.0032e-05
18930.0 9.955e-06
18950.0 9.879e-06
18970.0 9.8048e-06
18990.0 9.7292e-06
19010.0 9.6516e-06
19030.0 9.5781e-06
19050.0 9.5042e-06
19070.0 9.4287e-06
19090.0 9.3544e-06
19110.0 9.2822e-06
19130.0 9.2074e-06
19150.0 9.1325e-06
19170.0 9.06e-06
19190.0 8.9874e-06
19210.0 8.9128e-06
19230.0 8.8397e-06
19250.0 8.7689e-06
19270.0 8.6962e-06
19290.0 8.6234e-06
19310.0 8.5528e-06
19330.0 8.4819e-06
19350.0 8.4083e-06
19370.0 8.3373e-06
19390.0 8.2676e-06
19410.0 8.1963e-06
19430.0 8.1248e-06
19450.0 8.0561e-06
19470.0 7.9867e-06
19490.0 7.9159e-06
19510.0 7.8467e-06
19530.0 7.7788e-06
19550.0 7.7086e-06
19570.0 7.6385e-06
19590.0 7.5714e-06
19610.0 7.5035e-06
19630.0 7.4344e-06
19650.0 7.3672e-06
19670.0 7.3012e-06
19690.0 7.2328e-06
19710.0 7.1651e-06
19730.0 7.0995e-06
19750.0 7.0331e-06
19770.0 6.9649e-06
19790.0 6.8995e-06
19810.0 6.8349e-06
19830.0 6.7685e-06
19850.0 6.7023e-06
19870.0 6.6379e-06
19890.0 6.5706e-06
19910.0 6.4997e-06
19930.0 6.4277e-06
19950.0 6.3508e-06
19970.0 6.2638e-06
19990.0 6.1673e-06
20010.0 6.1573e-06
20030.0 6.0397e-06
20050.0 5.9102e-06
20070.0 5.7768e-06
20090.0 5.6397e-06
20110.0 5.4921e-06
20130.0 5.349e-06
20150.0 5.2124e-06
20170.0 5.0763e-06
20190.0 4.9434e-06
20210.0 4.8217e-06
20230.0 4.7067e-06
20250.0 4.5949e-06
20270.0 4.494e-06
20290.0 4.4042e-06
20310.0 4.3213e-06
20330.0 4.2464e-06
20350.0 4.186e-06
20370.0 4.1347e-06
20390.0 4.0926e-06
20410.0 4.0616e-06
20430.0 4.0409e-06
20450.0 4.0293e-06
20470.0 4.0277e-06
20490.0 4.0346e-06
20510.0 4.0497e-06
20530.0 4.0735e-06
20550.0 4.1036e-06
20570.0 4.1381e-06
20590.0 4.1794e-06
20610.0 4.2254e-06
20630.0 4.2729e-06
20650.0 4.3238e-06
20670.0 4.3797e-06
20690.0 4.4344e-06
20710.0 4.4889e-06
20730.0 4.5458e-06
20750.0 4.6032e-06
20770.0 4.6575e-06
20790.0 4.7131e-06
20810.0 4.7704e-06
20830.0 4.8261e-06
20850.0 4.881e-06
20870.0 4.9394e-06
20890.0 4.9986e-06
20910.0 5.0556e-06
20930.0 5.1151e-06
20950.0 5.1774e-06
20970.0 5.2386e-06
20990.0 5.2995e-06
21010.0 5.3644e-06
21030.0 5.4284e-06
21050.0 5.4897e-06
21070.0 5.5511e-06
21090.0 5.6129e-06
21110.0 5.6689e-06
21130.0 5.7212e-06
21150.0 5.7719e-06
21170.0 5.8175e-06
21190.0 5.8565e-06
21210.0 5.8918e-06
21230.0 5.9219e-06
21250.0 5.9442e-06
21270.0 5.9601e-06
21290.0 5.9696e-06
21310.0 5.9716e-06
21330.0 5.9661e-06
21350.0 5.9532e-06
21370.0 5.932e-06
21390.0 5.9034e-06
21410.0 5.8673e-06
21430.0 5.8207e-06
21450.0 5.7672e-06
21470.0 5.7078e-06
21490.0 5.6396e-06
21510.0 5.5636e-06
21530.0 5.4848e-06
21550.0 5.4009e-06
21570.0 5.3096e-06
21590.0 5.2178e-06
21610.0 5.127e-06
21630.0 5.0336e-06
21650.0 4.9395e-06
21670.0 4.8547e-06
21690.0 4.7732e-06
21710.0 4.6957e-06
21730.0 4.6274e-06
21750.0 4.5692e-06
21770.0 4.5174e-06
21790.0 4.4769e-06
21810.0 4.4484e-06
21830.0 4.4307e-06
21850.0 4.4244e-06
21870.0 4.4298e-06
21890.0 4.4455e-06
21910.0 4.4727e-06
21930.0 4.5104e-06
21950.0 4.5561e-06
21970.0 4.6112e-06
21990.0 4.6778e-06
22010.0 4.7487e-06
22030.0 4.8246e-06
22050.0 4.9086e-06
22070.0 4.9972e-06
22090.0 5.0849e-06
22110.0 5.177e-06
22130.0 5.2727e-06
22150.0 5.3654e-06
22170.0 5.4556e-06
22190.0 5.5477e-06
22210.0 5.6355e-06
22230.0 5.7142e-06
22250.0 5.7892e-06
22270.0 5.8586e-06
22290.0 5.9178e-06
22310.0 5.9677e-06
22330.0 6.0102e-06
22350.0 6.041e-06
22370.0 6.06e-06
22390.0 6.0679e-06
22410.0 6.0633e-06
22430.0 6.0467e-06
22450.0 6.0185e-06
22470.0 5.9769e-06
22490.0 5.9236e-06
22510.0 5.861e-06
22530.0 5.7845e-06
22550.0 5.6951e-06
22570.0 5.5993e-06
22590.0 5.4943e-06
22610.0 5.3767e-06
22630.0 5.2522e-06
