#lamb flux
1010.0 5.2599e-05
1030.0 7.0592e-05
1050.0 9.4592e-05
1070.0 0.00012589
1090.0 0.00016659
1110.0 0.00021589
1130.0 0.00027392
1150.0 0.00034265
1170.0 0.00042201
1190.0 0.00050786
1210.0 0.00060166
1230.0 0.00070314
1250.0 0.00080731
1270.0 0.00091059
1290.0 0.0010149
1310.0 0.0011137
1330.0 0.0012006
1350.0 0.0012759
1370.0 0.0013382
1390.0 0.0013815
1410.0 0.0014042
1430.0 0.0014106
1450.0 0.0013981
1470.0 0.0013659
1490.0 0.0013187
1510.0 0.0012604
1530.0 0.0011884
1550.0 0.0011078
1570.0 0.0010236
1590.0 0.00093623
1610.0 0.0008469
1630.0 0.00075976
1650.0 0.00067585
1670.0 0.00059515
1690.0 0.00051921
1710.0 0.00044924
1730.0 0.00038497
1750.0 0.00032604
1770.0 0.00027335
1790.0 0.00022655
1810.0 0.00018517
1830.0 0.00014913
1850.0 0.0001171
1870.0 8.8753e-05
1890.0 6.531e-05
1910.0 4.6603e-05
1930.0 3.2357e-05
1950.0 2.8172e-05
1970.0 2.8131e-05
1990.0 2.8384e-05
2010.0 2.8895e-05
2030.0 2.9647e-05
2050.0 3.0656e-05
2070.0 4.1006e-05
2090.0 5.5799e-05
2110.0 7.3519e-05
2130.0 9.4059e-05
2150.0 0.0001172
2170.0 0.00014267
2190.0 0.00017045
2210.0 0.00019937
2230.0 0.0002288
2250.0 0.00025968
2270.0 0.00029203
2290.0 0.00032534
2310.0 0.00035927
2330.0 0.00039395
2350.0 0.00042905
2370.0 0.00046402
2390.0 0.00049886
2410.0 0.00053359
2430.0 0.00056735
2450.0 0.0005999
2470.0 0.00063135
2490.0 0.00066146
2510.0 0.00068985
2530.0 0.00071778
2550.0 0.0007472
2570.0 0.00078038
2590.0 0.00082058
2610.0 0.00087622
2630.0 0.00095294
2650.0 0.0010527
2670.0 0.0011839
2690.0 0.0013544
2710.0 0.0015528
2730.0 0.0017705
2750.0 0.0020142
2770.0 0.0022578
2790.0 0.0024767
2810.0 0.0026702
2830.0 0.0028367
2850.0 0.0029481
2870.0 0.0030205
2890.0 0.0030668
2910.0 0.003087
2930.0 0.0030824
2950.0 0.0030684
2970.0 0.0030461
2990.0 0.003011
3010.0 0.0029685
3030.0 0.0029256
3050.0 0.0028795
3070.0 0.0028253
3090.0 0.0027735
3110.0 0.0027246
3130.0 0.0026776
3150.0 0.0025133
3170.0 0.0023896
3190.0 0.0022671
3210.0 0.0021696
3230.0 0.0021565
3250.0 0.0024461
3270.0 0.0031322
3290.0 0.0035443
3310.0 0.0030293
3330.0 0.0030021
3350.0 0.003082
3370.0 0.0031826
3390.0 0.0032752
3410.0 0.0033117
3430.0 0.0033039
3450.0 0.0032838
3470.0 0.0032863
3490.0 0.0032074
3510.0 0.0027818
3530.0 0.0019178
3550.0 0.0016028
3570.0 0.0028874
3590.0 0.0045349
3610.0 0.0054783
3630.0 0.0076145
3650.0 0.0079159
3670.0 0.0065199
3690.0 0.0048827
3710.0 0.0039871
3730.0 0.0041218
3750.0 0.0043115
3770.0 0.0044713
3790.0 0.0046278
3810.0 0.0053082
3830.0 0.0048647
3850.0 0.0039653
3870.0 0.0034762
3890.0 0.0041163
3910.0 0.0045791
3930.0 0.0046181
3950.0 0.0050153
3970.0 0.005465
3990.0 0.0053537
4010.0 0.0056549
4030.0 0.0054174
4050.0 0.0051495
4070.0 0.0049384
4090.0 0.004999
4110.0 0.0051788
4130.0 0.0050687
4150.0 0.0047872
4170.0 0.0046359
4190.0 0.0046707
4210.0 0.0042125
4230.0 0.0038031
4250.0 0.0032774
4270.0 0.002734
4290.0 0.0026817
4310.0 0.0025991
4330.0 0.0026131
4350.0 0.0031772
4370.0 0.003239
4390.0 0.0037131
4410.0 0.0040286
4430.0 0.0042598
4450.0 0.0037659
4470.0 0.003174
4490.0 0.003011
4510.0 0.0028117
4530.0 0.0026848
4550.0 0.0025406
4570.0 0.002505
4590.0 0.002552
4610.0 0.0023369
4630.0 0.0022023
4650.0 0.002011
4670.0 0.0019634
4690.0 0.0016927
4710.0 0.0015009
4730.0 0.0012519
4750.0 0.0011162
4770.0 0.00069603
4790.0 0.00071676
4810.0 0.00066937
4830.0 0.00014319
4850.0 0.00038844
4870.0 0.00012382
4890.0 0.00015131
4910.0 0.00057219
4930.0 0.00063836
4950.0 0.00012213
4970.0 0.00018183
4990.0 0.00022799
5010.0 9.0224e-05
5030.0 8.243e-05
5050.0 0.0002184
5070.0 0.00018944
5090.0 0.00020831
5110.0 0.00026468
5130.0 0.00022529
5150.0 0.00033008
5170.0 0.00010393
5190.0 9.618e-05
5210.0 0.00018137
5230.0 0.00010005
5250.0 0.00027353
5270.0 0.00067536
5290.0 0.00064891
5310.0 0.00040321
5330.0 0.00044315
5350.0 0.00020991
5370.0 0.00025892
5390.0 0.00038319
5410.0 0.00032745
5430.0 0.0005409
5450.0 0.00029769
5470.0 0.00029487
5490.0 0.00084246
5510.0 0.00084811
5530.0 0.0008742
5550.0 0.00081981
5570.0 0.00096611
5590.0 0.0011469
5610.0 0.0011633
5630.0 0.0011025
5650.0 0.0011275
5670.0 0.0011197
5690.0 0.0011789
5710.0 0.0010535
5730.0 0.0011473
5750.0 0.0011421
5770.0 0.0010725
5790.0 0.0012192
5810.0 0.001283
5830.0 0.0012479
5850.0 0.0010846
5870.0 0.00099062
5890.0 0.0010012
5910.0 0.0011776
5930.0 0.001141
5950.0 0.0012158
5970.0 0.0012393
5990.0 0.0013302
6010.0 0.0012849
6030.0 0.0013165
6050.0 0.0013057
6070.0 0.0011939
6090.0 0.001286
6110.0 0.0013267
6130.0 0.0012523
6150.0 0.0012557
6170.0 0.0012782
6190.0 0.001044
6210.0 0.0010638
6230.0 0.0011374
6250.0 0.0011297
6270.0 0.0011249
6290.0 0.00122
6310.0 0.0013399
6330.0 0.0013554
6350.0 0.0013162
6370.0 0.0013524
6390.0 0.0012258
6410.0 0.0012599
6430.0 0.0011892
6450.0 0.0012144
6470.0 0.0012419
6490.0 0.0012605
6510.0 0.0011432
6530.0 0.001156
6550.0 0.0011387
6570.0 0.001067
6590.0 0.0011365
6610.0 0.0011418
6630.0 0.0011307
6650.0 0.0010516
6670.0 0.0010079
6690.0 0.00097444
6710.0 0.00092705
6730.0 0.00089476
6750.0 0.00089844
6770.0 0.00085492
6790.0 0.00058711
6810.0 0.00068196
6830.0 0.00080274
6850.0 0.00070828
6870.0 0.00069444
6890.0 0.00067818
6910.0 0.00066724
6930.0 0.00063476
6950.0 0.00067266
6970.0 0.00064424
6990.0 0.00063091
7010.0 0.00062219
7030.0 0.00065879
7050.0 0.00064471
7070.0 0.0005134
7090.0 0.00040114
7110.0 0.0003616
7130.0 0.00040258
7150.0 0.00041822
7170.0 0.00040818
7190.0 0.00033039
7210.0 0.00043651
7230.0 0.000525
7250.0 0.00051014
7270.0 0.00051785
7290.0 0.0005576
7310.0 0.00047584
7330.0 0.00044449
7350.0 0.00041034
7370.0 0.00047083
7390.0 0.00055313
7410.0 0.00040932
7430.0 0.00042638
7450.0 0.00041251
7470.0 0.00049286
7490.0 0.00050505
7510.0 0.00042704
7530.0 0.00047377
7550.0 0.0002346
7570.0 0.00017738
7590.0 0.00030879
7610.0 0.00041959
7630.0 0.00035087
7650.0 0.00041799
7670.0 0.00025228
7690.0 0.00010774
7710.0 0.00017866
7730.0 0.00031174
7750.0 0.00018057
7770.0 0.00034738
7790.0 0.00040574
7810.0 0.00031213
7830.0 0.00040017
7850.0 0.00026369
7870.0 0.00037508
7890.0 0.00029869
7910.0 0.00029773
7930.0 0.00019821
7950.0 9.1122e-05
7970.0 0.00017284
7990.0 0.00026249
8010.0 0.0009275
8030.0 0.00089818
8050.0 0.0008834
8070.0 0.00085911
8090.0 0.00079483
8110.0 0.00077298
8130.0 0.00085399
8150.0 0.00091131
8170.0 0.00094422
8190.0 0.00099316
8210.0 0.00094685
8230.0 0.000948
8250.0 0.00093928
8270.0 0.00094967
8290.0 0.00094224
8310.0 0.00089257
8330.0 0.00085665
8350.0 0.00088706
8370.0 0.00090447
8390.0 0.00087876
8410.0 0.00086895
8430.0 0.00083654
8450.0 0.00080884
8470.0 0.00087561
8490.0 0.00087957
8510.0 0.00081941
8530.0 0.00082441
8550.0 0.00081469
8570.0 0.000749
8590.0 0.00076221
8610.0 0.00076213
8630.0 0.00079932
8650.0 0.00080375
8670.0 0.0008124
8690.0 0.00079392
8710.0 0.00077943
8730.0 0.0007449
8750.0 0.00072646
8770.0 0.00072033
8790.0 0.00076307
8810.0 0.00070985
8830.0 0.00069577
8850.0 0.00073991
8870.0 0.00070002
8890.0 0.0006412
8910.0 0.00063389
8930.0 0.00065152
8950.0 0.00059458
8970.0 0.00056871
8990.0 0.00055511
9010.0 0.00051986
9030.0 0.00051167
9050.0 0.00050936
9070.0 0.00050735
9090.0 0.00050531
9110.0 0.00050326
9130.0 0.00050118
9150.0 0.00049908
9170.0 0.00049696
9190.0 0.00049483
9210.0 0.00049268
9230.0 0.00049051
9250.0 0.00048832
9270.0 0.00048612
9290.0 0.00048391
9310.0 0.00048204
9330.0 0.0004807
9350.0 0.00047935
9370.0 0.00047797
9390.0 0.00047656
9410.0 0.00047515
9430.0 0.00047372
9450.0 0.00047225
9470.0 0.00047102
9490.0 0.00046964
9510.0 0.000468
9530.0 0.00046636
9550.0 0.00046477
9570.0 0.0004632
9590.0 0.0004616
9610.0 0.00046057
9630.0 0.0004596
9650.0 0.00045859
9670.0 0.00045752
9690.0 0.00045648
9710.0 0.00045542
9730.0 0.0004543
9750.0 0.00045316
9770.0 0.00045208
9790.0 0.00045092
9810.0 0.00044972
9830.0 0.00044855
9850.0 0.0004471
9870.0 0.00044538
9890.0 0.00044446
9910.0 0.00044341
9930.0 0.00044206
9950.0 0.00044082
9970.0 0.00043966
9990.0 0.00043843
10010.0 0.00043716
10030.0 0.00043586
10050.0 0.00043455
10070.0 0.00043321
10090.0 0.00043187
10110.0 0.00043051
10130.0 0.00042915
10150.0 0.00042778
10170.0 0.00042641
10190.0 0.00042503
10210.0 0.00042365
10230.0 0.00042226
10250.0 0.00042087
10270.0 0.00041947
10290.0 0.00041808
10310.0 0.00041667
10330.0 0.00041528
10350.0 0.00041387
10370.0 0.00041247
10390.0 0.00041104
10410.0 0.00040933
10430.0 0.00040751
10450.0 0.00040645
10470.0 0.00040521
10490.0 0.00040392
10510.0 0.00040261
10530.0 0.00040122
10550.0 0.00039984
10570.0 0.00039848
10590.0 0.0003971
10610.0 0.00039571
10630.0 0.00039435
10650.0 0.00039299
10670.0 0.00039161
10690.0 0.00039024
10710.0 0.0003889
10730.0 0.00038755
10750.0 0.00038618
10770.0 0.00038486
10790.0 0.00038354
10810.0 0.0003822
10830.0 0.00038089
10850.0 0.0003796
10870.0 0.00037827
10890.0 0.00037692
10910.0 0.00037559
10930.0 0.00037421
10950.0 0.00037273
10970.0 0.00037117
10990.0 0.00036954
11010.0 0.00034919
11030.0 0.0003472
11050.0 0.0003448
11070.0 0.00034202
11090.0 0.00033885
11110.0 0.00033552
11130.0 0.00033207
11150.0 0.00032846
11170.0 0.00032476
11190.0 0.0003211
11210.0 0.00031736
11230.0 0.00031355
11250.0 0.0003098
11270.0 0.00030609
11290.0 0.00030234
11310.0 0.00029864
11330.0 0.00029513
11350.0 0.00029166
11370.0 0.00028825
11390.0 0.00028499
11410.0 0.00028187
11430.0 0.00027876
11450.0 0.00027577
11470.0 0.00027291
11490.0 0.00027009
11510.0 0.00026729
11530.0 0.00026457
11550.0 0.00026189
11570.0 0.00025918
11590.0 0.00025649
11610.0 0.00025383
11630.0 0.00025111
11650.0 0.00024834
11670.0 0.0002456
11690.0 0.00024284
11710.0 0.00024001
11730.0 0.00023717
11750.0 0.00023436
11770.0 0.00023147
11790.0 0.00022855
11810.0 0.00022568
11830.0 0.00022281
11850.0 0.00021987
11870.0 0.00021701
11890.0 0.00021424
11910.0 0.00021148
11930.0 0.00020877
11950.0 0.0002062
11970.0 0.00020371
11990.0 0.00020127
12010.0 0.00019899
12030.0 0.00019684
12050.0 0.00019479
12070.0 0.00019286
12090.0 0.0001911
12110.0 0.00018945
12130.0 0.00018792
12150.0 0.00018652
12170.0 0.00018523
12190.0 0.00018402
12210.0 0.00018291
12230.0 0.00018186
12250.0 0.00018086
12270.0 0.00017989
12290.0 0.00017893
12310.0 0.00017797
12330.0 0.00017699
12350.0 0.00017598
12370.0 0.00017491
12390.0 0.00017379
12410.0 0.00017259
12430.0 0.00017133
12450.0 0.00016999
12470.0 0.00016856
12490.0 0.00016704
12510.0 0.00016548
12530.0 0.00016381
12550.0 0.00016204
12570.0 0.00016023
12590.0 0.00015836
12610.0 0.00015638
12630.0 0.00015435
12650.0 0.00015234
12670.0 0.00015026
12690.0 0.00014813
12710.0 0.00014602
12730.0 0.00014393
12750.0 0.00014175
12770.0 0.00013962
12790.0 0.00013756
12810.0 0.00013549
12830.0 0.00013343
12850.0 0.00013148
12870.0 0.0001296
12890.0 0.00012773
12910.0 0.00012596
12930.0 0.00012431
12950.0 0.00012271
12970.0 0.0001212
12990.0 0.00011985
13010.0 0.00011862
13030.0 0.00011749
13050.0 0.0001165
13070.0 0.00011566
13090.0 0.00011493
13110.0 0.00011432
13130.0 0.00011383
13150.0 0.00011344
13170.0 0.00011314
13190.0 0.00011292
13210.0 0.00011276
13230.0 0.00011265
13250.0 0.00011258
13270.0 0.00011253
13290.0 0.0001125
13310.0 0.00011248
13330.0 0.00011245
13350.0 0.0001124
13370.0 0.00011233
13390.0 0.00011223
13410.0 0.00011209
13430.0 0.0001119
13450.0 0.00011164
13470.0 0.00011134
13490.0 0.00011098
13510.0 0.00011055
13530.0 0.00011006
13550.0 0.00010954
13570.0 0.00010897
13590.0 0.00010835
13610.0 0.00010771
13630.0 0.00010707
13650.0 0.00010638
13670.0 0.00010567
13690.0 0.00010496
13710.0 0.00010422
13730.0 0.00010342
13750.0 0.00010264
13770.0 0.00010184
13790.0 0.00010099
13810.0 0.00010011
13830.0 9.9263e-05
13850.0 9.8358e-05
13870.0 9.7416e-05
13890.0 9.6502e-05
13910.0 9.5596e-05
13930.0 9.4649e-05
13950.0 9.372e-05
13970.0 9.2868e-05
13990.0 9.201e-05
14010.0 9.1167e-05
14030.0 9.0397e-05
14050.0 8.9676e-05
14070.0 8.8948e-05
14090.0 8.8296e-05
14110.0 8.7715e-05
14130.0 8.716e-05
14150.0 8.6633e-05
14170.0 8.6185e-05
14190.0 8.5773e-05
14210.0 8.5371e-05
14230.0 8.5012e-05
14250.0 8.4698e-05
14270.0 8.4383e-05
14290.0 8.408e-05
14310.0 8.3828e-05
14330.0 8.3592e-05
14350.0 8.3359e-05
14370.0 8.3157e-05
14390.0 8.2994e-05
14410.0 8.2832e-05
14430.0 8.269e-05
14450.0 8.2586e-05
14470.0 8.2499e-05
14490.0 8.2412e-05
14510.0 8.2357e-05
14530.0 8.2326e-05
14550.0 8.2291e-05
14570.0 8.2262e-05
14590.0 8.2251e-05
14610.0 8.2236e-05
14630.0 8.2206e-05
14650.0 8.2184e-05
14670.0 8.2166e-05
14690.0 8.2129e-05
14710.0 8.208e-05
14730.0 8.2046e-05
14750.0 8.1995e-05
14770.0 8.1922e-05
14790.0 8.1847e-05
14810.0 8.1769e-05
14830.0 8.1648e-05
14850.0 8.1518e-05
14870.0 8.139e-05
14890.0 8.1243e-05
14910.0 8.1075e-05
14930.0 8.0926e-05
14950.0 8.0798e-05
14970.0 8.0672e-05
14990.0 8.0583e-05
15010.0 8.0544e-05
15030.0 8.0537e-05
15050.0 8.0553e-05
15070.0 8.0618e-05
15090.0 8.0703e-05
15110.0 8.0793e-05
15130.0 8.0892e-05
15150.0 8.1001e-05
15170.0 8.1102e-05
15190.0 8.1197e-05
15210.0 8.1295e-05
15230.0 8.139e-05
15250.0 8.1472e-05
15270.0 8.1552e-05
15290.0 8.1637e-05
15310.0 8.171e-05
15330.0 8.1776e-05
15350.0 8.1844e-05
15370.0 8.1907e-05
15390.0 8.1954e-05
15410.0 8.2002e-05
15430.0 8.205e-05
15450.0 8.2087e-05
15470.0 8.2114e-05
15490.0 8.2145e-05
15510.0 8.2171e-05
15530.0 8.2183e-05
15550.0 8.2193e-05
15570.0 8.2203e-05
15590.0 8.2198e-05
15610.0 8.2184e-05
15630.0 8.2175e-05
15650.0 8.2158e-05
15670.0 8.2128e-05
15690.0 8.2097e-05
15710.0 8.2067e-05
15730.0 8.202e-05
15750.0 8.1967e-05
15770.0 8.1915e-05
15790.0 8.1856e-05
15810.0 8.178e-05
15830.0 8.1706e-05
15850.0 8.1632e-05
15870.0 8.1543e-05
15890.0 8.1448e-05
15910.0 8.1356e-05
15930.0 8.1253e-05
15950.0 8.1135e-05
15970.0 8.102e-05
15990.0 8.0902e-05
16010.0 8.077e-05
16030.0 8.063e-05
16050.0 8.0497e-05
16070.0 8.0352e-05
16090.0 8.0196e-05
16110.0 8.0041e-05
16130.0 7.9884e-05
16150.0 7.9708e-05
16170.0 7.953e-05
16190.0 7.9356e-05
16210.0 7.9171e-05
16230.0 7.8975e-05
16250.0 7.8782e-05
16270.0 7.8586e-05
16290.0 7.8376e-05
16310.0 7.8163e-05
16330.0 7.7952e-05
16350.0 7.7731e-05
16370.0 7.7495e-05
16390.0 7.7268e-05
16410.0 7.7036e-05
16430.0 7.6793e-05
16450.0 7.6547e-05
16470.0 7.6305e-05
16490.0 7.605e-05
16510.0 7.5787e-05
16530.0 7.5528e-05
16550.0 7.5265e-05
16570.0 7.4989e-05
16590.0 7.4712e-05
16610.0 7.4442e-05
16630.0 7.4159e-05
16650.0 7.3871e-05
16670.0 7.3586e-05
16690.0 7.3299e-05
16710.0 7.2995e-05
16730.0 7.2696e-05
16750.0 7.2399e-05
16770.0 7.2092e-05
16790.0 7.1778e-05
16810.0 7.1473e-05
16830.0 7.1162e-05
16850.0 7.0842e-05
16870.0 7.0523e-05
16890.0 7.0207e-05
16910.0 6.9879e-05
16930.0 6.9546e-05
16950.0 6.9223e-05
16970.0 6.8894e-05
16990.0 6.8557e-05
17010.0 6.8222e-05
17030.0 6.7892e-05
17050.0 6.755e-05
17070.0 6.7206e-05
17090.0 6.6869e-05
17110.0 6.6527e-05
17130.0 6.6173e-05
17150.0 6.5828e-05
17170.0 6.5485e-05
17190.0 6.5134e-05
17210.0 6.4781e-05
17230.0 6.4436e-05
17250.0 6.4084e-05
17270.0 6.3724e-05
17290.0 6.3371e-05
17310.0 6.302e-05
17330.0 6.2661e-05
17350.0 6.23e-05
17370.0 6.195e-05
17390.0 6.1593e-05
17410.0 6.1231e-05
17430.0 6.0875e-05
17450.0 6.0522e-05
17470.0 6.0156e-05
17490.0 5.9794e-05
17510.0 5.944e-05
17530.0 5.9081e-05
17550.0 5.8717e-05
17570.0 5.8361e-05
17590.0 5.8006e-05
17610.0 5.7643e-05
17630.0 5.7284e-05
17650.0 5.693e-05
17670.0 5.6572e-05
17690.0 5.6206e-05
17710.0 5.5853e-05
17730.0 5.55e-05
17750.0 5.514e-05
17770.0 5.4784e-05
17790.0 5.4436e-05
17810.0 5.408e-05
17830.0 5.3722e-05
17850.0 5.3372e-05
17870.0 5.3023e-05
17890.0 5.2667e-05
17910.0 5.2315e-05
17930.0 5.1973e-05
17950.0 5.1624e-05
17970.0 5.1274e-05
17990.0 5.0932e-05
18010.0 5.0591e-05
18030.0 5.024e-05
18050.0 4.9897e-05
18070.0 4.956e-05
18090.0 4.9219e-05
18110.0 4.8876e-05
18130.0 4.8543e-05
18150.0 4.8209e-05
18170.0 4.7871e-05
18190.0 4.7538e-05
18210.0 4.7211e-05
18230.0 4.6877e-05
18250.0 4.6543e-05
18270.0 4.622e-05
18290.0 4.5895e-05
18310.0 4.5567e-05
18330.0 4.5245e-05
18350.0 4.4929e-05
18370.0 4.4606e-05
18390.0 4.4285e-05
18410.0 4.3972e-05
18430.0 4.3658e-05
18450.0 4.3338e-05
18470.0 4.3028e-05
18490.0 4.2723e-05
18510.0 4.2412e-05
18530.0 4.2104e-05
18550.0 4.1804e-05
18570.0 4.1501e-05
18590.0 4.1194e-05
18610.0 4.0896e-05
18630.0 4.0602e-05
18650.0 4.0302e-05
18670.0 4.0005e-05
18690.0 3.9718e-05
18710.0 3.9428e-05
18730.0 3.9135e-05
18750.0 3.8851e-05
18770.0 3.857e-05
18790.0 3.828e-05
18810.0 3.7996e-05
18830.0 3.772e-05
18850.0 3.7442e-05
18870.0 3.7162e-05
18890.0 3.689e-05
18910.0 3.6621e-05
18930.0 3.6347e-05
18950.0 3.6077e-05
18970.0 3.5814e-05
18990.0 3.5547e-05
19010.0 3.5276e-05
19030.0 3.5019e-05
19050.0 3.4761e-05
19070.0 3.45e-05
19090.0 3.4243e-05
19110.0 3.3994e-05
19130.0 3.3738e-05
19150.0 3.3483e-05
19170.0 3.3236e-05
19190.0 3.299e-05
19210.0 3.274e-05
19230.0 3.2494e-05
19250.0 3.2256e-05
19270.0 3.2014e-05
19290.0 3.1773e-05
19310.0 3.1538e-05
19330.0 3.1305e-05
19350.0 3.1064e-05
19370.0 3.0831e-05
19390.0 3.0603e-05
19410.0 3.0372e-05
19430.0 3.0141e-05
19450.0 2.9919e-05
19470.0 2.9695e-05
19490.0 2.9468e-05
19510.0 2.9247e-05
19530.0 2.9031e-05
19550.0 2.8808e-05
19570.0 2.8586e-05
19590.0 2.8374e-05
19610.0 2.8161e-05
19630.0 2.7944e-05
19650.0 2.7734e-05
19670.0 2.7527e-05
19690.0 2.7315e-05
19710.0 2.7105e-05
19730.0 2.6901e-05
19750.0 2.6696e-05
19770.0 2.6486e-05
19790.0 2.6285e-05
19810.0 2.6087e-05
19830.0 2.5884e-05
19850.0 2.5684e-05
19870.0 2.5491e-05
19890.0 2.5295e-05
19910.0 2.5099e-05
19930.0 2.4914e-05
19950.0 2.4736e-05
19970.0 2.4563e-05
19990.0 2.4402e-05
20010.0 2.4261e-05
20030.0 2.4131e-05
20050.0 2.4014e-05
20070.0 2.3915e-05
20090.0 2.3829e-05
20110.0 2.3752e-05
20130.0 2.3686e-05
20150.0 2.363e-05
20170.0 2.3579e-05
20190.0 2.3535e-05
20210.0 2.3495e-05
20230.0 2.3459e-05
20250.0 2.3426e-05
20270.0 2.3395e-05
20290.0 2.3365e-05
20310.0 2.3335e-05
20330.0 2.3305e-05
20350.0 2.3273e-05
20370.0 2.3239e-05
20390.0 2.3203e-05
20410.0 2.3165e-05
20430.0 2.3125e-05
20450.0 2.3081e-05
20470.0 2.3036e-05
20490.0 2.2989e-05
20510.0 2.2941e-05
20530.0 2.2891e-05
20550.0 2.2841e-05
20570.0 2.2792e-05
20590.0 2.2742e-05
20610.0 2.2693e-05
20630.0 2.2646e-05
20650.0 2.2598e-05
20670.0 2.2551e-05
20690.0 2.2504e-05
20710.0 2.2457e-05
20730.0 2.2409e-05
20750.0 2.2358e-05
20770.0 2.2306e-05
20790.0 2.2251e-05
20810.0 2.2191e-05
20830.0 2.2127e-05
20850.0 2.2059e-05
20870.0 2.1984e-05
20890.0 2.1902e-05
20910.0 2.1816e-05
20930.0 2.1723e-05
20950.0 2.1623e-05
20970.0 2.1519e-05
20990.0 2.1411e-05
21010.0 2.1295e-05
21030.0 2.1176e-05
21050.0 2.1055e-05
21070.0 2.0929e-05
21090.0 2.0798e-05
21110.0 2.0669e-05
21130.0 2.0538e-05
21150.0 2.0402e-05
21170.0 2.0266e-05
21190.0 2.013e-05
21210.0 1.9989e-05
21230.0 1.9843e-05
21250.0 1.9698e-05
21270.0 1.955e-05
21290.0 1.9395e-05
21310.0 1.9237e-05
21330.0 1.9077e-05
21350.0 1.8909e-05
21370.0 1.8734e-05
21390.0 1.8548e-05
21410.0 1.8356e-05
21430.0 1.8152e-05
21450.0 1.7944e-05
21470.0 1.7734e-05
21490.0 1.7515e-05
21510.0 1.7289e-05
21530.0 1.7061e-05
21550.0 1.6828e-05
21570.0 1.6584e-05
21590.0 1.6339e-05
21610.0 1.6091e-05
21630.0 1.5835e-05
21650.0 1.5571e-05
21670.0 1.531e-05
21690.0 1.5044e-05
21710.0 1.4768e-05
21730.0 1.4492e-05
21750.0 1.4214e-05
21770.0 1.3925e-05
21790.0 1.3632e-05
21810.0 1.334e-05
21830.0 1.3041e-05
21850.0 1.2734e-05
21870.0 1.2426e-05
21890.0 1.2118e-05
21910.0 1.18e-05
21930.0 1.1479e-05
21950.0 1.1159e-05
21970.0 1.0834e-05
21990.0 1.05e-05
22010.0 1.0169e-05
22030.0 9.8388e-06
22050.0 9.5029e-06
22070.0 9.2739e-06
22090.0 9.2423e-06
22110.0 9.2106e-06
22130.0 9.1788e-06
22150.0 9.1479e-06
22170.0 9.1175e-06
22190.0 9.087e-06
22210.0 9.057e-06
22230.0 9.0279e-06
22250.0 8.9989e-06
22270.0 8.97e-06
22290.0 8.9417e-06
22310.0 8.9136e-06
22330.0 8.8853e-06
22350.0 8.8572e-06
22370.0 8.8294e-06
22390.0 8.8013e-06
22410.0 8.7729e-06
22430.0 8.7447e-06
22450.0 8.7162e-06
22470.0 8.6874e-06
22490.0 8.6583e-06
22510.0 8.629e-06
22530.0 8.5992e-06
22550.0 8.569e-06
22570.0 8.5386e-06
22590.0 8.5078e-06
22610.0 8.4766e-06
22630.0 8.4451e-06
22650.0 8.4133e-06
22670.0 8.3811e-06
22690.0 8.3485e-06
22710.0 8.3157e-06
22730.0 8.2826e-06
22750.0 8.249e-06
22770.0 8.2152e-06
22790.0 8.1811e-06
22810.0 8.1467e-06
