#lamb flux
1010.0 2.025e-07
1030.0 2.1274e-07
1050.0 2.2461e-07
1070.0 2.38e-07
1090.0 2.5322e-07
1110.0 2.689e-07
1130.0 2.8475e-07
1150.0 3.0143e-07
1170.0 3.1872e-07
1190.0 3.3523e-07
1210.0 3.5207e-07
1230.0 3.6957e-07
1250.0 3.8686e-07
1270.0 4.038e-07
1290.0 4.218e-07
1310.0 4.3994e-07
1330.0 4.5754e-07
1350.0 4.7549e-07
1370.0 4.9416e-07
1390.0 5.1257e-07
1410.0 5.3067e-07
1430.0 5.4971e-07
1450.0 5.6894e-07
1470.0 5.8778e-07
1490.0 6.0698e-07
1510.0 6.2733e-07
1530.0 6.4689e-07
1550.0 6.6637e-07
1570.0 6.8657e-07
1590.0 7.069e-07
1610.0 7.2652e-07
1630.0 7.4673e-07
1650.0 7.6742e-07
1670.0 7.875e-07
1690.0 8.073e-07
1710.0 8.2767e-07
1730.0 8.4801e-07
1750.0 8.6705e-07
1770.0 8.8637e-07
1790.0 9.0576e-07
1810.0 9.2423e-07
1830.0 9.4202e-07
1850.0 9.6045e-07
1870.0 9.7794e-07
1890.0 9.9432e-07
1910.0 1.0105e-06
1930.0 1.0266e-06
1950.0 1.0413e-06
1970.0 1.0552e-06
1990.0 1.0692e-06
2010.0 1.0823e-06
2030.0 1.0942e-06
2050.0 1.1061e-06
2070.0 1.118e-06
2090.0 1.1285e-06
2110.0 1.1385e-06
2130.0 1.1487e-06
2150.0 1.1584e-06
2170.0 1.1672e-06
2190.0 1.1766e-06
2210.0 1.1861e-06
2230.0 1.1951e-06
2250.0 1.2043e-06
2270.0 1.2146e-06
2290.0 1.2248e-06
2310.0 1.235e-06
2330.0 1.2464e-06
2350.0 1.2586e-06
2370.0 1.2712e-06
2390.0 1.285e-06
2410.0 1.3005e-06
2430.0 1.3168e-06
2450.0 1.3341e-06
2470.0 1.3533e-06
2490.0 1.3746e-06
2510.0 1.3979e-06
2530.0 1.4271e-06
2550.0 1.4686e-06
2570.0 1.53e-06
2590.0 1.621e-06
2610.0 1.7648e-06
2630.0 1.9713e-06
2650.0 2.2349e-06
2670.0 2.5621e-06
2690.0 2.9473e-06
2710.0 3.3471e-06
2730.0 3.7388e-06
2750.0 4.1293e-06
2770.0 4.4898e-06
2790.0 4.8131e-06
2810.0 5.1198e-06
2830.0 5.4269e-06
2850.0 5.7211e-06
2870.0 6.021e-06
2890.0 6.3408e-06
2910.0 6.6754e-06
2930.0 7.0162e-06
2950.0 7.3812e-06
2970.0 7.768e-06
2990.0 8.1622e-06
3010.0 1.8725e-05
3030.0 1.9655e-05
3050.0 2.0587e-05
3070.0 2.1443e-05
3090.0 2.2181e-05
3110.0 2.2617e-05
3130.0 2.253e-05
3150.0 2.1674e-05
3170.0 1.9551e-05
3190.0 1.6105e-05
3210.0 1.1381e-05
3230.0 6.0491e-06
3250.0 1.1787e-05
3270.0 5.3311e-06
3290.0 1.8623e-05
3310.0 4.0974e-06
3330.0 3.9968e-06
3350.0 5.7897e-06
3370.0 7.8842e-06
3390.0 1.0137e-05
3410.0 1.2385e-05
3430.0 1.4746e-05
3450.0 1.7109e-05
3470.0 1.9272e-05
3490.0 2.0706e-05
3510.0 2.5931e-05
3530.0 3.547e-05
3550.0 3.4561e-05
3570.0 2.765e-05
3590.0 3.9903e-05
3610.0 2.3496e-05
3630.0 4.1611e-05
3650.0 4.8812e-05
3670.0 6.3896e-05
3690.0 5.9384e-05
3710.0 3.8483e-05
3730.0 5.238e-05
3750.0 5.4144e-05
3770.0 5.6916e-05
3790.0 5.249e-05
3810.0 4.9391e-05
3830.0 7.6742e-05
3850.0 8.9599e-05
3870.0 0.00011199
3890.0 0.00010568
3910.0 9.2709e-05
3930.0 9.6225e-05
3950.0 0.00010662
3970.0 0.00013103
3990.0 9.2894e-05
4010.0 5.2162e-05
4030.0 8.3691e-05
4050.0 0.00010216
4070.0 0.00011559
4090.0 9.1417e-05
4110.0 5.7135e-05
4130.0 8.549e-05
4150.0 8.1594e-05
4170.0 8.2513e-05
4190.0 7.9293e-05
4210.0 0.00010606
4230.0 7.2144e-05
4250.0 8.4167e-05
4270.0 8.3864e-05
4290.0 8.2684e-05
4310.0 0.00010503
4330.0 0.0001094
4350.0 8.3504e-05
4370.0 6.9421e-05
4390.0 8.8694e-05
4410.0 9.2728e-05
4430.0 6.9286e-05
4450.0 6.7857e-05
4470.0 8.2139e-05
4490.0 5.9099e-05
4510.0 7.7334e-05
4530.0 8.1874e-05
4550.0 0.00010618
4570.0 0.00015594
4590.0 0.00014739
4610.0 9.5139e-05
4630.0 0.00016366
4650.0 0.00023763
4670.0 0.00021994
4690.0 0.00013013
4710.0 0.00014384
4730.0 0.0001866
4750.0 0.00016316
4770.0 0.00012222
4790.0 7.9882e-05
4810.0 0.00011857
4830.0 0.00013885
4850.0 0.00011873
4870.0 3.2403e-05
4890.0 0.0001296
4910.0 0.00018422
4930.0 0.00019849
4950.0 0.00019431
4970.0 0.00011431
4990.0 0.00013481
5010.0 0.00016491
5030.0 0.00018659
5050.0 0.00018479
5070.0 0.00013092
5090.0 0.00010554
5110.0 9.9353e-05
5130.0 8.9567e-05
5150.0 9.9708e-05
5170.0 8.6201e-05
5190.0 0.000108
5210.0 0.00010873
5230.0 0.00012076
5250.0 0.00015184
5270.0 0.00012323
5290.0 0.00012214
5310.0 0.00018897
5330.0 0.000222
5350.0 0.00018246
5370.0 0.00015784
5390.0 0.00018704
5410.0 0.00024
5430.0 0.00026569
5450.0 0.0002833
5470.0 0.00028087
5490.0 0.00027508
5510.0 0.00032896
5530.0 0.00034395
5550.0 0.00037331
5570.0 0.00040229
5590.0 0.0004013
5610.0 0.00037864
5630.0 0.00036754
5650.0 0.00038009
5670.0 0.00037682
5690.0 0.00031978
5710.0 0.00031527
5730.0 0.00032592
5750.0 0.00035876
5770.0 0.00030943
5790.0 0.00028554
5810.0 0.00029068
5830.0 0.0003113
5850.0 0.00028585
5870.0 0.00029193
5890.0 0.00035628
5910.0 0.0003384
5930.0 0.00027334
5950.0 0.00023808
5970.0 0.00026308
5990.0 0.00024437
6010.0 0.00023137
6030.0 0.00023683
6050.0 0.00021929
6070.0 0.00016067
6090.0 0.00014473
6110.0 0.00019401
6130.0 0.00022567
6150.0 0.00023567
6170.0 0.00022536
6190.0 0.00020737
6210.0 0.00020547
6230.0 0.00024838
6250.0 0.0002295
6270.0 0.00020953
6290.0 0.00019386
6310.0 0.00018242
6330.0 0.0001727
6350.0 0.00015035
6370.0 0.00014923
6390.0 0.00017703
6410.0 0.00022173
6430.0 0.00025631
6450.0 0.00024072
6470.0 0.00023412
6490.0 0.00029671
6510.0 0.00034598
6530.0 0.00032606
6550.0 0.00030985
6570.0 0.0003148
6590.0 0.00030647
6610.0 0.0003335
6630.0 0.00031078
6650.0 0.00026883
6670.0 0.00024253
6690.0 0.00023966
6710.0 0.00030029
6730.0 0.00027152
6750.0 0.00022417
6770.0 0.00019732
6790.0 0.00020845
6810.0 0.00023795
6830.0 0.00023394
6850.0 0.00020949
6870.0 0.00021925
6890.0 0.00021749
6910.0 0.0002046
6930.0 0.00023566
6950.0 0.00021585
6970.0 0.00019814
6990.0 0.00019607
7010.0 0.00019044
7030.0 0.0001819
7050.0 0.00017737
7070.0 0.00019741
7090.0 0.00018759
7110.0 0.00015955
7130.0 0.00012874
7150.0 0.00011952
7170.0 0.00016143
7190.0 0.00017548
7210.0 0.00016628
7230.0 0.00017207
7250.0 0.00015926
7270.0 0.00015099
7290.0 0.00016883
7310.0 0.00019173
7330.0 0.00018897
7350.0 0.00017587
7370.0 0.00016443
7390.0 0.00016894
7410.0 0.00019751
7430.0 0.00021804
7450.0 0.00023001
7470.0 0.00022519
7490.0 0.00023936
7510.0 0.00023282
7530.0 0.00022495
7550.0 0.0002215
7570.0 0.00019389
7590.0 0.0001903
7610.0 0.0001831
7630.0 0.00016575
7650.0 0.0001787
7670.0 0.00019484
7690.0 0.00021079
7710.0 0.00023776
7730.0 0.00025107
7750.0 0.00026088
7770.0 0.00026356
7790.0 0.00028861
7810.0 0.00029441
7830.0 0.00026491
7850.0 0.00026592
7870.0 0.00025314
7890.0 0.00026468
7910.0 0.00024983
7930.0 0.00025088
7950.0 0.00021461
7970.0 0.00021825
7990.0 0.00020804
8010.0 0.00021501
8030.0 0.00021314
8050.0 0.00022467
8070.0 0.0002146
8090.0 0.00021468
8110.0 0.00020992
8130.0 0.00020882
8150.0 0.00019745
8170.0 0.00019198
8190.0 0.00018963
8210.0 0.0001906
8230.0 0.00016637
8250.0 0.00015131
8270.0 0.000133
8290.0 0.0001119
8310.0 9.7969e-05
8330.0 7.8238e-05
8350.0 6.44e-05
8370.0 6.3905e-05
8390.0 6.2539e-05
8410.0 6.4975e-05
8430.0 8.1697e-05
8450.0 8.7849e-05
8470.0 9.34e-05
8490.0 0.00010835
8510.0 0.00011748
8530.0 0.00013415
8550.0 0.00015809
8570.0 0.00017367
8590.0 0.00018317
8610.0 0.00020063
8630.0 0.00022403
8650.0 0.00022778
8670.0 0.00023065
8690.0 0.00023935
8710.0 0.0002346
8730.0 0.00022865
8750.0 0.00021217
8770.0 0.00021174
8790.0 0.00020836
8810.0 0.00019107
8830.0 0.0001913
8850.0 0.00017721
8870.0 0.00016931
8890.0 0.00015206
8910.0 0.00016601
8930.0 0.00014992
8950.0 0.0001483
8970.0 0.00014965
8990.0 0.00014426
9010.0 0.0001477
9030.0 0.00014078
9050.0 0.00014004
9070.0 0.00013999
9090.0 0.00013991
9110.0 0.0001399
9130.0 0.00013977
9150.0 0.00013958
9170.0 0.00013902
9190.0 0.00013787
9210.0 0.00013985
9230.0 0.00013914
9250.0 0.00013867
9270.0 0.00013825
9290.0 0.00013785
9310.0 0.00013746
9330.0 0.00013708
9350.0 0.00013669
9370.0 0.0001363
9390.0 0.00013589
9410.0 0.00013546
9430.0 0.00013503
9450.0 0.00013457
9470.0 0.00013411
9490.0 0.00013364
9510.0 0.00013316
9530.0 0.00013267
9550.0 0.00013218
9570.0 0.00013167
9590.0 0.00013116
9610.0 0.00013065
9630.0 0.00013013
9650.0 0.0001296
9670.0 0.00012908
9690.0 0.00012855
9710.0 0.00012802
9730.0 0.00012749
9750.0 0.00012695
9770.0 0.00012643
9790.0 0.0001259
9810.0 0.00012537
9830.0 0.00012485
9850.0 0.00012433
9870.0 0.00012381
9890.0 0.0001233
9910.0 0.0001228
9930.0 0.00012229
9950.0 0.00012154
9970.0 0.00012113
9990.0 0.00012071
10010.0 0.00012029
10030.0 0.00011985
10050.0 0.00011937
10070.0 0.00011872
10090.0 0.00011836
10110.0 0.00011799
10130.0 0.0001176
10150.0 0.00011722
10170.0 0.00011683
10190.0 0.00011643
10210.0 0.00011605
10230.0 0.00011568
10250.0 0.00011531
10270.0 0.00011495
10290.0 0.00011461
10310.0 0.00011427
10330.0 0.00011394
10350.0 0.00011362
10370.0 0.00011332
10390.0 0.00011302
10410.0 0.00011273
10430.0 0.00011246
10450.0 0.0001122
10470.0 0.00011194
10490.0 0.0001117
10510.0 0.00011147
10530.0 0.00011124
10550.0 0.00011102
10570.0 0.00011083
10590.0 0.00011063
10610.0 0.00011045
10630.0 0.00011028
10650.0 0.00011012
10670.0 0.00010996
10690.0 0.00010982
10710.0 0.00010969
10730.0 0.00010956
10750.0 0.00010944
10770.0 0.00010934
10790.0 0.00010925
10810.0 0.00010916
10830.0 0.00010907
10850.0 0.000109
10870.0 0.0001089
10890.0 0.00010877
10910.0 0.00010859
10930.0 0.0001083
10950.0 0.00010781
10970.0 0.00010711
10990.0 0.00010615
11010.0 0.00010659
11030.0 0.00010492
11050.0 0.00010296
11070.0 0.00010068
11090.0 9.804e-05
11110.0 9.5397e-05
11130.0 9.2744e-05
11150.0 9.0014e-05
11170.0 8.7341e-05
11190.0 8.4885e-05
11210.0 8.2488e-05
11230.0 8.0171e-05
11250.0 7.8084e-05
11270.0 7.6185e-05
11290.0 7.437e-05
11310.0 7.2719e-05
11330.0 7.1305e-05
11350.0 6.9982e-05
11370.0 6.8743e-05
11390.0 6.7636e-05
11410.0 6.6611e-05
11430.0 6.5568e-05
11450.0 6.4567e-05
11470.0 6.36e-05
11490.0 6.2592e-05
11510.0 6.1515e-05
11530.0 6.0447e-05
11550.0 5.9345e-05
11570.0 5.8143e-05
11590.0 5.6904e-05
11610.0 5.5666e-05
11630.0 5.4337e-05
11650.0 5.2939e-05
11670.0 5.1589e-05
11690.0 5.023e-05
11710.0 4.8822e-05
11730.0 4.7445e-05
11750.0 4.6153e-05
11770.0 4.4841e-05
11790.0 4.3556e-05
11810.0 4.2369e-05
11830.0 4.1238e-05
11850.0 4.0101e-05
11870.0 3.9063e-05
11890.0 3.8119e-05
11910.0 3.7194e-05
11930.0 3.6308e-05
11950.0 3.5505e-05
11970.0 3.4731e-05
11990.0 3.3955e-05
12010.0 3.3234e-05
12030.0 3.2558e-05
12050.0 3.1883e-05
12070.0 3.1218e-05
12090.0 3.0629e-05
12110.0 3.0059e-05
12130.0 2.9507e-05
12150.0 2.9014e-05
12170.0 2.859e-05
12190.0 2.8196e-05
12210.0 2.7882e-05
12230.0 2.7668e-05
12250.0 2.7541e-05
12270.0 2.7515e-05
12290.0 2.7605e-05
12310.0 2.7806e-05
12330.0 2.8126e-05
12350.0 2.8563e-05
12370.0 2.9093e-05
12390.0 2.972e-05
12410.0 3.0461e-05
12430.0 3.1233e-05
12450.0 3.2038e-05
12470.0 3.2888e-05
12490.0 3.3739e-05
12510.0 3.4544e-05
12530.0 3.5338e-05
12550.0 3.6101e-05
12570.0 3.6788e-05
12590.0 3.7408e-05
12610.0 3.7978e-05
12630.0 3.8474e-05
12650.0 3.8884e-05
12670.0 3.9237e-05
12690.0 3.9526e-05
12710.0 3.9751e-05
12730.0 3.9922e-05
12750.0 4.0037e-05
12770.0 4.0102e-05
12790.0 4.0124e-05
12810.0 4.0099e-05
12830.0 4.0022e-05
12850.0 3.9913e-05
12870.0 3.9764e-05
12890.0 3.9559e-05
12910.0 3.9313e-05
12930.0 3.9037e-05
12950.0 3.8697e-05
12970.0 3.8297e-05
12990.0 3.7877e-05
13010.0 3.7414e-05
13030.0 3.6888e-05
13050.0 3.6334e-05
13070.0 3.5777e-05
13090.0 3.5168e-05
13110.0 3.4537e-05
13130.0 3.3928e-05
13150.0 3.3325e-05
13170.0 3.2706e-05
13190.0 3.2146e-05
13210.0 3.165e-05
13230.0 3.1189e-05
13250.0 3.0791e-05
13270.0 3.0482e-05
13290.0 3.0241e-05
13310.0 3.0064e-05
13330.0 2.9968e-05
13350.0 2.9937e-05
13370.0 2.9955e-05
13390.0 3.0012e-05
13410.0 3.0092e-05
13430.0 3.0177e-05
13450.0 3.025e-05
13470.0 3.0296e-05
13490.0 3.0306e-05
13510.0 3.0263e-05
13530.0 3.0162e-05
13550.0 3.0013e-05
13570.0 2.9807e-05
13590.0 2.9544e-05
13610.0 2.9249e-05
13630.0 2.8935e-05
13650.0 2.8586e-05
13670.0 2.8229e-05
13690.0 2.7887e-05
13710.0 2.7546e-05
13730.0 2.7203e-05
13750.0 2.6899e-05
13770.0 2.6617e-05
13790.0 2.6344e-05
13810.0 2.6089e-05
13830.0 2.5859e-05
13850.0 2.5631e-05
13870.0 2.5404e-05
13890.0 2.5186e-05
13910.0 2.4969e-05
13930.0 2.4741e-05
13950.0 2.451e-05
13970.0 2.4287e-05
13990.0 2.4056e-05
14010.0 2.3824e-05
14030.0 2.3603e-05
14050.0 2.3393e-05
14070.0 2.3185e-05
14090.0 2.2998e-05
14110.0 2.2834e-05
14130.0 2.2688e-05
14150.0 2.2563e-05
14170.0 2.2465e-05
14190.0 2.239e-05
14210.0 2.2338e-05
14230.0 2.2309e-05
14250.0 2.2302e-05
14270.0 2.2319e-05
14290.0 2.2361e-05
14310.0 2.242e-05
14330.0 2.2498e-05
14350.0 2.2598e-05
14370.0 2.2711e-05
14390.0 2.2829e-05
14410.0 2.2963e-05
14430.0 2.3102e-05
14450.0 2.3235e-05
14470.0 2.3366e-05
14490.0 2.35e-05
14510.0 2.362e-05
14530.0 2.3726e-05
14550.0 2.3831e-05
14570.0 2.3932e-05
14590.0 2.4025e-05
14610.0 2.4124e-05
14630.0 2.424e-05
14650.0 2.4364e-05
14670.0 2.4504e-05
14690.0 2.4679e-05
14710.0 2.489e-05
14730.0 2.5118e-05
14750.0 2.5388e-05
14770.0 2.5707e-05
14790.0 2.6052e-05
14810.0 2.642e-05
14830.0 2.6849e-05
14850.0 2.7296e-05
14870.0 2.7738e-05
14890.0 2.8192e-05
14910.0 2.8651e-05
14930.0 2.9061e-05
14950.0 2.9416e-05
14970.0 2.9726e-05
14990.0 2.9952e-05
15010.0 3.0086e-05
15030.0 3.0143e-05
15050.0 3.013e-05
15070.0 3.0051e-05
15090.0 2.9932e-05
15110.0 2.9784e-05
15130.0 2.9619e-05
15150.0 2.9447e-05
15170.0 2.9268e-05
15190.0 2.9085e-05
15210.0 2.8904e-05
15230.0 2.8723e-05
15250.0 2.854e-05
15270.0 2.8358e-05
15290.0 2.8178e-05
15310.0 2.7997e-05
15330.0 2.7815e-05
15350.0 2.7636e-05
15370.0 2.7457e-05
15390.0 2.7276e-05
15410.0 2.7097e-05
15430.0 2.692e-05
15450.0 2.6742e-05
15470.0 2.6563e-05
15490.0 2.6388e-05
15510.0 2.6213e-05
15530.0 2.6037e-05
15550.0 2.5862e-05
15570.0 2.569e-05
15590.0 2.5516e-05
15610.0 2.5342e-05
15630.0 2.5172e-05
15650.0 2.5002e-05
15670.0 2.4831e-05
15690.0 2.4663e-05
15710.0 2.4496e-05
15730.0 2.4329e-05
15750.0 2.4162e-05
15770.0 2.3998e-05
15790.0 2.3834e-05
15810.0 2.3669e-05
15830.0 2.3507e-05
15850.0 2.3348e-05
15870.0 2.3187e-05
15890.0 2.3028e-05
15910.0 2.2871e-05
15930.0 2.2714e-05
15950.0 2.2557e-05
15970.0 2.2403e-05
15990.0 2.225e-05
16010.0 2.2097e-05
16030.0 2.1944e-05
16050.0 2.1796e-05
16070.0 2.1647e-05
16090.0 2.1498e-05
16110.0 2.1351e-05
16130.0 2.1207e-05
16150.0 2.1061e-05
16170.0 2.0917e-05
16190.0 2.0775e-05
16210.0 2.0634e-05
16230.0 2.0493e-05
16250.0 2.0355e-05
16270.0 2.0218e-05
16290.0 2.0081e-05
16310.0 1.9945e-05
16330.0 1.9812e-05
16350.0 1.9679e-05
16370.0 1.9545e-05
16390.0 1.9415e-05
16410.0 1.9286e-05
16430.0 1.9157e-05
16450.0 1.9029e-05
16470.0 1.8905e-05
16490.0 1.8779e-05
16510.0 1.8654e-05
16530.0 1.8532e-05
16550.0 1.8411e-05
16570.0 1.8289e-05
16590.0 1.8169e-05
16610.0 1.8052e-05
16630.0 1.7934e-05
16650.0 1.7817e-05
16670.0 1.7703e-05
16690.0 1.7589e-05
16710.0 1.7475e-05
16730.0 1.7362e-05
16750.0 1.7252e-05
16770.0 1.7142e-05
16790.0 1.7032e-05
16810.0 1.6925e-05
16830.0 1.6819e-05
16850.0 1.6712e-05
16870.0 1.6608e-05
16890.0 1.6505e-05
16910.0 1.6401e-05
16930.0 1.6298e-05
16950.0 1.6198e-05
16970.0 1.6098e-05
16990.0 1.5999e-05
17010.0 1.5901e-05
17030.0 1.5805e-05
17050.0 1.5708e-05
17070.0 1.5612e-05
17090.0 1.5518e-05
17110.0 1.5425e-05
17130.0 1.5331e-05
17150.0 1.524e-05
17170.0 1.515e-05
17190.0 1.5059e-05
17210.0 1.497e-05
17230.0 1.4883e-05
17250.0 1.4795e-05
17270.0 1.4708e-05
17290.0 1.4622e-05
17310.0 1.4538e-05
17330.0 1.4453e-05
17350.0 1.4369e-05
17370.0 1.4288e-05
17390.0 1.4206e-05
17410.0 1.4124e-05
17430.0 1.4044e-05
17450.0 1.3966e-05
17470.0 1.3886e-05
17490.0 1.3807e-05
17510.0 1.3731e-05
17530.0 1.3654e-05
17550.0 1.3577e-05
17570.0 1.3503e-05
17590.0 1.3429e-05
17610.0 1.3355e-05
17630.0 1.3281e-05
17650.0 1.321e-05
17670.0 1.3138e-05
17690.0 1.3065e-05
17710.0 1.2995e-05
17730.0 1.2926e-05
17750.0 1.2856e-05
17770.0 1.2788e-05
17790.0 1.2721e-05
17810.0 1.2653e-05
17830.0 1.2586e-05
17850.0 1.252e-05
17870.0 1.2455e-05
17890.0 1.2389e-05
17910.0 1.2324e-05
17930.0 1.2261e-05
17950.0 1.2198e-05
17970.0 1.2135e-05
17990.0 1.2073e-05
18010.0 1.2012e-05
18030.0 1.195e-05
18050.0 1.1889e-05
18070.0 1.183e-05
18090.0 1.177e-05
18110.0 1.171e-05
18130.0 1.1653e-05
18150.0 1.1595e-05
18170.0 1.1537e-05
18190.0 1.148e-05
18210.0 1.1424e-05
18230.0 1.1367e-05
18250.0 1.1311e-05
18270.0 1.1257e-05
18290.0 1.1202e-05
18310.0 1.1147e-05
18330.0 1.1094e-05
18350.0 1.1041e-05
18370.0 1.0988e-05
18390.0 1.0935e-05
18410.0 1.0883e-05
18430.0 1.0832e-05
18450.0 1.0779e-05
18470.0 1.0729e-05
18490.0 1.0679e-05
18510.0 1.0629e-05
18530.0 1.0579e-05
18550.0 1.0531e-05
18570.0 1.0482e-05
18590.0 1.0432e-05
18610.0 1.0384e-05
18630.0 1.0337e-05
18650.0 1.0289e-05
18670.0 1.0241e-05
18690.0 1.0196e-05
18710.0 1.015e-05
18730.0 1.0103e-05
18750.0 1.0058e-05
18770.0 1.0014e-05
18790.0 9.9673e-06
18810.0 9.9224e-06
18830.0 9.879e-06
18850.0 9.835e-06
18870.0 9.7905e-06
18890.0 9.7478e-06
18910.0 9.7056e-06
18930.0 9.6621e-06
18950.0 9.6195e-06
18970.0 9.5783e-06
18990.0 9.5363e-06
19010.0 9.4931e-06
19030.0 9.4528e-06
19050.0 9.4124e-06
19070.0 9.3711e-06
19090.0 9.3306e-06
19110.0 9.2918e-06
19130.0 9.2513e-06
19150.0 9.2108e-06
19170.0 9.1721e-06
19190.0 9.1334e-06
19210.0 9.0935e-06
19230.0 9.0546e-06
19250.0 9.0175e-06
19270.0 8.9792e-06
19290.0 8.9408e-06
19310.0 8.9039e-06
19330.0 8.8671e-06
19350.0 8.8284e-06
19370.0 8.7915e-06
19390.0 8.7556e-06
19410.0 8.7187e-06
19430.0 8.6816e-06
19450.0 8.6466e-06
19470.0 8.6111e-06
19490.0 8.5746e-06
19510.0 8.5394e-06
19530.0 8.505e-06
19550.0 8.4691e-06
19570.0 8.4333e-06
19590.0 8.3995e-06
19610.0 8.3653e-06
19630.0 8.3302e-06
19650.0 8.2964e-06
19670.0 8.2635e-06
19690.0 8.2289e-06
19710.0 8.1949e-06
19730.0 8.1622e-06
19750.0 8.1291e-06
19770.0 8.0946e-06
19790.0 8.062e-06
19810.0 8.0301e-06
19830.0 7.9967e-06
19850.0 7.9633e-06
19870.0 7.9308e-06
19890.0 7.8954e-06
19910.0 7.856e-06
19930.0 7.8133e-06
19950.0 7.7637e-06
19970.0 7.7015e-06
19990.0 7.6257e-06
20010.0 7.5397e-06
20030.0 7.4356e-06
20050.0 7.3148e-06
20070.0 7.1863e-06
20090.0 7.0508e-06
20110.0 6.9007e-06
20130.0 6.7531e-06
20150.0 6.611e-06
20170.0 6.4674e-06
20190.0 6.3256e-06
20210.0 6.1955e-06
20230.0 6.0716e-06
20250.0 5.9503e-06
20270.0 5.8408e-06
20290.0 5.7437e-06
20310.0 5.6543e-06
20330.0 5.5739e-06
20350.0 5.5114e-06
20370.0 5.46e-06
20390.0 5.4204e-06
20410.0 5.3954e-06
20430.0 5.3842e-06
20450.0 5.3861e-06
20470.0 5.4024e-06
20490.0 5.4315e-06
20510.0 5.4731e-06
20530.0 5.5287e-06
20550.0 5.5945e-06
20570.0 5.6674e-06
20590.0 5.7515e-06
20610.0 5.8429e-06
20630.0 5.9363e-06
20650.0 6.0339e-06
20670.0 6.1377e-06
20690.0 6.2366e-06
20710.0 6.3316e-06
20730.0 6.4254e-06
20750.0 6.5139e-06
20770.0 6.592e-06
20790.0 6.6641e-06
20810.0 6.7297e-06
20830.0 6.785e-06
20850.0 6.8312e-06
20870.0 6.871e-06
20890.0 6.9027e-06
20910.0 6.926e-06
20930.0 6.9437e-06
20950.0 6.9558e-06
20970.0 6.9626e-06
20990.0 6.9649e-06
21010.0 6.9629e-06
21030.0 6.9566e-06
21050.0 6.947e-06
21070.0 6.9333e-06
21090.0 6.915e-06
21110.0 6.8942e-06
21130.0 6.8704e-06
21150.0 6.8426e-06
21170.0 6.8122e-06
21190.0 6.7811e-06
21210.0 6.747e-06
21230.0 6.7112e-06
21250.0 6.677e-06
21270.0 6.6434e-06
21290.0 6.61e-06
21310.0 6.5792e-06
21330.0 6.5525e-06
21350.0 6.5281e-06
21370.0 6.5074e-06
21390.0 6.4917e-06
21410.0 6.4805e-06
21430.0 6.4737e-06
21450.0 6.4724e-06
21470.0 6.4759e-06
21490.0 6.4843e-06
21510.0 6.4976e-06
21530.0 6.5149e-06
21550.0 6.5364e-06
21570.0 6.5627e-06
21590.0 6.5924e-06
21610.0 6.6247e-06
21630.0 6.6613e-06
21650.0 6.7023e-06
21670.0 6.7437e-06
21690.0 6.7885e-06
21710.0 6.8375e-06
21730.0 6.8885e-06
21750.0 6.9406e-06
21770.0 6.9985e-06
21790.0 7.0592e-06
21810.0 7.1206e-06
21830.0 7.1853e-06
21850.0 7.2552e-06
21870.0 7.3259e-06
21890.0 7.3968e-06
21910.0 7.4727e-06
21930.0 7.5505e-06
21950.0 7.627e-06
21970.0 7.7054e-06
21990.0 7.7877e-06
22010.0 7.8658e-06
22030.0 7.9417e-06
22050.0 8.0177e-06
22070.0 8.0907e-06
22090.0 8.1566e-06
22110.0 8.2193e-06
22130.0 8.2774e-06
22150.0 8.3267e-06
22170.0 8.3679e-06
22190.0 8.4018e-06
22210.0 8.4253e-06
22230.0 8.4377e-06
22250.0 8.4397e-06
22270.0 8.4299e-06
22290.0 8.409e-06
22310.0 8.3771e-06
22330.0 8.3312e-06
22350.0 8.2741e-06
22370.0 8.2077e-06
22390.0 8.1291e-06
22410.0 8.0372e-06
22430.0 7.9405e-06
22450.0 7.8364e-06
22470.0 7.7209e-06
22490.0 7.6004e-06
22510.0 7.4794e-06
22530.0 7.3493e-06
22550.0 7.2141e-06
22570.0 7.0832e-06
22590.0 6.9522e-06
22610.0 6.8173e-06
22630.0 6.6862e-06
