#lamb flux
1010.0 1.5223e-06
1030.0 1.6561e-06
1050.0 1.8139e-06
1070.0 1.9916e-06
1090.0 2.1923e-06
1110.0 2.3984e-06
1130.0 2.606e-06
1150.0 2.8236e-06
1170.0 3.0479e-06
1190.0 3.2604e-06
1210.0 3.4754e-06
1230.0 3.697e-06
1250.0 3.9136e-06
1270.0 4.123e-06
1290.0 4.3434e-06
1310.0 4.5627e-06
1330.0 4.7717e-06
1350.0 4.9822e-06
1370.0 5.1989e-06
1390.0 5.4094e-06
1410.0 5.6131e-06
1430.0 5.8261e-06
1450.0 6.0391e-06
1470.0 6.2451e-06
1490.0 6.4539e-06
1510.0 6.6753e-06
1530.0 6.8858e-06
1550.0 7.0945e-06
1570.0 7.3115e-06
1590.0 7.53e-06
1610.0 7.7401e-06
1630.0 7.9584e-06
1650.0 8.1837e-06
1670.0 8.4031e-06
1690.0 8.6209e-06
1710.0 8.848e-06
1730.0 9.077e-06
1750.0 9.2935e-06
1770.0 9.5163e-06
1790.0 9.7433e-06
1810.0 9.9627e-06
1830.0 1.0177e-05
1850.0 1.0403e-05
1870.0 1.0621e-05
1890.0 1.0829e-05
1910.0 1.1038e-05
1930.0 1.1248e-05
1950.0 1.1444e-05
1970.0 1.1633e-05
1990.0 1.1825e-05
2010.0 1.2007e-05
2030.0 1.2177e-05
2050.0 1.2347e-05
2070.0 1.2518e-05
2090.0 1.267e-05
2110.0 1.2817e-05
2130.0 1.2966e-05
2150.0 1.3106e-05
2170.0 1.3233e-05
2190.0 1.3365e-05
2210.0 1.3494e-05
2230.0 1.3613e-05
2250.0 1.3729e-05
2270.0 1.3852e-05
2290.0 1.3968e-05
2310.0 1.4075e-05
2330.0 1.4187e-05
2350.0 1.4301e-05
2370.0 1.4407e-05
2390.0 1.4516e-05
2410.0 1.4637e-05
2430.0 1.4756e-05
2450.0 1.4876e-05
2470.0 1.5009e-05
2490.0 1.5157e-05
2510.0 1.5315e-05
2530.0 1.5524e-05
2550.0 1.5844e-05
2570.0 1.634e-05
2590.0 1.7095e-05
2610.0 1.8328e-05
2630.0 2.0108e-05
2650.0 2.2362e-05
2670.0 2.5132e-05
2690.0 2.8326e-05
2710.0 3.149e-05
2730.0 3.4358e-05
2750.0 3.6864e-05
2770.0 3.8641e-05
2790.0 3.9589e-05
2810.0 3.9794e-05
2830.0 3.9273e-05
2850.0 3.8233e-05
2870.0 3.6848e-05
2890.0 3.5172e-05
2910.0 3.336e-05
2930.0 3.1567e-05
2950.0 2.9683e-05
2970.0 2.7753e-05
2990.0 2.5899e-05
3010.0 3.5031e-05
3030.0 3.2295e-05
3050.0 2.959e-05
3070.0 2.7104e-05
3090.0 2.4616e-05
3110.0 2.2241e-05
3130.0 2.0193e-05
3150.0 1.8812e-05
3170.0 1.7709e-05
3190.0 2.9231e-05
3210.0 8.227e-05
3230.0 0.00016819
3250.0 0.00021341
3270.0 0.00018845
3290.0 0.00014465
3310.0 0.00011971
3330.0 0.00011216
3350.0 0.00011517
3370.0 0.00012128
3390.0 0.00012778
3410.0 0.00013434
3430.0 0.00014049
3450.0 0.00014715
3470.0 0.00015439
3490.0 0.00015932
3510.0 0.00015425
3530.0 0.00015756
3550.0 0.0001976
3570.0 0.00024814
3590.0 0.00027403
3610.0 0.0002826
3630.0 0.00028959
3650.0 0.0002892
3670.0 0.00030656
3690.0 0.00036685
3710.0 0.0004347
3730.0 0.00047908
3750.0 0.0005106
3770.0 0.00051685
3790.0 0.00049684
3810.0 0.00045928
3830.0 0.00040154
3850.0 0.0003404
3870.0 0.00030885
3890.0 0.00034549
3910.0 0.00043702
3930.0 0.00052856
3950.0 0.00058296
3970.0 0.00060597
3990.0 0.00063125
4010.0 0.00064585
4030.0 0.0005827
4050.0 0.00045985
4070.0 0.00039684
4090.0 0.00041829
4110.0 0.0004605
4130.0 0.0004842
4150.0 0.0004868
4170.0 0.00047569
4190.0 0.00046761
4210.0 0.00047946
4230.0 0.00050742
4250.0 0.00053016
4270.0 0.00053861
4290.0 0.00053118
4310.0 0.00053461
4330.0 0.00056707
4350.0 0.00060545
4370.0 0.00060264
4390.0 0.00055893
4410.0 0.00049333
4430.0 0.000413
4450.0 0.00035629
4470.0 0.00035445
4490.0 0.00038716
4510.0 0.000429
4530.0 0.00047425
4550.0 0.00054509
4570.0 0.00068118
4590.0 0.00087521
4610.0 0.0010338
4630.0 0.0011137
4650.0 0.0011795
4670.0 0.0012434
4690.0 0.0012161
4710.0 0.0010606
4730.0 0.00085483
4750.0 0.00068906
4770.0 0.00058904
4790.0 0.00055219
4810.0 0.00055206
4830.0 0.00059068
4850.0 0.00066785
4870.0 0.00073696
4890.0 0.0007595
4910.0 0.00077734
4930.0 0.00085032
4950.0 0.00094874
4970.0 0.00099953
4990.0 0.00097189
5010.0 0.0008705
5030.0 0.00072903
5050.0 0.00060933
5070.0 0.00053611
5090.0 0.00050607
5110.0 0.00050608
5130.0 0.00051096
5150.0 0.00050641
5170.0 0.00049524
5190.0 0.00050071
5210.0 0.00053775
5230.0 0.00060494
5250.0 0.00070581
5270.0 0.000811
5290.0 0.00088247
5310.0 0.00093954
5330.0 0.0010118
5350.0 0.0010652
5370.0 0.0010526
5390.0 0.00099552
5410.0 0.00095343
5430.0 0.00098319
5450.0 0.0010991
5470.0 0.0012419
5490.0 0.0013404
5510.0 0.0013698
5530.0 0.0013505
5550.0 0.0013049
5570.0 0.0012498
5590.0 0.001198
5610.0 0.0011598
5630.0 0.0011418
5650.0 0.001116
5670.0 0.0010444
5690.0 0.00094297
5710.0 0.00085214
5730.0 0.00078676
5750.0 0.00076239
5770.0 0.00077635
5790.0 0.00079329
5810.0 0.00079659
5830.0 0.00079281
5850.0 0.00077398
5870.0 0.00074603
5890.0 0.00073625
5910.0 0.00074225
5930.0 0.00072718
5950.0 0.0006744
5970.0 0.00059287
5990.0 0.00050179
6010.0 0.00043612
6030.0 0.0004177
6050.0 0.00044044
6070.0 0.00046163
6090.0 0.00044615
6110.0 0.00042092
6130.0 0.00042948
6150.0 0.00046573
6170.0 0.00049901
6190.0 0.00051806
6210.0 0.00052397
6230.0 0.00050968
6250.0 0.00046439
6270.0 0.0003997
6290.0 0.00034649
6310.0 0.00032763
6330.0 0.0003376
6350.0 0.00035492
6370.0 0.00037721
6390.0 0.0004249
6410.0 0.00049657
6430.0 0.0005562
6450.0 0.00058592
6470.0 0.00060238
6490.0 0.00061444
6510.0 0.00061941
6530.0 0.00062272
6550.0 0.00063111
6570.0 0.00064161
6590.0 0.00064876
6610.0 0.00064101
6630.0 0.00061226
6650.0 0.00056875
6670.0 0.00052729
6690.0 0.00050058
6710.0 0.00048036
6730.0 0.00045896
6750.0 0.0004487
6770.0 0.00045899
6790.0 0.00047374
6810.0 0.0004783
6830.0 0.0004707
6850.0 0.00045229
6870.0 0.00043352
6890.0 0.00042298
6910.0 0.00042415
6930.0 0.00043134
6950.0 0.00043703
6970.0 0.00044201
6990.0 0.00044062
7010.0 0.00042666
7030.0 0.0003977
7050.0 0.00035997
7070.0 0.00033356
7090.0 0.00033006
7110.0 0.00033546
7130.0 0.00032396
7150.0 0.00030086
7170.0 0.00029791
7190.0 0.00032451
7210.0 0.0003618
7230.0 0.00039204
7250.0 0.00040439
7270.0 0.00039562
7290.0 0.00037525
7310.0 0.00035968
7330.0 0.00036026
7350.0 0.00036894
7370.0 0.00037598
7390.0 0.00039216
7410.0 0.00042456
7430.0 0.00046165
7450.0 0.00049045
7470.0 0.00049881
7490.0 0.00047492
7510.0 0.00044172
7530.0 0.00042427
7550.0 0.00040376
7570.0 0.00038189
7590.0 0.00037155
7610.0 0.00037298
7630.0 0.00038704
7650.0 0.00041505
7670.0 0.00045067
7690.0 0.00048332
7710.0 0.00050728
7730.0 0.00052771
7750.0 0.00054481
7770.0 0.0005533
7790.0 0.00056278
7810.0 0.00056469
7830.0 0.00054835
7850.0 0.00052999
7870.0 0.00052004
7890.0 0.00052102
7910.0 0.00052281
7930.0 0.00051191
7950.0 0.00049597
7970.0 0.00047917
7990.0 0.00046474
8010.0 0.0004438
8030.0 0.00044546
8050.0 0.0004456
8070.0 0.00044053
8090.0 0.00043707
8110.0 0.00043114
8130.0 0.00043226
8150.0 0.00042982
8170.0 0.00042301
8190.0 0.00041187
8210.0 0.00039904
8230.0 0.00038691
8250.0 0.00038302
8270.0 0.00036151
8290.0 0.00031442
8310.0 0.00026162
8330.0 0.00022568
8350.0 0.00021688
8370.0 0.00024066
8390.0 0.00027526
8410.0 0.00029421
8430.0 0.00030578
8450.0 0.00032723
8470.0 0.00035371
8490.0 0.00038964
8510.0 0.00043136
8530.0 0.00047496
8550.0 0.00050983
8570.0 0.00053588
8590.0 0.00055561
8610.0 0.00056719
8630.0 0.00056617
8650.0 0.00055729
8670.0 0.00055883
8690.0 0.0005882
8710.0 0.00062789
8730.0 0.00064736
8750.0 0.00064355
8770.0 0.00065096
8790.0 0.00065198
8810.0 0.0006242
8830.0 0.00057998
8850.0 0.00052418
8870.0 0.00048176
8890.0 0.00046913
8910.0 0.00046161
8930.0 0.00043274
8950.0 0.00040106
8970.0 0.00038835
8990.0 0.00038999
9010.0 0.00038337
9030.0 0.00037656
9050.0 0.00037307
9070.0 0.00037121
9090.0 0.00036959
9110.0 0.00036801
9130.0 0.00036644
9150.0 0.0003649
9170.0 0.00036331
9190.0 0.00036201
9210.0 0.00036121
9230.0 0.00035941
9250.0 0.00035777
9270.0 0.00035623
9290.0 0.00035477
9310.0 0.00035335
9330.0 0.00035195
9350.0 0.00035062
9370.0 0.00034931
9390.0 0.00034799
9410.0 0.0003467
9430.0 0.00034536
9450.0 0.00034356
9470.0 0.00034194
9490.0 0.00034121
9510.0 0.00034024
9530.0 0.00033922
9550.0 0.00033813
9570.0 0.00033701
9590.0 0.00033591
9610.0 0.00033479
9630.0 0.00033367
9650.0 0.00033256
9670.0 0.00033149
9690.0 0.0003304
9710.0 0.00032931
9730.0 0.00032826
9750.0 0.00032721
9770.0 0.00032613
9790.0 0.00032508
9810.0 0.00032405
9830.0 0.000323
9850.0 0.00032194
9870.0 0.00032093
9890.0 0.00031991
9910.0 0.00031886
9930.0 0.00031781
9950.0 0.00031562
9970.0 0.00031491
9990.0 0.00031413
10010.0 0.00031334
10030.0 0.00031244
10050.0 0.00031143
10070.0 0.00031043
10090.0 0.00030944
10110.0 0.00030827
10130.0 0.00030682
10150.0 0.0003058
10170.0 0.00030481
10190.0 0.00030368
10210.0 0.00030261
10230.0 0.00030154
10250.0 0.00030033
10270.0 0.00029912
10290.0 0.00029798
10310.0 0.00029673
10330.0 0.00029537
10350.0 0.00029412
10370.0 0.00029286
10390.0 0.00029147
10410.0 0.00029008
10430.0 0.00028879
10450.0 0.00028737
10470.0 0.00028588
10490.0 0.00028446
10510.0 0.00028301
10530.0 0.00028139
10550.0 0.0002798
10570.0 0.00027829
10590.0 0.00027666
10610.0 0.00027495
10630.0 0.00027332
10650.0 0.00027165
10670.0 0.00026982
10690.0 0.00026802
10710.0 0.00026625
10730.0 0.00026436
10750.0 0.00026235
10770.0 0.00026049
10790.0 0.00025855
10810.0 0.00025648
10830.0 0.00025443
10850.0 0.00025244
10870.0 0.00025023
10890.0 0.00024799
10910.0 0.00024582
10930.0 0.00024358
10950.0 0.00024118
10970.0 0.00023881
10990.0 0.0002365
11010.0 0.00025331
11030.0 0.00025074
11050.0 0.00024827
11070.0 0.00024575
11090.0 0.00024306
11110.0 0.00024056
11130.0 0.0002381
11150.0 0.00023556
11170.0 0.00023303
11190.0 0.00023065
11210.0 0.00022822
11230.0 0.00022573
11250.0 0.00022337
11270.0 0.00022109
11290.0 0.00021874
11310.0 0.00021644
11330.0 0.00021432
11350.0 0.00021216
11370.0 0.00020998
11390.0 0.00020787
11410.0 0.00020577
11430.0 0.0002035
11450.0 0.00020119
11470.0 0.00019886
11490.0 0.00019636
11510.0 0.00019363
11530.0 0.00019087
11550.0 0.00018798
11570.0 0.00018484
11590.0 0.00018158
11610.0 0.00017831
11630.0 0.00017482
11650.0 0.00017117
11670.0 0.00016763
11690.0 0.00016405
11710.0 0.00016035
11730.0 0.00015669
11750.0 0.00015318
11770.0 0.00014958
11790.0 0.00014596
11810.0 0.00014249
11830.0 0.00013907
11850.0 0.00013552
11870.0 0.00013211
11890.0 0.00012886
11910.0 0.00012557
11930.0 0.00012231
11950.0 0.00011923
11970.0 0.00011622
11990.0 0.0001132
12010.0 0.00011036
12030.0 0.00010769
12050.0 0.00010509
12070.0 0.0001026
12090.0 0.00010038
12110.0 9.8308e-05
12130.0 9.6365e-05
12150.0 9.4648e-05
12170.0 9.3157e-05
12190.0 9.1812e-05
12210.0 9.0702e-05
12230.0 8.9832e-05
12250.0 8.917e-05
12270.0 8.8728e-05
12290.0 8.8502e-05
12310.0 8.8458e-05
12330.0 8.8618e-05
12350.0 8.8951e-05
12370.0 8.9398e-05
12390.0 8.9976e-05
12410.0 9.0718e-05
12430.0 9.1469e-05
12450.0 9.2251e-05
12470.0 9.3102e-05
12490.0 9.3955e-05
12510.0 9.4729e-05
12530.0 9.5506e-05
12550.0 9.6255e-05
12570.0 9.6884e-05
12590.0 9.7408e-05
12610.0 9.7861e-05
12630.0 9.8173e-05
12650.0 9.8293e-05
12670.0 9.8278e-05
12690.0 9.8095e-05
12710.0 9.7722e-05
12730.0 9.7174e-05
12750.0 9.644e-05
12770.0 9.5528e-05
12790.0 9.4468e-05
12810.0 9.3253e-05
12830.0 9.1884e-05
12850.0 9.0449e-05
12870.0 8.8942e-05
12890.0 8.7342e-05
12910.0 8.5721e-05
12930.0 8.4125e-05
12950.0 8.2493e-05
12970.0 8.086e-05
12990.0 7.9315e-05
13010.0 7.7808e-05
13030.0 7.6313e-05
13050.0 7.4885e-05
13070.0 7.3539e-05
13090.0 7.2205e-05
13110.0 7.091e-05
13130.0 6.969e-05
13150.0 6.8512e-05
13170.0 6.7337e-05
13190.0 6.6232e-05
13210.0 6.5189e-05
13230.0 6.4163e-05
13250.0 6.3173e-05
13270.0 6.2247e-05
13290.0 6.1351e-05
13310.0 6.0471e-05
13330.0 5.9647e-05
13350.0 5.8868e-05
13370.0 5.811e-05
13390.0 5.7382e-05
13410.0 5.6713e-05
13430.0 5.6068e-05
13450.0 5.5444e-05
13470.0 5.4857e-05
13490.0 5.4302e-05
13510.0 5.3751e-05
13530.0 5.3221e-05
13550.0 5.2715e-05
13570.0 5.2215e-05
13590.0 5.1712e-05
13610.0 5.1221e-05
13630.0 5.0739e-05
13650.0 5.0245e-05
13670.0 4.9751e-05
13690.0 4.9267e-05
13710.0 4.878e-05
13730.0 4.8279e-05
13750.0 4.7801e-05
13770.0 4.7332e-05
13790.0 4.6861e-05
13810.0 4.6403e-05
13830.0 4.597e-05
13850.0 4.5541e-05
13870.0 4.5121e-05
13890.0 4.4725e-05
13910.0 4.4346e-05
13930.0 4.3969e-05
13950.0 4.3606e-05
13970.0 4.3266e-05
13990.0 4.2925e-05
14010.0 4.2583e-05
14030.0 4.2252e-05
14050.0 4.1921e-05
14070.0 4.1571e-05
14090.0 4.1222e-05
14110.0 4.0875e-05
14130.0 4.0514e-05
14150.0 4.0141e-05
14170.0 3.978e-05
14190.0 3.942e-05
14210.0 3.9054e-05
14230.0 3.8702e-05
14250.0 3.8374e-05
14270.0 3.8052e-05
14290.0 3.7749e-05
14310.0 3.7487e-05
14330.0 3.7251e-05
14350.0 3.7039e-05
14370.0 3.6862e-05
14390.0 3.6718e-05
14410.0 3.6594e-05
14430.0 3.6494e-05
14450.0 3.6418e-05
14470.0 3.6356e-05
14490.0 3.6303e-05
14510.0 3.6262e-05
14530.0 3.623e-05
14550.0 3.6201e-05
14570.0 3.6177e-05
14590.0 3.6164e-05
14610.0 3.6162e-05
14630.0 3.6175e-05
14650.0 3.6213e-05
14670.0 3.628e-05
14690.0 3.6388e-05
14710.0 3.6547e-05
14730.0 3.6755e-05
14750.0 3.703e-05
14770.0 3.7387e-05
14790.0 3.7819e-05
14810.0 3.8326e-05
14830.0 3.8959e-05
14850.0 3.9686e-05
14870.0 4.0483e-05
14890.0 4.1376e-05
14910.0 4.2361e-05
14930.0 4.3354e-05
14950.0 4.4326e-05
14970.0 4.529e-05
14990.0 4.6157e-05
15010.0 4.6887e-05
15030.0 4.7502e-05
15050.0 4.8001e-05
15070.0 4.8371e-05
15090.0 4.8664e-05
15110.0 4.8906e-05
15130.0 4.9113e-05
15150.0 4.9304e-05
15170.0 4.9488e-05
15190.0 4.9671e-05
15210.0 4.9856e-05
15230.0 5.0044e-05
15250.0 5.0235e-05
15270.0 5.043e-05
15290.0 5.063e-05
15310.0 5.0832e-05
15330.0 5.1039e-05
15350.0 5.1249e-05
15370.0 5.1463e-05
15390.0 5.168e-05
15410.0 5.1901e-05
15430.0 5.2126e-05
15450.0 5.2354e-05
15470.0 5.2585e-05
15490.0 5.2819e-05
15510.0 5.3057e-05
15530.0 5.3298e-05
15550.0 5.3542e-05
15570.0 5.3789e-05
15590.0 5.4039e-05
15610.0 5.4291e-05
15630.0 5.4547e-05
15650.0 5.4806e-05
15670.0 5.5067e-05
15690.0 5.5331e-05
15710.0 5.5598e-05
15730.0 5.5866e-05
15750.0 5.6138e-05
15770.0 5.6412e-05
15790.0 5.6688e-05
15810.0 5.6966e-05
15830.0 5.7246e-05
15850.0 5.7529e-05
15870.0 5.7813e-05
15890.0 5.8099e-05
15910.0 5.8387e-05
15930.0 5.8677e-05
15950.0 5.8968e-05
15970.0 5.926e-05
15990.0 5.9555e-05
16010.0 5.985e-05
16030.0 6.0146e-05
16050.0 6.0444e-05
16070.0 6.0743e-05
16090.0 6.1043e-05
16110.0 6.1343e-05
16130.0 6.1645e-05
16150.0 6.1946e-05
16170.0 6.2249e-05
16190.0 6.2552e-05
16210.0 6.2855e-05
16230.0 6.3158e-05
16250.0 6.3461e-05
16270.0 6.3765e-05
16290.0 6.4068e-05
16310.0 6.4371e-05
16330.0 6.4674e-05
16350.0 6.4976e-05
16370.0 6.5277e-05
16390.0 6.5578e-05
16410.0 6.5878e-05
16430.0 6.6177e-05
16450.0 6.6475e-05
16470.0 6.6772e-05
16490.0 6.7067e-05
16510.0 6.7361e-05
16530.0 6.7654e-05
16550.0 6.7945e-05
16570.0 6.8234e-05
16590.0 6.8521e-05
16610.0 6.8807e-05
16630.0 6.909e-05
16650.0 6.9371e-05
16670.0 6.965e-05
16690.0 6.9926e-05
16710.0 7.0199e-05
16730.0 7.047e-05
16750.0 7.0738e-05
16770.0 7.1003e-05
16790.0 7.1264e-05
16810.0 7.1524e-05
16830.0 7.1779e-05
16850.0 7.2031e-05
16870.0 7.228e-05
16890.0 7.2525e-05
16910.0 7.2766e-05
16930.0 7.3003e-05
16950.0 7.3236e-05
16970.0 7.3466e-05
16990.0 7.3691e-05
17010.0 7.3911e-05
17030.0 7.4128e-05
17050.0 7.434e-05
17070.0 7.4547e-05
17090.0 7.475e-05
17110.0 7.4948e-05
17130.0 7.5141e-05
17150.0 7.5329e-05
17170.0 7.5512e-05
17190.0 7.569e-05
17210.0 7.5863e-05
17230.0 7.603e-05
17250.0 7.6193e-05
17270.0 7.6349e-05
17290.0 7.65e-05
17310.0 7.6645e-05
17330.0 7.6785e-05
17350.0 7.6919e-05
17370.0 7.7047e-05
17390.0 7.717e-05
17410.0 7.7286e-05
17430.0 7.7396e-05
17450.0 7.7501e-05
17470.0 7.7598e-05
17490.0 7.769e-05
17510.0 7.7776e-05
17530.0 7.7856e-05
17550.0 7.7929e-05
17570.0 7.7996e-05
17590.0 7.8057e-05
17610.0 7.8111e-05
17630.0 7.8159e-05
17650.0 7.82e-05
17670.0 7.8235e-05
17690.0 7.8263e-05
17710.0 7.8285e-05
17730.0 7.8301e-05
17750.0 7.8309e-05
17770.0 7.8311e-05
17790.0 7.8308e-05
17810.0 7.8297e-05
17830.0 7.8279e-05
17850.0 7.8255e-05
17870.0 7.8225e-05
17890.0 7.8188e-05
17910.0 7.8144e-05
17930.0 7.8095e-05
17950.0 7.8038e-05
17970.0 7.7975e-05
17990.0 7.7906e-05
18010.0 7.7831e-05
18030.0 7.7748e-05
18050.0 7.766e-05
18070.0 7.7566e-05
18090.0 7.7465e-05
18110.0 7.7357e-05
18130.0 7.7244e-05
18150.0 7.7125e-05
18170.0 7.6999e-05
18190.0 7.6868e-05
18210.0 7.6731e-05
18230.0 7.6587e-05
18250.0 7.6438e-05
18270.0 7.6283e-05
18290.0 7.6122e-05
18310.0 7.5955e-05
18330.0 7.5783e-05
18350.0 7.5606e-05
18370.0 7.5423e-05
18390.0 7.5234e-05
18410.0 7.5041e-05
18430.0 7.4842e-05
18450.0 7.4637e-05
18470.0 7.4428e-05
18490.0 7.4214e-05
18510.0 7.3995e-05
18530.0 7.3771e-05
18550.0 7.3542e-05
18570.0 7.3309e-05
18590.0 7.307e-05
18610.0 7.2828e-05
18630.0 7.2581e-05
18650.0 7.2329e-05
18670.0 7.2074e-05
18690.0 7.1814e-05
18710.0 7.1551e-05
18730.0 7.1283e-05
18750.0 7.1011e-05
18770.0 7.0736e-05
18790.0 7.0457e-05
18810.0 7.0174e-05
18830.0 6.9888e-05
18850.0 6.9599e-05
18870.0 6.9306e-05
18890.0 6.901e-05
18910.0 6.8711e-05
18930.0 6.8409e-05
18950.0 6.8104e-05
18970.0 6.7796e-05
18990.0 6.7486e-05
19010.0 6.7172e-05
19030.0 6.6857e-05
19050.0 6.6539e-05
19070.0 6.6218e-05
19090.0 6.5895e-05
19110.0 6.5571e-05
19130.0 6.5244e-05
19150.0 6.4915e-05
19170.0 6.4584e-05
19190.0 6.4252e-05
19210.0 6.3917e-05
19230.0 6.3581e-05
19250.0 6.3244e-05
19270.0 6.2906e-05
19290.0 6.2565e-05
19310.0 6.2224e-05
19330.0 6.1882e-05
19350.0 6.1538e-05
19370.0 6.1193e-05
19390.0 6.0848e-05
19410.0 6.0502e-05
19430.0 6.0155e-05
19450.0 5.9807e-05
19470.0 5.9459e-05
19490.0 5.911e-05
19510.0 5.8761e-05
19530.0 5.8412e-05
19550.0 5.8062e-05
19570.0 5.7712e-05
19590.0 5.7362e-05
19610.0 5.7012e-05
19630.0 5.6661e-05
19650.0 5.6312e-05
19670.0 5.5962e-05
19690.0 5.5612e-05
19710.0 5.5263e-05
19730.0 5.4914e-05
19750.0 5.4565e-05
19770.0 5.4217e-05
19790.0 5.3869e-05
19810.0 5.3522e-05
19830.0 5.3174e-05
19850.0 5.2824e-05
19870.0 5.2471e-05
19890.0 5.2108e-05
19910.0 5.1726e-05
19930.0 5.1315e-05
19950.0 5.0861e-05
19970.0 5.0339e-05
19990.0 4.9736e-05
20010.0 4.9063e-05
20030.0 4.8292e-05
20050.0 4.743e-05
20070.0 4.6519e-05
20090.0 4.5569e-05
20110.0 4.4548e-05
20130.0 4.3538e-05
20150.0 4.2554e-05
20170.0 4.1566e-05
20190.0 4.0586e-05
20210.0 3.9662e-05
20230.0 3.8767e-05
20250.0 3.7879e-05
20270.0 3.7042e-05
20290.0 3.6257e-05
20310.0 3.5497e-05
20330.0 3.4764e-05
20350.0 3.4105e-05
20370.0 3.3482e-05
20390.0 3.2889e-05
20410.0 3.2345e-05
20430.0 3.1849e-05
20450.0 3.1378e-05
20470.0 3.0946e-05
20490.0 3.0556e-05
20510.0 3.0197e-05
20530.0 2.9863e-05
20550.0 2.956e-05
20570.0 2.9283e-05
20590.0 2.9024e-05
20610.0 2.8784e-05
20630.0 2.856e-05
20650.0 2.8348e-05
20670.0 2.8144e-05
20690.0 2.7947e-05
20710.0 2.7753e-05
20730.0 2.756e-05
20750.0 2.7365e-05
20770.0 2.7167e-05
20790.0 2.6963e-05
20810.0 2.6752e-05
20830.0 2.6533e-05
20850.0 2.6305e-05
20870.0 2.6066e-05
20890.0 2.5817e-05
20910.0 2.5561e-05
20930.0 2.5295e-05
20950.0 2.5018e-05
20970.0 2.4737e-05
20990.0 2.4452e-05
21010.0 2.4155e-05
21030.0 2.3856e-05
21050.0 2.3559e-05
21070.0 2.3258e-05
21090.0 2.2951e-05
21110.0 2.2653e-05
21130.0 2.2359e-05
21150.0 2.2062e-05
21170.0 2.1771e-05
21190.0 2.149e-05
21210.0 2.1208e-05
21230.0 2.093e-05
21250.0 2.0664e-05
21270.0 2.0405e-05
21290.0 2.0149e-05
21310.0 1.9902e-05
21330.0 1.9668e-05
21350.0 1.9438e-05
21370.0 1.9215e-05
21390.0 1.9003e-05
21410.0 1.8801e-05
21430.0 1.8603e-05
21450.0 1.8417e-05
21470.0 1.8242e-05
21490.0 1.8073e-05
21510.0 1.7913e-05
21530.0 1.7762e-05
21550.0 1.7619e-05
21570.0 1.7482e-05
21590.0 1.7352e-05
21610.0 1.7229e-05
21630.0 1.711e-05
21650.0 1.6997e-05
21670.0 1.6888e-05
21690.0 1.6783e-05
21710.0 1.6681e-05
21730.0 1.6581e-05
21750.0 1.6484e-05
21770.0 1.6389e-05
21790.0 1.6296e-05
21810.0 1.6205e-05
21830.0 1.6114e-05
21850.0 1.6026e-05
21870.0 1.5938e-05
21890.0 1.5851e-05
21910.0 1.5765e-05
21930.0 1.568e-05
21950.0 1.5595e-05
21970.0 1.5511e-05
21990.0 1.5426e-05
22010.0 1.5341e-05
22030.0 1.5255e-05
22050.0 1.5168e-05
22070.0 1.508e-05
22090.0 1.4991e-05
22110.0 1.4899e-05
22130.0 1.4806e-05
22150.0 1.4711e-05
22170.0 1.4613e-05
22190.0 1.4513e-05
22210.0 1.4411e-05
22230.0 1.4307e-05
22250.0 1.4201e-05
22270.0 1.4092e-05
22290.0 1.3981e-05
22310.0 1.3868e-05
22330.0 1.3749e-05
22350.0 1.3629e-05
22370.0 1.3506e-05
22390.0 1.3378e-05
22410.0 1.3243e-05
22430.0 1.3108e-05
22450.0 1.2968e-05
22470.0 1.2819e-05
22490.0 1.2667e-05
22510.0 1.2512e-05
22530.0 1.2349e-05
22550.0 1.2179e-05
22570.0 1.2009e-05
22590.0 1.1835e-05
22610.0 1.1655e-05
22630.0 1.1474e-05
