#lamb flux
1010.0 0.00015412
1030.0 0.00015412
1050.0 0.00015412
1070.0 0.00015412
1090.0 0.00015412
1110.0 0.00015412
1130.0 0.00015412
1150.0 0.00015412
1170.0 0.00015412
1190.0 0.00015412
1210.0 0.00015412
1230.0 0.00015412
1250.0 0.00015412
1270.0 0.00015412
1290.0 0.00015412
1310.0 0.00015412
1330.0 0.00015412
1350.0 0.00015412
1370.0 0.00015412
1390.0 0.00015412
1410.0 0.00015412
1430.0 0.00015412
1450.0 0.00017091
1470.0 0.00019424
1490.0 0.00022051
1510.0 0.00025021
1530.0 0.0002825
1550.0 0.00031782
1570.0 0.00035689
1590.0 0.00039969
1610.0 0.00044566
1630.0 0.00049537
1650.0 0.00054995
1670.0 0.00060878
1690.0 0.00067233
1710.0 0.00074176
1730.0 0.00081676
1750.0 0.00089595
1770.0 0.00098111
1790.0 0.0010721
1810.0 0.0011674
1830.0 0.0012668
1850.0 0.0013722
1870.0 0.0014804
1890.0 0.0015904
1910.0 0.0017029
1930.0 0.0018173
1950.0 0.00193
1970.0 0.0020409
1990.0 0.0021509
2010.0 0.0022569
2030.0 0.0023568
2050.0 0.0024524
2070.0 0.0025426
2090.0 0.0026229
2110.0 0.0026951
2130.0 0.0027601
2150.0 0.0028154
2170.0 0.0028595
2190.0 0.0028963
2210.0 0.0029243
2230.0 0.0029417
2250.0 0.0029507
2270.0 0.0029537
2290.0 0.002948
2310.0 0.002934
2330.0 0.0029154
2350.0 0.002892
2370.0 0.0028626
2390.0 0.0028302
2410.0 0.0027971
2430.0 0.0027611
2450.0 0.0027238
2470.0 0.0026883
2490.0 0.0026555
2510.0 0.0026249
2530.0 0.0026041
2550.0 0.0026034
2570.0 0.0026315
2590.0 0.0026997
2610.0 0.0028392
2630.0 0.0030562
2650.0 0.0033384
2670.0 0.0036951
2690.0 0.0041225
2710.0 0.0045711
2730.0 0.0050218
2750.0 0.0054993
2770.0 0.0059728
2790.0 0.00643
2810.0 0.006902
2830.0 0.0074163
2850.0 0.0079236
2870.0 0.0084517
2890.0 0.0090262
2910.0 0.0096296
2930.0 0.01024
2950.0 0.010901
2970.0 0.011609
2990.0 0.012332
3010.0 0.013085
3030.0 0.013894
3050.0 0.014733
3070.0 0.015556
3090.0 0.016392
3110.0 0.017196
3130.0 0.017901
3150.0 0.018479
3170.0 0.018889
3190.0 0.019077
3210.0 0.019005
3230.0 0.018755
3250.0 0.018661
3270.0 0.018915
3290.0 0.019414
3310.0 0.020034
3330.0 0.0208
3350.0 0.021663
3370.0 0.022635
3390.0 0.02377
3410.0 0.024847
3430.0 0.026527
3450.0 0.027867
3470.0 0.029272
3490.0 0.030463
3510.0 0.031908
3530.0 0.036689
3550.0 0.043371
3570.0 0.047451
3590.0 0.049234
3610.0 0.049417
3630.0 0.047902
3650.0 0.051767
3670.0 0.061571
3690.0 0.06933
3710.0 0.073451
3730.0 0.076886
3750.0 0.08066
3770.0 0.079999
3790.0 0.075782
3810.0 0.070958
3830.0 0.066104
3850.0 0.065642
3870.0 0.071057
3890.0 0.076683
3910.0 0.080565
3930.0 0.083022
3950.0 0.090322
3970.0 0.097119
3990.0 0.092811
4010.0 0.081652
4030.0 0.071522
4050.0 0.068488
4070.0 0.070217
4090.0 0.070237
4110.0 0.068687
4130.0 0.067549
4150.0 0.06825
4170.0 0.074367
4190.0 0.081666
4210.0 0.08075
4230.0 0.076385
4250.0 0.074459
4270.0 0.07441
4290.0 0.077595
4310.0 0.081001
4330.0 0.077116
4350.0 0.066904
4370.0 0.058573
4390.0 0.05264
4410.0 0.047594
4430.0 0.047313
4450.0 0.051354
4470.0 0.054915
4490.0 0.059647
4510.0 0.068245
4530.0 0.086333
4550.0 0.1097
4570.0 0.12368
4590.0 0.13185
4610.0 0.14481
4630.0 0.15412
4650.0 0.14416
4670.0 0.1182
4690.0 0.096717
4710.0 0.08793
4730.0 0.085348
4750.0 0.078683
4770.0 0.07297
4790.0 0.076667
4810.0 0.083832
4830.0 0.084657
4850.0 0.079109
4870.0 0.076761
4890.0 0.081882
4910.0 0.087104
4930.0 0.087753
4950.0 0.084731
4970.0 0.079423
4990.0 0.071799
5010.0 0.065004
5030.0 0.061051
5050.0 0.059229
5070.0 0.057768
5090.0 0.056063
5110.0 0.055572
5130.0 0.055911
5150.0 0.058529
5170.0 0.065046
5190.0 0.073338
5210.0 0.082595
5230.0 0.088398
5250.0 0.091183
5270.0 0.095793
5290.0 0.10129
5310.0 0.10309
5330.0 0.098824
5350.0 0.092904
5370.0 0.092274
5390.0 0.098382
5410.0 0.10615
5430.0 0.11071
5450.0 0.11126
5470.0 0.10828
5490.0 0.10358
5510.0 0.1003
5530.0 0.099255
5550.0 0.099409
5570.0 0.099148
5590.0 0.09627
5610.0 0.09136
5630.0 0.084853
5650.0 0.07807
5670.0 0.07376
5690.0 0.071362
5710.0 0.069894
5730.0 0.069812
5750.0 0.068774
5770.0 0.066995
5790.0 0.066826
5810.0 0.066973
5830.0 0.067356
5850.0 0.067471
5870.0 0.065775
5890.0 0.062621
5910.0 0.05856
5930.0 0.05255
5950.0 0.04759
5970.0 0.046209
5990.0 0.047498
6010.0 0.04842
6030.0 0.046806
6050.0 0.045251
6070.0 0.046958
6090.0 0.050602
6110.0 0.052733
6130.0 0.051427
6150.0 0.048453
6170.0 0.046316
6190.0 0.044335
6210.0 0.041684
6230.0 0.038916
6250.0 0.037603
6270.0 0.038435
6290.0 0.039913
6310.0 0.042269
6330.0 0.045701
6350.0 0.049358
6370.0 0.051401
6390.0 0.051906
6410.0 0.052412
6430.0 0.052924
6450.0 0.053497
6470.0 0.054552
6490.0 0.0557
6510.0 0.0565
6530.0 0.056485
6550.0 0.055596
6570.0 0.053713
6590.0 0.051218
6610.0 0.049436
6630.0 0.048411
6650.0 0.046899
6670.0 0.044781
6690.0 0.042974
6710.0 0.042034
6730.0 0.041601
6750.0 0.040968
6770.0 0.040192
6790.0 0.039538
6810.0 0.038719
6830.0 0.038258
6850.0 0.038925
6870.0 0.039347
6890.0 0.038948
6910.0 0.038094
6930.0 0.037295
6950.0 0.036605
6970.0 0.035365
6990.0 0.034018
7010.0 0.033428
7030.0 0.033097
7050.0 0.032122
7070.0 0.03068
7090.0 0.030064
7110.0 0.030827
7130.0 0.032712
7150.0 0.034733
7170.0 0.03604
7190.0 0.035784
7210.0 0.034385
7230.0 0.033486
7250.0 0.033415
7270.0 0.033332
7290.0 0.033058
7310.0 0.033303
7330.0 0.034297
7350.0 0.035602
7370.0 0.036402
7390.0 0.036299
7410.0 0.035513
7430.0 0.034482
7450.0 0.033281
7470.0 0.031694
7490.0 0.030599
7510.0 0.029712
7530.0 0.029263
7550.0 0.029559
7570.0 0.030012
7590.0 0.030343
7610.0 0.030334
7630.0 0.030288
7650.0 0.030627
7670.0 0.031516
7690.0 0.032616
7710.0 0.033885
7730.0 0.034898
7750.0 0.036077
7770.0 0.036977
7790.0 0.03753
7810.0 0.037678
7830.0 0.037776
7850.0 0.03722
7870.0 0.035725
7890.0 0.034162
7910.0 0.033202
7930.0 0.032528
7950.0 0.031878
7970.0 0.031598
7990.0 0.031876
8010.0 0.030751
8030.0 0.030517
8050.0 0.030183
8070.0 0.029745
8090.0 0.029297
8110.0 0.029361
8130.0 0.0296
8150.0 0.029565
8170.0 0.029418
8190.0 0.028734
8210.0 0.027156
8230.0 0.025424
8250.0 0.02445
8270.0 0.02371
8290.0 0.022943
8310.0 0.02261
8330.0 0.022609
8350.0 0.022095
8370.0 0.021854
8390.0 0.022625
8410.0 0.023997
8430.0 0.025759
8450.0 0.027615
8470.0 0.028719
8490.0 0.029707
8510.0 0.030424
8530.0 0.031141
8550.0 0.031862
8570.0 0.032366
8590.0 0.03283
8610.0 0.033773
8630.0 0.034207
8650.0 0.033612
8670.0 0.033713
8690.0 0.034336
8710.0 0.034923
8730.0 0.034916
8750.0 0.034151
8770.0 0.0339
8790.0 0.033814
8810.0 0.033337
8830.0 0.031229
8850.0 0.028561
8870.0 0.026661
8890.0 0.025726
8910.0 0.024414
8930.0 0.022755
8950.0 0.021698
8970.0 0.021553
8990.0 0.021806
9010.0 0.021809
9030.0 0.021646
9050.0 0.021497
9070.0 0.021372
9090.0 0.021251
9110.0 0.021131
9130.0 0.021011
9150.0 0.020893
9170.0 0.020775
9190.0 0.020657
9210.0 0.02054
9230.0 0.020424
9250.0 0.020309
9270.0 0.020194
9290.0 0.020081
9310.0 0.019967
9330.0 0.019855
9350.0 0.019743
9370.0 0.019632
9390.0 0.019521
9410.0 0.019411
9430.0 0.0193
9450.0 0.019181
9470.0 0.019066
9490.0 0.018968
9510.0 0.018866
9530.0 0.018764
9550.0 0.01866
9570.0 0.018556
9590.0 0.018453
9610.0 0.01835
9630.0 0.018247
9650.0 0.018144
9670.0 0.018044
9690.0 0.017943
9710.0 0.017842
9730.0 0.017742
9750.0 0.017643
9770.0 0.017543
9790.0 0.017444
9810.0 0.017347
9830.0 0.017248
9850.0 0.017142
9870.0 0.017047
9890.0 0.016954
9910.0 0.016859
9930.0 0.016764
9950.0 0.01667
9970.0 0.016574
9990.0 0.016477
10010.0 0.016371
10030.0 0.016271
10050.0 0.016183
10070.0 0.016093
10090.0 0.016003
10110.0 0.015904
10130.0 0.015776
10150.0 0.015688
10170.0 0.015607
10190.0 0.015518
10210.0 0.015431
10230.0 0.015342
10250.0 0.015248
10270.0 0.015153
10290.0 0.015062
10310.0 0.014966
10330.0 0.014867
10350.0 0.014773
10370.0 0.014679
10390.0 0.01458
10410.0 0.014482
10430.0 0.014389
10450.0 0.014291
10470.0 0.014191
10490.0 0.014095
10510.0 0.013999
10530.0 0.013895
10550.0 0.013795
10570.0 0.013698
10590.0 0.013597
10610.0 0.013493
10630.0 0.013394
10650.0 0.013294
10670.0 0.013188
10690.0 0.013084
10710.0 0.012983
10730.0 0.012877
10750.0 0.012767
10770.0 0.012664
10790.0 0.012559
10810.0 0.01245
10830.0 0.012342
10850.0 0.012237
10870.0 0.012125
10890.0 0.012012
10910.0 0.011905
10930.0 0.011796
10950.0 0.011683
10970.0 0.011575
10990.0 0.011472
11010.0 0.011136
11030.0 0.011029
11050.0 0.010928
11070.0 0.010829
11090.0 0.010728
11110.0 0.010634
11130.0 0.010545
11150.0 0.010456
11170.0 0.010372
11190.0 0.010296
11210.0 0.010223
11230.0 0.010154
11250.0 0.010092
11270.0 0.010037
11290.0 0.0099856
11310.0 0.0099391
11330.0 0.0098996
11350.0 0.0098628
11370.0 0.0098284
11390.0 0.0097973
11410.0 0.009768
11430.0 0.0097377
11450.0 0.0097076
11470.0 0.0096771
11490.0 0.0096441
11510.0 0.0096072
11530.0 0.0095685
11550.0 0.0095262
11570.0 0.009478
11590.0 0.0094252
11610.0 0.009369
11630.0 0.0093053
11650.0 0.0092338
11670.0 0.0091594
11690.0 0.009079
11710.0 0.0089896
11730.0 0.0088947
11750.0 0.0087976
11770.0 0.0086912
11790.0 0.0085776
11810.0 0.0084624
11830.0 0.0083431
11850.0 0.0082136
11870.0 0.0080845
11890.0 0.0079574
11910.0 0.0078254
11930.0 0.0076919
11950.0 0.0075643
11970.0 0.0074374
11990.0 0.0073084
12010.0 0.0071863
12030.0 0.0070707
12050.0 0.0069564
12070.0 0.006845
12090.0 0.0067451
12110.0 0.0066489
12130.0 0.006556
12150.0 0.0064709
12170.0 0.0063939
12190.0 0.0063193
12210.0 0.0062524
12230.0 0.0061947
12250.0 0.0061435
12270.0 0.0060987
12290.0 0.0060624
12310.0 0.0060339
12330.0 0.0060114
12350.0 0.0059955
12370.0 0.0059855
12390.0 0.0059804
12410.0 0.0059802
12430.0 0.0059829
12450.0 0.0059879
12470.0 0.0059952
12490.0 0.0060036
12510.0 0.0060114
12530.0 0.0060194
12550.0 0.0060268
12570.0 0.0060318
12590.0 0.0060343
12610.0 0.0060343
12630.0 0.0060302
12650.0 0.0060217
12670.0 0.0060084
12690.0 0.0059897
12710.0 0.0059657
12730.0 0.0059365
12750.0 0.0059003
12770.0 0.0058589
12790.0 0.0058134
12810.0 0.0057626
12830.0 0.0057065
12850.0 0.0056493
12870.0 0.0055902
12890.0 0.0055275
12910.0 0.0054648
12930.0 0.0054037
12950.0 0.005341
12970.0 0.0052783
12990.0 0.0052195
13010.0 0.0051621
13030.0 0.005105
13050.0 0.0050505
13070.0 0.0049995
13090.0 0.0049486
13110.0 0.0048993
13130.0 0.0048533
13150.0 0.0048091
13170.0 0.004765
13190.0 0.0047242
13210.0 0.0046863
13230.0 0.0046494
13250.0 0.0046142
13270.0 0.0045819
13290.0 0.004551
13310.0 0.0045206
13330.0 0.0044922
13350.0 0.004465
13370.0 0.0044377
13390.0 0.0044102
13410.0 0.0043836
13430.0 0.0043561
13450.0 0.0043271
13470.0 0.0042974
13490.0 0.0042671
13510.0 0.0042336
13530.0 0.0041988
13550.0 0.0041634
13570.0 0.0041261
13590.0 0.0040864
13610.0 0.0040464
13630.0 0.0040064
13650.0 0.0039641
13670.0 0.0039214
13690.0 0.0038797
13710.0 0.0038373
13730.0 0.003793
13750.0 0.0037511
13770.0 0.0037098
13790.0 0.0036676
13810.0 0.003626
13830.0 0.0035865
13850.0 0.0035464
13870.0 0.0035062
13890.0 0.0034681
13910.0 0.0034313
13930.0 0.0033941
13950.0 0.0033584
13970.0 0.0033257
13990.0 0.0032933
14010.0 0.0032618
14030.0 0.0032327
14050.0 0.003205
14070.0 0.0031772
14090.0 0.0031513
14110.0 0.0031271
14130.0 0.0031032
14150.0 0.0030798
14170.0 0.0030582
14190.0 0.0030373
14210.0 0.0030163
14230.0 0.0029963
14250.0 0.0029774
14270.0 0.0029584
14290.0 0.0029397
14310.0 0.0029225
14330.0 0.0029057
14350.0 0.002889
14370.0 0.0028731
14390.0 0.0028582
14410.0 0.0028432
14430.0 0.0028287
14450.0 0.0028151
14470.0 0.0028019
14490.0 0.0027885
14510.0 0.0027759
14530.0 0.0027639
14550.0 0.0027516
14570.0 0.0027393
14590.0 0.0027273
14610.0 0.0027149
14630.0 0.0027015
14650.0 0.0026883
14670.0 0.0026752
14690.0 0.0026615
14710.0 0.0026479
14730.0 0.002636
14750.0 0.0026252
14770.0 0.0026162
14790.0 0.0026102
14810.0 0.0026078
14830.0 0.0026095
14850.0 0.0026162
14870.0 0.0026278
14890.0 0.0026444
14910.0 0.0026661
14930.0 0.0026905
14950.0 0.0027163
14970.0 0.0027432
14990.0 0.0027682
15010.0 0.0027894
15030.0 0.0028073
15050.0 0.0028214
15070.0 0.0028313
15090.0 0.0028386
15110.0 0.002844
15130.0 0.0028483
15150.0 0.0028519
15170.0 0.0028553
15190.0 0.0028585
15210.0 0.0028618
15230.0 0.0028652
15250.0 0.0028686
15270.0 0.0028722
15290.0 0.0028758
15310.0 0.0028796
15330.0 0.0028834
15350.0 0.0028873
15370.0 0.0028914
15390.0 0.0028954
15410.0 0.0028996
15430.0 0.0029039
15450.0 0.0029082
15470.0 0.0029126
15490.0 0.0029172
15510.0 0.0029218
15530.0 0.0029265
15550.0 0.0029313
15570.0 0.0029362
15590.0 0.0029411
15610.0 0.002946
15630.0 0.0029511
15650.0 0.0029563
15670.0 0.0029615
15690.0 0.0029668
15710.0 0.0029722
15730.0 0.0029776
15750.0 0.002983
15770.0 0.0029886
15790.0 0.0029942
15810.0 0.0029998
15830.0 0.0030056
15850.0 0.0030114
15870.0 0.0030173
15890.0 0.0030231
15910.0 0.0030291
15930.0 0.0030351
15950.0 0.0030411
15970.0 0.0030473
15990.0 0.0030534
16010.0 0.0030596
16030.0 0.0030658
16050.0 0.0030721
16070.0 0.0030784
16090.0 0.0030848
16110.0 0.0030912
16130.0 0.0030976
16150.0 0.003104
16170.0 0.0031105
16190.0 0.003117
16210.0 0.0031235
16230.0 0.00313
16250.0 0.0031366
16270.0 0.0031433
16290.0 0.0031499
16310.0 0.0031565
16330.0 0.0031632
16350.0 0.0031698
16370.0 0.0031764
16390.0 0.0031831
16410.0 0.0031898
16430.0 0.0031964
16450.0 0.0032031
16470.0 0.0032098
16490.0 0.0032165
16510.0 0.0032231
16530.0 0.0032298
16550.0 0.0032365
16570.0 0.0032431
16590.0 0.0032497
16610.0 0.0032563
16630.0 0.0032629
16650.0 0.0032694
16670.0 0.003276
16690.0 0.0032826
16710.0 0.003289
16730.0 0.0032954
16750.0 0.0033019
16770.0 0.0033083
16790.0 0.0033146
16810.0 0.0033209
16830.0 0.0033272
16850.0 0.0033334
16870.0 0.0033396
16890.0 0.0033458
16910.0 0.0033518
16930.0 0.0033578
16950.0 0.0033638
16970.0 0.0033697
16990.0 0.0033755
17010.0 0.0033813
17030.0 0.0033871
17050.0 0.0033927
17070.0 0.0033983
17090.0 0.0034038
17110.0 0.0034093
17130.0 0.0034146
17150.0 0.0034199
17170.0 0.0034251
17190.0 0.0034302
17210.0 0.0034352
17230.0 0.0034402
17250.0 0.003445
17270.0 0.0034497
17290.0 0.0034544
17310.0 0.003459
17330.0 0.0034634
17350.0 0.0034677
17370.0 0.003472
17390.0 0.0034762
17410.0 0.0034802
17430.0 0.0034841
17450.0 0.003488
17470.0 0.0034916
17490.0 0.0034951
17510.0 0.0034986
17530.0 0.003502
17550.0 0.0035051
17570.0 0.0035082
17590.0 0.0035112
17610.0 0.003514
17630.0 0.0035167
17650.0 0.0035193
17670.0 0.0035217
17690.0 0.0035238
17710.0 0.003526
17730.0 0.003528
17750.0 0.0035298
17770.0 0.0035315
17790.0 0.0035332
17810.0 0.0035345
17830.0 0.0035357
17850.0 0.0035369
17870.0 0.0035378
17890.0 0.0035386
17910.0 0.0035392
17930.0 0.0035397
17950.0 0.00354
17970.0 0.0035401
17990.0 0.0035401
18010.0 0.00354
18030.0 0.0035396
18050.0 0.003539
18070.0 0.0035384
18090.0 0.0035375
18110.0 0.0035365
18130.0 0.0035353
18150.0 0.003534
18170.0 0.0035324
18190.0 0.0035307
18210.0 0.0035288
18230.0 0.0035267
18250.0 0.0035244
18270.0 0.003522
18290.0 0.0035194
18310.0 0.0035166
18330.0 0.0035137
18350.0 0.0035106
18370.0 0.0035072
18390.0 0.0035037
18410.0 0.0035
18430.0 0.0034962
18450.0 0.003492
18470.0 0.0034878
18490.0 0.0034834
18510.0 0.0034788
18530.0 0.003474
18550.0 0.0034691
18570.0 0.003464
18590.0 0.0034586
18610.0 0.0034531
18630.0 0.0034474
18650.0 0.0034415
18670.0 0.0034354
18690.0 0.0034292
18710.0 0.0034228
18730.0 0.0034161
18750.0 0.0034094
18770.0 0.0034025
18790.0 0.0033953
18810.0 0.0033879
18830.0 0.0033805
18850.0 0.0033728
18870.0 0.0033649
18890.0 0.0033569
18910.0 0.0033488
18930.0 0.0033404
18950.0 0.0033318
18970.0 0.0033232
18990.0 0.0033143
19010.0 0.0033051
19030.0 0.003296
19050.0 0.0032867
19070.0 0.0032771
19090.0 0.0032674
19110.0 0.0032576
19130.0 0.0032475
19150.0 0.0032373
19170.0 0.003227
19190.0 0.0032166
19210.0 0.0032059
19230.0 0.0031951
19250.0 0.0031842
19270.0 0.0031731
19290.0 0.0031618
19310.0 0.0031505
19330.0 0.003139
19350.0 0.0031273
19370.0 0.0031155
19390.0 0.0031036
19410.0 0.0030915
19430.0 0.0030793
19450.0 0.003067
19470.0 0.0030546
19490.0 0.003042
19510.0 0.0030293
19530.0 0.0030165
19550.0 0.0030035
19570.0 0.0029904
19590.0 0.0029773
19610.0 0.002964
19630.0 0.0029506
19650.0 0.0029371
19670.0 0.0029236
19690.0 0.0029098
19710.0 0.002896
19730.0 0.0028821
19750.0 0.0028681
19770.0 0.002854
19790.0 0.0028398
19810.0 0.0028256
19830.0 0.0028111
19850.0 0.0027965
19870.0 0.0027817
19890.0 0.0027664
19910.0 0.0027501
19930.0 0.0027326
19950.0 0.0027133
19970.0 0.0026911
19990.0 0.0026655
20010.0 0.002637
20030.0 0.0026043
20050.0 0.0025676
20070.0 0.0025288
20090.0 0.0024881
20110.0 0.0024441
20130.0 0.0024003
20150.0 0.0023573
20170.0 0.0023137
20190.0 0.00227
20210.0 0.0022282
20230.0 0.0021873
20250.0 0.0021461
20270.0 0.0021068
20290.0 0.0020693
20310.0 0.0020324
20330.0 0.0019961
20350.0 0.001963
20370.0 0.0019311
20390.0 0.0019001
20410.0 0.0018712
20430.0 0.0018445
20450.0 0.0018185
20470.0 0.0017943
20490.0 0.0017721
20510.0 0.0017514
20530.0 0.0017319
20550.0 0.001714
20570.0 0.0016977
20590.0 0.0016824
20610.0 0.0016682
20630.0 0.0016551
20650.0 0.0016429
20670.0 0.0016314
20690.0 0.0016205
20710.0 0.0016102
20730.0 0.0016001
20750.0 0.0015903
20770.0 0.0015805
20790.0 0.0015706
20810.0 0.0015605
20830.0 0.0015502
20850.0 0.0015394
20870.0 0.0015281
20890.0 0.0015162
20910.0 0.0015038
20930.0 0.0014906
20950.0 0.0014767
20970.0 0.0014622
20990.0 0.0014471
21010.0 0.0014311
21030.0 0.0014145
21050.0 0.0013975
21070.0 0.0013799
21090.0 0.0013615
21110.0 0.0013431
21130.0 0.0013245
21150.0 0.0013053
21170.0 0.001286
21190.0 0.001267
21210.0 0.0012476
21230.0 0.001228
21250.0 0.001209
21270.0 0.0011901
21290.0 0.0011711
21310.0 0.0011525
21330.0 0.0011346
21350.0 0.0011167
21370.0 0.0010991
21390.0 0.0010823
21410.0 0.0010658
21430.0 0.0010494
21450.0 0.0010338
21470.0 0.0010189
21490.0 0.0010043
21510.0 0.00099008
21530.0 0.00097664
21550.0 0.00096363
21570.0 0.00095091
21590.0 0.00093878
21610.0 0.00092716
21630.0 0.00091583
21650.0 0.0009048
21670.0 0.00089431
21690.0 0.00088406
21710.0 0.000874
21730.0 0.00086421
21750.0 0.00085467
21770.0 0.00084515
21790.0 0.00083576
21810.0 0.00082652
21830.0 0.00081731
21850.0 0.00080805
21870.0 0.00079885
21890.0 0.00078969
21910.0 0.00078041
21930.0 0.00077108
21950.0 0.00076178
21970.0 0.00075238
21990.0 0.00074278
22010.0 0.00073324
22030.0 0.00072368
22050.0 0.00071395
22070.0 0.00070415
22090.0 0.00069444
22110.0 0.0006846
22130.0 0.00067461
22150.0 0.0006647
22170.0 0.0006548
22190.0 0.00064469
22210.0 0.00063456
22230.0 0.00062463
22250.0 0.00061458
22270.0 0.00060444
22290.0 0.00059444
22310.0 0.00058451
22330.0 0.00057436
22350.0 0.00056431
22370.0 0.00055443
22390.0 0.00054448
22410.0 0.00053442
22430.0 0.00052465
22450.0 0.00051495
22470.0 0.00050514
22490.0 0.00049546
22510.0 0.00048602
22530.0 0.00047648
22550.0 0.00046696
22570.0 0.00045776
22590.0 0.00044869
22610.0 0.00043963
22630.0 0.00043079
22650.0 0.00042232
22670.0 0.00041389
22690.0 0.00040564
22710.0 0.00039775
22730.0 0.00039012
22750.0 0.00038255
22770.0 0.00037539
22790.0 0.00036859
22810.0 0.00036198
22830.0 0.00035564
22850.0 0.00034967
22870.0 0.00034396
22890.0 0.00033845
22910.0 0.00033327
22930.0 0.00032839
22950.0 0.00032373
22970.0 0.0003193
22990.0 0.00031517
23010.0 0.00031124
23030.0 0.00030749
23050.0 0.00030393
23070.0 0.00030051
23090.0 0.00029721
23110.0 0.00029399
23130.0 0.00029081
23150.0 0.00028766
23170.0 0.00028448
23190.0 0.00028125
23210.0 0.00027795
23230.0 0.00027455
23250.0 0.00027102
23270.0 0.00026737
23290.0 0.00026357
23310.0 0.00025956
23330.0 0.00025544
23350.0 0.00025117
23370.0 0.00024671
23390.0 0.00024211
23410.0 0.00023746
23430.0 0.00023267
23450.0 0.00022772
23470.0 0.0002228
23490.0 0.00021788
23510.0 0.00021289
23530.0 0.00020797
23550.0 0.00020325
23570.0 0.0001986
23590.0 0.00019407
23610.0 0.00018981
23630.0 0.00018579
23650.0 0.00018197
23670.0 0.0001785
23690.0 0.00017538
23710.0 0.00017263
23730.0 0.0001703
23750.0 0.0001684
23770.0 0.00016691
23790.0 0.00016593
23810.0 0.00016539
23830.0 0.00016519
23850.0 0.00016552
23870.0 0.0001663
23890.0 0.00016727
23910.0 0.00016853
23930.0 0.00017014
23950.0 0.00017185
23970.0 0.00017347
23990.0 0.00017528
24010.0 0.00017706
24030.0 0.00017857
24050.0 0.0001799
24070.0 0.00018121
24090.0 0.00018206
24110.0 0.00018251
24130.0 0.00018275
