#lamb flux
1010.0 1.0666e-06
1030.0 1.0711e-06
1050.0 1.0759e-06
1070.0 1.1012e-06
1090.0 1.1705e-06
1110.0 1.2244e-06
1130.0 1.2628e-06
1150.0 1.2937e-06
1170.0 1.3162e-06
1190.0 1.3228e-06
1210.0 1.3242e-06
1230.0 1.3238e-06
1250.0 1.3182e-06
1270.0 1.3081e-06
1290.0 1.3015e-06
1310.0 1.2945e-06
1330.0 1.2853e-06
1350.0 1.279e-06
1370.0 1.2775e-06
1390.0 1.2782e-06
1410.0 1.2822e-06
1430.0 1.2947e-06
1450.0 1.3142e-06
1470.0 1.3403e-06
1490.0 1.3765e-06
1510.0 1.4266e-06
1530.0 1.4864e-06
1550.0 1.5596e-06
1570.0 1.6506e-06
1590.0 1.7596e-06
1610.0 1.8866e-06
1630.0 2.039e-06
1650.0 2.2185e-06
1670.0 2.4246e-06
1690.0 2.6615e-06
1710.0 2.9364e-06
1730.0 3.2508e-06
1750.0 3.6025e-06
1770.0 4.0024e-06
1790.0 4.4539e-06
1810.0 4.9546e-06
1830.0 5.5078e-06
1850.0 6.1256e-06
1870.0 6.7986e-06
1890.0 7.5246e-06
1910.0 8.3101e-06
1930.0 9.1547e-06
1950.0 1.0041e-05
1970.0 1.0968e-05
1990.0 1.1941e-05
2010.0 1.2938e-05
2030.0 1.3946e-05
2050.0 1.4968e-05
2070.0 1.5994e-05
2090.0 1.6989e-05
2110.0 1.7956e-05
2130.0 1.8893e-05
2150.0 1.9775e-05
2170.0 2.0585e-05
2190.0 2.1341e-05
2210.0 2.2027e-05
2230.0 2.2623e-05
2250.0 2.3138e-05
2270.0 2.3588e-05
2290.0 2.3949e-05
2310.0 2.4219e-05
2330.0 2.4427e-05
2350.0 2.4572e-05
2370.0 2.4642e-05
2390.0 2.4665e-05
2410.0 2.4664e-05
2430.0 2.4623e-05
2450.0 2.4559e-05
2470.0 2.4503e-05
2490.0 2.4468e-05
2510.0 2.4446e-05
2530.0 2.4505e-05
2550.0 2.4734e-05
2570.0 2.52e-05
2590.0 2.6e-05
2610.0 2.7408e-05
2630.0 2.9471e-05
2650.0 3.2075e-05
2670.0 3.5301e-05
2690.0 3.9113e-05
2710.0 4.3073e-05
2730.0 4.7018e-05
2750.0 5.116e-05
2770.0 5.5235e-05
2790.0 5.9137e-05
2810.0 6.3132e-05
2830.0 6.7446e-05
2850.0 7.1651e-05
2870.0 7.5975e-05
2890.0 8.0631e-05
2910.0 8.5461e-05
2930.0 9.0278e-05
2950.0 9.5453e-05
2970.0 0.00010094
2990.0 0.00010649
3010.0 0.00011222
3030.0 0.00011835
3050.0 0.00012467
3070.0 0.00013084
3090.0 0.00013712
3110.0 0.00014323
3130.0 0.0001487
3150.0 0.00015337
3170.0 0.0001571
3190.0 0.00015971
3210.0 0.00016158
3230.0 0.00016313
3250.0 0.00016496
3270.0 0.00016774
3290.0 0.00017185
3310.0 0.00017763
3330.0 0.00018491
3350.0 0.00019322
3370.0 0.00020241
3390.0 0.00021186
3410.0 0.00022147
3430.0 0.00024092
3450.0 0.00025531
3470.0 0.00026802
3490.0 0.00027212
3510.0 0.00026856
3530.0 0.00030431
3550.0 0.00036201
3570.0 0.000398
3590.0 0.00042531
3610.0 0.00042889
3630.0 0.00040683
3650.0 0.00043724
3670.0 0.00052301
3690.0 0.0005877
3710.0 0.00061364
3730.0 0.00062817
3750.0 0.00066085
3770.0 0.00066236
3790.0 0.00063484
3810.0 0.00059751
3830.0 0.00055732
3850.0 0.00055577
3870.0 0.00058972
3890.0 0.00062301
3910.0 0.00064879
3930.0 0.00065659
3950.0 0.00070066
3970.0 0.00074853
3990.0 0.00072112
4010.0 0.00064415
4030.0 0.00057208
4050.0 0.0005507
4070.0 0.0005733
4090.0 0.00057794
4110.0 0.00056171
4130.0 0.00055462
4150.0 0.00056933
4170.0 0.00062846
4190.0 0.00068057
4210.0 0.00065925
4230.0 0.00061536
4250.0 0.00059171
4270.0 0.00057827
4290.0 0.00058853
4310.0 0.00060616
4330.0 0.00057727
4350.0 0.00050781
4370.0 0.00044953
4390.0 0.00040953
4410.0 0.00037805
4430.0 0.00037819
4450.0 0.00041138
4470.0 0.00044482
4490.0 0.0004841
4510.0 0.00054764
4530.0 0.00066996
4550.0 0.00080863
4570.0 0.00089188
4590.0 0.00095374
4610.0 0.0010255
4630.0 0.0010602
4650.0 0.00098764
4670.0 0.00082857
4690.0 0.00070427
4710.0 0.00066157
4730.0 0.0006395
4750.0 0.00057306
4770.0 0.00051998
4790.0 0.00054001
4810.0 0.00058685
4830.0 0.00058433
4850.0 0.00053866
4870.0 0.00052762
4890.0 0.00055045
4910.0 0.00057587
4930.0 0.00057521
4950.0 0.00055928
4970.0 0.00053273
4990.0 0.00048966
5010.0 0.00044972
5030.0 0.00042705
5050.0 0.00041655
5070.0 0.00040948
5090.0 0.00040292
5110.0 0.00040233
5130.0 0.00040853
5150.0 0.00043147
5170.0 0.00047648
5190.0 0.00053112
5210.0 0.00058895
5230.0 0.00062504
5250.0 0.00064439
5270.0 0.00067861
5290.0 0.00071205
5310.0 0.00072101
5330.0 0.00069529
5350.0 0.0006651
5370.0 0.00066628
5390.0 0.0007034
5410.0 0.00073944
5430.0 0.00075277
5450.0 0.00074967
5470.0 0.00072906
5490.0 0.00070335
5510.0 0.00069086
5530.0 0.00069498
5550.0 0.00070652
5570.0 0.00071461
5590.0 0.00069457
5610.0 0.00065602
5630.0 0.00061809
5650.0 0.00058843
5670.0 0.00057057
5690.0 0.0005484
5710.0 0.00053158
5730.0 0.00054025
5750.0 0.00053997
5770.0 0.00052955
5790.0 0.00053509
5810.0 0.00054832
5830.0 0.00056082
5850.0 0.0005659
5870.0 0.00055509
5890.0 0.0005322
5910.0 0.00050582
5930.0 0.00046788
5950.0 0.00044084
5970.0 0.00044091
5990.0 0.00045551
6010.0 0.00046094
6030.0 0.00044465
6050.0 0.00043798
6070.0 0.00045487
6090.0 0.00047741
6110.0 0.0004858
6130.0 0.00046919
6150.0 0.00044185
6170.0 0.00042386
6190.0 0.00040607
6210.0 0.00038705
6230.0 0.00037259
6250.0 0.00036815
6270.0 0.00037767
6290.0 0.00039477
6310.0 0.00041675
6330.0 0.00044086
6350.0 0.00046089
6370.0 0.00046986
6390.0 0.00047079
6410.0 0.00047572
6430.0 0.00048156
6450.0 0.00048317
6470.0 0.00048938
6490.0 0.00049687
6510.0 0.00049893
6530.0 0.00049359
6550.0 0.00047962
6570.0 0.000462
6590.0 0.00044853
6610.0 0.00043857
6630.0 0.00042983
6650.0 0.00041504
6670.0 0.00039751
6690.0 0.00038439
6710.0 0.00037626
6730.0 0.00037375
6750.0 0.00036917
6770.0 0.00036176
6790.0 0.00035615
6810.0 0.00035166
6830.0 0.00035074
6850.0 0.00035101
6870.0 0.00034829
6890.0 0.00034611
6910.0 0.00033886
6930.0 0.00033095
6950.0 0.00032911
6970.0 0.00032356
6990.0 0.00031347
7010.0 0.00030867
7030.0 0.0003048
7050.0 0.00029794
7070.0 0.00028981
7090.0 0.00028403
7110.0 0.00028701
7130.0 0.00029818
7150.0 0.00031094
7170.0 0.00031917
7190.0 0.00031677
7210.0 0.00031063
7230.0 0.0003066
7250.0 0.00030254
7270.0 0.00029992
7290.0 0.00029605
7310.0 0.00029415
7330.0 0.00029925
7350.0 0.00030511
7370.0 0.00030823
7390.0 0.00030521
7410.0 0.00029775
7430.0 0.00029413
7450.0 0.00029082
7470.0 0.00027667
7490.0 0.00026636
7510.0 0.00025504
7530.0 0.00024658
7550.0 0.00024526
7570.0 0.00024788
7590.0 0.00024615
7610.0 0.00024344
7630.0 0.00024213
7650.0 0.00024087
7670.0 0.00024519
7690.0 0.00025382
7710.0 0.00026407
7730.0 0.00027178
7750.0 0.00027929
7770.0 0.00028286
7790.0 0.00028183
7810.0 0.00027724
7830.0 0.00027988
7850.0 0.00027915
7870.0 0.00026979
7890.0 0.00025979
7910.0 0.00025126
7930.0 0.00024261
7950.0 0.00023651
7970.0 0.00023534
7990.0 0.000238
8010.0 0.00023512
8030.0 0.00023213
8050.0 0.00022789
8070.0 0.00022327
8090.0 0.00021847
8110.0 0.00021849
8130.0 0.00021992
8150.0 0.00021929
8170.0 0.00021743
8190.0 0.00021266
8210.0 0.00020166
8230.0 0.00018782
8250.0 0.00017923
8270.0 0.0001737
8290.0 0.00017016
8310.0 0.00017045
8330.0 0.00017296
8350.0 0.00016902
8370.0 0.0001649
8390.0 0.00016768
8410.0 0.00017512
8430.0 0.00018609
8450.0 0.0001967
8470.0 0.00020084
8490.0 0.00020403
8510.0 0.00020472
8530.0 0.0002056
8550.0 0.00020776
8570.0 0.00020859
8590.0 0.00020936
8610.0 0.00021488
8630.0 0.00021694
8650.0 0.00021215
8670.0 0.00021177
8690.0 0.00021315
8710.0 0.00021255
8730.0 0.0002105
8750.0 0.00020432
8770.0 0.00020144
8790.0 0.0001997
8810.0 0.00019707
8830.0 0.00018575
8850.0 0.00017072
8870.0 0.0001597
8890.0 0.00015339
8910.0 0.00014418
8930.0 0.00013407
8950.0 0.00012887
8970.0 0.00012805
8990.0 0.00012857
9010.0 0.00012787
9030.0 0.00012697
9050.0 0.00012613
9070.0 0.00012536
9090.0 0.0001246
9110.0 0.00012385
9130.0 0.00012309
9150.0 0.00012234
9170.0 0.00012159
9190.0 0.00012084
9210.0 0.00012009
9230.0 0.00011936
9250.0 0.00011862
9270.0 0.00011789
9290.0 0.00011716
9310.0 0.00011643
9330.0 0.0001157
9350.0 0.00011498
9370.0 0.00011426
9390.0 0.00011355
9410.0 0.00011284
9430.0 0.00011212
9450.0 0.00011139
9470.0 0.00011067
9490.0 0.00011
9510.0 0.00010932
9530.0 0.00010864
9550.0 0.00010795
9570.0 0.00010727
9590.0 0.00010659
9610.0 0.00010592
9630.0 0.00010524
9650.0 0.00010457
9670.0 0.00010391
9690.0 0.00010325
9710.0 0.00010259
9730.0 0.00010193
9750.0 0.00010128
9770.0 0.00010063
9790.0 9.9987e-05
9810.0 9.9347e-05
9830.0 9.8696e-05
9850.0 9.7975e-05
9870.0 9.7363e-05
9890.0 9.6764e-05
9910.0 9.6156e-05
9930.0 9.5533e-05
9950.0 9.4934e-05
9970.0 9.4319e-05
9990.0 9.3691e-05
10010.0 9.2991e-05
10030.0 9.2348e-05
10050.0 9.1787e-05
10070.0 9.1218e-05
10090.0 9.0647e-05
10110.0 9.0029e-05
10130.0 8.9285e-05
10150.0 8.8721e-05
10170.0 8.8183e-05
10190.0 8.7609e-05
10210.0 8.7046e-05
10230.0 8.6483e-05
10250.0 8.5892e-05
10270.0 8.5303e-05
10290.0 8.4734e-05
10310.0 8.4145e-05
10330.0 8.3539e-05
10350.0 8.2961e-05
10370.0 8.2387e-05
10390.0 8.1791e-05
10410.0 8.1201e-05
10430.0 8.0638e-05
10450.0 8.0054e-05
10470.0 7.946e-05
10490.0 7.8886e-05
10510.0 7.8315e-05
10530.0 7.7711e-05
10550.0 7.7122e-05
10570.0 7.6556e-05
10590.0 7.5971e-05
10610.0 7.5375e-05
10630.0 7.4804e-05
10650.0 7.423e-05
10670.0 7.3628e-05
10690.0 7.304e-05
10710.0 7.2466e-05
10730.0 7.1873e-05
10750.0 7.1262e-05
10770.0 7.0688e-05
10790.0 7.0105e-05
10810.0 6.9502e-05
10830.0 6.891e-05
10850.0 6.8337e-05
10870.0 6.7728e-05
10890.0 6.7122e-05
10910.0 6.6542e-05
10930.0 6.5961e-05
10950.0 6.5366e-05
10970.0 6.4798e-05
10990.0 6.4262e-05
11010.0 6.5537e-05
11030.0 6.5047e-05
11050.0 6.458e-05
11070.0 6.4108e-05
11090.0 6.3606e-05
11110.0 6.3126e-05
11130.0 6.2647e-05
11150.0 6.2151e-05
11170.0 6.1654e-05
11190.0 6.1184e-05
11210.0 6.0711e-05
11230.0 6.0239e-05
11250.0 5.9798e-05
11270.0 5.9381e-05
11290.0 5.8966e-05
11310.0 5.8573e-05
11330.0 5.8219e-05
11350.0 5.7873e-05
11370.0 5.7537e-05
11390.0 5.7224e-05
11410.0 5.6924e-05
11430.0 5.6614e-05
11450.0 5.631e-05
11470.0 5.6013e-05
11490.0 5.5702e-05
11510.0 5.5371e-05
11530.0 5.5038e-05
11550.0 5.469e-05
11570.0 5.4309e-05
11590.0 5.391e-05
11610.0 5.35e-05
11630.0 5.3053e-05
11650.0 5.2571e-05
11670.0 5.2087e-05
11690.0 5.1586e-05
11710.0 5.1051e-05
11730.0 5.0508e-05
11750.0 4.9975e-05
11770.0 4.9416e-05
11790.0 4.8846e-05
11810.0 4.8293e-05
11830.0 4.7742e-05
11850.0 4.7169e-05
11870.0 4.6618e-05
11890.0 4.6092e-05
11910.0 4.5561e-05
11930.0 4.5036e-05
11950.0 4.4542e-05
11970.0 4.4058e-05
11990.0 4.3572e-05
12010.0 4.3115e-05
12030.0 4.2684e-05
12050.0 4.2259e-05
12070.0 4.1848e-05
12090.0 4.1478e-05
12110.0 4.1124e-05
12130.0 4.0785e-05
12150.0 4.0476e-05
12170.0 4.02e-05
12190.0 3.9938e-05
12210.0 3.9708e-05
12230.0 3.9515e-05
12250.0 3.935e-05
12270.0 3.9215e-05
12290.0 3.9113e-05
12310.0 3.9041e-05
12330.0 3.8996e-05
12350.0 3.8977e-05
12370.0 3.8979e-05
12390.0 3.8998e-05
12410.0 3.9036e-05
12430.0 3.9078e-05
12450.0 3.9123e-05
12470.0 3.9169e-05
12490.0 3.9209e-05
12510.0 3.9233e-05
12530.0 3.9245e-05
12550.0 3.9237e-05
12570.0 3.9202e-05
12590.0 3.914e-05
12610.0 3.9046e-05
12630.0 3.8917e-05
12650.0 3.8757e-05
12670.0 3.8562e-05
12690.0 3.833e-05
12710.0 3.8071e-05
12730.0 3.7787e-05
12750.0 3.7462e-05
12770.0 3.712e-05
12790.0 3.6768e-05
12810.0 3.6394e-05
12830.0 3.6e-05
12850.0 3.5615e-05
12870.0 3.5227e-05
12890.0 3.4825e-05
12910.0 3.4429e-05
12930.0 3.4047e-05
12950.0 3.3655e-05
12970.0 3.3261e-05
12990.0 3.2888e-05
13010.0 3.2519e-05
13030.0 3.2146e-05
13050.0 3.1784e-05
13070.0 3.1441e-05
13090.0 3.1093e-05
13110.0 3.0751e-05
13130.0 3.0428e-05
13150.0 3.0116e-05
13170.0 2.9803e-05
13190.0 2.9512e-05
13210.0 2.9242e-05
13230.0 2.8979e-05
13250.0 2.8729e-05
13270.0 2.85e-05
13290.0 2.828e-05
13310.0 2.8066e-05
13330.0 2.7865e-05
13350.0 2.7676e-05
13370.0 2.7486e-05
13390.0 2.7298e-05
13410.0 2.712e-05
13430.0 2.694e-05
13450.0 2.6754e-05
13470.0 2.6569e-05
13490.0 2.6386e-05
13510.0 2.6189e-05
13530.0 2.5991e-05
13550.0 2.5795e-05
13570.0 2.5594e-05
13590.0 2.5385e-05
13610.0 2.5179e-05
13630.0 2.4976e-05
13650.0 2.4765e-05
13670.0 2.4553e-05
13690.0 2.4348e-05
13710.0 2.414e-05
13730.0 2.3923e-05
13750.0 2.3717e-05
13770.0 2.3512e-05
13790.0 2.3301e-05
13810.0 2.309e-05
13830.0 2.2887e-05
13850.0 2.2677e-05
13870.0 2.2462e-05
13890.0 2.2252e-05
13910.0 2.2043e-05
13930.0 2.1824e-05
13950.0 2.1606e-05
13970.0 2.1396e-05
13990.0 2.118e-05
14010.0 2.0958e-05
14030.0 2.0743e-05
14050.0 2.0529e-05
14070.0 2.0302e-05
14090.0 2.0082e-05
14110.0 1.9868e-05
14130.0 1.9651e-05
14150.0 1.9432e-05
14170.0 1.9226e-05
14190.0 1.9026e-05
14210.0 1.8825e-05
14230.0 1.8634e-05
14250.0 1.8457e-05
14270.0 1.8282e-05
14290.0 1.8114e-05
14310.0 1.7964e-05
14330.0 1.7822e-05
14350.0 1.7686e-05
14370.0 1.7561e-05
14390.0 1.7448e-05
14410.0 1.7337e-05
14430.0 1.7233e-05
14450.0 1.7138e-05
14470.0 1.7048e-05
14490.0 1.6957e-05
14510.0 1.6873e-05
14530.0 1.6795e-05
14550.0 1.6716e-05
14570.0 1.6639e-05
14590.0 1.6567e-05
14610.0 1.6495e-05
14630.0 1.6422e-05
14650.0 1.6353e-05
14670.0 1.6288e-05
14690.0 1.6223e-05
14710.0 1.6162e-05
14730.0 1.611e-05
14750.0 1.6064e-05
14770.0 1.6024e-05
14790.0 1.5997e-05
14810.0 1.5982e-05
14830.0 1.598e-05
14850.0 1.5995e-05
14870.0 1.6026e-05
14890.0 1.6074e-05
14910.0 1.6138e-05
14930.0 1.6211e-05
14950.0 1.629e-05
14970.0 1.6373e-05
14990.0 1.645e-05
15010.0 1.6516e-05
15030.0 1.6571e-05
15050.0 1.6614e-05
15070.0 1.6644e-05
15090.0 1.6665e-05
15110.0 1.6681e-05
15130.0 1.6693e-05
15150.0 1.6703e-05
15170.0 1.6713e-05
15190.0 1.6722e-05
15210.0 1.6732e-05
15230.0 1.6742e-05
15250.0 1.6753e-05
15270.0 1.6764e-05
15290.0 1.6776e-05
15310.0 1.6788e-05
15330.0 1.6801e-05
15350.0 1.6815e-05
15370.0 1.6829e-05
15390.0 1.6843e-05
15410.0 1.6858e-05
15430.0 1.6874e-05
15450.0 1.6889e-05
15470.0 1.6905e-05
15490.0 1.6923e-05
15510.0 1.694e-05
15530.0 1.6958e-05
15550.0 1.6976e-05
15570.0 1.6995e-05
15590.0 1.7014e-05
15610.0 1.7033e-05
15630.0 1.7054e-05
15650.0 1.7075e-05
15670.0 1.7095e-05
15690.0 1.7116e-05
15710.0 1.7139e-05
15730.0 1.7161e-05
15750.0 1.7183e-05
15770.0 1.7206e-05
15790.0 1.7229e-05
15810.0 1.7252e-05
15830.0 1.7276e-05
15850.0 1.7301e-05
15870.0 1.7325e-05
15890.0 1.735e-05
15910.0 1.7376e-05
15930.0 1.7401e-05
15950.0 1.7427e-05
15970.0 1.7453e-05
15990.0 1.748e-05
16010.0 1.7506e-05
16030.0 1.7532e-05
16050.0 1.756e-05
16070.0 1.7588e-05
16090.0 1.7615e-05
16110.0 1.7643e-05
16130.0 1.7672e-05
16150.0 1.7699e-05
16170.0 1.7727e-05
16190.0 1.7756e-05
16210.0 1.7785e-05
16230.0 1.7814e-05
16250.0 1.7843e-05
16270.0 1.7873e-05
16290.0 1.7902e-05
16310.0 1.7931e-05
16330.0 1.7961e-05
16350.0 1.7991e-05
16370.0 1.8019e-05
16390.0 1.8049e-05
16410.0 1.808e-05
16430.0 1.8109e-05
16450.0 1.8139e-05
16470.0 1.8169e-05
16490.0 1.8199e-05
16510.0 1.8228e-05
16530.0 1.8258e-05
16550.0 1.8289e-05
16570.0 1.8318e-05
16590.0 1.8347e-05
16610.0 1.8377e-05
16630.0 1.8407e-05
16650.0 1.8436e-05
16670.0 1.8466e-05
16690.0 1.8495e-05
16710.0 1.8523e-05
16730.0 1.8552e-05
16750.0 1.8582e-05
16770.0 1.861e-05
16790.0 1.8638e-05
16810.0 1.8666e-05
16830.0 1.8695e-05
16850.0 1.8722e-05
16870.0 1.8749e-05
16890.0 1.8777e-05
16910.0 1.8804e-05
16930.0 1.883e-05
16950.0 1.8857e-05
16970.0 1.8883e-05
16990.0 1.8908e-05
17010.0 1.8934e-05
17030.0 1.8959e-05
17050.0 1.8984e-05
17070.0 1.9008e-05
17090.0 1.9032e-05
17110.0 1.9056e-05
17130.0 1.9078e-05
17150.0 1.9101e-05
17170.0 1.9123e-05
17190.0 1.9145e-05
17210.0 1.9166e-05
17230.0 1.9187e-05
17250.0 1.9208e-05
17270.0 1.9227e-05
17290.0 1.9246e-05
17310.0 1.9266e-05
17330.0 1.9283e-05
17350.0 1.9301e-05
17370.0 1.9318e-05
17390.0 1.9335e-05
17410.0 1.935e-05
17430.0 1.9366e-05
17450.0 1.9381e-05
17470.0 1.9395e-05
17490.0 1.9408e-05
17510.0 1.9421e-05
17530.0 1.9433e-05
17550.0 1.9444e-05
17570.0 1.9455e-05
17590.0 1.9466e-05
17610.0 1.9475e-05
17630.0 1.9483e-05
17650.0 1.9492e-05
17670.0 1.9499e-05
17690.0 1.9504e-05
17710.0 1.951e-05
17730.0 1.9516e-05
17750.0 1.9519e-05
17770.0 1.9523e-05
17790.0 1.9526e-05
17810.0 1.9528e-05
17830.0 1.9528e-05
17850.0 1.9528e-05
17870.0 1.9528e-05
17890.0 1.9526e-05
17910.0 1.9523e-05
17930.0 1.9521e-05
17950.0 1.9516e-05
17970.0 1.9511e-05
17990.0 1.9506e-05
18010.0 1.9499e-05
18030.0 1.9491e-05
18050.0 1.9482e-05
18070.0 1.9473e-05
18090.0 1.9463e-05
18110.0 1.9451e-05
18130.0 1.9439e-05
18150.0 1.9427e-05
18170.0 1.9412e-05
18190.0 1.9397e-05
18210.0 1.9382e-05
18230.0 1.9365e-05
18250.0 1.9346e-05
18270.0 1.9328e-05
18290.0 1.9309e-05
18310.0 1.9288e-05
18330.0 1.9267e-05
18350.0 1.9245e-05
18370.0 1.9221e-05
18390.0 1.9196e-05
18410.0 1.9171e-05
18430.0 1.9145e-05
18450.0 1.9117e-05
18470.0 1.9089e-05
18490.0 1.9061e-05
18510.0 1.903e-05
18530.0 1.8999e-05
18550.0 1.8968e-05
18570.0 1.8935e-05
18590.0 1.89e-05
18610.0 1.8865e-05
18630.0 1.883e-05
18650.0 1.8793e-05
18670.0 1.8755e-05
18690.0 1.8717e-05
18710.0 1.8677e-05
18730.0 1.8636e-05
18750.0 1.8595e-05
18770.0 1.8554e-05
18790.0 1.8509e-05
18810.0 1.8465e-05
18830.0 1.842e-05
18850.0 1.8374e-05
18870.0 1.8327e-05
18890.0 1.8279e-05
18910.0 1.8231e-05
18930.0 1.8181e-05
18950.0 1.8131e-05
18970.0 1.808e-05
18990.0 1.8028e-05
19010.0 1.7974e-05
19030.0 1.792e-05
19050.0 1.7866e-05
19070.0 1.781e-05
19090.0 1.7754e-05
19110.0 1.7697e-05
19130.0 1.7639e-05
19150.0 1.758e-05
19170.0 1.752e-05
19190.0 1.746e-05
19210.0 1.7399e-05
19230.0 1.7337e-05
19250.0 1.7275e-05
19270.0 1.7211e-05
19290.0 1.7147e-05
19310.0 1.7083e-05
19330.0 1.7017e-05
19350.0 1.695e-05
19370.0 1.6883e-05
19390.0 1.6816e-05
19410.0 1.6748e-05
19430.0 1.6679e-05
19450.0 1.661e-05
19470.0 1.654e-05
19490.0 1.6469e-05
19510.0 1.6397e-05
19530.0 1.6326e-05
19550.0 1.6253e-05
19570.0 1.6179e-05
19590.0 1.6106e-05
19610.0 1.6032e-05
19630.0 1.5957e-05
19650.0 1.5882e-05
19670.0 1.5807e-05
19690.0 1.573e-05
19710.0 1.5653e-05
19730.0 1.5576e-05
19750.0 1.5499e-05
19770.0 1.542e-05
19790.0 1.5341e-05
19810.0 1.5263e-05
19830.0 1.5183e-05
19850.0 1.5102e-05
19870.0 1.5021e-05
19890.0 1.4937e-05
19910.0 1.4848e-05
19930.0 1.4754e-05
19950.0 1.4652e-05
19970.0 1.4535e-05
19990.0 1.4401e-05
20010.0 1.4254e-05
20030.0 1.4086e-05
20050.0 1.3898e-05
20070.0 1.37e-05
20090.0 1.3492e-05
20110.0 1.3266e-05
20130.0 1.304e-05
20150.0 1.2819e-05
20170.0 1.2594e-05
20190.0 1.2368e-05
20210.0 1.2153e-05
20230.0 1.1942e-05
20250.0 1.173e-05
20270.0 1.1528e-05
20290.0 1.1337e-05
20310.0 1.1149e-05
20330.0 1.0966e-05
20350.0 1.0799e-05
20370.0 1.0639e-05
20390.0 1.0485e-05
20410.0 1.0341e-05
20430.0 1.0208e-05
20450.0 1.008e-05
20470.0 9.96e-06
20490.0 9.8503e-06
20510.0 9.7476e-06
20530.0 9.6504e-06
20550.0 9.5612e-06
20570.0 9.4792e-06
20590.0 9.4016e-06
20610.0 9.3291e-06
20630.0 9.2619e-06
20650.0 9.1982e-06
20670.0 9.1375e-06
20690.0 9.08e-06
20710.0 9.0245e-06
20730.0 8.9701e-06
20750.0 8.9165e-06
20770.0 8.8628e-06
20790.0 8.8085e-06
20810.0 8.7527e-06
20830.0 8.6952e-06
20850.0 8.6354e-06
20870.0 8.5723e-06
20890.0 8.5058e-06
20910.0 8.4365e-06
20930.0 8.3631e-06
20950.0 8.2853e-06
20970.0 8.2044e-06
20990.0 8.1205e-06
21010.0 8.0312e-06
21030.0 7.9388e-06
21050.0 7.8448e-06
21070.0 7.7473e-06
21090.0 7.6456e-06
21110.0 7.5446e-06
21130.0 7.4427e-06
21150.0 7.3378e-06
21170.0 7.2329e-06
21190.0 7.1301e-06
21210.0 7.0255e-06
21230.0 6.9203e-06
21250.0 6.8188e-06
21270.0 6.7189e-06
21290.0 6.6189e-06
21310.0 6.5214e-06
21330.0 6.4284e-06
21350.0 6.3359e-06
21370.0 6.2452e-06
21390.0 6.1585e-06
21410.0 6.0744e-06
21430.0 5.9903e-06
21450.0 5.9101e-06
21470.0 5.8332e-06
21490.0 5.7573e-06
21510.0 5.6829e-06
21530.0 5.6117e-06
21550.0 5.5419e-06
21570.0 5.4724e-06
21590.0 5.405e-06
21610.0 5.3396e-06
21630.0 5.2744e-06
21650.0 5.2096e-06
21670.0 5.1475e-06
21690.0 5.0858e-06
21710.0 5.0241e-06
21730.0 4.9636e-06
21750.0 4.9045e-06
21770.0 4.8446e-06
21790.0 4.7852e-06
21810.0 4.7271e-06
21830.0 4.669e-06
21850.0 4.6103e-06
21870.0 4.5523e-06
21890.0 4.4952e-06
21910.0 4.4371e-06
21930.0 4.3789e-06
21950.0 4.3216e-06
21970.0 4.2639e-06
21990.0 4.2048e-06
22010.0 4.1469e-06
22030.0 4.0895e-06
22050.0 4.0313e-06
22070.0 3.9733e-06
22090.0 3.9168e-06
22110.0 3.86e-06
22130.0 3.803e-06
22150.0 3.7474e-06
22170.0 3.693e-06
22190.0 3.638e-06
22210.0 3.5842e-06
22230.0 3.5325e-06
22250.0 3.4812e-06
22270.0 3.4303e-06
22290.0 3.3813e-06
22310.0 3.3335e-06
22330.0 3.2854e-06
22350.0 3.2387e-06
22370.0 3.1934e-06
22390.0 3.1483e-06
22410.0 3.1033e-06
22430.0 3.0599e-06
22450.0 3.017e-06
22470.0 2.9738e-06
22490.0 2.9311e-06
22510.0 2.8893e-06
22530.0 2.847e-06
22550.0 2.8044e-06
22570.0 2.7629e-06
22590.0 2.7216e-06
22610.0 2.6799e-06
