#lamb flux
1010.0 2.5828e-05
1030.0 2.827e-05
1050.0 3.0799e-05
1070.0 3.3647e-05
1090.0 3.6962e-05
1110.0 4.0348e-05
1130.0 4.3746e-05
1150.0 4.7303e-05
1170.0 5.0978e-05
1190.0 5.4484e-05
1210.0 5.8068e-05
1230.0 6.1815e-05
1250.0 6.5525e-05
1270.0 6.9198e-05
1290.0 7.3143e-05
1310.0 7.7164e-05
1330.0 8.1108e-05
1350.0 8.5162e-05
1370.0 8.9396e-05
1390.0 9.3583e-05
1410.0 9.769e-05
1430.0 0.00010198
1450.0 0.00010626
1470.0 0.0001104
1490.0 0.00011453
1510.0 0.00011883
1530.0 0.00012285
1550.0 0.00012673
1570.0 0.00013065
1590.0 0.00013447
1610.0 0.000138
1630.0 0.00014149
1650.0 0.00014496
1670.0 0.00014817
1690.0 0.0001512
1710.0 0.00015425
1730.0 0.00015719
1750.0 0.0001598
1770.0 0.00016242
1790.0 0.00016504
1810.0 0.00016747
1830.0 0.00016981
1850.0 0.00017236
1870.0 0.00017483
1890.0 0.00017723
1910.0 0.00017977
1930.0 0.00018249
1950.0 0.00018517
1970.0 0.00018796
1990.0 0.00019103
2010.0 0.0001942
2030.0 0.0001974
2050.0 0.00020087
2070.0 0.00020456
2090.0 0.00020817
2110.0 0.00021188
2130.0 0.00021575
2150.0 0.00021961
2170.0 0.00022332
2190.0 0.00022713
2210.0 0.00023091
2230.0 0.00023446
2250.0 0.00023788
2270.0 0.00024131
2290.0 0.00024448
2310.0 0.00024732
2330.0 0.00025008
2350.0 0.00025267
2370.0 0.00025492
2390.0 0.000257
2410.0 0.00025903
2430.0 0.00026075
2450.0 0.00026221
2470.0 0.00026357
2490.0 0.00026485
2510.0 0.000266
2530.0 0.00026768
2550.0 0.00027095
2570.0 0.00027693
2590.0 0.00028706
2610.0 0.00030483
2630.0 0.00033139
2650.0 0.00036549
2670.0 0.00040763
2690.0 0.00045617
2710.0 0.00050372
2730.0 0.00054581
2750.0 0.0005811
2770.0 0.00060342
2790.0 0.00061102
2810.0 0.00060488
2830.0 0.00058474
2850.0 0.00055463
2870.0 0.0005173
2890.0 0.00047338
2910.0 0.00042592
2930.0 0.00037822
2950.0 0.00032766
2970.0 0.00027516
2990.0 0.00022354
3010.0 0.00027167
3030.0 0.0001863
3050.0 0.00010049
3070.0 3.0046e-05
3090.0 3.0046e-05
3110.0 3.0046e-05
3130.0 3.0046e-05
3150.0 3.0046e-05
3170.0 3.0046e-05
3190.0 3.0046e-05
3210.0 0.00094861
3230.0 0.0026385
3250.0 0.0035896
3270.0 0.00315
3290.0 0.0023876
3310.0 0.0018914
3330.0 0.0017643
3350.0 0.0018506
3370.0 0.002002
3390.0 0.0021604
3410.0 0.0023263
3430.0 0.002529
3450.0 0.0027228
3470.0 0.0029241
3490.0 0.0029615
3510.0 0.002583
3530.0 0.0024184
3550.0 0.0030927
3570.0 0.0039384
3590.0 0.0043832
3610.0 0.0045378
3630.0 0.0048104
3650.0 0.0048148
3670.0 0.005017
3690.0 0.0059004
3710.0 0.0068584
3730.0 0.0074877
3750.0 0.0078762
3770.0 0.0080015
3790.0 0.0077597
3810.0 0.0071941
3830.0 0.0062977
3850.0 0.004955
3870.0 0.0044055
3890.0 0.0049626
3910.0 0.0065739
3930.0 0.0082174
3950.0 0.0089838
3970.0 0.0092988
3990.0 0.010028
4010.0 0.010369
4030.0 0.0093746
4050.0 0.0070674
4070.0 0.0059793
4090.0 0.0066962
4110.0 0.0074333
4130.0 0.0079392
4150.0 0.007944
4170.0 0.0076383
4190.0 0.0072959
4210.0 0.0077683
4230.0 0.0083431
4250.0 0.008842
4270.0 0.0088657
4290.0 0.0085868
4310.0 0.0086286
4330.0 0.0094852
4350.0 0.010441
4370.0 0.010578
4390.0 0.0098639
4410.0 0.0087686
4430.0 0.0071068
4450.0 0.0058708
4470.0 0.0058441
4490.0 0.0064857
4510.0 0.007068
4530.0 0.0074308
4550.0 0.0080153
4570.0 0.010421
4590.0 0.01432
4610.0 0.017017
4630.0 0.018076
4650.0 0.019656
4670.0 0.021888
4690.0 0.02228
4710.0 0.019302
4730.0 0.015145
4750.0 0.011888
4770.0 0.0099996
4790.0 0.0091131
4810.0 0.0088545
4830.0 0.0096222
4850.0 0.011343
4870.0 0.012668
4890.0 0.012994
4910.0 0.013057
4930.0 0.014429
4950.0 0.016629
4970.0 0.018053
4990.0 0.017921
5010.0 0.016143
5030.0 0.013362
5050.0 0.010835
5070.0 0.0092533
5090.0 0.0086557
5110.0 0.0086647
5130.0 0.0087784
5150.0 0.0086673
5170.0 0.0082497
5190.0 0.0080553
5210.0 0.0084513
5230.0 0.0096341
5250.0 0.011593
5270.0 0.013671
5290.0 0.015085
5310.0 0.016256
5330.0 0.017955
5350.0 0.01944
5370.0 0.019438
5390.0 0.018079
5410.0 0.016854
5430.0 0.017238
5450.0 0.019778
5470.0 0.023195
5490.0 0.025814
5510.0 0.026878
5530.0 0.026698
5550.0 0.025878
5570.0 0.024945
5590.0 0.024049
5610.0 0.023506
5630.0 0.023517
5650.0 0.023489
5670.0 0.022372
5690.0 0.020195
5710.0 0.017987
5730.0 0.01658
5750.0 0.016214
5770.0 0.016758
5790.0 0.017363
5810.0 0.017724
5830.0 0.017877
5850.0 0.017512
5870.0 0.01699
5890.0 0.017004
5910.0 0.017554
5930.0 0.017715
5950.0 0.016729
5970.0 0.014806
5990.0 0.012408
6010.0 0.010528
6030.0 0.010024
6050.0 0.010764
6070.0 0.01131
6090.0 0.010709
6110.0 0.0098278
6130.0 0.010104
6150.0 0.0113
6170.0 0.012402
6190.0 0.013073
6210.0 0.013312
6230.0 0.013066
6250.0 0.011882
6270.0 0.01002
6290.0 0.0084611
6310.0 0.0078149
6330.0 0.0079032
6350.0 0.0081736
6370.0 0.0086143
6390.0 0.0098631
6410.0 0.011885
6430.0 0.01368
6450.0 0.014586
6470.0 0.014987
6490.0 0.015215
6510.0 0.015349
6530.0 0.015482
6550.0 0.015654
6570.0 0.016048
6590.0 0.016401
6610.0 0.016358
6630.0 0.015665
6650.0 0.014486
6670.0 0.013347
6690.0 0.01258
6710.0 0.012042
6730.0 0.011542
6750.0 0.011349
6770.0 0.01165
6790.0 0.012085
6810.0 0.012283
6830.0 0.012092
6850.0 0.01151
6870.0 0.010901
6890.0 0.010632
6910.0 0.010627
6930.0 0.010886
6950.0 0.011169
6970.0 0.011385
6990.0 0.011428
7010.0 0.011055
7030.0 0.01022
7050.0 0.0091644
7070.0 0.0084465
7090.0 0.0082979
7110.0 0.0083707
7130.0 0.0079824
7150.0 0.0072149
7170.0 0.0070435
7190.0 0.0077854
7210.0 0.008922
7230.0 0.0098963
7250.0 0.010256
7270.0 0.01002
7290.0 0.0094116
7310.0 0.0089063
7330.0 0.0088214
7350.0 0.0089735
7370.0 0.0091282
7390.0 0.009568
7410.0 0.01051
7430.0 0.011695
7450.0 0.012684
7470.0 0.013023
7490.0 0.012425
7510.0 0.011465
7530.0 0.01072
7550.0 0.010019
7570.0 0.0092728
7590.0 0.0088757
7610.0 0.0088819
7630.0 0.0092537
7650.0 0.0099494
7670.0 0.010801
7690.0 0.011533
7710.0 0.012084
7730.0 0.012553
7750.0 0.012921
7770.0 0.012964
7790.0 0.013073
7810.0 0.013059
7830.0 0.012643
7850.0 0.012157
7870.0 0.011875
7890.0 0.011924
7910.0 0.011879
7930.0 0.011573
7950.0 0.011092
7970.0 0.010657
7990.0 0.010242
8010.0 0.0098541
8030.0 0.0098628
8050.0 0.0098352
8070.0 0.0096763
8090.0 0.0095603
8110.0 0.0093381
8130.0 0.0093178
8150.0 0.0092151
8170.0 0.0090073
8190.0 0.008743
8210.0 0.0085038
8230.0 0.0082507
8250.0 0.0081437
8270.0 0.0075889
8290.0 0.0064524
8310.0 0.0051809
8330.0 0.0043129
8350.0 0.004109
8370.0 0.0046556
8390.0 0.0054066
8410.0 0.0057605
8430.0 0.0059209
8450.0 0.0062863
8470.0 0.0067799
8490.0 0.0075045
8510.0 0.0083772
8530.0 0.0093112
8550.0 0.010065
8570.0 0.010624
8590.0 0.011035
8610.0 0.011239
8630.0 0.011169
8650.0 0.010968
8670.0 0.010959
8690.0 0.011525
8710.0 0.012302
8730.0 0.012696
8750.0 0.012605
8770.0 0.012739
8790.0 0.012716
8810.0 0.012073
8830.0 0.011209
8850.0 0.010124
8870.0 0.009283
8890.0 0.0090222
8910.0 0.0089039
8930.0 0.0083425
8950.0 0.0077054
8970.0 0.0074324
8990.0 0.00742
9010.0 0.0072348
9030.0 0.0070923
9050.0 0.007026
9070.0 0.0069927
9090.0 0.006964
9110.0 0.0069362
9130.0 0.0069085
9150.0 0.0068814
9170.0 0.006853
9190.0 0.0068312
9210.0 0.0068225
9230.0 0.0067884
9250.0 0.0067582
9270.0 0.0067305
9290.0 0.0067046
9310.0 0.0066793
9330.0 0.0066548
9350.0 0.0066316
9370.0 0.0066087
9390.0 0.0065856
9410.0 0.0065633
9430.0 0.00654
9450.0 0.0065074
9470.0 0.0064784
9490.0 0.0064669
9510.0 0.0064505
9530.0 0.0064331
9550.0 0.0064145
9570.0 0.0063954
9590.0 0.0063763
9610.0 0.0063571
9630.0 0.0063377
9650.0 0.0063186
9670.0 0.0063
9690.0 0.0062812
9710.0 0.0062625
9730.0 0.0062443
9750.0 0.006226
9770.0 0.0062074
9790.0 0.0061894
9810.0 0.0061715
9830.0 0.0061534
9850.0 0.0061352
9870.0 0.0061175
9890.0 0.0060996
9910.0 0.0060814
9930.0 0.0060631
9950.0 0.0060158
9970.0 0.0060061
9990.0 0.0059946
10010.0 0.0059827
10030.0 0.005968
10050.0 0.0059508
10070.0 0.0059336
10090.0 0.0059164
10110.0 0.0058958
10130.0 0.005872
10150.0 0.0058538
10170.0 0.0058354
10190.0 0.0058146
10210.0 0.0057952
10230.0 0.0057759
10250.0 0.0057541
10270.0 0.0057322
10290.0 0.0057116
10310.0 0.0056889
10330.0 0.0056643
10350.0 0.0056416
10370.0 0.0056186
10390.0 0.0055933
10410.0 0.0055679
10430.0 0.0055442
10450.0 0.0055182
10470.0 0.0054907
10490.0 0.0054644
10510.0 0.0054379
10530.0 0.0054077
10550.0 0.0053783
10570.0 0.0053502
10590.0 0.0053199
10610.0 0.005288
10630.0 0.0052577
10650.0 0.0052264
10670.0 0.005192
10690.0 0.0051582
10710.0 0.0051251
10730.0 0.0050896
10750.0 0.0050516
10770.0 0.0050165
10790.0 0.00498
10810.0 0.0049408
10830.0 0.004902
10850.0 0.0048644
10870.0 0.0048224
10890.0 0.0047797
10910.0 0.0047384
10930.0 0.0046955
10950.0 0.0046494
10970.0 0.0046035
10990.0 0.0045588
11010.0 0.0049338
11030.0 0.0048833
11050.0 0.0048345
11070.0 0.0047845
11090.0 0.0047309
11110.0 0.0046808
11130.0 0.0046317
11150.0 0.0045808
11170.0 0.00453
11190.0 0.0044822
11210.0 0.0044331
11230.0 0.0043828
11250.0 0.0043347
11270.0 0.004288
11290.0 0.0042395
11310.0 0.0041916
11330.0 0.0041473
11350.0 0.0041019
11370.0 0.0040556
11390.0 0.0040107
11410.0 0.0039658
11430.0 0.0039171
11450.0 0.0038675
11470.0 0.0038175
11490.0 0.0037638
11510.0 0.0037053
11530.0 0.0036464
11550.0 0.0035851
11570.0 0.0035184
11590.0 0.0034497
11610.0 0.003381
11630.0 0.0033081
11650.0 0.0032321
11670.0 0.0031588
11690.0 0.0030853
11710.0 0.0030097
11730.0 0.0029356
11750.0 0.0028652
11770.0 0.0027934
11790.0 0.0027221
11810.0 0.0026543
11830.0 0.0025881
11850.0 0.0025201
11870.0 0.0024554
11890.0 0.0023941
11910.0 0.0023325
11930.0 0.0022718
11950.0 0.0022149
11970.0 0.0021593
11990.0 0.0021036
12010.0 0.0020513
12030.0 0.0020022
12050.0 0.0019544
12070.0 0.0019085
12090.0 0.0018679
12110.0 0.0018297
12130.0 0.0017942
12150.0 0.0017628
12170.0 0.0017357
12190.0 0.0017115
12210.0 0.0016917
12230.0 0.0016765
12250.0 0.0016652
12270.0 0.0016581
12290.0 0.0016551
12310.0 0.0016555
12330.0 0.0016599
12350.0 0.0016676
12370.0 0.0016775
12390.0 0.0016901
12410.0 0.0017059
12430.0 0.0017219
12450.0 0.0017387
12470.0 0.001757
12490.0 0.0017754
12510.0 0.0017924
12530.0 0.0018096
12550.0 0.0018264
12570.0 0.0018407
12590.0 0.001853
12610.0 0.0018638
12630.0 0.0018717
12650.0 0.0018756
12670.0 0.0018767
12690.0 0.0018743
12710.0 0.0018679
12730.0 0.0018579
12750.0 0.0018441
12770.0 0.0018265
12790.0 0.0018059
12810.0 0.0017821
12830.0 0.0017553
12850.0 0.0017271
12870.0 0.0016974
12890.0 0.001666
12910.0 0.0016341
12930.0 0.0016028
12950.0 0.0015708
12970.0 0.0015388
12990.0 0.0015086
13010.0 0.0014792
13030.0 0.00145
13050.0 0.0014222
13070.0 0.001396
13090.0 0.0013699
13110.0 0.0013446
13130.0 0.0013207
13150.0 0.0012975
13170.0 0.0012743
13190.0 0.0012523
13210.0 0.0012315
13230.0 0.0012109
13250.0 0.0011909
13270.0 0.0011722
13290.0 0.001154
13310.0 0.0011362
13330.0 0.0011195
13350.0 0.0011039
13370.0 0.001089
13390.0 0.0010748
13410.0 0.0010621
13430.0 0.0010502
13450.0 0.001039
13470.0 0.0010287
13490.0 0.0010192
13510.0 0.0010101
13530.0 0.0010014
13550.0 0.00099314
13570.0 0.00098495
13590.0 0.00097662
13610.0 0.00096829
13630.0 0.00095989
13650.0 0.00095107
13670.0 0.00094201
13690.0 0.00093293
13710.0 0.00092361
13730.0 0.00091388
13750.0 0.00090452
13770.0 0.00089531
13790.0 0.00088608
13810.0 0.00087715
13830.0 0.00086882
13850.0 0.00086066
13870.0 0.00085282
13890.0 0.00084557
13910.0 0.00083873
13930.0 0.00083207
13950.0 0.00082572
13970.0 0.00081979
13990.0 0.00081387
14010.0 0.00080793
14030.0 0.00080208
14050.0 0.00079616
14070.0 0.00078978
14090.0 0.00078329
14110.0 0.00077668
14130.0 0.00076968
14150.0 0.00076227
14170.0 0.00075497
14190.0 0.00074756
14210.0 0.00073989
14230.0 0.00073242
14250.0 0.00072535
14270.0 0.00071834
14290.0 0.00071168
14310.0 0.00070587
14330.0 0.00070063
14350.0 0.00069592
14370.0 0.000692
14390.0 0.00068889
14410.0 0.00068629
14430.0 0.00068431
14450.0 0.00068292
14470.0 0.00068197
14490.0 0.00068133
14510.0 0.00068102
14530.0 0.00068096
14550.0 0.00068108
14570.0 0.00068142
14590.0 0.00068202
14610.0 0.00068293
14630.0 0.00068429
14650.0 0.0006862
14670.0 0.00068877
14690.0 0.00069223
14710.0 0.00069678
14730.0 0.00070223
14750.0 0.000709
14770.0 0.00071732
14790.0 0.00072696
14810.0 0.00073789
14830.0 0.00075115
14850.0 0.00076601
14870.0 0.00078199
14890.0 0.00079966
14910.0 0.00081893
14930.0 0.00083819
14950.0 0.00085695
14970.0 0.00087548
14990.0 0.0008921
15010.0 0.00090608
15030.0 0.00091781
15050.0 0.00092733
15070.0 0.00093438
15090.0 0.00093995
15110.0 0.00094454
15130.0 0.00094847
15150.0 0.00095207
15170.0 0.00095555
15190.0 0.00095901
15210.0 0.0009625
15230.0 0.00096605
15250.0 0.00096967
15270.0 0.00097335
15290.0 0.00097711
15310.0 0.00098094
15330.0 0.00098483
15350.0 0.00098879
15370.0 0.00099283
15390.0 0.00099692
15410.0 0.0010011
15430.0 0.0010053
15450.0 0.0010096
15470.0 0.0010139
15490.0 0.0010183
15510.0 0.0010228
15530.0 0.0010273
15550.0 0.0010319
15570.0 0.0010365
15590.0 0.0010412
15610.0 0.001046
15630.0 0.0010508
15650.0 0.0010556
15670.0 0.0010605
15690.0 0.0010654
15710.0 0.0010704
15730.0 0.0010755
15750.0 0.0010805
15770.0 0.0010857
15790.0 0.0010908
15810.0 0.001096
15830.0 0.0011012
15850.0 0.0011065
15870.0 0.0011118
15890.0 0.0011171
15910.0 0.0011225
15930.0 0.0011279
15950.0 0.0011333
15970.0 0.0011388
15990.0 0.0011442
16010.0 0.0011497
16030.0 0.0011552
16050.0 0.0011608
16070.0 0.0011663
16090.0 0.0011719
16110.0 0.0011774
16130.0 0.001183
16150.0 0.0011886
16170.0 0.0011942
16190.0 0.0011998
16210.0 0.0012054
16230.0 0.001211
16250.0 0.0012166
16270.0 0.0012222
16290.0 0.0012278
16310.0 0.0012334
16330.0 0.001239
16350.0 0.0012445
16370.0 0.0012501
16390.0 0.0012556
16410.0 0.0012611
16430.0 0.0012666
16450.0 0.0012721
16470.0 0.0012775
16490.0 0.001283
16510.0 0.0012883
16530.0 0.0012937
16550.0 0.001299
16570.0 0.0013043
16590.0 0.0013095
16610.0 0.0013147
16630.0 0.0013199
16650.0 0.001325
16670.0 0.0013301
16690.0 0.0013351
16710.0 0.0013401
16730.0 0.001345
16750.0 0.0013498
16770.0 0.0013546
16790.0 0.0013594
16810.0 0.0013641
16830.0 0.0013687
16850.0 0.0013732
16870.0 0.0013777
16890.0 0.0013821
16910.0 0.0013864
16930.0 0.0013907
16950.0 0.0013948
16970.0 0.0013989
16990.0 0.0014029
17010.0 0.0014069
17030.0 0.0014107
17050.0 0.0014145
17070.0 0.0014181
17090.0 0.0014217
17110.0 0.0014252
17130.0 0.0014286
17150.0 0.0014319
17170.0 0.0014351
17190.0 0.0014382
17210.0 0.0014412
17230.0 0.0014441
17250.0 0.0014469
17270.0 0.0014496
17290.0 0.0014522
17310.0 0.0014547
17330.0 0.001457
17350.0 0.0014593
17370.0 0.0014614
17390.0 0.0014635
17410.0 0.0014654
17430.0 0.0014672
17450.0 0.0014689
17470.0 0.0014705
17490.0 0.0014719
17510.0 0.0014733
17530.0 0.0014745
17550.0 0.0014756
17570.0 0.0014766
17590.0 0.0014775
17610.0 0.0014782
17630.0 0.0014788
17650.0 0.0014793
17670.0 0.0014797
17690.0 0.0014799
17710.0 0.0014801
17730.0 0.0014801
17750.0 0.00148
17770.0 0.0014797
17790.0 0.0014794
17810.0 0.0014789
17830.0 0.0014783
17850.0 0.0014775
17870.0 0.0014767
17890.0 0.0014757
17910.0 0.0014746
17930.0 0.0014734
17950.0 0.0014721
17970.0 0.0014706
17990.0 0.001469
18010.0 0.0014673
18030.0 0.0014655
18050.0 0.0014636
18070.0 0.0014615
18090.0 0.0014594
18110.0 0.0014571
18130.0 0.0014547
18150.0 0.0014522
18170.0 0.0014495
18190.0 0.0014468
18210.0 0.001444
18230.0 0.001441
18250.0 0.0014379
18270.0 0.0014348
18290.0 0.0014315
18310.0 0.0014281
18330.0 0.0014246
18350.0 0.0014211
18370.0 0.0014174
18390.0 0.0014136
18410.0 0.0014097
18430.0 0.0014057
18450.0 0.0014016
18470.0 0.0013975
18490.0 0.0013932
18510.0 0.0013889
18530.0 0.0013845
18550.0 0.0013799
18570.0 0.0013753
18590.0 0.0013707
18610.0 0.0013659
18630.0 0.0013611
18650.0 0.0013561
18670.0 0.0013511
18690.0 0.0013461
18710.0 0.0013409
18730.0 0.0013357
18750.0 0.0013304
18770.0 0.0013251
18790.0 0.0013196
18810.0 0.0013142
18830.0 0.0013086
18850.0 0.001303
18870.0 0.0012974
18890.0 0.0012917
18910.0 0.0012859
18930.0 0.0012801
18950.0 0.0012742
18970.0 0.0012683
18990.0 0.0012623
19010.0 0.0012563
19030.0 0.0012503
19050.0 0.0012442
19070.0 0.001238
19090.0 0.0012319
19110.0 0.0012257
19130.0 0.0012194
19150.0 0.0012132
19170.0 0.0012069
19190.0 0.0012005
19210.0 0.0011942
19230.0 0.0011878
19250.0 0.0011814
19270.0 0.001175
19290.0 0.0011685
19310.0 0.001162
19330.0 0.0011556
19350.0 0.0011491
19370.0 0.0011425
19390.0 0.001136
19410.0 0.0011295
19430.0 0.0011229
19450.0 0.0011164
19470.0 0.0011098
19490.0 0.0011033
19510.0 0.0010967
19530.0 0.0010901
19550.0 0.0010836
19570.0 0.001077
19590.0 0.0010704
19610.0 0.0010639
19630.0 0.0010573
19650.0 0.0010508
19670.0 0.0010442
19690.0 0.0010377
19710.0 0.0010312
19730.0 0.0010247
19750.0 0.0010182
19770.0 0.0010117
19790.0 0.0010052
19810.0 0.00099873
19830.0 0.00099226
19850.0 0.00098576
19870.0 0.0009792
19890.0 0.00097245
19910.0 0.00096534
19930.0 0.00095769
19950.0 0.00094923
19970.0 0.00093946
19990.0 0.00092817
20010.0 0.00091554
20030.0 0.00090106
20050.0 0.00088482
20070.0 0.00086766
20090.0 0.00084976
20110.0 0.00083051
20130.0 0.00081147
20150.0 0.00079296
20170.0 0.00077435
20190.0 0.00075595
20210.0 0.00073861
20230.0 0.00072182
20250.0 0.0007052
20270.0 0.00068956
20290.0 0.00067491
20310.0 0.00066072
20330.0 0.00064704
20350.0 0.00063476
20370.0 0.00062312
20390.0 0.00061203
20410.0 0.00060184
20430.0 0.00059255
20450.0 0.00058367
20470.0 0.00057551
20490.0 0.00056812
20510.0 0.00056129
20530.0 0.00055491
20550.0 0.00054911
20570.0 0.00054382
20590.0 0.00053885
20610.0 0.00053425
20630.0 0.00052997
20650.0 0.00052593
20670.0 0.00052207
20690.0 0.00051839
20710.0 0.0005148
20730.0 0.00051127
20750.0 0.00050774
20770.0 0.0005042
20790.0 0.00050061
20810.0 0.00049691
20830.0 0.0004931
20850.0 0.00048919
20870.0 0.00048509
20890.0 0.00048082
20910.0 0.00047647
20930.0 0.00047193
20950.0 0.00046721
20970.0 0.00046242
20990.0 0.00045754
21010.0 0.00045245
21030.0 0.00044731
21050.0 0.00044217
21070.0 0.00043695
21090.0 0.00043161
21110.0 0.00042639
21130.0 0.00042121
21150.0 0.00041596
21170.0 0.00041078
21190.0 0.00040574
21210.0 0.00040068
21230.0 0.00039565
21250.0 0.00039081
21270.0 0.00038608
21290.0 0.00038138
21310.0 0.00037681
21330.0 0.00037247
21350.0 0.00036818
21370.0 0.00036401
21390.0 0.00036004
21410.0 0.00035624
21430.0 0.0003525
21450.0 0.00034898
21470.0 0.00034566
21490.0 0.00034248
21510.0 0.00033945
21530.0 0.00033662
21550.0 0.00033394
21570.0 0.00033139
21590.0 0.00032901
21610.0 0.00032677
21630.0 0.00032465
21650.0 0.00032266
21670.0 0.00032078
21690.0 0.000319
21710.0 0.00031731
21730.0 0.0003157
21750.0 0.00031415
21770.0 0.00031268
21790.0 0.00031127
21810.0 0.00030989
21830.0 0.00030855
21850.0 0.00030725
21870.0 0.00030597
21890.0 0.00030469
21910.0 0.00030344
21930.0 0.00030219
21950.0 0.00030092
21970.0 0.00029965
21990.0 0.00029837
22010.0 0.00029705
22030.0 0.00029569
22050.0 0.00029431
22070.0 0.00029289
22090.0 0.00029143
22110.0 0.00028992
22130.0 0.00028837
22150.0 0.00028678
22170.0 0.00028516
22190.0 0.00028348
22210.0 0.00028175
22230.0 0.00028001
22250.0 0.00027821
22270.0 0.00027636
22290.0 0.00027448
22310.0 0.00027256
22330.0 0.00027054
22350.0 0.00026846
22370.0 0.00026633
22390.0 0.0002641
22410.0 0.00026172
22430.0 0.0002593
22450.0 0.00025677
22470.0 0.00025406
22490.0 0.00025124
22510.0 0.00024836
22530.0 0.00024527
22550.0 0.00024201
22570.0 0.00023874
22590.0 0.00023537
22610.0 0.00023183
22630.0 0.00022826
22650.0 0.00022476
22670.0 0.00022114
22690.0 0.00021749
22710.0 0.00021397
22730.0 0.0002105
22750.0 0.00020695
22770.0 0.00020361
22790.0 0.00020044
22810.0 0.00019733
22830.0 0.00019433
22850.0 0.00019157
22870.0 0.00018894
22890.0 0.00018638
22910.0 0.00018402
22930.0 0.00018184
22950.0 0.00017975
22970.0 0.00017776
22990.0 0.00017597
23010.0 0.00017426
23030.0 0.00017261
23050.0 0.00017106
23070.0 0.0001696
23090.0 0.00016814
23110.0 0.00016672
23130.0 0.00016537
23150.0 0.00016402
23170.0 0.00016267
23190.0 0.00016136
23210.0 0.00016008
23230.0 0.00015879
23250.0 0.00015751
23270.0 0.0001563
23290.0 0.0001551
23310.0 0.0001539
23330.0 0.00015279
23350.0 0.00015174
23370.0 0.00015072
23390.0 0.00014976
23410.0 0.00014888
23430.0 0.00014804
23450.0 0.00014724
23470.0 0.0001465
23490.0 0.00014581
23510.0 0.00014514
23530.0 0.00014451
23550.0 0.00014392
