#lamb flux
1010.0 1.7911e-08
1030.0 1.981e-08
1050.0 2.1994e-08
1070.0 2.4452e-08
1090.0 2.7244e-08
1110.0 3.0108e-08
1130.0 3.2991e-08
1150.0 3.601e-08
1170.0 3.9125e-08
1190.0 4.2079e-08
1210.0 4.5072e-08
1230.0 4.8165e-08
1250.0 5.1196e-08
1270.0 5.4139e-08
1290.0 5.7249e-08
1310.0 6.0356e-08
1330.0 6.3337e-08
1350.0 6.635e-08
1370.0 6.9462e-08
1390.0 7.2496e-08
1410.0 7.5439e-08
1430.0 7.8517e-08
1450.0 8.1594e-08
1470.0 8.4569e-08
1490.0 8.7575e-08
1510.0 9.0751e-08
1530.0 9.3761e-08
1550.0 9.6731e-08
1570.0 9.9804e-08
1590.0 1.0288e-07
1610.0 1.0582e-07
1630.0 1.0885e-07
1650.0 1.1197e-07
1670.0 1.1498e-07
1690.0 1.1796e-07
1710.0 1.2105e-07
1730.0 1.2416e-07
1750.0 1.2709e-07
1770.0 1.3011e-07
1790.0 1.332e-07
1810.0 1.3619e-07
1830.0 1.3913e-07
1850.0 1.4225e-07
1870.0 1.453e-07
1890.0 1.4826e-07
1910.0 1.5128e-07
1930.0 1.5437e-07
1950.0 1.5734e-07
1970.0 1.6027e-07
1990.0 1.6332e-07
2010.0 1.6633e-07
2030.0 1.6923e-07
2050.0 1.7224e-07
2070.0 1.7532e-07
2090.0 1.7824e-07
2110.0 1.8115e-07
2130.0 1.8416e-07
2150.0 1.8712e-07
2170.0 1.8995e-07
2190.0 1.929e-07
2210.0 1.9587e-07
2230.0 1.9873e-07
2250.0 2.0157e-07
2270.0 2.0455e-07
2290.0 2.0744e-07
2310.0 2.1022e-07
2330.0 2.1311e-07
2350.0 2.1607e-07
2370.0 2.1903e-07
2390.0 2.2223e-07
2410.0 2.2602e-07
2430.0 2.3038e-07
2450.0 2.356e-07
2470.0 2.4228e-07
2490.0 2.507e-07
2510.0 2.6027e-07
2530.0 2.7179e-07
2550.0 2.8621e-07
2570.0 3.0415e-07
2590.0 3.2748e-07
2610.0 3.6242e-07
2630.0 4.123e-07
2650.0 4.7752e-07
2670.0 5.6185e-07
2690.0 6.6547e-07
2710.0 7.7608e-07
2730.0 8.8538e-07
2750.0 9.9304e-07
2770.0 1.0867e-06
2790.0 1.161e-06
2810.0 1.2201e-06
2830.0 1.2662e-06
2850.0 1.2976e-06
2870.0 1.3207e-06
2890.0 1.339e-06
2910.0 1.3536e-06
2930.0 1.3655e-06
2950.0 1.3769e-06
2970.0 1.3881e-06
2990.0 1.3985e-06
3010.0 3.9529e-05
3030.0 3.9825e-05
3050.0 4.011e-05
3070.0 4.0355e-05
3090.0 4.0565e-05
3110.0 4.0696e-05
3130.0 4.0691e-05
3150.0 4.051e-05
3170.0 4.0076e-05
3190.0 3.9395e-05
3210.0 3.8531e-05
3230.0 3.7541e-05
3250.0 3.6565e-05
3270.0 3.5852e-05
3290.0 3.5456e-05
3310.0 3.552e-05
3330.0 3.6034e-05
3350.0 3.6929e-05
3370.0 3.8207e-05
3390.0 3.9818e-05
3410.0 4.1571e-05
3430.0 4.354e-05
3450.0 4.5805e-05
3470.0 4.828e-05
3490.0 5.0902e-05
3510.0 5.3866e-05
3530.0 5.7039e-05
3550.0 6.0253e-05
3570.0 6.3605e-05
3590.0 6.725e-05
3610.0 7.1007e-05
3630.0 7.4751e-05
3650.0 7.8636e-05
3670.0 8.2183e-05
3690.0 8.4835e-05
3710.0 8.6355e-05
3730.0 8.6405e-05
3750.0 8.5202e-05
3770.0 8.473e-05
3790.0 8.4226e-05
3810.0 8.2156e-05
3830.0 8.4699e-05
3850.0 9.4704e-05
3870.0 0.0001002
3890.0 9.9738e-05
3910.0 0.00010016
3930.0 0.0001028
3950.0 0.00010442
3970.0 9.5139e-05
3990.0 8.1863e-05
4010.0 0.00024535
4030.0 0.00029728
4050.0 0.00034082
4070.0 0.00029572
4090.0 0.00026783
4110.0 0.00023633
4130.0 0.00021752
4150.0 0.00023138
4170.0 0.00022791
4190.0 0.00024294
4210.0 0.00024072
4230.0 0.00025462
4250.0 0.00030122
4270.0 0.00030476
4290.0 0.00028083
4310.0 0.0002918
4330.0 0.00031039
4350.0 0.00034803
4370.0 0.00039606
4390.0 0.00037166
4410.0 0.00027459
4430.0 0.00023246
4450.0 0.0002136
4470.0 0.00016395
4490.0 0.00017692
4510.0 0.00026724
4530.0 0.00030821
4550.0 0.00031088
4570.0 0.00034982
4590.0 0.00039848
4610.0 0.00053746
4630.0 0.00069804
4650.0 0.00075702
4670.0 0.00070107
4690.0 0.00066895
4710.0 0.00070713
4730.0 0.00066733
4750.0 0.00049891
4770.0 0.00036597
4790.0 0.00034174
4810.0 0.00032574
4830.0 0.00029821
4850.0 0.00032723
4870.0 0.00043231
4890.0 0.00050981
4910.0 0.0004473
4930.0 0.00039579
4950.0 0.00043484
4970.0 0.00055765
4990.0 0.00075575
5010.0 0.00086939
5030.0 0.0007666
5050.0 0.00051866
5070.0 0.00034182
5090.0 0.00027562
5110.0 0.00028345
5130.0 0.00032715
5150.0 0.00035444
5170.0 0.00034912
5190.0 0.00032623
5210.0 0.00034099
5230.0 0.00035846
5250.0 0.00038632
5270.0 0.00041681
5290.0 0.00046191
5310.0 0.00053765
5330.0 0.00059498
5350.0 0.00059119
5370.0 0.00062099
5390.0 0.0007126
5410.0 0.00071196
5430.0 0.00062963
5450.0 0.00057848
5470.0 0.00061425
5490.0 0.00075044
5510.0 0.00093832
5530.0 0.0010762
5550.0 0.0010402
5570.0 0.00094559
5590.0 0.00082221
5610.0 0.00075826
5630.0 0.00073528
5650.0 0.00070029
5670.0 0.00066358
5690.0 0.00059324
5710.0 0.00057842
5730.0 0.00053281
5750.0 0.00037566
5770.0 0.00029308
5790.0 0.00033213
5810.0 0.00037503
5830.0 0.00046021
5850.0 0.00054784
5870.0 0.00060783
5890.0 0.00061813
5910.0 0.00060643
5930.0 0.00057725
5950.0 0.00058821
5970.0 0.0006705
5990.0 0.00063045
6010.0 0.00052851
6030.0 0.00044651
6050.0 0.00038885
6070.0 0.00038673
6090.0 0.00041934
6110.0 0.00046889
6130.0 0.00047608
6150.0 0.00040962
6170.0 0.00036034
6190.0 0.00040551
6210.0 0.00053608
6230.0 0.00070349
6250.0 0.00076197
6270.0 0.00066586
6290.0 0.00056022
6310.0 0.00043735
6330.0 0.0003351
6350.0 0.0002989
6370.0 0.00031432
6390.0 0.00036337
6410.0 0.00044806
6430.0 0.00052321
6450.0 0.00059868
6470.0 0.0006855
6490.0 0.00082805
6510.0 0.00092586
6530.0 0.00090833
6550.0 0.00082137
6570.0 0.00069727
6590.0 0.00062875
6610.0 0.00054214
6630.0 0.00049116
6650.0 0.00046429
6670.0 0.00045104
6690.0 0.00040754
6710.0 0.00037047
6730.0 0.00026684
6750.0 0.00026454
6770.0 0.00028754
6790.0 0.00033051
6810.0 0.00030242
6830.0 0.00031141
6850.0 0.00029127
6870.0 0.00026607
6890.0 0.00025547
6910.0 0.00027224
6930.0 0.00025499
6950.0 0.00026234
6970.0 0.00027593
6990.0 0.00031321
7010.0 0.00031587
7030.0 0.00032089
7050.0 0.00030602
7070.0 0.00029158
7090.0 0.00029244
7110.0 0.0003009
7130.0 0.00032381
7150.0 0.00034391
7170.0 0.00037948
7190.0 0.00041716
7210.0 0.00040991
7230.0 0.0004214
7250.0 0.00045286
7270.0 0.00049351
7290.0 0.00058574
7310.0 0.00063559
7330.0 0.00061435
7350.0 0.00055564
7370.0 0.00048346
7390.0 0.00046901
7410.0 0.00049842
7430.0 0.00055393
7450.0 0.00060333
7470.0 0.00059779
7490.0 0.00054507
7510.0 0.00061743
7530.0 0.00061067
7550.0 0.00054888
7570.0 0.00042878
7590.0 0.00029477
7610.0 0.000253
7630.0 0.00028745
7650.0 0.00033988
7670.0 0.000423
7690.0 0.00046548
7710.0 0.00048509
7730.0 0.00050976
7750.0 0.00057227
7770.0 0.00058127
7790.0 0.00053392
7810.0 0.00048717
7830.0 0.00050238
7850.0 0.00048836
7870.0 0.00044774
7890.0 0.00037619
7910.0 0.00030579
7930.0 0.00029199
7950.0 0.00026601
7970.0 0.00024624
7990.0 0.00024483
8010.0 1.8133e-05
8030.0 1.7897e-05
8050.0 1.7656e-05
8070.0 1.7887e-05
8090.0 1.9219e-05
8110.0 1.8892e-05
8130.0 1.5583e-05
8150.0 1.5176e-05
8170.0 1.3072e-05
8190.0 1.2389e-05
8210.0 1.6088e-05
8230.0 1.7912e-05
8250.0 1.6144e-05
8270.0 1.4051e-05
8290.0 1.3697e-05
8310.0 1.0542e-05
8330.0 7.1051e-06
8350.0 5.0424e-06
8370.0 3.177e-06
8390.0 5.8074e-06
8410.0 6.7672e-06
8430.0 8.3416e-06
8450.0 9.7953e-06
8470.0 1.2175e-05
8490.0 1.2089e-05
8510.0 1.1891e-05
8530.0 1.241e-05
8550.0 1.6744e-05
8570.0 1.9822e-05
8590.0 2.1388e-05
8610.0 2.7018e-05
8630.0 3.2547e-05
8650.0 3.4048e-05
8670.0 3.6182e-05
8690.0 3.6385e-05
8710.0 3.2952e-05
8730.0 3.065e-05
8750.0 2.7055e-05
8770.0 2.5671e-05
8790.0 2.522e-05
8810.0 2.4166e-05
8830.0 1.9325e-05
8850.0 1.4147e-05
8870.0 1.0832e-05
8890.0 1.059e-05
8910.0 1.2137e-05
8930.0 1.3805e-05
8950.0 1.4069e-05
8970.0 1.4135e-05
8990.0 1.2607e-05
9010.0 0.00013212
9030.0 0.00011971
9050.0 0.00012029
9070.0 0.00012124
9090.0 0.00012207
9110.0 0.0001231
9130.0 0.00012389
9150.0 0.00012451
9170.0 0.00012517
9190.0 0.00012587
9210.0 0.00012661
9230.0 0.00012739
9250.0 0.00012818
9270.0 0.00012901
9290.0 0.00012985
9310.0 0.00013071
9330.0 0.00013158
9350.0 0.00013248
9370.0 0.00013339
9390.0 0.00013431
9410.0 0.00013526
9430.0 0.00013624
9450.0 0.00013721
9470.0 0.0001382
9490.0 0.00013922
9510.0 0.00014026
9530.0 0.0001413
9550.0 0.00014237
9570.0 0.00014347
9590.0 0.00014456
9610.0 0.00014568
9630.0 0.00014682
9650.0 0.00014798
9670.0 0.00014914
9690.0 0.00015033
9710.0 0.00015153
9730.0 0.00015274
9750.0 0.00015397
9770.0 0.00015523
9790.0 0.0001565
9810.0 0.00015776
9830.0 0.00015906
9850.0 0.00016037
9870.0 0.00016168
9890.0 0.00016301
9910.0 0.00016436
9930.0 0.00016571
9950.0 0.00016707
9970.0 0.00016846
9990.0 0.00016986
10010.0 0.00014739
10030.0 0.0001486
10050.0 0.00014984
10070.0 0.00015111
10090.0 0.00015232
10110.0 0.00015355
10130.0 0.00015479
10150.0 0.00015602
10170.0 0.00015727
10190.0 0.00015854
10210.0 0.0001598
10230.0 0.00016105
10250.0 0.00016233
10270.0 0.0001636
10290.0 0.00016485
10310.0 0.00016612
10330.0 0.00016741
10350.0 0.00016867
10370.0 0.00016993
10390.0 0.0001712
10410.0 0.00017247
10430.0 0.00017371
10450.0 0.00017496
10470.0 0.00017622
10490.0 0.00017746
10510.0 0.00017868
10530.0 0.00017993
10550.0 0.00018116
10570.0 0.00018236
10590.0 0.00018357
10610.0 0.00018478
10630.0 0.00018595
10650.0 0.00018712
10670.0 0.0001883
10690.0 0.00018946
10710.0 0.00019059
10730.0 0.00019173
10750.0 0.00019286
10770.0 0.00019395
10790.0 0.00019503
10810.0 0.00019611
10830.0 0.00019716
10850.0 0.00019815
10870.0 0.00019911
10890.0 0.00019996
10910.0 0.00020061
10930.0 0.00020098
10950.0 0.0002009
10970.0 0.00020021
10990.0 0.00019888
11010.0 0.00019665
11030.0 0.00019352
11050.0 0.00018971
11070.0 0.00018515
11090.0 0.00017967
11110.0 0.000174
11130.0 0.00016809
11150.0 0.00016173
11170.0 0.00015517
11190.0 0.00014881
11210.0 0.00014223
11230.0 0.0001355
11250.0 0.00012906
11270.0 0.00012287
11290.0 0.00011668
11310.0 0.00011081
11330.0 0.00010564
11350.0 0.00010076
11370.0 9.6251e-05
11390.0 9.2348e-05
11410.0 8.8934e-05
11430.0 8.5761e-05
11450.0 8.3027e-05
11470.0 8.0663e-05
11490.0 7.8464e-05
11510.0 7.6345e-05
11530.0 7.4378e-05
11550.0 7.2425e-05
11570.0 7.034e-05
11590.0 6.8182e-05
11610.0 6.5985e-05
11630.0 6.3594e-05
11650.0 6.1034e-05
11670.0 5.8511e-05
11690.0 5.5952e-05
11710.0 5.3313e-05
11730.0 5.0755e-05
11750.0 4.8388e-05
11770.0 4.6067e-05
11790.0 4.3892e-05
11810.0 4.1977e-05
11830.0 4.0264e-05
11850.0 3.8686e-05
11870.0 3.7367e-05
11890.0 3.627e-05
11910.0 3.5306e-05
11930.0 3.4477e-05
11950.0 3.3787e-05
11970.0 3.3171e-05
11990.0 3.2588e-05
12010.0 3.2049e-05
12030.0 3.153e-05
12050.0 3.0993e-05
12070.0 3.0434e-05
12090.0 2.9896e-05
12110.0 2.9349e-05
12130.0 2.8801e-05
12150.0 2.8296e-05
12170.0 2.7855e-05
12190.0 2.7474e-05
12210.0 2.7208e-05
12230.0 2.7079e-05
12250.0 2.71e-05
12270.0 2.7305e-05
12290.0 2.7691e-05
12310.0 2.8245e-05
12330.0 2.902e-05
12350.0 2.9988e-05
12370.0 3.1089e-05
12390.0 3.2359e-05
12410.0 3.3848e-05
12430.0 3.536e-05
12450.0 3.6927e-05
12470.0 3.8592e-05
12490.0 4.0265e-05
12510.0 4.1834e-05
12530.0 4.3396e-05
12550.0 4.4902e-05
12570.0 4.6231e-05
12590.0 4.7399e-05
12610.0 4.8439e-05
12630.0 4.9268e-05
12650.0 4.984e-05
12670.0 5.0216e-05
12690.0 5.0367e-05
12710.0 5.0284e-05
12730.0 4.9992e-05
12750.0 4.9472e-05
12770.0 4.8758e-05
12790.0 4.7893e-05
12810.0 4.686e-05
12830.0 4.5664e-05
12850.0 4.4414e-05
12870.0 4.3092e-05
12890.0 4.1661e-05
12910.0 4.0207e-05
12930.0 3.8774e-05
12950.0 3.7278e-05
12970.0 3.5756e-05
12990.0 3.4315e-05
13010.0 3.2893e-05
13030.0 3.1455e-05
13050.0 3.0073e-05
13070.0 2.878e-05
13090.0 2.7481e-05
13110.0 2.6224e-05
13130.0 2.5066e-05
13150.0 2.3969e-05
13170.0 2.2895e-05
13190.0 2.1939e-05
13210.0 2.1098e-05
13230.0 2.0329e-05
13250.0 1.9667e-05
13270.0 1.9145e-05
13290.0 1.8739e-05
13310.0 1.8459e-05
13330.0 1.8332e-05
13350.0 1.8346e-05
13370.0 1.8511e-05
13390.0 1.8834e-05
13410.0 1.9271e-05
13430.0 1.9839e-05
13450.0 2.054e-05
13470.0 2.1319e-05
13490.0 2.2144e-05
13510.0 2.3074e-05
13530.0 2.4017e-05
13550.0 2.4919e-05
13570.0 2.5809e-05
13590.0 2.6677e-05
13610.0 2.7448e-05
13630.0 2.8122e-05
13650.0 2.8737e-05
13670.0 2.9247e-05
13690.0 2.9642e-05
13710.0 2.9948e-05
13730.0 3.0166e-05
13750.0 3.0275e-05
13770.0 3.0299e-05
13790.0 3.0244e-05
13810.0 3.0111e-05
13830.0 2.9914e-05
13850.0 2.9646e-05
13870.0 2.9309e-05
13890.0 2.8924e-05
13910.0 2.8489e-05
13930.0 2.7986e-05
13950.0 2.7437e-05
13970.0 2.6876e-05
13990.0 2.6265e-05
14010.0 2.5614e-05
14030.0 2.4966e-05
14050.0 2.4312e-05
14070.0 2.3623e-05
14090.0 2.2961e-05
14110.0 2.234e-05
14130.0 2.1738e-05
14150.0 2.1171e-05
14170.0 2.0687e-05
14190.0 2.0269e-05
14210.0 1.9914e-05
14230.0 1.9651e-05
14250.0 1.9481e-05
14270.0 1.9399e-05
14290.0 1.9417e-05
14310.0 1.9525e-05
14330.0 1.9719e-05
14350.0 2.0005e-05
14370.0 2.0362e-05
14390.0 2.0766e-05
14410.0 2.1243e-05
14430.0 2.1766e-05
14450.0 2.2301e-05
14470.0 2.2855e-05
14490.0 2.3445e-05
14510.0 2.4009e-05
14530.0 2.4544e-05
14550.0 2.508e-05
14570.0 2.5594e-05
14590.0 2.6062e-05
14610.0 2.6514e-05
14630.0 2.6962e-05
14650.0 2.7379e-05
14670.0 2.7782e-05
14690.0 2.8202e-05
14710.0 2.8643e-05
14730.0 2.9085e-05
14750.0 2.9574e-05
14770.0 3.0129e-05
14790.0 3.0731e-05
14810.0 3.1382e-05
14830.0 3.2154e-05
14850.0 3.2994e-05
14870.0 3.387e-05
14890.0 3.4814e-05
14910.0 3.5818e-05
14930.0 3.6783e-05
14950.0 3.7684e-05
14970.0 3.8538e-05
14990.0 3.9253e-05
15010.0 3.9801e-05
15030.0 4.0206e-05
15050.0 4.0474e-05
15070.0 4.0605e-05
15090.0 4.0651e-05
15110.0 4.0638e-05
15130.0 4.0587e-05
15150.0 4.0518e-05
15170.0 4.0437e-05
15190.0 4.035e-05
15210.0 4.0264e-05
15230.0 4.0178e-05
15250.0 4.009e-05
15270.0 4.0002e-05
15290.0 3.9919e-05
15310.0 3.9834e-05
15330.0 3.9747e-05
15350.0 3.9664e-05
15370.0 3.9582e-05
15390.0 3.9496e-05
15410.0 3.9412e-05
15430.0 3.9332e-05
15450.0 3.9249e-05
15470.0 3.9165e-05
15490.0 3.9085e-05
15510.0 3.9005e-05
15530.0 3.8923e-05
15550.0 3.8842e-05
15570.0 3.8764e-05
15590.0 3.8683e-05
15610.0 3.8601e-05
15630.0 3.8524e-05
15650.0 3.8445e-05
15670.0 3.8365e-05
15690.0 3.8286e-05
15710.0 3.8211e-05
15730.0 3.8132e-05
15750.0 3.8053e-05
15770.0 3.7976e-05
15790.0 3.79e-05
15810.0 3.7819e-05
15830.0 3.7743e-05
15850.0 3.7668e-05
15870.0 3.759e-05
15890.0 3.7513e-05
15910.0 3.7439e-05
15930.0 3.7363e-05
15950.0 3.7284e-05
15970.0 3.7208e-05
15990.0 3.7134e-05
16010.0 3.7057e-05
16030.0 3.6979e-05
16050.0 3.6906e-05
16070.0 3.683e-05
16090.0 3.6753e-05
16110.0 3.6678e-05
16130.0 3.6605e-05
16150.0 3.6527e-05
16170.0 3.645e-05
16190.0 3.6376e-05
16210.0 3.6301e-05
16230.0 3.6223e-05
16250.0 3.6149e-05
16270.0 3.6076e-05
16290.0 3.5998e-05
16310.0 3.5922e-05
16330.0 3.5848e-05
16350.0 3.5773e-05
16370.0 3.5693e-05
16390.0 3.5619e-05
16410.0 3.5545e-05
16430.0 3.5467e-05
16450.0 3.5391e-05
16470.0 3.5317e-05
16490.0 3.524e-05
16510.0 3.5162e-05
16530.0 3.5087e-05
16550.0 3.5011e-05
16570.0 3.4932e-05
16590.0 3.4854e-05
16610.0 3.478e-05
16630.0 3.4703e-05
16650.0 3.4624e-05
16670.0 3.4549e-05
16690.0 3.4473e-05
16710.0 3.4392e-05
16730.0 3.4314e-05
16750.0 3.4238e-05
16770.0 3.4159e-05
16790.0 3.4079e-05
16810.0 3.4002e-05
16830.0 3.3925e-05
16850.0 3.3844e-05
16870.0 3.3766e-05
16890.0 3.3689e-05
16910.0 3.3608e-05
16930.0 3.3526e-05
16950.0 3.3448e-05
16970.0 3.3369e-05
16990.0 3.3287e-05
17010.0 3.3207e-05
17030.0 3.3129e-05
17050.0 3.3047e-05
17070.0 3.2965e-05
17090.0 3.2885e-05
17110.0 3.2805e-05
17130.0 3.272e-05
17150.0 3.2639e-05
17170.0 3.2559e-05
17190.0 3.2476e-05
17210.0 3.2392e-05
17230.0 3.2312e-05
17250.0 3.223e-05
17270.0 3.2144e-05
17290.0 3.2062e-05
17310.0 3.198e-05
17330.0 3.1895e-05
17350.0 3.1809e-05
17370.0 3.1728e-05
17390.0 3.1644e-05
17410.0 3.1558e-05
17430.0 3.1474e-05
17450.0 3.1391e-05
17470.0 3.1303e-05
17490.0 3.1217e-05
17510.0 3.1133e-05
17530.0 3.1048e-05
17550.0 3.096e-05
17570.0 3.0875e-05
17590.0 3.0791e-05
17610.0 3.0702e-05
17630.0 3.0615e-05
17650.0 3.053e-05
17670.0 3.0443e-05
17690.0 3.0351e-05
17710.0 3.0266e-05
17730.0 3.018e-05
17750.0 3.009e-05
17770.0 3.0002e-05
17790.0 2.9917e-05
17810.0 2.9827e-05
17830.0 2.9736e-05
17850.0 2.9649e-05
17870.0 2.9561e-05
17890.0 2.9469e-05
17910.0 2.9379e-05
17930.0 2.9292e-05
17950.0 2.9202e-05
17970.0 2.9111e-05
17990.0 2.9023e-05
18010.0 2.8934e-05
18030.0 2.884e-05
18050.0 2.875e-05
18070.0 2.8661e-05
18090.0 2.8569e-05
18110.0 2.8476e-05
18130.0 2.8388e-05
18150.0 2.8297e-05
18170.0 2.8204e-05
18190.0 2.8113e-05
18210.0 2.8024e-05
18230.0 2.793e-05
18250.0 2.7836e-05
18270.0 2.7746e-05
18290.0 2.7654e-05
18310.0 2.756e-05
18330.0 2.7468e-05
18350.0 2.7379e-05
18370.0 2.7284e-05
18390.0 2.719e-05
18410.0 2.7099e-05
18430.0 2.7007e-05
18450.0 2.691e-05
18470.0 2.6818e-05
18490.0 2.6727e-05
18510.0 2.6633e-05
18530.0 2.6538e-05
18550.0 2.6448e-05
18570.0 2.6354e-05
18590.0 2.6258e-05
18610.0 2.6165e-05
18630.0 2.6073e-05
18650.0 2.5977e-05
18670.0 2.5881e-05
18690.0 2.579e-05
18710.0 2.5697e-05
18730.0 2.5601e-05
18750.0 2.5508e-05
18770.0 2.5416e-05
18790.0 2.5318e-05
18810.0 2.5223e-05
18830.0 2.5131e-05
18850.0 2.5036e-05
18870.0 2.494e-05
18890.0 2.4847e-05
18910.0 2.4755e-05
18930.0 2.4658e-05
18950.0 2.4563e-05
18970.0 2.4471e-05
18990.0 2.4376e-05
19010.0 2.4277e-05
19030.0 2.4185e-05
19050.0 2.4092e-05
19070.0 2.3995e-05
19090.0 2.3901e-05
19110.0 2.3809e-05
19130.0 2.3713e-05
19150.0 2.3616e-05
19170.0 2.3523e-05
19190.0 2.3429e-05
19210.0 2.3332e-05
19230.0 2.3237e-05
19250.0 2.3145e-05
19270.0 2.305e-05
19290.0 2.2954e-05
19310.0 2.2861e-05
19330.0 2.2768e-05
19350.0 2.267e-05
19370.0 2.2575e-05
19390.0 2.2483e-05
19410.0 2.2387e-05
19430.0 2.2291e-05
19450.0 2.2199e-05
19470.0 2.2105e-05
19490.0 2.2009e-05
19510.0 2.1915e-05
19530.0 2.1823e-05
19550.0 2.1726e-05
19570.0 2.163e-05
19590.0 2.1538e-05
19610.0 2.1444e-05
19630.0 2.1348e-05
19650.0 2.1255e-05
19670.0 2.1163e-05
19690.0 2.1067e-05
19710.0 2.0972e-05
19730.0 2.088e-05
19750.0 2.0786e-05
19770.0 2.0689e-05
19790.0 2.0596e-05
19810.0 2.0504e-05
19830.0 2.0409e-05
19850.0 2.0313e-05
19870.0 2.0219e-05
19890.0 2.0118e-05
19910.0 2.0007e-05
19930.0 1.9888e-05
19950.0 1.9752e-05
19970.0 1.9585e-05
19990.0 1.9384e-05
20010.0 1.7246e-05
20030.0 1.6996e-05
20050.0 1.6704e-05
20070.0 1.6388e-05
20090.0 1.6047e-05
20110.0 1.5662e-05
20130.0 1.5272e-05
20150.0 1.4886e-05
20170.0 1.4485e-05
20190.0 1.4079e-05
20210.0 1.3695e-05
20230.0 1.3321e-05
20250.0 1.2945e-05
20270.0 1.2597e-05
20290.0 1.2279e-05
20310.0 1.1977e-05
20330.0 1.1695e-05
20350.0 1.1461e-05
20370.0 1.1253e-05
20390.0 1.107e-05
20410.0 1.0923e-05
20430.0 1.0809e-05
20450.0 1.0719e-05
20470.0 1.0659e-05
20490.0 1.0627e-05
20510.0 1.0617e-05
20530.0 1.0631e-05
20550.0 1.0663e-05
20570.0 1.0711e-05
20590.0 1.0776e-05
20610.0 1.0854e-05
20630.0 1.094e-05
20650.0 1.1037e-05
20670.0 1.1147e-05
20690.0 1.1259e-05
20710.0 1.1376e-05
20730.0 1.1501e-05
20750.0 1.1632e-05
20770.0 1.1761e-05
20790.0 1.1896e-05
20810.0 1.2039e-05
20830.0 1.2181e-05
20850.0 1.2324e-05
20870.0 1.2477e-05
20890.0 1.2633e-05
20910.0 1.2784e-05
20930.0 1.294e-05
20950.0 1.3101e-05
20970.0 1.3259e-05
20990.0 1.3415e-05
21010.0 1.3579e-05
21030.0 1.3739e-05
21050.0 1.3891e-05
21070.0 1.4044e-05
21090.0 1.4197e-05
21110.0 1.4336e-05
21130.0 1.4467e-05
21150.0 1.4594e-05
21170.0 1.4709e-05
21190.0 1.4808e-05
21210.0 1.4897e-05
21230.0 1.4971e-05
21250.0 1.5024e-05
21270.0 1.5057e-05
21290.0 1.507e-05
21310.0 1.5057e-05
21330.0 1.5022e-05
21350.0 1.496e-05
21370.0 1.4868e-05
21390.0 1.4752e-05
21410.0 1.4609e-05
21430.0 1.4428e-05
21450.0 1.4226e-05
21470.0 1.4005e-05
21490.0 1.3755e-05
21510.0 1.3482e-05
21530.0 1.3203e-05
21550.0 1.2912e-05
21570.0 1.2601e-05
21590.0 1.2295e-05
21610.0 1.2e-05
21630.0 1.1704e-05
21650.0 1.1415e-05
21670.0 1.1165e-05
21690.0 1.0934e-05
21710.0 1.0726e-05
21730.0 1.0556e-05
21750.0 1.0424e-05
21770.0 1.0324e-05
21790.0 1.0266e-05
21810.0 1.025e-05
21830.0 1.0273e-05
21850.0 1.0337e-05
21870.0 1.0438e-05
21890.0 1.0567e-05
21910.0 1.0733e-05
21930.0 1.0927e-05
21950.0 1.1138e-05
21970.0 1.1372e-05
21990.0 1.1634e-05
22010.0 1.1896e-05
22030.0 1.2162e-05
22050.0 1.2442e-05
22070.0 1.2723e-05
22090.0 1.2989e-05
22110.0 1.3257e-05
22130.0 1.3525e-05
22150.0 1.3775e-05
22170.0 1.401e-05
22190.0 1.4244e-05
22210.0 1.4462e-05
22230.0 1.4653e-05
22250.0 1.4833e-05
22270.0 1.4999e-05
22290.0 1.5141e-05
22310.0 1.5262e-05
22330.0 1.537e-05
22350.0 1.5453e-05
22370.0 1.5511e-05
22390.0 1.5547e-05
22410.0 1.5559e-05
22430.0 1.5544e-05
22450.0 1.5504e-05
22470.0 1.5435e-05
22490.0 1.5338e-05
22510.0 1.5217e-05
22530.0 1.5062e-05
22550.0 1.4873e-05
22570.0 1.4664e-05
22590.0 1.4428e-05
22610.0 1.4157e-05
