#lamb flux
1010.0 0.00065995
1030.0 0.00087366
1050.0 0.0011306
1070.0 0.0014306
1090.0 0.0017799
1110.0 0.0021471
1130.0 0.0025197
1150.0 0.0029031
1170.0 0.003284
1190.0 0.0036226
1210.0 0.0039327
1230.0 0.0042123
1250.0 0.0044352
1270.0 0.0045944
1290.0 0.0047135
1310.0 0.0047728
1330.0 0.0047629
1350.0 0.0047043
1370.0 0.0046068
1390.0 0.0044626
1410.0 0.0042812
1430.0 0.0040853
1450.0 0.0038729
1470.0 0.0036464
1490.0 0.00342
1510.0 0.0032033
1530.0 0.0029864
1550.0 0.0027792
1570.0 0.0025881
1590.0 0.0024108
1610.0 0.0022449
1630.0 0.0020961
1650.0 0.001963
1670.0 0.0018414
1690.0 0.001732
1710.0 0.0016363
1730.0 0.0015512
1750.0 0.0014728
1770.0 0.0014043
1790.0 0.0013441
1810.0 0.0012897
1830.0 0.0012409
1850.0 0.001199
1870.0 0.0011612
1890.0 0.0011271
1910.0 0.0010978
1930.0 0.0010733
1950.0 0.0010519
1970.0 0.0010349
1990.0 0.0010236
2010.0 0.0010175
2030.0 0.0010173
2050.0 0.0010251
2070.0 0.0010422
2090.0 0.0010686
2110.0 0.0011068
2130.0 0.0011594
2150.0 0.0012274
2170.0 0.0013122
2190.0 0.0014176
2210.0 0.0015452
2230.0 0.0016956
2250.0 0.0018714
2270.0 0.0020757
2290.0 0.0023076
2310.0 0.0025673
2330.0 0.0028576
2350.0 0.0031778
2370.0 0.0035246
2390.0 0.0038983
2410.0 0.004298
2430.0 0.0047148
2450.0 0.0051432
2470.0 0.0055778
2490.0 0.0060089
2510.0 0.0064292
2530.0 0.006841
2550.0 0.0072555
2570.0 0.0076992
2590.0 0.0082113
2610.0 0.0088766
2630.0 0.0097783
2650.0 0.010962
2670.0 0.012524
2690.0 0.014559
2710.0 0.016971
2730.0 0.019685
2750.0 0.022783
2770.0 0.02602
2790.0 0.029155
2810.0 0.032172
2830.0 0.035034
2850.0 0.037423
2870.0 0.039473
2890.0 0.041294
2910.0 0.04288
2930.0 0.044248
2950.0 0.045548
2970.0 0.046794
2990.0 0.047945
3010.0 0.049041
3030.0 0.05014
3050.0 0.051199
3070.0 0.052146
3090.0 0.053064
3110.0 0.053912
3130.0 0.054618
3150.0 0.055191
3170.0 0.055662
3190.0 0.055989
3210.0 0.056224
3230.0 0.056447
3250.0 0.056714
3270.0 0.057035
3290.0 0.057444
3310.0 0.05796
3330.0 0.058516
3350.0 0.059062
3370.0 0.059611
3390.0 0.060132
3410.0 0.060566
3430.0 0.060937
3450.0 0.061225
3470.0 0.062924
3490.0 0.062006
3510.0 0.056884
3530.0 0.062942
3550.0 0.071963
3570.0 0.079542
3590.0 0.090275
3610.0 0.096964
3630.0 0.10127
3650.0 0.091434
3670.0 0.079766
3690.0 0.075606
3710.0 0.081976
3730.0 0.095115
3750.0 0.099072
3770.0 0.099922
3790.0 0.1019
3810.0 0.095387
3830.0 0.085686
3850.0 0.077636
3870.0 0.072245
3890.0 0.08006
3910.0 0.086442
3930.0 0.088012
3950.0 0.088572
3970.0 0.092773
3990.0 0.09876
4010.0 0.099819
4030.0 0.094987
4050.0 0.086575
4070.0 0.085461
4090.0 0.08957
4110.0 0.094197
4130.0 0.091525
4150.0 0.088998
4170.0 0.088166
4190.0 0.092268
4210.0 0.091269
4230.0 0.08468
4250.0 0.075899
4270.0 0.067925
4290.0 0.061795
4310.0 0.057612
4330.0 0.056559
4350.0 0.062079
4370.0 0.06376
4390.0 0.065859
4410.0 0.06986
4430.0 0.07195
4450.0 0.070023
4470.0 0.068262
4490.0 0.069682
4510.0 0.07105
4530.0 0.072502
4550.0 0.073716
4570.0 0.073878
4590.0 0.07645
4610.0 0.078052
4630.0 0.080738
4650.0 0.082577
4670.0 0.081389
4690.0 0.076227
4710.0 0.069486
4730.0 0.066642
4750.0 0.066061
4770.0 0.063447
4790.0 0.060371
4810.0 0.058729
4830.0 0.059621
4850.0 0.058267
4870.0 0.05837
4890.0 0.056642
4910.0 0.052335
4930.0 0.053078
4950.0 0.049483
4970.0 0.044861
4990.0 0.04387
5010.0 0.040841
5030.0 0.038576
5050.0 0.038545
5070.0 0.041845
5090.0 0.043491
5110.0 0.048178
5130.0 0.04955
5150.0 0.051187
5170.0 0.052638
5190.0 0.051885
5210.0 0.051943
5230.0 0.052846
5250.0 0.052974
5270.0 0.054173
5290.0 0.053908
5310.0 0.052825
5330.0 0.050155
5350.0 0.047432
5370.0 0.044542
5390.0 0.045171
5410.0 0.045991
5430.0 0.04594
5450.0 0.046279
5470.0 0.045923
5490.0 0.045296
5510.0 0.044817
5530.0 0.043958
5550.0 0.04413
5570.0 0.04458
5590.0 0.045147
5610.0 0.044642
5630.0 0.043643
5650.0 0.043203
5670.0 0.042274
5690.0 0.041105
5710.0 0.039748
5730.0 0.03923
5750.0 0.039113
5770.0 0.038359
5790.0 0.037493
5810.0 0.037245
5830.0 0.037891
5850.0 0.038537
5870.0 0.038426
5890.0 0.037918
5910.0 0.037879
5930.0 0.038156
5950.0 0.037961
5970.0 0.037522
5990.0 0.037072
6010.0 0.037776
6030.0 0.037792
6050.0 0.03697
6070.0 0.03704
6090.0 0.036956
6110.0 0.036994
6130.0 0.036913
6150.0 0.035814
6170.0 0.033218
6190.0 0.030716
6210.0 0.029667
6230.0 0.029196
6250.0 0.029348
6270.0 0.030412
6290.0 0.031283
6310.0 0.032251
6330.0 0.033171
6350.0 0.033601
6370.0 0.033641
6390.0 0.032774
6410.0 0.032111
6430.0 0.031133
6450.0 0.030387
6470.0 0.029936
6490.0 0.02995
6510.0 0.029932
6530.0 0.029822
6550.0 0.02921
6570.0 0.028774
6590.0 0.028543
6610.0 0.027868
6630.0 0.027522
6650.0 0.027035
6670.0 0.026204
6690.0 0.025379
6710.0 0.024782
6730.0 0.024511
6750.0 0.02411
6770.0 0.023876
6790.0 0.023861
6810.0 0.023473
6830.0 0.023242
6850.0 0.022943
6870.0 0.022384
6890.0 0.022317
6910.0 0.022097
6930.0 0.021684
6950.0 0.021678
6970.0 0.021442
6990.0 0.021414
7010.0 0.021091
7030.0 0.020865
7050.0 0.020745
7070.0 0.02034
7090.0 0.019695
7110.0 0.019224
7130.0 0.019291
7150.0 0.0195
7170.0 0.01961
7190.0 0.019971
7210.0 0.020203
7230.0 0.020425
7250.0 0.020685
7270.0 0.020254
7290.0 0.020118
7310.0 0.019716
7330.0 0.019009
7350.0 0.018631
7370.0 0.018307
7390.0 0.018118
7410.0 0.01823
7430.0 0.018101
7450.0 0.017811
7470.0 0.017465
7490.0 0.016862
7510.0 0.015791
7530.0 0.016308
7550.0 0.016405
7570.0 0.016179
7590.0 0.014994
7610.0 0.015319
7630.0 0.0152
7650.0 0.015333
7670.0 0.015318
7690.0 0.015664
7710.0 0.015425
7730.0 0.016066
7750.0 0.016361
7770.0 0.017108
7790.0 0.017754
7810.0 0.018169
7830.0 0.018849
7850.0 0.018768
7870.0 0.019092
7890.0 0.018841
7910.0 0.018241
7930.0 0.017994
7950.0 0.017816
7970.0 0.01766
7990.0 0.017688
8010.0 0.01612
8030.0 0.016021
8050.0 0.015696
8070.0 0.015546
8090.0 0.015053
8110.0 0.015166
8130.0 0.015401
8150.0 0.015698
8170.0 0.015561
8190.0 0.015835
8210.0 0.01563
8230.0 0.014872
8250.0 0.014652
8270.0 0.014395
8290.0 0.014142
8310.0 0.013579
8330.0 0.013723
8350.0 0.013682
8370.0 0.013718
8390.0 0.01395
8410.0 0.013846
8430.0 0.013995
8450.0 0.014144
8470.0 0.014277
8490.0 0.01446
8510.0 0.014185
8530.0 0.013661
8550.0 0.013768
8570.0 0.013763
8590.0 0.013332
8610.0 0.01361
8630.0 0.013414
8650.0 0.013157
8670.0 0.013067
8690.0 0.013032
8710.0 0.012483
8730.0 0.012686
8750.0 0.012264
8770.0 0.012222
8790.0 0.011871
8810.0 0.011716
8830.0 0.011737
8850.0 0.011254
8870.0 0.010697
8890.0 0.010558
8910.0 0.0099677
8930.0 0.0092117
8950.0 0.0092079
8970.0 0.0088723
8990.0 0.008801
9010.0 0.0087115
9030.0 0.0086496
9050.0 0.0085885
9070.0 0.0085269
9090.0 0.0084649
9110.0 0.008402
9130.0 0.0083392
9150.0 0.008277
9170.0 0.0082144
9190.0 0.0081516
9210.0 0.0080886
9230.0 0.0080254
9250.0 0.0079622
9270.0 0.0078989
9290.0 0.0078356
9310.0 0.0077723
9330.0 0.0077092
9350.0 0.0076462
9370.0 0.0075832
9390.0 0.0075205
9410.0 0.0074578
9430.0 0.0073952
9450.0 0.007333
9470.0 0.0072757
9490.0 0.0072161
9510.0 0.0071519
9530.0 0.0070886
9550.0 0.0070266
9570.0 0.0069654
9590.0 0.0069047
9610.0 0.0068445
9630.0 0.0067851
9650.0 0.006726
9670.0 0.0066671
9690.0 0.0066089
9710.0 0.0065512
9730.0 0.0064937
9750.0 0.0064367
9770.0 0.0063806
9790.0 0.0063246
9810.0 0.006269
9830.0 0.0062133
9850.0 0.0061506
9870.0 0.0060946
9890.0 0.0060459
9910.0 0.0059964
9930.0 0.0059361
9950.0 0.0058844
9970.0 0.0058379
9990.0 0.0057899
10010.0 0.0057419
10030.0 0.0056936
10050.0 0.0056452
10070.0 0.0055976
10090.0 0.0055508
10110.0 0.0055033
10130.0 0.0054563
10150.0 0.005411
10170.0 0.0053659
10190.0 0.0053207
10210.0 0.0052769
10230.0 0.005234
10250.0 0.0051908
10270.0 0.0051483
10290.0 0.0051072
10310.0 0.005066
10330.0 0.0050247
10350.0 0.004985
10370.0 0.0049459
10390.0 0.0049066
10410.0 0.0048676
10430.0 0.0048298
10450.0 0.0047932
10470.0 0.0047565
10490.0 0.004721
10510.0 0.004686
10530.0 0.0046503
10550.0 0.0046157
10570.0 0.0045824
10590.0 0.0045489
10610.0 0.0045156
10630.0 0.0044837
10650.0 0.0044522
10670.0 0.0044203
10690.0 0.0043894
10710.0 0.0043595
10730.0 0.0043294
10750.0 0.0042992
10770.0 0.0042707
10790.0 0.0042425
10810.0 0.0042141
10830.0 0.0041865
10850.0 0.0041601
10870.0 0.0041329
10890.0 0.0041064
10910.0 0.0040812
10930.0 0.0040566
10950.0 0.0040322
10970.0 0.0040091
10990.0 0.0039877
11010.0 0.0042513
11030.0 0.0042351
11050.0 0.0042193
11070.0 0.0042029
11090.0 0.0041847
11110.0 0.0041661
11130.0 0.0041466
11150.0 0.0041252
11170.0 0.0041026
11190.0 0.0040802
11210.0 0.0040566
11230.0 0.0040319
11250.0 0.0040079
11270.0 0.0039846
11290.0 0.0039607
11310.0 0.0039375
11330.0 0.0039168
11350.0 0.0038964
11370.0 0.0038767
11390.0 0.0038589
11410.0 0.0038423
11430.0 0.0038254
11450.0 0.0038095
11470.0 0.0037946
11490.0 0.0037793
11510.0 0.0037632
11530.0 0.0037477
11550.0 0.0037318
11570.0 0.0037144
11590.0 0.0036964
11610.0 0.0036786
11630.0 0.0036593
11650.0 0.0036389
11670.0 0.0036192
11690.0 0.0035995
11710.0 0.0035787
11730.0 0.0035584
11750.0 0.0035394
11770.0 0.0035196
11790.0 0.0034999
11810.0 0.0034815
11830.0 0.0034635
11850.0 0.0034447
11870.0 0.0034271
11890.0 0.003411
11910.0 0.0033948
11930.0 0.0033792
11950.0 0.0033655
11970.0 0.0033528
11990.0 0.0033407
12010.0 0.0033308
12030.0 0.0033231
12050.0 0.0033168
12070.0 0.0033124
12090.0 0.0033108
12110.0 0.0033111
12130.0 0.0033134
12150.0 0.0033177
12170.0 0.0033238
12190.0 0.0033313
12210.0 0.0033403
12230.0 0.0033501
12250.0 0.0033607
12270.0 0.0033718
12290.0 0.0033829
12310.0 0.0033938
12330.0 0.0034044
12350.0 0.0034145
12370.0 0.0034236
12390.0 0.0034318
12410.0 0.0034387
12430.0 0.0034441
12450.0 0.003448
12470.0 0.0034499
12490.0 0.0034497
12510.0 0.0034477
12530.0 0.0034431
12550.0 0.0034357
12570.0 0.0034262
12590.0 0.0034145
12610.0 0.0033994
12630.0 0.0033817
12650.0 0.0033631
12670.0 0.0033418
12690.0 0.003318
12710.0 0.0032935
12730.0 0.0032681
12750.0 0.0032398
12770.0 0.0032115
12790.0 0.0031836
12810.0 0.0031549
12830.0 0.0031253
12850.0 0.0030977
12870.0 0.0030708
12890.0 0.0030436
12910.0 0.0030178
12930.0 0.0029941
12950.0 0.0029705
12970.0 0.0029478
12990.0 0.0029276
13010.0 0.0029085
13030.0 0.0028899
13050.0 0.0028727
13070.0 0.0028572
13090.0 0.0028417
13110.0 0.0028269
13130.0 0.0028131
13150.0 0.0027999
13170.0 0.0027864
13190.0 0.0027738
13210.0 0.0027618
13230.0 0.0027498
13250.0 0.0027378
13270.0 0.0027264
13290.0 0.0027149
13310.0 0.0027029
13330.0 0.002691
13350.0 0.002679
13370.0 0.0026662
13390.0 0.0026526
13410.0 0.0026391
13430.0 0.0026248
13450.0 0.0026092
13470.0 0.0025932
13490.0 0.0025769
13510.0 0.0025589
13530.0 0.0025403
13550.0 0.0025217
13570.0 0.0025023
13590.0 0.0024818
13610.0 0.0024614
13630.0 0.0024411
13650.0 0.0024195
13670.0 0.0023978
13690.0 0.0023763
13710.0 0.0023543
13730.0 0.002331
13750.0 0.0023086
13770.0 0.0022863
13790.0 0.0022631
13810.0 0.0022399
13830.0 0.0022176
13850.0 0.0021947
13870.0 0.0021714
13890.0 0.002149
13910.0 0.002127
13930.0 0.0021045
13950.0 0.0020825
13970.0 0.0020617
13990.0 0.0020408
14010.0 0.00202
14030.0 0.0020001
14050.0 0.0019807
14070.0 0.0019608
14090.0 0.0019416
14110.0 0.0019231
14130.0 0.0019045
14150.0 0.0018857
14170.0 0.0018679
14190.0 0.0018501
14210.0 0.001832
14230.0 0.0018143
14250.0 0.0017973
14270.0 0.0017798
14290.0 0.0017625
14310.0 0.0017461
14330.0 0.00173
14350.0 0.001714
14370.0 0.0016986
14390.0 0.0016841
14410.0 0.0016697
14430.0 0.0016557
14450.0 0.0016425
14470.0 0.0016297
14490.0 0.0016169
14510.0 0.0016047
14530.0 0.001593
14550.0 0.0015813
14570.0 0.0015696
14590.0 0.0015585
14610.0 0.0015472
14630.0 0.0015358
14650.0 0.0015246
14670.0 0.0015136
14690.0 0.0015025
14710.0 0.0014913
14730.0 0.0014806
14750.0 0.0014699
14770.0 0.0014591
14790.0 0.0014486
14810.0 0.0014383
14830.0 0.0014278
14850.0 0.0014175
14870.0 0.0014075
14890.0 0.0013975
14910.0 0.0013875
14930.0 0.0013778
14950.0 0.0013685
14970.0 0.0013592
14990.0 0.0013504
15010.0 0.001342
15030.0 0.001334
15050.0 0.0013261
15070.0 0.0013189
15090.0 0.0013118
15110.0 0.0013048
15130.0 0.0012979
15150.0 0.0012913
15170.0 0.0012846
15190.0 0.0012779
15210.0 0.0012713
15230.0 0.0012648
15250.0 0.0012582
15270.0 0.0012516
15290.0 0.0012453
15310.0 0.0012389
15330.0 0.0012325
15350.0 0.0012262
15370.0 0.00122
15390.0 0.0012136
15410.0 0.0012074
15430.0 0.0012014
15450.0 0.0011952
15470.0 0.0011891
15490.0 0.0011832
15510.0 0.0011772
15530.0 0.0011713
15550.0 0.0011654
15570.0 0.0011597
15590.0 0.0011538
15610.0 0.001148
15630.0 0.0011424
15650.0 0.0011368
15670.0 0.0011312
15690.0 0.0011256
15710.0 0.0011202
15730.0 0.0011148
15750.0 0.0011093
15770.0 0.0011041
15790.0 0.0010988
15810.0 0.0010935
15830.0 0.0010883
15850.0 0.0010832
15870.0 0.0010781
15890.0 0.001073
15910.0 0.0010681
15930.0 0.0010632
15950.0 0.0010582
15970.0 0.0010534
15990.0 0.0010487
16010.0 0.0010439
16030.0 0.0010391
16050.0 0.0010346
16070.0 0.00103
16090.0 0.0010254
16110.0 0.0010209
16130.0 0.0010165
16150.0 0.001012
16170.0 0.0010076
16190.0 0.0010034
16210.0 0.00099915
16230.0 0.00099487
16250.0 0.00099074
16270.0 0.00098668
16290.0 0.00098256
16310.0 0.00097851
16330.0 0.00097459
16350.0 0.00097066
16370.0 0.00096665
16390.0 0.00096285
16410.0 0.00095909
16430.0 0.00095529
16450.0 0.00095156
16470.0 0.00094797
16490.0 0.00094432
16510.0 0.00094067
16530.0 0.00093715
16550.0 0.00093368
16570.0 0.00093015
16590.0 0.00092669
16610.0 0.00092338
16630.0 0.00092003
16650.0 0.00091668
16670.0 0.00091346
16690.0 0.00091028
16710.0 0.00090699
16730.0 0.00090383
16750.0 0.00090076
16770.0 0.00089766
16790.0 0.00089454
16810.0 0.00089159
16830.0 0.00088865
16850.0 0.00088565
16870.0 0.00088275
16890.0 0.00087994
16910.0 0.00087704
16930.0 0.00087415
16950.0 0.00087143
16970.0 0.0008687
16990.0 0.00086592
17010.0 0.00086324
17030.0 0.00086066
17050.0 0.00085798
17070.0 0.00085534
17090.0 0.00085281
17110.0 0.00085027
17130.0 0.00084765
17150.0 0.00084517
17170.0 0.00084276
17190.0 0.00084028
17210.0 0.00083783
17230.0 0.0008355
17250.0 0.00083313
17270.0 0.00083069
17290.0 0.00082838
17310.0 0.00082611
17330.0 0.00082378
17350.0 0.00082145
17370.0 0.00081928
17390.0 0.00081706
17410.0 0.00081479
17430.0 0.00081263
17450.0 0.00081052
17470.0 0.00080826
17490.0 0.00080609
17510.0 0.00080402
17530.0 0.0008019
17550.0 0.00079974
17570.0 0.00079769
17590.0 0.00079568
17610.0 0.00079357
17630.0 0.00079151
17650.0 0.00078953
17670.0 0.0007875
17690.0 0.00078538
17710.0 0.00078343
17730.0 0.00078148
17750.0 0.00077945
17770.0 0.00077746
17790.0 0.00077558
17810.0 0.00077359
17830.0 0.00077158
17850.0 0.00076966
17870.0 0.00076775
17890.0 0.00076575
17910.0 0.00076379
17930.0 0.00076194
17950.0 0.00076
17970.0 0.00075804
17990.0 0.00075618
18010.0 0.0007543
18030.0 0.00075229
18050.0 0.00075037
18070.0 0.00074851
18090.0 0.00074657
18110.0 0.0007446
18130.0 0.00074275
18150.0 0.00074087
18170.0 0.00073889
18190.0 0.00073698
18210.0 0.00073512
18230.0 0.00073314
18250.0 0.00073113
18270.0 0.00072926
18290.0 0.00072734
18310.0 0.00072534
18330.0 0.0007234
18350.0 0.00072152
18370.0 0.00071951
18390.0 0.0007175
18410.0 0.00071557
18430.0 0.0007136
18450.0 0.0007115
18470.0 0.00070952
18490.0 0.00070757
18510.0 0.00070552
18530.0 0.00070346
18550.0 0.00070149
18570.0 0.00069944
18590.0 0.00069729
18610.0 0.00069524
18630.0 0.00069319
18650.0 0.00069104
18670.0 0.00068888
18690.0 0.00068684
18710.0 0.00068471
18730.0 0.00068251
18750.0 0.00068037
18770.0 0.00067826
18790.0 0.00067596
18810.0 0.00067373
18830.0 0.00067157
18850.0 0.00066932
18870.0 0.00066701
18890.0 0.00066478
18910.0 0.00066256
18930.0 0.00066019
18950.0 0.00065786
18970.0 0.00065559
18990.0 0.00065322
19010.0 0.00065073
19030.0 0.00064841
19050.0 0.00064605
19070.0 0.00064358
19090.0 0.00064113
19110.0 0.00063877
19130.0 0.00063624
19150.0 0.00063369
19170.0 0.00063122
19190.0 0.00062871
19210.0 0.00062609
19230.0 0.0006235
19250.0 0.000621
19270.0 0.00061837
19290.0 0.0006157
19310.0 0.00061311
19330.0 0.00061049
19350.0 0.00060769
19370.0 0.00060499
19390.0 0.00060233
19410.0 0.00059956
19430.0 0.00059674
19450.0 0.00059403
19470.0 0.00059126
19490.0 0.00058838
19510.0 0.00058555
19530.0 0.00058276
19550.0 0.00057982
19570.0 0.00057685
19590.0 0.000574
19610.0 0.00057108
19630.0 0.00056807
19650.0 0.00056512
19670.0 0.00056221
19690.0 0.00055914
19710.0 0.00055608
19730.0 0.00055309
19750.0 0.00055003
19770.0 0.00054685
19790.0 0.00054377
19810.0 0.00054072
19830.0 0.00053755
19850.0 0.00053438
19870.0 0.0005313
19890.0 0.00052811
19910.0 0.00052486
19930.0 0.00052173
19950.0 0.00051865
19970.0 0.00051551
19990.0 0.00051245
20010.0 0.00050957
20030.0 0.00050668
20050.0 0.00050382
20070.0 0.00050109
20090.0 0.00049841
20110.0 0.00049563
20130.0 0.00049293
20150.0 0.0004903
20170.0 0.00048761
20190.0 0.00048489
20210.0 0.00048225
20230.0 0.00047961
20250.0 0.00047689
20270.0 0.00047424
20290.0 0.00047165
20310.0 0.00046904
20330.0 0.00046641
20350.0 0.00046393
20370.0 0.00046148
20390.0 0.00045903
20410.0 0.00045666
20430.0 0.0004544
20450.0 0.00045213
20470.0 0.00044994
20490.0 0.00044786
20510.0 0.00044586
20530.0 0.00044391
20550.0 0.00044207
20570.0 0.00044036
20590.0 0.00043873
20610.0 0.0004372
20630.0 0.00043579
20650.0 0.00043448
20670.0 0.00043328
20690.0 0.00043218
20710.0 0.00043117
20730.0 0.00043023
20750.0 0.00042936
20770.0 0.00042851
20790.0 0.00042769
20810.0 0.00042687
20830.0 0.000426
20850.0 0.00042508
20870.0 0.00042408
20890.0 0.00042298
20910.0 0.00042174
20930.0 0.00042036
20950.0 0.00041882
20970.0 0.0004171
20990.0 0.00041522
21010.0 0.00041313
21030.0 0.00041086
21050.0 0.00040844
21070.0 0.00040583
21090.0 0.00040301
21110.0 0.00040011
21130.0 0.00039709
21150.0 0.00039391
21170.0 0.00039066
21190.0 0.00038739
21210.0 0.000384
21230.0 0.00038053
21250.0 0.00037712
21270.0 0.0003737
21290.0 0.00037021
21310.0 0.00036673
21330.0 0.00036335
21350.0 0.00035991
21370.0 0.00035644
21390.0 0.00035304
21410.0 0.00034964
21430.0 0.00034612
21450.0 0.00034264
21470.0 0.00033921
21490.0 0.00033568
21510.0 0.0003321
21530.0 0.00032858
21550.0 0.00032501
21570.0 0.00032133
21590.0 0.00031767
21610.0 0.00031405
21630.0 0.00031035
21650.0 0.00030658
21670.0 0.00030296
21690.0 0.00029931
21710.0 0.00029562
21730.0 0.000292
21750.0 0.00028848
21770.0 0.00028487
21790.0 0.00028133
21810.0 0.0002779
21830.0 0.0002745
21850.0 0.00027109
21870.0 0.00026778
21890.0 0.00026458
21910.0 0.00026136
21930.0 0.00025818
21950.0 0.0002551
21970.0 0.00025203
21990.0 0.00024892
22010.0 0.00024591
22030.0 0.00024295
22050.0 0.00023994
22070.0 0.00023695
22090.0 0.00023404
22110.0 0.0002311
22130.0 0.00022811
22150.0 0.00022517
22170.0 0.00022225
22190.0 0.00021926
22210.0 0.00021627
22230.0 0.00021337
22250.0 0.00021043
22270.0 0.00020746
22290.0 0.00020455
22310.0 0.00020169
22330.0 0.00019875
22350.0 0.00019586
22370.0 0.00019306
22390.0 0.00019025
22410.0 0.00018742
22430.0 0.00018473
22450.0 0.00018208
22470.0 0.00017943
22490.0 0.00017685
22510.0 0.00017439
22530.0 0.00017192
22550.0 0.0001695
22570.0 0.0001672
22590.0 0.00016496
22610.0 0.00016275
22630.0 0.00016061
22650.0 0.00015859
22670.0 0.00015658
22690.0 0.00015462
22710.0 0.00015275
22730.0 0.00015093
22750.0 0.00014911
22770.0 0.00014737
22790.0 0.00014571
22810.0 0.00014407
22830.0 0.00014247
22850.0 0.00014095
22870.0 0.00013948
22890.0 0.00013804
22910.0 0.00013667
22930.0 0.00013537
22950.0 0.00013412
22970.0 0.00013293
22990.0 0.00013184
23010.0 0.00013081
23030.0 0.00012984
23050.0 0.00012896
23070.0 0.00012815
23090.0 0.00012741
23110.0 0.00012676
23130.0 0.00012619
23150.0 0.00012569
23170.0 0.00012527
23190.0 0.00012492
23210.0 0.00012462
23230.0 0.0001244
23250.0 0.00012424
23270.0 0.00012411
23290.0 0.00012402
23310.0 0.00012398
23330.0 0.00012394
23350.0 0.0001239
23370.0 0.00012387
23390.0 0.00012382
23410.0 0.00012374
23430.0 0.00012363
23450.0 0.00012396
23470.0 0.00012437
23490.0 0.00012476
23510.0 0.00012516
23530.0 0.00012555
23550.0 0.00012595
23570.0 0.00012636
23590.0 0.00012679
23610.0 0.00012725
23630.0 0.00012774
23650.0 0.00012828
23670.0 0.00012886
23690.0 0.00012948
23710.0 0.00013016
23730.0 0.00013089
23750.0 0.00013167
