#lamb flux
1010.0 1.4079e-09
1030.0 1.5572e-09
1050.0 1.7288e-09
1070.0 1.9221e-09
1090.0 2.1416e-09
1110.0 2.3667e-09
1130.0 2.5933e-09
1150.0 2.8306e-09
1170.0 3.0755e-09
1190.0 3.3076e-09
1210.0 3.5429e-09
1230.0 3.7861e-09
1250.0 4.0243e-09
1270.0 4.2556e-09
1290.0 4.5001e-09
1310.0 4.7444e-09
1330.0 4.9786e-09
1350.0 5.2155e-09
1370.0 5.4601e-09
1390.0 5.6986e-09
1410.0 5.93e-09
1430.0 6.1719e-09
1450.0 6.4138e-09
1470.0 6.6476e-09
1490.0 6.8839e-09
1510.0 7.1336e-09
1530.0 7.3702e-09
1550.0 7.6036e-09
1570.0 7.8451e-09
1590.0 8.087e-09
1610.0 8.3181e-09
1630.0 8.5565e-09
1650.0 8.8012e-09
1670.0 9.0381e-09
1690.0 9.2721e-09
1710.0 9.5152e-09
1730.0 9.7599e-09
1750.0 9.9903e-09
1770.0 1.0228e-08
1790.0 1.047e-08
1810.0 1.0705e-08
1830.0 1.0936e-08
1850.0 1.1182e-08
1870.0 1.1422e-08
1890.0 1.1654e-08
1910.0 1.1891e-08
1930.0 1.2135e-08
1950.0 1.2367e-08
1970.0 1.2598e-08
1990.0 1.2838e-08
2010.0 1.3074e-08
2030.0 1.3303e-08
2050.0 1.3539e-08
2070.0 1.3781e-08
2090.0 1.4011e-08
2110.0 1.424e-08
2130.0 1.4476e-08
2150.0 1.4709e-08
2170.0 1.4931e-08
2190.0 1.5163e-08
2210.0 1.5396e-08
2230.0 1.5621e-08
2250.0 1.5845e-08
2270.0 1.6079e-08
2290.0 1.6306e-08
2310.0 1.6524e-08
2330.0 1.6751e-08
2350.0 1.6985e-08
2370.0 1.7217e-08
2390.0 1.7469e-08
2410.0 1.7767e-08
2430.0 1.811e-08
2450.0 1.8519e-08
2470.0 1.9044e-08
2490.0 1.9706e-08
2510.0 2.0458e-08
2530.0 2.1364e-08
2550.0 2.2497e-08
2570.0 2.3908e-08
2590.0 2.5742e-08
2610.0 2.8488e-08
2630.0 3.2409e-08
2650.0 3.7536e-08
2670.0 4.4164e-08
2690.0 5.231e-08
2710.0 6.1005e-08
2730.0 6.9596e-08
2750.0 7.8058e-08
2770.0 8.5419e-08
2790.0 9.1264e-08
2810.0 9.5903e-08
2830.0 9.9527e-08
2850.0 1.02e-07
2870.0 1.0382e-07
2890.0 1.0525e-07
2910.0 1.064e-07
2930.0 1.0734e-07
2950.0 1.0823e-07
2970.0 1.0911e-07
2990.0 1.0993e-07
3010.0 3.1072e-06
3030.0 3.1305e-06
3050.0 3.1529e-06
3070.0 3.1721e-06
3090.0 3.1887e-06
3110.0 3.1989e-06
3130.0 3.1985e-06
3150.0 3.1843e-06
3170.0 3.1502e-06
3190.0 3.0966e-06
3210.0 3.0287e-06
3230.0 2.951e-06
3250.0 2.8742e-06
3270.0 2.8182e-06
3290.0 2.787e-06
3310.0 2.7921e-06
3330.0 2.8325e-06
3350.0 2.9028e-06
3370.0 3.0033e-06
3390.0 3.1299e-06
3410.0 3.2677e-06
3430.0 3.4224e-06
3450.0 3.6005e-06
3470.0 3.795e-06
3490.0 4.0012e-06
3510.0 4.2341e-06
3530.0 4.4836e-06
3550.0 4.7362e-06
3570.0 4.9997e-06
3590.0 5.2862e-06
3610.0 5.5815e-06
3630.0 5.8759e-06
3650.0 6.1813e-06
3670.0 6.4601e-06
3690.0 6.6685e-06
3710.0 6.788e-06
3730.0 6.7919e-06
3750.0 6.6974e-06
3770.0 6.6603e-06
3790.0 6.6206e-06
3810.0 6.4579e-06
3830.0 6.6578e-06
3850.0 7.4442e-06
3870.0 7.8759e-06
3890.0 7.84e-06
3910.0 7.8734e-06
3930.0 8.0807e-06
3950.0 8.2083e-06
3970.0 7.4785e-06
3990.0 6.4349e-06
4010.0 1.9286e-05
4030.0 2.3368e-05
4050.0 2.679e-05
4070.0 2.3245e-05
4090.0 2.1053e-05
4110.0 1.8577e-05
4130.0 1.7098e-05
4150.0 1.8187e-05
4170.0 1.7915e-05
4190.0 1.9096e-05
4210.0 1.8922e-05
4230.0 2.0014e-05
4250.0 2.3677e-05
4270.0 2.3956e-05
4290.0 2.2075e-05
4310.0 2.2937e-05
4330.0 2.4398e-05
4350.0 2.7357e-05
4370.0 3.1132e-05
4390.0 2.9214e-05
4410.0 2.1584e-05
4430.0 1.8272e-05
4450.0 1.679e-05
4470.0 1.2887e-05
4490.0 1.3907e-05
4510.0 2.1007e-05
4530.0 2.4227e-05
4550.0 2.4437e-05
4570.0 2.7498e-05
4590.0 3.1323e-05
4610.0 4.2247e-05
4630.0 5.487e-05
4650.0 5.9506e-05
4670.0 5.5108e-05
4690.0 5.2583e-05
4710.0 5.5584e-05
4730.0 5.2455e-05
4750.0 3.9217e-05
4770.0 2.8767e-05
4790.0 2.6863e-05
4810.0 2.5605e-05
4830.0 2.3441e-05
4850.0 2.5722e-05
4870.0 3.3982e-05
4890.0 4.0074e-05
4910.0 3.516e-05
4930.0 3.1111e-05
4950.0 3.4181e-05
4970.0 4.3835e-05
4990.0 5.9406e-05
5010.0 6.8339e-05
5030.0 6.0259e-05
5050.0 4.0769e-05
5070.0 2.6869e-05
5090.0 2.1665e-05
5110.0 2.2281e-05
5130.0 2.5716e-05
5150.0 2.7861e-05
5170.0 2.7443e-05
5190.0 2.5643e-05
5210.0 2.6803e-05
5230.0 2.8176e-05
5250.0 3.0366e-05
5270.0 3.2762e-05
5290.0 3.6307e-05
5310.0 4.226e-05
5330.0 4.6765e-05
5350.0 4.6467e-05
5370.0 4.8809e-05
5390.0 5.6008e-05
5410.0 5.5957e-05
5430.0 4.9486e-05
5450.0 4.5466e-05
5470.0 4.8276e-05
5490.0 5.8979e-05
5510.0 7.3744e-05
5530.0 8.458e-05
5550.0 8.1747e-05
5570.0 7.4313e-05
5590.0 6.4616e-05
5610.0 5.959e-05
5630.0 5.7783e-05
5650.0 5.5033e-05
5670.0 5.2147e-05
5690.0 4.6619e-05
5710.0 4.5454e-05
5730.0 4.187e-05
5750.0 2.952e-05
5770.0 2.303e-05
5790.0 2.6098e-05
5810.0 2.9469e-05
5830.0 3.6163e-05
5850.0 4.3048e-05
5870.0 4.7761e-05
5890.0 4.857e-05
5910.0 4.765e-05
5930.0 4.5357e-05
5950.0 4.6218e-05
5970.0 5.2683e-05
5990.0 4.9535e-05
6010.0 4.1525e-05
6030.0 3.5082e-05
6050.0 3.0552e-05
6070.0 3.0386e-05
6090.0 3.2948e-05
6110.0 3.6841e-05
6130.0 3.7406e-05
6150.0 3.2184e-05
6170.0 2.8312e-05
6190.0 3.1861e-05
6210.0 4.212e-05
6230.0 5.5274e-05
6250.0 5.9869e-05
6270.0 5.2317e-05
6290.0 4.4017e-05
6310.0 3.4363e-05
6330.0 2.6329e-05
6350.0 2.3484e-05
6370.0 2.4696e-05
6390.0 2.8551e-05
6410.0 3.5204e-05
6430.0 4.1109e-05
6450.0 4.7039e-05
6470.0 5.3861e-05
6490.0 6.506e-05
6510.0 7.2746e-05
6530.0 7.1368e-05
6550.0 6.4536e-05
6570.0 5.4785e-05
6590.0 4.9401e-05
6610.0 4.2597e-05
6630.0 3.8591e-05
6650.0 3.648e-05
6670.0 3.5439e-05
6690.0 3.2021e-05
6710.0 2.9108e-05
6730.0 2.0966e-05
6750.0 2.0785e-05
6770.0 2.2592e-05
6790.0 2.5968e-05
6810.0 2.3761e-05
6830.0 2.4468e-05
6850.0 2.2885e-05
6870.0 2.0905e-05
6890.0 2.0072e-05
6910.0 2.139e-05
6930.0 2.0035e-05
6950.0 2.0612e-05
6970.0 2.168e-05
6990.0 2.4609e-05
7010.0 2.4819e-05
7030.0 2.5213e-05
7050.0 2.4044e-05
7070.0 2.291e-05
7090.0 2.2977e-05
7110.0 2.3642e-05
7130.0 2.5442e-05
7150.0 2.7022e-05
7170.0 2.9817e-05
7190.0 3.2777e-05
7210.0 3.2207e-05
7230.0 3.311e-05
7250.0 3.5582e-05
7270.0 3.8775e-05
7290.0 4.6022e-05
7310.0 4.9939e-05
7330.0 4.827e-05
7350.0 4.3657e-05
7370.0 3.7985e-05
7390.0 3.6851e-05
7410.0 3.9161e-05
7430.0 4.3523e-05
7450.0 4.7404e-05
7470.0 4.6969e-05
7490.0 4.2826e-05
7510.0 4.8512e-05
7530.0 4.7981e-05
7550.0 4.3127e-05
7570.0 3.369e-05
7590.0 2.3161e-05
7610.0 1.9879e-05
7630.0 2.2586e-05
7650.0 2.6705e-05
7670.0 3.3237e-05
7690.0 3.6575e-05
7710.0 3.8116e-05
7730.0 4.0055e-05
7750.0 4.4967e-05
7770.0 4.5674e-05
7790.0 4.1954e-05
7810.0 3.8281e-05
7830.0 3.9476e-05
7850.0 3.8375e-05
7870.0 3.5184e-05
7890.0 2.9561e-05
7910.0 2.4029e-05
7930.0 2.2944e-05
7950.0 2.0903e-05
7970.0 1.935e-05
7990.0 1.9239e-05
8010.0 1.4405e-06
8030.0 1.4199e-06
8050.0 1.4025e-06
8070.0 1.4242e-06
8090.0 1.5349e-06
8110.0 1.5078e-06
8130.0 1.236e-06
8150.0 1.2056e-06
8170.0 1.0321e-06
8190.0 9.7364e-07
8210.0 1.2756e-06
8230.0 1.4222e-06
8250.0 1.2705e-06
8270.0 1.1043e-06
8290.0 1.0844e-06
8310.0 8.3662e-07
8330.0 5.6333e-07
8350.0 4.0031e-07
8370.0 2.4895e-07
8390.0 4.6072e-07
8410.0 5.3659e-07
8430.0 6.6138e-07
8450.0 7.7637e-07
8470.0 9.6966e-07
8490.0 9.6008e-07
8510.0 9.4143e-07
8530.0 9.7675e-07
8550.0 1.3304e-06
8570.0 1.5815e-06
8590.0 1.6952e-06
8610.0 2.1466e-06
8630.0 2.5828e-06
8650.0 2.6856e-06
8670.0 2.8616e-06
8690.0 2.8918e-06
8710.0 2.6164e-06
8730.0 2.4385e-06
8750.0 2.1485e-06
8770.0 2.0367e-06
8790.0 2.004e-06
8810.0 1.924e-06
8830.0 1.5307e-06
8850.0 1.1146e-06
8870.0 8.5252e-07
8890.0 8.4174e-07
8910.0 9.7058e-07
8930.0 1.1083e-06
8950.0 1.1312e-06
8970.0 1.1351e-06
8990.0 1.0073e-06
9010.0 1.037e-05
9030.0 9.3907e-06
9050.0 9.4367e-06
9070.0 9.512e-06
9090.0 9.578e-06
9110.0 9.6594e-06
9130.0 9.7222e-06
9150.0 9.771e-06
9170.0 9.823e-06
9190.0 9.8785e-06
9210.0 9.937e-06
9230.0 9.9987e-06
9250.0 1.0061e-05
9270.0 1.0126e-05
9290.0 1.0193e-05
9310.0 1.0261e-05
9330.0 1.0329e-05
9350.0 1.0401e-05
9370.0 1.0473e-05
9390.0 1.0546e-05
9410.0 1.0621e-05
9430.0 1.0698e-05
9450.0 1.0775e-05
9470.0 1.0853e-05
9490.0 1.0934e-05
9510.0 1.1015e-05
9530.0 1.1098e-05
9550.0 1.1183e-05
9570.0 1.1269e-05
9590.0 1.1355e-05
9610.0 1.1444e-05
9630.0 1.1534e-05
9650.0 1.1625e-05
9670.0 1.1717e-05
9690.0 1.1811e-05
9710.0 1.1906e-05
9730.0 1.2001e-05
9750.0 1.2098e-05
9770.0 1.2198e-05
9790.0 1.2298e-05
9810.0 1.2398e-05
9830.0 1.25e-05
9850.0 1.2604e-05
9870.0 1.2707e-05
9890.0 1.2812e-05
9910.0 1.2919e-05
9930.0 1.3026e-05
9950.0 1.3133e-05
9970.0 1.3242e-05
9990.0 1.3353e-05
10010.0 1.1587e-05
10030.0 1.1683e-05
10050.0 1.178e-05
10070.0 1.1881e-05
10090.0 1.1976e-05
10110.0 1.2074e-05
10130.0 1.2171e-05
10150.0 1.2269e-05
10170.0 1.2367e-05
10190.0 1.2468e-05
10210.0 1.2567e-05
10230.0 1.2666e-05
10250.0 1.2766e-05
10270.0 1.2867e-05
10290.0 1.2966e-05
10310.0 1.3066e-05
10330.0 1.3168e-05
10350.0 1.3267e-05
10370.0 1.3367e-05
10390.0 1.3467e-05
10410.0 1.3567e-05
10430.0 1.3665e-05
10450.0 1.3764e-05
10470.0 1.3864e-05
10490.0 1.3961e-05
10510.0 1.4058e-05
10530.0 1.4157e-05
10550.0 1.4254e-05
10570.0 1.4348e-05
10590.0 1.4444e-05
10610.0 1.4539e-05
10630.0 1.4632e-05
10650.0 1.4724e-05
10670.0 1.4818e-05
10690.0 1.4909e-05
10710.0 1.4998e-05
10730.0 1.5088e-05
10750.0 1.5178e-05
10770.0 1.5264e-05
10790.0 1.5349e-05
10810.0 1.5434e-05
10830.0 1.5517e-05
10850.0 1.5595e-05
10870.0 1.5671e-05
10890.0 1.5738e-05
10910.0 1.579e-05
10930.0 1.5819e-05
10950.0 1.5812e-05
10970.0 1.5759e-05
10990.0 1.5654e-05
11010.0 1.5457e-05
11030.0 1.5212e-05
11050.0 1.4912e-05
11070.0 1.4554e-05
11090.0 1.4123e-05
11110.0 1.3678e-05
11130.0 1.3213e-05
11150.0 1.2713e-05
11170.0 1.2197e-05
11190.0 1.1697e-05
11210.0 1.118e-05
11230.0 1.0651e-05
11250.0 1.0145e-05
11270.0 9.6586e-06
11290.0 9.1717e-06
11310.0 8.7105e-06
11330.0 8.3042e-06
11350.0 7.9205e-06
11370.0 7.5659e-06
11390.0 7.2591e-06
11410.0 6.9907e-06
11430.0 6.7413e-06
11450.0 6.5264e-06
11470.0 6.3406e-06
11490.0 6.1677e-06
11510.0 6.0012e-06
11530.0 5.8466e-06
11550.0 5.693e-06
11570.0 5.5292e-06
11590.0 5.3595e-06
11610.0 5.1868e-06
11630.0 4.9989e-06
11650.0 4.7976e-06
11670.0 4.5993e-06
11690.0 4.3982e-06
11710.0 4.1907e-06
11730.0 3.9897e-06
11750.0 3.8036e-06
11770.0 3.6211e-06
11790.0 3.4501e-06
11810.0 3.2996e-06
11830.0 3.165e-06
11850.0 3.041e-06
11870.0 2.9372e-06
11890.0 2.851e-06
11910.0 2.7752e-06
11930.0 2.7101e-06
11950.0 2.6559e-06
11970.0 2.6074e-06
11990.0 2.5616e-06
12010.0 2.5192e-06
12030.0 2.4784e-06
12050.0 2.4362e-06
12070.0 2.3923e-06
12090.0 2.35e-06
12110.0 2.307e-06
12130.0 2.2639e-06
12150.0 2.2242e-06
12170.0 2.1896e-06
12190.0 2.1596e-06
12210.0 2.1387e-06
12230.0 2.1286e-06
12250.0 2.1302e-06
12270.0 2.1463e-06
12290.0 2.1766e-06
12310.0 2.2202e-06
12330.0 2.2811e-06
12350.0 2.3572e-06
12370.0 2.4438e-06
12390.0 2.5436e-06
12410.0 2.6606e-06
12430.0 2.7795e-06
12450.0 2.9026e-06
12470.0 3.0336e-06
12490.0 3.165e-06
12510.0 3.2884e-06
12530.0 3.4111e-06
12550.0 3.5295e-06
12570.0 3.634e-06
12590.0 3.7258e-06
12610.0 3.8075e-06
12630.0 3.8727e-06
12650.0 3.9177e-06
12670.0 3.9472e-06
12690.0 3.9591e-06
12710.0 3.9526e-06
12730.0 3.9296e-06
12750.0 3.8888e-06
12770.0 3.8327e-06
12790.0 3.7647e-06
12810.0 3.6834e-06
12830.0 3.5894e-06
12850.0 3.4912e-06
12870.0 3.3872e-06
12890.0 3.2748e-06
12910.0 3.1605e-06
12930.0 3.0478e-06
12950.0 2.9302e-06
12970.0 2.8106e-06
12990.0 2.6974e-06
13010.0 2.5856e-06
13030.0 2.4725e-06
13050.0 2.3639e-06
13070.0 2.2622e-06
13090.0 2.1601e-06
13110.0 2.0614e-06
13130.0 1.9703e-06
13150.0 1.8841e-06
13170.0 1.7997e-06
13190.0 1.7246e-06
13210.0 1.6584e-06
13230.0 1.598e-06
13250.0 1.5459e-06
13270.0 1.5049e-06
13290.0 1.473e-06
13310.0 1.451e-06
13330.0 1.4409e-06
13350.0 1.4421e-06
13370.0 1.455e-06
13390.0 1.4805e-06
13410.0 1.5148e-06
13430.0 1.5594e-06
13450.0 1.6146e-06
13470.0 1.6758e-06
13490.0 1.7406e-06
13510.0 1.8137e-06
13530.0 1.8878e-06
13550.0 1.9588e-06
13570.0 2.0287e-06
13590.0 2.0969e-06
13610.0 2.1576e-06
13630.0 2.2105e-06
13650.0 2.2589e-06
13670.0 2.299e-06
13690.0 2.33e-06
13710.0 2.354e-06
13730.0 2.3712e-06
13750.0 2.3797e-06
13770.0 2.3817e-06
13790.0 2.3774e-06
13810.0 2.3669e-06
13830.0 2.3514e-06
13850.0 2.3303e-06
13870.0 2.3038e-06
13890.0 2.2735e-06
13910.0 2.2394e-06
13930.0 2.1999e-06
13950.0 2.1567e-06
13970.0 2.1126e-06
13990.0 2.0645e-06
14010.0 2.0134e-06
14030.0 1.9624e-06
14050.0 1.9111e-06
14070.0 1.8569e-06
14090.0 1.8049e-06
14110.0 1.756e-06
14130.0 1.7087e-06
14150.0 1.6642e-06
14170.0 1.6261e-06
14190.0 1.5932e-06
14210.0 1.5653e-06
14230.0 1.5447e-06
14250.0 1.5313e-06
14270.0 1.5249e-06
14290.0 1.5262e-06
14310.0 1.5348e-06
14330.0 1.55e-06
14350.0 1.5725e-06
14370.0 1.6005e-06
14390.0 1.6323e-06
14410.0 1.6698e-06
14430.0 1.7109e-06
14450.0 1.7529e-06
14470.0 1.7965e-06
14490.0 1.8429e-06
14510.0 1.8872e-06
14530.0 1.9293e-06
14550.0 1.9714e-06
14570.0 2.0118e-06
14590.0 2.0486e-06
14610.0 2.0841e-06
14630.0 2.1193e-06
14650.0 2.1521e-06
14670.0 2.1838e-06
14690.0 2.2168e-06
14710.0 2.2515e-06
14730.0 2.2862e-06
14750.0 2.3247e-06
14770.0 2.3683e-06
14790.0 2.4156e-06
14810.0 2.4668e-06
14830.0 2.5275e-06
14850.0 2.5935e-06
14870.0 2.6623e-06
14890.0 2.7366e-06
14910.0 2.8155e-06
14930.0 2.8913e-06
14950.0 2.9622e-06
14970.0 3.0292e-06
14990.0 3.0855e-06
15010.0 3.1285e-06
15030.0 3.1604e-06
15050.0 3.1815e-06
15070.0 3.1918e-06
15090.0 3.1954e-06
15110.0 3.1943e-06
15130.0 3.1903e-06
15150.0 3.1849e-06
15170.0 3.1785e-06
15190.0 3.1717e-06
15210.0 3.165e-06
15230.0 3.1582e-06
15250.0 3.1512e-06
15270.0 3.1444e-06
15290.0 3.1378e-06
15310.0 3.1311e-06
15330.0 3.1243e-06
15350.0 3.1178e-06
15370.0 3.1114e-06
15390.0 3.1046e-06
15410.0 3.098e-06
15430.0 3.0917e-06
15450.0 3.0852e-06
15470.0 3.0785e-06
15490.0 3.0723e-06
15510.0 3.066e-06
15530.0 3.0595e-06
15550.0 3.0532e-06
15570.0 3.0471e-06
15590.0 3.0407e-06
15610.0 3.0342e-06
15630.0 3.0281e-06
15650.0 3.022e-06
15670.0 3.0157e-06
15690.0 3.0095e-06
15710.0 3.0036e-06
15730.0 2.9973e-06
15750.0 2.9911e-06
15770.0 2.9851e-06
15790.0 2.9791e-06
15810.0 2.9728e-06
15830.0 2.9668e-06
15850.0 2.9609e-06
15870.0 2.9548e-06
15890.0 2.9487e-06
15910.0 2.9429e-06
15930.0 2.9369e-06
15950.0 2.9307e-06
15970.0 2.9248e-06
15990.0 2.9189e-06
16010.0 2.9128e-06
16030.0 2.9067e-06
16050.0 2.901e-06
16070.0 2.8951e-06
16090.0 2.889e-06
16110.0 2.8831e-06
16130.0 2.8774e-06
16150.0 2.8712e-06
16170.0 2.8652e-06
16190.0 2.8594e-06
16210.0 2.8534e-06
16230.0 2.8473e-06
16250.0 2.8415e-06
16270.0 2.8357e-06
16290.0 2.8297e-06
16310.0 2.8237e-06
16330.0 2.8179e-06
16350.0 2.8119e-06
16370.0 2.8057e-06
16390.0 2.7998e-06
16410.0 2.794e-06
16430.0 2.7879e-06
16450.0 2.7819e-06
16470.0 2.7761e-06
16490.0 2.7701e-06
16510.0 2.7639e-06
16530.0 2.758e-06
16550.0 2.7521e-06
16570.0 2.7459e-06
16590.0 2.7397e-06
16610.0 2.7339e-06
16630.0 2.7278e-06
16650.0 2.7216e-06
16670.0 2.7157e-06
16690.0 2.7097e-06
16710.0 2.7034e-06
16730.0 2.6973e-06
16750.0 2.6913e-06
16770.0 2.6851e-06
16790.0 2.6788e-06
16810.0 2.6728e-06
16830.0 2.6667e-06
16850.0 2.6603e-06
16870.0 2.6541e-06
16890.0 2.6481e-06
16910.0 2.6418e-06
16930.0 2.6353e-06
16950.0 2.6292e-06
16970.0 2.623e-06
16990.0 2.6165e-06
17010.0 2.6102e-06
17030.0 2.6041e-06
17050.0 2.5977e-06
17070.0 2.5912e-06
17090.0 2.585e-06
17110.0 2.5786e-06
17130.0 2.572e-06
17150.0 2.5656e-06
17170.0 2.5593e-06
17190.0 2.5528e-06
17210.0 2.5462e-06
17230.0 2.5399e-06
17250.0 2.5334e-06
17270.0 2.5267e-06
17290.0 2.5202e-06
17310.0 2.5138e-06
17330.0 2.5071e-06
17350.0 2.5003e-06
17370.0 2.494e-06
17390.0 2.4874e-06
17410.0 2.4806e-06
17430.0 2.474e-06
17450.0 2.4675e-06
17470.0 2.4606e-06
17490.0 2.4538e-06
17510.0 2.4472e-06
17530.0 2.4405e-06
17550.0 2.4336e-06
17570.0 2.4269e-06
17590.0 2.4203e-06
17610.0 2.4133e-06
17630.0 2.4065e-06
17650.0 2.3998e-06
17670.0 2.393e-06
17690.0 2.3858e-06
17710.0 2.3791e-06
17730.0 2.3723e-06
17750.0 2.3652e-06
17770.0 2.3583e-06
17790.0 2.3516e-06
17810.0 2.3446e-06
17830.0 2.3374e-06
17850.0 2.3305e-06
17870.0 2.3236e-06
17890.0 2.3164e-06
17910.0 2.3093e-06
17930.0 2.3025e-06
17950.0 2.2954e-06
17970.0 2.2883e-06
17990.0 2.2813e-06
18010.0 2.2744e-06
18030.0 2.267e-06
18050.0 2.2599e-06
18070.0 2.2529e-06
18090.0 2.2457e-06
18110.0 2.2384e-06
18130.0 2.2314e-06
18150.0 2.2243e-06
18170.0 2.217e-06
18190.0 2.2098e-06
18210.0 2.2028e-06
18230.0 2.1954e-06
18250.0 2.188e-06
18270.0 2.181e-06
18290.0 2.1738e-06
18310.0 2.1664e-06
18330.0 2.1592e-06
18350.0 2.1521e-06
18370.0 2.1447e-06
18390.0 2.1373e-06
18410.0 2.1301e-06
18430.0 2.1229e-06
18450.0 2.1153e-06
18470.0 2.108e-06
18490.0 2.1009e-06
18510.0 2.0935e-06
18530.0 2.0861e-06
18550.0 2.0789e-06
18570.0 2.0716e-06
18590.0 2.064e-06
18610.0 2.0567e-06
18630.0 2.0494e-06
18650.0 2.0419e-06
18670.0 2.0344e-06
18690.0 2.0273e-06
18710.0 2.0199e-06
18730.0 2.0124e-06
18750.0 2.005e-06
18770.0 1.9978e-06
18790.0 1.9901e-06
18810.0 1.9827e-06
18830.0 1.9754e-06
18850.0 1.968e-06
18870.0 1.9604e-06
18890.0 1.9531e-06
18910.0 1.9458e-06
18930.0 1.9383e-06
18950.0 1.9308e-06
18970.0 1.9235e-06
18990.0 1.9161e-06
19010.0 1.9083e-06
19030.0 1.9011e-06
19050.0 1.8937e-06
19070.0 1.8862e-06
19090.0 1.8787e-06
19110.0 1.8715e-06
19130.0 1.864e-06
19150.0 1.8564e-06
19170.0 1.849e-06
19190.0 1.8417e-06
19210.0 1.834e-06
19230.0 1.8265e-06
19250.0 1.8193e-06
19270.0 1.8118e-06
19290.0 1.8043e-06
19310.0 1.797e-06
19330.0 1.7897e-06
19350.0 1.7819e-06
19370.0 1.7745e-06
19390.0 1.7672e-06
19410.0 1.7597e-06
19430.0 1.7522e-06
19450.0 1.7449e-06
19470.0 1.7376e-06
19490.0 1.73e-06
19510.0 1.7226e-06
19530.0 1.7154e-06
19550.0 1.7078e-06
19570.0 1.7002e-06
19590.0 1.693e-06
19610.0 1.6856e-06
19630.0 1.6781e-06
19650.0 1.6707e-06
19670.0 1.6635e-06
19690.0 1.656e-06
19710.0 1.6485e-06
19730.0 1.6413e-06
19750.0 1.6339e-06
19770.0 1.6263e-06
19790.0 1.619e-06
19810.0 1.6117e-06
19830.0 1.6042e-06
19850.0 1.5967e-06
19870.0 1.5893e-06
19890.0 1.5814e-06
19910.0 1.5727e-06
19930.0 1.5633e-06
19950.0 1.5526e-06
19970.0 1.5395e-06
19990.0 1.5237e-06
20010.0 1.3556e-06
20030.0 1.336e-06
20050.0 1.313e-06
20070.0 1.2882e-06
20090.0 1.2614e-06
20110.0 1.2311e-06
20130.0 1.2005e-06
20150.0 1.1701e-06
20170.0 1.1386e-06
20190.0 1.1067e-06
20210.0 1.0765e-06
20230.0 1.0471e-06
20250.0 1.0176e-06
20270.0 9.9021e-07
20290.0 9.6523e-07
20310.0 9.4148e-07
20330.0 9.1929e-07
20350.0 9.0087e-07
20370.0 8.8452e-07
20390.0 8.7018e-07
20410.0 8.5861e-07
20430.0 8.4968e-07
20450.0 8.4261e-07
20470.0 8.3787e-07
20490.0 8.3532e-07
20510.0 8.3459e-07
20530.0 8.3562e-07
20550.0 8.382e-07
20570.0 8.4195e-07
20590.0 8.4704e-07
20610.0 8.5319e-07
20630.0 8.5997e-07
20650.0 8.6755e-07
20670.0 8.7622e-07
20690.0 8.8505e-07
20710.0 8.9419e-07
20730.0 9.0404e-07
20750.0 9.1433e-07
20770.0 9.2445e-07
20790.0 9.3507e-07
20810.0 9.4631e-07
20830.0 9.575e-07
20850.0 9.6873e-07
20870.0 9.8076e-07
20890.0 9.9302e-07
20910.0 1.0049e-06
20930.0 1.0171e-06
20950.0 1.0298e-06
20970.0 1.0422e-06
20990.0 1.0545e-06
21010.0 1.0673e-06
21030.0 1.0799e-06
21050.0 1.0919e-06
21070.0 1.1039e-06
21090.0 1.1159e-06
21110.0 1.1269e-06
21130.0 1.1372e-06
21150.0 1.1472e-06
21170.0 1.1562e-06
21190.0 1.164e-06
21210.0 1.171e-06
21230.0 1.1768e-06
21250.0 1.1809e-06
21270.0 1.1836e-06
21290.0 1.1845e-06
21310.0 1.1836e-06
21330.0 1.1808e-06
21350.0 1.1759e-06
21370.0 1.1687e-06
21390.0 1.1595e-06
21410.0 1.1483e-06
21430.0 1.1341e-06
21450.0 1.1182e-06
21470.0 1.1009e-06
21490.0 1.0812e-06
21510.0 1.0597e-06
21530.0 1.0379e-06
21550.0 1.0149e-06
21570.0 9.9051e-07
21590.0 9.6648e-07
21610.0 9.4326e-07
21630.0 9.2001e-07
21650.0 8.973e-07
21670.0 8.7762e-07
21690.0 8.5946e-07
21710.0 8.4311e-07
21730.0 8.2972e-07
21750.0 8.1939e-07
21770.0 8.1152e-07
21790.0 8.0699e-07
21810.0 8.0574e-07
21830.0 8.0753e-07
21850.0 8.1257e-07
21870.0 8.2045e-07
21890.0 8.3061e-07
21910.0 8.4366e-07
21930.0 8.5895e-07
21950.0 8.7553e-07
21970.0 8.9389e-07
21990.0 9.1449e-07
22010.0 9.3509e-07
22030.0 9.56e-07
22050.0 9.7797e-07
22070.0 1.0001e-06
22090.0 1.021e-06
22110.0 1.042e-06
22130.0 1.0631e-06
22150.0 1.0828e-06
22170.0 1.1013e-06
22190.0 1.1197e-06
22210.0 1.1367e-06
22230.0 1.1518e-06
22250.0 1.166e-06
22270.0 1.179e-06
22290.0 1.1901e-06
22310.0 1.1997e-06
22330.0 1.2081e-06
22350.0 1.2146e-06
22370.0 1.2192e-06
22390.0 1.2221e-06
22410.0 1.223e-06
22430.0 1.2219e-06
22450.0 1.2187e-06
22470.0 1.2133e-06
22490.0 1.2056e-06
22510.0 1.1961e-06
22530.0 1.1839e-06
22550.0 1.1691e-06
22570.0 1.1527e-06
22590.0 1.1341e-06
22610.0 1.1128e-06
