#lamb flux
1010.0 8.5352e-06
1030.0 1.1551e-05
1050.0 1.5627e-05
1070.0 2.1003e-05
1090.0 2.8057e-05
1110.0 3.668e-05
1130.0 4.6905e-05
1150.0 5.904e-05
1170.0 7.3105e-05
1190.0 8.8377e-05
1210.0 0.00010511
1230.0 0.00012323
1250.0 0.00014186
1270.0 0.00016033
1290.0 0.00017897
1310.0 0.0001966
1330.0 0.00021208
1350.0 0.00022542
1370.0 0.00023637
1390.0 0.00024385
1410.0 0.00024758
1430.0 0.00024832
1450.0 0.00024559
1470.0 0.00023928
1490.0 0.00023022
1510.0 0.00021913
1530.0 0.00020556
1550.0 0.00019042
1570.0 0.00017445
1590.0 0.00015791
1610.0 0.00014103
1630.0 0.00012453
1650.0 0.00010862
1670.0 9.3316e-05
1690.0 7.8889e-05
1710.0 6.5543e-05
1730.0 5.3242e-05
1750.0 4.1951e-05
1770.0 3.1794e-05
1790.0 2.2711e-05
1810.0 1.4637e-05
1830.0 7.554e-06
1850.0 3.4276e-06
1870.0 1.7931e-06
1890.0 4.2922e-07
1910.0 1e-99
1930.0 1e-99
1950.0 1e-99
1970.0 1e-99
1990.0 1e-99
2010.0 1e-99
2030.0 1e-99
2050.0 1e-99
2070.0 1e-99
2090.0 1e-99
2110.0 1e-99
2130.0 9.7799e-07
2150.0 2.1566e-06
2170.0 3.466e-06
2190.0 4.8981e-06
2210.0 7.9057e-06
2230.0 1.2862e-05
2250.0 1.8086e-05
2270.0 2.3558e-05
2290.0 2.9218e-05
2310.0 3.501e-05
2330.0 4.0926e-05
2350.0 4.6916e-05
2370.0 5.29e-05
2390.0 5.886e-05
2410.0 6.4778e-05
2430.0 7.0531e-05
2450.0 7.6058e-05
2470.0 8.1333e-05
2490.0 8.628e-05
2510.0 9.0821e-05
2530.0 9.5067e-05
2550.0 9.9231e-05
2570.0 0.00010364
2590.0 0.00010879
2610.0 0.0001158
2630.0 0.00012563
2650.0 0.00013876
2670.0 0.00015649
2690.0 0.00018011
2710.0 0.00020822
2730.0 0.00023955
2750.0 0.00027507
2770.0 0.00031083
2790.0 0.00034288
2810.0 0.00037101
2830.0 0.00039489
2850.0 0.00041008
2870.0 0.00041902
2890.0 0.00042373
2910.0 0.00042419
2930.0 0.0004205
2950.0 0.00041516
2970.0 0.00040831
2990.0 0.00039923
3010.0 0.00038879
3030.0 0.00037817
3050.0 0.00036696
3070.0 0.00035439
3090.0 0.00034219
3110.0 0.00033043
3130.0 0.00031885
3150.0 0.00028513
3170.0 0.00025734
3190.0 0.00022761
3210.0 0.00019962
3230.0 0.00018322
3250.0 0.0002184
3270.0 0.00032844
3290.0 0.00037684
3310.0 0.00022257
3330.0 0.00020316
3350.0 0.00021467
3370.0 0.0002305
3390.0 0.0002448
3410.0 0.00024873
3430.0 0.00024445
3450.0 0.00023784
3470.0 0.00023546
3490.0 0.00021826
3510.0 0.00013789
3530.0 2.8728e-05
3550.0 1.433e-05
3570.0 0.00017887
3590.0 0.00046325
3610.0 0.00060673
3630.0 0.00098918
3650.0 0.0010628
3670.0 0.00083934
3690.0 0.00055737
3710.0 0.00038831
3730.0 0.00040103
3750.0 0.00042843
3770.0 0.00044342
3790.0 0.00045546
3810.0 0.00058256
3830.0 0.00052371
3850.0 0.00037806
3870.0 0.00029478
3890.0 0.00041087
3910.0 0.00049766
3930.0 0.00050218
3950.0 0.00055794
3970.0 0.00062055
3990.0 0.00058745
4010.0 0.00064794
4030.0 0.00061603
4050.0 0.00057102
4070.0 0.00053442
4090.0 0.00054548
4110.0 0.00058185
4130.0 0.00057364
4150.0 0.00053495
4170.0 0.00051138
4190.0 0.0005315
4210.0 0.00046961
4230.0 0.00041878
4250.0 0.0003466
4270.0 0.00026449
4290.0 0.00026735
4310.0 0.00025656
4330.0 0.00025398
4350.0 0.00035117
4370.0 0.000355
4390.0 0.00042799
4410.0 0.00047456
4430.0 0.00052161
4450.0 0.00045091
4470.0 0.00036018
4490.0 0.00033921
4510.0 0.00030789
4530.0 0.00028647
4550.0 0.00026175
4570.0 0.00025487
4590.0 0.00025985
4610.0 0.0002134
4630.0 0.00018474
4650.0 0.00014804
4670.0 0.0001454
4690.0 0.00010951
4710.0 8.826e-05
4730.0 5.2167e-05
4750.0 3.3965e-05
4770.0 7.6434e-06
4790.0 9.2039e-06
4810.0 7.6033e-06
4830.0 1e-99
4850.0 1e-99
4870.0 1e-99
4890.0 1e-99
4910.0 4.2641e-06
4930.0 9.8736e-06
4950.0 1e-99
4970.0 1e-99
4990.0 1e-99
5010.0 1e-99
5030.0 1e-99
5050.0 1e-99
5070.0 1e-99
5090.0 1e-99
5110.0 1e-99
5130.0 1e-99
5150.0 1e-99
5170.0 1e-99
5190.0 1e-99
5210.0 1e-99
5230.0 1e-99
5250.0 1e-99
5270.0 2.6064e-05
5290.0 2.2276e-05
5310.0 3.2847e-06
5330.0 6.0062e-06
5350.0 1e-99
5370.0 1e-99
5390.0 3.8053e-06
5410.0 1.0399e-06
5430.0 1.4563e-05
5450.0 1e-99
5470.0 1e-99
5490.0 6.4912e-05
5510.0 6.3017e-05
5530.0 6.6319e-05
5550.0 5.4408e-05
5570.0 8.0457e-05
5590.0 0.00011493
5610.0 0.00011774
5630.0 0.00010477
5650.0 0.00010937
5670.0 0.0001088
5690.0 0.0001212
5710.0 9.6873e-05
5730.0 0.00011142
5750.0 0.00011297
5770.0 0.00010337
5790.0 0.0001362
5810.0 0.00015733
5830.0 0.00014291
5850.0 0.00010145
5870.0 7.9733e-05
5890.0 7.8687e-05
5910.0 0.0001077
5930.0 9.8533e-05
5950.0 0.00011141
5970.0 0.00011428
5990.0 0.0001298
6010.0 0.00012214
6030.0 0.00012905
6050.0 0.00012601
6070.0 0.0001031
6090.0 0.00011893
6110.0 0.00012751
6130.0 0.00011504
6150.0 0.00011762
6170.0 0.00012394
6190.0 8.3398e-05
6210.0 8.8516e-05
6230.0 0.00010129
6250.0 9.9933e-05
6270.0 9.914e-05
6290.0 0.00011536
6310.0 0.00013609
6330.0 0.00013942
6350.0 0.00013397
6370.0 0.00014099
6390.0 0.00011823
6410.0 0.00012603
6430.0 0.00011455
6450.0 0.00012025
6470.0 0.0001264
6490.0 0.00013039
6510.0 0.00010969
6530.0 0.00011385
6550.0 0.00011222
6570.0 0.00010002
6590.0 0.00011254
6610.0 0.00011384
6630.0 0.00011482
6650.0 0.00010281
6670.0 9.5739e-05
6690.0 9.1116e-05
6710.0 8.4723e-05
6730.0 7.9838e-05
6750.0 8.0244e-05
6770.0 6.7692e-05
6790.0 1.5823e-05
6810.0 3.1744e-05
6830.0 6.6051e-05
6850.0 5.2646e-05
6870.0 5.2087e-05
6890.0 4.9945e-05
6910.0 4.8685e-05
6930.0 4.3509e-05
6950.0 5.1713e-05
6970.0 4.9336e-05
6990.0 4.8558e-05
7010.0 4.7049e-05
7030.0 5.4592e-05
7050.0 5.4105e-05
7070.0 3.1753e-05
7090.0 1.1867e-05
7110.0 9.4899e-06
7130.0 1.2906e-05
7150.0 1.6779e-05
7170.0 1.5843e-05
7190.0 8.231e-06
7210.0 2.2095e-05
7230.0 3.9001e-05
7250.0 3.6764e-05
7270.0 3.8908e-05
7290.0 4.6595e-05
7310.0 3.1796e-05
7330.0 2.77e-05
7350.0 2.3745e-05
7370.0 3.6725e-05
7390.0 5.3105e-05
7410.0 2.7561e-05
7430.0 3.1193e-05
7450.0 2.9421e-05
7470.0 4.4595e-05
7490.0 4.8125e-05
7510.0 3.5248e-05
7530.0 4.4297e-05
7550.0 5.1405e-06
7570.0 2.1738e-06
7590.0 1.766e-05
7610.0 3.9178e-05
7630.0 2.5223e-05
7650.0 3.7597e-05
7670.0 7.6537e-06
7690.0 1e-99
7710.0 2.353e-06
7730.0 1.7558e-05
7750.0 2.1898e-06
7770.0 2.4593e-05
7790.0 3.6938e-05
7810.0 1.8173e-05
7830.0 3.3541e-05
7850.0 8.1089e-06
7870.0 2.8447e-05
7890.0 1.4712e-05
7910.0 1.542e-05
7930.0 3.235e-06
7950.0 1e-99
7970.0 1.6404e-06
7990.0 1.1755e-05
8010.0 0.00012104
8030.0 0.0001165
8050.0 0.00011449
8070.0 0.00011178
8090.0 0.00010578
8110.0 0.00010198
8130.0 0.00011153
8150.0 0.00011958
8170.0 0.00012441
8190.0 0.00013164
8210.0 0.00012468
8230.0 0.00012447
8250.0 0.00012292
8270.0 0.00012556
8290.0 0.00012518
8310.0 0.00011821
8330.0 0.00011202
8350.0 0.00011628
8370.0 0.00011917
8390.0 0.00011555
8410.0 0.00011426
8430.0 0.00010987
8450.0 0.0001053
8470.0 0.0001147
8490.0 0.00011515
8510.0 0.00010679
8530.0 0.00010871
8550.0 0.00010756
8570.0 9.7823e-05
8590.0 0.00010005
8610.0 9.9369e-05
8630.0 0.0001052
8650.0 0.00010592
8670.0 0.00010767
8690.0 0.00010504
8710.0 0.00010388
8730.0 9.8547e-05
8750.0 9.5615e-05
8770.0 9.4453e-05
8790.0 0.00010158
8810.0 9.3378e-05
8830.0 9.0982e-05
8850.0 9.7595e-05
8870.0 9.2249e-05
8890.0 8.376e-05
8910.0 8.3025e-05
8930.0 8.6765e-05
8950.0 7.8105e-05
8970.0 7.4533e-05
8990.0 7.271e-05
9010.0 6.784e-05
9030.0 6.6742e-05
9050.0 6.6457e-05
9070.0 6.6215e-05
9090.0 6.5969e-05
9110.0 6.5723e-05
9130.0 6.5473e-05
9150.0 6.5218e-05
9170.0 6.4961e-05
9190.0 6.4702e-05
9210.0 6.4441e-05
9230.0 6.4177e-05
9250.0 6.3912e-05
9270.0 6.3645e-05
9290.0 6.3376e-05
9310.0 6.3162e-05
9330.0 6.3034e-05
9350.0 6.2904e-05
9370.0 6.277e-05
9390.0 6.2632e-05
9410.0 6.2491e-05
9430.0 6.235e-05
9450.0 6.2202e-05
9470.0 6.2085e-05
9490.0 6.1949e-05
9510.0 6.1776e-05
9530.0 6.1602e-05
9550.0 6.1436e-05
9570.0 6.1271e-05
9590.0 6.1101e-05
9610.0 6.1026e-05
9630.0 6.0962e-05
9650.0 6.089e-05
9670.0 6.0808e-05
9690.0 6.0729e-05
9710.0 6.0647e-05
9730.0 6.0555e-05
9750.0 6.0461e-05
9770.0 6.0373e-05
9790.0 6.0274e-05
9810.0 6.0168e-05
9830.0 6.0065e-05
9850.0 5.9919e-05
9870.0 5.9732e-05
9890.0 5.9663e-05
9910.0 5.9574e-05
9930.0 5.9447e-05
9950.0 5.9328e-05
9970.0 5.9217e-05
9990.0 5.9098e-05
10010.0 5.897e-05
10030.0 5.8839e-05
10050.0 5.8704e-05
10070.0 5.8565e-05
10090.0 5.8424e-05
10110.0 5.8281e-05
10130.0 5.8137e-05
10150.0 5.7989e-05
10170.0 5.784e-05
10190.0 5.769e-05
10210.0 5.7538e-05
10230.0 5.7383e-05
10250.0 5.7229e-05
10270.0 5.7072e-05
10290.0 5.6914e-05
10310.0 5.6754e-05
10330.0 5.6595e-05
10350.0 5.6433e-05
10370.0 5.6271e-05
10390.0 5.6105e-05
10410.0 5.5899e-05
10430.0 5.5679e-05
10450.0 5.5559e-05
10470.0 5.5414e-05
10490.0 5.5262e-05
10510.0 5.5105e-05
10530.0 5.494e-05
10550.0 5.4773e-05
10570.0 5.4608e-05
10590.0 5.444e-05
10610.0 5.427e-05
10630.0 5.4103e-05
10650.0 5.3936e-05
10670.0 5.3765e-05
10690.0 5.3596e-05
10710.0 5.3429e-05
10730.0 5.326e-05
10750.0 5.3088e-05
10770.0 5.2923e-05
10790.0 5.2757e-05
10810.0 5.2588e-05
10830.0 5.2421e-05
10850.0 5.2257e-05
10870.0 5.2087e-05
10890.0 5.1915e-05
10910.0 5.1742e-05
10930.0 5.1562e-05
10950.0 5.1366e-05
10970.0 5.1158e-05
10990.0 5.0936e-05
11010.0 4.3788e-05
11030.0 4.3527e-05
11050.0 4.3189e-05
11070.0 4.2787e-05
11090.0 4.2323e-05
11110.0 4.1829e-05
11130.0 4.1313e-05
11150.0 4.0775e-05
11170.0 4.0225e-05
11190.0 3.9679e-05
11210.0 3.9123e-05
11230.0 3.8559e-05
11250.0 3.8002e-05
11270.0 3.7452e-05
11290.0 3.6896e-05
11310.0 3.6348e-05
11330.0 3.5823e-05
11350.0 3.5303e-05
11370.0 3.4792e-05
11390.0 3.4301e-05
11410.0 3.3827e-05
11430.0 3.3357e-05
11450.0 3.2903e-05
11470.0 3.2466e-05
11490.0 3.2036e-05
11510.0 3.161e-05
11530.0 3.1198e-05
11550.0 3.0791e-05
11570.0 3.0384e-05
11590.0 2.998e-05
11610.0 2.9582e-05
11630.0 2.918e-05
11650.0 2.8774e-05
11670.0 2.8372e-05
11690.0 2.7969e-05
11710.0 2.7559e-05
11730.0 2.7148e-05
11750.0 2.674e-05
11770.0 2.6325e-05
11790.0 2.5905e-05
11810.0 2.549e-05
11830.0 2.5076e-05
11850.0 2.4654e-05
11870.0 2.4241e-05
11890.0 2.3838e-05
11910.0 2.3437e-05
11930.0 2.3043e-05
11950.0 2.2667e-05
11970.0 2.2301e-05
11990.0 2.1944e-05
12010.0 2.1606e-05
12030.0 2.1288e-05
12050.0 2.0984e-05
12070.0 2.0698e-05
12090.0 2.0434e-05
12110.0 2.0187e-05
12130.0 1.9959e-05
12150.0 1.9748e-05
12170.0 1.9554e-05
12190.0 1.9376e-05
12210.0 1.9212e-05
12230.0 1.9058e-05
12250.0 1.8914e-05
12270.0 1.8779e-05
12290.0 1.8648e-05
12310.0 1.8519e-05
12330.0 1.8392e-05
12350.0 1.8265e-05
12370.0 1.8133e-05
12390.0 1.7998e-05
12410.0 1.7859e-05
12430.0 1.771e-05
12450.0 1.7554e-05
12470.0 1.7389e-05
12490.0 1.7214e-05
12510.0 1.7031e-05
12530.0 1.6836e-05
12550.0 1.663e-05
12570.0 1.6415e-05
12590.0 1.6192e-05
12610.0 1.5955e-05
12630.0 1.5708e-05
12650.0 1.5459e-05
12670.0 1.52e-05
12690.0 1.4931e-05
12710.0 1.4662e-05
12730.0 1.4391e-05
12750.0 1.4107e-05
12770.0 1.3826e-05
12790.0 1.3549e-05
12810.0 1.3269e-05
12830.0 1.2987e-05
12850.0 1.2716e-05
12870.0 1.245e-05
12890.0 1.2184e-05
12910.0 1.1928e-05
12930.0 1.1687e-05
12950.0 1.1449e-05
12970.0 1.1222e-05
12990.0 1.1015e-05
13010.0 1.0823e-05
13030.0 1.0644e-05
13050.0 1.0485e-05
13070.0 1.0346e-05
13090.0 1.0222e-05
13110.0 1.0117e-05
13130.0 1.0031e-05
13150.0 9.9617e-06
13170.0 9.9083e-06
13190.0 9.8709e-06
13210.0 9.8469e-06
13230.0 9.8361e-06
13250.0 9.8375e-06
13270.0 9.8476e-06
13290.0 9.8668e-06
13310.0 9.8956e-06
13330.0 9.9286e-06
13350.0 9.9644e-06
13370.0 1.0004e-05
13390.0 1.0045e-05
13410.0 1.008e-05
13430.0 1.0113e-05
13450.0 1.0142e-05
13470.0 1.0164e-05
13490.0 1.0179e-05
13510.0 1.0189e-05
13530.0 1.0191e-05
13550.0 1.0187e-05
13570.0 1.0177e-05
13590.0 1.0163e-05
13610.0 1.0145e-05
13630.0 1.0125e-05
13650.0 1.0101e-05
13670.0 1.0073e-05
13690.0 1.0043e-05
13710.0 1.0008e-05
13730.0 9.9663e-06
13750.0 9.9221e-06
13770.0 9.8728e-06
13790.0 9.8146e-06
13810.0 9.7498e-06
13830.0 9.6828e-06
13850.0 9.6066e-06
13870.0 9.5223e-06
13890.0 9.4372e-06
13910.0 9.3497e-06
13930.0 9.255e-06
13950.0 9.16e-06
13970.0 9.0723e-06
13990.0 8.9827e-06
14010.0 8.894e-06
14030.0 8.8137e-06
14050.0 8.7392e-06
14070.0 8.6639e-06
14090.0 8.5979e-06
14110.0 8.5409e-06
14130.0 8.4873e-06
14150.0 8.4373e-06
14170.0 8.3971e-06
14190.0 8.3616e-06
14210.0 8.3274e-06
14230.0 8.2985e-06
14250.0 8.2752e-06
14270.0 8.2521e-06
14290.0 8.2306e-06
14310.0 8.2157e-06
14330.0 8.2032e-06
14350.0 8.1916e-06
14370.0 8.1846e-06
14390.0 8.1829e-06
14410.0 8.1822e-06
14430.0 8.185e-06
14450.0 8.1932e-06
14470.0 8.2044e-06
14490.0 8.2167e-06
14510.0 8.2336e-06
14530.0 8.2539e-06
14550.0 8.2747e-06
14570.0 8.2966e-06
14590.0 8.3209e-06
14610.0 8.3451e-06
14630.0 8.3679e-06
14650.0 8.3918e-06
14670.0 8.416e-06
14690.0 8.4383e-06
14710.0 8.4591e-06
14730.0 8.4814e-06
14750.0 8.5016e-06
14770.0 8.5193e-06
14790.0 8.5364e-06
14810.0 8.5527e-06
14830.0 8.5639e-06
14850.0 8.5735e-06
14870.0 8.5829e-06
14890.0 8.5894e-06
14910.0 8.5932e-06
14930.0 8.5985e-06
14950.0 8.6057e-06
14970.0 8.6128e-06
14990.0 8.6238e-06
15010.0 8.6403e-06
15030.0 8.6602e-06
15050.0 8.6826e-06
15070.0 8.7103e-06
15090.0 8.7402e-06
15110.0 8.7705e-06
15130.0 8.8016e-06
15150.0 8.8337e-06
15170.0 8.8646e-06
15190.0 8.8946e-06
15210.0 8.9247e-06
15230.0 8.9541e-06
15250.0 8.9819e-06
15270.0 9.0091e-06
15290.0 9.0366e-06
15310.0 9.0624e-06
15330.0 9.0871e-06
15350.0 9.1117e-06
15370.0 9.1355e-06
15390.0 9.1571e-06
15410.0 9.1784e-06
15430.0 9.1994e-06
15450.0 9.2189e-06
15470.0 9.2368e-06
15490.0 9.2549e-06
15510.0 9.2719e-06
15530.0 9.287e-06
15550.0 9.3016e-06
15570.0 9.3158e-06
15590.0 9.3279e-06
15610.0 9.3386e-06
15630.0 9.3495e-06
15650.0 9.3591e-06
15670.0 9.3668e-06
15690.0 9.374e-06
15710.0 9.3809e-06
15730.0 9.3855e-06
15750.0 9.389e-06
15770.0 9.3923e-06
15790.0 9.3943e-06
15810.0 9.3939e-06
15830.0 9.3935e-06
15850.0 9.3927e-06
15870.0 9.3898e-06
15890.0 9.3857e-06
15910.0 9.3816e-06
15930.0 9.3759e-06
15950.0 9.3681e-06
15970.0 9.3602e-06
15990.0 9.3516e-06
16010.0 9.3411e-06
16030.0 9.3292e-06
16050.0 9.3178e-06
16070.0 9.3046e-06
16090.0 9.2898e-06
16110.0 9.2747e-06
16130.0 9.2591e-06
16150.0 9.2409e-06
16170.0 9.2222e-06
16190.0 9.2035e-06
16210.0 9.1832e-06
16230.0 9.1613e-06
16250.0 9.1395e-06
16270.0 9.1171e-06
16290.0 9.0925e-06
16310.0 9.0674e-06
16330.0 9.0422e-06
16350.0 9.0155e-06
16370.0 8.9868e-06
16390.0 8.9589e-06
16410.0 8.9301e-06
16430.0 8.8996e-06
16450.0 8.8686e-06
16470.0 8.8379e-06
16490.0 8.8052e-06
16510.0 8.7715e-06
16530.0 8.7379e-06
16550.0 8.7036e-06
16570.0 8.6676e-06
16590.0 8.6312e-06
16610.0 8.5953e-06
16630.0 8.5579e-06
16650.0 8.5195e-06
16670.0 8.4813e-06
16690.0 8.4426e-06
16710.0 8.4018e-06
16730.0 8.3613e-06
16750.0 8.3209e-06
16770.0 8.2792e-06
16790.0 8.2365e-06
16810.0 8.1946e-06
16830.0 8.1519e-06
16850.0 8.1079e-06
16870.0 8.064e-06
16890.0 8.0202e-06
16910.0 7.9749e-06
16930.0 7.9289e-06
16950.0 7.8838e-06
16970.0 7.8381e-06
16990.0 7.7911e-06
17010.0 7.7445e-06
17030.0 7.6982e-06
17050.0 7.6504e-06
17070.0 7.6023e-06
17090.0 7.5549e-06
17110.0 7.5068e-06
17130.0 7.4574e-06
17150.0 7.4088e-06
17170.0 7.3604e-06
17190.0 7.311e-06
17210.0 7.2613e-06
17230.0 7.2125e-06
17250.0 7.1628e-06
17270.0 7.1122e-06
17290.0 7.0623e-06
17310.0 7.0126e-06
17330.0 6.962e-06
17350.0 6.9111e-06
17370.0 6.8614e-06
17390.0 6.8109e-06
17410.0 6.7599e-06
17430.0 6.7095e-06
17450.0 6.6594e-06
17470.0 6.6079e-06
17490.0 6.5568e-06
17510.0 6.5066e-06
17530.0 6.4559e-06
17550.0 6.4046e-06
17570.0 6.3543e-06
17590.0 6.3041e-06
17610.0 6.253e-06
17630.0 6.2024e-06
17650.0 6.1524e-06
17670.0 6.1019e-06
17690.0 6.0506e-06
17710.0 6.0009e-06
17730.0 5.9511e-06
17750.0 5.9007e-06
17770.0 5.8508e-06
17790.0 5.8017e-06
17810.0 5.7518e-06
17830.0 5.7019e-06
17850.0 5.6528e-06
17870.0 5.604e-06
17890.0 5.5544e-06
17910.0 5.5054e-06
17930.0 5.4574e-06
17950.0 5.4089e-06
17970.0 5.3603e-06
17990.0 5.3127e-06
18010.0 5.2652e-06
18030.0 5.2168e-06
18050.0 5.1694e-06
18070.0 5.1227e-06
18090.0 5.0756e-06
18110.0 5.0285e-06
18130.0 4.9825e-06
18150.0 4.9366e-06
18170.0 4.8903e-06
18190.0 4.8446e-06
18210.0 4.7997e-06
18230.0 4.7542e-06
18250.0 4.7088e-06
18270.0 4.6647e-06
18290.0 4.6205e-06
18310.0 4.5761e-06
18330.0 4.5325e-06
18350.0 4.4896e-06
18370.0 4.4461e-06
18390.0 4.403e-06
18410.0 4.3608e-06
18430.0 4.3187e-06
18450.0 4.276e-06
18470.0 4.2345e-06
18490.0 4.1937e-06
18510.0 4.1525e-06
18530.0 4.1116e-06
18550.0 4.0718e-06
18570.0 4.0317e-06
18590.0 3.9914e-06
18610.0 3.9521e-06
18630.0 3.9134e-06
18650.0 3.8743e-06
18670.0 3.8355e-06
18690.0 3.798e-06
18710.0 3.7602e-06
18730.0 3.7225e-06
18750.0 3.6856e-06
18770.0 3.6492e-06
18790.0 3.6121e-06
18810.0 3.5758e-06
18830.0 3.5404e-06
18850.0 3.5049e-06
18870.0 3.4694e-06
18890.0 3.4349e-06
18910.0 3.4008e-06
18930.0 3.3663e-06
18950.0 3.3324e-06
18970.0 3.2993e-06
18990.0 3.2661e-06
19010.0 3.2325e-06
19030.0 3.2004e-06
19050.0 3.1685e-06
19070.0 3.1363e-06
19090.0 3.1048e-06
19110.0 3.0741e-06
19130.0 3.0429e-06
19150.0 3.012e-06
19170.0 2.982e-06
19190.0 2.9522e-06
19210.0 2.9222e-06
19230.0 2.8927e-06
19250.0 2.8642e-06
19270.0 2.8354e-06
19290.0 2.8068e-06
19310.0 2.779e-06
19330.0 2.7513e-06
19350.0 2.7232e-06
19370.0 2.696e-06
19390.0 2.6694e-06
19410.0 2.6426e-06
19430.0 2.6159e-06
19450.0 2.5902e-06
19470.0 2.5646e-06
19490.0 2.5387e-06
19510.0 2.5135e-06
19530.0 2.4889e-06
19550.0 2.4638e-06
19570.0 2.439e-06
19590.0 2.4151e-06
19610.0 2.3912e-06
19630.0 2.3672e-06
19650.0 2.3439e-06
19670.0 2.3211e-06
19690.0 2.2978e-06
19710.0 2.2748e-06
19730.0 2.2526e-06
19750.0 2.2303e-06
19770.0 2.2077e-06
19790.0 2.186e-06
19810.0 2.1646e-06
19830.0 2.143e-06
19850.0 2.1217e-06
19870.0 2.1011e-06
19890.0 2.0803e-06
19910.0 2.0594e-06
19930.0 2.0396e-06
19950.0 2.0203e-06
19970.0 2.0013e-06
19990.0 1.9834e-06
20010.0 1.967e-06
20030.0 1.9515e-06
20050.0 1.9373e-06
20070.0 1.9248e-06
20090.0 1.9137e-06
20110.0 1.9038e-06
20130.0 1.8955e-06
20150.0 1.8885e-06
20170.0 1.8826e-06
20190.0 1.8778e-06
20210.0 1.8739e-06
20230.0 1.8708e-06
20250.0 1.8684e-06
20270.0 1.8666e-06
20290.0 1.865e-06
20310.0 1.8637e-06
20330.0 1.8627e-06
20350.0 1.8613e-06
20370.0 1.8599e-06
20390.0 1.8583e-06
20410.0 1.8564e-06
20430.0 1.8541e-06
20450.0 1.8517e-06
20470.0 1.8489e-06
20490.0 1.8457e-06
20510.0 1.8423e-06
20530.0 1.8389e-06
20550.0 1.8352e-06
20570.0 1.8314e-06
20590.0 1.8276e-06
20610.0 1.8238e-06
20630.0 1.8199e-06
20650.0 1.8161e-06
20670.0 1.8124e-06
20690.0 1.8087e-06
20710.0 1.8048e-06
20730.0 1.8009e-06
20750.0 1.7968e-06
20770.0 1.7924e-06
20790.0 1.7877e-06
20810.0 1.7826e-06
20830.0 1.777e-06
20850.0 1.7709e-06
20870.0 1.7641e-06
20890.0 1.7566e-06
20910.0 1.7485e-06
20930.0 1.7395e-06
20950.0 1.7298e-06
20970.0 1.7194e-06
20990.0 1.7084e-06
21010.0 1.6964e-06
21030.0 1.6839e-06
21050.0 1.6708e-06
21070.0 1.6571e-06
21090.0 1.6428e-06
21110.0 1.6281e-06
21130.0 1.613e-06
21150.0 1.5973e-06
21170.0 1.5812e-06
21190.0 1.5648e-06
21210.0 1.5477e-06
21230.0 1.5301e-06
21250.0 1.5121e-06
21270.0 1.4935e-06
21290.0 1.4741e-06
21310.0 1.4541e-06
21330.0 1.4336e-06
21350.0 1.4121e-06
21370.0 1.3899e-06
21390.0 1.3814e-06
21410.0 1.3727e-06
21430.0 1.3634e-06
21450.0 1.3539e-06
21470.0 1.3443e-06
21490.0 1.3342e-06
21510.0 1.3238e-06
21530.0 1.3134e-06
21550.0 1.3026e-06
21570.0 1.2914e-06
21590.0 1.28e-06
21610.0 1.2685e-06
21630.0 1.2566e-06
21650.0 1.2443e-06
21670.0 1.2321e-06
21690.0 1.2195e-06
21710.0 1.2066e-06
21730.0 1.1935e-06
21750.0 1.1804e-06
21770.0 1.1666e-06
21790.0 1.1527e-06
21810.0 1.1387e-06
21830.0 1.1244e-06
21850.0 1.1097e-06
21870.0 1.0949e-06
21890.0 1.08e-06
21910.0 1.0647e-06
21930.0 1.0491e-06
21950.0 1.0336e-06
21970.0 1.0178e-06
21990.0 1.0015e-06
22010.0 9.8537e-07
22030.0 9.6914e-07
22050.0 9.5263e-07
22070.0 9.4335e-07
22090.0 9.4732e-07
22110.0 9.5131e-07
22130.0 9.5529e-07
22150.0 9.5915e-07
22170.0 9.6295e-07
22190.0 9.6676e-07
22210.0 9.705e-07
22230.0 9.7411e-07
22250.0 9.7771e-07
22270.0 9.813e-07
22290.0 9.848e-07
22310.0 9.8827e-07
22330.0 9.9177e-07
22350.0 9.9524e-07
22370.0 9.9868e-07
22390.0 1.0021e-06
22410.0 1.0056e-06
22430.0 1.0091e-06
22450.0 1.0126e-06
22470.0 1.0162e-06
22490.0 1.0198e-06
22510.0 1.0234e-06
22530.0 1.0271e-06
22550.0 1.0308e-06
22570.0 1.0345e-06
22590.0 1.0383e-06
22610.0 1.0422e-06
22630.0 1.0461e-06
22650.0 1.05e-06
22670.0 1.0539e-06
22690.0 1.0579e-06
22710.0 1.062e-06
22730.0 1.066e-06
22750.0 1.0701e-06
22770.0 1.0743e-06
22790.0 1.0784e-06
22810.0 1.0826e-06
