#lamb flux
1010.0 3.5104e-07
1030.0 3.8684e-07
1050.0 4.2801e-07
1070.0 4.7436e-07
1090.0 5.2701e-07
1110.0 5.8101e-07
1130.0 6.3536e-07
1150.0 6.9229e-07
1170.0 7.5101e-07
1190.0 8.067e-07
1210.0 8.6314e-07
1230.0 9.2146e-07
1250.0 9.786e-07
1270.0 1.0341e-06
1290.0 1.0927e-06
1310.0 1.1513e-06
1330.0 1.2075e-06
1350.0 1.2643e-06
1370.0 1.323e-06
1390.0 1.3802e-06
1410.0 1.4357e-06
1430.0 1.4937e-06
1450.0 1.5517e-06
1470.0 1.6078e-06
1490.0 1.6644e-06
1510.0 1.7242e-06
1530.0 1.7809e-06
1550.0 1.8368e-06
1570.0 1.8947e-06
1590.0 1.9525e-06
1610.0 2.0078e-06
1630.0 2.0647e-06
1650.0 2.1232e-06
1670.0 2.1796e-06
1690.0 2.2354e-06
1710.0 2.2932e-06
1730.0 2.3513e-06
1750.0 2.4058e-06
1770.0 2.4619e-06
1790.0 2.519e-06
1810.0 2.5742e-06
1830.0 2.6282e-06
1850.0 2.6855e-06
1870.0 2.741e-06
1890.0 2.7945e-06
1910.0 2.8488e-06
1930.0 2.9042e-06
1950.0 2.9566e-06
1970.0 3.008e-06
1990.0 3.0611e-06
2010.0 3.1128e-06
2030.0 3.1619e-06
2050.0 3.2122e-06
2070.0 3.2632e-06
2090.0 3.3102e-06
2110.0 3.3563e-06
2130.0 3.4031e-06
2150.0 3.448e-06
2170.0 3.4895e-06
2190.0 3.5318e-06
2210.0 3.5733e-06
2230.0 3.6114e-06
2250.0 3.6479e-06
2270.0 3.6853e-06
2290.0 3.7195e-06
2310.0 3.7499e-06
2330.0 3.7804e-06
2350.0 3.8098e-06
2370.0 3.8356e-06
2390.0 3.8612e-06
2410.0 3.8893e-06
2430.0 3.9173e-06
2450.0 3.9476e-06
2470.0 3.9864e-06
2490.0 4.0387e-06
2510.0 4.105e-06
2530.0 4.2053e-06
2550.0 4.369e-06
2570.0 4.62e-06
2590.0 4.9865e-06
2610.0 5.5537e-06
2630.0 6.3242e-06
2650.0 7.2407e-06
2670.0 8.3013e-06
2690.0 9.4508e-06
2710.0 1.0519e-05
2730.0 1.1435e-05
2750.0 1.2218e-05
2770.0 1.2796e-05
2790.0 1.3177e-05
2810.0 1.3433e-05
2830.0 1.3612e-05
2850.0 1.3716e-05
2870.0 1.3792e-05
2890.0 1.3866e-05
2910.0 1.3935e-05
2930.0 1.399e-05
2950.0 1.4055e-05
2970.0 1.4123e-05
2990.0 1.4182e-05
3010.0 0.00016637
3030.0 0.00016711
3050.0 0.00016779
3070.0 0.0001682
3090.0 0.00016849
3110.0 0.00016844
3130.0 0.00016775
3150.0 0.00016635
3170.0 0.00016403
3190.0 0.00016085
3210.0 0.0001572
3230.0 0.00015345
3250.0 0.00015047
3270.0 0.00014863
3290.0 0.00014872
3310.0 0.0001504
3330.0 0.00015421
3350.0 0.00015955
3370.0 0.00016652
3390.0 0.00017484
3410.0 0.00018358
3430.0 0.00019307
3450.0 0.00020357
3470.0 0.00021455
3490.0 0.00022569
3510.0 0.00023783
3530.0 0.00025045
3550.0 0.00026278
3570.0 0.00027536
3590.0 0.00028919
3610.0 0.00030272
3630.0 0.00031666
3650.0 0.00033049
3670.0 0.00034313
3690.0 0.00035282
3710.0 0.00035933
3730.0 0.0003628
3750.0 0.00036392
3770.0 0.00033905
3790.0 0.00031467
3810.0 0.00027645
3830.0 0.00020666
3850.0 0.0001505
3870.0 0.00014728
3890.0 0.00018494
3910.0 0.00028735
3930.0 0.00038218
3950.0 0.00043109
3970.0 0.00045265
3990.0 0.00048328
4010.0 0.00053521
4030.0 0.0005347
4050.0 0.00050324
4070.0 0.00046702
4090.0 0.00044702
4110.0 0.00047979
4130.0 0.00049314
4150.0 0.0004936
4170.0 0.00050731
4190.0 0.00050738
4210.0 0.00051837
4230.0 0.00056062
4250.0 0.00061295
4270.0 0.00063891
4290.0 0.00063286
4310.0 0.00064475
4330.0 0.00068908
4350.0 0.00079832
4370.0 0.00089766
4390.0 0.00084348
4410.0 0.00069444
4430.0 0.00059429
4450.0 0.00050287
4470.0 0.00046552
4490.0 0.00052578
4510.0 0.00062452
4530.0 0.00069096
4550.0 0.00076291
4570.0 0.00089193
4590.0 0.0010931
4610.0 0.0014354
4630.0 0.0017318
4650.0 0.0017541
4670.0 0.0017396
4690.0 0.0018464
4710.0 0.0018643
4730.0 0.0015502
4750.0 0.0011695
4770.0 0.00094766
4790.0 0.00091715
4810.0 0.00087161
4830.0 0.00086913
4850.0 0.0010253
4870.0 0.0012753
4890.0 0.0013676
4910.0 0.0011853
4930.0 0.0011168
4950.0 0.0012956
4970.0 0.0017058
4990.0 0.0020884
5010.0 0.0021361
5030.0 0.0017131
5050.0 0.0011707
5070.0 0.00086134
5090.0 0.0007435
5110.0 0.00073357
5130.0 0.00079528
5150.0 0.00082363
5170.0 0.00081275
5190.0 0.00080653
5210.0 0.00078831
5230.0 0.00082831
5250.0 0.00090505
5270.0 0.0010358
5290.0 0.0011981
5310.0 0.0013037
5330.0 0.0013468
5350.0 0.0014284
5370.0 0.0015644
5390.0 0.0016196
5410.0 0.0014908
5430.0 0.0013169
5450.0 0.0012962
5470.0 0.0015441
5490.0 0.0019549
5510.0 0.002375
5530.0 0.002567
5550.0 0.0024861
5570.0 0.002302
5590.0 0.0020824
5610.0 0.0019943
5630.0 0.0020009
5650.0 0.0020097
5670.0 0.0019699
5690.0 0.0018604
5710.0 0.0017766
5730.0 0.0015763
5750.0 0.0012113
5770.0 0.0010625
5790.0 0.0011499
5810.0 0.0013416
5830.0 0.0015229
5850.0 0.0016296
5870.0 0.0016339
5890.0 0.0015224
5910.0 0.0014746
5930.0 0.0014908
5950.0 0.0015635
5970.0 0.0016146
5990.0 0.0014737
6010.0 0.0012168
6030.0 0.0010072
6050.0 0.00092309
6070.0 0.00096036
6090.0 0.001061
6110.0 0.0010825
6130.0 0.0010086
6150.0 0.00098202
6170.0 0.0010774
6190.0 0.0012892
6210.0 0.0015483
6230.0 0.0017257
6250.0 0.0017113
6270.0 0.0015139
6290.0 0.0012486
6310.0 0.0010006
6330.0 0.00082768
6350.0 0.00078383
6370.0 0.00086018
6390.0 0.00098851
6410.0 0.0011483
6430.0 0.001327
6450.0 0.0015592
6470.0 0.0019279
6490.0 0.0023509
6510.0 0.0024887
6530.0 0.0023455
6550.0 0.0022379
6570.0 0.0022118
6590.0 0.0021219
6610.0 0.0019554
6630.0 0.0018201
6650.0 0.0017466
6670.0 0.0017434
6690.0 0.0016937
6710.0 0.0015237
6730.0 0.0013214
6750.0 0.001212
6770.0 0.0012756
6790.0 0.0013705
6810.0 0.0014126
6830.0 0.0014313
6850.0 0.0013795
6870.0 0.0013155
6890.0 0.0012743
6910.0 0.0012141
6930.0 0.0011733
6950.0 0.0011839
6970.0 0.0012272
6990.0 0.0013486
7010.0 0.0014081
7030.0 0.0013443
7050.0 0.0012317
7070.0 0.0010728
7090.0 0.00091176
7110.0 0.00085429
7130.0 0.00089175
7150.0 0.00093014
7170.0 0.00095489
7190.0 0.00093668
7210.0 0.000932
7230.0 0.0010436
7250.0 0.0012128
7270.0 0.0013626
7290.0 0.0014393
7310.0 0.0013464
7330.0 0.0012033
7350.0 0.0010972
7370.0 0.001071
7390.0 0.0011209
7410.0 0.0012048
7430.0 0.0013251
7450.0 0.0014655
7470.0 0.0015933
7490.0 0.0016221
7510.0 0.0014103
7530.0 0.0013983
7550.0 0.0012667
7570.0 0.0010817
7590.0 0.0008704
7610.0 0.00081334
7630.0 0.00088634
7650.0 0.0010328
7670.0 0.0011839
7690.0 0.0013079
7710.0 0.0014361
7730.0 0.001551
7750.0 0.0016334
7770.0 0.0016091
7790.0 0.0015998
7810.0 0.0016289
7830.0 0.0016136
7850.0 0.0015499
7870.0 0.0014562
7890.0 0.0013405
7910.0 0.0011871
7930.0 0.0010535
7950.0 0.00096993
7970.0 0.00094758
7990.0 0.00098073
8010.0 0.0010024
8030.0 0.0010158
8050.0 0.0010263
8070.0 0.0010152
8090.0 0.001012
8110.0 0.00097579
8130.0 0.00091177
8150.0 0.0008611
8170.0 0.00085187
8190.0 0.00086661
8210.0 0.00087489
8230.0 0.00086746
8250.0 0.00083821
8270.0 0.00074016
8290.0 0.00058527
8310.0 0.00042602
8330.0 0.00028662
8350.0 0.0002048
8370.0 0.00020796
8390.0 0.00025221
8410.0 0.00031863
8430.0 0.00038904
8450.0 0.0004275
8470.0 0.00044885
8490.0 0.00047055
8510.0 0.0004955
8530.0 0.00055002
8550.0 0.00064057
8570.0 0.00075329
8590.0 0.00087026
8610.0 0.0010156
8630.0 0.0011799
8650.0 0.0012801
8670.0 0.0012803
8690.0 0.0012358
8710.0 0.0011734
8730.0 0.0011248
8750.0 0.0010794
8770.0 0.0010507
8790.0 0.0010093
8810.0 0.00093722
8830.0 0.0008572
8850.0 0.00073588
8870.0 0.00065138
8890.0 0.00060447
8910.0 0.00063495
8930.0 0.00062318
8950.0 0.00064055
8970.0 0.00064825
8990.0 0.00065752
9010.0 0.00066886
9030.0 0.00065981
9050.0 0.00065922
9070.0 0.00065969
9090.0 0.00066021
9110.0 0.00066053
9130.0 0.00066115
9150.0 0.00066207
9170.0 0.00066265
9190.0 0.00066277
9210.0 0.00066641
9230.0 0.00066696
9250.0 0.00066795
9270.0 0.00066908
9290.0 0.00067035
9310.0 0.00067177
9330.0 0.0006733
9350.0 0.0006749
9370.0 0.0006766
9390.0 0.0006784
9410.0 0.00068026
9430.0 0.00068219
9450.0 0.00068421
9470.0 0.00068632
9490.0 0.00068847
9510.0 0.0006907
9530.0 0.00069303
9550.0 0.00069539
9570.0 0.00069782
9590.0 0.00070033
9610.0 0.00070291
9630.0 0.00070552
9650.0 0.00070821
9670.0 0.00071097
9690.0 0.00071377
9710.0 0.00071662
9730.0 0.00071953
9750.0 0.0007225
9770.0 0.00072547
9790.0 0.00072852
9810.0 0.00073162
9830.0 0.00073473
9850.0 0.00073788
9870.0 0.00074109
9890.0 0.00074431
9910.0 0.00074754
9930.0 0.00075082
9950.0 0.00075393
9970.0 0.00075728
9990.0 0.00076064
10010.0 0.00076314
10030.0 0.0007665
10050.0 0.00076967
10070.0 0.00077201
10090.0 0.00077572
10110.0 0.00077933
10130.0 0.00078284
10150.0 0.00078632
10170.0 0.00078969
10190.0 0.00079293
10210.0 0.00079621
10230.0 0.00079947
10250.0 0.00080262
10270.0 0.00080574
10290.0 0.0008089
10310.0 0.00081194
10330.0 0.00081487
10350.0 0.00081784
10370.0 0.00082077
10390.0 0.00082357
10410.0 0.00082632
10430.0 0.0008291
10450.0 0.00083173
10470.0 0.00083425
10490.0 0.00083677
10510.0 0.00083923
10530.0 0.00084148
10550.0 0.0008437
10570.0 0.00084591
10590.0 0.00084797
10610.0 0.00084989
10630.0 0.00085182
10650.0 0.00085363
10670.0 0.00085524
10690.0 0.0008568
10710.0 0.00085832
10730.0 0.00085966
10750.0 0.00086082
10770.0 0.00086201
10790.0 0.00086306
10810.0 0.00086391
10830.0 0.00086465
10850.0 0.00086528
10870.0 0.00086547
10890.0 0.00086516
10910.0 0.0008642
10930.0 0.00086202
10950.0 0.00085783
10970.0 0.00085134
10990.0 0.00084235
11010.0 0.00081428
11030.0 0.00079764
11050.0 0.00077853
11070.0 0.00075656
11090.0 0.00073102
11110.0 0.00070543
11130.0 0.00067958
11150.0 0.00065279
11170.0 0.00062645
11190.0 0.00060224
11210.0 0.00057873
11230.0 0.00055628
11250.0 0.00053648
11270.0 0.00051894
11290.0 0.00050281
11310.0 0.00048882
11330.0 0.00047744
11350.0 0.00046734
11370.0 0.00045835
11390.0 0.00045059
11410.0 0.00044348
11430.0 0.00043617
11450.0 0.00042882
11470.0 0.00042125
11490.0 0.00041286
11510.0 0.00040335
11530.0 0.00039339
11550.0 0.00038273
11570.0 0.00037095
11590.0 0.00035874
11610.0 0.00034659
11630.0 0.0003339
11650.0 0.00032104
11670.0 0.00030912
11690.0 0.00029773
11710.0 0.00028671
11730.0 0.00027665
11750.0 0.0002678
11770.0 0.00025952
11790.0 0.00025202
11810.0 0.00024553
11830.0 0.0002397
11850.0 0.00023416
11870.0 0.00022919
11890.0 0.0002246
11910.0 0.00021999
11930.0 0.00021533
11950.0 0.00021072
11970.0 0.0002059
11990.0 0.00020068
12010.0 0.00019535
12030.0 0.00018996
12050.0 0.0001843
12070.0 0.0001785
12090.0 0.00017312
12110.0 0.00016788
12130.0 0.0001629
12150.0 0.00015852
12170.0 0.00015486
12190.0 0.0001518
12210.0 0.00014966
12230.0 0.00014849
12250.0 0.00014826
12270.0 0.00014906
12290.0 0.00015079
12310.0 0.00015331
12330.0 0.00015678
12350.0 0.00016096
12370.0 0.00016553
12390.0 0.00017057
12410.0 0.00017618
12430.0 0.00018154
12450.0 0.00018674
12470.0 0.00019189
12490.0 0.00019663
12510.0 0.00020065
12530.0 0.00020421
12550.0 0.00020717
12570.0 0.00020926
12590.0 0.00021058
12610.0 0.00021119
12630.0 0.000211
12650.0 0.00021006
12670.0 0.00020846
12690.0 0.00020622
12710.0 0.0002035
12730.0 0.00020035
12750.0 0.00019669
12770.0 0.00019276
12790.0 0.00018871
12810.0 0.0001844
12830.0 0.00017987
12850.0 0.00017543
12870.0 0.00017093
12890.0 0.00016624
12910.0 0.00016155
12930.0 0.00015694
12950.0 0.00015211
12970.0 0.00014714
12990.0 0.00014233
13010.0 0.00013749
13030.0 0.0001325
13050.0 0.00012761
13070.0 0.00012298
13090.0 0.00011831
13110.0 0.00011382
13130.0 0.00010973
13150.0 0.00010596
13170.0 0.00010244
13190.0 9.9477e-05
13210.0 9.7063e-05
13230.0 9.5092e-05
13250.0 9.3657e-05
13270.0 9.2778e-05
13290.0 9.239e-05
13310.0 9.2515e-05
13330.0 9.3088e-05
13350.0 9.403e-05
13370.0 9.5359e-05
13390.0 9.7016e-05
13410.0 9.8755e-05
13430.0 0.00010067
13450.0 0.00010272
13470.0 0.00010472
13490.0 0.00010661
13510.0 0.00010854
13530.0 0.00011031
13550.0 0.00011184
13570.0 0.00011322
13590.0 0.00011445
13610.0 0.00011544
13630.0 0.00011621
13650.0 0.00011686
13670.0 0.00011731
13690.0 0.00011758
13710.0 0.00011772
13730.0 0.00011773
13750.0 0.00011758
13770.0 0.00011731
13790.0 0.00011691
13810.0 0.00011639
13830.0 0.00011577
13850.0 0.00011501
13870.0 0.00011412
13890.0 0.00011313
13910.0 0.00011203
13930.0 0.00011079
13950.0 0.00010946
13970.0 0.00010811
13990.0 0.00010667
14010.0 0.00010519
14030.0 0.00010374
14050.0 0.00010233
14070.0 0.0001009
14090.0 9.959e-05
14110.0 9.8408e-05
14130.0 9.7322e-05
14150.0 9.6361e-05
14170.0 9.5587e-05
14190.0 9.4969e-05
14210.0 9.4507e-05
14230.0 9.4228e-05
14250.0 9.4121e-05
14270.0 9.4195e-05
14290.0 9.4458e-05
14310.0 9.4865e-05
14330.0 9.5423e-05
14350.0 9.6146e-05
14370.0 9.6974e-05
14390.0 9.7861e-05
14410.0 9.8868e-05
14430.0 9.994e-05
14450.0 0.00010101
14470.0 0.00010211
14490.0 0.00010329
14510.0 0.00010445
14530.0 0.00010561
14550.0 0.00010688
14570.0 0.00010825
14590.0 0.00010969
14610.0 0.00011131
14630.0 0.00011322
14650.0 0.0001153
14670.0 0.00011759
14690.0 0.00012025
14710.0 0.00012323
14730.0 0.0001263
14750.0 0.00012965
14770.0 0.00013329
14790.0 0.00013695
14810.0 0.00014059
14830.0 0.00014444
14850.0 0.00014813
14870.0 0.00015149
14890.0 0.00015466
14910.0 0.00015757
14930.0 0.00015997
14950.0 0.00016191
14970.0 0.00016348
14990.0 0.00016457
15010.0 0.00016522
15030.0 0.00016554
15050.0 0.00016556
15070.0 0.00016536
15090.0 0.00016503
15110.0 0.0001646
15130.0 0.00016412
15150.0 0.00016364
15170.0 0.00016314
15190.0 0.00016262
15210.0 0.00016211
15230.0 0.00016162
15250.0 0.00016111
15270.0 0.0001606
15290.0 0.00016012
15310.0 0.00015963
15330.0 0.00015913
15350.0 0.00015866
15370.0 0.00015819
15390.0 0.00015769
15410.0 0.00015721
15430.0 0.00015675
15450.0 0.00015628
15470.0 0.00015579
15490.0 0.00015534
15510.0 0.00015488
15530.0 0.00015441
15550.0 0.00015395
15570.0 0.0001535
15590.0 0.00015304
15610.0 0.00015257
15630.0 0.00015212
15650.0 0.00015167
15670.0 0.00015121
15690.0 0.00015076
15710.0 0.00015033
15730.0 0.00014987
15750.0 0.00014942
15770.0 0.00014898
15790.0 0.00014854
15810.0 0.00014807
15830.0 0.00014763
15850.0 0.0001472
15870.0 0.00014675
15890.0 0.0001463
15910.0 0.00014587
15930.0 0.00014543
15950.0 0.00014497
15970.0 0.00014453
15990.0 0.0001441
16010.0 0.00014365
16030.0 0.00014319
16050.0 0.00014276
16070.0 0.00014232
16090.0 0.00014187
16110.0 0.00014143
16130.0 0.000141
16150.0 0.00014054
16170.0 0.00014008
16190.0 0.00013965
16210.0 0.0001392
16230.0 0.00013874
16250.0 0.0001383
16270.0 0.00013786
16290.0 0.0001374
16310.0 0.00013695
16330.0 0.00013651
16350.0 0.00013606
16370.0 0.00013558
16390.0 0.00013514
16410.0 0.00013469
16430.0 0.00013422
16450.0 0.00013376
16470.0 0.00013332
16490.0 0.00013286
16510.0 0.00013238
16530.0 0.00013193
16550.0 0.00013147
16570.0 0.00013099
16590.0 0.00013052
16610.0 0.00013007
16630.0 0.0001296
16650.0 0.00012912
16670.0 0.00012865
16690.0 0.00012819
16710.0 0.0001277
16730.0 0.00012722
16750.0 0.00012675
16770.0 0.00012627
16790.0 0.00012578
16810.0 0.00012531
16830.0 0.00012483
16850.0 0.00012434
16870.0 0.00012385
16890.0 0.00012338
16910.0 0.00012288
16930.0 0.00012237
16950.0 0.00012189
16970.0 0.0001214
16990.0 0.0001209
17010.0 0.0001204
17030.0 0.00011992
17050.0 0.00011941
17070.0 0.0001189
17090.0 0.00011841
17110.0 0.00011791
17130.0 0.00011739
17150.0 0.00011688
17170.0 0.00011639
17190.0 0.00011587
17210.0 0.00011536
17230.0 0.00011486
17250.0 0.00011435
17270.0 0.00011382
17290.0 0.00011331
17310.0 0.0001128
17330.0 0.00011227
17350.0 0.00011174
17370.0 0.00011124
17390.0 0.00011072
17410.0 0.00011018
17430.0 0.00010966
17450.0 0.00010915
17470.0 0.00010861
17490.0 0.00010807
17510.0 0.00010756
17530.0 0.00010703
17550.0 0.00010648
17570.0 0.00010596
17590.0 0.00010544
17610.0 0.00010489
17630.0 0.00010435
17650.0 0.00010383
17670.0 0.00010329
17690.0 0.00010273
17710.0 0.0001022
17730.0 0.00010167
17750.0 0.00010112
17770.0 0.00010058
17790.0 0.00010006
17810.0 9.9506e-05
17830.0 9.8952e-05
17850.0 9.8415e-05
17870.0 9.7877e-05
17890.0 9.7318e-05
17910.0 9.6767e-05
17930.0 9.6236e-05
17950.0 9.5687e-05
17970.0 9.5132e-05
17990.0 9.4594e-05
18010.0 9.4054e-05
18030.0 9.3486e-05
18050.0 9.2937e-05
18070.0 9.2398e-05
18090.0 9.1843e-05
18110.0 9.1281e-05
18130.0 9.0744e-05
18150.0 9.0199e-05
18170.0 8.9638e-05
18190.0 8.9088e-05
18210.0 8.8549e-05
18230.0 8.7987e-05
18250.0 8.7422e-05
18270.0 8.6882e-05
18290.0 8.6334e-05
18310.0 8.5772e-05
18330.0 8.5223e-05
18350.0 8.4685e-05
18370.0 8.4124e-05
18390.0 8.3565e-05
18410.0 8.3023e-05
18430.0 8.2474e-05
18450.0 8.1904e-05
18470.0 8.1356e-05
18490.0 8.0817e-05
18510.0 8.026e-05
18530.0 7.9704e-05
18550.0 7.9168e-05
18570.0 7.8617e-05
18590.0 7.8052e-05
18610.0 7.7506e-05
18630.0 7.6965e-05
18650.0 7.6407e-05
18670.0 7.5849e-05
18690.0 7.5316e-05
18710.0 7.4769e-05
18730.0 7.4212e-05
18750.0 7.3671e-05
18770.0 7.3137e-05
18790.0 7.2572e-05
18810.0 7.2022e-05
18830.0 7.1488e-05
18850.0 7.0943e-05
18870.0 7.0388e-05
18890.0 6.9853e-05
18910.0 6.9321e-05
18930.0 6.8768e-05
18950.0 6.8224e-05
18970.0 6.7694e-05
18990.0 6.7152e-05
19010.0 6.6592e-05
19030.0 6.6064e-05
19050.0 6.5534e-05
19070.0 6.4988e-05
19090.0 6.445e-05
19110.0 6.3931e-05
19130.0 6.3387e-05
19150.0 6.2843e-05
19170.0 6.2317e-05
19190.0 6.1789e-05
19210.0 6.1244e-05
19230.0 6.0709e-05
19250.0 6.0194e-05
19270.0 5.9661e-05
19290.0 5.9126e-05
19310.0 5.8608e-05
19330.0 5.8088e-05
19350.0 5.7543e-05
19370.0 5.7019e-05
19390.0 5.6504e-05
19410.0 5.5976e-05
19430.0 5.5444e-05
19450.0 5.4935e-05
19470.0 5.4419e-05
19490.0 5.3889e-05
19510.0 5.3373e-05
19530.0 5.2866e-05
19550.0 5.2339e-05
19570.0 5.1811e-05
19590.0 5.1308e-05
19610.0 5.0797e-05
19630.0 5.0274e-05
19650.0 4.9766e-05
19670.0 4.9268e-05
19690.0 4.8748e-05
19710.0 4.8233e-05
19730.0 4.7734e-05
19750.0 4.7229e-05
19770.0 4.6705e-05
19790.0 4.6205e-05
19810.0 4.5711e-05
19830.0 4.5201e-05
19850.0 4.4691e-05
19870.0 4.4197e-05
19890.0 4.3678e-05
19910.0 4.3131e-05
19930.0 4.2579e-05
19950.0 4.1993e-05
19970.0 4.1334e-05
19990.0 4.0612e-05
20010.0 3.9857e-05
20030.0 3.9013e-05
20050.0 3.8099e-05
20070.0 3.7178e-05
20090.0 3.6253e-05
20110.0 3.528e-05
20130.0 3.4367e-05
20150.0 3.3524e-05
20170.0 3.2714e-05
20190.0 3.1954e-05
20210.0 3.129e-05
20230.0 3.0692e-05
20250.0 3.0141e-05
20270.0 2.9673e-05
20290.0 2.9285e-05
20310.0 2.8955e-05
20330.0 2.8688e-05
20350.0 2.8503e-05
20370.0 2.8377e-05
20390.0 2.8312e-05
20410.0 2.8309e-05
20430.0 2.8361e-05
20450.0 2.8474e-05
20470.0 2.8645e-05
20490.0 2.886e-05
20510.0 2.9125e-05
20530.0 2.9449e-05
20550.0 2.9808e-05
20570.0 3.019e-05
20590.0 3.062e-05
20610.0 3.108e-05
20630.0 3.1543e-05
20650.0 3.2026e-05
20670.0 3.2543e-05
20690.0 3.304e-05
20710.0 3.3524e-05
20730.0 3.4019e-05
20750.0 3.4506e-05
20770.0 3.4958e-05
20790.0 3.5409e-05
20810.0 3.5864e-05
20830.0 3.6298e-05
20850.0 3.6722e-05
20870.0 3.7169e-05
20890.0 3.7622e-05
20910.0 3.806e-05
20930.0 3.8521e-05
20950.0 3.9008e-05
20970.0 3.9491e-05
20990.0 3.9975e-05
21010.0 4.0491e-05
21030.0 4.0998e-05
21050.0 4.148e-05
21070.0 4.1954e-05
21090.0 4.2418e-05
21110.0 4.2823e-05
21130.0 4.3182e-05
21150.0 4.3506e-05
21170.0 4.3768e-05
21190.0 4.3963e-05
21210.0 4.4102e-05
21230.0 4.4175e-05
21250.0 4.4175e-05
21270.0 4.411e-05
21290.0 4.3975e-05
21310.0 4.3773e-05
21330.0 4.352e-05
21350.0 4.32e-05
21370.0 4.2818e-05
21390.0 4.2397e-05
21410.0 4.1936e-05
21430.0 4.1404e-05
21450.0 4.0855e-05
21470.0 4.0298e-05
21490.0 3.9707e-05
21510.0 3.9097e-05
21530.0 3.8512e-05
21550.0 3.793e-05
21570.0 3.7342e-05
21590.0 3.6794e-05
21610.0 3.6291e-05
21630.0 3.5815e-05
21650.0 3.5378e-05
21670.0 3.5025e-05
21690.0 3.4725e-05
21710.0 3.4484e-05
21730.0 3.4318e-05
21750.0 3.4225e-05
21770.0 3.42e-05
21790.0 3.4253e-05
21810.0 3.4374e-05
21830.0 3.4565e-05
21850.0 3.4833e-05
21870.0 3.5159e-05
21890.0 3.5531e-05
21910.0 3.5973e-05
21930.0 3.6468e-05
21950.0 3.6988e-05
21970.0 3.7555e-05
21990.0 3.8185e-05
22010.0 3.8813e-05
22030.0 3.9452e-05
22050.0 4.0126e-05
22070.0 4.081e-05
22090.0 4.1462e-05
22110.0 4.2124e-05
22130.0 4.279e-05
22150.0 4.3412e-05
22170.0 4.3998e-05
22190.0 4.4573e-05
22210.0 4.5098e-05
22230.0 4.5546e-05
22250.0 4.5946e-05
22270.0 4.6287e-05
22290.0 4.6544e-05
22310.0 4.6724e-05
22330.0 4.6827e-05
22350.0 4.6838e-05
22370.0 4.6761e-05
22390.0 4.6591e-05
22410.0 4.6317e-05
22430.0 4.5965e-05
22450.0 4.5528e-05
22470.0 4.4988e-05
22490.0 4.4368e-05
22510.0 4.3697e-05
22530.0 4.2925e-05
22550.0 4.2069e-05
22570.0 4.1193e-05
22590.0 4.0269e-05
22610.0 3.9271e-05
22630.0 3.8252e-05
22650.0 3.7254e-05
22670.0 3.6203e-05
22690.0 3.5134e-05
22710.0 3.4104e-05
22730.0 3.3087e-05
22750.0 3.2032e-05
22770.0 3.1044e-05
