#lamb flux
1010.0 6.472e-08
1030.0 6.8427e-08
1050.0 7.2716e-08
1070.0 7.7553e-08
1090.0 8.305e-08
1110.0 8.8707e-08
1130.0 9.4421e-08
1150.0 1.0043e-07
1170.0 1.0665e-07
1190.0 1.1258e-07
1210.0 1.1862e-07
1230.0 1.249e-07
1250.0 1.3108e-07
1270.0 1.3713e-07
1290.0 1.4356e-07
1310.0 1.5002e-07
1330.0 1.5627e-07
1350.0 1.6264e-07
1370.0 1.6925e-07
1390.0 1.7576e-07
1410.0 1.8214e-07
1430.0 1.8885e-07
1450.0 1.9561e-07
1470.0 2.0221e-07
1490.0 2.0894e-07
1510.0 2.1606e-07
1530.0 2.2288e-07
1550.0 2.2967e-07
1570.0 2.367e-07
1590.0 2.4377e-07
1610.0 2.5058e-07
1630.0 2.576e-07
1650.0 2.6478e-07
1670.0 2.7175e-07
1690.0 2.7861e-07
1710.0 2.8569e-07
1730.0 2.9276e-07
1750.0 2.9938e-07
1770.0 3.0611e-07
1790.0 3.1289e-07
1810.0 3.1935e-07
1830.0 3.2559e-07
1850.0 3.3209e-07
1870.0 3.3827e-07
1890.0 3.4409e-07
1910.0 3.4987e-07
1930.0 3.5563e-07
1950.0 3.6092e-07
1970.0 3.6596e-07
1990.0 3.7105e-07
2010.0 3.7586e-07
2030.0 3.8026e-07
2050.0 3.8468e-07
2070.0 3.8909e-07
2090.0 3.9299e-07
2110.0 3.9675e-07
2130.0 4.0056e-07
2150.0 4.0415e-07
2170.0 4.0742e-07
2190.0 4.1084e-07
2210.0 4.1428e-07
2230.0 4.1747e-07
2250.0 4.2067e-07
2270.0 4.2417e-07
2290.0 4.2757e-07
2310.0 4.3086e-07
2330.0 4.3445e-07
2350.0 4.3826e-07
2370.0 4.4204e-07
2390.0 4.4609e-07
2410.0 4.5065e-07
2430.0 4.5531e-07
2450.0 4.6017e-07
2470.0 4.6555e-07
2490.0 4.716e-07
2510.0 4.7835e-07
2530.0 4.873e-07
2550.0 5.009e-07
2570.0 5.2194e-07
2590.0 5.5387e-07
2610.0 6.0517e-07
2630.0 6.7899e-07
2650.0 7.7266e-07
2670.0 8.881e-07
2690.0 1.0226e-06
2710.0 1.16e-06
2730.0 1.2921e-06
2750.0 1.4211e-06
2770.0 1.5369e-06
2790.0 1.6375e-06
2810.0 1.7304e-06
2830.0 1.8215e-06
2850.0 1.907e-06
2870.0 1.9932e-06
2890.0 2.085e-06
2910.0 2.1807e-06
2930.0 2.2776e-06
2950.0 2.3815e-06
2970.0 2.4916e-06
2990.0 2.6034e-06
3010.0 7.2836e-06
3030.0 7.6067e-06
3050.0 7.9291e-06
3070.0 8.223e-06
3090.0 8.4741e-06
3110.0 8.6161e-06
3130.0 8.5705e-06
3150.0 8.2507e-06
3170.0 7.4818e-06
3190.0 6.2465e-06
3210.0 4.564e-06
3230.0 2.6706e-06
3250.0 4.7e-06
3270.0 2.4901e-06
3290.0 7.1995e-06
3310.0 2.1124e-06
3330.0 2.0712e-06
3350.0 2.6994e-06
3370.0 3.4418e-06
3390.0 4.2465e-06
3410.0 5.0508e-06
3430.0 5.8971e-06
3450.0 6.7471e-06
3470.0 7.5271e-06
3490.0 8.0556e-06
3510.0 9.9205e-06
3530.0 1.3273e-05
3550.0 1.2893e-05
3570.0 1.0372e-05
3590.0 1.4604e-05
3610.0 8.8376e-06
3630.0 1.5299e-05
3650.0 1.7962e-05
3670.0 2.3298e-05
3690.0 2.1576e-05
3710.0 1.3998e-05
3730.0 1.8708e-05
3750.0 1.9255e-05
3770.0 2.0462e-05
3790.0 1.9303e-05
3810.0 1.8995e-05
3830.0 3.0012e-05
3850.0 3.6058e-05
3870.0 4.4835e-05
3890.0 4.2845e-05
3910.0 3.7778e-05
3930.0 3.8647e-05
3950.0 4.2292e-05
3970.0 4.9393e-05
3990.0 3.3167e-05
4010.0 1.795e-05
4030.0 3.0711e-05
4050.0 3.9212e-05
4070.0 4.3342e-05
4090.0 3.2287e-05
4110.0 2.0034e-05
4130.0 3.1619e-05
4150.0 3.1149e-05
4170.0 3.0291e-05
4190.0 2.8339e-05
4210.0 3.91e-05
4230.0 2.738e-05
4250.0 3.0906e-05
4270.0 3.0746e-05
4290.0 2.9748e-05
4310.0 3.8122e-05
4330.0 4.0364e-05
4350.0 3.1863e-05
4370.0 2.6519e-05
4390.0 3.3426e-05
4410.0 3.4764e-05
4430.0 2.5703e-05
4450.0 2.4351e-05
4470.0 2.9881e-05
4490.0 2.1929e-05
4510.0 2.9712e-05
4530.0 3.1146e-05
4550.0 3.8838e-05
4570.0 5.617e-05
4590.0 5.3863e-05
4610.0 3.7737e-05
4630.0 6.3384e-05
4650.0 8.898e-05
4670.0 8.3377e-05
4690.0 5.3235e-05
4710.0 5.7874e-05
4730.0 7.0913e-05
4750.0 6.0393e-05
4770.0 4.5555e-05
4790.0 2.9956e-05
4810.0 4.316e-05
4830.0 5.0762e-05
4850.0 4.3643e-05
4870.0 1.3973e-05
4890.0 4.8459e-05
4910.0 6.6933e-05
4930.0 7.2431e-05
4950.0 7.2311e-05
4970.0 4.5478e-05
4990.0 5.3443e-05
5010.0 6.4263e-05
5030.0 7.1414e-05
5050.0 6.9114e-05
5070.0 4.8823e-05
5090.0 3.9383e-05
5110.0 3.7505e-05
5130.0 3.459e-05
5150.0 3.7348e-05
5170.0 3.2677e-05
5190.0 4.0178e-05
5210.0 4.0627e-05
5230.0 4.5138e-05
5250.0 5.5404e-05
5270.0 4.5078e-05
5290.0 4.5594e-05
5310.0 6.954e-05
5330.0 8.1101e-05
5350.0 6.6966e-05
5370.0 5.8758e-05
5390.0 6.9365e-05
5410.0 8.6677e-05
5430.0 9.457e-05
5450.0 0.00010023
5470.0 9.9734e-05
5490.0 9.9595e-05
5510.0 0.00011943
5530.0 0.00012461
5550.0 0.00013394
5570.0 0.0001431
5590.0 0.00014199
5610.0 0.00013346
5630.0 0.00012989
5650.0 0.00013453
5670.0 0.00013258
5690.0 0.00011277
5710.0 0.00011165
5730.0 0.00011423
5750.0 0.00012311
5770.0 0.00010601
5790.0 9.9153e-05
5810.0 0.0001012
5830.0 0.00010892
5850.0 0.00010057
5870.0 0.00010218
5890.0 0.00012284
5910.0 0.00011577
5930.0 9.4104e-05
5950.0 8.3168e-05
5970.0 9.1716e-05
5990.0 8.4454e-05
6010.0 7.8884e-05
6030.0 7.9419e-05
6050.0 7.312e-05
6070.0 5.4544e-05
6090.0 5.0219e-05
6110.0 6.6451e-05
6130.0 7.6306e-05
6150.0 7.9287e-05
6170.0 7.6142e-05
6190.0 7.086e-05
6210.0 7.1756e-05
6230.0 8.7314e-05
6250.0 8.0655e-05
6270.0 7.3158e-05
6290.0 6.7265e-05
6310.0 6.2312e-05
6330.0 5.8501e-05
6350.0 5.1425e-05
6370.0 5.1463e-05
6390.0 6.0582e-05
6410.0 7.5693e-05
6430.0 8.8357e-05
6450.0 8.523e-05
6470.0 8.4147e-05
6490.0 0.00010515
6510.0 0.00012208
6530.0 0.0001154
6550.0 0.00010945
6570.0 0.00011114
6590.0 0.00010882
6610.0 0.00011712
6630.0 0.00010907
6650.0 9.426e-05
6670.0 8.5822e-05
6690.0 8.5097e-05
6710.0 0.00010448
6730.0 9.3725e-05
6750.0 7.6909e-05
6770.0 6.8196e-05
6790.0 7.2273e-05
6810.0 8.3002e-05
6830.0 8.2079e-05
6850.0 7.3408e-05
6870.0 7.662e-05
6890.0 7.6147e-05
6910.0 7.1578e-05
6930.0 8.128e-05
6950.0 7.4807e-05
6970.0 6.8914e-05
6990.0 6.8314e-05
7010.0 6.7472e-05
7030.0 6.5006e-05
7050.0 6.2975e-05
7070.0 6.9257e-05
7090.0 6.5306e-05
7110.0 5.5349e-05
7130.0 4.5798e-05
7150.0 4.3645e-05
7170.0 5.7416e-05
7190.0 6.1764e-05
7210.0 5.8417e-05
7230.0 6.0812e-05
7250.0 5.7378e-05
7270.0 5.502e-05
7290.0 6.0758e-05
7310.0 6.8134e-05
7330.0 6.6874e-05
7350.0 6.2108e-05
7370.0 5.7673e-05
7390.0 5.8547e-05
7410.0 6.8001e-05
7430.0 7.5757e-05
7450.0 8.0134e-05
7470.0 7.9567e-05
7490.0 8.6543e-05
7510.0 8.4899e-05
7530.0 7.95e-05
7550.0 7.7015e-05
7570.0 6.7029e-05
7590.0 6.4959e-05
7610.0 6.2546e-05
7630.0 5.683e-05
7650.0 6.1063e-05
7670.0 6.7007e-05
7690.0 7.2655e-05
7710.0 8.2456e-05
7730.0 8.6752e-05
7750.0 9.0095e-05
7770.0 9.2207e-05
7790.0 0.00010066
7810.0 0.00010204
7830.0 9.1436e-05
7850.0 9.1788e-05
7870.0 8.7793e-05
7890.0 9.1081e-05
7910.0 8.5878e-05
7930.0 8.5857e-05
7950.0 7.2611e-05
7970.0 7.3402e-05
7990.0 7.0297e-05
8010.0 7.4384e-05
8030.0 7.3838e-05
8050.0 7.8144e-05
8070.0 7.4682e-05
8090.0 7.4813e-05
8110.0 7.3388e-05
8130.0 7.2809e-05
8150.0 6.8559e-05
8170.0 6.6893e-05
8190.0 6.6326e-05
8210.0 6.6772e-05
8230.0 5.8169e-05
8250.0 5.2966e-05
8270.0 4.6671e-05
8290.0 3.9499e-05
8310.0 3.4789e-05
8330.0 2.771e-05
8350.0 2.2611e-05
8370.0 2.2103e-05
8390.0 2.1419e-05
8410.0 2.2239e-05
8430.0 2.8326e-05
8450.0 3.0631e-05
8470.0 3.2753e-05
8490.0 3.8208e-05
8510.0 4.1469e-05
8530.0 4.7234e-05
8550.0 5.5726e-05
8570.0 6.109e-05
8590.0 6.4202e-05
8610.0 7.0727e-05
8630.0 7.9706e-05
8650.0 8.1322e-05
8670.0 8.2641e-05
8690.0 8.5781e-05
8710.0 8.4014e-05
8730.0 8.1529e-05
8750.0 7.5252e-05
8770.0 7.516e-05
8790.0 7.4008e-05
8810.0 6.789e-05
8830.0 6.8022e-05
8850.0 6.2645e-05
8870.0 5.9776e-05
8890.0 5.3497e-05
8910.0 5.9045e-05
8930.0 5.3252e-05
8950.0 5.2999e-05
8970.0 5.3785e-05
8990.0 5.1978e-05
9010.0 5.3335e-05
9030.0 5.0702e-05
9050.0 5.0444e-05
9070.0 5.0448e-05
9090.0 5.044e-05
9110.0 5.0463e-05
9130.0 5.0439e-05
9150.0 5.0391e-05
9170.0 5.0204e-05
9190.0 4.9807e-05
9210.0 5.0572e-05
9230.0 5.0328e-05
9250.0 5.0177e-05
9270.0 5.0045e-05
9290.0 4.9922e-05
9310.0 4.9806e-05
9330.0 4.9692e-05
9350.0 4.9576e-05
9370.0 4.9457e-05
9390.0 4.9333e-05
9410.0 4.9205e-05
9430.0 4.9074e-05
9450.0 4.8936e-05
9470.0 4.8795e-05
9490.0 4.8652e-05
9510.0 4.8504e-05
9530.0 4.8353e-05
9550.0 4.8201e-05
9570.0 4.8046e-05
9590.0 4.7888e-05
9610.0 4.7729e-05
9630.0 4.757e-05
9650.0 4.7409e-05
9670.0 4.7245e-05
9690.0 4.7083e-05
9710.0 4.6921e-05
9730.0 4.6757e-05
9750.0 4.6594e-05
9770.0 4.6434e-05
9790.0 4.6272e-05
9810.0 4.6111e-05
9830.0 4.5952e-05
9850.0 4.5795e-05
9870.0 4.5637e-05
9890.0 4.5482e-05
9910.0 4.5331e-05
9930.0 4.5179e-05
9950.0 4.4949e-05
9970.0 4.4828e-05
9990.0 4.4706e-05
10010.0 4.4581e-05
10030.0 4.4452e-05
10050.0 4.4309e-05
10070.0 4.409e-05
10090.0 4.3994e-05
10110.0 4.3896e-05
10130.0 4.3792e-05
10150.0 4.3688e-05
10170.0 4.3579e-05
10190.0 4.3468e-05
10210.0 4.3362e-05
10230.0 4.326e-05
10250.0 4.3157e-05
10270.0 4.3058e-05
10290.0 4.2967e-05
10310.0 4.2875e-05
10330.0 4.2785e-05
10350.0 4.2702e-05
10370.0 4.2624e-05
10390.0 4.2546e-05
10410.0 4.2472e-05
10430.0 4.2406e-05
10450.0 4.234e-05
10470.0 4.2277e-05
10490.0 4.222e-05
10510.0 4.2166e-05
10530.0 4.2112e-05
10550.0 4.2064e-05
10570.0 4.2021e-05
10590.0 4.198e-05
10610.0 4.1942e-05
10630.0 4.1909e-05
10650.0 4.1879e-05
10670.0 4.185e-05
10690.0 4.1826e-05
10710.0 4.1806e-05
10730.0 4.1788e-05
10750.0 4.1771e-05
10770.0 4.1761e-05
10790.0 4.1752e-05
10810.0 4.1745e-05
10830.0 4.174e-05
10850.0 4.1736e-05
10870.0 4.1724e-05
10890.0 4.1698e-05
10910.0 4.1649e-05
10930.0 4.1555e-05
10950.0 4.1382e-05
10970.0 4.1115e-05
10990.0 4.0745e-05
11010.0 4.1221e-05
11030.0 4.0539e-05
11050.0 3.9736e-05
11070.0 3.8805e-05
11090.0 3.7723e-05
11110.0 3.6643e-05
11130.0 3.5561e-05
11150.0 3.445e-05
11170.0 3.3366e-05
11190.0 3.2375e-05
11210.0 3.1414e-05
11230.0 3.0493e-05
11250.0 2.9671e-05
11270.0 2.893e-05
11290.0 2.823e-05
11310.0 2.76e-05
11330.0 2.7065e-05
11350.0 2.6567e-05
11370.0 2.6103e-05
11390.0 2.5686e-05
11410.0 2.5298e-05
11430.0 2.4899e-05
11450.0 2.451e-05
11470.0 2.4128e-05
11490.0 2.3725e-05
11510.0 2.3291e-05
11530.0 2.2857e-05
11550.0 2.2408e-05
11570.0 2.192e-05
11590.0 2.1419e-05
11610.0 2.0921e-05
11630.0 2.0392e-05
11650.0 1.984e-05
11670.0 1.9312e-05
11690.0 1.8785e-05
11710.0 1.8245e-05
11730.0 1.772e-05
11750.0 1.723e-05
11770.0 1.6735e-05
11790.0 1.6252e-05
11810.0 1.5805e-05
11830.0 1.5379e-05
11850.0 1.4951e-05
11870.0 1.4557e-05
11890.0 1.4197e-05
11910.0 1.3841e-05
11930.0 1.3497e-05
11950.0 1.3181e-05
11970.0 1.2875e-05
11990.0 1.2565e-05
12010.0 1.2275e-05
12030.0 1.2e-05
12050.0 1.1726e-05
12070.0 1.1454e-05
12090.0 1.1213e-05
12110.0 1.098e-05
12130.0 1.0755e-05
12150.0 1.0556e-05
12170.0 1.0384e-05
12190.0 1.0228e-05
12210.0 1.0105e-05
12230.0 1.0022e-05
12250.0 9.9759e-06
12270.0 9.9705e-06
12290.0 1.0011e-05
12310.0 1.0094e-05
12330.0 1.0225e-05
12350.0 1.0399e-05
12370.0 1.0608e-05
12390.0 1.0852e-05
12410.0 1.1138e-05
12430.0 1.1432e-05
12450.0 1.1735e-05
12470.0 1.2052e-05
12490.0 1.2367e-05
12510.0 1.266e-05
12530.0 1.2946e-05
12550.0 1.3217e-05
12570.0 1.3457e-05
12590.0 1.367e-05
12610.0 1.3862e-05
12630.0 1.4025e-05
12650.0 1.4155e-05
12670.0 1.4262e-05
12690.0 1.4346e-05
12710.0 1.4405e-05
12730.0 1.4445e-05
12750.0 1.4464e-05
12770.0 1.4465e-05
12790.0 1.4451e-05
12810.0 1.4419e-05
12830.0 1.437e-05
12850.0 1.4309e-05
12870.0 1.4235e-05
12890.0 1.4139e-05
12910.0 1.4029e-05
12930.0 1.3908e-05
12950.0 1.3762e-05
12970.0 1.3595e-05
12990.0 1.342e-05
13010.0 1.3229e-05
13030.0 1.3014e-05
13050.0 1.279e-05
13070.0 1.2566e-05
13090.0 1.2324e-05
13110.0 1.2075e-05
13130.0 1.1837e-05
13150.0 1.1604e-05
13170.0 1.1367e-05
13190.0 1.1155e-05
13210.0 1.0968e-05
13230.0 1.0797e-05
13250.0 1.0651e-05
13270.0 1.0539e-05
13290.0 1.0452e-05
13310.0 1.0389e-05
13330.0 1.0356e-05
13350.0 1.0346e-05
13370.0 1.0353e-05
13390.0 1.0374e-05
13410.0 1.0401e-05
13430.0 1.0429e-05
13450.0 1.0453e-05
13470.0 1.0467e-05
13490.0 1.0467e-05
13510.0 1.0449e-05
13530.0 1.0412e-05
13550.0 1.0358e-05
13570.0 1.0286e-05
13590.0 1.0196e-05
13610.0 1.0096e-05
13630.0 9.9913e-06
13650.0 9.8764e-06
13670.0 9.7608e-06
13690.0 9.651e-06
13710.0 9.5433e-06
13730.0 9.4363e-06
13750.0 9.3426e-06
13770.0 9.2562e-06
13790.0 9.1731e-06
13810.0 9.0958e-06
13830.0 9.0255e-06
13850.0 8.9548e-06
13870.0 8.8833e-06
13890.0 8.8134e-06
13910.0 8.7422e-06
13930.0 8.6655e-06
13950.0 8.5865e-06
13970.0 8.5092e-06
13990.0 8.4283e-06
14010.0 8.3461e-06
14030.0 8.2678e-06
14050.0 8.1927e-06
14070.0 8.1185e-06
14090.0 8.0522e-06
14110.0 7.9942e-06
14130.0 7.9426e-06
14150.0 7.8988e-06
14170.0 7.865e-06
14190.0 7.8392e-06
14210.0 7.8216e-06
14230.0 7.8125e-06
14250.0 7.8111e-06
14270.0 7.8184e-06
14290.0 7.8346e-06
14310.0 7.8569e-06
14330.0 7.8863e-06
14350.0 7.9242e-06
14370.0 7.9669e-06
14390.0 8.0119e-06
14410.0 8.0633e-06
14430.0 8.1174e-06
14450.0 8.1698e-06
14470.0 8.2221e-06
14490.0 8.2768e-06
14510.0 8.3267e-06
14530.0 8.3728e-06
14550.0 8.4197e-06
14570.0 8.4665e-06
14590.0 8.5111e-06
14610.0 8.5593e-06
14630.0 8.6151e-06
14650.0 8.675e-06
14670.0 8.7416e-06
14690.0 8.8221e-06
14710.0 8.917e-06
14730.0 9.0175e-06
14750.0 9.1339e-06
14770.0 9.2683e-06
14790.0 9.4115e-06
14810.0 9.5613e-06
14830.0 9.733e-06
14850.0 9.9087e-06
14870.0 1.008e-05
14890.0 1.0254e-05
14910.0 1.0426e-05
14930.0 1.0579e-05
14950.0 1.071e-05
14970.0 1.0823e-05
14990.0 1.0906e-05
15010.0 1.0954e-05
15030.0 1.0975e-05
15050.0 1.0972e-05
15070.0 1.0945e-05
15090.0 1.0904e-05
15110.0 1.0852e-05
15130.0 1.0795e-05
15150.0 1.0736e-05
15170.0 1.0674e-05
15190.0 1.0611e-05
15210.0 1.0549e-05
15230.0 1.0486e-05
15250.0 1.0423e-05
15270.0 1.036e-05
15290.0 1.0299e-05
15310.0 1.0236e-05
15330.0 1.0174e-05
15350.0 1.0112e-05
15370.0 1.0051e-05
15390.0 9.9885e-06
15410.0 9.927e-06
15430.0 9.8662e-06
15450.0 9.805e-06
15470.0 9.7436e-06
15490.0 9.6834e-06
15510.0 9.6234e-06
15530.0 9.5629e-06
15550.0 9.503e-06
15570.0 9.444e-06
15590.0 9.3843e-06
15610.0 9.3246e-06
15630.0 9.2662e-06
15650.0 9.208e-06
15670.0 9.1493e-06
15690.0 9.0915e-06
15710.0 9.0345e-06
15730.0 8.9769e-06
15750.0 8.9197e-06
15770.0 8.8634e-06
15790.0 8.8073e-06
15810.0 8.7505e-06
15830.0 8.6949e-06
15850.0 8.6402e-06
15870.0 8.585e-06
15890.0 8.5301e-06
15910.0 8.4764e-06
15930.0 8.4226e-06
15950.0 8.3685e-06
15970.0 8.3154e-06
15990.0 8.2629e-06
16010.0 8.2102e-06
16030.0 8.1576e-06
16050.0 8.1065e-06
16070.0 8.0552e-06
16090.0 8.0038e-06
16110.0 7.9534e-06
16130.0 7.9037e-06
16150.0 7.8531e-06
16170.0 7.8033e-06
16190.0 7.7546e-06
16210.0 7.7059e-06
16230.0 7.657e-06
16250.0 7.6092e-06
16270.0 7.5621e-06
16290.0 7.5144e-06
16310.0 7.4673e-06
16330.0 7.4212e-06
16350.0 7.375e-06
16370.0 7.3284e-06
16390.0 7.2833e-06
16410.0 7.2385e-06
16430.0 7.1935e-06
16450.0 7.149e-06
16470.0 7.1056e-06
16490.0 7.0618e-06
16510.0 7.018e-06
16530.0 6.9753e-06
16550.0 6.933e-06
16570.0 6.8902e-06
16590.0 6.8481e-06
16610.0 6.8071e-06
16630.0 6.7659e-06
16650.0 6.7247e-06
16670.0 6.6845e-06
16690.0 6.6446e-06
16710.0 6.6041e-06
16730.0 6.5645e-06
16750.0 6.5257e-06
16770.0 6.4866e-06
16790.0 6.4476e-06
16810.0 6.4098e-06
16830.0 6.3721e-06
16850.0 6.3341e-06
16870.0 6.2968e-06
16890.0 6.2603e-06
16910.0 6.2232e-06
16930.0 6.1863e-06
16950.0 6.1506e-06
16970.0 6.115e-06
16990.0 6.0791e-06
17010.0 6.0439e-06
17030.0 6.0095e-06
17050.0 5.9746e-06
17070.0 5.9399e-06
17090.0 5.9062e-06
17110.0 5.8725e-06
17130.0 5.8383e-06
17150.0 5.8051e-06
17170.0 5.7725e-06
17190.0 5.7396e-06
17210.0 5.7069e-06
17230.0 5.6752e-06
17250.0 5.6432e-06
17270.0 5.611e-06
17290.0 5.5796e-06
17310.0 5.5487e-06
17330.0 5.5174e-06
17350.0 5.4863e-06
17370.0 5.4563e-06
17390.0 5.4262e-06
17410.0 5.3958e-06
17430.0 5.3662e-06
17450.0 5.3371e-06
17470.0 5.3071e-06
17490.0 5.2777e-06
17510.0 5.2492e-06
17530.0 5.2206e-06
17550.0 5.1916e-06
17570.0 5.1637e-06
17590.0 5.136e-06
17610.0 5.1078e-06
17630.0 5.0801e-06
17650.0 5.053e-06
17670.0 5.0258e-06
17690.0 4.998e-06
17710.0 4.9715e-06
17730.0 4.9451e-06
17750.0 4.9184e-06
17770.0 4.8921e-06
17790.0 4.8666e-06
17810.0 4.8405e-06
17830.0 4.8144e-06
17850.0 4.7891e-06
17870.0 4.764e-06
17890.0 4.7383e-06
17910.0 4.7131e-06
17930.0 4.6889e-06
17950.0 4.6641e-06
17970.0 4.6394e-06
17990.0 4.6154e-06
18010.0 4.5915e-06
18030.0 4.5669e-06
18050.0 4.543e-06
18070.0 4.5198e-06
18090.0 4.4961e-06
18110.0 4.4723e-06
18130.0 4.4496e-06
18150.0 4.4268e-06
18170.0 4.4035e-06
18190.0 4.3808e-06
18210.0 4.3587e-06
18230.0 4.3359e-06
18250.0 4.3131e-06
18270.0 4.2913e-06
18290.0 4.2694e-06
18310.0 4.2472e-06
18330.0 4.2256e-06
18350.0 4.2045e-06
18370.0 4.1827e-06
18390.0 4.1611e-06
18410.0 4.1403e-06
18430.0 4.1193e-06
18450.0 4.0977e-06
18470.0 4.0771e-06
18490.0 4.0568e-06
18510.0 4.036e-06
18530.0 4.0155e-06
18550.0 3.9957e-06
18570.0 3.9755e-06
18590.0 3.9549e-06
18610.0 3.9351e-06
18630.0 3.9156e-06
18650.0 3.8955e-06
18670.0 3.8756e-06
18690.0 3.8567e-06
18710.0 3.8374e-06
18730.0 3.8178e-06
18750.0 3.7989e-06
18770.0 3.7803e-06
18790.0 3.7608e-06
18810.0 3.7418e-06
18830.0 3.7235e-06
18850.0 3.7049e-06
18870.0 3.686e-06
18890.0 3.6679e-06
18910.0 3.65e-06
18930.0 3.6315e-06
18950.0 3.6133e-06
18970.0 3.5957e-06
18990.0 3.5778e-06
19010.0 3.5593e-06
19030.0 3.542e-06
19050.0 3.5247e-06
19070.0 3.5069e-06
19090.0 3.4895e-06
19110.0 3.4727e-06
19130.0 3.4552e-06
19150.0 3.4378e-06
19170.0 3.421e-06
19190.0 3.4042e-06
19210.0 3.3869e-06
19230.0 3.37e-06
19250.0 3.3538e-06
19270.0 3.3371e-06
19290.0 3.3204e-06
19310.0 3.3043e-06
19330.0 3.2881e-06
19350.0 3.2712e-06
19370.0 3.2551e-06
19390.0 3.2393e-06
19410.0 3.2231e-06
19430.0 3.2068e-06
19450.0 3.1913e-06
19470.0 3.1757e-06
19490.0 3.1596e-06
19510.0 3.144e-06
19530.0 3.1288e-06
19550.0 3.1129e-06
19570.0 3.0971e-06
19590.0 3.0821e-06
19610.0 3.0669e-06
19630.0 3.0513e-06
19650.0 3.0363e-06
19670.0 3.0216e-06
19690.0 3.0062e-06
19710.0 2.9911e-06
19730.0 2.9765e-06
19750.0 2.9617e-06
19770.0 2.9463e-06
19790.0 2.9317e-06
19810.0 2.9174e-06
19830.0 2.9025e-06
19850.0 2.8876e-06
19870.0 2.873e-06
19890.0 2.8573e-06
19910.0 2.84e-06
19930.0 2.8215e-06
19950.0 2.8002e-06
19970.0 2.774e-06
19990.0 2.7426e-06
20010.0 2.7074e-06
20030.0 2.6653e-06
20050.0 2.6171e-06
20070.0 2.5663e-06
20090.0 2.5133e-06
20110.0 2.4554e-06
20130.0 2.399e-06
20150.0 2.3455e-06
20170.0 2.292e-06
20190.0 2.24e-06
20210.0 2.1928e-06
20230.0 2.1485e-06
20250.0 2.1057e-06
20270.0 2.0676e-06
20290.0 2.0343e-06
20310.0 2.0041e-06
20330.0 1.9775e-06
20350.0 1.9573e-06
20370.0 1.9412e-06
20390.0 1.9295e-06
20410.0 1.923e-06
20430.0 1.9214e-06
20450.0 1.9246e-06
20470.0 1.933e-06
20490.0 1.946e-06
20510.0 1.9635e-06
20530.0 1.9863e-06
20550.0 2.0127e-06
20570.0 2.0417e-06
20590.0 2.0749e-06
20610.0 2.1109e-06
20630.0 2.1476e-06
20650.0 2.1858e-06
20670.0 2.2264e-06
20690.0 2.265e-06
20710.0 2.3021e-06
20730.0 2.3388e-06
20750.0 2.3734e-06
20770.0 2.4041e-06
20790.0 2.4325e-06
20810.0 2.4587e-06
20830.0 2.481e-06
20850.0 2.5001e-06
20870.0 2.5171e-06
20890.0 2.5314e-06
20910.0 2.5429e-06
20930.0 2.5527e-06
20950.0 2.561e-06
20970.0 2.5675e-06
20990.0 2.5726e-06
21010.0 2.5766e-06
21030.0 2.5792e-06
21050.0 2.5805e-06
21070.0 2.5803e-06
21090.0 2.5784e-06
21110.0 2.5751e-06
21130.0 2.5702e-06
21150.0 2.5636e-06
21170.0 2.5555e-06
21190.0 2.5464e-06
21210.0 2.5358e-06
21230.0 2.524e-06
21250.0 2.5121e-06
21270.0 2.4998e-06
21290.0 2.487e-06
21310.0 2.4746e-06
21330.0 2.4633e-06
21350.0 2.4522e-06
21370.0 2.442e-06
21390.0 2.4333e-06
21410.0 2.4259e-06
21430.0 2.4196e-06
21450.0 2.4151e-06
21470.0 2.4124e-06
21490.0 2.4111e-06
21510.0 2.4114e-06
21530.0 2.4134e-06
21550.0 2.4168e-06
21570.0 2.4219e-06
21590.0 2.4284e-06
21610.0 2.4362e-06
21630.0 2.4456e-06
21650.0 2.4567e-06
21670.0 2.4686e-06
21690.0 2.4819e-06
21710.0 2.4971e-06
21730.0 2.5134e-06
21750.0 2.5305e-06
21770.0 2.5501e-06
21790.0 2.5711e-06
21810.0 2.5928e-06
21830.0 2.6161e-06
21850.0 2.6416e-06
21870.0 2.6678e-06
21890.0 2.6944e-06
21910.0 2.7232e-06
21930.0 2.753e-06
21950.0 2.7825e-06
21970.0 2.813e-06
21990.0 2.8452e-06
22010.0 2.876e-06
22030.0 2.906e-06
22050.0 2.9364e-06
22070.0 2.9658e-06
22090.0 2.9925e-06
22110.0 3.0182e-06
22130.0 3.0423e-06
22150.0 3.0631e-06
22170.0 3.0808e-06
22190.0 3.0959e-06
22210.0 3.1072e-06
22230.0 3.1141e-06
22250.0 3.1171e-06
22270.0 3.1156e-06
22290.0 3.1097e-06
22310.0 3.0996e-06
22330.0 3.0841e-06
22350.0 3.0641e-06
22370.0 3.0403e-06
22390.0 3.0118e-06
22410.0 2.978e-06
22430.0 2.942e-06
22450.0 2.903e-06
22470.0 2.8595e-06
22490.0 2.8137e-06
22510.0 2.7675e-06
22530.0 2.7176e-06
22550.0 2.6654e-06
22570.0 2.6147e-06
22590.0 2.5637e-06
22610.0 2.511e-06
22630.0 2.4595e-06
