#lamb flux
1010.0 2.9812e-07
1030.0 3.2652e-07
1050.0 3.5919e-07
1070.0 3.9596e-07
1090.0 4.3773e-07
1110.0 4.8058e-07
1130.0 5.2371e-07
1150.0 5.689e-07
1170.0 6.1551e-07
1190.0 6.5973e-07
1210.0 7.0454e-07
1230.0 7.5086e-07
1250.0 7.9625e-07
1270.0 8.4034e-07
1290.0 8.8693e-07
1310.0 9.3351e-07
1330.0 9.7818e-07
1350.0 1.0234e-06
1370.0 1.07e-06
1390.0 1.1155e-06
1410.0 1.1597e-06
1430.0 1.2059e-06
1450.0 1.2521e-06
1470.0 1.2967e-06
1490.0 1.3419e-06
1510.0 1.3896e-06
1530.0 1.4347e-06
1550.0 1.4793e-06
1570.0 1.5254e-06
1590.0 1.5716e-06
1610.0 1.6157e-06
1630.0 1.6611e-06
1650.0 1.7077e-06
1670.0 1.7528e-06
1690.0 1.7972e-06
1710.0 1.8433e-06
1730.0 1.8896e-06
1750.0 1.9331e-06
1770.0 1.9777e-06
1790.0 2.0232e-06
1810.0 2.0671e-06
1830.0 2.11e-06
1850.0 2.1555e-06
1870.0 2.1996e-06
1890.0 2.2419e-06
1910.0 2.2849e-06
1930.0 2.3287e-06
1950.0 2.3701e-06
1970.0 2.4107e-06
1990.0 2.4525e-06
2010.0 2.4931e-06
2030.0 2.5317e-06
2050.0 2.5711e-06
2070.0 2.611e-06
2090.0 2.6477e-06
2110.0 2.6836e-06
2130.0 2.72e-06
2150.0 2.7549e-06
2170.0 2.787e-06
2190.0 2.8198e-06
2210.0 2.8518e-06
2230.0 2.8812e-06
2250.0 2.9092e-06
2270.0 2.9379e-06
2290.0 2.9641e-06
2310.0 2.9873e-06
2330.0 3.0105e-06
2350.0 3.0327e-06
2370.0 3.0518e-06
2390.0 3.0702e-06
2410.0 3.0896e-06
2430.0 3.1073e-06
2450.0 3.1244e-06
2470.0 3.1444e-06
2490.0 3.1699e-06
2510.0 3.2016e-06
2530.0 3.2536e-06
2550.0 3.3474e-06
2570.0 3.5035e-06
2590.0 3.7457e-06
2610.0 4.1391e-06
2630.0 4.6936e-06
2650.0 5.3725e-06
2670.0 6.1782e-06
2690.0 7.0739e-06
2710.0 7.9288e-06
2730.0 8.6833e-06
2750.0 9.3512e-06
2770.0 9.8682e-06
2790.0 1.0234e-05
2810.0 1.0503e-05
2830.0 1.0717e-05
2850.0 1.0868e-05
2870.0 1.0996e-05
2890.0 1.1125e-05
2910.0 1.125e-05
2930.0 1.1361e-05
2950.0 1.148e-05
2970.0 1.1604e-05
2990.0 1.1717e-05
3010.0 0.00010761
3030.0 0.00010866
3050.0 0.00010965
3070.0 0.00011041
3090.0 0.00011101
3110.0 0.00011127
3130.0 0.0001109
3150.0 0.00010977
3170.0 0.00010763
3190.0 0.0001045
3210.0 0.00010066
3230.0 9.6569e-05
3250.0 9.6187e-05
3270.0 9.311e-05
3290.0 9.6775e-05
3310.0 9.3277e-05
3330.0 9.507e-05
3350.0 9.8275e-05
3370.0 0.00010247
3390.0 0.00010744
3410.0 0.00011259
3430.0 0.0001181
3450.0 0.00012402
3470.0 0.00012998
3490.0 0.00013571
3510.0 0.00014295
3530.0 0.00015161
3550.0 0.00015708
3570.0 0.00016112
3590.0 0.00017172
3610.0 0.00017437
3630.0 0.00018745
3650.0 0.0001971
3670.0 0.00020733
3690.0 0.00020894
3710.0 0.00020313
3730.0 0.00020611
3750.0 0.00020613
3770.0 0.00021463
3790.0 0.00022729
3810.0 0.00025284
3830.0 0.00030593
3850.0 0.00036438
3870.0 0.00041953
3890.0 0.00045581
3910.0 0.00047274
3930.0 0.00049174
3950.0 0.00051114
3970.0 0.00044824
3990.0 0.00030446
4010.0 0.00026327
4030.0 0.00035971
4050.0 0.0004535
4070.0 0.00040308
4090.0 0.00024848
4110.0 0.00024176
4130.0 0.0003438
4150.0 0.00038973
4170.0 0.0003281
4190.0 0.00027994
4210.0 0.00036727
4230.0 0.00038571
4250.0 0.00036635
4270.0 0.00036908
4290.0 0.00033653
4310.0 0.00037778
4330.0 0.0004403
4350.0 0.00050575
4370.0 0.00050358
4390.0 0.00049088
4410.0 0.00043326
4430.0 0.00034176
4450.0 0.00026014
4470.0 0.0002822
4490.0 0.00030545
4510.0 0.0004184
4530.0 0.00043631
4550.0 0.0004295
4570.0 0.00049902
4590.0 0.00063638
4610.0 0.00087063
4630.0 0.0010679
4650.0 0.0010782
4670.0 0.0011131
4690.0 0.0011996
4710.0 0.0011748
4730.0 0.00094688
4750.0 0.00067508
4770.0 0.00056371
4790.0 0.00049703
4810.0 0.00047105
4830.0 0.00051472
4850.0 0.00057808
4870.0 0.00067866
4890.0 0.00074516
4910.0 0.0006634
4930.0 0.00069039
4950.0 0.00085834
4970.0 0.0010633
4990.0 0.0012218
5010.0 0.0012214
5030.0 0.0010343
5050.0 0.00074884
5070.0 0.00054869
5090.0 0.00047463
5110.0 0.00048716
5130.0 0.00053061
5150.0 0.00049958
5170.0 0.00049765
5190.0 0.0004955
5210.0 0.00050463
5230.0 0.00054634
5250.0 0.00056422
5270.0 0.00060815
5290.0 0.00073008
5310.0 0.00082793
5330.0 0.0008748
5350.0 0.00089271
5370.0 0.00095381
5390.0 0.00099232
5410.0 0.00091243
5430.0 0.00083149
5450.0 0.00084988
5470.0 0.0010072
5490.0 0.001292
5510.0 0.001553
5530.0 0.0016355
5550.0 0.0015883
5570.0 0.0015017
5590.0 0.0014063
5610.0 0.0013455
5630.0 0.0013691
5650.0 0.0014144
5670.0 0.0013694
5690.0 0.0012894
5710.0 0.0012582
5730.0 0.0011131
5750.0 0.00088875
5770.0 0.00080956
5790.0 0.00091216
5810.0 0.0010155
5830.0 0.001134
5850.0 0.0011656
5870.0 0.0011351
5890.0 0.0010758
5910.0 0.0010027
5930.0 0.0010004
5950.0 0.0010564
5970.0 0.0010792
5990.0 0.00095348
6010.0 0.00077661
6030.0 0.000629
6050.0 0.00056916
6070.0 0.00060341
6090.0 0.00067765
6110.0 0.00069436
6130.0 0.00065037
6150.0 0.00064461
6170.0 0.00071259
6190.0 0.00083164
6210.0 0.00099611
6230.0 0.0011245
6250.0 0.0010669
6270.0 0.00093145
6290.0 0.00077791
6310.0 0.00061691
6330.0 0.00052259
6350.0 0.00051596
6370.0 0.0005663
6390.0 0.00062476
6410.0 0.00073093
6430.0 0.00089955
6450.0 0.0011076
6470.0 0.0012994
6490.0 0.0014689
6510.0 0.0015568
6530.0 0.0015021
6550.0 0.001443
6570.0 0.0014498
6590.0 0.0014413
6610.0 0.0013718
6630.0 0.0012921
6650.0 0.0012021
6670.0 0.0011907
6690.0 0.0011607
6710.0 0.0010733
6730.0 0.00093376
6750.0 0.00083218
6770.0 0.00085834
6790.0 0.00091639
6810.0 0.00099568
6830.0 0.0010151
6850.0 0.00095399
6870.0 0.00092592
6890.0 0.00090725
6910.0 0.00085729
6930.0 0.00082792
6950.0 0.00083415
6970.0 0.00085202
6990.0 0.00090104
7010.0 0.00096999
7030.0 0.00095089
7050.0 0.00086177
7070.0 0.00077424
7090.0 0.0006616
7110.0 0.00058929
7130.0 0.00061923
7150.0 0.00067086
7170.0 0.00068355
7190.0 0.00066796
7210.0 0.00066097
7230.0 0.00074217
7250.0 0.00084526
7270.0 0.00090977
7290.0 0.00091812
7310.0 0.00087314
7330.0 0.00080193
7350.0 0.00074168
7370.0 0.00070444
7390.0 0.00069665
7410.0 0.00074468
7430.0 0.00085785
7450.0 0.00095773
7470.0 0.0010781
7490.0 0.0012326
7510.0 0.0011786
7530.0 0.00099288
7550.0 0.00083736
7570.0 0.00069646
7590.0 0.00057647
7610.0 0.00055824
7630.0 0.00058647
7650.0 0.00064743
7670.0 0.00074195
7690.0 0.00081712
7710.0 0.00092194
7730.0 0.00096404
7750.0 0.00099764
7770.0 0.0010556
7790.0 0.001066
7810.0 0.0010504
7830.0 0.00099514
7850.0 0.00097285
7870.0 0.00094162
7890.0 0.00086564
7910.0 0.00078912
7930.0 0.0007177
7950.0 0.00061648
7970.0 0.00058628
7990.0 0.00060578
8010.0 0.00070224
8030.0 0.00070656
8050.0 0.00073382
8070.0 0.00072174
8090.0 0.00072182
8110.0 0.00070413
8130.0 0.00066496
8150.0 0.0006182
8170.0 0.00061296
8190.0 0.00062122
8210.0 0.00062784
8230.0 0.00058811
8250.0 0.00055272
8270.0 0.00048665
8290.0 0.00039992
8310.0 0.00031665
8330.0 0.00022681
8350.0 0.00017052
8370.0 0.00016027
8390.0 0.00017681
8410.0 0.00020872
8430.0 0.00026192
8450.0 0.00028929
8470.0 0.00031007
8490.0 0.00034092
8510.0 0.00036564
8530.0 0.00040568
8550.0 0.00047926
8570.0 0.000547
8590.0 0.0005997
8610.0 0.00069001
8630.0 0.00079821
8650.0 0.00084095
8670.0 0.00085344
8690.0 0.00084946
8710.0 0.00082017
8730.0 0.00078634
8750.0 0.00073737
8770.0 0.0007248
8790.0 0.00070097
8810.0 0.00064828
8830.0 0.00061266
8850.0 0.00053391
8870.0 0.00048919
8890.0 0.00045041
8910.0 0.00049404
8930.0 0.0004674
8950.0 0.00047586
8970.0 0.00048484
8990.0 0.00048165
9010.0 0.00048789
9030.0 0.00047079
9050.0 0.00046959
9070.0 0.00047006
9090.0 0.00047054
9110.0 0.0004712
9130.0 0.0004717
9150.0 0.00047215
9170.0 0.00047193
9190.0 0.00047081
9210.0 0.00047573
9230.0 0.00047527
9250.0 0.00047538
9270.0 0.00047567
9290.0 0.00047607
9310.0 0.00047657
9330.0 0.00047712
9350.0 0.00047773
9370.0 0.00047837
9390.0 0.00047902
9410.0 0.0004797
9430.0 0.00048041
9450.0 0.00048113
9470.0 0.00048187
9490.0 0.00048263
9510.0 0.00048342
9530.0 0.00048421
9550.0 0.00048505
9570.0 0.00048591
9590.0 0.00048679
9610.0 0.00048768
9630.0 0.00048862
9650.0 0.00048958
9670.0 0.00049054
9690.0 0.00049154
9710.0 0.00049257
9730.0 0.00049361
9750.0 0.00049467
9770.0 0.00049579
9790.0 0.00049691
9810.0 0.00049804
9830.0 0.00049921
9850.0 0.00050041
9870.0 0.0005016
9890.0 0.00050282
9910.0 0.00050408
9930.0 0.00050534
9950.0 0.00050629
9970.0 0.0005077
9990.0 0.00050911
10010.0 0.00051041
10030.0 0.00051178
10050.0 0.00051298
10070.0 0.00051321
10090.0 0.00051498
10110.0 0.00051672
10130.0 0.00051835
10150.0 0.00051992
10170.0 0.00052141
10190.0 0.00052282
10210.0 0.00052426
10230.0 0.0005257
10250.0 0.00052708
10270.0 0.00052846
10290.0 0.00052988
10310.0 0.00053125
10330.0 0.00053257
10350.0 0.00053394
10370.0 0.00053529
10390.0 0.00053659
10410.0 0.00053789
10430.0 0.00053921
10450.0 0.00054047
10470.0 0.0005417
10490.0 0.00054293
10510.0 0.00054415
10530.0 0.00054528
10550.0 0.00054641
10570.0 0.00054754
10590.0 0.00054862
10610.0 0.00054964
10630.0 0.00055068
10650.0 0.00055167
10670.0 0.00055258
10690.0 0.00055348
10710.0 0.00055436
10730.0 0.00055517
10750.0 0.00055591
10770.0 0.00055667
10790.0 0.00055738
10810.0 0.000558
10830.0 0.00055857
10850.0 0.00055908
10870.0 0.00055935
10890.0 0.00055933
10910.0 0.00055888
10930.0 0.00055766
10950.0 0.00055514
10970.0 0.0005511
10990.0 0.00054542
11010.0 0.0005494
11030.0 0.00053799
11050.0 0.00052491
11070.0 0.00050994
11090.0 0.00049266
11110.0 0.00047553
11130.0 0.00045844
11150.0 0.00044095
11170.0 0.00042403
11190.0 0.00040874
11210.0 0.00039414
11230.0 0.00038045
11250.0 0.0003686
11270.0 0.00035827
11290.0 0.00034891
11310.0 0.00034088
11330.0 0.00033436
11350.0 0.00032851
11370.0 0.00032319
11390.0 0.00031842
11410.0 0.00031384
11430.0 0.0003089
11450.0 0.00030376
11470.0 0.00029836
11490.0 0.00029233
11510.0 0.00028555
11530.0 0.00027852
11550.0 0.00027112
11570.0 0.00026307
11590.0 0.00025486
11610.0 0.00024681
11630.0 0.00023851
11650.0 0.00023018
11670.0 0.00022248
11690.0 0.00021513
11710.0 0.00020796
11730.0 0.00020133
11750.0 0.00019537
11770.0 0.00018963
11790.0 0.00018423
11810.0 0.00017934
11830.0 0.00017475
11850.0 0.00017017
11870.0 0.00016588
11890.0 0.00016181
11910.0 0.00015767
11930.0 0.00015348
11950.0 0.0001494
11970.0 0.00014523
11990.0 0.00014084
12010.0 0.0001365
12030.0 0.00013223
12050.0 0.00012786
12070.0 0.00012349
12090.0 0.00011951
12110.0 0.00011568
12130.0 0.00011207
12150.0 0.00010892
12170.0 0.00010628
12190.0 0.00010405
12210.0 0.00010245
12230.0 0.00010152
12250.0 0.00010124
12270.0 0.00010166
12290.0 0.00010273
12310.0 0.00010436
12330.0 0.00010665
12350.0 0.00010946
12370.0 0.00011255
12390.0 0.00011599
12410.0 0.00011984
12430.0 0.00012352
12450.0 0.00012711
12470.0 0.00013067
12490.0 0.00013397
12510.0 0.00013677
12530.0 0.00013929
12550.0 0.00014143
12570.0 0.000143
12590.0 0.00014409
12610.0 0.00014475
12630.0 0.00014491
12650.0 0.00014461
12670.0 0.00014391
12690.0 0.00014284
12710.0 0.00014145
12730.0 0.0001398
12750.0 0.00013784
12770.0 0.00013569
12790.0 0.00013343
12810.0 0.00013098
12830.0 0.00012836
12850.0 0.00012573
12870.0 0.00012301
12890.0 0.0001201
12910.0 0.00011711
12930.0 0.0001141
12950.0 0.00011086
12970.0 0.00010744
12990.0 0.00010404
13010.0 0.00010055
13030.0 9.688e-05
13050.0 9.3225e-05
13070.0 8.9705e-05
13090.0 8.6116e-05
13110.0 8.262e-05
13130.0 7.9406e-05
13150.0 7.6411e-05
13170.0 7.3575e-05
13190.0 7.116e-05
13210.0 6.9153e-05
13230.0 6.7457e-05
13250.0 6.6142e-05
13270.0 6.5231e-05
13290.0 6.465e-05
13310.0 6.4391e-05
13330.0 6.4422e-05
13350.0 6.4674e-05
13370.0 6.5124e-05
13390.0 6.5722e-05
13410.0 6.6343e-05
13430.0 6.7003e-05
13450.0 6.7669e-05
13470.0 6.826e-05
13490.0 6.8757e-05
13510.0 6.9202e-05
13530.0 6.9534e-05
13550.0 6.9752e-05
13570.0 6.9893e-05
13590.0 6.9971e-05
13610.0 6.9987e-05
13630.0 6.9964e-05
13650.0 6.993e-05
13670.0 6.9888e-05
13690.0 6.9843e-05
13710.0 6.9807e-05
13730.0 6.9786e-05
13750.0 6.9757e-05
13770.0 6.972e-05
13790.0 6.9669e-05
13810.0 6.9584e-05
13830.0 6.9452e-05
13850.0 6.9263e-05
13870.0 6.9e-05
13890.0 6.8662e-05
13910.0 6.8246e-05
13930.0 6.7738e-05
13950.0 6.7154e-05
13970.0 6.6536e-05
13990.0 6.5861e-05
14010.0 6.5153e-05
14030.0 6.4462e-05
14050.0 6.3792e-05
14070.0 6.3128e-05
14090.0 6.2531e-05
14110.0 6.2005e-05
14130.0 6.1536e-05
14150.0 6.1131e-05
14170.0 6.081e-05
14190.0 6.0553e-05
14210.0 6.0358e-05
14230.0 6.0232e-05
14250.0 6.0171e-05
14270.0 6.0181e-05
14290.0 6.0271e-05
14310.0 6.0426e-05
14330.0 6.0659e-05
14350.0 6.0983e-05
14370.0 6.1377e-05
14390.0 6.1825e-05
14410.0 6.2361e-05
14430.0 6.2962e-05
14450.0 6.3591e-05
14470.0 6.4267e-05
14490.0 6.5026e-05
14510.0 6.58e-05
14530.0 6.6598e-05
14550.0 6.7487e-05
14570.0 6.846e-05
14590.0 6.9485e-05
14610.0 7.0641e-05
14630.0 7.1988e-05
14650.0 7.345e-05
14670.0 7.5049e-05
14690.0 7.6885e-05
14710.0 7.8936e-05
14730.0 8.1029e-05
14750.0 8.3311e-05
14770.0 8.5779e-05
14790.0 8.8265e-05
14810.0 9.073e-05
14830.0 9.3348e-05
14850.0 9.5861e-05
14870.0 9.8167e-05
14890.0 0.00010035
14910.0 0.00010238
14930.0 0.00010407
14950.0 0.00010546
14970.0 0.00010661
14990.0 0.00010743
15010.0 0.00010796
15030.0 0.00010825
15050.0 0.00010833
15070.0 0.00010827
15090.0 0.00010811
15110.0 0.00010788
15130.0 0.00010761
15150.0 0.00010734
15170.0 0.00010705
15190.0 0.00010675
15210.0 0.00010646
15230.0 0.00010618
15250.0 0.00010589
15270.0 0.0001056
15290.0 0.00010532
15310.0 0.00010504
15330.0 0.00010476
15350.0 0.00010449
15370.0 0.00010422
15390.0 0.00010394
15410.0 0.00010366
15430.0 0.0001034
15450.0 0.00010313
15470.0 0.00010286
15490.0 0.0001026
15510.0 0.00010234
15530.0 0.00010207
15550.0 0.00010181
15570.0 0.00010155
15590.0 0.00010129
15610.0 0.00010102
15630.0 0.00010077
15650.0 0.00010051
15670.0 0.00010025
15690.0 9.9996e-05
15710.0 9.975e-05
15730.0 9.949e-05
15750.0 9.9231e-05
15770.0 9.8982e-05
15790.0 9.8731e-05
15810.0 9.8465e-05
15830.0 9.8212e-05
15850.0 9.7967e-05
15870.0 9.7711e-05
15890.0 9.7454e-05
15910.0 9.7209e-05
15930.0 9.6958e-05
15950.0 9.6694e-05
15970.0 9.6442e-05
15990.0 9.6195e-05
16010.0 9.5935e-05
16030.0 9.5673e-05
16050.0 9.5428e-05
16070.0 9.5175e-05
16090.0 9.4913e-05
16110.0 9.466e-05
16130.0 9.4412e-05
16150.0 9.4144e-05
16170.0 9.3881e-05
16190.0 9.363e-05
16210.0 9.3371e-05
16230.0 9.3103e-05
16250.0 9.2846e-05
16270.0 9.2592e-05
16290.0 9.2324e-05
16310.0 9.2058e-05
16330.0 9.1801e-05
16350.0 9.1536e-05
16370.0 9.1255e-05
16390.0 9.0993e-05
16410.0 9.0731e-05
16430.0 9.0456e-05
16450.0 9.0183e-05
16470.0 8.9923e-05
16490.0 8.9647e-05
16510.0 8.9365e-05
16530.0 8.9094e-05
16550.0 8.8822e-05
16570.0 8.8536e-05
16590.0 8.8252e-05
16610.0 8.7983e-05
16630.0 8.77e-05
16650.0 8.7412e-05
16670.0 8.7134e-05
16690.0 8.6854e-05
16710.0 8.6555e-05
16730.0 8.6266e-05
16750.0 8.5984e-05
16770.0 8.569e-05
16790.0 8.5389e-05
16810.0 8.5103e-05
16830.0 8.4813e-05
16850.0 8.451e-05
16870.0 8.4212e-05
16890.0 8.3921e-05
16910.0 8.3614e-05
16930.0 8.3302e-05
16950.0 8.3006e-05
16970.0 8.2704e-05
16990.0 8.239e-05
17010.0 8.2083e-05
17030.0 8.1784e-05
17050.0 8.1467e-05
17070.0 8.115e-05
17090.0 8.0842e-05
17110.0 8.0529e-05
17130.0 8.02e-05
17150.0 7.9883e-05
17170.0 7.9572e-05
17190.0 7.9248e-05
17210.0 7.8922e-05
17230.0 7.8608e-05
17250.0 7.8283e-05
17270.0 7.7946e-05
17290.0 7.7621e-05
17310.0 7.7298e-05
17330.0 7.6962e-05
17350.0 7.6622e-05
17370.0 7.63e-05
17390.0 7.5967e-05
17410.0 7.5625e-05
17430.0 7.5292e-05
17450.0 7.4963e-05
17470.0 7.4611e-05
17490.0 7.4266e-05
17510.0 7.3932e-05
17530.0 7.359e-05
17550.0 7.3237e-05
17570.0 7.2897e-05
17590.0 7.2559e-05
17610.0 7.2204e-05
17630.0 7.1854e-05
17650.0 7.1512e-05
17670.0 7.1161e-05
17690.0 7.0794e-05
17710.0 7.0448e-05
17730.0 7.01e-05
17750.0 6.974e-05
17770.0 6.9383e-05
17790.0 6.9038e-05
17810.0 6.8676e-05
17830.0 6.8311e-05
17850.0 6.7956e-05
17870.0 6.76e-05
17890.0 6.7231e-05
17910.0 6.6865e-05
17930.0 6.6514e-05
17950.0 6.6149e-05
17970.0 6.578e-05
17990.0 6.5423e-05
18010.0 6.5063e-05
18030.0 6.4684e-05
18050.0 6.4318e-05
18070.0 6.3958e-05
18090.0 6.3588e-05
18110.0 6.3212e-05
18130.0 6.2852e-05
18150.0 6.2487e-05
18170.0 6.211e-05
18190.0 6.1741e-05
18210.0 6.1379e-05
18230.0 6.1002e-05
18250.0 6.0621e-05
18270.0 6.0258e-05
18290.0 5.9888e-05
18310.0 5.9509e-05
18330.0 5.9139e-05
18350.0 5.8776e-05
18370.0 5.8397e-05
18390.0 5.8019e-05
18410.0 5.7652e-05
18430.0 5.728e-05
18450.0 5.6894e-05
18470.0 5.6523e-05
18490.0 5.6157e-05
18510.0 5.5779e-05
18530.0 5.5402e-05
18550.0 5.5037e-05
18570.0 5.4663e-05
18590.0 5.4278e-05
18610.0 5.3907e-05
18630.0 5.3539e-05
18650.0 5.3158e-05
18670.0 5.2778e-05
18690.0 5.2415e-05
18710.0 5.2042e-05
18730.0 5.1663e-05
18750.0 5.1293e-05
18770.0 5.0928e-05
18790.0 5.0543e-05
18810.0 5.0167e-05
18830.0 4.9802e-05
18850.0 4.9429e-05
18870.0 4.905e-05
18890.0 4.8684e-05
18910.0 4.832e-05
18930.0 4.7941e-05
18950.0 4.7569e-05
18970.0 4.7207e-05
18990.0 4.6835e-05
19010.0 4.6452e-05
19030.0 4.609e-05
19050.0 4.5727e-05
19070.0 4.5353e-05
19090.0 4.4984e-05
19110.0 4.4628e-05
19130.0 4.4256e-05
19150.0 4.3883e-05
19170.0 4.3522e-05
19190.0 4.316e-05
19210.0 4.2786e-05
19230.0 4.242e-05
19250.0 4.2066e-05
19270.0 4.1701e-05
19290.0 4.1334e-05
19310.0 4.0979e-05
19330.0 4.0622e-05
19350.0 4.0248e-05
19370.0 3.9889e-05
19390.0 3.9536e-05
19410.0 3.9174e-05
19430.0 3.8809e-05
19450.0 3.846e-05
19470.0 3.8107e-05
19490.0 3.7744e-05
19510.0 3.739e-05
19530.0 3.7043e-05
19550.0 3.6682e-05
19570.0 3.632e-05
19590.0 3.5975e-05
19610.0 3.5625e-05
19630.0 3.5268e-05
19650.0 3.492e-05
19670.0 3.4579e-05
19690.0 3.4223e-05
19710.0 3.3871e-05
19730.0 3.353e-05
19750.0 3.3184e-05
19770.0 3.2827e-05
19790.0 3.2485e-05
19810.0 3.2148e-05
19830.0 3.1799e-05
19850.0 3.145e-05
19870.0 3.111e-05
19890.0 3.0751e-05
19910.0 3.0366e-05
19930.0 2.997e-05
19950.0 2.9539e-05
19970.0 2.9039e-05
19990.0 2.8475e-05
20010.0 2.7873e-05
20030.0 2.7188e-05
20050.0 2.644e-05
20070.0 2.5683e-05
20090.0 2.4925e-05
20110.0 2.4137e-05
20130.0 2.3407e-05
20150.0 2.2747e-05
20170.0 2.2125e-05
20190.0 2.1559e-05
20210.0 2.1077e-05
20230.0 2.0656e-05
20250.0 2.0281e-05
20270.0 1.9976e-05
20290.0 1.9732e-05
20310.0 1.9534e-05
20330.0 1.9385e-05
20350.0 1.929e-05
20370.0 1.9236e-05
20390.0 1.9225e-05
20410.0 1.9254e-05
20430.0 1.9318e-05
20450.0 1.9427e-05
20470.0 1.9576e-05
20490.0 1.9758e-05
20510.0 1.9977e-05
20530.0 2.0245e-05
20550.0 2.0542e-05
20570.0 2.086e-05
20590.0 2.122e-05
20610.0 2.1607e-05
20630.0 2.1999e-05
20650.0 2.2408e-05
20670.0 2.2846e-05
20690.0 2.3264e-05
20710.0 2.3668e-05
20730.0 2.4075e-05
20750.0 2.4468e-05
20770.0 2.4824e-05
20790.0 2.5172e-05
20810.0 2.5512e-05
20830.0 2.5828e-05
20850.0 2.613e-05
20870.0 2.6441e-05
20890.0 2.6754e-05
20910.0 2.7055e-05
20930.0 2.7372e-05
20950.0 2.7709e-05
20970.0 2.8046e-05
20990.0 2.8385e-05
21010.0 2.8748e-05
21030.0 2.9104e-05
21050.0 2.9439e-05
21070.0 2.9766e-05
21090.0 3.0079e-05
21110.0 3.0344e-05
21130.0 3.0569e-05
21150.0 3.0761e-05
21170.0 3.0902e-05
21190.0 3.099e-05
21210.0 3.1033e-05
21230.0 3.1025e-05
21250.0 3.0966e-05
21270.0 3.0863e-05
21290.0 3.0711e-05
21310.0 3.0518e-05
21330.0 3.0297e-05
21350.0 3.0035e-05
21370.0 2.9739e-05
21390.0 2.9427e-05
21410.0 2.9097e-05
21430.0 2.8729e-05
21450.0 2.8361e-05
21470.0 2.7997e-05
21490.0 2.762e-05
21510.0 2.724e-05
21530.0 2.6883e-05
21550.0 2.6535e-05
21570.0 2.6191e-05
21590.0 2.5877e-05
21610.0 2.5596e-05
21630.0 2.5336e-05
21650.0 2.5105e-05
21670.0 2.4926e-05
21690.0 2.4782e-05
21710.0 2.4678e-05
21730.0 2.462e-05
21750.0 2.4606e-05
21770.0 2.4638e-05
21790.0 2.4717e-05
21810.0 2.4838e-05
21830.0 2.5001e-05
21850.0 2.5214e-05
21870.0 2.546e-05
21890.0 2.5732e-05
21910.0 2.6049e-05
21930.0 2.6396e-05
21950.0 2.6756e-05
21970.0 2.7143e-05
21990.0 2.7567e-05
22010.0 2.7985e-05
22030.0 2.8406e-05
22050.0 2.8845e-05
22070.0 2.9284e-05
22090.0 2.9698e-05
22110.0 3.0112e-05
22130.0 3.0522e-05
22150.0 3.0898e-05
22170.0 3.1245e-05
22190.0 3.1577e-05
22210.0 3.187e-05
22230.0 3.2108e-05
22250.0 3.2308e-05
22270.0 3.2463e-05
22290.0 3.2559e-05
22310.0 3.2601e-05
22330.0 3.2584e-05
22350.0 3.2505e-05
22370.0 3.2367e-05
22390.0 3.2165e-05
22410.0 3.1891e-05
22430.0 3.1569e-05
22450.0 3.1194e-05
22470.0 3.0749e-05
22490.0 3.0257e-05
22510.0 2.9736e-05
22530.0 2.9152e-05
22550.0 2.8517e-05
22570.0 2.7878e-05
22590.0 2.7214e-05
22610.0 2.6506e-05
22630.0 2.5794e-05
22650.0 2.5103e-05
22670.0 2.4382e-05
22690.0 2.3657e-05
