#lamb flux
1010.0 7.7873e-07
1030.0 8.3482e-07
1050.0 8.9954e-07
1070.0 9.7245e-07
1090.0 1.0553e-06
1110.0 1.1404e-06
1130.0 1.2263e-06
1150.0 1.3164e-06
1170.0 1.4095e-06
1190.0 1.498e-06
1210.0 1.588e-06
1230.0 1.6813e-06
1250.0 1.7729e-06
1270.0 1.8623e-06
1290.0 1.9569e-06
1310.0 2.0518e-06
1330.0 2.1433e-06
1350.0 2.2361e-06
1370.0 2.3323e-06
1390.0 2.4266e-06
1410.0 2.5185e-06
1430.0 2.6149e-06
1450.0 2.7117e-06
1470.0 2.8059e-06
1490.0 2.9014e-06
1510.0 3.0024e-06
1530.0 3.0987e-06
1550.0 3.1942e-06
1570.0 3.293e-06
1590.0 3.3921e-06
1610.0 3.4872e-06
1630.0 3.5852e-06
1650.0 3.6857e-06
1670.0 3.7829e-06
1690.0 3.8788e-06
1710.0 3.9779e-06
1730.0 4.0771e-06
1750.0 4.1701e-06
1770.0 4.265e-06
1790.0 4.3611e-06
1810.0 4.4532e-06
1830.0 4.5427e-06
1850.0 4.6366e-06
1870.0 4.7267e-06
1890.0 4.8122e-06
1910.0 4.898e-06
1930.0 4.9844e-06
1950.0 5.0649e-06
1970.0 5.1424e-06
1990.0 5.2215e-06
2010.0 5.2972e-06
2030.0 5.3678e-06
2050.0 5.4391e-06
2070.0 5.5108e-06
2090.0 5.5753e-06
2110.0 5.6378e-06
2130.0 5.7012e-06
2150.0 5.7611e-06
2170.0 5.8158e-06
2190.0 5.8721e-06
2210.0 5.9276e-06
2230.0 5.9784e-06
2250.0 6.0278e-06
2270.0 6.0799e-06
2290.0 6.1286e-06
2310.0 6.1732e-06
2330.0 6.22e-06
2350.0 6.267e-06
2370.0 6.3106e-06
2390.0 6.3549e-06
2410.0 6.4031e-06
2430.0 6.4494e-06
2450.0 6.4949e-06
2470.0 6.5453e-06
2490.0 6.6032e-06
2510.0 6.6706e-06
2530.0 6.7717e-06
2550.0 6.9457e-06
2570.0 7.2352e-06
2590.0 7.6903e-06
2610.0 8.4385e-06
2630.0 9.5162e-06
2650.0 1.087e-05
2670.0 1.2518e-05
2690.0 1.4406e-05
2710.0 1.6281e-05
2730.0 1.8023e-05
2750.0 1.9659e-05
2770.0 2.1047e-05
2790.0 2.217e-05
2810.0 2.3137e-05
2830.0 2.4036e-05
2850.0 2.4827e-05
2870.0 2.5599e-05
2890.0 2.6413e-05
2910.0 2.7251e-05
2930.0 2.8083e-05
2950.0 2.8974e-05
2970.0 2.9916e-05
2990.0 3.0858e-05
3010.0 0.00013953
3030.0 0.00014395
3050.0 0.00014832
3070.0 0.00015222
3090.0 0.0001555
3110.0 0.00015722
3130.0 0.00015629
3150.0 0.00015156
3170.0 0.00014073
3190.0 0.00012364
3210.0 0.00010068
3230.0 7.5007e-05
3250.0 0.00010071
3270.0 7.2634e-05
3290.0 0.000134
3310.0 6.8702e-05
3330.0 6.8618e-05
3350.0 7.753e-05
3370.0 8.8336e-05
3390.0 0.00010028
3410.0 0.00011229
3430.0 0.00012496
3450.0 0.00013784
3470.0 0.00014983
3490.0 0.00015861
3510.0 0.00018485
3530.0 0.00022992
3550.0 0.00022574
3570.0 0.00019354
3590.0 0.00024931
3610.0 0.00017713
3630.0 0.00026466
3650.0 0.00030355
3670.0 0.00037475
3690.0 0.0003509
3710.0 0.00024887
3730.0 0.00030623
3750.0 0.0003118
3770.0 0.0003371
3790.0 0.00033724
3810.0 0.00036156
3830.0 0.00055533
3850.0 0.00069157
3870.0 0.00084404
3890.0 0.00083627
3910.0 0.000762
3930.0 0.00076754
3950.0 0.00081886
3970.0 0.00085064
3990.0 0.00052656
4010.0 0.00029658
4030.0 0.0005313
4050.0 0.00071959
4070.0 0.0007405
4090.0 0.00048638
4110.0 0.00032311
4130.0 0.00054432
4150.0 0.00057614
4170.0 0.00051346
4190.0 0.0004515
4210.0 0.00065042
4230.0 0.00051221
4250.0 0.00053124
4270.0 0.00052742
4290.0 0.00048933
4310.0 0.00062176
4330.0 0.00068732
4350.0 0.00061257
4370.0 0.00052977
4390.0 0.00061649
4410.0 0.00061671
4430.0 0.00045356
4450.0 0.00039164
4470.0 0.00048346
4490.0 0.00039275
4510.0 0.00056029
4530.0 0.00057854
4550.0 0.00065018
4570.0 0.00088529
4590.0 0.0009159
4610.0 0.00083654
4630.0 0.0012534
4650.0 0.0015689
4670.0 0.0015273
4690.0 0.0012052
4710.0 0.0012452
4730.0 0.001293
4750.0 0.0010261
4770.0 0.00079887
4790.0 0.00056236
4810.0 0.00071404
4830.0 0.00083879
4850.0 0.00076484
4870.0 0.00042949
4890.0 0.00089005
4910.0 0.0010867
4930.0 0.0011847
4950.0 0.0012712
4970.0 0.0010179
4990.0 0.0011718
5010.0 0.001306
5030.0 0.0013353
5050.0 0.0011905
5070.0 0.00084546
5090.0 0.00069283
5110.0 0.00068108
5130.0 0.00066888
5150.0 0.00067177
5170.0 0.0006143
5190.0 0.00070456
5210.0 0.0007198
5230.0 0.000797
5250.0 0.00091519
5270.0 0.00078888
5290.0 0.0008512
5310.0 0.0011931
5330.0 0.0013522
5350.0 0.0011713
5370.0 0.0010921
5390.0 0.0012412
5410.0 0.0014033
5430.0 0.0014563
5450.0 0.0015273
5470.0 0.0015766
5490.0 0.0016979
5510.0 0.0020341
5530.0 0.0021133
5550.0 0.0021925
5570.0 0.0022605
5590.0 0.0022062
5610.0 0.0020705
5630.0 0.0020404
5650.0 0.0021148
5670.0 0.0020575
5690.0 0.0017901
5710.0 0.0017723
5730.0 0.001734
5750.0 0.0017279
5770.0 0.0015008
5790.0 0.0014773
5810.0 0.0015311
5830.0 0.0016644
5850.0 0.0015757
5870.0 0.0015696
5890.0 0.0017653
5910.0 0.0016389
5930.0 0.0013954
5950.0 0.0013028
5970.0 0.0014024
5990.0 0.0012599
6010.0 0.0011242
6030.0 0.0010647
6050.0 0.0009705
6070.0 0.00079467
6090.0 0.00078555
6110.0 0.00096456
6130.0 0.0010488
6150.0 0.0010757
6170.0 0.0010674
6190.0 0.0010546
6210.0 0.0011367
6230.0 0.0013659
6250.0 0.0012638
6270.0 0.0011253
6290.0 0.0010073
6310.0 0.00088754
6330.0 0.00081078
6350.0 0.00074067
6370.0 0.00076288
6390.0 0.00087532
6410.0 0.0010766
6430.0 0.0012905
6450.0 0.0013587
6470.0 0.0014144
6490.0 0.0016826
6510.0 0.0019016
6530.0 0.0018183
6550.0 0.0017288
6570.0 0.0017513
6590.0 0.0017369
6610.0 0.0018011
6630.0 0.0016841
6650.0 0.0014781
6670.0 0.0013844
6690.0 0.0013687
6710.0 0.0015446
6730.0 0.0013659
6750.0 0.0011342
6770.0 0.0010502
6790.0 0.0011178
6810.0 0.0012769
6830.0 0.0012793
6850.0 0.0011544
6870.0 0.0011822
6890.0 0.0011732
6910.0 0.0011029
6930.0 0.0011903
6950.0 0.001124
6970.0 0.0010647
6990.0 0.0010706
7010.0 0.0011003
7030.0 0.0010759
7050.0 0.0010158
7070.0 0.0010532
7090.0 0.00096562
7110.0 0.000822
7130.0 0.00073832
7150.0 0.00074702
7170.0 0.00089842
7190.0 0.00093627
7210.0 0.00089301
7230.0 0.00095147
7250.0 0.00095643
7270.0 0.00095187
7290.0 0.0010093
7310.0 0.0010747
7330.0 0.0010369
7350.0 0.00096166
7370.0 0.00088894
7390.0 0.00088206
7410.0 0.00099935
7430.0 0.0011375
7450.0 0.0012223
7470.0 0.0012715
7490.0 0.0014419
7510.0 0.0014295
7530.0 0.0012516
7550.0 0.0011506
7570.0 0.0009841
7590.0 0.00091379
7610.0 0.00088456
7630.0 0.00083101
7650.0 0.00089299
7670.0 0.00099823
7690.0 0.0010897
7710.0 0.0012454
7730.0 0.0013002
7750.0 0.001349
7770.0 0.0014211
7790.0 0.0015236
7810.0 0.0015219
7830.0 0.0013714
7850.0 0.0013733
7870.0 0.0013289
7890.0 0.0013335
7910.0 0.0012508
7930.0 0.0012262
7950.0 0.0010241
7970.0 0.0010155
7990.0 0.00099167
8010.0 0.0011046
8030.0 0.0011019
8050.0 0.0011702
8070.0 0.0011267
8090.0 0.0011312
8110.0 0.0011141
8130.0 0.0010927
8150.0 0.001021
8170.0 0.0010048
8190.0 0.0010058
8210.0 0.0010158
8230.0 0.00089399
8250.0 0.00081972
8270.0 0.00072406
8290.0 0.00061484
8310.0 0.00053622
8330.0 0.00041931
8350.0 0.00033553
8370.0 0.00031963
8390.0 0.00031217
8410.0 0.00033097
8430.0 0.00042668
8450.0 0.00046665
8470.0 0.00050356
8490.0 0.00058682
8510.0 0.00063827
8530.0 0.00072214
8550.0 0.00085419
8570.0 0.00094036
8590.0 0.00099037
8610.0 0.0011069
8630.0 0.001266
8650.0 0.0013031
8670.0 0.0013316
8690.0 0.0013745
8710.0 0.0013457
8730.0 0.0012981
8750.0 0.0011939
8770.0 0.0011916
8790.0 0.0011715
8810.0 0.0010777
8830.0 0.0010717
8850.0 0.00097227
8870.0 0.00092261
8890.0 0.00082769
8910.0 0.00092626
8930.0 0.00084056
8950.0 0.00084618
8970.0 0.00086588
8990.0 0.00084339
9010.0 0.00086438
9030.0 0.00082055
9050.0 0.00081685
9070.0 0.00081743
9090.0 0.00081788
9110.0 0.00081892
9130.0 0.00081917
9150.0 0.00081902
9170.0 0.00081673
9190.0 0.0008114
9210.0 0.00082414
9230.0 0.00082094
9250.0 0.00081927
9270.0 0.00081794
9290.0 0.00081682
9310.0 0.00081582
9330.0 0.00081487
9350.0 0.00081395
9370.0 0.00081299
9390.0 0.00081196
9410.0 0.00081091
9430.0 0.00080983
9450.0 0.00080866
9470.0 0.00080745
9490.0 0.00080623
9510.0 0.00080495
9530.0 0.00080362
9550.0 0.00080232
9570.0 0.00080099
9590.0 0.00079962
9610.0 0.00079824
9630.0 0.00079689
9650.0 0.00079552
9670.0 0.00079409
9690.0 0.00079273
9710.0 0.00079138
9730.0 0.00078999
9750.0 0.00078863
9770.0 0.00078736
9790.0 0.00078605
9810.0 0.00078474
9830.0 0.00078349
9850.0 0.00078229
9870.0 0.00078105
9890.0 0.00077987
9910.0 0.00077877
9930.0 0.00077765
9950.0 0.0007755
9970.0 0.00077483
9990.0 0.00077415
10010.0 0.00077338
10030.0 0.0007726
10050.0 0.00077154
10070.0 0.00076888
10090.0 0.00076877
10110.0 0.00076865
10130.0 0.00076838
10150.0 0.00076804
10170.0 0.00076762
10190.0 0.00076713
10210.0 0.0007667
10230.0 0.00076631
10250.0 0.00076591
10270.0 0.00076555
10290.0 0.00076529
10310.0 0.00076503
10330.0 0.00076477
10350.0 0.00076462
10370.0 0.00076451
10390.0 0.0007644
10410.0 0.00076434
10430.0 0.00076438
10450.0 0.00076441
10470.0 0.00076446
10490.0 0.00076458
10510.0 0.00076475
10530.0 0.00076489
10550.0 0.0007651
10570.0 0.00076538
10590.0 0.00076566
10610.0 0.00076595
10630.0 0.00076631
10650.0 0.0007667
10670.0 0.00076707
10690.0 0.0007675
10710.0 0.00076797
10730.0 0.00076844
10750.0 0.00076891
10770.0 0.00076946
10790.0 0.00077001
10810.0 0.00077055
10830.0 0.00077109
10850.0 0.00077161
10870.0 0.00077194
10890.0 0.00077196
10910.0 0.00077145
10930.0 0.00077
10950.0 0.00076693
10970.0 0.00076191
10990.0 0.00075477
11010.0 0.00077071
11030.0 0.00075659
11050.0 0.00074008
11070.0 0.00072101
11090.0 0.00069892
11110.0 0.00067693
11130.0 0.00065497
11150.0 0.00063252
11170.0 0.00061077
11190.0 0.00059104
11210.0 0.0005721
11230.0 0.00055419
11250.0 0.00053847
11270.0 0.00052454
11290.0 0.00051164
11310.0 0.00050027
11330.0 0.00049078
11350.0 0.00048205
11370.0 0.00047396
11390.0 0.00046666
11410.0 0.00045974
11430.0 0.00045245
11450.0 0.00044513
11470.0 0.00043771
11490.0 0.0004297
11510.0 0.00042091
11530.0 0.00041202
11550.0 0.00040276
11570.0 0.00039274
11590.0 0.00038252
11610.0 0.00037246
11630.0 0.00036194
11650.0 0.00035117
11670.0 0.00034102
11690.0 0.00033108
11710.0 0.00032108
11730.0 0.00031152
11750.0 0.00030269
11770.0 0.00029389
11790.0 0.00028537
11810.0 0.00027751
11830.0 0.00027001
11850.0 0.00026244
11870.0 0.00025541
11890.0 0.00024885
11910.0 0.00024229
11930.0 0.00023584
11950.0 0.00022979
11970.0 0.00022381
11990.0 0.00021768
12010.0 0.00021182
12030.0 0.0002062
12050.0 0.00020054
12070.0 0.00019495
12090.0 0.00018993
12110.0 0.0001851
12130.0 0.0001805
12150.0 0.00017644
12170.0 0.00017298
12190.0 0.00016992
12210.0 0.00016759
12230.0 0.00016609
12250.0 0.00016534
12270.0 0.00016546
12290.0 0.00016647
12310.0 0.00016826
12330.0 0.00017096
12350.0 0.00017446
12370.0 0.00017849
12390.0 0.00018313
12410.0 0.00018847
12430.0 0.0001938
12450.0 0.00019918
12470.0 0.0002047
12490.0 0.00021004
12510.0 0.00021487
12530.0 0.00021946
12550.0 0.00022367
12570.0 0.00022722
12590.0 0.00023022
12610.0 0.00023275
12630.0 0.00023471
12650.0 0.00023605
12670.0 0.00023694
12690.0 0.00023738
12710.0 0.00023739
12730.0 0.00023705
12750.0 0.00023633
12770.0 0.00023532
12790.0 0.00023407
12810.0 0.00023254
12830.0 0.0002307
12850.0 0.00022872
12870.0 0.00022653
12890.0 0.00022398
12910.0 0.0002212
12930.0 0.00021826
12950.0 0.0002149
12970.0 0.00021116
12990.0 0.00020733
13010.0 0.00020323
13030.0 0.00019875
13050.0 0.00019415
13070.0 0.00018961
13090.0 0.00018481
13110.0 0.00017999
13130.0 0.00017543
13150.0 0.00017106
13170.0 0.00016673
13190.0 0.00016291
13210.0 0.00015963
13230.0 0.00015669
13250.0 0.00015425
13270.0 0.00015242
13290.0 0.00015105
13310.0 0.00015012
13330.0 0.00014967
13350.0 0.00014958
13370.0 0.00014977
13390.0 0.00015017
13410.0 0.00015064
13430.0 0.00015111
13450.0 0.0001515
13470.0 0.00015173
13490.0 0.00015175
13510.0 0.00015151
13530.0 0.00015101
13550.0 0.00015028
13570.0 0.00014932
13590.0 0.00014814
13610.0 0.00014687
13630.0 0.00014556
13650.0 0.00014416
13670.0 0.0001428
13690.0 0.00014155
13710.0 0.00014036
13730.0 0.00013922
13750.0 0.00013825
13770.0 0.00013738
13790.0 0.00013655
13810.0 0.00013578
13830.0 0.00013506
13850.0 0.00013431
13870.0 0.0001335
13890.0 0.00013266
13910.0 0.00013174
13930.0 0.00013071
13950.0 0.0001296
13970.0 0.00012847
13990.0 0.00012727
14010.0 0.00012603
14030.0 0.00012483
14050.0 0.00012368
14070.0 0.00012255
14090.0 0.00012154
14110.0 0.00012066
14130.0 0.00011989
14150.0 0.00011924
14170.0 0.00011874
14190.0 0.00011836
14210.0 0.0001181
14230.0 0.00011797
14250.0 0.00011795
14270.0 0.00011806
14290.0 0.0001183
14310.0 0.00011865
14330.0 0.00011911
14350.0 0.00011972
14370.0 0.00012042
14390.0 0.00012117
14410.0 0.00012206
14430.0 0.00012301
14450.0 0.00012396
14470.0 0.00012495
14490.0 0.00012601
14510.0 0.00012704
14530.0 0.00012804
14550.0 0.0001291
14570.0 0.00013021
14590.0 0.00013133
14610.0 0.00013256
14630.0 0.00013398
14650.0 0.00013551
14670.0 0.00013718
14690.0 0.00013915
14710.0 0.00014139
14730.0 0.00014371
14750.0 0.00014631
14770.0 0.00014921
14790.0 0.00015222
14810.0 0.00015529
14830.0 0.00015869
14850.0 0.00016208
14870.0 0.00016529
14890.0 0.00016846
14910.0 0.00017153
14930.0 0.00017419
14950.0 0.00017643
14970.0 0.00017835
14990.0 0.00017972
15010.0 0.00018056
15030.0 0.00018096
15050.0 0.00018097
15070.0 0.00018063
15090.0 0.00018009
15110.0 0.00017939
15130.0 0.00017861
15150.0 0.0001778
15170.0 0.00017696
15190.0 0.00017609
15210.0 0.00017524
15230.0 0.0001744
15250.0 0.00017353
15270.0 0.00017267
15290.0 0.00017184
15310.0 0.00017099
15330.0 0.00017014
15350.0 0.00016931
15370.0 0.00016848
15390.0 0.00016763
15410.0 0.0001668
15430.0 0.00016598
15450.0 0.00016515
15470.0 0.00016432
15490.0 0.00016351
15510.0 0.0001627
15530.0 0.00016188
15550.0 0.00016107
15570.0 0.00016028
15590.0 0.00015947
15610.0 0.00015866
15630.0 0.00015787
15650.0 0.00015709
15670.0 0.00015629
15690.0 0.00015551
15710.0 0.00015475
15730.0 0.00015397
15750.0 0.00015319
15770.0 0.00015243
15790.0 0.00015167
15810.0 0.0001509
15830.0 0.00015014
15850.0 0.0001494
15870.0 0.00014865
15890.0 0.0001479
15910.0 0.00014717
15930.0 0.00014644
15950.0 0.0001457
15970.0 0.00014497
15990.0 0.00014426
16010.0 0.00014353
16030.0 0.0001428
16050.0 0.00014211
16070.0 0.0001414
16090.0 0.00014069
16110.0 0.00013999
16130.0 0.00013931
16150.0 0.00013861
16170.0 0.00013791
16190.0 0.00013724
16210.0 0.00013656
16230.0 0.00013587
16250.0 0.0001352
16270.0 0.00013454
16290.0 0.00013387
16310.0 0.00013321
16330.0 0.00013256
16350.0 0.0001319
16370.0 0.00013123
16390.0 0.00013059
16410.0 0.00012996
16430.0 0.00012931
16450.0 0.00012867
16470.0 0.00012805
16490.0 0.00012742
16510.0 0.00012678
16530.0 0.00012616
16550.0 0.00012555
16570.0 0.00012492
16590.0 0.0001243
16610.0 0.0001237
16630.0 0.00012309
16650.0 0.00012248
16670.0 0.00012188
16690.0 0.00012129
16710.0 0.00012068
16730.0 0.00012009
16750.0 0.0001195
16770.0 0.00011891
16790.0 0.00011832
16810.0 0.00011775
16830.0 0.00011717
16850.0 0.00011659
16870.0 0.00011601
16890.0 0.00011545
16910.0 0.00011488
16930.0 0.0001143
16950.0 0.00011374
16970.0 0.00011318
16990.0 0.00011262
17010.0 0.00011206
17030.0 0.00011152
17050.0 0.00011096
17070.0 0.0001104
17090.0 0.00010986
17110.0 0.00010932
17130.0 0.00010876
17150.0 0.00010822
17170.0 0.00010769
17190.0 0.00010715
17210.0 0.00010661
17230.0 0.00010609
17250.0 0.00010556
17270.0 0.00010502
17290.0 0.00010449
17310.0 0.00010397
17330.0 0.00010344
17350.0 0.00010291
17370.0 0.0001024
17390.0 0.00010189
17410.0 0.00010136
17430.0 0.00010085
17450.0 0.00010035
17470.0 9.9825e-05
17490.0 9.931e-05
17510.0 9.8811e-05
17530.0 9.8305e-05
17550.0 9.7791e-05
17570.0 9.7294e-05
17590.0 9.6802e-05
17610.0 9.6294e-05
17630.0 9.5793e-05
17650.0 9.5306e-05
17670.0 9.481e-05
17690.0 9.4299e-05
17710.0 9.3816e-05
17730.0 9.3331e-05
17750.0 9.2836e-05
17770.0 9.2347e-05
17790.0 9.1874e-05
17810.0 9.1384e-05
17830.0 9.0892e-05
17850.0 9.0416e-05
17870.0 8.9941e-05
17890.0 8.9451e-05
17910.0 8.8969e-05
17930.0 8.8506e-05
17950.0 8.8029e-05
17970.0 8.755e-05
17990.0 8.7086e-05
18010.0 8.6621e-05
18030.0 8.6137e-05
18050.0 8.5669e-05
18070.0 8.5211e-05
18090.0 8.4742e-05
18110.0 8.427e-05
18130.0 8.3817e-05
18150.0 8.3361e-05
18170.0 8.2893e-05
18190.0 8.2436e-05
18210.0 8.1989e-05
18230.0 8.1525e-05
18250.0 8.106e-05
18270.0 8.0616e-05
18290.0 8.0167e-05
18310.0 7.9709e-05
18330.0 7.9262e-05
18350.0 7.8825e-05
18370.0 7.8371e-05
18390.0 7.7921e-05
18410.0 7.7485e-05
18430.0 7.7044e-05
18450.0 7.6589e-05
18470.0 7.6151e-05
18490.0 7.5722e-05
18510.0 7.528e-05
18530.0 7.484e-05
18550.0 7.4417e-05
18570.0 7.3983e-05
18590.0 7.3539e-05
18610.0 7.3111e-05
18630.0 7.2688e-05
18650.0 7.2253e-05
18670.0 7.1819e-05
18690.0 7.1406e-05
18710.0 7.0982e-05
18730.0 7.0552e-05
18750.0 7.0135e-05
18770.0 6.9724e-05
18790.0 6.929e-05
18810.0 6.8869e-05
18830.0 6.8461e-05
18850.0 6.8045e-05
18870.0 6.7623e-05
18890.0 6.7217e-05
18910.0 6.6813e-05
18930.0 6.6395e-05
18950.0 6.5984e-05
18970.0 6.5585e-05
18990.0 6.5178e-05
19010.0 6.4757e-05
19030.0 6.4362e-05
19050.0 6.3965e-05
19070.0 6.3558e-05
19090.0 6.3158e-05
19110.0 6.2772e-05
19130.0 6.2368e-05
19150.0 6.1965e-05
19170.0 6.1576e-05
19190.0 6.1186e-05
19210.0 6.0784e-05
19230.0 6.039e-05
19250.0 6.0012e-05
19270.0 5.9621e-05
19290.0 5.9229e-05
19310.0 5.8851e-05
19330.0 5.8472e-05
19350.0 5.8074e-05
19370.0 5.7693e-05
19390.0 5.7319e-05
19410.0 5.6936e-05
19430.0 5.655e-05
19450.0 5.6183e-05
19470.0 5.5811e-05
19490.0 5.5428e-05
19510.0 5.5056e-05
19530.0 5.4693e-05
19550.0 5.4314e-05
19570.0 5.3935e-05
19590.0 5.3575e-05
19610.0 5.321e-05
19630.0 5.2836e-05
19650.0 5.2474e-05
19670.0 5.212e-05
19690.0 5.175e-05
19710.0 5.1384e-05
19730.0 5.1031e-05
19750.0 5.0672e-05
19770.0 5.0301e-05
19790.0 4.9948e-05
19810.0 4.96e-05
19830.0 4.9238e-05
19850.0 4.8877e-05
19870.0 4.8525e-05
19890.0 4.8148e-05
19910.0 4.7738e-05
19930.0 4.7306e-05
19950.0 4.6822e-05
19970.0 4.6241e-05
19990.0 4.5563e-05
20010.0 4.4817e-05
20030.0 4.3946e-05
20050.0 4.2967e-05
20070.0 4.1956e-05
20090.0 4.0921e-05
20110.0 3.9815e-05
20130.0 3.8765e-05
20150.0 3.779e-05
20170.0 3.6843e-05
20190.0 3.5947e-05
20210.0 3.5158e-05
20230.0 3.4439e-05
20250.0 3.3767e-05
20270.0 3.3188e-05
20290.0 3.2699e-05
20310.0 3.2273e-05
20330.0 3.1916e-05
20350.0 3.166e-05
20370.0 3.1474e-05
20390.0 3.136e-05
20410.0 3.1328e-05
20430.0 3.137e-05
20450.0 3.1492e-05
20470.0 3.1697e-05
20490.0 3.197e-05
20510.0 3.2318e-05
20530.0 3.2754e-05
20550.0 3.3249e-05
20570.0 3.3785e-05
20590.0 3.4395e-05
20610.0 3.5053e-05
20630.0 3.572e-05
20650.0 3.6415e-05
20670.0 3.7155e-05
20690.0 3.7858e-05
20710.0 3.8534e-05
20730.0 3.9205e-05
20750.0 3.9841e-05
20770.0 4.0408e-05
20790.0 4.0941e-05
20810.0 4.1441e-05
20830.0 4.188e-05
20850.0 4.2272e-05
20870.0 4.2644e-05
20890.0 4.2985e-05
20910.0 4.3286e-05
20930.0 4.3578e-05
20950.0 4.3864e-05
20970.0 4.413e-05
20990.0 4.4383e-05
21010.0 4.4638e-05
21030.0 4.4872e-05
21050.0 4.508e-05
21070.0 4.5265e-05
21090.0 4.5423e-05
21110.0 4.5536e-05
21130.0 4.5608e-05
21150.0 4.5638e-05
21170.0 4.5622e-05
21190.0 4.5563e-05
21210.0 4.546e-05
21230.0 4.5313e-05
21250.0 4.5137e-05
21270.0 4.4932e-05
21290.0 4.4694e-05
21310.0 4.4438e-05
21330.0 4.418e-05
21350.0 4.3904e-05
21370.0 4.3622e-05
21390.0 4.3349e-05
21410.0 4.3084e-05
21430.0 4.2813e-05
21450.0 4.2565e-05
21470.0 4.234e-05
21490.0 4.2128e-05
21510.0 4.1935e-05
21530.0 4.1773e-05
21550.0 4.1634e-05
21570.0 4.1519e-05
21590.0 4.1436e-05
21610.0 4.1384e-05
21630.0 4.1363e-05
21650.0 4.1379e-05
21670.0 4.1428e-05
21690.0 4.1513e-05
21710.0 4.1641e-05
21730.0 4.1805e-05
21750.0 4.2001e-05
21770.0 4.225e-05
21790.0 4.254e-05
21810.0 4.2859e-05
21830.0 4.322e-05
21850.0 4.3633e-05
21870.0 4.4072e-05
21890.0 4.4529e-05
21910.0 4.5035e-05
21930.0 4.5569e-05
21950.0 4.6106e-05
21970.0 4.6669e-05
21990.0 4.7273e-05
22010.0 4.7856e-05
22030.0 4.8432e-05
22050.0 4.9021e-05
22070.0 4.9599e-05
22090.0 5.0131e-05
22110.0 5.0651e-05
22130.0 5.1149e-05
22150.0 5.159e-05
22170.0 5.1979e-05
22190.0 5.2329e-05
22210.0 5.2611e-05
22230.0 5.2812e-05
22250.0 5.2946e-05
22270.0 5.3003e-05
22290.0 5.2976e-05
22310.0 5.2869e-05
22330.0 5.2668e-05
22350.0 5.2379e-05
22370.0 5.2016e-05
22390.0 5.1561e-05
22410.0 5.1005e-05
22430.0 5.04e-05
22450.0 4.9731e-05
22470.0 4.8971e-05
22490.0 4.8162e-05
22510.0 4.7333e-05
22530.0 4.6428e-05
22550.0 4.5471e-05
22570.0 4.4531e-05
22590.0 4.3575e-05
22610.0 4.2578e-05
22630.0 4.1594e-05
22650.0 4.0658e-05
22670.0 3.97e-05
22690.0 3.8752e-05
22710.0 3.7861e-05
22730.0 3.7001e-05
22750.0 3.6127e-05
22770.0 3.5327e-05
