#lamb flux
1010.0 6.2839e-07
1030.0 6.3993e-07
1050.0 6.8787e-07
1070.0 7.3983e-07
1090.0 7.9574e-07
1110.0 8.4606e-07
1130.0 8.9e-07
1150.0 9.3194e-07
1170.0 9.7122e-07
1190.0 1.0022e-06
1210.0 1.0317e-06
1230.0 1.062e-06
1250.0 1.0904e-06
1270.0 1.1176e-06
1290.0 1.1502e-06
1310.0 1.1854e-06
1330.0 1.2217e-06
1350.0 1.2635e-06
1370.0 1.3129e-06
1390.0 1.3673e-06
1410.0 1.4277e-06
1430.0 1.4993e-06
1450.0 1.5806e-06
1470.0 1.6706e-06
1490.0 1.7732e-06
1510.0 1.8926e-06
1530.0 2.0229e-06
1550.0 2.1678e-06
1570.0 2.332e-06
1590.0 2.5146e-06
1610.0 2.7129e-06
1630.0 2.9337e-06
1650.0 3.1781e-06
1670.0 3.4414e-06
1690.0 3.7255e-06
1710.0 4.0354e-06
1730.0 4.3678e-06
1750.0 4.7139e-06
1770.0 5.0819e-06
1790.0 5.4692e-06
1810.0 5.8665e-06
1830.0 6.2717e-06
1850.0 6.692e-06
1870.0 7.1111e-06
1890.0 7.5227e-06
1910.0 7.9297e-06
1930.0 8.3285e-06
1950.0 8.7021e-06
1970.0 9.0512e-06
1990.0 9.38e-06
2010.0 9.6756e-06
2030.0 9.931e-06
2050.0 1.0156e-05
2070.0 1.0347e-05
2090.0 1.049e-05
2110.0 1.0593e-05
2130.0 1.0665e-05
2150.0 1.0697e-05
2170.0 1.0688e-05
2190.0 1.0654e-05
2210.0 1.0593e-05
2230.0 1.0502e-05
2250.0 1.0389e-05
2270.0 1.0266e-05
2290.0 1.0124e-05
2310.0 9.967e-06
2330.0 9.8077e-06
2350.0 9.6463e-06
2370.0 9.4797e-06
2390.0 9.318e-06
2410.0 9.1697e-06
2430.0 9.0286e-06
2450.0 8.8997e-06
2470.0 8.7943e-06
2490.0 8.7169e-06
2510.0 8.6636e-06
2530.0 8.6609e-06
2550.0 8.7435e-06
2570.0 8.94e-06
2590.0 9.2897e-06
2610.0 9.9085e-06
2630.0 1.0821e-05
2650.0 1.1985e-05
2670.0 1.3436e-05
2690.0 1.5159e-05
2710.0 1.6961e-05
2730.0 1.8762e-05
2750.0 2.0639e-05
2770.0 2.2478e-05
2790.0 2.4243e-05
2810.0 2.6057e-05
2830.0 2.8033e-05
2850.0 3.0022e-05
2870.0 3.2125e-05
2890.0 3.4436e-05
2910.0 3.6893e-05
2930.0 3.9409e-05
2950.0 4.2141e-05
2970.0 4.5071e-05
2990.0 4.8081e-05
3010.0 5.1222e-05
3030.0 5.4591e-05
3050.0 5.8087e-05
3070.0 6.1527e-05
3090.0 6.5013e-05
3110.0 6.8351e-05
3130.0 7.1268e-05
3150.0 7.3627e-05
3170.0 7.5221e-05
3190.0 7.5958e-05
3210.0 7.6022e-05
3230.0 7.5592e-05
3250.0 7.5036e-05
3270.0 7.4875e-05
3290.0 7.5212e-05
3310.0 7.608e-05
3330.0 7.7497e-05
3350.0 7.9261e-05
3370.0 8.1359e-05
3390.0 8.4094e-05
3410.0 8.6475e-05
3430.0 8.8806e-05
3450.0 9.1122e-05
3470.0 9.3893e-05
3490.0 0.00010079
3510.0 0.00011743
3530.0 0.00014105
3550.0 0.00016289
3570.0 0.0001775
3590.0 0.0001848
3610.0 0.0001839
3630.0 0.000179
3650.0 0.00019267
3670.0 0.00022697
3690.0 0.0002562
3710.0 0.00027453
3730.0 0.00029103
3750.0 0.00030762
3770.0 0.00030357
3790.0 0.00028432
3810.0 0.00026506
3830.0 0.00024778
3850.0 0.00024568
3870.0 0.00026663
3890.0 0.00028955
3910.0 0.0003049
3930.0 0.00031844
3950.0 0.00035157
3970.0 0.00038035
3990.0 0.00036323
4010.0 0.00031798
4030.0 0.0002776
4050.0 0.00026566
4070.0 0.0002684
4090.0 0.00026528
4110.0 0.00026052
4130.0 0.00025664
4150.0 0.00025835
4170.0 0.00027841
4190.0 0.00030488
4210.0 0.00030309
4230.0 0.00028924
4250.0 0.00028412
4270.0 0.00028763
4290.0 0.00030353
4310.0 0.00031913
4330.0 0.0003043
4350.0 0.00026389
4370.0 0.00023081
4390.0 0.00020584
4410.0 0.00018458
4430.0 0.00018308
4450.0 0.00019772
4470.0 0.00021054
4490.0 0.00022697
4510.0 0.00026002
4530.0 0.00033201
4550.0 0.00043092
4570.0 0.00049149
4590.0 0.0005251
4610.0 0.00058309
4630.0 0.00062839
4650.0 0.00059076
4670.0 0.00048618
4690.0 0.00039544
4710.0 0.00035341
4730.0 0.00033985
4750.0 0.0003155
4770.0 0.00029433
4790.0 0.00030985
4810.0 0.00033937
4830.0 0.00034447
4850.0 0.00032319
4870.0 0.00031775
4890.0 0.00034144
4910.0 0.00036366
4930.0 0.00036816
4950.0 0.00035706
4970.0 0.00033366
4990.0 0.00029996
5010.0 0.00027043
5030.0 0.00025278
5050.0 0.00024392
5070.0 0.00023672
5090.0 0.00022843
5110.0 0.00022537
5130.0 0.00022577
5150.0 0.00023417
5170.0 0.00025932
5190.0 0.0002934
5210.0 0.00033281
5230.0 0.00036097
5250.0 0.00037734
5270.0 0.00039967
5290.0 0.0004274
5310.0 0.00044026
5330.0 0.00042734
5350.0 0.00040494
5370.0 0.0004044
5390.0 0.00043349
5410.0 0.00047468
5430.0 0.00050441
5450.0 0.00051602
5470.0 0.00051149
5490.0 0.00049635
5510.0 0.00048452
5530.0 0.00048082
5550.0 0.00048203
5570.0 0.00048103
5590.0 0.0004718
5610.0 0.00045459
5630.0 0.00042609
5650.0 0.00039149
5670.0 0.0003688
5690.0 0.00036066
5710.0 0.00035836
5730.0 0.00035716
5750.0 0.00035283
5770.0 0.0003478
5790.0 0.00034941
5810.0 0.00035102
5830.0 0.00035427
5850.0 0.00035767
5870.0 0.0003517
5890.0 0.00033891
5910.0 0.00032066
5930.0 0.00029011
5950.0 0.00026213
5970.0 0.00025286
5990.0 0.00025969
6010.0 0.00026511
6030.0 0.00025645
6050.0 0.00024689
6070.0 0.00025616
6090.0 0.00027776
6110.0 0.00029082
6130.0 0.00028472
6150.0 0.00026941
6170.0 0.00025846
6190.0 0.00024915
6210.0 0.00023484
6230.0 0.00021706
6250.0 0.00020688
6270.0 0.00020907
6290.0 0.00021423
6310.0 0.00022567
6330.0 0.00024594
6350.0 0.00026917
6370.0 0.00028296
6390.0 0.00028785
6410.0 0.00029237
6430.0 0.00029627
6450.0 0.0003009
6470.0 0.00030752
6490.0 0.00031452
6510.0 0.00032023
6530.0 0.00032167
6550.0 0.00031926
6570.0 0.00030996
6590.0 0.0002941
6610.0 0.00028232
6630.0 0.00027584
6650.0 0.00026703
6670.0 0.00025442
6690.0 0.00024333
6710.0 0.0002378
6730.0 0.00023422
6750.0 0.00023021
6770.0 0.00022678
6790.0 0.00022352
6810.0 0.00021816
6830.0 0.00021445
6850.0 0.00021907
6870.0 0.00022282
6890.0 0.00022014
6910.0 0.00021586
6930.0 0.00021218
6950.0 0.00020731
6970.0 0.00019938
6990.0 0.00019179
7010.0 0.00018805
7030.0 0.00018559
7050.0 0.00017891
7070.0 0.00016915
7090.0 0.00016588
7110.0 0.00017151
7130.0 0.00018271
7150.0 0.00019395
7170.0 0.00020154
7190.0 0.0002012
7210.0 0.00019299
7230.0 0.00018756
7250.0 0.00018865
7270.0 0.00018821
7290.0 0.00018662
7310.0 0.00018879
7330.0 0.00019521
7350.0 0.00020375
7370.0 0.00020906
7390.0 0.00020967
7410.0 0.00020683
7430.0 0.00020058
7450.0 0.00019256
7470.0 0.00018473
7490.0 0.00017836
7510.0 0.00017308
7530.0 0.0001706
7550.0 0.00017127
7570.0 0.00017248
7590.0 0.00017419
7610.0 0.00017373
7630.0 0.00017272
7650.0 0.00017552
7670.0 0.00018087
7690.0 0.00018657
7710.0 0.00019209
7730.0 0.00019685
7750.0 0.00020236
7770.0 0.00020721
7790.0 0.00021076
7810.0 0.00021181
7830.0 0.00020966
7850.0 0.00020364
7870.0 0.00019414
7890.0 0.00018444
7910.0 0.00017904
7930.0 0.00017567
7950.0 0.00017169
7970.0 0.00016861
7990.0 0.00016835
8010.0 0.00015963
8030.0 0.00015793
8050.0 0.00015586
8070.0 0.00015314
8090.0 0.00015046
8110.0 0.00015
8130.0 0.00015038
8150.0 0.00014945
8170.0 0.00014795
8190.0 0.00014365
8210.0 0.00013511
8230.0 0.00012638
8250.0 0.00012157
8270.0 0.00011719
8290.0 0.00011152
8310.0 0.00010748
8330.0 0.00010544
8350.0 0.00010244
8370.0 0.000102
8390.0 0.00010639
8410.0 0.00011288
8430.0 0.00012069
8450.0 0.00012934
8470.0 0.00013508
8490.0 0.00014051
8510.0 0.00014494
8530.0 0.00014925
8550.0 0.00015306
8570.0 0.00015569
8590.0 0.00015787
8610.0 0.0001616
8630.0 0.00016284
8650.0 0.00015952
8670.0 0.00015949
8690.0 0.00016277
8710.0 0.0001665
8730.0 0.00016665
8750.0 0.00016286
8770.0 0.00016154
8790.0 0.00016076
8810.0 0.00015742
8830.0 0.00014645
8850.0 0.00013297
8870.0 0.00012329
8890.0 0.00011876
8910.0 0.00011286
8930.0 0.00010481
8950.0 9.9043e-05
8970.0 9.7677e-05
8990.0 9.8623e-05
9010.0 9.8577e-05
9030.0 9.7771e-05
9050.0 9.7064e-05
9070.0 9.651e-05
9090.0 9.5981e-05
9110.0 9.5459e-05
9130.0 9.4938e-05
9150.0 9.4422e-05
9170.0 9.3908e-05
9190.0 9.3401e-05
9210.0 9.2902e-05
9230.0 9.2396e-05
9250.0 9.1896e-05
9270.0 9.1399e-05
9290.0 9.0907e-05
9310.0 9.0419e-05
9330.0 8.9934e-05
9350.0 8.9454e-05
9370.0 8.8976e-05
9390.0 8.8502e-05
9410.0 8.803e-05
9430.0 8.7551e-05
9450.0 8.7025e-05
9470.0 8.652e-05
9490.0 8.6118e-05
9510.0 8.5689e-05
9530.0 8.5261e-05
9550.0 8.482e-05
9570.0 8.4378e-05
9590.0 8.3941e-05
9610.0 8.3504e-05
9630.0 8.3065e-05
9650.0 8.263e-05
9670.0 8.2204e-05
9690.0 8.1774e-05
9710.0 8.1345e-05
9730.0 8.0925e-05
9750.0 8.0504e-05
9770.0 8.0078e-05
9790.0 7.966e-05
9810.0 7.9247e-05
9830.0 7.8827e-05
9850.0 7.8386e-05
9870.0 7.7985e-05
9890.0 7.7584e-05
9910.0 7.7178e-05
9930.0 7.6773e-05
9950.0 7.6359e-05
9970.0 7.5954e-05
9990.0 7.5543e-05
10010.0 7.5103e-05
10030.0 7.4685e-05
10050.0 7.4301e-05
10070.0 7.3915e-05
10090.0 7.3529e-05
10110.0 7.31e-05
10130.0 7.2529e-05
10150.0 7.2156e-05
10170.0 7.1814e-05
10190.0 7.1433e-05
10210.0 7.1057e-05
10230.0 7.0677e-05
10250.0 7.0267e-05
10270.0 6.9856e-05
10290.0 6.946e-05
10310.0 6.9043e-05
10330.0 6.8607e-05
10350.0 6.8195e-05
10370.0 6.7783e-05
10390.0 6.7349e-05
10410.0 6.6916e-05
10430.0 6.6506e-05
10450.0 6.6074e-05
10470.0 6.5629e-05
10490.0 6.52e-05
10510.0 6.4772e-05
10530.0 6.4308e-05
10550.0 6.3857e-05
10570.0 6.3422e-05
10590.0 6.2968e-05
10610.0 6.25e-05
10630.0 6.2052e-05
10650.0 6.1599e-05
10670.0 6.1115e-05
10690.0 6.0642e-05
10710.0 6.0179e-05
10730.0 5.9695e-05
10750.0 5.9189e-05
10770.0 5.8716e-05
10790.0 5.8233e-05
10810.0 5.7725e-05
10830.0 5.7225e-05
10850.0 5.6741e-05
10870.0 5.6217e-05
10890.0 5.5692e-05
10910.0 5.5188e-05
10930.0 5.4677e-05
10950.0 5.4146e-05
10970.0 5.3631e-05
10990.0 5.3141e-05
11010.0 5.0648e-05
11030.0 5.0112e-05
11050.0 4.9613e-05
11070.0 4.9125e-05
11090.0 4.8629e-05
11110.0 4.8181e-05
11130.0 4.7759e-05
11150.0 4.7347e-05
11170.0 4.6959e-05
11190.0 4.6616e-05
11210.0 4.6292e-05
11230.0 4.5988e-05
11250.0 4.5724e-05
11270.0 4.5491e-05
11290.0 4.5275e-05
11310.0 4.5086e-05
11330.0 4.4929e-05
11350.0 4.4785e-05
11370.0 4.4652e-05
11390.0 4.4534e-05
11410.0 4.4422e-05
11430.0 4.4306e-05
11450.0 4.4188e-05
11470.0 4.4067e-05
11490.0 4.3933e-05
11510.0 4.3779e-05
11530.0 4.3614e-05
11550.0 4.3431e-05
11570.0 4.3219e-05
11590.0 4.2984e-05
11610.0 4.2732e-05
11630.0 4.2444e-05
11650.0 4.2117e-05
11670.0 4.1775e-05
11690.0 4.1402e-05
11710.0 4.0983e-05
11730.0 4.0534e-05
11750.0 4.007e-05
11770.0 3.9556e-05
11790.0 3.9002e-05
11810.0 3.8434e-05
11830.0 3.784e-05
11850.0 3.7188e-05
11870.0 3.6534e-05
11890.0 3.5886e-05
11910.0 3.5208e-05
11930.0 3.4519e-05
11950.0 3.3859e-05
11970.0 3.3202e-05
11990.0 3.2532e-05
12010.0 3.1898e-05
12030.0 3.13e-05
12050.0 3.0708e-05
12070.0 3.0133e-05
12090.0 2.9619e-05
12110.0 2.9127e-05
12130.0 2.8652e-05
12150.0 2.822e-05
12170.0 2.7831e-05
12190.0 2.7455e-05
12210.0 2.712e-05
12230.0 2.6833e-05
12250.0 2.6579e-05
12270.0 2.6359e-05
12290.0 2.6183e-05
12310.0 2.6047e-05
12330.0 2.5941e-05
12350.0 2.587e-05
12370.0 2.5828e-05
12390.0 2.5811e-05
12410.0 2.5819e-05
12430.0 2.5842e-05
12450.0 2.5878e-05
12470.0 2.5927e-05
12490.0 2.5984e-05
12510.0 2.6039e-05
12530.0 2.6099e-05
12550.0 2.6159e-05
12570.0 2.6211e-05
12590.0 2.6255e-05
12610.0 2.6291e-05
12630.0 2.6312e-05
12650.0 2.6311e-05
12670.0 2.6292e-05
12690.0 2.6248e-05
12710.0 2.6178e-05
12730.0 2.6082e-05
12750.0 2.5952e-05
12770.0 2.5795e-05
12790.0 2.5613e-05
12810.0 2.5404e-05
12830.0 2.5166e-05
12850.0 2.4918e-05
12870.0 2.4658e-05
12890.0 2.438e-05
12910.0 2.4099e-05
12930.0 2.3824e-05
12950.0 2.3542e-05
12970.0 2.3261e-05
12990.0 2.2999e-05
13010.0 2.2746e-05
13030.0 2.2495e-05
13050.0 2.2258e-05
13070.0 2.2039e-05
13090.0 2.1823e-05
13110.0 2.1616e-05
13130.0 2.1424e-05
13150.0 2.124e-05
13170.0 2.1059e-05
13190.0 2.0892e-05
13210.0 2.0737e-05
13230.0 2.0586e-05
13250.0 2.0443e-05
13270.0 2.0311e-05
13290.0 2.0185e-05
13310.0 2.006e-05
13330.0 1.9944e-05
13350.0 1.9831e-05
13370.0 1.9718e-05
13390.0 1.9602e-05
13410.0 1.949e-05
13430.0 1.9372e-05
13450.0 1.9246e-05
13470.0 1.9116e-05
13490.0 1.8981e-05
13510.0 1.883e-05
13530.0 1.8672e-05
13550.0 1.851e-05
13570.0 1.8337e-05
13590.0 1.8152e-05
13610.0 1.7965e-05
13630.0 1.7777e-05
13650.0 1.7577e-05
13670.0 1.7375e-05
13690.0 1.7178e-05
13710.0 1.6976e-05
13730.0 1.6766e-05
13750.0 1.6568e-05
13770.0 1.6372e-05
13790.0 1.6173e-05
13810.0 1.5977e-05
13830.0 1.5792e-05
13850.0 1.5605e-05
13870.0 1.542e-05
13890.0 1.5245e-05
13910.0 1.5078e-05
13930.0 1.4911e-05
13950.0 1.4754e-05
13970.0 1.4611e-05
13990.0 1.4473e-05
14010.0 1.4342e-05
14030.0 1.4223e-05
14050.0 1.4113e-05
14070.0 1.4005e-05
14090.0 1.3908e-05
14110.0 1.3819e-05
14130.0 1.3734e-05
14150.0 1.3652e-05
14170.0 1.3577e-05
14190.0 1.3506e-05
14210.0 1.3435e-05
14230.0 1.3367e-05
14250.0 1.3302e-05
14270.0 1.3236e-05
14290.0 1.3169e-05
14310.0 1.3106e-05
14330.0 1.3043e-05
14350.0 1.2978e-05
14370.0 1.2914e-05
14390.0 1.2853e-05
14410.0 1.2789e-05
14430.0 1.2726e-05
14450.0 1.2666e-05
14470.0 1.2607e-05
14490.0 1.2546e-05
14510.0 1.2489e-05
14530.0 1.2433e-05
14550.0 1.2376e-05
14570.0 1.2319e-05
14590.0 1.2263e-05
14610.0 1.2204e-05
14630.0 1.214e-05
14650.0 1.2076e-05
14670.0 1.2013e-05
14690.0 1.1946e-05
14710.0 1.188e-05
14730.0 1.1822e-05
14750.0 1.177e-05
14770.0 1.1727e-05
14790.0 1.1702e-05
14810.0 1.1695e-05
14830.0 1.171e-05
14850.0 1.1753e-05
14870.0 1.1821e-05
14890.0 1.1916e-05
14910.0 1.2038e-05
14930.0 1.2174e-05
14950.0 1.2317e-05
14970.0 1.2465e-05
14990.0 1.2601e-05
15010.0 1.2717e-05
15030.0 1.2814e-05
15050.0 1.289e-05
15070.0 1.2943e-05
15090.0 1.2982e-05
15110.0 1.301e-05
15130.0 1.3032e-05
15150.0 1.3051e-05
15170.0 1.3068e-05
15190.0 1.3084e-05
15210.0 1.31e-05
15230.0 1.3117e-05
15250.0 1.3134e-05
15270.0 1.3151e-05
15290.0 1.3169e-05
15310.0 1.3187e-05
15330.0 1.3205e-05
15350.0 1.3224e-05
15370.0 1.3244e-05
15390.0 1.3264e-05
15410.0 1.3284e-05
15430.0 1.3304e-05
15450.0 1.3325e-05
15470.0 1.3346e-05
15490.0 1.3368e-05
15510.0 1.339e-05
15530.0 1.3413e-05
15550.0 1.3435e-05
15570.0 1.3459e-05
15590.0 1.3482e-05
15610.0 1.3506e-05
15630.0 1.353e-05
15650.0 1.3554e-05
15670.0 1.3579e-05
15690.0 1.3604e-05
15710.0 1.3629e-05
15730.0 1.3655e-05
15750.0 1.3681e-05
15770.0 1.3707e-05
15790.0 1.3734e-05
15810.0 1.376e-05
15830.0 1.3787e-05
15850.0 1.3815e-05
15870.0 1.3842e-05
15890.0 1.387e-05
15910.0 1.3898e-05
15930.0 1.3927e-05
15950.0 1.3955e-05
15970.0 1.3984e-05
15990.0 1.4013e-05
16010.0 1.4042e-05
16030.0 1.4071e-05
16050.0 1.41e-05
16070.0 1.413e-05
16090.0 1.416e-05
16110.0 1.419e-05
16130.0 1.422e-05
16150.0 1.425e-05
16170.0 1.428e-05
16190.0 1.4311e-05
16210.0 1.4341e-05
16230.0 1.4372e-05
16250.0 1.4403e-05
16270.0 1.4434e-05
16290.0 1.4465e-05
16310.0 1.4496e-05
16330.0 1.4527e-05
16350.0 1.4558e-05
16370.0 1.4589e-05
16390.0 1.462e-05
16410.0 1.4651e-05
16430.0 1.4682e-05
16450.0 1.4713e-05
16470.0 1.4745e-05
16490.0 1.4776e-05
16510.0 1.4807e-05
16530.0 1.4838e-05
16550.0 1.4869e-05
16570.0 1.49e-05
16590.0 1.493e-05
16610.0 1.4961e-05
16630.0 1.4992e-05
16650.0 1.5022e-05
16670.0 1.5053e-05
16690.0 1.5083e-05
16710.0 1.5113e-05
16730.0 1.5143e-05
16750.0 1.5173e-05
16770.0 1.5203e-05
16790.0 1.5232e-05
16810.0 1.5261e-05
16830.0 1.529e-05
16850.0 1.5319e-05
16870.0 1.5347e-05
16890.0 1.5376e-05
16910.0 1.5404e-05
16930.0 1.5431e-05
16950.0 1.5459e-05
16970.0 1.5486e-05
16990.0 1.5513e-05
17010.0 1.554e-05
17030.0 1.5566e-05
17050.0 1.5592e-05
17070.0 1.5617e-05
17090.0 1.5643e-05
17110.0 1.5668e-05
17130.0 1.5692e-05
17150.0 1.5716e-05
17170.0 1.574e-05
17190.0 1.5763e-05
17210.0 1.5786e-05
17230.0 1.5808e-05
17250.0 1.583e-05
17270.0 1.5852e-05
17290.0 1.5873e-05
17310.0 1.5893e-05
17330.0 1.5913e-05
17350.0 1.5933e-05
17370.0 1.5952e-05
17390.0 1.597e-05
17410.0 1.5988e-05
17430.0 1.6006e-05
17450.0 1.6023e-05
17470.0 1.6039e-05
17490.0 1.6055e-05
17510.0 1.607e-05
17530.0 1.6084e-05
17550.0 1.6098e-05
17570.0 1.6112e-05
17590.0 1.6125e-05
17610.0 1.6137e-05
17630.0 1.6148e-05
17650.0 1.6159e-05
17670.0 1.6169e-05
17690.0 1.6178e-05
17710.0 1.6187e-05
17730.0 1.6196e-05
17750.0 1.6203e-05
17770.0 1.621e-05
17790.0 1.6216e-05
17810.0 1.6221e-05
17830.0 1.6226e-05
17850.0 1.623e-05
17870.0 1.6233e-05
17890.0 1.6235e-05
17910.0 1.6237e-05
17930.0 1.6238e-05
17950.0 1.6238e-05
17970.0 1.6238e-05
17990.0 1.6236e-05
18010.0 1.6234e-05
18030.0 1.6231e-05
18050.0 1.6228e-05
18070.0 1.6223e-05
18090.0 1.6218e-05
18110.0 1.6212e-05
18130.0 1.6205e-05
18150.0 1.6197e-05
18170.0 1.6189e-05
18190.0 1.618e-05
18210.0 1.617e-05
18230.0 1.6159e-05
18250.0 1.6147e-05
18270.0 1.6134e-05
18290.0 1.6121e-05
18310.0 1.6107e-05
18330.0 1.6092e-05
18350.0 1.6076e-05
18370.0 1.6059e-05
18390.0 1.6041e-05
18410.0 1.6023e-05
18430.0 1.6004e-05
18450.0 1.5984e-05
18470.0 1.5963e-05
18490.0 1.5941e-05
18510.0 1.5919e-05
18530.0 1.5895e-05
18550.0 1.5871e-05
18570.0 1.5846e-05
18590.0 1.582e-05
18610.0 1.5793e-05
18630.0 1.5766e-05
18650.0 1.5738e-05
18670.0 1.5708e-05
18690.0 1.5678e-05
18710.0 1.5648e-05
18730.0 1.5616e-05
18750.0 1.5584e-05
18770.0 1.5551e-05
18790.0 1.5516e-05
18810.0 1.5482e-05
18830.0 1.5446e-05
18850.0 1.541e-05
18870.0 1.5373e-05
18890.0 1.5335e-05
18910.0 1.5296e-05
18930.0 1.5257e-05
18950.0 1.5216e-05
18970.0 1.5176e-05
18990.0 1.5134e-05
19010.0 1.5091e-05
19030.0 1.5048e-05
19050.0 1.5004e-05
19070.0 1.496e-05
19090.0 1.4914e-05
19110.0 1.4868e-05
19130.0 1.4822e-05
19150.0 1.4774e-05
19170.0 1.4726e-05
19190.0 1.4677e-05
19210.0 1.4628e-05
19230.0 1.4578e-05
19250.0 1.4527e-05
19270.0 1.4476e-05
19290.0 1.4424e-05
19310.0 1.4371e-05
19330.0 1.4318e-05
19350.0 1.4264e-05
19370.0 1.421e-05
19390.0 1.4155e-05
19410.0 1.4099e-05
19430.0 1.4043e-05
19450.0 1.3987e-05
19470.0 1.393e-05
19490.0 1.3872e-05
19510.0 1.3814e-05
19530.0 1.3755e-05
19550.0 1.3696e-05
19570.0 1.3636e-05
19590.0 1.3576e-05
19610.0 1.3515e-05
19630.0 1.3454e-05
19650.0 1.3392e-05
19670.0 1.333e-05
19690.0 1.3268e-05
19710.0 1.3205e-05
19730.0 1.3142e-05
19750.0 1.3078e-05
19770.0 1.3014e-05
19790.0 1.2949e-05
19810.0 1.2885e-05
19830.0 1.2819e-05
19850.0 1.2753e-05
19870.0 1.2686e-05
19890.0 1.2616e-05
19910.0 1.2542e-05
19930.0 1.2462e-05
19950.0 1.2373e-05
19970.0 1.2271e-05
19990.0 1.2152e-05
20010.0 1.2019e-05
20030.0 1.1866e-05
20050.0 1.1695e-05
20070.0 1.1514e-05
20090.0 1.1324e-05
20110.0 1.1118e-05
20130.0 1.0914e-05
20150.0 1.0714e-05
20170.0 1.0511e-05
20190.0 1.0308e-05
20210.0 1.0115e-05
20230.0 9.9251e-06
20250.0 9.7344e-06
20270.0 9.552e-06
20290.0 9.3784e-06
20310.0 9.2074e-06
20330.0 9.0394e-06
20350.0 8.8859e-06
20370.0 8.738e-06
20390.0 8.5946e-06
20410.0 8.4608e-06
20430.0 8.3369e-06
20450.0 8.2169e-06
20470.0 8.1051e-06
20490.0 8.0031e-06
20510.0 7.9079e-06
20530.0 7.8185e-06
20550.0 7.7371e-06
20570.0 7.6628e-06
20590.0 7.5934e-06
20610.0 7.5295e-06
20630.0 7.4708e-06
20650.0 7.416e-06
20670.0 7.3647e-06
20690.0 7.3166e-06
20710.0 7.2705e-06
20730.0 7.2261e-06
20750.0 7.1826e-06
20770.0 7.1391e-06
20790.0 7.0953e-06
20810.0 7.0508e-06
20830.0 7.0047e-06
20850.0 6.9568e-06
20870.0 6.9066e-06
20890.0 6.8536e-06
20910.0 6.798e-06
20930.0 6.7394e-06
20950.0 6.6774e-06
20970.0 6.6127e-06
20990.0 6.5454e-06
21010.0 6.4741e-06
21030.0 6.4003e-06
21050.0 6.3248e-06
21070.0 6.2466e-06
21090.0 6.165e-06
21110.0 6.0835e-06
21130.0 6.0011e-06
21150.0 5.9162e-06
21170.0 5.831e-06
21190.0 5.7468e-06
21210.0 5.661e-06
21230.0 5.5743e-06
21250.0 5.4899e-06
21270.0 5.4063e-06
21290.0 5.3221e-06
21310.0 5.2394e-06
21330.0 5.1599e-06
21350.0 5.0804e-06
21370.0 5.002e-06
21390.0 4.9268e-06
21410.0 4.8537e-06
21430.0 4.7809e-06
21450.0 4.7115e-06
21470.0 4.6455e-06
21490.0 4.5811e-06
21510.0 4.5189e-06
21530.0 4.4603e-06
21550.0 4.404e-06
21570.0 4.3494e-06
21590.0 4.2977e-06
21610.0 4.2486e-06
21630.0 4.2011e-06
21650.0 4.1553e-06
21670.0 4.112e-06
21690.0 4.07e-06
21710.0 4.0291e-06
21730.0 3.9894e-06
21750.0 3.9507e-06
21770.0 3.9124e-06
21790.0 3.8747e-06
21810.0 3.8374e-06
21830.0 3.8003e-06
21850.0 3.763e-06
21870.0 3.7258e-06
21890.0 3.6887e-06
21910.0 3.6511e-06
21930.0 3.6132e-06
21950.0 3.5753e-06
21970.0 3.537e-06
21990.0 3.4978e-06
22010.0 3.4586e-06
22030.0 3.4192e-06
22050.0 3.379e-06
22070.0 3.3383e-06
22090.0 3.2977e-06
22110.0 3.2563e-06
22130.0 3.214e-06
22150.0 3.1717e-06
22170.0 3.1291e-06
22190.0 3.0852e-06
22210.0 3.041e-06
22230.0 2.9971e-06
22250.0 2.9525e-06
22270.0 2.907e-06
22290.0 2.8618e-06
22310.0 2.8166e-06
22330.0 2.7701e-06
22350.0 2.7237e-06
22370.0 2.6779e-06
22390.0 2.6316e-06
22410.0 2.5845e-06
22430.0 2.5387e-06
22450.0 2.4931e-06
22470.0 2.4469e-06
22490.0 2.4013e-06
22510.0 2.357e-06
22530.0 2.3121e-06
22550.0 2.2674e-06
22570.0 2.2244e-06
22590.0 2.1821e-06
22610.0 2.14e-06
22630.0 2.0991e-06
