#lamb flux
1010.0 2.3974e-05
1030.0 2.5205e-05
1050.0 2.6623e-05
1070.0 2.822e-05
1090.0 3.0035e-05
1110.0 3.1898e-05
1130.0 3.3776e-05
1150.0 3.5744e-05
1170.0 3.7778e-05
1190.0 3.971e-05
1210.0 4.1671e-05
1230.0 4.37e-05
1250.0 4.5693e-05
1270.0 4.7633e-05
1290.0 4.9685e-05
1310.0 5.1741e-05
1330.0 5.3718e-05
1350.0 5.5723e-05
1370.0 5.7797e-05
1390.0 5.9825e-05
1410.0 6.18e-05
1430.0 6.3869e-05
1450.0 6.5944e-05
1470.0 6.7957e-05
1490.0 6.9996e-05
1510.0 7.2154e-05
1530.0 7.4207e-05
1550.0 7.6239e-05
1570.0 7.8343e-05
1590.0 8.0454e-05
1610.0 8.2478e-05
1630.0 8.4566e-05
1650.0 8.6709e-05
1670.0 8.8787e-05
1690.0 9.084e-05
1710.0 9.297e-05
1730.0 9.5111e-05
1750.0 9.7128e-05
1770.0 9.92e-05
1790.0 0.00010131
1810.0 0.00010335
1830.0 0.00010535
1850.0 0.00010747
1870.0 0.00010953
1890.0 0.00011152
1910.0 0.00011354
1930.0 0.00011561
1950.0 0.00011758
1970.0 0.00011953
1990.0 0.00012155
2010.0 0.00012354
2030.0 0.00012546
2050.0 0.00012745
2070.0 0.0001295
2090.0 0.00013144
2110.0 0.00013339
2130.0 0.00013542
2150.0 0.00013744
2170.0 0.00013941
2190.0 0.00014147
2210.0 0.00014359
2230.0 0.00014567
2250.0 0.00014779
2270.0 0.00015005
2290.0 0.00015231
2310.0 0.00015455
2330.0 0.00015692
2350.0 0.00015938
2370.0 0.00016184
2390.0 0.00016441
2410.0 0.00016716
2430.0 0.00016993
2450.0 0.00017271
2470.0 0.00017555
2490.0 0.00017836
2510.0 0.00018099
2530.0 0.00018369
2550.0 0.00018689
2570.0 0.00019128
2590.0 0.00019781
2610.0 0.00020858
2630.0 0.00022486
2650.0 0.00024663
2670.0 0.00027473
2690.0 0.00030907
2710.0 0.00034608
2730.0 0.00038367
2750.0 0.00042251
2770.0 0.0004597
2790.0 0.00049401
2810.0 0.00052723
2830.0 0.00056094
2850.0 0.00059304
2870.0 0.0006254
2890.0 0.00065952
2910.0 0.0006946
2930.0 0.00072947
2950.0 0.00076625
2970.0 0.00080456
2990.0 0.00084271
3010.0 0.0016769
3030.0 0.0017537
3050.0 0.0018311
3070.0 0.0019045
3090.0 0.0019762
3110.0 0.0020397
3130.0 0.0020852
3150.0 0.0021042
3170.0 0.0020805
3190.0 0.0020045
3210.0 0.0018748
3230.0 0.0017171
3250.0 0.001719
3270.0 0.0012777
3290.0 0.0014345
3310.0 0.0010307
3330.0 0.0011092
3350.0 0.0012493
3370.0 0.001397
3390.0 0.0015482
3410.0 0.0016987
3430.0 0.0018523
3450.0 0.0020048
3470.0 0.0021495
3490.0 0.0022544
3510.0 0.0024463
3530.0 0.0028594
3550.0 0.003257
3570.0 0.0036503
3590.0 0.0044812
3610.0 0.0043551
3630.0 0.0047062
3650.0 0.0046217
3670.0 0.0050269
3690.0 0.0054898
3710.0 0.0058086
3730.0 0.0067017
3750.0 0.0069826
3770.0 0.0070728
3790.0 0.0067276
3810.0 0.0059319
3830.0 0.0054533
3850.0 0.0047951
3870.0 0.0052263
3890.0 0.0059465
3910.0 0.0070117
3930.0 0.0081353
3950.0 0.0088396
3970.0 0.010057
3990.0 0.010347
4010.0 0.01006
4030.0 0.01022
4050.0 0.0093789
4070.0 0.0089781
4090.0 0.0087402
4110.0 0.0083391
4130.0 0.008998
4150.0 0.0086743
4170.0 0.0086623
4190.0 0.0084936
4210.0 0.0091051
4230.0 0.0087286
4250.0 0.009412
4270.0 0.0093865
4290.0 0.0094295
4310.0 0.010065
4330.0 0.010718
4350.0 0.010795
4370.0 0.010573
4390.0 0.010071
4410.0 0.0089126
4430.0 0.0074234
4450.0 0.00685
4470.0 0.007053
4490.0 0.0070482
4510.0 0.0079786
4530.0 0.008752
4550.0 0.010328
4570.0 0.013374
4590.0 0.01635
4610.0 0.017891
4630.0 0.020523
4650.0 0.022448
4670.0 0.022602
4690.0 0.020618
4710.0 0.019149
4730.0 0.017008
4750.0 0.013947
4770.0 0.011781
4790.0 0.010498
4810.0 0.011457
4830.0 0.012727
4850.0 0.014292
4870.0 0.013654
4890.0 0.015626
4910.0 0.016322
4930.0 0.017806
4950.0 0.020877
4970.0 0.022199
4990.0 0.023384
5010.0 0.021635
5030.0 0.018161
5050.0 0.014811
5070.0 0.011759
5090.0 0.010589
5110.0 0.010403
5130.0 0.010229
5150.0 0.01071
5170.0 0.010355
5190.0 0.010923
5210.0 0.011119
5230.0 0.011948
5250.0 0.013989
5270.0 0.015192
5290.0 0.016489
5310.0 0.018558
5330.0 0.020077
5350.0 0.020546
5370.0 0.020567
5390.0 0.020129
5410.0 0.019749
5430.0 0.020004
5450.0 0.022395
5470.0 0.026258
5490.0 0.030006
5510.0 0.033502
5530.0 0.034353
5550.0 0.034001
5570.0 0.033103
5590.0 0.032265
5610.0 0.031889
5630.0 0.031896
5650.0 0.032037
5670.0 0.031604
5690.0 0.029416
5710.0 0.026856
5730.0 0.023976
5750.0 0.022417
5770.0 0.021188
5790.0 0.021609
5810.0 0.022722
5830.0 0.02349
5850.0 0.022743
5870.0 0.021586
5890.0 0.021144
5910.0 0.020502
5930.0 0.020038
5950.0 0.019515
5970.0 0.018689
5990.0 0.016475
6010.0 0.014298
6030.0 0.013063
6050.0 0.012637
6070.0 0.012341
6090.0 0.012328
6110.0 0.01258
6130.0 0.012697
6150.0 0.013457
6170.0 0.014893
6190.0 0.016409
6210.0 0.017219
6230.0 0.017452
6250.0 0.016052
6270.0 0.014176
6290.0 0.012184
6310.0 0.010651
6330.0 0.009843
6350.0 0.009563
6370.0 0.010041
6390.0 0.011257
6410.0 0.013228
6430.0 0.015787
6450.0 0.017931
6470.0 0.019555
6490.0 0.020947
6510.0 0.021521
6530.0 0.021366
6550.0 0.021466
6570.0 0.021694
6590.0 0.021423
6610.0 0.02164
6630.0 0.021248
6650.0 0.020576
6670.0 0.019385
6690.0 0.017739
6710.0 0.017028
6730.0 0.016114
6750.0 0.016108
6770.0 0.016544
6790.0 0.017119
6810.0 0.017428
6830.0 0.017099
6850.0 0.016401
6870.0 0.015888
6890.0 0.015139
6910.0 0.014425
6930.0 0.014786
6950.0 0.014974
6970.0 0.01558
6990.0 0.01619
7010.0 0.016049
7030.0 0.015104
7050.0 0.013516
7070.0 0.012017
7090.0 0.010647
7110.0 0.00991
7130.0 0.0095212
7150.0 0.0092682
7170.0 0.009588
7190.0 0.0097992
7210.0 0.010331
7230.0 0.011463
7250.0 0.012275
7270.0 0.012569
7290.0 0.012404
7310.0 0.011838
7330.0 0.011104
7350.0 0.010722
7370.0 0.010791
7390.0 0.011356
7410.0 0.01255
7430.0 0.014008
7450.0 0.015809
7470.0 0.017174
7490.0 0.017836
7510.0 0.01716
7530.0 0.015749
7550.0 0.013777
7570.0 0.011748
7590.0 0.010901
7610.0 0.01097
7630.0 0.011727
7650.0 0.01332
7670.0 0.014881
7690.0 0.016302
7710.0 0.017596
7730.0 0.018638
7750.0 0.019514
7770.0 0.019929
7790.0 0.020611
7810.0 0.021071
7830.0 0.021017
7850.0 0.021112
7870.0 0.020386
7890.0 0.019776
7910.0 0.018666
7930.0 0.018197
7950.0 0.01754
7970.0 0.017688
7990.0 0.017537
8010.0 0.017271
8030.0 0.017314
8050.0 0.017876
8070.0 0.017549
8090.0 0.017577
8110.0 0.01696
8130.0 0.016888
8150.0 0.016377
8170.0 0.015929
8190.0 0.015728
8210.0 0.015856
8230.0 0.014704
8250.0 0.013691
8270.0 0.011957
8290.0 0.0097056
8310.0 0.0077161
8330.0 0.0059964
8350.0 0.0052296
8370.0 0.0057581
8390.0 0.0064733
8410.0 0.0071174
8430.0 0.0080993
8450.0 0.0085721
8470.0 0.0089857
8490.0 0.010043
8510.0 0.011121
8530.0 0.012913
8550.0 0.015219
8570.0 0.017248
8590.0 0.018864
8610.0 0.020374
8630.0 0.021642
8650.0 0.021881
8670.0 0.021984
8690.0 0.022732
8710.0 0.022973
8730.0 0.023286
8750.0 0.022667
8770.0 0.022723
8790.0 0.022407
8810.0 0.020845
8830.0 0.020441
8850.0 0.019322
8870.0 0.018531
8890.0 0.017548
8910.0 0.018161
8930.0 0.017008
8950.0 0.016479
8970.0 0.016306
8990.0 0.015887
9010.0 0.015749
9030.0 0.015292
9050.0 0.015203
9070.0 0.015166
9090.0 0.015128
9110.0 0.015093
9130.0 0.015053
9150.0 0.01501
9170.0 0.014944
9190.0 0.014845
9210.0 0.014938
9230.0 0.01486
9250.0 0.014798
9270.0 0.01474
9290.0 0.014683
9310.0 0.014628
9330.0 0.014573
9350.0 0.014518
9370.0 0.014463
9390.0 0.014406
9410.0 0.014349
9430.0 0.014291
9450.0 0.014228
9470.0 0.014166
9490.0 0.01411
9510.0 0.014051
9530.0 0.013991
9550.0 0.01393
9570.0 0.013868
9590.0 0.013806
9610.0 0.013744
9630.0 0.013681
9650.0 0.013617
9670.0 0.013554
9690.0 0.01349
9710.0 0.013426
9730.0 0.013362
9750.0 0.013298
9770.0 0.013234
9790.0 0.01317
9810.0 0.013105
9830.0 0.013041
9850.0 0.012977
9870.0 0.012913
9890.0 0.012849
9910.0 0.012786
9930.0 0.012721
9950.0 0.012589
9970.0 0.012546
9990.0 0.0125
10010.0 0.012451
10030.0 0.012397
10050.0 0.012338
10070.0 0.012274
10090.0 0.012217
10110.0 0.012157
10130.0 0.012099
10150.0 0.01204
10170.0 0.011979
10190.0 0.011916
10210.0 0.011857
10230.0 0.011799
10250.0 0.011739
10270.0 0.01168
10290.0 0.011623
10310.0 0.011564
10330.0 0.011504
10350.0 0.011447
10370.0 0.011391
10390.0 0.011333
10410.0 0.011275
10430.0 0.011221
10450.0 0.011165
10470.0 0.011107
10490.0 0.011053
10510.0 0.010999
10530.0 0.010941
10550.0 0.010885
10570.0 0.010832
10590.0 0.010778
10610.0 0.010722
10630.0 0.010669
10650.0 0.010617
10670.0 0.010561
10690.0 0.010507
10710.0 0.010455
10730.0 0.010401
10750.0 0.010345
10770.0 0.010294
10790.0 0.010242
10810.0 0.010188
10830.0 0.010135
10850.0 0.010084
10870.0 0.010028
10890.0 0.0099698
10910.0 0.0099119
10930.0 0.0098479
10950.0 0.0097724
10970.0 0.009688
10990.0 0.0095949
11010.0 0.008875
11030.0 0.0087593
11050.0 0.0086399
11070.0 0.008512
11090.0 0.00837
11110.0 0.0082338
11130.0 0.0080993
11150.0 0.0079595
11170.0 0.0078203
11190.0 0.0076901
11210.0 0.0075576
11230.0 0.0074225
11250.0 0.0072951
11270.0 0.0071729
11290.0 0.0070481
11310.0 0.0069275
11330.0 0.0068203
11350.0 0.0067147
11370.0 0.006612
11390.0 0.0065191
11410.0 0.0064329
11430.0 0.0063447
11450.0 0.0062623
11470.0 0.0061857
11490.0 0.0061077
11510.0 0.006026
11530.0 0.0059473
11550.0 0.0058667
11570.0 0.0057777
11590.0 0.005685
11610.0 0.0055914
11630.0 0.0054878
11650.0 0.0053752
11670.0 0.0052644
11690.0 0.00515
11710.0 0.0050279
11730.0 0.0049061
11750.0 0.0047902
11770.0 0.0046702
11790.0 0.0045511
11810.0 0.0044406
11830.0 0.0043351
11850.0 0.0042285
11870.0 0.0041322
11890.0 0.0040458
11910.0 0.003962
11930.0 0.0038832
11950.0 0.0038138
11970.0 0.0037485
11990.0 0.0036844
12010.0 0.0036267
12030.0 0.0035743
12050.0 0.0035229
12070.0 0.0034731
12090.0 0.0034304
12110.0 0.0033894
12130.0 0.0033497
12150.0 0.0033146
12170.0 0.0032845
12190.0 0.0032558
12210.0 0.0032326
12230.0 0.0032165
12250.0 0.0032064
12270.0 0.003203
12290.0 0.0032085
12310.0 0.0032227
12330.0 0.0032461
12350.0 0.0032793
12370.0 0.0033213
12390.0 0.0033725
12410.0 0.0034348
12430.0 0.0035022
12450.0 0.0035751
12470.0 0.0036545
12490.0 0.0037372
12510.0 0.0038184
12530.0 0.0039013
12550.0 0.0039841
12570.0 0.0040616
12590.0 0.0041342
12610.0 0.0042036
12630.0 0.0042663
12650.0 0.00432
12670.0 0.0043678
12690.0 0.0044085
12710.0 0.0044412
12730.0 0.0044667
12750.0 0.0044852
12770.0 0.0044964
12790.0 0.0045014
12810.0 0.0045
12830.0 0.004492
12850.0 0.0044798
12870.0 0.0044631
12890.0 0.0044406
12910.0 0.0044145
12930.0 0.0043863
12950.0 0.004353
12970.0 0.0043154
12990.0 0.0042774
13010.0 0.0042366
13030.0 0.0041913
13050.0 0.0041442
13070.0 0.0040972
13090.0 0.0040457
13110.0 0.0039918
13130.0 0.0039389
13150.0 0.0038855
13170.0 0.0038293
13190.0 0.0037769
13210.0 0.003729
13230.0 0.0036831
13250.0 0.0036421
13270.0 0.0036091
13290.0 0.0035823
13310.0 0.0035623
13330.0 0.0035512
13350.0 0.0035479
13370.0 0.0035515
13390.0 0.0035613
13410.0 0.0035753
13430.0 0.0035918
13450.0 0.0036092
13470.0 0.0036247
13490.0 0.0036364
13510.0 0.003643
13530.0 0.0036421
13550.0 0.0036336
13570.0 0.0036166
13590.0 0.0035902
13610.0 0.0035567
13630.0 0.0035175
13650.0 0.0034706
13670.0 0.0034195
13690.0 0.0033674
13710.0 0.003313
13730.0 0.0032558
13750.0 0.0032031
13770.0 0.0031527
13790.0 0.0031033
13810.0 0.0030574
13830.0 0.0030166
13850.0 0.0029776
13870.0 0.0029412
13890.0 0.0029089
13910.0 0.0028795
13930.0 0.0028513
13950.0 0.0028256
13970.0 0.0028028
13990.0 0.0027811
14010.0 0.0027606
14030.0 0.0027422
14050.0 0.0027252
14070.0 0.0027087
14090.0 0.0026939
14110.0 0.0026806
14130.0 0.0026681
14150.0 0.0026566
14170.0 0.0026464
14190.0 0.0026372
14210.0 0.0026287
14230.0 0.0026214
14250.0 0.0026151
14270.0 0.0026099
14290.0 0.0026059
14310.0 0.0026031
14330.0 0.0026015
14350.0 0.0026013
14370.0 0.002602
14390.0 0.0026033
14410.0 0.0026055
14430.0 0.0026081
14450.0 0.0026104
14470.0 0.0026124
14490.0 0.0026141
14510.0 0.0026147
14530.0 0.0026143
14550.0 0.0026131
14570.0 0.0026112
14590.0 0.0026087
14610.0 0.0026061
14630.0 0.0026041
14650.0 0.0026029
14670.0 0.002603
14690.0 0.0026054
14710.0 0.0026108
14730.0 0.0026184
14750.0 0.0026298
14770.0 0.0026458
14790.0 0.0026653
14810.0 0.0026883
14830.0 0.002718
14850.0 0.0027516
14870.0 0.0027875
14890.0 0.0028271
14910.0 0.0028699
14930.0 0.0029109
14950.0 0.0029486
14970.0 0.0029838
14990.0 0.0030118
15010.0 0.0030307
15030.0 0.003042
15050.0 0.0030459
15070.0 0.0030424
15090.0 0.0030342
15110.0 0.0030228
15130.0 0.0030093
15150.0 0.0029947
15170.0 0.0029794
15190.0 0.0029638
15210.0 0.0029482
15230.0 0.0029326
15250.0 0.0029168
15270.0 0.002901
15290.0 0.0028853
15310.0 0.0028696
15330.0 0.0028538
15350.0 0.0028381
15370.0 0.0028225
15390.0 0.0028066
15410.0 0.0027909
15430.0 0.0027753
15450.0 0.0027596
15470.0 0.0027439
15490.0 0.0027284
15510.0 0.0027129
15530.0 0.0026973
15550.0 0.0026818
15570.0 0.0026664
15590.0 0.002651
15610.0 0.0026355
15630.0 0.0026202
15650.0 0.002605
15670.0 0.0025897
15690.0 0.0025745
15710.0 0.0025595
15730.0 0.0025444
15750.0 0.0025294
15770.0 0.0025145
15790.0 0.0024996
15810.0 0.0024847
15830.0 0.00247
15850.0 0.0024554
15870.0 0.0024407
15890.0 0.0024262
15910.0 0.0024118
15930.0 0.0023974
15950.0 0.002383
15970.0 0.0023688
15990.0 0.0023547
16010.0 0.0023406
16030.0 0.0023265
16050.0 0.0023127
16070.0 0.0022989
16090.0 0.0022851
16110.0 0.0022714
16130.0 0.0022579
16150.0 0.0022443
16170.0 0.0022309
16190.0 0.0022176
16210.0 0.0022044
16230.0 0.0021912
16250.0 0.0021782
16270.0 0.0021653
16290.0 0.0021524
16310.0 0.0021396
16330.0 0.002127
16350.0 0.0021144
16370.0 0.0021018
16390.0 0.0020894
16410.0 0.0020772
16430.0 0.0020649
16450.0 0.0020528
16470.0 0.0020409
16490.0 0.0020289
16510.0 0.002017
16530.0 0.0020053
16550.0 0.0019937
16570.0 0.0019821
16590.0 0.0019706
16610.0 0.0019593
16630.0 0.001948
16650.0 0.0019368
16670.0 0.0019258
16690.0 0.0019148
16710.0 0.0019039
16730.0 0.0018931
16750.0 0.0018824
16770.0 0.0018718
16790.0 0.0018612
16810.0 0.0018508
16830.0 0.0018405
16850.0 0.0018303
16870.0 0.0018201
16890.0 0.0018101
16910.0 0.0018001
16930.0 0.0017902
16950.0 0.0017805
16970.0 0.0017708
16990.0 0.0017612
17010.0 0.0017517
17030.0 0.0017423
17050.0 0.001733
17070.0 0.0017237
17090.0 0.0017146
17110.0 0.0017056
17130.0 0.0016965
17150.0 0.0016876
17170.0 0.0016789
17190.0 0.0016702
17210.0 0.0016615
17230.0 0.001653
17250.0 0.0016446
17270.0 0.0016361
17290.0 0.0016279
17310.0 0.0016197
17330.0 0.0016115
17350.0 0.0016034
17370.0 0.0015955
17390.0 0.0015877
17410.0 0.0015798
17430.0 0.0015721
17450.0 0.0015645
17470.0 0.0015569
17490.0 0.0015494
17510.0 0.001542
17530.0 0.0015347
17550.0 0.0015274
17570.0 0.0015202
17590.0 0.0015131
17610.0 0.001506
17630.0 0.0014991
17650.0 0.0014922
17670.0 0.0014854
17690.0 0.0014786
17710.0 0.0014719
17730.0 0.0014653
17750.0 0.0014588
17770.0 0.0014523
17790.0 0.0014459
17810.0 0.0014396
17830.0 0.0014333
17850.0 0.0014271
17870.0 0.001421
17890.0 0.0014148
17910.0 0.0014088
17930.0 0.0014029
17950.0 0.001397
17970.0 0.0013912
17990.0 0.0013855
18010.0 0.0013798
18030.0 0.0013741
18050.0 0.0013685
18070.0 0.001363
18090.0 0.0013576
18110.0 0.0013521
18130.0 0.0013468
18150.0 0.0013416
18170.0 0.0013363
18190.0 0.0013311
18210.0 0.001326
18230.0 0.0013209
18250.0 0.0013159
18270.0 0.001311
18290.0 0.0013061
18310.0 0.0013012
18330.0 0.0012964
18350.0 0.0012917
18370.0 0.001287
18390.0 0.0012823
18410.0 0.0012778
18430.0 0.0012732
18450.0 0.0012686
18470.0 0.0012642
18490.0 0.0012598
18510.0 0.0012555
18530.0 0.0012511
18550.0 0.0012469
18570.0 0.0012427
18590.0 0.0012385
18610.0 0.0012344
18630.0 0.0012303
18650.0 0.0012262
18670.0 0.0012222
18690.0 0.0012183
18710.0 0.0012144
18730.0 0.0012105
18750.0 0.0012066
18770.0 0.0012029
18790.0 0.0011991
18810.0 0.0011953
18830.0 0.0011917
18850.0 0.0011881
18870.0 0.0011844
18890.0 0.0011809
18910.0 0.0011774
18930.0 0.0011738
18950.0 0.0011704
18970.0 0.001167
18990.0 0.0011636
19010.0 0.0011602
19030.0 0.0011569
19050.0 0.0011536
19070.0 0.0011504
19090.0 0.0011471
19110.0 0.001144
19130.0 0.0011408
19150.0 0.0011377
19170.0 0.0011346
19190.0 0.0011316
19210.0 0.0011285
19230.0 0.0011255
19250.0 0.0011226
19270.0 0.0011196
19290.0 0.0011167
19310.0 0.0011138
19330.0 0.001111
19350.0 0.0011081
19370.0 0.0011053
19390.0 0.0011026
19410.0 0.0010998
19430.0 0.001097
19450.0 0.0010944
19470.0 0.0010917
19490.0 0.001089
19510.0 0.0010864
19530.0 0.0010839
19550.0 0.0010813
19570.0 0.0010787
19590.0 0.0010762
19610.0 0.0010737
19630.0 0.0010712
19650.0 0.0010687
19670.0 0.0010663
19690.0 0.0010639
19710.0 0.0010615
19730.0 0.0010591
19750.0 0.0010568
19770.0 0.0010544
19790.0 0.0010521
19810.0 0.0010498
19830.0 0.0010475
19850.0 0.0010452
19870.0 0.0010428
19890.0 0.0010403
19910.0 0.0010373
19930.0 0.0010339
19950.0 0.0010297
19970.0 0.0010242
19990.0 0.0010171
20010.0 0.0010086
20030.0 0.00099815
20050.0 0.00098564
20070.0 0.00097197
20090.0 0.00095722
20110.0 0.00094059
20130.0 0.00092382
20150.0 0.00090727
20170.0 0.00089019
20190.0 0.00087293
20210.0 0.00085663
20230.0 0.00084071
20250.0 0.0008247
20270.0 0.00080972
20290.0 0.0007959
20310.0 0.00078259
20330.0 0.00076994
20350.0 0.00075919
20370.0 0.00074943
20390.0 0.00074061
20410.0 0.00073322
20430.0 0.00072726
20450.0 0.00072225
20470.0 0.00071857
20490.0 0.0007162
20510.0 0.00071493
20530.0 0.00071474
20550.0 0.00071558
20570.0 0.00071722
20590.0 0.00071972
20610.0 0.00072291
20630.0 0.00072652
20650.0 0.00073057
20670.0 0.00073515
20690.0 0.00073968
20710.0 0.00074417
20730.0 0.00074871
20750.0 0.00075306
20770.0 0.0007569
20790.0 0.00076044
20810.0 0.00076357
20830.0 0.00076605
20850.0 0.00076789
20870.0 0.00076916
20890.0 0.00076969
20910.0 0.00076951
20930.0 0.00076866
20950.0 0.00076709
20970.0 0.00076492
20990.0 0.00076222
21010.0 0.0007588
21030.0 0.0007549
21050.0 0.0007507
21070.0 0.00074606
21090.0 0.00074094
21110.0 0.00073584
21130.0 0.00073066
21150.0 0.00072522
21170.0 0.00071985
21190.0 0.00071476
21210.0 0.00070963
21230.0 0.00070464
21250.0 0.00070016
21270.0 0.00069604
21290.0 0.00069221
21310.0 0.00068889
21330.0 0.00068621
21350.0 0.00068395
21370.0 0.00068224
21390.0 0.00068116
21410.0 0.00068063
21430.0 0.00068069
21450.0 0.00068133
21470.0 0.00068247
21490.0 0.00068417
21510.0 0.0006864
21530.0 0.00068898
21550.0 0.00069199
21570.0 0.00069552
21590.0 0.00069932
21610.0 0.00070334
21630.0 0.00070777
21650.0 0.00071259
21670.0 0.00071732
21690.0 0.00072229
21710.0 0.00072758
21730.0 0.0007329
21750.0 0.00073815
21770.0 0.0007438
21790.0 0.00074947
21810.0 0.00075499
21830.0 0.00076056
21850.0 0.00076632
21870.0 0.00077189
21890.0 0.00077722
21910.0 0.00078267
21930.0 0.000788
21950.0 0.00079298
21970.0 0.00079784
21990.0 0.00080268
22010.0 0.000807
22030.0 0.00081095
22050.0 0.00081465
22070.0 0.00081791
22090.0 0.00082057
22110.0 0.0008228
22130.0 0.00082449
22150.0 0.00082553
22170.0 0.00082593
22190.0 0.00082564
22210.0 0.00082461
22230.0 0.00082292
22250.0 0.00082047
22270.0 0.0008172
22290.0 0.00081331
22310.0 0.00080878
22330.0 0.00080328
22350.0 0.00079719
22370.0 0.00079066
22390.0 0.00078339
22410.0 0.00077531
22430.0 0.00076715
22450.0 0.00075863
22470.0 0.00074942
22490.0 0.00074001
22510.0 0.00073073
22530.0 0.00072089
22550.0 0.00071079
22570.0 0.00070111
22590.0 0.00069149
22610.0 0.00068165
22630.0 0.00067213
22650.0 0.00066324
22670.0 0.00065428
22690.0 0.00064556
22710.0 0.00063749
22730.0 0.00062979
22750.0 0.00062207
22770.0 0.00061505
22790.0 0.00060862
22810.0 0.00060239
22830.0 0.00059648
22850.0 0.0005912
22870.0 0.00058618
22890.0 0.00058131
22910.0 0.00057688
22930.0 0.00057284
22950.0 0.00056892
22970.0 0.00056518
22990.0 0.00056191
23010.0 0.00055879
23030.0 0.00055579
23050.0 0.00055304
23070.0 0.00055055
23090.0 0.00054806
23110.0 0.00054576
23130.0 0.00054367
23150.0 0.00054168
23170.0 0.00053974
23190.0 0.00053796
23210.0 0.00053633
23230.0 0.00053472
23250.0 0.00053324
23270.0 0.00053191
23290.0 0.0005307
23310.0 0.00052958
23330.0 0.00052869
23350.0 0.00052799
23370.0 0.00052746
23390.0 0.00052715
23410.0 0.00052706
23430.0 0.00052716
23450.0 0.00052747
23470.0 0.00052795
23490.0 0.00052857
23510.0 0.00052935
23530.0 0.00053022
23550.0 0.00053113
23570.0 0.00053209
23590.0 0.00053309
23610.0 0.00053407
23630.0 0.00053502
23650.0 0.00053602
23670.0 0.000537
23690.0 0.00053797
23710.0 0.00053903
23730.0 0.00054021
23750.0 0.00054149
23770.0 0.00054298
23790.0 0.0005448
23810.0 0.00054697
23830.0 0.00054947
23850.0 0.00055258
