#lamb flux
1010.0 7.9157e-07
1030.0 8.2502e-07
1050.0 8.6384e-07
1070.0 9.0765e-07
1090.0 9.5746e-07
1110.0 1.0088e-06
1130.0 1.0608e-06
1150.0 1.1155e-06
1170.0 1.1722e-06
1190.0 1.2265e-06
1210.0 1.2819e-06
1230.0 1.3396e-06
1250.0 1.3966e-06
1270.0 1.4526e-06
1290.0 1.5121e-06
1310.0 1.5722e-06
1330.0 1.6306e-06
1350.0 1.6903e-06
1370.0 1.7524e-06
1390.0 1.8138e-06
1410.0 1.8743e-06
1430.0 1.9379e-06
1450.0 2.0024e-06
1470.0 2.0656e-06
1490.0 2.1302e-06
1510.0 2.1986e-06
1530.0 2.2646e-06
1550.0 2.3304e-06
1570.0 2.3987e-06
1590.0 2.4674e-06
1610.0 2.5339e-06
1630.0 2.6024e-06
1650.0 2.6726e-06
1670.0 2.7408e-06
1690.0 2.808e-06
1710.0 2.8772e-06
1730.0 2.9462e-06
1750.0 3.0109e-06
1770.0 3.0764e-06
1790.0 3.1422e-06
1810.0 3.2049e-06
1830.0 3.2651e-06
1850.0 3.3275e-06
1870.0 3.3867e-06
1890.0 3.4421e-06
1910.0 3.4968e-06
1930.0 3.5511e-06
1950.0 3.6007e-06
1970.0 3.6478e-06
1990.0 3.6951e-06
2010.0 3.7396e-06
2030.0 3.7803e-06
2050.0 3.8213e-06
2070.0 3.8624e-06
2090.0 3.899e-06
2110.0 3.9347e-06
2130.0 3.9715e-06
2150.0 4.0072e-06
2170.0 4.0407e-06
2190.0 4.0768e-06
2210.0 4.1144e-06
2230.0 4.1513e-06
2250.0 4.1899e-06
2270.0 4.2334e-06
2290.0 4.2782e-06
2310.0 4.3242e-06
2330.0 4.3758e-06
2350.0 4.4323e-06
2370.0 4.4916e-06
2390.0 4.5568e-06
2410.0 4.6304e-06
2430.0 4.7087e-06
2450.0 4.7921e-06
2470.0 4.8834e-06
2490.0 4.9817e-06
2510.0 5.0849e-06
2530.0 5.2029e-06
2550.0 5.3526e-06
2570.0 5.5565e-06
2590.0 5.8454e-06
2610.0 6.2907e-06
2630.0 6.9316e-06
2650.0 7.7623e-06
2670.0 8.8114e-06
2690.0 1.0074e-05
2710.0 1.1425e-05
2730.0 1.2796e-05
2750.0 1.4211e-05
2770.0 1.5576e-05
2790.0 1.6856e-05
2810.0 1.8114e-05
2830.0 1.9406e-05
2850.0 2.067e-05
2870.0 2.197e-05
2890.0 2.3358e-05
2910.0 2.4811e-05
2930.0 2.6294e-05
2950.0 2.7877e-05
2970.0 2.9552e-05
2990.0 3.126e-05
3010.0 5.7247e-05
3030.0 6.0441e-05
3050.0 6.3651e-05
3070.0 6.6637e-05
3090.0 6.9287e-05
3110.0 7.1036e-05
3130.0 7.1197e-05
3150.0 6.9e-05
3170.0 6.2901e-05
3190.0 5.2654e-05
3210.0 3.8346e-05
3230.0 2.208e-05
3250.0 3.8708e-05
3270.0 1.6732e-05
3290.0 5.6043e-05
3310.0 1.1153e-05
3330.0 1.1378e-05
3350.0 1.7446e-05
3370.0 2.4355e-05
3390.0 3.1683e-05
3410.0 3.8979e-05
3430.0 4.6602e-05
3450.0 5.4198e-05
3470.0 6.1161e-05
3490.0 6.5724e-05
3510.0 8.1813e-05
3530.0 0.00011206
3550.0 0.00011233
3570.0 9.5386e-05
3590.0 0.00013669
3610.0 8.8111e-05
3630.0 0.00014205
3650.0 0.00016125
3670.0 0.00020728
3690.0 0.0001982
3710.0 0.00014144
3730.0 0.00018894
3750.0 0.00019647
3770.0 0.0002024
3790.0 0.00018311
3810.0 0.00016093
3830.0 0.00022251
3850.0 0.00023936
3870.0 0.00029727
3890.0 0.00028057
3910.0 0.00025472
3930.0 0.00027572
3950.0 0.00031032
3970.0 0.00040472
3990.0 0.0003259
4010.0 0.00021535
4030.0 0.00029003
4050.0 0.00031723
4070.0 0.00036047
4090.0 0.00031636
4110.0 0.00021635
4130.0 0.00028522
4150.0 0.00026218
4170.0 0.00027783
4190.0 0.00027647
4210.0 0.00034337
4230.0 0.00024016
4250.0 0.00028697
4270.0 0.00028665
4290.0 0.00028982
4310.0 0.00035301
4330.0 0.00036202
4350.0 0.00028074
4370.0 0.0002431
4390.0 0.00029495
4410.0 0.00030046
4430.0 0.00023218
4450.0 0.0002336
4470.0 0.00027072
4490.0 0.00020203
4510.0 0.00024591
4530.0 0.00026556
4550.0 0.00035504
4570.0 0.00051989
4590.0 0.00050489
4610.0 0.00033784
4630.0 0.00053711
4650.0 0.00076857
4670.0 0.00071096
4690.0 0.00042246
4710.0 0.00045646
4730.0 0.00058974
4750.0 0.00052715
4770.0 0.00039924
4790.0 0.00027606
4810.0 0.00039845
4830.0 0.0004596
4850.0 0.0004108
4870.0 0.00014896
4890.0 0.00044098
4910.0 0.0006114
4930.0 0.00065565
4950.0 0.00064672
4970.0 0.00040833
4990.0 0.00046846
5010.0 0.00054435
5030.0 0.00059142
5050.0 0.00058292
5070.0 0.00042172
5090.0 0.00034616
5110.0 0.00032378
5130.0 0.00028879
5150.0 0.00033008
5170.0 0.00028776
5190.0 0.00035635
5210.0 0.00035688
5230.0 0.00039253
5250.0 0.00050038
5270.0 0.00042734
5290.0 0.00042192
5310.0 0.00061896
5330.0 0.0007207
5350.0 0.00061318
5370.0 0.00053867
5390.0 0.00061316
5410.0 0.00077046
5430.0 0.00085269
5450.0 0.00091937
5470.0 0.00093197
5490.0 0.00091944
5510.0 0.0010791
5530.0 0.001125
5550.0 0.0012099
5570.0 0.0012894
5590.0 0.0012855
5610.0 0.0012257
5630.0 0.0011902
5650.0 0.0012196
5670.0 0.0012142
5690.0 0.0010449
5710.0 0.0010079
5730.0 0.0010247
5750.0 0.0011227
5770.0 0.00098172
5790.0 0.00090578
5810.0 0.00092405
5830.0 0.00097615
5850.0 0.00089897
5870.0 0.00090971
5890.0 0.0010856
5910.0 0.0010425
5930.0 0.00086337
5950.0 0.00075597
5970.0 0.00081246
5990.0 0.00075436
6010.0 0.00071358
6030.0 0.00073045
6050.0 0.00068527
6070.0 0.00051866
6090.0 0.00046653
6110.0 0.00060027
6130.0 0.00069152
6150.0 0.00072776
6170.0 0.00070996
6190.0 0.00066877
6210.0 0.00065533
6230.0 0.00075727
6250.0 0.00069999
6270.0 0.00064018
6290.0 0.00058823
6310.0 0.00055641
6330.0 0.00052945
6350.0 0.0004641
6370.0 0.00046111
6390.0 0.00054646
6410.0 0.0006787
6430.0 0.00077936
6450.0 0.00073497
6470.0 0.00072117
6490.0 0.00089793
6510.0 0.0010273
6530.0 0.00097324
6550.0 0.00093682
6570.0 0.00095124
6590.0 0.00092161
6610.0 0.0010011
6630.0 0.00094265
6650.0 0.00083543
6670.0 0.00075304
6690.0 0.0007292
6710.0 0.00089047
6730.0 0.0008189
6750.0 0.00070505
6770.0 0.00063585
6790.0 0.00066638
6810.0 0.000737
6830.0 0.00071938
6850.0 0.00065481
6870.0 0.00067627
6890.0 0.00066399
6910.0 0.00062687
6930.0 0.00071815
6950.0 0.00066633
6970.0 0.00062498
6990.0 0.0006243
7010.0 0.00059756
7030.0 0.00056278
7050.0 0.00054285
7070.0 0.00058646
7090.0 0.0005557
7110.0 0.00048222
7130.0 0.00039055
7150.0 0.00035453
7170.0 0.00046944
7190.0 0.00051157
7210.0 0.00049485
7230.0 0.000515
7250.0 0.00048006
7270.0 0.00045731
7290.0 0.00050544
7310.0 0.00056305
7330.0 0.00055259
7350.0 0.00051879
7370.0 0.00049602
7390.0 0.00051966
7410.0 0.00060569
7430.0 0.0006624
7450.0 0.00070537
7470.0 0.00069359
7490.0 0.00071222
7510.0 0.00068249
7530.0 0.00068068
7550.0 0.00066963
7570.0 0.00058829
7590.0 0.00058082
7610.0 0.00056267
7630.0 0.00052266
7650.0 0.00057191
7670.0 0.00062247
7690.0 0.00067387
7710.0 0.00074891
7730.0 0.00079562
7750.0 0.00082907
7770.0 0.00082681
7790.0 0.00089946
7810.0 0.00092573
7830.0 0.00085409
7850.0 0.00085771
7870.0 0.00081466
7890.0 0.00084802
7910.0 0.00080185
7930.0 0.00080537
7950.0 0.00071331
7970.0 0.00072955
7990.0 0.00069783
8010.0 0.00069571
8030.0 0.00069103
8050.0 0.00072232
8070.0 0.00069499
8090.0 0.00069495
8110.0 0.00067564
8130.0 0.00067352
8150.0 0.00064325
8170.0 0.0006239
8190.0 0.00061462
8210.0 0.00061762
8230.0 0.00054873
8250.0 0.00050129
8270.0 0.0004387
8290.0 0.00036371
8310.0 0.0003095
8330.0 0.00024623
8350.0 0.00020681
8370.0 0.00021282
8390.0 0.00021755
8410.0 0.00023038
8430.0 0.00027985
8450.0 0.00029854
8470.0 0.0003146
8490.0 0.0003593
8510.0 0.0003908
8530.0 0.00044913
8550.0 0.00052959
8570.0 0.00058893
8590.0 0.00063047
8610.0 0.00068618
8630.0 0.00075188
8650.0 0.00076213
8670.0 0.00076811
8690.0 0.00079568
8710.0 0.00078568
8730.0 0.00077623
8750.0 0.00073322
8770.0 0.00073187
8790.0 0.00072001
8810.0 0.00066309
8830.0 0.0006602
8850.0 0.00061848
8870.0 0.00059281
8890.0 0.0005418
8910.0 0.00057813
8930.0 0.00052837
8950.0 0.00051787
8970.0 0.00051763
8990.0 0.00049944
9010.0 0.00050681
9030.0 0.00048662
9050.0 0.00048394
9070.0 0.00048333
9090.0 0.00048264
9110.0 0.00048211
9130.0 0.00048125
9150.0 0.00048024
9170.0 0.0004781
9190.0 0.00047416
9210.0 0.00047953
9230.0 0.00047697
9250.0 0.00047513
9270.0 0.0004734
9290.0 0.00047172
9310.0 0.00047009
9330.0 0.00046847
9350.0 0.00046681
9370.0 0.00046512
9390.0 0.0004634
9410.0 0.00046162
9430.0 0.0004598
9450.0 0.00045792
9470.0 0.00045601
9490.0 0.00045411
9510.0 0.00045216
9530.0 0.00045019
9550.0 0.00044818
9570.0 0.00044615
9590.0 0.00044409
9610.0 0.00044202
9630.0 0.00043993
9650.0 0.00043782
9670.0 0.00043571
9690.0 0.00043359
9710.0 0.00043146
9730.0 0.00042933
9750.0 0.00042719
9770.0 0.00042506
9790.0 0.00042292
9810.0 0.0004208
9830.0 0.00041867
9850.0 0.00041656
9870.0 0.00041445
9890.0 0.00041236
9910.0 0.00041028
9930.0 0.00040819
9950.0 0.00040492
9970.0 0.00040325
9990.0 0.00040153
10010.0 0.00039979
10030.0 0.00039797
10050.0 0.00039601
10070.0 0.00039368
10090.0 0.00039199
10110.0 0.00039023
10130.0 0.00038848
10150.0 0.00038674
10170.0 0.00038497
10190.0 0.00038316
10210.0 0.00038144
10230.0 0.00037976
10250.0 0.00037805
10270.0 0.00037638
10290.0 0.00037479
10310.0 0.00037319
10330.0 0.00037157
10350.0 0.00037005
10370.0 0.00036856
10390.0 0.00036706
10410.0 0.00036559
10430.0 0.00036423
10450.0 0.00036284
10470.0 0.00036146
10490.0 0.00036016
10510.0 0.0003589
10530.0 0.00035759
10550.0 0.00035634
10570.0 0.00035518
10590.0 0.00035401
10610.0 0.00035285
10630.0 0.00035177
10650.0 0.00035072
10670.0 0.00034963
10690.0 0.00034861
10710.0 0.00034765
10730.0 0.00034668
10750.0 0.0003457
10770.0 0.00034483
10790.0 0.00034397
10810.0 0.0003431
10830.0 0.00034226
10850.0 0.00034148
10870.0 0.00034059
10890.0 0.00033963
10910.0 0.00033857
10930.0 0.00033722
10950.0 0.00033537
10970.0 0.00033296
10990.0 0.00032996
11010.0 0.000324
11030.0 0.00031944
11050.0 0.00031417
11070.0 0.00030813
11090.0 0.00030114
11110.0 0.00029418
11130.0 0.00028718
11150.0 0.00027994
11170.0 0.0002728
11190.0 0.00026616
11210.0 0.00025959
11230.0 0.00025312
11250.0 0.00024718
11270.0 0.00024167
11290.0 0.00023627
11310.0 0.00023125
11330.0 0.00022688
11350.0 0.00022273
11370.0 0.00021882
11390.0 0.00021532
11410.0 0.00021212
11430.0 0.0002089
11450.0 0.00020589
11470.0 0.00020305
11490.0 0.00020016
11510.0 0.00019712
11530.0 0.00019415
11550.0 0.0001911
11570.0 0.00018775
11590.0 0.00018426
11610.0 0.00018075
11630.0 0.0001769
11650.0 0.00017278
11670.0 0.00016874
11690.0 0.00016462
11710.0 0.00016027
11730.0 0.00015596
11750.0 0.00015189
11770.0 0.00014772
11790.0 0.00014361
11810.0 0.00013981
11830.0 0.00013619
11850.0 0.00013257
11870.0 0.00012929
11890.0 0.00012634
11910.0 0.00012348
11930.0 0.00012078
11950.0 0.00011839
11970.0 0.00011612
11990.0 0.00011387
12010.0 0.00011182
12030.0 0.00010992
12050.0 0.00010805
12070.0 0.00010621
12090.0 0.00010459
12110.0 0.00010303
12130.0 0.0001015
12150.0 0.00010013
12170.0 9.8949e-05
12190.0 9.7818e-05
12210.0 9.6902e-05
12230.0 9.626e-05
12250.0 9.5853e-05
12270.0 9.5717e-05
12290.0 9.5924e-05
12310.0 9.6463e-05
12330.0 9.7353e-05
12350.0 9.8609e-05
12370.0 0.00010017
12390.0 0.00010206
12410.0 0.00010432
12430.0 0.00010674
12450.0 0.0001093
12470.0 0.00011205
12490.0 0.00011486
12510.0 0.00011757
12530.0 0.00012029
12550.0 0.00012296
12570.0 0.00012543
12590.0 0.00012771
12610.0 0.00012985
12630.0 0.00013178
12650.0 0.00013342
12670.0 0.00013489
12690.0 0.00013615
12710.0 0.00013719
12730.0 0.00013804
12750.0 0.00013869
12770.0 0.00013916
12790.0 0.00013947
12810.0 0.00013961
12830.0 0.00013956
12850.0 0.0001394
12870.0 0.00013909
12890.0 0.00013859
12910.0 0.00013797
12930.0 0.00013724
12950.0 0.00013632
12970.0 0.00013521
12990.0 0.00013405
13010.0 0.00013275
13030.0 0.00013125
13050.0 0.00012967
13070.0 0.00012806
13090.0 0.00012628
13110.0 0.00012441
13130.0 0.00012257
13150.0 0.00012073
13170.0 0.0001188
13190.0 0.00011702
13210.0 0.00011543
13230.0 0.00011392
13250.0 0.00011259
13270.0 0.00011154
13290.0 0.0001107
13310.0 0.00011008
13330.0 0.00010973
13350.0 0.00010962
13370.0 0.00010969
13390.0 0.00010992
13410.0 0.00011025
13430.0 0.00011061
13450.0 0.00011095
13470.0 0.00011122
13490.0 0.00011135
13510.0 0.0001113
13530.0 0.00011104
13550.0 0.00011057
13570.0 0.00010988
13590.0 0.00010895
13610.0 0.00010786
13630.0 0.00010667
13650.0 0.0001053
13670.0 0.00010388
13690.0 0.00010247
13710.0 0.00010104
13730.0 9.9573e-05
13750.0 9.825e-05
13770.0 9.7003e-05
13790.0 9.5787e-05
13810.0 9.4654e-05
13830.0 9.3638e-05
13850.0 9.2644e-05
13870.0 9.1682e-05
13890.0 9.0791e-05
13910.0 8.9934e-05
13930.0 8.9063e-05
13950.0 8.8212e-05
13970.0 8.7418e-05
13990.0 8.6614e-05
14010.0 8.5818e-05
14030.0 8.5074e-05
14050.0 8.4367e-05
14070.0 8.3671e-05
14090.0 8.3045e-05
14110.0 8.2491e-05
14130.0 8.199e-05
14150.0 8.1553e-05
14170.0 8.1202e-05
14190.0 8.0921e-05
14210.0 8.0708e-05
14230.0 8.0572e-05
14250.0 8.0505e-05
14270.0 8.0513e-05
14290.0 8.0599e-05
14310.0 8.0738e-05
14330.0 8.0938e-05
14350.0 8.1206e-05
14370.0 8.151e-05
14390.0 8.1828e-05
14410.0 8.219e-05
14430.0 8.2562e-05
14450.0 8.2907e-05
14470.0 8.3237e-05
14490.0 8.3564e-05
14510.0 8.3833e-05
14530.0 8.4051e-05
14550.0 8.4249e-05
14570.0 8.442e-05
14590.0 8.4555e-05
14610.0 8.4694e-05
14630.0 8.4864e-05
14650.0 8.5055e-05
14670.0 8.5289e-05
14690.0 8.5617e-05
14710.0 8.6055e-05
14730.0 8.6555e-05
14750.0 8.7191e-05
14770.0 8.7987e-05
14790.0 8.8888e-05
14810.0 8.9884e-05
14830.0 9.11e-05
14850.0 9.2409e-05
14870.0 9.374e-05
14890.0 9.5153e-05
14910.0 9.662e-05
14930.0 9.7964e-05
14950.0 9.9152e-05
14970.0 0.00010022
14990.0 0.00010101
15010.0 0.00010149
15030.0 0.00010171
15050.0 0.00010169
15070.0 0.00010143
15090.0 0.00010102
15110.0 0.00010051
15130.0 9.9942e-05
15150.0 9.9341e-05
15170.0 9.8718e-05
15190.0 9.8084e-05
15210.0 9.7451e-05
15230.0 9.6818e-05
15250.0 9.6179e-05
15270.0 9.5541e-05
15290.0 9.4911e-05
15310.0 9.4277e-05
15330.0 9.3642e-05
15350.0 9.3013e-05
15370.0 9.2385e-05
15390.0 9.175e-05
15410.0 9.1122e-05
15430.0 9.0498e-05
15450.0 8.9873e-05
15470.0 8.9246e-05
15490.0 8.8628e-05
15510.0 8.8012e-05
15530.0 8.7393e-05
15550.0 8.6778e-05
15570.0 8.617e-05
15590.0 8.5558e-05
15610.0 8.4947e-05
15630.0 8.4346e-05
15650.0 8.3746e-05
15670.0 8.3145e-05
15690.0 8.255e-05
15710.0 8.1961e-05
15730.0 8.137e-05
15750.0 8.0782e-05
15770.0 8.0202e-05
15790.0 7.9624e-05
15810.0 7.9043e-05
15830.0 7.847e-05
15850.0 7.7905e-05
15870.0 7.7338e-05
15890.0 7.6775e-05
15910.0 7.6221e-05
15930.0 7.5667e-05
15950.0 7.5113e-05
15970.0 7.4567e-05
15990.0 7.4027e-05
16010.0 7.3487e-05
16030.0 7.2949e-05
16050.0 7.2422e-05
16070.0 7.1896e-05
16090.0 7.1371e-05
16110.0 7.0854e-05
16130.0 7.0344e-05
16150.0 6.9829e-05
16170.0 6.9321e-05
16190.0 6.8823e-05
16210.0 6.8325e-05
16230.0 6.7829e-05
16250.0 6.7341e-05
16270.0 6.686e-05
16290.0 6.6377e-05
16310.0 6.5899e-05
16330.0 6.543e-05
16350.0 6.4963e-05
16370.0 6.4494e-05
16390.0 6.4037e-05
16410.0 6.3584e-05
16430.0 6.3131e-05
16450.0 6.2684e-05
16470.0 6.2246e-05
16490.0 6.1806e-05
16510.0 6.137e-05
16530.0 6.0942e-05
16550.0 6.0518e-05
16570.0 6.0094e-05
16590.0 5.9676e-05
16610.0 5.9267e-05
16630.0 5.8858e-05
16650.0 5.8451e-05
16670.0 5.8053e-05
16690.0 5.7659e-05
16710.0 5.7263e-05
16730.0 5.6874e-05
16750.0 5.6493e-05
16770.0 5.6112e-05
16790.0 5.5733e-05
16810.0 5.5363e-05
16830.0 5.4997e-05
16850.0 5.463e-05
16870.0 5.427e-05
16890.0 5.3917e-05
16910.0 5.3562e-05
16930.0 5.321e-05
16950.0 5.2868e-05
16970.0 5.2528e-05
16990.0 5.2188e-05
17010.0 5.1855e-05
17030.0 5.1528e-05
17050.0 5.12e-05
17070.0 5.0875e-05
17090.0 5.0558e-05
17110.0 5.0243e-05
17130.0 4.9927e-05
17150.0 4.9619e-05
17170.0 4.9317e-05
17190.0 4.9014e-05
17210.0 4.8714e-05
17230.0 4.8423e-05
17250.0 4.8131e-05
17270.0 4.784e-05
17290.0 4.7556e-05
17310.0 4.7276e-05
17330.0 4.6995e-05
17350.0 4.6718e-05
17370.0 4.6449e-05
17390.0 4.6181e-05
17410.0 4.5913e-05
17430.0 4.5651e-05
17450.0 4.5394e-05
17470.0 4.5133e-05
17490.0 4.4878e-05
17510.0 4.463e-05
17530.0 4.4382e-05
17550.0 4.4134e-05
17570.0 4.3893e-05
17590.0 4.3656e-05
17610.0 4.3417e-05
17630.0 4.3183e-05
17650.0 4.2954e-05
17670.0 4.2725e-05
17690.0 4.2495e-05
17710.0 4.2274e-05
17730.0 4.2055e-05
17750.0 4.1835e-05
17770.0 4.1619e-05
17790.0 4.141e-05
17810.0 4.1198e-05
17830.0 4.0987e-05
17850.0 4.0783e-05
17870.0 4.0581e-05
17890.0 4.0377e-05
17910.0 4.0178e-05
17930.0 3.9985e-05
17950.0 3.979e-05
17970.0 3.9597e-05
17990.0 3.9409e-05
18010.0 3.9223e-05
18030.0 3.9034e-05
18050.0 3.8851e-05
18070.0 3.8673e-05
18090.0 3.8493e-05
18110.0 3.8314e-05
18130.0 3.8141e-05
18150.0 3.797e-05
18170.0 3.7797e-05
18190.0 3.7629e-05
18210.0 3.7464e-05
18230.0 3.7297e-05
18250.0 3.7131e-05
18270.0 3.6972e-05
18290.0 3.6814e-05
18310.0 3.6654e-05
18330.0 3.6499e-05
18350.0 3.6348e-05
18370.0 3.6194e-05
18390.0 3.6042e-05
18410.0 3.5895e-05
18430.0 3.5748e-05
18450.0 3.5599e-05
18470.0 3.5455e-05
18490.0 3.5315e-05
18510.0 3.5173e-05
18530.0 3.5033e-05
18550.0 3.4898e-05
18570.0 3.4762e-05
18590.0 3.4624e-05
18610.0 3.4492e-05
18630.0 3.4362e-05
18650.0 3.4229e-05
18670.0 3.4099e-05
18690.0 3.3974e-05
18710.0 3.3848e-05
18730.0 3.3721e-05
18750.0 3.3599e-05
18770.0 3.3479e-05
18790.0 3.3355e-05
18810.0 3.3234e-05
18830.0 3.3118e-05
18850.0 3.3e-05
18870.0 3.2882e-05
18890.0 3.2769e-05
18910.0 3.2658e-05
18930.0 3.2543e-05
18950.0 3.2431e-05
18970.0 3.2323e-05
18990.0 3.2214e-05
19010.0 3.2102e-05
19030.0 3.1997e-05
19050.0 3.1893e-05
19070.0 3.1786e-05
19090.0 3.1682e-05
19110.0 3.1582e-05
19130.0 3.1479e-05
19150.0 3.1376e-05
19170.0 3.1278e-05
19190.0 3.118e-05
19210.0 3.1079e-05
19230.0 3.0981e-05
19250.0 3.0888e-05
19270.0 3.0792e-05
19290.0 3.0696e-05
19310.0 3.0605e-05
19330.0 3.0513e-05
19350.0 3.0417e-05
19370.0 3.0326e-05
19390.0 3.0238e-05
19410.0 3.0147e-05
19430.0 3.0057e-05
19450.0 2.9971e-05
19470.0 2.9885e-05
19490.0 2.9796e-05
19510.0 2.971e-05
19530.0 2.9627e-05
19550.0 2.9541e-05
19570.0 2.9455e-05
19590.0 2.9374e-05
19610.0 2.9292e-05
19630.0 2.9208e-05
19650.0 2.9127e-05
19670.0 2.9049e-05
19690.0 2.8967e-05
19710.0 2.8886e-05
19730.0 2.8809e-05
19750.0 2.8731e-05
19770.0 2.865e-05
19790.0 2.8573e-05
19810.0 2.8498e-05
19830.0 2.842e-05
19850.0 2.8342e-05
19870.0 2.8265e-05
19890.0 2.818e-05
19910.0 2.8084e-05
19930.0 2.7976e-05
19950.0 2.7847e-05
19970.0 2.7678e-05
19990.0 2.7465e-05
20010.0 2.7217e-05
20030.0 2.691e-05
20050.0 2.6546e-05
20070.0 2.6151e-05
20090.0 2.5727e-05
20110.0 2.5248e-05
20130.0 2.4767e-05
20150.0 2.4295e-05
20170.0 2.3808e-05
20190.0 2.3319e-05
20210.0 2.286e-05
20230.0 2.2415e-05
20250.0 2.197e-05
20270.0 2.156e-05
20290.0 2.1189e-05
20310.0 2.0838e-05
20330.0 2.0514e-05
20350.0 2.0251e-05
20370.0 2.0025e-05
20390.0 1.9836e-05
20410.0 1.9697e-05
20430.0 1.9606e-05
20450.0 1.9557e-05
20470.0 1.9555e-05
20490.0 1.9599e-05
20510.0 1.9683e-05
20530.0 1.9811e-05
20550.0 1.9974e-05
20570.0 2.0161e-05
20590.0 2.0383e-05
20610.0 2.0629e-05
20630.0 2.0882e-05
20650.0 2.115e-05
20670.0 2.1437e-05
20690.0 2.1711e-05
20710.0 2.1976e-05
20730.0 2.2237e-05
20750.0 2.2484e-05
20770.0 2.2701e-05
20790.0 2.29e-05
20810.0 2.3078e-05
20830.0 2.3224e-05
20850.0 2.3341e-05
20870.0 2.3433e-05
20890.0 2.3496e-05
20910.0 2.353e-05
20930.0 2.354e-05
20950.0 2.3526e-05
20970.0 2.3491e-05
20990.0 2.3439e-05
21010.0 2.3364e-05
21030.0 2.3275e-05
21050.0 2.3176e-05
21070.0 2.3062e-05
21090.0 2.2933e-05
21110.0 2.2803e-05
21130.0 2.2668e-05
21150.0 2.2523e-05
21170.0 2.2378e-05
21190.0 2.2239e-05
21210.0 2.2097e-05
21230.0 2.1957e-05
21250.0 2.1831e-05
21270.0 2.1714e-05
21290.0 2.1606e-05
21310.0 2.1514e-05
21330.0 2.1441e-05
21350.0 2.1383e-05
21370.0 2.1342e-05
21390.0 2.1323e-05
21410.0 2.1323e-05
21430.0 2.1343e-05
21450.0 2.1383e-05
21470.0 2.1441e-05
21490.0 2.1518e-05
21510.0 2.1614e-05
21530.0 2.1721e-05
21550.0 2.1842e-05
21570.0 2.1981e-05
21590.0 2.2128e-05
21610.0 2.2282e-05
21630.0 2.2449e-05
21650.0 2.2628e-05
21670.0 2.2804e-05
21690.0 2.2987e-05
21710.0 2.3181e-05
21730.0 2.3376e-05
21750.0 2.357e-05
21770.0 2.3779e-05
21790.0 2.3992e-05
21810.0 2.4202e-05
21830.0 2.4417e-05
21850.0 2.4644e-05
21870.0 2.4868e-05
21890.0 2.5089e-05
21910.0 2.5321e-05
21930.0 2.5554e-05
21950.0 2.5779e-05
21970.0 2.6007e-05
21990.0 2.6241e-05
22010.0 2.6461e-05
22030.0 2.6671e-05
22050.0 2.6877e-05
22070.0 2.7072e-05
22090.0 2.7244e-05
22110.0 2.7403e-05
22130.0 2.7546e-05
22150.0 2.7661e-05
22170.0 2.7751e-05
22190.0 2.7816e-05
22210.0 2.7849e-05
22230.0 2.7851e-05
22250.0 2.782e-05
22270.0 2.7754e-05
22290.0 2.7656e-05
22310.0 2.7528e-05
22330.0 2.7357e-05
22350.0 2.7155e-05
22370.0 2.6929e-05
22390.0 2.6668e-05
22410.0 2.6369e-05
22430.0 2.606e-05
22450.0 2.5733e-05
22470.0 2.5374e-05
22490.0 2.5003e-05
22510.0 2.4635e-05
22530.0 2.4242e-05
22550.0 2.3836e-05
22570.0 2.3447e-05
22590.0 2.3059e-05
22610.0 2.2663e-05
22630.0 2.2281e-05
