#lamb flux
1010.0 7.8242e-07
1030.0 8.6711e-07
1050.0 9.6454e-07
1070.0 1.0742e-06
1090.0 1.1988e-06
1110.0 1.3266e-06
1130.0 1.4552e-06
1150.0 1.59e-06
1170.0 1.729e-06
1190.0 1.8609e-06
1210.0 1.9945e-06
1230.0 2.1327e-06
1250.0 2.268e-06
1270.0 2.3995e-06
1290.0 2.5385e-06
1310.0 2.6774e-06
1330.0 2.8106e-06
1350.0 2.9454e-06
1370.0 3.0845e-06
1390.0 3.2202e-06
1410.0 3.352e-06
1430.0 3.4897e-06
1450.0 3.6274e-06
1470.0 3.7606e-06
1490.0 3.8952e-06
1510.0 4.0373e-06
1530.0 4.1721e-06
1550.0 4.305e-06
1570.0 4.4425e-06
1590.0 4.58e-06
1610.0 4.7115e-06
1630.0 4.8469e-06
1650.0 4.9858e-06
1670.0 5.12e-06
1690.0 5.2524e-06
1710.0 5.3897e-06
1730.0 5.5276e-06
1750.0 5.657e-06
1770.0 5.7899e-06
1790.0 5.9252e-06
1810.0 6.0557e-06
1830.0 6.1834e-06
1850.0 6.3185e-06
1870.0 6.4495e-06
1890.0 6.5751e-06
1910.0 6.7026e-06
1930.0 6.8324e-06
1950.0 6.9549e-06
1970.0 7.0747e-06
1990.0 7.1982e-06
2010.0 7.3179e-06
2030.0 7.4314e-06
2050.0 7.5471e-06
2070.0 7.6641e-06
2090.0 7.7714e-06
2110.0 7.8761e-06
2130.0 7.9821e-06
2150.0 8.0831e-06
2170.0 8.1757e-06
2190.0 8.2699e-06
2210.0 8.3617e-06
2230.0 8.445e-06
2250.0 8.5242e-06
2270.0 8.605e-06
2290.0 8.6779e-06
2310.0 8.7417e-06
2330.0 8.805e-06
2350.0 8.865e-06
2370.0 8.9159e-06
2390.0 8.9645e-06
2410.0 9.0165e-06
2430.0 9.0644e-06
2450.0 9.112e-06
2470.0 9.1708e-06
2490.0 9.2485e-06
2510.0 9.3454e-06
2530.0 9.5002e-06
2550.0 9.7709e-06
2570.0 1.0209e-05
2590.0 1.0877e-05
2610.0 1.195e-05
2630.0 1.3449e-05
2650.0 1.527e-05
2670.0 1.7413e-05
2690.0 1.9772e-05
2710.0 2.1994e-05
2730.0 2.3921e-05
2750.0 2.5589e-05
2770.0 2.6834e-05
2790.0 2.7664e-05
2810.0 2.8225e-05
2830.0 2.8621e-05
2850.0 2.8848e-05
2870.0 2.9008e-05
2890.0 2.9161e-05
2910.0 2.93e-05
2930.0 2.9412e-05
2950.0 2.9545e-05
2970.0 2.969e-05
2990.0 2.9818e-05
3010.0 0.00039052
3030.0 0.00039127
3050.0 0.00039194
3070.0 0.00039206
3090.0 0.00039189
3110.0 0.00039091
3130.0 0.00038841
3150.0 0.0003841
3170.0 0.00037739
3190.0 0.0003684
3210.0 0.00035796
3230.0 0.00034726
3250.0 0.00034344
3270.0 0.00033688
3290.0 0.00034339
3310.0 0.0003409
3330.0 0.0003495
3350.0 0.00036234
3370.0 0.000379
3390.0 0.00039888
3410.0 0.00041981
3430.0 0.00044274
3450.0 0.0004683
3470.0 0.0004952
3490.0 0.00052249
3510.0 0.0005541
3530.0 0.00058885
3550.0 0.00061812
3570.0 0.00064527
3590.0 0.00068409
3610.0 0.00070999
3630.0 0.00075292
3650.0 0.00079123
3670.0 0.00082989
3690.0 0.0008517
3710.0 0.00085713
3730.0 0.00086927
3750.0 0.00086943
3770.0 0.00080572
3790.0 0.00073935
3810.0 0.0006905
3830.0 0.00062504
3850.0 0.00054361
3870.0 0.00053935
3890.0 0.00069843
3910.0 0.00093495
3930.0 0.0011188
3950.0 0.0011853
3970.0 0.0011609
3990.0 0.0011833
4010.0 0.0013377
4030.0 0.0014341
4050.0 0.0013891
4070.0 0.0012297
4090.0 0.0010859
4110.0 0.0012185
4130.0 0.0013194
4150.0 0.0012954
4170.0 0.0012953
4190.0 0.0012894
4210.0 0.0013379
4230.0 0.0014237
4250.0 0.001537
4270.0 0.0015656
4290.0 0.0015512
4310.0 0.0016333
4330.0 0.0017939
4350.0 0.0020359
4370.0 0.002272
4390.0 0.0021896
4410.0 0.0018498
4430.0 0.0015398
4450.0 0.0012899
4470.0 0.0012642
4490.0 0.0013831
4510.0 0.0015973
4530.0 0.0017378
4550.0 0.0019526
4570.0 0.0023294
4590.0 0.002865
4610.0 0.003669
4630.0 0.0044154
4650.0 0.004541
4670.0 0.0045281
4690.0 0.0047911
4710.0 0.0048814
4730.0 0.0041136
4750.0 0.0030417
4770.0 0.002489
4790.0 0.0023431
4810.0 0.0022214
4830.0 0.0021818
4850.0 0.0025101
4870.0 0.003097
4890.0 0.0034433
4910.0 0.0030169
4930.0 0.0028208
4950.0 0.0032439
4970.0 0.0042127
4990.0 0.0052225
5010.0 0.0053695
5030.0 0.0044272
5050.0 0.0030256
5070.0 0.0021532
5090.0 0.0018799
5110.0 0.0019251
5130.0 0.0020721
5150.0 0.0021388
5170.0 0.0021231
5190.0 0.0020962
5210.0 0.0020587
5230.0 0.0021327
5250.0 0.0022867
5270.0 0.0026208
5290.0 0.003022
5310.0 0.0033131
5330.0 0.0034223
5350.0 0.0035096
5370.0 0.0038135
5390.0 0.0040093
5410.0 0.0037941
5430.0 0.0033559
5450.0 0.0032331
5470.0 0.0037309
5490.0 0.0047335
5510.0 0.005842
5530.0 0.0063366
5550.0 0.0061874
5570.0 0.0057244
5590.0 0.0052041
5610.0 0.0048743
5630.0 0.0047655
5650.0 0.0048591
5670.0 0.0047447
5690.0 0.0044559
5710.0 0.0042275
5730.0 0.0037618
5750.0 0.0029119
5770.0 0.0025668
5790.0 0.0028319
5810.0 0.0033211
5830.0 0.003719
5850.0 0.003939
5870.0 0.0039657
5890.0 0.0037836
5910.0 0.0036154
5930.0 0.0036272
5950.0 0.0038044
5970.0 0.0039351
5990.0 0.0036376
6010.0 0.0030541
6030.0 0.0025356
6050.0 0.0022562
6070.0 0.0022895
6090.0 0.0025457
6110.0 0.002692
6130.0 0.002562
6150.0 0.0024638
6170.0 0.0027329
6190.0 0.0032596
6210.0 0.0038853
6230.0 0.0043406
6250.0 0.0042768
6270.0 0.0038094
6290.0 0.0031665
6310.0 0.0025373
6330.0 0.0020727
6350.0 0.0019412
6370.0 0.0021338
6390.0 0.0024651
6410.0 0.0028377
6430.0 0.0033081
6450.0 0.0038838
6470.0 0.0047525
6490.0 0.0057349
6510.0 0.006198
6530.0 0.0058393
6550.0 0.0054775
6570.0 0.005416
6590.0 0.0052309
6610.0 0.0048263
6630.0 0.0044188
6650.0 0.0041412
6670.0 0.0042005
6690.0 0.0041272
6710.0 0.003717
6730.0 0.0033646
6750.0 0.0030158
6770.0 0.0030112
6790.0 0.0032146
6810.0 0.0033934
6830.0 0.0034571
6850.0 0.0033499
6870.0 0.003225
6890.0 0.0031463
6910.0 0.0029773
6930.0 0.0028571
6950.0 0.0028644
6970.0 0.0029464
6990.0 0.0032352
7010.0 0.00341
7030.0 0.0031763
7050.0 0.0029314
7070.0 0.0027095
7090.0 0.0023803
7110.0 0.0022054
7130.0 0.002265
7150.0 0.0023503
7170.0 0.0024579
7190.0 0.0024433
7210.0 0.0024523
7230.0 0.0026496
7250.0 0.0030467
7270.0 0.0034752
7290.0 0.0036777
7310.0 0.0035251
7330.0 0.0031547
7350.0 0.0028604
7370.0 0.002797
7390.0 0.0028457
7410.0 0.0029986
7430.0 0.0033256
7450.0 0.0036238
7470.0 0.0039844
7490.0 0.0042702
7510.0 0.0038121
7530.0 0.0036379
7550.0 0.0031587
7570.0 0.0026959
7590.0 0.0022347
7610.0 0.0020762
7630.0 0.0021985
7650.0 0.002534
7670.0 0.0028208
7690.0 0.0031497
7710.0 0.0035058
7730.0 0.0036977
7750.0 0.0037823
7770.0 0.0038088
7790.0 0.0038064
7810.0 0.0039026
7830.0 0.0037841
7850.0 0.0035075
7870.0 0.0032519
7890.0 0.0030235
7910.0 0.0027188
7930.0 0.0023843
7950.0 0.0021724
7970.0 0.0021326
7990.0 0.0022142
8010.0 0.0023634
8030.0 0.0023994
8050.0 0.0024089
8070.0 0.0023528
8090.0 0.0023361
8110.0 0.002242
8130.0 0.0021187
8150.0 0.0019976
8170.0 0.0019763
8190.0 0.0020209
8210.0 0.0020171
8230.0 0.0020285
8250.0 0.002003
8270.0 0.001781
8290.0 0.0013788
8310.0 0.00097957
8330.0 0.00066199
8350.0 0.00047421
8370.0 0.00052829
8390.0 0.00059554
8410.0 0.00075038
8430.0 0.00091391
8450.0 0.0010007
8470.0 0.001036
8490.0 0.0010897
8510.0 0.0011512
8530.0 0.0012964
8550.0 0.001456
8570.0 0.0016932
8590.0 0.0020234
8610.0 0.0023509
8630.0 0.002741
8650.0 0.00305
8670.0 0.0030179
8690.0 0.0028577
8710.0 0.0027151
8730.0 0.0025802
8750.0 0.0024763
8770.0 0.0024137
8790.0 0.0023259
8810.0 0.0021569
8830.0 0.0019878
8850.0 0.0017309
8870.0 0.0015177
8890.0 0.0013727
8910.0 0.0014105
8930.0 0.0013764
8950.0 0.0014436
8970.0 0.0014719
8990.0 0.0015182
9010.0 0.0015767
9030.0 0.0015719
9050.0 0.0015725
9070.0 0.0015743
9090.0 0.0015758
9110.0 0.0015762
9130.0 0.0015776
9150.0 0.0015799
9170.0 0.0015816
9190.0 0.0015824
9210.0 0.0015901
9230.0 0.0015918
9250.0 0.0015944
9270.0 0.0015974
9290.0 0.0016007
9310.0 0.0016044
9330.0 0.0016083
9350.0 0.0016124
9370.0 0.0016168
9390.0 0.0016215
9410.0 0.0016264
9430.0 0.0016313
9450.0 0.0016367
9470.0 0.0016422
9490.0 0.0016478
9510.0 0.0016537
9530.0 0.0016599
9550.0 0.0016661
9570.0 0.0016725
9590.0 0.0016792
9610.0 0.001686
9630.0 0.0016929
9650.0 0.0017
9670.0 0.0017074
9690.0 0.0017148
9710.0 0.0017224
9730.0 0.0017302
9750.0 0.0017381
9770.0 0.001746
9790.0 0.0017541
9810.0 0.0017624
9830.0 0.0017707
9850.0 0.0017791
9870.0 0.0017877
9890.0 0.0017963
9910.0 0.001805
9930.0 0.0018137
9950.0 0.0018222
9970.0 0.0018311
9990.0 0.0018401
10010.0 0.0018332
10030.0 0.0018421
10050.0 0.0018507
10070.0 0.001858
10090.0 0.0018675
10110.0 0.0018766
10130.0 0.0018857
10150.0 0.0018948
10170.0 0.0019036
10190.0 0.0019121
10210.0 0.0019208
10230.0 0.0019295
10250.0 0.0019378
10270.0 0.0019461
10290.0 0.0019545
10310.0 0.0019626
10330.0 0.0019704
10350.0 0.0019783
10370.0 0.0019861
10390.0 0.0019935
10410.0 0.0020009
10430.0 0.0020083
10450.0 0.0020153
10470.0 0.002022
10490.0 0.0020287
10510.0 0.0020353
10530.0 0.0020413
10550.0 0.0020472
10570.0 0.0020532
10590.0 0.0020587
10610.0 0.0020638
10630.0 0.002069
10650.0 0.0020738
10670.0 0.0020781
10690.0 0.0020823
10710.0 0.0020864
10730.0 0.00209
10750.0 0.0020931
10770.0 0.0020964
10790.0 0.0020992
10810.0 0.0021015
10830.0 0.0021035
10850.0 0.0021053
10870.0 0.0021059
10890.0 0.0021054
10910.0 0.0021034
10930.0 0.0020985
10950.0 0.002089
10970.0 0.0020741
10990.0 0.0020534
11010.0 0.002015
11030.0 0.0019764
11050.0 0.0019319
11070.0 0.0018803
11090.0 0.0018198
11110.0 0.0017587
11130.0 0.0016964
11150.0 0.0016311
11170.0 0.001566
11190.0 0.0015055
11210.0 0.0014457
11230.0 0.0013877
11250.0 0.0013355
11270.0 0.0012883
11290.0 0.001244
11310.0 0.0012047
11330.0 0.001172
11350.0 0.0011425
11370.0 0.001116
11390.0 0.0010933
11410.0 0.0010728
11430.0 0.0010525
11450.0 0.0010329
11470.0 0.0010135
11490.0 0.00099275
11510.0 0.00096986
11530.0 0.00094624
11550.0 0.00092115
11570.0 0.00089343
11590.0 0.00086456
11610.0 0.00083564
11630.0 0.00080514
11650.0 0.00077387
11670.0 0.00074447
11690.0 0.00071603
11710.0 0.00068809
11730.0 0.00066225
11750.0 0.00063924
11770.0 0.00061745
11790.0 0.00059758
11810.0 0.00058029
11830.0 0.00056479
11850.0 0.00055021
11870.0 0.00053733
11890.0 0.00052573
11910.0 0.00051441
11930.0 0.00050327
11950.0 0.00049253
11970.0 0.00048152
11990.0 0.00046976
12010.0 0.00045783
12030.0 0.00044575
12050.0 0.00043303
12070.0 0.0004199
12090.0 0.00040756
12110.0 0.00039541
12130.0 0.00038363
12150.0 0.00037307
12170.0 0.00036399
12190.0 0.00035605
12210.0 0.0003501
12230.0 0.00034631
12250.0 0.00034459
12270.0 0.00034517
12290.0 0.00034794
12310.0 0.00035257
12330.0 0.00035943
12350.0 0.00036806
12370.0 0.00037774
12390.0 0.00038867
12410.0 0.0004011
12430.0 0.00041316
12450.0 0.00042507
12470.0 0.00043708
12490.0 0.00044836
12510.0 0.00045812
12530.0 0.00046703
12550.0 0.00047472
12570.0 0.0004805
12590.0 0.00048457
12610.0 0.00048714
12630.0 0.00048789
12650.0 0.00048688
12670.0 0.0004844
12690.0 0.00048043
12710.0 0.00047526
12730.0 0.00046908
12750.0 0.00046168
12770.0 0.00045358
12790.0 0.00044505
12810.0 0.00043589
12830.0 0.00042611
12850.0 0.00041638
12870.0 0.00040644
12890.0 0.00039595
12910.0 0.00038537
12930.0 0.00037487
12950.0 0.00036382
12970.0 0.00035235
12990.0 0.00034118
13010.0 0.00032987
13030.0 0.00031817
13050.0 0.00030665
13070.0 0.00029564
13090.0 0.0002845
13110.0 0.00027367
13130.0 0.00026371
13150.0 0.00025441
13170.0 0.00024556
13190.0 0.00023797
13210.0 0.00023161
13230.0 0.00022622
13250.0 0.00022203
13270.0 0.00021917
13290.0 0.00021745
13310.0 0.00021694
13330.0 0.00021755
13350.0 0.00021912
13370.0 0.00022165
13390.0 0.00022504
13410.0 0.00022876
13430.0 0.00023296
13450.0 0.00023757
13470.0 0.00024216
13490.0 0.00024655
13510.0 0.00025111
13530.0 0.00025531
13550.0 0.00025897
13570.0 0.00026228
13590.0 0.00026524
13610.0 0.00026761
13630.0 0.00026944
13650.0 0.00027093
13670.0 0.00027194
13690.0 0.00027248
13710.0 0.00027266
13730.0 0.00027249
13750.0 0.00027194
13770.0 0.00027109
13790.0 0.00026993
13810.0 0.00026847
13830.0 0.00026678
13850.0 0.00026478
13870.0 0.00026249
13890.0 0.00025999
13910.0 0.00025728
13930.0 0.00025426
13950.0 0.00025104
13970.0 0.00024781
13990.0 0.00024439
14010.0 0.00024086
14030.0 0.00023744
14050.0 0.00023409
14070.0 0.0002307
14090.0 0.00022757
14110.0 0.00022475
14130.0 0.00022215
14150.0 0.00021985
14170.0 0.00021799
14190.0 0.00021651
14210.0 0.0002154
14230.0 0.00021474
14250.0 0.00021451
14270.0 0.00021471
14290.0 0.00021538
14310.0 0.00021641
14330.0 0.00021782
14350.0 0.00021963
14370.0 0.0002217
14390.0 0.00022393
14410.0 0.00022647
14430.0 0.00022918
14450.0 0.0002319
14470.0 0.0002347
14490.0 0.00023773
14510.0 0.00024072
14530.0 0.00024371
14550.0 0.00024695
14570.0 0.00025042
14590.0 0.00025401
14610.0 0.00025802
14630.0 0.00026265
14650.0 0.00026765
14670.0 0.00027311
14690.0 0.00027938
14710.0 0.0002864
14730.0 0.00029358
14750.0 0.00030145
14770.0 0.00030999
14790.0 0.00031865
14810.0 0.00032728
14830.0 0.00033652
14850.0 0.00034545
14870.0 0.00035374
14890.0 0.00036167
14910.0 0.0003691
14930.0 0.00037541
14950.0 0.00038067
14970.0 0.00038508
14990.0 0.00038833
15010.0 0.00039046
15030.0 0.00039173
15050.0 0.00039223
15070.0 0.00039212
15090.0 0.00039164
15110.0 0.00039089
15130.0 0.00038999
15150.0 0.00038906
15170.0 0.00038806
15190.0 0.00038703
15210.0 0.00038604
15230.0 0.00038506
15250.0 0.00038403
15270.0 0.00038303
15290.0 0.00038208
15310.0 0.0003811
15330.0 0.00038011
15350.0 0.00037916
15370.0 0.00037822
15390.0 0.00037723
15410.0 0.00037627
15430.0 0.00037534
15450.0 0.00037439
15470.0 0.00037341
15490.0 0.0003725
15510.0 0.00037158
15530.0 0.00037062
15550.0 0.00036969
15570.0 0.00036879
15590.0 0.00036784
15610.0 0.00036688
15630.0 0.00036597
15650.0 0.00036506
15670.0 0.00036411
15690.0 0.00036319
15710.0 0.0003623
15730.0 0.00036136
15750.0 0.00036042
15770.0 0.00035951
15790.0 0.0003586
15810.0 0.00035763
15830.0 0.0003567
15850.0 0.0003558
15870.0 0.00035486
15890.0 0.00035391
15910.0 0.00035301
15930.0 0.00035208
15950.0 0.0003511
15970.0 0.00035017
15990.0 0.00034925
16010.0 0.00034828
16030.0 0.0003473
16050.0 0.00034639
16070.0 0.00034544
16090.0 0.00034446
16110.0 0.00034351
16130.0 0.00034258
16150.0 0.00034157
16170.0 0.00034058
16190.0 0.00033963
16210.0 0.00033865
16230.0 0.00033763
16250.0 0.00033666
16270.0 0.00033569
16290.0 0.00033467
16310.0 0.00033366
16330.0 0.00033268
16350.0 0.00033167
16370.0 0.0003306
16390.0 0.0003296
16410.0 0.00032859
16430.0 0.00032754
16450.0 0.0003265
16470.0 0.0003255
16490.0 0.00032444
16510.0 0.00032336
16530.0 0.00032231
16550.0 0.00032127
16570.0 0.00032017
16590.0 0.00031908
16610.0 0.00031803
16630.0 0.00031694
16650.0 0.00031583
16670.0 0.00031476
16690.0 0.00031368
16710.0 0.00031253
16730.0 0.00031141
16750.0 0.00031032
16770.0 0.00030919
16790.0 0.00030803
16810.0 0.00030692
16830.0 0.0003058
16850.0 0.00030463
16870.0 0.00030348
16890.0 0.00030235
16910.0 0.00030117
16930.0 0.00029996
16950.0 0.00029882
16970.0 0.00029765
16990.0 0.00029644
17010.0 0.00029526
17030.0 0.0002941
17050.0 0.00029288
17070.0 0.00029166
17090.0 0.00029047
17110.0 0.00028926
17130.0 0.000288
17150.0 0.00028678
17170.0 0.00028558
17190.0 0.00028433
17210.0 0.00028308
17230.0 0.00028187
17250.0 0.00028062
17270.0 0.00027933
17290.0 0.00027808
17310.0 0.00027684
17330.0 0.00027556
17350.0 0.00027426
17370.0 0.00027302
17390.0 0.00027175
17410.0 0.00027045
17430.0 0.00026917
17450.0 0.00026791
17470.0 0.00026658
17490.0 0.00026527
17510.0 0.00026399
17530.0 0.00026269
17550.0 0.00026135
17570.0 0.00026006
17590.0 0.00025877
17610.0 0.00025743
17630.0 0.0002561
17650.0 0.00025481
17670.0 0.00025348
17690.0 0.0002521
17710.0 0.0002508
17730.0 0.00024948
17750.0 0.00024813
17770.0 0.00024678
17790.0 0.00024548
17810.0 0.00024413
17830.0 0.00024276
17850.0 0.00024143
17870.0 0.00024009
17890.0 0.00023871
17910.0 0.00023735
17930.0 0.00023603
17950.0 0.00023467
17970.0 0.0002333
17990.0 0.00023197
18010.0 0.00023063
18030.0 0.00022923
18050.0 0.00022787
18070.0 0.00022653
18090.0 0.00022516
18110.0 0.00022377
18130.0 0.00022244
18150.0 0.00022109
18170.0 0.00021971
18190.0 0.00021835
18210.0 0.00021701
18230.0 0.00021563
18250.0 0.00021423
18270.0 0.0002129
18290.0 0.00021154
18310.0 0.00021016
18330.0 0.0002088
18350.0 0.00020748
18370.0 0.00020609
18390.0 0.00020472
18410.0 0.00020338
18430.0 0.00020203
18450.0 0.00020063
18470.0 0.00019928
18490.0 0.00019796
18510.0 0.00019659
18530.0 0.00019523
18550.0 0.00019391
18570.0 0.00019256
18590.0 0.00019117
18610.0 0.00018983
18630.0 0.00018851
18650.0 0.00018714
18670.0 0.00018578
18690.0 0.00018448
18710.0 0.00018314
18730.0 0.00018179
18750.0 0.00018046
18770.0 0.00017916
18790.0 0.00017779
18810.0 0.00017645
18830.0 0.00017515
18850.0 0.00017383
18870.0 0.00017248
18890.0 0.00017118
18910.0 0.00016989
18930.0 0.00016855
18950.0 0.00016723
18970.0 0.00016595
18990.0 0.00016464
19010.0 0.00016329
19030.0 0.00016202
19050.0 0.00016074
19070.0 0.00015942
19090.0 0.00015813
19110.0 0.00015688
19130.0 0.00015558
19150.0 0.00015427
19170.0 0.00015301
19190.0 0.00015174
19210.0 0.00015044
19230.0 0.00014916
19250.0 0.00014793
19270.0 0.00014666
19290.0 0.00014538
19310.0 0.00014415
19330.0 0.00014291
19350.0 0.00014162
19370.0 0.00014037
19390.0 0.00013915
19410.0 0.0001379
19430.0 0.00013664
19450.0 0.00013543
19470.0 0.00013421
19490.0 0.00013296
19510.0 0.00013175
19530.0 0.00013055
19550.0 0.00012931
19570.0 0.00012807
19590.0 0.00012689
19610.0 0.00012569
19630.0 0.00012446
19650.0 0.00012327
19670.0 0.00012211
19690.0 0.00012089
19710.0 0.00011969
19730.0 0.00011853
19750.0 0.00011735
19770.0 0.00011613
19790.0 0.00011497
19810.0 0.00011382
19830.0 0.00011264
19850.0 0.00011146
19870.0 0.00011031
19890.0 0.00010911
19910.0 0.00010784
19930.0 0.00010655
19950.0 0.00010518
19970.0 0.00010362
19990.0 0.0001019
20010.0 0.00010056
20030.0 9.8507e-05
20050.0 9.6262e-05
20070.0 9.3976e-05
20090.0 9.1654e-05
20110.0 8.9189e-05
20130.0 8.6841e-05
20150.0 8.4642e-05
20170.0 8.2493e-05
20190.0 8.0441e-05
20210.0 7.8607e-05
20230.0 7.6913e-05
20250.0 7.5311e-05
20270.0 7.3907e-05
20290.0 7.2694e-05
20310.0 7.1613e-05
20330.0 7.068e-05
20350.0 6.9968e-05
20370.0 6.9406e-05
20390.0 6.8996e-05
20410.0 6.8756e-05
20430.0 6.8669e-05
20450.0 6.8736e-05
20470.0 6.8959e-05
20490.0 6.9309e-05
20510.0 6.9791e-05
20530.0 7.0421e-05
20550.0 7.1149e-05
20570.0 7.1941e-05
20590.0 7.2854e-05
20610.0 7.3842e-05
20630.0 7.4847e-05
20650.0 7.5904e-05
20670.0 7.7046e-05
20690.0 7.8146e-05
20710.0 7.9226e-05
20730.0 8.0335e-05
20750.0 8.1432e-05
20770.0 8.2455e-05
20790.0 8.3482e-05
20810.0 8.4522e-05
20830.0 8.5517e-05
20850.0 8.6488e-05
20870.0 8.7512e-05
20890.0 8.8548e-05
20910.0 8.9545e-05
20930.0 9.059e-05
20950.0 9.1688e-05
20970.0 9.2774e-05
20990.0 9.3859e-05
21010.0 9.5015e-05
21030.0 9.6152e-05
21050.0 9.7234e-05
21070.0 9.8307e-05
21090.0 9.9367e-05
21110.0 0.00010031
21130.0 0.00010116
21150.0 0.00010194
21170.0 0.00010262
21190.0 0.00010315
21210.0 0.00010358
21230.0 0.00010389
21250.0 0.00010404
21270.0 0.00010407
21290.0 0.00010396
21310.0 0.0001037
21330.0 0.00010333
21350.0 0.00010283
21370.0 0.00010218
21390.0 0.00010143
21410.0 0.00010058
21430.0 9.9561e-05
21450.0 9.8471e-05
21470.0 9.7327e-05
21490.0 9.6075e-05
21510.0 9.4741e-05
21530.0 9.3415e-05
21550.0 9.2053e-05
21570.0 9.0627e-05
21590.0 8.9244e-05
21610.0 8.7922e-05
21630.0 8.6612e-05
21650.0 8.5343e-05
21670.0 8.4246e-05
21690.0 8.3238e-05
21710.0 8.2333e-05
21730.0 8.159e-05
21750.0 8.1014e-05
21770.0 8.0572e-05
21790.0 8.0313e-05
21810.0 8.0235e-05
21830.0 8.0326e-05
21850.0 8.0603e-05
21870.0 8.1045e-05
21890.0 8.1626e-05
21910.0 8.2387e-05
21930.0 8.3297e-05
21950.0 8.4303e-05
21970.0 8.5442e-05
21990.0 8.6753e-05
22010.0 8.8095e-05
22030.0 8.9492e-05
22050.0 9.0998e-05
22070.0 9.2552e-05
22090.0 9.4059e-05
22110.0 9.5614e-05
22130.0 9.72e-05
22150.0 9.8708e-05
22170.0 0.00010015
22190.0 0.00010159
22210.0 0.00010293
22230.0 0.0001041
22250.0 0.00010518
22270.0 0.00010613
22290.0 0.0001069
22310.0 0.00010749
22330.0 0.00010793
22350.0 0.00010815
22370.0 0.00010817
22390.0 0.00010798
22410.0 0.00010756
22430.0 0.00010694
22450.0 0.00010613
22470.0 0.00010508
22490.0 0.00010383
22510.0 0.00010245
22530.0 0.00010084
22550.0 9.9014e-05
22570.0 9.7119e-05
22590.0 9.5093e-05
22610.0 9.2875e-05
22630.0 9.058e-05
22650.0 8.8302e-05
22670.0 8.5872e-05
22690.0 8.3367e-05
22710.0 8.0919e-05
22730.0 7.8469e-05
22750.0 7.5886e-05
22770.0 7.3431e-05
22790.0 7.1096e-05
22810.0 6.8758e-05
22830.0 6.6487e-05
22850.0 6.4421e-05
22870.0 6.2453e-05
22890.0 6.0561e-05
22910.0 5.8888e-05
22930.0 5.7427e-05
22950.0 5.6116e-05
22970.0 5.5e-05
22990.0 5.4179e-05
23010.0 5.3563e-05
23030.0 5.3176e-05
