#lamb flux
1010.0 2.2106e-05
1030.0 2.2106e-05
1050.0 2.2109e-05
1070.0 2.2116e-05
1090.0 2.2129e-05
1110.0 2.2148e-05
1130.0 2.2172e-05
1150.0 2.2202e-05
1170.0 2.2237e-05
1190.0 2.2274e-05
1210.0 2.2312e-05
1230.0 2.2351e-05
1250.0 2.2387e-05
1270.0 2.2419e-05
1290.0 2.2447e-05
1310.0 2.247e-05
1330.0 2.2485e-05
1350.0 2.2492e-05
1370.0 2.2485e-05
1390.0 2.2474e-05
1410.0 2.246e-05
1430.0 2.2445e-05
1450.0 2.2429e-05
1470.0 2.2411e-05
1490.0 2.2394e-05
1510.0 2.2376e-05
1530.0 2.2359e-05
1550.0 2.2342e-05
1570.0 2.2326e-05
1590.0 2.231e-05
1610.0 2.229e-05
1630.0 2.2271e-05
1650.0 2.2253e-05
1670.0 2.2235e-05
1690.0 2.2218e-05
1710.0 2.2201e-05
1730.0 2.2185e-05
1750.0 2.2167e-05
1770.0 2.2148e-05
1790.0 2.2129e-05
1810.0 2.2108e-05
1830.0 2.2482e-05
1850.0 4.5701e-05
1870.0 7.0725e-05
1890.0 9.7731e-05
1910.0 0.00012706
1930.0 0.00015902
1950.0 0.0001936
1970.0 0.00023102
1990.0 0.00027169
2010.0 0.00031548
2030.0 0.00036226
2050.0 0.00041243
2070.0 0.00046599
2090.0 0.00052208
2110.0 0.00058086
2130.0 0.00064244
2150.0 0.00070595
2170.0 0.00077058
2190.0 0.00083682
2210.0 0.0009038
2230.0 0.00097023
2250.0 0.0010359
2270.0 0.0011011
2290.0 0.0011639
2310.0 0.0012234
2330.0 0.0012802
2350.0 0.0013334
2370.0 0.0013815
2390.0 0.0014249
2410.0 0.0014637
2430.0 0.0014961
2450.0 0.0015218
2470.0 0.0015416
2490.0 0.0015554
2510.0 0.0015629
2530.0 0.0015675
2550.0 0.0015737
2570.0 0.0015864
2590.0 0.0016122
2610.0 0.0016663
2630.0 0.0017567
2650.0 0.0018829
2670.0 0.0020541
2690.0 0.0022747
2710.0 0.0025211
2730.0 0.00278
2750.0 0.0030607
2770.0 0.0033347
2790.0 0.0035816
2810.0 0.0038097
2830.0 0.004024
2850.0 0.0041972
2870.0 0.0043488
2890.0 0.0044938
2910.0 0.0046308
2930.0 0.0047594
2950.0 0.0048974
2970.0 0.0050454
2990.0 0.0051961
3010.0 0.0053546
3030.0 0.0055283
3050.0 0.0057101
3070.0 0.0058883
3090.0 0.0060717
3110.0 0.0062501
3130.0 0.0064085
3150.0 0.0065425
3170.0 0.0066478
3190.0 0.0067216
3210.0 0.0067783
3230.0 0.0068379
3250.0 0.0069325
3270.0 0.007091
3290.0 0.0073288
3310.0 0.0076648
3330.0 0.0080911
3350.0 0.0085844
3370.0 0.0091495
3390.0 0.0097396
3410.0 0.010305
3430.0 0.010821
3450.0 0.011259
3470.0 0.012313
3490.0 0.012727
3510.0 0.011417
3530.0 0.010855
3550.0 0.014159
3570.0 0.01704
3590.0 0.016858
3610.0 0.018186
3630.0 0.018304
3650.0 0.016751
3670.0 0.016703
3690.0 0.018908
3710.0 0.020883
3730.0 0.021955
3750.0 0.019834
3770.0 0.019578
3790.0 0.020425
3810.0 0.019718
3830.0 0.017199
3850.0 0.015539
3870.0 0.016374
3890.0 0.018325
3910.0 0.01955
3930.0 0.020096
3950.0 0.020819
3970.0 0.021235
3990.0 0.021457
4010.0 0.02083
4030.0 0.018944
4050.0 0.017745
4070.0 0.01805
4090.0 0.019179
4110.0 0.019893
4130.0 0.019614
4150.0 0.019374
4170.0 0.019567
4190.0 0.019982
4210.0 0.019312
4230.0 0.017601
4250.0 0.015772
4270.0 0.014544
4290.0 0.013607
4310.0 0.012744
4330.0 0.013109
4350.0 0.013642
4370.0 0.013793
4390.0 0.014154
4410.0 0.014052
4430.0 0.013889
4450.0 0.014042
4470.0 0.014111
4490.0 0.015185
4510.0 0.015767
4530.0 0.016287
4550.0 0.016807
4570.0 0.01746
4590.0 0.017822
4610.0 0.018058
4630.0 0.018266
4650.0 0.01865
4670.0 0.017498
4690.0 0.016193
4710.0 0.015057
4730.0 0.014587
4750.0 0.013936
4770.0 0.013448
4790.0 0.013149
4810.0 0.012753
4830.0 0.01333
4850.0 0.014666
4870.0 0.010827
4890.0 0.010874
4910.0 0.011719
4930.0 0.012099
4950.0 0.011056
4970.0 0.010247
4990.0 0.0098972
5010.0 0.0092485
5030.0 0.0087399
5050.0 0.0090462
5070.0 0.0095902
5090.0 0.0098917
5110.0 0.010722
5130.0 0.011015
5150.0 0.01144
5170.0 0.011851
5190.0 0.011624
5210.0 0.012151
5230.0 0.012408
5250.0 0.012543
5270.0 0.012724
5290.0 0.012425
5310.0 0.012071
5330.0 0.011469
5350.0 0.010884
5370.0 0.010412
5390.0 0.010686
5410.0 0.010613
5430.0 0.010724
5450.0 0.010683
5470.0 0.010514
5490.0 0.010417
5510.0 0.010148
5530.0 0.0099083
5550.0 0.009766
5570.0 0.0098571
5590.0 0.0099612
5610.0 0.010061
5630.0 0.0098448
5650.0 0.0096662
5670.0 0.0092525
5690.0 0.0090446
5710.0 0.0087533
5730.0 0.0087168
5750.0 0.0085481
5770.0 0.0082433
5790.0 0.0085
5810.0 0.0084826
5830.0 0.0087149
5850.0 0.0088054
5870.0 0.0088873
5890.0 0.0087293
5910.0 0.0087078
5930.0 0.0084524
5950.0 0.0085377
5970.0 0.0083404
5990.0 0.0081913
6010.0 0.0081855
6030.0 0.0083555
6050.0 0.0082725
6070.0 0.0080794
6090.0 0.0079978
6110.0 0.0081233
6130.0 0.008018
6150.0 0.0077482
6170.0 0.0073224
6190.0 0.0068686
6210.0 0.0065315
6230.0 0.0064745
6250.0 0.0065347
6270.0 0.0066777
6290.0 0.0069495
6310.0 0.0074102
6330.0 0.0076283
6350.0 0.0076416
6370.0 0.0076953
6390.0 0.007651
6410.0 0.0074853
6430.0 0.0072768
6450.0 0.0071788
6470.0 0.0071643
6490.0 0.0071152
6510.0 0.0070407
6530.0 0.0070339
6550.0 0.0069644
6570.0 0.0066828
6590.0 0.0066121
6610.0 0.00655
6630.0 0.0063236
6650.0 0.0061096
6670.0 0.0059386
6690.0 0.0058981
6710.0 0.0057187
6730.0 0.0056257
6750.0 0.0055345
6770.0 0.0054049
6790.0 0.0054402
6810.0 0.0053674
6830.0 0.0052056
6850.0 0.005146
6870.0 0.0051107
6890.0 0.005022
6910.0 0.0049853
6930.0 0.0049499
6950.0 0.0048648
6970.0 0.004758
6990.0 0.0047545
7010.0 0.0047232
7030.0 0.0047555
7050.0 0.0046218
7070.0 0.0045597
7090.0 0.0045761
7110.0 0.0044334
7130.0 0.004419
7150.0 0.0044659
7170.0 0.0045388
7190.0 0.0044655
7210.0 0.0044846
7230.0 0.0045725
7250.0 0.0044659
7270.0 0.0045246
7290.0 0.0044531
7310.0 0.0043318
7330.0 0.0041205
7350.0 0.004155
7370.0 0.0041743
7390.0 0.0040829
7410.0 0.0039773
7430.0 0.0039182
7450.0 0.0038723
7470.0 0.0039165
7490.0 0.0039979
7510.0 0.0039223
7530.0 0.0037832
7550.0 0.0038103
7570.0 0.0034997
7590.0 0.0034242
7610.0 0.0033578
7630.0 0.0034128
7650.0 0.0033367
7670.0 0.003459
7690.0 0.0033168
7710.0 0.0035235
7730.0 0.0035339
7750.0 0.0038641
7770.0 0.0039697
7790.0 0.0041053
7810.0 0.004284
7830.0 0.004345
7850.0 0.0044863
7870.0 0.0043987
7890.0 0.0043577
7910.0 0.0042793
7930.0 0.0041288
7950.0 0.0040095
7970.0 0.0039945
7990.0 0.0039522
8010.0 0.0036314
8030.0 0.0036087
8050.0 0.0035398
8070.0 0.0035031
8090.0 0.003423
8110.0 0.0034494
8130.0 0.0034793
8150.0 0.0035257
8170.0 0.0034853
8190.0 0.0035187
8210.0 0.0034632
8230.0 0.0032734
8250.0 0.0031967
8270.0 0.0031405
8290.0 0.0030932
8310.0 0.0030064
8330.0 0.0030525
8350.0 0.0030285
8370.0 0.0030201
8390.0 0.0030757
8410.0 0.0030775
8430.0 0.0031408
8450.0 0.003195
8470.0 0.0032095
8490.0 0.003243
8510.0 0.0031946
8530.0 0.0030978
8550.0 0.003124
8570.0 0.003131
8590.0 0.0030477
8610.0 0.003117
8630.0 0.003084
8650.0 0.0030193
8670.0 0.0030015
8690.0 0.0030014
8710.0 0.0028938
8730.0 0.0029246
8750.0 0.0028263
8770.0 0.002805
8790.0 0.0027344
8810.0 0.0027053
8830.0 0.0026849
8850.0 0.0025439
8870.0 0.0024089
8890.0 0.002372
8910.0 0.0022296
8930.0 0.0020586
8950.0 0.0020541
8970.0 0.0019957
8990.0 0.0019847
9010.0 0.0019704
9030.0 0.0019573
9050.0 0.0019434
9070.0 0.0019294
9090.0 0.0019152
9110.0 0.001901
9130.0 0.0018868
9150.0 0.0018726
9170.0 0.0018584
9190.0 0.0018441
9210.0 0.0018299
9230.0 0.0018156
9250.0 0.0018013
9270.0 0.001787
9290.0 0.0017727
9310.0 0.0017585
9330.0 0.0017442
9350.0 0.00173
9370.0 0.0017158
9390.0 0.0017017
9410.0 0.0016876
9430.0 0.0016735
9450.0 0.0016595
9470.0 0.0016464
9490.0 0.0016329
9510.0 0.0016186
9530.0 0.0016045
9550.0 0.0015906
9570.0 0.0015769
9590.0 0.0015633
9610.0 0.0015498
9630.0 0.0015364
9650.0 0.0015231
9670.0 0.0015099
9690.0 0.0014968
9710.0 0.0014838
9730.0 0.0014709
9750.0 0.0014581
9770.0 0.0014455
9790.0 0.0014329
9810.0 0.0014204
9830.0 0.0014077
9850.0 0.0013932
9870.0 0.001381
9890.0 0.00137
9910.0 0.0013589
9930.0 0.0013456
9950.0 0.001334
9970.0 0.0013233
9990.0 0.0013123
10010.0 0.0013011
10030.0 0.0012901
10050.0 0.0012792
10070.0 0.0012685
10090.0 0.001258
10110.0 0.0012472
10130.0 0.0012364
10150.0 0.0012261
10170.0 0.0012159
10190.0 0.0012056
10210.0 0.0011956
10230.0 0.0011858
10250.0 0.0011759
10270.0 0.0011661
10290.0 0.0011567
10310.0 0.0011472
10330.0 0.0011377
10350.0 0.0011285
10370.0 0.0011195
10390.0 0.0011104
10410.0 0.0011014
10430.0 0.0010927
10450.0 0.0010841
10470.0 0.0010755
10490.0 0.0010672
10510.0 0.001059
10530.0 0.0010506
10550.0 0.0010424
10570.0 0.0010346
10590.0 0.0010267
10610.0 0.0010188
10630.0 0.0010112
10650.0 0.0010038
10670.0 0.00099614
10690.0 0.00098876
10710.0 0.0009816
10730.0 0.00097438
10750.0 0.00096709
10770.0 0.00096024
10790.0 0.00095342
10810.0 0.00094652
10830.0 0.00093981
10850.0 0.00093337
10870.0 0.00092673
10890.0 0.00092022
10910.0 0.00091405
10930.0 0.00090801
10950.0 0.00090202
10970.0 0.00089639
10990.0 0.00089119
11010.0 0.00089938
11030.0 0.00089538
11050.0 0.00089164
11070.0 0.00088791
11090.0 0.00088391
11110.0 0.00087991
11130.0 0.00087575
11150.0 0.00087121
11170.0 0.0008664
11190.0 0.00086161
11210.0 0.00085655
11230.0 0.00085124
11250.0 0.00084605
11270.0 0.00084096
11290.0 0.00083574
11310.0 0.00083065
11330.0 0.00082606
11350.0 0.00082158
11370.0 0.00081724
11390.0 0.00081333
11410.0 0.00080974
11430.0 0.00080613
11450.0 0.0008028
11470.0 0.00079975
11490.0 0.0007967
11510.0 0.00079355
11530.0 0.00079057
11550.0 0.00078758
11570.0 0.00078433
11590.0 0.00078101
11610.0 0.00077774
11630.0 0.00077419
11650.0 0.00077042
11670.0 0.00076682
11690.0 0.00076321
11710.0 0.00075941
11730.0 0.0007557
11750.0 0.00075227
11770.0 0.00074871
11790.0 0.00074516
11810.0 0.00074187
11830.0 0.00073869
11850.0 0.00073534
11870.0 0.00073225
11890.0 0.00072944
11910.0 0.00072662
11930.0 0.00072391
11950.0 0.0007216
11970.0 0.00071948
11990.0 0.00071749
12010.0 0.00071595
12030.0 0.00071488
12050.0 0.00071413
12070.0 0.00071382
12090.0 0.00071414
12110.0 0.0007149
12130.0 0.00071612
12150.0 0.00071785
12170.0 0.00072003
12190.0 0.00072261
12210.0 0.00072558
12230.0 0.00072883
12250.0 0.00073232
12270.0 0.00073605
12290.0 0.00073987
12310.0 0.00074371
12330.0 0.00074762
12350.0 0.00075147
12370.0 0.00075517
12390.0 0.00075871
12410.0 0.00076206
12430.0 0.00076505
12450.0 0.00076769
12470.0 0.00076992
12490.0 0.00077164
12510.0 0.00077289
12530.0 0.00077354
12550.0 0.0007735
12570.0 0.00077291
12590.0 0.00077173
12610.0 0.00076974
12630.0 0.00076709
12650.0 0.00076414
12670.0 0.00076051
12690.0 0.00075625
12710.0 0.00075178
12730.0 0.00074704
12750.0 0.00074159
12770.0 0.00073608
12790.0 0.00073066
12810.0 0.00072498
12830.0 0.00071909
12850.0 0.00071363
12870.0 0.00070832
12890.0 0.0007029
12910.0 0.0006978
12930.0 0.00069315
12950.0 0.0006885
12970.0 0.000684
12990.0 0.00068007
13010.0 0.00067636
13030.0 0.0006727
13050.0 0.00066934
13070.0 0.00066634
13090.0 0.0006633
13110.0 0.00066038
13130.0 0.00065773
13150.0 0.00065519
13170.0 0.00065255
13190.0 0.00065015
13210.0 0.00064795
13230.0 0.0006457
13250.0 0.00064348
13270.0 0.00064144
13290.0 0.00063937
13310.0 0.00063714
13330.0 0.00063496
13350.0 0.00063278
13370.0 0.00063038
13390.0 0.00062778
13410.0 0.00062525
13430.0 0.00062249
13450.0 0.00061946
13470.0 0.00061635
13490.0 0.00061319
13510.0 0.0006096
13530.0 0.0006059
13550.0 0.00060222
13570.0 0.00059835
13590.0 0.00059421
13610.0 0.00059011
13630.0 0.00058602
13650.0 0.00058163
13670.0 0.00057719
13690.0 0.00057285
13710.0 0.00056836
13730.0 0.00056357
13750.0 0.00055903
13770.0 0.00055448
13790.0 0.00054974
13810.0 0.00054501
13830.0 0.00054046
13850.0 0.00053574
13870.0 0.00053092
13890.0 0.00052626
13910.0 0.00052164
13930.0 0.00051683
13950.0 0.00051205
13970.0 0.00050752
13990.0 0.00050287
14010.0 0.00049815
14030.0 0.00049361
14050.0 0.00048913
14070.0 0.00048444
14090.0 0.0004799
14110.0 0.00047553
14130.0 0.00047111
14150.0 0.00046665
14170.0 0.00046244
14190.0 0.00045829
14210.0 0.00045407
14230.0 0.00044998
14250.0 0.00044606
14270.0 0.00044206
14290.0 0.00043806
14310.0 0.00043429
14330.0 0.00043055
14350.0 0.00042676
14370.0 0.00042309
14390.0 0.00041957
14410.0 0.00041598
14430.0 0.00041244
14450.0 0.00040905
14470.0 0.00040572
14490.0 0.00040234
14510.0 0.00039913
14530.0 0.00039604
14550.0 0.00039295
14570.0 0.00038991
14590.0 0.00038701
14610.0 0.00038412
14630.0 0.0003812
14650.0 0.00037839
14670.0 0.00037565
14690.0 0.00037287
14710.0 0.0003701
14730.0 0.00036748
14750.0 0.00036485
14770.0 0.00036222
14790.0 0.00035968
14810.0 0.00035722
14830.0 0.00035473
14850.0 0.00035232
14870.0 0.00035001
14890.0 0.00034774
14910.0 0.00034549
14930.0 0.00034333
14950.0 0.00034125
14970.0 0.00033918
14990.0 0.00033717
15010.0 0.00033524
15030.0 0.00033334
15050.0 0.00033143
15070.0 0.00032961
15090.0 0.0003278
15110.0 0.00032598
15130.0 0.00032417
15150.0 0.00032239
15170.0 0.00032058
15190.0 0.00031875
15210.0 0.00031695
15230.0 0.00031515
15250.0 0.00031331
15270.0 0.00031148
15290.0 0.00030968
15310.0 0.00030786
15330.0 0.00030602
15350.0 0.00030421
15370.0 0.0003024
15390.0 0.00030055
15410.0 0.00029872
15430.0 0.00029691
15450.0 0.00029508
15470.0 0.00029324
15490.0 0.00029143
15510.0 0.00028961
15530.0 0.00028778
15550.0 0.00028596
15570.0 0.00028416
15590.0 0.00028234
15610.0 0.00028051
15630.0 0.00027871
15650.0 0.00027691
15670.0 0.00027509
15690.0 0.00027329
15710.0 0.00027152
15730.0 0.00026972
15750.0 0.00026792
15770.0 0.00026615
15790.0 0.00026438
15810.0 0.00026258
15830.0 0.00026081
15850.0 0.00025906
15870.0 0.0002573
15890.0 0.00025554
15910.0 0.00025381
15930.0 0.00025207
15950.0 0.00025032
15970.0 0.00024859
15990.0 0.00024688
16010.0 0.00024515
16030.0 0.00024343
16050.0 0.00024174
16070.0 0.00024005
16090.0 0.00023835
16110.0 0.00023667
16130.0 0.00023502
16150.0 0.00023333
16170.0 0.00023166
16190.0 0.00023002
16210.0 0.00022838
16230.0 0.00022673
16250.0 0.00022511
16270.0 0.0002235
16290.0 0.00022188
16310.0 0.00022027
16330.0 0.00021869
16350.0 0.00021711
16370.0 0.0002155
16390.0 0.00021395
16410.0 0.00021239
16430.0 0.00021083
16450.0 0.00020929
16470.0 0.00020777
16490.0 0.00020624
16510.0 0.00020472
16530.0 0.00020322
16550.0 0.00020173
16570.0 0.00020023
16590.0 0.00019874
16610.0 0.00019729
16630.0 0.00019583
16650.0 0.00019437
16670.0 0.00019294
16690.0 0.00019152
16710.0 0.00019008
16730.0 0.00018867
16750.0 0.00018728
16770.0 0.00018588
16790.0 0.00018449
16810.0 0.00018313
16830.0 0.00018177
16850.0 0.00018041
16870.0 0.00017907
16890.0 0.00017775
16910.0 0.00017642
16930.0 0.00017509
16950.0 0.0001738
16970.0 0.00017251
16990.0 0.00017122
17010.0 0.00016995
17030.0 0.0001687
17050.0 0.00016744
17070.0 0.0001662
17090.0 0.00016497
17110.0 0.00016375
17130.0 0.00016253
17150.0 0.00016133
17170.0 0.00016015
17190.0 0.00015896
17210.0 0.00015779
17230.0 0.00015664
17250.0 0.00015549
17270.0 0.00015434
17290.0 0.00015321
17310.0 0.0001521
17330.0 0.00015099
17350.0 0.00014988
17370.0 0.0001488
17390.0 0.00014773
17410.0 0.00014665
17430.0 0.0001456
17450.0 0.00014456
17470.0 0.00014351
17490.0 0.00014247
17510.0 0.00014147
17530.0 0.00014046
17550.0 0.00013945
17570.0 0.00013847
17590.0 0.0001375
17610.0 0.00013653
17630.0 0.00013557
17650.0 0.00013463
17670.0 0.00013369
17690.0 0.00013275
17710.0 0.00013184
17730.0 0.00013094
17750.0 0.00013003
17770.0 0.00012914
17790.0 0.00012828
17810.0 0.00012741
17830.0 0.00012654
17850.0 0.0001257
17870.0 0.00012486
17890.0 0.00012403
17910.0 0.0001232
17930.0 0.00012241
17950.0 0.0001216
17970.0 0.00012081
17990.0 0.00012003
18010.0 0.00011927
18030.0 0.00011849
18050.0 0.00011774
18070.0 0.00011701
18090.0 0.00011627
18110.0 0.00011554
18130.0 0.00011483
18150.0 0.00011413
18170.0 0.00011343
18190.0 0.00011275
18210.0 0.00011208
18230.0 0.0001114
18250.0 0.00011073
18270.0 0.00011009
18290.0 0.00010945
18310.0 0.00010881
18330.0 0.00010819
18350.0 0.00010759
18370.0 0.00010698
18390.0 0.00010638
18410.0 0.0001058
18430.0 0.00010522
18450.0 0.00010464
18470.0 0.00010408
18490.0 0.00010353
18510.0 0.00010298
18530.0 0.00010245
18550.0 0.00010193
18570.0 0.00010141
18590.0 0.00010089
18610.0 0.00010039
18630.0 9.9898e-05
18650.0 9.9406e-05
18670.0 9.8921e-05
18690.0 9.8462e-05
18710.0 9.8e-05
18730.0 9.754e-05
18750.0 9.7097e-05
18770.0 9.6667e-05
18790.0 9.6224e-05
18810.0 9.5797e-05
18830.0 9.5389e-05
18850.0 9.498e-05
18870.0 9.4572e-05
18890.0 9.4185e-05
18910.0 9.3806e-05
18930.0 9.3419e-05
18950.0 9.3046e-05
18970.0 9.269e-05
18990.0 9.2331e-05
19010.0 9.1966e-05
19030.0 9.163e-05
19050.0 9.1299e-05
19070.0 9.0963e-05
19090.0 9.0639e-05
19110.0 9.0334e-05
19130.0 9.0018e-05
19150.0 8.9707e-05
19170.0 8.9414e-05
19190.0 8.9127e-05
19210.0 8.8832e-05
19230.0 8.8551e-05
19250.0 8.8289e-05
19270.0 8.8019e-05
19290.0 8.7753e-05
19310.0 8.7505e-05
19330.0 8.726e-05
19350.0 8.7002e-05
19370.0 8.6764e-05
19390.0 8.6538e-05
19410.0 8.6306e-05
19430.0 8.6077e-05
19450.0 8.5868e-05
19470.0 8.5659e-05
19490.0 8.5444e-05
19510.0 8.5243e-05
19530.0 8.5053e-05
19550.0 8.4852e-05
19570.0 8.4654e-05
19590.0 8.4479e-05
19610.0 8.4301e-05
19630.0 8.4118e-05
19650.0 8.3949e-05
19670.0 8.3792e-05
19690.0 8.3621e-05
19710.0 8.3457e-05
19730.0 8.3308e-05
19750.0 8.3157e-05
19770.0 8.2995e-05
19790.0 8.2854e-05
19810.0 8.272e-05
19830.0 8.2577e-05
19850.0 8.2439e-05
19870.0 8.2317e-05
19890.0 8.2186e-05
19910.0 8.2048e-05
19930.0 8.1927e-05
19950.0 8.1809e-05
19970.0 8.1679e-05
19990.0 8.1549e-05
20010.0 8.1433e-05
20030.0 8.1301e-05
20050.0 8.1154e-05
20070.0 8.1012e-05
20090.0 8.0866e-05
20110.0 8.0684e-05
20130.0 8.0507e-05
20150.0 8.0337e-05
20170.0 8.015e-05
20190.0 7.9952e-05
20210.0 7.9772e-05
20230.0 7.9594e-05
20250.0 7.94e-05
20270.0 7.9223e-05
20290.0 7.9065e-05
20310.0 7.8905e-05
20330.0 7.8744e-05
20350.0 7.8626e-05
20370.0 7.8518e-05
20390.0 7.8414e-05
20410.0 7.8337e-05
20430.0 7.829e-05
20450.0 7.8244e-05
20470.0 7.8222e-05
20490.0 7.8233e-05
20510.0 7.8265e-05
20530.0 7.8313e-05
20550.0 7.8395e-05
20570.0 7.851e-05
20590.0 7.8645e-05
20610.0 7.881e-05
20630.0 7.9009e-05
20650.0 7.9236e-05
20670.0 7.949e-05
20690.0 7.9775e-05
20710.0 8.0085e-05
20730.0 8.0419e-05
20750.0 8.0773e-05
20770.0 8.114e-05
20790.0 8.1517e-05
20810.0 8.1901e-05
20830.0 8.2281e-05
20850.0 8.2652e-05
20870.0 8.3011e-05
20890.0 8.3347e-05
20910.0 8.3657e-05
20930.0 8.3937e-05
20950.0 8.4177e-05
20970.0 8.4382e-05
20990.0 8.4548e-05
21010.0 8.4663e-05
21030.0 8.4736e-05
21050.0 8.4775e-05
21070.0 8.4768e-05
21090.0 8.471e-05
21110.0 8.4634e-05
21130.0 8.4534e-05
21150.0 8.4392e-05
21170.0 8.4231e-05
21190.0 8.4072e-05
21210.0 8.3881e-05
21230.0 8.367e-05
21250.0 8.3476e-05
21270.0 8.3282e-05
21290.0 8.307e-05
21310.0 8.2864e-05
21330.0 8.2683e-05
21350.0 8.2487e-05
21370.0 8.2286e-05
21390.0 8.2101e-05
21410.0 8.1918e-05
21430.0 8.1704e-05
21450.0 8.1501e-05
21470.0 8.1306e-05
21490.0 8.1088e-05
21510.0 8.0852e-05
21530.0 8.0627e-05
21550.0 8.0387e-05
21570.0 8.0114e-05
21590.0 7.9842e-05
21610.0 7.9572e-05
21630.0 7.9275e-05
21650.0 7.8953e-05
21670.0 7.8662e-05
21690.0 7.8356e-05
21710.0 7.803e-05
21730.0 7.7713e-05
21750.0 7.7413e-05
21770.0 7.7081e-05
21790.0 7.6754e-05
21810.0 7.6448e-05
21830.0 7.6139e-05
21850.0 7.5814e-05
21870.0 7.5506e-05
21890.0 7.5216e-05
21910.0 7.4905e-05
21930.0 7.4594e-05
21950.0 7.4299e-05
21970.0 7.3994e-05
21990.0 7.366e-05
22010.0 7.3344e-05
22030.0 7.3027e-05
22050.0 7.2684e-05
22070.0 7.233e-05
22090.0 7.1988e-05
22110.0 7.1621e-05
22130.0 7.1227e-05
22150.0 7.0838e-05
22170.0 7.0444e-05
22190.0 7.0013e-05
22210.0 6.9573e-05
22230.0 6.9153e-05
22250.0 6.8712e-05
22270.0 6.8251e-05
22290.0 6.7806e-05
22310.0 6.7365e-05
22330.0 6.6892e-05
22350.0 6.6431e-05
22370.0 6.599e-05
22390.0 6.554e-05
22410.0 6.5077e-05
22430.0 6.4649e-05
22450.0 6.4231e-05
22470.0 6.3804e-05
22490.0 6.3394e-05
22510.0 6.3013e-05
22530.0 6.2624e-05
22550.0 6.2241e-05
22570.0 6.1894e-05
22590.0 6.156e-05
22610.0 6.1226e-05
22630.0 6.0914e-05
22650.0 6.0631e-05
22670.0 6.0348e-05
22690.0 6.0074e-05
22710.0 5.9825e-05
22730.0 5.9587e-05
22750.0 5.9344e-05
22770.0 5.9123e-05
22790.0 5.8921e-05
22810.0 5.872e-05
22830.0 5.8528e-05
22850.0 5.8356e-05
22870.0 5.8193e-05
22890.0 5.8033e-05
22910.0 5.7893e-05
22930.0 5.7769e-05
22950.0 5.7655e-05
22970.0 5.7554e-05
22990.0 5.748e-05
23010.0 5.7421e-05
23030.0 5.7381e-05
23050.0 5.7365e-05
23070.0 5.7371e-05
23090.0 5.7401e-05
23110.0 5.7459e-05
23130.0 5.7542e-05
23150.0 5.7651e-05
23170.0 5.7793e-05
