#lamb flux
1010.0 1.3068e-05
1030.0 1.3618e-05
1050.0 1.4256e-05
1070.0 1.4975e-05
1090.0 1.5793e-05
1110.0 1.6636e-05
1130.0 1.7488e-05
1150.0 1.8384e-05
1170.0 1.9313e-05
1190.0 2.0201e-05
1210.0 2.1106e-05
1230.0 2.2047e-05
1250.0 2.2977e-05
1270.0 2.3888e-05
1290.0 2.4856e-05
1310.0 2.5832e-05
1330.0 2.6778e-05
1350.0 2.7743e-05
1370.0 2.8748e-05
1390.0 2.9739e-05
1410.0 3.0713e-05
1430.0 3.1737e-05
1450.0 3.2773e-05
1470.0 3.3787e-05
1490.0 3.4821e-05
1510.0 3.5917e-05
1530.0 3.6972e-05
1550.0 3.8022e-05
1570.0 3.9112e-05
1590.0 4.0209e-05
1610.0 4.1268e-05
1630.0 4.2359e-05
1650.0 4.3478e-05
1670.0 4.4565e-05
1690.0 4.5637e-05
1710.0 4.6742e-05
1730.0 4.7846e-05
1750.0 4.8883e-05
1770.0 4.9936e-05
1790.0 5.0995e-05
1810.0 5.2008e-05
1830.0 5.2986e-05
1850.0 5.4004e-05
1870.0 5.4974e-05
1890.0 5.5889e-05
1910.0 5.6799e-05
1930.0 5.7709e-05
1950.0 5.855e-05
1970.0 5.9355e-05
1990.0 6.0172e-05
2010.0 6.0951e-05
2030.0 6.1676e-05
2050.0 6.2412e-05
2070.0 6.3157e-05
2090.0 6.3837e-05
2110.0 6.4508e-05
2130.0 6.5205e-05
2150.0 6.5888e-05
2170.0 6.6541e-05
2190.0 6.7243e-05
2210.0 6.7972e-05
2230.0 6.8694e-05
2250.0 6.9447e-05
2270.0 7.0283e-05
2290.0 7.114e-05
2310.0 7.2017e-05
2330.0 7.2987e-05
2350.0 7.4036e-05
2370.0 7.5128e-05
2390.0 7.6315e-05
2410.0 7.7639e-05
2430.0 7.9034e-05
2450.0 8.0505e-05
2470.0 8.209e-05
2490.0 8.376e-05
2510.0 8.5465e-05
2530.0 8.7344e-05
2550.0 8.9634e-05
2570.0 9.2679e-05
2590.0 9.6967e-05
2610.0 0.00010359
2630.0 0.0001132
2650.0 0.00012579
2670.0 0.00014183
2690.0 0.00016131
2710.0 0.00018237
2730.0 0.00020396
2750.0 0.00022645
2770.0 0.00024835
2790.0 0.00026905
2810.0 0.00028952
2830.0 0.0003106
2850.0 0.00033123
2870.0 0.00035242
2890.0 0.000375
2910.0 0.00039858
2930.0 0.00042254
2950.0 0.00044807
2970.0 0.000475
2990.0 0.00050235
3010.0 0.00090281
3030.0 0.00095289
3050.0 0.0010033
3070.0 0.0010504
3090.0 0.0010931
3110.0 0.0011235
3130.0 0.0011317
3150.0 0.0011069
3170.0 0.0010274
3190.0 0.00088888
3210.0 0.00069212
3230.0 0.00046697
3250.0 0.00067815
3270.0 0.00034268
3290.0 0.00086008
3310.0 0.00023951
3330.0 0.00025221
3350.0 0.00034653
3370.0 0.00045215
3390.0 0.00056326
3410.0 0.00067384
3430.0 0.00078885
3450.0 0.00090332
3470.0 0.0010088
3490.0 0.0010787
3510.0 0.0013056
3530.0 0.0017406
3550.0 0.0017951
3570.0 0.0016313
3590.0 0.0022606
3610.0 0.0016277
3630.0 0.0023525
3650.0 0.0025809
3670.0 0.0032144
3690.0 0.0031611
3710.0 0.002488
3730.0 0.003208
3750.0 0.003341
3770.0 0.0034152
3790.0 0.0031083
3810.0 0.0026919
3830.0 0.003348
3850.0 0.0034072
3870.0 0.0041521
3890.0 0.0040166
3910.0 0.0038443
3930.0 0.0042677
3950.0 0.0047945
3970.0 0.0062138
3990.0 0.0053828
4010.0 0.0039865
4030.0 0.0048755
4050.0 0.0050231
4070.0 0.0055524
4090.0 0.0050846
4110.0 0.0037747
4130.0 0.0046525
4150.0 0.004277
4170.0 0.0045327
4190.0 0.0045349
4210.0 0.005395
4230.0 0.0040281
4250.0 0.0047413
4270.0 0.0047379
4290.0 0.0048113
4310.0 0.0056672
4330.0 0.0058284
4350.0 0.0047786
4370.0 0.0042957
4390.0 0.0048873
4410.0 0.0048167
4430.0 0.0038051
4450.0 0.0037914
4470.0 0.004262
4490.0 0.0033823
4510.0 0.0039896
4530.0 0.0043427
4550.0 0.0057146
4570.0 0.0081912
4590.0 0.0083316
4610.0 0.0062947
4630.0 0.0090832
4650.0 0.012281
4670.0 0.011536
4690.0 0.007562
4710.0 0.007829
4730.0 0.0093523
4750.0 0.0082829
4770.0 0.0064077
4790.0 0.0047193
4810.0 0.0064085
4830.0 0.0073159
4850.0 0.0068909
4870.0 0.00346
4890.0 0.007402
4910.0 0.0096817
4930.0 0.010396
4950.0 0.010592
4970.0 0.0076711
4990.0 0.008558
5010.0 0.0093057
5030.0 0.0094942
5050.0 0.009042
5070.0 0.0066767
5090.0 0.0055954
5110.0 0.0052735
5130.0 0.0047846
5150.0 0.005408
5170.0 0.0048228
5190.0 0.0057716
5210.0 0.0057764
5230.0 0.0062831
5250.0 0.0078783
5270.0 0.0070945
5290.0 0.0071151
5310.0 0.0097227
5330.0 0.011095
5350.0 0.0098138
5370.0 0.0088623
5390.0 0.0096352
5410.0 0.011445
5430.0 0.012419
5450.0 0.013439
5470.0 0.013982
5490.0 0.014163
5510.0 0.01631
5530.0 0.016861
5550.0 0.017715
5570.0 0.018423
5590.0 0.018198
5610.0 0.017421
5630.0 0.016929
5650.0 0.01716
5670.0 0.016987
5690.0 0.01482
5710.0 0.014003
5730.0 0.013768
5750.0 0.014591
5770.0 0.012894
5790.0 0.012048
5810.0 0.012306
5830.0 0.012842
5850.0 0.011892
5870.0 0.011799
5890.0 0.013446
5910.0 0.012896
5930.0 0.011011
5950.0 0.0098135
5970.0 0.010185
5990.0 0.0093128
6010.0 0.0086442
6030.0 0.0086775
6050.0 0.0082068
6070.0 0.0065578
6090.0 0.0060304
6110.0 0.0073367
6130.0 0.008238
6150.0 0.0086948
6170.0 0.0087123
6190.0 0.0085078
6210.0 0.0084423
6230.0 0.0093973
6250.0 0.0086806
6270.0 0.007888
6290.0 0.0071441
6310.0 0.0066704
6330.0 0.006322
6350.0 0.005651
6370.0 0.0056745
6390.0 0.0066546
6410.0 0.008167
6430.0 0.0094266
6450.0 0.0092269
6470.0 0.0092872
6490.0 0.011155
6510.0 0.012441
6530.0 0.011905
6550.0 0.011591
6570.0 0.011756
6590.0 0.011419
6610.0 0.01222
6630.0 0.011627
6650.0 0.010551
6670.0 0.0096006
6690.0 0.0091447
6710.0 0.010598
6730.0 0.0098343
6750.0 0.0087908
6770.0 0.0081883
6790.0 0.0085439
6810.0 0.0092221
6830.0 0.008997
6850.0 0.0083104
6870.0 0.0084434
6890.0 0.0082213
6910.0 0.0077823
6930.0 0.0087159
6950.0 0.0082468
6970.0 0.0079382
6990.0 0.0080148
7010.0 0.0077078
7030.0 0.0072357
7050.0 0.0068494
7070.0 0.0070694
7090.0 0.0066133
7110.0 0.0058399
7130.0 0.004896
7150.0 0.0044892
7170.0 0.0056263
7190.0 0.0060643
7210.0 0.0059879
7230.0 0.0063176
7250.0 0.006072
7270.0 0.005887
7290.0 0.0063299
7310.0 0.0068043
7330.0 0.0066142
7350.0 0.0062544
7370.0 0.006071
7390.0 0.0063952
7410.0 0.0073738
7430.0 0.008076
7450.0 0.0087151
7470.0 0.0087542
7490.0 0.0089388
7510.0 0.0085511
7530.0 0.0084717
7550.0 0.0081723
7570.0 0.007169
7590.0 0.0070325
7610.0 0.0068874
7630.0 0.0066197
7650.0 0.0073406
7670.0 0.0080498
7690.0 0.0087606
7710.0 0.009676
7730.0 0.010317
7750.0 0.010798
7770.0 0.010814
7790.0 0.011665
7810.0 0.01205
7830.0 0.011378
7850.0 0.011458
7870.0 0.010941
7890.0 0.011258
7910.0 0.010674
7930.0 0.010692
7950.0 0.0097179
7970.0 0.0099526
7990.0 0.0096175
8010.0 0.0095075
8030.0 0.0094911
8050.0 0.009903
8070.0 0.0096123
8090.0 0.0096392
8110.0 0.0093686
8130.0 0.0093595
8150.0 0.0090068
8170.0 0.0087603
8190.0 0.0086536
8210.0 0.0087233
8230.0 0.0078728
8250.0 0.0072445
8270.0 0.0063441
8290.0 0.0052308
8310.0 0.0043698
8330.0 0.0034638
8350.0 0.0029499
8370.0 0.0031071
8390.0 0.0032804
8410.0 0.0035296
8430.0 0.0042097
8450.0 0.0044875
8470.0 0.0047253
8490.0 0.0053634
8510.0 0.0058718
8530.0 0.0067869
8550.0 0.0080253
8570.0 0.0090122
8590.0 0.0097523
8610.0 0.010615
8630.0 0.011541
8650.0 0.011715
8670.0 0.011816
8690.0 0.012253
8710.0 0.012202
8730.0 0.012181
8750.0 0.011651
8770.0 0.011665
8790.0 0.011504
8810.0 0.010653
8830.0 0.010582
8850.0 0.0099784
8870.0 0.0095955
8890.0 0.0088915
8910.0 0.0094023
8930.0 0.0086825
8950.0 0.0084951
8970.0 0.0084756
8990.0 0.0082152
9010.0 0.0082881
9030.0 0.0079901
9050.0 0.0079456
9070.0 0.0079321
9090.0 0.0079175
9110.0 0.007905
9130.0 0.0078881
9150.0 0.0078691
9170.0 0.0078335
9190.0 0.0077717
9210.0 0.0078459
9230.0 0.0078042
9250.0 0.0077729
9270.0 0.0077432
9290.0 0.0077143
9310.0 0.0076862
9330.0 0.0076581
9350.0 0.0076295
9370.0 0.0076006
9390.0 0.0075711
9410.0 0.0075408
9430.0 0.0075098
9450.0 0.0074776
9470.0 0.0074451
9490.0 0.0074133
9510.0 0.0073808
9530.0 0.0073478
9550.0 0.0073142
9570.0 0.0072801
9590.0 0.0072458
9610.0 0.0072112
9630.0 0.0071762
9650.0 0.0071411
9670.0 0.0071059
9690.0 0.0070705
9710.0 0.007035
9730.0 0.0069994
9750.0 0.0069639
9770.0 0.0069282
9790.0 0.0068926
9810.0 0.006857
9830.0 0.0068215
9850.0 0.0067862
9870.0 0.0067509
9890.0 0.0067158
9910.0 0.0066808
9930.0 0.0066457
9950.0 0.0065867
9970.0 0.0065596
9990.0 0.0065314
10010.0 0.0065027
10030.0 0.0064723
10050.0 0.0064394
10070.0 0.0064018
10090.0 0.0063724
10110.0 0.0063416
10130.0 0.0063111
10150.0 0.0062809
10170.0 0.0062501
10190.0 0.0062183
10210.0 0.0061883
10230.0 0.0061589
10250.0 0.0061288
10270.0 0.0060993
10290.0 0.0060713
10310.0 0.0060426
10330.0 0.0060135
10350.0 0.0059862
10370.0 0.0059594
10390.0 0.005932
10410.0 0.0059053
10430.0 0.0058802
10450.0 0.0058546
10470.0 0.0058288
10490.0 0.0058045
10510.0 0.0057807
10530.0 0.0057557
10550.0 0.0057319
10570.0 0.0057095
10590.0 0.0056866
10610.0 0.0056637
10630.0 0.0056424
10650.0 0.0056213
10670.0 0.0055994
10690.0 0.0055785
10710.0 0.0055587
10730.0 0.0055384
10750.0 0.0055177
10770.0 0.005499
10790.0 0.0054804
10810.0 0.0054612
10830.0 0.0054427
10850.0 0.0054252
10870.0 0.0054057
10890.0 0.0053851
10910.0 0.0053635
10930.0 0.0053379
10950.0 0.0053048
10970.0 0.0052643
10990.0 0.005216
11010.0 0.0050402
11030.0 0.0049722
11050.0 0.0048954
11070.0 0.0048085
11090.0 0.0047088
11110.0 0.0046101
11130.0 0.0045111
11150.0 0.0044083
11170.0 0.0043065
11190.0 0.0042116
11210.0 0.0041168
11230.0 0.0040225
11250.0 0.0039351
11270.0 0.003853
11290.0 0.0037717
11310.0 0.0036952
11330.0 0.0036282
11350.0 0.0035639
11370.0 0.0035028
11390.0 0.0034481
11410.0 0.0033981
11430.0 0.0033478
11450.0 0.0033011
11470.0 0.0032576
11490.0 0.0032134
11510.0 0.0031672
11530.0 0.0031224
11550.0 0.0030764
11570.0 0.0030257
11590.0 0.0029729
11610.0 0.0029194
11630.0 0.0028606
11650.0 0.0027969
11670.0 0.0027344
11690.0 0.00267
11710.0 0.0026018
11730.0 0.002534
11750.0 0.0024696
11770.0 0.0024034
11790.0 0.002338
11810.0 0.0022776
11830.0 0.0022201
11850.0 0.0021623
11870.0 0.0021102
11890.0 0.0020636
11910.0 0.0020185
11930.0 0.001976
11950.0 0.0019386
11970.0 0.0019034
11990.0 0.0018686
12010.0 0.0018371
12030.0 0.0018083
12050.0 0.0017798
12070.0 0.001752
12090.0 0.0017277
12110.0 0.0017043
12130.0 0.0016813
12150.0 0.0016608
12170.0 0.001643
12190.0 0.001626
12210.0 0.001612
12230.0 0.0016022
12250.0 0.0015959
12270.0 0.0015937
12290.0 0.0015966
12310.0 0.0016047
12330.0 0.0016181
12350.0 0.0016372
12370.0 0.0016613
12390.0 0.0016905
12410.0 0.0017258
12430.0 0.0017637
12450.0 0.0018043
12470.0 0.0018482
12490.0 0.0018933
12510.0 0.0019372
12530.0 0.0019817
12550.0 0.0020255
12570.0 0.0020663
12590.0 0.0021043
12610.0 0.0021404
12630.0 0.0021729
12650.0 0.0022009
12670.0 0.002226
12690.0 0.0022477
12710.0 0.0022657
12730.0 0.0022803
12750.0 0.0022918
12770.0 0.0023
12790.0 0.0023054
12810.0 0.0023079
12830.0 0.0023072
12850.0 0.0023045
12870.0 0.0022995
12890.0 0.0022914
12910.0 0.0022812
12930.0 0.0022696
12950.0 0.0022549
12970.0 0.0022373
12990.0 0.0022191
13010.0 0.0021988
13030.0 0.0021756
13050.0 0.002151
13070.0 0.0021261
13090.0 0.0020983
13110.0 0.0020691
13130.0 0.0020404
13150.0 0.0020115
13170.0 0.0019809
13190.0 0.0019527
13210.0 0.0019271
13230.0 0.0019027
13250.0 0.0018811
13270.0 0.001864
13290.0 0.0018502
13310.0 0.0018399
13330.0 0.0018342
13350.0 0.0018324
13370.0 0.0018337
13390.0 0.0018378
13410.0 0.0018438
13430.0 0.0018506
13450.0 0.0018572
13470.0 0.0018626
13490.0 0.001866
13510.0 0.0018663
13530.0 0.001863
13550.0 0.0018562
13570.0 0.0018454
13590.0 0.0018303
13610.0 0.0018124
13630.0 0.0017922
13650.0 0.0017689
13670.0 0.0017442
13690.0 0.0017195
13710.0 0.0016943
13730.0 0.0016681
13750.0 0.0016443
13770.0 0.0016218
13790.0 0.0015998
13810.0 0.0015793
13830.0 0.0015609
13850.0 0.0015431
13870.0 0.0015261
13890.0 0.0015105
13910.0 0.0014958
13930.0 0.0014811
13950.0 0.001467
13970.0 0.0014541
13990.0 0.0014412
14010.0 0.0014286
14030.0 0.0014169
14050.0 0.0014058
14070.0 0.001395
14090.0 0.0013852
14110.0 0.0013765
14130.0 0.0013686
14150.0 0.0013616
14170.0 0.0013559
14190.0 0.0013511
14210.0 0.0013474
14230.0 0.0013447
14250.0 0.001343
14270.0 0.0013425
14290.0 0.001343
14310.0 0.0013444
14330.0 0.0013467
14350.0 0.00135
14370.0 0.0013538
14390.0 0.0013579
14410.0 0.0013626
14430.0 0.0013674
14450.0 0.0013719
14470.0 0.0013761
14490.0 0.0013801
14510.0 0.0013833
14530.0 0.0013856
14550.0 0.0013876
14570.0 0.0013891
14590.0 0.00139
14610.0 0.0013909
14630.0 0.0013921
14650.0 0.0013937
14670.0 0.001396
14690.0 0.0013997
14710.0 0.001405
14730.0 0.0014114
14750.0 0.00142
14770.0 0.0014311
14790.0 0.0014441
14810.0 0.0014587
14830.0 0.0014769
14850.0 0.0014968
14870.0 0.0015174
14890.0 0.0015396
14910.0 0.001563
14930.0 0.0015847
14950.0 0.0016041
14970.0 0.0016217
14990.0 0.0016351
15010.0 0.0016434
15030.0 0.0016475
15050.0 0.0016477
15070.0 0.0016439
15090.0 0.0016377
15110.0 0.0016298
15130.0 0.0016208
15150.0 0.0016114
15170.0 0.0016015
15190.0 0.0015915
15210.0 0.0015815
15230.0 0.0015715
15250.0 0.0015614
15270.0 0.0015513
15290.0 0.0015413
15310.0 0.0015313
15330.0 0.0015212
15350.0 0.0015112
15370.0 0.0015013
15390.0 0.0014912
15410.0 0.0014812
15430.0 0.0014714
15450.0 0.0014614
15470.0 0.0014515
15490.0 0.0014417
15510.0 0.0014319
15530.0 0.001422
15550.0 0.0014123
15570.0 0.0014026
15590.0 0.0013929
15610.0 0.0013832
15630.0 0.0013736
15650.0 0.001364
15670.0 0.0013545
15690.0 0.001345
15710.0 0.0013356
15730.0 0.0013262
15750.0 0.0013168
15770.0 0.0013076
15790.0 0.0012983
15810.0 0.0012891
15830.0 0.0012799
15850.0 0.0012709
15870.0 0.0012619
15890.0 0.0012529
15910.0 0.001244
15930.0 0.0012352
15950.0 0.0012263
15970.0 0.0012176
15990.0 0.001209
16010.0 0.0012003
16030.0 0.0011917
16050.0 0.0011833
16070.0 0.0011749
16090.0 0.0011665
16110.0 0.0011582
16130.0 0.00115
16150.0 0.0011418
16170.0 0.0011336
16190.0 0.0011256
16210.0 0.0011176
16230.0 0.0011097
16250.0 0.0011019
16270.0 0.0010941
16290.0 0.0010864
16310.0 0.0010787
16330.0 0.0010712
16350.0 0.0010637
16370.0 0.0010562
16390.0 0.0010488
16410.0 0.0010416
16430.0 0.0010343
16450.0 0.0010271
16470.0 0.0010201
16490.0 0.001013
16510.0 0.001006
16530.0 0.00099911
16550.0 0.00099229
16570.0 0.00098548
16590.0 0.00097875
16610.0 0.00097217
16630.0 0.00096559
16650.0 0.00095906
16670.0 0.00095265
16690.0 0.0009463
16710.0 0.00093993
16730.0 0.00093368
16750.0 0.00092754
16770.0 0.00092141
16790.0 0.00091532
16810.0 0.00090937
16830.0 0.00090347
16850.0 0.00089758
16870.0 0.00089178
16890.0 0.00088608
16910.0 0.00088038
16930.0 0.00087472
16950.0 0.00086921
16970.0 0.00086373
16990.0 0.00085827
17010.0 0.0008529
17030.0 0.00084764
17050.0 0.00084236
17070.0 0.00083715
17090.0 0.00083204
17110.0 0.00082697
17130.0 0.0008219
17150.0 0.00081694
17170.0 0.00081208
17190.0 0.00080721
17210.0 0.0008024
17230.0 0.0007977
17250.0 0.00079302
17270.0 0.00078834
17290.0 0.00078377
17310.0 0.00077927
17330.0 0.00077478
17350.0 0.00077033
17370.0 0.000766
17390.0 0.00076169
17410.0 0.0007574
17430.0 0.0007532
17450.0 0.00074907
17470.0 0.0007449
17490.0 0.00074082
17510.0 0.00073683
17530.0 0.00073286
17550.0 0.0007289
17570.0 0.00072504
17590.0 0.00072124
17610.0 0.00071743
17630.0 0.00071368
17650.0 0.00071001
17670.0 0.00070636
17690.0 0.00070269
17710.0 0.00069915
17730.0 0.00069565
17750.0 0.00069215
17770.0 0.00068871
17790.0 0.00068536
17810.0 0.00068199
17830.0 0.00067864
17850.0 0.00067539
17870.0 0.00067217
17890.0 0.00066894
17910.0 0.00066576
17930.0 0.00066269
17950.0 0.0006596
17970.0 0.00065654
17990.0 0.00065356
18010.0 0.00065061
18030.0 0.00064762
18050.0 0.00064473
18070.0 0.00064189
18090.0 0.00063905
18110.0 0.00063622
18130.0 0.0006335
18150.0 0.00063079
18170.0 0.00062806
18190.0 0.00062541
18210.0 0.00062281
18230.0 0.00062019
18250.0 0.00061758
18270.0 0.00061508
18290.0 0.00061258
18310.0 0.00061008
18330.0 0.00060764
18350.0 0.00060527
18370.0 0.00060285
18390.0 0.00060048
18410.0 0.00059817
18430.0 0.00059588
18450.0 0.00059356
18470.0 0.00059132
18490.0 0.00058913
18510.0 0.00058692
18530.0 0.00058474
18550.0 0.00058263
18570.0 0.00058051
18590.0 0.00057838
18610.0 0.00057632
18630.0 0.0005743
18650.0 0.00057226
18670.0 0.00057023
18690.0 0.0005683
18710.0 0.00056635
18730.0 0.0005644
18750.0 0.00056251
18770.0 0.00056066
18790.0 0.00055875
18810.0 0.00055689
18830.0 0.0005551
18850.0 0.0005533
18870.0 0.00055149
18890.0 0.00054976
18910.0 0.00054804
18930.0 0.00054629
18950.0 0.00054459
18970.0 0.00054293
18990.0 0.00054126
19010.0 0.00053956
19030.0 0.00053797
19050.0 0.00053637
19070.0 0.00053476
19090.0 0.00053318
19110.0 0.00053167
19130.0 0.0005301
19150.0 0.00052855
19170.0 0.00052706
19190.0 0.00052558
19210.0 0.00052406
19230.0 0.00052259
19250.0 0.00052118
19270.0 0.00051974
19290.0 0.0005183
19310.0 0.00051692
19330.0 0.00051555
19350.0 0.00051412
19370.0 0.00051276
19390.0 0.00051144
19410.0 0.00051008
19430.0 0.00050873
19450.0 0.00050746
19470.0 0.00050617
19490.0 0.00050485
19510.0 0.00050358
19530.0 0.00050235
19550.0 0.00050107
19570.0 0.00049979
19590.0 0.00049859
19610.0 0.00049738
19630.0 0.00049615
19650.0 0.00049496
19670.0 0.00049381
19690.0 0.0004926
19710.0 0.00049142
19730.0 0.00049028
19750.0 0.00048914
19770.0 0.00048795
19790.0 0.00048683
19810.0 0.00048573
19830.0 0.00048459
19850.0 0.00048344
19870.0 0.00048231
19890.0 0.00048107
19910.0 0.00047963
19930.0 0.000478
19950.0 0.000476
19970.0 0.00047337
19990.0 0.00047002
20010.0 0.00046605
20030.0 0.00046112
20050.0 0.00045523
20070.0 0.00044879
20090.0 0.00044184
20110.0 0.00043396
20130.0 0.00042601
20150.0 0.00041816
20170.0 0.00041004
20190.0 0.00040181
20210.0 0.00039406
20230.0 0.0003865
20250.0 0.00037891
20270.0 0.00037186
20290.0 0.00036542
20310.0 0.00035929
20330.0 0.00035356
20350.0 0.00034884
20370.0 0.0003447
20390.0 0.00034113
20410.0 0.00033837
20430.0 0.00033639
20450.0 0.00033505
20470.0 0.00033447
20490.0 0.00033461
20510.0 0.00033541
20530.0 0.00033688
20550.0 0.0003389
20570.0 0.00034134
20590.0 0.00034431
20610.0 0.00034765
20630.0 0.00035115
20650.0 0.00035488
20670.0 0.0003589
20690.0 0.00036277
20710.0 0.00036652
20730.0 0.00037024
20750.0 0.00037375
20770.0 0.00037684
20790.0 0.00037967
20810.0 0.00038218
20830.0 0.00038421
20850.0 0.0003858
20870.0 0.000387
20890.0 0.00038773
20910.0 0.000388
20930.0 0.00038788
20950.0 0.00038734
20970.0 0.00038646
20990.0 0.00038528
21010.0 0.00038372
21030.0 0.00038191
21050.0 0.00037994
21070.0 0.00037774
21090.0 0.00037529
21110.0 0.00037285
21130.0 0.00037036
21150.0 0.00036773
21170.0 0.00036513
21190.0 0.00036267
21210.0 0.00036018
21230.0 0.00035777
21250.0 0.00035562
21270.0 0.00035367
21290.0 0.00035188
21310.0 0.00035037
21330.0 0.00034921
21350.0 0.0003483
21370.0 0.00034771
21390.0 0.00034746
21410.0 0.00034754
21430.0 0.00034797
21450.0 0.00034873
21470.0 0.00034977
21490.0 0.00035113
21510.0 0.0003528
21530.0 0.00035464
21550.0 0.00035672
21570.0 0.00035908
21590.0 0.00036158
21610.0 0.00036417
21630.0 0.00036697
21650.0 0.00036997
21670.0 0.00037288
21690.0 0.00037591
21710.0 0.0003791
21730.0 0.00038229
21750.0 0.00038544
21770.0 0.00038882
21790.0 0.00039222
21810.0 0.00039555
21830.0 0.00039895
21850.0 0.00040249
21870.0 0.00040596
21890.0 0.00040934
21910.0 0.00041286
21930.0 0.00041637
21950.0 0.00041973
21970.0 0.0004231
21990.0 0.00042654
22010.0 0.00042971
22030.0 0.00043272
22050.0 0.00043565
22070.0 0.00043837
22090.0 0.00044073
22110.0 0.00044288
22130.0 0.00044475
22150.0 0.0004462
22170.0 0.00044727
22190.0 0.00044793
22210.0 0.00044811
22230.0 0.00044783
22250.0 0.00044705
22270.0 0.00044574
22290.0 0.00044397
22310.0 0.00044174
22330.0 0.00043888
22350.0 0.00043558
22370.0 0.00043194
22390.0 0.00042778
22410.0 0.00042307
22430.0 0.00041825
22450.0 0.00041315
22470.0 0.0004076
22490.0 0.0004019
22510.0 0.00039624
22530.0 0.00039023
22550.0 0.00038404
22570.0 0.00037811
22590.0 0.00037223
22610.0 0.00036622
22630.0 0.00036043
22650.0 0.00035503
22670.0 0.00034961
22690.0 0.00034436
22710.0 0.00033952
22730.0 0.00033494
22750.0 0.00033035
22770.0 0.00032621
22790.0 0.00032245
22810.0 0.00031881
22830.0 0.0003154
22850.0 0.00031236
22870.0 0.0003095
22890.0 0.00030676
22910.0 0.00030429
22930.0 0.00030207
22950.0 0.00029996
22970.0 0.00029799
22990.0 0.00029632
23010.0 0.00029477
23030.0 0.00029334
23050.0 0.00029211
23070.0 0.00029106
23090.0 0.00029009
23110.0 0.00028928
23130.0 0.00028863
23150.0 0.00028809
23170.0 0.00028765
23190.0 0.00028733
23210.0 0.00028711
23230.0 0.00028696
23250.0 0.00028689
23270.0 0.0002869
23290.0 0.00028697
23310.0 0.00028713
23330.0 0.00028735
23350.0 0.00028764
23370.0 0.00028801
23390.0 0.00028844
23410.0 0.00028892
