#lamb flux
1010.0 3.9058e-05
1030.0 3.922e-05
1050.0 3.9398e-05
1070.0 4.0321e-05
1090.0 4.286e-05
1110.0 4.4834e-05
1130.0 4.6242e-05
1150.0 4.737e-05
1170.0 4.8194e-05
1190.0 4.8436e-05
1210.0 4.849e-05
1230.0 4.8474e-05
1250.0 4.8269e-05
1270.0 4.7899e-05
1290.0 4.7659e-05
1310.0 4.7401e-05
1330.0 4.7066e-05
1350.0 4.6834e-05
1370.0 4.678e-05
1390.0 4.6805e-05
1410.0 4.6951e-05
1430.0 4.7408e-05
1450.0 4.8123e-05
1470.0 4.9077e-05
1490.0 5.0404e-05
1510.0 5.2238e-05
1530.0 5.4428e-05
1550.0 5.711e-05
1570.0 6.0441e-05
1590.0 6.4434e-05
1610.0 6.9084e-05
1630.0 7.4661e-05
1650.0 8.1236e-05
1670.0 8.8784e-05
1690.0 9.7458e-05
1710.0 0.00010752
1730.0 0.00011904
1750.0 0.00013192
1770.0 0.00014656
1790.0 0.00016309
1810.0 0.00018142
1830.0 0.00020168
1850.0 0.0002243
1870.0 0.00024895
1890.0 0.00027553
1910.0 0.0003043
1930.0 0.00033522
1950.0 0.00036767
1970.0 0.00040163
1990.0 0.00043724
2010.0 0.00047377
2030.0 0.00051065
2050.0 0.00054809
2070.0 0.00058567
2090.0 0.00062211
2110.0 0.00065749
2130.0 0.0006918
2150.0 0.00072412
2170.0 0.00075378
2190.0 0.00078146
2210.0 0.00080658
2230.0 0.0008284
2250.0 0.00084725
2270.0 0.00086375
2290.0 0.00087695
2310.0 0.00088683
2330.0 0.00089446
2350.0 0.00089975
2370.0 0.00090234
2390.0 0.00090319
2410.0 0.00090314
2430.0 0.00090165
2450.0 0.00089928
2470.0 0.00089722
2490.0 0.00089597
2510.0 0.00089514
2530.0 0.00089731
2550.0 0.00090569
2570.0 0.00092277
2590.0 0.00095205
2610.0 0.0010036
2630.0 0.0010792
2650.0 0.0011745
2670.0 0.0012927
2690.0 0.0014322
2710.0 0.0015772
2730.0 0.0017217
2750.0 0.0018734
2770.0 0.0020226
2790.0 0.0021655
2810.0 0.0023117
2830.0 0.0024697
2850.0 0.0026237
2870.0 0.002782
2890.0 0.0029525
2910.0 0.0031294
2930.0 0.0033057
2950.0 0.0034953
2970.0 0.0036963
2990.0 0.0038994
3010.0 0.0041091
3030.0 0.0043336
3050.0 0.0045652
3070.0 0.0047909
3090.0 0.0050212
3110.0 0.0052448
3130.0 0.0054449
3150.0 0.0056162
3170.0 0.0057527
3190.0 0.0058481
3210.0 0.0059165
3230.0 0.0059735
3250.0 0.0060404
3270.0 0.0061423
3290.0 0.0062928
3310.0 0.0065043
3330.0 0.0067708
3350.0 0.0070751
3370.0 0.0074117
3390.0 0.0077577
3410.0 0.0081098
3430.0 0.008822
3450.0 0.0093489
3470.0 0.0098144
3490.0 0.0099645
3510.0 0.009834
3530.0 0.011143
3550.0 0.013256
3570.0 0.014574
3590.0 0.015574
3610.0 0.015705
3630.0 0.014897
3650.0 0.016011
3670.0 0.019151
3690.0 0.02152
3710.0 0.02247
3730.0 0.023002
3750.0 0.024199
3770.0 0.024254
3790.0 0.023246
3810.0 0.021879
3830.0 0.020408
3850.0 0.020351
3870.0 0.021594
3890.0 0.022813
3910.0 0.023757
3930.0 0.024043
3950.0 0.025656
3970.0 0.027409
3990.0 0.026406
4010.0 0.023587
4030.0 0.020948
4050.0 0.020165
4070.0 0.020993
4090.0 0.021163
4110.0 0.020568
4130.0 0.020309
4150.0 0.020847
4170.0 0.023013
4190.0 0.024921
4210.0 0.02414
4230.0 0.022533
4250.0 0.021667
4270.0 0.021175
4290.0 0.021551
4310.0 0.022196
4330.0 0.021138
4350.0 0.018595
4370.0 0.016461
4390.0 0.014996
4410.0 0.013843
4430.0 0.013848
4450.0 0.015064
4470.0 0.016288
4490.0 0.017726
4510.0 0.020053
4530.0 0.024532
4550.0 0.02961
4570.0 0.032658
4590.0 0.034924
4610.0 0.037552
4630.0 0.038823
4650.0 0.036165
4670.0 0.03034
4690.0 0.025788
4710.0 0.024225
4730.0 0.023417
4750.0 0.020984
4770.0 0.01904
4790.0 0.019774
4810.0 0.021489
4830.0 0.021397
4850.0 0.019725
4870.0 0.01932
4890.0 0.020156
4910.0 0.021087
4930.0 0.021063
4950.0 0.020479
4970.0 0.019507
4990.0 0.01793
5010.0 0.016468
5030.0 0.015637
5050.0 0.015253
5070.0 0.014994
5090.0 0.014754
5110.0 0.014732
5130.0 0.014959
5150.0 0.015799
5170.0 0.017447
5190.0 0.019448
5210.0 0.021534
5230.0 0.022785
5250.0 0.02342
5270.0 0.02459
5290.0 0.025725
5310.0 0.025971
5330.0 0.024969
5350.0 0.023813
5370.0 0.023784
5390.0 0.025034
5410.0 0.026237
5430.0 0.02663
5450.0 0.02644
5470.0 0.025636
5490.0 0.024657
5510.0 0.024146
5530.0 0.024216
5550.0 0.024544
5570.0 0.024749
5590.0 0.023982
5610.0 0.022582
5630.0 0.021212
5650.0 0.020132
5670.0 0.019462
5690.0 0.018649
5710.0 0.018022
5730.0 0.01826
5750.0 0.018194
5770.0 0.017788
5790.0 0.017919
5810.0 0.018306
5830.0 0.018666
5850.0 0.018777
5870.0 0.018361
5890.0 0.01755
5910.0 0.016628
5930.0 0.015333
5950.0 0.014403
5970.0 0.01436
5990.0 0.01479
6010.0 0.014943
6030.0 0.014415
6050.0 0.014198
6070.0 0.014746
6090.0 0.015476
6110.0 0.015748
6130.0 0.01521
6150.0 0.014324
6170.0 0.013741
6190.0 0.013164
6210.0 0.012547
6230.0 0.012079
6250.0 0.011935
6270.0 0.012243
6290.0 0.012798
6310.0 0.01351
6330.0 0.014292
6350.0 0.014941
6370.0 0.015232
6390.0 0.015262
6410.0 0.015422
6430.0 0.015611
6450.0 0.015663
6470.0 0.015864
6490.0 0.016107
6510.0 0.016174
6530.0 0.016001
6550.0 0.015548
6570.0 0.014977
6590.0 0.01454
6610.0 0.014217
6630.0 0.013934
6650.0 0.013455
6670.0 0.012886
6690.0 0.012461
6710.0 0.012197
6730.0 0.012116
6750.0 0.011968
6770.0 0.011728
6790.0 0.011545
6810.0 0.0114
6830.0 0.01137
6850.0 0.011379
6870.0 0.011291
6890.0 0.01122
6910.0 0.010985
6930.0 0.010729
6950.0 0.010669
6970.0 0.010489
6990.0 0.010162
7010.0 0.010006
7030.0 0.0098809
7050.0 0.0096586
7070.0 0.0093949
7090.0 0.0092076
7110.0 0.0093042
7130.0 0.0096664
7150.0 0.01008
7170.0 0.010347
7190.0 0.010269
7210.0 0.01007
7230.0 0.0099393
7250.0 0.0098076
7270.0 0.0097227
7290.0 0.0095972
7310.0 0.0095356
7330.0 0.009701
7350.0 0.009891
7370.0 0.009992
7390.0 0.0098941
7410.0 0.0096522
7430.0 0.009535
7450.0 0.0094277
7470.0 0.0089689
7490.0 0.0086347
7510.0 0.0082748
7530.0 0.0080135
7550.0 0.0079839
7570.0 0.0080825
7590.0 0.0080392
7610.0 0.0079639
7630.0 0.0079343
7650.0 0.007906
7670.0 0.008061
7690.0 0.0083585
7710.0 0.0087105
7730.0 0.0089797
7750.0 0.009243
7770.0 0.0093765
7790.0 0.0093579
7810.0 0.0092207
7830.0 0.0093236
7850.0 0.0093148
7870.0 0.0090173
7890.0 0.0086973
7910.0 0.0084253
7930.0 0.0081489
7950.0 0.0079568
7970.0 0.0079306
7990.0 0.0080332
8010.0 0.0079489
8030.0 0.0078607
8050.0 0.0077299
8070.0 0.0075854
8090.0 0.0074345
8110.0 0.0074473
8130.0 0.0075082
8150.0 0.0074988
8170.0 0.0074474
8190.0 0.0072961
8210.0 0.0069299
8230.0 0.0064647
8250.0 0.006179
8270.0 0.0059982
8290.0 0.0058855
8310.0 0.005905
8330.0 0.0060016
8350.0 0.0058746
8370.0 0.0057405
8390.0 0.005847
8410.0 0.0061162
8430.0 0.0065098
8450.0 0.006892
8470.0 0.0070487
8490.0 0.007172
8510.0 0.0072078
8530.0 0.0072505
8550.0 0.0073384
8570.0 0.0073796
8590.0 0.0074188
8610.0 0.0076267
8630.0 0.0077124
8650.0 0.007554
8670.0 0.0075527
8690.0 0.0076141
8710.0 0.007605
8730.0 0.0075434
8750.0 0.0073339
8770.0 0.007242
8790.0 0.0071909
8810.0 0.0071075
8830.0 0.00671
8850.0 0.006177
8870.0 0.0057875
8890.0 0.0055678
8910.0 0.0052419
8930.0 0.0048822
8950.0 0.0047002
8970.0 0.0046777
8990.0 0.0047043
9010.0 0.0046822
9030.0 0.0046492
9050.0 0.0046187
9070.0 0.0045904
9090.0 0.0045626
9110.0 0.004535
9130.0 0.0045073
9150.0 0.0044798
9170.0 0.0044524
9190.0 0.004425
9210.0 0.0043975
9230.0 0.0043705
9250.0 0.0043436
9270.0 0.0043167
9290.0 0.00429
9310.0 0.0042634
9330.0 0.0042368
9350.0 0.0042104
9370.0 0.004184
9390.0 0.0041579
9410.0 0.0041318
9430.0 0.0041057
9450.0 0.0040788
9470.0 0.0040525
9490.0 0.004028
9510.0 0.0040029
9530.0 0.003978
9550.0 0.0039529
9570.0 0.0039279
9590.0 0.0039031
9610.0 0.0038784
9630.0 0.0038537
9650.0 0.0038292
9670.0 0.0038049
9690.0 0.0037807
9710.0 0.0037565
9730.0 0.0037326
9750.0 0.0037087
9770.0 0.0036849
9790.0 0.0036613
9810.0 0.0036379
9830.0 0.003614
9850.0 0.0035876
9870.0 0.0035652
9890.0 0.0035433
9910.0 0.003521
9930.0 0.0034982
9950.0 0.0034763
9970.0 0.0034537
9990.0 0.0034307
10010.0 0.0034051
10030.0 0.0033816
10050.0 0.003361
10070.0 0.0033402
10090.0 0.0033193
10110.0 0.0032966
10130.0 0.0032694
10150.0 0.0032487
10170.0 0.003229
10190.0 0.003208
10210.0 0.0031874
10230.0 0.0031668
10250.0 0.0031452
10270.0 0.0031236
10290.0 0.0031027
10310.0 0.0030812
10330.0 0.003059
10350.0 0.0030378
10370.0 0.0030168
10390.0 0.002995
10410.0 0.0029734
10430.0 0.0029528
10450.0 0.0029314
10470.0 0.0029096
10490.0 0.0028886
10510.0 0.0028677
10530.0 0.0028456
10550.0 0.002824
10570.0 0.0028033
10590.0 0.0027819
10610.0 0.00276
10630.0 0.0027391
10650.0 0.0027181
10670.0 0.0026961
10690.0 0.0026745
10710.0 0.0026535
10730.0 0.0026318
10750.0 0.0026094
10770.0 0.0025884
10790.0 0.0025671
10810.0 0.002545
10830.0 0.0025233
10850.0 0.0025023
10870.0 0.00248
10890.0 0.0024578
10910.0 0.0024366
10930.0 0.0024153
10950.0 0.0023936
10970.0 0.0023727
10990.0 0.0023531
11010.0 0.0023998
11030.0 0.0023819
11050.0 0.0023647
11070.0 0.0023475
11090.0 0.0023291
11110.0 0.0023115
11130.0 0.002294
11150.0 0.0022758
11170.0 0.0022576
11190.0 0.0022404
11210.0 0.0022231
11230.0 0.0022058
11250.0 0.0021897
11270.0 0.0021744
11290.0 0.0021592
11310.0 0.0021448
11330.0 0.0021318
11350.0 0.0021192
11370.0 0.0021069
11390.0 0.0020954
11410.0 0.0020844
11430.0 0.002073
11450.0 0.0020619
11470.0 0.002051
11490.0 0.0020397
11510.0 0.0020275
11530.0 0.0020153
11550.0 0.0020026
11570.0 0.0019887
11590.0 0.001974
11610.0 0.001959
11630.0 0.0019427
11650.0 0.001925
11670.0 0.0019073
11690.0 0.0018889
11710.0 0.0018694
11730.0 0.0018495
11750.0 0.0018299
11770.0 0.0018095
11790.0 0.0017886
11810.0 0.0017684
11830.0 0.0017482
11850.0 0.0017272
11870.0 0.001707
11890.0 0.0016878
11910.0 0.0016683
11930.0 0.0016491
11950.0 0.001631
11970.0 0.0016133
11990.0 0.0015955
12010.0 0.0015788
12030.0 0.001563
12050.0 0.0015474
12070.0 0.0015324
12090.0 0.0015188
12110.0 0.0015059
12130.0 0.0014934
12150.0 0.0014821
12170.0 0.001472
12190.0 0.0014624
12210.0 0.001454
12230.0 0.0014469
12250.0 0.0014409
12270.0 0.001436
12290.0 0.0014322
12310.0 0.0014296
12330.0 0.0014279
12350.0 0.0014273
12370.0 0.0014273
12390.0 0.001428
12410.0 0.0014294
12430.0 0.001431
12450.0 0.0014326
12470.0 0.0014343
12490.0 0.0014357
12510.0 0.0014366
12530.0 0.001437
12550.0 0.0014367
12570.0 0.0014355
12590.0 0.0014332
12610.0 0.0014298
12630.0 0.001425
12650.0 0.0014192
12670.0 0.0014121
12690.0 0.0014035
12710.0 0.0013941
12730.0 0.0013837
12750.0 0.0013718
12770.0 0.0013592
12790.0 0.0013463
12810.0 0.0013327
12830.0 0.0013182
12850.0 0.0013041
12870.0 0.0012899
12890.0 0.0012752
12910.0 0.0012607
12930.0 0.0012467
12950.0 0.0012324
12970.0 0.0012179
12990.0 0.0012043
13010.0 0.0011908
13030.0 0.0011771
13050.0 0.0011639
13070.0 0.0011513
13090.0 0.0011385
13110.0 0.001126
13130.0 0.0011142
13150.0 0.0011028
13170.0 0.0010913
13190.0 0.0010807
13210.0 0.0010708
13230.0 0.0010611
13250.0 0.001052
13270.0 0.0010436
13290.0 0.0010356
13310.0 0.0010277
13330.0 0.0010204
13350.0 0.0010134
13370.0 0.0010065
13390.0 0.00099959
13410.0 0.00099307
13430.0 0.00098647
13450.0 0.00097966
13470.0 0.0009729
13490.0 0.00096618
13510.0 0.00095898
13530.0 0.00095172
13550.0 0.00094455
13570.0 0.00093719
13590.0 0.00092954
13610.0 0.000922
13630.0 0.00091457
13650.0 0.00090682
13670.0 0.00089909
13690.0 0.00089157
13710.0 0.00088395
13730.0 0.000876
13750.0 0.00086845
13770.0 0.00086095
13790.0 0.00085323
13810.0 0.00084551
13830.0 0.00083807
13850.0 0.00083038
13870.0 0.0008225
13890.0 0.00081482
13910.0 0.00080716
13930.0 0.00079916
13950.0 0.00079115
13970.0 0.00078348
13990.0 0.00077554
14010.0 0.00076744
14030.0 0.00075955
14050.0 0.00075171
14070.0 0.00074342
14090.0 0.00073534
14110.0 0.00072752
14130.0 0.00071957
14150.0 0.00071154
14170.0 0.00070402
14190.0 0.00069668
14210.0 0.00068931
14230.0 0.00068234
14250.0 0.00067586
14270.0 0.00066945
14290.0 0.00066329
14310.0 0.00065779
14330.0 0.00065261
14350.0 0.0006476
14370.0 0.00064302
14390.0 0.00063889
14410.0 0.00063484
14430.0 0.00063103
14450.0 0.00062755
14470.0 0.00062424
14490.0 0.00062091
14510.0 0.00061785
14530.0 0.00061498
14550.0 0.0006121
14570.0 0.00060927
14590.0 0.00060663
14610.0 0.000604
14630.0 0.00060132
14650.0 0.0005988
14670.0 0.00059642
14690.0 0.00059406
14710.0 0.00059181
14730.0 0.00058992
14750.0 0.00058821
14770.0 0.00058677
14790.0 0.00058577
14810.0 0.00058523
14830.0 0.00058515
14850.0 0.0005857
14870.0 0.00058684
14890.0 0.00058858
14910.0 0.00059092
14930.0 0.00059362
14950.0 0.00059651
14970.0 0.00059954
14990.0 0.00060236
15010.0 0.00060477
15030.0 0.00060679
15050.0 0.00060835
15070.0 0.00060945
15090.0 0.00061024
15110.0 0.00061081
15130.0 0.00061124
15150.0 0.00061163
15170.0 0.00061198
15190.0 0.00061231
15210.0 0.00061268
15230.0 0.00061306
15250.0 0.00061344
15270.0 0.00061384
15290.0 0.0006143
15310.0 0.00061475
15330.0 0.00061521
15350.0 0.00061571
15370.0 0.00061624
15390.0 0.00061674
15410.0 0.00061729
15430.0 0.00061787
15450.0 0.00061845
15470.0 0.00061903
15490.0 0.00061966
15510.0 0.00062031
15530.0 0.00062095
15550.0 0.00062162
15570.0 0.00062233
15590.0 0.00062302
15610.0 0.00062372
15630.0 0.00062447
15650.0 0.00062523
15670.0 0.00062598
15690.0 0.00062676
15710.0 0.00062758
15730.0 0.00062837
15750.0 0.00062919
15770.0 0.00063004
15790.0 0.00063089
15810.0 0.00063173
15830.0 0.00063261
15850.0 0.00063352
15870.0 0.00063441
15890.0 0.00063531
15910.0 0.00063626
15930.0 0.0006372
15950.0 0.00063812
15970.0 0.00063908
15990.0 0.00064006
16010.0 0.00064103
16030.0 0.00064199
16050.0 0.00064301
16070.0 0.00064402
16090.0 0.00064502
16110.0 0.00064605
16130.0 0.00064709
16150.0 0.0006481
16170.0 0.00064913
16190.0 0.0006502
16210.0 0.00065125
16230.0 0.00065229
16250.0 0.00065337
16270.0 0.00065446
16290.0 0.00065551
16310.0 0.00065659
16330.0 0.00065768
16350.0 0.00065877
16370.0 0.00065982
16390.0 0.00066092
16410.0 0.00066203
16430.0 0.00066311
16450.0 0.0006642
16470.0 0.00066532
16490.0 0.0006664
16510.0 0.00066748
16530.0 0.00066858
16550.0 0.00066968
16570.0 0.00067075
16590.0 0.00067183
16610.0 0.00067294
16630.0 0.00067401
16650.0 0.00067508
16670.0 0.00067617
16690.0 0.00067725
16710.0 0.00067828
16730.0 0.00067934
16750.0 0.00068041
16770.0 0.00068145
16790.0 0.00068247
16810.0 0.00068352
16830.0 0.00068455
16850.0 0.00068555
16870.0 0.00068656
16890.0 0.00068757
16910.0 0.00068855
16930.0 0.0006895
16950.0 0.00069048
16970.0 0.00069144
16990.0 0.00069237
17010.0 0.0006933
17030.0 0.00069424
17050.0 0.00069513
17070.0 0.00069601
17090.0 0.0006969
17110.0 0.00069777
17130.0 0.00069858
17150.0 0.00069942
17170.0 0.00070025
17190.0 0.00070104
17210.0 0.00070181
17230.0 0.0007026
17250.0 0.00070334
17270.0 0.00070404
17290.0 0.00070475
17310.0 0.00070546
17330.0 0.00070611
17350.0 0.00070674
17370.0 0.00070739
17390.0 0.000708
17410.0 0.00070857
17430.0 0.00070914
17450.0 0.0007097
17470.0 0.00071018
17490.0 0.00071066
17510.0 0.00071115
17530.0 0.0007116
17550.0 0.00071199
17570.0 0.0007124
17590.0 0.00071279
17610.0 0.00071312
17630.0 0.00071343
17650.0 0.00071374
17670.0 0.000714
17690.0 0.0007142
17710.0 0.00071442
17730.0 0.00071462
17750.0 0.00071475
17770.0 0.00071487
17790.0 0.000715
17810.0 0.00071505
17830.0 0.00071506
17850.0 0.00071508
17870.0 0.00071506
17890.0 0.00071498
17910.0 0.00071488
17930.0 0.0007148
17950.0 0.00071464
17970.0 0.00071444
17990.0 0.00071425
18010.0 0.00071402
18030.0 0.0007137
18050.0 0.00071339
18070.0 0.00071306
18090.0 0.00071268
18110.0 0.00071225
18130.0 0.00071182
18150.0 0.00071136
18170.0 0.00071083
18190.0 0.00071028
18210.0 0.00070973
18230.0 0.00070909
18250.0 0.00070842
18270.0 0.00070776
18290.0 0.00070705
18310.0 0.00070627
18330.0 0.00070549
18350.0 0.0007047
18370.0 0.00070382
18390.0 0.00070292
18410.0 0.00070201
18430.0 0.00070105
18450.0 0.00070002
18470.0 0.000699
18490.0 0.00069795
18510.0 0.00069684
18530.0 0.00069569
18550.0 0.00069455
18570.0 0.00069334
18590.0 0.00069207
18610.0 0.0006908
18630.0 0.00068951
18650.0 0.00068815
18670.0 0.00068675
18690.0 0.00068536
18710.0 0.00068392
18730.0 0.00068242
18750.0 0.00068091
18770.0 0.00067938
18790.0 0.00067776
18810.0 0.00067614
18830.0 0.00067451
18850.0 0.00067282
18870.0 0.00067108
18890.0 0.00066935
18910.0 0.00066759
18930.0 0.00066575
18950.0 0.0006639
18970.0 0.00066204
18990.0 0.00066013
19010.0 0.00065815
19030.0 0.0006562
19050.0 0.00065421
19070.0 0.00065216
19090.0 0.00065009
19110.0 0.00064803
19130.0 0.00064589
19150.0 0.00064372
19170.0 0.00064156
19190.0 0.00063936
19210.0 0.00063709
19230.0 0.00063482
19250.0 0.00063256
19270.0 0.00063023
19290.0 0.00062787
19310.0 0.00062552
19330.0 0.00062313
19350.0 0.00062068
19370.0 0.00061823
19390.0 0.00061577
19410.0 0.00061327
19430.0 0.00061073
19450.0 0.0006082
19470.0 0.00060565
19490.0 0.00060304
19510.0 0.00060043
19530.0 0.00059781
19550.0 0.00059514
19570.0 0.00059244
19590.0 0.00058976
19610.0 0.00058705
19630.0 0.0005843
19650.0 0.00058155
19670.0 0.0005788
19690.0 0.00057599
19710.0 0.00057317
19730.0 0.00057036
19750.0 0.00056752
19770.0 0.00056463
19790.0 0.00056176
19810.0 0.00055889
19830.0 0.00055596
19850.0 0.00055301
19870.0 0.00055004
19890.0 0.00054696
19910.0 0.00054371
19930.0 0.00054027
19950.0 0.00053651
19970.0 0.00053222
19990.0 0.00052733
20010.0 0.00052195
20030.0 0.0005158
20050.0 0.00050892
20070.0 0.00050165
20090.0 0.00049403
20110.0 0.00048576
20130.0 0.00047751
20150.0 0.0004694
20170.0 0.00046115
20190.0 0.00045288
20210.0 0.000445
20230.0 0.00043728
20250.0 0.00042953
20270.0 0.00042214
20290.0 0.00041514
20310.0 0.00040826
20330.0 0.00040154
20350.0 0.00039544
20370.0 0.00038958
20390.0 0.00038393
20410.0 0.00037866
20430.0 0.00037381
20450.0 0.0003691
20470.0 0.00036471
20490.0 0.00036069
20510.0 0.00035693
20530.0 0.00035337
20550.0 0.00035011
20570.0 0.0003471
20590.0 0.00034426
20610.0 0.00034161
20630.0 0.00033915
20650.0 0.00033682
20670.0 0.00033459
20690.0 0.00033249
20710.0 0.00033045
20730.0 0.00032846
20750.0 0.0003265
20770.0 0.00032453
20790.0 0.00032254
20810.0 0.0003205
20830.0 0.0003184
20850.0 0.00031621
20870.0 0.0003139
20890.0 0.00031146
20910.0 0.00030892
20930.0 0.00030624
20950.0 0.00030339
20970.0 0.00030043
20990.0 0.00029735
21010.0 0.00029408
21030.0 0.0002907
21050.0 0.00028726
21070.0 0.00028369
21090.0 0.00027996
21110.0 0.00027626
21130.0 0.00027253
21150.0 0.00026869
21170.0 0.00026485
21190.0 0.00026109
21210.0 0.00025725
21230.0 0.00025341
21250.0 0.00024969
21270.0 0.00024603
21290.0 0.00024237
21310.0 0.0002388
21330.0 0.00023539
21350.0 0.00023201
21370.0 0.00022868
21390.0 0.00022551
21410.0 0.00022243
21430.0 0.00021935
21450.0 0.00021641
21470.0 0.0002136
21490.0 0.00021082
21510.0 0.00020809
21530.0 0.00020548
21550.0 0.00020293
21570.0 0.00020038
21590.0 0.00019792
21610.0 0.00019552
21630.0 0.00019314
21650.0 0.00019076
21670.0 0.00018849
21690.0 0.00018623
21710.0 0.00018397
21730.0 0.00018176
21750.0 0.00017959
21770.0 0.0001774
21790.0 0.00017522
21810.0 0.00017309
21830.0 0.00017097
21850.0 0.00016882
21870.0 0.00016669
21890.0 0.0001646
21910.0 0.00016248
21930.0 0.00016035
21950.0 0.00015825
21970.0 0.00015613
21990.0 0.00015397
22010.0 0.00015185
22030.0 0.00014975
22050.0 0.00014762
22070.0 0.00014549
22090.0 0.00014342
22110.0 0.00014134
22130.0 0.00013926
22150.0 0.00013722
22170.0 0.00013523
22190.0 0.00013322
22210.0 0.00013124
22230.0 0.00012935
22250.0 0.00012747
22270.0 0.00012561
22290.0 0.00012381
22310.0 0.00012206
22330.0 0.0001203
22350.0 0.00011859
22370.0 0.00011693
22390.0 0.00011528
22410.0 0.00011364
22430.0 0.00011204
22450.0 0.00011047
22470.0 0.00010889
22490.0 0.00010733
22510.0 0.0001058
22530.0 0.00010425
22550.0 0.00010269
22570.0 0.00010117
22590.0 9.966e-05
22610.0 9.813e-05
22630.0 9.6619e-05
22650.0 9.5153e-05
22670.0 9.3674e-05
22690.0 9.2206e-05
22710.0 9.0786e-05
22730.0 8.9393e-05
22750.0 8.7992e-05
22770.0 8.6654e-05
22790.0 8.5372e-05
22810.0 8.4115e-05
22830.0 8.29e-05
22850.0 8.1761e-05
22870.0 8.067e-05
22890.0 7.9623e-05
22910.0 7.8654e-05
22930.0 7.7758e-05
22950.0 7.6924e-05
22970.0 7.6163e-05
22990.0 7.5486e-05
23010.0 7.4876e-05
23030.0 7.4337e-05
23050.0 7.3863e-05
23070.0 7.3439e-05
23090.0 7.3076e-05
23110.0 7.2751e-05
23130.0 7.2447e-05
23150.0 7.2164e-05
23170.0 7.1897e-05
23190.0 7.1621e-05
23210.0 7.133e-05
23230.0 7.1034e-05
23250.0 7.0717e-05
23270.0 7.0371e-05
23290.0 7.0003e-05
23310.0 6.9615e-05
23330.0 6.9194e-05
23350.0 6.8749e-05
23370.0 6.8284e-05
23390.0 6.7797e-05
23410.0 6.7293e-05
