#lamb flux
1010.0 5.1578e-08
1030.0 5.666e-08
1050.0 6.2506e-08
1070.0 6.9087e-08
1090.0 7.6562e-08
1110.0 8.4228e-08
1130.0 9.1944e-08
1150.0 1.0003e-07
1170.0 1.0836e-07
1190.0 1.1627e-07
1210.0 1.2428e-07
1230.0 1.3256e-07
1250.0 1.4067e-07
1270.0 1.4855e-07
1290.0 1.5687e-07
1310.0 1.6519e-07
1330.0 1.7317e-07
1350.0 1.8123e-07
1370.0 1.8956e-07
1390.0 1.9767e-07
1410.0 2.0555e-07
1430.0 2.1378e-07
1450.0 2.2201e-07
1470.0 2.2997e-07
1490.0 2.3801e-07
1510.0 2.465e-07
1530.0 2.5454e-07
1550.0 2.6247e-07
1570.0 2.7068e-07
1590.0 2.7889e-07
1610.0 2.8673e-07
1630.0 2.9481e-07
1650.0 3.031e-07
1670.0 3.1111e-07
1690.0 3.1901e-07
1710.0 3.2722e-07
1730.0 3.3546e-07
1750.0 3.4319e-07
1770.0 3.5115e-07
1790.0 3.5925e-07
1810.0 3.6707e-07
1830.0 3.7474e-07
1850.0 3.8286e-07
1870.0 3.9075e-07
1890.0 3.9833e-07
1910.0 4.0603e-07
1930.0 4.1388e-07
1950.0 4.2132e-07
1970.0 4.2861e-07
1990.0 4.3614e-07
2010.0 4.4347e-07
2030.0 4.5044e-07
2050.0 4.5756e-07
2070.0 4.6478e-07
2090.0 4.7144e-07
2110.0 4.7797e-07
2130.0 4.8459e-07
2150.0 4.9094e-07
2170.0 4.968e-07
2190.0 5.0279e-07
2210.0 5.0865e-07
2230.0 5.1401e-07
2250.0 5.1915e-07
2270.0 5.2441e-07
2290.0 5.2921e-07
2310.0 5.3347e-07
2330.0 5.3773e-07
2350.0 5.418e-07
2370.0 5.4534e-07
2390.0 5.4876e-07
2410.0 5.5241e-07
2430.0 5.5584e-07
2450.0 5.5927e-07
2470.0 5.6345e-07
2490.0 5.6889e-07
2510.0 5.7574e-07
2530.0 5.866e-07
2550.0 6.0547e-07
2570.0 6.3595e-07
2590.0 6.8226e-07
2610.0 7.5623e-07
2630.0 8.5918e-07
2650.0 9.8399e-07
2670.0 1.1308e-06
2690.0 1.2927e-06
2710.0 1.4458e-06
2730.0 1.5795e-06
2750.0 1.6964e-06
2770.0 1.7854e-06
2790.0 1.8466e-06
2810.0 1.8903e-06
2830.0 1.9236e-06
2850.0 1.9457e-06
2870.0 1.9634e-06
2890.0 1.9811e-06
2910.0 1.9979e-06
2930.0 2.0122e-06
2950.0 2.0277e-06
2970.0 2.0439e-06
2990.0 2.058e-06
3010.0 2.0489e-05
3030.0 2.0631e-05
3050.0 2.0762e-05
3070.0 2.0853e-05
3090.0 2.0925e-05
3110.0 2.0948e-05
3130.0 2.0884e-05
3150.0 2.072e-05
3170.0 2.0439e-05
3190.0 2.0045e-05
3210.0 1.9591e-05
3230.0 1.9124e-05
3250.0 1.8673e-05
3270.0 1.8438e-05
3290.0 1.831e-05
3310.0 1.8553e-05
3330.0 1.8957e-05
3350.0 1.9529e-05
3370.0 2.0285e-05
3390.0 2.1193e-05
3410.0 2.2139e-05
3430.0 2.3158e-05
3450.0 2.427e-05
3470.0 2.5412e-05
3490.0 2.6558e-05
3510.0 2.7774e-05
3530.0 2.9019e-05
3550.0 3.0325e-05
3570.0 3.1739e-05
3590.0 3.322e-05
3610.0 3.4883e-05
3630.0 3.6366e-05
3650.0 3.7851e-05
3670.0 3.9043e-05
3690.0 3.9906e-05
3710.0 4.0413e-05
3730.0 4.0381e-05
3750.0 4.0376e-05
3770.0 4.0598e-05
3790.0 4.1789e-05
3810.0 4.4284e-05
3830.0 4.7625e-05
3850.0 5.2409e-05
3870.0 5.8803e-05
3890.0 6.6012e-05
3910.0 7.3353e-05
3930.0 7.9339e-05
3950.0 8.3068e-05
3970.0 7.4048e-05
3990.0 5.7542e-05
4010.0 5.5505e-05
4030.0 6.7363e-05
4050.0 7.826e-05
4070.0 6.9089e-05
4090.0 4.7882e-05
4110.0 4.9831e-05
4130.0 6.2931e-05
4150.0 6.9322e-05
4170.0 6.1558e-05
4190.0 5.5134e-05
4210.0 6.6411e-05
4230.0 7.2077e-05
4250.0 7.0486e-05
4270.0 7.1742e-05
4290.0 6.729e-05
4310.0 7.2503e-05
4330.0 8.2921e-05
4350.0 9.7313e-05
4370.0 0.00010087
4390.0 9.6392e-05
4410.0 8.2947e-05
4430.0 6.7765e-05
4450.0 5.2912e-05
4470.0 5.4011e-05
4490.0 6.0309e-05
4510.0 7.8329e-05
4530.0 8.2977e-05
4550.0 8.3911e-05
4570.0 9.6788e-05
4590.0 0.00012433
4610.0 0.00017109
4630.0 0.00020584
4650.0 0.0002052
4670.0 0.00021049
4690.0 0.00023074
4710.0 0.00022741
4730.0 0.00018197
4750.0 0.00013106
4770.0 0.00010934
4790.0 0.00010067
4810.0 9.3145e-05
4830.0 9.8313e-05
4850.0 0.00011427
4870.0 0.00014179
4890.0 0.00015
4910.0 0.00012936
4930.0 0.00012965
4950.0 0.00016017
4970.0 0.00020795
4990.0 0.00024304
5010.0 0.00024301
5030.0 0.00020018
5050.0 0.00014017
5070.0 0.00010314
5090.0 8.9883e-05
5110.0 9.1621e-05
5130.0 0.00010029
5150.0 9.6758e-05
5170.0 9.6837e-05
5190.0 9.5535e-05
5210.0 9.5815e-05
5230.0 0.00010233
5250.0 0.00010621
5270.0 0.0001191
5290.0 0.00014276
5310.0 0.00015689
5330.0 0.00016371
5350.0 0.00017152
5370.0 0.00018598
5390.0 0.00019125
5410.0 0.00017373
5430.0 0.00015553
5450.0 0.00015649
5470.0 0.00018822
5490.0 0.00024411
5510.0 0.00029459
5530.0 0.00031266
5550.0 0.00030203
5570.0 0.00028169
5590.0 0.00026053
5610.0 0.00024965
5630.0 0.00025307
5650.0 0.00025964
5670.0 0.00025242
5690.0 0.00024009
5710.0 0.00023249
5730.0 0.00020384
5750.0 0.00015757
5770.0 0.0001432
5790.0 0.00016178
5810.0 0.00018367
5830.0 0.00020585
5850.0 0.00021506
5870.0 0.00021056
5890.0 0.00019537
5910.0 0.0001842
5930.0 0.00018734
5950.0 0.00019933
5970.0 0.0002029
5990.0 0.00018126
6010.0 0.00014712
6030.0 0.00011819
6050.0 0.0001074
6070.0 0.00011552
6090.0 0.00013029
6110.0 0.00013162
6130.0 0.00012154
6150.0 0.00011972
6170.0 0.00013365
6190.0 0.00015917
6210.0 0.00019181
6230.0 0.00021417
6250.0 0.00020603
6270.0 0.00018102
6290.0 0.00014961
6310.0 0.00011803
6330.0 9.8849e-05
6350.0 9.6822e-05
6370.0 0.0001067
6390.0 0.00011861
6410.0 0.00013779
6430.0 0.00016689
6450.0 0.00020532
6470.0 0.00024697
6490.0 0.00028438
6510.0 0.00029955
6530.0 0.00028665
6550.0 0.00027527
6570.0 0.00027588
6590.0 0.00027149
6610.0 0.00025449
6630.0 0.00023874
6650.0 0.00022499
6670.0 0.0002247
6690.0 0.00021914
6710.0 0.00019763
6730.0 0.00017209
6750.0 0.00015537
6770.0 0.00016202
6790.0 0.00017309
6810.0 0.00018529
6830.0 0.00018884
6850.0 0.00017952
6870.0 0.00017252
6890.0 0.00016855
6910.0 0.00015958
6930.0 0.00015263
6950.0 0.00015458
6970.0 0.0001594
6990.0 0.00017101
7010.0 0.00018344
7030.0 0.00017846
7050.0 0.00016197
7070.0 0.0001427
7090.0 0.00012067
7110.0 0.00010927
7130.0 0.00011591
7150.0 0.00012495
7170.0 0.00012562
7190.0 0.00012201
7210.0 0.00012152
7230.0 0.00013729
7250.0 0.00015886
7270.0 0.00017386
7290.0 0.00017669
7310.0 0.00016557
7330.0 0.00015034
7350.0 0.00013856
7370.0 0.00013355
7390.0 0.00013421
7410.0 0.00014262
7430.0 0.00016193
7450.0 0.00018126
7470.0 0.00020401
7490.0 0.00022752
7510.0 0.00021108
7530.0 0.0001848
7550.0 0.00015729
7570.0 0.00013172
7590.0 0.00010766
7610.0 0.00010354
7630.0 0.00011075
7650.0 0.00012402
7670.0 0.0001418
7690.0 0.00015635
7710.0 0.00017531
7730.0 0.00018547
7750.0 0.00019236
7770.0 0.00019902
7790.0 0.00019898
7810.0 0.0001982
7830.0 0.00019101
7850.0 0.0001852
7870.0 0.00017757
7890.0 0.00016232
7910.0 0.00014686
7930.0 0.00013154
7950.0 0.0001156
7970.0 0.00011058
7990.0 0.00011513
8010.0 0.00012905
8030.0 0.00013016
8050.0 0.00013396
8070.0 0.00013226
8090.0 0.00013215
8110.0 0.00012841
8130.0 0.00012051
8150.0 0.0001125
8170.0 0.00011152
8190.0 0.0001132
8210.0 0.00011444
8230.0 0.00010937
8250.0 0.00010367
8270.0 9.132e-05
8290.0 7.413e-05
8310.0 5.6973e-05
8330.0 3.9833e-05
8350.0 2.941e-05
8370.0 2.8073e-05
8390.0 3.2242e-05
8410.0 3.9132e-05
8430.0 4.8615e-05
8450.0 5.3667e-05
8470.0 5.719e-05
8490.0 6.1728e-05
8510.0 6.5781e-05
8530.0 7.2835e-05
8550.0 8.5855e-05
8570.0 9.9158e-05
8590.0 0.0001105
8610.0 0.00012792
8630.0 0.00014821
8650.0 0.00015749
8670.0 0.00015916
8690.0 0.00015679
8710.0 0.00015053
8730.0 0.00014435
8750.0 0.00013651
8770.0 0.00013366
8790.0 0.00012885
8810.0 0.00011935
8830.0 0.00011128
8850.0 9.6251e-05
8870.0 8.7154e-05
8890.0 8.0718e-05
8910.0 8.7417e-05
8930.0 8.3851e-05
8950.0 8.5579e-05
8970.0 8.6951e-05
8990.0 8.6933e-05
9010.0 8.8005e-05
9030.0 8.5525e-05
9050.0 8.5356e-05
9070.0 8.5435e-05
9090.0 8.5517e-05
9110.0 8.5616e-05
9130.0 8.5707e-05
9150.0 8.5804e-05
9170.0 8.5809e-05
9190.0 8.569e-05
9210.0 8.643e-05
9230.0 8.6407e-05
9250.0 8.6471e-05
9270.0 8.6561e-05
9290.0 8.6672e-05
9310.0 8.68e-05
9330.0 8.694e-05
9350.0 8.7091e-05
9370.0 8.7249e-05
9390.0 8.7413e-05
9410.0 8.7584e-05
9430.0 8.7763e-05
9450.0 8.7946e-05
9470.0 8.8135e-05
9490.0 8.833e-05
9510.0 8.8531e-05
9530.0 8.8737e-05
9550.0 8.895e-05
9570.0 8.9169e-05
9590.0 8.9394e-05
9610.0 8.9624e-05
9630.0 8.986e-05
9650.0 9.0103e-05
9670.0 9.0349e-05
9690.0 9.0602e-05
9710.0 9.0861e-05
9730.0 9.1123e-05
9750.0 9.139e-05
9770.0 9.1666e-05
9790.0 9.1944e-05
9810.0 9.2225e-05
9830.0 9.2513e-05
9850.0 9.2805e-05
9870.0 9.3098e-05
9890.0 9.3397e-05
9910.0 9.37e-05
9930.0 9.4005e-05
9950.0 9.4267e-05
9970.0 9.4593e-05
9990.0 9.4919e-05
10010.0 9.5211e-05
10030.0 9.5533e-05
10050.0 9.5825e-05
10070.0 9.5958e-05
10090.0 9.6345e-05
10110.0 9.6723e-05
10130.0 9.7084e-05
10150.0 9.7436e-05
10170.0 9.7772e-05
10190.0 9.8093e-05
10210.0 9.8419e-05
10230.0 9.8743e-05
10250.0 9.9056e-05
10270.0 9.9367e-05
10290.0 9.9684e-05
10310.0 9.999e-05
10330.0 0.00010029
10350.0 0.00010059
10370.0 0.00010089
10390.0 0.00010117
10410.0 0.00010146
10430.0 0.00010174
10450.0 0.00010202
10470.0 0.00010228
10490.0 0.00010255
10510.0 0.00010281
10530.0 0.00010305
10550.0 0.00010328
10570.0 0.00010352
10590.0 0.00010375
10610.0 0.00010396
10630.0 0.00010417
10650.0 0.00010438
10670.0 0.00010456
10690.0 0.00010474
10710.0 0.00010492
10730.0 0.00010508
10750.0 0.00010522
10770.0 0.00010537
10790.0 0.0001055
10810.0 0.00010561
10830.0 0.00010572
10850.0 0.00010581
10870.0 0.00010585
10890.0 0.00010583
10910.0 0.00010573
10930.0 0.00010549
10950.0 0.000105
10970.0 0.00010422
10990.0 0.00010313
11010.0 0.00010218
11030.0 0.00010005
11050.0 9.7606e-05
11070.0 9.4813e-05
11090.0 9.1586e-05
11110.0 8.838e-05
11130.0 8.5172e-05
11150.0 8.188e-05
11170.0 7.8683e-05
11190.0 7.5783e-05
11210.0 7.3003e-05
11230.0 7.0386e-05
11250.0 6.8112e-05
11270.0 6.6127e-05
11290.0 6.4324e-05
11310.0 6.2776e-05
11330.0 6.1523e-05
11350.0 6.0405e-05
11370.0 5.9396e-05
11390.0 5.8501e-05
11410.0 5.7651e-05
11430.0 5.6744e-05
11450.0 5.5804e-05
11470.0 5.4815e-05
11490.0 5.3711e-05
11510.0 5.2461e-05
11530.0 5.116e-05
11550.0 4.9782e-05
11570.0 4.8278e-05
11590.0 4.6736e-05
11610.0 4.5219e-05
11630.0 4.3651e-05
11650.0 4.2076e-05
11670.0 4.0621e-05
11690.0 3.9235e-05
11710.0 3.7888e-05
11730.0 3.665e-05
11750.0 3.5547e-05
11770.0 3.4495e-05
11790.0 3.3518e-05
11810.0 3.2644e-05
11830.0 3.1832e-05
11850.0 3.1033e-05
11870.0 3.0291e-05
11890.0 2.9589e-05
11910.0 2.8875e-05
11930.0 2.815e-05
11950.0 2.7439e-05
11970.0 2.6708e-05
11990.0 2.593e-05
12010.0 2.5154e-05
12030.0 2.4383e-05
12050.0 2.3589e-05
12070.0 2.279e-05
12090.0 2.2058e-05
12110.0 2.1353e-05
12130.0 2.0687e-05
12150.0 2.0106e-05
12170.0 1.962e-05
12190.0 1.9212e-05
12210.0 1.8924e-05
12230.0 1.8763e-05
12250.0 1.8722e-05
12270.0 1.8815e-05
12290.0 1.9029e-05
12310.0 1.9346e-05
12330.0 1.9786e-05
12350.0 2.0321e-05
12370.0 2.0906e-05
12390.0 2.1554e-05
12410.0 2.2276e-05
12430.0 2.2965e-05
12450.0 2.3632e-05
12470.0 2.4294e-05
12490.0 2.4903e-05
12510.0 2.5417e-05
12530.0 2.5876e-05
12550.0 2.626e-05
12570.0 2.6536e-05
12590.0 2.6717e-05
12610.0 2.6814e-05
12630.0 2.6815e-05
12650.0 2.6724e-05
12670.0 2.6558e-05
12690.0 2.6316e-05
12710.0 2.6014e-05
12730.0 2.5662e-05
12750.0 2.5248e-05
12770.0 2.4801e-05
12790.0 2.4333e-05
12810.0 2.3833e-05
12830.0 2.3301e-05
12850.0 2.2771e-05
12870.0 2.2228e-05
12890.0 2.1654e-05
12910.0 2.1069e-05
12930.0 2.0485e-05
12950.0 1.9865e-05
12970.0 1.9214e-05
12990.0 1.8575e-05
13010.0 1.7922e-05
13030.0 1.7241e-05
13050.0 1.6567e-05
13070.0 1.5921e-05
13090.0 1.5267e-05
13110.0 1.4633e-05
13130.0 1.4053e-05
13150.0 1.3515e-05
13170.0 1.3009e-05
13190.0 1.2581e-05
13210.0 1.2228e-05
13230.0 1.1934e-05
13250.0 1.171e-05
13270.0 1.1561e-05
13290.0 1.1474e-05
13310.0 1.1449e-05
13330.0 1.1479e-05
13350.0 1.155e-05
13370.0 1.1663e-05
13390.0 1.1806e-05
13410.0 1.1956e-05
13430.0 1.2116e-05
13450.0 1.2283e-05
13470.0 1.2439e-05
13490.0 1.2579e-05
13510.0 1.2715e-05
13530.0 1.283e-05
13550.0 1.2922e-05
13570.0 1.3e-05
13590.0 1.3065e-05
13610.0 1.3113e-05
13630.0 1.3148e-05
13650.0 1.3178e-05
13670.0 1.32e-05
13690.0 1.3214e-05
13710.0 1.3224e-05
13730.0 1.3231e-05
13750.0 1.323e-05
13770.0 1.3223e-05
13790.0 1.321e-05
13810.0 1.3186e-05
13830.0 1.3151e-05
13850.0 1.3104e-05
13870.0 1.3042e-05
13890.0 1.2965e-05
13910.0 1.2873e-05
13930.0 1.2764e-05
13950.0 1.2641e-05
13970.0 1.2513e-05
13990.0 1.2374e-05
14010.0 1.2228e-05
14030.0 1.2086e-05
14050.0 1.1948e-05
14070.0 1.1811e-05
14090.0 1.1686e-05
14110.0 1.1575e-05
14130.0 1.1474e-05
14150.0 1.1387e-05
14170.0 1.1316e-05
14190.0 1.126e-05
14210.0 1.1217e-05
14230.0 1.1189e-05
14250.0 1.1175e-05
14270.0 1.1177e-05
14290.0 1.1196e-05
14310.0 1.1229e-05
14330.0 1.1277e-05
14350.0 1.1344e-05
14370.0 1.1423e-05
14390.0 1.1512e-05
14410.0 1.1618e-05
14430.0 1.1734e-05
14450.0 1.1855e-05
14470.0 1.1983e-05
14490.0 1.2126e-05
14510.0 1.2271e-05
14530.0 1.2421e-05
14550.0 1.2586e-05
14570.0 1.2768e-05
14590.0 1.296e-05
14610.0 1.3176e-05
14630.0 1.3429e-05
14650.0 1.3705e-05
14670.0 1.4007e-05
14690.0 1.4354e-05
14710.0 1.4743e-05
14730.0 1.5139e-05
14750.0 1.5571e-05
14770.0 1.6038e-05
14790.0 1.6508e-05
14810.0 1.6972e-05
14830.0 1.7464e-05
14850.0 1.7934e-05
14870.0 1.8364e-05
14890.0 1.8769e-05
14910.0 1.9141e-05
14930.0 1.9452e-05
14950.0 1.9704e-05
14970.0 1.991e-05
14990.0 2.0057e-05
15010.0 2.0148e-05
15030.0 2.0198e-05
15050.0 2.021e-05
15070.0 2.0196e-05
15090.0 2.0164e-05
15110.0 2.012e-05
15130.0 2.0071e-05
15150.0 2.002e-05
15170.0 1.9966e-05
15190.0 1.9911e-05
15210.0 1.9858e-05
15230.0 1.9805e-05
15250.0 1.9751e-05
15270.0 1.9697e-05
15290.0 1.9647e-05
15310.0 1.9595e-05
15330.0 1.9542e-05
15350.0 1.9492e-05
15370.0 1.9443e-05
15390.0 1.939e-05
15410.0 1.934e-05
15430.0 1.9292e-05
15450.0 1.9242e-05
15470.0 1.9191e-05
15490.0 1.9143e-05
15510.0 1.9095e-05
15530.0 1.9046e-05
15550.0 1.8997e-05
15570.0 1.8951e-05
15590.0 1.8902e-05
15610.0 1.8852e-05
15630.0 1.8806e-05
15650.0 1.8759e-05
15670.0 1.871e-05
15690.0 1.8663e-05
15710.0 1.8618e-05
15730.0 1.857e-05
15750.0 1.8522e-05
15770.0 1.8476e-05
15790.0 1.843e-05
15810.0 1.838e-05
15830.0 1.8334e-05
15850.0 1.8288e-05
15870.0 1.8241e-05
15890.0 1.8193e-05
15910.0 1.8148e-05
15930.0 1.8101e-05
15950.0 1.8052e-05
15970.0 1.8006e-05
15990.0 1.796e-05
16010.0 1.7912e-05
16030.0 1.7863e-05
16050.0 1.7817e-05
16070.0 1.777e-05
16090.0 1.7722e-05
16110.0 1.7675e-05
16130.0 1.7629e-05
16150.0 1.7579e-05
16170.0 1.753e-05
16190.0 1.7483e-05
16210.0 1.7435e-05
16230.0 1.7385e-05
16250.0 1.7337e-05
16270.0 1.7289e-05
16290.0 1.7239e-05
16310.0 1.7189e-05
16330.0 1.7141e-05
16350.0 1.7092e-05
16370.0 1.7039e-05
16390.0 1.699e-05
16410.0 1.6941e-05
16430.0 1.689e-05
16450.0 1.6839e-05
16470.0 1.679e-05
16490.0 1.6738e-05
16510.0 1.6686e-05
16530.0 1.6635e-05
16550.0 1.6584e-05
16570.0 1.653e-05
16590.0 1.6477e-05
16610.0 1.6426e-05
16630.0 1.6373e-05
16650.0 1.6319e-05
16670.0 1.6267e-05
16690.0 1.6214e-05
16710.0 1.6158e-05
16730.0 1.6104e-05
16750.0 1.6051e-05
16770.0 1.5996e-05
16790.0 1.5939e-05
16810.0 1.5885e-05
16830.0 1.5831e-05
16850.0 1.5774e-05
16870.0 1.5718e-05
16890.0 1.5663e-05
16910.0 1.5605e-05
16930.0 1.5546e-05
16950.0 1.5491e-05
16970.0 1.5434e-05
16990.0 1.5375e-05
17010.0 1.5317e-05
17030.0 1.5261e-05
17050.0 1.5201e-05
17070.0 1.5141e-05
17090.0 1.5083e-05
17110.0 1.5024e-05
17130.0 1.4962e-05
17150.0 1.4903e-05
17170.0 1.4844e-05
17190.0 1.4783e-05
17210.0 1.4722e-05
17230.0 1.4663e-05
17250.0 1.4601e-05
17270.0 1.4538e-05
17290.0 1.4477e-05
17310.0 1.4416e-05
17330.0 1.4353e-05
17350.0 1.4289e-05
17370.0 1.4228e-05
17390.0 1.4165e-05
17410.0 1.4101e-05
17430.0 1.4038e-05
17450.0 1.3976e-05
17470.0 1.391e-05
17490.0 1.3845e-05
17510.0 1.3782e-05
17530.0 1.3718e-05
17550.0 1.3651e-05
17570.0 1.3587e-05
17590.0 1.3523e-05
17610.0 1.3457e-05
17630.0 1.3391e-05
17650.0 1.3326e-05
17670.0 1.326e-05
17690.0 1.3191e-05
17710.0 1.3126e-05
17730.0 1.3061e-05
17750.0 1.2993e-05
17770.0 1.2926e-05
17790.0 1.2861e-05
17810.0 1.2793e-05
17830.0 1.2724e-05
17850.0 1.2657e-05
17870.0 1.259e-05
17890.0 1.2521e-05
17910.0 1.2452e-05
17930.0 1.2386e-05
17950.0 1.2317e-05
17970.0 1.2248e-05
17990.0 1.218e-05
18010.0 1.2113e-05
18030.0 1.2041e-05
18050.0 1.1973e-05
18070.0 1.1905e-05
18090.0 1.1835e-05
18110.0 1.1764e-05
18130.0 1.1697e-05
18150.0 1.1628e-05
18170.0 1.1557e-05
18190.0 1.1488e-05
18210.0 1.142e-05
18230.0 1.1349e-05
18250.0 1.1277e-05
18270.0 1.1209e-05
18290.0 1.1139e-05
18310.0 1.1068e-05
18330.0 1.0998e-05
18350.0 1.093e-05
18370.0 1.0859e-05
18390.0 1.0787e-05
18410.0 1.0718e-05
18430.0 1.0648e-05
18450.0 1.0576e-05
18470.0 1.0506e-05
18490.0 1.0437e-05
18510.0 1.0366e-05
18530.0 1.0295e-05
18550.0 1.0226e-05
18570.0 1.0156e-05
18590.0 1.0084e-05
18610.0 1.0014e-05
18630.0 9.9444e-06
18650.0 9.8729e-06
18670.0 9.8013e-06
18690.0 9.733e-06
18710.0 9.6628e-06
18730.0 9.5913e-06
18750.0 9.5217e-06
18770.0 9.453e-06
18790.0 9.3805e-06
18810.0 9.3096e-06
18830.0 9.241e-06
18850.0 9.1708e-06
18870.0 9.0993e-06
18890.0 9.0304e-06
18910.0 8.9617e-06
18930.0 8.8905e-06
18950.0 8.8203e-06
18970.0 8.752e-06
18990.0 8.682e-06
19010.0 8.6097e-06
19030.0 8.5416e-06
19050.0 8.4731e-06
19070.0 8.4026e-06
19090.0 8.3331e-06
19110.0 8.266e-06
19130.0 8.1957e-06
19150.0 8.1254e-06
19170.0 8.0573e-06
19190.0 7.989e-06
19210.0 7.9185e-06
19230.0 7.8493e-06
19250.0 7.7827e-06
19270.0 7.7137e-06
19290.0 7.6444e-06
19310.0 7.5774e-06
19330.0 7.51e-06
19350.0 7.4395e-06
19370.0 7.3716e-06
19390.0 7.3049e-06
19410.0 7.2365e-06
19430.0 7.1676e-06
19450.0 7.1017e-06
19470.0 7.0348e-06
19490.0 6.9662e-06
19510.0 6.8993e-06
19530.0 6.8336e-06
19550.0 6.7653e-06
19570.0 6.697e-06
19590.0 6.6318e-06
19610.0 6.5655e-06
19630.0 6.4979e-06
19650.0 6.4321e-06
19670.0 6.3675e-06
19690.0 6.3002e-06
19710.0 6.2335e-06
19730.0 6.1689e-06
19750.0 6.1034e-06
19770.0 6.0357e-06
19790.0 5.9709e-06
19810.0 5.9069e-06
19830.0 5.8407e-06
19850.0 5.7747e-06
19870.0 5.7103e-06
19890.0 5.6425e-06
19910.0 5.5703e-06
19930.0 5.4963e-06
19950.0 5.4163e-06
19970.0 5.3245e-06
19990.0 5.2218e-06
20010.0 5.1128e-06
20030.0 4.9897e-06
20050.0 4.8556e-06
20070.0 4.7203e-06
20090.0 4.585e-06
20110.0 4.4441e-06
20130.0 4.3136e-06
20150.0 4.1953e-06
20170.0 4.0837e-06
20190.0 3.9816e-06
20210.0 3.8945e-06
20230.0 3.8181e-06
20250.0 3.75e-06
20270.0 3.6941e-06
20290.0 3.6494e-06
20310.0 3.613e-06
20330.0 3.5852e-06
20350.0 3.5675e-06
20370.0 3.5572e-06
20390.0 3.5546e-06
20410.0 3.5594e-06
20430.0 3.5706e-06
20450.0 3.5897e-06
20470.0 3.6161e-06
20490.0 3.6481e-06
20510.0 3.6868e-06
20530.0 3.7339e-06
20550.0 3.786e-06
20570.0 3.8415e-06
20590.0 3.9044e-06
20610.0 3.9718e-06
20630.0 4.04e-06
20650.0 4.1112e-06
20670.0 4.1875e-06
20690.0 4.2604e-06
20710.0 4.3312e-06
20730.0 4.4027e-06
20750.0 4.4722e-06
20770.0 4.5357e-06
20790.0 4.5981e-06
20810.0 4.66e-06
20830.0 4.7181e-06
20850.0 4.7741e-06
20870.0 4.8326e-06
20890.0 4.8917e-06
20910.0 4.9491e-06
20930.0 5.0097e-06
20950.0 5.0743e-06
20970.0 5.1389e-06
20990.0 5.2041e-06
21010.0 5.2739e-06
21030.0 5.3425e-06
21050.0 5.4075e-06
21070.0 5.4711e-06
21090.0 5.5325e-06
21110.0 5.585e-06
21130.0 5.6305e-06
21150.0 5.6699e-06
21170.0 5.7002e-06
21190.0 5.7206e-06
21210.0 5.7326e-06
21230.0 5.735e-06
21250.0 5.7277e-06
21270.0 5.7116e-06
21290.0 5.6862e-06
21310.0 5.6525e-06
21330.0 5.6128e-06
21350.0 5.5649e-06
21370.0 5.5098e-06
21390.0 5.4509e-06
21410.0 5.3877e-06
21430.0 5.3167e-06
21450.0 5.2448e-06
21470.0 5.173e-06
21490.0 5.0981e-06
21510.0 5.0221e-06
21530.0 4.95e-06
21550.0 4.8794e-06
21570.0 4.8089e-06
21590.0 4.7441e-06
21610.0 4.6854e-06
21630.0 4.6307e-06
21650.0 4.5814e-06
21670.0 4.5425e-06
21690.0 4.5103e-06
21710.0 4.4858e-06
21730.0 4.4705e-06
21750.0 4.4638e-06
21770.0 4.466e-06
21790.0 4.4776e-06
21810.0 4.4973e-06
21830.0 4.5255e-06
21850.0 4.5631e-06
21870.0 4.6075e-06
21890.0 4.6572e-06
21910.0 4.7154e-06
21930.0 4.7797e-06
21950.0 4.8466e-06
21970.0 4.9188e-06
21990.0 4.9985e-06
22010.0 5.0772e-06
22030.0 5.1567e-06
22050.0 5.2401e-06
22070.0 5.3238e-06
22090.0 5.403e-06
22110.0 5.4828e-06
22130.0 5.5621e-06
22150.0 5.6354e-06
22170.0 5.7036e-06
22190.0 5.7694e-06
22210.0 5.8283e-06
22230.0 5.8771e-06
22250.0 5.9194e-06
22270.0 5.9533e-06
22290.0 5.9765e-06
22310.0 5.9896e-06
22330.0 5.9924e-06
22350.0 5.9832e-06
22370.0 5.9631e-06
22390.0 5.9311e-06
22410.0 5.8856e-06
22430.0 5.8308e-06
22450.0 5.7657e-06
22470.0 5.6874e-06
22490.0 5.5999e-06
22510.0 5.5066e-06
22530.0 5.4009e-06
22550.0 5.2854e-06
22570.0 5.1683e-06
22590.0 5.0461e-06
22610.0 4.9153e-06
22630.0 4.7828e-06
