#lamb flux
1010.0 1.274e-06
1030.0 1.3316e-06
1050.0 1.3982e-06
1070.0 1.4732e-06
1090.0 1.5585e-06
1110.0 1.6462e-06
1130.0 1.7347e-06
1150.0 1.8277e-06
1170.0 1.924e-06
1190.0 2.0157e-06
1210.0 2.1091e-06
1230.0 2.2059e-06
1250.0 2.3013e-06
1270.0 2.3945e-06
1290.0 2.4934e-06
1310.0 2.5928e-06
1330.0 2.6888e-06
1350.0 2.7865e-06
1370.0 2.8879e-06
1390.0 2.9875e-06
1410.0 3.0851e-06
1430.0 3.1875e-06
1450.0 3.2906e-06
1470.0 3.3913e-06
1490.0 3.4936e-06
1510.0 3.602e-06
1530.0 3.7057e-06
1550.0 3.8088e-06
1570.0 3.9157e-06
1590.0 4.0231e-06
1610.0 4.1265e-06
1630.0 4.2332e-06
1650.0 4.3425e-06
1670.0 4.4487e-06
1690.0 4.5535e-06
1710.0 4.6619e-06
1730.0 4.7704e-06
1750.0 4.8725e-06
1770.0 4.9767e-06
1790.0 5.0821e-06
1810.0 5.1834e-06
1830.0 5.282e-06
1850.0 5.3853e-06
1870.0 5.4848e-06
1890.0 5.5796e-06
1910.0 5.6749e-06
1930.0 5.7713e-06
1950.0 5.8617e-06
1970.0 5.9496e-06
1990.0 6.0399e-06
2010.0 6.1275e-06
2030.0 6.2106e-06
2050.0 6.2959e-06
2070.0 6.3831e-06
2090.0 6.4645e-06
2110.0 6.5457e-06
2130.0 6.6302e-06
2150.0 6.7138e-06
2170.0 6.7947e-06
2190.0 6.8807e-06
2210.0 6.9696e-06
2230.0 7.0574e-06
2250.0 7.1481e-06
2270.0 7.2467e-06
2290.0 7.3466e-06
2310.0 7.4476e-06
2330.0 7.5568e-06
2350.0 7.6727e-06
2370.0 7.7912e-06
2390.0 7.9178e-06
2410.0 8.0563e-06
2430.0 8.1996e-06
2450.0 8.3478e-06
2470.0 8.5039e-06
2490.0 8.664e-06
2510.0 8.8214e-06
2530.0 8.9891e-06
2550.0 9.1886e-06
2570.0 9.4534e-06
2590.0 9.8317e-06
2610.0 1.0428e-05
2630.0 1.1309e-05
2650.0 1.2475e-05
2670.0 1.3972e-05
2690.0 1.5801e-05
2710.0 1.7783e-05
2730.0 1.9816e-05
2750.0 2.1936e-05
2770.0 2.3996e-05
2790.0 2.5934e-05
2810.0 2.784e-05
2830.0 2.9798e-05
2850.0 3.1698e-05
2870.0 3.3637e-05
2890.0 3.5695e-05
2910.0 3.7832e-05
2930.0 3.9987e-05
2950.0 4.2274e-05
2970.0 4.4675e-05
2990.0 4.7097e-05
3010.0 8.7564e-05
3030.0 9.2138e-05
3050.0 9.6745e-05
3070.0 0.00010108
3090.0 0.00010513
3110.0 0.0001083
3130.0 0.0001098
3150.0 0.00010884
3170.0 0.0001038
3190.0 9.4237e-05
3210.0 8.0142e-05
3230.0 6.3796e-05
3250.0 7.5904e-05
3270.0 4.6811e-05
3290.0 7.9835e-05
3310.0 3.5331e-05
3330.0 3.7811e-05
3350.0 4.6325e-05
3370.0 5.5638e-05
3390.0 6.5331e-05
3410.0 7.4978e-05
3430.0 8.4942e-05
3450.0 9.4847e-05
3470.0 0.00010406
3490.0 0.00011036
3510.0 0.00012756
3530.0 0.00016163
3550.0 0.00017368
3570.0 0.00017321
3590.0 0.00022779
3610.0 0.00018878
3630.0 0.00023788
3650.0 0.00024884
3670.0 0.00029403
3690.0 0.00030152
3710.0 0.00027051
3730.0 0.00033186
3750.0 0.00034585
3770.0 0.00035151
3790.0 0.00032536
3810.0 0.00028213
3830.0 0.00030585
3850.0 0.00029112
3870.0 0.00034126
3890.0 0.00034898
3910.0 0.00036403
3930.0 0.00041412
3950.0 0.00045996
3970.0 0.00057151
3990.0 0.00053673
4010.0 0.00045251
4030.0 0.00050321
4050.0 0.00048854
4070.0 0.00051126
4090.0 0.00048489
4110.0 0.00040153
4130.0 0.00046275
4150.0 0.00043206
4170.0 0.00044916
4190.0 0.00044741
4210.0 0.00050717
4230.0 0.00042019
4250.0 0.00047781
4270.0 0.00047723
4290.0 0.0004837
4310.0 0.00054561
4330.0 0.00056781
4350.0 0.00050827
4370.0 0.0004768
4390.0 0.00049922
4410.0 0.00046947
4430.0 0.00038026
4450.0 0.0003685
4470.0 0.00039872
4490.0 0.000348
4510.0 0.00040045
4530.0 0.00043825
4550.0 0.00055373
4570.0 0.00076354
4590.0 0.00083616
4610.0 0.00074916
4630.0 0.0009642
4650.0 0.0011909
4670.0 0.0011502
4690.0 0.00087579
4710.0 0.00085917
4730.0 0.00090294
4750.0 0.00077833
4770.0 0.00062356
4790.0 0.00050004
4810.0 0.00061872
4830.0 0.00069766
4850.0 0.00070833
4870.0 0.00049679
4890.0 0.0007657
4910.0 0.00091285
4930.0 0.00098519
4950.0 0.0010616
4970.0 0.0009215
4990.0 0.00099769
5010.0 0.0010016
5030.0 0.00093577
5050.0 0.00083836
5070.0 0.00063777
5090.0 0.00055091
5110.0 0.00052767
5130.0 0.00049479
5150.0 0.000543
5170.0 0.00050146
5190.0 0.00056871
5210.0 0.00057376
5230.0 0.00062268
5250.0 0.00076392
5270.0 0.00074922
5290.0 0.00078076
5310.0 0.00098091
5330.0 0.0010989
5350.0 0.0010398
5370.0 0.00098794
5390.0 0.001026
5410.0 0.0011297
5430.0 0.0011991
5450.0 0.001321
5470.0 0.0014494
5490.0 0.001552
5510.0 0.0017685
5530.0 0.0018295
5550.0 0.0018813
5570.0 0.001911
5590.0 0.0018857
5610.0 0.0018385
5630.0 0.001816
5650.0 0.0018407
5670.0 0.0018288
5690.0 0.0016492
5710.0 0.0015401
5730.0 0.0014605
5750.0 0.0014817
5770.0 0.0013513
5790.0 0.0013133
5810.0 0.0013648
5830.0 0.0014241
5850.0 0.001351
5870.0 0.0013217
5890.0 0.0014225
5910.0 0.0013789
5930.0 0.0012523
5950.0 0.0011659
5970.0 0.0011728
5990.0 0.0010623
6010.0 0.0009623
6030.0 0.00093171
6050.0 0.0008899
6070.0 0.00077287
6090.0 0.0007366
6110.0 0.00082881
6130.0 0.00089171
6150.0 0.00094336
6170.0 0.00098462
6190.0 0.0010131
6210.0 0.0010293
6230.0 0.0010957
6250.0 0.0010105
6270.0 0.00090755
6290.0 0.00080389
6310.0 0.00073166
6330.0 0.00068705
6350.0 0.00063482
6370.0 0.00064917
6390.0 0.00074753
6410.0 0.000901
6430.0 0.0010529
6450.0 0.0010968
6470.0 0.0011451
6490.0 0.0013061
6510.0 0.0014049
6530.0 0.0013655
6550.0 0.0013488
6570.0 0.0013658
6590.0 0.0013353
6610.0 0.0013943
6630.0 0.0013454
6650.0 0.0012582
6670.0 0.0011624
6690.0 0.001086
6710.0 0.0011613
6730.0 0.001088
6750.0 0.0010219
6770.0 0.00099483
6790.0 0.0010335
6810.0 0.0010846
6830.0 0.00106
6850.0 0.00099673
6870.0 0.00099081
6890.0 0.00095503
6910.0 0.00090684
6930.0 0.00097868
6950.0 0.00095335
6970.0 0.00095048
6990.0 0.00097274
7010.0 0.00094702
7030.0 0.00088889
7050.0 0.00081991
7070.0 0.00079236
7090.0 0.00072512
7110.0 0.00065531
7130.0 0.00058186
7150.0 0.00054666
7170.0 0.00062978
7190.0 0.00066472
7210.0 0.0006753
7230.0 0.00072791
7250.0 0.00073364
7270.0 0.00072949
7290.0 0.00075413
7310.0 0.00076918
7330.0 0.00073651
7350.0 0.00070298
7370.0 0.00069426
7390.0 0.00073254
7410.0 0.00082988
7430.0 0.00091491
7450.0 0.0010066
7470.0 0.0010459
7490.0 0.0010723
7510.0 0.001025
7530.0 0.00098274
7550.0 0.00090794
7570.0 0.00078564
7590.0 0.00075256
7610.0 0.00074305
7630.0 0.00074468
7650.0 0.00083275
7670.0 0.00091745
7690.0 0.00099842
7710.0 0.0010877
7730.0 0.0011541
7750.0 0.001205
7770.0 0.0012115
7790.0 0.00128
7810.0 0.0013144
7830.0 0.0012688
7850.0 0.0012729
7870.0 0.0012174
7890.0 0.0012192
7910.0 0.001151
7930.0 0.0011376
7950.0 0.0010591
7970.0 0.0010758
7990.0 0.001048
8010.0 0.0010274
8030.0 0.001025
8050.0 0.0010611
8070.0 0.0010334
8090.0 0.0010331
8110.0 0.00099786
8130.0 0.00099272
8150.0 0.00095672
8170.0 0.00092814
8190.0 0.00091437
8210.0 0.0009195
8230.0 0.00083909
8250.0 0.00077434
8270.0 0.00067512
8290.0 0.00055067
8310.0 0.00044788
8330.0 0.00035092
8350.0 0.0003016
8370.0 0.00032383
8390.0 0.000352
8410.0 0.00038246
8430.0 0.00044469
8450.0 0.0004712
8470.0 0.00049359
8490.0 0.00055418
8510.0 0.00060834
8530.0 0.00070327
8550.0 0.00082885
8570.0 0.00093398
8590.0 0.0010149
8610.0 0.0010985
8630.0 0.0011781
8650.0 0.0011911
8670.0 0.0011963
8690.0 0.0012356
8710.0 0.0012362
8730.0 0.0012409
8750.0 0.0011953
8770.0 0.0011946
8790.0 0.0011753
8810.0 0.0010887
8830.0 0.0010726
8850.0 0.0010113
8870.0 0.00096981
8890.0 0.00090684
8910.0 0.00094619
8930.0 0.00087844
8950.0 0.00085367
8970.0 0.00084628
8990.0 0.00082055
9010.0 0.00082003
9030.0 0.00079358
9050.0 0.00078908
9070.0 0.00078742
9090.0 0.00078569
9110.0 0.00078413
9130.0 0.00078221
9150.0 0.00078013
9170.0 0.00077662
9190.0 0.00077092
9210.0 0.00077696
9230.0 0.00077286
9250.0 0.00076969
9270.0 0.00076667
9290.0 0.00076374
9310.0 0.00076089
9330.0 0.00075803
9350.0 0.00075514
9370.0 0.00075223
9390.0 0.00074926
9410.0 0.00074624
9430.0 0.00074314
9450.0 0.00073988
9470.0 0.00073662
9490.0 0.00073353
9510.0 0.00073034
9530.0 0.00072711
9550.0 0.00072381
9570.0 0.00072047
9590.0 0.00071711
9610.0 0.00071373
9630.0 0.0007103
9650.0 0.00070687
9670.0 0.00070343
9690.0 0.00069997
9710.0 0.0006965
9730.0 0.00069303
9750.0 0.00068955
9770.0 0.00068606
9790.0 0.00068258
9810.0 0.00067911
9830.0 0.00067563
9850.0 0.00067217
9870.0 0.00066871
9890.0 0.00066526
9910.0 0.00066181
9930.0 0.00065835
9950.0 0.000652
9970.0 0.00064947
9990.0 0.0006468
10010.0 0.00064407
10030.0 0.00064111
10050.0 0.00063789
10070.0 0.00063432
10090.0 0.00063135
10110.0 0.0006282
10130.0 0.00062512
10150.0 0.00062206
10170.0 0.00061891
10190.0 0.00061565
10210.0 0.00061258
10230.0 0.00060958
10250.0 0.00060648
10270.0 0.00060343
10290.0 0.00060054
10310.0 0.00059755
10330.0 0.0005945
10350.0 0.00059163
10370.0 0.00058881
10390.0 0.0005859
10410.0 0.00058304
10430.0 0.00058036
10450.0 0.00057759
10470.0 0.00057479
10490.0 0.00057213
10510.0 0.00056952
10530.0 0.00056675
10550.0 0.00056409
10570.0 0.00056159
10590.0 0.00055901
10610.0 0.0005564
10630.0 0.00055396
10650.0 0.00055152
10670.0 0.00054896
10690.0 0.00054651
10710.0 0.00054416
10730.0 0.00054174
10750.0 0.00053924
10770.0 0.00053697
10790.0 0.00053469
10810.0 0.00053231
10830.0 0.00053
10850.0 0.00052781
10870.0 0.00052537
10890.0 0.00052284
10910.0 0.00052027
10930.0 0.00051734
10950.0 0.00051375
10970.0 0.00050957
10990.0 0.00050479
11010.0 0.00047815
11030.0 0.00047187
11050.0 0.00046504
11070.0 0.00045748
11090.0 0.00044891
11110.0 0.00044053
11130.0 0.00043216
11150.0 0.00042346
11170.0 0.00041482
11190.0 0.00040674
11210.0 0.00039859
11230.0 0.00039039
11250.0 0.00038272
11270.0 0.00037544
11290.0 0.00036813
11310.0 0.00036117
11330.0 0.00035502
11350.0 0.00034906
11370.0 0.00034333
11390.0 0.00033819
11410.0 0.00033347
11430.0 0.0003287
11450.0 0.00032427
11470.0 0.00032017
11490.0 0.000316
11510.0 0.00031165
11530.0 0.00030746
11550.0 0.00030315
11570.0 0.00029841
11590.0 0.00029345
11610.0 0.00028843
11630.0 0.00028288
11650.0 0.00027686
11670.0 0.00027092
11690.0 0.00026479
11710.0 0.00025826
11730.0 0.00025176
11750.0 0.00024558
11770.0 0.00023919
11790.0 0.00023287
11810.0 0.00022702
11830.0 0.00022144
11850.0 0.00021583
11870.0 0.00021077
11890.0 0.00020625
11910.0 0.00020188
11930.0 0.00019777
11950.0 0.00019416
11970.0 0.00019076
11990.0 0.00018742
12010.0 0.00018442
12030.0 0.00018168
12050.0 0.00017898
12070.0 0.00017636
12090.0 0.00017409
12110.0 0.0001719
12130.0 0.00016977
12150.0 0.00016787
12170.0 0.00016623
12190.0 0.00016465
12210.0 0.00016336
12230.0 0.00016246
12250.0 0.00016188
12270.0 0.00016166
12290.0 0.00016194
12310.0 0.00016269
12330.0 0.00016395
12350.0 0.00016574
12370.0 0.00016801
12390.0 0.00017077
12410.0 0.00017412
12430.0 0.00017775
12450.0 0.00018165
12470.0 0.00018589
12490.0 0.00019027
12510.0 0.00019457
12530.0 0.00019894
12550.0 0.00020328
12570.0 0.00020733
12590.0 0.00021113
12610.0 0.00021474
12630.0 0.00021801
12650.0 0.00022083
12670.0 0.00022336
12690.0 0.00022554
12710.0 0.00022732
12730.0 0.00022876
12750.0 0.00022987
12770.0 0.00023062
12790.0 0.00023108
12810.0 0.00023123
12830.0 0.00023106
12850.0 0.00023067
12870.0 0.00023005
12890.0 0.00022913
12910.0 0.00022802
12930.0 0.00022677
12950.0 0.00022524
12970.0 0.00022345
12990.0 0.00022162
13010.0 0.00021961
13030.0 0.00021733
13050.0 0.00021493
13070.0 0.00021252
13090.0 0.00020985
13110.0 0.00020703
13130.0 0.00020426
13150.0 0.00020147
13170.0 0.00019851
13190.0 0.00019576
13210.0 0.00019326
13230.0 0.00019087
13250.0 0.00018874
13270.0 0.00018703
13290.0 0.00018566
13310.0 0.00018462
13330.0 0.00018405
13350.0 0.00018388
13370.0 0.00018403
13390.0 0.00018449
13410.0 0.00018515
13430.0 0.00018591
13450.0 0.00018668
13470.0 0.00018734
13490.0 0.00018781
13510.0 0.00018798
13530.0 0.00018778
13550.0 0.00018721
13570.0 0.00018622
13590.0 0.00018477
13610.0 0.000183
13630.0 0.00018097
13650.0 0.00017858
13670.0 0.00017602
13690.0 0.00017343
13710.0 0.00017076
13730.0 0.00016797
13750.0 0.00016541
13770.0 0.00016298
13790.0 0.0001606
13810.0 0.00015839
13830.0 0.00015641
13850.0 0.00015451
13870.0 0.0001527
13890.0 0.00015108
13910.0 0.00014958
13930.0 0.0001481
13950.0 0.00014672
13970.0 0.00014547
13990.0 0.00014425
14010.0 0.00014307
14030.0 0.00014199
14050.0 0.00014098
14070.0 0.00014
14090.0 0.00013911
14110.0 0.00013832
14130.0 0.00013759
14150.0 0.00013693
14170.0 0.00013637
14190.0 0.00013589
14210.0 0.00013549
14230.0 0.00013517
14250.0 0.00013493
14270.0 0.00013478
14290.0 0.00013472
14310.0 0.00013474
14330.0 0.00013483
14350.0 0.00013501
14370.0 0.00013524
14390.0 0.0001355
14410.0 0.00013581
14430.0 0.00013614
14450.0 0.00013643
14470.0 0.0001367
14490.0 0.00013696
14510.0 0.00013714
14530.0 0.00013725
14550.0 0.00013732
14570.0 0.00013734
14590.0 0.00013731
14610.0 0.00013728
14630.0 0.00013728
14650.0 0.00013731
14670.0 0.00013741
14690.0 0.00013764
14710.0 0.00013802
14730.0 0.00013852
14750.0 0.00013923
14770.0 0.00014017
14790.0 0.00014131
14810.0 0.00014261
14830.0 0.00014428
14850.0 0.00014613
14870.0 0.00014807
14890.0 0.00015019
14910.0 0.00015246
14930.0 0.00015459
14950.0 0.00015653
14970.0 0.00015831
14990.0 0.00015968
15010.0 0.00016058
15030.0 0.00016106
15050.0 0.00016115
15070.0 0.00016086
15090.0 0.00016032
15110.0 0.00015961
15130.0 0.0001588
15150.0 0.00015793
15170.0 0.00015703
15190.0 0.0001561
15210.0 0.00015518
15230.0 0.00015426
15250.0 0.00015333
15270.0 0.0001524
15290.0 0.00015147
15310.0 0.00015055
15330.0 0.00014962
15350.0 0.0001487
15370.0 0.00014778
15390.0 0.00014685
15410.0 0.00014592
15430.0 0.00014501
15450.0 0.00014409
15470.0 0.00014317
15490.0 0.00014226
15510.0 0.00014135
15530.0 0.00014044
15550.0 0.00013953
15570.0 0.00013864
15590.0 0.00013773
15610.0 0.00013683
15630.0 0.00013594
15650.0 0.00013505
15670.0 0.00013416
15690.0 0.00013328
15710.0 0.00013241
15730.0 0.00013153
15750.0 0.00013066
15770.0 0.00012979
15790.0 0.00012893
15810.0 0.00012807
15830.0 0.00012722
15850.0 0.00012637
15870.0 0.00012553
15890.0 0.00012469
15910.0 0.00012386
15930.0 0.00012303
15950.0 0.0001222
15970.0 0.00012139
15990.0 0.00012058
16010.0 0.00011977
16030.0 0.00011896
16050.0 0.00011817
16070.0 0.00011738
16090.0 0.00011659
16110.0 0.00011581
16130.0 0.00011504
16150.0 0.00011426
16170.0 0.0001135
16190.0 0.00011274
16210.0 0.00011199
16230.0 0.00011124
16250.0 0.00011051
16270.0 0.00010978
16290.0 0.00010904
16310.0 0.00010832
16330.0 0.00010761
16350.0 0.0001069
16370.0 0.00010619
16390.0 0.00010549
16410.0 0.0001048
16430.0 0.00010411
16450.0 0.00010343
16470.0 0.00010276
16490.0 0.00010209
16510.0 0.00010143
16530.0 0.00010077
16550.0 0.00010012
16570.0 9.9474e-05
16590.0 9.8834e-05
16610.0 9.8206e-05
16630.0 9.758e-05
16650.0 9.6957e-05
16670.0 9.6345e-05
16690.0 9.5739e-05
16710.0 9.5131e-05
16730.0 9.4534e-05
16750.0 9.3946e-05
16770.0 9.336e-05
16790.0 9.2778e-05
16810.0 9.2207e-05
16830.0 9.1642e-05
16850.0 9.1077e-05
16870.0 9.0521e-05
16890.0 8.9974e-05
16910.0 8.9427e-05
16930.0 8.8884e-05
16950.0 8.8354e-05
16970.0 8.7827e-05
16990.0 8.7302e-05
17010.0 8.6786e-05
17030.0 8.6278e-05
17050.0 8.577e-05
17070.0 8.5268e-05
17090.0 8.4775e-05
17110.0 8.4286e-05
17130.0 8.3797e-05
17150.0 8.3318e-05
17170.0 8.2847e-05
17190.0 8.2377e-05
17210.0 8.1912e-05
17230.0 8.1457e-05
17250.0 8.1004e-05
17270.0 8.0551e-05
17290.0 8.0109e-05
17310.0 7.9672e-05
17330.0 7.9237e-05
17350.0 7.8805e-05
17370.0 7.8385e-05
17390.0 7.7966e-05
17410.0 7.755e-05
17430.0 7.7141e-05
17450.0 7.6739e-05
17470.0 7.6335e-05
17490.0 7.5937e-05
17510.0 7.5549e-05
17530.0 7.5162e-05
17550.0 7.4777e-05
17570.0 7.44e-05
17590.0 7.403e-05
17610.0 7.3658e-05
17630.0 7.3292e-05
17650.0 7.2934e-05
17670.0 7.2577e-05
17690.0 7.222e-05
17710.0 7.1874e-05
17730.0 7.1532e-05
17750.0 7.1189e-05
17770.0 7.0853e-05
17790.0 7.0524e-05
17810.0 7.0194e-05
17830.0 6.9867e-05
17850.0 6.9548e-05
17870.0 6.9233e-05
17890.0 6.8916e-05
17910.0 6.8606e-05
17930.0 6.8303e-05
17950.0 6.8001e-05
17970.0 6.77e-05
17990.0 6.7407e-05
18010.0 6.7118e-05
18030.0 6.6825e-05
18050.0 6.654e-05
18070.0 6.6261e-05
18090.0 6.5982e-05
18110.0 6.5705e-05
18130.0 6.5436e-05
18150.0 6.5169e-05
18170.0 6.4902e-05
18190.0 6.464e-05
18210.0 6.4384e-05
18230.0 6.4126e-05
18250.0 6.3871e-05
18270.0 6.3623e-05
18290.0 6.3377e-05
18310.0 6.3131e-05
18330.0 6.2891e-05
18350.0 6.2656e-05
18370.0 6.2419e-05
18390.0 6.2185e-05
18410.0 6.1957e-05
18430.0 6.173e-05
18450.0 6.1502e-05
18470.0 6.1281e-05
18490.0 6.1065e-05
18510.0 6.0847e-05
18530.0 6.0632e-05
18550.0 6.0423e-05
18570.0 6.0214e-05
18590.0 6.0004e-05
18610.0 5.9801e-05
18630.0 5.9601e-05
18650.0 5.9399e-05
18670.0 5.92e-05
18690.0 5.9009e-05
18710.0 5.8816e-05
18730.0 5.8624e-05
18750.0 5.8437e-05
18770.0 5.8253e-05
18790.0 5.8065e-05
18810.0 5.7883e-05
18830.0 5.7705e-05
18850.0 5.7527e-05
18870.0 5.7349e-05
18890.0 5.7177e-05
18910.0 5.7008e-05
18930.0 5.6835e-05
18950.0 5.6667e-05
18970.0 5.6503e-05
18990.0 5.6339e-05
19010.0 5.6172e-05
19030.0 5.6014e-05
19050.0 5.5856e-05
19070.0 5.5697e-05
19090.0 5.5542e-05
19110.0 5.5391e-05
19130.0 5.5238e-05
19150.0 5.5085e-05
19170.0 5.4938e-05
19190.0 5.4791e-05
19210.0 5.4643e-05
19230.0 5.4498e-05
19250.0 5.4359e-05
19270.0 5.4217e-05
19290.0 5.4076e-05
19310.0 5.3939e-05
19330.0 5.3804e-05
19350.0 5.3665e-05
19370.0 5.3531e-05
19390.0 5.34e-05
19410.0 5.3268e-05
19430.0 5.3135e-05
19450.0 5.3009e-05
19470.0 5.2883e-05
19490.0 5.2754e-05
19510.0 5.263e-05
19530.0 5.2508e-05
19550.0 5.2383e-05
19570.0 5.2259e-05
19590.0 5.2141e-05
19610.0 5.2023e-05
19630.0 5.1902e-05
19650.0 5.1786e-05
19670.0 5.1673e-05
19690.0 5.1556e-05
19710.0 5.1441e-05
19730.0 5.133e-05
19750.0 5.1218e-05
19770.0 5.1103e-05
19790.0 5.0994e-05
19810.0 5.0887e-05
19830.0 5.0776e-05
19850.0 5.0665e-05
19870.0 5.0554e-05
19890.0 5.0432e-05
19910.0 5.0292e-05
19930.0 5.013e-05
19950.0 4.993e-05
19970.0 4.9665e-05
19990.0 4.9325e-05
20010.0 4.8921e-05
20030.0 4.8417e-05
20050.0 4.7814e-05
20070.0 4.7154e-05
20090.0 4.644e-05
20110.0 4.5631e-05
20130.0 4.4813e-05
20150.0 4.4004e-05
20170.0 4.3167e-05
20190.0 4.2318e-05
20210.0 4.1516e-05
20230.0 4.0732e-05
20250.0 3.9943e-05
20270.0 3.9207e-05
20290.0 3.853e-05
20310.0 3.7882e-05
20330.0 3.727e-05
20350.0 3.6758e-05
20370.0 3.6301e-05
20390.0 3.5896e-05
20410.0 3.557e-05
20430.0 3.5321e-05
20450.0 3.5128e-05
20470.0 3.5008e-05
20490.0 3.4958e-05
20510.0 3.497e-05
20530.0 3.5044e-05
20550.0 3.5172e-05
20570.0 3.5341e-05
20590.0 3.5559e-05
20610.0 3.5814e-05
20630.0 3.6087e-05
20650.0 3.6382e-05
20670.0 3.6705e-05
20690.0 3.702e-05
20710.0 3.7326e-05
20730.0 3.7633e-05
20750.0 3.7923e-05
20770.0 3.8179e-05
20790.0 3.8413e-05
20810.0 3.8621e-05
20830.0 3.8786e-05
20850.0 3.8913e-05
20870.0 3.9004e-05
20890.0 3.9051e-05
20910.0 3.9057e-05
20930.0 3.9024e-05
20950.0 3.8951e-05
20970.0 3.8845e-05
20990.0 3.8709e-05
21010.0 3.8535e-05
21030.0 3.8336e-05
21050.0 3.8122e-05
21070.0 3.7884e-05
21090.0 3.7621e-05
21110.0 3.7361e-05
21130.0 3.7097e-05
21150.0 3.6821e-05
21170.0 3.6548e-05
21190.0 3.6291e-05
21210.0 3.6033e-05
21230.0 3.5783e-05
21250.0 3.5561e-05
21270.0 3.5359e-05
21290.0 3.5173e-05
21310.0 3.5017e-05
21330.0 3.4895e-05
21350.0 3.4798e-05
21370.0 3.4732e-05
21390.0 3.47e-05
21410.0 3.47e-05
21430.0 3.4733e-05
21450.0 3.4798e-05
21470.0 3.4891e-05
21490.0 3.5014e-05
21510.0 3.5166e-05
21530.0 3.5337e-05
21550.0 3.553e-05
21570.0 3.5751e-05
21590.0 3.5985e-05
21610.0 3.6229e-05
21630.0 3.6494e-05
21650.0 3.6778e-05
21670.0 3.7054e-05
21690.0 3.7343e-05
21710.0 3.7646e-05
21730.0 3.795e-05
21750.0 3.8248e-05
21770.0 3.8568e-05
21790.0 3.8889e-05
21810.0 3.9202e-05
21830.0 3.9519e-05
21850.0 3.9847e-05
21870.0 4.0166e-05
21890.0 4.0475e-05
21910.0 4.0794e-05
21930.0 4.1108e-05
21950.0 4.1406e-05
21970.0 4.1701e-05
21990.0 4.1999e-05
22010.0 4.227e-05
22030.0 4.2524e-05
22050.0 4.2767e-05
22070.0 4.2988e-05
22090.0 4.3176e-05
22110.0 4.3342e-05
22130.0 4.348e-05
22150.0 4.358e-05
22170.0 4.3643e-05
22190.0 4.3669e-05
22210.0 4.3651e-05
22230.0 4.3594e-05
22250.0 4.3491e-05
22270.0 4.334e-05
22290.0 4.315e-05
22310.0 4.2921e-05
22330.0 4.2635e-05
22350.0 4.2311e-05
22370.0 4.1958e-05
22390.0 4.1562e-05
22410.0 4.1117e-05
22430.0 4.0663e-05
22450.0 4.0188e-05
22470.0 3.9672e-05
22490.0 3.9144e-05
22510.0 3.8621e-05
22530.0 3.8067e-05
22550.0 3.7498e-05
22570.0 3.6953e-05
22590.0 3.6412e-05
22610.0 3.5861e-05
22630.0 3.5328e-05
22650.0 3.4832e-05
22670.0 3.4334e-05
22690.0 3.385e-05
22710.0 3.3404e-05
22730.0 3.2981e-05
