#lamb flux
1010.0 1.6011e-06
1030.0 1.8046e-06
1050.0 2.0385e-06
1070.0 2.3019e-06
1090.0 2.6011e-06
1110.0 2.9079e-06
1130.0 3.2167e-06
1150.0 3.5402e-06
1170.0 3.8739e-06
1190.0 4.1903e-06
1210.0 4.511e-06
1230.0 4.8424e-06
1250.0 5.1671e-06
1270.0 5.4825e-06
1290.0 5.8156e-06
1310.0 6.1486e-06
1330.0 6.4679e-06
1350.0 6.7907e-06
1370.0 7.1241e-06
1390.0 7.449e-06
1410.0 7.7643e-06
1430.0 8.0939e-06
1450.0 8.4235e-06
1470.0 8.7419e-06
1490.0 9.0637e-06
1510.0 9.4036e-06
1530.0 9.7255e-06
1550.0 1.0043e-05
1570.0 1.0371e-05
1590.0 1.07e-05
1610.0 1.1014e-05
1630.0 1.1337e-05
1650.0 1.1668e-05
1670.0 1.1988e-05
1690.0 1.2304e-05
1710.0 1.2632e-05
1730.0 1.2961e-05
1750.0 1.3269e-05
1770.0 1.3586e-05
1790.0 1.3909e-05
1810.0 1.422e-05
1830.0 1.4524e-05
1850.0 1.4846e-05
1870.0 1.5158e-05
1890.0 1.5458e-05
1910.0 1.5762e-05
1930.0 1.6071e-05
1950.0 1.6362e-05
1970.0 1.6647e-05
1990.0 1.694e-05
2010.0 1.7225e-05
2030.0 1.7493e-05
2050.0 1.7767e-05
2070.0 1.8043e-05
2090.0 1.8296e-05
2110.0 1.8541e-05
2130.0 1.879e-05
2150.0 1.9024e-05
2170.0 1.9239e-05
2190.0 1.9455e-05
2210.0 1.9665e-05
2230.0 1.9854e-05
2250.0 2.0031e-05
2270.0 2.021e-05
2290.0 2.0369e-05
2310.0 2.0505e-05
2330.0 2.0638e-05
2350.0 2.0761e-05
2370.0 2.0861e-05
2390.0 2.0954e-05
2410.0 2.1055e-05
2430.0 2.1146e-05
2450.0 2.1236e-05
2470.0 2.135e-05
2490.0 2.1502e-05
2510.0 2.1681e-05
2530.0 2.196e-05
2550.0 2.2447e-05
2570.0 2.324e-05
2590.0 2.4473e-05
2610.0 2.6523e-05
2630.0 2.9475e-05
2650.0 3.3162e-05
2670.0 3.7622e-05
2690.0 4.266e-05
2710.0 4.7507e-05
2730.0 5.1783e-05
2750.0 5.5534e-05
2770.0 5.8333e-05
2790.0 6.0145e-05
2810.0 6.1271e-05
2830.0 6.1914e-05
2850.0 6.2078e-05
2870.0 6.2012e-05
2890.0 6.1851e-05
2910.0 6.1616e-05
2930.0 6.1312e-05
2950.0 6.1026e-05
2970.0 6.0757e-05
2990.0 6.0466e-05
3010.0 0.0012513
3030.0 0.0012448
3050.0 0.0012384
3070.0 0.0012309
3090.0 0.0012229
3110.0 0.0012133
3130.0 0.0012003
3150.0 0.0011835
3170.0 0.0011614
3190.0 0.0011346
3210.0 0.0011053
3230.0 0.001076
3250.0 0.0010516
3270.0 0.0010355
3290.0 0.0010318
3310.0 0.0010399
3330.0 0.0010621
3350.0 0.001095
3370.0 0.0011395
3390.0 0.001194
3410.0 0.0012527
3430.0 0.0013184
3450.0 0.0013935
3470.0 0.0014748
3490.0 0.00156
3510.0 0.0016551
3530.0 0.001756
3550.0 0.0018569
3570.0 0.0019621
3590.0 0.0020792
3610.0 0.0021997
3630.0 0.0023265
3650.0 0.0024584
3670.0 0.0025824
3690.0 0.0026792
3710.0 0.0027395
3730.0 0.0027513
3750.0 0.0027142
3770.0 0.002497
3790.0 0.002253
3810.0 0.0020888
3830.0 0.0018243
3850.0 0.0013575
3870.0 0.0009651
3890.0 0.0016136
3910.0 0.0026241
3930.0 0.0031736
3950.0 0.0031184
3970.0 0.0031874
3990.0 0.0037439
4010.0 0.0048091
4030.0 0.0048671
4050.0 0.0043136
4070.0 0.0038234
4090.0 0.0036145
4110.0 0.0043568
4130.0 0.0045539
4150.0 0.004444
4170.0 0.0045066
4190.0 0.0045944
4210.0 0.0045351
4230.0 0.0050093
4250.0 0.0054754
4270.0 0.0055542
4290.0 0.0056234
4310.0 0.0057677
4330.0 0.0063594
4350.0 0.0073338
4370.0 0.0083265
4390.0 0.0079042
4410.0 0.0064728
4430.0 0.0054316
4450.0 0.0046526
4470.0 0.0045163
4490.0 0.004962
4510.0 0.0055661
4530.0 0.0061501
4550.0 0.0071233
4570.0 0.008429
4590.0 0.010219
4610.0 0.013123
4630.0 0.015943
4650.0 0.016393
4670.0 0.015829
4690.0 0.016869
4710.0 0.017814
4730.0 0.015109
4750.0 0.010796
4770.0 0.0087956
4790.0 0.0084999
4810.0 0.0079036
4830.0 0.0074584
4850.0 0.0085411
4870.0 0.011024
4890.0 0.012671
4910.0 0.010751
4930.0 0.0095133
4950.0 0.010651
4970.0 0.014275
4990.0 0.018519
5010.0 0.019702
5030.0 0.016297
5050.0 0.010521
5070.0 0.0072287
5090.0 0.0064149
5110.0 0.0067041
5130.0 0.0072176
5150.0 0.0075821
5170.0 0.0075734
5190.0 0.0074128
5210.0 0.0071792
5230.0 0.0073578
5250.0 0.0078639
5270.0 0.00905
5290.0 0.010443
5310.0 0.011507
5330.0 0.011807
5350.0 0.011898
5370.0 0.012932
5390.0 0.013976
5410.0 0.013595
5430.0 0.011752
5450.0 0.010809
5470.0 0.01211
5490.0 0.015535
5510.0 0.01985
5530.0 0.022072
5550.0 0.021406
5570.0 0.019404
5590.0 0.017308
5610.0 0.015994
5630.0 0.015188
5650.0 0.015533
5670.0 0.015167
5690.0 0.014078
5710.0 0.013334
5730.0 0.012101
5750.0 0.0086911
5770.0 0.0075461
5790.0 0.0084891
5810.0 0.010262
5830.0 0.011685
5850.0 0.01282
5870.0 0.013202
5890.0 0.012756
5910.0 0.012214
5930.0 0.012249
5950.0 0.012832
5970.0 0.013678
5990.0 0.012959
6010.0 0.010904
6030.0 0.0090572
6050.0 0.00786
6070.0 0.0078123
6090.0 0.008806
6110.0 0.0096735
6130.0 0.0093231
6150.0 0.0085968
6170.0 0.009347
6190.0 0.011267
6210.0 0.013745
6230.0 0.015836
6250.0 0.015877
6270.0 0.014216
6290.0 0.011774
6310.0 0.0093556
6330.0 0.0074377
6350.0 0.006696
6370.0 0.0072448
6390.0 0.0085664
6410.0 0.0098942
6430.0 0.011471
6450.0 0.01335
6470.0 0.016324
6490.0 0.020099
6510.0 0.022232
6530.0 0.020675
6550.0 0.018982
6570.0 0.018435
6590.0 0.01772
6610.0 0.015822
6630.0 0.014246
6650.0 0.01311
6670.0 0.013587
6690.0 0.013417
6710.0 0.011919
6730.0 0.010831
6750.0 0.0097059
6770.0 0.0094226
6790.0 0.01038
6810.0 0.010683
6830.0 0.010969
6850.0 0.010742
6870.0 0.010281
6890.0 0.010035
6910.0 0.0096584
6930.0 0.0090723
6950.0 0.009228
6970.0 0.0093648
6990.0 0.010458
7010.0 0.011144
7030.0 0.01021
7050.0 0.0095745
7070.0 0.0092934
7090.0 0.0085075
7110.0 0.0079717
7130.0 0.0081448
7150.0 0.0085487
7170.0 0.0090698
7190.0 0.0091337
7210.0 0.0090617
7230.0 0.0094375
7250.0 0.010816
7270.0 0.012655
7290.0 0.013722
7310.0 0.013406
7330.0 0.01193
7350.0 0.010689
7370.0 0.010308
7390.0 0.010398
7410.0 0.010866
7430.0 0.011876
7450.0 0.012859
7470.0 0.014132
7490.0 0.015652
7510.0 0.015213
7530.0 0.014402
7550.0 0.012026
7570.0 0.0098363
7590.0 0.0078044
7610.0 0.0070812
7630.0 0.0074624
7650.0 0.0085405
7670.0 0.0094618
7690.0 0.010711
7710.0 0.011778
7730.0 0.012226
7750.0 0.012376
7770.0 0.012311
7790.0 0.012003
7810.0 0.012328
7830.0 0.011958
7850.0 0.010678
7870.0 0.0096167
7890.0 0.0088571
7910.0 0.0078593
7930.0 0.0067417
7950.0 0.0061444
7970.0 0.0060835
7990.0 0.0063387
8010.0 0.0067215
8030.0 0.0067894
8050.0 0.0067846
8070.0 0.0066109
8090.0 0.0066473
8110.0 0.0062918
8130.0 0.0057305
8150.0 0.0053774
8170.0 0.0051387
8190.0 0.0051957
8210.0 0.005324
8230.0 0.0056121
8250.0 0.0054589
8270.0 0.0048804
8290.0 0.0038294
8310.0 0.0026043
8330.0 0.0017047
8350.0 0.0012214
8370.0 0.0014107
8390.0 0.0015832
8410.0 0.0020241
8430.0 0.00246
8450.0 0.0027038
8470.0 0.0028702
8490.0 0.0028967
8510.0 0.0029846
8530.0 0.0032619
8550.0 0.0036978
8570.0 0.0044162
8590.0 0.0053104
8610.0 0.0062876
8630.0 0.0073331
8650.0 0.0080863
8670.0 0.008042
8690.0 0.0076722
8710.0 0.0072248
8730.0 0.0068552
8750.0 0.0064771
8770.0 0.0062622
8790.0 0.0061226
8810.0 0.0057506
8830.0 0.0050554
8850.0 0.0043095
8870.0 0.0036397
8890.0 0.0033673
8910.0 0.0034756
8930.0 0.003554
8950.0 0.0039301
8970.0 0.0040153
8990.0 0.0040982
9010.0 0.004144
9030.0 0.0041594
9050.0 0.0041854
9070.0 0.0042051
9090.0 0.0042196
9110.0 0.0042302
9130.0 0.0042415
9150.0 0.0042544
9170.0 0.0042677
9190.0 0.0042815
9210.0 0.004298
9230.0 0.0043135
9250.0 0.0043305
9270.0 0.0043484
9290.0 0.004367
9310.0 0.004387
9330.0 0.004408
9350.0 0.0044296
9370.0 0.0044523
9390.0 0.0044762
9410.0 0.0045007
9430.0 0.0045258
9450.0 0.0045524
9470.0 0.0045798
9490.0 0.0046077
9510.0 0.0046367
9530.0 0.0046667
9550.0 0.0046971
9570.0 0.0047282
9590.0 0.0047604
9610.0 0.0047934
9630.0 0.0048267
9650.0 0.0048608
9670.0 0.0048961
9690.0 0.0049316
9710.0 0.0049677
9730.0 0.0050047
9750.0 0.0050422
9770.0 0.0050797
9790.0 0.0051182
9810.0 0.0051574
9830.0 0.0051968
9850.0 0.0052364
9870.0 0.005277
9890.0 0.0053178
9910.0 0.0053585
9930.0 0.0053999
9950.0 0.0054416
9970.0 0.0054833
9990.0 0.005525
10010.0 0.0053822
10030.0 0.0054224
10050.0 0.0054623
10070.0 0.0055019
10090.0 0.0055428
10110.0 0.005583
10130.0 0.0056232
10150.0 0.0056637
10170.0 0.0057038
10190.0 0.0057431
10210.0 0.0057829
10230.0 0.0058226
10250.0 0.0058614
10270.0 0.0059
10290.0 0.0059388
10310.0 0.0059767
10330.0 0.0060136
10350.0 0.0060508
10370.0 0.0060875
10390.0 0.0061231
10410.0 0.0061582
10430.0 0.0061934
10450.0 0.0062274
10470.0 0.0062603
10490.0 0.006293
10510.0 0.0063251
10530.0 0.0063554
10550.0 0.0063853
10570.0 0.0064148
10590.0 0.006443
10610.0 0.0064699
10630.0 0.0064966
10650.0 0.0065222
10670.0 0.0065459
10690.0 0.006569
10710.0 0.0065915
10730.0 0.0066123
10750.0 0.0066314
10770.0 0.0066505
10790.0 0.0066681
10810.0 0.0066839
10830.0 0.0066986
10850.0 0.0067121
10870.0 0.0067221
10890.0 0.0067281
10910.0 0.0067294
10930.0 0.0067217
10950.0 0.0066994
10970.0 0.0066606
10990.0 0.0066037
11010.0 0.0063718
11030.0 0.0062649
11050.0 0.0061395
11070.0 0.005992
11090.0 0.0058159
11110.0 0.005635
11130.0 0.0054472
11150.0 0.0052458
11170.0 0.0050404
11190.0 0.0048442
11210.0 0.0046453
11230.0 0.004446
11250.0 0.0042609
11270.0 0.0040884
11290.0 0.0039208
11310.0 0.0037673
11330.0 0.0036363
11350.0 0.0035157
11370.0 0.0034065
11390.0 0.0033131
11410.0 0.0032311
11430.0 0.0031532
11450.0 0.0030829
11470.0 0.003018
11490.0 0.0029525
11510.0 0.0028838
11530.0 0.0028151
11550.0 0.002743
11570.0 0.0026634
11590.0 0.0025796
11610.0 0.0024944
11630.0 0.0024028
11650.0 0.0023066
11670.0 0.0022141
11690.0 0.0021226
11710.0 0.0020307
11730.0 0.0019441
11750.0 0.0018657
11770.0 0.0017907
11790.0 0.0017217
11810.0 0.0016619
11830.0 0.0016088
11850.0 0.0015599
11870.0 0.0015183
11890.0 0.0014825
11910.0 0.0014493
11930.0 0.0014185
11950.0 0.0013903
11970.0 0.0013624
11990.0 0.0013332
12010.0 0.0013039
12030.0 0.0012739
12050.0 0.0012419
12070.0 0.0012081
12090.0 0.0011754
12110.0 0.0011422
12130.0 0.001109
12150.0 0.0010781
12170.0 0.0010505
12190.0 0.001025
12210.0 0.0010043
12230.0 0.00098926
12250.0 0.0009797
12270.0 0.00097637
12290.0 0.00097941
12310.0 0.00098812
12330.0 0.0010034
12350.0 0.0010243
12370.0 0.0010491
12390.0 0.0010783
12410.0 0.0011127
12430.0 0.0011472
12450.0 0.0011823
12470.0 0.0012188
12490.0 0.0012543
12510.0 0.0012861
12530.0 0.0013164
12550.0 0.0013439
12570.0 0.0013662
12590.0 0.0013837
12610.0 0.0013973
12630.0 0.0014055
12650.0 0.0014079
12670.0 0.0014059
12690.0 0.0013992
12710.0 0.0013882
12730.0 0.0013736
12750.0 0.0013549
12770.0 0.0013333
12790.0 0.0013097
12810.0 0.0012837
12830.0 0.0012552
12850.0 0.0012263
12870.0 0.0011964
12890.0 0.0011646
12910.0 0.0011323
12930.0 0.0011001
12950.0 0.0010663
12970.0 0.0010313
12990.0 0.00099736
13010.0 0.00096307
13030.0 0.00092769
13050.0 0.00089289
13070.0 0.0008596
13090.0 0.00082576
13110.0 0.00079266
13130.0 0.00076187
13150.0 0.00073269
13170.0 0.00070436
13190.0 0.0006794
13210.0 0.00065779
13230.0 0.00063861
13250.0 0.00062274
13270.0 0.0006108
13290.0 0.00060223
13310.0 0.00059724
13330.0 0.00059603
13350.0 0.00059814
13370.0 0.00060365
13390.0 0.00061245
13410.0 0.00062305
13430.0 0.00063591
13450.0 0.00065086
13470.0 0.00066652
13490.0 0.00068227
13510.0 0.00069931
13530.0 0.00071576
13550.0 0.00073075
13570.0 0.00074493
13590.0 0.00075816
13610.0 0.00076928
13630.0 0.00077838
13650.0 0.00078617
13670.0 0.00079197
13690.0 0.00079568
13710.0 0.00079775
13730.0 0.00079818
13750.0 0.00079683
13770.0 0.00079407
13790.0 0.00078993
13810.0 0.00078453
13830.0 0.00077822
13850.0 0.00077079
13870.0 0.0007623
13890.0 0.00075322
13910.0 0.00074351
13930.0 0.00073282
13950.0 0.0007216
13970.0 0.00071046
13990.0 0.00069873
14010.0 0.00068663
14030.0 0.00067487
14050.0 0.00066331
14070.0 0.00065148
14090.0 0.00064045
14110.0 0.00063034
14130.0 0.00062085
14150.0 0.00061225
14170.0 0.00060517
14190.0 0.00059934
14210.0 0.00059476
14230.0 0.00059177
14250.0 0.0005903
14270.0 0.00059036
14290.0 0.00059205
14310.0 0.00059507
14330.0 0.00059942
14350.0 0.00060519
14370.0 0.00061193
14390.0 0.00061929
14410.0 0.00062774
14430.0 0.00063686
14450.0 0.0006461
14470.0 0.00065571
14490.0 0.0006661
14510.0 0.00067636
14530.0 0.00068659
14550.0 0.00069753
14570.0 0.00070902
14590.0 0.00072063
14610.0 0.00073325
14630.0 0.00074741
14650.0 0.00076233
14670.0 0.00077831
14690.0 0.00079634
14710.0 0.0008163
14730.0 0.00083662
14750.0 0.00085885
14770.0 0.00088307
14790.0 0.00090782
14810.0 0.0009328
14830.0 0.00095994
14850.0 0.00098677
14870.0 0.0010123
14890.0 0.0010373
14910.0 0.0010616
14930.0 0.001083
14950.0 0.0011015
14970.0 0.0011178
14990.0 0.0011304
15010.0 0.0011393
15030.0 0.0011453
15050.0 0.0011486
15070.0 0.0011497
15090.0 0.0011493
15110.0 0.0011479
15130.0 0.0011459
15150.0 0.0011437
15170.0 0.0011413
15190.0 0.0011387
15210.0 0.0011363
15230.0 0.0011339
15250.0 0.0011313
15270.0 0.0011288
15290.0 0.0011265
15310.0 0.0011241
15330.0 0.0011216
15350.0 0.0011193
15370.0 0.001117
15390.0 0.0011145
15410.0 0.0011122
15430.0 0.0011099
15450.0 0.0011075
15470.0 0.0011051
15490.0 0.0011028
15510.0 0.0011006
15530.0 0.0010982
15550.0 0.0010959
15570.0 0.0010936
15590.0 0.0010913
15610.0 0.0010889
15630.0 0.0010866
15650.0 0.0010843
15670.0 0.0010819
15690.0 0.0010796
15710.0 0.0010774
15730.0 0.001075
15750.0 0.0010726
15770.0 0.0010703
15790.0 0.001068
15810.0 0.0010655
15830.0 0.0010631
15850.0 0.0010609
15870.0 0.0010584
15890.0 0.001056
15910.0 0.0010537
15930.0 0.0010513
15950.0 0.0010487
15970.0 0.0010463
15990.0 0.0010439
16010.0 0.0010414
16030.0 0.0010388
16050.0 0.0010364
16070.0 0.0010339
16090.0 0.0010313
16110.0 0.0010288
16130.0 0.0010264
16150.0 0.0010237
16170.0 0.001021
16190.0 0.0010185
16210.0 0.0010159
16230.0 0.0010131
16250.0 0.0010105
16270.0 0.0010079
16290.0 0.0010051
16310.0 0.0010024
16330.0 0.0009997
16350.0 0.00099694
16370.0 0.00099401
16390.0 0.00099127
16410.0 0.0009885
16430.0 0.0009856
16450.0 0.00098271
16470.0 0.00097993
16490.0 0.00097699
16510.0 0.00097399
16530.0 0.00097108
16550.0 0.00096815
16570.0 0.00096507
16590.0 0.00096201
16610.0 0.00095907
16630.0 0.000956
16650.0 0.00095287
16670.0 0.00094983
16690.0 0.00094676
16710.0 0.0009435
16730.0 0.00094032
16750.0 0.0009372
16770.0 0.00093396
16790.0 0.00093065
16810.0 0.00092747
16830.0 0.00092425
16850.0 0.00092088
16870.0 0.00091757
16890.0 0.00091432
16910.0 0.0009109
16930.0 0.00090743
16950.0 0.0009041
16970.0 0.00090071
16990.0 0.0008972
17010.0 0.00089376
17030.0 0.00089038
17050.0 0.00088682
17070.0 0.00088326
17090.0 0.00087978
17110.0 0.00087625
17130.0 0.00087256
17150.0 0.00086898
17170.0 0.00086545
17190.0 0.00086179
17210.0 0.00085811
17230.0 0.00085454
17250.0 0.00085087
17270.0 0.00084707
17290.0 0.00084338
17310.0 0.00083971
17330.0 0.00083592
17350.0 0.00083209
17370.0 0.00082842
17390.0 0.00082464
17410.0 0.00082078
17430.0 0.000817
17450.0 0.00081326
17470.0 0.0008093
17490.0 0.00080541
17510.0 0.00080161
17530.0 0.00079773
17550.0 0.00079377
17570.0 0.00078991
17590.0 0.00078607
17610.0 0.00078208
17630.0 0.00077813
17650.0 0.00077426
17670.0 0.0007703
17690.0 0.0007662
17710.0 0.00076229
17730.0 0.00075837
17750.0 0.00075433
17770.0 0.00075032
17790.0 0.00074642
17810.0 0.00074237
17830.0 0.00073828
17850.0 0.00073431
17870.0 0.00073032
17890.0 0.0007262
17910.0 0.00072213
17930.0 0.00071819
17950.0 0.00071412
17970.0 0.00071002
17990.0 0.00070603
18010.0 0.00070203
18030.0 0.00069785
18050.0 0.00069378
18070.0 0.00068978
18090.0 0.00068569
18110.0 0.00068155
18130.0 0.00067756
18150.0 0.00067353
18170.0 0.0006694
18190.0 0.00066534
18210.0 0.00066135
18230.0 0.00065722
18250.0 0.00065307
18270.0 0.00064908
18290.0 0.00064504
18310.0 0.00064091
18330.0 0.00063687
18350.0 0.00063291
18370.0 0.00062879
18390.0 0.0006247
18410.0 0.00062072
18430.0 0.00061669
18450.0 0.00061254
18470.0 0.00060853
18490.0 0.00060458
18510.0 0.00060052
18530.0 0.00059647
18550.0 0.00059255
18570.0 0.00058854
18590.0 0.00058445
18610.0 0.00058048
18630.0 0.00057655
18650.0 0.00057251
18670.0 0.00056849
18690.0 0.00056462
18710.0 0.00056067
18730.0 0.00055666
18750.0 0.00055276
18770.0 0.0005489
18790.0 0.00054487
18810.0 0.00054092
18830.0 0.00053708
18850.0 0.00053318
18870.0 0.00052923
18890.0 0.0005254
18910.0 0.0005216
18930.0 0.00051767
18950.0 0.00051381
18970.0 0.00051004
18990.0 0.0005062
19010.0 0.00050227
19030.0 0.00049853
19050.0 0.00049478
19070.0 0.00049094
19090.0 0.00048717
19110.0 0.0004835
19130.0 0.0004797
19150.0 0.00047591
19170.0 0.00047222
19190.0 0.00046854
19210.0 0.00046476
19230.0 0.00046105
19250.0 0.00045746
19270.0 0.00045377
19290.0 0.00045008
19310.0 0.0004465
19330.0 0.00044291
19350.0 0.00043918
19370.0 0.00043558
19390.0 0.00043205
19410.0 0.00042844
19430.0 0.00042482
19450.0 0.00042134
19470.0 0.00041783
19490.0 0.00041424
19510.0 0.00041074
19530.0 0.00040731
19550.0 0.00040376
19570.0 0.00040021
19590.0 0.00039682
19610.0 0.00039339
19630.0 0.0003899
19650.0 0.0003865
19670.0 0.00038317
19690.0 0.00037972
19710.0 0.0003763
19730.0 0.00037299
19750.0 0.00036964
19770.0 0.0003662
19790.0 0.0003629
19810.0 0.00035964
19830.0 0.0003563
19850.0 0.00035296
19870.0 0.00034971
19890.0 0.00034632
19910.0 0.00034274
19930.0 0.0003391
19950.0 0.0003352
19970.0 0.00033077
19990.0 0.00032584
20010.0 0.00032692
20030.0 0.00032082
20050.0 0.00031407
20070.0 0.00030707
20090.0 0.00029984
20110.0 0.000292
20130.0 0.00028434
20150.0 0.00027699
20170.0 0.0002696
20190.0 0.00026232
20210.0 0.00025561
20230.0 0.0002492
20250.0 0.00024292
20270.0 0.0002372
20290.0 0.00023205
20310.0 0.00022724
20330.0 0.00022284
20350.0 0.00021923
20370.0 0.00021609
20390.0 0.00021343
20410.0 0.00021138
20430.0 0.00020989
20450.0 0.00020888
20470.0 0.0002084
20490.0 0.0002084
20510.0 0.00020883
20530.0 0.00020973
20550.0 0.00021097
20570.0 0.00021247
20590.0 0.00021432
20610.0 0.00021644
20630.0 0.00021866
20650.0 0.00022106
20670.0 0.00022374
20690.0 0.00022639
20710.0 0.00022905
20730.0 0.00023185
20750.0 0.0002347
20770.0 0.00023742
20790.0 0.00024022
20810.0 0.00024313
20830.0 0.00024596
20850.0 0.00024875
20870.0 0.00025173
20890.0 0.00025474
20910.0 0.00025764
20930.0 0.00026065
20950.0 0.00026379
20970.0 0.00026686
20990.0 0.00026991
21010.0 0.00027316
21030.0 0.00027636
21050.0 0.00027942
21070.0 0.0002825
21090.0 0.00028562
21110.0 0.00028847
21130.0 0.00029116
21150.0 0.0002938
21170.0 0.00029621
21190.0 0.00029832
21210.0 0.00030029
21230.0 0.00030203
21250.0 0.0003034
21270.0 0.00030446
21290.0 0.00030524
21310.0 0.00030565
21330.0 0.00030567
21350.0 0.00030532
21370.0 0.00030454
21390.0 0.00030337
21410.0 0.00030178
21430.0 0.00029963
21450.0 0.00029708
21470.0 0.00029417
21490.0 0.00029076
21510.0 0.00028689
21530.0 0.00028281
21550.0 0.00027841
21570.0 0.00027356
21590.0 0.00026862
21610.0 0.00026368
21630.0 0.00025855
21650.0 0.00025332
21670.0 0.00024856
21690.0 0.00024392
21710.0 0.00023946
21730.0 0.00023547
21750.0 0.00023201
21770.0 0.00022886
21790.0 0.00022629
21810.0 0.00022438
21830.0 0.00022304
21850.0 0.0002223
21870.0 0.0002222
21890.0 0.00022267
21910.0 0.00022375
21930.0 0.00022541
21950.0 0.00022751
21970.0 0.00023013
21990.0 0.00023336
22010.0 0.00023685
22030.0 0.00024063
22050.0 0.00024485
22070.0 0.00024933
22090.0 0.00025379
22110.0 0.00025851
22130.0 0.00026344
22150.0 0.00026824
22170.0 0.00027293
22190.0 0.00027776
22210.0 0.00028239
22230.0 0.00028657
22250.0 0.00029059
22270.0 0.00029436
22290.0 0.00029761
22310.0 0.00030042
22330.0 0.00030289
22350.0 0.00030477
22370.0 0.00030606
22390.0 0.00030681
22410.0 0.00030695
22430.0 0.00030647
22450.0 0.0003054
22470.0 0.00030367
22490.0 0.00030132
22510.0 0.00029849
22530.0 0.00029495
22550.0 0.00029073
22570.0 0.00028615
22590.0 0.00028107
22610.0 0.00027531
22630.0 0.00026917
22650.0 0.00026289
22670.0 0.00025601
22690.0 0.00024872
22710.0 0.00024142
22730.0 0.00023393
22750.0 0.00022585
22770.0 0.00021797
22790.0 0.00021031
22810.0 0.00020246
22830.0 0.00019466
22850.0 0.00018739
22870.0 0.0001803
22890.0 0.0001733
22910.0 0.00016692
22930.0 0.00016116
22950.0 0.00015577
22970.0 0.00015092
22990.0 0.00014705
23010.0 0.0001438
23030.0 0.00014123
23050.0 0.00013952
23070.0 0.00013861
23090.0 0.00013847
23110.0 0.00013917
23130.0 0.00014061
23150.0 0.00014278
23170.0 0.00014574
23190.0 0.00014924
23210.0 0.00015317
23230.0 0.00015774
23250.0 0.00016269
23270.0 0.00016773
23290.0 0.00017305
23310.0 0.0001787
23330.0 0.00018405
23350.0 0.00018923
