#lamb flux
1010.0 3.6119e-05
1030.0 3.9484e-05
1050.0 4.3372e-05
1070.0 4.7765e-05
1090.0 5.2771e-05
1110.0 5.7939e-05
1130.0 6.3179e-05
1150.0 6.8708e-05
1170.0 7.446e-05
1190.0 7.9982e-05
1210.0 8.5639e-05
1230.0 9.1544e-05
1250.0 9.7413e-05
1270.0 0.0001032
1290.0 0.00010938
1310.0 0.00011565
1330.0 0.00012178
1350.0 0.00012807
1370.0 0.00013464
1390.0 0.00014118
1410.0 0.00014765
1430.0 0.00015448
1450.0 0.00016141
1470.0 0.00016824
1490.0 0.00017524
1510.0 0.00018265
1530.0 0.00018982
1550.0 0.00019697
1570.0 0.00020439
1590.0 0.00021186
1610.0 0.00021907
1630.0 0.00022648
1650.0 0.00023403
1670.0 0.00024134
1690.0 0.00024851
1710.0 0.00025583
1730.0 0.00026307
1750.0 0.00026978
1770.0 0.00027649
1790.0 0.00028313
1810.0 0.00028934
1830.0 0.00029518
1850.0 0.0003011
1870.0 0.00030655
1890.0 0.00031144
1910.0 0.0003161
1930.0 0.00032052
1950.0 0.00032426
1970.0 0.00032752
1990.0 0.00033058
2010.0 0.00033311
2030.0 0.000335
2050.0 0.00033663
2070.0 0.00033798
2090.0 0.00033857
2110.0 0.00033875
2130.0 0.00033869
2150.0 0.00033816
2170.0 0.00033704
2190.0 0.00033579
2210.0 0.00033425
2230.0 0.00033223
2250.0 0.00032994
2270.0 0.00032764
2290.0 0.00032498
2310.0 0.00032196
2330.0 0.00031895
2350.0 0.00031584
2370.0 0.00031246
2390.0 0.00030903
2410.0 0.00030569
2430.0 0.0003021
2450.0 0.00029824
2470.0 0.0002942
2490.0 0.00028983
2510.0 0.00028501
2530.0 0.00028023
2550.0 0.00027624
2570.0 0.00027415
2590.0 0.0002753
2610.0 0.00028244
2630.0 0.00029689
2650.0 0.00031799
2670.0 0.00034631
2690.0 0.00038116
2710.0 0.00041746
2730.0 0.00045259
2750.0 0.00048747
2770.0 0.00051871
2790.0 0.00054526
2810.0 0.00056958
2830.0 0.00059373
2850.0 0.00061545
2870.0 0.00063697
2890.0 0.00065994
2910.0 0.00068343
2930.0 0.00070619
2950.0 0.00073052
2970.0 0.000756
2990.0 0.00078095
3010.0 0.0017856
3030.0 0.0018451
3050.0 0.0019059
3070.0 0.001964
3090.0 0.0020248
3110.0 0.0020865
3130.0 0.0021451
3150.0 0.0022006
3170.0 0.0022558
3190.0 0.0023033
3210.0 0.0023397
3230.0 0.0023729
3250.0 0.0023342
3270.0 0.0023598
3290.0 0.0023377
3310.0 0.0025409
3330.0 0.0027275
3350.0 0.0029312
3370.0 0.003166
3390.0 0.0034304
3410.0 0.0037055
3430.0 0.004001
3450.0 0.0043274
3470.0 0.0046736
3490.0 0.0050352
3510.0 0.0054176
3530.0 0.0058259
3550.0 0.0063513
3570.0 0.0069577
3590.0 0.0074611
3610.0 0.0080255
3630.0 0.0082381
3650.0 0.0084061
3670.0 0.0085103
3690.0 0.0087491
3710.0 0.0090199
3730.0 0.0088709
3750.0 0.0086086
3770.0 0.0082486
3790.0 0.0078289
3810.0 0.0072975
3830.0 0.0064545
3850.0 0.0040325
3870.0 0.0056027
3890.0 0.0076387
3910.0 0.0094251
3930.0 0.010869
3950.0 0.011538
3970.0 0.01203
3990.0 0.014453
4010.0 0.013664
4030.0 0.011967
4050.0 0.010615
4070.0 0.0095564
4090.0 0.011196
4110.0 0.011937
4130.0 0.012037
4150.0 0.011885
4170.0 0.011179
4190.0 0.010563
4210.0 0.01247
4230.0 0.014128
4250.0 0.014388
4270.0 0.013879
4290.0 0.014139
4310.0 0.015009
4330.0 0.017035
4350.0 0.018288
4370.0 0.018031
4390.0 0.015204
4410.0 0.013017
4430.0 0.011036
4450.0 0.0095924
4470.0 0.009978
4490.0 0.012446
4510.0 0.013489
4530.0 0.014822
4550.0 0.01595
4570.0 0.019741
4590.0 0.028698
4610.0 0.037488
4630.0 0.037588
4650.0 0.035204
4670.0 0.037892
4690.0 0.042733
4710.0 0.036123
4730.0 0.026211
4750.0 0.020377
4770.0 0.019048
4790.0 0.019434
4810.0 0.018064
4830.0 0.01964
4850.0 0.023964
4870.0 0.029369
4890.0 0.026784
4910.0 0.022883
4930.0 0.024658
4950.0 0.032446
4970.0 0.042788
4990.0 0.044283
5010.0 0.038714
5030.0 0.029742
5050.0 0.021257
5070.0 0.017568
5090.0 0.01639
5110.0 0.016409
5130.0 0.017143
5150.0 0.01686
5170.0 0.017264
5190.0 0.016504
5210.0 0.016775
5230.0 0.018026
5250.0 0.019399
5270.0 0.023948
5290.0 0.027828
5310.0 0.027541
5330.0 0.028268
5350.0 0.032113
5370.0 0.034838
5390.0 0.032007
5410.0 0.02715
5430.0 0.02546
5450.0 0.029284
5470.0 0.037938
5490.0 0.047042
5510.0 0.051102
5530.0 0.051371
5550.0 0.048427
5570.0 0.045319
5590.0 0.043763
5610.0 0.044181
5630.0 0.044667
5650.0 0.044362
5670.0 0.044041
5690.0 0.042705
5710.0 0.037227
5730.0 0.031142
5750.0 0.026329
5770.0 0.026761
5790.0 0.029142
5810.0 0.031234
5830.0 0.032124
5850.0 0.031614
5870.0 0.028942
5890.0 0.025115
5910.0 0.02485
5930.0 0.027263
5950.0 0.02749
5970.0 0.024766
5990.0 0.021181
6010.0 0.017213
6030.0 0.014444
6050.0 0.014552
6070.0 0.016791
6090.0 0.0177
6110.0 0.015739
6130.0 0.014617
6150.0 0.015901
6170.0 0.019189
6190.0 0.022848
6210.0 0.024311
6230.0 0.023266
6250.0 0.021364
6270.0 0.018416
6290.0 0.01527
6310.0 0.012767
6330.0 0.011775
6350.0 0.012445
6370.0 0.013125
6390.0 0.013902
6410.0 0.015987
6430.0 0.020141
6450.0 0.025386
6470.0 0.02832
6490.0 0.027759
6510.0 0.027326
6530.0 0.028323
6550.0 0.028639
6570.0 0.02912
6590.0 0.029233
6610.0 0.028713
6630.0 0.029034
6650.0 0.028892
6670.0 0.027436
6690.0 0.024327
6710.0 0.02067
6730.0 0.020315
6750.0 0.022034
6770.0 0.023731
6790.0 0.024325
6810.0 0.024111
6830.0 0.023719
6850.0 0.023233
6870.0 0.02182
6890.0 0.020786
6910.0 0.019731
6930.0 0.019224
6950.0 0.020733
6970.0 0.022271
6990.0 0.023346
7010.0 0.02347
7030.0 0.022075
7050.0 0.01917
7070.0 0.015558
7090.0 0.01326
7110.0 0.012958
7130.0 0.013879
7150.0 0.01381
7170.0 0.012523
7190.0 0.012406
7210.0 0.013742
7230.0 0.015939
7250.0 0.018121
7270.0 0.018927
7290.0 0.017526
7310.0 0.015483
7330.0 0.01421
7350.0 0.014031
7370.0 0.014454
7390.0 0.015021
7410.0 0.016039
7430.0 0.018432
7450.0 0.021477
7470.0 0.024317
7490.0 0.025451
7510.0 0.024606
7530.0 0.020674
7550.0 0.017062
7570.0 0.014336
7590.0 0.012759
7610.0 0.013353
7630.0 0.015539
7650.0 0.017842
7670.0 0.020075
7690.0 0.021771
7710.0 0.023196
7730.0 0.024582
7750.0 0.025902
7770.0 0.026603
7790.0 0.02659
7810.0 0.027081
7830.0 0.028165
7850.0 0.027987
7870.0 0.027141
7890.0 0.025456
7910.0 0.023894
7930.0 0.023018
7950.0 0.022786
7970.0 0.022556
7990.0 0.022671
8010.0 0.023195
8030.0 0.023369
8050.0 0.02392
8070.0 0.023687
8090.0 0.023705
8110.0 0.02278
8130.0 0.022678
8150.0 0.02217
8170.0 0.021591
8190.0 0.021316
8210.0 0.0215
8230.0 0.020451
8250.0 0.019375
8270.0 0.017015
8290.0 0.013706
8310.0 0.010442
8330.0 0.0079658
8350.0 0.0071371
8370.0 0.0082301
8390.0 0.0097597
8410.0 0.010815
8430.0 0.011766
8450.0 0.012393
8470.0 0.01303
8490.0 0.014497
8510.0 0.016317
8530.0 0.019015
8550.0 0.022213
8570.0 0.025136
8590.0 0.027503
8610.0 0.029372
8630.0 0.030505
8650.0 0.030691
8670.0 0.030782
8690.0 0.031906
8710.0 0.032876
8730.0 0.033811
8750.0 0.033375
8770.0 0.033606
8790.0 0.033237
8810.0 0.031041
8830.0 0.030046
8850.0 0.028299
8870.0 0.026946
8890.0 0.025973
8910.0 0.026486
8930.0 0.025051
8950.0 0.024016
8970.0 0.023624
8990.0 0.023185
9010.0 0.022599
9030.0 0.022046
9050.0 0.021905
9070.0 0.021839
9090.0 0.021777
9110.0 0.021717
9130.0 0.021652
9150.0 0.021587
9170.0 0.021498
9190.0 0.021392
9210.0 0.021476
9230.0 0.021366
9250.0 0.021277
9270.0 0.021194
9290.0 0.021116
9310.0 0.02104
9330.0 0.020965
9350.0 0.020892
9370.0 0.020819
9390.0 0.020744
9410.0 0.02067
9430.0 0.020594
9450.0 0.020506
9470.0 0.020422
9490.0 0.020357
9510.0 0.020285
9530.0 0.020212
9550.0 0.020137
9570.0 0.020061
9590.0 0.019984
9610.0 0.019906
9630.0 0.019829
9650.0 0.019751
9670.0 0.019673
9690.0 0.019594
9710.0 0.019516
9730.0 0.019437
9750.0 0.019359
9770.0 0.01928
9790.0 0.019201
9810.0 0.019122
9830.0 0.019043
9850.0 0.018965
9870.0 0.018886
9890.0 0.018806
9910.0 0.018727
9930.0 0.018646
9950.0 0.018433
9970.0 0.018393
9990.0 0.018346
10010.0 0.018294
10030.0 0.018232
10050.0 0.018159
10070.0 0.018082
10090.0 0.01801
10110.0 0.01793
10130.0 0.017855
10150.0 0.017778
10170.0 0.017696
10190.0 0.01761
10210.0 0.01753
10230.0 0.017452
10250.0 0.017369
10270.0 0.017287
10290.0 0.017209
10310.0 0.017126
10330.0 0.01704
10350.0 0.016959
10370.0 0.016878
10390.0 0.016792
10410.0 0.016707
10430.0 0.016627
10450.0 0.016542
10470.0 0.016454
10490.0 0.016371
10510.0 0.016287
10530.0 0.016196
10550.0 0.016107
10570.0 0.016023
10590.0 0.015934
10610.0 0.015842
10630.0 0.015755
10650.0 0.015667
10670.0 0.015572
10690.0 0.01548
10710.0 0.01539
10730.0 0.015296
10750.0 0.015196
10770.0 0.015105
10790.0 0.015011
10810.0 0.014911
10830.0 0.014814
10850.0 0.01472
10870.0 0.014615
10890.0 0.014508
10910.0 0.014403
10930.0 0.014291
10950.0 0.014164
10970.0 0.01403
10990.0 0.013891
11010.0 0.012881
11030.0 0.012709
11050.0 0.012544
11070.0 0.012379
11090.0 0.012203
11110.0 0.012044
11130.0 0.011891
11150.0 0.011735
11170.0 0.011582
11190.0 0.011442
11210.0 0.011298
11230.0 0.01115
11250.0 0.01101
11270.0 0.010874
11290.0 0.010731
11310.0 0.01059
11330.0 0.010462
11350.0 0.010331
11370.0 0.010198
11390.0 0.010073
11410.0 0.0099526
11430.0 0.0098234
11450.0 0.0096973
11470.0 0.0095753
11490.0 0.0094474
11510.0 0.0093105
11530.0 0.0091769
11550.0 0.0090398
11570.0 0.0088896
11590.0 0.008735
11610.0 0.008581
11630.0 0.0084139
11650.0 0.0082361
11670.0 0.0080639
11690.0 0.0078888
11710.0 0.0077048
11730.0 0.0075231
11750.0 0.0073512
11770.0 0.0071745
11790.0 0.0069995
11810.0 0.0068367
11830.0 0.0066807
11850.0 0.0065224
11870.0 0.0063777
11890.0 0.0062462
11910.0 0.0061173
11930.0 0.0059942
11950.0 0.0058838
11970.0 0.0057785
11990.0 0.005674
12010.0 0.0055786
12030.0 0.005491
12050.0 0.005405
12070.0 0.005322
12090.0 0.0052501
12110.0 0.0051819
12130.0 0.0051167
12150.0 0.0050595
12170.0 0.0050105
12190.0 0.0049649
12210.0 0.004928
12230.0 0.0049016
12250.0 0.0048837
12270.0 0.0048754
12290.0 0.0048787
12310.0 0.0048933
12330.0 0.0049197
12350.0 0.0049588
12370.0 0.0050088
12390.0 0.0050707
12410.0 0.0051474
12430.0 0.0052312
12450.0 0.0053227
12470.0 0.0054244
12490.0 0.0055317
12510.0 0.0056383
12530.0 0.005749
12550.0 0.0058613
12570.0 0.0059675
12590.0 0.0060676
12610.0 0.0061641
12630.0 0.0062511
12650.0 0.0063241
12670.0 0.0063877
12690.0 0.0064394
12710.0 0.006477
12730.0 0.006502
12750.0 0.0065141
12770.0 0.0065132
12790.0 0.0065011
12810.0 0.0064777
12830.0 0.006443
12850.0 0.0064021
12870.0 0.0063546
12890.0 0.006299
12910.0 0.0062398
12930.0 0.0061794
12950.0 0.0061139
12970.0 0.006045
12990.0 0.0059786
13010.0 0.0059113
13030.0 0.0058407
13050.0 0.0057707
13070.0 0.0057029
13090.0 0.0056313
13110.0 0.0055584
13130.0 0.0054879
13150.0 0.0054172
13170.0 0.0053435
13190.0 0.005274
13210.0 0.0052094
13230.0 0.0051465
13250.0 0.0050886
13270.0 0.0050398
13290.0 0.0049981
13310.0 0.004964
13330.0 0.0049412
13350.0 0.0049287
13370.0 0.0049257
13390.0 0.0049323
13410.0 0.0049458
13430.0 0.0049648
13450.0 0.0049872
13470.0 0.0050092
13490.0 0.0050281
13510.0 0.0050425
13530.0 0.0050481
13550.0 0.0050437
13570.0 0.0050282
13590.0 0.0049995
13610.0 0.0049597
13630.0 0.0049104
13650.0 0.004849
13670.0 0.0047795
13690.0 0.0047064
13710.0 0.0046283
13730.0 0.0045444
13750.0 0.0044655
13770.0 0.0043892
13790.0 0.0043139
13810.0 0.0042437
13830.0 0.0041815
13850.0 0.0041229
13870.0 0.0040693
13890.0 0.0040232
13910.0 0.0039828
13930.0 0.003946
13950.0 0.0039142
13970.0 0.0038879
13990.0 0.0038641
14010.0 0.0038431
14030.0 0.003825
14050.0 0.0038089
14070.0 0.0037935
14090.0 0.0037794
14110.0 0.003766
14130.0 0.0037523
14150.0 0.003738
14170.0 0.0037236
14190.0 0.0037083
14210.0 0.0036918
14230.0 0.0036747
14250.0 0.0036574
14270.0 0.0036394
14290.0 0.0036212
14310.0 0.0036042
14330.0 0.0035881
14350.0 0.003573
14370.0 0.0035596
14390.0 0.0035481
14410.0 0.003538
14430.0 0.0035295
14450.0 0.0035226
14470.0 0.0035166
14490.0 0.0035116
14510.0 0.0035071
14530.0 0.0035028
14550.0 0.0034989
14570.0 0.0034953
14590.0 0.0034921
14610.0 0.0034897
14630.0 0.0034887
14650.0 0.0034893
14670.0 0.0034919
14690.0 0.0034976
14710.0 0.0035071
14730.0 0.0035192
14750.0 0.0035357
14770.0 0.0035575
14790.0 0.0035834
14810.0 0.0036133
14830.0 0.0036513
14850.0 0.0036943
14870.0 0.0037406
14890.0 0.0037924
14910.0 0.0038493
14930.0 0.0039051
14950.0 0.003958
14970.0 0.0040089
14990.0 0.0040515
15010.0 0.0040831
15030.0 0.0041053
15050.0 0.0041182
15070.0 0.0041213
15090.0 0.0041184
15110.0 0.0041113
15130.0 0.0041013
15150.0 0.0040899
15170.0 0.0040776
15190.0 0.0040648
15210.0 0.004052
15230.0 0.0040391
15250.0 0.004026
15270.0 0.0040129
15290.0 0.004
15310.0 0.0039869
15330.0 0.0039737
15350.0 0.0039607
15370.0 0.0039476
15390.0 0.0039344
15410.0 0.0039212
15430.0 0.0039081
15450.0 0.0038948
15470.0 0.0038816
15490.0 0.0038684
15510.0 0.0038553
15530.0 0.003842
15550.0 0.0038288
15570.0 0.0038156
15590.0 0.0038023
15610.0 0.003789
15630.0 0.0037758
15650.0 0.0037626
15670.0 0.0037494
15690.0 0.0037362
15710.0 0.003723
15730.0 0.0037098
15750.0 0.0036966
15770.0 0.0036834
15790.0 0.0036703
15810.0 0.003657
15830.0 0.0036439
15850.0 0.0036308
15870.0 0.0036177
15890.0 0.0036045
15910.0 0.0035915
15930.0 0.0035785
15950.0 0.0035654
15970.0 0.0035524
15990.0 0.0035394
16010.0 0.0035264
16030.0 0.0035134
16050.0 0.0035005
16070.0 0.0034877
16090.0 0.0034747
16110.0 0.0034619
16130.0 0.0034492
16150.0 0.0034363
16170.0 0.0034235
16190.0 0.0034108
16210.0 0.0033981
16230.0 0.0033854
16250.0 0.0033728
16270.0 0.0033603
16290.0 0.0033476
16310.0 0.0033351
16330.0 0.0033226
16350.0 0.0033102
16370.0 0.0032976
16390.0 0.0032853
16410.0 0.003273
16430.0 0.0032606
16450.0 0.0032484
16470.0 0.0032362
16490.0 0.003224
16510.0 0.0032118
16530.0 0.0031997
16550.0 0.0031877
16570.0 0.0031756
16590.0 0.0031635
16610.0 0.0031517
16630.0 0.0031398
16650.0 0.0031279
16670.0 0.0031161
16690.0 0.0031044
16710.0 0.0030926
16730.0 0.0030809
16750.0 0.0030693
16770.0 0.0030577
16790.0 0.0030461
16810.0 0.0030347
16830.0 0.0030232
16850.0 0.0030118
16870.0 0.0030004
16890.0 0.0029892
16910.0 0.0029779
16930.0 0.0029666
16950.0 0.0029555
16970.0 0.0029444
16990.0 0.0029333
17010.0 0.0029223
17030.0 0.0029114
17050.0 0.0029004
17070.0 0.0028895
17090.0 0.0028787
17110.0 0.0028679
17130.0 0.0028571
17150.0 0.0028465
17170.0 0.0028359
17190.0 0.0028253
17210.0 0.0028147
17230.0 0.0028043
17250.0 0.0027939
17270.0 0.0027835
17290.0 0.0027732
17310.0 0.0027629
17330.0 0.0027527
17350.0 0.0027424
17370.0 0.0027324
17390.0 0.0027223
17410.0 0.0027122
17430.0 0.0027023
17450.0 0.0026924
17470.0 0.0026825
17490.0 0.0026726
17510.0 0.0026629
17530.0 0.0026532
17550.0 0.0026435
17570.0 0.0026339
17590.0 0.0026243
17610.0 0.0026148
17630.0 0.0026053
17650.0 0.0025959
17670.0 0.0025865
17690.0 0.0025771
17710.0 0.0025679
17730.0 0.0025587
17750.0 0.0025495
17770.0 0.0025404
17790.0 0.0025314
17810.0 0.0025223
17830.0 0.0025133
17850.0 0.0025044
17870.0 0.0024955
17890.0 0.0024867
17910.0 0.0024779
17930.0 0.0024692
17950.0 0.0024605
17970.0 0.0024518
17990.0 0.0024433
18010.0 0.0024348
18030.0 0.0024262
18050.0 0.0024178
18070.0 0.0024094
18090.0 0.0024011
18110.0 0.0023927
18130.0 0.0023845
18150.0 0.0023763
18170.0 0.0023681
18190.0 0.00236
18210.0 0.002352
18230.0 0.0023439
18250.0 0.0023359
18270.0 0.002328
18290.0 0.0023201
18310.0 0.0023123
18330.0 0.0023045
18350.0 0.0022968
18370.0 0.0022891
18390.0 0.0022814
18410.0 0.0022738
18430.0 0.0022662
18450.0 0.0022586
18470.0 0.0022512
18490.0 0.0022438
18510.0 0.0022364
18530.0 0.002229
18550.0 0.0022217
18570.0 0.0022145
18590.0 0.0022072
18610.0 0.0022
18630.0 0.0021929
18650.0 0.0021858
18670.0 0.0021787
18690.0 0.0021717
18710.0 0.0021648
18730.0 0.0021578
18750.0 0.0021509
18770.0 0.0021441
18790.0 0.0021373
18810.0 0.0021305
18830.0 0.0021238
18850.0 0.0021171
18870.0 0.0021104
18890.0 0.0021038
18910.0 0.0020973
18930.0 0.0020907
18950.0 0.0020842
18970.0 0.0020778
18990.0 0.0020714
19010.0 0.0020649
19030.0 0.0020586
19050.0 0.0020524
19070.0 0.0020461
19090.0 0.0020398
19110.0 0.0020337
19130.0 0.0020275
19150.0 0.0020214
19170.0 0.0020153
19190.0 0.0020093
19210.0 0.0020032
19230.0 0.0019972
19250.0 0.0019913
19270.0 0.0019854
19290.0 0.0019795
19310.0 0.0019737
19330.0 0.001968
19350.0 0.0019621
19370.0 0.0019564
19390.0 0.0019507
19410.0 0.001945
19430.0 0.0019394
19450.0 0.0019338
19470.0 0.0019283
19490.0 0.0019227
19510.0 0.0019172
19530.0 0.0019118
19550.0 0.0019063
19570.0 0.0019009
19590.0 0.0018955
19610.0 0.0018902
19630.0 0.0018849
19650.0 0.0018796
19670.0 0.0018744
19690.0 0.0018692
19710.0 0.001864
19730.0 0.0018588
19750.0 0.0018537
19770.0 0.0018486
19790.0 0.0018435
19810.0 0.0018385
19830.0 0.0018334
19850.0 0.0018283
19870.0 0.0018231
19890.0 0.0018176
19910.0 0.0018113
19930.0 0.0018041
19950.0 0.0017955
19970.0 0.0017844
19990.0 0.0017705
20010.0 0.0017541
20030.0 0.0017341
20050.0 0.0017106
20070.0 0.0016852
20090.0 0.0016581
20110.0 0.0016281
20130.0 0.0015982
20150.0 0.001569
20170.0 0.0015393
20190.0 0.0015096
20210.0 0.0014818
20230.0 0.0014548
20250.0 0.0014277
20270.0 0.0014024
20290.0 0.0013787
20310.0 0.0013556
20330.0 0.0013332
20350.0 0.0013133
20370.0 0.0012946
20390.0 0.0012766
20410.0 0.0012603
20430.0 0.0012458
20450.0 0.0012319
20470.0 0.0012195
20490.0 0.0012088
20510.0 0.0011993
20530.0 0.001191
20550.0 0.0011842
20570.0 0.0011788
20590.0 0.0011744
20610.0 0.0011712
20630.0 0.0011691
20650.0 0.0011679
20670.0 0.0011677
20690.0 0.0011682
20710.0 0.0011694
20730.0 0.0011711
20750.0 0.0011733
20770.0 0.0011755
20790.0 0.001178
20810.0 0.0011807
20830.0 0.0011831
20850.0 0.0011853
20870.0 0.0011873
20890.0 0.0011889
20910.0 0.0011899
20930.0 0.0011903
20950.0 0.0011901
20970.0 0.0011891
20990.0 0.0011874
21010.0 0.0011849
21030.0 0.0011815
21050.0 0.0011775
21070.0 0.0011727
21090.0 0.001167
21110.0 0.0011608
21130.0 0.0011542
21150.0 0.0011468
21170.0 0.001139
21190.0 0.0011312
21210.0 0.0011229
21230.0 0.0011142
21250.0 0.0011058
21270.0 0.0010975
21290.0 0.001089
21310.0 0.0010808
21330.0 0.0010731
21350.0 0.0010655
21370.0 0.0010583
21390.0 0.0010517
21410.0 0.0010456
21430.0 0.0010398
21450.0 0.0010349
21470.0 0.0010306
21490.0 0.0010269
21510.0 0.001024
21530.0 0.0010218
21550.0 0.0010204
21570.0 0.0010197
21590.0 0.0010198
21610.0 0.0010207
21630.0 0.0010223
21650.0 0.0010249
21670.0 0.0010279
21690.0 0.0010316
21710.0 0.001036
21730.0 0.0010409
21750.0 0.0010461
21770.0 0.001052
21790.0 0.0010582
21810.0 0.0010643
21830.0 0.0010707
21850.0 0.0010773
21870.0 0.0010836
21890.0 0.0010896
21910.0 0.0010955
21930.0 0.0011012
21950.0 0.0011063
21970.0 0.001111
21990.0 0.0011154
22010.0 0.001119
22030.0 0.001122
22050.0 0.0011245
22070.0 0.0011264
22090.0 0.0011274
22110.0 0.0011279
22130.0 0.0011277
22150.0 0.0011268
22170.0 0.0011252
22190.0 0.0011229
22210.0 0.0011198
22230.0 0.0011162
22250.0 0.0011119
22270.0 0.0011068
22290.0 0.0011011
22310.0 0.0010949
22330.0 0.0010878
22350.0 0.0010801
22370.0 0.001072
22390.0 0.0010631
22410.0 0.0010534
22430.0 0.0010436
22450.0 0.0010333
22470.0 0.0010222
22490.0 0.0010108
22510.0 0.00099932
22530.0 0.00098708
22550.0 0.00097434
22570.0 0.0009619
22590.0 0.00094934
22610.0 0.00093631
22630.0 0.00092347
22650.0 0.00091125
22670.0 0.00089876
22690.0 0.00088642
22710.0 0.0008748
22730.0 0.00086359
22750.0 0.00085224
22770.0 0.00084181
22790.0 0.00083217
22810.0 0.00082279
22830.0 0.00081389
22850.0 0.0008059
22870.0 0.00079834
22890.0 0.00079106
22910.0 0.00078447
22930.0 0.00077847
22950.0 0.00077272
22970.0 0.00076728
22990.0 0.00076251
23010.0 0.00075796
23030.0 0.00075356
23050.0 0.00074949
23070.0 0.00074568
23090.0 0.00074181
23110.0 0.00073807
23130.0 0.00073451
23150.0 0.00073092
23170.0 0.00072723
23190.0 0.00072363
23210.0 0.00072009
23230.0 0.00071642
23250.0 0.00071277
23270.0 0.00070927
23290.0 0.00070578
23310.0 0.00070227
23330.0 0.00069906
23350.0 0.00069606
23370.0 0.00069319
23390.0 0.00069057
23410.0 0.00068829
23430.0 0.00068619
23450.0 0.00068431
23470.0 0.00068271
23490.0 0.00068132
23510.0 0.00068007
23530.0 0.00067898
23550.0 0.00067804
23570.0 0.00067716
23590.0 0.00067634
23610.0 0.00067557
23630.0 0.00067482
23650.0 0.00067406
23670.0 0.00067333
23690.0 0.00067263
23710.0 0.00067198
23730.0 0.00067142
23750.0 0.00067103
23770.0 0.00067084
23790.0 0.00067096
23810.0 0.00067149
23830.0 0.00067245
23850.0 0.00067406
23870.0 0.00067645
23890.0 0.0006795
23910.0 0.00068338
23930.0 0.00068833
23950.0 0.00069413
23970.0 0.00070055
23990.0 0.00070808
24010.0 0.00071648
24030.0 0.00072524
