#lamb flux
1010.0 2.1301e-08
1030.0 2.3559e-08
1050.0 2.6156e-08
1070.0 2.908e-08
1090.0 3.2401e-08
1110.0 3.5807e-08
1130.0 3.9235e-08
1150.0 4.2826e-08
1170.0 4.653e-08
1190.0 5.0043e-08
1210.0 5.3602e-08
1230.0 5.7281e-08
1250.0 6.0885e-08
1270.0 6.4385e-08
1290.0 6.8084e-08
1310.0 7.178e-08
1330.0 7.5324e-08
1350.0 7.8908e-08
1370.0 8.2609e-08
1390.0 8.6217e-08
1410.0 8.9717e-08
1430.0 9.3377e-08
1450.0 9.7037e-08
1470.0 1.0057e-07
1490.0 1.0415e-07
1510.0 1.0793e-07
1530.0 1.1151e-07
1550.0 1.1504e-07
1570.0 1.1869e-07
1590.0 1.2235e-07
1610.0 1.2585e-07
1630.0 1.2946e-07
1650.0 1.3316e-07
1670.0 1.3674e-07
1690.0 1.4028e-07
1710.0 1.4396e-07
1730.0 1.4766e-07
1750.0 1.5115e-07
1770.0 1.5474e-07
1790.0 1.5841e-07
1810.0 1.6196e-07
1830.0 1.6546e-07
1850.0 1.6918e-07
1870.0 1.7281e-07
1890.0 1.7632e-07
1910.0 1.7991e-07
1930.0 1.8359e-07
1950.0 1.8711e-07
1970.0 1.906e-07
1990.0 1.9423e-07
2010.0 1.9781e-07
2030.0 2.0126e-07
2050.0 2.0484e-07
2070.0 2.085e-07
2090.0 2.1197e-07
2110.0 2.1544e-07
2130.0 2.1902e-07
2150.0 2.2253e-07
2170.0 2.259e-07
2190.0 2.2941e-07
2210.0 2.3294e-07
2230.0 2.3634e-07
2250.0 2.3972e-07
2270.0 2.4326e-07
2290.0 2.467e-07
2310.0 2.5e-07
2330.0 2.5344e-07
2350.0 2.5697e-07
2370.0 2.6048e-07
2390.0 2.6429e-07
2410.0 2.688e-07
2430.0 2.7399e-07
2450.0 2.8019e-07
2470.0 2.8813e-07
2490.0 2.9815e-07
2510.0 3.0953e-07
2530.0 3.2323e-07
2550.0 3.4038e-07
2570.0 3.6171e-07
2590.0 3.8946e-07
2610.0 4.3101e-07
2630.0 4.9033e-07
2650.0 5.679e-07
2670.0 6.6818e-07
2690.0 7.9142e-07
2710.0 9.2297e-07
2730.0 1.053e-06
2750.0 1.181e-06
2770.0 1.2924e-06
2790.0 1.3808e-06
2810.0 1.451e-06
2830.0 1.5058e-06
2850.0 1.5432e-06
2870.0 1.5707e-06
2890.0 1.5924e-06
2910.0 1.6098e-06
2930.0 1.624e-06
2950.0 1.6375e-06
2970.0 1.6508e-06
2990.0 1.6632e-06
3010.0 4.7011e-05
3030.0 4.7362e-05
3050.0 4.7702e-05
3070.0 4.7993e-05
3090.0 4.8243e-05
3110.0 4.8398e-05
3130.0 4.8392e-05
3150.0 4.8177e-05
3170.0 4.7661e-05
3190.0 4.6851e-05
3210.0 4.5823e-05
3230.0 4.4647e-05
3250.0 4.3486e-05
3270.0 4.2637e-05
3290.0 4.2166e-05
3310.0 4.2243e-05
3330.0 4.2854e-05
3350.0 4.3919e-05
3370.0 4.5439e-05
3390.0 4.7355e-05
3410.0 4.9439e-05
3430.0 5.178e-05
3450.0 5.4474e-05
3470.0 5.7417e-05
3490.0 6.0536e-05
3510.0 6.406e-05
3530.0 6.7835e-05
3550.0 7.1656e-05
3570.0 7.5643e-05
3590.0 7.9978e-05
3610.0 8.4446e-05
3630.0 8.8899e-05
3650.0 9.352e-05
3670.0 9.7738e-05
3690.0 0.00010089
3710.0 0.0001027
3730.0 0.00010276
3750.0 0.00010133
3770.0 0.00010077
3790.0 0.00010017
3810.0 9.7706e-05
3830.0 0.00010073
3850.0 0.00011263
3870.0 0.00011916
3890.0 0.00011862
3910.0 0.00011912
3930.0 0.00012226
3950.0 0.00012419
3970.0 0.00011315
3990.0 9.7357e-05
4010.0 0.00029179
4030.0 0.00035355
4050.0 0.00040532
4070.0 0.00035168
4090.0 0.00031852
4110.0 0.00028106
4130.0 0.00025869
4150.0 0.00027517
4170.0 0.00027105
4190.0 0.00028892
4210.0 0.00028628
4230.0 0.00030281
4250.0 0.00035823
4270.0 0.00036244
4290.0 0.00033398
4310.0 0.00034703
4330.0 0.00036914
4350.0 0.00041389
4370.0 0.00047102
4390.0 0.000442
4410.0 0.00032656
4430.0 0.00027646
4450.0 0.00025403
4470.0 0.00019498
4490.0 0.00021041
4510.0 0.00031782
4530.0 0.00036654
4550.0 0.00036972
4570.0 0.00041603
4590.0 0.0004739
4610.0 0.00063918
4630.0 0.00083016
4650.0 0.0009003
4670.0 0.00083376
4690.0 0.00079556
4710.0 0.00084096
4730.0 0.00079363
4750.0 0.00059334
4770.0 0.00043524
4790.0 0.00040642
4810.0 0.00038739
4830.0 0.00035465
4850.0 0.00038917
4870.0 0.00051413
4890.0 0.0006063
4910.0 0.00053195
4930.0 0.0004707
4950.0 0.00051714
4970.0 0.0006632
4990.0 0.00089879
5010.0 0.0010339
5030.0 0.00091169
5050.0 0.00061682
5070.0 0.00040651
5090.0 0.00032779
5110.0 0.0003371
5130.0 0.00038907
5150.0 0.00042152
5170.0 0.0004152
5190.0 0.00038798
5210.0 0.00040552
5230.0 0.0004263
5250.0 0.00045943
5270.0 0.00049569
5290.0 0.00054933
5310.0 0.0006394
5330.0 0.00070757
5350.0 0.00070306
5370.0 0.00073849
5390.0 0.00084743
5410.0 0.00084667
5430.0 0.00074876
5450.0 0.00068793
5470.0 0.00073046
5490.0 0.00089242
5510.0 0.0011158
5530.0 0.0012798
5550.0 0.0012369
5570.0 0.0011245
5590.0 0.00097774
5610.0 0.00090169
5630.0 0.00087436
5650.0 0.00083274
5670.0 0.00078909
5690.0 0.00070544
5710.0 0.00068782
5730.0 0.00063358
5750.0 0.00044671
5770.0 0.00034851
5790.0 0.00039493
5810.0 0.00044595
5830.0 0.00054724
5850.0 0.00065143
5870.0 0.00072277
5890.0 0.00073501
5910.0 0.0007211
5930.0 0.0006864
5950.0 0.00069943
5970.0 0.00079727
5990.0 0.00074964
6010.0 0.00062842
6030.0 0.00053092
6050.0 0.00046237
6070.0 0.00045984
6090.0 0.00049862
6110.0 0.00055754
6130.0 0.00056608
6150.0 0.00048706
6170.0 0.00042846
6190.0 0.00048217
6210.0 0.00063743
6230.0 0.00083648
6250.0 0.00090603
6270.0 0.00079175
6290.0 0.00066614
6310.0 0.00052004
6330.0 0.00039845
6350.0 0.0003554
6370.0 0.00037375
6390.0 0.00043207
6410.0 0.00053276
6430.0 0.00062212
6450.0 0.00071187
6470.0 0.0008151
6490.0 0.00098459
6510.0 0.0011009
6530.0 0.0010801
6550.0 0.00097666
6570.0 0.00082909
6590.0 0.00074762
6610.0 0.00064464
6630.0 0.00058402
6650.0 0.00055206
6670.0 0.00053632
6690.0 0.00048459
6710.0 0.0004405
6730.0 0.00031729
6750.0 0.00031456
6770.0 0.0003419
6790.0 0.00039299
6810.0 0.00035959
6830.0 0.00037028
6850.0 0.00034633
6870.0 0.00031637
6890.0 0.00030377
6910.0 0.0003237
6930.0 0.00030319
6950.0 0.00031194
6970.0 0.0003281
6990.0 0.00037242
7010.0 0.00037559
7030.0 0.00038156
7050.0 0.00036388
7070.0 0.00034671
7090.0 0.00034773
7110.0 0.00035778
7130.0 0.00038503
7150.0 0.00040893
7170.0 0.00045123
7190.0 0.00049603
7210.0 0.00048741
7230.0 0.00050107
7250.0 0.00053848
7270.0 0.00058681
7290.0 0.00069648
7310.0 0.00075575
7330.0 0.00073049
7350.0 0.00066069
7370.0 0.00057486
7390.0 0.00055768
7410.0 0.00059265
7430.0 0.00065865
7450.0 0.00071739
7470.0 0.0007108
7490.0 0.00064812
7510.0 0.00073416
7530.0 0.00072612
7550.0 0.00065265
7570.0 0.00050984
7590.0 0.0003505
7610.0 0.00030083
7630.0 0.00034181
7650.0 0.00040414
7670.0 0.00050298
7690.0 0.00055349
7710.0 0.00057681
7730.0 0.00060616
7750.0 0.00068048
7770.0 0.00069118
7790.0 0.00063488
7810.0 0.00057929
7830.0 0.00059738
7850.0 0.00058071
7870.0 0.00053242
7890.0 0.00044733
7910.0 0.00036362
7930.0 0.0003472
7950.0 0.00031631
7970.0 0.00029281
7990.0 0.00029114
8010.0 2.1563e-05
8030.0 2.1282e-05
8050.0 2.0995e-05
8070.0 2.127e-05
8090.0 2.2854e-05
8110.0 2.2465e-05
8130.0 1.8531e-05
8150.0 1.8047e-05
8170.0 1.5545e-05
8190.0 1.4732e-05
8210.0 1.9131e-05
8230.0 2.13e-05
8250.0 1.9197e-05
8270.0 1.6709e-05
8290.0 1.6288e-05
8310.0 1.2536e-05
8330.0 8.4493e-06
8350.0 5.9964e-06
8370.0 3.778e-06
8390.0 6.9061e-06
8410.0 8.0475e-06
8430.0 9.9198e-06
8450.0 1.1649e-05
8470.0 1.4478e-05
8490.0 1.4376e-05
8510.0 1.4141e-05
8530.0 1.4758e-05
8550.0 1.9912e-05
8570.0 2.3573e-05
8590.0 2.5435e-05
8610.0 3.213e-05
8630.0 3.8706e-05
8650.0 4.049e-05
8670.0 4.3029e-05
8690.0 4.327e-05
8710.0 3.9187e-05
8730.0 3.645e-05
8750.0 3.2174e-05
8770.0 3.0529e-05
8790.0 2.9993e-05
8810.0 2.874e-05
8830.0 2.2982e-05
8850.0 1.6824e-05
8870.0 1.2882e-05
8890.0 1.2595e-05
8910.0 1.4434e-05
8930.0 1.6417e-05
8950.0 1.6732e-05
8970.0 1.6811e-05
8990.0 1.4993e-05
9010.0 0.00015712
9030.0 0.00014237
9050.0 0.00014306
9070.0 0.00014419
9090.0 0.00014518
9110.0 0.0001464
9130.0 0.00014734
9150.0 0.00014808
9170.0 0.00014886
9190.0 0.00014969
9210.0 0.00015057
9230.0 0.0001515
9250.0 0.00015244
9270.0 0.00015342
9290.0 0.00015443
9310.0 0.00015544
9330.0 0.00015648
9350.0 0.00015755
9370.0 0.00015864
9390.0 0.00015973
9410.0 0.00016086
9430.0 0.00016202
9450.0 0.00016318
9470.0 0.00016436
9490.0 0.00016557
9510.0 0.0001668
9530.0 0.00016804
9550.0 0.00016932
9570.0 0.00017062
9590.0 0.00017192
9610.0 0.00017325
9630.0 0.00017461
9650.0 0.00017599
9670.0 0.00017736
9690.0 0.00017878
9710.0 0.00018021
9730.0 0.00018165
9750.0 0.00018311
9770.0 0.00018462
9790.0 0.00018612
9810.0 0.00018762
9830.0 0.00018916
9850.0 0.00019072
9870.0 0.00019228
9890.0 0.00019386
9910.0 0.00019547
9930.0 0.00019708
9950.0 0.00019869
9970.0 0.00020034
9990.0 0.00020201
10010.0 0.00017529
10030.0 0.00017673
10050.0 0.0001782
10070.0 0.00017971
10090.0 0.00018115
10110.0 0.00018261
10130.0 0.00018409
10150.0 0.00018555
10170.0 0.00018704
10190.0 0.00018855
10210.0 0.00019004
10230.0 0.00019153
10250.0 0.00019305
10270.0 0.00019456
10290.0 0.00019605
10310.0 0.00019756
10330.0 0.00019909
10350.0 0.00020059
10370.0 0.00020209
10390.0 0.0002036
10410.0 0.00020511
10430.0 0.00020659
10450.0 0.00020808
10470.0 0.00020957
10490.0 0.00021104
10510.0 0.0002125
10530.0 0.00021399
10550.0 0.00021545
10570.0 0.00021688
10590.0 0.00021831
10610.0 0.00021975
10630.0 0.00022115
10650.0 0.00022254
10670.0 0.00022394
10690.0 0.00022532
10710.0 0.00022666
10730.0 0.00022801
10750.0 0.00022936
10770.0 0.00023066
10790.0 0.00023195
10810.0 0.00023323
10830.0 0.00023447
10850.0 0.00023566
10870.0 0.0002368
10890.0 0.00023781
10910.0 0.00023858
10930.0 0.00023902
10950.0 0.00023892
10970.0 0.00023811
10990.0 0.00023652
11010.0 0.00023386
11030.0 0.00023014
11050.0 0.00022561
11070.0 0.00022019
11090.0 0.00021367
11110.0 0.00020693
11130.0 0.00019991
11150.0 0.00019234
11170.0 0.00018454
11190.0 0.00017697
11210.0 0.00016915
11230.0 0.00016114
11250.0 0.00015348
11270.0 0.00014613
11290.0 0.00013876
11310.0 0.00013178
11330.0 0.00012564
11350.0 0.00011983
11370.0 0.00011447
11390.0 0.00010983
11410.0 0.00010577
11430.0 0.00010199
11450.0 9.8742e-05
11470.0 9.593e-05
11490.0 9.3315e-05
11510.0 9.0794e-05
11530.0 8.8456e-05
11550.0 8.6132e-05
11570.0 8.3653e-05
11590.0 8.1086e-05
11610.0 7.8474e-05
11630.0 7.563e-05
11650.0 7.2586e-05
11670.0 6.9585e-05
11690.0 6.6542e-05
11710.0 6.3403e-05
11730.0 6.0362e-05
11750.0 5.7547e-05
11770.0 5.4786e-05
11790.0 5.2199e-05
11810.0 4.9921e-05
11830.0 4.7884e-05
11850.0 4.6008e-05
11870.0 4.4439e-05
11890.0 4.3134e-05
11910.0 4.1988e-05
11930.0 4.1002e-05
11950.0 4.0182e-05
11970.0 3.9449e-05
11990.0 3.8756e-05
12010.0 3.8115e-05
12030.0 3.7497e-05
12050.0 3.6858e-05
12070.0 3.6194e-05
12090.0 3.5554e-05
12110.0 3.4904e-05
12130.0 3.4252e-05
12150.0 3.3652e-05
12170.0 3.3127e-05
12190.0 3.2674e-05
12210.0 3.2358e-05
12230.0 3.2205e-05
12250.0 3.2229e-05
12270.0 3.2472e-05
12290.0 3.2932e-05
12310.0 3.3591e-05
12330.0 3.4513e-05
12350.0 3.5663e-05
12370.0 3.6973e-05
12390.0 3.8484e-05
12410.0 4.0254e-05
12430.0 4.2053e-05
12450.0 4.3916e-05
12470.0 4.5896e-05
12490.0 4.7886e-05
12510.0 4.9752e-05
12530.0 5.1609e-05
12550.0 5.34e-05
12570.0 5.4981e-05
12590.0 5.6369e-05
12610.0 5.7606e-05
12630.0 5.8592e-05
12650.0 5.9273e-05
12670.0 5.972e-05
12690.0 5.99e-05
12710.0 5.9801e-05
12730.0 5.9454e-05
12750.0 5.8836e-05
12770.0 5.7987e-05
12790.0 5.6958e-05
12810.0 5.5729e-05
12830.0 5.4307e-05
12850.0 5.282e-05
12870.0 5.1247e-05
12890.0 4.9546e-05
12910.0 4.7817e-05
12930.0 4.6112e-05
12950.0 4.4334e-05
12970.0 4.2523e-05
12990.0 4.081e-05
13010.0 3.9119e-05
13030.0 3.7408e-05
13050.0 3.5765e-05
13070.0 3.4226e-05
13090.0 3.2682e-05
13110.0 3.1188e-05
13130.0 2.981e-05
13150.0 2.8506e-05
13170.0 2.7228e-05
13190.0 2.6092e-05
13210.0 2.5091e-05
13230.0 2.4177e-05
13250.0 2.339e-05
13270.0 2.2768e-05
13290.0 2.2285e-05
13310.0 2.1953e-05
13330.0 2.1801e-05
13350.0 2.1819e-05
13370.0 2.2014e-05
13390.0 2.2399e-05
13410.0 2.2918e-05
13430.0 2.3594e-05
13450.0 2.4428e-05
13470.0 2.5354e-05
13490.0 2.6335e-05
13510.0 2.7441e-05
13530.0 2.8562e-05
13550.0 2.9636e-05
13570.0 3.0694e-05
13590.0 3.1726e-05
13610.0 3.2643e-05
13630.0 3.3444e-05
13650.0 3.4176e-05
13670.0 3.4783e-05
13690.0 3.5252e-05
13710.0 3.5616e-05
13730.0 3.5875e-05
13750.0 3.6004e-05
13770.0 3.6034e-05
13790.0 3.5969e-05
13810.0 3.581e-05
13830.0 3.5575e-05
13850.0 3.5257e-05
13870.0 3.4856e-05
13890.0 3.4398e-05
13910.0 3.3881e-05
13930.0 3.3283e-05
13950.0 3.263e-05
13970.0 3.1963e-05
13990.0 3.1236e-05
14010.0 3.0462e-05
14030.0 2.9691e-05
14050.0 2.8914e-05
14070.0 2.8093e-05
14090.0 2.7307e-05
14110.0 2.6568e-05
14130.0 2.5852e-05
14150.0 2.5178e-05
14170.0 2.4603e-05
14190.0 2.4105e-05
14210.0 2.3683e-05
14230.0 2.3371e-05
14250.0 2.3169e-05
14270.0 2.3071e-05
14290.0 2.3092e-05
14310.0 2.322e-05
14330.0 2.3451e-05
14350.0 2.3792e-05
14370.0 2.4215e-05
14390.0 2.4697e-05
14410.0 2.5263e-05
14430.0 2.5886e-05
14450.0 2.6521e-05
14470.0 2.7181e-05
14490.0 2.7882e-05
14510.0 2.8553e-05
14530.0 2.919e-05
14550.0 2.9827e-05
14570.0 3.0438e-05
14590.0 3.0994e-05
14610.0 3.1532e-05
14630.0 3.2065e-05
14650.0 3.2561e-05
14670.0 3.304e-05
14690.0 3.3539e-05
14710.0 3.4065e-05
14730.0 3.459e-05
14750.0 3.5171e-05
14770.0 3.5831e-05
14790.0 3.6547e-05
14810.0 3.7322e-05
14830.0 3.824e-05
14850.0 3.9238e-05
14870.0 4.028e-05
14890.0 4.1403e-05
14910.0 4.2597e-05
14930.0 4.3744e-05
14950.0 4.4816e-05
14970.0 4.5831e-05
14990.0 4.6683e-05
15010.0 4.7333e-05
15030.0 4.7816e-05
15050.0 4.8135e-05
15070.0 4.829e-05
15090.0 4.8345e-05
15110.0 4.8329e-05
15130.0 4.8268e-05
15150.0 4.8187e-05
15170.0 4.809e-05
15190.0 4.7987e-05
15210.0 4.7885e-05
15230.0 4.7783e-05
15250.0 4.7677e-05
15270.0 4.7573e-05
15290.0 4.7474e-05
15310.0 4.7373e-05
15330.0 4.727e-05
15350.0 4.7172e-05
15370.0 4.7074e-05
15390.0 4.6971e-05
15410.0 4.6872e-05
15430.0 4.6776e-05
15450.0 4.6677e-05
15470.0 4.6577e-05
15490.0 4.6482e-05
15510.0 4.6388e-05
15530.0 4.629e-05
15550.0 4.6194e-05
15570.0 4.6101e-05
15590.0 4.6005e-05
15610.0 4.5907e-05
15630.0 4.5815e-05
15650.0 4.5722e-05
15670.0 4.5626e-05
15690.0 4.5533e-05
15710.0 4.5443e-05
15730.0 4.5349e-05
15750.0 4.5254e-05
15770.0 4.5164e-05
15790.0 4.5073e-05
15810.0 4.4977e-05
15830.0 4.4886e-05
15850.0 4.4797e-05
15870.0 4.4705e-05
15890.0 4.4612e-05
15910.0 4.4524e-05
15930.0 4.4434e-05
15950.0 4.434e-05
15970.0 4.425e-05
15990.0 4.4162e-05
16010.0 4.407e-05
16030.0 4.3977e-05
16050.0 4.389e-05
16070.0 4.3801e-05
16090.0 4.3709e-05
16110.0 4.362e-05
16130.0 4.3533e-05
16150.0 4.344e-05
16170.0 4.3349e-05
16190.0 4.3261e-05
16210.0 4.3171e-05
16230.0 4.3079e-05
16250.0 4.2991e-05
16270.0 4.2903e-05
16290.0 4.2811e-05
16310.0 4.2721e-05
16330.0 4.2633e-05
16350.0 4.2543e-05
16370.0 4.2448e-05
16390.0 4.236e-05
16410.0 4.2272e-05
16430.0 4.218e-05
16450.0 4.2089e-05
16470.0 4.2002e-05
16490.0 4.191e-05
16510.0 4.1817e-05
16530.0 4.1727e-05
16550.0 4.1638e-05
16570.0 4.1544e-05
16590.0 4.1451e-05
16610.0 4.1363e-05
16630.0 4.1271e-05
16650.0 4.1177e-05
16670.0 4.1087e-05
16690.0 4.0997e-05
16710.0 4.0901e-05
16730.0 4.0808e-05
16750.0 4.0718e-05
16770.0 4.0624e-05
16790.0 4.0528e-05
16810.0 4.0438e-05
16830.0 4.0346e-05
16850.0 4.025e-05
16870.0 4.0156e-05
16890.0 4.0065e-05
16910.0 3.9969e-05
16930.0 3.9871e-05
16950.0 3.9778e-05
16970.0 3.9684e-05
16990.0 3.9587e-05
17010.0 3.9492e-05
17030.0 3.9399e-05
17050.0 3.9302e-05
17070.0 3.9204e-05
17090.0 3.9109e-05
17110.0 3.9013e-05
17130.0 3.8913e-05
17150.0 3.8816e-05
17170.0 3.8721e-05
17190.0 3.8622e-05
17210.0 3.8523e-05
17230.0 3.8428e-05
17250.0 3.833e-05
17270.0 3.8228e-05
17290.0 3.813e-05
17310.0 3.8032e-05
17330.0 3.7931e-05
17350.0 3.7829e-05
17370.0 3.7733e-05
17390.0 3.7633e-05
17410.0 3.753e-05
17430.0 3.7431e-05
17450.0 3.7333e-05
17470.0 3.7228e-05
17490.0 3.7125e-05
17510.0 3.7026e-05
17530.0 3.6924e-05
17550.0 3.6819e-05
17570.0 3.6718e-05
17590.0 3.6618e-05
17610.0 3.6513e-05
17630.0 3.6409e-05
17650.0 3.6308e-05
17670.0 3.6204e-05
17690.0 3.6096e-05
17710.0 3.5994e-05
17730.0 3.5892e-05
17750.0 3.5785e-05
17770.0 3.568e-05
17790.0 3.5579e-05
17810.0 3.5472e-05
17830.0 3.5364e-05
17850.0 3.526e-05
17870.0 3.5156e-05
17890.0 3.5047e-05
17910.0 3.4939e-05
17930.0 3.4836e-05
17950.0 3.4729e-05
17970.0 3.4621e-05
17990.0 3.4516e-05
18010.0 3.441e-05
18030.0 3.4299e-05
18050.0 3.4191e-05
18070.0 3.4085e-05
18090.0 3.3977e-05
18110.0 3.3866e-05
18130.0 3.376e-05
18150.0 3.3653e-05
18170.0 3.3542e-05
18190.0 3.3434e-05
18210.0 3.3328e-05
18230.0 3.3216e-05
18250.0 3.3104e-05
18270.0 3.2997e-05
18290.0 3.2888e-05
18310.0 3.2776e-05
18330.0 3.2667e-05
18350.0 3.256e-05
18370.0 3.2448e-05
18390.0 3.2336e-05
18410.0 3.2228e-05
18430.0 3.2118e-05
18450.0 3.2004e-05
18470.0 3.1894e-05
18490.0 3.1786e-05
18510.0 3.1673e-05
18530.0 3.1561e-05
18550.0 3.1453e-05
18570.0 3.1342e-05
18590.0 3.1227e-05
18610.0 3.1117e-05
18630.0 3.1007e-05
18650.0 3.0894e-05
18670.0 3.078e-05
18690.0 3.0672e-05
18710.0 3.056e-05
18730.0 3.0446e-05
18750.0 3.0336e-05
18770.0 3.0226e-05
18790.0 3.011e-05
18810.0 2.9997e-05
18830.0 2.9887e-05
18850.0 2.9775e-05
18870.0 2.966e-05
18890.0 2.955e-05
18910.0 2.944e-05
18930.0 2.9325e-05
18950.0 2.9212e-05
18970.0 2.9102e-05
18990.0 2.8989e-05
19010.0 2.8872e-05
19030.0 2.8762e-05
19050.0 2.8651e-05
19070.0 2.8537e-05
19090.0 2.8424e-05
19110.0 2.8315e-05
19130.0 2.8201e-05
19150.0 2.8086e-05
19170.0 2.7975e-05
19190.0 2.7864e-05
19210.0 2.7748e-05
19230.0 2.7635e-05
19250.0 2.7526e-05
19270.0 2.7412e-05
19290.0 2.7298e-05
19310.0 2.7188e-05
19330.0 2.7077e-05
19350.0 2.696e-05
19370.0 2.6848e-05
19390.0 2.6738e-05
19410.0 2.6624e-05
19430.0 2.651e-05
19450.0 2.64e-05
19470.0 2.6289e-05
19490.0 2.6174e-05
19510.0 2.6062e-05
19530.0 2.5953e-05
19550.0 2.5838e-05
19570.0 2.5723e-05
19590.0 2.5614e-05
19610.0 2.5503e-05
19630.0 2.5388e-05
19650.0 2.5277e-05
19670.0 2.5168e-05
19690.0 2.5054e-05
19710.0 2.4941e-05
19730.0 2.4832e-05
19750.0 2.472e-05
19770.0 2.4605e-05
19790.0 2.4494e-05
19810.0 2.4385e-05
19830.0 2.4271e-05
19850.0 2.4158e-05
19870.0 2.4046e-05
19890.0 2.3926e-05
19910.0 2.3794e-05
19930.0 2.3652e-05
19950.0 2.3491e-05
19970.0 2.3292e-05
19990.0 2.3053e-05
20010.0 2.051e-05
20030.0 2.0213e-05
20050.0 1.9866e-05
20070.0 1.9489e-05
20090.0 1.9084e-05
20110.0 1.8626e-05
20130.0 1.8163e-05
20150.0 1.7703e-05
20170.0 1.7227e-05
20190.0 1.6743e-05
20210.0 1.6287e-05
20230.0 1.5842e-05
20250.0 1.5396e-05
20270.0 1.4982e-05
20290.0 1.4603e-05
20310.0 1.4244e-05
20330.0 1.3909e-05
20350.0 1.363e-05
20370.0 1.3382e-05
20390.0 1.3166e-05
20410.0 1.299e-05
20430.0 1.2855e-05
20450.0 1.2748e-05
20470.0 1.2677e-05
20490.0 1.2638e-05
20510.0 1.2627e-05
20530.0 1.2643e-05
20550.0 1.2682e-05
20570.0 1.2738e-05
20590.0 1.2815e-05
20610.0 1.2908e-05
20630.0 1.3011e-05
20650.0 1.3126e-05
20670.0 1.3257e-05
20690.0 1.3391e-05
20710.0 1.3529e-05
20730.0 1.3678e-05
20750.0 1.3833e-05
20770.0 1.3987e-05
20790.0 1.4147e-05
20810.0 1.4317e-05
20830.0 1.4487e-05
20850.0 1.4657e-05
20870.0 1.4838e-05
20890.0 1.5024e-05
20910.0 1.5203e-05
20930.0 1.5389e-05
20950.0 1.5581e-05
20970.0 1.5769e-05
20990.0 1.5954e-05
21010.0 1.6149e-05
21030.0 1.6339e-05
21050.0 1.652e-05
21070.0 1.6702e-05
21090.0 1.6884e-05
21110.0 1.7049e-05
21130.0 1.7205e-05
21150.0 1.7356e-05
21170.0 1.7493e-05
21190.0 1.7611e-05
21210.0 1.7716e-05
21230.0 1.7804e-05
21250.0 1.7867e-05
21270.0 1.7907e-05
21290.0 1.7922e-05
21310.0 1.7907e-05
21330.0 1.7865e-05
21350.0 1.7791e-05
21370.0 1.7682e-05
21390.0 1.7544e-05
21410.0 1.7374e-05
21430.0 1.7159e-05
21450.0 1.6918e-05
21470.0 1.6656e-05
21490.0 1.6359e-05
21510.0 1.6033e-05
21530.0 1.5702e-05
21550.0 1.5356e-05
21570.0 1.4986e-05
21590.0 1.4622e-05
21610.0 1.4271e-05
21630.0 1.3919e-05
21650.0 1.3576e-05
21670.0 1.3278e-05
21690.0 1.3003e-05
21710.0 1.2756e-05
21730.0 1.2553e-05
21750.0 1.2397e-05
21770.0 1.2278e-05
21790.0 1.221e-05
21810.0 1.2191e-05
21830.0 1.2218e-05
21850.0 1.2294e-05
21870.0 1.2413e-05
21890.0 1.2567e-05
21910.0 1.2764e-05
21930.0 1.2996e-05
21950.0 1.3246e-05
21970.0 1.3524e-05
21990.0 1.3836e-05
22010.0 1.4147e-05
22030.0 1.4464e-05
22050.0 1.4796e-05
22070.0 1.513e-05
22090.0 1.5447e-05
22110.0 1.5766e-05
22130.0 1.6084e-05
22150.0 1.6382e-05
22170.0 1.6662e-05
22190.0 1.694e-05
22210.0 1.7199e-05
22230.0 1.7426e-05
22250.0 1.764e-05
22270.0 1.7838e-05
22290.0 1.8006e-05
22310.0 1.8151e-05
22330.0 1.8279e-05
22350.0 1.8377e-05
22370.0 1.8447e-05
22390.0 1.849e-05
22410.0 1.8504e-05
22430.0 1.8486e-05
22450.0 1.8439e-05
22470.0 1.8356e-05
22490.0 1.8241e-05
22510.0 1.8097e-05
22530.0 1.7912e-05
22550.0 1.7688e-05
22570.0 1.7439e-05
22590.0 1.7159e-05
22610.0 1.6836e-05
22630.0 1.6487e-05
