#lamb flux
1010.0 1.6345e-09
1030.0 1.8042e-09
1050.0 1.9992e-09
1070.0 2.2188e-09
1090.0 2.4683e-09
1110.0 2.7241e-09
1130.0 2.9816e-09
1150.0 3.2513e-09
1170.0 3.5295e-09
1190.0 3.7934e-09
1210.0 4.0607e-09
1230.0 4.337e-09
1250.0 4.6077e-09
1270.0 4.8706e-09
1290.0 5.1484e-09
1310.0 5.426e-09
1330.0 5.6922e-09
1350.0 5.9614e-09
1370.0 6.2394e-09
1390.0 6.5104e-09
1410.0 6.7733e-09
1430.0 7.0482e-09
1450.0 7.3231e-09
1470.0 7.5887e-09
1490.0 7.8573e-09
1510.0 8.141e-09
1530.0 8.4098e-09
1550.0 8.675e-09
1570.0 8.9495e-09
1590.0 9.2242e-09
1610.0 9.4868e-09
1630.0 9.7576e-09
1650.0 1.0036e-08
1670.0 1.0305e-08
1690.0 1.057e-08
1710.0 1.0846e-08
1730.0 1.1124e-08
1750.0 1.1386e-08
1770.0 1.1655e-08
1790.0 1.193e-08
1810.0 1.2197e-08
1830.0 1.2459e-08
1850.0 1.2737e-08
1870.0 1.3009e-08
1890.0 1.3272e-08
1910.0 1.3541e-08
1930.0 1.3816e-08
1950.0 1.408e-08
1970.0 1.434e-08
1990.0 1.4611e-08
2010.0 1.4878e-08
2030.0 1.5135e-08
2050.0 1.5401e-08
2070.0 1.5674e-08
2090.0 1.5931e-08
2110.0 1.6188e-08
2130.0 1.6453e-08
2150.0 1.6713e-08
2170.0 1.6962e-08
2190.0 1.722e-08
2210.0 1.748e-08
2230.0 1.773e-08
2250.0 1.7977e-08
2270.0 1.8236e-08
2290.0 1.8487e-08
2310.0 1.8727e-08
2330.0 1.8977e-08
2350.0 1.9233e-08
2370.0 1.9487e-08
2390.0 1.9764e-08
2410.0 2.0093e-08
2430.0 2.0473e-08
2450.0 2.0931e-08
2470.0 2.152e-08
2490.0 2.2267e-08
2510.0 2.3117e-08
2530.0 2.4143e-08
2550.0 2.543e-08
2570.0 2.7031e-08
2590.0 2.9114e-08
2610.0 3.2231e-08
2630.0 3.6674e-08
2650.0 4.2474e-08
2670.0 4.9961e-08
2690.0 5.9147e-08
2710.0 6.8933e-08
2730.0 7.8581e-08
2750.0 8.8065e-08
2770.0 9.6287e-08
2790.0 1.0279e-07
2810.0 1.0792e-07
2830.0 1.1189e-07
2850.0 1.1457e-07
2870.0 1.1651e-07
2890.0 1.1802e-07
2910.0 1.1921e-07
2930.0 1.2016e-07
2950.0 1.2106e-07
2970.0 1.2195e-07
2990.0 1.2277e-07
3010.0 3.5212e-06
3030.0 3.5447e-06
3050.0 3.5674e-06
3070.0 3.5865e-06
3090.0 3.6027e-06
3110.0 3.6119e-06
3130.0 3.6091e-06
3150.0 3.5909e-06
3170.0 3.5502e-06
3190.0 3.4878e-06
3210.0 3.4092e-06
3230.0 3.3196e-06
3250.0 3.2306e-06
3270.0 3.1654e-06
3290.0 3.1275e-06
3310.0 3.1313e-06
3330.0 3.1745e-06
3350.0 3.2514e-06
3370.0 3.3622e-06
3390.0 3.5023e-06
3410.0 3.6551e-06
3430.0 3.8268e-06
3450.0 4.0246e-06
3470.0 4.2409e-06
3490.0 4.4703e-06
3510.0 4.7297e-06
3530.0 5.008e-06
3550.0 5.291e-06
3570.0 5.5876e-06
3590.0 5.9106e-06
3610.0 6.2457e-06
3630.0 6.5793e-06
3650.0 6.926e-06
3670.0 7.2418e-06
3690.0 7.4776e-06
3710.0 7.611e-06
3730.0 7.6083e-06
3750.0 7.4881e-06
3770.0 7.4705e-06
3790.0 7.4237e-06
3810.0 7.1183e-06
3830.0 7.3177e-06
3850.0 8.3796e-06
3870.0 8.8381e-06
3890.0 8.6094e-06
3910.0 8.5751e-06
3930.0 8.901e-06
3950.0 9.1678e-06
3970.0 8.4945e-06
3990.0 7.1134e-06
4010.0 2.0788e-05
4030.0 2.4939e-05
4050.0 2.8587e-05
4070.0 2.5164e-05
4090.0 2.2843e-05
4110.0 2.005e-05
4130.0 1.8824e-05
4150.0 2.0502e-05
4170.0 1.9762e-05
4190.0 2.0762e-05
4210.0 2.0786e-05
4230.0 2.2274e-05
4250.0 2.6423e-05
4270.0 2.6927e-05
4290.0 2.4671e-05
4310.0 2.5364e-05
4330.0 2.6785e-05
4350.0 3.0372e-05
4370.0 3.4802e-05
4390.0 3.2145e-05
4410.0 2.3194e-05
4430.0 1.9416e-05
4450.0 1.7881e-05
4470.0 1.3488e-05
4490.0 1.499e-05
4510.0 2.3535e-05
4530.0 2.7324e-05
4550.0 2.7279e-05
4570.0 3.002e-05
4590.0 3.3983e-05
4610.0 4.7606e-05
4630.0 6.2461e-05
4650.0 6.6751e-05
4670.0 6.1466e-05
4690.0 5.8955e-05
4710.0 6.221e-05
4730.0 5.799e-05
4750.0 4.2863e-05
4770.0 3.1201e-05
4790.0 2.9544e-05
4810.0 2.8459e-05
4830.0 2.6259e-05
4850.0 2.8763e-05
4870.0 3.8007e-05
4890.0 4.4726e-05
4910.0 3.8807e-05
4930.0 3.4683e-05
4950.0 3.8298e-05
4970.0 4.9267e-05
4990.0 6.6757e-05
5010.0 7.6906e-05
5030.0 6.7164e-05
5050.0 4.5057e-05
5070.0 2.9904e-05
5090.0 2.3926e-05
5110.0 2.4379e-05
5130.0 2.8277e-05
5150.0 3.0352e-05
5170.0 2.9772e-05
5190.0 2.7687e-05
5210.0 2.9132e-05
5230.0 3.1092e-05
5250.0 3.3779e-05
5270.0 3.5895e-05
5290.0 3.9655e-05
5310.0 4.6809e-05
5330.0 5.1712e-05
5350.0 5.1347e-05
5370.0 5.4275e-05
5390.0 6.2865e-05
5410.0 6.1844e-05
5430.0 5.4036e-05
5450.0 5.0076e-05
5470.0 5.3617e-05
5490.0 6.5619e-05
5510.0 8.1773e-05
5530.0 9.392e-05
5550.0 9.0197e-05
5570.0 8.1917e-05
5590.0 7.0856e-05
5610.0 6.5929e-05
5630.0 6.4946e-05
5650.0 6.1573e-05
5670.0 5.8141e-05
5690.0 5.1444e-05
5710.0 5.044e-05
5730.0 4.6713e-05
5750.0 3.2171e-05
5770.0 2.4886e-05
5790.0 2.8406e-05
5810.0 3.1854e-05
5830.0 3.9961e-05
5850.0 4.8064e-05
5870.0 5.3201e-05
5890.0 5.3789e-05
5910.0 5.2751e-05
5930.0 5.0238e-05
5950.0 5.1243e-05
5970.0 5.8961e-05
5990.0 5.4683e-05
6010.0 4.5488e-05
6030.0 3.8323e-05
6050.0 3.3454e-05
6070.0 3.3856e-05
6090.0 3.6826e-05
6110.0 4.0786e-05
6130.0 4.1062e-05
6150.0 3.5042e-05
6170.0 3.0439e-05
6190.0 3.4425e-05
6210.0 4.6281e-05
6230.0 6.1546e-05
6250.0 6.6694e-05
6270.0 5.7501e-05
6290.0 4.8473e-05
6310.0 3.7754e-05
6330.0 2.8786e-05
6350.0 2.5917e-05
6370.0 2.7249e-05
6390.0 3.1588e-05
6410.0 3.9172e-05
6430.0 4.5893e-05
6450.0 5.2912e-05
6470.0 6.0003e-05
6490.0 7.2378e-05
6510.0 8.0946e-05
6530.0 7.9829e-05
6550.0 7.2326e-05
6570.0 6.0911e-05
6590.0 5.5191e-05
6610.0 4.7375e-05
6630.0 4.361e-05
6650.0 4.1398e-05
6670.0 3.9659e-05
6690.0 3.5192e-05
6710.0 3.2242e-05
6730.0 2.2139e-05
6750.0 2.2536e-05
6770.0 2.5551e-05
6790.0 2.9928e-05
6810.0 2.6481e-05
6830.0 2.7239e-05
6850.0 2.5134e-05
6870.0 2.2999e-05
6890.0 2.1794e-05
6910.0 2.3572e-05
6930.0 2.2097e-05
6950.0 2.3123e-05
6970.0 2.4312e-05
6990.0 2.7526e-05
7010.0 2.7585e-05
7030.0 2.848e-05
7050.0 2.6848e-05
7070.0 2.5185e-05
7090.0 2.5466e-05
7110.0 2.6332e-05
7130.0 2.8582e-05
7150.0 3.0594e-05
7170.0 3.3841e-05
7190.0 3.7107e-05
7210.0 3.6047e-05
7230.0 3.6999e-05
7250.0 3.9718e-05
7270.0 4.3159e-05
7290.0 5.1498e-05
7310.0 5.5783e-05
7330.0 5.378e-05
7350.0 4.8599e-05
7370.0 4.1571e-05
7390.0 4.055e-05
7410.0 4.375e-05
7430.0 4.878e-05
7450.0 5.3067e-05
7470.0 5.205e-05
7490.0 4.6657e-05
7510.0 5.5013e-05
7530.0 5.3915e-05
7550.0 4.882e-05
7570.0 3.7519e-05
7590.0 2.4749e-05
7610.0 2.0947e-05
7630.0 2.4326e-05
7650.0 2.9103e-05
7670.0 3.7192e-05
7690.0 4.0964e-05
7710.0 4.2016e-05
7730.0 4.392e-05
7750.0 5.017e-05
7770.0 5.1044e-05
7790.0 4.6844e-05
7810.0 4.2142e-05
7830.0 4.3712e-05
7850.0 4.3108e-05
7870.0 3.9843e-05
7890.0 3.3161e-05
7910.0 2.6396e-05
7930.0 2.5446e-05
7950.0 2.3167e-05
7970.0 2.1227e-05
7990.0 2.0911e-05
8010.0 2.8784e-06
8030.0 2.6778e-06
8050.0 2.806e-06
8070.0 3.1184e-06
8090.0 3.7482e-06
8110.0 3.5875e-06
8130.0 2.2836e-06
8150.0 2.3712e-06
8170.0 1.4928e-06
8190.0 1.0667e-06
8210.0 2.28e-06
8230.0 2.7053e-06
8250.0 1.4674e-06
8270.0 1.1942e-06
8290.0 1.7879e-06
8310.0 1.5371e-06
8330.0 9.8432e-07
8350.0 7.4724e-07
8370.0 2.4158e-07
8390.0 8.2723e-07
8410.0 9.4405e-07
8430.0 1.1635e-06
8450.0 1.34e-06
8470.0 2.0651e-06
8490.0 1.8062e-06
8510.0 1.5206e-06
8530.0 1.1023e-06
8550.0 2.5342e-06
8570.0 3.5734e-06
8590.0 2.8816e-06
8610.0 4.0837e-06
8630.0 4.6418e-06
8650.0 3.4282e-06
8670.0 4.3005e-06
8690.0 5.5595e-06
8710.0 4.8328e-06
8730.0 4.9136e-06
8750.0 4.0004e-06
8770.0 3.6328e-06
8790.0 3.8432e-06
8810.0 4.0048e-06
8830.0 2.5195e-06
8850.0 1.3402e-06
8870.0 9.6682e-07
8890.0 1.6504e-06
8910.0 2.4083e-06
8930.0 3.106e-06
8950.0 3.3366e-06
8970.0 3.2289e-06
8990.0 2.457e-06
9010.0 1.0469e-05
9030.0 9.0977e-06
9050.0 9.1931e-06
9070.0 9.3189e-06
9090.0 9.426e-06
9110.0 9.5584e-06
9130.0 9.6571e-06
9150.0 9.7303e-06
9170.0 9.8083e-06
9190.0 9.8916e-06
9210.0 9.9792e-06
9230.0 1.0072e-05
9250.0 1.0165e-05
9270.0 1.0262e-05
9290.0 1.0362e-05
9310.0 1.0461e-05
9330.0 1.0562e-05
9350.0 1.0667e-05
9370.0 1.0772e-05
9390.0 1.0878e-05
9410.0 1.0987e-05
9430.0 1.1099e-05
9450.0 1.121e-05
9470.0 1.1323e-05
9490.0 1.144e-05
9510.0 1.1557e-05
9530.0 1.1674e-05
9550.0 1.1796e-05
9570.0 1.1919e-05
9590.0 1.2043e-05
9610.0 1.2168e-05
9630.0 1.2297e-05
9650.0 1.2427e-05
9670.0 1.2556e-05
9690.0 1.269e-05
9710.0 1.2825e-05
9730.0 1.296e-05
9750.0 1.3097e-05
9770.0 1.3238e-05
9790.0 1.3379e-05
9810.0 1.352e-05
9830.0 1.3665e-05
9850.0 1.3811e-05
9870.0 1.3956e-05
9890.0 1.4104e-05
9910.0 1.4255e-05
9930.0 1.4405e-05
9950.0 1.4556e-05
9970.0 1.4711e-05
9990.0 1.4867e-05
10010.0 1.2943e-05
10030.0 1.3078e-05
10050.0 1.3215e-05
10070.0 1.3355e-05
10090.0 1.3489e-05
10110.0 1.3628e-05
10130.0 1.3767e-05
10150.0 1.3904e-05
10170.0 1.4044e-05
10190.0 1.4186e-05
10210.0 1.4326e-05
10230.0 1.4465e-05
10250.0 1.4607e-05
10270.0 1.4749e-05
10290.0 1.4889e-05
10310.0 1.503e-05
10330.0 1.5174e-05
10350.0 1.5314e-05
10370.0 1.5455e-05
10390.0 1.5597e-05
10410.0 1.5738e-05
10430.0 1.5876e-05
10450.0 1.6016e-05
10470.0 1.6156e-05
10490.0 1.6294e-05
10510.0 1.6431e-05
10530.0 1.657e-05
10550.0 1.6707e-05
10570.0 1.684e-05
10590.0 1.6975e-05
10610.0 1.7109e-05
10630.0 1.724e-05
10650.0 1.737e-05
10670.0 1.7501e-05
10690.0 1.763e-05
10710.0 1.7755e-05
10730.0 1.7881e-05
10750.0 1.8007e-05
10770.0 1.8128e-05
10790.0 1.8248e-05
10810.0 1.8367e-05
10830.0 1.8483e-05
10850.0 1.8593e-05
10870.0 1.8701e-05
10890.0 1.8796e-05
10910.0 1.8872e-05
10930.0 1.8921e-05
10950.0 1.8925e-05
10970.0 1.8871e-05
10990.0 1.8753e-05
11010.0 1.7621e-05
11030.0 1.7342e-05
11050.0 1.7001e-05
11070.0 1.6591e-05
11090.0 1.6099e-05
11110.0 1.559e-05
11130.0 1.5059e-05
11150.0 1.4488e-05
11170.0 1.3899e-05
11190.0 1.3328e-05
11210.0 1.274e-05
11230.0 1.2136e-05
11250.0 1.156e-05
11270.0 1.1007e-05
11290.0 1.0454e-05
11310.0 9.9296e-06
11330.0 9.4676e-06
11350.0 9.0312e-06
11370.0 8.6276e-06
11390.0 8.278e-06
11410.0 7.9717e-06
11430.0 7.6866e-06
11450.0 7.4402e-06
11470.0 7.2266e-06
11490.0 7.0274e-06
11510.0 6.8352e-06
11530.0 6.6565e-06
11550.0 6.4791e-06
11570.0 6.2901e-06
11590.0 6.0946e-06
11610.0 5.896e-06
11630.0 5.6803e-06
11650.0 5.4499e-06
11670.0 5.2229e-06
11690.0 4.993e-06
11710.0 4.7561e-06
11730.0 4.5265e-06
11750.0 4.314e-06
11770.0 4.1056e-06
11790.0 3.9101e-06
11810.0 3.7378e-06
11830.0 3.5834e-06
11850.0 3.441e-06
11870.0 3.3214e-06
11890.0 3.2217e-06
11910.0 3.1337e-06
11930.0 3.0578e-06
11950.0 2.9943e-06
11970.0 2.9374e-06
11990.0 2.8835e-06
12010.0 2.8336e-06
12030.0 2.7856e-06
12050.0 2.7362e-06
12070.0 2.6849e-06
12090.0 2.6355e-06
12110.0 2.5854e-06
12130.0 2.5353e-06
12150.0 2.4889e-06
12170.0 2.4482e-06
12190.0 2.4126e-06
12210.0 2.3872e-06
12230.0 2.3737e-06
12250.0 2.3734e-06
12270.0 2.389e-06
12290.0 2.4205e-06
12310.0 2.4668e-06
12330.0 2.5323e-06
12350.0 2.6145e-06
12370.0 2.7085e-06
12390.0 2.8172e-06
12410.0 2.9448e-06
12430.0 3.0746e-06
12450.0 3.2091e-06
12470.0 3.3522e-06
12490.0 3.4959e-06
12510.0 3.6306e-06
12530.0 3.7647e-06
12550.0 3.894e-06
12570.0 4.0079e-06
12590.0 4.1078e-06
12610.0 4.1967e-06
12630.0 4.2674e-06
12650.0 4.3157e-06
12670.0 4.3472e-06
12690.0 4.3591e-06
12710.0 4.3507e-06
12730.0 4.3243e-06
12750.0 4.2782e-06
12770.0 4.2153e-06
12790.0 4.1393e-06
12810.0 4.0488e-06
12830.0 3.9443e-06
12850.0 3.8351e-06
12870.0 3.7197e-06
12890.0 3.5951e-06
12910.0 3.4685e-06
12930.0 3.3438e-06
12950.0 3.2139e-06
12970.0 3.0817e-06
12990.0 2.9568e-06
13010.0 2.8334e-06
13030.0 2.7088e-06
13050.0 2.5891e-06
13070.0 2.4771e-06
13090.0 2.3646e-06
13110.0 2.2558e-06
13130.0 2.1555e-06
13150.0 2.0604e-06
13170.0 1.9673e-06
13190.0 1.8843e-06
13210.0 1.8112e-06
13230.0 1.7442e-06
13250.0 1.6864e-06
13270.0 1.6405e-06
13290.0 1.6046e-06
13310.0 1.5795e-06
13330.0 1.5675e-06
13350.0 1.5678e-06
13370.0 1.5809e-06
13390.0 1.6076e-06
13410.0 1.6442e-06
13430.0 1.6922e-06
13450.0 1.7517e-06
13470.0 1.8179e-06
13490.0 1.8883e-06
13510.0 1.9678e-06
13530.0 2.0487e-06
13550.0 2.1262e-06
13570.0 2.2027e-06
13590.0 2.2775e-06
13610.0 2.3442e-06
13630.0 2.4025e-06
13650.0 2.4558e-06
13670.0 2.5002e-06
13690.0 2.5347e-06
13710.0 2.5615e-06
13730.0 2.5807e-06
13750.0 2.5906e-06
13770.0 2.5931e-06
13790.0 2.5888e-06
13810.0 2.5776e-06
13830.0 2.5609e-06
13850.0 2.5381e-06
13870.0 2.5093e-06
13890.0 2.4763e-06
13910.0 2.439e-06
13930.0 2.3959e-06
13950.0 2.3488e-06
13970.0 2.3006e-06
13990.0 2.2481e-06
14010.0 2.1923e-06
14030.0 2.1367e-06
14050.0 2.0806e-06
14070.0 2.0214e-06
14090.0 1.9647e-06
14110.0 1.9114e-06
14130.0 1.8597e-06
14150.0 1.8111e-06
14170.0 1.7695e-06
14190.0 1.7335e-06
14210.0 1.703e-06
14230.0 1.6803e-06
14250.0 1.6655e-06
14270.0 1.6583e-06
14290.0 1.6596e-06
14310.0 1.6686e-06
14330.0 1.6851e-06
14350.0 1.7094e-06
14370.0 1.7398e-06
14390.0 1.7743e-06
14410.0 1.8151e-06
14430.0 1.86e-06
14450.0 1.9059e-06
14470.0 1.9536e-06
14490.0 2.0044e-06
14510.0 2.053e-06
14530.0 2.0993e-06
14550.0 2.1455e-06
14570.0 2.19e-06
14590.0 2.2305e-06
14610.0 2.2697e-06
14630.0 2.3085e-06
14650.0 2.3446e-06
14670.0 2.3795e-06
14690.0 2.4158e-06
14710.0 2.4539e-06
14730.0 2.4921e-06
14750.0 2.5343e-06
14770.0 2.5821e-06
14790.0 2.634e-06
14810.0 2.6903e-06
14830.0 2.757e-06
14850.0 2.8295e-06
14870.0 2.9052e-06
14890.0 2.987e-06
14910.0 3.0738e-06
14930.0 3.1574e-06
14950.0 3.2356e-06
14970.0 3.3097e-06
14990.0 3.372e-06
15010.0 3.4197e-06
15030.0 3.4552e-06
15050.0 3.4788e-06
15070.0 3.4906e-06
15090.0 3.495e-06
15110.0 3.4944e-06
15130.0 3.4904e-06
15150.0 3.485e-06
15170.0 3.4785e-06
15190.0 3.4714e-06
15210.0 3.4645e-06
15230.0 3.4576e-06
15250.0 3.4504e-06
15270.0 3.4434e-06
15290.0 3.4367e-06
15310.0 3.4298e-06
15330.0 3.4229e-06
15350.0 3.4163e-06
15370.0 3.4097e-06
15390.0 3.4027e-06
15410.0 3.396e-06
15430.0 3.3896e-06
15450.0 3.3829e-06
15470.0 3.3762e-06
15490.0 3.3698e-06
15510.0 3.3635e-06
15530.0 3.3569e-06
15550.0 3.3504e-06
15570.0 3.3442e-06
15590.0 3.3377e-06
15610.0 3.3311e-06
15630.0 3.325e-06
15650.0 3.3187e-06
15670.0 3.3123e-06
15690.0 3.306e-06
15710.0 3.3e-06
15730.0 3.2937e-06
15750.0 3.2874e-06
15770.0 3.2813e-06
15790.0 3.2752e-06
15810.0 3.2688e-06
15830.0 3.2626e-06
15850.0 3.2567e-06
15870.0 3.2505e-06
15890.0 3.2442e-06
15910.0 3.2383e-06
15930.0 3.2323e-06
15950.0 3.226e-06
15970.0 3.2199e-06
15990.0 3.214e-06
16010.0 3.2078e-06
16030.0 3.2015e-06
16050.0 3.1956e-06
16070.0 3.1896e-06
16090.0 3.1834e-06
16110.0 3.1774e-06
16130.0 3.1715e-06
16150.0 3.1652e-06
16170.0 3.159e-06
16190.0 3.1531e-06
16210.0 3.147e-06
16230.0 3.1407e-06
16250.0 3.1347e-06
16270.0 3.1288e-06
16290.0 3.1225e-06
16310.0 3.1163e-06
16330.0 3.1104e-06
16350.0 3.1042e-06
16370.0 3.0977e-06
16390.0 3.0917e-06
16410.0 3.0856e-06
16430.0 3.0793e-06
16450.0 3.0731e-06
16470.0 3.0671e-06
16490.0 3.0608e-06
16510.0 3.0543e-06
16530.0 3.0482e-06
16550.0 3.042e-06
16570.0 3.0355e-06
16590.0 3.0291e-06
16610.0 3.023e-06
16630.0 3.0166e-06
16650.0 3.0101e-06
16670.0 3.0039e-06
16690.0 2.9976e-06
16710.0 2.9909e-06
16730.0 2.9844e-06
16750.0 2.9781e-06
16770.0 2.9715e-06
16790.0 2.9648e-06
16810.0 2.9585e-06
16830.0 2.952e-06
16850.0 2.9453e-06
16870.0 2.9387e-06
16890.0 2.9322e-06
16910.0 2.9254e-06
16930.0 2.9185e-06
16950.0 2.912e-06
16970.0 2.9054e-06
16990.0 2.8984e-06
17010.0 2.8917e-06
17030.0 2.8851e-06
17050.0 2.8782e-06
17070.0 2.8712e-06
17090.0 2.8645e-06
17110.0 2.8577e-06
17130.0 2.8504e-06
17150.0 2.8435e-06
17170.0 2.8367e-06
17190.0 2.8297e-06
17210.0 2.8225e-06
17230.0 2.8157e-06
17250.0 2.8087e-06
17270.0 2.8013e-06
17290.0 2.7942e-06
17310.0 2.7872e-06
17330.0 2.7799e-06
17350.0 2.7725e-06
17370.0 2.7656e-06
17390.0 2.7583e-06
17410.0 2.7509e-06
17430.0 2.7437e-06
17450.0 2.7366e-06
17470.0 2.7289e-06
17490.0 2.7214e-06
17510.0 2.7142e-06
17530.0 2.7068e-06
17550.0 2.6991e-06
17570.0 2.6918e-06
17590.0 2.6845e-06
17610.0 2.6768e-06
17630.0 2.6692e-06
17650.0 2.6618e-06
17670.0 2.6542e-06
17690.0 2.6462e-06
17710.0 2.6387e-06
17730.0 2.6312e-06
17750.0 2.6234e-06
17770.0 2.6156e-06
17790.0 2.6082e-06
17810.0 2.6003e-06
17830.0 2.5924e-06
17850.0 2.5847e-06
17870.0 2.577e-06
17890.0 2.5689e-06
17910.0 2.561e-06
17930.0 2.5534e-06
17950.0 2.5454e-06
17970.0 2.5374e-06
17990.0 2.5296e-06
18010.0 2.5218e-06
18030.0 2.5135e-06
18050.0 2.5055e-06
18070.0 2.4977e-06
18090.0 2.4896e-06
18110.0 2.4814e-06
18130.0 2.4735e-06
18150.0 2.4656e-06
18170.0 2.4573e-06
18190.0 2.4492e-06
18210.0 2.4413e-06
18230.0 2.433e-06
18250.0 2.4246e-06
18270.0 2.4167e-06
18290.0 2.4085e-06
18310.0 2.4002e-06
18330.0 2.392e-06
18350.0 2.3841e-06
18370.0 2.3757e-06
18390.0 2.3673e-06
18410.0 2.3592e-06
18430.0 2.351e-06
18450.0 2.3424e-06
18470.0 2.3342e-06
18490.0 2.3261e-06
18510.0 2.3177e-06
18530.0 2.3093e-06
18550.0 2.3012e-06
18570.0 2.2929e-06
18590.0 2.2843e-06
18610.0 2.276e-06
18630.0 2.2678e-06
18650.0 2.2592e-06
18670.0 2.2507e-06
18690.0 2.2426e-06
18710.0 2.2342e-06
18730.0 2.2257e-06
18750.0 2.2174e-06
18770.0 2.2092e-06
18790.0 2.2004e-06
18810.0 2.1919e-06
18830.0 2.1837e-06
18850.0 2.1753e-06
18870.0 2.1667e-06
18890.0 2.1584e-06
18910.0 2.1501e-06
18930.0 2.1415e-06
18950.0 2.133e-06
18970.0 2.1247e-06
18990.0 2.1162e-06
19010.0 2.1074e-06
19030.0 2.0992e-06
19050.0 2.0908e-06
19070.0 2.0822e-06
19090.0 2.0738e-06
19110.0 2.0656e-06
19130.0 2.057e-06
19150.0 2.0484e-06
19170.0 2.04e-06
19190.0 2.0316e-06
19210.0 2.023e-06
19230.0 2.0145e-06
19250.0 2.0062e-06
19270.0 1.9977e-06
19290.0 1.9892e-06
19310.0 1.9809e-06
19330.0 1.9725e-06
19350.0 1.9638e-06
19370.0 1.9553e-06
19390.0 1.9471e-06
19410.0 1.9385e-06
19430.0 1.9299e-06
19450.0 1.9217e-06
19470.0 1.9134e-06
19490.0 1.9048e-06
19510.0 1.8964e-06
19530.0 1.8881e-06
19550.0 1.8795e-06
19570.0 1.8709e-06
19590.0 1.8627e-06
19610.0 1.8544e-06
19630.0 1.8458e-06
19650.0 1.8375e-06
19670.0 1.8293e-06
19690.0 1.8207e-06
19710.0 1.8123e-06
19730.0 1.804e-06
19750.0 1.7957e-06
19770.0 1.7871e-06
19790.0 1.7788e-06
19810.0 1.7706e-06
19830.0 1.7621e-06
19850.0 1.7536e-06
19870.0 1.7452e-06
19890.0 1.7362e-06
19910.0 1.7264e-06
19930.0 1.7159e-06
19950.0 1.704e-06
19970.0 1.6893e-06
19990.0 1.6717e-06
20010.0 1.4905e-06
20030.0 1.4687e-06
20050.0 1.4433e-06
20070.0 1.4158e-06
20090.0 1.3862e-06
20110.0 1.3528e-06
20130.0 1.319e-06
20150.0 1.2855e-06
20170.0 1.2508e-06
20190.0 1.2157e-06
20210.0 1.1824e-06
20230.0 1.1501e-06
20250.0 1.1176e-06
20270.0 1.0875e-06
20290.0 1.06e-06
20310.0 1.0339e-06
20330.0 1.0095e-06
20350.0 9.8919e-07
20370.0 9.7116e-07
20390.0 9.5532e-07
20410.0 9.4251e-07
20430.0 9.326e-07
20450.0 9.2471e-07
20470.0 9.1938e-07
20490.0 9.1646e-07
20510.0 9.1552e-07
20530.0 9.1653e-07
20550.0 9.1924e-07
20570.0 9.2325e-07
20590.0 9.2873e-07
20610.0 9.354e-07
20630.0 9.4277e-07
20650.0 9.5104e-07
20670.0 9.6051e-07
20690.0 9.7017e-07
20710.0 9.8017e-07
20730.0 9.9096e-07
20750.0 1.0022e-06
20770.0 1.0133e-06
20790.0 1.0249e-06
20810.0 1.0372e-06
20830.0 1.0495e-06
20850.0 1.0618e-06
20870.0 1.0749e-06
20890.0 1.0883e-06
20910.0 1.1012e-06
20930.0 1.1145e-06
20950.0 1.1284e-06
20970.0 1.1419e-06
20990.0 1.1552e-06
21010.0 1.1691e-06
21030.0 1.1828e-06
21050.0 1.1958e-06
21070.0 1.2088e-06
21090.0 1.2219e-06
21110.0 1.2337e-06
21130.0 1.2449e-06
21150.0 1.2557e-06
21170.0 1.2654e-06
21190.0 1.2738e-06
21210.0 1.2814e-06
21230.0 1.2876e-06
21250.0 1.2921e-06
21270.0 1.2949e-06
21290.0 1.2959e-06
21310.0 1.2948e-06
21330.0 1.2917e-06
21350.0 1.2863e-06
21370.0 1.2784e-06
21390.0 1.2683e-06
21410.0 1.2561e-06
21430.0 1.2405e-06
21450.0 1.2231e-06
21470.0 1.2041e-06
21490.0 1.1827e-06
21510.0 1.1591e-06
21530.0 1.1352e-06
21550.0 1.1102e-06
21570.0 1.0835e-06
21590.0 1.0573e-06
21610.0 1.0319e-06
21630.0 1.0065e-06
21650.0 9.8169e-07
21670.0 9.6018e-07
21690.0 9.4034e-07
21710.0 9.2247e-07
21730.0 9.0783e-07
21750.0 8.9652e-07
21770.0 8.8789e-07
21790.0 8.829e-07
21810.0 8.8147e-07
21830.0 8.8335e-07
21850.0 8.8878e-07
21870.0 8.9729e-07
21890.0 9.0828e-07
21910.0 9.2241e-07
21930.0 9.3899e-07
21950.0 9.5695e-07
21970.0 9.7686e-07
21990.0 9.9921e-07
22010.0 1.0216e-06
22030.0 1.0442e-06
22050.0 1.0681e-06
22070.0 1.092e-06
22090.0 1.1147e-06
22110.0 1.1376e-06
22130.0 1.1605e-06
22150.0 1.1818e-06
22170.0 1.2019e-06
22190.0 1.2219e-06
22210.0 1.2404e-06
22230.0 1.2568e-06
22250.0 1.2721e-06
22270.0 1.2863e-06
22290.0 1.2984e-06
22310.0 1.3087e-06
22330.0 1.3178e-06
22350.0 1.3249e-06
22370.0 1.3298e-06
22390.0 1.3329e-06
22410.0 1.3338e-06
22430.0 1.3325e-06
22450.0 1.3291e-06
22470.0 1.3231e-06
22490.0 1.3147e-06
22510.0 1.3043e-06
22530.0 1.291e-06
22550.0 1.2749e-06
22570.0 1.257e-06
22590.0 1.2368e-06
22610.0 1.2135e-06
