#lamb flux
1010.0 1.9548e-06
1030.0 2.0432e-06
1050.0 2.1453e-06
1070.0 2.2604e-06
1090.0 2.3913e-06
1110.0 2.5258e-06
1130.0 2.6617e-06
1150.0 2.8044e-06
1170.0 2.9521e-06
1190.0 3.0929e-06
1210.0 3.2361e-06
1230.0 3.3847e-06
1250.0 3.5311e-06
1270.0 3.6741e-06
1290.0 3.8258e-06
1310.0 3.9783e-06
1330.0 4.1256e-06
1350.0 4.2755e-06
1370.0 4.4311e-06
1390.0 4.584e-06
1410.0 4.7336e-06
1430.0 4.8908e-06
1450.0 5.049e-06
1470.0 5.2034e-06
1490.0 5.3605e-06
1510.0 5.5267e-06
1530.0 5.686e-06
1550.0 5.8441e-06
1570.0 6.0081e-06
1590.0 6.1729e-06
1610.0 6.3316e-06
1630.0 6.4952e-06
1650.0 6.663e-06
1670.0 6.8259e-06
1690.0 6.9868e-06
1710.0 7.153e-06
1730.0 7.3196e-06
1750.0 7.4762e-06
1770.0 7.6361e-06
1790.0 7.7979e-06
1810.0 7.9533e-06
1830.0 8.1046e-06
1850.0 8.2631e-06
1870.0 8.4157e-06
1890.0 8.5611e-06
1910.0 8.7074e-06
1930.0 8.8552e-06
1950.0 8.994e-06
1970.0 9.1289e-06
1990.0 9.2675e-06
2010.0 9.4018e-06
2030.0 9.5294e-06
2050.0 9.6602e-06
2070.0 9.794e-06
2090.0 9.9189e-06
2110.0 1.0044e-05
2130.0 1.0173e-05
2150.0 1.0301e-05
2170.0 1.0426e-05
2190.0 1.0558e-05
2210.0 1.0694e-05
2230.0 1.0829e-05
2250.0 1.0968e-05
2270.0 1.1119e-05
2290.0 1.1272e-05
2310.0 1.1427e-05
2330.0 1.1595e-05
2350.0 1.1773e-05
2370.0 1.1955e-05
2390.0 1.2149e-05
2410.0 1.2361e-05
2430.0 1.2581e-05
2450.0 1.2809e-05
2470.0 1.3048e-05
2490.0 1.3294e-05
2510.0 1.3535e-05
2530.0 1.3793e-05
2550.0 1.4099e-05
2570.0 1.4505e-05
2590.0 1.5085e-05
2610.0 1.6001e-05
2630.0 1.7352e-05
2650.0 1.9141e-05
2670.0 2.1439e-05
2690.0 2.4245e-05
2710.0 2.7286e-05
2730.0 3.0405e-05
2750.0 3.3658e-05
2770.0 3.6819e-05
2790.0 3.9792e-05
2810.0 4.2717e-05
2830.0 4.5721e-05
2850.0 4.8636e-05
2870.0 5.1611e-05
2890.0 5.4769e-05
2910.0 5.8048e-05
2930.0 6.1355e-05
2950.0 6.4864e-05
2970.0 6.8548e-05
2990.0 7.2264e-05
3010.0 0.00013436
3030.0 0.00014137
3050.0 0.00014844
3070.0 0.0001551
3090.0 0.00016131
3110.0 0.00016617
3130.0 0.00016848
3150.0 0.000167
3170.0 0.00015927
3190.0 0.00014459
3210.0 0.00012297
3230.0 9.7887e-05
3250.0 0.00011646
3270.0 7.1825e-05
3290.0 0.0001225
3310.0 5.4211e-05
3330.0 5.8016e-05
3350.0 7.108e-05
3370.0 8.5369e-05
3390.0 0.00010024
3410.0 0.00011504
3430.0 0.00013033
3450.0 0.00014553
3470.0 0.00015967
3490.0 0.00016933
3510.0 0.00019572
3530.0 0.00024799
3550.0 0.00026649
3570.0 0.00026576
3590.0 0.00034952
3610.0 0.00028965
3630.0 0.00036499
3650.0 0.00038181
3670.0 0.00045115
3690.0 0.00046264
3710.0 0.00041506
3730.0 0.0005092
3750.0 0.00053066
3770.0 0.00053934
3790.0 0.00049923
3810.0 0.00043289
3830.0 0.00046928
3850.0 0.00044668
3870.0 0.00052362
3890.0 0.00053547
3910.0 0.00055856
3930.0 0.00063541
3950.0 0.00070574
3970.0 0.00087691
3990.0 0.00082354
4010.0 0.00069432
4030.0 0.00077212
4050.0 0.0007496
4070.0 0.00078446
4090.0 0.000744
4110.0 0.00061609
4130.0 0.00071002
4150.0 0.00066293
4170.0 0.00068917
4190.0 0.0006865
4210.0 0.00077819
4230.0 0.00064473
4250.0 0.00073313
4270.0 0.00073225
4290.0 0.00074217
4310.0 0.00083716
4330.0 0.00087123
4350.0 0.00077987
4370.0 0.00073159
4390.0 0.00076599
4410.0 0.00072033
4430.0 0.00058347
4450.0 0.00056542
4470.0 0.00061178
4490.0 0.00053396
4510.0 0.00061443
4530.0 0.00067244
4550.0 0.00084962
4570.0 0.0011716
4590.0 0.001283
4610.0 0.0011495
4630.0 0.0014794
4650.0 0.0018273
4670.0 0.0017648
4690.0 0.0013438
4710.0 0.0013183
4730.0 0.0013854
4750.0 0.0011942
4770.0 0.00095678
4790.0 0.00076725
4810.0 0.00094935
4830.0 0.0010705
4850.0 0.0010868
4870.0 0.00076225
4890.0 0.0011749
4910.0 0.0014006
4930.0 0.0015116
4950.0 0.0016288
4970.0 0.0014139
4990.0 0.0015308
5010.0 0.0015368
5030.0 0.0014358
5050.0 0.0012863
5070.0 0.00097857
5090.0 0.0008453
5110.0 0.00080964
5130.0 0.00075919
5150.0 0.00083316
5170.0 0.00076943
5190.0 0.00087261
5210.0 0.00087919
5230.0 0.0009516
5250.0 0.0011643
5270.0 0.0011388
5290.0 0.0011835
5310.0 0.0014828
5330.0 0.0016565
5350.0 0.001563
5370.0 0.0014808
5390.0 0.0015335
5410.0 0.0016836
5430.0 0.0017818
5450.0 0.0019571
5470.0 0.002141
5490.0 0.0022857
5510.0 0.0025967
5530.0 0.0026781
5550.0 0.0027453
5570.0 0.00278
5590.0 0.0027346
5610.0 0.0026578
5630.0 0.0026169
5650.0 0.0026439
5670.0 0.0026183
5690.0 0.0023533
5710.0 0.0021903
5730.0 0.0020702
5750.0 0.0020931
5770.0 0.0019024
5790.0 0.0018425
5810.0 0.001908
5830.0 0.001984
5850.0 0.0018755
5870.0 0.0018282
5890.0 0.0019605
5910.0 0.0018935
5930.0 0.0017132
5950.0 0.0015891
5970.0 0.0015925
5990.0 0.0014369
6010.0 0.0012991
6030.0 0.0012578
6050.0 0.0012014
6070.0 0.0010434
6090.0 0.00099443
6110.0 0.0011189
6130.0 0.0012038
6150.0 0.0012736
6170.0 0.0013293
6190.0 0.0013678
6210.0 0.0013896
6230.0 0.0014792
6250.0 0.0013642
6270.0 0.0012252
6290.0 0.0010853
6310.0 0.00098776
6330.0 0.00092753
6350.0 0.00085702
6370.0 0.0008764
6390.0 0.0010092
6410.0 0.0012164
6430.0 0.0014214
6450.0 0.0014807
6470.0 0.001546
6490.0 0.0017633
6510.0 0.0018967
6530.0 0.0018435
6550.0 0.0018209
6570.0 0.0018439
6590.0 0.0018026
6610.0 0.0018823
6630.0 0.0018164
6650.0 0.0016986
6670.0 0.0015693
6690.0 0.0014661
6710.0 0.0015678
6730.0 0.0014688
6750.0 0.0013796
6770.0 0.001343
6790.0 0.0013953
6810.0 0.0014642
6830.0 0.001431
6850.0 0.0013456
6870.0 0.0013376
6890.0 0.0012893
6910.0 0.0012242
6930.0 0.0013212
6950.0 0.001287
6970.0 0.0012832
6990.0 0.0013132
7010.0 0.0012785
7030.0 0.0012
7050.0 0.0011069
7070.0 0.0010697
7090.0 0.00097893
7110.0 0.00088468
7130.0 0.00078552
7150.0 0.00073801
7170.0 0.00085022
7190.0 0.00089738
7210.0 0.00091167
7230.0 0.00098269
7250.0 0.00099043
7270.0 0.00098482
7290.0 0.0010181
7310.0 0.0010384
7330.0 0.0009943
7350.0 0.00094904
7370.0 0.00093727
7390.0 0.00098895
7410.0 0.0011204
7430.0 0.0012351
7450.0 0.001359
7470.0 0.001412
7490.0 0.0014476
7510.0 0.0013851
7530.0 0.0013308
7550.0 0.001232
7570.0 0.0010682
7590.0 0.0010253
7610.0 0.0010144
7630.0 0.0010187
7650.0 0.0011414
7670.0 0.00126
7690.0 0.0013738
7710.0 0.0014996
7730.0 0.0015943
7750.0 0.0016678
7770.0 0.00168
7790.0 0.0017784
7810.0 0.0018297
7830.0 0.0017695
7850.0 0.0017786
7870.0 0.0017042
7890.0 0.0017099
7910.0 0.0016172
7930.0 0.0016013
7950.0 0.0014937
7970.0 0.0015199
7990.0 0.0014833
8010.0 0.0014567
8030.0 0.001456
8050.0 0.00151
8070.0 0.0014731
8090.0 0.0014753
8110.0 0.0014275
8130.0 0.0014226
8150.0 0.0013734
8170.0 0.0013347
8190.0 0.0013172
8210.0 0.0013268
8230.0 0.0012129
8250.0 0.0011212
8270.0 0.00097916
8290.0 0.00080001
8310.0 0.00065175
8330.0 0.00051152
8350.0 0.00044034
8370.0 0.00047359
8390.0 0.00051562
8410.0 0.00056115
8430.0 0.00065352
8450.0 0.00069361
8470.0 0.00072773
8490.0 0.00081837
8510.0 0.00089978
8530.0 0.0010418
8550.0 0.0012298
8570.0 0.001388
8590.0 0.0015106
8610.0 0.0016375
8630.0 0.0017589
8650.0 0.0017811
8670.0 0.0017916
8690.0 0.0018533
8710.0 0.0018569
8730.0 0.0018668
8750.0 0.0018009
8770.0 0.0018026
8790.0 0.0017761
8810.0 0.0016477
8830.0 0.0016257
8850.0 0.0015351
8870.0 0.0014742
8890.0 0.0013805
8910.0 0.0014425
8930.0 0.0013411
8950.0 0.0013052
8970.0 0.0012957
8990.0 0.0012581
9010.0 0.0012582
9030.0 0.0012176
9050.0 0.0012107
9070.0 0.0012082
9090.0 0.0012055
9110.0 0.0012031
9130.0 0.0012002
9150.0 0.001197
9170.0 0.0011916
9190.0 0.0011829
9210.0 0.0011921
9230.0 0.0011859
9250.0 0.001181
9270.0 0.0011764
9290.0 0.0011719
9310.0 0.0011675
9330.0 0.0011631
9350.0 0.0011587
9370.0 0.0011542
9390.0 0.0011496
9410.0 0.001145
9430.0 0.0011402
9450.0 0.0011352
9470.0 0.0011302
9490.0 0.0011255
9510.0 0.0011206
9530.0 0.0011157
9550.0 0.0011106
9570.0 0.0011055
9590.0 0.0011003
9610.0 0.0010951
9630.0 0.0010899
9650.0 0.0010846
9670.0 0.0010793
9690.0 0.001074
9710.0 0.0010687
9730.0 0.0010634
9750.0 0.001058
9770.0 0.0010527
9790.0 0.0010473
9810.0 0.001042
9830.0 0.0010367
9850.0 0.0010313
9870.0 0.001026
9890.0 0.0010208
9910.0 0.0010155
9930.0 0.0010102
9950.0 0.0010004
9970.0 0.00099653
9990.0 0.00099243
10010.0 0.00098824
10030.0 0.0009837
10050.0 0.00097876
10070.0 0.00097328
10090.0 0.00096872
10110.0 0.00096388
10130.0 0.00095916
10150.0 0.00095446
10170.0 0.00094963
10190.0 0.00094464
10210.0 0.00093993
10230.0 0.00093533
10250.0 0.00093056
10270.0 0.00092588
10290.0 0.00092144
10310.0 0.00091687
10330.0 0.00091218
10350.0 0.00090778
10370.0 0.00090345
10390.0 0.00089898
10410.0 0.0008946
10430.0 0.00089049
10450.0 0.00088624
10470.0 0.00088194
10490.0 0.00087786
10510.0 0.00087386
10530.0 0.0008696
10550.0 0.00086553
10570.0 0.00086168
10590.0 0.00085772
10610.0 0.00085372
10630.0 0.00084997
10650.0 0.00084624
10670.0 0.00084231
10690.0 0.00083855
10710.0 0.00083495
10730.0 0.00083123
10750.0 0.00082739
10770.0 0.00082391
10790.0 0.00082041
10810.0 0.00081676
10830.0 0.00081322
10850.0 0.00080985
10870.0 0.00080611
10890.0 0.00080223
10910.0 0.00079828
10930.0 0.00079379
10950.0 0.00078828
10970.0 0.00078187
10990.0 0.00077453
11010.0 0.00073366
11030.0 0.00072402
11050.0 0.00071355
11070.0 0.00070195
11090.0 0.0006888
11110.0 0.00067593
11130.0 0.00066309
11150.0 0.00064975
11170.0 0.00063648
11190.0 0.00062408
11210.0 0.00061158
11230.0 0.000599
11250.0 0.00058723
11270.0 0.00057607
11290.0 0.00056485
11310.0 0.00055416
11330.0 0.00054473
11350.0 0.00053558
11370.0 0.0005268
11390.0 0.00051892
11410.0 0.00051167
11430.0 0.00050435
11450.0 0.00049756
11470.0 0.00049125
11490.0 0.00048487
11510.0 0.00047819
11530.0 0.00047175
11550.0 0.00046515
11570.0 0.00045786
11590.0 0.00045026
11610.0 0.00044256
11630.0 0.00043405
11650.0 0.0004248
11670.0 0.00041569
11690.0 0.00040629
11710.0 0.00039627
11730.0 0.00038629
11750.0 0.0003768
11770.0 0.00036701
11790.0 0.00035731
11810.0 0.00034833
11830.0 0.00033978
11850.0 0.00033117
11870.0 0.00032341
11890.0 0.00031646
11910.0 0.00030975
11930.0 0.00030345
11950.0 0.00029791
11970.0 0.0002927
11990.0 0.00028758
12010.0 0.00028296
12030.0 0.00027876
12050.0 0.00027463
12070.0 0.0002706
12090.0 0.00026712
12110.0 0.00026376
12130.0 0.00026049
12150.0 0.00025757
12170.0 0.00025505
12190.0 0.00025263
12210.0 0.00025066
12230.0 0.00024927
12250.0 0.00024838
12270.0 0.00024805
12290.0 0.00024847
12310.0 0.00024963
12330.0 0.00025155
12350.0 0.00025431
12370.0 0.00025779
12390.0 0.00026203
12410.0 0.00026717
12430.0 0.00027273
12450.0 0.00027872
12470.0 0.00028522
12490.0 0.00029195
12510.0 0.00029854
12530.0 0.00030524
12550.0 0.0003119
12570.0 0.00031812
12590.0 0.00032395
12610.0 0.00032949
12630.0 0.00033451
12650.0 0.00033884
12670.0 0.00034271
12690.0 0.00034605
12710.0 0.00034879
12730.0 0.00035101
12750.0 0.0003527
12770.0 0.00035386
12790.0 0.00035457
12810.0 0.0003548
12830.0 0.00035452
12850.0 0.00035393
12870.0 0.00035299
12890.0 0.00035158
12910.0 0.00034986
12930.0 0.00034795
12950.0 0.00034559
12970.0 0.00034286
12990.0 0.00034004
13010.0 0.00033696
13030.0 0.00033346
13050.0 0.00032979
13070.0 0.00032609
13090.0 0.00032198
13110.0 0.00031766
13130.0 0.00031342
13150.0 0.00030912
13170.0 0.00030459
13190.0 0.00030037
13210.0 0.00029654
13230.0 0.00029286
13250.0 0.00028959
13270.0 0.00028698
13290.0 0.00028487
13310.0 0.00028328
13330.0 0.0002824
13350.0 0.00028213
13370.0 0.00028238
13390.0 0.00028308
13410.0 0.00028409
13430.0 0.00028525
13450.0 0.00028644
13470.0 0.00028745
13490.0 0.00028817
13510.0 0.00028843
13530.0 0.00028813
13550.0 0.00028725
13570.0 0.00028573
13590.0 0.00028351
13610.0 0.00028078
13630.0 0.00027767
13650.0 0.00027401
13670.0 0.00027007
13690.0 0.00026611
13710.0 0.00026201
13730.0 0.00025772
13750.0 0.0002538
13770.0 0.00025007
13790.0 0.00024642
13810.0 0.00024302
13830.0 0.00023999
13850.0 0.00023707
13870.0 0.0002343
13890.0 0.00023182
13910.0 0.00022951
13930.0 0.00022724
13950.0 0.00022512
13970.0 0.00022321
13990.0 0.00022133
14010.0 0.00021952
14030.0 0.00021787
14050.0 0.00021632
14070.0 0.00021481
14090.0 0.00021345
14110.0 0.00021223
14130.0 0.00021111
14150.0 0.0002101
14170.0 0.00020924
14190.0 0.00020851
14210.0 0.00020789
14230.0 0.0002074
14250.0 0.00020704
14270.0 0.00020681
14290.0 0.00020672
14310.0 0.00020674
14330.0 0.00020688
14350.0 0.00020715
14370.0 0.00020751
14390.0 0.0002079
14410.0 0.00020838
14430.0 0.00020888
14450.0 0.00020933
14470.0 0.00020975
14490.0 0.00021015
14510.0 0.00021042
14530.0 0.00021059
14550.0 0.00021069
14570.0 0.00021073
14590.0 0.00021068
14610.0 0.00021063
14630.0 0.00021064
14650.0 0.00021069
14670.0 0.00021084
14690.0 0.00021119
14710.0 0.00021178
14730.0 0.00021254
14750.0 0.00021362
14770.0 0.00021508
14790.0 0.00021682
14810.0 0.00021882
14830.0 0.00022137
14850.0 0.00022421
14870.0 0.0002272
14890.0 0.00023045
14910.0 0.00023393
14930.0 0.0002372
14950.0 0.00024017
14970.0 0.0002429
14990.0 0.00024502
15010.0 0.00024638
15030.0 0.00024713
15050.0 0.00024727
15070.0 0.00024681
15090.0 0.00024599
15110.0 0.0002449
15130.0 0.00024365
15150.0 0.00024232
15170.0 0.00024094
15190.0 0.00023952
15210.0 0.00023811
15230.0 0.00023669
15250.0 0.00023526
15270.0 0.00023383
15290.0 0.00023242
15310.0 0.000231
15330.0 0.00022957
15350.0 0.00022815
15370.0 0.00022674
15390.0 0.00022532
15410.0 0.0002239
15430.0 0.0002225
15450.0 0.00022109
15470.0 0.00021967
15490.0 0.00021828
15510.0 0.00021689
15530.0 0.00021549
15550.0 0.0002141
15570.0 0.00021272
15590.0 0.00021133
15610.0 0.00020995
15630.0 0.00020858
15650.0 0.00020722
15670.0 0.00020586
15690.0 0.0002045
15710.0 0.00020316
15730.0 0.00020182
15750.0 0.00020048
15770.0 0.00019915
15790.0 0.00019783
15810.0 0.00019651
15830.0 0.0001952
15850.0 0.00019391
15870.0 0.00019261
15890.0 0.00019132
15910.0 0.00019005
15930.0 0.00018878
15950.0 0.00018751
15970.0 0.00018625
15990.0 0.00018501
16010.0 0.00018377
16030.0 0.00018253
16050.0 0.00018131
16070.0 0.0001801
16090.0 0.00017889
16110.0 0.00017769
16130.0 0.00017651
16150.0 0.00017532
16170.0 0.00017415
16190.0 0.00017299
16210.0 0.00017184
16230.0 0.00017069
16250.0 0.00016956
16270.0 0.00016844
16290.0 0.00016731
16310.0 0.0001662
16330.0 0.00016511
16350.0 0.00016402
16370.0 0.00016293
16390.0 0.00016186
16410.0 0.0001608
16430.0 0.00015975
16450.0 0.0001587
16470.0 0.00015767
16490.0 0.00015665
16510.0 0.00015562
16530.0 0.00015462
16550.0 0.00015362
16570.0 0.00015263
16590.0 0.00015165
16610.0 0.00015068
16630.0 0.00014972
16650.0 0.00014877
16670.0 0.00014783
16690.0 0.0001469
16710.0 0.00014597
16730.0 0.00014505
16750.0 0.00014415
16770.0 0.00014325
16790.0 0.00014235
16810.0 0.00014148
16830.0 0.00014061
16850.0 0.00013975
16870.0 0.00013889
16890.0 0.00013805
16910.0 0.00013721
16930.0 0.00013638
16950.0 0.00013557
16970.0 0.00013476
16990.0 0.00013395
17010.0 0.00013316
17030.0 0.00013238
17050.0 0.0001316
17070.0 0.00013083
17090.0 0.00013008
17110.0 0.00012933
17130.0 0.00012857
17150.0 0.00012784
17170.0 0.00012712
17190.0 0.0001264
17210.0 0.00012568
17230.0 0.00012498
17250.0 0.00012429
17270.0 0.0001236
17290.0 0.00012292
17310.0 0.00012225
17330.0 0.00012158
17350.0 0.00012092
17370.0 0.00012027
17390.0 0.00011963
17410.0 0.00011899
17430.0 0.00011836
17450.0 0.00011775
17470.0 0.00011713
17490.0 0.00011652
17510.0 0.00011592
17530.0 0.00011533
17550.0 0.00011473
17570.0 0.00011416
17590.0 0.00011359
17610.0 0.00011302
17630.0 0.00011246
17650.0 0.00011191
17670.0 0.00011136
17690.0 0.00011081
17710.0 0.00011028
17730.0 0.00010976
17750.0 0.00010923
17770.0 0.00010871
17790.0 0.00010821
17810.0 0.0001077
17830.0 0.0001072
17850.0 0.00010671
17870.0 0.00010623
17890.0 0.00010574
17910.0 0.00010527
17930.0 0.0001048
17950.0 0.00010434
17970.0 0.00010388
17990.0 0.00010343
18010.0 0.00010298
18030.0 0.00010253
18050.0 0.0001021
18070.0 0.00010167
18090.0 0.00010124
18110.0 0.00010082
18130.0 0.0001004
18150.0 9.9994e-05
18170.0 9.9583e-05
18190.0 9.9182e-05
18210.0 9.8789e-05
18230.0 9.8393e-05
18250.0 9.8001e-05
18270.0 9.7622e-05
18290.0 9.7244e-05
18310.0 9.6867e-05
18330.0 9.6498e-05
18350.0 9.6137e-05
18370.0 9.5773e-05
18390.0 9.5414e-05
18410.0 9.5065e-05
18430.0 9.4717e-05
18450.0 9.4367e-05
18470.0 9.4028e-05
18490.0 9.3695e-05
18510.0 9.3361e-05
18530.0 9.3031e-05
18550.0 9.2711e-05
18570.0 9.239e-05
18590.0 9.2068e-05
18610.0 9.1756e-05
18630.0 9.1449e-05
18650.0 9.114e-05
18670.0 9.0835e-05
18690.0 9.0541e-05
18710.0 9.0246e-05
18730.0 8.995e-05
18750.0 8.9664e-05
18770.0 8.9382e-05
18790.0 8.9094e-05
18810.0 8.8813e-05
18830.0 8.8541e-05
18850.0 8.8268e-05
18870.0 8.7995e-05
18890.0 8.7731e-05
18910.0 8.7471e-05
18930.0 8.7206e-05
18950.0 8.6948e-05
18970.0 8.6697e-05
18990.0 8.6444e-05
19010.0 8.6188e-05
19030.0 8.5945e-05
19050.0 8.5704e-05
19070.0 8.546e-05
19090.0 8.5221e-05
19110.0 8.4991e-05
19130.0 8.4755e-05
19150.0 8.4521e-05
19170.0 8.4295e-05
19190.0 8.407e-05
19210.0 8.3842e-05
19230.0 8.362e-05
19250.0 8.3406e-05
19270.0 8.3188e-05
19290.0 8.2972e-05
19310.0 8.2763e-05
19330.0 8.2555e-05
19350.0 8.2341e-05
19370.0 8.2136e-05
19390.0 8.1935e-05
19410.0 8.1732e-05
19430.0 8.1529e-05
19450.0 8.1336e-05
19470.0 8.1142e-05
19490.0 8.0944e-05
19510.0 8.0753e-05
19530.0 8.0567e-05
19550.0 8.0375e-05
19570.0 8.0185e-05
19590.0 8.0004e-05
19610.0 7.9822e-05
19630.0 7.9637e-05
19650.0 7.9459e-05
19670.0 7.9285e-05
19690.0 7.9105e-05
19710.0 7.8929e-05
19730.0 7.8758e-05
19750.0 7.8587e-05
19770.0 7.8411e-05
19790.0 7.8244e-05
19810.0 7.8079e-05
19830.0 7.7909e-05
19850.0 7.7738e-05
19870.0 7.7569e-05
19890.0 7.7382e-05
19910.0 7.7166e-05
19930.0 7.6917e-05
19950.0 7.6611e-05
19970.0 7.6204e-05
19990.0 7.5682e-05
20010.0 7.5063e-05
20030.0 7.4289e-05
20050.0 7.3364e-05
20070.0 7.2351e-05
20090.0 7.1256e-05
20110.0 7.0015e-05
20130.0 6.876e-05
20150.0 6.7519e-05
20170.0 6.6234e-05
20190.0 6.4931e-05
20210.0 6.3701e-05
20230.0 6.2498e-05
20250.0 6.1287e-05
20270.0 6.0157e-05
20290.0 5.9119e-05
20310.0 5.8125e-05
20330.0 5.7186e-05
20350.0 5.6401e-05
20370.0 5.5698e-05
20390.0 5.5078e-05
20410.0 5.4578e-05
20430.0 5.4195e-05
20450.0 5.3899e-05
20470.0 5.3715e-05
20490.0 5.3639e-05
20510.0 5.3657e-05
20530.0 5.377e-05
20550.0 5.3966e-05
20570.0 5.4227e-05
20590.0 5.4561e-05
20610.0 5.4951e-05
20630.0 5.537e-05
20650.0 5.5823e-05
20670.0 5.6319e-05
20690.0 5.6802e-05
20710.0 5.7272e-05
20730.0 5.7742e-05
20750.0 5.8188e-05
20770.0 5.8581e-05
20790.0 5.894e-05
20810.0 5.9258e-05
20830.0 5.9513e-05
20850.0 5.9707e-05
20870.0 5.9846e-05
20890.0 5.9919e-05
20910.0 5.9928e-05
20930.0 5.9877e-05
20950.0 5.9765e-05
20970.0 5.9602e-05
20990.0 5.9394e-05
21010.0 5.9127e-05
21030.0 5.8822e-05
21050.0 5.8492e-05
21070.0 5.8128e-05
21090.0 5.7725e-05
21110.0 5.7326e-05
21130.0 5.6921e-05
21150.0 5.6496e-05
21170.0 5.6078e-05
21190.0 5.5683e-05
21210.0 5.5287e-05
21230.0 5.4904e-05
21250.0 5.4563e-05
21270.0 5.4253e-05
21290.0 5.3969e-05
21310.0 5.3729e-05
21330.0 5.3542e-05
21350.0 5.3393e-05
21370.0 5.3291e-05
21390.0 5.3243e-05
21410.0 5.3242e-05
21430.0 5.3293e-05
21450.0 5.3393e-05
21470.0 5.3535e-05
21490.0 5.3724e-05
21510.0 5.3958e-05
21530.0 5.422e-05
21550.0 5.4516e-05
21570.0 5.4855e-05
21590.0 5.5215e-05
21610.0 5.5589e-05
21630.0 5.5995e-05
21650.0 5.6431e-05
21670.0 5.6855e-05
21690.0 5.7297e-05
21710.0 5.7763e-05
21730.0 5.8229e-05
21750.0 5.8687e-05
21770.0 5.9178e-05
21790.0 5.967e-05
21810.0 6.015e-05
21830.0 6.0636e-05
21850.0 6.114e-05
21870.0 6.163e-05
21890.0 6.2104e-05
21910.0 6.2592e-05
21930.0 6.3075e-05
21950.0 6.3532e-05
21970.0 6.3985e-05
21990.0 6.4442e-05
22010.0 6.4858e-05
22030.0 6.5247e-05
22050.0 6.562e-05
22070.0 6.5959e-05
22090.0 6.6248e-05
22110.0 6.6502e-05
22130.0 6.6714e-05
22150.0 6.6867e-05
22170.0 6.6965e-05
22190.0 6.7005e-05
22210.0 6.6977e-05
22230.0 6.6888e-05
22250.0 6.6731e-05
22270.0 6.6499e-05
22290.0 6.6208e-05
22310.0 6.5857e-05
22330.0 6.5417e-05
22350.0 6.492e-05
22370.0 6.438e-05
22390.0 6.3771e-05
22410.0 6.3088e-05
22430.0 6.2393e-05
22450.0 6.1663e-05
22470.0 6.0871e-05
22490.0 6.0061e-05
22510.0 5.9259e-05
22530.0 5.8409e-05
22550.0 5.7535e-05
22570.0 5.67e-05
22590.0 5.587e-05
22610.0 5.5024e-05
22630.0 5.4206e-05
22650.0 5.3446e-05
22670.0 5.2681e-05
22690.0 5.1939e-05
22710.0 5.1255e-05
22730.0 5.0605e-05
22750.0 4.9955e-05
22770.0 4.9368e-05
22790.0 4.8832e-05
22810.0 4.8314e-05
22830.0 4.7825e-05
22850.0 4.7389e-05
