#lamb flux
1010.0 7.8166e-07
1030.0 8.4344e-07
1050.0 9.1464e-07
1070.0 9.9483e-07
1090.0 1.0859e-06
1110.0 1.1795e-06
1130.0 1.2738e-06
1150.0 1.3727e-06
1170.0 1.4748e-06
1190.0 1.5719e-06
1210.0 1.6704e-06
1230.0 1.7723e-06
1250.0 1.8725e-06
1270.0 1.97e-06
1290.0 2.0732e-06
1310.0 2.1765e-06
1330.0 2.276e-06
1350.0 2.3768e-06
1370.0 2.4811e-06
1390.0 2.5831e-06
1410.0 2.6825e-06
1430.0 2.7866e-06
1450.0 2.891e-06
1470.0 2.9923e-06
1490.0 3.0949e-06
1510.0 3.2034e-06
1530.0 3.3066e-06
1550.0 3.4088e-06
1570.0 3.5145e-06
1590.0 3.6204e-06
1610.0 3.7219e-06
1630.0 3.8265e-06
1650.0 3.9338e-06
1670.0 4.0375e-06
1690.0 4.1398e-06
1710.0 4.2457e-06
1730.0 4.3518e-06
1750.0 4.4513e-06
1770.0 4.5531e-06
1790.0 4.6563e-06
1810.0 4.7555e-06
1830.0 4.8521e-06
1850.0 4.9538e-06
1870.0 5.0517e-06
1890.0 5.145e-06
1910.0 5.2391e-06
1930.0 5.3342e-06
1950.0 5.4231e-06
1970.0 5.5094e-06
1990.0 5.5977e-06
2010.0 5.6826e-06
2030.0 5.7623e-06
2050.0 5.8432e-06
2070.0 5.9246e-06
2090.0 5.9985e-06
2110.0 6.0704e-06
2130.0 6.1431e-06
2150.0 6.2122e-06
2170.0 6.2753e-06
2190.0 6.3401e-06
2210.0 6.4037e-06
2230.0 6.4618e-06
2250.0 6.5178e-06
2270.0 6.5762e-06
2290.0 6.63e-06
2310.0 6.6786e-06
2330.0 6.7286e-06
2350.0 6.7778e-06
2370.0 6.8221e-06
2390.0 6.866e-06
2410.0 6.913e-06
2430.0 6.9567e-06
2450.0 6.9986e-06
2470.0 7.045e-06
2490.0 7.0994e-06
2510.0 7.164e-06
2530.0 7.2661e-06
2550.0 7.4501e-06
2570.0 7.7621e-06
2590.0 8.2567e-06
2610.0 9.0734e-06
2630.0 1.0248e-05
2650.0 1.1715e-05
2670.0 1.3492e-05
2690.0 1.551e-05
2710.0 1.7494e-05
2730.0 1.9308e-05
2750.0 2.0984e-05
2770.0 2.2369e-05
2790.0 2.3449e-05
2810.0 2.4344e-05
2830.0 2.5148e-05
2850.0 2.5825e-05
2870.0 2.6471e-05
2890.0 2.7146e-05
2910.0 2.7833e-05
2930.0 2.8504e-05
2950.0 2.9223e-05
2970.0 2.9981e-05
2990.0 3.0728e-05
3010.0 0.00017441
3030.0 0.00017881
3050.0 0.00018314
3070.0 0.00018693
3090.0 0.00019008
3110.0 0.00019169
3130.0 0.00019064
3150.0 0.00018587
3170.0 0.00017522
3190.0 0.00015857
3210.0 0.00013642
3230.0 0.00011175
3250.0 0.00013436
3270.0 0.00010838
3290.0 0.00016445
3310.0 0.00010514
3330.0 0.00010576
3350.0 0.00011498
3370.0 0.00012633
3390.0 0.00013905
3410.0 0.00015191
3430.0 0.0001655
3450.0 0.00017944
3470.0 0.00019259
3490.0 0.0002028
3510.0 0.00022912
3530.0 0.00027259
3550.0 0.00027081
3570.0 0.00024348
3590.0 0.00029703
3610.0 0.00023421
3630.0 0.0003178
3650.0 0.00035696
3670.0 0.00042437
3690.0 0.00040294
3710.0 0.00030848
3730.0 0.00035932
3750.0 0.00036374
3770.0 0.00039435
3790.0 0.00040602
3810.0 0.00044946
3830.0 0.00066479
3850.0 0.00083367
3870.0 0.0010055
3890.0 0.0010172
3910.0 0.00094909
3930.0 0.00095488
3950.0 0.0010077
3970.0 0.00098813
3990.0 0.00059972
4010.0 0.00036476
4030.0 0.00063671
4050.0 0.00087091
4070.0 0.0008595
4090.0 0.00053334
4110.0 0.00038224
4130.0 0.00064488
4150.0 0.00070533
4170.0 0.00060513
4190.0 0.00051737
4210.0 0.0007499
4230.0 0.00063734
4250.0 0.00063463
4270.0 0.00063041
4290.0 0.00057449
4310.0 0.00071657
4330.0 0.00081041
4350.0 0.00077718
4370.0 0.00069315
4390.0 0.00076633
4410.0 0.00074447
4430.0 0.00055122
4450.0 0.0004526
4470.0 0.00055215
4490.0 0.0004826
4510.0 0.00069622
4530.0 0.0007163
4550.0 0.00076318
4570.0 0.00099645
4590.0 0.0010901
4610.0 0.0011439
4630.0 0.0016086
4650.0 0.0018852
4670.0 0.0018742
4690.0 0.0016414
4710.0 0.0016577
4730.0 0.0015812
4750.0 0.0012081
4770.0 0.00096058
4790.0 0.00071325
4810.0 0.00083381
4830.0 0.00097193
4850.0 0.00092997
4870.0 0.00067646
4890.0 0.0011119
4910.0 0.0012483
4930.0 0.0013605
4950.0 0.0015276
4970.0 0.0013969
4990.0 0.0015949
5010.0 0.0017084
5030.0 0.0016582
5050.0 0.0014026
5070.0 0.0010029
5090.0 0.00083259
5110.0 0.0008321
5130.0 0.00084465
5150.0 0.00082123
5170.0 0.0007709
5190.0 0.00084776
5210.0 0.00087158
5230.0 0.00096602
5250.0 0.0010745
5270.0 0.00097794
5290.0 0.0010983
5310.0 0.0014605
5330.0 0.0016324
5350.0 0.0014758
5370.0 0.0014357
5390.0 0.0015975
5410.0 0.0017063
5430.0 0.0017214
5450.0 0.001805
5470.0 0.0019312
5490.0 0.0021934
5510.0 0.0026364
5530.0 0.0027509
5550.0 0.0028085
5570.0 0.0028426
5590.0 0.0027597
5610.0 0.0026091
5630.0 0.0026066
5650.0 0.0027141
5670.0 0.0026398
5690.0 0.0023503
5710.0 0.002332
5730.0 0.0022276
5750.0 0.0021146
5770.0 0.0018645
5790.0 0.00191
5810.0 0.0020157
5830.0 0.0022147
5850.0 0.0021454
5870.0 0.002125
5890.0 0.0022965
5910.0 0.0021319
5930.0 0.0018926
5950.0 0.001838
5970.0 0.0019559
5990.0 0.001746
6010.0 0.0015193
6030.0 0.0013807
6050.0 0.0012534
6070.0 0.0010982
6090.0 0.0011304
6110.0 0.0013193
6130.0 0.0013809
6150.0 0.0014051
6170.0 0.001431
6190.0 0.0014754
6210.0 0.0016445
6230.0 0.0019477
6250.0 0.0018072
6270.0 0.0015946
6290.0 0.0014022
6310.0 0.0011983
6330.0 0.001075
6350.0 0.0010067
6370.0 0.0010557
6390.0 0.0011936
6410.0 0.0014506
6430.0 0.0017625
6450.0 0.0019508
6470.0 0.0020953
6490.0 0.0024319
6510.0 0.0026993
6530.0 0.0025964
6550.0 0.0024759
6570.0 0.0025038
6590.0 0.0024955
6610.0 0.0025305
6630.0 0.0023738
6650.0 0.0021111
6670.0 0.0020091
6690.0 0.0019782
6710.0 0.0021157
6730.0 0.0018596
6750.0 0.0015673
6770.0 0.0014948
6790.0 0.0015929
6810.0 0.0018027
6830.0 0.0018174
6850.0 0.0016538
6870.0 0.0016711
6890.0 0.0016541
6910.0 0.0015563
6930.0 0.0016279
6950.0 0.0015645
6970.0 0.0015116
6990.0 0.0015367
7010.0 0.0016083
7030.0 0.0015799
7050.0 0.0014704
7070.0 0.0014673
7090.0 0.0013212
7110.0 0.0011329
7130.0 0.0010668
7150.0 0.0011085
7170.0 0.0012679
7190.0 0.0012973
7210.0 0.0012477
7230.0 0.0013487
7250.0 0.0014052
7270.0 0.0014281
7290.0 0.001484
7310.0 0.0015311
7330.0 0.0014603
7350.0 0.0013543
7370.0 0.0012547
7390.0 0.0012349
7410.0 0.001377
7430.0 0.0015823
7450.0 0.0017186
7470.0 0.0018349
7490.0 0.00211
7510.0 0.0020885
7530.0 0.0017749
7550.0 0.0015799
7570.0 0.0013343
7590.0 0.0012009
7610.0 0.0011628
7630.0 0.0011186
7650.0 0.0012029
7670.0 0.0013543
7690.0 0.0014795
7710.0 0.0016868
7730.0 0.001751
7750.0 0.0018108
7770.0 0.0019245
7790.0 0.0020302
7810.0 0.0020079
7830.0 0.0018205
7850.0 0.0018122
7870.0 0.0017572
7890.0 0.0017188
7910.0 0.0016002
7930.0 0.0015409
7950.0 0.0012828
7970.0 0.0012528
7990.0 0.0012373
8010.0 0.001408
8030.0 0.0014047
8050.0 0.0014855
8070.0 0.0014349
8090.0 0.0014373
8110.0 0.0014119
8130.0 0.0013695
8150.0 0.0012723
8170.0 0.0012538
8190.0 0.0012579
8210.0 0.0012685
8230.0 0.0011265
8250.0 0.0010358
8270.0 0.00091251
8290.0 0.00077021
8310.0 0.00065937
8330.0 0.00050595
8350.0 0.00039894
8370.0 0.00037531
8390.0 0.0003725
8410.0 0.00040249
8430.0 0.0005169
8450.0 0.00056662
8470.0 0.00061113
8490.0 0.00070472
8510.0 0.00076425
8530.0 0.00085869
8550.0 0.0010142
8570.0 0.0011208
8590.0 0.0011846
8610.0 0.0013314
8630.0 0.0015268
8650.0 0.0015758
8670.0 0.0016078
8690.0 0.0016452
8710.0 0.001605
8730.0 0.0015413
8750.0 0.0014171
8770.0 0.001408
8790.0 0.0013771
8810.0 0.0012661
8830.0 0.0012448
8850.0 0.0011162
8870.0 0.001051
8890.0 0.00094559
8910.0 0.0010571
8930.0 0.00096414
8950.0 0.00097264
8970.0 0.00099454
8990.0 0.00097104
9010.0 0.0009914
9030.0 0.00094273
9050.0 0.00093885
9070.0 0.00093972
9090.0 0.00094045
9110.0 0.00094187
9130.0 0.00094245
9150.0 0.00094259
9170.0 0.00094049
9190.0 0.00093523
9210.0 0.00094927
9230.0 0.00094621
9250.0 0.00094482
9270.0 0.00094382
9290.0 0.00094308
9310.0 0.00094249
9330.0 0.00094196
9350.0 0.0009415
9370.0 0.00094102
9390.0 0.00094047
9410.0 0.00093992
9430.0 0.00093938
9450.0 0.00093872
9470.0 0.00093805
9490.0 0.00093739
9510.0 0.00093667
9530.0 0.00093591
9550.0 0.0009352
9570.0 0.00093448
9590.0 0.00093372
9610.0 0.00093296
9630.0 0.00093225
9650.0 0.00093153
9670.0 0.00093075
9690.0 0.00093006
9710.0 0.00092939
9730.0 0.00092868
9750.0 0.00092801
9770.0 0.00092747
9790.0 0.00092687
9810.0 0.00092627
9830.0 0.00092576
9850.0 0.0009253
9870.0 0.0009248
9890.0 0.00092436
9910.0 0.00092403
9930.0 0.00092367
9950.0 0.00092226
9970.0 0.00092237
9990.0 0.00092248
10010.0 0.00092248
10030.0 0.00092247
10050.0 0.00092213
10070.0 0.00091979
10090.0 0.00092061
10110.0 0.00092141
10130.0 0.00092202
10150.0 0.00092253
10170.0 0.00092292
10190.0 0.00092322
10210.0 0.00092357
10230.0 0.00092396
10250.0 0.00092431
10270.0 0.00092471
10290.0 0.00092521
10310.0 0.00092568
10330.0 0.00092614
10350.0 0.00092672
10370.0 0.00092733
10390.0 0.00092791
10410.0 0.00092855
10430.0 0.00092927
10450.0 0.00092997
10470.0 0.00093067
10490.0 0.00093144
10510.0 0.00093224
10530.0 0.00093298
10550.0 0.00093379
10570.0 0.00093465
10590.0 0.00093549
10610.0 0.00093633
10630.0 0.00093723
10650.0 0.00093813
10670.0 0.00093899
10690.0 0.00093989
10710.0 0.00094082
10730.0 0.00094172
10750.0 0.0009426
10770.0 0.00094355
10790.0 0.00094447
10810.0 0.00094536
10830.0 0.00094622
10850.0 0.00094703
10870.0 0.00094757
10890.0 0.00094768
10910.0 0.00094712
10930.0 0.00094535
10950.0 0.00094152
10970.0 0.00093521
10990.0 0.00092621
11010.0 0.00094736
11030.0 0.00092924
11050.0 0.00090816
11070.0 0.00088388
11090.0 0.0008558
11110.0 0.0008279
11130.0 0.00080008
11150.0 0.00077167
11170.0 0.00074419
11190.0 0.00071935
11210.0 0.00069559
11230.0 0.00067323
11250.0 0.00065372
11270.0 0.00063656
11290.0 0.00062081
11310.0 0.00060705
11330.0 0.00059566
11350.0 0.00058526
11370.0 0.00057564
11390.0 0.00056694
11410.0 0.00055863
11430.0 0.00054979
11450.0 0.00054078
11470.0 0.00053153
11490.0 0.00052143
11510.0 0.00051028
11530.0 0.00049891
11550.0 0.00048705
11570.0 0.00047422
11590.0 0.00046117
11610.0 0.00044835
11630.0 0.00043503
11650.0 0.0004215
11670.0 0.00040884
11690.0 0.00039654
11710.0 0.00038427
11730.0 0.00037265
11750.0 0.00036198
11770.0 0.00035143
11790.0 0.00034127
11810.0 0.00033191
11830.0 0.00032298
11850.0 0.00031398
11870.0 0.00030557
11890.0 0.00029767
11910.0 0.00028973
11930.0 0.00028184
11950.0 0.00027437
11970.0 0.00026691
11990.0 0.00025922
12010.0 0.00025181
12030.0 0.00024466
12050.0 0.00023744
12070.0 0.00023028
12090.0 0.00022384
12110.0 0.00021765
12130.0 0.00021178
12150.0 0.00020661
12170.0 0.00020224
12190.0 0.00019841
12210.0 0.00019554
12230.0 0.00019374
12250.0 0.00019292
12270.0 0.00019321
12290.0 0.0001946
12310.0 0.00019697
12330.0 0.00020045
12350.0 0.00020489
12370.0 0.00020994
12390.0 0.00021569
12410.0 0.00022225
12430.0 0.00022872
12450.0 0.00023518
12470.0 0.00024175
12490.0 0.00024802
12510.0 0.00025359
12530.0 0.00025881
12550.0 0.00026351
12570.0 0.00026736
12590.0 0.00027048
12610.0 0.000273
12630.0 0.00027477
12650.0 0.00027578
12670.0 0.00027622
12690.0 0.00027608
12710.0 0.00027542
12730.0 0.00027434
12750.0 0.00027277
12770.0 0.00027086
12790.0 0.00026869
12810.0 0.00026619
12830.0 0.00026334
12850.0 0.00026034
12870.0 0.0002571
12890.0 0.00025346
12910.0 0.00024957
12930.0 0.00024551
12950.0 0.00024097
12970.0 0.00023598
12990.0 0.00023091
13010.0 0.00022556
13030.0 0.00021977
13050.0 0.00021387
13070.0 0.0002081
13090.0 0.00020205
13110.0 0.00019603
13130.0 0.00019039
13150.0 0.00018502
13170.0 0.00017977
13190.0 0.00017519
13210.0 0.00017128
13230.0 0.00016784
13250.0 0.00016501
13270.0 0.00016293
13290.0 0.0001614
13310.0 0.00016042
13330.0 0.00015999
13350.0 0.00015998
13370.0 0.00016029
13390.0 0.00016084
13410.0 0.00016145
13430.0 0.00016207
13450.0 0.00016261
13470.0 0.00016296
13490.0 0.00016309
13510.0 0.00016295
13530.0 0.00016252
13550.0 0.00016187
13570.0 0.00016098
13590.0 0.00015989
13610.0 0.00015871
13630.0 0.00015751
13650.0 0.00015624
13670.0 0.00015503
13690.0 0.00015392
13710.0 0.0001529
13730.0 0.00015195
13750.0 0.00015116
13770.0 0.00015046
13790.0 0.0001498
13810.0 0.00014918
13830.0 0.00014858
13850.0 0.00014792
13870.0 0.00014718
13890.0 0.00014636
13910.0 0.00014544
13930.0 0.00014437
13950.0 0.00014318
13970.0 0.00014196
13990.0 0.00014064
14010.0 0.00013926
14030.0 0.00013794
14050.0 0.00013666
14070.0 0.0001354
14090.0 0.00013428
14110.0 0.00013331
14130.0 0.00013245
14150.0 0.00013173
14170.0 0.00013118
14190.0 0.00013076
14210.0 0.00013046
14230.0 0.0001303
14250.0 0.00013027
14270.0 0.00013037
14290.0 0.00013062
14310.0 0.00013099
14330.0 0.00013149
14350.0 0.00013216
14370.0 0.00013295
14390.0 0.00013381
14410.0 0.00013483
14430.0 0.00013595
14450.0 0.00013709
14470.0 0.00013828
14490.0 0.0001396
14510.0 0.00014089
14530.0 0.00014217
14550.0 0.00014357
14570.0 0.00014505
14590.0 0.00014656
14610.0 0.00014824
14630.0 0.00015019
14650.0 0.00015228
14670.0 0.00015457
14690.0 0.00015723
14710.0 0.00016024
14730.0 0.00016333
14750.0 0.00016677
14770.0 0.00017055
14790.0 0.00017443
14810.0 0.00017836
14830.0 0.00018264
14850.0 0.00018685
14870.0 0.00019081
14890.0 0.00019467
14910.0 0.00019835
14930.0 0.00020151
14950.0 0.00020416
14970.0 0.0002064
14990.0 0.00020802
15010.0 0.00020901
15030.0 0.00020952
15050.0 0.00020959
15070.0 0.00020928
15090.0 0.00020874
15110.0 0.00020805
15130.0 0.00020726
15150.0 0.00020644
15170.0 0.00020558
15190.0 0.00020471
15210.0 0.00020385
15230.0 0.00020299
15250.0 0.00020212
15270.0 0.00020125
15290.0 0.00020041
15310.0 0.00019956
15330.0 0.0001987
15350.0 0.00019787
15370.0 0.00019703
15390.0 0.00019618
15410.0 0.00019534
15430.0 0.00019452
15450.0 0.00019369
15470.0 0.00019285
15490.0 0.00019204
15510.0 0.00019123
15530.0 0.0001904
15550.0 0.00018959
15570.0 0.0001888
15590.0 0.00018799
15610.0 0.00018717
15630.0 0.00018639
15650.0 0.0001856
15670.0 0.0001848
15690.0 0.00018401
15710.0 0.00018325
15730.0 0.00018246
15750.0 0.00018168
15770.0 0.00018091
15790.0 0.00018015
15810.0 0.00017937
15830.0 0.0001786
15850.0 0.00017786
15870.0 0.0001771
15890.0 0.00017634
15910.0 0.00017561
15930.0 0.00017486
15950.0 0.00017411
15970.0 0.00017337
15990.0 0.00017265
16010.0 0.0001719
16030.0 0.00017116
16050.0 0.00017045
16070.0 0.00016973
16090.0 0.000169
16110.0 0.00016829
16130.0 0.00016759
16150.0 0.00016686
16170.0 0.00016615
16190.0 0.00016545
16210.0 0.00016475
16230.0 0.00016404
16250.0 0.00016335
16270.0 0.00016267
16290.0 0.00016196
16310.0 0.00016127
16330.0 0.00016059
16350.0 0.00015991
16370.0 0.0001592
16390.0 0.00015853
16410.0 0.00015787
16430.0 0.00015718
16450.0 0.00015651
16470.0 0.00015585
16490.0 0.00015518
16510.0 0.0001545
16530.0 0.00015384
16550.0 0.00015318
16570.0 0.00015251
16590.0 0.00015184
16610.0 0.0001512
16630.0 0.00015055
16650.0 0.00014988
16670.0 0.00014924
16690.0 0.0001486
16710.0 0.00014793
16730.0 0.00014728
16750.0 0.00014665
16770.0 0.000146
16790.0 0.00014535
16810.0 0.00014472
16830.0 0.00014408
16850.0 0.00014344
16870.0 0.0001428
16890.0 0.00014218
16910.0 0.00014153
16930.0 0.00014088
16950.0 0.00014026
16970.0 0.00013964
16990.0 0.000139
17010.0 0.00013837
17030.0 0.00013776
17050.0 0.00013712
17070.0 0.00013649
17090.0 0.00013587
17110.0 0.00013525
17130.0 0.00013461
17150.0 0.00013399
17170.0 0.00013338
17190.0 0.00013276
17210.0 0.00013213
17230.0 0.00013153
17250.0 0.00013091
17270.0 0.00013028
17290.0 0.00012966
17310.0 0.00012906
17330.0 0.00012844
17350.0 0.00012781
17370.0 0.00012721
17390.0 0.0001266
17410.0 0.00012598
17430.0 0.00012537
17450.0 0.00012478
17470.0 0.00012415
17490.0 0.00012353
17510.0 0.00012294
17530.0 0.00012233
17550.0 0.00012171
17570.0 0.00012111
17590.0 0.00012052
17610.0 0.0001199
17630.0 0.00011929
17650.0 0.0001187
17670.0 0.0001181
17690.0 0.00011747
17710.0 0.00011688
17730.0 0.00011629
17750.0 0.00011568
17770.0 0.00011508
17790.0 0.00011449
17810.0 0.00011389
17830.0 0.00011328
17850.0 0.00011269
17870.0 0.0001121
17890.0 0.00011149
17910.0 0.00011089
17930.0 0.00011031
17950.0 0.00010971
17970.0 0.00010911
17990.0 0.00010853
18010.0 0.00010794
18030.0 0.00010733
18050.0 0.00010674
18070.0 0.00010616
18090.0 0.00010557
18110.0 0.00010497
18130.0 0.00010439
18150.0 0.00010381
18170.0 0.00010321
18190.0 0.00010263
18210.0 0.00010206
18230.0 0.00010146
18250.0 0.00010087
18270.0 0.0001003
18290.0 9.9721e-05
18310.0 9.913e-05
18330.0 9.8554e-05
18350.0 9.799e-05
18370.0 9.7403e-05
18390.0 9.682e-05
18410.0 9.6254e-05
18430.0 9.5682e-05
18450.0 9.5089e-05
18470.0 9.4521e-05
18490.0 9.3961e-05
18510.0 9.3384e-05
18530.0 9.281e-05
18550.0 9.2256e-05
18570.0 9.1688e-05
18590.0 9.1106e-05
18610.0 9.0544e-05
18630.0 8.9989e-05
18650.0 8.9416e-05
18670.0 8.8844e-05
18690.0 8.83e-05
18710.0 8.7741e-05
18730.0 8.7172e-05
18750.0 8.6621e-05
18770.0 8.6077e-05
18790.0 8.5503e-05
18810.0 8.4944e-05
18830.0 8.4402e-05
18850.0 8.385e-05
18870.0 8.3288e-05
18890.0 8.2748e-05
18910.0 8.221e-05
18930.0 8.1653e-05
18950.0 8.1105e-05
18970.0 8.0572e-05
18990.0 8.0027e-05
19010.0 7.9464e-05
19030.0 7.8936e-05
19050.0 7.8404e-05
19070.0 7.7858e-05
19090.0 7.7321e-05
19110.0 7.6802e-05
19130.0 7.626e-05
19150.0 7.5717e-05
19170.0 7.5194e-05
19190.0 7.4669e-05
19210.0 7.4128e-05
19230.0 7.3597e-05
19250.0 7.3087e-05
19270.0 7.2559e-05
19290.0 7.203e-05
19310.0 7.1518e-05
19330.0 7.1005e-05
19350.0 7.0467e-05
19370.0 6.9951e-05
19390.0 6.9445e-05
19410.0 6.8925e-05
19430.0 6.8402e-05
19450.0 6.7904e-05
19470.0 6.7398e-05
19490.0 6.6879e-05
19510.0 6.6374e-05
19530.0 6.5879e-05
19550.0 6.5364e-05
19570.0 6.4848e-05
19590.0 6.4359e-05
19610.0 6.3861e-05
19630.0 6.3353e-05
19650.0 6.2859e-05
19670.0 6.2376e-05
19690.0 6.1871e-05
19710.0 6.1372e-05
19730.0 6.089e-05
19750.0 6.04e-05
19770.0 5.9894e-05
19790.0 5.9411e-05
19810.0 5.8935e-05
19830.0 5.8442e-05
19850.0 5.7948e-05
19870.0 5.7467e-05
19890.0 5.6954e-05
19910.0 5.6399e-05
19930.0 5.5818e-05
19950.0 5.5172e-05
19970.0 5.4404e-05
19990.0 5.3517e-05
20010.0 5.2549e-05
20030.0 5.1428e-05
20050.0 5.0179e-05
20070.0 4.8899e-05
20090.0 4.7599e-05
20110.0 4.6223e-05
20130.0 4.493e-05
20150.0 4.374e-05
20170.0 4.2599e-05
20190.0 4.1534e-05
20210.0 4.0608e-05
20230.0 3.9776e-05
20250.0 3.9012e-05
20270.0 3.8366e-05
20290.0 3.783e-05
20310.0 3.7374e-05
20330.0 3.7002e-05
20350.0 3.6745e-05
20370.0 3.6569e-05
20390.0 3.6478e-05
20410.0 3.6477e-05
20430.0 3.6557e-05
20450.0 3.673e-05
20470.0 3.6994e-05
20490.0 3.7333e-05
20510.0 3.7758e-05
20530.0 3.8284e-05
20550.0 3.8877e-05
20570.0 3.9515e-05
20590.0 4.0242e-05
20610.0 4.1024e-05
20630.0 4.1817e-05
20650.0 4.2643e-05
20670.0 4.3524e-05
20690.0 4.4361e-05
20710.0 4.5166e-05
20730.0 4.5968e-05
20750.0 4.6731e-05
20770.0 4.7413e-05
20790.0 4.806e-05
20810.0 4.8673e-05
20830.0 4.9219e-05
20850.0 4.9716e-05
20870.0 5.0202e-05
20890.0 5.066e-05
20910.0 5.1078e-05
20930.0 5.1496e-05
20950.0 5.1921e-05
20970.0 5.233e-05
20990.0 5.2729e-05
21010.0 5.3143e-05
21030.0 5.3536e-05
21050.0 5.3895e-05
21070.0 5.423e-05
21090.0 5.4534e-05
21110.0 5.4771e-05
21130.0 5.4952e-05
21150.0 5.5078e-05
21170.0 5.5135e-05
21190.0 5.5128e-05
21210.0 5.5057e-05
21230.0 5.492e-05
21250.0 5.4731e-05
21270.0 5.4494e-05
21290.0 5.4203e-05
21310.0 5.3875e-05
21330.0 5.3532e-05
21350.0 5.3153e-05
21370.0 5.2751e-05
21390.0 5.235e-05
21410.0 5.1947e-05
21430.0 5.1522e-05
21450.0 5.1117e-05
21470.0 5.0735e-05
21490.0 5.0359e-05
21510.0 4.9999e-05
21530.0 4.9678e-05
21550.0 4.9383e-05
21570.0 4.9111e-05
21590.0 4.8882e-05
21610.0 4.8697e-05
21630.0 4.855e-05
21650.0 4.845e-05
21670.0 4.8405e-05
21690.0 4.8409e-05
21710.0 4.8468e-05
21730.0 4.8584e-05
21750.0 4.8748e-05
21770.0 4.8982e-05
21790.0 4.9276e-05
21810.0 4.9615e-05
21830.0 5.0011e-05
21850.0 5.0478e-05
21870.0 5.0984e-05
21890.0 5.1519e-05
21910.0 5.2119e-05
21930.0 5.2759e-05
21950.0 5.3407e-05
21970.0 5.4091e-05
21990.0 5.483e-05
22010.0 5.5547e-05
22030.0 5.6258e-05
22050.0 5.6991e-05
22070.0 5.7712e-05
22090.0 5.8381e-05
22110.0 5.904e-05
22130.0 5.9676e-05
22150.0 6.0246e-05
22170.0 6.0755e-05
22190.0 6.1221e-05
22210.0 6.1608e-05
22230.0 6.1897e-05
22250.0 6.2109e-05
22270.0 6.2228e-05
22290.0 6.2245e-05
22310.0 6.2166e-05
22330.0 6.1973e-05
22350.0 6.1673e-05
22370.0 6.1278e-05
22390.0 6.0772e-05
22410.0 6.014e-05
22430.0 5.9442e-05
22450.0 5.8662e-05
22470.0 5.7768e-05
22490.0 5.6807e-05
22510.0 5.5816e-05
22530.0 5.4726e-05
22550.0 5.3567e-05
22570.0 5.2421e-05
22590.0 5.125e-05
22610.0 5.0023e-05
22630.0 4.8804e-05
22650.0 4.764e-05
22670.0 4.6442e-05
22690.0 4.5251e-05
22710.0 4.4127e-05
22730.0 4.3038e-05
22750.0 4.1928e-05
22770.0 4.0906e-05
22790.0 3.9963e-05
22810.0 3.9045e-05
