#lamb flux
1010.0 1.7385e-05
1030.0 1.9569e-05
1050.0 2.1829e-05
1070.0 2.4385e-05
1090.0 2.7377e-05
1110.0 3.0454e-05
1130.0 3.357e-05
1150.0 3.6859e-05
1170.0 4.0291e-05
1190.0 4.3613e-05
1210.0 4.7052e-05
1230.0 5.0688e-05
1250.0 5.4346e-05
1270.0 5.8028e-05
1290.0 6.2022e-05
1310.0 6.6153e-05
1330.0 7.0282e-05
1350.0 7.4583e-05
1370.0 7.9127e-05
1390.0 8.3701e-05
1410.0 8.8272e-05
1430.0 9.3089e-05
1450.0 9.7978e-05
1470.0 0.00010279
1490.0 0.00010768
1510.0 0.00011279
1530.0 0.00011769
1550.0 0.0001225
1570.0 0.00012741
1590.0 0.00013224
1610.0 0.00013681
1630.0 0.00014137
1650.0 0.0001459
1670.0 0.00015015
1690.0 0.00015418
1710.0 0.0001582
1730.0 0.00016204
1750.0 0.00016544
1770.0 0.00016875
1790.0 0.00017194
1810.0 0.00017478
1830.0 0.00017735
1850.0 0.00017995
1870.0 0.00018226
1890.0 0.00018426
1910.0 0.00018616
1930.0 0.00018799
1950.0 0.0001895
1970.0 0.00019083
1990.0 0.00019216
2010.0 0.0001933
2030.0 0.00019418
2050.0 0.00019503
2070.0 0.00019582
2090.0 0.00019626
2110.0 0.00019651
2130.0 0.00019668
2150.0 0.00019659
2170.0 0.00019614
2190.0 0.00019558
2210.0 0.00019479
2230.0 0.00019362
2250.0 0.00019218
2270.0 0.0001906
2290.0 0.00018866
2310.0 0.00018634
2330.0 0.00018385
2350.0 0.00018113
2370.0 0.00017806
2390.0 0.00017477
2410.0 0.00017133
2430.0 0.00016754
2450.0 0.00016341
2470.0 0.00015901
2490.0 0.0001543
2510.0 0.00014931
2530.0 0.00014438
2550.0 0.00014001
2570.0 0.00013684
2590.0 0.0001355
2610.0 0.00013736
2630.0 0.00014279
2650.0 0.00015107
2670.0 0.00016217
2690.0 0.00017527
2710.0 0.00018745
2730.0 0.00019714
2750.0 0.00020402
2770.0 0.00020599
2790.0 0.00020254
2810.0 0.00019417
2830.0 0.00018085
2850.0 0.00016383
2870.0 0.00014412
2890.0 0.00012193
2910.0 9.8307e-05
2930.0 7.4453e-05
2950.0 4.9479e-05
2970.0 2.3722e-05
2990.0 1.1859e-05
3010.0 2.6174e-05
3030.0 2.6174e-05
3050.0 2.6174e-05
3070.0 2.6174e-05
3090.0 2.6174e-05
3110.0 2.6174e-05
3130.0 2.6174e-05
3150.0 2.6174e-05
3170.0 2.6174e-05
3190.0 2.6174e-05
3210.0 2.6174e-05
3230.0 0.00071276
3250.0 0.0014169
3270.0 0.0014177
3290.0 0.0015276
3310.0 0.0012029
3330.0 0.0012017
3350.0 0.0013337
3370.0 0.001523
3390.0 0.0017366
3410.0 0.0019653
3430.0 0.002257
3450.0 0.0025529
3470.0 0.0028621
3490.0 0.0030322
3510.0 0.002949
3530.0 0.002987
3550.0 0.0031487
3570.0 0.003171
3590.0 0.003381
3610.0 0.0032351
3630.0 0.0040049
3650.0 0.004493
3670.0 0.0047992
3690.0 0.0045333
3710.0 0.0037303
3730.0 0.0035016
3750.0 0.0031581
3770.0 0.0029172
3790.0 0.0026468
3810.0 0.0025572
3830.0 0.0029395
3850.0 0.0012917
3870.0 0.0023753
3890.0 0.0028063
3910.0 0.0031599
3930.0 0.0039314
3950.0 0.0042737
3970.0 0.0049836
3990.0 0.0061094
4010.0 0.0045927
4030.0 0.0038052
4050.0 0.0028877
4070.0 0.00297
4090.0 0.0046616
4110.0 0.0044235
4130.0 0.004769
4150.0 0.004492
4170.0 0.004277
4190.0 0.0038906
4210.0 0.0056496
4230.0 0.0058899
4250.0 0.0064057
4270.0 0.0060133
4290.0 0.0060718
4310.0 0.0068133
4330.0 0.0080182
4350.0 0.0080484
4370.0 0.0078371
4390.0 0.0070094
4410.0 0.0065251
4430.0 0.0051255
4450.0 0.004289
4470.0 0.0047791
4490.0 0.0056965
4510.0 0.0058996
4530.0 0.0060776
4550.0 0.0063068
4570.0 0.0089293
4590.0 0.013203
4610.0 0.01552
4630.0 0.015564
4650.0 0.016298
4670.0 0.018664
4690.0 0.020393
4710.0 0.016799
4730.0 0.0128
4750.0 0.010163
4770.0 0.008976
4790.0 0.0084136
4810.0 0.0080232
4830.0 0.0088643
4850.0 0.010271
4870.0 0.011209
4890.0 0.011694
4910.0 0.010774
4930.0 0.011468
4950.0 0.014149
4970.0 0.016862
4990.0 0.017614
5010.0 0.016249
5030.0 0.013505
5050.0 0.010295
5070.0 0.0081378
5090.0 0.0072994
5110.0 0.0071398
5130.0 0.0072866
5150.0 0.007263
5170.0 0.00695
5190.0 0.0065669
5210.0 0.0064207
5230.0 0.0072018
5250.0 0.0083505
5270.0 0.0099554
5290.0 0.011499
5310.0 0.012173
5330.0 0.013219
5350.0 0.014707
5370.0 0.01554
5390.0 0.014175
5410.0 0.012599
5430.0 0.012231
5450.0 0.014215
5470.0 0.017729
5490.0 0.020902
5510.0 0.022396
5530.0 0.022144
5550.0 0.021171
5570.0 0.02058
5590.0 0.019967
5610.0 0.019793
5630.0 0.019742
5650.0 0.019817
5670.0 0.019754
5690.0 0.018241
5710.0 0.015408
5730.0 0.013738
5750.0 0.013061
5770.0 0.013374
5790.0 0.013913
5810.0 0.014611
5830.0 0.014983
5850.0 0.014355
5870.0 0.01352
5890.0 0.013016
5910.0 0.013481
5930.0 0.014249
5950.0 0.013538
5970.0 0.012088
5990.0 0.010162
6010.0 0.0082531
6030.0 0.0074963
6050.0 0.008027
6070.0 0.008612
6090.0 0.0083855
6110.0 0.0074022
6130.0 0.0074742
6150.0 0.0086487
6170.0 0.010042
6190.0 0.011185
6210.0 0.011335
6230.0 0.011098
6250.0 0.010165
6270.0 0.0085683
6290.0 0.0071034
6310.0 0.0062541
6330.0 0.0060644
6350.0 0.0062087
6370.0 0.0062454
6390.0 0.0068719
6410.0 0.0084931
6430.0 0.010651
6450.0 0.012226
6470.0 0.012702
6490.0 0.012523
6510.0 0.0128
6530.0 0.013287
6550.0 0.013172
6570.0 0.013657
6590.0 0.013928
6610.0 0.014176
6630.0 0.014094
6650.0 0.0133
6670.0 0.012163
6690.0 0.010925
6710.0 0.010221
6730.0 0.010194
6750.0 0.010535
6770.0 0.010851
6790.0 0.011154
6810.0 0.011352
6830.0 0.011121
6850.0 0.01065
6870.0 0.0099913
6890.0 0.0097564
6910.0 0.0093558
6930.0 0.0096448
6950.0 0.0103
6970.0 0.0106
6990.0 0.010848
7010.0 0.010586
7030.0 0.0097655
7050.0 0.0086197
7070.0 0.0075624
7090.0 0.0069216
7110.0 0.0068318
7130.0 0.0068146
7150.0 0.0061963
7170.0 0.0058379
7190.0 0.0062679
7210.0 0.0071504
7230.0 0.0082833
7250.0 0.0088683
7270.0 0.0088469
7290.0 0.0081418
7310.0 0.0074638
7330.0 0.0070891
7350.0 0.0070849
7370.0 0.0072358
7390.0 0.007554
7410.0 0.0083155
7430.0 0.0096453
7450.0 0.010986
7470.0 0.011723
7490.0 0.011604
7510.0 0.010885
7530.0 0.0092406
7550.0 0.008267
7570.0 0.0072771
7590.0 0.0067927
7610.0 0.0070228
7630.0 0.0076849
7650.0 0.0085568
7670.0 0.0093897
7690.0 0.0099325
7710.0 0.010546
7730.0 0.011204
7750.0 0.011771
7770.0 0.011642
7790.0 0.011676
7810.0 0.011919
7830.0 0.011986
7850.0 0.011608
7870.0 0.011166
7890.0 0.011103
7910.0 0.010648
7930.0 0.010484
7950.0 0.0099244
7970.0 0.009677
7990.0 0.0093611
8010.0 0.009621
8030.0 0.0096865
8050.0 0.0097686
8070.0 0.0096552
8090.0 0.0095931
8110.0 0.0092074
8130.0 0.0091694
8150.0 0.0090199
8170.0 0.0087698
8190.0 0.0085922
8210.0 0.0085871
8230.0 0.0083374
8250.0 0.0080968
8270.0 0.0072556
8290.0 0.0058742
8310.0 0.0043752
8330.0 0.0033344
8350.0 0.0030886
8370.0 0.0036908
8390.0 0.004494
8410.0 0.0048893
8430.0 0.0050536
8450.0 0.0053017
8470.0 0.0056454
8490.0 0.0063115
8510.0 0.0072022
8530.0 0.0083204
8550.0 0.0094311
8570.0 0.01038
8590.0 0.011118
8610.0 0.011571
8630.0 0.011658
8650.0 0.011578
8670.0 0.011574
8690.0 0.012103
8710.0 0.012789
8730.0 0.013286
8750.0 0.013218
8770.0 0.013376
8790.0 0.013291
8810.0 0.012447
8830.0 0.011791
8850.0 0.010897
8870.0 0.01017
8890.0 0.0099
8910.0 0.0099459
8930.0 0.0094096
8950.0 0.0088326
8970.0 0.0085948
8990.0 0.0084977
9010.0 0.0081676
9030.0 0.0079829
9050.0 0.0079199
9070.0 0.0078907
9090.0 0.0078651
9110.0 0.0078405
9130.0 0.0078154
9150.0 0.0077908
9170.0 0.0077619
9190.0 0.0077388
9210.0 0.0077533
9230.0 0.007714
9250.0 0.0076817
9270.0 0.007653
9290.0 0.0076269
9310.0 0.0076015
9330.0 0.0075771
9350.0 0.0075543
9370.0 0.0075316
9390.0 0.0075083
9410.0 0.0074859
9430.0 0.007463
9450.0 0.0074316
9470.0 0.0074031
9490.0 0.0073893
9510.0 0.0073712
9530.0 0.0073517
9550.0 0.0073319
9570.0 0.0073114
9590.0 0.0072905
9610.0 0.0072694
9630.0 0.0072485
9650.0 0.0072276
9670.0 0.0072065
9690.0 0.0071857
9710.0 0.0071649
9730.0 0.007144
9750.0 0.0071231
9770.0 0.0071025
9790.0 0.0070817
9810.0 0.0070608
9830.0 0.00704
9850.0 0.0070194
9870.0 0.0069982
9890.0 0.0069772
9910.0 0.0069561
9930.0 0.006934
9950.0 0.0068562
9970.0 0.0068514
9990.0 0.0068434
10010.0 0.0068333
10030.0 0.0068185
10050.0 0.0067997
10070.0 0.0067799
10090.0 0.0067603
10110.0 0.0067369
10130.0 0.0067152
10150.0 0.006693
10170.0 0.0066688
10190.0 0.0066426
10210.0 0.0066187
10230.0 0.0065953
10250.0 0.0065694
10270.0 0.0065437
10290.0 0.0065195
10310.0 0.0064931
10330.0 0.0064645
10350.0 0.0064382
10370.0 0.0064116
10390.0 0.0063825
10410.0 0.0063533
10430.0 0.0063262
10450.0 0.0062965
10470.0 0.0062652
10490.0 0.0062354
10510.0 0.0062053
10530.0 0.0061713
10550.0 0.0061382
10570.0 0.0061068
10590.0 0.0060728
10610.0 0.0060373
10630.0 0.0060036
10650.0 0.005969
10670.0 0.0059309
10690.0 0.0058936
10710.0 0.0058572
10730.0 0.0058182
10750.0 0.0057766
10770.0 0.0057383
10790.0 0.0056985
10810.0 0.0056558
10830.0 0.0056136
10850.0 0.0055728
10870.0 0.0055272
10890.0 0.0054806
10910.0 0.0054353
10930.0 0.0053877
10950.0 0.0053356
10970.0 0.0052825
10990.0 0.0052295
11010.0 0.0053969
11030.0 0.0053316
11050.0 0.0052682
11070.0 0.0052037
11090.0 0.0051353
11110.0 0.0050726
11130.0 0.0050128
11150.0 0.0049522
11170.0 0.0048931
11190.0 0.0048387
11210.0 0.0047837
11230.0 0.0047277
11250.0 0.0046746
11270.0 0.0046229
11290.0 0.0045689
11310.0 0.004515
11330.0 0.0044647
11350.0 0.0044127
11370.0 0.0043588
11390.0 0.0043061
11410.0 0.0042532
11430.0 0.0041951
11450.0 0.004136
11470.0 0.0040766
11490.0 0.0040128
11510.0 0.0039437
11530.0 0.0038747
11550.0 0.0038034
11570.0 0.0037261
11590.0 0.003647
11610.0 0.0035686
11630.0 0.0034856
11650.0 0.0033994
11670.0 0.0033169
11690.0 0.0032347
11710.0 0.0031506
11730.0 0.0030688
11750.0 0.0029921
11770.0 0.0029147
11790.0 0.0028388
11810.0 0.0027682
11830.0 0.0027004
11850.0 0.0026319
11870.0 0.0025684
11890.0 0.0025095
11910.0 0.0024513
11930.0 0.0023948
11950.0 0.0023427
11970.0 0.0022922
11990.0 0.0022418
12010.0 0.0021947
12030.0 0.0021506
12050.0 0.0021074
12070.0 0.0020656
12090.0 0.0020287
12110.0 0.0019938
12130.0 0.0019609
12150.0 0.0019318
12170.0 0.0019067
12190.0 0.0018839
12210.0 0.0018652
12230.0 0.0018509
12250.0 0.0018403
12270.0 0.0018337
12290.0 0.0018314
12310.0 0.0018328
12330.0 0.0018384
12350.0 0.0018479
12370.0 0.0018606
12390.0 0.001877
12410.0 0.001898
12430.0 0.0019208
12450.0 0.0019458
12470.0 0.0019742
12490.0 0.0020045
12510.0 0.0020345
12530.0 0.0020662
12550.0 0.0020988
12570.0 0.0021294
12590.0 0.0021581
12610.0 0.0021859
12630.0 0.0022103
12650.0 0.0022293
12670.0 0.0022448
12690.0 0.0022556
12710.0 0.0022606
12730.0 0.0022604
12750.0 0.0022549
12770.0 0.0022439
12790.0 0.0022283
12810.0 0.0022082
12830.0 0.0021838
12850.0 0.0021571
12870.0 0.0021284
12890.0 0.0020971
12910.0 0.0020653
12930.0 0.002034
12950.0 0.0020019
12970.0 0.0019699
12990.0 0.00194
13010.0 0.0019111
13030.0 0.0018826
13050.0 0.0018555
13070.0 0.0018301
13090.0 0.0018047
13110.0 0.0017798
13130.0 0.0017561
13150.0 0.0017327
13170.0 0.0017086
13190.0 0.0016854
13210.0 0.0016632
13230.0 0.0016407
13250.0 0.0016188
13270.0 0.0015984
13290.0 0.001579
13310.0 0.0015605
13330.0 0.0015443
13350.0 0.0015305
13370.0 0.0015187
13390.0 0.0015094
13410.0 0.0015027
13430.0 0.001498
13450.0 0.0014952
13470.0 0.0014937
13490.0 0.0014928
13510.0 0.0014922
13530.0 0.0014908
13550.0 0.0014882
13570.0 0.0014839
13590.0 0.0014772
13610.0 0.0014681
13630.0 0.0014567
13650.0 0.0014425
13670.0 0.0014259
13690.0 0.001408
13710.0 0.0013885
13730.0 0.001367
13750.0 0.0013462
13770.0 0.0013258
13790.0 0.0013053
13810.0 0.001286
13830.0 0.0012687
13850.0 0.0012524
13870.0 0.0012375
13890.0 0.0012248
13910.0 0.0012137
13930.0 0.0012038
13950.0 0.0011953
13970.0 0.0011883
13990.0 0.001182
14010.0 0.0011763
14030.0 0.0011712
14050.0 0.0011662
14070.0 0.0011611
14090.0 0.0011558
14110.0 0.0011502
14130.0 0.001144
14150.0 0.001137
14170.0 0.0011296
14190.0 0.0011215
14210.0 0.0011125
14230.0 0.001103
14250.0 0.0010934
14270.0 0.0010833
14290.0 0.001073
14310.0 0.0010634
14330.0 0.0010542
14350.0 0.0010454
14370.0 0.0010377
14390.0 0.0010312
14410.0 0.0010255
14430.0 0.0010209
14450.0 0.0010175
14470.0 0.0010151
14490.0 0.0010135
14510.0 0.0010128
14530.0 0.0010128
14550.0 0.0010135
14570.0 0.0010148
14590.0 0.0010165
14610.0 0.001019
14630.0 0.0010222
14650.0 0.0010261
14670.0 0.0010308
14690.0 0.0010367
14710.0 0.0010437
14730.0 0.0010513
14750.0 0.0010603
14770.0 0.0010707
14790.0 0.001082
14810.0 0.0010944
14830.0 0.0011089
14850.0 0.0011248
14870.0 0.0011415
14890.0 0.0011598
14910.0 0.0011797
14930.0 0.0011995
14950.0 0.0012186
14970.0 0.0012374
14990.0 0.001254
15010.0 0.0012674
15030.0 0.0012781
15050.0 0.0012862
15070.0 0.0012913
15090.0 0.0012946
15110.0 0.0012967
15130.0 0.0012979
15150.0 0.0012987
15170.0 0.0012993
15190.0 0.0012999
15210.0 0.0013003
15230.0 0.0013009
15250.0 0.0013014
15270.0 0.0013019
15290.0 0.0013025
15310.0 0.001303
15330.0 0.0013036
15350.0 0.0013043
15370.0 0.0013049
15390.0 0.0013056
15410.0 0.0013063
15430.0 0.001307
15450.0 0.0013077
15470.0 0.0013084
15490.0 0.0013092
15510.0 0.0013099
15530.0 0.0013107
15550.0 0.0013115
15570.0 0.0013123
15590.0 0.0013132
15610.0 0.001314
15630.0 0.0013148
15650.0 0.0013157
15670.0 0.0013166
15690.0 0.0013175
15710.0 0.0013184
15730.0 0.0013192
15750.0 0.0013201
15770.0 0.0013211
15790.0 0.001322
15810.0 0.0013229
15830.0 0.0013238
15850.0 0.0013248
15870.0 0.0013257
15890.0 0.0013266
15910.0 0.0013276
15930.0 0.0013285
15950.0 0.0013294
15970.0 0.0013304
15990.0 0.0013313
16010.0 0.0013322
16030.0 0.0013332
16050.0 0.0013341
16070.0 0.001335
16090.0 0.0013359
16110.0 0.0013369
16130.0 0.0013378
16150.0 0.0013386
16170.0 0.0013395
16190.0 0.0013404
16210.0 0.0013413
16230.0 0.0013421
16250.0 0.001343
16270.0 0.0013438
16290.0 0.0013446
16310.0 0.0013454
16330.0 0.0013462
16350.0 0.001347
16370.0 0.0013477
16390.0 0.0013484
16410.0 0.0013492
16430.0 0.0013498
16450.0 0.0013505
16470.0 0.0013512
16490.0 0.0013518
16510.0 0.0013524
16530.0 0.001353
16550.0 0.0013535
16570.0 0.0013541
16590.0 0.0013546
16610.0 0.001355
16630.0 0.0013555
16650.0 0.0013559
16670.0 0.0013563
16690.0 0.0013567
16710.0 0.001357
16730.0 0.0013572
16750.0 0.0013575
16770.0 0.0013577
16790.0 0.0013579
16810.0 0.0013581
16830.0 0.0013582
16850.0 0.0013583
16870.0 0.0013583
16890.0 0.0013583
16910.0 0.0013583
16930.0 0.0013582
16950.0 0.0013581
16970.0 0.0013579
16990.0 0.0013577
17010.0 0.0013575
17030.0 0.0013572
17050.0 0.0013568
17070.0 0.0013565
17090.0 0.001356
17110.0 0.0013556
17130.0 0.001355
17150.0 0.0013545
17170.0 0.0013539
17190.0 0.0013532
17210.0 0.0013525
17230.0 0.0013517
17250.0 0.0013509
17270.0 0.0013501
17290.0 0.0013492
17310.0 0.0013482
17330.0 0.0013472
17350.0 0.0013461
17370.0 0.001345
17390.0 0.0013438
17410.0 0.0013426
17430.0 0.0013413
17450.0 0.00134
17470.0 0.0013386
17490.0 0.0013372
17510.0 0.0013357
17530.0 0.0013342
17550.0 0.0013326
17570.0 0.0013309
17590.0 0.0013292
17610.0 0.0013275
17630.0 0.0013257
17650.0 0.0013238
17670.0 0.0013219
17690.0 0.0013199
17710.0 0.0013179
17730.0 0.0013158
17750.0 0.0013137
17770.0 0.0013115
17790.0 0.0013092
17810.0 0.0013069
17830.0 0.0013046
17850.0 0.0013022
17870.0 0.0012997
17890.0 0.0012972
17910.0 0.0012947
17930.0 0.0012921
17950.0 0.0012894
17970.0 0.0012867
17990.0 0.0012839
18010.0 0.0012811
18030.0 0.0012783
18050.0 0.0012754
18070.0 0.0012724
18090.0 0.0012694
18110.0 0.0012663
18130.0 0.0012633
18150.0 0.0012601
18170.0 0.0012569
18190.0 0.0012537
18210.0 0.0012504
18230.0 0.0012471
18250.0 0.0012437
18270.0 0.0012403
18290.0 0.0012369
18310.0 0.0012334
18330.0 0.0012298
18350.0 0.0012263
18370.0 0.0012227
18390.0 0.001219
18410.0 0.0012153
18430.0 0.0012116
18450.0 0.0012078
18470.0 0.001204
18490.0 0.0012002
18510.0 0.0011964
18530.0 0.0011925
18550.0 0.0011886
18570.0 0.0011846
18590.0 0.0011806
18610.0 0.0011766
18630.0 0.0011726
18650.0 0.0011685
18670.0 0.0011644
18690.0 0.0011603
18710.0 0.0011561
18730.0 0.0011519
18750.0 0.0011478
18770.0 0.0011435
18790.0 0.0011393
18810.0 0.001135
18830.0 0.0011308
18850.0 0.0011265
18870.0 0.0011221
18890.0 0.0011178
18910.0 0.0011135
18930.0 0.0011091
18950.0 0.0011047
18970.0 0.0011003
18990.0 0.0010959
19010.0 0.0010915
19030.0 0.0010871
19050.0 0.0010827
19070.0 0.0010782
19090.0 0.0010738
19110.0 0.0010693
19130.0 0.0010648
19150.0 0.0010604
19170.0 0.0010559
19190.0 0.0010514
19210.0 0.0010469
19230.0 0.0010424
19250.0 0.0010379
19270.0 0.0010334
19290.0 0.0010289
19310.0 0.0010244
19330.0 0.00102
19350.0 0.0010154
19370.0 0.001011
19390.0 0.0010065
19410.0 0.001002
19430.0 0.0009975
19450.0 0.00099304
19470.0 0.00098857
19490.0 0.0009841
19510.0 0.00097965
19530.0 0.00097521
19550.0 0.00097076
19570.0 0.00096632
19590.0 0.00096191
19610.0 0.0009575
19630.0 0.00095309
19650.0 0.0009487
19670.0 0.00094433
19690.0 0.00093995
19710.0 0.00093559
19730.0 0.00093126
19750.0 0.00092693
19770.0 0.0009226
19790.0 0.0009183
19810.0 0.00091401
19830.0 0.00090971
19850.0 0.00090539
19870.0 0.00090101
19890.0 0.00089646
19910.0 0.00089156
19930.0 0.00088617
19950.0 0.00088001
19970.0 0.00087263
19990.0 0.00086381
20010.0 0.00085373
20030.0 0.00084187
20050.0 0.00082833
20070.0 0.00081388
20090.0 0.00079869
20110.0 0.00078219
20130.0 0.00076587
20150.0 0.00075002
20170.0 0.00073406
20190.0 0.00071828
20210.0 0.00070347
20230.0 0.00068915
20250.0 0.00067492
20270.0 0.0006615
20290.0 0.00064892
20310.0 0.00063661
20330.0 0.00062456
20350.0 0.00061367
20370.0 0.00060317
20390.0 0.00059292
20410.0 0.00058332
20430.0 0.00057442
20450.0 0.00056563
20470.0 0.00055736
20490.0 0.00054977
20510.0 0.00054263
20530.0 0.00053582
20550.0 0.00052964
20570.0 0.00052409
20590.0 0.0005189
20610.0 0.00051422
20630.0 0.00051011
20650.0 0.00050644
20670.0 0.00050319
20690.0 0.00050044
20710.0 0.00049809
20730.0 0.0004961
20750.0 0.00049447
20770.0 0.00049309
20790.0 0.00049197
20810.0 0.00049109
20830.0 0.00049032
20850.0 0.00048963
20870.0 0.00048905
20890.0 0.00048847
20910.0 0.00048776
20930.0 0.00048699
20950.0 0.00048609
20970.0 0.00048497
20990.0 0.00048364
21010.0 0.00048208
21030.0 0.00048023
21050.0 0.00047811
21070.0 0.00047569
21090.0 0.00047292
21110.0 0.00046992
21130.0 0.00046665
21150.0 0.00046306
21170.0 0.00045923
21190.0 0.00045525
21210.0 0.00045099
21230.0 0.00044647
21250.0 0.00044192
21270.0 0.00043726
21290.0 0.00043239
21310.0 0.00042748
21330.0 0.00042268
21350.0 0.00041776
21370.0 0.00041281
21390.0 0.00040804
21410.0 0.00040339
21430.0 0.00039867
21450.0 0.00039424
21470.0 0.0003901
21490.0 0.00038611
21510.0 0.00038237
21530.0 0.00037901
21550.0 0.00037595
21570.0 0.00037317
21590.0 0.00037079
21610.0 0.00036879
21630.0 0.00036714
21650.0 0.00036588
21670.0 0.00036497
21690.0 0.00036438
21710.0 0.00036415
21730.0 0.00036418
21750.0 0.00036442
21770.0 0.00036497
21790.0 0.00036569
21810.0 0.00036648
21830.0 0.00036737
21850.0 0.00036839
21870.0 0.00036934
21890.0 0.00037019
21910.0 0.00037106
21930.0 0.00037182
21950.0 0.00037238
21970.0 0.00037281
21990.0 0.00037315
22010.0 0.00037324
22030.0 0.00037313
22050.0 0.00037287
22070.0 0.00037243
22090.0 0.0003718
22110.0 0.00037103
22130.0 0.00037011
22150.0 0.00036905
22170.0 0.00036787
22190.0 0.00036656
22210.0 0.00036515
22230.0 0.00036365
22250.0 0.00036205
22270.0 0.00036033
22290.0 0.00035853
22310.0 0.00035664
22330.0 0.00035457
22350.0 0.00035239
22370.0 0.0003501
22390.0 0.00034762
22410.0 0.0003449
22430.0 0.00034208
22450.0 0.00033907
22470.0 0.00033577
22490.0 0.00033227
22510.0 0.00032866
22530.0 0.00032473
22550.0 0.00032053
22570.0 0.00031628
22590.0 0.00031189
22610.0 0.00030723
22630.0 0.00030253
22650.0 0.00029794
22670.0 0.00029318
22690.0 0.0002884
22710.0 0.00028381
22730.0 0.00027932
22750.0 0.00027476
22770.0 0.00027051
22790.0 0.00026655
22810.0 0.00026269
22830.0 0.00025904
22850.0 0.00025574
22870.0 0.00025263
22890.0 0.00024968
22910.0 0.00024701
22930.0 0.0002446
22950.0 0.00024232
22970.0 0.00024019
22990.0 0.00023831
23010.0 0.00023653
23030.0 0.00023483
23050.0 0.00023323
23070.0 0.0002317
23090.0 0.00023015
23110.0 0.00022861
23130.0 0.00022709
23150.0 0.00022552
23170.0 0.00022387
23190.0 0.00022222
23210.0 0.00022054
23230.0 0.00021878
23250.0 0.00021699
23270.0 0.00021523
23290.0 0.00021344
23310.0 0.00021161
23330.0 0.00020987
23350.0 0.00020819
23370.0 0.00020653
23390.0 0.00020492
23410.0 0.00020343
23430.0 0.00020196
23450.0 0.00020052
23470.0 0.00019917
23490.0 0.00019786
23510.0 0.00019655
23530.0 0.00019527
23550.0 0.00019405
23570.0 0.00019281
23590.0 0.00019157
