#lamb flux
1010.0 1.5732e-07
1030.0 1.7197e-07
1050.0 1.8891e-07
1070.0 2.0804e-07
1090.0 2.2985e-07
1110.0 2.5236e-07
1130.0 2.7518e-07
1150.0 2.9927e-07
1170.0 3.2431e-07
1190.0 3.4837e-07
1210.0 3.7301e-07
1230.0 3.9873e-07
1250.0 4.2429e-07
1270.0 4.4951e-07
1290.0 4.7642e-07
1310.0 5.0372e-07
1330.0 5.3042e-07
1350.0 5.5782e-07
1370.0 5.8645e-07
1390.0 6.1491e-07
1410.0 6.4309e-07
1430.0 6.7283e-07
1450.0 7.0303e-07
1470.0 7.328e-07
1490.0 7.6325e-07
1510.0 7.9553e-07
1530.0 8.2676e-07
1550.0 8.5793e-07
1570.0 8.9024e-07
1590.0 9.2276e-07
1610.0 9.5419e-07
1630.0 9.8645e-07
1650.0 1.0194e-06
1670.0 1.0512e-06
1690.0 1.0824e-06
1710.0 1.1143e-06
1730.0 1.1458e-06
1750.0 1.175e-06
1770.0 1.2043e-06
1790.0 1.2332e-06
1810.0 1.2602e-06
1830.0 1.2857e-06
1850.0 1.3115e-06
1870.0 1.3352e-06
1890.0 1.3565e-06
1910.0 1.3768e-06
1930.0 1.396e-06
1950.0 1.4123e-06
1970.0 1.4265e-06
1990.0 1.4399e-06
2010.0 1.4509e-06
2030.0 1.4591e-06
2050.0 1.4662e-06
2070.0 1.4721e-06
2090.0 1.4747e-06
2110.0 1.4755e-06
2130.0 1.4752e-06
2150.0 1.4729e-06
2170.0 1.468e-06
2190.0 1.4625e-06
2210.0 1.4559e-06
2230.0 1.4471e-06
2250.0 1.4371e-06
2270.0 1.427e-06
2290.0 1.4155e-06
2310.0 1.4023e-06
2330.0 1.3892e-06
2350.0 1.3757e-06
2370.0 1.3609e-06
2390.0 1.346e-06
2410.0 1.3315e-06
2430.0 1.3158e-06
2450.0 1.299e-06
2470.0 1.2814e-06
2490.0 1.2624e-06
2510.0 1.2414e-06
2530.0 1.2206e-06
2550.0 1.2032e-06
2570.0 1.1941e-06
2590.0 1.1991e-06
2610.0 1.2302e-06
2630.0 1.2931e-06
2650.0 1.385e-06
2670.0 1.5084e-06
2690.0 1.6602e-06
2710.0 1.8183e-06
2730.0 1.9713e-06
2750.0 2.1232e-06
2770.0 2.2593e-06
2790.0 2.3749e-06
2810.0 2.4809e-06
2830.0 2.586e-06
2850.0 2.6806e-06
2870.0 2.7744e-06
2890.0 2.8744e-06
2910.0 2.9768e-06
2930.0 3.0759e-06
2950.0 3.1818e-06
2970.0 3.2928e-06
2990.0 3.4015e-06
3010.0 7.7775e-06
3030.0 8.0365e-06
3050.0 8.3012e-06
3070.0 8.5543e-06
3090.0 8.8191e-06
3110.0 9.0881e-06
3130.0 9.3431e-06
3150.0 9.5851e-06
3170.0 9.8252e-06
3190.0 1.0032e-05
3210.0 1.0191e-05
3230.0 1.0335e-05
3250.0 1.0167e-05
3270.0 1.0278e-05
3290.0 1.0182e-05
3310.0 1.1067e-05
3330.0 1.188e-05
3350.0 1.2767e-05
3370.0 1.379e-05
3390.0 1.4941e-05
3410.0 1.614e-05
3430.0 1.7427e-05
3450.0 1.8849e-05
3470.0 2.0356e-05
3490.0 2.1931e-05
3510.0 2.3597e-05
3530.0 2.5375e-05
3550.0 2.7664e-05
3570.0 3.0305e-05
3590.0 3.2497e-05
3610.0 3.4956e-05
3630.0 3.5882e-05
3650.0 3.6613e-05
3670.0 3.7067e-05
3690.0 3.8107e-05
3710.0 3.9287e-05
3730.0 3.8638e-05
3750.0 3.7496e-05
3770.0 3.5928e-05
3790.0 3.4099e-05
3810.0 3.1785e-05
3830.0 2.8113e-05
3850.0 1.7564e-05
3870.0 2.4403e-05
3890.0 3.3271e-05
3910.0 4.1052e-05
3930.0 4.734e-05
3950.0 5.0256e-05
3970.0 5.2397e-05
3990.0 6.2949e-05
4010.0 5.9514e-05
4030.0 5.2121e-05
4050.0 4.6235e-05
4070.0 4.1624e-05
4090.0 4.8764e-05
4110.0 5.1993e-05
4130.0 5.2429e-05
4150.0 5.1767e-05
4170.0 4.8693e-05
4190.0 4.6007e-05
4210.0 5.4314e-05
4230.0 6.1534e-05
4250.0 6.2669e-05
4270.0 6.045e-05
4290.0 6.1586e-05
4310.0 6.5371e-05
4330.0 7.4197e-05
4350.0 7.9655e-05
4370.0 7.8533e-05
4390.0 6.6224e-05
4410.0 5.6695e-05
4430.0 4.8068e-05
4450.0 4.178e-05
4470.0 4.346e-05
4490.0 5.4211e-05
4510.0 5.8753e-05
4530.0 6.4557e-05
4550.0 6.947e-05
4570.0 8.5984e-05
4590.0 0.000125
4610.0 0.00016328
4630.0 0.00016372
4650.0 0.00015333
4670.0 0.00016504
4690.0 0.00018613
4710.0 0.00015734
4730.0 0.00011416
4750.0 8.8754e-05
4770.0 8.2966e-05
4790.0 8.4647e-05
4810.0 7.8681e-05
4830.0 8.5545e-05
4850.0 0.00010438
4870.0 0.00012792
4890.0 0.00011666
4910.0 9.9669e-05
4930.0 0.0001074
4950.0 0.00014132
4970.0 0.00018636
4990.0 0.00019288
5010.0 0.00016862
5030.0 0.00012954
5050.0 9.2589e-05
5070.0 7.6519e-05
5090.0 7.1387e-05
5110.0 7.147e-05
5130.0 7.4668e-05
5150.0 7.3434e-05
5170.0 7.5195e-05
5190.0 7.1885e-05
5210.0 7.3255e-05
5230.0 7.913e-05
5250.0 8.5613e-05
5270.0 0.00010626
5290.0 0.00012416
5310.0 0.00012356
5330.0 0.00012755
5350.0 0.00014574
5370.0 0.00015904
5390.0 0.00014699
5410.0 0.00012545
5430.0 0.00011837
5450.0 0.00013701
5470.0 0.00017864
5490.0 0.00022297
5510.0 0.00024383
5530.0 0.00024679
5550.0 0.00023426
5570.0 0.00022078
5590.0 0.00021474
5610.0 0.00021838
5630.0 0.00022244
5650.0 0.00022261
5670.0 0.00022273
5690.0 0.0002177
5710.0 0.00019132
5730.0 0.00016138
5750.0 0.0001376
5770.0 0.00014107
5790.0 0.00015498
5810.0 0.00016762
5830.0 0.00017399
5850.0 0.00017285
5870.0 0.00015978
5890.0 0.00014003
5910.0 0.00013996
5930.0 0.00015515
5950.0 0.00015811
5970.0 0.000144
5990.0 0.00012454
6010.0 0.00010178
6030.0 8.5413e-05
6050.0 8.605e-05
6070.0 9.9292e-05
6090.0 0.00010467
6110.0 9.3067e-05
6130.0 8.6434e-05
6150.0 9.4026e-05
6170.0 0.00011347
6190.0 0.00013511
6210.0 0.00014376
6230.0 0.00013758
6250.0 0.00012633
6270.0 0.0001089
6290.0 9.0295e-05
6310.0 7.5497e-05
6330.0 6.963e-05
6350.0 7.3593e-05
6370.0 7.761e-05
6390.0 8.2207e-05
6410.0 9.4535e-05
6430.0 0.0001191
6450.0 0.00015011
6470.0 0.00016746
6490.0 0.00016415
6510.0 0.00016158
6530.0 0.00016748
6550.0 0.00016935
6570.0 0.0001722
6590.0 0.00017286
6610.0 0.00016979
6630.0 0.00017169
6650.0 0.00017085
6670.0 0.00016224
6690.0 0.00014386
6710.0 0.00012223
6730.0 0.00012013
6750.0 0.00013029
6770.0 0.00014033
6790.0 0.00014384
6810.0 0.00014258
6830.0 0.00014026
6850.0 0.00013738
6870.0 0.00012903
6890.0 0.00012291
6910.0 0.00011668
6930.0 0.00011368
6950.0 0.0001226
6970.0 0.00013169
6990.0 0.00013805
7010.0 0.00013879
7030.0 0.00013054
7050.0 0.00011336
7070.0 9.1998e-05
7090.0 7.8412e-05
7110.0 7.6628e-05
7130.0 8.2069e-05
7150.0 8.1663e-05
7170.0 7.4054e-05
7190.0 7.3361e-05
7210.0 8.1261e-05
7230.0 9.425e-05
7250.0 0.00010716
7270.0 0.00011192
7290.0 0.00010364
7310.0 9.1554e-05
7330.0 8.4026e-05
7350.0 8.2971e-05
7370.0 8.547e-05
7390.0 8.8823e-05
7410.0 9.4841e-05
7430.0 0.000109
7450.0 0.000127
7470.0 0.00014379
7490.0 0.0001505
7510.0 0.00014506
7530.0 0.00012115
7550.0 9.9392e-05
7570.0 8.3024e-05
7590.0 7.3461e-05
7610.0 7.6445e-05
7630.0 8.8464e-05
7650.0 0.00010101
7670.0 0.00011303
7690.0 0.00012191
7710.0 0.0001292
7730.0 0.0001362
7750.0 0.00014276
7770.0 0.00014587
7790.0 0.00014506
7810.0 0.000147
7830.0 0.00015212
7850.0 0.00015042
7870.0 0.00014516
7890.0 0.0001355
7910.0 0.00012658
7930.0 0.00012137
7950.0 0.00011959
7970.0 0.00011784
7990.0 0.00011791
8010.0 0.0001201
8030.0 0.00012046
8050.0 0.00012276
8070.0 0.00012104
8090.0 0.00012062
8110.0 0.00011542
8130.0 0.00011442
8150.0 0.0001114
8170.0 0.00010804
8190.0 0.00010623
8210.0 0.00010672
8230.0 0.00010111
8250.0 9.5415e-05
8270.0 8.347e-05
8290.0 6.6979e-05
8310.0 5.0833e-05
8330.0 3.8632e-05
8350.0 3.4485e-05
8370.0 3.9619e-05
8390.0 4.681e-05
8410.0 5.1684e-05
8430.0 5.6027e-05
8450.0 5.8805e-05
8470.0 6.1609e-05
8490.0 6.8309e-05
8510.0 7.6618e-05
8530.0 8.8983e-05
8550.0 0.0001036
8570.0 0.00011684
8590.0 0.00012742
8610.0 0.00013563
8630.0 0.0001404
8650.0 0.0001408
8670.0 0.00014077
8690.0 0.00014545
8710.0 0.0001494
8730.0 0.00015317
8750.0 0.00015073
8770.0 0.00015131
8790.0 0.0001492
8810.0 0.00013893
8830.0 0.00013408
8850.0 0.00012591
8870.0 0.00011954
8890.0 0.00011489
8910.0 0.00011682
8930.0 0.00011018
8950.0 0.00010533
8970.0 0.00010333
8990.0 0.00010112
9010.0 9.8434e-05
9030.0 9.6023e-05
9050.0 9.541e-05
9070.0 9.5123e-05
9090.0 9.4849e-05
9110.0 9.4588e-05
9130.0 9.4307e-05
9150.0 9.4022e-05
9170.0 9.3637e-05
9190.0 9.3174e-05
9210.0 9.3541e-05
9230.0 9.3062e-05
9250.0 9.2674e-05
9270.0 9.2314e-05
9290.0 9.1974e-05
9310.0 9.1642e-05
9330.0 9.1316e-05
9350.0 9.0998e-05
9370.0 9.0678e-05
9390.0 9.0352e-05
9410.0 9.0029e-05
9430.0 8.9699e-05
9450.0 8.9317e-05
9470.0 8.895e-05
9490.0 8.8666e-05
9510.0 8.8355e-05
9530.0 8.8034e-05
9550.0 8.7708e-05
9570.0 8.7377e-05
9590.0 8.7041e-05
9610.0 8.6704e-05
9630.0 8.6366e-05
9650.0 8.6027e-05
9670.0 8.5685e-05
9690.0 8.5344e-05
9710.0 8.5003e-05
9730.0 8.4661e-05
9750.0 8.4318e-05
9770.0 8.3976e-05
9790.0 8.3633e-05
9810.0 8.3289e-05
9830.0 8.2945e-05
9850.0 8.2603e-05
9870.0 8.2258e-05
9890.0 8.1912e-05
9910.0 8.1568e-05
9930.0 8.1214e-05
9950.0 8.0287e-05
9970.0 8.0114e-05
9990.0 7.9908e-05
10010.0 7.9682e-05
10030.0 7.941e-05
10050.0 7.9094e-05
10070.0 7.8758e-05
10090.0 7.8446e-05
10110.0 7.8097e-05
10130.0 7.7769e-05
10150.0 7.7433e-05
10170.0 7.7078e-05
10190.0 7.6703e-05
10210.0 7.6355e-05
10230.0 7.6016e-05
10250.0 7.5653e-05
10270.0 7.5294e-05
10290.0 7.4955e-05
10310.0 7.4595e-05
10330.0 7.4217e-05
10350.0 7.3865e-05
10370.0 7.3513e-05
10390.0 7.3139e-05
10410.0 7.2767e-05
10430.0 7.242e-05
10450.0 7.2051e-05
10470.0 7.1668e-05
10490.0 7.1304e-05
10510.0 7.0941e-05
10530.0 7.0541e-05
10550.0 7.0155e-05
10570.0 6.9789e-05
10590.0 6.9402e-05
10610.0 6.9001e-05
10630.0 6.8624e-05
10650.0 6.8241e-05
10670.0 6.7826e-05
10690.0 6.7424e-05
10710.0 6.7034e-05
10730.0 6.6622e-05
10750.0 6.6188e-05
10770.0 6.5791e-05
10790.0 6.5382e-05
10810.0 6.4948e-05
10830.0 6.4523e-05
10850.0 6.4113e-05
10870.0 6.3657e-05
10890.0 6.3192e-05
10910.0 6.2735e-05
10930.0 6.2246e-05
10950.0 6.1694e-05
10970.0 6.111e-05
10990.0 6.0501e-05
11010.0 5.6103e-05
11030.0 5.5354e-05
11050.0 5.4638e-05
11070.0 5.3917e-05
11090.0 5.3152e-05
11110.0 5.2457e-05
11130.0 5.1792e-05
11150.0 5.1114e-05
11170.0 5.0448e-05
11190.0 4.9835e-05
11210.0 4.9209e-05
11230.0 4.8566e-05
11250.0 4.7955e-05
11270.0 4.7362e-05
11290.0 4.6741e-05
11310.0 4.6126e-05
11330.0 4.5566e-05
11350.0 4.4996e-05
11370.0 4.4418e-05
11390.0 4.3875e-05
11410.0 4.3349e-05
11430.0 4.2787e-05
11450.0 4.2237e-05
11470.0 4.1706e-05
11490.0 4.1149e-05
11510.0 4.0553e-05
11530.0 3.9971e-05
11550.0 3.9373e-05
11570.0 3.8719e-05
11590.0 3.8046e-05
11610.0 3.7375e-05
11630.0 3.6647e-05
11650.0 3.5873e-05
11670.0 3.5123e-05
11690.0 3.436e-05
11710.0 3.3559e-05
11730.0 3.2767e-05
11750.0 3.2019e-05
11770.0 3.1249e-05
11790.0 3.0487e-05
11810.0 2.9778e-05
11830.0 2.9098e-05
11850.0 2.8409e-05
11870.0 2.7779e-05
11890.0 2.7206e-05
11910.0 2.6644e-05
11930.0 2.6108e-05
11950.0 2.5627e-05
11970.0 2.5169e-05
11990.0 2.4713e-05
12010.0 2.4298e-05
12030.0 2.3916e-05
12050.0 2.3542e-05
12070.0 2.318e-05
12090.0 2.2867e-05
12110.0 2.257e-05
12130.0 2.2286e-05
12150.0 2.2037e-05
12170.0 2.1824e-05
12190.0 2.1625e-05
12210.0 2.1464e-05
12230.0 2.1349e-05
12250.0 2.1271e-05
12270.0 2.1235e-05
12290.0 2.125e-05
12310.0 2.1313e-05
12330.0 2.1428e-05
12350.0 2.1598e-05
12370.0 2.1816e-05
12390.0 2.2086e-05
12410.0 2.242e-05
12430.0 2.2785e-05
12450.0 2.3184e-05
12470.0 2.3626e-05
12490.0 2.4094e-05
12510.0 2.4558e-05
12530.0 2.504e-05
12550.0 2.5529e-05
12570.0 2.5992e-05
12590.0 2.6428e-05
12610.0 2.6848e-05
12630.0 2.7227e-05
12650.0 2.7545e-05
12670.0 2.7822e-05
12690.0 2.8047e-05
12710.0 2.8211e-05
12730.0 2.832e-05
12750.0 2.8373e-05
12770.0 2.8369e-05
12790.0 2.8316e-05
12810.0 2.8214e-05
12830.0 2.8063e-05
12850.0 2.7885e-05
12870.0 2.7678e-05
12890.0 2.7436e-05
12910.0 2.7178e-05
12930.0 2.6915e-05
12950.0 2.6629e-05
12970.0 2.6329e-05
12990.0 2.604e-05
13010.0 2.5747e-05
13030.0 2.544e-05
13050.0 2.5135e-05
13070.0 2.4839e-05
13090.0 2.4528e-05
13110.0 2.421e-05
13130.0 2.3903e-05
13150.0 2.3595e-05
13170.0 2.3274e-05
13190.0 2.2971e-05
13210.0 2.269e-05
13230.0 2.2416e-05
13250.0 2.2164e-05
13270.0 2.1951e-05
13290.0 2.1769e-05
13310.0 2.1621e-05
13330.0 2.1522e-05
13350.0 2.1467e-05
13370.0 2.1454e-05
13390.0 2.1483e-05
13410.0 2.1542e-05
13430.0 2.1624e-05
13450.0 2.1722e-05
13470.0 2.1818e-05
13490.0 2.19e-05
13510.0 2.1963e-05
13530.0 2.1988e-05
13550.0 2.1968e-05
13570.0 2.1901e-05
13590.0 2.1776e-05
13610.0 2.1603e-05
13630.0 2.1388e-05
13650.0 2.112e-05
13670.0 2.0817e-05
13690.0 2.0499e-05
13710.0 2.0159e-05
13730.0 1.9794e-05
13750.0 1.945e-05
13770.0 1.9118e-05
13790.0 1.879e-05
13810.0 1.8484e-05
13830.0 1.8213e-05
13850.0 1.7958e-05
13870.0 1.7724e-05
13890.0 1.7523e-05
13910.0 1.7347e-05
13930.0 1.7187e-05
13950.0 1.7049e-05
13970.0 1.6934e-05
13990.0 1.6831e-05
14010.0 1.6739e-05
14030.0 1.666e-05
14050.0 1.659e-05
14070.0 1.6523e-05
14090.0 1.6461e-05
14110.0 1.6403e-05
14130.0 1.6343e-05
14150.0 1.6281e-05
14170.0 1.6218e-05
14190.0 1.6152e-05
14210.0 1.608e-05
14230.0 1.6005e-05
14250.0 1.593e-05
14270.0 1.5852e-05
14290.0 1.5772e-05
14310.0 1.5699e-05
14330.0 1.5628e-05
14350.0 1.5562e-05
14370.0 1.5504e-05
14390.0 1.5454e-05
14410.0 1.541e-05
14430.0 1.5373e-05
14450.0 1.5343e-05
14470.0 1.5317e-05
14490.0 1.5295e-05
14510.0 1.5275e-05
14530.0 1.5257e-05
14550.0 1.524e-05
14570.0 1.5224e-05
14590.0 1.521e-05
14610.0 1.5199e-05
14630.0 1.5195e-05
14650.0 1.5198e-05
14670.0 1.5209e-05
14690.0 1.5234e-05
14710.0 1.5275e-05
14730.0 1.5328e-05
14750.0 1.54e-05
14770.0 1.5495e-05
14790.0 1.5608e-05
14810.0 1.5738e-05
14830.0 1.5903e-05
14850.0 1.6091e-05
14870.0 1.6293e-05
14890.0 1.6518e-05
14910.0 1.6766e-05
14930.0 1.7009e-05
14950.0 1.724e-05
14970.0 1.7461e-05
14990.0 1.7647e-05
15010.0 1.7784e-05
15030.0 1.7881e-05
15050.0 1.7937e-05
15070.0 1.7951e-05
15090.0 1.7938e-05
15110.0 1.7907e-05
15130.0 1.7864e-05
15150.0 1.7814e-05
15170.0 1.776e-05
15190.0 1.7705e-05
15210.0 1.7649e-05
15230.0 1.7593e-05
15250.0 1.7536e-05
15270.0 1.7479e-05
15290.0 1.7422e-05
15310.0 1.7365e-05
15330.0 1.7308e-05
15350.0 1.7251e-05
15370.0 1.7194e-05
15390.0 1.7136e-05
15410.0 1.7079e-05
15430.0 1.7022e-05
15450.0 1.6964e-05
15470.0 1.6906e-05
15490.0 1.6849e-05
15510.0 1.6792e-05
15530.0 1.6734e-05
15550.0 1.6676e-05
15570.0 1.6619e-05
15590.0 1.6561e-05
15610.0 1.6503e-05
15630.0 1.6446e-05
15650.0 1.6389e-05
15670.0 1.6331e-05
15690.0 1.6273e-05
15710.0 1.6216e-05
15730.0 1.6158e-05
15750.0 1.6101e-05
15770.0 1.6043e-05
15790.0 1.5986e-05
15810.0 1.5928e-05
15830.0 1.5871e-05
15850.0 1.5814e-05
15870.0 1.5757e-05
15890.0 1.57e-05
15910.0 1.5643e-05
15930.0 1.5586e-05
15950.0 1.5529e-05
15970.0 1.5473e-05
15990.0 1.5416e-05
16010.0 1.536e-05
16030.0 1.5303e-05
16050.0 1.5247e-05
16070.0 1.5191e-05
16090.0 1.5134e-05
16110.0 1.5079e-05
16130.0 1.5023e-05
16150.0 1.4967e-05
16170.0 1.4911e-05
16190.0 1.4856e-05
16210.0 1.4801e-05
16230.0 1.4745e-05
16250.0 1.469e-05
16270.0 1.4636e-05
16290.0 1.4581e-05
16310.0 1.4526e-05
16330.0 1.4472e-05
16350.0 1.4418e-05
16370.0 1.4363e-05
16390.0 1.4309e-05
16410.0 1.4256e-05
16430.0 1.4202e-05
16450.0 1.4148e-05
16470.0 1.4096e-05
16490.0 1.4042e-05
16510.0 1.3989e-05
16530.0 1.3937e-05
16550.0 1.3884e-05
16570.0 1.3831e-05
16590.0 1.3779e-05
16610.0 1.3727e-05
16630.0 1.3676e-05
16650.0 1.3624e-05
16670.0 1.3572e-05
16690.0 1.3521e-05
16710.0 1.347e-05
16730.0 1.3419e-05
16750.0 1.3369e-05
16770.0 1.3318e-05
16790.0 1.3267e-05
16810.0 1.3218e-05
16830.0 1.3168e-05
16850.0 1.3118e-05
16870.0 1.3069e-05
16890.0 1.302e-05
16910.0 1.297e-05
16930.0 1.2921e-05
16950.0 1.2873e-05
16970.0 1.2825e-05
16990.0 1.2776e-05
17010.0 1.2728e-05
17030.0 1.2681e-05
17050.0 1.2633e-05
17070.0 1.2585e-05
17090.0 1.2538e-05
17110.0 1.2492e-05
17130.0 1.2444e-05
17150.0 1.2398e-05
17170.0 1.2352e-05
17190.0 1.2306e-05
17210.0 1.226e-05
17230.0 1.2214e-05
17250.0 1.2169e-05
17270.0 1.2124e-05
17290.0 1.2079e-05
17310.0 1.2034e-05
17330.0 1.1989e-05
17350.0 1.1945e-05
17370.0 1.1901e-05
17390.0 1.1857e-05
17410.0 1.1813e-05
17430.0 1.177e-05
17450.0 1.1727e-05
17470.0 1.1684e-05
17490.0 1.1641e-05
17510.0 1.1598e-05
17530.0 1.1556e-05
17550.0 1.1514e-05
17570.0 1.1472e-05
17590.0 1.1431e-05
17610.0 1.1389e-05
17630.0 1.1348e-05
17650.0 1.1307e-05
17670.0 1.1266e-05
17690.0 1.1225e-05
17710.0 1.1185e-05
17730.0 1.1145e-05
17750.0 1.1105e-05
17770.0 1.1065e-05
17790.0 1.1026e-05
17810.0 1.0986e-05
17830.0 1.0947e-05
17850.0 1.0908e-05
17870.0 1.087e-05
17890.0 1.0831e-05
17910.0 1.0793e-05
17930.0 1.0755e-05
17950.0 1.0717e-05
17970.0 1.0679e-05
17990.0 1.0642e-05
18010.0 1.0605e-05
18030.0 1.0568e-05
18050.0 1.0531e-05
18070.0 1.0494e-05
18090.0 1.0458e-05
18110.0 1.0422e-05
18130.0 1.0386e-05
18150.0 1.035e-05
18170.0 1.0315e-05
18190.0 1.0279e-05
18210.0 1.0244e-05
18230.0 1.0209e-05
18250.0 1.0174e-05
18270.0 1.014e-05
18290.0 1.0106e-05
18310.0 1.0071e-05
18330.0 1.0037e-05
18350.0 1.0004e-05
18370.0 9.9702e-06
18390.0 9.9367e-06
18410.0 9.9037e-06
18430.0 9.8708e-06
18450.0 9.8377e-06
18470.0 9.8052e-06
18490.0 9.773e-06
18510.0 9.7407e-06
18530.0 9.7086e-06
18550.0 9.677e-06
18570.0 9.6453e-06
18590.0 9.6136e-06
18610.0 9.5824e-06
18630.0 9.5514e-06
18650.0 9.5204e-06
18670.0 9.4895e-06
18690.0 9.4592e-06
18710.0 9.4289e-06
18730.0 9.3985e-06
18750.0 9.3686e-06
18770.0 9.339e-06
18790.0 9.309e-06
18810.0 9.2795e-06
18830.0 9.2503e-06
18850.0 9.2212e-06
18870.0 9.1921e-06
18890.0 9.1634e-06
18910.0 9.135e-06
18930.0 9.1063e-06
18950.0 9.078e-06
18970.0 9.0501e-06
18990.0 9.0221e-06
19010.0 8.994e-06
19030.0 8.9665e-06
19050.0 8.9392e-06
19070.0 8.9118e-06
19090.0 8.8846e-06
19110.0 8.8579e-06
19130.0 8.831e-06
19150.0 8.8042e-06
19170.0 8.7778e-06
19190.0 8.7515e-06
19210.0 8.7252e-06
19230.0 8.6991e-06
19250.0 8.6735e-06
19270.0 8.6477e-06
19290.0 8.622e-06
19310.0 8.5968e-06
19330.0 8.5716e-06
19350.0 8.5462e-06
19370.0 8.5212e-06
19390.0 8.4966e-06
19410.0 8.4718e-06
19430.0 8.4471e-06
19450.0 8.4229e-06
19470.0 8.3988e-06
19490.0 8.3745e-06
19510.0 8.3506e-06
19530.0 8.327e-06
19550.0 8.3031e-06
19570.0 8.2794e-06
19590.0 8.2562e-06
19610.0 8.233e-06
19630.0 8.2097e-06
19650.0 8.1868e-06
19670.0 8.1641e-06
19690.0 8.1413e-06
19710.0 8.1186e-06
19730.0 8.0963e-06
19750.0 8.074e-06
19770.0 8.0515e-06
19790.0 8.0295e-06
19810.0 8.0077e-06
19830.0 7.9856e-06
19850.0 7.9633e-06
19870.0 7.9407e-06
19890.0 7.9165e-06
19910.0 7.8893e-06
19930.0 7.8581e-06
19950.0 7.8204e-06
19970.0 7.7722e-06
19990.0 7.7115e-06
20010.0 7.6401e-06
20030.0 7.5529e-06
20050.0 7.4506e-06
20070.0 7.3399e-06
20090.0 7.2219e-06
20110.0 7.0912e-06
20130.0 6.9609e-06
20150.0 6.8338e-06
20170.0 6.7044e-06
20190.0 6.5753e-06
20210.0 6.4541e-06
20230.0 6.3364e-06
20250.0 6.2187e-06
20270.0 6.1081e-06
20290.0 6.005e-06
20310.0 5.9044e-06
20330.0 5.8067e-06
20350.0 5.7204e-06
20370.0 5.6385e-06
20390.0 5.5603e-06
20410.0 5.4893e-06
20430.0 5.426e-06
20450.0 5.3656e-06
20470.0 5.3115e-06
20490.0 5.2649e-06
20510.0 5.2239e-06
20530.0 5.1876e-06
20550.0 5.158e-06
20570.0 5.1343e-06
20590.0 5.1153e-06
20610.0 5.1013e-06
20630.0 5.0921e-06
20650.0 5.087e-06
20670.0 5.0861e-06
20690.0 5.0884e-06
20710.0 5.0932e-06
20730.0 5.1008e-06
20750.0 5.1102e-06
20770.0 5.1201e-06
20790.0 5.131e-06
20810.0 5.1425e-06
20830.0 5.1532e-06
20850.0 5.1627e-06
20870.0 5.1716e-06
20890.0 5.1785e-06
20910.0 5.1826e-06
20930.0 5.1844e-06
20950.0 5.1834e-06
20970.0 5.1792e-06
20990.0 5.1717e-06
21010.0 5.1608e-06
21030.0 5.1463e-06
21050.0 5.1287e-06
21070.0 5.1077e-06
21090.0 5.0829e-06
21110.0 5.0561e-06
21130.0 5.0271e-06
21150.0 4.995e-06
21170.0 4.9612e-06
21190.0 4.927e-06
21210.0 4.8908e-06
21230.0 4.8531e-06
21250.0 4.8165e-06
21270.0 4.7801e-06
21290.0 4.7432e-06
21310.0 4.7074e-06
21330.0 4.674e-06
21350.0 4.6411e-06
21370.0 4.6095e-06
21390.0 4.5808e-06
21410.0 4.5543e-06
21430.0 4.5292e-06
21450.0 4.5074e-06
21470.0 4.4889e-06
21490.0 4.4729e-06
21510.0 4.46e-06
21530.0 4.4506e-06
21550.0 4.4443e-06
21570.0 4.4414e-06
21590.0 4.442e-06
21610.0 4.4456e-06
21630.0 4.4529e-06
21650.0 4.464e-06
21670.0 4.477e-06
21690.0 4.4931e-06
21710.0 4.5126e-06
21730.0 4.5339e-06
21750.0 4.5563e-06
21770.0 4.5821e-06
21790.0 4.6091e-06
21810.0 4.6359e-06
21830.0 4.6634e-06
21850.0 4.6922e-06
21870.0 4.7198e-06
21890.0 4.7456e-06
21910.0 4.7717e-06
21930.0 4.7964e-06
21950.0 4.8184e-06
21970.0 4.8389e-06
21990.0 4.8583e-06
22010.0 4.874e-06
22030.0 4.8871e-06
22050.0 4.898e-06
22070.0 4.906e-06
22090.0 4.9106e-06
22110.0 4.9127e-06
22130.0 4.9119e-06
22150.0 4.9079e-06
22170.0 4.901e-06
22190.0 4.8909e-06
22210.0 4.8776e-06
22230.0 4.8618e-06
22250.0 4.8429e-06
22270.0 4.8205e-06
22290.0 4.796e-06
22310.0 4.7689e-06
22330.0 4.7378e-06
22350.0 4.7043e-06
22370.0 4.669e-06
22390.0 4.6305e-06
22410.0 4.5882e-06
22430.0 4.5454e-06
22450.0 4.5007e-06
22470.0 4.4523e-06
22490.0 4.4025e-06
22510.0 4.3526e-06
22530.0 4.2993e-06
22550.0 4.2438e-06
22570.0 4.1896e-06
22590.0 4.1349e-06
22610.0 4.0782e-06
22630.0 4.0223e-06
