#lamb flux
1010.0 1.8066e-08
1030.0 1.9981e-08
1050.0 2.2184e-08
1070.0 2.4664e-08
1090.0 2.748e-08
1110.0 3.0369e-08
1130.0 3.3276e-08
1150.0 3.6322e-08
1170.0 3.9464e-08
1190.0 4.2443e-08
1210.0 4.5462e-08
1230.0 4.8582e-08
1250.0 5.1638e-08
1270.0 5.4607e-08
1290.0 5.7744e-08
1310.0 6.0878e-08
1330.0 6.3884e-08
1350.0 6.6924e-08
1370.0 7.0063e-08
1390.0 7.3123e-08
1410.0 7.6092e-08
1430.0 7.9196e-08
1450.0 8.23e-08
1470.0 8.53e-08
1490.0 8.8333e-08
1510.0 9.1536e-08
1530.0 9.4572e-08
1550.0 9.7568e-08
1570.0 1.0067e-07
1590.0 1.0377e-07
1610.0 1.0674e-07
1630.0 1.0979e-07
1650.0 1.1294e-07
1670.0 1.1597e-07
1690.0 1.1898e-07
1710.0 1.221e-07
1730.0 1.2524e-07
1750.0 1.2819e-07
1770.0 1.3124e-07
1790.0 1.3435e-07
1810.0 1.3736e-07
1830.0 1.4033e-07
1850.0 1.4348e-07
1870.0 1.4656e-07
1890.0 1.4954e-07
1910.0 1.5258e-07
1930.0 1.5571e-07
1950.0 1.587e-07
1970.0 1.6166e-07
1990.0 1.6473e-07
2010.0 1.6777e-07
2030.0 1.707e-07
2050.0 1.7373e-07
2070.0 1.7684e-07
2090.0 1.7978e-07
2110.0 1.8272e-07
2130.0 1.8575e-07
2150.0 1.8874e-07
2170.0 1.916e-07
2190.0 1.9457e-07
2210.0 1.9756e-07
2230.0 2.0044e-07
2250.0 2.0331e-07
2270.0 2.0632e-07
2290.0 2.0923e-07
2310.0 2.1204e-07
2330.0 2.1495e-07
2350.0 2.1794e-07
2370.0 2.2092e-07
2390.0 2.2415e-07
2410.0 2.2798e-07
2430.0 2.3238e-07
2450.0 2.3764e-07
2470.0 2.4437e-07
2490.0 2.5287e-07
2510.0 2.6252e-07
2530.0 2.7414e-07
2550.0 2.8868e-07
2570.0 3.0678e-07
2590.0 3.3032e-07
2610.0 3.6555e-07
2630.0 4.1587e-07
2650.0 4.8165e-07
2670.0 5.6671e-07
2690.0 6.7123e-07
2710.0 7.828e-07
2730.0 8.9304e-07
2750.0 1.0016e-06
2770.0 1.0961e-06
2790.0 1.1711e-06
2810.0 1.2306e-06
2830.0 1.2771e-06
2850.0 1.3089e-06
2870.0 1.3322e-06
2890.0 1.3506e-06
2910.0 1.3653e-06
2930.0 1.3774e-06
2950.0 1.3888e-06
2970.0 1.4001e-06
2990.0 1.4106e-06
3010.0 3.9871e-05
3030.0 4.0169e-05
3050.0 4.0457e-05
3070.0 4.0704e-05
3090.0 4.0916e-05
3110.0 4.1048e-05
3130.0 4.1043e-05
3150.0 4.086e-05
3170.0 4.0423e-05
3190.0 3.9735e-05
3210.0 3.8864e-05
3230.0 3.7866e-05
3250.0 3.6882e-05
3270.0 3.6162e-05
3290.0 3.5763e-05
3310.0 3.5827e-05
3330.0 3.6346e-05
3350.0 3.7249e-05
3370.0 3.8538e-05
3390.0 4.0163e-05
3410.0 4.1931e-05
3430.0 4.3916e-05
3450.0 4.6201e-05
3470.0 4.8697e-05
3490.0 5.1342e-05
3510.0 5.4332e-05
3530.0 5.7533e-05
3550.0 6.0774e-05
3570.0 6.4155e-05
3590.0 6.7832e-05
3610.0 7.1621e-05
3630.0 7.5398e-05
3650.0 7.9317e-05
3670.0 8.2894e-05
3690.0 8.5569e-05
3710.0 8.7102e-05
3730.0 8.7152e-05
3750.0 8.5939e-05
3770.0 8.5463e-05
3790.0 8.4955e-05
3810.0 8.2867e-05
3830.0 8.5432e-05
3850.0 9.5523e-05
3870.0 0.00010106
3890.0 0.0001006
3910.0 0.00010103
3930.0 0.00010369
3950.0 0.00010533
3970.0 9.5962e-05
3990.0 8.2571e-05
4010.0 0.00024748
4030.0 0.00029986
4050.0 0.00034376
4070.0 0.00029827
4090.0 0.00027015
4110.0 0.00023838
4130.0 0.0002194
4150.0 0.00023338
4170.0 0.00022989
4190.0 0.00024504
4210.0 0.0002428
4230.0 0.00025682
4250.0 0.00030382
4270.0 0.00030739
4290.0 0.00028326
4310.0 0.00029433
4330.0 0.00031308
4350.0 0.00035104
4370.0 0.00039948
4390.0 0.00037487
4410.0 0.00027697
4430.0 0.00023447
4450.0 0.00021545
4470.0 0.00016537
4490.0 0.00017845
4510.0 0.00026955
4530.0 0.00031088
4550.0 0.00031357
4570.0 0.00035285
4590.0 0.00040193
4610.0 0.00054211
4630.0 0.00070408
4650.0 0.00076357
4670.0 0.00070714
4690.0 0.00067473
4710.0 0.00071324
4730.0 0.0006731
4750.0 0.00050323
4770.0 0.00036914
4790.0 0.0003447
4810.0 0.00032856
4830.0 0.00030079
4850.0 0.00033006
4870.0 0.00043605
4890.0 0.00051422
4910.0 0.00045117
4930.0 0.00039922
4950.0 0.0004386
4970.0 0.00056248
4990.0 0.00076229
5010.0 0.00087691
5030.0 0.00077323
5050.0 0.00052314
5070.0 0.00034477
5090.0 0.00027801
5110.0 0.00028591
5130.0 0.00032998
5150.0 0.00035751
5170.0 0.00035214
5190.0 0.00032905
5210.0 0.00034394
5230.0 0.00036156
5250.0 0.00038966
5270.0 0.00042041
5290.0 0.0004659
5310.0 0.0005423
5330.0 0.00060012
5350.0 0.0005963
5370.0 0.00062635
5390.0 0.00071875
5410.0 0.00071811
5430.0 0.00063506
5450.0 0.00058347
5470.0 0.00061955
5490.0 0.00075691
5510.0 0.00094641
5530.0 0.0010855
5550.0 0.0010491
5570.0 0.00095374
5590.0 0.00082929
5610.0 0.00076479
5630.0 0.00074161
5650.0 0.00070631
5670.0 0.00066929
5690.0 0.00059834
5710.0 0.00058339
5730.0 0.0005374
5750.0 0.00037889
5770.0 0.0002956
5790.0 0.00033498
5810.0 0.00037825
5830.0 0.00046417
5850.0 0.00055254
5870.0 0.00061305
5890.0 0.00062344
5910.0 0.00061164
5930.0 0.00058221
5950.0 0.00059326
5970.0 0.00067625
5990.0 0.00063585
6010.0 0.00053304
6030.0 0.00045034
6050.0 0.00039219
6070.0 0.00039004
6090.0 0.00042294
6110.0 0.00047291
6130.0 0.00048016
6150.0 0.00041313
6170.0 0.00036343
6190.0 0.00040899
6210.0 0.00054067
6230.0 0.00070952
6250.0 0.0007685
6270.0 0.00067157
6290.0 0.00056503
6310.0 0.0004411
6330.0 0.00033797
6350.0 0.00030146
6370.0 0.00031702
6390.0 0.00036649
6410.0 0.0004519
6430.0 0.00052769
6450.0 0.00060381
6470.0 0.00069138
6490.0 0.00083514
6510.0 0.0009338
6530.0 0.00091611
6550.0 0.00082841
6570.0 0.00070325
6590.0 0.00063414
6610.0 0.00054679
6630.0 0.00049537
6650.0 0.00046827
6670.0 0.00045491
6690.0 0.00041104
6710.0 0.00037364
6730.0 0.00026913
6750.0 0.00026681
6770.0 0.00029001
6790.0 0.00033334
6810.0 0.00030501
6830.0 0.00031408
6850.0 0.00029376
6870.0 0.00026835
6890.0 0.00025766
6910.0 0.00027457
6930.0 0.00025717
6950.0 0.00026459
6970.0 0.0002783
6990.0 0.00031589
7010.0 0.00031858
7030.0 0.00032364
7050.0 0.00030864
7070.0 0.00029408
7090.0 0.00029494
7110.0 0.00030348
7130.0 0.00032659
7150.0 0.00034686
7170.0 0.00038274
7190.0 0.00042074
7210.0 0.00041343
7230.0 0.00042501
7250.0 0.00045674
7270.0 0.00049774
7290.0 0.00059076
7310.0 0.00064104
7330.0 0.00061961
7350.0 0.0005604
7370.0 0.0004876
7390.0 0.00047303
7410.0 0.00050269
7430.0 0.00055868
7450.0 0.0006085
7470.0 0.00060291
7490.0 0.00054974
7510.0 0.00062272
7530.0 0.0006159
7550.0 0.00055358
7570.0 0.00043245
7590.0 0.0002973
7610.0 0.00025517
7630.0 0.00028992
7650.0 0.00034279
7670.0 0.00042663
7690.0 0.00046947
7710.0 0.00048925
7730.0 0.00051414
7750.0 0.00057718
7770.0 0.00058626
7790.0 0.0005385
7810.0 0.00049135
7830.0 0.0005067
7850.0 0.00049255
7870.0 0.00045159
7890.0 0.00037942
7910.0 0.00030842
7930.0 0.00029449
7950.0 0.00026829
7970.0 0.00024835
7990.0 0.00024694
8010.0 1.8289e-05
8030.0 1.8051e-05
8050.0 1.7808e-05
8070.0 1.8041e-05
8090.0 1.9384e-05
8110.0 1.9054e-05
8130.0 1.5717e-05
8150.0 1.5307e-05
8170.0 1.3185e-05
8190.0 1.2495e-05
8210.0 1.6226e-05
8230.0 1.8066e-05
8250.0 1.6283e-05
8270.0 1.4172e-05
8290.0 1.3815e-05
8310.0 1.0633e-05
8330.0 7.1663e-06
8350.0 5.0859e-06
8370.0 3.2043e-06
8390.0 5.8574e-06
8410.0 6.8255e-06
8430.0 8.4135e-06
8450.0 9.8798e-06
8470.0 1.228e-05
8490.0 1.2193e-05
8510.0 1.1994e-05
8530.0 1.2517e-05
8550.0 1.6888e-05
8570.0 1.9994e-05
8590.0 2.1573e-05
8610.0 2.7251e-05
8630.0 3.2828e-05
8650.0 3.4342e-05
8670.0 3.6495e-05
8690.0 3.6699e-05
8710.0 3.3236e-05
8730.0 3.0915e-05
8750.0 2.7288e-05
8770.0 2.5893e-05
8790.0 2.5438e-05
8810.0 2.4375e-05
8830.0 1.9492e-05
8850.0 1.4269e-05
8870.0 1.0926e-05
8890.0 1.0682e-05
8910.0 1.2241e-05
8930.0 1.3924e-05
8950.0 1.4191e-05
8970.0 1.4258e-05
8990.0 1.2716e-05
9010.0 0.00013326
9030.0 0.00012075
9050.0 0.00012133
9070.0 0.00012229
9090.0 0.00012313
9110.0 0.00012417
9130.0 0.00012497
9150.0 0.00012559
9170.0 0.00012625
9190.0 0.00012696
9210.0 0.00012771
9230.0 0.00012849
9250.0 0.00012929
9270.0 0.00013012
9290.0 0.00013098
9310.0 0.00013184
9330.0 0.00013271
9350.0 0.00013362
9370.0 0.00013454
9390.0 0.00013547
9410.0 0.00013643
9430.0 0.00013741
9450.0 0.0001384
9470.0 0.0001394
9490.0 0.00014043
9510.0 0.00014147
9530.0 0.00014252
9550.0 0.0001436
9570.0 0.00014471
9590.0 0.00014581
9610.0 0.00014694
9630.0 0.00014809
9650.0 0.00014926
9670.0 0.00015043
9690.0 0.00015163
9710.0 0.00015284
9730.0 0.00015406
9750.0 0.0001553
9770.0 0.00015658
9790.0 0.00015785
9810.0 0.00015913
9830.0 0.00016044
9850.0 0.00016176
9870.0 0.00016308
9890.0 0.00016442
9910.0 0.00016578
9930.0 0.00016715
9950.0 0.00016852
9970.0 0.00016992
9990.0 0.00017133
10010.0 0.00014867
10030.0 0.00014989
10050.0 0.00015113
10070.0 0.00015242
10090.0 0.00015364
10110.0 0.00015488
10130.0 0.00015613
10150.0 0.00015737
10170.0 0.00015863
10190.0 0.00015992
10210.0 0.00016118
10230.0 0.00016245
10250.0 0.00016373
10270.0 0.00016501
10290.0 0.00016628
10310.0 0.00016756
10330.0 0.00016886
10350.0 0.00017013
10370.0 0.0001714
10390.0 0.00017268
10410.0 0.00017396
10430.0 0.00017521
10450.0 0.00017648
10470.0 0.00017775
10490.0 0.00017899
10510.0 0.00018023
10530.0 0.00018149
10550.0 0.00018273
10570.0 0.00018394
10590.0 0.00018516
10610.0 0.00018638
10630.0 0.00018756
10650.0 0.00018874
10670.0 0.00018993
10690.0 0.0001911
10710.0 0.00019224
10730.0 0.00019338
10750.0 0.00019453
10770.0 0.00019563
10790.0 0.00019672
10810.0 0.00019781
10830.0 0.00019886
10850.0 0.00019987
10870.0 0.00020084
10890.0 0.00020169
10910.0 0.00020235
10930.0 0.00020272
10950.0 0.00020263
10970.0 0.00020195
10990.0 0.0002006
11010.0 0.00019835
11030.0 0.00019519
11050.0 0.00019135
11070.0 0.00018675
11090.0 0.00018122
11110.0 0.00017551
11130.0 0.00016955
11150.0 0.00016313
11170.0 0.00015651
11190.0 0.00015009
11210.0 0.00014346
11230.0 0.00013667
11250.0 0.00013017
11270.0 0.00012394
11290.0 0.00011769
11310.0 0.00011177
11330.0 0.00010656
11350.0 0.00010163
11370.0 9.7083e-05
11390.0 9.3147e-05
11410.0 8.9703e-05
11430.0 8.6503e-05
11450.0 8.3746e-05
11470.0 8.1361e-05
11490.0 7.9143e-05
11510.0 7.7005e-05
11530.0 7.5022e-05
11550.0 7.3051e-05
11570.0 7.0949e-05
11590.0 6.8772e-05
11610.0 6.6556e-05
11630.0 6.4144e-05
11650.0 6.1562e-05
11670.0 5.9017e-05
11690.0 5.6436e-05
11710.0 5.3774e-05
11730.0 5.1194e-05
11750.0 4.8807e-05
11770.0 4.6466e-05
11790.0 4.4271e-05
11810.0 4.234e-05
11830.0 4.0612e-05
11850.0 3.9021e-05
11870.0 3.769e-05
11890.0 3.6583e-05
11910.0 3.5611e-05
11930.0 3.4775e-05
11950.0 3.4079e-05
11970.0 3.3458e-05
11990.0 3.287e-05
12010.0 3.2326e-05
12030.0 3.1802e-05
12050.0 3.1261e-05
12070.0 3.0697e-05
12090.0 3.0154e-05
12110.0 2.9603e-05
12130.0 2.905e-05
12150.0 2.8541e-05
12170.0 2.8096e-05
12190.0 2.7712e-05
12210.0 2.7443e-05
12230.0 2.7314e-05
12250.0 2.7335e-05
12270.0 2.7541e-05
12290.0 2.793e-05
12310.0 2.8489e-05
12330.0 2.9271e-05
12350.0 3.0247e-05
12370.0 3.1358e-05
12390.0 3.2639e-05
12410.0 3.414e-05
12430.0 3.5666e-05
12450.0 3.7246e-05
12470.0 3.8926e-05
12490.0 4.0613e-05
12510.0 4.2196e-05
12530.0 4.3771e-05
12550.0 4.529e-05
12570.0 4.6631e-05
12590.0 4.7809e-05
12610.0 4.8858e-05
12630.0 4.9694e-05
12650.0 5.0271e-05
12670.0 5.0651e-05
12690.0 5.0803e-05
12710.0 5.0719e-05
12730.0 5.0425e-05
12750.0 4.99e-05
12770.0 4.918e-05
12790.0 4.8307e-05
12810.0 4.7265e-05
12830.0 4.6059e-05
12850.0 4.4798e-05
12870.0 4.3464e-05
12890.0 4.2022e-05
12910.0 4.0555e-05
12930.0 3.9109e-05
12950.0 3.7601e-05
12970.0 3.6065e-05
12990.0 3.4612e-05
13010.0 3.3178e-05
13030.0 3.1727e-05
13050.0 3.0334e-05
13070.0 2.9028e-05
13090.0 2.7719e-05
13110.0 2.6451e-05
13130.0 2.5283e-05
13150.0 2.4176e-05
13170.0 2.3093e-05
13190.0 2.2129e-05
13210.0 2.1281e-05
13230.0 2.0505e-05
13250.0 1.9837e-05
13270.0 1.9311e-05
13290.0 1.8901e-05
13310.0 1.8619e-05
13330.0 1.849e-05
13350.0 1.8505e-05
13370.0 1.8671e-05
13390.0 1.8997e-05
13410.0 1.9438e-05
13430.0 2.001e-05
13450.0 2.0718e-05
13470.0 2.1503e-05
13490.0 2.2335e-05
13510.0 2.3274e-05
13530.0 2.4225e-05
13550.0 2.5135e-05
13570.0 2.6033e-05
13590.0 2.6908e-05
13610.0 2.7686e-05
13630.0 2.8365e-05
13650.0 2.8985e-05
13670.0 2.95e-05
13690.0 2.9899e-05
13710.0 3.0207e-05
13730.0 3.0427e-05
13750.0 3.0536e-05
13770.0 3.0562e-05
13790.0 3.0506e-05
13810.0 3.0371e-05
13830.0 3.0172e-05
13850.0 2.9903e-05
13870.0 2.9563e-05
13890.0 2.9174e-05
13910.0 2.8736e-05
13930.0 2.8228e-05
13950.0 2.7675e-05
13970.0 2.7108e-05
13990.0 2.6492e-05
14010.0 2.5836e-05
14030.0 2.5182e-05
14050.0 2.4523e-05
14070.0 2.3827e-05
14090.0 2.316e-05
14110.0 2.2533e-05
14130.0 2.1926e-05
14150.0 2.1354e-05
14170.0 2.0866e-05
14190.0 2.0444e-05
14210.0 2.0086e-05
14230.0 1.9821e-05
14250.0 1.965e-05
14270.0 1.9567e-05
14290.0 1.9585e-05
14310.0 1.9694e-05
14330.0 1.989e-05
14350.0 2.0178e-05
14370.0 2.0538e-05
14390.0 2.0946e-05
14410.0 2.1427e-05
14430.0 2.1954e-05
14450.0 2.2494e-05
14470.0 2.3053e-05
14490.0 2.3648e-05
14510.0 2.4217e-05
14530.0 2.4757e-05
14550.0 2.5297e-05
14570.0 2.5815e-05
14590.0 2.6287e-05
14610.0 2.6744e-05
14630.0 2.7195e-05
14650.0 2.7616e-05
14670.0 2.8022e-05
14690.0 2.8446e-05
14710.0 2.8891e-05
14730.0 2.9336e-05
14750.0 2.983e-05
14770.0 3.039e-05
14790.0 3.0996e-05
14810.0 3.1654e-05
14830.0 3.2433e-05
14850.0 3.3279e-05
14870.0 3.4163e-05
14890.0 3.5116e-05
14910.0 3.6128e-05
14930.0 3.7101e-05
14950.0 3.801e-05
14970.0 3.8871e-05
14990.0 3.9593e-05
15010.0 4.0145e-05
15030.0 4.0554e-05
15050.0 4.0824e-05
15070.0 4.0956e-05
15090.0 4.1003e-05
15110.0 4.0989e-05
15130.0 4.0938e-05
15150.0 4.0868e-05
15170.0 4.0787e-05
15190.0 4.0699e-05
15210.0 4.0612e-05
15230.0 4.0526e-05
15250.0 4.0436e-05
15270.0 4.0348e-05
15290.0 4.0264e-05
15310.0 4.0178e-05
15330.0 4.0091e-05
15350.0 4.0008e-05
15370.0 3.9925e-05
15390.0 3.9838e-05
15410.0 3.9753e-05
15430.0 3.9672e-05
15450.0 3.9588e-05
15470.0 3.9503e-05
15490.0 3.9423e-05
15510.0 3.9343e-05
15530.0 3.9259e-05
15550.0 3.9178e-05
15570.0 3.91e-05
15590.0 3.9018e-05
15610.0 3.8935e-05
15630.0 3.8857e-05
15650.0 3.8778e-05
15670.0 3.8697e-05
15690.0 3.8618e-05
15710.0 3.8541e-05
15730.0 3.8462e-05
15750.0 3.8382e-05
15770.0 3.8305e-05
15790.0 3.8228e-05
15810.0 3.8147e-05
15830.0 3.8069e-05
15850.0 3.7994e-05
15870.0 3.7916e-05
15890.0 3.7837e-05
15910.0 3.7762e-05
15930.0 3.7686e-05
15950.0 3.7606e-05
15970.0 3.753e-05
15990.0 3.7455e-05
16010.0 3.7377e-05
16030.0 3.7298e-05
16050.0 3.7225e-05
16070.0 3.7149e-05
16090.0 3.7071e-05
16110.0 3.6996e-05
16130.0 3.6922e-05
16150.0 3.6843e-05
16170.0 3.6765e-05
16190.0 3.6691e-05
16210.0 3.6615e-05
16230.0 3.6537e-05
16250.0 3.6462e-05
16270.0 3.6388e-05
16290.0 3.631e-05
16310.0 3.6233e-05
16330.0 3.6158e-05
16350.0 3.6082e-05
16370.0 3.6002e-05
16390.0 3.5927e-05
16410.0 3.5852e-05
16430.0 3.5774e-05
16450.0 3.5697e-05
16470.0 3.5623e-05
16490.0 3.5545e-05
16510.0 3.5466e-05
16530.0 3.539e-05
16550.0 3.5314e-05
16570.0 3.5234e-05
16590.0 3.5156e-05
16610.0 3.5081e-05
16630.0 3.5003e-05
16650.0 3.4924e-05
16670.0 3.4847e-05
16690.0 3.4771e-05
16710.0 3.4689e-05
16730.0 3.4611e-05
16750.0 3.4534e-05
16770.0 3.4455e-05
16790.0 3.4373e-05
16810.0 3.4296e-05
16830.0 3.4218e-05
16850.0 3.4137e-05
16870.0 3.4058e-05
16890.0 3.398e-05
16910.0 3.3899e-05
16930.0 3.3816e-05
16950.0 3.3737e-05
16970.0 3.3658e-05
16990.0 3.3575e-05
17010.0 3.3494e-05
17030.0 3.3416e-05
17050.0 3.3333e-05
17070.0 3.325e-05
17090.0 3.317e-05
17110.0 3.3088e-05
17130.0 3.3003e-05
17150.0 3.2921e-05
17170.0 3.2841e-05
17190.0 3.2757e-05
17210.0 3.2673e-05
17230.0 3.2592e-05
17250.0 3.2509e-05
17270.0 3.2422e-05
17290.0 3.2339e-05
17310.0 3.2256e-05
17330.0 3.2171e-05
17350.0 3.2084e-05
17370.0 3.2002e-05
17390.0 3.1918e-05
17410.0 3.1831e-05
17430.0 3.1746e-05
17450.0 3.1663e-05
17470.0 3.1574e-05
17490.0 3.1487e-05
17510.0 3.1403e-05
17530.0 3.1316e-05
17550.0 3.1227e-05
17570.0 3.1142e-05
17590.0 3.1057e-05
17610.0 3.0968e-05
17630.0 3.088e-05
17650.0 3.0794e-05
17670.0 3.0706e-05
17690.0 3.0614e-05
17710.0 3.0528e-05
17730.0 3.0441e-05
17750.0 3.035e-05
17770.0 3.0261e-05
17790.0 3.0175e-05
17810.0 3.0085e-05
17830.0 2.9993e-05
17850.0 2.9905e-05
17870.0 2.9817e-05
17890.0 2.9724e-05
17910.0 2.9633e-05
17930.0 2.9546e-05
17950.0 2.9455e-05
17970.0 2.9363e-05
17990.0 2.9274e-05
18010.0 2.9184e-05
18030.0 2.909e-05
18050.0 2.8998e-05
18070.0 2.8909e-05
18090.0 2.8816e-05
18110.0 2.8723e-05
18130.0 2.8633e-05
18150.0 2.8542e-05
18170.0 2.8448e-05
18190.0 2.8356e-05
18210.0 2.8266e-05
18230.0 2.8172e-05
18250.0 2.8076e-05
18270.0 2.7986e-05
18290.0 2.7894e-05
18310.0 2.7799e-05
18330.0 2.7706e-05
18350.0 2.7615e-05
18370.0 2.752e-05
18390.0 2.7425e-05
18410.0 2.7334e-05
18430.0 2.724e-05
18450.0 2.7143e-05
18470.0 2.705e-05
18490.0 2.6958e-05
18510.0 2.6863e-05
18530.0 2.6768e-05
18550.0 2.6676e-05
18570.0 2.6582e-05
18590.0 2.6485e-05
18610.0 2.6391e-05
18630.0 2.6298e-05
18650.0 2.6202e-05
18670.0 2.6105e-05
18690.0 2.6014e-05
18710.0 2.5919e-05
18730.0 2.5822e-05
18750.0 2.5728e-05
18770.0 2.5636e-05
18790.0 2.5537e-05
18810.0 2.5441e-05
18830.0 2.5348e-05
18850.0 2.5253e-05
18870.0 2.5156e-05
18890.0 2.5062e-05
18910.0 2.4969e-05
18930.0 2.4871e-05
18950.0 2.4776e-05
18970.0 2.4682e-05
18990.0 2.4587e-05
19010.0 2.4487e-05
19030.0 2.4394e-05
19050.0 2.43e-05
19070.0 2.4203e-05
19090.0 2.4107e-05
19110.0 2.4015e-05
19130.0 2.3918e-05
19150.0 2.3821e-05
19170.0 2.3726e-05
19190.0 2.3632e-05
19210.0 2.3534e-05
19230.0 2.3438e-05
19250.0 2.3345e-05
19270.0 2.3249e-05
19290.0 2.3152e-05
19310.0 2.3059e-05
19330.0 2.2965e-05
19350.0 2.2866e-05
19370.0 2.2771e-05
19390.0 2.2677e-05
19410.0 2.2581e-05
19430.0 2.2484e-05
19450.0 2.2391e-05
19470.0 2.2296e-05
19490.0 2.2199e-05
19510.0 2.2104e-05
19530.0 2.2011e-05
19550.0 2.1914e-05
19570.0 2.1817e-05
19590.0 2.1724e-05
19610.0 2.1629e-05
19630.0 2.1533e-05
19650.0 2.1438e-05
19670.0 2.1346e-05
19690.0 2.1249e-05
19710.0 2.1153e-05
19730.0 2.106e-05
19750.0 2.0966e-05
19770.0 2.0868e-05
19790.0 2.0774e-05
19810.0 2.0682e-05
19830.0 2.0585e-05
19850.0 2.0489e-05
19870.0 2.0394e-05
19890.0 2.0292e-05
19910.0 2.018e-05
19930.0 2.006e-05
19950.0 1.9923e-05
19970.0 1.9755e-05
19990.0 1.9552e-05
20010.0 1.7395e-05
20030.0 1.7143e-05
20050.0 1.6849e-05
20070.0 1.6529e-05
20090.0 1.6186e-05
20110.0 1.5797e-05
20130.0 1.5404e-05
20150.0 1.5014e-05
20170.0 1.461e-05
20190.0 1.4201e-05
20210.0 1.3813e-05
20230.0 1.3436e-05
20250.0 1.3057e-05
20270.0 1.2706e-05
20290.0 1.2386e-05
20310.0 1.2081e-05
20330.0 1.1796e-05
20350.0 1.156e-05
20370.0 1.135e-05
20390.0 1.1166e-05
20410.0 1.1018e-05
20430.0 1.0903e-05
20450.0 1.0812e-05
20470.0 1.0751e-05
20490.0 1.0719e-05
20510.0 1.0709e-05
20530.0 1.0723e-05
20550.0 1.0756e-05
20570.0 1.0804e-05
20590.0 1.0869e-05
20610.0 1.0948e-05
20630.0 1.1035e-05
20650.0 1.1132e-05
20670.0 1.1244e-05
20690.0 1.1357e-05
20710.0 1.1474e-05
20730.0 1.1601e-05
20750.0 1.1733e-05
20770.0 1.1862e-05
20790.0 1.1999e-05
20810.0 1.2143e-05
20830.0 1.2286e-05
20850.0 1.2431e-05
20870.0 1.2585e-05
20890.0 1.2742e-05
20910.0 1.2894e-05
20930.0 1.3052e-05
20950.0 1.3215e-05
20970.0 1.3374e-05
20990.0 1.3531e-05
21010.0 1.3696e-05
21030.0 1.3857e-05
21050.0 1.4011e-05
21070.0 1.4165e-05
21090.0 1.4319e-05
21110.0 1.446e-05
21130.0 1.4592e-05
21150.0 1.472e-05
21170.0 1.4836e-05
21190.0 1.4936e-05
21210.0 1.5026e-05
21230.0 1.51e-05
21250.0 1.5153e-05
21270.0 1.5187e-05
21290.0 1.52e-05
21310.0 1.5188e-05
21330.0 1.5152e-05
21350.0 1.5089e-05
21370.0 1.4997e-05
21390.0 1.4879e-05
21410.0 1.4735e-05
21430.0 1.4553e-05
21450.0 1.4349e-05
21470.0 1.4126e-05
21490.0 1.3874e-05
21510.0 1.3598e-05
21530.0 1.3318e-05
21550.0 1.3024e-05
21570.0 1.271e-05
21590.0 1.2402e-05
21610.0 1.2104e-05
21630.0 1.1806e-05
21650.0 1.1514e-05
21670.0 1.1261e-05
21690.0 1.1029e-05
21710.0 1.0819e-05
21730.0 1.0647e-05
21750.0 1.0514e-05
21770.0 1.0413e-05
21790.0 1.0355e-05
21810.0 1.0339e-05
21830.0 1.0362e-05
21850.0 1.0427e-05
21870.0 1.0528e-05
21890.0 1.0658e-05
21910.0 1.0826e-05
21930.0 1.1022e-05
21950.0 1.1235e-05
21970.0 1.147e-05
21990.0 1.1735e-05
22010.0 1.1999e-05
22030.0 1.2267e-05
22050.0 1.2549e-05
22070.0 1.2833e-05
22090.0 1.3101e-05
22110.0 1.3371e-05
22130.0 1.3642e-05
22150.0 1.3894e-05
22170.0 1.4132e-05
22190.0 1.4367e-05
22210.0 1.4587e-05
22230.0 1.478e-05
22250.0 1.4961e-05
22270.0 1.5129e-05
22290.0 1.5272e-05
22310.0 1.5394e-05
22330.0 1.5503e-05
22350.0 1.5586e-05
22370.0 1.5645e-05
22390.0 1.5682e-05
22410.0 1.5694e-05
22430.0 1.5679e-05
22450.0 1.5638e-05
22470.0 1.5568e-05
22490.0 1.547e-05
22510.0 1.5348e-05
22530.0 1.5192e-05
22550.0 1.5002e-05
22570.0 1.4791e-05
22590.0 1.4553e-05
