#lamb flux
1010.0 3.5352e-07
1030.0 3.8695e-07
1050.0 4.2157e-07
1070.0 4.6055e-07
1090.0 5.0593e-07
1110.0 5.5228e-07
1130.0 5.9879e-07
1150.0 6.4748e-07
1170.0 6.9778e-07
1190.0 7.4577e-07
1210.0 7.9483e-07
1230.0 8.4611e-07
1250.0 8.969e-07
1270.0 9.4717e-07
1290.0 1.0012e-06
1310.0 1.0562e-06
1330.0 1.1102e-06
1350.0 1.1657e-06
1370.0 1.2236e-06
1390.0 1.281e-06
1410.0 1.3372e-06
1430.0 1.3958e-06
1450.0 1.4545e-06
1470.0 1.5111e-06
1490.0 1.5677e-06
1510.0 1.6265e-06
1530.0 1.6815e-06
1550.0 1.7347e-06
1570.0 1.7883e-06
1590.0 1.8406e-06
1610.0 1.8889e-06
1630.0 1.9367e-06
1650.0 1.9842e-06
1670.0 2.0281e-06
1690.0 2.0696e-06
1710.0 2.1113e-06
1730.0 2.1516e-06
1750.0 2.1874e-06
1770.0 2.2232e-06
1790.0 2.259e-06
1810.0 2.2923e-06
1830.0 2.3244e-06
1850.0 2.3592e-06
1870.0 2.393e-06
1890.0 2.4258e-06
1910.0 2.4606e-06
1930.0 2.4979e-06
1950.0 2.5346e-06
1970.0 2.5728e-06
1990.0 2.6147e-06
2010.0 2.6581e-06
2030.0 2.702e-06
2050.0 2.7494e-06
2070.0 2.8e-06
2090.0 2.8494e-06
2110.0 2.9002e-06
2130.0 2.9532e-06
2150.0 3.0059e-06
2170.0 3.0568e-06
2190.0 3.1089e-06
2210.0 3.1606e-06
2230.0 3.2092e-06
2250.0 3.2561e-06
2270.0 3.303e-06
2290.0 3.3463e-06
2310.0 3.3853e-06
2330.0 3.4231e-06
2350.0 3.4586e-06
2370.0 3.4893e-06
2390.0 3.5177e-06
2410.0 3.5455e-06
2430.0 3.5691e-06
2450.0 3.589e-06
2470.0 3.6077e-06
2490.0 3.6253e-06
2510.0 3.6409e-06
2530.0 3.664e-06
2550.0 3.7087e-06
2570.0 3.7905e-06
2590.0 3.9292e-06
2610.0 4.1725e-06
2630.0 4.5361e-06
2650.0 5.0027e-06
2670.0 5.5795e-06
2690.0 6.244e-06
2710.0 6.8949e-06
2730.0 7.4709e-06
2750.0 7.9539e-06
2770.0 8.2596e-06
2790.0 8.3635e-06
2810.0 8.2796e-06
2830.0 8.0038e-06
2850.0 7.5916e-06
2870.0 7.0807e-06
2890.0 6.4796e-06
2910.0 5.83e-06
2930.0 5.177e-06
2950.0 4.4849e-06
2970.0 3.7663e-06
2990.0 3.0598e-06
3010.0 3.7185e-06
3030.0 2.5501e-06
3050.0 1.3755e-06
3070.0 4.1127e-07
3090.0 4.1127e-07
3110.0 4.1127e-07
3130.0 4.1127e-07
3150.0 4.1127e-07
3170.0 4.1127e-07
3190.0 4.1127e-07
3210.0 1.2984e-05
3230.0 3.6116e-05
3250.0 4.9135e-05
3270.0 4.3117e-05
3290.0 3.2681e-05
3310.0 2.5889e-05
3330.0 2.415e-05
3350.0 2.5331e-05
3370.0 2.7404e-05
3390.0 2.9571e-05
3410.0 3.1842e-05
3430.0 3.4617e-05
3450.0 3.727e-05
3470.0 4.0025e-05
3490.0 4.0537e-05
3510.0 3.5356e-05
3530.0 3.3103e-05
3550.0 4.2333e-05
3570.0 5.3908e-05
3590.0 5.9997e-05
3610.0 6.2113e-05
3630.0 6.5845e-05
3650.0 6.5904e-05
3670.0 6.8672e-05
3690.0 8.0764e-05
3710.0 9.3876e-05
3730.0 0.00010249
3750.0 0.00010781
3770.0 0.00010952
3790.0 0.00010621
3810.0 9.8472e-05
3830.0 8.6202e-05
3850.0 6.7823e-05
3870.0 6.0302e-05
3890.0 6.7928e-05
3910.0 8.9983e-05
3930.0 0.00011248
3950.0 0.00012297
3970.0 0.00012728
3990.0 0.00013726
4010.0 0.00014193
4030.0 0.00012832
4050.0 9.6737e-05
4070.0 8.1844e-05
4090.0 9.1657e-05
4110.0 0.00010175
4130.0 0.00010867
4150.0 0.00010874
4170.0 0.00010455
4190.0 9.9866e-05
4210.0 0.00010633
4230.0 0.0001142
4250.0 0.00012103
4270.0 0.00012135
4290.0 0.00011754
4310.0 0.00011811
4330.0 0.00012983
4350.0 0.00014292
4370.0 0.00014479
4390.0 0.00013501
4410.0 0.00012002
4430.0 9.7277e-05
4450.0 8.0359e-05
4470.0 7.9993e-05
4490.0 8.8775e-05
4510.0 9.6745e-05
4530.0 0.00010171
4550.0 0.00010971
4570.0 0.00014264
4590.0 0.00019601
4610.0 0.00023292
4630.0 0.00024742
4650.0 0.00026905
4670.0 0.0002996
4690.0 0.00030497
4710.0 0.0002642
4730.0 0.00020731
4750.0 0.00016272
4770.0 0.00013687
4790.0 0.00012474
4810.0 0.0001212
4830.0 0.00013171
4850.0 0.00015526
4870.0 0.00017339
4890.0 0.00017786
4910.0 0.00017872
4930.0 0.0001975
4950.0 0.00022761
4970.0 0.00024711
4990.0 0.0002453
5010.0 0.00022096
5030.0 0.0001829
5050.0 0.0001483
5070.0 0.00012666
5090.0 0.00011848
5110.0 0.0001186
5130.0 0.00012016
5150.0 0.00011864
5170.0 0.00011292
5190.0 0.00011026
5210.0 0.00011592
5230.0 0.0001327
5250.0 0.00016035
5270.0 0.0001899
5290.0 0.00021045
5310.0 0.00022777
5330.0 0.00025268
5350.0 0.00027479
5370.0 0.00027598
5390.0 0.00025784
5410.0 0.00024147
5430.0 0.0002481
5450.0 0.00028598
5470.0 0.00033696
5490.0 0.00037678
5510.0 0.00039418
5530.0 0.00039342
5550.0 0.00038321
5570.0 0.00037119
5590.0 0.00035965
5610.0 0.00035329
5630.0 0.00035524
5650.0 0.00035663
5670.0 0.00034143
5690.0 0.00030981
5710.0 0.0002774
5730.0 0.00025705
5750.0 0.00025273
5770.0 0.00026264
5790.0 0.00027361
5810.0 0.00028085
5830.0 0.00028487
5850.0 0.00028063
5870.0 0.00027384
5890.0 0.00027564
5910.0 0.00028623
5930.0 0.00029057
5950.0 0.00027605
5970.0 0.0002458
5990.0 0.00020725
6010.0 0.00017639
6030.0 0.00016795
6050.0 0.00018035
6070.0 0.00018949
6090.0 0.00017942
6110.0 0.00016466
6130.0 0.00016929
6150.0 0.00018933
6170.0 0.00020779
6190.0 0.00021904
6210.0 0.00022303
6230.0 0.00021892
6250.0 0.00019908
6270.0 0.00016787
6290.0 0.00014176
6310.0 0.00013094
6330.0 0.00013241
6350.0 0.00013694
6370.0 0.00014433
6390.0 0.00016525
6410.0 0.00019913
6430.0 0.0002292
6450.0 0.00024438
6470.0 0.00025111
6490.0 0.00025492
6510.0 0.00025717
6530.0 0.00025939
6550.0 0.00026228
6570.0 0.00026888
6590.0 0.00027479
6610.0 0.00027406
6630.0 0.00026246
6650.0 0.00024271
6670.0 0.00022362
6690.0 0.00021077
6710.0 0.00020176
6730.0 0.00019337
6750.0 0.00019015
6770.0 0.0001952
6790.0 0.00020247
6810.0 0.0002058
6830.0 0.0002026
6850.0 0.00019285
6870.0 0.00018264
6890.0 0.00017813
6910.0 0.00017805
6930.0 0.00018239
6950.0 0.00018712
6970.0 0.00019075
6990.0 0.00019147
7010.0 0.00018523
7030.0 0.00017124
7050.0 0.00015354
7070.0 0.00014152
7090.0 0.00013903
7110.0 0.00014025
7130.0 0.00013374
7150.0 0.00012088
7170.0 0.00011801
7190.0 0.00013044
7210.0 0.00014948
7230.0 0.00016581
7250.0 0.00017183
7270.0 0.00016789
7290.0 0.00015769
7310.0 0.00014922
7330.0 0.0001478
7350.0 0.00015035
7370.0 0.00015294
7390.0 0.00016031
7410.0 0.00017608
7430.0 0.00019595
7450.0 0.00021251
7470.0 0.00021819
7490.0 0.00020817
7510.0 0.00019177
7530.0 0.00017873
7550.0 0.00016649
7570.0 0.0001536
7590.0 0.00014655
7610.0 0.00014618
7630.0 0.00015182
7650.0 0.00016271
7670.0 0.00017608
7690.0 0.00018744
7710.0 0.00019578
7730.0 0.00020275
7750.0 0.00020805
7770.0 0.00020811
7790.0 0.00020923
7810.0 0.00020837
7830.0 0.00020112
7850.0 0.00019282
7870.0 0.00018779
7890.0 0.00018801
7910.0 0.00018674
7930.0 0.00018141
7950.0 0.00017336
7970.0 0.00016608
7990.0 0.00015916
8010.0 0.0001527
8030.0 0.0001524
8050.0 0.00015154
8070.0 0.00014868
8090.0 0.00014648
8110.0 0.00014268
8130.0 0.00014198
8150.0 0.00014003
8170.0 0.0001365
8190.0 0.00013214
8210.0 0.00012817
8230.0 0.00012402
8250.0 0.00012209
8270.0 0.00011347
8290.0 9.6222e-05
8310.0 7.7057e-05
8330.0 6.398e-05
8350.0 6.0796e-05
8370.0 6.8705e-05
8390.0 7.9583e-05
8410.0 8.4575e-05
8430.0 8.6709e-05
8450.0 9.1827e-05
8470.0 9.8788e-05
8490.0 0.00010907
8510.0 0.00012145
8530.0 0.00013466
8550.0 0.0001452
8570.0 0.00015289
8590.0 0.00015841
8610.0 0.00016095
8630.0 0.00015956
8650.0 0.00015631
8670.0 0.0001558
8690.0 0.00016346
8710.0 0.00017407
8730.0 0.00017923
8750.0 0.00017752
8770.0 0.00017899
8790.0 0.00017825
8810.0 0.00016884
8830.0 0.0001564
8850.0 0.00014093
8870.0 0.00012893
8890.0 0.00012503
8910.0 0.00012311
8930.0 0.00011508
8950.0 0.00010606
8970.0 0.00010207
8990.0 0.00010168
9010.0 9.9028e-05
9030.0 9.7078e-05
9050.0 9.617e-05
9070.0 9.5715e-05
9090.0 9.5322e-05
9110.0 9.4941e-05
9130.0 9.4562e-05
9150.0 9.4191e-05
9170.0 9.3803e-05
9190.0 9.3504e-05
9210.0 9.3386e-05
9230.0 9.2918e-05
9250.0 9.2505e-05
9270.0 9.2126e-05
9290.0 9.1771e-05
9310.0 9.1425e-05
9330.0 9.1089e-05
9350.0 9.0773e-05
9370.0 9.0459e-05
9390.0 9.0143e-05
9410.0 8.9837e-05
9430.0 8.9518e-05
9450.0 8.9073e-05
9470.0 8.8676e-05
9490.0 8.8518e-05
9510.0 8.8294e-05
9530.0 8.8056e-05
9550.0 8.7801e-05
9570.0 8.7539e-05
9590.0 8.7277e-05
9610.0 8.7015e-05
9630.0 8.675e-05
9650.0 8.6488e-05
9670.0 8.6234e-05
9690.0 8.5976e-05
9710.0 8.572e-05
9730.0 8.547e-05
9750.0 8.5221e-05
9770.0 8.4967e-05
9790.0 8.4719e-05
9810.0 8.4474e-05
9830.0 8.4226e-05
9850.0 8.3977e-05
9870.0 8.3735e-05
9890.0 8.3491e-05
9910.0 8.3242e-05
9930.0 8.299e-05
9950.0 8.2344e-05
9970.0 8.2211e-05
9990.0 8.2053e-05
10010.0 8.1891e-05
10030.0 8.1689e-05
10050.0 8.1454e-05
10070.0 8.1218e-05
10090.0 8.0983e-05
10110.0 8.0701e-05
10130.0 8.0374e-05
10150.0 8.0126e-05
10170.0 7.9874e-05
10190.0 7.9589e-05
10210.0 7.9324e-05
10230.0 7.9059e-05
10250.0 7.8761e-05
10270.0 7.8461e-05
10290.0 7.818e-05
10310.0 7.7869e-05
10330.0 7.7532e-05
10350.0 7.7221e-05
10370.0 7.6907e-05
10390.0 7.656e-05
10410.0 7.6212e-05
10430.0 7.5889e-05
10450.0 7.5533e-05
10470.0 7.5156e-05
10490.0 7.4796e-05
10510.0 7.4433e-05
10530.0 7.4019e-05
10550.0 7.3617e-05
10570.0 7.3233e-05
10590.0 7.2818e-05
10610.0 7.2381e-05
10630.0 7.1966e-05
10650.0 7.1539e-05
10670.0 7.1067e-05
10690.0 7.0605e-05
10710.0 7.0152e-05
10730.0 6.9665e-05
10750.0 6.9146e-05
10770.0 6.8666e-05
10790.0 6.8166e-05
10810.0 6.763e-05
10830.0 6.7098e-05
10850.0 6.6583e-05
10870.0 6.6008e-05
10890.0 6.5424e-05
10910.0 6.4859e-05
10930.0 6.4272e-05
10950.0 6.3641e-05
10970.0 6.3013e-05
10990.0 6.24e-05
11010.0 6.7534e-05
11030.0 6.6842e-05
11050.0 6.6174e-05
11070.0 6.549e-05
11090.0 6.4755e-05
11110.0 6.4069e-05
11130.0 6.3399e-05
11150.0 6.2702e-05
11170.0 6.2006e-05
11190.0 6.1352e-05
11210.0 6.068e-05
11230.0 5.9991e-05
11250.0 5.9333e-05
11270.0 5.8693e-05
11290.0 5.803e-05
11310.0 5.7375e-05
11330.0 5.6767e-05
11350.0 5.6147e-05
11370.0 5.5513e-05
11390.0 5.4898e-05
11410.0 5.4284e-05
11430.0 5.3616e-05
11450.0 5.2938e-05
11470.0 5.2253e-05
11490.0 5.1518e-05
11510.0 5.0718e-05
11530.0 4.9912e-05
11550.0 4.9072e-05
11570.0 4.8159e-05
11590.0 4.7219e-05
11610.0 4.6279e-05
11630.0 4.5281e-05
11650.0 4.4241e-05
11670.0 4.3237e-05
11690.0 4.2231e-05
11710.0 4.1196e-05
11730.0 4.0182e-05
11750.0 3.9218e-05
11770.0 3.8235e-05
11790.0 3.7259e-05
11810.0 3.6332e-05
11830.0 3.5425e-05
11850.0 3.4494e-05
11870.0 3.361e-05
11890.0 3.277e-05
11910.0 3.1927e-05
11930.0 3.1097e-05
11950.0 3.0318e-05
11970.0 2.9556e-05
11990.0 2.8793e-05
12010.0 2.8078e-05
12030.0 2.7406e-05
12050.0 2.6751e-05
12070.0 2.6123e-05
12090.0 2.5567e-05
12110.0 2.5045e-05
12130.0 2.4558e-05
12150.0 2.413e-05
12170.0 2.3759e-05
12190.0 2.3427e-05
12210.0 2.3156e-05
12230.0 2.2947e-05
12250.0 2.2793e-05
12270.0 2.2696e-05
12290.0 2.2655e-05
12310.0 2.2661e-05
12330.0 2.2721e-05
12350.0 2.2826e-05
12370.0 2.2962e-05
12390.0 2.3133e-05
12410.0 2.335e-05
12430.0 2.3569e-05
12450.0 2.3799e-05
12470.0 2.4049e-05
12490.0 2.4302e-05
12510.0 2.4534e-05
12530.0 2.477e-05
12550.0 2.4999e-05
12570.0 2.5196e-05
12590.0 2.5363e-05
12610.0 2.5512e-05
12630.0 2.562e-05
12650.0 2.5674e-05
12670.0 2.5688e-05
12690.0 2.5656e-05
12710.0 2.5568e-05
12730.0 2.5431e-05
12750.0 2.5241e-05
12770.0 2.5001e-05
12790.0 2.4719e-05
12810.0 2.4394e-05
12830.0 2.4026e-05
12850.0 2.364e-05
12870.0 2.3234e-05
12890.0 2.2803e-05
12910.0 2.2368e-05
12930.0 2.1939e-05
12950.0 2.1501e-05
12970.0 2.1063e-05
12990.0 2.065e-05
13010.0 2.0247e-05
13030.0 1.9848e-05
13050.0 1.9467e-05
13070.0 1.9108e-05
13090.0 1.8751e-05
13110.0 1.8405e-05
13130.0 1.8077e-05
13150.0 1.776e-05
13170.0 1.7442e-05
13190.0 1.7142e-05
13210.0 1.6857e-05
13230.0 1.6575e-05
13250.0 1.6301e-05
13270.0 1.6045e-05
13290.0 1.5796e-05
13310.0 1.5552e-05
13330.0 1.5324e-05
13350.0 1.5111e-05
13370.0 1.4906e-05
13390.0 1.4712e-05
13410.0 1.4538e-05
13430.0 1.4375e-05
13450.0 1.4221e-05
13470.0 1.4081e-05
13490.0 1.3951e-05
13510.0 1.3826e-05
13530.0 1.3707e-05
13550.0 1.3594e-05
13570.0 1.3482e-05
13590.0 1.3368e-05
13610.0 1.3254e-05
13630.0 1.3139e-05
13650.0 1.3018e-05
13670.0 1.2894e-05
13690.0 1.277e-05
13710.0 1.2642e-05
13730.0 1.2509e-05
13750.0 1.2381e-05
13770.0 1.2255e-05
13790.0 1.2128e-05
13810.0 1.2006e-05
13830.0 1.1892e-05
13850.0 1.1781e-05
13870.0 1.1673e-05
13890.0 1.1574e-05
13910.0 1.148e-05
13930.0 1.1389e-05
13950.0 1.1302e-05
13970.0 1.1221e-05
13990.0 1.114e-05
14010.0 1.1059e-05
14030.0 1.0979e-05
14050.0 1.0898e-05
14070.0 1.081e-05
14090.0 1.0722e-05
14110.0 1.0631e-05
14130.0 1.0535e-05
14150.0 1.0434e-05
14170.0 1.0334e-05
14190.0 1.0233e-05
14210.0 1.0127e-05
14230.0 1.0025e-05
14250.0 9.9285e-06
14270.0 9.8325e-06
14290.0 9.7414e-06
14310.0 9.6618e-06
14330.0 9.5901e-06
14350.0 9.5256e-06
14370.0 9.4721e-06
14390.0 9.4294e-06
14410.0 9.3938e-06
14430.0 9.3667e-06
14450.0 9.3478e-06
14470.0 9.3347e-06
14490.0 9.3259e-06
14510.0 9.3217e-06
14530.0 9.3208e-06
14550.0 9.3225e-06
14570.0 9.3272e-06
14590.0 9.3354e-06
14610.0 9.3479e-06
14630.0 9.3665e-06
14650.0 9.3926e-06
14670.0 9.4277e-06
14690.0 9.4751e-06
14710.0 9.5374e-06
14730.0 9.6121e-06
14750.0 9.7046e-06
14770.0 9.8186e-06
14790.0 9.9505e-06
14810.0 1.01e-05
14830.0 1.0282e-05
14850.0 1.0485e-05
14870.0 1.0704e-05
14890.0 1.0946e-05
14910.0 1.1209e-05
14930.0 1.1473e-05
14950.0 1.173e-05
14970.0 1.1983e-05
14990.0 1.2211e-05
15010.0 1.2402e-05
15030.0 1.2563e-05
15050.0 1.2693e-05
15070.0 1.279e-05
15090.0 1.2866e-05
15110.0 1.2929e-05
15130.0 1.2983e-05
15150.0 1.3032e-05
15170.0 1.3079e-05
15190.0 1.3127e-05
15210.0 1.3175e-05
15230.0 1.3223e-05
15250.0 1.3273e-05
15270.0 1.3323e-05
15290.0 1.3375e-05
15310.0 1.3427e-05
15330.0 1.348e-05
15350.0 1.3534e-05
15370.0 1.359e-05
15390.0 1.3646e-05
15410.0 1.3703e-05
15430.0 1.376e-05
15450.0 1.3819e-05
15470.0 1.3878e-05
15490.0 1.3939e-05
15510.0 1.4e-05
15530.0 1.4062e-05
15550.0 1.4125e-05
15570.0 1.4188e-05
15590.0 1.4252e-05
15610.0 1.4317e-05
15630.0 1.4383e-05
15650.0 1.4449e-05
15670.0 1.4516e-05
15690.0 1.4584e-05
15710.0 1.4652e-05
15730.0 1.4721e-05
15750.0 1.479e-05
15770.0 1.486e-05
15790.0 1.4931e-05
15810.0 1.5002e-05
15830.0 1.5074e-05
15850.0 1.5146e-05
15870.0 1.5218e-05
15890.0 1.5291e-05
15910.0 1.5365e-05
15930.0 1.5439e-05
15950.0 1.5513e-05
15970.0 1.5587e-05
15990.0 1.5662e-05
16010.0 1.5737e-05
16030.0 1.5813e-05
16050.0 1.5888e-05
16070.0 1.5964e-05
16090.0 1.604e-05
16110.0 1.6117e-05
16130.0 1.6193e-05
16150.0 1.6269e-05
16170.0 1.6346e-05
16190.0 1.6423e-05
16210.0 1.6499e-05
16230.0 1.6576e-05
16250.0 1.6653e-05
16270.0 1.673e-05
16290.0 1.6806e-05
16310.0 1.6882e-05
16330.0 1.6959e-05
16350.0 1.7035e-05
16370.0 1.7111e-05
16390.0 1.7187e-05
16410.0 1.7262e-05
16430.0 1.7337e-05
16450.0 1.7412e-05
16470.0 1.7487e-05
16490.0 1.7561e-05
16510.0 1.7635e-05
16530.0 1.7708e-05
16550.0 1.7781e-05
16570.0 1.7853e-05
16590.0 1.7925e-05
16610.0 1.7996e-05
16630.0 1.8067e-05
16650.0 1.8137e-05
16670.0 1.8206e-05
16690.0 1.8275e-05
16710.0 1.8343e-05
16730.0 1.841e-05
16750.0 1.8476e-05
16770.0 1.8542e-05
16790.0 1.8607e-05
16810.0 1.8671e-05
16830.0 1.8734e-05
16850.0 1.8796e-05
16870.0 1.8857e-05
16890.0 1.8918e-05
16910.0 1.8977e-05
16930.0 1.9035e-05
16950.0 1.9092e-05
16970.0 1.9148e-05
16990.0 1.9203e-05
17010.0 1.9257e-05
17030.0 1.931e-05
17050.0 1.9361e-05
17070.0 1.9411e-05
17090.0 1.946e-05
17110.0 1.9508e-05
17130.0 1.9555e-05
17150.0 1.96e-05
17170.0 1.9644e-05
17190.0 1.9686e-05
17210.0 1.9727e-05
17230.0 1.9767e-05
17250.0 1.9805e-05
17270.0 1.9842e-05
17290.0 1.9877e-05
17310.0 1.9911e-05
17330.0 1.9944e-05
17350.0 1.9975e-05
17370.0 2.0004e-05
17390.0 2.0032e-05
17410.0 2.0058e-05
17430.0 2.0083e-05
17450.0 2.0106e-05
17470.0 2.0128e-05
17490.0 2.0148e-05
17510.0 2.0166e-05
17530.0 2.0183e-05
17550.0 2.0198e-05
17570.0 2.0211e-05
17590.0 2.0223e-05
17610.0 2.0233e-05
17630.0 2.0242e-05
17650.0 2.0249e-05
17670.0 2.0254e-05
17690.0 2.0257e-05
17710.0 2.0259e-05
17730.0 2.0259e-05
17750.0 2.0257e-05
17770.0 2.0254e-05
17790.0 2.0249e-05
17810.0 2.0243e-05
17830.0 2.0234e-05
17850.0 2.0224e-05
17870.0 2.0213e-05
17890.0 2.0199e-05
17910.0 2.0184e-05
17930.0 2.0168e-05
17950.0 2.0149e-05
17970.0 2.0129e-05
17990.0 2.0108e-05
18010.0 2.0085e-05
18030.0 2.006e-05
18050.0 2.0033e-05
18070.0 2.0005e-05
18090.0 1.9975e-05
18110.0 1.9944e-05
18130.0 1.9911e-05
18150.0 1.9877e-05
18170.0 1.9841e-05
18190.0 1.9804e-05
18210.0 1.9765e-05
18230.0 1.9724e-05
18250.0 1.9682e-05
18270.0 1.9639e-05
18290.0 1.9594e-05
18310.0 1.9548e-05
18330.0 1.95e-05
18350.0 1.9451e-05
18370.0 1.9401e-05
18390.0 1.9349e-05
18410.0 1.9296e-05
18430.0 1.9241e-05
18450.0 1.9186e-05
18470.0 1.9129e-05
18490.0 1.907e-05
18510.0 1.9011e-05
18530.0 1.895e-05
18550.0 1.8889e-05
18570.0 1.8826e-05
18590.0 1.8761e-05
18610.0 1.8696e-05
18630.0 1.863e-05
18650.0 1.8562e-05
18670.0 1.8494e-05
18690.0 1.8425e-05
18710.0 1.8354e-05
18730.0 1.8283e-05
18750.0 1.8211e-05
18770.0 1.8137e-05
18790.0 1.8063e-05
18810.0 1.7988e-05
18830.0 1.7912e-05
18850.0 1.7836e-05
18870.0 1.7758e-05
18890.0 1.768e-05
18910.0 1.7601e-05
18930.0 1.7522e-05
18950.0 1.7441e-05
18970.0 1.736e-05
18990.0 1.7279e-05
19010.0 1.7196e-05
19030.0 1.7113e-05
19050.0 1.703e-05
19070.0 1.6946e-05
19090.0 1.6862e-05
19110.0 1.6777e-05
19130.0 1.6691e-05
19150.0 1.6606e-05
19170.0 1.6519e-05
19190.0 1.6433e-05
19210.0 1.6346e-05
19230.0 1.6258e-05
19250.0 1.6171e-05
19270.0 1.6083e-05
19290.0 1.5994e-05
19310.0 1.5906e-05
19330.0 1.5817e-05
19350.0 1.5728e-05
19370.0 1.5639e-05
19390.0 1.555e-05
19410.0 1.546e-05
19430.0 1.5371e-05
19450.0 1.5281e-05
19470.0 1.5191e-05
19490.0 1.5101e-05
19510.0 1.5012e-05
19530.0 1.4922e-05
19550.0 1.4832e-05
19570.0 1.4742e-05
19590.0 1.4652e-05
19610.0 1.4562e-05
19630.0 1.4472e-05
19650.0 1.4383e-05
19670.0 1.4293e-05
19690.0 1.4204e-05
19710.0 1.4115e-05
19730.0 1.4025e-05
19750.0 1.3936e-05
19770.0 1.3848e-05
19790.0 1.3759e-05
19810.0 1.367e-05
19830.0 1.3582e-05
19850.0 1.3493e-05
19870.0 1.3403e-05
19890.0 1.3311e-05
19910.0 1.3213e-05
19930.0 1.3109e-05
19950.0 1.2993e-05
19970.0 1.2859e-05
19990.0 1.2705e-05
20010.0 1.2532e-05
20030.0 1.2334e-05
20050.0 1.2111e-05
20070.0 1.1876e-05
20090.0 1.1631e-05
20110.0 1.1368e-05
20130.0 1.1107e-05
20150.0 1.0854e-05
20170.0 1.0599e-05
20190.0 1.0347e-05
20210.0 1.011e-05
20230.0 9.8802e-06
20250.0 9.6527e-06
20270.0 9.4385e-06
20290.0 9.2381e-06
20310.0 9.0439e-06
20330.0 8.8566e-06
20350.0 8.6885e-06
20370.0 8.5291e-06
20390.0 8.3774e-06
20410.0 8.2379e-06
20430.0 8.1108e-06
20450.0 7.9892e-06
20470.0 7.8775e-06
20490.0 7.7764e-06
20510.0 7.6828e-06
20530.0 7.5955e-06
20550.0 7.5161e-06
20570.0 7.4437e-06
20590.0 7.3757e-06
20610.0 7.3127e-06
20630.0 7.2542e-06
20650.0 7.1988e-06
20670.0 7.1461e-06
20690.0 7.0956e-06
20710.0 7.0465e-06
20730.0 6.9981e-06
20750.0 6.9499e-06
20770.0 6.9015e-06
20790.0 6.8522e-06
20810.0 6.8016e-06
20830.0 6.7495e-06
20850.0 6.6959e-06
20870.0 6.6398e-06
20890.0 6.5814e-06
20910.0 6.5218e-06
20930.0 6.4597e-06
20950.0 6.3952e-06
20970.0 6.3295e-06
20990.0 6.2627e-06
21010.0 6.1931e-06
21030.0 6.1227e-06
21050.0 6.0524e-06
21070.0 5.9809e-06
21090.0 5.9079e-06
21110.0 5.8364e-06
21130.0 5.7654e-06
21150.0 5.6936e-06
21170.0 5.6226e-06
21190.0 5.5538e-06
21210.0 5.4845e-06
21230.0 5.4156e-06
21250.0 5.3494e-06
21270.0 5.2846e-06
21290.0 5.2202e-06
21310.0 5.1577e-06
21330.0 5.0983e-06
21350.0 5.0396e-06
21370.0 4.9825e-06
21390.0 4.9282e-06
21410.0 4.8761e-06
21430.0 4.8249e-06
21450.0 4.7768e-06
21470.0 4.7314e-06
21490.0 4.6878e-06
21510.0 4.6463e-06
21530.0 4.6076e-06
21550.0 4.5709e-06
21570.0 4.536e-06
21590.0 4.5034e-06
21610.0 4.4728e-06
21630.0 4.4438e-06
21650.0 4.4165e-06
21670.0 4.3908e-06
21690.0 4.3664e-06
21710.0 4.3433e-06
21730.0 4.3213e-06
21750.0 4.3001e-06
21770.0 4.28e-06
21790.0 4.2606e-06
21810.0 4.2417e-06
21830.0 4.2234e-06
21850.0 4.2056e-06
21870.0 4.1881e-06
21890.0 4.1706e-06
21910.0 4.1535e-06
21930.0 4.1363e-06
21950.0 4.119e-06
21970.0 4.1015e-06
21990.0 4.084e-06
22010.0 4.0659e-06
22030.0 4.0474e-06
22050.0 4.0285e-06
22070.0 4.009e-06
22090.0 3.989e-06
22110.0 3.9684e-06
22130.0 3.9472e-06
22150.0 3.9254e-06
22170.0 3.9032e-06
22190.0 3.8802e-06
22210.0 3.8566e-06
22230.0 3.8327e-06
22250.0 3.8081e-06
22270.0 3.7828e-06
22290.0 3.757e-06
22310.0 3.7307e-06
22330.0 3.7031e-06
22350.0 3.6746e-06
22370.0 3.6455e-06
22390.0 3.6149e-06
22410.0 3.5824e-06
22430.0 3.5492e-06
22450.0 3.5146e-06
22470.0 3.4775e-06
22490.0 3.4389e-06
22510.0 3.3995e-06
22530.0 3.3572e-06
22550.0 3.3127e-06
22570.0 3.2678e-06
22590.0 3.2217e-06
22610.0 3.1733e-06
