#lamb flux
1010.0 5.2072e-05
1030.0 5.6647e-05
1050.0 6.2047e-05
1070.0 6.8125e-05
1090.0 7.499e-05
1110.0 8.204e-05
1130.0 8.9141e-05
1150.0 9.6582e-05
1170.0 0.00010426
1190.0 0.00011153
1210.0 0.00011888
1230.0 0.00012646
1250.0 0.00013387
1270.0 0.00014103
1290.0 0.00014857
1310.0 0.00015607
1330.0 0.00016322
1350.0 0.00017042
1370.0 0.00017783
1390.0 0.00018503
1410.0 0.000192
1430.0 0.00019929
1450.0 0.00020657
1470.0 0.00021362
1490.0 0.00022076
1510.0 0.00022834
1530.0 0.00023554
1550.0 0.00024267
1570.0 0.0002501
1590.0 0.00025757
1610.0 0.00026476
1630.0 0.00027223
1650.0 0.00027993
1670.0 0.00028744
1690.0 0.00029489
1710.0 0.00030265
1730.0 0.00031049
1750.0 0.00031789
1770.0 0.00032551
1790.0 0.00033328
1810.0 0.00034078
1830.0 0.00034813
1850.0 0.00035585
1870.0 0.00036331
1890.0 0.00037042
1910.0 0.00037757
1930.0 0.00038476
1950.0 0.00039146
1970.0 0.00039792
1990.0 0.00040448
2010.0 0.00041072
2030.0 0.00041653
2050.0 0.00042236
2070.0 0.00042818
2090.0 0.0004334
2110.0 0.00043843
2130.0 0.00044351
2150.0 0.0004483
2170.0 0.00045266
2190.0 0.00045715
2210.0 0.00046158
2230.0 0.00046565
2250.0 0.00046963
2270.0 0.00047384
2290.0 0.00047779
2310.0 0.00048144
2330.0 0.00048528
2350.0 0.00048916
2370.0 0.0004928
2390.0 0.00049654
2410.0 0.00050068
2430.0 0.00050474
2450.0 0.00050884
2470.0 0.00051339
2490.0 0.00051847
2510.0 0.00052387
2530.0 0.00053101
2550.0 0.00054196
2570.0 0.00055892
2590.0 0.00058476
2610.0 0.00062693
2630.0 0.00068782
2650.0 0.00076493
2670.0 0.00085968
2690.0 0.0009689
2710.0 0.0010772
2730.0 0.0011753
2750.0 0.001261
2770.0 0.0013217
2790.0 0.0013542
2810.0 0.0013612
2830.0 0.0013434
2850.0 0.0013078
2870.0 0.0012604
2890.0 0.0012031
2910.0 0.0011411
2930.0 0.0010798
2950.0 0.0010153
2970.0 0.00094931
2990.0 0.0008859
3010.0 0.0011983
3030.0 0.0011047
3050.0 0.0010122
3070.0 0.00092711
3090.0 0.00084202
3110.0 0.00076076
3130.0 0.00069073
3150.0 0.00064347
3170.0 0.00060577
3190.0 0.00099986
3210.0 0.0028141
3230.0 0.0057531
3250.0 0.0073
3270.0 0.0064462
3290.0 0.0049479
3310.0 0.0040947
3330.0 0.0038366
3350.0 0.0039395
3370.0 0.0041486
3390.0 0.0043708
3410.0 0.0045954
3430.0 0.0048055
3450.0 0.0050333
3470.0 0.005281
3490.0 0.0054498
3510.0 0.0052763
3530.0 0.0053893
3550.0 0.0067592
3570.0 0.008488
3590.0 0.0093734
3610.0 0.0096666
3630.0 0.0099056
3650.0 0.0098922
3670.0 0.010486
3690.0 0.012548
3710.0 0.014869
3730.0 0.016387
3750.0 0.017466
3770.0 0.017679
3790.0 0.016995
3810.0 0.01571
3830.0 0.013735
3850.0 0.011644
3870.0 0.010565
3890.0 0.011818
3910.0 0.014949
3930.0 0.01808
3950.0 0.019941
3970.0 0.020728
3990.0 0.021593
4010.0 0.022092
4030.0 0.019932
4050.0 0.01573
4070.0 0.013574
4090.0 0.014308
4110.0 0.015752
4130.0 0.016563
4150.0 0.016651
4170.0 0.016272
4190.0 0.015995
4210.0 0.0164
4230.0 0.017357
4250.0 0.018135
4270.0 0.018424
4290.0 0.01817
4310.0 0.018287
4330.0 0.019397
4350.0 0.02071
4370.0 0.020614
4390.0 0.019119
4410.0 0.016875
4430.0 0.014127
4450.0 0.012187
4470.0 0.012124
4490.0 0.013243
4510.0 0.014674
4530.0 0.016222
4550.0 0.018645
4570.0 0.0233
4590.0 0.029937
4610.0 0.035362
4630.0 0.038096
4650.0 0.040346
4670.0 0.042532
4690.0 0.041599
4710.0 0.036278
4730.0 0.02924
4750.0 0.02357
4770.0 0.020149
4790.0 0.018888
4810.0 0.018884
4830.0 0.020205
4850.0 0.022845
4870.0 0.025208
4890.0 0.025979
4910.0 0.02659
4930.0 0.029086
4950.0 0.032453
4970.0 0.03419
4990.0 0.033245
5010.0 0.029776
5030.0 0.024937
5050.0 0.020843
5070.0 0.018338
5090.0 0.017311
5110.0 0.017311
5130.0 0.017478
5150.0 0.017322
5170.0 0.01694
5190.0 0.017127
5210.0 0.018403
5230.0 0.020723
5250.0 0.024203
5270.0 0.027839
5290.0 0.030324
5310.0 0.03232
5330.0 0.034844
5350.0 0.036725
5370.0 0.036333
5390.0 0.034404
5410.0 0.032989
5430.0 0.034062
5450.0 0.038125
5470.0 0.043138
5490.0 0.046623
5510.0 0.04771
5530.0 0.047105
5550.0 0.045581
5570.0 0.043721
5590.0 0.041974
5610.0 0.0407
5630.0 0.040136
5650.0 0.039295
5670.0 0.036836
5690.0 0.033319
5710.0 0.030166
5730.0 0.027904
5750.0 0.027093
5770.0 0.027645
5790.0 0.028307
5810.0 0.028487
5830.0 0.028415
5850.0 0.027804
5870.0 0.026864
5890.0 0.026578
5910.0 0.026864
5930.0 0.026388
5950.0 0.024541
5970.0 0.021636
5990.0 0.018367
6010.0 0.015988
6030.0 0.015313
6050.0 0.016146
6070.0 0.016923
6090.0 0.016355
6110.0 0.01543
6130.0 0.015744
6150.0 0.017073
6170.0 0.018293
6190.0 0.018992
6210.0 0.019208
6230.0 0.018684
6250.0 0.017024
6270.0 0.014652
6290.0 0.012702
6310.0 0.012011
6330.0 0.012376
6350.0 0.013011
6370.0 0.013828
6390.0 0.015576
6410.0 0.018204
6430.0 0.02039
6450.0 0.021479
6470.0 0.022083
6490.0 0.022525
6510.0 0.022707
6530.0 0.022828
6550.0 0.023136
6570.0 0.023521
6590.0 0.023783
6610.0 0.023499
6630.0 0.022445
6650.0 0.02085
6670.0 0.01933
6690.0 0.018351
6710.0 0.01761
6730.0 0.016825
6750.0 0.016449
6770.0 0.016826
6790.0 0.017367
6810.0 0.017534
6830.0 0.017256
6850.0 0.01658
6870.0 0.015893
6890.0 0.015506
6910.0 0.015549
6930.0 0.015812
6950.0 0.016021
6970.0 0.016204
6990.0 0.016153
7010.0 0.015641
7030.0 0.014579
7050.0 0.013196
7070.0 0.012228
7090.0 0.0121
7110.0 0.012298
7130.0 0.011876
7150.0 0.011029
7170.0 0.010921
7190.0 0.011896
7210.0 0.013263
7230.0 0.014372
7250.0 0.014825
7270.0 0.014503
7290.0 0.013756
7310.0 0.013186
7330.0 0.013207
7350.0 0.013525
7370.0 0.013783
7390.0 0.014376
7410.0 0.015564
7430.0 0.016924
7450.0 0.017979
7470.0 0.018286
7490.0 0.01741
7510.0 0.01618
7530.0 0.015515
7550.0 0.014742
7570.0 0.013922
7590.0 0.013524
7610.0 0.013556
7630.0 0.014046
7650.0 0.015041
7670.0 0.016309
7690.0 0.017467
7710.0 0.018308
7730.0 0.01902
7750.0 0.019611
7770.0 0.019891
7790.0 0.020206
7810.0 0.02025
7830.0 0.01964
7850.0 0.01896
7870.0 0.018582
7890.0 0.018596
7910.0 0.018639
7930.0 0.01823
7950.0 0.017643
7970.0 0.017027
7990.0 0.016497
8010.0 0.015737
8030.0 0.01578
8050.0 0.015769
8070.0 0.015574
8090.0 0.015437
8110.0 0.015213
8130.0 0.015239
8150.0 0.015138
8170.0 0.014885
8190.0 0.01448
8210.0 0.014017
8230.0 0.013579
8250.0 0.013431
8270.0 0.012666
8290.0 0.011007
8310.0 0.0091511
8330.0 0.0078876
8350.0 0.0075737
8370.0 0.0083977
8390.0 0.0095977
8410.0 0.010251
8430.0 0.010646
8450.0 0.011384
8470.0 0.012296
8490.0 0.013536
8510.0 0.014975
8530.0 0.016477
8550.0 0.017674
8570.0 0.018564
8590.0 0.019235
8610.0 0.019623
8630.0 0.019575
8650.0 0.019255
8670.0 0.019296
8690.0 0.020298
8710.0 0.021654
8730.0 0.022312
8750.0 0.022167
8770.0 0.022409
8790.0 0.022431
8810.0 0.021462
8830.0 0.01993
8850.0 0.018003
8870.0 0.016537
8890.0 0.016094
8910.0 0.015827
8930.0 0.014829
8950.0 0.013737
8970.0 0.013294
8990.0 0.013343
9010.0 0.013114
9030.0 0.012881
9050.0 0.012761
9070.0 0.012698
9090.0 0.012642
9110.0 0.012588
9130.0 0.012534
9150.0 0.012482
9170.0 0.012427
9190.0 0.012383
9210.0 0.012356
9230.0 0.012294
9250.0 0.012238
9270.0 0.012185
9290.0 0.012135
9310.0 0.012087
9330.0 0.012039
9350.0 0.011993
9370.0 0.011948
9390.0 0.011903
9410.0 0.011859
9430.0 0.011813
9450.0 0.011752
9470.0 0.011696
9490.0 0.011671
9510.0 0.011638
9530.0 0.011603
9550.0 0.011566
9570.0 0.011528
9590.0 0.01149
9610.0 0.011452
9630.0 0.011413
9650.0 0.011376
9670.0 0.011339
9690.0 0.011302
9710.0 0.011264
9730.0 0.011228
9750.0 0.011192
9770.0 0.011155
9790.0 0.01112
9810.0 0.011084
9830.0 0.011049
9850.0 0.011012
9870.0 0.010978
9890.0 0.010943
9910.0 0.010907
9930.0 0.010871
9950.0 0.010796
9970.0 0.010772
9990.0 0.010745
10010.0 0.010718
10030.0 0.010687
10050.0 0.010653
10070.0 0.010619
10090.0 0.010585
10110.0 0.010545
10130.0 0.010495
10150.0 0.01046
10170.0 0.010426
10190.0 0.010388
10210.0 0.010351
10230.0 0.010314
10250.0 0.010273
10270.0 0.010232
10290.0 0.010193
10310.0 0.01015
10330.0 0.010103
10350.0 0.010061
10370.0 0.010017
10390.0 0.0099701
10410.0 0.0099226
10430.0 0.0098783
10450.0 0.0098299
10470.0 0.0097789
10490.0 0.0097301
10510.0 0.0096808
10530.0 0.0096251
10550.0 0.0095709
10570.0 0.0095192
10590.0 0.0094634
10610.0 0.0094049
10630.0 0.0093493
10650.0 0.0092921
10670.0 0.0092293
10690.0 0.0091678
10710.0 0.0091074
10730.0 0.0090428
10750.0 0.0089739
10770.0 0.0089102
10790.0 0.008844
10810.0 0.0087732
10830.0 0.0087031
10850.0 0.008635
10870.0 0.0085594
10890.0 0.0084828
10910.0 0.0084086
10930.0 0.0083319
10950.0 0.0082498
10970.0 0.0081686
10990.0 0.0080896
11010.0 0.0086647
11030.0 0.0085768
11050.0 0.0084922
11070.0 0.0084063
11090.0 0.0083142
11110.0 0.0082284
11130.0 0.0081446
11150.0 0.0080576
11170.0 0.007971
11190.0 0.0078896
11210.0 0.0078064
11230.0 0.0077214
11250.0 0.0076407
11270.0 0.0075627
11290.0 0.0074823
11310.0 0.0074035
11330.0 0.0073309
11350.0 0.0072573
11370.0 0.0071825
11390.0 0.0071103
11410.0 0.0070386
11430.0 0.0069608
11450.0 0.0068819
11470.0 0.0068022
11490.0 0.0067165
11510.0 0.0066232
11530.0 0.0065288
11550.0 0.0064301
11570.0 0.0063225
11590.0 0.0062111
11610.0 0.0060993
11630.0 0.00598
11650.0 0.0058551
11670.0 0.0057338
11690.0 0.0056115
11710.0 0.0054849
11730.0 0.0053597
11750.0 0.0052398
11770.0 0.0051164
11790.0 0.0049928
11810.0 0.0048741
11830.0 0.0047569
11850.0 0.0046355
11870.0 0.004519
11890.0 0.0044077
11910.0 0.0042951
11930.0 0.0041836
11950.0 0.0040785
11970.0 0.0039754
11990.0 0.003872
12010.0 0.0037749
12030.0 0.0036837
12050.0 0.0035947
12070.0 0.0035094
12090.0 0.0034338
12110.0 0.0033627
12130.0 0.0032963
12150.0 0.0032375
12170.0 0.0031865
12190.0 0.0031405
12210.0 0.0031025
12230.0 0.0030728
12250.0 0.0030501
12270.0 0.003035
12290.0 0.0030273
12310.0 0.0030258
12330.0 0.0030313
12350.0 0.0030426
12370.0 0.0030579
12390.0 0.0030777
12410.0 0.0031031
12430.0 0.0031288
12450.0 0.0031555
12470.0 0.0031847
12490.0 0.0032138
12510.0 0.0032403
12530.0 0.0032669
12550.0 0.0032925
12570.0 0.003314
12590.0 0.0033319
12610.0 0.0033474
12630.0 0.0033581
12650.0 0.0033622
12670.0 0.0033617
12690.0 0.0033554
12710.0 0.0033427
12730.0 0.0033239
12750.0 0.0032988
12770.0 0.0032676
12790.0 0.0032314
12810.0 0.0031898
12830.0 0.003143
12850.0 0.0030939
12870.0 0.0030424
12890.0 0.0029876
12910.0 0.0029322
12930.0 0.0028776
12950.0 0.0028218
12970.0 0.0027659
12990.0 0.002713
13010.0 0.0026615
13030.0 0.0026104
13050.0 0.0025615
13070.0 0.0025155
13090.0 0.0024698
13110.0 0.0024256
13130.0 0.0023838
13150.0 0.0023435
13170.0 0.0023033
13190.0 0.0022655
13210.0 0.0022298
13230.0 0.0021948
13250.0 0.0021609
13270.0 0.0021292
13290.0 0.0020986
13310.0 0.0020685
13330.0 0.0020403
13350.0 0.0020136
13370.0 0.0019877
13390.0 0.0019628
13410.0 0.0019399
13430.0 0.0019179
13450.0 0.0018965
13470.0 0.0018764
13490.0 0.0018575
13510.0 0.0018386
13530.0 0.0018205
13550.0 0.0018032
13570.0 0.0017861
13590.0 0.0017689
13610.0 0.0017521
13630.0 0.0017356
13650.0 0.0017187
13670.0 0.0017018
13690.0 0.0016852
13710.0 0.0016686
13730.0 0.0016514
13750.0 0.0016351
13770.0 0.001619
13790.0 0.0016029
13810.0 0.0015873
13830.0 0.0015725
13850.0 0.0015578
13870.0 0.0015434
13890.0 0.0015299
13910.0 0.0015169
13930.0 0.001504
13950.0 0.0014916
13970.0 0.0014799
13990.0 0.0014683
14010.0 0.0014566
14030.0 0.0014453
14050.0 0.0014339
14070.0 0.001422
14090.0 0.00141
14110.0 0.0013982
14130.0 0.0013858
14150.0 0.0013731
14170.0 0.0013607
14190.0 0.0013484
14210.0 0.0013359
14230.0 0.0013238
14250.0 0.0013126
14270.0 0.0013016
14290.0 0.0012912
14310.0 0.0012823
14330.0 0.0012742
14350.0 0.001267
14370.0 0.0012609
14390.0 0.001256
14410.0 0.0012517
14430.0 0.0012483
14450.0 0.0012457
14470.0 0.0012436
14490.0 0.0012418
14510.0 0.0012404
14530.0 0.0012393
14550.0 0.0012383
14570.0 0.0012375
14590.0 0.001237
14610.0 0.001237
14630.0 0.0012374
14650.0 0.0012387
14670.0 0.001241
14690.0 0.0012447
14710.0 0.0012501
14730.0 0.0012572
14750.0 0.0012667
14770.0 0.0012789
14790.0 0.0012936
14810.0 0.001311
14830.0 0.0013326
14850.0 0.0013575
14870.0 0.0013848
14890.0 0.0014153
14910.0 0.001449
14930.0 0.001483
14950.0 0.0015162
14970.0 0.0015492
14990.0 0.0015788
15010.0 0.0016038
15030.0 0.0016248
15050.0 0.0016419
15070.0 0.0016546
15090.0 0.0016646
15110.0 0.0016729
15130.0 0.00168
15150.0 0.0016865
15170.0 0.0016928
15190.0 0.001699
15210.0 0.0017054
15230.0 0.0017118
15250.0 0.0017183
15270.0 0.001725
15290.0 0.0017318
15310.0 0.0017388
15330.0 0.0017458
15350.0 0.001753
15370.0 0.0017603
15390.0 0.0017678
15410.0 0.0017753
15430.0 0.001783
15450.0 0.0017908
15470.0 0.0017987
15490.0 0.0018067
15510.0 0.0018149
15530.0 0.0018231
15550.0 0.0018314
15570.0 0.0018399
15590.0 0.0018484
15610.0 0.0018571
15630.0 0.0018658
15650.0 0.0018747
15670.0 0.0018836
15690.0 0.0018926
15710.0 0.0019018
15730.0 0.001911
15750.0 0.0019202
15770.0 0.0019296
15790.0 0.0019391
15810.0 0.0019486
15830.0 0.0019582
15850.0 0.0019678
15870.0 0.0019775
15890.0 0.0019873
15910.0 0.0019972
15930.0 0.0020071
15950.0 0.002017
15970.0 0.0020271
15990.0 0.0020371
16010.0 0.0020472
16030.0 0.0020574
16050.0 0.0020676
16070.0 0.0020778
16090.0 0.002088
16110.0 0.0020983
16130.0 0.0021086
16150.0 0.0021189
16170.0 0.0021293
16190.0 0.0021396
16210.0 0.00215
16230.0 0.0021604
16250.0 0.0021708
16270.0 0.0021811
16290.0 0.0021915
16310.0 0.0022019
16330.0 0.0022122
16350.0 0.0022226
16370.0 0.0022329
16390.0 0.0022432
16410.0 0.0022534
16430.0 0.0022636
16450.0 0.0022738
16470.0 0.002284
16490.0 0.0022941
16510.0 0.0023042
16530.0 0.0023142
16550.0 0.0023241
16570.0 0.002334
16590.0 0.0023438
16610.0 0.0023536
16630.0 0.0023633
16650.0 0.0023729
16670.0 0.0023824
16690.0 0.0023919
16710.0 0.0024012
16730.0 0.0024105
16750.0 0.0024197
16770.0 0.0024287
16790.0 0.0024377
16810.0 0.0024465
16830.0 0.0024553
16850.0 0.0024639
16870.0 0.0024724
16890.0 0.0024808
16910.0 0.002489
16930.0 0.0024971
16950.0 0.0025051
16970.0 0.002513
16990.0 0.0025207
17010.0 0.0025282
17030.0 0.0025356
17050.0 0.0025429
17070.0 0.00255
17090.0 0.0025569
17110.0 0.0025637
17130.0 0.0025703
17150.0 0.0025767
17170.0 0.002583
17190.0 0.0025891
17210.0 0.002595
17230.0 0.0026007
17250.0 0.0026062
17270.0 0.0026116
17290.0 0.0026167
17310.0 0.0026217
17330.0 0.0026265
17350.0 0.0026311
17370.0 0.0026355
17390.0 0.0026397
17410.0 0.0026436
17430.0 0.0026474
17450.0 0.002651
17470.0 0.0026543
17490.0 0.0026575
17510.0 0.0026604
17530.0 0.0026631
17550.0 0.0026656
17570.0 0.0026679
17590.0 0.00267
17610.0 0.0026719
17630.0 0.0026735
17650.0 0.0026749
17670.0 0.0026761
17690.0 0.0026771
17710.0 0.0026778
17730.0 0.0026783
17750.0 0.0026786
17770.0 0.0026787
17790.0 0.0026786
17810.0 0.0026782
17830.0 0.0026776
17850.0 0.0026768
17870.0 0.0026758
17890.0 0.0026745
17910.0 0.002673
17930.0 0.0026713
17950.0 0.0026694
17970.0 0.0026672
17990.0 0.0026649
18010.0 0.0026623
18030.0 0.0026595
18050.0 0.0026564
18070.0 0.0026532
18090.0 0.0026498
18110.0 0.0026461
18130.0 0.0026422
18150.0 0.0026381
18170.0 0.0026338
18190.0 0.0026293
18210.0 0.0026246
18230.0 0.0026197
18250.0 0.0026146
18270.0 0.0026093
18290.0 0.0026038
18310.0 0.0025981
18330.0 0.0025922
18350.0 0.0025862
18370.0 0.0025799
18390.0 0.0025735
18410.0 0.0025668
18430.0 0.00256
18450.0 0.002553
18470.0 0.0025459
18490.0 0.0025386
18510.0 0.0025311
18530.0 0.0025234
18550.0 0.0025156
18570.0 0.0025076
18590.0 0.0024994
18610.0 0.0024911
18630.0 0.0024827
18650.0 0.0024741
18670.0 0.0024653
18690.0 0.0024565
18710.0 0.0024475
18730.0 0.0024383
18750.0 0.002429
18770.0 0.0024196
18790.0 0.00241
18810.0 0.0024004
18830.0 0.0023906
18850.0 0.0023807
18870.0 0.0023707
18890.0 0.0023605
18910.0 0.0023503
18930.0 0.00234
18950.0 0.0023296
18970.0 0.002319
18990.0 0.0023084
19010.0 0.0022977
19030.0 0.0022869
19050.0 0.002276
19070.0 0.0022651
19090.0 0.002254
19110.0 0.0022429
19130.0 0.0022317
19150.0 0.0022205
19170.0 0.0022092
19190.0 0.0021978
19210.0 0.0021863
19230.0 0.0021749
19250.0 0.0021633
19270.0 0.0021517
19290.0 0.0021401
19310.0 0.0021284
19330.0 0.0021167
19350.0 0.002105
19370.0 0.0020932
19390.0 0.0020814
19410.0 0.0020695
19430.0 0.0020576
19450.0 0.0020458
19470.0 0.0020339
19490.0 0.0020219
19510.0 0.00201
19530.0 0.001998
19550.0 0.0019861
19570.0 0.0019741
19590.0 0.0019621
19610.0 0.0019501
19630.0 0.0019382
19650.0 0.0019262
19670.0 0.0019142
19690.0 0.0019023
19710.0 0.0018903
19730.0 0.0018784
19750.0 0.0018665
19770.0 0.0018545
19790.0 0.0018426
19810.0 0.0018308
19830.0 0.0018189
19850.0 0.0018069
19870.0 0.0017948
19890.0 0.0017824
19910.0 0.0017693
19930.0 0.0017553
19950.0 0.0017398
19970.0 0.0017219
19990.0 0.0017013
20010.0 0.0016782
20030.0 0.0016519
20050.0 0.0016224
20070.0 0.0015912
20090.0 0.0015587
20110.0 0.0015238
20130.0 0.0014892
20150.0 0.0014556
20170.0 0.0014218
20190.0 0.0013883
20210.0 0.0013567
20230.0 0.0013261
20250.0 0.0012957
20270.0 0.001267
20290.0 0.0012402
20310.0 0.0012142
20330.0 0.0011891
20350.0 0.0011666
20370.0 0.0011453
20390.0 0.001125
20410.0 0.0011064
20430.0 0.0010894
20450.0 0.0010733
20470.0 0.0010585
20490.0 0.0010452
20510.0 0.0010329
20530.0 0.0010215
20550.0 0.0010111
20570.0 0.0010017
20590.0 0.00099281
20610.0 0.00098459
20630.0 0.00097693
20650.0 0.00096966
20670.0 0.00096268
20690.0 0.00095594
20710.0 0.00094931
20730.0 0.0009427
20750.0 0.00093604
20770.0 0.00092926
20790.0 0.0009223
20810.0 0.00091506
20830.0 0.00090757
20850.0 0.0008998
20870.0 0.00089162
20890.0 0.00088308
20910.0 0.00087434
20930.0 0.00086524
20950.0 0.00085577
20970.0 0.00084615
20990.0 0.00083639
21010.0 0.00082624
21030.0 0.00081601
21050.0 0.00080585
21070.0 0.00079554
21090.0 0.00078507
21110.0 0.00077487
21130.0 0.0007648
21150.0 0.00075466
21170.0 0.0007447
21190.0 0.00073507
21210.0 0.00072545
21230.0 0.00071594
21250.0 0.00070684
21270.0 0.00069798
21290.0 0.00068922
21310.0 0.00068077
21330.0 0.00067276
21350.0 0.00066488
21370.0 0.00065726
21390.0 0.00065003
21410.0 0.00064311
21430.0 0.00063634
21450.0 0.00062997
21470.0 0.00062397
21490.0 0.00061821
21510.0 0.00061272
21530.0 0.00060757
21550.0 0.00060267
21570.0 0.00059797
21590.0 0.00059354
21610.0 0.00058932
21630.0 0.00058528
21650.0 0.00058139
21670.0 0.00057768
21690.0 0.00057407
21710.0 0.00057058
21730.0 0.00056718
21750.0 0.00056386
21770.0 0.00056061
21790.0 0.00055743
21810.0 0.00055429
21830.0 0.0005512
21850.0 0.00054817
21870.0 0.00054517
21890.0 0.0005422
21910.0 0.00053926
21930.0 0.00053635
21950.0 0.00053345
21970.0 0.00053056
21990.0 0.00052767
22010.0 0.00052475
22030.0 0.00052182
22050.0 0.00051885
22070.0 0.00051583
22090.0 0.00051277
22110.0 0.00050965
22130.0 0.00050645
22150.0 0.00050319
22170.0 0.00049987
22190.0 0.00049644
22210.0 0.00049294
22230.0 0.0004894
22250.0 0.00048576
22270.0 0.00048202
22290.0 0.00047822
22310.0 0.00047436
22330.0 0.00047031
22350.0 0.00046618
22370.0 0.00046198
22390.0 0.00045761
22410.0 0.00045301
22430.0 0.00044836
22450.0 0.00044357
22470.0 0.0004385
22490.0 0.00043328
22510.0 0.000428
22530.0 0.00042241
22550.0 0.00041658
22570.0 0.00041077
22590.0 0.00040484
22610.0 0.00039867
22630.0 0.00039247
22650.0 0.00038643
22670.0 0.00038023
22690.0 0.000374
22710.0 0.000368
22730.0 0.00036211
22750.0 0.00035611
22770.0 0.00035044
22790.0 0.00034508
22810.0 0.0003398
22830.0 0.00033472
22850.0 0.00033002
22870.0 0.00032552
22890.0 0.00032115
22910.0 0.0003171
22930.0 0.00031334
22950.0 0.00030971
22970.0 0.00030624
22990.0 0.00030311
23010.0 0.0003001
23030.0 0.00029719
23050.0 0.00029446
23070.0 0.00029187
23090.0 0.00028929
23110.0 0.0002868
23130.0 0.00028443
23150.0 0.0002821
23170.0 0.00027977
23190.0 0.00027752
23210.0 0.00027535
23230.0 0.00027317
23250.0 0.00027104
23270.0 0.000269
23290.0 0.000267
23310.0 0.00026502
23330.0 0.00026318
23350.0 0.00026141
23370.0 0.00025971
23390.0 0.00025809
23410.0 0.00025659
23430.0 0.00025516
23450.0 0.0002538
23470.0 0.00025254
23490.0 0.00025136
23510.0 0.00025024
23530.0 0.00024919
23550.0 0.00024822
23570.0 0.00024731
23590.0 0.00024646
23610.0 0.0002457
23630.0 0.00024502
23650.0 0.00024444
23670.0 0.00024398
23690.0 0.00024365
23710.0 0.00024349
23730.0 0.00024353
23750.0 0.00024376
23770.0 0.00024422
23790.0 0.00024499
23810.0 0.00024604
23830.0 0.00024733
23850.0 0.00024902
23870.0 0.00025109
23890.0 0.00025335
23910.0 0.00025592
23930.0 0.00025887
