#lamb flux
1010.0 9.0912e-10
1030.0 1.1844e-09
1050.0 1.5315e-09
1070.0 1.9617e-09
1090.0 2.4979e-09
1110.0 3.1175e-09
1130.0 3.8188e-09
1150.0 4.6265e-09
1170.0 5.5376e-09
1190.0 6.4993e-09
1210.0 7.5368e-09
1230.0 8.6507e-09
1250.0 9.7859e-09
1270.0 1.0908e-08
1290.0 1.2049e-08
1310.0 1.3139e-08
1330.0 1.4112e-08
1350.0 1.498e-08
1370.0 1.5734e-08
1390.0 1.6307e-08
1410.0 1.6686e-08
1430.0 1.6923e-08
1450.0 1.6985e-08
1470.0 1.686e-08
1490.0 1.6597e-08
1510.0 1.6243e-08
1530.0 1.5753e-08
1550.0 1.5181e-08
1570.0 1.458e-08
1590.0 1.3951e-08
1610.0 1.3296e-08
1630.0 1.2667e-08
1650.0 1.2072e-08
1670.0 1.1501e-08
1690.0 1.0971e-08
1710.0 1.0504e-08
1730.0 1.009e-08
1750.0 9.7156e-09
1770.0 9.4036e-09
1790.0 9.1498e-09
1810.0 8.9405e-09
1830.0 8.778e-09
1850.0 8.8731e-09
1870.0 9.1663e-09
1890.0 9.4391e-09
1910.0 9.703e-09
1930.0 9.9601e-09
1950.0 1.0175e-08
1970.0 1.0376e-08
1990.0 1.0588e-08
2010.0 1.0799e-08
2030.0 1.1006e-08
2050.0 1.1221e-08
2070.0 1.1411e-08
2090.0 1.1577e-08
2110.0 1.1734e-08
2130.0 1.1891e-08
2150.0 1.2038e-08
2170.0 1.217e-08
2190.0 1.2305e-08
2210.0 1.2581e-08
2230.0 1.3027e-08
2250.0 1.3487e-08
2270.0 1.397e-08
2290.0 1.4458e-08
2310.0 1.4946e-08
2330.0 1.5448e-08
2350.0 1.5957e-08
2370.0 1.6458e-08
2390.0 1.6961e-08
2410.0 1.7473e-08
2430.0 1.7974e-08
2450.0 1.8468e-08
2470.0 1.8972e-08
2490.0 1.95e-08
2510.0 2.005e-08
2530.0 2.068e-08
2550.0 2.1466e-08
2570.0 2.2463e-08
2590.0 2.3748e-08
2610.0 2.5566e-08
2630.0 2.8003e-08
2650.0 3.104e-08
2670.0 3.4866e-08
2690.0 3.9609e-08
2710.0 4.4919e-08
2730.0 5.0597e-08
2750.0 5.6824e-08
2770.0 6.3033e-08
2790.0 6.8752e-08
2810.0 7.4031e-08
2830.0 7.8855e-08
2850.0 8.2671e-08
2870.0 8.5829e-08
2890.0 8.8595e-08
2910.0 9.0986e-08
2930.0 9.3053e-08
2950.0 9.5102e-08
2970.0 9.7169e-08
2990.0 9.9179e-08
3010.0 1.0123e-07
3030.0 1.0344e-07
3050.0 1.0576e-07
3070.0 1.0806e-07
3090.0 1.1056e-07
3110.0 1.1327e-07
3130.0 1.1625e-07
3150.0 1.1859e-07
3170.0 1.2233e-07
3190.0 1.2751e-07
3210.0 1.3483e-07
3230.0 1.456e-07
3250.0 1.6209e-07
3270.0 1.8165e-07
3290.0 2.063e-07
3310.0 2.4404e-07
3330.0 2.5828e-07
3350.0 2.6642e-07
3370.0 2.7449e-07
3390.0 2.826e-07
3410.0 2.9028e-07
3430.0 2.9759e-07
3450.0 3.0479e-07
3470.0 3.1207e-07
3490.0 3.1835e-07
3510.0 3.2078e-07
3530.0 3.1439e-07
3550.0 3.0641e-07
3570.0 3.1616e-07
3590.0 3.4988e-07
3610.0 3.865e-07
3630.0 4.1743e-07
3650.0 4.0663e-07
3670.0 3.6662e-07
3690.0 3.3573e-07
3710.0 3.3112e-07
3730.0 3.42e-07
3750.0 3.4885e-07
3770.0 3.6058e-07
3790.0 3.7343e-07
3810.0 3.7477e-07
3830.0 3.4822e-07
3850.0 3.1978e-07
3870.0 3.0551e-07
3890.0 3.079e-07
3910.0 3.0569e-07
3930.0 3.0253e-07
3950.0 3.1299e-07
3970.0 3.251e-07
3990.0 3.259e-07
4010.0 3.1786e-07
4030.0 3.0053e-07
4050.0 2.881e-07
4070.0 2.7762e-07
4090.0 2.7114e-07
4110.0 2.6385e-07
4130.0 2.492e-07
4150.0 2.3296e-07
4170.0 2.2322e-07
4190.0 2.107e-07
4210.0 1.8999e-07
4230.0 1.6965e-07
4250.0 1.4918e-07
4270.0 1.3246e-07
4290.0 1.2328e-07
4310.0 1.1776e-07
4330.0 1.1734e-07
4350.0 1.2263e-07
4370.0 1.2372e-07
4390.0 1.3119e-07
4410.0 1.3613e-07
4430.0 1.3451e-07
4450.0 1.2092e-07
4470.0 1.0759e-07
4490.0 1.0176e-07
4510.0 9.7106e-08
4530.0 9.4478e-08
4550.0 9.1909e-08
4570.0 9.1214e-08
4590.0 9.2531e-08
4610.0 9.2637e-08
4630.0 9.266e-08
4650.0 9.155e-08
4670.0 8.9395e-08
4690.0 8.2736e-08
4710.0 7.6835e-08
4730.0 7.1905e-08
4750.0 6.9094e-08
4770.0 7.0202e-08
4790.0 6.9843e-08
4810.0 6.8419e-08
4830.0 6.9898e-08
4850.0 7.151e-08
4870.0 7.2618e-08
4890.0 7.1522e-08
4910.0 6.8653e-08
4930.0 6.4443e-08
4950.0 6.0109e-08
4970.0 5.5985e-08
4990.0 5.2598e-08
5010.0 5.2155e-08
5030.0 5.3835e-08
5050.0 5.5031e-08
5070.0 5.717e-08
5090.0 6.0581e-08
5110.0 6.1331e-08
5130.0 6.1964e-08
5150.0 6.2801e-08
5170.0 6.3931e-08
5190.0 6.5534e-08
5210.0 6.5732e-08
5230.0 6.5226e-08
5250.0 6.5288e-08
5270.0 6.5839e-08
5290.0 6.5848e-08
5310.0 6.5483e-08
5330.0 6.4095e-08
5350.0 6.3861e-08
5370.0 6.3029e-08
5390.0 6.1826e-08
5410.0 6.1282e-08
5430.0 6.0817e-08
5450.0 6.2249e-08
5470.0 6.3427e-08
5490.0 6.7118e-08
5510.0 6.895e-08
5530.0 6.9918e-08
5550.0 7.0299e-08
5570.0 7.1737e-08
5590.0 7.2047e-08
5610.0 7.1686e-08
5630.0 7.1507e-08
5650.0 7.091e-08
5670.0 6.9405e-08
5690.0 6.8081e-08
5710.0 6.6663e-08
5730.0 6.8009e-08
5750.0 6.5391e-08
5770.0 6.1807e-08
5790.0 5.885e-08
5810.0 5.3362e-08
5830.0 5.6144e-08
5850.0 5.926e-08
5870.0 5.9295e-08
5890.0 5.9488e-08
5910.0 6.1343e-08
5930.0 6.0709e-08
5950.0 6.0375e-08
5970.0 5.9806e-08
5990.0 5.9746e-08
6010.0 5.768e-08
6030.0 5.6202e-08
6050.0 5.5213e-08
6070.0 5.3783e-08
6090.0 5.3779e-08
6110.0 5.2557e-08
6130.0 5.0303e-08
6150.0 4.859e-08
6170.0 4.7069e-08
6190.0 4.3152e-08
6210.0 4.1984e-08
6230.0 4.2033e-08
6250.0 4.1134e-08
6270.0 4.0294e-08
6290.0 4.079e-08
6310.0 4.1561e-08
6330.0 4.0925e-08
6350.0 3.9511e-08
6370.0 3.9201e-08
6390.0 3.7392e-08
6410.0 3.6876e-08
6430.0 3.5443e-08
6450.0 3.5051e-08
6470.0 3.4716e-08
6490.0 3.4464e-08
6510.0 3.2924e-08
6530.0 3.2421e-08
6550.0 3.1735e-08
6570.0 3.0709e-08
6590.0 3.1287e-08
6610.0 3.1185e-08
6630.0 3.0379e-08
6650.0 2.9079e-08
6670.0 2.8477e-08
6690.0 2.7875e-08
6710.0 2.7e-08
6730.0 2.656e-08
6750.0 2.6764e-08
6770.0 2.7497e-08
6790.0 2.8054e-08
6810.0 2.7198e-08
6830.0 2.5821e-08
6850.0 2.4275e-08
6870.0 2.3933e-08
6890.0 2.3846e-08
6910.0 2.3848e-08
6930.0 2.3657e-08
6950.0 2.4024e-08
6970.0 2.3382e-08
6990.0 2.3177e-08
7010.0 2.3433e-08
7030.0 2.3934e-08
7050.0 2.3626e-08
7070.0 2.2317e-08
7090.0 2.1478e-08
7110.0 2.2092e-08
7130.0 2.2137e-08
7150.0 2.2437e-08
7170.0 2.2531e-08
7190.0 2.2747e-08
7210.0 2.3437e-08
7230.0 2.4552e-08
7250.0 2.4767e-08
7270.0 2.5116e-08
7290.0 2.5893e-08
7310.0 2.5611e-08
7330.0 2.5246e-08
7350.0 2.4571e-08
7370.0 2.4929e-08
7390.0 2.5718e-08
7410.0 2.4555e-08
7430.0 2.5048e-08
7450.0 2.5128e-08
7470.0 2.6246e-08
7490.0 2.6307e-08
7510.0 2.5421e-08
7530.0 2.6173e-08
7550.0 2.5194e-08
7570.0 2.5284e-08
7590.0 2.4299e-08
7610.0 2.5201e-08
7630.0 2.5834e-08
7650.0 2.6965e-08
7670.0 2.5647e-08
7690.0 2.7132e-08
7710.0 2.7809e-08
7730.0 2.8433e-08
7750.0 2.9549e-08
7770.0 2.9512e-08
7790.0 2.9474e-08
7810.0 3.0187e-08
7830.0 3.2095e-08
7850.0 3.1594e-08
7870.0 3.3242e-08
7890.0 3.281e-08
7910.0 3.2622e-08
7930.0 3.2493e-08
7950.0 3.4281e-08
7970.0 3.4036e-08
7990.0 3.1841e-08
8010.0 1.7658e-08
8030.0 1.9154e-08
8050.0 2.0198e-08
8070.0 1.7027e-08
8090.0 5.9768e-09
8110.0 7.6939e-09
8130.0 1.6142e-08
8150.0 1.7311e-08
8170.0 1.7852e-08
8190.0 1.7386e-08
8210.0 1.8134e-08
8230.0 2.1278e-08
8250.0 2.2446e-08
8270.0 1.958e-08
8290.0 1.7992e-08
8310.0 1.8568e-08
8330.0 2.1755e-08
8350.0 2.2857e-08
8370.0 2.155e-08
8390.0 2.0331e-08
8410.0 2.0478e-08
8430.0 1.8814e-08
8450.0 2.0451e-08
8470.0 2.2218e-08
8490.0 2.2283e-08
8510.0 2.0781e-08
8530.0 1.7951e-08
8550.0 1.669e-08
8570.0 1.6505e-08
8590.0 1.6932e-08
8610.0 1.9095e-08
8630.0 1.8915e-08
8650.0 1.9362e-08
8670.0 1.8013e-08
8690.0 1.7654e-08
8710.0 1.5347e-08
8730.0 1.521e-08
8750.0 1.696e-08
8770.0 1.7692e-08
8790.0 1.6203e-08
8810.0 1.7528e-08
8830.0 1.8655e-08
8850.0 1.9094e-08
8870.0 1.7696e-08
8890.0 1.7332e-08
8910.0 1.6958e-08
8930.0 1.4357e-08
8950.0 1.4895e-08
8970.0 1.5429e-08
8990.0 1.4591e-08
9010.0 1.3815e-08
9030.0 1.3448e-08
9050.0 1.3296e-08
9070.0 1.3158e-08
9090.0 1.3019e-08
9110.0 1.2878e-08
9130.0 1.2738e-08
9150.0 1.2598e-08
9170.0 1.2458e-08
9190.0 1.2317e-08
9210.0 1.2177e-08
9230.0 1.2037e-08
9250.0 1.1896e-08
9270.0 1.1757e-08
9290.0 1.1618e-08
9310.0 1.1469e-08
9330.0 1.1304e-08
9350.0 1.114e-08
9370.0 1.0977e-08
9390.0 1.0817e-08
9410.0 1.0657e-08
9430.0 1.0498e-08
9450.0 1.0342e-08
9470.0 1.0182e-08
9490.0 1.0026e-08
9510.0 9.8773e-09
9530.0 9.7299e-09
9550.0 9.5827e-09
9570.0 9.4367e-09
9590.0 9.2931e-09
9610.0 9.1321e-09
9630.0 8.9706e-09
9650.0 8.8119e-09
9670.0 8.657e-09
9690.0 8.5029e-09
9710.0 8.3512e-09
9730.0 8.2029e-09
9750.0 8.0569e-09
9770.0 7.9114e-09
9790.0 7.7698e-09
9810.0 7.6312e-09
9830.0 7.4938e-09
9850.0 7.3654e-09
9870.0 7.2463e-09
9890.0 7.1086e-09
9910.0 6.9761e-09
9930.0 6.8509e-09
9950.0 6.727e-09
9970.0 6.6043e-09
9990.0 6.4846e-09
10010.0 6.3682e-09
10030.0 6.254e-09
10050.0 6.142e-09
10070.0 6.0325e-09
10090.0 5.9254e-09
10110.0 5.8198e-09
10130.0 5.7166e-09
10150.0 5.6155e-09
10170.0 5.5163e-09
10190.0 5.4188e-09
10210.0 5.3235e-09
10230.0 5.2303e-09
10250.0 5.1386e-09
10270.0 5.0488e-09
10290.0 4.9611e-09
10310.0 4.8748e-09
10330.0 4.7901e-09
10350.0 4.7073e-09
10370.0 4.6262e-09
10390.0 4.5455e-09
10410.0 4.4532e-09
10430.0 4.3585e-09
10450.0 4.2992e-09
10470.0 4.2325e-09
10490.0 4.1658e-09
10510.0 4.0989e-09
10530.0 4.0296e-09
10550.0 3.962e-09
10570.0 3.8968e-09
10590.0 3.8314e-09
10610.0 3.7664e-09
10630.0 3.7042e-09
10650.0 3.643e-09
10670.0 3.5811e-09
10690.0 3.5213e-09
10710.0 3.4636e-09
10730.0 3.4056e-09
10750.0 3.3474e-09
10770.0 3.2928e-09
10790.0 3.2386e-09
10810.0 3.184e-09
10830.0 3.1312e-09
10850.0 3.0805e-09
10870.0 3.0284e-09
10890.0 2.9776e-09
10910.0 2.9297e-09
10930.0 2.8829e-09
10950.0 2.8371e-09
10970.0 2.7947e-09
10990.0 2.7563e-09
11010.0 1.1035e-08
11030.0 1.0957e-08
11050.0 1.0875e-08
11070.0 1.0789e-08
11090.0 1.0696e-08
11110.0 1.0604e-08
11130.0 1.051e-08
11150.0 1.0413e-08
11170.0 1.0315e-08
11190.0 1.0219e-08
11210.0 1.0121e-08
11230.0 1.0021e-08
11250.0 9.9236e-09
11270.0 9.8284e-09
11290.0 9.732e-09
11310.0 9.6379e-09
11330.0 9.5502e-09
11350.0 9.464e-09
11370.0 9.3799e-09
11390.0 9.3012e-09
11410.0 9.2265e-09
11430.0 9.1522e-09
11450.0 9.0817e-09
11470.0 9.0151e-09
11490.0 8.9493e-09
11510.0 8.8836e-09
11530.0 8.8207e-09
11550.0 8.7584e-09
11570.0 8.6946e-09
11590.0 8.6308e-09
11610.0 8.5678e-09
11630.0 8.5024e-09
11650.0 8.4348e-09
11670.0 8.3684e-09
11690.0 8.3011e-09
11710.0 8.2311e-09
11730.0 8.1609e-09
11750.0 8.0921e-09
11770.0 8.0209e-09
11790.0 7.9487e-09
11810.0 7.8785e-09
11830.0 7.8088e-09
11850.0 7.7369e-09
11870.0 7.6679e-09
11890.0 7.602e-09
11910.0 7.5363e-09
11930.0 7.4722e-09
11950.0 7.4124e-09
11970.0 7.3549e-09
11990.0 7.2985e-09
12010.0 7.2465e-09
12030.0 7.1983e-09
12050.0 7.1524e-09
12070.0 7.1092e-09
12090.0 7.071e-09
12110.0 7.0353e-09
12130.0 7.0019e-09
12150.0 6.9717e-09
12170.0 6.9441e-09
12190.0 6.9175e-09
12210.0 6.8925e-09
12230.0 6.8688e-09
12250.0 6.8453e-09
12270.0 6.8211e-09
12290.0 6.7964e-09
12310.0 6.7708e-09
12330.0 6.7428e-09
12350.0 6.7124e-09
12370.0 6.6801e-09
12390.0 6.6449e-09
12410.0 6.605e-09
12430.0 6.5635e-09
12450.0 6.5195e-09
12470.0 6.4714e-09
12490.0 6.4203e-09
12510.0 6.3686e-09
12530.0 6.3133e-09
12550.0 6.2546e-09
12570.0 6.1957e-09
12590.0 6.1359e-09
12610.0 6.0726e-09
12630.0 6.0086e-09
12650.0 5.9471e-09
12670.0 5.8839e-09
12690.0 5.8198e-09
12710.0 5.7582e-09
12730.0 5.6981e-09
12750.0 5.6363e-09
12770.0 5.5773e-09
12790.0 5.5216e-09
12810.0 5.4669e-09
12830.0 5.4132e-09
12850.0 5.3642e-09
12870.0 5.3179e-09
12890.0 5.2729e-09
12910.0 5.2316e-09
12930.0 5.1944e-09
12950.0 5.1593e-09
12970.0 5.1271e-09
12990.0 5.0999e-09
13010.0 5.0761e-09
13030.0 5.0553e-09
13050.0 5.0383e-09
13070.0 5.025e-09
13090.0 5.0141e-09
13110.0 5.0059e-09
13130.0 4.9999e-09
13150.0 4.9954e-09
13170.0 4.9917e-09
13190.0 4.9884e-09
13210.0 4.9847e-09
13230.0 4.9801e-09
13250.0 4.9741e-09
13270.0 4.9665e-09
13290.0 4.9568e-09
13310.0 4.9444e-09
13330.0 4.9297e-09
13350.0 4.9128e-09
13370.0 4.8929e-09
13390.0 4.8698e-09
13410.0 4.8455e-09
13430.0 4.8184e-09
13450.0 4.7881e-09
13470.0 4.7562e-09
13490.0 4.7232e-09
13510.0 4.686e-09
13530.0 4.6475e-09
13550.0 4.6089e-09
13570.0 4.5684e-09
13590.0 4.5255e-09
13610.0 4.483e-09
13630.0 4.441e-09
13650.0 4.3964e-09
13670.0 4.3516e-09
13690.0 4.3081e-09
13710.0 4.2637e-09
13730.0 4.217e-09
13750.0 4.173e-09
13770.0 4.1296e-09
13790.0 4.0851e-09
13810.0 4.0414e-09
13830.0 4.0002e-09
13850.0 3.9583e-09
13870.0 3.9164e-09
13890.0 3.877e-09
13910.0 3.839e-09
13930.0 3.8006e-09
13950.0 3.7636e-09
13970.0 3.7298e-09
13990.0 3.6962e-09
14010.0 3.6634e-09
14030.0 3.6331e-09
14050.0 3.6044e-09
14070.0 3.5754e-09
14090.0 3.5488e-09
14110.0 3.5244e-09
14130.0 3.5007e-09
14150.0 3.4777e-09
14170.0 3.4572e-09
14190.0 3.4378e-09
14210.0 3.4186e-09
14230.0 3.4007e-09
14250.0 3.3842e-09
14270.0 3.3676e-09
14290.0 3.3513e-09
14310.0 3.3364e-09
14330.0 3.3219e-09
14350.0 3.3073e-09
14370.0 3.2935e-09
14390.0 3.2805e-09
14410.0 3.2674e-09
14430.0 3.2545e-09
14450.0 3.2424e-09
14470.0 3.2307e-09
14490.0 3.2185e-09
14510.0 3.2071e-09
14530.0 3.1962e-09
14550.0 3.185e-09
14570.0 3.1737e-09
14590.0 3.163e-09
14610.0 3.152e-09
14630.0 3.1403e-09
14650.0 3.129e-09
14670.0 3.1178e-09
14690.0 3.1059e-09
14710.0 3.0936e-09
14730.0 3.082e-09
14750.0 3.0697e-09
14770.0 3.0568e-09
14790.0 3.044e-09
14810.0 3.0313e-09
14830.0 3.0171e-09
14850.0 3.0029e-09
14870.0 2.989e-09
14890.0 2.9746e-09
14910.0 2.9597e-09
14930.0 2.9456e-09
14950.0 2.9325e-09
14970.0 2.9195e-09
14990.0 2.9079e-09
15010.0 2.8982e-09
15030.0 2.8895e-09
15050.0 2.8817e-09
15070.0 2.8757e-09
15090.0 2.8703e-09
15110.0 2.8652e-09
15130.0 2.8605e-09
15150.0 2.8562e-09
15170.0 2.8518e-09
15190.0 2.8472e-09
15210.0 2.8428e-09
15230.0 2.8384e-09
15250.0 2.8337e-09
15270.0 2.8291e-09
15290.0 2.8247e-09
15310.0 2.82e-09
15330.0 2.8153e-09
15350.0 2.8107e-09
15370.0 2.806e-09
15390.0 2.801e-09
15410.0 2.7961e-09
15430.0 2.7914e-09
15450.0 2.7864e-09
15470.0 2.7812e-09
15490.0 2.7763e-09
15510.0 2.7713e-09
15530.0 2.766e-09
15550.0 2.7609e-09
15570.0 2.7558e-09
15590.0 2.7504e-09
15610.0 2.7448e-09
15630.0 2.7396e-09
15650.0 2.7342e-09
15670.0 2.7286e-09
15690.0 2.723e-09
15710.0 2.7176e-09
15730.0 2.7119e-09
15750.0 2.706e-09
15770.0 2.7004e-09
15790.0 2.6947e-09
15810.0 2.6885e-09
15830.0 2.6826e-09
15850.0 2.6768e-09
15870.0 2.6707e-09
15890.0 2.6645e-09
15910.0 2.6586e-09
15930.0 2.6524e-09
15950.0 2.6459e-09
15970.0 2.6397e-09
15990.0 2.6334e-09
16010.0 2.6269e-09
16030.0 2.6203e-09
16050.0 2.614e-09
16070.0 2.6075e-09
16090.0 2.6007e-09
16110.0 2.5941e-09
16130.0 2.5876e-09
16150.0 2.5806e-09
16170.0 2.5737e-09
16190.0 2.567e-09
16210.0 2.5601e-09
16230.0 2.553e-09
16250.0 2.5461e-09
16270.0 2.5392e-09
16290.0 2.532e-09
16310.0 2.5248e-09
16330.0 2.5178e-09
16350.0 2.5106e-09
16370.0 2.503e-09
16390.0 2.4958e-09
16410.0 2.4886e-09
16430.0 2.4811e-09
16450.0 2.4736e-09
16470.0 2.4664e-09
16490.0 2.4588e-09
16510.0 2.4511e-09
16530.0 2.4436e-09
16550.0 2.4361e-09
16570.0 2.4283e-09
16590.0 2.4205e-09
16610.0 2.413e-09
16630.0 2.4052e-09
16650.0 2.3973e-09
16670.0 2.3897e-09
16690.0 2.382e-09
16710.0 2.3738e-09
16730.0 2.3659e-09
16750.0 2.3582e-09
16770.0 2.3501e-09
16790.0 2.342e-09
16810.0 2.3342e-09
16830.0 2.3262e-09
16850.0 2.3181e-09
16870.0 2.31e-09
16890.0 2.3021e-09
16910.0 2.2938e-09
16930.0 2.2855e-09
16950.0 2.2775e-09
16970.0 2.2694e-09
16990.0 2.2611e-09
17010.0 2.2529e-09
17030.0 2.2449e-09
17050.0 2.2365e-09
17070.0 2.2282e-09
17090.0 2.2201e-09
17110.0 2.2118e-09
17130.0 2.2033e-09
17150.0 2.195e-09
17170.0 2.1869e-09
17190.0 2.1785e-09
17210.0 2.1701e-09
17230.0 2.1619e-09
17250.0 2.1536e-09
17270.0 2.145e-09
17290.0 2.1367e-09
17310.0 2.1285e-09
17330.0 2.12e-09
17350.0 2.1115e-09
17370.0 2.1033e-09
17390.0 2.0949e-09
17410.0 2.0864e-09
17430.0 2.0781e-09
17450.0 2.0699e-09
17470.0 2.0613e-09
17490.0 2.0528e-09
17510.0 2.0445e-09
17530.0 2.0362e-09
17550.0 2.0276e-09
17570.0 2.0193e-09
17590.0 2.0111e-09
17610.0 2.0026e-09
17630.0 1.9941e-09
17650.0 1.9859e-09
17670.0 1.9775e-09
17690.0 1.9689e-09
17710.0 1.9607e-09
17730.0 1.9524e-09
17750.0 1.9439e-09
17770.0 1.9356e-09
17790.0 1.9275e-09
17810.0 1.919e-09
17830.0 1.9106e-09
17850.0 1.9023e-09
17870.0 1.8941e-09
17890.0 1.8856e-09
17910.0 1.8773e-09
17930.0 1.8692e-09
17950.0 1.8609e-09
17970.0 1.8525e-09
17990.0 1.8444e-09
18010.0 1.8363e-09
18030.0 1.8278e-09
18050.0 1.8196e-09
18070.0 1.8115e-09
18090.0 1.8033e-09
18110.0 1.795e-09
18130.0 1.787e-09
18150.0 1.7789e-09
18170.0 1.7706e-09
18190.0 1.7625e-09
18210.0 1.7546e-09
18230.0 1.7463e-09
18250.0 1.738e-09
18270.0 1.7301e-09
18290.0 1.7221e-09
18310.0 1.7139e-09
18330.0 1.7059e-09
18350.0 1.6981e-09
18370.0 1.69e-09
18390.0 1.6819e-09
18410.0 1.6741e-09
18430.0 1.6662e-09
18450.0 1.658e-09
18470.0 1.6501e-09
18490.0 1.6423e-09
18510.0 1.6344e-09
18530.0 1.6264e-09
18550.0 1.6188e-09
18570.0 1.6109e-09
18590.0 1.6029e-09
18610.0 1.5951e-09
18630.0 1.5874e-09
18650.0 1.5795e-09
18670.0 1.5716e-09
18690.0 1.5641e-09
18710.0 1.5564e-09
18730.0 1.5485e-09
18750.0 1.5409e-09
18770.0 1.5334e-09
18790.0 1.5255e-09
18810.0 1.5178e-09
18830.0 1.5103e-09
18850.0 1.5027e-09
18870.0 1.4949e-09
18890.0 1.4875e-09
18910.0 1.48e-09
18930.0 1.4723e-09
18950.0 1.4648e-09
18970.0 1.4574e-09
18990.0 1.4499e-09
19010.0 1.4421e-09
19030.0 1.4348e-09
19050.0 1.4275e-09
19070.0 1.4199e-09
19090.0 1.4125e-09
19110.0 1.4053e-09
19130.0 1.3978e-09
19150.0 1.3903e-09
19170.0 1.383e-09
19190.0 1.3758e-09
19210.0 1.3683e-09
19230.0 1.3609e-09
19250.0 1.3538e-09
19270.0 1.3465e-09
19290.0 1.3391e-09
19310.0 1.332e-09
19330.0 1.3249e-09
19350.0 1.3174e-09
19370.0 1.3102e-09
19390.0 1.3032e-09
19410.0 1.2959e-09
19430.0 1.2886e-09
19450.0 1.2817e-09
19470.0 1.2746e-09
19490.0 1.2673e-09
19510.0 1.2603e-09
19530.0 1.2533e-09
19550.0 1.2461e-09
19570.0 1.2388e-09
19590.0 1.232e-09
19610.0 1.225e-09
19630.0 1.2178e-09
19650.0 1.2108e-09
19670.0 1.204e-09
19690.0 1.1969e-09
19710.0 1.1898e-09
19730.0 1.183e-09
19750.0 1.176e-09
19770.0 1.1688e-09
19790.0 1.162e-09
19810.0 1.1552e-09
19830.0 1.1482e-09
19850.0 1.1413e-09
19870.0 1.1346e-09
19890.0 1.1278e-09
19910.0 1.121e-09
19930.0 1.1146e-09
19950.0 1.1086e-09
19970.0 1.1028e-09
19990.0 1.0976e-09
20010.0 1.0932e-09
20030.0 1.0893e-09
20050.0 1.086e-09
20070.0 1.0834e-09
20090.0 1.0812e-09
20110.0 1.0793e-09
20130.0 1.0777e-09
20150.0 1.0763e-09
20170.0 1.0749e-09
20190.0 1.0736e-09
20210.0 1.0723e-09
20230.0 1.071e-09
20250.0 1.0697e-09
20270.0 1.0684e-09
20290.0 1.067e-09
20310.0 1.0655e-09
20330.0 1.0639e-09
20350.0 1.0623e-09
20370.0 1.0606e-09
20390.0 1.0588e-09
20410.0 1.0569e-09
20430.0 1.055e-09
20450.0 1.053e-09
20470.0 1.0509e-09
20490.0 1.0488e-09
20510.0 1.0467e-09
20530.0 1.0445e-09
20550.0 1.0424e-09
20570.0 1.0404e-09
20590.0 1.0383e-09
20610.0 1.0363e-09
20630.0 1.0344e-09
20650.0 1.0325e-09
20670.0 1.0305e-09
20690.0 1.0286e-09
20710.0 1.0268e-09
20730.0 1.0248e-09
20750.0 1.0228e-09
20770.0 1.0208e-09
20790.0 1.0186e-09
20810.0 1.0162e-09
20830.0 1.0137e-09
20850.0 1.0111e-09
20870.0 1.0081e-09
20890.0 1.005e-09
20910.0 1.0017e-09
20930.0 9.9824e-10
20950.0 9.945e-10
20970.0 9.9071e-10
20990.0 9.8683e-10
21010.0 9.8267e-10
21030.0 9.7846e-10
21050.0 9.7432e-10
21070.0 9.7008e-10
21090.0 9.6568e-10
21110.0 9.6148e-10
21130.0 9.5732e-10
21150.0 9.5304e-10
21170.0 9.4881e-10
21190.0 9.4472e-10
21210.0 9.4049e-10
21230.0 9.3617e-10
21250.0 9.3197e-10
21270.0 9.2773e-10
21290.0 9.2329e-10
21310.0 9.1879e-10
21330.0 9.1437e-10
21350.0 9.097e-10
21370.0 9.0486e-10
21390.0 9.0142e-10
21410.0 8.9793e-10
21430.0 8.9412e-10
21450.0 8.9035e-10
21470.0 8.8662e-10
21490.0 8.827e-10
21510.0 8.7865e-10
21530.0 8.7472e-10
21550.0 8.7071e-10
21570.0 8.6648e-10
21590.0 8.6233e-10
21610.0 8.5828e-10
21630.0 8.5407e-10
21650.0 8.4973e-10
21670.0 8.4572e-10
21690.0 8.4166e-10
21710.0 8.3748e-10
21730.0 8.3342e-10
21750.0 8.2954e-10
21770.0 8.2542e-10
21790.0 8.2135e-10
21810.0 8.1747e-10
21830.0 8.1357e-10
21850.0 8.0952e-10
21870.0 8.0562e-10
21890.0 8.0187e-10
21910.0 7.9796e-10
21930.0 7.9409e-10
21950.0 7.9041e-10
21970.0 7.8671e-10
21990.0 7.8287e-10
22010.0 7.7933e-10
22030.0 7.7594e-10
22050.0 7.7252e-10
22070.0 7.6885e-10
22090.0 7.648e-10
22110.0 7.6079e-10
22130.0 7.5685e-10
22150.0 7.532e-10
22170.0 7.4976e-10
22190.0 7.4633e-10
22210.0 7.431e-10
22230.0 7.4017e-10
22250.0 7.3731e-10
22270.0 7.3452e-10
22290.0 7.3192e-10
22310.0 7.2945e-10
22330.0 7.2693e-10
22350.0 7.245e-10
22370.0 7.2219e-10
22390.0 7.1984e-10
22410.0 7.1744e-10
22430.0 7.1514e-10
22450.0 7.1283e-10
22470.0 7.1043e-10
22490.0 7.0802e-10
22510.0 7.0567e-10
22530.0 7.0321e-10
22550.0 7.0068e-10
22570.0 6.9823e-10
22590.0 6.9579e-10
22610.0 6.9326e-10
22630.0 6.9079e-10
