#lamb flux
1010.0 4.5517e-07
1030.0 5.1275e-07
1050.0 5.7897e-07
1070.0 6.5352e-07
1090.0 7.382e-07
1110.0 8.2504e-07
1130.0 9.1246e-07
1150.0 1.004e-06
1170.0 1.0985e-06
1190.0 1.188e-06
1210.0 1.2788e-06
1230.0 1.3726e-06
1250.0 1.4645e-06
1270.0 1.5537e-06
1290.0 1.6481e-06
1310.0 1.7423e-06
1330.0 1.8327e-06
1350.0 1.924e-06
1370.0 2.0184e-06
1390.0 2.1104e-06
1410.0 2.1996e-06
1430.0 2.2929e-06
1450.0 2.3861e-06
1470.0 2.4763e-06
1490.0 2.5673e-06
1510.0 2.6635e-06
1530.0 2.7546e-06
1550.0 2.8445e-06
1570.0 2.9374e-06
1590.0 3.0304e-06
1610.0 3.1191e-06
1630.0 3.2106e-06
1650.0 3.3044e-06
1670.0 3.395e-06
1690.0 3.4844e-06
1710.0 3.5771e-06
1730.0 3.6701e-06
1750.0 3.7574e-06
1770.0 3.847e-06
1790.0 3.9383e-06
1810.0 4.0263e-06
1830.0 4.1124e-06
1850.0 4.2035e-06
1870.0 4.2917e-06
1890.0 4.3764e-06
1910.0 4.4622e-06
1930.0 4.5495e-06
1950.0 4.6319e-06
1970.0 4.7124e-06
1990.0 4.7952e-06
2010.0 4.8754e-06
2030.0 4.9513e-06
2050.0 5.0285e-06
2070.0 5.1064e-06
2090.0 5.1775e-06
2110.0 5.2467e-06
2130.0 5.3165e-06
2150.0 5.3825e-06
2170.0 5.4426e-06
2190.0 5.5035e-06
2210.0 5.5623e-06
2230.0 5.6149e-06
2250.0 5.6644e-06
2270.0 5.7144e-06
2290.0 5.7586e-06
2310.0 5.7962e-06
2330.0 5.8329e-06
2350.0 5.867e-06
2370.0 5.8947e-06
2390.0 5.921e-06
2410.0 5.9502e-06
2430.0 5.9779e-06
2450.0 6.0069e-06
2470.0 6.0451e-06
2490.0 6.0959e-06
2510.0 6.1549e-06
2530.0 6.2417e-06
2550.0 6.3846e-06
2570.0 6.6093e-06
2590.0 6.9538e-06
2610.0 7.5263e-06
2630.0 8.3574e-06
2650.0 9.4064e-06
2670.0 1.0692e-05
2690.0 1.2164e-05
2710.0 1.3601e-05
2730.0 1.4888e-05
2750.0 1.6034e-05
2770.0 1.6902e-05
2790.0 1.7473e-05
2810.0 1.7832e-05
2830.0 1.8035e-05
2850.0 1.8081e-05
2870.0 1.8049e-05
2890.0 1.798e-05
2910.0 1.7883e-05
2930.0 1.7765e-05
2950.0 1.765e-05
2970.0 1.7538e-05
2990.0 1.7422e-05
3010.0 0.00040713
3030.0 0.00040441
3050.0 0.00040173
3070.0 0.00039876
3090.0 0.00039566
3110.0 0.00039203
3130.0 0.00038738
3150.0 0.00038147
3170.0 0.00037384
3190.0 0.00036465
3210.0 0.00035461
3230.0 0.00034441
3250.0 0.00033542
3270.0 0.00032922
3290.0 0.00032658
3310.0 0.0003281
3330.0 0.00033391
3350.0 0.00034317
3370.0 0.00035606
3390.0 0.00037215
3410.0 0.00038963
3430.0 0.00040933
3450.0 0.00043201
3470.0 0.0004567
3490.0 0.00048279
3510.0 0.00051207
3530.0 0.00054337
3550.0 0.00057524
3570.0 0.00060898
3590.0 0.00064675
3610.0 0.00068663
3630.0 0.00072828
3650.0 0.00077202
3670.0 0.00081296
3690.0 0.00084477
3710.0 0.00086381
3730.0 0.00086452
3750.0 0.0008465
3770.0 0.00079275
3790.0 0.00072415
3810.0 0.00065239
3830.0 0.00057793
3850.0 0.0004832
3870.0 0.00034556
3890.0 0.00050035
3910.0 0.00079396
3930.0 0.00097008
3950.0 0.00096149
3970.0 0.0010166
3990.0 0.0011364
4010.0 0.0015121
4030.0 0.0014967
4050.0 0.0013186
4070.0 0.0012208
4090.0 0.0011609
4110.0 0.0013741
4130.0 0.0014773
4150.0 0.0015195
4170.0 0.0014776
4190.0 0.0014732
4210.0 0.0014787
4230.0 0.0016764
4250.0 0.0018499
4270.0 0.0018993
4290.0 0.0018922
4310.0 0.0018994
4330.0 0.0020693
4350.0 0.0024341
4370.0 0.0027898
4390.0 0.0025723
4410.0 0.0020105
4430.0 0.0016625
4450.0 0.0014356
4470.0 0.0013609
4490.0 0.0015487
4510.0 0.001864
4530.0 0.0020957
4550.0 0.0023668
4570.0 0.002699
4590.0 0.003222
4610.0 0.0043708
4630.0 0.0054443
4650.0 0.0055077
4670.0 0.0052128
4690.0 0.0055534
4710.0 0.0058992
4730.0 0.0049597
4750.0 0.0034606
4770.0 0.002772
4790.0 0.0027388
4810.0 0.0025778
4830.0 0.0024416
4850.0 0.0027729
4870.0 0.0036118
4890.0 0.0041889
4910.0 0.0034863
4930.0 0.0030973
4950.0 0.0034708
4970.0 0.0046727
4990.0 0.0061338
5010.0 0.0066378
5030.0 0.0054518
5050.0 0.0034463
5070.0 0.002371
5090.0 0.0020729
5110.0 0.0021432
5130.0 0.0023326
5150.0 0.0024228
5170.0 0.0024056
5190.0 0.0023332
5210.0 0.0022817
5230.0 0.0023978
5250.0 0.002594
5270.0 0.0028885
5290.0 0.0033146
5310.0 0.0037567
5330.0 0.0038625
5350.0 0.0038633
5370.0 0.0042212
5390.0 0.0046843
5410.0 0.0044779
5430.0 0.0037814
5450.0 0.0034984
5470.0 0.0039302
5490.0 0.0050426
5510.0 0.0064451
5530.0 0.0072312
5550.0 0.0069212
5570.0 0.0062375
5590.0 0.0054852
5610.0 0.0051288
5630.0 0.0049736
5650.0 0.0050212
5670.0 0.0048622
5690.0 0.0044144
5710.0 0.0042293
5730.0 0.0038973
5750.0 0.0026504
5770.0 0.0022558
5790.0 0.0025716
5810.0 0.0030852
5830.0 0.0036445
5850.0 0.0041096
5870.0 0.0042572
5890.0 0.0041056
5910.0 0.0039322
5930.0 0.0039216
5950.0 0.0040985
5970.0 0.0044913
5990.0 0.0041752
6010.0 0.0034643
6030.0 0.0028684
6050.0 0.0024885
6070.0 0.0025307
6090.0 0.0028662
6110.0 0.0031338
6130.0 0.0029987
6150.0 0.002694
6170.0 0.0028331
6190.0 0.0034324
6210.0 0.0043186
6230.0 0.0051574
6250.0 0.0052197
6270.0 0.0045723
6290.0 0.0037988
6310.0 0.0029992
6330.0 0.0023528
6350.0 0.0021267
6370.0 0.0022825
6390.0 0.0027184
6410.0 0.0031894
6430.0 0.0037203
6450.0 0.0043656
6470.0 0.0052221
6490.0 0.0064329
6510.0 0.0071588
6530.0 0.0067129
6550.0 0.0061483
6570.0 0.0058284
6590.0 0.0056124
6610.0 0.0049379
6630.0 0.0045205
6650.0 0.0041666
6670.0 0.0042448
6690.0 0.0040951
6710.0 0.0036712
6730.0 0.0031575
6750.0 0.0029001
6770.0 0.0029372
6790.0 0.0033483
6810.0 0.0032784
6830.0 0.0033699
6850.0 0.0032534
6870.0 0.0031086
6890.0 0.0029984
6910.0 0.0029525
6930.0 0.0027626
6950.0 0.0028717
6970.0 0.0029028
6990.0 0.0032442
7010.0 0.0034394
7030.0 0.0032221
7050.0 0.002999
7070.0 0.0028916
7090.0 0.0027066
7110.0 0.0025667
7130.0 0.0026582
7150.0 0.0028366
7170.0 0.0030384
7190.0 0.0030806
7210.0 0.0029886
7230.0 0.0030824
7250.0 0.0035036
7270.0 0.0040749
7290.0 0.0044981
7310.0 0.0044375
7330.0 0.0039591
7350.0 0.0035383
7370.0 0.00328
7390.0 0.003322
7410.0 0.0035548
7430.0 0.0038974
7450.0 0.0042155
7470.0 0.0045308
7490.0 0.0049198
7510.0 0.0051974
7530.0 0.0048497
7550.0 0.0040837
7570.0 0.0032106
7590.0 0.0023648
7610.0 0.0021002
7630.0 0.0022728
7650.0 0.0026325
7670.0 0.0030545
7690.0 0.0034643
7710.0 0.0037001
7730.0 0.0038021
7750.0 0.0039734
7770.0 0.00396
7790.0 0.0038126
7810.0 0.0038019
7830.0 0.0037302
7850.0 0.0034069
7870.0 0.0030964
7890.0 0.0027795
7910.0 0.0023721
7930.0 0.0020716
7950.0 0.0018779
7970.0 0.0018272
7990.0 0.001876
8010.0 0.0019778
8030.0 0.001982
8050.0 0.0019965
8070.0 0.0019641
8090.0 0.0020122
8110.0 0.0018981
8130.0 0.0016614
8150.0 0.001561
8170.0 0.0014388
8190.0 0.0014241
8210.0 0.0015268
8230.0 0.0016335
8250.0 0.0015139
8270.0 0.0013496
8290.0 0.001109
8310.0 0.00076438
8330.0 0.00049613
8350.0 0.0003614
8370.0 0.00038416
8390.0 0.00045498
8410.0 0.00057799
8430.0 0.00070633
8450.0 0.00077993
8470.0 0.00086539
8490.0 0.00085077
8510.0 0.00085522
8530.0 0.00089325
8550.0 0.0010814
8570.0 0.0013323
8590.0 0.0015224
8610.0 0.0018403
8630.0 0.0021334
8650.0 0.0022449
8670.0 0.0022823
8690.0 0.0022689
8710.0 0.0021217
8730.0 0.0020367
8750.0 0.0018849
8770.0 0.0018101
8790.0 0.0017959
8810.0 0.0017122
8830.0 0.0014404
8850.0 0.001187
8870.0 0.00098997
8890.0 0.00096771
8910.0 0.0010453
8930.0 0.0011094
8950.0 0.0012452
8970.0 0.0012649
8990.0 0.0012453
9010.0 0.0011976
9030.0 0.001185
9050.0 0.0011966
9070.0 0.0012059
9090.0 0.0012128
9110.0 0.001219
9130.0 0.0012245
9150.0 0.0012297
9170.0 0.0012352
9190.0 0.0012411
9210.0 0.0012474
9230.0 0.0012538
9250.0 0.0012607
9270.0 0.0012679
9290.0 0.0012754
9310.0 0.0012833
9330.0 0.0012914
9350.0 0.0012998
9370.0 0.0013086
9390.0 0.0013177
9410.0 0.001327
9430.0 0.0013365
9450.0 0.0013465
9470.0 0.0013567
9490.0 0.0013672
9510.0 0.001378
9530.0 0.0013891
9550.0 0.0014003
9570.0 0.0014118
9590.0 0.0014237
9610.0 0.0014357
9630.0 0.001448
9650.0 0.0014605
9670.0 0.0014733
9690.0 0.0014863
9710.0 0.0014995
9730.0 0.001513
9750.0 0.0015266
9770.0 0.0015403
9790.0 0.0015543
9810.0 0.0015685
9830.0 0.0015829
9850.0 0.0015973
9870.0 0.001612
9890.0 0.0016268
9910.0 0.0016417
9930.0 0.0016567
9950.0 0.0016719
9970.0 0.0016871
9990.0 0.0017023
10010.0 0.0016394
10030.0 0.0016538
10050.0 0.0016681
10070.0 0.0016825
10090.0 0.0016971
10110.0 0.0017116
10130.0 0.0017261
10150.0 0.0017407
10170.0 0.0017552
10190.0 0.0017695
10210.0 0.0017839
10230.0 0.0017983
10250.0 0.0018125
10270.0 0.0018266
10290.0 0.0018408
10310.0 0.0018547
10330.0 0.0018683
10350.0 0.001882
10370.0 0.0018955
10390.0 0.0019088
10410.0 0.0019219
10430.0 0.0019349
10450.0 0.0019476
10470.0 0.0019601
10490.0 0.0019724
10510.0 0.0019845
10530.0 0.0019961
10550.0 0.0020075
10570.0 0.0020189
10590.0 0.0020298
10610.0 0.0020403
10630.0 0.0020507
10650.0 0.0020607
10670.0 0.0020703
10690.0 0.0020795
10710.0 0.0020886
10730.0 0.0020971
10750.0 0.0021052
10770.0 0.0021131
10790.0 0.0021206
10810.0 0.0021275
10830.0 0.0021341
10850.0 0.0021402
10870.0 0.0021452
10890.0 0.002149
10910.0 0.0021511
10930.0 0.0021504
10950.0 0.0021449
10970.0 0.002134
10990.0 0.0021172
11010.0 0.0020562
11030.0 0.0020231
11050.0 0.0019839
11070.0 0.0019374
11090.0 0.0018816
11110.0 0.001824
11130.0 0.0017639
11150.0 0.0016993
11170.0 0.001633
11190.0 0.0015693
11210.0 0.0015043
11230.0 0.0014388
11250.0 0.0013774
11270.0 0.0013198
11290.0 0.0012633
11310.0 0.0012111
11330.0 0.0011662
11350.0 0.0011246
11370.0 0.0010867
11390.0 0.0010542
11410.0 0.0010257
11430.0 0.00099873
11450.0 0.0009747
11470.0 0.00095287
11490.0 0.00093127
11510.0 0.000909
11530.0 0.00088704
11550.0 0.00086422
11570.0 0.00083917
11590.0 0.00081285
11610.0 0.00078603
11630.0 0.00075708
11650.0 0.00072656
11670.0 0.000697
11690.0 0.00066759
11710.0 0.00063787
11730.0 0.00060963
11750.0 0.00058394
11770.0 0.00055916
11790.0 0.00053628
11810.0 0.00051631
11830.0 0.00049854
11850.0 0.00048216
11870.0 0.00046826
11890.0 0.00045637
11910.0 0.00044549
11930.0 0.00043555
11950.0 0.00042659
11970.0 0.0004179
11990.0 0.00040898
12010.0 0.00040009
12030.0 0.00039107
12050.0 0.00038145
12070.0 0.00037129
12090.0 0.0003614
12110.0 0.00035132
12130.0 0.00034115
12150.0 0.00033158
12170.0 0.00032291
12190.0 0.00031481
12210.0 0.00030811
12230.0 0.00030309
12250.0 0.00029969
12270.0 0.00029816
12290.0 0.0002986
12310.0 0.00030081
12330.0 0.00030506
12350.0 0.00031111
12370.0 0.00031843
12390.0 0.00032717
12410.0 0.00033764
12430.0 0.00034823
12450.0 0.0003591
12470.0 0.00037054
12490.0 0.00038176
12510.0 0.00039192
12530.0 0.00040171
12550.0 0.00041075
12570.0 0.00041821
12590.0 0.00042424
12610.0 0.00042909
12630.0 0.00043227
12650.0 0.00043363
12670.0 0.00043358
12690.0 0.00043203
12710.0 0.00042906
12730.0 0.00042488
12750.0 0.00041937
12770.0 0.00041287
12790.0 0.00040564
12810.0 0.00039755
12830.0 0.00038865
12850.0 0.00037954
12870.0 0.00037007
12890.0 0.00035997
12910.0 0.0003497
12930.0 0.00033948
12950.0 0.00032875
12970.0 0.00031766
12990.0 0.00030692
13010.0 0.0002961
13030.0 0.00028496
13050.0 0.00027402
13070.0 0.00026355
13090.0 0.00025291
13110.0 0.00024248
13130.0 0.00023275
13150.0 0.00022349
13170.0 0.00021444
13190.0 0.0002064
13210.0 0.00019937
13230.0 0.00019304
13250.0 0.00018768
13270.0 0.00018354
13290.0 0.00018042
13310.0 0.00017838
13330.0 0.00017754
13350.0 0.00017775
13370.0 0.00017904
13390.0 0.0001814
13410.0 0.00018441
13430.0 0.00018818
13450.0 0.00019268
13470.0 0.00019748
13490.0 0.0002024
13510.0 0.0002078
13530.0 0.0002131
13550.0 0.000218
13570.0 0.00022269
13590.0 0.00022713
13610.0 0.00023093
13630.0 0.0002341
13650.0 0.00023687
13670.0 0.00023899
13690.0 0.00024043
13710.0 0.00024132
13730.0 0.00024169
13750.0 0.00024144
13770.0 0.00024071
13790.0 0.00023952
13810.0 0.0002379
13830.0 0.00023596
13850.0 0.00023365
13870.0 0.00023099
13890.0 0.00022813
13910.0 0.00022505
13930.0 0.00022166
13950.0 0.00021809
13970.0 0.00021454
13990.0 0.0002108
14010.0 0.00020693
14030.0 0.00020316
14050.0 0.00019945
14070.0 0.00019564
14090.0 0.00019207
14110.0 0.00018879
14130.0 0.00018569
14150.0 0.00018285
14170.0 0.00018049
14190.0 0.00017853
14210.0 0.00017695
14230.0 0.00017587
14250.0 0.00017528
14270.0 0.00017517
14290.0 0.00017559
14310.0 0.00017644
14330.0 0.00017772
14350.0 0.00017947
14370.0 0.00018155
14390.0 0.00018384
14410.0 0.00018651
14430.0 0.00018941
14450.0 0.00019237
14470.0 0.00019547
14490.0 0.00019884
14510.0 0.00020217
14530.0 0.00020549
14550.0 0.00020902
14570.0 0.0002127
14590.0 0.00021638
14610.0 0.00022033
14630.0 0.0002247
14650.0 0.00022924
14670.0 0.00023406
14690.0 0.00023944
14710.0 0.00024537
14730.0 0.00025139
14750.0 0.00025797
14770.0 0.00026515
14790.0 0.00027253
14810.0 0.00028002
14830.0 0.00028823
14850.0 0.00029643
14870.0 0.00030431
14890.0 0.00031217
14910.0 0.00031989
14930.0 0.0003268
14950.0 0.00033286
14970.0 0.00033827
14990.0 0.00034256
15010.0 0.00034566
15030.0 0.00034782
15050.0 0.00034911
15070.0 0.00034962
15090.0 0.00034965
15110.0 0.00034934
15130.0 0.00034883
15150.0 0.00034826
15170.0 0.0003476
15190.0 0.00034691
15210.0 0.00034624
15230.0 0.00034558
15250.0 0.00034489
15270.0 0.00034421
15290.0 0.00034358
15310.0 0.00034293
15330.0 0.00034226
15350.0 0.00034163
15370.0 0.00034101
15390.0 0.00034034
15410.0 0.0003397
15430.0 0.00033908
15450.0 0.00033844
15470.0 0.00033779
15490.0 0.00033718
15510.0 0.00033657
15530.0 0.00033593
15550.0 0.0003353
15570.0 0.00033471
15590.0 0.00033407
15610.0 0.00033342
15630.0 0.00033281
15650.0 0.0003322
15670.0 0.00033155
15690.0 0.00033093
15710.0 0.00033033
15730.0 0.00032969
15750.0 0.00032904
15770.0 0.00032842
15790.0 0.0003278
15810.0 0.00032712
15830.0 0.00032649
15850.0 0.00032587
15870.0 0.00032521
15890.0 0.00032455
15910.0 0.00032392
15930.0 0.00032327
15950.0 0.00032258
15970.0 0.00032192
15990.0 0.00032127
16010.0 0.00032058
16030.0 0.00031987
16050.0 0.00031922
16070.0 0.00031854
16090.0 0.00031782
16110.0 0.00031713
16130.0 0.00031646
16150.0 0.00031571
16170.0 0.00031498
16190.0 0.00031428
16210.0 0.00031355
16230.0 0.0003128
16250.0 0.00031207
16270.0 0.00031135
16290.0 0.00031057
16310.0 0.00030981
16330.0 0.00030906
16350.0 0.00030829
16370.0 0.00030747
16390.0 0.0003067
16410.0 0.00030592
16430.0 0.00030511
16450.0 0.00030429
16470.0 0.00030351
16490.0 0.00030268
16510.0 0.00030183
16530.0 0.000301
16550.0 0.00030017
16570.0 0.00029929
16590.0 0.00029842
16610.0 0.00029759
16630.0 0.00029671
16650.0 0.00029581
16670.0 0.00029494
16690.0 0.00029407
16710.0 0.00029313
16730.0 0.00029221
16750.0 0.00029132
16770.0 0.00029038
16790.0 0.00028943
16810.0 0.00028851
16830.0 0.00028757
16850.0 0.0002866
16870.0 0.00028564
16890.0 0.00028469
16910.0 0.0002837
16930.0 0.00028269
16950.0 0.00028172
16970.0 0.00028073
16990.0 0.0002797
17010.0 0.00027869
17030.0 0.0002777
17050.0 0.00027666
17070.0 0.00027561
17090.0 0.00027459
17110.0 0.00027355
17130.0 0.00027246
17150.0 0.00027141
17170.0 0.00027037
17190.0 0.00026929
17210.0 0.0002682
17230.0 0.00026714
17250.0 0.00026605
17270.0 0.00026493
17290.0 0.00026383
17310.0 0.00026274
17330.0 0.00026161
17350.0 0.00026047
17370.0 0.00025937
17390.0 0.00025825
17410.0 0.00025709
17430.0 0.00025596
17450.0 0.00025485
17470.0 0.00025366
17490.0 0.00025249
17510.0 0.00025136
17530.0 0.00025019
17550.0 0.000249
17570.0 0.00024784
17590.0 0.00024669
17610.0 0.00024549
17630.0 0.00024429
17650.0 0.00024313
17670.0 0.00024193
17690.0 0.00024069
17710.0 0.00023952
17730.0 0.00023833
17750.0 0.00023711
17770.0 0.00023589
17790.0 0.00023471
17810.0 0.00023348
17830.0 0.00023225
17850.0 0.00023104
17870.0 0.00022983
17890.0 0.00022858
17910.0 0.00022734
17930.0 0.00022614
17950.0 0.0002249
17970.0 0.00022365
17990.0 0.00022244
18010.0 0.00022122
18030.0 0.00021994
18050.0 0.0002187
18070.0 0.00021748
18090.0 0.00021623
18110.0 0.00021497
18130.0 0.00021375
18150.0 0.00021251
18170.0 0.00021125
18190.0 0.00021001
18210.0 0.00020878
18230.0 0.00020752
18250.0 0.00020625
18270.0 0.00020502
18290.0 0.00020378
18310.0 0.00020252
18330.0 0.00020128
18350.0 0.00020006
18370.0 0.0001988
18390.0 0.00019754
18410.0 0.00019631
18430.0 0.00019508
18450.0 0.0001938
18470.0 0.00019257
18490.0 0.00019135
18510.0 0.0001901
18530.0 0.00018885
18550.0 0.00018764
18570.0 0.00018641
18590.0 0.00018515
18610.0 0.00018393
18630.0 0.00018271
18650.0 0.00018147
18670.0 0.00018023
18690.0 0.00017903
18710.0 0.00017781
18730.0 0.00017658
18750.0 0.00017537
18770.0 0.00017418
18790.0 0.00017293
18810.0 0.00017171
18830.0 0.00017053
18850.0 0.00016932
18870.0 0.0001681
18890.0 0.00016692
18910.0 0.00016574
18930.0 0.00016453
18950.0 0.00016333
18970.0 0.00016216
18990.0 0.00016098
19010.0 0.00015976
19030.0 0.0001586
19050.0 0.00015744
19070.0 0.00015625
19090.0 0.00015508
19110.0 0.00015395
19130.0 0.00015277
19150.0 0.0001516
19170.0 0.00015046
19190.0 0.00014932
19210.0 0.00014815
19230.0 0.000147
19250.0 0.00014589
19270.0 0.00014474
19290.0 0.0001436
19310.0 0.00014249
19330.0 0.00014138
19350.0 0.00014022
19370.0 0.00013911
19390.0 0.00013801
19410.0 0.0001369
19430.0 0.00013578
19450.0 0.0001347
19470.0 0.00013361
19490.0 0.0001325
19510.0 0.00013142
19530.0 0.00013035
19550.0 0.00012925
19570.0 0.00012816
19590.0 0.00012711
19610.0 0.00012604
19630.0 0.00012496
19650.0 0.00012391
19670.0 0.00012288
19690.0 0.00012181
19710.0 0.00012075
19730.0 0.00011973
19750.0 0.00011869
19770.0 0.00011763
19790.0 0.00011661
19810.0 0.0001156
19830.0 0.00011457
19850.0 0.00011353
19870.0 0.00011253
19890.0 0.00011148
19910.0 0.00011037
19930.0 0.00010924
19950.0 0.00010802
19970.0 0.00010664
19990.0 0.00010509
20010.0 0.00010551
20030.0 0.00010357
20050.0 0.00010142
20070.0 9.9175e-05
20090.0 9.6845e-05
20110.0 9.4308e-05
20130.0 9.1814e-05
20150.0 8.9404e-05
20170.0 8.697e-05
20190.0 8.4558e-05
20210.0 8.2318e-05
20230.0 8.0169e-05
20250.0 7.805e-05
20270.0 7.6104e-05
20290.0 7.434e-05
20310.0 7.268e-05
20330.0 7.1143e-05
20350.0 6.9868e-05
20370.0 6.8744e-05
20390.0 6.7772e-05
20410.0 6.6996e-05
20430.0 6.6407e-05
20450.0 6.5965e-05
20470.0 6.5699e-05
20490.0 6.5592e-05
20510.0 6.5627e-05
20530.0 6.5808e-05
20550.0 6.6107e-05
20570.0 6.6495e-05
20590.0 6.6997e-05
20610.0 6.7587e-05
20630.0 6.8219e-05
20650.0 6.8915e-05
20670.0 6.9703e-05
20690.0 7.0488e-05
20710.0 7.1285e-05
20730.0 7.2133e-05
20750.0 7.3002e-05
20770.0 7.3836e-05
20790.0 7.4699e-05
20810.0 7.5597e-05
20830.0 7.6474e-05
20850.0 7.7341e-05
20870.0 7.8264e-05
20890.0 7.9197e-05
20910.0 8.0088e-05
20930.0 8.1012e-05
20950.0 8.1973e-05
20970.0 8.2909e-05
20990.0 8.3834e-05
21010.0 8.4817e-05
21030.0 8.5783e-05
21050.0 8.6708e-05
21070.0 8.764e-05
21090.0 8.8587e-05
21110.0 8.9454e-05
21130.0 9.0277e-05
21150.0 9.1091e-05
21170.0 9.1845e-05
21190.0 9.2511e-05
21210.0 9.3143e-05
21230.0 9.3712e-05
21250.0 9.4172e-05
21270.0 9.4544e-05
21290.0 9.4834e-05
21310.0 9.5011e-05
21330.0 9.5067e-05
21350.0 9.501e-05
21370.0 9.482e-05
21390.0 9.4498e-05
21410.0 9.4041e-05
21430.0 9.3406e-05
21450.0 9.2633e-05
21470.0 9.1737e-05
21490.0 9.0674e-05
21510.0 8.9454e-05
21530.0 8.8158e-05
21550.0 8.6746e-05
21570.0 8.5184e-05
21590.0 8.3582e-05
21610.0 8.1971e-05
21630.0 8.0291e-05
21650.0 7.857e-05
21670.0 7.6995e-05
21690.0 7.5456e-05
21710.0 7.3967e-05
21730.0 7.2625e-05
21750.0 7.1454e-05
21770.0 7.0376e-05
21790.0 6.9489e-05
21810.0 6.8813e-05
21830.0 6.8319e-05
21850.0 6.8016e-05
21870.0 6.7923e-05
21890.0 6.8014e-05
21910.0 6.83e-05
21930.0 6.8771e-05
21950.0 6.9388e-05
21970.0 7.0169e-05
21990.0 7.1145e-05
22010.0 7.2205e-05
22030.0 7.336e-05
22050.0 7.4653e-05
22070.0 7.6032e-05
22090.0 7.7407e-05
22110.0 7.8864e-05
22130.0 8.0389e-05
22150.0 8.1877e-05
22170.0 8.3336e-05
22190.0 8.4838e-05
22210.0 8.6286e-05
22230.0 8.7599e-05
22250.0 8.8867e-05
22270.0 9.0064e-05
22290.0 9.1107e-05
22310.0 9.2017e-05
22330.0 9.2832e-05
22350.0 9.3472e-05
22370.0 9.3932e-05
22390.0 9.4234e-05
22410.0 9.4355e-05
22430.0 9.4284e-05
22450.0 9.4035e-05
22470.0 9.3587e-05
22490.0 9.2951e-05
22510.0 9.2159e-05
22530.0 9.1152e-05
22550.0 8.9935e-05
22570.0 8.8595e-05
22590.0 8.7096e-05
22610.0 8.5383e-05
22630.0 8.3539e-05
22650.0 8.1642e-05
22670.0 7.955e-05
22690.0 7.7322e-05
22710.0 7.5076e-05
22730.0 7.276e-05
22750.0 7.0248e-05
22770.0 6.779e-05
22790.0 6.5385e-05
22810.0 6.2913e-05
22830.0 6.0444e-05
22850.0 5.8133e-05
22870.0 5.5869e-05
22890.0 5.3621e-05
22910.0 5.1561e-05
22930.0 4.9687e-05
22950.0 4.7921e-05
22970.0 4.6315e-05
22990.0 4.5016e-05
