#lamb flux
1010.0 3.1353e-05
1030.0 3.4318e-05
1050.0 3.7388e-05
1070.0 4.0845e-05
1090.0 4.487e-05
1110.0 4.8981e-05
1130.0 5.3106e-05
1150.0 5.7423e-05
1170.0 6.1885e-05
1190.0 6.6141e-05
1210.0 7.0492e-05
1230.0 7.504e-05
1250.0 7.9544e-05
1270.0 8.4003e-05
1290.0 8.8792e-05
1310.0 9.3673e-05
1330.0 9.8461e-05
1350.0 0.00010338
1370.0 0.00010852
1390.0 0.00011361
1410.0 0.00011859
1430.0 0.0001238
1450.0 0.000129
1470.0 0.00013402
1490.0 0.00013904
1510.0 0.00014425
1530.0 0.00014913
1550.0 0.00015385
1570.0 0.0001586
1590.0 0.00016324
1610.0 0.00016753
1630.0 0.00017177
1650.0 0.00017597
1670.0 0.00017987
1690.0 0.00018355
1710.0 0.00018725
1730.0 0.00019083
1750.0 0.00019399
1770.0 0.00019717
1790.0 0.00020035
1810.0 0.0002033
1830.0 0.00020615
1850.0 0.00020924
1870.0 0.00021223
1890.0 0.00021514
1910.0 0.00021823
1930.0 0.00022153
1950.0 0.00022479
1970.0 0.00022817
1990.0 0.0002319
2010.0 0.00023574
2030.0 0.00023964
2050.0 0.00024384
2070.0 0.00024832
2090.0 0.00025271
2110.0 0.00025721
2130.0 0.00026192
2150.0 0.00026659
2170.0 0.0002711
2190.0 0.00027573
2210.0 0.00028031
2230.0 0.00028462
2250.0 0.00028877
2270.0 0.00029294
2290.0 0.00029678
2310.0 0.00030024
2330.0 0.00030359
2350.0 0.00030674
2370.0 0.00030946
2390.0 0.00031198
2410.0 0.00031445
2430.0 0.00031654
2450.0 0.00031831
2470.0 0.00031996
2490.0 0.00032152
2510.0 0.00032291
2530.0 0.00032495
2550.0 0.00032892
2570.0 0.00033617
2590.0 0.00034847
2610.0 0.00037005
2630.0 0.0004023
2650.0 0.00044368
2670.0 0.00049484
2690.0 0.00055377
2710.0 0.0006115
2730.0 0.00066259
2750.0 0.00070542
2770.0 0.00073253
2790.0 0.00074175
2810.0 0.0007343
2830.0 0.00070984
2850.0 0.00067329
2870.0 0.00062797
2890.0 0.00057467
2910.0 0.00051705
2930.0 0.00045914
2950.0 0.00039776
2970.0 0.00033403
2990.0 0.00027136
3010.0 0.00032979
3030.0 0.00022616
3050.0 0.00012199
3070.0 3.6475e-05
3090.0 3.6475e-05
3110.0 3.6475e-05
3130.0 3.6475e-05
3150.0 3.6475e-05
3170.0 3.6475e-05
3190.0 3.6475e-05
3210.0 0.0011516
3230.0 0.0032031
3250.0 0.0043577
3270.0 0.0038239
3290.0 0.0028984
3310.0 0.0022961
3330.0 0.0021418
3350.0 0.0022466
3370.0 0.0024304
3390.0 0.0026226
3410.0 0.002824
3430.0 0.0030701
3450.0 0.0033054
3470.0 0.0035497
3490.0 0.0035952
3510.0 0.0031356
3530.0 0.0029358
3550.0 0.0037544
3570.0 0.004781
3590.0 0.005321
3610.0 0.0055087
3630.0 0.0058397
3650.0 0.005845
3670.0 0.0060904
3690.0 0.0071629
3710.0 0.0083257
3730.0 0.0090897
3750.0 0.0095614
3770.0 0.0097134
3790.0 0.0094199
3810.0 0.0087333
3830.0 0.0076451
3850.0 0.0060151
3870.0 0.005348
3890.0 0.0060244
3910.0 0.0079805
3930.0 0.0099755
3950.0 0.010906
3970.0 0.011288
3990.0 0.012174
4010.0 0.012587
4030.0 0.01138
4050.0 0.0085795
4070.0 0.0072586
4090.0 0.0081289
4110.0 0.0090237
4130.0 0.0096378
4150.0 0.0096436
4170.0 0.0092725
4190.0 0.0088569
4210.0 0.0094303
4230.0 0.010128
4250.0 0.010734
4270.0 0.010763
4290.0 0.010424
4310.0 0.010475
4330.0 0.011515
4350.0 0.012675
4370.0 0.012841
4390.0 0.011974
4410.0 0.010645
4430.0 0.0086273
4450.0 0.0071269
4470.0 0.0070944
4490.0 0.0078733
4510.0 0.0085802
4530.0 0.0090207
4550.0 0.0097302
4570.0 0.012651
4590.0 0.017384
4610.0 0.020657
4630.0 0.021943
4650.0 0.023862
4670.0 0.026571
4690.0 0.027047
4710.0 0.023432
4730.0 0.018386
4750.0 0.014431
4770.0 0.012139
4790.0 0.011063
4810.0 0.010749
4830.0 0.011681
4850.0 0.01377
4870.0 0.015378
4890.0 0.015775
4910.0 0.015851
4930.0 0.017516
4950.0 0.020186
4970.0 0.021916
4990.0 0.021755
5010.0 0.019596
5030.0 0.016221
5050.0 0.013153
5070.0 0.011233
5090.0 0.010508
5110.0 0.010518
5130.0 0.010657
5150.0 0.010522
5170.0 0.010015
5190.0 0.0097788
5210.0 0.010224
5230.0 0.011575
5250.0 0.013829
5270.0 0.01619
5290.0 0.017733
5310.0 0.018966
5330.0 0.020788
5350.0 0.02233
5370.0 0.022148
5390.0 0.020431
5410.0 0.018888
5430.0 0.019152
5450.0 0.021781
5470.0 0.025315
5490.0 0.027915
5510.0 0.028793
5530.0 0.028324
5550.0 0.027184
5570.0 0.025938
5590.0 0.024748
5610.0 0.023932
5630.0 0.023682
5650.0 0.023389
5670.0 0.022021
5690.0 0.019643
5710.0 0.017283
5730.0 0.015732
5750.0 0.015187
5770.0 0.01549
5790.0 0.01583
5810.0 0.015933
5830.0 0.015838
5850.0 0.015283
5870.0 0.0146
5890.0 0.014379
5910.0 0.014601
5930.0 0.014485
5950.0 0.013439
5970.0 0.011678
5990.0 0.009602
6010.0 0.0080674
6030.0 0.0076814
6050.0 0.0082486
6070.0 0.0086666
6090.0 0.008206
6110.0 0.0075311
6130.0 0.0077426
6150.0 0.0086592
6170.0 0.0095037
6190.0 0.010018
6210.0 0.010201
6230.0 0.010013
6250.0 0.0091055
6270.0 0.007678
6290.0 0.0064838
6310.0 0.0059886
6330.0 0.0060563
6350.0 0.0062634
6370.0 0.0066012
6390.0 0.0075582
6410.0 0.0091074
6430.0 0.010483
6450.0 0.011177
6470.0 0.011485
6490.0 0.011659
6510.0 0.011762
6530.0 0.011864
6550.0 0.011996
6570.0 0.012298
6590.0 0.012568
6610.0 0.012535
6630.0 0.012004
6650.0 0.011101
6670.0 0.010228
6690.0 0.0096401
6710.0 0.009228
6730.0 0.0088443
6750.0 0.008697
6770.0 0.0089277
6790.0 0.0092605
6810.0 0.0094128
6830.0 0.0092664
6850.0 0.0088202
6870.0 0.0083532
6890.0 0.0081473
6910.0 0.0081434
6930.0 0.0083422
6950.0 0.0085585
6970.0 0.0087246
6990.0 0.0087574
7010.0 0.0084717
7030.0 0.0078319
7050.0 0.0070227
7070.0 0.0064726
7090.0 0.0063587
7110.0 0.0064145
7130.0 0.006117
7150.0 0.0055288
7170.0 0.0053975
7190.0 0.005966
7210.0 0.006837
7230.0 0.0075835
7250.0 0.007859
7270.0 0.0076786
7290.0 0.0072122
7310.0 0.0068249
7330.0 0.0067599
7350.0 0.0068764
7370.0 0.006995
7390.0 0.007332
7410.0 0.0080535
7430.0 0.0089622
7450.0 0.0097197
7470.0 0.0099795
7490.0 0.0095213
7510.0 0.0088317
7530.0 0.008344
7550.0 0.0078771
7570.0 0.0073634
7590.0 0.007117
7610.0 0.0071904
7630.0 0.007562
7650.0 0.0082058
7670.0 0.0089889
7690.0 0.0096843
7710.0 0.010236
7730.0 0.010724
7750.0 0.011132
7770.0 0.011262
7790.0 0.01145
7810.0 0.01153
7830.0 0.01125
7850.0 0.010902
7870.0 0.010731
7890.0 0.010856
7910.0 0.010895
7930.0 0.010692
7950.0 0.010321
7970.0 0.0099862
7990.0 0.0096645
8010.0 0.009362
8030.0 0.0094334
8050.0 0.0094695
8070.0 0.0093775
8090.0 0.0093249
8110.0 0.0091661
8130.0 0.0092034
8150.0 0.0091583
8170.0 0.0090062
8190.0 0.0087944
8210.0 0.0086044
8230.0 0.008397
8250.0 0.0083359
8270.0 0.007812
8290.0 0.0066794
8310.0 0.0053927
8330.0 0.0045137
8350.0 0.0043235
8370.0 0.0049246
8390.0 0.005749
8410.0 0.006157
8430.0 0.0063608
8450.0 0.0067874
8470.0 0.0073568
8490.0 0.0081831
8510.0 0.009179
8530.0 0.010251
8550.0 0.011134
8570.0 0.011807
8590.0 0.01232
8610.0 0.012606
8630.0 0.012583
8650.0 0.012412
8670.0 0.012456
8690.0 0.013157
8710.0 0.014105
8730.0 0.014619
8750.0 0.014575
8770.0 0.014791
8790.0 0.014825
8810.0 0.014132
8830.0 0.013174
8850.0 0.011945
8870.0 0.010997
8890.0 0.010729
8910.0 0.010629
8930.0 0.0099968
8950.0 0.0092682
8970.0 0.008973
8990.0 0.0089911
9010.0 0.0087826
9030.0 0.0086097
9050.0 0.0085292
9070.0 0.0084888
9090.0 0.0084539
9110.0 0.0084202
9130.0 0.0083865
9150.0 0.0083537
9170.0 0.0083193
9190.0 0.0082927
9210.0 0.0082822
9230.0 0.0082408
9250.0 0.0082041
9270.0 0.0081705
9290.0 0.008139
9310.0 0.0081083
9330.0 0.0080786
9350.0 0.0080505
9370.0 0.0080226
9390.0 0.0079946
9410.0 0.0079675
9430.0 0.0079392
9450.0 0.0078997
9470.0 0.0078645
9490.0 0.0078505
9510.0 0.0078306
9530.0 0.0078095
9550.0 0.0077869
9570.0 0.0077637
9590.0 0.0077405
9610.0 0.0077172
9630.0 0.0076937
9650.0 0.0076705
9670.0 0.0076479
9690.0 0.0076251
9710.0 0.0076024
9730.0 0.0075802
9750.0 0.0075581
9770.0 0.0075355
9790.0 0.0075136
9810.0 0.0074919
9830.0 0.0074699
9850.0 0.0074478
9870.0 0.0074264
9890.0 0.0074047
9910.0 0.0073826
9930.0 0.0073603
9950.0 0.0073029
9970.0 0.0072912
9990.0 0.0072772
10010.0 0.0072628
10030.0 0.0072449
10050.0 0.007224
10070.0 0.0072031
10090.0 0.0071822
10110.0 0.0071573
10130.0 0.0071283
10150.0 0.0071062
10170.0 0.0070839
10190.0 0.0070586
10210.0 0.0070351
10230.0 0.0070116
10250.0 0.0069852
10270.0 0.0069586
10290.0 0.0069336
10310.0 0.0069061
10330.0 0.0068762
10350.0 0.0068486
10370.0 0.0068207
10390.0 0.00679
10410.0 0.0067591
10430.0 0.0067304
10450.0 0.0066989
10470.0 0.0066655
10490.0 0.0066336
10510.0 0.0066013
10530.0 0.0065646
10550.0 0.006529
10570.0 0.0064949
10590.0 0.0064581
10610.0 0.0064194
10630.0 0.0063825
10650.0 0.0063446
10670.0 0.0063028
10690.0 0.0062618
10710.0 0.0062217
10730.0 0.0061785
10750.0 0.0061324
10770.0 0.0060898
10790.0 0.0060455
10810.0 0.0059979
10830.0 0.0059508
10850.0 0.0059051
10870.0 0.0058542
10890.0 0.0058024
10910.0 0.0057522
10930.0 0.0057002
10950.0 0.0056442
10970.0 0.0055885
10990.0 0.0055341
11010.0 0.0059894
11030.0 0.0059281
11050.0 0.0058688
11070.0 0.0058082
11090.0 0.005743
11110.0 0.0056822
11130.0 0.0056227
11150.0 0.0055609
11170.0 0.0054992
11190.0 0.0054412
11210.0 0.0053816
11230.0 0.0053205
11250.0 0.0052621
11270.0 0.0052054
11290.0 0.0051466
11310.0 0.0050884
11330.0 0.0050346
11350.0 0.0049796
11370.0 0.0049233
11390.0 0.0048688
11410.0 0.0048143
11430.0 0.0047551
11450.0 0.004695
11470.0 0.0046342
11490.0 0.004569
11510.0 0.0044981
11530.0 0.0044266
11550.0 0.0043521
11570.0 0.0042712
11590.0 0.0041878
11610.0 0.0041044
11630.0 0.0040159
11650.0 0.0039237
11670.0 0.0038346
11690.0 0.0037454
11710.0 0.0036536
11730.0 0.0035637
11750.0 0.0034782
11770.0 0.003391
11790.0 0.0033045
11810.0 0.0032222
11830.0 0.0031418
11850.0 0.0030593
11870.0 0.0029808
11890.0 0.0029063
11910.0 0.0028315
11930.0 0.0027579
11950.0 0.0026888
11970.0 0.0026213
11990.0 0.0025536
12010.0 0.0024902
12030.0 0.0024306
12050.0 0.0023725
12070.0 0.0023168
12090.0 0.0022675
12110.0 0.0022212
12130.0 0.002178
12150.0 0.00214
12170.0 0.0021071
12190.0 0.0020777
12210.0 0.0020537
12230.0 0.0020351
12250.0 0.0020214
12270.0 0.0020129
12290.0 0.0020092
12310.0 0.0020097
12330.0 0.0020151
12350.0 0.0020244
12370.0 0.0020365
12390.0 0.0020516
12410.0 0.0020709
12430.0 0.0020903
12450.0 0.0021107
12470.0 0.0021329
12490.0 0.0021553
12510.0 0.0021759
12530.0 0.0021968
12550.0 0.0022171
12570.0 0.0022346
12590.0 0.0022494
12610.0 0.0022626
12630.0 0.0022722
12650.0 0.0022769
12670.0 0.0022783
12690.0 0.0022754
12710.0 0.0022676
12730.0 0.0022554
12750.0 0.0022386
12770.0 0.0022173
12790.0 0.0021923
12810.0 0.0021634
12830.0 0.0021308
12850.0 0.0020966
12870.0 0.0020606
12890.0 0.0020224
12910.0 0.0019838
12930.0 0.0019457
12950.0 0.0019069
12970.0 0.0018681
12990.0 0.0018314
13010.0 0.0017957
13030.0 0.0017603
13050.0 0.0017265
13070.0 0.0016946
13090.0 0.001663
13110.0 0.0016323
13130.0 0.0016032
13150.0 0.0015751
13170.0 0.0015469
13190.0 0.0015203
13210.0 0.001495
13230.0 0.00147
13250.0 0.0014457
13270.0 0.001423
13290.0 0.0014009
13310.0 0.0013792
13330.0 0.001359
13350.0 0.0013401
13370.0 0.001322
13390.0 0.0013048
13410.0 0.0012894
13430.0 0.0012749
13450.0 0.0012613
13470.0 0.0012488
13490.0 0.0012373
13510.0 0.0012262
13530.0 0.0012157
13550.0 0.0012056
13570.0 0.0011957
13590.0 0.0011856
13610.0 0.0011755
13630.0 0.0011653
13650.0 0.0011545
13670.0 0.0011436
13690.0 0.0011325
13710.0 0.0011212
13730.0 0.0011094
13750.0 0.001098
13770.0 0.0010869
13790.0 0.0010757
13810.0 0.0010648
13830.0 0.0010547
13850.0 0.0010448
13870.0 0.0010353
13890.0 0.0010265
13910.0 0.0010182
13930.0 0.0010101
13950.0 0.0010024
13970.0 0.00099519
13990.0 0.00098801
14010.0 0.00098078
14030.0 0.00097369
14050.0 0.0009665
14070.0 0.00095876
14090.0 0.00095088
14110.0 0.00094286
14130.0 0.00093435
14150.0 0.00092536
14170.0 0.00091649
14190.0 0.0009075
14210.0 0.00089819
14230.0 0.00088912
14250.0 0.00088054
14270.0 0.00087203
14290.0 0.00086394
14310.0 0.00085689
14330.0 0.00085053
14350.0 0.00084481
14370.0 0.00084006
14390.0 0.00083627
14410.0 0.00083312
14430.0 0.00083072
14450.0 0.00082904
14470.0 0.00082788
14490.0 0.0008271
14510.0 0.00082673
14530.0 0.00082665
14550.0 0.0008268
14570.0 0.00082721
14590.0 0.00082794
14610.0 0.00082905
14630.0 0.0008307
14650.0 0.00083302
14670.0 0.00083613
14690.0 0.00084033
14710.0 0.00084586
14730.0 0.00085248
14750.0 0.00086069
14770.0 0.00087079
14790.0 0.00088249
14810.0 0.00089577
14830.0 0.00091186
14850.0 0.0009299
14870.0 0.0009493
14890.0 0.00097075
14910.0 0.00099414
14930.0 0.0010175
14950.0 0.0010403
14970.0 0.0010628
14990.0 0.001083
15010.0 0.0010999
15030.0 0.0011142
15050.0 0.0011257
15070.0 0.0011343
15090.0 0.0011411
15110.0 0.0011466
15130.0 0.0011514
15150.0 0.0011558
15170.0 0.00116
15190.0 0.0011642
15210.0 0.0011684
15230.0 0.0011727
15250.0 0.0011771
15270.0 0.0011816
15290.0 0.0011862
15310.0 0.0011908
15330.0 0.0011955
15350.0 0.0012003
15370.0 0.0012052
15390.0 0.0012102
15410.0 0.0012153
15430.0 0.0012204
15450.0 0.0012256
15470.0 0.0012309
15490.0 0.0012362
15510.0 0.0012416
15530.0 0.0012471
15550.0 0.0012527
15570.0 0.0012583
15590.0 0.001264
15610.0 0.0012698
15630.0 0.0012756
15650.0 0.0012815
15670.0 0.0012874
15690.0 0.0012934
15710.0 0.0012995
15730.0 0.0013056
15750.0 0.0013117
15770.0 0.0013179
15790.0 0.0013242
15810.0 0.0013305
15830.0 0.0013368
15850.0 0.0013432
15870.0 0.0013497
15890.0 0.0013561
15910.0 0.0013627
15930.0 0.0013692
15950.0 0.0013758
15970.0 0.0013824
15990.0 0.001389
16010.0 0.0013957
16030.0 0.0014024
16050.0 0.0014091
16070.0 0.0014158
16090.0 0.0014226
16110.0 0.0014293
16130.0 0.0014361
16150.0 0.0014429
16170.0 0.0014497
16190.0 0.0014565
16210.0 0.0014633
16230.0 0.0014701
16250.0 0.0014769
16270.0 0.0014837
16290.0 0.0014905
16310.0 0.0014973
16330.0 0.0015041
16350.0 0.0015108
16370.0 0.0015175
16390.0 0.0015243
16410.0 0.001531
16430.0 0.0015376
16450.0 0.0015443
16470.0 0.0015509
16490.0 0.0015574
16510.0 0.001564
16530.0 0.0015705
16550.0 0.0015769
16570.0 0.0015833
16590.0 0.0015897
16610.0 0.001596
16630.0 0.0016023
16650.0 0.0016085
16670.0 0.0016147
16690.0 0.0016208
16710.0 0.0016268
16730.0 0.0016327
16750.0 0.0016386
16770.0 0.0016445
16790.0 0.0016502
16810.0 0.0016559
16830.0 0.0016615
16850.0 0.001667
16870.0 0.0016724
16890.0 0.0016778
16910.0 0.001683
16930.0 0.0016882
16950.0 0.0016933
16970.0 0.0016982
16990.0 0.0017031
17010.0 0.0017079
17030.0 0.0017126
17050.0 0.0017171
17070.0 0.0017216
17090.0 0.0017259
17110.0 0.0017302
17130.0 0.0017343
17150.0 0.0017383
17170.0 0.0017422
17190.0 0.0017459
17210.0 0.0017496
17230.0 0.0017531
17250.0 0.0017565
17270.0 0.0017597
17290.0 0.0017629
17310.0 0.0017659
17330.0 0.0017688
17350.0 0.0017715
17370.0 0.0017741
17390.0 0.0017766
17410.0 0.0017789
17430.0 0.0017811
17450.0 0.0017832
17470.0 0.0017851
17490.0 0.0017869
17510.0 0.0017885
17530.0 0.00179
17550.0 0.0017913
17570.0 0.0017925
17590.0 0.0017936
17610.0 0.0017945
17630.0 0.0017952
17650.0 0.0017958
17670.0 0.0017963
17690.0 0.0017966
17710.0 0.0017967
17730.0 0.0017967
17750.0 0.0017966
17770.0 0.0017963
17790.0 0.0017959
17810.0 0.0017953
17830.0 0.0017945
17850.0 0.0017937
17870.0 0.0017926
17890.0 0.0017914
17910.0 0.0017901
17930.0 0.0017886
17950.0 0.001787
17970.0 0.0017852
17990.0 0.0017833
18010.0 0.0017813
18030.0 0.0017791
18050.0 0.0017767
18070.0 0.0017742
18090.0 0.0017716
18110.0 0.0017688
18130.0 0.0017659
18150.0 0.0017629
18170.0 0.0017597
18190.0 0.0017563
18210.0 0.0017529
18230.0 0.0017493
18250.0 0.0017456
18270.0 0.0017417
18290.0 0.0017378
18310.0 0.0017337
18330.0 0.0017294
18350.0 0.0017251
18370.0 0.0017206
18390.0 0.001716
18410.0 0.0017113
18430.0 0.0017065
18450.0 0.0017015
18470.0 0.0016965
18490.0 0.0016913
18510.0 0.001686
18530.0 0.0016807
18550.0 0.0016752
18570.0 0.0016696
18590.0 0.0016639
18610.0 0.0016581
18630.0 0.0016523
18650.0 0.0016463
18670.0 0.0016402
18690.0 0.001634
18710.0 0.0016278
18730.0 0.0016215
18750.0 0.0016151
18770.0 0.0016086
18790.0 0.001602
18810.0 0.0015953
18830.0 0.0015886
18850.0 0.0015818
18870.0 0.0015749
18890.0 0.001568
18910.0 0.001561
18930.0 0.001554
18950.0 0.0015468
18970.0 0.0015397
18990.0 0.0015324
19010.0 0.0015251
19030.0 0.0015178
19050.0 0.0015104
19070.0 0.0015029
19090.0 0.0014954
19110.0 0.0014879
19130.0 0.0014803
19150.0 0.0014727
19170.0 0.0014651
19190.0 0.0014574
19210.0 0.0014497
19230.0 0.0014419
19250.0 0.0014342
19270.0 0.0014263
19290.0 0.0014185
19310.0 0.0014107
19330.0 0.0014028
19350.0 0.0013949
19370.0 0.001387
19390.0 0.0013791
19410.0 0.0013712
19430.0 0.0013632
19450.0 0.0013553
19470.0 0.0013473
19490.0 0.0013393
19510.0 0.0013314
19530.0 0.0013234
19550.0 0.0013154
19570.0 0.0013074
19590.0 0.0012995
19610.0 0.0012915
19630.0 0.0012835
19650.0 0.0012756
19670.0 0.0012677
19690.0 0.0012597
19710.0 0.0012518
19730.0 0.0012439
19750.0 0.001236
19770.0 0.0012281
19790.0 0.0012203
19810.0 0.0012124
19830.0 0.0012046
19850.0 0.0011967
19870.0 0.0011887
19890.0 0.0011805
19910.0 0.0011719
19930.0 0.0011626
19950.0 0.0011523
19970.0 0.0011405
19990.0 0.0011267
20010.0 0.0011114
20030.0 0.0010938
20050.0 0.0010741
20070.0 0.0010533
20090.0 0.0010316
20110.0 0.0010082
20130.0 0.00098509
20150.0 0.00096261
20170.0 0.00094003
20190.0 0.00091768
20210.0 0.00089663
20230.0 0.00087626
20250.0 0.00085608
20270.0 0.00083709
20290.0 0.00081931
20310.0 0.00080209
20330.0 0.00078548
20350.0 0.00077056
20370.0 0.00075643
20390.0 0.00074298
20410.0 0.00073061
20430.0 0.00071933
20450.0 0.00070855
20470.0 0.00069864
20490.0 0.00068967
20510.0 0.00068138
20530.0 0.00067363
20550.0 0.00066659
20570.0 0.00066017
20590.0 0.00065414
20610.0 0.00064855
20630.0 0.00064336
20650.0 0.00063845
20670.0 0.00063377
20690.0 0.0006293
20710.0 0.00062494
20730.0 0.00062065
20750.0 0.00061638
20770.0 0.00061208
20790.0 0.00060771
20810.0 0.00060322
20830.0 0.0005986
20850.0 0.00059385
20870.0 0.00058887
20890.0 0.0005837
20910.0 0.00057841
20930.0 0.0005729
20950.0 0.00056718
20970.0 0.00056135
20990.0 0.00055543
21010.0 0.00054925
21030.0 0.00054301
21050.0 0.00053678
21070.0 0.00053044
21090.0 0.00052396
21110.0 0.00051762
21130.0 0.00051133
21150.0 0.00050495
21170.0 0.00049866
21190.0 0.00049255
21210.0 0.00048641
21230.0 0.0004803
21250.0 0.00047443
21270.0 0.00046868
21290.0 0.00046297
21310.0 0.00045743
21330.0 0.00045216
21350.0 0.00044696
21370.0 0.00044189
21390.0 0.00043708
21410.0 0.00043246
21430.0 0.00042791
21450.0 0.00042364
21470.0 0.00041962
21490.0 0.00041575
21510.0 0.00041207
21530.0 0.00040864
21550.0 0.00040538
21570.0 0.00040229
21590.0 0.0003994
21610.0 0.00039668
21630.0 0.00039411
21650.0 0.00039169
21670.0 0.00038941
21690.0 0.00038725
21710.0 0.0003852
21730.0 0.00038325
21750.0 0.00038137
21770.0 0.00037958
21790.0 0.00037787
21810.0 0.00037619
21830.0 0.00037456
21850.0 0.00037299
21870.0 0.00037143
21890.0 0.00036988
21910.0 0.00036836
21930.0 0.00036684
21950.0 0.0003653
21970.0 0.00036376
21990.0 0.0003622
22010.0 0.0003606
22030.0 0.00035896
22050.0 0.00035728
22070.0 0.00035556
22090.0 0.00035378
22110.0 0.00035195
22130.0 0.00035007
22150.0 0.00034814
22170.0 0.00034617
22190.0 0.00034413
22210.0 0.00034203
22230.0 0.00033992
22250.0 0.00033774
22270.0 0.00033549
22290.0 0.00033321
22310.0 0.00033087
22330.0 0.00032842
22350.0 0.0003259
22370.0 0.00032331
22390.0 0.0003206
22410.0 0.00031772
22430.0 0.00031477
22450.0 0.0003117
22470.0 0.00030842
22490.0 0.00030499
22510.0 0.00030149
22530.0 0.00029775
22550.0 0.00029379
22570.0 0.00028982
22590.0 0.00028573
22610.0 0.00028143
22630.0 0.00027709
22650.0 0.00027284
22670.0 0.00026845
22690.0 0.00026402
22710.0 0.00025974
22730.0 0.00025553
22750.0 0.00025123
22770.0 0.00024717
22790.0 0.00024333
22810.0 0.00023955
22830.0 0.00023591
22850.0 0.00023256
22870.0 0.00022936
22890.0 0.00022625
22910.0 0.00022339
22930.0 0.00022075
22950.0 0.00021821
22970.0 0.00021579
22990.0 0.00021362
23010.0 0.00021154
23030.0 0.00020954
23050.0 0.00020766
23070.0 0.00020589
23090.0 0.00020411
23110.0 0.00020239
23130.0 0.00020075
23150.0 0.00019912
23170.0 0.00019748
23190.0 0.00019588
23210.0 0.00019433
23230.0 0.00019276
23250.0 0.00019121
23270.0 0.00018974
23290.0 0.00018828
23310.0 0.00018683
23330.0 0.00018548
23350.0 0.0001842
23370.0 0.00018297
23390.0 0.0001818
23410.0 0.00018073
23430.0 0.00017971
23450.0 0.00017874
23470.0 0.00017784
23490.0 0.000177
23510.0 0.00017619
23530.0 0.00017542
23550.0 0.00017471
23570.0 0.00017402
23590.0 0.00017336
