#lamb flux
1010.0 4.3203e-07
1030.0 4.7609e-07
1050.0 5.2676e-07
1070.0 5.8381e-07
1090.0 6.486e-07
1110.0 7.1506e-07
1130.0 7.8195e-07
1150.0 8.5201e-07
1170.0 9.2429e-07
1190.0 9.9282e-07
1210.0 1.0623e-06
1230.0 1.1341e-06
1250.0 1.2044e-06
1270.0 1.2727e-06
1290.0 1.3448e-06
1310.0 1.417e-06
1330.0 1.4861e-06
1350.0 1.556e-06
1370.0 1.6282e-06
1390.0 1.6986e-06
1410.0 1.7669e-06
1430.0 1.8383e-06
1450.0 1.9097e-06
1470.0 1.9787e-06
1490.0 2.0484e-06
1510.0 2.1221e-06
1530.0 2.1918e-06
1550.0 2.2606e-06
1570.0 2.3318e-06
1590.0 2.403e-06
1610.0 2.471e-06
1630.0 2.5411e-06
1650.0 2.613e-06
1670.0 2.6825e-06
1690.0 2.7511e-06
1710.0 2.8223e-06
1730.0 2.8938e-06
1750.0 2.9609e-06
1770.0 3.0299e-06
1790.0 3.1002e-06
1810.0 3.1681e-06
1830.0 3.2346e-06
1850.0 3.3051e-06
1870.0 3.3734e-06
1890.0 3.4392e-06
1910.0 3.506e-06
1930.0 3.5742e-06
1950.0 3.6388e-06
1970.0 3.702e-06
1990.0 3.7674e-06
2010.0 3.831e-06
2030.0 3.8915e-06
2050.0 3.9533e-06
2070.0 4.016e-06
2090.0 4.0739e-06
2110.0 4.1306e-06
2130.0 4.1883e-06
2150.0 4.2435e-06
2170.0 4.2945e-06
2190.0 4.3467e-06
2210.0 4.3978e-06
2230.0 4.4446e-06
2250.0 4.4895e-06
2270.0 4.5355e-06
2290.0 4.5776e-06
2310.0 4.6151e-06
2330.0 4.6526e-06
2350.0 4.6888e-06
2370.0 4.7206e-06
2390.0 4.752e-06
2410.0 4.7866e-06
2430.0 4.8211e-06
2450.0 4.8583e-06
2470.0 4.9061e-06
2490.0 4.9705e-06
2510.0 5.0521e-06
2530.0 5.1756e-06
2550.0 5.377e-06
2570.0 5.6859e-06
2590.0 6.137e-06
2610.0 6.8351e-06
2630.0 7.7833e-06
2650.0 8.9113e-06
2670.0 1.0217e-05
2690.0 1.1631e-05
2710.0 1.2946e-05
2730.0 1.4073e-05
2750.0 1.5038e-05
2770.0 1.5749e-05
2790.0 1.6218e-05
2810.0 1.6532e-05
2830.0 1.6753e-05
2850.0 1.6881e-05
2870.0 1.6974e-05
2890.0 1.7065e-05
2910.0 1.715e-05
2930.0 1.7218e-05
2950.0 1.7297e-05
2970.0 1.7382e-05
2990.0 1.7454e-05
3010.0 0.00020476
3030.0 0.00020566
3050.0 0.0002065
3070.0 0.00020701
3090.0 0.00020737
3110.0 0.0002073
3130.0 0.00020646
3150.0 0.00020472
3170.0 0.00020187
3190.0 0.00019797
3210.0 0.00019346
3230.0 0.00018886
3250.0 0.00018519
3270.0 0.00018292
3290.0 0.00018304
3310.0 0.0001851
3330.0 0.00018979
3350.0 0.00019636
3370.0 0.00020493
3390.0 0.00021518
3410.0 0.00022593
3430.0 0.00023762
3450.0 0.00025054
3470.0 0.00026405
3490.0 0.00027776
3510.0 0.0002927
3530.0 0.00030823
3550.0 0.00032341
3570.0 0.0003389
3590.0 0.00035591
3610.0 0.00037257
3630.0 0.00038973
3650.0 0.00040674
3670.0 0.00042229
3690.0 0.00043422
3710.0 0.00044224
3730.0 0.00044651
3750.0 0.00044789
3770.0 0.00041727
3790.0 0.00038727
3810.0 0.00034023
3830.0 0.00025434
3850.0 0.00018522
3870.0 0.00018126
3890.0 0.00022761
3910.0 0.00035365
3930.0 0.00047036
3950.0 0.00053055
3970.0 0.00055709
3990.0 0.00059479
4010.0 0.00065869
4030.0 0.00065807
4050.0 0.00061935
4070.0 0.00057477
4090.0 0.00055015
4110.0 0.00059048
4130.0 0.00060692
4150.0 0.00060748
4170.0 0.00062436
4190.0 0.00062444
4210.0 0.00063796
4230.0 0.00068997
4250.0 0.00075437
4270.0 0.00078632
4290.0 0.00077887
4310.0 0.00079351
4330.0 0.00084807
4350.0 0.00098251
4370.0 0.0011048
4390.0 0.0010381
4410.0 0.00085467
4430.0 0.0007314
4450.0 0.00061889
4470.0 0.00057293
4490.0 0.00064709
4510.0 0.00076861
4530.0 0.00085038
4550.0 0.00093893
4570.0 0.0010977
4590.0 0.0013453
4610.0 0.0017666
4630.0 0.0021314
4650.0 0.0021588
4670.0 0.0021409
4690.0 0.0022724
4710.0 0.0022944
4730.0 0.0019079
4750.0 0.0014393
4770.0 0.0011663
4790.0 0.0011288
4810.0 0.0010727
4830.0 0.0010697
4850.0 0.0012619
4870.0 0.0015695
4890.0 0.0016832
4910.0 0.0014588
4930.0 0.0013744
4950.0 0.0015945
4970.0 0.0020993
4990.0 0.0025702
5010.0 0.002629
5030.0 0.0021083
5050.0 0.0014408
5070.0 0.0010601
5090.0 0.00091504
5110.0 0.00090281
5130.0 0.00097877
5150.0 0.0010137
5170.0 0.0010003
5190.0 0.00099261
5210.0 0.00097149
5230.0 0.0010235
5250.0 0.0011214
5270.0 0.0012868
5290.0 0.0014924
5310.0 0.0016284
5330.0 0.0016867
5350.0 0.0017937
5370.0 0.0019697
5390.0 0.0020447
5410.0 0.0018871
5430.0 0.0016714
5450.0 0.0016496
5470.0 0.0019703
5490.0 0.0025012
5510.0 0.0030468
5530.0 0.0033019
5550.0 0.0032064
5570.0 0.0029768
5590.0 0.0027
5610.0 0.0025927
5630.0 0.0026082
5650.0 0.0026267
5670.0 0.0025815
5690.0 0.0024445
5710.0 0.0023406
5730.0 0.0020823
5750.0 0.0016043
5770.0 0.001411
5790.0 0.0015312
5810.0 0.0017912
5830.0 0.0020387
5850.0 0.0021873
5870.0 0.0021989
5890.0 0.0020542
5910.0 0.001995
5930.0 0.0020223
5950.0 0.0021266
5970.0 0.0022019
5990.0 0.0020151
6010.0 0.001666
6030.0 0.0013791
6050.0 0.0012639
6070.0 0.0013149
6090.0 0.0014526
6110.0 0.0014821
6130.0 0.0013809
6150.0 0.0013446
6170.0 0.0014751
6190.0 0.0017651
6210.0 0.00212
6230.0 0.0023628
6250.0 0.0023431
6270.0 0.0020728
6290.0 0.0017095
6310.0 0.00137
6330.0 0.0011332
6350.0 0.0010732
6370.0 0.0011777
6390.0 0.0013534
6410.0 0.0015722
6430.0 0.0018169
6450.0 0.0021349
6470.0 0.0026396
6490.0 0.0032188
6510.0 0.0034075
6530.0 0.0032114
6550.0 0.003064
6570.0 0.0030283
6590.0 0.0029052
6610.0 0.0026773
6630.0 0.002492
6650.0 0.0023913
6670.0 0.002387
6690.0 0.0023189
6710.0 0.0020862
6730.0 0.0018093
6750.0 0.0016595
6770.0 0.0017465
6790.0 0.0018764
6810.0 0.0019341
6830.0 0.0019597
6850.0 0.0018888
6870.0 0.0018012
6890.0 0.0017447
6910.0 0.0016623
6930.0 0.0016064
6950.0 0.0016209
6970.0 0.0016803
6990.0 0.0018465
7010.0 0.0019279
7030.0 0.0018406
7050.0 0.0016865
7070.0 0.0014688
7090.0 0.0012484
7110.0 0.0011697
7130.0 0.001221
7150.0 0.0012735
7170.0 0.0013074
7190.0 0.0012825
7210.0 0.0012761
7230.0 0.0014289
7250.0 0.0016605
7270.0 0.0018656
7290.0 0.0019707
7310.0 0.0018435
7330.0 0.0016475
7350.0 0.0015023
7370.0 0.0014664
7390.0 0.0015347
7410.0 0.0016496
7430.0 0.0018143
7450.0 0.0020065
7470.0 0.0021815
7490.0 0.0022209
7510.0 0.0019296
7530.0 0.0019105
7550.0 0.0017282
7570.0 0.0014737
7590.0 0.0011842
7610.0 0.001105
7630.0 0.0012025
7650.0 0.0013991
7670.0 0.0016016
7690.0 0.0017668
7710.0 0.0019373
7730.0 0.0020893
7750.0 0.0021972
7770.0 0.0021615
7790.0 0.0021459
7810.0 0.0021819
7830.0 0.0021583
7850.0 0.0020702
7870.0 0.0019423
7890.0 0.0017855
7910.0 0.0015789
7930.0 0.0013992
7950.0 0.0012864
7970.0 0.001255
7990.0 0.001297
8010.0 0.0013238
8030.0 0.0013396
8050.0 0.0013515
8070.0 0.001335
8090.0 0.001329
8110.0 0.0012795
8130.0 0.0011939
8150.0 0.001126
8170.0 0.0011123
8190.0 0.0011299
8210.0 0.0011391
8230.0 0.0011278
8250.0 0.0010883
8270.0 0.0009596
8290.0 0.00075772
8310.0 0.00055076
8330.0 0.00037002
8350.0 0.00026401
8370.0 0.0002677
8390.0 0.0003242
8410.0 0.00040901
8430.0 0.00049867
8450.0 0.00054719
8470.0 0.00057371
8490.0 0.00060058
8510.0 0.00063153
8530.0 0.00070003
8550.0 0.0008141
8570.0 0.000956
8590.0 0.0011029
8610.0 0.0012852
8630.0 0.0014911
8650.0 0.0016153
8670.0 0.0016133
8690.0 0.001555
8710.0 0.0014744
8730.0 0.0014112
8750.0 0.0013524
8770.0 0.0013145
8790.0 0.0012609
8810.0 0.0011692
8830.0 0.0010679
8850.0 0.00091543
8870.0 0.00080916
8890.0 0.00074981
8910.0 0.00078649
8930.0 0.00077082
8950.0 0.00079117
8970.0 0.00079953
8990.0 0.00080981
9010.0 0.00082318
9030.0 0.00081205
9050.0 0.00081132
9070.0 0.00081189
9090.0 0.00081253
9110.0 0.00081293
9130.0 0.00081369
9150.0 0.00081482
9170.0 0.00081554
9190.0 0.00081569
9210.0 0.00082016
9230.0 0.00082084
9250.0 0.00082206
9270.0 0.00082345
9290.0 0.00082502
9310.0 0.00082676
9330.0 0.00082864
9350.0 0.00083061
9370.0 0.00083271
9390.0 0.00083492
9410.0 0.00083721
9430.0 0.00083958
9450.0 0.00084208
9470.0 0.00084466
9490.0 0.00084732
9510.0 0.00085006
9530.0 0.00085292
9550.0 0.00085583
9570.0 0.00085882
9590.0 0.00086192
9610.0 0.00086508
9630.0 0.0008683
9650.0 0.00087161
9670.0 0.00087501
9690.0 0.00087845
9710.0 0.00088196
9730.0 0.00088555
9750.0 0.00088919
9770.0 0.00089286
9790.0 0.0008966
9810.0 0.00090041
9830.0 0.00090425
9850.0 0.00090813
9870.0 0.00091207
9890.0 0.00091604
9910.0 0.00092002
9930.0 0.00092404
9950.0 0.00092788
9970.0 0.000932
9990.0 0.00093613
10010.0 0.00093921
10030.0 0.00094334
10050.0 0.00094725
10070.0 0.00095013
10090.0 0.00095469
10110.0 0.00095913
10130.0 0.00096346
10150.0 0.00096774
10170.0 0.00097189
10190.0 0.00097587
10210.0 0.00097991
10230.0 0.00098393
10250.0 0.0009878
10270.0 0.00099164
10290.0 0.00099553
10310.0 0.00099927
10330.0 0.0010029
10350.0 0.0010065
10370.0 0.0010101
10390.0 0.0010136
10410.0 0.001017
10430.0 0.0010204
10450.0 0.0010236
10470.0 0.0010267
10490.0 0.0010298
10510.0 0.0010329
10530.0 0.0010356
10550.0 0.0010384
10570.0 0.0010411
10590.0 0.0010436
10610.0 0.001046
10630.0 0.0010483
10650.0 0.0010506
10670.0 0.0010526
10690.0 0.0010545
10710.0 0.0010564
10730.0 0.001058
10750.0 0.0010594
10770.0 0.0010609
10790.0 0.0010622
10810.0 0.0010632
10830.0 0.0010641
10850.0 0.0010649
10870.0 0.0010651
10890.0 0.0010648
10910.0 0.0010636
10930.0 0.0010609
10950.0 0.0010558
10970.0 0.0010478
10990.0 0.0010367
11010.0 0.0010021
11030.0 0.00098167
11050.0 0.00095815
11070.0 0.00093112
11090.0 0.00089968
11110.0 0.00086819
11130.0 0.00083638
11150.0 0.0008034
11170.0 0.00077098
11190.0 0.00074119
11210.0 0.00071225
11230.0 0.00068463
11250.0 0.00066025
11270.0 0.00063867
11290.0 0.00061882
11310.0 0.00060161
11330.0 0.0005876
11350.0 0.00057516
11370.0 0.00056411
11390.0 0.00055456
11410.0 0.00054581
11430.0 0.00053681
11450.0 0.00052776
11470.0 0.00051844
11490.0 0.00050811
11510.0 0.00049641
11530.0 0.00048415
11550.0 0.00047104
11570.0 0.00045654
11590.0 0.0004415
11610.0 0.00042655
11630.0 0.00041093
11650.0 0.00039511
11670.0 0.00038043
11690.0 0.00036643
11710.0 0.00035285
11730.0 0.00034047
11750.0 0.00032959
11770.0 0.0003194
11790.0 0.00031017
11810.0 0.00030218
11830.0 0.000295
11850.0 0.00028819
11870.0 0.00028207
11890.0 0.00027642
11910.0 0.00027075
11930.0 0.00026501
11950.0 0.00025933
11970.0 0.0002534
11990.0 0.00024698
12010.0 0.00024042
12030.0 0.00023378
12050.0 0.00022682
12070.0 0.00021968
12090.0 0.00021306
12110.0 0.00020662
12130.0 0.00020048
12150.0 0.0001951
12170.0 0.00019059
12190.0 0.00018682
12210.0 0.00018418
12230.0 0.00018275
12250.0 0.00018246
12270.0 0.00018345
12290.0 0.00018559
12310.0 0.00018868
12330.0 0.00019295
12350.0 0.0001981
12370.0 0.00020372
12390.0 0.00020992
12410.0 0.00021683
12430.0 0.00022342
12450.0 0.00022982
12470.0 0.00023616
12490.0 0.000242
12510.0 0.00024694
12530.0 0.00025133
12550.0 0.00025497
12570.0 0.00025755
12590.0 0.00025917
12610.0 0.00025992
12630.0 0.00025968
12650.0 0.00025852
12670.0 0.00025656
12690.0 0.0002538
12710.0 0.00025045
12730.0 0.00024658
12750.0 0.00024207
12770.0 0.00023724
12790.0 0.00023224
12810.0 0.00022695
12830.0 0.00022138
12850.0 0.0002159
12870.0 0.00021037
12890.0 0.0002046
12910.0 0.00019882
12930.0 0.00019314
12950.0 0.00018721
12970.0 0.00018109
12990.0 0.00017517
13010.0 0.00016921
13030.0 0.00016307
13050.0 0.00015706
13070.0 0.00015135
13090.0 0.00014561
13110.0 0.00014008
13130.0 0.00013505
13150.0 0.00013041
13170.0 0.00012607
13190.0 0.00012243
13210.0 0.00011946
13230.0 0.00011703
13250.0 0.00011527
13270.0 0.00011418
13290.0 0.00011371
13310.0 0.00011386
13330.0 0.00011457
13350.0 0.00011572
13370.0 0.00011736
13390.0 0.0001194
13410.0 0.00012154
13430.0 0.00012389
13450.0 0.00012641
13470.0 0.00012888
13490.0 0.0001312
13510.0 0.00013359
13530.0 0.00013576
13550.0 0.00013764
13570.0 0.00013934
13590.0 0.00014086
13610.0 0.00014208
13630.0 0.00014303
13650.0 0.00014382
13670.0 0.00014438
13690.0 0.00014471
13710.0 0.00014488
13730.0 0.00014489
13750.0 0.00014471
13770.0 0.00014437
13790.0 0.00014389
13810.0 0.00014325
13830.0 0.00014248
13850.0 0.00014155
13870.0 0.00014045
13890.0 0.00013923
13910.0 0.00013788
13930.0 0.00013635
13950.0 0.00013471
13970.0 0.00013305
13990.0 0.00013129
14010.0 0.00012946
14030.0 0.00012768
14050.0 0.00012594
14070.0 0.00012418
14090.0 0.00012257
14110.0 0.00012111
14130.0 0.00011978
14150.0 0.00011859
14170.0 0.00011764
14190.0 0.00011688
14210.0 0.00011631
14230.0 0.00011597
14250.0 0.00011584
14270.0 0.00011593
14290.0 0.00011625
14310.0 0.00011675
14330.0 0.00011744
14350.0 0.00011833
14370.0 0.00011935
14390.0 0.00012044
14410.0 0.00012168
14430.0 0.000123
14450.0 0.00012431
14470.0 0.00012566
14490.0 0.00012712
14510.0 0.00012855
14530.0 0.00012998
14550.0 0.00013154
14570.0 0.00013323
14590.0 0.000135
14610.0 0.000137
14630.0 0.00013934
14650.0 0.0001419
14670.0 0.00014472
14690.0 0.00014799
14710.0 0.00015167
14730.0 0.00015543
14750.0 0.00015956
14770.0 0.00016404
14790.0 0.00016855
14810.0 0.00017303
14830.0 0.00017777
14850.0 0.00018231
14870.0 0.00018645
14890.0 0.00019035
14910.0 0.00019392
14930.0 0.00019688
14950.0 0.00019927
14970.0 0.0002012
14990.0 0.00020254
15010.0 0.00020334
15030.0 0.00020373
15050.0 0.00020375
15070.0 0.00020351
15090.0 0.00020311
15110.0 0.00020258
15130.0 0.00020199
15150.0 0.0002014
15170.0 0.00020077
15190.0 0.00020013
15210.0 0.00019952
15230.0 0.00019891
15250.0 0.00019828
15270.0 0.00019765
15290.0 0.00019707
15310.0 0.00019646
15330.0 0.00019585
15350.0 0.00019526
15370.0 0.00019468
15390.0 0.00019407
15410.0 0.00019348
15430.0 0.00019291
15450.0 0.00019233
15470.0 0.00019174
15490.0 0.00019118
15510.0 0.00019061
15530.0 0.00019003
15550.0 0.00018947
15570.0 0.00018892
15590.0 0.00018834
15610.0 0.00018777
15630.0 0.00018722
15650.0 0.00018667
15670.0 0.0001861
15690.0 0.00018554
15710.0 0.00018501
15730.0 0.00018445
15750.0 0.00018389
15770.0 0.00018335
15790.0 0.00018281
15810.0 0.00018224
15830.0 0.00018169
15850.0 0.00018116
15870.0 0.00018061
15890.0 0.00018005
15910.0 0.00017952
15930.0 0.00017898
15950.0 0.00017842
15970.0 0.00017788
15990.0 0.00017734
16010.0 0.00017679
16030.0 0.00017623
16050.0 0.0001757
16070.0 0.00017516
16090.0 0.0001746
16110.0 0.00017406
16130.0 0.00017353
16150.0 0.00017296
16170.0 0.0001724
16190.0 0.00017187
16210.0 0.00017132
16230.0 0.00017075
16250.0 0.00017021
16270.0 0.00016967
16290.0 0.00016911
16310.0 0.00016855
16330.0 0.00016801
16350.0 0.00016745
16370.0 0.00016686
16390.0 0.00016631
16410.0 0.00016576
16430.0 0.00016519
16450.0 0.00016463
16470.0 0.00016408
16490.0 0.00016351
16510.0 0.00016293
16530.0 0.00016236
16550.0 0.0001618
16570.0 0.00016121
16590.0 0.00016063
16610.0 0.00016007
16630.0 0.0001595
16650.0 0.00015891
16670.0 0.00015834
16690.0 0.00015777
16710.0 0.00015716
16730.0 0.00015657
16750.0 0.000156
16770.0 0.0001554
16790.0 0.0001548
16810.0 0.00015422
16830.0 0.00015363
16850.0 0.00015302
16870.0 0.00015243
16890.0 0.00015184
16910.0 0.00015123
16930.0 0.00015061
16950.0 0.00015001
16970.0 0.00014941
16990.0 0.00014879
17010.0 0.00014818
17030.0 0.00014759
17050.0 0.00014696
17070.0 0.00014634
17090.0 0.00014573
17110.0 0.00014512
17130.0 0.00014447
17150.0 0.00014385
17170.0 0.00014324
17190.0 0.00014261
17210.0 0.00014197
17230.0 0.00014136
17250.0 0.00014073
17270.0 0.00014008
17290.0 0.00013945
17310.0 0.00013882
17330.0 0.00013817
17350.0 0.00013752
17370.0 0.0001369
17390.0 0.00013626
17410.0 0.0001356
17430.0 0.00013497
17450.0 0.00013434
17470.0 0.00013366
17490.0 0.00013301
17510.0 0.00013237
17530.0 0.00013172
17550.0 0.00013105
17570.0 0.0001304
17590.0 0.00012976
17610.0 0.00012909
17630.0 0.00012843
17650.0 0.00012778
17670.0 0.00012712
17690.0 0.00012643
17710.0 0.00012578
17730.0 0.00012513
17750.0 0.00012445
17770.0 0.00012379
17790.0 0.00012314
17810.0 0.00012246
17830.0 0.00012178
17850.0 0.00012112
17870.0 0.00012046
17890.0 0.00011977
17910.0 0.00011909
17930.0 0.00011844
17950.0 0.00011776
17970.0 0.00011708
17990.0 0.00011642
18010.0 0.00011575
18030.0 0.00011506
18050.0 0.00011438
18070.0 0.00011372
18090.0 0.00011303
18110.0 0.00011234
18130.0 0.00011168
18150.0 0.00011101
18170.0 0.00011032
18190.0 0.00010964
18210.0 0.00010898
18230.0 0.00010829
18250.0 0.00010759
18270.0 0.00010693
18290.0 0.00010625
18310.0 0.00010556
18330.0 0.00010489
18350.0 0.00010422
18370.0 0.00010353
18390.0 0.00010285
18410.0 0.00010218
18430.0 0.0001015
18450.0 0.0001008
18470.0 0.00010013
18490.0 9.9463e-05
18510.0 9.8777e-05
18530.0 9.8094e-05
18550.0 9.7434e-05
18570.0 9.6755e-05
18590.0 9.606e-05
18610.0 9.5388e-05
18630.0 9.4722e-05
18650.0 9.4035e-05
18670.0 9.3348e-05
18690.0 9.2693e-05
18710.0 9.202e-05
18730.0 9.1335e-05
18750.0 9.0669e-05
18770.0 9.0011e-05
18790.0 8.9316e-05
18810.0 8.8639e-05
18830.0 8.7982e-05
18850.0 8.7311e-05
18870.0 8.6628e-05
18890.0 8.597e-05
18910.0 8.5314e-05
18930.0 8.4634e-05
18950.0 8.3965e-05
18970.0 8.3313e-05
18990.0 8.2645e-05
19010.0 8.1956e-05
19030.0 8.1307e-05
19050.0 8.0653e-05
19070.0 7.9982e-05
19090.0 7.932e-05
19110.0 7.8681e-05
19130.0 7.8012e-05
19150.0 7.7342e-05
19170.0 7.6694e-05
19190.0 7.6045e-05
19210.0 7.5374e-05
19230.0 7.4716e-05
19250.0 7.4082e-05
19270.0 7.3426e-05
19290.0 7.2767e-05
19310.0 7.213e-05
19330.0 7.149e-05
19350.0 7.0819e-05
19370.0 7.0174e-05
19390.0 6.9541e-05
19410.0 6.8891e-05
19430.0 6.8236e-05
19450.0 6.761e-05
19470.0 6.6975e-05
19490.0 6.6323e-05
19510.0 6.5687e-05
19530.0 6.5064e-05
19550.0 6.4415e-05
19570.0 6.3765e-05
19590.0 6.3146e-05
19610.0 6.2517e-05
19630.0 6.1873e-05
19650.0 6.1248e-05
19670.0 6.0636e-05
19690.0 5.9995e-05
19710.0 5.9362e-05
19730.0 5.8748e-05
19750.0 5.8125e-05
19770.0 5.7481e-05
19790.0 5.6866e-05
19810.0 5.6258e-05
19830.0 5.5629e-05
19850.0 5.5003e-05
19870.0 5.4394e-05
19890.0 5.3756e-05
19910.0 5.3083e-05
19930.0 5.2403e-05
19950.0 5.1682e-05
19970.0 5.0871e-05
19990.0 4.9982e-05
20010.0 4.9053e-05
20030.0 4.8014e-05
20050.0 4.689e-05
20070.0 4.5756e-05
20090.0 4.4617e-05
20110.0 4.342e-05
20130.0 4.2296e-05
20150.0 4.1259e-05
20170.0 4.0261e-05
20190.0 3.9327e-05
20210.0 3.851e-05
20230.0 3.7773e-05
20250.0 3.7095e-05
20270.0 3.652e-05
20290.0 3.6042e-05
20310.0 3.5636e-05
20330.0 3.5307e-05
20350.0 3.5079e-05
20370.0 3.4924e-05
20390.0 3.4844e-05
20410.0 3.484e-05
20430.0 3.4904e-05
20450.0 3.5043e-05
20470.0 3.5253e-05
20490.0 3.5519e-05
20510.0 3.5845e-05
20530.0 3.6244e-05
20550.0 3.6686e-05
20570.0 3.7155e-05
20590.0 3.7685e-05
20610.0 3.8251e-05
20630.0 3.8821e-05
20650.0 3.9415e-05
20670.0 4.0052e-05
20690.0 4.0663e-05
20710.0 4.1259e-05
20730.0 4.1868e-05
20750.0 4.2467e-05
20770.0 4.3023e-05
20790.0 4.3578e-05
20810.0 4.4138e-05
20830.0 4.4673e-05
20850.0 4.5195e-05
20870.0 4.5745e-05
20890.0 4.6302e-05
20910.0 4.6841e-05
20930.0 4.7409e-05
20950.0 4.8007e-05
20970.0 4.8602e-05
20990.0 4.9198e-05
21010.0 4.9833e-05
21030.0 5.0457e-05
21050.0 5.105e-05
21070.0 5.1634e-05
21090.0 5.2205e-05
21110.0 5.2703e-05
21130.0 5.3146e-05
21150.0 5.3543e-05
21170.0 5.3867e-05
21190.0 5.4106e-05
21210.0 5.4278e-05
21230.0 5.4367e-05
21250.0 5.4367e-05
21270.0 5.4287e-05
21290.0 5.4121e-05
21310.0 5.3873e-05
21330.0 5.3561e-05
21350.0 5.3167e-05
21370.0 5.2697e-05
21390.0 5.2179e-05
21410.0 5.1611e-05
21430.0 5.0957e-05
21450.0 5.0281e-05
21470.0 4.9595e-05
21490.0 4.8868e-05
21510.0 4.8118e-05
21530.0 4.7397e-05
21550.0 4.6681e-05
21570.0 4.5958e-05
21590.0 4.5283e-05
21610.0 4.4664e-05
21630.0 4.4078e-05
21650.0 4.3541e-05
21670.0 4.3106e-05
21690.0 4.2737e-05
21710.0 4.2441e-05
21730.0 4.2236e-05
21750.0 4.2121e-05
21770.0 4.2091e-05
21790.0 4.2155e-05
21810.0 4.2305e-05
21830.0 4.2539e-05
21850.0 4.2869e-05
21870.0 4.3271e-05
21890.0 4.3728e-05
21910.0 4.4273e-05
21930.0 4.4882e-05
21950.0 4.5522e-05
21970.0 4.6219e-05
21990.0 4.6995e-05
22010.0 4.7767e-05
22030.0 4.8554e-05
22050.0 4.9384e-05
22070.0 5.0226e-05
22090.0 5.1028e-05
22110.0 5.1843e-05
22130.0 5.2662e-05
22150.0 5.3428e-05
22170.0 5.415e-05
22190.0 5.4857e-05
22210.0 5.5503e-05
22230.0 5.6054e-05
22250.0 5.6547e-05
22270.0 5.6966e-05
22290.0 5.7282e-05
22310.0 5.7504e-05
22330.0 5.7631e-05
22350.0 5.7644e-05
22370.0 5.755e-05
22390.0 5.7341e-05
22410.0 5.7004e-05
22430.0 5.657e-05
22450.0 5.6033e-05
22470.0 5.5367e-05
22490.0 5.4605e-05
22510.0 5.3779e-05
22530.0 5.2828e-05
22550.0 5.1775e-05
22570.0 5.0697e-05
22590.0 4.956e-05
22610.0 4.8332e-05
22630.0 4.7078e-05
22650.0 4.585e-05
22670.0 4.4556e-05
22690.0 4.324e-05
22710.0 4.1973e-05
22730.0 4.0721e-05
22750.0 3.9422e-05
22770.0 3.8207e-05
22790.0 3.7069e-05
22810.0 3.5948e-05
22830.0 3.4879e-05
22850.0 3.3925e-05
