#lamb flux
1010.0 2.804e-06
1030.0 2.9998e-06
1050.0 3.2557e-06
1070.0 3.6587e-06
1090.0 4.2387e-06
1110.0 4.8413e-06
1130.0 5.4539e-06
1150.0 6.0994e-06
1170.0 6.7589e-06
1190.0 7.3608e-06
1210.0 7.9366e-06
1230.0 8.4819e-06
1250.0 8.9744e-06
1270.0 9.3669e-06
1290.0 9.6967e-06
1310.0 9.921e-06
1330.0 1.0016e-05
1350.0 1.0016e-05
1370.0 9.9363e-06
1390.0 9.7615e-06
1410.0 9.508e-06
1430.0 9.2224e-06
1450.0 8.9013e-06
1470.0 8.551e-06
1490.0 8.2027e-06
1510.0 7.8803e-06
1530.0 7.5641e-06
1550.0 7.2775e-06
1570.0 7.0386e-06
1590.0 6.8459e-06
1610.0 6.7077e-06
1630.0 6.6825e-06
1650.0 6.7312e-06
1670.0 6.8499e-06
1690.0 7.0486e-06
1710.0 7.3432e-06
1730.0 7.7343e-06
1750.0 8.2152e-06
1770.0 8.8112e-06
1790.0 9.5286e-06
1810.0 1.0363e-05
1830.0 1.1323e-05
1850.0 1.2434e-05
1870.0 1.368e-05
1890.0 1.5057e-05
1910.0 1.6582e-05
1930.0 1.8255e-05
1950.0 2.0042e-05
1970.0 2.1945e-05
1990.0 2.3971e-05
2010.0 2.608e-05
2030.0 2.8241e-05
2050.0 3.0463e-05
2070.0 3.2722e-05
2090.0 3.4944e-05
2110.0 3.7131e-05
2130.0 3.9281e-05
2150.0 4.1337e-05
2170.0 4.3261e-05
2190.0 4.5088e-05
2210.0 4.6785e-05
2230.0 4.8307e-05
2250.0 4.9673e-05
2270.0 5.0919e-05
2290.0 5.1992e-05
2310.0 5.289e-05
2330.0 5.368e-05
2350.0 5.436e-05
2370.0 5.4913e-05
2390.0 5.5405e-05
2410.0 5.5901e-05
2430.0 5.6381e-05
2450.0 5.6893e-05
2470.0 5.7537e-05
2490.0 5.836e-05
2510.0 5.9311e-05
2530.0 6.0566e-05
2550.0 6.2329e-05
2570.0 6.4718e-05
2590.0 6.7947e-05
2610.0 7.2737e-05
2630.0 7.9184e-05
2650.0 8.7006e-05
2670.0 9.6437e-05
2690.0 0.00010736
2710.0 0.0001186
2730.0 0.0001297
2750.0 0.00014115
2770.0 0.00015228
2790.0 0.00016292
2810.0 0.00017382
2830.0 0.00018564
2850.0 0.00019742
2870.0 0.00020973
2890.0 0.00022307
2910.0 0.00023703
2930.0 0.00025102
2950.0 0.000266
2970.0 0.0002818
2990.0 0.00029774
3010.0 0.0003141
3030.0 0.0003315
3050.0 0.00034939
3070.0 0.0003668
3090.0 0.00038454
3110.0 0.00040184
3130.0 0.00041744
3150.0 0.00043099
3170.0 0.00044205
3190.0 0.00045013
3210.0 0.0004564
3230.0 0.0004616
3250.0 0.00046579
3270.0 0.00047021
3290.0 0.00047628
3310.0 0.00048521
3330.0 0.00049674
3350.0 0.00051006
3370.0 0.00052469
3390.0 0.00053734
3410.0 0.00055101
3430.0 0.00058509
3450.0 0.00060981
3470.0 0.0006264
3490.0 0.00064069
3510.0 0.00067759
3530.0 0.00080305
3550.0 0.00093007
3570.0 0.0010178
3590.0 0.0011216
3610.0 0.0011231
3630.0 0.0010474
3650.0 0.0011158
3670.0 0.0013294
3690.0 0.0014912
3710.0 0.0015483
3730.0 0.0015708
3750.0 0.0016706
3770.0 0.0016789
3790.0 0.0016035
3810.0 0.0015101
3830.0 0.0014215
3850.0 0.0014264
3870.0 0.0014988
3890.0 0.0015605
3910.0 0.0016036
3930.0 0.0016116
3950.0 0.0017202
3970.0 0.0018457
3990.0 0.0017863
4010.0 0.001595
4030.0 0.0014278
4050.0 0.0013952
4070.0 0.001457
4090.0 0.0014561
4110.0 0.0014065
4130.0 0.001394
4150.0 0.0014472
4170.0 0.0016019
4190.0 0.0017092
4210.0 0.0016315
4230.0 0.0015117
4250.0 0.0014428
4270.0 0.0013999
4290.0 0.0014159
4310.0 0.0014561
4330.0 0.0013848
4350.0 0.0012217
4370.0 0.0010844
4390.0 0.00098938
4410.0 0.00092613
4430.0 0.00093966
4450.0 0.0010289
4470.0 0.0011231
4490.0 0.0012119
4510.0 0.001357
4530.0 0.0016282
4550.0 0.0019218
4570.0 0.002099
4590.0 0.0022432
4610.0 0.0023874
4630.0 0.0024351
4650.0 0.002262
4670.0 0.0019322
4690.0 0.0016765
4710.0 0.0015922
4730.0 0.0015296
4750.0 0.0013548
4770.0 0.0012177
4790.0 0.0012595
4810.0 0.0013682
4830.0 0.0013485
4850.0 0.0012179
4870.0 0.001224
4890.0 0.0012648
4910.0 0.0013017
4930.0 0.00129
4950.0 0.0012616
4970.0 0.001206
4990.0 0.0011122
5010.0 0.0010339
5030.0 0.00099781
5050.0 0.00098141
5070.0 0.00097136
5090.0 0.00096291
5110.0 0.00096121
5130.0 0.00097886
5150.0 0.0010317
5170.0 0.001132
5190.0 0.0012587
5210.0 0.0013751
5230.0 0.0014445
5250.0 0.0014812
5270.0 0.0015438
5290.0 0.0015993
5310.0 0.0016032
5330.0 0.0015445
5350.0 0.0014824
5370.0 0.0014829
5390.0 0.001541
5410.0 0.0015904
5430.0 0.001593
5450.0 0.0015741
5470.0 0.0015307
5490.0 0.0014824
5510.0 0.0014607
5530.0 0.0014681
5550.0 0.0014875
5570.0 0.001498
5590.0 0.0014527
5610.0 0.0013702
5630.0 0.0012945
5650.0 0.0012345
5670.0 0.0011955
5690.0 0.0011441
5710.0 0.0011076
5730.0 0.0011192
5750.0 0.0011129
5770.0 0.0010904
5790.0 0.0010996
5810.0 0.0011288
5830.0 0.0011529
5850.0 0.0011595
5870.0 0.0011318
5890.0 0.0010835
5910.0 0.0010343
5930.0 0.00096813
5950.0 0.00091833
5970.0 0.00092091
5990.0 0.00094576
6010.0 0.00094968
6030.0 0.00091571
6050.0 0.00090724
6070.0 0.00094156
6090.0 0.00097956
6110.0 0.00098533
6130.0 0.00094385
6150.0 0.00088458
6170.0 0.00084917
6190.0 0.00082073
6210.0 0.00079286
6230.0 0.00077154
6250.0 0.00076755
6270.0 0.00078826
6290.0 0.00082233
6310.0 0.00086303
6330.0 0.00090583
6350.0 0.00093631
6370.0 0.0009458
6390.0 0.00094403
6410.0 0.00095365
6430.0 0.00096635
6450.0 0.00096743
6470.0 0.00097479
6490.0 0.00098541
6510.0 0.00098661
6530.0 0.00097416
6550.0 0.00094625
6570.0 0.00091336
6590.0 0.00088879
6610.0 0.00086991
6630.0 0.00085287
6650.0 0.00082381
6670.0 0.00079088
6690.0 0.00076625
6710.0 0.00075129
6730.0 0.0007455
6750.0 0.00073741
6770.0 0.0007248
6790.0 0.00071276
6810.0 0.0007029
6830.0 0.00070106
6850.0 0.00069849
6870.0 0.00069122
6890.0 0.00068866
6910.0 0.00067647
6930.0 0.00066234
6950.0 0.00066071
6970.0 0.00065325
6990.0 0.00063617
7010.0 0.00062618
7030.0 0.00061646
7050.0 0.00060392
7070.0 0.00058938
7090.0 0.00057713
7110.0 0.00058351
7130.0 0.00060226
7150.0 0.00062129
7170.0 0.00063333
7190.0 0.00063037
7210.0 0.00062149
7230.0 0.00061346
7250.0 0.0006055
7270.0 0.00059731
7290.0 0.00058875
7310.0 0.00058361
7330.0 0.00059152
7350.0 0.00059764
7370.0 0.00059949
7390.0 0.00059341
7410.0 0.00058117
7430.0 0.00057606
7450.0 0.00057162
7470.0 0.0005479
7490.0 0.00052776
7510.0 0.00050475
7530.0 0.00048735
7550.0 0.00048154
7570.0 0.00048817
7590.0 0.00048448
7610.0 0.00047934
7630.0 0.00047627
7650.0 0.00047582
7670.0 0.00048499
7690.0 0.00050451
7710.0 0.00052273
7730.0 0.00054074
7750.0 0.00055459
7770.0 0.00056287
7790.0 0.00056149
7810.0 0.00055073
7830.0 0.00055573
7850.0 0.00055413
7870.0 0.00053883
7890.0 0.00052078
7910.0 0.00050478
7930.0 0.00048974
7950.0 0.00048009
7970.0 0.0004797
7990.0 0.00048536
8010.0 0.00048371
8030.0 0.0004784
8050.0 0.00046993
8070.0 0.00046111
8090.0 0.00045172
8110.0 0.00045296
8130.0 0.00045693
8150.0 0.00045701
8170.0 0.00045364
8190.0 0.00044593
8210.0 0.00042588
8230.0 0.00039775
8250.0 0.00038029
8270.0 0.00036982
8290.0 0.00036436
8310.0 0.00036652
8330.0 0.00037412
8350.0 0.00036688
8370.0 0.00035833
8390.0 0.00036379
8410.0 0.00037792
8430.0 0.00039999
8450.0 0.00042078
8470.0 0.00042773
8490.0 0.0004331
8510.0 0.00043272
8530.0 0.00043261
8550.0 0.00043665
8570.0 0.00043792
8590.0 0.00043852
8610.0 0.00045078
8630.0 0.00045524
8650.0 0.00044561
8670.0 0.00044516
8690.0 0.00044761
8710.0 0.00044408
8730.0 0.00044005
8750.0 0.00042717
8770.0 0.00042154
8790.0 0.00041787
8810.0 0.00041349
8830.0 0.00039275
8850.0 0.00036306
8870.0 0.00034082
8890.0 0.00032818
8910.0 0.00030843
8930.0 0.00028731
8950.0 0.00027816
8970.0 0.00027668
8990.0 0.00027759
9010.0 0.0002758
9030.0 0.00027384
9050.0 0.00027204
9070.0 0.00027033
9090.0 0.00026863
9110.0 0.00026694
9130.0 0.00026525
9150.0 0.00026357
9170.0 0.00026189
9190.0 0.00026021
9210.0 0.00025852
9230.0 0.00025686
9250.0 0.00025521
9270.0 0.00025355
9290.0 0.0002519
9310.0 0.00025026
9330.0 0.00024862
9350.0 0.00024699
9370.0 0.00024536
9390.0 0.00024375
9410.0 0.00024214
9430.0 0.00024052
9450.0 0.00023889
9470.0 0.00023729
9490.0 0.00023575
9510.0 0.00023418
9530.0 0.00023263
9550.0 0.00023107
9570.0 0.00022952
9590.0 0.00022798
9610.0 0.00022644
9630.0 0.00022492
9650.0 0.0002234
9670.0 0.00022189
9690.0 0.00022039
9710.0 0.00021889
9730.0 0.00021741
9750.0 0.00021593
9770.0 0.00021446
9790.0 0.000213
9810.0 0.00021155
9830.0 0.00021007
9850.0 0.00020841
9870.0 0.00020703
9890.0 0.00020569
9910.0 0.00020433
9930.0 0.00020292
9950.0 0.00020157
9970.0 0.00020019
9990.0 0.00019879
10010.0 0.00019723
10030.0 0.00019579
10050.0 0.00019453
10070.0 0.00019326
10090.0 0.00019198
10110.0 0.00019062
10130.0 0.00018904
10150.0 0.00018777
10170.0 0.00018655
10190.0 0.00018526
10210.0 0.000184
10230.0 0.00018275
10250.0 0.00018144
10270.0 0.00018014
10290.0 0.00017889
10310.0 0.00017759
10330.0 0.00017627
10350.0 0.00017501
10370.0 0.00017375
10390.0 0.00017246
10410.0 0.00017118
10430.0 0.00016995
10450.0 0.00016869
10470.0 0.00016741
10490.0 0.00016617
10510.0 0.00016495
10530.0 0.00016365
10550.0 0.0001624
10570.0 0.00016118
10590.0 0.00015994
10610.0 0.00015867
10630.0 0.00015746
10650.0 0.00015625
10670.0 0.00015498
10690.0 0.00015374
10710.0 0.00015254
10730.0 0.00015129
10750.0 0.00015002
10770.0 0.00014882
10790.0 0.00014761
10810.0 0.00014635
10830.0 0.00014513
10850.0 0.00014394
10870.0 0.00014269
10890.0 0.00014144
10910.0 0.00014025
10930.0 0.00013907
10950.0 0.00013786
10970.0 0.00013671
10990.0 0.00013563
11010.0 0.00013765
11030.0 0.0001367
11050.0 0.00013579
11070.0 0.00013488
11090.0 0.00013391
11110.0 0.00013297
11130.0 0.00013203
11150.0 0.00013105
11170.0 0.00013005
11190.0 0.0001291
11210.0 0.00012812
11230.0 0.00012713
11250.0 0.00012619
11270.0 0.00012528
11290.0 0.00012437
11310.0 0.00012349
11330.0 0.0001227
11350.0 0.00012191
11370.0 0.00012114
11390.0 0.00012042
11410.0 0.00011973
11430.0 0.00011902
11450.0 0.00011834
11470.0 0.00011767
11490.0 0.00011698
11510.0 0.00011626
11530.0 0.00011554
11550.0 0.0001148
11570.0 0.000114
11590.0 0.00011316
11610.0 0.00011232
11630.0 0.00011141
11650.0 0.00011044
11670.0 0.00010948
11690.0 0.00010849
11710.0 0.00010745
11730.0 0.0001064
11750.0 0.00010539
11770.0 0.00010435
11790.0 0.0001033
11810.0 0.0001023
11830.0 0.00010131
11850.0 0.0001003
11870.0 9.9349e-05
11890.0 9.8451e-05
11910.0 9.7555e-05
11930.0 9.668e-05
11950.0 9.5869e-05
11970.0 9.5083e-05
11990.0 9.4301e-05
12010.0 9.3574e-05
12030.0 9.2898e-05
12050.0 9.2242e-05
12070.0 9.1617e-05
12090.0 9.1069e-05
12110.0 9.0557e-05
12130.0 9.0081e-05
12150.0 8.9666e-05
12170.0 8.9311e-05
12190.0 8.8995e-05
12210.0 8.8741e-05
12230.0 8.855e-05
12250.0 8.8414e-05
12270.0 8.8336e-05
12290.0 8.8312e-05
12310.0 8.8334e-05
12330.0 8.8406e-05
12350.0 8.8518e-05
12370.0 8.8653e-05
12390.0 8.8813e-05
12410.0 8.9e-05
12430.0 8.9175e-05
12450.0 8.934e-05
12470.0 8.9495e-05
12490.0 8.9619e-05
12510.0 8.9697e-05
12530.0 8.9731e-05
12550.0 8.9708e-05
12570.0 8.9617e-05
12590.0 8.9457e-05
12610.0 8.9214e-05
12630.0 8.8886e-05
12650.0 8.8494e-05
12670.0 8.8018e-05
12690.0 8.7456e-05
12710.0 8.6842e-05
12730.0 8.6177e-05
12750.0 8.5423e-05
12770.0 8.4638e-05
12790.0 8.3842e-05
12810.0 8.3004e-05
12830.0 8.2128e-05
12850.0 8.128e-05
12870.0 8.0434e-05
12890.0 7.9562e-05
12910.0 7.8706e-05
12930.0 7.7885e-05
12950.0 7.7045e-05
12970.0 7.6202e-05
12990.0 7.5407e-05
13010.0 7.4624e-05
13030.0 7.3829e-05
13050.0 7.3061e-05
13070.0 7.2335e-05
13090.0 7.1599e-05
13110.0 7.0878e-05
13130.0 7.0203e-05
13150.0 6.9552e-05
13170.0 6.8901e-05
13190.0 6.8301e-05
13210.0 6.775e-05
13230.0 6.7213e-05
13250.0 6.6705e-05
13270.0 6.6243e-05
13290.0 6.5802e-05
13310.0 6.5369e-05
13330.0 6.4967e-05
13350.0 6.4585e-05
13370.0 6.4202e-05
13390.0 6.3817e-05
13410.0 6.3455e-05
13430.0 6.3084e-05
13450.0 6.2699e-05
13470.0 6.2316e-05
13490.0 6.1935e-05
13510.0 6.1524e-05
13530.0 6.1109e-05
13550.0 6.07e-05
13570.0 6.0279e-05
13590.0 5.9839e-05
13610.0 5.9407e-05
13630.0 5.8981e-05
13650.0 5.8535e-05
13670.0 5.8088e-05
13690.0 5.7653e-05
13710.0 5.721e-05
13730.0 5.6745e-05
13750.0 5.6303e-05
13770.0 5.5862e-05
13790.0 5.5404e-05
13810.0 5.4944e-05
13830.0 5.4499e-05
13850.0 5.4035e-05
13870.0 5.3555e-05
13890.0 5.3084e-05
13910.0 5.2609e-05
13930.0 5.2108e-05
13950.0 5.1599e-05
13970.0 5.1108e-05
13990.0 5.0594e-05
14010.0 5.0063e-05
14030.0 4.9541e-05
14050.0 4.9019e-05
14070.0 4.8462e-05
14090.0 4.7918e-05
14110.0 4.7389e-05
14130.0 4.6852e-05
14150.0 4.6309e-05
14170.0 4.5802e-05
14190.0 4.5309e-05
14210.0 4.4815e-05
14230.0 4.4347e-05
14250.0 4.3914e-05
14270.0 4.3483e-05
14290.0 4.3069e-05
14310.0 4.2696e-05
14330.0 4.2339e-05
14350.0 4.1991e-05
14370.0 4.1666e-05
14390.0 4.1368e-05
14410.0 4.107e-05
14430.0 4.0783e-05
14450.0 4.0517e-05
14470.0 4.026e-05
14490.0 4.0001e-05
14510.0 3.976e-05
14530.0 3.9535e-05
14550.0 3.931e-05
14570.0 3.9093e-05
14590.0 3.8892e-05
14610.0 3.8695e-05
14630.0 3.8499e-05
14650.0 3.8317e-05
14670.0 3.8147e-05
14690.0 3.7979e-05
14710.0 3.782e-05
14730.0 3.7682e-05
14750.0 3.7553e-05
14770.0 3.7437e-05
14790.0 3.7342e-05
14810.0 3.7268e-05
14830.0 3.7213e-05
14850.0 3.7185e-05
14870.0 3.7186e-05
14890.0 3.7211e-05
14910.0 3.7263e-05
14930.0 3.7332e-05
14950.0 3.7412e-05
14970.0 3.7499e-05
14990.0 3.7579e-05
15010.0 3.7645e-05
15030.0 3.7695e-05
15050.0 3.7726e-05
15070.0 3.774e-05
15090.0 3.7742e-05
15110.0 3.7734e-05
15130.0 3.772e-05
15150.0 3.7706e-05
15170.0 3.7688e-05
15190.0 3.7669e-05
15210.0 3.7653e-05
15230.0 3.7637e-05
15250.0 3.7619e-05
15270.0 3.7603e-05
15290.0 3.759e-05
15310.0 3.7576e-05
15330.0 3.7561e-05
15350.0 3.7549e-05
15370.0 3.7538e-05
15390.0 3.7525e-05
15410.0 3.7514e-05
15430.0 3.7505e-05
15450.0 3.7495e-05
15470.0 3.7485e-05
15490.0 3.7478e-05
15510.0 3.7471e-05
15530.0 3.7463e-05
15550.0 3.7457e-05
15570.0 3.7452e-05
15590.0 3.7446e-05
15610.0 3.744e-05
15630.0 3.7437e-05
15650.0 3.7435e-05
15670.0 3.7431e-05
15690.0 3.7429e-05
15710.0 3.7429e-05
15730.0 3.7427e-05
15750.0 3.7426e-05
15770.0 3.7427e-05
15790.0 3.7428e-05
15810.0 3.7428e-05
15830.0 3.743e-05
15850.0 3.7433e-05
15870.0 3.7436e-05
15890.0 3.7438e-05
15910.0 3.7444e-05
15930.0 3.7449e-05
15950.0 3.7452e-05
15970.0 3.7458e-05
15990.0 3.7465e-05
16010.0 3.747e-05
16030.0 3.7476e-05
16050.0 3.7484e-05
16070.0 3.7493e-05
16090.0 3.75e-05
16110.0 3.7509e-05
16130.0 3.7519e-05
16150.0 3.7527e-05
16170.0 3.7536e-05
16190.0 3.7547e-05
16210.0 3.7557e-05
16230.0 3.7567e-05
16250.0 3.7578e-05
16270.0 3.7591e-05
16290.0 3.7602e-05
16310.0 3.7613e-05
16330.0 3.7627e-05
16350.0 3.7639e-05
16370.0 3.7649e-05
16390.0 3.7663e-05
16410.0 3.7677e-05
16430.0 3.769e-05
16450.0 3.7703e-05
16470.0 3.7718e-05
16490.0 3.7731e-05
16510.0 3.7744e-05
16530.0 3.7758e-05
16550.0 3.7773e-05
16570.0 3.7786e-05
16590.0 3.7799e-05
16610.0 3.7815e-05
16630.0 3.7829e-05
16650.0 3.7842e-05
16670.0 3.7857e-05
16690.0 3.7872e-05
16710.0 3.7884e-05
16730.0 3.7898e-05
16750.0 3.7913e-05
16770.0 3.7926e-05
16790.0 3.7938e-05
16810.0 3.7953e-05
16830.0 3.7967e-05
16850.0 3.7978e-05
16870.0 3.7991e-05
16890.0 3.8005e-05
16910.0 3.8016e-05
16930.0 3.8026e-05
16950.0 3.8039e-05
16970.0 3.805e-05
16990.0 3.806e-05
17010.0 3.8071e-05
17030.0 3.8082e-05
17050.0 3.8091e-05
17070.0 3.8099e-05
17090.0 3.8109e-05
17110.0 3.8117e-05
17130.0 3.8123e-05
17150.0 3.813e-05
17170.0 3.8138e-05
17190.0 3.8144e-05
17210.0 3.8148e-05
17230.0 3.8155e-05
17250.0 3.8159e-05
17270.0 3.816e-05
17290.0 3.8164e-05
17310.0 3.8167e-05
17330.0 3.8167e-05
17350.0 3.8166e-05
17370.0 3.8168e-05
17390.0 3.8167e-05
17410.0 3.8164e-05
17430.0 3.8162e-05
17450.0 3.816e-05
17470.0 3.8154e-05
17490.0 3.8148e-05
17510.0 3.8143e-05
17530.0 3.8136e-05
17550.0 3.8126e-05
17570.0 3.8118e-05
17590.0 3.8109e-05
17610.0 3.8097e-05
17630.0 3.8085e-05
17650.0 3.8073e-05
17670.0 3.8059e-05
17690.0 3.8041e-05
17710.0 3.8026e-05
17730.0 3.8009e-05
17750.0 3.799e-05
17770.0 3.797e-05
17790.0 3.7951e-05
17810.0 3.7928e-05
17830.0 3.7904e-05
17850.0 3.788e-05
17870.0 3.7855e-05
17890.0 3.7826e-05
17910.0 3.7798e-05
17930.0 3.777e-05
17950.0 3.7739e-05
17970.0 3.7706e-05
17990.0 3.7674e-05
18010.0 3.7641e-05
18030.0 3.7602e-05
18050.0 3.7565e-05
18070.0 3.7528e-05
18090.0 3.7487e-05
18110.0 3.7445e-05
18130.0 3.7404e-05
18150.0 3.736e-05
18170.0 3.7314e-05
18190.0 3.7267e-05
18210.0 3.722e-05
18230.0 3.7169e-05
18250.0 3.7117e-05
18270.0 3.7066e-05
18290.0 3.7012e-05
18310.0 3.6956e-05
18330.0 3.69e-05
18350.0 3.6843e-05
18370.0 3.6782e-05
18390.0 3.6721e-05
18410.0 3.6659e-05
18430.0 3.6596e-05
18450.0 3.6528e-05
18470.0 3.6462e-05
18490.0 3.6395e-05
18510.0 3.6324e-05
18530.0 3.6253e-05
18550.0 3.6182e-05
18570.0 3.6108e-05
18590.0 3.603e-05
18610.0 3.5954e-05
18630.0 3.5876e-05
18650.0 3.5796e-05
18670.0 3.5713e-05
18690.0 3.5633e-05
18710.0 3.5549e-05
18730.0 3.5462e-05
18750.0 3.5376e-05
18770.0 3.5289e-05
18790.0 3.5197e-05
18810.0 3.5106e-05
18830.0 3.5015e-05
18850.0 3.4921e-05
18870.0 3.4824e-05
18890.0 3.4729e-05
18910.0 3.4632e-05
18930.0 3.4532e-05
18950.0 3.4431e-05
18970.0 3.4331e-05
18990.0 3.4227e-05
19010.0 3.4121e-05
19030.0 3.4016e-05
19050.0 3.391e-05
19070.0 3.3801e-05
19090.0 3.3692e-05
19110.0 3.3583e-05
19130.0 3.3471e-05
19150.0 3.3356e-05
19170.0 3.3243e-05
19190.0 3.3129e-05
19210.0 3.3011e-05
19230.0 3.2893e-05
19250.0 3.2776e-05
19270.0 3.2656e-05
19290.0 3.2534e-05
19310.0 3.2414e-05
19330.0 3.2292e-05
19350.0 3.2166e-05
19370.0 3.2041e-05
19390.0 3.1916e-05
19410.0 3.1789e-05
19430.0 3.166e-05
19450.0 3.1533e-05
19470.0 3.1404e-05
19490.0 3.1272e-05
19510.0 3.1141e-05
19530.0 3.101e-05
19550.0 3.0876e-05
19570.0 3.0741e-05
19590.0 3.0607e-05
19610.0 3.0472e-05
19630.0 3.0335e-05
19650.0 3.0199e-05
19670.0 3.0063e-05
19690.0 2.9923e-05
19710.0 2.9784e-05
19730.0 2.9645e-05
19750.0 2.9506e-05
19770.0 2.9363e-05
19790.0 2.9222e-05
19810.0 2.9081e-05
19830.0 2.8938e-05
19850.0 2.8793e-05
19870.0 2.8649e-05
19890.0 2.8499e-05
19910.0 2.834e-05
19930.0 2.8173e-05
19950.0 2.7991e-05
19970.0 2.7784e-05
19990.0 2.7548e-05
20010.0 2.7288e-05
20030.0 2.6991e-05
20050.0 2.6659e-05
20070.0 2.6307e-05
20090.0 2.5939e-05
20110.0 2.5537e-05
20130.0 2.5137e-05
20150.0 2.4743e-05
20170.0 2.4342e-05
20190.0 2.3941e-05
20210.0 2.3558e-05
20230.0 2.3184e-05
20250.0 2.2809e-05
20270.0 2.2452e-05
20290.0 2.2115e-05
20310.0 2.1784e-05
20330.0 2.1462e-05
20350.0 2.117e-05
20370.0 2.0891e-05
20390.0 2.0621e-05
20410.0 2.0371e-05
20430.0 2.0141e-05
20450.0 1.9918e-05
20470.0 1.9711e-05
20490.0 1.9521e-05
20510.0 1.9344e-05
20530.0 1.9177e-05
20550.0 1.9023e-05
20570.0 1.8883e-05
20590.0 1.875e-05
20610.0 1.8626e-05
20630.0 1.8511e-05
20650.0 1.8403e-05
20670.0 1.83e-05
20690.0 1.8203e-05
20710.0 1.811e-05
20730.0 1.8018e-05
20750.0 1.7928e-05
20770.0 1.7838e-05
20790.0 1.7747e-05
20810.0 1.7652e-05
20830.0 1.7555e-05
20850.0 1.7452e-05
20870.0 1.7343e-05
20890.0 1.7227e-05
20910.0 1.7106e-05
20930.0 1.6977e-05
20950.0 1.6839e-05
20970.0 1.6694e-05
20990.0 1.6544e-05
21010.0 1.6383e-05
21030.0 1.6216e-05
21050.0 1.6047e-05
21070.0 1.587e-05
21090.0 1.5686e-05
21110.0 1.5503e-05
21130.0 1.5319e-05
21150.0 1.5129e-05
21170.0 1.4939e-05
21190.0 1.4754e-05
21210.0 1.4566e-05
21230.0 1.4376e-05
21250.0 1.4195e-05
21270.0 1.4016e-05
21290.0 1.3837e-05
21310.0 1.3664e-05
21330.0 1.3499e-05
21350.0 1.3335e-05
21370.0 1.3175e-05
21390.0 1.3022e-05
21410.0 1.2875e-05
21430.0 1.2726e-05
21450.0 1.2585e-05
21470.0 1.245e-05
21490.0 1.2317e-05
21510.0 1.2186e-05
21530.0 1.206e-05
21550.0 1.1937e-05
21570.0 1.1813e-05
21590.0 1.1693e-05
21610.0 1.1576e-05
21630.0 1.1458e-05
21650.0 1.134e-05
21670.0 1.1228e-05
21690.0 1.1115e-05
21710.0 1.1001e-05
21730.0 1.089e-05
21750.0 1.0781e-05
21770.0 1.067e-05
21790.0 1.0559e-05
21810.0 1.0451e-05
21830.0 1.0342e-05
21850.0 1.0232e-05
21870.0 1.0123e-05
21890.0 1.0016e-05
21910.0 9.907e-06
21930.0 9.7975e-06
21950.0 9.6903e-06
21970.0 9.582e-06
21990.0 9.4704e-06
22010.0 9.3622e-06
22030.0 9.2552e-06
22050.0 9.1463e-06
22070.0 9.038e-06
22090.0 8.9337e-06
22110.0 8.8288e-06
22130.0 8.7235e-06
22150.0 8.622e-06
22170.0 8.5233e-06
22190.0 8.4238e-06
22210.0 8.3269e-06
22230.0 8.2358e-06
22250.0 8.1457e-06
22270.0 8.0571e-06
22290.0 7.9732e-06
22310.0 7.8924e-06
22330.0 7.8116e-06
22350.0 7.7343e-06
22370.0 7.6607e-06
22390.0 7.5881e-06
22410.0 7.5159e-06
22430.0 7.4476e-06
22450.0 7.3809e-06
22470.0 7.3138e-06
22490.0 7.2482e-06
22510.0 7.1848e-06
22530.0 7.1203e-06
22550.0 7.0556e-06
22570.0 6.9932e-06
22590.0 6.9313e-06
22610.0 6.8684e-06
22630.0 6.8067e-06
22650.0 6.7474e-06
22670.0 6.6874e-06
22690.0 6.6279e-06
22710.0 6.5711e-06
22730.0 6.5157e-06
