#lamb flux
1010.0 7.4918e-06
1030.0 7.8764e-06
1050.0 8.3195e-06
1070.0 8.8187e-06
1090.0 9.3857e-06
1110.0 9.9679e-06
1130.0 1.0555e-05
1150.0 1.117e-05
1170.0 1.1805e-05
1190.0 1.2409e-05
1210.0 1.3022e-05
1230.0 1.3656e-05
1250.0 1.4279e-05
1270.0 1.4885e-05
1290.0 1.5526e-05
1310.0 1.6169e-05
1330.0 1.6787e-05
1350.0 1.7413e-05
1370.0 1.8061e-05
1390.0 1.8695e-05
1410.0 1.9312e-05
1430.0 1.9959e-05
1450.0 2.0607e-05
1470.0 2.1236e-05
1490.0 2.1873e-05
1510.0 2.2547e-05
1530.0 2.3189e-05
1550.0 2.3824e-05
1570.0 2.4482e-05
1590.0 2.5141e-05
1610.0 2.5774e-05
1630.0 2.6426e-05
1650.0 2.7096e-05
1670.0 2.7745e-05
1690.0 2.8387e-05
1710.0 2.9052e-05
1730.0 2.9722e-05
1750.0 3.0352e-05
1770.0 3.0999e-05
1790.0 3.1658e-05
1810.0 3.2296e-05
1830.0 3.2922e-05
1850.0 3.3584e-05
1870.0 3.4228e-05
1890.0 3.4849e-05
1910.0 3.5481e-05
1930.0 3.6127e-05
1950.0 3.6744e-05
1970.0 3.7352e-05
1990.0 3.7984e-05
2010.0 3.8605e-05
2030.0 3.9205e-05
2050.0 3.9827e-05
2070.0 4.0466e-05
2090.0 4.1073e-05
2110.0 4.1684e-05
2130.0 4.2319e-05
2150.0 4.295e-05
2170.0 4.3563e-05
2190.0 4.4209e-05
2210.0 4.4871e-05
2230.0 4.5521e-05
2250.0 4.6184e-05
2270.0 4.6891e-05
2290.0 4.7596e-05
2310.0 4.8296e-05
2330.0 4.9037e-05
2350.0 4.9806e-05
2370.0 5.0575e-05
2390.0 5.1376e-05
2410.0 5.2235e-05
2430.0 5.31e-05
2450.0 5.3969e-05
2470.0 5.4859e-05
2490.0 5.5737e-05
2510.0 5.6558e-05
2530.0 5.7402e-05
2550.0 5.8402e-05
2570.0 5.9772e-05
2590.0 6.1815e-05
2610.0 6.5179e-05
2630.0 7.0268e-05
2650.0 7.707e-05
2670.0 8.5851e-05
2690.0 9.6583e-05
2710.0 0.00010815
2730.0 0.00011989
2750.0 0.00013203
2770.0 0.00014365
2790.0 0.00015437
2810.0 0.00016476
2830.0 0.00017529
2850.0 0.00018532
2870.0 0.00019543
2890.0 0.00020609
2910.0 0.00021706
2930.0 0.00022795
2950.0 0.00023945
2970.0 0.00025142
2990.0 0.00026334
3010.0 0.00052403
3030.0 0.00054802
3050.0 0.00057221
3070.0 0.00059515
3090.0 0.00061755
3110.0 0.0006374
3130.0 0.00065162
3150.0 0.00065755
3170.0 0.00065014
3190.0 0.00062638
3210.0 0.00058586
3230.0 0.00053659
3250.0 0.00053718
3270.0 0.00039928
3290.0 0.00044828
3310.0 0.00032209
3330.0 0.0003466
3350.0 0.00039041
3370.0 0.00043655
3390.0 0.0004838
3410.0 0.00053084
3430.0 0.00057883
3450.0 0.00062649
3470.0 0.0006717
3490.0 0.00070449
3510.0 0.00076444
3530.0 0.00089354
3550.0 0.0010178
3570.0 0.0011407
3590.0 0.0014003
3610.0 0.0013609
3630.0 0.0014707
3650.0 0.0014442
3670.0 0.0015709
3690.0 0.0017155
3710.0 0.0018151
3730.0 0.0020942
3750.0 0.002182
3770.0 0.0022102
3790.0 0.0021023
3810.0 0.0018537
3830.0 0.0017041
3850.0 0.0014984
3870.0 0.0016332
3890.0 0.0018582
3910.0 0.0021911
3930.0 0.0025422
3950.0 0.0027623
3970.0 0.0031427
3990.0 0.0032334
4010.0 0.0031437
4030.0 0.0031936
4050.0 0.0029308
4070.0 0.0028056
4090.0 0.0027312
4110.0 0.0026059
4130.0 0.0028118
4150.0 0.0027106
4170.0 0.0027069
4190.0 0.0026542
4210.0 0.0028453
4230.0 0.0027276
4250.0 0.0029412
4270.0 0.0029332
4290.0 0.0029466
4310.0 0.0031451
4330.0 0.0033493
4350.0 0.0033734
4370.0 0.003304
4390.0 0.0031471
4410.0 0.0027851
4430.0 0.0023197
4450.0 0.0021406
4470.0 0.002204
4490.0 0.0022025
4510.0 0.0024932
4530.0 0.0027349
4550.0 0.0032274
4570.0 0.0041793
4590.0 0.0051092
4610.0 0.0055906
4630.0 0.0064134
4650.0 0.0070149
4670.0 0.007063
4690.0 0.006443
4710.0 0.0059839
4730.0 0.0053148
4750.0 0.0043583
4770.0 0.0036814
4790.0 0.0032805
4810.0 0.0035801
4830.0 0.0039769
4850.0 0.0044661
4870.0 0.0042668
4890.0 0.0048831
4910.0 0.0051006
4930.0 0.0055642
4950.0 0.0065238
4970.0 0.0069369
4990.0 0.0073072
5010.0 0.0067608
5030.0 0.0056752
5050.0 0.0046283
5070.0 0.0036744
5090.0 0.0033091
5110.0 0.0032508
5130.0 0.0031966
5150.0 0.0033466
5170.0 0.0032359
5190.0 0.0034133
5210.0 0.0034702
5230.0 0.0037198
5250.0 0.0043443
5270.0 0.0047058
5290.0 0.005094
5310.0 0.005718
5330.0 0.0061692
5350.0 0.0062958
5370.0 0.0062845
5390.0 0.0061328
5410.0 0.0059995
5430.0 0.0060586
5450.0 0.0067622
5470.0 0.0079038
5490.0 0.0090035
5510.0 0.01002
5530.0 0.01024
5550.0 0.010101
5570.0 0.0098003
5590.0 0.0095186
5610.0 0.0093736
5630.0 0.0093413
5650.0 0.0093472
5670.0 0.0091854
5690.0 0.0085158
5710.0 0.0077434
5730.0 0.0068845
5750.0 0.0064096
5770.0 0.0060322
5790.0 0.0061247
5810.0 0.0064111
5830.0 0.0065969
5850.0 0.0063566
5870.0 0.0060039
5890.0 0.0058514
5910.0 0.0056445
5930.0 0.0054878
5950.0 0.0053155
5970.0 0.0050623
5990.0 0.0044372
6010.0 0.0038395
6030.0 0.003508
6050.0 0.0033935
6070.0 0.0033141
6090.0 0.0033104
6110.0 0.0033782
6130.0 0.0034096
6150.0 0.0036136
6170.0 0.0039994
6190.0 0.0044062
6210.0 0.0046238
6230.0 0.0046865
6250.0 0.0043104
6270.0 0.0038069
6290.0 0.0032718
6310.0 0.0028602
6330.0 0.0026432
6350.0 0.002568
6370.0 0.0026963
6390.0 0.003023
6410.0 0.0035523
6430.0 0.0042393
6450.0 0.0048152
6470.0 0.0052511
6490.0 0.005625
6510.0 0.0057791
6530.0 0.0057375
6550.0 0.0057643
6570.0 0.0058255
6590.0 0.0057528
6610.0 0.0058112
6630.0 0.0057059
6650.0 0.0055253
6670.0 0.0052055
6690.0 0.0047635
6710.0 0.0045725
6730.0 0.0043271
6750.0 0.0043254
6770.0 0.0044427
6790.0 0.004597
6810.0 0.00468
6830.0 0.0045917
6850.0 0.0044043
6870.0 0.0042664
6890.0 0.0040654
6910.0 0.0038735
6930.0 0.0039705
6950.0 0.0040211
6970.0 0.0041836
6990.0 0.0043475
7010.0 0.0043098
7030.0 0.0040559
7050.0 0.0036295
7070.0 0.003227
7090.0 0.0028589
7110.0 0.0026612
7130.0 0.0025568
7150.0 0.0024888
7170.0 0.0025747
7190.0 0.0026314
7210.0 0.0027742
7230.0 0.0030782
7250.0 0.0032963
7270.0 0.0033751
7290.0 0.0033309
7310.0 0.0031789
7330.0 0.0029817
7350.0 0.0028792
7370.0 0.0028979
7390.0 0.0030496
7410.0 0.0033701
7430.0 0.0037616
7450.0 0.0042451
7470.0 0.0046118
7490.0 0.0047896
7510.0 0.0046153
7530.0 0.0042488
7550.0 0.0037282
7570.0 0.0031888
7590.0 0.0029676
7610.0 0.0029952
7630.0 0.0032111
7650.0 0.0036576
7670.0 0.0040977
7690.0 0.0045014
7710.0 0.0048721
7730.0 0.0051744
7750.0 0.0054319
7770.0 0.005562
7790.0 0.0057672
7810.0 0.0059109
7830.0 0.0059106
7850.0 0.0059521
7870.0 0.0057615
7890.0 0.0056025
7910.0 0.0053009
7930.0 0.0051798
7950.0 0.0050044
7970.0 0.0050582
7990.0 0.0050265
8010.0 0.0049613
8030.0 0.0049846
8050.0 0.0051577
8070.0 0.0050741
8090.0 0.0050931
8110.0 0.0049248
8130.0 0.0049141
8150.0 0.0047752
8170.0 0.0046539
8190.0 0.0046046
8210.0 0.0046512
8230.0 0.0043216
8250.0 0.0040318
8270.0 0.0035279
8290.0 0.002869
8310.0 0.0022852
8330.0 0.0017792
8350.0 0.0015545
8370.0 0.0017147
8390.0 0.0019311
8410.0 0.002127
8430.0 0.0024247
8450.0 0.0025707
8470.0 0.0026994
8490.0 0.0030221
8510.0 0.003352
8530.0 0.0038987
8550.0 0.0046024
8570.0 0.0052245
8590.0 0.005723
8610.0 0.006191
8630.0 0.0065867
8650.0 0.0066699
8670.0 0.0067117
8690.0 0.0069504
8710.0 0.0070348
8730.0 0.0071412
8750.0 0.0069618
8770.0 0.0069892
8790.0 0.0069021
8810.0 0.00643
8830.0 0.0063143
8850.0 0.0059772
8870.0 0.0057403
8890.0 0.0054433
8910.0 0.0056414
8930.0 0.0052903
8950.0 0.0051325
8970.0 0.0050853
8990.0 0.0049613
9010.0 0.0049214
9030.0 0.0047787
9050.0 0.0047509
9070.0 0.0047392
9090.0 0.0047274
9110.0 0.0047165
9130.0 0.0047038
9150.0 0.0046904
9170.0 0.0046697
9190.0 0.0046388
9210.0 0.004668
9230.0 0.0046436
9250.0 0.0046243
9270.0 0.0046061
9290.0 0.0045884
9310.0 0.0045712
9330.0 0.004554
9350.0 0.0045368
9370.0 0.0045195
9390.0 0.0045018
9410.0 0.004484
9430.0 0.0044657
9450.0 0.0044461
9470.0 0.0044267
9490.0 0.0044091
9510.0 0.0043908
9530.0 0.0043721
9550.0 0.004353
9570.0 0.0043337
9590.0 0.0043143
9610.0 0.0042948
9630.0 0.0042751
9650.0 0.0042553
9670.0 0.0042355
9690.0 0.0042155
9710.0 0.0041955
9730.0 0.0041756
9750.0 0.0041555
9770.0 0.0041354
9790.0 0.0041154
9810.0 0.0040953
9830.0 0.0040753
9850.0 0.0040553
9870.0 0.0040353
9890.0 0.0040154
9910.0 0.0039954
9930.0 0.0039752
9950.0 0.003934
9970.0 0.0039206
9990.0 0.003906
10010.0 0.0038909
10030.0 0.0038741
10050.0 0.0038556
10070.0 0.0038354
10090.0 0.0038178
10110.0 0.0037989
10130.0 0.0037807
10150.0 0.0037624
10170.0 0.0037435
10190.0 0.0037238
10210.0 0.0037053
10230.0 0.0036872
10250.0 0.0036683
10270.0 0.0036498
10290.0 0.0036321
10310.0 0.0036138
10330.0 0.0035949
10350.0 0.0035771
10370.0 0.0035596
10390.0 0.0035413
10410.0 0.0035233
10430.0 0.0035065
10450.0 0.0034888
10470.0 0.0034709
10490.0 0.0034538
10510.0 0.003437
10530.0 0.0034189
10550.0 0.0034015
10570.0 0.003385
10590.0 0.0033679
10610.0 0.0033505
10630.0 0.0033341
10650.0 0.0033176
10670.0 0.0033002
10690.0 0.0032833
10710.0 0.0032672
10730.0 0.0032503
10750.0 0.0032328
10770.0 0.0032168
10790.0 0.0032006
10810.0 0.0031836
10830.0 0.003167
10850.0 0.0031511
10870.0 0.0031336
10890.0 0.0031155
10910.0 0.0030974
10930.0 0.0030774
10950.0 0.0030538
10970.0 0.0030274
10990.0 0.0029983
11010.0 0.0027734
11030.0 0.0027372
11050.0 0.0026999
11070.0 0.0026599
11090.0 0.0026155
11110.0 0.002573
11130.0 0.002531
11150.0 0.0024873
11170.0 0.0024438
11190.0 0.0024031
11210.0 0.0023617
11230.0 0.0023195
11250.0 0.0022796
11270.0 0.0022415
11290.0 0.0022025
11310.0 0.0021648
11330.0 0.0021313
11350.0 0.0020983
11370.0 0.0020662
11390.0 0.0020372
11410.0 0.0020102
11430.0 0.0019827
11450.0 0.0019569
11470.0 0.001933
11490.0 0.0019086
11510.0 0.0018831
11530.0 0.0018585
11550.0 0.0018333
11570.0 0.0018055
11590.0 0.0017765
11610.0 0.0017473
11630.0 0.0017149
11650.0 0.0016797
11670.0 0.0016451
11690.0 0.0016093
11710.0 0.0015712
11730.0 0.0015331
11750.0 0.0014969
11770.0 0.0014594
11790.0 0.0014222
11810.0 0.0013877
11830.0 0.0013547
11850.0 0.0013214
11870.0 0.0012913
11890.0 0.0012643
11910.0 0.0012381
11930.0 0.0012135
11950.0 0.0011918
11970.0 0.0011714
11990.0 0.0011513
12010.0 0.0011333
12030.0 0.0011169
12050.0 0.0011009
12070.0 0.0010853
12090.0 0.001072
12110.0 0.0010592
12130.0 0.0010468
12150.0 0.0010358
12170.0 0.0010264
12190.0 0.0010174
12210.0 0.0010102
12230.0 0.0010051
12250.0 0.001002
12270.0 0.0010009
12290.0 0.0010026
12310.0 0.0010071
12330.0 0.0010144
12350.0 0.0010248
12370.0 0.0010379
12390.0 0.0010539
12410.0 0.0010733
12430.0 0.0010944
12450.0 0.0011172
12470.0 0.001142
12490.0 0.0011678
12510.0 0.0011932
12530.0 0.0012191
12550.0 0.001245
12570.0 0.0012692
12590.0 0.0012919
12610.0 0.0013136
12630.0 0.0013332
12650.0 0.00135
12670.0 0.0013649
12690.0 0.0013776
12710.0 0.0013878
12730.0 0.0013958
12750.0 0.0014016
12770.0 0.0014051
12790.0 0.0014067
12810.0 0.0014062
12830.0 0.0014037
12850.0 0.0013999
12870.0 0.0013947
12890.0 0.0013877
12910.0 0.0013795
12930.0 0.0013707
12950.0 0.0013603
12970.0 0.0013485
12990.0 0.0013367
13010.0 0.0013239
13030.0 0.0013097
13050.0 0.001295
13070.0 0.0012804
13090.0 0.0012642
13110.0 0.0012474
13130.0 0.0012309
13150.0 0.0012142
13170.0 0.0011966
13190.0 0.0011802
13210.0 0.0011653
13230.0 0.0011509
13250.0 0.0011381
13270.0 0.0011278
13290.0 0.0011195
13310.0 0.0011132
13330.0 0.0011097
13350.0 0.0011087
13370.0 0.0011098
13390.0 0.0011129
13410.0 0.0011173
13430.0 0.0011224
13450.0 0.0011278
13470.0 0.0011327
13490.0 0.0011364
13510.0 0.0011384
13530.0 0.0011381
13550.0 0.0011355
13570.0 0.0011302
13590.0 0.0011219
13610.0 0.0011114
13630.0 0.0010992
13650.0 0.0010845
13670.0 0.0010686
13690.0 0.0010523
13710.0 0.0010353
13730.0 0.0010174
13750.0 0.0010009
13770.0 0.00098519
13790.0 0.00096976
13810.0 0.00095541
13830.0 0.00094266
13850.0 0.00093048
13870.0 0.00091909
13890.0 0.00090901
13910.0 0.00089981
13930.0 0.00089102
13950.0 0.00088296
13970.0 0.00087587
13990.0 0.00086907
14010.0 0.00086267
14030.0 0.00085691
14050.0 0.00085159
14070.0 0.00084645
14090.0 0.00084182
14110.0 0.00083766
14130.0 0.00083376
14150.0 0.00083015
14170.0 0.00082697
14190.0 0.00082409
14210.0 0.00082145
14230.0 0.00081915
14250.0 0.0008172
14270.0 0.00081556
14290.0 0.00081433
14310.0 0.00081346
14330.0 0.00081296
14350.0 0.00081287
14370.0 0.00081309
14390.0 0.0008135
14410.0 0.0008142
14430.0 0.00081501
14450.0 0.00081572
14470.0 0.00081634
14490.0 0.00081689
14510.0 0.00081708
14530.0 0.00081693
14550.0 0.00081658
14570.0 0.00081599
14590.0 0.00081519
14610.0 0.00081439
14630.0 0.00081377
14650.0 0.00081338
14670.0 0.00081341
14690.0 0.00081416
14710.0 0.00081584
14730.0 0.00081823
14750.0 0.00082179
14770.0 0.00082678
14790.0 0.00083289
14810.0 0.00084007
14830.0 0.00084935
14850.0 0.00085986
14870.0 0.00087106
14890.0 0.00088344
14910.0 0.00089683
14930.0 0.00090963
14950.0 0.00092141
14970.0 0.00093242
14990.0 0.00094115
15010.0 0.00094706
15030.0 0.00095059
15050.0 0.00095183
15070.0 0.00095072
15090.0 0.00094816
15110.0 0.00094459
15130.0 0.00094037
15150.0 0.00093582
15170.0 0.00093105
15190.0 0.00092618
15210.0 0.0009213
15230.0 0.00091641
15250.0 0.00091146
15270.0 0.00090653
15290.0 0.00090164
15310.0 0.00089672
15330.0 0.00089178
15350.0 0.00088689
15370.0 0.00088199
15390.0 0.00087705
15410.0 0.00087214
15430.0 0.00086726
15450.0 0.00086237
15470.0 0.00085746
15490.0 0.0008526
15510.0 0.00084776
15530.0 0.00084288
15550.0 0.00083804
15570.0 0.00083324
15590.0 0.0008284
15610.0 0.00082357
15630.0 0.0008188
15650.0 0.00081404
15670.0 0.00080926
15690.0 0.00080452
15710.0 0.00079983
15730.0 0.00079511
15750.0 0.00079041
15770.0 0.00078575
15790.0 0.00078111
15810.0 0.00077645
15830.0 0.00077185
15850.0 0.00076728
15870.0 0.00076271
15890.0 0.00075816
15910.0 0.00075366
15930.0 0.00074917
15950.0 0.00074467
15970.0 0.00074023
15990.0 0.00073582
16010.0 0.00073141
16030.0 0.00072701
16050.0 0.00072269
16070.0 0.00071838
16090.0 0.00071406
16110.0 0.0007098
16130.0 0.00070558
16150.0 0.00070134
16170.0 0.00069714
16190.0 0.000693
16210.0 0.00068887
16230.0 0.00068474
16250.0 0.00068067
16270.0 0.00067665
16290.0 0.00067261
16310.0 0.00066861
16330.0 0.00066467
16350.0 0.00066074
16370.0 0.0006568
16390.0 0.00065294
16410.0 0.0006491
16430.0 0.00064527
16450.0 0.00064148
16470.0 0.00063775
16490.0 0.00063401
16510.0 0.0006303
16530.0 0.00062664
16550.0 0.00062301
16570.0 0.00061938
16590.0 0.00061579
16610.0 0.00061226
16630.0 0.00060874
16650.0 0.00060523
16670.0 0.00060179
16690.0 0.00059837
16710.0 0.00059494
16730.0 0.00059156
16750.0 0.00058823
16770.0 0.00058491
16790.0 0.00058161
16810.0 0.00057837
16830.0 0.00057516
16850.0 0.00057194
16870.0 0.00056878
16890.0 0.00056565
16910.0 0.00056253
16930.0 0.00055943
16950.0 0.00055639
16970.0 0.00055337
16990.0 0.00055036
17010.0 0.00054739
17030.0 0.00054447
17050.0 0.00054154
17070.0 0.00053865
17090.0 0.0005358
17110.0 0.00053298
17130.0 0.00053015
17150.0 0.00052738
17170.0 0.00052464
17190.0 0.00052191
17210.0 0.00051921
17230.0 0.00051656
17250.0 0.00051392
17270.0 0.00051128
17290.0 0.00050869
17310.0 0.00050614
17330.0 0.00050359
17350.0 0.00050106
17370.0 0.00049859
17390.0 0.00049613
17410.0 0.00049368
17430.0 0.00049127
17450.0 0.0004889
17470.0 0.00048651
17490.0 0.00048416
17510.0 0.00048186
17530.0 0.00047957
17550.0 0.00047728
17570.0 0.00047505
17590.0 0.00047284
17610.0 0.00047063
17630.0 0.00046845
17650.0 0.0004663
17670.0 0.00046417
17690.0 0.00046203
17710.0 0.00045996
17730.0 0.0004579
17750.0 0.00045585
17770.0 0.00045382
17790.0 0.00045184
17810.0 0.00044985
17830.0 0.00044788
17850.0 0.00044595
17870.0 0.00044404
17890.0 0.00044213
17910.0 0.00044024
17930.0 0.0004384
17950.0 0.00043656
17970.0 0.00043473
17990.0 0.00043295
18010.0 0.00043117
18030.0 0.00042939
18050.0 0.00042765
18070.0 0.00042594
18090.0 0.00042422
18110.0 0.00042252
18130.0 0.00042087
18150.0 0.00041922
18170.0 0.00041758
18190.0 0.00041596
18210.0 0.00041438
18230.0 0.00041278
18250.0 0.0004112
18270.0 0.00040967
18290.0 0.00040814
18310.0 0.00040661
18330.0 0.00040512
18350.0 0.00040365
18370.0 0.00040217
18390.0 0.00040071
18410.0 0.00039929
18430.0 0.00039787
18450.0 0.00039644
18470.0 0.00039505
18490.0 0.00039369
18510.0 0.00039232
18530.0 0.00039097
18550.0 0.00038965
18570.0 0.00038833
18590.0 0.00038701
18610.0 0.00038573
18630.0 0.00038446
18650.0 0.00038318
18670.0 0.00038192
18690.0 0.0003807
18710.0 0.00037948
18730.0 0.00037826
18750.0 0.00037707
18770.0 0.00037589
18790.0 0.0003747
18810.0 0.00037353
18830.0 0.00037239
18850.0 0.00037126
18870.0 0.00037012
18890.0 0.00036901
18910.0 0.00036792
18930.0 0.00036682
18950.0 0.00036574
18970.0 0.00036468
18990.0 0.00036362
19010.0 0.00036255
19030.0 0.00036152
19050.0 0.00036051
19070.0 0.00035948
19090.0 0.00035847
19110.0 0.0003575
19130.0 0.0003565
19150.0 0.00035552
19170.0 0.00035456
19190.0 0.00035361
19210.0 0.00035265
19230.0 0.0003517
19250.0 0.00035079
19270.0 0.00034987
19290.0 0.00034895
19310.0 0.00034806
19330.0 0.00034718
19350.0 0.00034627
19370.0 0.0003454
19390.0 0.00034454
19410.0 0.00034368
19430.0 0.00034281
19450.0 0.00034199
19470.0 0.00034116
19490.0 0.00034032
19510.0 0.0003395
19530.0 0.0003387
19550.0 0.00033788
19570.0 0.00033707
19590.0 0.0003363
19610.0 0.00033552
19630.0 0.00033473
19650.0 0.00033397
19670.0 0.00033322
19690.0 0.00033245
19710.0 0.0003317
19730.0 0.00033097
19750.0 0.00033023
19770.0 0.00032949
19790.0 0.00032877
19810.0 0.00032806
19830.0 0.00032733
19850.0 0.0003266
19870.0 0.00032587
19890.0 0.00032507
19910.0 0.00032416
19930.0 0.00032309
19950.0 0.00032178
19970.0 0.00032005
19990.0 0.00031783
20010.0 0.00031519
20030.0 0.00031191
20050.0 0.000308
20070.0 0.00030373
20090.0 0.00029912
20110.0 0.00029393
20130.0 0.00028869
20150.0 0.00028351
20170.0 0.00027818
20190.0 0.00027278
20210.0 0.00026769
20230.0 0.00026272
20250.0 0.00025771
20270.0 0.00025303
20290.0 0.00024871
20310.0 0.00024455
20330.0 0.0002406
20350.0 0.00023724
20370.0 0.00023419
20390.0 0.00023143
20410.0 0.00022912
20430.0 0.00022726
20450.0 0.0002257
20470.0 0.00022455
20490.0 0.00022381
20510.0 0.00022341
20530.0 0.00022335
20550.0 0.00022361
20570.0 0.00022413
20590.0 0.00022491
20610.0 0.0002259
20630.0 0.00022703
20650.0 0.0002283
20670.0 0.00022973
20690.0 0.00023114
20710.0 0.00023255
20730.0 0.00023396
20750.0 0.00023532
20770.0 0.00023653
20790.0 0.00023763
20810.0 0.00023861
20830.0 0.00023938
20850.0 0.00023996
20870.0 0.00024035
20890.0 0.00024052
20910.0 0.00024047
20930.0 0.0002402
20950.0 0.00023971
20970.0 0.00023903
20990.0 0.00023819
21010.0 0.00023712
21030.0 0.0002359
21050.0 0.00023459
21070.0 0.00023314
21090.0 0.00023154
21110.0 0.00022994
21130.0 0.00022832
21150.0 0.00022663
21170.0 0.00022495
21190.0 0.00022336
21210.0 0.00022175
21230.0 0.00022019
21250.0 0.00021879
21270.0 0.00021751
21290.0 0.00021631
21310.0 0.00021527
21330.0 0.00021443
21350.0 0.00021373
21370.0 0.0002132
21390.0 0.00021286
21410.0 0.00021269
21430.0 0.00021271
21450.0 0.00021291
21470.0 0.00021327
21490.0 0.0002138
21510.0 0.00021449
21530.0 0.0002153
21550.0 0.00021624
21570.0 0.00021734
21590.0 0.00021853
21610.0 0.00021979
21630.0 0.00022117
21650.0 0.00022268
21670.0 0.00022416
21690.0 0.00022571
21710.0 0.00022736
21730.0 0.00022902
21750.0 0.00023067
21770.0 0.00023243
21790.0 0.0002342
21810.0 0.00023593
21830.0 0.00023767
21850.0 0.00023947
21870.0 0.00024121
21890.0 0.00024287
21910.0 0.00024458
21930.0 0.00024624
21950.0 0.0002478
21970.0 0.00024932
21990.0 0.00025083
22010.0 0.00025218
22030.0 0.00025342
22050.0 0.00025457
22070.0 0.00025559
22090.0 0.00025642
22110.0 0.00025712
22130.0 0.00025765
22150.0 0.00025797
22170.0 0.0002581
22190.0 0.00025801
22210.0 0.00025768
22230.0 0.00025716
22250.0 0.00025639
22270.0 0.00025537
22290.0 0.00025415
22310.0 0.00025274
22330.0 0.00025102
22350.0 0.00024911
22370.0 0.00024707
22390.0 0.0002448
22410.0 0.00024228
22430.0 0.00023973
22450.0 0.00023706
22470.0 0.00023419
22490.0 0.00023125
22510.0 0.00022835
22530.0 0.00022527
22550.0 0.00022211
22570.0 0.00021909
22590.0 0.00021608
22610.0 0.00021301
22630.0 0.00021004
22650.0 0.00020726
22670.0 0.00020446
22690.0 0.00020173
22710.0 0.00019921
22730.0 0.00019681
22750.0 0.00019439
22770.0 0.0001922
22790.0 0.00019019
22810.0 0.00018824
22830.0 0.0001864
22850.0 0.00018474
22870.0 0.00018318
22890.0 0.00018165
22910.0 0.00018027
22930.0 0.00017901
22950.0 0.00017778
22970.0 0.00017661
22990.0 0.00017559
23010.0 0.00017462
23030.0 0.00017368
23050.0 0.00017282
23070.0 0.00017204
23090.0 0.00017126
23110.0 0.00017055
23130.0 0.00016989
23150.0 0.00016927
