#lamb flux
1010.0 0.00015686
1030.0 0.00018462
1050.0 0.00021224
1070.0 0.00023804
1090.0 0.000261
1110.0 0.00027581
1130.0 0.00028146
1150.0 0.0002793
1170.0 0.00026887
1190.0 0.00024902
1210.0 0.00022319
1230.0 0.00019312
1250.0 0.00015989
1270.0 0.00012558
1290.0 9.2606e-05
1310.0 6.1922e-05
1330.0 3.4837e-05
1350.0 1.575e-05
1370.0 1.6575e-05
1390.0 1.7826e-05
1410.0 1.9421e-05
1430.0 2.1147e-05
1450.0 2.3028e-05
1470.0 2.5043e-05
1490.0 2.7061e-05
1510.0 2.905e-05
1530.0 3.1108e-05
1550.0 3.3066e-05
1570.0 3.4863e-05
1590.0 3.9519e-05
1610.0 5.253e-05
1630.0 6.6238e-05
1650.0 8.0594e-05
1670.0 9.5625e-05
1690.0 0.00011155
1710.0 0.00012876
1730.0 0.00014749
1750.0 0.00016789
1770.0 0.00019051
1790.0 0.0002157
1810.0 0.00024357
1830.0 0.0002746
1850.0 0.00031072
1870.0 0.00035064
1890.0 0.00039487
1910.0 0.00044425
1930.0 0.00049936
1950.0 0.0005599
1970.0 0.00062655
1990.0 0.00070033
2010.0 0.00078096
2030.0 0.00086832
2050.0 0.00096365
2070.0 0.0010672
2090.0 0.0011774
2110.0 0.0012952
2130.0 0.0014212
2150.0 0.0015541
2170.0 0.0016927
2190.0 0.0018386
2210.0 0.0019906
2230.0 0.0021464
2250.0 0.0023062
2270.0 0.0024708
2290.0 0.0026367
2310.0 0.0028021
2330.0 0.0029687
2350.0 0.0031344
2370.0 0.0032957
2390.0 0.0034532
2410.0 0.0036069
2430.0 0.0037511
2450.0 0.003884
2470.0 0.0040057
2490.0 0.0041136
2510.0 0.004206
2530.0 0.0042895
2550.0 0.0043745
2570.0 0.0044764
2590.0 0.0046157
2610.0 0.0048373
2630.0 0.0051737
2650.0 0.0056345
2670.0 0.0062569
2690.0 0.0070693
2710.0 0.0080107
2730.0 0.0090411
2750.0 0.010195
2770.0 0.011369
2790.0 0.01247
2810.0 0.01351
2830.0 0.014487
2850.0 0.015283
2870.0 0.015962
2890.0 0.016575
2910.0 0.017118
2930.0 0.017598
2950.0 0.018079
2970.0 0.018563
2990.0 0.019033
3010.0 0.019504
3030.0 0.020001
3050.0 0.020504
3070.0 0.020978
3090.0 0.021455
3110.0 0.021907
3130.0 0.022297
3150.0 0.022617
3170.0 0.022868
3190.0 0.023041
3210.0 0.023176
3230.0 0.023328
3250.0 0.02357
3270.0 0.023956
3290.0 0.024524
3310.0 0.02532
3330.0 0.026311
3350.0 0.027438
3370.0 0.028714
3390.0 0.030063
3410.0 0.031339
3430.0 0.032521
3450.0 0.033512
3470.0 0.036103
3490.0 0.036611
3510.0 0.032182
3530.0 0.031522
3550.0 0.039787
3570.0 0.046811
3590.0 0.048097
3610.0 0.052084
3630.0 0.053642
3650.0 0.048456
3670.0 0.045324
3690.0 0.048326
3710.0 0.053467
3730.0 0.058382
3750.0 0.054537
3770.0 0.054186
3790.0 0.056664
3810.0 0.054156
3830.0 0.047263
3850.0 0.042211
3870.0 0.042559
3890.0 0.048014
3910.0 0.051892
3930.0 0.05339
3950.0 0.054605
3970.0 0.055814
3990.0 0.05758
4010.0 0.057199
4030.0 0.052893
4050.0 0.048588
4070.0 0.048744
4090.0 0.052001
4110.0 0.054677
4130.0 0.05356
4150.0 0.052269
4170.0 0.051976
4190.0 0.05359
4210.0 0.052537
4230.0 0.048203
4250.0 0.04303
4270.0 0.039125
4290.0 0.035973
4310.0 0.03328
4330.0 0.033959
4350.0 0.036587
4370.0 0.037587
4390.0 0.038971
4410.0 0.03963
4430.0 0.039555
4450.0 0.039143
4470.0 0.038527
4490.0 0.040792
4510.0 0.041938
4530.0 0.042759
4550.0 0.043522
4570.0 0.044511
4590.0 0.045434
4610.0 0.046008
4630.0 0.047059
4650.0 0.048711
4670.0 0.046657
4690.0 0.04341
4710.0 0.039889
4730.0 0.038585
4750.0 0.037713
4770.0 0.036632
4790.0 0.035332
4810.0 0.033897
4830.0 0.035447
4850.0 0.038404
4870.0 0.030696
4890.0 0.030321
4910.0 0.031046
4930.0 0.032056
4950.0 0.029299
4970.0 0.026866
4990.0 0.02618
5010.0 0.024347
5030.0 0.022768
5050.0 0.023282
5070.0 0.025011
5090.0 0.025906
5110.0 0.028553
5130.0 0.029375
5150.0 0.030445
5170.0 0.031384
5190.0 0.030462
5210.0 0.031348
5230.0 0.031961
5250.0 0.032193
5270.0 0.032802
5290.0 0.032162
5310.0 0.031348
5330.0 0.0297
5350.0 0.028073
5370.0 0.026509
5390.0 0.027184
5410.0 0.027277
5430.0 0.027562
5450.0 0.027623
5470.0 0.02722
5490.0 0.026881
5510.0 0.026256
5530.0 0.025581
5550.0 0.025353
5570.0 0.025667
5590.0 0.026039
5610.0 0.026207
5630.0 0.025675
5650.0 0.02539
5670.0 0.02453
5690.0 0.023926
5710.0 0.023068
5730.0 0.022916
5750.0 0.022636
5770.0 0.021916
5790.0 0.022213
5810.0 0.022053
5830.0 0.022602
5850.0 0.022896
5870.0 0.023118
5890.0 0.022782
5910.0 0.022767
5930.0 0.022369
5950.0 0.022581
5970.0 0.022095
5990.0 0.02165
6010.0 0.021816
6030.0 0.022237
6050.0 0.021901
6070.0 0.021493
6090.0 0.02125
6110.0 0.021544
6130.0 0.021487
6150.0 0.020907
6170.0 0.019594
6190.0 0.018153
6210.0 0.017245
6230.0 0.01705
6250.0 0.01719
6270.0 0.017647
6290.0 0.018306
6310.0 0.01936
6330.0 0.019915
6350.0 0.020016
6370.0 0.020148
6390.0 0.019906
6410.0 0.019435
6430.0 0.018805
6450.0 0.01845
6470.0 0.018348
6490.0 0.018279
6510.0 0.018135
6530.0 0.018118
6550.0 0.017868
6570.0 0.017261
6590.0 0.017161
6610.0 0.016961
6630.0 0.016479
6650.0 0.016009
6670.0 0.015545
6690.0 0.015329
6710.0 0.01486
6730.0 0.014655
6750.0 0.014405
6770.0 0.014104
6790.0 0.014209
6810.0 0.014034
6830.0 0.013695
6850.0 0.013529
6870.0 0.013329
6890.0 0.013128
6910.0 0.013018
6930.0 0.01286
6950.0 0.012708
6970.0 0.012458
6990.0 0.01246
7010.0 0.012346
7030.0 0.012396
7050.0 0.012135
7070.0 0.011967
7090.0 0.011894
7110.0 0.01147
7130.0 0.011415
7150.0 0.011555
7170.0 0.01173
7190.0 0.011654
7210.0 0.011765
7230.0 0.012026
7250.0 0.011871
7270.0 0.011925
7290.0 0.011776
7310.0 0.011456
7330.0 0.010878
7350.0 0.010879
7370.0 0.010875
7390.0 0.010654
7410.0 0.010477
7430.0 0.010369
7450.0 0.010249
7470.0 0.010254
7490.0 0.010299
7510.0 0.0099543
7530.0 0.0098207
7550.0 0.0099388
7570.0 0.0092766
7590.0 0.0088636
7610.0 0.0088193
7630.0 0.0089206
7650.0 0.0087681
7670.0 0.0089726
7690.0 0.0087342
7710.0 0.0090872
7730.0 0.0091967
7750.0 0.0098854
7770.0 0.010216
7790.0 0.010594
7810.0 0.011044
7830.0 0.011338
7850.0 0.011631
7870.0 0.011561
7890.0 0.011466
7910.0 0.011211
7930.0 0.010863
7950.0 0.010589
7970.0 0.010525
7990.0 0.010455
8010.0 0.0094969
8030.0 0.0094397
8050.0 0.0092544
8070.0 0.0091652
8090.0 0.0089237
8110.0 0.0089927
8130.0 0.0090918
8150.0 0.0092388
8170.0 0.0091414
8190.0 0.0092672
8210.0 0.0091386
8230.0 0.0086625
8250.0 0.0084971
8270.0 0.0083495
8290.0 0.0082132
8310.0 0.0079302
8330.0 0.0080333
8350.0 0.0079878
8370.0 0.0079894
8390.0 0.008135
8410.0 0.0081044
8430.0 0.0082316
8450.0 0.0083446
8470.0 0.0083981
8490.0 0.0084969
8510.0 0.0083552
8530.0 0.0080712
8550.0 0.0081392
8570.0 0.0081515
8590.0 0.0079102
8610.0 0.0080822
8630.0 0.0079764
8650.0 0.007815
8670.0 0.0077647
8690.0 0.0077552
8710.0 0.0074509
8730.0 0.0075564
8750.0 0.007302
8770.0 0.0072611
8790.0 0.0070619
8810.0 0.0069797
8830.0 0.0069634
8850.0 0.006633
8870.0 0.0062928
8890.0 0.0062094
8910.0 0.0058468
8930.0 0.0053967
8950.0 0.0053944
8970.0 0.0052181
8990.0 0.0051829
9010.0 0.0051408
9030.0 0.0051059
9050.0 0.0050696
9070.0 0.0050329
9090.0 0.004996
9110.0 0.0049587
9130.0 0.0049214
9150.0 0.0048844
9170.0 0.0048473
9190.0 0.00481
9210.0 0.0047726
9230.0 0.0047351
9250.0 0.0046977
9270.0 0.0046602
9290.0 0.0046227
9310.0 0.0045852
9330.0 0.0045479
9350.0 0.0045105
9370.0 0.0044732
9390.0 0.0044361
9410.0 0.004399
9430.0 0.0043621
9450.0 0.0043252
9470.0 0.0042911
9490.0 0.0042558
9510.0 0.004218
9530.0 0.0041807
9550.0 0.0041441
9570.0 0.004108
9590.0 0.0040721
9610.0 0.0040366
9630.0 0.0040015
9650.0 0.0039666
9670.0 0.0039318
9690.0 0.0038974
9710.0 0.0038633
9730.0 0.0038293
9750.0 0.0037956
9770.0 0.0037625
9790.0 0.0037294
9810.0 0.0036966
9830.0 0.0036635
9850.0 0.0036259
9870.0 0.0035933
9890.0 0.0035645
9910.0 0.0035353
9930.0 0.0035
9950.0 0.0034695
9970.0 0.0034418
9990.0 0.0034132
10010.0 0.0033844
10030.0 0.0033556
10050.0 0.0033271
10070.0 0.003299
10090.0 0.0032714
10110.0 0.0032432
10130.0 0.0032152
10150.0 0.0031884
10170.0 0.0031616
10190.0 0.0031347
10210.0 0.0031087
10230.0 0.0030831
10250.0 0.0030574
10270.0 0.0030321
10290.0 0.0030077
10310.0 0.0029831
10330.0 0.0029584
10350.0 0.0029347
10370.0 0.0029114
10390.0 0.0028879
10410.0 0.0028646
10430.0 0.0028422
10450.0 0.0028201
10470.0 0.002798
10490.0 0.0027766
10510.0 0.0027556
10530.0 0.0027341
10550.0 0.0027132
10570.0 0.0026932
10590.0 0.002673
10610.0 0.0026529
10630.0 0.0026336
10650.0 0.0026146
10670.0 0.0025952
10690.0 0.0025765
10710.0 0.0025584
10730.0 0.0025401
10750.0 0.0025217
10770.0 0.0025044
10790.0 0.0024872
10810.0 0.0024698
10830.0 0.002453
10850.0 0.0024368
10870.0 0.0024202
10890.0 0.0024039
10910.0 0.0023885
10930.0 0.0023734
10950.0 0.0023584
10970.0 0.0023444
10990.0 0.0023313
11010.0 0.0024354
11030.0 0.0024257
11050.0 0.0024165
11070.0 0.002407
11090.0 0.0023964
11110.0 0.0023857
11130.0 0.0023743
11150.0 0.0023618
11170.0 0.0023486
11190.0 0.0023353
11210.0 0.0023214
11230.0 0.0023067
11250.0 0.0022924
11270.0 0.0022785
11290.0 0.0022643
11310.0 0.0022505
11330.0 0.002238
11350.0 0.0022259
11370.0 0.0022142
11390.0 0.0022035
11410.0 0.0021938
11430.0 0.0021839
11450.0 0.0021747
11470.0 0.0021661
11490.0 0.0021575
11510.0 0.0021484
11530.0 0.0021398
11550.0 0.002131
11570.0 0.0021214
11590.0 0.0021115
11610.0 0.0021017
11630.0 0.0020911
11650.0 0.0020798
11670.0 0.002069
11690.0 0.0020581
11710.0 0.0020467
11730.0 0.0020356
11750.0 0.0020252
11770.0 0.0020145
11790.0 0.0020038
11810.0 0.0019939
11830.0 0.0019843
11850.0 0.0019742
11870.0 0.0019648
11890.0 0.0019563
11910.0 0.0019477
11930.0 0.0019395
11950.0 0.0019323
11970.0 0.0019257
11990.0 0.0019194
12010.0 0.0019143
12030.0 0.0019105
12050.0 0.0019075
12070.0 0.0019057
12090.0 0.0019055
12110.0 0.0019064
12130.0 0.0019085
12150.0 0.0019119
12170.0 0.0019164
12190.0 0.0019219
12210.0 0.0019283
12230.0 0.0019354
12250.0 0.001943
12270.0 0.0019512
12290.0 0.0019595
12310.0 0.0019678
12330.0 0.0019762
12350.0 0.0019844
12370.0 0.0019921
12390.0 0.0019995
12410.0 0.0020062
12430.0 0.0020122
12450.0 0.0020172
12470.0 0.0020211
12490.0 0.0020237
12510.0 0.0020252
12530.0 0.0020252
12550.0 0.0020234
12570.0 0.0020202
12590.0 0.0020156
12610.0 0.0020089
12630.0 0.0020005
12650.0 0.0019914
12670.0 0.0019806
12690.0 0.0019683
12710.0 0.0019554
12730.0 0.0019419
12750.0 0.0019266
12770.0 0.0019113
12790.0 0.0018962
12810.0 0.0018805
12830.0 0.0018643
12850.0 0.0018493
12870.0 0.0018347
12890.0 0.0018199
12910.0 0.001806
12930.0 0.0017933
12950.0 0.0017806
12970.0 0.0017684
12990.0 0.0017577
13010.0 0.0017476
13030.0 0.0017376
13050.0 0.0017285
13070.0 0.0017202
13090.0 0.0017119
13110.0 0.0017038
13130.0 0.0016964
13150.0 0.0016892
13170.0 0.0016817
13190.0 0.0016748
13210.0 0.0016683
13230.0 0.0016617
13250.0 0.0016551
13270.0 0.0016488
13290.0 0.0016425
13310.0 0.0016358
13330.0 0.0016292
13350.0 0.0016225
13370.0 0.0016153
13390.0 0.0016076
13410.0 0.0016001
13430.0 0.001592
13450.0 0.0015832
13470.0 0.0015743
13490.0 0.0015652
13510.0 0.001555
13530.0 0.0015446
13550.0 0.0015342
13570.0 0.0015234
13590.0 0.0015119
13610.0 0.0015005
13630.0 0.0014892
13650.0 0.0014772
13670.0 0.001465
13690.0 0.0014531
13710.0 0.0014409
13730.0 0.0014279
13750.0 0.0014155
13770.0 0.0014031
13790.0 0.0013902
13810.0 0.0013774
13830.0 0.001365
13850.0 0.0013523
13870.0 0.0013393
13890.0 0.0013268
13910.0 0.0013145
13930.0 0.0013018
13950.0 0.0012892
13970.0 0.0012774
13990.0 0.0012653
14010.0 0.0012532
14030.0 0.0012415
14050.0 0.0012301
14070.0 0.0012182
14090.0 0.0012068
14110.0 0.0011957
14130.0 0.0011845
14150.0 0.0011731
14170.0 0.0011624
14190.0 0.0011517
14210.0 0.0011408
14230.0 0.0011302
14250.0 0.0011199
14270.0 0.0011095
14290.0 0.001099
14310.0 0.0010892
14330.0 0.0010795
14350.0 0.0010698
14370.0 0.0010605
14390.0 0.0010517
14410.0 0.0010428
14430.0 0.0010341
14450.0 0.0010259
14470.0 0.0010179
14490.0 0.0010098
14510.0 0.0010021
14530.0 0.00099471
14550.0 0.00098727
14570.0 0.0009799
14590.0 0.00097283
14610.0 0.00096574
14630.0 0.00095854
14650.0 0.00095155
14670.0 0.00094469
14690.0 0.00093773
14710.0 0.00093079
14730.0 0.00092416
14750.0 0.00091753
14770.0 0.00091088
14790.0 0.00090443
14810.0 0.00089818
14830.0 0.0008918
14850.0 0.00088558
14870.0 0.0008796
14890.0 0.00087365
14910.0 0.00086771
14930.0 0.00086199
14950.0 0.00085645
14970.0 0.00085091
14990.0 0.00084556
15010.0 0.00084045
15030.0 0.00083546
15050.0 0.00083051
15070.0 0.00082581
15090.0 0.0008212
15110.0 0.00081659
15130.0 0.00081203
15150.0 0.00080757
15170.0 0.00080305
15190.0 0.00079851
15210.0 0.00079404
15230.0 0.00078959
15250.0 0.00078507
15270.0 0.00078058
15290.0 0.00077618
15310.0 0.00077174
15330.0 0.00076727
15350.0 0.00076288
15370.0 0.0007585
15390.0 0.00075404
15410.0 0.00074965
15430.0 0.00074531
15450.0 0.00074095
15470.0 0.00073656
15490.0 0.00073226
15510.0 0.00072798
15530.0 0.00072365
15550.0 0.00071937
15570.0 0.00071515
15590.0 0.00071088
15610.0 0.0007066
15630.0 0.00070242
15650.0 0.00069825
15670.0 0.00069404
15690.0 0.00068989
15710.0 0.00068581
15730.0 0.00068167
15750.0 0.00067755
15770.0 0.00067351
15790.0 0.00066947
15810.0 0.00066538
15830.0 0.00066138
15850.0 0.00065743
15870.0 0.00065345
15890.0 0.00064949
15910.0 0.00064561
15930.0 0.00064173
15950.0 0.0006378
15970.0 0.00063396
15990.0 0.00063016
16010.0 0.00062634
16030.0 0.00062252
16050.0 0.00061881
16070.0 0.00061509
16090.0 0.00061135
16110.0 0.00060768
16130.0 0.00060406
16150.0 0.00060038
16170.0 0.00059675
16190.0 0.00059319
16210.0 0.00058963
16230.0 0.00058606
16250.0 0.00058257
16270.0 0.00057912
16290.0 0.00057563
16310.0 0.00057218
16330.0 0.0005688
16350.0 0.00056541
16370.0 0.00056199
16390.0 0.00055868
16410.0 0.00055539
16430.0 0.00055208
16450.0 0.00054881
16470.0 0.00054562
16490.0 0.00054239
16510.0 0.00053917
16530.0 0.00053603
16550.0 0.00053291
16570.0 0.00052976
16590.0 0.00052665
16610.0 0.00052363
16630.0 0.00052058
16650.0 0.00051755
16670.0 0.00051458
16690.0 0.00051164
16710.0 0.00050865
16730.0 0.00050573
16750.0 0.00050286
16770.0 0.00049998
16790.0 0.0004971
16810.0 0.00049431
16830.0 0.00049153
16850.0 0.00048873
16870.0 0.00048598
16890.0 0.00048329
16910.0 0.00048056
16930.0 0.00047784
16950.0 0.00047521
16970.0 0.00047258
16990.0 0.00046994
17010.0 0.00046736
17030.0 0.00046483
17050.0 0.00046226
17070.0 0.00045972
17090.0 0.00045724
17110.0 0.00045477
17130.0 0.00045227
17150.0 0.00044984
17170.0 0.00044746
17190.0 0.00044505
17210.0 0.00044267
17230.0 0.00044035
17250.0 0.00043803
17270.0 0.00043568
17290.0 0.0004334
17310.0 0.00043116
17330.0 0.00042889
17350.0 0.00042663
17370.0 0.00042447
17390.0 0.00042229
17410.0 0.0004201
17430.0 0.00041796
17450.0 0.00041587
17470.0 0.00041372
17490.0 0.00041161
17510.0 0.00040957
17530.0 0.00040752
17550.0 0.00040546
17570.0 0.00040346
17590.0 0.00040149
17610.0 0.00039949
17630.0 0.00039753
17650.0 0.00039561
17670.0 0.00039369
17690.0 0.00039173
17710.0 0.00038986
17730.0 0.00038801
17750.0 0.00038614
17770.0 0.00038429
17790.0 0.00038251
17810.0 0.00038069
17830.0 0.00037888
17850.0 0.00037712
17870.0 0.00037538
17890.0 0.00037361
17910.0 0.00037187
17930.0 0.0003702
17950.0 0.0003685
17970.0 0.00036681
17990.0 0.00036517
18010.0 0.00036354
18030.0 0.00036186
18050.0 0.00036024
18070.0 0.00035866
18090.0 0.00035706
18110.0 0.00035546
18130.0 0.00035393
18150.0 0.00035239
18170.0 0.00035084
18190.0 0.00034932
18210.0 0.00034784
18230.0 0.00034632
18250.0 0.00034481
18270.0 0.00034336
18290.0 0.00034192
18310.0 0.00034045
18330.0 0.00033902
18350.0 0.00033764
18370.0 0.00033621
18390.0 0.0003348
18410.0 0.00033343
18430.0 0.00033207
18450.0 0.00033066
18470.0 0.00032932
18490.0 0.00032801
18510.0 0.00032667
18530.0 0.00032534
18550.0 0.00032406
18570.0 0.00032277
18590.0 0.00032144
18610.0 0.00032017
18630.0 0.00031893
18650.0 0.00031765
18670.0 0.00031638
18690.0 0.00031518
18710.0 0.00031395
18730.0 0.00031271
18750.0 0.00031151
18770.0 0.00031033
18790.0 0.0003091
18810.0 0.0003079
18830.0 0.00030675
18850.0 0.00030558
18870.0 0.00030439
18890.0 0.00030325
18910.0 0.00030213
18930.0 0.00030097
18950.0 0.00029983
18970.0 0.00029873
18990.0 0.00029761
19010.0 0.00029644
19030.0 0.00029537
19050.0 0.00029429
19070.0 0.00029317
19090.0 0.00029209
19110.0 0.00029105
19130.0 0.00028995
19150.0 0.00028886
19170.0 0.00028781
19190.0 0.00028677
19210.0 0.00028568
19230.0 0.00028463
19250.0 0.00028362
19270.0 0.00028258
19290.0 0.00028153
19310.0 0.00028052
19330.0 0.00027951
19350.0 0.00027845
19370.0 0.00027743
19390.0 0.00027644
19410.0 0.00027542
19430.0 0.00027439
19450.0 0.00027342
19470.0 0.00027243
19490.0 0.00027141
19510.0 0.00027042
19530.0 0.00026946
19550.0 0.00026845
19570.0 0.00026743
19590.0 0.00026648
19610.0 0.0002655
19630.0 0.0002645
19650.0 0.00026353
19670.0 0.00026259
19690.0 0.00026159
19710.0 0.0002606
19730.0 0.00025965
19750.0 0.00025868
19770.0 0.00025767
19790.0 0.00025672
19810.0 0.00025577
19830.0 0.00025479
19850.0 0.00025382
19870.0 0.00025289
19890.0 0.00025192
19910.0 0.00025092
19930.0 0.00024997
19950.0 0.00024904
19970.0 0.00024808
19990.0 0.00024712
20010.0 0.00024623
20030.0 0.00024531
20050.0 0.00024437
20070.0 0.00024346
20090.0 0.00024255
20110.0 0.00024156
20130.0 0.00024059
20150.0 0.00023964
20170.0 0.00023866
20190.0 0.00023764
20210.0 0.00023667
20230.0 0.00023571
20250.0 0.00023469
20270.0 0.00023372
20290.0 0.0002328
20310.0 0.00023188
20330.0 0.00023094
20350.0 0.00023012
20370.0 0.00022933
20390.0 0.00022855
20410.0 0.00022784
20430.0 0.00022721
20450.0 0.00022659
20470.0 0.00022603
20490.0 0.00022556
20510.0 0.00022514
20530.0 0.00022477
20550.0 0.00022449
20570.0 0.00022429
20590.0 0.00022415
20610.0 0.00022409
20630.0 0.00022411
20650.0 0.0002242
20670.0 0.00022436
20690.0 0.0002246
20710.0 0.0002249
20730.0 0.00022526
20750.0 0.00022567
20770.0 0.00022611
20790.0 0.00022657
20810.0 0.00022705
20830.0 0.00022751
20850.0 0.00022794
20870.0 0.00022835
20890.0 0.00022869
20910.0 0.00022896
20930.0 0.00022915
20950.0 0.00022924
20970.0 0.00022923
20990.0 0.00022912
21010.0 0.00022887
21030.0 0.00022851
21050.0 0.00022805
21070.0 0.00022747
21090.0 0.00022675
21110.0 0.00022598
21130.0 0.00022513
21150.0 0.00022418
21170.0 0.00022317
21190.0 0.00022216
21210.0 0.00022106
21230.0 0.00021992
21250.0 0.00021881
21270.0 0.0002177
21290.0 0.00021654
21310.0 0.0002154
21330.0 0.00021432
21350.0 0.00021321
21370.0 0.00021208
21390.0 0.00021099
21410.0 0.0002099
21430.0 0.00020873
21450.0 0.00020759
21470.0 0.00020647
21490.0 0.00020528
21510.0 0.00020406
21530.0 0.00020285
21550.0 0.00020161
21570.0 0.00020028
21590.0 0.00019895
21610.0 0.00019764
21630.0 0.00019625
21650.0 0.00019481
21670.0 0.00019345
21690.0 0.00019206
21710.0 0.00019062
21730.0 0.00018922
21750.0 0.00018787
21770.0 0.00018645
21790.0 0.00018506
21810.0 0.00018373
21830.0 0.0001824
21850.0 0.00018105
21870.0 0.00017976
21890.0 0.00017851
21910.0 0.00017724
21930.0 0.00017597
21950.0 0.00017475
21970.0 0.00017352
21990.0 0.00017223
22010.0 0.000171
22030.0 0.00016976
22050.0 0.00016848
22070.0 0.00016718
22090.0 0.0001659
22110.0 0.00016458
22130.0 0.00016319
22150.0 0.00016182
22170.0 0.00016044
22190.0 0.00015898
22210.0 0.00015749
22230.0 0.00015605
22250.0 0.00015456
22270.0 0.00015302
22290.0 0.00015152
22310.0 0.00015002
22330.0 0.00014845
22350.0 0.0001469
22370.0 0.0001454
22390.0 0.00014388
22410.0 0.00014232
22430.0 0.00014085
22450.0 0.0001394
22470.0 0.00013793
22490.0 0.0001365
22510.0 0.00013514
22530.0 0.00013377
22550.0 0.00013241
22570.0 0.00013113
22590.0 0.00012989
22610.0 0.00012865
22630.0 0.00012747
22650.0 0.00012635
22670.0 0.00012523
22690.0 0.00012414
22710.0 0.0001231
22730.0 0.00012209
22750.0 0.00012107
22770.0 0.0001201
22790.0 0.00011918
22810.0 0.00011826
22830.0 0.00011736
22850.0 0.00011651
22870.0 0.00011568
22890.0 0.00011486
22910.0 0.00011408
22930.0 0.00011335
22950.0 0.00011264
22970.0 0.00011196
22990.0 0.00011134
23010.0 0.00011076
23030.0 0.00011021
23050.0 0.00010972
23070.0 0.00010928
23090.0 0.00010889
23110.0 0.00010855
23130.0 0.00010826
23150.0 0.00010803
23170.0 0.00010785
23190.0 0.00010772
23210.0 0.00010763
23230.0 0.0001076
23250.0 0.0001076
23270.0 0.00010763
23290.0 0.00010768
23310.0 0.00010777
23330.0 0.00010784
23350.0 0.0001079
23370.0 0.00010795
23390.0 0.00010798
23410.0 0.00010796
23430.0 0.00010791
23450.0 0.00010765
23470.0 0.00010729
23490.0 0.00010688
23510.0 0.00010644
23530.0 0.00010595
