#lamb flux
1010.0 4.9214e-06
1030.0 5.1287e-06
1050.0 5.369e-06
1070.0 5.64e-06
1090.0 5.9481e-06
1110.0 6.2654e-06
1130.0 6.5862e-06
1150.0 6.9238e-06
1170.0 7.2737e-06
1190.0 7.6081e-06
1210.0 7.949e-06
1230.0 8.3034e-06
1250.0 8.6535e-06
1270.0 8.9966e-06
1290.0 9.3611e-06
1310.0 9.7286e-06
1330.0 1.0085e-05
1350.0 1.0449e-05
1370.0 1.0827e-05
1390.0 1.12e-05
1410.0 1.1567e-05
1430.0 1.1953e-05
1450.0 1.2343e-05
1470.0 1.2725e-05
1490.0 1.3114e-05
1510.0 1.3527e-05
1530.0 1.3924e-05
1550.0 1.432e-05
1570.0 1.473e-05
1590.0 1.5143e-05
1610.0 1.5542e-05
1630.0 1.5953e-05
1650.0 1.6375e-05
1670.0 1.6784e-05
1690.0 1.7188e-05
1710.0 1.7604e-05
1730.0 1.802e-05
1750.0 1.841e-05
1770.0 1.8807e-05
1790.0 1.9206e-05
1810.0 1.9587e-05
1830.0 1.9956e-05
1850.0 2.0339e-05
1870.0 2.0704e-05
1890.0 2.1049e-05
1910.0 2.1392e-05
1930.0 2.1734e-05
1950.0 2.2051e-05
1970.0 2.2354e-05
1990.0 2.2662e-05
2010.0 2.2955e-05
2030.0 2.3228e-05
2050.0 2.3505e-05
2070.0 2.3786e-05
2090.0 2.4042e-05
2110.0 2.4295e-05
2130.0 2.4557e-05
2150.0 2.4814e-05
2170.0 2.506e-05
2190.0 2.5325e-05
2210.0 2.5599e-05
2230.0 2.5871e-05
2250.0 2.6155e-05
2270.0 2.647e-05
2290.0 2.6792e-05
2310.0 2.7123e-05
2330.0 2.7488e-05
2350.0 2.7883e-05
2370.0 2.8294e-05
2390.0 2.8742e-05
2410.0 2.924e-05
2430.0 2.9766e-05
2450.0 3.032e-05
2470.0 3.0916e-05
2490.0 3.1545e-05
2510.0 3.2187e-05
2530.0 3.2895e-05
2550.0 3.3758e-05
2570.0 3.4905e-05
2590.0 3.6519e-05
2610.0 3.9013e-05
2630.0 4.2633e-05
2650.0 4.7374e-05
2670.0 5.3415e-05
2690.0 6.0752e-05
2710.0 6.8685e-05
2730.0 7.6814e-05
2750.0 8.5286e-05
2770.0 9.3534e-05
2790.0 0.00010133
2810.0 0.00010904
2830.0 0.00011698
2850.0 0.00012475
2870.0 0.00013273
2890.0 0.00014123
2910.0 0.00015011
2930.0 0.00015914
2950.0 0.00016875
2970.0 0.00017889
2990.0 0.0001892
3010.0 0.00034001
3030.0 0.00035887
3050.0 0.00037785
3070.0 0.00039561
3090.0 0.0004117
3110.0 0.00042315
3130.0 0.00042623
3150.0 0.00041688
3170.0 0.00038694
3190.0 0.00033477
3210.0 0.00026066
3230.0 0.00017587
3250.0 0.0002554
3270.0 0.00012906
3290.0 0.00032392
3310.0 9.0204e-05
3330.0 9.4986e-05
3350.0 0.00013051
3370.0 0.00017029
3390.0 0.00021213
3410.0 0.00025378
3430.0 0.0002971
3450.0 0.0003402
3470.0 0.00037992
3490.0 0.00040625
3510.0 0.00049172
3530.0 0.00065553
3550.0 0.00067606
3570.0 0.00061438
3590.0 0.0008514
3610.0 0.00061303
3630.0 0.00088598
3650.0 0.00097202
3670.0 0.0012106
3690.0 0.0011905
3710.0 0.00093703
3730.0 0.0012082
3750.0 0.0012583
3770.0 0.0012862
3790.0 0.0011706
3810.0 0.0010138
3830.0 0.0012609
3850.0 0.0012832
3870.0 0.0015637
3890.0 0.0015127
3910.0 0.0014478
3930.0 0.0016073
3950.0 0.0018057
3970.0 0.0023402
3990.0 0.0020273
4010.0 0.0015014
4030.0 0.0018362
4050.0 0.0018918
4070.0 0.0020911
4090.0 0.0019149
4110.0 0.0014216
4130.0 0.0017522
4150.0 0.0016108
4170.0 0.0017071
4190.0 0.0017079
4210.0 0.0020318
4230.0 0.0015171
4250.0 0.0017856
4270.0 0.0017844
4290.0 0.001812
4310.0 0.0021344
4330.0 0.0021951
4350.0 0.0017997
4370.0 0.0016178
4390.0 0.0018406
4410.0 0.0018141
4430.0 0.0014331
4450.0 0.0014279
4470.0 0.0016052
4490.0 0.0012738
4510.0 0.0015025
4530.0 0.0016355
4550.0 0.0021522
4570.0 0.003085
4590.0 0.0031378
4610.0 0.0023707
4630.0 0.0034209
4650.0 0.0046252
4670.0 0.0043445
4690.0 0.002848
4710.0 0.0029485
4730.0 0.0035222
4750.0 0.0031195
4770.0 0.0024132
4790.0 0.0017774
4810.0 0.0024135
4830.0 0.0027553
4850.0 0.0025952
4870.0 0.0013031
4890.0 0.0027877
4910.0 0.0036463
4930.0 0.0039152
4950.0 0.0039891
4970.0 0.0028891
4990.0 0.0032231
5010.0 0.0035047
5030.0 0.0035757
5050.0 0.0034054
5070.0 0.0025146
5090.0 0.0021073
5110.0 0.0019861
5130.0 0.001802
5150.0 0.0020367
5170.0 0.0018163
5190.0 0.0021737
5210.0 0.0021802
5230.0 0.0023817
5250.0 0.0029995
5270.0 0.002713
5290.0 0.002733
5310.0 0.0037513
5330.0 0.0042999
5350.0 0.0038208
5370.0 0.0034661
5390.0 0.0037857
5410.0 0.0045178
5430.0 0.0049249
5450.0 0.0053547
5470.0 0.0055974
5490.0 0.0056969
5510.0 0.0065923
5530.0 0.0068478
5550.0 0.00723
5570.0 0.0075559
5590.0 0.0075004
5610.0 0.0072161
5630.0 0.0070479
5650.0 0.0071804
5670.0 0.007144
5690.0 0.0062649
5710.0 0.0059501
5730.0 0.0058812
5750.0 0.0062654
5770.0 0.0055665
5790.0 0.0052289
5810.0 0.00537
5830.0 0.0056342
5850.0 0.0052463
5870.0 0.0052342
5890.0 0.0059979
5910.0 0.005785
5930.0 0.0049675
5950.0 0.0044527
5970.0 0.0046481
5990.0 0.0042748
6010.0 0.0039794
6030.0 0.0039948
6050.0 0.0037781
6070.0 0.0030189
6090.0 0.0027762
6110.0 0.0033775
6130.0 0.0037925
6150.0 0.0040027
6170.0 0.0040108
6190.0 0.0039166
6210.0 0.0038865
6230.0 0.0043262
6250.0 0.0039962
6270.0 0.0036314
6290.0 0.0032889
6310.0 0.0030708
6330.0 0.0029104
6350.0 0.0026015
6370.0 0.0026123
6390.0 0.0030635
6410.0 0.0037598
6430.0 0.0043397
6450.0 0.0042477
6470.0 0.0042755
6490.0 0.0051354
6510.0 0.0057274
6530.0 0.0054807
6550.0 0.0053359
6570.0 0.005412
6590.0 0.005257
6610.0 0.0056256
6630.0 0.0053528
6650.0 0.0048573
6670.0 0.0044197
6690.0 0.0042099
6710.0 0.0048788
6730.0 0.0045274
6750.0 0.004047
6770.0 0.0037696
6790.0 0.0039333
6810.0 0.0042455
6830.0 0.0041419
6850.0 0.0038258
6870.0 0.003887
6890.0 0.0037848
6910.0 0.0035827
6930.0 0.0040124
6950.0 0.0037965
6970.0 0.0036545
6990.0 0.0036897
7010.0 0.0035484
7030.0 0.003331
7050.0 0.0031532
7070.0 0.0032545
7090.0 0.0030445
7110.0 0.0026885
7130.0 0.0022539
7150.0 0.0020667
7170.0 0.0025901
7190.0 0.0027918
7210.0 0.0027566
7230.0 0.0029084
7250.0 0.0027953
7270.0 0.0027102
7290.0 0.0029141
7310.0 0.0031324
7330.0 0.0030449
7350.0 0.0028793
7370.0 0.0027949
7390.0 0.0029441
7410.0 0.0033946
7430.0 0.0037179
7450.0 0.0040121
7470.0 0.0040301
7490.0 0.0041151
7510.0 0.0039305
7530.0 0.0038819
7550.0 0.0037331
7570.0 0.0032647
7590.0 0.0031927
7610.0 0.0031173
7630.0 0.002987
7650.0 0.0033023
7670.0 0.0036104
7690.0 0.0039174
7710.0 0.0043138
7730.0 0.0045862
7750.0 0.0047855
7770.0 0.0047785
7790.0 0.0051396
7810.0 0.0052936
7830.0 0.0049839
7850.0 0.0050044
7870.0 0.0047648
7890.0 0.0048885
7910.0 0.0046219
7930.0 0.0046165
7950.0 0.004184
7970.0 0.004273
7990.0 0.0041175
8010.0 0.004059
8030.0 0.0040408
8050.0 0.0042044
8070.0 0.0040697
8090.0 0.0040699
8110.0 0.0039448
8130.0 0.0039302
8150.0 0.0037718
8170.0 0.0036587
8190.0 0.0036044
8210.0 0.0036237
8230.0 0.0032616
8250.0 0.0029934
8270.0 0.0026144
8290.0 0.0021499
8310.0 0.0017913
8330.0 0.0014162
8350.0 0.0012029
8370.0 0.0012637
8390.0 0.0013308
8410.0 0.0014282
8430.0 0.001699
8450.0 0.0018065
8470.0 0.0018974
8490.0 0.0021481
8510.0 0.0023458
8530.0 0.0027046
8550.0 0.0031901
8570.0 0.0035734
8590.0 0.0038573
8610.0 0.004188
8630.0 0.0045421
8650.0 0.0045994
8670.0 0.0046276
8690.0 0.004787
8710.0 0.0047555
8730.0 0.0047361
8750.0 0.0045191
8770.0 0.0045135
8790.0 0.0044407
8810.0 0.0041024
8830.0 0.0040654
8850.0 0.0038243
8870.0 0.0036689
8890.0 0.0033917
8910.0 0.0035782
8930.0 0.0032966
8950.0 0.0032179
8970.0 0.0032031
8990.0 0.0030975
9010.0 0.0031215
9030.0 0.0030092
9050.0 0.0029924
9070.0 0.0029874
9090.0 0.0029819
9110.0 0.0029772
9130.0 0.0029708
9150.0 0.0029636
9170.0 0.0029502
9190.0 0.002927
9210.0 0.0029549
9230.0 0.0029392
9250.0 0.0029274
9270.0 0.0029162
9290.0 0.0029053
9310.0 0.0028948
9330.0 0.0028842
9350.0 0.0028734
9370.0 0.0028625
9390.0 0.0028514
9410.0 0.00284
9430.0 0.0028283
9450.0 0.0028162
9470.0 0.0028039
9490.0 0.002792
9510.0 0.0027797
9530.0 0.0027673
9550.0 0.0027546
9570.0 0.0027418
9590.0 0.0027289
9610.0 0.0027159
9630.0 0.0027027
9650.0 0.0026895
9670.0 0.0026762
9690.0 0.0026629
9710.0 0.0026495
9730.0 0.0026361
9750.0 0.0026227
9770.0 0.0026093
9790.0 0.0025959
9810.0 0.0025825
9830.0 0.0025691
9850.0 0.0025558
9870.0 0.0025425
9890.0 0.0025293
9910.0 0.0025161
9930.0 0.0025029
9950.0 0.0024807
9970.0 0.0024705
9990.0 0.0024598
10010.0 0.002449
10030.0 0.0024376
10050.0 0.0024252
10070.0 0.002411
10090.0 0.0024
10110.0 0.0023883
10130.0 0.0023769
10150.0 0.0023655
10170.0 0.0023539
10190.0 0.0023419
10210.0 0.0023306
10230.0 0.0023196
10250.0 0.0023082
10270.0 0.0022971
10290.0 0.0022865
10310.0 0.0022758
10330.0 0.0022648
10350.0 0.0022545
10370.0 0.0022444
10390.0 0.0022341
10410.0 0.002224
10430.0 0.0022146
10450.0 0.0022049
10470.0 0.0021952
10490.0 0.0021861
10510.0 0.0021771
10530.0 0.0021677
10550.0 0.0021587
10570.0 0.0021503
10590.0 0.0021417
10610.0 0.0021331
10630.0 0.002125
10650.0 0.0021171
10670.0 0.0021088
10690.0 0.002101
10710.0 0.0020935
10730.0 0.0020858
10750.0 0.002078
10770.0 0.002071
10790.0 0.002064
10810.0 0.0020568
10830.0 0.0020498
10850.0 0.0020432
10870.0 0.0020359
10890.0 0.0020281
10910.0 0.00202
10930.0 0.0020104
10950.0 0.0019979
10970.0 0.0019826
10990.0 0.0019644
11010.0 0.0018982
11030.0 0.0018726
11050.0 0.0018437
11070.0 0.001811
11090.0 0.0017734
11110.0 0.0017362
11130.0 0.0016989
11150.0 0.0016602
11170.0 0.0016219
11190.0 0.0015862
11210.0 0.0015505
11230.0 0.0015149
11250.0 0.001482
11270.0 0.0014511
11290.0 0.0014205
11310.0 0.0013917
11330.0 0.0013664
11350.0 0.0013422
11370.0 0.0013192
11390.0 0.0012986
11410.0 0.0012798
11430.0 0.0012609
11450.0 0.0012433
11470.0 0.0012269
11490.0 0.0012102
11510.0 0.0011928
11530.0 0.0011759
11550.0 0.0011586
11570.0 0.0011395
11590.0 0.0011196
11610.0 0.0010995
11630.0 0.0010773
11650.0 0.0010534
11670.0 0.0010298
11690.0 0.0010056
11710.0 0.00097988
11730.0 0.00095434
11750.0 0.00093011
11770.0 0.00090517
11790.0 0.00088055
11810.0 0.00085778
11830.0 0.00083612
11850.0 0.00081436
11870.0 0.00079474
11890.0 0.00077717
11910.0 0.00076018
11930.0 0.00074421
11950.0 0.00073012
11970.0 0.00071684
11990.0 0.00070374
12010.0 0.0006919
12030.0 0.00068104
12050.0 0.00067031
12070.0 0.00065982
12090.0 0.0006507
12110.0 0.00064186
12130.0 0.00063322
12150.0 0.00062549
12170.0 0.0006188
12190.0 0.00061237
12210.0 0.00060712
12230.0 0.00060343
12250.0 0.00060106
12270.0 0.0006002
12290.0 0.0006013
12310.0 0.00060434
12330.0 0.0006094
12350.0 0.0006166
12370.0 0.00062567
12390.0 0.00063668
12410.0 0.00064997
12430.0 0.00066425
12450.0 0.00067954
12470.0 0.00069605
12490.0 0.00071304
12510.0 0.00072959
12530.0 0.00074632
12550.0 0.00076285
12570.0 0.00077821
12590.0 0.00079252
12610.0 0.0008061
12630.0 0.00081834
12650.0 0.00082891
12670.0 0.00083836
12690.0 0.00084653
12710.0 0.00085329
12730.0 0.00085882
12750.0 0.00086313
12770.0 0.00086622
12790.0 0.00086827
12810.0 0.00086919
12830.0 0.00086894
12850.0 0.00086792
12870.0 0.00086603
12890.0 0.00086298
12910.0 0.00085915
12930.0 0.00085476
12950.0 0.00084921
12970.0 0.00084262
12990.0 0.00083575
13010.0 0.00082812
13030.0 0.00081937
13050.0 0.0008101
13070.0 0.00080071
13090.0 0.00079027
13110.0 0.00077926
13130.0 0.00076846
13150.0 0.00075755
13170.0 0.00074605
13190.0 0.00073542
13210.0 0.00072578
13230.0 0.0007166
13250.0 0.00070846
13270.0 0.00070201
13290.0 0.00069682
13310.0 0.00069293
13330.0 0.00069078
13350.0 0.0006901
13370.0 0.0006906
13390.0 0.00069216
13410.0 0.00069441
13430.0 0.00069696
13450.0 0.00069946
13470.0 0.00070149
13490.0 0.00070276
13510.0 0.00070289
13530.0 0.00070164
13550.0 0.00069908
13570.0 0.00069502
13590.0 0.00068933
13610.0 0.00068256
13630.0 0.00067499
13650.0 0.0006662
13670.0 0.00065688
13690.0 0.0006476
13710.0 0.00063809
13730.0 0.00062823
13750.0 0.00061928
13770.0 0.00061079
13790.0 0.0006025
13810.0 0.00059478
13830.0 0.00058787
13850.0 0.00058116
13870.0 0.00057474
13890.0 0.00056888
13910.0 0.00056334
13930.0 0.00055781
13950.0 0.00055251
13970.0 0.00054763
13990.0 0.00054277
14010.0 0.00053802
14030.0 0.00053361
14050.0 0.00052946
14070.0 0.00052537
14090.0 0.0005217
14110.0 0.00051843
14130.0 0.00051545
14150.0 0.00051281
14170.0 0.00051065
14190.0 0.00050886
14210.0 0.00050744
14230.0 0.00050644
14250.0 0.00050581
14270.0 0.00050559
14290.0 0.00050581
14310.0 0.00050632
14330.0 0.00050718
14350.0 0.00050842
14370.0 0.00050987
14390.0 0.0005114
14410.0 0.00051317
14430.0 0.000515
14450.0 0.00051667
14470.0 0.00051825
14490.0 0.00051978
14510.0 0.00052097
14530.0 0.00052185
14550.0 0.00052259
14570.0 0.00052315
14590.0 0.00052349
14610.0 0.00052382
14630.0 0.00052431
14650.0 0.0005249
14670.0 0.00052576
14690.0 0.00052714
14710.0 0.00052915
14730.0 0.00053157
14750.0 0.0005348
14770.0 0.00053899
14790.0 0.00054387
14810.0 0.00054936
14830.0 0.00055622
14850.0 0.00056373
14870.0 0.00057149
14890.0 0.00057985
14910.0 0.00058865
14930.0 0.00059682
14950.0 0.00060413
14970.0 0.00061076
14990.0 0.00061579
15010.0 0.00061892
15030.0 0.00062048
15050.0 0.00062053
15070.0 0.00061911
15090.0 0.00061678
15110.0 0.00061381
15130.0 0.00061043
15150.0 0.00060687
15170.0 0.00060316
15190.0 0.00059939
15210.0 0.00059562
15230.0 0.00059185
15250.0 0.00058804
15270.0 0.00058424
15290.0 0.00058048
15310.0 0.0005767
15330.0 0.00057291
15350.0 0.00056915
15370.0 0.00056541
15390.0 0.00056162
15410.0 0.00055786
15430.0 0.00055414
15450.0 0.0005504
15470.0 0.00054665
15490.0 0.00054296
15510.0 0.00053927
15530.0 0.00053556
15550.0 0.00053188
15570.0 0.00052824
15590.0 0.00052458
15610.0 0.00052092
15630.0 0.00051731
15650.0 0.00051372
15670.0 0.00051011
15690.0 0.00050654
15710.0 0.00050301
15730.0 0.00049946
15750.0 0.00049593
15770.0 0.00049245
15790.0 0.00048897
15810.0 0.00048549
15830.0 0.00048205
15850.0 0.00047865
15870.0 0.00047524
15890.0 0.00047185
15910.0 0.00046852
15930.0 0.00046519
15950.0 0.00046185
15970.0 0.00045856
15990.0 0.00045531
16010.0 0.00045206
16030.0 0.00044882
16050.0 0.00044564
16070.0 0.00044247
16090.0 0.00043931
16110.0 0.00043619
16130.0 0.00043311
16150.0 0.00043
16170.0 0.00042694
16190.0 0.00042393
16210.0 0.00042093
16230.0 0.00041793
16250.0 0.00041498
16270.0 0.00041207
16290.0 0.00040916
16310.0 0.00040627
16330.0 0.00040343
16350.0 0.00040061
16370.0 0.00039777
16390.0 0.00039501
16410.0 0.00039227
16430.0 0.00038953
16450.0 0.00038682
16470.0 0.00038417
16490.0 0.00038151
16510.0 0.00037887
16530.0 0.00037628
16550.0 0.00037371
16570.0 0.00037115
16590.0 0.00036861
16610.0 0.00036613
16630.0 0.00036366
16650.0 0.0003612
16670.0 0.00035878
16690.0 0.00035639
16710.0 0.00035399
16730.0 0.00035164
16750.0 0.00034933
16770.0 0.00034702
16790.0 0.00034472
16810.0 0.00034248
16830.0 0.00034026
16850.0 0.00033804
16870.0 0.00033586
16890.0 0.00033371
16910.0 0.00033157
16930.0 0.00032944
16950.0 0.00032736
16970.0 0.0003253
16990.0 0.00032324
17010.0 0.00032122
17030.0 0.00031924
17050.0 0.00031725
17070.0 0.00031528
17090.0 0.00031336
17110.0 0.00031145
17130.0 0.00030954
17150.0 0.00030767
17170.0 0.00030584
17190.0 0.00030401
17210.0 0.0003022
17230.0 0.00030043
17250.0 0.00029866
17270.0 0.0002969
17290.0 0.00029518
17310.0 0.00029349
17330.0 0.00029179
17350.0 0.00029012
17370.0 0.00028849
17390.0 0.00028687
17410.0 0.00028525
17430.0 0.00028367
17450.0 0.00028211
17470.0 0.00028054
17490.0 0.000279
17510.0 0.0002775
17530.0 0.00027601
17550.0 0.00027452
17570.0 0.00027306
17590.0 0.00027163
17610.0 0.00027019
17630.0 0.00026878
17650.0 0.0002674
17670.0 0.00026603
17690.0 0.00026464
17710.0 0.00026331
17730.0 0.00026199
17750.0 0.00026068
17770.0 0.00025938
17790.0 0.00025812
17810.0 0.00025685
17830.0 0.00025559
17850.0 0.00025436
17870.0 0.00025315
17890.0 0.00025193
17910.0 0.00025074
17930.0 0.00024958
17950.0 0.00024842
17970.0 0.00024726
17990.0 0.00024614
18010.0 0.00024503
18030.0 0.00024391
18050.0 0.00024281
18070.0 0.00024175
18090.0 0.00024068
18110.0 0.00023961
18130.0 0.00023859
18150.0 0.00023756
18170.0 0.00023654
18190.0 0.00023554
18210.0 0.00023456
18230.0 0.00023357
18250.0 0.00023259
18270.0 0.00023165
18290.0 0.00023071
18310.0 0.00022977
18330.0 0.00022885
18350.0 0.00022795
18370.0 0.00022705
18390.0 0.00022615
18410.0 0.00022528
18430.0 0.00022442
18450.0 0.00022354
18470.0 0.0002227
18490.0 0.00022188
18510.0 0.00022104
18530.0 0.00022022
18550.0 0.00021943
18570.0 0.00021863
18590.0 0.00021783
18610.0 0.00021705
18630.0 0.00021629
18650.0 0.00021552
18670.0 0.00021476
18690.0 0.00021403
18710.0 0.0002133
18730.0 0.00021256
18750.0 0.00021185
18770.0 0.00021115
18790.0 0.00021043
18810.0 0.00020974
18830.0 0.00020906
18850.0 0.00020838
18870.0 0.0002077
18890.0 0.00020705
18910.0 0.0002064
18930.0 0.00020574
18950.0 0.0002051
18970.0 0.00020448
18990.0 0.00020385
19010.0 0.00020321
19030.0 0.00020261
19050.0 0.00020201
19070.0 0.0002014
19090.0 0.00020081
19110.0 0.00020023
19130.0 0.00019965
19150.0 0.00019906
19170.0 0.0001985
19190.0 0.00019794
19210.0 0.00019737
19230.0 0.00019682
19250.0 0.00019629
19270.0 0.00019574
19290.0 0.0001952
19310.0 0.00019468
19330.0 0.00019416
19350.0 0.00019363
19370.0 0.00019311
19390.0 0.00019262
19410.0 0.00019211
19430.0 0.0001916
19450.0 0.00019112
19470.0 0.00019063
19490.0 0.00019014
19510.0 0.00018966
19530.0 0.00018919
19550.0 0.00018871
19570.0 0.00018823
19590.0 0.00018778
19610.0 0.00018732
19630.0 0.00018686
19650.0 0.00018641
19670.0 0.00018598
19690.0 0.00018552
19710.0 0.00018508
19730.0 0.00018465
19750.0 0.00018422
19770.0 0.00018377
19790.0 0.00018335
19810.0 0.00018293
19830.0 0.0001825
19850.0 0.00018207
19870.0 0.00018165
19890.0 0.00018118
19910.0 0.00018064
19930.0 0.00018002
19950.0 0.00017927
19970.0 0.00017828
19990.0 0.00017702
20010.0 0.00017552
20030.0 0.00017366
20050.0 0.00017145
20070.0 0.00016902
20090.0 0.0001664
20110.0 0.00016344
20130.0 0.00016044
20150.0 0.00015749
20170.0 0.00015443
20190.0 0.00015133
20210.0 0.00014841
20230.0 0.00014556
20250.0 0.0001427
20270.0 0.00014005
20290.0 0.00013762
20310.0 0.00013532
20330.0 0.00013316
20350.0 0.00013138
20370.0 0.00012982
20390.0 0.00012847
20410.0 0.00012743
20430.0 0.00012669
20450.0 0.00012618
20470.0 0.00012597
20490.0 0.00012602
20510.0 0.00012632
20530.0 0.00012687
20550.0 0.00012764
20570.0 0.00012856
20590.0 0.00012967
20610.0 0.00013093
20630.0 0.00013225
20650.0 0.00013365
20670.0 0.00013517
20690.0 0.00013662
20710.0 0.00013804
20730.0 0.00013944
20750.0 0.00014076
20770.0 0.00014192
20790.0 0.00014299
20810.0 0.00014394
20830.0 0.0001447
20850.0 0.0001453
20870.0 0.00014575
20890.0 0.00014602
20910.0 0.00014613
20930.0 0.00014608
20950.0 0.00014588
20970.0 0.00014555
20990.0 0.0001451
21010.0 0.00014452
21030.0 0.00014384
21050.0 0.00014309
21070.0 0.00014226
21090.0 0.00014134
21110.0 0.00014042
21130.0 0.00013948
21150.0 0.00013849
21170.0 0.00013751
21190.0 0.00013659
21210.0 0.00013565
21230.0 0.00013474
21250.0 0.00013393
21270.0 0.0001332
21290.0 0.00013252
21310.0 0.00013195
21330.0 0.00013152
21350.0 0.00013118
21370.0 0.00013095
21390.0 0.00013086
21410.0 0.00013089
21430.0 0.00013105
21450.0 0.00013134
21470.0 0.00013173
21490.0 0.00013224
21510.0 0.00013287
21530.0 0.00013357
21550.0 0.00013435
21570.0 0.00013524
21590.0 0.00013618
21610.0 0.00013715
21630.0 0.00013821
21650.0 0.00013934
21670.0 0.00014043
21690.0 0.00014157
21710.0 0.00014278
21730.0 0.00014398
21750.0 0.00014516
21770.0 0.00014644
21790.0 0.00014772
21810.0 0.00014897
21830.0 0.00015025
21850.0 0.00015158
21870.0 0.00015289
21890.0 0.00015416
21910.0 0.00015549
21930.0 0.00015681
21950.0 0.00015808
21970.0 0.00015935
21990.0 0.00016064
22010.0 0.00016184
22030.0 0.00016297
22050.0 0.00016407
22070.0 0.0001651
22090.0 0.00016599
22110.0 0.0001668
22130.0 0.0001675
22150.0 0.00016805
22170.0 0.00016845
22190.0 0.0001687
22210.0 0.00016877
22230.0 0.00016866
22250.0 0.00016837
22270.0 0.00016787
22290.0 0.00016721
22310.0 0.00016637
22330.0 0.00016529
22350.0 0.00016405
22370.0 0.00016267
22390.0 0.00016111
22410.0 0.00015934
22430.0 0.00015752
22450.0 0.0001556
22470.0 0.00015351
22490.0 0.00015136
22510.0 0.00014923
22530.0 0.00014697
22550.0 0.00014464
22570.0 0.0001424
22590.0 0.00014019
22610.0 0.00013793
22630.0 0.00013574
22650.0 0.00013371
22670.0 0.00013167
22690.0 0.00012969
22710.0 0.00012787
22730.0 0.00012614
22750.0 0.00012442
22770.0 0.00012286
22790.0 0.00012144
22810.0 0.00012007
22830.0 0.00011878
22850.0 0.00011764
22870.0 0.00011656
22890.0 0.00011553
22910.0 0.0001146
22930.0 0.00011377
22950.0 0.00011297
22970.0 0.00011223
22990.0 0.0001116
23010.0 0.00011102
23030.0 0.00011048
23050.0 0.00011001
