#lamb flux
1010.0 2.6307e-09
1030.0 2.9096e-09
1050.0 3.2304e-09
1070.0 3.5915e-09
1090.0 4.0016e-09
1110.0 4.4223e-09
1130.0 4.8456e-09
1150.0 5.2891e-09
1170.0 5.7466e-09
1190.0 6.1804e-09
1210.0 6.6201e-09
1230.0 7.0744e-09
1250.0 7.5195e-09
1270.0 7.9518e-09
1290.0 8.4086e-09
1310.0 8.865e-09
1330.0 9.3027e-09
1350.0 9.7454e-09
1370.0 1.0202e-08
1390.0 1.0648e-08
1410.0 1.108e-08
1430.0 1.1532e-08
1450.0 1.1984e-08
1470.0 1.2421e-08
1490.0 1.2863e-08
1510.0 1.3329e-08
1530.0 1.3771e-08
1550.0 1.4208e-08
1570.0 1.4659e-08
1590.0 1.5111e-08
1610.0 1.5543e-08
1630.0 1.5988e-08
1650.0 1.6445e-08
1670.0 1.6888e-08
1690.0 1.7325e-08
1710.0 1.778e-08
1730.0 1.8237e-08
1750.0 1.8667e-08
1770.0 1.9111e-08
1790.0 1.9564e-08
1810.0 2.0003e-08
1830.0 2.0435e-08
1850.0 2.0894e-08
1870.0 2.1342e-08
1890.0 2.1776e-08
1910.0 2.2219e-08
1930.0 2.2674e-08
1950.0 2.3109e-08
1970.0 2.354e-08
1990.0 2.3988e-08
2010.0 2.443e-08
2030.0 2.4857e-08
2050.0 2.5298e-08
2070.0 2.5751e-08
2090.0 2.6179e-08
2110.0 2.6607e-08
2130.0 2.7049e-08
2150.0 2.7483e-08
2170.0 2.79e-08
2190.0 2.8333e-08
2210.0 2.8769e-08
2230.0 2.9188e-08
2250.0 2.9606e-08
2270.0 3.0044e-08
2290.0 3.0468e-08
2310.0 3.0876e-08
2330.0 3.1301e-08
2350.0 3.1737e-08
2370.0 3.2171e-08
2390.0 3.2641e-08
2410.0 3.3198e-08
2430.0 3.3838e-08
2450.0 3.4604e-08
2470.0 3.5585e-08
2490.0 3.6822e-08
2510.0 3.8228e-08
2530.0 3.992e-08
2550.0 4.2037e-08
2570.0 4.4672e-08
2590.0 4.81e-08
2610.0 5.3231e-08
2630.0 6.0558e-08
2650.0 7.0137e-08
2670.0 8.2522e-08
2690.0 9.7743e-08
2710.0 1.1399e-07
2730.0 1.3004e-07
2750.0 1.4586e-07
2770.0 1.5961e-07
2790.0 1.7053e-07
2810.0 1.792e-07
2830.0 1.8597e-07
2850.0 1.9059e-07
2870.0 1.9399e-07
2890.0 1.9667e-07
2910.0 1.9882e-07
2930.0 2.0057e-07
2950.0 2.0224e-07
2970.0 2.0387e-07
2990.0 2.0541e-07
3010.0 5.806e-06
3030.0 5.8494e-06
3050.0 5.8913e-06
3070.0 5.9272e-06
3090.0 5.9581e-06
3110.0 5.9773e-06
3130.0 5.9765e-06
3150.0 5.95e-06
3170.0 5.8863e-06
3190.0 5.7862e-06
3210.0 5.6593e-06
3230.0 5.514e-06
3250.0 5.3706e-06
3270.0 5.2658e-06
3290.0 5.2077e-06
3310.0 5.2171e-06
3330.0 5.2926e-06
3350.0 5.4241e-06
3370.0 5.6118e-06
3390.0 5.8484e-06
3410.0 6.1059e-06
3430.0 6.395e-06
3450.0 6.7277e-06
3470.0 7.0912e-06
3490.0 7.4763e-06
3510.0 7.9117e-06
3530.0 8.3778e-06
3550.0 8.8498e-06
3570.0 9.3421e-06
3590.0 9.8776e-06
3610.0 1.0429e-05
3630.0 1.0979e-05
3650.0 1.155e-05
3670.0 1.2071e-05
3690.0 1.246e-05
3710.0 1.2684e-05
3730.0 1.2691e-05
3750.0 1.2514e-05
3770.0 1.2445e-05
3790.0 1.2371e-05
3810.0 1.2067e-05
3830.0 1.244e-05
3850.0 1.391e-05
3870.0 1.4716e-05
3890.0 1.4649e-05
3910.0 1.4712e-05
3930.0 1.5099e-05
3950.0 1.5338e-05
3970.0 1.3974e-05
3990.0 1.2024e-05
4010.0 3.6037e-05
4030.0 4.3664e-05
4050.0 5.0058e-05
4070.0 4.3434e-05
4090.0 3.9338e-05
4110.0 3.4712e-05
4130.0 3.1949e-05
4150.0 3.3984e-05
4170.0 3.3476e-05
4190.0 3.5683e-05
4210.0 3.5356e-05
4230.0 3.7397e-05
4250.0 4.4242e-05
4270.0 4.4762e-05
4290.0 4.1248e-05
4310.0 4.2859e-05
4330.0 4.559e-05
4350.0 5.1117e-05
4370.0 5.8172e-05
4390.0 5.4588e-05
4410.0 4.0331e-05
4430.0 3.4143e-05
4450.0 3.1374e-05
4470.0 2.408e-05
4490.0 2.5986e-05
4510.0 3.9252e-05
4530.0 4.5269e-05
4550.0 4.5662e-05
4570.0 5.1381e-05
4590.0 5.8528e-05
4610.0 7.894e-05
4630.0 0.00010253
4650.0 0.00011119
4670.0 0.00010297
4690.0 9.8254e-05
4710.0 0.00010386
4730.0 9.8016e-05
4750.0 7.3279e-05
4770.0 5.3753e-05
4790.0 5.0195e-05
4810.0 4.7844e-05
4830.0 4.38e-05
4850.0 4.8063e-05
4870.0 6.3496e-05
4890.0 7.488e-05
4910.0 6.5698e-05
4930.0 5.8133e-05
4950.0 6.3868e-05
4970.0 8.1907e-05
4990.0 0.000111
5010.0 0.00012769
5030.0 0.0001126
5050.0 7.6179e-05
5070.0 5.0205e-05
5090.0 4.0483e-05
5110.0 4.1633e-05
5130.0 4.8051e-05
5150.0 5.2059e-05
5170.0 5.1278e-05
5190.0 4.7916e-05
5210.0 5.0083e-05
5230.0 5.2649e-05
5250.0 5.6741e-05
5270.0 6.122e-05
5290.0 6.7845e-05
5310.0 7.8969e-05
5330.0 8.739e-05
5350.0 8.6832e-05
5370.0 9.1209e-05
5390.0 0.00010466
5410.0 0.00010457
5430.0 9.2478e-05
5450.0 8.4966e-05
5470.0 9.0219e-05
5490.0 0.00011022
5510.0 0.00013782
5530.0 0.00015807
5550.0 0.00015278
5570.0 0.00013889
5590.0 0.00012076
5610.0 0.00011137
5630.0 0.000108
5650.0 0.00010286
5670.0 9.7464e-05
5690.0 8.7133e-05
5710.0 8.4956e-05
5730.0 7.8258e-05
5750.0 5.5176e-05
5770.0 4.3047e-05
5790.0 4.8781e-05
5810.0 5.5083e-05
5830.0 6.7595e-05
5850.0 8.0464e-05
5870.0 8.9276e-05
5890.0 9.0789e-05
5910.0 8.907e-05
5930.0 8.4785e-05
5950.0 8.6395e-05
5970.0 9.8481e-05
5990.0 9.2598e-05
6010.0 7.7625e-05
6030.0 6.5581e-05
6050.0 5.7113e-05
6070.0 5.6801e-05
6090.0 6.1591e-05
6110.0 6.8869e-05
6130.0 6.9924e-05
6150.0 6.0163e-05
6170.0 5.2925e-05
6190.0 5.956e-05
6210.0 7.8737e-05
6230.0 0.00010333
6250.0 0.00011192
6270.0 9.7799e-05
6290.0 8.2284e-05
6310.0 6.4237e-05
6330.0 4.9218e-05
6350.0 4.3901e-05
6370.0 4.6166e-05
6390.0 5.3371e-05
6410.0 6.5809e-05
6430.0 7.6847e-05
6450.0 8.7932e-05
6470.0 0.00010068
6490.0 0.00012162
6510.0 0.00013599
6530.0 0.00013341
6550.0 0.00012064
6570.0 0.00010241
6590.0 9.2348e-05
6610.0 7.9628e-05
6630.0 7.2139e-05
6650.0 6.8193e-05
6670.0 6.6248e-05
6690.0 5.9858e-05
6710.0 5.4412e-05
6730.0 3.9192e-05
6750.0 3.8855e-05
6770.0 4.2233e-05
6790.0 4.8543e-05
6810.0 4.4418e-05
6830.0 4.5738e-05
6850.0 4.278e-05
6870.0 3.9079e-05
6890.0 3.7522e-05
6910.0 3.9985e-05
6930.0 3.7451e-05
6950.0 3.8531e-05
6970.0 4.0528e-05
6990.0 4.6002e-05
7010.0 4.6394e-05
7030.0 4.7131e-05
7050.0 4.4947e-05
7070.0 4.2827e-05
7090.0 4.2952e-05
7110.0 4.4194e-05
7130.0 4.756e-05
7150.0 5.0513e-05
7170.0 5.5737e-05
7190.0 6.1271e-05
7210.0 6.0207e-05
7230.0 6.1894e-05
7250.0 6.6514e-05
7270.0 7.2484e-05
7290.0 8.6032e-05
7310.0 9.3353e-05
7330.0 9.0233e-05
7350.0 8.161e-05
7370.0 7.1008e-05
7390.0 6.8887e-05
7410.0 7.3206e-05
7430.0 8.1359e-05
7450.0 8.8615e-05
7470.0 8.7801e-05
7490.0 8.0057e-05
7510.0 9.0685e-05
7530.0 8.9692e-05
7550.0 8.0617e-05
7570.0 6.2977e-05
7590.0 4.3294e-05
7610.0 3.716e-05
7630.0 4.222e-05
7650.0 4.992e-05
7670.0 6.2129e-05
7690.0 6.8368e-05
7710.0 7.1248e-05
7730.0 7.4872e-05
7750.0 8.4053e-05
7770.0 8.5374e-05
7790.0 7.842e-05
7810.0 7.1554e-05
7830.0 7.3788e-05
7850.0 7.1728e-05
7870.0 6.5763e-05
7890.0 5.5254e-05
7910.0 4.4914e-05
7930.0 4.2886e-05
7950.0 3.907e-05
7970.0 3.6166e-05
7990.0 3.596e-05
8010.0 2.6633e-06
8030.0 2.6287e-06
8050.0 2.5932e-06
8070.0 2.6272e-06
8090.0 2.8228e-06
8110.0 2.7747e-06
8130.0 2.2888e-06
8150.0 2.229e-06
8170.0 1.92e-06
8190.0 1.8196e-06
8210.0 2.3629e-06
8230.0 2.6308e-06
8250.0 2.3711e-06
8270.0 2.0637e-06
8290.0 2.0118e-06
8310.0 1.5483e-06
8330.0 1.0436e-06
8350.0 7.4062e-07
8370.0 4.6662e-07
8390.0 8.5297e-07
8410.0 9.9394e-07
8430.0 1.2252e-06
8450.0 1.4387e-06
8470.0 1.7882e-06
8490.0 1.7756e-06
8510.0 1.7466e-06
8530.0 1.8228e-06
8550.0 2.4593e-06
8570.0 2.9115e-06
8590.0 3.1415e-06
8610.0 3.9683e-06
8630.0 4.7804e-06
8650.0 5.0008e-06
8670.0 5.3144e-06
8690.0 5.3441e-06
8710.0 4.8399e-06
8730.0 4.5018e-06
8750.0 3.9737e-06
8770.0 3.7705e-06
8790.0 3.7043e-06
8810.0 3.5495e-06
8830.0 2.8384e-06
8850.0 2.0779e-06
8870.0 1.591e-06
8890.0 1.5555e-06
8910.0 1.7826e-06
8930.0 2.0276e-06
8950.0 2.0664e-06
8970.0 2.0762e-06
8990.0 1.8517e-06
9010.0 1.9405e-05
9030.0 1.7583e-05
9050.0 1.7668e-05
9070.0 1.7807e-05
9090.0 1.793e-05
9110.0 1.8081e-05
9130.0 1.8197e-05
9150.0 1.8288e-05
9170.0 1.8385e-05
9190.0 1.8488e-05
9210.0 1.8596e-05
9230.0 1.8711e-05
9250.0 1.8827e-05
9270.0 1.8948e-05
9290.0 1.9073e-05
9310.0 1.9198e-05
9330.0 1.9326e-05
9350.0 1.9458e-05
9370.0 1.9592e-05
9390.0 1.9727e-05
9410.0 1.9867e-05
9430.0 2.001e-05
9450.0 2.0153e-05
9470.0 2.0299e-05
9490.0 2.0449e-05
9510.0 2.0601e-05
9530.0 2.0753e-05
9550.0 2.0911e-05
9570.0 2.1072e-05
9590.0 2.1233e-05
9610.0 2.1397e-05
9630.0 2.1565e-05
9650.0 2.1735e-05
9670.0 2.1905e-05
9690.0 2.208e-05
9710.0 2.2257e-05
9730.0 2.2435e-05
9750.0 2.2615e-05
9770.0 2.2801e-05
9790.0 2.2986e-05
9810.0 2.3172e-05
9830.0 2.3362e-05
9850.0 2.3555e-05
9870.0 2.3747e-05
9890.0 2.3942e-05
9910.0 2.4141e-05
9930.0 2.434e-05
9950.0 2.4539e-05
9970.0 2.4743e-05
9990.0 2.4949e-05
10010.0 2.1649e-05
10030.0 2.1826e-05
10050.0 2.2008e-05
10070.0 2.2195e-05
10090.0 2.2372e-05
10110.0 2.2553e-05
10130.0 2.2735e-05
10150.0 2.2916e-05
10170.0 2.31e-05
10190.0 2.3287e-05
10210.0 2.3471e-05
10230.0 2.3655e-05
10250.0 2.3842e-05
10270.0 2.4029e-05
10290.0 2.4213e-05
10310.0 2.44e-05
10330.0 2.4588e-05
10350.0 2.4774e-05
10370.0 2.4959e-05
10390.0 2.5146e-05
10410.0 2.5332e-05
10430.0 2.5514e-05
10450.0 2.5698e-05
10470.0 2.5883e-05
10490.0 2.6065e-05
10510.0 2.6245e-05
10530.0 2.6428e-05
10550.0 2.6608e-05
10570.0 2.6785e-05
10590.0 2.6962e-05
10610.0 2.714e-05
10630.0 2.7313e-05
10650.0 2.7484e-05
10670.0 2.7658e-05
10690.0 2.7827e-05
10710.0 2.7994e-05
10730.0 2.816e-05
10750.0 2.8327e-05
10770.0 2.8487e-05
10790.0 2.8646e-05
10810.0 2.8805e-05
10830.0 2.8958e-05
10850.0 2.9104e-05
10870.0 2.9245e-05
10890.0 2.937e-05
10910.0 2.9466e-05
10930.0 2.952e-05
10950.0 2.9507e-05
10970.0 2.9407e-05
10990.0 2.9211e-05
11010.0 2.8883e-05
11030.0 2.8423e-05
11050.0 2.7863e-05
11070.0 2.7194e-05
11090.0 2.6389e-05
11110.0 2.5557e-05
11130.0 2.4689e-05
11150.0 2.3754e-05
11170.0 2.2791e-05
11190.0 2.1856e-05
11210.0 2.0891e-05
11230.0 1.9901e-05
11250.0 1.8956e-05
11270.0 1.8047e-05
11290.0 1.7138e-05
11310.0 1.6276e-05
11330.0 1.5517e-05
11350.0 1.48e-05
11370.0 1.4137e-05
11390.0 1.3564e-05
11410.0 1.3062e-05
11430.0 1.2596e-05
11450.0 1.2195e-05
11470.0 1.1848e-05
11490.0 1.1525e-05
11510.0 1.1213e-05
11530.0 1.0925e-05
11550.0 1.0638e-05
11570.0 1.0331e-05
11590.0 1.0014e-05
11610.0 9.6918e-06
11630.0 9.3405e-06
11650.0 8.9645e-06
11670.0 8.594e-06
11690.0 8.2182e-06
11710.0 7.8305e-06
11730.0 7.4548e-06
11750.0 7.1072e-06
11770.0 6.7662e-06
11790.0 6.4467e-06
11810.0 6.1654e-06
11830.0 5.9138e-06
11850.0 5.6821e-06
11870.0 5.4883e-06
11890.0 5.3272e-06
11910.0 5.1856e-06
11930.0 5.0639e-06
11950.0 4.9626e-06
11970.0 4.872e-06
11990.0 4.7865e-06
12010.0 4.7073e-06
12030.0 4.631e-06
12050.0 4.5521e-06
12070.0 4.4701e-06
12090.0 4.391e-06
12110.0 4.3107e-06
12130.0 4.2302e-06
12150.0 4.1561e-06
12170.0 4.0913e-06
12190.0 4.0353e-06
12210.0 3.9963e-06
12230.0 3.9774e-06
12250.0 3.9804e-06
12270.0 4.0104e-06
12290.0 4.0672e-06
12310.0 4.1485e-06
12330.0 4.2624e-06
12350.0 4.4045e-06
12370.0 4.5663e-06
12390.0 4.7529e-06
12410.0 4.9715e-06
12430.0 5.1936e-06
12450.0 5.4237e-06
12470.0 5.6683e-06
12490.0 5.914e-06
12510.0 6.1445e-06
12530.0 6.3739e-06
12550.0 6.5951e-06
12570.0 6.7903e-06
12590.0 6.9618e-06
12610.0 7.1146e-06
12630.0 7.2363e-06
12650.0 7.3204e-06
12670.0 7.3756e-06
12690.0 7.3978e-06
12710.0 7.3856e-06
12730.0 7.3427e-06
12750.0 7.2664e-06
12770.0 7.1615e-06
12790.0 7.0344e-06
12810.0 6.8827e-06
12830.0 6.707e-06
12850.0 6.5234e-06
12870.0 6.3292e-06
12890.0 6.1191e-06
12910.0 5.9055e-06
12930.0 5.695e-06
12950.0 5.4753e-06
12970.0 5.2517e-06
12990.0 5.0402e-06
13010.0 4.8313e-06
13030.0 4.62e-06
13050.0 4.4171e-06
13070.0 4.2271e-06
13090.0 4.0363e-06
13110.0 3.8518e-06
13130.0 3.6817e-06
13150.0 3.5205e-06
13170.0 3.3628e-06
13190.0 3.2224e-06
13210.0 3.0989e-06
13230.0 2.9859e-06
13250.0 2.8887e-06
13270.0 2.812e-06
13290.0 2.7523e-06
13310.0 2.7112e-06
13330.0 2.6925e-06
13350.0 2.6947e-06
13370.0 2.7188e-06
13390.0 2.7663e-06
13410.0 2.8305e-06
13430.0 2.9139e-06
13450.0 3.0169e-06
13470.0 3.1313e-06
13490.0 3.2524e-06
13510.0 3.389e-06
13530.0 3.5275e-06
13550.0 3.6601e-06
13570.0 3.7908e-06
13590.0 3.9182e-06
13610.0 4.0316e-06
13630.0 4.1305e-06
13650.0 4.2208e-06
13670.0 4.2958e-06
13690.0 4.3538e-06
13710.0 4.3986e-06
13730.0 4.4307e-06
13750.0 4.4467e-06
13770.0 4.4503e-06
13790.0 4.4422e-06
13810.0 4.4226e-06
13830.0 4.3936e-06
13850.0 4.3544e-06
13870.0 4.3049e-06
13890.0 4.2482e-06
13910.0 4.1844e-06
13930.0 4.1106e-06
13950.0 4.0299e-06
13970.0 3.9475e-06
13990.0 3.8577e-06
14010.0 3.7622e-06
14030.0 3.6669e-06
14050.0 3.571e-06
14070.0 3.4696e-06
14090.0 3.3725e-06
14110.0 3.2813e-06
14130.0 3.1928e-06
14150.0 3.1096e-06
14170.0 3.0385e-06
14190.0 2.9771e-06
14210.0 2.9249e-06
14230.0 2.8863e-06
14250.0 2.8614e-06
14270.0 2.8493e-06
14290.0 2.8519e-06
14310.0 2.8678e-06
14330.0 2.8963e-06
14350.0 2.9383e-06
14370.0 2.9906e-06
14390.0 3.0501e-06
14410.0 3.1201e-06
14430.0 3.197e-06
14450.0 3.2755e-06
14470.0 3.3569e-06
14490.0 3.4435e-06
14510.0 3.5264e-06
14530.0 3.605e-06
14550.0 3.6837e-06
14570.0 3.7592e-06
14590.0 3.8279e-06
14610.0 3.8943e-06
14630.0 3.9601e-06
14650.0 4.0214e-06
14670.0 4.0805e-06
14690.0 4.1422e-06
14710.0 4.2071e-06
14730.0 4.2719e-06
14750.0 4.3438e-06
14770.0 4.4253e-06
14790.0 4.5136e-06
14810.0 4.6094e-06
14830.0 4.7228e-06
14850.0 4.8461e-06
14870.0 4.9747e-06
14890.0 5.1135e-06
14910.0 5.2608e-06
14930.0 5.4025e-06
14950.0 5.535e-06
14970.0 5.6603e-06
14990.0 5.7654e-06
15010.0 5.8458e-06
15030.0 5.9054e-06
15050.0 5.9448e-06
15070.0 5.964e-06
15090.0 5.9707e-06
15110.0 5.9688e-06
15130.0 5.9613e-06
15150.0 5.9512e-06
15170.0 5.9393e-06
15190.0 5.9265e-06
15210.0 5.9139e-06
15230.0 5.9013e-06
15250.0 5.8883e-06
15270.0 5.8754e-06
15290.0 5.8632e-06
15310.0 5.8507e-06
15330.0 5.838e-06
15350.0 5.8258e-06
15370.0 5.8138e-06
15390.0 5.8011e-06
15410.0 5.7888e-06
15430.0 5.7769e-06
15450.0 5.7648e-06
15470.0 5.7524e-06
15490.0 5.7407e-06
15510.0 5.729e-06
15530.0 5.7169e-06
15550.0 5.7051e-06
15570.0 5.6936e-06
15590.0 5.6817e-06
15610.0 5.6696e-06
15630.0 5.6582e-06
15650.0 5.6468e-06
15670.0 5.6349e-06
15690.0 5.6234e-06
15710.0 5.6123e-06
15730.0 5.6007e-06
15750.0 5.5891e-06
15770.0 5.5779e-06
15790.0 5.5666e-06
15810.0 5.5548e-06
15830.0 5.5435e-06
15850.0 5.5326e-06
15870.0 5.5212e-06
15890.0 5.5098e-06
15910.0 5.4989e-06
15930.0 5.4878e-06
15950.0 5.4762e-06
15970.0 5.4651e-06
15990.0 5.4541e-06
16010.0 5.4428e-06
16030.0 5.4313e-06
16050.0 5.4206e-06
16070.0 5.4096e-06
16090.0 5.3982e-06
16110.0 5.3872e-06
16130.0 5.3765e-06
16150.0 5.365e-06
16170.0 5.3537e-06
16190.0 5.3429e-06
16210.0 5.3318e-06
16230.0 5.3204e-06
16250.0 5.3095e-06
16270.0 5.2987e-06
16290.0 5.2873e-06
16310.0 5.2761e-06
16330.0 5.2653e-06
16350.0 5.2542e-06
16370.0 5.2425e-06
16390.0 5.2316e-06
16410.0 5.2207e-06
16430.0 5.2093e-06
16450.0 5.1981e-06
16470.0 5.1873e-06
16490.0 5.176e-06
16510.0 5.1645e-06
16530.0 5.1534e-06
16550.0 5.1424e-06
16570.0 5.1308e-06
16590.0 5.1193e-06
16610.0 5.1084e-06
16630.0 5.0971e-06
16650.0 5.0855e-06
16670.0 5.0744e-06
16690.0 5.0633e-06
16710.0 5.0514e-06
16730.0 5.0399e-06
16750.0 5.0288e-06
16770.0 5.0172e-06
16790.0 5.0054e-06
16810.0 4.9942e-06
16830.0 4.9828e-06
16850.0 4.971e-06
16870.0 4.9594e-06
16890.0 4.9481e-06
16910.0 4.9362e-06
16930.0 4.9242e-06
16950.0 4.9128e-06
16970.0 4.9011e-06
16990.0 4.8891e-06
17010.0 4.8774e-06
17030.0 4.8659e-06
17050.0 4.8539e-06
17070.0 4.8418e-06
17090.0 4.8301e-06
17110.0 4.8183e-06
17130.0 4.8058e-06
17150.0 4.7939e-06
17170.0 4.7822e-06
17190.0 4.77e-06
17210.0 4.7577e-06
17230.0 4.746e-06
17250.0 4.7339e-06
17270.0 4.7213e-06
17290.0 4.7091e-06
17310.0 4.6971e-06
17330.0 4.6846e-06
17350.0 4.672e-06
17370.0 4.6601e-06
17390.0 4.6478e-06
17410.0 4.6351e-06
17430.0 4.6228e-06
17450.0 4.6107e-06
17470.0 4.5977e-06
17490.0 4.585e-06
17510.0 4.5728e-06
17530.0 4.5602e-06
17550.0 4.5473e-06
17570.0 4.5348e-06
17590.0 4.5224e-06
17610.0 4.5095e-06
17630.0 4.4966e-06
17650.0 4.4842e-06
17670.0 4.4714e-06
17690.0 4.4579e-06
17710.0 4.4454e-06
17730.0 4.4327e-06
17750.0 4.4196e-06
17770.0 4.4066e-06
17790.0 4.3941e-06
17810.0 4.3809e-06
17830.0 4.3676e-06
17850.0 4.3547e-06
17870.0 4.3418e-06
17890.0 4.3284e-06
17910.0 4.3151e-06
17930.0 4.3024e-06
17950.0 4.2891e-06
17970.0 4.2757e-06
17990.0 4.2628e-06
18010.0 4.2498e-06
18030.0 4.236e-06
18050.0 4.2227e-06
18070.0 4.2097e-06
18090.0 4.1962e-06
18110.0 4.1825e-06
18130.0 4.1695e-06
18150.0 4.1563e-06
18170.0 4.1426e-06
18190.0 4.1292e-06
18210.0 4.116e-06
18230.0 4.1023e-06
18250.0 4.0884e-06
18270.0 4.0752e-06
18290.0 4.0618e-06
18310.0 4.048e-06
18330.0 4.0345e-06
18350.0 4.0213e-06
18370.0 4.0074e-06
18390.0 3.9936e-06
18410.0 3.9803e-06
18430.0 3.9667e-06
18450.0 3.9525e-06
18470.0 3.939e-06
18490.0 3.9256e-06
18510.0 3.9117e-06
18530.0 3.8979e-06
18550.0 3.8846e-06
18570.0 3.8708e-06
18590.0 3.8567e-06
18610.0 3.843e-06
18630.0 3.8295e-06
18650.0 3.8154e-06
18670.0 3.8014e-06
18690.0 3.788e-06
18710.0 3.7743e-06
18730.0 3.7602e-06
18750.0 3.7465e-06
18770.0 3.733e-06
18790.0 3.7187e-06
18810.0 3.7047e-06
18830.0 3.6912e-06
18850.0 3.6773e-06
18870.0 3.6631e-06
18890.0 3.6495e-06
18910.0 3.6359e-06
18930.0 3.6217e-06
18950.0 3.6078e-06
18970.0 3.5942e-06
18990.0 3.5803e-06
19010.0 3.5658e-06
19030.0 3.5522e-06
19050.0 3.5385e-06
19070.0 3.5244e-06
19090.0 3.5105e-06
19110.0 3.497e-06
19130.0 3.4829e-06
19150.0 3.4687e-06
19170.0 3.455e-06
19190.0 3.4412e-06
19210.0 3.427e-06
19230.0 3.413e-06
19250.0 3.3995e-06
19270.0 3.3855e-06
19290.0 3.3714e-06
19310.0 3.3578e-06
19330.0 3.3441e-06
19350.0 3.3297e-06
19370.0 3.3158e-06
19390.0 3.3022e-06
19410.0 3.2882e-06
19430.0 3.274e-06
19450.0 3.2605e-06
19470.0 3.2467e-06
19490.0 3.2326e-06
19510.0 3.2188e-06
19530.0 3.2052e-06
19550.0 3.1911e-06
19570.0 3.1769e-06
19590.0 3.1634e-06
19610.0 3.1496e-06
19630.0 3.1355e-06
19650.0 3.1218e-06
19670.0 3.1084e-06
19690.0 3.0943e-06
19710.0 3.0803e-06
19730.0 3.0668e-06
19750.0 3.053e-06
19770.0 3.0387e-06
19790.0 3.0251e-06
19810.0 3.0116e-06
19830.0 2.9976e-06
19850.0 2.9835e-06
19870.0 2.9697e-06
19890.0 2.9549e-06
19910.0 2.9386e-06
19930.0 2.9211e-06
19950.0 2.9012e-06
19970.0 2.8766e-06
19990.0 2.8471e-06
20010.0 2.533e-06
20030.0 2.4964e-06
20050.0 2.4535e-06
20070.0 2.407e-06
20090.0 2.357e-06
20110.0 2.3004e-06
20130.0 2.2431e-06
20150.0 2.1864e-06
20170.0 2.1275e-06
20190.0 2.0679e-06
20210.0 2.0115e-06
20230.0 1.9565e-06
20250.0 1.9014e-06
20270.0 1.8503e-06
20290.0 1.8036e-06
20310.0 1.7592e-06
20330.0 1.7177e-06
20350.0 1.6833e-06
20370.0 1.6528e-06
20390.0 1.626e-06
20410.0 1.6044e-06
20430.0 1.5877e-06
20450.0 1.5745e-06
20470.0 1.5656e-06
20490.0 1.5608e-06
20510.0 1.5595e-06
20530.0 1.5614e-06
20550.0 1.5662e-06
20570.0 1.5732e-06
20590.0 1.5827e-06
20610.0 1.5942e-06
20630.0 1.6069e-06
20650.0 1.6211e-06
20670.0 1.6373e-06
20690.0 1.6538e-06
20710.0 1.6708e-06
20730.0 1.6893e-06
20750.0 1.7085e-06
20770.0 1.7274e-06
20790.0 1.7472e-06
20810.0 1.7682e-06
20830.0 1.7891e-06
20850.0 1.8101e-06
20870.0 1.8326e-06
20890.0 1.8555e-06
20910.0 1.8776e-06
20930.0 1.9006e-06
20950.0 1.9243e-06
20970.0 1.9475e-06
20990.0 1.9704e-06
21010.0 1.9944e-06
21030.0 2.0179e-06
21050.0 2.0403e-06
21070.0 2.0627e-06
21090.0 2.0852e-06
21110.0 2.1057e-06
21130.0 2.1249e-06
21150.0 2.1435e-06
21170.0 2.1604e-06
21190.0 2.175e-06
21210.0 2.188e-06
21230.0 2.1989e-06
21250.0 2.2066e-06
21270.0 2.2115e-06
21290.0 2.2134e-06
21310.0 2.2116e-06
21330.0 2.2064e-06
21350.0 2.1972e-06
21370.0 2.1838e-06
21390.0 2.1667e-06
21410.0 2.1457e-06
21430.0 2.1192e-06
21450.0 2.0895e-06
21470.0 2.057e-06
21490.0 2.0204e-06
21510.0 1.9801e-06
21530.0 1.9393e-06
21550.0 1.8965e-06
21570.0 1.8508e-06
21590.0 1.8059e-06
21610.0 1.7625e-06
21630.0 1.7191e-06
21650.0 1.6767e-06
21670.0 1.6399e-06
21690.0 1.606e-06
21710.0 1.5754e-06
21730.0 1.5504e-06
21750.0 1.5311e-06
21770.0 1.5164e-06
21790.0 1.5079e-06
21810.0 1.5056e-06
21830.0 1.5089e-06
21850.0 1.5183e-06
21870.0 1.533e-06
21890.0 1.552e-06
21910.0 1.5764e-06
21930.0 1.605e-06
21950.0 1.636e-06
21970.0 1.6703e-06
21990.0 1.7088e-06
22010.0 1.7473e-06
22030.0 1.7863e-06
22050.0 1.8274e-06
22070.0 1.8687e-06
22090.0 1.9077e-06
22110.0 1.9471e-06
22130.0 1.9865e-06
22150.0 2.0232e-06
22170.0 2.0578e-06
22190.0 2.0921e-06
22210.0 2.1241e-06
22230.0 2.1522e-06
22250.0 2.1786e-06
22270.0 2.203e-06
22290.0 2.2238e-06
22310.0 2.2417e-06
22330.0 2.2575e-06
22350.0 2.2696e-06
22370.0 2.2782e-06
22390.0 2.2836e-06
22410.0 2.2853e-06
22430.0 2.2831e-06
22450.0 2.2772e-06
22470.0 2.2671e-06
22490.0 2.2528e-06
22510.0 2.235e-06
22530.0 2.2122e-06
22550.0 2.1845e-06
22570.0 2.1538e-06
22590.0 2.1192e-06
22610.0 2.0793e-06
