#lamb flux
1010.0 6.3702e-06
1030.0 6.998e-06
1050.0 7.72e-06
1070.0 8.5328e-06
1090.0 9.4559e-06
1110.0 1.0403e-05
1130.0 1.1356e-05
1150.0 1.2354e-05
1170.0 1.3384e-05
1190.0 1.436e-05
1210.0 1.535e-05
1230.0 1.6372e-05
1250.0 1.7374e-05
1270.0 1.8347e-05
1290.0 1.9375e-05
1310.0 2.0402e-05
1330.0 2.1387e-05
1350.0 2.2383e-05
1370.0 2.3412e-05
1390.0 2.4414e-05
1410.0 2.5387e-05
1430.0 2.6404e-05
1450.0 2.7421e-05
1470.0 2.8403e-05
1490.0 2.9396e-05
1510.0 3.0444e-05
1530.0 3.1438e-05
1550.0 3.2418e-05
1570.0 3.3431e-05
1590.0 3.4445e-05
1610.0 3.5413e-05
1630.0 3.6411e-05
1650.0 3.7435e-05
1670.0 3.8425e-05
1690.0 3.9401e-05
1710.0 4.0414e-05
1730.0 4.1432e-05
1750.0 4.2387e-05
1770.0 4.337e-05
1790.0 4.437e-05
1810.0 4.5337e-05
1830.0 4.6283e-05
1850.0 4.7287e-05
1870.0 4.826e-05
1890.0 4.9196e-05
1910.0 5.0148e-05
1930.0 5.1118e-05
1950.0 5.2037e-05
1970.0 5.2937e-05
1990.0 5.3867e-05
2010.0 5.4772e-05
2030.0 5.5632e-05
2050.0 5.6512e-05
2070.0 5.7404e-05
2090.0 5.8226e-05
2110.0 5.9032e-05
2130.0 5.9851e-05
2150.0 6.0635e-05
2170.0 6.1359e-05
2190.0 6.2098e-05
2210.0 6.2822e-05
2230.0 6.3485e-05
2250.0 6.4119e-05
2270.0 6.4769e-05
2290.0 6.5362e-05
2310.0 6.5888e-05
2330.0 6.6414e-05
2350.0 6.6917e-05
2370.0 6.7354e-05
2390.0 6.7776e-05
2410.0 6.8227e-05
2430.0 6.865e-05
2450.0 6.9075e-05
2470.0 6.959e-05
2490.0 7.0263e-05
2510.0 7.1108e-05
2530.0 7.245e-05
2550.0 7.478e-05
2570.0 7.8545e-05
2590.0 8.4264e-05
2610.0 9.34e-05
2630.0 0.00010612
2650.0 0.00012153
2670.0 0.00013967
2690.0 0.00015966
2710.0 0.00017856
2730.0 0.00019508
2750.0 0.00020952
2770.0 0.0002205
2790.0 0.00022807
2810.0 0.00023347
2830.0 0.00023758
2850.0 0.0002403
2870.0 0.0002425
2890.0 0.00024468
2910.0 0.00024675
2930.0 0.00024852
2950.0 0.00025044
2970.0 0.00025243
2990.0 0.00025418
3010.0 0.0025305
3030.0 0.002548
3050.0 0.0025643
3070.0 0.0025756
3090.0 0.0025845
3110.0 0.0025873
3130.0 0.0025793
3150.0 0.0025591
3170.0 0.0025244
3190.0 0.0024758
3210.0 0.0024197
3230.0 0.002362
3250.0 0.0023063
3270.0 0.0022772
3290.0 0.0022615
3310.0 0.0022914
3330.0 0.0023413
3350.0 0.002412
3370.0 0.0025054
3390.0 0.0026175
3410.0 0.0027343
3430.0 0.0028602
3450.0 0.0029975
3470.0 0.0031386
3490.0 0.0032802
3510.0 0.0034303
3530.0 0.003584
3550.0 0.0037454
3570.0 0.00392
3590.0 0.0041029
3610.0 0.0043083
3630.0 0.0044914
3650.0 0.0046749
3670.0 0.0048221
3690.0 0.0049287
3710.0 0.0049913
3730.0 0.0049874
3750.0 0.0049868
3770.0 0.0050141
3790.0 0.0051613
3810.0 0.0054694
3830.0 0.0058821
3850.0 0.006473
3870.0 0.0072626
3890.0 0.008153
3910.0 0.0090597
3930.0 0.009799
3950.0 0.01026
3970.0 0.0091456
3990.0 0.0071069
4010.0 0.0068553
4030.0 0.0083198
4050.0 0.0096657
4070.0 0.0085331
4090.0 0.0059139
4110.0 0.0061545
4130.0 0.0077725
4150.0 0.0085618
4170.0 0.0076029
4190.0 0.0068094
4210.0 0.0082023
4230.0 0.0089021
4250.0 0.0087056
4270.0 0.0088608
4290.0 0.0083108
4310.0 0.0089546
4330.0 0.010241
4350.0 0.012019
4370.0 0.012458
4390.0 0.011905
4410.0 0.010245
4430.0 0.0083695
4450.0 0.0065351
4470.0 0.0066708
4490.0 0.0074486
4510.0 0.0096742
4530.0 0.010248
4550.0 0.010364
4570.0 0.011954
4590.0 0.015356
4610.0 0.021131
4630.0 0.025423
4650.0 0.025344
4670.0 0.025997
4690.0 0.028498
4710.0 0.028087
4730.0 0.022475
4750.0 0.016187
4770.0 0.013504
4790.0 0.012433
4810.0 0.011504
4830.0 0.012142
4850.0 0.014113
4870.0 0.017512
4890.0 0.018526
4910.0 0.015977
4930.0 0.016012
4950.0 0.019782
4970.0 0.025684
4990.0 0.030018
5010.0 0.030013
5030.0 0.024723
5050.0 0.017312
5070.0 0.012738
5090.0 0.011101
5110.0 0.011316
5130.0 0.012386
5150.0 0.01195
5170.0 0.01196
5190.0 0.011799
5210.0 0.011829
5230.0 0.012624
5250.0 0.013092
5270.0 0.014669
5290.0 0.017569
5310.0 0.019294
5330.0 0.020117
5350.0 0.021059
5370.0 0.022816
5390.0 0.023445
5410.0 0.021279
5430.0 0.019034
5450.0 0.019137
5470.0 0.022999
5490.0 0.029804
5510.0 0.035937
5530.0 0.038111
5550.0 0.036785
5570.0 0.034279
5590.0 0.031678
5610.0 0.030331
5630.0 0.030721
5650.0 0.031493
5670.0 0.030591
5690.0 0.029073
5710.0 0.02813
5730.0 0.024643
5750.0 0.019034
5770.0 0.017283
5790.0 0.019509
5810.0 0.02213
5830.0 0.024781
5850.0 0.025869
5870.0 0.025306
5890.0 0.023461
5910.0 0.022101
5930.0 0.022457
5950.0 0.023875
5970.0 0.024282
5990.0 0.021673
6010.0 0.017584
6030.0 0.014126
6050.0 0.012836
6070.0 0.013807
6090.0 0.015573
6110.0 0.015731
6130.0 0.014527
6150.0 0.014309
6170.0 0.015974
6190.0 0.019024
6210.0 0.022925
6230.0 0.025598
6250.0 0.024625
6270.0 0.021636
6290.0 0.017881
6310.0 0.014107
6330.0 0.011814
6350.0 0.011572
6370.0 0.012752
6390.0 0.014177
6410.0 0.016469
6430.0 0.019946
6450.0 0.024539
6470.0 0.029518
6490.0 0.033988
6510.0 0.035802
6530.0 0.03426
6550.0 0.0329
6570.0 0.032973
6590.0 0.032448
6610.0 0.030416
6630.0 0.028534
6650.0 0.026891
6670.0 0.026856
6690.0 0.026191
6710.0 0.02362
6730.0 0.020568
6750.0 0.018569
6770.0 0.019365
6790.0 0.020688
6810.0 0.022146
6830.0 0.02257
6850.0 0.021456
6870.0 0.020619
6890.0 0.020145
6910.0 0.019073
6930.0 0.018242
6950.0 0.018475
6970.0 0.019052
6990.0 0.020439
7010.0 0.021925
7030.0 0.021329
7050.0 0.019359
7070.0 0.017056
7090.0 0.014423
7110.0 0.01306
7130.0 0.013853
7150.0 0.014934
7170.0 0.015013
7190.0 0.014583
7210.0 0.014524
7230.0 0.016409
7250.0 0.018987
7270.0 0.02078
7290.0 0.021118
7310.0 0.019789
7330.0 0.017968
7350.0 0.016561
7370.0 0.015962
7390.0 0.016041
7410.0 0.017046
7430.0 0.019354
7450.0 0.021664
7470.0 0.024384
7490.0 0.027193
7510.0 0.025233
7530.0 0.022103
7550.0 0.01882
7570.0 0.015769
7590.0 0.012894
7610.0 0.012406
7630.0 0.013276
7650.0 0.014873
7670.0 0.017013
7690.0 0.018767
7710.0 0.021054
7730.0 0.022284
7750.0 0.023122
7770.0 0.023933
7790.0 0.023939
7810.0 0.023856
7830.0 0.023001
7850.0 0.022312
7870.0 0.021402
7890.0 0.019573
7910.0 0.017716
7930.0 0.015875
7950.0 0.013958
7970.0 0.013357
7990.0 0.013913
8010.0 0.015602
8030.0 0.015744
8050.0 0.01621
8070.0 0.016012
8090.0 0.016005
8110.0 0.015559
8130.0 0.014609
8150.0 0.013644
8170.0 0.01353
8190.0 0.01374
8210.0 0.013897
8230.0 0.013287
8250.0 0.012601
8270.0 0.011104
8290.0 0.009018
8310.0 0.0069338
8330.0 0.0048499
8350.0 0.0035825
8370.0 0.0034211
8390.0 0.0039307
8410.0 0.0047728
8430.0 0.005932
8450.0 0.0065514
8470.0 0.0069844
8490.0 0.0075419
8510.0 0.0080405
8530.0 0.0089065
8550.0 0.010503
8570.0 0.012136
8590.0 0.01353
8610.0 0.015669
8630.0 0.018162
8650.0 0.019308
8670.0 0.019521
8690.0 0.019239
8710.0 0.018478
8730.0 0.017728
8750.0 0.016771
8770.0 0.016428
8790.0 0.015844
8810.0 0.014682
8830.0 0.013695
8850.0 0.01185
8870.0 0.010735
8890.0 0.0099464
8910.0 0.010776
8930.0 0.010341
8950.0 0.010559
8970.0 0.010732
8990.0 0.010735
9010.0 0.010869
9030.0 0.010563
9050.0 0.010542
9070.0 0.010552
9090.0 0.010562
9110.0 0.010574
9130.0 0.010585
9150.0 0.010597
9170.0 0.010598
9190.0 0.010583
9210.0 0.010675
9230.0 0.010672
9250.0 0.01068
9270.0 0.010691
9290.0 0.010705
9310.0 0.010721
9330.0 0.010738
9350.0 0.010756
9370.0 0.010776
9390.0 0.010796
9410.0 0.010817
9430.0 0.010839
9450.0 0.010862
9470.0 0.010885
9490.0 0.010909
9510.0 0.010934
9530.0 0.01096
9550.0 0.010986
9570.0 0.011013
9590.0 0.011041
9610.0 0.011069
9630.0 0.011098
9650.0 0.011128
9670.0 0.011159
9690.0 0.01119
9710.0 0.011222
9730.0 0.011254
9750.0 0.011287
9770.0 0.011321
9790.0 0.011356
9810.0 0.011391
9830.0 0.011426
9850.0 0.011462
9870.0 0.011498
9890.0 0.011535
9910.0 0.011573
9930.0 0.01161
9950.0 0.011643
9970.0 0.011683
9990.0 0.011723
10010.0 0.011759
10030.0 0.011799
10050.0 0.011835
10070.0 0.011852
10090.0 0.011899
10110.0 0.011946
10130.0 0.011991
10150.0 0.012034
10170.0 0.012076
10190.0 0.012115
10210.0 0.012155
10230.0 0.012196
10250.0 0.012234
10270.0 0.012273
10290.0 0.012312
10310.0 0.01235
10330.0 0.012386
10350.0 0.012423
10370.0 0.01246
10390.0 0.012496
10410.0 0.012531
10430.0 0.012566
10450.0 0.0126
10470.0 0.012633
10490.0 0.012665
10510.0 0.012697
10530.0 0.012727
10550.0 0.012756
10570.0 0.012786
10590.0 0.012814
10610.0 0.01284
10630.0 0.012866
10650.0 0.012891
10670.0 0.012914
10690.0 0.012936
10710.0 0.012958
10730.0 0.012978
10750.0 0.012995
10770.0 0.013014
10790.0 0.01303
10810.0 0.013044
10830.0 0.013057
10850.0 0.013068
10870.0 0.013073
10890.0 0.013071
10910.0 0.013059
10930.0 0.013029
10950.0 0.012968
10970.0 0.012872
10990.0 0.012737
11010.0 0.01262
11030.0 0.012357
11050.0 0.012055
11070.0 0.01171
11090.0 0.011312
11110.0 0.010916
11130.0 0.010519
11150.0 0.010113
11170.0 0.0097179
11190.0 0.0093598
11210.0 0.0090164
11230.0 0.0086933
11250.0 0.0084124
11270.0 0.0081672
11290.0 0.0079445
11310.0 0.0077533
11330.0 0.0075985
11350.0 0.0074604
11370.0 0.0073359
11390.0 0.0072253
11410.0 0.0071204
11430.0 0.0070084
11450.0 0.0068922
11470.0 0.0067701
11490.0 0.0066337
11510.0 0.0064793
11530.0 0.0063187
11550.0 0.0061485
11570.0 0.0059627
11590.0 0.0057722
11610.0 0.0055849
11630.0 0.0053912
11650.0 0.0051967
11670.0 0.005017
11690.0 0.0048458
11710.0 0.0046795
11730.0 0.0045266
11750.0 0.0043904
11770.0 0.0042604
11790.0 0.0041397
11810.0 0.0040318
11830.0 0.0039315
11850.0 0.0038328
11870.0 0.0037411
11890.0 0.0036545
11910.0 0.0035663
11930.0 0.0034767
11950.0 0.003389
11970.0 0.0032986
11990.0 0.0032025
12010.0 0.0031067
12030.0 0.0030115
12050.0 0.0029134
12070.0 0.0028147
12090.0 0.0027243
12110.0 0.0026373
12130.0 0.002555
12150.0 0.0024832
12170.0 0.0024232
12190.0 0.0023728
12210.0 0.0023373
12230.0 0.0023173
12250.0 0.0023123
12270.0 0.0023238
12290.0 0.0023503
12310.0 0.0023893
12330.0 0.0024437
12350.0 0.0025098
12370.0 0.0025821
12390.0 0.0026621
12410.0 0.0027513
12430.0 0.0028363
12450.0 0.0029188
12470.0 0.0030005
12490.0 0.0030757
12510.0 0.0031392
12530.0 0.0031959
12550.0 0.0032433
12570.0 0.0032774
12590.0 0.0032997
12610.0 0.0033118
12630.0 0.0033118
12650.0 0.0033007
12670.0 0.0032801
12690.0 0.0032502
12710.0 0.0032129
12730.0 0.0031695
12750.0 0.0031183
12770.0 0.0030631
12790.0 0.0030053
12810.0 0.0029435
12830.0 0.0028778
12850.0 0.0028123
12870.0 0.0027453
12890.0 0.0026744
12910.0 0.0026022
12930.0 0.0025301
12950.0 0.0024534
12970.0 0.0023731
12990.0 0.0022942
13010.0 0.0022135
13030.0 0.0021294
13050.0 0.0020462
13070.0 0.0019664
13090.0 0.0018856
13110.0 0.0018073
13130.0 0.0017356
13150.0 0.0016692
13170.0 0.0016067
13190.0 0.0015538
13210.0 0.0015102
13230.0 0.0014739
13250.0 0.0014463
13270.0 0.0014279
13290.0 0.0014172
13310.0 0.0014141
13330.0 0.0014177
13350.0 0.0014266
13370.0 0.0014404
13390.0 0.0014582
13410.0 0.0014766
13430.0 0.0014965
13450.0 0.0015171
13470.0 0.0015363
13490.0 0.0015536
13510.0 0.0015704
13530.0 0.0015846
13550.0 0.001596
13570.0 0.0016056
13590.0 0.0016136
13610.0 0.0016196
13630.0 0.0016239
13650.0 0.0016276
13670.0 0.0016302
13690.0 0.001632
13710.0 0.0016332
13730.0 0.0016341
13750.0 0.0016341
13770.0 0.0016332
13790.0 0.0016315
13810.0 0.0016286
13830.0 0.0016243
13850.0 0.0016185
13870.0 0.0016107
13890.0 0.0016012
13910.0 0.0015899
13930.0 0.0015765
13950.0 0.0015613
13970.0 0.0015454
13990.0 0.0015283
14010.0 0.0015103
14030.0 0.0014928
14050.0 0.0014757
14070.0 0.0014587
14090.0 0.0014433
14110.0 0.0014296
14130.0 0.0014172
14150.0 0.0014063
14170.0 0.0013977
14190.0 0.0013907
14210.0 0.0013853
14230.0 0.0013819
14250.0 0.0013802
14270.0 0.0013805
14290.0 0.0013828
14310.0 0.0013869
14330.0 0.0013929
14350.0 0.001401
14370.0 0.0014109
14390.0 0.0014219
14410.0 0.0014349
14430.0 0.0014493
14450.0 0.0014642
14470.0 0.00148
14490.0 0.0014977
14510.0 0.0015156
14530.0 0.001534
14550.0 0.0015545
14570.0 0.001577
14590.0 0.0016006
14610.0 0.0016274
14630.0 0.0016586
14650.0 0.0016927
14670.0 0.00173
14690.0 0.0017729
14710.0 0.0018209
14730.0 0.0018698
14750.0 0.0019232
14770.0 0.0019808
14790.0 0.0020388
14810.0 0.0020962
14830.0 0.0021569
14850.0 0.002215
14870.0 0.0022681
14890.0 0.0023181
14910.0 0.0023641
14930.0 0.0024024
14950.0 0.0024336
14970.0 0.0024591
14990.0 0.0024772
15010.0 0.0024885
15030.0 0.0024946
15050.0 0.0024961
15070.0 0.0024943
15090.0 0.0024904
15110.0 0.002485
15130.0 0.0024789
15150.0 0.0024726
15170.0 0.002466
15190.0 0.0024591
15210.0 0.0024526
15230.0 0.0024461
15250.0 0.0024393
15270.0 0.0024327
15290.0 0.0024265
15310.0 0.0024201
15330.0 0.0024136
15350.0 0.0024075
15370.0 0.0024014
15390.0 0.0023949
15410.0 0.0023887
15430.0 0.0023827
15450.0 0.0023765
15470.0 0.0023702
15490.0 0.0023643
15510.0 0.0023584
15530.0 0.0023523
15550.0 0.0023463
15570.0 0.0023406
15590.0 0.0023345
15610.0 0.0023284
15630.0 0.0023227
15650.0 0.0023169
15670.0 0.0023109
15690.0 0.002305
15710.0 0.0022994
15730.0 0.0022935
15750.0 0.0022876
15770.0 0.0022819
15790.0 0.0022762
15810.0 0.0022701
15830.0 0.0022643
15850.0 0.0022587
15870.0 0.0022529
15890.0 0.002247
15910.0 0.0022414
15930.0 0.0022357
15950.0 0.0022296
15970.0 0.0022238
15990.0 0.0022182
16010.0 0.0022122
16030.0 0.0022062
16050.0 0.0022006
16070.0 0.0021948
16090.0 0.0021888
16110.0 0.0021829
16130.0 0.0021773
16150.0 0.0021711
16170.0 0.002165
16190.0 0.0021593
16210.0 0.0021533
16230.0 0.0021471
16250.0 0.0021412
16270.0 0.0021354
16290.0 0.0021292
16310.0 0.002123
16330.0 0.0021171
16350.0 0.002111
16370.0 0.0021045
16390.0 0.0020985
16410.0 0.0020924
16430.0 0.002086
16450.0 0.0020797
16470.0 0.0020737
16490.0 0.0020673
16510.0 0.0020608
16530.0 0.0020545
16550.0 0.0020482
16570.0 0.0020416
16590.0 0.002035
16610.0 0.0020288
16630.0 0.0020222
16650.0 0.0020155
16670.0 0.0020091
16690.0 0.0020026
16710.0 0.0019957
16730.0 0.001989
16750.0 0.0019824
16770.0 0.0019756
16790.0 0.0019686
16810.0 0.001962
16830.0 0.0019552
16850.0 0.0019482
16870.0 0.0019412
16890.0 0.0019345
16910.0 0.0019274
16930.0 0.0019201
16950.0 0.0019132
16970.0 0.0019062
16990.0 0.0018989
17010.0 0.0018918
17030.0 0.0018848
17050.0 0.0018774
17070.0 0.0018701
17090.0 0.0018629
17110.0 0.0018556
17130.0 0.001848
17150.0 0.0018406
17170.0 0.0018334
17190.0 0.0018258
17210.0 0.0018182
17230.0 0.0018109
17250.0 0.0018034
17270.0 0.0017956
17290.0 0.001788
17310.0 0.0017805
17330.0 0.0017726
17350.0 0.0017648
17370.0 0.0017573
17390.0 0.0017495
17410.0 0.0017416
17430.0 0.0017338
17450.0 0.0017262
17470.0 0.001718
17490.0 0.00171
17510.0 0.0017022
17530.0 0.0016942
17550.0 0.001686
17570.0 0.0016781
17590.0 0.0016703
17610.0 0.001662
17630.0 0.0016539
17650.0 0.0016459
17670.0 0.0016377
17690.0 0.0016292
17710.0 0.0016212
17730.0 0.0016131
17750.0 0.0016047
17770.0 0.0015964
17790.0 0.0015884
17810.0 0.00158
17830.0 0.0015715
17850.0 0.0015633
17870.0 0.001555
17890.0 0.0015464
17910.0 0.0015379
17930.0 0.0015297
17950.0 0.0015213
17970.0 0.0015127
17990.0 0.0015044
18010.0 0.001496
18030.0 0.0014872
18050.0 0.0014787
18070.0 0.0014703
18090.0 0.0014617
18110.0 0.001453
18130.0 0.0014446
18150.0 0.0014362
18170.0 0.0014274
18190.0 0.0014188
18210.0 0.0014104
18230.0 0.0014016
18250.0 0.0013928
18270.0 0.0013844
18290.0 0.0013758
18310.0 0.001367
18330.0 0.0013584
18350.0 0.0013499
18370.0 0.0013411
18390.0 0.0013323
18410.0 0.0013238
18430.0 0.0013152
18450.0 0.0013062
18470.0 0.0012976
18490.0 0.0012891
18510.0 0.0012803
18530.0 0.0012715
18550.0 0.001263
18570.0 0.0012543
18590.0 0.0012454
18610.0 0.0012368
18630.0 0.0012282
18650.0 0.0012194
18670.0 0.0012105
18690.0 0.0012021
18710.0 0.0011934
18730.0 0.0011846
18750.0 0.001176
18770.0 0.0011675
18790.0 0.0011586
18810.0 0.0011498
18830.0 0.0011413
18850.0 0.0011327
18870.0 0.0011238
18890.0 0.0011153
18910.0 0.0011068
18930.0 0.001098
18950.0 0.0010894
18970.0 0.0010809
18990.0 0.0010723
19010.0 0.0010634
19030.0 0.001055
19050.0 0.0010465
19070.0 0.0010378
19090.0 0.0010292
19110.0 0.0010209
19130.0 0.0010122
19150.0 0.0010035
19170.0 0.00099514
19190.0 0.00098671
19210.0 0.000978
19230.0 0.00096945
19250.0 0.00096122
19270.0 0.0009527
19290.0 0.00094414
19310.0 0.00093586
19330.0 0.00092754
19350.0 0.00091883
19370.0 0.00091045
19390.0 0.00090222
19410.0 0.00089376
19430.0 0.00088525
19450.0 0.00087711
19470.0 0.00086886
19490.0 0.00086038
19510.0 0.00085211
19530.0 0.00084401
19550.0 0.00083557
19570.0 0.00082713
19590.0 0.00081907
19610.0 0.00081089
19630.0 0.00080254
19650.0 0.00079441
19670.0 0.00078644
19690.0 0.00077812
19710.0 0.00076988
19730.0 0.0007619
19750.0 0.00075381
19770.0 0.00074545
19790.0 0.00073745
19810.0 0.00072955
19830.0 0.00072138
19850.0 0.00071322
19870.0 0.00070527
19890.0 0.00069689
19910.0 0.00068797
19930.0 0.00067883
19950.0 0.00066896
19970.0 0.00065762
19990.0 0.00064494
20010.0 0.00063147
20030.0 0.00061626
20050.0 0.0005997
20070.0 0.000583
20090.0 0.00056628
20110.0 0.00054889
20130.0 0.00053277
20150.0 0.00051815
20170.0 0.00050437
20190.0 0.00049176
20210.0 0.00048101
20230.0 0.00047157
20250.0 0.00046315
20270.0 0.00045625
20290.0 0.00045073
20310.0 0.00044623
20330.0 0.0004428
20350.0 0.00044061
20370.0 0.00043935
20390.0 0.00043902
20410.0 0.00043961
20430.0 0.000441
20450.0 0.00044336
20470.0 0.00044662
20490.0 0.00045057
20510.0 0.00045535
20530.0 0.00046116
20550.0 0.0004676
20570.0 0.00047445
20590.0 0.00048222
20610.0 0.00049055
20630.0 0.00049897
20650.0 0.00050776
20670.0 0.00051719
20690.0 0.00052619
20710.0 0.00053493
20730.0 0.00054376
20750.0 0.00055235
20770.0 0.0005602
20790.0 0.00056791
20810.0 0.00057555
20830.0 0.00058272
20850.0 0.00058964
20870.0 0.00059686
20890.0 0.00060417
20910.0 0.00061125
20930.0 0.00061874
20950.0 0.00062672
20970.0 0.00063469
20990.0 0.00064274
21010.0 0.00065136
21030.0 0.00065984
21050.0 0.00066787
21070.0 0.00067572
21090.0 0.0006833
21110.0 0.00068979
21130.0 0.00069541
21150.0 0.00070028
21170.0 0.00070402
21190.0 0.00070654
21210.0 0.00070803
21230.0 0.00070832
21250.0 0.00070741
21270.0 0.00070543
21290.0 0.00070229
21310.0 0.00069812
21330.0 0.00069322
21350.0 0.00068731
21370.0 0.0006805
21390.0 0.00067322
21410.0 0.00066542
21430.0 0.00065665
21450.0 0.00064777
21470.0 0.00063891
21490.0 0.00062966
21510.0 0.00062027
21530.0 0.00061137
21550.0 0.00060264
21570.0 0.00059394
21590.0 0.00058593
21610.0 0.00057868
21630.0 0.00057192
21650.0 0.00056584
21670.0 0.00056103
21690.0 0.00055706
21710.0 0.00055403
21730.0 0.00055214
21750.0 0.00055132
21770.0 0.00055159
21790.0 0.00055302
21810.0 0.00055545
21830.0 0.00055893
21850.0 0.00056358
21870.0 0.00056907
21890.0 0.0005752
21910.0 0.00058239
21930.0 0.00059033
21950.0 0.0005986
21970.0 0.00060751
21990.0 0.00061736
22010.0 0.00062708
22030.0 0.0006369
22050.0 0.00064719
22070.0 0.00065753
22090.0 0.00066731
22110.0 0.00067716
22130.0 0.00068696
22150.0 0.00069602
22170.0 0.00070443
22190.0 0.00071257
22210.0 0.00071984
22230.0 0.00072587
22250.0 0.00073109
22270.0 0.00073528
22290.0 0.00073814
22310.0 0.00073976
22330.0 0.0007401
22350.0 0.00073898
22370.0 0.0007365
22390.0 0.00073254
22410.0 0.00072692
22430.0 0.00072015
22450.0 0.00071211
22470.0 0.00070244
22490.0 0.00069163
22510.0 0.0006801
22530.0 0.00066705
22550.0 0.00065279
22570.0 0.00063833
22590.0 0.00062323
22610.0 0.00060707
22630.0 0.00059072
22650.0 0.0005748
22670.0 0.00055815
22690.0 0.00054132
22710.0 0.00052521
22730.0 0.00050937
22750.0 0.00049303
22770.0 0.00047781
22790.0 0.00046362
22810.0 0.00044971
22830.0 0.00043651
22850.0 0.00042478
22870.0 0.00041389
22890.0 0.00040373
22910.0 0.00039508
22930.0 0.00038784
22950.0 0.00038171
22970.0 0.00037696
22990.0 0.00037395
23010.0 0.00037229
23030.0 0.00037213
23050.0 0.00037348
23070.0 0.00037616
23090.0 0.00038047
23110.0 0.00038615
23130.0 0.00039284
23150.0 0.00040071
23170.0 0.00040985
23190.0 0.00041952
23210.0 0.00042951
23230.0 0.00044034
23250.0 0.00045135
23270.0 0.00046198
23290.0 0.0004726
23310.0 0.00048327
23330.0 0.00049279
23350.0 0.00050147
23370.0 0.00050951
23390.0 0.00051642
23410.0 0.00052193
23430.0 0.0005264
23450.0 0.00052963
23470.0 0.00053145
23490.0 0.000532
23510.0 0.00053122
23530.0 0.00052913
23550.0 0.000526
23570.0 0.00052169
23590.0 0.00051624
23610.0 0.00051007
23630.0 0.00050317
23650.0 0.00049519
23670.0 0.00048681
23690.0 0.00047829
23710.0 0.00046932
23730.0 0.00046003
23750.0 0.00045136
23770.0 0.00044303
23790.0 0.00043498
23810.0 0.00042787
