#lamb flux
1010.0 0.00013612
1030.0 0.00017768
1050.0 0.00022684
1070.0 0.0002833
1090.0 0.00034795
1110.0 0.00041452
1130.0 0.0004806
1150.0 0.00054734
1170.0 0.0006123
1190.0 0.00066836
1210.0 0.00071849
1230.0 0.00076259
1250.0 0.00079632
1270.0 0.00081878
1290.0 0.00083453
1310.0 0.0008403
1330.0 0.00083469
1350.0 0.00082199
1370.0 0.00080601
1390.0 0.000782
1410.0 0.00075155
1430.0 0.00071862
1450.0 0.00068279
1470.0 0.00064448
1490.0 0.00060614
1510.0 0.00056875
1530.0 0.00053052
1550.0 0.00049409
1570.0 0.00046059
1590.0 0.00043012
1610.0 0.00040321
1630.0 0.00037953
1650.0 0.00035884
1670.0 0.00034038
1690.0 0.00032432
1710.0 0.00031099
1730.0 0.0002997
1750.0 0.00028809
1770.0 0.0002783
1790.0 0.0002701
1810.0 0.00026301
1830.0 0.00025697
1850.0 0.00025011
1870.0 0.00024441
1890.0 0.00023945
1910.0 0.0002355
1930.0 0.00023257
1950.0 0.00023036
1970.0 0.00022913
1990.0 0.00022922
2010.0 0.00023054
2030.0 0.0002332
2050.0 0.00023774
2070.0 0.00024441
2090.0 0.00025317
2110.0 0.00026462
2130.0 0.0002793
2150.0 0.00029738
2170.0 0.00031915
2190.0 0.00034543
2210.0 0.00037649
2230.0 0.00041242
2250.0 0.00045374
2270.0 0.00050111
2290.0 0.00055421
2310.0 0.000613
2330.0 0.00067812
2350.0 0.00074931
2370.0 0.00082579
2390.0 0.00090761
2410.0 0.00099461
2430.0 0.0010848
2450.0 0.0011772
2470.0 0.0012706
2490.0 0.0013631
2510.0 0.0014533
2530.0 0.0015419
2550.0 0.0016317
2570.0 0.0017285
2590.0 0.001841
2610.0 0.0019884
2630.0 0.0021887
2650.0 0.0024509
2670.0 0.0027964
2690.0 0.003245
2710.0 0.0037746
2730.0 0.0043681
2750.0 0.0050439
2770.0 0.0057484
2790.0 0.0064291
2810.0 0.0070842
2830.0 0.007706
2850.0 0.0082255
2870.0 0.0086724
2890.0 0.0090713
2910.0 0.0094203
2930.0 0.0097228
2950.0 0.010012
2970.0 0.010292
2990.0 0.010552
3010.0 0.010801
3030.0 0.011052
3050.0 0.011296
3070.0 0.011515
3090.0 0.011728
3110.0 0.011925
3130.0 0.012087
3150.0 0.012217
3170.0 0.012318
3190.0 0.012383
3210.0 0.012426
3230.0 0.012468
3250.0 0.012525
3270.0 0.012607
3290.0 0.012732
3310.0 0.012914
3330.0 0.013134
3350.0 0.013375
3370.0 0.013638
3390.0 0.013909
3410.0 0.014155
3430.0 0.014379
3450.0 0.014556
3470.0 0.015185
3490.0 0.015078
3510.0 0.013561
3530.0 0.014442
3550.0 0.016848
3570.0 0.018657
3590.0 0.020819
3610.0 0.022194
3630.0 0.023201
3650.0 0.02098
3670.0 0.018459
3690.0 0.017936
3710.0 0.019702
3730.0 0.022706
3750.0 0.023061
3770.0 0.023219
3790.0 0.023983
3810.0 0.022459
3830.0 0.019968
3850.0 0.018008
3870.0 0.016934
3890.0 0.01887
3910.0 0.020517
3930.0 0.021058
3950.0 0.021376
3970.0 0.022235
3990.0 0.023459
4010.0 0.023662
4030.0 0.022425
4050.0 0.020326
4070.0 0.020101
4090.0 0.021199
4110.0 0.022481
4130.0 0.021869
4150.0 0.021273
4170.0 0.021033
4190.0 0.022024
4210.0 0.021853
4230.0 0.020203
4250.0 0.018058
4270.0 0.01624
4290.0 0.014781
4310.0 0.01376
4330.0 0.013553
4350.0 0.014825
4370.0 0.01523
4390.0 0.015703
4410.0 0.016449
4430.0 0.016808
4450.0 0.01645
4470.0 0.016027
4490.0 0.016498
4510.0 0.016879
4530.0 0.017264
4550.0 0.017574
4570.0 0.017668
4590.0 0.018197
4610.0 0.018467
4630.0 0.01905
4650.0 0.019675
4670.0 0.019235
4690.0 0.017993
4710.0 0.016377
4730.0 0.015669
4750.0 0.015499
4770.0 0.014961
4790.0 0.014294
4810.0 0.013786
4830.0 0.014109
4850.0 0.01435
4870.0 0.013919
4890.0 0.013487
4910.0 0.012523
4930.0 0.012709
4950.0 0.011822
4970.0 0.010757
4990.0 0.010495
5010.0 0.0097945
5030.0 0.0091809
5050.0 0.0092028
5070.0 0.009969
5090.0 0.010348
5110.0 0.011475
5130.0 0.011825
5150.0 0.012196
5170.0 0.012586
5190.0 0.012351
5210.0 0.012422
5230.0 0.012668
5250.0 0.012715
5270.0 0.013025
5290.0 0.012904
5310.0 0.012656
5330.0 0.011999
5350.0 0.011359
5370.0 0.010653
5390.0 0.010803
5410.0 0.011007
5430.0 0.010999
5450.0 0.01108
5470.0 0.010969
5490.0 0.010799
5510.0 0.01068
5530.0 0.01043
5550.0 0.010455
5570.0 0.01058
5590.0 0.010722
5610.0 0.010637
5630.0 0.010398
5650.0 0.010274
5670.0 0.010048
5690.0 0.0097519
5710.0 0.0094403
5730.0 0.0093095
5750.0 0.0092756
5770.0 0.009089
5790.0 0.0089358
5810.0 0.0088753
5830.0 0.0090471
5850.0 0.0091871
5870.0 0.0092017
5890.0 0.009076
5910.0 0.009062
5930.0 0.009078
5950.0 0.0090546
5970.0 0.0089402
5990.0 0.0087928
6010.0 0.0089515
6030.0 0.0090137
6050.0 0.0088166
6070.0 0.0088178
6090.0 0.0087787
6110.0 0.0088086
6130.0 0.0088059
6150.0 0.0085456
6170.0 0.0079199
6190.0 0.0073194
6210.0 0.0070421
6230.0 0.0069333
6250.0 0.0069764
6270.0 0.0072349
6290.0 0.0074541
6310.0 0.0077252
6330.0 0.0079485
6350.0 0.0080616
6370.0 0.0080724
6390.0 0.007883
6410.0 0.0077135
6430.0 0.007482
6450.0 0.0072978
6470.0 0.0071965
6490.0 0.0072057
6510.0 0.0071968
6530.0 0.0071857
6550.0 0.0070399
6570.0 0.0069018
6590.0 0.0068583
6610.0 0.0067087
6630.0 0.0066055
6650.0 0.0064861
6670.0 0.0062851
6690.0 0.006094
6710.0 0.0059288
6730.0 0.0058662
6750.0 0.005773
6770.0 0.005707
6790.0 0.0057159
6810.0 0.0056227
6830.0 0.0055501
6850.0 0.0054927
6870.0 0.0053675
6890.0 0.0053308
6910.0 0.0052878
6930.0 0.0051883
6950.0 0.0051836
6970.0 0.0051133
6990.0 0.0051141
7010.0 0.0050304
7030.0 0.0049925
7050.0 0.0049562
7070.0 0.0048633
7090.0 0.0047359
7110.0 0.0046052
7130.0 0.0046035
7150.0 0.0046661
7170.0 0.0047049
7190.0 0.0047742
7210.0 0.004823
7230.0 0.0048825
7250.0 0.0049208
7270.0 0.0048355
7290.0 0.0047992
7310.0 0.0047006
7330.0 0.0045064
7350.0 0.0044238
7370.0 0.0043708
7390.0 0.0043068
7410.0 0.0043302
7430.0 0.004301
7450.0 0.0042301
7470.0 0.0041598
7490.0 0.0040322
7510.0 0.0037966
7530.0 0.0038796
7550.0 0.0039167
7570.0 0.003831
7590.0 0.003567
7610.0 0.0036354
7630.0 0.003617
7650.0 0.0036283
7670.0 0.0036336
7690.0 0.0036986
7710.0 0.0036767
7730.0 0.0038151
7750.0 0.00392
7770.0 0.0040931
7790.0 0.0042482
7810.0 0.0043567
7830.0 0.0045212
7850.0 0.0045122
7870.0 0.0045768
7890.0 0.0045115
7910.0 0.0043683
7930.0 0.0043015
7950.0 0.0042507
7970.0 0.0042148
7990.0 0.0042186
8010.0 0.0038402
8030.0 0.003817
8050.0 0.0037405
8070.0 0.0037049
8090.0 0.0035951
8110.0 0.0036225
8130.0 0.003672
8150.0 0.0037388
8170.0 0.0037035
8190.0 0.0037639
8210.0 0.0037144
8230.0 0.0035292
8250.0 0.0034718
8270.0 0.0034111
8290.0 0.0033527
8310.0 0.0032249
8330.0 0.0032619
8350.0 0.0032488
8370.0 0.0032549
8390.0 0.0033118
8410.0 0.0032911
8430.0 0.0033322
8450.0 0.0033711
8470.0 0.0033989
8490.0 0.0034414
8510.0 0.0033789
8530.0 0.0032574
8550.0 0.0032836
8570.0 0.0032851
8590.0 0.0031836
8610.0 0.003251
8630.0 0.0032051
8650.0 0.0031424
8670.0 0.0031213
8690.0 0.0031146
8710.0 0.0029863
8730.0 0.0030333
8750.0 0.0029317
8770.0 0.0029194
8790.0 0.0028366
8810.0 0.0028011
8830.0 0.0028024
8850.0 0.0026805
8870.0 0.0025462
8890.0 0.0025134
8910.0 0.0023705
8930.0 0.0021894
8950.0 0.0021889
8970.0 0.0021118
8990.0 0.0020959
9010.0 0.0020763
9030.0 0.0020618
9050.0 0.0020472
9070.0 0.0020325
9090.0 0.0020176
9110.0 0.0020026
9130.0 0.0019876
9150.0 0.0019727
9170.0 0.0019577
9190.0 0.0019427
9210.0 0.0019277
9230.0 0.0019126
9250.0 0.0018975
9270.0 0.0018823
9290.0 0.0018672
9310.0 0.0018521
9330.0 0.001837
9350.0 0.001822
9370.0 0.0018069
9390.0 0.0017919
9410.0 0.0017769
9430.0 0.001762
9450.0 0.0017472
9470.0 0.0017334
9490.0 0.0017192
9510.0 0.0017039
9530.0 0.0016888
9550.0 0.001674
9570.0 0.0016594
9590.0 0.0016449
9610.0 0.0016306
9630.0 0.0016164
9650.0 0.0016023
9670.0 0.0015882
9690.0 0.0015743
9710.0 0.0015605
9730.0 0.0015468
9750.0 0.0015332
9770.0 0.0015198
9790.0 0.0015065
9810.0 0.0014932
9830.0 0.0014799
9850.0 0.0014648
9870.0 0.0014515
9890.0 0.0014399
9910.0 0.0014281
9930.0 0.0014137
9950.0 0.0014014
9970.0 0.0013903
9990.0 0.0013788
10010.0 0.0013673
10030.0 0.0013557
10050.0 0.0013442
10070.0 0.0013328
10090.0 0.0013217
10110.0 0.0013103
10130.0 0.0012991
10150.0 0.0012883
10170.0 0.0012775
10190.0 0.0012667
10210.0 0.0012562
10230.0 0.0012459
10250.0 0.0012356
10270.0 0.0012255
10290.0 0.0012156
10310.0 0.0012057
10330.0 0.0011959
10350.0 0.0011864
10370.0 0.001177
10390.0 0.0011676
10410.0 0.0011583
10430.0 0.0011492
10450.0 0.0011404
10470.0 0.0011316
10490.0 0.0011231
10510.0 0.0011147
10530.0 0.0011061
10550.0 0.0010978
10570.0 0.0010898
10590.0 0.0010818
10610.0 0.0010738
10630.0 0.0010661
10650.0 0.0010586
10670.0 0.0010509
10690.0 0.0010434
10710.0 0.0010362
10730.0 0.001029
10750.0 0.0010217
10770.0 0.0010149
10790.0 0.0010081
10810.0 0.0010012
10830.0 0.00099458
10850.0 0.0009882
10870.0 0.00098165
10890.0 0.00097524
10910.0 0.00096917
10930.0 0.00096323
10950.0 0.00095733
10970.0 0.00095179
10990.0 0.00094664
11010.0 0.0010089
11030.0 0.001005
11050.0 0.0010013
11070.0 0.00099732
11090.0 0.00099292
11110.0 0.00098841
11130.0 0.00098367
11150.0 0.00097845
11170.0 0.00097291
11190.0 0.00096742
11210.0 0.00096163
11230.0 0.00095557
11250.0 0.00094969
11270.0 0.00094396
11290.0 0.0009381
11310.0 0.00093242
11330.0 0.00092732
11350.0 0.00092232
11370.0 0.00091749
11390.0 0.00091311
11410.0 0.00090904
11430.0 0.00090492
11450.0 0.00090104
11470.0 0.00089742
11490.0 0.00089372
11510.0 0.00088985
11530.0 0.0008861
11550.0 0.00088229
11570.0 0.00087812
11590.0 0.00087383
11610.0 0.00086957
11630.0 0.00086496
11650.0 0.00086007
11670.0 0.00085538
11690.0 0.00085067
11710.0 0.00084572
11730.0 0.00084089
11750.0 0.00083637
11770.0 0.00083169
11790.0 0.00082702
11810.0 0.00082266
11830.0 0.00081842
11850.0 0.00081398
11870.0 0.00080985
11890.0 0.00080605
11910.0 0.00080224
11930.0 0.00079857
11950.0 0.00079535
11970.0 0.00079236
11990.0 0.00078951
12010.0 0.00078717
12030.0 0.00078533
12050.0 0.00078385
12070.0 0.00078282
12090.0 0.00078246
12110.0 0.00078256
12130.0 0.00078311
12150.0 0.00078417
12170.0 0.00078567
12190.0 0.00078753
12210.0 0.00078973
12230.0 0.00079218
12250.0 0.00079482
12270.0 0.00079762
12290.0 0.00080045
12310.0 0.00080325
12330.0 0.00080603
12350.0 0.00080868
12370.0 0.00081115
12390.0 0.00081341
12410.0 0.00081539
12430.0 0.00081703
12450.0 0.0008183
12470.0 0.00081912
12490.0 0.00081943
12510.0 0.0008193
12530.0 0.00081855
12550.0 0.00081712
12570.0 0.00081516
12590.0 0.00081264
12610.0 0.00080931
12630.0 0.00080535
12650.0 0.00080114
12670.0 0.00079627
12690.0 0.00079078
12710.0 0.00078513
12730.0 0.00077923
12750.0 0.00077265
12770.0 0.00076604
12790.0 0.00075956
12810.0 0.00075286
12830.0 0.00074596
12850.0 0.00073953
12870.0 0.00073328
12890.0 0.00072695
12910.0 0.00072098
12930.0 0.00071549
12950.0 0.00071004
12970.0 0.00070479
12990.0 0.00070013
13010.0 0.00069573
13030.0 0.00069144
13050.0 0.00068747
13070.0 0.00068387
13090.0 0.00068028
13110.0 0.0006768
13130.0 0.0006736
13150.0 0.00067049
13170.0 0.0006673
13190.0 0.00066431
13210.0 0.0006615
13230.0 0.00065863
13250.0 0.00065578
13270.0 0.00065309
13290.0 0.00065035
13310.0 0.00064746
13330.0 0.00064462
13350.0 0.00064176
13370.0 0.0006387
13390.0 0.00063544
13410.0 0.00063224
13430.0 0.00062881
13450.0 0.0006251
13470.0 0.00062131
13490.0 0.00061746
13510.0 0.00061319
13530.0 0.00060881
13550.0 0.00060444
13570.0 0.00059989
13590.0 0.00059508
13610.0 0.0005903
13630.0 0.00058555
13650.0 0.00058051
13670.0 0.00057542
13690.0 0.00057042
13710.0 0.00056528
13730.0 0.00055985
13750.0 0.00055465
13770.0 0.00054945
13790.0 0.00054407
13810.0 0.00053869
13830.0 0.00053351
13850.0 0.00052818
13870.0 0.00052278
13890.0 0.00051757
13910.0 0.00051245
13930.0 0.00050719
13950.0 0.00050204
13970.0 0.00049718
13990.0 0.00049226
14010.0 0.00048735
14030.0 0.00048265
14050.0 0.00047806
14070.0 0.00047332
14090.0 0.00046875
14110.0 0.00046434
14130.0 0.00045989
14150.0 0.0004554
14170.0 0.00045112
14190.0 0.00044688
14210.0 0.00044255
14230.0 0.00043832
14250.0 0.00043424
14270.0 0.00043008
14290.0 0.00042593
14310.0 0.00042202
14330.0 0.00041818
14350.0 0.00041434
14370.0 0.00041067
14390.0 0.0004072
14410.0 0.00040373
14430.0 0.00040036
14450.0 0.00039718
14470.0 0.00039409
14490.0 0.00039098
14510.0 0.00038803
14530.0 0.00038519
14550.0 0.00038234
14570.0 0.00037952
14590.0 0.0003768
14610.0 0.00037407
14630.0 0.0003713
14650.0 0.0003686
14670.0 0.00036595
14690.0 0.00036325
14710.0 0.00036056
14730.0 0.00035798
14750.0 0.0003554
14770.0 0.00035281
14790.0 0.00035029
14810.0 0.00034784
14830.0 0.00034533
14850.0 0.00034288
14870.0 0.00034052
14890.0 0.00033815
14910.0 0.00033578
14930.0 0.0003335
14950.0 0.00033129
14970.0 0.00032909
14990.0 0.00032698
15010.0 0.00032499
15030.0 0.00032305
15050.0 0.00032115
15070.0 0.00031937
15090.0 0.00031763
15110.0 0.00031591
15130.0 0.00031421
15150.0 0.00031256
15170.0 0.0003109
15190.0 0.00030923
15210.0 0.00030759
15230.0 0.00030597
15250.0 0.00030432
15270.0 0.00030269
15290.0 0.0003011
15310.0 0.0002995
15330.0 0.00029789
15350.0 0.00029632
15370.0 0.00029475
15390.0 0.00029316
15410.0 0.0002916
15430.0 0.00029006
15450.0 0.00028852
15470.0 0.00028697
15490.0 0.00028546
15510.0 0.00028396
15530.0 0.00028245
15550.0 0.00028096
15570.0 0.00027949
15590.0 0.00027801
15610.0 0.00027653
15630.0 0.0002751
15650.0 0.00027366
15670.0 0.00027222
15690.0 0.00027081
15710.0 0.00026942
15730.0 0.00026802
15750.0 0.00026662
15770.0 0.00026526
15790.0 0.00026391
15810.0 0.00026253
15830.0 0.0002612
15850.0 0.00025989
15870.0 0.00025856
15890.0 0.00025725
15910.0 0.00025597
15930.0 0.0002547
15950.0 0.00025341
15970.0 0.00025215
15990.0 0.00025091
16010.0 0.00024967
16030.0 0.00024843
16050.0 0.00024724
16070.0 0.00024604
16090.0 0.00024484
16110.0 0.00024366
16130.0 0.00024251
16150.0 0.00024134
16170.0 0.00024018
16190.0 0.00023906
16210.0 0.00023794
16230.0 0.00023682
16250.0 0.00023572
16270.0 0.00023465
16290.0 0.00023356
16310.0 0.00023249
16330.0 0.00023145
16350.0 0.0002304
16370.0 0.00022934
16390.0 0.00022833
16410.0 0.00022733
16430.0 0.00022632
16450.0 0.00022532
16470.0 0.00022436
16490.0 0.00022338
16510.0 0.00022241
16530.0 0.00022147
16550.0 0.00022054
16570.0 0.00021959
16590.0 0.00021866
16610.0 0.00021777
16630.0 0.00021687
16650.0 0.00021597
16670.0 0.0002151
16690.0 0.00021424
16710.0 0.00021336
16730.0 0.0002125
16750.0 0.00021167
16770.0 0.00021083
16790.0 0.00020999
16810.0 0.00020919
16830.0 0.00020839
16850.0 0.00020758
16870.0 0.00020679
16890.0 0.00020602
16910.0 0.00020524
16930.0 0.00020445
16950.0 0.00020371
16970.0 0.00020296
16990.0 0.00020221
17010.0 0.00020148
17030.0 0.00020077
17050.0 0.00020004
17070.0 0.00019932
17090.0 0.00019863
17110.0 0.00019793
17130.0 0.00019722
17150.0 0.00019654
17170.0 0.00019588
17190.0 0.0001952
17210.0 0.00019454
17230.0 0.0001939
17250.0 0.00019325
17270.0 0.00019258
17290.0 0.00019195
17310.0 0.00019133
17330.0 0.00019069
17350.0 0.00019006
17370.0 0.00018946
17390.0 0.00018886
17410.0 0.00018824
17430.0 0.00018765
17450.0 0.00018707
17470.0 0.00018646
17490.0 0.00018587
17510.0 0.0001853
17530.0 0.00018473
17550.0 0.00018414
17570.0 0.00018359
17590.0 0.00018304
17610.0 0.00018247
17630.0 0.00018191
17650.0 0.00018138
17670.0 0.00018083
17690.0 0.00018026
17710.0 0.00017974
17730.0 0.00017921
17750.0 0.00017867
17770.0 0.00017814
17790.0 0.00017763
17810.0 0.0001771
17830.0 0.00017657
17850.0 0.00017606
17870.0 0.00017555
17890.0 0.00017502
17910.0 0.00017451
17930.0 0.00017402
17950.0 0.00017351
17970.0 0.00017299
17990.0 0.0001725
18010.0 0.00017201
18030.0 0.00017149
18050.0 0.000171
18070.0 0.00017051
18090.0 0.00017001
18110.0 0.00016951
18130.0 0.00016903
18150.0 0.00016855
18170.0 0.00016804
18190.0 0.00016756
18210.0 0.00016708
18230.0 0.00016658
18250.0 0.00016608
18270.0 0.00016561
18290.0 0.00016512
18310.0 0.00016462
18330.0 0.00016414
18350.0 0.00016367
18370.0 0.00016317
18390.0 0.00016268
18410.0 0.0001622
18430.0 0.00016172
18450.0 0.00016121
18470.0 0.00016072
18490.0 0.00016025
18510.0 0.00015975
18530.0 0.00015926
18550.0 0.00015878
18570.0 0.00015829
18590.0 0.00015777
18610.0 0.00015728
18630.0 0.0001568
18650.0 0.00015629
18670.0 0.00015578
18690.0 0.0001553
18710.0 0.0001548
18730.0 0.00015428
18750.0 0.00015378
18770.0 0.00015329
18790.0 0.00015276
18810.0 0.00015224
18830.0 0.00015174
18850.0 0.00015122
18870.0 0.00015069
18890.0 0.00015018
18910.0 0.00014967
18930.0 0.00014913
18950.0 0.0001486
18970.0 0.00014809
18990.0 0.00014755
19010.0 0.00014699
19030.0 0.00014647
19050.0 0.00014594
19070.0 0.00014539
19090.0 0.00014484
19110.0 0.00014431
19130.0 0.00014375
19150.0 0.00014319
19170.0 0.00014264
19190.0 0.00014209
19210.0 0.00014151
19230.0 0.00014094
19250.0 0.00014039
19270.0 0.00013981
19290.0 0.00013923
19310.0 0.00013866
19330.0 0.00013809
19350.0 0.00013748
19370.0 0.0001369
19390.0 0.00013632
19410.0 0.00013572
19430.0 0.00013511
19450.0 0.00013452
19470.0 0.00013393
19490.0 0.00013331
19510.0 0.0001327
19530.0 0.0001321
19550.0 0.00013147
19570.0 0.00013083
19590.0 0.00013022
19610.0 0.0001296
19630.0 0.00012896
19650.0 0.00012833
19670.0 0.00012771
19690.0 0.00012706
19710.0 0.0001264
19730.0 0.00012577
19750.0 0.00012512
19770.0 0.00012445
19790.0 0.0001238
19810.0 0.00012315
19830.0 0.00012248
19850.0 0.00012181
19870.0 0.00012116
19890.0 0.00012049
19910.0 0.0001198
19930.0 0.00011914
19950.0 0.00011849
19970.0 0.00011782
19990.0 0.00011717
20010.0 0.00011655
20030.0 0.00011593
20050.0 0.0001153
20070.0 0.0001147
20090.0 0.00011411
20110.0 0.00011349
20130.0 0.00011288
20150.0 0.00011229
20170.0 0.00011168
20190.0 0.00011107
20210.0 0.00011047
20230.0 0.00010987
20250.0 0.00010925
20270.0 0.00010865
20290.0 0.00010806
20310.0 0.00010747
20330.0 0.00010687
20350.0 0.00010632
20370.0 0.00010578
20390.0 0.00010523
20410.0 0.00010472
20430.0 0.00010423
20450.0 0.00010374
20470.0 0.00010327
20490.0 0.00010283
20510.0 0.00010242
20530.0 0.00010202
20550.0 0.00010165
20570.0 0.00010131
20590.0 0.00010099
20610.0 0.0001007
20630.0 0.00010045
20650.0 0.00010022
20670.0 0.00010001
20690.0 9.9834e-05
20710.0 9.9679e-05
20730.0 9.9546e-05
20750.0 9.943e-05
20770.0 9.932e-05
20790.0 9.9219e-05
20810.0 9.9121e-05
20830.0 9.9013e-05
20850.0 9.8892e-05
20870.0 9.8756e-05
20890.0 9.8595e-05
20910.0 9.84e-05
20930.0 9.8172e-05
20950.0 9.7903e-05
20970.0 9.7594e-05
20990.0 9.7243e-05
21010.0 9.684e-05
21030.0 9.6392e-05
21050.0 9.5905e-05
21070.0 9.5372e-05
21090.0 9.4786e-05
21110.0 9.4178e-05
21130.0 9.3543e-05
21150.0 9.2866e-05
21170.0 9.2169e-05
21190.0 9.147e-05
21210.0 9.0742e-05
21230.0 8.9993e-05
21250.0 8.9259e-05
21270.0 8.8524e-05
21290.0 8.7774e-05
21310.0 8.7029e-05
21330.0 8.6308e-05
21350.0 8.5573e-05
21370.0 8.4834e-05
21390.0 8.411e-05
21410.0 8.3389e-05
21430.0 8.2639e-05
21450.0 8.19e-05
21470.0 8.117e-05
21490.0 8.0419e-05
21510.0 7.9654e-05
21530.0 7.89e-05
21550.0 7.8135e-05
21570.0 7.7342e-05
21590.0 7.6554e-05
21610.0 7.5771e-05
21630.0 7.4969e-05
21650.0 7.4148e-05
21670.0 7.3363e-05
21690.0 7.2571e-05
21710.0 7.1767e-05
21730.0 7.0979e-05
21750.0 7.0216e-05
21770.0 6.9431e-05
21790.0 6.866e-05
21810.0 6.7918e-05
21830.0 6.7183e-05
21850.0 6.6443e-05
21870.0 6.5728e-05
21890.0 6.5038e-05
21910.0 6.4341e-05
21930.0 6.3653e-05
21950.0 6.2988e-05
21970.0 6.2324e-05
21990.0 6.1646e-05
22010.0 6.0992e-05
22030.0 6.0346e-05
22050.0 5.9687e-05
22070.0 5.9027e-05
22090.0 5.8385e-05
22110.0 5.7731e-05
22130.0 5.7062e-05
22150.0 5.6403e-05
22170.0 5.5747e-05
22190.0 5.5067e-05
22210.0 5.4386e-05
22230.0 5.3725e-05
22250.0 5.3052e-05
22270.0 5.2369e-05
22290.0 5.1702e-05
22310.0 5.1041e-05
22330.0 5.0361e-05
22350.0 4.9693e-05
22370.0 4.9045e-05
22390.0 4.8393e-05
22410.0 4.7736e-05
22430.0 4.7111e-05
22450.0 4.6499e-05
22470.0 4.5884e-05
22490.0 4.5287e-05
22510.0 4.4717e-05
22530.0 4.4147e-05
22550.0 4.3586e-05
22570.0 4.3056e-05
22590.0 4.2543e-05
22610.0 4.2034e-05
22630.0 4.1545e-05
22650.0 4.1084e-05
22670.0 4.0626e-05
22690.0 4.018e-05
22710.0 3.9756e-05
22730.0 3.9345e-05
22750.0 3.8933e-05
22770.0 3.8542e-05
22790.0 3.817e-05
22810.0 3.7802e-05
22830.0 3.7445e-05
22850.0 3.7108e-05
22870.0 3.6782e-05
22890.0 3.6463e-05
22910.0 3.6162e-05
22930.0 3.588e-05
22950.0 3.5608e-05
22970.0 3.535e-05
22990.0 3.5117e-05
23010.0 3.4899e-05
23030.0 3.4698e-05
23050.0 3.4517e-05
23070.0 3.4357e-05
23090.0 3.4214e-05
23110.0 3.4093e-05
23130.0 3.3992e-05
23150.0 3.3912e-05
23170.0 3.3853e-05
23190.0 3.3812e-05
23210.0 3.3787e-05
