#lamb flux
1010.0 1.1262e-05
1030.0 1.2677e-05
1050.0 1.4142e-05
1070.0 1.5798e-05
1090.0 1.7736e-05
1110.0 1.9729e-05
1130.0 2.1748e-05
1150.0 2.3879e-05
1170.0 2.6102e-05
1190.0 2.8254e-05
1210.0 3.0482e-05
1230.0 3.2838e-05
1250.0 3.5208e-05
1270.0 3.7593e-05
1290.0 4.018e-05
1310.0 4.2857e-05
1330.0 4.5531e-05
1350.0 4.8318e-05
1370.0 5.1261e-05
1390.0 5.4225e-05
1410.0 5.7186e-05
1430.0 6.0307e-05
1450.0 6.3474e-05
1470.0 6.6594e-05
1490.0 6.9759e-05
1510.0 7.307e-05
1530.0 7.6243e-05
1550.0 7.9363e-05
1570.0 8.2538e-05
1590.0 8.5673e-05
1610.0 8.8634e-05
1630.0 9.1582e-05
1650.0 9.4517e-05
1670.0 9.7271e-05
1690.0 9.9887e-05
1710.0 0.00010249
1730.0 0.00010498
1750.0 0.00010718
1770.0 0.00010933
1790.0 0.00011139
1810.0 0.00011323
1830.0 0.00011489
1850.0 0.00011658
1870.0 0.00011807
1890.0 0.00011937
1910.0 0.0001206
1930.0 0.00012179
1950.0 0.00012277
1970.0 0.00012363
1990.0 0.00012449
2010.0 0.00012523
2030.0 0.0001258
2050.0 0.00012635
2070.0 0.00012686
2090.0 0.00012714
2110.0 0.00012731
2130.0 0.00012742
2150.0 0.00012736
2170.0 0.00012707
2190.0 0.0001267
2210.0 0.00012619
2230.0 0.00012543
2250.0 0.0001245
2270.0 0.00012348
2290.0 0.00012222
2310.0 0.00012072
2330.0 0.00011911
2350.0 0.00011734
2370.0 0.00011535
2390.0 0.00011322
2410.0 0.00011099
2430.0 0.00010854
2450.0 0.00010586
2470.0 0.00010301
2490.0 9.9963e-05
2510.0 9.6729e-05
2530.0 9.3536e-05
2550.0 9.0707e-05
2570.0 8.8647e-05
2590.0 8.7783e-05
2610.0 8.8988e-05
2630.0 9.2504e-05
2650.0 9.787e-05
2670.0 0.00010506
2690.0 0.00011355
2710.0 0.00012144
2730.0 0.00012771
2750.0 0.00013217
2770.0 0.00013345
2790.0 0.00013121
2810.0 0.00012579
2830.0 0.00011716
2850.0 0.00010613
2870.0 9.3366e-05
2890.0 7.8994e-05
2910.0 6.3687e-05
2930.0 4.8233e-05
2950.0 3.2054e-05
2970.0 1.5368e-05
2990.0 7.6827e-06
3010.0 1.6956e-05
3030.0 1.6956e-05
3050.0 1.6956e-05
3070.0 1.6956e-05
3090.0 1.6956e-05
3110.0 1.6956e-05
3130.0 1.6956e-05
3150.0 1.6956e-05
3170.0 1.6956e-05
3190.0 1.6956e-05
3210.0 1.6956e-05
3230.0 0.00046175
3250.0 0.00091793
3270.0 0.00091843
3290.0 0.00098963
3310.0 0.00077926
3330.0 0.0007785
3350.0 0.00086403
3370.0 0.00098666
3390.0 0.001125
3410.0 0.0012732
3430.0 0.0014622
3450.0 0.0016539
3470.0 0.0018542
3490.0 0.0019643
3510.0 0.0019104
3530.0 0.0019351
3550.0 0.0020399
3570.0 0.0020543
3590.0 0.0021904
3610.0 0.0020958
3630.0 0.0025945
3650.0 0.0029108
3670.0 0.0031091
3690.0 0.0029369
3710.0 0.0024166
3730.0 0.0022685
3750.0 0.002046
3770.0 0.0018899
3790.0 0.0017147
3810.0 0.0016566
3830.0 0.0019043
3850.0 0.00083679
3870.0 0.0015388
3890.0 0.001818
3910.0 0.0020471
3930.0 0.0025469
3950.0 0.0027686
3970.0 0.0032286
3990.0 0.0039579
4010.0 0.0029753
4030.0 0.0024651
4050.0 0.0018708
4070.0 0.0019241
4090.0 0.00302
4110.0 0.0028657
4130.0 0.0030895
4150.0 0.0029101
4170.0 0.0027708
4190.0 0.0025205
4210.0 0.00366
4230.0 0.0038157
4250.0 0.0041499
4270.0 0.0038957
4290.0 0.0039335
4310.0 0.0044139
4330.0 0.0051945
4350.0 0.005214
4370.0 0.0050772
4390.0 0.004541
4410.0 0.0042272
4430.0 0.0033205
4450.0 0.0027786
4470.0 0.0030961
4490.0 0.0036904
4510.0 0.003822
4530.0 0.0039373
4550.0 0.0040858
4570.0 0.0057848
4590.0 0.0085531
4610.0 0.010054
4630.0 0.010083
4650.0 0.010558
4670.0 0.012091
4690.0 0.013211
4710.0 0.010883
4730.0 0.0082925
4750.0 0.0065842
4770.0 0.005815
4790.0 0.0054507
4810.0 0.0051977
4830.0 0.0057426
4850.0 0.0066541
4870.0 0.0072617
4890.0 0.007576
4910.0 0.0069796
4930.0 0.0074296
4950.0 0.0091663
4970.0 0.010924
4990.0 0.011411
5010.0 0.010527
5030.0 0.0087491
5050.0 0.0066694
5070.0 0.005272
5090.0 0.0047288
5110.0 0.0046254
5130.0 0.0047205
5150.0 0.0047053
5170.0 0.0045025
5190.0 0.0042543
5210.0 0.0041527
5230.0 0.0046423
5250.0 0.0053643
5270.0 0.006373
5290.0 0.007335
5310.0 0.0077368
5330.0 0.0083698
5350.0 0.0092768
5370.0 0.0097637
5390.0 0.0088706
5410.0 0.0078524
5430.0 0.0075909
5450.0 0.0087847
5470.0 0.010908
5490.0 0.012803
5510.0 0.013655
5530.0 0.013437
5550.0 0.012784
5570.0 0.012366
5590.0 0.011936
5610.0 0.011771
5630.0 0.011678
5650.0 0.011657
5670.0 0.011554
5690.0 0.010607
5710.0 0.0089063
5730.0 0.0078921
5750.0 0.0074554
5770.0 0.0075846
5790.0 0.0078366
5810.0 0.0081733
5830.0 0.0083213
5850.0 0.0079137
5870.0 0.0073966
5890.0 0.0070645
5910.0 0.0072576
5930.0 0.0076068
5950.0 0.0071642
5970.0 0.0063392
5990.0 0.0052794
6010.0 0.0042672
6030.0 0.0038759
6050.0 0.0041503
6070.0 0.0044528
6090.0 0.0043357
6110.0 0.0038273
6130.0 0.0038645
6150.0 0.0044718
6170.0 0.0051921
6190.0 0.0057831
6210.0 0.0058606
6230.0 0.0057384
6250.0 0.0052559
6270.0 0.0044302
6290.0 0.0036728
6310.0 0.0032337
6330.0 0.0031356
6350.0 0.0032102
6370.0 0.0032292
6390.0 0.0035531
6410.0 0.0043913
6430.0 0.0055073
6450.0 0.0063216
6470.0 0.0065674
6490.0 0.0064747
6510.0 0.006618
6530.0 0.00687
6550.0 0.0068105
6570.0 0.0070611
6590.0 0.0072014
6610.0 0.0073295
6630.0 0.007287
6650.0 0.0068767
6670.0 0.0062887
6690.0 0.0056486
6710.0 0.0052847
6730.0 0.005271
6750.0 0.0054472
6770.0 0.0056104
6790.0 0.0057672
6810.0 0.0058695
6830.0 0.0057503
6850.0 0.0055065
6870.0 0.005166
6890.0 0.0050445
6910.0 0.0048374
6930.0 0.0049868
6950.0 0.0053255
6970.0 0.0054806
6990.0 0.0056087
7010.0 0.0054733
7030.0 0.0050492
7050.0 0.0044568
7070.0 0.0039101
7090.0 0.0035788
7110.0 0.0035323
7130.0 0.0035234
7150.0 0.0032038
7170.0 0.0030185
7190.0 0.0032408
7210.0 0.0036971
7230.0 0.0042828
7250.0 0.0045853
7270.0 0.0045742
7290.0 0.0042097
7310.0 0.0038591
7330.0 0.0036654
7350.0 0.0036632
7370.0 0.0037412
7390.0 0.0039057
7410.0 0.0042995
7430.0 0.0049871
7450.0 0.0056803
7470.0 0.0060613
7490.0 0.0059996
7510.0 0.0056428
7530.0 0.0048146
7550.0 0.0043288
7570.0 0.0038292
7590.0 0.0035915
7610.0 0.0037307
7630.0 0.0041013
7650.0 0.0045874
7670.0 0.0050565
7690.0 0.0053722
7710.0 0.0057289
7730.0 0.0061121
7750.0 0.0064478
7770.0 0.0064036
7790.0 0.0064481
7810.0 0.0066083
7830.0 0.0066711
7850.0 0.0064855
7870.0 0.0062622
7890.0 0.0062495
7910.0 0.0060155
7930.0 0.0059439
7950.0 0.0056467
7970.0 0.0055251
7990.0 0.005363
8010.0 0.0055304
8030.0 0.0055865
8050.0 0.0056523
8070.0 0.0056045
8090.0 0.0055861
8110.0 0.0053783
8130.0 0.0053725
8150.0 0.0053009
8170.0 0.0051693
8190.0 0.0050795
8210.0 0.0050913
8230.0 0.0049573
8250.0 0.0048278
8270.0 0.0043383
8290.0 0.0035219
8310.0 0.0026303
8330.0 0.0020099
8350.0 0.0018667
8370.0 0.0022364
8390.0 0.00273
8410.0 0.0029777
8430.0 0.0030854
8450.0 0.0032449
8470.0 0.0034636
8490.0 0.0038815
8510.0 0.0044397
8530.0 0.0051411
8550.0 0.0058408
8570.0 0.0064433
8590.0 0.0069169
8610.0 0.0072145
8630.0 0.0072844
8650.0 0.0072505
8670.0 0.007263
8690.0 0.0076116
8710.0 0.0080595
8730.0 0.0083901
8750.0 0.0083639
8770.0 0.0084813
8790.0 0.0084441
8810.0 0.0079231
8830.0 0.0075204
8850.0 0.0069633
8870.0 0.0065113
8890.0 0.0063502
8910.0 0.0063914
8930.0 0.0060579
8950.0 0.0056967
8970.0 0.0055533
8990.0 0.0055003
9010.0 0.0052913
9030.0 0.0051717
9050.0 0.0051308
9070.0 0.0051119
9090.0 0.0050953
9110.0 0.0050794
9130.0 0.0050631
9150.0 0.0050472
9170.0 0.0050284
9190.0 0.0050135
9210.0 0.0050229
9230.0 0.0049974
9250.0 0.0049765
9270.0 0.0049579
9290.0 0.004941
9310.0 0.0049246
9330.0 0.0049087
9350.0 0.004894
9370.0 0.0048793
9390.0 0.0048642
9410.0 0.0048497
9430.0 0.0048348
9450.0 0.0048145
9470.0 0.004796
9490.0 0.0047871
9510.0 0.0047754
9530.0 0.0047627
9550.0 0.0047499
9570.0 0.0047366
9590.0 0.004723
9610.0 0.0047094
9630.0 0.0046959
9650.0 0.0046823
9670.0 0.0046687
9690.0 0.0046551
9710.0 0.0046417
9730.0 0.0046281
9750.0 0.0046146
9770.0 0.0046013
9790.0 0.0045878
9810.0 0.0045743
9830.0 0.0045608
9850.0 0.0045474
9870.0 0.0045337
9890.0 0.0045201
9910.0 0.0045064
9930.0 0.0044921
9950.0 0.0044417
9970.0 0.0044386
9990.0 0.0044335
10010.0 0.0044269
10030.0 0.0044173
10050.0 0.0044051
10070.0 0.0043923
10090.0 0.0043796
10110.0 0.0043644
10130.0 0.0043504
10150.0 0.004336
10170.0 0.0043203
10190.0 0.0043033
10210.0 0.0042879
10230.0 0.0042727
10250.0 0.0042559
10270.0 0.0042392
10290.0 0.0042236
10310.0 0.0042065
10330.0 0.004188
10350.0 0.0041709
10370.0 0.0041537
10390.0 0.0041348
10410.0 0.0041159
10430.0 0.0040984
10450.0 0.0040791
10470.0 0.0040589
10490.0 0.0040395
10510.0 0.0040201
10530.0 0.003998
10550.0 0.0039766
10570.0 0.0039562
10590.0 0.0039342
10610.0 0.0039112
10630.0 0.0038894
10650.0 0.0038669
10670.0 0.0038423
10690.0 0.0038181
10710.0 0.0037945
10730.0 0.0037693
10750.0 0.0037423
10770.0 0.0037175
10790.0 0.0036917
10810.0 0.0036641
10830.0 0.0036367
10850.0 0.0036103
10870.0 0.0035807
10890.0 0.0035506
10910.0 0.0035212
10930.0 0.0034904
10950.0 0.0034566
10970.0 0.0034222
10990.0 0.0033879
11010.0 0.0034963
11030.0 0.003454
11050.0 0.0034129
11070.0 0.0033711
11090.0 0.0033268
11110.0 0.0032863
11130.0 0.0032475
11150.0 0.0032082
11170.0 0.0031699
11190.0 0.0031347
11210.0 0.0030991
11230.0 0.0030628
11250.0 0.0030284
11270.0 0.0029949
11290.0 0.0029599
11310.0 0.002925
11330.0 0.0028924
11350.0 0.0028587
11370.0 0.0028238
11390.0 0.0027896
11410.0 0.0027554
11430.0 0.0027177
11450.0 0.0026795
11470.0 0.0026409
11490.0 0.0025997
11510.0 0.0025549
11530.0 0.0025102
11550.0 0.002464
11570.0 0.0024139
11590.0 0.0023626
11610.0 0.0023119
11630.0 0.0022581
11650.0 0.0022023
11670.0 0.0021488
11690.0 0.0020956
11710.0 0.0020411
11730.0 0.0019881
11750.0 0.0019384
11770.0 0.0018882
11790.0 0.0018391
11810.0 0.0017933
11830.0 0.0017494
11850.0 0.0017051
11870.0 0.0016639
11890.0 0.0016258
11910.0 0.001588
11930.0 0.0015515
11950.0 0.0015177
11970.0 0.001485
11990.0 0.0014523
12010.0 0.0014218
12030.0 0.0013933
12050.0 0.0013652
12070.0 0.0013382
12090.0 0.0013143
12110.0 0.0012917
12130.0 0.0012703
12150.0 0.0012515
12170.0 0.0012352
12190.0 0.0012204
12210.0 0.0012083
12230.0 0.0011991
12250.0 0.0011922
12270.0 0.001188
12290.0 0.0011864
12310.0 0.0011874
12330.0 0.001191
12350.0 0.0011972
12370.0 0.0012054
12390.0 0.001216
12410.0 0.0012296
12430.0 0.0012443
12450.0 0.0012606
12470.0 0.001279
12490.0 0.0012986
12510.0 0.001318
12530.0 0.0013385
12550.0 0.0013597
12570.0 0.0013795
12590.0 0.0013981
12610.0 0.0014161
12630.0 0.0014319
12650.0 0.0014442
12670.0 0.0014543
12690.0 0.0014612
12710.0 0.0014645
12730.0 0.0014644
12750.0 0.0014608
12770.0 0.0014537
12790.0 0.0014436
12810.0 0.0014306
12830.0 0.0014147
12850.0 0.0013975
12870.0 0.0013789
12890.0 0.0013586
12910.0 0.001338
12930.0 0.0013177
12950.0 0.0012969
12970.0 0.0012762
12990.0 0.0012568
13010.0 0.0012381
13030.0 0.0012196
13050.0 0.0012021
13070.0 0.0011856
13090.0 0.0011692
13110.0 0.001153
13130.0 0.0011377
13150.0 0.0011225
13170.0 0.0011069
13190.0 0.0010919
13210.0 0.0010775
13230.0 0.0010629
13250.0 0.0010487
13270.0 0.0010355
13290.0 0.0010229
13310.0 0.0010109
13330.0 0.0010005
13350.0 0.00099153
13370.0 0.00098388
13390.0 0.00097782
13410.0 0.00097349
13430.0 0.00097047
13450.0 0.00096864
13470.0 0.00096765
13490.0 0.00096709
13510.0 0.00096668
13530.0 0.00096582
13550.0 0.00096413
13570.0 0.00096131
13590.0 0.00095696
13610.0 0.00095107
13630.0 0.00094371
13650.0 0.00093448
13670.0 0.00092377
13690.0 0.00091217
13710.0 0.00089949
13730.0 0.00088559
13750.0 0.00087215
13770.0 0.00085889
13790.0 0.00084564
13810.0 0.00083312
13830.0 0.00082192
13850.0 0.00081135
13870.0 0.00080172
13890.0 0.00079346
13910.0 0.00078629
13930.0 0.00077987
13950.0 0.00077439
13970.0 0.00076985
13990.0 0.00076576
14010.0 0.00076206
14030.0 0.00075872
14050.0 0.00075553
14070.0 0.00075219
14090.0 0.00074877
14110.0 0.00074516
14130.0 0.00074114
14150.0 0.00073659
14170.0 0.00073178
14190.0 0.00072654
14210.0 0.00072069
14230.0 0.00071457
14250.0 0.00070837
14270.0 0.0007018
14290.0 0.00069512
14310.0 0.0006889
14330.0 0.00068295
14350.0 0.00067728
14370.0 0.00067228
14390.0 0.00066805
14410.0 0.00066434
14430.0 0.00066136
14450.0 0.00065916
14470.0 0.00065759
14490.0 0.00065658
14510.0 0.00065615
14530.0 0.00065616
14550.0 0.00065658
14570.0 0.00065741
14590.0 0.00065856
14610.0 0.00066013
14630.0 0.00066223
14650.0 0.00066477
14670.0 0.00066781
14690.0 0.00067159
14710.0 0.00067613
14730.0 0.0006811
14750.0 0.00068689
14770.0 0.00069362
14790.0 0.00070099
14810.0 0.00070897
14830.0 0.00071839
14850.0 0.00072866
14870.0 0.00073949
14890.0 0.00075136
14910.0 0.00076428
14930.0 0.0007771
14950.0 0.00078949
14970.0 0.00080166
14990.0 0.00081237
15010.0 0.00082105
15030.0 0.000828
15050.0 0.00083322
15070.0 0.00083654
15090.0 0.00083869
15110.0 0.00084004
15130.0 0.00084085
15150.0 0.00084138
15170.0 0.00084177
15190.0 0.0008421
15210.0 0.00084242
15230.0 0.00084274
15250.0 0.00084307
15270.0 0.00084341
15290.0 0.00084378
15310.0 0.00084416
15330.0 0.00084455
15350.0 0.00084496
15370.0 0.00084538
15390.0 0.0008458
15410.0 0.00084624
15430.0 0.0008467
15450.0 0.00084717
15470.0 0.00084764
15490.0 0.00084813
15510.0 0.00084863
15530.0 0.00084914
15550.0 0.00084965
15570.0 0.00085019
15590.0 0.00085072
15610.0 0.00085125
15630.0 0.00085181
15650.0 0.00085237
15670.0 0.00085293
15690.0 0.0008535
15710.0 0.00085408
15730.0 0.00085466
15750.0 0.00085524
15770.0 0.00085584
15790.0 0.00085643
15810.0 0.00085702
15830.0 0.00085762
15850.0 0.00085823
15870.0 0.00085883
15890.0 0.00085944
15910.0 0.00086005
15930.0 0.00086066
15950.0 0.00086126
15970.0 0.00086187
15990.0 0.00086248
16010.0 0.00086308
16030.0 0.00086368
16050.0 0.00086429
16070.0 0.00086489
16090.0 0.00086547
16110.0 0.00086607
16130.0 0.00086666
16150.0 0.00086723
16170.0 0.0008678
16190.0 0.00086837
16210.0 0.00086893
16230.0 0.00086948
16250.0 0.00087003
16270.0 0.00087057
16290.0 0.00087109
16310.0 0.00087161
16330.0 0.00087212
16350.0 0.00087262
16370.0 0.00087309
16390.0 0.00087357
16410.0 0.00087404
16430.0 0.00087448
16450.0 0.00087491
16470.0 0.00087535
16490.0 0.00087575
16510.0 0.00087613
16530.0 0.00087651
16550.0 0.00087688
16570.0 0.00087721
16590.0 0.00087753
16610.0 0.00087785
16630.0 0.00087814
16650.0 0.0008784
16670.0 0.00087866
16690.0 0.00087889
16710.0 0.00087909
16730.0 0.00087928
16750.0 0.00087945
16770.0 0.00087959
16790.0 0.00087971
16810.0 0.00087981
16830.0 0.00087989
16850.0 0.00087994
16870.0 0.00087996
16890.0 0.00087997
16910.0 0.00087994
16930.0 0.00087988
16950.0 0.00087981
16970.0 0.00087971
16990.0 0.00087957
17010.0 0.00087941
17030.0 0.00087924
17050.0 0.00087901
17070.0 0.00087876
17090.0 0.00087849
17110.0 0.00087819
17130.0 0.00087784
17150.0 0.00087748
17170.0 0.00087709
17190.0 0.00087666
17210.0 0.00087619
17230.0 0.00087571
17250.0 0.00087519
17270.0 0.00087462
17290.0 0.00087403
17310.0 0.00087342
17330.0 0.00087276
17350.0 0.00087206
17370.0 0.00087135
17390.0 0.00087059
17410.0 0.0008698
17430.0 0.00086897
17450.0 0.00086812
17470.0 0.00086722
17490.0 0.00086628
17510.0 0.00086533
17530.0 0.00086433
17550.0 0.00086329
17570.0 0.00086223
17590.0 0.00086113
17610.0 0.00085999
17630.0 0.00085881
17650.0 0.00085761
17670.0 0.00085637
17690.0 0.00085507
17710.0 0.00085377
17730.0 0.00085243
17750.0 0.00085104
17770.0 0.00084962
17790.0 0.00084818
17810.0 0.00084669
17830.0 0.00084516
17850.0 0.00084361
17870.0 0.00084203
17890.0 0.00084039
17910.0 0.00083874
17930.0 0.00083706
17950.0 0.00083533
17970.0 0.00083357
17990.0 0.00083179
18010.0 0.00082998
18030.0 0.00082811
18050.0 0.00082623
18070.0 0.00082432
18090.0 0.00082237
18110.0 0.00082039
18130.0 0.00081839
18150.0 0.00081636
18170.0 0.00081428
18190.0 0.00081219
18210.0 0.00081007
18230.0 0.00080791
18250.0 0.00080572
18270.0 0.00080352
18290.0 0.00080129
18310.0 0.00079902
18330.0 0.00079674
18350.0 0.00079443
18370.0 0.00079209
18390.0 0.00078972
18410.0 0.00078734
18430.0 0.00078493
18450.0 0.00078248
18470.0 0.00078003
18490.0 0.00077756
18510.0 0.00077505
18530.0 0.00077253
18550.0 0.00077
18570.0 0.00076743
18590.0 0.00076484
18610.0 0.00076224
18630.0 0.00075963
18650.0 0.00075699
18670.0 0.00075433
18690.0 0.00075167
18710.0 0.00074898
18730.0 0.00074627
18750.0 0.00074356
18770.0 0.00074084
18790.0 0.00073808
18810.0 0.00073532
18830.0 0.00073255
18850.0 0.00072977
18870.0 0.00072697
18890.0 0.00072417
18910.0 0.00072136
18930.0 0.00071852
18950.0 0.00071569
18970.0 0.00071285
18990.0 0.00071
19010.0 0.00070712
19030.0 0.00070426
19050.0 0.00070139
19070.0 0.00069851
19090.0 0.00069562
19110.0 0.00069274
19130.0 0.00068984
19150.0 0.00068694
19170.0 0.00068404
19190.0 0.00068114
19210.0 0.00067822
19230.0 0.00067531
19250.0 0.00067241
19270.0 0.0006695
19290.0 0.00066658
19310.0 0.00066367
19330.0 0.00066077
19350.0 0.00065785
19370.0 0.00065494
19390.0 0.00065204
19410.0 0.00064913
19430.0 0.00064622
19450.0 0.00064333
19470.0 0.00064044
19490.0 0.00063754
19510.0 0.00063465
19530.0 0.00063178
19550.0 0.0006289
19570.0 0.00062602
19590.0 0.00062316
19610.0 0.0006203
19630.0 0.00061745
19650.0 0.0006146
19670.0 0.00061177
19690.0 0.00060894
19710.0 0.00060611
19730.0 0.0006033
19750.0 0.0006005
19770.0 0.0005977
19790.0 0.00059491
19810.0 0.00059213
19830.0 0.00058935
19850.0 0.00058654
19870.0 0.00058371
19890.0 0.00058076
19910.0 0.00057758
19930.0 0.00057409
19950.0 0.00057011
19970.0 0.00056533
19990.0 0.00055961
20010.0 0.00055308
20030.0 0.0005454
20050.0 0.00053662
20070.0 0.00052727
20090.0 0.00051742
20110.0 0.00050674
20130.0 0.00049616
20150.0 0.00048589
20170.0 0.00047556
20190.0 0.00046533
20210.0 0.00045574
20230.0 0.00044646
20250.0 0.00043724
20270.0 0.00042855
20290.0 0.0004204
20310.0 0.00041242
20330.0 0.00040462
20350.0 0.00039756
20370.0 0.00039075
20390.0 0.00038412
20410.0 0.0003779
20430.0 0.00037213
20450.0 0.00036644
20470.0 0.00036108
20490.0 0.00035616
20510.0 0.00035154
20530.0 0.00034713
20550.0 0.00034312
20570.0 0.00033952
20590.0 0.00033616
20610.0 0.00033313
20630.0 0.00033047
20650.0 0.00032809
20670.0 0.00032598
20690.0 0.0003242
20710.0 0.00032268
20730.0 0.00032139
20750.0 0.00032033
20770.0 0.00031945
20790.0 0.00031872
20810.0 0.00031815
20830.0 0.00031765
20850.0 0.0003172
20870.0 0.00031683
20890.0 0.00031645
20910.0 0.00031599
20930.0 0.00031549
20950.0 0.00031491
20970.0 0.00031418
20990.0 0.00031332
21010.0 0.00031231
21030.0 0.00031111
21050.0 0.00030974
21070.0 0.00030817
21090.0 0.00030638
21110.0 0.00030443
21130.0 0.00030231
21150.0 0.00029999
21170.0 0.0002975
21190.0 0.00029493
21210.0 0.00029217
21230.0 0.00028924
21250.0 0.0002863
21270.0 0.00028327
21290.0 0.00028012
21310.0 0.00027694
21330.0 0.00027383
21350.0 0.00027064
21370.0 0.00026744
21390.0 0.00026435
21410.0 0.00026133
21430.0 0.00025827
21450.0 0.0002554
21470.0 0.00025272
21490.0 0.00025014
21510.0 0.00024771
21530.0 0.00024554
21550.0 0.00024355
21570.0 0.00024175
21590.0 0.00024021
21610.0 0.00023892
21630.0 0.00023785
21650.0 0.00023703
21670.0 0.00023644
21690.0 0.00023606
21710.0 0.00023591
21730.0 0.00023593
21750.0 0.00023608
21770.0 0.00023644
21790.0 0.00023691
21810.0 0.00023742
21830.0 0.000238
21850.0 0.00023865
21870.0 0.00023927
21890.0 0.00023983
21910.0 0.00024039
21930.0 0.00024088
21950.0 0.00024124
21970.0 0.00024152
21990.0 0.00024174
22010.0 0.0002418
22030.0 0.00024173
22050.0 0.00024156
22070.0 0.00024128
22090.0 0.00024087
22110.0 0.00024036
22130.0 0.00023977
22150.0 0.00023908
22170.0 0.00023832
22190.0 0.00023747
22210.0 0.00023656
22230.0 0.00023559
22250.0 0.00023455
22270.0 0.00023344
22290.0 0.00023227
22310.0 0.00023104
22330.0 0.00022971
22350.0 0.00022829
22370.0 0.00022681
22390.0 0.0002252
22410.0 0.00022344
22430.0 0.00022161
22450.0 0.00021966
22470.0 0.00021752
22490.0 0.00021526
22510.0 0.00021292
22530.0 0.00021037
22550.0 0.00020765
22570.0 0.0002049
22590.0 0.00020205
22610.0 0.00019904
22630.0 0.00019599
22650.0 0.00019302
22670.0 0.00018993
22690.0 0.00018683
22710.0 0.00018386
22730.0 0.00018096
22750.0 0.000178
22770.0 0.00017525
22790.0 0.00017268
22810.0 0.00017018
22830.0 0.00016781
22850.0 0.00016568
22870.0 0.00016367
22890.0 0.00016175
22910.0 0.00016002
22930.0 0.00015846
22950.0 0.00015698
22970.0 0.0001556
22990.0 0.00015439
23010.0 0.00015324
23030.0 0.00015213
23050.0 0.00015109
23070.0 0.00015011
23090.0 0.0001491
23110.0 0.0001481
23130.0 0.00014711
23150.0 0.0001461
