#lamb flux
1010.0 4.353e-08
1030.0 4.7676e-08
1050.0 5.2446e-08
1070.0 5.7815e-08
1090.0 6.3915e-08
1110.0 7.0171e-08
1130.0 7.6469e-08
1150.0 8.3066e-08
1170.0 8.9873e-08
1190.0 9.6328e-08
1210.0 1.0287e-07
1230.0 1.0963e-07
1250.0 1.1626e-07
1270.0 1.227e-07
1290.0 1.295e-07
1310.0 1.363e-07
1330.0 1.4283e-07
1350.0 1.4942e-07
1370.0 1.5624e-07
1390.0 1.6288e-07
1410.0 1.6933e-07
1430.0 1.7608e-07
1450.0 1.8282e-07
1470.0 1.8934e-07
1490.0 1.9593e-07
1510.0 2.0289e-07
1530.0 2.0949e-07
1550.0 2.16e-07
1570.0 2.2273e-07
1590.0 2.2947e-07
1610.0 2.3591e-07
1630.0 2.4254e-07
1650.0 2.4935e-07
1670.0 2.5593e-07
1690.0 2.6241e-07
1710.0 2.6915e-07
1730.0 2.7591e-07
1750.0 2.8225e-07
1770.0 2.8877e-07
1790.0 2.9541e-07
1810.0 3.0182e-07
1830.0 3.0809e-07
1850.0 3.1473e-07
1870.0 3.2117e-07
1890.0 3.2735e-07
1910.0 3.3363e-07
1930.0 3.4002e-07
1950.0 3.4607e-07
1970.0 3.5199e-07
1990.0 3.5809e-07
2010.0 3.6403e-07
2030.0 3.6966e-07
2050.0 3.7541e-07
2070.0 3.8123e-07
2090.0 3.8659e-07
2110.0 3.9184e-07
2130.0 3.9716e-07
2150.0 4.0225e-07
2170.0 4.0694e-07
2190.0 4.1172e-07
2210.0 4.164e-07
2230.0 4.2068e-07
2250.0 4.2478e-07
2270.0 4.2898e-07
2290.0 4.328e-07
2310.0 4.3619e-07
2330.0 4.3957e-07
2350.0 4.4281e-07
2370.0 4.4561e-07
2390.0 4.4829e-07
2410.0 4.5113e-07
2430.0 4.5371e-07
2450.0 4.562e-07
2470.0 4.5912e-07
2490.0 4.6284e-07
2510.0 4.6748e-07
2530.0 4.7507e-07
2550.0 4.8876e-07
2570.0 5.1155e-07
2590.0 5.4692e-07
2610.0 6.0436e-07
2630.0 6.8532e-07
2650.0 7.8445e-07
2670.0 9.0209e-07
2690.0 1.0329e-06
2710.0 1.1577e-06
2730.0 1.2679e-06
2750.0 1.3654e-06
2770.0 1.4409e-06
2790.0 1.4942e-06
2810.0 1.5336e-06
2830.0 1.5648e-06
2850.0 1.5869e-06
2870.0 1.6056e-06
2890.0 1.6244e-06
2910.0 1.6426e-06
2930.0 1.6588e-06
2950.0 1.6762e-06
2970.0 1.6943e-06
2990.0 1.7108e-06
3010.0 1.5713e-05
3030.0 1.5866e-05
3050.0 1.6011e-05
3070.0 1.6121e-05
3090.0 1.621e-05
3110.0 1.6246e-05
3130.0 1.6192e-05
3150.0 1.6027e-05
3170.0 1.5715e-05
3190.0 1.5258e-05
3210.0 1.4698e-05
3230.0 1.41e-05
3250.0 1.4044e-05
3270.0 1.3595e-05
3290.0 1.413e-05
3310.0 1.362e-05
3330.0 1.3881e-05
3350.0 1.4349e-05
3370.0 1.4962e-05
3390.0 1.5688e-05
3410.0 1.6439e-05
3430.0 1.7244e-05
3450.0 1.8108e-05
3470.0 1.8979e-05
3490.0 1.9815e-05
3510.0 2.0872e-05
3530.0 2.2137e-05
3550.0 2.2936e-05
3570.0 2.3526e-05
3590.0 2.5074e-05
3610.0 2.546e-05
3630.0 2.7371e-05
3650.0 2.8779e-05
3670.0 3.0272e-05
3690.0 3.0508e-05
3710.0 2.966e-05
3730.0 3.0095e-05
3750.0 3.0098e-05
3770.0 3.1338e-05
3790.0 3.3187e-05
3810.0 3.6917e-05
3830.0 4.4669e-05
3850.0 5.3203e-05
3870.0 6.1256e-05
3890.0 6.6555e-05
3910.0 6.9026e-05
3930.0 7.18e-05
3950.0 7.4633e-05
3970.0 6.5449e-05
3990.0 4.4455e-05
4010.0 3.8441e-05
4030.0 5.2523e-05
4050.0 6.6217e-05
4070.0 5.8855e-05
4090.0 3.6281e-05
4110.0 3.53e-05
4130.0 5.0199e-05
4150.0 5.6906e-05
4170.0 4.7907e-05
4190.0 4.0875e-05
4210.0 5.3627e-05
4230.0 5.6318e-05
4250.0 5.3491e-05
4270.0 5.389e-05
4290.0 4.9137e-05
4310.0 5.5161e-05
4330.0 6.4289e-05
4350.0 7.3845e-05
4370.0 7.3529e-05
4390.0 7.1674e-05
4410.0 6.3261e-05
4430.0 4.9901e-05
4450.0 3.7983e-05
4470.0 4.1205e-05
4490.0 4.46e-05
4510.0 6.1092e-05
4530.0 6.3707e-05
4550.0 6.2713e-05
4570.0 7.2864e-05
4590.0 9.292e-05
4610.0 0.00012712
4630.0 0.00015593
4650.0 0.00015743
4670.0 0.00016252
4690.0 0.00017516
4710.0 0.00017153
4730.0 0.00013826
4750.0 9.8571e-05
4770.0 8.2309e-05
4790.0 7.2573e-05
4810.0 6.8779e-05
4830.0 7.5156e-05
4850.0 8.4407e-05
4870.0 9.9093e-05
4890.0 0.0001088
4910.0 9.6865e-05
4930.0 0.00010081
4950.0 0.00012533
4970.0 0.00015525
4990.0 0.0001784
5010.0 0.00017833
5030.0 0.00015103
5050.0 0.00010934
5070.0 8.0116e-05
5090.0 6.9301e-05
5110.0 7.1131e-05
5130.0 7.7475e-05
5150.0 7.2945e-05
5170.0 7.2664e-05
5190.0 7.235e-05
5210.0 7.3713e-05
5230.0 7.9872e-05
5250.0 8.2555e-05
5270.0 8.9057e-05
5290.0 0.000107
5310.0 0.00012144
5330.0 0.00012843
5350.0 0.00013117
5370.0 0.00014026
5390.0 0.00014605
5410.0 0.0001344
5430.0 0.00012258
5450.0 0.0001254
5470.0 0.00014874
5490.0 0.00019095
5510.0 0.00022972
5530.0 0.00024213
5550.0 0.00023534
5570.0 0.0002227
5590.0 0.00020873
5610.0 0.00019988
5630.0 0.00020355
5650.0 0.00021046
5670.0 0.00020393
5690.0 0.0001922
5710.0 0.0001877
5730.0 0.0001662
5750.0 0.00013281
5770.0 0.00012108
5790.0 0.00013654
5810.0 0.00015214
5830.0 0.00017004
5850.0 0.00017492
5870.0 0.0001705
5890.0 0.00016173
5910.0 0.00015086
5930.0 0.00015064
5950.0 0.00015923
5970.0 0.00016279
5990.0 0.00014395
6010.0 0.0001173
6030.0 9.5006e-05
6050.0 8.5968e-05
6070.0 9.114e-05
6090.0 0.00010235
6110.0 0.00010488
6130.0 9.8234e-05
6150.0 9.7364e-05
6170.0 0.00010763
6190.0 0.00012561
6210.0 0.00015045
6230.0 0.00016985
6250.0 0.00016114
6270.0 0.00014069
6290.0 0.0001175
6310.0 9.3179e-05
6330.0 7.8933e-05
6350.0 7.7932e-05
6370.0 8.5536e-05
6390.0 9.4366e-05
6410.0 0.0001104
6430.0 0.00013587
6450.0 0.00016729
6470.0 0.00019627
6490.0 0.00022186
6510.0 0.00023514
6530.0 0.00022687
6550.0 0.00021795
6570.0 0.00021899
6590.0 0.0002177
6610.0 0.0002072
6630.0 0.00019516
6650.0 0.00018157
6670.0 0.00017985
6690.0 0.00017531
6710.0 0.00016211
6730.0 0.00014104
6750.0 0.00012569
6770.0 0.00012965
6790.0 0.00013841
6810.0 0.00015039
6830.0 0.00015332
6850.0 0.00014409
6870.0 0.00013985
6890.0 0.00013703
6910.0 0.00012949
6930.0 0.00012505
6950.0 0.00012599
6970.0 0.00012869
6990.0 0.0001361
7010.0 0.00014651
7030.0 0.00014363
7050.0 0.00013016
7070.0 0.00011694
7090.0 9.993e-05
7110.0 8.9008e-05
7130.0 9.353e-05
7150.0 0.00010133
7170.0 0.00010324
7190.0 0.00010089
7210.0 9.9835e-05
7230.0 0.0001121
7250.0 0.00012767
7270.0 0.00013741
7290.0 0.00013868
7310.0 0.00013188
7330.0 0.00012113
7350.0 0.00011203
7370.0 0.0001064
7390.0 0.00010522
7410.0 0.00011248
7430.0 0.00012957
7450.0 0.00014466
7470.0 0.00016284
7490.0 0.00018618
7510.0 0.00017797
7530.0 0.00014986
7550.0 0.00012633
7570.0 0.00010503
7590.0 8.6892e-05
7610.0 8.4105e-05
7630.0 8.8318e-05
7650.0 9.7454e-05
7670.0 0.00011163
7690.0 0.00012288
7710.0 0.00013858
7730.0 0.00014485
7750.0 0.00014983
7770.0 0.00015846
7790.0 0.00015995
7810.0 0.00015754
7830.0 0.00014918
7850.0 0.00014577
7870.0 0.00014103
7890.0 0.00012959
7910.0 0.00011808
7930.0 0.00010734
7950.0 9.2163e-05
7970.0 8.7608e-05
7990.0 9.0482e-05
8010.0 0.00010484
8030.0 0.00010544
8050.0 0.00010946
8070.0 0.00010761
8090.0 0.00010757
8110.0 0.00010488
8130.0 9.9006e-05
8150.0 9.2002e-05
8170.0 9.1181e-05
8190.0 9.2367e-05
8210.0 9.331e-05
8230.0 8.7366e-05
8250.0 8.2071e-05
8270.0 7.2228e-05
8290.0 5.933e-05
8310.0 4.6955e-05
8330.0 3.3618e-05
8350.0 2.5263e-05
8370.0 2.3733e-05
8390.0 2.6171e-05
8410.0 3.0881e-05
8430.0 3.8733e-05
8450.0 4.2763e-05
8470.0 4.5814e-05
8490.0 5.0349e-05
8510.0 5.3975e-05
8530.0 5.9859e-05
8550.0 7.0685e-05
8570.0 8.0639e-05
8590.0 8.8369e-05
8610.0 0.00010163
8630.0 0.00011752
8650.0 0.00012375
8670.0 0.00012553
8690.0 0.00012489
8710.0 0.00012053
8730.0 0.00011551
8750.0 0.00010827
8770.0 0.00010637
8790.0 0.00010283
8810.0 9.5058e-05
8830.0 8.9796e-05
8850.0 7.8218e-05
8870.0 7.1635e-05
8890.0 6.5927e-05
8910.0 7.228e-05
8930.0 6.8352e-05
8950.0 6.9559e-05
8970.0 7.0839e-05
8990.0 7.0343e-05
9010.0 7.1238e-05
9030.0 6.8741e-05
9050.0 6.8566e-05
9070.0 6.8635e-05
9090.0 6.8704e-05
9110.0 6.8802e-05
9130.0 6.8874e-05
9150.0 6.8939e-05
9170.0 6.8907e-05
9190.0 6.8743e-05
9210.0 6.9462e-05
9230.0 6.9395e-05
9250.0 6.9412e-05
9270.0 6.9453e-05
9290.0 6.9513e-05
9310.0 6.9585e-05
9330.0 6.9665e-05
9350.0 6.9754e-05
9370.0 6.9847e-05
9390.0 6.9942e-05
9410.0 7.0042e-05
9430.0 7.0146e-05
9450.0 7.0251e-05
9470.0 7.0358e-05
9490.0 7.0471e-05
9510.0 7.0585e-05
9530.0 7.0701e-05
9550.0 7.0824e-05
9570.0 7.0949e-05
9590.0 7.1077e-05
9610.0 7.1208e-05
9630.0 7.1345e-05
9650.0 7.1484e-05
9670.0 7.1624e-05
9690.0 7.1771e-05
9710.0 7.1922e-05
9730.0 7.2073e-05
9750.0 7.2229e-05
9770.0 7.2392e-05
9790.0 7.2555e-05
9810.0 7.272e-05
9830.0 7.2891e-05
9850.0 7.3066e-05
9870.0 7.324e-05
9890.0 7.3418e-05
9910.0 7.3602e-05
9930.0 7.3787e-05
9950.0 7.3925e-05
9970.0 7.4131e-05
9990.0 7.4337e-05
10010.0 7.4526e-05
10030.0 7.4727e-05
10050.0 7.4902e-05
10070.0 7.4935e-05
10090.0 7.5194e-05
10110.0 7.5447e-05
10130.0 7.5685e-05
10150.0 7.5915e-05
10170.0 7.6133e-05
10190.0 7.6339e-05
10210.0 7.6548e-05
10230.0 7.6758e-05
10250.0 7.696e-05
10270.0 7.7162e-05
10290.0 7.7369e-05
10310.0 7.7568e-05
10330.0 7.7762e-05
10350.0 7.7961e-05
10370.0 7.8159e-05
10390.0 7.8349e-05
10410.0 7.8538e-05
10430.0 7.8731e-05
10450.0 7.8916e-05
10470.0 7.9094e-05
10490.0 7.9275e-05
10510.0 7.9452e-05
10530.0 7.9617e-05
10550.0 7.9782e-05
10570.0 7.9948e-05
10590.0 8.0105e-05
10610.0 8.0255e-05
10630.0 8.0406e-05
10650.0 8.0551e-05
10670.0 8.0683e-05
10690.0 8.0814e-05
10710.0 8.0943e-05
10730.0 8.1062e-05
10750.0 8.117e-05
10770.0 8.1281e-05
10790.0 8.1384e-05
10810.0 8.1474e-05
10830.0 8.1558e-05
10850.0 8.1632e-05
10870.0 8.1673e-05
10890.0 8.1669e-05
10910.0 8.1604e-05
10930.0 8.1425e-05
10950.0 8.1057e-05
10970.0 8.0467e-05
10990.0 7.9638e-05
11010.0 8.0219e-05
11030.0 7.8553e-05
11050.0 7.6643e-05
11070.0 7.4457e-05
11090.0 7.1935e-05
11110.0 6.9434e-05
11130.0 6.6938e-05
11150.0 6.4385e-05
11170.0 6.1914e-05
11190.0 5.9682e-05
11210.0 5.7549e-05
11230.0 5.5551e-05
11250.0 5.382e-05
11270.0 5.2312e-05
11290.0 5.0946e-05
11310.0 4.9773e-05
11330.0 4.8821e-05
11350.0 4.7967e-05
11370.0 4.719e-05
11390.0 4.6493e-05
11410.0 4.5824e-05
11430.0 4.5104e-05
11450.0 4.4353e-05
11470.0 4.3564e-05
11490.0 4.2685e-05
11510.0 4.1694e-05
11530.0 4.0668e-05
11550.0 3.9586e-05
11570.0 3.8411e-05
11590.0 3.7212e-05
11610.0 3.6037e-05
11630.0 3.4825e-05
11650.0 3.3609e-05
11670.0 3.2485e-05
11690.0 3.1412e-05
11710.0 3.0365e-05
11730.0 2.9396e-05
11750.0 2.8527e-05
11770.0 2.7688e-05
11790.0 2.69e-05
11810.0 2.6186e-05
11830.0 2.5515e-05
11850.0 2.4847e-05
11870.0 2.4221e-05
11890.0 2.3627e-05
11910.0 2.3022e-05
11930.0 2.241e-05
11950.0 2.1814e-05
11970.0 2.1206e-05
11990.0 2.0564e-05
12010.0 1.9931e-05
12030.0 1.9307e-05
12050.0 1.8669e-05
12070.0 1.8031e-05
12090.0 1.7449e-05
12110.0 1.6891e-05
12130.0 1.6364e-05
12150.0 1.5904e-05
12170.0 1.5519e-05
12190.0 1.5192e-05
12210.0 1.4959e-05
12230.0 1.4824e-05
12250.0 1.4782e-05
12270.0 1.4843e-05
12290.0 1.5e-05
12310.0 1.5237e-05
12330.0 1.5572e-05
12350.0 1.5982e-05
12370.0 1.6434e-05
12390.0 1.6936e-05
12410.0 1.7498e-05
12430.0 1.8036e-05
12450.0 1.8559e-05
12470.0 1.908e-05
12490.0 1.9561e-05
12510.0 1.9971e-05
12530.0 2.0339e-05
12550.0 2.065e-05
12570.0 2.088e-05
12590.0 2.1039e-05
12610.0 2.1135e-05
12630.0 2.1159e-05
12650.0 2.1114e-05
12670.0 2.1013e-05
12690.0 2.0856e-05
12710.0 2.0653e-05
12730.0 2.0412e-05
12750.0 2.0126e-05
12770.0 1.9812e-05
12790.0 1.9482e-05
12810.0 1.9125e-05
12830.0 1.8743e-05
12850.0 1.8358e-05
12870.0 1.7961e-05
12890.0 1.7536e-05
12910.0 1.71e-05
12930.0 1.666e-05
12950.0 1.6187e-05
12970.0 1.5688e-05
12990.0 1.5192e-05
13010.0 1.4682e-05
13030.0 1.4146e-05
13050.0 1.3612e-05
13070.0 1.3098e-05
13090.0 1.2574e-05
13110.0 1.2064e-05
13130.0 1.1594e-05
13150.0 1.1157e-05
13170.0 1.0743e-05
13190.0 1.039e-05
13210.0 1.0097e-05
13230.0 9.8496e-06
13250.0 9.6576e-06
13270.0 9.5245e-06
13290.0 9.4397e-06
13310.0 9.4019e-06
13330.0 9.4065e-06
13350.0 9.4432e-06
13370.0 9.5089e-06
13390.0 9.5963e-06
13410.0 9.6869e-06
13430.0 9.7833e-06
13450.0 9.8805e-06
13470.0 9.9668e-06
13490.0 1.0039e-05
13510.0 1.0104e-05
13530.0 1.0153e-05
13550.0 1.0185e-05
13570.0 1.0205e-05
13590.0 1.0217e-05
13610.0 1.0219e-05
13630.0 1.0216e-05
13650.0 1.0211e-05
13670.0 1.0205e-05
13690.0 1.0198e-05
13710.0 1.0193e-05
13730.0 1.019e-05
13750.0 1.0185e-05
13770.0 1.018e-05
13790.0 1.0173e-05
13810.0 1.016e-05
13830.0 1.0141e-05
13850.0 1.0113e-05
13870.0 1.0075e-05
13890.0 1.0025e-05
13910.0 9.9648e-06
13930.0 9.8906e-06
13950.0 9.8053e-06
13970.0 9.715e-06
13990.0 9.6166e-06
14010.0 9.5132e-06
14030.0 9.4123e-06
14050.0 9.3145e-06
14070.0 9.2175e-06
14090.0 9.1302e-06
14110.0 9.0536e-06
14130.0 8.985e-06
14150.0 8.926e-06
14170.0 8.879e-06
14190.0 8.8415e-06
14210.0 8.813e-06
14230.0 8.7947e-06
14250.0 8.7858e-06
14270.0 8.7872e-06
14290.0 8.8002e-06
14310.0 8.823e-06
14330.0 8.857e-06
14350.0 8.9042e-06
14370.0 8.9619e-06
14390.0 9.0272e-06
14410.0 9.1055e-06
14430.0 9.1933e-06
14450.0 9.2851e-06
14470.0 9.3838e-06
14490.0 9.4946e-06
14510.0 9.6076e-06
14530.0 9.7241e-06
14550.0 9.8539e-06
14570.0 9.9961e-06
14590.0 1.0146e-05
14610.0 1.0314e-05
14630.0 1.0511e-05
14650.0 1.0725e-05
14670.0 1.0958e-05
14690.0 1.1226e-05
14710.0 1.1526e-05
14730.0 1.1831e-05
14750.0 1.2164e-05
14770.0 1.2525e-05
14790.0 1.2888e-05
14810.0 1.3248e-05
14830.0 1.363e-05
14850.0 1.3997e-05
14870.0 1.4334e-05
14890.0 1.4653e-05
14910.0 1.4948e-05
14930.0 1.5196e-05
14950.0 1.5399e-05
14970.0 1.5566e-05
14990.0 1.5686e-05
15010.0 1.5763e-05
15030.0 1.5805e-05
15050.0 1.5818e-05
15070.0 1.5809e-05
15090.0 1.5785e-05
15110.0 1.5751e-05
15130.0 1.5712e-05
15150.0 1.5673e-05
15170.0 1.563e-05
15190.0 1.5587e-05
15210.0 1.5545e-05
15230.0 1.5504e-05
15250.0 1.5461e-05
15270.0 1.5418e-05
15290.0 1.5379e-05
15310.0 1.5338e-05
15330.0 1.5296e-05
15350.0 1.5257e-05
15370.0 1.5218e-05
15390.0 1.5176e-05
15410.0 1.5136e-05
15430.0 1.5098e-05
15450.0 1.5058e-05
15470.0 1.5018e-05
15490.0 1.498e-05
15510.0 1.4943e-05
15530.0 1.4903e-05
15550.0 1.4865e-05
15570.0 1.4828e-05
15590.0 1.479e-05
15610.0 1.475e-05
15630.0 1.4714e-05
15650.0 1.4676e-05
15670.0 1.4638e-05
15690.0 1.4601e-05
15710.0 1.4565e-05
15730.0 1.4527e-05
15750.0 1.4489e-05
15770.0 1.4453e-05
15790.0 1.4416e-05
15810.0 1.4377e-05
15830.0 1.434e-05
15850.0 1.4304e-05
15870.0 1.4267e-05
15890.0 1.4229e-05
15910.0 1.4194e-05
15930.0 1.4157e-05
15950.0 1.4119e-05
15970.0 1.4082e-05
15990.0 1.4046e-05
16010.0 1.4008e-05
16030.0 1.3969e-05
16050.0 1.3934e-05
16070.0 1.3897e-05
16090.0 1.3858e-05
16110.0 1.3821e-05
16130.0 1.3785e-05
16150.0 1.3746e-05
16170.0 1.3708e-05
16190.0 1.3671e-05
16210.0 1.3633e-05
16230.0 1.3594e-05
16250.0 1.3557e-05
16270.0 1.352e-05
16290.0 1.348e-05
16310.0 1.3442e-05
16330.0 1.3404e-05
16350.0 1.3365e-05
16370.0 1.3324e-05
16390.0 1.3286e-05
16410.0 1.3248e-05
16430.0 1.3208e-05
16450.0 1.3168e-05
16470.0 1.313e-05
16490.0 1.309e-05
16510.0 1.3048e-05
16530.0 1.3009e-05
16550.0 1.2969e-05
16570.0 1.2927e-05
16590.0 1.2886e-05
16610.0 1.2847e-05
16630.0 1.2805e-05
16650.0 1.2763e-05
16670.0 1.2723e-05
16690.0 1.2682e-05
16710.0 1.2638e-05
16730.0 1.2596e-05
16750.0 1.2555e-05
16770.0 1.2512e-05
16790.0 1.2468e-05
16810.0 1.2426e-05
16830.0 1.2384e-05
16850.0 1.2339e-05
16870.0 1.2296e-05
16890.0 1.2254e-05
16910.0 1.2209e-05
16930.0 1.2163e-05
16950.0 1.212e-05
16970.0 1.2076e-05
16990.0 1.203e-05
17010.0 1.1985e-05
17030.0 1.1941e-05
17050.0 1.1895e-05
17070.0 1.1849e-05
17090.0 1.1804e-05
17110.0 1.1758e-05
17130.0 1.171e-05
17150.0 1.1664e-05
17170.0 1.1619e-05
17190.0 1.1571e-05
17210.0 1.1524e-05
17230.0 1.1478e-05
17250.0 1.143e-05
17270.0 1.1381e-05
17290.0 1.1334e-05
17310.0 1.1286e-05
17330.0 1.1237e-05
17350.0 1.1188e-05
17370.0 1.1141e-05
17390.0 1.1092e-05
17410.0 1.1042e-05
17430.0 1.0994e-05
17450.0 1.0946e-05
17470.0 1.0894e-05
17490.0 1.0844e-05
17510.0 1.0795e-05
17530.0 1.0745e-05
17550.0 1.0694e-05
17570.0 1.0644e-05
17590.0 1.0594e-05
17610.0 1.0543e-05
17630.0 1.0492e-05
17650.0 1.0442e-05
17670.0 1.039e-05
17690.0 1.0337e-05
17710.0 1.0286e-05
17730.0 1.0236e-05
17750.0 1.0183e-05
17770.0 1.0131e-05
17790.0 1.008e-05
17810.0 1.0028e-05
17830.0 9.9742e-06
17850.0 9.9225e-06
17870.0 9.8705e-06
17890.0 9.8165e-06
17910.0 9.7632e-06
17930.0 9.7119e-06
17950.0 9.6586e-06
17970.0 9.6047e-06
17990.0 9.5525e-06
18010.0 9.5e-06
18030.0 9.4447e-06
18050.0 9.3912e-06
18070.0 9.3387e-06
18090.0 9.2846e-06
18110.0 9.2297e-06
18130.0 9.1771e-06
18150.0 9.1239e-06
18170.0 9.0689e-06
18190.0 9.015e-06
18210.0 8.9622e-06
18230.0 8.907e-06
18250.0 8.8515e-06
18270.0 8.7984e-06
18290.0 8.7444e-06
18310.0 8.6891e-06
18330.0 8.635e-06
18350.0 8.582e-06
18370.0 8.5266e-06
18390.0 8.4715e-06
18410.0 8.4179e-06
18430.0 8.3636e-06
18450.0 8.3072e-06
18470.0 8.253e-06
18490.0 8.1996e-06
18510.0 8.1444e-06
18530.0 8.0893e-06
18550.0 8.0361e-06
18570.0 7.9814e-06
18590.0 7.9253e-06
18610.0 7.8711e-06
18630.0 7.8173e-06
18650.0 7.7618e-06
18670.0 7.7063e-06
18690.0 7.6533e-06
18710.0 7.5988e-06
18730.0 7.5434e-06
18750.0 7.4895e-06
18770.0 7.4362e-06
18790.0 7.3799e-06
18810.0 7.325e-06
18830.0 7.2717e-06
18850.0 7.2173e-06
18870.0 7.1619e-06
18890.0 7.1085e-06
18910.0 7.0553e-06
18930.0 7e-06
18950.0 6.9457e-06
18970.0 6.8927e-06
18990.0 6.8385e-06
19010.0 6.7825e-06
19030.0 6.7298e-06
19050.0 6.6767e-06
19070.0 6.6221e-06
19090.0 6.5683e-06
19110.0 6.5163e-06
19130.0 6.4619e-06
19150.0 6.4074e-06
19170.0 6.3547e-06
19190.0 6.3019e-06
19210.0 6.2473e-06
19230.0 6.1938e-06
19250.0 6.1422e-06
19270.0 6.0888e-06
19290.0 6.0352e-06
19310.0 5.9834e-06
19330.0 5.9313e-06
19350.0 5.8768e-06
19370.0 5.8243e-06
19390.0 5.7728e-06
19410.0 5.7199e-06
19430.0 5.6666e-06
19450.0 5.6157e-06
19470.0 5.5641e-06
19490.0 5.5111e-06
19510.0 5.4594e-06
19530.0 5.4087e-06
19550.0 5.356e-06
19570.0 5.3032e-06
19590.0 5.2529e-06
19610.0 5.2018e-06
19630.0 5.1495e-06
19650.0 5.0988e-06
19670.0 5.049e-06
19690.0 4.9971e-06
19710.0 4.9457e-06
19730.0 4.8958e-06
19750.0 4.8453e-06
19770.0 4.7932e-06
19790.0 4.7433e-06
19810.0 4.694e-06
19830.0 4.643e-06
19850.0 4.5921e-06
19870.0 4.5424e-06
19890.0 4.49e-06
19910.0 4.4339e-06
19930.0 4.376e-06
19950.0 4.313e-06
19970.0 4.2401e-06
19990.0 4.1578e-06
20010.0 4.0698e-06
20030.0 3.9698e-06
20050.0 3.8605e-06
20070.0 3.7501e-06
20090.0 3.6394e-06
20110.0 3.5243e-06
20130.0 3.4177e-06
20150.0 3.3213e-06
20170.0 3.2306e-06
20190.0 3.1478e-06
20210.0 3.0775e-06
20230.0 3.016e-06
20250.0 2.9613e-06
20270.0 2.9167e-06
20290.0 2.8811e-06
20310.0 2.8522e-06
20330.0 2.8304e-06
20350.0 2.8166e-06
20370.0 2.8088e-06
20390.0 2.807e-06
20410.0 2.8113e-06
20430.0 2.8207e-06
20450.0 2.8366e-06
20470.0 2.8584e-06
20490.0 2.8849e-06
20510.0 2.917e-06
20530.0 2.956e-06
20550.0 2.9995e-06
20570.0 3.0458e-06
20590.0 3.0984e-06
20610.0 3.1549e-06
20630.0 3.2121e-06
20650.0 3.2718e-06
20670.0 3.3358e-06
20690.0 3.3968e-06
20710.0 3.4558e-06
20730.0 3.5152e-06
20750.0 3.5726e-06
20770.0 3.6247e-06
20790.0 3.6754e-06
20810.0 3.7251e-06
20830.0 3.7713e-06
20850.0 3.8152e-06
20870.0 3.8608e-06
20890.0 3.9064e-06
20910.0 3.9504e-06
20930.0 3.9967e-06
20950.0 4.0459e-06
20970.0 4.095e-06
20990.0 4.1445e-06
21010.0 4.1975e-06
21030.0 4.2495e-06
21050.0 4.2985e-06
21070.0 4.3462e-06
21090.0 4.3919e-06
21110.0 4.4306e-06
21130.0 4.4635e-06
21150.0 4.4914e-06
21170.0 4.5121e-06
21190.0 4.525e-06
21210.0 4.5313e-06
21230.0 4.53e-06
21250.0 4.5214e-06
21270.0 4.5063e-06
21290.0 4.4842e-06
21310.0 4.456e-06
21330.0 4.4237e-06
21350.0 4.3855e-06
21370.0 4.3423e-06
21390.0 4.2968e-06
21410.0 4.2485e-06
21430.0 4.1949e-06
21450.0 4.1411e-06
21470.0 4.0879e-06
21490.0 4.0328e-06
21510.0 3.9774e-06
21530.0 3.9252e-06
21550.0 3.8745e-06
21570.0 3.8243e-06
21590.0 3.7784e-06
21610.0 3.7373e-06
21630.0 3.6993e-06
21650.0 3.6657e-06
21670.0 3.6395e-06
21690.0 3.6185e-06
21710.0 3.6033e-06
21730.0 3.5949e-06
21750.0 3.5928e-06
21770.0 3.5974e-06
21790.0 3.6091e-06
21810.0 3.6266e-06
21830.0 3.6504e-06
21850.0 3.6815e-06
21870.0 3.7175e-06
21890.0 3.7572e-06
21910.0 3.8035e-06
21930.0 3.8542e-06
21950.0 3.9067e-06
21970.0 3.9631e-06
21990.0 4.0252e-06
22010.0 4.0862e-06
22030.0 4.1476e-06
22050.0 4.2117e-06
22070.0 4.2759e-06
22090.0 4.3362e-06
22110.0 4.3968e-06
22130.0 4.4566e-06
22150.0 4.5116e-06
22170.0 4.5622e-06
22190.0 4.6107e-06
22210.0 4.6534e-06
22230.0 4.6881e-06
22250.0 4.7174e-06
22270.0 4.74e-06
22290.0 4.754e-06
22310.0 4.7601e-06
22330.0 4.7577e-06
22350.0 4.7461e-06
22370.0 4.726e-06
22390.0 4.6966e-06
22410.0 4.6565e-06
22430.0 4.6095e-06
22450.0 4.5547e-06
22470.0 4.4898e-06
22490.0 4.4179e-06
22510.0 4.3419e-06
22530.0 4.2565e-06
22550.0 4.1639e-06
22570.0 4.0705e-06
22590.0 3.9736e-06
22610.0 3.8703e-06
22630.0 3.7662e-06
