#lamb flux
1010.0 3.3364e-07
1030.0 3.7202e-07
1050.0 4.1617e-07
1070.0 4.6586e-07
1090.0 5.2231e-07
1110.0 5.802e-07
1130.0 6.3847e-07
1150.0 6.9951e-07
1170.0 7.6247e-07
1190.0 8.2217e-07
1210.0 8.8268e-07
1230.0 9.452e-07
1250.0 1.0065e-06
1270.0 1.066e-06
1290.0 1.1288e-06
1310.0 1.1916e-06
1330.0 1.2519e-06
1350.0 1.3128e-06
1370.0 1.3757e-06
1390.0 1.437e-06
1410.0 1.4964e-06
1430.0 1.5586e-06
1450.0 1.6208e-06
1470.0 1.6809e-06
1490.0 1.7416e-06
1510.0 1.8057e-06
1530.0 1.8664e-06
1550.0 1.9263e-06
1570.0 1.9882e-06
1590.0 2.0502e-06
1610.0 2.1093e-06
1630.0 2.1703e-06
1650.0 2.2328e-06
1670.0 2.2932e-06
1690.0 2.3528e-06
1710.0 2.4145e-06
1730.0 2.4766e-06
1750.0 2.5347e-06
1770.0 2.5945e-06
1790.0 2.6553e-06
1810.0 2.7139e-06
1830.0 2.7713e-06
1850.0 2.832e-06
1870.0 2.8908e-06
1890.0 2.9473e-06
1910.0 3.0045e-06
1930.0 3.0627e-06
1950.0 3.1176e-06
1970.0 3.1712e-06
1990.0 3.2264e-06
2010.0 3.2799e-06
2030.0 3.3304e-06
2050.0 3.3819e-06
2070.0 3.4338e-06
2090.0 3.4813e-06
2110.0 3.5274e-06
2130.0 3.5739e-06
2150.0 3.618e-06
2170.0 3.658e-06
2190.0 3.6986e-06
2210.0 3.7379e-06
2230.0 3.773e-06
2250.0 3.806e-06
2270.0 3.8395e-06
2290.0 3.869e-06
2310.0 3.8942e-06
2330.0 3.9189e-06
2350.0 3.9423e-06
2370.0 3.9619e-06
2390.0 3.9817e-06
2410.0 4.0058e-06
2430.0 4.0319e-06
2450.0 4.063e-06
2470.0 4.1063e-06
2490.0 4.1646e-06
2510.0 4.2321e-06
2530.0 4.3221e-06
2550.0 4.4521e-06
2570.0 4.6365e-06
2590.0 4.9019e-06
2610.0 5.3299e-06
2630.0 5.9491e-06
2650.0 6.7399e-06
2670.0 7.7266e-06
2690.0 8.8835e-06
2710.0 1.0043e-05
2730.0 1.1111e-05
2750.0 1.2089e-05
2770.0 1.2855e-05
2790.0 1.338e-05
2810.0 1.3724e-05
2830.0 1.3926e-05
2850.0 1.3984e-05
2870.0 1.3964e-05
2890.0 1.3903e-05
2910.0 1.3813e-05
2930.0 1.3702e-05
2950.0 1.3591e-05
2970.0 1.3482e-05
2990.0 1.3371e-05
3010.0 0.0003768
3030.0 0.00037388
3050.0 0.00037101
3070.0 0.00036794
3090.0 0.00036475
3110.0 0.00036105
3130.0 0.00035643
3150.0 0.0003506
3170.0 0.00034302
3190.0 0.00033382
3210.0 0.00032363
3230.0 0.00031294
3250.0 0.00030265
3270.0 0.00029509
3290.0 0.00029008
3310.0 0.0002895
3330.0 0.00029245
3350.0 0.00029858
3370.0 0.00030792
3390.0 0.00032009
3410.0 0.00033359
3430.0 0.000349
3450.0 0.00036692
3470.0 0.00038666
3490.0 0.00040777
3510.0 0.00043172
3530.0 0.00045775
3550.0 0.0004852
3570.0 0.00051519
3590.0 0.00054904
3610.0 0.00058627
3630.0 0.00062441
3650.0 0.0006649
3670.0 0.00070214
3690.0 0.00073047
3710.0 0.00074577
3730.0 0.00074073
3750.0 0.0007148
3770.0 0.00070129
3790.0 0.00066076
3810.0 0.00053684
3830.0 0.00048769
3850.0 0.00056813
3870.0 0.00046468
3890.0 0.00044084
3910.0 0.00058514
3930.0 0.00075323
3950.0 0.00081465
3970.0 0.00092696
3990.0 0.00083874
4010.0 0.0012198
4030.0 0.001141
4050.0 0.0010314
4070.0 0.0011007
4090.0 0.0010563
4110.0 0.0011286
4130.0 0.0013326
4150.0 0.0015881
4170.0 0.0013709
4190.0 0.001269
4210.0 0.001356
4230.0 0.0016377
4250.0 0.0018714
4270.0 0.0019903
4290.0 0.0018767
4310.0 0.0017855
4330.0 0.0018577
4350.0 0.0023065
4370.0 0.0027293
4390.0 0.0023131
4410.0 0.0015443
4430.0 0.0011948
4450.0 0.0010581
4470.0 0.00088974
4490.0 0.0011895
4510.0 0.0018432
4530.0 0.002168
4550.0 0.002248
4570.0 0.0022731
4590.0 0.0025886
4610.0 0.0042328
4630.0 0.0056218
4650.0 0.0054293
4670.0 0.0049215
4690.0 0.0052116
4710.0 0.0055281
4730.0 0.0045179
4750.0 0.002981
4770.0 0.0022423
4790.0 0.0023717
4810.0 0.002351
4830.0 0.0022811
4850.0 0.0025372
4870.0 0.0033447
4890.0 0.0038966
4910.0 0.0030944
4930.0 0.0028586
4950.0 0.0032506
4970.0 0.0043919
4990.0 0.0058619
5010.0 0.0065599
5030.0 0.0052581
5050.0 0.0032023
5070.0 0.0022485
5090.0 0.0018506
5110.0 0.0018242
5130.0 0.0020676
5150.0 0.0020575
5170.0 0.0019912
5190.0 0.0018641
5210.0 0.001914
5230.0 0.0022008
5250.0 0.0024849
5270.0 0.0025039
5290.0 0.0028048
5310.0 0.0034751
5330.0 0.0036111
5350.0 0.0035731
5370.0 0.0039895
5390.0 0.004734
5410.0 0.0042305
5430.0 0.0033435
5450.0 0.0032329
5470.0 0.0037296
5490.0 0.004766
5510.0 0.0059828
5530.0 0.0068367
5550.0 0.0063108
5570.0 0.0056438
5590.0 0.0047765
5610.0 0.0046793
5630.0 0.0049241
5650.0 0.0047623
5670.0 0.0044951
5690.0 0.0038272
5710.0 0.0038052
5730.0 0.003631
5750.0 0.0021399
5770.0 0.0016947
5790.0 0.0020203
5810.0 0.0023166
5830.0 0.0031231
5850.0 0.0037998
5870.0 0.0039815
5890.0 0.0037875
5910.0 0.0036416
5930.0 0.0035845
5950.0 0.0037323
5970.0 0.0043901
5990.0 0.0038053
6010.0 0.0030187
6030.0 0.0024695
6050.0 0.0021673
6070.0 0.0024146
6090.0 0.0027526
6110.0 0.0028987
6130.0 0.0026892
6150.0 0.0022526
6170.0 0.00211
6190.0 0.0026035
6210.0 0.0036365
6230.0 0.0048084
6250.0 0.0049878
6270.0 0.0040561
6290.0 0.0034144
6310.0 0.0026482
6330.0 0.0020016
6350.0 0.0018824
6370.0 0.0019941
6390.0 0.0024036
6410.0 0.0029564
6430.0 0.0035127
6450.0 0.0042452
6470.0 0.0047592
6490.0 0.0058129
6510.0 0.0065156
6530.0 0.0063335
6550.0 0.005814
6570.0 0.0051201
6590.0 0.0049573
6610.0 0.0042189
6630.0 0.0041223
6650.0 0.0038771
6670.0 0.0036814
6690.0 0.0032369
6710.0 0.0030119
6730.0 0.0020461
6750.0 0.0021192
6770.0 0.0025816
6790.0 0.0032108
6810.0 0.0026893
6830.0 0.0027599
6850.0 0.0025088
6870.0 0.0023902
6890.0 0.002188
6910.0 0.0023338
6930.0 0.00218
6950.0 0.0024319
6970.0 0.002462
6990.0 0.0027406
7010.0 0.0028146
7030.0 0.0028694
7050.0 0.0025738
7070.0 0.0023424
7090.0 0.0023256
7110.0 0.0022999
7130.0 0.0025012
7150.0 0.0027758
7170.0 0.003041
7190.0 0.0031345
7210.0 0.0028735
7230.0 0.0029213
7250.0 0.003244
7270.0 0.0036651
7290.0 0.0042502
7310.0 0.0042894
7330.0 0.0038666
7350.0 0.0034458
7370.0 0.0028318
7390.0 0.002924
7410.0 0.0033885
7430.0 0.0037814
7450.0 0.0040762
7470.0 0.0040636
7490.0 0.0039611
7510.0 0.0052155
7530.0 0.00473
7550.0 0.0041729
7570.0 0.0029894
7590.0 0.0017133
7610.0 0.0013918
7630.0 0.0017152
7650.0 0.002117
7670.0 0.0028885
7690.0 0.0032694
7710.0 0.0031834
7730.0 0.0031842
7750.0 0.0037323
7770.0 0.0037658
7790.0 0.0035319
7810.0 0.0031792
7830.0 0.0032596
7850.0 0.0032642
7870.0 0.0030917
7890.0 0.0025734
7910.0 0.0019257
7930.0 0.0018142
7950.0 0.0016319
7970.0 0.0014786
7990.0 0.0014271
8010.0 0.001425
8030.0 0.0013895
8050.0 0.0014358
8070.0 0.0014699
8090.0 0.0015989
8110.0 0.0015
8130.0 0.0011535
8150.0 0.0011046
8170.0 0.00089146
8190.0 0.00080312
8210.0 0.0010421
8230.0 0.0011595
8250.0 0.00087534
8270.0 0.00076434
8290.0 0.0007594
8310.0 0.00056051
8330.0 0.00035505
8350.0 0.00027039
8370.0 0.00020115
8390.0 0.00031528
8410.0 0.00039029
8430.0 0.00048279
8450.0 0.00053803
8470.0 0.00069127
8490.0 0.00062893
8510.0 0.00057828
8530.0 0.00050161
8550.0 0.00080886
8570.0 0.0011011
8590.0 0.001044
8610.0 0.001359
8630.0 0.001537
8650.0 0.0013282
8670.0 0.0014864
8690.0 0.0017274
8710.0 0.0015701
8730.0 0.0015762
8750.0 0.0013686
8770.0 0.0012807
8790.0 0.0013285
8810.0 0.0013304
8830.0 0.00096403
8850.0 0.00068307
8870.0 0.00054951
8890.0 0.0006808
8910.0 0.00085427
8930.0 0.0010012
8950.0 0.0011375
8970.0 0.0011306
8990.0 0.00099705
9010.0 0.00081552
9030.0 0.00075107
9050.0 0.00076721
9070.0 0.00078153
9090.0 0.00079264
9110.0 0.00080473
9130.0 0.00081391
9150.0 0.0008211
9170.0 0.00082874
9190.0 0.00083691
9210.0 0.00084546
9230.0 0.00085452
9250.0 0.00086387
9270.0 0.00087355
9290.0 0.00088353
9310.0 0.00089372
9330.0 0.00090416
9350.0 0.00091492
9370.0 0.00092591
9390.0 0.0009371
9410.0 0.00094858
9430.0 0.00096037
9450.0 0.00097231
9470.0 0.00098451
9490.0 0.00099701
9510.0 0.0010097
9530.0 0.0010226
9550.0 0.0010359
9570.0 0.0010493
9590.0 0.001063
9610.0 0.0010769
9630.0 0.001091
9650.0 0.0011054
9670.0 0.0011199
9690.0 0.0011347
9710.0 0.0011498
9730.0 0.001165
9750.0 0.0011804
9770.0 0.001196
9790.0 0.0012118
9810.0 0.0012278
9830.0 0.001244
9850.0 0.0012604
9870.0 0.0012768
9890.0 0.0012935
9910.0 0.0013103
9930.0 0.0013273
9950.0 0.0013443
9970.0 0.0013616
9990.0 0.0013789
10010.0 0.001293
10030.0 0.0013089
10050.0 0.0013248
10070.0 0.0013406
10090.0 0.0013567
10110.0 0.0013729
10130.0 0.001389
10150.0 0.0014052
10170.0 0.0014213
10190.0 0.0014375
10210.0 0.0014537
10230.0 0.0014698
10250.0 0.0014859
10270.0 0.0015019
10290.0 0.0015179
10310.0 0.0015338
10330.0 0.0015496
10350.0 0.0015653
10370.0 0.0015809
10390.0 0.0015964
10410.0 0.0016118
10430.0 0.001627
10450.0 0.0016421
10470.0 0.001657
10490.0 0.0016717
10510.0 0.0016862
10530.0 0.0017005
10550.0 0.0017146
10570.0 0.0017284
10590.0 0.0017421
10610.0 0.0017554
10630.0 0.0017685
10650.0 0.0017814
10670.0 0.0017939
10690.0 0.0018062
10710.0 0.0018181
10730.0 0.0018298
10750.0 0.0018411
10770.0 0.0018521
10790.0 0.0018628
10810.0 0.001873
10830.0 0.0018829
10850.0 0.0018922
10870.0 0.0019007
10890.0 0.0019081
10910.0 0.0019137
10930.0 0.0019166
10950.0 0.0019151
10970.0 0.0019083
10990.0 0.0018957
11010.0 0.0018969
11030.0 0.001868
11050.0 0.0018327
11070.0 0.0017903
11090.0 0.0017389
11110.0 0.0016856
11130.0 0.0016299
11150.0 0.0015697
11170.0 0.0015079
11190.0 0.0014482
11210.0 0.0013869
11230.0 0.0013246
11250.0 0.0012658
11270.0 0.00121
11290.0 0.0011547
11310.0 0.001103
11330.0 0.0010579
11350.0 0.0010157
11370.0 0.00097687
11390.0 0.00094325
11410.0 0.00091365
11430.0 0.00088577
11450.0 0.00086114
11470.0 0.0008391
11490.0 0.00081783
11510.0 0.0007965
11530.0 0.00077597
11550.0 0.00075505
11570.0 0.00073244
11590.0 0.00070891
11610.0 0.000685
11630.0 0.00065921
11650.0 0.00063194
11670.0 0.00060534
11690.0 0.00057868
11710.0 0.00055152
11730.0 0.00052546
11750.0 0.00050149
11770.0 0.00047816
11790.0 0.00045639
11810.0 0.00043719
11830.0 0.00041995
11850.0 0.00040398
11870.0 0.00039036
11890.0 0.00037874
11910.0 0.00036821
11930.0 0.00035876
11950.0 0.00035043
11970.0 0.00034259
11990.0 0.00033481
12010.0 0.00032726
12030.0 0.00031976
12050.0 0.00031188
12070.0 0.00030363
12090.0 0.00029558
12110.0 0.00028736
12130.0 0.00027901
12150.0 0.00027107
12170.0 0.00026376
12190.0 0.00025683
12210.0 0.00025095
12230.0 0.00024637
12250.0 0.00024306
12270.0 0.00024124
12290.0 0.00024103
12310.0 0.00024229
12330.0 0.00024526
12350.0 0.00024978
12370.0 0.00025543
12390.0 0.00026234
12410.0 0.00027081
12430.0 0.00027949
12450.0 0.00028853
12470.0 0.00029818
12490.0 0.00030779
12510.0 0.00031661
12530.0 0.00032525
12550.0 0.00033339
12570.0 0.00034026
12590.0 0.00034598
12610.0 0.00035079
12630.0 0.00035421
12650.0 0.000356
12670.0 0.00035659
12690.0 0.00035583
12710.0 0.00035373
12730.0 0.00035047
12750.0 0.00034598
12770.0 0.00034046
12790.0 0.00033418
12810.0 0.00032705
12830.0 0.0003191
12850.0 0.00031091
12870.0 0.00030236
12890.0 0.00029323
12910.0 0.00028398
12930.0 0.00027481
12950.0 0.00026526
12970.0 0.00025548
12990.0 0.00024608
13010.0 0.0002367
13030.0 0.00022711
13050.0 0.00021776
13070.0 0.00020886
13090.0 0.00019983
13110.0 0.00019099
13130.0 0.00018272
13150.0 0.00017482
13170.0 0.00016703
13190.0 0.00016002
13210.0 0.00015378
13230.0 0.00014805
13250.0 0.00014305
13270.0 0.000139
13290.0 0.00013574
13310.0 0.00013331
13330.0 0.00013188
13350.0 0.00013134
13370.0 0.00013171
13390.0 0.00013302
13410.0 0.00013499
13430.0 0.0001377
13450.0 0.00014113
13470.0 0.00014497
13490.0 0.00014905
13510.0 0.00015368
13530.0 0.00015837
13550.0 0.00016284
13570.0 0.00016724
13590.0 0.00017154
13610.0 0.00017533
13630.0 0.00017861
13650.0 0.0001816
13670.0 0.00018403
13690.0 0.00018583
13710.0 0.00018715
13730.0 0.000188
13750.0 0.00018823
13770.0 0.00018801
13790.0 0.00018734
13810.0 0.00018625
13830.0 0.00018482
13850.0 0.00018303
13870.0 0.0001809
13890.0 0.00017854
13910.0 0.00017596
13930.0 0.00017308
13950.0 0.00017002
13970.0 0.00016695
13990.0 0.00016368
14010.0 0.00016029
14030.0 0.00015696
14050.0 0.00015367
14070.0 0.00015025
14090.0 0.00014703
14110.0 0.00014404
14130.0 0.00014117
14150.0 0.00013852
14170.0 0.00013627
14190.0 0.00013434
14210.0 0.00013274
14230.0 0.00013156
14250.0 0.00013081
14270.0 0.00013048
14290.0 0.00013061
14310.0 0.00013115
14330.0 0.00013209
14350.0 0.00013346
14370.0 0.00013516
14390.0 0.0001371
14410.0 0.0001394
14430.0 0.00014196
14450.0 0.00014461
14470.0 0.00014742
14490.0 0.00015049
14510.0 0.00015354
14530.0 0.00015655
14550.0 0.00015972
14570.0 0.00016296
14590.0 0.00016612
14610.0 0.00016941
14630.0 0.00017293
14650.0 0.00017648
14670.0 0.00018014
14690.0 0.00018415
14710.0 0.00018848
14730.0 0.00019286
14750.0 0.00019764
14770.0 0.00020289
14790.0 0.00020835
14810.0 0.00021399
14830.0 0.00022031
14850.0 0.0002268
14870.0 0.00023322
14890.0 0.0002398
14910.0 0.00024647
14930.0 0.00025264
14950.0 0.00025822
14970.0 0.00026335
14990.0 0.00026756
15010.0 0.00027074
15030.0 0.00027308
15050.0 0.00027463
15070.0 0.00027544
15090.0 0.00027579
15110.0 0.00027582
15130.0 0.00027565
15150.0 0.0002754
15170.0 0.00027509
15190.0 0.00027474
15210.0 0.00027441
15230.0 0.00027408
15250.0 0.00027373
15270.0 0.00027339
15290.0 0.00027309
15310.0 0.00027278
15330.0 0.00027245
15350.0 0.00027216
15370.0 0.00027187
15390.0 0.00027154
15410.0 0.00027124
15430.0 0.00027096
15450.0 0.00027066
15470.0 0.00027035
15490.0 0.00027008
15510.0 0.0002698
15530.0 0.0002695
15550.0 0.00026922
15570.0 0.00026895
15590.0 0.00026866
15610.0 0.00026835
15630.0 0.00026808
15650.0 0.00026781
15670.0 0.00026751
15690.0 0.00026723
15710.0 0.00026696
15730.0 0.00026667
15750.0 0.00026637
15770.0 0.00026609
15790.0 0.0002658
15810.0 0.00026548
15830.0 0.00026519
15850.0 0.0002649
15870.0 0.0002646
15890.0 0.00026428
15910.0 0.00026399
15930.0 0.00026368
15950.0 0.00026334
15970.0 0.00026303
15990.0 0.00026272
16010.0 0.00026238
16030.0 0.00026203
16050.0 0.00026171
16070.0 0.00026137
16090.0 0.00026101
16110.0 0.00026067
16130.0 0.00026033
16150.0 0.00025994
16170.0 0.00025956
16190.0 0.0002592
16210.0 0.00025882
16230.0 0.00025842
16250.0 0.00025803
16270.0 0.00025765
16290.0 0.00025723
16310.0 0.00025681
16330.0 0.00025641
16350.0 0.00025599
16370.0 0.00025552
16390.0 0.00025509
16410.0 0.00025466
16430.0 0.00025419
16450.0 0.00025373
16470.0 0.00025328
16490.0 0.0002528
16510.0 0.0002523
16530.0 0.00025181
16550.0 0.00025133
16570.0 0.0002508
16590.0 0.00025027
16610.0 0.00024978
16630.0 0.00024924
16650.0 0.00024869
16670.0 0.00024816
16690.0 0.00024762
16710.0 0.00024703
16730.0 0.00024646
16750.0 0.00024589
16770.0 0.0002453
16790.0 0.00024469
16810.0 0.0002441
16830.0 0.0002435
16850.0 0.00024287
16870.0 0.00024224
16890.0 0.00024163
16910.0 0.00024097
16930.0 0.0002403
16950.0 0.00023965
16970.0 0.00023899
16990.0 0.0002383
17010.0 0.00023762
17030.0 0.00023696
17050.0 0.00023624
17070.0 0.00023552
17090.0 0.00023483
17110.0 0.00023411
17130.0 0.00023335
17150.0 0.00023262
17170.0 0.00023189
17190.0 0.00023113
17210.0 0.00023036
17230.0 0.00022962
17250.0 0.00022884
17270.0 0.00022804
17290.0 0.00022725
17310.0 0.00022647
17330.0 0.00022565
17350.0 0.00022483
17370.0 0.00022404
17390.0 0.00022321
17410.0 0.00022237
17430.0 0.00022154
17450.0 0.00022072
17470.0 0.00021984
17490.0 0.00021898
17510.0 0.00021813
17530.0 0.00021727
17550.0 0.00021637
17570.0 0.00021551
17590.0 0.00021464
17610.0 0.00021373
17630.0 0.00021283
17650.0 0.00021195
17670.0 0.00021104
17690.0 0.00021009
17710.0 0.00020919
17730.0 0.00020828
17750.0 0.00020734
17770.0 0.00020641
17790.0 0.0002055
17810.0 0.00020454
17830.0 0.00020358
17850.0 0.00020264
17870.0 0.0002017
17890.0 0.00020072
17910.0 0.00019975
17930.0 0.00019881
17950.0 0.00019784
17970.0 0.00019686
17990.0 0.0001959
18010.0 0.00019493
18030.0 0.00019392
18050.0 0.00019293
18070.0 0.00019196
18090.0 0.00019096
18110.0 0.00018995
18130.0 0.00018898
18150.0 0.00018799
18170.0 0.00018697
18190.0 0.00018597
18210.0 0.00018498
18230.0 0.00018396
18250.0 0.00018293
18270.0 0.00018194
18290.0 0.00018093
18310.0 0.00017991
18330.0 0.0001789
18350.0 0.0001779
18370.0 0.00017687
18390.0 0.00017584
18410.0 0.00017484
18430.0 0.00017382
18450.0 0.00017277
18470.0 0.00017176
18490.0 0.00017076
18510.0 0.00016973
18530.0 0.0001687
18550.0 0.0001677
18570.0 0.00016667
18590.0 0.00016563
18610.0 0.00016461
18630.0 0.0001636
18650.0 0.00016257
18670.0 0.00016153
18690.0 0.00016054
18710.0 0.00015952
18730.0 0.00015849
18750.0 0.00015748
18770.0 0.00015648
18790.0 0.00015543
18810.0 0.00015441
18830.0 0.00015341
18850.0 0.0001524
18870.0 0.00015137
18890.0 0.00015037
18910.0 0.00014938
18930.0 0.00014836
18950.0 0.00014735
18970.0 0.00014636
18990.0 0.00014536
19010.0 0.00014433
19030.0 0.00014335
19050.0 0.00014236
19070.0 0.00014135
19090.0 0.00014036
19110.0 0.00013939
19130.0 0.0001384
19150.0 0.0001374
19170.0 0.00013642
19190.0 0.00013545
19210.0 0.00013445
19230.0 0.00013347
19250.0 0.00013252
19270.0 0.00013155
19290.0 0.00013057
19310.0 0.00012962
19330.0 0.00012867
19350.0 0.00012768
19370.0 0.00012672
19390.0 0.00012579
19410.0 0.00012483
19430.0 0.00012387
19450.0 0.00012294
19470.0 0.00012201
19490.0 0.00012105
19510.0 0.00012012
19530.0 0.00011921
19550.0 0.00011826
19570.0 0.00011732
19590.0 0.00011641
19610.0 0.0001155
19630.0 0.00011457
19650.0 0.00011366
19670.0 0.00011277
19690.0 0.00011185
19710.0 0.00011094
19730.0 0.00011006
19750.0 0.00010916
19770.0 0.00010825
19790.0 0.00010737
19810.0 0.0001065
19830.0 0.0001056
19850.0 0.00010471
19870.0 0.00010384
19890.0 0.00010294
19910.0 0.00010198
19930.0 0.00010099
19950.0 9.9926e-05
19970.0 9.8707e-05
19990.0 9.7331e-05
20010.0 9.6057e-05
20030.0 9.434e-05
20050.0 9.2414e-05
20070.0 9.0393e-05
20090.0 8.8277e-05
20110.0 8.5956e-05
20130.0 8.3654e-05
20150.0 8.1412e-05
20170.0 7.9131e-05
20190.0 7.6854e-05
20210.0 7.4723e-05
20230.0 7.2664e-05
20250.0 7.062e-05
20270.0 6.8728e-05
20290.0 6.6999e-05
20310.0 6.5357e-05
20330.0 6.382e-05
20350.0 6.2526e-05
20370.0 6.1367e-05
20390.0 6.0339e-05
20410.0 5.949e-05
20430.0 5.8815e-05
20450.0 5.8265e-05
20470.0 5.7874e-05
20490.0 5.7632e-05
20510.0 5.752e-05
20530.0 5.7538e-05
20550.0 5.7669e-05
20570.0 5.789e-05
20590.0 5.8216e-05
20610.0 5.8627e-05
20630.0 5.9089e-05
20650.0 5.9616e-05
20670.0 6.0231e-05
20690.0 6.0857e-05
20710.0 6.1504e-05
20730.0 6.2203e-05
20750.0 6.2929e-05
20770.0 6.3631e-05
20790.0 6.4363e-05
20810.0 6.5129e-05
20830.0 6.5877e-05
20850.0 6.6615e-05
20870.0 6.74e-05
20890.0 6.8188e-05
20910.0 6.8935e-05
20930.0 6.9704e-05
20950.0 7.0498e-05
20970.0 7.1263e-05
20990.0 7.2014e-05
21010.0 7.2808e-05
21030.0 7.3582e-05
21050.0 7.4319e-05
21070.0 7.5059e-05
21090.0 7.5811e-05
21110.0 7.6497e-05
21130.0 7.7149e-05
21150.0 7.7795e-05
21170.0 7.8395e-05
21190.0 7.8925e-05
21210.0 7.9429e-05
21230.0 7.9886e-05
21250.0 8.0251e-05
21270.0 8.0543e-05
21290.0 8.0766e-05
21310.0 8.0891e-05
21330.0 8.091e-05
21350.0 8.0828e-05
21370.0 8.0626e-05
21390.0 8.0304e-05
21410.0 7.986e-05
21430.0 7.9254e-05
21450.0 7.8522e-05
21470.0 7.7678e-05
21490.0 7.6684e-05
21510.0 7.5549e-05
21530.0 7.4348e-05
21550.0 7.3047e-05
21570.0 7.1613e-05
21590.0 7.0151e-05
21610.0 6.8686e-05
21630.0 6.7168e-05
21650.0 6.5623e-05
21670.0 6.4215e-05
21690.0 6.285e-05
21710.0 6.1539e-05
21730.0 6.0367e-05
21750.0 5.9354e-05
21770.0 5.8434e-05
21790.0 5.7689e-05
21810.0 5.7134e-05
21830.0 5.6744e-05
21850.0 5.6527e-05
21870.0 5.6492e-05
21890.0 5.6616e-05
21910.0 5.6909e-05
21930.0 5.7359e-05
21950.0 5.7929e-05
21970.0 5.8633e-05
21990.0 5.95e-05
22010.0 6.0428e-05
22030.0 6.1425e-05
22050.0 6.2532e-05
22070.0 6.3701e-05
22090.0 6.4855e-05
22110.0 6.6069e-05
22130.0 6.7332e-05
22150.0 6.8555e-05
22170.0 6.9748e-05
22190.0 7.0973e-05
22210.0 7.215e-05
22230.0 7.3213e-05
22250.0 7.424e-05
22270.0 7.5211e-05
22290.0 7.6059e-05
22310.0 7.6803e-05
22330.0 7.7477e-05
22350.0 7.8014e-05
22370.0 7.8411e-05
22390.0 7.8686e-05
22410.0 7.8824e-05
22430.0 7.8808e-05
22450.0 7.8652e-05
22470.0 7.834e-05
22490.0 7.7877e-05
22510.0 7.7284e-05
22530.0 7.6517e-05
22550.0 7.5579e-05
22570.0 7.4532e-05
22590.0 7.3348e-05
22610.0 7.1986e-05
22630.0 7.0507e-05
22650.0 6.8973e-05
22670.0 6.7274e-05
22690.0 6.5453e-05
22710.0 6.3607e-05
22730.0 6.1696e-05
22750.0 5.9615e-05
22770.0 5.7568e-05
22790.0 5.5559e-05
22810.0 5.3487e-05
22830.0 5.141e-05
22850.0 4.9456e-05
22870.0 4.7535e-05
22890.0 4.5619e-05
22910.0 4.3852e-05
22930.0 4.2232e-05
22950.0 4.0691e-05
22970.0 3.927e-05
