#lamb flux
1010.0 2.6479e-09
1030.0 2.8991e-09
1050.0 3.188e-09
1070.0 3.5132e-09
1090.0 3.8826e-09
1110.0 4.2615e-09
1130.0 4.6429e-09
1150.0 5.0423e-09
1170.0 5.4544e-09
1190.0 5.8451e-09
1210.0 6.2411e-09
1230.0 6.6503e-09
1250.0 7.0512e-09
1270.0 7.4405e-09
1290.0 7.8519e-09
1310.0 8.263e-09
1330.0 8.6572e-09
1350.0 9.0559e-09
1370.0 9.4674e-09
1390.0 9.8687e-09
1410.0 1.0258e-08
1430.0 1.0665e-08
1450.0 1.1072e-08
1470.0 1.1465e-08
1490.0 1.1863e-08
1510.0 1.2282e-08
1530.0 1.268e-08
1550.0 1.3073e-08
1570.0 1.3478e-08
1590.0 1.3885e-08
1610.0 1.4273e-08
1630.0 1.4673e-08
1650.0 1.5083e-08
1670.0 1.548e-08
1690.0 1.5872e-08
1710.0 1.6279e-08
1730.0 1.6688e-08
1750.0 1.7072e-08
1770.0 1.7467e-08
1790.0 1.787e-08
1810.0 1.826e-08
1830.0 1.8643e-08
1850.0 1.9048e-08
1870.0 1.9443e-08
1890.0 1.9823e-08
1910.0 2.0211e-08
1930.0 2.0607e-08
1950.0 2.0983e-08
1970.0 2.1353e-08
1990.0 2.1737e-08
2010.0 2.2112e-08
2030.0 2.2471e-08
2050.0 2.2839e-08
2070.0 2.3215e-08
2090.0 2.3565e-08
2110.0 2.3911e-08
2130.0 2.4264e-08
2150.0 2.4607e-08
2170.0 2.4928e-08
2190.0 2.5259e-08
2210.0 2.5588e-08
2230.0 2.5896e-08
2250.0 2.6196e-08
2270.0 2.6507e-08
2290.0 2.6801e-08
2310.0 2.7073e-08
2330.0 2.7353e-08
2350.0 2.7636e-08
2370.0 2.7912e-08
2390.0 2.8215e-08
2410.0 2.859e-08
2430.0 2.9037e-08
2450.0 2.9594e-08
2470.0 3.0342e-08
2490.0 3.1319e-08
2510.0 3.2446e-08
2530.0 3.3829e-08
2550.0 3.5594e-08
2570.0 3.7813e-08
2590.0 4.0711e-08
2610.0 4.5064e-08
2630.0 5.1234e-08
2650.0 5.9203e-08
2670.0 6.9383e-08
2690.0 8.1729e-08
2710.0 9.4684e-08
2730.0 1.0724e-07
2750.0 1.1938e-07
2770.0 1.2964e-07
2790.0 1.3746e-07
2810.0 1.4335e-07
2830.0 1.4764e-07
2850.0 1.5018e-07
2870.0 1.5173e-07
2890.0 1.5272e-07
2910.0 1.5328e-07
2930.0 1.5357e-07
2950.0 1.538e-07
2970.0 1.5401e-07
2990.0 1.5418e-07
3010.0 4.7887e-06
3030.0 4.7935e-06
3050.0 4.7979e-06
3070.0 4.7987e-06
3090.0 4.7962e-06
3110.0 4.7853e-06
3130.0 4.7597e-06
3150.0 4.7148e-06
3170.0 4.6413e-06
3190.0 4.5403e-06
3210.0 4.4195e-06
3230.0 4.2846e-06
3250.0 4.1471e-06
3270.0 4.0448e-06
3290.0 3.9723e-06
3310.0 3.962e-06
3330.0 3.9987e-06
3350.0 4.0792e-06
3370.0 4.2031e-06
3390.0 4.3646e-06
3410.0 4.5434e-06
3430.0 4.7462e-06
3450.0 4.9813e-06
3470.0 5.2398e-06
3490.0 5.5161e-06
3510.0 5.8302e-06
3530.0 6.1707e-06
3550.0 6.5281e-06
3570.0 6.9141e-06
3590.0 7.3398e-06
3610.0 7.8012e-06
3630.0 8.2577e-06
3650.0 8.7375e-06
3670.0 9.1701e-06
3690.0 9.4911e-06
3710.0 9.6587e-06
3730.0 9.5951e-06
3750.0 9.3177e-06
3770.0 9.4732e-06
3790.0 9.3658e-06
3810.0 7.9521e-06
3830.0 7.9556e-06
3850.0 1.0657e-05
3870.0 1.0885e-05
3890.0 9.155e-06
3910.0 8.7122e-06
3930.0 9.9651e-06
3950.0 1.1268e-05
3970.0 1.1702e-05
3990.0 8.3866e-06
4010.0 2.0029e-05
4030.0 2.1918e-05
4050.0 2.4731e-05
4070.0 2.4501e-05
4090.0 2.2666e-05
4110.0 1.944e-05
4130.0 2.1108e-05
4150.0 2.6369e-05
4170.0 2.2388e-05
4190.0 2.129e-05
4210.0 2.2865e-05
4230.0 2.6675e-05
4250.0 3.2018e-05
4270.0 3.4011e-05
4290.0 3.0308e-05
4310.0 2.9182e-05
4330.0 2.9502e-05
4350.0 3.5988e-05
4370.0 4.291e-05
4390.0 3.5994e-05
4410.0 2.2092e-05
4430.0 1.688e-05
4450.0 1.5776e-05
4470.0 1.0386e-05
4490.0 1.4844e-05
4510.0 2.9347e-05
4530.0 3.5296e-05
4550.0 3.3519e-05
4570.0 3.2186e-05
4590.0 3.5012e-05
4610.0 6.179e-05
4630.0 8.5292e-05
4650.0 8.406e-05
4670.0 7.4952e-05
4690.0 7.453e-05
4710.0 7.8021e-05
4730.0 6.7215e-05
4750.0 4.5921e-05
4770.0 3.1904e-05
4790.0 3.3302e-05
4810.0 3.4141e-05
4830.0 3.2988e-05
4850.0 3.583e-05
4870.0 4.7425e-05
4890.0 5.5184e-05
4910.0 4.4637e-05
4930.0 4.2258e-05
4950.0 4.804e-05
4970.0 6.3079e-05
4990.0 8.5342e-05
5010.0 9.8863e-05
5030.0 8.1526e-05
5050.0 5.1703e-05
5070.0 3.5843e-05
5090.0 2.7523e-05
5110.0 2.6463e-05
5130.0 3.1571e-05
5150.0 3.1793e-05
5170.0 3.0317e-05
5190.0 2.731e-05
5210.0 2.9968e-05
5230.0 3.533e-05
5250.0 4.0281e-05
5270.0 3.8972e-05
5290.0 4.2269e-05
5310.0 5.4476e-05
5330.0 5.9289e-05
5350.0 5.8585e-05
5370.0 6.4418e-05
5390.0 7.8607e-05
5410.0 7.0507e-05
5430.0 5.6775e-05
5450.0 5.5607e-05
5470.0 6.2786e-05
5490.0 7.7828e-05
5510.0 9.5269e-05
5530.0 0.00011024
5550.0 0.00010168
5570.0 9.1649e-05
5590.0 7.6617e-05
5610.0 7.5454e-05
5630.0 8.1398e-05
5650.0 7.5425e-05
5670.0 6.9856e-05
5690.0 5.806e-05
5710.0 5.8862e-05
5730.0 5.6311e-05
5750.0 3.3229e-05
5770.0 2.4297e-05
5790.0 2.9232e-05
5810.0 3.1346e-05
5830.0 4.5524e-05
5850.0 5.8125e-05
5870.0 6.323e-05
5890.0 6.1566e-05
5910.0 6.0131e-05
5930.0 5.7548e-05
5950.0 5.9103e-05
5970.0 7.1785e-05
5990.0 6.1286e-05
6010.0 4.8446e-05
6030.0 4.0003e-05
6050.0 3.5456e-05
6070.0 4.0052e-05
6090.0 4.4493e-05
6110.0 4.6552e-05
6130.0 4.4287e-05
6150.0 3.5788e-05
6170.0 2.8642e-05
6190.0 3.3828e-05
6210.0 5.0919e-05
6230.0 7.3164e-05
6250.0 7.9217e-05
6270.0 6.2865e-05
6290.0 5.3611e-05
6310.0 4.1155e-05
6330.0 3.0409e-05
6350.0 2.9067e-05
6370.0 3.0524e-05
6390.0 3.6091e-05
6410.0 4.6215e-05
6430.0 5.5201e-05
6450.0 6.6491e-05
6470.0 7.1523e-05
6490.0 8.5725e-05
6510.0 9.605e-05
6530.0 9.7321e-05
6550.0 8.9155e-05
6570.0 7.2149e-05
6590.0 6.7519e-05
6610.0 5.6464e-05
6630.0 5.6813e-05
6650.0 5.4985e-05
6670.0 4.9044e-05
6690.0 3.927e-05
6710.0 3.7723e-05
6730.0 1.8661e-05
6750.0 2.313e-05
6770.0 3.3583e-05
6790.0 4.3243e-05
6810.0 3.229e-05
6830.0 3.3024e-05
6850.0 2.8163e-05
6870.0 2.6138e-05
6890.0 2.2753e-05
6910.0 2.6944e-05
6930.0 2.5356e-05
6950.0 2.9324e-05
6970.0 3.0631e-05
6990.0 3.4177e-05
7010.0 3.3201e-05
7030.0 3.725e-05
7050.0 3.2943e-05
7070.0 2.8244e-05
7090.0 2.9916e-05
7110.0 3.1655e-05
7130.0 3.5975e-05
7150.0 4.0198e-05
7170.0 4.4972e-05
7190.0 4.8453e-05
7210.0 4.4145e-05
7230.0 4.4876e-05
7250.0 4.8023e-05
7270.0 5.1561e-05
7290.0 6.3177e-05
7310.0 6.7417e-05
7330.0 6.3742e-05
7350.0 5.7256e-05
7370.0 4.4114e-05
7390.0 4.4707e-05
7410.0 5.2909e-05
7430.0 6.0009e-05
7450.0 6.4823e-05
7470.0 6.0208e-05
7490.0 4.9142e-05
7510.0 7.3309e-05
7530.0 6.8131e-05
7550.0 6.3858e-05
7570.0 4.4753e-05
7590.0 2.2298e-05
7610.0 1.6773e-05
7630.0 2.3263e-05
7650.0 3.0224e-05
7670.0 4.5404e-05
7690.0 5.0378e-05
7710.0 4.7041e-05
7730.0 4.7437e-05
7750.0 6.0104e-05
7770.0 6.1665e-05
7790.0 5.6385e-05
7810.0 4.6773e-05
7830.0 5.0172e-05
7850.0 5.3617e-05
7870.0 5.1731e-05
7890.0 4.1003e-05
7910.0 2.8811e-05
7930.0 2.9351e-05
7950.0 2.6589e-05
7970.0 2.2899e-05
7990.0 2.1219e-05
8010.0 8.1331e-06
8030.0 7.3701e-06
8050.0 8.017e-06
8070.0 9.1966e-06
8090.0 1.1434e-05
8110.0 1.0754e-05
8130.0 6.1397e-06
8150.0 6.4845e-06
8170.0 3.3734e-06
8190.0 1.8081e-06
8210.0 5.7776e-06
8230.0 7.0783e-06
8250.0 2.4151e-06
8270.0 1.8202e-06
8290.0 4.1834e-06
8310.0 3.8016e-06
8330.0 2.3278e-06
8350.0 1.8732e-06
8370.0 3.2533e-07
8390.0 2.0017e-06
8410.0 2.2855e-06
8430.0 2.8341e-06
8450.0 3.2014e-06
8470.0 5.5598e-06
8490.0 4.4892e-06
8510.0 3.3726e-06
8530.0 1.526e-06
8550.0 6.2319e-06
8570.0 9.7861e-06
8590.0 6.5971e-06
8610.0 1.0098e-05
8630.0 1.0965e-05
8650.0 5.5635e-06
8670.0 8.5653e-06
8690.0 1.3709e-05
8710.0 1.1662e-05
8730.0 1.2615e-05
8750.0 9.7953e-06
8770.0 8.6479e-06
8790.0 9.6609e-06
8810.0 1.0572e-05
8830.0 5.6707e-06
8850.0 2.1775e-06
8870.0 1.4759e-06
8890.0 4.3518e-06
8910.0 7.1075e-06
8930.0 9.5439e-06
8950.0 1.0582e-05
8970.0 1.0148e-05
8990.0 7.4149e-06
9010.0 9.4989e-06
9030.0 7.3628e-06
9050.0 7.593e-06
9070.0 7.8442e-06
9090.0 8.0507e-06
9110.0 8.3032e-06
9130.0 8.4859e-06
9150.0 8.6164e-06
9170.0 8.7552e-06
9190.0 8.9037e-06
9210.0 9.0597e-06
9230.0 9.2246e-06
9250.0 9.3907e-06
9270.0 9.5624e-06
9290.0 9.7384e-06
9310.0 9.9137e-06
9330.0 1.0091e-05
9350.0 1.0275e-05
9370.0 1.046e-05
9390.0 1.0645e-05
9410.0 1.0834e-05
9430.0 1.103e-05
9450.0 1.1222e-05
9470.0 1.1418e-05
9490.0 1.1619e-05
9510.0 1.1821e-05
9530.0 1.2023e-05
9550.0 1.2233e-05
9570.0 1.2445e-05
9590.0 1.2657e-05
9610.0 1.2872e-05
9630.0 1.3093e-05
9650.0 1.3315e-05
9670.0 1.3537e-05
9690.0 1.3764e-05
9710.0 1.3995e-05
9730.0 1.4226e-05
9750.0 1.4459e-05
9770.0 1.4701e-05
9790.0 1.4941e-05
9810.0 1.5181e-05
9830.0 1.5427e-05
9850.0 1.5676e-05
9870.0 1.5924e-05
9890.0 1.6175e-05
9910.0 1.6432e-05
9930.0 1.6688e-05
9950.0 1.6944e-05
9970.0 1.7207e-05
9990.0 1.7472e-05
10010.0 1.5428e-05
10030.0 1.5659e-05
10050.0 1.5893e-05
10070.0 1.6126e-05
10090.0 1.6359e-05
10110.0 1.6598e-05
10130.0 1.6837e-05
10150.0 1.7073e-05
10170.0 1.7312e-05
10190.0 1.7555e-05
10210.0 1.7795e-05
10230.0 1.8033e-05
10250.0 1.8276e-05
10270.0 1.8518e-05
10290.0 1.8757e-05
10310.0 1.8999e-05
10330.0 1.9243e-05
10350.0 1.9483e-05
10370.0 1.9722e-05
10390.0 1.9963e-05
10410.0 2.0204e-05
10430.0 2.0439e-05
10450.0 2.0676e-05
10470.0 2.0914e-05
10490.0 2.1148e-05
10510.0 2.1379e-05
10530.0 2.1615e-05
10550.0 2.1846e-05
10570.0 2.2071e-05
10590.0 2.2298e-05
10610.0 2.2524e-05
10630.0 2.2744e-05
10650.0 2.2962e-05
10670.0 2.3182e-05
10690.0 2.3396e-05
10710.0 2.3606e-05
10730.0 2.3816e-05
10750.0 2.4025e-05
10770.0 2.4225e-05
10790.0 2.4423e-05
10810.0 2.4621e-05
10830.0 2.4811e-05
10850.0 2.4993e-05
10870.0 2.517e-05
10890.0 2.5331e-05
10910.0 2.5462e-05
10930.0 2.5553e-05
10950.0 2.5583e-05
10970.0 2.5531e-05
10990.0 2.5387e-05
11010.0 2.4532e-05
11030.0 2.4154e-05
11050.0 2.3682e-05
11070.0 2.3111e-05
11090.0 2.2422e-05
11110.0 2.1706e-05
11130.0 2.096e-05
11150.0 2.0159e-05
11170.0 1.9337e-05
11190.0 1.8541e-05
11210.0 1.7724e-05
11230.0 1.6891e-05
11250.0 1.6097e-05
11270.0 1.5338e-05
11290.0 1.458e-05
11310.0 1.3864e-05
11330.0 1.3232e-05
11350.0 1.2634e-05
11370.0 1.2081e-05
11390.0 1.1598e-05
11410.0 1.1171e-05
11430.0 1.0771e-05
11450.0 1.0421e-05
11470.0 1.0112e-05
11490.0 9.8214e-06
11510.0 9.5382e-06
11530.0 9.2728e-06
11550.0 9.0087e-06
11570.0 8.7291e-06
11590.0 8.4418e-06
11610.0 8.1516e-06
11630.0 7.8395e-06
11650.0 7.5091e-06
11670.0 7.1853e-06
11690.0 6.8588e-06
11710.0 6.5241e-06
11730.0 6.2002e-06
11750.0 5.8999e-06
11770.0 5.6054e-06
11790.0 5.3284e-06
11810.0 5.0824e-06
11830.0 4.8603e-06
11850.0 4.6537e-06
11870.0 4.4777e-06
11890.0 4.3281e-06
11910.0 4.1941e-06
11930.0 4.0762e-06
11950.0 3.9752e-06
11970.0 3.8833e-06
11990.0 3.7958e-06
12010.0 3.7142e-06
12030.0 3.6357e-06
12050.0 3.5557e-06
12070.0 3.4736e-06
12090.0 3.3946e-06
12110.0 3.3149e-06
12130.0 3.2349e-06
12150.0 3.1598e-06
12170.0 3.0918e-06
12190.0 3.0296e-06
12210.0 2.9797e-06
12230.0 2.9448e-06
12250.0 2.9256e-06
12270.0 2.9254e-06
12290.0 2.9447e-06
12310.0 2.9821e-06
12330.0 3.0422e-06
12350.0 3.1224e-06
12370.0 3.217e-06
12390.0 3.3289e-06
12410.0 3.4629e-06
12430.0 3.5999e-06
12450.0 3.7425e-06
12470.0 3.8949e-06
12490.0 4.0481e-06
12510.0 4.191e-06
12530.0 4.3331e-06
12550.0 4.4697e-06
12570.0 4.5888e-06
12590.0 4.692e-06
12610.0 4.7828e-06
12630.0 4.8531e-06
12650.0 4.8982e-06
12670.0 4.9244e-06
12690.0 4.9288e-06
12710.0 4.9106e-06
12730.0 4.8722e-06
12750.0 4.812e-06
12770.0 4.7331e-06
12790.0 4.6398e-06
12810.0 4.5306e-06
12830.0 4.4062e-06
12850.0 4.2769e-06
12870.0 4.1413e-06
12890.0 3.9961e-06
12910.0 3.8492e-06
12930.0 3.7051e-06
12950.0 3.5558e-06
12970.0 3.4048e-06
12990.0 3.2622e-06
13010.0 3.1218e-06
13030.0 2.9805e-06
13050.0 2.8448e-06
13070.0 2.7176e-06
13090.0 2.5901e-06
13110.0 2.4665e-06
13130.0 2.3521e-06
13150.0 2.2433e-06
13170.0 2.1363e-06
13190.0 2.0402e-06
13210.0 1.9545e-06
13230.0 1.8752e-06
13250.0 1.8055e-06
13270.0 1.7487e-06
13290.0 1.7023e-06
13310.0 1.6673e-06
13330.0 1.6463e-06
13350.0 1.6386e-06
13370.0 1.6445e-06
13390.0 1.6653e-06
13410.0 1.6972e-06
13430.0 1.7417e-06
13450.0 1.799e-06
13470.0 1.8645e-06
13490.0 1.9353e-06
13510.0 2.0169e-06
13530.0 2.1009e-06
13550.0 2.1825e-06
13570.0 2.264e-06
13590.0 2.3447e-06
13610.0 2.4175e-06
13630.0 2.4819e-06
13650.0 2.5417e-06
13670.0 2.5922e-06
13690.0 2.6321e-06
13710.0 2.6639e-06
13730.0 2.6878e-06
13750.0 2.7009e-06
13770.0 2.706e-06
13790.0 2.7034e-06
13810.0 2.6932e-06
13830.0 2.6765e-06
13850.0 2.6532e-06
13870.0 2.6233e-06
13890.0 2.5886e-06
13910.0 2.5493e-06
13930.0 2.5037e-06
13950.0 2.454e-06
13970.0 2.4031e-06
13990.0 2.3478e-06
14010.0 2.2892e-06
14030.0 2.2308e-06
14050.0 2.1721e-06
14070.0 2.1103e-06
14090.0 2.0511e-06
14110.0 1.9954e-06
14130.0 1.9414e-06
14150.0 1.8905e-06
14170.0 1.8469e-06
14190.0 1.8088e-06
14210.0 1.7762e-06
14230.0 1.7516e-06
14250.0 1.7351e-06
14270.0 1.7261e-06
14290.0 1.7258e-06
14310.0 1.7337e-06
14330.0 1.7493e-06
14350.0 1.7731e-06
14370.0 1.8035e-06
14390.0 1.8387e-06
14410.0 1.8806e-06
14430.0 1.9272e-06
14450.0 1.9755e-06
14470.0 2.0262e-06
14490.0 2.0807e-06
14510.0 2.1335e-06
14530.0 2.1843e-06
14550.0 2.2356e-06
14570.0 2.2854e-06
14590.0 2.3313e-06
14610.0 2.376e-06
14630.0 2.4205e-06
14650.0 2.4622e-06
14670.0 2.5025e-06
14690.0 2.5445e-06
14710.0 2.5884e-06
14730.0 2.6322e-06
14750.0 2.6805e-06
14770.0 2.735e-06
14790.0 2.7939e-06
14810.0 2.8576e-06
14830.0 2.9328e-06
14850.0 3.0146e-06
14870.0 3.1001e-06
14890.0 3.1924e-06
14910.0 3.2904e-06
14930.0 3.3851e-06
14950.0 3.4739e-06
14970.0 3.5584e-06
14990.0 3.63e-06
15010.0 3.6857e-06
15030.0 3.728e-06
15050.0 3.7573e-06
15070.0 3.7736e-06
15090.0 3.7818e-06
15110.0 3.7844e-06
15130.0 3.7835e-06
15150.0 3.7809e-06
15170.0 3.7772e-06
15190.0 3.7729e-06
15210.0 3.7688e-06
15230.0 3.7648e-06
15250.0 3.7604e-06
15270.0 3.7562e-06
15290.0 3.7525e-06
15310.0 3.7485e-06
15330.0 3.7445e-06
15350.0 3.7408e-06
15370.0 3.7372e-06
15390.0 3.7332e-06
15410.0 3.7295e-06
15430.0 3.7261e-06
15450.0 3.7225e-06
15470.0 3.7187e-06
15490.0 3.7154e-06
15510.0 3.7121e-06
15530.0 3.7085e-06
15550.0 3.7052e-06
15570.0 3.702e-06
15590.0 3.6986e-06
15610.0 3.695e-06
15630.0 3.6919e-06
15650.0 3.6887e-06
15670.0 3.6853e-06
15690.0 3.682e-06
15710.0 3.679e-06
15730.0 3.6757e-06
15750.0 3.6723e-06
15770.0 3.6693e-06
15790.0 3.6661e-06
15810.0 3.6626e-06
15830.0 3.6593e-06
15850.0 3.6563e-06
15870.0 3.653e-06
15890.0 3.6496e-06
15910.0 3.6466e-06
15930.0 3.6433e-06
15950.0 3.6397e-06
15970.0 3.6364e-06
15990.0 3.6332e-06
16010.0 3.6297e-06
16030.0 3.6261e-06
16050.0 3.6229e-06
16070.0 3.6195e-06
16090.0 3.6158e-06
16110.0 3.6123e-06
16130.0 3.609e-06
16150.0 3.605e-06
16170.0 3.6012e-06
16190.0 3.5977e-06
16210.0 3.594e-06
16230.0 3.5899e-06
16250.0 3.5862e-06
16270.0 3.5825e-06
16290.0 3.5783e-06
16310.0 3.5743e-06
16330.0 3.5704e-06
16350.0 3.5663e-06
16370.0 3.5617e-06
16390.0 3.5576e-06
16410.0 3.5534e-06
16430.0 3.5489e-06
16450.0 3.5444e-06
16470.0 3.5402e-06
16490.0 3.5355e-06
16510.0 3.5307e-06
16530.0 3.5261e-06
16550.0 3.5214e-06
16570.0 3.5163e-06
16590.0 3.5113e-06
16610.0 3.5066e-06
16630.0 3.5015e-06
16650.0 3.4962e-06
16670.0 3.4911e-06
16690.0 3.486e-06
16710.0 3.4802e-06
16730.0 3.4748e-06
16750.0 3.4694e-06
16770.0 3.4637e-06
16790.0 3.4578e-06
16810.0 3.4522e-06
16830.0 3.4465e-06
16850.0 3.4403e-06
16870.0 3.4343e-06
16890.0 3.4285e-06
16910.0 3.4221e-06
16930.0 3.4155e-06
16950.0 3.4094e-06
16970.0 3.403e-06
16990.0 3.3963e-06
17010.0 3.3897e-06
17030.0 3.3833e-06
17050.0 3.3763e-06
17070.0 3.3693e-06
17090.0 3.3625e-06
17110.0 3.3556e-06
17130.0 3.3481e-06
17150.0 3.3409e-06
17170.0 3.3338e-06
17190.0 3.3263e-06
17210.0 3.3188e-06
17230.0 3.3115e-06
17250.0 3.3039e-06
17270.0 3.2959e-06
17290.0 3.2881e-06
17310.0 3.2804e-06
17330.0 3.2723e-06
17350.0 3.264e-06
17370.0 3.2562e-06
17390.0 3.248e-06
17410.0 3.2395e-06
17430.0 3.2313e-06
17450.0 3.2231e-06
17470.0 3.2142e-06
17490.0 3.2054e-06
17510.0 3.197e-06
17530.0 3.1882e-06
17550.0 3.1791e-06
17570.0 3.1704e-06
17590.0 3.1616e-06
17610.0 3.1524e-06
17630.0 3.1432e-06
17650.0 3.1342e-06
17670.0 3.1249e-06
17690.0 3.1151e-06
17710.0 3.1059e-06
17730.0 3.0966e-06
17750.0 3.0868e-06
17770.0 3.0772e-06
17790.0 3.0678e-06
17810.0 3.0579e-06
17830.0 3.0479e-06
17850.0 3.0382e-06
17870.0 3.0283e-06
17890.0 3.0181e-06
17910.0 3.0079e-06
17930.0 2.9981e-06
17950.0 2.9879e-06
17970.0 2.9775e-06
17990.0 2.9674e-06
18010.0 2.9572e-06
18030.0 2.9464e-06
18050.0 2.9359e-06
18070.0 2.9257e-06
18090.0 2.915e-06
18110.0 2.9042e-06
18130.0 2.8938e-06
18150.0 2.8832e-06
18170.0 2.8722e-06
18190.0 2.8615e-06
18210.0 2.8509e-06
18230.0 2.8398e-06
18250.0 2.8286e-06
18270.0 2.8179e-06
18290.0 2.807e-06
18310.0 2.7958e-06
18330.0 2.7848e-06
18350.0 2.7739e-06
18370.0 2.7626e-06
18390.0 2.7513e-06
18410.0 2.7403e-06
18430.0 2.7291e-06
18450.0 2.7175e-06
18470.0 2.7062e-06
18490.0 2.6952e-06
18510.0 2.6837e-06
18530.0 2.6722e-06
18550.0 2.6611e-06
18570.0 2.6497e-06
18590.0 2.6379e-06
18610.0 2.6265e-06
18630.0 2.6152e-06
18650.0 2.6035e-06
18670.0 2.5918e-06
18690.0 2.5806e-06
18710.0 2.569e-06
18730.0 2.5572e-06
18750.0 2.5458e-06
18770.0 2.5344e-06
18790.0 2.5224e-06
18810.0 2.5107e-06
18830.0 2.4993e-06
18850.0 2.4876e-06
18870.0 2.4757e-06
18890.0 2.4642e-06
18910.0 2.4528e-06
18930.0 2.4409e-06
18950.0 2.4292e-06
18970.0 2.4177e-06
18990.0 2.406e-06
19010.0 2.3938e-06
19030.0 2.3824e-06
19050.0 2.3708e-06
19070.0 2.359e-06
19090.0 2.3473e-06
19110.0 2.3359e-06
19130.0 2.324e-06
19150.0 2.3121e-06
19170.0 2.3006e-06
19190.0 2.289e-06
19210.0 2.2771e-06
19230.0 2.2653e-06
19250.0 2.254e-06
19270.0 2.2423e-06
19290.0 2.2305e-06
19310.0 2.219e-06
19330.0 2.2075e-06
19350.0 2.1955e-06
19370.0 2.184e-06
19390.0 2.1726e-06
19410.0 2.1609e-06
19430.0 2.1491e-06
19450.0 2.1378e-06
19470.0 2.1263e-06
19490.0 2.1146e-06
19510.0 2.1031e-06
19530.0 2.0919e-06
19550.0 2.0802e-06
19570.0 2.0684e-06
19590.0 2.0572e-06
19610.0 2.0458e-06
19630.0 2.0342e-06
19650.0 2.0229e-06
19670.0 2.0118e-06
19690.0 2.0002e-06
19710.0 1.9887e-06
19730.0 1.9776e-06
19750.0 1.9663e-06
19770.0 1.9547e-06
19790.0 1.9435e-06
19810.0 1.9325e-06
19830.0 1.9211e-06
19850.0 1.9097e-06
19870.0 1.8985e-06
19890.0 1.8866e-06
19910.0 1.8739e-06
19930.0 1.8604e-06
19950.0 1.8455e-06
19970.0 1.8276e-06
19990.0 1.8066e-06
20010.0 1.6427e-06
20030.0 1.6171e-06
20050.0 1.5875e-06
20070.0 1.5558e-06
20090.0 1.522e-06
20110.0 1.4841e-06
20130.0 1.446e-06
20150.0 1.4084e-06
20170.0 1.3697e-06
20190.0 1.3305e-06
20210.0 1.2936e-06
20230.0 1.2577e-06
20250.0 1.2219e-06
20270.0 1.1886e-06
20290.0 1.1581e-06
20310.0 1.1291e-06
20330.0 1.102e-06
20350.0 1.0793e-06
20370.0 1.0589e-06
20390.0 1.0409e-06
20410.0 1.0261e-06
20430.0 1.0144e-06
20450.0 1.0048e-06
20470.0 9.9796e-07
20490.0 9.9375e-07
20510.0 9.9171e-07
20530.0 9.918e-07
20550.0 9.9382e-07
20570.0 9.9735e-07
20590.0 1.0026e-06
20610.0 1.0092e-06
20630.0 1.0166e-06
20650.0 1.0252e-06
20670.0 1.0352e-06
20690.0 1.0454e-06
20710.0 1.0561e-06
20730.0 1.0677e-06
20750.0 1.0798e-06
20770.0 1.0917e-06
20790.0 1.1041e-06
20810.0 1.1172e-06
20830.0 1.1302e-06
20850.0 1.1431e-06
20870.0 1.1569e-06
20890.0 1.1708e-06
20910.0 1.1841e-06
20930.0 1.1978e-06
20950.0 1.212e-06
20970.0 1.2257e-06
20990.0 1.2392e-06
21010.0 1.2533e-06
21030.0 1.267e-06
21050.0 1.28e-06
21070.0 1.293e-06
21090.0 1.3059e-06
21110.0 1.3177e-06
21130.0 1.3287e-06
21150.0 1.3394e-06
21170.0 1.3489e-06
21190.0 1.3571e-06
21210.0 1.3645e-06
21230.0 1.3706e-06
21250.0 1.3749e-06
21270.0 1.3775e-06
21290.0 1.3783e-06
21310.0 1.377e-06
21330.0 1.3736e-06
21350.0 1.3679e-06
21370.0 1.3597e-06
21390.0 1.3493e-06
21410.0 1.3365e-06
21430.0 1.3204e-06
21450.0 1.3024e-06
21470.0 1.2826e-06
21490.0 1.2603e-06
21510.0 1.2358e-06
21530.0 1.2109e-06
21550.0 1.1847e-06
21570.0 1.1568e-06
21590.0 1.1292e-06
21610.0 1.1026e-06
21630.0 1.0758e-06
21650.0 1.0496e-06
21670.0 1.0268e-06
21690.0 1.0056e-06
21710.0 9.8637e-07
21730.0 9.7043e-07
21750.0 9.5789e-07
21770.0 9.4803e-07
21790.0 9.4188e-07
21810.0 9.3936e-07
21830.0 9.402e-07
21850.0 9.4462e-07
21870.0 9.522e-07
21890.0 9.6233e-07
21910.0 9.7565e-07
21930.0 9.9148e-07
21950.0 1.0088e-06
21970.0 1.0281e-06
21990.0 1.0499e-06
22010.0 1.0718e-06
22030.0 1.0942e-06
22050.0 1.1178e-06
22070.0 1.1416e-06
22090.0 1.1641e-06
22110.0 1.187e-06
22130.0 1.2099e-06
22150.0 1.2314e-06
22170.0 1.2516e-06
22190.0 1.2718e-06
22210.0 1.2906e-06
22230.0 1.3071e-06
22250.0 1.3227e-06
22270.0 1.3371e-06
22290.0 1.3493e-06
22310.0 1.3598e-06
22330.0 1.369e-06
22350.0 1.3761e-06
22370.0 1.381e-06
22390.0 1.384e-06
22410.0 1.3849e-06
22430.0 1.3833e-06
22450.0 1.3796e-06
22470.0 1.3733e-06
22490.0 1.3646e-06
22510.0 1.3538e-06
22530.0 1.34e-06
22550.0 1.3234e-06
22570.0 1.3049e-06
22590.0 1.2842e-06
