#lamb flux
1010.0 4.0485e-05
1030.0 4.2563e-05
1050.0 4.4958e-05
1070.0 4.7655e-05
1090.0 5.072e-05
1110.0 5.3866e-05
1130.0 5.7036e-05
1150.0 6.0361e-05
1170.0 6.3795e-05
1190.0 6.7057e-05
1210.0 7.0368e-05
1230.0 7.3795e-05
1250.0 7.716e-05
1270.0 8.0436e-05
1290.0 8.3902e-05
1310.0 8.7374e-05
1330.0 9.0713e-05
1350.0 9.4098e-05
1370.0 9.76e-05
1390.0 0.00010103
1410.0 0.00010436
1430.0 0.00010785
1450.0 0.00011136
1470.0 0.00011476
1490.0 0.0001182
1510.0 0.00012184
1530.0 0.00012531
1550.0 0.00012874
1570.0 0.0001323
1590.0 0.00013586
1610.0 0.00013928
1630.0 0.0001428
1650.0 0.00014642
1670.0 0.00014993
1690.0 0.0001534
1710.0 0.000157
1730.0 0.00016061
1750.0 0.00016402
1770.0 0.00016752
1790.0 0.00017108
1810.0 0.00017453
1830.0 0.00017791
1850.0 0.00018148
1870.0 0.00018496
1890.0 0.00018832
1910.0 0.00019174
1930.0 0.00019523
1950.0 0.00019856
1970.0 0.00020185
1990.0 0.00020526
2010.0 0.00020862
2030.0 0.00021186
2050.0 0.00021522
2070.0 0.00021868
2090.0 0.00022196
2110.0 0.00022526
2130.0 0.00022869
2150.0 0.0002321
2170.0 0.00023541
2190.0 0.0002389
2210.0 0.00024248
2230.0 0.00024599
2250.0 0.00024958
2270.0 0.00025339
2290.0 0.00025721
2310.0 0.00026099
2330.0 0.00026499
2350.0 0.00026915
2370.0 0.0002733
2390.0 0.00027763
2410.0 0.00028228
2430.0 0.00028695
2450.0 0.00029165
2470.0 0.00029645
2490.0 0.0003012
2510.0 0.00030564
2530.0 0.0003102
2550.0 0.0003156
2570.0 0.000323
2590.0 0.00033405
2610.0 0.00035222
2630.0 0.00037972
2650.0 0.00041648
2670.0 0.00046393
2690.0 0.00052193
2710.0 0.00058442
2730.0 0.00064789
2750.0 0.00071349
2770.0 0.00077629
2790.0 0.00083423
2810.0 0.00089033
2830.0 0.00094725
2850.0 0.0010015
2870.0 0.0010561
2890.0 0.0011137
2910.0 0.001173
2930.0 0.0012318
2950.0 0.0012939
2970.0 0.0013586
2990.0 0.0014231
3010.0 0.0028318
3030.0 0.0029614
3050.0 0.0030922
3070.0 0.0032162
3090.0 0.0033372
3110.0 0.0034444
3130.0 0.0035213
3150.0 0.0035534
3170.0 0.0035133
3190.0 0.0033849
3210.0 0.003166
3230.0 0.0028997
3250.0 0.0029029
3270.0 0.0021577
3290.0 0.0024225
3310.0 0.0017405
3330.0 0.001873
3350.0 0.0021097
3370.0 0.0023591
3390.0 0.0026144
3410.0 0.0028686
3430.0 0.003128
3450.0 0.0033855
3470.0 0.0036298
3490.0 0.003807
3510.0 0.004131
3530.0 0.0048286
3550.0 0.0055001
3570.0 0.0061642
3590.0 0.0075673
3610.0 0.0073543
3630.0 0.0079473
3650.0 0.0078045
3670.0 0.0084888
3690.0 0.0092705
3710.0 0.0098088
3730.0 0.011317
3750.0 0.011791
3770.0 0.011944
3790.0 0.011361
3810.0 0.010017
3830.0 0.0092089
3850.0 0.0080974
3870.0 0.0088256
3890.0 0.010042
3910.0 0.011841
3930.0 0.013738
3950.0 0.014927
3970.0 0.016983
3990.0 0.017473
4010.0 0.016988
4030.0 0.017258
4050.0 0.015838
4070.0 0.015161
4090.0 0.014759
4110.0 0.014082
4130.0 0.015195
4150.0 0.014648
4170.0 0.014628
4190.0 0.014343
4210.0 0.015376
4230.0 0.01474
4250.0 0.015894
4270.0 0.015851
4290.0 0.015923
4310.0 0.016996
4330.0 0.018099
4350.0 0.01823
4370.0 0.017854
4390.0 0.017007
4410.0 0.01505
4430.0 0.012536
4450.0 0.011568
4470.0 0.01191
4490.0 0.011902
4510.0 0.013473
4530.0 0.014779
4550.0 0.017441
4570.0 0.022585
4590.0 0.02761
4610.0 0.030211
4630.0 0.034657
4650.0 0.037908
4670.0 0.038168
4690.0 0.034818
4710.0 0.032336
4730.0 0.028721
4750.0 0.023552
4770.0 0.019894
4790.0 0.017728
4810.0 0.019346
4830.0 0.021491
4850.0 0.024134
4870.0 0.023057
4890.0 0.026388
4910.0 0.027563
4930.0 0.030068
4950.0 0.035254
4970.0 0.037486
4990.0 0.039488
5010.0 0.036535
5030.0 0.030668
5050.0 0.025011
5070.0 0.019856
5090.0 0.017882
5110.0 0.017567
5130.0 0.017274
5150.0 0.018085
5170.0 0.017487
5190.0 0.018445
5210.0 0.018732
5230.0 0.020034
5250.0 0.023343
5270.0 0.025225
5290.0 0.02724
5310.0 0.030502
5330.0 0.032825
5350.0 0.033411
5370.0 0.033262
5390.0 0.032371
5410.0 0.031578
5430.0 0.031798
5450.0 0.035386
5470.0 0.041235
5490.0 0.046826
5510.0 0.051944
5530.0 0.052914
5550.0 0.052019
5570.0 0.050295
5590.0 0.048675
5610.0 0.047758
5630.0 0.047413
5650.0 0.047258
5670.0 0.046254
5690.0 0.042705
5710.0 0.038666
5730.0 0.034226
5750.0 0.03172
5770.0 0.029712
5790.0 0.030022
5810.0 0.031268
5830.0 0.032007
5850.0 0.030675
5870.0 0.028812
5890.0 0.027918
5910.0 0.02677
5930.0 0.025865
5950.0 0.024891
5970.0 0.023546
5990.0 0.020494
6010.0 0.01767
6030.0 0.016144
6050.0 0.015617
6070.0 0.015252
6090.0 0.015235
6110.0 0.015547
6130.0 0.015691
6150.0 0.01663
6170.0 0.018405
6190.0 0.020278
6210.0 0.021279
6230.0 0.021568
6250.0 0.019837
6270.0 0.01752
6290.0 0.015057
6310.0 0.013163
6330.0 0.012164
6350.0 0.011818
6370.0 0.012409
6390.0 0.013912
6410.0 0.016348
6430.0 0.01951
6450.0 0.02216
6470.0 0.024166
6490.0 0.025887
6510.0 0.026596
6530.0 0.026404
6550.0 0.026528
6570.0 0.02681
6590.0 0.026475
6610.0 0.026744
6630.0 0.026259
6650.0 0.025428
6670.0 0.023956
6690.0 0.021922
6710.0 0.021043
6730.0 0.019914
6750.0 0.019906
6770.0 0.020446
6790.0 0.021156
6810.0 0.021538
6830.0 0.021132
6850.0 0.020269
6870.0 0.019634
6890.0 0.018709
6910.0 0.017826
6930.0 0.018273
6950.0 0.018505
6970.0 0.019254
6990.0 0.020008
7010.0 0.019834
7030.0 0.018666
7050.0 0.016703
7070.0 0.014851
7090.0 0.013157
7110.0 0.012247
7130.0 0.011766
7150.0 0.011454
7170.0 0.011849
7190.0 0.01211
7210.0 0.012767
7230.0 0.014166
7250.0 0.01517
7270.0 0.015532
7290.0 0.015329
7310.0 0.01463
7330.0 0.013722
7350.0 0.01325
7370.0 0.013336
7390.0 0.014035
7410.0 0.01551
7430.0 0.017311
7450.0 0.019536
7470.0 0.021224
7490.0 0.022042
7510.0 0.021281
7530.0 0.019666
7550.0 0.017321
7570.0 0.014869
7590.0 0.013887
7610.0 0.014065
7630.0 0.015131
7650.0 0.017293
7670.0 0.019438
7690.0 0.021422
7710.0 0.023259
7730.0 0.02478
7750.0 0.026092
7770.0 0.026796
7790.0 0.027867
7810.0 0.028643
7830.0 0.028723
7850.0 0.029005
7870.0 0.028152
7890.0 0.027449
7910.0 0.026039
7930.0 0.02551
7950.0 0.024708
7970.0 0.025036
7990.0 0.02494
8010.0 0.024676
8030.0 0.02485
8050.0 0.025773
8070.0 0.025413
8090.0 0.025566
8110.0 0.024776
8130.0 0.024776
8150.0 0.024127
8170.0 0.023563
8190.0 0.023362
8210.0 0.023647
8230.0 0.022016
8250.0 0.020579
8270.0 0.018043
8290.0 0.014701
8310.0 0.011732
8330.0 0.0091508
8350.0 0.0080098
8370.0 0.0088513
8390.0 0.0099862
8410.0 0.011019
8430.0 0.012582
8450.0 0.013363
8470.0 0.014055
8490.0 0.015762
8510.0 0.017511
8530.0 0.0204
8550.0 0.02412
8570.0 0.027423
8590.0 0.030086
8610.0 0.032595
8630.0 0.034731
8650.0 0.035222
8670.0 0.035494
8690.0 0.03681
8710.0 0.03731
8730.0 0.037928
8750.0 0.037026
8770.0 0.037223
8790.0 0.036808
8810.0 0.034337
8830.0 0.033763
8850.0 0.032002
8870.0 0.030774
8890.0 0.029218
8910.0 0.03032
8930.0 0.028468
8950.0 0.027653
8970.0 0.027432
8990.0 0.026795
9010.0 0.026595
9030.0 0.025824
9050.0 0.025673
9070.0 0.02561
9090.0 0.025547
9110.0 0.025487
9130.0 0.025419
9150.0 0.025347
9170.0 0.025235
9190.0 0.025068
9210.0 0.025225
9230.0 0.025094
9250.0 0.02499
9270.0 0.024891
9290.0 0.024795
9310.0 0.024702
9330.0 0.024609
9350.0 0.024517
9370.0 0.024423
9390.0 0.024327
9410.0 0.024231
9430.0 0.024132
9450.0 0.024027
9470.0 0.023922
9490.0 0.023827
9510.0 0.023727
9530.0 0.023626
9550.0 0.023523
9570.0 0.023419
9590.0 0.023314
9610.0 0.023209
9630.0 0.023102
9650.0 0.022995
9670.0 0.022888
9690.0 0.02278
9710.0 0.022672
9730.0 0.022564
9750.0 0.022456
9770.0 0.022348
9790.0 0.022239
9810.0 0.022131
9830.0 0.022023
9850.0 0.021915
9870.0 0.021807
9890.0 0.021699
9910.0 0.021591
9930.0 0.021482
9950.0 0.021259
9970.0 0.021187
9990.0 0.021108
10010.0 0.021026
10030.0 0.020935
10050.0 0.020835
10070.0 0.020726
10090.0 0.020631
10110.0 0.020529
10130.0 0.020431
10150.0 0.020332
10170.0 0.020229
10190.0 0.020123
10210.0 0.020023
10230.0 0.019925
10250.0 0.019823
10270.0 0.019723
10290.0 0.019628
10310.0 0.019529
10330.0 0.019426
10350.0 0.019331
10370.0 0.019236
10390.0 0.019137
10410.0 0.01904
10430.0 0.018949
10450.0 0.018853
10470.0 0.018756
10490.0 0.018664
10510.0 0.018573
10530.0 0.018475
10550.0 0.018381
10570.0 0.018292
10590.0 0.0182
10610.0 0.018106
10630.0 0.018017
10650.0 0.017928
10670.0 0.017834
10690.0 0.017743
10710.0 0.017656
10730.0 0.017564
10750.0 0.01747
10770.0 0.017383
10790.0 0.017296
10810.0 0.017204
10830.0 0.017114
10850.0 0.017029
10870.0 0.016934
10890.0 0.016836
10910.0 0.016738
10930.0 0.01663
10950.0 0.016502
10970.0 0.01636
10990.0 0.016203
11010.0 0.014987
11030.0 0.014792
11050.0 0.01459
11070.0 0.014374
11090.0 0.014134
11110.0 0.013904
11130.0 0.013677
11150.0 0.013441
11170.0 0.013206
11190.0 0.012986
11210.0 0.012762
11230.0 0.012534
11250.0 0.012319
11270.0 0.012113
11290.0 0.011902
11310.0 0.011698
11330.0 0.011517
11350.0 0.011339
11370.0 0.011166
11390.0 0.011009
11410.0 0.010863
11430.0 0.010714
11450.0 0.010575
11470.0 0.010446
11490.0 0.010314
11510.0 0.010176
11530.0 0.010043
11550.0 0.009907
11570.0 0.0097567
11590.0 0.0096002
11610.0 0.0094421
11630.0 0.0092671
11650.0 0.009077
11670.0 0.0088899
11690.0 0.0086967
11710.0 0.0084906
11730.0 0.0082848
11750.0 0.0080892
11770.0 0.0078865
11790.0 0.0076854
11810.0 0.0074988
11830.0 0.0073206
11850.0 0.0071406
11870.0 0.0069779
11890.0 0.006832
11910.0 0.0066906
11930.0 0.0065575
11950.0 0.0064403
11970.0 0.0063301
11990.0 0.0062217
12010.0 0.0061243
12030.0 0.0060358
12050.0 0.005949
12070.0 0.005865
12090.0 0.0057928
12110.0 0.0057236
12130.0 0.0056566
12150.0 0.0055973
12170.0 0.0055465
12190.0 0.005498
12210.0 0.0054589
12230.0 0.0054317
12250.0 0.0054146
12270.0 0.0054089
12290.0 0.0054181
12310.0 0.0054421
12330.0 0.0054816
12350.0 0.0055377
12370.0 0.0056086
12390.0 0.0056951
12410.0 0.0058002
12430.0 0.0059142
12450.0 0.0060372
12470.0 0.0061714
12490.0 0.0063109
12510.0 0.006448
12530.0 0.0065881
12550.0 0.0067278
12570.0 0.0068587
12590.0 0.0069814
12610.0 0.0070985
12630.0 0.0072044
12650.0 0.0072952
12670.0 0.0073758
12690.0 0.0074446
12710.0 0.0074997
12730.0 0.0075429
12750.0 0.007574
12770.0 0.0075929
12790.0 0.0076015
12810.0 0.0075991
12830.0 0.0075855
12850.0 0.007565
12870.0 0.0075368
12890.0 0.0074988
12910.0 0.0074548
12930.0 0.0074071
12950.0 0.0073509
12970.0 0.0072873
12990.0 0.0072232
13010.0 0.0071543
13030.0 0.0070777
13050.0 0.0069983
13070.0 0.0069189
13090.0 0.0068319
13110.0 0.0067408
13130.0 0.0066516
13150.0 0.0065614
13170.0 0.0064665
13190.0 0.006378
13210.0 0.0062971
13230.0 0.0062196
13250.0 0.0061503
13270.0 0.0060946
13290.0 0.0060494
13310.0 0.0060155
13330.0 0.0059968
13350.0 0.0059913
13370.0 0.0059973
13390.0 0.006014
13410.0 0.0060376
13430.0 0.0060655
13450.0 0.0060948
13470.0 0.0061209
13490.0 0.0061408
13510.0 0.0061518
13530.0 0.0061503
13550.0 0.006136
13570.0 0.0061073
13590.0 0.0060627
13610.0 0.0060061
13630.0 0.0059399
13650.0 0.0058607
13670.0 0.0057744
13690.0 0.0056864
13710.0 0.0055946
13730.0 0.005498
13750.0 0.0054089
13770.0 0.0053239
13790.0 0.0052405
13810.0 0.005163
13830.0 0.0050941
13850.0 0.0050282
13870.0 0.0049667
13890.0 0.0049122
13910.0 0.0048625
13930.0 0.004815
13950.0 0.0047715
13970.0 0.0047331
13990.0 0.0046964
14010.0 0.0046618
14030.0 0.0046307
14050.0 0.0046019
14070.0 0.0045741
14090.0 0.0045491
14110.0 0.0045266
14130.0 0.0045056
14150.0 0.0044861
14170.0 0.0044689
14190.0 0.0044533
14210.0 0.004439
14230.0 0.0044266
14250.0 0.0044161
14270.0 0.0044072
14290.0 0.0044005
14310.0 0.0043958
14330.0 0.0043931
14350.0 0.0043927
14370.0 0.0043939
14390.0 0.0043961
14410.0 0.0043999
14430.0 0.0044042
14450.0 0.0044081
14470.0 0.0044114
14490.0 0.0044144
14510.0 0.0044154
14530.0 0.0044146
14550.0 0.0044127
14570.0 0.0044096
14590.0 0.0044052
14610.0 0.0044009
14630.0 0.0043975
14650.0 0.0043955
14670.0 0.0043956
14690.0 0.0043997
14710.0 0.0044088
14730.0 0.0044216
14750.0 0.0044409
14770.0 0.0044679
14790.0 0.0045009
14810.0 0.0045397
14830.0 0.0045898
14850.0 0.0046466
14870.0 0.0047071
14890.0 0.004774
14910.0 0.0048464
14930.0 0.0049156
14950.0 0.0049792
14970.0 0.0050387
14990.0 0.0050859
15010.0 0.0051178
15030.0 0.0051369
15050.0 0.0051436
15070.0 0.0051376
15090.0 0.0051238
15110.0 0.0051045
15130.0 0.0050817
15150.0 0.0050571
15170.0 0.0050313
15190.0 0.005005
15210.0 0.0049786
15230.0 0.0049522
15250.0 0.0049255
15270.0 0.0048988
15290.0 0.0048724
15310.0 0.0048458
15330.0 0.0048191
15350.0 0.0047927
15370.0 0.0047662
15390.0 0.0047395
15410.0 0.004713
15430.0 0.0046866
15450.0 0.0046602
15470.0 0.0046336
15490.0 0.0046074
15510.0 0.0045812
15530.0 0.0045549
15550.0 0.0045287
15570.0 0.0045027
15590.0 0.0044766
15610.0 0.0044505
15630.0 0.0044247
15650.0 0.004399
15670.0 0.0043732
15690.0 0.0043476
15710.0 0.0043222
15730.0 0.0042967
15750.0 0.0042713
15770.0 0.0042462
15790.0 0.0042211
15810.0 0.0041959
15830.0 0.004171
15850.0 0.0041463
15870.0 0.0041216
15890.0 0.004097
15910.0 0.0040727
15930.0 0.0040485
15950.0 0.0040242
15970.0 0.0040001
15990.0 0.0039763
16010.0 0.0039525
16030.0 0.0039287
16050.0 0.0039054
16070.0 0.003882
16090.0 0.0038587
16110.0 0.0038357
16130.0 0.0038129
16150.0 0.00379
16170.0 0.0037673
16190.0 0.0037449
16210.0 0.0037226
16230.0 0.0037003
16250.0 0.0036783
16270.0 0.0036565
16290.0 0.0036347
16310.0 0.0036131
16330.0 0.0035918
16350.0 0.0035706
16370.0 0.0035493
16390.0 0.0035284
16410.0 0.0035077
16430.0 0.003487
16450.0 0.0034665
16470.0 0.0034463
16490.0 0.0034262
16510.0 0.0034061
16530.0 0.0033863
16550.0 0.0033667
16570.0 0.0033471
16590.0 0.0033277
16610.0 0.0033086
16630.0 0.0032896
16650.0 0.0032706
16670.0 0.003252
16690.0 0.0032335
16710.0 0.003215
16730.0 0.0031968
16750.0 0.0031788
16770.0 0.0031608
16790.0 0.003143
16810.0 0.0031255
16830.0 0.0031081
16850.0 0.0030907
16870.0 0.0030736
16890.0 0.0030567
16910.0 0.0030399
16930.0 0.0030231
16950.0 0.0030067
16970.0 0.0029904
16990.0 0.0029741
17010.0 0.0029581
17030.0 0.0029423
17050.0 0.0029265
17070.0 0.0029108
17090.0 0.0028954
17110.0 0.0028802
17130.0 0.0028649
17150.0 0.0028499
17170.0 0.0028351
17190.0 0.0028204
17210.0 0.0028058
17230.0 0.0027914
17250.0 0.0027772
17270.0 0.0027629
17290.0 0.0027489
17310.0 0.0027351
17330.0 0.0027214
17350.0 0.0027077
17370.0 0.0026944
17390.0 0.0026811
17410.0 0.0026678
17430.0 0.0026548
17450.0 0.002642
17470.0 0.0026291
17490.0 0.0026164
17510.0 0.0026039
17530.0 0.0025916
17550.0 0.0025792
17570.0 0.0025671
17590.0 0.0025552
17610.0 0.0025432
17630.0 0.0025314
17650.0 0.0025199
17670.0 0.0025083
17690.0 0.0024968
17710.0 0.0024856
17730.0 0.0024745
17750.0 0.0024634
17770.0 0.0024524
17790.0 0.0024417
17810.0 0.002431
17830.0 0.0024203
17850.0 0.0024099
17870.0 0.0023996
17890.0 0.0023892
17910.0 0.002379
17930.0 0.0023691
17950.0 0.0023591
17970.0 0.0023493
17990.0 0.0023396
18010.0 0.00233
18030.0 0.0023204
18050.0 0.002311
18070.0 0.0023017
18090.0 0.0022925
18110.0 0.0022833
18130.0 0.0022743
18150.0 0.0022655
18170.0 0.0022566
18190.0 0.0022478
18210.0 0.0022393
18230.0 0.0022307
18250.0 0.0022221
18270.0 0.0022138
18290.0 0.0022056
18310.0 0.0021973
18330.0 0.0021892
18350.0 0.0021813
18370.0 0.0021733
18390.0 0.0021654
18410.0 0.0021577
18430.0 0.00215
18450.0 0.0021423
18470.0 0.0021348
18490.0 0.0021275
18510.0 0.0021201
18530.0 0.0021128
18550.0 0.0021057
18570.0 0.0020985
18590.0 0.0020914
18610.0 0.0020844
18630.0 0.0020776
18650.0 0.0020707
18670.0 0.0020639
18690.0 0.0020573
18710.0 0.0020507
18730.0 0.0020441
18750.0 0.0020376
18770.0 0.0020313
18790.0 0.0020248
18810.0 0.0020185
18830.0 0.0020124
18850.0 0.0020062
18870.0 0.0020001
18890.0 0.0019941
18910.0 0.0019882
18930.0 0.0019823
18950.0 0.0019764
18970.0 0.0019707
18990.0 0.001965
19010.0 0.0019592
19030.0 0.0019536
19050.0 0.0019481
19070.0 0.0019426
19090.0 0.0019372
19110.0 0.0019319
19130.0 0.0019265
19150.0 0.0019212
19170.0 0.001916
19190.0 0.0019109
19210.0 0.0019057
19230.0 0.0019006
19250.0 0.0018957
19270.0 0.0018907
19290.0 0.0018857
19310.0 0.0018809
19330.0 0.0018761
19350.0 0.0018712
19370.0 0.0018665
19390.0 0.0018619
19410.0 0.0018572
19430.0 0.0018525
19450.0 0.0018481
19470.0 0.0018436
19490.0 0.001839
19510.0 0.0018346
19530.0 0.0018303
19550.0 0.0018259
19570.0 0.0018215
19590.0 0.0018173
19610.0 0.0018131
19630.0 0.0018089
19650.0 0.0018047
19670.0 0.0018007
19690.0 0.0017966
19710.0 0.0017925
19730.0 0.0017885
19750.0 0.0017846
19770.0 0.0017805
19790.0 0.0017766
19810.0 0.0017728
19830.0 0.0017689
19850.0 0.0017649
19870.0 0.001761
19890.0 0.0017567
19910.0 0.0017517
19930.0 0.001746
19950.0 0.0017389
19970.0 0.0017295
19990.0 0.0017175
20010.0 0.0017033
20030.0 0.0016855
20050.0 0.0016644
20070.0 0.0016413
20090.0 0.0016164
20110.0 0.0015884
20130.0 0.00156
20150.0 0.0015321
20170.0 0.0015033
20190.0 0.0014741
20210.0 0.0014466
20230.0 0.0014197
20250.0 0.0013927
20270.0 0.0013674
20290.0 0.001344
20310.0 0.0013215
20330.0 0.0013002
20350.0 0.001282
20370.0 0.0012655
20390.0 0.0012506
20410.0 0.0012382
20430.0 0.0012281
20450.0 0.0012197
20470.0 0.0012134
20490.0 0.0012094
20510.0 0.0012073
20530.0 0.001207
20550.0 0.0012084
20570.0 0.0012112
20590.0 0.0012154
20610.0 0.0012208
20630.0 0.0012269
20650.0 0.0012337
20670.0 0.0012414
20690.0 0.0012491
20710.0 0.0012567
20730.0 0.0012643
20750.0 0.0012717
20770.0 0.0012782
20790.0 0.0012841
20810.0 0.0012894
20830.0 0.0012936
20850.0 0.0012967
20870.0 0.0012989
20890.0 0.0012998
20910.0 0.0012995
20930.0 0.001298
20950.0 0.0012954
20970.0 0.0012917
20990.0 0.0012871
21010.0 0.0012814
21030.0 0.0012748
21050.0 0.0012677
21070.0 0.0012599
21090.0 0.0012512
21110.0 0.0012426
21130.0 0.0012338
21150.0 0.0012247
21170.0 0.0012156
21190.0 0.001207
21210.0 0.0011983
21230.0 0.0011899
21250.0 0.0011823
21270.0 0.0011754
21290.0 0.0011689
21310.0 0.0011633
21330.0 0.0011588
21350.0 0.001155
21370.0 0.0011521
21390.0 0.0011503
21410.0 0.0011494
21430.0 0.0011495
21450.0 0.0011505
21470.0 0.0011525
21490.0 0.0011553
21510.0 0.0011591
21530.0 0.0011635
21550.0 0.0011685
21570.0 0.0011745
21590.0 0.0011809
21610.0 0.0011877
21630.0 0.0011952
21650.0 0.0012033
21670.0 0.0012113
21690.0 0.0012197
21710.0 0.0012287
21730.0 0.0012376
21750.0 0.0012465
21770.0 0.001256
21790.0 0.0012656
21810.0 0.0012749
21830.0 0.0012844
21850.0 0.0012941
21870.0 0.0013035
21890.0 0.0013125
21910.0 0.0013217
21930.0 0.0013307
21950.0 0.0013391
21970.0 0.0013473
21990.0 0.0013555
22010.0 0.0013628
22030.0 0.0013694
22050.0 0.0013757
22070.0 0.0013812
22090.0 0.0013857
22110.0 0.0013894
22130.0 0.0013923
22150.0 0.001394
22170.0 0.0013947
22190.0 0.0013942
22210.0 0.0013925
22230.0 0.0013897
22250.0 0.0013855
22270.0 0.00138
22290.0 0.0013734
22310.0 0.0013658
22330.0 0.0013565
22350.0 0.0013462
22370.0 0.0013352
22390.0 0.0013229
22410.0 0.0013093
22430.0 0.0012955
22450.0 0.0012811
22470.0 0.0012655
22490.0 0.0012496
22510.0 0.001234
22530.0 0.0012174
22550.0 0.0012003
22570.0 0.0011839
22590.0 0.0011677
22610.0 0.0011511
22630.0 0.001135
22650.0 0.00112
22670.0 0.0011049
22690.0 0.0010901
22710.0 0.0010765
22730.0 0.0010635
22750.0 0.0010505
22770.0 0.0010386
22790.0 0.0010278
22810.0 0.0010172
22830.0 0.0010073
22850.0 0.00099834
22870.0 0.00098987
22890.0 0.00098164
22910.0 0.00097417
22930.0 0.00096734
22950.0 0.00096073
22970.0 0.0009544
22990.0 0.00094889
23010.0 0.00094362
23030.0 0.00093854
23050.0 0.00093391
23070.0 0.0009297
23090.0 0.0009255
23110.0 0.00092161
23130.0 0.00091809
23150.0 0.00091473
23170.0 0.00091144
23190.0 0.00090844
23210.0 0.00090569
23230.0 0.00090298
23250.0 0.00090046
23270.0 0.00089823
23290.0 0.00089617
23310.0 0.00089429
23330.0 0.00089279
23350.0 0.0008916
23370.0 0.00089071
23390.0 0.00089019
23410.0 0.00089004
23430.0 0.00089021
23450.0 0.00089073
23470.0 0.00089154
23490.0 0.00089258
23510.0 0.0008939
23530.0 0.00089538
23550.0 0.0008969
23570.0 0.00089853
23590.0 0.00090023
23610.0 0.00090187
23630.0 0.00090349
23650.0 0.00090517
23670.0 0.00090682
23690.0 0.00090847
23710.0 0.00091024
23730.0 0.00091224
23750.0 0.0009144
23770.0 0.00091691
23790.0 0.00092
23810.0 0.00092365
23830.0 0.00092787
23850.0 0.00093312
23870.0 0.00093944
23890.0 0.00094648
23910.0 0.00095453
23930.0 0.00096392
23950.0 0.00097417
23970.0 0.00098487
23990.0 0.00099677
24010.0 0.0010094
24030.0 0.001022
24050.0 0.0010349
24070.0 0.0010486
24090.0 0.0010615
