#lamb flux
1010.0 3.221e-07
1030.0 3.5495e-07
1050.0 3.9273e-07
1070.0 4.3526e-07
1090.0 4.8356e-07
1110.0 5.3311e-07
1130.0 5.8298e-07
1150.0 6.3522e-07
1170.0 6.891e-07
1190.0 7.402e-07
1210.0 7.9198e-07
1230.0 8.4549e-07
1250.0 8.9792e-07
1270.0 9.4884e-07
1290.0 1.0026e-06
1310.0 1.0564e-06
1330.0 1.108e-06
1350.0 1.1601e-06
1370.0 1.2139e-06
1390.0 1.2664e-06
1410.0 1.3173e-06
1430.0 1.3706e-06
1450.0 1.4238e-06
1470.0 1.4752e-06
1490.0 1.5272e-06
1510.0 1.5821e-06
1530.0 1.6341e-06
1550.0 1.6854e-06
1570.0 1.7385e-06
1590.0 1.7916e-06
1610.0 1.8423e-06
1630.0 1.8945e-06
1650.0 1.9481e-06
1670.0 2e-06
1690.0 2.0511e-06
1710.0 2.1041e-06
1730.0 2.1574e-06
1750.0 2.2075e-06
1770.0 2.2589e-06
1790.0 2.3113e-06
1810.0 2.3619e-06
1830.0 2.4115e-06
1850.0 2.4641e-06
1870.0 2.5151e-06
1890.0 2.5641e-06
1910.0 2.6139e-06
1930.0 2.6647e-06
1950.0 2.7129e-06
1970.0 2.76e-06
1990.0 2.8088e-06
2010.0 2.8562e-06
2030.0 2.9013e-06
2050.0 2.9474e-06
2070.0 2.9941e-06
2090.0 3.0373e-06
2110.0 3.0796e-06
2130.0 3.1226e-06
2150.0 3.1637e-06
2170.0 3.2018e-06
2190.0 3.2406e-06
2210.0 3.2787e-06
2230.0 3.3137e-06
2250.0 3.3472e-06
2270.0 3.3815e-06
2290.0 3.4128e-06
2310.0 3.4408e-06
2330.0 3.4687e-06
2350.0 3.4957e-06
2370.0 3.5194e-06
2390.0 3.5428e-06
2410.0 3.5687e-06
2430.0 3.5944e-06
2450.0 3.6221e-06
2470.0 3.6577e-06
2490.0 3.7057e-06
2510.0 3.7666e-06
2530.0 3.8586e-06
2550.0 4.0088e-06
2570.0 4.2391e-06
2590.0 4.5754e-06
2610.0 5.0959e-06
2630.0 5.8028e-06
2650.0 6.6438e-06
2670.0 7.6169e-06
2690.0 8.6717e-06
2710.0 9.6519e-06
2730.0 1.0492e-05
2750.0 1.1211e-05
2770.0 1.1741e-05
2790.0 1.2091e-05
2810.0 1.2325e-05
2830.0 1.249e-05
2850.0 1.2586e-05
2870.0 1.2655e-05
2890.0 1.2723e-05
2910.0 1.2786e-05
2930.0 1.2837e-05
2950.0 1.2896e-05
2970.0 1.2959e-05
2990.0 1.3013e-05
3010.0 0.00015266
3030.0 0.00015333
3050.0 0.00015396
3070.0 0.00015434
3090.0 0.0001546
3110.0 0.00015455
3130.0 0.00015392
3150.0 0.00015263
3170.0 0.00015051
3190.0 0.00014759
3210.0 0.00014424
3230.0 0.0001408
3250.0 0.00013807
3270.0 0.00013638
3290.0 0.00013646
3310.0 0.000138
3330.0 0.0001415
3350.0 0.0001464
3370.0 0.00015279
3390.0 0.00016043
3410.0 0.00016844
3430.0 0.00017715
3450.0 0.00018679
3470.0 0.00019686
3490.0 0.00020708
3510.0 0.00021822
3530.0 0.0002298
3550.0 0.00024112
3570.0 0.00025266
3590.0 0.00026535
3610.0 0.00027777
3630.0 0.00029056
3650.0 0.00030325
3670.0 0.00031484
3690.0 0.00032373
3710.0 0.00032971
3730.0 0.00033289
3750.0 0.00033392
3770.0 0.0003111
3790.0 0.00028873
3810.0 0.00025366
3830.0 0.00018962
3850.0 0.00013809
3870.0 0.00013514
3890.0 0.0001697
3910.0 0.00026366
3930.0 0.00035068
3950.0 0.00039555
3970.0 0.00041533
3990.0 0.00044344
4010.0 0.00049109
4030.0 0.00049062
4050.0 0.00046176
4070.0 0.00042852
4090.0 0.00041016
4110.0 0.00044023
4130.0 0.00045249
4150.0 0.00045291
4170.0 0.00046549
4190.0 0.00046555
4210.0 0.00047563
4230.0 0.0005144
4250.0 0.00056242
4270.0 0.00058624
4290.0 0.00058069
4310.0 0.0005916
4330.0 0.00063227
4350.0 0.00073251
4370.0 0.00082366
4390.0 0.00077394
4410.0 0.00063719
4430.0 0.00054529
4450.0 0.00046141
4470.0 0.00042715
4490.0 0.00048244
4510.0 0.00057304
4530.0 0.000634
4550.0 0.00070002
4570.0 0.0008184
4590.0 0.001003
4610.0 0.0013171
4630.0 0.0015891
4650.0 0.0016095
4670.0 0.0015962
4690.0 0.0016942
4710.0 0.0017106
4730.0 0.0014224
4750.0 0.0010731
4770.0 0.00086953
4790.0 0.00084154
4810.0 0.00079975
4830.0 0.00079748
4850.0 0.0009408
4870.0 0.0011702
4890.0 0.0012549
4910.0 0.0010876
4930.0 0.0010247
4950.0 0.0011888
4970.0 0.0015651
4990.0 0.0019162
5010.0 0.00196
5030.0 0.0015719
5050.0 0.0010742
5070.0 0.00079033
5090.0 0.00068221
5110.0 0.00067309
5130.0 0.00072972
5150.0 0.00075573
5170.0 0.00074575
5190.0 0.00074004
5210.0 0.00072354
5230.0 0.00076072
5250.0 0.0008317
5270.0 0.0009524
5290.0 0.0011023
5310.0 0.0012003
5330.0 0.0012407
5350.0 0.0013167
5370.0 0.0014429
5390.0 0.0014948
5410.0 0.0013767
5430.0 0.0012169
5450.0 0.0011985
5470.0 0.0014287
5490.0 0.0018098
5510.0 0.0022002
5530.0 0.0023795
5550.0 0.0023059
5570.0 0.0021365
5590.0 0.0019339
5610.0 0.0018532
5630.0 0.0018606
5650.0 0.0018699
5670.0 0.001834
5690.0 0.0017332
5710.0 0.0016561
5730.0 0.0014704
5750.0 0.0011306
5770.0 0.00099233
5790.0 0.0010747
5810.0 0.0012547
5830.0 0.0014251
5850.0 0.001526
5870.0 0.001531
5890.0 0.0014273
5910.0 0.0013835
5930.0 0.0013996
5950.0 0.0014688
5970.0 0.0015178
5990.0 0.0013862
6010.0 0.0011449
6030.0 0.00094775
6050.0 0.00086857
6070.0 0.00090364
6090.0 0.0009983
6110.0 0.0010186
6130.0 0.000949
6150.0 0.00092402
6170.0 0.0010137
6190.0 0.001213
6210.0 0.0014569
6230.0 0.0016238
6250.0 0.0016103
6270.0 0.0014245
6290.0 0.0011748
6310.0 0.00094151
6330.0 0.0007788
6350.0 0.00073754
6370.0 0.00080937
6390.0 0.00093013
6410.0 0.0010805
6430.0 0.0012486
6450.0 0.0014671
6470.0 0.001814
6490.0 0.0022121
6510.0 0.0023417
6530.0 0.002207
6550.0 0.0021057
6570.0 0.0020811
6590.0 0.0019966
6610.0 0.00184
6630.0 0.0017126
6650.0 0.0016434
6670.0 0.0016404
6690.0 0.0015936
6710.0 0.0014337
6730.0 0.0012434
6750.0 0.0011404
6770.0 0.0012002
6790.0 0.0012895
6810.0 0.0013292
6830.0 0.0013467
6850.0 0.0012981
6870.0 0.0012378
6890.0 0.001199
6910.0 0.0011424
6930.0 0.001104
6950.0 0.001114
6970.0 0.0011548
6990.0 0.001269
7010.0 0.0013249
7030.0 0.0012649
7050.0 0.001159
7070.0 0.0010094
7090.0 0.00085791
7110.0 0.00080383
7130.0 0.00083908
7150.0 0.00087521
7170.0 0.00089849
7190.0 0.00088136
7210.0 0.00087696
7230.0 0.00098197
7250.0 0.0011411
7270.0 0.0012821
7290.0 0.0013543
7310.0 0.0012669
7330.0 0.0011322
7350.0 0.0010324
7370.0 0.0010078
7390.0 0.0010547
7410.0 0.0011337
7430.0 0.0012469
7450.0 0.001379
7470.0 0.0014992
7490.0 0.0015263
7510.0 0.0013268
7530.0 0.001315
7550.0 0.0011908
7570.0 0.0010165
7590.0 0.00081772
7610.0 0.00076385
7630.0 0.00083212
7650.0 0.00096927
7670.0 0.0011107
7690.0 0.0012266
7710.0 0.0013464
7730.0 0.0014536
7750.0 0.0015303
7770.0 0.001507
7790.0 0.0014978
7810.0 0.0015246
7830.0 0.0015097
7850.0 0.0014496
7870.0 0.0013615
7890.0 0.0012529
7910.0 0.0011091
7930.0 0.000984
7950.0 0.00090562
7970.0 0.00088445
7990.0 0.00091508
8010.0 0.00093501
8030.0 0.00094716
8050.0 0.00095659
8070.0 0.00094594
8090.0 0.00094269
8110.0 0.00090862
8130.0 0.00084872
8150.0 0.00080128
8170.0 0.00079243
8190.0 0.00080587
8210.0 0.0008133
8230.0 0.00080612
8250.0 0.00077868
8270.0 0.00068736
8290.0 0.00054334
8310.0 0.00039536
8330.0 0.00026591
8350.0 0.00018994
8370.0 0.0001928
8390.0 0.00023375
8410.0 0.00029521
8430.0 0.00036032
8450.0 0.00039581
8470.0 0.00041545
8490.0 0.00043538
8510.0 0.00045832
8530.0 0.00050858
8550.0 0.00059211
8570.0 0.00069607
8590.0 0.00080389
8610.0 0.00093784
8630.0 0.0010892
8650.0 0.0011813
8670.0 0.0011811
8690.0 0.0011397
8710.0 0.0010818
8730.0 0.0010366
8750.0 0.0009945
8770.0 0.00096767
8790.0 0.00092925
8810.0 0.00086262
8830.0 0.00078871
8850.0 0.00067686
8870.0 0.00059894
8890.0 0.00055563
8910.0 0.00058346
8930.0 0.00057246
8950.0 0.00058822
8970.0 0.0005951
8990.0 0.00060342
9010.0 0.00061372
9030.0 0.00060542
9050.0 0.00060488
9070.0 0.0006053
9090.0 0.00060578
9110.0 0.00060608
9130.0 0.00060664
9150.0 0.00060749
9170.0 0.00060802
9190.0 0.00060813
9210.0 0.00061147
9230.0 0.00061198
9250.0 0.00061288
9270.0 0.00061392
9290.0 0.00061509
9310.0 0.00061639
9330.0 0.00061779
9350.0 0.00061926
9370.0 0.00062082
9390.0 0.00062247
9410.0 0.00062418
9430.0 0.00062595
9450.0 0.00062781
9470.0 0.00062974
9490.0 0.00063171
9510.0 0.00063376
9530.0 0.00063589
9550.0 0.00063806
9570.0 0.00064029
9590.0 0.0006426
9610.0 0.00064496
9630.0 0.00064736
9650.0 0.00064983
9670.0 0.00065236
9690.0 0.00065493
9710.0 0.00065754
9730.0 0.00066022
9750.0 0.00066293
9770.0 0.00066567
9790.0 0.00066846
9810.0 0.0006713
9830.0 0.00067416
9850.0 0.00067705
9870.0 0.00067999
9890.0 0.00068295
9910.0 0.00068592
9930.0 0.00068892
9950.0 0.00069178
9970.0 0.00069485
9990.0 0.00069793
10010.0 0.00070023
10030.0 0.00070331
10050.0 0.00070622
10070.0 0.00070836
10090.0 0.00071177
10110.0 0.00071508
10130.0 0.0007183
10150.0 0.0007215
10170.0 0.00072459
10190.0 0.00072756
10210.0 0.00073057
10230.0 0.00073356
10250.0 0.00073645
10270.0 0.00073932
10290.0 0.00074221
10310.0 0.000745
10330.0 0.00074769
10350.0 0.00075042
10370.0 0.00075311
10390.0 0.00075567
10410.0 0.0007582
10430.0 0.00076075
10450.0 0.00076316
10470.0 0.00076548
10490.0 0.00076779
10510.0 0.00077004
10530.0 0.0007721
10550.0 0.00077414
10570.0 0.00077618
10590.0 0.00077806
10610.0 0.00077983
10630.0 0.00078159
10650.0 0.00078326
10670.0 0.00078474
10690.0 0.00078617
10710.0 0.00078756
10730.0 0.00078879
10750.0 0.00078985
10770.0 0.00079095
10790.0 0.00079191
10810.0 0.00079269
10830.0 0.00079337
10850.0 0.00079395
10870.0 0.00079412
10890.0 0.00079384
10910.0 0.00079295
10930.0 0.00079096
10950.0 0.00078711
10970.0 0.00078115
10990.0 0.0007729
11010.0 0.00074715
11030.0 0.00073188
11050.0 0.00071435
11070.0 0.00069419
11090.0 0.00067076
11110.0 0.00064727
11130.0 0.00062356
11150.0 0.00059897
11170.0 0.0005748
11190.0 0.00055259
11210.0 0.00053102
11230.0 0.00051042
11250.0 0.00049225
11270.0 0.00047616
11290.0 0.00046136
11310.0 0.00044853
11330.0 0.00043808
11350.0 0.00042881
11370.0 0.00042057
11390.0 0.00041345
11410.0 0.00040692
11430.0 0.00040021
11450.0 0.00039347
11470.0 0.00038652
11490.0 0.00037882
11510.0 0.0003701
11530.0 0.00036096
11550.0 0.00035118
11570.0 0.00034037
11590.0 0.00032916
11610.0 0.00031801
11630.0 0.00030637
11650.0 0.00029458
11670.0 0.00028363
11690.0 0.00027319
11710.0 0.00026307
11730.0 0.00025384
11750.0 0.00024573
11770.0 0.00023812
11790.0 0.00023125
11810.0 0.00022529
11830.0 0.00021994
11850.0 0.00021486
11870.0 0.0002103
11890.0 0.00020608
11910.0 0.00020186
11930.0 0.00019758
11950.0 0.00019334
11970.0 0.00018892
11990.0 0.00018413
12010.0 0.00017925
12030.0 0.0001743
12050.0 0.0001691
12070.0 0.00016378
12090.0 0.00015884
12110.0 0.00015404
12130.0 0.00014947
12150.0 0.00014545
12170.0 0.0001421
12190.0 0.00013928
12210.0 0.00013732
12230.0 0.00013625
12250.0 0.00013603
12270.0 0.00013677
12290.0 0.00013836
12310.0 0.00014067
12330.0 0.00014385
12350.0 0.00014769
12370.0 0.00015188
12390.0 0.00015651
12410.0 0.00016166
12430.0 0.00016657
12450.0 0.00017134
12470.0 0.00017607
12490.0 0.00018042
12510.0 0.0001841
12530.0 0.00018738
12550.0 0.00019009
12570.0 0.00019201
12590.0 0.00019322
12610.0 0.00019378
12630.0 0.0001936
12650.0 0.00019274
12670.0 0.00019128
12690.0 0.00018922
12710.0 0.00018672
12730.0 0.00018384
12750.0 0.00018047
12770.0 0.00017687
12790.0 0.00017315
12810.0 0.0001692
12830.0 0.00016505
12850.0 0.00016096
12870.0 0.00015684
12890.0 0.00015254
12910.0 0.00014823
12930.0 0.000144
12950.0 0.00013957
12970.0 0.00013501
12990.0 0.0001306
13010.0 0.00012615
13030.0 0.00012157
13050.0 0.00011709
13070.0 0.00011284
13090.0 0.00010856
13110.0 0.00010444
13130.0 0.00010069
13150.0 9.7227e-05
13170.0 9.3992e-05
13190.0 9.1276e-05
13210.0 8.9061e-05
13230.0 8.7253e-05
13250.0 8.5936e-05
13270.0 8.5129e-05
13290.0 8.4774e-05
13310.0 8.4888e-05
13330.0 8.5414e-05
13350.0 8.6278e-05
13370.0 8.7498e-05
13390.0 8.9018e-05
13410.0 9.0614e-05
13430.0 9.2367e-05
13450.0 9.4248e-05
13470.0 9.6083e-05
13490.0 9.7818e-05
13510.0 9.9596e-05
13530.0 0.00010122
13550.0 0.00010262
13570.0 0.00010389
13590.0 0.00010502
13610.0 0.00010592
13630.0 0.00010663
13650.0 0.00010722
13670.0 0.00010764
13690.0 0.00010789
13710.0 0.00010802
13730.0 0.00010802
13750.0 0.00010789
13770.0 0.00010764
13790.0 0.00010728
13810.0 0.0001068
13830.0 0.00010622
13850.0 0.00010553
13870.0 0.00010471
13890.0 0.0001038
13910.0 0.0001028
13930.0 0.00010166
13950.0 0.00010044
13970.0 9.9196e-05
13990.0 9.7879e-05
14010.0 9.6516e-05
14030.0 9.5188e-05
14050.0 9.3892e-05
14070.0 9.2584e-05
14090.0 9.138e-05
14110.0 9.0295e-05
14130.0 8.9298e-05
14150.0 8.8417e-05
14170.0 8.7707e-05
14190.0 8.7139e-05
14210.0 8.6715e-05
14230.0 8.646e-05
14250.0 8.6362e-05
14270.0 8.6429e-05
14290.0 8.6671e-05
14310.0 8.7044e-05
14330.0 8.7556e-05
14350.0 8.8219e-05
14370.0 8.8979e-05
14390.0 8.9793e-05
14410.0 9.0718e-05
14430.0 9.1701e-05
14450.0 9.268e-05
14470.0 9.3688e-05
14490.0 9.4772e-05
14510.0 9.5837e-05
14530.0 9.6904e-05
14550.0 9.8069e-05
14570.0 9.9329e-05
14590.0 0.00010065
14610.0 0.00010214
14630.0 0.00010388
14650.0 0.00010579
14670.0 0.0001079
14690.0 0.00011033
14710.0 0.00011307
14730.0 0.00011588
14750.0 0.00011896
14770.0 0.0001223
14790.0 0.00012566
14810.0 0.000129
14830.0 0.00013254
14850.0 0.00013592
14870.0 0.00013901
14890.0 0.00014191
14910.0 0.00014458
14930.0 0.00014678
14950.0 0.00014856
14970.0 0.00015001
14990.0 0.00015101
15010.0 0.0001516
15030.0 0.00015189
15050.0 0.00015191
15070.0 0.00015173
15090.0 0.00015143
15110.0 0.00015103
15130.0 0.00015059
15150.0 0.00015015
15170.0 0.00014969
15190.0 0.00014921
15210.0 0.00014875
15230.0 0.00014829
15250.0 0.00014782
15270.0 0.00014736
15290.0 0.00014692
15310.0 0.00014647
15330.0 0.00014602
15350.0 0.00014558
15370.0 0.00014515
15390.0 0.00014469
15410.0 0.00014425
15430.0 0.00014383
15450.0 0.00014339
15470.0 0.00014295
15490.0 0.00014253
15510.0 0.00014211
15530.0 0.00014168
15550.0 0.00014126
15570.0 0.00014085
15590.0 0.00014042
15610.0 0.00013999
15630.0 0.00013958
15650.0 0.00013917
15670.0 0.00013874
15690.0 0.00013833
15710.0 0.00013793
15730.0 0.00013752
15750.0 0.0001371
15770.0 0.0001367
15790.0 0.00013629
15810.0 0.00013587
15830.0 0.00013546
15850.0 0.00013506
15870.0 0.00013465
15890.0 0.00013424
15910.0 0.00013384
15930.0 0.00013344
15950.0 0.00013302
15970.0 0.00013262
15990.0 0.00013222
16010.0 0.0001318
16030.0 0.00013139
16050.0 0.00013099
16070.0 0.00013059
16090.0 0.00013017
16110.0 0.00012977
16130.0 0.00012938
16150.0 0.00012895
16170.0 0.00012854
16190.0 0.00012814
16210.0 0.00012773
16230.0 0.0001273
16250.0 0.0001269
16270.0 0.0001265
16290.0 0.00012608
16310.0 0.00012566
16330.0 0.00012526
16350.0 0.00012484
16370.0 0.0001244
16390.0 0.000124
16410.0 0.00012359
16430.0 0.00012316
16450.0 0.00012274
16470.0 0.00012233
16490.0 0.0001219
16510.0 0.00012147
16530.0 0.00012105
16550.0 0.00012063
16570.0 0.00012019
16590.0 0.00011976
16610.0 0.00011934
16630.0 0.00011891
16650.0 0.00011847
16670.0 0.00011805
16690.0 0.00011762
16710.0 0.00011717
16730.0 0.00011673
16750.0 0.0001163
16770.0 0.00011586
16790.0 0.00011541
16810.0 0.00011498
16830.0 0.00011454
16850.0 0.00011409
16870.0 0.00011364
16890.0 0.00011321
16910.0 0.00011275
16930.0 0.00011228
16950.0 0.00011184
16970.0 0.00011139
16990.0 0.00011093
17010.0 0.00011048
17030.0 0.00011003
17050.0 0.00010957
17070.0 0.0001091
17090.0 0.00010865
17110.0 0.00010819
17130.0 0.00010771
17150.0 0.00010725
17170.0 0.00010679
17190.0 0.00010632
17210.0 0.00010585
17230.0 0.00010539
17250.0 0.00010492
17270.0 0.00010444
17290.0 0.00010397
17310.0 0.0001035
17330.0 0.00010302
17350.0 0.00010253
17370.0 0.00010207
17390.0 0.00010159
17410.0 0.0001011
17430.0 0.00010062
17450.0 0.00010015
17470.0 9.9653e-05
17490.0 9.9163e-05
17510.0 9.8688e-05
17530.0 9.8202e-05
17550.0 9.7704e-05
17570.0 9.7222e-05
17590.0 9.6744e-05
17610.0 9.6244e-05
17630.0 9.575e-05
17650.0 9.5269e-05
17670.0 9.4776e-05
17690.0 9.4262e-05
17710.0 9.3778e-05
17730.0 9.329e-05
17750.0 9.2787e-05
17770.0 9.2288e-05
17790.0 9.1807e-05
17810.0 9.1303e-05
17830.0 9.0794e-05
17850.0 9.0302e-05
17870.0 8.9808e-05
17890.0 8.9295e-05
17910.0 8.8789e-05
17930.0 8.8303e-05
17950.0 8.7799e-05
17970.0 8.7289e-05
17990.0 8.6796e-05
18010.0 8.63e-05
18030.0 8.5779e-05
18050.0 8.5275e-05
18070.0 8.478e-05
18090.0 8.4272e-05
18110.0 8.3756e-05
18130.0 8.3263e-05
18150.0 8.2763e-05
18170.0 8.2248e-05
18190.0 8.1744e-05
18210.0 8.1249e-05
18230.0 8.0734e-05
18250.0 8.0215e-05
18270.0 7.9719e-05
18290.0 7.9216e-05
18310.0 7.8701e-05
18330.0 7.8197e-05
18350.0 7.7704e-05
18370.0 7.7189e-05
18390.0 7.6676e-05
18410.0 7.6178e-05
18430.0 7.5674e-05
18450.0 7.5152e-05
18470.0 7.4649e-05
18490.0 7.4154e-05
18510.0 7.3643e-05
18530.0 7.3133e-05
18550.0 7.2641e-05
18570.0 7.2136e-05
18590.0 7.1617e-05
18610.0 7.1116e-05
18630.0 7.062e-05
18650.0 7.0108e-05
18670.0 6.9596e-05
18690.0 6.9107e-05
18710.0 6.8605e-05
18730.0 6.8094e-05
18750.0 6.7598e-05
18770.0 6.7107e-05
18790.0 6.6589e-05
18810.0 6.6084e-05
18830.0 6.5595e-05
18850.0 6.5094e-05
18870.0 6.4585e-05
18890.0 6.4094e-05
18910.0 6.3606e-05
18930.0 6.3098e-05
18950.0 6.26e-05
18970.0 6.2113e-05
18990.0 6.1616e-05
19010.0 6.1102e-05
19030.0 6.0618e-05
19050.0 6.0131e-05
19070.0 5.963e-05
19090.0 5.9137e-05
19110.0 5.866e-05
19130.0 5.8162e-05
19150.0 5.7662e-05
19170.0 5.7179e-05
19190.0 5.6695e-05
19210.0 5.6195e-05
19230.0 5.5704e-05
19250.0 5.5232e-05
19270.0 5.4743e-05
19290.0 5.4251e-05
19310.0 5.3776e-05
19330.0 5.3299e-05
19350.0 5.2799e-05
19370.0 5.2318e-05
19390.0 5.1846e-05
19410.0 5.1361e-05
19430.0 5.0873e-05
19450.0 5.0406e-05
19470.0 4.9933e-05
19490.0 4.9447e-05
19510.0 4.8973e-05
19530.0 4.8508e-05
19550.0 4.8024e-05
19570.0 4.754e-05
19590.0 4.7078e-05
19610.0 4.6609e-05
19630.0 4.6129e-05
19650.0 4.5664e-05
19670.0 4.5207e-05
19690.0 4.4729e-05
19710.0 4.4257e-05
19730.0 4.3799e-05
19750.0 4.3335e-05
19770.0 4.2855e-05
19790.0 4.2396e-05
19810.0 4.1943e-05
19830.0 4.1474e-05
19850.0 4.1007e-05
19870.0 4.0553e-05
19890.0 4.0077e-05
19910.0 3.9576e-05
19930.0 3.9069e-05
19950.0 3.8531e-05
19970.0 3.7927e-05
19990.0 3.7264e-05
20010.0 3.6571e-05
20030.0 3.5797e-05
20050.0 3.4959e-05
20070.0 3.4113e-05
20090.0 3.3264e-05
20110.0 3.2372e-05
20130.0 3.1533e-05
20150.0 3.076e-05
20170.0 3.0017e-05
20190.0 2.932e-05
20210.0 2.8711e-05
20230.0 2.8161e-05
20250.0 2.7656e-05
20270.0 2.7227e-05
20290.0 2.6871e-05
20310.0 2.6568e-05
20330.0 2.6323e-05
20350.0 2.6153e-05
20370.0 2.6038e-05
20390.0 2.5978e-05
20410.0 2.5975e-05
20430.0 2.6022e-05
20450.0 2.6126e-05
20470.0 2.6283e-05
20490.0 2.6481e-05
20510.0 2.6724e-05
20530.0 2.7021e-05
20550.0 2.7351e-05
20570.0 2.7701e-05
20590.0 2.8096e-05
20610.0 2.8518e-05
20630.0 2.8943e-05
20650.0 2.9386e-05
20670.0 2.986e-05
20690.0 3.0316e-05
20710.0 3.0761e-05
20730.0 3.1214e-05
20750.0 3.1661e-05
20770.0 3.2076e-05
20790.0 3.249e-05
20810.0 3.2907e-05
20830.0 3.3306e-05
20850.0 3.3695e-05
20870.0 3.4105e-05
20890.0 3.452e-05
20910.0 3.4922e-05
20930.0 3.5345e-05
20950.0 3.5792e-05
20970.0 3.6235e-05
20990.0 3.668e-05
21010.0 3.7153e-05
21030.0 3.7618e-05
21050.0 3.806e-05
21070.0 3.8496e-05
21090.0 3.8921e-05
21110.0 3.9293e-05
21130.0 3.9623e-05
21150.0 3.9919e-05
21170.0 4.016e-05
21190.0 4.0339e-05
21210.0 4.0467e-05
21230.0 4.0533e-05
21250.0 4.0533e-05
21270.0 4.0474e-05
21290.0 4.035e-05
21310.0 4.0165e-05
21330.0 3.9932e-05
21350.0 3.9639e-05
21370.0 3.9288e-05
21390.0 3.8902e-05
21410.0 3.8478e-05
21430.0 3.7991e-05
21450.0 3.7487e-05
21470.0 3.6976e-05
21490.0 3.6433e-05
21510.0 3.5874e-05
21530.0 3.5337e-05
21550.0 3.4803e-05
21570.0 3.4264e-05
21590.0 3.3761e-05
21610.0 3.3299e-05
21630.0 3.2862e-05
21650.0 3.2462e-05
21670.0 3.2138e-05
21690.0 3.1863e-05
21710.0 3.1641e-05
21730.0 3.1489e-05
21750.0 3.1403e-05
21770.0 3.1381e-05
21790.0 3.1429e-05
21810.0 3.154e-05
21830.0 3.1715e-05
21850.0 3.1961e-05
21870.0 3.226e-05
21890.0 3.2602e-05
21910.0 3.3008e-05
21930.0 3.3462e-05
21950.0 3.3939e-05
21970.0 3.4459e-05
21990.0 3.5037e-05
22010.0 3.5613e-05
22030.0 3.6199e-05
22050.0 3.6818e-05
22070.0 3.7445e-05
22090.0 3.8044e-05
22110.0 3.8652e-05
22130.0 3.9262e-05
22150.0 3.9833e-05
22170.0 4.0371e-05
22190.0 4.0899e-05
22210.0 4.138e-05
22230.0 4.1791e-05
22250.0 4.2159e-05
22270.0 4.2471e-05
22290.0 4.2707e-05
22310.0 4.2872e-05
22330.0 4.2967e-05
22350.0 4.2977e-05
22370.0 4.2906e-05
22390.0 4.275e-05
22410.0 4.2499e-05
22430.0 4.2175e-05
22450.0 4.1775e-05
22470.0 4.1279e-05
22490.0 4.0711e-05
22510.0 4.0094e-05
22530.0 3.9386e-05
22550.0 3.8601e-05
22570.0 3.7797e-05
22590.0 3.6949e-05
22610.0 3.6033e-05
22630.0 3.5099e-05
22650.0 3.4183e-05
22670.0 3.3219e-05
22690.0 3.2238e-05
22710.0 3.1293e-05
22730.0 3.036e-05
22750.0 2.9391e-05
22770.0 2.8485e-05
