#lamb flux
1010.0 3.3337e-07
1030.0 3.4745e-07
1050.0 3.638e-07
1070.0 3.8225e-07
1090.0 4.0323e-07
1110.0 4.2485e-07
1130.0 4.4673e-07
1150.0 4.6977e-07
1170.0 4.9367e-07
1190.0 5.1653e-07
1210.0 5.3987e-07
1230.0 5.6415e-07
1250.0 5.8817e-07
1270.0 6.1175e-07
1290.0 6.3682e-07
1310.0 6.6213e-07
1330.0 6.8672e-07
1350.0 7.1184e-07
1370.0 7.38e-07
1390.0 7.6387e-07
1410.0 7.8933e-07
1430.0 8.1615e-07
1450.0 8.4328e-07
1470.0 8.6991e-07
1490.0 8.971e-07
1510.0 9.2593e-07
1530.0 9.5372e-07
1550.0 9.8143e-07
1570.0 1.0102e-06
1590.0 1.0392e-06
1610.0 1.0672e-06
1630.0 1.096e-06
1650.0 1.1256e-06
1670.0 1.1543e-06
1690.0 1.1826e-06
1710.0 1.2117e-06
1730.0 1.2408e-06
1750.0 1.268e-06
1770.0 1.2956e-06
1790.0 1.3233e-06
1810.0 1.3497e-06
1830.0 1.3751e-06
1850.0 1.4014e-06
1870.0 1.4263e-06
1890.0 1.4496e-06
1910.0 1.4727e-06
1930.0 1.4955e-06
1950.0 1.5164e-06
1970.0 1.5362e-06
1990.0 1.5562e-06
2010.0 1.5749e-06
2030.0 1.5921e-06
2050.0 1.6093e-06
2070.0 1.6266e-06
2090.0 1.642e-06
2110.0 1.6571e-06
2130.0 1.6726e-06
2150.0 1.6876e-06
2170.0 1.7017e-06
2190.0 1.7169e-06
2210.0 1.7327e-06
2230.0 1.7483e-06
2250.0 1.7646e-06
2270.0 1.7829e-06
2290.0 1.8017e-06
2310.0 1.8211e-06
2330.0 1.8429e-06
2350.0 1.8666e-06
2370.0 1.8916e-06
2390.0 1.9191e-06
2410.0 1.9501e-06
2430.0 1.983e-06
2450.0 2.0182e-06
2470.0 2.0566e-06
2490.0 2.098e-06
2510.0 2.1415e-06
2530.0 2.1912e-06
2550.0 2.2542e-06
2570.0 2.3401e-06
2590.0 2.4618e-06
2610.0 2.6493e-06
2630.0 2.9192e-06
2650.0 3.269e-06
2670.0 3.7109e-06
2690.0 4.2425e-06
2710.0 4.8115e-06
2730.0 5.3889e-06
2750.0 5.985e-06
2770.0 6.5598e-06
2790.0 7.0988e-06
2810.0 7.6287e-06
2830.0 8.1727e-06
2850.0 8.7051e-06
2870.0 9.2526e-06
2890.0 9.837e-06
2910.0 1.0449e-05
2930.0 1.1073e-05
2950.0 1.174e-05
2970.0 1.2446e-05
2990.0 1.3165e-05
3010.0 2.4109e-05
3030.0 2.5454e-05
3050.0 2.6806e-05
3070.0 2.8064e-05
3090.0 2.918e-05
3110.0 2.9916e-05
3130.0 2.9984e-05
3150.0 2.9059e-05
3170.0 2.649e-05
3190.0 2.2175e-05
3210.0 1.6149e-05
3230.0 9.2987e-06
3250.0 1.6302e-05
3270.0 7.0464e-06
3290.0 2.3602e-05
3310.0 4.697e-06
3330.0 4.792e-06
3350.0 7.3472e-06
3370.0 1.0257e-05
3390.0 1.3343e-05
3410.0 1.6416e-05
3430.0 1.9626e-05
3450.0 2.2825e-05
3470.0 2.5757e-05
3490.0 2.7679e-05
3510.0 3.4455e-05
3530.0 4.7192e-05
3550.0 4.7308e-05
3570.0 4.0171e-05
3590.0 5.7566e-05
3610.0 3.7107e-05
3630.0 5.9824e-05
3650.0 6.7908e-05
3670.0 8.7296e-05
3690.0 8.3472e-05
3710.0 5.9567e-05
3730.0 7.9571e-05
3750.0 8.2741e-05
3770.0 8.5241e-05
3790.0 7.7115e-05
3810.0 6.7775e-05
3830.0 9.3709e-05
3850.0 0.00010081
3870.0 0.00012519
3890.0 0.00011816
3910.0 0.00010727
3930.0 0.00011612
3950.0 0.00013069
3970.0 0.00017044
3990.0 0.00013725
4010.0 9.0693e-05
4030.0 0.00012215
4050.0 0.0001336
4070.0 0.00015181
4090.0 0.00013323
4110.0 9.1114e-05
4130.0 0.00012012
4150.0 0.00011041
4170.0 0.00011701
4190.0 0.00011643
4210.0 0.00014461
4230.0 0.00010114
4250.0 0.00012085
4270.0 0.00012072
4290.0 0.00012205
4310.0 0.00014867
4330.0 0.00015246
4350.0 0.00011823
4370.0 0.00010238
4390.0 0.00012422
4410.0 0.00012654
4430.0 9.7782e-05
4450.0 9.8381e-05
4470.0 0.00011401
4490.0 8.5083e-05
4510.0 0.00010356
4530.0 0.00011184
4550.0 0.00014952
4570.0 0.00021895
4590.0 0.00021263
4610.0 0.00014228
4630.0 0.0002262
4650.0 0.00032368
4670.0 0.00029941
4690.0 0.00017792
4710.0 0.00019224
4730.0 0.00024837
4750.0 0.00022201
4770.0 0.00016814
4790.0 0.00011626
4810.0 0.00016781
4830.0 0.00019356
4850.0 0.00017301
4870.0 6.2733e-05
4890.0 0.00018571
4910.0 0.00025749
4930.0 0.00027612
4950.0 0.00027236
4970.0 0.00017197
4990.0 0.00019729
5010.0 0.00022925
5030.0 0.00024907
5050.0 0.00024549
5070.0 0.0001776
5090.0 0.00014578
5110.0 0.00013636
5130.0 0.00012162
5150.0 0.00013901
5170.0 0.00012119
5190.0 0.00015008
5210.0 0.00015018
5230.0 0.00016493
5250.0 0.00020991
5270.0 0.00017899
5290.0 0.00017644
5310.0 0.00025844
5330.0 0.00030045
5350.0 0.00025522
5370.0 0.00022386
5390.0 0.00025442
5410.0 0.00031919
5430.0 0.00035271
5450.0 0.00037969
5470.0 0.00038429
5490.0 0.00037854
5510.0 0.00044356
5530.0 0.00046173
5550.0 0.0004958
5570.0 0.00052755
5590.0 0.00052512
5610.0 0.00049992
5630.0 0.0004847
5650.0 0.00049589
5670.0 0.00049291
5690.0 0.00042353
5710.0 0.0004079
5730.0 0.00041403
5750.0 0.00045295
5770.0 0.00039544
5790.0 0.00036428
5810.0 0.00037105
5830.0 0.00039137
5850.0 0.00035986
5870.0 0.00036359
5890.0 0.00043323
5910.0 0.00041535
5930.0 0.00034346
5950.0 0.00030027
5970.0 0.0003222
5990.0 0.0002987
6010.0 0.00028233
6030.0 0.000289
6050.0 0.00027113
6070.0 0.00020521
6090.0 0.00018459
6110.0 0.0002375
6130.0 0.0002736
6150.0 0.00028794
6170.0 0.0002809
6190.0 0.0002646
6210.0 0.00025928
6230.0 0.00029962
6250.0 0.00027695
6270.0 0.00025329
6290.0 0.00023273
6310.0 0.00022015
6330.0 0.00020948
6350.0 0.00018362
6370.0 0.00018244
6390.0 0.00021621
6410.0 0.00026853
6430.0 0.00030836
6450.0 0.00029079
6470.0 0.00028534
6490.0 0.00035527
6510.0 0.00040644
6530.0 0.00038507
6550.0 0.00037065
6570.0 0.00037636
6590.0 0.00036464
6610.0 0.00039609
6630.0 0.00037296
6650.0 0.00033054
6670.0 0.00029794
6690.0 0.00028851
6710.0 0.00035232
6730.0 0.000324
6750.0 0.00027896
6770.0 0.00025158
6790.0 0.00026366
6810.0 0.0002916
6830.0 0.00028463
6850.0 0.00025908
6870.0 0.00026757
6890.0 0.00026271
6910.0 0.00024802
6930.0 0.00028414
6950.0 0.00026364
6970.0 0.00024727
6990.0 0.00024701
7010.0 0.00023643
7030.0 0.00022267
7050.0 0.00021478
7070.0 0.00023203
7090.0 0.00021987
7110.0 0.00019079
7130.0 0.00015452
7150.0 0.00014027
7170.0 0.00018574
7190.0 0.0002024
7210.0 0.00019579
7230.0 0.00020376
7250.0 0.00018994
7270.0 0.00018094
7290.0 0.00019998
7310.0 0.00022277
7330.0 0.00021864
7350.0 0.00020526
7370.0 0.00019625
7390.0 0.00020561
7410.0 0.00023964
7430.0 0.00026208
7450.0 0.00027908
7470.0 0.00027442
7490.0 0.00028179
7510.0 0.00027014
7530.0 0.00026965
7550.0 0.00026549
7570.0 0.00023344
7590.0 0.00023066
7610.0 0.00022364
7630.0 0.00020791
7650.0 0.00022769
7670.0 0.00024803
7690.0 0.00026873
7710.0 0.0002989
7730.0 0.00031781
7750.0 0.00033145
7770.0 0.00033082
7790.0 0.00036019
7810.0 0.00037101
7830.0 0.00034259
7850.0 0.00034433
7870.0 0.00032731
7890.0 0.000341
7910.0 0.0003227
7930.0 0.00032439
7950.0 0.00028755
7970.0 0.00029434
7990.0 0.00028178
8010.0 0.00028116
8030.0 0.0002795
8050.0 0.00029239
8070.0 0.00028157
8090.0 0.00028178
8110.0 0.00027418
8130.0 0.00027355
8150.0 0.00026147
8170.0 0.00025382
8190.0 0.00025025
8210.0 0.00025168
8230.0 0.00022379
8250.0 0.00020462
8270.0 0.00017922
8290.0 0.00014871
8310.0 0.00012665
8330.0 0.00010084
8350.0 8.4768e-05
8370.0 8.7303e-05
8390.0 8.9319e-05
8410.0 9.4664e-05
8430.0 0.00011509
8450.0 0.00012288
8470.0 0.00012959
8490.0 0.00014813
8510.0 0.00016125
8530.0 0.00018548
8550.0 0.00021889
8570.0 0.00024361
8590.0 0.00026102
8610.0 0.00028432
8630.0 0.0003118
8650.0 0.00031632
8670.0 0.00031906
8690.0 0.00033079
8710.0 0.00032691
8730.0 0.00032324
8750.0 0.00030559
8770.0 0.00030528
8790.0 0.00030058
8810.0 0.00027705
8830.0 0.00027607
8850.0 0.00025884
8870.0 0.00024831
8890.0 0.00022713
8910.0 0.00024256
8930.0 0.00022187
8950.0 0.00021764
8970.0 0.00021772
8990.0 0.00021025
9010.0 0.00021344
9030.0 0.00020494
9050.0 0.00020381
9070.0 0.00020355
9090.0 0.00020326
9110.0 0.00020304
9130.0 0.00020268
9150.0 0.00020225
9170.0 0.00020135
9190.0 0.00019969
9210.0 0.00020195
9230.0 0.00020087
9250.0 0.0002001
9270.0 0.00019937
9290.0 0.00019866
9310.0 0.00019798
9330.0 0.00019729
9350.0 0.00019659
9370.0 0.00019588
9390.0 0.00019516
9410.0 0.00019441
9430.0 0.00019364
9450.0 0.00019285
9470.0 0.00019205
9490.0 0.00019124
9510.0 0.00019043
9530.0 0.0001896
9550.0 0.00018875
9570.0 0.00018789
9590.0 0.00018703
9610.0 0.00018615
9630.0 0.00018527
9650.0 0.00018439
9670.0 0.0001835
9690.0 0.0001826
9710.0 0.00018171
9730.0 0.00018081
9750.0 0.00017991
9770.0 0.00017901
9790.0 0.00017811
9810.0 0.00017722
9830.0 0.00017632
9850.0 0.00017543
9870.0 0.00017455
9890.0 0.00017366
9910.0 0.00017279
9930.0 0.00017191
9950.0 0.00017053
9970.0 0.00016982
9990.0 0.0001691
10010.0 0.00016837
10030.0 0.0001676
10050.0 0.00016678
10070.0 0.00016579
10090.0 0.00016508
10110.0 0.00016434
10130.0 0.0001636
10150.0 0.00016287
10170.0 0.00016213
10190.0 0.00016137
10210.0 0.00016064
10230.0 0.00015993
10250.0 0.00015921
10270.0 0.00015851
10290.0 0.00015784
10310.0 0.00015717
10330.0 0.00015648
10350.0 0.00015584
10370.0 0.00015522
10390.0 0.00015458
10410.0 0.00015397
10430.0 0.00015339
10450.0 0.00015281
10470.0 0.00015223
10490.0 0.00015168
10510.0 0.00015115
10530.0 0.0001506
10550.0 0.00015007
10570.0 0.00014958
10590.0 0.00014909
10610.0 0.0001486
10630.0 0.00014815
10650.0 0.0001477
10670.0 0.00014725
10690.0 0.00014682
10710.0 0.00014641
10730.0 0.000146
10750.0 0.00014559
10770.0 0.00014522
10790.0 0.00014486
10810.0 0.00014449
10830.0 0.00014414
10850.0 0.00014381
10870.0 0.00014344
10890.0 0.00014303
10910.0 0.00014259
10930.0 0.00014202
10950.0 0.00014124
10970.0 0.00014022
10990.0 0.00013896
11010.0 0.00013645
11030.0 0.00013453
11050.0 0.00013231
11070.0 0.00012977
11090.0 0.00012682
11110.0 0.00012389
11130.0 0.00012094
11150.0 0.0001179
11170.0 0.00011489
11190.0 0.00011209
11210.0 0.00010933
11230.0 0.0001066
11250.0 0.0001041
11270.0 0.00010178
11290.0 9.9503e-05
11310.0 9.7389e-05
11330.0 9.5551e-05
11350.0 9.3803e-05
11370.0 9.2154e-05
11390.0 9.0682e-05
11410.0 8.9333e-05
11430.0 8.7977e-05
11450.0 8.6708e-05
11470.0 8.5515e-05
11490.0 8.4297e-05
11510.0 8.3016e-05
11530.0 8.1766e-05
11550.0 8.048e-05
11570.0 7.9068e-05
11590.0 7.76e-05
11610.0 7.612e-05
11630.0 7.4502e-05
11650.0 7.2765e-05
11670.0 7.1065e-05
11690.0 6.9327e-05
11710.0 6.7495e-05
11730.0 6.5682e-05
11750.0 6.3968e-05
11770.0 6.221e-05
11790.0 6.0478e-05
11810.0 5.8878e-05
11830.0 5.7357e-05
11850.0 5.5829e-05
11870.0 5.4448e-05
11890.0 5.3207e-05
11910.0 5.2004e-05
11930.0 5.0867e-05
11950.0 4.9858e-05
11970.0 4.8902e-05
11990.0 4.7955e-05
12010.0 4.7091e-05
12030.0 4.6294e-05
12050.0 4.5503e-05
12070.0 4.4728e-05
12090.0 4.4048e-05
12110.0 4.339e-05
12130.0 4.2747e-05
12150.0 4.2171e-05
12170.0 4.1672e-05
12190.0 4.1196e-05
12210.0 4.081e-05
12230.0 4.0539e-05
12250.0 4.0368e-05
12270.0 4.0311e-05
12290.0 4.0398e-05
12310.0 4.0625e-05
12330.0 4.1e-05
12350.0 4.1528e-05
12370.0 4.2187e-05
12390.0 4.2982e-05
12410.0 4.3935e-05
12430.0 4.4951e-05
12450.0 4.603e-05
12470.0 4.7188e-05
12490.0 4.8371e-05
12510.0 4.9514e-05
12530.0 5.0661e-05
12550.0 5.1786e-05
12570.0 5.2823e-05
12590.0 5.3783e-05
12610.0 5.4687e-05
12630.0 5.5496e-05
12650.0 5.6191e-05
12670.0 5.6808e-05
12690.0 5.7339e-05
12710.0 5.7776e-05
12730.0 5.8133e-05
12750.0 5.841e-05
12770.0 5.8608e-05
12790.0 5.8738e-05
12810.0 5.8796e-05
12830.0 5.8777e-05
12850.0 5.8706e-05
12870.0 5.8577e-05
12890.0 5.8368e-05
12910.0 5.8104e-05
12930.0 5.7798e-05
12950.0 5.7409e-05
12970.0 5.6943e-05
12990.0 5.6453e-05
13010.0 5.5906e-05
13030.0 5.5277e-05
13050.0 5.461e-05
13070.0 5.3933e-05
13090.0 5.3182e-05
13110.0 5.2392e-05
13130.0 5.162e-05
13150.0 5.0844e-05
13170.0 5.0031e-05
13190.0 4.9284e-05
13210.0 4.8611e-05
13230.0 4.7975e-05
13250.0 4.7415e-05
13270.0 4.6973e-05
13290.0 4.6621e-05
13310.0 4.6358e-05
13330.0 4.6213e-05
13350.0 4.6166e-05
13370.0 4.6195e-05
13390.0 4.6291e-05
13410.0 4.643e-05
13430.0 4.6583e-05
13450.0 4.6728e-05
13470.0 4.6838e-05
13490.0 4.6896e-05
13510.0 4.6874e-05
13530.0 4.6762e-05
13550.0 4.6566e-05
13570.0 4.6276e-05
13590.0 4.5882e-05
13610.0 4.5425e-05
13630.0 4.4923e-05
13650.0 4.4348e-05
13670.0 4.3746e-05
13690.0 4.3154e-05
13710.0 4.2553e-05
13730.0 4.1934e-05
13750.0 4.1377e-05
13770.0 4.0852e-05
13790.0 4.034e-05
13810.0 3.9863e-05
13830.0 3.9435e-05
13850.0 3.9017e-05
13870.0 3.8611e-05
13890.0 3.8236e-05
13910.0 3.7875e-05
13930.0 3.7508e-05
13950.0 3.715e-05
13970.0 3.6815e-05
13990.0 3.6477e-05
14010.0 3.6142e-05
14030.0 3.5828e-05
14050.0 3.5531e-05
14070.0 3.5237e-05
14090.0 3.4974e-05
14110.0 3.4741e-05
14130.0 3.453e-05
14150.0 3.4346e-05
14170.0 3.4198e-05
14190.0 3.4079e-05
14210.0 3.399e-05
14230.0 3.3932e-05
14250.0 3.3904e-05
14270.0 3.3907e-05
14290.0 3.3944e-05
14310.0 3.4002e-05
14330.0 3.4087e-05
14350.0 3.4199e-05
14370.0 3.4327e-05
14390.0 3.4461e-05
14410.0 3.4614e-05
14430.0 3.4771e-05
14450.0 3.4916e-05
14470.0 3.5055e-05
14490.0 3.5192e-05
14510.0 3.5306e-05
14530.0 3.5397e-05
14550.0 3.5481e-05
14570.0 3.5553e-05
14590.0 3.561e-05
14610.0 3.5668e-05
14630.0 3.574e-05
14650.0 3.582e-05
14670.0 3.5919e-05
14690.0 3.6057e-05
14710.0 3.6242e-05
14730.0 3.6452e-05
14750.0 3.672e-05
14770.0 3.7055e-05
14790.0 3.7435e-05
14810.0 3.7854e-05
14830.0 3.8366e-05
14850.0 3.8917e-05
14870.0 3.9478e-05
14890.0 4.0073e-05
14910.0 4.0691e-05
14930.0 4.1257e-05
14950.0 4.1757e-05
14970.0 4.2205e-05
14990.0 4.2539e-05
15010.0 4.2741e-05
15030.0 4.2834e-05
15050.0 4.2824e-05
15070.0 4.2715e-05
15090.0 4.2544e-05
15110.0 4.2331e-05
15130.0 4.209e-05
15150.0 4.1837e-05
15170.0 4.1574e-05
15190.0 4.1307e-05
15210.0 4.1041e-05
15230.0 4.0774e-05
15250.0 4.0505e-05
15270.0 4.0237e-05
15290.0 3.9971e-05
15310.0 3.9704e-05
15330.0 3.9437e-05
15350.0 3.9172e-05
15370.0 3.8907e-05
15390.0 3.864e-05
15410.0 3.8375e-05
15430.0 3.8113e-05
15450.0 3.7849e-05
15470.0 3.7585e-05
15490.0 3.7325e-05
15510.0 3.7066e-05
15530.0 3.6805e-05
15550.0 3.6546e-05
15570.0 3.629e-05
15590.0 3.6032e-05
15610.0 3.5775e-05
15630.0 3.5522e-05
15650.0 3.5269e-05
15670.0 3.5016e-05
15690.0 3.4765e-05
15710.0 3.4518e-05
15730.0 3.4269e-05
15750.0 3.4021e-05
15770.0 3.3776e-05
15790.0 3.3533e-05
15810.0 3.3288e-05
15830.0 3.3047e-05
15850.0 3.2809e-05
15870.0 3.2571e-05
15890.0 3.2333e-05
15910.0 3.21e-05
15930.0 3.1867e-05
15950.0 3.1633e-05
15970.0 3.1404e-05
15990.0 3.1176e-05
16010.0 3.0948e-05
16030.0 3.0722e-05
16050.0 3.05e-05
16070.0 3.0279e-05
16090.0 3.0058e-05
16110.0 2.984e-05
16130.0 2.9625e-05
16150.0 2.9408e-05
16170.0 2.9194e-05
16190.0 2.8984e-05
16210.0 2.8775e-05
16230.0 2.8566e-05
16250.0 2.836e-05
16270.0 2.8158e-05
16290.0 2.7954e-05
16310.0 2.7753e-05
16330.0 2.7556e-05
16350.0 2.7359e-05
16370.0 2.7161e-05
16390.0 2.6969e-05
16410.0 2.6778e-05
16430.0 2.6587e-05
16450.0 2.6399e-05
16470.0 2.6214e-05
16490.0 2.6029e-05
16510.0 2.5846e-05
16530.0 2.5665e-05
16550.0 2.5487e-05
16570.0 2.5308e-05
16590.0 2.5132e-05
16610.0 2.496e-05
16630.0 2.4787e-05
16650.0 2.4616e-05
16670.0 2.4449e-05
16690.0 2.4283e-05
16710.0 2.4116e-05
16730.0 2.3952e-05
16750.0 2.3791e-05
16770.0 2.3631e-05
16790.0 2.3472e-05
16810.0 2.3316e-05
16830.0 2.3162e-05
16850.0 2.3007e-05
16870.0 2.2856e-05
16890.0 2.2707e-05
16910.0 2.2557e-05
16930.0 2.2409e-05
16950.0 2.2265e-05
16970.0 2.2122e-05
16990.0 2.1979e-05
17010.0 2.1838e-05
17030.0 2.1701e-05
17050.0 2.1562e-05
17070.0 2.1426e-05
17090.0 2.1292e-05
17110.0 2.116e-05
17130.0 2.1027e-05
17150.0 2.0897e-05
17170.0 2.0769e-05
17190.0 2.0642e-05
17210.0 2.0516e-05
17230.0 2.0393e-05
17250.0 2.027e-05
17270.0 2.0147e-05
17290.0 2.0028e-05
17310.0 1.991e-05
17330.0 1.9792e-05
17350.0 1.9675e-05
17370.0 1.9562e-05
17390.0 1.9449e-05
17410.0 1.9336e-05
17430.0 1.9226e-05
17450.0 1.9117e-05
17470.0 1.9008e-05
17490.0 1.89e-05
17510.0 1.8796e-05
17530.0 1.8691e-05
17550.0 1.8587e-05
17570.0 1.8485e-05
17590.0 1.8386e-05
17610.0 1.8285e-05
17630.0 1.8186e-05
17650.0 1.809e-05
17670.0 1.7994e-05
17690.0 1.7897e-05
17710.0 1.7803e-05
17730.0 1.7711e-05
17750.0 1.7619e-05
17770.0 1.7528e-05
17790.0 1.7439e-05
17810.0 1.735e-05
17830.0 1.7262e-05
17850.0 1.7176e-05
17870.0 1.709e-05
17890.0 1.7005e-05
17910.0 1.6921e-05
17930.0 1.6839e-05
17950.0 1.6757e-05
17970.0 1.6676e-05
17990.0 1.6597e-05
18010.0 1.6519e-05
18030.0 1.6439e-05
18050.0 1.6362e-05
18070.0 1.6287e-05
18090.0 1.6211e-05
18110.0 1.6136e-05
18130.0 1.6063e-05
18150.0 1.5991e-05
18170.0 1.5918e-05
18190.0 1.5847e-05
18210.0 1.5778e-05
18230.0 1.5708e-05
18250.0 1.5638e-05
18270.0 1.5571e-05
18290.0 1.5504e-05
18310.0 1.5437e-05
18330.0 1.5371e-05
18350.0 1.5308e-05
18370.0 1.5243e-05
18390.0 1.5179e-05
18410.0 1.5117e-05
18430.0 1.5055e-05
18450.0 1.4992e-05
18470.0 1.4932e-05
18490.0 1.4873e-05
18510.0 1.4813e-05
18530.0 1.4754e-05
18550.0 1.4697e-05
18570.0 1.464e-05
18590.0 1.4582e-05
18610.0 1.4526e-05
18630.0 1.4471e-05
18650.0 1.4416e-05
18670.0 1.436e-05
18690.0 1.4308e-05
18710.0 1.4255e-05
18730.0 1.4202e-05
18750.0 1.415e-05
18770.0 1.41e-05
18790.0 1.4047e-05
18810.0 1.3996e-05
18830.0 1.3947e-05
18850.0 1.3898e-05
18870.0 1.3848e-05
18890.0 1.3801e-05
18910.0 1.3754e-05
18930.0 1.3705e-05
18950.0 1.3658e-05
18970.0 1.3613e-05
18990.0 1.3567e-05
19010.0 1.3519e-05
19030.0 1.3475e-05
19050.0 1.3431e-05
19070.0 1.3387e-05
19090.0 1.3343e-05
19110.0 1.3301e-05
19130.0 1.3257e-05
19150.0 1.3214e-05
19170.0 1.3172e-05
19190.0 1.3131e-05
19210.0 1.3089e-05
19230.0 1.3048e-05
19250.0 1.3008e-05
19270.0 1.2968e-05
19290.0 1.2928e-05
19310.0 1.2889e-05
19330.0 1.285e-05
19350.0 1.281e-05
19370.0 1.2772e-05
19390.0 1.2735e-05
19410.0 1.2696e-05
19430.0 1.2658e-05
19450.0 1.2622e-05
19470.0 1.2586e-05
19490.0 1.2548e-05
19510.0 1.2512e-05
19530.0 1.2477e-05
19550.0 1.2441e-05
19570.0 1.2405e-05
19590.0 1.2371e-05
19610.0 1.2336e-05
19630.0 1.2301e-05
19650.0 1.2267e-05
19670.0 1.2234e-05
19690.0 1.2199e-05
19710.0 1.2165e-05
19730.0 1.2133e-05
19750.0 1.21e-05
19770.0 1.2066e-05
19790.0 1.2034e-05
19810.0 1.2002e-05
19830.0 1.1969e-05
19850.0 1.1936e-05
19870.0 1.1904e-05
19890.0 1.1868e-05
19910.0 1.1827e-05
19930.0 1.1782e-05
19950.0 1.1727e-05
19970.0 1.1656e-05
19990.0 1.1567e-05
20010.0 1.1462e-05
20030.0 1.1333e-05
20050.0 1.118e-05
20070.0 1.1013e-05
20090.0 1.0835e-05
20110.0 1.0633e-05
20130.0 1.043e-05
20150.0 1.0232e-05
20170.0 1.0027e-05
20190.0 9.8205e-06
20210.0 9.6273e-06
20230.0 9.4398e-06
20250.0 9.2526e-06
20270.0 9.08e-06
20290.0 8.9235e-06
20310.0 8.7758e-06
20330.0 8.6393e-06
20350.0 8.5286e-06
20370.0 8.4333e-06
20390.0 8.3537e-06
20410.0 8.2952e-06
20430.0 8.2571e-06
20450.0 8.2362e-06
20470.0 8.2356e-06
20490.0 8.2538e-06
20510.0 8.2893e-06
20530.0 8.3433e-06
20550.0 8.4118e-06
20570.0 8.4908e-06
20590.0 8.5842e-06
20610.0 8.6876e-06
20630.0 8.7945e-06
20650.0 8.9072e-06
20670.0 9.0279e-06
20690.0 9.1435e-06
20710.0 9.2549e-06
20730.0 9.3652e-06
20750.0 9.4691e-06
20770.0 9.5605e-06
20790.0 9.6443e-06
20810.0 9.7193e-06
20830.0 9.7807e-06
20850.0 9.8299e-06
20870.0 9.8688e-06
20890.0 9.8952e-06
20910.0 9.9095e-06
20930.0 9.9138e-06
20950.0 9.9078e-06
20970.0 9.8931e-06
20990.0 9.871e-06
21010.0 9.8398e-06
21030.0 9.8021e-06
21050.0 9.7602e-06
21070.0 9.7124e-06
21090.0 9.6581e-06
21110.0 9.6032e-06
21130.0 9.5464e-06
21150.0 9.4856e-06
21170.0 9.4245e-06
21190.0 9.3659e-06
21210.0 9.306e-06
21230.0 9.2469e-06
21250.0 9.1938e-06
21270.0 9.1449e-06
21290.0 9.0993e-06
21310.0 9.0603e-06
21330.0 9.0298e-06
21350.0 9.0051e-06
21370.0 8.9882e-06
21390.0 8.9801e-06
21410.0 8.98e-06
21430.0 8.9884e-06
21450.0 9.0055e-06
21470.0 9.0298e-06
21490.0 9.0622e-06
21510.0 9.1025e-06
21530.0 9.1476e-06
21550.0 9.1987e-06
21570.0 9.2571e-06
21590.0 9.3192e-06
21610.0 9.3839e-06
21630.0 9.4542e-06
21650.0 9.5298e-06
21670.0 9.6036e-06
21690.0 9.6808e-06
21710.0 9.7625e-06
21730.0 9.8448e-06
21750.0 9.9264e-06
21770.0 1.0015e-05
21790.0 1.0104e-05
21810.0 1.0192e-05
21830.0 1.0283e-05
21850.0 1.0379e-05
21870.0 1.0473e-05
21890.0 1.0566e-05
21910.0 1.0664e-05
21930.0 1.0762e-05
21950.0 1.0857e-05
21970.0 1.0953e-05
21990.0 1.1051e-05
22010.0 1.1144e-05
22030.0 1.1232e-05
22050.0 1.1319e-05
22070.0 1.1401e-05
22090.0 1.1474e-05
22110.0 1.1541e-05
22130.0 1.1601e-05
22150.0 1.1649e-05
22170.0 1.1687e-05
22190.0 1.1715e-05
22210.0 1.1729e-05
22230.0 1.1729e-05
22250.0 1.1716e-05
22270.0 1.1688e-05
22290.0 1.1647e-05
22310.0 1.1593e-05
22330.0 1.1521e-05
22350.0 1.1436e-05
22370.0 1.1341e-05
22390.0 1.1231e-05
22410.0 1.1105e-05
22430.0 1.0975e-05
22450.0 1.0837e-05
22470.0 1.0686e-05
22490.0 1.053e-05
22510.0 1.0375e-05
22530.0 1.0209e-05
22550.0 1.0038e-05
22570.0 9.8744e-06
22590.0 9.7113e-06
22610.0 9.5445e-06
