#lamb flux
1010.0 6.4965e-05
1030.0 6.497e-05
1050.0 6.492e-05
1070.0 6.4799e-05
1090.0 6.459e-05
1110.0 6.4281e-05
1130.0 6.3878e-05
1150.0 6.3386e-05
1170.0 6.2819e-05
1190.0 6.2214e-05
1210.0 6.1587e-05
1230.0 6.0957e-05
1250.0 6.0367e-05
1270.0 5.9843e-05
1290.0 5.9381e-05
1310.0 5.9013e-05
1330.0 5.8762e-05
1350.0 5.8646e-05
1370.0 5.8764e-05
1390.0 5.8942e-05
1410.0 5.9169e-05
1430.0 5.9414e-05
1450.0 5.9682e-05
1470.0 5.9968e-05
1490.0 6.0255e-05
1510.0 6.0538e-05
1530.0 6.083e-05
1550.0 6.1108e-05
1570.0 6.1364e-05
1590.0 6.1628e-05
1610.0 6.1955e-05
1630.0 6.2267e-05
1650.0 6.2565e-05
1670.0 6.2854e-05
1690.0 6.3135e-05
1710.0 6.3403e-05
1730.0 6.3672e-05
1750.0 6.3967e-05
1770.0 6.4273e-05
1790.0 6.4595e-05
1810.0 6.4938e-05
1830.0 6.6562e-05
1850.0 0.00013477
1870.0 0.00020788
1890.0 0.00028679
1910.0 0.00037249
1930.0 0.00046589
1950.0 0.00056694
1970.0 0.00067631
1990.0 0.00079519
2010.0 0.00092319
2030.0 0.0010599
2050.0 0.0012066
2070.0 0.0013632
2090.0 0.0015272
2110.0 0.0016991
2130.0 0.0018792
2150.0 0.0020649
2170.0 0.002254
2190.0 0.0024478
2210.0 0.0026438
2230.0 0.0028382
2250.0 0.0030306
2270.0 0.0032214
2290.0 0.0034053
2310.0 0.0035796
2330.0 0.0037461
2350.0 0.0039021
2370.0 0.0040431
2390.0 0.0041704
2410.0 0.0042844
2430.0 0.0043795
2450.0 0.0044551
2470.0 0.0045135
2490.0 0.0045542
2510.0 0.0045766
2530.0 0.0045904
2550.0 0.0046086
2570.0 0.0046459
2590.0 0.0047217
2610.0 0.0048803
2630.0 0.0051451
2650.0 0.0055151
2670.0 0.0060172
2690.0 0.0066641
2710.0 0.0073873
2730.0 0.0081475
2750.0 0.0089722
2770.0 0.0097774
2790.0 0.010503
2810.0 0.011174
2830.0 0.011804
2850.0 0.012313
2870.0 0.012758
2890.0 0.013183
2910.0 0.013585
2930.0 0.013961
2950.0 0.014365
2970.0 0.014798
2990.0 0.015239
3010.0 0.015702
3030.0 0.01621
3050.0 0.016741
3070.0 0.017261
3090.0 0.017797
3110.0 0.018318
3130.0 0.018781
3150.0 0.019172
3170.0 0.019479
3190.0 0.019694
3210.0 0.01986
3230.0 0.020035
3250.0 0.020312
3270.0 0.020776
3290.0 0.021473
3310.0 0.022457
3330.0 0.023705
3350.0 0.025148
3370.0 0.026802
3390.0 0.02853
3410.0 0.030185
3430.0 0.031696
3450.0 0.032977
3470.0 0.036066
3490.0 0.037272
3510.0 0.033417
3530.0 0.031764
3550.0 0.041434
3570.0 0.049868
3590.0 0.049336
3610.0 0.053232
3630.0 0.053595
3650.0 0.049033
3670.0 0.048859
3690.0 0.055288
3710.0 0.061067
3730.0 0.064223
3750.0 0.058016
3770.0 0.057269
3790.0 0.059754
3810.0 0.057686
3830.0 0.050308
3850.0 0.045439
3870.0 0.047869
3890.0 0.053585
3910.0 0.057179
3930.0 0.058779
3950.0 0.060885
3970.0 0.062093
3990.0 0.062755
4010.0 0.060941
4030.0 0.055429
4050.0 0.051907
4070.0 0.052793
4090.0 0.056104
4110.0 0.058203
4130.0 0.057385
4150.0 0.056671
4170.0 0.057222
4190.0 0.058438
4210.0 0.056488
4230.0 0.051485
4250.0 0.046132
4270.0 0.042532
4290.0 0.039784
4310.0 0.037249
4330.0 0.038323
4350.0 0.039899
4370.0 0.040354
4390.0 0.041419
4410.0 0.04113
4430.0 0.040653
4450.0 0.041089
4470.0 0.041277
4490.0 0.044417
4510.0 0.046111
4530.0 0.047619
4550.0 0.049128
4570.0 0.051028
4590.0 0.052082
4610.0 0.052769
4630.0 0.053385
4650.0 0.05452
4670.0 0.051166
4690.0 0.047353
4710.0 0.044024
4730.0 0.042651
4750.0 0.040762
4770.0 0.039342
4790.0 0.038461
4810.0 0.037293
4830.0 0.038985
4850.0 0.042901
4870.0 0.031669
4890.0 0.031802
4910.0 0.034268
4930.0 0.035386
4950.0 0.03233
4970.0 0.029961
4990.0 0.028942
5010.0 0.027042
5030.0 0.02555
5050.0 0.026444
5070.0 0.028039
5090.0 0.028922
5110.0 0.031358
5130.0 0.032214
5150.0 0.033459
5170.0 0.034656
5190.0 0.033984
5210.0 0.035521
5230.0 0.036271
5250.0 0.036665
5270.0 0.037194
5290.0 0.036321
5310.0 0.035285
5330.0 0.033523
5350.0 0.03181
5370.0 0.030427
5390.0 0.031229
5410.0 0.031017
5430.0 0.031344
5450.0 0.031227
5470.0 0.030733
5490.0 0.030447
5510.0 0.02966
5530.0 0.028957
5550.0 0.028542
5570.0 0.02881
5590.0 0.029116
5610.0 0.029411
5630.0 0.028779
5650.0 0.028261
5670.0 0.027053
5690.0 0.026445
5710.0 0.025591
5730.0 0.025485
5750.0 0.024993
5770.0 0.024101
5790.0 0.02485
5810.0 0.024797
5830.0 0.025476
5850.0 0.025741
5870.0 0.025982
5890.0 0.025522
5910.0 0.02546
5930.0 0.024715
5950.0 0.024967
5970.0 0.024389
5990.0 0.02395
6010.0 0.023935
6030.0 0.024434
6050.0 0.024191
6070.0 0.023624
6090.0 0.023384
6110.0 0.023752
6130.0 0.023448
6150.0 0.022662
6170.0 0.021416
6190.0 0.020084
6210.0 0.019096
6230.0 0.018929
6250.0 0.019105
6270.0 0.019523
6290.0 0.020318
6310.0 0.021665
6330.0 0.022303
6350.0 0.022341
6370.0 0.022499
6390.0 0.022369
6410.0 0.021883
6430.0 0.021272
6450.0 0.020984
6470.0 0.020941
6490.0 0.020798
6510.0 0.02058
6530.0 0.020561
6550.0 0.020357
6570.0 0.019534
6590.0 0.019329
6610.0 0.019148
6630.0 0.018487
6650.0 0.017862
6670.0 0.017362
6690.0 0.017243
6710.0 0.016718
6730.0 0.016447
6750.0 0.01618
6770.0 0.0158
6790.0 0.015904
6810.0 0.015692
6830.0 0.01522
6850.0 0.015045
6870.0 0.014941
6890.0 0.014681
6910.0 0.014573
6930.0 0.014469
6950.0 0.014221
6970.0 0.013908
6990.0 0.013898
7010.0 0.013807
7030.0 0.013902
7050.0 0.013512
7070.0 0.01333
7090.0 0.013378
7110.0 0.012959
7130.0 0.012916
7150.0 0.013054
7170.0 0.013267
7190.0 0.013053
7210.0 0.01311
7230.0 0.013369
7250.0 0.013057
7270.0 0.013229
7290.0 0.01302
7310.0 0.012665
7330.0 0.012046
7350.0 0.012146
7370.0 0.012203
7390.0 0.011936
7410.0 0.011627
7430.0 0.011455
7450.0 0.011321
7470.0 0.011449
7490.0 0.011687
7510.0 0.011465
7530.0 0.011061
7550.0 0.011141
7570.0 0.010232
7590.0 0.010009
7610.0 0.0098155
7630.0 0.0099767
7650.0 0.0097536
7670.0 0.01011
7690.0 0.009694
7710.0 0.010298
7730.0 0.010328
7750.0 0.011294
7770.0 0.011603
7790.0 0.012
7810.0 0.012523
7830.0 0.012703
7850.0 0.013117
7870.0 0.012863
7890.0 0.012743
7910.0 0.012514
7930.0 0.012073
7950.0 0.011724
7970.0 0.01168
7990.0 0.011557
8010.0 0.010616
8030.0 0.01055
8050.0 0.010348
8070.0 0.010241
8090.0 0.010007
8110.0 0.010084
8130.0 0.010171
8150.0 0.010308
8170.0 0.010189
8190.0 0.010288
8210.0 0.010126
8230.0 0.0095713
8250.0 0.0093475
8270.0 0.0091831
8290.0 0.0090446
8310.0 0.0087899
8330.0 0.0089246
8350.0 0.0088545
8370.0 0.0088304
8390.0 0.0089932
8410.0 0.0089977
8430.0 0.0091824
8450.0 0.0093401
8470.0 0.0093828
8490.0 0.0094808
8510.0 0.0093394
8530.0 0.0090557
8550.0 0.0091324
8570.0 0.0091527
8590.0 0.0089089
8610.0 0.0091112
8630.0 0.0090146
8650.0 0.0088254
8670.0 0.0087734
8690.0 0.0087729
8710.0 0.0084579
8730.0 0.0085485
8750.0 0.0082611
8770.0 0.0081991
8790.0 0.0079925
8810.0 0.0079073
8830.0 0.0078483
8850.0 0.0074366
8870.0 0.0070421
8890.0 0.0069346
8910.0 0.0065183
8930.0 0.0060182
8950.0 0.0060053
8970.0 0.0058343
8990.0 0.0058019
9010.0 0.0057602
9030.0 0.005722
9050.0 0.0056813
9070.0 0.0056402
9090.0 0.0055989
9110.0 0.0055573
9130.0 0.0055156
9150.0 0.0054742
9170.0 0.0054327
9190.0 0.005391
9210.0 0.0053493
9230.0 0.0053075
9250.0 0.0052658
9270.0 0.005224
9290.0 0.0051822
9310.0 0.0051405
9330.0 0.0050989
9350.0 0.0050573
9370.0 0.0050158
9390.0 0.0049745
9410.0 0.0049333
9430.0 0.0048921
9450.0 0.0048512
9470.0 0.0048128
9490.0 0.0047734
9510.0 0.0047316
9530.0 0.0046903
9550.0 0.0046497
9570.0 0.0046096
9590.0 0.0045698
9610.0 0.0045303
9630.0 0.0044913
9650.0 0.0044524
9670.0 0.0044137
9690.0 0.0043755
9710.0 0.0043375
9730.0 0.0042998
9750.0 0.0042623
9770.0 0.0042254
9790.0 0.0041885
9810.0 0.004152
9830.0 0.004115
9850.0 0.0040727
9870.0 0.0040368
9890.0 0.0040048
9910.0 0.0039722
9930.0 0.0039333
9950.0 0.0038994
9970.0 0.0038683
9990.0 0.0038362
10010.0 0.0038034
10030.0 0.0037711
10050.0 0.0037394
10070.0 0.0037081
10090.0 0.0036773
10110.0 0.0036457
10130.0 0.0036143
10150.0 0.0035842
10170.0 0.0035542
10190.0 0.003524
10210.0 0.0034948
10230.0 0.0034661
10250.0 0.0034372
10270.0 0.0034087
10290.0 0.0033811
10310.0 0.0033534
10330.0 0.0033255
10350.0 0.0032987
10370.0 0.0032723
10390.0 0.0032457
10410.0 0.0032194
10430.0 0.0031942
10450.0 0.003169
10470.0 0.0031438
10490.0 0.0031195
10510.0 0.0030955
10530.0 0.003071
10550.0 0.0030472
10570.0 0.0030242
10590.0 0.0030011
10610.0 0.0029781
10630.0 0.002956
10650.0 0.0029342
10670.0 0.0029119
10690.0 0.0028903
10710.0 0.0028694
10730.0 0.0028483
10750.0 0.002827
10770.0 0.002807
10790.0 0.0027871
10810.0 0.0027669
10830.0 0.0027473
10850.0 0.0027285
10870.0 0.0027091
10890.0 0.00269
10910.0 0.002672
10930.0 0.0026544
10950.0 0.0026369
10970.0 0.0026204
10990.0 0.0026052
11010.0 0.0026304
11030.0 0.0026187
11050.0 0.0026078
11070.0 0.0025969
11090.0 0.0025852
11110.0 0.0025735
11130.0 0.0025613
11150.0 0.002548
11170.0 0.002534
11190.0 0.00252
11210.0 0.0025052
11230.0 0.0024896
11250.0 0.0024744
11270.0 0.0024596
11290.0 0.0024443
11310.0 0.0024294
11330.0 0.002416
11350.0 0.0024029
11370.0 0.0023902
11390.0 0.0023787
11410.0 0.0023682
11430.0 0.0023577
11450.0 0.0023479
11470.0 0.002339
11490.0 0.0023301
11510.0 0.0023209
11530.0 0.0023122
11550.0 0.0023034
11570.0 0.0022939
11590.0 0.0022842
11610.0 0.0022746
11630.0 0.0022642
11650.0 0.0022531
11670.0 0.0022426
11690.0 0.002232
11710.0 0.0022209
11730.0 0.00221
11750.0 0.0022
11770.0 0.0021895
11790.0 0.0021791
11810.0 0.0021695
11830.0 0.0021602
11850.0 0.0021504
11870.0 0.0021413
11890.0 0.0021331
11910.0 0.0021248
11930.0 0.0021169
11950.0 0.0021101
11970.0 0.0021039
11990.0 0.0020981
12010.0 0.0020936
12030.0 0.0020904
12050.0 0.0020883
12070.0 0.0020873
12090.0 0.0020882
12110.0 0.0020905
12130.0 0.002094
12150.0 0.0020991
12170.0 0.0021054
12190.0 0.0021129
12210.0 0.0021216
12230.0 0.0021311
12250.0 0.0021413
12270.0 0.0021522
12290.0 0.0021633
12310.0 0.0021745
12330.0 0.0021859
12350.0 0.0021972
12370.0 0.0022079
12390.0 0.0022183
12410.0 0.002228
12430.0 0.0022368
12450.0 0.0022445
12470.0 0.0022509
12490.0 0.002256
12510.0 0.0022596
12530.0 0.0022615
12550.0 0.0022613
12570.0 0.0022596
12590.0 0.0022561
12610.0 0.0022503
12630.0 0.0022425
12650.0 0.0022339
12670.0 0.0022233
12690.0 0.0022108
12710.0 0.0021977
12730.0 0.0021838
12750.0 0.0021679
12770.0 0.0021518
12790.0 0.0021359
12810.0 0.0021193
12830.0 0.0021021
12850.0 0.0020861
12870.0 0.0020706
12890.0 0.0020547
12910.0 0.0020398
12930.0 0.0020262
12950.0 0.0020126
12970.0 0.0019995
12990.0 0.001988
13010.0 0.0019771
13030.0 0.0019664
13050.0 0.0019566
13070.0 0.0019478
13090.0 0.001939
13110.0 0.0019304
13130.0 0.0019227
13150.0 0.0019152
13170.0 0.0019075
13190.0 0.0019005
13210.0 0.001894
13230.0 0.0018875
13250.0 0.001881
13270.0 0.001875
13290.0 0.0018689
13310.0 0.0018624
13330.0 0.001856
13350.0 0.0018496
13370.0 0.0018426
13390.0 0.001835
13410.0 0.0018275
13430.0 0.0018195
13450.0 0.0018106
13470.0 0.0018015
13490.0 0.0017922
13510.0 0.0017817
13530.0 0.0017709
13550.0 0.0017601
13570.0 0.0017488
13590.0 0.0017367
13610.0 0.0017247
13630.0 0.0017127
13650.0 0.0016999
13670.0 0.0016869
13690.0 0.0016742
13710.0 0.0016611
13730.0 0.0016471
13750.0 0.0016338
13770.0 0.0016205
13790.0 0.0016066
13810.0 0.0015928
13830.0 0.0015795
13850.0 0.0015657
13870.0 0.0015516
13890.0 0.001538
13910.0 0.0015244
13930.0 0.0015104
13950.0 0.0014964
13970.0 0.0014832
13990.0 0.0014696
14010.0 0.0014558
14030.0 0.0014425
14050.0 0.0014294
14070.0 0.0014157
14090.0 0.0014025
14110.0 0.0013897
14130.0 0.0013768
14150.0 0.0013637
14170.0 0.0013514
14190.0 0.0013393
14210.0 0.001327
14230.0 0.001315
14250.0 0.0013036
14270.0 0.0012918
14290.0 0.0012802
14310.0 0.0012691
14330.0 0.0012582
14350.0 0.0012471
14370.0 0.0012364
14390.0 0.0012261
14410.0 0.0012156
14430.0 0.0012053
14450.0 0.0011954
14470.0 0.0011857
14490.0 0.0011758
14510.0 0.0011664
14530.0 0.0011574
14550.0 0.0011484
14570.0 0.0011395
14590.0 0.001131
14610.0 0.0011226
14630.0 0.001114
14650.0 0.0011058
14670.0 0.0010978
14690.0 0.0010897
14710.0 0.0010816
14730.0 0.0010739
14750.0 0.0010662
14770.0 0.0010586
14790.0 0.0010511
14810.0 0.001044
14830.0 0.0010367
14850.0 0.0010296
14870.0 0.0010229
14890.0 0.0010162
14910.0 0.0010096
14930.0 0.0010033
14950.0 0.00099726
14970.0 0.00099119
14990.0 0.00098532
15010.0 0.00097967
15030.0 0.0009741
15050.0 0.00096854
15070.0 0.0009632
15090.0 0.00095792
15110.0 0.00095259
15130.0 0.0009473
15150.0 0.00094209
15170.0 0.0009368
15190.0 0.00093147
15210.0 0.00092619
15230.0 0.00092092
15250.0 0.00091556
15270.0 0.00091021
15290.0 0.00090495
15310.0 0.00089962
15330.0 0.00089426
15350.0 0.00088896
15370.0 0.00088366
15390.0 0.00087826
15410.0 0.00087292
15430.0 0.00086762
15450.0 0.00086228
15470.0 0.00085689
15490.0 0.0008516
15510.0 0.00084631
15530.0 0.00084096
15550.0 0.00083564
15570.0 0.00083038
15590.0 0.00082505
15610.0 0.0008197
15630.0 0.00081446
15650.0 0.0008092
15670.0 0.0008039
15690.0 0.00079864
15710.0 0.00079345
15730.0 0.00078819
15750.0 0.00078295
15770.0 0.00077777
15790.0 0.00077259
15810.0 0.00076735
15830.0 0.00076218
15850.0 0.00075708
15870.0 0.00075193
15890.0 0.00074679
15910.0 0.00074173
15930.0 0.00073666
15950.0 0.00073154
15970.0 0.0007265
15990.0 0.0007215
16010.0 0.00071646
16030.0 0.00071143
16050.0 0.00070651
16070.0 0.00070157
16090.0 0.00069661
16110.0 0.00069171
16130.0 0.00068687
16150.0 0.00068195
16170.0 0.00067708
16190.0 0.0006723
16210.0 0.0006675
16230.0 0.00066269
16250.0 0.00065795
16270.0 0.00065327
16290.0 0.00064853
16310.0 0.00064384
16330.0 0.00063922
16350.0 0.00063459
16370.0 0.00062992
16390.0 0.00062537
16410.0 0.00062084
16430.0 0.00061629
16450.0 0.00061178
16470.0 0.00060736
16490.0 0.00060289
16510.0 0.00059844
16530.0 0.00059406
16550.0 0.00058971
16570.0 0.00058533
16590.0 0.000581
16610.0 0.00057676
16630.0 0.0005725
16650.0 0.00056825
16670.0 0.00056407
16690.0 0.00055992
16710.0 0.00055573
16730.0 0.0005516
16750.0 0.00054755
16770.0 0.00054347
16790.0 0.00053941
16810.0 0.00053544
16830.0 0.00053149
16850.0 0.00052751
16870.0 0.0005236
16890.0 0.00051975
16910.0 0.00051587
16930.0 0.000512
16950.0 0.00050823
16970.0 0.00050447
16990.0 0.0005007
17010.0 0.000497
17030.0 0.00049336
17050.0 0.00048969
17070.0 0.00048604
17090.0 0.00048248
17110.0 0.00047892
17130.0 0.00047534
17150.0 0.00047185
17170.0 0.00046841
17190.0 0.00046495
17210.0 0.00046152
17230.0 0.00045817
17250.0 0.00045482
17270.0 0.00045146
17290.0 0.00044817
17310.0 0.00044493
17330.0 0.00044167
17350.0 0.00043844
17370.0 0.0004353
17390.0 0.00043216
17410.0 0.00042902
17430.0 0.00042595
17450.0 0.00042292
17470.0 0.00041985
17490.0 0.00041684
17510.0 0.0004139
17530.0 0.00041096
17550.0 0.00040802
17570.0 0.00040516
17590.0 0.00040233
17610.0 0.00039949
17630.0 0.00039669
17650.0 0.00039395
17670.0 0.00039122
17690.0 0.00038846
17710.0 0.00038581
17730.0 0.00038318
17750.0 0.00038054
17770.0 0.00037795
17790.0 0.00037543
17810.0 0.00037288
17830.0 0.00037035
17850.0 0.00036789
17870.0 0.00036546
17890.0 0.00036301
17910.0 0.00036061
17930.0 0.00035828
17950.0 0.00035594
17970.0 0.00035362
17990.0 0.00035136
18010.0 0.00034913
18030.0 0.00034687
18050.0 0.00034467
18070.0 0.00034253
18090.0 0.00034038
18110.0 0.00033824
18130.0 0.00033618
18150.0 0.00033414
18170.0 0.00033209
18190.0 0.00033008
18210.0 0.00032813
18230.0 0.00032616
18250.0 0.00032421
18270.0 0.00032234
18290.0 0.00032047
18310.0 0.00031861
18330.0 0.00031679
18350.0 0.00031503
18370.0 0.00031324
18390.0 0.00031149
18410.0 0.00030979
18430.0 0.00030811
18450.0 0.0003064
18470.0 0.00030477
18490.0 0.00030318
18510.0 0.00030158
18530.0 0.0003
18550.0 0.00029849
18570.0 0.00029697
18590.0 0.00029545
18610.0 0.00029399
18630.0 0.00029256
18650.0 0.00029112
18670.0 0.0002897
18690.0 0.00028836
18710.0 0.00028701
18730.0 0.00028566
18750.0 0.00028437
18770.0 0.00028311
18790.0 0.00028181
18810.0 0.00028057
18830.0 0.00027937
18850.0 0.00027818
18870.0 0.00027698
18890.0 0.00027585
18910.0 0.00027474
18930.0 0.00027361
18950.0 0.00027252
18970.0 0.00027147
18990.0 0.00027042
19010.0 0.00026935
19030.0 0.00026837
19050.0 0.0002674
19070.0 0.00026641
19090.0 0.00026546
19110.0 0.00026457
19130.0 0.00026364
19150.0 0.00026273
19170.0 0.00026187
19190.0 0.00026103
19210.0 0.00026016
19230.0 0.00025934
19250.0 0.00025857
19270.0 0.00025778
19290.0 0.000257
19310.0 0.00025627
19330.0 0.00025555
19350.0 0.00025479
19370.0 0.00025409
19390.0 0.00025343
19410.0 0.00025274
19430.0 0.00025207
19450.0 0.00025146
19470.0 0.00025084
19490.0 0.00025021
19510.0 0.00024961
19530.0 0.00024905
19550.0 0.00024846
19570.0 0.00024788
19590.0 0.00024736
19610.0 0.00024684
19630.0 0.0002463
19650.0 0.0002458
19670.0 0.00024533
19690.0 0.00024483
19710.0 0.00024434
19730.0 0.0002439
19750.0 0.00024345
19770.0 0.00024298
19790.0 0.00024256
19810.0 0.00024216
19830.0 0.00024173
19850.0 0.00024132
19870.0 0.00024096
19890.0 0.00024057
19910.0 0.00024016
19930.0 0.0002398
19950.0 0.00023945
19970.0 0.00023907
19990.0 0.00023868
20010.0 0.00023834
20030.0 0.00023794
20050.0 0.00023751
20070.0 0.00023709
20090.0 0.00023665
20110.0 0.00023612
20130.0 0.0002356
20150.0 0.00023509
20170.0 0.00023454
20190.0 0.00023396
20210.0 0.00023343
20230.0 0.0002329
20250.0 0.00023233
20270.0 0.00023181
20290.0 0.00023134
20310.0 0.00023087
20330.0 0.00023039
20350.0 0.00023004
20370.0 0.00022972
20390.0 0.00022942
20410.0 0.00022918
20430.0 0.00022904
20450.0 0.0002289
20470.0 0.00022883
20490.0 0.00022886
20510.0 0.00022895
20530.0 0.00022909
20550.0 0.00022932
20570.0 0.00022965
20590.0 0.00023005
20610.0 0.00023052
20630.0 0.0002311
20650.0 0.00023176
20670.0 0.0002325
20690.0 0.00023333
20710.0 0.00023423
20730.0 0.0002352
20750.0 0.00023623
20770.0 0.0002373
20790.0 0.0002384
20810.0 0.00023952
20830.0 0.00024063
20850.0 0.00024171
20870.0 0.00024275
20890.0 0.00024373
20910.0 0.00024463
20930.0 0.00024545
20950.0 0.00024615
20970.0 0.00024674
20990.0 0.00024722
21010.0 0.00024755
21030.0 0.00024776
21050.0 0.00024787
21070.0 0.00024785
21090.0 0.00024767
21110.0 0.00024745
21130.0 0.00024715
21150.0 0.00024673
21170.0 0.00024625
21190.0 0.00024578
21210.0 0.00024522
21230.0 0.0002446
21250.0 0.00024403
21270.0 0.00024345
21290.0 0.00024283
21310.0 0.00024222
21330.0 0.00024168
21350.0 0.0002411
21370.0 0.00024051
21390.0 0.00023997
21410.0 0.00023942
21430.0 0.00023879
21450.0 0.00023819
21470.0 0.00023761
21490.0 0.00023697
21510.0 0.00023628
21530.0 0.00023561
21550.0 0.0002349
21570.0 0.0002341
21590.0 0.0002333
21610.0 0.0002325
21630.0 0.00023163
21650.0 0.00023068
21670.0 0.00022982
21690.0 0.00022892
21710.0 0.00022796
21730.0 0.00022703
21750.0 0.00022614
21770.0 0.00022517
21790.0 0.0002242
21810.0 0.0002233
21830.0 0.00022239
21850.0 0.00022144
21870.0 0.00022053
21890.0 0.00021968
21910.0 0.00021876
21930.0 0.00021785
21950.0 0.00021698
21970.0 0.00021609
21990.0 0.0002151
22010.0 0.00021418
22030.0 0.00021325
22050.0 0.00021224
22070.0 0.0002112
22090.0 0.00021019
22110.0 0.00020912
22130.0 0.00020796
22150.0 0.00020682
22170.0 0.00020566
22190.0 0.0002044
22210.0 0.00020311
22230.0 0.00020187
22250.0 0.00020058
22270.0 0.00019923
22290.0 0.00019792
22310.0 0.00019662
22330.0 0.00019524
22350.0 0.00019388
22370.0 0.00019259
22390.0 0.00019127
22410.0 0.00018991
22430.0 0.00018865
22450.0 0.00018742
22470.0 0.00018617
22490.0 0.00018496
22510.0 0.00018384
22530.0 0.0001827
22550.0 0.00018157
22570.0 0.00018055
22590.0 0.00017956
22610.0 0.00017858
22630.0 0.00017766
22650.0 0.00017683
22670.0 0.00017599
22690.0 0.00017519
22710.0 0.00017445
22730.0 0.00017375
22750.0 0.00017303
22770.0 0.00017238
22790.0 0.00017178
22810.0 0.00017118
22830.0 0.00017061
22850.0 0.0001701
22870.0 0.00016962
22890.0 0.00016914
22910.0 0.00016872
22930.0 0.00016835
22950.0 0.00016801
22970.0 0.00016771
22990.0 0.00016748
23010.0 0.0001673
23030.0 0.00016718
23050.0 0.00016712
23070.0 0.00016713
23090.0 0.00016721
23110.0 0.00016737
23130.0 0.0001676
23150.0 0.00016791
23170.0 0.00016831
23190.0 0.00016878
23210.0 0.00016931
23230.0 0.00016993
23250.0 0.00017062
23270.0 0.00017133
23290.0 0.00017209
23310.0 0.00017293
23330.0 0.00017374
23350.0 0.00017454
23370.0 0.00017535
23390.0 0.00017614
23410.0 0.00017685
23430.0 0.00017754
23450.0 0.00017784
23470.0 0.00017797
23490.0 0.00017803
23510.0 0.00017805
23530.0 0.00017802
23550.0 0.00017794
23570.0 0.00017787
23590.0 0.00017785
