#lamb flux
1010.0 3.856e-05
1030.0 4.0189e-05
1050.0 4.208e-05
1070.0 4.4214e-05
1090.0 4.6641e-05
1110.0 4.9141e-05
1130.0 5.1672e-05
1150.0 5.4337e-05
1170.0 5.7101e-05
1190.0 5.9746e-05
1210.0 6.2445e-05
1230.0 6.5254e-05
1250.0 6.8033e-05
1270.0 7.076e-05
1290.0 7.366e-05
1310.0 7.6587e-05
1330.0 7.9432e-05
1350.0 8.2337e-05
1370.0 8.5363e-05
1390.0 8.8354e-05
1410.0 9.13e-05
1430.0 9.4401e-05
1450.0 9.754e-05
1470.0 0.00010062
1490.0 0.00010377
1510.0 0.0001071
1530.0 0.00011031
1550.0 0.00011352
1570.0 0.00011685
1590.0 0.0001202
1610.0 0.00012343
1630.0 0.00012677
1650.0 0.00013019
1670.0 0.00013351
1690.0 0.00013679
1710.0 0.00014015
1730.0 0.00014352
1750.0 0.00014667
1770.0 0.00014986
1790.0 0.00015307
1810.0 0.00015612
1830.0 0.00015905
1850.0 0.00016209
1870.0 0.00016497
1890.0 0.00016767
1910.0 0.00017034
1930.0 0.00017299
1950.0 0.0001754
1970.0 0.00017769
1990.0 0.00018
2010.0 0.00018217
2030.0 0.00018415
2050.0 0.00018615
2070.0 0.00018815
2090.0 0.00018993
2110.0 0.00019167
2130.0 0.00019346
2150.0 0.0001952
2170.0 0.00019683
2190.0 0.00019859
2210.0 0.00020042
2230.0 0.00020222
2250.0 0.0002041
2270.0 0.00020622
2290.0 0.0002084
2310.0 0.00021064
2330.0 0.00021316
2350.0 0.00021591
2370.0 0.0002188
2390.0 0.00022197
2410.0 0.00022556
2430.0 0.00022937
2450.0 0.00023344
2470.0 0.00023788
2490.0 0.00024267
2510.0 0.0002477
2530.0 0.00025345
2550.0 0.00026074
2570.0 0.00027067
2590.0 0.00028474
2610.0 0.00030644
2630.0 0.00033766
2650.0 0.00037812
2670.0 0.00042922
2690.0 0.00049072
2710.0 0.00055653
2730.0 0.00062332
2750.0 0.00069227
2770.0 0.00075875
2790.0 0.0008211
2810.0 0.00088239
2830.0 0.00094531
2850.0 0.0010069
2870.0 0.0010702
2890.0 0.0011378
2910.0 0.0012086
2930.0 0.0012808
2950.0 0.001358
2970.0 0.0014396
2990.0 0.0015227
3010.0 0.0027886
3030.0 0.0029442
3050.0 0.0031006
3070.0 0.0032461
3090.0 0.0033751
3110.0 0.0034604
3130.0 0.0034682
3150.0 0.0033612
3170.0 0.0030641
3190.0 0.0025649
3210.0 0.0018679
3230.0 0.0010756
3250.0 0.0018856
3270.0 0.00081504
3290.0 0.00273
3310.0 0.00054329
3330.0 0.00055427
3350.0 0.00084984
3370.0 0.0011864
3390.0 0.0015434
3410.0 0.0018988
3430.0 0.0022701
3450.0 0.0026401
3470.0 0.0029793
3490.0 0.0032016
3510.0 0.0039853
3530.0 0.0054586
3550.0 0.005472
3570.0 0.0046465
3590.0 0.0066586
3610.0 0.0042921
3630.0 0.0069197
3650.0 0.0078547
3670.0 0.010097
3690.0 0.009655
3710.0 0.00689
3730.0 0.0092038
3750.0 0.0095704
3770.0 0.0098596
3790.0 0.0089197
3810.0 0.0078394
3830.0 0.010839
3850.0 0.01166
3870.0 0.014481
3890.0 0.013667
3910.0 0.012408
3930.0 0.013431
3950.0 0.015117
3970.0 0.019715
3990.0 0.015876
4010.0 0.01049
4030.0 0.014128
4050.0 0.015453
4070.0 0.01756
4090.0 0.015411
4110.0 0.010539
4130.0 0.013894
4150.0 0.012771
4170.0 0.013534
4190.0 0.013468
4210.0 0.016726
4230.0 0.011699
4250.0 0.013979
4270.0 0.013964
4290.0 0.014118
4310.0 0.017196
4330.0 0.017635
4350.0 0.013675
4370.0 0.011842
4390.0 0.014368
4410.0 0.014636
4430.0 0.01131
4450.0 0.011379
4470.0 0.013187
4490.0 0.0098413
4510.0 0.011979
4530.0 0.012936
4550.0 0.017295
4570.0 0.025325
4590.0 0.024595
4610.0 0.016457
4630.0 0.026164
4650.0 0.037439
4670.0 0.034632
4690.0 0.020579
4710.0 0.022236
4730.0 0.028728
4750.0 0.025679
4770.0 0.019448
4790.0 0.013448
4810.0 0.01941
4830.0 0.022388
4850.0 0.020011
4870.0 0.0072561
4890.0 0.021481
4910.0 0.029783
4930.0 0.031938
4950.0 0.031503
4970.0 0.019891
4990.0 0.02282
5010.0 0.026517
5030.0 0.02881
5050.0 0.028395
5070.0 0.020543
5090.0 0.016862
5110.0 0.015772
5130.0 0.014067
5150.0 0.016079
5170.0 0.014017
5190.0 0.017359
5210.0 0.017318
5230.0 0.018902
5250.0 0.023909
5270.0 0.02026
5290.0 0.019847
5310.0 0.028887
5330.0 0.033369
5350.0 0.028165
5370.0 0.024544
5390.0 0.027713
5410.0 0.03454
5430.0 0.037915
5450.0 0.040543
5470.0 0.040759
5490.0 0.039876
5510.0 0.046406
5530.0 0.047975
5550.0 0.051157
5570.0 0.054052
5590.0 0.053423
5610.0 0.050496
5630.0 0.048607
5650.0 0.049369
5670.0 0.048713
5690.0 0.041548
5710.0 0.039717
5730.0 0.040011
5750.0 0.043441
5770.0 0.037635
5790.0 0.034402
5810.0 0.034769
5830.0 0.036384
5850.0 0.033189
5870.0 0.033265
5890.0 0.039316
5910.0 0.037386
5930.0 0.03066
5950.0 0.026582
5970.0 0.028284
5990.0 0.025998
6010.0 0.024468
6030.0 0.025046
6050.0 0.023497
6070.0 0.017784
6090.0 0.015997
6110.0 0.020583
6130.0 0.023711
6150.0 0.024954
6170.0 0.024344
6190.0 0.022931
6210.0 0.02247
6230.0 0.025966
6250.0 0.024002
6270.0 0.021951
6290.0 0.02017
6310.0 0.019079
6330.0 0.018154
6350.0 0.015913
6370.0 0.015811
6390.0 0.018738
6410.0 0.023272
6430.0 0.026723
6450.0 0.025201
6470.0 0.024728
6490.0 0.030789
6510.0 0.035224
6530.0 0.033371
6550.0 0.032122
6570.0 0.032617
6590.0 0.031601
6610.0 0.034327
6630.0 0.032322
6650.0 0.028646
6670.0 0.025821
6690.0 0.025004
6710.0 0.030533
6730.0 0.028079
6750.0 0.024175
6770.0 0.021803
6790.0 0.02285
6810.0 0.025271
6830.0 0.024667
6850.0 0.022453
6870.0 0.023188
6890.0 0.022767
6910.0 0.021495
6930.0 0.024624
6950.0 0.022848
6970.0 0.02143
6990.0 0.021406
7010.0 0.02049
7030.0 0.019297
7050.0 0.018614
7070.0 0.020109
7090.0 0.019054
7110.0 0.016535
7130.0 0.013391
7150.0 0.012156
7170.0 0.016097
7190.0 0.017541
7210.0 0.016968
7230.0 0.017659
7250.0 0.016461
7270.0 0.015681
7290.0 0.017331
7310.0 0.019306
7330.0 0.018948
7350.0 0.017789
7370.0 0.017008
7390.0 0.017819
7410.0 0.020768
7430.0 0.022713
7450.0 0.024186
7470.0 0.023783
7490.0 0.024421
7510.0 0.023465
7530.0 0.02353
7550.0 0.023272
7570.0 0.020555
7590.0 0.020402
7610.0 0.01987
7630.0 0.018555
7650.0 0.02041
7670.0 0.022331
7690.0 0.024301
7710.0 0.027148
7730.0 0.028991
7750.0 0.030365
7770.0 0.030438
7790.0 0.033282
7810.0 0.034428
7830.0 0.031925
7850.0 0.032222
7870.0 0.030758
7890.0 0.032179
7910.0 0.030578
7930.0 0.030865
7950.0 0.027472
7970.0 0.028236
7990.0 0.027141
8010.0 0.027191
8030.0 0.027139
8050.0 0.028506
8070.0 0.02756
8090.0 0.027691
8110.0 0.02705
8130.0 0.027094
8150.0 0.026
8170.0 0.025337
8190.0 0.025078
8210.0 0.025319
8230.0 0.0226
8250.0 0.020742
8270.0 0.018237
8290.0 0.01519
8310.0 0.012985
8330.0 0.010378
8350.0 0.0087566
8370.0 0.0090521
8390.0 0.0092955
8410.0 0.0098882
8430.0 0.012066
8450.0 0.01293
8470.0 0.013686
8490.0 0.015701
8510.0 0.017153
8530.0 0.019801
8550.0 0.023451
8570.0 0.026194
8590.0 0.028164
8610.0 0.030787
8630.0 0.033882
8650.0 0.034493
8670.0 0.034914
8690.0 0.036323
8710.0 0.036021
8730.0 0.03574
8750.0 0.033904
8770.0 0.033985
8790.0 0.033576
8810.0 0.031053
8830.0 0.031048
8850.0 0.029208
8870.0 0.028113
8890.0 0.025801
8910.0 0.027645
8930.0 0.025371
8950.0 0.02497
8970.0 0.025061
8990.0 0.024279
9010.0 0.024688
9030.0 0.023704
9050.0 0.023574
9070.0 0.023545
9090.0 0.023511
9110.0 0.023485
9130.0 0.023443
9150.0 0.023394
9170.0 0.02329
9190.0 0.023098
9210.0 0.023359
9230.0 0.023235
9250.0 0.023145
9270.0 0.02306
9290.0 0.022979
9310.0 0.0229
9330.0 0.02282
9350.0 0.022739
9370.0 0.022657
9390.0 0.022573
9410.0 0.022487
9430.0 0.022398
9450.0 0.022306
9470.0 0.022213
9490.0 0.022121
9510.0 0.022026
9530.0 0.02193
9550.0 0.021832
9570.0 0.021733
9590.0 0.021633
9610.0 0.021532
9630.0 0.02143
9650.0 0.021328
9670.0 0.021225
9690.0 0.021121
9710.0 0.021017
9730.0 0.020914
9750.0 0.02081
9770.0 0.020706
9790.0 0.020602
9810.0 0.020498
9830.0 0.020395
9850.0 0.020292
9870.0 0.020189
9890.0 0.020087
9910.0 0.019986
9930.0 0.019884
9950.0 0.019725
9970.0 0.019643
9990.0 0.01956
10010.0 0.019475
10030.0 0.019386
10050.0 0.019291
10070.0 0.019177
10090.0 0.019095
10110.0 0.019009
10130.0 0.018924
10150.0 0.018839
10170.0 0.018753
10190.0 0.018665
10210.0 0.018581
10230.0 0.018499
10250.0 0.018416
10270.0 0.018335
10290.0 0.018257
10310.0 0.018179
10330.0 0.0181
10350.0 0.018026
10370.0 0.017954
10390.0 0.01788
10410.0 0.017809
10430.0 0.017743
10450.0 0.017675
10470.0 0.017608
10490.0 0.017544
10510.0 0.017483
10530.0 0.017419
10550.0 0.017358
10570.0 0.017302
10590.0 0.017245
10610.0 0.017188
10630.0 0.017136
10650.0 0.017084
10670.0 0.017032
10690.0 0.016982
10710.0 0.016935
10730.0 0.016888
10750.0 0.01684
10770.0 0.016798
10790.0 0.016756
10810.0 0.016713
10830.0 0.016673
10850.0 0.016634
10870.0 0.016591
10890.0 0.016544
10910.0 0.016492
10930.0 0.016427
10950.0 0.016337
10970.0 0.016219
10990.0 0.016073
11010.0 0.015783
11030.0 0.015561
11050.0 0.015304
11070.0 0.01501
11090.0 0.014669
11110.0 0.01433
11130.0 0.013989
11150.0 0.013637
11170.0 0.013289
11190.0 0.012966
11210.0 0.012645
11230.0 0.01233
11250.0 0.012041
11270.0 0.011772
11290.0 0.011509
11310.0 0.011265
11330.0 0.011052
11350.0 0.01085
11370.0 0.010659
11390.0 0.010489
11410.0 0.010333
11430.0 0.010176
11450.0 0.010029
11470.0 0.0098913
11490.0 0.0097504
11510.0 0.0096022
11530.0 0.0094576
11550.0 0.0093089
11570.0 0.0091456
11590.0 0.0089758
11610.0 0.0088046
11630.0 0.0086174
11650.0 0.0084166
11670.0 0.0082199
11690.0 0.0080189
11710.0 0.007807
11730.0 0.0075973
11750.0 0.007399
11770.0 0.0071957
11790.0 0.0069954
11810.0 0.0068103
11830.0 0.0066343
11850.0 0.0064576
11870.0 0.0062978
11890.0 0.0061543
11910.0 0.0060151
11930.0 0.0058837
11950.0 0.005767
11970.0 0.0056564
11990.0 0.0055468
12010.0 0.0054469
12030.0 0.0053547
12050.0 0.0052633
12070.0 0.0051735
12090.0 0.0050949
12110.0 0.0050188
12130.0 0.0049444
12150.0 0.0048778
12170.0 0.00482
12190.0 0.004765
12210.0 0.0047203
12230.0 0.0046891
12250.0 0.0046693
12270.0 0.0046626
12290.0 0.0046727
12310.0 0.004699
12330.0 0.0047423
12350.0 0.0048035
12370.0 0.0048797
12390.0 0.0049716
12410.0 0.0050818
12430.0 0.0051994
12450.0 0.0053242
12470.0 0.0054581
12490.0 0.0055949
12510.0 0.0057271
12530.0 0.0058598
12550.0 0.0059899
12570.0 0.00611
12590.0 0.006221
12610.0 0.0063255
12630.0 0.0064191
12650.0 0.0064994
12670.0 0.0065708
12690.0 0.0066322
12710.0 0.0066828
12730.0 0.0067241
12750.0 0.0067561
12770.0 0.006779
12790.0 0.0067941
12810.0 0.0068008
12830.0 0.0067985
12850.0 0.0067904
12870.0 0.0067754
12890.0 0.0067513
12910.0 0.0067207
12930.0 0.0066853
12950.0 0.0066404
12970.0 0.0065864
12990.0 0.0065297
13010.0 0.0064665
13030.0 0.0063937
13050.0 0.0063166
13070.0 0.0062383
13090.0 0.0061514
13110.0 0.0060601
13130.0 0.0059708
13150.0 0.005881
13170.0 0.005787
13190.0 0.0057006
13210.0 0.0056228
13230.0 0.0055491
13250.0 0.0054843
13270.0 0.0054333
13290.0 0.0053925
13310.0 0.0053621
13330.0 0.0053453
13350.0 0.0053399
13370.0 0.0053433
13390.0 0.0053544
13410.0 0.0053704
13430.0 0.0053881
13450.0 0.0054049
13470.0 0.0054176
13490.0 0.0054243
13510.0 0.0054218
13530.0 0.0054088
13550.0 0.0053862
13570.0 0.0053526
13590.0 0.0053071
13610.0 0.0052542
13630.0 0.0051961
13650.0 0.0051296
13670.0 0.00506
13690.0 0.0049915
13710.0 0.004922
13730.0 0.0048504
13750.0 0.004786
13770.0 0.0047252
13790.0 0.004666
13810.0 0.0046109
13830.0 0.0045614
13850.0 0.0045129
13870.0 0.0044661
13890.0 0.0044227
13910.0 0.0043809
13930.0 0.0043385
13950.0 0.0042971
13970.0 0.0042583
13990.0 0.0042192
14010.0 0.0041804
14030.0 0.0041442
14050.0 0.0041098
14070.0 0.0040758
14090.0 0.0040453
14110.0 0.0040184
14130.0 0.003994
14150.0 0.0039727
14170.0 0.0039556
14190.0 0.0039419
14210.0 0.0039315
14230.0 0.0039249
14250.0 0.0039216
14270.0 0.003922
14290.0 0.0039262
14310.0 0.003933
14330.0 0.0039427
14350.0 0.0039557
14370.0 0.0039706
14390.0 0.0039861
14410.0 0.0040037
14430.0 0.0040218
14450.0 0.0040386
14470.0 0.0040547
14490.0 0.0040706
14510.0 0.0040837
14530.0 0.0040943
14550.0 0.004104
14570.0 0.0041123
14590.0 0.0041189
14610.0 0.0041257
14630.0 0.004134
14650.0 0.0041432
14670.0 0.0041547
14690.0 0.0041706
14710.0 0.004192
14730.0 0.0042163
14750.0 0.0042473
14770.0 0.0042861
14790.0 0.00433
14810.0 0.0043785
14830.0 0.0044377
14850.0 0.0045015
14870.0 0.0045663
14890.0 0.0046351
14910.0 0.0047066
14930.0 0.0047721
14950.0 0.0048299
14970.0 0.0048818
14990.0 0.0049204
15010.0 0.0049437
15030.0 0.0049545
15050.0 0.0049534
15070.0 0.0049407
15090.0 0.004921
15110.0 0.0048963
15130.0 0.0048684
15150.0 0.0048392
15170.0 0.0048088
15190.0 0.0047779
15210.0 0.0047471
15230.0 0.0047163
15250.0 0.0046851
15270.0 0.0046541
15290.0 0.0046234
15310.0 0.0045925
15330.0 0.0045615
15350.0 0.0045309
15370.0 0.0045003
15390.0 0.0044694
15410.0 0.0044388
15430.0 0.0044084
15450.0 0.0043779
15470.0 0.0043474
15490.0 0.0043173
15510.0 0.0042873
15530.0 0.0042571
15550.0 0.0042272
15570.0 0.0041976
15590.0 0.0041678
15610.0 0.004138
15630.0 0.0041087
15650.0 0.0040795
15670.0 0.0040502
15690.0 0.0040212
15710.0 0.0039926
15730.0 0.0039638
15750.0 0.0039351
15770.0 0.0039068
15790.0 0.0038787
15810.0 0.0038504
15830.0 0.0038225
15850.0 0.003795
15870.0 0.0037674
15890.0 0.0037399
15910.0 0.0037129
15930.0 0.003686
15950.0 0.003659
15970.0 0.0036324
15990.0 0.0036061
16010.0 0.0035797
16030.0 0.0035535
16050.0 0.0035279
16070.0 0.0035023
16090.0 0.0034767
16110.0 0.0034515
16130.0 0.0034266
16150.0 0.0034016
16170.0 0.0033768
16190.0 0.0033525
16210.0 0.0033283
16230.0 0.0033041
16250.0 0.0032804
16270.0 0.0032569
16290.0 0.0032334
16310.0 0.0032101
16330.0 0.0031873
16350.0 0.0031645
16370.0 0.0031416
16390.0 0.0031194
16410.0 0.0030973
16430.0 0.0030753
16450.0 0.0030535
16470.0 0.0030321
16490.0 0.0030108
16510.0 0.0029895
16530.0 0.0029686
16550.0 0.002948
16570.0 0.0029273
16590.0 0.002907
16610.0 0.002887
16630.0 0.0028671
16650.0 0.0028473
16670.0 0.0028279
16690.0 0.0028087
16710.0 0.0027894
16730.0 0.0027705
16750.0 0.0027519
16770.0 0.0027333
16790.0 0.0027149
16810.0 0.0026969
16830.0 0.002679
16850.0 0.0026612
16870.0 0.0026437
16890.0 0.0026264
16910.0 0.0026092
16930.0 0.002592
16950.0 0.0025753
16970.0 0.0025588
16990.0 0.0025422
17010.0 0.002526
17030.0 0.0025101
17050.0 0.0024941
17070.0 0.0024783
17090.0 0.0024628
17110.0 0.0024475
17130.0 0.0024321
17150.0 0.0024171
17170.0 0.0024023
17190.0 0.0023876
17210.0 0.002373
17230.0 0.0023588
17250.0 0.0023446
17270.0 0.0023304
17290.0 0.0023166
17310.0 0.0023029
17330.0 0.0022893
17350.0 0.0022757
17370.0 0.0022627
17390.0 0.0022496
17410.0 0.0022365
17430.0 0.0022238
17450.0 0.0022113
17470.0 0.0021986
17490.0 0.0021861
17510.0 0.002174
17530.0 0.0021619
17550.0 0.0021499
17570.0 0.0021382
17590.0 0.0021266
17610.0 0.002115
17630.0 0.0021036
17650.0 0.0020924
17670.0 0.0020813
17690.0 0.00207
17710.0 0.0020593
17730.0 0.0020486
17750.0 0.0020379
17770.0 0.0020274
17790.0 0.0020172
17810.0 0.0020068
17830.0 0.0019966
17850.0 0.0019867
17870.0 0.0019768
17890.0 0.0019669
17910.0 0.0019572
17930.0 0.0019478
17950.0 0.0019383
17970.0 0.0019289
17990.0 0.0019197
18010.0 0.0019107
18030.0 0.0019015
18050.0 0.0018926
18070.0 0.0018838
18090.0 0.0018751
18110.0 0.0018664
18130.0 0.001858
18150.0 0.0018496
18170.0 0.0018412
18190.0 0.001833
18210.0 0.001825
18230.0 0.0018168
18250.0 0.0018088
18270.0 0.001801
18290.0 0.0017933
18310.0 0.0017855
18330.0 0.001778
18350.0 0.0017706
18370.0 0.0017631
18390.0 0.0017557
18410.0 0.0017485
18430.0 0.0017414
18450.0 0.0017341
18470.0 0.0017271
18490.0 0.0017203
18510.0 0.0017134
18530.0 0.0017066
18550.0 0.0017
18570.0 0.0016933
18590.0 0.0016866
18610.0 0.0016802
18630.0 0.0016738
18650.0 0.0016674
18670.0 0.001661
18690.0 0.001655
18710.0 0.0016488
18730.0 0.0016427
18750.0 0.0016367
18770.0 0.0016309
18790.0 0.0016248
18810.0 0.0016189
18830.0 0.0016133
18850.0 0.0016075
18870.0 0.0016018
18890.0 0.0015963
18910.0 0.0015908
18930.0 0.0015853
18950.0 0.0015798
18970.0 0.0015745
18990.0 0.0015692
19010.0 0.0015638
19030.0 0.0015587
19050.0 0.0015536
19070.0 0.0015484
19090.0 0.0015433
19110.0 0.0015385
19130.0 0.0015334
19150.0 0.0015284
19170.0 0.0015236
19190.0 0.0015188
19210.0 0.001514
19230.0 0.0015092
19250.0 0.0015046
19270.0 0.0015
19290.0 0.0014953
19310.0 0.0014908
19330.0 0.0014864
19350.0 0.0014817
19370.0 0.0014773
19390.0 0.001473
19410.0 0.0014686
19430.0 0.0014641
19450.0 0.00146
19470.0 0.0014558
19490.0 0.0014514
19510.0 0.0014473
19530.0 0.0014432
19550.0 0.001439
19570.0 0.0014348
19590.0 0.0014309
19610.0 0.0014269
19630.0 0.0014228
19650.0 0.0014189
19670.0 0.0014151
19690.0 0.0014111
19710.0 0.0014071
19730.0 0.0014034
19750.0 0.0013996
19770.0 0.0013956
19790.0 0.0013919
19810.0 0.0013882
19830.0 0.0013844
19850.0 0.0013806
19870.0 0.0013769
19890.0 0.0013727
19910.0 0.001368
19930.0 0.0013628
19950.0 0.0013565
19970.0 0.0013483
19990.0 0.0013379
20010.0 0.0013258
20030.0 0.0013109
20050.0 0.0012931
20070.0 0.0012739
20090.0 0.0012532
20110.0 0.0012299
20130.0 0.0012065
20150.0 0.0011835
20170.0 0.0011598
20190.0 0.0011359
20210.0 0.0011136
20230.0 0.0010919
20250.0 0.0010702
20270.0 0.0010503
20290.0 0.0010322
20310.0 0.0010151
20330.0 0.00099928
20350.0 0.00098649
20370.0 0.00097546
20390.0 0.00096625
20410.0 0.00095948
20430.0 0.00095507
20450.0 0.00095266
20470.0 0.0009526
20490.0 0.0009547
20510.0 0.0009588
20530.0 0.00096505
20550.0 0.00097297
20570.0 0.00098211
20590.0 0.00099291
20610.0 0.0010049
20630.0 0.0010172
20650.0 0.0010303
20670.0 0.0010442
20690.0 0.0010576
20710.0 0.0010705
20730.0 0.0010832
20750.0 0.0010953
20770.0 0.0011058
20790.0 0.0011155
20810.0 0.0011242
20830.0 0.0011313
20850.0 0.001137
20870.0 0.0011415
20890.0 0.0011445
20910.0 0.0011462
20930.0 0.0011467
20950.0 0.001146
20970.0 0.0011443
20990.0 0.0011418
21010.0 0.0011381
21030.0 0.0011338
21050.0 0.0011289
21070.0 0.0011234
21090.0 0.0011171
21110.0 0.0011108
21130.0 0.0011042
21150.0 0.0010972
21170.0 0.0010901
21190.0 0.0010833
21210.0 0.0010764
21230.0 0.0010696
21250.0 0.0010634
21270.0 0.0010578
21290.0 0.0010525
21310.0 0.001048
21330.0 0.0010445
21350.0 0.0010416
21370.0 0.0010396
21390.0 0.0010387
21410.0 0.0010387
21430.0 0.0010397
21450.0 0.0010416
21470.0 0.0010445
21490.0 0.0010482
21510.0 0.0010529
21530.0 0.0010581
21550.0 0.001064
21570.0 0.0010707
21590.0 0.0010779
21610.0 0.0010854
21630.0 0.0010935
21650.0 0.0011023
21670.0 0.0011108
21690.0 0.0011198
21710.0 0.0011292
21730.0 0.0011387
21750.0 0.0011482
21770.0 0.0011584
21790.0 0.0011687
21810.0 0.0011789
21830.0 0.0011894
21850.0 0.0012005
21870.0 0.0012114
21890.0 0.0012221
21910.0 0.0012334
21930.0 0.0012448
21950.0 0.0012558
21970.0 0.0012669
21990.0 0.0012783
22010.0 0.001289
22030.0 0.0012992
22050.0 0.0013093
22070.0 0.0013187
22090.0 0.0013271
22110.0 0.0013349
22130.0 0.0013418
22150.0 0.0013474
22170.0 0.0013518
22190.0 0.001355
22210.0 0.0013566
22230.0 0.0013567
22250.0 0.0013552
22270.0 0.001352
22290.0 0.0013472
22310.0 0.0013409
22330.0 0.0013326
22350.0 0.0013228
22370.0 0.0013118
22390.0 0.0012991
22410.0 0.0012845
22430.0 0.0012695
22450.0 0.0012535
22470.0 0.001236
22490.0 0.001218
22510.0 0.0012
22530.0 0.0011809
22550.0 0.0011611
22570.0 0.0011421
22590.0 0.0011233
22610.0 0.001104
22630.0 0.0010853
22650.0 0.001068
22670.0 0.0010505
22690.0 0.0010335
22710.0 0.0010179
22730.0 0.0010031
22750.0 0.00098825
22770.0 0.00097485
22790.0 0.00096267
22810.0 0.00095092
22830.0 0.00093989
22850.0 0.00093011
22870.0 0.00092094
22890.0 0.00091218
22910.0 0.00090439
22930.0 0.00089743
22950.0 0.0008909
22970.0 0.00088492
22990.0 0.00087997
23010.0 0.00087552
23030.0 0.00087157
23050.0 0.00086834
23070.0 0.00086577
23090.0 0.00086363
23110.0 0.00086209
23130.0 0.00086113
23150.0 0.00086063
23170.0 0.00086057
23190.0 0.00086091
23210.0 0.00086158
23230.0 0.00086256
23250.0 0.00086381
23270.0 0.00086524
23290.0 0.00086687
23310.0 0.00086874
23330.0 0.00087067
23350.0 0.00087269
23370.0 0.00087488
23390.0 0.00087714
23410.0 0.00087935
23430.0 0.00088164
23450.0 0.00088396
23470.0 0.00088614
23490.0 0.0008882
23510.0 0.00089021
23530.0 0.00089202
23550.0 0.00089354
23570.0 0.00089488
23590.0 0.00089602
23610.0 0.00089691
23630.0 0.00089762
23650.0 0.00089822
23670.0 0.00089875
23690.0 0.0008993
23710.0 0.00090001
23730.0 0.00090106
23750.0 0.0009025
23770.0 0.00090453
23790.0 0.00090744
23810.0 0.00091127
23830.0 0.00091603
23850.0 0.00092225
23870.0 0.00092998
23890.0 0.00093874
23910.0 0.00094884
23930.0 0.00096061
23950.0 0.00097338
23970.0 0.00098656
23990.0 0.001001
24010.0 0.001016
24030.0 0.0010307
24050.0 0.0010453
24070.0 0.0010602
24090.0 0.0010739
