#lamb flux
1010.0 3.4892e-08
1030.0 3.859e-08
1050.0 4.2845e-08
1070.0 4.7634e-08
1090.0 5.3073e-08
1110.0 5.8653e-08
1130.0 6.4268e-08
1150.0 7.015e-08
1170.0 7.6218e-08
1190.0 8.1971e-08
1210.0 8.7802e-08
1230.0 9.3828e-08
1250.0 9.9732e-08
1270.0 1.0547e-07
1290.0 1.1152e-07
1310.0 1.1758e-07
1330.0 1.2338e-07
1350.0 1.2925e-07
1370.0 1.3532e-07
1390.0 1.4123e-07
1410.0 1.4696e-07
1430.0 1.5295e-07
1450.0 1.5895e-07
1470.0 1.6474e-07
1490.0 1.706e-07
1510.0 1.7679e-07
1530.0 1.8265e-07
1550.0 1.8844e-07
1570.0 1.9442e-07
1590.0 2.0042e-07
1610.0 2.0614e-07
1630.0 2.1205e-07
1650.0 2.1812e-07
1670.0 2.2399e-07
1690.0 2.2979e-07
1710.0 2.3581e-07
1730.0 2.4188e-07
1750.0 2.4759e-07
1770.0 2.5347e-07
1790.0 2.5948e-07
1810.0 2.653e-07
1830.0 2.7103e-07
1850.0 2.7712e-07
1870.0 2.8306e-07
1890.0 2.8881e-07
1910.0 2.9469e-07
1930.0 3.0072e-07
1950.0 3.065e-07
1970.0 3.1221e-07
1990.0 3.1816e-07
2010.0 3.2401e-07
2030.0 3.2968e-07
2050.0 3.3553e-07
2070.0 3.4154e-07
2090.0 3.4722e-07
2110.0 3.5289e-07
2130.0 3.5875e-07
2150.0 3.6451e-07
2170.0 3.7004e-07
2190.0 3.7578e-07
2210.0 3.8156e-07
2230.0 3.8713e-07
2250.0 3.9267e-07
2270.0 3.9847e-07
2290.0 4.041e-07
2310.0 4.0951e-07
2330.0 4.1514e-07
2350.0 4.2092e-07
2370.0 4.2668e-07
2390.0 4.3292e-07
2410.0 4.403e-07
2430.0 4.488e-07
2450.0 4.5896e-07
2470.0 4.7197e-07
2490.0 4.8837e-07
2510.0 5.0701e-07
2530.0 5.2946e-07
2550.0 5.5755e-07
2570.0 5.9249e-07
2590.0 6.3795e-07
2610.0 7.0601e-07
2630.0 8.0318e-07
2650.0 9.3023e-07
2670.0 1.0945e-06
2690.0 1.2964e-06
2710.0 1.5118e-06
2730.0 1.7248e-06
2750.0 1.9345e-06
2770.0 2.1169e-06
2790.0 2.2618e-06
2810.0 2.3767e-06
2830.0 2.4665e-06
2850.0 2.5278e-06
2870.0 2.5728e-06
2890.0 2.6085e-06
2910.0 2.6369e-06
2930.0 2.6601e-06
2950.0 2.6823e-06
2970.0 2.704e-06
2990.0 2.7243e-06
3010.0 7.7005e-05
3030.0 7.7581e-05
3050.0 7.8137e-05
3070.0 7.8613e-05
3090.0 7.9023e-05
3110.0 7.9278e-05
3130.0 7.9267e-05
3150.0 7.8915e-05
3170.0 7.807e-05
3190.0 7.6743e-05
3210.0 7.506e-05
3230.0 7.3133e-05
3250.0 7.1231e-05
3270.0 6.9841e-05
3290.0 6.907e-05
3310.0 6.9195e-05
3330.0 7.0196e-05
3350.0 7.194e-05
3370.0 7.443e-05
3390.0 7.7568e-05
3410.0 8.0983e-05
3430.0 8.4817e-05
3450.0 8.9231e-05
3470.0 9.4051e-05
3490.0 9.9159e-05
3510.0 0.00010493
3530.0 0.00011112
3550.0 0.00011738
3570.0 0.0001239
3590.0 0.00013101
3610.0 0.00013832
3630.0 0.00014562
3650.0 0.00015319
3670.0 0.0001601
3690.0 0.00016526
3710.0 0.00016822
3730.0 0.00016832
3750.0 0.00016598
3770.0 0.00016506
3790.0 0.00016408
3810.0 0.00016004
3830.0 0.000165
3850.0 0.00018449
3870.0 0.00019519
3890.0 0.0001943
3910.0 0.00019512
3930.0 0.00020026
3950.0 0.00020342
3970.0 0.00018534
3990.0 0.00015947
4010.0 0.00047796
4030.0 0.00057912
4050.0 0.00066393
4070.0 0.00057607
4090.0 0.00052174
4110.0 0.00046039
4130.0 0.00042374
4150.0 0.00045073
4170.0 0.00044399
4190.0 0.00047326
4210.0 0.00046893
4230.0 0.000496
4250.0 0.00058678
4270.0 0.00059368
4290.0 0.00054707
4310.0 0.00056845
4330.0 0.00060466
4350.0 0.00067797
4370.0 0.00077154
4390.0 0.00072401
4410.0 0.00053492
4430.0 0.00045284
4450.0 0.00041611
4470.0 0.00031938
4490.0 0.00034465
4510.0 0.0005206
4530.0 0.00060041
4550.0 0.00060562
4570.0 0.00068147
4590.0 0.00077626
4610.0 0.001047
4630.0 0.0013598
4650.0 0.0014747
4670.0 0.0013657
4690.0 0.0013031
4710.0 0.0013775
4730.0 0.0013
4750.0 0.00097191
4770.0 0.00071293
4790.0 0.00066574
4810.0 0.00063455
4830.0 0.00058093
4850.0 0.00063747
4870.0 0.00084216
4890.0 0.00099314
4910.0 0.00087136
4930.0 0.00077102
4950.0 0.00084709
4970.0 0.0010863
4990.0 0.0014722
5010.0 0.0016936
5030.0 0.0014934
5050.0 0.0010104
5070.0 0.00066587
5090.0 0.00053693
5110.0 0.00055218
5130.0 0.0006373
5150.0 0.00069047
5170.0 0.00068011
5190.0 0.00063552
5210.0 0.00066426
5230.0 0.00069829
5250.0 0.00075256
5270.0 0.00081196
5290.0 0.00089982
5310.0 0.0010474
5330.0 0.001159
5350.0 0.0011517
5370.0 0.0012097
5390.0 0.0013882
5410.0 0.0013869
5430.0 0.0012265
5450.0 0.0011269
5470.0 0.0011966
5490.0 0.0014619
5510.0 0.0018278
5530.0 0.0020964
5550.0 0.0020262
5570.0 0.001842
5590.0 0.0016017
5610.0 0.0014771
5630.0 0.0014323
5650.0 0.0013641
5670.0 0.0012926
5690.0 0.0011556
5710.0 0.0011267
5730.0 0.0010379
5750.0 0.00073178
5770.0 0.00057091
5790.0 0.00064697
5810.0 0.00073054
5830.0 0.00089647
5850.0 0.0010672
5870.0 0.001184
5890.0 0.0012041
5910.0 0.0011813
5930.0 0.0011245
5950.0 0.0011458
5970.0 0.0013061
5990.0 0.0012281
6010.0 0.0010295
6030.0 0.00086976
6050.0 0.00075746
6070.0 0.00075331
6090.0 0.00081685
6110.0 0.00091337
6130.0 0.00092736
6150.0 0.00079791
6170.0 0.00070191
6190.0 0.0007899
6210.0 0.0010442
6230.0 0.0013703
6250.0 0.0014843
6270.0 0.001297
6290.0 0.0010913
6310.0 0.00085193
6330.0 0.00065274
6350.0 0.00058223
6370.0 0.00061227
6390.0 0.00070783
6410.0 0.00087278
6430.0 0.0010192
6450.0 0.0011662
6470.0 0.0013353
6490.0 0.001613
6510.0 0.0018035
6530.0 0.0017694
6550.0 0.0016
6570.0 0.0013582
6590.0 0.0012248
6610.0 0.0010561
6630.0 0.00095674
6650.0 0.0009044
6670.0 0.0008786
6690.0 0.00079386
6710.0 0.00072164
6730.0 0.00051978
6750.0 0.00051531
6770.0 0.00056011
6790.0 0.0006438
6810.0 0.00058909
6830.0 0.0006066
6850.0 0.00056736
6870.0 0.00051829
6890.0 0.00049763
6910.0 0.00053029
6930.0 0.0004967
6950.0 0.00051102
6970.0 0.0005375
6990.0 0.0006101
7010.0 0.0006153
7030.0 0.00062507
7050.0 0.00059611
7070.0 0.00056798
7090.0 0.00056965
7110.0 0.00058612
7130.0 0.00063076
7150.0 0.00066992
7170.0 0.00073921
7190.0 0.0008126
7210.0 0.00079848
7230.0 0.00082085
7250.0 0.00088214
7270.0 0.00096132
7290.0 0.001141
7310.0 0.0012381
7330.0 0.0011967
7350.0 0.0010823
7370.0 0.00094174
7390.0 0.0009136
7410.0 0.00097088
7430.0 0.001079
7450.0 0.0011752
7470.0 0.0011644
7490.0 0.0010618
7510.0 0.0012027
7530.0 0.0011895
7550.0 0.0010692
7570.0 0.00083523
7590.0 0.00057419
7610.0 0.00049283
7630.0 0.00055994
7650.0 0.00066206
7670.0 0.00082398
7690.0 0.00090672
7710.0 0.00094492
7730.0 0.00099299
7750.0 0.0011147
7770.0 0.0011323
7790.0 0.00104
7810.0 0.00094898
7830.0 0.00097862
7850.0 0.0009513
7870.0 0.00087219
7890.0 0.0007328
7910.0 0.00059567
7930.0 0.00056878
7950.0 0.00051817
7970.0 0.00047966
7990.0 0.00047692
8010.0 3.5322e-05
8030.0 3.4863e-05
8050.0 3.4393e-05
8070.0 3.4843e-05
8090.0 3.7438e-05
8110.0 3.68e-05
8130.0 3.0356e-05
8150.0 2.9563e-05
8170.0 2.5464e-05
8190.0 2.4133e-05
8210.0 3.1339e-05
8230.0 3.4892e-05
8250.0 3.1448e-05
8270.0 2.7371e-05
8290.0 2.6682e-05
8310.0 2.0535e-05
8330.0 1.3841e-05
8350.0 9.8226e-06
8370.0 6.1887e-06
8390.0 1.1313e-05
8410.0 1.3182e-05
8430.0 1.6249e-05
8450.0 1.9081e-05
8470.0 2.3717e-05
8490.0 2.355e-05
8510.0 2.3165e-05
8530.0 2.4176e-05
8550.0 3.2617e-05
8570.0 3.8614e-05
8590.0 4.1665e-05
8610.0 5.2631e-05
8630.0 6.3402e-05
8650.0 6.6326e-05
8670.0 7.0484e-05
8690.0 7.0879e-05
8710.0 6.4191e-05
8730.0 5.9708e-05
8750.0 5.2703e-05
8770.0 5.0007e-05
8790.0 4.913e-05
8810.0 4.7077e-05
8830.0 3.7645e-05
8850.0 2.7559e-05
8870.0 2.1102e-05
8890.0 2.063e-05
8910.0 2.3643e-05
8930.0 2.6892e-05
8950.0 2.7407e-05
8970.0 2.7536e-05
8990.0 2.4559e-05
9010.0 0.00025737
9030.0 0.00023321
9050.0 0.00023433
9070.0 0.00023618
9090.0 0.0002378
9110.0 0.00023981
9130.0 0.00024135
9150.0 0.00024256
9170.0 0.00024384
9190.0 0.0002452
9210.0 0.00024664
9230.0 0.00024816
9250.0 0.00024971
9270.0 0.00025131
9290.0 0.00025296
9310.0 0.00025462
9330.0 0.00025632
9350.0 0.00025807
9370.0 0.00025985
9390.0 0.00026164
9410.0 0.00026349
9430.0 0.00026539
9450.0 0.00026729
9470.0 0.00026922
9490.0 0.00027122
9510.0 0.00027323
9530.0 0.00027525
9550.0 0.00027735
9570.0 0.00027948
9590.0 0.00028162
9610.0 0.00028379
9630.0 0.00028602
9650.0 0.00028827
9670.0 0.00029053
9690.0 0.00029284
9710.0 0.00029519
9730.0 0.00029755
9750.0 0.00029994
9770.0 0.0003024
9790.0 0.00030486
9810.0 0.00030733
9830.0 0.00030986
9850.0 0.00031241
9870.0 0.00031496
9890.0 0.00031755
9910.0 0.00032018
9930.0 0.00032282
9950.0 0.00032547
9970.0 0.00032817
9990.0 0.00033089
10010.0 0.00028713
10030.0 0.00028949
10050.0 0.00029189
10070.0 0.00029438
10090.0 0.00029672
10110.0 0.00029913
10130.0 0.00030154
10150.0 0.00030394
10170.0 0.00030638
10190.0 0.00030885
10210.0 0.0003113
10230.0 0.00031374
10250.0 0.00031622
10270.0 0.00031869
10290.0 0.00032114
10310.0 0.00032362
10330.0 0.00032612
10350.0 0.00032858
10370.0 0.00033103
10390.0 0.00033351
10410.0 0.00033598
10430.0 0.00033839
10450.0 0.00034084
10470.0 0.00034329
10490.0 0.0003457
10510.0 0.00034809
10530.0 0.00035052
10550.0 0.00035291
10570.0 0.00035525
10590.0 0.0003576
10610.0 0.00035996
10630.0 0.00036225
10650.0 0.00036452
10670.0 0.00036682
10690.0 0.00036908
10710.0 0.00037128
10730.0 0.00037349
10750.0 0.0003757
10770.0 0.00037783
10790.0 0.00037993
10810.0 0.00038204
10830.0 0.00038407
10850.0 0.00038601
10870.0 0.00038788
10890.0 0.00038953
10910.0 0.0003908
10930.0 0.00039152
10950.0 0.00039135
10970.0 0.00039003
10990.0 0.00038743
11010.0 0.00038307
11030.0 0.00037698
11050.0 0.00036956
11070.0 0.00036067
11090.0 0.00035
11110.0 0.00033896
11130.0 0.00032745
11150.0 0.00031505
11170.0 0.00030227
11190.0 0.00028988
11210.0 0.00027708
11230.0 0.00026395
11250.0 0.00025141
11270.0 0.00023937
11290.0 0.0002273
11310.0 0.00021587
11330.0 0.0002058
11350.0 0.00019629
11370.0 0.0001875
11390.0 0.0001799
11410.0 0.00017325
11430.0 0.00016707
11450.0 0.00016174
11470.0 0.00015714
11490.0 0.00015285
11510.0 0.00014872
11530.0 0.00014489
11550.0 0.00014109
11570.0 0.00013703
11590.0 0.00013282
11610.0 0.00012854
11630.0 0.00012388
11650.0 0.0001189
11670.0 0.00011398
11690.0 0.000109
11710.0 0.00010386
11730.0 9.8874e-05
11750.0 9.4263e-05
11770.0 8.9741e-05
11790.0 8.5503e-05
11810.0 8.1772e-05
11830.0 7.8436e-05
11850.0 7.5363e-05
11870.0 7.2792e-05
11890.0 7.0655e-05
11910.0 6.8777e-05
11930.0 6.7163e-05
11950.0 6.5819e-05
11970.0 6.4618e-05
11990.0 6.3483e-05
12010.0 6.2433e-05
12030.0 6.1421e-05
12050.0 6.0375e-05
12070.0 5.9287e-05
12090.0 5.8238e-05
12110.0 5.7173e-05
12130.0 5.6106e-05
12150.0 5.5122e-05
12170.0 5.4263e-05
12190.0 5.3521e-05
12210.0 5.3003e-05
12230.0 5.2752e-05
12250.0 5.2792e-05
12270.0 5.3191e-05
12290.0 5.3943e-05
12310.0 5.5022e-05
12330.0 5.6533e-05
12350.0 5.8417e-05
12370.0 6.0563e-05
12390.0 6.3038e-05
12410.0 6.5937e-05
12430.0 6.8884e-05
12450.0 7.1935e-05
12470.0 7.518e-05
12490.0 7.8438e-05
12510.0 8.1495e-05
12530.0 8.4537e-05
12550.0 8.7471e-05
12570.0 9.0061e-05
12590.0 9.2335e-05
12610.0 9.4361e-05
12630.0 9.5976e-05
12650.0 9.7091e-05
12670.0 9.7823e-05
12690.0 9.8117e-05
12710.0 9.7955e-05
12730.0 9.7387e-05
12750.0 9.6374e-05
12770.0 9.4984e-05
12790.0 9.3298e-05
12810.0 9.1285e-05
12830.0 8.8956e-05
12850.0 8.652e-05
12870.0 8.3945e-05
12890.0 8.1158e-05
12910.0 7.8325e-05
12930.0 7.5533e-05
12950.0 7.262e-05
12970.0 6.9654e-05
12990.0 6.6848e-05
13010.0 6.4077e-05
13030.0 6.1276e-05
13050.0 5.8584e-05
13070.0 5.6064e-05
13090.0 5.3534e-05
13110.0 5.1086e-05
13130.0 4.883e-05
13150.0 4.6693e-05
13170.0 4.4601e-05
13190.0 4.2739e-05
13210.0 4.11e-05
13230.0 3.9603e-05
13250.0 3.8313e-05
13270.0 3.7295e-05
13290.0 3.6504e-05
13310.0 3.5959e-05
13330.0 3.5711e-05
13350.0 3.5739e-05
13370.0 3.606e-05
13390.0 3.669e-05
13410.0 3.7541e-05
13430.0 3.8647e-05
13450.0 4.0013e-05
13470.0 4.153e-05
13490.0 4.3137e-05
13510.0 4.4949e-05
13530.0 4.6786e-05
13550.0 4.8544e-05
13570.0 5.0278e-05
13590.0 5.1968e-05
13610.0 5.3471e-05
13630.0 5.4783e-05
13650.0 5.5981e-05
13670.0 5.6975e-05
13690.0 5.7744e-05
13710.0 5.8339e-05
13730.0 5.8764e-05
13750.0 5.8976e-05
13770.0 5.9025e-05
13790.0 5.8917e-05
13810.0 5.8657e-05
13830.0 5.8273e-05
13850.0 5.7752e-05
13870.0 5.7096e-05
13890.0 5.6345e-05
13910.0 5.5499e-05
13930.0 5.4519e-05
13950.0 5.3449e-05
13970.0 5.2356e-05
13990.0 5.1165e-05
14010.0 4.9898e-05
14030.0 4.8635e-05
14050.0 4.7362e-05
14070.0 4.6018e-05
14090.0 4.473e-05
14110.0 4.352e-05
14130.0 4.2347e-05
14150.0 4.1242e-05
14170.0 4.03e-05
14190.0 3.9485e-05
14210.0 3.8794e-05
14230.0 3.8282e-05
14250.0 3.7951e-05
14270.0 3.779e-05
14290.0 3.7825e-05
14310.0 3.8036e-05
14330.0 3.8414e-05
14350.0 3.8971e-05
14370.0 3.9665e-05
14390.0 4.0454e-05
14410.0 4.1382e-05
14430.0 4.2402e-05
14450.0 4.3443e-05
14470.0 4.4523e-05
14490.0 4.5672e-05
14510.0 4.677e-05
14530.0 4.7814e-05
14550.0 4.8857e-05
14570.0 4.9858e-05
14590.0 5.0769e-05
14610.0 5.1651e-05
14630.0 5.2523e-05
14650.0 5.3336e-05
14670.0 5.412e-05
14690.0 5.4938e-05
14710.0 5.5799e-05
14730.0 5.6659e-05
14750.0 5.7612e-05
14770.0 5.8693e-05
14790.0 5.9865e-05
14810.0 6.1134e-05
14830.0 6.2639e-05
14850.0 6.4274e-05
14870.0 6.5979e-05
14890.0 6.782e-05
14910.0 6.9775e-05
14930.0 7.1654e-05
14950.0 7.341e-05
14970.0 7.5073e-05
14990.0 7.6468e-05
15010.0 7.7534e-05
15030.0 7.8323e-05
15050.0 7.8846e-05
15070.0 7.9101e-05
15090.0 7.919e-05
15110.0 7.9164e-05
15130.0 7.9065e-05
15150.0 7.8931e-05
15170.0 7.8773e-05
15190.0 7.8603e-05
15210.0 7.8436e-05
15230.0 7.827e-05
15250.0 7.8096e-05
15270.0 7.7926e-05
15290.0 7.7764e-05
15310.0 7.7598e-05
15330.0 7.743e-05
15350.0 7.7268e-05
15370.0 7.7108e-05
15390.0 7.694e-05
15410.0 7.6777e-05
15430.0 7.662e-05
15450.0 7.6459e-05
15470.0 7.6295e-05
15490.0 7.6139e-05
15510.0 7.5984e-05
15530.0 7.5824e-05
15550.0 7.5667e-05
15570.0 7.5515e-05
15590.0 7.5357e-05
15610.0 7.5197e-05
15630.0 7.5046e-05
15650.0 7.4894e-05
15670.0 7.4737e-05
15690.0 7.4584e-05
15710.0 7.4437e-05
15730.0 7.4282e-05
15750.0 7.4128e-05
15770.0 7.398e-05
15790.0 7.3831e-05
15810.0 7.3674e-05
15830.0 7.3524e-05
15850.0 7.3379e-05
15870.0 7.3228e-05
15890.0 7.3076e-05
15910.0 7.2932e-05
15930.0 7.2784e-05
15950.0 7.2631e-05
15970.0 7.2483e-05
15990.0 7.2339e-05
16010.0 7.2188e-05
16030.0 7.2036e-05
16050.0 7.1894e-05
16070.0 7.1747e-05
16090.0 7.1597e-05
16110.0 7.1451e-05
16130.0 7.1309e-05
16150.0 7.1156e-05
16170.0 7.1006e-05
16190.0 7.0863e-05
16210.0 7.0716e-05
16230.0 7.0565e-05
16250.0 7.042e-05
16270.0 7.0277e-05
16290.0 7.0126e-05
16310.0 6.9978e-05
16330.0 6.9834e-05
16350.0 6.9687e-05
16370.0 6.9532e-05
16390.0 6.9387e-05
16410.0 6.9242e-05
16430.0 6.9092e-05
16450.0 6.8943e-05
16470.0 6.88e-05
16490.0 6.865e-05
16510.0 6.8497e-05
16530.0 6.835e-05
16550.0 6.8204e-05
16570.0 6.805e-05
16590.0 6.7898e-05
16610.0 6.7754e-05
16630.0 6.7603e-05
16650.0 6.745e-05
16670.0 6.7302e-05
16690.0 6.7155e-05
16710.0 6.6997e-05
16730.0 6.6845e-05
16750.0 6.6697e-05
16770.0 6.6543e-05
16790.0 6.6387e-05
16810.0 6.6238e-05
16830.0 6.6087e-05
16850.0 6.593e-05
16870.0 6.5777e-05
16890.0 6.5627e-05
16910.0 6.547e-05
16930.0 6.531e-05
16950.0 6.5158e-05
16970.0 6.5004e-05
16990.0 6.4844e-05
17010.0 6.4689e-05
17030.0 6.4537e-05
17050.0 6.4377e-05
17070.0 6.4217e-05
17090.0 6.4062e-05
17110.0 6.3905e-05
17130.0 6.374e-05
17150.0 6.3582e-05
17170.0 6.3426e-05
17190.0 6.3264e-05
17210.0 6.3102e-05
17230.0 6.2946e-05
17250.0 6.2785e-05
17270.0 6.2618e-05
17290.0 6.2457e-05
17310.0 6.2298e-05
17330.0 6.2132e-05
17350.0 6.1965e-05
17370.0 6.1807e-05
17390.0 6.1644e-05
17410.0 6.1476e-05
17430.0 6.1313e-05
17450.0 6.1152e-05
17470.0 6.098e-05
17490.0 6.0812e-05
17510.0 6.0649e-05
17530.0 6.0482e-05
17550.0 6.0311e-05
17570.0 6.0145e-05
17590.0 5.9981e-05
17610.0 5.9809e-05
17630.0 5.9639e-05
17650.0 5.9474e-05
17670.0 5.9304e-05
17690.0 5.9126e-05
17710.0 5.8959e-05
17730.0 5.8791e-05
17750.0 5.8617e-05
17770.0 5.8445e-05
17790.0 5.8279e-05
17810.0 5.8104e-05
17830.0 5.7928e-05
17850.0 5.7757e-05
17870.0 5.7586e-05
17890.0 5.7407e-05
17910.0 5.7231e-05
17930.0 5.7063e-05
17950.0 5.6887e-05
17970.0 5.6709e-05
17990.0 5.6538e-05
18010.0 5.6365e-05
18030.0 5.6182e-05
18050.0 5.6006e-05
18070.0 5.5833e-05
18090.0 5.5654e-05
18110.0 5.5473e-05
18130.0 5.53e-05
18150.0 5.5125e-05
18170.0 5.4943e-05
18190.0 5.4765e-05
18210.0 5.4591e-05
18230.0 5.4409e-05
18250.0 5.4225e-05
18270.0 5.405e-05
18290.0 5.3872e-05
18310.0 5.3689e-05
18330.0 5.351e-05
18350.0 5.3335e-05
18370.0 5.3151e-05
18390.0 5.2968e-05
18410.0 5.2791e-05
18430.0 5.2611e-05
18450.0 5.2423e-05
18470.0 5.2243e-05
18490.0 5.2066e-05
18510.0 5.1882e-05
18530.0 5.1698e-05
18550.0 5.1521e-05
18570.0 5.1339e-05
18590.0 5.1151e-05
18610.0 5.097e-05
18630.0 5.079e-05
18650.0 5.0605e-05
18670.0 5.0418e-05
18690.0 5.0241e-05
18710.0 5.0058e-05
18730.0 4.9872e-05
18750.0 4.969e-05
18770.0 4.9511e-05
18790.0 4.9321e-05
18810.0 4.9136e-05
18830.0 4.8956e-05
18850.0 4.8772e-05
18870.0 4.8584e-05
18890.0 4.8403e-05
18910.0 4.8223e-05
18930.0 4.8035e-05
18950.0 4.785e-05
18970.0 4.767e-05
18990.0 4.7485e-05
19010.0 4.7293e-05
19030.0 4.7113e-05
19050.0 4.6932e-05
19070.0 4.6744e-05
19090.0 4.656e-05
19110.0 4.6381e-05
19130.0 4.6194e-05
19150.0 4.6006e-05
19170.0 4.5824e-05
19190.0 4.5641e-05
19210.0 4.5452e-05
19230.0 4.5266e-05
19250.0 4.5088e-05
19270.0 4.4902e-05
19290.0 4.4715e-05
19310.0 4.4535e-05
19330.0 4.4353e-05
19350.0 4.4162e-05
19370.0 4.3978e-05
19390.0 4.3797e-05
19410.0 4.3611e-05
19430.0 4.3423e-05
19450.0 4.3244e-05
19470.0 4.3062e-05
19490.0 4.2874e-05
19510.0 4.2691e-05
19530.0 4.2511e-05
19550.0 4.2324e-05
19570.0 4.2136e-05
19590.0 4.1956e-05
19610.0 4.1774e-05
19630.0 4.1587e-05
19650.0 4.1405e-05
19670.0 4.1227e-05
19690.0 4.104e-05
19710.0 4.0854e-05
19730.0 4.0675e-05
19750.0 4.0492e-05
19770.0 4.0303e-05
19790.0 4.0122e-05
19810.0 3.9943e-05
19830.0 3.9757e-05
19850.0 3.9571e-05
19870.0 3.9387e-05
19890.0 3.9191e-05
19910.0 3.8975e-05
19930.0 3.8743e-05
19950.0 3.8479e-05
19970.0 3.8153e-05
19990.0 3.7761e-05
20010.0 3.3596e-05
20030.0 3.311e-05
20050.0 3.254e-05
20070.0 3.1924e-05
20090.0 3.1261e-05
20110.0 3.051e-05
20130.0 2.9751e-05
20150.0 2.8998e-05
20170.0 2.8218e-05
20190.0 2.7426e-05
20210.0 2.6678e-05
20230.0 2.5949e-05
20250.0 2.5218e-05
20270.0 2.454e-05
20290.0 2.3921e-05
20310.0 2.3332e-05
20330.0 2.2783e-05
20350.0 2.2326e-05
20370.0 2.1921e-05
20390.0 2.1566e-05
20410.0 2.1279e-05
20430.0 2.1057e-05
20450.0 2.0882e-05
20470.0 2.0765e-05
20490.0 2.0702e-05
20510.0 2.0683e-05
20530.0 2.0709e-05
20550.0 2.0773e-05
20570.0 2.0866e-05
20590.0 2.0992e-05
20610.0 2.1144e-05
20630.0 2.1312e-05
20650.0 2.15e-05
20670.0 2.1715e-05
20690.0 2.1934e-05
20710.0 2.216e-05
20730.0 2.2405e-05
20750.0 2.266e-05
20770.0 2.291e-05
20790.0 2.3174e-05
20810.0 2.3452e-05
20830.0 2.3729e-05
20850.0 2.4008e-05
20870.0 2.4306e-05
20890.0 2.461e-05
20910.0 2.4903e-05
20930.0 2.5207e-05
20950.0 2.5522e-05
20970.0 2.583e-05
20990.0 2.6133e-05
21010.0 2.6452e-05
21030.0 2.6763e-05
21050.0 2.7061e-05
21070.0 2.7358e-05
21090.0 2.7656e-05
21110.0 2.7927e-05
21130.0 2.8183e-05
21150.0 2.843e-05
21170.0 2.8654e-05
21190.0 2.8847e-05
21210.0 2.902e-05
21230.0 2.9164e-05
21250.0 2.9267e-05
21270.0 2.9332e-05
21290.0 2.9356e-05
21310.0 2.9333e-05
21330.0 2.9264e-05
21350.0 2.9142e-05
21370.0 2.8964e-05
21390.0 2.8737e-05
21410.0 2.8459e-05
21430.0 2.8107e-05
21450.0 2.7713e-05
21470.0 2.7283e-05
21490.0 2.6796e-05
21510.0 2.6263e-05
21530.0 2.5721e-05
21550.0 2.5153e-05
21570.0 2.4547e-05
21590.0 2.3952e-05
21610.0 2.3377e-05
21630.0 2.28e-05
21650.0 2.2238e-05
21670.0 2.175e-05
21690.0 2.13e-05
21710.0 2.0895e-05
21730.0 2.0563e-05
21750.0 2.0307e-05
21770.0 2.0112e-05
21790.0 2e-05
21810.0 1.9968e-05
21830.0 2.0013e-05
21850.0 2.0138e-05
21870.0 2.0333e-05
21890.0 2.0585e-05
21910.0 2.0908e-05
21930.0 2.1287e-05
21950.0 2.1698e-05
21970.0 2.2153e-05
21990.0 2.2664e-05
22010.0 2.3174e-05
22030.0 2.3692e-05
22050.0 2.4237e-05
22070.0 2.4784e-05
22090.0 2.5302e-05
22110.0 2.5825e-05
22130.0 2.6346e-05
22150.0 2.6834e-05
22170.0 2.7293e-05
22190.0 2.7748e-05
22210.0 2.8172e-05
22230.0 2.8544e-05
22250.0 2.8895e-05
22270.0 2.9219e-05
22290.0 2.9495e-05
22310.0 2.9732e-05
22330.0 2.9941e-05
22350.0 3.0102e-05
22370.0 3.0216e-05
22390.0 3.0287e-05
22410.0 3.031e-05
22430.0 3.0281e-05
22450.0 3.0203e-05
22470.0 3.0068e-05
22490.0 2.9879e-05
22510.0 2.9643e-05
22530.0 2.9341e-05
22550.0 2.8973e-05
22570.0 2.8566e-05
22590.0 2.8107e-05
22610.0 2.7578e-05
22630.0 2.7006e-05
22650.0 2.6415e-05
22670.0 2.5761e-05
22690.0 2.5063e-05
22710.0 2.4358e-05
22730.0 2.3633e-05
