#lamb flux
1010.0 3.3927e-06
1030.0 3.6157e-06
1050.0 4.0647e-06
1070.0 4.5683e-06
1090.0 5.0948e-06
1110.0 5.6362e-06
1130.0 6.1804e-06
1150.0 6.7496e-06
1170.0 7.3316e-06
1190.0 7.8697e-06
1210.0 8.4004e-06
1230.0 8.9302e-06
1250.0 9.4326e-06
1270.0 9.8903e-06
1290.0 1.0349e-05
1310.0 1.0776e-05
1330.0 1.115e-05
1350.0 1.1507e-05
1370.0 1.1863e-05
1390.0 1.2196e-05
1410.0 1.2514e-05
1430.0 1.2865e-05
1450.0 1.3236e-05
1470.0 1.3621e-05
1490.0 1.4053e-05
1510.0 1.4562e-05
1530.0 1.5102e-05
1550.0 1.5703e-05
1570.0 1.6393e-05
1590.0 1.7161e-05
1610.0 1.7993e-05
1630.0 1.8942e-05
1650.0 1.9994e-05
1670.0 2.1117e-05
1690.0 2.2319e-05
1710.0 2.3627e-05
1730.0 2.5014e-05
1750.0 2.643e-05
1770.0 2.7917e-05
1790.0 2.9457e-05
1810.0 3.0997e-05
1830.0 3.2526e-05
1850.0 3.4078e-05
1870.0 3.5569e-05
1890.0 3.6967e-05
1910.0 3.829e-05
1930.0 3.9518e-05
1950.0 4.0577e-05
1970.0 4.1475e-05
1990.0 4.2236e-05
2010.0 4.2807e-05
2030.0 4.3169e-05
2050.0 4.3372e-05
2070.0 4.3414e-05
2090.0 4.3241e-05
2110.0 4.291e-05
2130.0 4.2457e-05
2150.0 4.1868e-05
2170.0 4.1149e-05
2190.0 4.0374e-05
2210.0 3.9546e-05
2230.0 3.8658e-05
2250.0 3.7756e-05
2270.0 3.6883e-05
2290.0 3.6018e-05
2310.0 3.5174e-05
2330.0 3.4401e-05
2350.0 3.37e-05
2370.0 3.3061e-05
2390.0 3.252e-05
2410.0 3.2106e-05
2430.0 3.18e-05
2450.0 3.162e-05
2470.0 3.1608e-05
2490.0 3.1784e-05
2510.0 3.2121e-05
2530.0 3.2721e-05
2550.0 3.3719e-05
2570.0 3.5224e-05
2590.0 3.7406e-05
2610.0 4.0779e-05
2630.0 4.5478e-05
2650.0 5.1334e-05
2670.0 5.8509e-05
2690.0 6.6872e-05
2710.0 7.5466e-05
2730.0 8.3804e-05
2750.0 9.201e-05
2770.0 9.9452e-05
2790.0 0.00010601
2810.0 0.00011216
2830.0 0.0001183
2850.0 0.00012431
2870.0 0.00013059
2890.0 0.00013749
2910.0 0.00014492
2930.0 0.00015271
2950.0 0.00016122
2970.0 0.00017043
2990.0 0.00018004
3010.0 0.00021549
3030.0 0.00022782
3050.0 0.00024069
3070.0 0.00025351
3090.0 0.00026648
3110.0 0.00027888
3130.0 0.00028973
3150.0 0.0002986
3170.0 0.00030424
3190.0 0.00031389
3210.0 0.00034621
3230.0 0.00039619
3250.0 0.00041697
3270.0 0.00039509
3290.0 0.00036036
3310.0 0.00034224
3330.0 0.00033483
3350.0 0.00033427
3370.0 0.00033604
3390.0 0.00034016
3410.0 0.00034231
3430.0 0.00033162
3450.0 0.0003278
3470.0 0.00032674
3490.0 0.00036583
3510.0 0.00048169
3530.0 0.00059762
3550.0 0.00068097
3570.0 0.00076007
3590.0 0.00080576
3610.0 0.00080051
3630.0 0.00078611
3650.0 0.0008264
3670.0 0.00094316
3690.0 0.0010856
3710.0 0.0012112
3730.0 0.0013159
3750.0 0.0014091
3770.0 0.0013922
3790.0 0.0012956
3810.0 0.001199
3830.0 0.0011052
3850.0 0.0010672
3870.0 0.0011181
3890.0 0.0012279
3910.0 0.0013404
3930.0 0.0014623
3950.0 0.0016401
3970.0 0.0017685
3990.0 0.001714
4010.0 0.0015556
4030.0 0.0013669
4050.0 0.0012519
4070.0 0.0012025
4090.0 0.0011784
4110.0 0.0011946
4130.0 0.0011959
4150.0 0.0012012
4170.0 0.0012513
4190.0 0.0013355
4210.0 0.0013341
4230.0 0.0013147
4250.0 0.0013181
4270.0 0.0013563
4290.0 0.0014271
4310.0 0.0014944
4330.0 0.0014549
4350.0 0.0013269
4370.0 0.0012011
4390.0 0.0010761
4410.0 0.00095145
4430.0 0.00090213
4450.0 0.00092038
4470.0 0.0009593
4490.0 0.0010258
4510.0 0.0011705
4530.0 0.0014706
4550.0 0.0019162
4570.0 0.0022396
4590.0 0.0024714
4610.0 0.0028103
4630.0 0.0030701
4650.0 0.0029721
4670.0 0.0025979
4690.0 0.002205
4710.0 0.0019338
4730.0 0.0017574
4750.0 0.0015849
4770.0 0.0014561
4790.0 0.0014994
4810.0 0.0016179
4830.0 0.0016651
4850.0 0.0016286
4870.0 0.0016685
4890.0 0.0017836
4910.0 0.0018885
4930.0 0.0019563
4950.0 0.0019679
4970.0 0.0018888
4990.0 0.001724
5010.0 0.0015432
5030.0 0.0013921
5050.0 0.0012918
5070.0 0.0012238
5090.0 0.0011711
5110.0 0.0011551
5130.0 0.0011547
5150.0 0.0011738
5170.0 0.0012604
5190.0 0.0014002
5210.0 0.0015784
5230.0 0.0017315
5250.0 0.001859
5270.0 0.002002
5290.0 0.0021505
5310.0 0.0022372
5330.0 0.0022338
5350.0 0.0021721
5370.0 0.0021519
5390.0 0.0022257
5410.0 0.0023726
5430.0 0.0025253
5450.0 0.0026517
5470.0 0.0027277
5490.0 0.0027269
5510.0 0.0026893
5530.0 0.0026498
5550.0 0.0026109
5570.0 0.0025536
5590.0 0.0024863
5610.0 0.002405
5630.0 0.0022834
5650.0 0.0021173
5670.0 0.0019656
5690.0 0.0018748
5710.0 0.0018227
5730.0 0.0017617
5750.0 0.0017192
5770.0 0.00171
5790.0 0.00172
5810.0 0.0017134
5830.0 0.0017098
5850.0 0.0017064
5870.0 0.0016652
5890.0 0.001616
5910.0 0.001556
5930.0 0.001436
5950.0 0.0012961
5970.0 0.0011962
5990.0 0.0011469
6010.0 0.0011184
6030.0 0.0010809
6050.0 0.0010621
6070.0 0.0011046
6090.0 0.0011672
6110.0 0.0011976
6130.0 0.0011875
6150.0 0.0011645
6170.0 0.001152
6190.0 0.0011383
6210.0 0.0010993
6230.0 0.0010252
6250.0 0.0009534
6270.0 0.00091062
6290.0 0.00088294
6310.0 0.00090267
6330.0 0.00097876
6350.0 0.0010744
6370.0 0.0011431
6390.0 0.0011987
6410.0 0.0012649
6430.0 0.0013157
6450.0 0.0013514
6470.0 0.0013861
6490.0 0.0014202
6510.0 0.0014442
6530.0 0.0014539
6550.0 0.0014622
6570.0 0.0014422
6590.0 0.0013893
6610.0 0.0013381
6630.0 0.0012936
6650.0 0.0012359
6670.0 0.0011677
6690.0 0.0011144
6710.0 0.0010827
6730.0 0.0010509
6750.0 0.0010276
6770.0 0.0010268
6790.0 0.0010276
6810.0 0.0010101
6830.0 0.00098987
6850.0 0.00099592
6870.0 0.0010013
6890.0 0.000984
6910.0 0.00097487
6930.0 0.00096931
6950.0 0.00095174
6970.0 0.00092622
6990.0 0.00090005
7010.0 0.00087762
7030.0 0.0008497
7050.0 0.00080081
7070.0 0.00074829
7090.0 0.00073838
7110.0 0.00076538
7130.0 0.00079491
7150.0 0.0008162
7170.0 0.00084036
7190.0 0.00086064
7210.0 0.0008574
7230.0 0.00085628
7250.0 0.00087189
7270.0 0.00086433
7290.0 0.00084699
7310.0 0.00084751
7330.0 0.00087276
7350.0 0.00091048
7370.0 0.00093471
7390.0 0.00095144
7410.0 0.00096842
7430.0 0.00096876
7450.0 0.00095459
7470.0 0.00093689
7490.0 0.00089888
7510.0 0.00086119
7530.0 0.00085132
7550.0 0.00084199
7570.0 0.00083318
7590.0 0.00083639
7610.0 0.00083736
7630.0 0.00084294
7650.0 0.00087611
7670.0 0.00092201
7690.0 0.00096581
7710.0 0.00099824
7730.0 0.0010277
7750.0 0.0010573
7770.0 0.0010856
7790.0 0.001111
7810.0 0.0011201
7830.0 0.0010961
7850.0 0.0010576
7870.0 0.0010181
7890.0 0.00098298
7910.0 0.00096958
7930.0 0.00095485
7950.0 0.00093428
7970.0 0.00091059
7990.0 0.00089888
8010.0 0.00084512
8030.0 0.00084123
8050.0 0.00083575
8070.0 0.00082478
8090.0 0.00081495
8110.0 0.00081156
8130.0 0.00081362
8150.0 0.00080937
8170.0 0.0008007
8190.0 0.00077765
8210.0 0.00073689
8230.0 0.00069882
8250.0 0.00068129
8270.0 0.00065411
8290.0 0.00060313
8310.0 0.00055305
8330.0 0.00052082
8350.0 0.00050483
8370.0 0.00052075
8390.0 0.00056133
8410.0 0.00059937
8430.0 0.00063717
8450.0 0.00068587
8470.0 0.00072909
8490.0 0.0007765
8510.0 0.00082376
8530.0 0.00087012
8550.0 0.00090743
8570.0 0.00093499
8590.0 0.00095654
8610.0 0.00097795
8630.0 0.00098259
8650.0 0.00096509
8670.0 0.00096712
8690.0 0.0010014
8710.0 0.0010458
8730.0 0.0010602
8750.0 0.0010443
8770.0 0.0010449
8790.0 0.001044
8810.0 0.0010151
8830.0 0.00094189
8850.0 0.00085165
8870.0 0.00078594
8890.0 0.00076125
8910.0 0.00073352
8930.0 0.00068329
8950.0 0.00063963
8970.0 0.00062578
8990.0 0.00063257
9010.0 0.00063136
9030.0 0.00062432
9050.0 0.00061925
9070.0 0.00061585
9090.0 0.0006127
9110.0 0.00060962
9130.0 0.00060655
9150.0 0.00060353
9170.0 0.00060049
9190.0 0.00059761
9210.0 0.00059496
9230.0 0.00059189
9250.0 0.00058891
9270.0 0.000586
9290.0 0.00058314
9310.0 0.00058032
9330.0 0.00057752
9350.0 0.00057478
9370.0 0.00057206
9390.0 0.00056936
9410.0 0.00056668
9430.0 0.00056393
9450.0 0.00056068
9470.0 0.00055764
9490.0 0.00055563
9510.0 0.00055334
9530.0 0.00055103
9550.0 0.00054861
9570.0 0.00054617
9590.0 0.00054376
9610.0 0.00054135
9630.0 0.00053891
9650.0 0.0005365
9670.0 0.00053416
9690.0 0.00053179
9710.0 0.00052942
9730.0 0.00052711
9750.0 0.0005248
9770.0 0.00052244
9790.0 0.00052015
9810.0 0.00051789
9830.0 0.00051559
9850.0 0.00051322
9870.0 0.00051101
9890.0 0.00050879
9910.0 0.00050652
9930.0 0.00050429
9950.0 0.00050157
9970.0 0.00049945
9990.0 0.00049727
10010.0 0.00049505
10030.0 0.00049282
10050.0 0.00049064
10070.0 0.00048847
10090.0 0.0004863
10110.0 0.00048386
10130.0 0.00048056
10150.0 0.00047847
10170.0 0.00047656
10190.0 0.00047438
10210.0 0.00047226
10230.0 0.0004701
10250.0 0.00046774
10270.0 0.00046536
10290.0 0.00046308
10310.0 0.00046065
10330.0 0.00045808
10350.0 0.00045566
10370.0 0.00045324
10390.0 0.00045065
10410.0 0.00044806
10430.0 0.00044562
10450.0 0.00044302
10470.0 0.00044031
10490.0 0.00043771
10510.0 0.0004351
10530.0 0.00043223
10550.0 0.00042943
10570.0 0.00042675
10590.0 0.0004239
10610.0 0.00042096
10630.0 0.00041815
10650.0 0.00041528
10670.0 0.00041219
10690.0 0.00040916
10710.0 0.00040619
10730.0 0.00040305
10750.0 0.00039975
10770.0 0.00039668
10790.0 0.00039351
10810.0 0.00039017
10830.0 0.00038686
10850.0 0.00038365
10870.0 0.00038015
10890.0 0.00037661
10910.0 0.00037321
10930.0 0.00036973
10950.0 0.00036608
10970.0 0.00036251
10990.0 0.00035908
11010.0 0.0003532
11030.0 0.00034936
11050.0 0.00034576
11070.0 0.00034221
11090.0 0.00033855
11110.0 0.00033523
11130.0 0.00033208
11150.0 0.00032894
11170.0 0.00032593
11190.0 0.00032322
11210.0 0.00032058
11230.0 0.00031802
11250.0 0.00031571
11270.0 0.00031359
11290.0 0.00031153
11310.0 0.00030961
11330.0 0.00030794
11350.0 0.00030632
11370.0 0.00030474
11390.0 0.00030326
11410.0 0.00030183
11430.0 0.00030028
11450.0 0.00029871
11470.0 0.0002971
11490.0 0.00029535
11510.0 0.00029339
11530.0 0.00029135
11550.0 0.00028916
11570.0 0.0002867
11590.0 0.00028407
11610.0 0.00028135
11630.0 0.00027835
11650.0 0.00027508
11670.0 0.00027178
11690.0 0.0002683
11710.0 0.00026454
11730.0 0.00026063
11750.0 0.00025671
11770.0 0.00025247
11790.0 0.00024801
11810.0 0.00024353
11830.0 0.00023891
11850.0 0.00023393
11870.0 0.00022898
11890.0 0.00022411
11910.0 0.00021906
11930.0 0.00021396
11950.0 0.00020908
11970.0 0.00020425
11990.0 0.00019934
12010.0 0.00019471
12030.0 0.00019035
12050.0 0.00018606
12070.0 0.00018192
12090.0 0.00017823
12110.0 0.00017473
12130.0 0.0001714
12150.0 0.0001684
12170.0 0.00016574
12190.0 0.00016322
12210.0 0.00016103
12230.0 0.00015921
12250.0 0.00015767
12270.0 0.0001564
12290.0 0.00015546
12310.0 0.00015482
12330.0 0.00015442
12350.0 0.00015429
12370.0 0.00015435
12390.0 0.0001546
12410.0 0.00015505
12430.0 0.00015558
12450.0 0.00015617
12470.0 0.00015687
12490.0 0.00015759
12510.0 0.00015828
12530.0 0.00015898
12550.0 0.00015969
12570.0 0.0001603
12590.0 0.00016083
12610.0 0.00016131
12630.0 0.00016165
12650.0 0.00016181
12670.0 0.00016183
12690.0 0.00016166
12710.0 0.00016127
12730.0 0.00016068
12750.0 0.00015985
12770.0 0.00015878
12790.0 0.00015753
12810.0 0.00015605
12830.0 0.00015436
12850.0 0.00015258
12870.0 0.00015069
12890.0 0.00014866
12910.0 0.00014661
12930.0 0.00014458
12950.0 0.00014251
12970.0 0.00014044
12990.0 0.0001385
13010.0 0.00013662
13030.0 0.00013478
13050.0 0.00013303
13070.0 0.00013141
13090.0 0.00012982
13110.0 0.00012829
13130.0 0.00012687
13150.0 0.00012552
13170.0 0.00012418
13190.0 0.00012295
13210.0 0.0001218
13230.0 0.00012068
13250.0 0.00011961
13270.0 0.00011863
13290.0 0.00011767
13310.0 0.00011674
13330.0 0.00011586
13350.0 0.00011501
13370.0 0.00011416
13390.0 0.0001133
13410.0 0.00011247
13430.0 0.00011163
13450.0 0.00011074
13470.0 0.00010985
13490.0 0.00010894
13510.0 0.00010796
13530.0 0.00010694
13550.0 0.00010593
13570.0 0.00010487
13590.0 0.00010375
13610.0 0.00010264
13630.0 0.00010153
13650.0 0.00010037
13670.0 9.9208e-05
13690.0 9.8077e-05
13710.0 9.6934e-05
13730.0 9.5749e-05
13750.0 9.4632e-05
13770.0 9.3536e-05
13790.0 9.2423e-05
13810.0 9.1332e-05
13830.0 9.0303e-05
13850.0 8.9266e-05
13870.0 8.8238e-05
13890.0 8.7274e-05
13910.0 8.6351e-05
13930.0 8.5435e-05
13950.0 8.457e-05
13970.0 8.379e-05
13990.0 8.3035e-05
14010.0 8.2318e-05
14030.0 8.1669e-05
14050.0 8.1068e-05
14070.0 8.048e-05
14090.0 7.9945e-05
14110.0 7.9457e-05
14130.0 7.8986e-05
14150.0 7.8532e-05
14170.0 7.8119e-05
14190.0 7.7723e-05
14210.0 7.733e-05
14230.0 7.6956e-05
14250.0 7.6605e-05
14270.0 7.625e-05
14290.0 7.5899e-05
14310.0 7.5572e-05
14330.0 7.5249e-05
14350.0 7.4923e-05
14370.0 7.4608e-05
14390.0 7.4309e-05
14410.0 7.4001e-05
14430.0 7.3696e-05
14450.0 7.3407e-05
14470.0 7.3122e-05
14490.0 7.2826e-05
14510.0 7.2545e-05
14530.0 7.2274e-05
14550.0 7.1993e-05
14570.0 7.1708e-05
14590.0 7.1431e-05
14610.0 7.1143e-05
14630.0 7.0837e-05
14650.0 7.0541e-05
14670.0 7.0257e-05
14690.0 6.9978e-05
14710.0 6.9728e-05
14730.0 6.9547e-05
14750.0 6.9429e-05
14770.0 6.9407e-05
14790.0 6.951e-05
14810.0 6.9749e-05
14830.0 7.0173e-05
14850.0 7.0785e-05
14870.0 7.1564e-05
14890.0 7.2531e-05
14910.0 7.3684e-05
14930.0 7.4908e-05
14950.0 7.6152e-05
14970.0 7.7417e-05
14990.0 7.8571e-05
15010.0 7.9546e-05
15030.0 8.0362e-05
15050.0 8.1015e-05
15070.0 8.148e-05
15090.0 8.1831e-05
15110.0 8.2105e-05
15130.0 8.2326e-05
15150.0 8.252e-05
15170.0 8.2703e-05
15190.0 8.2883e-05
15210.0 8.3064e-05
15230.0 8.3247e-05
15250.0 8.3434e-05
15270.0 8.3625e-05
15290.0 8.382e-05
15310.0 8.4019e-05
15330.0 8.4221e-05
15350.0 8.4428e-05
15370.0 8.4638e-05
15390.0 8.4851e-05
15410.0 8.5069e-05
15430.0 8.529e-05
15450.0 8.5515e-05
15470.0 8.5743e-05
15490.0 8.5975e-05
15510.0 8.6211e-05
15530.0 8.6449e-05
15550.0 8.6691e-05
15570.0 8.6937e-05
15590.0 8.7185e-05
15610.0 8.7437e-05
15630.0 8.7692e-05
15650.0 8.795e-05
15670.0 8.821e-05
15690.0 8.8474e-05
15710.0 8.8741e-05
15730.0 8.901e-05
15750.0 8.9282e-05
15770.0 8.9557e-05
15790.0 8.9834e-05
15810.0 9.0114e-05
15830.0 9.0396e-05
15850.0 9.0681e-05
15870.0 9.0967e-05
15890.0 9.1256e-05
15910.0 9.1547e-05
15930.0 9.1841e-05
15950.0 9.2135e-05
15970.0 9.2432e-05
15990.0 9.2731e-05
16010.0 9.3031e-05
16030.0 9.3333e-05
16050.0 9.3637e-05
16070.0 9.3941e-05
16090.0 9.4247e-05
16110.0 9.4555e-05
16130.0 9.4864e-05
16150.0 9.5173e-05
16170.0 9.5483e-05
16190.0 9.5795e-05
16210.0 9.6106e-05
16230.0 9.6419e-05
16250.0 9.6732e-05
16270.0 9.7046e-05
16290.0 9.7359e-05
16310.0 9.7673e-05
16330.0 9.7988e-05
16350.0 9.8302e-05
16370.0 9.8615e-05
16390.0 9.8929e-05
16410.0 9.9243e-05
16430.0 9.9555e-05
16450.0 9.9868e-05
16470.0 0.00010018
16490.0 0.00010049
16510.0 0.0001008
16530.0 0.00010111
16550.0 0.00010142
16570.0 0.00010172
16590.0 0.00010203
16610.0 0.00010233
16630.0 0.00010263
16650.0 0.00010293
16670.0 0.00010323
16690.0 0.00010353
16710.0 0.00010382
16730.0 0.00010411
16750.0 0.0001044
16770.0 0.00010469
16790.0 0.00010498
16810.0 0.00010526
16830.0 0.00010554
16850.0 0.00010581
16870.0 0.00010609
16890.0 0.00010636
16910.0 0.00010662
16930.0 0.00010689
16950.0 0.00010715
16970.0 0.0001074
16990.0 0.00010766
17010.0 0.0001079
17030.0 0.00010815
17050.0 0.00010839
17070.0 0.00010863
17090.0 0.00010886
17110.0 0.00010909
17130.0 0.00010931
17150.0 0.00010953
17170.0 0.00010974
17190.0 0.00010995
17210.0 0.00011015
17230.0 0.00011035
17250.0 0.00011055
17270.0 0.00011074
17290.0 0.00011092
17310.0 0.0001111
17330.0 0.00011127
17350.0 0.00011144
17370.0 0.0001116
17390.0 0.00011176
17410.0 0.00011191
17430.0 0.00011205
17450.0 0.00011219
17470.0 0.00011232
17490.0 0.00011245
17510.0 0.00011257
17530.0 0.00011268
17550.0 0.00011279
17570.0 0.00011289
17590.0 0.00011299
17610.0 0.00011307
17630.0 0.00011316
17650.0 0.00011323
17670.0 0.0001133
17690.0 0.00011336
17710.0 0.00011342
17730.0 0.00011346
17750.0 0.00011351
17770.0 0.00011354
17790.0 0.00011357
17810.0 0.00011359
17830.0 0.0001136
17850.0 0.00011361
17870.0 0.00011361
17890.0 0.0001136
17910.0 0.00011359
17930.0 0.00011356
17950.0 0.00011354
17970.0 0.0001135
17990.0 0.00011346
18010.0 0.00011341
18030.0 0.00011335
18050.0 0.00011329
18070.0 0.00011321
18090.0 0.00011314
18110.0 0.00011305
18130.0 0.00011296
18150.0 0.00011286
18170.0 0.00011275
18190.0 0.00011264
18210.0 0.00011252
18230.0 0.00011239
18250.0 0.00011225
18270.0 0.00011211
18290.0 0.00011196
18310.0 0.00011181
18330.0 0.00011165
18350.0 0.00011148
18370.0 0.0001113
18390.0 0.00011112
18410.0 0.00011093
18430.0 0.00011073
18450.0 0.00011053
18470.0 0.00011032
18490.0 0.0001101
18510.0 0.00010988
18530.0 0.00010965
18550.0 0.00010942
18570.0 0.00010917
18590.0 0.00010893
18610.0 0.00010867
18630.0 0.00010841
18650.0 0.00010815
18670.0 0.00010787
18690.0 0.0001076
18710.0 0.00010731
18730.0 0.00010702
18750.0 0.00010673
18770.0 0.00010643
18790.0 0.00010612
18810.0 0.00010581
18830.0 0.00010549
18850.0 0.00010517
18870.0 0.00010484
18890.0 0.00010451
18910.0 0.00010417
18930.0 0.00010383
18950.0 0.00010348
18970.0 0.00010313
18990.0 0.00010277
19010.0 0.00010241
19030.0 0.00010204
19050.0 0.00010167
19070.0 0.00010129
19090.0 0.00010091
19110.0 0.00010053
19130.0 0.00010014
19150.0 9.9749e-05
19170.0 9.9353e-05
19190.0 9.8953e-05
19210.0 9.8549e-05
19230.0 9.8142e-05
19250.0 9.7731e-05
19270.0 9.7317e-05
19290.0 9.6899e-05
19310.0 9.6478e-05
19330.0 9.6053e-05
19350.0 9.5626e-05
19370.0 9.5195e-05
19390.0 9.4762e-05
19410.0 9.4326e-05
19430.0 9.3887e-05
19450.0 9.3445e-05
19470.0 9.3001e-05
19490.0 9.2554e-05
19510.0 9.2105e-05
19530.0 9.1654e-05
19550.0 9.12e-05
19570.0 9.0744e-05
19590.0 9.0287e-05
19610.0 8.9827e-05
19630.0 8.9366e-05
19650.0 8.8903e-05
19670.0 8.8438e-05
19690.0 8.7971e-05
19710.0 8.7503e-05
19730.0 8.7034e-05
19750.0 8.6563e-05
19770.0 8.6091e-05
19790.0 8.5618e-05
19810.0 8.5143e-05
19830.0 8.4666e-05
19850.0 8.4184e-05
19870.0 8.3695e-05
19890.0 8.319e-05
19910.0 8.2656e-05
19930.0 8.2079e-05
19950.0 8.1439e-05
19970.0 8.0699e-05
19990.0 7.9842e-05
20010.0 7.8883e-05
20030.0 7.7782e-05
20050.0 7.6548e-05
20070.0 7.5243e-05
20090.0 7.3879e-05
20110.0 7.2412e-05
20130.0 7.0955e-05
20150.0 6.9532e-05
20170.0 6.8095e-05
20190.0 6.6664e-05
20210.0 6.5304e-05
20230.0 6.3977e-05
20250.0 6.2651e-05
20270.0 6.1388e-05
20290.0 6.0193e-05
20310.0 5.9024e-05
20330.0 5.7883e-05
20350.0 5.6847e-05
20370.0 5.5856e-05
20390.0 5.4903e-05
20410.0 5.402e-05
20430.0 5.3209e-05
20450.0 5.243e-05
20470.0 5.171e-05
20490.0 5.1057e-05
20510.0 5.0453e-05
20530.0 4.9889e-05
20550.0 4.9378e-05
20570.0 4.8913e-05
20590.0 4.848e-05
20610.0 4.8081e-05
20630.0 4.7712e-05
20650.0 4.7367e-05
20670.0 4.7041e-05
20690.0 4.673e-05
20710.0 4.6428e-05
20730.0 4.6133e-05
20750.0 4.5838e-05
20770.0 4.554e-05
20790.0 4.5236e-05
20810.0 4.4922e-05
20830.0 4.4596e-05
20850.0 4.4256e-05
20870.0 4.3897e-05
20890.0 4.352e-05
20910.0 4.3129e-05
20930.0 4.2718e-05
20950.0 4.2285e-05
20970.0 4.184e-05
20990.0 4.1382e-05
21010.0 4.0902e-05
21030.0 4.041e-05
21050.0 3.9915e-05
21070.0 3.9406e-05
21090.0 3.8883e-05
21110.0 3.8366e-05
21130.0 3.7849e-05
21150.0 3.7322e-05
21170.0 3.6799e-05
21190.0 3.6287e-05
21210.0 3.5769e-05
21230.0 3.5251e-05
21250.0 3.475e-05
21270.0 3.4257e-05
21290.0 3.3765e-05
21310.0 3.3284e-05
21330.0 3.2824e-05
21350.0 3.2367e-05
21370.0 3.1919e-05
21390.0 3.1492e-05
21410.0 3.1079e-05
21430.0 3.067e-05
21450.0 3.0284e-05
21470.0 2.9917e-05
21490.0 2.9562e-05
21510.0 2.9222e-05
21530.0 2.8903e-05
21550.0 2.8598e-05
21570.0 2.8305e-05
21590.0 2.8028e-05
21610.0 2.7765e-05
21630.0 2.7513e-05
21650.0 2.727e-05
21670.0 2.7039e-05
21690.0 2.6815e-05
21710.0 2.6598e-05
21730.0 2.6386e-05
21750.0 2.6178e-05
21770.0 2.5973e-05
21790.0 2.577e-05
21810.0 2.5569e-05
21830.0 2.5369e-05
21850.0 2.5169e-05
21870.0 2.497e-05
21890.0 2.4771e-05
21910.0 2.4571e-05
21930.0 2.4371e-05
21950.0 2.417e-05
21970.0 2.3969e-05
21990.0 2.3765e-05
22010.0 2.356e-05
22030.0 2.3354e-05
22050.0 2.3145e-05
22070.0 2.2932e-05
22090.0 2.2718e-05
22110.0 2.25e-05
22130.0 2.2276e-05
22150.0 2.205e-05
22170.0 2.182e-05
22190.0 2.1583e-05
22210.0 2.134e-05
22230.0 2.1097e-05
22250.0 2.0848e-05
22270.0 2.0592e-05
22290.0 2.0335e-05
22310.0 2.0076e-05
22330.0 1.9806e-05
22350.0 1.9535e-05
22370.0 1.9265e-05
22390.0 1.8989e-05
22410.0 1.8706e-05
22430.0 1.8428e-05
22450.0 1.8149e-05
22470.0 1.7863e-05
22490.0 1.7578e-05
22510.0 1.7299e-05
22530.0 1.7013e-05
22550.0 1.6725e-05
22570.0 1.6446e-05
22590.0 1.617e-05
22610.0 1.5892e-05
22630.0 1.5621e-05
22650.0 1.5362e-05
22670.0 1.5102e-05
22690.0 1.4849e-05
22710.0 1.4609e-05
22730.0 1.4377e-05
22750.0 1.4146e-05
22770.0 1.393e-05
22790.0 1.3727e-05
