#lamb flux
1010.0 3.4907e-05
1030.0 3.8208e-05
1050.0 4.1626e-05
1070.0 4.5474e-05
1090.0 4.9956e-05
1110.0 5.4532e-05
1130.0 5.9124e-05
1150.0 6.3931e-05
1170.0 6.8899e-05
1190.0 7.3637e-05
1210.0 7.8481e-05
1230.0 8.3545e-05
1250.0 8.8559e-05
1270.0 9.3523e-05
1290.0 9.8855e-05
1310.0 0.00010429
1330.0 0.00010962
1350.0 0.0001151
1370.0 0.00012082
1390.0 0.00012648
1410.0 0.00013203
1430.0 0.00013783
1450.0 0.00014362
1470.0 0.0001492
1490.0 0.00015479
1510.0 0.0001606
1530.0 0.00016603
1550.0 0.00017128
1570.0 0.00017658
1590.0 0.00018174
1610.0 0.00018651
1630.0 0.00019123
1650.0 0.00019592
1670.0 0.00020025
1690.0 0.00020435
1710.0 0.00020847
1730.0 0.00021245
1750.0 0.00021598
1770.0 0.00021952
1790.0 0.00022305
1810.0 0.00022635
1830.0 0.00022951
1850.0 0.00023295
1870.0 0.00023629
1890.0 0.00023953
1910.0 0.00024296
1930.0 0.00024664
1950.0 0.00025027
1970.0 0.00025403
1990.0 0.00025818
2010.0 0.00026246
2030.0 0.0002668
2050.0 0.00027148
2070.0 0.00027647
2090.0 0.00028135
2110.0 0.00028636
2130.0 0.0002916
2150.0 0.00029681
2170.0 0.00030182
2190.0 0.00030697
2210.0 0.00031208
2230.0 0.00031688
2250.0 0.0003215
2270.0 0.00032614
2290.0 0.00033042
2310.0 0.00033426
2330.0 0.000338
2350.0 0.0003415
2370.0 0.00034454
2390.0 0.00034734
2410.0 0.00035008
2430.0 0.00035241
2450.0 0.00035438
2470.0 0.00035622
2490.0 0.00035796
2510.0 0.0003595
2530.0 0.00036178
2550.0 0.00036619
2570.0 0.00037427
2590.0 0.00038797
2610.0 0.00041199
2630.0 0.00044789
2650.0 0.00049397
2670.0 0.00055092
2690.0 0.00061654
2710.0 0.0006808
2730.0 0.00073768
2750.0 0.00078537
2770.0 0.00081555
2790.0 0.00082581
2810.0 0.00081752
2830.0 0.00079029
2850.0 0.0007496
2870.0 0.00069914
2890.0 0.00063979
2910.0 0.00057565
2930.0 0.00051118
2950.0 0.00044284
2970.0 0.00037189
2990.0 0.00030212
3010.0 0.00036717
3030.0 0.00025179
3050.0 0.00013582
3070.0 4.0609e-05
3090.0 4.0609e-05
3110.0 4.0609e-05
3130.0 4.0609e-05
3150.0 4.0609e-05
3170.0 4.0609e-05
3190.0 4.0609e-05
3210.0 0.0012821
3230.0 0.0035661
3250.0 0.0048515
3270.0 0.0042573
3290.0 0.0032269
3310.0 0.0025563
3330.0 0.0023846
3350.0 0.0025012
3370.0 0.0027058
3390.0 0.0029198
3410.0 0.0031441
3430.0 0.003418
3450.0 0.00368
3470.0 0.003952
3490.0 0.0040026
3510.0 0.003491
3530.0 0.0032685
3550.0 0.0041799
3570.0 0.0053229
3590.0 0.0059241
3610.0 0.006133
3630.0 0.0065015
3650.0 0.0065074
3670.0 0.0067806
3690.0 0.0079746
3710.0 0.0092693
3730.0 0.01012
3750.0 0.010645
3770.0 0.010814
3790.0 0.010488
3810.0 0.0097231
3830.0 0.0085115
3850.0 0.0066968
3870.0 0.0059542
3890.0 0.0067072
3910.0 0.0088849
3930.0 0.011106
3950.0 0.012142
3970.0 0.012568
3990.0 0.013553
4010.0 0.014014
4030.0 0.01267
4050.0 0.0095518
4070.0 0.0080812
4090.0 0.0090502
4110.0 0.010046
4130.0 0.01073
4150.0 0.010737
4170.0 0.010323
4190.0 0.0098607
4210.0 0.010499
4230.0 0.011276
4250.0 0.01195
4270.0 0.011982
4290.0 0.011605
4310.0 0.011662
4330.0 0.01282
4350.0 0.014112
4370.0 0.014296
4390.0 0.013331
4410.0 0.011851
4430.0 0.0096051
4450.0 0.0079346
4470.0 0.0078985
4490.0 0.0087656
4510.0 0.0095526
4530.0 0.010043
4550.0 0.010833
4570.0 0.014084
4590.0 0.019354
4610.0 0.022998
4630.0 0.02443
4650.0 0.026566
4670.0 0.029583
4690.0 0.030113
4710.0 0.026087
4730.0 0.020469
4750.0 0.016067
4770.0 0.013515
4790.0 0.012317
4810.0 0.011967
4830.0 0.013005
4850.0 0.01533
4870.0 0.017121
4890.0 0.017562
4910.0 0.017647
4930.0 0.019501
4950.0 0.022474
4970.0 0.024399
4990.0 0.02422
5010.0 0.021817
5030.0 0.018059
5050.0 0.014643
5070.0 0.012506
5090.0 0.011698
5110.0 0.011711
5130.0 0.011864
5150.0 0.011714
5170.0 0.01115
5190.0 0.010887
5210.0 0.011381
5230.0 0.012879
5250.0 0.015381
5270.0 0.018
5290.0 0.019707
5310.0 0.021067
5330.0 0.02308
5350.0 0.024781
5370.0 0.024567
5390.0 0.022651
5410.0 0.020929
5430.0 0.02121
5450.0 0.02411
5470.0 0.028005
5490.0 0.030863
5510.0 0.031814
5530.0 0.031276
5550.0 0.029998
5570.0 0.028604
5590.0 0.027272
5610.0 0.026354
5630.0 0.026059
5650.0 0.025716
5670.0 0.024192
5690.0 0.021562
5710.0 0.018954
5730.0 0.017237
5750.0 0.016625
5770.0 0.016939
5790.0 0.017293
5810.0 0.017386
5830.0 0.017263
5850.0 0.016638
5870.0 0.015875
5890.0 0.015614
5910.0 0.015833
5930.0 0.015683
5950.0 0.014529
5970.0 0.012604
5990.0 0.010346
6010.0 0.0086844
6030.0 0.008269
6050.0 0.0088796
6070.0 0.0093295
6090.0 0.0088337
6110.0 0.0081071
6130.0 0.0083349
6150.0 0.0093216
6170.0 0.010231
6190.0 0.010784
6210.0 0.010981
6230.0 0.010779
6250.0 0.009802
6270.0 0.0082653
6290.0 0.0069797
6310.0 0.0064467
6330.0 0.0065195
6350.0 0.0067425
6370.0 0.0071061
6390.0 0.0081363
6410.0 0.0098041
6430.0 0.011285
6450.0 0.012032
6470.0 0.012363
6490.0 0.012551
6510.0 0.012662
6530.0 0.012771
6550.0 0.012913
6570.0 0.013239
6590.0 0.013529
6610.0 0.013494
6630.0 0.012922
6650.0 0.01195
6670.0 0.01101
6690.0 0.010377
6710.0 0.0099339
6730.0 0.0095209
6750.0 0.0093623
6770.0 0.0096106
6790.0 0.0099689
6810.0 0.010133
6830.0 0.0099752
6850.0 0.0094949
6870.0 0.0089922
6890.0 0.0087705
6910.0 0.0087663
6930.0 0.0089803
6950.0 0.0092131
6970.0 0.0093919
6990.0 0.0094273
7010.0 0.0091197
7030.0 0.008431
7050.0 0.0075599
7070.0 0.0069677
7090.0 0.0068451
7110.0 0.0069051
7130.0 0.0065849
7150.0 0.0059517
7170.0 0.0058103
7190.0 0.0064224
7210.0 0.0073599
7230.0 0.0081636
7250.0 0.0084602
7270.0 0.008266
7290.0 0.0077638
7310.0 0.0073469
7330.0 0.0072769
7350.0 0.0074024
7370.0 0.00753
7390.0 0.0078928
7410.0 0.0086695
7430.0 0.0096477
7450.0 0.010463
7470.0 0.010743
7490.0 0.01025
7510.0 0.0095119
7530.0 0.0089951
7550.0 0.0084996
7570.0 0.0079524
7590.0 0.007693
7610.0 0.0077788
7630.0 0.0081875
7650.0 0.0088916
7670.0 0.0097476
7690.0 0.01051
7710.0 0.011116
7730.0 0.011655
7750.0 0.012107
7770.0 0.012257
7790.0 0.012469
7810.0 0.012564
7830.0 0.012267
7850.0 0.011895
7870.0 0.011715
7890.0 0.011859
7910.0 0.011907
7930.0 0.011692
7950.0 0.011292
7970.0 0.010932
7990.0 0.010585
8010.0 0.010259
8030.0 0.010342
8050.0 0.010387
8070.0 0.010291
8090.0 0.010238
8110.0 0.010068
8130.0 0.010114
8150.0 0.010068
8170.0 0.0099053
8190.0 0.0096764
8210.0 0.0094712
8230.0 0.0092466
8250.0 0.0091828
8270.0 0.0086091
8290.0 0.0073636
8310.0 0.0059474
8330.0 0.0049798
8350.0 0.0047716
8370.0 0.0054369
8390.0 0.0063492
8410.0 0.0068021
8430.0 0.0070295
8450.0 0.0075034
8470.0 0.0081355
8490.0 0.0090521
8510.0 0.010157
8530.0 0.011347
8550.0 0.012328
8570.0 0.013077
8590.0 0.013649
8610.0 0.013969
8630.0 0.013948
8650.0 0.013762
8670.0 0.013815
8690.0 0.014596
8710.0 0.015651
8730.0 0.016225
8750.0 0.016181
8770.0 0.016425
8790.0 0.016467
8810.0 0.015701
8830.0 0.014639
8850.0 0.013277
8870.0 0.012226
8890.0 0.011931
8910.0 0.011823
8930.0 0.011122
8950.0 0.010313
8970.0 0.0099869
8990.0 0.010009
9010.0 0.009778
9030.0 0.0095855
9050.0 0.0094958
9070.0 0.0094509
9090.0 0.009412
9110.0 0.0093745
9130.0 0.009337
9150.0 0.0093004
9170.0 0.0092621
9190.0 0.0092325
9210.0 0.0092209
9230.0 0.0091747
9250.0 0.0091339
9270.0 0.0090965
9290.0 0.0090615
9310.0 0.0090273
9330.0 0.0089941
9350.0 0.0089628
9370.0 0.0089319
9390.0 0.0089006
9410.0 0.0088705
9430.0 0.008839
9450.0 0.008795
9470.0 0.0087558
9490.0 0.0087402
9510.0 0.0087181
9530.0 0.0086946
9550.0 0.0086695
9570.0 0.0086436
9590.0 0.0086177
9610.0 0.0085918
9630.0 0.0085656
9650.0 0.0085398
9670.0 0.0085147
9690.0 0.0084892
9710.0 0.008464
9730.0 0.0084393
9750.0 0.0084147
9770.0 0.0083896
9790.0 0.0083651
9810.0 0.008341
9830.0 0.0083165
9850.0 0.0082919
9870.0 0.008268
9890.0 0.0082439
9910.0 0.0082192
9930.0 0.0081944
9950.0 0.0081306
9970.0 0.0081175
9990.0 0.0081019
10010.0 0.0080859
10030.0 0.008066
10050.0 0.0080428
10070.0 0.0080195
10090.0 0.0079962
10110.0 0.0079684
10130.0 0.0079361
10150.0 0.0079116
10170.0 0.0078868
10190.0 0.0078586
10210.0 0.0078324
10230.0 0.0078063
10250.0 0.0077768
10270.0 0.0077472
10290.0 0.0077195
10310.0 0.0076888
10330.0 0.0076555
10350.0 0.0076248
10370.0 0.0075937
10390.0 0.0075595
10410.0 0.0075251
10430.0 0.0074932
10450.0 0.0074581
10470.0 0.0074209
10490.0 0.0073854
10510.0 0.0073495
10530.0 0.0073086
10550.0 0.0072689
10570.0 0.007231
10590.0 0.00719
10610.0 0.0071469
10630.0 0.0071059
10650.0 0.0070637
10670.0 0.0070172
10690.0 0.0069715
10710.0 0.0069268
10730.0 0.0068787
10750.0 0.0068274
10770.0 0.00678
10790.0 0.0067306
10810.0 0.0066777
10830.0 0.0066253
10850.0 0.0065743
10870.0 0.0065176
10890.0 0.00646
10910.0 0.0064041
10930.0 0.0063462
10950.0 0.0062838
10970.0 0.0062218
10990.0 0.0061613
11010.0 0.0066682
11030.0 0.0066
11050.0 0.0065339
11070.0 0.0064665
11090.0 0.0063939
11110.0 0.0063262
11130.0 0.00626
11150.0 0.0061912
11170.0 0.0061225
11190.0 0.0060578
11210.0 0.0059915
11230.0 0.0059235
11250.0 0.0058585
11270.0 0.0057953
11290.0 0.0057299
11310.0 0.0056651
11330.0 0.0056052
11350.0 0.0055439
11370.0 0.0054813
11390.0 0.0054206
11410.0 0.00536
11430.0 0.005294
11450.0 0.0052271
11470.0 0.0051594
11490.0 0.0050869
11510.0 0.0050079
11530.0 0.0049283
11550.0 0.0048454
11570.0 0.0047552
11590.0 0.0046624
11610.0 0.0045696
11630.0 0.004471
11650.0 0.0043683
11670.0 0.0042692
11690.0 0.0041699
11710.0 0.0040677
11730.0 0.0039676
11750.0 0.0038724
11770.0 0.0037753
11790.0 0.003679
11810.0 0.0035874
11830.0 0.0034978
11850.0 0.003406
11870.0 0.0033186
11890.0 0.0032357
11910.0 0.0031524
11930.0 0.0030705
11950.0 0.0029936
11970.0 0.0029183
11990.0 0.002843
12010.0 0.0027724
12030.0 0.0027061
12050.0 0.0026414
12070.0 0.0025794
12090.0 0.0025245
12110.0 0.002473
12130.0 0.0024249
12150.0 0.0023825
12170.0 0.0023459
12190.0 0.0023132
12210.0 0.0022864
12230.0 0.0022658
12250.0 0.0022505
12270.0 0.002241
12290.0 0.0022369
12310.0 0.0022375
12330.0 0.0022435
12350.0 0.0022539
12370.0 0.0022673
12390.0 0.0022842
12410.0 0.0023056
12430.0 0.0023272
12450.0 0.0023499
12470.0 0.0023746
12490.0 0.0023996
12510.0 0.0024225
12530.0 0.0024457
12550.0 0.0024684
12570.0 0.0024878
12590.0 0.0025044
12610.0 0.002519
12630.0 0.0025297
12650.0 0.002535
12670.0 0.0025365
12690.0 0.0025332
12710.0 0.0025246
12730.0 0.002511
12750.0 0.0024923
12770.0 0.0024686
12790.0 0.0024407
12810.0 0.0024086
12830.0 0.0023723
12850.0 0.0023342
12870.0 0.0022942
12890.0 0.0022516
12910.0 0.0022086
12930.0 0.0021662
12950.0 0.002123
12970.0 0.0020798
12990.0 0.002039
13010.0 0.0019992
13030.0 0.0019598
13050.0 0.0019221
13070.0 0.0018867
13090.0 0.0018515
13110.0 0.0018173
13130.0 0.0017849
13150.0 0.0017536
13170.0 0.0017223
13190.0 0.0016926
13210.0 0.0016644
13230.0 0.0016366
13250.0 0.0016096
13270.0 0.0015842
13290.0 0.0015597
13310.0 0.0015356
13330.0 0.0015131
13350.0 0.001492
13370.0 0.0014718
13390.0 0.0014527
13410.0 0.0014355
13430.0 0.0014194
13450.0 0.0014042
13470.0 0.0013903
13490.0 0.0013775
13510.0 0.0013652
13530.0 0.0013534
13550.0 0.0013423
13570.0 0.0013312
13590.0 0.0013199
13610.0 0.0013087
13630.0 0.0012973
13650.0 0.0012854
13670.0 0.0012732
13690.0 0.0012609
13710.0 0.0012483
13730.0 0.0012351
13750.0 0.0012225
13770.0 0.00121
13790.0 0.0011976
13810.0 0.0011855
13830.0 0.0011742
13850.0 0.0011632
13870.0 0.0011526
13890.0 0.0011428
13910.0 0.0011336
13930.0 0.0011246
13950.0 0.001116
13970.0 0.001108
13990.0 0.0011
14010.0 0.0010919
14030.0 0.001084
14050.0 0.001076
14070.0 0.0010674
14090.0 0.0010586
14110.0 0.0010497
14130.0 0.0010402
14150.0 0.0010302
14170.0 0.0010204
14190.0 0.0010104
14210.0 0.00099998
14230.0 0.00098989
14250.0 0.00098033
14270.0 0.00097086
14290.0 0.00096186
14310.0 0.000954
14330.0 0.00094692
14350.0 0.00094055
14370.0 0.00093527
14390.0 0.00093105
14410.0 0.00092754
14430.0 0.00092487
14450.0 0.000923
14470.0 0.0009217
14490.0 0.00092084
14510.0 0.00092042
14530.0 0.00092034
14550.0 0.0009205
14570.0 0.00092096
14590.0 0.00092177
14610.0 0.000923
14630.0 0.00092484
14650.0 0.00092742
14670.0 0.00093089
14690.0 0.00093557
14710.0 0.00094172
14730.0 0.00094909
14750.0 0.00095823
14770.0 0.00096948
14790.0 0.00098251
14810.0 0.00099729
14830.0 0.0010152
14850.0 0.0010353
14870.0 0.0010569
14890.0 0.0010808
14910.0 0.0011068
14930.0 0.0011328
14950.0 0.0011582
14970.0 0.0011832
14990.0 0.0012057
15010.0 0.0012246
15030.0 0.0012405
15050.0 0.0012533
15070.0 0.0012629
15090.0 0.0012704
15110.0 0.0012766
15130.0 0.0012819
15150.0 0.0012868
15170.0 0.0012915
15190.0 0.0012961
15210.0 0.0013009
15230.0 0.0013057
15250.0 0.0013105
15270.0 0.0013155
15290.0 0.0013206
15310.0 0.0013258
15330.0 0.001331
15350.0 0.0013364
15370.0 0.0013418
15390.0 0.0013474
15410.0 0.001353
15430.0 0.0013587
15450.0 0.0013645
15470.0 0.0013704
15490.0 0.0013763
15510.0 0.0013824
15530.0 0.0013885
15550.0 0.0013947
15570.0 0.0014009
15590.0 0.0014073
15610.0 0.0014137
15630.0 0.0014201
15650.0 0.0014267
15670.0 0.0014333
15690.0 0.00144
15710.0 0.0014467
15730.0 0.0014535
15750.0 0.0014604
15770.0 0.0014673
15790.0 0.0014743
15810.0 0.0014813
15830.0 0.0014884
15850.0 0.0014955
15870.0 0.0015026
15890.0 0.0015098
15910.0 0.0015171
15930.0 0.0015244
15950.0 0.0015317
15970.0 0.0015391
15990.0 0.0015465
16010.0 0.0015539
16030.0 0.0015613
16050.0 0.0015688
16070.0 0.0015763
16090.0 0.0015838
16110.0 0.0015913
16130.0 0.0015989
16150.0 0.0016064
16170.0 0.001614
16190.0 0.0016216
16210.0 0.0016292
16230.0 0.0016367
16250.0 0.0016443
16270.0 0.0016519
16290.0 0.0016594
16310.0 0.001667
16330.0 0.0016745
16350.0 0.001682
16370.0 0.0016895
16390.0 0.001697
16410.0 0.0017045
16430.0 0.0017119
16450.0 0.0017193
16470.0 0.0017266
16490.0 0.001734
16510.0 0.0017412
16530.0 0.0017485
16550.0 0.0017557
16570.0 0.0017628
16590.0 0.0017699
16610.0 0.0017769
16630.0 0.0017839
16650.0 0.0017908
16670.0 0.0017977
16690.0 0.0018045
16710.0 0.0018112
16730.0 0.0018178
16750.0 0.0018244
16770.0 0.0018308
16790.0 0.0018372
16810.0 0.0018436
16830.0 0.0018498
16850.0 0.0018559
16870.0 0.001862
16890.0 0.0018679
16910.0 0.0018738
16930.0 0.0018795
16950.0 0.0018852
16970.0 0.0018907
16990.0 0.0018961
17010.0 0.0019014
17030.0 0.0019066
17050.0 0.0019117
17070.0 0.0019167
17090.0 0.0019215
17110.0 0.0019262
17130.0 0.0019308
17150.0 0.0019353
17170.0 0.0019396
17190.0 0.0019438
17210.0 0.0019478
17230.0 0.0019518
17250.0 0.0019556
17270.0 0.0019592
17290.0 0.0019627
17310.0 0.001966
17330.0 0.0019692
17350.0 0.0019723
17370.0 0.0019752
17390.0 0.0019779
17410.0 0.0019805
17430.0 0.001983
17450.0 0.0019853
17470.0 0.0019874
17490.0 0.0019894
17510.0 0.0019912
17530.0 0.0019928
17550.0 0.0019943
17570.0 0.0019957
17590.0 0.0019968
17610.0 0.0019978
17630.0 0.0019987
17650.0 0.0019993
17670.0 0.0019999
17690.0 0.0020002
17710.0 0.0020004
17730.0 0.0020004
17750.0 0.0020002
17770.0 0.0019999
17790.0 0.0019994
17810.0 0.0019988
17830.0 0.0019979
17850.0 0.0019969
17870.0 0.0019958
17890.0 0.0019945
17910.0 0.001993
17930.0 0.0019914
17950.0 0.0019895
17970.0 0.0019876
17990.0 0.0019854
18010.0 0.0019831
18030.0 0.0019807
18050.0 0.0019781
18070.0 0.0019753
18090.0 0.0019724
18110.0 0.0019693
18130.0 0.001966
18150.0 0.0019626
18170.0 0.0019591
18190.0 0.0019554
18210.0 0.0019516
18230.0 0.0019476
18250.0 0.0019434
18270.0 0.0019391
18290.0 0.0019347
18310.0 0.0019301
18330.0 0.0019254
18350.0 0.0019206
18370.0 0.0019156
18390.0 0.0019105
18410.0 0.0019053
18430.0 0.0018999
18450.0 0.0018944
18470.0 0.0018887
18490.0 0.001883
18510.0 0.0018771
18530.0 0.0018711
18550.0 0.001865
18570.0 0.0018588
18590.0 0.0018525
18610.0 0.001846
18630.0 0.0018395
18650.0 0.0018328
18670.0 0.0018261
18690.0 0.0018192
18710.0 0.0018123
18730.0 0.0018052
18750.0 0.0017981
18770.0 0.0017909
18790.0 0.0017835
18810.0 0.0017761
18830.0 0.0017687
18850.0 0.0017611
18870.0 0.0017534
18890.0 0.0017457
18910.0 0.0017379
18930.0 0.0017301
18950.0 0.0017221
18970.0 0.0017141
18990.0 0.0017061
19010.0 0.0016979
19030.0 0.0016898
19050.0 0.0016815
19070.0 0.0016733
19090.0 0.0016649
19110.0 0.0016565
19130.0 0.0016481
19150.0 0.0016396
19170.0 0.0016311
19190.0 0.0016226
19210.0 0.001614
19230.0 0.0016053
19250.0 0.0015967
19270.0 0.001588
19290.0 0.0015793
19310.0 0.0015705
19330.0 0.0015618
19350.0 0.001553
19370.0 0.0015442
19390.0 0.0015354
19410.0 0.0015265
19430.0 0.0015177
19450.0 0.0015088
19470.0 0.0015
19490.0 0.0014911
19510.0 0.0014822
19530.0 0.0014734
19550.0 0.0014645
19570.0 0.0014556
19590.0 0.0014467
19610.0 0.0014379
19630.0 0.001429
19650.0 0.0014202
19670.0 0.0014113
19690.0 0.0014025
19710.0 0.0013937
19730.0 0.0013849
19750.0 0.0013761
19770.0 0.0013673
19790.0 0.0013586
19810.0 0.0013498
19830.0 0.0013411
19850.0 0.0013323
19870.0 0.0013234
19890.0 0.0013143
19910.0 0.0013047
19930.0 0.0012944
19950.0 0.0012829
19970.0 0.0012697
19990.0 0.0012544
20010.0 0.0012374
20030.0 0.0012178
20050.0 0.0011959
20070.0 0.0011727
20090.0 0.0011485
20110.0 0.0011225
20130.0 0.0010967
20150.0 0.0010717
20170.0 0.0010466
20190.0 0.0010217
20210.0 0.00099825
20230.0 0.00097557
20250.0 0.00095311
20270.0 0.00093196
20290.0 0.00091216
20310.0 0.00089299
20330.0 0.0008745
20350.0 0.0008579
20370.0 0.00084216
20390.0 0.00082718
20410.0 0.00081341
20430.0 0.00080085
20450.0 0.00078885
20470.0 0.00077782
20490.0 0.00076784
20510.0 0.0007586
20530.0 0.00074998
20550.0 0.00074214
20570.0 0.00073499
20590.0 0.00072828
20610.0 0.00072205
20630.0 0.00071627
20650.0 0.00071081
20670.0 0.0007056
20690.0 0.00070062
20710.0 0.00069577
20730.0 0.00069099
20750.0 0.00068623
20770.0 0.00068145
20790.0 0.00067659
20810.0 0.00067159
20830.0 0.00066645
20850.0 0.00066115
20870.0 0.00065561
20890.0 0.00064985
20910.0 0.00064396
20930.0 0.00063783
20950.0 0.00063146
20970.0 0.00062497
20990.0 0.00061838
21010.0 0.0006115
21030.0 0.00060455
21050.0 0.00059761
21070.0 0.00059055
21090.0 0.00058334
21110.0 0.00057628
21130.0 0.00056928
21150.0 0.00056218
21170.0 0.00055518
21190.0 0.00054838
21210.0 0.00054154
21230.0 0.00053473
21250.0 0.0005282
21270.0 0.0005218
21290.0 0.00051544
21310.0 0.00050927
21330.0 0.00050341
21350.0 0.00049761
21370.0 0.00049197
21390.0 0.00048661
21410.0 0.00048147
21430.0 0.00047641
21450.0 0.00047166
21470.0 0.00046717
21490.0 0.00046287
21510.0 0.00045877
21530.0 0.00045495
21550.0 0.00045133
21570.0 0.00044788
21590.0 0.00044466
21610.0 0.00044164
21630.0 0.00043878
21650.0 0.00043608
21670.0 0.00043354
21690.0 0.00043114
21710.0 0.00042886
21730.0 0.00042668
21750.0 0.00042459
21770.0 0.0004226
21790.0 0.00042069
21810.0 0.00041882
21830.0 0.00041701
21850.0 0.00041526
21870.0 0.00041353
21890.0 0.0004118
21910.0 0.00041011
21930.0 0.00040842
21950.0 0.00040671
21970.0 0.00040498
21990.0 0.00040325
22010.0 0.00040147
22030.0 0.00039964
22050.0 0.00039777
22070.0 0.00039585
22090.0 0.00039387
22110.0 0.00039184
22130.0 0.00038975
22150.0 0.0003876
22170.0 0.0003854
22190.0 0.00038313
22210.0 0.0003808
22230.0 0.00037844
22250.0 0.00037601
22270.0 0.00037351
22290.0 0.00037097
22310.0 0.00036837
22330.0 0.00036564
22350.0 0.00036283
22370.0 0.00035996
22390.0 0.00035694
22410.0 0.00035373
22430.0 0.00035045
22450.0 0.00034703
22470.0 0.00034337
22490.0 0.00033956
22510.0 0.00033566
22530.0 0.00033149
22550.0 0.00032709
22570.0 0.00032266
22590.0 0.00031811
22610.0 0.00031333
22630.0 0.0003085
22650.0 0.00030377
22670.0 0.00029887
22690.0 0.00029394
22710.0 0.00028918
22730.0 0.00028449
22750.0 0.0002797
22770.0 0.00027518
22790.0 0.0002709
22810.0 0.0002667
22830.0 0.00026265
22850.0 0.00025892
22870.0 0.00025535
22890.0 0.0002519
22910.0 0.00024871
22930.0 0.00024577
22950.0 0.00024294
22970.0 0.00024025
22990.0 0.00023783
23010.0 0.00023552
23030.0 0.00023329
23050.0 0.00023119
23070.0 0.00022922
23090.0 0.00022724
23110.0 0.00022533
23130.0 0.0002235
23150.0 0.00022168
23170.0 0.00021986
23190.0 0.00021808
23210.0 0.00021635
23230.0 0.0002146
23250.0 0.00021289
23270.0 0.00021124
23290.0 0.00020962
23310.0 0.000208
23330.0 0.00020651
23350.0 0.00020508
23370.0 0.0002037
23390.0 0.00020241
23410.0 0.00020122
23430.0 0.00020008
23450.0 0.000199
23470.0 0.000198
23490.0 0.00019706
23510.0 0.00019616
23530.0 0.00019531
23550.0 0.00019451
23570.0 0.00019374
23590.0 0.00019301
23610.0 0.00019232
23630.0 0.00019169
23650.0 0.00019111
23670.0 0.00019061
23690.0 0.00019019
