#lamb flux
1010.0 1.524e-08
1030.0 1.712e-08
1050.0 1.9283e-08
1070.0 2.1717e-08
1090.0 2.4483e-08
1110.0 2.7319e-08
1130.0 3.0174e-08
1150.0 3.3164e-08
1170.0 3.6249e-08
1190.0 3.9174e-08
1210.0 4.2138e-08
1230.0 4.5202e-08
1250.0 4.8203e-08
1270.0 5.1118e-08
1290.0 5.4198e-08
1310.0 5.7276e-08
1330.0 6.0228e-08
1350.0 6.3213e-08
1370.0 6.6294e-08
1390.0 6.9299e-08
1410.0 7.2214e-08
1430.0 7.5261e-08
1450.0 7.8308e-08
1470.0 8.1252e-08
1490.0 8.4228e-08
1510.0 8.7371e-08
1530.0 9.0348e-08
1550.0 9.3284e-08
1570.0 9.632e-08
1590.0 9.9358e-08
1610.0 1.0226e-07
1630.0 1.0525e-07
1650.0 1.0831e-07
1670.0 1.1128e-07
1690.0 1.142e-07
1710.0 1.1723e-07
1730.0 1.2027e-07
1750.0 1.2312e-07
1770.0 1.2606e-07
1790.0 1.2904e-07
1810.0 1.3192e-07
1830.0 1.3474e-07
1850.0 1.3772e-07
1870.0 1.4061e-07
1890.0 1.4338e-07
1910.0 1.4619e-07
1930.0 1.4906e-07
1950.0 1.5176e-07
1970.0 1.544e-07
1990.0 1.5712e-07
2010.0 1.5976e-07
2030.0 1.6226e-07
2050.0 1.648e-07
2070.0 1.6737e-07
2090.0 1.6972e-07
2110.0 1.7201e-07
2130.0 1.7432e-07
2150.0 1.7651e-07
2170.0 1.7852e-07
2190.0 1.8055e-07
2210.0 1.8252e-07
2230.0 1.8429e-07
2250.0 1.8596e-07
2270.0 1.8766e-07
2290.0 1.8917e-07
2310.0 1.9046e-07
2330.0 1.9174e-07
2350.0 1.9292e-07
2370.0 1.939e-07
2390.0 1.948e-07
2410.0 1.9577e-07
2430.0 1.9662e-07
2450.0 1.9745e-07
2470.0 1.9849e-07
2490.0 1.9986e-07
2510.0 2.0152e-07
2530.0 2.0421e-07
2550.0 2.0899e-07
2570.0 2.1686e-07
2590.0 2.2909e-07
2610.0 2.4921e-07
2630.0 2.7785e-07
2650.0 3.1317e-07
2670.0 3.5536e-07
2690.0 4.0239e-07
2710.0 4.4708e-07
2730.0 4.8602e-07
2750.0 5.1978e-07
2770.0 5.4471e-07
2790.0 5.6074e-07
2810.0 5.7076e-07
2830.0 5.7673e-07
2850.0 5.7871e-07
2870.0 5.7887e-07
2890.0 5.7844e-07
2910.0 5.7748e-07
2930.0 5.7592e-07
2950.0 5.746e-07
2970.0 5.7347e-07
2990.0 5.7207e-07
3010.0 1.0316e-05
3030.0 1.0282e-05
3050.0 1.0249e-05
3070.0 1.0205e-05
3090.0 1.0157e-05
3110.0 1.0093e-05
3130.0 1e-05
3150.0 9.873e-06
3170.0 9.701e-06
3190.0 9.4884e-06
3210.0 9.2551e-06
3230.0 9.0226e-06
3250.0 8.8447e-06
3270.0 8.7264e-06
3290.0 8.732e-06
3310.0 8.8115e-06
3330.0 9.0234e-06
3350.0 9.3264e-06
3370.0 9.7268e-06
3390.0 1.0212e-05
3410.0 1.073e-05
3430.0 1.1306e-05
3450.0 1.1959e-05
3470.0 1.2661e-05
3490.0 1.3392e-05
3510.0 1.4205e-05
3530.0 1.5064e-05
3550.0 1.5906e-05
3570.0 1.6768e-05
3590.0 1.7736e-05
3610.0 1.8692e-05
3630.0 1.9723e-05
3650.0 2.0776e-05
3670.0 2.177e-05
3690.0 2.2534e-05
3710.0 2.3012e-05
3730.0 2.3175e-05
3750.0 2.3006e-05
3770.0 2.0973e-05
3790.0 1.8816e-05
3810.0 1.7565e-05
3830.0 1.5157e-05
3850.0 1.0923e-05
3870.0 8.384e-06
3890.0 1.4094e-05
3910.0 2.2428e-05
3930.0 2.7153e-05
3950.0 2.7133e-05
3970.0 2.7121e-05
3990.0 3.1812e-05
4010.0 3.9484e-05
4030.0 4.0628e-05
4050.0 3.6574e-05
4070.0 3.1808e-05
4090.0 2.9811e-05
4110.0 3.5767e-05
4130.0 3.7042e-05
4150.0 3.5283e-05
4170.0 3.6429e-05
4190.0 3.7391e-05
4210.0 3.6851e-05
4230.0 4.0004e-05
4250.0 4.3574e-05
4270.0 4.4026e-05
4290.0 4.4711e-05
4310.0 4.6476e-05
4330.0 5.1385e-05
4350.0 5.8609e-05
4370.0 6.6262e-05
4390.0 6.3827e-05
4410.0 5.3512e-05
4430.0 4.5097e-05
4450.0 3.8367e-05
4470.0 3.755e-05
4490.0 4.0763e-05
4510.0 4.4609e-05
4530.0 4.8806e-05
4550.0 5.6851e-05
4570.0 6.8375e-05
4590.0 8.3699e-05
4610.0 0.00010518
4630.0 0.00012602
4650.0 0.0001304
4670.0 0.00012788
4690.0 0.00013619
4710.0 0.00014233
4730.0 0.00012098
4750.0 8.7979e-05
4770.0 7.2203e-05
4790.0 6.8901e-05
4810.0 6.3996e-05
4830.0 6.0684e-05
4850.0 6.9892e-05
4870.0 8.9219e-05
4890.0 0.00010122
4910.0 8.7061e-05
4930.0 7.773e-05
4950.0 8.7456e-05
4970.0 0.00011649
4990.0 0.00014906
5010.0 0.00015622
5030.0 0.00012937
5050.0 8.5172e-05
5070.0 5.893e-05
5090.0 5.2411e-05
5110.0 5.4769e-05
5130.0 5.8737e-05
5150.0 6.1831e-05
5170.0 6.183e-05
5190.0 6.0773e-05
5210.0 5.8801e-05
5230.0 5.9741e-05
5250.0 6.3589e-05
5270.0 7.4243e-05
5290.0 8.5732e-05
5310.0 9.3142e-05
5330.0 9.5523e-05
5350.0 9.6989e-05
5370.0 0.0001053
5390.0 0.00011184
5410.0 0.00010875
5430.0 9.518e-05
5450.0 8.8134e-05
5470.0 9.9328e-05
5490.0 0.00012713
5510.0 0.00016111
5530.0 0.00017754
5550.0 0.0001733
5570.0 0.00015801
5590.0 0.00014216
5610.0 0.00013107
5630.0 0.0001242
5650.0 0.00012747
5670.0 0.00012483
5690.0 0.00011717
5710.0 0.00011039
5730.0 9.9003e-05
5750.0 7.369e-05
5770.0 6.46e-05
5790.0 7.2043e-05
5810.0 8.6841e-05
5830.0 9.7194e-05
5850.0 0.00010475
5870.0 0.00010709
5890.0 0.00010311
5910.0 9.8703e-05
5930.0 9.9309e-05
5950.0 0.00010421
5970.0 0.00010905
5990.0 0.00010354
6010.0 8.7587e-05
6030.0 7.2799e-05
6050.0 6.3503e-05
6070.0 6.2932e-05
6090.0 7.0601e-05
6110.0 7.6978e-05
6130.0 7.4145e-05
6150.0 6.9655e-05
6170.0 7.7112e-05
6190.0 9.2709e-05
6210.0 0.00011124
6230.0 0.0001254
6250.0 0.00012487
6270.0 0.00011265
6290.0 9.3252e-05
6310.0 7.4405e-05
6330.0 5.9731e-05
6350.0 5.4177e-05
6370.0 5.9073e-05
6390.0 6.9336e-05
6410.0 7.9461e-05
6430.0 9.1916e-05
6450.0 0.00010683
6470.0 0.00013199
6490.0 0.00016186
6510.0 0.0001777
6530.0 0.00016521
6550.0 0.00015249
6570.0 0.00015002
6590.0 0.00014416
6610.0 0.00013032
6630.0 0.00011701
6650.0 0.00010817
6670.0 0.00011232
6690.0 0.0001117
6710.0 9.9031e-05
6730.0 9.1779e-05
6750.0 8.1614e-05
6770.0 7.857e-05
6790.0 8.4745e-05
6810.0 8.9306e-05
6830.0 9.1489e-05
6850.0 8.9921e-05
6870.0 8.6202e-05
6890.0 8.4455e-05
6910.0 8.0291e-05
6930.0 7.5852e-05
6950.0 7.6292e-05
6970.0 7.7878e-05
6990.0 8.6702e-05
7010.0 9.2255e-05
7030.0 8.4016e-05
7050.0 7.87e-05
7070.0 7.57e-05
7090.0 6.811e-05
7110.0 6.3453e-05
7130.0 6.4587e-05
7150.0 6.7075e-05
7170.0 7.0655e-05
7190.0 7.0765e-05
7210.0 7.1117e-05
7230.0 7.4907e-05
7250.0 8.6266e-05
7270.0 0.00010077
7290.0 0.00010799
7310.0 0.00010464
7330.0 9.3067e-05
7350.0 8.3659e-05
7370.0 8.2269e-05
7390.0 8.305e-05
7410.0 8.6089e-05
7430.0 9.4258e-05
7450.0 0.00010217
7470.0 0.00011322
7490.0 0.00012511
7510.0 0.00011503
7530.0 0.00011014
7550.0 9.2513e-05
7570.0 7.776e-05
7590.0 6.4096e-05
7610.0 5.8844e-05
7630.0 6.158e-05
7650.0 7.0438e-05
7670.0 7.6748e-05
7690.0 8.658e-05
7710.0 9.653e-05
7730.0 0.00010096
7750.0 0.00010123
7770.0 0.00010087
7790.0 9.9407e-05
7810.0 0.00010328
7830.0 9.9856e-05
7850.0 8.9109e-05
7870.0 8.049e-05
7890.0 7.5006e-05
7910.0 6.7665e-05
7930.0 5.7913e-05
7950.0 5.3024e-05
7970.0 5.2725e-05
7990.0 5.5195e-05
8010.0 5.8608e-05
8030.0 5.9474e-05
8050.0 5.9241e-05
8070.0 5.7571e-05
8090.0 5.7315e-05
8110.0 5.4476e-05
8130.0 5.0781e-05
8150.0 4.775e-05
8170.0 4.6593e-05
8190.0 4.7596e-05
8210.0 4.773e-05
8230.0 4.9641e-05
8250.0 4.9349e-05
8270.0 4.4117e-05
8290.0 3.3894e-05
8310.0 2.3084e-05
8330.0 1.5227e-05
8350.0 1.081e-05
8370.0 1.2837e-05
8390.0 1.4208e-05
8410.0 1.8199e-05
8430.0 2.2056e-05
8450.0 2.417e-05
8470.0 2.5073e-05
8490.0 2.5753e-05
8510.0 2.6906e-05
8530.0 3.0093e-05
8550.0 3.3255e-05
8570.0 3.9079e-05
8590.0 4.7938e-05
8610.0 5.6144e-05
8630.0 6.564e-05
8650.0 7.3841e-05
8670.0 7.2761e-05
8690.0 6.8197e-05
8710.0 6.4464e-05
8730.0 6.0937e-05
8750.0 5.8295e-05
8770.0 5.6584e-05
8790.0 5.4834e-05
8810.0 5.1094e-05
8830.0 4.608e-05
8850.0 3.9908e-05
8870.0 3.4102e-05
8890.0 3.0808e-05
8910.0 3.1163e-05
8930.0 3.1128e-05
8950.0 3.3806e-05
8970.0 3.4596e-05
8990.0 3.5944e-05
9010.0 3.728e-05
9030.0 3.7578e-05
9050.0 3.7718e-05
9070.0 3.7823e-05
9090.0 3.7901e-05
9110.0 3.794e-05
9130.0 3.8001e-05
9150.0 3.8087e-05
9170.0 3.8173e-05
9190.0 3.8257e-05
9210.0 3.8388e-05
9230.0 3.8486e-05
9250.0 3.8598e-05
9270.0 3.8717e-05
9290.0 3.8843e-05
9310.0 3.8981e-05
9330.0 3.9127e-05
9350.0 3.9277e-05
9370.0 3.9436e-05
9390.0 3.9605e-05
9410.0 3.9779e-05
9430.0 3.9957e-05
9450.0 4.0148e-05
9470.0 4.0345e-05
9490.0 4.0545e-05
9510.0 4.0754e-05
9530.0 4.0972e-05
9550.0 4.1192e-05
9570.0 4.1417e-05
9590.0 4.1652e-05
9610.0 4.1893e-05
9630.0 4.2135e-05
9650.0 4.2385e-05
9670.0 4.2644e-05
9690.0 4.2903e-05
9710.0 4.3167e-05
9730.0 4.3439e-05
9750.0 4.3715e-05
9770.0 4.3989e-05
9790.0 4.4272e-05
9810.0 4.4561e-05
9830.0 4.485e-05
9850.0 4.5141e-05
9870.0 4.544e-05
9890.0 4.5739e-05
9910.0 4.6038e-05
9930.0 4.6342e-05
9950.0 4.6647e-05
9970.0 4.6952e-05
9990.0 4.7258e-05
10010.0 4.6485e-05
10030.0 4.6785e-05
10050.0 4.7079e-05
10070.0 4.7366e-05
10090.0 4.7673e-05
10110.0 4.7973e-05
10130.0 4.8271e-05
10150.0 4.8573e-05
10170.0 4.8869e-05
10190.0 4.9159e-05
10210.0 4.9452e-05
10230.0 4.9745e-05
10250.0 5.0029e-05
10270.0 5.0312e-05
10290.0 5.0597e-05
10310.0 5.0873e-05
10330.0 5.1141e-05
10350.0 5.1412e-05
10370.0 5.1679e-05
10390.0 5.1935e-05
10410.0 5.2188e-05
10430.0 5.2442e-05
10450.0 5.2686e-05
10470.0 5.292e-05
10490.0 5.3154e-05
10510.0 5.3382e-05
10530.0 5.3594e-05
10550.0 5.3803e-05
10570.0 5.4011e-05
10590.0 5.4207e-05
10610.0 5.4392e-05
10630.0 5.4576e-05
10650.0 5.4751e-05
10670.0 5.491e-05
10690.0 5.5065e-05
10710.0 5.5215e-05
10730.0 5.5351e-05
10750.0 5.5472e-05
10770.0 5.5596e-05
10790.0 5.5707e-05
10810.0 5.5802e-05
10830.0 5.5889e-05
10850.0 5.5968e-05
10870.0 5.6016e-05
10890.0 5.6032e-05
10910.0 5.6009e-05
10930.0 5.5911e-05
10950.0 5.5692e-05
10970.0 5.5336e-05
10990.0 5.483e-05
11010.0 5.2979e-05
11030.0 5.2046e-05
11050.0 5.0961e-05
11070.0 4.9693e-05
11090.0 4.8189e-05
11110.0 4.6652e-05
11130.0 4.5064e-05
11150.0 4.3374e-05
11170.0 4.1661e-05
11190.0 4.0038e-05
11210.0 3.8405e-05
11230.0 3.6785e-05
11250.0 3.5295e-05
11270.0 3.3919e-05
11290.0 3.2597e-05
11310.0 3.1397e-05
11330.0 3.0383e-05
11350.0 2.9456e-05
11370.0 2.8622e-05
11390.0 2.7908e-05
11410.0 2.728e-05
11430.0 2.6675e-05
11450.0 2.612e-05
11470.0 2.5597e-05
11490.0 2.5058e-05
11510.0 2.4482e-05
11530.0 2.3897e-05
11550.0 2.3279e-05
11570.0 2.2596e-05
11590.0 2.1877e-05
11610.0 2.1149e-05
11630.0 2.037e-05
11650.0 1.9559e-05
11670.0 1.8784e-05
11690.0 1.8024e-05
11710.0 1.7267e-05
11730.0 1.6558e-05
11750.0 1.5922e-05
11770.0 1.5315e-05
11790.0 1.4762e-05
11810.0 1.4282e-05
11830.0 1.3857e-05
11850.0 1.3465e-05
11870.0 1.3128e-05
11890.0 1.2835e-05
11910.0 1.256e-05
11930.0 1.2299e-05
11950.0 1.2055e-05
11970.0 1.1809e-05
11990.0 1.1549e-05
12010.0 1.1286e-05
12030.0 1.1016e-05
12050.0 1.0729e-05
12070.0 1.0427e-05
12090.0 1.0137e-05
12110.0 9.8463e-06
12130.0 9.5577e-06
12150.0 9.2924e-06
12170.0 9.0579e-06
12190.0 8.8456e-06
12210.0 8.6777e-06
12230.0 8.5605e-06
12250.0 8.492e-06
12270.0 8.4785e-06
12290.0 8.5198e-06
12310.0 8.6091e-06
12330.0 8.7545e-06
12350.0 8.9471e-06
12370.0 9.1702e-06
12390.0 9.4285e-06
12410.0 9.7292e-06
12430.0 1.0027e-05
12450.0 1.0327e-05
12470.0 1.0635e-05
12490.0 1.0931e-05
12510.0 1.1193e-05
12530.0 1.1439e-05
12550.0 1.1659e-05
12570.0 1.1832e-05
12590.0 1.1964e-05
12610.0 1.206e-05
12630.0 1.211e-05
12650.0 1.2113e-05
12670.0 1.2078e-05
12690.0 1.2003e-05
12710.0 1.1894e-05
12730.0 1.1756e-05
12750.0 1.1585e-05
12770.0 1.1392e-05
12790.0 1.1185e-05
12810.0 1.0958e-05
12830.0 1.0713e-05
12850.0 1.0466e-05
12870.0 1.0213e-05
12890.0 9.9436e-06
12910.0 9.6711e-06
12930.0 9.4005e-06
12950.0 9.1159e-06
12970.0 8.8213e-06
12990.0 8.535e-06
13010.0 8.2458e-06
13030.0 7.9471e-06
13050.0 7.6535e-06
13070.0 7.3726e-06
13090.0 7.0877e-06
13110.0 6.8096e-06
13130.0 6.5521e-06
13150.0 6.3092e-06
13170.0 6.0753e-06
13190.0 5.8711e-06
13210.0 5.6963e-06
13230.0 5.5437e-06
13250.0 5.4203e-06
13270.0 5.3306e-06
13290.0 5.27e-06
13310.0 5.2403e-06
13330.0 5.2418e-06
13350.0 5.2704e-06
13370.0 5.3271e-06
13390.0 5.4101e-06
13410.0 5.5061e-06
13430.0 5.6192e-06
13450.0 5.748e-06
13470.0 5.8805e-06
13490.0 6.0116e-06
13510.0 6.1516e-06
13530.0 6.2848e-06
13550.0 6.4046e-06
13570.0 6.5164e-06
13590.0 6.6195e-06
13610.0 6.7048e-06
13630.0 6.7735e-06
13650.0 6.8313e-06
13670.0 6.873e-06
13690.0 6.8984e-06
13710.0 6.911e-06
13730.0 6.9107e-06
13750.0 6.8967e-06
13770.0 6.872e-06
13790.0 6.8365e-06
13810.0 6.7913e-06
13830.0 6.739e-06
13850.0 6.6778e-06
13870.0 6.6081e-06
13890.0 6.5335e-06
13910.0 6.4538e-06
13930.0 6.3659e-06
13950.0 6.2736e-06
13970.0 6.1819e-06
13990.0 6.0853e-06
14010.0 5.9857e-06
14030.0 5.889e-06
14050.0 5.7942e-06
14070.0 5.6975e-06
14090.0 5.6076e-06
14110.0 5.5257e-06
14130.0 5.4493e-06
14150.0 5.3805e-06
14170.0 5.3243e-06
14190.0 5.2787e-06
14210.0 5.2437e-06
14230.0 5.2217e-06
14250.0 5.2122e-06
14270.0 5.2154e-06
14290.0 5.232e-06
14310.0 5.2592e-06
14330.0 5.2972e-06
14350.0 5.3468e-06
14370.0 5.404e-06
14390.0 5.4659e-06
14410.0 5.5364e-06
14430.0 5.6119e-06
14450.0 5.6879e-06
14470.0 5.7665e-06
14490.0 5.8514e-06
14510.0 5.935e-06
14530.0 6.0183e-06
14550.0 6.1079e-06
14570.0 6.2027e-06
14590.0 6.2995e-06
14610.0 6.4057e-06
14630.0 6.5263e-06
14650.0 6.6548e-06
14670.0 6.7935e-06
14690.0 6.9512e-06
14710.0 7.1266e-06
14730.0 7.3056e-06
14750.0 7.5015e-06
14770.0 7.7146e-06
14790.0 7.9316e-06
14810.0 8.1494e-06
14830.0 8.3845e-06
14850.0 8.6148e-06
14870.0 8.8314e-06
14890.0 9.0421e-06
14910.0 9.2434e-06
14930.0 9.4184e-06
14950.0 9.5676e-06
14970.0 9.6964e-06
14990.0 9.7946e-06
15010.0 9.8624e-06
15030.0 9.9063e-06
15050.0 9.9287e-06
15070.0 9.933e-06
15090.0 9.9262e-06
15110.0 9.9115e-06
15130.0 9.8922e-06
15150.0 9.8718e-06
15170.0 9.8492e-06
15190.0 9.8258e-06
15210.0 9.8033e-06
15230.0 9.781e-06
15250.0 9.7577e-06
15270.0 9.7347e-06
15290.0 9.7132e-06
15310.0 9.6909e-06
15330.0 9.6683e-06
15350.0 9.6467e-06
15370.0 9.6253e-06
15390.0 9.6025e-06
15410.0 9.5806e-06
15430.0 9.5595e-06
15450.0 9.5377e-06
15470.0 9.5153e-06
15490.0 9.4944e-06
15510.0 9.4733e-06
15530.0 9.4513e-06
15550.0 9.4299e-06
15570.0 9.4092e-06
15590.0 9.3873e-06
15610.0 9.3651e-06
15630.0 9.3442e-06
15650.0 9.3231e-06
15670.0 9.3011e-06
15690.0 9.2796e-06
15710.0 9.259e-06
15730.0 9.2371e-06
15750.0 9.2151e-06
15770.0 9.194e-06
15790.0 9.1726e-06
15810.0 9.1498e-06
15830.0 9.128e-06
15850.0 9.1069e-06
15870.0 9.0847e-06
15890.0 9.0623e-06
15910.0 9.041e-06
15930.0 9.019e-06
15950.0 8.9959e-06
15970.0 8.9736e-06
15990.0 8.9517e-06
16010.0 8.9286e-06
16030.0 8.9052e-06
16050.0 8.8833e-06
16070.0 8.8606e-06
16090.0 8.837e-06
16110.0 8.8141e-06
16130.0 8.7916e-06
16150.0 8.7672e-06
16170.0 8.7432e-06
16190.0 8.7201e-06
16210.0 8.6963e-06
16230.0 8.6716e-06
16250.0 8.6478e-06
16270.0 8.6243e-06
16290.0 8.5993e-06
16310.0 8.5745e-06
16330.0 8.5504e-06
16350.0 8.5255e-06
16370.0 8.4992e-06
16390.0 8.4745e-06
16410.0 8.4496e-06
16430.0 8.4236e-06
16450.0 8.3977e-06
16470.0 8.3728e-06
16490.0 8.3465e-06
16510.0 8.3196e-06
16530.0 8.2936e-06
16550.0 8.2675e-06
16570.0 8.24e-06
16590.0 8.2127e-06
16610.0 8.1865e-06
16630.0 8.1592e-06
16650.0 8.1314e-06
16670.0 8.1043e-06
16690.0 8.0771e-06
16710.0 8.0481e-06
16730.0 8.02e-06
16750.0 7.9923e-06
16770.0 7.9637e-06
16790.0 7.9344e-06
16810.0 7.9063e-06
16830.0 7.8777e-06
16850.0 7.8481e-06
16870.0 7.8188e-06
16890.0 7.7902e-06
16910.0 7.7601e-06
16930.0 7.7295e-06
16950.0 7.7002e-06
16970.0 7.6704e-06
16990.0 7.6395e-06
17010.0 7.6093e-06
17030.0 7.5796e-06
17050.0 7.5484e-06
17070.0 7.5172e-06
17090.0 7.4867e-06
17110.0 7.4558e-06
17130.0 7.4234e-06
17150.0 7.3921e-06
17170.0 7.3613e-06
17190.0 7.3293e-06
17210.0 7.2971e-06
17230.0 7.2659e-06
17250.0 7.2339e-06
17270.0 7.2008e-06
17290.0 7.1686e-06
17310.0 7.1366e-06
17330.0 7.1036e-06
17350.0 7.0702e-06
17370.0 7.0383e-06
17390.0 7.0054e-06
17410.0 6.9718e-06
17430.0 6.939e-06
17450.0 6.9065e-06
17470.0 6.8721e-06
17490.0 6.8382e-06
17510.0 6.8053e-06
17530.0 6.7717e-06
17550.0 6.7372e-06
17570.0 6.7038e-06
17590.0 6.6705e-06
17610.0 6.636e-06
17630.0 6.6017e-06
17650.0 6.5682e-06
17670.0 6.5339e-06
17690.0 6.4984e-06
17710.0 6.4646e-06
17730.0 6.4306e-06
17750.0 6.3957e-06
17770.0 6.361e-06
17790.0 6.3274e-06
17810.0 6.2923e-06
17830.0 6.257e-06
17850.0 6.2227e-06
17870.0 6.1882e-06
17890.0 6.1527e-06
17910.0 6.1175e-06
17930.0 6.0835e-06
17950.0 6.0484e-06
17970.0 6.0131e-06
17990.0 5.9786e-06
18010.0 5.9441e-06
18030.0 5.908e-06
18050.0 5.873e-06
18070.0 5.8385e-06
18090.0 5.8032e-06
18110.0 5.7676e-06
18130.0 5.7332e-06
18150.0 5.6985e-06
18170.0 5.6629e-06
18190.0 5.6279e-06
18210.0 5.5935e-06
18230.0 5.558e-06
18250.0 5.5222e-06
18270.0 5.4878e-06
18290.0 5.4531e-06
18310.0 5.4175e-06
18330.0 5.3828e-06
18350.0 5.3486e-06
18370.0 5.3132e-06
18390.0 5.278e-06
18410.0 5.2437e-06
18430.0 5.2091e-06
18450.0 5.1733e-06
18470.0 5.1388e-06
18490.0 5.1048e-06
18510.0 5.0699e-06
18530.0 5.0351e-06
18550.0 5.0013e-06
18570.0 4.9668e-06
18590.0 4.9316e-06
18610.0 4.8975e-06
18630.0 4.8636e-06
18650.0 4.8289e-06
18670.0 4.7942e-06
18690.0 4.7609e-06
18710.0 4.7269e-06
18730.0 4.6925e-06
18750.0 4.6589e-06
18770.0 4.6257e-06
18790.0 4.5909e-06
18810.0 4.557e-06
18830.0 4.5239e-06
18850.0 4.4904e-06
18870.0 4.4563e-06
18890.0 4.4234e-06
18910.0 4.3906e-06
18930.0 4.3568e-06
18950.0 4.3236e-06
18970.0 4.2911e-06
18990.0 4.258e-06
19010.0 4.224e-06
19030.0 4.1919e-06
19050.0 4.1595e-06
19070.0 4.1265e-06
19090.0 4.0939e-06
19110.0 4.0624e-06
19130.0 4.0296e-06
19150.0 3.9969e-06
19170.0 3.9651e-06
19190.0 3.9333e-06
19210.0 3.9007e-06
19230.0 3.8687e-06
19250.0 3.8377e-06
19270.0 3.8059e-06
19290.0 3.774e-06
19310.0 3.7431e-06
19330.0 3.7121e-06
19350.0 3.6799e-06
19370.0 3.6488e-06
19390.0 3.6183e-06
19410.0 3.5871e-06
19430.0 3.5558e-06
19450.0 3.5258e-06
19470.0 3.4954e-06
19490.0 3.4644e-06
19510.0 3.4341e-06
19530.0 3.4044e-06
19550.0 3.3737e-06
19570.0 3.343e-06
19590.0 3.3136e-06
19610.0 3.2839e-06
19630.0 3.2537e-06
19650.0 3.2243e-06
19670.0 3.1954e-06
19690.0 3.1654e-06
19710.0 3.1358e-06
19730.0 3.1071e-06
19750.0 3.0781e-06
19770.0 3.0482e-06
19790.0 3.0196e-06
19810.0 2.9913e-06
19830.0 2.9622e-06
19850.0 2.9333e-06
19870.0 2.9051e-06
19890.0 2.8756e-06
19910.0 2.8446e-06
19930.0 2.8131e-06
19950.0 2.7794e-06
19970.0 2.7414e-06
19990.0 2.6991e-06
20010.0 2.6948e-06
20030.0 2.6433e-06
20050.0 2.5866e-06
20070.0 2.5282e-06
20090.0 2.4682e-06
20110.0 2.4036e-06
20130.0 2.341e-06
20150.0 2.2812e-06
20170.0 2.2217e-06
20190.0 2.1635e-06
20210.0 2.1102e-06
20230.0 2.0599e-06
20250.0 2.011e-06
20270.0 1.9668e-06
20290.0 1.9275e-06
20310.0 1.8912e-06
20330.0 1.8584e-06
20350.0 1.832e-06
20370.0 1.8096e-06
20390.0 1.7911e-06
20410.0 1.7776e-06
20430.0 1.7685e-06
20450.0 1.7634e-06
20470.0 1.7627e-06
20490.0 1.7658e-06
20510.0 1.7724e-06
20530.0 1.7828e-06
20550.0 1.7959e-06
20570.0 1.811e-06
20590.0 1.8291e-06
20610.0 1.8492e-06
20630.0 1.8701e-06
20650.0 1.8923e-06
20670.0 1.9168e-06
20690.0 1.9407e-06
20710.0 1.9646e-06
20730.0 1.9895e-06
20750.0 2.0146e-06
20770.0 2.0384e-06
20790.0 2.0627e-06
20810.0 2.0878e-06
20830.0 2.1121e-06
20850.0 2.1362e-06
20870.0 2.1617e-06
20890.0 2.1877e-06
20910.0 2.2126e-06
20930.0 2.2386e-06
20950.0 2.2659e-06
20970.0 2.2927e-06
20990.0 2.3193e-06
21010.0 2.3478e-06
21030.0 2.3758e-06
21050.0 2.4026e-06
21070.0 2.4294e-06
21090.0 2.4565e-06
21110.0 2.481e-06
21130.0 2.5039e-06
21150.0 2.5261e-06
21170.0 2.546e-06
21190.0 2.5631e-06
21210.0 2.5786e-06
21230.0 2.5917e-06
21250.0 2.6015e-06
21270.0 2.6084e-06
21290.0 2.6126e-06
21310.0 2.6135e-06
21330.0 2.6111e-06
21350.0 2.6054e-06
21370.0 2.5962e-06
21390.0 2.5836e-06
21410.0 2.5678e-06
21430.0 2.5474e-06
21450.0 2.524e-06
21470.0 2.498e-06
21490.0 2.4682e-06
21510.0 2.4349e-06
21530.0 2.4004e-06
21550.0 2.3637e-06
21570.0 2.3238e-06
21590.0 2.2836e-06
21610.0 2.2438e-06
21630.0 2.203e-06
21650.0 2.1618e-06
21670.0 2.1247e-06
21690.0 2.089e-06
21710.0 2.0551e-06
21730.0 2.0252e-06
21750.0 1.9997e-06
21770.0 1.977e-06
21790.0 1.9593e-06
21810.0 1.9469e-06
21830.0 1.9391e-06
21850.0 1.9363e-06
21870.0 1.9387e-06
21890.0 1.9456e-06
21910.0 1.9575e-06
21930.0 1.974e-06
21950.0 1.994e-06
21970.0 2.0181e-06
21990.0 2.0473e-06
22010.0 2.0783e-06
22030.0 2.1115e-06
22050.0 2.1483e-06
22070.0 2.187e-06
22090.0 2.2254e-06
22110.0 2.2657e-06
22130.0 2.3076e-06
22150.0 2.3482e-06
22170.0 2.3877e-06
22190.0 2.4279e-06
22210.0 2.4664e-06
22230.0 2.5008e-06
22250.0 2.5337e-06
22270.0 2.564e-06
22290.0 2.5899e-06
22310.0 2.6118e-06
22330.0 2.6304e-06
22350.0 2.6439e-06
22370.0 2.6522e-06
22390.0 2.6556e-06
22410.0 2.6536e-06
22430.0 2.6463e-06
22450.0 2.634e-06
22470.0 2.6158e-06
22490.0 2.5925e-06
22510.0 2.5651e-06
22530.0 2.5316e-06
22550.0 2.4925e-06
22570.0 2.4505e-06
22590.0 2.4046e-06
22610.0 2.3531e-06
22630.0 2.2986e-06
