#lamb flux
1010.0 1.1071e-06
1030.0 1.2362e-06
1050.0 1.3847e-06
1070.0 1.5519e-06
1090.0 1.7418e-06
1110.0 1.9366e-06
1130.0 2.1326e-06
1150.0 2.338e-06
1170.0 2.5498e-06
1190.0 2.7507e-06
1210.0 2.9543e-06
1230.0 3.1647e-06
1250.0 3.3708e-06
1270.0 3.5711e-06
1290.0 3.7827e-06
1310.0 3.9941e-06
1330.0 4.1969e-06
1350.0 4.402e-06
1370.0 4.6137e-06
1390.0 4.8201e-06
1410.0 5.0205e-06
1430.0 5.2299e-06
1450.0 5.4393e-06
1470.0 5.6416e-06
1490.0 5.8462e-06
1510.0 6.0622e-06
1530.0 6.2669e-06
1550.0 6.4687e-06
1570.0 6.6775e-06
1590.0 6.8864e-06
1610.0 7.0859e-06
1630.0 7.2915e-06
1650.0 7.5023e-06
1670.0 7.706e-06
1690.0 7.9069e-06
1710.0 8.1154e-06
1730.0 8.3247e-06
1750.0 8.521e-06
1770.0 8.7228e-06
1790.0 8.9282e-06
1810.0 9.1263e-06
1830.0 9.3201e-06
1850.0 9.5254e-06
1870.0 9.7243e-06
1890.0 9.9152e-06
1910.0 1.0109e-05
1930.0 1.0306e-05
1950.0 1.0492e-05
1970.0 1.0674e-05
1990.0 1.0862e-05
2010.0 1.1044e-05
2030.0 1.1216e-05
2050.0 1.1392e-05
2070.0 1.1569e-05
2090.0 1.1732e-05
2110.0 1.189e-05
2130.0 1.2051e-05
2150.0 1.2203e-05
2170.0 1.2343e-05
2190.0 1.2484e-05
2210.0 1.2622e-05
2230.0 1.2746e-05
2250.0 1.2864e-05
2270.0 1.2984e-05
2290.0 1.3091e-05
2310.0 1.3184e-05
2330.0 1.3276e-05
2350.0 1.3362e-05
2370.0 1.3433e-05
2390.0 1.3501e-05
2410.0 1.3573e-05
2430.0 1.3637e-05
2450.0 1.37e-05
2470.0 1.3779e-05
2490.0 1.3883e-05
2510.0 1.4011e-05
2530.0 1.4219e-05
2550.0 1.4588e-05
2570.0 1.5192e-05
2590.0 1.6119e-05
2610.0 1.7625e-05
2630.0 1.9743e-05
2650.0 2.2329e-05
2670.0 2.5386e-05
2690.0 2.8764e-05
2710.0 3.1948e-05
2730.0 3.4706e-05
2750.0 3.7084e-05
2770.0 3.8838e-05
2790.0 3.9976e-05
2810.0 4.0708e-05
2830.0 4.1178e-05
2850.0 4.1388e-05
2870.0 4.1487e-05
2890.0 4.1561e-05
2910.0 4.1607e-05
2930.0 4.1612e-05
2950.0 4.164e-05
2970.0 4.1683e-05
2990.0 4.1703e-05
3010.0 0.00064602
3030.0 0.00064546
3050.0 0.00064483
3070.0 0.00064342
3090.0 0.00064167
3110.0 0.00063881
3130.0 0.0006339
3150.0 0.00062654
3170.0 0.00061603
3190.0 0.0006026
3210.0 0.00058759
3230.0 0.00057252
3250.0 0.00056301
3270.0 0.00055516
3290.0 0.00055876
3310.0 0.00056205
3330.0 0.0005763
3350.0 0.00059664
3370.0 0.0006232
3390.0 0.00065513
3410.0 0.00068897
3430.0 0.00072632
3450.0 0.00076837
3470.0 0.00081315
3490.0 0.00085929
3510.0 0.00091102
3530.0 0.00096608
3550.0 0.0010178
3570.0 0.0010693
3590.0 0.0011304
3610.0 0.0011851
3630.0 0.0012502
3650.0 0.0013139
3670.0 0.001375
3690.0 0.0014186
3710.0 0.0014427
3730.0 0.0014567
3750.0 0.0014527
3770.0 0.0013271
3790.0 0.0011965
3810.0 0.0011126
3830.0 0.00096463
3850.0 0.00074046
3870.0 0.00064836
3890.0 0.00097162
3910.0 0.0014442
3930.0 0.0017517
3950.0 0.0018054
3970.0 0.0017829
3990.0 0.0019885
4010.0 0.0023724
4030.0 0.0024798
4050.0 0.0022956
4070.0 0.0020006
4090.0 0.0018394
4110.0 0.0021531
4130.0 0.0022549
4150.0 0.0021581
4170.0 0.0022133
4190.0 0.002252
4210.0 0.0022552
4230.0 0.0024236
4250.0 0.0026348
4270.0 0.0026699
4290.0 0.0026878
4310.0 0.0028127
4330.0 0.0030996
4350.0 0.003523
4370.0 0.0039699
4390.0 0.0038335
4410.0 0.0032354
4430.0 0.0027173
4450.0 0.0022957
4470.0 0.0022463
4490.0 0.0024453
4510.0 0.0027151
4530.0 0.00296
4550.0 0.0034049
4570.0 0.004093
4590.0 0.0050337
4610.0 0.0063542
4630.0 0.0075952
4650.0 0.0078426
4670.0 0.0077712
4690.0 0.0082605
4710.0 0.0085226
4730.0 0.0072187
4750.0 0.0053078
4770.0 0.0043568
4790.0 0.0041311
4810.0 0.003866
4830.0 0.003716
4850.0 0.0042896
4870.0 0.005401
4890.0 0.0060461
4910.0 0.0052476
4930.0 0.004778
4950.0 0.0054292
4970.0 0.0071657
4990.0 0.0090305
5010.0 0.0093552
5030.0 0.0077244
5050.0 0.0051784
5070.0 0.0036307
5090.0 0.0032054
5110.0 0.0033215
5130.0 0.0035663
5150.0 0.0037296
5170.0 0.0037198
5190.0 0.0036623
5210.0 0.0035639
5230.0 0.003641
5250.0 0.0038852
5270.0 0.004525
5290.0 0.0052199
5310.0 0.0056668
5330.0 0.0058235
5350.0 0.0059535
5370.0 0.0064724
5390.0 0.006819
5410.0 0.0065459
5430.0 0.0057602
5450.0 0.0054265
5470.0 0.0061901
5490.0 0.0078956
5510.0 0.0098773
5530.0 0.010797
5550.0 0.010552
5570.0 0.0096846
5590.0 0.0087593
5610.0 0.0081248
5630.0 0.0077992
5650.0 0.0079831
5670.0 0.0078122
5690.0 0.0073536
5710.0 0.0069358
5730.0 0.006179
5750.0 0.0046996
5770.0 0.0041349
5790.0 0.0045861
5810.0 0.005469
5830.0 0.0061044
5850.0 0.0065142
5870.0 0.0066093
5890.0 0.006326
5910.0 0.0060539
5930.0 0.0060957
5950.0 0.0064021
5970.0 0.0066396
5990.0 0.0062374
6010.0 0.005266
6030.0 0.0043727
6050.0 0.0038492
6070.0 0.0038566
6090.0 0.0043078
6110.0 0.0046247
6130.0 0.0044276
6150.0 0.0042137
6170.0 0.0046909
6190.0 0.0056266
6210.0 0.0067127
6230.0 0.0074988
6250.0 0.0074289
6270.0 0.0066764
6290.0 0.0055341
6310.0 0.0044257
6330.0 0.0035816
6350.0 0.0032984
6370.0 0.0036176
6390.0 0.0042136
6410.0 0.0048268
6430.0 0.005594
6450.0 0.0065294
6470.0 0.0080624
6490.0 0.0098183
6510.0 0.010691
6530.0 0.009994
6550.0 0.0092957
6570.0 0.0091841
6590.0 0.0088395
6610.0 0.0080734
6630.0 0.0073038
6650.0 0.0068041
6670.0 0.0069992
6690.0 0.0069324
6710.0 0.0061741
6730.0 0.0056898
6750.0 0.0050736
6770.0 0.0049568
6790.0 0.005299
6810.0 0.0056077
6830.0 0.0057285
6850.0 0.005604
6870.0 0.005382
6890.0 0.0052652
6910.0 0.0049833
6930.0 0.0047415
6950.0 0.0047535
6970.0 0.0048788
6990.0 0.0054016
7010.0 0.0057193
7030.0 0.0052478
7050.0 0.0048821
7070.0 0.004605
7090.0 0.0040876
7110.0 0.0037997
7130.0 0.0038817
7150.0 0.0040174
7170.0 0.0042112
7190.0 0.0041996
7210.0 0.0042327
7230.0 0.004515
7250.0 0.0052063
7270.0 0.0060276
7290.0 0.0064142
7310.0 0.0061734
7330.0 0.0055002
7350.0 0.0049637
7370.0 0.0048926
7390.0 0.0049588
7410.0 0.0051651
7430.0 0.0056865
7450.0 0.006176
7470.0 0.0068303
7490.0 0.00743
7510.0 0.0066496
7530.0 0.006392
7550.0 0.0054554
7570.0 0.0046462
7590.0 0.0038667
7610.0 0.0035723
7630.0 0.0037567
7650.0 0.0043178
7670.0 0.0047319
7690.0 0.0053124
7710.0 0.0059322
7730.0 0.0062369
7750.0 0.0062957
7770.0 0.0063003
7790.0 0.0062583
7810.0 0.0064827
7830.0 0.0062775
7850.0 0.0056895
7870.0 0.0051987
7890.0 0.0048477
7910.0 0.0043766
7930.0 0.00378
7950.0 0.0034634
7970.0 0.0034275
7990.0 0.0035795
8010.0 0.0038045
8030.0 0.0038663
8050.0 0.0038574
8070.0 0.0037552
8090.0 0.003726
8110.0 0.0035578
8130.0 0.0033509
8150.0 0.0031579
8170.0 0.0031127
8190.0 0.0031882
8210.0 0.0031769
8230.0 0.0032551
8250.0 0.0032444
8270.0 0.002894
8290.0 0.0022178
8310.0 0.0015334
8330.0 0.0010212
8350.0 0.00072469
8370.0 0.00084581
8390.0 0.00094348
8410.0 0.0012035
8430.0 0.0014593
8450.0 0.0015972
8470.0 0.0016463
8490.0 0.0017116
8510.0 0.0018007
8530.0 0.0020295
8550.0 0.0022454
8570.0 0.0026212
8590.0 0.003199
8610.0 0.0037278
8630.0 0.0043563
8650.0 0.0049031
8670.0 0.0048285
8690.0 0.0045239
8710.0 0.0042861
8730.0 0.0040574
8750.0 0.0038998
8770.0 0.0037937
8790.0 0.00366
8810.0 0.0033986
8830.0 0.003106
8850.0 0.0027029
8870.0 0.0023377
8890.0 0.0021036
8910.0 0.0021297
8930.0 0.0020989
8950.0 0.0022376
8970.0 0.0022867
8990.0 0.0023796
9010.0 0.002483
9030.0 0.0024952
9050.0 0.0024999
9070.0 0.0025041
9090.0 0.0025073
9110.0 0.0025083
9130.0 0.002511
9150.0 0.0025155
9170.0 0.0025196
9190.0 0.002523
9210.0 0.0025326
9230.0 0.002537
9250.0 0.0025427
9270.0 0.0025488
9290.0 0.0025554
9310.0 0.0025626
9330.0 0.0025704
9350.0 0.0025784
9370.0 0.002587
9390.0 0.0025961
9410.0 0.0026055
9430.0 0.0026152
9450.0 0.0026255
9470.0 0.0026363
9490.0 0.0026472
9510.0 0.0026586
9530.0 0.0026706
9550.0 0.0026826
9570.0 0.002695
9590.0 0.0027079
9610.0 0.0027211
9630.0 0.0027344
9650.0 0.0027482
9670.0 0.0027625
9690.0 0.0027768
9710.0 0.0027914
9730.0 0.0028064
9750.0 0.0028216
9770.0 0.0028368
9790.0 0.0028524
9810.0 0.0028684
9830.0 0.0028843
9850.0 0.0029004
9870.0 0.002917
9890.0 0.0029336
9910.0 0.0029501
9930.0 0.0029669
9950.0 0.0029836
9970.0 0.0030005
9990.0 0.0030174
10010.0 0.0029905
10030.0 0.0030073
10050.0 0.0030237
10070.0 0.0030389
10090.0 0.0030564
10110.0 0.0030733
10130.0 0.0030902
10150.0 0.0031071
10170.0 0.0031237
10190.0 0.0031399
10210.0 0.0031562
10230.0 0.0031726
10250.0 0.0031884
10270.0 0.003204
10290.0 0.0032199
10310.0 0.0032352
10330.0 0.0032499
10350.0 0.0032649
10370.0 0.0032796
10390.0 0.0032937
10410.0 0.0033076
10430.0 0.0033216
10450.0 0.0033349
10470.0 0.0033477
10490.0 0.0033604
10510.0 0.0033728
10530.0 0.0033843
10550.0 0.0033956
10570.0 0.0034068
10590.0 0.0034173
10610.0 0.0034271
10630.0 0.0034369
10650.0 0.0034462
10670.0 0.0034545
10690.0 0.0034626
10710.0 0.0034704
10730.0 0.0034774
10750.0 0.0034834
10770.0 0.0034897
10790.0 0.0034952
10810.0 0.0034998
10830.0 0.0035039
10850.0 0.0035075
10870.0 0.0035091
10890.0 0.0035089
10910.0 0.0035061
10930.0 0.0034987
10950.0 0.0034835
10970.0 0.0034596
10990.0 0.0034263
11010.0 0.0033335
11030.0 0.0032721
11050.0 0.0032009
11070.0 0.0031182
11090.0 0.0030207
11110.0 0.0029216
11130.0 0.0028199
11150.0 0.0027124
11170.0 0.0026044
11190.0 0.002503
11210.0 0.0024019
11230.0 0.0023027
11250.0 0.0022124
11270.0 0.0021299
11290.0 0.0020516
11310.0 0.0019813
11330.0 0.0019224
11350.0 0.0018689
11370.0 0.001821
11390.0 0.0017799
11410.0 0.0017434
11430.0 0.0017078
11450.0 0.0016743
11470.0 0.001642
11490.0 0.001608
11510.0 0.001571
11530.0 0.0015331
11550.0 0.0014929
11570.0 0.0014483
11590.0 0.0014017
11610.0 0.0013547
11630.0 0.0013048
11650.0 0.0012533
11670.0 0.0012044
11690.0 0.0011569
11710.0 0.0011099
11730.0 0.0010662
11750.0 0.0010272
11770.0 0.00099018
11790.0 0.00095648
11810.0 0.0009273
11830.0 0.00090135
11850.0 0.00087723
11870.0 0.00085628
11890.0 0.00083775
11910.0 0.00081999
11930.0 0.00080281
11950.0 0.00078646
11970.0 0.0007698
11990.0 0.00075204
12010.0 0.00073398
12030.0 0.00071557
12050.0 0.00069603
12070.0 0.00067566
12090.0 0.00065632
12110.0 0.00063709
12130.0 0.00061823
12150.0 0.00060111
12170.0 0.0005862
12190.0 0.00057295
12210.0 0.00056276
12230.0 0.00055596
12250.0 0.00055241
12270.0 0.00055251
12290.0 0.00055615
12310.0 0.00056283
12330.0 0.00057312
12350.0 0.00058636
12370.0 0.00060141
12390.0 0.00061858
12410.0 0.00063833
12430.0 0.00065765
12450.0 0.00067688
12470.0 0.00069646
12490.0 0.00071504
12510.0 0.00073128
12530.0 0.00074628
12550.0 0.00075943
12570.0 0.00076954
12590.0 0.00077691
12610.0 0.0007819
12630.0 0.00078391
12650.0 0.00078298
12670.0 0.00077962
12690.0 0.0007738
12710.0 0.00076591
12730.0 0.00075627
12750.0 0.00074459
12770.0 0.00073166
12790.0 0.00071794
12810.0 0.0007031
12830.0 0.0006872
12850.0 0.0006713
12870.0 0.00065503
12890.0 0.00063785
12910.0 0.00062048
12930.0 0.00060327
12950.0 0.00058517
12970.0 0.00056642
12990.0 0.00054821
13010.0 0.00052979
13030.0 0.00051077
13050.0 0.00049206
13070.0 0.00047419
13090.0 0.00045608
13110.0 0.00043847
13130.0 0.00042222
13150.0 0.00040699
13170.0 0.00039242
13190.0 0.00037982
13210.0 0.00036917
13230.0 0.00036002
13250.0 0.00035278
13270.0 0.00034771
13290.0 0.0003445
13310.0 0.00034327
13330.0 0.00034396
13350.0 0.00034629
13370.0 0.00035033
13390.0 0.00035591
13410.0 0.00036217
13430.0 0.00036937
13450.0 0.00037743
13470.0 0.00038557
13490.0 0.00039352
13510.0 0.00040188
13530.0 0.00040973
13550.0 0.00041669
13570.0 0.0004231
13590.0 0.00042894
13610.0 0.0004337
13630.0 0.00043747
13650.0 0.0004406
13670.0 0.00044281
13690.0 0.00044408
13710.0 0.00044464
13730.0 0.00044448
13750.0 0.00044356
13770.0 0.00044204
13790.0 0.00043991
13810.0 0.00043722
13830.0 0.00043412
13850.0 0.00043048
13870.0 0.00042632
13890.0 0.00042186
13910.0 0.00041705
13930.0 0.00041173
13950.0 0.00040612
13970.0 0.00040053
13990.0 0.00039462
14010.0 0.00038854
14030.0 0.00038262
14050.0 0.00037684
14070.0 0.00037096
14090.0 0.00036552
14110.0 0.00036058
14130.0 0.000356
14150.0 0.00035191
14170.0 0.00034859
14190.0 0.00034593
14210.0 0.00034391
14230.0 0.00034269
14250.0 0.00034223
14270.0 0.00034253
14290.0 0.00034365
14310.0 0.00034541
14330.0 0.00034781
14350.0 0.00035092
14370.0 0.00035449
14390.0 0.00035832
14410.0 0.00036267
14430.0 0.00036732
14450.0 0.00037198
14470.0 0.00037679
14490.0 0.00038197
14510.0 0.00038707
14530.0 0.00039217
14550.0 0.00039767
14570.0 0.00040353
14590.0 0.00040955
14610.0 0.00041623
14630.0 0.00042388
14650.0 0.0004321
14670.0 0.00044104
14690.0 0.00045125
14710.0 0.00046266
14730.0 0.00047432
14750.0 0.00048708
14770.0 0.00050096
14790.0 0.00051504
14810.0 0.00052912
14830.0 0.00054423
14850.0 0.00055894
14870.0 0.00057264
14890.0 0.00058586
14910.0 0.00059834
14930.0 0.00060906
14950.0 0.00061807
14970.0 0.00062574
14990.0 0.00063148
15010.0 0.00063534
15030.0 0.00063775
15050.0 0.00063884
15070.0 0.00063888
15090.0 0.00063826
15110.0 0.00063718
15130.0 0.00063583
15150.0 0.00063443
15170.0 0.0006329
15190.0 0.00063131
15210.0 0.00062979
15230.0 0.00062828
15250.0 0.00062671
15270.0 0.00062516
15290.0 0.0006237
15310.0 0.0006222
15330.0 0.00062067
15350.0 0.00061921
15370.0 0.00061777
15390.0 0.00061623
15410.0 0.00061475
15430.0 0.00061333
15450.0 0.00061186
15470.0 0.00061035
15490.0 0.00060894
15510.0 0.00060752
15530.0 0.00060604
15550.0 0.0006046
15570.0 0.0006032
15590.0 0.00060174
15610.0 0.00060024
15630.0 0.00059884
15650.0 0.00059742
15670.0 0.00059594
15690.0 0.00059451
15710.0 0.00059312
15730.0 0.00059166
15750.0 0.00059018
15770.0 0.00058877
15790.0 0.00058734
15810.0 0.00058582
15830.0 0.00058437
15850.0 0.00058296
15870.0 0.00058148
15890.0 0.00057999
15910.0 0.00057857
15930.0 0.00057711
15950.0 0.00057557
15970.0 0.00057409
15990.0 0.00057264
16010.0 0.00057111
16030.0 0.00056956
16050.0 0.00056811
16070.0 0.00056661
16090.0 0.00056505
16110.0 0.00056354
16130.0 0.00056205
16150.0 0.00056045
16170.0 0.00055887
16190.0 0.00055735
16210.0 0.00055578
16230.0 0.00055416
16250.0 0.0005526
16270.0 0.00055105
16290.0 0.00054941
16310.0 0.00054779
16330.0 0.00054621
16350.0 0.00054458
16370.0 0.00054286
16390.0 0.00054125
16410.0 0.00053962
16430.0 0.00053793
16450.0 0.00053624
16470.0 0.00053461
16490.0 0.0005329
16510.0 0.00053115
16530.0 0.00052946
16550.0 0.00052776
16570.0 0.00052597
16590.0 0.0005242
16610.0 0.0005225
16630.0 0.00052073
16650.0 0.00051892
16670.0 0.00051717
16690.0 0.00051541
16710.0 0.00051353
16730.0 0.00051171
16750.0 0.00050992
16770.0 0.00050807
16790.0 0.00050618
16810.0 0.00050436
16830.0 0.00050252
16850.0 0.00050061
16870.0 0.00049872
16890.0 0.00049687
16910.0 0.00049493
16930.0 0.00049296
16950.0 0.00049108
16970.0 0.00048916
16990.0 0.00048717
17010.0 0.00048522
17030.0 0.00048332
17050.0 0.00048131
17070.0 0.0004793
17090.0 0.00047734
17110.0 0.00047536
17130.0 0.00047328
17150.0 0.00047127
17170.0 0.00046929
17190.0 0.00046723
17210.0 0.00046517
17230.0 0.00046317
17250.0 0.00046112
17270.0 0.00045899
17290.0 0.00045693
17310.0 0.00045488
17330.0 0.00045276
17350.0 0.00045062
17370.0 0.00044858
17390.0 0.00044647
17410.0 0.00044432
17430.0 0.00044222
17450.0 0.00044014
17470.0 0.00043793
17490.0 0.00043577
17510.0 0.00043366
17530.0 0.0004315
17550.0 0.0004293
17570.0 0.00042716
17590.0 0.00042503
17610.0 0.00042282
17630.0 0.00042063
17650.0 0.00041848
17670.0 0.00041629
17690.0 0.00041401
17710.0 0.00041185
17730.0 0.00040968
17750.0 0.00040744
17770.0 0.00040523
17790.0 0.00040307
17810.0 0.00040083
17830.0 0.00039857
17850.0 0.00039637
17870.0 0.00039417
17890.0 0.00039189
17910.0 0.00038964
17930.0 0.00038747
17950.0 0.00038522
17970.0 0.00038296
17990.0 0.00038076
18010.0 0.00037855
18030.0 0.00037624
18050.0 0.00037399
18070.0 0.00037179
18090.0 0.00036953
18110.0 0.00036724
18130.0 0.00036504
18150.0 0.00036282
18170.0 0.00036054
18190.0 0.0003583
18210.0 0.0003561
18230.0 0.00035382
18250.0 0.00035152
18270.0 0.00034932
18290.0 0.00034709
18310.0 0.00034481
18330.0 0.00034258
18350.0 0.0003404
18370.0 0.00033813
18390.0 0.00033587
18410.0 0.00033367
18430.0 0.00033144
18450.0 0.00032915
18470.0 0.00032693
18490.0 0.00032475
18510.0 0.00032251
18530.0 0.00032027
18550.0 0.0003181
18570.0 0.00031588
18590.0 0.00031362
18610.0 0.00031142
18630.0 0.00030925
18650.0 0.00030702
18670.0 0.00030478
18690.0 0.00030265
18710.0 0.00030046
18730.0 0.00029824
18750.0 0.00029607
18770.0 0.00029394
18790.0 0.0002917
18810.0 0.00028951
18830.0 0.00028738
18850.0 0.00028522
18870.0 0.00028302
18890.0 0.0002809
18910.0 0.00027879
18930.0 0.0002766
18950.0 0.00027446
18970.0 0.00027236
18990.0 0.00027023
19010.0 0.00026803
19030.0 0.00026595
19050.0 0.00026387
19070.0 0.00026173
19090.0 0.00025962
19110.0 0.00025758
19130.0 0.00025546
19150.0 0.00025334
19170.0 0.00025129
19190.0 0.00024923
19210.0 0.00024712
19230.0 0.00024504
19250.0 0.00024304
19270.0 0.00024097
19290.0 0.00023891
19310.0 0.0002369
19330.0 0.00023489
19350.0 0.0002328
19370.0 0.00023078
19390.0 0.0002288
19410.0 0.00022677
19430.0 0.00022474
19450.0 0.00022279
19470.0 0.00022081
19490.0 0.00021879
19510.0 0.00021682
19530.0 0.00021489
19550.0 0.00021289
19570.0 0.00021089
19590.0 0.00020898
19610.0 0.00020704
19630.0 0.00020507
19650.0 0.00020315
19670.0 0.00020127
19690.0 0.00019931
19710.0 0.00019738
19730.0 0.0001955
19750.0 0.00019361
19770.0 0.00019165
19790.0 0.00018978
19810.0 0.00018793
19830.0 0.00018603
19850.0 0.00018414
19870.0 0.00018229
19890.0 0.00018036
19910.0 0.00017833
19930.0 0.00017627
19950.0 0.00017408
19970.0 0.00017159
19990.0 0.00016885
20010.0 0.00016751
20030.0 0.00016421
20050.0 0.0001606
20070.0 0.00015689
20090.0 0.00015311
20110.0 0.00014907
20130.0 0.00014518
20150.0 0.00014151
20170.0 0.00013788
20190.0 0.00013437
20210.0 0.0001312
20230.0 0.00012823
20250.0 0.00012538
20270.0 0.00012284
20290.0 0.00012061
20310.0 0.00011858
20330.0 0.00011679
20350.0 0.00011537
20370.0 0.00011421
20390.0 0.0001133
20410.0 0.00011268
20430.0 0.00011233
20450.0 0.00011223
20470.0 0.0001124
20490.0 0.00011279
20510.0 0.0001134
20530.0 0.00011424
20550.0 0.00011526
20570.0 0.00011638
20590.0 0.0001177
20610.0 0.00011914
20630.0 0.00012061
20650.0 0.00012217
20670.0 0.00012387
20690.0 0.00012551
20710.0 0.00012714
20730.0 0.00012883
20750.0 0.00013051
20770.0 0.00013209
20790.0 0.0001337
20810.0 0.00013534
20830.0 0.00013693
20850.0 0.00013849
20870.0 0.00014014
20890.0 0.00014181
20910.0 0.00014343
20930.0 0.00014511
20950.0 0.00014689
20970.0 0.00014864
20990.0 0.00015038
21010.0 0.00015224
21030.0 0.00015407
21050.0 0.00015582
21070.0 0.00015757
21090.0 0.00015931
21110.0 0.00016087
21130.0 0.00016231
21150.0 0.00016368
21170.0 0.00016488
21190.0 0.00016588
21210.0 0.00016674
21230.0 0.00016743
21250.0 0.00016788
21270.0 0.00016814
21290.0 0.00016819
21310.0 0.00016803
21330.0 0.00016766
21350.0 0.00016707
21370.0 0.00016625
21390.0 0.00016524
21410.0 0.00016404
21430.0 0.00016255
21450.0 0.00016091
21470.0 0.00015914
21490.0 0.00015715
21510.0 0.00015499
21530.0 0.00015279
21550.0 0.00015049
21570.0 0.00014803
21590.0 0.0001456
21610.0 0.00014324
21630.0 0.00014084
21650.0 0.00013847
21670.0 0.00013637
21690.0 0.00013439
21710.0 0.00013255
21730.0 0.00013097
21750.0 0.00012967
21770.0 0.00012857
21790.0 0.00012777
21810.0 0.00012729
21830.0 0.0001271
21850.0 0.00012723
21870.0 0.00012765
21890.0 0.00012834
21910.0 0.00012933
21930.0 0.00013059
21950.0 0.00013205
21970.0 0.00013374
21990.0 0.00013574
22010.0 0.00013783
22030.0 0.00014003
22050.0 0.00014244
22070.0 0.00014495
22090.0 0.00014742
22110.0 0.00014998
22130.0 0.00015263
22150.0 0.00015517
22170.0 0.00015763
22190.0 0.00016011
22210.0 0.00016245
22230.0 0.00016453
22250.0 0.00016648
22270.0 0.00016825
22290.0 0.00016972
22310.0 0.00017093
22330.0 0.0001719
22350.0 0.00017254
22370.0 0.00017284
22390.0 0.00017281
22410.0 0.00017242
22430.0 0.0001717
22450.0 0.00017066
22470.0 0.00016923
22490.0 0.00016748
22510.0 0.00016549
22530.0 0.00016311
22550.0 0.00016037
22570.0 0.00015749
22590.0 0.00015436
22610.0 0.00015091
22630.0 0.00014729
22650.0 0.00014366
22670.0 0.00013975
22690.0 0.00013569
22710.0 0.00013168
22730.0 0.00012763
22750.0 0.00012332
22770.0 0.00011919
22790.0 0.00011523
22810.0 0.00011122
22830.0 0.0001073
22850.0 0.0001037
22870.0 0.00010024
22890.0 9.6878e-05
22910.0 9.387e-05
22930.0 9.1207e-05
22950.0 8.8777e-05
22970.0 8.6662e-05
22990.0 8.5052e-05
23010.0 8.3781e-05
23030.0 8.289e-05
23050.0 8.2437e-05
