#lamb flux
1010.0 4.4309e-07
1030.0 4.6317e-07
1050.0 4.8646e-07
1070.0 5.1274e-07
1090.0 5.4262e-07
1110.0 5.7342e-07
1130.0 6.0458e-07
1150.0 6.3738e-07
1170.0 6.7142e-07
1190.0 7.0397e-07
1210.0 7.3719e-07
1230.0 7.7174e-07
1250.0 8.0592e-07
1270.0 8.3947e-07
1290.0 8.7513e-07
1310.0 9.1112e-07
1330.0 9.4608e-07
1350.0 9.8179e-07
1370.0 1.019e-06
1390.0 1.0557e-06
1410.0 1.0919e-06
1430.0 1.13e-06
1450.0 1.1685e-06
1470.0 1.2063e-06
1490.0 1.2449e-06
1510.0 1.2858e-06
1530.0 1.3252e-06
1550.0 1.3645e-06
1570.0 1.4052e-06
1590.0 1.4463e-06
1610.0 1.4859e-06
1630.0 1.5268e-06
1650.0 1.5687e-06
1670.0 1.6093e-06
1690.0 1.6494e-06
1710.0 1.6906e-06
1730.0 1.7317e-06
1750.0 1.7702e-06
1770.0 1.8092e-06
1790.0 1.8483e-06
1810.0 1.8855e-06
1830.0 1.9213e-06
1850.0 1.9583e-06
1870.0 1.9933e-06
1890.0 2.0261e-06
1910.0 2.0584e-06
1930.0 2.0904e-06
1950.0 2.1195e-06
1970.0 2.147e-06
1990.0 2.1746e-06
2010.0 2.2004e-06
2030.0 2.2238e-06
2050.0 2.2473e-06
2070.0 2.2707e-06
2090.0 2.2913e-06
2110.0 2.3111e-06
2130.0 2.3315e-06
2150.0 2.3509e-06
2170.0 2.3688e-06
2190.0 2.3881e-06
2210.0 2.4079e-06
2230.0 2.427e-06
2250.0 2.447e-06
2270.0 2.4694e-06
2290.0 2.4923e-06
2310.0 2.5156e-06
2330.0 2.5418e-06
2350.0 2.5705e-06
2370.0 2.6004e-06
2390.0 2.6335e-06
2410.0 2.671e-06
2430.0 2.7108e-06
2450.0 2.7533e-06
2470.0 2.8002e-06
2490.0 2.8516e-06
2510.0 2.9068e-06
2530.0 2.9727e-06
2550.0 3.0607e-06
2570.0 3.1851e-06
2590.0 3.365e-06
2610.0 3.645e-06
2630.0 4.0469e-06
2650.0 4.5634e-06
2670.0 5.2099e-06
2690.0 5.9793e-06
2710.0 6.7908e-06
2730.0 7.6014e-06
2750.0 8.425e-06
2770.0 9.2044e-06
2790.0 9.922e-06
2810.0 1.0617e-05
2830.0 1.1325e-05
2850.0 1.2012e-05
2870.0 1.2716e-05
2890.0 1.3469e-05
2910.0 1.4257e-05
2930.0 1.5062e-05
2950.0 1.5923e-05
2970.0 1.6835e-05
2990.0 1.7766e-05
3010.0 3.5287e-05
3030.0 3.7181e-05
3050.0 3.9082e-05
3070.0 4.084e-05
3090.0 4.2375e-05
3110.0 4.3329e-05
3130.0 4.3269e-05
3150.0 4.171e-05
3170.0 3.7675e-05
3190.0 3.1033e-05
3210.0 2.1856e-05
3230.0 1.1467e-05
3250.0 2.2498e-05
3270.0 9.3245e-06
3290.0 3.5012e-05
3310.0 6.46e-06
3330.0 6.3763e-06
3350.0 1.0001e-05
3370.0 1.4184e-05
3390.0 1.8652e-05
3410.0 2.3106e-05
3430.0 2.7772e-05
3450.0 3.2431e-05
3470.0 3.6692e-05
3490.0 3.9486e-05
3510.0 4.968e-05
3530.0 6.8556e-05
3550.0 6.7475e-05
3570.0 5.4926e-05
3590.0 7.9777e-05
3610.0 4.7972e-05
3630.0 8.2966e-05
3650.0 9.6266e-05
3670.0 0.00012571
3690.0 0.00011804
3710.0 7.8944e-05
3730.0 0.00010743
3750.0 0.00011143
3770.0 0.0001159
3790.0 0.00010534
3810.0 9.53e-05
3830.0 0.00014182
3850.0 0.00015964
3870.0 0.00019964
3890.0 0.00018733
3910.0 0.00016561
3930.0 0.00017519
3950.0 0.0001961
3970.0 0.00025059
3990.0 0.00018877
4010.0 0.00011353
4030.0 0.00016775
4050.0 0.00019432
4070.0 0.00022219
4090.0 0.00018566
4110.0 0.0001199
4130.0 0.00016876
4150.0 0.00015722
4170.0 0.00016384
4190.0 0.0001608
4210.0 0.00020764
4230.0 0.00014096
4250.0 0.00016781
4270.0 0.00016745
4290.0 0.0001676
4310.0 0.0002093
4330.0 0.00021565
4350.0 0.00016339
4370.0 0.00013769
4390.0 0.00017379
4410.0 0.00018051
4430.0 0.00013691
4450.0 0.00013688
4470.0 0.00016255
4490.0 0.00011752
4510.0 0.00014822
4530.0 0.00015854
4550.0 0.0002107
4570.0 0.00031084
4590.0 0.00029487
4610.0 0.00018682
4630.0 0.00031594
4650.0 0.00046251
4670.0 0.00042598
4690.0 0.00024478
4710.0 0.00027051
4730.0 0.00035859
4750.0 0.00031888
4770.0 0.00023907
4790.0 0.00015885
4810.0 0.0002361
4830.0 0.00027466
4850.0 0.00023782
4870.0 6.8024e-05
4890.0 0.00025666
4910.0 0.00036557
4930.0 0.00039259
4950.0 0.00038247
4970.0 0.00022464
4990.0 0.00026289
5010.0 0.00031831
5030.0 0.00035793
5050.0 0.00035699
5070.0 0.00025485
5090.0 0.00020658
5110.0 0.00019322
5130.0 0.00017208
5150.0 0.00019551
5170.0 0.00016872
5190.0 0.00021207
5210.0 0.00021208
5230.0 0.00023321
5250.0 0.00029521
5270.0 0.00024182
5290.0 0.00023607
5310.0 0.0003584
5330.0 0.00041818
5350.0 0.00034474
5370.0 0.00029624
5390.0 0.00034464
5410.0 0.00044065
5430.0 0.00048708
5450.0 0.00051883
5470.0 0.00051398
5490.0 0.00049777
5510.0 0.00058716
5530.0 0.00060981
5550.0 0.00065786
5570.0 0.00070389
5590.0 0.00069866
5610.0 0.00065796
5630.0 0.00063389
5650.0 0.00064888
5670.0 0.00064128
5690.0 0.00054262
5710.0 0.00052681
5730.0 0.00054012
5750.0 0.00059418
5770.0 0.00051155
5790.0 0.00046659
5810.0 0.00047174
5830.0 0.0004987
5850.0 0.00045438
5870.0 0.00046047
5890.0 0.00055727
5910.0 0.00052909
5930.0 0.00042694
5950.0 0.00036804
5970.0 0.00040062
5990.0 0.00037079
6010.0 0.00035149
6030.0 0.00036193
6050.0 0.0003372
6070.0 0.00024812
6090.0 0.00022164
6110.0 0.00029455
6130.0 0.00034313
6150.0 0.00035985
6170.0 0.00034579
6190.0 0.00031939
6210.0 0.00031283
6230.0 0.00037172
6250.0 0.0003436
6270.0 0.00031467
6290.0 0.00029114
6310.0 0.00027598
6330.0 0.00026248
6350.0 0.00022819
6370.0 0.0002259
6390.0 0.00026866
6410.0 0.00033587
6430.0 0.00038602
6450.0 0.00035934
6470.0 0.00034854
6490.0 0.00044171
6510.0 0.00051278
6530.0 0.00048346
6550.0 0.00046163
6570.0 0.00046901
6590.0 0.00045484
6610.0 0.00049672
6630.0 0.00046452
6650.0 0.00040513
6670.0 0.00036415
6690.0 0.00035703
6710.0 0.00044712
6730.0 0.00040765
6750.0 0.00034189
6770.0 0.00030254
6790.0 0.0003184
6810.0 0.00035889
6830.0 0.00035125
6850.0 0.00031639
6870.0 0.00033002
6890.0 0.00032605
6910.0 0.00030719
6930.0 0.00035507
6950.0 0.00032598
6970.0 0.00030095
6990.0 0.00029856
7010.0 0.00028679
7030.0 0.00027175
7050.0 0.00026474
7070.0 0.00029317
7090.0 0.00027915
7110.0 0.00023926
7130.0 0.00019146
7150.0 0.00017465
7170.0 0.00023688
7190.0 0.00025874
7210.0 0.00024694
7230.0 0.00025541
7250.0 0.0002352
7270.0 0.00022237
7290.0 0.00024897
7310.0 0.00028237
7330.0 0.00027835
7350.0 0.00025997
7370.0 0.00024545
7390.0 0.00025494
7410.0 0.00029847
7430.0 0.00032736
7450.0 0.00034602
7470.0 0.00033745
7490.0 0.00035147
7510.0 0.00033961
7530.0 0.00033693
7550.0 0.00033497
7570.0 0.00029528
7590.0 0.00029273
7610.0 0.0002832
7630.0 0.00025909
7650.0 0.00028206
7670.0 0.00030777
7690.0 0.00033396
7710.0 0.00037539
7730.0 0.00039917
7750.0 0.00041673
7770.0 0.00041872
7790.0 0.0004597
7810.0 0.00047308
7830.0 0.00043136
7850.0 0.00043458
7870.0 0.00041414
7890.0 0.00043516
7910.0 0.00041259
7930.0 0.00041645
7950.0 0.00036304
7970.0 0.00037197
7990.0 0.00035568
8010.0 0.00036154
8030.0 0.00035976
8050.0 0.00037894
8070.0 0.0003641
8090.0 0.0003653
8110.0 0.00035737
8130.0 0.00035729
8150.0 0.00034064
8170.0 0.00033171
8190.0 0.0003281
8210.0 0.00033075
8230.0 0.0002917
8250.0 0.00026653
8270.0 0.00023454
8290.0 0.00019662
8310.0 0.00017072
8330.0 0.00013674
8350.0 0.00011403
8370.0 0.00011551
8390.0 0.00011553
8410.0 0.00012132
8430.0 0.00015064
8450.0 0.00016182
8470.0 0.00017179
8490.0 0.00019851
8510.0 0.0002161
8530.0 0.00024836
8550.0 0.00029367
8570.0 0.00032538
8590.0 0.00034661
8610.0 0.00037949
8630.0 0.00042123
8650.0 0.00042889
8670.0 0.00043457
8690.0 0.00045215
8710.0 0.00044589
8730.0 0.00043872
8750.0 0.00041178
8770.0 0.00041225
8790.0 0.00040691
8810.0 0.00037497
8830.0 0.00037585
8850.0 0.00035139
8870.0 0.00033738
8890.0 0.00030627
8910.0 0.00033167
8930.0 0.00030198
8950.0 0.00029822
8970.0 0.0003004
8990.0 0.00029044
9010.0 0.00029678
9030.0 0.00028384
9050.0 0.00028231
9070.0 0.00028209
9090.0 0.0002818
9110.0 0.00028164
9130.0 0.00028126
9150.0 0.00028077
9170.0 0.00027956
9190.0 0.00027722
9210.0 0.00028081
9230.0 0.00027934
9250.0 0.00027832
9270.0 0.00027737
9290.0 0.00027647
9310.0 0.00027559
9330.0 0.00027472
9350.0 0.00027383
9370.0 0.00027292
9390.0 0.00027199
9410.0 0.00027103
9430.0 0.00027004
9450.0 0.00026902
9470.0 0.00026798
9490.0 0.00026693
9510.0 0.00026586
9530.0 0.00026477
9550.0 0.00026367
9570.0 0.00026254
9590.0 0.00026141
9610.0 0.00026026
9630.0 0.0002591
9650.0 0.00025794
9670.0 0.00025677
9690.0 0.00025559
9710.0 0.00025442
9730.0 0.00025323
9750.0 0.00025205
9770.0 0.00025088
9790.0 0.0002497
9810.0 0.00024852
9830.0 0.00024735
9850.0 0.00024619
9870.0 0.00024503
9890.0 0.00024388
9910.0 0.00024274
9930.0 0.0002416
9950.0 0.00023987
9970.0 0.00023894
9990.0 0.000238
10010.0 0.00023704
10030.0 0.00023604
10050.0 0.00023497
10070.0 0.00023361
10090.0 0.00023273
10110.0 0.00023182
10130.0 0.0002309
10150.0 0.00022999
10170.0 0.00022906
10190.0 0.00022811
10210.0 0.00022721
10230.0 0.00022633
10250.0 0.00022544
10270.0 0.00022457
10290.0 0.00022375
10310.0 0.00022292
10330.0 0.00022209
10350.0 0.00022132
10370.0 0.00022057
10390.0 0.00021981
10410.0 0.00021908
10430.0 0.0002184
10450.0 0.00021772
10470.0 0.00021704
10490.0 0.00021641
10510.0 0.00021581
10530.0 0.00021518
10550.0 0.0002146
10570.0 0.00021405
10590.0 0.00021351
10610.0 0.00021298
10630.0 0.00021249
10650.0 0.00021202
10670.0 0.00021154
10690.0 0.0002111
10710.0 0.00021069
10730.0 0.00021028
10750.0 0.00020987
10770.0 0.00020952
10790.0 0.00020918
10810.0 0.00020884
10830.0 0.00020852
10850.0 0.00020822
10870.0 0.00020787
10890.0 0.00020746
10910.0 0.00020698
10930.0 0.00020631
10950.0 0.00020529
10970.0 0.00020389
10990.0 0.00020207
11010.0 0.00020095
11030.0 0.00019797
11050.0 0.00019448
11070.0 0.00019046
11090.0 0.00018579
11110.0 0.00018112
11130.0 0.00017643
11150.0 0.00017159
11170.0 0.00016683
11190.0 0.00016244
11210.0 0.00015812
11230.0 0.00015391
11250.0 0.00015008
11270.0 0.00014656
11290.0 0.00014316
11310.0 0.00014003
11330.0 0.00013733
11350.0 0.00013478
11370.0 0.00013239
11390.0 0.00013025
11410.0 0.00012829
11430.0 0.0001263
11450.0 0.00012443
11470.0 0.00012264
11490.0 0.0001208
11510.0 0.00011884
11530.0 0.00011693
11550.0 0.00011495
11570.0 0.00011278
11590.0 0.00011054
11610.0 0.00010829
11630.0 0.00010586
11650.0 0.00010327
11670.0 0.00010074
11690.0 9.8186e-05
11710.0 9.5511e-05
11730.0 9.2878e-05
11750.0 9.0396e-05
11770.0 8.7864e-05
11790.0 8.5376e-05
11810.0 8.3077e-05
11830.0 8.089e-05
11850.0 7.8694e-05
11870.0 7.6699e-05
11890.0 7.4897e-05
11910.0 7.3143e-05
11930.0 7.1474e-05
11950.0 6.9979e-05
11970.0 6.8552e-05
11990.0 6.7129e-05
12010.0 6.5819e-05
12030.0 6.4602e-05
12050.0 6.339e-05
12070.0 6.2198e-05
12090.0 6.1147e-05
12110.0 6.013e-05
12130.0 5.9139e-05
12150.0 5.8253e-05
12170.0 5.7487e-05
12190.0 5.6765e-05
12210.0 5.6185e-05
12230.0 5.5782e-05
12250.0 5.5534e-05
12270.0 5.5464e-05
12290.0 5.5611e-05
12310.0 5.5964e-05
12330.0 5.654e-05
12350.0 5.7339e-05
12370.0 5.8322e-05
12390.0 5.9499e-05
12410.0 6.0899e-05
12430.0 6.2375e-05
12450.0 6.393e-05
12470.0 6.5586e-05
12490.0 6.7262e-05
12510.0 6.8866e-05
12530.0 7.0462e-05
12550.0 7.2013e-05
12570.0 7.3429e-05
12590.0 7.4725e-05
12610.0 7.5933e-05
12630.0 7.7003e-05
12650.0 7.7908e-05
12670.0 7.8702e-05
12690.0 7.9375e-05
12710.0 7.992e-05
12730.0 8.0354e-05
12750.0 8.068e-05
12770.0 8.09e-05
12790.0 8.1032e-05
12810.0 8.1065e-05
12830.0 8.0994e-05
12850.0 8.0855e-05
12870.0 8.0635e-05
12890.0 8.0304e-05
12910.0 7.9892e-05
12930.0 7.942e-05
12950.0 7.8826e-05
12970.0 7.8119e-05
12990.0 7.7373e-05
13010.0 7.6544e-05
13030.0 7.5594e-05
13050.0 7.4588e-05
13070.0 7.3571e-05
13090.0 7.245e-05
13110.0 7.1278e-05
13130.0 7.0138e-05
13150.0 6.9001e-05
13170.0 6.782e-05
13190.0 6.6743e-05
13210.0 6.578e-05
13230.0 6.4877e-05
13250.0 6.4089e-05
13270.0 6.3473e-05
13290.0 6.2986e-05
13310.0 6.2625e-05
13330.0 6.2427e-05
13350.0 6.2362e-05
13370.0 6.2399e-05
13390.0 6.2521e-05
13410.0 6.2695e-05
13430.0 6.2884e-05
13450.0 6.3055e-05
13470.0 6.3174e-05
13490.0 6.3221e-05
13510.0 6.3157e-05
13530.0 6.2973e-05
13550.0 6.2682e-05
13570.0 6.2269e-05
13590.0 6.1725e-05
13610.0 6.1107e-05
13630.0 6.0438e-05
13650.0 5.9683e-05
13670.0 5.8902e-05
13690.0 5.8143e-05
13710.0 5.738e-05
13730.0 5.6603e-05
13750.0 5.5908e-05
13770.0 5.5258e-05
13790.0 5.4625e-05
13810.0 5.4037e-05
13830.0 5.3507e-05
13850.0 5.2984e-05
13870.0 5.2472e-05
13890.0 5.1991e-05
13910.0 5.152e-05
13930.0 5.1032e-05
13950.0 5.0548e-05
13970.0 5.0088e-05
13990.0 4.9618e-05
14010.0 4.9147e-05
14030.0 4.8704e-05
14050.0 4.8282e-05
14070.0 4.7864e-05
14090.0 4.749e-05
14110.0 4.716e-05
14130.0 4.6864e-05
14150.0 4.6608e-05
14170.0 4.6406e-05
14190.0 4.6247e-05
14210.0 4.6133e-05
14230.0 4.6066e-05
14250.0 4.6041e-05
14270.0 4.6064e-05
14290.0 4.6135e-05
14310.0 4.6239e-05
14330.0 4.6381e-05
14350.0 4.6565e-05
14370.0 4.6772e-05
14390.0 4.6989e-05
14410.0 4.7233e-05
14430.0 4.7486e-05
14450.0 4.7724e-05
14470.0 4.7954e-05
14490.0 4.8187e-05
14510.0 4.8386e-05
14530.0 4.8556e-05
14550.0 4.8719e-05
14570.0 4.887e-05
14590.0 4.9e-05
14610.0 4.9137e-05
14630.0 4.9299e-05
14650.0 4.9475e-05
14670.0 4.9679e-05
14690.0 4.9944e-05
14710.0 5.0278e-05
14730.0 5.0646e-05
14750.0 5.1097e-05
14770.0 5.1644e-05
14790.0 5.2249e-05
14810.0 5.2904e-05
14830.0 5.3686e-05
14850.0 5.4514e-05
14870.0 5.5343e-05
14890.0 5.621e-05
14910.0 5.7097e-05
14930.0 5.79e-05
14950.0 5.8601e-05
14970.0 5.9222e-05
14990.0 5.9678e-05
15010.0 5.9949e-05
15030.0 6.0069e-05
15050.0 6.0045e-05
15070.0 5.9886e-05
15090.0 5.9643e-05
15110.0 5.9341e-05
15130.0 5.9003e-05
15150.0 5.8649e-05
15170.0 5.8282e-05
15190.0 5.7909e-05
15210.0 5.7537e-05
15230.0 5.7165e-05
15250.0 5.6789e-05
15270.0 5.6414e-05
15290.0 5.6045e-05
15310.0 5.5672e-05
15330.0 5.5299e-05
15350.0 5.493e-05
15370.0 5.4562e-05
15390.0 5.4189e-05
15410.0 5.3821e-05
15430.0 5.3455e-05
15450.0 5.3089e-05
15470.0 5.2721e-05
15490.0 5.2359e-05
15510.0 5.1999e-05
15530.0 5.1636e-05
15550.0 5.1276e-05
15570.0 5.092e-05
15590.0 5.0562e-05
15610.0 5.0204e-05
15630.0 4.9853e-05
15650.0 4.9502e-05
15670.0 4.915e-05
15690.0 4.8802e-05
15710.0 4.8459e-05
15730.0 4.8113e-05
15750.0 4.7769e-05
15770.0 4.743e-05
15790.0 4.7092e-05
15810.0 4.6752e-05
15830.0 4.6418e-05
15850.0 4.6088e-05
15870.0 4.5757e-05
15890.0 4.5428e-05
15910.0 4.5105e-05
15930.0 4.4782e-05
15950.0 4.4458e-05
15970.0 4.4139e-05
15990.0 4.3824e-05
16010.0 4.3508e-05
16030.0 4.3194e-05
16050.0 4.2887e-05
16070.0 4.258e-05
16090.0 4.2273e-05
16110.0 4.1972e-05
16130.0 4.1674e-05
16150.0 4.1373e-05
16170.0 4.1077e-05
16190.0 4.0786e-05
16210.0 4.0496e-05
16230.0 4.0206e-05
16250.0 3.9921e-05
16270.0 3.964e-05
16290.0 3.9358e-05
16310.0 3.9079e-05
16330.0 3.8805e-05
16350.0 3.8532e-05
16370.0 3.8258e-05
16390.0 3.7991e-05
16410.0 3.7727e-05
16430.0 3.7462e-05
16450.0 3.72e-05
16470.0 3.6945e-05
16490.0 3.6688e-05
16510.0 3.6432e-05
16530.0 3.6182e-05
16550.0 3.5934e-05
16570.0 3.5686e-05
16590.0 3.5441e-05
16610.0 3.5202e-05
16630.0 3.4962e-05
16650.0 3.4724e-05
16670.0 3.4491e-05
16690.0 3.426e-05
16710.0 3.4027e-05
16730.0 3.3799e-05
16750.0 3.3576e-05
16770.0 3.3352e-05
16790.0 3.3129e-05
16810.0 3.2913e-05
16830.0 3.2698e-05
16850.0 3.2482e-05
16870.0 3.227e-05
16890.0 3.2062e-05
16910.0 3.1854e-05
16930.0 3.1646e-05
16950.0 3.1444e-05
16970.0 3.1244e-05
16990.0 3.1043e-05
17010.0 3.0847e-05
17030.0 3.0654e-05
17050.0 3.046e-05
17070.0 3.0268e-05
17090.0 3.0081e-05
17110.0 2.9895e-05
17130.0 2.9707e-05
17150.0 2.9525e-05
17170.0 2.9346e-05
17190.0 2.9166e-05
17210.0 2.8988e-05
17230.0 2.8815e-05
17250.0 2.8642e-05
17270.0 2.8468e-05
17290.0 2.8299e-05
17310.0 2.8133e-05
17330.0 2.7965e-05
17350.0 2.78e-05
17370.0 2.7639e-05
17390.0 2.7479e-05
17410.0 2.7319e-05
17430.0 2.7162e-05
17450.0 2.7008e-05
17470.0 2.6852e-05
17490.0 2.6699e-05
17510.0 2.655e-05
17530.0 2.6401e-05
17550.0 2.6251e-05
17570.0 2.6107e-05
17590.0 2.5964e-05
17610.0 2.582e-05
17630.0 2.5678e-05
17650.0 2.554e-05
17670.0 2.5401e-05
17690.0 2.5261e-05
17710.0 2.5127e-05
17730.0 2.4995e-05
17750.0 2.4861e-05
17770.0 2.473e-05
17790.0 2.4602e-05
17810.0 2.4473e-05
17830.0 2.4344e-05
17850.0 2.422e-05
17870.0 2.4096e-05
17890.0 2.3971e-05
17910.0 2.3849e-05
17930.0 2.373e-05
17950.0 2.3611e-05
17970.0 2.3492e-05
17990.0 2.3376e-05
18010.0 2.3262e-05
18030.0 2.3145e-05
18050.0 2.3032e-05
18070.0 2.2921e-05
18090.0 2.281e-05
18110.0 2.2698e-05
18130.0 2.2592e-05
18150.0 2.2485e-05
18170.0 2.2377e-05
18190.0 2.2272e-05
18210.0 2.2169e-05
18230.0 2.2065e-05
18250.0 2.1961e-05
18270.0 2.1861e-05
18290.0 2.1762e-05
18310.0 2.1661e-05
18330.0 2.1564e-05
18350.0 2.1468e-05
18370.0 2.1371e-05
18390.0 2.1275e-05
18410.0 2.1182e-05
18430.0 2.1089e-05
18450.0 2.0994e-05
18470.0 2.0903e-05
18490.0 2.0814e-05
18510.0 2.0723e-05
18530.0 2.0633e-05
18550.0 2.0547e-05
18570.0 2.046e-05
18590.0 2.0371e-05
18610.0 2.0286e-05
18630.0 2.0203e-05
18650.0 2.0117e-05
18670.0 2.0033e-05
18690.0 1.9953e-05
18710.0 1.9871e-05
18730.0 1.9789e-05
18750.0 1.9709e-05
18770.0 1.9632e-05
18790.0 1.955e-05
18810.0 1.9472e-05
18830.0 1.9396e-05
18850.0 1.9319e-05
18870.0 1.9242e-05
18890.0 1.9168e-05
18910.0 1.9094e-05
18930.0 1.9019e-05
18950.0 1.8945e-05
18970.0 1.8874e-05
18990.0 1.8802e-05
19010.0 1.8727e-05
19030.0 1.8658e-05
19050.0 1.8589e-05
19070.0 1.8518e-05
19090.0 1.8449e-05
19110.0 1.8382e-05
19130.0 1.8313e-05
19150.0 1.8244e-05
19170.0 1.8179e-05
19190.0 1.8113e-05
19210.0 1.8045e-05
19230.0 1.7979e-05
19250.0 1.7917e-05
19270.0 1.7852e-05
19290.0 1.7787e-05
19310.0 1.7725e-05
19330.0 1.7663e-05
19350.0 1.7598e-05
19370.0 1.7537e-05
19390.0 1.7477e-05
19410.0 1.7415e-05
19430.0 1.7353e-05
19450.0 1.7294e-05
19470.0 1.7235e-05
19490.0 1.7175e-05
19510.0 1.7116e-05
19530.0 1.7059e-05
19550.0 1.7e-05
19570.0 1.694e-05
19590.0 1.6885e-05
19610.0 1.6828e-05
19630.0 1.677e-05
19650.0 1.6714e-05
19670.0 1.666e-05
19690.0 1.6603e-05
19710.0 1.6547e-05
19730.0 1.6494e-05
19750.0 1.6439e-05
19770.0 1.6383e-05
19790.0 1.633e-05
19810.0 1.6277e-05
19830.0 1.6223e-05
19850.0 1.6168e-05
19870.0 1.6115e-05
19890.0 1.6057e-05
19910.0 1.5991e-05
19930.0 1.5918e-05
19950.0 1.5833e-05
19970.0 1.5724e-05
19990.0 1.5588e-05
20010.0 1.5433e-05
20030.0 1.5242e-05
20050.0 1.5018e-05
20070.0 1.4777e-05
20090.0 1.452e-05
20110.0 1.4233e-05
20130.0 1.3947e-05
20150.0 1.3669e-05
20170.0 1.3385e-05
20190.0 1.3101e-05
20210.0 1.2838e-05
20230.0 1.2584e-05
20250.0 1.2333e-05
20270.0 1.2104e-05
20290.0 1.1898e-05
20310.0 1.1706e-05
20330.0 1.1531e-05
20350.0 1.1391e-05
20370.0 1.1274e-05
20390.0 1.1179e-05
20410.0 1.1114e-05
20430.0 1.1077e-05
20450.0 1.1065e-05
20470.0 1.1082e-05
20490.0 1.1125e-05
20510.0 1.1193e-05
20530.0 1.1287e-05
20550.0 1.1402e-05
20570.0 1.1532e-05
20590.0 1.1682e-05
20610.0 1.1847e-05
20630.0 1.2016e-05
20650.0 1.2194e-05
20670.0 1.2383e-05
20690.0 1.2564e-05
20710.0 1.2738e-05
20730.0 1.2909e-05
20750.0 1.3071e-05
20770.0 1.3213e-05
20790.0 1.3344e-05
20810.0 1.3463e-05
20830.0 1.3561e-05
20850.0 1.3641e-05
20870.0 1.3707e-05
20890.0 1.3757e-05
20910.0 1.3789e-05
20930.0 1.3808e-05
20950.0 1.3814e-05
20970.0 1.3809e-05
20990.0 1.3794e-05
21010.0 1.3768e-05
21030.0 1.3733e-05
21050.0 1.3692e-05
21070.0 1.3642e-05
21090.0 1.3584e-05
21110.0 1.3523e-05
21130.0 1.3458e-05
21150.0 1.3386e-05
21170.0 1.3312e-05
21190.0 1.3239e-05
21210.0 1.3162e-05
21230.0 1.3085e-05
21250.0 1.3014e-05
21270.0 1.2946e-05
21290.0 1.2882e-05
21310.0 1.2825e-05
21330.0 1.2779e-05
21350.0 1.2739e-05
21370.0 1.2708e-05
21390.0 1.2689e-05
21410.0 1.268e-05
21430.0 1.2682e-05
21450.0 1.2696e-05
21470.0 1.272e-05
21490.0 1.2754e-05
21510.0 1.2799e-05
21530.0 1.2851e-05
21550.0 1.2912e-05
21570.0 1.2982e-05
21590.0 1.3059e-05
21610.0 1.3139e-05
21630.0 1.3228e-05
21650.0 1.3325e-05
21670.0 1.342e-05
21690.0 1.3521e-05
21710.0 1.363e-05
21730.0 1.374e-05
21750.0 1.3851e-05
21770.0 1.3972e-05
21790.0 1.4096e-05
21810.0 1.422e-05
21830.0 1.4349e-05
21850.0 1.4486e-05
21870.0 1.4624e-05
21890.0 1.476e-05
21910.0 1.4904e-05
21930.0 1.5051e-05
21950.0 1.5194e-05
21970.0 1.5339e-05
21990.0 1.5491e-05
22010.0 1.5634e-05
22030.0 1.5771e-05
22050.0 1.5908e-05
22070.0 1.6038e-05
22090.0 1.6155e-05
22110.0 1.6265e-05
22130.0 1.6364e-05
22150.0 1.6448e-05
22170.0 1.6515e-05
22190.0 1.6568e-05
22210.0 1.6601e-05
22230.0 1.6613e-05
22250.0 1.6606e-05
22270.0 1.6576e-05
22290.0 1.6526e-05
22310.0 1.6456e-05
22330.0 1.6359e-05
22350.0 1.6242e-05
22370.0 1.6108e-05
22390.0 1.5953e-05
22410.0 1.5772e-05
22430.0 1.5585e-05
22450.0 1.5384e-05
22470.0 1.5162e-05
22490.0 1.4933e-05
22510.0 1.4704e-05
22530.0 1.4458e-05
22550.0 1.4204e-05
22570.0 1.3959e-05
22590.0 1.3715e-05
22610.0 1.3464e-05
