#lamb flux
1010.0 2.8583e-07
1030.0 3.1916e-07
1050.0 3.575e-07
1070.0 4.0066e-07
1090.0 4.4969e-07
1110.0 4.9997e-07
1130.0 5.5058e-07
1150.0 6.036e-07
1170.0 6.5829e-07
1190.0 7.1015e-07
1210.0 7.6272e-07
1230.0 8.1704e-07
1250.0 8.7026e-07
1270.0 9.2196e-07
1290.0 9.7658e-07
1310.0 1.0312e-06
1330.0 1.0835e-06
1350.0 1.1365e-06
1370.0 1.1911e-06
1390.0 1.2444e-06
1410.0 1.2961e-06
1430.0 1.3502e-06
1450.0 1.4043e-06
1470.0 1.4565e-06
1490.0 1.5093e-06
1510.0 1.5651e-06
1530.0 1.6179e-06
1550.0 1.6701e-06
1570.0 1.724e-06
1590.0 1.7779e-06
1610.0 1.8294e-06
1630.0 1.8825e-06
1650.0 1.9369e-06
1670.0 1.9895e-06
1690.0 2.0414e-06
1710.0 2.0952e-06
1730.0 2.1492e-06
1750.0 2.1999e-06
1770.0 2.252e-06
1790.0 2.305e-06
1810.0 2.3562e-06
1830.0 2.4062e-06
1850.0 2.4592e-06
1870.0 2.5105e-06
1890.0 2.5598e-06
1910.0 2.6098e-06
1930.0 2.6607e-06
1950.0 2.7088e-06
1970.0 2.7558e-06
1990.0 2.8042e-06
2010.0 2.8512e-06
2030.0 2.8957e-06
2050.0 2.941e-06
2070.0 2.9868e-06
2090.0 3.0288e-06
2110.0 3.0698e-06
2130.0 3.1112e-06
2150.0 3.1505e-06
2170.0 3.1865e-06
2190.0 3.2231e-06
2210.0 3.2587e-06
2230.0 3.2908e-06
2250.0 3.3212e-06
2270.0 3.3521e-06
2290.0 3.3798e-06
2310.0 3.4038e-06
2330.0 3.4275e-06
2350.0 3.4497e-06
2370.0 3.4682e-06
2390.0 3.4856e-06
2410.0 3.5041e-06
2430.0 3.5208e-06
2450.0 3.537e-06
2470.0 3.5573e-06
2490.0 3.5841e-06
2510.0 3.6173e-06
2530.0 3.6711e-06
2550.0 3.7663e-06
2570.0 3.9221e-06
2590.0 4.1616e-06
2610.0 4.5503e-06
2630.0 5.0971e-06
2650.0 5.7646e-06
2670.0 6.5541e-06
2690.0 7.4262e-06
2710.0 8.2482e-06
2730.0 8.9602e-06
2750.0 9.5742e-06
2770.0 1.0027e-05
2790.0 1.0321e-05
2810.0 1.051e-05
2830.0 1.0631e-05
2850.0 1.0685e-05
2870.0 1.0711e-05
2890.0 1.073e-05
2910.0 1.0742e-05
2930.0 1.0743e-05
2950.0 1.075e-05
2970.0 1.0761e-05
2990.0 1.0767e-05
3010.0 0.00016679
3030.0 0.00016664
3050.0 0.00016648
3070.0 0.00016611
3090.0 0.00016566
3110.0 0.00016492
3130.0 0.00016365
3150.0 0.00016176
3170.0 0.00015904
3190.0 0.00015558
3210.0 0.0001517
3230.0 0.00014781
3250.0 0.00014535
3270.0 0.00014333
3290.0 0.00014426
3310.0 0.00014511
3330.0 0.00014878
3350.0 0.00015404
3370.0 0.00016089
3390.0 0.00016914
3410.0 0.00017787
3430.0 0.00018752
3450.0 0.00019837
3470.0 0.00020993
3490.0 0.00022185
3510.0 0.0002352
3530.0 0.00024942
3550.0 0.00026276
3570.0 0.00027606
3590.0 0.00029184
3610.0 0.00030595
3630.0 0.00032276
3650.0 0.00033922
3670.0 0.00035499
3690.0 0.00036624
3710.0 0.00037247
3730.0 0.00037608
3750.0 0.00037504
3770.0 0.00034261
3790.0 0.00030891
3810.0 0.00028725
3830.0 0.00024904
3850.0 0.00019117
3870.0 0.00016739
3890.0 0.00025085
3910.0 0.00037285
3930.0 0.00045225
3950.0 0.00046612
3970.0 0.0004603
3990.0 0.00051337
4010.0 0.00061249
4030.0 0.00064022
4050.0 0.00059265
4070.0 0.00051649
4090.0 0.00047489
4110.0 0.00055586
4130.0 0.00058215
4150.0 0.00055717
4170.0 0.00057142
4190.0 0.00058141
4210.0 0.00058222
4230.0 0.0006257
4250.0 0.00068023
4270.0 0.00068931
4290.0 0.00069392
4310.0 0.00072616
4330.0 0.00080022
4350.0 0.00090954
4370.0 0.0010249
4390.0 0.0009897
4410.0 0.0008353
4430.0 0.00070154
4450.0 0.00059269
4470.0 0.00057995
4490.0 0.00063131
4510.0 0.00070098
4530.0 0.0007642
4550.0 0.00087906
4570.0 0.0010567
4590.0 0.0012996
4610.0 0.0016405
4630.0 0.0019609
4650.0 0.0020247
4670.0 0.0020063
4690.0 0.0021326
4710.0 0.0022003
4730.0 0.0018637
4750.0 0.0013703
4770.0 0.0011248
4790.0 0.0010666
4810.0 0.00099809
4830.0 0.00095938
4850.0 0.0011074
4870.0 0.0013944
4890.0 0.0015609
4910.0 0.0013548
4930.0 0.0012335
4950.0 0.0014017
4970.0 0.00185
4990.0 0.0023314
5010.0 0.0024153
5030.0 0.0019942
5050.0 0.0013369
5070.0 0.00093734
5090.0 0.00082756
5110.0 0.00085752
5130.0 0.00092072
5150.0 0.00096289
5170.0 0.00096035
5190.0 0.00094551
5210.0 0.00092022
5230.0 0.00094041
5250.0 0.0010038
5270.0 0.0011694
5290.0 0.0013494
5310.0 0.0014653
5330.0 0.0015063
5350.0 0.0015403
5370.0 0.0016751
5390.0 0.0017653
5410.0 0.0016951
5430.0 0.0014921
5450.0 0.001406
5470.0 0.0016044
5490.0 0.002047
5510.0 0.0025615
5530.0 0.0028009
5550.0 0.0027381
5570.0 0.0025138
5590.0 0.0022742
5610.0 0.0021101
5630.0 0.0020262
5650.0 0.0020746
5670.0 0.0020308
5690.0 0.0019121
5710.0 0.001804
5730.0 0.0016077
5750.0 0.0012231
5770.0 0.0010765
5790.0 0.0011943
5810.0 0.0014247
5830.0 0.0015907
5850.0 0.0016979
5870.0 0.0017233
5890.0 0.0016499
5910.0 0.0015794
5930.0 0.0015908
5950.0 0.0016713
5970.0 0.0017338
5990.0 0.0016293
6010.0 0.0013758
6030.0 0.0011424
6050.0 0.0010056
6070.0 0.0010076
6090.0 0.0011254
6110.0 0.0012082
6130.0 0.0011567
6150.0 0.0011008
6170.0 0.0012255
6190.0 0.00147
6210.0 0.0017537
6230.0 0.0019591
6250.0 0.0019408
6270.0 0.0017442
6290.0 0.0014458
6310.0 0.0011562
6330.0 0.00093572
6350.0 0.00086171
6370.0 0.00094512
6390.0 0.0011008
6410.0 0.001261
6430.0 0.0014615
6450.0 0.0017058
6470.0 0.0021063
6490.0 0.0025651
6510.0 0.002793
6530.0 0.002611
6550.0 0.0024285
6570.0 0.0023994
6590.0 0.0023094
6610.0 0.0021092
6630.0 0.0019082
6650.0 0.0017776
6670.0 0.0018286
6690.0 0.0018111
6710.0 0.001613
6730.0 0.0014865
6750.0 0.0013255
6770.0 0.001295
6790.0 0.0013844
6810.0 0.001465
6830.0 0.0014966
6850.0 0.0014641
6870.0 0.0014061
6890.0 0.0013756
6910.0 0.0013019
6930.0 0.0012387
6950.0 0.0012419
6970.0 0.0012746
6990.0 0.0014112
7010.0 0.0014942
7030.0 0.001371
7050.0 0.0012755
7070.0 0.0012031
7090.0 0.0010679
7110.0 0.00099268
7130.0 0.0010141
7150.0 0.0010496
7170.0 0.0011002
7190.0 0.0010972
7210.0 0.0011058
7230.0 0.0011796
7250.0 0.0013602
7270.0 0.0015747
7290.0 0.0016757
7310.0 0.0016128
7330.0 0.001437
7350.0 0.0012968
7370.0 0.0012782
7390.0 0.0012955
7410.0 0.0013494
7430.0 0.0014856
7450.0 0.0016135
7470.0 0.0017844
7490.0 0.0019411
7510.0 0.0017371
7530.0 0.0016695
7550.0 0.0014247
7570.0 0.0012132
7590.0 0.0010094
7610.0 0.00093243
7630.0 0.00098042
7650.0 0.0011267
7670.0 0.0012345
7690.0 0.0013857
7710.0 0.0015472
7730.0 0.0016264
7750.0 0.0016414
7770.0 0.0016424
7790.0 0.0016311
7810.0 0.0016894
7830.0 0.0016356
7850.0 0.0014822
7870.0 0.0013541
7890.0 0.0012625
7910.0 0.0011396
7930.0 0.00098408
7950.0 0.00090153
7970.0 0.00089203
7990.0 0.00093143
8010.0 0.00098982
8030.0 0.0010058
8050.0 0.0010033
8070.0 0.00097653
8090.0 0.00096879
8110.0 0.00092491
8130.0 0.00087099
8150.0 0.00082069
8170.0 0.0008088
8190.0 0.0008283
8210.0 0.00082523
8230.0 0.00084542
8250.0 0.0008425
8270.0 0.0007514
8290.0 0.00057572
8310.0 0.00039801
8330.0 0.00026501
8350.0 0.00018804
8370.0 0.00021943
8390.0 0.00024473
8410.0 0.00031212
8430.0 0.0003784
8450.0 0.00041409
8470.0 0.00042676
8490.0 0.00044364
8510.0 0.00046665
8530.0 0.00052586
8550.0 0.00058171
8570.0 0.00067895
8590.0 0.0008285
8610.0 0.0009653
8630.0 0.0011279
8650.0 0.0012692
8670.0 0.0012498
8690.0 0.0011707
8710.0 0.001109
8730.0 0.0010497
8750.0 0.0010087
8770.0 0.00098116
8790.0 0.00094643
8810.0 0.00087871
8830.0 0.00080292
8850.0 0.00069862
8870.0 0.00060413
8890.0 0.00054354
8910.0 0.0005502
8930.0 0.00054215
8950.0 0.00057792
8970.0 0.00059049
8990.0 0.00061439
9010.0 0.00064105
9030.0 0.0006442
9050.0 0.0006454
9070.0 0.00064649
9090.0 0.00064733
9110.0 0.00064757
9130.0 0.00064827
9150.0 0.00064944
9170.0 0.00065049
9190.0 0.00065137
9210.0 0.00065384
9230.0 0.000655
9250.0 0.00065646
9270.0 0.00065803
9290.0 0.00065972
9310.0 0.0006616
9330.0 0.00066361
9350.0 0.00066568
9370.0 0.00066789
9390.0 0.00067024
9410.0 0.00067267
9430.0 0.00067516
9450.0 0.00067784
9470.0 0.00068061
9490.0 0.00068344
9510.0 0.00068638
9530.0 0.00068947
9550.0 0.00069258
9570.0 0.00069577
9590.0 0.00069911
9610.0 0.00070252
9630.0 0.00070596
9650.0 0.00070951
9670.0 0.0007132
9690.0 0.0007169
9710.0 0.00072066
9730.0 0.00072454
9750.0 0.00072847
9770.0 0.00073238
9790.0 0.00073642
9810.0 0.00074054
9830.0 0.00074466
9850.0 0.00074881
9870.0 0.00075309
9890.0 0.00075736
9910.0 0.00076163
9930.0 0.00076597
9950.0 0.00077028
9970.0 0.00077465
9990.0 0.00077902
10010.0 0.00077208
10030.0 0.00077641
10050.0 0.00078063
10070.0 0.00078457
10090.0 0.00078908
10110.0 0.00079345
10130.0 0.0007978
10150.0 0.00080218
10170.0 0.00080647
10190.0 0.00081063
10210.0 0.00081485
10230.0 0.00081907
10250.0 0.00082315
10270.0 0.0008272
10290.0 0.00083128
10310.0 0.00083523
10330.0 0.00083904
10350.0 0.00084291
10370.0 0.00084671
10390.0 0.00085035
10410.0 0.00085393
10430.0 0.00085755
10450.0 0.00086098
10470.0 0.00086428
10490.0 0.00086757
10510.0 0.00087077
10530.0 0.00087372
10550.0 0.00087664
10570.0 0.00087954
10590.0 0.00088225
10610.0 0.00088479
10630.0 0.00088732
10650.0 0.00088972
10670.0 0.00089187
10690.0 0.00089395
10710.0 0.00089596
10730.0 0.00089776
10750.0 0.00089933
10770.0 0.00090094
10790.0 0.00090237
10810.0 0.00090355
10830.0 0.0009046
10850.0 0.00090554
10870.0 0.00090597
10890.0 0.00090589
10910.0 0.00090518
10930.0 0.00090326
10950.0 0.00089935
10970.0 0.00089318
10990.0 0.00088458
11010.0 0.00086063
11030.0 0.00084477
11050.0 0.0008264
11070.0 0.00080504
11090.0 0.00077985
11110.0 0.00075427
11130.0 0.00072801
11150.0 0.00070027
11170.0 0.00067239
11190.0 0.0006462
11210.0 0.00062011
11230.0 0.00059448
11250.0 0.00057118
11270.0 0.00054989
11290.0 0.00052966
11310.0 0.00051151
11330.0 0.00049631
11350.0 0.0004825
11370.0 0.00047012
11390.0 0.00045952
11410.0 0.0004501
11430.0 0.0004409
11450.0 0.00043226
11470.0 0.00042391
11490.0 0.00041514
11510.0 0.00040559
11530.0 0.0003958
11550.0 0.00038542
11570.0 0.00037392
11590.0 0.00036189
11610.0 0.00034975
11630.0 0.00033687
11650.0 0.00032356
11670.0 0.00031095
11690.0 0.00029867
11710.0 0.00028654
11730.0 0.00027526
11750.0 0.00026519
11770.0 0.00025564
11790.0 0.00024694
11810.0 0.0002394
11830.0 0.0002327
11850.0 0.00022648
11870.0 0.00022107
11890.0 0.00021628
11910.0 0.0002117
11930.0 0.00020726
11950.0 0.00020304
11970.0 0.00019874
11990.0 0.00019416
12010.0 0.00018949
12030.0 0.00018474
12050.0 0.0001797
12070.0 0.00017444
12090.0 0.00016945
12110.0 0.00016448
12130.0 0.00015961
12150.0 0.00015519
12170.0 0.00015134
12190.0 0.00014792
12210.0 0.00014529
12230.0 0.00014353
12250.0 0.00014262
12270.0 0.00014264
12290.0 0.00014358
12310.0 0.00014531
12330.0 0.00014796
12350.0 0.00015138
12370.0 0.00015527
12390.0 0.0001597
12410.0 0.0001648
12430.0 0.00016979
12450.0 0.00017475
12470.0 0.00017981
12490.0 0.0001846
12510.0 0.0001888
12530.0 0.00019267
12550.0 0.00019607
12570.0 0.00019867
12590.0 0.00020058
12610.0 0.00020187
12630.0 0.00020238
12650.0 0.00020214
12670.0 0.00020128
12690.0 0.00019977
12710.0 0.00019774
12730.0 0.00019525
12750.0 0.00019223
12770.0 0.0001889
12790.0 0.00018535
12810.0 0.00018152
12830.0 0.00017742
12850.0 0.00017331
12870.0 0.00016911
12890.0 0.00016467
12910.0 0.00016019
12930.0 0.00015575
12950.0 0.00015107
12970.0 0.00014624
12990.0 0.00014153
13010.0 0.00013678
13030.0 0.00013187
13050.0 0.00012704
13070.0 0.00012242
13090.0 0.00011775
13110.0 0.0001132
13130.0 0.00010901
13150.0 0.00010507
13170.0 0.00010131
13190.0 9.8059e-05
13210.0 9.531e-05
13230.0 9.2946e-05
13250.0 9.1079e-05
13270.0 8.9769e-05
13290.0 8.8941e-05
13310.0 8.8623e-05
13330.0 8.8802e-05
13350.0 8.9404e-05
13370.0 9.0445e-05
13390.0 9.1886e-05
13410.0 9.3501e-05
13430.0 9.5362e-05
13450.0 9.7441e-05
13470.0 9.9544e-05
13490.0 0.0001016
13510.0 0.00010375
13530.0 0.00010578
13550.0 0.00010758
13570.0 0.00010923
13590.0 0.00011074
13610.0 0.00011197
13630.0 0.00011294
13650.0 0.00011375
13670.0 0.00011432
13690.0 0.00011465
13710.0 0.00011479
13730.0 0.00011475
13750.0 0.00011452
13770.0 0.00011412
13790.0 0.00011357
13810.0 0.00011288
13830.0 0.00011208
13850.0 0.00011114
13870.0 0.00011007
13890.0 0.00010891
13910.0 0.00010767
13930.0 0.0001063
13950.0 0.00010485
13970.0 0.00010341
13990.0 0.00010188
14010.0 0.00010031
14030.0 9.8783e-05
14050.0 9.729e-05
14070.0 9.5773e-05
14090.0 9.4367e-05
14110.0 9.3093e-05
14130.0 9.191e-05
14150.0 9.0853e-05
14170.0 8.9997e-05
14190.0 8.9309e-05
14210.0 8.8789e-05
14230.0 8.8474e-05
14250.0 8.8354e-05
14270.0 8.8432e-05
14290.0 8.8722e-05
14310.0 8.9175e-05
14330.0 8.9796e-05
14350.0 9.0599e-05
14370.0 9.1519e-05
14390.0 9.2509e-05
14410.0 9.3633e-05
14430.0 9.4832e-05
14450.0 9.6035e-05
14470.0 9.7277e-05
14490.0 9.8615e-05
14510.0 9.9932e-05
14530.0 0.00010125
14550.0 0.00010267
14570.0 0.00010418
14590.0 0.00010574
14610.0 0.00010746
14630.0 0.00010943
14650.0 0.00011156
14670.0 0.00011386
14690.0 0.0001165
14710.0 0.00011945
14730.0 0.00012246
14750.0 0.00012575
14770.0 0.00012933
14790.0 0.00013297
14810.0 0.0001366
14830.0 0.00014051
14850.0 0.0001443
14870.0 0.00014784
14890.0 0.00015125
14910.0 0.00015447
14930.0 0.00015724
14950.0 0.00015957
14970.0 0.00016155
14990.0 0.00016303
15010.0 0.00016403
15030.0 0.00016465
15050.0 0.00016493
15070.0 0.00016494
15090.0 0.00016478
15110.0 0.0001645
15130.0 0.00016415
15150.0 0.00016379
15170.0 0.0001634
15190.0 0.00016299
15210.0 0.0001626
15230.0 0.00016221
15250.0 0.0001618
15270.0 0.0001614
15290.0 0.00016102
15310.0 0.00016063
15330.0 0.00016024
15350.0 0.00015986
15370.0 0.00015949
15390.0 0.00015909
15410.0 0.00015871
15430.0 0.00015834
15450.0 0.00015796
15470.0 0.00015758
15490.0 0.00015721
15510.0 0.00015685
15530.0 0.00015646
15550.0 0.00015609
15570.0 0.00015573
15590.0 0.00015535
15610.0 0.00015497
15630.0 0.0001546
15650.0 0.00015424
15670.0 0.00015386
15690.0 0.00015349
15710.0 0.00015313
15730.0 0.00015275
15750.0 0.00015237
15770.0 0.000152
15790.0 0.00015164
15810.0 0.00015124
15830.0 0.00015087
15850.0 0.0001505
15870.0 0.00015012
15890.0 0.00014974
15910.0 0.00014937
15930.0 0.00014899
15950.0 0.0001486
15970.0 0.00014822
15990.0 0.00014784
16010.0 0.00014745
16030.0 0.00014705
16050.0 0.00014667
16070.0 0.00014628
16090.0 0.00014588
16110.0 0.00014549
16130.0 0.00014511
16150.0 0.00014469
16170.0 0.00014428
16190.0 0.00014389
16210.0 0.00014349
16230.0 0.00014307
16250.0 0.00014267
16270.0 0.00014227
16290.0 0.00014184
16310.0 0.00014142
16330.0 0.00014102
16350.0 0.0001406
16370.0 0.00014015
16390.0 0.00013974
16410.0 0.00013932
16430.0 0.00013888
16450.0 0.00013844
16470.0 0.00013802
16490.0 0.00013758
16510.0 0.00013713
16530.0 0.00013669
16550.0 0.00013625
16570.0 0.00013579
16590.0 0.00013533
16610.0 0.0001349
16630.0 0.00013444
16650.0 0.00013397
16670.0 0.00013352
16690.0 0.00013306
16710.0 0.00013258
16730.0 0.00013211
16750.0 0.00013165
16770.0 0.00013117
16790.0 0.00013068
16810.0 0.00013021
16830.0 0.00012974
16850.0 0.00012924
16870.0 0.00012876
16890.0 0.00012828
16910.0 0.00012778
16930.0 0.00012727
16950.0 0.00012678
16970.0 0.00012629
16990.0 0.00012577
17010.0 0.00012527
17030.0 0.00012478
17050.0 0.00012426
17070.0 0.00012374
17090.0 0.00012324
17110.0 0.00012272
17130.0 0.00012219
17150.0 0.00012167
17170.0 0.00012116
17190.0 0.00012063
17210.0 0.00012009
17230.0 0.00011958
17250.0 0.00011905
17270.0 0.0001185
17290.0 0.00011797
17310.0 0.00011744
17330.0 0.00011689
17350.0 0.00011634
17370.0 0.00011581
17390.0 0.00011527
17410.0 0.00011471
17430.0 0.00011417
17450.0 0.00011363
17470.0 0.00011306
17490.0 0.0001125
17510.0 0.00011196
17530.0 0.0001114
17550.0 0.00011083
17570.0 0.00011028
17590.0 0.00010973
17610.0 0.00010916
17630.0 0.00010859
17650.0 0.00010804
17670.0 0.00010747
17690.0 0.00010689
17710.0 0.00010633
17730.0 0.00010577
17750.0 0.00010519
17770.0 0.00010462
17790.0 0.00010406
17810.0 0.00010348
17830.0 0.0001029
17850.0 0.00010233
17870.0 0.00010176
17890.0 0.00010118
17910.0 0.0001006
17930.0 0.00010003
17950.0 9.9455e-05
17970.0 9.887e-05
17990.0 9.8302e-05
18010.0 9.7731e-05
18030.0 9.7134e-05
18050.0 9.6555e-05
18070.0 9.5986e-05
18090.0 9.5402e-05
18110.0 9.4812e-05
18130.0 9.4244e-05
18150.0 9.367e-05
18170.0 9.3081e-05
18190.0 9.2503e-05
18210.0 9.1935e-05
18230.0 9.1346e-05
18250.0 9.0753e-05
18270.0 9.0185e-05
18290.0 8.961e-05
18310.0 8.9021e-05
18330.0 8.8446e-05
18350.0 8.7881e-05
18370.0 8.7295e-05
18390.0 8.6711e-05
18410.0 8.6143e-05
18430.0 8.5569e-05
18450.0 8.4977e-05
18470.0 8.4405e-05
18490.0 8.3842e-05
18510.0 8.3262e-05
18530.0 8.2685e-05
18550.0 8.2125e-05
18570.0 8.1553e-05
18590.0 8.0968e-05
18610.0 8.0401e-05
18630.0 7.984e-05
18650.0 7.9263e-05
18670.0 7.8687e-05
18690.0 7.8135e-05
18710.0 7.757e-05
18730.0 7.6997e-05
18750.0 7.6439e-05
18770.0 7.5887e-05
18790.0 7.5309e-05
18810.0 7.4743e-05
18830.0 7.4195e-05
18850.0 7.3636e-05
18870.0 7.3069e-05
18890.0 7.2521e-05
18910.0 7.1975e-05
18930.0 7.1412e-05
18950.0 7.0858e-05
18970.0 7.0317e-05
18990.0 6.9766e-05
19010.0 6.9198e-05
19030.0 6.8662e-05
19050.0 6.8123e-05
19070.0 6.7571e-05
19090.0 6.7028e-05
19110.0 6.6501e-05
19130.0 6.5954e-05
19150.0 6.5406e-05
19170.0 6.4876e-05
19190.0 6.4345e-05
19210.0 6.3799e-05
19230.0 6.3263e-05
19250.0 6.2746e-05
19270.0 6.2213e-05
19290.0 6.1679e-05
19310.0 6.1162e-05
19330.0 6.0643e-05
19350.0 6.0102e-05
19370.0 5.9582e-05
19390.0 5.907e-05
19410.0 5.8547e-05
19430.0 5.8021e-05
19450.0 5.7517e-05
19470.0 5.7008e-05
19490.0 5.6486e-05
19510.0 5.5978e-05
19530.0 5.5479e-05
19550.0 5.4962e-05
19570.0 5.4446e-05
19590.0 5.3952e-05
19610.0 5.3452e-05
19630.0 5.2943e-05
19650.0 5.2448e-05
19670.0 5.1962e-05
19690.0 5.1457e-05
19710.0 5.0958e-05
19730.0 5.0474e-05
19750.0 4.9984e-05
19770.0 4.948e-05
19790.0 4.8996e-05
19810.0 4.852e-05
19830.0 4.8028e-05
19850.0 4.7539e-05
19870.0 4.7063e-05
19890.0 4.6565e-05
19910.0 4.6041e-05
19930.0 4.5509e-05
19950.0 4.4941e-05
19970.0 4.4301e-05
19990.0 4.3592e-05
20010.0 4.3248e-05
20030.0 4.2396e-05
20050.0 4.1462e-05
20070.0 4.0506e-05
20090.0 3.9529e-05
20110.0 3.8486e-05
20130.0 3.7482e-05
20150.0 3.6534e-05
20170.0 3.5597e-05
20190.0 3.4691e-05
20210.0 3.3872e-05
20230.0 3.3105e-05
20250.0 3.2369e-05
20270.0 3.1714e-05
20290.0 3.1138e-05
20310.0 3.0615e-05
20330.0 3.0151e-05
20350.0 2.9787e-05
20370.0 2.9486e-05
20390.0 2.9251e-05
20410.0 2.9091e-05
20430.0 2.9001e-05
20450.0 2.8975e-05
20470.0 2.9018e-05
20490.0 2.9119e-05
20510.0 2.9276e-05
20530.0 2.9494e-05
20550.0 2.9756e-05
20570.0 3.0047e-05
20590.0 3.0386e-05
20610.0 3.0758e-05
20630.0 3.1138e-05
20650.0 3.1541e-05
20670.0 3.1979e-05
20690.0 3.2405e-05
20710.0 3.2825e-05
20730.0 3.326e-05
20750.0 3.3694e-05
20770.0 3.4103e-05
20790.0 3.4518e-05
20810.0 3.4942e-05
20830.0 3.5351e-05
20850.0 3.5753e-05
20870.0 3.618e-05
20890.0 3.6612e-05
20910.0 3.7028e-05
20930.0 3.7465e-05
20950.0 3.7922e-05
20970.0 3.8374e-05
20990.0 3.8824e-05
21010.0 3.9304e-05
21030.0 3.9777e-05
21050.0 4.0229e-05
21070.0 4.068e-05
21090.0 4.1129e-05
21110.0 4.1533e-05
21130.0 4.1905e-05
21150.0 4.2258e-05
21170.0 4.2568e-05
21190.0 4.2825e-05
21210.0 4.3048e-05
21230.0 4.3225e-05
21250.0 4.3342e-05
21270.0 4.3408e-05
21290.0 4.3423e-05
21310.0 4.338e-05
21330.0 4.3284e-05
21350.0 4.3132e-05
21370.0 4.2921e-05
21390.0 4.266e-05
21410.0 4.235e-05
21430.0 4.1966e-05
21450.0 4.1542e-05
21470.0 4.1084e-05
21490.0 4.0572e-05
21510.0 4.0013e-05
21530.0 3.9446e-05
21550.0 3.8853e-05
21570.0 3.8218e-05
21590.0 3.7591e-05
21610.0 3.698e-05
21630.0 3.6362e-05
21650.0 3.575e-05
21670.0 3.5208e-05
21690.0 3.4696e-05
21710.0 3.4221e-05
21730.0 3.3813e-05
21750.0 3.3477e-05
21770.0 3.3192e-05
21790.0 3.2987e-05
21810.0 3.2864e-05
21830.0 3.2815e-05
21850.0 3.2847e-05
21870.0 3.2957e-05
21890.0 3.3133e-05
21910.0 3.3389e-05
21930.0 3.3715e-05
21950.0 3.4091e-05
21970.0 3.4528e-05
21990.0 3.5044e-05
22010.0 3.5583e-05
22030.0 3.6152e-05
22050.0 3.6774e-05
22070.0 3.7423e-05
22090.0 3.8059e-05
22110.0 3.8722e-05
22130.0 3.9405e-05
22150.0 4.0061e-05
22170.0 4.0695e-05
22190.0 4.1335e-05
22210.0 4.194e-05
22230.0 4.2476e-05
22250.0 4.298e-05
22270.0 4.3438e-05
22290.0 4.3818e-05
22310.0 4.413e-05
22330.0 4.4381e-05
22350.0 4.4545e-05
22370.0 4.4622e-05
22390.0 4.4616e-05
22410.0 4.4515e-05
22430.0 4.4329e-05
22450.0 4.406e-05
22470.0 4.3692e-05
22490.0 4.324e-05
22510.0 4.2725e-05
22530.0 4.211e-05
22550.0 4.1404e-05
22570.0 4.0659e-05
22590.0 3.9853e-05
22610.0 3.896e-05
22630.0 3.8026e-05
22650.0 3.7089e-05
22670.0 3.6081e-05
22690.0 3.5031e-05
22710.0 3.3995e-05
22730.0 3.295e-05
22750.0 3.1838e-05
22770.0 3.0771e-05
22790.0 2.9748e-05
