#lamb flux
1010.0 3.5387e-08
1030.0 3.9138e-08
1050.0 4.3453e-08
1070.0 4.831e-08
1090.0 5.3826e-08
1110.0 5.9485e-08
1130.0 6.518e-08
1150.0 7.1145e-08
1170.0 7.7299e-08
1190.0 8.3134e-08
1210.0 8.9048e-08
1230.0 9.5159e-08
1250.0 1.0115e-07
1270.0 1.0696e-07
1290.0 1.1311e-07
1310.0 1.1925e-07
1330.0 1.2513e-07
1350.0 1.3109e-07
1370.0 1.3724e-07
1390.0 1.4323e-07
1410.0 1.4904e-07
1430.0 1.5513e-07
1450.0 1.612e-07
1470.0 1.6708e-07
1490.0 1.7302e-07
1510.0 1.793e-07
1530.0 1.8524e-07
1550.0 1.9111e-07
1570.0 1.9718e-07
1590.0 2.0326e-07
1610.0 2.0907e-07
1630.0 2.1506e-07
1650.0 2.2121e-07
1670.0 2.2716e-07
1690.0 2.3305e-07
1710.0 2.3916e-07
1730.0 2.4531e-07
1750.0 2.511e-07
1770.0 2.5706e-07
1790.0 2.6316e-07
1810.0 2.6906e-07
1830.0 2.7487e-07
1850.0 2.8105e-07
1870.0 2.8708e-07
1890.0 2.9291e-07
1910.0 2.9887e-07
1930.0 3.0499e-07
1950.0 3.1085e-07
1970.0 3.1664e-07
1990.0 3.2267e-07
2010.0 3.2861e-07
2030.0 3.3435e-07
2050.0 3.4029e-07
2070.0 3.4638e-07
2090.0 3.5214e-07
2110.0 3.579e-07
2130.0 3.6384e-07
2150.0 3.6969e-07
2170.0 3.7529e-07
2190.0 3.8111e-07
2210.0 3.8698e-07
2230.0 3.9262e-07
2250.0 3.9824e-07
2270.0 4.0413e-07
2290.0 4.0984e-07
2310.0 4.1532e-07
2330.0 4.2103e-07
2350.0 4.269e-07
2370.0 4.3273e-07
2390.0 4.3906e-07
2410.0 4.4655e-07
2430.0 4.5517e-07
2450.0 4.6547e-07
2470.0 4.7867e-07
2490.0 4.953e-07
2510.0 5.1421e-07
2530.0 5.3697e-07
2550.0 5.6546e-07
2570.0 6.009e-07
2590.0 6.47e-07
2610.0 7.1603e-07
2630.0 8.1457e-07
2650.0 9.4343e-07
2670.0 1.11e-06
2690.0 1.3148e-06
2710.0 1.5333e-06
2730.0 1.7492e-06
2750.0 1.9619e-06
2770.0 2.1469e-06
2790.0 2.2939e-06
2810.0 2.4104e-06
2830.0 2.5015e-06
2850.0 2.5637e-06
2870.0 2.6093e-06
2890.0 2.6455e-06
2910.0 2.6743e-06
2930.0 2.6979e-06
2950.0 2.7204e-06
2970.0 2.7424e-06
2990.0 2.763e-06
3010.0 7.8097e-05
3030.0 7.8681e-05
3050.0 7.9246e-05
3070.0 7.9729e-05
3090.0 8.0144e-05
3110.0 8.0402e-05
3130.0 8.0392e-05
3150.0 8.0035e-05
3170.0 7.9178e-05
3190.0 7.7832e-05
3210.0 7.6125e-05
3230.0 7.417e-05
3250.0 7.2242e-05
3270.0 7.0832e-05
3290.0 7.005e-05
3310.0 7.0176e-05
3330.0 7.1192e-05
3350.0 7.2961e-05
3370.0 7.5486e-05
3390.0 7.8669e-05
3410.0 8.2132e-05
3430.0 8.6021e-05
3450.0 9.0497e-05
3470.0 9.5386e-05
3490.0 0.00010057
3510.0 0.00010642
3530.0 0.00011269
3550.0 0.00011904
3570.0 0.00012566
3590.0 0.00013287
3610.0 0.00014029
3630.0 0.00014769
3650.0 0.00015536
3670.0 0.00016237
3690.0 0.00016761
3710.0 0.00017061
3730.0 0.00017071
3750.0 0.00016833
3770.0 0.0001674
3790.0 0.0001664
3810.0 0.00016232
3830.0 0.00016734
3850.0 0.00018711
3870.0 0.00019796
3890.0 0.00019705
3910.0 0.00019789
3930.0 0.0002031
3950.0 0.00020631
3970.0 0.00018797
3990.0 0.00016174
4010.0 0.00048475
4030.0 0.00058734
4050.0 0.00067335
4070.0 0.00058424
4090.0 0.00052915
4110.0 0.00046692
4130.0 0.00042975
4150.0 0.00045713
4170.0 0.00045029
4190.0 0.00047998
4210.0 0.00047559
4230.0 0.00050304
4250.0 0.00059511
4270.0 0.00060211
4290.0 0.00055484
4310.0 0.00057651
4330.0 0.00061324
4350.0 0.00068759
4370.0 0.00078249
4390.0 0.00073428
4410.0 0.00054251
4430.0 0.00045927
4450.0 0.00042201
4470.0 0.00032391
4490.0 0.00034954
4510.0 0.00052799
4530.0 0.00060893
4550.0 0.00061421
4570.0 0.00069114
4590.0 0.00078728
4610.0 0.0010618
4630.0 0.0013791
4650.0 0.0014956
4670.0 0.0013851
4690.0 0.0013216
4710.0 0.0013971
4730.0 0.0013184
4750.0 0.0009857
4770.0 0.00072304
4790.0 0.00067518
4810.0 0.00064356
4830.0 0.00058917
4850.0 0.00064651
4870.0 0.00085411
4890.0 0.0010072
4910.0 0.00088372
4930.0 0.00078196
4950.0 0.0008591
4970.0 0.0011017
4990.0 0.0014931
5010.0 0.0017177
5030.0 0.0015146
5050.0 0.0010247
5070.0 0.00067532
5090.0 0.00054455
5110.0 0.00056002
5130.0 0.00064635
5150.0 0.00070026
5170.0 0.00068976
5190.0 0.00064453
5210.0 0.00067368
5230.0 0.0007082
5250.0 0.00076324
5270.0 0.00082348
5290.0 0.00091259
5310.0 0.0010622
5330.0 0.0011755
5350.0 0.001168
5370.0 0.0012269
5390.0 0.0014079
5410.0 0.0014066
5430.0 0.0012439
5450.0 0.0011429
5470.0 0.0012135
5490.0 0.0014826
5510.0 0.0018538
5530.0 0.0021262
5550.0 0.002055
5570.0 0.0018682
5590.0 0.0016244
5610.0 0.0014981
5630.0 0.0014526
5650.0 0.0013835
5670.0 0.001311
5690.0 0.001172
5710.0 0.0011427
5730.0 0.0010526
5750.0 0.00074217
5770.0 0.00057902
5790.0 0.00065616
5810.0 0.00074092
5830.0 0.00090921
5850.0 0.0010823
5870.0 0.0012008
5890.0 0.0012212
5910.0 0.0011981
5930.0 0.0011404
5950.0 0.0011621
5970.0 0.0013246
5990.0 0.0012455
6010.0 0.0010441
6030.0 0.00088212
6050.0 0.00076822
6070.0 0.00076402
6090.0 0.00082845
6110.0 0.00092634
6130.0 0.00094053
6150.0 0.00080924
6170.0 0.00071189
6190.0 0.00080113
6210.0 0.0010591
6230.0 0.0013898
6250.0 0.0015054
6270.0 0.0013155
6290.0 0.0011068
6310.0 0.00086403
6330.0 0.00066202
6350.0 0.0005905
6370.0 0.00062097
6390.0 0.00071788
6410.0 0.00088518
6430.0 0.0010336
6450.0 0.0011828
6470.0 0.0013543
6490.0 0.0016359
6510.0 0.0018291
6530.0 0.0017945
6550.0 0.0016227
6570.0 0.0013775
6590.0 0.0012422
6610.0 0.0010711
6630.0 0.00097033
6650.0 0.00091725
6670.0 0.00089108
6690.0 0.00080514
6710.0 0.00073189
6730.0 0.00052717
6750.0 0.00052263
6770.0 0.00056806
6790.0 0.00065295
6810.0 0.00059746
6830.0 0.00061522
6850.0 0.00057543
6870.0 0.00052565
6890.0 0.0005047
6910.0 0.00053783
6930.0 0.00050375
6950.0 0.00051828
6970.0 0.00054513
6990.0 0.00061877
7010.0 0.00062404
7030.0 0.00063395
7050.0 0.00060458
7070.0 0.00057605
7090.0 0.00057774
7110.0 0.00059445
7130.0 0.00063972
7150.0 0.00067943
7170.0 0.00074971
7190.0 0.00082414
7210.0 0.00080983
7230.0 0.00083252
7250.0 0.00089467
7270.0 0.00097497
7290.0 0.0011572
7310.0 0.0012557
7330.0 0.0012137
7350.0 0.0010977
7370.0 0.00095512
7390.0 0.00092658
7410.0 0.00098467
7430.0 0.0010943
7450.0 0.0011919
7470.0 0.001181
7490.0 0.0010768
7510.0 0.0012198
7530.0 0.0012064
7550.0 0.0010844
7570.0 0.00084709
7590.0 0.00058234
7610.0 0.00049983
7630.0 0.0005679
7650.0 0.00067146
7670.0 0.00083569
7690.0 0.0009196
7710.0 0.00095834
7730.0 0.0010071
7750.0 0.0011306
7770.0 0.0011484
7790.0 0.0010548
7810.0 0.00096246
7830.0 0.00099252
7850.0 0.00096481
7870.0 0.00088457
7890.0 0.00074321
7910.0 0.00060413
7930.0 0.00057685
7950.0 0.00052553
7970.0 0.00048647
7990.0 0.0004837
8010.0 3.5824e-05
8030.0 3.5358e-05
8050.0 3.4882e-05
8070.0 3.5338e-05
8090.0 3.797e-05
8110.0 3.7323e-05
8130.0 3.0787e-05
8150.0 2.9983e-05
8170.0 2.5826e-05
8190.0 2.4476e-05
8210.0 3.1784e-05
8230.0 3.5387e-05
8250.0 3.1894e-05
8270.0 2.776e-05
8290.0 2.7061e-05
8310.0 2.0827e-05
8330.0 1.4037e-05
8350.0 9.9622e-06
8370.0 6.2765e-06
8390.0 1.1473e-05
8410.0 1.337e-05
8430.0 1.648e-05
8450.0 1.9352e-05
8470.0 2.4054e-05
8490.0 2.3884e-05
8510.0 2.3494e-05
8530.0 2.4519e-05
8550.0 3.3081e-05
8570.0 3.9163e-05
8590.0 4.2256e-05
8610.0 5.3379e-05
8630.0 6.4303e-05
8650.0 6.7267e-05
8670.0 7.1485e-05
8690.0 7.1885e-05
8710.0 6.5102e-05
8730.0 6.0555e-05
8750.0 5.3451e-05
8770.0 5.0717e-05
8790.0 4.9827e-05
8810.0 4.7745e-05
8830.0 3.818e-05
8850.0 2.795e-05
8870.0 2.1401e-05
8890.0 2.0923e-05
8910.0 2.3978e-05
8930.0 2.7274e-05
8950.0 2.7796e-05
8970.0 2.7927e-05
8990.0 2.4908e-05
9010.0 0.00026102
9030.0 0.00023651
9050.0 0.00023766
9070.0 0.00023953
9090.0 0.00024118
9110.0 0.00024321
9130.0 0.00024478
9150.0 0.000246
9170.0 0.0002473
9190.0 0.00024868
9210.0 0.00025014
9230.0 0.00025169
9250.0 0.00025325
9270.0 0.00025488
9290.0 0.00025655
9310.0 0.00025823
9330.0 0.00025995
9350.0 0.00026173
9370.0 0.00026354
9390.0 0.00026536
9410.0 0.00026723
9430.0 0.00026916
9450.0 0.00027108
9470.0 0.00027304
9490.0 0.00027506
9510.0 0.00027711
9530.0 0.00027916
9550.0 0.00028128
9570.0 0.00028344
9590.0 0.00028561
9610.0 0.00028782
9630.0 0.00029008
9650.0 0.00029236
9670.0 0.00029465
9690.0 0.000297
9710.0 0.00029938
9730.0 0.00030177
9750.0 0.0003042
9770.0 0.0003067
9790.0 0.00030919
9810.0 0.00031169
9830.0 0.00031425
9850.0 0.00031685
9870.0 0.00031943
9890.0 0.00032205
9910.0 0.00032472
9930.0 0.0003274
9950.0 0.00033008
9970.0 0.00033282
9990.0 0.00033559
10010.0 0.0002912
10030.0 0.00029359
10050.0 0.00029603
10070.0 0.00029855
10090.0 0.00030093
10110.0 0.00030337
10130.0 0.00030582
10150.0 0.00030825
10170.0 0.00031072
10190.0 0.00031323
10210.0 0.00031571
10230.0 0.00031819
10250.0 0.0003207
10270.0 0.00032322
10290.0 0.0003257
10310.0 0.00032821
10330.0 0.00033075
10350.0 0.00033324
10370.0 0.00033573
10390.0 0.00033824
10410.0 0.00034074
10430.0 0.0003432
10450.0 0.00034567
10470.0 0.00034816
10490.0 0.0003506
10510.0 0.00035303
10530.0 0.00035549
10550.0 0.00035792
10570.0 0.00036029
10590.0 0.00036268
10610.0 0.00036506
10630.0 0.00036739
10650.0 0.0003697
10670.0 0.00037203
10690.0 0.00037431
10710.0 0.00037655
10730.0 0.00037879
10750.0 0.00038104
10770.0 0.00038319
10790.0 0.00038532
10810.0 0.00038746
10830.0 0.00038952
10850.0 0.00039149
10870.0 0.00039339
10890.0 0.00039506
10910.0 0.00039635
10930.0 0.00039708
10950.0 0.00039691
10970.0 0.00039556
10990.0 0.00039292
11010.0 0.00038851
11030.0 0.00038233
11050.0 0.0003748
11070.0 0.00036579
11090.0 0.00035497
11110.0 0.00034377
11130.0 0.0003321
11150.0 0.00031952
11170.0 0.00030656
11190.0 0.00029399
11210.0 0.00028101
11230.0 0.0002677
11250.0 0.00025498
11270.0 0.00024276
11290.0 0.00023052
11310.0 0.00021893
11330.0 0.00020872
11350.0 0.00019907
11370.0 0.00019016
11390.0 0.00018245
11410.0 0.00017571
11430.0 0.00016944
11450.0 0.00016404
11470.0 0.00015937
11490.0 0.00015502
11510.0 0.00015083
11530.0 0.00014695
11550.0 0.00014309
11570.0 0.00013897
11590.0 0.00013471
11610.0 0.00013037
11630.0 0.00012564
11650.0 0.00012058
11670.0 0.0001156
11690.0 0.00011054
11710.0 0.00010533
11730.0 0.00010028
11750.0 9.56e-05
11770.0 9.1014e-05
11790.0 8.6716e-05
11810.0 8.2933e-05
11830.0 7.9549e-05
11850.0 7.6432e-05
11870.0 7.3825e-05
11890.0 7.1658e-05
11910.0 6.9753e-05
11930.0 6.8116e-05
11950.0 6.6753e-05
11970.0 6.5535e-05
11990.0 6.4384e-05
12010.0 6.3319e-05
12030.0 6.2293e-05
12050.0 6.1232e-05
12070.0 6.0128e-05
12090.0 5.9064e-05
12110.0 5.7984e-05
12130.0 5.6902e-05
12150.0 5.5904e-05
12170.0 5.5033e-05
12190.0 5.428e-05
12210.0 5.3755e-05
12230.0 5.3501e-05
12250.0 5.3542e-05
12270.0 5.3945e-05
12290.0 5.4708e-05
12310.0 5.5803e-05
12330.0 5.7335e-05
12350.0 5.9246e-05
12370.0 6.1423e-05
12390.0 6.3932e-05
12410.0 6.6872e-05
12430.0 6.9861e-05
12450.0 7.2956e-05
12470.0 7.6246e-05
12490.0 7.9551e-05
12510.0 8.2652e-05
12530.0 8.5736e-05
12550.0 8.8712e-05
12570.0 9.1339e-05
12590.0 9.3645e-05
12610.0 9.57e-05
12630.0 9.7338e-05
12650.0 9.8468e-05
12670.0 9.9212e-05
12690.0 9.9509e-05
12710.0 9.9345e-05
12730.0 9.8769e-05
12750.0 9.7742e-05
12770.0 9.6332e-05
12790.0 9.4622e-05
12810.0 9.258e-05
12830.0 9.0218e-05
12850.0 8.7748e-05
12870.0 8.5136e-05
12890.0 8.231e-05
12910.0 7.9436e-05
12930.0 7.6605e-05
12950.0 7.365e-05
12970.0 7.0642e-05
12990.0 6.7797e-05
13010.0 6.4987e-05
13030.0 6.2145e-05
13050.0 5.9416e-05
13070.0 5.6859e-05
13090.0 5.4294e-05
13110.0 5.1811e-05
13130.0 4.9523e-05
13150.0 4.7356e-05
13170.0 4.5234e-05
13190.0 4.3346e-05
13210.0 4.1684e-05
13230.0 4.0165e-05
13250.0 3.8856e-05
13270.0 3.7824e-05
13290.0 3.7022e-05
13310.0 3.6469e-05
13330.0 3.6217e-05
13350.0 3.6247e-05
13370.0 3.6572e-05
13390.0 3.721e-05
13410.0 3.8073e-05
13430.0 3.9195e-05
13450.0 4.0581e-05
13470.0 4.212e-05
13490.0 4.3749e-05
13510.0 4.5587e-05
13530.0 4.745e-05
13550.0 4.9233e-05
13570.0 5.0991e-05
13590.0 5.2705e-05
13610.0 5.4229e-05
13630.0 5.556e-05
13650.0 5.6775e-05
13670.0 5.7784e-05
13690.0 5.8564e-05
13710.0 5.9167e-05
13730.0 5.9598e-05
13750.0 5.9813e-05
13770.0 5.9862e-05
13790.0 5.9753e-05
13810.0 5.9489e-05
13830.0 5.91e-05
13850.0 5.8572e-05
13870.0 5.7906e-05
13890.0 5.7144e-05
13910.0 5.6286e-05
13930.0 5.5292e-05
13950.0 5.4208e-05
13970.0 5.3099e-05
13990.0 5.1891e-05
14010.0 5.0606e-05
14030.0 4.9325e-05
14050.0 4.8034e-05
14070.0 4.6671e-05
14090.0 4.5365e-05
14110.0 4.4137e-05
14130.0 4.2947e-05
14150.0 4.1828e-05
14170.0 4.0872e-05
14190.0 4.0045e-05
14210.0 3.9344e-05
14230.0 3.8825e-05
14250.0 3.8489e-05
14270.0 3.8327e-05
14290.0 3.8361e-05
14310.0 3.8575e-05
14330.0 3.8959e-05
14350.0 3.9524e-05
14370.0 4.0228e-05
14390.0 4.1028e-05
14410.0 4.1969e-05
14430.0 4.3003e-05
14450.0 4.4059e-05
14470.0 4.5155e-05
14490.0 4.632e-05
14510.0 4.7434e-05
14530.0 4.8492e-05
14550.0 4.955e-05
14570.0 5.0565e-05
14590.0 5.149e-05
14610.0 5.2384e-05
14630.0 5.3268e-05
14650.0 5.4093e-05
14670.0 5.4888e-05
14690.0 5.5718e-05
14710.0 5.6591e-05
14730.0 5.7463e-05
14750.0 5.8429e-05
14770.0 5.9526e-05
14790.0 6.0714e-05
14810.0 6.2002e-05
14830.0 6.3527e-05
14850.0 6.5186e-05
14870.0 6.6916e-05
14890.0 6.8782e-05
14910.0 7.0765e-05
14930.0 7.2671e-05
14950.0 7.4452e-05
14970.0 7.6138e-05
14990.0 7.7553e-05
15010.0 7.8634e-05
15030.0 7.9435e-05
15050.0 7.9965e-05
15070.0 8.0223e-05
15090.0 8.0314e-05
15110.0 8.0288e-05
15130.0 8.0186e-05
15150.0 8.0051e-05
15170.0 7.9891e-05
15190.0 7.9719e-05
15210.0 7.9549e-05
15230.0 7.938e-05
15250.0 7.9205e-05
15270.0 7.9031e-05
15290.0 7.8867e-05
15310.0 7.8699e-05
15330.0 7.8528e-05
15350.0 7.8365e-05
15370.0 7.8203e-05
15390.0 7.8032e-05
15410.0 7.7867e-05
15430.0 7.7707e-05
15450.0 7.7544e-05
15470.0 7.7377e-05
15490.0 7.722e-05
15510.0 7.7062e-05
15530.0 7.6899e-05
15550.0 7.674e-05
15570.0 7.6587e-05
15590.0 7.6426e-05
15610.0 7.6264e-05
15630.0 7.611e-05
15650.0 7.5956e-05
15670.0 7.5797e-05
15690.0 7.5642e-05
15710.0 7.5493e-05
15730.0 7.5336e-05
15750.0 7.518e-05
15770.0 7.503e-05
15790.0 7.4878e-05
15810.0 7.4719e-05
15830.0 7.4568e-05
15850.0 7.442e-05
15870.0 7.4267e-05
15890.0 7.4113e-05
15910.0 7.3967e-05
15930.0 7.3817e-05
15950.0 7.3661e-05
15970.0 7.3512e-05
15990.0 7.3365e-05
16010.0 7.3212e-05
16030.0 7.3058e-05
16050.0 7.2914e-05
16070.0 7.2765e-05
16090.0 7.2613e-05
16110.0 7.2465e-05
16130.0 7.2321e-05
16150.0 7.2165e-05
16170.0 7.2014e-05
16190.0 7.1868e-05
16210.0 7.1719e-05
16230.0 7.1566e-05
16250.0 7.1419e-05
16270.0 7.1274e-05
16290.0 7.1121e-05
16310.0 7.0971e-05
16330.0 7.0825e-05
16350.0 7.0676e-05
16370.0 7.0518e-05
16390.0 7.0372e-05
16410.0 7.0225e-05
16430.0 7.0072e-05
16450.0 6.9921e-05
16470.0 6.9776e-05
16490.0 6.9624e-05
16510.0 6.9469e-05
16530.0 6.932e-05
16550.0 6.9172e-05
16570.0 6.9015e-05
16590.0 6.8861e-05
16610.0 6.8715e-05
16630.0 6.8562e-05
16650.0 6.8407e-05
16670.0 6.8257e-05
16690.0 6.8108e-05
16710.0 6.7948e-05
16730.0 6.7794e-05
16750.0 6.7643e-05
16770.0 6.7488e-05
16790.0 6.7329e-05
16810.0 6.7178e-05
16830.0 6.7025e-05
16850.0 6.6866e-05
16870.0 6.671e-05
16890.0 6.6558e-05
16910.0 6.6399e-05
16930.0 6.6236e-05
16950.0 6.6083e-05
16970.0 6.5926e-05
16990.0 6.5765e-05
17010.0 6.5607e-05
17030.0 6.5453e-05
17050.0 6.5291e-05
17070.0 6.5128e-05
17090.0 6.4971e-05
17110.0 6.4812e-05
17130.0 6.4644e-05
17150.0 6.4484e-05
17170.0 6.4326e-05
17190.0 6.4162e-05
17210.0 6.3997e-05
17230.0 6.3839e-05
17250.0 6.3676e-05
17270.0 6.3507e-05
17290.0 6.3344e-05
17310.0 6.3182e-05
17330.0 6.3014e-05
17350.0 6.2844e-05
17370.0 6.2684e-05
17390.0 6.2518e-05
17410.0 6.2348e-05
17430.0 6.2183e-05
17450.0 6.202e-05
17470.0 6.1845e-05
17490.0 6.1675e-05
17510.0 6.151e-05
17530.0 6.134e-05
17550.0 6.1166e-05
17570.0 6.0999e-05
17590.0 6.0832e-05
17610.0 6.0658e-05
17630.0 6.0485e-05
17650.0 6.0318e-05
17670.0 6.0145e-05
17690.0 5.9965e-05
17710.0 5.9796e-05
17730.0 5.9626e-05
17750.0 5.9449e-05
17770.0 5.9274e-05
17790.0 5.9106e-05
17810.0 5.8929e-05
17830.0 5.875e-05
17850.0 5.8577e-05
17870.0 5.8403e-05
17890.0 5.8222e-05
17910.0 5.8044e-05
17930.0 5.7872e-05
17950.0 5.7694e-05
17970.0 5.7514e-05
17990.0 5.734e-05
18010.0 5.7165e-05
18030.0 5.6979e-05
18050.0 5.68e-05
18070.0 5.6625e-05
18090.0 5.6444e-05
18110.0 5.626e-05
18130.0 5.6085e-05
18150.0 5.5907e-05
18170.0 5.5723e-05
18190.0 5.5542e-05
18210.0 5.5366e-05
18230.0 5.5181e-05
18250.0 5.4995e-05
18270.0 5.4817e-05
18290.0 5.4636e-05
18310.0 5.445e-05
18330.0 5.4269e-05
18350.0 5.4092e-05
18370.0 5.3905e-05
18390.0 5.372e-05
18410.0 5.354e-05
18430.0 5.3357e-05
18450.0 5.3167e-05
18470.0 5.2984e-05
18490.0 5.2804e-05
18510.0 5.2618e-05
18530.0 5.2432e-05
18550.0 5.2252e-05
18570.0 5.2067e-05
18590.0 5.1877e-05
18610.0 5.1693e-05
18630.0 5.1511e-05
18650.0 5.1323e-05
18670.0 5.1134e-05
18690.0 5.0954e-05
18710.0 5.0768e-05
18730.0 5.0579e-05
18750.0 5.0396e-05
18770.0 5.0214e-05
18790.0 5.0021e-05
18810.0 4.9833e-05
18830.0 4.9651e-05
18850.0 4.9464e-05
18870.0 4.9274e-05
18890.0 4.909e-05
18910.0 4.8907e-05
18930.0 4.8717e-05
18950.0 4.8529e-05
18970.0 4.8346e-05
18990.0 4.8159e-05
19010.0 4.7964e-05
19030.0 4.7782e-05
19050.0 4.7597e-05
19070.0 4.7407e-05
19090.0 4.722e-05
19110.0 4.7039e-05
19130.0 4.6849e-05
19150.0 4.6658e-05
19170.0 4.6474e-05
19190.0 4.6289e-05
19210.0 4.6097e-05
19230.0 4.5909e-05
19250.0 4.5727e-05
19270.0 4.5539e-05
19290.0 4.535e-05
19310.0 4.5167e-05
19330.0 4.4982e-05
19350.0 4.4788e-05
19370.0 4.4602e-05
19390.0 4.4419e-05
19410.0 4.423e-05
19430.0 4.404e-05
19450.0 4.3858e-05
19470.0 4.3673e-05
19490.0 4.3482e-05
19510.0 4.3297e-05
19530.0 4.3115e-05
19550.0 4.2924e-05
19570.0 4.2733e-05
19590.0 4.2552e-05
19610.0 4.2367e-05
19630.0 4.2177e-05
19650.0 4.1993e-05
19670.0 4.1812e-05
19690.0 4.1622e-05
19710.0 4.1434e-05
19730.0 4.1252e-05
19750.0 4.1067e-05
19770.0 4.0875e-05
19790.0 4.0691e-05
19810.0 4.051e-05
19830.0 4.0321e-05
19850.0 4.0132e-05
19870.0 3.9946e-05
19890.0 3.9747e-05
19910.0 3.9528e-05
19930.0 3.9293e-05
19950.0 3.9025e-05
19970.0 3.8695e-05
19990.0 3.8297e-05
20010.0 3.4072e-05
20030.0 3.3579e-05
20050.0 3.3002e-05
20070.0 3.2377e-05
20090.0 3.1704e-05
20110.0 3.0943e-05
20130.0 3.0173e-05
20150.0 2.941e-05
20170.0 2.8618e-05
20190.0 2.7815e-05
20210.0 2.7057e-05
20230.0 2.6317e-05
20250.0 2.5576e-05
20270.0 2.4888e-05
20290.0 2.426e-05
20310.0 2.3664e-05
20330.0 2.3106e-05
20350.0 2.2643e-05
20370.0 2.2232e-05
20390.0 2.1872e-05
20410.0 2.1581e-05
20430.0 2.1356e-05
20450.0 2.1178e-05
20470.0 2.1059e-05
20490.0 2.0995e-05
20510.0 2.0977e-05
20530.0 2.1003e-05
20550.0 2.1068e-05
20570.0 2.1162e-05
20590.0 2.129e-05
20610.0 2.1444e-05
20630.0 2.1615e-05
20650.0 2.1805e-05
20670.0 2.2023e-05
20690.0 2.2245e-05
20710.0 2.2475e-05
20730.0 2.2723e-05
20750.0 2.2981e-05
20770.0 2.3235e-05
20790.0 2.3502e-05
20810.0 2.3785e-05
20830.0 2.4066e-05
20850.0 2.4348e-05
20870.0 2.4651e-05
20890.0 2.4959e-05
20910.0 2.5256e-05
20930.0 2.5565e-05
20950.0 2.5884e-05
20970.0 2.6196e-05
20990.0 2.6504e-05
21010.0 2.6827e-05
21030.0 2.7143e-05
21050.0 2.7445e-05
21070.0 2.7746e-05
21090.0 2.8048e-05
21110.0 2.8324e-05
21130.0 2.8583e-05
21150.0 2.8833e-05
21170.0 2.906e-05
21190.0 2.9256e-05
21210.0 2.9432e-05
21230.0 2.9578e-05
21250.0 2.9682e-05
21270.0 2.9748e-05
21290.0 2.9773e-05
21310.0 2.9749e-05
21330.0 2.9679e-05
21350.0 2.9556e-05
21370.0 2.9374e-05
21390.0 2.9145e-05
21410.0 2.8863e-05
21430.0 2.8506e-05
21450.0 2.8106e-05
21470.0 2.767e-05
21490.0 2.7176e-05
21510.0 2.6635e-05
21530.0 2.6086e-05
21550.0 2.551e-05
21570.0 2.4896e-05
21590.0 2.4292e-05
21610.0 2.3708e-05
21630.0 2.3124e-05
21650.0 2.2553e-05
21670.0 2.2058e-05
21690.0 2.1602e-05
21710.0 2.1191e-05
21730.0 2.0855e-05
21750.0 2.0595e-05
21770.0 2.0397e-05
21790.0 2.0283e-05
21810.0 2.0252e-05
21830.0 2.0297e-05
21850.0 2.0424e-05
21870.0 2.0621e-05
21890.0 2.0877e-05
21910.0 2.1205e-05
21930.0 2.1589e-05
21950.0 2.2006e-05
21970.0 2.2467e-05
21990.0 2.2985e-05
22010.0 2.3503e-05
22030.0 2.4028e-05
22050.0 2.4581e-05
22070.0 2.5136e-05
22090.0 2.5661e-05
22110.0 2.6191e-05
22130.0 2.672e-05
22150.0 2.7214e-05
22170.0 2.768e-05
22190.0 2.8142e-05
22210.0 2.8571e-05
22230.0 2.895e-05
22250.0 2.9305e-05
22270.0 2.9633e-05
22290.0 2.9913e-05
22310.0 3.0154e-05
22330.0 3.0366e-05
22350.0 3.0529e-05
22370.0 3.0645e-05
22390.0 3.0717e-05
22410.0 3.074e-05
22430.0 3.0711e-05
22450.0 3.0631e-05
22470.0 3.0495e-05
22490.0 3.0303e-05
22510.0 3.0063e-05
22530.0 2.9757e-05
22550.0 2.9385e-05
22570.0 2.8971e-05
22590.0 2.8506e-05
22610.0 2.7969e-05
22630.0 2.7389e-05
22650.0 2.679e-05
22670.0 2.6126e-05
22690.0 2.5418e-05
