#lamb flux
1010.0 1.5825e-05
1030.0 1.8922e-05
1050.0 2.1752e-05
1070.0 2.3992e-05
1090.0 2.5397e-05
1110.0 2.5166e-05
1130.0 2.3084e-05
1150.0 1.928e-05
1170.0 1.3525e-05
1190.0 6.2927e-06
1210.0 6.083e-06
1230.0 5.8652e-06
1250.0 5.6507e-06
1270.0 5.4421e-06
1290.0 5.2235e-06
1310.0 5.007e-06
1330.0 4.8021e-06
1350.0 4.5988e-06
1370.0 4.3936e-06
1390.0 4.1989e-06
1410.0 4.0158e-06
1430.0 3.8295e-06
1450.0 3.6489e-06
1470.0 3.4805e-06
1490.0 3.3146e-06
1510.0 2.1264e-05
1530.0 4.785e-05
1550.0 7.6228e-05
1570.0 0.00010632
1590.0 0.00013712
1610.0 0.00016785
1630.0 0.00019843
1650.0 0.00022861
1670.0 0.00025771
1690.0 0.00028562
1710.0 0.00031266
1730.0 0.00033851
1750.0 0.0003625
1770.0 0.00038546
1790.0 0.00040736
1810.0 0.00042771
1830.0 0.00044672
1850.0 0.00046526
1870.0 0.00048248
1890.0 0.00049835
1910.0 0.00051351
1930.0 0.00052807
1950.0 0.0005413
1970.0 0.00055361
1990.0 0.00056559
2010.0 0.00057669
2030.0 0.00058672
2050.0 0.00059645
2070.0 0.00060586
2090.0 0.00061405
2110.0 0.00062168
2130.0 0.00062914
2150.0 0.00063592
2170.0 0.00064182
2190.0 0.00064773
2210.0 0.00065337
2230.0 0.00065829
2250.0 0.00066292
2270.0 0.0006678
2290.0 0.00067219
2310.0 0.00067607
2330.0 0.00068019
2350.0 0.00068435
2370.0 0.0006881
2390.0 0.000692
2410.0 0.00069645
2430.0 0.00070089
2450.0 0.00070572
2470.0 0.00071201
2490.0 0.0007207
2510.0 0.00073204
2530.0 0.00074869
2550.0 0.00077386
2570.0 0.00080915
2590.0 0.00085668
2610.0 0.00092519
2630.0 0.0010153
2650.0 0.0011237
2670.0 0.0012551
2690.0 0.0014107
2710.0 0.0015769
2730.0 0.0017473
2750.0 0.0019272
2770.0 0.0021015
2790.0 0.0022601
2810.0 0.0024063
2830.0 0.0025405
2850.0 0.0026512
2870.0 0.0027472
2890.0 0.0028344
2910.0 0.0029138
2930.0 0.0029875
2950.0 0.0030613
2970.0 0.0031359
2990.0 0.0032101
3010.0 0.0032849
3030.0 0.0033618
3050.0 0.003439
3070.0 0.0035136
3090.0 0.0035887
3110.0 0.0036649
3130.0 0.0037438
3150.0 0.0038615
3170.0 0.0040077
3190.0 0.0042061
3210.0 0.004468
3230.0 0.004807
3250.0 0.0051773
3270.0 0.0054093
3290.0 0.0059745
3310.0 0.0075284
3330.0 0.0078606
3350.0 0.0078926
3370.0 0.0079051
3390.0 0.0079191
3410.0 0.0079452
3430.0 0.007981
3450.0 0.0080188
3470.0 0.0080484
3490.0 0.0080907
3510.0 0.008195
3530.0 0.0081435
3550.0 0.0078304
3570.0 0.0075439
3590.0 0.0075706
3610.0 0.0080114
3630.0 0.0077329
3650.0 0.0072055
3670.0 0.0067168
3690.0 0.0066082
3710.0 0.0068677
3730.0 0.0070717
3750.0 0.0071604
3770.0 0.0074086
3790.0 0.0077075
3810.0 0.0074779
3830.0 0.0070451
3850.0 0.0067832
3870.0 0.0067197
3890.0 0.0065897
3910.0 0.0064295
3930.0 0.0064591
3950.0 0.0067259
3970.0 0.007043
3990.0 0.0073261
4010.0 0.0071409
4030.0 0.0069362
4050.0 0.0069019
4070.0 0.006903
4090.0 0.0068968
4110.0 0.0067952
4130.0 0.0065744
4150.0 0.0063714
4170.0 0.0063325
4190.0 0.0060515
4210.0 0.0056929
4230.0 0.0052777
4250.0 0.0048858
4270.0 0.0046427
4290.0 0.0044074
4310.0 0.0043586
4330.0 0.004504
4350.0 0.0045635
4370.0 0.0047616
4390.0 0.0050266
4410.0 0.0052713
4430.0 0.0051692
4450.0 0.0048606
4470.0 0.0046155
4490.0 0.0044881
4510.0 0.004456
4530.0 0.0044909
4550.0 0.0045337
4570.0 0.0046066
4590.0 0.0047473
4610.0 0.0050324
4630.0 0.0052277
4650.0 0.0053774
4670.0 0.0052937
4690.0 0.005048
4710.0 0.0047731
4730.0 0.0046207
4750.0 0.0045203
4770.0 0.0046227
4790.0 0.0045911
4810.0 0.0044833
4830.0 0.0046134
4850.0 0.0046407
4870.0 0.0047962
4890.0 0.0045773
4910.0 0.0043336
4930.0 0.0040188
4950.0 0.0037194
4970.0 0.0034125
4990.0 0.0031589
5010.0 0.0031304
5030.0 0.0032104
5050.0 0.0031549
5070.0 0.0032249
5090.0 0.0033594
5110.0 0.0033399
5130.0 0.0033176
5150.0 0.0032982
5170.0 0.0033214
5190.0 0.0033735
5210.0 0.0032849
5230.0 0.0032224
5250.0 0.0031487
5270.0 0.0030581
5290.0 0.003023
5310.0 0.003004
5330.0 0.0028946
5350.0 0.0028624
5370.0 0.0027855
5390.0 0.0026901
5410.0 0.0026415
5430.0 0.0025706
5450.0 0.0026364
5470.0 0.0026663
5490.0 0.0026088
5510.0 0.0026768
5530.0 0.0026943
5550.0 0.0027405
5570.0 0.0027092
5590.0 0.0026069
5610.0 0.0025841
5630.0 0.0026238
5650.0 0.0025918
5670.0 0.0025417
5690.0 0.002459
5710.0 0.0024964
5730.0 0.0025247
5750.0 0.0024297
5770.0 0.0023312
5790.0 0.002116
5810.0 0.0018265
5830.0 0.0020264
5850.0 0.0023419
5870.0 0.0024547
5890.0 0.0025053
5910.0 0.00253
5930.0 0.0025757
5950.0 0.0025574
5970.0 0.0025648
5990.0 0.0025515
6010.0 0.0025229
6030.0 0.0024677
6050.0 0.0024756
6070.0 0.0025375
6090.0 0.0025247
6110.0 0.0024716
6130.0 0.0024425
6150.0 0.0023798
6170.0 0.0023095
6190.0 0.0022889
6210.0 0.002238
6230.0 0.0022277
6250.0 0.0022177
6270.0 0.0022067
6290.0 0.0022055
6310.0 0.0022009
6330.0 0.0021789
6350.0 0.0021412
6370.0 0.0021193
6390.0 0.0021304
6410.0 0.0020846
6430.0 0.0020627
6450.0 0.0020307
6470.0 0.0019981
6490.0 0.00198
6510.0 0.0019856
6530.0 0.0019425
6550.0 0.0019123
6570.0 0.0019073
6590.0 0.0018994
6610.0 0.0018937
6630.0 0.0018313
6650.0 0.0017949
6670.0 0.0017867
6690.0 0.001764
6710.0 0.0017268
6730.0 0.001715
6750.0 0.0017256
6770.0 0.0018443
6790.0 0.0021338
6810.0 0.0019906
6830.0 0.0016941
6850.0 0.0016307
6870.0 0.001595
6890.0 0.0015862
6910.0 0.0015786
6930.0 0.0015749
6950.0 0.0015455
6970.0 0.0014925
6990.0 0.0014638
7010.0 0.0014718
7030.0 0.0014526
7050.0 0.0014135
7070.0 0.0014075
7090.0 0.0014223
7110.0 0.0014448
7130.0 0.0014203
7150.0 0.0014009
7170.0 0.0013893
7190.0 0.0014039
7210.0 0.0013746
7230.0 0.0013481
7250.0 0.0013477
7270.0 0.0013365
7290.0 0.001327
7310.0 0.001348
7330.0 0.0013203
7350.0 0.0012754
7370.0 0.0012214
7390.0 0.0011783
7410.0 0.0011939
7430.0 0.0011848
7450.0 0.0011747
7470.0 0.001154
7490.0 0.0011237
7510.0 0.0011078
7530.0 0.001092
7550.0 0.0011617
7570.0 0.0011513
7590.0 0.0010447
7610.0 0.0009939
7630.0 0.0010533
7650.0 0.0010438
7670.0 0.0010713
7690.0 0.001134
7710.0 0.00114
7730.0 0.0011066
7750.0 0.0011788
7770.0 0.0010961
7790.0 0.0010404
7810.0 0.0011131
7830.0 0.0011237
7850.0 0.0011693
7870.0 0.0011541
7890.0 0.0011663
7910.0 0.001144
7930.0 0.0011606
7950.0 0.0012238
7970.0 0.0011944
7990.0 0.0010801
8010.0 0.0011124
8030.0 0.0010971
8050.0 0.0010773
8070.0 0.0010494
8090.0 0.0009494
8110.0 0.00094897
8130.0 0.0010349
8150.0 0.0010811
8170.0 0.0010978
8190.0 0.0011335
8210.0 0.0011063
8230.0 0.0010965
8250.0 0.0010949
8270.0 0.0010767
8290.0 0.0010552
8310.0 0.0010049
8330.0 0.0010005
8350.0 0.0010208
8370.0 0.0010281
8390.0 0.0010169
8410.0 0.0010033
8430.0 0.00098091
8450.0 0.000975
8470.0 0.0010222
8490.0 0.0010316
8510.0 0.00098379
8530.0 0.00095389
8550.0 0.00094655
8570.0 0.00091097
8590.0 0.00090201
8610.0 0.00091747
8630.0 0.00092603
8650.0 0.00092168
8670.0 0.00091682
8690.0 0.00090367
8710.0 0.00086652
8730.0 0.00085838
8750.0 0.00084109
8770.0 0.00084327
8790.0 0.00084357
8810.0 0.00081601
8830.0 0.00081614
8850.0 0.0008306
8870.0 0.0007903
8890.0 0.00075276
8910.0 0.00073168
8930.0 0.00070631
8950.0 0.00068005
8970.0 0.00065188
8990.0 0.00064013
9010.0 0.00061323
9030.0 0.00060559
9050.0 0.00060207
9070.0 0.00059873
9090.0 0.00059536
9110.0 0.0005919
9130.0 0.00058845
9150.0 0.00058505
9170.0 0.00058161
9190.0 0.00057815
9210.0 0.00057465
9230.0 0.00057113
9250.0 0.0005676
9270.0 0.00056405
9290.0 0.00056048
9310.0 0.00055702
9330.0 0.00055371
9350.0 0.00055039
9370.0 0.00054706
9390.0 0.00054372
9410.0 0.00054038
9430.0 0.00053704
9450.0 0.00053369
9470.0 0.00053066
9490.0 0.00052747
9510.0 0.00052395
9530.0 0.00052047
9550.0 0.00051707
9570.0 0.00051371
9590.0 0.00051035
9610.0 0.00050716
9630.0 0.00050401
9650.0 0.00050086
9670.0 0.0004977
9690.0 0.00049457
9710.0 0.00049146
9730.0 0.00048835
9750.0 0.00048525
9770.0 0.0004822
9790.0 0.00047914
9810.0 0.00047609
9830.0 0.00047306
9850.0 0.00046979
9870.0 0.00046643
9890.0 0.00046374
9910.0 0.00046098
9930.0 0.00045771
9950.0 0.00045481
9970.0 0.00045215
9990.0 0.00044941
10010.0 0.0004467
10030.0 0.00044395
10050.0 0.00044117
10070.0 0.00043843
10090.0 0.00043572
10110.0 0.000433
10130.0 0.00043031
10150.0 0.00042767
10170.0 0.00042506
10190.0 0.00042244
10210.0 0.00041988
10230.0 0.00041736
10250.0 0.00041484
10270.0 0.00041235
10290.0 0.00040991
10310.0 0.00040748
10330.0 0.00040507
10350.0 0.0004027
10370.0 0.00040037
10390.0 0.00039803
10410.0 0.0003955
10430.0 0.00039295
10450.0 0.00039099
10470.0 0.0003889
10490.0 0.00038683
10510.0 0.00038477
10530.0 0.00038264
10550.0 0.00038056
10570.0 0.00037855
10590.0 0.00037652
10610.0 0.0003745
10630.0 0.00037255
10650.0 0.00037063
10670.0 0.00036868
10690.0 0.00036679
10710.0 0.00036496
10730.0 0.00036311
10750.0 0.00036126
10770.0 0.00035951
10790.0 0.00035777
10810.0 0.00035602
10830.0 0.00035431
10850.0 0.00035267
10870.0 0.00035099
10890.0 0.00034932
10910.0 0.00034772
10930.0 0.00034611
10950.0 0.00034446
10970.0 0.00034282
10990.0 0.00034121
11010.0 0.00033661
11030.0 0.00033491
11050.0 0.00033333
11070.0 0.00033175
11090.0 0.00033007
11110.0 0.00032849
11130.0 0.00032693
11150.0 0.00032527
11170.0 0.00032357
11190.0 0.00032195
11210.0 0.00032026
11230.0 0.00031849
11250.0 0.0003168
11270.0 0.00031517
11290.0 0.00031348
11310.0 0.00031186
11330.0 0.00031044
11350.0 0.00030905
11370.0 0.00030772
11390.0 0.00030655
11410.0 0.00030549
11430.0 0.00030442
11450.0 0.00030346
11470.0 0.00030261
11490.0 0.00030176
11510.0 0.00030089
11530.0 0.0003001
11550.0 0.0002993
11570.0 0.00029842
11590.0 0.00029752
11610.0 0.00029662
11630.0 0.00029562
11650.0 0.00029452
11670.0 0.00029344
11690.0 0.00029232
11710.0 0.00029108
11730.0 0.00028983
11750.0 0.00028861
11770.0 0.0002873
11790.0 0.00028595
11810.0 0.00028466
11830.0 0.00028338
11850.0 0.00028201
11870.0 0.00028074
11890.0 0.00027956
11910.0 0.00027838
11930.0 0.00027724
11950.0 0.00027623
11970.0 0.00027528
11990.0 0.00027435
12010.0 0.00027354
12030.0 0.00027285
12050.0 0.00027219
12070.0 0.0002716
12090.0 0.00027116
12110.0 0.00027078
12130.0 0.00027043
12150.0 0.00027016
12170.0 0.00026996
12190.0 0.00026973
12210.0 0.00026953
12230.0 0.00026934
12250.0 0.00026913
12270.0 0.00026883
12290.0 0.00026849
12310.0 0.00026809
12330.0 0.00026754
12350.0 0.00026688
12370.0 0.00026613
12390.0 0.00026523
12410.0 0.00026411
12430.0 0.00026293
12450.0 0.00026165
12470.0 0.00026017
12490.0 0.00025858
12510.0 0.00025697
12530.0 0.00025521
12550.0 0.00025332
12570.0 0.00025143
12590.0 0.00024952
12610.0 0.00024748
12630.0 0.00024542
12650.0 0.00024348
12670.0 0.00024149
12690.0 0.00023948
12710.0 0.00023758
12730.0 0.00023576
12750.0 0.00023388
12770.0 0.00023213
12790.0 0.00023053
12810.0 0.00022897
12830.0 0.00022746
12850.0 0.00022615
12870.0 0.00022494
12890.0 0.00022379
12910.0 0.00022279
12930.0 0.00022193
12950.0 0.00022116
12970.0 0.00022049
12990.0 0.00021999
13010.0 0.0002196
13030.0 0.00021932
13050.0 0.00021914
13070.0 0.00021907
13090.0 0.00021907
13110.0 0.00021912
13130.0 0.00021921
13150.0 0.00021931
13170.0 0.00021938
13190.0 0.0002194
13210.0 0.00021935
13230.0 0.0002192
13250.0 0.00021892
13270.0 0.00021852
13290.0 0.00021797
13310.0 0.00021724
13330.0 0.00021637
13350.0 0.00021538
13370.0 0.0002142
13390.0 0.00021285
13410.0 0.00021146
13430.0 0.00020992
13450.0 0.00020823
13470.0 0.00020648
13490.0 0.00020469
13510.0 0.00020271
13530.0 0.00020068
13550.0 0.00019866
13570.0 0.00019656
13590.0 0.00019436
13610.0 0.00019218
13630.0 0.00019004
13650.0 0.00018778
13670.0 0.00018551
13690.0 0.00018332
13710.0 0.0001811
13730.0 0.00017878
13750.0 0.00017661
13770.0 0.00017449
13790.0 0.00017235
13810.0 0.00017026
13830.0 0.00016832
13850.0 0.00016637
13870.0 0.00016445
13890.0 0.00016266
13910.0 0.00016095
13930.0 0.00015924
13950.0 0.00015761
13970.0 0.00015611
13990.0 0.00015463
14010.0 0.00015319
14030.0 0.00015184
14050.0 0.00015055
14070.0 0.00014925
14090.0 0.00014803
14110.0 0.00014689
14130.0 0.00014578
14150.0 0.00014469
14170.0 0.00014368
14190.0 0.00014271
14210.0 0.00014175
14230.0 0.00014084
14250.0 0.00013997
14270.0 0.00013909
14290.0 0.00013823
14310.0 0.00013741
14330.0 0.00013661
14350.0 0.00013579
14370.0 0.000135
14390.0 0.00013423
14410.0 0.00013345
14430.0 0.00013266
14450.0 0.0001319
14470.0 0.00013115
14490.0 0.00013036
14510.0 0.0001296
14530.0 0.00012886
14550.0 0.00012809
14570.0 0.00012732
14590.0 0.00012657
14610.0 0.00012581
14630.0 0.00012502
14650.0 0.00012424
14670.0 0.00012347
14690.0 0.00012267
14710.0 0.00012186
14730.0 0.00012108
14750.0 0.00012027
14770.0 0.00011945
14790.0 0.00011863
14810.0 0.00011782
14830.0 0.00011696
14850.0 0.0001161
14870.0 0.00011526
14890.0 0.00011441
14910.0 0.00011354
14930.0 0.00011272
14950.0 0.00011193
14970.0 0.00011115
14990.0 0.00011043
15010.0 0.00010978
15030.0 0.00010917
15050.0 0.00010859
15070.0 0.00010808
15090.0 0.0001076
15110.0 0.00010713
15130.0 0.00010668
15150.0 0.00010625
15170.0 0.00010581
15190.0 0.00010537
15210.0 0.00010494
15230.0 0.00010451
15250.0 0.00010408
15270.0 0.00010365
15290.0 0.00010324
15310.0 0.00010282
15330.0 0.0001024
15350.0 0.00010198
15370.0 0.00010158
15390.0 0.00010116
15410.0 0.00010075
15430.0 0.00010035
15450.0 9.9943e-05
15470.0 9.9535e-05
15490.0 9.9142e-05
15510.0 9.8751e-05
15530.0 9.8353e-05
15550.0 9.7963e-05
15570.0 9.7582e-05
15590.0 9.7193e-05
15610.0 9.6803e-05
15630.0 9.6429e-05
15650.0 9.6054e-05
15670.0 9.5675e-05
15690.0 9.5304e-05
15710.0 9.4943e-05
15730.0 9.4573e-05
15750.0 9.4206e-05
15770.0 9.385e-05
15790.0 9.3495e-05
15810.0 9.3131e-05
15830.0 9.2779e-05
15850.0 9.2436e-05
15870.0 9.2087e-05
15890.0 9.174e-05
15910.0 9.1405e-05
15930.0 9.1068e-05
15950.0 9.0725e-05
15970.0 9.0393e-05
15990.0 9.0067e-05
16010.0 8.9736e-05
16030.0 8.9405e-05
16050.0 8.9091e-05
16070.0 8.8773e-05
16090.0 8.8451e-05
16110.0 8.8139e-05
16130.0 8.7835e-05
16150.0 8.7517e-05
16170.0 8.7208e-05
16190.0 8.6909e-05
16210.0 8.6608e-05
16230.0 8.6303e-05
16250.0 8.601e-05
16270.0 8.5722e-05
16290.0 8.5426e-05
16310.0 8.5136e-05
16330.0 8.4855e-05
16350.0 8.4571e-05
16370.0 8.4278e-05
16390.0 8.4003e-05
16410.0 8.373e-05
16430.0 8.3452e-05
16450.0 8.3178e-05
16470.0 8.2915e-05
16490.0 8.2645e-05
16510.0 8.2373e-05
16530.0 8.2112e-05
16550.0 8.1854e-05
16570.0 8.1587e-05
16590.0 8.1326e-05
16610.0 8.1078e-05
16630.0 8.0824e-05
16650.0 8.0568e-05
16670.0 8.0322e-05
16690.0 8.0079e-05
16710.0 7.9824e-05
16730.0 7.9579e-05
16750.0 7.9341e-05
16770.0 7.9098e-05
16790.0 7.8853e-05
16810.0 7.8621e-05
16830.0 7.8389e-05
16850.0 7.815e-05
16870.0 7.7918e-05
16890.0 7.7693e-05
16910.0 7.7459e-05
16930.0 7.7224e-05
16950.0 7.7003e-05
16970.0 7.678e-05
16990.0 7.6551e-05
17010.0 7.6329e-05
17030.0 7.6116e-05
17050.0 7.5892e-05
17070.0 7.567e-05
17090.0 7.5457e-05
17110.0 7.5243e-05
17130.0 7.5019e-05
17150.0 7.4806e-05
17170.0 7.46e-05
17190.0 7.4386e-05
17210.0 7.4172e-05
17230.0 7.397e-05
17250.0 7.3762e-05
17270.0 7.3547e-05
17290.0 7.3342e-05
17310.0 7.3141e-05
17330.0 7.2932e-05
17350.0 7.2723e-05
17370.0 7.2527e-05
17390.0 7.2326e-05
17410.0 7.212e-05
17430.0 7.1922e-05
17450.0 7.1728e-05
17470.0 7.152e-05
17490.0 7.1318e-05
17510.0 7.1126e-05
17530.0 7.0928e-05
17550.0 7.0726e-05
17570.0 7.0533e-05
17590.0 7.0343e-05
17610.0 7.0143e-05
17630.0 6.9946e-05
17650.0 6.9758e-05
17670.0 6.9563e-05
17690.0 6.9359e-05
17710.0 6.9171e-05
17730.0 6.8983e-05
17750.0 6.8786e-05
17770.0 6.8593e-05
17790.0 6.841e-05
17810.0 6.8215e-05
17830.0 6.8018e-05
17850.0 6.7831e-05
17870.0 6.7643e-05
17890.0 6.7446e-05
17910.0 6.7253e-05
17930.0 6.707e-05
17950.0 6.6879e-05
17970.0 6.6685e-05
17990.0 6.65e-05
18010.0 6.6314e-05
18030.0 6.6115e-05
18050.0 6.5925e-05
18070.0 6.574e-05
18090.0 6.5548e-05
18110.0 6.5353e-05
18130.0 6.5169e-05
18150.0 6.4983e-05
18170.0 6.4788e-05
18190.0 6.4598e-05
18210.0 6.4415e-05
18230.0 6.4219e-05
18250.0 6.4022e-05
18270.0 6.3838e-05
18290.0 6.3649e-05
18310.0 6.3453e-05
18330.0 6.3263e-05
18350.0 6.308e-05
18370.0 6.2883e-05
18390.0 6.2688e-05
18410.0 6.2501e-05
18430.0 6.2311e-05
18450.0 6.2109e-05
18470.0 6.1918e-05
18490.0 6.1731e-05
18510.0 6.1535e-05
18530.0 6.1339e-05
18550.0 6.1153e-05
18570.0 6.0958e-05
18590.0 6.0756e-05
18610.0 6.0563e-05
18630.0 6.0372e-05
18650.0 6.0172e-05
18670.0 5.9971e-05
18690.0 5.9783e-05
18710.0 5.9587e-05
18730.0 5.9385e-05
18750.0 5.919e-05
18770.0 5.8998e-05
18790.0 5.879e-05
18810.0 5.8589e-05
18830.0 5.8395e-05
18850.0 5.8195e-05
18870.0 5.7989e-05
18890.0 5.7793e-05
18910.0 5.7597e-05
18930.0 5.7389e-05
18950.0 5.7186e-05
18970.0 5.6989e-05
18990.0 5.6785e-05
19010.0 5.657e-05
19030.0 5.6372e-05
19050.0 5.6171e-05
19070.0 5.5961e-05
19090.0 5.5755e-05
19110.0 5.5557e-05
19130.0 5.5346e-05
19150.0 5.5133e-05
19170.0 5.4929e-05
19190.0 5.4723e-05
19210.0 5.4507e-05
19230.0 5.4295e-05
19250.0 5.4093e-05
19270.0 5.388e-05
19290.0 5.3665e-05
19310.0 5.3459e-05
19330.0 5.325e-05
19350.0 5.3027e-05
19370.0 5.2813e-05
19390.0 5.2605e-05
19410.0 5.2387e-05
19430.0 5.2166e-05
19450.0 5.1957e-05
19470.0 5.1744e-05
19490.0 5.1521e-05
19510.0 5.1304e-05
19530.0 5.1092e-05
19550.0 5.0868e-05
19570.0 5.0641e-05
19590.0 5.0428e-05
19610.0 5.0209e-05
19630.0 4.9982e-05
19650.0 4.9763e-05
19670.0 4.9548e-05
19690.0 4.9319e-05
19710.0 4.9093e-05
19730.0 4.8874e-05
19750.0 4.865e-05
19770.0 4.8415e-05
19790.0 4.8192e-05
19810.0 4.7972e-05
19830.0 4.7742e-05
19850.0 4.7514e-05
19870.0 4.7296e-05
19890.0 4.7072e-05
19910.0 4.6845e-05
19930.0 4.6638e-05
19950.0 4.6444e-05
19970.0 4.6261e-05
19990.0 4.6102e-05
20010.0 4.5977e-05
20030.0 4.5874e-05
20050.0 4.5794e-05
20070.0 4.574e-05
20090.0 4.5703e-05
20110.0 4.5674e-05
20130.0 4.5653e-05
20150.0 4.5638e-05
20170.0 4.5621e-05
20190.0 4.5601e-05
20210.0 4.5582e-05
20230.0 4.5559e-05
20250.0 4.553e-05
20270.0 4.5498e-05
20290.0 4.5464e-05
20310.0 4.5424e-05
20330.0 4.5377e-05
20350.0 4.5332e-05
20370.0 4.5282e-05
20390.0 4.5225e-05
20410.0 4.5167e-05
20430.0 4.511e-05
20450.0 4.5045e-05
20470.0 4.4978e-05
20490.0 4.4915e-05
20510.0 4.485e-05
20530.0 4.4782e-05
20550.0 4.4718e-05
20570.0 4.4658e-05
20590.0 4.4597e-05
20610.0 4.4538e-05
20630.0 4.4483e-05
20650.0 4.443e-05
20670.0 4.4373e-05
20690.0 4.432e-05
20710.0 4.4269e-05
20730.0 4.4213e-05
20750.0 4.4153e-05
20770.0 4.4094e-05
20790.0 4.4029e-05
20810.0 4.3954e-05
20830.0 4.3876e-05
20850.0 4.3792e-05
20870.0 4.3695e-05
20890.0 4.359e-05
20910.0 4.3484e-05
20930.0 4.3368e-05
20950.0 4.3241e-05
20970.0 4.3115e-05
20990.0 4.2986e-05
21010.0 4.2846e-05
21030.0 4.2707e-05
21050.0 4.2572e-05
21070.0 4.2433e-05
21090.0 4.229e-05
21110.0 4.2157e-05
21130.0 4.2028e-05
21150.0 4.1894e-05
21170.0 4.1765e-05
21190.0 4.1643e-05
21210.0 4.1516e-05
21230.0 4.1387e-05
21250.0 4.1265e-05
21270.0 4.1143e-05
21290.0 4.1013e-05
21310.0 4.0883e-05
21330.0 4.0758e-05
21350.0 4.0624e-05
21370.0 4.0483e-05
21390.0 4.0345e-05
21410.0 4.0203e-05
21430.0 4.0046e-05
21450.0 3.9891e-05
21470.0 3.9739e-05
21490.0 3.9577e-05
21510.0 3.9408e-05
21530.0 3.9245e-05
21550.0 3.9079e-05
21570.0 3.8901e-05
21590.0 3.8728e-05
21610.0 3.8559e-05
21630.0 3.8382e-05
21650.0 3.82e-05
21670.0 3.8033e-05
21690.0 3.7863e-05
21710.0 3.7688e-05
21730.0 3.752e-05
21750.0 3.7359e-05
21770.0 3.7187e-05
21790.0 3.7018e-05
21810.0 3.6857e-05
21830.0 3.6696e-05
21850.0 3.6527e-05
21870.0 3.6366e-05
21890.0 3.6212e-05
21910.0 3.6051e-05
21930.0 3.5891e-05
21950.0 3.574e-05
21970.0 3.5589e-05
21990.0 3.5431e-05
22010.0 3.5287e-05
22030.0 3.5151e-05
22050.0 3.5013e-05
22070.0 3.4882e-05
22090.0 3.4767e-05
22110.0 3.4654e-05
22130.0 3.4545e-05
22150.0 3.4449e-05
22170.0 3.4364e-05
22190.0 3.428e-05
22210.0 3.4205e-05
22230.0 3.4145e-05
22250.0 3.4088e-05
22270.0 3.4034e-05
22290.0 3.399e-05
22310.0 3.3951e-05
22330.0 3.3911e-05
22350.0 3.3875e-05
22370.0 3.3845e-05
22390.0 3.3814e-05
22410.0 3.3779e-05
22430.0 3.3751e-05
22450.0 3.3722e-05
22470.0 3.3689e-05
22490.0 3.3657e-05
22510.0 3.3628e-05
22530.0 3.3594e-05
22550.0 3.3558e-05
22570.0 3.3527e-05
22590.0 3.3497e-05
22610.0 3.3464e-05
22630.0 3.3435e-05
22650.0 3.3413e-05
22670.0 3.339e-05
22690.0 3.337e-05
22710.0 3.3359e-05
22730.0 3.3353e-05
22750.0 3.3348e-05
22770.0 3.3353e-05
22790.0 3.3367e-05
22810.0 3.3386e-05
22830.0 3.3411e-05
22850.0 3.3448e-05
22870.0 3.349e-05
22890.0 3.3538e-05
22910.0 3.3594e-05
22930.0 3.3658e-05
