#lamb flux
1010.0 1.0179e-06
1030.0 1.0837e-06
1050.0 1.1597e-06
1070.0 1.2454e-06
1090.0 1.3428e-06
1110.0 1.4429e-06
1130.0 1.5439e-06
1150.0 1.65e-06
1170.0 1.7597e-06
1190.0 1.8643e-06
1210.0 1.9706e-06
1230.0 2.0809e-06
1250.0 2.1894e-06
1270.0 2.2955e-06
1290.0 2.4078e-06
1310.0 2.5207e-06
1330.0 2.6297e-06
1350.0 2.7405e-06
1370.0 2.8554e-06
1390.0 2.9683e-06
1410.0 3.0786e-06
1430.0 3.1945e-06
1450.0 3.311e-06
1470.0 3.4246e-06
1490.0 3.5399e-06
1510.0 3.6621e-06
1530.0 3.7788e-06
1550.0 3.8947e-06
1570.0 4.0147e-06
1590.0 4.1353e-06
1610.0 4.2511e-06
1630.0 4.3705e-06
1650.0 4.4928e-06
1670.0 4.6112e-06
1690.0 4.728e-06
1710.0 4.8486e-06
1730.0 4.9691e-06
1750.0 5.0821e-06
1770.0 5.1972e-06
1790.0 5.3133e-06
1810.0 5.4244e-06
1830.0 5.532e-06
1850.0 5.6444e-06
1870.0 5.7519e-06
1890.0 5.8535e-06
1910.0 5.9549e-06
1930.0 6.0566e-06
1950.0 6.1506e-06
1970.0 6.2407e-06
1990.0 6.3322e-06
2010.0 6.4192e-06
2030.0 6.4996e-06
2050.0 6.5806e-06
2070.0 6.6617e-06
2090.0 6.7341e-06
2110.0 6.804e-06
2130.0 6.8748e-06
2150.0 6.9418e-06
2170.0 7.0026e-06
2190.0 7.0657e-06
2210.0 7.1283e-06
2230.0 7.186e-06
2250.0 7.2427e-06
2270.0 7.3036e-06
2290.0 7.3614e-06
2310.0 7.4157e-06
2330.0 7.4738e-06
2350.0 7.5338e-06
2370.0 7.5912e-06
2390.0 7.6513e-06
2410.0 7.7178e-06
2430.0 7.7838e-06
2450.0 7.8508e-06
2470.0 7.925e-06
2490.0 8.0092e-06
2510.0 8.1052e-06
2530.0 8.2404e-06
2550.0 8.4599e-06
2570.0 8.8136e-06
2590.0 9.3617e-06
2610.0 1.0254e-05
2630.0 1.154e-05
2650.0 1.3163e-05
2670.0 1.5151e-05
2690.0 1.7445e-05
2710.0 1.9756e-05
2730.0 2.1937e-05
2750.0 2.4024e-05
2770.0 2.5846e-05
2790.0 2.7374e-05
2810.0 2.8739e-05
2830.0 3.0045e-05
2850.0 3.1236e-05
2870.0 3.2422e-05
2890.0 3.3678e-05
2910.0 3.4981e-05
2930.0 3.6291e-05
2950.0 3.7694e-05
2970.0 3.918e-05
2990.0 4.0679e-05
3010.0 0.00014394
3030.0 0.00014944
3050.0 0.0001549
3070.0 0.00015984
3090.0 0.00016402
3110.0 0.00016629
3130.0 0.00016531
3150.0 0.0001596
3170.0 0.00014621
3190.0 0.00012489
3210.0 9.6047e-05
3230.0 6.3675e-05
3250.0 9.7618e-05
3270.0 6.1047e-05
3290.0 0.00014052
3310.0 5.5396e-05
3330.0 5.4839e-05
3350.0 6.5677e-05
3370.0 7.8642e-05
3390.0 9.2817e-05
3410.0 0.00010702
3430.0 0.00012199
3450.0 0.0001371
3470.0 0.00015104
3490.0 0.0001608
3510.0 0.00019309
3530.0 0.00025004
3550.0 0.00024357
3570.0 0.00020084
3590.0 0.00027187
3610.0 0.00017595
3630.0 0.00028653
3650.0 0.00033375
3670.0 0.00042438
3690.0 0.00039403
3710.0 0.00026385
3730.0 0.00034053
3750.0 0.00034868
3770.0 0.00037422
3790.0 0.00036314
3810.0 0.00037383
3830.0 0.00058754
3850.0 0.00072121
3870.0 0.00088937
3890.0 0.00086431
3910.0 0.00077249
3930.0 0.00078244
3950.0 0.00084516
3970.0 0.00093189
3990.0 0.00059753
4010.0 0.00032345
4030.0 0.00057518
4050.0 0.00076081
4070.0 0.00081391
4090.0 0.0005693
4110.0 0.00036035
4130.0 0.00059265
4150.0 0.00060506
4170.0 0.00056321
4190.0 0.00051105
4210.0 0.00072335
4230.0 0.00053291
4250.0 0.00057737
4270.0 0.0005736
4290.0 0.00054345
4310.0 0.00069666
4330.0 0.00075278
4350.0 0.00062721
4370.0 0.00052948
4390.0 0.00064532
4410.0 0.00066091
4430.0 0.00048594
4450.0 0.00044092
4470.0 0.00054492
4490.0 0.00041691
4510.0 0.00058194
4530.0 0.00060481
4550.0 0.00071775
4570.0 0.0010119
4590.0 0.0010007
4610.0 0.00079342
4630.0 0.0012662
4650.0 0.0016874
4670.0 0.0016092
4690.0 0.0011379
4710.0 0.0012067
4730.0 0.0013669
4750.0 0.001126
4770.0 0.00086083
4790.0 0.00058098
4810.0 0.000793
4830.0 0.00093395
4850.0 0.00082094
4870.0 0.00034511
4890.0 0.00093156
4910.0 0.0012213
4930.0 0.0013274
4950.0 0.0013678
4970.0 0.00096079
4990.0 0.0011181
5010.0 0.0012987
5030.0 0.001392
5050.0 0.0012995
5070.0 0.00091894
5090.0 0.00074557
5110.0 0.00072076
5130.0 0.00068482
5150.0 0.00071332
5170.0 0.00063652
5190.0 0.00075888
5210.0 0.00077071
5230.0 0.000854
5250.0 0.0010144
5270.0 0.00084135
5290.0 0.00087527
5310.0 0.001287
5330.0 0.00148
5350.0 0.0012426
5370.0 0.0011176
5390.0 0.0012972
5410.0 0.0015485
5430.0 0.0016502
5450.0 0.0017365
5470.0 0.0017488
5490.0 0.0018016
5510.0 0.0021573
5530.0 0.0022416
5550.0 0.0023678
5570.0 0.002487
5590.0 0.0024452
5610.0 0.0022901
5630.0 0.0022366
5650.0 0.002314
5670.0 0.0022617
5690.0 0.001937
5710.0 0.0019168
5730.0 0.0019204
5750.0 0.0019977
5770.0 0.0017212
5790.0 0.0016426
5810.0 0.0016834
5830.0 0.0018175
5850.0 0.0016928
5870.0 0.0017016
5890.0 0.0019851
5910.0 0.0018528
5930.0 0.0015307
5950.0 0.0013833
5970.0 0.0015081
5990.0 0.00137
6010.0 0.0012526
6030.0 0.0012283
6050.0 0.001125
6070.0 0.00087172
6090.0 0.00082902
6110.0 0.0010635
6130.0 0.0011935
6150.0 0.0012328
6170.0 0.0011989
6190.0 0.0011435
6210.0 0.0011923
6230.0 0.0014469
6250.0 0.0013369
6270.0 0.001202
6290.0 0.0010926
6310.0 0.00098967
6330.0 0.00091806
6350.0 0.00082054
6370.0 0.00083166
6390.0 0.00096773
6410.0 0.0012016
6430.0 0.0014203
6450.0 0.0014258
6470.0 0.0014417
6490.0 0.0017607
6510.0 0.0020215
6530.0 0.0019209
6550.0 0.0018226
6570.0 0.0018489
6590.0 0.0018223
6610.0 0.0019288
6630.0 0.0017986
6650.0 0.0015627
6670.0 0.0014416
6690.0 0.0014291
6710.0 0.0016916
6730.0 0.0015062
6750.0 0.0012388
6770.0 0.0011183
6790.0 0.0011881
6810.0 0.0013644
6830.0 0.001358
6850.0 0.001218
6870.0 0.0012615
6890.0 0.0012538
6910.0 0.0011783
6930.0 0.0013082
6950.0 0.0012169
6970.0 0.0011336
6990.0 0.0011301
7010.0 0.0011384
7030.0 0.0011057
7050.0 0.0010588
7070.0 0.0011356
7090.0 0.0010577
7110.0 0.00089678
7130.0 0.00077027
7150.0 0.00075642
7170.0 0.00095507
7190.0 0.0010125
7210.0 0.00096008
7230.0 0.0010097
7250.0 0.00098069
7270.0 0.00095662
7290.0 0.0010363
7310.0 0.001136
7330.0 0.0011068
7350.0 0.0010269
7370.0 0.00094992
7390.0 0.00095276
7410.0 0.0010947
7430.0 0.0012326
7450.0 0.0013123
7470.0 0.0013311
7490.0 0.0014807
7510.0 0.0014632
7530.0 0.001325
7550.0 0.0012544
7570.0 0.0010841
7590.0 0.0010322
7610.0 0.00099702
7630.0 0.00091849
7650.0 0.00098677
7670.0 0.0010933
7690.0 0.0011903
7710.0 0.0013582
7730.0 0.0014247
7750.0 0.0014803
7770.0 0.0015388
7790.0 0.0016693
7810.0 0.0016817
7830.0 0.0015093
7850.0 0.0015155
7870.0 0.0014593
7890.0 0.0014942
7910.0 0.0014074
7930.0 0.0013972
7950.0 0.0011733
7970.0 0.0011772
7990.0 0.0011376
8010.0 0.001236
8030.0 0.0012307
8050.0 0.0013072
8070.0 0.001254
8090.0 0.0012589
8110.0 0.0012392
8130.0 0.0012248
8150.0 0.0011497
8170.0 0.0011275
8190.0 0.0011242
8210.0 0.0011347
8230.0 0.00099209
8250.0 0.00090668
8270.0 0.00080097
8290.0 0.00068073
8310.0 0.0005994
8330.0 0.00047458
8350.0 0.00038407
8370.0 0.00037066
8390.0 0.0003592
8410.0 0.00037575
8430.0 0.0004831
8450.0 0.0005259
8470.0 0.00056577
8490.0 0.00066178
8510.0 0.00071985
8530.0 0.00081818
8550.0 0.0009674
8570.0 0.0010621
8590.0 0.0011166
8610.0 0.0012396
8630.0 0.0014095
8650.0 0.0014453
8670.0 0.0014747
8690.0 0.0015296
8710.0 0.0014992
8730.0 0.0014512
8750.0 0.0013365
8770.0 0.0013363
8790.0 0.0013167
8810.0 0.0012103
8830.0 0.0012111
8850.0 0.0011086
8870.0 0.0010566
8890.0 0.00094608
8910.0 0.0010541
8930.0 0.00095296
8950.0 0.00095494
8970.0 0.00097464
8990.0 0.00094605
9010.0 0.00097138
9030.0 0.00092211
9050.0 0.00091764
9070.0 0.00091804
9090.0 0.00091825
9110.0 0.00091908
9130.0 0.00091903
9150.0 0.00091851
9170.0 0.00091549
9190.0 0.00090879
9210.0 0.00092317
9230.0 0.00091909
9250.0 0.00091675
9270.0 0.00091477
9290.0 0.000913
9310.0 0.00091136
9330.0 0.00090976
9350.0 0.00090816
9370.0 0.00090651
9390.0 0.00090478
9410.0 0.00090299
9430.0 0.00090115
9450.0 0.00089921
9470.0 0.0008972
9490.0 0.00089517
9510.0 0.00089306
9530.0 0.00089089
9550.0 0.00088872
9570.0 0.00088652
9590.0 0.00088426
9610.0 0.00088198
9630.0 0.00087971
9650.0 0.00087742
9670.0 0.00087508
9690.0 0.00087277
9710.0 0.00087048
9730.0 0.00086815
9750.0 0.00086583
9770.0 0.00086361
9790.0 0.00086134
9810.0 0.00085907
9830.0 0.00085687
9850.0 0.0008547
9870.0 0.0008525
9890.0 0.00085036
9910.0 0.00084831
9930.0 0.00084624
9950.0 0.00084289
9970.0 0.00084135
9990.0 0.0008398
10010.0 0.00083816
10030.0 0.0008365
10050.0 0.00083454
10070.0 0.00083098
10090.0 0.00082999
10110.0 0.00082899
10130.0 0.00082784
10150.0 0.00082666
10170.0 0.00082539
10190.0 0.00082405
10210.0 0.0008228
10230.0 0.00082161
10250.0 0.00082041
10270.0 0.00081928
10290.0 0.00081826
10310.0 0.00081724
10330.0 0.00081625
10350.0 0.00081538
10370.0 0.00081457
10390.0 0.00081378
10410.0 0.00081305
10430.0 0.00081245
10450.0 0.00081185
10470.0 0.00081129
10490.0 0.00081082
10510.0 0.00081042
10530.0 0.00081001
10550.0 0.00080968
10570.0 0.00080944
10590.0 0.00080923
10610.0 0.00080905
10630.0 0.00080896
10650.0 0.00080891
10670.0 0.00080887
10690.0 0.00080891
10710.0 0.00080901
10730.0 0.00080913
10750.0 0.00080927
10770.0 0.00080951
10790.0 0.00080978
10810.0 0.00081005
10830.0 0.00081035
10850.0 0.00081064
10870.0 0.00081076
10890.0 0.00081058
10910.0 0.0008099
10930.0 0.00080828
10950.0 0.00080504
10970.0 0.00079984
10990.0 0.00079251
11010.0 0.00080624
11030.0 0.00079218
11050.0 0.00077565
11070.0 0.00075652
11090.0 0.00073433
11110.0 0.0007122
11130.0 0.00069006
11150.0 0.00066739
11170.0 0.00064536
11190.0 0.0006253
11210.0 0.00060596
11230.0 0.00058755
11250.0 0.00057126
11270.0 0.00055671
11290.0 0.00054311
11310.0 0.00053099
11330.0 0.0005208
11350.0 0.00051136
11370.0 0.00050259
11390.0 0.0004947
11410.0 0.00048728
11430.0 0.00047957
11450.0 0.00047192
11470.0 0.0004643
11490.0 0.00045616
11510.0 0.00044732
11530.0 0.00043841
11550.0 0.00042918
11570.0 0.00041916
11590.0 0.00040892
11610.0 0.00039878
11630.0 0.00038811
11650.0 0.00037709
11670.0 0.00036662
11690.0 0.00035628
11710.0 0.00034577
11730.0 0.00033564
11750.0 0.00032623
11770.0 0.00031679
11790.0 0.00030762
11810.0 0.00029913
11830.0 0.00029104
11850.0 0.00028289
11870.0 0.00027535
11890.0 0.00026839
11910.0 0.00026147
11930.0 0.00025472
11950.0 0.00024846
11970.0 0.00024232
11990.0 0.00023608
12010.0 0.00023016
12030.0 0.00022453
12050.0 0.00021888
12070.0 0.0002133
12090.0 0.0002083
12110.0 0.0002035
12130.0 0.00019889
12150.0 0.00019481
12170.0 0.00019132
12190.0 0.00018818
12210.0 0.00018575
12230.0 0.00018415
12250.0 0.00018331
12270.0 0.00018331
12290.0 0.00018423
12310.0 0.00018598
12330.0 0.00018867
12350.0 0.0001922
12370.0 0.00019635
12390.0 0.00020116
12410.0 0.00020674
12430.0 0.0002124
12450.0 0.00021818
12470.0 0.00022417
12490.0 0.00023003
12510.0 0.00023541
12530.0 0.0002406
12550.0 0.00024545
12570.0 0.00024964
12590.0 0.00025328
12610.0 0.00025648
12630.0 0.00025909
12650.0 0.00026106
12670.0 0.00026258
12690.0 0.00026362
12710.0 0.00026422
12730.0 0.00026443
12750.0 0.00026425
12770.0 0.00026374
12790.0 0.00026297
12810.0 0.00026188
12830.0 0.00026046
12850.0 0.00025885
12870.0 0.00025699
12890.0 0.00025474
12910.0 0.00025223
12930.0 0.00024952
12950.0 0.00024636
12970.0 0.00024277
12990.0 0.00023907
13010.0 0.00023506
13030.0 0.00023062
13050.0 0.00022603
13070.0 0.00022146
13090.0 0.00021658
13110.0 0.00021163
13130.0 0.00020692
13150.0 0.00020234
13170.0 0.00019776
13190.0 0.00019369
13210.0 0.00019014
13230.0 0.00018693
13250.0 0.00018423
13270.0 0.00018217
13290.0 0.0001806
13310.0 0.0001795
13330.0 0.00017894
13350.0 0.00017879
13370.0 0.00017895
13390.0 0.00017934
13410.0 0.00017984
13430.0 0.00018034
13450.0 0.00018075
13470.0 0.00018098
13490.0 0.00018098
13510.0 0.00018065
13530.0 0.00017999
13550.0 0.00017907
13570.0 0.00017784
13590.0 0.00017633
13610.0 0.00017468
13630.0 0.00017297
13650.0 0.00017112
13670.0 0.00016929
13690.0 0.00016757
13710.0 0.00016591
13730.0 0.00016429
13750.0 0.00016288
13770.0 0.0001616
13790.0 0.00016038
13810.0 0.00015925
13830.0 0.0001582
13850.0 0.00015714
13870.0 0.00015603
13890.0 0.00015492
13910.0 0.00015376
13930.0 0.00015248
13950.0 0.00015114
13970.0 0.0001498
13990.0 0.00014838
14010.0 0.00014693
14030.0 0.00014554
14050.0 0.00014421
14070.0 0.00014289
14090.0 0.00014172
14110.0 0.00014069
14130.0 0.00013978
14150.0 0.00013902
14170.0 0.00013843
14190.0 0.00013799
14210.0 0.00013768
14230.0 0.00013753
14250.0 0.00013752
14270.0 0.00013765
14290.0 0.00013795
14310.0 0.00013835
14330.0 0.00013889
14350.0 0.00013958
14370.0 0.00014037
14390.0 0.00014122
14410.0 0.00014219
14430.0 0.00014322
14450.0 0.00014424
14470.0 0.00014528
14490.0 0.00014638
14510.0 0.00014741
14530.0 0.00014839
14550.0 0.00014941
14570.0 0.00015046
14590.0 0.00015149
14610.0 0.00015261
14630.0 0.00015391
14650.0 0.0001553
14670.0 0.00015684
14690.0 0.00015866
14710.0 0.00016077
14730.0 0.00016297
14750.0 0.00016547
14770.0 0.00016831
14790.0 0.00017129
14810.0 0.00017437
14830.0 0.00017783
14850.0 0.00018132
14870.0 0.00018468
14890.0 0.00018803
14910.0 0.00019132
14930.0 0.00019421
14950.0 0.00019665
14970.0 0.00019876
14990.0 0.00020028
15010.0 0.00020118
15030.0 0.00020159
15050.0 0.00020156
15070.0 0.00020111
15090.0 0.00020042
15110.0 0.00019956
15130.0 0.00019859
15150.0 0.00019758
15170.0 0.00019654
15190.0 0.00019547
15210.0 0.00019441
15230.0 0.00019336
15250.0 0.00019228
15270.0 0.00019122
15290.0 0.00019018
15310.0 0.00018912
15330.0 0.00018807
15350.0 0.00018703
15370.0 0.00018599
15390.0 0.00018494
15410.0 0.0001839
15430.0 0.00018287
15450.0 0.00018184
15470.0 0.0001808
15490.0 0.00017979
15510.0 0.00017878
15530.0 0.00017776
15550.0 0.00017675
15570.0 0.00017576
15590.0 0.00017475
15610.0 0.00017374
15630.0 0.00017276
15650.0 0.00017178
15670.0 0.00017079
15690.0 0.00016981
15710.0 0.00016885
15730.0 0.00016788
15750.0 0.00016691
15770.0 0.00016596
15790.0 0.00016502
15810.0 0.00016406
15830.0 0.00016312
15850.0 0.00016219
15870.0 0.00016126
15890.0 0.00016033
15910.0 0.00015943
15930.0 0.00015852
15950.0 0.0001576
15970.0 0.0001567
15990.0 0.00015581
16010.0 0.00015492
16030.0 0.00015402
16050.0 0.00015316
16070.0 0.00015229
16090.0 0.00015141
16110.0 0.00015055
16130.0 0.00014971
16150.0 0.00014885
16170.0 0.000148
16190.0 0.00014717
16210.0 0.00014634
16230.0 0.0001455
16250.0 0.00014468
16270.0 0.00014388
16290.0 0.00014306
16310.0 0.00014225
16330.0 0.00014146
16350.0 0.00014067
16370.0 0.00013986
16390.0 0.00013908
16410.0 0.00013831
16430.0 0.00013754
16450.0 0.00013677
16470.0 0.00013602
16490.0 0.00013526
16510.0 0.0001345
16530.0 0.00013376
16550.0 0.00013302
16570.0 0.00013228
16590.0 0.00013154
16610.0 0.00013083
16630.0 0.00013011
16650.0 0.00012938
16670.0 0.00012868
16690.0 0.00012798
16710.0 0.00012727
16730.0 0.00012657
16750.0 0.00012589
16770.0 0.0001252
16790.0 0.0001245
16810.0 0.00012383
16830.0 0.00012317
16850.0 0.00012249
16870.0 0.00012183
16890.0 0.00012118
16910.0 0.00012051
16930.0 0.00011985
16950.0 0.00011921
16970.0 0.00011857
16990.0 0.00011792
17010.0 0.00011729
17030.0 0.00011667
17050.0 0.00011604
17070.0 0.00011541
17090.0 0.0001148
17110.0 0.00011419
17130.0 0.00011356
17150.0 0.00011295
17170.0 0.00011236
17190.0 0.00011175
17210.0 0.00011115
17230.0 0.00011057
17250.0 0.00010998
17270.0 0.00010938
17290.0 0.0001088
17310.0 0.00010823
17330.0 0.00010765
17350.0 0.00010707
17370.0 0.00010651
17390.0 0.00010595
17410.0 0.00010538
17430.0 0.00010482
17450.0 0.00010428
17470.0 0.00010371
17490.0 0.00010315
17510.0 0.00010261
17530.0 0.00010207
17550.0 0.00010152
17570.0 0.00010099
17590.0 0.00010046
17610.0 9.9919e-05
17630.0 9.9387e-05
17650.0 9.8869e-05
17670.0 9.8344e-05
17690.0 9.7805e-05
17710.0 9.7295e-05
17730.0 9.6785e-05
17750.0 9.6265e-05
17770.0 9.5752e-05
17790.0 9.5257e-05
17810.0 9.4746e-05
17830.0 9.4234e-05
17850.0 9.3739e-05
17870.0 9.3246e-05
17890.0 9.274e-05
17910.0 9.2242e-05
17930.0 9.1764e-05
17950.0 9.1273e-05
17970.0 9.0781e-05
17990.0 9.0305e-05
18010.0 8.983e-05
18030.0 8.9336e-05
18050.0 8.8859e-05
18070.0 8.8393e-05
18090.0 8.7917e-05
18110.0 8.7438e-05
18130.0 8.698e-05
18150.0 8.6519e-05
18170.0 8.6048e-05
18190.0 8.5588e-05
18210.0 8.5138e-05
18230.0 8.4673e-05
18250.0 8.4208e-05
18270.0 8.3764e-05
18290.0 8.3316e-05
18310.0 8.2859e-05
18330.0 8.2415e-05
18350.0 8.1981e-05
18370.0 8.1532e-05
18390.0 8.1086e-05
18410.0 8.0654e-05
18430.0 8.022e-05
18450.0 7.9771e-05
18470.0 7.9341e-05
18490.0 7.8919e-05
18510.0 7.8486e-05
18530.0 7.8055e-05
18550.0 7.7641e-05
18570.0 7.7217e-05
18590.0 7.6784e-05
18610.0 7.6368e-05
18630.0 7.5956e-05
18650.0 7.5534e-05
18670.0 7.5112e-05
18690.0 7.4712e-05
18710.0 7.4302e-05
18730.0 7.3887e-05
18750.0 7.3484e-05
18770.0 7.3088e-05
18790.0 7.2671e-05
18810.0 7.2265e-05
18830.0 7.1874e-05
18850.0 7.1475e-05
18870.0 7.107e-05
18890.0 7.0682e-05
18910.0 7.0296e-05
18930.0 6.9896e-05
18950.0 6.9505e-05
18970.0 6.9125e-05
18990.0 6.8736e-05
19010.0 6.8336e-05
19030.0 6.7961e-05
19050.0 6.7585e-05
19070.0 6.7198e-05
19090.0 6.6819e-05
19110.0 6.6454e-05
19130.0 6.6072e-05
19150.0 6.5691e-05
19170.0 6.5324e-05
19190.0 6.4957e-05
19210.0 6.4578e-05
19230.0 6.4207e-05
19250.0 6.3852e-05
19270.0 6.3484e-05
19290.0 6.3116e-05
19310.0 6.2762e-05
19330.0 6.2406e-05
19350.0 6.2033e-05
19370.0 6.1676e-05
19390.0 6.1327e-05
19410.0 6.0968e-05
19430.0 6.0607e-05
19450.0 6.0265e-05
19470.0 5.9918e-05
19490.0 5.9561e-05
19510.0 5.9214e-05
19530.0 5.8876e-05
19550.0 5.8523e-05
19570.0 5.817e-05
19590.0 5.7836e-05
19610.0 5.7497e-05
19630.0 5.7149e-05
19650.0 5.6814e-05
19670.0 5.6486e-05
19690.0 5.6142e-05
19710.0 5.5802e-05
19730.0 5.5475e-05
19750.0 5.5144e-05
19770.0 5.48e-05
19790.0 5.4473e-05
19810.0 5.4151e-05
19830.0 5.3816e-05
19850.0 5.3482e-05
19870.0 5.3156e-05
19890.0 5.2806e-05
19910.0 5.2422e-05
19930.0 5.2016e-05
19950.0 5.1555e-05
19970.0 5.0996e-05
19990.0 5.0334e-05
20010.0 4.9601e-05
20030.0 4.8735e-05
20050.0 4.7753e-05
20070.0 4.6729e-05
20090.0 4.5672e-05
20110.0 4.4529e-05
20130.0 4.3432e-05
20150.0 4.2401e-05
20170.0 4.1387e-05
20190.0 4.0413e-05
20210.0 3.9543e-05
20230.0 3.8738e-05
20250.0 3.7972e-05
20270.0 3.7302e-05
20290.0 3.6725e-05
20310.0 3.6212e-05
20330.0 3.577e-05
20350.0 3.5443e-05
20370.0 3.5193e-05
20390.0 3.5024e-05
20410.0 3.4948e-05
20430.0 3.4959e-05
20450.0 3.5059e-05
20470.0 3.5254e-05
20490.0 3.5528e-05
20510.0 3.5887e-05
20530.0 3.6343e-05
20550.0 3.6866e-05
20570.0 3.7435e-05
20590.0 3.8085e-05
20610.0 3.8787e-05
20630.0 3.9499e-05
20650.0 4.0242e-05
20670.0 4.1032e-05
20690.0 4.1783e-05
20710.0 4.2504e-05
20730.0 4.3218e-05
20750.0 4.3894e-05
20770.0 4.4493e-05
20790.0 4.5053e-05
20810.0 4.5572e-05
20830.0 4.6023e-05
20850.0 4.6416e-05
20870.0 4.6779e-05
20890.0 4.7099e-05
20910.0 4.737e-05
20930.0 4.7619e-05
20950.0 4.7851e-05
20970.0 4.8055e-05
20990.0 4.8239e-05
21010.0 4.8413e-05
21030.0 4.8562e-05
21050.0 4.8684e-05
21070.0 4.8781e-05
21090.0 4.8847e-05
21110.0 4.8874e-05
21130.0 4.8866e-05
21150.0 4.8818e-05
21170.0 4.8731e-05
21190.0 4.8612e-05
21210.0 4.8455e-05
21230.0 4.8263e-05
21250.0 4.8054e-05
21270.0 4.7827e-05
21290.0 4.7578e-05
21310.0 4.7323e-05
21330.0 4.7078e-05
21350.0 4.6826e-05
21370.0 4.6579e-05
21390.0 4.6352e-05
21410.0 4.6142e-05
21430.0 4.5939e-05
21450.0 4.5767e-05
21470.0 4.5624e-05
21490.0 4.5502e-05
21510.0 4.5406e-05
21530.0 4.5342e-05
21550.0 4.5304e-05
21570.0 4.5296e-05
21590.0 4.5318e-05
21610.0 4.5368e-05
21630.0 4.5451e-05
21650.0 4.557e-05
21670.0 4.5713e-05
21690.0 4.589e-05
21710.0 4.6106e-05
21730.0 4.6352e-05
21750.0 4.6623e-05
21770.0 4.6946e-05
21790.0 4.7304e-05
21810.0 4.7684e-05
21830.0 4.8101e-05
21850.0 4.8568e-05
21870.0 4.9055e-05
21890.0 4.9555e-05
21910.0 5.0103e-05
21930.0 5.0674e-05
21950.0 5.1245e-05
21970.0 5.1839e-05
21990.0 5.2472e-05
22010.0 5.308e-05
22030.0 5.3677e-05
22050.0 5.4284e-05
22070.0 5.4875e-05
22090.0 5.5417e-05
22110.0 5.5942e-05
22130.0 5.644e-05
22150.0 5.6876e-05
22170.0 5.7255e-05
22190.0 5.7587e-05
22210.0 5.7845e-05
22230.0 5.8019e-05
22250.0 5.812e-05
22270.0 5.8135e-05
22290.0 5.8063e-05
22310.0 5.7908e-05
22330.0 5.7651e-05
22350.0 5.7303e-05
22370.0 5.688e-05
22390.0 5.6362e-05
22410.0 5.5739e-05
22430.0 5.5069e-05
22450.0 5.4336e-05
22470.0 5.351e-05
22490.0 5.2638e-05
22510.0 5.175e-05
22530.0 5.0787e-05
22550.0 4.9774e-05
22570.0 4.8785e-05
22590.0 4.7784e-05
22610.0 4.6746e-05
22630.0 4.5726e-05
22650.0 4.4761e-05
22670.0 4.3777e-05
22690.0 4.2809e-05
22710.0 4.1903e-05
22730.0 4.1031e-05
22750.0 4.015e-05
22770.0 3.9345e-05
