#lamb flux
1010.0 4.2169e-06
1030.0 4.5207e-06
1050.0 4.8712e-06
1070.0 5.266e-06
1090.0 5.7147e-06
1110.0 6.1757e-06
1130.0 6.6405e-06
1150.0 7.1283e-06
1170.0 7.6325e-06
1190.0 8.1121e-06
1210.0 8.5995e-06
1230.0 9.1043e-06
1250.0 9.6006e-06
1270.0 1.0085e-05
1290.0 1.0597e-05
1310.0 1.1111e-05
1330.0 1.1606e-05
1350.0 1.2109e-05
1370.0 1.263e-05
1390.0 1.314e-05
1410.0 1.3638e-05
1430.0 1.416e-05
1450.0 1.4685e-05
1470.0 1.5194e-05
1490.0 1.5711e-05
1510.0 1.6258e-05
1530.0 1.678e-05
1550.0 1.7297e-05
1570.0 1.7832e-05
1590.0 1.8369e-05
1610.0 1.8884e-05
1630.0 1.9415e-05
1650.0 1.9959e-05
1670.0 2.0485e-05
1690.0 2.1004e-05
1710.0 2.1541e-05
1730.0 2.2078e-05
1750.0 2.2582e-05
1770.0 2.3096e-05
1790.0 2.3616e-05
1810.0 2.4115e-05
1830.0 2.46e-05
1850.0 2.5108e-05
1870.0 2.5596e-05
1890.0 2.6059e-05
1910.0 2.6524e-05
1930.0 2.6992e-05
1950.0 2.7427e-05
1970.0 2.7847e-05
1990.0 2.8276e-05
2010.0 2.8686e-05
2030.0 2.9068e-05
2050.0 2.9454e-05
2070.0 2.9842e-05
2090.0 3.0191e-05
2110.0 3.053e-05
2130.0 3.0873e-05
2150.0 3.1198e-05
2170.0 3.1493e-05
2190.0 3.1798e-05
2210.0 3.2099e-05
2230.0 3.2374e-05
2250.0 3.2642e-05
2270.0 3.2924e-05
2290.0 3.3187e-05
2310.0 3.3429e-05
2330.0 3.3682e-05
2350.0 3.3937e-05
2370.0 3.4173e-05
2390.0 3.4413e-05
2410.0 3.4674e-05
2430.0 3.4924e-05
2450.0 3.5171e-05
2470.0 3.5444e-05
2490.0 3.5758e-05
2510.0 3.6123e-05
2530.0 3.667e-05
2550.0 3.7612e-05
2570.0 3.918e-05
2590.0 4.1645e-05
2610.0 4.5696e-05
2630.0 5.1532e-05
2650.0 5.8864e-05
2670.0 6.7789e-05
2690.0 7.8009e-05
2710.0 8.8167e-05
2730.0 9.7597e-05
2750.0 0.00010646
2770.0 0.00011398
2790.0 0.00012005
2810.0 0.00012529
2830.0 0.00013016
2850.0 0.00013444
2870.0 0.00013863
2890.0 0.00014303
2910.0 0.00014757
2930.0 0.00015207
2950.0 0.0001569
2970.0 0.000162
2990.0 0.0001671
3010.0 0.00075556
3030.0 0.0007795
3050.0 0.0008032
3070.0 0.0008243
3090.0 0.00084204
3110.0 0.00085138
3130.0 0.00084633
3150.0 0.00082072
3170.0 0.00076209
3190.0 0.00066954
3210.0 0.00054522
3230.0 0.00040618
3250.0 0.00054539
3270.0 0.00039333
3290.0 0.00072563
3310.0 0.00037204
3330.0 0.00037158
3350.0 0.00041984
3370.0 0.00047835
3390.0 0.00054302
3410.0 0.00060805
3430.0 0.0006767
3450.0 0.00074645
3470.0 0.00081137
3490.0 0.00085893
3510.0 0.001001
3530.0 0.0012451
3550.0 0.0012224
3570.0 0.0010481
3590.0 0.0013501
3610.0 0.00095917
3630.0 0.0014332
3650.0 0.0016438
3670.0 0.0020293
3690.0 0.0019002
3710.0 0.0013477
3730.0 0.0016583
3750.0 0.0016885
3770.0 0.0018255
3790.0 0.0018262
3810.0 0.0019579
3830.0 0.0030072
3850.0 0.003745
3870.0 0.0045706
3890.0 0.0045285
3910.0 0.0041264
3930.0 0.0041564
3950.0 0.0044343
3970.0 0.0046064
3990.0 0.0028514
4010.0 0.0016061
4030.0 0.0028771
4050.0 0.0038967
4070.0 0.0040099
4090.0 0.0026339
4110.0 0.0017497
4130.0 0.0029476
4150.0 0.0031199
4170.0 0.0027805
4190.0 0.0024449
4210.0 0.0035221
4230.0 0.0027737
4250.0 0.0028767
4270.0 0.0028561
4290.0 0.0026498
4310.0 0.0033669
4330.0 0.003722
4350.0 0.0033172
4370.0 0.0028688
4390.0 0.0033384
4410.0 0.0033396
4430.0 0.0024561
4450.0 0.0021208
4470.0 0.002618
4490.0 0.0021268
4510.0 0.0030341
4530.0 0.0031329
4550.0 0.0035208
4570.0 0.004794
4590.0 0.0049598
4610.0 0.00453
4630.0 0.0067875
4650.0 0.0084958
4670.0 0.0082704
4690.0 0.0065264
4710.0 0.006743
4730.0 0.0070016
4750.0 0.0055565
4770.0 0.0043261
4790.0 0.0030453
4810.0 0.0038666
4830.0 0.0045422
4850.0 0.0041417
4870.0 0.0023258
4890.0 0.0048198
4910.0 0.0058848
4930.0 0.0064152
4950.0 0.0068838
4970.0 0.0055119
4990.0 0.0063455
5010.0 0.0070722
5030.0 0.0072307
5050.0 0.0064467
5070.0 0.0045783
5090.0 0.0037518
5110.0 0.0036882
5130.0 0.0036221
5150.0 0.0036378
5170.0 0.0033265
5190.0 0.0038154
5210.0 0.0038984
5230.0 0.0043178
5250.0 0.0049596
5270.0 0.0042764
5290.0 0.0046156
5310.0 0.0064713
5330.0 0.0073365
5350.0 0.0063572
5370.0 0.0059291
5390.0 0.0067404
5410.0 0.0076232
5430.0 0.0079139
5450.0 0.008302
5470.0 0.0085728
5490.0 0.0092355
5510.0 0.011068
5530.0 0.011502
5550.0 0.011937
5570.0 0.012311
5590.0 0.012019
5610.0 0.011284
5630.0 0.011124
5650.0 0.011533
5670.0 0.011224
5690.0 0.0097687
5710.0 0.0096751
5730.0 0.009469
5750.0 0.009439
5770.0 0.0082012
5790.0 0.0080756
5810.0 0.0083727
5830.0 0.009105
5850.0 0.0086227
5870.0 0.0085924
5890.0 0.0096672
5910.0 0.0089783
5930.0 0.007647
5950.0 0.007142
5970.0 0.0076907
5990.0 0.0069122
6010.0 0.0061685
6030.0 0.0058422
6050.0 0.0053253
6070.0 0.0043604
6090.0 0.0043104
6110.0 0.0052927
6130.0 0.0057547
6150.0 0.0059026
6170.0 0.0058568
6190.0 0.0057867
6210.0 0.0062371
6230.0 0.0074949
6250.0 0.0069346
6270.0 0.0061748
6290.0 0.0055274
6310.0 0.0048701
6330.0 0.0044488
6350.0 0.0040641
6370.0 0.004186
6390.0 0.004803
6410.0 0.0059074
6430.0 0.0070809
6450.0 0.0074552
6470.0 0.0077611
6490.0 0.0092327
6510.0 0.010434
6530.0 0.0099772
6550.0 0.009486
6570.0 0.0096095
6590.0 0.0095304
6610.0 0.009883
6630.0 0.0092412
6650.0 0.0081104
6670.0 0.0075967
6690.0 0.0075104
6710.0 0.0084757
6730.0 0.0074951
6750.0 0.0062234
6770.0 0.0057626
6790.0 0.0061333
6810.0 0.0070063
6830.0 0.0070199
6850.0 0.0063343
6870.0 0.006487
6890.0 0.0064375
6910.0 0.0060519
6930.0 0.0065316
6950.0 0.0061677
6970.0 0.0058421
6990.0 0.0058746
7010.0 0.0060375
7030.0 0.0059038
7050.0 0.0055736
7070.0 0.0057793
7090.0 0.0052985
7110.0 0.0045104
7130.0 0.0040513
7150.0 0.004099
7170.0 0.0049298
7190.0 0.0051374
7210.0 0.0049001
7230.0 0.0052208
7250.0 0.0052481
7270.0 0.0052231
7290.0 0.0055381
7310.0 0.0058973
7330.0 0.0056896
7350.0 0.0052768
7370.0 0.0048777
7390.0 0.00484
7410.0 0.0054836
7430.0 0.0062414
7450.0 0.0067069
7470.0 0.0069771
7490.0 0.007912
7510.0 0.0078434
7530.0 0.0068655
7550.0 0.0063101
7570.0 0.0053962
7590.0 0.0050097
7610.0 0.0048485
7630.0 0.0045541
7650.0 0.0048928
7670.0 0.0054684
7690.0 0.0059682
7710.0 0.0068197
7730.0 0.0071182
7750.0 0.0073842
7770.0 0.0077774
7790.0 0.0083371
7810.0 0.008326
7830.0 0.0075014
7850.0 0.0075103
7870.0 0.007266
7890.0 0.0072899
7910.0 0.0068363
7930.0 0.0067009
7950.0 0.0055956
7970.0 0.0055473
7990.0 0.0054162
8010.0 0.0060321
8030.0 0.0060158
8050.0 0.0063878
8070.0 0.0061495
8090.0 0.0061728
8110.0 0.0060781
8130.0 0.0059605
8150.0 0.0055682
8170.0 0.0054788
8190.0 0.0054837
8210.0 0.0055372
8230.0 0.0048722
8250.0 0.0044666
8270.0 0.0039447
8290.0 0.0033491
8310.0 0.0029203
8330.0 0.0022832
8350.0 0.0018267
8370.0 0.0017399
8390.0 0.001699
8410.0 0.001801
8430.0 0.0023213
8450.0 0.0025384
8470.0 0.0027387
8490.0 0.003191
8510.0 0.0034701
8530.0 0.0039255
8550.0 0.0046425
8570.0 0.00511
8590.0 0.0053808
8610.0 0.0060132
8630.0 0.0068762
8650.0 0.0070766
8670.0 0.00723
8690.0 0.007462
8710.0 0.0073042
8730.0 0.0070444
8750.0 0.0064782
8770.0 0.0064648
8790.0 0.0063546
8810.0 0.0058448
8830.0 0.0058112
8850.0 0.0052713
8870.0 0.0050013
8890.0 0.004486
8910.0 0.0050195
8930.0 0.0045543
8950.0 0.004584
8970.0 0.00469
8990.0 0.0045675
9010.0 0.0046808
9030.0 0.0044434
9050.0 0.0044234
9070.0 0.0044266
9090.0 0.004429
9110.0 0.0044346
9130.0 0.004436
9150.0 0.0044351
9170.0 0.0044228
9190.0 0.0043939
9210.0 0.0044629
9230.0 0.0044456
9250.0 0.0044365
9270.0 0.0044293
9290.0 0.0044232
9310.0 0.0044178
9330.0 0.0044127
9350.0 0.0044077
9370.0 0.0044025
9390.0 0.0043969
9410.0 0.0043912
9430.0 0.0043854
9450.0 0.004379
9470.0 0.0043725
9490.0 0.0043659
9510.0 0.004359
9530.0 0.0043518
9550.0 0.0043447
9570.0 0.0043375
9590.0 0.0043301
9610.0 0.0043226
9630.0 0.0043153
9650.0 0.0043079
9670.0 0.0043002
9690.0 0.0042928
9710.0 0.0042855
9730.0 0.0042779
9750.0 0.0042706
9770.0 0.0042637
9790.0 0.0042566
9810.0 0.0042495
9830.0 0.0042428
9850.0 0.0042362
9870.0 0.0042295
9890.0 0.0042231
9910.0 0.0042172
9930.0 0.0042111
9950.0 0.0041995
9970.0 0.0041958
9990.0 0.0041922
10010.0 0.004188
10030.0 0.0041838
10050.0 0.0041781
10070.0 0.0041636
10090.0 0.004163
10110.0 0.0041624
10130.0 0.0041609
10150.0 0.0041591
10170.0 0.0041568
10190.0 0.0041541
10210.0 0.0041518
10230.0 0.0041497
10250.0 0.0041475
10270.0 0.0041456
10290.0 0.0041442
10310.0 0.0041428
10330.0 0.0041414
10350.0 0.0041405
10370.0 0.00414
10390.0 0.0041394
10410.0 0.0041391
10430.0 0.0041392
10450.0 0.0041394
10470.0 0.0041397
10490.0 0.0041404
10510.0 0.0041413
10530.0 0.004142
10550.0 0.0041432
10570.0 0.0041447
10590.0 0.0041462
10610.0 0.0041478
10630.0 0.0041497
10650.0 0.0041518
10670.0 0.0041539
10690.0 0.0041562
10710.0 0.0041587
10730.0 0.0041613
10750.0 0.0041638
10770.0 0.0041668
10790.0 0.0041698
10810.0 0.0041727
10830.0 0.0041756
10850.0 0.0041784
10870.0 0.0041802
10890.0 0.0041803
10910.0 0.0041775
10930.0 0.0041697
10950.0 0.0041531
10970.0 0.0041259
10990.0 0.0040872
11010.0 0.0041735
11030.0 0.0040971
11050.0 0.0040077
11070.0 0.0039044
11090.0 0.0037848
11110.0 0.0036657
11130.0 0.0035468
11150.0 0.0034252
11170.0 0.0033074
11190.0 0.0032006
11210.0 0.003098
11230.0 0.0030011
11250.0 0.0029159
11270.0 0.0028405
11290.0 0.0027706
11310.0 0.002709
11330.0 0.0026576
11350.0 0.0026104
11370.0 0.0025666
11390.0 0.0025271
11410.0 0.0024896
11430.0 0.0024501
11450.0 0.0024104
11470.0 0.0023703
11490.0 0.0023269
11510.0 0.0022793
11530.0 0.0022311
11550.0 0.002181
11570.0 0.0021268
11590.0 0.0020714
11610.0 0.0020169
11630.0 0.00196
11650.0 0.0019017
11670.0 0.0018467
11690.0 0.0017929
11710.0 0.0017387
11730.0 0.0016869
11750.0 0.0016391
11770.0 0.0015915
11790.0 0.0015454
11810.0 0.0015028
11830.0 0.0014621
11850.0 0.0014212
11870.0 0.0013831
11890.0 0.0013476
11910.0 0.0013121
11930.0 0.0012771
11950.0 0.0012444
11970.0 0.001212
11990.0 0.0011788
12010.0 0.001147
12030.0 0.0011166
12050.0 0.001086
12070.0 0.0010557
12090.0 0.0010285
12110.0 0.0010024
12130.0 0.00097743
12150.0 0.00095544
12170.0 0.00093674
12190.0 0.00092013
12210.0 0.00090752
12230.0 0.00089938
12250.0 0.00089537
12270.0 0.00089601
12290.0 0.00090144
12310.0 0.00091117
12330.0 0.0009258
12350.0 0.00094472
12370.0 0.00096658
12390.0 0.00099168
12410.0 0.0010206
12430.0 0.0010495
12450.0 0.0010786
12470.0 0.0011085
12490.0 0.0011374
12510.0 0.0011635
12530.0 0.0011884
12550.0 0.0012112
12570.0 0.0012305
12590.0 0.0012467
12610.0 0.0012604
12630.0 0.001271
12650.0 0.0012782
12670.0 0.0012831
12690.0 0.0012855
12710.0 0.0012855
12730.0 0.0012837
12750.0 0.0012798
12770.0 0.0012743
12790.0 0.0012675
12810.0 0.0012592
12830.0 0.0012493
12850.0 0.0012386
12870.0 0.0012267
12890.0 0.0012129
12910.0 0.0011978
12930.0 0.0011819
12950.0 0.0011637
12970.0 0.0011435
12990.0 0.0011227
13010.0 0.0011005
13030.0 0.0010763
13050.0 0.0010513
13070.0 0.0010268
13090.0 0.0010008
13110.0 0.00097466
13130.0 0.00095
13150.0 0.0009263
13170.0 0.00090285
13190.0 0.00088221
13210.0 0.00086442
13230.0 0.00084851
13250.0 0.00083528
13270.0 0.00082536
13290.0 0.00081794
13310.0 0.00081292
13330.0 0.00081048
13350.0 0.00081002
13370.0 0.00081106
13390.0 0.00081319
13410.0 0.00081573
13430.0 0.00081829
13450.0 0.00082041
13470.0 0.00082164
13490.0 0.00082177
13510.0 0.00082048
13530.0 0.00081772
13550.0 0.00081377
13570.0 0.00080858
13590.0 0.00080219
13610.0 0.00079531
13630.0 0.00078822
13650.0 0.00078068
13670.0 0.00077331
13690.0 0.00076651
13710.0 0.00076006
13730.0 0.00075389
13750.0 0.00074865
13770.0 0.00074392
13790.0 0.00073946
13810.0 0.00073529
13830.0 0.00073138
13850.0 0.0007273
13870.0 0.00072293
13890.0 0.00071836
13910.0 0.00071342
13930.0 0.00070783
13950.0 0.0007018
13970.0 0.0006957
13990.0 0.00068918
14010.0 0.00068245
14030.0 0.00067598
14050.0 0.00066976
14070.0 0.00066362
14090.0 0.00065815
14110.0 0.0006534
14130.0 0.00064921
14150.0 0.00064568
14170.0 0.00064297
14190.0 0.00064093
14210.0 0.00063953
14230.0 0.00063882
14250.0 0.00063871
14270.0 0.00063931
14290.0 0.00064064
14310.0 0.00064251
14330.0 0.00064501
14350.0 0.00064829
14370.0 0.00065208
14390.0 0.00065618
14410.0 0.00066095
14430.0 0.00066611
14450.0 0.00067128
14470.0 0.00067661
14490.0 0.00068238
14510.0 0.00068793
14530.0 0.00069334
14550.0 0.0006991
14570.0 0.00070512
14590.0 0.00071116
14610.0 0.00071782
14630.0 0.00072552
14650.0 0.00073379
14670.0 0.00074288
14690.0 0.0007535
14710.0 0.00076563
14730.0 0.00077819
14750.0 0.00079228
14770.0 0.00080802
14790.0 0.00082432
14810.0 0.00084094
14830.0 0.00085935
14850.0 0.00087767
14870.0 0.00089508
14890.0 0.00091226
14910.0 0.00092888
14930.0 0.00094329
14950.0 0.00095543
14970.0 0.00096577
14990.0 0.00097324
15010.0 0.00097776
15030.0 0.00097993
15050.0 0.00097998
15070.0 0.00097817
15090.0 0.00097522
15110.0 0.00097146
15130.0 0.00096723
15150.0 0.00096284
15170.0 0.00095826
15190.0 0.00095359
15210.0 0.00094898
15230.0 0.00094438
15250.0 0.00093971
15270.0 0.00093506
15290.0 0.00093054
15310.0 0.00092595
15330.0 0.00092135
15350.0 0.00091684
15370.0 0.00091235
15390.0 0.00090775
15410.0 0.00090324
15430.0 0.0008988
15450.0 0.00089432
15470.0 0.00088981
15490.0 0.00088542
15510.0 0.00088105
15530.0 0.00087661
15550.0 0.00087223
15570.0 0.00086793
15590.0 0.00086356
15610.0 0.00085918
15630.0 0.00085492
15650.0 0.00085067
15670.0 0.00084636
15690.0 0.00084213
15710.0 0.00083798
15730.0 0.00083376
15750.0 0.00082955
15770.0 0.00082543
15790.0 0.00082132
15810.0 0.00081713
15830.0 0.00081304
15850.0 0.00080903
15870.0 0.00080497
15890.0 0.00080091
15910.0 0.00079697
15930.0 0.000793
15950.0 0.00078898
15970.0 0.00078505
15990.0 0.00078117
16010.0 0.00077725
16030.0 0.00077332
16050.0 0.00076953
16070.0 0.00076572
16090.0 0.00076187
16110.0 0.0007581
16130.0 0.00075439
16150.0 0.00075057
16170.0 0.00074682
16190.0 0.00074316
16210.0 0.00073948
16230.0 0.00073576
16250.0 0.00073214
16270.0 0.00072858
16290.0 0.00072493
16310.0 0.00072133
16330.0 0.00071782
16350.0 0.00071428
16370.0 0.00071065
16390.0 0.00070719
16410.0 0.00070374
16430.0 0.00070023
16450.0 0.00069677
16470.0 0.00069341
16490.0 0.00068998
16510.0 0.00068653
16530.0 0.00068318
16550.0 0.00067985
16570.0 0.00067645
16590.0 0.00067309
16610.0 0.00066985
16630.0 0.00066655
16650.0 0.00066324
16670.0 0.00066002
16690.0 0.00065682
16710.0 0.00065351
16730.0 0.00065029
16750.0 0.00064714
16770.0 0.00064394
16790.0 0.00064072
16810.0 0.00063762
16830.0 0.00063451
16850.0 0.00063134
16870.0 0.00062824
16890.0 0.0006252
16910.0 0.00062208
16930.0 0.00061894
16950.0 0.00061594
16970.0 0.00061291
16990.0 0.00060984
17010.0 0.00060683
17030.0 0.00060389
17050.0 0.00060086
17070.0 0.00059785
17090.0 0.00059492
17110.0 0.00059198
17130.0 0.00058896
17150.0 0.00058604
17170.0 0.00058317
17190.0 0.00058024
17210.0 0.00057731
17230.0 0.00057449
17250.0 0.00057161
17270.0 0.00056868
17290.0 0.00056584
17310.0 0.00056303
17330.0 0.00056016
17350.0 0.00055728
17370.0 0.00055453
17390.0 0.00055174
17410.0 0.0005489
17430.0 0.00054614
17450.0 0.00054342
17470.0 0.00054057
17490.0 0.00053778
17510.0 0.00053508
17530.0 0.00053234
17550.0 0.00052956
17570.0 0.00052687
17590.0 0.0005242
17610.0 0.00052145
17630.0 0.00051874
17650.0 0.0005161
17670.0 0.00051341
17690.0 0.00051065
17710.0 0.00050803
17730.0 0.00050541
17750.0 0.00050272
17770.0 0.00050008
17790.0 0.00049752
17810.0 0.00049486
17830.0 0.0004922
17850.0 0.00048962
17870.0 0.00048704
17890.0 0.00048439
17910.0 0.00048179
17930.0 0.00047928
17950.0 0.00047669
17970.0 0.0004741
17990.0 0.00047159
18010.0 0.00046907
18030.0 0.00046645
18050.0 0.00046392
18070.0 0.00046143
18090.0 0.0004589
18110.0 0.00045634
18130.0 0.00045389
18150.0 0.00045142
18170.0 0.00044888
18190.0 0.00044641
18210.0 0.00044398
18230.0 0.00044147
18250.0 0.00043895
18270.0 0.00043655
18290.0 0.00043412
18310.0 0.00043164
18330.0 0.00042922
18350.0 0.00042685
18370.0 0.0004244
18390.0 0.00042196
18410.0 0.00041959
18430.0 0.00041721
18450.0 0.00041474
18470.0 0.00041237
18490.0 0.00041005
18510.0 0.00040766
18530.0 0.00040528
18550.0 0.00040298
18570.0 0.00040063
18590.0 0.00039823
18610.0 0.00039591
18630.0 0.00039362
18650.0 0.00039126
18670.0 0.00038891
18690.0 0.00038668
18710.0 0.00038438
18730.0 0.00038205
18750.0 0.00037979
18770.0 0.00037757
18790.0 0.00037522
18810.0 0.00037294
18830.0 0.00037073
18850.0 0.00036848
18870.0 0.00036619
18890.0 0.00036399
18910.0 0.00036181
18930.0 0.00035954
18950.0 0.00035732
18970.0 0.00035516
18990.0 0.00035295
19010.0 0.00035067
19030.0 0.00034853
19050.0 0.00034638
19070.0 0.00034418
19090.0 0.00034201
19110.0 0.00033992
19130.0 0.00033774
19150.0 0.00033555
19170.0 0.00033344
19190.0 0.00033133
19210.0 0.00032916
19230.0 0.00032702
19250.0 0.00032498
19270.0 0.00032286
19290.0 0.00032074
19310.0 0.00031869
19330.0 0.00031663
19350.0 0.00031448
19370.0 0.00031242
19390.0 0.0003104
19410.0 0.00030832
19430.0 0.00030623
19450.0 0.00030424
19470.0 0.00030222
19490.0 0.00030015
19510.0 0.00029814
19530.0 0.00029617
19550.0 0.00029412
19570.0 0.00029207
19590.0 0.00029012
19610.0 0.00028814
19630.0 0.00028612
19650.0 0.00028416
19670.0 0.00028224
19690.0 0.00028024
19710.0 0.00027825
19730.0 0.00027634
19750.0 0.0002744
19770.0 0.00027239
19790.0 0.00027048
19810.0 0.00026859
19830.0 0.00026663
19850.0 0.00026468
19870.0 0.00026277
19890.0 0.00026073
19910.0 0.00025851
19930.0 0.00025617
19950.0 0.00025355
19970.0 0.00025041
19990.0 0.00024673
20010.0 0.00024269
20030.0 0.00023797
20050.0 0.00023267
20070.0 0.0002272
20090.0 0.0002216
20110.0 0.00021561
20130.0 0.00020992
20150.0 0.00020464
20170.0 0.00019951
20190.0 0.00019466
20210.0 0.00019039
20230.0 0.00018649
20250.0 0.00018285
20270.0 0.00017972
20290.0 0.00017707
20310.0 0.00017476
20330.0 0.00017283
20350.0 0.00017144
20370.0 0.00017044
20390.0 0.00016982
20410.0 0.00016965
20430.0 0.00016987
20450.0 0.00017054
20470.0 0.00017164
20490.0 0.00017312
20510.0 0.00017501
20530.0 0.00017737
20550.0 0.00018005
20570.0 0.00018295
20590.0 0.00018626
20610.0 0.00018982
20630.0 0.00019343
20650.0 0.0001972
20670.0 0.0002012
20690.0 0.00020501
20710.0 0.00020867
20730.0 0.0002123
20750.0 0.00021575
20770.0 0.00021881
20790.0 0.0002217
20810.0 0.00022441
20830.0 0.00022679
20850.0 0.00022891
20870.0 0.00023093
20890.0 0.00023277
20910.0 0.0002344
20930.0 0.00023598
20950.0 0.00023753
20970.0 0.00023897
20990.0 0.00024034
21010.0 0.00024172
21030.0 0.00024299
21050.0 0.00024412
21070.0 0.00024512
21090.0 0.00024598
21110.0 0.00024659
21130.0 0.00024698
21150.0 0.00024714
21170.0 0.00024705
21190.0 0.00024673
21210.0 0.00024618
21230.0 0.00024538
21250.0 0.00024442
21270.0 0.00024331
21290.0 0.00024202
21310.0 0.00024064
21330.0 0.00023924
21350.0 0.00023775
21370.0 0.00023622
21390.0 0.00023474
21410.0 0.00023331
21430.0 0.00023184
21450.0 0.0002305
21470.0 0.00022928
21490.0 0.00022813
21510.0 0.00022709
21530.0 0.00022621
21550.0 0.00022546
21570.0 0.00022483
21590.0 0.00022438
21610.0 0.0002241
21630.0 0.00022399
21650.0 0.00022407
21670.0 0.00022434
21690.0 0.0002248
21710.0 0.00022549
21730.0 0.00022638
21750.0 0.00022744
21770.0 0.00022879
21790.0 0.00023036
21810.0 0.00023209
21830.0 0.00023405
21850.0 0.00023628
21870.0 0.00023866
21890.0 0.00024113
21910.0 0.00024387
21930.0 0.00024676
21950.0 0.00024967
21970.0 0.00025272
21990.0 0.00025599
22010.0 0.00025915
22030.0 0.00026227
22050.0 0.00026546
22070.0 0.00026859
22090.0 0.00027147
22110.0 0.00027428
22130.0 0.00027698
22150.0 0.00027937
22170.0 0.00028148
22190.0 0.00028337
22210.0 0.0002849
22230.0 0.00028599
22250.0 0.00028671
22270.0 0.00028702
22290.0 0.00028687
22310.0 0.0002863
22330.0 0.0002852
22350.0 0.00028364
22370.0 0.00028167
22390.0 0.00027921
22410.0 0.0002762
22430.0 0.00027293
22450.0 0.0002693
22470.0 0.00026519
22490.0 0.00026081
22510.0 0.00025632
22530.0 0.00025142
22550.0 0.00024624
22570.0 0.00024114
22590.0 0.00023597
22610.0 0.00023057
22630.0 0.00022524
22650.0 0.00022017
22670.0 0.00021498
22690.0 0.00020985
22710.0 0.00020502
22730.0 0.00020037
22750.0 0.00019564
22770.0 0.0001913
22790.0 0.00018731
22810.0 0.00018343
22830.0 0.00017978
22850.0 0.00017655
22870.0 0.00017356
22890.0 0.00017076
22910.0 0.00016835
22930.0 0.0001663
22950.0 0.00016453
22970.0 0.00016307
22990.0 0.00016206
23010.0 0.00016136
23030.0 0.00016102
23050.0 0.00016104
23070.0 0.00016138
23090.0 0.0001621
23110.0 0.00016314
