#lamb flux
1010.0 2.3489e-08
1030.0 2.6387e-08
1050.0 2.9721e-08
1070.0 3.3473e-08
1090.0 3.7735e-08
1110.0 4.2107e-08
1130.0 4.6507e-08
1150.0 5.1116e-08
1170.0 5.5871e-08
1190.0 6.0379e-08
1210.0 6.4948e-08
1230.0 6.967e-08
1250.0 7.4296e-08
1270.0 7.8789e-08
1290.0 8.3537e-08
1310.0 8.8281e-08
1330.0 9.283e-08
1350.0 9.7431e-08
1370.0 1.0218e-07
1390.0 1.0681e-07
1410.0 1.113e-07
1430.0 1.16e-07
1450.0 1.207e-07
1470.0 1.2524e-07
1490.0 1.2982e-07
1510.0 1.3467e-07
1530.0 1.3925e-07
1550.0 1.4378e-07
1570.0 1.4846e-07
1590.0 1.5314e-07
1610.0 1.5761e-07
1630.0 1.6222e-07
1650.0 1.6695e-07
1670.0 1.7151e-07
1690.0 1.7601e-07
1710.0 1.8068e-07
1730.0 1.8537e-07
1750.0 1.8977e-07
1770.0 1.9429e-07
1790.0 1.9889e-07
1810.0 2.0333e-07
1830.0 2.0767e-07
1850.0 2.1227e-07
1870.0 2.1672e-07
1890.0 2.21e-07
1910.0 2.2533e-07
1930.0 2.2975e-07
1950.0 2.3391e-07
1970.0 2.3798e-07
1990.0 2.4217e-07
2010.0 2.4624e-07
2030.0 2.5009e-07
2050.0 2.5401e-07
2070.0 2.5797e-07
2090.0 2.6159e-07
2110.0 2.6511e-07
2130.0 2.6868e-07
2150.0 2.7206e-07
2170.0 2.7515e-07
2190.0 2.7828e-07
2210.0 2.8132e-07
2230.0 2.8405e-07
2250.0 2.8662e-07
2270.0 2.8924e-07
2290.0 2.9157e-07
2310.0 2.9357e-07
2330.0 2.9553e-07
2350.0 2.9736e-07
2370.0 2.9886e-07
2390.0 3.0025e-07
2410.0 3.0174e-07
2430.0 3.0306e-07
2450.0 3.0434e-07
2470.0 3.0594e-07
2490.0 3.0805e-07
2510.0 3.1061e-07
2530.0 3.1475e-07
2550.0 3.2212e-07
2570.0 3.3426e-07
2590.0 3.5311e-07
2610.0 3.8412e-07
2630.0 4.2826e-07
2650.0 4.827e-07
2670.0 5.4772e-07
2690.0 6.2021e-07
2710.0 6.8909e-07
2730.0 7.4911e-07
2750.0 8.0115e-07
2770.0 8.3957e-07
2790.0 8.6428e-07
2810.0 8.7973e-07
2830.0 8.8893e-07
2850.0 8.9198e-07
2870.0 8.9223e-07
2890.0 8.9156e-07
2910.0 8.9008e-07
2930.0 8.8768e-07
2950.0 8.8565e-07
2970.0 8.839e-07
2990.0 8.8175e-07
3010.0 1.59e-05
3030.0 1.5848e-05
3050.0 1.5797e-05
3070.0 1.5729e-05
3090.0 1.5655e-05
3110.0 1.5556e-05
3130.0 1.5414e-05
3150.0 1.5218e-05
3170.0 1.4952e-05
3190.0 1.4625e-05
3210.0 1.4265e-05
3230.0 1.3907e-05
3250.0 1.3633e-05
3270.0 1.345e-05
3290.0 1.3459e-05
3310.0 1.3581e-05
3330.0 1.3908e-05
3350.0 1.4375e-05
3370.0 1.4992e-05
3390.0 1.574e-05
3410.0 1.6539e-05
3430.0 1.7426e-05
3450.0 1.8433e-05
3470.0 1.9515e-05
3490.0 2.0641e-05
3510.0 2.1894e-05
3530.0 2.3219e-05
3550.0 2.4516e-05
3570.0 2.5845e-05
3590.0 2.7336e-05
3610.0 2.8811e-05
3630.0 3.04e-05
3650.0 3.2023e-05
3670.0 3.3554e-05
3690.0 3.4733e-05
3710.0 3.5469e-05
3730.0 3.572e-05
3750.0 3.546e-05
3770.0 3.2326e-05
3790.0 2.9001e-05
3810.0 2.7073e-05
3830.0 2.3362e-05
3850.0 1.6836e-05
3870.0 1.2922e-05
3890.0 2.1723e-05
3910.0 3.4568e-05
3930.0 4.1852e-05
3950.0 4.1821e-05
3970.0 4.1802e-05
3990.0 4.9032e-05
4010.0 6.0858e-05
4030.0 6.2621e-05
4050.0 5.6372e-05
4070.0 4.9027e-05
4090.0 4.5948e-05
4110.0 5.5129e-05
4130.0 5.7094e-05
4150.0 5.4382e-05
4170.0 5.6148e-05
4190.0 5.7632e-05
4210.0 5.6798e-05
4230.0 6.1659e-05
4250.0 6.7162e-05
4270.0 6.7859e-05
4290.0 6.8914e-05
4310.0 7.1635e-05
4330.0 7.9201e-05
4350.0 9.0335e-05
4370.0 0.00010213
4390.0 9.8378e-05
4410.0 8.2479e-05
4430.0 6.9509e-05
4450.0 5.9136e-05
4470.0 5.7876e-05
4490.0 6.2829e-05
4510.0 6.8757e-05
4530.0 7.5226e-05
4550.0 8.7625e-05
4570.0 0.00010539
4590.0 0.00012901
4610.0 0.00016212
4630.0 0.00019424
4650.0 0.00020099
4670.0 0.00019711
4690.0 0.00020991
4710.0 0.00021938
4730.0 0.00018647
4750.0 0.0001356
4770.0 0.00011129
4790.0 0.0001062
4810.0 9.8638e-05
4830.0 9.3533e-05
4850.0 0.00010773
4870.0 0.00013752
4890.0 0.00015602
4910.0 0.00013419
4930.0 0.00011981
4950.0 0.0001348
4970.0 0.00017955
4990.0 0.00022975
5010.0 0.00024079
5030.0 0.0001994
5050.0 0.00013128
5070.0 9.083e-05
5090.0 8.0782e-05
5110.0 8.4417e-05
5130.0 9.0532e-05
5150.0 9.5302e-05
5170.0 9.53e-05
5190.0 9.3671e-05
5210.0 9.0635e-05
5230.0 9.2091e-05
5250.0 9.8032e-05
5270.0 0.00011447
5290.0 0.00013219
5310.0 0.00014363
5330.0 0.00014731
5350.0 0.00014959
5370.0 0.00016242
5390.0 0.00017252
5410.0 0.00016777
5430.0 0.00014685
5450.0 0.00013599
5470.0 0.00015328
5490.0 0.0001962
5510.0 0.00024865
5530.0 0.00027405
5550.0 0.00026752
5570.0 0.00024394
5590.0 0.00021948
5610.0 0.00020238
5630.0 0.00019179
5650.0 0.00019687
5670.0 0.0001928
5690.0 0.00018099
5710.0 0.00017053
5730.0 0.00015295
5750.0 0.00011386
5770.0 9.982e-05
5790.0 0.00011133
5810.0 0.00013421
5830.0 0.00015023
5850.0 0.00016192
5870.0 0.00016556
5890.0 0.00015942
5910.0 0.00015261
5930.0 0.00015356
5950.0 0.00016116
5970.0 0.00016866
5990.0 0.00016016
6010.0 0.00013548
6030.0 0.00011261
6050.0 9.8228e-05
6070.0 9.7345e-05
6090.0 0.00010921
6110.0 0.00011907
6130.0 0.00011469
6150.0 0.00010774
6170.0 0.00011928
6190.0 0.00014341
6210.0 0.00017208
6230.0 0.00019398
6250.0 0.00019316
6270.0 0.00017426
6290.0 0.00014424
6310.0 0.00011509
6330.0 9.2394e-05
6350.0 8.3802e-05
6370.0 9.1376e-05
6390.0 0.00010725
6410.0 0.00012291
6430.0 0.00014218
6450.0 0.00016525
6470.0 0.00020417
6490.0 0.00025037
6510.0 0.00027487
6530.0 0.00025554
6550.0 0.00023588
6570.0 0.00023206
6590.0 0.00022299
6610.0 0.00020158
6630.0 0.00018099
6650.0 0.00016731
6670.0 0.00017373
6690.0 0.00017278
6710.0 0.00015318
6730.0 0.00014197
6750.0 0.00012624
6770.0 0.00012153
6790.0 0.00013109
6810.0 0.00013814
6830.0 0.00014152
6850.0 0.00013909
6870.0 0.00013334
6890.0 0.00013064
6910.0 0.0001242
6930.0 0.00011733
6950.0 0.00011801
6970.0 0.00012046
6990.0 0.00013411
7010.0 0.0001427
7030.0 0.00012996
7050.0 0.00012174
7070.0 0.00011709
7090.0 0.00010535
7110.0 9.8151e-05
7130.0 9.9905e-05
7150.0 0.00010375
7170.0 0.00010929
7190.0 0.00010946
7210.0 0.00011001
7230.0 0.00011587
7250.0 0.00013344
7270.0 0.00015587
7290.0 0.00016705
7310.0 0.00016185
7330.0 0.00014396
7350.0 0.00012941
7370.0 0.00012726
7390.0 0.00012846
7410.0 0.00013316
7430.0 0.0001458
7450.0 0.00015804
7470.0 0.00017514
7490.0 0.00019352
7510.0 0.00017792
7530.0 0.00017035
7550.0 0.00014308
7570.0 0.00012026
7590.0 9.9123e-05
7610.0 9.0998e-05
7630.0 9.5224e-05
7650.0 0.00010892
7670.0 0.00011867
7690.0 0.00013386
7710.0 0.00014924
7730.0 0.00015609
7750.0 0.00015648
7770.0 0.00015592
7790.0 0.00015366
7810.0 0.00015963
7830.0 0.00015434
7850.0 0.00013772
7870.0 0.00012439
7890.0 0.00011591
7910.0 0.00010456
7930.0 8.9488e-05
7950.0 8.193e-05
7970.0 8.1464e-05
7990.0 8.5275e-05
8010.0 9.0544e-05
8030.0 9.1878e-05
8050.0 9.1514e-05
8070.0 8.8929e-05
8090.0 8.853e-05
8110.0 8.4141e-05
8130.0 7.843e-05
8150.0 7.3745e-05
8170.0 7.1955e-05
8190.0 7.35e-05
8210.0 7.3704e-05
8230.0 7.6652e-05
8250.0 7.6196e-05
8270.0 6.8114e-05
8290.0 5.2328e-05
8310.0 3.5637e-05
8330.0 2.3507e-05
8350.0 1.6688e-05
8370.0 1.9815e-05
8390.0 2.193e-05
8410.0 2.809e-05
8430.0 3.4041e-05
8450.0 3.7301e-05
8470.0 3.8693e-05
8490.0 3.9741e-05
8510.0 4.1519e-05
8530.0 4.6434e-05
8550.0 5.1311e-05
8570.0 6.0294e-05
8590.0 7.3958e-05
8610.0 8.6614e-05
8630.0 0.00010126
8650.0 0.0001139
8670.0 0.00011223
8690.0 0.00010519
8710.0 9.9426e-05
8730.0 9.3982e-05
8750.0 8.9904e-05
8770.0 8.726e-05
8790.0 8.4557e-05
8810.0 7.8787e-05
8830.0 7.1053e-05
8850.0 6.1532e-05
8870.0 5.2578e-05
8890.0 4.7498e-05
8910.0 4.8042e-05
8930.0 4.7986e-05
8950.0 5.2111e-05
8970.0 5.3327e-05
8990.0 5.5403e-05
9010.0 5.7461e-05
9030.0 5.7919e-05
9050.0 5.8135e-05
9070.0 5.8297e-05
9090.0 5.8417e-05
9110.0 5.8477e-05
9130.0 5.8572e-05
9150.0 5.8704e-05
9170.0 5.8836e-05
9190.0 5.8966e-05
9210.0 5.9168e-05
9230.0 5.9319e-05
9250.0 5.9492e-05
9270.0 5.9676e-05
9290.0 5.987e-05
9310.0 6.0082e-05
9330.0 6.0307e-05
9350.0 6.0538e-05
9370.0 6.0783e-05
9390.0 6.1044e-05
9410.0 6.1312e-05
9430.0 6.1586e-05
9450.0 6.188e-05
9470.0 6.2184e-05
9490.0 6.2493e-05
9510.0 6.2815e-05
9530.0 6.3151e-05
9550.0 6.349e-05
9570.0 6.3837e-05
9590.0 6.42e-05
9610.0 6.457e-05
9630.0 6.4944e-05
9650.0 6.5329e-05
9670.0 6.5727e-05
9690.0 6.6128e-05
9710.0 6.6535e-05
9730.0 6.6954e-05
9750.0 6.7379e-05
9770.0 6.7802e-05
9790.0 6.8238e-05
9810.0 6.8683e-05
9830.0 6.9127e-05
9850.0 6.9576e-05
9870.0 7.0037e-05
9890.0 7.0499e-05
9910.0 7.0959e-05
9930.0 7.1427e-05
9950.0 7.1898e-05
9970.0 7.2369e-05
9990.0 7.284e-05
10010.0 7.1649e-05
10030.0 7.211e-05
10050.0 7.2564e-05
10070.0 7.3007e-05
10090.0 7.348e-05
10110.0 7.3941e-05
10130.0 7.4402e-05
10150.0 7.4866e-05
10170.0 7.5323e-05
10190.0 7.5769e-05
10210.0 7.6221e-05
10230.0 7.6673e-05
10250.0 7.7111e-05
10270.0 7.7547e-05
10290.0 7.7986e-05
10310.0 7.8412e-05
10330.0 7.8825e-05
10350.0 7.9242e-05
10370.0 7.9653e-05
10390.0 8.0049e-05
10410.0 8.0438e-05
10430.0 8.083e-05
10450.0 8.1205e-05
10470.0 8.1567e-05
10490.0 8.1927e-05
10510.0 8.2278e-05
10530.0 8.2605e-05
10550.0 8.2928e-05
10570.0 8.3248e-05
10590.0 8.355e-05
10610.0 8.3835e-05
10630.0 8.4119e-05
10650.0 8.4389e-05
10670.0 8.4634e-05
10690.0 8.4872e-05
10710.0 8.5104e-05
10730.0 8.5313e-05
10750.0 8.5501e-05
10770.0 8.569e-05
10790.0 8.5862e-05
10810.0 8.6009e-05
10830.0 8.6143e-05
10850.0 8.6265e-05
10870.0 8.6338e-05
10890.0 8.6363e-05
10910.0 8.6327e-05
10930.0 8.6177e-05
10950.0 8.5839e-05
10970.0 8.529e-05
10990.0 8.451e-05
11010.0 8.1657e-05
11030.0 8.022e-05
11050.0 7.8547e-05
11070.0 7.6593e-05
11090.0 7.4274e-05
11110.0 7.1905e-05
11130.0 6.9458e-05
11150.0 6.6853e-05
11170.0 6.4213e-05
11190.0 6.1711e-05
11210.0 5.9195e-05
11230.0 5.6697e-05
11250.0 5.44e-05
11270.0 5.228e-05
11290.0 5.0242e-05
11310.0 4.8393e-05
11330.0 4.683e-05
11350.0 4.5402e-05
11370.0 4.4115e-05
11390.0 4.3016e-05
11410.0 4.2047e-05
11430.0 4.1115e-05
11450.0 4.026e-05
11470.0 3.9453e-05
11490.0 3.8623e-05
11510.0 3.7734e-05
11530.0 3.6833e-05
11550.0 3.5881e-05
11570.0 3.4827e-05
11590.0 3.372e-05
11610.0 3.2598e-05
11630.0 3.1397e-05
11650.0 3.0147e-05
11670.0 2.8952e-05
11690.0 2.7781e-05
11710.0 2.6614e-05
11730.0 2.5521e-05
11750.0 2.454e-05
11770.0 2.3606e-05
11790.0 2.2752e-05
11810.0 2.2013e-05
11830.0 2.1358e-05
11850.0 2.0753e-05
11870.0 2.0235e-05
11890.0 1.9783e-05
11910.0 1.9359e-05
11930.0 1.8956e-05
11950.0 1.858e-05
11970.0 1.8202e-05
11990.0 1.7801e-05
12010.0 1.7395e-05
12030.0 1.698e-05
12050.0 1.6537e-05
12070.0 1.6071e-05
12090.0 1.5625e-05
12110.0 1.5176e-05
12130.0 1.4731e-05
12150.0 1.4323e-05
12170.0 1.3961e-05
12190.0 1.3634e-05
12210.0 1.3375e-05
12230.0 1.3195e-05
12250.0 1.3089e-05
12270.0 1.3068e-05
12290.0 1.3132e-05
12310.0 1.3269e-05
12330.0 1.3493e-05
12350.0 1.379e-05
12370.0 1.4134e-05
12390.0 1.4532e-05
12410.0 1.4996e-05
12430.0 1.5455e-05
12450.0 1.5916e-05
12470.0 1.6392e-05
12490.0 1.6848e-05
12510.0 1.7252e-05
12530.0 1.7631e-05
12550.0 1.7969e-05
12570.0 1.8237e-05
12590.0 1.844e-05
12610.0 1.8589e-05
12630.0 1.8666e-05
12650.0 1.867e-05
12670.0 1.8615e-05
12690.0 1.85e-05
12710.0 1.8332e-05
12730.0 1.812e-05
12750.0 1.7856e-05
12770.0 1.7559e-05
12790.0 1.7239e-05
12810.0 1.689e-05
12830.0 1.6512e-05
12850.0 1.6132e-05
12870.0 1.5741e-05
12890.0 1.5326e-05
12910.0 1.4906e-05
12930.0 1.4489e-05
12950.0 1.4051e-05
12970.0 1.3596e-05
12990.0 1.3155e-05
13010.0 1.2709e-05
13030.0 1.2249e-05
13050.0 1.1796e-05
13070.0 1.1364e-05
13090.0 1.0924e-05
13110.0 1.0496e-05
13130.0 1.0099e-05
13150.0 9.7246e-06
13170.0 9.3639e-06
13190.0 9.0492e-06
13210.0 8.7799e-06
13230.0 8.5446e-06
13250.0 8.3544e-06
13270.0 8.2161e-06
13290.0 8.1227e-06
13310.0 8.0769e-06
13330.0 8.0793e-06
13350.0 8.1234e-06
13370.0 8.2108e-06
13390.0 8.3387e-06
13410.0 8.4866e-06
13430.0 8.661e-06
13450.0 8.8595e-06
13470.0 9.0636e-06
13490.0 9.2658e-06
13510.0 9.4815e-06
13530.0 9.6869e-06
13550.0 9.8715e-06
13570.0 1.0044e-05
13590.0 1.0203e-05
13610.0 1.0334e-05
13630.0 1.044e-05
13650.0 1.0529e-05
13670.0 1.0594e-05
13690.0 1.0633e-05
13710.0 1.0652e-05
13730.0 1.0652e-05
13750.0 1.063e-05
13770.0 1.0592e-05
13790.0 1.0537e-05
13810.0 1.0468e-05
13830.0 1.0387e-05
13850.0 1.0293e-05
13870.0 1.0185e-05
13890.0 1.007e-05
13910.0 9.9474e-06
13930.0 9.8119e-06
13950.0 9.6696e-06
13970.0 9.5283e-06
13990.0 9.3793e-06
14010.0 9.2259e-06
14030.0 9.0768e-06
14050.0 8.9307e-06
14070.0 8.7817e-06
14090.0 8.6432e-06
14110.0 8.5169e-06
14130.0 8.3991e-06
14150.0 8.293e-06
14170.0 8.2065e-06
14190.0 8.1362e-06
14210.0 8.0822e-06
14230.0 8.0483e-06
14250.0 8.0337e-06
14270.0 8.0385e-06
14290.0 8.0641e-06
14310.0 8.1061e-06
14330.0 8.1647e-06
14350.0 8.2411e-06
14370.0 8.3293e-06
14390.0 8.4246e-06
14410.0 8.5333e-06
14430.0 8.6497e-06
14450.0 8.7668e-06
14470.0 8.8881e-06
14490.0 9.0188e-06
14510.0 9.1477e-06
14530.0 9.2762e-06
14550.0 9.4143e-06
14570.0 9.5604e-06
14590.0 9.7095e-06
14610.0 9.8732e-06
14630.0 1.0059e-05
14650.0 1.0257e-05
14670.0 1.0471e-05
14690.0 1.0714e-05
14710.0 1.0984e-05
14730.0 1.126e-05
14750.0 1.1562e-05
14770.0 1.1891e-05
14790.0 1.2225e-05
14810.0 1.2561e-05
14830.0 1.2923e-05
14850.0 1.3278e-05
14870.0 1.3612e-05
14890.0 1.3937e-05
14910.0 1.4247e-05
14930.0 1.4517e-05
14950.0 1.4747e-05
14970.0 1.4945e-05
14990.0 1.5097e-05
15010.0 1.5201e-05
15030.0 1.5269e-05
15050.0 1.5303e-05
15070.0 1.531e-05
15090.0 1.53e-05
15110.0 1.5277e-05
15130.0 1.5247e-05
15150.0 1.5216e-05
15170.0 1.5181e-05
15190.0 1.5145e-05
15210.0 1.511e-05
15230.0 1.5076e-05
15250.0 1.504e-05
15270.0 1.5004e-05
15290.0 1.4971e-05
15310.0 1.4937e-05
15330.0 1.4902e-05
15350.0 1.4869e-05
15370.0 1.4836e-05
15390.0 1.4801e-05
15410.0 1.4767e-05
15430.0 1.4734e-05
15450.0 1.4701e-05
15470.0 1.4666e-05
15490.0 1.4634e-05
15510.0 1.4601e-05
15530.0 1.4567e-05
15550.0 1.4534e-05
15570.0 1.4503e-05
15590.0 1.4469e-05
15610.0 1.4435e-05
15630.0 1.4402e-05
15650.0 1.437e-05
15670.0 1.4336e-05
15690.0 1.4303e-05
15710.0 1.4271e-05
15730.0 1.4237e-05
15750.0 1.4203e-05
15770.0 1.4171e-05
15790.0 1.4138e-05
15810.0 1.4103e-05
15830.0 1.4069e-05
15850.0 1.4037e-05
15870.0 1.4002e-05
15890.0 1.3968e-05
15910.0 1.3935e-05
15930.0 1.3901e-05
15950.0 1.3865e-05
15970.0 1.3831e-05
15990.0 1.3797e-05
16010.0 1.3762e-05
16030.0 1.3726e-05
16050.0 1.3692e-05
16070.0 1.3657e-05
16090.0 1.3621e-05
16110.0 1.3585e-05
16130.0 1.3551e-05
16150.0 1.3513e-05
16170.0 1.3476e-05
16190.0 1.344e-05
16210.0 1.3404e-05
16230.0 1.3366e-05
16250.0 1.3329e-05
16270.0 1.3293e-05
16290.0 1.3254e-05
16310.0 1.3216e-05
16330.0 1.3179e-05
16350.0 1.3141e-05
16370.0 1.31e-05
16390.0 1.3062e-05
16410.0 1.3024e-05
16430.0 1.2983e-05
16450.0 1.2944e-05
16470.0 1.2905e-05
16490.0 1.2865e-05
16510.0 1.2823e-05
16530.0 1.2783e-05
16550.0 1.2743e-05
16570.0 1.27e-05
16590.0 1.2658e-05
16610.0 1.2618e-05
16630.0 1.2576e-05
16650.0 1.2533e-05
16670.0 1.2491e-05
16690.0 1.2449e-05
16710.0 1.2405e-05
16730.0 1.2361e-05
16750.0 1.2319e-05
16770.0 1.2275e-05
16790.0 1.2229e-05
16810.0 1.2186e-05
16830.0 1.2142e-05
16850.0 1.2096e-05
16870.0 1.2051e-05
16890.0 1.2007e-05
16910.0 1.1961e-05
16930.0 1.1914e-05
16950.0 1.1868e-05
16970.0 1.1822e-05
16990.0 1.1775e-05
17010.0 1.1728e-05
17030.0 1.1683e-05
17050.0 1.1635e-05
17070.0 1.1586e-05
17090.0 1.1539e-05
17110.0 1.1492e-05
17130.0 1.1442e-05
17150.0 1.1394e-05
17170.0 1.1346e-05
17190.0 1.1297e-05
17210.0 1.1247e-05
17230.0 1.1199e-05
17250.0 1.115e-05
17270.0 1.1099e-05
17290.0 1.1049e-05
17310.0 1.1e-05
17330.0 1.0949e-05
17350.0 1.0897e-05
17370.0 1.0848e-05
17390.0 1.0798e-05
17410.0 1.0746e-05
17430.0 1.0695e-05
17450.0 1.0645e-05
17470.0 1.0592e-05
17490.0 1.054e-05
17510.0 1.0489e-05
17530.0 1.0437e-05
17550.0 1.0384e-05
17570.0 1.0333e-05
17590.0 1.0281e-05
17610.0 1.0228e-05
17630.0 1.0175e-05
17650.0 1.0124e-05
17670.0 1.0071e-05
17690.0 1.0016e-05
17710.0 9.964e-06
17730.0 9.9117e-06
17750.0 9.8578e-06
17770.0 9.8044e-06
17790.0 9.7525e-06
17810.0 9.6985e-06
17830.0 9.6441e-06
17850.0 9.5911e-06
17870.0 9.538e-06
17890.0 9.4832e-06
17910.0 9.429e-06
17930.0 9.3766e-06
17950.0 9.3226e-06
17970.0 9.268e-06
17990.0 9.215e-06
18010.0 9.1617e-06
18030.0 9.1062e-06
18050.0 9.0522e-06
18070.0 8.999e-06
18090.0 8.9446e-06
18110.0 8.8897e-06
18130.0 8.8367e-06
18150.0 8.7832e-06
18170.0 8.7283e-06
18190.0 8.6744e-06
18210.0 8.6214e-06
18230.0 8.5666e-06
18250.0 8.5115e-06
18270.0 8.4585e-06
18290.0 8.4049e-06
18310.0 8.3501e-06
18330.0 8.2966e-06
18350.0 8.244e-06
18370.0 8.1894e-06
18390.0 8.1351e-06
18410.0 8.0822e-06
18430.0 8.0288e-06
18450.0 7.9738e-06
18470.0 7.9206e-06
18490.0 7.8682e-06
18510.0 7.8143e-06
18530.0 7.7607e-06
18550.0 7.7086e-06
18570.0 7.6554e-06
18590.0 7.6012e-06
18610.0 7.5485e-06
18630.0 7.4964e-06
18650.0 7.4428e-06
18670.0 7.3894e-06
18690.0 7.3381e-06
18710.0 7.2857e-06
18730.0 7.2326e-06
18750.0 7.1808e-06
18770.0 7.1296e-06
18790.0 7.0761e-06
18810.0 7.0237e-06
18830.0 6.9728e-06
18850.0 6.9211e-06
18870.0 6.8686e-06
18890.0 6.8178e-06
18910.0 6.7673e-06
18930.0 6.7152e-06
18950.0 6.664e-06
18970.0 6.6139e-06
18990.0 6.5629e-06
19010.0 6.5106e-06
19030.0 6.461e-06
19050.0 6.4112e-06
19070.0 6.3602e-06
19090.0 6.3101e-06
19110.0 6.2614e-06
19130.0 6.2109e-06
19150.0 6.1604e-06
19170.0 6.1115e-06
19190.0 6.0625e-06
19210.0 6.0122e-06
19230.0 5.9629e-06
19250.0 5.9152e-06
19270.0 5.8661e-06
19290.0 5.817e-06
19310.0 5.7693e-06
19330.0 5.7215e-06
19350.0 5.6719e-06
19370.0 5.624e-06
19390.0 5.577e-06
19410.0 5.5289e-06
19430.0 5.4807e-06
19450.0 5.4343e-06
19470.0 5.3875e-06
19490.0 5.3397e-06
19510.0 5.293e-06
19530.0 5.2473e-06
19550.0 5.1999e-06
19570.0 5.1526e-06
19590.0 5.1074e-06
19610.0 5.0616e-06
19630.0 5.015e-06
19650.0 4.9696e-06
19670.0 4.9251e-06
19690.0 4.8789e-06
19710.0 4.8333e-06
19730.0 4.789e-06
19750.0 4.7443e-06
19770.0 4.6983e-06
19790.0 4.6541e-06
19810.0 4.6106e-06
19830.0 4.5658e-06
19850.0 4.5211e-06
19870.0 4.4777e-06
19890.0 4.4323e-06
19910.0 4.3845e-06
19930.0 4.3359e-06
19950.0 4.284e-06
19970.0 4.2253e-06
19990.0 4.1602e-06
20010.0 4.1535e-06
20030.0 4.0742e-06
20050.0 3.9868e-06
20070.0 3.8968e-06
20090.0 3.8043e-06
20110.0 3.7047e-06
20130.0 3.6082e-06
20150.0 3.5161e-06
20170.0 3.4243e-06
20190.0 3.3346e-06
20210.0 3.2526e-06
20230.0 3.1749e-06
20250.0 3.0996e-06
20270.0 3.0315e-06
20290.0 2.9709e-06
20310.0 2.915e-06
20330.0 2.8644e-06
20350.0 2.8237e-06
20370.0 2.7891e-06
20390.0 2.7607e-06
20410.0 2.7398e-06
20430.0 2.7258e-06
20450.0 2.718e-06
20470.0 2.7169e-06
20490.0 2.7216e-06
20510.0 2.7318e-06
20530.0 2.7478e-06
20550.0 2.7681e-06
20570.0 2.7914e-06
20590.0 2.8193e-06
20610.0 2.8503e-06
20630.0 2.8823e-06
20650.0 2.9167e-06
20670.0 2.9544e-06
20690.0 2.9913e-06
20710.0 3.028e-06
20730.0 3.0664e-06
20750.0 3.1051e-06
20770.0 3.1418e-06
20790.0 3.1793e-06
20810.0 3.218e-06
20830.0 3.2555e-06
20850.0 3.2925e-06
20870.0 3.3319e-06
20890.0 3.3719e-06
20910.0 3.4103e-06
20930.0 3.4504e-06
20950.0 3.4924e-06
20970.0 3.5337e-06
20990.0 3.5748e-06
21010.0 3.6186e-06
21030.0 3.6618e-06
21050.0 3.7031e-06
21070.0 3.7445e-06
21090.0 3.7862e-06
21110.0 3.824e-06
21130.0 3.8593e-06
21150.0 3.8935e-06
21170.0 3.9242e-06
21190.0 3.9505e-06
21210.0 3.9744e-06
21230.0 3.9947e-06
21250.0 4.0097e-06
21270.0 4.0204e-06
21290.0 4.0269e-06
21310.0 4.0282e-06
21330.0 4.0245e-06
21350.0 4.0158e-06
21370.0 4.0015e-06
21390.0 3.9822e-06
21410.0 3.9578e-06
21430.0 3.9264e-06
21450.0 3.8903e-06
21470.0 3.8502e-06
21490.0 3.8043e-06
21510.0 3.753e-06
21530.0 3.6999e-06
21550.0 3.6432e-06
21570.0 3.5817e-06
21590.0 3.5197e-06
21610.0 3.4584e-06
21630.0 3.3955e-06
21650.0 3.332e-06
21670.0 3.2748e-06
21690.0 3.2198e-06
21710.0 3.1675e-06
21730.0 3.1214e-06
21750.0 3.0822e-06
21770.0 3.0472e-06
21790.0 3.0199e-06
21810.0 3.0007e-06
21830.0 2.9888e-06
21850.0 2.9845e-06
21870.0 2.9881e-06
21890.0 2.9988e-06
21910.0 3.0171e-06
21930.0 3.0426e-06
21950.0 3.0734e-06
21970.0 3.1105e-06
21990.0 3.1555e-06
22010.0 3.2033e-06
22030.0 3.2545e-06
22050.0 3.3111e-06
22070.0 3.3709e-06
22090.0 3.4301e-06
22110.0 3.4922e-06
22130.0 3.5567e-06
22150.0 3.6193e-06
22170.0 3.6801e-06
22190.0 3.7422e-06
22210.0 3.8015e-06
22230.0 3.8546e-06
22250.0 3.9052e-06
22270.0 3.952e-06
22290.0 3.9919e-06
22310.0 4.0256e-06
22330.0 4.0543e-06
22350.0 4.075e-06
22370.0 4.0878e-06
22390.0 4.0932e-06
22410.0 4.0901e-06
22430.0 4.0788e-06
22450.0 4.0598e-06
22470.0 4.0318e-06
22490.0 3.9958e-06
22510.0 3.9536e-06
22530.0 3.902e-06
22550.0 3.8417e-06
22570.0 3.7771e-06
22590.0 3.7063e-06
22610.0 3.6269e-06
22630.0 3.5429e-06
