#lamb flux
1010.0 6.7011e-05
1030.0 8.5296e-05
1050.0 0.00010706
1070.0 0.0001325
1090.0 0.00016253
1110.0 0.00019498
1130.0 0.00022945
1150.0 0.00026682
1170.0 0.00030705
1190.0 0.00034747
1210.0 0.00039223
1230.0 0.00043965
1250.0 0.00048733
1270.0 0.00053417
1290.0 0.0005824
1310.0 0.00062914
1330.0 0.0006719
1350.0 0.00071182
1370.0 0.00074901
1390.0 0.00078067
1410.0 0.00080635
1430.0 0.00082867
1450.0 0.00084604
1470.0 0.00085757
1490.0 0.00086537
1510.0 0.0008766
1530.0 0.00088558
1550.0 0.00089216
1570.0 0.00089692
1590.0 0.00090101
1610.0 0.00090363
1630.0 0.0009074
1650.0 0.00091247
1670.0 0.00091747
1690.0 0.00092321
1710.0 0.00093111
1730.0 0.00094039
1750.0 0.00094947
1770.0 0.00096058
1790.0 0.00097346
1810.0 0.00098679
1830.0 0.0010009
1850.0 0.0010176
1870.0 0.0010348
1890.0 0.0010522
1910.0 0.001071
1930.0 0.0010914
1950.0 0.0011117
1970.0 0.0011326
1990.0 0.0011551
2010.0 0.0011782
2030.0 0.0012012
2050.0 0.0012257
2070.0 0.0012516
2090.0 0.0012769
2110.0 0.0013029
2130.0 0.0013303
2150.0 0.001358
2170.0 0.0013855
2190.0 0.0014144
2210.0 0.0014441
2230.0 0.0014735
2250.0 0.0015034
2270.0 0.0015349
2290.0 0.0015661
2310.0 0.0015969
2330.0 0.0016289
2350.0 0.0016614
2370.0 0.0016931
2390.0 0.0017253
2410.0 0.0017587
2430.0 0.0017916
2450.0 0.0018248
2470.0 0.0018603
2490.0 0.0019001
2510.0 0.0019443
2530.0 0.0019993
2550.0 0.0020727
2570.0 0.0021695
2590.0 0.0022962
2610.0 0.0024764
2630.0 0.0027151
2650.0 0.0030072
2670.0 0.0033684
2690.0 0.0038063
2710.0 0.0042855
2730.0 0.0047873
2750.0 0.0053273
2770.0 0.0058563
2790.0 0.006337
2810.0 0.0067754
2830.0 0.0071706
2850.0 0.0074798
2870.0 0.0077319
2890.0 0.0079474
2910.0 0.0081286
2930.0 0.0082802
2950.0 0.0084244
2970.0 0.0085638
2990.0 0.0086926
3010.0 0.0088163
3030.0 0.0089428
3050.0 0.0090662
3070.0 0.0091771
3090.0 0.009289
3110.0 0.0094031
3130.0 0.009522
3150.0 0.0096414
3170.0 0.0098428
3190.0 0.010148
3210.0 0.010596
3230.0 0.01125
3250.0 0.012158
3270.0 0.013038
3290.0 0.014402
3310.0 0.017136
3330.0 0.017728
3350.0 0.017785
3370.0 0.017813
3390.0 0.017834
3410.0 0.017841
3430.0 0.017837
3450.0 0.01783
3470.0 0.017826
3490.0 0.017791
3510.0 0.017649
3530.0 0.016965
3550.0 0.016134
3570.0 0.016368
3590.0 0.017408
3610.0 0.018786
3630.0 0.019539
3650.0 0.018657
3670.0 0.016787
3690.0 0.015494
3710.0 0.015362
3730.0 0.015769
3750.0 0.015997
3770.0 0.016501
3790.0 0.017094
3810.0 0.017051
3830.0 0.015941
3850.0 0.014866
3870.0 0.01442
3890.0 0.014553
3910.0 0.014525
3930.0 0.014584
3950.0 0.015297
3970.0 0.016139
3990.0 0.016581
4010.0 0.016433
4030.0 0.015923
4050.0 0.015713
4070.0 0.015604
4090.0 0.015654
4110.0 0.015606
4130.0 0.015171
4150.0 0.014664
4170.0 0.014543
4190.0 0.014092
4210.0 0.013191
4230.0 0.012214
4250.0 0.011204
4270.0 0.010455
4290.0 0.010029
4310.0 0.0099353
4330.0 0.010278
4350.0 0.010811
4370.0 0.011298
4390.0 0.012189
4410.0 0.012949
4430.0 0.012978
4450.0 0.012125
4470.0 0.011326
4490.0 0.011037
4510.0 0.010912
4530.0 0.01097
4550.0 0.011034
4570.0 0.011237
4590.0 0.011636
4610.0 0.012167
4630.0 0.012569
4650.0 0.012838
4670.0 0.012707
4690.0 0.012069
4710.0 0.011416
4730.0 0.010979
4750.0 0.010726
4770.0 0.010737
4790.0 0.010738
4810.0 0.010521
4830.0 0.010429
4850.0 0.010796
4870.0 0.010746
4890.0 0.010577
4910.0 0.010342
4930.0 0.0097004
4950.0 0.0086913
4970.0 0.0080511
4990.0 0.0075167
5010.0 0.00727
5030.0 0.0073928
5050.0 0.0075484
5070.0 0.0077126
5090.0 0.0080514
5110.0 0.0080576
5130.0 0.0079906
5150.0 0.0080213
5170.0 0.007903
5190.0 0.0079498
5210.0 0.0078964
5230.0 0.0076571
5250.0 0.0076319
5270.0 0.0076913
5290.0 0.0075821
5310.0 0.0073617
5330.0 0.0071195
5350.0 0.0068744
5370.0 0.006712
5390.0 0.0065528
5410.0 0.0063919
5430.0 0.0063501
5450.0 0.0063225
5470.0 0.0063698
5490.0 0.0065986
5510.0 0.0067408
5530.0 0.0067731
5550.0 0.0068167
5570.0 0.0068239
5590.0 0.0066953
5610.0 0.006626
5630.0 0.006643
5650.0 0.0065585
5670.0 0.0064177
5690.0 0.0062456
5710.0 0.0062151
5730.0 0.0063106
5750.0 0.0060729
5770.0 0.0057869
5790.0 0.0053959
5810.0 0.0047966
5830.0 0.0051732
5850.0 0.005704
5870.0 0.0058509
5890.0 0.0059371
5910.0 0.0060788
5930.0 0.0061241
5950.0 0.006107
5970.0 0.0061141
5990.0 0.0061203
6010.0 0.0060077
6030.0 0.0058916
6050.0 0.0058746
6070.0 0.0059055
6090.0 0.0059185
6110.0 0.0058152
6130.0 0.0056876
6150.0 0.0055455
6170.0 0.0054015
6190.0 0.0051926
6210.0 0.0050921
6230.0 0.0051043
6250.0 0.0050658
6270.0 0.0050313
6290.0 0.0050779
6310.0 0.0051332
6330.0 0.0050923
6350.0 0.004988
6370.0 0.004961
6390.0 0.0048939
6410.0 0.0048223
6430.0 0.0047318
6450.0 0.0046813
6470.0 0.004633
6490.0 0.0046099
6510.0 0.0045466
6530.0 0.0044733
6550.0 0.0044052
6570.0 0.0043525
6590.0 0.0043831
6610.0 0.0043783
6630.0 0.0042563
6650.0 0.004142
6670.0 0.0041031
6690.0 0.0040411
6710.0 0.0039445
6730.0 0.0039084
6750.0 0.0039389
6770.0 0.0041501
6790.0 0.0045526
6810.0 0.0043412
6830.0 0.0038485
6850.0 0.0036738
6870.0 0.0036026
6890.0 0.0035834
6910.0 0.003572
6930.0 0.0035521
6950.0 0.0035294
6970.0 0.0034155
6990.0 0.0033595
7010.0 0.0033774
7030.0 0.003373
7050.0 0.0032955
7070.0 0.0032065
7090.0 0.0031708
7110.0 0.003203
7130.0 0.0031887
7150.0 0.0031693
7170.0 0.0031497
7190.0 0.0031411
7210.0 0.0031602
7230.0 0.0031733
7250.0 0.0031746
7270.0 0.0031641
7290.0 0.0031822
7310.0 0.0031812
7330.0 0.0031123
7350.0 0.0030031
7370.0 0.0029376
7390.0 0.0029112
7410.0 0.0028554
7430.0 0.0028575
7450.0 0.0028329
7470.0 0.0028508
7490.0 0.0027984
7510.0 0.0027149
7530.0 0.0027217
7550.0 0.0027167
7570.0 0.002668
7590.0 0.0025235
7610.0 0.0024974
7630.0 0.0025849
7650.0 0.0026178
7670.0 0.0025671
7690.0 0.0026203
7710.0 0.0026822
7730.0 0.0027041
7750.0 0.0027795
7770.0 0.0027142
7790.0 0.0026357
7810.0 0.0027364
7830.0 0.002829
7850.0 0.0028369
7870.0 0.0028894
7890.0 0.0028657
7910.0 0.0028182
7930.0 0.0027911
7950.0 0.002868
7970.0 0.0028587
7990.0 0.0026616
8010.0 0.0026115
8030.0 0.0025808
8050.0 0.0025315
8070.0 0.0024742
8090.0 0.0022608
8110.0 0.0022657
8130.0 0.0024402
8150.0 0.0025382
8170.0 0.0025663
8190.0 0.0026443
8210.0 0.0025891
8230.0 0.0025498
8250.0 0.0025455
8270.0 0.0024988
8290.0 0.0024478
8310.0 0.0023302
8330.0 0.002328
8350.0 0.0023663
8370.0 0.0023818
8390.0 0.002368
8410.0 0.0023353
8430.0 0.0022948
8450.0 0.0022883
8470.0 0.0023822
8490.0 0.002407
8510.0 0.0023075
8530.0 0.0022285
8550.0 0.0022173
8570.0 0.0021515
8590.0 0.0021179
8610.0 0.0021564
8630.0 0.0021624
8650.0 0.0021464
8670.0 0.0021326
8690.0 0.002106
8710.0 0.0020145
8730.0 0.0020097
8750.0 0.0019646
8770.0 0.001971
8790.0 0.0019549
8810.0 0.0019001
8830.0 0.0019051
8850.0 0.0019197
8870.0 0.0018285
8890.0 0.0017552
8910.0 0.0016982
8930.0 0.0016231
8950.0 0.0015767
8970.0 0.0015104
8990.0 0.0014857
9010.0 0.0014317
9030.0 0.0014152
9050.0 0.0014066
9070.0 0.0013983
9090.0 0.00139
9110.0 0.0013814
9130.0 0.0013729
9150.0 0.0013645
9170.0 0.001356
9190.0 0.0013474
9210.0 0.0013388
9230.0 0.0013301
9250.0 0.0013214
9270.0 0.0013126
9290.0 0.0013039
9310.0 0.0012952
9330.0 0.0012869
9350.0 0.0012785
9370.0 0.00127
9390.0 0.0012616
9410.0 0.0012532
9430.0 0.0012448
9450.0 0.0012363
9470.0 0.0012287
9490.0 0.0012207
9510.0 0.0012119
9530.0 0.0012031
9550.0 0.0011946
9570.0 0.0011862
9590.0 0.0011778
9610.0 0.0011697
9630.0 0.0011617
9650.0 0.0011537
9670.0 0.0011457
9690.0 0.0011378
9710.0 0.0011299
9730.0 0.0011221
9750.0 0.0011143
9770.0 0.0011066
9790.0 0.0010989
9810.0 0.0010912
9830.0 0.0010836
9850.0 0.0010754
9870.0 0.0010671
9890.0 0.0010603
9910.0 0.0010534
9930.0 0.0010452
9950.0 0.0010379
9970.0 0.0010313
9990.0 0.0010245
10010.0 0.0010178
10030.0 0.001011
10050.0 0.0010041
10070.0 0.00099735
10090.0 0.00099067
10110.0 0.00098394
10130.0 0.0009773
10150.0 0.00097081
10170.0 0.00096437
10190.0 0.00095793
10210.0 0.00095165
10230.0 0.00094547
10250.0 0.00093929
10270.0 0.00093321
10290.0 0.00092726
10310.0 0.00092133
10330.0 0.00091542
10350.0 0.00090967
10370.0 0.00090401
10390.0 0.00089832
10410.0 0.00089229
10430.0 0.00088625
10450.0 0.00088138
10470.0 0.00087627
10490.0 0.00087124
10510.0 0.00086624
10530.0 0.0008611
10550.0 0.00085609
10570.0 0.00085124
10590.0 0.00084637
10610.0 0.00084152
10630.0 0.00083686
10650.0 0.00083226
10670.0 0.0008276
10690.0 0.00082308
10710.0 0.00081871
10730.0 0.00081431
10750.0 0.0008099
10770.0 0.00080574
10790.0 0.00080161
10810.0 0.00079746
10830.0 0.00079342
10850.0 0.00078955
10870.0 0.00078556
10890.0 0.00078164
10910.0 0.00077788
10930.0 0.00077413
10950.0 0.00077031
10970.0 0.00076656
10990.0 0.00076291
11010.0 0.00080386
11030.0 0.00079966
11050.0 0.00079546
11070.0 0.00079106
11090.0 0.00078628
11110.0 0.00078163
11130.0 0.00077695
11150.0 0.00077204
11170.0 0.00076703
11190.0 0.00076222
11210.0 0.00075724
11230.0 0.00075212
11250.0 0.00074719
11270.0 0.00074242
11290.0 0.00073756
11310.0 0.00073285
11330.0 0.00072863
11350.0 0.00072451
11370.0 0.00072054
11390.0 0.00071697
11410.0 0.00071369
11430.0 0.00071043
11450.0 0.00070745
11470.0 0.00070474
11490.0 0.00070209
11510.0 0.00069941
11530.0 0.00069693
11550.0 0.00069449
11570.0 0.00069188
11590.0 0.00068926
11610.0 0.00068667
11630.0 0.00068387
11650.0 0.00068086
11670.0 0.00067793
11690.0 0.00067489
11710.0 0.00067161
11730.0 0.00066829
11750.0 0.00066507
11770.0 0.00066162
11790.0 0.00065808
11810.0 0.00065468
11830.0 0.00065129
11850.0 0.0006477
11870.0 0.00064432
11890.0 0.00064118
11910.0 0.00063802
11930.0 0.00063496
11950.0 0.00063223
11970.0 0.00062965
11990.0 0.00062712
12010.0 0.00062491
12030.0 0.00062299
12050.0 0.00062121
12070.0 0.0006196
12090.0 0.00061838
12110.0 0.00061731
12130.0 0.00061639
12150.0 0.00061568
12170.0 0.00061515
12190.0 0.00061465
12210.0 0.00061422
12230.0 0.00061387
12250.0 0.00061347
12270.0 0.00061295
12290.0 0.00061234
12310.0 0.00061161
12330.0 0.00061059
12350.0 0.00060931
12370.0 0.00060783
12390.0 0.00060603
12410.0 0.00060374
12430.0 0.0006013
12450.0 0.00059859
12470.0 0.00059545
12490.0 0.00059202
12510.0 0.00058851
12530.0 0.00058464
12550.0 0.00058043
12570.0 0.00057619
12590.0 0.00057186
12610.0 0.00056719
12630.0 0.00056243
12650.0 0.0005579
12670.0 0.0005532
12690.0 0.00054841
12710.0 0.00054384
12730.0 0.0005394
12750.0 0.00053479
12770.0 0.00053043
12790.0 0.00052638
12810.0 0.00052239
12830.0 0.0005185
12850.0 0.00051502
12870.0 0.00051178
12890.0 0.00050865
12910.0 0.00050582
12930.0 0.00050336
12950.0 0.00050106
12970.0 0.00049902
12990.0 0.00049739
13010.0 0.00049603
13030.0 0.00049492
13050.0 0.00049411
13070.0 0.00049358
13090.0 0.00049323
13110.0 0.00049306
13130.0 0.00049302
13150.0 0.00049305
13170.0 0.00049308
13190.0 0.00049305
13210.0 0.00049292
13230.0 0.0004926
13250.0 0.00049206
13270.0 0.00049129
13290.0 0.00049023
13310.0 0.00048882
13330.0 0.00048713
13350.0 0.00048518
13370.0 0.00048284
13390.0 0.00048015
13410.0 0.00047734
13430.0 0.00047421
13450.0 0.00047074
13470.0 0.0004671
13490.0 0.00046336
13510.0 0.00045919
13530.0 0.00045487
13550.0 0.00045056
13570.0 0.00044606
13590.0 0.00044131
13610.0 0.00043661
13630.0 0.00043194
13650.0 0.00042702
13670.0 0.00042208
13690.0 0.00041727
13710.0 0.00041238
13730.0 0.00040726
13750.0 0.00040244
13770.0 0.0003977
13790.0 0.00039287
13810.0 0.00038813
13830.0 0.00038368
13850.0 0.00037918
13870.0 0.00037472
13890.0 0.00037051
13910.0 0.00036646
13930.0 0.00036239
13950.0 0.00035847
13970.0 0.00035486
13990.0 0.00035126
14010.0 0.00034775
14030.0 0.00034446
14050.0 0.00034132
14070.0 0.00033815
14090.0 0.00033519
14110.0 0.00033241
14130.0 0.0003297
14150.0 0.00032705
14170.0 0.00032461
14190.0 0.00032226
14210.0 0.00031993
14230.0 0.00031772
14250.0 0.00031562
14270.0 0.00031351
14290.0 0.00031142
14310.0 0.00030946
14330.0 0.00030752
14350.0 0.00030557
14370.0 0.00030368
14390.0 0.00030186
14410.0 0.00030001
14430.0 0.00029818
14450.0 0.00029642
14470.0 0.00029467
14490.0 0.00029288
14510.0 0.00029115
14530.0 0.00028946
14550.0 0.00028773
14570.0 0.000286
14590.0 0.00028432
14610.0 0.00028261
14630.0 0.00028085
14650.0 0.00027911
14670.0 0.00027739
14690.0 0.00027562
14710.0 0.00027381
14730.0 0.00027207
14750.0 0.00027028
14770.0 0.00026844
14790.0 0.00026661
14810.0 0.0002648
14830.0 0.00026288
14850.0 0.00026095
14870.0 0.00025907
14890.0 0.00025715
14910.0 0.00025521
14930.0 0.00025334
14950.0 0.00025157
14970.0 0.00024981
14990.0 0.00024819
15010.0 0.00024672
15030.0 0.00024535
15050.0 0.00024406
15070.0 0.00024292
15090.0 0.00024185
15110.0 0.0002408
15130.0 0.00023979
15150.0 0.00023882
15170.0 0.00023784
15190.0 0.00023686
15210.0 0.0002359
15230.0 0.00023495
15250.0 0.00023398
15270.0 0.00023302
15290.0 0.00023209
15310.0 0.00023115
15330.0 0.0002302
15350.0 0.00022927
15370.0 0.00022835
15390.0 0.00022741
15410.0 0.00022648
15430.0 0.00022557
15450.0 0.00022466
15470.0 0.00022373
15490.0 0.00022284
15510.0 0.00022194
15530.0 0.00022104
15550.0 0.00022014
15570.0 0.00021927
15590.0 0.00021837
15610.0 0.00021748
15630.0 0.00021661
15650.0 0.00021575
15670.0 0.00021487
15690.0 0.00021401
15710.0 0.00021316
15730.0 0.0002123
15750.0 0.00021144
15770.0 0.00021061
15790.0 0.00020977
15810.0 0.00020892
15830.0 0.00020809
15850.0 0.00020727
15870.0 0.00020645
15890.0 0.00020562
15910.0 0.00020482
15930.0 0.00020402
15950.0 0.00020319
15970.0 0.0002024
15990.0 0.00020161
16010.0 0.00020081
16030.0 0.00020001
16050.0 0.00019925
16070.0 0.00019847
16090.0 0.00019769
16110.0 0.00019692
16130.0 0.00019617
16150.0 0.0001954
16170.0 0.00019463
16190.0 0.00019389
16210.0 0.00019315
16230.0 0.00019239
16250.0 0.00019166
16270.0 0.00019094
16290.0 0.0001902
16310.0 0.00018947
16330.0 0.00018876
16350.0 0.00018804
16370.0 0.00018731
16390.0 0.00018661
16410.0 0.00018591
16430.0 0.0001852
16450.0 0.00018451
16470.0 0.00018383
16490.0 0.00018314
16510.0 0.00018244
16530.0 0.00018177
16550.0 0.0001811
16570.0 0.00018042
16590.0 0.00017974
16610.0 0.00017909
16630.0 0.00017843
16650.0 0.00017777
16670.0 0.00017713
16690.0 0.00017649
16710.0 0.00017582
16730.0 0.00017518
16750.0 0.00017456
16770.0 0.00017392
16790.0 0.00017328
16810.0 0.00017267
16830.0 0.00017205
16850.0 0.00017142
16870.0 0.00017081
16890.0 0.00017021
16910.0 0.00016959
16930.0 0.00016898
16950.0 0.00016839
16970.0 0.00016779
16990.0 0.00016719
17010.0 0.0001666
17030.0 0.00016603
17050.0 0.00016544
17070.0 0.00016485
17090.0 0.00016428
17110.0 0.00016371
17130.0 0.00016312
17150.0 0.00016256
17170.0 0.00016201
17190.0 0.00016144
17210.0 0.00016088
17230.0 0.00016034
17250.0 0.00015979
17270.0 0.00015922
17290.0 0.00015868
17310.0 0.00015814
17330.0 0.00015759
17350.0 0.00015704
17370.0 0.00015653
17390.0 0.000156
17410.0 0.00015546
17430.0 0.00015493
17450.0 0.00015442
17470.0 0.00015388
17490.0 0.00015336
17510.0 0.00015285
17530.0 0.00015234
17550.0 0.00015181
17570.0 0.00015131
17590.0 0.00015082
17610.0 0.0001503
17630.0 0.0001498
17650.0 0.00014931
17670.0 0.00014881
17690.0 0.00014829
17710.0 0.00014781
17730.0 0.00014732
17750.0 0.00014683
17770.0 0.00014634
17790.0 0.00014587
17810.0 0.00014538
17830.0 0.00014488
17850.0 0.00014441
17870.0 0.00014394
17890.0 0.00014345
17910.0 0.00014297
17930.0 0.00014251
17950.0 0.00014204
17970.0 0.00014156
17990.0 0.0001411
18010.0 0.00014065
18030.0 0.00014016
18050.0 0.0001397
18070.0 0.00013925
18090.0 0.00013878
18110.0 0.00013831
18130.0 0.00013787
18150.0 0.00013742
18170.0 0.00013695
18190.0 0.0001365
18210.0 0.00013606
18230.0 0.0001356
18250.0 0.00013513
18270.0 0.00013469
18290.0 0.00013425
18310.0 0.00013379
18330.0 0.00013335
18350.0 0.00013292
18370.0 0.00013247
18390.0 0.00013201
18410.0 0.00013158
18430.0 0.00013114
18450.0 0.00013068
18470.0 0.00013025
18490.0 0.00012982
18510.0 0.00012937
18530.0 0.00012893
18550.0 0.00012851
18570.0 0.00012807
18590.0 0.00012762
18610.0 0.00012719
18630.0 0.00012676
18650.0 0.00012632
18670.0 0.00012587
18690.0 0.00012546
18710.0 0.00012502
18730.0 0.00012458
18750.0 0.00012415
18770.0 0.00012373
18790.0 0.00012328
18810.0 0.00012284
18830.0 0.00012242
18850.0 0.00012199
18870.0 0.00012155
18890.0 0.00012112
18910.0 0.0001207
18930.0 0.00012026
18950.0 0.00011983
18970.0 0.00011941
18990.0 0.00011897
19010.0 0.00011852
19030.0 0.0001181
19050.0 0.00011768
19070.0 0.00011723
19090.0 0.0001168
19110.0 0.00011639
19130.0 0.00011594
19150.0 0.0001155
19170.0 0.00011508
19190.0 0.00011465
19210.0 0.0001142
19230.0 0.00011376
19250.0 0.00011334
19270.0 0.0001129
19290.0 0.00011246
19310.0 0.00011204
19330.0 0.00011161
19350.0 0.00011115
19370.0 0.00011071
19390.0 0.00011029
19410.0 0.00010984
19430.0 0.00010939
19450.0 0.00010897
19470.0 0.00010853
19490.0 0.00010808
19510.0 0.00010764
19530.0 0.00010721
19550.0 0.00010676
19570.0 0.0001063
19590.0 0.00010587
19610.0 0.00010542
19630.0 0.00010497
19650.0 0.00010452
19670.0 0.00010409
19690.0 0.00010363
19710.0 0.00010317
19730.0 0.00010274
19750.0 0.00010229
19770.0 0.00010181
19790.0 0.00010137
19810.0 0.00010092
19830.0 0.00010046
19850.0 0.0001
19870.0 9.9569e-05
19890.0 9.9118e-05
19910.0 9.8664e-05
19930.0 9.8249e-05
19950.0 9.7862e-05
19970.0 9.7496e-05
19990.0 9.7181e-05
20010.0 9.6939e-05
20030.0 9.674e-05
20050.0 9.6593e-05
20070.0 9.6501e-05
20090.0 9.6448e-05
20110.0 9.6413e-05
20130.0 9.6402e-05
20150.0 9.6404e-05
20170.0 9.6408e-05
20190.0 9.641e-05
20210.0 9.6415e-05
20230.0 9.6417e-05
20250.0 9.6409e-05
20270.0 9.6397e-05
20290.0 9.6381e-05
20310.0 9.6355e-05
20330.0 9.6315e-05
20350.0 9.6277e-05
20370.0 9.623e-05
20390.0 9.6169e-05
20410.0 9.6103e-05
20430.0 9.6037e-05
20450.0 9.5956e-05
20470.0 9.5869e-05
20490.0 9.5787e-05
20510.0 9.5702e-05
20530.0 9.5609e-05
20550.0 9.5523e-05
20570.0 9.5446e-05
20590.0 9.5365e-05
20610.0 9.5287e-05
20630.0 9.5219e-05
20650.0 9.5152e-05
20670.0 9.5079e-05
20690.0 9.5014e-05
20710.0 9.495e-05
20730.0 9.4877e-05
20750.0 9.4796e-05
20770.0 9.4715e-05
20790.0 9.4619e-05
20810.0 9.4503e-05
20830.0 9.4378e-05
20850.0 9.424e-05
20870.0 9.4072e-05
20890.0 9.3884e-05
20910.0 9.3692e-05
20930.0 9.3478e-05
20950.0 9.3239e-05
20970.0 9.2996e-05
20990.0 9.2748e-05
21010.0 9.2472e-05
21030.0 9.2194e-05
21050.0 9.1923e-05
21070.0 9.1643e-05
21090.0 9.135e-05
21110.0 9.1076e-05
21130.0 9.0807e-05
21150.0 9.0528e-05
21170.0 9.0254e-05
21190.0 8.9995e-05
21210.0 8.9723e-05
21230.0 8.9443e-05
21250.0 8.9176e-05
21270.0 8.8906e-05
21290.0 8.8618e-05
21310.0 8.8326e-05
21330.0 8.8042e-05
21350.0 8.7736e-05
21370.0 8.7413e-05
21390.0 8.7091e-05
21410.0 8.676e-05
21430.0 8.6392e-05
21450.0 8.6026e-05
21470.0 8.5662e-05
21490.0 8.5274e-05
21510.0 8.4868e-05
21530.0 8.4473e-05
21550.0 8.4066e-05
21570.0 8.3633e-05
21590.0 8.3204e-05
21610.0 8.2783e-05
21630.0 8.2342e-05
21650.0 8.1883e-05
21670.0 8.1456e-05
21690.0 8.102e-05
21710.0 8.0568e-05
21730.0 8.0126e-05
21750.0 7.9698e-05
21770.0 7.9242e-05
21790.0 7.8787e-05
21810.0 7.835e-05
21830.0 7.7905e-05
21850.0 7.7443e-05
21870.0 7.6992e-05
21890.0 7.6555e-05
21910.0 7.6098e-05
21930.0 7.564e-05
21950.0 7.5201e-05
21970.0 7.4756e-05
21990.0 7.4293e-05
22010.0 7.3859e-05
22030.0 7.3438e-05
22050.0 7.3012e-05
22070.0 7.2597e-05
22090.0 7.2214e-05
22110.0 7.1834e-05
22130.0 7.146e-05
22150.0 7.1113e-05
22170.0 7.0787e-05
22190.0 7.0461e-05
22210.0 7.0154e-05
22230.0 6.9876e-05
22250.0 6.9605e-05
22270.0 6.9339e-05
22290.0 6.9093e-05
22310.0 6.8858e-05
22330.0 6.8617e-05
22350.0 6.8386e-05
22370.0 6.8165e-05
22390.0 6.794e-05
22410.0 6.7708e-05
22430.0 6.7486e-05
22450.0 6.7263e-05
22470.0 6.7028e-05
22490.0 6.6793e-05
22510.0 6.6561e-05
22530.0 6.6317e-05
22550.0 6.6066e-05
22570.0 6.5822e-05
22590.0 6.5576e-05
22610.0 6.5321e-05
22630.0 6.507e-05
22650.0 6.483e-05
22670.0 6.4584e-05
22690.0 6.434e-05
22710.0 6.4108e-05
22730.0 6.3882e-05
22750.0 6.3654e-05
22770.0 6.3441e-05
22790.0 6.3242e-05
22810.0 6.3046e-05
22830.0 6.286e-05
22850.0 6.2688e-05
22870.0 6.2523e-05
22890.0 6.2364e-05
22910.0 6.2215e-05
22930.0 6.2075e-05
22950.0 6.1938e-05
22970.0 6.1805e-05
22990.0 6.1681e-05
23010.0 6.156e-05
23030.0 6.1439e-05
23050.0 6.1323e-05
23070.0 6.1211e-05
23090.0 6.11e-05
23110.0 6.0993e-05
23130.0 6.0892e-05
