#lamb flux
1010.0 0.00016088
1030.0 0.0002128
1050.0 0.00028032
1070.0 0.00036641
1090.0 0.00047633
1110.0 0.00060689
1130.0 0.00075817
1150.0 0.00093589
1170.0 0.0011393
1190.0 0.0013575
1210.0 0.0015945
1230.0 0.0018502
1250.0 0.002112
1270.0 0.0023712
1290.0 0.0026338
1310.0 0.0028832
1330.0 0.0031038
1350.0 0.0032969
1370.0 0.0034597
1390.0 0.003577
1410.0 0.003645
1430.0 0.0036751
1450.0 0.0036603
1470.0 0.0035983
1490.0 0.0035007
1510.0 0.0033774
1530.0 0.0032203
1550.0 0.0030432
1570.0 0.0028599
1590.0 0.0026694
1610.0 0.0024736
1630.0 0.0022833
1650.0 0.0021011
1670.0 0.001926
1690.0 0.0017619
1710.0 0.0016125
1730.0 0.0014766
1750.0 0.0013523
1770.0 0.0012433
1790.0 0.0011485
1810.0 0.0010659
1830.0 0.00099575
1850.0 0.00093758
1870.0 0.00088903
1890.0 0.0008511
1910.0 0.00082424
1930.0 0.0008079
1950.0 0.00080255
1970.0 0.00080627
1990.0 0.00081804
2010.0 0.0008367
2030.0 0.00086165
2050.0 0.00089363
2070.0 0.00093569
2090.0 0.00098436
2110.0 0.0010397
2130.0 0.0011019
2150.0 0.0011698
2170.0 0.0012424
2190.0 0.0013208
2210.0 0.001403
2230.0 0.0014873
2250.0 0.001575
2270.0 0.0016669
2290.0 0.0017606
2310.0 0.0018552
2330.0 0.0019521
2350.0 0.0020501
2370.0 0.0021472
2390.0 0.0022441
2410.0 0.0023413
2430.0 0.002436
2450.0 0.0025279
2470.0 0.0026187
2490.0 0.0027091
2510.0 0.0027984
2530.0 0.0028935
2550.0 0.0030037
2570.0 0.0031371
2590.0 0.0033052
2610.0 0.0035417
2630.0 0.0038623
2650.0 0.0042676
2670.0 0.0047865
2690.0 0.0054406
2710.0 0.0061821
2730.0 0.0069798
2750.0 0.0078586
2770.0 0.0087293
2790.0 0.0095136
2810.0 0.010215
2830.0 0.010828
2850.0 0.011265
2870.0 0.01158
2890.0 0.011814
2910.0 0.01197
2930.0 0.012053
2950.0 0.012112
2970.0 0.01215
2990.0 0.012155
3010.0 0.012142
3030.0 0.012131
3050.0 0.012113
3070.0 0.012071
3090.0 0.012038
3110.0 0.012014
3130.0 0.012
3150.0 0.011728
3170.0 0.011602
3190.0 0.01155
3210.0 0.01165
3230.0 0.012078
3250.0 0.013353
3270.0 0.0155
3290.0 0.017368
3310.0 0.018105
3330.0 0.018512
3350.0 0.018804
3370.0 0.019126
3390.0 0.019432
3410.0 0.019606
3430.0 0.019679
3450.0 0.019723
3470.0 0.019818
3490.0 0.019715
3510.0 0.018776
3530.0 0.016491
3550.0 0.015291
3570.0 0.018303
3590.0 0.022787
3610.0 0.025983
3630.0 0.03135
3650.0 0.031458
3670.0 0.027076
3690.0 0.022586
3710.0 0.020607
3730.0 0.021307
3750.0 0.021988
3770.0 0.022821
3790.0 0.02372
3810.0 0.025249
3830.0 0.023458
3850.0 0.020688
3870.0 0.019309
3890.0 0.02086
3910.0 0.021887
3930.0 0.022054
3950.0 0.023536
3970.0 0.025231
3990.0 0.025365
4010.0 0.025902
4030.0 0.024956
4050.0 0.02418
4070.0 0.023606
4090.0 0.023745
4110.0 0.024058
4130.0 0.023411
4150.0 0.022326
4170.0 0.021832
4190.0 0.021476
4210.0 0.019681
4230.0 0.017936
4250.0 0.015916
4270.0 0.014068
4290.0 0.013549
4310.0 0.013218
4330.0 0.013422
4350.0 0.014967
4370.0 0.015363
4390.0 0.016945
4410.0 0.018066
4430.0 0.018476
4450.0 0.016674
4470.0 0.014705
4490.0 0.01404
4510.0 0.013409
4530.0 0.01306
4550.0 0.012674
4570.0 0.012614
4590.0 0.012858
4610.0 0.012591
4630.0 0.012417
4650.0 0.012033
4670.0 0.011735
4690.0 0.010655
4710.0 0.0097546
4730.0 0.0088598
4750.0 0.0083303
4770.0 0.0073432
4790.0 0.007306
4810.0 0.0070096
4830.0 0.0054174
4850.0 0.0063992
4870.0 0.0049189
4890.0 0.0055956
4910.0 0.0063819
4930.0 0.0061547
4950.0 0.0044613
4970.0 0.0042777
4990.0 0.0040881
5010.0 0.0033563
5030.0 0.0031611
5050.0 0.0040084
5070.0 0.0039995
5090.0 0.004181
5110.0 0.0042893
5130.0 0.0041587
5150.0 0.0043913
5170.0 0.0037656
5190.0 0.0035651
5210.0 0.0039985
5230.0 0.0036202
5250.0 0.0040837
5270.0 0.0049958
5290.0 0.0048956
5310.0 0.0042666
5330.0 0.0042554
5350.0 0.00365
5370.0 0.0036988
5390.0 0.003915
5410.0 0.0037357
5430.0 0.0042041
5450.0 0.0036848
5470.0 0.0037274
5490.0 0.0050778
5510.0 0.0051865
5530.0 0.0052937
5550.0 0.0052247
5570.0 0.0055924
5590.0 0.0059697
5610.0 0.0060091
5630.0 0.0059193
5650.0 0.0059713
5670.0 0.0059164
5690.0 0.0059977
5710.0 0.0057378
5730.0 0.0060419
5750.0 0.0059383
5770.0 0.0056596
5790.0 0.0058043
5810.0 0.0056355
5830.0 0.0058114
5850.0 0.0057978
5870.0 0.0057159
5890.0 0.0058321
5910.0 0.0063535
5930.0 0.00634
5950.0 0.0065382
5970.0 0.0066339
5990.0 0.0068803
6010.0 0.0067451
6030.0 0.0067773
6050.0 0.0067801
6070.0 0.006587
6090.0 0.0068342
6110.0 0.0068891
6130.0 0.0066694
6150.0 0.0066093
6170.0 0.006588
6190.0 0.0059503
6210.0 0.0059458
6230.0 0.00614
6250.0 0.0061169
6270.0 0.0060994
6290.0 0.0063611
6310.0 0.0066838
6330.0 0.0067023
6350.0 0.0065515
6370.0 0.0066235
6390.0 0.0063065
6410.0 0.0063372
6430.0 0.0061208
6450.0 0.0061452
6470.0 0.0061742
6490.0 0.0061996
6510.0 0.0058945
6530.0 0.0058671
6550.0 0.0057767
6570.0 0.0055765
6590.0 0.0057486
6610.0 0.0057521
6630.0 0.00563
6650.0 0.005363
6670.0 0.0052303
6690.0 0.0051039
6710.0 0.0049193
6730.0 0.0048108
6750.0 0.0048295
6770.0 0.0048736
6790.0 0.0045644
6810.0 0.0046018
6830.0 0.0045017
6850.0 0.0041539
6870.0 0.0040597
6890.0 0.0039962
6910.0 0.0039483
6930.0 0.0038482
6950.0 0.0039002
6970.0 0.0037437
6990.0 0.0036607
7010.0 0.0036394
7030.0 0.0037018
7050.0 0.0036031
7070.0 0.0032379
7090.0 0.0029511
7110.0 0.0028718
7130.0 0.0029344
7150.0 0.0029414
7170.0 0.0028907
7190.0 0.0027006
7210.0 0.0029287
7230.0 0.0031193
7250.0 0.0030707
7270.0 0.0030678
7290.0 0.0031518
7310.0 0.002954
7330.0 0.0028279
7350.0 0.0026734
7370.0 0.0027573
7390.0 0.0029127
7410.0 0.0025463
7430.0 0.0025725
7450.0 0.0025164
7470.0 0.002695
7490.0 0.0026833
7510.0 0.0024526
7530.0 0.0025499
7550.0 0.0020043
7570.0 0.0018416
7590.0 0.0020432
7610.0 0.002268
7630.0 0.0021525
7650.0 0.0023116
7670.0 0.0019051
7690.0 0.001611
7710.0 0.0017904
7730.0 0.0020861
7750.0 0.0018302
7770.0 0.0021576
7790.0 0.002242
7810.0 0.0020761
7830.0 0.0023134
7850.0 0.0020049
7870.0 0.0022742
7890.0 0.0020851
7910.0 0.002054
7930.0 0.001815
7950.0 0.0016162
7970.0 0.0017837
7990.0 0.0018794
8010.0 0.0039878
8030.0 0.0038822
8050.0 0.0038198
8070.0 0.0037059
8090.0 0.003372
8110.0 0.0033053
8130.0 0.0036727
8150.0 0.0039014
8170.0 0.0040256
8190.0 0.0042119
8210.0 0.0040399
8230.0 0.0040499
8250.0 0.0040239
8270.0 0.0040328
8290.0 0.0039849
8310.0 0.0037842
8330.0 0.0036721
8350.0 0.0037925
8370.0 0.0038506
8390.0 0.0037507
8410.0 0.0037081
8430.0 0.0035763
8450.0 0.0034848
8470.0 0.0037488
8490.0 0.0037683
8510.0 0.0035268
8530.0 0.0035117
8550.0 0.0034683
8570.0 0.003222
8590.0 0.0032616
8610.0 0.0032797
8630.0 0.0034093
8650.0 0.0034226
8670.0 0.0034426
8690.0 0.00337
8710.0 0.0032868
8730.0 0.0031648
8750.0 0.003098
8770.0 0.003082
8790.0 0.0032192
8810.0 0.0030268
8830.0 0.0029827
8850.0 0.0031444
8870.0 0.0029779
8890.0 0.002751
8910.0 0.0027118
8930.0 0.0027446
8950.0 0.002537
8970.0 0.0024307
8990.0 0.0023744
9010.0 0.0022325
9030.0 0.0021985
9050.0 0.0021879
9070.0 0.0021786
9090.0 0.0021692
9110.0 0.0021596
9130.0 0.0021499
9150.0 0.0021403
9170.0 0.0021305
9190.0 0.0021207
9210.0 0.0021107
9230.0 0.0021007
9250.0 0.0020906
9270.0 0.0020805
9290.0 0.0020703
9310.0 0.0020613
9330.0 0.0020541
9350.0 0.0020468
9370.0 0.0020394
9390.0 0.002032
9410.0 0.0020245
9430.0 0.0020169
9450.0 0.0020092
9470.0 0.0020026
9490.0 0.0019953
9510.0 0.0019869
9530.0 0.0019786
9550.0 0.0019705
9570.0 0.0019624
9590.0 0.0019543
9610.0 0.0019481
9630.0 0.0019421
9650.0 0.0019359
9670.0 0.0019296
9690.0 0.0019234
9710.0 0.0019171
9730.0 0.0019106
9750.0 0.0019041
9770.0 0.0018978
9790.0 0.0018913
9810.0 0.0018847
9830.0 0.0018781
9850.0 0.0018705
9870.0 0.0018619
9890.0 0.0018565
9910.0 0.0018505
9930.0 0.0018433
9950.0 0.0018366
9970.0 0.0018304
9990.0 0.0018239
10010.0 0.0018173
10030.0 0.0018106
10050.0 0.0018038
10070.0 0.001797
10090.0 0.0017902
10110.0 0.0017833
10130.0 0.0017765
10150.0 0.0017697
10170.0 0.0017629
10190.0 0.001756
10210.0 0.0017492
10230.0 0.0017425
10250.0 0.0017357
10270.0 0.0017289
10290.0 0.0017222
10310.0 0.0017155
10330.0 0.0017087
10350.0 0.0017021
10370.0 0.0016954
10390.0 0.0016887
10410.0 0.0016808
10430.0 0.0016725
10450.0 0.0016674
10470.0 0.0016615
10490.0 0.0016555
10510.0 0.0016494
10530.0 0.001643
10550.0 0.0016367
10570.0 0.0016305
10590.0 0.0016241
10610.0 0.0016178
10630.0 0.0016117
10650.0 0.0016055
10670.0 0.0015993
10690.0 0.0015932
10710.0 0.0015872
10730.0 0.0015811
10750.0 0.001575
10770.0 0.0015692
10790.0 0.0015634
10810.0 0.0015574
10830.0 0.0015517
10850.0 0.001546
10870.0 0.0015402
10890.0 0.0015343
10910.0 0.0015286
10930.0 0.0015226
10950.0 0.0015163
10970.0 0.0015098
10990.0 0.0015031
11010.0 0.0014667
11030.0 0.0014587
11050.0 0.0014498
11070.0 0.0014398
11090.0 0.0014285
11110.0 0.001417
11130.0 0.0014051
11150.0 0.0013926
11170.0 0.0013798
11190.0 0.0013672
11210.0 0.0013543
11230.0 0.001341
11250.0 0.001328
11270.0 0.0013151
11290.0 0.0013021
11310.0 0.0012893
11330.0 0.0012773
11350.0 0.0012654
11370.0 0.0012537
11390.0 0.0012427
11410.0 0.0012323
11430.0 0.0012218
11450.0 0.0012118
11470.0 0.0012023
11490.0 0.001193
11510.0 0.0011836
11530.0 0.0011745
11550.0 0.0011656
11570.0 0.0011564
11590.0 0.0011473
11610.0 0.0011382
11630.0 0.0011288
11650.0 0.0011191
11670.0 0.0011095
11690.0 0.0010998
11710.0 0.0010898
11730.0 0.0010796
11750.0 0.0010696
11770.0 0.0010593
11790.0 0.0010488
11810.0 0.0010385
11830.0 0.0010283
11850.0 0.0010178
11870.0 0.0010076
11890.0 0.00099776
11910.0 0.00098797
11930.0 0.00097839
11950.0 0.00096938
11970.0 0.00096068
11990.0 0.00095216
12010.0 0.00094423
12030.0 0.00093685
12050.0 0.0009298
12070.0 0.00092317
12090.0 0.00091723
12110.0 0.00091168
12130.0 0.00090651
12150.0 0.00090179
12170.0 0.00089747
12190.0 0.00089337
12210.0 0.00088954
12230.0 0.00088592
12250.0 0.00088238
12270.0 0.00087884
12290.0 0.00087525
12310.0 0.00087158
12330.0 0.00086765
12350.0 0.00086345
12370.0 0.00085902
12390.0 0.00085423
12410.0 0.0008489
12430.0 0.00084333
12450.0 0.00083743
12470.0 0.000831
12490.0 0.00082418
12510.0 0.00081722
12530.0 0.00080979
12550.0 0.00080191
12570.0 0.00079393
12590.0 0.00078579
12610.0 0.00077718
12630.0 0.0007684
12650.0 0.00075989
12670.0 0.00075111
12690.0 0.00074217
12710.0 0.0007335
12730.0 0.00072497
12750.0 0.00071616
12770.0 0.00070768
12790.0 0.0006996
12810.0 0.00069159
12830.0 0.00068367
12850.0 0.00067635
12870.0 0.00066938
12890.0 0.00066253
12910.0 0.00065616
12930.0 0.00065035
12950.0 0.00064479
12970.0 0.00063963
12990.0 0.00063516
13010.0 0.00063117
13030.0 0.0006276
13050.0 0.0006246
13070.0 0.00062214
13090.0 0.00062007
13110.0 0.00061842
13130.0 0.00061716
13150.0 0.00061618
13170.0 0.00061542
13190.0 0.00061481
13210.0 0.00061426
13230.0 0.00061372
13250.0 0.00061311
13270.0 0.00061239
13290.0 0.00061152
13310.0 0.00061043
13330.0 0.00060912
13350.0 0.0006076
13370.0 0.00060577
13390.0 0.00060361
13410.0 0.00060128
13430.0 0.00059863
13450.0 0.00059561
13470.0 0.00059236
13490.0 0.00058894
13510.0 0.00058503
13530.0 0.00058092
13550.0 0.00057675
13570.0 0.00057235
13590.0 0.00056765
13610.0 0.00056296
13630.0 0.00055831
13650.0 0.00055334
13670.0 0.00054834
13690.0 0.00054345
13710.0 0.00053844
13730.0 0.00053311
13750.0 0.00052808
13770.0 0.00052307
13790.0 0.00051787
13810.0 0.0005127
13830.0 0.0005078
13850.0 0.00050275
13870.0 0.00049765
13890.0 0.00049281
13910.0 0.00048811
13930.0 0.0004833
13950.0 0.00047865
13970.0 0.0004744
13990.0 0.00047016
14010.0 0.00046601
14030.0 0.0004622
14050.0 0.00045861
14070.0 0.00045498
14090.0 0.00045168
14110.0 0.00044868
14130.0 0.00044579
14150.0 0.000443
14170.0 0.00044056
14190.0 0.00043827
14210.0 0.00043601
14230.0 0.00043393
14250.0 0.00043204
14270.0 0.00043015
14290.0 0.0004283
14310.0 0.00042666
14330.0 0.00042507
14350.0 0.00042348
14370.0 0.00042201
14390.0 0.00042068
14410.0 0.00041932
14430.0 0.00041802
14450.0 0.00041686
14470.0 0.00041574
14490.0 0.00041459
14510.0 0.00041356
14530.0 0.00041261
14550.0 0.00041162
14570.0 0.00041063
14590.0 0.00040973
14610.0 0.00040879
14630.0 0.00040777
14650.0 0.00040679
14670.0 0.00040583
14690.0 0.00040477
14710.0 0.00040366
14730.0 0.00040263
14750.0 0.00040153
14770.0 0.00040032
14790.0 0.00039913
14810.0 0.00039793
14830.0 0.00039654
14850.0 0.00039512
14870.0 0.00039374
14890.0 0.00039228
14910.0 0.00039075
14930.0 0.00038932
14950.0 0.000388
14970.0 0.00038671
14990.0 0.00038559
15010.0 0.00038471
15030.0 0.00038398
15050.0 0.00038337
15070.0 0.00038298
15090.0 0.00038269
15110.0 0.00038243
15130.0 0.00038221
15150.0 0.00038205
15170.0 0.00038186
15190.0 0.00038165
15210.0 0.00038146
15230.0 0.00038127
15250.0 0.00038102
15270.0 0.00038078
15290.0 0.00038057
15310.0 0.00038032
15330.0 0.00038004
15350.0 0.00037978
15370.0 0.00037951
15390.0 0.00037918
15410.0 0.00037886
15430.0 0.00037855
15450.0 0.00037821
15470.0 0.00037783
15490.0 0.00037748
15510.0 0.00037712
15530.0 0.00037671
15550.0 0.0003763
15570.0 0.00037591
15590.0 0.00037545
15610.0 0.00037497
15630.0 0.00037453
15650.0 0.00037406
15670.0 0.00037355
15690.0 0.00037304
15710.0 0.00037254
15730.0 0.00037199
15750.0 0.00037142
15770.0 0.00037087
15790.0 0.0003703
15810.0 0.00036966
15830.0 0.00036905
15850.0 0.00036845
15870.0 0.00036779
15890.0 0.00036712
15910.0 0.00036648
15930.0 0.0003658
15950.0 0.00036506
15970.0 0.00036435
15990.0 0.00036364
16010.0 0.00036287
16030.0 0.00036209
16050.0 0.00036134
16070.0 0.00036056
16090.0 0.00035974
16110.0 0.00035893
16130.0 0.00035813
16150.0 0.00035725
16170.0 0.00035638
16190.0 0.00035553
16210.0 0.00035464
16230.0 0.00035372
16250.0 0.00035282
16270.0 0.00035192
16290.0 0.00035096
16310.0 0.00035001
16330.0 0.00034907
16350.0 0.0003481
16370.0 0.00034706
16390.0 0.00034609
16410.0 0.0003451
16430.0 0.00034406
16450.0 0.00034302
16470.0 0.00034201
16490.0 0.00034095
16510.0 0.00033986
16530.0 0.0003388
16550.0 0.00033773
16570.0 0.00033661
16590.0 0.00033549
16610.0 0.00033441
16630.0 0.00033329
16650.0 0.00033214
16670.0 0.00033102
16690.0 0.00032989
16710.0 0.0003287
16730.0 0.00032753
16750.0 0.00032638
16770.0 0.00032519
16790.0 0.00032397
16810.0 0.0003228
16830.0 0.00032162
16850.0 0.00032039
16870.0 0.00031917
16890.0 0.00031798
16910.0 0.00031673
16930.0 0.00031547
16950.0 0.00031425
16970.0 0.00031301
16990.0 0.00031174
17010.0 0.00031049
17030.0 0.00030926
17050.0 0.00030798
17070.0 0.00030669
17090.0 0.00030544
17110.0 0.00030417
17130.0 0.00030285
17150.0 0.00030157
17170.0 0.0003003
17190.0 0.000299
17210.0 0.00029769
17230.0 0.00029642
17250.0 0.00029513
17270.0 0.00029379
17290.0 0.00029249
17310.0 0.0002912
17330.0 0.00028988
17350.0 0.00028854
17370.0 0.00028726
17390.0 0.00028595
17410.0 0.00028462
17430.0 0.00028331
17450.0 0.00028202
17470.0 0.00028066
17490.0 0.00027933
17510.0 0.00027803
17530.0 0.00027671
17550.0 0.00027537
17570.0 0.00027407
17590.0 0.00027277
17610.0 0.00027143
17630.0 0.0002701
17650.0 0.0002688
17670.0 0.00026748
17690.0 0.00026612
17710.0 0.00026483
17730.0 0.00026353
17750.0 0.0002622
17770.0 0.00026088
17790.0 0.0002596
17810.0 0.00025828
17830.0 0.00025695
17850.0 0.00025565
17870.0 0.00025436
17890.0 0.00025303
17910.0 0.00025172
17930.0 0.00025045
17950.0 0.00024914
17970.0 0.00024784
17990.0 0.00024656
18010.0 0.00024529
18030.0 0.00024396
18050.0 0.00024268
18070.0 0.00024142
18090.0 0.00024013
18110.0 0.00023883
18130.0 0.00023758
18150.0 0.00023632
18170.0 0.00023503
18190.0 0.00023377
18210.0 0.00023253
18230.0 0.00023126
18250.0 0.00022998
18270.0 0.00022875
18290.0 0.00022751
18310.0 0.00022625
18330.0 0.00022501
18350.0 0.0002238
18370.0 0.00022255
18390.0 0.00022131
18410.0 0.0002201
18430.0 0.00021888
18450.0 0.00021763
18470.0 0.00021643
18490.0 0.00021524
18510.0 0.00021402
18530.0 0.00021281
18550.0 0.00021164
18570.0 0.00021044
18590.0 0.00020923
18610.0 0.00020805
18630.0 0.00020688
18650.0 0.00020569
18670.0 0.0002045
18690.0 0.00020336
18710.0 0.00020219
18730.0 0.00020102
18750.0 0.00019987
18770.0 0.00019874
18790.0 0.00019756
18810.0 0.00019641
18830.0 0.00019529
18850.0 0.00019415
18870.0 0.000193
18890.0 0.00019189
18910.0 0.00019079
18930.0 0.00018965
18950.0 0.00018853
18970.0 0.00018744
18990.0 0.00018634
19010.0 0.0001852
19030.0 0.00018412
19050.0 0.00018304
19070.0 0.00018194
19090.0 0.00018085
19110.0 0.0001798
19130.0 0.00017871
19150.0 0.00017762
19170.0 0.00017657
19190.0 0.00017552
19210.0 0.00017443
19230.0 0.00017337
19250.0 0.00017235
19270.0 0.0001713
19290.0 0.00017024
19310.0 0.00016922
19330.0 0.0001682
19350.0 0.00016714
19370.0 0.00016611
19390.0 0.0001651
19410.0 0.00016408
19430.0 0.00016304
19450.0 0.00016205
19470.0 0.00016106
19490.0 0.00016003
19510.0 0.00015904
19530.0 0.00015806
19550.0 0.00015705
19570.0 0.00015604
19590.0 0.00015507
19610.0 0.00015409
19630.0 0.0001531
19650.0 0.00015213
19670.0 0.00015118
19690.0 0.00015019
19710.0 0.00014921
19730.0 0.00014826
19750.0 0.00014731
19770.0 0.00014632
19790.0 0.00014537
19810.0 0.00014444
19830.0 0.00014348
19850.0 0.00014253
19870.0 0.00014162
19890.0 0.00014069
19910.0 0.00013976
19930.0 0.00013888
19950.0 0.00013805
19970.0 0.00013724
19990.0 0.00013651
20010.0 0.00013589
20030.0 0.00013532
20050.0 0.00013483
20070.0 0.00013443
20090.0 0.00013409
20110.0 0.00013378
20130.0 0.00013352
20150.0 0.00013329
20170.0 0.00013307
20190.0 0.00013287
20210.0 0.00013268
20230.0 0.00013249
20250.0 0.00013231
20270.0 0.00013212
20290.0 0.00013194
20310.0 0.00013174
20330.0 0.00013154
20350.0 0.00013133
20370.0 0.00013111
20390.0 0.00013088
20410.0 0.00013064
20430.0 0.00013039
20450.0 0.00013012
20470.0 0.00012985
20490.0 0.00012958
20510.0 0.0001293
20530.0 0.00012901
20550.0 0.00012873
20570.0 0.00012846
20590.0 0.00012818
20610.0 0.00012791
20630.0 0.00012765
20650.0 0.00012739
20670.0 0.00012713
20690.0 0.00012688
20710.0 0.00012663
20730.0 0.00012636
20750.0 0.00012609
20770.0 0.00012581
20790.0 0.00012552
20810.0 0.0001252
20830.0 0.00012486
20850.0 0.00012451
20870.0 0.00012411
20890.0 0.00012369
20910.0 0.00012326
20930.0 0.00012279
20950.0 0.00012229
20970.0 0.00012177
20990.0 0.00012125
21010.0 0.00012068
21030.0 0.00012011
21050.0 0.00011954
21070.0 0.00011896
21090.0 0.00011835
21110.0 0.00011776
21130.0 0.00011718
21150.0 0.00011657
21170.0 0.00011597
21190.0 0.00011539
21210.0 0.00011478
21230.0 0.00011416
21250.0 0.00011355
21270.0 0.00011293
21290.0 0.00011228
21310.0 0.00011163
21330.0 0.00011098
21350.0 0.00011029
21370.0 0.00010958
21390.0 0.00010885
21410.0 0.0001081
21430.0 0.0001073
21450.0 0.0001065
21470.0 0.00010569
21490.0 0.00010485
21510.0 0.00010398
21530.0 0.00010311
21550.0 0.00010223
21570.0 0.0001013
21590.0 0.00010038
21610.0 9.9452e-05
21630.0 9.8496e-05
21650.0 9.751e-05
21670.0 9.6558e-05
21690.0 9.5586e-05
21710.0 9.4585e-05
21730.0 9.359e-05
21750.0 9.2606e-05
21770.0 9.1576e-05
21790.0 9.054e-05
21810.0 8.9519e-05
21830.0 8.8482e-05
21850.0 8.7412e-05
21870.0 8.6351e-05
21890.0 8.5302e-05
21910.0 8.4218e-05
21930.0 8.3127e-05
21950.0 8.2054e-05
21970.0 8.0966e-05
21990.0 7.9847e-05
22010.0 7.8759e-05
22030.0 7.7681e-05
22050.0 7.6589e-05
22070.0 7.5544e-05
22090.0 7.4604e-05
22110.0 7.3663e-05
22130.0 7.2723e-05
22150.0 7.1811e-05
22170.0 7.092e-05
22190.0 7.0024e-05
22210.0 6.9147e-05
22230.0 6.8302e-05
22250.0 6.746e-05
22270.0 6.6623e-05
22290.0 6.5806e-05
22310.0 6.4999e-05
22330.0 6.4184e-05
22350.0 6.3378e-05
22370.0 6.2579e-05
22390.0 6.1775e-05
22410.0 6.0962e-05
22430.0 6.0154e-05
22450.0 5.9341e-05
22470.0 5.8514e-05
22490.0 5.7681e-05
22510.0 5.6844e-05
22530.0 5.5992e-05
22550.0 5.5126e-05
22570.0 5.4258e-05
22590.0 5.338e-05
22610.0 5.2487e-05
22630.0 5.1587e-05
22650.0 5.0685e-05
22670.0 4.9769e-05
22690.0 4.8844e-05
22710.0 4.7916e-05
22730.0 4.6982e-05
22750.0 4.6036e-05
22770.0 4.5088e-05
22790.0 4.4137e-05
22810.0 4.3176e-05
22830.0 4.2209e-05
22850.0 4.1237e-05
22870.0 4.0256e-05
22890.0 3.9264e-05
22910.0 3.8262e-05
22930.0 3.7249e-05
22950.0 3.6221e-05
22970.0 3.5177e-05
22990.0 3.4116e-05
23010.0 3.3036e-05
23030.0 3.1934e-05
23050.0 3.0809e-05
23070.0 2.966e-05
23090.0 2.8485e-05
23110.0 2.842e-05
23130.0 2.8435e-05
23150.0 2.845e-05
23170.0 2.8465e-05
23190.0 2.8478e-05
23210.0 2.8491e-05
23230.0 2.8502e-05
23250.0 2.8513e-05
23270.0 2.8522e-05
