#lamb flux
1010.0 4.9033e-07
1030.0 5.2565e-07
1050.0 5.664e-07
1070.0 6.1231e-07
1090.0 6.6448e-07
1110.0 7.1808e-07
1130.0 7.7213e-07
1150.0 8.2885e-07
1170.0 8.8748e-07
1190.0 9.4324e-07
1210.0 9.9991e-07
1230.0 1.0586e-06
1250.0 1.1163e-06
1270.0 1.1726e-06
1290.0 1.2322e-06
1310.0 1.2919e-06
1330.0 1.3495e-06
1350.0 1.408e-06
1370.0 1.4685e-06
1390.0 1.5279e-06
1410.0 1.5858e-06
1430.0 1.6465e-06
1450.0 1.7074e-06
1470.0 1.7667e-06
1490.0 1.8269e-06
1510.0 1.8905e-06
1530.0 1.9511e-06
1550.0 2.0112e-06
1570.0 2.0734e-06
1590.0 2.1359e-06
1610.0 2.1958e-06
1630.0 2.2575e-06
1650.0 2.3207e-06
1670.0 2.3819e-06
1690.0 2.4423e-06
1710.0 2.5047e-06
1730.0 2.5672e-06
1750.0 2.6257e-06
1770.0 2.6855e-06
1790.0 2.746e-06
1810.0 2.804e-06
1830.0 2.8603e-06
1850.0 2.9194e-06
1870.0 2.9762e-06
1890.0 3.03e-06
1910.0 3.084e-06
1930.0 3.1385e-06
1950.0 3.1891e-06
1970.0 3.2379e-06
1990.0 3.2878e-06
2010.0 3.3354e-06
2030.0 3.3798e-06
2050.0 3.4248e-06
2070.0 3.4699e-06
2090.0 3.5105e-06
2110.0 3.5499e-06
2130.0 3.5898e-06
2150.0 3.6275e-06
2170.0 3.6619e-06
2190.0 3.6974e-06
2210.0 3.7323e-06
2230.0 3.7643e-06
2250.0 3.7954e-06
2270.0 3.8282e-06
2290.0 3.8589e-06
2310.0 3.887e-06
2330.0 3.9164e-06
2350.0 3.9461e-06
2370.0 3.9735e-06
2390.0 4.0014e-06
2410.0 4.0317e-06
2430.0 4.0609e-06
2450.0 4.0896e-06
2470.0 4.1213e-06
2490.0 4.1578e-06
2510.0 4.2002e-06
2530.0 4.2638e-06
2550.0 4.3734e-06
2570.0 4.5557e-06
2590.0 4.8422e-06
2610.0 5.3133e-06
2630.0 5.9919e-06
2650.0 6.8445e-06
2670.0 7.8822e-06
2690.0 9.0706e-06
2710.0 1.0252e-05
2730.0 1.1348e-05
2750.0 1.2378e-05
2770.0 1.3253e-05
2790.0 1.3959e-05
2810.0 1.4568e-05
2830.0 1.5134e-05
2850.0 1.5632e-05
2870.0 1.6119e-05
2890.0 1.6631e-05
2910.0 1.7159e-05
2930.0 1.7682e-05
2950.0 1.8244e-05
2970.0 1.8837e-05
2990.0 1.943e-05
3010.0 8.7853e-05
3030.0 9.0637e-05
3050.0 9.3393e-05
3070.0 9.5846e-05
3090.0 9.7909e-05
3110.0 9.8995e-05
3130.0 9.8407e-05
3150.0 9.5429e-05
3170.0 8.8613e-05
3190.0 7.7851e-05
3210.0 6.3396e-05
3230.0 4.7228e-05
3250.0 6.3415e-05
3270.0 4.5734e-05
3290.0 8.4373e-05
3310.0 4.3259e-05
3330.0 4.3206e-05
3350.0 4.8817e-05
3370.0 5.5621e-05
3390.0 6.314e-05
3410.0 7.0701e-05
3430.0 7.8683e-05
3450.0 8.6793e-05
3470.0 9.4343e-05
3490.0 9.9872e-05
3510.0 0.00011639
3530.0 0.00014477
3550.0 0.00014214
3570.0 0.00012187
3590.0 0.00015698
3610.0 0.00011153
3630.0 0.00016664
3650.0 0.00019113
3670.0 0.00023596
3690.0 0.00022095
3710.0 0.0001567
3730.0 0.00019282
3750.0 0.00019633
3770.0 0.00021226
3790.0 0.00021234
3810.0 0.00022766
3830.0 0.00034967
3850.0 0.00043545
3870.0 0.00053145
3890.0 0.00052656
3910.0 0.00047979
3930.0 0.00048328
3950.0 0.0005156
3970.0 0.00053561
3990.0 0.00033155
4010.0 0.00018674
4030.0 0.00033454
4050.0 0.00045309
4070.0 0.00046626
4090.0 0.00030625
4110.0 0.00020345
4130.0 0.00034273
4150.0 0.00036277
4170.0 0.0003233
4190.0 0.00028429
4210.0 0.00040954
4230.0 0.00032252
4250.0 0.00033449
4270.0 0.00033209
4290.0 0.00030811
4310.0 0.00039149
4330.0 0.00043277
4350.0 0.0003857
4370.0 0.00033357
4390.0 0.00038817
4410.0 0.00038831
4430.0 0.00028558
4450.0 0.0002466
4470.0 0.00030441
4490.0 0.0002473
4510.0 0.00035279
4530.0 0.00036428
4550.0 0.00040939
4570.0 0.00055743
4590.0 0.0005767
4610.0 0.00052673
4630.0 0.00078922
4650.0 0.00098785
4670.0 0.00096164
4690.0 0.00075886
4710.0 0.00078405
4730.0 0.00081411
4750.0 0.00064609
4770.0 0.00050301
4790.0 0.00035409
4810.0 0.0004496
4830.0 0.00052814
4850.0 0.00048158
4870.0 0.00027043
4890.0 0.00056042
4910.0 0.00068425
4930.0 0.00074594
4950.0 0.00080041
4970.0 0.0006409
4990.0 0.00073783
5010.0 0.00082232
5030.0 0.00084076
5050.0 0.00074959
5070.0 0.00053235
5090.0 0.00043624
5110.0 0.00042884
5130.0 0.00042116
5150.0 0.00042298
5170.0 0.0003868
5190.0 0.00044363
5210.0 0.00045407
5230.0 0.00050466
5250.0 0.00058168
5270.0 0.0005033
5290.0 0.0005451
5310.0 0.00076693
5330.0 0.0008725
5350.0 0.00075868
5370.0 0.00071007
5390.0 0.00081007
5410.0 0.00091938
5430.0 0.0009578
5450.0 0.0010083
5470.0 0.0010449
5490.0 0.0011296
5510.0 0.0013585
5530.0 0.0014169
5550.0 0.0014757
5570.0 0.0015274
5590.0 0.0014965
5610.0 0.0014099
5630.0 0.0013949
5650.0 0.0014514
5670.0 0.0014177
5690.0 0.0012383
5710.0 0.0012308
5730.0 0.001209
5750.0 0.0012095
5770.0 0.0010547
5790.0 0.0010424
5810.0 0.0010847
5830.0 0.0011838
5850.0 0.0011252
5870.0 0.0011254
5890.0 0.0012708
5910.0 0.0011846
5930.0 0.0010127
5950.0 0.00094929
5970.0 0.001026
5990.0 0.00092557
6010.0 0.00082753
6030.0 0.00078375
6050.0 0.00071441
6070.0 0.00058497
6090.0 0.00057826
6110.0 0.00071003
6130.0 0.00077201
6150.0 0.00079186
6170.0 0.00078571
6190.0 0.0007763
6210.0 0.00083673
6230.0 0.0010055
6250.0 0.0009303
6270.0 0.00082838
6290.0 0.00074152
6310.0 0.00065334
6330.0 0.00059683
6350.0 0.00054522
6370.0 0.00056157
6390.0 0.00064434
6410.0 0.0007925
6430.0 0.00094993
6450.0 0.0010001
6470.0 0.0010412
6490.0 0.0012386
6510.0 0.0013998
6530.0 0.0013385
6550.0 0.0012726
6570.0 0.0012891
6590.0 0.0012785
6610.0 0.0013258
6630.0 0.0012397
6650.0 0.001088
6670.0 0.0010191
6690.0 0.0010075
6710.0 0.001137
6730.0 0.0010055
6750.0 0.00083489
6770.0 0.00077307
6790.0 0.0008228
6810.0 0.00093992
6830.0 0.00094174
6850.0 0.00084977
6870.0 0.00087025
6890.0 0.00086362
6910.0 0.00081189
6930.0 0.00087624
6950.0 0.00082742
6970.0 0.00078374
6990.0 0.0007881
7010.0 0.00080995
7030.0 0.00079202
7050.0 0.00074773
7070.0 0.00077531
7090.0 0.00071081
7110.0 0.00060509
7130.0 0.00054349
7150.0 0.0005499
7170.0 0.00066134
7190.0 0.00068921
7210.0 0.00065736
7230.0 0.00070039
7250.0 0.00070405
7270.0 0.00070069
7290.0 0.00074295
7310.0 0.00079114
7330.0 0.00076329
7350.0 0.0007079
7370.0 0.00065437
7390.0 0.00064931
7410.0 0.00073564
7430.0 0.00083731
7450.0 0.00089975
7470.0 0.000936
7490.0 0.0010614
7510.0 0.0010512
7530.0 0.0009183
7550.0 0.00084235
7570.0 0.00071893
7590.0 0.00066612
7610.0 0.00064342
7630.0 0.00060316
7650.0 0.00064675
7670.0 0.00072141
7690.0 0.0007858
7710.0 0.00089616
7730.0 0.00093356
7750.0 0.00096656
7770.0 0.001016
7790.0 0.001087
7810.0 0.0010835
7830.0 0.00097426
7850.0 0.00097353
7870.0 0.00094002
7890.0 0.00094128
7910.0 0.00088101
7930.0 0.00086189
7950.0 0.00071833
7970.0 0.00071075
7990.0 0.00069261
8010.0 0.00076989
8030.0 0.00076633
8050.0 0.00081215
8070.0 0.00078035
8090.0 0.00078181
8110.0 0.00076833
8130.0 0.00075203
8150.0 0.00070119
8170.0 0.00068861
8190.0 0.00068791
8210.0 0.00069329
8230.0 0.00060887
8250.0 0.00055712
8270.0 0.00049109
8290.0 0.00041614
8310.0 0.00036218
8330.0 0.00028263
8350.0 0.00022569
8370.0 0.00021455
8390.0 0.00020911
8410.0 0.00022125
8430.0 0.00028464
8450.0 0.00031066
8470.0 0.00033455
8490.0 0.00038906
8510.0 0.00042231
8530.0 0.00047682
8550.0 0.00056286
8570.0 0.00061838
8590.0 0.00064993
8610.0 0.00072495
8630.0 0.00082745
8650.0 0.00084997
8670.0 0.00086677
8690.0 0.00089292
8710.0 0.0008724
8730.0 0.00083981
8750.0 0.00077087
8770.0 0.00076785
8790.0 0.00075336
8810.0 0.00069164
8830.0 0.00068639
8850.0 0.00062146
8870.0 0.00058854
8890.0 0.00052693
8910.0 0.0005885
8930.0 0.00053298
8950.0 0.00053547
8970.0 0.00054684
8990.0 0.00053158
9010.0 0.00054426
9030.0 0.00051666
9050.0 0.00051433
9070.0 0.0005147
9090.0 0.00051498
9110.0 0.00051563
9130.0 0.0005158
9150.0 0.0005157
9170.0 0.00051426
9190.0 0.0005109
9210.0 0.00051892
9230.0 0.00051691
9250.0 0.00051586
9270.0 0.00051502
9290.0 0.00051432
9310.0 0.00051369
9330.0 0.00051309
9350.0 0.0005125
9370.0 0.0005119
9390.0 0.00051125
9410.0 0.00051059
9430.0 0.00050991
9450.0 0.00050918
9470.0 0.00050841
9490.0 0.00050764
9510.0 0.00050684
9530.0 0.000506
9550.0 0.00050518
9570.0 0.00050435
9590.0 0.00050348
9610.0 0.00050261
9630.0 0.00050176
9650.0 0.0005009
9670.0 0.0005
9690.0 0.00049914
9710.0 0.00049829
9730.0 0.00049742
9750.0 0.00049656
9770.0 0.00049577
9790.0 0.00049494
9810.0 0.00049411
9830.0 0.00049333
9850.0 0.00049257
9870.0 0.00049179
9890.0 0.00049105
9910.0 0.00049035
9930.0 0.00048965
9950.0 0.0004883
9970.0 0.00048787
9990.0 0.00048745
10010.0 0.00048696
10030.0 0.00048647
10050.0 0.0004858
10070.0 0.00048413
10090.0 0.00048406
10110.0 0.00048398
10130.0 0.00048381
10150.0 0.0004836
10170.0 0.00048333
10190.0 0.00048302
10210.0 0.00048275
10230.0 0.00048251
10250.0 0.00048226
10270.0 0.00048203
10290.0 0.00048187
10310.0 0.0004817
10330.0 0.00048154
10350.0 0.00048144
10370.0 0.00048138
10390.0 0.00048131
10410.0 0.00048127
10430.0 0.00048129
10450.0 0.00048131
10470.0 0.00048134
10490.0 0.00048142
10510.0 0.00048153
10530.0 0.00048162
10550.0 0.00048175
10570.0 0.00048192
10590.0 0.0004821
10610.0 0.00048228
10630.0 0.00048251
10650.0 0.00048275
10670.0 0.00048299
10690.0 0.00048326
10710.0 0.00048355
10730.0 0.00048385
10750.0 0.00048415
10770.0 0.00048449
10790.0 0.00048484
10810.0 0.00048518
10830.0 0.00048552
10850.0 0.00048585
10870.0 0.00048606
10890.0 0.00048606
10910.0 0.00048575
10930.0 0.00048483
10950.0 0.0004829
10970.0 0.00047974
10990.0 0.00047524
11010.0 0.00048528
11030.0 0.00047639
11050.0 0.000466
11070.0 0.00045399
11090.0 0.00044008
11110.0 0.00042623
11130.0 0.0004124
11150.0 0.00039827
11170.0 0.00038457
11190.0 0.00037215
11210.0 0.00036023
11230.0 0.00034895
11250.0 0.00033905
11270.0 0.00033028
11290.0 0.00032216
11310.0 0.000315
11330.0 0.00030902
11350.0 0.00030353
11370.0 0.00029843
11390.0 0.00029383
11410.0 0.00028947
11430.0 0.00028489
11450.0 0.00028028
11470.0 0.0002756
11490.0 0.00027056
11510.0 0.00026503
11530.0 0.00025943
11550.0 0.0002536
11570.0 0.00024729
11590.0 0.00024086
11610.0 0.00023452
11630.0 0.00022789
11650.0 0.00022112
11670.0 0.00021473
11690.0 0.00020847
11710.0 0.00020217
11730.0 0.00019615
11750.0 0.00019059
11770.0 0.00018505
11790.0 0.00017969
11810.0 0.00017474
11830.0 0.00017001
11850.0 0.00016525
11870.0 0.00016082
11890.0 0.00015669
11910.0 0.00015256
11930.0 0.0001485
11950.0 0.00014469
11970.0 0.00014092
11990.0 0.00013706
12010.0 0.00013337
12030.0 0.00012983
12050.0 0.00012627
12070.0 0.00012275
12090.0 0.00011959
12110.0 0.00011655
12130.0 0.00011365
12150.0 0.00011109
12170.0 0.00010892
12190.0 0.00010699
12210.0 0.00010552
12230.0 0.00010458
12250.0 0.00010411
12270.0 0.00010418
12290.0 0.00010482
12310.0 0.00010595
12330.0 0.00010765
12350.0 0.00010985
12370.0 0.00011239
12390.0 0.00011531
12410.0 0.00011867
12430.0 0.00012203
12450.0 0.00012541
12470.0 0.00012889
12490.0 0.00013225
12510.0 0.00013529
12530.0 0.00013818
12550.0 0.00014083
12570.0 0.00014307
12590.0 0.00014496
12610.0 0.00014655
12630.0 0.00014778
12650.0 0.00014863
12670.0 0.00014919
12690.0 0.00014947
12710.0 0.00014948
12730.0 0.00014926
12750.0 0.00014881
12770.0 0.00014817
12790.0 0.00014738
12810.0 0.00014642
12830.0 0.00014526
12850.0 0.00014402
12870.0 0.00014263
12890.0 0.00014103
12910.0 0.00013928
12930.0 0.00013743
12950.0 0.00013531
12970.0 0.00013296
12990.0 0.00013054
13010.0 0.00012796
13030.0 0.00012514
13050.0 0.00012225
13070.0 0.00011939
13090.0 0.00011637
13110.0 0.00011333
13130.0 0.00011046
13150.0 0.00010771
13170.0 0.00010498
13190.0 0.00010258
13210.0 0.00010051
13230.0 9.8661e-05
13250.0 9.7123e-05
13270.0 9.5969e-05
13290.0 9.5107e-05
13310.0 9.4522e-05
13330.0 9.4239e-05
13350.0 9.4186e-05
13370.0 9.4306e-05
13390.0 9.4554e-05
13410.0 9.485e-05
13430.0 9.5147e-05
13450.0 9.5394e-05
13470.0 9.5536e-05
13490.0 9.5551e-05
13510.0 9.5401e-05
13530.0 9.5081e-05
13550.0 9.4621e-05
13570.0 9.4018e-05
13590.0 9.3275e-05
13610.0 9.2475e-05
13630.0 9.1651e-05
13650.0 9.0774e-05
13670.0 8.9917e-05
13690.0 8.9126e-05
13710.0 8.8377e-05
13730.0 8.7659e-05
13750.0 8.7049e-05
13770.0 8.65e-05
13790.0 8.5981e-05
13810.0 8.5496e-05
13830.0 8.5042e-05
13850.0 8.4568e-05
13870.0 8.4059e-05
13890.0 8.3528e-05
13910.0 8.2953e-05
13930.0 8.2303e-05
13950.0 8.1602e-05
13970.0 8.0893e-05
13990.0 8.0135e-05
14010.0 7.9353e-05
14030.0 7.86e-05
14050.0 7.7876e-05
14070.0 7.7163e-05
14090.0 7.6527e-05
14110.0 7.5974e-05
14130.0 7.5487e-05
14150.0 7.5077e-05
14170.0 7.4762e-05
14190.0 7.4524e-05
14210.0 7.4362e-05
14230.0 7.4279e-05
14250.0 7.4267e-05
14270.0 7.4336e-05
14290.0 7.4491e-05
14310.0 7.4708e-05
14330.0 7.4999e-05
14350.0 7.5381e-05
14370.0 7.5821e-05
14390.0 7.6298e-05
14410.0 7.6853e-05
14430.0 7.7452e-05
14450.0 7.8053e-05
14470.0 7.8673e-05
14490.0 7.9344e-05
14510.0 7.9989e-05
14530.0 8.0618e-05
14550.0 8.1288e-05
14570.0 8.1988e-05
14590.0 8.269e-05
14610.0 8.3465e-05
14630.0 8.436e-05
14650.0 8.5322e-05
14670.0 8.6378e-05
14690.0 8.7613e-05
14710.0 8.9024e-05
14730.0 9.0484e-05
14750.0 9.2123e-05
14770.0 9.3952e-05
14790.0 9.5848e-05
14810.0 9.7781e-05
14830.0 9.9921e-05
14850.0 0.00010205
14870.0 0.00010408
14890.0 0.00010607
14910.0 0.00010801
14930.0 0.00010968
14950.0 0.00011109
14970.0 0.0001123
14990.0 0.00011316
15010.0 0.00011369
15030.0 0.00011394
15050.0 0.00011395
15070.0 0.00011374
15090.0 0.00011339
15110.0 0.00011296
15130.0 0.00011247
15150.0 0.00011195
15170.0 0.00011142
15190.0 0.00011088
15210.0 0.00011034
15230.0 0.00010981
15250.0 0.00010926
15270.0 0.00010872
15290.0 0.0001082
15310.0 0.00010767
15330.0 0.00010713
15350.0 0.00010661
15370.0 0.00010608
15390.0 0.00010555
15410.0 0.00010502
15430.0 0.00010451
15450.0 0.00010399
15470.0 0.00010346
15490.0 0.00010295
15510.0 0.00010244
15530.0 0.00010193
15550.0 0.00010142
15570.0 0.00010092
15590.0 0.00010041
15610.0 9.9901e-05
15630.0 9.9406e-05
15650.0 9.8912e-05
15670.0 9.8411e-05
15690.0 9.7919e-05
15710.0 9.7437e-05
15730.0 9.6945e-05
15750.0 9.6456e-05
15770.0 9.5978e-05
15790.0 9.55e-05
15810.0 9.5012e-05
15830.0 9.4537e-05
15850.0 9.4071e-05
15870.0 9.3598e-05
15890.0 9.3127e-05
15910.0 9.2668e-05
15930.0 9.2207e-05
15950.0 9.1739e-05
15970.0 9.1282e-05
15990.0 9.0831e-05
16010.0 9.0375e-05
16030.0 8.9918e-05
16050.0 8.9478e-05
16070.0 8.9034e-05
16090.0 8.8586e-05
16110.0 8.8148e-05
16130.0 8.7717e-05
16150.0 8.7273e-05
16170.0 8.6836e-05
16190.0 8.6411e-05
16210.0 8.5983e-05
16230.0 8.5551e-05
16250.0 8.513e-05
16270.0 8.4716e-05
16290.0 8.4292e-05
16310.0 8.3873e-05
16330.0 8.3465e-05
16350.0 8.3053e-05
16370.0 8.2631e-05
16390.0 8.2228e-05
16410.0 8.1827e-05
16430.0 8.142e-05
16450.0 8.1017e-05
16470.0 8.0627e-05
16490.0 8.0227e-05
16510.0 7.9827e-05
16530.0 7.9437e-05
16550.0 7.905e-05
16570.0 7.8655e-05
16590.0 7.8264e-05
16610.0 7.7888e-05
16630.0 7.7504e-05
16650.0 7.7119e-05
16670.0 7.6744e-05
16690.0 7.6372e-05
16710.0 7.5987e-05
16730.0 7.5613e-05
16750.0 7.5247e-05
16770.0 7.4875e-05
16790.0 7.45e-05
16810.0 7.4139e-05
16830.0 7.3778e-05
16850.0 7.341e-05
16870.0 7.3048e-05
16890.0 7.2695e-05
16910.0 7.2332e-05
16930.0 7.1968e-05
16950.0 7.1618e-05
16970.0 7.1267e-05
16990.0 7.0909e-05
17010.0 7.0559e-05
17030.0 7.0218e-05
17050.0 6.9866e-05
17070.0 6.9515e-05
17090.0 6.9175e-05
17110.0 6.8833e-05
17130.0 6.8481e-05
17150.0 6.8142e-05
17170.0 6.7808e-05
17190.0 6.7467e-05
17210.0 6.7127e-05
17230.0 6.6799e-05
17250.0 6.6464e-05
17270.0 6.6123e-05
17290.0 6.5793e-05
17310.0 6.5466e-05
17330.0 6.5132e-05
17350.0 6.4798e-05
17370.0 6.4479e-05
17390.0 6.4153e-05
17410.0 6.3824e-05
17430.0 6.3502e-05
17450.0 6.3186e-05
17470.0 6.2855e-05
17490.0 6.2531e-05
17510.0 6.2217e-05
17530.0 6.1898e-05
17550.0 6.1575e-05
17570.0 6.1262e-05
17590.0 6.0952e-05
17610.0 6.0632e-05
17630.0 6.0317e-05
17650.0 6.001e-05
17670.0 5.9697e-05
17690.0 5.9376e-05
17710.0 5.9071e-05
17730.0 5.8766e-05
17750.0 5.8454e-05
17770.0 5.8146e-05
17790.0 5.7849e-05
17810.0 5.754e-05
17830.0 5.7231e-05
17850.0 5.6931e-05
17870.0 5.6631e-05
17890.0 5.6323e-05
17910.0 5.602e-05
17930.0 5.5728e-05
17950.0 5.5428e-05
17970.0 5.5126e-05
17990.0 5.4834e-05
18010.0 5.4541e-05
18030.0 5.4237e-05
18050.0 5.3942e-05
18070.0 5.3653e-05
18090.0 5.3358e-05
18110.0 5.3061e-05
18130.0 5.2776e-05
18150.0 5.2489e-05
18170.0 5.2194e-05
18190.0 5.1906e-05
18210.0 5.1624e-05
18230.0 5.1332e-05
18250.0 5.104e-05
18270.0 5.076e-05
18290.0 5.0477e-05
18310.0 5.0189e-05
18330.0 4.9908e-05
18350.0 4.9633e-05
18370.0 4.9347e-05
18390.0 4.9063e-05
18410.0 4.8788e-05
18430.0 4.8511e-05
18450.0 4.8224e-05
18470.0 4.7949e-05
18490.0 4.7679e-05
18510.0 4.74e-05
18530.0 4.7124e-05
18550.0 4.6857e-05
18570.0 4.6584e-05
18590.0 4.6304e-05
18610.0 4.6035e-05
18630.0 4.5768e-05
18650.0 4.5494e-05
18670.0 4.5221e-05
18690.0 4.4961e-05
18710.0 4.4694e-05
18730.0 4.4423e-05
18750.0 4.4161e-05
18770.0 4.3902e-05
18790.0 4.3629e-05
18810.0 4.3363e-05
18830.0 4.3107e-05
18850.0 4.2845e-05
18870.0 4.2579e-05
18890.0 4.2323e-05
18910.0 4.2069e-05
18930.0 4.1806e-05
18950.0 4.1547e-05
18970.0 4.1296e-05
18990.0 4.1039e-05
19010.0 4.0774e-05
19030.0 4.0526e-05
19050.0 4.0276e-05
19070.0 4.0019e-05
19090.0 3.9767e-05
19110.0 3.9524e-05
19130.0 3.927e-05
19150.0 3.9016e-05
19170.0 3.8771e-05
19190.0 3.8526e-05
19210.0 3.8273e-05
19230.0 3.8025e-05
19250.0 3.7787e-05
19270.0 3.7541e-05
19290.0 3.7294e-05
19310.0 3.7056e-05
19330.0 3.6817e-05
19350.0 3.6566e-05
19370.0 3.6326e-05
19390.0 3.6091e-05
19410.0 3.585e-05
19430.0 3.5607e-05
19450.0 3.5376e-05
19470.0 3.5141e-05
19490.0 3.49e-05
19510.0 3.4666e-05
19530.0 3.4437e-05
19550.0 3.4199e-05
19570.0 3.396e-05
19590.0 3.3734e-05
19610.0 3.3504e-05
19630.0 3.3268e-05
19650.0 3.3041e-05
19670.0 3.2818e-05
19690.0 3.2584e-05
19710.0 3.2354e-05
19730.0 3.2132e-05
19750.0 3.1906e-05
19770.0 3.1672e-05
19790.0 3.145e-05
19810.0 3.1231e-05
19830.0 3.1003e-05
19850.0 3.0776e-05
19870.0 3.0554e-05
19890.0 3.0316e-05
19910.0 3.0058e-05
19930.0 2.9787e-05
19950.0 2.9482e-05
19970.0 2.9116e-05
19990.0 2.8689e-05
20010.0 2.8219e-05
20030.0 2.767e-05
20050.0 2.7054e-05
20070.0 2.6418e-05
20090.0 2.5766e-05
20110.0 2.507e-05
20130.0 2.4409e-05
20150.0 2.3795e-05
20170.0 2.3198e-05
20190.0 2.2634e-05
20210.0 2.2137e-05
20230.0 2.1684e-05
20250.0 2.1261e-05
20270.0 2.0897e-05
20290.0 2.0589e-05
20310.0 2.0321e-05
20330.0 2.0096e-05
20350.0 1.9935e-05
20370.0 1.9817e-05
20390.0 1.9746e-05
20410.0 1.9726e-05
20430.0 1.9752e-05
20450.0 1.9829e-05
20470.0 1.9958e-05
20490.0 2.013e-05
20510.0 2.0349e-05
20530.0 2.0624e-05
20550.0 2.0935e-05
20570.0 2.1273e-05
20590.0 2.1657e-05
20610.0 2.2071e-05
20630.0 2.2491e-05
20650.0 2.2929e-05
20670.0 2.3395e-05
20690.0 2.3838e-05
20710.0 2.4263e-05
20730.0 2.4685e-05
20750.0 2.5086e-05
20770.0 2.5443e-05
20790.0 2.5779e-05
20810.0 2.6093e-05
20830.0 2.637e-05
20850.0 2.6617e-05
20870.0 2.6851e-05
20890.0 2.7066e-05
20910.0 2.7255e-05
20930.0 2.7439e-05
20950.0 2.7619e-05
20970.0 2.7787e-05
20990.0 2.7946e-05
21010.0 2.8106e-05
21030.0 2.8254e-05
21050.0 2.8385e-05
21070.0 2.8502e-05
21090.0 2.8601e-05
21110.0 2.8672e-05
21130.0 2.8717e-05
21150.0 2.8736e-05
21170.0 2.8726e-05
21190.0 2.8689e-05
21210.0 2.8624e-05
21230.0 2.8532e-05
21250.0 2.8421e-05
21270.0 2.8291e-05
21290.0 2.8142e-05
21310.0 2.798e-05
21330.0 2.7818e-05
21350.0 2.7645e-05
21370.0 2.7467e-05
21390.0 2.7295e-05
21410.0 2.7128e-05
21430.0 2.6957e-05
21450.0 2.6801e-05
21470.0 2.666e-05
21490.0 2.6526e-05
21510.0 2.6404e-05
21530.0 2.6302e-05
21550.0 2.6215e-05
21570.0 2.6142e-05
21590.0 2.609e-05
21610.0 2.6058e-05
21630.0 2.6044e-05
21650.0 2.6054e-05
21670.0 2.6085e-05
21690.0 2.6139e-05
21710.0 2.6219e-05
21730.0 2.6322e-05
21750.0 2.6446e-05
21770.0 2.6603e-05
21790.0 2.6785e-05
21810.0 2.6987e-05
21830.0 2.7214e-05
21850.0 2.7474e-05
21870.0 2.775e-05
21890.0 2.8038e-05
21910.0 2.8356e-05
21930.0 2.8693e-05
21950.0 2.9031e-05
21970.0 2.9385e-05
21990.0 2.9766e-05
22010.0 3.0133e-05
22030.0 3.0495e-05
22050.0 3.0866e-05
22070.0 3.123e-05
22090.0 3.1565e-05
22110.0 3.1892e-05
22130.0 3.2206e-05
22150.0 3.2484e-05
22170.0 3.2729e-05
22190.0 3.2949e-05
22210.0 3.3126e-05
22230.0 3.3253e-05
22250.0 3.3338e-05
22270.0 3.3373e-05
22290.0 3.3356e-05
22310.0 3.3289e-05
22330.0 3.3162e-05
22350.0 3.2981e-05
22370.0 3.2752e-05
22390.0 3.2465e-05
22410.0 3.2116e-05
22430.0 3.1735e-05
22450.0 3.1313e-05
22470.0 3.0835e-05
22490.0 3.0325e-05
22510.0 2.9804e-05
22530.0 2.9234e-05
22550.0 2.8631e-05
22570.0 2.8039e-05
22590.0 2.7437e-05
22610.0 2.6809e-05
22630.0 2.619e-05
22650.0 2.5601e-05
22670.0 2.4997e-05
