#lamb flux
1010.0 1.8682e-06
1030.0 1.9526e-06
1050.0 2.0502e-06
1070.0 2.1602e-06
1090.0 2.2853e-06
1110.0 2.4139e-06
1130.0 2.5437e-06
1150.0 2.6801e-06
1170.0 2.8213e-06
1190.0 2.9558e-06
1210.0 3.0927e-06
1230.0 3.2347e-06
1250.0 3.3746e-06
1270.0 3.5113e-06
1290.0 3.6562e-06
1310.0 3.8019e-06
1330.0 3.9428e-06
1350.0 4.086e-06
1370.0 4.2347e-06
1390.0 4.3808e-06
1410.0 4.5238e-06
1430.0 4.674e-06
1450.0 4.8252e-06
1470.0 4.9728e-06
1490.0 5.1229e-06
1510.0 5.2818e-06
1530.0 5.4339e-06
1550.0 5.5851e-06
1570.0 5.7418e-06
1590.0 5.8993e-06
1610.0 6.051e-06
1630.0 6.2073e-06
1650.0 6.3677e-06
1670.0 6.5234e-06
1690.0 6.6771e-06
1710.0 6.836e-06
1730.0 6.9952e-06
1750.0 7.1448e-06
1770.0 7.2976e-06
1790.0 7.4522e-06
1810.0 7.6008e-06
1830.0 7.7453e-06
1850.0 7.8968e-06
1870.0 8.0427e-06
1890.0 8.1817e-06
1910.0 8.3215e-06
1930.0 8.4628e-06
1950.0 8.5953e-06
1970.0 8.7243e-06
1990.0 8.8567e-06
2010.0 8.9851e-06
2030.0 9.107e-06
2050.0 9.2321e-06
2070.0 9.3599e-06
2090.0 9.4792e-06
2110.0 9.5984e-06
2130.0 9.7223e-06
2150.0 9.8449e-06
2170.0 9.9634e-06
2190.0 1.009e-05
2210.0 1.022e-05
2230.0 1.0349e-05
2250.0 1.0482e-05
2270.0 1.0626e-05
2290.0 1.0773e-05
2310.0 1.0921e-05
2330.0 1.1081e-05
2350.0 1.1251e-05
2370.0 1.1425e-05
2390.0 1.161e-05
2410.0 1.1814e-05
2430.0 1.2024e-05
2450.0 1.2241e-05
2470.0 1.247e-05
2490.0 1.2704e-05
2510.0 1.2935e-05
2530.0 1.3181e-05
2550.0 1.3474e-05
2570.0 1.3862e-05
2590.0 1.4417e-05
2610.0 1.5292e-05
2630.0 1.6583e-05
2650.0 1.8293e-05
2670.0 2.0488e-05
2690.0 2.317e-05
2710.0 2.6077e-05
2730.0 2.9058e-05
2750.0 3.2167e-05
2770.0 3.5187e-05
2790.0 3.8028e-05
2810.0 4.0824e-05
2830.0 4.3694e-05
2850.0 4.648e-05
2870.0 4.9324e-05
2890.0 5.2341e-05
2910.0 5.5476e-05
2930.0 5.8636e-05
2950.0 6.1989e-05
2970.0 6.551e-05
2990.0 6.9061e-05
3010.0 0.0001284
3030.0 0.00013511
3050.0 0.00014186
3070.0 0.00014822
3090.0 0.00015416
3110.0 0.00015881
3130.0 0.00016101
3150.0 0.0001596
3170.0 0.00015222
3190.0 0.00013819
3210.0 0.00011752
3230.0 9.3548e-05
3250.0 0.0001113
3270.0 6.8642e-05
3290.0 0.00011707
3310.0 5.1808e-05
3330.0 5.5445e-05
3350.0 6.793e-05
3370.0 8.1585e-05
3390.0 9.5799e-05
3410.0 0.00010994
3430.0 0.00012456
3450.0 0.00013908
3470.0 0.00015259
3490.0 0.00016182
3510.0 0.00018705
3530.0 0.000237
3550.0 0.00025468
3570.0 0.00025399
3590.0 0.00033403
3610.0 0.00027682
3630.0 0.00034881
3650.0 0.00036489
3670.0 0.00043116
3690.0 0.00044213
3710.0 0.00039666
3730.0 0.00048663
3750.0 0.00050714
3770.0 0.00051544
3790.0 0.0004771
3810.0 0.0004137
3830.0 0.00044848
3850.0 0.00042689
3870.0 0.00050042
3890.0 0.00051174
3910.0 0.0005338
3930.0 0.00060725
3950.0 0.00067446
3970.0 0.00083804
3990.0 0.00078704
4010.0 0.00066355
4030.0 0.0007379
4050.0 0.00071638
4070.0 0.00074969
4090.0 0.00071103
4110.0 0.00058878
4130.0 0.00067855
4150.0 0.00063355
4170.0 0.00065863
4190.0 0.00065607
4210.0 0.0007437
4230.0 0.00061615
4250.0 0.00070064
4270.0 0.00069979
4290.0 0.00070928
4310.0 0.00080006
4330.0 0.00083262
4350.0 0.00074531
4370.0 0.00069916
4390.0 0.00073204
4410.0 0.00068841
4430.0 0.00055761
4450.0 0.00054036
4470.0 0.00058467
4490.0 0.00051029
4510.0 0.0005872
4530.0 0.00064264
4550.0 0.00081197
4570.0 0.0011196
4590.0 0.0012261
4610.0 0.0010985
4630.0 0.0014139
4650.0 0.0017463
4670.0 0.0016866
4690.0 0.0012842
4710.0 0.0012598
4730.0 0.001324
4750.0 0.0011413
4770.0 0.00091437
4790.0 0.00073325
4810.0 0.00090727
4830.0 0.001023
4850.0 0.0010387
4870.0 0.00072847
4890.0 0.0011228
4910.0 0.0013386
4930.0 0.0014446
4950.0 0.0015567
4970.0 0.0013512
4990.0 0.001463
5010.0 0.0014687
5030.0 0.0013722
5050.0 0.0012293
5070.0 0.0009352
5090.0 0.00080783
5110.0 0.00077375
5130.0 0.00072555
5150.0 0.00079623
5170.0 0.00073533
5190.0 0.00083393
5210.0 0.00083924
5230.0 0.00090621
5250.0 0.0011061
5270.0 0.0010792
5290.0 0.0011188
5310.0 0.0013982
5330.0 0.0015581
5350.0 0.0014663
5370.0 0.0013856
5390.0 0.0014311
5410.0 0.0015669
5430.0 0.0016538
5450.0 0.0018115
5470.0 0.0019761
5490.0 0.0021037
5510.0 0.0023829
5530.0 0.0024504
5550.0 0.0025045
5570.0 0.0025284
5590.0 0.0024795
5610.0 0.0024023
5630.0 0.0023578
5650.0 0.0023745
5670.0 0.0023437
5690.0 0.0020995
5710.0 0.0019475
5730.0 0.0018344
5750.0 0.0018481
5770.0 0.0016738
5790.0 0.0016152
5810.0 0.0016665
5830.0 0.0017264
5850.0 0.0016257
5870.0 0.0015786
5890.0 0.0016861
5910.0 0.001622
5930.0 0.0014616
5950.0 0.00135
5970.0 0.0013472
5990.0 0.0012103
6010.0 0.0010919
6030.0 0.0010572
6050.0 0.0010097
6070.0 0.00087694
6090.0 0.00083578
6110.0 0.0009404
6130.0 0.0010118
6150.0 0.0010704
6170.0 0.0011172
6190.0 0.0011495
6210.0 0.0011679
6230.0 0.0012432
6250.0 0.0011465
6270.0 0.0010297
6290.0 0.00091212
6310.0 0.00083018
6330.0 0.00077956
6350.0 0.00072029
6370.0 0.00073658
6390.0 0.00084818
6410.0 0.0010223
6430.0 0.0011946
6450.0 0.0012445
6470.0 0.0012993
6490.0 0.001482
6510.0 0.0015941
6530.0 0.0015494
6550.0 0.0015304
6570.0 0.0015497
6590.0 0.0015151
6610.0 0.001582
6630.0 0.0015266
6650.0 0.0014276
6670.0 0.001319
6690.0 0.0012322
6710.0 0.0013177
6730.0 0.0012345
6750.0 0.0011595
6770.0 0.0011288
6790.0 0.0011727
6810.0 0.0012306
6830.0 0.0012027
6850.0 0.0011309
6870.0 0.0011242
6890.0 0.0010836
6910.0 0.0010289
6930.0 0.0011104
6950.0 0.0010817
6970.0 0.0010785
6990.0 0.0011037
7010.0 0.0010745
7030.0 0.0010086
7050.0 0.00093031
7070.0 0.00089905
7090.0 0.00082275
7110.0 0.00074354
7130.0 0.0006602
7150.0 0.00062027
7170.0 0.00071458
7190.0 0.00075422
7210.0 0.00076622
7230.0 0.00082591
7250.0 0.00083242
7270.0 0.00082771
7290.0 0.00085566
7310.0 0.00087275
7330.0 0.00083568
7350.0 0.00079763
7370.0 0.00078774
7390.0 0.00083118
7410.0 0.00094162
7430.0 0.0010381
7450.0 0.0011422
7470.0 0.0011868
7490.0 0.0012166
7510.0 0.0011655
7530.0 0.0011224
7550.0 0.0010415
7570.0 0.00090511
7590.0 0.00087071
7610.0 0.00086336
7630.0 0.00086891
7650.0 0.00097574
7670.0 0.0010795
7690.0 0.0011796
7710.0 0.0012903
7730.0 0.0013747
7750.0 0.0014411
7770.0 0.0014546
7790.0 0.001543
7810.0 0.0015907
7830.0 0.0015415
7850.0 0.0015525
7870.0 0.0014906
7890.0 0.0014984
7910.0 0.00142
7930.0 0.0014087
7950.0 0.0013165
7970.0 0.0013422
7990.0 0.0013124
8010.0 0.0012912
8030.0 0.001293
8050.0 0.0013434
8070.0 0.0013129
8090.0 0.0013173
8110.0 0.0012768
8130.0 0.0012747
8150.0 0.0012328
8170.0 0.0012001
8190.0 0.0011864
8210.0 0.0011971
8230.0 0.0010962
8250.0 0.001015
8270.0 0.0008879
8290.0 0.00072665
8310.0 0.00059296
8330.0 0.00046613
8350.0 0.00040192
8370.0 0.00043295
8390.0 0.00047212
8410.0 0.00051462
8430.0 0.00060026
8450.0 0.00063807
8470.0 0.00067049
8490.0 0.00075514
8510.0 0.00083152
8530.0 0.00096422
8550.0 0.0011399
8570.0 0.0012884
8590.0 0.0014043
8610.0 0.0015244
8630.0 0.0016399
8650.0 0.0016629
8670.0 0.001675
8690.0 0.0017352
8710.0 0.001741
8730.0 0.0017527
8750.0 0.0016932
8770.0 0.0016971
8790.0 0.0016744
8810.0 0.0015555
8830.0 0.0015367
8850.0 0.001453
8870.0 0.0013972
8890.0 0.0013101
8910.0 0.0013707
8930.0 0.001276
8950.0 0.0012434
8970.0 0.001236
8990.0 0.0012016
9010.0 0.0012025
9030.0 0.0011637
9050.0 0.0011571
9070.0 0.0011546
9090.0 0.0011521
9110.0 0.0011498
9130.0 0.001147
9150.0 0.0011439
9170.0 0.0011388
9190.0 0.0011305
9210.0 0.0011393
9230.0 0.0011333
9250.0 0.0011286
9270.0 0.0011242
9290.0 0.0011199
9310.0 0.0011157
9330.0 0.0011115
9350.0 0.0011073
9370.0 0.001103
9390.0 0.0010987
9410.0 0.0010943
9430.0 0.0010897
9450.0 0.0010849
9470.0 0.0010802
9490.0 0.0010756
9510.0 0.0010709
9530.0 0.0010662
9550.0 0.0010614
9570.0 0.0010565
9590.0 0.0010515
9610.0 0.0010466
9630.0 0.0010416
9650.0 0.0010365
9670.0 0.0010315
9690.0 0.0010264
9710.0 0.0010213
9730.0 0.0010162
9750.0 0.0010111
9770.0 0.001006
9790.0 0.0010009
9810.0 0.00099582
9830.0 0.00099072
9850.0 0.00098564
9870.0 0.00098057
9890.0 0.00097551
9910.0 0.00097046
9930.0 0.00096538
9950.0 0.00095607
9970.0 0.00095236
9990.0 0.00094845
10010.0 0.00094444
10030.0 0.0009401
10050.0 0.00093538
10070.0 0.00093014
10090.0 0.00092579
10110.0 0.00092116
10130.0 0.00091665
10150.0 0.00091216
10170.0 0.00090754
10190.0 0.00090277
10210.0 0.00089827
10230.0 0.00089387
10250.0 0.00088932
10270.0 0.00088485
10290.0 0.0008806
10310.0 0.00087623
10330.0 0.00087175
10350.0 0.00086755
10370.0 0.00086341
10390.0 0.00085914
10410.0 0.00085495
10430.0 0.00085102
10450.0 0.00084696
10470.0 0.00084285
10490.0 0.00083895
10510.0 0.00083513
10530.0 0.00083106
10550.0 0.00082717
10570.0 0.00082349
10590.0 0.00081971
10610.0 0.00081588
10630.0 0.0008123
10650.0 0.00080873
10670.0 0.00080498
10690.0 0.00080138
10710.0 0.00079794
10730.0 0.00079438
10750.0 0.00079072
10770.0 0.0007874
10790.0 0.00078404
10810.0 0.00078056
10830.0 0.00077718
10850.0 0.00077396
10870.0 0.00077039
10890.0 0.00076668
10910.0 0.0007629
10930.0 0.00075861
10950.0 0.00075334
10970.0 0.00074721
10990.0 0.0007402
11010.0 0.00070114
11030.0 0.00069193
11050.0 0.00068192
11070.0 0.00067084
11090.0 0.00065827
11110.0 0.00064598
11130.0 0.0006337
11150.0 0.00062095
11170.0 0.00060827
11190.0 0.00059642
11210.0 0.00058447
11230.0 0.00057245
11250.0 0.0005612
11270.0 0.00055053
11290.0 0.00053981
11310.0 0.0005296
11330.0 0.00052059
11350.0 0.00051184
11370.0 0.00050345
11390.0 0.00049592
11410.0 0.00048899
11430.0 0.000482
11450.0 0.0004755
11470.0 0.00046948
11490.0 0.00046338
11510.0 0.00045699
11530.0 0.00045084
11550.0 0.00044453
11570.0 0.00043757
11590.0 0.0004303
11610.0 0.00042295
11630.0 0.00041481
11650.0 0.00040597
11670.0 0.00039727
11690.0 0.00038828
11710.0 0.00037871
11730.0 0.00036917
11750.0 0.0003601
11770.0 0.00035074
11790.0 0.00034147
11810.0 0.00033289
11830.0 0.00032472
11850.0 0.00031649
11870.0 0.00030907
11890.0 0.00030244
11910.0 0.00029602
11930.0 0.00029
11950.0 0.0002847
11970.0 0.00027972
11990.0 0.00027483
12010.0 0.00027042
12030.0 0.00026641
12050.0 0.00026246
12070.0 0.00025861
12090.0 0.00025528
12110.0 0.00025207
12130.0 0.00024894
12150.0 0.00024615
12170.0 0.00024375
12190.0 0.00024143
12210.0 0.00023955
12230.0 0.00023822
12250.0 0.00023737
12270.0 0.00023706
12290.0 0.00023746
12310.0 0.00023857
12330.0 0.0002404
12350.0 0.00024304
12370.0 0.00024636
12390.0 0.00025042
12410.0 0.00025533
12430.0 0.00026064
12450.0 0.00026636
12470.0 0.00027258
12490.0 0.00027901
12510.0 0.00028531
12530.0 0.00029171
12550.0 0.00029807
12570.0 0.00030402
12590.0 0.00030959
12610.0 0.00031489
12630.0 0.00031968
12650.0 0.00032382
12670.0 0.00032753
12690.0 0.00033072
12710.0 0.00033333
12730.0 0.00033545
12750.0 0.00033707
12770.0 0.00033818
12790.0 0.00033885
12810.0 0.00033907
12830.0 0.00033881
12850.0 0.00033825
12870.0 0.00033734
12890.0 0.00033599
12910.0 0.00033435
12930.0 0.00033252
12950.0 0.00033028
12970.0 0.00032766
12990.0 0.00032497
13010.0 0.00032202
13030.0 0.00031868
13050.0 0.00031517
13070.0 0.00031163
13090.0 0.00030771
13110.0 0.00030358
13130.0 0.00029953
13150.0 0.00029542
13170.0 0.00029109
13190.0 0.00028706
13210.0 0.00028339
13230.0 0.00027988
13250.0 0.00027676
13270.0 0.00027426
13290.0 0.00027224
13310.0 0.00027072
13330.0 0.00026989
13350.0 0.00026963
13370.0 0.00026986
13390.0 0.00027053
13410.0 0.00027149
13430.0 0.00027261
13450.0 0.00027374
13470.0 0.00027471
13490.0 0.00027539
13510.0 0.00027565
13530.0 0.00027536
13550.0 0.00027452
13570.0 0.00027307
13590.0 0.00027094
13610.0 0.00026834
13630.0 0.00026537
13650.0 0.00026186
13670.0 0.0002581
13690.0 0.00025431
13710.0 0.0002504
13730.0 0.0002463
13750.0 0.00024255
13770.0 0.00023899
13790.0 0.0002355
13810.0 0.00023225
13830.0 0.00022935
13850.0 0.00022656
13870.0 0.00022392
13890.0 0.00022154
13910.0 0.00021933
13930.0 0.00021717
13950.0 0.00021514
13970.0 0.00021331
13990.0 0.00021152
14010.0 0.0002098
14030.0 0.00020821
14050.0 0.00020673
14070.0 0.00020529
14090.0 0.00020399
14110.0 0.00020282
14130.0 0.00020175
14150.0 0.00020079
14170.0 0.00019997
14190.0 0.00019927
14210.0 0.00019867
14230.0 0.00019821
14250.0 0.00019786
14270.0 0.00019764
14290.0 0.00019756
14310.0 0.00019758
14330.0 0.00019771
14350.0 0.00019797
14370.0 0.00019831
14390.0 0.00019869
14410.0 0.00019915
14430.0 0.00019962
14450.0 0.00020006
14470.0 0.00020045
14490.0 0.00020083
14510.0 0.0002011
14530.0 0.00020125
14550.0 0.00020135
14570.0 0.00020139
14590.0 0.00020135
14610.0 0.0002013
14630.0 0.0002013
14650.0 0.00020135
14670.0 0.00020149
14690.0 0.00020183
14710.0 0.00020239
14730.0 0.00020312
14750.0 0.00020415
14770.0 0.00020555
14790.0 0.00020721
14810.0 0.00020912
14830.0 0.00021156
14850.0 0.00021428
14870.0 0.00021713
14890.0 0.00022024
14910.0 0.00022356
14930.0 0.00022669
14950.0 0.00022952
14970.0 0.00023214
14990.0 0.00023416
15010.0 0.00023546
15030.0 0.00023617
15050.0 0.00023631
15070.0 0.00023588
15090.0 0.00023509
15110.0 0.00023405
15130.0 0.00023285
15150.0 0.00023158
15170.0 0.00023026
15190.0 0.0002289
15210.0 0.00022755
15230.0 0.0002262
15250.0 0.00022483
15270.0 0.00022347
15290.0 0.00022212
15310.0 0.00022076
15330.0 0.00021939
15350.0 0.00021804
15370.0 0.00021669
15390.0 0.00021533
15410.0 0.00021398
15430.0 0.00021264
15450.0 0.00021129
15470.0 0.00020994
15490.0 0.0002086
15510.0 0.00020727
15530.0 0.00020593
15550.0 0.00020461
15570.0 0.00020329
15590.0 0.00020197
15610.0 0.00020064
15630.0 0.00019934
15650.0 0.00019804
15670.0 0.00019673
15690.0 0.00019544
15710.0 0.00019416
15730.0 0.00019287
15750.0 0.00019159
15770.0 0.00019033
15790.0 0.00018907
15810.0 0.0001878
15830.0 0.00018655
15850.0 0.00018531
15870.0 0.00018407
15890.0 0.00018284
15910.0 0.00018162
15930.0 0.00018041
15950.0 0.0001792
15970.0 0.000178
15990.0 0.00017681
16010.0 0.00017562
16030.0 0.00017444
16050.0 0.00017328
16070.0 0.00017212
16090.0 0.00017096
16110.0 0.00016982
16130.0 0.00016869
16150.0 0.00016755
16170.0 0.00016643
16190.0 0.00016532
16210.0 0.00016422
16230.0 0.00016312
16250.0 0.00016204
16270.0 0.00016097
16290.0 0.0001599
16310.0 0.00015884
16330.0 0.00015779
16350.0 0.00015675
16370.0 0.00015571
16390.0 0.00015469
16410.0 0.00015368
16430.0 0.00015267
16450.0 0.00015167
16470.0 0.00015068
16490.0 0.0001497
16510.0 0.00014873
16530.0 0.00014777
16550.0 0.00014682
16570.0 0.00014587
16590.0 0.00014493
16610.0 0.00014401
16630.0 0.00014309
16650.0 0.00014217
16670.0 0.00014128
16690.0 0.00014039
16710.0 0.0001395
16730.0 0.00013862
16750.0 0.00013776
16770.0 0.0001369
16790.0 0.00013605
16810.0 0.00013521
16830.0 0.00013438
16850.0 0.00013355
16870.0 0.00013274
16890.0 0.00013193
16910.0 0.00013113
16930.0 0.00013034
16950.0 0.00012956
16970.0 0.00012879
16990.0 0.00012802
17010.0 0.00012726
17030.0 0.00012651
17050.0 0.00012577
17070.0 0.00012503
17090.0 0.00012431
17110.0 0.00012359
17130.0 0.00012288
17150.0 0.00012217
17170.0 0.00012148
17190.0 0.00012079
17210.0 0.00012011
17230.0 0.00011945
17250.0 0.00011878
17270.0 0.00011812
17290.0 0.00011747
17310.0 0.00011683
17330.0 0.00011619
17350.0 0.00011556
17370.0 0.00011494
17390.0 0.00011433
17410.0 0.00011372
17430.0 0.00011312
17450.0 0.00011253
17470.0 0.00011193
17490.0 0.00011135
17510.0 0.00011078
17530.0 0.00011021
17550.0 0.00010965
17570.0 0.0001091
17590.0 0.00010855
17610.0 0.00010801
17630.0 0.00010747
17650.0 0.00010695
17670.0 0.00010642
17690.0 0.0001059
17710.0 0.00010539
17730.0 0.00010489
17750.0 0.00010439
17770.0 0.0001039
17790.0 0.00010341
17810.0 0.00010293
17830.0 0.00010245
17850.0 0.00010198
17870.0 0.00010152
17890.0 0.00010106
17910.0 0.0001006
17930.0 0.00010016
17950.0 9.9714e-05
17970.0 9.9273e-05
17990.0 9.8844e-05
18010.0 9.8419e-05
18030.0 9.799e-05
18050.0 9.7572e-05
18070.0 9.7163e-05
18090.0 9.6754e-05
18110.0 9.6347e-05
18130.0 9.5953e-05
18150.0 9.5562e-05
18170.0 9.517e-05
18190.0 9.4786e-05
18210.0 9.4411e-05
18230.0 9.4032e-05
18250.0 9.3657e-05
18270.0 9.3295e-05
18290.0 9.2934e-05
18310.0 9.2573e-05
18330.0 9.2221e-05
18350.0 9.1876e-05
18370.0 9.1528e-05
18390.0 9.1185e-05
18410.0 9.0851e-05
18430.0 9.0519e-05
18450.0 9.0184e-05
18470.0 8.986e-05
18490.0 8.9543e-05
18510.0 8.9223e-05
18530.0 8.8908e-05
18550.0 8.8602e-05
18570.0 8.8296e-05
18590.0 8.7988e-05
18610.0 8.769e-05
18630.0 8.7396e-05
18650.0 8.7101e-05
18670.0 8.6809e-05
18690.0 8.6528e-05
18710.0 8.6246e-05
18730.0 8.5964e-05
18750.0 8.569e-05
18770.0 8.542e-05
18790.0 8.5145e-05
18810.0 8.4877e-05
18830.0 8.4617e-05
18850.0 8.4356e-05
18870.0 8.4095e-05
18890.0 8.3843e-05
18910.0 8.3594e-05
18930.0 8.3341e-05
18950.0 8.3094e-05
18970.0 8.2854e-05
18990.0 8.2613e-05
19010.0 8.2368e-05
19030.0 8.2136e-05
19050.0 8.1905e-05
19070.0 8.1672e-05
19090.0 8.1444e-05
19110.0 8.1224e-05
19130.0 8.0998e-05
19150.0 8.0774e-05
19170.0 8.0558e-05
19190.0 8.0344e-05
19210.0 8.0126e-05
19230.0 7.9914e-05
19250.0 7.9709e-05
19270.0 7.9501e-05
19290.0 7.9294e-05
19310.0 7.9095e-05
19330.0 7.8896e-05
19350.0 7.8692e-05
19370.0 7.8495e-05
19390.0 7.8304e-05
19410.0 7.811e-05
19430.0 7.7916e-05
19450.0 7.7731e-05
19470.0 7.7545e-05
19490.0 7.7357e-05
19510.0 7.7174e-05
19530.0 7.6996e-05
19550.0 7.6813e-05
19570.0 7.6631e-05
19590.0 7.6458e-05
19610.0 7.6284e-05
19630.0 7.6108e-05
19650.0 7.5937e-05
19670.0 7.5771e-05
19690.0 7.5599e-05
19710.0 7.543e-05
19730.0 7.5268e-05
19750.0 7.5104e-05
19770.0 7.4936e-05
19790.0 7.4776e-05
19810.0 7.4619e-05
19830.0 7.4456e-05
19850.0 7.4293e-05
19870.0 7.4131e-05
19890.0 7.3952e-05
19910.0 7.3746e-05
19930.0 7.3508e-05
19950.0 7.3215e-05
19970.0 7.2826e-05
19990.0 7.2328e-05
20010.0 7.1736e-05
20030.0 7.0996e-05
20050.0 7.0112e-05
20070.0 6.9145e-05
20090.0 6.8098e-05
20110.0 6.6911e-05
20130.0 6.5712e-05
20150.0 6.4526e-05
20170.0 6.3298e-05
20190.0 6.2053e-05
20210.0 6.0877e-05
20230.0 5.9728e-05
20250.0 5.8571e-05
20270.0 5.7491e-05
20290.0 5.6499e-05
20310.0 5.5548e-05
20330.0 5.4651e-05
20350.0 5.3901e-05
20370.0 5.323e-05
20390.0 5.2637e-05
20410.0 5.2159e-05
20430.0 5.1793e-05
20450.0 5.151e-05
20470.0 5.1334e-05
20490.0 5.1261e-05
20510.0 5.1279e-05
20530.0 5.1387e-05
20550.0 5.1575e-05
20570.0 5.1823e-05
20590.0 5.2142e-05
20610.0 5.2516e-05
20630.0 5.2916e-05
20650.0 5.3349e-05
20670.0 5.3823e-05
20690.0 5.4284e-05
20710.0 5.4734e-05
20730.0 5.5183e-05
20750.0 5.5609e-05
20770.0 5.5984e-05
20790.0 5.6328e-05
20810.0 5.6632e-05
20830.0 5.6875e-05
20850.0 5.7061e-05
20870.0 5.7194e-05
20890.0 5.7263e-05
20910.0 5.7272e-05
20930.0 5.7224e-05
20950.0 5.7116e-05
20970.0 5.696e-05
20990.0 5.6762e-05
21010.0 5.6506e-05
21030.0 5.6215e-05
21050.0 5.59e-05
21070.0 5.5551e-05
21090.0 5.5167e-05
21110.0 5.4785e-05
21130.0 5.4398e-05
21150.0 5.3992e-05
21170.0 5.3592e-05
21190.0 5.3216e-05
21210.0 5.2837e-05
21230.0 5.247e-05
21250.0 5.2145e-05
21270.0 5.1849e-05
21290.0 5.1577e-05
21310.0 5.1348e-05
21330.0 5.1169e-05
21350.0 5.1026e-05
21370.0 5.0929e-05
21390.0 5.0883e-05
21410.0 5.0882e-05
21430.0 5.0931e-05
21450.0 5.1026e-05
21470.0 5.1162e-05
21490.0 5.1343e-05
21510.0 5.1567e-05
21530.0 5.1817e-05
21550.0 5.21e-05
21570.0 5.2424e-05
21590.0 5.2768e-05
21610.0 5.3125e-05
21630.0 5.3513e-05
21650.0 5.393e-05
21670.0 5.4335e-05
21690.0 5.4758e-05
21710.0 5.5203e-05
21730.0 5.5648e-05
21750.0 5.6086e-05
21770.0 5.6555e-05
21790.0 5.7026e-05
21810.0 5.7484e-05
21830.0 5.7949e-05
21850.0 5.843e-05
21870.0 5.8899e-05
21890.0 5.9351e-05
21910.0 5.9818e-05
21930.0 6.0279e-05
21950.0 6.0716e-05
21970.0 6.1149e-05
21990.0 6.1585e-05
22010.0 6.1984e-05
22030.0 6.2355e-05
22050.0 6.2712e-05
22070.0 6.3036e-05
22090.0 6.3312e-05
22110.0 6.3555e-05
22130.0 6.3757e-05
22150.0 6.3903e-05
22170.0 6.3997e-05
22190.0 6.4035e-05
22210.0 6.4009e-05
22230.0 6.3924e-05
22250.0 6.3774e-05
22270.0 6.3552e-05
22290.0 6.3274e-05
22310.0 6.2938e-05
22330.0 6.2518e-05
22350.0 6.2043e-05
22370.0 6.1526e-05
22390.0 6.0945e-05
22410.0 6.0292e-05
22430.0 5.9627e-05
22450.0 5.893e-05
22470.0 5.8173e-05
22490.0 5.7399e-05
22510.0 5.6633e-05
22530.0 5.582e-05
22550.0 5.4985e-05
22570.0 5.4187e-05
22590.0 5.3394e-05
22610.0 5.2585e-05
22630.0 5.1804e-05
22650.0 5.1077e-05
22670.0 5.0346e-05
22690.0 4.9637e-05
22710.0 4.8983e-05
22730.0 4.8362e-05
22750.0 4.7741e-05
22770.0 4.7179e-05
22790.0 4.6667e-05
22810.0 4.6172e-05
22830.0 4.5705e-05
