#lamb flux
1010.0 2.8485e-08
1030.0 3.1505e-08
1050.0 3.4978e-08
1070.0 3.8887e-08
1090.0 4.3328e-08
1110.0 4.7883e-08
1130.0 5.2467e-08
1150.0 5.7269e-08
1170.0 6.2223e-08
1190.0 6.692e-08
1210.0 7.168e-08
1230.0 7.66e-08
1250.0 8.1419e-08
1270.0 8.61e-08
1290.0 9.1046e-08
1310.0 9.5988e-08
1330.0 1.0073e-07
1350.0 1.0552e-07
1370.0 1.1047e-07
1390.0 1.1529e-07
1410.0 1.1998e-07
1430.0 1.2487e-07
1450.0 1.2976e-07
1470.0 1.3449e-07
1490.0 1.3928e-07
1510.0 1.4433e-07
1530.0 1.4911e-07
1550.0 1.5384e-07
1570.0 1.5872e-07
1590.0 1.6362e-07
1610.0 1.6829e-07
1630.0 1.7312e-07
1650.0 1.7807e-07
1670.0 1.8286e-07
1690.0 1.8759e-07
1710.0 1.9251e-07
1730.0 1.9746e-07
1750.0 2.0212e-07
1770.0 2.0693e-07
1790.0 2.1183e-07
1810.0 2.1659e-07
1830.0 2.2126e-07
1850.0 2.2623e-07
1870.0 2.3109e-07
1890.0 2.3578e-07
1910.0 2.4058e-07
1930.0 2.4551e-07
1950.0 2.5022e-07
1970.0 2.5488e-07
1990.0 2.5974e-07
2010.0 2.6452e-07
2030.0 2.6914e-07
2050.0 2.7392e-07
2070.0 2.7882e-07
2090.0 2.8346e-07
2110.0 2.881e-07
2130.0 2.9288e-07
2150.0 2.9758e-07
2170.0 3.0209e-07
2190.0 3.0678e-07
2210.0 3.115e-07
2230.0 3.1604e-07
2250.0 3.2057e-07
2270.0 3.2531e-07
2290.0 3.299e-07
2310.0 3.3432e-07
2330.0 3.3892e-07
2350.0 3.4364e-07
2370.0 3.4833e-07
2390.0 3.5343e-07
2410.0 3.5946e-07
2430.0 3.6639e-07
2450.0 3.7468e-07
2470.0 3.8531e-07
2490.0 3.987e-07
2510.0 4.1392e-07
2530.0 4.3224e-07
2550.0 4.5517e-07
2570.0 4.837e-07
2590.0 5.2081e-07
2610.0 5.7637e-07
2630.0 6.557e-07
2650.0 7.5943e-07
2670.0 8.9353e-07
2690.0 1.0583e-06
2710.0 1.2342e-06
2730.0 1.4081e-06
2750.0 1.5793e-06
2770.0 1.7282e-06
2790.0 1.8465e-06
2810.0 1.9403e-06
2830.0 2.0136e-06
2850.0 2.0637e-06
2870.0 2.1004e-06
2890.0 2.1295e-06
2910.0 2.1527e-06
2930.0 2.1717e-06
2950.0 2.1898e-06
2970.0 2.2075e-06
2990.0 2.2241e-06
3010.0 6.2865e-05
3030.0 6.3336e-05
3050.0 6.379e-05
3070.0 6.4179e-05
3090.0 6.4513e-05
3110.0 6.4721e-05
3130.0 6.4713e-05
3150.0 6.4425e-05
3170.0 6.3735e-05
3190.0 6.2651e-05
3210.0 6.1277e-05
3230.0 5.9704e-05
3250.0 5.8152e-05
3270.0 5.7017e-05
3290.0 5.6387e-05
3310.0 5.6489e-05
3330.0 5.7307e-05
3350.0 5.8731e-05
3370.0 6.0763e-05
3390.0 6.3325e-05
3410.0 6.6113e-05
3430.0 6.9243e-05
3450.0 7.2846e-05
3470.0 7.6782e-05
3490.0 8.0952e-05
3510.0 8.5665e-05
3530.0 9.0713e-05
3550.0 9.5823e-05
3570.0 0.00010115
3590.0 0.00010695
3610.0 0.00011293
3630.0 0.00011888
3650.0 0.00012506
3670.0 0.0001307
3690.0 0.00013492
3710.0 0.00013733
3730.0 0.00013741
3750.0 0.0001355
3770.0 0.00013475
3790.0 0.00013395
3810.0 0.00013066
3830.0 0.0001347
3850.0 0.00015061
3870.0 0.00015935
3890.0 0.00015862
3910.0 0.0001593
3930.0 0.00016349
3950.0 0.00016607
3970.0 0.00015131
3990.0 0.00013019
4010.0 0.0003902
4030.0 0.00047279
4050.0 0.00054202
4070.0 0.00047029
4090.0 0.00042594
4110.0 0.00037585
4130.0 0.00034593
4150.0 0.00036797
4170.0 0.00036247
4190.0 0.00038636
4210.0 0.00038283
4230.0 0.00040493
4250.0 0.00047904
4270.0 0.00048467
4290.0 0.00044662
4310.0 0.00046407
4330.0 0.00049363
4350.0 0.00055348
4370.0 0.00062987
4390.0 0.00059107
4410.0 0.0004367
4430.0 0.00036969
4450.0 0.0003397
4470.0 0.00026074
4490.0 0.00028137
4510.0 0.00042501
4530.0 0.00049016
4550.0 0.00049441
4570.0 0.00055634
4590.0 0.00063373
4610.0 0.00085475
4630.0 0.0011101
4650.0 0.0012039
4670.0 0.001115
4690.0 0.0010639
4710.0 0.0011246
4730.0 0.0010613
4750.0 0.00079345
4770.0 0.00058202
4790.0 0.00054349
4810.0 0.00051804
4830.0 0.00047426
4850.0 0.00052042
4870.0 0.00068752
4890.0 0.00081078
4910.0 0.00071136
4930.0 0.00062945
4950.0 0.00069155
4970.0 0.00088686
4990.0 0.0012019
5010.0 0.0013826
5030.0 0.0012192
5050.0 0.00082485
5070.0 0.00054361
5090.0 0.00043834
5110.0 0.00045079
5130.0 0.00052028
5150.0 0.00056369
5170.0 0.00055523
5190.0 0.00051883
5210.0 0.00054229
5230.0 0.00057006
5250.0 0.00061436
5270.0 0.00066284
5290.0 0.00073456
5310.0 0.000855
5330.0 0.00094615
5350.0 0.00094011
5370.0 0.00098749
5390.0 0.0011331
5410.0 0.0011321
5430.0 0.0010012
5450.0 0.00091985
5470.0 0.00097671
5490.0 0.0011932
5510.0 0.001492
5530.0 0.0017112
5550.0 0.0016539
5570.0 0.0015035
5590.0 0.0013073
5610.0 0.0012056
5630.0 0.001169
5650.0 0.0011134
5670.0 0.001055
5690.0 0.00094316
5710.0 0.00091959
5730.0 0.00084708
5750.0 0.00059723
5770.0 0.00046593
5790.0 0.000528
5810.0 0.0005962
5830.0 0.00073161
5850.0 0.00087089
5870.0 0.00096625
5890.0 0.00098262
5910.0 0.000964
5930.0 0.00091761
5950.0 0.00093502
5970.0 0.0010658
5990.0 0.0010021
6010.0 0.00084008
6030.0 0.00070974
6050.0 0.0006181
6070.0 0.00061472
6090.0 0.00066656
6110.0 0.00074532
6130.0 0.00075674
6150.0 0.00065111
6170.0 0.00057277
6190.0 0.00064458
6210.0 0.00085211
6230.0 0.0011182
6250.0 0.0012112
6270.0 0.0010584
6290.0 0.0008905
6310.0 0.00069519
6330.0 0.00053265
6350.0 0.00047511
6370.0 0.00049963
6390.0 0.0005776
6410.0 0.0007122
6430.0 0.00083166
6450.0 0.00095163
6470.0 0.0010896
6490.0 0.0013162
6510.0 0.0014717
6530.0 0.0014438
6550.0 0.0013056
6570.0 0.0011083
6590.0 0.00099942
6610.0 0.00086176
6630.0 0.00078072
6650.0 0.000738
6670.0 0.00071695
6690.0 0.00064781
6710.0 0.00058887
6730.0 0.00042415
6750.0 0.0004205
6770.0 0.00045706
6790.0 0.00052535
6810.0 0.00048071
6830.0 0.000495
6850.0 0.00046298
6870.0 0.00042293
6890.0 0.00040608
6910.0 0.00043273
6930.0 0.00040531
6950.0 0.000417
6970.0 0.00043861
6990.0 0.00049785
7010.0 0.0005021
7030.0 0.00051007
7050.0 0.00048643
7070.0 0.00046349
7090.0 0.00046484
7110.0 0.00047829
7130.0 0.00051471
7150.0 0.00054666
7170.0 0.00060321
7190.0 0.00066309
7210.0 0.00065158
7230.0 0.00066983
7250.0 0.00071984
7270.0 0.00078445
7290.0 0.00093106
7310.0 0.0010103
7330.0 0.00097653
7350.0 0.00088321
7370.0 0.00076847
7390.0 0.00074552
7410.0 0.00079226
7430.0 0.00088049
7450.0 0.00095902
7470.0 0.00095021
7490.0 0.00086641
7510.0 0.00098143
7530.0 0.00097069
7550.0 0.00087248
7570.0 0.00068157
7590.0 0.00046856
7610.0 0.00040217
7630.0 0.00045694
7650.0 0.00054028
7670.0 0.00067242
7690.0 0.00073995
7710.0 0.00077112
7730.0 0.00081036
7750.0 0.00090972
7770.0 0.00092403
7790.0 0.00084877
7810.0 0.00077446
7830.0 0.00079865
7850.0 0.00077636
7870.0 0.0007118
7890.0 0.00059805
7910.0 0.00048614
7930.0 0.00046419
7950.0 0.00042289
7970.0 0.00039147
7990.0 0.00038924
8010.0 2.8841e-05
8030.0 2.8464e-05
8050.0 2.8082e-05
8070.0 2.8452e-05
8090.0 3.0575e-05
8110.0 3.0054e-05
8130.0 2.4785e-05
8150.0 2.4139e-05
8170.0 2.0788e-05
8190.0 1.9697e-05
8210.0 2.5588e-05
8230.0 2.8491e-05
8250.0 2.567e-05
8270.0 2.2341e-05
8290.0 2.1785e-05
8310.0 1.6768e-05
8330.0 1.1301e-05
8350.0 8.0208e-06
8370.0 5.0507e-06
8390.0 9.2375e-06
8410.0 1.0764e-05
8430.0 1.3268e-05
8450.0 1.5581e-05
8470.0 1.9369e-05
8490.0 1.9231e-05
8510.0 1.8914e-05
8530.0 1.9735e-05
8550.0 2.6637e-05
8570.0 3.1539e-05
8590.0 3.4022e-05
8610.0 4.2981e-05
8630.0 5.1775e-05
8650.0 5.4151e-05
8670.0 5.7552e-05
8690.0 5.7885e-05
8710.0 5.2422e-05
8730.0 4.8764e-05
8750.0 4.3041e-05
8770.0 4.0838e-05
8790.0 4.0124e-05
8810.0 3.8451e-05
8830.0 3.0742e-05
8850.0 2.2501e-05
8870.0 1.7228e-05
8890.0 1.6849e-05
8910.0 1.9314e-05
8930.0 2.1972e-05
8950.0 2.2394e-05
8970.0 2.2499e-05
8990.0 2.0062e-05
9010.0 0.0002101
9030.0 0.00019037
9050.0 0.00019129
9070.0 0.0001928
9090.0 0.00019412
9110.0 0.00019576
9130.0 0.00019702
9150.0 0.000198
9170.0 0.00019905
9190.0 0.00020017
9210.0 0.00020134
9230.0 0.00020258
9250.0 0.00020384
9270.0 0.00020515
9290.0 0.0002065
9310.0 0.00020786
9330.0 0.00020924
9350.0 0.00021068
9370.0 0.00021213
9390.0 0.00021359
9410.0 0.0002151
9430.0 0.00021665
9450.0 0.0002182
9470.0 0.00021978
9490.0 0.00022141
9510.0 0.00022305
9530.0 0.0002247
9550.0 0.00022641
9570.0 0.00022815
9590.0 0.0002299
9610.0 0.00023167
9630.0 0.0002335
9650.0 0.00023533
9670.0 0.00023718
9690.0 0.00023907
9710.0 0.00024099
9730.0 0.00024291
9750.0 0.00024486
9770.0 0.00024687
9790.0 0.00024888
9810.0 0.0002509
9830.0 0.00025296
9850.0 0.00025505
9870.0 0.00025713
9890.0 0.00025924
9910.0 0.00026139
9930.0 0.00026354
9950.0 0.00026571
9970.0 0.00026791
9990.0 0.00027014
10010.0 0.00023441
10030.0 0.00023633
10050.0 0.0002383
10070.0 0.00024033
10090.0 0.00024224
10110.0 0.0002442
10130.0 0.00024617
10150.0 0.00024814
10170.0 0.00025012
10190.0 0.00025215
10210.0 0.00025414
10230.0 0.00025614
10250.0 0.00025816
10270.0 0.00026018
10290.0 0.00026218
10310.0 0.0002642
10330.0 0.00026624
10350.0 0.00026825
10370.0 0.00027025
10390.0 0.00027228
10410.0 0.00027429
10430.0 0.00027627
10450.0 0.00027826
10470.0 0.00028026
10490.0 0.00028223
10510.0 0.00028418
10530.0 0.00028617
10550.0 0.00028812
10570.0 0.00029003
10590.0 0.00029195
10610.0 0.00029387
10630.0 0.00029575
10650.0 0.0002976
10670.0 0.00029948
10690.0 0.00030132
10710.0 0.00030312
10730.0 0.00030493
10750.0 0.00030673
10770.0 0.00030847
10790.0 0.00031019
10810.0 0.0003119
10830.0 0.00031357
10850.0 0.00031515
10870.0 0.00031668
10890.0 0.00031803
10910.0 0.00031906
10930.0 0.00031965
10950.0 0.00031951
10970.0 0.00031843
10990.0 0.00031631
11010.0 0.00031274
11030.0 0.00030776
11050.0 0.0003017
11070.0 0.00029445
11090.0 0.00028574
11110.0 0.00027672
11130.0 0.00026733
11150.0 0.0002572
11170.0 0.00024677
11190.0 0.00023665
11210.0 0.0002262
11230.0 0.00021549
11250.0 0.00020525
11270.0 0.00019541
11290.0 0.00018556
11310.0 0.00017623
11330.0 0.00016801
11350.0 0.00016025
11370.0 0.00015307
11390.0 0.00014687
11410.0 0.00014144
11430.0 0.00013639
11450.0 0.00013204
11470.0 0.00012828
11490.0 0.00012479
11510.0 0.00012142
11530.0 0.00011829
11550.0 0.00011518
11570.0 0.00011187
11590.0 0.00010843
11610.0 0.00010494
11630.0 0.00010114
11650.0 9.7066e-05
11670.0 9.3053e-05
11690.0 8.8984e-05
11710.0 8.4786e-05
11730.0 8.0719e-05
11750.0 7.6955e-05
11770.0 7.3263e-05
11790.0 6.9803e-05
11810.0 6.6758e-05
11830.0 6.4034e-05
11850.0 6.1525e-05
11870.0 5.9426e-05
11890.0 5.7682e-05
11910.0 5.6148e-05
11930.0 5.4831e-05
11950.0 5.3734e-05
11970.0 5.2753e-05
11990.0 5.1827e-05
12010.0 5.0969e-05
12030.0 5.0143e-05
12050.0 4.9289e-05
12070.0 4.8401e-05
12090.0 4.7544e-05
12110.0 4.6675e-05
12130.0 4.5804e-05
12150.0 4.5001e-05
12170.0 4.43e-05
12190.0 4.3693e-05
12210.0 4.327e-05
12230.0 4.3066e-05
12250.0 4.3099e-05
12270.0 4.3424e-05
12290.0 4.4038e-05
12310.0 4.4919e-05
12330.0 4.6152e-05
12350.0 4.7691e-05
12370.0 4.9443e-05
12390.0 5.1463e-05
12410.0 5.383e-05
12430.0 5.6235e-05
12450.0 5.8727e-05
12470.0 6.1375e-05
12490.0 6.4035e-05
12510.0 6.6531e-05
12530.0 6.9014e-05
12550.0 7.141e-05
12570.0 7.3524e-05
12590.0 7.538e-05
12610.0 7.7035e-05
12630.0 7.8353e-05
12650.0 7.9263e-05
12670.0 7.9861e-05
12690.0 8.0101e-05
12710.0 7.9969e-05
12730.0 7.9505e-05
12750.0 7.8678e-05
12770.0 7.7543e-05
12790.0 7.6167e-05
12810.0 7.4524e-05
12830.0 7.2622e-05
12850.0 7.0634e-05
12870.0 6.8531e-05
12890.0 6.6256e-05
12910.0 6.3943e-05
12930.0 6.1664e-05
12950.0 5.9285e-05
12970.0 5.6864e-05
12990.0 5.4574e-05
13010.0 5.2312e-05
13030.0 5.0024e-05
13050.0 4.7827e-05
13070.0 4.577e-05
13090.0 4.3704e-05
13110.0 4.1706e-05
13130.0 3.9864e-05
13150.0 3.8119e-05
13170.0 3.6411e-05
13190.0 3.4892e-05
13210.0 3.3554e-05
13230.0 3.2331e-05
13250.0 3.1278e-05
13270.0 3.0447e-05
13290.0 2.9801e-05
13310.0 2.9356e-05
13330.0 2.9154e-05
13350.0 2.9177e-05
13370.0 2.9439e-05
13390.0 2.9953e-05
13410.0 3.0648e-05
13430.0 3.1551e-05
13450.0 3.2666e-05
13470.0 3.3905e-05
13490.0 3.5216e-05
13510.0 3.6696e-05
13530.0 3.8195e-05
13550.0 3.9631e-05
13570.0 4.1046e-05
13590.0 4.2426e-05
13610.0 4.3653e-05
13630.0 4.4724e-05
13650.0 4.5702e-05
13670.0 4.6514e-05
13690.0 4.7142e-05
13710.0 4.7627e-05
13730.0 4.7974e-05
13750.0 4.8147e-05
13770.0 4.8187e-05
13790.0 4.8099e-05
13810.0 4.7887e-05
13830.0 4.7573e-05
13850.0 4.7148e-05
13870.0 4.6612e-05
13890.0 4.5999e-05
13910.0 4.5308e-05
13930.0 4.4508e-05
13950.0 4.3635e-05
13970.0 4.2742e-05
13990.0 4.177e-05
14010.0 4.0736e-05
14030.0 3.9705e-05
14050.0 3.8665e-05
14070.0 3.7568e-05
14090.0 3.6517e-05
14110.0 3.5529e-05
14130.0 3.4571e-05
14150.0 3.367e-05
14170.0 3.29e-05
14190.0 3.2235e-05
14210.0 3.1671e-05
14230.0 3.1253e-05
14250.0 3.0982e-05
14270.0 3.0852e-05
14290.0 3.0879e-05
14310.0 3.1052e-05
14330.0 3.136e-05
14350.0 3.1815e-05
14370.0 3.2382e-05
14390.0 3.3026e-05
14410.0 3.3784e-05
14430.0 3.4616e-05
14450.0 3.5466e-05
14470.0 3.6348e-05
14490.0 3.7286e-05
14510.0 3.8183e-05
14530.0 3.9034e-05
14550.0 3.9886e-05
14570.0 4.0703e-05
14590.0 4.1447e-05
14610.0 4.2167e-05
14630.0 4.2879e-05
14650.0 4.3543e-05
14670.0 4.4183e-05
14690.0 4.4851e-05
14710.0 4.5553e-05
14730.0 4.6255e-05
14750.0 4.7033e-05
14770.0 4.7916e-05
14790.0 4.8872e-05
14810.0 4.9909e-05
14830.0 5.1137e-05
14850.0 5.2472e-05
14870.0 5.3865e-05
14890.0 5.5367e-05
14910.0 5.6963e-05
14930.0 5.8497e-05
14950.0 5.9931e-05
14970.0 6.1288e-05
14990.0 6.2427e-05
15010.0 6.3297e-05
15030.0 6.3942e-05
15050.0 6.4368e-05
15070.0 6.4576e-05
15090.0 6.4649e-05
15110.0 6.4628e-05
15130.0 6.4547e-05
15150.0 6.4438e-05
15170.0 6.4309e-05
15190.0 6.417e-05
15210.0 6.4034e-05
15230.0 6.3898e-05
15250.0 6.3757e-05
15270.0 6.3617e-05
15290.0 6.3485e-05
15310.0 6.3349e-05
15330.0 6.3212e-05
15350.0 6.3081e-05
15370.0 6.295e-05
15390.0 6.2812e-05
15410.0 6.268e-05
15430.0 6.2551e-05
15450.0 6.242e-05
15470.0 6.2286e-05
15490.0 6.2159e-05
15510.0 6.2032e-05
15530.0 6.1901e-05
15550.0 6.1773e-05
15570.0 6.1649e-05
15590.0 6.152e-05
15610.0 6.1389e-05
15630.0 6.1266e-05
15650.0 6.1142e-05
15670.0 6.1014e-05
15690.0 6.0889e-05
15710.0 6.0769e-05
15730.0 6.0643e-05
15750.0 6.0517e-05
15770.0 6.0396e-05
15790.0 6.0274e-05
15810.0 6.0146e-05
15830.0 6.0024e-05
15850.0 5.9905e-05
15870.0 5.9782e-05
15890.0 5.9658e-05
15910.0 5.9541e-05
15930.0 5.942e-05
15950.0 5.9295e-05
15970.0 5.9174e-05
15990.0 5.9056e-05
16010.0 5.8933e-05
16030.0 5.8809e-05
16050.0 5.8693e-05
16070.0 5.8573e-05
16090.0 5.845e-05
16110.0 5.8331e-05
16130.0 5.8215e-05
16150.0 5.809e-05
16170.0 5.7968e-05
16190.0 5.7851e-05
16210.0 5.7731e-05
16230.0 5.7608e-05
16250.0 5.7489e-05
16270.0 5.7373e-05
16290.0 5.725e-05
16310.0 5.7129e-05
16330.0 5.7012e-05
16350.0 5.6891e-05
16370.0 5.6765e-05
16390.0 5.6647e-05
16410.0 5.6528e-05
16430.0 5.6405e-05
16450.0 5.6284e-05
16470.0 5.6167e-05
16490.0 5.6045e-05
16510.0 5.592e-05
16530.0 5.58e-05
16550.0 5.568e-05
16570.0 5.5555e-05
16590.0 5.5431e-05
16610.0 5.5313e-05
16630.0 5.519e-05
16650.0 5.5065e-05
16670.0 5.4945e-05
16690.0 5.4824e-05
16710.0 5.4695e-05
16730.0 5.4571e-05
16750.0 5.445e-05
16770.0 5.4325e-05
16790.0 5.4197e-05
16810.0 5.4076e-05
16830.0 5.3953e-05
16850.0 5.3825e-05
16870.0 5.3699e-05
16890.0 5.3577e-05
16910.0 5.3448e-05
16930.0 5.3318e-05
16950.0 5.3194e-05
16970.0 5.3068e-05
16990.0 5.2938e-05
17010.0 5.2811e-05
17030.0 5.2687e-05
17050.0 5.2556e-05
17070.0 5.2426e-05
17090.0 5.2299e-05
17110.0 5.2171e-05
17130.0 5.2036e-05
17150.0 5.1907e-05
17170.0 5.178e-05
17190.0 5.1648e-05
17210.0 5.1515e-05
17230.0 5.1388e-05
17250.0 5.1257e-05
17270.0 5.1121e-05
17290.0 5.0989e-05
17310.0 5.0859e-05
17330.0 5.0724e-05
17350.0 5.0587e-05
17370.0 5.0458e-05
17390.0 5.0325e-05
17410.0 5.0188e-05
17430.0 5.0055e-05
17450.0 4.9924e-05
17470.0 4.9783e-05
17490.0 4.9646e-05
17510.0 4.9513e-05
17530.0 4.9377e-05
17550.0 4.9237e-05
17570.0 4.9102e-05
17590.0 4.8968e-05
17610.0 4.8827e-05
17630.0 4.8688e-05
17650.0 4.8554e-05
17670.0 4.8415e-05
17690.0 4.8269e-05
17710.0 4.8133e-05
17730.0 4.7996e-05
17750.0 4.7854e-05
17770.0 4.7713e-05
17790.0 4.7578e-05
17810.0 4.7435e-05
17830.0 4.7291e-05
17850.0 4.7152e-05
17870.0 4.7012e-05
17890.0 4.6866e-05
17910.0 4.6723e-05
17930.0 4.6585e-05
17950.0 4.6442e-05
17970.0 4.6297e-05
17990.0 4.6156e-05
18010.0 4.6015e-05
18030.0 4.5866e-05
18050.0 4.5722e-05
18070.0 4.5581e-05
18090.0 4.5435e-05
18110.0 4.5287e-05
18130.0 4.5146e-05
18150.0 4.5003e-05
18170.0 4.4855e-05
18190.0 4.471e-05
18210.0 4.4567e-05
18230.0 4.4419e-05
18250.0 4.4268e-05
18270.0 4.4126e-05
18290.0 4.398e-05
18310.0 4.383e-05
18330.0 4.3684e-05
18350.0 4.3542e-05
18370.0 4.3392e-05
18390.0 4.3242e-05
18410.0 4.3097e-05
18430.0 4.295e-05
18450.0 4.2797e-05
18470.0 4.265e-05
18490.0 4.2506e-05
18510.0 4.2355e-05
18530.0 4.2206e-05
18550.0 4.2061e-05
18570.0 4.1912e-05
18590.0 4.1759e-05
18610.0 4.1611e-05
18630.0 4.1465e-05
18650.0 4.1313e-05
18670.0 4.1161e-05
18690.0 4.1016e-05
18710.0 4.0867e-05
18730.0 4.0714e-05
18750.0 4.0566e-05
18770.0 4.042e-05
18790.0 4.0265e-05
18810.0 4.0114e-05
18830.0 3.9967e-05
18850.0 3.9817e-05
18870.0 3.9663e-05
18890.0 3.9516e-05
18910.0 3.9369e-05
18930.0 3.9215e-05
18950.0 3.9064e-05
18970.0 3.8917e-05
18990.0 3.8766e-05
19010.0 3.8609e-05
19030.0 3.8462e-05
19050.0 3.8314e-05
19070.0 3.8161e-05
19090.0 3.801e-05
19110.0 3.7865e-05
19130.0 3.7712e-05
19150.0 3.7558e-05
19170.0 3.741e-05
19190.0 3.7261e-05
19210.0 3.7106e-05
19230.0 3.6955e-05
19250.0 3.6809e-05
19270.0 3.6657e-05
19290.0 3.6505e-05
19310.0 3.6357e-05
19330.0 3.6209e-05
19350.0 3.6053e-05
19370.0 3.5903e-05
19390.0 3.5755e-05
19410.0 3.5603e-05
19430.0 3.545e-05
19450.0 3.5304e-05
19470.0 3.5155e-05
19490.0 3.5002e-05
19510.0 3.4852e-05
19530.0 3.4706e-05
19550.0 3.4552e-05
19570.0 3.4399e-05
19590.0 3.4252e-05
19610.0 3.4104e-05
19630.0 3.3951e-05
19650.0 3.3802e-05
19670.0 3.3657e-05
19690.0 3.3504e-05
19710.0 3.3353e-05
19730.0 3.3206e-05
19750.0 3.3057e-05
19770.0 3.2903e-05
19790.0 3.2755e-05
19810.0 3.2609e-05
19830.0 3.2457e-05
19850.0 3.2305e-05
19870.0 3.2155e-05
19890.0 3.1995e-05
19910.0 3.1818e-05
19930.0 3.1629e-05
19950.0 3.1413e-05
19970.0 3.1148e-05
19990.0 3.0828e-05
20010.0 2.7427e-05
20030.0 2.703e-05
20050.0 2.6566e-05
20070.0 2.6062e-05
20090.0 2.5521e-05
20110.0 2.4908e-05
20130.0 2.4288e-05
20150.0 2.3674e-05
20170.0 2.3036e-05
20190.0 2.239e-05
20210.0 2.178e-05
20230.0 2.1184e-05
20250.0 2.0588e-05
20270.0 2.0034e-05
20290.0 1.9529e-05
20310.0 1.9048e-05
20330.0 1.8599e-05
20350.0 1.8227e-05
20370.0 1.7896e-05
20390.0 1.7606e-05
20410.0 1.7372e-05
20430.0 1.7191e-05
20450.0 1.7048e-05
20470.0 1.6952e-05
20490.0 1.69e-05
20510.0 1.6886e-05
20530.0 1.6906e-05
20550.0 1.6959e-05
20570.0 1.7035e-05
20590.0 1.7137e-05
20610.0 1.7262e-05
20630.0 1.7399e-05
20650.0 1.7552e-05
20670.0 1.7728e-05
20690.0 1.7907e-05
20710.0 1.8091e-05
20730.0 1.8291e-05
20750.0 1.8499e-05
20770.0 1.8704e-05
20790.0 1.8919e-05
20810.0 1.9146e-05
20830.0 1.9372e-05
20850.0 1.96e-05
20870.0 1.9843e-05
20890.0 2.0091e-05
20910.0 2.033e-05
20930.0 2.0579e-05
20950.0 2.0836e-05
20970.0 2.1087e-05
20990.0 2.1335e-05
21010.0 2.1595e-05
21030.0 2.1849e-05
21050.0 2.2092e-05
21070.0 2.2334e-05
21090.0 2.2578e-05
21110.0 2.28e-05
21130.0 2.3008e-05
21150.0 2.321e-05
21170.0 2.3393e-05
21190.0 2.355e-05
21210.0 2.3691e-05
21230.0 2.3809e-05
21250.0 2.3893e-05
21270.0 2.3946e-05
21290.0 2.3966e-05
21310.0 2.3947e-05
21330.0 2.389e-05
21350.0 2.3791e-05
21370.0 2.3645e-05
21390.0 2.346e-05
21410.0 2.3234e-05
21430.0 2.2946e-05
21450.0 2.2624e-05
21470.0 2.2273e-05
21490.0 2.1876e-05
21510.0 2.144e-05
21530.0 2.0998e-05
21550.0 2.0535e-05
21570.0 2.004e-05
21590.0 1.9554e-05
21610.0 1.9084e-05
21630.0 1.8614e-05
21650.0 1.8154e-05
21670.0 1.7756e-05
21690.0 1.7389e-05
21710.0 1.7058e-05
21730.0 1.6787e-05
21750.0 1.6578e-05
21770.0 1.6419e-05
21790.0 1.6327e-05
21810.0 1.6302e-05
21830.0 1.6338e-05
21850.0 1.644e-05
21870.0 1.6599e-05
21890.0 1.6805e-05
21910.0 1.7069e-05
21930.0 1.7379e-05
21950.0 1.7714e-05
21970.0 1.8085e-05
21990.0 1.8502e-05
22010.0 1.8919e-05
22030.0 1.9342e-05
22050.0 1.9786e-05
22070.0 2.0233e-05
22090.0 2.0656e-05
22110.0 2.1083e-05
22130.0 2.1509e-05
22150.0 2.1907e-05
22170.0 2.2282e-05
22190.0 2.2653e-05
22210.0 2.2999e-05
22230.0 2.3303e-05
22250.0 2.359e-05
22270.0 2.3854e-05
22290.0 2.4079e-05
22310.0 2.4273e-05
22330.0 2.4443e-05
22350.0 2.4575e-05
22370.0 2.4668e-05
22390.0 2.4726e-05
22410.0 2.4744e-05
22430.0 2.4721e-05
22450.0 2.4657e-05
22470.0 2.4547e-05
22490.0 2.4392e-05
22510.0 2.42e-05
22530.0 2.3953e-05
22550.0 2.3653e-05
22570.0 2.3321e-05
22590.0 2.2946e-05
22610.0 2.2514e-05
22630.0 2.2047e-05
22650.0 2.1565e-05
