#lamb flux
1010.0 3.0499e-06
1030.0 3.1787e-06
1050.0 3.3283e-06
1070.0 3.4971e-06
1090.0 3.689e-06
1110.0 3.8868e-06
1130.0 4.087e-06
1150.0 4.2978e-06
1170.0 4.5164e-06
1190.0 4.7256e-06
1210.0 4.9391e-06
1230.0 5.1613e-06
1250.0 5.381e-06
1270.0 5.5967e-06
1290.0 5.8261e-06
1310.0 6.0576e-06
1330.0 6.2826e-06
1350.0 6.5125e-06
1370.0 6.7518e-06
1390.0 6.9884e-06
1410.0 7.2214e-06
1430.0 7.4667e-06
1450.0 7.7149e-06
1470.0 7.9586e-06
1490.0 8.2073e-06
1510.0 8.4711e-06
1530.0 8.7253e-06
1550.0 8.9788e-06
1570.0 9.2419e-06
1590.0 9.5069e-06
1610.0 9.7631e-06
1630.0 1.0027e-05
1650.0 1.0297e-05
1670.0 1.056e-05
1690.0 1.0819e-05
1710.0 1.1086e-05
1730.0 1.1351e-05
1750.0 1.1601e-05
1770.0 1.1853e-05
1790.0 1.2107e-05
1810.0 1.2348e-05
1830.0 1.258e-05
1850.0 1.2821e-05
1870.0 1.3049e-05
1890.0 1.3262e-05
1910.0 1.3473e-05
1930.0 1.3682e-05
1950.0 1.3873e-05
1970.0 1.4055e-05
1990.0 1.4237e-05
2010.0 1.4408e-05
2030.0 1.4565e-05
2050.0 1.4723e-05
2070.0 1.4881e-05
2090.0 1.5023e-05
2110.0 1.516e-05
2130.0 1.5302e-05
2150.0 1.5439e-05
2170.0 1.5568e-05
2190.0 1.5708e-05
2210.0 1.5852e-05
2230.0 1.5994e-05
2250.0 1.6143e-05
2270.0 1.6311e-05
2290.0 1.6484e-05
2310.0 1.6661e-05
2330.0 1.686e-05
2350.0 1.7077e-05
2370.0 1.7306e-05
2390.0 1.7557e-05
2410.0 1.7841e-05
2430.0 1.8142e-05
2450.0 1.8464e-05
2470.0 1.8815e-05
2490.0 1.9194e-05
2510.0 1.9592e-05
2530.0 2.0047e-05
2550.0 2.0623e-05
2570.0 2.1409e-05
2590.0 2.2522e-05
2610.0 2.4238e-05
2630.0 2.6707e-05
2650.0 2.9907e-05
2670.0 3.395e-05
2690.0 3.8813e-05
2710.0 4.4019e-05
2730.0 4.9302e-05
2750.0 5.4755e-05
2770.0 6.0014e-05
2790.0 6.4945e-05
2810.0 6.9792e-05
2830.0 7.477e-05
2850.0 7.964e-05
2870.0 8.4649e-05
2890.0 8.9996e-05
2910.0 9.5595e-05
2930.0 0.00010131
2950.0 0.00010741
2970.0 0.00011386
2990.0 0.00012044
3010.0 0.00022057
3030.0 0.00023287
3050.0 0.00024524
3070.0 0.00025675
3090.0 0.00026696
3110.0 0.0002737
3130.0 0.00027432
3150.0 0.00026585
3170.0 0.00024235
3190.0 0.00020287
3210.0 0.00014774
3230.0 8.5071e-05
3250.0 0.00014914
3270.0 6.4465e-05
3290.0 0.00021593
3310.0 4.2972e-05
3330.0 4.384e-05
3350.0 6.7218e-05
3370.0 9.384e-05
3390.0 0.00012207
3410.0 0.00015018
3430.0 0.00017955
3450.0 0.00020882
3470.0 0.00023565
3490.0 0.00025323
3510.0 0.00031522
3530.0 0.00043174
3550.0 0.00043281
3570.0 0.00036752
3590.0 0.00052666
3610.0 0.00033949
3630.0 0.00054731
3650.0 0.00062127
3670.0 0.00079864
3690.0 0.00076366
3710.0 0.00054497
3730.0 0.00072797
3750.0 0.00075697
3770.0 0.00077985
3790.0 0.00070551
3810.0 0.00062005
3830.0 0.00085732
3850.0 0.00092225
3870.0 0.0011454
3890.0 0.001081
3910.0 0.00098142
3930.0 0.0010623
3950.0 0.0011957
3970.0 0.0015593
3990.0 0.0012557
4010.0 0.00082973
4030.0 0.0011175
4050.0 0.0012223
4070.0 0.0013889
4090.0 0.0012189
4110.0 0.00083358
4130.0 0.0010989
4150.0 0.0010101
4170.0 0.0010705
4190.0 0.0010652
4210.0 0.001323
4230.0 0.00092532
4250.0 0.0011057
4270.0 0.0011045
4290.0 0.0011166
4310.0 0.0013601
4330.0 0.0013948
4350.0 0.0010817
4370.0 0.00093666
4390.0 0.0011364
4410.0 0.0011576
4430.0 0.00089458
4450.0 0.00090006
4470.0 0.001043
4490.0 0.0007784
4510.0 0.00094746
4530.0 0.0010232
4550.0 0.0013679
4570.0 0.0020031
4590.0 0.0019453
4610.0 0.0013017
4630.0 0.0020694
4650.0 0.0029612
4670.0 0.0027393
4690.0 0.0016277
4710.0 0.0017587
4730.0 0.0022722
4750.0 0.0020311
4770.0 0.0015382
4790.0 0.0010636
4810.0 0.0015352
4830.0 0.0017708
4850.0 0.0015828
4870.0 0.00057392
4890.0 0.001699
4910.0 0.0023557
4930.0 0.0025262
4950.0 0.0024918
4970.0 0.0015733
4990.0 0.0018049
5010.0 0.0020973
5030.0 0.0022787
5050.0 0.0022459
5070.0 0.0016248
5090.0 0.0013337
5110.0 0.0012475
5130.0 0.0011127
5150.0 0.0012718
5170.0 0.0011087
5190.0 0.001373
5210.0 0.0013694
5230.0 0.0014939
5250.0 0.0018886
5270.0 0.0015995
5290.0 0.001566
5310.0 0.0022781
5330.0 0.00263
5350.0 0.0022186
5370.0 0.0019323
5390.0 0.0021804
5410.0 0.0027159
5430.0 0.0029795
5450.0 0.0031841
5470.0 0.003199
5490.0 0.0031277
5510.0 0.0036375
5530.0 0.003758
5550.0 0.0040046
5570.0 0.0042283
5590.0 0.0041762
5610.0 0.0039447
5630.0 0.0037944
5650.0 0.003851
5670.0 0.0037971
5690.0 0.0032361
5710.0 0.0030912
5730.0 0.0031116
5750.0 0.0033757
5770.0 0.0029222
5790.0 0.002669
5810.0 0.0026952
5830.0 0.002818
5850.0 0.0025683
5870.0 0.0025719
5890.0 0.003037
5910.0 0.0028853
5930.0 0.002364
5950.0 0.0020476
5970.0 0.0021766
5990.0 0.0019987
6010.0 0.0018801
6030.0 0.0019246
6050.0 0.0018056
6070.0 0.0013666
6090.0 0.0012292
6110.0 0.0015816
6130.0 0.001822
6150.0 0.0019175
6170.0 0.0018706
6190.0 0.0017621
6210.0 0.0017267
6230.0 0.0019953
6250.0 0.0018444
6270.0 0.0016868
6290.0 0.0015499
6310.0 0.001466
6330.0 0.001395
6350.0 0.0012228
6370.0 0.0012149
6390.0 0.0014398
6410.0 0.0017882
6430.0 0.0020535
6450.0 0.0019365
6470.0 0.0019002
6490.0 0.0023659
6510.0 0.0027067
6530.0 0.0025643
6550.0 0.0024683
6570.0 0.0025063
6590.0 0.0024283
6610.0 0.0026377
6630.0 0.0024837
6650.0 0.0022012
6670.0 0.0019841
6690.0 0.0019213
6710.0 0.0023462
6730.0 0.0021577
6750.0 0.0018577
6770.0 0.0016754
6790.0 0.0017558
6810.0 0.0019419
6830.0 0.0018954
6850.0 0.0017253
6870.0 0.0017818
6890.0 0.0017495
6910.0 0.0016517
6930.0 0.0018922
6950.0 0.0017557
6970.0 0.0016467
6990.0 0.0016449
7010.0 0.0015745
7030.0 0.0014828
7050.0 0.0014303
7070.0 0.0015452
7090.0 0.0014642
7110.0 0.0012706
7130.0 0.001029
7150.0 0.00093412
7170.0 0.0012369
7190.0 0.0013479
7210.0 0.0013038
7230.0 0.0013569
7250.0 0.0012649
7270.0 0.0012049
7290.0 0.0013317
7310.0 0.0014835
7330.0 0.001456
7350.0 0.0013669
7370.0 0.0013069
7390.0 0.0013692
7410.0 0.0015959
7430.0 0.0017453
7450.0 0.0018585
7470.0 0.0018275
7490.0 0.0018766
7510.0 0.0018036
7530.0 0.0018095
7550.0 0.0017907
7570.0 0.0015824
7590.0 0.0015715
7610.0 0.0015312
7630.0 0.0014306
7650.0 0.0015744
7670.0 0.0017235
7690.0 0.0018765
7710.0 0.0020973
7730.0 0.0022407
7750.0 0.0023481
7770.0 0.0023548
7790.0 0.002576
7810.0 0.0026659
7830.0 0.0024732
7850.0 0.0024974
7870.0 0.002385
7890.0 0.0024963
7910.0 0.0023732
7930.0 0.0023964
7950.0 0.002134
7970.0 0.0021942
7990.0 0.00211
8010.0 0.0021148
8030.0 0.0021117
8050.0 0.0022189
8070.0 0.0021461
8090.0 0.0021572
8110.0 0.0021081
8130.0 0.0021124
8150.0 0.0020279
8170.0 0.0019769
8190.0 0.0019575
8210.0 0.001977
8230.0 0.0017654
8250.0 0.0016209
8270.0 0.0014257
8290.0 0.0011879
8310.0 0.0010159
8330.0 0.00081222
8350.0 0.00068555
8370.0 0.00070893
8390.0 0.00072825
8410.0 0.00077496
8430.0 0.00094598
8450.0 0.001014
8470.0 0.0010737
8490.0 0.0012322
8510.0 0.0013466
8530.0 0.001555
8550.0 0.0018423
8570.0 0.0020584
8590.0 0.002214
8610.0 0.0024209
8630.0 0.0026652
8650.0 0.0027141
8670.0 0.0027481
8690.0 0.0028599
8710.0 0.002837
8730.0 0.0028158
8750.0 0.0026719
8770.0 0.0026791
8790.0 0.0026477
8810.0 0.0024495
8830.0 0.0024498
8850.0 0.0023053
8870.0 0.0022195
8890.0 0.0020376
8910.0 0.0021838
8930.0 0.0020048
8950.0 0.0019736
8970.0 0.0019813
8990.0 0.0019201
9010.0 0.0019527
9030.0 0.0018749
9050.0 0.0018646
9070.0 0.0018623
9090.0 0.0018596
9110.0 0.0018575
9130.0 0.0018542
9150.0 0.0018503
9170.0 0.0018421
9190.0 0.0018269
9210.0 0.0018476
9230.0 0.0018377
9250.0 0.0018306
9270.0 0.001824
9290.0 0.0018175
9310.0 0.0018112
9330.0 0.001805
9350.0 0.0017986
9370.0 0.0017921
9390.0 0.0017854
9410.0 0.0017786
9430.0 0.0017716
9450.0 0.0017643
9470.0 0.001757
9490.0 0.0017496
9510.0 0.0017422
9530.0 0.0017346
9550.0 0.0017268
9570.0 0.001719
9590.0 0.0017111
9610.0 0.0017031
9630.0 0.001695
9650.0 0.0016869
9670.0 0.0016788
9690.0 0.0016706
9710.0 0.0016624
9730.0 0.0016542
9750.0 0.0016459
9770.0 0.0016377
9790.0 0.0016295
9810.0 0.0016213
9830.0 0.0016131
9850.0 0.001605
9870.0 0.0015969
9890.0 0.0015888
9910.0 0.0015808
9930.0 0.0015727
9950.0 0.0015601
9970.0 0.0015537
9990.0 0.0015471
10010.0 0.0015404
10030.0 0.0015333
10050.0 0.0015258
10070.0 0.0015168
10090.0 0.0015103
10110.0 0.0015035
10130.0 0.0014968
10150.0 0.0014901
10170.0 0.0014833
10190.0 0.0014763
10210.0 0.0014697
10230.0 0.0014632
10250.0 0.0014566
10270.0 0.0014502
10290.0 0.0014441
10310.0 0.0014379
10330.0 0.0014316
10350.0 0.0014258
10370.0 0.00142
10390.0 0.0014142
10410.0 0.0014086
10430.0 0.0014033
10450.0 0.001398
10470.0 0.0013927
10490.0 0.0013877
10510.0 0.0013828
10530.0 0.0013778
10550.0 0.001373
10570.0 0.0013685
10590.0 0.001364
10610.0 0.0013595
10630.0 0.0013554
10650.0 0.0013513
10670.0 0.0013471
10690.0 0.0013432
10710.0 0.0013395
10730.0 0.0013357
10750.0 0.001332
10770.0 0.0013286
10790.0 0.0013253
10810.0 0.0013219
10830.0 0.0013187
10850.0 0.0013157
10870.0 0.0013123
10890.0 0.0013086
10910.0 0.0013045
10930.0 0.0012993
10950.0 0.0012922
10970.0 0.0012829
10990.0 0.0012713
11010.0 0.0012484
11030.0 0.0012308
11050.0 0.0012105
11070.0 0.0011872
11090.0 0.0011603
11110.0 0.0011334
11130.0 0.0011065
11150.0 0.0010786
11170.0 0.0010511
11190.0 0.0010255
11210.0 0.0010002
11230.0 0.00097526
11250.0 0.00095238
11270.0 0.00093112
11290.0 0.00091033
11310.0 0.00089098
11330.0 0.00087417
11350.0 0.00085818
11370.0 0.00084309
11390.0 0.00082962
11410.0 0.00081728
11430.0 0.00080488
11450.0 0.00079327
11470.0 0.00078235
11490.0 0.00077121
11510.0 0.00075949
11530.0 0.00074805
11550.0 0.00073629
11570.0 0.00072337
11590.0 0.00070994
11610.0 0.0006964
11630.0 0.0006816
11650.0 0.00066571
11670.0 0.00065015
11690.0 0.00063425
11710.0 0.00061749
11730.0 0.00060091
11750.0 0.00058522
11770.0 0.00056914
11790.0 0.0005533
11810.0 0.00053866
11830.0 0.00052474
11850.0 0.00051076
11870.0 0.00049813
11890.0 0.00048677
11910.0 0.00047577
11930.0 0.00046537
11950.0 0.00045614
11970.0 0.00044739
11990.0 0.00043872
12010.0 0.00043082
12030.0 0.00042353
12050.0 0.0004163
12070.0 0.0004092
12090.0 0.00040298
12110.0 0.00039696
12130.0 0.00039108
12150.0 0.00038581
12170.0 0.00038124
12190.0 0.00037689
12210.0 0.00037336
12230.0 0.00037088
12250.0 0.00036931
12270.0 0.00036879
12290.0 0.00036959
12310.0 0.00037167
12330.0 0.00037509
12350.0 0.00037993
12370.0 0.00038596
12390.0 0.00039323
12410.0 0.00040195
12430.0 0.00041124
12450.0 0.00042112
12470.0 0.00043171
12490.0 0.00044253
12510.0 0.00045299
12530.0 0.00046348
12550.0 0.00047377
12570.0 0.00048327
12590.0 0.00049205
12610.0 0.00050032
12630.0 0.00050772
12650.0 0.00051407
12670.0 0.00051972
12690.0 0.00052458
12710.0 0.00052858
12730.0 0.00053184
12750.0 0.00053437
12770.0 0.00053619
12790.0 0.00053738
12810.0 0.00053791
12830.0 0.00053773
12850.0 0.00053709
12870.0 0.0005359
12890.0 0.000534
12910.0 0.00053157
12930.0 0.00052878
12950.0 0.00052522
12970.0 0.00052095
12990.0 0.00051647
13010.0 0.00051147
13030.0 0.00050571
13050.0 0.00049961
13070.0 0.00049342
13090.0 0.00048655
13110.0 0.00047932
13130.0 0.00047226
13150.0 0.00046516
13170.0 0.00045772
13190.0 0.00045089
13210.0 0.00044473
13230.0 0.00043891
13250.0 0.00043378
13270.0 0.00042974
13290.0 0.00042652
13310.0 0.00042412
13330.0 0.00042279
13350.0 0.00042236
13370.0 0.00042263
13390.0 0.00042351
13410.0 0.00042477
13430.0 0.00042617
13450.0 0.0004275
13470.0 0.00042851
13490.0 0.00042903
13510.0 0.00042884
13530.0 0.00042781
13550.0 0.00042602
13570.0 0.00042336
13590.0 0.00041976
13610.0 0.00041558
13630.0 0.00041099
13650.0 0.00040573
13670.0 0.00040022
13690.0 0.0003948
13710.0 0.0003893
13730.0 0.00038365
13750.0 0.00037855
13770.0 0.00037374
13790.0 0.00036906
13810.0 0.0003647
13830.0 0.00036078
13850.0 0.00035695
13870.0 0.00035324
13890.0 0.00034981
13910.0 0.00034651
13930.0 0.00034315
13950.0 0.00033988
13970.0 0.00033681
13990.0 0.00033372
14010.0 0.00033065
14030.0 0.00032778
14050.0 0.00032506
14070.0 0.00032238
14090.0 0.00031997
14110.0 0.00031783
14130.0 0.0003159
14150.0 0.00031422
14170.0 0.00031287
14190.0 0.00031178
14210.0 0.00031096
14230.0 0.00031044
14250.0 0.00031018
14270.0 0.00031021
14290.0 0.00031054
14310.0 0.00031108
14330.0 0.00031185
14350.0 0.00031288
14370.0 0.00031405
14390.0 0.00031528
14410.0 0.00031667
14430.0 0.00031811
14450.0 0.00031944
14470.0 0.0003207
14490.0 0.00032196
14510.0 0.000323
14530.0 0.00032384
14550.0 0.00032461
14570.0 0.00032526
14590.0 0.00032578
14610.0 0.00032632
14630.0 0.00032698
14650.0 0.00032771
14670.0 0.00032861
14690.0 0.00032988
14710.0 0.00033156
14730.0 0.00033349
14750.0 0.00033594
14770.0 0.00033901
14790.0 0.00034248
14810.0 0.00034632
14830.0 0.000351
14850.0 0.00035604
14870.0 0.00036117
14890.0 0.00036662
14910.0 0.00037227
14930.0 0.00037745
14950.0 0.00038202
14970.0 0.00038612
14990.0 0.00038918
15010.0 0.00039102
15030.0 0.00039187
15050.0 0.00039179
15070.0 0.00039079
15090.0 0.00038922
15110.0 0.00038727
15130.0 0.00038507
15150.0 0.00038275
15170.0 0.00038035
15190.0 0.00037791
15210.0 0.00037547
15230.0 0.00037303
15250.0 0.00037057
15270.0 0.00036811
15290.0 0.00036569
15310.0 0.00036324
15330.0 0.0003608
15350.0 0.00035837
15370.0 0.00035595
15390.0 0.00035351
15410.0 0.00035109
15430.0 0.00034868
15450.0 0.00034627
15470.0 0.00034386
15490.0 0.00034148
15510.0 0.0003391
15530.0 0.00033672
15550.0 0.00033435
15570.0 0.00033201
15590.0 0.00032965
15610.0 0.0003273
15630.0 0.00032498
15650.0 0.00032267
15670.0 0.00032035
15690.0 0.00031806
15710.0 0.00031579
15730.0 0.00031351
15750.0 0.00031125
15770.0 0.00030901
15790.0 0.00030678
15810.0 0.00030455
15830.0 0.00030234
15850.0 0.00030016
15870.0 0.00029798
15890.0 0.00029581
15910.0 0.00029367
15930.0 0.00029154
15950.0 0.00028941
15970.0 0.0002873
15990.0 0.00028522
16010.0 0.00028314
16030.0 0.00028107
16050.0 0.00027904
16070.0 0.00027701
16090.0 0.00027499
16110.0 0.000273
16130.0 0.00027103
16150.0 0.00026905
16170.0 0.00026709
16190.0 0.00026517
16210.0 0.00026325
16230.0 0.00026134
16250.0 0.00025946
16270.0 0.00025761
16290.0 0.00025574
16310.0 0.00025391
16330.0 0.0002521
16350.0 0.0002503
16370.0 0.00024849
16390.0 0.00024673
16410.0 0.00024498
16430.0 0.00024324
16450.0 0.00024152
16470.0 0.00023983
16490.0 0.00023814
16510.0 0.00023645
16530.0 0.0002348
16550.0 0.00023317
16570.0 0.00023154
16590.0 0.00022993
16610.0 0.00022835
16630.0 0.00022677
16650.0 0.00022521
16670.0 0.00022367
16690.0 0.00022216
16710.0 0.00022063
16730.0 0.00021913
16750.0 0.00021766
16770.0 0.00021619
16790.0 0.00021473
16810.0 0.00021331
16830.0 0.0002119
16850.0 0.00021049
16870.0 0.0002091
16890.0 0.00020774
16910.0 0.00020637
16930.0 0.00020502
16950.0 0.0002037
16970.0 0.00020239
16990.0 0.00020108
17010.0 0.00019979
17030.0 0.00019853
17050.0 0.00019727
17070.0 0.00019602
17090.0 0.0001948
17110.0 0.00019358
17130.0 0.00019237
17150.0 0.00019118
17170.0 0.00019001
17190.0 0.00018885
17210.0 0.00018769
17230.0 0.00018657
17250.0 0.00018545
17270.0 0.00018432
17290.0 0.00018323
17310.0 0.00018215
17330.0 0.00018107
17350.0 0.00018
17370.0 0.00017896
17390.0 0.00017793
17410.0 0.0001769
17430.0 0.00017589
17450.0 0.0001749
17470.0 0.0001739
17490.0 0.00017291
17510.0 0.00017195
17530.0 0.000171
17550.0 0.00017005
17570.0 0.00016912
17590.0 0.0001682
17610.0 0.00016728
17630.0 0.00016638
17650.0 0.0001655
17670.0 0.00016462
17690.0 0.00016373
17710.0 0.00016288
17730.0 0.00016203
17750.0 0.00016119
17770.0 0.00016036
17790.0 0.00015955
17810.0 0.00015873
17830.0 0.00015792
17850.0 0.00015713
17870.0 0.00015636
17890.0 0.00015557
17910.0 0.0001548
17930.0 0.00015406
17950.0 0.00015331
17970.0 0.00015256
17990.0 0.00015184
18010.0 0.00015112
18030.0 0.0001504
18050.0 0.00014969
18070.0 0.000149
18090.0 0.00014831
18110.0 0.00014762
18130.0 0.00014696
18150.0 0.0001463
18170.0 0.00014563
18190.0 0.00014498
18210.0 0.00014435
18230.0 0.0001437
18250.0 0.00014306
18270.0 0.00014245
18290.0 0.00014184
18310.0 0.00014123
18330.0 0.00014063
18350.0 0.00014005
18370.0 0.00013945
18390.0 0.00013887
18410.0 0.0001383
18430.0 0.00013773
18450.0 0.00013716
18470.0 0.00013661
18490.0 0.00013607
18510.0 0.00013552
18530.0 0.00013498
18550.0 0.00013446
18570.0 0.00013393
18590.0 0.0001334
18610.0 0.00013289
18630.0 0.00013239
18650.0 0.00013188
18670.0 0.00013138
18690.0 0.0001309
18710.0 0.00013041
18730.0 0.00012993
18750.0 0.00012945
18770.0 0.00012899
18790.0 0.00012851
18810.0 0.00012805
18830.0 0.0001276
18850.0 0.00012715
18870.0 0.00012669
18890.0 0.00012626
18910.0 0.00012583
18930.0 0.00012539
18950.0 0.00012496
18970.0 0.00012454
18990.0 0.00012412
19010.0 0.00012369
19030.0 0.00012328
19050.0 0.00012288
19070.0 0.00012247
19090.0 0.00012207
19110.0 0.00012168
19130.0 0.00012129
19150.0 0.00012089
19170.0 0.00012051
19190.0 0.00012013
19210.0 0.00011975
19230.0 0.00011937
19250.0 0.00011901
19270.0 0.00011864
19290.0 0.00011827
19310.0 0.00011792
19330.0 0.00011756
19350.0 0.0001172
19370.0 0.00011685
19390.0 0.0001165
19410.0 0.00011616
19430.0 0.00011581
19450.0 0.00011548
19470.0 0.00011514
19490.0 0.0001148
19510.0 0.00011447
19530.0 0.00011415
19550.0 0.00011382
19570.0 0.00011349
19590.0 0.00011317
19610.0 0.00011286
19630.0 0.00011254
19650.0 0.00011223
19670.0 0.00011192
19690.0 0.00011161
19710.0 0.0001113
19730.0 0.000111
19750.0 0.0001107
19770.0 0.00011039
19790.0 0.00011009
19810.0 0.0001098
19830.0 0.0001095
19850.0 0.0001092
19870.0 0.0001089
19890.0 0.00010858
19910.0 0.00010821
19930.0 0.00010779
19950.0 0.00010729
19970.0 0.00010664
19990.0 0.00010582
20010.0 0.00010487
20030.0 0.00010368
20050.0 0.00010228
20070.0 0.00010076
20090.0 9.9122e-05
20110.0 9.7277e-05
20130.0 9.5424e-05
20150.0 9.3606e-05
20170.0 9.1732e-05
20190.0 8.9845e-05
20210.0 8.8077e-05
20230.0 8.6362e-05
20250.0 8.465e-05
20270.0 8.307e-05
20290.0 8.1638e-05
20310.0 8.0287e-05
20330.0 7.9038e-05
20350.0 7.8026e-05
20370.0 7.7154e-05
20390.0 7.6426e-05
20410.0 7.589e-05
20430.0 7.5541e-05
20450.0 7.535e-05
20470.0 7.5346e-05
20490.0 7.5512e-05
20510.0 7.5837e-05
20530.0 7.6331e-05
20550.0 7.6957e-05
20570.0 7.768e-05
20590.0 7.8534e-05
20610.0 7.948e-05
20630.0 8.0458e-05
20650.0 8.1489e-05
20670.0 8.2594e-05
20690.0 8.3651e-05
20710.0 8.4671e-05
20730.0 8.5679e-05
20750.0 8.663e-05
20770.0 8.7466e-05
20790.0 8.8233e-05
20810.0 8.8919e-05
20830.0 8.9481e-05
20850.0 8.9931e-05
20870.0 9.0287e-05
20890.0 9.0528e-05
20910.0 9.066e-05
20930.0 9.0699e-05
20950.0 9.0643e-05
20970.0 9.0509e-05
20990.0 9.0307e-05
21010.0 9.0021e-05
21030.0 8.9677e-05
21050.0 8.9294e-05
21070.0 8.8856e-05
21090.0 8.8359e-05
21110.0 8.7857e-05
21130.0 8.7338e-05
21150.0 8.6781e-05
21170.0 8.6222e-05
21190.0 8.5686e-05
21210.0 8.5138e-05
21230.0 8.4598e-05
21250.0 8.4111e-05
21270.0 8.3664e-05
21290.0 8.3246e-05
21310.0 8.289e-05
21330.0 8.2611e-05
21350.0 8.2385e-05
21370.0 8.223e-05
21390.0 8.2156e-05
21410.0 8.2155e-05
21430.0 8.2233e-05
21450.0 8.2388e-05
21470.0 8.2611e-05
21490.0 8.2908e-05
21510.0 8.3276e-05
21530.0 8.3689e-05
21550.0 8.4156e-05
21570.0 8.4691e-05
21590.0 8.5259e-05
21610.0 8.5851e-05
21630.0 8.6494e-05
21650.0 8.7185e-05
21670.0 8.786e-05
21690.0 8.8567e-05
21710.0 8.9315e-05
21730.0 9.0067e-05
21750.0 9.0814e-05
21770.0 9.162e-05
21790.0 9.2439e-05
21810.0 9.3247e-05
21830.0 9.4077e-05
21850.0 9.4951e-05
21870.0 9.5816e-05
21890.0 9.6666e-05
21910.0 9.7558e-05
21930.0 9.8456e-05
21950.0 9.9325e-05
21970.0 0.0001002
21990.0 0.00010111
22010.0 0.00010195
22030.0 0.00010276
22050.0 0.00010356
22070.0 0.00010431
22090.0 0.00010497
22110.0 0.00010558
22130.0 0.00010613
22150.0 0.00010658
22170.0 0.00010692
22190.0 0.00010717
22210.0 0.0001073
22230.0 0.00010731
22250.0 0.00010719
22270.0 0.00010693
22290.0 0.00010656
22310.0 0.00010606
22330.0 0.0001054
22350.0 0.00010463
22370.0 0.00010375
22390.0 0.00010275
22410.0 0.0001016
22430.0 0.00010041
22450.0 9.9147e-05
22470.0 9.7763e-05
22490.0 9.6336e-05
22510.0 9.4915e-05
22530.0 9.3401e-05
22550.0 9.1838e-05
22570.0 9.0338e-05
22590.0 8.8846e-05
22610.0 8.732e-05
22630.0 8.5846e-05
22650.0 8.4471e-05
22670.0 8.3089e-05
22690.0 8.1748e-05
22710.0 8.0512e-05
22730.0 7.9339e-05
22750.0 7.8165e-05
22770.0 7.7106e-05
22790.0 7.6142e-05
22810.0 7.5213e-05
22830.0 7.434e-05
22850.0 7.3567e-05
22870.0 7.2842e-05
22890.0 7.2149e-05
22910.0 7.1532e-05
22930.0 7.0982e-05
22950.0 7.0466e-05
22970.0 6.9992e-05
22990.0 6.9601e-05
23010.0 6.9249e-05
