#lamb flux
1010.0 6.9729e-08
1030.0 7.7121e-08
1050.0 8.5623e-08
1070.0 9.5194e-08
1090.0 1.0606e-07
1110.0 1.1721e-07
1130.0 1.2844e-07
1150.0 1.4019e-07
1170.0 1.5232e-07
1190.0 1.6382e-07
1210.0 1.7547e-07
1230.0 1.8751e-07
1250.0 1.9931e-07
1270.0 2.1077e-07
1290.0 2.2287e-07
1310.0 2.3497e-07
1330.0 2.4657e-07
1350.0 2.5831e-07
1370.0 2.7042e-07
1390.0 2.8223e-07
1410.0 2.9369e-07
1430.0 3.0567e-07
1450.0 3.1765e-07
1470.0 3.2923e-07
1490.0 3.4094e-07
1510.0 3.533e-07
1530.0 3.6502e-07
1550.0 3.7658e-07
1570.0 3.8854e-07
1590.0 4.0052e-07
1610.0 4.1197e-07
1630.0 4.2378e-07
1650.0 4.359e-07
1670.0 4.4763e-07
1690.0 4.5922e-07
1710.0 4.7126e-07
1730.0 4.8338e-07
1750.0 4.9479e-07
1770.0 5.0654e-07
1790.0 5.1855e-07
1810.0 5.3019e-07
1830.0 5.4164e-07
1850.0 5.5381e-07
1870.0 5.6568e-07
1890.0 5.7718e-07
1910.0 5.8893e-07
1930.0 6.0098e-07
1950.0 6.1252e-07
1970.0 6.2394e-07
1990.0 6.3582e-07
2010.0 6.4753e-07
2030.0 6.5884e-07
2050.0 6.7053e-07
2070.0 6.8254e-07
2090.0 6.939e-07
2110.0 7.0524e-07
2130.0 7.1695e-07
2150.0 7.2847e-07
2170.0 7.395e-07
2190.0 7.5098e-07
2210.0 7.6254e-07
2230.0 7.7365e-07
2250.0 7.8473e-07
2270.0 7.9633e-07
2290.0 8.0758e-07
2310.0 8.1839e-07
2330.0 8.2964e-07
2350.0 8.412e-07
2370.0 8.527e-07
2390.0 8.6516e-07
2410.0 8.7993e-07
2430.0 8.9691e-07
2450.0 9.172e-07
2470.0 9.4321e-07
2490.0 9.7599e-07
2510.0 1.0132e-06
2530.0 1.0581e-06
2550.0 1.1142e-06
2570.0 1.1841e-06
2590.0 1.2749e-06
2610.0 1.4109e-06
2630.0 1.6051e-06
2650.0 1.859e-06
2670.0 2.1873e-06
2690.0 2.5907e-06
2710.0 3.0214e-06
2730.0 3.4469e-06
2750.0 3.866e-06
2770.0 4.2305e-06
2790.0 4.52e-06
2810.0 4.7498e-06
2830.0 4.9293e-06
2850.0 5.0518e-06
2870.0 5.1417e-06
2890.0 5.2129e-06
2910.0 5.2697e-06
2930.0 5.3162e-06
2950.0 5.3605e-06
2970.0 5.4038e-06
2990.0 5.4445e-06
3010.0 0.00015389
3030.0 0.00015504
3050.0 0.00015615
3070.0 0.00015711
3090.0 0.00015792
3110.0 0.00015843
3130.0 0.00015841
3150.0 0.00015771
3170.0 0.00015602
3190.0 0.00015337
3210.0 0.00015
3230.0 0.00014615
3250.0 0.00014235
3270.0 0.00013957
3290.0 0.00013803
3310.0 0.00013828
3330.0 0.00014028
3350.0 0.00014377
3370.0 0.00014874
3390.0 0.00015502
3410.0 0.00016184
3430.0 0.0001695
3450.0 0.00017832
3470.0 0.00018796
3490.0 0.00019816
3510.0 0.0002097
3530.0 0.00022206
3550.0 0.00023457
3570.0 0.00024762
3590.0 0.00026181
3610.0 0.00027643
3630.0 0.00029101
3650.0 0.00030614
3670.0 0.00031995
3690.0 0.00033027
3710.0 0.00033619
3730.0 0.00033638
3750.0 0.0003317
3770.0 0.00032986
3790.0 0.0003279
3810.0 0.00031984
3830.0 0.00032974
3850.0 0.00036869
3870.0 0.00039007
3890.0 0.00038829
3910.0 0.00038995
3930.0 0.00040021
3950.0 0.00040653
3970.0 0.00037039
3990.0 0.0003187
4010.0 0.00095519
4030.0 0.0011573
4050.0 0.0013268
4070.0 0.0011512
4090.0 0.0010427
4110.0 0.00092006
4130.0 0.00084683
4150.0 0.00090076
4170.0 0.00088729
4190.0 0.00094579
4210.0 0.00093714
4230.0 0.00099124
4250.0 0.0011727
4270.0 0.0011864
4290.0 0.0010933
4310.0 0.001136
4330.0 0.0012084
4350.0 0.0013549
4370.0 0.0015419
4390.0 0.0014469
4410.0 0.001069
4430.0 0.00090498
4450.0 0.00083158
4470.0 0.00063827
4490.0 0.00068877
4510.0 0.0010404
4530.0 0.0011999
4550.0 0.0012103
4570.0 0.0013619
4590.0 0.0015513
4610.0 0.0020924
4630.0 0.0027175
4650.0 0.0029471
4670.0 0.0027293
4690.0 0.0026043
4710.0 0.0027529
4730.0 0.002598
4750.0 0.0019423
4770.0 0.0014248
4790.0 0.0013304
4810.0 0.0012681
4830.0 0.001161
4850.0 0.0012739
4870.0 0.001683
4890.0 0.0019847
4910.0 0.0017414
4930.0 0.0015409
4950.0 0.0016929
4970.0 0.002171
4990.0 0.0029422
5010.0 0.0033846
5030.0 0.0029845
5050.0 0.0020192
5070.0 0.0013307
5090.0 0.001073
5110.0 0.0011035
5130.0 0.0012736
5150.0 0.0013799
5170.0 0.0013592
5190.0 0.0012701
5210.0 0.0013275
5230.0 0.0013955
5250.0 0.001504
5270.0 0.0016227
5290.0 0.0017983
5310.0 0.0020931
5330.0 0.0023163
5350.0 0.0023016
5370.0 0.0024176
5390.0 0.0027742
5410.0 0.0027717
5430.0 0.0024512
5450.0 0.0022521
5470.0 0.0023913
5490.0 0.0029215
5510.0 0.003653
5530.0 0.0041898
5550.0 0.0040495
5570.0 0.0036813
5590.0 0.0032009
5610.0 0.002952
5630.0 0.0028625
5650.0 0.0027263
5670.0 0.0025834
5690.0 0.0023095
5710.0 0.0022519
5730.0 0.0020743
5750.0 0.0014625
5770.0 0.001141
5790.0 0.001293
5810.0 0.00146
5830.0 0.0017917
5850.0 0.0021328
5870.0 0.0023664
5890.0 0.0024065
5910.0 0.0023609
5930.0 0.0022473
5950.0 0.00229
5970.0 0.0026103
5990.0 0.0024544
6010.0 0.0020575
6030.0 0.0017383
6050.0 0.0015139
6070.0 0.0015056
6090.0 0.0016325
6110.0 0.0018255
6130.0 0.0018534
6150.0 0.0015947
6170.0 0.0014028
6190.0 0.0015787
6210.0 0.002087
6230.0 0.0027388
6250.0 0.0029664
6270.0 0.0025923
6290.0 0.002181
6310.0 0.0017027
6330.0 0.0013046
6350.0 0.0011636
6370.0 0.0012237
6390.0 0.0014147
6410.0 0.0017443
6430.0 0.0020369
6450.0 0.0023307
6470.0 0.0026688
6490.0 0.0032237
6510.0 0.0036045
6530.0 0.0035362
6550.0 0.0031977
6570.0 0.0027146
6590.0 0.0024478
6610.0 0.0021106
6630.0 0.0019121
6650.0 0.0018075
6670.0 0.001756
6690.0 0.0015866
6710.0 0.0014423
6730.0 0.0010388
6750.0 0.0010299
6770.0 0.0011194
6790.0 0.0012867
6810.0 0.0011774
6830.0 0.0012123
6850.0 0.0011339
6870.0 0.0010358
6890.0 0.00099457
6910.0 0.0010598
6930.0 0.00099269
6950.0 0.0010213
6970.0 0.0010742
6990.0 0.0012193
7010.0 0.0012297
7030.0 0.0012493
7050.0 0.0011914
7070.0 0.0011352
7090.0 0.0011385
7110.0 0.0011714
7130.0 0.0012606
7150.0 0.0013389
7170.0 0.0014774
7190.0 0.0016241
7210.0 0.0015958
7230.0 0.0016406
7250.0 0.001763
7270.0 0.0019213
7290.0 0.0022804
7310.0 0.0024744
7330.0 0.0023917
7350.0 0.0021632
7370.0 0.0018822
7390.0 0.0018259
7410.0 0.0019404
7430.0 0.0021565
7450.0 0.0023488
7470.0 0.0023273
7490.0 0.002122
7510.0 0.0024037
7530.0 0.0023774
7550.0 0.0021368
7570.0 0.0016693
7590.0 0.0011476
7610.0 0.00098496
7630.0 0.0011191
7650.0 0.0013232
7670.0 0.0016468
7690.0 0.0018122
7710.0 0.0018885
7730.0 0.0019846
7750.0 0.0022279
7770.0 0.0022629
7790.0 0.0020786
7810.0 0.0018966
7830.0 0.0019558
7850.0 0.0019012
7870.0 0.0017431
7890.0 0.0014646
7910.0 0.0011905
7930.0 0.0011367
7950.0 0.0010356
7970.0 0.00095863
7990.0 0.00095316
8010.0 7.0593e-05
8030.0 6.9676e-05
8050.0 6.8736e-05
8070.0 6.9636e-05
8090.0 7.4822e-05
8110.0 7.3547e-05
8130.0 6.0667e-05
8150.0 5.9083e-05
8170.0 5.0891e-05
8190.0 4.823e-05
8210.0 6.2632e-05
8230.0 6.9732e-05
8250.0 6.2849e-05
8270.0 5.4701e-05
8290.0 5.3324e-05
8310.0 4.104e-05
8330.0 2.7661e-05
8350.0 1.9631e-05
8370.0 1.2368e-05
8390.0 2.2609e-05
8410.0 2.6345e-05
8430.0 3.2475e-05
8450.0 3.8134e-05
8470.0 4.7398e-05
8490.0 4.7064e-05
8510.0 4.6294e-05
8530.0 4.8315e-05
8550.0 6.5186e-05
8570.0 7.7171e-05
8590.0 8.3267e-05
8610.0 0.00010518
8630.0 0.00012671
8650.0 0.00013255
8670.0 0.00014086
8690.0 0.00014165
8710.0 0.00012828
8730.0 0.00011932
8750.0 0.00010533
8770.0 9.9939e-05
8790.0 9.8184e-05
8810.0 9.4082e-05
8830.0 7.5233e-05
8850.0 5.5076e-05
8870.0 4.2171e-05
8890.0 4.1229e-05
8910.0 4.7249e-05
8930.0 5.3742e-05
8950.0 5.4771e-05
8970.0 5.503e-05
8990.0 4.908e-05
9010.0 0.00051434
9030.0 0.00046605
9050.0 0.0004683
9070.0 0.000472
9090.0 0.00047524
9110.0 0.00047924
9130.0 0.00048233
9150.0 0.00048474
9170.0 0.00048729
9190.0 0.00049003
9210.0 0.00049291
9230.0 0.00049594
9250.0 0.00049903
9270.0 0.00050223
9290.0 0.00050553
9310.0 0.00050885
9330.0 0.00051223
9350.0 0.00051575
9370.0 0.0005193
9390.0 0.00052288
9410.0 0.00052658
9430.0 0.00053038
9450.0 0.00053417
9470.0 0.00053803
9490.0 0.00054201
9510.0 0.00054604
9530.0 0.00055008
9550.0 0.00055427
9570.0 0.00055852
9590.0 0.00056279
9610.0 0.00056714
9630.0 0.0005716
9650.0 0.0005761
9670.0 0.0005806
9690.0 0.00058523
9710.0 0.00058993
9730.0 0.00059464
9750.0 0.00059942
9770.0 0.00060434
9790.0 0.00060925
9810.0 0.00061419
9830.0 0.00061923
9850.0 0.00062434
9870.0 0.00062943
9890.0 0.0006346
9910.0 0.00063987
9930.0 0.00064514
9950.0 0.00065043
9970.0 0.00065583
9990.0 0.00066128
10010.0 0.00057381
10030.0 0.00057852
10050.0 0.00058333
10070.0 0.0005883
10090.0 0.00059299
10110.0 0.00059779
10130.0 0.00060261
10150.0 0.00060741
10170.0 0.00061228
10190.0 0.00061723
10210.0 0.00062211
10230.0 0.00062699
10250.0 0.00063195
10270.0 0.00063689
10290.0 0.00064178
10310.0 0.00064673
10330.0 0.00065173
10350.0 0.00065664
10370.0 0.00066154
10390.0 0.0006665
10410.0 0.00067143
10430.0 0.00067626
10450.0 0.00068115
10470.0 0.00068604
10490.0 0.00069086
10510.0 0.00069564
10530.0 0.00070049
10550.0 0.00070527
10570.0 0.00070995
10590.0 0.00071466
10610.0 0.00071936
10630.0 0.00072394
10650.0 0.00072849
10670.0 0.00073308
10690.0 0.00073758
10710.0 0.00074199
10730.0 0.0007464
10750.0 0.00075083
10770.0 0.00075507
10790.0 0.00075928
10810.0 0.00076348
10830.0 0.00076755
10850.0 0.00077142
10870.0 0.00077517
10890.0 0.00077846
10910.0 0.000781
10930.0 0.00078244
10950.0 0.0007821
10970.0 0.00077945
10990.0 0.00077425
11010.0 0.00076556
11030.0 0.00075338
11050.0 0.00073854
11070.0 0.00072079
11090.0 0.00069946
11110.0 0.0006774
11130.0 0.00065439
11150.0 0.00062962
11170.0 0.00060408
11190.0 0.00057931
11210.0 0.00055373
11230.0 0.0005275
11250.0 0.00050243
11270.0 0.00047836
11290.0 0.00045424
11310.0 0.0004314
11330.0 0.00041128
11350.0 0.00039228
11370.0 0.00037471
11390.0 0.00035952
11410.0 0.00034623
11430.0 0.00033388
11450.0 0.00032323
11470.0 0.00031403
11490.0 0.00030547
11510.0 0.00029722
11530.0 0.00028956
11550.0 0.00028196
11570.0 0.00027384
11590.0 0.00026544
11610.0 0.00025689
11630.0 0.00024758
11650.0 0.00023761
11670.0 0.00022779
11690.0 0.00021783
11710.0 0.00020755
11730.0 0.00019759
11750.0 0.00018838
11770.0 0.00017934
11790.0 0.00017087
11810.0 0.00016342
11830.0 0.00015675
11850.0 0.00015061
11870.0 0.00014547
11890.0 0.0001412
11910.0 0.00013745
11930.0 0.00013422
11950.0 0.00013154
11970.0 0.00012914
11990.0 0.00012687
12010.0 0.00012477
12030.0 0.00012275
12050.0 0.00012066
12070.0 0.00011848
12090.0 0.00011639
12110.0 0.00011426
12130.0 0.00011213
12150.0 0.00011016
12170.0 0.00010844
12190.0 0.00010696
12210.0 0.00010592
12230.0 0.00010542
12250.0 0.0001055
12270.0 0.0001063
12290.0 0.0001078
12310.0 0.00010996
12330.0 0.00011298
12350.0 0.00011674
12370.0 0.00012103
12390.0 0.00012598
12410.0 0.00013177
12430.0 0.00013766
12450.0 0.00014376
12470.0 0.00015024
12490.0 0.00015675
12510.0 0.00016286
12530.0 0.00016894
12550.0 0.00017481
12570.0 0.00017998
12590.0 0.00018453
12610.0 0.00018858
12630.0 0.0001918
12650.0 0.00019403
12670.0 0.0001955
12690.0 0.00019608
12710.0 0.00019576
12730.0 0.00019462
12750.0 0.0001926
12770.0 0.00018982
12790.0 0.00018645
12810.0 0.00018243
12830.0 0.00017777
12850.0 0.00017291
12870.0 0.00016776
12890.0 0.00016219
12910.0 0.00015653
12930.0 0.00015095
12950.0 0.00014513
12970.0 0.0001392
12990.0 0.00013359
13010.0 0.00012806
13030.0 0.00012246
13050.0 0.00011708
13070.0 0.00011204
13090.0 0.00010699
13110.0 0.00010209
13130.0 9.7585e-05
13150.0 9.3314e-05
13170.0 8.9133e-05
13190.0 8.5412e-05
13210.0 8.2137e-05
13230.0 7.9144e-05
13250.0 7.6566e-05
13270.0 7.4533e-05
13290.0 7.2951e-05
13310.0 7.1862e-05
13330.0 7.1366e-05
13350.0 7.1424e-05
13370.0 7.2064e-05
13390.0 7.3323e-05
13410.0 7.5023e-05
13430.0 7.7234e-05
13450.0 7.9965e-05
13470.0 8.2997e-05
13490.0 8.6207e-05
13510.0 8.9829e-05
13530.0 9.3499e-05
13550.0 9.7013e-05
13570.0 0.00010048
13590.0 0.00010385
13610.0 0.00010686
13630.0 0.00010948
13650.0 0.00011188
13670.0 0.00011386
13690.0 0.0001154
13710.0 0.00011659
13730.0 0.00011744
13750.0 0.00011786
13770.0 0.00011796
13790.0 0.00011774
13810.0 0.00011722
13830.0 0.00011646
13850.0 0.00011542
13870.0 0.0001141
13890.0 0.0001126
13910.0 0.00011091
13930.0 0.00010895
13950.0 0.00010682
13970.0 0.00010463
13990.0 0.00010225
14010.0 9.9719e-05
14030.0 9.7195e-05
14050.0 9.465e-05
14070.0 9.1965e-05
14090.0 8.9391e-05
14110.0 8.6972e-05
14130.0 8.4628e-05
14150.0 8.2421e-05
14170.0 8.0538e-05
14190.0 7.8909e-05
14210.0 7.7527e-05
14230.0 7.6504e-05
14250.0 7.5843e-05
14270.0 7.5523e-05
14290.0 7.5591e-05
14310.0 7.6012e-05
14330.0 7.6768e-05
14350.0 7.7882e-05
14370.0 7.9269e-05
14390.0 8.0845e-05
14410.0 8.27e-05
14430.0 8.4738e-05
14450.0 8.6818e-05
14470.0 8.8977e-05
14490.0 9.1273e-05
14510.0 9.3468e-05
14530.0 9.5554e-05
14550.0 9.7638e-05
14570.0 9.9639e-05
14590.0 0.00010146
14610.0 0.00010322
14630.0 0.00010497
14650.0 0.00010659
14670.0 0.00010816
14690.0 0.00010979
14710.0 0.00011151
14730.0 0.00011323
14750.0 0.00011513
14770.0 0.00011729
14790.0 0.00011964
14810.0 0.00012217
14830.0 0.00012518
14850.0 0.00012845
14870.0 0.00013186
14890.0 0.00013554
14910.0 0.00013944
14930.0 0.0001432
14950.0 0.00014671
14970.0 0.00015003
14990.0 0.00015282
15010.0 0.00015495
15030.0 0.00015653
15050.0 0.00015757
15070.0 0.00015808
15090.0 0.00015826
15110.0 0.00015821
15130.0 0.00015801
15150.0 0.00015774
15170.0 0.00015742
15190.0 0.00015708
15210.0 0.00015675
15230.0 0.00015642
15250.0 0.00015607
15270.0 0.00015573
15290.0 0.00015541
15310.0 0.00015508
15330.0 0.00015474
15350.0 0.00015442
15370.0 0.0001541
15390.0 0.00015376
15410.0 0.00015344
15430.0 0.00015312
15450.0 0.0001528
15470.0 0.00015247
15490.0 0.00015216
15510.0 0.00015185
15530.0 0.00015153
15550.0 0.00015122
15570.0 0.00015091
15590.0 0.0001506
15610.0 0.00015028
15630.0 0.00014998
15650.0 0.00014967
15670.0 0.00014936
15690.0 0.00014905
15710.0 0.00014876
15730.0 0.00014845
15750.0 0.00014814
15770.0 0.00014785
15790.0 0.00014755
15810.0 0.00014723
15830.0 0.00014693
15850.0 0.00014664
15870.0 0.00014634
15890.0 0.00014604
15910.0 0.00014575
15930.0 0.00014546
15950.0 0.00014515
15970.0 0.00014485
15990.0 0.00014457
16010.0 0.00014426
16030.0 0.00014396
16050.0 0.00014368
16070.0 0.00014338
16090.0 0.00014308
16110.0 0.00014279
16130.0 0.00014251
16150.0 0.0001422
16170.0 0.0001419
16190.0 0.00014162
16210.0 0.00014132
16230.0 0.00014102
16250.0 0.00014073
16270.0 0.00014045
16290.0 0.00014014
16310.0 0.00013985
16330.0 0.00013956
16350.0 0.00013927
16370.0 0.00013896
16390.0 0.00013867
16410.0 0.00013838
16430.0 0.00013808
16450.0 0.00013778
16470.0 0.00013749
16490.0 0.00013719
16510.0 0.00013689
16530.0 0.0001366
16550.0 0.0001363
16570.0 0.00013599
16590.0 0.00013569
16610.0 0.0001354
16630.0 0.0001351
16650.0 0.0001348
16670.0 0.0001345
16690.0 0.00013421
16710.0 0.00013389
16730.0 0.00013359
16750.0 0.00013329
16770.0 0.00013298
16790.0 0.00013267
16810.0 0.00013237
16830.0 0.00013207
16850.0 0.00013176
16870.0 0.00013145
16890.0 0.00013115
16910.0 0.00013084
16930.0 0.00013052
16950.0 0.00013022
16970.0 0.00012991
16990.0 0.00012959
17010.0 0.00012928
17030.0 0.00012897
17050.0 0.00012865
17070.0 0.00012833
17090.0 0.00012803
17110.0 0.00012771
17130.0 0.00012738
17150.0 0.00012706
17170.0 0.00012675
17190.0 0.00012643
17210.0 0.00012611
17230.0 0.0001258
17250.0 0.00012547
17270.0 0.00012514
17290.0 0.00012482
17310.0 0.0001245
17330.0 0.00012417
17350.0 0.00012383
17370.0 0.00012352
17390.0 0.00012319
17410.0 0.00012286
17430.0 0.00012253
17450.0 0.00012221
17470.0 0.00012187
17490.0 0.00012153
17510.0 0.0001212
17530.0 0.00012087
17550.0 0.00012053
17570.0 0.0001202
17590.0 0.00011987
17610.0 0.00011953
17630.0 0.00011919
17650.0 0.00011886
17670.0 0.00011852
17690.0 0.00011816
17710.0 0.00011783
17730.0 0.00011749
17750.0 0.00011714
17770.0 0.0001168
17790.0 0.00011647
17810.0 0.00011612
17830.0 0.00011577
17850.0 0.00011542
17870.0 0.00011508
17890.0 0.00011473
17910.0 0.00011437
17930.0 0.00011404
17950.0 0.00011369
17970.0 0.00011333
17990.0 0.00011299
18010.0 0.00011264
18030.0 0.00011228
18050.0 0.00011192
18070.0 0.00011158
18090.0 0.00011122
18110.0 0.00011086
18130.0 0.00011051
18150.0 0.00011016
18170.0 0.0001098
18190.0 0.00010945
18210.0 0.0001091
18230.0 0.00010873
18250.0 0.00010837
18270.0 0.00010802
18290.0 0.00010766
18310.0 0.00010729
18330.0 0.00010694
18350.0 0.00010659
18370.0 0.00010622
18390.0 0.00010585
18410.0 0.0001055
18430.0 0.00010514
18450.0 0.00010476
18470.0 0.0001044
18490.0 0.00010405
18510.0 0.00010368
18530.0 0.00010332
18550.0 0.00010296
18570.0 0.0001026
18590.0 0.00010222
18610.0 0.00010186
18630.0 0.0001015
18650.0 0.00010113
18670.0 0.00010076
18690.0 0.0001004
18710.0 0.00010004
18730.0 9.9666e-05
18750.0 9.9304e-05
18770.0 9.8946e-05
18790.0 9.8566e-05
18810.0 9.8195e-05
18830.0 9.7837e-05
18850.0 9.7469e-05
18870.0 9.7093e-05
18890.0 9.6732e-05
18910.0 9.6372e-05
18930.0 9.5996e-05
18950.0 9.5626e-05
18970.0 9.5266e-05
18990.0 9.4897e-05
19010.0 9.4513e-05
19030.0 9.4154e-05
19050.0 9.3791e-05
19070.0 9.3416e-05
19090.0 9.3047e-05
19110.0 9.2691e-05
19130.0 9.2316e-05
19150.0 9.194e-05
19170.0 9.1577e-05
19190.0 9.1212e-05
19210.0 9.0834e-05
19230.0 9.0463e-05
19250.0 9.0106e-05
19270.0 8.9735e-05
19290.0 8.9361e-05
19310.0 8.9e-05
19330.0 8.8637e-05
19350.0 8.8255e-05
19370.0 8.7887e-05
19390.0 8.7527e-05
19410.0 8.7155e-05
19430.0 8.678e-05
19450.0 8.6421e-05
19470.0 8.6057e-05
19490.0 8.5682e-05
19510.0 8.5316e-05
19530.0 8.4957e-05
19550.0 8.4582e-05
19570.0 8.4206e-05
19590.0 8.3848e-05
19610.0 8.3483e-05
19630.0 8.3109e-05
19650.0 8.2746e-05
19670.0 8.2389e-05
19690.0 8.2016e-05
19710.0 8.1645e-05
19730.0 8.1287e-05
19750.0 8.0922e-05
19770.0 8.0544e-05
19790.0 8.0182e-05
19810.0 7.9825e-05
19830.0 7.9453e-05
19850.0 7.908e-05
19870.0 7.8714e-05
19890.0 7.8321e-05
19910.0 7.7889e-05
19930.0 7.7427e-05
19950.0 7.6898e-05
19970.0 7.6247e-05
19990.0 7.5464e-05
20010.0 6.714e-05
20030.0 6.6168e-05
20050.0 6.5031e-05
20070.0 6.3799e-05
20090.0 6.2473e-05
20110.0 6.0973e-05
20130.0 5.9456e-05
20150.0 5.7951e-05
20170.0 5.6392e-05
20190.0 5.481e-05
20210.0 5.3316e-05
20230.0 5.1858e-05
20250.0 5.0398e-05
20270.0 4.9042e-05
20290.0 4.7805e-05
20310.0 4.6629e-05
20330.0 4.553e-05
20350.0 4.4618e-05
20370.0 4.3808e-05
20390.0 4.3098e-05
20410.0 4.2524e-05
20430.0 4.2082e-05
20450.0 4.1732e-05
20470.0 4.1497e-05
20490.0 4.1371e-05
20510.0 4.1335e-05
20530.0 4.1386e-05
20550.0 4.1514e-05
20570.0 4.17e-05
20590.0 4.1951e-05
20610.0 4.2256e-05
20630.0 4.2592e-05
20650.0 4.2967e-05
20670.0 4.3396e-05
20690.0 4.3834e-05
20710.0 4.4287e-05
20730.0 4.4775e-05
20750.0 4.5284e-05
20770.0 4.5785e-05
20790.0 4.6312e-05
20810.0 4.6868e-05
20830.0 4.7422e-05
20850.0 4.7978e-05
20870.0 4.8574e-05
20890.0 4.9181e-05
20910.0 4.9767e-05
20930.0 5.0375e-05
20950.0 5.1005e-05
20970.0 5.1619e-05
20990.0 5.2225e-05
21010.0 5.2863e-05
21030.0 5.3486e-05
21050.0 5.408e-05
21070.0 5.4673e-05
21090.0 5.5269e-05
21110.0 5.5812e-05
21130.0 5.6322e-05
21150.0 5.6816e-05
21170.0 5.7263e-05
21190.0 5.7648e-05
21210.0 5.7995e-05
21230.0 5.8283e-05
21250.0 5.8488e-05
21270.0 5.8618e-05
21290.0 5.8667e-05
21310.0 5.862e-05
21330.0 5.8482e-05
21350.0 5.8239e-05
21370.0 5.7882e-05
21390.0 5.7429e-05
21410.0 5.6874e-05
21430.0 5.6171e-05
21450.0 5.5382e-05
21470.0 5.4523e-05
21490.0 5.3551e-05
21510.0 5.2485e-05
21530.0 5.1402e-05
21550.0 5.0267e-05
21570.0 4.9057e-05
21590.0 4.7867e-05
21610.0 4.6717e-05
21630.0 4.5566e-05
21650.0 4.4441e-05
21670.0 4.3466e-05
21690.0 4.2567e-05
21710.0 4.1757e-05
21730.0 4.1094e-05
21750.0 4.0582e-05
21770.0 4.0192e-05
21790.0 3.9968e-05
21810.0 3.9906e-05
21830.0 3.9994e-05
21850.0 4.0244e-05
21870.0 4.0634e-05
21890.0 4.1138e-05
21910.0 4.1784e-05
21930.0 4.2542e-05
21950.0 4.3362e-05
21970.0 4.4272e-05
21990.0 4.5292e-05
22010.0 4.6312e-05
22030.0 4.7348e-05
22050.0 4.8436e-05
22070.0 4.953e-05
22090.0 5.0565e-05
22110.0 5.161e-05
22130.0 5.2652e-05
22150.0 5.3626e-05
22170.0 5.4544e-05
22190.0 5.5453e-05
22210.0 5.63e-05
22230.0 5.7045e-05
22250.0 5.7746e-05
22270.0 5.8392e-05
22290.0 5.8944e-05
22310.0 5.9418e-05
22330.0 5.9835e-05
22350.0 6.0158e-05
22370.0 6.0385e-05
22390.0 6.0528e-05
22410.0 6.0573e-05
22430.0 6.0515e-05
22450.0 6.0359e-05
22470.0 6.009e-05
22490.0 5.9711e-05
22510.0 5.924e-05
22530.0 5.8636e-05
22550.0 5.7902e-05
22570.0 5.7088e-05
22590.0 5.617e-05
22610.0 5.5114e-05
22630.0 5.397e-05
22650.0 5.2789e-05
22670.0 5.1482e-05
22690.0 5.0087e-05
22710.0 4.8679e-05
22730.0 4.7229e-05
22750.0 4.5656e-05
22770.0 4.412e-05
22790.0 4.2619e-05
22810.0 4.1079e-05
