#lamb flux
1010.0 2.4538e-05
1030.0 2.5647e-05
1050.0 2.6929e-05
1070.0 2.8375e-05
1090.0 3.0017e-05
1110.0 3.1706e-05
1130.0 3.3411e-05
1150.0 3.5203e-05
1170.0 3.7057e-05
1190.0 3.8824e-05
1210.0 4.0622e-05
1230.0 4.2487e-05
1250.0 4.4325e-05
1270.0 4.612e-05
1290.0 4.8024e-05
1310.0 4.9938e-05
1330.0 5.1788e-05
1350.0 5.3669e-05
1370.0 5.5622e-05
1390.0 5.7541e-05
1410.0 5.942e-05
1430.0 6.1392e-05
1450.0 6.3379e-05
1470.0 6.5317e-05
1490.0 6.7288e-05
1510.0 6.9376e-05
1530.0 7.1374e-05
1550.0 7.3359e-05
1570.0 7.5418e-05
1590.0 7.7487e-05
1610.0 7.9479e-05
1630.0 8.1533e-05
1650.0 8.3639e-05
1670.0 8.5684e-05
1690.0 8.7703e-05
1710.0 8.979e-05
1730.0 9.1881e-05
1750.0 9.3847e-05
1770.0 9.5854e-05
1790.0 9.7884e-05
1810.0 9.9836e-05
1830.0 0.00010173
1850.0 0.00010372
1870.0 0.00010564
1890.0 0.00010747
1910.0 0.0001093
1930.0 0.00011116
1950.0 0.0001129
1970.0 0.00011459
1990.0 0.00011633
2010.0 0.00011802
2030.0 0.00011962
2050.0 0.00012126
2070.0 0.00012294
2090.0 0.00012451
2110.0 0.00012607
2130.0 0.0001277
2150.0 0.00012931
2170.0 0.00013087
2190.0 0.00013253
2210.0 0.00013424
2230.0 0.00013593
2250.0 0.00013768
2270.0 0.00013957
2290.0 0.0001415
2310.0 0.00014344
2330.0 0.00014555
2350.0 0.00014778
2370.0 0.00015006
2390.0 0.0001525
2410.0 0.00015517
2430.0 0.00015793
2450.0 0.00016078
2470.0 0.00016379
2490.0 0.00016687
2510.0 0.00016991
2530.0 0.00017313
2550.0 0.00017698
2570.0 0.00018208
2590.0 0.00018936
2610.0 0.00020085
2630.0 0.00021782
2650.0 0.00024027
2670.0 0.00026911
2690.0 0.00030434
2710.0 0.00034252
2730.0 0.00038167
2750.0 0.0004225
2770.0 0.00046218
2790.0 0.0004995
2810.0 0.00053622
2830.0 0.00057392
2850.0 0.00061051
2870.0 0.00064786
2890.0 0.0006875
2910.0 0.00072867
2930.0 0.00077018
2950.0 0.00081422
2970.0 0.00086046
2990.0 0.00090711
3010.0 0.0016865
3030.0 0.0017746
3050.0 0.0018634
3070.0 0.0019469
3090.0 0.0020249
3110.0 0.0020859
3130.0 0.0021149
3150.0 0.0020963
3170.0 0.0019993
3190.0 0.001815
3210.0 0.0015436
3230.0 0.0012287
3250.0 0.0014619
3270.0 0.0009016
3290.0 0.0015377
3310.0 0.00068049
3330.0 0.00072826
3350.0 0.00089225
3370.0 0.0010716
3390.0 0.0012583
3410.0 0.0014441
3430.0 0.001636
3450.0 0.0018268
3470.0 0.0020043
3490.0 0.0021255
3510.0 0.0024568
3530.0 0.003113
3550.0 0.0033452
3570.0 0.0033361
3590.0 0.0043874
3610.0 0.0036359
3630.0 0.0045816
3650.0 0.0047928
3670.0 0.0056632
3690.0 0.0058074
3710.0 0.0052101
3730.0 0.0063918
3750.0 0.0066612
3770.0 0.0067702
3790.0 0.0062667
3810.0 0.0054339
3830.0 0.0058908
3850.0 0.0056071
3870.0 0.0065729
3890.0 0.0067216
3910.0 0.0070114
3930.0 0.0079761
3950.0 0.008859
3970.0 0.011008
3990.0 0.010338
4010.0 0.0087156
4030.0 0.0096922
4050.0 0.0094096
4070.0 0.0098471
4090.0 0.0093392
4110.0 0.0077336
4130.0 0.0089127
4150.0 0.0083216
4170.0 0.008651
4190.0 0.0086174
4210.0 0.0097684
4230.0 0.0080931
4250.0 0.0092028
4270.0 0.0091917
4290.0 0.0093163
4310.0 0.010509
4330.0 0.010936
4350.0 0.0097895
4370.0 0.0091834
4390.0 0.0096152
4410.0 0.0090421
4430.0 0.0073241
4450.0 0.0070975
4470.0 0.0076795
4490.0 0.0067027
4510.0 0.0077128
4530.0 0.0084409
4550.0 0.010665
4570.0 0.014706
4590.0 0.016105
4610.0 0.014429
4630.0 0.018571
4650.0 0.022937
4670.0 0.022153
4690.0 0.016868
4710.0 0.016548
4730.0 0.017391
4750.0 0.014991
4770.0 0.01201
4790.0 0.0096311
4810.0 0.011917
4830.0 0.013437
4850.0 0.013643
4870.0 0.0095683
4890.0 0.014748
4910.0 0.017582
4930.0 0.018975
4950.0 0.020446
4970.0 0.017748
4990.0 0.019216
5010.0 0.019291
5030.0 0.018023
5050.0 0.016147
5070.0 0.012284
5090.0 0.010611
5110.0 0.010163
5130.0 0.00953
5150.0 0.010458
5170.0 0.0096584
5190.0 0.010954
5210.0 0.011014
5230.0 0.011874
5250.0 0.014468
5270.0 0.014093
5290.0 0.014584
5310.0 0.018194
5330.0 0.020237
5350.0 0.01901
5370.0 0.01793
5390.0 0.018484
5410.0 0.020199
5430.0 0.021276
5450.0 0.023258
5470.0 0.025319
5490.0 0.026897
5510.0 0.030402
5530.0 0.031194
5550.0 0.031811
5570.0 0.032042
5590.0 0.031349
5610.0 0.0303
5630.0 0.029666
5650.0 0.029802
5670.0 0.029341
5690.0 0.026216
5710.0 0.024253
5730.0 0.022783
5750.0 0.022889
5770.0 0.020672
5790.0 0.01989
5810.0 0.020461
5830.0 0.021131
5850.0 0.019836
5870.0 0.0192
5890.0 0.020441
5910.0 0.019597
5930.0 0.017597
5950.0 0.016197
5970.0 0.016104
5990.0 0.014414
6010.0 0.012978
6030.0 0.012566
6050.0 0.012002
6070.0 0.010424
6090.0 0.0099346
6110.0 0.011178
6130.0 0.012027
6150.0 0.012723
6170.0 0.013279
6190.0 0.013664
6210.0 0.013882
6230.0 0.014778
6250.0 0.013628
6270.0 0.01224
6290.0 0.010842
6310.0 0.0098679
6330.0 0.0092662
6350.0 0.0085618
6370.0 0.0087554
6390.0 0.010082
6410.0 0.012152
6430.0 0.0142
6450.0 0.014792
6470.0 0.015444
6490.0 0.017616
6510.0 0.018948
6530.0 0.018417
6550.0 0.018191
6570.0 0.018421
6590.0 0.018009
6610.0 0.018805
6630.0 0.018146
6650.0 0.016969
6670.0 0.015678
6690.0 0.014647
6710.0 0.015663
6730.0 0.014674
6750.0 0.013783
6770.0 0.013417
6790.0 0.013939
6810.0 0.014628
6830.0 0.014296
6850.0 0.013443
6870.0 0.013363
6890.0 0.01288
6910.0 0.01223
6930.0 0.013199
6950.0 0.012858
6970.0 0.012819
6990.0 0.013119
7010.0 0.012772
7030.0 0.011988
7050.0 0.011058
7070.0 0.010687
7090.0 0.0097797
7110.0 0.0088381
7130.0 0.0078475
7150.0 0.0073729
7170.0 0.0084938
7190.0 0.008965
7210.0 0.0091077
7230.0 0.0098173
7250.0 0.0098946
7270.0 0.0098386
7290.0 0.010171
7310.0 0.010374
7330.0 0.0099333
7350.0 0.0094811
7370.0 0.0093635
7390.0 0.0098798
7410.0 0.011193
7430.0 0.012339
7450.0 0.013576
7470.0 0.014106
7490.0 0.014462
7510.0 0.013868
7530.0 0.013382
7550.0 0.012442
7570.0 0.010834
7590.0 0.010443
7610.0 0.010374
7630.0 0.010461
7650.0 0.011769
7670.0 0.013043
7690.0 0.014279
7710.0 0.015646
7730.0 0.016699
7750.0 0.017537
7770.0 0.017731
7790.0 0.018841
7810.0 0.019456
7830.0 0.018885
7850.0 0.019051
7870.0 0.01832
7890.0 0.018446
7910.0 0.017508
7930.0 0.017396
7950.0 0.016282
7970.0 0.016625
7990.0 0.01628
8010.0 0.016041
8030.0 0.016086
8050.0 0.016737
8070.0 0.016381
8090.0 0.016458
8110.0 0.015975
8130.0 0.015971
8150.0 0.015466
8170.0 0.015076
8190.0 0.014924
8210.0 0.015079
8230.0 0.013825
8250.0 0.012817
8270.0 0.011227
8290.0 0.0091993
8310.0 0.007516
8330.0 0.0059156
8350.0 0.0051069
8370.0 0.0055078
8390.0 0.0060132
8410.0 0.0065622
8430.0 0.0076631
8450.0 0.0081551
8470.0 0.0085792
8490.0 0.0096732
8510.0 0.010663
8530.0 0.012379
8550.0 0.01465
8570.0 0.016576
8590.0 0.018087
8610.0 0.019655
8630.0 0.021165
8650.0 0.021485
8670.0 0.021664
8690.0 0.022464
8710.0 0.022562
8730.0 0.022736
8750.0 0.021986
8770.0 0.022057
8790.0 0.021784
8810.0 0.020256
8830.0 0.02003
8850.0 0.018957
8870.0 0.018246
8890.0 0.017124
8910.0 0.017933
8930.0 0.016709
8950.0 0.016296
8970.0 0.016213
8990.0 0.015776
9010.0 0.015794
9030.0 0.015285
9050.0 0.015198
9070.0 0.015166
9090.0 0.015133
9110.0 0.015103
9130.0 0.015066
9150.0 0.015026
9170.0 0.014958
9190.0 0.014848
9210.0 0.014965
9230.0 0.014886
9250.0 0.014825
9270.0 0.014767
9290.0 0.01471
9310.0 0.014655
9330.0 0.0146
9350.0 0.014544
9370.0 0.014488
9390.0 0.014431
9410.0 0.014373
9430.0 0.014313
9450.0 0.01425
9470.0 0.014188
9490.0 0.014128
9510.0 0.014067
9530.0 0.014005
9550.0 0.013941
9570.0 0.013877
9590.0 0.013812
9610.0 0.013747
9630.0 0.013681
9650.0 0.013615
9670.0 0.013548
9690.0 0.013482
9710.0 0.013415
9730.0 0.013348
9750.0 0.013281
9770.0 0.013214
9790.0 0.013147
9810.0 0.01308
9830.0 0.013013
9850.0 0.012946
9870.0 0.01288
9890.0 0.012813
9910.0 0.012747
9930.0 0.01268
9950.0 0.012558
9970.0 0.012509
9990.0 0.012458
10010.0 0.012405
10030.0 0.012348
10050.0 0.012286
10070.0 0.012217
10090.0 0.01216
10110.0 0.012099
10130.0 0.01204
10150.0 0.011981
10170.0 0.01192
10190.0 0.011858
10210.0 0.011799
10230.0 0.011741
10250.0 0.011681
10270.0 0.011622
10290.0 0.011567
10310.0 0.011509
10330.0 0.01145
10350.0 0.011395
10370.0 0.011341
10390.0 0.011285
10410.0 0.01123
10430.0 0.011178
10450.0 0.011125
10470.0 0.011071
10490.0 0.01102
10510.0 0.010969
10530.0 0.010916
10550.0 0.010865
10570.0 0.010816
10590.0 0.010767
10610.0 0.010717
10630.0 0.010669
10650.0 0.010623
10670.0 0.010573
10690.0 0.010526
10710.0 0.010481
10730.0 0.010434
10750.0 0.010386
10770.0 0.010342
10790.0 0.010298
10810.0 0.010253
10830.0 0.010208
10850.0 0.010166
10870.0 0.010119
10890.0 0.01007
10910.0 0.010021
10930.0 0.0099642
10950.0 0.0098951
10970.0 0.0098146
10990.0 0.0097224
11010.0 0.0092094
11030.0 0.0090884
11050.0 0.0089569
11070.0 0.0088114
11090.0 0.0086463
11110.0 0.0084848
11130.0 0.0083236
11150.0 0.0081561
11170.0 0.0079896
11190.0 0.0078339
11210.0 0.007677
11230.0 0.007519
11250.0 0.0073713
11270.0 0.0072312
11290.0 0.0070904
11310.0 0.0069562
11330.0 0.0068378
11350.0 0.006723
11370.0 0.0066128
11390.0 0.0065138
11410.0 0.0064229
11430.0 0.006331
11450.0 0.0062457
11470.0 0.0061665
11490.0 0.0060864
11510.0 0.0060026
11530.0 0.0059218
11550.0 0.0058389
11570.0 0.0057474
11590.0 0.005652
11610.0 0.0055553
11630.0 0.0054485
11650.0 0.0053324
11670.0 0.005218
11690.0 0.0051
11710.0 0.0049743
11730.0 0.004849
11750.0 0.0047299
11770.0 0.0046069
11790.0 0.0044852
11810.0 0.0043725
11830.0 0.0042651
11850.0 0.0041571
11870.0 0.0040596
11890.0 0.0039725
11910.0 0.0038882
11930.0 0.0038091
11950.0 0.0037395
11970.0 0.0036742
11990.0 0.0036099
12010.0 0.003552
12030.0 0.0034992
12050.0 0.0034473
12070.0 0.0033968
12090.0 0.0033531
12110.0 0.0033109
12130.0 0.0032698
12150.0 0.0032332
12170.0 0.0032016
12190.0 0.0031712
12210.0 0.0031464
12230.0 0.003129
12250.0 0.0031178
12270.0 0.0031137
12290.0 0.003119
12310.0 0.0031335
12330.0 0.0031577
12350.0 0.0031922
12370.0 0.0032359
12390.0 0.0032892
12410.0 0.0033537
12430.0 0.0034235
12450.0 0.0034986
12470.0 0.0035802
12490.0 0.0036647
12510.0 0.0037475
12530.0 0.0038316
12550.0 0.0039152
12570.0 0.0039933
12590.0 0.0040664
12610.0 0.004136
12630.0 0.004199
12650.0 0.0042534
12670.0 0.004302
12690.0 0.0043439
12710.0 0.0043783
12730.0 0.0044061
12750.0 0.0044273
12770.0 0.0044419
12790.0 0.0044508
12810.0 0.0044536
12830.0 0.0044502
12850.0 0.0044428
12870.0 0.0044309
12890.0 0.0044132
12910.0 0.0043917
12930.0 0.0043677
12950.0 0.0043381
12970.0 0.0043038
12990.0 0.0042684
13010.0 0.0042297
13030.0 0.0041858
13050.0 0.0041397
13070.0 0.0040933
13090.0 0.0040417
13110.0 0.0039875
13130.0 0.0039342
13150.0 0.0038803
13170.0 0.0038234
13190.0 0.0037705
13210.0 0.0037223
13230.0 0.0036762
13250.0 0.0036352
13270.0 0.0036023
13290.0 0.0035758
13310.0 0.0035559
13330.0 0.0035449
13350.0 0.0035416
13370.0 0.0035446
13390.0 0.0035534
13410.0 0.003566
13430.0 0.0035807
13450.0 0.0035956
13470.0 0.0036083
13490.0 0.0036173
13510.0 0.0036206
13530.0 0.0036168
13550.0 0.0036058
13570.0 0.0035867
13590.0 0.0035588
13610.0 0.0035246
13630.0 0.0034855
13650.0 0.0034396
13670.0 0.0033901
13690.0 0.0033404
13710.0 0.0032889
13730.0 0.0032351
13750.0 0.0031859
13770.0 0.0031391
13790.0 0.0030933
13810.0 0.0030506
13830.0 0.0030125
13850.0 0.0029758
13870.0 0.0029411
13890.0 0.0029099
13910.0 0.0028809
13930.0 0.0028525
13950.0 0.0028259
13970.0 0.0028019
13990.0 0.0027783
14010.0 0.0027556
14030.0 0.0027349
14050.0 0.0027154
14070.0 0.0026964
14090.0 0.0026793
14110.0 0.0026641
14130.0 0.00265
14150.0 0.0026373
14170.0 0.0026266
14190.0 0.0026174
14210.0 0.0026096
14230.0 0.0026034
14250.0 0.0025989
14270.0 0.002596
14290.0 0.0025949
14310.0 0.0025952
14330.0 0.0025969
14350.0 0.0026004
14370.0 0.0026048
14390.0 0.0026098
14410.0 0.0026158
14430.0 0.002622
14450.0 0.0026277
14470.0 0.0026329
14490.0 0.0026379
14510.0 0.0026414
14530.0 0.0026434
14550.0 0.0026448
14570.0 0.0026452
14590.0 0.0026446
14610.0 0.002644
14630.0 0.002644
14650.0 0.0026447
14670.0 0.0026466
14690.0 0.002651
14710.0 0.0026584
14730.0 0.002668
14750.0 0.0026815
14770.0 0.0026998
14790.0 0.0027217
14810.0 0.0027468
14830.0 0.0027788
14850.0 0.0028145
14870.0 0.0028519
14890.0 0.0028928
14910.0 0.0029364
14930.0 0.0029775
14950.0 0.0030148
14970.0 0.0030491
14990.0 0.0030756
15010.0 0.0030928
15030.0 0.0031021
15050.0 0.0031039
15070.0 0.0030982
15090.0 0.0030878
15110.0 0.0030742
15130.0 0.0030585
15150.0 0.0030418
15170.0 0.0030244
15190.0 0.0030066
15210.0 0.0029889
15230.0 0.0029711
15250.0 0.0029531
15270.0 0.0029352
15290.0 0.0029175
15310.0 0.0028996
15330.0 0.0028817
15350.0 0.002864
15370.0 0.0028462
15390.0 0.0028283
15410.0 0.0028106
15430.0 0.0027929
15450.0 0.0027752
15470.0 0.0027575
15490.0 0.00274
15510.0 0.0027225
15530.0 0.0027049
15550.0 0.0026875
15570.0 0.0026702
15590.0 0.0026528
15610.0 0.0026354
15630.0 0.0026183
15650.0 0.0026012
15670.0 0.0025841
15690.0 0.0025671
15710.0 0.0025502
15730.0 0.0025334
15750.0 0.0025165
15770.0 0.0024999
15790.0 0.0024833
15810.0 0.0024667
15830.0 0.0024503
15850.0 0.002434
15870.0 0.0024178
15890.0 0.0024016
15910.0 0.0023856
15930.0 0.0023697
15950.0 0.0023537
15970.0 0.002338
15990.0 0.0023224
16010.0 0.0023068
16030.0 0.0022912
16050.0 0.002276
16070.0 0.0022607
16090.0 0.0022455
16110.0 0.0022305
16130.0 0.0022157
16150.0 0.0022008
16170.0 0.002186
16190.0 0.0021715
16210.0 0.002157
16230.0 0.0021426
16250.0 0.0021284
16270.0 0.0021143
16290.0 0.0021002
16310.0 0.0020863
16330.0 0.0020726
16350.0 0.0020589
16370.0 0.0020452
16390.0 0.0020318
16410.0 0.0020185
16430.0 0.0020052
16450.0 0.0019921
16470.0 0.0019792
16490.0 0.0019663
16510.0 0.0019535
16530.0 0.0019409
16550.0 0.0019284
16570.0 0.0019159
16590.0 0.0019036
16610.0 0.0018915
16630.0 0.0018794
16650.0 0.0018674
16670.0 0.0018557
16690.0 0.001844
16710.0 0.0018323
16730.0 0.0018208
16750.0 0.0018094
16770.0 0.0017982
16790.0 0.0017869
16810.0 0.001776
16830.0 0.0017651
16850.0 0.0017542
16870.0 0.0017435
16890.0 0.001733
16910.0 0.0017224
16930.0 0.001712
16950.0 0.0017017
16970.0 0.0016916
16990.0 0.0016815
17010.0 0.0016715
17030.0 0.0016618
17050.0 0.001652
17070.0 0.0016423
17090.0 0.0016328
17110.0 0.0016234
17130.0 0.001614
17150.0 0.0016047
17170.0 0.0015957
17190.0 0.0015866
17210.0 0.0015777
17230.0 0.0015689
17250.0 0.0015602
17270.0 0.0015515
17290.0 0.0015429
17310.0 0.0015345
17330.0 0.0015261
17350.0 0.0015178
17370.0 0.0015097
17390.0 0.0015017
17410.0 0.0014936
17430.0 0.0014858
17450.0 0.001478
17470.0 0.0014702
17490.0 0.0014626
17510.0 0.0014551
17530.0 0.0014477
17550.0 0.0014402
17570.0 0.001433
17590.0 0.0014258
17610.0 0.0014187
17630.0 0.0014116
17650.0 0.0014047
17670.0 0.0013979
17690.0 0.001391
17710.0 0.0013843
17730.0 0.0013777
17750.0 0.0013711
17770.0 0.0013647
17790.0 0.0013583
17810.0 0.001352
17830.0 0.0013457
17850.0 0.0013395
17870.0 0.0013335
17890.0 0.0013274
17910.0 0.0013214
17930.0 0.0013156
17950.0 0.0013097
17970.0 0.0013039
17990.0 0.0012983
18010.0 0.0012927
18030.0 0.0012871
18050.0 0.0012816
18070.0 0.0012762
18090.0 0.0012709
18110.0 0.0012655
18130.0 0.0012603
18150.0 0.0012552
18170.0 0.00125
18190.0 0.001245
18210.0 0.0012401
18230.0 0.0012351
18250.0 0.0012302
18270.0 0.0012254
18290.0 0.0012207
18310.0 0.0012159
18330.0 0.0012113
18350.0 0.0012068
18370.0 0.0012022
18390.0 0.0011977
18410.0 0.0011933
18430.0 0.001189
18450.0 0.0011846
18470.0 0.0011803
18490.0 0.0011761
18510.0 0.0011719
18530.0 0.0011678
18550.0 0.0011638
18570.0 0.0011598
18590.0 0.0011557
18610.0 0.0011518
18630.0 0.0011479
18650.0 0.0011441
18670.0 0.0011402
18690.0 0.0011365
18710.0 0.0011328
18730.0 0.0011291
18750.0 0.0011255
18770.0 0.001122
18790.0 0.0011184
18810.0 0.0011148
18830.0 0.0011114
18850.0 0.001108
18870.0 0.0011046
18890.0 0.0011013
18910.0 0.001098
18930.0 0.0010947
18950.0 0.0010914
18970.0 0.0010883
18990.0 0.0010851
19010.0 0.0010819
19030.0 0.0010788
19050.0 0.0010758
19070.0 0.0010728
19090.0 0.0010698
19110.0 0.0010669
19130.0 0.0010639
19150.0 0.001061
19170.0 0.0010581
19190.0 0.0010553
19210.0 0.0010525
19230.0 0.0010497
19250.0 0.001047
19270.0 0.0010442
19290.0 0.0010415
19310.0 0.0010389
19330.0 0.0010363
19350.0 0.0010336
19370.0 0.001031
19390.0 0.0010285
19410.0 0.001026
19430.0 0.0010234
19450.0 0.001021
19470.0 0.0010185
19490.0 0.0010161
19510.0 0.0010137
19530.0 0.0010113
19550.0 0.0010089
19570.0 0.0010065
19590.0 0.0010043
19610.0 0.001002
19630.0 0.00099967
19650.0 0.00099743
19670.0 0.00099525
19690.0 0.00099299
19710.0 0.00099077
19730.0 0.00098863
19750.0 0.00098648
19770.0 0.00098427
19790.0 0.00098217
19810.0 0.00098011
19830.0 0.00097797
19850.0 0.00097583
19870.0 0.0009737
19890.0 0.00097135
19910.0 0.00096864
19930.0 0.00096552
19950.0 0.00096167
19970.0 0.00095657
19990.0 0.00095002
20010.0 0.00094224
20030.0 0.00093253
20050.0 0.00092092
20070.0 0.00090821
20090.0 0.00089446
20110.0 0.00087887
20130.0 0.00086312
20150.0 0.00084754
20170.0 0.00083141
20190.0 0.00081506
20210.0 0.00079962
20230.0 0.00078452
20250.0 0.00076932
20270.0 0.00075514
20290.0 0.00074211
20310.0 0.00072962
20330.0 0.00071784
20350.0 0.00070798
20370.0 0.00069917
20390.0 0.00069138
20410.0 0.0006851
20430.0 0.00068029
20450.0 0.00067658
20470.0 0.00067427
20490.0 0.00067331
20510.0 0.00067354
20530.0 0.00067496
20550.0 0.00067743
20570.0 0.00068069
20590.0 0.00068489
20610.0 0.00068979
20630.0 0.00069504
20650.0 0.00070073
20670.0 0.00070696
20690.0 0.00071302
20710.0 0.00071892
20730.0 0.00072482
20750.0 0.00073042
20770.0 0.00073535
20790.0 0.00073986
20810.0 0.00074385
20830.0 0.00074705
20850.0 0.00074948
20870.0 0.00075123
20890.0 0.00075214
20910.0 0.00075226
20930.0 0.00075162
20950.0 0.00075021
20970.0 0.00074817
20990.0 0.00074556
21010.0 0.00074221
21030.0 0.00073837
21050.0 0.00073424
21070.0 0.00072966
21090.0 0.00072461
21110.0 0.0007196
21130.0 0.00071451
21150.0 0.00070918
21170.0 0.00070393
21190.0 0.00069898
21210.0 0.00069401
21230.0 0.00068919
21250.0 0.00068491
21270.0 0.00068103
21290.0 0.00067746
21310.0 0.00067444
21330.0 0.0006721
21350.0 0.00067023
21370.0 0.00066895
21390.0 0.00066834
21410.0 0.00066833
21430.0 0.00066897
21450.0 0.00067022
21470.0 0.00067201
21490.0 0.00067438
21510.0 0.00067732
21530.0 0.00068061
21550.0 0.00068433
21570.0 0.00068859
21590.0 0.0006931
21610.0 0.00069779
21630.0 0.00070289
21650.0 0.00070837
21670.0 0.00071369
21690.0 0.00071924
21710.0 0.00072509
21730.0 0.00073093
21750.0 0.00073668
21770.0 0.00074284
21790.0 0.00074903
21810.0 0.00075504
21830.0 0.00076115
21850.0 0.00076747
21870.0 0.00077363
21890.0 0.00077957
21910.0 0.0007857
21930.0 0.00079176
21950.0 0.0007975
21970.0 0.00080318
21990.0 0.00080892
22010.0 0.00081415
22030.0 0.00081903
22050.0 0.00082371
22070.0 0.00082797
22090.0 0.00083159
22110.0 0.00083478
22130.0 0.00083744
22150.0 0.00083936
22170.0 0.00084059
22190.0 0.00084109
22210.0 0.00084075
22230.0 0.00083963
22250.0 0.00083766
22270.0 0.00083475
22290.0 0.00083109
22310.0 0.00082668
22330.0 0.00082117
22350.0 0.00081492
22370.0 0.00080814
22390.0 0.0008005
22410.0 0.00079193
22430.0 0.0007832
22450.0 0.00077404
22470.0 0.0007641
22490.0 0.00075392
22510.0 0.00074386
22530.0 0.00073319
22550.0 0.00072222
22570.0 0.00071174
22590.0 0.00070132
22610.0 0.0006907
22630.0 0.00068044
22650.0 0.00067089
22670.0 0.00066129
22690.0 0.00065197
22710.0 0.00064339
22730.0 0.00063523
22750.0 0.00062707
22770.0 0.0006197
22790.0 0.00061297
22810.0 0.00060647
22830.0 0.00060033
22850.0 0.00059486
22870.0 0.0005897
22890.0 0.0005847
22910.0 0.00058019
22930.0 0.00057609
22950.0 0.00057215
22970.0 0.00056841
22990.0 0.00056519
23010.0 0.00056215
23030.0 0.00055926
23050.0 0.00055668
23070.0 0.00055439
23090.0 0.00055217
23110.0 0.00055018
23130.0 0.00054844
23150.0 0.00054685
23170.0 0.00054537
23190.0 0.00054409
23210.0 0.00054298
23230.0 0.00054195
23250.0 0.00054106
23270.0 0.00054033
23290.0 0.00053972
23310.0 0.00053924
23330.0 0.00053896
23350.0 0.00053884
23370.0 0.0005389
23390.0 0.00053915
23410.0 0.00053955
23430.0 0.00054014
23450.0 0.00054089
23470.0 0.00054175
23490.0 0.0005427
23510.0 0.00054377
23530.0 0.00054489
23550.0 0.00054597
23570.0 0.00054707
23590.0 0.00054817
23610.0 0.0005492
23630.0 0.00055019
23650.0 0.00055121
23670.0 0.0005522
23690.0 0.00055319
23710.0 0.00055428
23730.0 0.00055554
23750.0 0.00055694
23770.0 0.00055861
23790.0 0.0005607
23810.0 0.00056321
