#lamb flux
1010.0 1.0331e-06
1030.0 1.1293e-06
1050.0 1.2405e-06
1070.0 1.3662e-06
1090.0 1.5094e-06
1110.0 1.6572e-06
1130.0 1.8071e-06
1150.0 1.9652e-06
1170.0 2.1297e-06
1190.0 2.2877e-06
1210.0 2.4495e-06
1230.0 2.6184e-06
1250.0 2.7862e-06
1270.0 2.9519e-06
1290.0 3.1286e-06
1310.0 3.3079e-06
1330.0 3.4832e-06
1350.0 3.6631e-06
1370.0 3.8511e-06
1390.0 4.038e-06
1410.0 4.2231e-06
1430.0 4.4184e-06
1450.0 4.6167e-06
1470.0 4.8122e-06
1490.0 5.0121e-06
1510.0 5.2241e-06
1530.0 5.4292e-06
1550.0 5.6339e-06
1570.0 5.846e-06
1590.0 6.0596e-06
1610.0 6.266e-06
1630.0 6.4778e-06
1650.0 6.6939e-06
1670.0 6.903e-06
1690.0 7.108e-06
1710.0 7.3173e-06
1730.0 7.5243e-06
1750.0 7.7162e-06
1770.0 7.9083e-06
1790.0 8.0983e-06
1810.0 8.2758e-06
1830.0 8.4427e-06
1850.0 8.6122e-06
1870.0 8.7679e-06
1890.0 8.9079e-06
1910.0 9.0411e-06
1930.0 9.1676e-06
1950.0 9.2746e-06
1970.0 9.3678e-06
1990.0 9.4554e-06
2010.0 9.5277e-06
2030.0 9.5818e-06
2050.0 9.6285e-06
2070.0 9.667e-06
2090.0 9.684e-06
2110.0 9.6891e-06
2130.0 9.6875e-06
2150.0 9.6721e-06
2170.0 9.6402e-06
2190.0 9.6043e-06
2210.0 9.5603e-06
2230.0 9.5026e-06
2250.0 9.4372e-06
2270.0 9.3712e-06
2290.0 9.2951e-06
2310.0 9.2089e-06
2330.0 9.1226e-06
2350.0 9.0338e-06
2370.0 8.9371e-06
2390.0 8.8391e-06
2410.0 8.7435e-06
2430.0 8.6406e-06
2450.0 8.5303e-06
2470.0 8.4149e-06
2490.0 8.2898e-06
2510.0 8.152e-06
2530.0 8.0152e-06
2550.0 7.901e-06
2570.0 7.8412e-06
2590.0 7.8743e-06
2610.0 8.0784e-06
2630.0 8.4917e-06
2650.0 9.0952e-06
2670.0 9.9054e-06
2690.0 1.0902e-05
2710.0 1.194e-05
2730.0 1.2945e-05
2750.0 1.3943e-05
2770.0 1.4836e-05
2790.0 1.5596e-05
2810.0 1.6291e-05
2830.0 1.6982e-05
2850.0 1.7603e-05
2870.0 1.8219e-05
2890.0 1.8876e-05
2910.0 1.9548e-05
2930.0 2.0199e-05
2950.0 2.0895e-05
2970.0 2.1623e-05
2990.0 2.2337e-05
3010.0 5.1073e-05
3030.0 5.2774e-05
3050.0 5.4513e-05
3070.0 5.6175e-05
3090.0 5.7914e-05
3110.0 5.968e-05
3130.0 6.1354e-05
3150.0 6.2943e-05
3170.0 6.4521e-05
3190.0 6.5881e-05
3210.0 6.692e-05
3230.0 6.787e-05
3250.0 6.6763e-05
3270.0 6.7497e-05
3290.0 6.6863e-05
3310.0 7.2677e-05
3330.0 7.8014e-05
3350.0 8.384e-05
3370.0 9.0555e-05
3390.0 9.8118e-05
3410.0 0.00010599
3430.0 0.00011444
3450.0 0.00012378
3470.0 0.00013368
3490.0 0.00014402
3510.0 0.00015496
3530.0 0.00016664
3550.0 0.00018166
3570.0 0.00019901
3590.0 0.0002134
3610.0 0.00022955
3630.0 0.00023563
3650.0 0.00024043
3670.0 0.00024341
3690.0 0.00025025
3710.0 0.00025799
3730.0 0.00025373
3750.0 0.00024623
3770.0 0.00023593
3790.0 0.00022393
3810.0 0.00020872
3830.0 0.00018461
3850.0 0.00011534
3870.0 0.00016025
3890.0 0.00021848
3910.0 0.00026958
3930.0 0.00031088
3950.0 0.00033003
3970.0 0.00034408
3990.0 0.00041338
4010.0 0.00039082
4030.0 0.00034227
4050.0 0.00030362
4070.0 0.00027334
4090.0 0.00032023
4110.0 0.00034143
4130.0 0.00034429
4150.0 0.00033994
4170.0 0.00031976
4190.0 0.00030212
4210.0 0.00035667
4230.0 0.00040408
4250.0 0.00041154
4270.0 0.00039696
4290.0 0.00040442
4310.0 0.00042928
4330.0 0.00048724
4350.0 0.00052308
4370.0 0.00051572
4390.0 0.00043488
4410.0 0.00037231
4430.0 0.00031565
4450.0 0.00027437
4470.0 0.0002854
4490.0 0.00035599
4510.0 0.00038582
4530.0 0.00042393
4550.0 0.00045619
4570.0 0.00056464
4590.0 0.00082083
4610.0 0.0010723
4630.0 0.0010751
4650.0 0.0010069
4670.0 0.0010838
4690.0 0.0012223
4710.0 0.0010332
4730.0 0.00074969
4750.0 0.00058283
4770.0 0.00054483
4790.0 0.00055586
4810.0 0.00051668
4830.0 0.00056176
4850.0 0.00068544
4870.0 0.00084004
4890.0 0.00076609
4910.0 0.00065451
4930.0 0.00070529
4950.0 0.00092803
4970.0 0.0012238
4990.0 0.0012666
5010.0 0.0011073
5030.0 0.00085069
5050.0 0.00060801
5070.0 0.00050249
5090.0 0.00046878
5110.0 0.00046933
5130.0 0.00049033
5150.0 0.00048223
5170.0 0.0004938
5190.0 0.00047206
5210.0 0.00048097
5230.0 0.00051935
5250.0 0.00056168
5270.0 0.00069688
5290.0 0.00081394
5310.0 0.00080973
5330.0 0.00083552
5350.0 0.00095429
5370.0 0.001041
5390.0 0.00096171
5410.0 0.00082043
5430.0 0.0007738
5450.0 0.0008953
5470.0 0.0011669
5490.0 0.0014557
5510.0 0.0015912
5530.0 0.0016098
5550.0 0.0015274
5570.0 0.0014389
5590.0 0.0013989
5610.0 0.0014219
5630.0 0.0014477
5650.0 0.0014481
5670.0 0.0014482
5690.0 0.0014148
5710.0 0.0012427
5730.0 0.0010477
5750.0 0.00089285
5770.0 0.00091491
5790.0 0.0010046
5810.0 0.0010859
5830.0 0.0011266
5850.0 0.0011187
5870.0 0.0010335
5890.0 0.00090522
5910.0 0.00090427
5930.0 0.0010018
5950.0 0.0010204
5970.0 0.00092875
5990.0 0.00080272
6010.0 0.00065586
6030.0 0.00055037
6050.0 0.00055448
6070.0 0.00063981
6090.0 0.00067443
6110.0 0.00059969
6130.0 0.00055695
6150.0 0.00060587
6170.0 0.00073115
6190.0 0.0008706
6210.0 0.00092633
6230.0 0.00088652
6250.0 0.00081404
6270.0 0.0007017
6290.0 0.00058183
6310.0 0.00048647
6330.0 0.00044868
6350.0 0.00047421
6370.0 0.00050009
6390.0 0.00052971
6410.0 0.00060915
6430.0 0.00076744
6450.0 0.00096728
6470.0 0.0010791
6490.0 0.0010577
6510.0 0.0010412
6530.0 0.0010792
6550.0 0.0010912
6570.0 0.0011096
6590.0 0.0011139
6610.0 0.0010941
6630.0 0.0011063
6650.0 0.0011009
6670.0 0.0010454
6690.0 0.00092696
6710.0 0.00078761
6730.0 0.00077406
6750.0 0.00083957
6770.0 0.00090423
6790.0 0.00092689
6810.0 0.00091872
6830.0 0.00090378
6850.0 0.00088524
6870.0 0.0008314
6890.0 0.00079202
6910.0 0.00075182
6930.0 0.0007325
6950.0 0.00078999
6970.0 0.00084858
6990.0 0.00088958
7010.0 0.0008943
7030.0 0.00084114
7050.0 0.00073045
7070.0 0.0005928
7090.0 0.00050526
7110.0 0.00049376
7130.0 0.00052882
7150.0 0.00052621
7170.0 0.00047718
7190.0 0.00047272
7210.0 0.00052362
7230.0 0.00060731
7250.0 0.00069049
7270.0 0.0007212
7290.0 0.0006678
7310.0 0.00058995
7330.0 0.00054144
7350.0 0.00053463
7370.0 0.00055074
7390.0 0.00057235
7410.0 0.00061112
7430.0 0.00070233
7450.0 0.00081836
7470.0 0.00092657
7490.0 0.00096978
7510.0 0.00093489
7530.0 0.00078102
7550.0 0.00064096
7570.0 0.00053558
7590.0 0.00047404
7610.0 0.00049345
7630.0 0.00057121
7650.0 0.00065243
7670.0 0.00073028
7690.0 0.00078792
7710.0 0.00083526
7730.0 0.00088078
7750.0 0.0009235
7770.0 0.00094389
7790.0 0.0009389
7810.0 0.00095172
7830.0 0.00098518
7850.0 0.00097444
7870.0 0.00094066
7890.0 0.00087828
7910.0 0.00082072
7930.0 0.00078716
7950.0 0.00077585
7970.0 0.00076468
7990.0 0.00076532
8010.0 0.00077973
8030.0 0.00078233
8050.0 0.00079748
8070.0 0.00078649
8090.0 0.00078395
8110.0 0.00075037
8130.0 0.00074407
8150.0 0.00072459
8170.0 0.00070294
8190.0 0.00069136
8210.0 0.0006947
8230.0 0.00065834
8250.0 0.00062142
8270.0 0.00054376
8290.0 0.00043643
8310.0 0.00033131
8330.0 0.00025185
8350.0 0.00022487
8370.0 0.00025841
8390.0 0.00030538
8410.0 0.00033726
8430.0 0.00036569
8450.0 0.00038391
8470.0 0.0004023
8490.0 0.00044616
8510.0 0.00050055
8530.0 0.00058145
8550.0 0.00067711
8570.0 0.00076381
8590.0 0.00083315
8610.0 0.00088707
8630.0 0.00091849
8650.0 0.0009213
8670.0 0.00092129
8690.0 0.00095212
8710.0 0.0009782
8730.0 0.0010031
8750.0 0.00098734
8770.0 0.00099135
8790.0 0.00097772
8810.0 0.00091058
8830.0 0.00087895
8850.0 0.00082557
8870.0 0.00078399
8890.0 0.00075364
8910.0 0.00076647
8930.0 0.00072305
8950.0 0.00069135
8970.0 0.00067832
8990.0 0.00066398
9010.0 0.0006464
9030.0 0.00063057
9050.0 0.00062654
9070.0 0.00062465
9090.0 0.00062286
9110.0 0.00062114
9130.0 0.0006193
9150.0 0.00061743
9170.0 0.0006149
9190.0 0.00061186
9210.0 0.00061427
9230.0 0.00061112
9250.0 0.00060857
9270.0 0.00060621
9290.0 0.00060398
9310.0 0.0006018
9330.0 0.00059966
9350.0 0.00059757
9370.0 0.00059547
9390.0 0.00059333
9410.0 0.0005912
9430.0 0.00058904
9450.0 0.00058653
9470.0 0.00058412
9490.0 0.00058225
9510.0 0.00058021
9530.0 0.0005781
9550.0 0.00057596
9570.0 0.00057379
9590.0 0.00057159
9610.0 0.00056937
9630.0 0.00056715
9650.0 0.00056492
9670.0 0.00056268
9690.0 0.00056044
9710.0 0.0005582
9730.0 0.00055595
9750.0 0.0005537
9770.0 0.00055146
9790.0 0.0005492
9810.0 0.00054694
9830.0 0.00054469
9850.0 0.00054244
9870.0 0.00054017
9890.0 0.00053791
9910.0 0.00053564
9930.0 0.00053332
9950.0 0.00052723
9970.0 0.00052609
9990.0 0.00052474
10010.0 0.00052326
10030.0 0.00052147
10050.0 0.0005194
10070.0 0.00051719
10090.0 0.00051514
10110.0 0.00051285
10130.0 0.0005107
10150.0 0.00050849
10170.0 0.00050616
10190.0 0.0005037
10210.0 0.00050141
10230.0 0.00049918
10250.0 0.0004968
10270.0 0.00049444
10290.0 0.00049222
10310.0 0.00048986
10330.0 0.00048737
10350.0 0.00048506
10370.0 0.00048275
10390.0 0.00048029
10410.0 0.00047785
10430.0 0.00047557
10450.0 0.00047314
10470.0 0.00047063
10490.0 0.00046824
10510.0 0.00046586
10530.0 0.00046323
10550.0 0.0004607
10570.0 0.00045829
10590.0 0.00045575
10610.0 0.00045312
10630.0 0.00045064
10650.0 0.00044812
10670.0 0.0004454
10690.0 0.00044276
10710.0 0.0004402
10730.0 0.0004375
10750.0 0.00043465
10770.0 0.00043204
10790.0 0.00042935
10810.0 0.0004265
10830.0 0.00042371
10850.0 0.00042102
10870.0 0.00041803
10890.0 0.00041497
10910.0 0.00041197
10930.0 0.00040876
10950.0 0.00040513
10970.0 0.0004013
10990.0 0.0003973
11010.0 0.00036842
11030.0 0.0003635
11050.0 0.0003588
11070.0 0.00035406
11090.0 0.00034904
11110.0 0.00034447
11130.0 0.00034011
11150.0 0.00033565
11170.0 0.00033128
11190.0 0.00032726
11210.0 0.00032315
11230.0 0.00031893
11250.0 0.00031492
11270.0 0.00031102
11290.0 0.00030694
11310.0 0.0003029
11330.0 0.00029923
11350.0 0.00029548
11370.0 0.00029169
11390.0 0.00028812
11410.0 0.00028467
11430.0 0.00028097
11450.0 0.00027737
11470.0 0.00027388
11490.0 0.00027022
11510.0 0.0002663
11530.0 0.00026248
11550.0 0.00025856
11570.0 0.00025426
11590.0 0.00024984
11610.0 0.00024544
11630.0 0.00024066
11650.0 0.00023557
11670.0 0.00023065
11690.0 0.00022564
11710.0 0.00022037
11730.0 0.00021518
11750.0 0.00021026
11770.0 0.00020521
11790.0 0.0002002
11810.0 0.00019555
11830.0 0.00019108
11850.0 0.00018656
11870.0 0.00018242
11890.0 0.00017866
11910.0 0.00017497
11930.0 0.00017145
11950.0 0.00016829
11970.0 0.00016528
11990.0 0.00016229
12010.0 0.00015956
12030.0 0.00015705
12050.0 0.0001546
12070.0 0.00015222
12090.0 0.00015017
12110.0 0.00014821
12130.0 0.00014635
12150.0 0.00014471
12170.0 0.00014331
12190.0 0.00014201
12210.0 0.00014095
12230.0 0.0001402
12250.0 0.00013969
12270.0 0.00013945
12290.0 0.00013954
12310.0 0.00013996
12330.0 0.00014072
12350.0 0.00014183
12370.0 0.00014326
12390.0 0.00014503
12410.0 0.00014723
12430.0 0.00014962
12450.0 0.00015224
12470.0 0.00015515
12490.0 0.00015822
12510.0 0.00016127
12530.0 0.00016444
12550.0 0.00016765
12570.0 0.00017068
12590.0 0.00017355
12610.0 0.00017631
12630.0 0.0001788
12650.0 0.00018089
12670.0 0.0001827
12690.0 0.00018418
12710.0 0.00018526
12730.0 0.00018597
12750.0 0.00018632
12770.0 0.00018629
12790.0 0.00018595
12810.0 0.00018528
12830.0 0.00018429
12850.0 0.00018311
12870.0 0.00018176
12890.0 0.00018017
12910.0 0.00017847
12930.0 0.00017675
12950.0 0.00017487
12970.0 0.0001729
12990.0 0.000171
13010.0 0.00016908
13030.0 0.00016706
13050.0 0.00016505
13070.0 0.00016312
13090.0 0.00016107
13110.0 0.00015898
13130.0 0.00015697
13150.0 0.00015495
13170.0 0.00015284
13190.0 0.00015085
13210.0 0.000149
13230.0 0.0001472
13250.0 0.00014555
13270.0 0.00014415
13290.0 0.00014296
13310.0 0.00014198
13330.0 0.00014133
13350.0 0.00014097
13370.0 0.00014089
13390.0 0.00014107
13410.0 0.00014146
13430.0 0.000142
13450.0 0.00014265
13470.0 0.00014328
13490.0 0.00014382
13510.0 0.00014423
13530.0 0.00014439
13550.0 0.00014426
13570.0 0.00014382
13590.0 0.000143
13610.0 0.00014186
13630.0 0.00014045
13650.0 0.00013869
13670.0 0.0001367
13690.0 0.00013461
13710.0 0.00013238
13730.0 0.00012998
13750.0 0.00012772
13770.0 0.00012554
13790.0 0.00012339
13810.0 0.00012138
13830.0 0.0001196
13850.0 0.00011792
13870.0 0.00011639
13890.0 0.00011507
13910.0 0.00011392
13930.0 0.00011287
13950.0 0.00011196
13970.0 0.0001112
13990.0 0.00011052
14010.0 0.00010992
14030.0 0.00010941
14050.0 0.00010894
14070.0 0.0001085
14090.0 0.0001081
14110.0 0.00010772
14130.0 0.00010732
14150.0 0.00010692
14170.0 0.0001065
14190.0 0.00010607
14210.0 0.00010559
14230.0 0.00010511
14250.0 0.00010461
14270.0 0.00010409
14290.0 0.00010358
14310.0 0.00010309
14330.0 0.00010263
14350.0 0.0001022
14370.0 0.00010181
14390.0 0.00010148
14410.0 0.00010119
14430.0 0.00010095
14450.0 0.00010075
14470.0 0.00010058
14490.0 0.00010044
14510.0 0.00010031
14530.0 0.00010019
14550.0 0.00010008
14570.0 9.9974e-05
14590.0 9.9881e-05
14610.0 9.9812e-05
14630.0 9.9784e-05
14650.0 9.9801e-05
14670.0 9.9876e-05
14690.0 0.00010004
14710.0 0.00010031
14730.0 0.00010066
14750.0 0.00010113
14770.0 0.00010175
14790.0 0.00010249
14810.0 0.00010335
14830.0 0.00010443
14850.0 0.00010567
14870.0 0.00010699
14890.0 0.00010847
14910.0 0.0001101
14930.0 0.0001117
14950.0 0.00011321
14970.0 0.00011467
14990.0 0.00011588
15010.0 0.00011679
15030.0 0.00011742
15050.0 0.00011779
15070.0 0.00011788
15090.0 0.0001178
15110.0 0.00011759
15130.0 0.00011731
15150.0 0.00011698
15170.0 0.00011663
15190.0 0.00011626
15210.0 0.0001159
15230.0 0.00011553
15250.0 0.00011515
15270.0 0.00011478
15290.0 0.00011441
15310.0 0.00011403
15330.0 0.00011366
15350.0 0.00011328
15370.0 0.00011291
15390.0 0.00011253
15410.0 0.00011215
15430.0 0.00011178
15450.0 0.0001114
15470.0 0.00011102
15490.0 0.00011065
15510.0 0.00011027
15530.0 0.00010989
15550.0 0.00010951
15570.0 0.00010914
15590.0 0.00010876
15610.0 0.00010837
15630.0 0.000108
15650.0 0.00010762
15670.0 0.00010724
15690.0 0.00010686
15710.0 0.00010649
15730.0 0.00010611
15750.0 0.00010573
15770.0 0.00010535
15790.0 0.00010498
15810.0 0.0001046
15830.0 0.00010422
15850.0 0.00010385
15870.0 0.00010347
15890.0 0.0001031
15910.0 0.00010273
15930.0 0.00010235
15950.0 0.00010198
15970.0 0.00010161
15990.0 0.00010124
16010.0 0.00010086
16030.0 0.00010049
16050.0 0.00010012
16070.0 9.9755e-05
16090.0 9.9386e-05
16110.0 9.9019e-05
16130.0 9.8654e-05
16150.0 9.8286e-05
16170.0 9.792e-05
16190.0 9.7557e-05
16210.0 9.7194e-05
16230.0 9.683e-05
16250.0 9.647e-05
16270.0 9.6111e-05
16290.0 9.575e-05
16310.0 9.5391e-05
16330.0 9.5035e-05
16350.0 9.4679e-05
16370.0 9.432e-05
16390.0 9.3967e-05
16410.0 9.3616e-05
16430.0 9.3262e-05
16450.0 9.2911e-05
16470.0 9.2563e-05
16490.0 9.2214e-05
16510.0 9.1865e-05
16530.0 9.1519e-05
16550.0 9.1175e-05
16570.0 9.0829e-05
16590.0 9.0485e-05
16610.0 9.0146e-05
16630.0 8.9805e-05
16650.0 8.9465e-05
16670.0 8.9128e-05
16690.0 8.8793e-05
16710.0 8.8455e-05
16730.0 8.8121e-05
16750.0 8.7789e-05
16770.0 8.7457e-05
16790.0 8.7125e-05
16810.0 8.6798e-05
16830.0 8.6472e-05
16850.0 8.6144e-05
16870.0 8.5819e-05
16890.0 8.5498e-05
16910.0 8.5174e-05
16930.0 8.4852e-05
16950.0 8.4534e-05
16970.0 8.4216e-05
16990.0 8.3898e-05
17010.0 8.3583e-05
17030.0 8.3272e-05
17050.0 8.2958e-05
17070.0 8.2646e-05
17090.0 8.2338e-05
17110.0 8.203e-05
17130.0 8.1721e-05
17150.0 8.1416e-05
17170.0 8.1113e-05
17190.0 8.081e-05
17210.0 8.0508e-05
17230.0 8.0211e-05
17250.0 7.9912e-05
17270.0 7.9614e-05
17290.0 7.9319e-05
17310.0 7.9026e-05
17330.0 7.8732e-05
17350.0 7.844e-05
17370.0 7.8152e-05
17390.0 7.7864e-05
17410.0 7.7576e-05
17430.0 7.7292e-05
17450.0 7.701e-05
17470.0 7.6725e-05
17490.0 7.6443e-05
17510.0 7.6165e-05
17530.0 7.5887e-05
17550.0 7.5609e-05
17570.0 7.5335e-05
17590.0 7.5062e-05
17610.0 7.4789e-05
17630.0 7.4517e-05
17650.0 7.4249e-05
17670.0 7.3981e-05
17690.0 7.3712e-05
17710.0 7.3448e-05
17730.0 7.3185e-05
17750.0 7.2922e-05
17770.0 7.2661e-05
17790.0 7.2403e-05
17810.0 7.2144e-05
17830.0 7.1886e-05
17850.0 7.1632e-05
17870.0 7.1379e-05
17890.0 7.1124e-05
17910.0 7.0873e-05
17930.0 7.0625e-05
17950.0 7.0376e-05
17970.0 7.0128e-05
17990.0 6.9884e-05
18010.0 6.9641e-05
18030.0 6.9395e-05
18050.0 6.9154e-05
18070.0 6.8915e-05
18090.0 6.8676e-05
18110.0 6.8437e-05
18130.0 6.8202e-05
18150.0 6.7968e-05
18170.0 6.7734e-05
18190.0 6.7502e-05
18210.0 6.7273e-05
18230.0 6.7042e-05
18250.0 6.6812e-05
18270.0 6.6587e-05
18290.0 6.6362e-05
18310.0 6.6136e-05
18330.0 6.5914e-05
18350.0 6.5694e-05
18370.0 6.5472e-05
18390.0 6.5253e-05
18410.0 6.5036e-05
18430.0 6.482e-05
18450.0 6.4602e-05
18470.0 6.4389e-05
18490.0 6.4177e-05
18510.0 6.3965e-05
18530.0 6.3754e-05
18550.0 6.3547e-05
18570.0 6.3339e-05
18590.0 6.3131e-05
18610.0 6.2926e-05
18630.0 6.2723e-05
18650.0 6.2519e-05
18670.0 6.2316e-05
18690.0 6.2117e-05
18710.0 6.1918e-05
18730.0 6.1719e-05
18750.0 6.1522e-05
18770.0 6.1328e-05
18790.0 6.1131e-05
18810.0 6.0937e-05
18830.0 6.0745e-05
18850.0 6.0554e-05
18870.0 6.0363e-05
18890.0 6.0175e-05
18910.0 5.9988e-05
18930.0 5.98e-05
18950.0 5.9614e-05
18970.0 5.943e-05
18990.0 5.9247e-05
19010.0 5.9062e-05
19030.0 5.8882e-05
19050.0 5.8702e-05
19070.0 5.8522e-05
19090.0 5.8344e-05
19110.0 5.8169e-05
19130.0 5.7992e-05
19150.0 5.7816e-05
19170.0 5.7642e-05
19190.0 5.747e-05
19210.0 5.7297e-05
19230.0 5.7125e-05
19250.0 5.6957e-05
19270.0 5.6788e-05
19290.0 5.6619e-05
19310.0 5.6453e-05
19330.0 5.6288e-05
19350.0 5.6121e-05
19370.0 5.5957e-05
19390.0 5.5795e-05
19410.0 5.5633e-05
19430.0 5.5471e-05
19450.0 5.5312e-05
19470.0 5.5153e-05
19490.0 5.4994e-05
19510.0 5.4837e-05
19530.0 5.4682e-05
19550.0 5.4525e-05
19570.0 5.4369e-05
19590.0 5.4217e-05
19610.0 5.4065e-05
19630.0 5.3912e-05
19650.0 5.3761e-05
19670.0 5.3613e-05
19690.0 5.3462e-05
19710.0 5.3313e-05
19730.0 5.3167e-05
19750.0 5.302e-05
19770.0 5.2873e-05
19790.0 5.2728e-05
19810.0 5.2585e-05
19830.0 5.244e-05
19850.0 5.2293e-05
19870.0 5.2145e-05
19890.0 5.1986e-05
19910.0 5.1808e-05
19930.0 5.1603e-05
19950.0 5.1355e-05
19970.0 5.1039e-05
19990.0 5.064e-05
20010.0 5.0171e-05
20030.0 4.9598e-05
20050.0 4.8927e-05
20070.0 4.82e-05
20090.0 4.7425e-05
20110.0 4.6567e-05
20130.0 4.5711e-05
20150.0 4.4876e-05
20170.0 4.4027e-05
20190.0 4.3179e-05
20210.0 4.2383e-05
20230.0 4.161e-05
20250.0 4.0837e-05
20270.0 4.0111e-05
20290.0 3.9434e-05
20310.0 3.8773e-05
20330.0 3.8131e-05
20350.0 3.7565e-05
20370.0 3.7027e-05
20390.0 3.6514e-05
20410.0 3.6047e-05
20430.0 3.5632e-05
20450.0 3.5235e-05
20470.0 3.488e-05
20490.0 3.4574e-05
20510.0 3.4304e-05
20530.0 3.4066e-05
20550.0 3.3872e-05
20570.0 3.3716e-05
20590.0 3.3591e-05
20610.0 3.3499e-05
20630.0 3.3439e-05
20650.0 3.3406e-05
20670.0 3.34e-05
20690.0 3.3415e-05
20710.0 3.3446e-05
20730.0 3.3496e-05
20750.0 3.3558e-05
20770.0 3.3623e-05
20790.0 3.3694e-05
20810.0 3.377e-05
20830.0 3.384e-05
20850.0 3.3902e-05
20870.0 3.3961e-05
20890.0 3.4006e-05
20910.0 3.4033e-05
20930.0 3.4045e-05
20950.0 3.4039e-05
20970.0 3.4011e-05
20990.0 3.3962e-05
21010.0 3.389e-05
21030.0 3.3795e-05
21050.0 3.3679e-05
21070.0 3.3542e-05
21090.0 3.3379e-05
21110.0 3.3202e-05
21130.0 3.3012e-05
21150.0 3.2801e-05
21170.0 3.2579e-05
21190.0 3.2355e-05
21210.0 3.2117e-05
21230.0 3.187e-05
21250.0 3.1629e-05
21270.0 3.139e-05
21290.0 3.1148e-05
21310.0 3.0913e-05
21330.0 3.0694e-05
21350.0 3.0477e-05
21370.0 3.027e-05
21390.0 3.0081e-05
21410.0 2.9908e-05
21430.0 2.9742e-05
21450.0 2.9599e-05
21470.0 2.9478e-05
21490.0 2.9373e-05
21510.0 2.9288e-05
21530.0 2.9226e-05
21550.0 2.9185e-05
21570.0 2.9166e-05
21590.0 2.917e-05
21610.0 2.9194e-05
21630.0 2.9241e-05
21650.0 2.9314e-05
21670.0 2.94e-05
21690.0 2.9506e-05
21710.0 2.9633e-05
21730.0 2.9773e-05
21750.0 2.9921e-05
21770.0 3.009e-05
21790.0 3.0267e-05
21810.0 3.0443e-05
21830.0 3.0624e-05
21850.0 3.0813e-05
21870.0 3.0994e-05
21890.0 3.1164e-05
21910.0 3.1335e-05
21930.0 3.1497e-05
21950.0 3.1642e-05
21970.0 3.1776e-05
21990.0 3.1903e-05
22010.0 3.2007e-05
22030.0 3.2092e-05
22050.0 3.2164e-05
22070.0 3.2217e-05
22090.0 3.2247e-05
22110.0 3.2261e-05
22130.0 3.2255e-05
22150.0 3.2229e-05
22170.0 3.2184e-05
22190.0 3.2118e-05
22210.0 3.203e-05
22230.0 3.1927e-05
22250.0 3.1802e-05
22270.0 3.1656e-05
22290.0 3.1494e-05
22310.0 3.1317e-05
22330.0 3.1112e-05
22350.0 3.0892e-05
22370.0 3.0661e-05
22390.0 3.0408e-05
22410.0 3.013e-05
22430.0 2.9849e-05
22450.0 2.9555e-05
22470.0 2.9237e-05
22490.0 2.891e-05
22510.0 2.8583e-05
22530.0 2.8233e-05
22550.0 2.7868e-05
22570.0 2.7513e-05
22590.0 2.7153e-05
22610.0 2.6781e-05
22630.0 2.6414e-05
22650.0 2.6064e-05
22670.0 2.5707e-05
