#lamb flux
1010.0 4.8619e-08
1030.0 5.3773e-08
1050.0 5.9701e-08
1070.0 6.6374e-08
1090.0 7.3954e-08
1110.0 8.1728e-08
1130.0 8.9553e-08
1150.0 9.7749e-08
1170.0 1.062e-07
1190.0 1.1422e-07
1210.0 1.2235e-07
1230.0 1.3074e-07
1250.0 1.3897e-07
1270.0 1.4696e-07
1290.0 1.554e-07
1310.0 1.6383e-07
1330.0 1.7192e-07
1350.0 1.8011e-07
1370.0 1.8855e-07
1390.0 1.9679e-07
1410.0 2.0478e-07
1430.0 2.1313e-07
1450.0 2.2148e-07
1470.0 2.2956e-07
1490.0 2.3772e-07
1510.0 2.4634e-07
1530.0 2.5451e-07
1550.0 2.6257e-07
1570.0 2.7091e-07
1590.0 2.7926e-07
1610.0 2.8725e-07
1630.0 2.9548e-07
1650.0 3.0393e-07
1670.0 3.1211e-07
1690.0 3.2019e-07
1710.0 3.2859e-07
1730.0 3.3704e-07
1750.0 3.4499e-07
1770.0 3.5319e-07
1790.0 3.6156e-07
1810.0 3.6967e-07
1830.0 3.7766e-07
1850.0 3.8614e-07
1870.0 3.9442e-07
1890.0 4.0244e-07
1910.0 4.1063e-07
1930.0 4.1904e-07
1950.0 4.2708e-07
1970.0 4.3504e-07
1990.0 4.4332e-07
2010.0 4.5149e-07
2030.0 4.5938e-07
2050.0 4.6753e-07
2070.0 4.759e-07
2090.0 4.8382e-07
2110.0 4.9173e-07
2130.0 4.999e-07
2150.0 5.0792e-07
2170.0 5.1562e-07
2190.0 5.2362e-07
2210.0 5.3168e-07
2230.0 5.3943e-07
2250.0 5.4716e-07
2270.0 5.5524e-07
2290.0 5.6308e-07
2310.0 5.7062e-07
2330.0 5.7847e-07
2350.0 5.8652e-07
2370.0 5.9454e-07
2390.0 6.0324e-07
2410.0 6.1353e-07
2430.0 6.2537e-07
2450.0 6.3952e-07
2470.0 6.5765e-07
2490.0 6.8051e-07
2510.0 7.0648e-07
2530.0 7.3776e-07
2550.0 7.769e-07
2570.0 8.2559e-07
2590.0 8.8894e-07
2610.0 9.8377e-07
2630.0 1.1192e-06
2650.0 1.2962e-06
2670.0 1.5251e-06
2690.0 1.8064e-06
2710.0 2.1066e-06
2730.0 2.4033e-06
2750.0 2.6956e-06
2770.0 2.9497e-06
2790.0 3.1516e-06
2810.0 3.3118e-06
2830.0 3.4369e-06
2850.0 3.5223e-06
2870.0 3.5851e-06
2890.0 3.6347e-06
2910.0 3.6743e-06
2930.0 3.7067e-06
2950.0 3.7376e-06
2970.0 3.7678e-06
2990.0 3.7962e-06
3010.0 0.0001073
3030.0 0.0001081
3050.0 0.00010888
3070.0 0.00010954
3090.0 0.00011011
3110.0 0.00011047
3130.0 0.00011045
3150.0 0.00010996
3170.0 0.00010878
3190.0 0.00010693
3210.0 0.00010459
3230.0 0.0001019
3250.0 9.9255e-05
3270.0 9.7318e-05
3290.0 9.6243e-05
3310.0 9.6417e-05
3330.0 9.7813e-05
3350.0 0.00010024
3370.0 0.00010371
3390.0 0.00010808
3410.0 0.00011284
3430.0 0.00011819
3450.0 0.00012434
3470.0 0.00013105
3490.0 0.00013817
3510.0 0.00014622
3530.0 0.00015483
3550.0 0.00016355
3570.0 0.00017265
3590.0 0.00018255
3610.0 0.00019274
3630.0 0.00020291
3650.0 0.00021345
3670.0 0.00022308
3690.0 0.00023028
3710.0 0.00023441
3730.0 0.00023454
3750.0 0.00023128
3770.0 0.00023
3790.0 0.00022863
3810.0 0.00022301
3830.0 0.00022991
3850.0 0.00025707
3870.0 0.00027198
3890.0 0.00027073
3910.0 0.00027189
3930.0 0.00027905
3950.0 0.00028345
3970.0 0.00025825
3990.0 0.00022221
4010.0 0.000666
4030.0 0.00080695
4050.0 0.00092512
4070.0 0.0008027
4090.0 0.000727
4110.0 0.00064151
4130.0 0.00059045
4150.0 0.00062806
4170.0 0.00061866
4190.0 0.00065945
4210.0 0.00065342
4230.0 0.00069114
4250.0 0.00081764
4270.0 0.00082725
4290.0 0.0007623
4310.0 0.00079208
4330.0 0.00084254
4350.0 0.0009447
4370.0 0.0010751
4390.0 0.0010088
4410.0 0.00074536
4430.0 0.00063099
4450.0 0.00057981
4470.0 0.00044502
4490.0 0.00048024
4510.0 0.00072541
4530.0 0.00083662
4550.0 0.00084388
4570.0 0.00094957
4590.0 0.0010817
4610.0 0.0014589
4630.0 0.0018948
4650.0 0.0020549
4670.0 0.001903
4690.0 0.0018158
4710.0 0.0019195
4730.0 0.0018114
4750.0 0.0013543
4770.0 0.0009934
4790.0 0.00092764
4810.0 0.0008842
4830.0 0.00080948
4850.0 0.00088826
4870.0 0.0011735
4890.0 0.0013839
4910.0 0.0012142
4930.0 0.0010744
4950.0 0.0011803
4970.0 0.0015137
4990.0 0.0020515
5010.0 0.0023599
5030.0 0.0020809
5050.0 0.0014079
5070.0 0.00092784
5090.0 0.00074816
5110.0 0.00076942
5130.0 0.00088803
5150.0 0.00096211
5170.0 0.00094767
5190.0 0.00088554
5210.0 0.00092558
5230.0 0.00097297
5250.0 0.0010486
5270.0 0.0011313
5290.0 0.0012537
5310.0 0.0014592
5330.0 0.0016148
5350.0 0.0016045
5370.0 0.0016853
5390.0 0.0019339
5410.0 0.0019321
5430.0 0.0017086
5450.0 0.0015698
5470.0 0.0016668
5490.0 0.0020364
5510.0 0.0025461
5530.0 0.0029202
5550.0 0.0028224
5570.0 0.0025657
5590.0 0.0022308
5610.0 0.0020573
5630.0 0.0019949
5650.0 0.0018999
5670.0 0.0018003
5690.0 0.0016094
5710.0 0.0015692
5730.0 0.0014454
5750.0 0.0010191
5770.0 0.00079503
5790.0 0.00090093
5810.0 0.0010173
5830.0 0.0012483
5850.0 0.001486
5870.0 0.0016487
5890.0 0.0016766
5910.0 0.0016448
5930.0 0.0015656
5950.0 0.0015953
5970.0 0.0018184
5990.0 0.0017098
6010.0 0.0014333
6030.0 0.0012109
6050.0 0.0010546
6070.0 0.0010488
6090.0 0.0011372
6110.0 0.0012716
6130.0 0.0012911
6150.0 0.0011109
6170.0 0.00097722
6190.0 0.0010997
6210.0 0.0014538
6230.0 0.0019078
6250.0 0.0020665
6270.0 0.0018058
6290.0 0.0015193
6310.0 0.0011861
6330.0 0.00090877
6350.0 0.0008106
6370.0 0.00085243
6390.0 0.00098546
6410.0 0.0012151
6430.0 0.0014189
6450.0 0.0016236
6470.0 0.0018591
6490.0 0.0022456
6510.0 0.0025109
6530.0 0.0024634
6550.0 0.0022276
6570.0 0.001891
6590.0 0.0017052
6610.0 0.0014703
6630.0 0.001332
6650.0 0.0012591
6670.0 0.0012232
6690.0 0.0011052
6710.0 0.0010047
6730.0 0.00072365
6750.0 0.00071743
6770.0 0.00077981
6790.0 0.00089633
6810.0 0.00082015
6830.0 0.00084453
6850.0 0.0007899
6870.0 0.00072158
6890.0 0.00069282
6910.0 0.00073829
6930.0 0.00069152
6950.0 0.00071146
6970.0 0.00074832
6990.0 0.00084941
7010.0 0.00085664
7030.0 0.00087025
7050.0 0.00082992
7070.0 0.00079077
7090.0 0.00079308
7110.0 0.00081602
7130.0 0.00087817
7150.0 0.00093269
7170.0 0.0010292
7190.0 0.0011313
7210.0 0.0011117
7230.0 0.0011428
7250.0 0.0012281
7270.0 0.0013384
7290.0 0.0015885
7310.0 0.0017237
7330.0 0.0016661
7350.0 0.0015069
7370.0 0.0013111
7390.0 0.001272
7410.0 0.0013517
7430.0 0.0015022
7450.0 0.0016362
7470.0 0.0016212
7490.0 0.0014782
7510.0 0.0016745
7530.0 0.0016561
7550.0 0.0014886
7570.0 0.0011629
7590.0 0.00079944
7610.0 0.00068617
7630.0 0.00077963
7650.0 0.00092182
7670.0 0.0011473
7690.0 0.0012625
7710.0 0.0013157
7730.0 0.0013827
7750.0 0.0015522
7770.0 0.0015766
7790.0 0.0014482
7810.0 0.0013214
7830.0 0.0013627
7850.0 0.0013247
7870.0 0.0012146
7890.0 0.0010205
7910.0 0.0008295
7930.0 0.00079206
7950.0 0.0007216
7970.0 0.00066798
7990.0 0.00066417
8010.0 4.973e-05
8030.0 4.9019e-05
8050.0 4.8418e-05
8070.0 4.9166e-05
8090.0 5.299e-05
8110.0 5.2055e-05
8130.0 4.267e-05
8150.0 4.1621e-05
8170.0 3.5631e-05
8190.0 3.3614e-05
8210.0 4.4039e-05
8230.0 4.91e-05
8250.0 4.3863e-05
8270.0 3.8126e-05
8290.0 3.744e-05
8310.0 2.8884e-05
8330.0 1.9449e-05
8350.0 1.3821e-05
8370.0 8.5953e-06
8390.0 1.5907e-05
8410.0 1.8526e-05
8430.0 2.2835e-05
8450.0 2.6805e-05
8470.0 3.3479e-05
8490.0 3.3149e-05
8510.0 3.2505e-05
8530.0 3.3725e-05
8550.0 4.5935e-05
8570.0 5.4605e-05
8590.0 5.8531e-05
8610.0 7.4118e-05
8630.0 8.918e-05
8650.0 9.2729e-05
8670.0 9.8807e-05
8690.0 9.985e-05
8710.0 9.0344e-05
8730.0 8.4199e-05
8750.0 7.4187e-05
8770.0 7.0327e-05
8790.0 6.9199e-05
8810.0 6.6438e-05
8830.0 5.2856e-05
8850.0 3.8489e-05
8870.0 2.9438e-05
8890.0 2.9066e-05
8910.0 3.3516e-05
8930.0 3.827e-05
8950.0 3.9062e-05
8970.0 3.9197e-05
8990.0 3.4785e-05
9010.0 0.00035811
9030.0 0.00032428
9050.0 0.00032587
9070.0 0.00032847
9090.0 0.00033075
9110.0 0.00033356
9130.0 0.00033573
9150.0 0.00033742
9170.0 0.00033921
9190.0 0.00034113
9210.0 0.00034315
9230.0 0.00034528
9250.0 0.00034744
9270.0 0.00034969
9290.0 0.000352
9310.0 0.00035433
9330.0 0.0003567
9350.0 0.00035917
9370.0 0.00036166
9390.0 0.00036417
9410.0 0.00036676
9430.0 0.00036942
9450.0 0.00037208
9470.0 0.00037479
9490.0 0.00037757
9510.0 0.00038039
9530.0 0.00038323
9550.0 0.00038616
9570.0 0.00038914
9590.0 0.00039213
9610.0 0.00039518
9630.0 0.0003983
9650.0 0.00040145
9670.0 0.00040461
9690.0 0.00040785
9710.0 0.00041114
9730.0 0.00041444
9750.0 0.00041779
9770.0 0.00042124
9790.0 0.00042468
9810.0 0.00042814
9830.0 0.00043167
9850.0 0.00043525
9870.0 0.00043881
9890.0 0.00044243
9910.0 0.00044612
9930.0 0.00044981
9950.0 0.00045352
9970.0 0.0004573
9990.0 0.00046111
10010.0 0.00040014
10030.0 0.00040344
10050.0 0.00040681
10070.0 0.00041028
10090.0 0.00041357
10110.0 0.00041693
10130.0 0.00042031
10150.0 0.00042367
10170.0 0.00042708
10190.0 0.00043054
10210.0 0.00043397
10230.0 0.00043738
10250.0 0.00044085
10270.0 0.00044432
10290.0 0.00044774
10310.0 0.00045121
10330.0 0.00045471
10350.0 0.00045815
10370.0 0.00046158
10390.0 0.00046506
10410.0 0.00046851
10430.0 0.00047189
10450.0 0.00047531
10470.0 0.00047874
10490.0 0.00048212
10510.0 0.00048546
10530.0 0.00048887
10550.0 0.00049221
10570.0 0.00049549
10590.0 0.00049878
10610.0 0.00050208
10630.0 0.00050528
10650.0 0.00050847
10670.0 0.00051169
10690.0 0.00051484
10710.0 0.00051793
10730.0 0.00052102
10750.0 0.00052412
10770.0 0.00052709
10790.0 0.00053004
10810.0 0.00053298
10830.0 0.00053583
10850.0 0.00053854
10870.0 0.00054117
10890.0 0.00054348
10910.0 0.00054526
10930.0 0.00054627
10950.0 0.00054604
10970.0 0.00054419
10990.0 0.00054057
11010.0 0.00053379
11030.0 0.0005253
11050.0 0.00051495
11070.0 0.00050257
11090.0 0.0004877
11110.0 0.00047232
11130.0 0.00045628
11150.0 0.000439
11170.0 0.0004212
11190.0 0.00040393
11210.0 0.00038609
11230.0 0.0003678
11250.0 0.00035032
11270.0 0.00033354
11290.0 0.00031672
11310.0 0.00030079
11330.0 0.00028677
11350.0 0.00027351
11370.0 0.00026127
11390.0 0.00025067
11410.0 0.00024141
11430.0 0.0002328
11450.0 0.00022537
11470.0 0.00021896
11490.0 0.00021299
11510.0 0.00020724
11530.0 0.0002019
11550.0 0.00019659
11570.0 0.00019094
11590.0 0.00018508
11610.0 0.00017911
11630.0 0.00017262
11650.0 0.00016567
11670.0 0.00015883
11690.0 0.00015188
11710.0 0.00014472
11730.0 0.00013777
11750.0 0.00013135
11770.0 0.00012505
11790.0 0.00011914
11810.0 0.00011394
11830.0 0.00010929
11850.0 0.00010501
11870.0 0.00010143
11890.0 9.8452e-05
11910.0 9.5836e-05
11930.0 9.3587e-05
11950.0 9.1714e-05
11970.0 9.0041e-05
11990.0 8.8459e-05
12010.0 8.6996e-05
12030.0 8.5585e-05
12050.0 8.4128e-05
12070.0 8.2612e-05
12090.0 8.115e-05
12110.0 7.9666e-05
12130.0 7.8179e-05
12150.0 7.6808e-05
12170.0 7.5612e-05
12190.0 7.4577e-05
12210.0 7.3855e-05
12230.0 7.3506e-05
12250.0 7.3562e-05
12270.0 7.4117e-05
12290.0 7.5165e-05
12310.0 7.6669e-05
12330.0 7.8774e-05
12350.0 8.14e-05
12370.0 8.439e-05
12390.0 8.7838e-05
12410.0 9.1878e-05
12430.0 9.5984e-05
12450.0 0.00010024
12470.0 0.00010476
12490.0 0.0001093
12510.0 0.00011356
12530.0 0.00011779
12550.0 0.00012188
12570.0 0.00012549
12590.0 0.00012866
12610.0 0.00013148
12630.0 0.00013373
12650.0 0.00013529
12670.0 0.00013631
12690.0 0.00013672
12710.0 0.00013649
12730.0 0.0001357
12750.0 0.00013429
12770.0 0.00013235
12790.0 0.00013
12810.0 0.0001272
12830.0 0.00012395
12850.0 0.00012056
12870.0 0.00011697
12890.0 0.00011309
12910.0 0.00010914
12930.0 0.00010525
12950.0 0.00010119
12970.0 9.7057e-05
12990.0 9.3147e-05
13010.0 8.9286e-05
13030.0 8.5382e-05
13050.0 8.1632e-05
13070.0 7.812e-05
13090.0 7.4595e-05
13110.0 7.1185e-05
13130.0 6.804e-05
13150.0 6.5063e-05
13170.0 6.2148e-05
13190.0 5.9553e-05
13210.0 5.727e-05
13230.0 5.5183e-05
13250.0 5.3385e-05
13270.0 5.1968e-05
13290.0 5.0865e-05
13310.0 5.0105e-05
13330.0 4.976e-05
13350.0 4.98e-05
13370.0 5.0246e-05
13390.0 5.1124e-05
13410.0 5.231e-05
13430.0 5.3851e-05
13450.0 5.5755e-05
13470.0 5.7869e-05
13490.0 6.0108e-05
13510.0 6.2633e-05
13530.0 6.5192e-05
13550.0 6.7642e-05
13570.0 7.0058e-05
13590.0 7.2412e-05
13610.0 7.4507e-05
13630.0 7.6335e-05
13650.0 7.8004e-05
13670.0 7.939e-05
13690.0 8.0462e-05
13710.0 8.129e-05
13730.0 8.1883e-05
13750.0 8.2178e-05
13770.0 8.2246e-05
13790.0 8.2096e-05
13810.0 8.1734e-05
13830.0 8.1198e-05
13850.0 8.0473e-05
13870.0 7.9558e-05
13890.0 7.8511e-05
13910.0 7.7332e-05
13930.0 7.5967e-05
13950.0 7.4477e-05
13970.0 7.2953e-05
13990.0 7.1293e-05
14010.0 6.9529e-05
14030.0 6.7768e-05
14050.0 6.5994e-05
14070.0 6.4122e-05
14090.0 6.2327e-05
14110.0 6.0641e-05
14130.0 5.9006e-05
14150.0 5.7468e-05
14170.0 5.6154e-05
14190.0 5.5019e-05
14210.0 5.4056e-05
14230.0 5.3342e-05
14250.0 5.2881e-05
14270.0 5.2658e-05
14290.0 5.2705e-05
14310.0 5.2999e-05
14330.0 5.3526e-05
14350.0 5.4303e-05
14370.0 5.527e-05
14390.0 5.6368e-05
14410.0 5.7662e-05
14430.0 5.9083e-05
14450.0 6.0534e-05
14470.0 6.2039e-05
14490.0 6.364e-05
14510.0 6.517e-05
14530.0 6.6624e-05
14550.0 6.8077e-05
14570.0 6.9473e-05
14590.0 7.0743e-05
14610.0 7.1971e-05
14630.0 7.3186e-05
14650.0 7.4319e-05
14670.0 7.5412e-05
14690.0 7.6552e-05
14710.0 7.7751e-05
14730.0 7.8949e-05
14750.0 8.0277e-05
14770.0 8.1783e-05
14790.0 8.3416e-05
14810.0 8.5185e-05
14830.0 8.7281e-05
14850.0 8.956e-05
14870.0 9.1937e-05
14890.0 9.4501e-05
14910.0 9.7225e-05
14930.0 9.9844e-05
14950.0 0.00010229
14970.0 0.00010461
14990.0 0.00010655
15010.0 0.00010804
15030.0 0.00010914
15050.0 0.00010986
15070.0 0.00011022
15090.0 0.00011034
15110.0 0.00011031
15130.0 0.00011017
15150.0 0.00010998
15170.0 0.00010976
15190.0 0.00010953
15210.0 0.00010929
15230.0 0.00010906
15250.0 0.00010882
15270.0 0.00010858
15290.0 0.00010836
15310.0 0.00010813
15330.0 0.00010789
15350.0 0.00010767
15370.0 0.00010744
15390.0 0.00010721
15410.0 0.00010698
15430.0 0.00010676
15450.0 0.00010654
15470.0 0.00010631
15490.0 0.00010609
15510.0 0.00010588
15530.0 0.00010565
15550.0 0.00010543
15570.0 0.00010522
15590.0 0.000105
15610.0 0.00010478
15630.0 0.00010457
15650.0 0.00010436
15670.0 0.00010414
15690.0 0.00010393
15710.0 0.00010372
15730.0 0.00010351
15750.0 0.00010329
15770.0 0.00010308
15790.0 0.00010288
15810.0 0.00010266
15830.0 0.00010245
15850.0 0.00010225
15870.0 0.00010204
15890.0 0.00010183
15910.0 0.00010162
15930.0 0.00010142
15950.0 0.0001012
15970.0 0.000101
15990.0 0.0001008
16010.0 0.00010059
16030.0 0.00010038
16050.0 0.00010018
16070.0 9.9974e-05
16090.0 9.9764e-05
16110.0 9.9561e-05
16130.0 9.9363e-05
16150.0 9.915e-05
16170.0 9.8941e-05
16190.0 9.8741e-05
16210.0 9.8537e-05
16230.0 9.8326e-05
16250.0 9.8124e-05
16270.0 9.7925e-05
16290.0 9.7715e-05
16310.0 9.7508e-05
16330.0 9.7308e-05
16350.0 9.7103e-05
16370.0 9.6887e-05
16390.0 9.6685e-05
16410.0 9.6484e-05
16430.0 9.6273e-05
16450.0 9.6066e-05
16470.0 9.5867e-05
16490.0 9.5658e-05
16510.0 9.5445e-05
16530.0 9.5241e-05
16550.0 9.5036e-05
16570.0 9.4822e-05
16590.0 9.461e-05
16610.0 9.4409e-05
16630.0 9.4199e-05
16650.0 9.3986e-05
16670.0 9.378e-05
16690.0 9.3574e-05
16710.0 9.3355e-05
16730.0 9.3143e-05
16750.0 9.2937e-05
16770.0 9.2723e-05
16790.0 9.2504e-05
16810.0 9.2297e-05
16830.0 9.2087e-05
16850.0 9.1869e-05
16870.0 9.1655e-05
16890.0 9.1446e-05
16910.0 9.1226e-05
16930.0 9.1004e-05
16950.0 9.0792e-05
16970.0 9.0578e-05
16990.0 9.0355e-05
17010.0 9.0138e-05
17030.0 8.9927e-05
17050.0 8.9704e-05
17070.0 8.9481e-05
17090.0 8.9265e-05
17110.0 8.9047e-05
17130.0 8.8816e-05
17150.0 8.8596e-05
17170.0 8.8379e-05
17190.0 8.8154e-05
17210.0 8.7928e-05
17230.0 8.771e-05
17250.0 8.7486e-05
17270.0 8.7254e-05
17290.0 8.7029e-05
17310.0 8.6807e-05
17330.0 8.6576e-05
17350.0 8.6343e-05
17370.0 8.6123e-05
17390.0 8.5895e-05
17410.0 8.5661e-05
17430.0 8.5434e-05
17450.0 8.521e-05
17470.0 8.4971e-05
17490.0 8.4736e-05
17510.0 8.451e-05
17530.0 8.4277e-05
17550.0 8.4038e-05
17570.0 8.3808e-05
17590.0 8.3579e-05
17610.0 8.3339e-05
17630.0 8.3102e-05
17650.0 8.2872e-05
17670.0 8.2635e-05
17690.0 8.2387e-05
17710.0 8.2155e-05
17730.0 8.1921e-05
17750.0 8.1678e-05
17770.0 8.1438e-05
17790.0 8.1207e-05
17810.0 8.0963e-05
17830.0 8.0717e-05
17850.0 8.048e-05
17870.0 8.0241e-05
17890.0 7.9993e-05
17910.0 7.9747e-05
17930.0 7.9512e-05
17950.0 7.9268e-05
17970.0 7.902e-05
17990.0 7.8781e-05
18010.0 7.854e-05
18030.0 7.8285e-05
18050.0 7.8039e-05
18070.0 7.7799e-05
18090.0 7.755e-05
18110.0 7.7297e-05
18130.0 7.7056e-05
18150.0 7.6812e-05
18170.0 7.6559e-05
18190.0 7.6311e-05
18210.0 7.6069e-05
18230.0 7.5814e-05
18250.0 7.5558e-05
18270.0 7.5314e-05
18290.0 7.5066e-05
18310.0 7.4811e-05
18330.0 7.4561e-05
18350.0 7.4318e-05
18370.0 7.4061e-05
18390.0 7.3807e-05
18410.0 7.3559e-05
18430.0 7.3308e-05
18450.0 7.3047e-05
18470.0 7.2796e-05
18490.0 7.2549e-05
18510.0 7.2293e-05
18530.0 7.2037e-05
18550.0 7.1791e-05
18570.0 7.1536e-05
18590.0 7.1275e-05
18610.0 7.1023e-05
18630.0 7.0772e-05
18650.0 7.0513e-05
18670.0 7.0254e-05
18690.0 7.0007e-05
18710.0 6.9752e-05
18730.0 6.9492e-05
18750.0 6.9239e-05
18770.0 6.899e-05
18790.0 6.8725e-05
18810.0 6.8467e-05
18830.0 6.8216e-05
18850.0 6.796e-05
18870.0 6.7698e-05
18890.0 6.7446e-05
18910.0 6.7195e-05
18930.0 6.6933e-05
18950.0 6.6675e-05
18970.0 6.6424e-05
18990.0 6.6167e-05
19010.0 6.5899e-05
19030.0 6.5648e-05
19050.0 6.5395e-05
19070.0 6.5134e-05
19090.0 6.4877e-05
19110.0 6.4628e-05
19130.0 6.4367e-05
19150.0 6.4105e-05
19170.0 6.3852e-05
19190.0 6.3597e-05
19210.0 6.3334e-05
19230.0 6.3075e-05
19250.0 6.2826e-05
19270.0 6.2567e-05
19290.0 6.2307e-05
19310.0 6.2055e-05
19330.0 6.1802e-05
19350.0 6.1535e-05
19370.0 6.1279e-05
19390.0 6.1028e-05
19410.0 6.0768e-05
19430.0 6.0507e-05
19450.0 6.0257e-05
19470.0 6.0003e-05
19490.0 5.9741e-05
19510.0 5.9486e-05
19530.0 5.9236e-05
19550.0 5.8975e-05
19570.0 5.8712e-05
19590.0 5.8463e-05
19610.0 5.8208e-05
19630.0 5.7948e-05
19650.0 5.7694e-05
19670.0 5.7446e-05
19690.0 5.7185e-05
19710.0 5.6927e-05
19730.0 5.6677e-05
19750.0 5.6423e-05
19770.0 5.6159e-05
19790.0 5.5907e-05
19810.0 5.5657e-05
19830.0 5.5398e-05
19850.0 5.5138e-05
19870.0 5.4883e-05
19890.0 5.4609e-05
19910.0 5.4308e-05
19930.0 5.3986e-05
19950.0 5.3617e-05
19970.0 5.3163e-05
19990.0 5.2617e-05
20010.0 4.6813e-05
20030.0 4.6135e-05
20050.0 4.5342e-05
20070.0 4.4483e-05
20090.0 4.3559e-05
20110.0 4.2514e-05
20130.0 4.1455e-05
20150.0 4.0406e-05
20170.0 3.9319e-05
20190.0 3.8216e-05
20210.0 3.7174e-05
20230.0 3.6158e-05
20250.0 3.514e-05
20270.0 3.4195e-05
20290.0 3.3332e-05
20310.0 3.2512e-05
20330.0 3.1746e-05
20350.0 3.1109e-05
20370.0 3.0545e-05
20390.0 3.005e-05
20410.0 2.965e-05
20430.0 2.9342e-05
20450.0 2.9097e-05
20470.0 2.8934e-05
20490.0 2.8846e-05
20510.0 2.8821e-05
20530.0 2.8856e-05
20550.0 2.8945e-05
20570.0 2.9075e-05
20590.0 2.925e-05
20610.0 2.9463e-05
20630.0 2.9697e-05
20650.0 2.9959e-05
20670.0 3.0258e-05
20690.0 3.0563e-05
20710.0 3.0879e-05
20730.0 3.1219e-05
20750.0 3.1574e-05
20770.0 3.1924e-05
20790.0 3.2291e-05
20810.0 3.2679e-05
20830.0 3.3065e-05
20850.0 3.3453e-05
20870.0 3.3868e-05
20890.0 3.4292e-05
20910.0 3.47e-05
20930.0 3.5124e-05
20950.0 3.5563e-05
20970.0 3.5991e-05
20990.0 3.6414e-05
21010.0 3.6858e-05
21030.0 3.7293e-05
21050.0 3.7707e-05
21070.0 3.8121e-05
21090.0 3.8536e-05
21110.0 3.8915e-05
21130.0 3.927e-05
21150.0 3.9615e-05
21170.0 3.9927e-05
21190.0 4.0195e-05
21210.0 4.0437e-05
21230.0 4.0637e-05
21250.0 4.078e-05
21270.0 4.0871e-05
21290.0 4.0905e-05
21310.0 4.0873e-05
21330.0 4.0776e-05
21350.0 4.0607e-05
21370.0 4.0358e-05
21390.0 4.0042e-05
21410.0 3.9655e-05
21430.0 3.9165e-05
21450.0 3.8615e-05
21470.0 3.8016e-05
21490.0 3.7338e-05
21510.0 3.6595e-05
21530.0 3.584e-05
21550.0 3.5049e-05
21570.0 3.4205e-05
21590.0 3.3375e-05
21610.0 3.2573e-05
21630.0 3.177e-05
21650.0 3.0986e-05
21670.0 3.0306e-05
21690.0 2.968e-05
21710.0 2.9115e-05
21730.0 2.8652e-05
21750.0 2.8296e-05
21770.0 2.8024e-05
21790.0 2.7868e-05
21810.0 2.7824e-05
21830.0 2.7886e-05
21850.0 2.806e-05
21870.0 2.8332e-05
21890.0 2.8683e-05
21910.0 2.9134e-05
21930.0 2.9662e-05
21950.0 3.0234e-05
21970.0 3.0868e-05
21990.0 3.158e-05
22010.0 3.2291e-05
22030.0 3.3013e-05
22050.0 3.3772e-05
22070.0 3.4534e-05
22090.0 3.5257e-05
22110.0 3.5985e-05
22130.0 3.6711e-05
22150.0 3.739e-05
22170.0 3.803e-05
22190.0 3.8665e-05
22210.0 3.9255e-05
22230.0 3.9774e-05
22250.0 4.0263e-05
22270.0 4.0714e-05
22290.0 4.1099e-05
22310.0 4.1429e-05
22330.0 4.172e-05
22350.0 4.1945e-05
22370.0 4.2103e-05
22390.0 4.2203e-05
22410.0 4.2234e-05
22430.0 4.2194e-05
22450.0 4.2085e-05
22470.0 4.1897e-05
22490.0 4.1633e-05
22510.0 4.1305e-05
22530.0 4.0884e-05
22550.0 4.0372e-05
22570.0 3.9804e-05
22590.0 3.9164e-05
22610.0 3.8428e-05
22630.0 3.763e-05
22650.0 3.6807e-05
22670.0 3.5895e-05
22690.0 3.4923e-05
22710.0 3.3941e-05
22730.0 3.293e-05
