#lamb flux
1010.0 9.1279e-08
1030.0 9.7178e-08
1050.0 1.0399e-07
1070.0 1.1168e-07
1090.0 1.2041e-07
1110.0 1.2938e-07
1130.0 1.3844e-07
1150.0 1.4796e-07
1170.0 1.578e-07
1190.0 1.6717e-07
1210.0 1.7671e-07
1230.0 1.8659e-07
1250.0 1.9633e-07
1270.0 2.0584e-07
1290.0 2.1591e-07
1310.0 2.2603e-07
1330.0 2.3581e-07
1350.0 2.4574e-07
1370.0 2.5605e-07
1390.0 2.6617e-07
1410.0 2.7606e-07
1430.0 2.8645e-07
1450.0 2.969e-07
1470.0 3.0708e-07
1490.0 3.1743e-07
1510.0 3.2838e-07
1530.0 3.3885e-07
1550.0 3.4924e-07
1570.0 3.6e-07
1590.0 3.7081e-07
1610.0 3.812e-07
1630.0 3.919e-07
1650.0 4.0287e-07
1670.0 4.1349e-07
1690.0 4.2396e-07
1710.0 4.3477e-07
1730.0 4.4559e-07
1750.0 4.5571e-07
1770.0 4.6603e-07
1790.0 4.7645e-07
1810.0 4.8641e-07
1830.0 4.9606e-07
1850.0 5.0614e-07
1870.0 5.1578e-07
1890.0 5.2488e-07
1910.0 5.3398e-07
1930.0 5.431e-07
1950.0 5.5153e-07
1970.0 5.5961e-07
1990.0 5.6782e-07
2010.0 5.7561e-07
2030.0 5.8282e-07
2050.0 5.9009e-07
2070.0 5.9736e-07
2090.0 6.0385e-07
2110.0 6.1012e-07
2130.0 6.1647e-07
2150.0 6.2247e-07
2170.0 6.2792e-07
2190.0 6.3359e-07
2210.0 6.392e-07
2230.0 6.4437e-07
2250.0 6.4946e-07
2270.0 6.5492e-07
2290.0 6.6011e-07
2310.0 6.6497e-07
2330.0 6.7018e-07
2350.0 6.7556e-07
2370.0 6.8071e-07
2390.0 6.861e-07
2410.0 6.9206e-07
2430.0 6.9798e-07
2450.0 7.0399e-07
2470.0 7.1064e-07
2490.0 7.1819e-07
2510.0 7.268e-07
2530.0 7.3892e-07
2550.0 7.586e-07
2570.0 7.9033e-07
2590.0 8.3947e-07
2610.0 9.1949e-07
2630.0 1.0348e-06
2650.0 1.1803e-06
2670.0 1.3586e-06
2690.0 1.5643e-06
2710.0 1.7715e-06
2730.0 1.9671e-06
2750.0 2.1543e-06
2770.0 2.3176e-06
2790.0 2.4546e-06
2810.0 2.577e-06
2830.0 2.6942e-06
2850.0 2.801e-06
2870.0 2.9073e-06
2890.0 3.02e-06
2910.0 3.1368e-06
2930.0 3.2542e-06
2950.0 3.3801e-06
2970.0 3.5133e-06
2990.0 3.6477e-06
3010.0 1.2907e-05
3030.0 1.34e-05
3050.0 1.389e-05
3070.0 1.4333e-05
3090.0 1.4707e-05
3110.0 1.4912e-05
3130.0 1.4823e-05
3150.0 1.4311e-05
3170.0 1.3111e-05
3190.0 1.1199e-05
3210.0 8.6126e-06
3230.0 5.7098e-06
3250.0 8.7535e-06
3270.0 5.4742e-06
3290.0 1.2601e-05
3310.0 4.9674e-06
3330.0 4.9175e-06
3350.0 5.8893e-06
3370.0 7.0518e-06
3390.0 8.323e-06
3410.0 9.5967e-06
3430.0 1.0939e-05
3450.0 1.2294e-05
3470.0 1.3544e-05
3490.0 1.4419e-05
3510.0 1.7314e-05
3530.0 2.2421e-05
3550.0 2.1841e-05
3570.0 1.801e-05
3590.0 2.4379e-05
3610.0 1.5778e-05
3630.0 2.5693e-05
3650.0 2.9928e-05
3670.0 3.8054e-05
3690.0 3.5333e-05
3710.0 2.3659e-05
3730.0 3.0535e-05
3750.0 3.1267e-05
3770.0 3.3557e-05
3790.0 3.2563e-05
3810.0 3.3522e-05
3830.0 5.2686e-05
3850.0 6.4671e-05
3870.0 7.975e-05
3890.0 7.7503e-05
3910.0 6.927e-05
3930.0 7.0162e-05
3950.0 7.5786e-05
3970.0 8.3563e-05
3990.0 5.3581e-05
4010.0 2.9004e-05
4030.0 5.1577e-05
4050.0 6.8222e-05
4070.0 7.2984e-05
4090.0 5.1049e-05
4110.0 3.2312e-05
4130.0 5.3144e-05
4150.0 5.4256e-05
4170.0 5.0503e-05
4190.0 4.5826e-05
4210.0 6.4863e-05
4230.0 4.7786e-05
4250.0 5.1773e-05
4270.0 5.1435e-05
4290.0 4.8731e-05
4310.0 6.247e-05
4330.0 6.7502e-05
4350.0 5.6242e-05
4370.0 4.7479e-05
4390.0 5.7866e-05
4410.0 5.9264e-05
4430.0 4.3575e-05
4450.0 3.9538e-05
4470.0 4.8863e-05
4490.0 3.7384e-05
4510.0 5.2183e-05
4530.0 5.4234e-05
4550.0 6.4361e-05
4570.0 9.0735e-05
4590.0 8.9731e-05
4610.0 7.1146e-05
4630.0 0.00011354
4650.0 0.00015131
4670.0 0.0001443
4690.0 0.00010204
4710.0 0.00010821
4730.0 0.00012257
4750.0 0.00010097
4770.0 7.7191e-05
4790.0 5.2096e-05
4810.0 7.1109e-05
4830.0 8.3748e-05
4850.0 7.3614e-05
4870.0 3.0946e-05
4890.0 8.3534e-05
4910.0 0.00010952
4930.0 0.00011903
4950.0 0.00012265
4970.0 8.6154e-05
4990.0 0.00010026
5010.0 0.00011645
5030.0 0.00012482
5050.0 0.00011653
5070.0 8.2402e-05
5090.0 6.6856e-05
5110.0 6.4631e-05
5130.0 6.1408e-05
5150.0 6.3964e-05
5170.0 5.7077e-05
5190.0 6.8049e-05
5210.0 6.92e-05
5230.0 7.6881e-05
5250.0 9.1562e-05
5270.0 7.6142e-05
5290.0 7.9422e-05
5310.0 0.00011709
5330.0 0.00013501
5350.0 0.00011365
5370.0 0.0001025
5390.0 0.00011929
5410.0 0.00014278
5430.0 0.00015257
5450.0 0.00016098
5470.0 0.00016257
5490.0 0.00016793
5510.0 0.00020163
5530.0 0.00021009
5550.0 0.00022252
5570.0 0.00023436
5590.0 0.00023106
5610.0 0.00021701
5630.0 0.00021253
5650.0 0.00022049
5670.0 0.00021611
5690.0 0.00018561
5710.0 0.00018418
5730.0 0.00018505
5750.0 0.00019304
5770.0 0.00016679
5790.0 0.00015963
5810.0 0.00016406
5830.0 0.00017764
5850.0 0.00016592
5870.0 0.00016726
5890.0 0.0001957
5910.0 0.00018318
5930.0 0.00015177
5950.0 0.00013756
5970.0 0.00015041
5990.0 0.00013703
6010.0 0.00012547
6030.0 0.00012304
6050.0 0.00011269
6070.0 8.732e-05
6090.0 8.3043e-05
6110.0 0.00010654
6130.0 0.00011955
6150.0 0.00012349
6170.0 0.00012009
6190.0 0.00011454
6210.0 0.00011943
6230.0 0.00014493
6250.0 0.00013392
6270.0 0.00012041
6290.0 0.00010945
6310.0 9.9135e-05
6330.0 9.1962e-05
6350.0 8.2193e-05
6370.0 8.3307e-05
6390.0 9.6937e-05
6410.0 0.00012036
6430.0 0.00014227
6450.0 0.00014282
6470.0 0.00014441
6490.0 0.00017637
6510.0 0.00020249
6530.0 0.00019242
6550.0 0.00018257
6570.0 0.00018521
6590.0 0.00018254
6610.0 0.0001932
6630.0 0.00018017
6650.0 0.00015654
6670.0 0.0001444
6690.0 0.00014315
6710.0 0.00016944
6730.0 0.00015087
6750.0 0.00012409
6770.0 0.00011202
6790.0 0.00011901
6810.0 0.00013667
6830.0 0.00013604
6850.0 0.00012201
6870.0 0.00012637
6890.0 0.00012559
6910.0 0.00011803
6930.0 0.00013104
6950.0 0.0001219
6970.0 0.00011356
6990.0 0.0001132
7010.0 0.00011403
7030.0 0.00011076
7050.0 0.00010606
7070.0 0.00011375
7090.0 0.00010595
7110.0 8.983e-05
7130.0 7.7158e-05
7150.0 7.5771e-05
7170.0 9.5669e-05
7190.0 0.00010143
7210.0 9.6171e-05
7230.0 0.00010114
7250.0 9.8236e-05
7270.0 9.5825e-05
7290.0 0.00010381
7310.0 0.00011379
7330.0 0.00011087
7350.0 0.00010286
7370.0 9.5153e-05
7390.0 9.5438e-05
7410.0 0.00010966
7430.0 0.00012347
7450.0 0.00013145
7470.0 0.00013334
7490.0 0.00014832
7510.0 0.00014645
7530.0 0.00013241
7550.0 0.00012516
7570.0 0.000108
7590.0 0.00010267
7610.0 9.9021e-05
7630.0 9.108e-05
7650.0 9.77e-05
7670.0 0.00010808
7690.0 0.00011749
7710.0 0.00013386
7730.0 0.00014019
7750.0 0.00014544
7770.0 0.00015096
7790.0 0.00016351
7810.0 0.00016447
7830.0 0.00014739
7850.0 0.00014777
7870.0 0.00014207
7890.0 0.00014525
7910.0 0.0001366
7930.0 0.00013541
7950.0 0.00011354
7970.0 0.00011374
7990.0 0.00010976
8010.0 0.00011907
8030.0 0.00011838
8050.0 0.00012555
8070.0 0.00012026
8090.0 0.00012055
8110.0 0.00011849
8130.0 0.00011693
8150.0 0.0001096
8170.0 0.00010733
8190.0 0.00010685
8210.0 0.00010769
8230.0 9.4018e-05
8250.0 8.5797e-05
8270.0 7.5683e-05
8290.0 6.4227e-05
8310.0 5.647e-05
8330.0 4.4646e-05
8350.0 3.6078e-05
8370.0 3.4767e-05
8390.0 3.3643e-05
8410.0 3.5142e-05
8430.0 4.5116e-05
8450.0 4.9042e-05
8470.0 5.2683e-05
8490.0 6.1534e-05
8510.0 6.6837e-05
8530.0 7.5857e-05
8550.0 8.9562e-05
8570.0 9.8193e-05
8590.0 0.00010308
8610.0 0.00011427
8630.0 0.00012975
8650.0 0.00013285
8670.0 0.00013536
8690.0 0.0001402
8710.0 0.00013721
8730.0 0.00013263
8750.0 0.00012198
8770.0 0.00012178
8790.0 0.00011982
8810.0 0.00010998
8830.0 0.00010991
8850.0 0.00010046
8870.0 9.561e-05
8890.0 8.5493e-05
8910.0 9.5117e-05
8930.0 8.5872e-05
8950.0 8.5931e-05
8970.0 8.758e-05
8990.0 8.4892e-05
9010.0 8.7104e-05
9030.0 8.2686e-05
9050.0 8.2285e-05
9070.0 8.2321e-05
9090.0 8.234e-05
9110.0 8.2415e-05
9130.0 8.241e-05
9150.0 8.2364e-05
9170.0 8.2093e-05
9190.0 8.1492e-05
9210.0 8.2781e-05
9230.0 8.2416e-05
9250.0 8.2206e-05
9270.0 8.2028e-05
9290.0 8.187e-05
9310.0 8.1723e-05
9330.0 8.1579e-05
9350.0 8.1436e-05
9370.0 8.1288e-05
9390.0 8.1132e-05
9410.0 8.0972e-05
9430.0 8.0807e-05
9450.0 8.0633e-05
9470.0 8.0453e-05
9490.0 8.027e-05
9510.0 8.0082e-05
9530.0 7.9887e-05
9550.0 7.9692e-05
9570.0 7.9495e-05
9590.0 7.9292e-05
9610.0 7.9088e-05
9630.0 7.8884e-05
9650.0 7.8679e-05
9670.0 7.8469e-05
9690.0 7.8262e-05
9710.0 7.8057e-05
9730.0 7.7847e-05
9750.0 7.764e-05
9770.0 7.7441e-05
9790.0 7.7237e-05
9810.0 7.7033e-05
9830.0 7.6836e-05
9850.0 7.6642e-05
9870.0 7.6445e-05
9890.0 7.6253e-05
9910.0 7.6069e-05
9930.0 7.5883e-05
9950.0 7.5582e-05
9970.0 7.5444e-05
9990.0 7.5306e-05
10010.0 7.5159e-05
10030.0 7.501e-05
10050.0 7.4834e-05
10070.0 7.4515e-05
10090.0 7.4426e-05
10110.0 7.4336e-05
10130.0 7.4233e-05
10150.0 7.4127e-05
10170.0 7.4013e-05
10190.0 7.3893e-05
10210.0 7.3781e-05
10230.0 7.3675e-05
10250.0 7.3567e-05
10270.0 7.3465e-05
10290.0 7.3374e-05
10310.0 7.3283e-05
10330.0 7.3193e-05
10350.0 7.3116e-05
10370.0 7.3043e-05
10390.0 7.2972e-05
10410.0 7.2907e-05
10430.0 7.2853e-05
10450.0 7.2799e-05
10470.0 7.2749e-05
10490.0 7.2707e-05
10510.0 7.2671e-05
10530.0 7.2634e-05
10550.0 7.2604e-05
10570.0 7.2583e-05
10590.0 7.2564e-05
10610.0 7.2548e-05
10630.0 7.254e-05
10650.0 7.2536e-05
10670.0 7.2532e-05
10690.0 7.2535e-05
10710.0 7.2544e-05
10730.0 7.2555e-05
10750.0 7.2568e-05
10770.0 7.2589e-05
10790.0 7.2613e-05
10810.0 7.2638e-05
10830.0 7.2664e-05
10850.0 7.2691e-05
10870.0 7.2702e-05
10890.0 7.2685e-05
10910.0 7.2624e-05
10930.0 7.2479e-05
10950.0 7.2188e-05
10970.0 7.1722e-05
10990.0 7.1065e-05
11010.0 7.2296e-05
11030.0 7.1035e-05
11050.0 6.9553e-05
11070.0 6.7838e-05
11090.0 6.5848e-05
11110.0 6.3863e-05
11130.0 6.1878e-05
11150.0 5.9845e-05
11170.0 5.787e-05
11190.0 5.6071e-05
11210.0 5.4337e-05
11230.0 5.2686e-05
11250.0 5.1225e-05
11270.0 4.9921e-05
11290.0 4.8701e-05
11310.0 4.7615e-05
11330.0 4.67e-05
11350.0 4.5854e-05
11370.0 4.5068e-05
11390.0 4.436e-05
11410.0 4.3695e-05
11430.0 4.3003e-05
11450.0 4.2318e-05
11470.0 4.1634e-05
11490.0 4.0905e-05
11510.0 4.0111e-05
11530.0 3.9313e-05
11550.0 3.8485e-05
11570.0 3.7587e-05
11590.0 3.6668e-05
11610.0 3.5759e-05
11630.0 3.4802e-05
11650.0 3.3814e-05
11670.0 3.2875e-05
11690.0 3.1948e-05
11710.0 3.1005e-05
11730.0 3.0097e-05
11750.0 2.9254e-05
11770.0 2.8407e-05
11790.0 2.7584e-05
11810.0 2.6824e-05
11830.0 2.6098e-05
11850.0 2.5367e-05
11870.0 2.4691e-05
11890.0 2.4066e-05
11910.0 2.3446e-05
11930.0 2.2841e-05
11950.0 2.228e-05
11970.0 2.1729e-05
11990.0 2.1169e-05
12010.0 2.0639e-05
12030.0 2.0134e-05
12050.0 1.9627e-05
12070.0 1.9127e-05
12090.0 1.8679e-05
12110.0 1.8248e-05
12130.0 1.7834e-05
12150.0 1.7468e-05
12170.0 1.7156e-05
12190.0 1.6874e-05
12210.0 1.6657e-05
12230.0 1.6513e-05
12250.0 1.6437e-05
12270.0 1.6438e-05
12290.0 1.652e-05
12310.0 1.6677e-05
12330.0 1.6918e-05
12350.0 1.7235e-05
12370.0 1.7607e-05
12390.0 1.8038e-05
12410.0 1.8539e-05
12430.0 1.9046e-05
12450.0 1.9564e-05
12470.0 2.0101e-05
12490.0 2.0627e-05
12510.0 2.1109e-05
12530.0 2.1575e-05
12550.0 2.2009e-05
12570.0 2.2386e-05
12590.0 2.2712e-05
12610.0 2.2999e-05
12630.0 2.3232e-05
12650.0 2.3409e-05
12670.0 2.3545e-05
12690.0 2.3639e-05
12710.0 2.3692e-05
12730.0 2.3712e-05
12750.0 2.3696e-05
12770.0 2.365e-05
12790.0 2.3581e-05
12810.0 2.3483e-05
12830.0 2.3355e-05
12850.0 2.3211e-05
12870.0 2.3044e-05
12890.0 2.2843e-05
12910.0 2.2618e-05
12930.0 2.2375e-05
12950.0 2.2091e-05
12970.0 2.177e-05
12990.0 2.1437e-05
13010.0 2.1078e-05
13030.0 2.068e-05
13050.0 2.0268e-05
13070.0 1.9859e-05
13090.0 1.9421e-05
13110.0 1.8977e-05
13130.0 1.8554e-05
13150.0 1.8144e-05
13170.0 1.7733e-05
13190.0 1.7368e-05
13210.0 1.705e-05
13230.0 1.6762e-05
13250.0 1.652e-05
13270.0 1.6335e-05
13290.0 1.6195e-05
13310.0 1.6096e-05
13330.0 1.6046e-05
13350.0 1.6032e-05
13370.0 1.6046e-05
13390.0 1.6081e-05
13410.0 1.6126e-05
13430.0 1.6171e-05
13450.0 1.6208e-05
13470.0 1.6229e-05
13490.0 1.6228e-05
13510.0 1.6199e-05
13530.0 1.614e-05
13550.0 1.6057e-05
13570.0 1.5947e-05
13590.0 1.5812e-05
13610.0 1.5664e-05
13630.0 1.5511e-05
13650.0 1.5345e-05
13670.0 1.518e-05
13690.0 1.5026e-05
13710.0 1.4877e-05
13730.0 1.4732e-05
13750.0 1.4606e-05
13770.0 1.4491e-05
13790.0 1.4382e-05
13810.0 1.428e-05
13830.0 1.4186e-05
13850.0 1.4091e-05
13870.0 1.3992e-05
13890.0 1.3892e-05
13910.0 1.3788e-05
13930.0 1.3673e-05
13950.0 1.3552e-05
13970.0 1.3432e-05
13990.0 1.3305e-05
14010.0 1.3175e-05
14030.0 1.3051e-05
14050.0 1.2931e-05
14070.0 1.2813e-05
14090.0 1.2708e-05
14110.0 1.2616e-05
14130.0 1.2535e-05
14150.0 1.2466e-05
14170.0 1.2413e-05
14190.0 1.2373e-05
14210.0 1.2346e-05
14230.0 1.2333e-05
14250.0 1.2331e-05
14270.0 1.2343e-05
14290.0 1.237e-05
14310.0 1.2406e-05
14330.0 1.2454e-05
14350.0 1.2516e-05
14370.0 1.2587e-05
14390.0 1.2663e-05
14410.0 1.275e-05
14430.0 1.2843e-05
14450.0 1.2934e-05
14470.0 1.3027e-05
14490.0 1.3126e-05
14510.0 1.3218e-05
14530.0 1.3306e-05
14550.0 1.3398e-05
14570.0 1.3492e-05
14590.0 1.3584e-05
14610.0 1.3685e-05
14630.0 1.3801e-05
14650.0 1.3926e-05
14670.0 1.4064e-05
14690.0 1.4227e-05
14710.0 1.4416e-05
14730.0 1.4613e-05
14750.0 1.4838e-05
14770.0 1.5093e-05
14790.0 1.536e-05
14810.0 1.5636e-05
14830.0 1.5946e-05
14850.0 1.6259e-05
14870.0 1.656e-05
14890.0 1.6861e-05
14910.0 1.7156e-05
14930.0 1.7415e-05
14950.0 1.7634e-05
14970.0 1.7823e-05
14990.0 1.7959e-05
15010.0 1.804e-05
15030.0 1.8077e-05
15050.0 1.8074e-05
15070.0 1.8034e-05
15090.0 1.7972e-05
15110.0 1.7895e-05
15130.0 1.7808e-05
15150.0 1.7718e-05
15170.0 1.7623e-05
15190.0 1.7528e-05
15210.0 1.7433e-05
15230.0 1.7338e-05
15250.0 1.7242e-05
15270.0 1.7147e-05
15290.0 1.7053e-05
15310.0 1.6959e-05
15330.0 1.6864e-05
15350.0 1.6771e-05
15370.0 1.6678e-05
15390.0 1.6583e-05
15410.0 1.649e-05
15430.0 1.6398e-05
15450.0 1.6306e-05
15470.0 1.6213e-05
15490.0 1.6122e-05
15510.0 1.6031e-05
15530.0 1.594e-05
15550.0 1.5849e-05
15570.0 1.576e-05
15590.0 1.567e-05
15610.0 1.5579e-05
15630.0 1.5491e-05
15650.0 1.5403e-05
15670.0 1.5314e-05
15690.0 1.5227e-05
15710.0 1.5141e-05
15730.0 1.5054e-05
15750.0 1.4967e-05
15770.0 1.4882e-05
15790.0 1.4797e-05
15810.0 1.4711e-05
15830.0 1.4627e-05
15850.0 1.4544e-05
15870.0 1.446e-05
15890.0 1.4377e-05
15910.0 1.4296e-05
15930.0 1.4214e-05
15950.0 1.4132e-05
15970.0 1.4051e-05
15990.0 1.3972e-05
16010.0 1.3891e-05
16030.0 1.3811e-05
16050.0 1.3734e-05
16070.0 1.3656e-05
16090.0 1.3577e-05
16110.0 1.35e-05
16130.0 1.3425e-05
16150.0 1.3347e-05
16170.0 1.3271e-05
16190.0 1.3197e-05
16210.0 1.3122e-05
16230.0 1.3047e-05
16250.0 1.2974e-05
16270.0 1.2901e-05
16290.0 1.2828e-05
16310.0 1.2756e-05
16330.0 1.2685e-05
16350.0 1.2614e-05
16370.0 1.2541e-05
16390.0 1.2472e-05
16410.0 1.2403e-05
16430.0 1.2333e-05
16450.0 1.2264e-05
16470.0 1.2197e-05
16490.0 1.2129e-05
16510.0 1.2061e-05
16530.0 1.1994e-05
16550.0 1.1928e-05
16570.0 1.1861e-05
16590.0 1.1795e-05
16610.0 1.1731e-05
16630.0 1.1667e-05
16650.0 1.1602e-05
16670.0 1.1539e-05
16690.0 1.1476e-05
16710.0 1.1412e-05
16730.0 1.135e-05
16750.0 1.1288e-05
16770.0 1.1226e-05
16790.0 1.1164e-05
16810.0 1.1104e-05
16830.0 1.1045e-05
16850.0 1.0984e-05
16870.0 1.0924e-05
16890.0 1.0866e-05
16910.0 1.0807e-05
16930.0 1.0747e-05
16950.0 1.069e-05
16970.0 1.0632e-05
16990.0 1.0574e-05
17010.0 1.0518e-05
17030.0 1.0462e-05
17050.0 1.0405e-05
17070.0 1.0349e-05
17090.0 1.0294e-05
17110.0 1.0239e-05
17130.0 1.0183e-05
17150.0 1.0129e-05
17170.0 1.0075e-05
17190.0 1.0021e-05
17210.0 9.9672e-06
17230.0 9.915e-06
17250.0 9.8622e-06
17270.0 9.8086e-06
17290.0 9.7566e-06
17310.0 9.7052e-06
17330.0 9.653e-06
17350.0 9.6009e-06
17370.0 9.551e-06
17390.0 9.5003e-06
17410.0 9.4492e-06
17430.0 9.3994e-06
17450.0 9.3504e-06
17470.0 9.2995e-06
17490.0 9.2498e-06
17510.0 9.2015e-06
17530.0 9.1527e-06
17550.0 9.1033e-06
17570.0 9.0555e-06
17590.0 9.0083e-06
17610.0 8.9598e-06
17630.0 8.9121e-06
17650.0 8.8656e-06
17670.0 8.8185e-06
17690.0 8.7703e-06
17710.0 8.7245e-06
17730.0 8.6787e-06
17750.0 8.6321e-06
17770.0 8.5862e-06
17790.0 8.5418e-06
17810.0 8.4959e-06
17830.0 8.4501e-06
17850.0 8.4056e-06
17870.0 8.3614e-06
17890.0 8.316e-06
17910.0 8.2714e-06
17930.0 8.2285e-06
17950.0 8.1845e-06
17970.0 8.1404e-06
17990.0 8.0977e-06
18010.0 8.0551e-06
18030.0 8.0108e-06
18050.0 7.9681e-06
18070.0 7.9262e-06
18090.0 7.8836e-06
18110.0 7.8407e-06
18130.0 7.7996e-06
18150.0 7.7582e-06
18170.0 7.716e-06
18190.0 7.6747e-06
18210.0 7.6344e-06
18230.0 7.5927e-06
18250.0 7.551e-06
18270.0 7.5112e-06
18290.0 7.471e-06
18310.0 7.4301e-06
18330.0 7.3902e-06
18350.0 7.3513e-06
18370.0 7.311e-06
18390.0 7.271e-06
18410.0 7.2323e-06
18430.0 7.1933e-06
18450.0 7.1531e-06
18470.0 7.1146e-06
18490.0 7.0767e-06
18510.0 7.0379e-06
18530.0 6.9993e-06
18550.0 6.9621e-06
18570.0 6.9241e-06
18590.0 6.8853e-06
18610.0 6.848e-06
18630.0 6.811e-06
18650.0 6.7732e-06
18670.0 6.7354e-06
18690.0 6.6995e-06
18710.0 6.6627e-06
18730.0 6.6255e-06
18750.0 6.5894e-06
18770.0 6.5538e-06
18790.0 6.5164e-06
18810.0 6.4801e-06
18830.0 6.445e-06
18850.0 6.4092e-06
18870.0 6.3729e-06
18890.0 6.3381e-06
18910.0 6.3035e-06
18930.0 6.2676e-06
18950.0 6.2325e-06
18970.0 6.1985e-06
18990.0 6.1636e-06
19010.0 6.1277e-06
19030.0 6.0941e-06
19050.0 6.0604e-06
19070.0 6.0257e-06
19090.0 5.9917e-06
19110.0 5.959e-06
19130.0 5.9248e-06
19150.0 5.8906e-06
19170.0 5.8576e-06
19190.0 5.8247e-06
19210.0 5.7907e-06
19230.0 5.7575e-06
19250.0 5.7256e-06
19270.0 5.6927e-06
19290.0 5.6597e-06
19310.0 5.6279e-06
19330.0 5.596e-06
19350.0 5.5625e-06
19370.0 5.5305e-06
19390.0 5.4992e-06
19410.0 5.4671e-06
19430.0 5.4347e-06
19450.0 5.404e-06
19470.0 5.3728e-06
19490.0 5.3408e-06
19510.0 5.3098e-06
19530.0 5.2795e-06
19550.0 5.2478e-06
19570.0 5.2161e-06
19590.0 5.1862e-06
19610.0 5.1558e-06
19630.0 5.1246e-06
19650.0 5.0945e-06
19670.0 5.0651e-06
19690.0 5.0343e-06
19710.0 5.0038e-06
19730.0 4.9745e-06
19750.0 4.9448e-06
19770.0 4.9139e-06
19790.0 4.8846e-06
19810.0 4.8558e-06
19830.0 4.8258e-06
19850.0 4.7958e-06
19870.0 4.7665e-06
19890.0 4.7351e-06
19910.0 4.7007e-06
19930.0 4.6643e-06
19950.0 4.623e-06
19970.0 4.5728e-06
19990.0 4.5135e-06
20010.0 4.4477e-06
20030.0 4.3701e-06
20050.0 4.282e-06
20070.0 4.1902e-06
20090.0 4.0954e-06
20110.0 3.9929e-06
20130.0 3.8946e-06
20150.0 3.8021e-06
20170.0 3.7112e-06
20190.0 3.6239e-06
20210.0 3.5458e-06
20230.0 3.4736e-06
20250.0 3.405e-06
20270.0 3.3449e-06
20290.0 3.2932e-06
20310.0 3.2471e-06
20330.0 3.2075e-06
20350.0 3.1782e-06
20370.0 3.1558e-06
20390.0 3.1406e-06
20410.0 3.1338e-06
20430.0 3.1348e-06
20450.0 3.1438e-06
20470.0 3.1612e-06
20490.0 3.1859e-06
20510.0 3.218e-06
20530.0 3.2589e-06
20550.0 3.3058e-06
20570.0 3.3568e-06
20590.0 3.4151e-06
20610.0 3.4781e-06
20630.0 3.5419e-06
20650.0 3.6085e-06
20670.0 3.6794e-06
20690.0 3.7467e-06
20710.0 3.8113e-06
20730.0 3.8754e-06
20750.0 3.936e-06
20770.0 3.9897e-06
20790.0 4.0399e-06
20810.0 4.0865e-06
20830.0 4.1269e-06
20850.0 4.1622e-06
20870.0 4.1947e-06
20890.0 4.2234e-06
20910.0 4.2477e-06
20930.0 4.2701e-06
20950.0 4.2908e-06
20970.0 4.3091e-06
20990.0 4.3256e-06
21010.0 4.3412e-06
21030.0 4.3546e-06
21050.0 4.3656e-06
21070.0 4.3742e-06
21090.0 4.3801e-06
21110.0 4.3826e-06
21130.0 4.3818e-06
21150.0 4.3775e-06
21170.0 4.3697e-06
21190.0 4.3591e-06
21210.0 4.345e-06
21230.0 4.3278e-06
21250.0 4.3091e-06
21270.0 4.2887e-06
21290.0 4.2664e-06
21310.0 4.2435e-06
21330.0 4.2215e-06
21350.0 4.1989e-06
21370.0 4.1767e-06
21390.0 4.1564e-06
21410.0 4.1376e-06
21430.0 4.1194e-06
21450.0 4.104e-06
21470.0 4.0911e-06
21490.0 4.0802e-06
21510.0 4.0716e-06
21530.0 4.0658e-06
21550.0 4.0625e-06
21570.0 4.0617e-06
21590.0 4.0637e-06
21610.0 4.0682e-06
21630.0 4.0756e-06
21650.0 4.0863e-06
21670.0 4.0991e-06
21690.0 4.115e-06
21710.0 4.1343e-06
21730.0 4.1564e-06
21750.0 4.1807e-06
21770.0 4.2097e-06
21790.0 4.2418e-06
21810.0 4.2758e-06
21830.0 4.3133e-06
21850.0 4.3551e-06
21870.0 4.3988e-06
21890.0 4.4436e-06
21910.0 4.4927e-06
21930.0 4.544e-06
21950.0 4.5952e-06
21970.0 4.6485e-06
21990.0 4.7052e-06
22010.0 4.7597e-06
22030.0 4.8133e-06
22050.0 4.8677e-06
22070.0 4.9207e-06
22090.0 4.9693e-06
22110.0 5.0164e-06
22130.0 5.061e-06
22150.0 5.1001e-06
22170.0 5.1341e-06
22190.0 5.1639e-06
22210.0 5.187e-06
22230.0 5.2026e-06
22250.0 5.2116e-06
22270.0 5.213e-06
22290.0 5.2066e-06
22310.0 5.1927e-06
22330.0 5.1696e-06
22350.0 5.1384e-06
22370.0 5.1005e-06
22390.0 5.054e-06
22410.0 4.9981e-06
22430.0 4.9381e-06
22450.0 4.8723e-06
22470.0 4.7983e-06
22490.0 4.7201e-06
22510.0 4.6405e-06
22530.0 4.5541e-06
22550.0 4.4633e-06
22570.0 4.3746e-06
22590.0 4.2848e-06
22610.0 4.1917e-06
