#lamb flux
1010.0 7.9191e-08
1030.0 8.545e-08
1050.0 9.2663e-08
1070.0 1.0079e-07
1090.0 1.1002e-07
1110.0 1.195e-07
1130.0 1.2905e-07
1150.0 1.3907e-07
1170.0 1.4941e-07
1190.0 1.5925e-07
1210.0 1.6923e-07
1230.0 1.7956e-07
1250.0 1.897e-07
1270.0 1.9958e-07
1290.0 2.1004e-07
1310.0 2.2051e-07
1330.0 2.3058e-07
1350.0 2.408e-07
1370.0 2.5136e-07
1390.0 2.617e-07
1410.0 2.7177e-07
1430.0 2.8231e-07
1450.0 2.9289e-07
1470.0 3.0315e-07
1490.0 3.1355e-07
1510.0 3.2454e-07
1530.0 3.35e-07
1550.0 3.4535e-07
1570.0 3.5606e-07
1590.0 3.6679e-07
1610.0 3.7708e-07
1630.0 3.8767e-07
1650.0 3.9853e-07
1670.0 4.0905e-07
1690.0 4.1941e-07
1710.0 4.3014e-07
1730.0 4.4089e-07
1750.0 4.5097e-07
1770.0 4.6128e-07
1790.0 4.7174e-07
1810.0 4.8179e-07
1830.0 4.9158e-07
1850.0 5.0188e-07
1870.0 5.118e-07
1890.0 5.2125e-07
1910.0 5.3078e-07
1930.0 5.4041e-07
1950.0 5.4942e-07
1970.0 5.5816e-07
1990.0 5.6711e-07
2010.0 5.7572e-07
2030.0 5.8379e-07
2050.0 5.9198e-07
2070.0 6.0023e-07
2090.0 6.0772e-07
2110.0 6.15e-07
2130.0 6.2237e-07
2150.0 6.2937e-07
2170.0 6.3576e-07
2190.0 6.4233e-07
2210.0 6.4877e-07
2230.0 6.5465e-07
2250.0 6.6033e-07
2270.0 6.6624e-07
2290.0 6.717e-07
2310.0 6.7662e-07
2330.0 6.8168e-07
2350.0 6.8667e-07
2370.0 6.9116e-07
2390.0 6.9561e-07
2410.0 7.0037e-07
2430.0 7.048e-07
2450.0 7.0904e-07
2470.0 7.1374e-07
2490.0 7.1925e-07
2510.0 7.2579e-07
2530.0 7.3614e-07
2550.0 7.5478e-07
2570.0 7.864e-07
2590.0 8.365e-07
2610.0 9.1924e-07
2630.0 1.0382e-06
2650.0 1.1869e-06
2670.0 1.3668e-06
2690.0 1.5714e-06
2710.0 1.7723e-06
2730.0 1.9561e-06
2750.0 2.1259e-06
2770.0 2.2662e-06
2790.0 2.3756e-06
2810.0 2.4664e-06
2830.0 2.5478e-06
2850.0 2.6164e-06
2870.0 2.6818e-06
2890.0 2.7502e-06
2910.0 2.8198e-06
2930.0 2.8878e-06
2950.0 2.9607e-06
2970.0 3.0374e-06
2990.0 3.1131e-06
3010.0 1.767e-05
3030.0 1.8116e-05
3050.0 1.8555e-05
3070.0 1.8938e-05
3090.0 1.9258e-05
3110.0 1.9421e-05
3130.0 1.9314e-05
3150.0 1.883e-05
3170.0 1.7751e-05
3190.0 1.6065e-05
3210.0 1.382e-05
3230.0 1.1322e-05
3250.0 1.3612e-05
3270.0 1.098e-05
3290.0 1.666e-05
3310.0 1.0652e-05
3330.0 1.0715e-05
3350.0 1.1649e-05
3370.0 1.2799e-05
3390.0 1.4088e-05
3410.0 1.539e-05
3430.0 1.6767e-05
3450.0 1.818e-05
3470.0 1.9512e-05
3490.0 2.0546e-05
3510.0 2.3212e-05
3530.0 2.7617e-05
3550.0 2.7436e-05
3570.0 2.4668e-05
3590.0 3.0093e-05
3610.0 2.3728e-05
3630.0 3.2197e-05
3650.0 3.6164e-05
3670.0 4.2994e-05
3690.0 4.0823e-05
3710.0 3.1253e-05
3730.0 3.6403e-05
3750.0 3.6851e-05
3770.0 3.9953e-05
3790.0 4.1135e-05
3810.0 4.5536e-05
3830.0 6.7351e-05
3850.0 8.446e-05
3870.0 0.00010187
3890.0 0.00010306
3910.0 9.6154e-05
3930.0 9.674e-05
3950.0 0.00010209
3970.0 0.00010011
3990.0 6.0758e-05
4010.0 3.6954e-05
4030.0 6.4506e-05
4050.0 8.8234e-05
4070.0 8.7077e-05
4090.0 5.4034e-05
4110.0 3.8725e-05
4130.0 6.5334e-05
4150.0 7.1458e-05
4170.0 6.1307e-05
4190.0 5.2415e-05
4210.0 7.5974e-05
4230.0 6.457e-05
4250.0 6.4295e-05
4270.0 6.3868e-05
4290.0 5.8203e-05
4310.0 7.2597e-05
4330.0 8.2103e-05
4350.0 7.8738e-05
4370.0 7.0224e-05
4390.0 7.7638e-05
4410.0 7.5423e-05
4430.0 5.5845e-05
4450.0 4.5853e-05
4470.0 5.5939e-05
4490.0 4.8893e-05
4510.0 7.0535e-05
4530.0 7.257e-05
4550.0 7.7319e-05
4570.0 0.00010095
4590.0 0.00011044
4610.0 0.00011589
4630.0 0.00016297
4650.0 0.00019099
4670.0 0.00018988
4690.0 0.00016629
4710.0 0.00016794
4730.0 0.00016019
4750.0 0.0001224
4770.0 9.7318e-05
4790.0 7.226e-05
4810.0 8.4474e-05
4830.0 9.8468e-05
4850.0 9.4217e-05
4870.0 6.8533e-05
4890.0 0.00011265
4910.0 0.00012646
4930.0 0.00013783
4950.0 0.00015476
4970.0 0.00014152
4990.0 0.00016158
5010.0 0.00017308
5030.0 0.000168
5050.0 0.0001421
5070.0 0.0001016
5090.0 8.4351e-05
5110.0 8.4301e-05
5130.0 8.5573e-05
5150.0 8.32e-05
5170.0 7.8101e-05
5190.0 8.5888e-05
5210.0 8.8198e-05
5230.0 9.7527e-05
5250.0 0.00010823
5270.0 9.827e-05
5290.0 0.0001101
5310.0 0.00014608
5330.0 0.00016289
5350.0 0.00014691
5370.0 0.00014259
5390.0 0.00015828
5410.0 0.00016866
5430.0 0.00016976
5450.0 0.00017757
5470.0 0.00018954
5490.0 0.00021477
5510.0 0.00025753
5530.0 0.00026808
5550.0 0.00027303
5570.0 0.0002757
5590.0 0.00026701
5610.0 0.00025184
5630.0 0.000251
5650.0 0.00026072
5670.0 0.00025298
5690.0 0.0002247
5710.0 0.0002224
5730.0 0.00021194
5750.0 0.0002007
5770.0 0.00017654
5790.0 0.00018041
5810.0 0.00018993
5830.0 0.00020818
5850.0 0.00020117
5870.0 0.00019877
5890.0 0.00021429
5910.0 0.00019845
5930.0 0.00017574
5950.0 0.00017026
5970.0 0.00018073
5990.0 0.00016094
6010.0 0.00013987
6030.0 0.00012711
6050.0 0.00011539
6070.0 0.00010111
6090.0 0.00010407
6110.0 0.00012146
6130.0 0.00012713
6150.0 0.00012936
6170.0 0.00013175
6190.0 0.00013583
6210.0 0.0001514
6230.0 0.00017931
6250.0 0.00016638
6270.0 0.00014681
6290.0 0.00012909
6310.0 0.00011032
6330.0 9.8965e-05
6350.0 9.2678e-05
6370.0 9.7191e-05
6390.0 0.00010989
6410.0 0.00013355
6430.0 0.00016227
6450.0 0.0001796
6470.0 0.0001929
6490.0 0.00022389
6510.0 0.0002485
6530.0 0.00023903
6550.0 0.00022794
6570.0 0.00023051
6590.0 0.00022975
6610.0 0.00023296
6630.0 0.00021854
6650.0 0.00019436
6670.0 0.00018496
6690.0 0.00018212
6710.0 0.00019478
6730.0 0.0001712
6750.0 0.00014429
6770.0 0.00013761
6790.0 0.00014665
6810.0 0.00016596
6830.0 0.00016732
6850.0 0.00015226
6870.0 0.00015385
6890.0 0.00015228
6910.0 0.00014327
6930.0 0.00014987
6950.0 0.00014404
6970.0 0.00013916
6990.0 0.00014147
7010.0 0.00014806
7030.0 0.00014545
7050.0 0.00013537
7070.0 0.00013508
7090.0 0.00012163
7110.0 0.0001043
7130.0 9.8209e-05
7150.0 0.00010205
7170.0 0.00011673
7190.0 0.00011944
7210.0 0.00011487
7230.0 0.00012416
7250.0 0.00012937
7270.0 0.00013147
7290.0 0.00013662
7310.0 0.00014096
7330.0 0.00013444
7350.0 0.00012468
7370.0 0.00011551
7390.0 0.00011369
7410.0 0.00012677
7430.0 0.00014567
7450.0 0.00015822
7470.0 0.00016893
7490.0 0.00019425
7510.0 0.0001924
7530.0 0.00016372
7550.0 0.00014592
7570.0 0.0001234
7590.0 0.00011122
7610.0 0.00010783
7630.0 0.00010387
7650.0 0.00011184
7670.0 0.00012608
7690.0 0.00013791
7710.0 0.00015744
7730.0 0.00016365
7750.0 0.00016945
7770.0 0.00018033
7790.0 0.00019048
7810.0 0.00018863
7830.0 0.00017125
7850.0 0.00017069
7870.0 0.00016572
7890.0 0.0001623
7910.0 0.0001513
7930.0 0.00014588
7950.0 0.00012161
7970.0 0.00011891
7990.0 0.00011759
8010.0 0.00013399
8030.0 0.00013385
8050.0 0.00014173
8070.0 0.00013708
8090.0 0.00013749
8110.0 0.00013522
8130.0 0.00013134
8150.0 0.00012218
8170.0 0.00012055
8190.0 0.00012109
8210.0 0.00012227
8230.0 0.00010872
8250.0 0.0001001
8270.0 8.8297e-05
8290.0 7.4622e-05
8310.0 6.3965e-05
8330.0 4.9144e-05
8350.0 3.8799e-05
8370.0 3.6548e-05
8390.0 3.632e-05
8410.0 3.9294e-05
8430.0 5.0527e-05
8450.0 5.5458e-05
8470.0 5.9891e-05
8490.0 6.915e-05
8510.0 7.5086e-05
8530.0 8.4471e-05
8550.0 9.9891e-05
8570.0 0.00011053
8590.0 0.00011697
8610.0 0.00013164
8630.0 0.00015114
8650.0 0.0001562
8670.0 0.00015956
8690.0 0.00016348
8710.0 0.00015968
8730.0 0.00015354
8750.0 0.00014135
8770.0 0.00014061
8790.0 0.0001377
8810.0 0.00012676
8830.0 0.00012478
8850.0 0.00011204
8870.0 0.00010562
8890.0 9.5145e-05
8910.0 0.00010649
8930.0 9.7255e-05
8950.0 9.8233e-05
8970.0 0.00010057
8990.0 9.8316e-05
9010.0 0.00010044
9030.0 9.5509e-05
9050.0 9.5117e-05
9070.0 9.5204e-05
9090.0 9.5279e-05
9110.0 9.5422e-05
9130.0 9.5481e-05
9150.0 9.5495e-05
9170.0 9.5283e-05
9190.0 9.475e-05
9210.0 9.6172e-05
9230.0 9.5862e-05
9250.0 9.5721e-05
9270.0 9.562e-05
9290.0 9.5545e-05
9310.0 9.5485e-05
9330.0 9.5432e-05
9350.0 9.5385e-05
9370.0 9.5336e-05
9390.0 9.5281e-05
9410.0 9.5225e-05
9430.0 9.517e-05
9450.0 9.5104e-05
9470.0 9.5035e-05
9490.0 9.4968e-05
9510.0 9.4896e-05
9530.0 9.4818e-05
9550.0 9.4747e-05
9570.0 9.4674e-05
9590.0 9.4596e-05
9610.0 9.4519e-05
9630.0 9.4448e-05
9650.0 9.4375e-05
9670.0 9.4296e-05
9690.0 9.4225e-05
9710.0 9.4158e-05
9730.0 9.4086e-05
9750.0 9.4018e-05
9770.0 9.3963e-05
9790.0 9.3902e-05
9810.0 9.3842e-05
9830.0 9.3791e-05
9850.0 9.3744e-05
9870.0 9.3693e-05
9890.0 9.3649e-05
9910.0 9.3615e-05
9930.0 9.3579e-05
9950.0 9.3436e-05
9970.0 9.3447e-05
9990.0 9.3458e-05
10010.0 9.3457e-05
10030.0 9.3457e-05
10050.0 9.3422e-05
10070.0 9.3185e-05
10090.0 9.3269e-05
10110.0 9.335e-05
10130.0 9.3411e-05
10150.0 9.3463e-05
10170.0 9.3503e-05
10190.0 9.3532e-05
10210.0 9.3568e-05
10230.0 9.3608e-05
10250.0 9.3644e-05
10270.0 9.3684e-05
10290.0 9.3734e-05
10310.0 9.3782e-05
10330.0 9.3829e-05
10350.0 9.3887e-05
10370.0 9.3949e-05
10390.0 9.4008e-05
10410.0 9.4072e-05
10430.0 9.4146e-05
10450.0 9.4216e-05
10470.0 9.4287e-05
10490.0 9.4366e-05
10510.0 9.4447e-05
10530.0 9.4522e-05
10550.0 9.4603e-05
10570.0 9.4691e-05
10590.0 9.4776e-05
10610.0 9.4861e-05
10630.0 9.4952e-05
10650.0 9.5043e-05
10670.0 9.513e-05
10690.0 9.5221e-05
10710.0 9.5316e-05
10730.0 9.5407e-05
10750.0 9.5496e-05
10770.0 9.5592e-05
10790.0 9.5686e-05
10810.0 9.5776e-05
10830.0 9.5863e-05
10850.0 9.5945e-05
10870.0 9.6e-05
10890.0 9.6011e-05
10910.0 9.5955e-05
10930.0 9.5775e-05
10950.0 9.5387e-05
10970.0 9.4748e-05
10990.0 9.3836e-05
11010.0 9.5978e-05
11030.0 9.4142e-05
11050.0 9.2007e-05
11070.0 8.9547e-05
11090.0 8.6703e-05
11110.0 8.3876e-05
11130.0 8.1057e-05
11150.0 7.8179e-05
11170.0 7.5395e-05
11190.0 7.2878e-05
11210.0 7.0471e-05
11230.0 6.8206e-05
11250.0 6.6229e-05
11270.0 6.4491e-05
11290.0 6.2895e-05
11310.0 6.1501e-05
11330.0 6.0347e-05
11350.0 5.9293e-05
11370.0 5.8319e-05
11390.0 5.7438e-05
11410.0 5.6596e-05
11430.0 5.57e-05
11450.0 5.4787e-05
11470.0 5.385e-05
11490.0 5.2827e-05
11510.0 5.1697e-05
11530.0 5.0545e-05
11550.0 4.9344e-05
11570.0 4.8044e-05
11590.0 4.6721e-05
11610.0 4.5423e-05
11630.0 4.4073e-05
11650.0 4.2703e-05
11670.0 4.142e-05
11690.0 4.0174e-05
11710.0 3.8931e-05
11730.0 3.7754e-05
11750.0 3.6673e-05
11770.0 3.5604e-05
11790.0 3.4574e-05
11810.0 3.3626e-05
11830.0 3.2721e-05
11850.0 3.1809e-05
11870.0 3.0957e-05
11890.0 3.0157e-05
11910.0 2.9353e-05
11930.0 2.8554e-05
11950.0 2.7797e-05
11970.0 2.7041e-05
11990.0 2.6262e-05
12010.0 2.5511e-05
12030.0 2.4787e-05
12050.0 2.4055e-05
12070.0 2.333e-05
12090.0 2.2677e-05
12110.0 2.2051e-05
12130.0 2.1455e-05
12150.0 2.0932e-05
12170.0 2.0489e-05
12190.0 2.0101e-05
12210.0 1.9811e-05
12230.0 1.9628e-05
12250.0 1.9545e-05
12270.0 1.9575e-05
12290.0 1.9716e-05
12310.0 1.9955e-05
12330.0 2.0308e-05
12350.0 2.0758e-05
12370.0 2.127e-05
12390.0 2.1852e-05
12410.0 2.2517e-05
12430.0 2.3172e-05
12450.0 2.3827e-05
12470.0 2.4492e-05
12490.0 2.5127e-05
12510.0 2.5692e-05
12530.0 2.622e-05
12550.0 2.6697e-05
12570.0 2.7087e-05
12590.0 2.7403e-05
12610.0 2.7658e-05
12630.0 2.7837e-05
12650.0 2.794e-05
12670.0 2.7984e-05
12690.0 2.797e-05
12710.0 2.7904e-05
12730.0 2.7794e-05
12750.0 2.7635e-05
12770.0 2.7442e-05
12790.0 2.7222e-05
12810.0 2.6968e-05
12830.0 2.6679e-05
12850.0 2.6375e-05
12870.0 2.6048e-05
12890.0 2.5679e-05
12910.0 2.5284e-05
12930.0 2.4873e-05
12950.0 2.4413e-05
12970.0 2.3907e-05
12990.0 2.3394e-05
13010.0 2.2852e-05
13030.0 2.2265e-05
13050.0 2.1668e-05
13070.0 2.1082e-05
13090.0 2.047e-05
13110.0 1.986e-05
13130.0 1.9289e-05
13150.0 1.8745e-05
13170.0 1.8213e-05
13190.0 1.7749e-05
13210.0 1.7353e-05
13230.0 1.7004e-05
13250.0 1.6718e-05
13270.0 1.6506e-05
13290.0 1.6352e-05
13310.0 1.6252e-05
13330.0 1.6209e-05
13350.0 1.6208e-05
13370.0 1.6239e-05
13390.0 1.6295e-05
13410.0 1.6357e-05
13430.0 1.642e-05
13450.0 1.6474e-05
13470.0 1.651e-05
13490.0 1.6522e-05
13510.0 1.6508e-05
13530.0 1.6466e-05
13550.0 1.6399e-05
13570.0 1.6309e-05
13590.0 1.6199e-05
13610.0 1.6079e-05
13630.0 1.5957e-05
13650.0 1.5829e-05
13670.0 1.5706e-05
13690.0 1.5594e-05
13710.0 1.5491e-05
13730.0 1.5395e-05
13750.0 1.5314e-05
13770.0 1.5243e-05
13790.0 1.5177e-05
13810.0 1.5114e-05
13830.0 1.5053e-05
13850.0 1.4986e-05
13870.0 1.4911e-05
13890.0 1.4828e-05
13910.0 1.4735e-05
13930.0 1.4626e-05
13950.0 1.4506e-05
13970.0 1.4382e-05
13990.0 1.4248e-05
14010.0 1.4109e-05
14030.0 1.3975e-05
14050.0 1.3845e-05
14070.0 1.3718e-05
14090.0 1.3604e-05
14110.0 1.3506e-05
14130.0 1.3419e-05
14150.0 1.3346e-05
14170.0 1.329e-05
14190.0 1.3247e-05
14210.0 1.3217e-05
14230.0 1.3201e-05
14250.0 1.3198e-05
14270.0 1.3208e-05
14290.0 1.3233e-05
14310.0 1.327e-05
14330.0 1.3321e-05
14350.0 1.3389e-05
14370.0 1.3469e-05
14390.0 1.3557e-05
14410.0 1.366e-05
14430.0 1.3773e-05
14450.0 1.3889e-05
14470.0 1.401e-05
14490.0 1.4143e-05
14510.0 1.4273e-05
14530.0 1.4404e-05
14550.0 1.4545e-05
14570.0 1.4695e-05
14590.0 1.4848e-05
14610.0 1.5019e-05
14630.0 1.5216e-05
14650.0 1.5428e-05
14670.0 1.566e-05
14690.0 1.5929e-05
14710.0 1.6234e-05
14730.0 1.6547e-05
14750.0 1.6895e-05
14770.0 1.7279e-05
14790.0 1.7672e-05
14810.0 1.8069e-05
14830.0 1.8503e-05
14850.0 1.893e-05
14870.0 1.9331e-05
14890.0 1.9722e-05
14910.0 2.0095e-05
14930.0 2.0416e-05
14950.0 2.0684e-05
14970.0 2.0911e-05
14990.0 2.1074e-05
15010.0 2.1175e-05
15030.0 2.1227e-05
15050.0 2.1233e-05
15070.0 2.1202e-05
15090.0 2.1148e-05
15110.0 2.1078e-05
15130.0 2.0998e-05
15150.0 2.0915e-05
15170.0 2.0828e-05
15190.0 2.0739e-05
15210.0 2.0652e-05
15230.0 2.0565e-05
15250.0 2.0477e-05
15270.0 2.0389e-05
15290.0 2.0304e-05
15310.0 2.0218e-05
15330.0 2.0131e-05
15350.0 2.0046e-05
15370.0 1.9962e-05
15390.0 1.9875e-05
15410.0 1.979e-05
15430.0 1.9707e-05
15450.0 1.9623e-05
15470.0 1.9538e-05
15490.0 1.9456e-05
15510.0 1.9374e-05
15530.0 1.929e-05
15550.0 1.9208e-05
15570.0 1.9128e-05
15590.0 1.9045e-05
15610.0 1.8963e-05
15630.0 1.8883e-05
15650.0 1.8803e-05
15670.0 1.8722e-05
15690.0 1.8643e-05
15710.0 1.8565e-05
15730.0 1.8485e-05
15750.0 1.8406e-05
15770.0 1.8329e-05
15790.0 1.8251e-05
15810.0 1.8172e-05
15830.0 1.8095e-05
15850.0 1.8019e-05
15870.0 1.7942e-05
15890.0 1.7865e-05
15910.0 1.7791e-05
15930.0 1.7716e-05
15950.0 1.7639e-05
15970.0 1.7564e-05
15990.0 1.7491e-05
16010.0 1.7416e-05
16030.0 1.7341e-05
16050.0 1.7269e-05
16070.0 1.7196e-05
16090.0 1.7122e-05
16110.0 1.705e-05
16130.0 1.6979e-05
16150.0 1.6905e-05
16170.0 1.6833e-05
16190.0 1.6762e-05
16210.0 1.6691e-05
16230.0 1.6619e-05
16250.0 1.6549e-05
16270.0 1.648e-05
16290.0 1.6409e-05
16310.0 1.6338e-05
16330.0 1.627e-05
16350.0 1.6201e-05
16370.0 1.6129e-05
16390.0 1.6061e-05
16410.0 1.5994e-05
16430.0 1.5924e-05
16450.0 1.5856e-05
16470.0 1.579e-05
16490.0 1.5721e-05
16510.0 1.5653e-05
16530.0 1.5586e-05
16550.0 1.5519e-05
16570.0 1.5451e-05
16590.0 1.5384e-05
16610.0 1.5319e-05
16630.0 1.5252e-05
16650.0 1.5185e-05
16670.0 1.512e-05
16690.0 1.5055e-05
16710.0 1.4987e-05
16730.0 1.4922e-05
16750.0 1.4857e-05
16770.0 1.4792e-05
16790.0 1.4725e-05
16810.0 1.4661e-05
16830.0 1.4597e-05
16850.0 1.4532e-05
16870.0 1.4467e-05
16890.0 1.4404e-05
16910.0 1.4339e-05
16930.0 1.4273e-05
16950.0 1.421e-05
16970.0 1.4147e-05
16990.0 1.4082e-05
17010.0 1.4018e-05
17030.0 1.3956e-05
17050.0 1.3892e-05
17070.0 1.3828e-05
17090.0 1.3765e-05
17110.0 1.3703e-05
17130.0 1.3638e-05
17150.0 1.3575e-05
17170.0 1.3513e-05
17190.0 1.345e-05
17210.0 1.3386e-05
17230.0 1.3325e-05
17250.0 1.3263e-05
17270.0 1.3199e-05
17290.0 1.3137e-05
17310.0 1.3075e-05
17330.0 1.3012e-05
17350.0 1.2949e-05
17370.0 1.2888e-05
17390.0 1.2826e-05
17410.0 1.2763e-05
17430.0 1.2702e-05
17450.0 1.2641e-05
17470.0 1.2578e-05
17490.0 1.2515e-05
17510.0 1.2455e-05
17530.0 1.2393e-05
17550.0 1.2331e-05
17570.0 1.227e-05
17590.0 1.221e-05
17610.0 1.2147e-05
17630.0 1.2086e-05
17650.0 1.2026e-05
17670.0 1.1965e-05
17690.0 1.1901e-05
17710.0 1.1841e-05
17730.0 1.1781e-05
17750.0 1.1719e-05
17770.0 1.1658e-05
17790.0 1.1599e-05
17810.0 1.1538e-05
17830.0 1.1476e-05
17850.0 1.1417e-05
17870.0 1.1357e-05
17890.0 1.1295e-05
17910.0 1.1234e-05
17930.0 1.1175e-05
17950.0 1.1115e-05
17970.0 1.1054e-05
17990.0 1.0995e-05
18010.0 1.0936e-05
18030.0 1.0874e-05
18050.0 1.0814e-05
18070.0 1.0755e-05
18090.0 1.0695e-05
18110.0 1.0634e-05
18130.0 1.0576e-05
18150.0 1.0517e-05
18170.0 1.0457e-05
18190.0 1.0398e-05
18210.0 1.034e-05
18230.0 1.028e-05
18250.0 1.0219e-05
18270.0 1.0161e-05
18290.0 1.0103e-05
18310.0 1.0043e-05
18330.0 9.9847e-06
18350.0 9.9276e-06
18370.0 9.8681e-06
18390.0 9.809e-06
18410.0 9.7516e-06
18430.0 9.6937e-06
18450.0 9.6337e-06
18470.0 9.576e-06
18490.0 9.5194e-06
18510.0 9.4609e-06
18530.0 9.4027e-06
18550.0 9.3466e-06
18570.0 9.289e-06
18590.0 9.2301e-06
18610.0 9.1732e-06
18630.0 9.1169e-06
18650.0 9.0589e-06
18670.0 9.001e-06
18690.0 8.9458e-06
18710.0 8.8891e-06
18730.0 8.8316e-06
18750.0 8.7757e-06
18770.0 8.7206e-06
18790.0 8.6624e-06
18810.0 8.6058e-06
18830.0 8.5509e-06
18850.0 8.495e-06
18870.0 8.4381e-06
18890.0 8.3833e-06
18910.0 8.3289e-06
18930.0 8.2723e-06
18950.0 8.2169e-06
18970.0 8.1629e-06
18990.0 8.1076e-06
19010.0 8.0506e-06
19030.0 7.9971e-06
19050.0 7.9432e-06
19070.0 7.8879e-06
19090.0 7.8335e-06
19110.0 7.781e-06
19130.0 7.726e-06
19150.0 7.6711e-06
19170.0 7.618e-06
19190.0 7.5649e-06
19210.0 7.51e-06
19230.0 7.4562e-06
19250.0 7.4045e-06
19270.0 7.3511e-06
19290.0 7.2974e-06
19310.0 7.2456e-06
19330.0 7.1936e-06
19350.0 7.1391e-06
19370.0 7.0868e-06
19390.0 7.0356e-06
19410.0 6.9829e-06
19430.0 6.93e-06
19450.0 6.8794e-06
19470.0 6.8282e-06
19490.0 6.7756e-06
19510.0 6.7244e-06
19530.0 6.6743e-06
19550.0 6.6221e-06
19570.0 6.5699e-06
19590.0 6.5203e-06
19610.0 6.4699e-06
19630.0 6.4183e-06
19650.0 6.3684e-06
19670.0 6.3194e-06
19690.0 6.2683e-06
19710.0 6.2177e-06
19730.0 6.1688e-06
19750.0 6.1193e-06
19770.0 6.068e-06
19790.0 6.0191e-06
19810.0 5.9708e-06
19830.0 5.9208e-06
19850.0 5.8708e-06
19870.0 5.822e-06
19890.0 5.7701e-06
19910.0 5.7139e-06
19930.0 5.655e-06
19950.0 5.5896e-06
19970.0 5.5118e-06
19990.0 5.4218e-06
20010.0 5.3238e-06
20030.0 5.2102e-06
20050.0 5.0838e-06
20070.0 4.9541e-06
20090.0 4.8223e-06
20110.0 4.683e-06
20130.0 4.5519e-06
20150.0 4.4314e-06
20170.0 4.3158e-06
20190.0 4.2078e-06
20210.0 4.114e-06
20230.0 4.0297e-06
20250.0 3.9523e-06
20270.0 3.8869e-06
20290.0 3.8326e-06
20310.0 3.7864e-06
20330.0 3.7487e-06
20350.0 3.7227e-06
20370.0 3.7049e-06
20390.0 3.6956e-06
20410.0 3.6955e-06
20430.0 3.7036e-06
20450.0 3.7211e-06
20470.0 3.7479e-06
20490.0 3.7823e-06
20510.0 3.8253e-06
20530.0 3.8786e-06
20550.0 3.9387e-06
20570.0 4.0033e-06
20590.0 4.077e-06
20610.0 4.1562e-06
20630.0 4.2365e-06
20650.0 4.3202e-06
20670.0 4.4094e-06
20690.0 4.4943e-06
20710.0 4.5759e-06
20730.0 4.6571e-06
20750.0 4.7344e-06
20770.0 4.8035e-06
20790.0 4.869e-06
20810.0 4.9311e-06
20830.0 4.9865e-06
20850.0 5.0368e-06
20870.0 5.086e-06
20890.0 5.1324e-06
20910.0 5.1748e-06
20930.0 5.2172e-06
20950.0 5.2602e-06
20970.0 5.3016e-06
20990.0 5.3421e-06
21010.0 5.384e-06
21030.0 5.4239e-06
21050.0 5.4602e-06
21070.0 5.4942e-06
21090.0 5.5249e-06
21110.0 5.549e-06
21130.0 5.5673e-06
21150.0 5.58e-06
21170.0 5.5859e-06
21190.0 5.5851e-06
21210.0 5.5779e-06
21230.0 5.5641e-06
21250.0 5.5449e-06
21270.0 5.5209e-06
21290.0 5.4914e-06
21310.0 5.4582e-06
21330.0 5.4234e-06
21350.0 5.385e-06
21370.0 5.3443e-06
21390.0 5.3037e-06
21410.0 5.2629e-06
21430.0 5.2198e-06
21450.0 5.1787e-06
21470.0 5.1401e-06
21490.0 5.1019e-06
21510.0 5.0655e-06
21530.0 5.033e-06
21550.0 5.0031e-06
21570.0 4.9755e-06
21590.0 4.9523e-06
21610.0 4.9336e-06
21630.0 4.9187e-06
21650.0 4.9085e-06
21670.0 4.904e-06
21690.0 4.9043e-06
21710.0 4.9104e-06
21730.0 4.9221e-06
21750.0 4.9388e-06
21770.0 4.9625e-06
21790.0 4.9922e-06
21810.0 5.0266e-06
21830.0 5.0667e-06
21850.0 5.1141e-06
21870.0 5.1653e-06
21890.0 5.2195e-06
21910.0 5.2803e-06
21930.0 5.3451e-06
21950.0 5.4107e-06
21970.0 5.48e-06
21990.0 5.5549e-06
22010.0 5.6275e-06
22030.0 5.6996e-06
22050.0 5.7738e-06
22070.0 5.8469e-06
22090.0 5.9147e-06
22110.0 5.9814e-06
22130.0 6.0459e-06
22150.0 6.1036e-06
22170.0 6.1551e-06
22190.0 6.2024e-06
22210.0 6.2416e-06
22230.0 6.2709e-06
22250.0 6.2923e-06
22270.0 6.3044e-06
22290.0 6.3062e-06
22310.0 6.2981e-06
22330.0 6.2786e-06
22350.0 6.2482e-06
22370.0 6.2082e-06
22390.0 6.1569e-06
22410.0 6.0929e-06
22430.0 6.0222e-06
22450.0 5.9431e-06
22470.0 5.8525e-06
22490.0 5.7552e-06
22510.0 5.6548e-06
22530.0 5.5444e-06
22550.0 5.427e-06
22570.0 5.3109e-06
22590.0 5.1923e-06
22610.0 5.0679e-06
22630.0 4.9445e-06
