#lamb flux
1010.0 7.0404e-07
1030.0 7.711e-07
1050.0 8.4824e-07
1070.0 9.3509e-07
1090.0 1.0337e-06
1110.0 1.1349e-06
1130.0 1.2368e-06
1150.0 1.3435e-06
1170.0 1.4536e-06
1190.0 1.558e-06
1210.0 1.6638e-06
1230.0 1.7732e-06
1250.0 1.8804e-06
1270.0 1.9845e-06
1290.0 2.0946e-06
1310.0 2.2045e-06
1330.0 2.31e-06
1350.0 2.4168e-06
1370.0 2.527e-06
1390.0 2.6344e-06
1410.0 2.7387e-06
1430.0 2.8478e-06
1450.0 2.9569e-06
1470.0 3.0623e-06
1490.0 3.1689e-06
1510.0 3.2815e-06
1530.0 3.3882e-06
1550.0 3.4935e-06
1570.0 3.6024e-06
1590.0 3.7114e-06
1610.0 3.8155e-06
1630.0 3.9228e-06
1650.0 4.0329e-06
1670.0 4.1393e-06
1690.0 4.2442e-06
1710.0 4.3531e-06
1730.0 4.4625e-06
1750.0 4.5651e-06
1770.0 4.6705e-06
1790.0 4.7779e-06
1810.0 4.8815e-06
1830.0 4.9829e-06
1850.0 5.0904e-06
1870.0 5.1945e-06
1890.0 5.2945e-06
1910.0 5.396e-06
1930.0 5.4995e-06
1950.0 5.5973e-06
1970.0 5.693e-06
1990.0 5.7917e-06
2010.0 5.8877e-06
2030.0 5.9788e-06
2050.0 6.0717e-06
2070.0 6.166e-06
2090.0 6.2526e-06
2110.0 6.3375e-06
2130.0 6.4236e-06
2150.0 6.5058e-06
2170.0 6.5817e-06
2190.0 6.6591e-06
2210.0 6.7348e-06
2230.0 6.804e-06
2250.0 6.8703e-06
2270.0 6.9381e-06
2290.0 6.9999e-06
2310.0 7.0548e-06
2330.0 7.1095e-06
2350.0 7.1619e-06
2370.0 7.2072e-06
2390.0 7.2506e-06
2410.0 7.2964e-06
2430.0 7.3382e-06
2450.0 7.3785e-06
2470.0 7.4258e-06
2490.0 7.4858e-06
2510.0 7.5609e-06
2530.0 7.6836e-06
2550.0 7.9051e-06
2570.0 8.2737e-06
2590.0 8.8457e-06
2610.0 9.7748e-06
2630.0 1.1084e-05
2650.0 1.2687e-05
2670.0 1.459e-05
2690.0 1.6705e-05
2710.0 1.8724e-05
2730.0 2.0506e-05
2750.0 2.2084e-05
2770.0 2.3304e-05
2790.0 2.4167e-05
2810.0 2.4804e-05
2830.0 2.5309e-05
2850.0 2.5666e-05
2870.0 2.5969e-05
2890.0 2.6273e-05
2910.0 2.6568e-05
2930.0 2.6829e-05
2950.0 2.7111e-05
2970.0 2.7403e-05
2990.0 2.7669e-05
3010.0 0.00025413
3030.0 0.00025661
3050.0 0.00025896
3070.0 0.00026073
3090.0 0.00026217
3110.0 0.00026277
3130.0 0.00026189
3150.0 0.00025922
3170.0 0.00025417
3190.0 0.00024678
3210.0 0.00023772
3230.0 0.00022806
3250.0 0.00022715
3270.0 0.00021989
3290.0 0.00022854
3310.0 0.00022028
3330.0 0.00022451
3350.0 0.00023208
3370.0 0.00024199
3390.0 0.00025373
3410.0 0.00026589
3430.0 0.0002789
3450.0 0.00029288
3470.0 0.00030695
3490.0 0.00032048
3510.0 0.00033759
3530.0 0.00035804
3550.0 0.00037096
3570.0 0.0003805
3590.0 0.00040554
3610.0 0.00041178
3630.0 0.00044268
3650.0 0.00046546
3670.0 0.00048962
3690.0 0.00049343
3710.0 0.00047971
3730.0 0.00048675
3750.0 0.0004868
3770.0 0.00050686
3790.0 0.00053676
3810.0 0.00059709
3830.0 0.00072246
3850.0 0.0008605
3870.0 0.00099074
3890.0 0.0010764
3910.0 0.0011164
3930.0 0.0011613
3950.0 0.0012071
3970.0 0.0010586
3990.0 0.000719
4010.0 0.00062174
4030.0 0.00084949
4050.0 0.001071
4070.0 0.0009519
4090.0 0.00058681
4110.0 0.00057094
4130.0 0.0008119
4150.0 0.00092038
4170.0 0.00077484
4190.0 0.00066111
4210.0 0.00086734
4230.0 0.00091087
4250.0 0.00086516
4270.0 0.00087161
4290.0 0.00079473
4310.0 0.00089216
4330.0 0.0010398
4350.0 0.0011944
4370.0 0.0011892
4390.0 0.0011592
4410.0 0.0010232
4430.0 0.00080709
4450.0 0.00061434
4470.0 0.00066645
4490.0 0.00072135
4510.0 0.00098809
4530.0 0.0010304
4550.0 0.0010143
4570.0 0.0011785
4590.0 0.0015029
4610.0 0.002056
4630.0 0.002522
4650.0 0.0025462
4670.0 0.0026286
4690.0 0.002833
4710.0 0.0027743
4730.0 0.0022361
4750.0 0.0015943
4770.0 0.0013313
4790.0 0.0011738
4810.0 0.0011124
4830.0 0.0012156
4850.0 0.0013652
4870.0 0.0016027
4890.0 0.0017597
4910.0 0.0015667
4930.0 0.0016304
4950.0 0.002027
4970.0 0.0025109
4990.0 0.0028855
5010.0 0.0028843
5030.0 0.0024427
5050.0 0.0017684
5070.0 0.0012958
5090.0 0.0011209
5110.0 0.0011505
5130.0 0.0012531
5150.0 0.0011798
5170.0 0.0011752
5190.0 0.0011702
5210.0 0.0011933
5230.0 0.0012953
5250.0 0.0013412
5270.0 0.0014493
5290.0 0.0017445
5310.0 0.0019834
5330.0 0.0021011
5350.0 0.0021497
5370.0 0.0023028
5390.0 0.002402
5410.0 0.0022143
5430.0 0.0020231
5450.0 0.0020732
5470.0 0.0024633
5490.0 0.0031679
5510.0 0.0038177
5530.0 0.0040308
5550.0 0.0039246
5570.0 0.0037201
5590.0 0.0034928
5610.0 0.0033504
5630.0 0.0034179
5650.0 0.0035399
5670.0 0.003436
5690.0 0.0032437
5710.0 0.0031733
5730.0 0.0028145
5750.0 0.0022529
5770.0 0.0020574
5790.0 0.002324
5810.0 0.002594
5830.0 0.002904
5850.0 0.0029923
5870.0 0.0029215
5890.0 0.0027759
5910.0 0.0025938
5930.0 0.0025943
5950.0 0.0027466
5970.0 0.0028128
5990.0 0.0024915
6010.0 0.0020319
6030.0 0.0016457
6050.0 0.0014891
6070.0 0.0015787
6090.0 0.001773
6110.0 0.0018167
6130.0 0.0017016
6150.0 0.0016865
6170.0 0.0018644
6190.0 0.0021758
6210.0 0.0026061
6230.0 0.0029421
6250.0 0.0027912
6270.0 0.002437
6290.0 0.0020353
6310.0 0.001614
6330.0 0.0013672
6350.0 0.0013499
6370.0 0.0014816
6390.0 0.0016346
6410.0 0.0019123
6430.0 0.0023535
6450.0 0.0028977
6470.0 0.0033998
6490.0 0.003843
6510.0 0.004073
6530.0 0.0039299
6550.0 0.0037752
6570.0 0.0037932
6590.0 0.0037709
6610.0 0.0035891
6630.0 0.0033805
6650.0 0.003145
6670.0 0.0031153
6690.0 0.0030367
6710.0 0.002808
6730.0 0.002443
6750.0 0.0021772
6770.0 0.0022457
6790.0 0.0023976
6810.0 0.002605
6830.0 0.0026557
6850.0 0.0024959
6870.0 0.0024225
6890.0 0.0023737
6910.0 0.0022429
6930.0 0.0021661
6950.0 0.0021824
6970.0 0.0022291
6990.0 0.0023574
7010.0 0.0025378
7030.0 0.0024878
7050.0 0.0022547
7070.0 0.0020256
7090.0 0.001731
7110.0 0.0015418
7130.0 0.0016201
7150.0 0.0017552
7170.0 0.0017884
7190.0 0.0017476
7210.0 0.0017293
7230.0 0.0019418
7250.0 0.0022115
7270.0 0.0023802
7290.0 0.0024021
7310.0 0.0022844
7330.0 0.0020981
7350.0 0.0019405
7370.0 0.001843
7390.0 0.0018227
7410.0 0.0019483
7430.0 0.0022444
7450.0 0.0025057
7470.0 0.0028207
7490.0 0.0032249
7510.0 0.0030815
7530.0 0.0025925
7550.0 0.0021835
7570.0 0.0018136
7590.0 0.0014991
7610.0 0.0014498
7630.0 0.001521
7650.0 0.0016769
7670.0 0.0019191
7690.0 0.0021107
7710.0 0.0023783
7730.0 0.0024835
7750.0 0.0025666
7770.0 0.0027121
7790.0 0.0027352
7810.0 0.0026915
7830.0 0.0025464
7850.0 0.002486
7870.0 0.0024029
7890.0 0.0022061
7910.0 0.0020083
7930.0 0.0018241
7950.0 0.0015647
7970.0 0.001486
7990.0 0.0015334
8010.0 0.0017752
8030.0 0.0017836
8050.0 0.0018499
8070.0 0.001817
8090.0 0.0018147
8110.0 0.0017679
8130.0 0.0016673
8150.0 0.0015479
8170.0 0.0015327
8190.0 0.0015512
8210.0 0.0015656
8230.0 0.0014646
8250.0 0.0013745
8270.0 0.0012086
8290.0 0.00099184
8310.0 0.00078425
8330.0 0.00056097
8350.0 0.00042117
8370.0 0.00039531
8390.0 0.0004355
8410.0 0.00051341
8430.0 0.00064338
8450.0 0.00070965
8470.0 0.00075958
8490.0 0.000834
8510.0 0.00089324
8530.0 0.0009897
8550.0 0.0011676
8570.0 0.0013308
8590.0 0.001457
8610.0 0.0016741
8630.0 0.001934
8650.0 0.0020347
8670.0 0.0020621
8690.0 0.0020496
8710.0 0.0019762
8730.0 0.0018921
8750.0 0.0017718
8770.0 0.0017392
8790.0 0.0016797
8810.0 0.0015513
8830.0 0.001464
8850.0 0.0012741
8870.0 0.0011657
8890.0 0.0010718
8910.0 0.001174
8930.0 0.0011092
8950.0 0.0011277
8970.0 0.0011474
8990.0 0.0011383
9010.0 0.0011522
9030.0 0.0011118
9050.0 0.001109
9070.0 0.0011101
9090.0 0.0011112
9110.0 0.0011128
9130.0 0.001114
9150.0 0.001115
9170.0 0.0011145
9190.0 0.0011118
9210.0 0.0011235
9230.0 0.0011224
9250.0 0.0011227
9270.0 0.0011233
9290.0 0.0011243
9310.0 0.0011254
9330.0 0.0011268
9350.0 0.0011282
9370.0 0.0011297
9390.0 0.0011312
9410.0 0.0011328
9430.0 0.0011345
9450.0 0.0011362
9470.0 0.001138
9490.0 0.0011398
9510.0 0.0011416
9530.0 0.0011435
9550.0 0.0011455
9570.0 0.0011475
9590.0 0.0011496
9610.0 0.0011517
9630.0 0.0011539
9650.0 0.0011562
9670.0 0.0011584
9690.0 0.0011608
9710.0 0.0011632
9730.0 0.0011657
9750.0 0.0011682
9770.0 0.0011709
9790.0 0.0011735
9810.0 0.0011762
9830.0 0.0011789
9850.0 0.0011817
9870.0 0.0011846
9890.0 0.0011875
9910.0 0.0011904
9930.0 0.0011934
9950.0 0.0011956
9970.0 0.001199
9990.0 0.0012023
10010.0 0.0012054
10030.0 0.0012086
10050.0 0.0012114
10070.0 0.001212
10090.0 0.0012162
10110.0 0.0012203
10130.0 0.0012241
10150.0 0.0012278
10170.0 0.0012313
10190.0 0.0012347
10210.0 0.0012381
10230.0 0.0012415
10250.0 0.0012447
10270.0 0.001248
10290.0 0.0012513
10310.0 0.0012546
10330.0 0.0012577
10350.0 0.0012609
10370.0 0.0012641
10390.0 0.0012672
10410.0 0.0012703
10430.0 0.0012734
10450.0 0.0012764
10470.0 0.0012793
10490.0 0.0012822
10510.0 0.001285
10530.0 0.0012877
10550.0 0.0012904
10570.0 0.0012931
10590.0 0.0012956
10610.0 0.001298
10630.0 0.0013005
10650.0 0.0013028
10670.0 0.001305
10690.0 0.0013071
10710.0 0.0013092
10730.0 0.0013111
10750.0 0.0013128
10770.0 0.0013146
10790.0 0.0013163
10810.0 0.0013177
10830.0 0.0013191
10850.0 0.0013203
10870.0 0.001321
10890.0 0.0013209
10910.0 0.0013198
10930.0 0.0013169
10950.0 0.001311
10970.0 0.0013015
10990.0 0.001288
11010.0 0.0012974
11030.0 0.0012705
11050.0 0.0012396
11070.0 0.0012043
11090.0 0.0011635
11110.0 0.001123
11130.0 0.0010826
11150.0 0.0010413
11170.0 0.0010014
11190.0 0.00096528
11210.0 0.00093079
11230.0 0.00089847
11250.0 0.00087047
11270.0 0.00084609
11290.0 0.00082399
11310.0 0.00080502
11330.0 0.00078962
11350.0 0.00077581
11370.0 0.00076324
11390.0 0.00075196
11410.0 0.00074114
11430.0 0.0007295
11450.0 0.00071736
11470.0 0.0007046
11490.0 0.00069037
11510.0 0.00067434
11530.0 0.00065775
11550.0 0.00064026
11570.0 0.00062125
11590.0 0.00060186
11610.0 0.00058286
11630.0 0.00056325
11650.0 0.00054358
11670.0 0.00052541
11690.0 0.00050805
11710.0 0.00049112
11730.0 0.00047545
11750.0 0.00046138
11770.0 0.00044782
11790.0 0.00043507
11810.0 0.00042353
11830.0 0.00041267
11850.0 0.00040186
11870.0 0.00039174
11890.0 0.00038213
11910.0 0.00037235
11930.0 0.00036245
11950.0 0.00035282
11970.0 0.00034298
11990.0 0.0003326
12010.0 0.00032236
12030.0 0.00031227
12050.0 0.00030195
12070.0 0.00029163
12090.0 0.00028222
12110.0 0.0002732
12130.0 0.00026467
12150.0 0.00025723
12170.0 0.00025099
12190.0 0.00024572
12210.0 0.00024194
12230.0 0.00023976
12250.0 0.00023908
12270.0 0.00024007
12290.0 0.00024261
12310.0 0.00024645
12330.0 0.00025186
12350.0 0.00025849
12370.0 0.0002658
12390.0 0.00027391
12410.0 0.00028301
12430.0 0.00029171
12450.0 0.00030017
12470.0 0.00030859
12490.0 0.00031638
12510.0 0.000323
12530.0 0.00032895
12550.0 0.000334
12570.0 0.00033771
12590.0 0.00034027
12610.0 0.00034183
12630.0 0.00034222
12650.0 0.0003415
12670.0 0.00033986
12690.0 0.00033732
12710.0 0.00033404
12730.0 0.00033014
12750.0 0.00032551
12770.0 0.00032044
12790.0 0.00031509
12810.0 0.00030933
12830.0 0.00030314
12850.0 0.00029692
12870.0 0.0002905
12890.0 0.00028363
12910.0 0.00027657
12930.0 0.00026945
12950.0 0.00026181
12970.0 0.00025373
12990.0 0.00024571
13010.0 0.00023746
13030.0 0.00022879
13050.0 0.00022016
13070.0 0.00021184
13090.0 0.00020337
13110.0 0.00019511
13130.0 0.00018752
13150.0 0.00018045
13170.0 0.00017375
13190.0 0.00016805
13210.0 0.00016331
13230.0 0.00015931
13250.0 0.0001562
13270.0 0.00015405
13290.0 0.00015267
13310.0 0.00015206
13330.0 0.00015214
13350.0 0.00015273
13370.0 0.0001538
13390.0 0.00015521
13410.0 0.00015667
13430.0 0.00015823
13450.0 0.0001598
13470.0 0.0001612
13490.0 0.00016237
13510.0 0.00016343
13530.0 0.00016421
13550.0 0.00016472
13570.0 0.00016506
13590.0 0.00016524
13610.0 0.00016528
13630.0 0.00016523
13650.0 0.00016514
13670.0 0.00016505
13690.0 0.00016494
13710.0 0.00016486
13730.0 0.00016481
13750.0 0.00016474
13770.0 0.00016465
13790.0 0.00016453
13810.0 0.00016433
13830.0 0.00016402
13850.0 0.00016357
13870.0 0.00016295
13890.0 0.00016215
13910.0 0.00016117
13930.0 0.00015997
13950.0 0.00015859
13970.0 0.00015713
13990.0 0.00015554
14010.0 0.00015386
14030.0 0.00015223
14050.0 0.00015065
14070.0 0.00014908
14090.0 0.00014767
14110.0 0.00014643
14130.0 0.00014532
14150.0 0.00014437
14170.0 0.00014361
14190.0 0.000143
14210.0 0.00014254
14230.0 0.00014224
14250.0 0.0001421
14270.0 0.00014212
14290.0 0.00014233
14310.0 0.0001427
14330.0 0.00014325
14350.0 0.00014401
14370.0 0.00014495
14390.0 0.000146
14410.0 0.00014727
14430.0 0.00014869
14450.0 0.00015018
14470.0 0.00015177
14490.0 0.00015356
14510.0 0.00015539
14530.0 0.00015728
14550.0 0.00015937
14570.0 0.00016167
14590.0 0.00016409
14610.0 0.00016682
14630.0 0.00017
14650.0 0.00017346
14670.0 0.00017723
14690.0 0.00018157
14710.0 0.00018641
14730.0 0.00019135
14750.0 0.00019674
14770.0 0.00020257
14790.0 0.00020844
14810.0 0.00021427
14830.0 0.00022045
14850.0 0.00022638
14870.0 0.00023183
14890.0 0.00023699
14910.0 0.00024177
14930.0 0.00024577
14950.0 0.00024905
14970.0 0.00025176
14990.0 0.00025371
15010.0 0.00025494
15030.0 0.00025563
15050.0 0.00025584
15070.0 0.00025568
15090.0 0.0002553
15110.0 0.00025476
15130.0 0.00025413
15150.0 0.00025349
15170.0 0.0002528
15190.0 0.0002521
15210.0 0.00025142
15230.0 0.00025075
15250.0 0.00025006
15270.0 0.00024937
15290.0 0.00024873
15310.0 0.00024807
15330.0 0.0002474
15350.0 0.00024676
15370.0 0.00024613
15390.0 0.00024546
15410.0 0.00024481
15430.0 0.00024419
15450.0 0.00024355
15470.0 0.0002429
15490.0 0.00024229
15510.0 0.00024168
15530.0 0.00024104
15550.0 0.00024042
15570.0 0.00023983
15590.0 0.0002392
15610.0 0.00023857
15630.0 0.00023797
15650.0 0.00023737
15670.0 0.00023675
15690.0 0.00023615
15710.0 0.00023557
15730.0 0.00023495
15750.0 0.00023434
15770.0 0.00023375
15790.0 0.00023316
15810.0 0.00023253
15830.0 0.00023194
15850.0 0.00023136
15870.0 0.00023075
15890.0 0.00023014
15910.0 0.00022957
15930.0 0.00022897
15950.0 0.00022835
15970.0 0.00022776
15990.0 0.00022717
16010.0 0.00022656
16030.0 0.00022594
16050.0 0.00022536
16070.0 0.00022476
16090.0 0.00022414
16110.0 0.00022355
16130.0 0.00022296
16150.0 0.00022233
16170.0 0.00022171
16190.0 0.00022111
16210.0 0.0002205
16230.0 0.00021987
16250.0 0.00021926
16270.0 0.00021866
16290.0 0.00021803
16310.0 0.0002174
16330.0 0.00021679
16350.0 0.00021617
16370.0 0.0002155
16390.0 0.00021489
16410.0 0.00021427
16430.0 0.00021362
16450.0 0.00021297
16470.0 0.00021236
16490.0 0.00021171
16510.0 0.00021104
16530.0 0.0002104
16550.0 0.00020976
16570.0 0.00020908
16590.0 0.00020841
16610.0 0.00020778
16630.0 0.00020711
16650.0 0.00020643
16670.0 0.00020577
16690.0 0.00020511
16710.0 0.00020441
16730.0 0.00020372
16750.0 0.00020306
16770.0 0.00020236
16790.0 0.00020165
16810.0 0.00020098
16830.0 0.00020029
16850.0 0.00019958
16870.0 0.00019887
16890.0 0.00019819
16910.0 0.00019746
16930.0 0.00019672
16950.0 0.00019602
16970.0 0.00019531
16990.0 0.00019457
17010.0 0.00019384
17030.0 0.00019314
17050.0 0.00019239
17070.0 0.00019164
17090.0 0.00019091
17110.0 0.00019018
17130.0 0.0001894
17150.0 0.00018865
17170.0 0.00018792
17190.0 0.00018715
17210.0 0.00018638
17230.0 0.00018564
17250.0 0.00018487
17270.0 0.00018408
17290.0 0.00018331
17310.0 0.00018254
17330.0 0.00018175
17350.0 0.00018095
17370.0 0.00018019
17390.0 0.0001794
17410.0 0.00017859
17430.0 0.00017781
17450.0 0.00017703
17470.0 0.0001762
17490.0 0.00017539
17510.0 0.0001746
17530.0 0.00017379
17550.0 0.00017296
17570.0 0.00017215
17590.0 0.00017135
17610.0 0.00017052
17630.0 0.00016969
17650.0 0.00016888
17670.0 0.00016805
17690.0 0.00016718
17710.0 0.00016637
17730.0 0.00016555
17750.0 0.0001647
17770.0 0.00016385
17790.0 0.00016304
17810.0 0.00016218
17830.0 0.00016132
17850.0 0.00016048
17870.0 0.00015964
17890.0 0.00015877
17910.0 0.00015791
17930.0 0.00015708
17950.0 0.00015622
17970.0 0.00015534
17990.0 0.0001545
18010.0 0.00015365
18030.0 0.00015276
18050.0 0.00015189
18070.0 0.00015104
18090.0 0.00015017
18110.0 0.00014928
18130.0 0.00014843
18150.0 0.00014757
18170.0 0.00014668
18190.0 0.00014581
18210.0 0.00014495
18230.0 0.00014406
18250.0 0.00014316
18270.0 0.0001423
18290.0 0.00014143
18310.0 0.00014054
18330.0 0.00013966
18350.0 0.0001388
18370.0 0.00013791
18390.0 0.00013702
18410.0 0.00013615
18430.0 0.00013527
18450.0 0.00013436
18470.0 0.00013348
18490.0 0.00013262
18510.0 0.00013173
18530.0 0.00013083
18550.0 0.00012997
18570.0 0.00012909
18590.0 0.00012818
18610.0 0.0001273
18630.0 0.00012643
18650.0 0.00012554
18670.0 0.00012464
18690.0 0.00012378
18710.0 0.0001229
18730.0 0.000122
18750.0 0.00012113
18770.0 0.00012027
18790.0 0.00011936
18810.0 0.00011847
18830.0 0.00011761
18850.0 0.00011673
18870.0 0.00011584
18890.0 0.00011497
18910.0 0.00011411
18930.0 0.00011322
18950.0 0.00011234
18970.0 0.00011148
18990.0 0.0001106
19010.0 0.0001097
19030.0 0.00010885
19050.0 0.00010799
19070.0 0.0001071
19090.0 0.00010623
19110.0 0.00010539
19130.0 0.00010451
19150.0 0.00010363
19170.0 0.00010278
19190.0 0.00010193
19210.0 0.00010104
19230.0 0.00010018
19250.0 9.9342e-05
19270.0 9.8479e-05
19290.0 9.7613e-05
19310.0 9.6774e-05
19330.0 9.5931e-05
19350.0 9.5049e-05
19370.0 9.4201e-05
19390.0 9.3368e-05
19410.0 9.2512e-05
19430.0 9.1651e-05
19450.0 9.0827e-05
19470.0 8.9992e-05
19490.0 8.9135e-05
19510.0 8.8299e-05
19530.0 8.7479e-05
19550.0 8.6626e-05
19570.0 8.5772e-05
19590.0 8.4958e-05
19610.0 8.4132e-05
19630.0 8.3287e-05
19650.0 8.2467e-05
19670.0 8.1661e-05
19690.0 8.0821e-05
19710.0 7.999e-05
19730.0 7.9184e-05
19750.0 7.8367e-05
19770.0 7.7524e-05
19790.0 7.6716e-05
19810.0 7.5919e-05
19830.0 7.5095e-05
19850.0 7.4271e-05
19870.0 7.3468e-05
19890.0 7.2619e-05
19910.0 7.1713e-05
19930.0 7.0777e-05
19950.0 6.9758e-05
19970.0 6.8578e-05
19990.0 6.7247e-05
20010.0 6.5823e-05
20030.0 6.4207e-05
20050.0 6.2439e-05
20070.0 6.0653e-05
20090.0 5.8863e-05
20110.0 5.7001e-05
20130.0 5.5278e-05
20150.0 5.3718e-05
20170.0 5.2251e-05
20190.0 5.0912e-05
20210.0 4.9775e-05
20230.0 4.878e-05
20250.0 4.7895e-05
20270.0 4.7174e-05
20290.0 4.6598e-05
20310.0 4.6131e-05
20330.0 4.5778e-05
20350.0 4.5555e-05
20370.0 4.5428e-05
20390.0 4.54e-05
20410.0 4.5469e-05
20430.0 4.5621e-05
20450.0 4.5878e-05
20470.0 4.6231e-05
20490.0 4.6659e-05
20510.0 4.7178e-05
20530.0 4.781e-05
20550.0 4.8512e-05
20570.0 4.9262e-05
20590.0 5.0113e-05
20610.0 5.1027e-05
20630.0 5.1952e-05
20650.0 5.2918e-05
20670.0 5.3952e-05
20690.0 5.4938e-05
20710.0 5.5893e-05
20730.0 5.6854e-05
20750.0 5.7782e-05
20770.0 5.8625e-05
20790.0 5.9444e-05
20810.0 6.0249e-05
20830.0 6.0996e-05
20850.0 6.1707e-05
20870.0 6.2443e-05
20890.0 6.3181e-05
20910.0 6.3892e-05
20930.0 6.4641e-05
20950.0 6.5437e-05
20970.0 6.6232e-05
20990.0 6.7033e-05
21010.0 6.789e-05
21030.0 6.873e-05
21050.0 6.9523e-05
21070.0 7.0294e-05
21090.0 7.1033e-05
21110.0 7.1659e-05
21130.0 7.2192e-05
21150.0 7.2643e-05
21170.0 7.2977e-05
21190.0 7.3186e-05
21210.0 7.3288e-05
21230.0 7.3267e-05
21250.0 7.3129e-05
21270.0 7.2884e-05
21290.0 7.2526e-05
21310.0 7.207e-05
21330.0 7.1547e-05
21350.0 7.093e-05
21370.0 7.0232e-05
21390.0 6.9495e-05
21410.0 6.8714e-05
21430.0 6.7847e-05
21450.0 6.6977e-05
21470.0 6.6116e-05
21490.0 6.5226e-05
21510.0 6.433e-05
21530.0 6.3486e-05
21550.0 6.2665e-05
21570.0 6.1853e-05
21590.0 6.1112e-05
21610.0 6.0446e-05
21630.0 5.9832e-05
21650.0 5.9288e-05
21670.0 5.8865e-05
21690.0 5.8525e-05
21710.0 5.8279e-05
21730.0 5.8142e-05
21750.0 5.8108e-05
21770.0 5.8184e-05
21790.0 5.8372e-05
21810.0 5.8656e-05
21830.0 5.9041e-05
21850.0 5.9544e-05
21870.0 6.0125e-05
21890.0 6.0768e-05
21910.0 6.1517e-05
21930.0 6.2337e-05
21950.0 6.3186e-05
21970.0 6.4099e-05
21990.0 6.5102e-05
22010.0 6.6089e-05
22030.0 6.7082e-05
22050.0 6.8119e-05
22070.0 6.9157e-05
22090.0 7.0133e-05
22110.0 7.1112e-05
22130.0 7.208e-05
22150.0 7.2969e-05
22170.0 7.3788e-05
22190.0 7.4572e-05
22210.0 7.5263e-05
22230.0 7.5825e-05
22250.0 7.6299e-05
22270.0 7.6663e-05
22290.0 7.689e-05
22310.0 7.6989e-05
22330.0 7.695e-05
22350.0 7.6763e-05
22370.0 7.6438e-05
22390.0 7.5961e-05
22410.0 7.5313e-05
22430.0 7.4553e-05
22450.0 7.3667e-05
22470.0 7.2616e-05
22490.0 7.1454e-05
22510.0 7.0225e-05
22530.0 6.8844e-05
22550.0 6.7345e-05
22570.0 6.5836e-05
22590.0 6.4267e-05
22610.0 6.2597e-05
22630.0 6.0913e-05
22650.0 5.9282e-05
22670.0 5.7581e-05
22690.0 5.5869e-05
22710.0 5.4233e-05
22730.0 5.2631e-05
22750.0 5.0982e-05
22770.0 4.945e-05
22790.0 4.8024e-05
22810.0 4.6629e-05
22830.0 4.5307e-05
22850.0 4.4134e-05
22870.0 4.3046e-05
22890.0 4.2032e-05
22910.0 4.1169e-05
22930.0 4.0447e-05
22950.0 3.9838e-05
22970.0 3.9365e-05
