#lamb flux
1010.0 4.1195e-07
1030.0 4.2936e-07
1050.0 4.4956e-07
1070.0 4.7236e-07
1090.0 4.9828e-07
1110.0 5.25e-07
1130.0 5.5204e-07
1150.0 5.805e-07
1170.0 6.1004e-07
1190.0 6.3829e-07
1210.0 6.6713e-07
1230.0 6.9714e-07
1250.0 7.2682e-07
1270.0 7.5596e-07
1290.0 7.8694e-07
1310.0 8.1821e-07
1330.0 8.4861e-07
1350.0 8.7965e-07
1370.0 9.1198e-07
1390.0 9.4393e-07
1410.0 9.754e-07
1430.0 1.0085e-06
1450.0 1.0421e-06
1470.0 1.075e-06
1490.0 1.1086e-06
1510.0 1.1442e-06
1530.0 1.1785e-06
1550.0 1.2128e-06
1570.0 1.2483e-06
1590.0 1.2841e-06
1610.0 1.3187e-06
1630.0 1.3544e-06
1650.0 1.3909e-06
1670.0 1.4264e-06
1690.0 1.4613e-06
1710.0 1.4973e-06
1730.0 1.5333e-06
1750.0 1.5669e-06
1770.0 1.601e-06
1790.0 1.6353e-06
1810.0 1.6679e-06
1830.0 1.6992e-06
1850.0 1.7317e-06
1870.0 1.7625e-06
1890.0 1.7913e-06
1910.0 1.8198e-06
1930.0 1.8481e-06
1950.0 1.8739e-06
1970.0 1.8984e-06
1990.0 1.923e-06
2010.0 1.9462e-06
2030.0 1.9674e-06
2050.0 1.9887e-06
2070.0 2.0101e-06
2090.0 2.0291e-06
2110.0 2.0477e-06
2130.0 2.0669e-06
2150.0 2.0854e-06
2170.0 2.1028e-06
2190.0 2.1216e-06
2210.0 2.1412e-06
2230.0 2.1604e-06
2250.0 2.1805e-06
2270.0 2.2032e-06
2290.0 2.2265e-06
2310.0 2.2504e-06
2330.0 2.2773e-06
2350.0 2.3067e-06
2370.0 2.3375e-06
2390.0 2.3714e-06
2410.0 2.4098e-06
2430.0 2.4505e-06
2450.0 2.4939e-06
2470.0 2.5414e-06
2490.0 2.5926e-06
2510.0 2.6463e-06
2530.0 2.7077e-06
2550.0 2.7856e-06
2570.0 2.8917e-06
2590.0 3.0421e-06
2610.0 3.2738e-06
2630.0 3.6073e-06
2650.0 4.0396e-06
2670.0 4.5856e-06
2690.0 5.2425e-06
2710.0 5.9457e-06
2730.0 6.6593e-06
2750.0 7.3959e-06
2770.0 8.1061e-06
2790.0 8.7722e-06
2810.0 9.427e-06
2830.0 1.0099e-05
2850.0 1.0757e-05
2870.0 1.1434e-05
2890.0 1.2156e-05
2910.0 1.2912e-05
2930.0 1.3684e-05
2950.0 1.4508e-05
2970.0 1.538e-05
2990.0 1.6268e-05
3010.0 2.9792e-05
3030.0 3.1455e-05
3050.0 3.3125e-05
3070.0 3.4679e-05
3090.0 3.6058e-05
3110.0 3.6969e-05
3130.0 3.7052e-05
3150.0 3.5909e-05
3170.0 3.2735e-05
3190.0 2.7402e-05
3210.0 1.9956e-05
3230.0 1.1491e-05
3250.0 2.0145e-05
3270.0 8.7074e-06
3290.0 2.9166e-05
3310.0 5.8043e-06
3330.0 5.9216e-06
3350.0 9.0792e-06
3370.0 1.2675e-05
3390.0 1.6488e-05
3410.0 2.0286e-05
3430.0 2.4252e-05
3450.0 2.8206e-05
3470.0 3.1829e-05
3490.0 3.4204e-05
3510.0 4.2577e-05
3530.0 5.8316e-05
3550.0 5.846e-05
3570.0 4.9641e-05
3590.0 7.1137e-05
3610.0 4.5855e-05
3630.0 7.3926e-05
3650.0 8.3916e-05
3670.0 0.00010787
3690.0 0.00010315
3710.0 7.3609e-05
3730.0 9.8328e-05
3750.0 0.00010225
3770.0 0.00010534
3790.0 9.5294e-05
3810.0 8.3752e-05
3830.0 0.0001158
3850.0 0.00012457
3870.0 0.00015471
3890.0 0.00014601
3910.0 0.00013256
3930.0 0.00014349
3950.0 0.0001615
3970.0 0.00021062
3990.0 0.00016961
4010.0 0.00011207
4030.0 0.00015094
4050.0 0.00016509
4070.0 0.0001876
4090.0 0.00016464
4110.0 0.00011259
4130.0 0.00014843
4150.0 0.00013644
4170.0 0.00014459
4190.0 0.00014388
4210.0 0.0001787
4230.0 0.00012498
4250.0 0.00014934
4270.0 0.00014918
4290.0 0.00015083
4310.0 0.00018371
4330.0 0.0001884
4350.0 0.0001461
4370.0 0.00012652
4390.0 0.0001535
4410.0 0.00015636
4430.0 0.00012083
4450.0 0.00012157
4470.0 0.00014089
4490.0 0.00010514
4510.0 0.00012797
4530.0 0.0001382
4550.0 0.00018477
4570.0 0.00027056
4590.0 0.00026276
4610.0 0.00017582
4630.0 0.00027952
4650.0 0.00039998
4670.0 0.00037
4690.0 0.00021986
4710.0 0.00023755
4730.0 0.00030691
4750.0 0.00027434
4770.0 0.00020777
4790.0 0.00014367
4810.0 0.00020736
4830.0 0.00023919
4850.0 0.00021379
4870.0 7.7521e-05
4890.0 0.00022949
4910.0 0.00031819
4930.0 0.00034121
4950.0 0.00033656
4970.0 0.0002125
4990.0 0.00024379
5010.0 0.00028329
5030.0 0.00030779
5050.0 0.00030336
5070.0 0.00021947
5090.0 0.00018015
5110.0 0.0001685
5130.0 0.00015029
5150.0 0.00017178
5170.0 0.00014975
5190.0 0.00018545
5210.0 0.0001854
5230.0 0.0002032
5250.0 0.00025811
5270.0 0.00021966
5290.0 0.0002161
5310.0 0.0003159
5330.0 0.00036651
5350.0 0.00031072
5370.0 0.00027199
5390.0 0.00030849
5410.0 0.00038624
5430.0 0.00042592
5450.0 0.00045758
5470.0 0.00046217
5490.0 0.00045431
5510.0 0.00053125
5530.0 0.00055186
5550.0 0.00059136
5570.0 0.00062791
5590.0 0.00062371
5610.0 0.00059253
5630.0 0.00057328
5650.0 0.00058528
5670.0 0.00058052
5690.0 0.00049774
5710.0 0.00047836
5730.0 0.0004845
5750.0 0.0005289
5770.0 0.00046075
5790.0 0.00042353
5810.0 0.00043046
5830.0 0.00045303
5850.0 0.00041564
5870.0 0.00041903
5890.0 0.00049818
5910.0 0.00047657
5930.0 0.0003932
5950.0 0.00034299
5970.0 0.00036722
5990.0 0.00033966
6010.0 0.00032068
6030.0 0.00032827
6050.0 0.00030796
6070.0 0.00023309
6090.0 0.00020966
6110.0 0.00026976
6130.0 0.00031077
6150.0 0.00032706
6170.0 0.00031906
6190.0 0.00030055
6210.0 0.00029451
6230.0 0.00034032
6250.0 0.00031458
6270.0 0.0002877
6290.0 0.00026435
6310.0 0.00025005
6330.0 0.00023794
6350.0 0.00020857
6370.0 0.00020723
6390.0 0.00024558
6410.0 0.00030501
6430.0 0.00035025
6450.0 0.0003303
6470.0 0.0003241
6490.0 0.00040353
6510.0 0.00046166
6530.0 0.00043738
6550.0 0.00042101
6570.0 0.00042749
6590.0 0.00041418
6610.0 0.0004499
6630.0 0.00042363
6650.0 0.00037545
6670.0 0.00033842
6690.0 0.00032771
6710.0 0.00040018
6730.0 0.00036802
6750.0 0.00031685
6770.0 0.00028576
6790.0 0.00029948
6810.0 0.00033121
6830.0 0.00032329
6850.0 0.00029428
6870.0 0.00030392
6890.0 0.0002984
6910.0 0.00028172
6930.0 0.00032274
6950.0 0.00029945
6970.0 0.00028087
6990.0 0.00028056
7010.0 0.00026855
7030.0 0.00025292
7050.0 0.00024396
7070.0 0.00026356
7090.0 0.00024974
7110.0 0.00021671
7130.0 0.00017551
7150.0 0.00015933
7170.0 0.00021097
7190.0 0.0002299
7210.0 0.00022239
7230.0 0.00023144
7250.0 0.00021574
7270.0 0.00020552
7290.0 0.00022715
7310.0 0.00025304
7330.0 0.00024834
7350.0 0.00023315
7370.0 0.00022292
7390.0 0.00023354
7410.0 0.0002722
7430.0 0.00029768
7450.0 0.000317
7470.0 0.0003117
7490.0 0.00032007
7510.0 0.00030703
7530.0 0.00030683
7550.0 0.00030247
7570.0 0.00026627
7590.0 0.00026342
7610.0 0.00025571
7630.0 0.000238
7650.0 0.00026096
7670.0 0.0002846
7690.0 0.00030873
7710.0 0.00034379
7730.0 0.00036597
7750.0 0.00038213
7770.0 0.00038185
7790.0 0.00041623
7810.0 0.00042925
7830.0 0.00039683
7850.0 0.00039931
7870.0 0.00038002
7890.0 0.00039637
7910.0 0.00037554
7930.0 0.00037794
7950.0 0.0003354
7970.0 0.00034372
7990.0 0.00032943
8010.0 0.00032908
8030.0 0.00032751
8050.0 0.00034302
8070.0 0.00033069
8090.0 0.00033133
8110.0 0.00032275
8130.0 0.00032238
8150.0 0.0003085
8170.0 0.0002998
8190.0 0.00029592
8210.0 0.00029795
8230.0 0.00026523
8250.0 0.00024278
8270.0 0.00021288
8290.0 0.00017684
8310.0 0.00015077
8330.0 0.00012019
8350.0 0.00010114
8370.0 0.00010428
8390.0 0.00010681
8410.0 0.00011332
8430.0 0.00013793
8450.0 0.00014743
8470.0 0.00015565
8490.0 0.00017811
8510.0 0.0001941
8530.0 0.00022351
8550.0 0.00026406
8570.0 0.00029421
8590.0 0.00031557
8610.0 0.00034411
8630.0 0.00037778
8650.0 0.00038367
8670.0 0.00038742
8690.0 0.00040209
8710.0 0.0003978
8730.0 0.00039376
8750.0 0.00037265
8770.0 0.00037268
8790.0 0.00036734
8810.0 0.00033894
8830.0 0.0003381
8850.0 0.00031734
8870.0 0.00030475
8890.0 0.00027905
8910.0 0.00029832
8930.0 0.00027317
8950.0 0.00026824
8970.0 0.00026862
8990.0 0.00025968
9010.0 0.00026375
9030.0 0.00025325
9050.0 0.00025185
9070.0 0.00025154
9090.0 0.00025118
9110.0 0.0002509
9130.0 0.00025045
9150.0 0.00024993
9170.0 0.00024881
9190.0 0.00024676
9210.0 0.00024956
9230.0 0.00024823
9250.0 0.00024727
9270.0 0.00024637
9290.0 0.00024549
9310.0 0.00024465
9330.0 0.0002438
9350.0 0.00024294
9370.0 0.00024206
9390.0 0.00024116
9410.0 0.00024024
9430.0 0.00023929
9450.0 0.00023831
9470.0 0.00023732
9490.0 0.00023633
9510.0 0.00023532
9530.0 0.00023429
9550.0 0.00023324
9570.0 0.00023218
9590.0 0.00023112
9610.0 0.00023004
9630.0 0.00022895
9650.0 0.00022785
9670.0 0.00022675
9690.0 0.00022565
9710.0 0.00022454
9730.0 0.00022343
9750.0 0.00022232
9770.0 0.00022121
9790.0 0.0002201
9810.0 0.00021899
9830.0 0.00021789
9850.0 0.00021679
9870.0 0.00021569
9890.0 0.0002146
9910.0 0.00021352
9930.0 0.00021243
9950.0 0.00021073
9970.0 0.00020986
9990.0 0.00020896
10010.0 0.00020806
10030.0 0.00020711
10050.0 0.00020609
10070.0 0.00020488
10090.0 0.000204
10110.0 0.00020308
10130.0 0.00020217
10150.0 0.00020127
10170.0 0.00020035
10190.0 0.00019941
10210.0 0.00019851
10230.0 0.00019764
10250.0 0.00019675
10270.0 0.00019588
10290.0 0.00019505
10310.0 0.00019421
10330.0 0.00019337
10350.0 0.00019258
10370.0 0.00019181
10390.0 0.00019102
10410.0 0.00019026
10430.0 0.00018955
10450.0 0.00018883
10470.0 0.00018811
10490.0 0.00018743
10510.0 0.00018678
10530.0 0.00018609
10550.0 0.00018545
10570.0 0.00018485
10590.0 0.00018424
10610.0 0.00018363
10630.0 0.00018307
10650.0 0.00018252
10670.0 0.00018196
10690.0 0.00018143
10710.0 0.00018093
10730.0 0.00018042
10750.0 0.00017991
10770.0 0.00017946
10790.0 0.00017901
10810.0 0.00017855
10830.0 0.00017812
10850.0 0.00017771
10870.0 0.00017725
10890.0 0.00017675
10910.0 0.0001762
10930.0 0.0001755
10950.0 0.00017453
10970.0 0.00017328
10990.0 0.00017172
11010.0 0.00016862
11030.0 0.00016624
11050.0 0.0001635
11070.0 0.00016035
11090.0 0.00015672
11110.0 0.00015309
11130.0 0.00014945
11150.0 0.00014569
11170.0 0.00014197
11190.0 0.00013852
11210.0 0.0001351
11230.0 0.00013173
11250.0 0.00012864
11270.0 0.00012577
11290.0 0.00012296
11310.0 0.00012035
11330.0 0.00011808
11350.0 0.00011592
11370.0 0.00011388
11390.0 0.00011206
11410.0 0.00011039
11430.0 0.00010872
11450.0 0.00010715
11470.0 0.00010567
11490.0 0.00010417
11510.0 0.00010259
11530.0 0.00010104
11550.0 9.9451e-05
11570.0 9.7707e-05
11590.0 9.5893e-05
11610.0 9.4064e-05
11630.0 9.2064e-05
11650.0 8.9918e-05
11670.0 8.7817e-05
11690.0 8.567e-05
11710.0 8.3406e-05
11730.0 8.1166e-05
11750.0 7.9047e-05
11770.0 7.6875e-05
11790.0 7.4735e-05
11810.0 7.2758e-05
11830.0 7.0877e-05
11850.0 6.899e-05
11870.0 6.7283e-05
11890.0 6.5749e-05
11910.0 6.4263e-05
11930.0 6.2858e-05
11950.0 6.1612e-05
11970.0 6.043e-05
11990.0 5.9259e-05
12010.0 5.8192e-05
12030.0 5.7207e-05
12050.0 5.623e-05
12070.0 5.5271e-05
12090.0 5.4432e-05
12110.0 5.3618e-05
12130.0 5.2823e-05
12150.0 5.2112e-05
12170.0 5.1495e-05
12190.0 5.0907e-05
12210.0 5.043e-05
12230.0 5.0096e-05
12250.0 4.9884e-05
12270.0 4.9813e-05
12290.0 4.9921e-05
12310.0 5.0201e-05
12330.0 5.0665e-05
12350.0 5.1318e-05
12370.0 5.2132e-05
12390.0 5.3114e-05
12410.0 5.4292e-05
12430.0 5.5547e-05
12450.0 5.6881e-05
12470.0 5.8312e-05
12490.0 5.9774e-05
12510.0 6.1186e-05
12530.0 6.2604e-05
12550.0 6.3993e-05
12570.0 6.5276e-05
12590.0 6.6462e-05
12610.0 6.7578e-05
12630.0 6.8579e-05
12650.0 6.9436e-05
12670.0 7.0199e-05
12690.0 7.0855e-05
12710.0 7.1396e-05
12730.0 7.1836e-05
12750.0 7.2179e-05
12770.0 7.2423e-05
12790.0 7.2585e-05
12810.0 7.2656e-05
12830.0 7.2632e-05
12850.0 7.2545e-05
12870.0 7.2385e-05
12890.0 7.2128e-05
12910.0 7.18e-05
12930.0 7.1423e-05
12950.0 7.0942e-05
12970.0 7.0366e-05
12990.0 6.976e-05
13010.0 6.9085e-05
13030.0 6.8307e-05
13050.0 6.7483e-05
13070.0 6.6647e-05
13090.0 6.5719e-05
13110.0 6.4743e-05
13130.0 6.3789e-05
13150.0 6.283e-05
13170.0 6.1825e-05
13190.0 6.0902e-05
13210.0 6.0071e-05
13230.0 5.9284e-05
13250.0 5.8592e-05
13270.0 5.8046e-05
13290.0 5.7611e-05
13310.0 5.7286e-05
13330.0 5.7107e-05
13350.0 5.7048e-05
13370.0 5.7085e-05
13390.0 5.7204e-05
13410.0 5.7374e-05
13430.0 5.7564e-05
13450.0 5.7743e-05
13470.0 5.7879e-05
13490.0 5.795e-05
13510.0 5.7923e-05
13530.0 5.7785e-05
13550.0 5.7543e-05
13570.0 5.7184e-05
13590.0 5.6698e-05
13610.0 5.6134e-05
13630.0 5.5513e-05
13650.0 5.4802e-05
13670.0 5.4059e-05
13690.0 5.3327e-05
13710.0 5.2584e-05
13730.0 5.182e-05
13750.0 5.1131e-05
13770.0 5.0482e-05
13790.0 4.9849e-05
13810.0 4.926e-05
13830.0 4.8731e-05
13850.0 4.8214e-05
13870.0 4.7713e-05
13890.0 4.7249e-05
13910.0 4.6803e-05
13930.0 4.635e-05
13950.0 4.5908e-05
13970.0 4.5494e-05
13990.0 4.5076e-05
14010.0 4.4661e-05
14030.0 4.4274e-05
14050.0 4.3907e-05
14070.0 4.3544e-05
14090.0 4.3218e-05
14110.0 4.293e-05
14130.0 4.2669e-05
14150.0 4.2442e-05
14170.0 4.2259e-05
14190.0 4.2113e-05
14210.0 4.2002e-05
14230.0 4.1931e-05
14250.0 4.1896e-05
14270.0 4.1901e-05
14290.0 4.1945e-05
14310.0 4.2018e-05
14330.0 4.2122e-05
14350.0 4.2261e-05
14370.0 4.2419e-05
14390.0 4.2585e-05
14410.0 4.2773e-05
14430.0 4.2967e-05
14450.0 4.3147e-05
14470.0 4.3318e-05
14490.0 4.3488e-05
14510.0 4.3628e-05
14530.0 4.3742e-05
14550.0 4.3845e-05
14570.0 4.3934e-05
14590.0 4.4004e-05
14610.0 4.4076e-05
14630.0 4.4165e-05
14650.0 4.4264e-05
14670.0 4.4386e-05
14690.0 4.4557e-05
14710.0 4.4785e-05
14730.0 4.5045e-05
14750.0 4.5376e-05
14770.0 4.579e-05
14790.0 4.6259e-05
14810.0 4.6778e-05
14830.0 4.741e-05
14850.0 4.8091e-05
14870.0 4.8784e-05
14890.0 4.952e-05
14910.0 5.0283e-05
14930.0 5.0983e-05
14950.0 5.16e-05
14970.0 5.2154e-05
14990.0 5.2566e-05
15010.0 5.2816e-05
15030.0 5.2931e-05
15050.0 5.2919e-05
15070.0 5.2784e-05
15090.0 5.2573e-05
15110.0 5.2309e-05
15130.0 5.2012e-05
15150.0 5.1699e-05
15170.0 5.1375e-05
15190.0 5.1045e-05
15210.0 5.0716e-05
15230.0 5.0386e-05
15250.0 5.0053e-05
15270.0 4.9722e-05
15290.0 4.9394e-05
15310.0 4.9064e-05
15330.0 4.8733e-05
15350.0 4.8406e-05
15370.0 4.8079e-05
15390.0 4.7749e-05
15410.0 4.7422e-05
15430.0 4.7097e-05
15450.0 4.6772e-05
15470.0 4.6446e-05
15490.0 4.6124e-05
15510.0 4.5803e-05
15530.0 4.5481e-05
15550.0 4.5161e-05
15570.0 4.4845e-05
15590.0 4.4526e-05
15610.0 4.4208e-05
15630.0 4.3895e-05
15650.0 4.3583e-05
15670.0 4.327e-05
15690.0 4.296e-05
15710.0 4.2654e-05
15730.0 4.2347e-05
15750.0 4.2041e-05
15770.0 4.1739e-05
15790.0 4.1438e-05
15810.0 4.1135e-05
15830.0 4.0838e-05
15850.0 4.0543e-05
15870.0 4.0248e-05
15890.0 3.9955e-05
15910.0 3.9667e-05
15930.0 3.9379e-05
15950.0 3.909e-05
15970.0 3.8806e-05
15990.0 3.8525e-05
16010.0 3.8244e-05
16030.0 3.7964e-05
16050.0 3.769e-05
16070.0 3.7416e-05
16090.0 3.7143e-05
16110.0 3.6874e-05
16130.0 3.6608e-05
16150.0 3.6341e-05
16170.0 3.6076e-05
16190.0 3.5817e-05
16210.0 3.5558e-05
16230.0 3.53e-05
16250.0 3.5046e-05
16270.0 3.4795e-05
16290.0 3.4544e-05
16310.0 3.4295e-05
16330.0 3.4051e-05
16350.0 3.3808e-05
16370.0 3.3564e-05
16390.0 3.3326e-05
16410.0 3.309e-05
16430.0 3.2855e-05
16450.0 3.2622e-05
16470.0 3.2394e-05
16490.0 3.2165e-05
16510.0 3.1938e-05
16530.0 3.1715e-05
16550.0 3.1495e-05
16570.0 3.1274e-05
16590.0 3.1056e-05
16610.0 3.0844e-05
16630.0 3.0631e-05
16650.0 3.0419e-05
16670.0 3.0212e-05
16690.0 3.0007e-05
16710.0 2.9801e-05
16730.0 2.9598e-05
16750.0 2.94e-05
16770.0 2.9202e-05
16790.0 2.9004e-05
16810.0 2.8812e-05
16830.0 2.8622e-05
16850.0 2.8431e-05
16870.0 2.8243e-05
16890.0 2.8059e-05
16910.0 2.7875e-05
16930.0 2.7692e-05
16950.0 2.7513e-05
16970.0 2.7336e-05
16990.0 2.716e-05
17010.0 2.6986e-05
17030.0 2.6816e-05
17050.0 2.6645e-05
17070.0 2.6477e-05
17090.0 2.6311e-05
17110.0 2.6148e-05
17130.0 2.5983e-05
17150.0 2.5823e-05
17170.0 2.5665e-05
17190.0 2.5508e-05
17210.0 2.5352e-05
17230.0 2.52e-05
17250.0 2.5048e-05
17270.0 2.4897e-05
17290.0 2.4749e-05
17310.0 2.4603e-05
17330.0 2.4457e-05
17350.0 2.4313e-05
17370.0 2.4173e-05
17390.0 2.4033e-05
17410.0 2.3894e-05
17430.0 2.3758e-05
17450.0 2.3624e-05
17470.0 2.3488e-05
17490.0 2.3356e-05
17510.0 2.3226e-05
17530.0 2.3097e-05
17550.0 2.2968e-05
17570.0 2.2843e-05
17590.0 2.272e-05
17610.0 2.2595e-05
17630.0 2.2473e-05
17650.0 2.2354e-05
17670.0 2.2235e-05
17690.0 2.2115e-05
17710.0 2.2e-05
17730.0 2.1886e-05
17750.0 2.1772e-05
17770.0 2.1659e-05
17790.0 2.155e-05
17810.0 2.144e-05
17830.0 2.1331e-05
17850.0 2.1224e-05
17870.0 2.1119e-05
17890.0 2.1013e-05
17910.0 2.0909e-05
17930.0 2.0809e-05
17950.0 2.0708e-05
17970.0 2.0607e-05
17990.0 2.0509e-05
18010.0 2.0413e-05
18030.0 2.0314e-05
18050.0 2.0219e-05
18070.0 2.0126e-05
18090.0 2.0032e-05
18110.0 1.9939e-05
18130.0 1.985e-05
18150.0 1.976e-05
18170.0 1.967e-05
18190.0 1.9583e-05
18210.0 1.9497e-05
18230.0 1.941e-05
18250.0 1.9324e-05
18270.0 1.9241e-05
18290.0 1.9159e-05
18310.0 1.9076e-05
18330.0 1.8995e-05
18350.0 1.8916e-05
18370.0 1.8836e-05
18390.0 1.8757e-05
18410.0 1.868e-05
18430.0 1.8604e-05
18450.0 1.8526e-05
18470.0 1.8452e-05
18490.0 1.8379e-05
18510.0 1.8305e-05
18530.0 1.8232e-05
18550.0 1.8162e-05
18570.0 1.8091e-05
18590.0 1.8019e-05
18610.0 1.795e-05
18630.0 1.7882e-05
18650.0 1.7814e-05
18670.0 1.7746e-05
18690.0 1.7681e-05
18710.0 1.7615e-05
18730.0 1.7549e-05
18750.0 1.7486e-05
18770.0 1.7423e-05
18790.0 1.7358e-05
18810.0 1.7296e-05
18830.0 1.7235e-05
18850.0 1.7174e-05
18870.0 1.7113e-05
18890.0 1.7054e-05
18910.0 1.6996e-05
18930.0 1.6936e-05
18950.0 1.6878e-05
18970.0 1.6822e-05
18990.0 1.6765e-05
19010.0 1.6706e-05
19030.0 1.6652e-05
19050.0 1.6598e-05
19070.0 1.6542e-05
19090.0 1.6488e-05
19110.0 1.6436e-05
19130.0 1.6382e-05
19150.0 1.6329e-05
19170.0 1.6278e-05
19190.0 1.6227e-05
19210.0 1.6174e-05
19230.0 1.6123e-05
19250.0 1.6075e-05
19270.0 1.6025e-05
19290.0 1.5975e-05
19310.0 1.5927e-05
19330.0 1.588e-05
19350.0 1.583e-05
19370.0 1.5783e-05
19390.0 1.5736e-05
19410.0 1.5689e-05
19430.0 1.5642e-05
19450.0 1.5598e-05
19470.0 1.5553e-05
19490.0 1.5506e-05
19510.0 1.5462e-05
19530.0 1.5419e-05
19550.0 1.5374e-05
19570.0 1.5329e-05
19590.0 1.5287e-05
19610.0 1.5244e-05
19630.0 1.52e-05
19650.0 1.5158e-05
19670.0 1.5118e-05
19690.0 1.5075e-05
19710.0 1.5033e-05
19730.0 1.4993e-05
19750.0 1.4952e-05
19770.0 1.491e-05
19790.0 1.487e-05
19810.0 1.4831e-05
19830.0 1.479e-05
19850.0 1.475e-05
19870.0 1.471e-05
19890.0 1.4666e-05
19910.0 1.4615e-05
19930.0 1.4559e-05
19950.0 1.4492e-05
19970.0 1.4404e-05
19990.0 1.4294e-05
20010.0 1.4164e-05
20030.0 1.4005e-05
20050.0 1.3815e-05
20070.0 1.361e-05
20090.0 1.3389e-05
20110.0 1.3139e-05
20130.0 1.2889e-05
20150.0 1.2643e-05
20170.0 1.239e-05
20190.0 1.2136e-05
20210.0 1.1897e-05
20230.0 1.1665e-05
20250.0 1.1434e-05
20270.0 1.122e-05
20290.0 1.1027e-05
20310.0 1.0844e-05
20330.0 1.0676e-05
20350.0 1.0539e-05
20370.0 1.0421e-05
20390.0 1.0323e-05
20410.0 1.0251e-05
20430.0 1.0203e-05
20450.0 1.0178e-05
20470.0 1.0177e-05
20490.0 1.0199e-05
20510.0 1.0243e-05
20530.0 1.031e-05
20550.0 1.0395e-05
20570.0 1.0492e-05
20590.0 1.0608e-05
20610.0 1.0736e-05
20630.0 1.0868e-05
20650.0 1.1007e-05
20670.0 1.1156e-05
20690.0 1.1299e-05
20710.0 1.1437e-05
20730.0 1.1573e-05
20750.0 1.1701e-05
20770.0 1.1814e-05
20790.0 1.1918e-05
20810.0 1.201e-05
20830.0 1.2086e-05
20850.0 1.2147e-05
20870.0 1.2195e-05
20890.0 1.2228e-05
20910.0 1.2246e-05
20930.0 1.2251e-05
20950.0 1.2243e-05
20970.0 1.2225e-05
20990.0 1.2198e-05
21010.0 1.2159e-05
21030.0 1.2113e-05
21050.0 1.2061e-05
21070.0 1.2002e-05
21090.0 1.1935e-05
21110.0 1.1867e-05
21130.0 1.1797e-05
21150.0 1.1722e-05
21170.0 1.1646e-05
21190.0 1.1574e-05
21210.0 1.15e-05
21230.0 1.1427e-05
21250.0 1.1361e-05
21270.0 1.1301e-05
21290.0 1.1244e-05
21310.0 1.1196e-05
21330.0 1.1158e-05
21350.0 1.1128e-05
21370.0 1.1107e-05
21390.0 1.1097e-05
21410.0 1.1097e-05
21430.0 1.1107e-05
21450.0 1.1128e-05
21470.0 1.1158e-05
21490.0 1.1198e-05
21510.0 1.1248e-05
21530.0 1.1304e-05
21550.0 1.1367e-05
21570.0 1.1439e-05
21590.0 1.1516e-05
21610.0 1.1596e-05
21630.0 1.1683e-05
21650.0 1.1776e-05
21670.0 1.1867e-05
21690.0 1.1963e-05
21710.0 1.2064e-05
21730.0 1.2165e-05
21750.0 1.2266e-05
21770.0 1.2375e-05
21790.0 1.2486e-05
21810.0 1.2595e-05
21830.0 1.2707e-05
21850.0 1.2825e-05
21870.0 1.2942e-05
21890.0 1.3057e-05
21910.0 1.3177e-05
21930.0 1.3299e-05
21950.0 1.3416e-05
21970.0 1.3534e-05
21990.0 1.3657e-05
22010.0 1.3771e-05
22030.0 1.388e-05
22050.0 1.3988e-05
22070.0 1.4089e-05
22090.0 1.4178e-05
22110.0 1.4261e-05
22130.0 1.4335e-05
22150.0 1.4395e-05
22170.0 1.4442e-05
22190.0 1.4476e-05
22210.0 1.4493e-05
22230.0 1.4494e-05
22250.0 1.4478e-05
22270.0 1.4444e-05
22290.0 1.4393e-05
22310.0 1.4326e-05
22330.0 1.4237e-05
22350.0 1.4132e-05
22370.0 1.4014e-05
22390.0 1.3878e-05
22410.0 1.3723e-05
22430.0 1.3562e-05
22450.0 1.3392e-05
22470.0 1.3205e-05
22490.0 1.3012e-05
22510.0 1.282e-05
22530.0 1.2616e-05
22550.0 1.2405e-05
22570.0 1.2202e-05
22590.0 1.2001e-05
22610.0 1.1794e-05
22630.0 1.1595e-05
