#lamb flux
1010.0 1.063e-06
1030.0 1.128e-06
1050.0 1.2027e-06
1070.0 1.2869e-06
1090.0 1.3825e-06
1110.0 1.4805e-06
1130.0 1.5792e-06
1150.0 1.6826e-06
1170.0 1.7893e-06
1190.0 1.8905e-06
1210.0 1.993e-06
1230.0 2.0991e-06
1250.0 2.203e-06
1270.0 2.3039e-06
1290.0 2.4106e-06
1310.0 2.5173e-06
1330.0 2.6196e-06
1350.0 2.7231e-06
1370.0 2.83e-06
1390.0 2.9343e-06
1410.0 3.0356e-06
1430.0 3.1415e-06
1450.0 3.2474e-06
1470.0 3.3499e-06
1490.0 3.4535e-06
1510.0 3.5629e-06
1530.0 3.6667e-06
1550.0 3.7692e-06
1570.0 3.8753e-06
1590.0 3.9815e-06
1610.0 4.0831e-06
1630.0 4.1879e-06
1650.0 4.2955e-06
1670.0 4.3997e-06
1690.0 4.5027e-06
1710.0 4.6097e-06
1730.0 4.7174e-06
1750.0 4.8188e-06
1770.0 4.9233e-06
1790.0 5.03e-06
1810.0 5.1335e-06
1830.0 5.2353e-06
1850.0 5.3436e-06
1870.0 5.4492e-06
1890.0 5.5515e-06
1910.0 5.6561e-06
1930.0 5.7635e-06
1950.0 5.8663e-06
1970.0 5.9682e-06
1990.0 6.0743e-06
2010.0 6.1791e-06
2030.0 6.2806e-06
2050.0 6.3855e-06
2070.0 6.4936e-06
2090.0 6.5962e-06
2110.0 6.6991e-06
2130.0 6.8056e-06
2150.0 6.9108e-06
2170.0 7.0122e-06
2190.0 7.1182e-06
2210.0 7.2255e-06
2230.0 7.3295e-06
2250.0 7.434e-06
2270.0 7.5438e-06
2290.0 7.6512e-06
2310.0 7.7555e-06
2330.0 7.8638e-06
2350.0 7.974e-06
2370.0 8.0809e-06
2390.0 8.1899e-06
2410.0 8.3044e-06
2430.0 8.4157e-06
2450.0 8.5231e-06
2470.0 8.6287e-06
2490.0 8.7272e-06
2510.0 8.8118e-06
2530.0 8.895e-06
2550.0 8.9987e-06
2570.0 9.1572e-06
2590.0 9.4178e-06
2610.0 9.8801e-06
2630.0 1.0603e-05
2650.0 1.1579e-05
2670.0 1.2843e-05
2690.0 1.4383e-05
2710.0 1.6021e-05
2730.0 1.7656e-05
2750.0 1.9317e-05
2770.0 2.0865e-05
2790.0 2.2247e-05
2810.0 2.3548e-05
2830.0 2.4842e-05
2850.0 2.6036e-05
2870.0 2.7217e-05
2890.0 2.8449e-05
2910.0 2.9696e-05
2930.0 3.0907e-05
2950.0 3.2172e-05
2970.0 3.3474e-05
2990.0 3.4742e-05
3010.0 7.4579e-05
3030.0 7.7306e-05
3050.0 8.006e-05
3070.0 8.2696e-05
3090.0 8.5461e-05
3110.0 8.8338e-05
3130.0 9.1179e-05
3150.0 9.3995e-05
3170.0 9.6874e-05
3190.0 9.9365e-05
3210.0 0.0001013
3230.0 0.00010281
3250.0 9.0608e-05
3270.0 7.8488e-05
3290.0 5.9943e-05
3310.0 6.7171e-05
3330.0 7.2342e-05
3350.0 7.7263e-05
3370.0 8.2143e-05
3390.0 8.7029e-05
3410.0 9.1916e-05
3430.0 9.6793e-05
3450.0 0.00010168
3470.0 0.00010655
3490.0 0.00011068
3510.0 0.00011207
3530.0 0.00011727
3550.0 0.00014327
3570.0 0.00018162
3590.0 0.00020551
3610.0 0.00023392
3630.0 0.0002179
3650.0 0.00019932
3670.0 0.0001921
3690.0 0.00022834
3710.0 0.00028976
3730.0 0.00031149
3750.0 0.00032337
3770.0 0.00032657
3790.0 0.00032116
3810.0 0.0002915
3830.0 0.00022575
3850.0 0.0001803
3870.0 0.00017563
3890.0 0.00023969
3910.0 0.0003259
3930.0 0.00038211
3950.0 0.0004032
3970.0 0.00040113
3990.0 0.00045775
4010.0 0.0005117
4030.0 0.00047864
4050.0 0.00041872
4070.0 0.00035424
4090.0 0.00035213
4110.0 0.00039894
4130.0 0.00040489
4150.0 0.00040815
4170.0 0.00038456
4190.0 0.00036667
4210.0 0.0003712
4230.0 0.00042664
4250.0 0.00043081
4270.0 0.00042798
4290.0 0.00042392
4310.0 0.00042427
4330.0 0.00046877
4350.0 0.00053987
4370.0 0.00054862
4390.0 0.00047478
4410.0 0.00039219
4430.0 0.00033624
4450.0 0.00028931
4470.0 0.0002803
4490.0 0.00033512
4510.0 0.00037598
4530.0 0.00041218
4550.0 0.00044304
4570.0 0.00052341
4590.0 0.00074635
4610.0 0.00099979
4630.0 0.0010356
4650.0 0.00098309
4670.0 0.0010448
4690.0 0.0011462
4710.0 0.0010134
4730.0 0.00074626
4750.0 0.00056791
4770.0 0.00051703
4790.0 0.00051899
4810.0 0.00048652
4830.0 0.00053081
4850.0 0.00067392
4870.0 0.00083704
4890.0 0.00074811
4910.0 0.00065759
4930.0 0.00072955
4950.0 0.00095848
4970.0 0.0012436
4990.0 0.0012817
5010.0 0.0011042
5030.0 0.00082854
5050.0 0.00059408
5070.0 0.00049957
5090.0 0.00047385
5110.0 0.00048081
5130.0 0.00050025
5150.0 0.00049363
5170.0 0.0005031
5190.0 0.00048712
5210.0 0.00050395
5230.0 0.00054053
5250.0 0.00059743
5270.0 0.00073822
5290.0 0.00084508
5310.0 0.00085176
5330.0 0.00088938
5350.0 0.0010065
5370.0 0.0010736
5390.0 0.00099895
5410.0 0.00085794
5430.0 0.00081853
5450.0 0.00094782
5470.0 0.0012268
5490.0 0.0015277
5510.0 0.0016858
5530.0 0.0017269
5550.0 0.0016517
5570.0 0.0015434
5590.0 0.0014968
5610.0 0.00152
5630.0 0.0015608
5650.0 0.001569
5670.0 0.0015508
5690.0 0.0015128
5710.0 0.0013624
5730.0 0.0011438
5750.0 0.00096328
5770.0 0.00097242
5790.0 0.0010724
5810.0 0.0011578
5830.0 0.0012003
5850.0 0.0012038
5870.0 0.001117
5890.0 0.00098158
5910.0 0.00096435
5930.0 0.0010502
5950.0 0.0010895
5970.0 0.0010027
5990.0 0.00086704
6010.0 0.00071675
6030.0 0.00060193
6050.0 0.00059276
6070.0 0.00067378
6090.0 0.00070938
6110.0 0.00064865
6130.0 0.00060036
6150.0 0.00063777
6170.0 0.00076361
6190.0 0.00091106
6210.0 0.00099065
6230.0 0.00095639
6250.0 0.0008766
6270.0 0.00075858
6290.0 0.00062887
6310.0 0.00052051
6330.0 0.00047017
6350.0 0.00048969
6370.0 0.00053088
6390.0 0.0005746
6410.0 0.0006538
6430.0 0.00080497
6450.0 0.0010138
6470.0 0.001154
6490.0 0.0011569
6510.0 0.0011296
6530.0 0.001151
6550.0 0.0011767
6570.0 0.0011871
6590.0 0.0011872
6610.0 0.0011549
6630.0 0.0011565
6650.0 0.0011604
6670.0 0.0011158
6690.0 0.0010005
6710.0 0.00084578
6730.0 0.00080983
6750.0 0.0008703
6770.0 0.00094633
6790.0 0.00097552
6810.0 0.00096453
6830.0 0.00095134
6850.0 0.00093062
6870.0 0.00087748
6890.0 0.00082683
6910.0 0.00079021
6930.0 0.00076165
6950.0 0.00080848
6970.0 0.00087996
6990.0 0.00092811
7010.0 0.00093895
7030.0 0.00088738
7050.0 0.00077036
7070.0 0.00062454
7090.0 0.00053061
7110.0 0.00051183
7130.0 0.00053988
7150.0 0.00054657
7170.0 0.00050273
7190.0 0.00049289
7210.0 0.00054303
7230.0 0.00062361
7250.0 0.00071276
7270.0 0.00075058
7290.0 0.00070672
7310.0 0.00062706
7330.0 0.00057388
7350.0 0.00056172
7370.0 0.00057642
7390.0 0.0006024
7410.0 0.00064546
7430.0 0.00073368
7450.0 0.00085291
7470.0 0.00097379
7490.0 0.0010301
7510.0 0.00099696
7530.0 0.00086052
7550.0 0.00069916
7570.0 0.0005799
7590.0 0.00050976
7610.0 0.00052306
7630.0 0.00060273
7650.0 0.00069125
7670.0 0.00078005
7690.0 0.00085478
7710.0 0.00090812
7730.0 0.00095235
7750.0 0.00099347
7770.0 0.0010294
7790.0 0.0010307
7810.0 0.001039
7830.0 0.001069
7850.0 0.0010682
7870.0 0.0010372
7890.0 0.0009609
7910.0 0.00090047
7930.0 0.00085629
7950.0 0.00085351
7970.0 0.00084591
7990.0 0.00085219
8010.0 0.00084719
8030.0 0.00084864
8050.0 0.00086934
8070.0 0.00085486
8090.0 0.00085315
8110.0 0.00081849
8130.0 0.00081194
8150.0 0.00078807
8170.0 0.00076454
8190.0 0.00075264
8210.0 0.00075671
8230.0 0.00070897
8250.0 0.00066351
8270.0 0.00057869
8290.0 0.00046597
8310.0 0.00036088
8330.0 0.00027681
8350.0 0.00024394
8370.0 0.00027424
8390.0 0.00031651
8410.0 0.00034914
8430.0 0.00038713
8450.0 0.00040749
8470.0 0.00042619
8490.0 0.00047327
8510.0 0.0005268
8530.0 0.00061139
8550.0 0.00071614
8570.0 0.00081023
8590.0 0.00088534
8610.0 0.00094894
8630.0 0.00099397
8650.0 0.0010001
8670.0 0.0010013
8690.0 0.0010332
8710.0 0.0010514
8730.0 0.0010711
8750.0 0.0010481
8770.0 0.0010502
8790.0 0.0010343
8810.0 0.00096187
8830.0 0.00093487
8850.0 0.00088079
8870.0 0.00084026
8890.0 0.00080159
8910.0 0.00082091
8930.0 0.00077144
8950.0 0.00074198
8970.0 0.00073027
8990.0 0.00071245
9010.0 0.00069926
9030.0 0.00068083
9050.0 0.00067671
9070.0 0.00067484
9090.0 0.00067301
9110.0 0.00067128
9130.0 0.00066936
9150.0 0.00066738
9170.0 0.00066454
9190.0 0.00066068
9210.0 0.00066397
9230.0 0.00066054
9250.0 0.00065779
9270.0 0.0006552
9290.0 0.00065273
9310.0 0.00065031
9330.0 0.00064791
9350.0 0.00064554
9370.0 0.00064315
9390.0 0.00064073
9410.0 0.00063829
9430.0 0.0006358
9450.0 0.00063305
9470.0 0.00063035
9490.0 0.00062807
9510.0 0.00062563
9530.0 0.00062314
9550.0 0.00062061
9570.0 0.00061804
9590.0 0.00061545
9610.0 0.00061285
9630.0 0.00061022
9650.0 0.00060759
9670.0 0.00060495
9690.0 0.00060231
9710.0 0.00059965
9730.0 0.000597
9750.0 0.00059433
9770.0 0.00059167
9790.0 0.00058901
9810.0 0.00058634
9830.0 0.00058367
9850.0 0.00058102
9870.0 0.00057835
9890.0 0.00057568
9910.0 0.00057302
9930.0 0.0005703
9950.0 0.00056405
9970.0 0.00056246
9990.0 0.00056067
10010.0 0.00055878
10030.0 0.00055659
10050.0 0.00055413
10070.0 0.00055149
10090.0 0.00054911
10110.0 0.0005465
10130.0 0.00054402
10150.0 0.0005415
10170.0 0.00053886
10190.0 0.00053611
10210.0 0.00053353
10230.0 0.00053102
10250.0 0.00052836
10270.0 0.00052574
10290.0 0.00052326
10310.0 0.00052066
10330.0 0.00051795
10350.0 0.00051541
10370.0 0.00051289
10390.0 0.00051024
10410.0 0.00050761
10430.0 0.00050516
10450.0 0.00050257
10470.0 0.00049991
10490.0 0.00049738
10510.0 0.00049487
10530.0 0.00049214
10550.0 0.0004895
10570.0 0.00048701
10590.0 0.00048439
10610.0 0.00048171
10630.0 0.00047918
10650.0 0.00047663
10670.0 0.00047389
10690.0 0.00047124
10710.0 0.00046869
10730.0 0.000466
10750.0 0.00046319
10770.0 0.00046062
10790.0 0.00045799
10810.0 0.00045522
10830.0 0.00045251
10850.0 0.00044991
10870.0 0.00044702
10890.0 0.00044406
10910.0 0.00044113
10930.0 0.00043796
10950.0 0.00043431
10970.0 0.00043036
10990.0 0.00042614
11010.0 0.00038459
11030.0 0.00037949
11050.0 0.00037456
11070.0 0.00036951
11090.0 0.00036408
11110.0 0.00035905
11130.0 0.00035416
11150.0 0.00034911
11170.0 0.00034409
11190.0 0.00033941
11210.0 0.0003346
11230.0 0.00032963
11250.0 0.0003249
11270.0 0.00032032
11290.0 0.00031555
11310.0 0.00031087
11330.0 0.00030666
11350.0 0.00030244
11370.0 0.00029826
11390.0 0.00029441
11410.0 0.00029078
11430.0 0.00028699
11450.0 0.0002834
11470.0 0.00028001
11490.0 0.00027653
11510.0 0.00027284
11530.0 0.00026929
11550.0 0.00026566
11570.0 0.00026165
11590.0 0.00025749
11610.0 0.00025332
11630.0 0.00024873
11650.0 0.00024376
11670.0 0.0002389
11690.0 0.0002339
11710.0 0.00022857
11730.0 0.00022325
11750.0 0.0002182
11770.0 0.00021296
11790.0 0.00020774
11810.0 0.00020289
11830.0 0.00019824
11850.0 0.00019352
11870.0 0.00018923
11890.0 0.00018535
11910.0 0.00018157
11930.0 0.000178
11950.0 0.00017483
11970.0 0.00017183
11990.0 0.00016888
12010.0 0.00016622
12030.0 0.0001638
12050.0 0.00016144
12070.0 0.00015916
12090.0 0.00015721
12110.0 0.00015536
12130.0 0.00015358
12150.0 0.00015203
12170.0 0.00015072
12190.0 0.00014948
12210.0 0.0001485
12230.0 0.00014783
12250.0 0.00014743
12270.0 0.00014732
12290.0 0.00014759
12310.0 0.00014822
12330.0 0.00014925
12350.0 0.0001507
12370.0 0.0001525
12390.0 0.00015471
12410.0 0.00015738
12430.0 0.00016028
12450.0 0.00016342
12470.0 0.00016684
12490.0 0.00017042
12510.0 0.00017394
12530.0 0.00017755
12550.0 0.00018116
12570.0 0.00018454
12590.0 0.00018771
12610.0 0.00019073
12630.0 0.00019345
12650.0 0.00019575
12670.0 0.00019777
12690.0 0.00019945
12710.0 0.00020074
12730.0 0.00020169
12750.0 0.00020228
12770.0 0.00020252
12790.0 0.00020247
12810.0 0.0002021
12830.0 0.00020141
12850.0 0.00020053
12870.0 0.00019946
12890.0 0.00019812
12910.0 0.00019663
12930.0 0.00019508
12950.0 0.00019331
12970.0 0.00019139
12990.0 0.00018948
13010.0 0.00018748
13030.0 0.00018531
13050.0 0.0001831
13070.0 0.00018091
13090.0 0.00017856
13110.0 0.00017612
13130.0 0.00017375
13150.0 0.00017137
13170.0 0.00016887
13190.0 0.00016655
13210.0 0.00016442
13230.0 0.00016238
13250.0 0.00016055
13270.0 0.00015907
13290.0 0.00015786
13310.0 0.00015696
13330.0 0.00015645
13350.0 0.0001563
13370.0 0.00015647
13390.0 0.00015694
13410.0 0.00015762
13430.0 0.00015843
13450.0 0.00015931
13470.0 0.00016012
13490.0 0.00016078
13510.0 0.00016122
13530.0 0.00016134
13550.0 0.00016109
13570.0 0.00016046
13590.0 0.00015938
13610.0 0.00015795
13630.0 0.00015623
13650.0 0.00015413
13670.0 0.00015182
13690.0 0.00014942
13710.0 0.0001469
13730.0 0.00014422
13750.0 0.00014174
13770.0 0.00013936
13790.0 0.00013702
13810.0 0.00013485
13830.0 0.00013293
13850.0 0.00013112
13870.0 0.00012944
13890.0 0.00012798
13910.0 0.00012668
13930.0 0.00012547
13950.0 0.00012439
13970.0 0.00012347
13990.0 0.00012262
14010.0 0.00012185
14030.0 0.00012117
14050.0 0.00012056
14070.0 0.00011998
14090.0 0.00011946
14110.0 0.00011898
14130.0 0.00011852
14150.0 0.00011808
14170.0 0.00011766
14190.0 0.00011726
14210.0 0.00011685
14230.0 0.00011645
14250.0 0.00011608
14270.0 0.00011571
14290.0 0.00011537
14310.0 0.00011508
14330.0 0.00011481
14350.0 0.00011459
14370.0 0.00011441
14390.0 0.00011426
14410.0 0.00011415
14430.0 0.00011407
14450.0 0.00011399
14470.0 0.00011391
14490.0 0.00011383
14510.0 0.00011372
14530.0 0.00011358
14550.0 0.00011343
14570.0 0.00011325
14590.0 0.00011307
14610.0 0.00011289
14630.0 0.00011274
14650.0 0.00011263
14670.0 0.00011259
14690.0 0.00011265
14710.0 0.00011284
14730.0 0.00011313
14750.0 0.00011357
14770.0 0.00011422
14790.0 0.00011502
14810.0 0.00011597
14830.0 0.0001172
14850.0 0.00011863
14870.0 0.00012016
14890.0 0.00012187
14910.0 0.00012375
14930.0 0.00012557
14950.0 0.00012727
14970.0 0.00012889
14990.0 0.00013021
15010.0 0.00013115
15030.0 0.00013177
15050.0 0.00013207
15070.0 0.00013204
15090.0 0.00013181
15110.0 0.00013143
15130.0 0.00013097
15150.0 0.00013046
15170.0 0.00012991
15190.0 0.00012936
15210.0 0.0001288
15230.0 0.00012824
15250.0 0.00012767
15270.0 0.0001271
15290.0 0.00012654
15310.0 0.00012597
15330.0 0.0001254
15350.0 0.00012484
15370.0 0.00012427
15390.0 0.0001237
15410.0 0.00012313
15430.0 0.00012257
15450.0 0.000122
15470.0 0.00012143
15490.0 0.00012087
15510.0 0.0001203
15530.0 0.00011974
15550.0 0.00011917
15570.0 0.00011861
15590.0 0.00011805
15610.0 0.00011748
15630.0 0.00011692
15650.0 0.00011636
15670.0 0.0001158
15690.0 0.00011525
15710.0 0.00011469
15730.0 0.00011414
15750.0 0.00011358
15770.0 0.00011303
15790.0 0.00011248
15810.0 0.00011193
15830.0 0.00011138
15850.0 0.00011084
15870.0 0.00011029
15890.0 0.00010975
15910.0 0.00010921
15930.0 0.00010868
15950.0 0.00010814
15970.0 0.0001076
15990.0 0.00010707
16010.0 0.00010654
16030.0 0.00010601
16050.0 0.00010549
16070.0 0.00010497
16090.0 0.00010444
16110.0 0.00010393
16130.0 0.00010341
16150.0 0.00010289
16170.0 0.00010238
16190.0 0.00010187
16210.0 0.00010137
16230.0 0.00010086
16250.0 0.00010036
16270.0 9.9864e-05
16290.0 9.9366e-05
16310.0 9.8871e-05
16330.0 9.8382e-05
16350.0 9.7894e-05
16370.0 9.7404e-05
16390.0 9.6923e-05
16410.0 9.6444e-05
16430.0 9.5965e-05
16450.0 9.5489e-05
16470.0 9.5021e-05
16490.0 9.455e-05
16510.0 9.4082e-05
16530.0 9.3619e-05
16550.0 9.316e-05
16570.0 9.2699e-05
16590.0 9.2243e-05
16610.0 9.1794e-05
16630.0 9.1344e-05
16650.0 9.0896e-05
16670.0 9.0454e-05
16690.0 9.0015e-05
16710.0 8.9574e-05
16730.0 8.9139e-05
16750.0 8.8709e-05
16770.0 8.828e-05
16790.0 8.7851e-05
16810.0 8.743e-05
16830.0 8.7011e-05
16850.0 8.6592e-05
16870.0 8.6178e-05
16890.0 8.5768e-05
16910.0 8.5358e-05
16930.0 8.495e-05
16950.0 8.4549e-05
16970.0 8.415e-05
16990.0 8.3751e-05
17010.0 8.3357e-05
17030.0 8.2969e-05
17050.0 8.2579e-05
17070.0 8.2192e-05
17090.0 8.1811e-05
17110.0 8.1432e-05
17130.0 8.1052e-05
17150.0 8.0678e-05
17170.0 8.0309e-05
17190.0 7.994e-05
17210.0 7.9574e-05
17230.0 7.9213e-05
17250.0 7.8854e-05
17270.0 7.8494e-05
17290.0 7.814e-05
17310.0 7.779e-05
17330.0 7.744e-05
17350.0 7.7092e-05
17370.0 7.6751e-05
17390.0 7.6411e-05
17410.0 7.6072e-05
17430.0 7.5738e-05
17450.0 7.5407e-05
17470.0 7.5075e-05
17490.0 7.4747e-05
17510.0 7.4424e-05
17530.0 7.4102e-05
17550.0 7.3781e-05
17570.0 7.3466e-05
17590.0 7.3153e-05
17610.0 7.284e-05
17630.0 7.2531e-05
17650.0 7.2226e-05
17670.0 7.1923e-05
17690.0 7.1618e-05
17710.0 7.1321e-05
17730.0 7.1026e-05
17750.0 7.0731e-05
17770.0 7.0439e-05
17790.0 7.0153e-05
17810.0 6.9865e-05
17830.0 6.958e-05
17850.0 6.9299e-05
17870.0 6.9021e-05
17890.0 6.8742e-05
17910.0 6.8466e-05
17930.0 6.8197e-05
17950.0 6.7926e-05
17970.0 6.7657e-05
17990.0 6.7394e-05
18010.0 6.7132e-05
18030.0 6.6868e-05
18050.0 6.6609e-05
18070.0 6.6355e-05
18090.0 6.61e-05
18110.0 6.5846e-05
18130.0 6.5598e-05
18150.0 6.5351e-05
18170.0 6.5104e-05
18190.0 6.4861e-05
18210.0 6.4622e-05
18230.0 6.4381e-05
18250.0 6.4142e-05
18270.0 6.3908e-05
18290.0 6.3676e-05
18310.0 6.3443e-05
18330.0 6.3215e-05
18350.0 6.299e-05
18370.0 6.2763e-05
18390.0 6.2539e-05
18410.0 6.2319e-05
18430.0 6.21e-05
18450.0 6.188e-05
18470.0 6.1665e-05
18490.0 6.1453e-05
18510.0 6.1241e-05
18530.0 6.103e-05
18550.0 6.0824e-05
18570.0 6.0617e-05
18590.0 6.0411e-05
18610.0 6.0209e-05
18630.0 6.0009e-05
18650.0 5.9808e-05
18670.0 5.9609e-05
18690.0 5.9416e-05
18710.0 5.9222e-05
18730.0 5.9028e-05
18750.0 5.8838e-05
18770.0 5.8651e-05
18790.0 5.8461e-05
18810.0 5.8274e-05
18830.0 5.8092e-05
18850.0 5.7909e-05
18870.0 5.7726e-05
18890.0 5.7548e-05
18910.0 5.7371e-05
18930.0 5.7193e-05
18950.0 5.7018e-05
18970.0 5.6846e-05
18990.0 5.6674e-05
19010.0 5.6501e-05
19030.0 5.6334e-05
19050.0 5.6167e-05
19070.0 5.6e-05
19090.0 5.5835e-05
19110.0 5.5674e-05
19130.0 5.5511e-05
19150.0 5.5349e-05
19170.0 5.5191e-05
19190.0 5.5034e-05
19210.0 5.4876e-05
19230.0 5.472e-05
19250.0 5.4568e-05
19270.0 5.4415e-05
19290.0 5.4263e-05
19310.0 5.4114e-05
19330.0 5.3967e-05
19350.0 5.3817e-05
19370.0 5.3671e-05
19390.0 5.3527e-05
19410.0 5.3382e-05
19430.0 5.3239e-05
19450.0 5.3099e-05
19470.0 5.2959e-05
19490.0 5.2819e-05
19510.0 5.2681e-05
19530.0 5.2546e-05
19550.0 5.2409e-05
19570.0 5.2272e-05
19590.0 5.2141e-05
19610.0 5.2009e-05
19630.0 5.1876e-05
19650.0 5.1746e-05
19670.0 5.1619e-05
19690.0 5.1489e-05
19710.0 5.1361e-05
19730.0 5.1237e-05
19750.0 5.1112e-05
19770.0 5.0985e-05
19790.0 5.0863e-05
19810.0 5.0742e-05
19830.0 5.0618e-05
19850.0 5.0494e-05
19870.0 5.0369e-05
19890.0 5.0234e-05
19910.0 5.008e-05
19930.0 4.9902e-05
19950.0 4.9684e-05
19970.0 4.94e-05
19990.0 4.9039e-05
20010.0 4.8611e-05
20030.0 4.8084e-05
20050.0 4.746e-05
20070.0 4.6781e-05
20090.0 4.6054e-05
20110.0 4.5241e-05
20130.0 4.4425e-05
20150.0 4.3626e-05
20170.0 4.2806e-05
20190.0 4.1983e-05
20210.0 4.1208e-05
20230.0 4.0455e-05
20250.0 3.9699e-05
20270.0 3.8992e-05
20290.0 3.8337e-05
20310.0 3.7705e-05
20330.0 3.7099e-05
20350.0 3.6577e-05
20370.0 3.6095e-05
20390.0 3.565e-05
20410.0 3.5264e-05
20430.0 3.4938e-05
20450.0 3.4648e-05
20470.0 3.441e-05
20490.0 3.4229e-05
20510.0 3.4092e-05
20530.0 3.3997e-05
20550.0 3.3946e-05
20570.0 3.3933e-05
20590.0 3.3953e-05
20610.0 3.4004e-05
20630.0 3.4078e-05
20650.0 3.4172e-05
20670.0 3.429e-05
20690.0 3.4413e-05
20710.0 3.454e-05
20730.0 3.4673e-05
20750.0 3.4804e-05
20770.0 3.4921e-05
20790.0 3.5031e-05
20810.0 3.513e-05
20830.0 3.5209e-05
20850.0 3.5267e-05
20870.0 3.5305e-05
20890.0 3.5319e-05
20910.0 3.5307e-05
20930.0 3.527e-05
20950.0 3.5206e-05
20970.0 3.5118e-05
20990.0 3.5009e-05
21010.0 3.4871e-05
21030.0 3.4712e-05
21050.0 3.4539e-05
21070.0 3.4345e-05
21090.0 3.413e-05
21110.0 3.3913e-05
21130.0 3.369e-05
21150.0 3.3453e-05
21170.0 3.3216e-05
21190.0 3.2988e-05
21210.0 3.2755e-05
21230.0 3.2525e-05
21250.0 3.2313e-05
21270.0 3.2114e-05
21290.0 3.1924e-05
21310.0 3.1752e-05
21330.0 3.1605e-05
21350.0 3.1472e-05
21370.0 3.1359e-05
21390.0 3.127e-05
21410.0 3.1203e-05
21430.0 3.1155e-05
21450.0 3.1132e-05
21470.0 3.1131e-05
21490.0 3.115e-05
21510.0 3.1191e-05
21530.0 3.1249e-05
21550.0 3.1326e-05
21570.0 3.1425e-05
21590.0 3.1538e-05
21610.0 3.1664e-05
21630.0 3.1809e-05
21650.0 3.1973e-05
21670.0 3.2139e-05
21690.0 3.2317e-05
21710.0 3.2512e-05
21730.0 3.2711e-05
21750.0 3.2911e-05
21770.0 3.3128e-05
21790.0 3.3349e-05
21810.0 3.3564e-05
21830.0 3.3782e-05
21850.0 3.4008e-05
21870.0 3.4224e-05
21890.0 3.4429e-05
21910.0 3.4637e-05
21930.0 3.4838e-05
21950.0 3.5022e-05
21970.0 3.5198e-05
21990.0 3.537e-05
22010.0 3.5518e-05
22030.0 3.5648e-05
22050.0 3.5766e-05
22070.0 3.5863e-05
22090.0 3.5935e-05
22110.0 3.5988e-05
22130.0 3.6018e-05
22150.0 3.6023e-05
22170.0 3.6002e-05
22190.0 3.5954e-05
22210.0 3.5877e-05
22230.0 3.5777e-05
22250.0 3.5648e-05
22270.0 3.5488e-05
22290.0 3.5307e-05
22310.0 3.5103e-05
22330.0 3.4863e-05
22350.0 3.4602e-05
22370.0 3.4327e-05
22390.0 3.4025e-05
22410.0 3.3692e-05
22430.0 3.3358e-05
22450.0 3.301e-05
22470.0 3.2636e-05
22490.0 3.2255e-05
22510.0 3.1878e-05
22530.0 3.1478e-05
22550.0 3.1067e-05
22570.0 3.0671e-05
22590.0 3.0276e-05
22610.0 2.987e-05
22630.0 2.9476e-05
22650.0 2.9104e-05
22670.0 2.8728e-05
