#lamb flux
1010.0 4.692e-06
1030.0 4.9788e-06
1050.0 5.3087e-06
1070.0 5.6801e-06
1090.0 6.1019e-06
1110.0 6.5347e-06
1130.0 6.9703e-06
1150.0 7.4267e-06
1170.0 7.8976e-06
1190.0 8.3442e-06
1210.0 8.797e-06
1230.0 9.2649e-06
1250.0 9.7236e-06
1270.0 1.0169e-05
1290.0 1.064e-05
1310.0 1.1111e-05
1330.0 1.1563e-05
1350.0 1.2019e-05
1370.0 1.2491e-05
1390.0 1.2952e-05
1410.0 1.3399e-05
1430.0 1.3866e-05
1450.0 1.4334e-05
1470.0 1.4786e-05
1490.0 1.5243e-05
1510.0 1.5726e-05
1530.0 1.6184e-05
1550.0 1.6637e-05
1570.0 1.7105e-05
1590.0 1.7574e-05
1610.0 1.8022e-05
1630.0 1.8485e-05
1650.0 1.896e-05
1670.0 1.942e-05
1690.0 1.9874e-05
1710.0 2.0346e-05
1730.0 2.0822e-05
1750.0 2.1269e-05
1770.0 2.1731e-05
1790.0 2.2202e-05
1810.0 2.2658e-05
1830.0 2.3108e-05
1850.0 2.3586e-05
1870.0 2.4052e-05
1890.0 2.4503e-05
1910.0 2.4965e-05
1930.0 2.5439e-05
1950.0 2.5893e-05
1970.0 2.6343e-05
1990.0 2.6811e-05
2010.0 2.7273e-05
2030.0 2.7721e-05
2050.0 2.8185e-05
2070.0 2.8662e-05
2090.0 2.9115e-05
2110.0 2.9569e-05
2130.0 3.0039e-05
2150.0 3.0503e-05
2170.0 3.0951e-05
2190.0 3.1418e-05
2210.0 3.1892e-05
2230.0 3.2351e-05
2250.0 3.2812e-05
2270.0 3.3297e-05
2290.0 3.3771e-05
2310.0 3.4231e-05
2330.0 3.4709e-05
2350.0 3.5196e-05
2370.0 3.5668e-05
2390.0 3.6149e-05
2410.0 3.6654e-05
2430.0 3.7145e-05
2450.0 3.7619e-05
2470.0 3.8086e-05
2490.0 3.8521e-05
2510.0 3.8894e-05
2530.0 3.9261e-05
2550.0 3.9719e-05
2570.0 4.0418e-05
2590.0 4.1568e-05
2610.0 4.3609e-05
2630.0 4.6801e-05
2650.0 5.1109e-05
2670.0 5.6688e-05
2690.0 6.3485e-05
2710.0 7.0715e-05
2730.0 7.793e-05
2750.0 8.526e-05
2770.0 9.2094e-05
2790.0 9.8194e-05
2810.0 0.00010394
2830.0 0.00010965
2850.0 0.00011492
2870.0 0.00012013
2890.0 0.00012557
2910.0 0.00013107
2930.0 0.00013642
2950.0 0.000142
2970.0 0.00014775
2990.0 0.00015334
3010.0 0.00032918
3030.0 0.00034122
3050.0 0.00035337
3070.0 0.00036501
3090.0 0.00037721
3110.0 0.00038991
3130.0 0.00040245
3150.0 0.00041488
3170.0 0.00042759
3190.0 0.00043858
3210.0 0.0004471
3230.0 0.00045379
3250.0 0.00039993
3270.0 0.00034643
3290.0 0.00026458
3310.0 0.00029648
3330.0 0.00031931
3350.0 0.00034102
3370.0 0.00036257
3390.0 0.00038413
3410.0 0.0004057
3430.0 0.00042723
3450.0 0.00044881
3470.0 0.00047031
3490.0 0.00048851
3510.0 0.00049464
3530.0 0.00051759
3550.0 0.00063238
3570.0 0.00080164
3590.0 0.00090708
3610.0 0.0010325
3630.0 0.00096178
3650.0 0.00087976
3670.0 0.00084791
3690.0 0.0010078
3710.0 0.001279
3730.0 0.0013749
3750.0 0.0014273
3770.0 0.0014414
3790.0 0.0014175
3810.0 0.0012866
3830.0 0.00099641
3850.0 0.00079579
3870.0 0.00077519
3890.0 0.0010579
3910.0 0.0014385
3930.0 0.0016866
3950.0 0.0017797
3970.0 0.0017705
3990.0 0.0020204
4010.0 0.0022585
4030.0 0.0021126
4050.0 0.0018482
4070.0 0.0015635
4090.0 0.0015542
4110.0 0.0017609
4130.0 0.0017871
4150.0 0.0018015
4170.0 0.0016974
4190.0 0.0016184
4210.0 0.0016384
4230.0 0.0018831
4250.0 0.0019015
4270.0 0.001889
4290.0 0.0018711
4310.0 0.0018727
4330.0 0.0020691
4350.0 0.0023829
4370.0 0.0024215
4390.0 0.0020956
4410.0 0.001731
4430.0 0.0014841
4450.0 0.0012769
4470.0 0.0012372
4490.0 0.0014792
4510.0 0.0016595
4530.0 0.0018193
4550.0 0.0019555
4570.0 0.0023103
4590.0 0.0032942
4610.0 0.0044129
4630.0 0.0045709
4650.0 0.0043392
4670.0 0.0046116
4690.0 0.0050589
4710.0 0.0044732
4730.0 0.0032939
4750.0 0.0025067
4770.0 0.0022821
4790.0 0.0022907
4810.0 0.0021474
4830.0 0.0023429
4850.0 0.0029746
4870.0 0.0036946
4890.0 0.003302
4910.0 0.0029025
4930.0 0.0032201
4950.0 0.0042306
4970.0 0.0054889
4990.0 0.005657
5010.0 0.0048738
5030.0 0.0036571
5050.0 0.0026222
5070.0 0.002205
5090.0 0.0020915
5110.0 0.0021222
5130.0 0.002208
5150.0 0.0021788
5170.0 0.0022206
5190.0 0.0021501
5210.0 0.002221
5230.0 0.0023748
5250.0 0.0026165
5270.0 0.0032228
5290.0 0.0036774
5310.0 0.0036943
5330.0 0.0038447
5350.0 0.0043366
5370.0 0.0046095
5390.0 0.0042743
5410.0 0.0036581
5430.0 0.0034776
5450.0 0.0040124
5470.0 0.0051743
5490.0 0.0064198
5510.0 0.0070573
5530.0 0.0072017
5550.0 0.0068612
5570.0 0.0063863
5590.0 0.0061686
5610.0 0.0062388
5630.0 0.0063799
5650.0 0.0063865
5670.0 0.0062857
5690.0 0.0061052
5710.0 0.0054742
5730.0 0.0045752
5750.0 0.0038357
5770.0 0.0038543
5790.0 0.0042305
5810.0 0.0045456
5830.0 0.0046898
5850.0 0.0046802
5870.0 0.0043211
5890.0 0.003778
5910.0 0.0036925
5930.0 0.004
5950.0 0.0041274
5970.0 0.0037779
5990.0 0.0032486
6010.0 0.0026779
6030.0 0.0022489
6050.0 0.0022147
6070.0 0.0025174
6090.0 0.0026503
6110.0 0.0024235
6130.0 0.002243
6150.0 0.0023828
6170.0 0.002853
6190.0 0.0034039
6210.0 0.0037012
6230.0 0.0035732
6250.0 0.0032751
6270.0 0.0028342
6290.0 0.0023495
6310.0 0.0019447
6330.0 0.0017566
6350.0 0.0018296
6370.0 0.0019834
6390.0 0.0021468
6410.0 0.0024427
6430.0 0.0030075
6450.0 0.0037876
6470.0 0.0043115
6490.0 0.0043225
6510.0 0.0042204
6530.0 0.0043004
6550.0 0.0043963
6570.0 0.0044351
6590.0 0.0044354
6610.0 0.0043149
6630.0 0.004321
6650.0 0.0043356
6670.0 0.0041687
6690.0 0.0037381
6710.0 0.00316
6730.0 0.0030256
6750.0 0.0032516
6770.0 0.0035356
6790.0 0.0036447
6810.0 0.0036036
6830.0 0.0035544
6850.0 0.0034769
6870.0 0.0032784
6890.0 0.0030892
6910.0 0.0029523
6930.0 0.0028457
6950.0 0.0030206
6970.0 0.0032877
6990.0 0.0034676
7010.0 0.0035081
7030.0 0.0033154
7050.0 0.0028782
7070.0 0.0023334
7090.0 0.0019825
7110.0 0.0019123
7130.0 0.0020171
7150.0 0.0020421
7170.0 0.0018783
7190.0 0.0018415
7210.0 0.0020288
7230.0 0.0023299
7250.0 0.002663
7270.0 0.0028043
7290.0 0.0026404
7310.0 0.0023428
7330.0 0.0021441
7350.0 0.0020987
7370.0 0.0021536
7390.0 0.0022506
7410.0 0.0024115
7430.0 0.0027411
7450.0 0.0031866
7470.0 0.0036382
7490.0 0.0038486
7510.0 0.0037304
7530.0 0.0032295
7550.0 0.0026318
7570.0 0.0021893
7590.0 0.0019301
7610.0 0.0019862
7630.0 0.0022953
7650.0 0.0026398
7670.0 0.0029873
7690.0 0.0032826
7710.0 0.0034971
7730.0 0.0036774
7750.0 0.0038466
7770.0 0.0039964
7790.0 0.0040119
7810.0 0.004055
7830.0 0.004183
7850.0 0.0041905
7870.0 0.0040793
7890.0 0.003789
7910.0 0.0035596
7930.0 0.0033934
7950.0 0.0033908
7970.0 0.0033689
7990.0 0.0034021
8010.0 0.0033903
8030.0 0.0034042
8050.0 0.0034955
8070.0 0.0034454
8090.0 0.0034465
8110.0 0.0033141
8130.0 0.0032951
8150.0 0.0032056
8170.0 0.0031168
8190.0 0.0030752
8210.0 0.0030987
8230.0 0.0029095
8250.0 0.0027289
8270.0 0.0023852
8290.0 0.0019247
8310.0 0.0014938
8330.0 0.0011482
8350.0 0.001014
8370.0 0.0011423
8390.0 0.0013211
8410.0 0.0014603
8430.0 0.0016225
8450.0 0.0017112
8470.0 0.0017934
8490.0 0.0019954
8510.0 0.0022255
8530.0 0.0025879
8550.0 0.0030371
8570.0 0.0034428
8590.0 0.0037691
8610.0 0.0040475
8630.0 0.0042475
8650.0 0.0042819
8670.0 0.0042946
8690.0 0.0044397
8710.0 0.004526
8730.0 0.0046196
8750.0 0.0045283
8770.0 0.0045452
8790.0 0.0044843
8810.0 0.0041778
8830.0 0.0040677
8850.0 0.003839
8870.0 0.0036687
8890.0 0.0035058
8910.0 0.0035964
8930.0 0.0033853
8950.0 0.0032615
8970.0 0.0032153
8990.0 0.003142
9010.0 0.0030864
9030.0 0.0030051
9050.0 0.0029869
9070.0 0.0029786
9090.0 0.0029706
9110.0 0.0029629
9130.0 0.0029545
9150.0 0.0029457
9170.0 0.0029332
9190.0 0.0029161
9210.0 0.0029306
9230.0 0.0029155
9250.0 0.0029034
9270.0 0.002892
9290.0 0.002881
9310.0 0.0028703
9330.0 0.0028598
9350.0 0.0028493
9370.0 0.0028388
9390.0 0.0028281
9410.0 0.0028173
9430.0 0.0028063
9450.0 0.0027942
9470.0 0.0027823
9490.0 0.0027722
9510.0 0.0027614
9530.0 0.0027504
9550.0 0.0027393
9570.0 0.0027279
9590.0 0.0027165
9610.0 0.002705
9630.0 0.0026934
9650.0 0.0026818
9670.0 0.0026702
9690.0 0.0026585
9710.0 0.0026468
9730.0 0.002635
9750.0 0.0026233
9770.0 0.0026115
9790.0 0.0025998
9810.0 0.002588
9830.0 0.0025762
9850.0 0.0025645
9870.0 0.0025527
9890.0 0.002541
9910.0 0.0025292
9930.0 0.0025172
9950.0 0.0024896
9970.0 0.0024826
9990.0 0.0024747
10010.0 0.0024663
10030.0 0.0024567
10050.0 0.0024458
10070.0 0.0024342
10090.0 0.0024237
10110.0 0.0024122
10130.0 0.0024012
10150.0 0.0023901
10170.0 0.0023784
10190.0 0.0023663
10210.0 0.0023549
10230.0 0.0023438
10250.0 0.0023321
10270.0 0.0023205
10290.0 0.0023096
10310.0 0.0022981
10330.0 0.0022861
10350.0 0.0022749
10370.0 0.0022638
10390.0 0.0022521
10410.0 0.0022405
10430.0 0.0022297
10450.0 0.0022183
10470.0 0.0022065
10490.0 0.0021953
10510.0 0.0021843
10530.0 0.0021722
10550.0 0.0021606
10570.0 0.0021496
10590.0 0.002138
10610.0 0.0021262
10630.0 0.002115
10650.0 0.0021038
10670.0 0.0020917
10690.0 0.00208
10710.0 0.0020687
10730.0 0.0020568
10750.0 0.0020444
10770.0 0.0020331
10790.0 0.0020215
10810.0 0.0020093
10830.0 0.0019973
10850.0 0.0019858
10870.0 0.0019731
10890.0 0.00196
10910.0 0.0019471
10930.0 0.0019331
10950.0 0.001917
10970.0 0.0018995
10990.0 0.0018809
11010.0 0.0016975
11030.0 0.001675
11050.0 0.0016532
11070.0 0.001631
11090.0 0.001607
11110.0 0.0015848
11130.0 0.0015632
11150.0 0.0015409
11170.0 0.0015187
11190.0 0.0014981
11210.0 0.0014769
11230.0 0.0014549
11250.0 0.0014341
11270.0 0.0014139
11290.0 0.0013928
11310.0 0.0013721
11330.0 0.0013536
11350.0 0.0013349
11370.0 0.0013164
11390.0 0.0012995
11410.0 0.0012835
11430.0 0.0012667
11450.0 0.0012509
11470.0 0.0012359
11490.0 0.0012205
11510.0 0.0012043
11530.0 0.0011886
11550.0 0.0011726
11570.0 0.0011549
11590.0 0.0011365
11610.0 0.0011181
11630.0 0.0010978
11650.0 0.0010759
11670.0 0.0010545
11690.0 0.0010324
11710.0 0.0010088
11730.0 0.0009854
11750.0 0.00096309
11770.0 0.00093996
11790.0 0.00091695
11810.0 0.00089554
11830.0 0.000875
11850.0 0.00085416
11870.0 0.00083521
11890.0 0.00081811
11910.0 0.00080144
11930.0 0.00078565
11950.0 0.00077166
11970.0 0.00075844
11990.0 0.00074541
12010.0 0.00073367
12030.0 0.00072299
12050.0 0.00071255
12070.0 0.0007025
12090.0 0.0006939
12110.0 0.00068572
12130.0 0.00067789
12150.0 0.00067104
12170.0 0.00066524
12190.0 0.00065978
12210.0 0.00065545
12230.0 0.00065251
12250.0 0.00065072
12270.0 0.00065024
12290.0 0.00065143
12310.0 0.00065424
12330.0 0.00065877
12350.0 0.00066515
12370.0 0.00067313
12390.0 0.00068285
12410.0 0.00069466
12430.0 0.00070746
12450.0 0.00072129
12470.0 0.00073642
12490.0 0.00075221
12510.0 0.00076774
12530.0 0.00078366
12550.0 0.0007996
12570.0 0.00081453
12590.0 0.00082851
12610.0 0.00084186
12630.0 0.00085386
12650.0 0.00086402
12670.0 0.00087293
12690.0 0.00088035
12710.0 0.00088605
12730.0 0.00089021
12750.0 0.00089284
12770.0 0.00089391
12790.0 0.00089365
12810.0 0.00089202
12830.0 0.00088898
12850.0 0.00088512
12870.0 0.00088036
12890.0 0.00087445
12910.0 0.00086791
12930.0 0.00086104
12950.0 0.00085325
12970.0 0.00084474
12990.0 0.00083632
13010.0 0.00082749
13030.0 0.00081791
13050.0 0.00080816
13070.0 0.00079852
13090.0 0.00078813
13110.0 0.00077738
13130.0 0.00076691
13150.0 0.00075639
13170.0 0.00074538
13190.0 0.00073512
13210.0 0.00072572
13230.0 0.00071671
13250.0 0.00070864
13270.0 0.0007021
13290.0 0.00069677
13310.0 0.00069277
13330.0 0.00069054
13350.0 0.00068987
13370.0 0.00069063
13390.0 0.00069273
13410.0 0.0006957
13430.0 0.00069929
13450.0 0.00070317
13470.0 0.00070675
13490.0 0.00070964
13510.0 0.00071161
13530.0 0.00071211
13550.0 0.00071103
13570.0 0.00070823
13590.0 0.00070347
13610.0 0.00069716
13630.0 0.00068957
13650.0 0.00068032
13670.0 0.00067009
13690.0 0.00065951
13710.0 0.00064838
13730.0 0.00063658
13750.0 0.00062562
13770.0 0.00061511
13790.0 0.0006048
13810.0 0.00059522
13830.0 0.00058675
13850.0 0.00057872
13870.0 0.00057132
13890.0 0.00056488
13910.0 0.00055913
13930.0 0.00055378
13950.0 0.00054904
13970.0 0.00054499
13990.0 0.00054123
14010.0 0.00053781
14030.0 0.00053482
14050.0 0.00053212
14070.0 0.00052956
14090.0 0.00052726
14110.0 0.00052516
14130.0 0.00052314
14150.0 0.00052118
14170.0 0.00051935
14190.0 0.00051755
14210.0 0.00051575
14230.0 0.00051401
14250.0 0.00051235
14270.0 0.00051074
14290.0 0.00050924
14310.0 0.00050792
14330.0 0.00050676
14350.0 0.00050578
14370.0 0.00050498
14390.0 0.00050434
14410.0 0.00050386
14430.0 0.00050348
14450.0 0.00050313
14470.0 0.00050279
14490.0 0.00050242
14510.0 0.00050194
14530.0 0.00050134
14550.0 0.00050065
14570.0 0.00049988
14590.0 0.00049906
14610.0 0.00049827
14630.0 0.00049761
14650.0 0.00049715
14670.0 0.00049696
14690.0 0.00049722
14710.0 0.00049804
14730.0 0.00049932
14750.0 0.0005013
14770.0 0.00050413
14790.0 0.00050766
14810.0 0.00051185
14830.0 0.00051732
14850.0 0.00052359
14870.0 0.00053036
14890.0 0.00053792
14910.0 0.0005462
14930.0 0.00055424
14950.0 0.00056176
14970.0 0.0005689
14990.0 0.00057473
15010.0 0.00057888
15030.0 0.00058159
15050.0 0.00058292
15070.0 0.00058279
15090.0 0.00058177
15110.0 0.00058013
15130.0 0.00057808
15150.0 0.00057581
15170.0 0.00057342
15190.0 0.00057096
15210.0 0.00056849
15230.0 0.00056601
15250.0 0.00056351
15270.0 0.000561
15290.0 0.00055852
15310.0 0.00055602
15330.0 0.00055351
15350.0 0.00055101
15370.0 0.00054852
15390.0 0.000546
15410.0 0.00054349
15430.0 0.000541
15450.0 0.00053849
15470.0 0.00053598
15490.0 0.00053349
15510.0 0.000531
15530.0 0.0005285
15550.0 0.00052601
15570.0 0.00052353
15590.0 0.00052104
15610.0 0.00051854
15630.0 0.00051608
15650.0 0.00051361
15670.0 0.00051114
15690.0 0.00050867
15710.0 0.00050623
15730.0 0.00050378
15750.0 0.00050133
15770.0 0.0004989
15790.0 0.00049647
15810.0 0.00049403
15830.0 0.00049162
15850.0 0.00048922
15870.0 0.00048682
15890.0 0.00048442
15910.0 0.00048205
15930.0 0.00047968
15950.0 0.0004773
15970.0 0.00047494
15990.0 0.0004726
16010.0 0.00047026
16030.0 0.00046791
16050.0 0.00046561
16070.0 0.0004633
16090.0 0.00046099
16110.0 0.00045871
16130.0 0.00045644
16150.0 0.00045416
16170.0 0.00045189
16190.0 0.00044965
16210.0 0.00044742
16230.0 0.00044518
16250.0 0.00044297
16270.0 0.00044078
16290.0 0.00043858
16310.0 0.0004364
16330.0 0.00043424
16350.0 0.00043209
16370.0 0.00042992
16390.0 0.0004278
16410.0 0.00042569
16430.0 0.00042357
16450.0 0.00042147
16470.0 0.0004194
16490.0 0.00041733
16510.0 0.00041526
16530.0 0.00041322
16550.0 0.00041119
16570.0 0.00040916
16590.0 0.00040714
16610.0 0.00040516
16630.0 0.00040318
16650.0 0.0004012
16670.0 0.00039925
16690.0 0.00039731
16710.0 0.00039537
16730.0 0.00039345
16750.0 0.00039155
16770.0 0.00038965
16790.0 0.00038776
16810.0 0.0003859
16830.0 0.00038405
16850.0 0.0003822
16870.0 0.00038037
16890.0 0.00037857
16910.0 0.00037676
16930.0 0.00037495
16950.0 0.00037318
16970.0 0.00037142
16990.0 0.00036966
17010.0 0.00036792
17030.0 0.00036621
17050.0 0.00036449
17070.0 0.00036278
17090.0 0.0003611
17110.0 0.00035943
17130.0 0.00035775
17150.0 0.0003561
17170.0 0.00035447
17190.0 0.00035284
17210.0 0.00035122
17230.0 0.00034963
17250.0 0.00034805
17270.0 0.00034646
17290.0 0.0003449
17310.0 0.00034335
17330.0 0.00034181
17350.0 0.00034027
17370.0 0.00033877
17390.0 0.00033727
17410.0 0.00033577
17430.0 0.00033429
17450.0 0.00033283
17470.0 0.00033137
17490.0 0.00032992
17510.0 0.00032849
17530.0 0.00032707
17550.0 0.00032566
17570.0 0.00032426
17590.0 0.00032289
17610.0 0.0003215
17630.0 0.00032014
17650.0 0.0003188
17670.0 0.00031745
17690.0 0.00031611
17710.0 0.0003148
17730.0 0.0003135
17750.0 0.00031219
17770.0 0.00031091
17790.0 0.00030964
17810.0 0.00030837
17830.0 0.00030711
17850.0 0.00030587
17870.0 0.00030465
17890.0 0.00030341
17910.0 0.0003022
17930.0 0.00030101
17950.0 0.00029981
17970.0 0.00029863
17990.0 0.00029746
18010.0 0.00029631
18030.0 0.00029514
18050.0 0.000294
18070.0 0.00029288
18090.0 0.00029175
18110.0 0.00029063
18130.0 0.00028954
18150.0 0.00028845
18170.0 0.00028736
18190.0 0.00028629
18210.0 0.00028523
18230.0 0.00028417
18250.0 0.00028311
18270.0 0.00028208
18290.0 0.00028105
18310.0 0.00028003
18330.0 0.00027902
18350.0 0.00027802
18370.0 0.00027703
18390.0 0.00027604
18410.0 0.00027507
18430.0 0.0002741
18450.0 0.00027313
18470.0 0.00027218
18490.0 0.00027124
18510.0 0.00027031
18530.0 0.00026938
18550.0 0.00026847
18570.0 0.00026755
18590.0 0.00026664
18610.0 0.00026575
18630.0 0.00026487
18650.0 0.00026398
18670.0 0.00026311
18690.0 0.00026225
18710.0 0.00026139
18730.0 0.00026054
18750.0 0.0002597
18770.0 0.00025887
18790.0 0.00025804
18810.0 0.00025721
18830.0 0.00025641
18850.0 0.0002556
18870.0 0.00025479
18890.0 0.00025401
18910.0 0.00025323
18930.0 0.00025244
18950.0 0.00025167
18970.0 0.00025091
18990.0 0.00025015
19010.0 0.00024939
19030.0 0.00024865
19050.0 0.00024791
19070.0 0.00024717
19090.0 0.00024645
19110.0 0.00024573
19130.0 0.00024502
19150.0 0.0002443
19170.0 0.0002436
19190.0 0.00024291
19210.0 0.00024221
19230.0 0.00024152
19250.0 0.00024085
19270.0 0.00024018
19290.0 0.00023951
19310.0 0.00023885
19330.0 0.0002382
19350.0 0.00023754
19370.0 0.00023689
19390.0 0.00023626
19410.0 0.00023562
19430.0 0.00023499
19450.0 0.00023437
19470.0 0.00023375
19490.0 0.00023313
19510.0 0.00023253
19530.0 0.00023193
19550.0 0.00023132
19570.0 0.00023072
19590.0 0.00023014
19610.0 0.00022956
19630.0 0.00022897
19650.0 0.0002284
19670.0 0.00022784
19690.0 0.00022726
19710.0 0.0002267
19730.0 0.00022615
19750.0 0.0002256
19770.0 0.00022504
19790.0 0.0002245
19810.0 0.00022396
19830.0 0.00022342
19850.0 0.00022287
19870.0 0.00022232
19890.0 0.00022172
19910.0 0.00022104
19930.0 0.00022026
19950.0 0.0002193
19970.0 0.00021804
19990.0 0.00021645
20010.0 0.00021456
20030.0 0.00021223
20050.0 0.00020948
20070.0 0.00020649
20090.0 0.00020327
20110.0 0.00019968
20130.0 0.00019609
20150.0 0.00019256
20170.0 0.00018894
20190.0 0.00018531
20210.0 0.00018189
20230.0 0.00017856
20250.0 0.00017522
20270.0 0.0001721
20290.0 0.00016921
20310.0 0.00016642
20330.0 0.00016375
20350.0 0.00016144
20370.0 0.00015932
20390.0 0.00015735
20410.0 0.00015565
20430.0 0.00015421
20450.0 0.00015293
20470.0 0.00015188
20490.0 0.00015108
20510.0 0.00015048
20530.0 0.00015006
20550.0 0.00014983
20570.0 0.00014977
20590.0 0.00014986
20610.0 0.00015009
20630.0 0.00015041
20650.0 0.00015083
20670.0 0.00015135
20690.0 0.00015189
20710.0 0.00015245
20730.0 0.00015304
20750.0 0.00015362
20770.0 0.00015414
20790.0 0.00015462
20810.0 0.00015506
20830.0 0.00015541
20850.0 0.00015566
20870.0 0.00015583
20890.0 0.00015589
20910.0 0.00015584
20930.0 0.00015567
20950.0 0.00015539
20970.0 0.00015501
20990.0 0.00015452
21010.0 0.00015391
21030.0 0.00015321
21050.0 0.00015245
21070.0 0.00015159
21090.0 0.00015064
21110.0 0.00014969
21130.0 0.0001487
21150.0 0.00014766
21170.0 0.00014661
21190.0 0.0001456
21210.0 0.00014458
21230.0 0.00014356
21250.0 0.00014263
21270.0 0.00014175
21290.0 0.00014091
21310.0 0.00014015
21330.0 0.0001395
21350.0 0.00013891
21370.0 0.00013841
21390.0 0.00013802
21410.0 0.00013772
21430.0 0.00013751
21450.0 0.00013741
21470.0 0.0001374
21490.0 0.00013749
21510.0 0.00013767
21530.0 0.00013793
21550.0 0.00013827
21570.0 0.0001387
21590.0 0.0001392
21610.0 0.00013976
21630.0 0.0001404
21650.0 0.00014112
21670.0 0.00014185
21690.0 0.00014264
21710.0 0.0001435
21730.0 0.00014438
21750.0 0.00014526
21770.0 0.00014622
21790.0 0.0001472
21810.0 0.00014815
21830.0 0.00014911
21850.0 0.0001501
21870.0 0.00015106
21890.0 0.00015196
21910.0 0.00015288
21930.0 0.00015377
21950.0 0.00015458
21970.0 0.00015536
21990.0 0.00015612
22010.0 0.00015677
22030.0 0.00015735
22050.0 0.00015786
22070.0 0.00015829
22090.0 0.00015861
22110.0 0.00015885
22130.0 0.00015898
22150.0 0.000159
22170.0 0.00015891
22190.0 0.00015869
22210.0 0.00015835
22230.0 0.00015791
22250.0 0.00015734
22270.0 0.00015664
22290.0 0.00015584
22310.0 0.00015494
22330.0 0.00015388
22350.0 0.00015273
22370.0 0.00015151
22390.0 0.00015018
22410.0 0.00014871
22430.0 0.00014724
22450.0 0.0001457
22470.0 0.00014405
22490.0 0.00014237
22510.0 0.0001407
22530.0 0.00013894
22550.0 0.00013712
22570.0 0.00013538
22590.0 0.00013363
22610.0 0.00013184
22630.0 0.0001301
22650.0 0.00012846
22670.0 0.0001268
22690.0 0.00012517
22710.0 0.00012366
22730.0 0.0001222
22750.0 0.00012073
22770.0 0.00011938
22790.0 0.00011814
22810.0 0.00011693
22830.0 0.00011578
22850.0 0.00011475
22870.0 0.00011376
22890.0 0.0001128
22910.0 0.00011193
22930.0 0.00011113
22950.0 0.00011035
22970.0 0.00010961
22990.0 0.00010896
23010.0 0.00010833
23030.0 0.00010773
23050.0 0.00010717
