#lamb flux
1010.0 9.1366e-06
1030.0 1.2383e-05
1050.0 1.678e-05
1070.0 2.259e-05
1090.0 3.0223e-05
1110.0 3.957e-05
1130.0 5.0665e-05
1150.0 6.3857e-05
1170.0 7.9158e-05
1190.0 9.5786e-05
1210.0 0.00011401
1230.0 0.00013374
1250.0 0.00015403
1270.0 0.00017416
1290.0 0.00019447
1310.0 0.00021367
1330.0 0.00023051
1350.0 0.00024502
1370.0 0.00025691
1390.0 0.000265
1410.0 0.000269
1430.0 0.00026972
1450.0 0.00026664
1470.0 0.00025966
1490.0 0.00024965
1510.0 0.00023742
1530.0 0.00022247
1550.0 0.00020581
1570.0 0.00018829
1590.0 0.00017015
1610.0 0.00015163
1630.0 0.00013354
1650.0 0.00011608
1670.0 9.929e-05
1690.0 8.3458e-05
1710.0 6.8804e-05
1730.0 5.529e-05
1750.0 4.2885e-05
1770.0 3.1715e-05
1790.0 2.1717e-05
1810.0 1.2823e-05
1830.0 5.013e-06
1850.0 1.3294e-06
1870.0 1.0923e-06
1890.0 8.9407e-07
1910.0 7.3242e-07
1930.0 6.0515e-07
1950.0 5.6935e-07
1970.0 5.6622e-07
1990.0 5.5726e-07
2010.0 5.4334e-07
2030.0 5.249e-07
2050.0 5.0135e-07
2070.0 5.6299e-07
2090.0 6.6304e-07
2110.0 7.8589e-07
2130.0 9.3022e-07
2150.0 1.095e-06
2170.0 1.2787e-06
2190.0 1.4797e-06
2210.0 3.9509e-06
2230.0 9.2902e-06
2250.0 1.4922e-05
2270.0 2.0822e-05
2290.0 2.6929e-05
2310.0 3.3183e-05
2330.0 3.957e-05
2350.0 4.6038e-05
2370.0 5.2503e-05
2390.0 5.8941e-05
2410.0 6.533e-05
2430.0 7.1542e-05
2450.0 7.7506e-05
2470.0 8.3188e-05
2490.0 8.8498e-05
2510.0 9.3351e-05
2530.0 9.7848e-05
2550.0 0.0001022
2570.0 0.00010675
2590.0 0.00011202
2610.0 0.00011916
2630.0 0.00012921
2650.0 0.00014272
2670.0 0.00016106
2690.0 0.00018563
2710.0 0.000215
2730.0 0.00024784
2750.0 0.00028518
2770.0 0.00032281
2790.0 0.00035654
2810.0 0.00038612
2830.0 0.00041117
2850.0 0.00042696
2870.0 0.00043609
2890.0 0.0004407
2910.0 0.00044075
2930.0 0.00043634
2950.0 0.00043015
2970.0 0.00042232
2990.0 0.00041208
3010.0 0.00040037
3030.0 0.00038845
3050.0 0.0003759
3070.0 0.00036189
3090.0 0.00034829
3110.0 0.00033515
3130.0 0.0003222
3150.0 0.00028501
3170.0 0.00025406
3190.0 0.0002207
3210.0 0.00018884
3230.0 0.00016908
3250.0 0.00020511
3270.0 0.00032321
3290.0 0.00037243
3310.0 0.00019581
3330.0 0.00017296
3350.0 0.00018546
3370.0 0.00020276
3390.0 0.00021838
3410.0 0.00022269
3430.0 0.00021799
3450.0 0.00021076
3470.0 0.00020815
3490.0 0.00018936
3510.0 0.00010163
3530.0 4.0302e-07
3550.0 1e-99
3570.0 0.00015002
3590.0 0.00045843
3610.0 0.00061148
3630.0 0.001028
3650.0 0.0011109
3670.0 0.00087105
3690.0 0.00056552
3710.0 0.00038028
3730.0 0.00039255
3750.0 0.00042139
3770.0 0.00043573
3790.0 0.00044649
3810.0 0.00058528
3830.0 0.00052363
3850.0 0.00036679
3870.0 0.00027634
3890.0 0.00040253
3910.0 0.00049711
3930.0 0.00050124
3950.0 0.0005593
3970.0 0.00062439
3990.0 0.0005859
4010.0 0.00065211
4030.0 0.00061836
4050.0 0.00056926
4070.0 0.00052904
4090.0 0.00054057
4110.0 0.00058025
4130.0 0.00057257
4150.0 0.00053181
4170.0 0.00050627
4190.0 0.00052992
4210.0 0.00046541
4230.0 0.00041339
4250.0 0.00033811
4270.0 0.00025101
4290.0 0.0002559
4310.0 0.00024463
4330.0 0.0002408
4350.0 0.00034572
4370.0 0.00034852
4390.0 0.00042579
4410.0 0.00047465
4430.0 0.00052666
4450.0 0.00045268
4470.0 0.00035651
4490.0 0.00033505
4510.0 0.00030169
4530.0 0.0002786
4550.0 0.00025189
4570.0 0.00024434
4590.0 0.00024921
4610.0 0.00019738
4630.0 0.0001655
4650.0 0.00012523
4670.0 0.00012344
4690.0 8.6616e-05
4710.0 6.5794e-05
4730.0 2.806e-05
4750.0 9.3814e-06
4770.0 8.5697e-07
4790.0 1.0886e-06
4810.0 8.9039e-07
4830.0 1e-99
4850.0 1e-99
4870.0 1e-99
4890.0 1e-99
4910.0 4.3804e-07
4930.0 1.3109e-06
4950.0 1e-99
4970.0 1e-99
4990.0 1e-99
5010.0 1e-99
5030.0 1e-99
5050.0 1e-99
5070.0 1e-99
5090.0 1e-99
5110.0 1e-99
5130.0 1e-99
5150.0 1e-99
5170.0 1e-99
5190.0 1e-99
5210.0 1e-99
5230.0 1e-99
5250.0 1e-99
5270.0 1.5052e-05
5290.0 1.1126e-05
5310.0 4.4196e-07
5330.0 8.5226e-07
5350.0 1e-99
5370.0 1e-99
5390.0 5.7967e-07
5410.0 1.9633e-07
5430.0 4.5503e-06
5450.0 1e-99
5470.0 1e-99
5490.0 5.8817e-05
5510.0 5.6323e-05
5530.0 5.9685e-05
5550.0 4.6369e-05
5570.0 7.4644e-05
5590.0 0.0001124
5610.0 0.00011536
5630.0 0.00010086
5650.0 0.0001058
5670.0 0.0001052
5690.0 0.00011886
5710.0 9.2006e-05
5730.0 0.0001074
5750.0 0.00010934
5770.0 9.9211e-05
5790.0 0.00013581
5810.0 0.00016018
5830.0 0.00014314
5850.0 9.6025e-05
5870.0 7.1511e-05
5890.0 6.9785e-05
5910.0 0.00010082
5930.0 9.0291e-05
5950.0 0.00010409
5970.0 0.00010686
5990.0 0.00012349
6010.0 0.0001151
6030.0 0.00012271
6050.0 0.0001191
6070.0 9.3569e-05
6090.0 0.00011056
6110.0 0.00012
6130.0 0.00010648
6150.0 0.00010952
6170.0 0.0001167
6190.0 7.2758e-05
6210.0 7.8515e-05
6230.0 9.2267e-05
6250.0 9.0715e-05
6270.0 8.9796e-05
6290.0 0.00010723
6310.0 0.00012958
6330.0 0.00013324
6350.0 0.00012754
6370.0 0.00013522
6390.0 0.00011042
6410.0 0.00011915
6430.0 0.00010685
6450.0 0.00011322
6470.0 0.00012011
6490.0 0.00012454
6510.0 0.00010206
6530.0 0.00010692
6550.0 0.00010539
6570.0 9.2233e-05
6590.0 0.00010586
6610.0 0.00010732
6630.0 0.00010892
6650.0 9.6265e-05
6670.0 8.8715e-05
6690.0 8.3942e-05
6710.0 7.7378e-05
6730.0 7.2241e-05
6750.0 7.265e-05
6770.0 5.8156e-05
6790.0 2.6966e-06
6810.0 1.8208e-05
6830.0 5.7826e-05
6850.0 4.3905e-05
6870.0 4.3667e-05
6890.0 4.1502e-05
6910.0 4.0287e-05
6930.0 3.4803e-05
6950.0 4.4009e-05
6970.0 4.194e-05
6990.0 4.1413e-05
7010.0 3.9816e-05
7030.0 4.8232e-05
7050.0 4.8097e-05
7070.0 2.4029e-05
7090.0 2.4782e-06
7110.0 1.9427e-06
7130.0 3.8278e-06
7150.0 8.2697e-06
7170.0 7.4434e-06
7190.0 1.7617e-06
7210.0 1.4538e-05
7230.0 3.3154e-05
7250.0 3.0842e-05
7270.0 3.3352e-05
7290.0 4.1859e-05
7310.0 2.5787e-05
7330.0 2.1634e-05
7350.0 1.7736e-05
7370.0 3.2256e-05
7390.0 5.0393e-05
7410.0 2.2685e-05
7430.0 2.678e-05
7450.0 2.5015e-05
7470.0 4.17e-05
7490.0 4.5801e-05
7510.0 3.2007e-05
7530.0 4.2008e-05
7550.0 1.3209e-06
7570.0 8.9999e-07
7590.0 1.3604e-05
7610.0 3.7318e-05
7630.0 2.1933e-05
7650.0 3.55e-05
7670.0 2.9178e-06
7690.0 3.7568e-07
7710.0 8.9725e-07
7730.0 1.3734e-05
7750.0 8.5018e-07
7770.0 2.1575e-05
7790.0 3.5319e-05
7810.0 1.4662e-05
7830.0 3.1385e-05
7850.0 3.6091e-06
7870.0 2.5849e-05
7890.0 1.0931e-05
7910.0 1.1859e-05
7930.0 9.6532e-07
7950.0 6.7224e-08
7970.0 7.1774e-07
7990.0 8.359e-06
8010.0 0.00013691
8030.0 0.00013141
8050.0 0.00012909
8070.0 0.00012629
8090.0 0.0001209
8110.0 0.0001161
8130.0 0.00012625
8150.0 0.00013563
8170.0 0.00014136
8190.0 0.00014998
8210.0 0.00014164
8230.0 0.00014115
8250.0 0.00013917
8270.0 0.00014285
8290.0 0.00014274
8310.0 0.00013458
8330.0 0.00012678
8350.0 0.00013173
8370.0 0.00013533
8390.0 0.00013114
8410.0 0.00012967
8430.0 0.00012466
8450.0 0.00011898
8470.0 0.00012993
8490.0 0.00013042
8510.0 0.00012074
8530.0 0.00012356
8550.0 0.00012235
8570.0 0.00011075
8590.0 0.0001135
8610.0 0.00011237
8630.0 0.00011944
8650.0 0.00012033
8670.0 0.00012263
8690.0 0.00011955
8710.0 0.00011862
8730.0 0.00011219
8750.0 0.00010856
8770.0 0.00010706
8790.0 0.00011591
8810.0 0.00010597
8830.0 0.00010298
8850.0 0.00011086
8870.0 0.00010475
8890.0 9.4756e-05
8910.0 9.402e-05
8930.0 9.8977e-05
8950.0 8.8565e-05
8970.0 8.4414e-05
8990.0 8.2336e-05
9010.0 7.671e-05
9030.0 7.5455e-05
9050.0 7.5141e-05
9070.0 7.4875e-05
9090.0 7.4606e-05
9110.0 7.4337e-05
9130.0 7.4063e-05
9150.0 7.3783e-05
9170.0 7.35e-05
9190.0 7.3215e-05
9210.0 7.2928e-05
9230.0 7.2639e-05
9250.0 7.2347e-05
9270.0 7.2053e-05
9290.0 7.1758e-05
9310.0 7.153e-05
9330.0 7.1406e-05
9350.0 7.1282e-05
9370.0 7.1152e-05
9390.0 7.1016e-05
9410.0 7.0879e-05
9430.0 7.074e-05
9450.0 7.0593e-05
9470.0 7.0481e-05
9490.0 7.0348e-05
9510.0 7.0172e-05
9530.0 6.9994e-05
9550.0 6.9825e-05
9570.0 6.9657e-05
9590.0 6.9484e-05
9610.0 6.9429e-05
9630.0 6.9386e-05
9650.0 6.9335e-05
9670.0 6.927e-05
9690.0 6.921e-05
9710.0 6.9145e-05
9730.0 6.9069e-05
9750.0 6.8989e-05
9770.0 6.8916e-05
9790.0 6.8829e-05
9810.0 6.8734e-05
9830.0 6.8642e-05
9850.0 6.85e-05
9870.0 6.8306e-05
9890.0 6.8254e-05
9910.0 6.8177e-05
9930.0 6.8057e-05
9950.0 6.7944e-05
9970.0 6.7839e-05
9990.0 6.7724e-05
10010.0 6.7599e-05
10030.0 6.7469e-05
10050.0 6.7335e-05
10070.0 6.7196e-05
10090.0 6.7053e-05
10110.0 6.6909e-05
10130.0 6.6761e-05
10150.0 6.661e-05
10170.0 6.6457e-05
10190.0 6.6302e-05
10210.0 6.6144e-05
10230.0 6.5983e-05
10250.0 6.5821e-05
10270.0 6.5656e-05
10290.0 6.5489e-05
10310.0 6.5321e-05
10330.0 6.5152e-05
10350.0 6.498e-05
10370.0 6.4806e-05
10390.0 6.4629e-05
10410.0 6.4406e-05
10430.0 6.4165e-05
10450.0 6.4038e-05
10470.0 6.3883e-05
10490.0 6.3719e-05
10510.0 6.3549e-05
10530.0 6.3369e-05
10550.0 6.3188e-05
10570.0 6.3008e-05
10590.0 6.2823e-05
10610.0 6.2637e-05
10630.0 6.2453e-05
10650.0 6.2269e-05
10670.0 6.208e-05
10690.0 6.1894e-05
10710.0 6.1709e-05
10730.0 6.1522e-05
10750.0 6.1332e-05
10770.0 6.1148e-05
10790.0 6.0963e-05
10810.0 6.0775e-05
10830.0 6.0589e-05
10850.0 6.0405e-05
10870.0 6.0215e-05
10890.0 6.0022e-05
10910.0 5.9828e-05
10930.0 5.9624e-05
10950.0 5.9402e-05
10970.0 5.9164e-05
10990.0 5.8909e-05
11010.0 4.4438e-05
11030.0 4.4169e-05
11050.0 4.3815e-05
11070.0 4.3392e-05
11090.0 4.2904e-05
11110.0 4.2383e-05
11130.0 4.1838e-05
11150.0 4.127e-05
11170.0 4.069e-05
11190.0 4.0114e-05
11210.0 3.9528e-05
11230.0 3.8933e-05
11250.0 3.8347e-05
11270.0 3.7767e-05
11290.0 3.7182e-05
11310.0 3.6604e-05
11330.0 3.605e-05
11350.0 3.5502e-05
11370.0 3.4962e-05
11390.0 3.4444e-05
11410.0 3.3942e-05
11430.0 3.3445e-05
11450.0 3.2965e-05
11470.0 3.2502e-05
11490.0 3.2047e-05
11510.0 3.1598e-05
11530.0 3.1161e-05
11550.0 3.0731e-05
11570.0 3.0302e-05
11590.0 2.9876e-05
11610.0 2.9456e-05
11630.0 2.9033e-05
11650.0 2.8607e-05
11670.0 2.8185e-05
11690.0 2.7763e-05
11710.0 2.7333e-05
11730.0 2.6903e-05
11750.0 2.6476e-05
11770.0 2.6042e-05
11790.0 2.5604e-05
11810.0 2.5169e-05
11830.0 2.4736e-05
11850.0 2.4295e-05
11870.0 2.3863e-05
11890.0 2.3441e-05
11910.0 2.3021e-05
11930.0 2.2609e-05
11950.0 2.2214e-05
11970.0 2.183e-05
11990.0 2.1456e-05
12010.0 2.1101e-05
12030.0 2.0766e-05
12050.0 2.0447e-05
12070.0 2.0146e-05
12090.0 1.9869e-05
12110.0 1.9609e-05
12130.0 1.9369e-05
12150.0 1.9147e-05
12170.0 1.8943e-05
12190.0 1.8756e-05
12210.0 1.8584e-05
12230.0 1.8423e-05
12250.0 1.8272e-05
12270.0 1.8133e-05
12290.0 1.7998e-05
12310.0 1.7864e-05
12330.0 1.7736e-05
12350.0 1.7607e-05
12370.0 1.7474e-05
12390.0 1.7339e-05
12410.0 1.72e-05
12430.0 1.7052e-05
12450.0 1.6897e-05
12470.0 1.6734e-05
12490.0 1.656e-05
12510.0 1.6378e-05
12530.0 1.6184e-05
12550.0 1.5979e-05
12570.0 1.5765e-05
12590.0 1.5541e-05
12610.0 1.5303e-05
12630.0 1.5055e-05
12650.0 1.4803e-05
12670.0 1.4541e-05
12690.0 1.4268e-05
12710.0 1.3994e-05
12730.0 1.3717e-05
12750.0 1.3427e-05
12770.0 1.3138e-05
12790.0 1.2853e-05
12810.0 1.2564e-05
12830.0 1.2272e-05
12850.0 1.199e-05
12870.0 1.1714e-05
12890.0 1.1437e-05
12910.0 1.1169e-05
12930.0 1.0915e-05
12950.0 1.0666e-05
12970.0 1.0426e-05
12990.0 1.0207e-05
13010.0 1.0003e-05
13030.0 9.8126e-06
13050.0 9.6421e-06
13070.0 9.4934e-06
13090.0 9.3603e-06
13110.0 9.2464e-06
13130.0 9.1532e-06
13150.0 9.0779e-06
13170.0 9.0199e-06
13190.0 8.9796e-06
13210.0 8.9544e-06
13230.0 8.9441e-06
13250.0 8.948e-06
13270.0 8.9621e-06
13290.0 8.9872e-06
13310.0 9.024e-06
13330.0 9.0664e-06
13350.0 9.1127e-06
13370.0 9.1645e-06
13390.0 9.2186e-06
13410.0 9.2674e-06
13430.0 9.3146e-06
13450.0 9.3587e-06
13470.0 9.3956e-06
13490.0 9.4254e-06
13510.0 9.4502e-06
13530.0 9.4675e-06
13550.0 9.4782e-06
13570.0 9.4838e-06
13590.0 9.4845e-06
13610.0 9.4814e-06
13630.0 9.4753e-06
13650.0 9.4653e-06
13670.0 9.4517e-06
13690.0 9.4355e-06
13710.0 9.4146e-06
13730.0 9.3859e-06
13750.0 9.3538e-06
13770.0 9.3158e-06
13790.0 9.2683e-06
13810.0 9.2134e-06
13830.0 9.1548e-06
13850.0 9.0862e-06
13870.0 9.0087e-06
13890.0 8.9292e-06
13910.0 8.8466e-06
13930.0 8.7561e-06
13950.0 8.6647e-06
13970.0 8.5801e-06
13990.0 8.4932e-06
14010.0 8.4072e-06
14030.0 8.3294e-06
14050.0 8.2574e-06
14070.0 8.1847e-06
14090.0 8.1213e-06
14110.0 8.067e-06
14130.0 8.0162e-06
14150.0 7.9692e-06
14170.0 7.932e-06
14190.0 7.8997e-06
14210.0 7.8686e-06
14230.0 7.843e-06
14250.0 7.8231e-06
14270.0 7.8033e-06
14290.0 7.7853e-06
14310.0 7.7739e-06
14330.0 7.7651e-06
14350.0 7.7574e-06
14370.0 7.7544e-06
14390.0 7.757e-06
14410.0 7.7609e-06
14430.0 7.7684e-06
14450.0 7.7816e-06
14470.0 7.7982e-06
14490.0 7.8161e-06
14510.0 7.8387e-06
14530.0 7.8649e-06
14550.0 7.8919e-06
14570.0 7.9201e-06
14590.0 7.9508e-06
14610.0 7.9814e-06
14630.0 8.0108e-06
14650.0 8.0413e-06
14670.0 8.072e-06
14690.0 8.1009e-06
14710.0 8.1284e-06
14730.0 8.1572e-06
14750.0 8.184e-06
14770.0 8.2082e-06
14790.0 8.2318e-06
14810.0 8.2545e-06
14830.0 8.2721e-06
14850.0 8.2879e-06
14870.0 8.3033e-06
14890.0 8.3159e-06
14910.0 8.3255e-06
14930.0 8.3366e-06
14950.0 8.3494e-06
14970.0 8.362e-06
14990.0 8.3783e-06
15010.0 8.4e-06
15030.0 8.425e-06
15050.0 8.4525e-06
15070.0 8.4852e-06
15090.0 8.52e-06
15110.0 8.5552e-06
15130.0 8.5911e-06
15150.0 8.628e-06
15170.0 8.6635e-06
15190.0 8.6981e-06
15210.0 8.7328e-06
15230.0 8.7667e-06
15250.0 8.799e-06
15270.0 8.8305e-06
15290.0 8.8623e-06
15310.0 8.8924e-06
15330.0 8.9213e-06
15350.0 8.95e-06
15370.0 8.9778e-06
15390.0 9.0033e-06
15410.0 9.0285e-06
15430.0 9.0533e-06
15450.0 9.0765e-06
15470.0 9.098e-06
15490.0 9.1197e-06
15510.0 9.1402e-06
15530.0 9.1587e-06
15550.0 9.1765e-06
15570.0 9.1939e-06
15590.0 9.2092e-06
15610.0 9.2229e-06
15630.0 9.2367e-06
15650.0 9.2491e-06
15670.0 9.2596e-06
15690.0 9.2695e-06
15710.0 9.2789e-06
15730.0 9.2861e-06
15750.0 9.292e-06
15770.0 9.2976e-06
15790.0 9.3017e-06
15810.0 9.3035e-06
15830.0 9.3052e-06
15850.0 9.3062e-06
15870.0 9.3052e-06
15890.0 9.3029e-06
15910.0 9.3005e-06
15930.0 9.2963e-06
15950.0 9.29e-06
15970.0 9.2835e-06
15990.0 9.2762e-06
16010.0 9.2668e-06
16030.0 9.2561e-06
16050.0 9.2457e-06
16070.0 9.2335e-06
16090.0 9.2195e-06
16110.0 9.2052e-06
16130.0 9.1903e-06
16150.0 9.1727e-06
16170.0 9.1545e-06
16190.0 9.1362e-06
16210.0 9.1163e-06
16230.0 9.0947e-06
16250.0 9.0731e-06
16270.0 9.0508e-06
16290.0 9.0263e-06
16310.0 9.0012e-06
16330.0 8.9759e-06
16350.0 8.949e-06
16370.0 8.92e-06
16390.0 8.8918e-06
16410.0 8.8627e-06
16430.0 8.8317e-06
16450.0 8.8002e-06
16470.0 8.7689e-06
16490.0 8.7355e-06
16510.0 8.7011e-06
16530.0 8.6667e-06
16550.0 8.6316e-06
16570.0 8.5947e-06
16590.0 8.5574e-06
16610.0 8.5205e-06
16630.0 8.482e-06
16650.0 8.4425e-06
16670.0 8.4032e-06
16690.0 8.3632e-06
16710.0 8.3212e-06
16730.0 8.2794e-06
16750.0 8.2377e-06
16770.0 8.1946e-06
16790.0 8.1504e-06
16810.0 8.107e-06
16830.0 8.0629e-06
16850.0 8.0173e-06
16870.0 7.9718e-06
16890.0 7.9264e-06
16910.0 7.8795e-06
16930.0 7.8318e-06
16950.0 7.785e-06
16970.0 7.7375e-06
16990.0 7.6888e-06
17010.0 7.6403e-06
17030.0 7.5922e-06
17050.0 7.5426e-06
17070.0 7.4926e-06
17090.0 7.4433e-06
17110.0 7.3933e-06
17130.0 7.3419e-06
17150.0 7.2914e-06
17170.0 7.2411e-06
17190.0 7.1897e-06
17210.0 7.1381e-06
17230.0 7.0872e-06
17250.0 7.0355e-06
17270.0 6.9829e-06
17290.0 6.931e-06
17310.0 6.8792e-06
17330.0 6.8265e-06
17350.0 6.7736e-06
17370.0 6.7218e-06
17390.0 6.6693e-06
17410.0 6.6162e-06
17430.0 6.5638e-06
17450.0 6.5116e-06
17470.0 6.458e-06
17490.0 6.405e-06
17510.0 6.3527e-06
17530.0 6.2999e-06
17550.0 6.2466e-06
17570.0 6.1942e-06
17590.0 6.142e-06
17610.0 6.0889e-06
17630.0 6.0362e-06
17650.0 5.9842e-06
17670.0 5.9318e-06
17690.0 5.8785e-06
17710.0 5.8268e-06
17730.0 5.7751e-06
17750.0 5.7227e-06
17770.0 5.6708e-06
17790.0 5.6199e-06
17810.0 5.5681e-06
17830.0 5.5162e-06
17850.0 5.4654e-06
17870.0 5.4146e-06
17890.0 5.3632e-06
17910.0 5.3124e-06
17930.0 5.2626e-06
17950.0 5.2123e-06
17970.0 5.162e-06
17990.0 5.1126e-06
18010.0 5.0634e-06
18030.0 5.0134e-06
18050.0 4.9643e-06
18070.0 4.9159e-06
18090.0 4.8672e-06
18110.0 4.8185e-06
18130.0 4.771e-06
18150.0 4.7235e-06
18170.0 4.6756e-06
18190.0 4.6285e-06
18210.0 4.5821e-06
18230.0 4.5351e-06
18250.0 4.4883e-06
18270.0 4.4428e-06
18290.0 4.3973e-06
18310.0 4.3515e-06
18330.0 4.3066e-06
18350.0 4.2624e-06
18370.0 4.2176e-06
18390.0 4.1733e-06
18410.0 4.1299e-06
18430.0 4.0866e-06
18450.0 4.0429e-06
18470.0 4.0003e-06
18490.0 3.9583e-06
18510.0 3.916e-06
18530.0 3.8741e-06
18550.0 3.8333e-06
18570.0 3.7922e-06
18590.0 3.751e-06
18610.0 3.7109e-06
18630.0 3.6712e-06
18650.0 3.6313e-06
18670.0 3.5917e-06
18690.0 3.5534e-06
18710.0 3.5149e-06
18730.0 3.4764e-06
18750.0 3.4388e-06
18770.0 3.4017e-06
18790.0 3.364e-06
18810.0 3.3271e-06
18830.0 3.2912e-06
18850.0 3.2551e-06
18870.0 3.2191e-06
18890.0 3.1841e-06
18910.0 3.1495e-06
18930.0 3.1146e-06
18950.0 3.0803e-06
18970.0 3.0468e-06
18990.0 3.0133e-06
19010.0 2.9795e-06
19030.0 2.9471e-06
19050.0 2.9149e-06
19070.0 2.8825e-06
19090.0 2.8508e-06
19110.0 2.8199e-06
19130.0 2.7886e-06
19150.0 2.7576e-06
19170.0 2.7275e-06
19190.0 2.6977e-06
19210.0 2.6676e-06
19230.0 2.6382e-06
19250.0 2.6097e-06
19270.0 2.5809e-06
19290.0 2.5524e-06
19310.0 2.5247e-06
19330.0 2.4972e-06
19350.0 2.4693e-06
19370.0 2.4423e-06
19390.0 2.4159e-06
19410.0 2.3893e-06
19430.0 2.3629e-06
19450.0 2.3375e-06
19470.0 2.3121e-06
19490.0 2.2867e-06
19510.0 2.2618e-06
19530.0 2.2375e-06
19550.0 2.2129e-06
19570.0 2.1885e-06
19590.0 2.1651e-06
19610.0 2.1417e-06
19630.0 2.1182e-06
19650.0 2.0953e-06
19670.0 2.073e-06
19690.0 2.0503e-06
19710.0 2.0279e-06
19730.0 2.0063e-06
19750.0 1.9846e-06
19770.0 1.9627e-06
19790.0 1.9416e-06
19810.0 1.9209e-06
19830.0 1.9e-06
19850.0 1.8793e-06
19870.0 1.8594e-06
19890.0 1.8393e-06
19910.0 1.8192e-06
19930.0 1.7999e-06
19950.0 1.7812e-06
19970.0 1.7627e-06
19990.0 1.7451e-06
20010.0 1.7289e-06
20030.0 1.7135e-06
20050.0 1.6992e-06
20070.0 1.6866e-06
20090.0 1.6753e-06
20110.0 1.6653e-06
20130.0 1.6569e-06
20150.0 1.6499e-06
20170.0 1.6441e-06
20190.0 1.6395e-06
20210.0 1.6359e-06
20230.0 1.6331e-06
20250.0 1.6312e-06
20270.0 1.6299e-06
20290.0 1.6289e-06
20310.0 1.6283e-06
20330.0 1.628e-06
20350.0 1.6273e-06
20370.0 1.6266e-06
20390.0 1.6258e-06
20410.0 1.6246e-06
20430.0 1.623e-06
20450.0 1.6213e-06
20470.0 1.6193e-06
20490.0 1.6168e-06
20510.0 1.6141e-06
20530.0 1.6113e-06
20550.0 1.6083e-06
20570.0 1.605e-06
20590.0 1.6018e-06
20610.0 1.5986e-06
20630.0 1.5953e-06
20650.0 1.592e-06
20670.0 1.5889e-06
20690.0 1.5856e-06
20710.0 1.5823e-06
20730.0 1.5789e-06
20750.0 1.5754e-06
20770.0 1.5714e-06
20790.0 1.5673e-06
20810.0 1.5628e-06
20830.0 1.5578e-06
20850.0 1.5522e-06
20870.0 1.546e-06
20890.0 1.5392e-06
20910.0 1.5316e-06
20930.0 1.5233e-06
20950.0 1.5142e-06
20970.0 1.5043e-06
20990.0 1.4937e-06
21010.0 1.4824e-06
21030.0 1.4703e-06
21050.0 1.4576e-06
21070.0 1.4443e-06
21090.0 1.4302e-06
21110.0 1.4158e-06
21130.0 1.4008e-06
21150.0 1.3853e-06
21170.0 1.3692e-06
21190.0 1.3528e-06
21210.0 1.3357e-06
21230.0 1.318e-06
21250.0 1.2998e-06
21270.0 1.281e-06
21290.0 1.2614e-06
21310.0 1.2411e-06
21330.0 1.2203e-06
21350.0 1.1984e-06
21370.0 1.1759e-06
21390.0 1.1748e-06
21410.0 1.1736e-06
21430.0 1.1723e-06
21450.0 1.1711e-06
21470.0 1.1698e-06
21490.0 1.1684e-06
21510.0 1.167e-06
21530.0 1.1656e-06
21550.0 1.1641e-06
21570.0 1.1626e-06
21590.0 1.1611e-06
21610.0 1.1595e-06
21630.0 1.1579e-06
21650.0 1.1562e-06
21670.0 1.1545e-06
21690.0 1.1528e-06
21710.0 1.1511e-06
21730.0 1.1493e-06
21750.0 1.1475e-06
21770.0 1.1456e-06
21790.0 1.1437e-06
21810.0 1.1418e-06
21830.0 1.1398e-06
21850.0 1.1378e-06
21870.0 1.1358e-06
21890.0 1.1337e-06
21910.0 1.1316e-06
21930.0 1.1295e-06
21950.0 1.1273e-06
21970.0 1.1251e-06
21990.0 1.1229e-06
22010.0 1.1207e-06
22030.0 1.1184e-06
22050.0 1.1161e-06
22070.0 1.1149e-06
22090.0 1.1156e-06
22110.0 1.1163e-06
22130.0 1.117e-06
22150.0 1.1176e-06
22170.0 1.1183e-06
22190.0 1.1189e-06
22210.0 1.1196e-06
22230.0 1.1202e-06
22250.0 1.1208e-06
22270.0 1.1214e-06
22290.0 1.122e-06
22310.0 1.1226e-06
22330.0 1.1232e-06
22350.0 1.1238e-06
22370.0 1.1243e-06
22390.0 1.1249e-06
22410.0 1.1255e-06
22430.0 1.1261e-06
22450.0 1.1267e-06
22470.0 1.1273e-06
22490.0 1.1279e-06
22510.0 1.1285e-06
22530.0 1.1291e-06
22550.0 1.1298e-06
22570.0 1.1304e-06
22590.0 1.131e-06
22610.0 1.1317e-06
22630.0 1.1323e-06
22650.0 1.133e-06
22670.0 1.1337e-06
22690.0 1.1343e-06
22710.0 1.135e-06
22730.0 1.1357e-06
22750.0 1.1364e-06
22770.0 1.1371e-06
