#lamb flux
1010.0 2.4217e-05
1030.0 2.8469e-05
1050.0 3.2438e-05
1070.0 3.5877e-05
1090.0 3.8728e-05
1110.0 4.0221e-05
1130.0 4.0357e-05
1150.0 3.9478e-05
1170.0 3.7595e-05
1190.0 3.4577e-05
1210.0 3.0961e-05
1230.0 2.6972e-05
1250.0 2.2678e-05
1270.0 1.8323e-05
1290.0 1.4217e-05
1310.0 1.0429e-05
1330.0 7.1044e-06
1350.0 4.4168e-06
1370.0 2.4587e-06
1390.0 1.2712e-06
1410.0 8.9554e-07
1430.0 1.3458e-06
1450.0 2.6007e-06
1470.0 4.6187e-06
1490.0 7.3611e-06
1510.0 1.0877e-05
1530.0 1.5078e-05
1550.0 1.9844e-05
1570.0 2.5191e-05
1590.0 3.1108e-05
1610.0 3.7561e-05
1630.0 4.4672e-05
1650.0 5.2527e-05
1670.0 6.1126e-05
1690.0 7.0598e-05
1710.0 8.118e-05
1730.0 9.2993e-05
1750.0 0.00010617
1770.0 0.00012097
1790.0 0.00013758
1810.0 0.00015603
1830.0 0.00017652
1850.0 0.0001996
1870.0 0.00022513
1890.0 0.0002532
1910.0 0.00028428
1930.0 0.00031859
1950.0 0.00035582
1970.0 0.00039623
1990.0 0.0004403
2010.0 0.00048764
2030.0 0.00053798
2050.0 0.00059185
2070.0 0.00064915
2090.0 0.00070866
2110.0 0.00077067
2130.0 0.00083529
2150.0 0.00090145
2170.0 0.00096819
2190.0 0.0010362
2210.0 0.0011045
2230.0 0.0011717
2250.0 0.0012376
2270.0 0.0013027
2290.0 0.0013648
2310.0 0.001423
2330.0 0.0014784
2350.0 0.0015299
2370.0 0.0015758
2390.0 0.0016166
2410.0 0.0016524
2430.0 0.0016807
2450.0 0.0017009
2470.0 0.0017131
2490.0 0.0017165
2510.0 0.001711
2530.0 0.0016997
2550.0 0.0016866
2570.0 0.0016779
2590.0 0.001681
2610.0 0.0017093
2630.0 0.0017725
2650.0 0.0018725
2670.0 0.0020187
2690.0 0.0022176
2710.0 0.0024494
2730.0 0.0027007
2750.0 0.0029788
2770.0 0.0032511
2790.0 0.0034915
2810.0 0.0037023
2830.0 0.0038819
2850.0 0.0040046
2870.0 0.0040903
2890.0 0.0041531
2910.0 0.0041963
2930.0 0.0042252
2950.0 0.004253
2970.0 0.004282
2990.0 0.0043102
3010.0 0.0043411
3030.0 0.0043783
3050.0 0.0044193
3070.0 0.0044601
3090.0 0.0045063
3110.0 0.0045559
3130.0 0.0046047
3150.0 0.004704
3170.0 0.0048015
3190.0 0.0049135
3210.0 0.0050432
3230.0 0.005193
3250.0 0.0053061
3270.0 0.0053768
3290.0 0.0055998
3310.0 0.0061266
3330.0 0.0068691
3350.0 0.0077046
3370.0 0.0086235
3390.0 0.009588
3410.0 0.010494
3430.0 0.011335
3450.0 0.01198
3470.0 0.012218
3490.0 0.012473
3510.0 0.012654
3530.0 0.011626
3550.0 0.010866
3570.0 0.0090894
3590.0 0.0096496
3610.0 0.010512
3630.0 0.011176
3650.0 0.010729
3670.0 0.0097952
3690.0 0.0092882
3710.0 0.009581
3730.0 0.010569
3750.0 0.011084
3770.0 0.011489
3790.0 0.011896
3810.0 0.011361
3830.0 0.010251
3850.0 0.0093767
3870.0 0.0089838
3890.0 0.0095969
3910.0 0.010087
3930.0 0.010189
3950.0 0.010481
3970.0 0.011024
3990.0 0.01152
4010.0 0.011725
4030.0 0.01128
4050.0 0.010797
4070.0 0.010777
4090.0 0.011007
4110.0 0.011266
4130.0 0.010996
4150.0 0.010715
4170.0 0.010652
4190.0 0.010858
4210.0 0.010479
4230.0 0.009697
4250.0 0.0087129
4270.0 0.0077893
4290.0 0.0070522
4310.0 0.0066725
4330.0 0.0067678
4350.0 0.0074387
4370.0 0.0078335
4390.0 0.0082958
4410.0 0.0087857
4430.0 0.009016
4450.0 0.008689
4470.0 0.0083157
4490.0 0.0082985
4510.0 0.0084268
4530.0 0.0085164
4550.0 0.0085034
4570.0 0.0084929
4590.0 0.008764
4610.0 0.0090358
4630.0 0.0092233
4650.0 0.0092666
4670.0 0.0092422
4690.0 0.0087588
4710.0 0.008073
4730.0 0.0078155
4750.0 0.0077248
4770.0 0.0074288
4790.0 0.0072167
4810.0 0.0071149
4830.0 0.0055627
4850.0 0.0071178
4870.0 0.005287
4890.0 0.0060355
4910.0 0.0070442
4930.0 0.0067432
4950.0 0.0055701
4970.0 0.0055927
4990.0 0.0052934
5010.0 0.0049399
5030.0 0.0047494
5050.0 0.0055274
5070.0 0.0055346
5090.0 0.0060578
5110.0 0.0061991
5130.0 0.0061352
5150.0 0.0063685
5170.0 0.0061295
5190.0 0.0059435
5210.0 0.0062483
5230.0 0.0061348
5250.0 0.0061509
5270.0 0.0060015
5290.0 0.0058784
5310.0 0.005417
5330.0 0.0051681
5350.0 0.0047866
5370.0 0.0047715
5390.0 0.0051435
5410.0 0.0047657
5430.0 0.0051298
5450.0 0.0049879
5470.0 0.0050204
5490.0 0.0050229
5510.0 0.0046052
5530.0 0.0047073
5550.0 0.0045077
5570.0 0.0045661
5590.0 0.0046328
5610.0 0.0047907
5630.0 0.0047847
5650.0 0.0048776
5670.0 0.0045176
5690.0 0.0046448
5710.0 0.0043095
5730.0 0.0044586
5750.0 0.004309
5770.0 0.0040096
5790.0 0.0041818
5810.0 0.0041589
5830.0 0.0043143
5850.0 0.0044198
5870.0 0.0044093
5890.0 0.0043765
5910.0 0.0044781
5930.0 0.0043373
5950.0 0.004466
5970.0 0.0042491
5990.0 0.0043209
6010.0 0.0042083
6030.0 0.0041751
6050.0 0.004257
6070.0 0.0039926
6090.0 0.0039414
6110.0 0.0040737
6130.0 0.0040409
6150.0 0.0039796
6170.0 0.0038995
6190.0 0.0036647
6210.0 0.0034192
6230.0 0.0034427
6250.0 0.0035024
6270.0 0.0034371
6290.0 0.0036109
6310.0 0.0039052
6330.0 0.0039251
6350.0 0.0038166
6370.0 0.0038747
6390.0 0.0039009
6410.0 0.0038255
6430.0 0.0036613
6450.0 0.0037258
6470.0 0.0037622
6490.0 0.0036758
6510.0 0.0035636
6530.0 0.0034735
6550.0 0.0034521
6570.0 0.0033512
6590.0 0.0033752
6610.0 0.0033764
6630.0 0.0032329
6650.0 0.0030323
6670.0 0.0029823
6690.0 0.0030836
6710.0 0.0030538
6730.0 0.0029431
6750.0 0.0028657
6770.0 0.0027822
6790.0 0.0028037
6810.0 0.0027981
6830.0 0.0027586
6850.0 0.0025789
6870.0 0.002601
6890.0 0.0026053
6910.0 0.0024818
6930.0 0.0025214
6950.0 0.0024225
6970.0 0.0023776
6990.0 0.0023361
7010.0 0.0024648
7030.0 0.0024563
7050.0 0.0023802
7070.0 0.0023354
7090.0 0.0023807
7110.0 0.0023237
7130.0 0.0023177
7150.0 0.0023436
7170.0 0.0023055
7190.0 0.0022629
7210.0 0.0022669
7230.0 0.0023864
7250.0 0.0022569
7270.0 0.0023845
7290.0 0.0022756
7310.0 0.0021787
7330.0 0.0020325
7350.0 0.002008
7370.0 0.0020301
7390.0 0.0019836
7410.0 0.001866
7430.0 0.0017309
7450.0 0.0017982
7470.0 0.0018271
7490.0 0.002004
7510.0 0.0021075
7530.0 0.0020012
7550.0 0.0019455
7570.0 0.0015716
7590.0 0.0017386
7610.0 0.0016032
7630.0 0.0016937
7650.0 0.0016507
7670.0 0.001697
7690.0 0.0014996
7710.0 0.0017497
7730.0 0.0017366
7750.0 0.0019882
7770.0 0.0020249
7790.0 0.0020773
7810.0 0.002203
7830.0 0.0021767
7850.0 0.0023716
7870.0 0.0022087
7890.0 0.0022518
7910.0 0.0022079
7930.0 0.0021006
7950.0 0.0020299
7970.0 0.0019923
7990.0 0.0019602
8010.0 0.0018826
8030.0 0.0018687
8050.0 0.0018296
8070.0 0.0018075
8090.0 0.0017201
8110.0 0.0017314
8130.0 0.0017864
8150.0 0.0018334
8170.0 0.0018282
8190.0 0.0018713
8210.0 0.0018456
8230.0 0.001775
8250.0 0.0017614
8270.0 0.0017285
8290.0 0.001695
8310.0 0.0016162
8330.0 0.0016267
8350.0 0.0016322
8370.0 0.001641
8390.0 0.0016589
8410.0 0.0016386
8430.0 0.0016397
8450.0 0.0016488
8470.0 0.0016795
8490.0 0.001702
8510.0 0.0016582
8530.0 0.0015928
8550.0 0.0015998
8570.0 0.0015873
8590.0 0.0015398
8610.0 0.0015702
8630.0 0.0015504
8650.0 0.0015259
8670.0 0.0015146
8690.0 0.0015054
8710.0 0.001437
8730.0 0.0014584
8750.0 0.0014134
8770.0 0.0014143
8790.0 0.0013767
8810.0 0.0013532
8830.0 0.001361
8850.0 0.0013264
8870.0 0.0012641
8890.0 0.0012407
8910.0 0.0011806
8930.0 0.0010995
8950.0 0.0010928
8970.0 0.0010477
8990.0 0.0010364
9010.0 0.0010181
9030.0 0.0010096
9050.0 0.0010027
9070.0 0.00099585
9090.0 0.00098893
9110.0 0.00098187
9130.0 0.00097483
9150.0 0.00096788
9170.0 0.00096088
9190.0 0.00095385
9210.0 0.00094677
9230.0 0.00093966
9250.0 0.00093255
9270.0 0.00092542
9290.0 0.00091827
9310.0 0.00091115
9330.0 0.00090407
9350.0 0.00089698
9370.0 0.00088989
9390.0 0.00088283
9410.0 0.00087576
9430.0 0.00086871
9450.0 0.00086169
9470.0 0.00085529
9490.0 0.00084859
9510.0 0.00084129
9530.0 0.00083411
9550.0 0.00082707
9570.0 0.00082014
9590.0 0.00081325
9610.0 0.00080645
9630.0 0.00079973
9650.0 0.00079304
9670.0 0.00078637
9690.0 0.00077978
9710.0 0.00077324
9730.0 0.00076672
9750.0 0.00076026
9770.0 0.0007539
9790.0 0.00074756
9810.0 0.00074125
9830.0 0.00073497
9850.0 0.00072805
9870.0 0.00072151
9890.0 0.00071597
9910.0 0.00071035
9930.0 0.00070346
9950.0 0.00069758
9970.0 0.0006923
9990.0 0.00068687
10010.0 0.00068148
10030.0 0.00067602
10050.0 0.0006705
10070.0 0.00066507
10090.0 0.00065974
10110.0 0.00065435
10130.0 0.00064903
10150.0 0.00064388
10170.0 0.00063876
10190.0 0.00063364
10210.0 0.00062867
10230.0 0.0006238
10250.0 0.00061891
10270.0 0.00061411
10290.0 0.00060945
10310.0 0.00060478
10330.0 0.00060013
10350.0 0.00059564
10370.0 0.00059122
10390.0 0.00058679
10410.0 0.00058231
10430.0 0.00057793
10450.0 0.0005739
10470.0 0.00056981
10490.0 0.00056584
10510.0 0.00056192
10530.0 0.00055792
10550.0 0.00055405
10570.0 0.00055031
10590.0 0.00054656
10610.0 0.00054284
10630.0 0.00053927
10650.0 0.00053575
10670.0 0.00053219
10690.0 0.00052874
10710.0 0.00052541
10730.0 0.00052207
10750.0 0.00051871
10770.0 0.00051556
10790.0 0.00051243
10810.0 0.00050928
10830.0 0.00050624
10850.0 0.00050332
10870.0 0.00050032
10890.0 0.00049739
10910.0 0.00049461
10930.0 0.00049188
10950.0 0.00048915
10970.0 0.00048655
10990.0 0.0004841
11010.0 0.00045245
11030.0 0.00044991
11050.0 0.00044761
11070.0 0.00044539
11090.0 0.00044313
11110.0 0.00044101
11130.0 0.00043892
11150.0 0.00043674
11170.0 0.00043451
11190.0 0.00043238
11210.0 0.00043018
11230.0 0.00042791
11250.0 0.00042574
11270.0 0.00042366
11290.0 0.00042154
11310.0 0.00041951
11330.0 0.00041774
11350.0 0.00041603
11370.0 0.00041439
11390.0 0.00041296
11410.0 0.00041168
11430.0 0.00041038
11450.0 0.00040922
11470.0 0.00040818
11490.0 0.00040713
11510.0 0.00040604
11530.0 0.00040503
11550.0 0.00040403
11570.0 0.00040291
11590.0 0.00040178
11610.0 0.00040069
11630.0 0.00039948
11650.0 0.00039817
11670.0 0.00039696
11690.0 0.00039573
11710.0 0.0003944
11730.0 0.0003931
11750.0 0.00039191
11770.0 0.00039064
11790.0 0.00038935
11810.0 0.00038818
11830.0 0.00038705
11850.0 0.00038583
11870.0 0.00038475
11890.0 0.00038384
11910.0 0.00038295
11930.0 0.00038214
11950.0 0.00038157
11970.0 0.00038113
11990.0 0.00038079
12010.0 0.00038071
12030.0 0.00038088
12050.0 0.00038124
12070.0 0.00038181
12090.0 0.0003827
12110.0 0.00038381
12130.0 0.00038513
12150.0 0.00038667
12170.0 0.0003884
12190.0 0.00039029
12210.0 0.0003923
12230.0 0.00039441
12250.0 0.00039657
12270.0 0.00039875
12290.0 0.0004009
12310.0 0.000403
12330.0 0.00040502
12350.0 0.00040692
12370.0 0.00040869
12390.0 0.00041031
12410.0 0.00041171
12430.0 0.00041295
12450.0 0.00041401
12470.0 0.00041482
12490.0 0.0004154
12510.0 0.00041583
12530.0 0.00041598
12550.0 0.00041583
12570.0 0.00041552
12590.0 0.00041502
12610.0 0.00041417
12630.0 0.00041309
12650.0 0.00041199
12670.0 0.0004106
12690.0 0.00040898
12710.0 0.00040732
12730.0 0.00040558
12750.0 0.00040352
12770.0 0.00040146
12790.0 0.00039948
12810.0 0.00039737
12830.0 0.00039516
12850.0 0.00039316
12870.0 0.00039123
12890.0 0.00038923
12910.0 0.0003874
12930.0 0.0003858
12950.0 0.00038422
12970.0 0.00038275
12990.0 0.00038161
13010.0 0.00038064
13030.0 0.00037979
13050.0 0.00037917
13070.0 0.0003788
13090.0 0.00037853
13110.0 0.00037841
13130.0 0.00037847
13150.0 0.00037864
13170.0 0.00037885
13190.0 0.00037918
13210.0 0.00037959
13230.0 0.00037999
13250.0 0.00038039
13270.0 0.00038082
13290.0 0.00038121
13310.0 0.00038152
13330.0 0.00038178
13350.0 0.00038196
13370.0 0.000382
13390.0 0.00038188
13410.0 0.00038167
13430.0 0.00038126
13450.0 0.00038062
13470.0 0.00037983
13490.0 0.00037889
13510.0 0.00037762
13530.0 0.00037618
13550.0 0.00037464
13570.0 0.0003729
13590.0 0.00037092
13610.0 0.00036888
13630.0 0.00036677
13650.0 0.00036441
13670.0 0.00036195
13690.0 0.00035947
13710.0 0.00035684
13730.0 0.00035394
13750.0 0.00035113
13770.0 0.00034825
13790.0 0.00034519
13810.0 0.00034207
13830.0 0.00033904
13850.0 0.00033587
13870.0 0.0003326
13890.0 0.00032945
13910.0 0.00032634
13930.0 0.00032313
13950.0 0.00031998
13970.0 0.00031705
13990.0 0.00031409
14010.0 0.00031115
14030.0 0.00030837
14050.0 0.00030568
14070.0 0.00030291
14090.0 0.00030027
14110.0 0.00029774
14130.0 0.00029519
14150.0 0.00029262
14170.0 0.00029017
14190.0 0.00028773
14210.0 0.00028522
14230.0 0.00028276
14250.0 0.00028035
14270.0 0.00027788
14290.0 0.00027538
14310.0 0.00027301
14330.0 0.00027065
14350.0 0.00026828
14370.0 0.00026599
14390.0 0.00026381
14410.0 0.00026162
14430.0 0.00025948
14450.0 0.00025745
14470.0 0.00025546
14490.0 0.00025346
14510.0 0.00025153
14530.0 0.00024966
14550.0 0.00024776
14570.0 0.00024585
14590.0 0.00024398
14610.0 0.00024207
14630.0 0.0002401
14650.0 0.00023813
14670.0 0.00023616
14690.0 0.00023412
14710.0 0.00023203
14730.0 0.00022998
14750.0 0.00022789
14770.0 0.00022573
14790.0 0.00022359
14810.0 0.00022144
14830.0 0.0002192
14850.0 0.00021696
14870.0 0.00021474
14890.0 0.00021249
14910.0 0.0002102
14930.0 0.00020797
14950.0 0.0002058
14970.0 0.00020364
14990.0 0.00020156
15010.0 0.00019961
15030.0 0.00019772
15050.0 0.00019589
15070.0 0.00019416
15090.0 0.00019248
15110.0 0.00019082
15130.0 0.00018918
15150.0 0.00018757
15170.0 0.00018594
15190.0 0.00018431
15210.0 0.00018269
15230.0 0.00018108
15250.0 0.00017945
15270.0 0.00017782
15290.0 0.00017622
15310.0 0.0001746
15330.0 0.00017298
15350.0 0.00017137
15370.0 0.00016977
15390.0 0.00016815
15410.0 0.00016654
15430.0 0.00016495
15450.0 0.00016336
15470.0 0.00016176
15490.0 0.00016018
15510.0 0.00015861
15530.0 0.00015703
15550.0 0.00015547
15570.0 0.00015392
15590.0 0.00015236
15610.0 0.00015081
15630.0 0.00014928
15650.0 0.00014775
15670.0 0.00014622
15690.0 0.00014471
15710.0 0.00014322
15730.0 0.00014172
15750.0 0.00014023
15770.0 0.00013876
15790.0 0.0001373
15810.0 0.00013583
15830.0 0.00013438
15850.0 0.00013296
15870.0 0.00013153
15890.0 0.00013011
15910.0 0.00012872
15930.0 0.00012733
15950.0 0.00012593
15970.0 0.00012457
15990.0 0.00012321
16010.0 0.00012186
16030.0 0.00012052
16050.0 0.00011921
16070.0 0.0001179
16090.0 0.00011659
16110.0 0.00011531
16130.0 0.00011404
16150.0 0.00011277
16170.0 0.00011151
16190.0 0.00011028
16210.0 0.00010906
16230.0 0.00010784
16250.0 0.00010664
16270.0 0.00010546
16290.0 0.00010428
16310.0 0.00010311
16330.0 0.00010197
16350.0 0.00010083
16370.0 9.969e-05
16390.0 9.8583e-05
16410.0 9.7488e-05
16430.0 9.6395e-05
16450.0 9.5318e-05
16470.0 9.4265e-05
16490.0 9.3211e-05
16510.0 9.2167e-05
16530.0 9.1145e-05
16550.0 9.0136e-05
16570.0 8.9128e-05
16590.0 8.8135e-05
16610.0 8.7167e-05
16630.0 8.6202e-05
16650.0 8.5246e-05
16670.0 8.431e-05
16690.0 8.3387e-05
16710.0 8.2461e-05
16730.0 8.1556e-05
16750.0 8.0668e-05
16770.0 7.9785e-05
16790.0 7.891e-05
16810.0 7.8057e-05
16830.0 7.7214e-05
16850.0 7.6374e-05
16870.0 7.555e-05
16890.0 7.4744e-05
16910.0 7.3938e-05
16930.0 7.314e-05
16950.0 7.2365e-05
16970.0 7.1598e-05
16990.0 7.0835e-05
17010.0 7.0088e-05
17030.0 6.9357e-05
17050.0 6.8626e-05
17070.0 6.7906e-05
17090.0 6.7204e-05
17110.0 6.6509e-05
17130.0 6.5815e-05
17150.0 6.5139e-05
17170.0 6.4478e-05
17190.0 6.3818e-05
17210.0 6.3169e-05
17230.0 6.2537e-05
17250.0 6.1908e-05
17270.0 6.1283e-05
17290.0 6.0674e-05
17310.0 6.0076e-05
17330.0 5.9481e-05
17350.0 5.8893e-05
17370.0 5.8325e-05
17390.0 5.776e-05
17410.0 5.7199e-05
17430.0 5.6652e-05
17450.0 5.6117e-05
17470.0 5.5578e-05
17490.0 5.5051e-05
17510.0 5.454e-05
17530.0 5.4031e-05
17550.0 5.3527e-05
17570.0 5.3037e-05
17590.0 5.2556e-05
17610.0 5.2075e-05
17630.0 5.1604e-05
17650.0 5.1146e-05
17670.0 5.069e-05
17690.0 5.0234e-05
17710.0 4.9797e-05
17730.0 4.9366e-05
17750.0 4.8936e-05
17770.0 4.8515e-05
17790.0 4.8107e-05
17810.0 4.7698e-05
17830.0 4.7294e-05
17850.0 4.6902e-05
17870.0 4.6516e-05
17890.0 4.613e-05
17910.0 4.5753e-05
17930.0 4.539e-05
17950.0 4.5025e-05
17970.0 4.4666e-05
17990.0 4.4318e-05
18010.0 4.3975e-05
18030.0 4.3628e-05
18050.0 4.3294e-05
18070.0 4.2969e-05
18090.0 4.2644e-05
18110.0 4.2322e-05
18130.0 4.2014e-05
18150.0 4.1708e-05
18170.0 4.1403e-05
18190.0 4.1106e-05
18210.0 4.0818e-05
18230.0 4.0527e-05
18250.0 4.024e-05
18270.0 3.9966e-05
18290.0 3.9695e-05
18310.0 3.9423e-05
18330.0 3.9161e-05
18350.0 3.8906e-05
18370.0 3.8648e-05
18390.0 3.8396e-05
18410.0 3.8153e-05
18430.0 3.7912e-05
18450.0 3.7669e-05
18470.0 3.7437e-05
18490.0 3.7212e-05
18510.0 3.6985e-05
18530.0 3.6762e-05
18550.0 3.6549e-05
18570.0 3.6336e-05
18590.0 3.6121e-05
18610.0 3.5917e-05
18630.0 3.5717e-05
18650.0 3.5516e-05
18670.0 3.5318e-05
18690.0 3.5132e-05
18710.0 3.4944e-05
18730.0 3.4757e-05
18750.0 3.4578e-05
18770.0 3.4404e-05
18790.0 3.4224e-05
18810.0 3.4051e-05
18830.0 3.3887e-05
18850.0 3.3722e-05
18870.0 3.3557e-05
18890.0 3.3401e-05
18910.0 3.3248e-05
18930.0 3.3092e-05
18950.0 3.2942e-05
18970.0 3.2799e-05
18990.0 3.2654e-05
19010.0 3.2507e-05
19030.0 3.2372e-05
19050.0 3.2238e-05
19070.0 3.2103e-05
19090.0 3.1972e-05
19110.0 3.185e-05
19130.0 3.1722e-05
19150.0 3.1596e-05
19170.0 3.1478e-05
19190.0 3.1362e-05
19210.0 3.1243e-05
19230.0 3.1129e-05
19250.0 3.1023e-05
19270.0 3.0914e-05
19290.0 3.0806e-05
19310.0 3.0705e-05
19330.0 3.0606e-05
19350.0 3.05e-05
19370.0 3.0403e-05
19390.0 3.0311e-05
19410.0 3.0217e-05
19430.0 3.0122e-05
19450.0 3.0038e-05
19470.0 2.9952e-05
19490.0 2.9864e-05
19510.0 2.9781e-05
19530.0 2.9704e-05
19550.0 2.9621e-05
19570.0 2.9539e-05
19590.0 2.9467e-05
19610.0 2.9394e-05
19630.0 2.9318e-05
19650.0 2.9249e-05
19670.0 2.9185e-05
19690.0 2.9114e-05
19710.0 2.9046e-05
19730.0 2.8985e-05
19750.0 2.8923e-05
19770.0 2.8856e-05
19790.0 2.8798e-05
19810.0 2.8744e-05
19830.0 2.8685e-05
19850.0 2.8629e-05
19870.0 2.8581e-05
19890.0 2.853e-05
19910.0 2.8478e-05
19930.0 2.8437e-05
19950.0 2.8404e-05
19970.0 2.8375e-05
19990.0 2.8358e-05
20010.0 2.836e-05
20030.0 2.8372e-05
20050.0 2.8398e-05
20070.0 2.8441e-05
20090.0 2.8496e-05
20110.0 2.8559e-05
20130.0 2.8635e-05
20150.0 2.8721e-05
20170.0 2.8812e-05
20190.0 2.891e-05
20210.0 2.9015e-05
20230.0 2.9126e-05
20250.0 2.924e-05
20270.0 2.9359e-05
20290.0 2.9482e-05
20310.0 2.9607e-05
20330.0 2.9734e-05
20350.0 2.9866e-05
20370.0 2.9999e-05
20390.0 3.0133e-05
20410.0 3.0269e-05
20430.0 3.0408e-05
20450.0 3.0547e-05
20470.0 3.0688e-05
20490.0 3.0834e-05
20510.0 3.0982e-05
20530.0 3.1133e-05
20550.0 3.129e-05
20570.0 3.1454e-05
20590.0 3.1622e-05
20610.0 3.1797e-05
20630.0 3.1979e-05
20650.0 3.2168e-05
20670.0 3.2362e-05
20690.0 3.2565e-05
20710.0 3.2773e-05
20730.0 3.2987e-05
20750.0 3.3205e-05
20770.0 3.3427e-05
20790.0 3.3651e-05
20810.0 3.3875e-05
20830.0 3.41e-05
20850.0 3.4325e-05
20870.0 3.4546e-05
20890.0 3.4763e-05
20910.0 3.4978e-05
20930.0 3.5187e-05
20950.0 3.539e-05
20970.0 3.559e-05
20990.0 3.5786e-05
21010.0 3.5972e-05
21030.0 3.6155e-05
21050.0 3.6336e-05
21070.0 3.6511e-05
21090.0 3.6678e-05
21110.0 3.6848e-05
21130.0 3.7016e-05
21150.0 3.7177e-05
21170.0 3.7337e-05
21190.0 3.75e-05
21210.0 3.7656e-05
21230.0 3.7807e-05
21250.0 3.7962e-05
21270.0 3.8115e-05
21290.0 3.826e-05
21310.0 3.8404e-05
21330.0 3.8553e-05
21350.0 3.8692e-05
21370.0 3.8824e-05
21390.0 3.8959e-05
21410.0 3.9092e-05
21430.0 3.9207e-05
21450.0 3.9325e-05
21470.0 3.9446e-05
21490.0 3.9555e-05
21510.0 3.9657e-05
21530.0 3.9765e-05
21550.0 3.9869e-05
21570.0 3.9958e-05
21590.0 4.0049e-05
21610.0 4.0144e-05
21630.0 4.0228e-05
21650.0 4.03e-05
21670.0 4.0389e-05
21690.0 4.0471e-05
21710.0 4.0542e-05
21730.0 4.0617e-05
21750.0 4.07e-05
21770.0 4.0764e-05
21790.0 4.0827e-05
21810.0 4.0901e-05
21830.0 4.0971e-05
21850.0 4.103e-05
21870.0 4.1097e-05
21890.0 4.1176e-05
21910.0 4.1242e-05
21930.0 4.1311e-05
21950.0 4.1393e-05
21970.0 4.1475e-05
21990.0 4.1545e-05
22010.0 4.1635e-05
22030.0 4.1734e-05
22050.0 4.1829e-05
22070.0 4.193e-05
22090.0 4.2051e-05
22110.0 4.2171e-05
22130.0 4.229e-05
22150.0 4.2425e-05
22170.0 4.257e-05
22190.0 4.2708e-05
22210.0 4.2854e-05
22230.0 4.3018e-05
22250.0 4.3181e-05
22270.0 4.3341e-05
22290.0 4.3515e-05
22310.0 4.3695e-05
22330.0 4.3864e-05
22350.0 4.4039e-05
22370.0 4.4226e-05
22390.0 4.4408e-05
22410.0 4.4583e-05
22430.0 4.4775e-05
22450.0 4.497e-05
22470.0 4.5158e-05
22490.0 4.5353e-05
22510.0 4.5562e-05
22530.0 4.5764e-05
22550.0 4.5966e-05
22570.0 4.6185e-05
22590.0 4.6411e-05
22610.0 4.6634e-05
22630.0 4.6866e-05
22650.0 4.7117e-05
22670.0 4.7364e-05
22690.0 4.7615e-05
22710.0 4.7882e-05
22730.0 4.8155e-05
22750.0 4.8423e-05
22770.0 4.8707e-05
22790.0 4.9006e-05
22810.0 4.9307e-05
22830.0 4.9615e-05
22850.0 4.9944e-05
22870.0 5.0282e-05
22890.0 5.0627e-05
22910.0 5.0994e-05
22930.0 5.1381e-05
22950.0 5.1782e-05
22970.0 5.2201e-05
22990.0 5.2652e-05
23010.0 5.3125e-05
