#lamb flux
1010.0 9.6012e-05
1030.0 0.00011566
1050.0 0.00013444
1070.0 0.00015065
1090.0 0.00016313
1110.0 0.00016722
1130.0 0.00016425
1150.0 0.00018296
1170.0 0.00020262
1190.0 0.00022117
1210.0 0.00023098
1230.0 0.00024025
1250.0 0.00024843
1270.0 0.00025596
1290.0 0.00026483
1310.0 0.00027471
1330.0 0.00028568
1350.0 0.00029915
1370.0 0.00031599
1390.0 0.00033572
1410.0 0.00035852
1430.0 0.00038563
1450.0 0.00041634
1470.0 0.00044982
1490.0 0.00048646
1510.0 0.00050717
1530.0 0.00051964
1550.0 0.00055578
1570.0 0.00071835
1590.0 0.00088457
1610.0 0.0010502
1630.0 0.0012152
1650.0 0.0013783
1670.0 0.0015355
1690.0 0.0016864
1710.0 0.001833
1730.0 0.0019734
1750.0 0.0021037
1770.0 0.0022288
1790.0 0.0023485
1810.0 0.00246
1830.0 0.0025643
1850.0 0.0026659
1870.0 0.0027601
1890.0 0.0028472
1910.0 0.0029308
1930.0 0.0030115
1950.0 0.0030859
1970.0 0.0031556
1990.0 0.0032234
2010.0 0.003286
2030.0 0.0033426
2050.0 0.0033974
2070.0 0.0034515
2090.0 0.0034992
2110.0 0.003544
2130.0 0.0035881
2150.0 0.0036286
2170.0 0.0036644
2190.0 0.0037003
2210.0 0.0037345
2230.0 0.0037643
2250.0 0.0037925
2270.0 0.0038221
2290.0 0.003849
2310.0 0.0038729
2330.0 0.0038981
2350.0 0.0039236
2370.0 0.0039466
2390.0 0.0039704
2410.0 0.0039971
2430.0 0.0040236
2450.0 0.0040521
2470.0 0.0040888
2490.0 0.0041387
2510.0 0.0042033
2530.0 0.0042978
2550.0 0.0044405
2570.0 0.0046404
2590.0 0.0049097
2610.0 0.0052984
2630.0 0.0058101
2650.0 0.0064265
2670.0 0.0071747
2690.0 0.0080619
2710.0 0.00901
2730.0 0.0099826
2750.0 0.01101
2770.0 0.012005
2790.0 0.01291
2810.0 0.013743
2830.0 0.014505
2850.0 0.015131
2870.0 0.015672
2890.0 0.016162
2910.0 0.016608
2930.0 0.01702
2950.0 0.017434
2970.0 0.017853
2990.0 0.01827
3010.0 0.018693
3030.0 0.01913
3050.0 0.019571
3070.0 0.019999
3090.0 0.020433
3110.0 0.020876
3130.0 0.021339
3150.0 0.022013
3170.0 0.022856
3190.0 0.023998
3210.0 0.025507
3230.0 0.027468
3250.0 0.029644
3270.0 0.031086
3290.0 0.034409
3310.0 0.043295
3330.0 0.045288
3350.0 0.045586
3370.0 0.04578
3390.0 0.045987
3410.0 0.046262
3430.0 0.046594
3450.0 0.046944
3470.0 0.047256
3490.0 0.047634
3510.0 0.04833
3530.0 0.048056
3550.0 0.046322
3570.0 0.045
3590.0 0.045554
3610.0 0.048471
3630.0 0.047313
3650.0 0.044368
3670.0 0.041351
3690.0 0.040547
3710.0 0.042072
3730.0 0.043442
3750.0 0.044127
3770.0 0.045772
3790.0 0.047725
3810.0 0.046566
3830.0 0.043938
3850.0 0.042242
3870.0 0.041829
3890.0 0.04122
3910.0 0.040381
3930.0 0.040611
3950.0 0.042363
3970.0 0.044426
3990.0 0.046157
4010.0 0.045078
4030.0 0.043758
4050.0 0.04347
4070.0 0.043396
4090.0 0.043321
4110.0 0.042669
4130.0 0.041222
4150.0 0.039843
4170.0 0.039484
4190.0 0.037677
4210.0 0.035305
4230.0 0.032606
4250.0 0.030037
4270.0 0.028369
4290.0 0.02684
4310.0 0.026422
4330.0 0.027171
4350.0 0.02748
4370.0 0.028518
4390.0 0.029989
4410.0 0.031294
4430.0 0.030552
4450.0 0.028527
4470.0 0.026877
4490.0 0.025966
4510.0 0.0256
4530.0 0.025622
4550.0 0.025685
4570.0 0.025925
4590.0 0.026541
4610.0 0.027928
4630.0 0.028812
4650.0 0.029435
4670.0 0.028793
4690.0 0.027279
4710.0 0.025633
4730.0 0.024661
4750.0 0.02398
4770.0 0.024366
4790.0 0.024068
4810.0 0.023377
4830.0 0.023952
4850.0 0.023947
4870.0 0.024695
4890.0 0.023406
4910.0 0.022057
4930.0 0.020372
4950.0 0.01879
4970.0 0.017173
4990.0 0.015845
5010.0 0.015681
5030.0 0.016058
5050.0 0.015693
5070.0 0.01601
5090.0 0.016645
5110.0 0.016523
5130.0 0.016395
5150.0 0.01628
5170.0 0.016399
5190.0 0.01667
5210.0 0.016203
5230.0 0.01591
5250.0 0.015541
5270.0 0.015095
5290.0 0.01494
5310.0 0.014876
5330.0 0.014357
5350.0 0.01423
5370.0 0.013876
5390.0 0.013428
5410.0 0.013223
5430.0 0.0129
5450.0 0.013274
5470.0 0.013468
5490.0 0.013213
5510.0 0.013611
5530.0 0.013752
5550.0 0.014048
5570.0 0.013942
5590.0 0.013472
5610.0 0.013413
5630.0 0.013682
5650.0 0.013577
5670.0 0.01338
5690.0 0.013007
5710.0 0.013269
5730.0 0.013485
5750.0 0.013043
5770.0 0.012577
5790.0 0.01148
5810.0 0.0099698
5830.0 0.011107
5850.0 0.012879
5870.0 0.013555
5890.0 0.013898
5910.0 0.01411
5930.0 0.014426
5950.0 0.014392
5970.0 0.0145
5990.0 0.014494
6010.0 0.014388
6030.0 0.014135
6050.0 0.014233
6070.0 0.014629
6090.0 0.014618
6110.0 0.014366
6130.0 0.014236
6150.0 0.013918
6170.0 0.013553
6190.0 0.013441
6210.0 0.013183
6230.0 0.013165
6250.0 0.013134
6270.0 0.013098
6290.0 0.013129
6310.0 0.013141
6330.0 0.013036
6350.0 0.012827
6370.0 0.012719
6390.0 0.012779
6410.0 0.012525
6430.0 0.012395
6450.0 0.012215
6470.0 0.012031
6490.0 0.01193
6510.0 0.011947
6530.0 0.011693
6550.0 0.011509
6570.0 0.011464
6590.0 0.011421
6610.0 0.01138
6630.0 0.011001
6650.0 0.010764
6670.0 0.010698
6690.0 0.010544
6710.0 0.010304
6730.0 0.010215
6750.0 0.010262
6770.0 0.010934
6790.0 0.01257
6810.0 0.011724
6830.0 0.0099881
6850.0 0.0095863
6870.0 0.0093557
6890.0 0.009281
6910.0 0.0092141
6930.0 0.0091657
6950.0 0.0089782
6970.0 0.0086476
6990.0 0.0084586
7010.0 0.0084788
7030.0 0.0083496
7050.0 0.0081025
7070.0 0.0080318
7090.0 0.0080809
7110.0 0.0081801
7130.0 0.0080229
7150.0 0.0078916
7170.0 0.0078025
7190.0 0.0078535
7210.0 0.0076766
7230.0 0.0075114
7250.0 0.0074858
7270.0 0.0074
7290.0 0.0073279
7310.0 0.0074155
7330.0 0.0072402
7350.0 0.0069717
7370.0 0.0066595
7390.0 0.0064093
7410.0 0.006469
7430.0 0.0064018
7450.0 0.0063276
7470.0 0.0061998
7490.0 0.0060187
7510.0 0.0059135
7530.0 0.0058147
7550.0 0.0061625
7570.0 0.0060911
7590.0 0.0055154
7610.0 0.0052359
7630.0 0.0055329
7650.0 0.0054702
7670.0 0.0055998
7690.0 0.0059106
7710.0 0.0059292
7730.0 0.0057445
7750.0 0.0061037
7770.0 0.0056646
7790.0 0.0053651
7810.0 0.0057299
7830.0 0.0057729
7850.0 0.0059982
7870.0 0.0059093
7890.0 0.0059636
7910.0 0.0058405
7930.0 0.0059181
7950.0 0.0062317
7970.0 0.0060751
7990.0 0.0054869
8010.0 0.0068231
8030.0 0.0066982
8050.0 0.0065866
8070.0 0.0063901
8090.0 0.0057367
8110.0 0.0056952
8130.0 0.006309
8150.0 0.00664
8170.0 0.0067924
8190.0 0.007047
8210.0 0.0068308
8230.0 0.0068259
8250.0 0.0068083
8270.0 0.0067347
8290.0 0.0066162
8310.0 0.0062997
8330.0 0.0062175
8350.0 0.0063818
8370.0 0.0064417
8390.0 0.0063206
8410.0 0.0062428
8430.0 0.0060582
8450.0 0.0059781
8470.0 0.0063432
8490.0 0.0063885
8510.0 0.0060391
8530.0 0.0059124
8550.0 0.0058469
8570.0 0.005542
8590.0 0.0055445
8610.0 0.00562
8630.0 0.0057441
8650.0 0.0057421
8670.0 0.0057325
8690.0 0.0056322
8710.0 0.005434
8730.0 0.0053144
8750.0 0.0052174
8770.0 0.0052177
8790.0 0.0053121
8810.0 0.005084
8830.0 0.0050561
8850.0 0.0052313
8870.0 0.0049668
8890.0 0.0046665
8910.0 0.0045681
8930.0 0.0044963
8950.0 0.0042559
8970.0 0.0040824
8990.0 0.0039978
9010.0 0.0037945
9030.0 0.0037417
9050.0 0.0037217
9070.0 0.0037033
9090.0 0.0036846
9110.0 0.0036656
9130.0 0.0036465
9150.0 0.0036276
9170.0 0.0036085
9190.0 0.0035892
9210.0 0.0035697
9230.0 0.0035501
9250.0 0.0035305
9270.0 0.0035107
9290.0 0.0034908
9310.0 0.003472
9330.0 0.0034549
9350.0 0.0034378
9370.0 0.0034206
9390.0 0.0034033
9410.0 0.0033859
9430.0 0.0033685
9450.0 0.003351
9470.0 0.0033353
9490.0 0.0033186
9510.0 0.0033
9530.0 0.0032816
9550.0 0.0032636
9570.0 0.0032458
9590.0 0.0032279
9610.0 0.0032118
9630.0 0.003196
9650.0 0.0031801
9670.0 0.0031641
9690.0 0.0031482
9710.0 0.0031324
9730.0 0.0031164
9750.0 0.0031004
9770.0 0.0030848
9790.0 0.003069
9810.0 0.0030531
9830.0 0.0030374
9850.0 0.0030202
9870.0 0.0030019
9890.0 0.0029881
9910.0 0.0029737
9930.0 0.0029568
9950.0 0.0029415
9970.0 0.0029273
9990.0 0.0029127
10010.0 0.002898
10030.0 0.0028832
10050.0 0.0028683
10070.0 0.0028535
10090.0 0.0028388
10110.0 0.002824
10130.0 0.0028094
10150.0 0.0027949
10170.0 0.0027806
10190.0 0.0027662
10210.0 0.0027521
10230.0 0.0027381
10250.0 0.0027241
10270.0 0.0027103
10290.0 0.0026967
10310.0 0.0026831
10330.0 0.0026695
10350.0 0.0026562
10370.0 0.002643
10390.0 0.0026298
10410.0 0.0026149
10430.0 0.0025997
10450.0 0.002589
10470.0 0.0025773
10490.0 0.0025656
10510.0 0.0025538
10530.0 0.0025416
10550.0 0.0025295
10570.0 0.0025178
10590.0 0.002506
10610.0 0.0024942
10630.0 0.0024828
10650.0 0.0024715
10670.0 0.00246
10690.0 0.0024489
10710.0 0.002438
10730.0 0.002427
10750.0 0.002416
10770.0 0.0024055
10790.0 0.0023951
10810.0 0.0023846
10830.0 0.0023743
10850.0 0.0023644
10870.0 0.0023542
10890.0 0.002344
10910.0 0.0023341
10930.0 0.0023241
10950.0 0.0023137
10970.0 0.0023032
10990.0 0.0022926
11010.0 0.0021965
11030.0 0.0021854
11050.0 0.0021748
11070.0 0.0021641
11090.0 0.0021526
11110.0 0.0021416
11130.0 0.0021306
11150.0 0.002119
11170.0 0.0021069
11190.0 0.0020953
11210.0 0.0020832
11230.0 0.0020705
11250.0 0.0020583
11270.0 0.0020464
11290.0 0.0020342
11310.0 0.0020222
11330.0 0.0020116
11350.0 0.0020011
11370.0 0.0019909
11390.0 0.0019817
11410.0 0.0019733
11430.0 0.0019648
11450.0 0.0019569
11470.0 0.0019497
11490.0 0.0019425
11510.0 0.0019351
11530.0 0.0019282
11550.0 0.0019213
11570.0 0.0019138
11590.0 0.0019062
11610.0 0.0018986
11630.0 0.0018903
11650.0 0.0018814
11670.0 0.0018726
11690.0 0.0018635
11710.0 0.0018537
11730.0 0.0018438
11750.0 0.0018341
11770.0 0.0018238
11790.0 0.0018133
11810.0 0.0018032
11830.0 0.0017931
11850.0 0.0017825
11870.0 0.0017725
11890.0 0.0017631
11910.0 0.0017537
11930.0 0.0017445
11950.0 0.0017363
11970.0 0.0017284
11990.0 0.0017206
12010.0 0.0017137
12030.0 0.0017074
12050.0 0.0017015
12070.0 0.001696
12090.0 0.0016915
12110.0 0.0016873
12130.0 0.0016834
12150.0 0.0016799
12170.0 0.001677
12190.0 0.0016739
12210.0 0.001671
12230.0 0.0016683
12250.0 0.0016653
12270.0 0.0016619
12290.0 0.0016583
12310.0 0.0016543
12330.0 0.0016495
12350.0 0.0016439
12370.0 0.0016379
12390.0 0.001631
12410.0 0.0016227
12430.0 0.0016142
12450.0 0.001605
12470.0 0.0015946
12490.0 0.0015836
12510.0 0.0015726
12530.0 0.0015606
12550.0 0.0015479
12570.0 0.0015352
12590.0 0.0015224
12610.0 0.0015088
12630.0 0.0014952
12650.0 0.0014824
12670.0 0.0014692
12690.0 0.001456
12710.0 0.0014435
12730.0 0.0014314
12750.0 0.0014191
12770.0 0.0014076
12790.0 0.001397
12810.0 0.0013867
12830.0 0.0013768
12850.0 0.001368
12870.0 0.0013599
12890.0 0.0013523
12910.0 0.0013455
12930.0 0.0013396
12950.0 0.0013343
12970.0 0.0013297
12990.0 0.0013261
13010.0 0.0013232
13030.0 0.001321
13050.0 0.0013195
13070.0 0.0013186
13090.0 0.0013182
13110.0 0.0013182
13130.0 0.0013184
13150.0 0.0013187
13170.0 0.0013189
13190.0 0.0013189
13210.0 0.0013184
13230.0 0.0013174
13250.0 0.0013157
13270.0 0.0013132
13290.0 0.00131
13310.0 0.0013056
13330.0 0.0013005
13350.0 0.0012947
13370.0 0.0012877
13390.0 0.0012798
13410.0 0.0012717
13430.0 0.0012627
13450.0 0.0012528
13470.0 0.0012425
13490.0 0.0012321
13510.0 0.0012205
13530.0 0.0012086
13550.0 0.0011968
13570.0 0.0011846
13590.0 0.0011717
13610.0 0.001159
13630.0 0.0011465
13650.0 0.0011333
13670.0 0.0011201
13690.0 0.0011074
13710.0 0.0010944
13730.0 0.0010809
13750.0 0.0010683
13770.0 0.001056
13790.0 0.0010435
13810.0 0.0010314
13830.0 0.0010202
13850.0 0.0010089
13870.0 0.00099776
13890.0 0.00098743
13910.0 0.00097757
13930.0 0.00096773
13950.0 0.00095834
13970.0 0.00094978
13990.0 0.00094131
14010.0 0.00093306
14030.0 0.00092541
14050.0 0.00091812
14070.0 0.00091077
14090.0 0.00090393
14110.0 0.00089757
14130.0 0.00089135
14150.0 0.00088529
14170.0 0.00087976
14190.0 0.00087446
14210.0 0.00086921
14230.0 0.00086424
14250.0 0.00085956
14270.0 0.00085486
14290.0 0.00085021
14310.0 0.00084586
14330.0 0.00084158
14350.0 0.00083723
14370.0 0.00083302
14390.0 0.00082899
14410.0 0.00082484
14430.0 0.00082071
14450.0 0.00081673
14470.0 0.00081276
14490.0 0.00080864
14510.0 0.00080466
14530.0 0.00080077
14550.0 0.00079676
14570.0 0.00079271
14590.0 0.00078879
14610.0 0.00078477
14630.0 0.00078059
14650.0 0.00077648
14670.0 0.0007724
14690.0 0.00076816
14710.0 0.00076382
14730.0 0.00075966
14750.0 0.00075537
14770.0 0.00075092
14790.0 0.00074651
14810.0 0.00074214
14830.0 0.00073746
14850.0 0.00073278
14870.0 0.00072821
14890.0 0.00072354
14910.0 0.00071879
14930.0 0.00071427
14950.0 0.00070998
14970.0 0.00070575
14990.0 0.00070186
15010.0 0.00069841
15030.0 0.00069523
15050.0 0.00069226
15070.0 0.0006897
15090.0 0.00068731
15110.0 0.000685
15130.0 0.00068278
15150.0 0.00068067
15170.0 0.00067853
15190.0 0.00067638
15210.0 0.00067429
15230.0 0.00067222
15250.0 0.00067008
15270.0 0.00066797
15290.0 0.00066594
15310.0 0.00066387
15330.0 0.00066178
15350.0 0.00065975
15370.0 0.00065773
15390.0 0.00065563
15410.0 0.00065358
15430.0 0.00065159
15450.0 0.00064956
15470.0 0.0006475
15490.0 0.00064553
15510.0 0.00064356
15530.0 0.00064153
15550.0 0.00063955
15570.0 0.00063762
15590.0 0.00063563
15610.0 0.00063362
15630.0 0.0006317
15650.0 0.00062978
15670.0 0.00062781
15690.0 0.00062589
15710.0 0.00062402
15730.0 0.00062209
15750.0 0.00062017
15770.0 0.00061831
15790.0 0.00061644
15810.0 0.00061451
15830.0 0.00061264
15850.0 0.00061083
15870.0 0.00060897
15890.0 0.00060711
15910.0 0.00060532
15930.0 0.0006035
15950.0 0.00060164
15970.0 0.00059984
15990.0 0.00059808
16010.0 0.00059626
16030.0 0.00059444
16050.0 0.00059272
16070.0 0.00059096
16090.0 0.00058917
16110.0 0.00058744
16130.0 0.00058575
16150.0 0.00058396
16170.0 0.00058221
16190.0 0.00058053
16210.0 0.00057882
16230.0 0.00057708
16250.0 0.0005754
16270.0 0.00057376
16290.0 0.00057205
16310.0 0.00057036
16330.0 0.00056874
16350.0 0.00056708
16370.0 0.00056536
16390.0 0.00056374
16410.0 0.00056213
16430.0 0.00056047
16450.0 0.00055884
16470.0 0.00055728
16490.0 0.00055565
16510.0 0.00055401
16530.0 0.00055243
16550.0 0.00055085
16570.0 0.00054922
16590.0 0.00054762
16610.0 0.00054609
16630.0 0.00054452
16650.0 0.00054293
16670.0 0.0005414
16690.0 0.00053987
16710.0 0.00053826
16730.0 0.00053671
16750.0 0.00053521
16770.0 0.00053366
16790.0 0.00053208
16810.0 0.0005306
16830.0 0.0005291
16850.0 0.00052755
16870.0 0.00052603
16890.0 0.00052457
16910.0 0.00052303
16930.0 0.00052148
16950.0 0.00052002
16970.0 0.00051854
16990.0 0.00051701
17010.0 0.00051553
17030.0 0.00051409
17050.0 0.00051258
17070.0 0.00051108
17090.0 0.00050963
17110.0 0.00050817
17130.0 0.00050664
17150.0 0.00050517
17170.0 0.00050375
17190.0 0.00050227
17210.0 0.00050079
17230.0 0.00049937
17250.0 0.00049792
17270.0 0.00049641
17290.0 0.00049497
17310.0 0.00049354
17330.0 0.00049206
17350.0 0.00049058
17370.0 0.00048918
17390.0 0.00048774
17410.0 0.00048626
17430.0 0.00048484
17450.0 0.00048344
17470.0 0.00048194
17490.0 0.00048047
17510.0 0.00047907
17530.0 0.00047763
17550.0 0.00047615
17570.0 0.00047474
17590.0 0.00047333
17610.0 0.00047186
17630.0 0.00047041
17650.0 0.00046901
17670.0 0.00046757
17690.0 0.00046606
17710.0 0.00046466
17730.0 0.00046325
17750.0 0.00046178
17770.0 0.00046034
17790.0 0.00045896
17810.0 0.00045749
17830.0 0.00045602
17850.0 0.0004546
17870.0 0.00045318
17890.0 0.0004517
17910.0 0.00045024
17930.0 0.00044885
17950.0 0.00044739
17970.0 0.00044593
17990.0 0.00044451
18010.0 0.00044309
18030.0 0.00044158
18050.0 0.00044014
18070.0 0.00043872
18090.0 0.00043726
18110.0 0.00043577
18130.0 0.00043436
18150.0 0.00043292
18170.0 0.00043143
18190.0 0.00042998
18210.0 0.00042857
18230.0 0.00042707
18250.0 0.00042556
18270.0 0.00042414
18290.0 0.00042269
18310.0 0.00042119
18330.0 0.00041973
18350.0 0.00041831
18370.0 0.00041681
18390.0 0.00041532
18410.0 0.00041387
18430.0 0.00041241
18450.0 0.00041087
18470.0 0.0004094
18490.0 0.00040796
18510.0 0.00040646
18530.0 0.00040496
18550.0 0.00040352
18570.0 0.00040203
18590.0 0.00040048
18610.0 0.00039901
18630.0 0.00039754
18650.0 0.00039601
18670.0 0.00039448
18690.0 0.00039303
18710.0 0.00039153
18730.0 0.00039
18750.0 0.00038851
18770.0 0.00038704
18790.0 0.00038547
18810.0 0.00038394
18830.0 0.00038246
18850.0 0.00038094
18870.0 0.00037938
18890.0 0.00037789
18910.0 0.0003764
18930.0 0.00037484
18950.0 0.0003733
18970.0 0.00037181
18990.0 0.00037027
19010.0 0.00036866
19030.0 0.00036716
19050.0 0.00036565
19070.0 0.00036408
19090.0 0.00036253
19110.0 0.00036104
19130.0 0.00035947
19150.0 0.00035788
19170.0 0.00035635
19190.0 0.00035482
19210.0 0.00035321
19230.0 0.00035164
19250.0 0.00035013
19270.0 0.00034856
19290.0 0.00034697
19310.0 0.00034544
19330.0 0.00034389
19350.0 0.00034225
19370.0 0.00034068
19390.0 0.00033914
19410.0 0.00033754
19430.0 0.00033593
19450.0 0.00033439
19470.0 0.00033282
19490.0 0.0003312
19510.0 0.00032962
19530.0 0.00032807
19550.0 0.00032644
19570.0 0.0003248
19590.0 0.00032325
19610.0 0.00032166
19630.0 0.00032003
19650.0 0.00031844
19670.0 0.00031688
19690.0 0.00031524
19710.0 0.00031361
19730.0 0.00031204
19750.0 0.00031043
19770.0 0.00030876
19790.0 0.00030716
19810.0 0.00030559
19830.0 0.00030395
19850.0 0.00030232
19870.0 0.00030077
19890.0 0.00029917
19910.0 0.00029756
19930.0 0.00029608
19950.0 0.00029468
19970.0 0.00029335
19990.0 0.00029218
20010.0 0.00029123
20030.0 0.00029041
20050.0 0.00028974
20070.0 0.00028924
20090.0 0.00028884
20110.0 0.00028849
20130.0 0.00028821
20150.0 0.00028795
20170.0 0.00028769
20190.0 0.00028742
20210.0 0.00028714
20230.0 0.00028685
20250.0 0.00028652
20270.0 0.00028617
20290.0 0.00028581
20310.0 0.00028542
20330.0 0.00028498
20350.0 0.00028455
20370.0 0.00028409
20390.0 0.00028359
20410.0 0.00028309
20430.0 0.00028259
20450.0 0.00028204
20470.0 0.00028148
20490.0 0.00028094
20510.0 0.00028039
20530.0 0.00027983
20550.0 0.00027929
20570.0 0.00027878
20590.0 0.00027826
20610.0 0.00027775
20630.0 0.00027727
20650.0 0.0002768
20670.0 0.0002763
20690.0 0.00027584
20710.0 0.00027538
20730.0 0.0002749
20750.0 0.00027439
20770.0 0.00027389
20790.0 0.00027335
20810.0 0.00027275
20830.0 0.00027213
20850.0 0.00027148
20870.0 0.00027075
20890.0 0.00026996
20910.0 0.00026917
20930.0 0.00026832
20950.0 0.00026741
20970.0 0.0002665
20990.0 0.00026557
21010.0 0.00026458
21030.0 0.00026359
21050.0 0.00026262
21070.0 0.00026164
21090.0 0.00026063
21110.0 0.00025968
21130.0 0.00025875
21150.0 0.0002578
21170.0 0.00025688
21190.0 0.000256
21210.0 0.0002551
21230.0 0.00025417
21250.0 0.0002533
21270.0 0.00025242
21290.0 0.0002515
21310.0 0.00025057
21330.0 0.00024968
21350.0 0.00024873
21370.0 0.00024775
21390.0 0.00024677
21410.0 0.00024578
21430.0 0.00024469
21450.0 0.00024362
21470.0 0.00024255
21490.0 0.00024144
21510.0 0.00024028
21530.0 0.00023916
21550.0 0.00023801
21570.0 0.0002368
21590.0 0.00023562
21610.0 0.00023446
21630.0 0.00023326
21650.0 0.00023202
21670.0 0.00023088
21690.0 0.00022972
21710.0 0.00022854
21730.0 0.00022738
21750.0 0.00022628
21770.0 0.00022511
21790.0 0.00022396
21810.0 0.00022286
21830.0 0.00022175
21850.0 0.00022061
21870.0 0.0002195
21890.0 0.00021845
21910.0 0.00021734
21930.0 0.00021625
21950.0 0.00021521
21970.0 0.00021417
21990.0 0.00021309
22010.0 0.0002121
22030.0 0.00021115
22050.0 0.0002102
22070.0 0.0002093
22090.0 0.00020852
22110.0 0.00020776
22130.0 0.00020702
22150.0 0.00020637
22170.0 0.00020577
22190.0 0.00020519
22210.0 0.00020466
22230.0 0.00020421
22250.0 0.00020379
22270.0 0.00020339
22290.0 0.00020305
22310.0 0.00020274
22330.0 0.00020242
22350.0 0.00020213
22370.0 0.00020187
22390.0 0.00020161
22410.0 0.00020133
22430.0 0.00020108
22450.0 0.00020083
22470.0 0.00020056
22490.0 0.0002003
22510.0 0.00020005
22530.0 0.00019978
22550.0 0.00019949
22570.0 0.00019924
22590.0 0.00019898
22610.0 0.00019872
22630.0 0.00019847
22650.0 0.00019827
22670.0 0.00019807
22690.0 0.00019788
22710.0 0.00019775
22730.0 0.00019764
22750.0 0.00019754
22770.0 0.0001975
22790.0 0.00019752
22810.0 0.00019756
22830.0 0.00019764
22850.0 0.00019779
22870.0 0.00019797
22890.0 0.00019819
22910.0 0.00019845
22930.0 0.00019876
22950.0 0.0001991
22970.0 0.00019947
22990.0 0.00019989
23010.0 0.00020034
23030.0 0.00020082
23050.0 0.00020133
23070.0 0.00020188
23090.0 0.00020247
23110.0 0.00020293
23130.0 0.00020343
23150.0 0.00020397
23170.0 0.00020456
23190.0 0.00020521
23210.0 0.00020592
23230.0 0.00020669
23250.0 0.00020752
23270.0 0.00020841
23290.0 0.00020936
23310.0 0.00021038
23330.0 0.00021144
23350.0 0.00021254
23370.0 0.00021369
23390.0 0.00021487
23410.0 0.00021605
23430.0 0.00021725
23450.0 0.00021847
23470.0 0.00021967
23490.0 0.00022085
