#lamb flux
1010.0 8.4192e-05
1030.0 0.00011018
1050.0 0.00014312
1070.0 0.00018416
1090.0 0.00023551
1110.0 0.00029512
1130.0 0.00036284
1150.0 0.00044107
1170.0 0.00052951
1190.0 0.00062299
1210.0 0.0007231
1230.0 0.00083053
1250.0 0.00093993
1270.0 0.0010479
1290.0 0.0011576
1310.0 0.0012622
1330.0 0.0013553
1350.0 0.001438
1370.0 0.0015094
1390.0 0.0015632
1410.0 0.001598
1430.0 0.0016187
1450.0 0.0016223
1470.0 0.0016077
1490.0 0.0015796
1510.0 0.0015407
1530.0 0.0014876
1550.0 0.0014265
1570.0 0.0013626
1590.0 0.0012959
1610.0 0.0012266
1630.0 0.0011598
1650.0 0.0010963
1670.0 0.0010353
1690.0 0.00097846
1710.0 0.00092766
1730.0 0.00088219
1750.0 0.00084069
1770.0 0.00080536
1790.0 0.00077577
1810.0 0.00075075
1830.0 0.00073047
1850.0 0.00071598
1870.0 0.00070554
1890.0 0.00069889
1910.0 0.00069665
1930.0 0.00069866
1950.0 0.00070372
1970.0 0.0007122
1990.0 0.00072464
2010.0 0.00074015
2030.0 0.00075835
2050.0 0.00078004
2070.0 0.00080508
2090.0 0.00083215
2110.0 0.00086193
2130.0 0.00089479
2150.0 0.00092991
2170.0 0.00096674
2190.0 0.0010064
2210.0 0.0010483
2230.0 0.0010915
2250.0 0.0011364
2270.0 0.0011837
2290.0 0.0012319
2310.0 0.0012806
2330.0 0.0013309
2350.0 0.0013822
2370.0 0.0014333
2390.0 0.0014848
2410.0 0.0015374
2430.0 0.0015891
2450.0 0.0016402
2470.0 0.0016921
2490.0 0.0017456
2510.0 0.0018005
2530.0 0.0018616
2550.0 0.0019354
2570.0 0.002027
2590.0 0.0021433
2610.0 0.0023064
2630.0 0.002525
2650.0 0.0027981
2670.0 0.0031432
2690.0 0.0035725
2710.0 0.0040544
2730.0 0.0045699
2750.0 0.0051345
2770.0 0.0056946
2790.0 0.0062043
2810.0 0.0066665
2830.0 0.0070779
2850.0 0.0073868
2870.0 0.0076248
2890.0 0.0078158
2910.0 0.0079612
2930.0 0.0080654
2950.0 0.0081556
2970.0 0.0082341
2990.0 0.0082939
3010.0 0.0083426
3030.0 0.0083908
3050.0 0.0084323
3070.0 0.0084569
3090.0 0.0084815
3110.0 0.0085066
3130.0 0.0085319
3150.0 0.0084746
3170.0 0.0084904
3190.0 0.0085644
3210.0 0.0087349
3230.0 0.0090815
3250.0 0.0097801
3270.0 0.010736
3290.0 0.011771
3310.0 0.012913
3330.0 0.013218
3350.0 0.013303
3370.0 0.013385
3390.0 0.013454
3410.0 0.013466
3430.0 0.013434
3450.0 0.013384
3470.0 0.013346
3490.0 0.013215
3510.0 0.012733
3530.0 0.011633
3550.0 0.010909
3570.0 0.011969
3590.0 0.013848
3610.0 0.015311
3630.0 0.017385
3650.0 0.017055
3670.0 0.014796
3690.0 0.012689
3710.0 0.011867
3730.0 0.012204
3750.0 0.01247
3770.0 0.012824
3790.0 0.013213
3810.0 0.013639
3830.0 0.012607
3850.0 0.011238
3870.0 0.010546
3890.0 0.011126
3910.0 0.0115
3930.0 0.011553
3950.0 0.012225
3970.0 0.01302
3990.0 0.013172
4010.0 0.013368
4030.0 0.012926
4050.0 0.012586
4070.0 0.012376
4090.0 0.012486
4110.0 0.012658
4130.0 0.012377
4150.0 0.011922
4170.0 0.011779
4190.0 0.011649
4210.0 0.010861
4230.0 0.010032
4250.0 0.009071
4270.0 0.0082293
4290.0 0.0079595
4310.0 0.0078702
4330.0 0.0081252
4350.0 0.0089691
4370.0 0.0093894
4390.0 0.010368
4410.0 0.01116
4430.0 0.01146
4450.0 0.010643
4470.0 0.0097617
4490.0 0.0095286
4510.0 0.009378
4530.0 0.0093943
4550.0 0.0093909
4570.0 0.0095557
4590.0 0.0099304
4610.0 0.010188
4630.0 0.01043
4650.0 0.010547
4670.0 0.010499
4690.0 0.0099129
4710.0 0.0093533
4730.0 0.0089086
4750.0 0.008681
4770.0 0.0084235
4790.0 0.0084767
4810.0 0.0083305
4830.0 0.0077925
4850.0 0.0084262
4870.0 0.0079461
4890.0 0.0081653
4910.0 0.0083213
4930.0 0.0079035
4950.0 0.0067839
4970.0 0.0063761
4990.0 0.0060174
5010.0 0.0056287
5030.0 0.0056371
5050.0 0.0060724
5070.0 0.0062012
5090.0 0.0065032
5110.0 0.0065754
5130.0 0.0065183
5150.0 0.0066272
5170.0 0.0063586
5190.0 0.0063112
5210.0 0.0064363
5230.0 0.0061629
5250.0 0.006295
5270.0 0.0066122
5290.0 0.0064987
5310.0 0.0061377
5330.0 0.0059564
5350.0 0.0055843
5370.0 0.00548
5390.0 0.0054396
5410.0 0.0052699
5430.0 0.0053806
5450.0 0.0051741
5470.0 0.0051889
5490.0 0.0057266
5510.0 0.0058031
5530.0 0.0058203
5550.0 0.005785
5570.0 0.0058821
5590.0 0.0059104
5610.0 0.0058491
5630.0 0.0057847
5650.0 0.0057148
5670.0 0.0055798
5690.0 0.0054787
5710.0 0.0053277
5730.0 0.0054329
5750.0 0.00524
5770.0 0.0049662
5790.0 0.0047966
5810.0 0.0044387
5830.0 0.0046336
5850.0 0.0048233
5870.0 0.0048176
5890.0 0.0048524
5910.0 0.0050527
5930.0 0.0050289
5950.0 0.0050503
5970.0 0.0050454
5990.0 0.0050966
6010.0 0.0049691
6030.0 0.0048966
6050.0 0.0048509
6070.0 0.0047567
6090.0 0.0048129
6110.0 0.0047622
6130.0 0.0046065
6150.0 0.0044989
6170.0 0.0044011
6190.0 0.0040669
6210.0 0.0040003
6230.0 0.0040462
6250.0 0.0040063
6270.0 0.0039765
6290.0 0.0040731
6310.0 0.0041955
6330.0 0.0041807
6350.0 0.0040876
6370.0 0.0040926
6390.0 0.0039451
6410.0 0.0039205
6430.0 0.0038044
6450.0 0.0037895
6470.0 0.0037795
6490.0 0.0037792
6510.0 0.0036498
6530.0 0.0036177
6550.0 0.0035648
6570.0 0.0034784
6590.0 0.0035498
6610.0 0.0035506
6630.0 0.0034754
6650.0 0.0033498
6670.0 0.0032935
6690.0 0.0032343
6710.0 0.0031458
6730.0 0.0031026
6750.0 0.0031256
6770.0 0.0032128
6790.0 0.0032335
6810.0 0.0031958
6830.0 0.003025
6850.0 0.0028576
6870.0 0.0028122
6890.0 0.0027955
6910.0 0.0027863
6930.0 0.0027561
6950.0 0.0027806
6970.0 0.0027011
6990.0 0.0026661
7010.0 0.0026778
7030.0 0.0027112
7050.0 0.0026628
7070.0 0.0025143
7090.0 0.0024125
7110.0 0.0024111
7130.0 0.0024418
7150.0 0.0024534
7170.0 0.0024435
7190.0 0.0023931
7210.0 0.0024952
7230.0 0.0025832
7250.0 0.0025817
7270.0 0.0025885
7290.0 0.0026354
7310.0 0.0025762
7330.0 0.0025118
7350.0 0.0024198
7370.0 0.0024313
7390.0 0.0024828
7410.0 0.0023429
7430.0 0.0023613
7450.0 0.0023402
7470.0 0.0024182
7490.0 0.0023984
7510.0 0.0022902
7530.0 0.0023347
7550.0 0.0021545
7570.0 0.0020806
7590.0 0.0020824
7610.0 0.0021539
7630.0 0.0021658
7650.0 0.0022443
7670.0 0.0020881
7690.0 0.002027
7710.0 0.002126
7730.0 0.002247
7750.0 0.0022132
7770.0 0.0023011
7790.0 0.0023011
7810.0 0.0023076
7830.0 0.0024462
7850.0 0.0023551
7870.0 0.0024803
7890.0 0.0024082
7910.0 0.0023736
7930.0 0.0022819
7950.0 0.0022616
7970.0 0.0023129
7990.0 0.0022398
8010.0 0.0021582
8030.0 0.0021363
8050.0 0.0020935
8070.0 0.0020535
8090.0 0.0018987
8110.0 0.0019063
8130.0 0.0020259
8150.0 0.0020986
8170.0 0.0021128
8190.0 0.002173
8210.0 0.0021335
8230.0 0.0020864
8250.0 0.002081
8270.0 0.0020412
8290.0 0.0019994
8310.0 0.0019028
8330.0 0.001906
8350.0 0.0019299
8370.0 0.001942
8390.0 0.0019409
8410.0 0.0019138
8430.0 0.0018905
8450.0 0.0018903
8470.0 0.0019544
8490.0 0.0019771
8510.0 0.001905
8530.0 0.0018346
8550.0 0.0018307
8570.0 0.0017897
8590.0 0.0017523
8610.0 0.0017852
8630.0 0.00178
8650.0 0.001762
8670.0 0.0017495
8690.0 0.001731
8710.0 0.0016532
8730.0 0.0016598
8750.0 0.0016182
8770.0 0.0016233
8790.0 0.0015985
8810.0 0.0015598
8830.0 0.0015669
8850.0 0.0015632
8870.0 0.00149
8890.0 0.001441
8910.0 0.0013873
8930.0 0.0013143
8950.0 0.0012869
8970.0 0.0012322
8990.0 0.0012142
9010.0 0.001177
9030.0 0.0011646
9050.0 0.0011572
9070.0 0.0011501
9090.0 0.0011428
9110.0 0.0011354
9130.0 0.001128
9150.0 0.0011207
9170.0 0.0011134
9190.0 0.001106
9210.0 0.0010985
9230.0 0.001091
9250.0 0.0010835
9270.0 0.001076
9290.0 0.0010684
9310.0 0.0010609
9330.0 0.0010536
9350.0 0.0010462
9370.0 0.0010388
9390.0 0.0010315
9410.0 0.0010241
9430.0 0.0010167
9450.0 0.0010093
9470.0 0.0010027
9490.0 0.00099566
9510.0 0.00098797
9530.0 0.00098039
9550.0 0.00097297
9570.0 0.00096565
9590.0 0.00095837
9610.0 0.00095125
9630.0 0.00094422
9650.0 0.00093721
9670.0 0.00093021
9690.0 0.00092328
9710.0 0.00091641
9730.0 0.00090954
9750.0 0.00090272
9770.0 0.00089602
9790.0 0.00088931
9810.0 0.00088263
9830.0 0.00087601
9850.0 0.00086884
9870.0 0.0008617
9890.0 0.00085582
9910.0 0.00084981
9930.0 0.00084259
9950.0 0.00083632
9970.0 0.00083064
9990.0 0.00082481
10010.0 0.00081902
10030.0 0.00081315
10050.0 0.00080723
10070.0 0.0008014
10090.0 0.00079565
10110.0 0.00078986
10130.0 0.00078415
10150.0 0.00077858
10170.0 0.00077306
10190.0 0.00076754
10210.0 0.00076217
10230.0 0.00075688
10250.0 0.0007516
10270.0 0.0007464
10290.0 0.00074133
10310.0 0.00073627
10330.0 0.00073124
10350.0 0.00072635
10370.0 0.00072153
10390.0 0.0007167
10410.0 0.00071166
10430.0 0.00070666
10450.0 0.00070244
10470.0 0.00069807
10490.0 0.00069378
10510.0 0.00068953
10530.0 0.00068518
10550.0 0.00068094
10570.0 0.00067685
10590.0 0.00067274
10610.0 0.00066866
10630.0 0.00066474
10650.0 0.00066087
10670.0 0.00065695
10690.0 0.00065316
10710.0 0.00064949
10730.0 0.00064581
10750.0 0.00064212
10770.0 0.00063864
10790.0 0.00063518
10810.0 0.00063171
10830.0 0.00062835
10850.0 0.00062512
10870.0 0.0006218
10890.0 0.00061854
10910.0 0.00061543
10930.0 0.00061235
10950.0 0.00060922
10970.0 0.00060618
10990.0 0.00060325
11010.0 0.00067984
11030.0 0.00067612
11050.0 0.00067211
11070.0 0.00066774
11090.0 0.00066292
11110.0 0.00065808
11130.0 0.00065317
11150.0 0.00064804
11170.0 0.00064283
11190.0 0.00063778
11210.0 0.00063261
11230.0 0.00062734
11250.0 0.00062225
11270.0 0.0006173
11290.0 0.00061228
11310.0 0.00060742
11330.0 0.00060297
11350.0 0.00059862
11370.0 0.00059441
11390.0 0.00059056
11410.0 0.00058697
11430.0 0.00058342
11450.0 0.00058013
11470.0 0.00057709
11490.0 0.00057412
11510.0 0.00057117
11530.0 0.0005684
11550.0 0.0005657
11570.0 0.0005629
11590.0 0.00056011
11610.0 0.00055738
11630.0 0.0005545
11650.0 0.00055149
11670.0 0.00054854
11690.0 0.00054554
11710.0 0.00054236
11730.0 0.00053915
11750.0 0.00053602
11770.0 0.00053273
11790.0 0.00052936
11810.0 0.00052609
11830.0 0.00052284
11850.0 0.00051942
11870.0 0.00051618
11890.0 0.00051313
11910.0 0.00051007
11930.0 0.00050711
11950.0 0.00050443
11970.0 0.00050189
11990.0 0.00049943
12010.0 0.00049726
12030.0 0.00049535
12050.0 0.00049361
12070.0 0.00049206
12090.0 0.00049085
12110.0 0.00048983
12130.0 0.00048898
12150.0 0.00048835
12170.0 0.00048791
12190.0 0.00048756
12210.0 0.00048733
12230.0 0.00048719
12250.0 0.00048706
12270.0 0.00048689
12290.0 0.00048667
12310.0 0.00048638
12330.0 0.00048591
12350.0 0.00048525
12370.0 0.00048444
12390.0 0.00048339
12410.0 0.00048199
12430.0 0.00048044
12450.0 0.00047866
12470.0 0.00047655
12490.0 0.00047418
12510.0 0.0004717
12530.0 0.00046892
12550.0 0.00046583
12570.0 0.00046266
12590.0 0.00045937
12610.0 0.00045577
12630.0 0.00045203
12650.0 0.00044842
12670.0 0.00044462
12690.0 0.00044069
12710.0 0.00043688
12730.0 0.00043313
12750.0 0.00042917
12770.0 0.00042537
12790.0 0.00042177
12810.0 0.00041818
12830.0 0.00041462
12850.0 0.00041137
12870.0 0.00040829
12890.0 0.00040526
12910.0 0.00040248
12930.0 0.00039998
12950.0 0.0003976
12970.0 0.00039543
12990.0 0.00039362
13010.0 0.00039205
13030.0 0.0003907
13050.0 0.00038963
13070.0 0.00038883
13090.0 0.00038822
13110.0 0.0003878
13130.0 0.00038756
13150.0 0.00038743
13170.0 0.00038737
13190.0 0.00038734
13210.0 0.00038729
13230.0 0.00038718
13250.0 0.00038696
13270.0 0.00038662
13290.0 0.00038614
13310.0 0.00038544
13330.0 0.00038458
13350.0 0.00038353
13370.0 0.00038225
13390.0 0.00038071
13410.0 0.00037906
13430.0 0.00037717
13450.0 0.00037501
13470.0 0.0003727
13490.0 0.00037027
13510.0 0.00036751
13530.0 0.0003646
13550.0 0.00036165
13570.0 0.00035854
13590.0 0.00035522
13610.0 0.0003519
13630.0 0.00034858
13650.0 0.00034506
13670.0 0.00034149
13690.0 0.00033799
13710.0 0.00033441
13730.0 0.00033062
13750.0 0.00032701
13770.0 0.00032342
13790.0 0.00031972
13810.0 0.00031604
13830.0 0.00031253
13850.0 0.00030895
13870.0 0.00030533
13890.0 0.00030189
13910.0 0.00029853
13930.0 0.00029511
13950.0 0.00029179
13970.0 0.00028872
13990.0 0.00028564
14010.0 0.00028262
14030.0 0.00027979
14050.0 0.00027707
14070.0 0.00027434
14090.0 0.00027177
14110.0 0.00026938
14130.0 0.00026703
14150.0 0.00026474
14170.0 0.00026263
14190.0 0.0002606
14210.0 0.00025858
14230.0 0.00025665
14250.0 0.00025483
14270.0 0.00025299
14290.0 0.00025117
14310.0 0.00024947
14330.0 0.00024779
14350.0 0.00024611
14370.0 0.00024448
14390.0 0.00024294
14410.0 0.00024138
14430.0 0.00023984
14450.0 0.00023838
14470.0 0.00023695
14490.0 0.00023549
14510.0 0.0002341
14530.0 0.00023275
14550.0 0.00023138
14570.0 0.00023
14590.0 0.00022868
14610.0 0.00022733
14630.0 0.00022594
14650.0 0.00022457
14670.0 0.00022322
14690.0 0.00022181
14710.0 0.00022038
14730.0 0.000219
14750.0 0.00021758
14770.0 0.00021611
14790.0 0.00021465
14810.0 0.0002132
14830.0 0.00021166
14850.0 0.0002101
14870.0 0.00020858
14890.0 0.00020702
14910.0 0.00020544
14930.0 0.00020391
14950.0 0.00020246
14970.0 0.00020102
14990.0 0.00019968
15010.0 0.00019847
15030.0 0.00019734
15050.0 0.00019628
15070.0 0.00019534
15090.0 0.00019445
15110.0 0.00019358
15130.0 0.00019274
15150.0 0.00019194
15170.0 0.00019112
15190.0 0.0001903
15210.0 0.0001895
15230.0 0.0001887
15250.0 0.00018788
15270.0 0.00018707
15290.0 0.00018628
15310.0 0.00018547
15330.0 0.00018467
15350.0 0.00018387
15370.0 0.00018308
15390.0 0.00018227
15410.0 0.00018147
15430.0 0.00018068
15450.0 0.00017989
15470.0 0.00017908
15490.0 0.0001783
15510.0 0.00017752
15530.0 0.00017672
15550.0 0.00017593
15570.0 0.00017516
15590.0 0.00017437
15610.0 0.00017357
15630.0 0.0001728
15650.0 0.00017202
15670.0 0.00017123
15690.0 0.00017045
15710.0 0.00016969
15730.0 0.00016891
15750.0 0.00016813
15770.0 0.00016737
15790.0 0.0001666
15810.0 0.00016582
15830.0 0.00016506
15850.0 0.0001643
15870.0 0.00016354
15890.0 0.00016277
15910.0 0.00016202
15930.0 0.00016127
15950.0 0.0001605
15970.0 0.00015975
15990.0 0.00015901
16010.0 0.00015826
16030.0 0.0001575
16050.0 0.00015677
16070.0 0.00015603
16090.0 0.00015528
16110.0 0.00015455
16130.0 0.00015383
16150.0 0.00015308
16170.0 0.00015234
16190.0 0.00015162
16210.0 0.0001509
16230.0 0.00015016
16250.0 0.00014945
16270.0 0.00014874
16290.0 0.00014802
16310.0 0.0001473
16330.0 0.0001466
16350.0 0.00014589
16370.0 0.00014517
16390.0 0.00014448
16410.0 0.00014378
16430.0 0.00014308
16450.0 0.00014239
16470.0 0.00014171
16490.0 0.00014102
16510.0 0.00014032
16530.0 0.00013965
16550.0 0.00013897
16570.0 0.00013829
16590.0 0.00013761
16610.0 0.00013695
16630.0 0.00013628
16650.0 0.00013561
16670.0 0.00013496
16690.0 0.00013431
16710.0 0.00013364
16730.0 0.00013299
16750.0 0.00013235
16770.0 0.00013171
16790.0 0.00013106
16810.0 0.00013043
16830.0 0.0001298
16850.0 0.00012916
16870.0 0.00012853
16890.0 0.00012792
16910.0 0.00012729
16930.0 0.00012667
16950.0 0.00012606
16970.0 0.00012545
16990.0 0.00012484
17010.0 0.00012424
17030.0 0.00012365
17050.0 0.00012305
17070.0 0.00012245
17090.0 0.00012187
17110.0 0.00012129
17130.0 0.00012069
17150.0 0.00012011
17170.0 0.00011955
17190.0 0.00011897
17210.0 0.0001184
17230.0 0.00011785
17250.0 0.00011729
17270.0 0.00011672
17290.0 0.00011617
17310.0 0.00011563
17330.0 0.00011508
17350.0 0.00011453
17370.0 0.000114
17390.0 0.00011347
17410.0 0.00011293
17430.0 0.0001124
17450.0 0.00011189
17470.0 0.00011135
17490.0 0.00011083
17510.0 0.00011033
17530.0 0.00010982
17550.0 0.0001093
17570.0 0.0001088
17590.0 0.00010831
17610.0 0.00010781
17630.0 0.00010731
17650.0 0.00010683
17670.0 0.00010635
17690.0 0.00010585
17710.0 0.00010538
17730.0 0.00010491
17750.0 0.00010443
17770.0 0.00010396
17790.0 0.0001035
17810.0 0.00010304
17830.0 0.00010257
17850.0 0.00010212
17870.0 0.00010167
17890.0 0.00010121
17910.0 0.00010076
17930.0 0.00010033
17950.0 9.9887e-05
17970.0 9.9444e-05
17990.0 9.9018e-05
18010.0 9.8593e-05
18030.0 9.8151e-05
18050.0 9.7726e-05
18070.0 9.7312e-05
18090.0 9.689e-05
18110.0 9.6466e-05
18130.0 9.6062e-05
18150.0 9.5657e-05
18170.0 9.5242e-05
18190.0 9.4839e-05
18210.0 9.4446e-05
18230.0 9.404e-05
18250.0 9.3634e-05
18270.0 9.3249e-05
18290.0 9.2861e-05
18310.0 9.2465e-05
18330.0 9.2082e-05
18350.0 9.171e-05
18370.0 9.1323e-05
18390.0 9.094e-05
18410.0 9.0572e-05
18430.0 9.0201e-05
18450.0 8.9817e-05
18470.0 8.9451e-05
18490.0 8.9095e-05
18510.0 8.8727e-05
18530.0 8.8362e-05
18550.0 8.8014e-05
18570.0 8.7657e-05
18590.0 8.7291e-05
18610.0 8.6942e-05
18630.0 8.6598e-05
18650.0 8.6243e-05
18670.0 8.589e-05
18690.0 8.5558e-05
18710.0 8.5216e-05
18730.0 8.4869e-05
18750.0 8.4535e-05
18770.0 8.4208e-05
18790.0 8.386e-05
18810.0 8.3523e-05
18830.0 8.3201e-05
18850.0 8.2871e-05
18870.0 8.2535e-05
18890.0 8.2216e-05
18910.0 8.1899e-05
18930.0 8.1568e-05
18950.0 8.1245e-05
18970.0 8.0934e-05
18990.0 8.0614e-05
19010.0 8.0281e-05
19030.0 7.9975e-05
19050.0 7.9667e-05
19070.0 7.9347e-05
19090.0 7.9035e-05
19110.0 7.8738e-05
19130.0 7.8422e-05
19150.0 7.8107e-05
19170.0 7.7806e-05
19190.0 7.7504e-05
19210.0 7.7189e-05
19230.0 7.6883e-05
19250.0 7.6593e-05
19270.0 7.6288e-05
19290.0 7.5982e-05
19310.0 7.5691e-05
19330.0 7.5397e-05
19350.0 7.5084e-05
19370.0 7.4787e-05
19390.0 7.4498e-05
19410.0 7.4198e-05
19430.0 7.3895e-05
19450.0 7.3611e-05
19470.0 7.332e-05
19490.0 7.3018e-05
19510.0 7.2727e-05
19530.0 7.2444e-05
19550.0 7.2143e-05
19570.0 7.1841e-05
19590.0 7.1559e-05
19610.0 7.127e-05
19630.0 7.0971e-05
19650.0 7.0684e-05
19670.0 7.0405e-05
19690.0 7.0106e-05
19710.0 6.9811e-05
19730.0 6.9528e-05
19750.0 6.9239e-05
19770.0 6.8935e-05
19790.0 6.8649e-05
19810.0 6.8368e-05
19830.0 6.8073e-05
19850.0 6.7781e-05
19870.0 6.7505e-05
19890.0 6.7219e-05
19910.0 6.693e-05
19930.0 6.6668e-05
19950.0 6.6425e-05
19970.0 6.6195e-05
19990.0 6.5998e-05
20010.0 6.5852e-05
20030.0 6.5734e-05
20050.0 6.5652e-05
20070.0 6.5611e-05
20090.0 6.5598e-05
20110.0 6.5603e-05
20130.0 6.5628e-05
20150.0 6.5667e-05
20170.0 6.5712e-05
20190.0 6.5762e-05
20210.0 6.5818e-05
20230.0 6.5875e-05
20250.0 6.593e-05
20270.0 6.5985e-05
20290.0 6.604e-05
20310.0 6.6089e-05
20330.0 6.6132e-05
20350.0 6.6175e-05
20370.0 6.6211e-05
20390.0 6.624e-05
20410.0 6.6264e-05
20430.0 6.6286e-05
20450.0 6.6298e-05
20470.0 6.6307e-05
20490.0 6.6315e-05
20510.0 6.6322e-05
20530.0 6.6323e-05
20550.0 6.6328e-05
20570.0 6.6338e-05
20590.0 6.6345e-05
20610.0 6.6355e-05
20630.0 6.6371e-05
20650.0 6.6388e-05
20670.0 6.6402e-05
20690.0 6.6421e-05
20710.0 6.644e-05
20730.0 6.6454e-05
20750.0 6.6463e-05
20770.0 6.647e-05
20790.0 6.6468e-05
20810.0 6.6451e-05
20830.0 6.6427e-05
20850.0 6.6392e-05
20870.0 6.6337e-05
20890.0 6.6266e-05
20910.0 6.619e-05
20930.0 6.6096e-05
20950.0 6.5984e-05
20970.0 6.5866e-05
20990.0 6.5741e-05
21010.0 6.5595e-05
21030.0 6.5445e-05
21050.0 6.5297e-05
21070.0 6.514e-05
21090.0 6.4971e-05
21110.0 6.4813e-05
21130.0 6.4656e-05
21150.0 6.449e-05
21170.0 6.4325e-05
21190.0 6.4167e-05
21210.0 6.3999e-05
21230.0 6.3822e-05
21250.0 6.3652e-05
21270.0 6.3477e-05
21290.0 6.3288e-05
21310.0 6.3092e-05
21330.0 6.29e-05
21350.0 6.2689e-05
21370.0 6.2463e-05
21390.0 6.2235e-05
21410.0 6.1998e-05
21430.0 6.1731e-05
21450.0 6.1462e-05
21470.0 6.1192e-05
21490.0 6.0901e-05
21510.0 6.0595e-05
21530.0 6.0293e-05
21550.0 5.9981e-05
21570.0 5.9645e-05
21590.0 5.931e-05
21610.0 5.8976e-05
21630.0 5.8626e-05
21650.0 5.8258e-05
21670.0 5.791e-05
21690.0 5.7552e-05
21710.0 5.7178e-05
21730.0 5.6807e-05
21750.0 5.6444e-05
21770.0 5.6055e-05
21790.0 5.5664e-05
21810.0 5.5282e-05
21830.0 5.4892e-05
21850.0 5.4483e-05
21870.0 5.4081e-05
21890.0 5.3686e-05
21910.0 5.3272e-05
21930.0 5.2854e-05
21950.0 5.2448e-05
21970.0 5.2035e-05
21990.0 5.1604e-05
22010.0 5.1192e-05
22030.0 5.0788e-05
22050.0 5.0376e-05
22070.0 4.997e-05
22090.0 4.9585e-05
22110.0 4.92e-05
22130.0 4.8816e-05
22150.0 4.8451e-05
22170.0 4.8099e-05
22190.0 4.7745e-05
22210.0 4.7403e-05
22230.0 4.7083e-05
22250.0 4.6765e-05
22270.0 4.645e-05
22290.0 4.6148e-05
22310.0 4.5854e-05
22330.0 4.5554e-05
22350.0 4.5261e-05
22370.0 4.4974e-05
22390.0 4.4683e-05
22410.0 4.4386e-05
22430.0 4.4095e-05
22450.0 4.3801e-05
22470.0 4.3498e-05
22490.0 4.3193e-05
22510.0 4.2889e-05
22530.0 4.2574e-05
22550.0 4.2252e-05
22570.0 4.1932e-05
22590.0 4.1607e-05
22610.0 4.1275e-05
22630.0 4.094e-05
22650.0 4.0609e-05
22670.0 4.0271e-05
22690.0 3.9929e-05
22710.0 3.9591e-05
22730.0 3.9252e-05
22750.0 3.8907e-05
22770.0 3.8567e-05
22790.0 3.823e-05
22810.0 3.789e-05
22830.0 3.7551e-05
22850.0 3.7215e-05
22870.0 3.6879e-05
22890.0 3.6541e-05
22910.0 3.6203e-05
22930.0 3.5866e-05
22950.0 3.5525e-05
22970.0 3.518e-05
22990.0 3.4835e-05
23010.0 3.4485e-05
23030.0 3.4129e-05
23050.0 3.3768e-05
23070.0 3.3403e-05
23090.0 3.303e-05
