#lamb flux
1010.0 2.6252e-07
1030.0 2.8976e-07
1050.0 3.2109e-07
1070.0 3.5635e-07
1090.0 3.9641e-07
1110.0 4.375e-07
1130.0 4.7886e-07
1150.0 5.2218e-07
1170.0 5.6686e-07
1190.0 6.0923e-07
1210.0 6.5217e-07
1230.0 6.9655e-07
1250.0 7.4003e-07
1270.0 7.8225e-07
1290.0 8.2686e-07
1310.0 8.7145e-07
1330.0 9.142e-07
1350.0 9.5744e-07
1370.0 1.0021e-06
1390.0 1.0456e-06
1410.0 1.0878e-06
1430.0 1.132e-06
1450.0 1.1761e-06
1470.0 1.2188e-06
1490.0 1.2619e-06
1510.0 1.3075e-06
1530.0 1.3507e-06
1550.0 1.3932e-06
1570.0 1.4373e-06
1590.0 1.4814e-06
1610.0 1.5236e-06
1630.0 1.5671e-06
1650.0 1.6118e-06
1670.0 1.655e-06
1690.0 1.6976e-06
1710.0 1.742e-06
1730.0 1.7866e-06
1750.0 1.8286e-06
1770.0 1.8719e-06
1790.0 1.916e-06
1810.0 1.9589e-06
1830.0 2.001e-06
1850.0 2.0457e-06
1870.0 2.0893e-06
1890.0 2.1316e-06
1910.0 2.1747e-06
1930.0 2.2189e-06
1950.0 2.2612e-06
1970.0 2.3031e-06
1990.0 2.3466e-06
2010.0 2.3894e-06
2030.0 2.4308e-06
2050.0 2.4735e-06
2070.0 2.5173e-06
2090.0 2.5586e-06
2110.0 2.5999e-06
2130.0 2.6425e-06
2150.0 2.6842e-06
2170.0 2.7242e-06
2190.0 2.7657e-06
2210.0 2.8074e-06
2230.0 2.8474e-06
2250.0 2.8872e-06
2270.0 2.9289e-06
2290.0 2.9691e-06
2310.0 3.0077e-06
2330.0 3.0478e-06
2350.0 3.0889e-06
2370.0 3.1298e-06
2390.0 3.1742e-06
2410.0 3.227e-06
2430.0 3.2881e-06
2450.0 3.3616e-06
2470.0 3.4563e-06
2490.0 3.5761e-06
2510.0 3.7127e-06
2530.0 3.8775e-06
2550.0 4.0841e-06
2570.0 4.3414e-06
2590.0 4.6758e-06
2610.0 5.1764e-06
2630.0 5.89e-06
2650.0 6.8215e-06
2670.0 8.0239e-06
2690.0 9.4992e-06
2710.0 1.1071e-05
2730.0 1.2621e-05
2750.0 1.4144e-05
2770.0 1.5464e-05
2790.0 1.6508e-05
2810.0 1.7332e-05
2830.0 1.7971e-05
2850.0 1.8401e-05
2870.0 1.8712e-05
2890.0 1.8955e-05
2910.0 1.9145e-05
2930.0 1.9298e-05
2950.0 1.9443e-05
2970.0 1.9585e-05
2990.0 1.9718e-05
3010.0 0.00056553
3030.0 0.0005693
3050.0 0.00057294
3070.0 0.00057601
3090.0 0.00057861
3110.0 0.00058008
3130.0 0.00057964
3150.0 0.00057671
3170.0 0.00057019
3190.0 0.00056015
3210.0 0.00054754
3230.0 0.00053314
3250.0 0.00051885
3270.0 0.00050837
3290.0 0.00050229
3310.0 0.00050291
3330.0 0.00050984
3350.0 0.0005222
3370.0 0.00053998
3390.0 0.00056248
3410.0 0.00058702
3430.0 0.0006146
3450.0 0.00064637
3470.0 0.00068111
3490.0 0.00071795
3510.0 0.00075962
3530.0 0.00080431
3550.0 0.00084976
3570.0 0.00089739
3590.0 0.00094927
3610.0 0.0010031
3630.0 0.0010567
3650.0 0.0011123
3670.0 0.0011631
3690.0 0.0012009
3710.0 0.0012224
3730.0 0.0012219
3750.0 0.0012026
3770.0 0.0011998
3790.0 0.0011923
3810.0 0.0011432
3830.0 0.0011753
3850.0 0.0013458
3870.0 0.0014194
3890.0 0.0013827
3910.0 0.0013772
3930.0 0.0014295
3950.0 0.0014724
3970.0 0.0013643
3990.0 0.0011424
4010.0 0.0033386
4030.0 0.0040054
4050.0 0.0045912
4070.0 0.0040415
4090.0 0.0036687
4110.0 0.0032202
4130.0 0.0030232
4150.0 0.0032927
4170.0 0.0031738
4190.0 0.0033344
4210.0 0.0033383
4230.0 0.0035773
4250.0 0.0042436
4270.0 0.0043247
4290.0 0.0039623
4310.0 0.0040735
4330.0 0.0043018
4350.0 0.004878
4370.0 0.0055894
4390.0 0.0051627
4410.0 0.0037251
4430.0 0.0031183
4450.0 0.0028718
4470.0 0.0021662
4490.0 0.0024075
4510.0 0.0037798
4530.0 0.0043883
4550.0 0.0043811
4570.0 0.0048213
4590.0 0.0054578
4610.0 0.0076457
4630.0 0.010032
4650.0 0.010721
4670.0 0.0098717
4690.0 0.0094685
4710.0 0.0099912
4730.0 0.0093135
4750.0 0.0068839
4770.0 0.005011
4790.0 0.0047449
4810.0 0.0045707
4830.0 0.0042174
4850.0 0.0046194
4870.0 0.0061042
4890.0 0.0071832
4910.0 0.0062326
4930.0 0.0055702
4950.0 0.0061509
4970.0 0.0079125
4990.0 0.010721
5010.0 0.012351
5030.0 0.010787
5050.0 0.0072364
5070.0 0.0048027
5090.0 0.0038427
5110.0 0.0039154
5130.0 0.0045414
5150.0 0.0048747
5170.0 0.0047815
5190.0 0.0044466
5210.0 0.0046785
5230.0 0.004993
5250.0 0.005424
5270.0 0.0057633
5290.0 0.0063666
5310.0 0.0075146
5330.0 0.0083011
5350.0 0.008242
5370.0 0.0087113
5390.0 0.010089
5410.0 0.0099246
5430.0 0.008671
5450.0 0.0080349
5470.0 0.0086024
5490.0 0.010527
5510.0 0.013118
5530.0 0.015065
5550.0 0.014467
5570.0 0.013138
5590.0 0.011363
5610.0 0.010572
5630.0 0.010414
5650.0 0.0098723
5670.0 0.0093213
5690.0 0.0082469
5710.0 0.0080855
5730.0 0.0074874
5750.0 0.0051561
5770.0 0.0039882
5790.0 0.0045521
5810.0 0.0051042
5830.0 0.0064027
5850.0 0.0077005
5870.0 0.0085229
5890.0 0.0086165
5910.0 0.0084495
5930.0 0.0080464
5950.0 0.0082068
5970.0 0.0094422
5990.0 0.0087563
6010.0 0.0072838
6030.0 0.0061364
6050.0 0.0053568
6070.0 0.0054211
6090.0 0.0058967
6110.0 0.0065307
6130.0 0.006575
6150.0 0.005611
6170.0 0.0048739
6190.0 0.0055123
6210.0 0.0074106
6230.0 0.009855
6250.0 0.010679
6270.0 0.0092072
6290.0 0.0077616
6310.0 0.0060453
6330.0 0.0046093
6350.0 0.0041499
6370.0 0.0043632
6390.0 0.005058
6410.0 0.0062724
6430.0 0.0073486
6450.0 0.0084724
6470.0 0.0096079
6490.0 0.011589
6510.0 0.012961
6530.0 0.012783
6550.0 0.011581
6570.0 0.0097533
6590.0 0.0088373
6610.0 0.0075858
6630.0 0.006983
6650.0 0.0066287
6670.0 0.0063504
6690.0 0.005635
6710.0 0.0051627
6730.0 0.0035449
6750.0 0.0036085
6770.0 0.0040913
6790.0 0.0047921
6810.0 0.0042402
6830.0 0.0043616
6850.0 0.0040245
6870.0 0.0036826
6890.0 0.0034898
6910.0 0.0037744
6930.0 0.0035382
6950.0 0.0037025
6970.0 0.0038929
6990.0 0.0044075
7010.0 0.004417
7030.0 0.0045602
7050.0 0.004299
7070.0 0.0040326
7090.0 0.0040777
7110.0 0.0042163
7130.0 0.0045767
7150.0 0.0048988
7170.0 0.0054188
7190.0 0.0059417
7210.0 0.0057719
7230.0 0.0059244
7250.0 0.0063598
7270.0 0.0069108
7290.0 0.008246
7310.0 0.0089322
7330.0 0.0086115
7350.0 0.0077818
7370.0 0.0066565
7390.0 0.006493
7410.0 0.0070054
7430.0 0.0078108
7450.0 0.0084972
7470.0 0.0083345
7490.0 0.0074709
7510.0 0.008809
7530.0 0.0086336
7550.0 0.0078181
7570.0 0.0060084
7590.0 0.0039635
7610.0 0.0033548
7630.0 0.0038962
7650.0 0.0046615
7670.0 0.0059574
7690.0 0.0065618
7710.0 0.0067306
7730.0 0.0070359
7750.0 0.0080374
7770.0 0.0081778
7790.0 0.0075052
7810.0 0.0067522
7830.0 0.0070039
7850.0 0.0069074
7870.0 0.0063845
7890.0 0.005314
7910.0 0.00423
7930.0 0.004078
7950.0 0.0037129
7970.0 0.0034022
7990.0 0.0033517
8010.0 0.00046137
8030.0 0.00042924
8050.0 0.0004498
8070.0 0.0004999
8090.0 0.00060089
8110.0 0.00057514
8130.0 0.00036612
8150.0 0.00038019
8170.0 0.00023935
8190.0 0.00017104
8210.0 0.00036561
8230.0 0.00043382
8250.0 0.00023532
8270.0 0.00019151
8290.0 0.00028674
8310.0 0.00024652
8330.0 0.00015787
8350.0 0.00011985
8370.0 3.875e-05
8390.0 0.00013269
8410.0 0.00015144
8430.0 0.00018665
8450.0 0.00021497
8470.0 0.00033131
8490.0 0.00028979
8510.0 0.00024398
8530.0 0.00017687
8550.0 0.00040663
8570.0 0.00057341
8590.0 0.00046241
8610.0 0.00065535
8630.0 0.00074494
8650.0 0.0005502
8670.0 0.00069023
8690.0 0.00089232
8710.0 0.00077571
8730.0 0.00078871
8750.0 0.00064216
8770.0 0.00058317
8790.0 0.00061697
8810.0 0.00064295
8830.0 0.0004045
8850.0 0.00021518
8870.0 0.00015524
8890.0 0.00026501
8910.0 0.00038672
8930.0 0.00049877
8950.0 0.00053582
8970.0 0.00051855
8990.0 0.00039459
9010.0 0.0016814
9030.0 0.0014611
9050.0 0.0014765
9070.0 0.0014967
9090.0 0.0015139
9110.0 0.0015351
9130.0 0.001551
9150.0 0.0015627
9170.0 0.0015753
9190.0 0.0015886
9210.0 0.0016027
9230.0 0.0016176
9250.0 0.0016326
9270.0 0.0016481
9290.0 0.0016641
9310.0 0.0016801
9330.0 0.0016963
9350.0 0.0017131
9370.0 0.0017301
9390.0 0.0017471
9410.0 0.0017646
9430.0 0.0017826
9450.0 0.0018004
9470.0 0.0018186
9490.0 0.0018373
9510.0 0.0018561
9530.0 0.0018749
9550.0 0.0018945
9570.0 0.0019143
9590.0 0.0019341
9610.0 0.0019543
9630.0 0.001975
9650.0 0.0019958
9670.0 0.0020166
9690.0 0.002038
9710.0 0.0020597
9730.0 0.0020814
9750.0 0.0021034
9770.0 0.0021261
9790.0 0.0021487
9810.0 0.0021714
9830.0 0.0021946
9850.0 0.0022181
9870.0 0.0022414
9890.0 0.0022652
9910.0 0.0022894
9930.0 0.0023136
9950.0 0.0023378
9970.0 0.0023626
9990.0 0.0023877
10010.0 0.0020787
10030.0 0.0021004
10050.0 0.0021224
10070.0 0.0021448
10090.0 0.0021665
10110.0 0.0021887
10130.0 0.002211
10150.0 0.0022331
10170.0 0.0022555
10190.0 0.0022783
10210.0 0.0023008
10230.0 0.0023232
10250.0 0.002346
10270.0 0.0023687
10290.0 0.0023912
10310.0 0.002414
10330.0 0.002437
10350.0 0.0024596
10370.0 0.0024821
10390.0 0.0025049
10410.0 0.0025276
10430.0 0.0025498
10450.0 0.0025722
10470.0 0.0025948
10490.0 0.0026169
10510.0 0.0026388
10530.0 0.0026612
10550.0 0.0026832
10570.0 0.0027046
10590.0 0.0027262
10610.0 0.0027478
10630.0 0.0027688
10650.0 0.0027897
10670.0 0.0028108
10690.0 0.0028314
10710.0 0.0028516
10730.0 0.0028718
10750.0 0.0028921
10770.0 0.0029114
10790.0 0.0029307
10810.0 0.0029499
10830.0 0.0029685
10850.0 0.0029861
10870.0 0.0030034
10890.0 0.0030188
10910.0 0.003031
10930.0 0.0030388
10950.0 0.0030395
10970.0 0.0030308
10990.0 0.0030118
11010.0 0.0028301
11030.0 0.0027852
11050.0 0.0027304
11070.0 0.0026647
11090.0 0.0025856
11110.0 0.0025038
11130.0 0.0024186
11150.0 0.0023268
11170.0 0.0022322
11190.0 0.0021406
11210.0 0.002046
11230.0 0.0019492
11250.0 0.0018567
11270.0 0.0017679
11290.0 0.0016789
11310.0 0.0015947
11330.0 0.0015205
11350.0 0.0014505
11370.0 0.0013856
11390.0 0.0013295
11410.0 0.0012803
11430.0 0.0012345
11450.0 0.0011949
11470.0 0.0011606
11490.0 0.0011286
11510.0 0.0010978
11530.0 0.0010691
11550.0 0.0010406
11570.0 0.0010102
11590.0 0.00097883
11610.0 0.00094693
11630.0 0.00091229
11650.0 0.00087528
11670.0 0.00083883
11690.0 0.0008019
11710.0 0.00076385
11730.0 0.00072698
11750.0 0.00069285
11770.0 0.00065938
11790.0 0.00062798
11810.0 0.00060031
11830.0 0.00057551
11850.0 0.00055263
11870.0 0.00053343
11890.0 0.00051741
11910.0 0.00050329
11930.0 0.0004911
11950.0 0.0004809
11970.0 0.00047175
11990.0 0.0004631
12010.0 0.0004551
12030.0 0.00044739
12050.0 0.00043944
12070.0 0.00043121
12090.0 0.00042328
12110.0 0.00041523
12130.0 0.00040718
12150.0 0.00039973
12170.0 0.00039319
12190.0 0.00038748
12210.0 0.00038339
12230.0 0.00038124
12250.0 0.00038118
12270.0 0.00038369
12290.0 0.00038875
12310.0 0.00039618
12330.0 0.00040669
12350.0 0.00041991
12370.0 0.000435
12390.0 0.00045246
12410.0 0.00047295
12430.0 0.0004938
12450.0 0.0005154
12470.0 0.00053838
12490.0 0.00056146
12510.0 0.0005831
12530.0 0.00060463
12550.0 0.00062539
12570.0 0.00064369
12590.0 0.00065974
12610.0 0.00067401
12630.0 0.00068536
12650.0 0.00069313
12670.0 0.00069817
12690.0 0.00070009
12710.0 0.00069875
12730.0 0.00069451
12750.0 0.0006871
12770.0 0.000677
12790.0 0.00066479
12810.0 0.00065025
12830.0 0.00063347
12850.0 0.00061593
12870.0 0.0005974
12890.0 0.00057739
12910.0 0.00055706
12930.0 0.00053703
12950.0 0.00051616
12970.0 0.00049494
12990.0 0.00047487
13010.0 0.00045506
13030.0 0.00043505
13050.0 0.00041583
13070.0 0.00039783
13090.0 0.00037977
13110.0 0.0003623
13130.0 0.00034618
13150.0 0.00033091
13170.0 0.00031596
13190.0 0.00030263
13210.0 0.00029088
13230.0 0.00028013
13250.0 0.00027084
13270.0 0.00026348
13290.0 0.00025771
13310.0 0.00025368
13330.0 0.00025175
13350.0 0.00025179
13370.0 0.0002539
13390.0 0.00025819
13410.0 0.00026407
13430.0 0.00027177
13450.0 0.00028132
13470.0 0.00029197
13490.0 0.00030327
13510.0 0.00031604
13530.0 0.00032902
13550.0 0.00034147
13570.0 0.00035377
13590.0 0.00036578
13610.0 0.00037648
13630.0 0.00038585
13650.0 0.00039441
13670.0 0.00040155
13690.0 0.00040708
13710.0 0.00041138
13730.0 0.00041448
13750.0 0.00041606
13770.0 0.00041647
13790.0 0.00041577
13810.0 0.00041397
13830.0 0.00041129
13850.0 0.00040763
13870.0 0.000403
13890.0 0.0003977
13910.0 0.00039172
13930.0 0.00038479
13950.0 0.00037722
13970.0 0.00036948
13990.0 0.00036105
14010.0 0.00035209
14030.0 0.00034316
14050.0 0.00033415
14070.0 0.00032465
14090.0 0.00031554
14110.0 0.00030698
14130.0 0.00029868
14150.0 0.00029087
14170.0 0.00028419
14190.0 0.00027841
14210.0 0.00027351
14230.0 0.00026986
14250.0 0.00026749
14270.0 0.00026633
14290.0 0.00026653
14310.0 0.00026799
14330.0 0.00027063
14350.0 0.00027453
14370.0 0.00027941
14390.0 0.00028497
14410.0 0.00029152
14430.0 0.00029873
14450.0 0.0003061
14470.0 0.00031376
14490.0 0.00032191
14510.0 0.00032972
14530.0 0.00033715
14550.0 0.00034458
14570.0 0.00035172
14590.0 0.00035823
14610.0 0.00036453
14630.0 0.00037076
14650.0 0.00037656
14670.0 0.00038216
14690.0 0.00038799
14710.0 0.00039412
14730.0 0.00040024
14750.0 0.00040702
14770.0 0.00041471
14790.0 0.00042304
14810.0 0.00043208
14830.0 0.00044278
14850.0 0.00045443
14870.0 0.00046659
14890.0 0.00047972
14910.0 0.00049367
14930.0 0.0005071
14950.0 0.00051966
14970.0 0.00053156
14990.0 0.00054155
15010.0 0.00054922
15030.0 0.00055491
15050.0 0.00055871
15070.0 0.0005606
15090.0 0.00056132
15110.0 0.00056121
15130.0 0.00056058
15150.0 0.0005597
15170.0 0.00055866
15190.0 0.00055753
15210.0 0.00055642
15230.0 0.00055531
15250.0 0.00055416
15270.0 0.00055302
15290.0 0.00055195
15310.0 0.00055085
15330.0 0.00054973
15350.0 0.00054867
15370.0 0.00054761
15390.0 0.00054649
15410.0 0.00054542
15430.0 0.00054438
15450.0 0.00054332
15470.0 0.00054223
15490.0 0.00054121
15510.0 0.00054019
15530.0 0.00053913
15550.0 0.00053809
15570.0 0.0005371
15590.0 0.00053605
15610.0 0.000535
15630.0 0.00053401
15650.0 0.000533
15670.0 0.00053197
15690.0 0.00053097
15710.0 0.00053
15730.0 0.00052898
15750.0 0.00052797
15770.0 0.00052699
15790.0 0.00052601
15810.0 0.00052498
15830.0 0.00052399
15850.0 0.00052304
15870.0 0.00052204
15890.0 0.00052104
15910.0 0.00052009
15930.0 0.00051912
15950.0 0.0005181
15970.0 0.00051713
15990.0 0.00051618
16010.0 0.00051518
16030.0 0.00051417
16050.0 0.00051323
16070.0 0.00051227
16090.0 0.00051127
16110.0 0.0005103
16130.0 0.00050936
16150.0 0.00050834
16170.0 0.00050735
16190.0 0.0005064
16210.0 0.00050542
16230.0 0.00050441
16250.0 0.00050344
16270.0 0.00050249
16290.0 0.00050149
16310.0 0.00050049
16330.0 0.00049954
16350.0 0.00049855
16370.0 0.00049751
16390.0 0.00049654
16410.0 0.00049557
16430.0 0.00049455
16450.0 0.00049355
16470.0 0.00049259
16490.0 0.00049158
16510.0 0.00049054
16530.0 0.00048955
16550.0 0.00048856
16570.0 0.00048751
16590.0 0.00048648
16610.0 0.0004855
16630.0 0.00048448
16650.0 0.00048344
16670.0 0.00048243
16690.0 0.00048143
16710.0 0.00048035
16730.0 0.00047931
16750.0 0.00047829
16770.0 0.00047724
16790.0 0.00047616
16810.0 0.00047514
16830.0 0.00047411
16850.0 0.00047302
16870.0 0.00047196
16890.0 0.00047093
16910.0 0.00046984
16930.0 0.00046873
16950.0 0.00046768
16970.0 0.00046661
16990.0 0.0004655
17010.0 0.00046442
17030.0 0.00046337
17050.0 0.00046225
17070.0 0.00046113
17090.0 0.00046005
17110.0 0.00045895
17130.0 0.00045779
17150.0 0.00045668
17170.0 0.00045559
17190.0 0.00045446
17210.0 0.00045331
17230.0 0.00045222
17250.0 0.00045108
17270.0 0.0004499
17290.0 0.00044877
17310.0 0.00044764
17330.0 0.00044647
17350.0 0.00044528
17370.0 0.00044416
17390.0 0.000443
17410.0 0.00044181
17430.0 0.00044065
17450.0 0.0004395
17470.0 0.00043828
17490.0 0.00043708
17510.0 0.00043592
17530.0 0.00043472
17550.0 0.0004335
17570.0 0.00043231
17590.0 0.00043114
17610.0 0.0004299
17630.0 0.00042868
17650.0 0.0004275
17670.0 0.00042627
17690.0 0.00042499
17710.0 0.00042379
17730.0 0.00042258
17750.0 0.00042133
17770.0 0.00042009
17790.0 0.00041889
17810.0 0.00041762
17830.0 0.00041635
17850.0 0.00041511
17870.0 0.00041388
17890.0 0.00041258
17910.0 0.00041131
17930.0 0.00041008
17950.0 0.00040881
17970.0 0.00040752
17990.0 0.00040627
18010.0 0.00040501
18030.0 0.00040368
18050.0 0.0004024
18070.0 0.00040114
18090.0 0.00039984
18110.0 0.00039852
18130.0 0.00039726
18150.0 0.00039598
18170.0 0.00039465
18190.0 0.00039336
18210.0 0.00039208
18230.0 0.00039075
18250.0 0.00038941
18270.0 0.00038813
18290.0 0.00038682
18310.0 0.00038548
18330.0 0.00038417
18350.0 0.00038289
18370.0 0.00038154
18390.0 0.0003802
18410.0 0.0003789
18430.0 0.00037758
18450.0 0.0003762
18470.0 0.00037488
18490.0 0.00037358
18510.0 0.00037223
18530.0 0.00037088
18550.0 0.00036958
18570.0 0.00036824
18590.0 0.00036686
18610.0 0.00036553
18630.0 0.00036421
18650.0 0.00036285
18670.0 0.00036148
18690.0 0.00036017
18710.0 0.00035883
18730.0 0.00035745
18750.0 0.00035612
18770.0 0.0003548
18790.0 0.0003534
18810.0 0.00035204
18830.0 0.00035071
18850.0 0.00034936
18870.0 0.00034798
18890.0 0.00034664
18910.0 0.00034531
18930.0 0.00034393
18950.0 0.00034257
18970.0 0.00034124
18990.0 0.00033988
19010.0 0.00033847
19030.0 0.00033714
19050.0 0.0003358
19070.0 0.00033442
19090.0 0.00033306
19110.0 0.00033174
19130.0 0.00033036
19150.0 0.00032898
19170.0 0.00032764
19190.0 0.00032629
19210.0 0.0003249
19230.0 0.00032353
19250.0 0.00032221
19270.0 0.00032085
19290.0 0.00031947
19310.0 0.00031814
19330.0 0.0003168
19350.0 0.00031539
19370.0 0.00031404
19390.0 0.00031271
19410.0 0.00031134
19430.0 0.00030996
19450.0 0.00030864
19470.0 0.00030729
19490.0 0.00030591
19510.0 0.00030457
19530.0 0.00030324
19550.0 0.00030186
19570.0 0.00030048
19590.0 0.00029916
19610.0 0.00029782
19630.0 0.00029644
19650.0 0.00029511
19670.0 0.00029379
19690.0 0.00029242
19710.0 0.00029106
19730.0 0.00028974
19750.0 0.0002884
19770.0 0.00028701
19790.0 0.00028568
19810.0 0.00028437
19830.0 0.000283
19850.0 0.00028163
19870.0 0.00028029
19890.0 0.00027885
19910.0 0.00027727
19930.0 0.00027559
19950.0 0.00027366
19970.0 0.00027131
19990.0 0.00026849
20010.0 0.00023938
20030.0 0.00023588
20050.0 0.0002318
20070.0 0.00022738
20090.0 0.00022263
20110.0 0.00021726
20130.0 0.00021183
20150.0 0.00020646
20170.0 0.00020089
20190.0 0.00019524
20210.0 0.00018991
20230.0 0.00018471
20250.0 0.0001795
20270.0 0.00017466
20290.0 0.00017025
20310.0 0.00016605
20330.0 0.00016213
20350.0 0.00015887
20370.0 0.00015597
20390.0 0.00015343
20410.0 0.00015137
20430.0 0.00014978
20450.0 0.00014851
20470.0 0.00014766
20490.0 0.00014719
20510.0 0.00014704
20530.0 0.0001472
20550.0 0.00014763
20570.0 0.00014828
20590.0 0.00014916
20610.0 0.00015023
20630.0 0.00015141
20650.0 0.00015274
20670.0 0.00015426
20690.0 0.00015581
20710.0 0.00015742
20730.0 0.00015915
20750.0 0.00016096
20770.0 0.00016274
20790.0 0.00016461
20810.0 0.00016659
20830.0 0.00016855
20850.0 0.00017052
20870.0 0.00017263
20890.0 0.00017478
20910.0 0.00017685
20930.0 0.000179
20950.0 0.00018122
20970.0 0.00018339
20990.0 0.00018552
21010.0 0.00018777
21030.0 0.00018996
21050.0 0.00019205
21070.0 0.00019414
21090.0 0.00019624
21110.0 0.00019814
21130.0 0.00019993
21150.0 0.00020167
21170.0 0.00020323
21190.0 0.00020458
21210.0 0.00020579
21230.0 0.0002068
21250.0 0.00020751
21270.0 0.00020796
21290.0 0.00020812
21310.0 0.00020795
21330.0 0.00020745
21350.0 0.00020658
21370.0 0.00020531
21390.0 0.0002037
21410.0 0.00020173
21430.0 0.00019923
21450.0 0.00019643
21470.0 0.00019339
21490.0 0.00018994
21510.0 0.00018616
21530.0 0.00018232
21550.0 0.0001783
21570.0 0.00017402
21590.0 0.0001698
21610.0 0.00016573
21630.0 0.00016165
21650.0 0.00015766
21670.0 0.00015421
21690.0 0.00015102
21710.0 0.00014815
21730.0 0.0001458
21750.0 0.00014399
21770.0 0.0001426
21790.0 0.0001418
21810.0 0.00014157
21830.0 0.00014187
21850.0 0.00014274
21870.0 0.00014411
21890.0 0.00014587
21910.0 0.00014814
21930.0 0.00015081
21950.0 0.00015369
21970.0 0.00015689
21990.0 0.00016048
22010.0 0.00016407
22030.0 0.00016771
22050.0 0.00017154
22070.0 0.00017539
22090.0 0.00017903
22110.0 0.00018271
22130.0 0.00018638
22150.0 0.00018981
22170.0 0.00019304
22190.0 0.00019624
22210.0 0.00019922
22230.0 0.00020184
22250.0 0.00020431
22270.0 0.00020658
22290.0 0.00020852
22310.0 0.00021019
22330.0 0.00021165
22350.0 0.00021278
22370.0 0.00021358
22390.0 0.00021407
22410.0 0.00021422
22430.0 0.00021401
22450.0 0.00021345
22470.0 0.0002125
22490.0 0.00021115
22510.0 0.00020948
22530.0 0.00020735
22550.0 0.00020475
22570.0 0.00020187
22590.0 0.00019863
22610.0 0.0001949
22630.0 0.00019086
22650.0 0.00018669
22670.0 0.00018208
22690.0 0.00017715
22710.0 0.00017219
22730.0 0.00016707
22750.0 0.00016152
22770.0 0.0001561
22790.0 0.0001508
22810.0 0.00014537
22830.0 0.00013995
22850.0 0.00013487
22870.0 0.0001299
22890.0 0.00012495
22910.0 0.00012039
22930.0 0.00011621
22950.0 0.00011223
22970.0 0.00010855
22990.0 0.0001055
23010.0 0.00010279
