#lamb flux
1010.0 1.6169e-07
1030.0 1.7801e-07
1050.0 1.9677e-07
1070.0 2.179e-07
1090.0 2.4189e-07
1110.0 2.665e-07
1130.0 2.9127e-07
1150.0 3.1722e-07
1170.0 3.4398e-07
1190.0 3.6936e-07
1210.0 3.9508e-07
1230.0 4.2166e-07
1250.0 4.477e-07
1270.0 4.7298e-07
1290.0 4.997e-07
1310.0 5.264e-07
1330.0 5.5201e-07
1350.0 5.779e-07
1370.0 6.0463e-07
1390.0 6.3069e-07
1410.0 6.5597e-07
1430.0 6.824e-07
1450.0 7.0883e-07
1470.0 7.3436e-07
1490.0 7.6016e-07
1510.0 7.8742e-07
1530.0 8.1323e-07
1550.0 8.3869e-07
1570.0 8.6502e-07
1590.0 8.9136e-07
1610.0 9.1652e-07
1630.0 9.4244e-07
1650.0 9.6902e-07
1670.0 9.9471e-07
1690.0 1.02e-06
1710.0 1.0463e-06
1730.0 1.0727e-06
1750.0 1.0975e-06
1770.0 1.1229e-06
1790.0 1.1488e-06
1810.0 1.1738e-06
1830.0 1.1983e-06
1850.0 1.2242e-06
1870.0 1.2493e-06
1890.0 1.2734e-06
1910.0 1.2978e-06
1930.0 1.3228e-06
1950.0 1.3463e-06
1970.0 1.3693e-06
1990.0 1.393e-06
2010.0 1.416e-06
2030.0 1.4378e-06
2050.0 1.4601e-06
2070.0 1.4826e-06
2090.0 1.5032e-06
2110.0 1.5233e-06
2130.0 1.5436e-06
2150.0 1.563e-06
2170.0 1.5807e-06
2190.0 1.5987e-06
2210.0 1.6162e-06
2230.0 1.632e-06
2250.0 1.647e-06
2270.0 1.6623e-06
2290.0 1.6761e-06
2310.0 1.688e-06
2330.0 1.7e-06
2350.0 1.7116e-06
2370.0 1.7221e-06
2390.0 1.7333e-06
2410.0 1.7476e-06
2430.0 1.7645e-06
2450.0 1.786e-06
2470.0 1.8161e-06
2490.0 1.8567e-06
2510.0 1.9039e-06
2530.0 1.9639e-06
2550.0 2.0443e-06
2570.0 2.1503e-06
2590.0 2.2942e-06
2610.0 2.5173e-06
2630.0 2.8358e-06
2650.0 3.2437e-06
2670.0 3.7579e-06
2690.0 4.37e-06
2710.0 4.9962e-06
2730.0 5.5857e-06
2750.0 6.1382e-06
2770.0 6.585e-06
2790.0 6.9039e-06
2810.0 7.1243e-06
2830.0 7.2647e-06
2850.0 7.3221e-06
2870.0 7.3334e-06
2890.0 7.3188e-06
2910.0 7.2859e-06
2930.0 7.2411e-06
2950.0 7.1947e-06
2970.0 7.1487e-06
2990.0 7.1015e-06
3010.0 0.00022237
3030.0 0.00022104
3050.0 0.00021973
3070.0 0.00021831
3090.0 0.00021679
3110.0 0.00021495
3130.0 0.00021252
3150.0 0.00020933
3170.0 0.00020497
3190.0 0.00019953
3210.0 0.00019335
3230.0 0.00018669
3250.0 0.00017996
3270.0 0.00017492
3290.0 0.00017111
3310.0 0.00017021
3330.0 0.00017128
3350.0 0.00017426
3370.0 0.00017913
3390.0 0.00018564
3410.0 0.00019296
3430.0 0.00020135
3450.0 0.00021114
3470.0 0.00022197
3490.0 0.00023363
3510.0 0.00024693
3530.0 0.00026149
3550.0 0.00027715
3570.0 0.0002945
3590.0 0.000314
3610.0 0.00033583
3630.0 0.0003577
3650.0 0.00038094
3670.0 0.00040197
3690.0 0.00041769
3710.0 0.0004256
3730.0 0.00042093
3750.0 0.00040374
3770.0 0.0004102
3790.0 0.00039691
3810.0 0.00030226
3830.0 0.00028412
3850.0 0.00041084
3870.0 0.00037988
3890.0 0.00028916
3910.0 0.00030212
3930.0 0.00039764
3950.0 0.00047124
3970.0 0.00054712
3990.0 0.00039739
4010.0 0.00066831
4030.0 0.00061863
4050.0 0.00061605
4070.0 0.00071812
4090.0 0.00068655
4110.0 0.00063689
4130.0 0.00079996
4150.0 0.0010615
4170.0 0.00084344
4190.0 0.00073958
4210.0 0.00083308
4230.0 0.0010415
4250.0 0.0012323
4270.0 0.0013403
4290.0 0.0012046
4310.0 0.0011096
4330.0 0.0011057
4350.0 0.0014228
4370.0 0.0017279
4390.0 0.0013753
4410.0 0.00078273
4430.0 0.00055674
4450.0 0.00051246
4470.0 0.00034312
4490.0 0.00058357
4510.0 0.0011817
4530.0 0.0014353
4550.0 0.0013789
4570.0 0.0012513
4590.0 0.0013549
4610.0 0.0026347
4630.0 0.0036682
4650.0 0.0034457
4670.0 0.0030366
4690.0 0.0031636
4710.0 0.0033238
4730.0 0.0026797
4750.0 0.0017113
4770.0 0.0011962
4790.0 0.00134
4810.0 0.0014002
4830.0 0.0013877
4850.0 0.0015158
4870.0 0.0020074
4890.0 0.0023286
4910.0 0.0017947
4930.0 0.0017318
4950.0 0.0019977
4970.0 0.0026856
4990.0 0.0036154
5010.0 0.0041445
5030.0 0.0032773
5050.0 0.001972
5070.0 0.0014089
5090.0 0.0010899
5110.0 0.0010236
5130.0 0.0012137
5150.0 0.0011653
5170.0 0.0010971
5190.0 0.00098392
5210.0 0.0010771
5230.0 0.0013427
5250.0 0.0015693
5270.0 0.0014569
5290.0 0.0015856
5310.0 0.0021242
5330.0 0.0022455
5350.0 0.0022117
5370.0 0.0025062
5390.0 0.0031171
5410.0 0.0026488
5430.0 0.0020009
5450.0 0.0020219
5470.0 0.0023802
5490.0 0.0030125
5510.0 0.0036945
5530.0 0.0042756
5550.0 0.0038473
5570.0 0.0034367
5590.0 0.0028224
5610.0 0.0028766
5630.0 0.0032346
5650.0 0.0030133
5670.0 0.0027834
5690.0 0.0022511
5710.0 0.0023104
5730.0 0.0022533
5750.0 0.0011986
5770.0 0.00087258
5790.0 0.0010878
5810.0 0.0011696
5830.0 0.001809
5850.0 0.0023447
5870.0 0.0024878
5890.0 0.0023469
5910.0 0.0022711
5930.0 0.002206
5950.0 0.0022881
5970.0 0.0028342
5990.0 0.0023205
6010.0 0.0017757
6030.0 0.0014397
6050.0 0.0012829
6070.0 0.0015444
6090.0 0.0017566
6110.0 0.0017856
6130.0 0.0016205
6150.0 0.0012782
6170.0 0.001038
6190.0 0.001297
6210.0 0.00203
6230.0 0.0029447
6250.0 0.0031295
6270.0 0.0023878
6290.0 0.0020388
6310.0 0.0015572
6330.0 0.001138
6350.0 0.0011199
6370.0 0.0011779
6390.0 0.0014235
6410.0 0.0018261
6430.0 0.0022007
6450.0 0.0027175
6470.0 0.0028896
6490.0 0.0034832
6510.0 0.0039116
6530.0 0.0039473
6550.0 0.0036382
6570.0 0.0029885
6590.0 0.0028899
6610.0 0.0023987
6630.0 0.0024897
6650.0 0.0023989
6670.0 0.0021263
6690.0 0.0016863
6710.0 0.0016365
6730.0 0.00078669
6750.0 0.00099853
6770.0 0.0015125
6790.0 0.0020036
6810.0 0.0014584
6830.0 0.0014906
6850.0 0.0012606
6870.0 0.0011945
6890.0 0.00102
6910.0 0.0012032
6930.0 0.0011287
6950.0 0.0013496
6970.0 0.0013825
6990.0 0.0015309
7010.0 0.0015064
7030.0 0.0016809
7050.0 0.0014527
7070.0 0.0012267
7090.0 0.0012928
7110.0 0.0013411
7130.0 0.0015295
7150.0 0.0017421
7170.0 0.0019426
7190.0 0.0020377
7210.0 0.0017995
7230.0 0.0018178
7250.0 0.001973
7270.0 0.0021546
7290.0 0.0026145
7310.0 0.002703
7330.0 0.0024765
7350.0 0.0022085
7370.0 0.0016368
7390.0 0.0017152
7410.0 0.0021245
7430.0 0.0024139
7450.0 0.0025957
7470.0 0.0024116
7490.0 0.0020369
7510.0 0.0032561
7530.0 0.0029158
7550.0 0.0027025
7570.0 0.0018186
7590.0 0.00080045
7610.0 0.00056605
7630.0 0.00085437
7650.0 0.0011458
7670.0 0.0018208
7690.0 0.0020466
7710.0 0.0018426
7730.0 0.0018077
7750.0 0.0023581
7770.0 0.0024124
7790.0 0.0022211
7810.0 0.0018178
7830.0 0.0019506
7850.0 0.0021229
7870.0 0.0020787
7890.0 0.0016352
7910.0 0.0010936
7930.0 0.0011149
7950.0 0.0010024
7970.0 0.00084737
7990.0 0.00076573
8010.0 0.00062894
8030.0 0.00059134
8050.0 0.00062943
8070.0 0.00068114
8090.0 0.00079464
8110.0 0.00074377
8130.0 0.00048883
8150.0 0.00048771
8170.0 0.00032096
8190.0 0.00023915
8210.0 0.00044183
8230.0 0.00051633
8250.0 0.00027303
8270.0 0.00022698
8290.0 0.00031832
8310.0 0.00026032
8330.0 0.00016063
8350.0 0.00012752
8370.0 5.1691e-05
8390.0 0.00013975
8410.0 0.00016668
8430.0 0.00020751
8450.0 0.00023259
8470.0 0.00035472
8490.0 0.00029829
8510.0 0.00024405
8530.0 0.00015295
8550.0 0.00039603
8570.0 0.00059532
8590.0 0.0004569
8610.0 0.00065337
8630.0 0.00071739
8650.0 0.00045722
8670.0 0.0006052
8690.0 0.00085909
8710.0 0.0007524
8730.0 0.00079474
8750.0 0.00064466
8770.0 0.00058333
8790.0 0.00063522
8810.0 0.00067196
8830.0 0.00040696
8850.0 0.00021823
8870.0 0.00016501
8890.0 0.00030748
8910.0 0.0004521
8930.0 0.00057666
8950.0 0.00065169
8970.0 0.00063418
8990.0 0.00050215
9010.0 0.00037119
9030.0 0.00029985
9050.0 0.00031131
9070.0 0.00032241
9090.0 0.00033125
9110.0 0.0003416
9130.0 0.00034914
9150.0 0.00035463
9170.0 0.00036047
9190.0 0.00036671
9210.0 0.00037326
9230.0 0.0003802
9250.0 0.00038724
9270.0 0.00039452
9290.0 0.000402
9310.0 0.0004095
9330.0 0.00041714
9350.0 0.00042502
9370.0 0.00043298
9390.0 0.00044099
9410.0 0.00044921
9430.0 0.00045766
9450.0 0.00046607
9470.0 0.00047463
9490.0 0.00048342
9510.0 0.0004923
9530.0 0.00050122
9550.0 0.00051042
9570.0 0.00051977
9590.0 0.00052914
9610.0 0.00053866
9630.0 0.00054842
9650.0 0.00055826
9670.0 0.00056811
9690.0 0.00057822
9710.0 0.00058846
9730.0 0.00059874
9750.0 0.00060916
9770.0 0.00061986
9790.0 0.00063055
9810.0 0.0006413
9830.0 0.00065227
9850.0 0.00066336
9870.0 0.00067443
9890.0 0.00068565
9910.0 0.00069708
9930.0 0.00070851
9950.0 0.00071999
9970.0 0.00073168
9990.0 0.00074347
10010.0 0.00067815
10030.0 0.00068865
10050.0 0.00069925
10070.0 0.00070972
10090.0 0.00072035
10110.0 0.00073117
10130.0 0.00074197
10150.0 0.00075271
10170.0 0.00076352
10190.0 0.00077443
10210.0 0.00078523
10230.0 0.000796
10250.0 0.00080688
10270.0 0.00081772
10290.0 0.00082846
10310.0 0.00083926
10330.0 0.00085012
10350.0 0.00086081
10370.0 0.00087145
10390.0 0.00088214
10410.0 0.00089275
10430.0 0.00090317
10450.0 0.00091362
10470.0 0.00092404
10490.0 0.00093428
10510.0 0.00094441
10530.0 0.0009546
10550.0 0.00096461
10570.0 0.0009744
10590.0 0.00098415
10610.0 0.00099382
10630.0 0.0010032
10650.0 0.0010125
10670.0 0.0010218
10690.0 0.0010309
10710.0 0.0010397
10730.0 0.0010484
10750.0 0.0010571
10770.0 0.0010654
10790.0 0.0010735
10810.0 0.0010815
10830.0 0.0010893
10850.0 0.0010966
10870.0 0.0011036
10890.0 0.0011099
10910.0 0.001115
10930.0 0.0011184
10950.0 0.0011192
10970.0 0.0011165
10990.0 0.00111
11010.0 0.0011334
11030.0 0.0011163
11050.0 0.0010951
11070.0 0.0010692
11090.0 0.0010379
11110.0 0.0010054
11130.0 0.00097141
11150.0 0.00093484
11170.0 0.00089726
11190.0 0.00086097
11210.0 0.00082373
11230.0 0.00078584
11250.0 0.00074989
11270.0 0.00071562
11290.0 0.00068155
11310.0 0.00064947
11330.0 0.00062129
11350.0 0.00059471
11370.0 0.00057012
11390.0 0.00054869
11410.0 0.00052972
11430.0 0.00051185
11450.0 0.00049608
11470.0 0.00048204
11490.0 0.00046864
11510.0 0.00045542
11530.0 0.00044286
11550.0 0.00043025
11570.0 0.00041682
11590.0 0.00040297
11610.0 0.00038897
11630.0 0.00037394
11650.0 0.00035808
11670.0 0.00034257
11690.0 0.00032699
11710.0 0.00031108
11730.0 0.00029573
11750.0 0.00028153
11770.0 0.00026764
11790.0 0.00025459
11810.0 0.000243
11830.0 0.00023252
11850.0 0.00022276
11870.0 0.0002144
11890.0 0.00020724
11910.0 0.00020077
11930.0 0.000195
11950.0 0.00018997
11970.0 0.00018532
11990.0 0.0001808
12010.0 0.00017652
12030.0 0.00017234
12050.0 0.00016804
12070.0 0.00016359
12090.0 0.00015928
12110.0 0.0001549
12130.0 0.00015047
12150.0 0.00014625
12170.0 0.00014236
12190.0 0.00013868
12210.0 0.00013555
12230.0 0.0001331
12250.0 0.00013134
12270.0 0.00013039
12290.0 0.0001303
12310.0 0.00013103
12330.0 0.00013271
12350.0 0.00013525
12370.0 0.00013843
12390.0 0.00014234
12410.0 0.00014714
12430.0 0.0001521
12450.0 0.00015727
12470.0 0.00016284
12490.0 0.00016841
12510.0 0.00017357
12530.0 0.00017868
12550.0 0.00018354
12570.0 0.0001877
12590.0 0.00019122
12610.0 0.00019424
12630.0 0.00019647
12650.0 0.00019773
12670.0 0.00019828
12690.0 0.00019802
12710.0 0.00019692
12730.0 0.00019508
12750.0 0.00019247
12770.0 0.00018919
12790.0 0.00018541
12810.0 0.00018106
12830.0 0.00017619
12850.0 0.00017115
12870.0 0.0001659
12890.0 0.0001603
12910.0 0.00015465
12930.0 0.00014909
12950.0 0.00014334
12970.0 0.00013751
12990.0 0.00013197
13010.0 0.00012649
13030.0 0.00012094
13050.0 0.00011558
13070.0 0.00011051
13090.0 0.00010541
13110.0 0.00010043
13130.0 9.5788e-05
13150.0 9.1345e-05
13170.0 8.696e-05
13190.0 8.299e-05
13210.0 7.9429e-05
13230.0 7.6115e-05
13250.0 7.3176e-05
13270.0 7.0747e-05
13290.0 6.8725e-05
13310.0 6.7138e-05
13330.0 6.6098e-05
13350.0 6.5563e-05
13370.0 6.5541e-05
13390.0 6.6067e-05
13410.0 6.7013e-05
13430.0 6.8417e-05
13450.0 7.0289e-05
13470.0 7.2459e-05
13490.0 7.4825e-05
13510.0 7.7582e-05
13530.0 8.0437e-05
13550.0 8.3215e-05
13570.0 8.6006e-05
13590.0 8.8782e-05
13610.0 9.1288e-05
13630.0 9.3505e-05
13650.0 9.5572e-05
13670.0 9.7316e-05
13690.0 9.8679e-05
13710.0 9.9754e-05
13730.0 0.00010055
13750.0 0.00010095
13770.0 0.00010106
13790.0 0.00010089
13810.0 0.00010044
13830.0 9.977e-05
13850.0 9.8861e-05
13870.0 9.7722e-05
13890.0 9.6424e-05
13910.0 9.4973e-05
13930.0 9.3318e-05
13950.0 9.1532e-05
13970.0 8.9722e-05
13990.0 8.7779e-05
14010.0 8.5739e-05
14030.0 8.3724e-05
14050.0 8.1712e-05
14070.0 7.9613e-05
14090.0 7.7614e-05
14110.0 7.5744e-05
14130.0 7.394e-05
14150.0 7.2245e-05
14170.0 7.0793e-05
14190.0 6.953e-05
14210.0 6.8448e-05
14230.0 6.7628e-05
14250.0 6.7074e-05
14270.0 6.6766e-05
14290.0 6.6744e-05
14310.0 6.6989e-05
14330.0 6.7488e-05
14350.0 6.8262e-05
14370.0 6.9258e-05
14390.0 7.0418e-05
14410.0 7.1815e-05
14430.0 7.3385e-05
14450.0 7.5027e-05
14470.0 7.6773e-05
14490.0 7.8679e-05
14510.0 8.056e-05
14530.0 8.2405e-05
14550.0 8.4314e-05
14570.0 8.6221e-05
14590.0 8.8032e-05
14610.0 8.9858e-05
14630.0 9.1743e-05
14650.0 9.3576e-05
14670.0 9.5406e-05
14690.0 9.7355e-05
14710.0 9.9427e-05
14730.0 0.0001015
14750.0 0.00010377
14770.0 0.00010629
14790.0 0.00010896
14810.0 0.00011178
14830.0 0.00011501
14850.0 0.00011844
14870.0 0.00012194
14890.0 0.00012563
14910.0 0.00012948
14930.0 0.00013313
14950.0 0.00013652
14970.0 0.00013971
14990.0 0.00014239
15010.0 0.00014448
15030.0 0.00014607
15050.0 0.00014718
15070.0 0.00014782
15090.0 0.00014817
15110.0 0.00014832
15130.0 0.00014835
15150.0 0.00014832
15170.0 0.00014825
15190.0 0.00014816
15210.0 0.00014808
15230.0 0.000148
15250.0 0.00014791
15270.0 0.00014783
15290.0 0.00014776
15310.0 0.00014769
15330.0 0.00014762
15350.0 0.00014756
15370.0 0.0001475
15390.0 0.00014743
15410.0 0.00014737
15430.0 0.00014732
15450.0 0.00014726
15470.0 0.0001472
15490.0 0.00014715
15510.0 0.00014711
15530.0 0.00014705
15550.0 0.000147
15570.0 0.00014696
15590.0 0.00014691
15610.0 0.00014685
15630.0 0.00014681
15650.0 0.00014676
15670.0 0.00014671
15690.0 0.00014666
15710.0 0.00014663
15730.0 0.00014657
15750.0 0.00014652
15770.0 0.00014648
15790.0 0.00014643
15810.0 0.00014636
15830.0 0.00014631
15850.0 0.00014627
15870.0 0.00014621
15890.0 0.00014614
15910.0 0.00014609
15930.0 0.00014603
15950.0 0.00014596
15970.0 0.0001459
15990.0 0.00014584
16010.0 0.00014576
16030.0 0.00014568
16050.0 0.00014561
16070.0 0.00014554
16090.0 0.00014545
16110.0 0.00014537
16130.0 0.00014529
16150.0 0.00014519
16170.0 0.00014509
16190.0 0.000145
16210.0 0.0001449
16230.0 0.00014479
16250.0 0.00014468
16270.0 0.00014458
16290.0 0.00014446
16310.0 0.00014433
16330.0 0.00014422
16350.0 0.00014409
16370.0 0.00014394
16390.0 0.00014381
16410.0 0.00014368
16430.0 0.00014353
16450.0 0.00014338
16470.0 0.00014324
16490.0 0.00014307
16510.0 0.0001429
16530.0 0.00014274
16550.0 0.00014257
16570.0 0.00014238
16590.0 0.00014219
16610.0 0.00014202
16630.0 0.00014182
16650.0 0.00014162
16670.0 0.00014143
16690.0 0.00014123
16710.0 0.000141
16730.0 0.00014078
16750.0 0.00014056
16770.0 0.00014033
16790.0 0.00014009
16810.0 0.00013986
16830.0 0.00013962
16850.0 0.00013936
16870.0 0.00013911
16890.0 0.00013886
16910.0 0.00013859
16930.0 0.00013831
16950.0 0.00013804
16970.0 0.00013776
16990.0 0.00013747
17010.0 0.00013718
17030.0 0.00013689
17050.0 0.00013658
17070.0 0.00013627
17090.0 0.00013597
17110.0 0.00013565
17130.0 0.00013531
17150.0 0.00013499
17170.0 0.00013466
17190.0 0.00013432
17210.0 0.00013397
17230.0 0.00013364
17250.0 0.00013328
17270.0 0.00013291
17290.0 0.00013255
17310.0 0.00013219
17330.0 0.00013181
17350.0 0.00013142
17370.0 0.00013105
17390.0 0.00013067
17410.0 0.00013027
17430.0 0.00012987
17450.0 0.00012948
17470.0 0.00012906
17490.0 0.00012865
17510.0 0.00012824
17530.0 0.00012782
17550.0 0.00012739
17570.0 0.00012696
17590.0 0.00012654
17610.0 0.0001261
17630.0 0.00012565
17650.0 0.00012522
17670.0 0.00012477
17690.0 0.00012429
17710.0 0.00012385
17730.0 0.00012339
17750.0 0.00012292
17770.0 0.00012245
17790.0 0.000122
17810.0 0.00012151
17830.0 0.00012103
17850.0 0.00012055
17870.0 0.00012007
17890.0 0.00011957
17910.0 0.00011907
17930.0 0.00011859
17950.0 0.00011809
17970.0 0.00011758
17990.0 0.00011709
18010.0 0.00011659
18030.0 0.00011606
18050.0 0.00011555
18070.0 0.00011504
18090.0 0.00011452
18110.0 0.00011399
18130.0 0.00011348
18150.0 0.00011296
18170.0 0.00011242
18190.0 0.0001119
18210.0 0.00011138
18230.0 0.00011083
18250.0 0.00011029
18270.0 0.00010976
18290.0 0.00010922
18310.0 0.00010867
18330.0 0.00010813
18350.0 0.0001076
18370.0 0.00010705
18390.0 0.0001065
18410.0 0.00010596
18430.0 0.00010541
18450.0 0.00010484
18470.0 0.00010429
18490.0 0.00010375
18510.0 0.00010319
18530.0 0.00010263
18550.0 0.00010209
18570.0 0.00010153
18590.0 0.00010096
18610.0 0.0001004
18630.0 9.9851e-05
18650.0 9.9283e-05
18670.0 9.8715e-05
18690.0 9.8168e-05
18710.0 9.7607e-05
18730.0 9.7038e-05
18750.0 9.6481e-05
18770.0 9.593e-05
18790.0 9.5351e-05
18810.0 9.4785e-05
18830.0 9.4232e-05
18850.0 9.3669e-05
18870.0 9.3098e-05
18890.0 9.2543e-05
18910.0 9.1989e-05
18930.0 9.1418e-05
18950.0 9.0855e-05
18970.0 9.0303e-05
18990.0 8.9741e-05
19010.0 8.9162e-05
19030.0 8.8612e-05
19050.0 8.8059e-05
19070.0 8.7493e-05
19090.0 8.6934e-05
19110.0 8.6391e-05
19130.0 8.5827e-05
19150.0 8.5262e-05
19170.0 8.4713e-05
19190.0 8.4163e-05
19210.0 8.3598e-05
19230.0 8.3043e-05
19250.0 8.2504e-05
19270.0 8.195e-05
19290.0 8.1395e-05
19310.0 8.0855e-05
19330.0 8.0313e-05
19350.0 7.9751e-05
19370.0 7.9206e-05
19390.0 7.8671e-05
19410.0 7.8124e-05
19430.0 7.7574e-05
19450.0 7.7044e-05
19470.0 7.651e-05
19490.0 7.5963e-05
19510.0 7.5429e-05
19530.0 7.4904e-05
19550.0 7.4362e-05
19570.0 7.382e-05
19590.0 7.33e-05
19610.0 7.2773e-05
19630.0 7.2238e-05
19650.0 7.1716e-05
19670.0 7.1203e-05
19690.0 7.0672e-05
19710.0 7.0146e-05
19730.0 6.9635e-05
19750.0 6.9118e-05
19770.0 6.8589e-05
19790.0 6.8078e-05
19810.0 6.7574e-05
19830.0 6.7057e-05
19850.0 6.6541e-05
19870.0 6.6035e-05
19890.0 6.5506e-05
19910.0 6.4944e-05
19930.0 6.4364e-05
19950.0 6.3733e-05
19970.0 6.3003e-05
19990.0 6.2171e-05
20010.0 5.932e-05
20030.0 5.8298e-05
20050.0 5.7142e-05
20070.0 5.592e-05
20090.0 5.4633e-05
20110.0 5.321e-05
20130.0 5.1791e-05
20150.0 5.0401e-05
20170.0 4.898e-05
20190.0 4.7554e-05
20210.0 4.6215e-05
20230.0 4.4917e-05
20250.0 4.3625e-05
20270.0 4.2425e-05
20290.0 4.1327e-05
20310.0 4.0281e-05
20330.0 3.9297e-05
20350.0 3.8467e-05
20370.0 3.772e-05
20390.0 3.7052e-05
20410.0 3.6495e-05
20430.0 3.6045e-05
20450.0 3.567e-05
20470.0 3.5392e-05
20490.0 3.5208e-05
20510.0 3.5102e-05
20530.0 3.5074e-05
20550.0 3.5118e-05
20570.0 3.5219e-05
20590.0 3.5384e-05
20610.0 3.5604e-05
20630.0 3.5858e-05
20650.0 3.6153e-05
20670.0 3.6504e-05
20690.0 3.6866e-05
20710.0 3.7244e-05
20730.0 3.7656e-05
20750.0 3.8086e-05
20770.0 3.8505e-05
20790.0 3.8942e-05
20810.0 3.9402e-05
20830.0 3.9852e-05
20850.0 4.0296e-05
20870.0 4.0767e-05
20890.0 4.124e-05
20910.0 4.1686e-05
20930.0 4.2144e-05
20950.0 4.2615e-05
20970.0 4.3068e-05
20990.0 4.3509e-05
21010.0 4.3973e-05
21030.0 4.4423e-05
21050.0 4.4848e-05
21070.0 4.5273e-05
21090.0 4.5701e-05
21110.0 4.6088e-05
21130.0 4.6452e-05
21150.0 4.681e-05
21170.0 4.7136e-05
21190.0 4.7419e-05
21210.0 4.7681e-05
21230.0 4.791e-05
21250.0 4.8081e-05
21270.0 4.8203e-05
21290.0 4.8277e-05
21310.0 4.8286e-05
21330.0 4.8228e-05
21350.0 4.8103e-05
21370.0 4.7898e-05
21390.0 4.7619e-05
21410.0 4.7264e-05
21430.0 4.6804e-05
21450.0 4.6271e-05
21470.0 4.5675e-05
21490.0 4.4989e-05
21510.0 4.4223e-05
21530.0 4.3427e-05
21550.0 4.258e-05
21570.0 4.1662e-05
21590.0 4.0741e-05
21610.0 3.9833e-05
21630.0 3.8908e-05
21650.0 3.7983e-05
21670.0 3.7155e-05
21690.0 3.6369e-05
21710.0 3.5632e-05
21730.0 3.4992e-05
21750.0 3.4457e-05
21770.0 3.3995e-05
21790.0 3.3648e-05
21810.0 3.3419e-05
21830.0 3.3295e-05
21850.0 3.3283e-05
21870.0 3.3379e-05
21890.0 3.3565e-05
21910.0 3.3854e-05
21930.0 3.4233e-05
21950.0 3.4672e-05
21970.0 3.5186e-05
21990.0 3.579e-05
22010.0 3.6414e-05
22030.0 3.7067e-05
22050.0 3.7773e-05
22070.0 3.8503e-05
22090.0 3.9209e-05
22110.0 3.9938e-05
22130.0 4.0684e-05
22150.0 4.1394e-05
22170.0 4.2077e-05
22190.0 4.2768e-05
22210.0 4.3423e-05
22230.0 4.4007e-05
22250.0 4.4566e-05
22270.0 4.5089e-05
22290.0 4.554e-05
22310.0 4.5931e-05
22330.0 4.6282e-05
22350.0 4.6558e-05
22370.0 4.6755e-05
22390.0 4.6886e-05
22410.0 4.6942e-05
22430.0 4.6912e-05
22450.0 4.6805e-05
22470.0 4.661e-05
22490.0 4.6331e-05
22510.0 4.5977e-05
22530.0 4.5525e-05
22550.0 4.4974e-05
22570.0 4.4361e-05
22590.0 4.3668e-05
22610.0 4.2871e-05
22630.0 4.2007e-05
22650.0 4.1111e-05
22670.0 4.012e-05
22690.0 3.9058e-05
22710.0 3.7984e-05
22730.0 3.6872e-05
22750.0 3.5665e-05
22770.0 3.4479e-05
22790.0 3.3317e-05
22810.0 3.212e-05
22830.0 3.0922e-05
