#lamb flux
1010.0 1.5686e-07
1030.0 1.767e-07
1050.0 1.9952e-07
1070.0 2.2521e-07
1090.0 2.5439e-07
1110.0 2.8432e-07
1130.0 3.1444e-07
1150.0 3.46e-07
1170.0 3.7855e-07
1190.0 4.0941e-07
1210.0 4.4069e-07
1230.0 4.7302e-07
1250.0 5.0469e-07
1270.0 5.3544e-07
1290.0 5.6794e-07
1310.0 6.0041e-07
1330.0 6.3156e-07
1350.0 6.6305e-07
1370.0 6.9556e-07
1390.0 7.2725e-07
1410.0 7.5801e-07
1430.0 7.9015e-07
1450.0 8.2229e-07
1470.0 8.5335e-07
1490.0 8.8474e-07
1510.0 9.1789e-07
1530.0 9.4928e-07
1550.0 9.8025e-07
1570.0 1.0123e-06
1590.0 1.0443e-06
1610.0 1.0749e-06
1630.0 1.1064e-06
1650.0 1.1387e-06
1670.0 1.17e-06
1690.0 1.2008e-06
1710.0 1.2327e-06
1730.0 1.2648e-06
1750.0 1.2948e-06
1770.0 1.3257e-06
1790.0 1.3572e-06
1810.0 1.3875e-06
1830.0 1.4172e-06
1850.0 1.4486e-06
1870.0 1.479e-06
1890.0 1.5082e-06
1910.0 1.5377e-06
1930.0 1.5678e-06
1950.0 1.5962e-06
1970.0 1.6239e-06
1990.0 1.6525e-06
2010.0 1.6801e-06
2030.0 1.7063e-06
2050.0 1.7329e-06
2070.0 1.7597e-06
2090.0 1.7842e-06
2110.0 1.8081e-06
2130.0 1.8321e-06
2150.0 1.8549e-06
2170.0 1.8756e-06
2190.0 1.8966e-06
2210.0 1.9168e-06
2230.0 1.935e-06
2250.0 1.952e-06
2270.0 1.9693e-06
2290.0 1.9845e-06
2310.0 1.9974e-06
2330.0 2.0101e-06
2350.0 2.0218e-06
2370.0 2.0314e-06
2390.0 2.0405e-06
2410.0 2.0505e-06
2430.0 2.0601e-06
2450.0 2.07e-06
2470.0 2.0832e-06
2490.0 2.1007e-06
2510.0 2.121e-06
2530.0 2.151e-06
2550.0 2.2002e-06
2570.0 2.2777e-06
2590.0 2.3964e-06
2610.0 2.5937e-06
2630.0 2.8801e-06
2650.0 3.2416e-06
2670.0 3.6844e-06
2690.0 4.1919e-06
2710.0 4.6873e-06
2730.0 5.1307e-06
2750.0 5.5255e-06
2770.0 5.8247e-06
2790.0 6.0216e-06
2810.0 6.1452e-06
2830.0 6.215e-06
2850.0 6.231e-06
2870.0 6.2199e-06
2890.0 6.1961e-06
2910.0 6.1628e-06
2930.0 6.122e-06
2950.0 6.0823e-06
2970.0 6.0439e-06
2990.0 6.0039e-06
3010.0 0.0001403
3030.0 0.00013937
3050.0 0.00013844
3070.0 0.00013742
3090.0 0.00013635
3110.0 0.0001351
3130.0 0.00013349
3150.0 0.00013146
3170.0 0.00012883
3190.0 0.00012566
3210.0 0.0001222
3230.0 0.00011869
3250.0 0.00011559
3270.0 0.00011345
3290.0 0.00011254
3310.0 0.00011307
3330.0 0.00011507
3350.0 0.00011826
3370.0 0.0001227
3390.0 0.00012825
3410.0 0.00013427
3430.0 0.00014106
3450.0 0.00014888
3470.0 0.00015739
3490.0 0.00016638
3510.0 0.00017647
3530.0 0.00018725
3550.0 0.00019823
3570.0 0.00020986
3590.0 0.00022288
3610.0 0.00023662
3630.0 0.00025098
3650.0 0.00026605
3670.0 0.00028016
3690.0 0.00029112
3710.0 0.00029768
3730.0 0.00029792
3750.0 0.00029172
3770.0 0.00027319
3790.0 0.00024955
3810.0 0.00022482
3830.0 0.00019916
3850.0 0.00016652
3870.0 0.00011908
3890.0 0.00017243
3910.0 0.00027361
3930.0 0.0003343
3950.0 0.00033134
3970.0 0.00035035
3990.0 0.00039162
4010.0 0.0005211
4030.0 0.00051577
4050.0 0.00045441
4070.0 0.00042072
4090.0 0.00040005
4110.0 0.00047354
4130.0 0.00050911
4150.0 0.00052363
4170.0 0.00050919
4190.0 0.00050768
4210.0 0.00050957
4230.0 0.00057771
4250.0 0.00063751
4270.0 0.00065452
4290.0 0.00065209
4310.0 0.00065457
4330.0 0.00071312
4350.0 0.00083882
4370.0 0.00096139
4390.0 0.00088643
4410.0 0.00069283
4430.0 0.00057291
4450.0 0.00049472
4470.0 0.00046898
4490.0 0.00053369
4510.0 0.00064235
4530.0 0.0007222
4550.0 0.00081564
4570.0 0.00093011
4590.0 0.0011103
4610.0 0.0015062
4630.0 0.0018762
4650.0 0.001898
4670.0 0.0017964
4690.0 0.0019138
4710.0 0.0020329
4730.0 0.0017092
4750.0 0.0011926
4770.0 0.00095527
4790.0 0.00094381
4810.0 0.00088833
4830.0 0.0008414
4850.0 0.00095558
4870.0 0.0012447
4890.0 0.0014435
4910.0 0.0012014
4930.0 0.0010674
4950.0 0.0011961
4970.0 0.0016103
4990.0 0.0021138
5010.0 0.0022875
5030.0 0.0018788
5050.0 0.0011876
5070.0 0.00081708
5090.0 0.00071433
5110.0 0.00073859
5130.0 0.00080384
5150.0 0.00083493
5170.0 0.00082899
5190.0 0.00080404
5210.0 0.00078628
5230.0 0.00082619
5250.0 0.00089373
5270.0 0.00099511
5290.0 0.0011418
5310.0 0.001294
5330.0 0.0013303
5350.0 0.0013305
5370.0 0.0014536
5390.0 0.001613
5410.0 0.0015418
5430.0 0.0013018
5450.0 0.0012043
5470.0 0.0013528
5490.0 0.0017356
5510.0 0.0022181
5530.0 0.0024884
5550.0 0.0023816
5570.0 0.0021461
5590.0 0.0018871
5610.0 0.0017643
5630.0 0.0017108
5650.0 0.001727
5670.0 0.0016722
5690.0 0.0015181
5710.0 0.0014543
5730.0 0.00134
5750.0 0.0009112
5770.0 0.00077546
5790.0 0.00088394
5810.0 0.0010604
5830.0 0.0012525
5850.0 0.0014123
5870.0 0.0014628
5890.0 0.0014106
5910.0 0.0013509
5930.0 0.0013472
5950.0 0.0014078
5970.0 0.0015426
5990.0 0.0014339
6010.0 0.0011897
6030.0 0.00098508
6050.0 0.00085459
6070.0 0.00086908
6090.0 0.0009843
6110.0 0.0010762
6130.0 0.0010298
6150.0 0.00092517
6170.0 0.00097296
6190.0 0.0011788
6210.0 0.0014831
6230.0 0.0017712
6250.0 0.0017926
6270.0 0.0015702
6290.0 0.0013046
6310.0 0.00103
6330.0 0.00080798
6350.0 0.00073033
6370.0 0.00078386
6390.0 0.00093356
6410.0 0.0010953
6430.0 0.0012776
6450.0 0.0014992
6470.0 0.0017934
6490.0 0.0022092
6510.0 0.0024585
6530.0 0.0023053
6550.0 0.0021114
6570.0 0.0020016
6590.0 0.0019274
6610.0 0.0016958
6630.0 0.0015524
6650.0 0.0014309
6670.0 0.0014578
6690.0 0.0014063
6710.0 0.0012608
6730.0 0.0010843
6750.0 0.00099595
6770.0 0.0010087
6790.0 0.0011499
6810.0 0.0011259
6830.0 0.0011573
6850.0 0.0011173
6870.0 0.0010676
6890.0 0.0010297
6910.0 0.001014
6930.0 0.00094873
6950.0 0.00098621
6970.0 0.00099688
6990.0 0.0011141
7010.0 0.0011812
7030.0 0.0011065
7050.0 0.0010299
7070.0 0.00099304
7090.0 0.00092949
7110.0 0.00088147
7130.0 0.00091287
7150.0 0.00097413
7170.0 0.0010434
7190.0 0.0010579
7210.0 0.0010263
7230.0 0.0010586
7250.0 0.0012032
7270.0 0.0013994
7290.0 0.0015447
7310.0 0.0015239
7330.0 0.0013596
7350.0 0.0012151
7370.0 0.0011264
7390.0 0.0011408
7410.0 0.0012208
7430.0 0.0013384
7450.0 0.0014477
7470.0 0.001556
7490.0 0.0016896
7510.0 0.0017849
7530.0 0.0016656
7550.0 0.0014026
7570.0 0.0011028
7590.0 0.00081228
7610.0 0.00072142
7630.0 0.00078075
7650.0 0.00090437
7670.0 0.0010494
7690.0 0.0011902
7710.0 0.0012713
7730.0 0.0013064
7750.0 0.0013654
7770.0 0.0013608
7790.0 0.0013102
7810.0 0.0013066
7830.0 0.001282
7850.0 0.001171
7870.0 0.0010643
7890.0 0.00095541
7910.0 0.00081541
7930.0 0.00071213
7950.0 0.0006456
7970.0 0.00062819
7990.0 0.00064499
8010.0 0.00068002
8030.0 0.00068149
8050.0 0.00068653
8070.0 0.00067541
8090.0 0.00069197
8110.0 0.00065279
8130.0 0.00057139
8150.0 0.00053688
8170.0 0.00049487
8190.0 0.00048986
8210.0 0.00052521
8230.0 0.00056195
8250.0 0.00052083
8270.0 0.00046433
8290.0 0.00038154
8310.0 0.000263
8330.0 0.00017071
8350.0 0.00012436
8370.0 0.00013219
8390.0 0.00015657
8410.0 0.00019891
8430.0 0.00024309
8450.0 0.00026844
8470.0 0.00029786
8490.0 0.00029285
8510.0 0.00029439
8530.0 0.0003075
8550.0 0.0003723
8570.0 0.00045868
8590.0 0.00052416
8610.0 0.00063363
8630.0 0.00073458
8650.0 0.00077301
8670.0 0.00078593
8690.0 0.00078133
8710.0 0.00073068
8730.0 0.00070144
8750.0 0.00064919
8770.0 0.00062344
8790.0 0.00061859
8810.0 0.00058979
8830.0 0.00049617
8850.0 0.00040893
8870.0 0.00034106
8890.0 0.0003334
8910.0 0.00036014
8930.0 0.00038227
8950.0 0.00042906
8970.0 0.00043586
8990.0 0.00042915
9010.0 0.0004127
9030.0 0.00040837
9050.0 0.00041238
9070.0 0.00041556
9090.0 0.00041794
9110.0 0.00042009
9130.0 0.00042198
9150.0 0.00042378
9170.0 0.00042568
9190.0 0.00042768
9210.0 0.00042986
9230.0 0.00043209
9250.0 0.00043447
9270.0 0.00043694
9290.0 0.00043952
9310.0 0.00044223
9330.0 0.00044504
9350.0 0.00044794
9370.0 0.00045095
9390.0 0.00045408
9410.0 0.0004573
9430.0 0.00046059
9450.0 0.00046403
9470.0 0.00046755
9490.0 0.00047115
9510.0 0.00047486
9530.0 0.00047869
9550.0 0.00048257
9570.0 0.00048653
9590.0 0.00049061
9610.0 0.00049477
9630.0 0.000499
9650.0 0.00050331
9670.0 0.00050774
9690.0 0.00051221
9710.0 0.00051675
9730.0 0.00052139
9750.0 0.00052609
9770.0 0.00053081
9790.0 0.00053564
9810.0 0.00054054
9830.0 0.00054547
9850.0 0.00055045
9870.0 0.00055552
9890.0 0.00056062
9910.0 0.00056574
9930.0 0.00057093
9950.0 0.00057616
9970.0 0.00058139
9990.0 0.00058665
10010.0 0.00056494
10030.0 0.00056991
10050.0 0.00057487
10070.0 0.00057982
10090.0 0.00058486
10110.0 0.00058985
10130.0 0.00059485
10150.0 0.00059987
10170.0 0.00060486
10190.0 0.0006098
10210.0 0.00061477
10230.0 0.00061973
10250.0 0.00062461
10270.0 0.00062948
10290.0 0.00063435
10310.0 0.00063914
10330.0 0.00064385
10350.0 0.00064856
10370.0 0.00065323
10390.0 0.00065779
10410.0 0.0006623
10430.0 0.0006668
10450.0 0.00067118
10470.0 0.00067546
10490.0 0.00067971
10510.0 0.00068387
10530.0 0.00068788
10550.0 0.00069183
10570.0 0.00069572
10590.0 0.00069948
10610.0 0.00070311
10630.0 0.00070669
10650.0 0.00071015
10670.0 0.00071344
10690.0 0.00071664
10710.0 0.00071975
10730.0 0.00072269
10750.0 0.00072547
10770.0 0.00072821
10790.0 0.00073079
10810.0 0.00073318
10830.0 0.00073543
10850.0 0.00073754
10870.0 0.00073927
10890.0 0.00074058
10910.0 0.00074131
10930.0 0.00074104
10950.0 0.00073917
10970.0 0.00073542
10990.0 0.00072962
11010.0 0.0007086
11030.0 0.0006972
11050.0 0.00068369
11070.0 0.00066767
11090.0 0.00064842
11110.0 0.00062857
11130.0 0.00060787
11150.0 0.00058559
11170.0 0.00056274
11190.0 0.0005408
11210.0 0.00051841
11230.0 0.00049582
11250.0 0.00047468
11270.0 0.00045482
11290.0 0.00043536
11310.0 0.00041738
11330.0 0.0004019
11350.0 0.00038755
11370.0 0.00037449
11390.0 0.00036329
11410.0 0.00035346
11430.0 0.00034417
11450.0 0.0003359
11470.0 0.00032837
11490.0 0.00032093
11510.0 0.00031325
11530.0 0.00030569
11550.0 0.00029782
11570.0 0.00028919
11590.0 0.00028012
11610.0 0.00027088
11630.0 0.0002609
11650.0 0.00025038
11670.0 0.0002402
11690.0 0.00023006
11710.0 0.00021982
11730.0 0.00021009
11750.0 0.00020123
11770.0 0.00019269
11790.0 0.00018481
11810.0 0.00017793
11830.0 0.0001718
11850.0 0.00016616
11870.0 0.00016137
11890.0 0.00015727
11910.0 0.00015352
11930.0 0.0001501
11950.0 0.00014701
11970.0 0.00014401
11990.0 0.00014094
12010.0 0.00013788
12030.0 0.00013477
12050.0 0.00013145
12070.0 0.00012795
12090.0 0.00012454
12110.0 0.00012107
12130.0 0.00011756
12150.0 0.00011427
12170.0 0.00011128
12190.0 0.00010849
12210.0 0.00010618
12230.0 0.00010445
12250.0 0.00010328
12270.0 0.00010275
12290.0 0.0001029
12310.0 0.00010366
12330.0 0.00010513
12350.0 0.00010721
12370.0 0.00010973
12390.0 0.00011275
12410.0 0.00011635
12430.0 0.00012
12450.0 0.00012375
12470.0 0.00012769
12490.0 0.00013156
12510.0 0.00013506
12530.0 0.00013844
12550.0 0.00014155
12570.0 0.00014412
12590.0 0.0001462
12610.0 0.00014787
12630.0 0.00014897
12650.0 0.00014943
12670.0 0.00014942
12690.0 0.00014888
12710.0 0.00014786
12730.0 0.00014642
12750.0 0.00014452
12770.0 0.00014228
12790.0 0.00013979
12810.0 0.000137
12830.0 0.00013393
12850.0 0.00013079
12870.0 0.00012753
12890.0 0.00012405
12910.0 0.00012051
12930.0 0.00011699
12950.0 0.00011329
12970.0 0.00010947
12990.0 0.00010577
13010.0 0.00010204
13030.0 9.8201e-05
13050.0 9.443e-05
13070.0 9.0823e-05
13090.0 8.7156e-05
13110.0 8.3562e-05
13130.0 8.0209e-05
13150.0 7.7018e-05
13170.0 7.39e-05
13190.0 7.113e-05
13210.0 6.8705e-05
13230.0 6.6523e-05
13250.0 6.4679e-05
13270.0 6.3251e-05
13290.0 6.2175e-05
13310.0 6.1473e-05
13330.0 6.1181e-05
13350.0 6.1255e-05
13370.0 6.1701e-05
13390.0 6.2514e-05
13410.0 6.3549e-05
13430.0 6.4848e-05
13450.0 6.6399e-05
13470.0 6.8056e-05
13490.0 6.975e-05
13510.0 7.1612e-05
13530.0 7.3437e-05
13550.0 7.5124e-05
13570.0 7.6742e-05
13590.0 7.8273e-05
13610.0 7.9582e-05
13630.0 8.0674e-05
13650.0 8.1627e-05
13670.0 8.2358e-05
13690.0 8.2854e-05
13710.0 8.3163e-05
13730.0 8.3288e-05
13750.0 8.3202e-05
13770.0 8.2951e-05
13790.0 8.254e-05
13810.0 8.1982e-05
13830.0 8.1316e-05
13850.0 8.052e-05
13870.0 7.9603e-05
13890.0 7.8615e-05
13910.0 7.7556e-05
13930.0 7.6386e-05
13950.0 7.5156e-05
13970.0 7.3934e-05
13990.0 7.2644e-05
14010.0 7.1312e-05
14030.0 7.0013e-05
14050.0 6.8735e-05
14070.0 6.7421e-05
14090.0 6.6191e-05
14110.0 6.5059e-05
14130.0 6.399e-05
14150.0 6.3013e-05
14170.0 6.2201e-05
14190.0 6.1523e-05
14210.0 6.0979e-05
14230.0 6.0607e-05
14250.0 6.0404e-05
14270.0 6.0366e-05
14290.0 6.0509e-05
14310.0 6.0802e-05
14330.0 6.1244e-05
14350.0 6.1846e-05
14370.0 6.2563e-05
14390.0 6.3354e-05
14410.0 6.4273e-05
14430.0 6.5273e-05
14450.0 6.6294e-05
14470.0 6.7363e-05
14490.0 6.8524e-05
14510.0 6.9672e-05
14530.0 7.0815e-05
14550.0 7.2032e-05
14570.0 7.33e-05
14590.0 7.4568e-05
14610.0 7.5928e-05
14630.0 7.7434e-05
14650.0 7.9e-05
14670.0 8.0659e-05
14690.0 8.2516e-05
14710.0 8.4559e-05
14730.0 8.6632e-05
14750.0 8.8899e-05
14770.0 9.1376e-05
14790.0 9.3917e-05
14810.0 9.6498e-05
14830.0 9.9327e-05
14850.0 0.00010215
14870.0 0.00010487
14890.0 0.00010758
14910.0 0.00011024
14930.0 0.00011262
14950.0 0.00011471
14970.0 0.00011657
14990.0 0.00011805
15010.0 0.00011912
15030.0 0.00011986
15050.0 0.00012031
15070.0 0.00012048
15090.0 0.00012049
15110.0 0.00012039
15130.0 0.00012021
15150.0 0.00012001
15170.0 0.00011979
15190.0 0.00011955
15210.0 0.00011932
15230.0 0.00011909
15250.0 0.00011885
15270.0 0.00011862
15290.0 0.0001184
15310.0 0.00011818
15330.0 0.00011795
15350.0 0.00011773
15370.0 0.00011752
15390.0 0.00011728
15410.0 0.00011706
15430.0 0.00011685
15450.0 0.00011663
15470.0 0.00011641
15490.0 0.0001162
15510.0 0.00011599
15530.0 0.00011577
15550.0 0.00011555
15570.0 0.00011534
15590.0 0.00011512
15610.0 0.0001149
15630.0 0.00011469
15650.0 0.00011448
15670.0 0.00011426
15690.0 0.00011404
15710.0 0.00011384
15730.0 0.00011361
15750.0 0.00011339
15770.0 0.00011318
15790.0 0.00011296
15810.0 0.00011273
15830.0 0.00011251
15850.0 0.0001123
15870.0 0.00011207
15890.0 0.00011184
15910.0 0.00011163
15930.0 0.0001114
15950.0 0.00011116
15970.0 0.00011094
15990.0 0.00011071
16010.0 0.00011047
16030.0 0.00011023
16050.0 0.00011001
16070.0 0.00010977
16090.0 0.00010953
16110.0 0.00010929
16130.0 0.00010905
16150.0 0.0001088
16170.0 0.00010855
16190.0 0.00010831
16210.0 0.00010805
16230.0 0.00010779
16250.0 0.00010754
16270.0 0.00010729
16290.0 0.00010703
16310.0 0.00010676
16330.0 0.00010651
16350.0 0.00010624
16370.0 0.00010596
16390.0 0.00010569
16410.0 0.00010542
16430.0 0.00010514
16450.0 0.00010486
16470.0 0.00010459
16490.0 0.00010431
16510.0 0.00010401
16530.0 0.00010373
16550.0 0.00010344
16570.0 0.00010314
16590.0 0.00010284
16610.0 0.00010255
16630.0 0.00010225
16650.0 0.00010194
16670.0 0.00010164
16690.0 0.00010134
16710.0 0.00010102
16730.0 0.0001007
16750.0 0.00010039
16770.0 0.00010007
16790.0 9.974e-05
16810.0 9.9423e-05
16830.0 9.9102e-05
16850.0 9.8766e-05
16870.0 9.8435e-05
16890.0 9.8109e-05
16910.0 9.7767e-05
16930.0 9.7418e-05
16950.0 9.7083e-05
16970.0 9.6742e-05
16990.0 9.6389e-05
17010.0 9.6041e-05
17030.0 9.57e-05
17050.0 9.5341e-05
17070.0 9.498e-05
17090.0 9.4628e-05
17110.0 9.427e-05
17130.0 9.3895e-05
17150.0 9.3531e-05
17170.0 9.3173e-05
17190.0 9.2799e-05
17210.0 9.2424e-05
17230.0 9.206e-05
17250.0 9.1685e-05
17270.0 9.1297e-05
17290.0 9.0919e-05
17310.0 9.0543e-05
17330.0 9.0154e-05
17350.0 8.9761e-05
17370.0 8.9384e-05
17390.0 8.8996e-05
17410.0 8.8598e-05
17430.0 8.8209e-05
17450.0 8.7823e-05
17470.0 8.7415e-05
17490.0 8.7013e-05
17510.0 8.6621e-05
17530.0 8.6219e-05
17550.0 8.5809e-05
17570.0 8.5409e-05
17590.0 8.5011e-05
17610.0 8.4598e-05
17630.0 8.4187e-05
17650.0 8.3785e-05
17670.0 8.3373e-05
17690.0 8.2947e-05
17710.0 8.254e-05
17730.0 8.2131e-05
17750.0 8.171e-05
17770.0 8.1292e-05
17790.0 8.0885e-05
17810.0 8.0462e-05
17830.0 8.0035e-05
17850.0 7.9619e-05
17870.0 7.9201e-05
17890.0 7.877e-05
17910.0 7.8344e-05
17930.0 7.793e-05
17950.0 7.7504e-05
17970.0 7.7074e-05
17990.0 7.6655e-05
18010.0 7.6234e-05
18030.0 7.5795e-05
18050.0 7.5368e-05
18070.0 7.4947e-05
18090.0 7.4516e-05
18110.0 7.4081e-05
18130.0 7.366e-05
18150.0 7.3235e-05
18170.0 7.2799e-05
18190.0 7.2371e-05
18210.0 7.195e-05
18230.0 7.1514e-05
18250.0 7.1076e-05
18270.0 7.0654e-05
18290.0 7.0227e-05
18310.0 6.9791e-05
18330.0 6.9363e-05
18350.0 6.8943e-05
18370.0 6.8508e-05
18390.0 6.8075e-05
18410.0 6.7653e-05
18430.0 6.7226e-05
18450.0 6.6786e-05
18470.0 6.6361e-05
18490.0 6.5942e-05
18510.0 6.5511e-05
18530.0 6.5082e-05
18550.0 6.4665e-05
18570.0 6.4239e-05
18590.0 6.3805e-05
18610.0 6.3383e-05
18630.0 6.2965e-05
18650.0 6.2536e-05
18670.0 6.2108e-05
18690.0 6.1696e-05
18710.0 6.1276e-05
18730.0 6.085e-05
18750.0 6.0435e-05
18770.0 6.0023e-05
18790.0 5.9594e-05
18810.0 5.9175e-05
18830.0 5.8766e-05
18850.0 5.835e-05
18870.0 5.7929e-05
18890.0 5.7521e-05
18910.0 5.7115e-05
18930.0 5.6698e-05
18950.0 5.6286e-05
18970.0 5.5884e-05
18990.0 5.5475e-05
19010.0 5.5055e-05
19030.0 5.4656e-05
19050.0 5.4256e-05
19070.0 5.3847e-05
19090.0 5.3444e-05
19110.0 5.3053e-05
19130.0 5.2648e-05
19150.0 5.2243e-05
19170.0 5.185e-05
19190.0 5.1456e-05
19210.0 5.1053e-05
19230.0 5.0657e-05
19250.0 5.0274e-05
19270.0 4.9881e-05
19290.0 4.9486e-05
19310.0 4.9104e-05
19330.0 4.872e-05
19350.0 4.8323e-05
19370.0 4.7939e-05
19390.0 4.7562e-05
19410.0 4.7177e-05
19430.0 4.679e-05
19450.0 4.6419e-05
19470.0 4.6044e-05
19490.0 4.5661e-05
19510.0 4.5288e-05
19530.0 4.4921e-05
19550.0 4.4542e-05
19570.0 4.4164e-05
19590.0 4.3802e-05
19610.0 4.3436e-05
19630.0 4.3064e-05
19650.0 4.2701e-05
19670.0 4.2346e-05
19690.0 4.1978e-05
19710.0 4.1614e-05
19730.0 4.126e-05
19750.0 4.0903e-05
19770.0 4.0537e-05
19790.0 4.0185e-05
19810.0 3.9837e-05
19830.0 3.9481e-05
19850.0 3.9126e-05
19870.0 3.8779e-05
19890.0 3.8417e-05
19910.0 3.8035e-05
19930.0 3.7645e-05
19950.0 3.7227e-05
19970.0 3.675e-05
19990.0 3.6216e-05
20010.0 3.6359e-05
20030.0 3.5692e-05
20050.0 3.495e-05
20070.0 3.4177e-05
20090.0 3.3374e-05
20110.0 3.25e-05
20130.0 3.164e-05
20150.0 3.081e-05
20170.0 2.9971e-05
20190.0 2.914e-05
20210.0 2.8368e-05
20230.0 2.7627e-05
20250.0 2.6897e-05
20270.0 2.6226e-05
20290.0 2.5619e-05
20310.0 2.5046e-05
20330.0 2.4517e-05
20350.0 2.4077e-05
20370.0 2.369e-05
20390.0 2.3355e-05
20410.0 2.3088e-05
20430.0 2.2885e-05
20450.0 2.2733e-05
20470.0 2.2641e-05
20490.0 2.2604e-05
20510.0 2.2616e-05
20530.0 2.2678e-05
20550.0 2.2781e-05
20570.0 2.2915e-05
20590.0 2.3088e-05
20610.0 2.3291e-05
20630.0 2.3509e-05
20650.0 2.3749e-05
20670.0 2.4021e-05
20690.0 2.4291e-05
20710.0 2.4566e-05
20730.0 2.4858e-05
20750.0 2.5158e-05
20770.0 2.5445e-05
20790.0 2.5742e-05
20810.0 2.6052e-05
20830.0 2.6354e-05
20850.0 2.6653e-05
20870.0 2.6971e-05
20890.0 2.7292e-05
20910.0 2.7599e-05
20930.0 2.7918e-05
20950.0 2.8249e-05
20970.0 2.8571e-05
20990.0 2.889e-05
21010.0 2.9229e-05
21030.0 2.9562e-05
21050.0 2.9881e-05
21070.0 3.0202e-05
21090.0 3.0528e-05
21110.0 3.0827e-05
21130.0 3.1111e-05
21150.0 3.1391e-05
21170.0 3.1651e-05
21190.0 3.188e-05
21210.0 3.2098e-05
21230.0 3.2295e-05
21250.0 3.2453e-05
21270.0 3.2581e-05
21290.0 3.2681e-05
21310.0 3.2742e-05
21330.0 3.2761e-05
21350.0 3.2742e-05
21370.0 3.2676e-05
21390.0 3.2565e-05
21410.0 3.2408e-05
21430.0 3.2189e-05
21450.0 3.1922e-05
21470.0 3.1614e-05
21490.0 3.1248e-05
21510.0 3.0827e-05
21530.0 3.038e-05
21550.0 2.9894e-05
21570.0 2.9356e-05
21590.0 2.8804e-05
21610.0 2.8248e-05
21630.0 2.7669e-05
21650.0 2.7076e-05
21670.0 2.6533e-05
21690.0 2.6003e-05
21710.0 2.549e-05
21730.0 2.5028e-05
21750.0 2.4624e-05
21770.0 2.4253e-05
21790.0 2.3947e-05
21810.0 2.3714e-05
21830.0 2.3544e-05
21850.0 2.3439e-05
21870.0 2.3407e-05
21890.0 2.3439e-05
21910.0 2.3537e-05
21930.0 2.3699e-05
21950.0 2.3912e-05
21970.0 2.4181e-05
21990.0 2.4518e-05
22010.0 2.4883e-05
22030.0 2.5281e-05
22050.0 2.5726e-05
22070.0 2.6202e-05
22090.0 2.6676e-05
22110.0 2.7177e-05
22130.0 2.7703e-05
22150.0 2.8216e-05
22170.0 2.8719e-05
22190.0 2.9236e-05
22210.0 2.9735e-05
22230.0 3.0188e-05
22250.0 3.0625e-05
22270.0 3.1037e-05
22290.0 3.1397e-05
22310.0 3.171e-05
22330.0 3.1991e-05
22350.0 3.2212e-05
22370.0 3.237e-05
22390.0 3.2474e-05
22410.0 3.2516e-05
22430.0 3.2491e-05
22450.0 3.2406e-05
22470.0 3.2251e-05
22490.0 3.2032e-05
22510.0 3.1759e-05
22530.0 3.1412e-05
22550.0 3.0993e-05
22570.0 3.0531e-05
22590.0 3.0014e-05
22610.0 2.9424e-05
22630.0 2.8789e-05
22650.0 2.8135e-05
22670.0 2.7414e-05
22690.0 2.6646e-05
22710.0 2.5872e-05
22730.0 2.5074e-05
22750.0 2.4209e-05
