#lamb flux
1010.0 3.4981e-05
1030.0 3.5019e-05
1050.0 3.4769e-05
1070.0 3.415e-05
1090.0 3.3071e-05
1110.0 3.1462e-05
1130.0 2.9357e-05
1150.0 2.679e-05
1170.0 2.3824e-05
1190.0 2.0655e-05
1210.0 1.737e-05
1230.0 1.4067e-05
1250.0 1.0968e-05
1270.0 8.22e-06
1290.0 5.7911e-06
1310.0 3.8541e-06
1330.0 2.5333e-06
1350.0 1.9172e-06
1370.0 2.5313e-06
1390.0 3.462e-06
1410.0 4.6473e-06
1430.0 5.9302e-06
1450.0 7.3278e-06
1470.0 8.8241e-06
1490.0 1.0323e-05
1510.0 1.1801e-05
1530.0 1.3329e-05
1550.0 1.4784e-05
1570.0 1.6119e-05
1590.0 1.75e-05
1610.0 1.9216e-05
1630.0 2.0851e-05
1650.0 2.2411e-05
1670.0 2.3925e-05
1690.0 2.5399e-05
1710.0 2.6815e-05
1730.0 2.8241e-05
1750.0 2.9805e-05
1770.0 3.1429e-05
1790.0 3.314e-05
1810.0 3.4963e-05
1830.0 3.7802e-05
1850.0 7.3958e-05
1870.0 0.00011159
1890.0 0.00015223
1910.0 0.0001964
1930.0 0.00024457
1950.0 0.0002967
1970.0 0.00035315
1990.0 0.00041454
2010.0 0.00048067
2030.0 0.00055135
2050.0 0.0006272
2070.0 0.00070822
2090.0 0.00079311
2110.0 0.00088217
2130.0 0.00097552
2150.0 0.0010719
2170.0 0.0011701
2190.0 0.0012708
2210.0 0.0013728
2230.0 0.0014741
2250.0 0.0015745
2270.0 0.0016742
2290.0 0.0017705
2310.0 0.0018619
2330.0 0.0019495
2350.0 0.0020317
2370.0 0.0021064
2390.0 0.0021739
2410.0 0.0022348
2430.0 0.0022858
2450.0 0.0023267
2470.0 0.0023586
2490.0 0.0023811
2510.0 0.0023939
2530.0 0.002402
2550.0 0.0024122
2570.0 0.0024323
2590.0 0.0024724
2610.0 0.0025559
2630.0 0.0026952
2650.0 0.0028902
2670.0 0.0031553
2690.0 0.0034977
2710.0 0.0038817
2730.0 0.0042866
2750.0 0.0047274
2770.0 0.0051589
2790.0 0.005549
2810.0 0.0059098
2830.0 0.0062482
2850.0 0.006521
2870.0 0.0067585
2890.0 0.0069837
2910.0 0.007195
2930.0 0.0073919
2950.0 0.0076022
2970.0 0.0078268
2990.0 0.0080549
3010.0 0.0082942
3030.0 0.0085562
3050.0 0.00883
3070.0 0.0090978
3090.0 0.0093733
3110.0 0.0096408
3130.0 0.0098781
3150.0 0.010078
3170.0 0.010236
3190.0 0.010346
3210.0 0.010432
3230.0 0.010523
3250.0 0.010669
3270.0 0.010913
3290.0 0.011277
3310.0 0.011791
3330.0 0.012442
3350.0 0.013194
3370.0 0.014055
3390.0 0.014957
3410.0 0.015819
3430.0 0.016609
3450.0 0.017278
3470.0 0.018895
3490.0 0.019502
3510.0 0.017418
3530.0 0.016534
3550.0 0.021577
3570.0 0.025975
3590.0 0.025704
3610.0 0.027771
3630.0 0.028019
3650.0 0.025589
3670.0 0.02538
3690.0 0.02864
3710.0 0.031652
3730.0 0.033359
3750.0 0.030127
3770.0 0.029742
3790.0 0.031064
3810.0 0.029985
3830.0 0.026125
3850.0 0.02355
3870.0 0.024767
3890.0 0.027768
3910.0 0.029669
3930.0 0.030507
3950.0 0.031563
3970.0 0.03217
3990.0 0.032558
4010.0 0.031681
4030.0 0.028837
4050.0 0.026959
4070.0 0.027393
4090.0 0.029143
4110.0 0.030273
4130.0 0.029834
4150.0 0.029424
4170.0 0.029661
4190.0 0.030303
4210.0 0.029325
4230.0 0.026738
4250.0 0.023945
4270.0 0.022051
4290.0 0.020593
4310.0 0.019246
4330.0 0.019817
4350.0 0.020704
4370.0 0.020981
4390.0 0.021569
4410.0 0.02145
4430.0 0.021199
4450.0 0.021382
4470.0 0.021437
4490.0 0.023055
4510.0 0.023911
4530.0 0.02465
4550.0 0.025388
4570.0 0.026342
4590.0 0.026874
4610.0 0.027223
4630.0 0.027565
4650.0 0.028202
4670.0 0.026506
4690.0 0.02454
4710.0 0.022793
4730.0 0.022091
4750.0 0.021158
4770.0 0.020444
4790.0 0.019962
4810.0 0.019324
4830.0 0.020223
4850.0 0.022284
4870.0 0.01644
4890.0 0.016495
4910.0 0.017759
4930.0 0.018353
4950.0 0.016754
4970.0 0.015512
4990.0 0.015
5010.0 0.014005
5030.0 0.013214
5050.0 0.013671
5070.0 0.014512
5090.0 0.014976
5110.0 0.016265
5130.0 0.016711
5150.0 0.017356
5170.0 0.017964
5190.0 0.017584
5210.0 0.018365
5230.0 0.018749
5250.0 0.018947
5270.0 0.019226
5290.0 0.018773
5310.0 0.018238
5330.0 0.017321
5350.0 0.016427
5370.0 0.015694
5390.0 0.016115
5410.0 0.016012
5430.0 0.01619
5450.0 0.016137
5470.0 0.015881
5490.0 0.01573
5510.0 0.015318
5530.0 0.014949
5550.0 0.014735
5570.0 0.014879
5590.0 0.015046
5610.0 0.015203
5630.0 0.014881
5650.0 0.014626
5670.0 0.014008
5690.0 0.013693
5710.0 0.013242
5730.0 0.013188
5750.0 0.012939
5770.0 0.012475
5790.0 0.012857
5810.0 0.012821
5830.0 0.013172
5850.0 0.013312
5870.0 0.013442
5890.0 0.013209
5910.0 0.013181
5930.0 0.012801
5950.0 0.012939
5970.0 0.012636
5990.0 0.012403
6010.0 0.012401
6030.0 0.012665
6050.0 0.012536
6070.0 0.012237
6090.0 0.012106
6110.0 0.012301
6130.0 0.012157
6150.0 0.011762
6170.0 0.01111
6190.0 0.010404
6210.0 0.0098849
6230.0 0.0097977
6250.0 0.0098886
6270.0 0.010105
6290.0 0.010516
6310.0 0.011214
6330.0 0.011543
6350.0 0.011562
6370.0 0.011646
6390.0 0.011577
6410.0 0.011321
6430.0 0.010997
6450.0 0.010844
6470.0 0.010822
6490.0 0.010749
6510.0 0.010636
6530.0 0.010627
6550.0 0.01052
6570.0 0.010096
6590.0 0.0099957
6610.0 0.0099045
6630.0 0.0095632
6650.0 0.0092408
6670.0 0.008982
6690.0 0.0089207
6710.0 0.0086474
6730.0 0.008508
6750.0 0.0083684
6770.0 0.0081708
6790.0 0.0082281
6810.0 0.0081211
6830.0 0.0078776
6850.0 0.0077857
6870.0 0.0077276
6890.0 0.0075923
6910.0 0.0075354
6930.0 0.0074798
6950.0 0.0073519
6970.0 0.0071901
6990.0 0.0071857
7010.0 0.0071392
7030.0 0.0071902
7050.0 0.0069893
7070.0 0.006897
7090.0 0.0069208
7110.0 0.0066974
7130.0 0.0066724
7150.0 0.0067443
7170.0 0.0068558
7190.0 0.0067458
7210.0 0.0067792
7230.0 0.0069187
7250.0 0.0067587
7270.0 0.0068486
7290.0 0.0067416
7310.0 0.0065551
7330.0 0.00623
7350.0 0.0062818
7370.0 0.0063109
7390.0 0.006172
7410.0 0.0060124
7430.0 0.0059253
7450.0 0.0058578
7470.0 0.005922
7490.0 0.0060443
7510.0 0.0059264
7530.0 0.005723
7550.0 0.0057685
7570.0 0.0052952
7590.0 0.0051721
7610.0 0.0050747
7630.0 0.0051596
7650.0 0.0050421
7670.0 0.0052243
7690.0 0.0050062
7710.0 0.0053178
7730.0 0.0053322
7750.0 0.0058323
7770.0 0.0059931
7790.0 0.0062001
7810.0 0.0064753
7830.0 0.0065744
7850.0 0.0067926
7870.0 0.0066649
7890.0 0.0066061
7910.0 0.0064869
7930.0 0.0062568
7950.0 0.0060746
7970.0 0.0060507
7990.0 0.0059871
8010.0 0.0054917
8030.0 0.0054576
8050.0 0.0053531
8070.0 0.0052981
8090.0 0.0051755
8110.0 0.0052154
8130.0 0.0052615
8150.0 0.0053332
8170.0 0.0052723
8190.0 0.0053252
8210.0 0.0052425
8230.0 0.0049565
8250.0 0.0048426
8270.0 0.0047576
8290.0 0.0046853
8310.0 0.0045505
8330.0 0.0046193
8350.0 0.0045839
8370.0 0.0045727
8390.0 0.0046571
8410.0 0.0046575
8430.0 0.0047511
8450.0 0.0048311
8470.0 0.0048537
8490.0 0.0049051
8510.0 0.0048312
8530.0 0.0046827
8550.0 0.0047225
8570.0 0.0047329
8590.0 0.0046053
8610.0 0.0047094
8630.0 0.0046583
8650.0 0.0045608
8670.0 0.0045336
8690.0 0.0045329
8710.0 0.0043688
8730.0 0.0044171
8750.0 0.0042685
8770.0 0.0042372
8790.0 0.0041294
8810.0 0.0040851
8830.0 0.0040567
8850.0 0.0038456
8870.0 0.0036422
8890.0 0.0035874
8910.0 0.0033725
8930.0 0.0031135
8950.0 0.0031075
8970.0 0.0030178
8990.0 0.0030007
9010.0 0.002979
9030.0 0.0029592
9050.0 0.0029382
9070.0 0.0029169
9090.0 0.0028956
9110.0 0.002874
9130.0 0.0028524
9150.0 0.002831
9170.0 0.0028095
9190.0 0.002788
9210.0 0.0027664
9230.0 0.0027447
9250.0 0.0027231
9270.0 0.0027015
9290.0 0.0026799
9310.0 0.0026583
9330.0 0.0026368
9350.0 0.0026153
9370.0 0.0025938
9390.0 0.0025724
9410.0 0.002551
9430.0 0.0025297
9450.0 0.0025085
9470.0 0.0024887
9490.0 0.0024683
9510.0 0.0024466
9530.0 0.0024252
9550.0 0.0024042
9570.0 0.0023835
9590.0 0.0023628
9610.0 0.0023424
9630.0 0.0023222
9650.0 0.0023021
9670.0 0.0022821
9690.0 0.0022622
9710.0 0.0022426
9730.0 0.002223
9750.0 0.0022036
9770.0 0.0021845
9790.0 0.0021655
9810.0 0.0021465
9830.0 0.0021274
9850.0 0.0021055
9870.0 0.002087
9890.0 0.0020704
9910.0 0.0020535
9930.0 0.0020334
9950.0 0.0020158
9970.0 0.0019997
9990.0 0.0019831
10010.0 0.0019662
10030.0 0.0019494
10050.0 0.001933
10070.0 0.0019168
10090.0 0.0019009
10110.0 0.0018846
10130.0 0.0018683
10150.0 0.0018528
10170.0 0.0018372
10190.0 0.0018216
10210.0 0.0018065
10230.0 0.0017917
10250.0 0.0017767
10270.0 0.001762
10290.0 0.0017477
10310.0 0.0017334
10330.0 0.001719
10350.0 0.0017051
10370.0 0.0016915
10390.0 0.0016778
10410.0 0.0016642
10430.0 0.0016511
10450.0 0.0016381
10470.0 0.0016251
10490.0 0.0016125
10510.0 0.0016002
10530.0 0.0015875
10550.0 0.0015752
10570.0 0.0015634
10590.0 0.0015514
10610.0 0.0015396
10630.0 0.0015282
10650.0 0.0015169
10670.0 0.0015054
10690.0 0.0014943
10710.0 0.0014835
10730.0 0.0014726
10750.0 0.0014616
10770.0 0.0014513
10790.0 0.001441
10810.0 0.0014306
10830.0 0.0014205
10850.0 0.0014108
10870.0 0.0014008
10890.0 0.001391
10910.0 0.0013817
10930.0 0.0013727
10950.0 0.0013636
10970.0 0.0013552
10990.0 0.0013473
11010.0 0.0013645
11030.0 0.0013585
11050.0 0.0013529
11070.0 0.0013473
11090.0 0.0013413
11110.0 0.0013352
11130.0 0.0013289
11150.0 0.001322
11170.0 0.0013147
11190.0 0.0013074
11210.0 0.0012997
11230.0 0.0012916
11250.0 0.0012837
11270.0 0.001276
11290.0 0.0012681
11310.0 0.0012604
11330.0 0.0012534
11350.0 0.0012466
11370.0 0.00124
11390.0 0.0012341
11410.0 0.0012286
11430.0 0.0012231
11450.0 0.0012181
11470.0 0.0012134
11490.0 0.0012088
11510.0 0.001204
11530.0 0.0011994
11550.0 0.0011949
11570.0 0.0011899
11590.0 0.0011848
11610.0 0.0011798
11630.0 0.0011744
11650.0 0.0011686
11670.0 0.001163
11690.0 0.0011575
11710.0 0.0011517
11730.0 0.001146
11750.0 0.0011407
11770.0 0.0011352
11790.0 0.0011298
11810.0 0.0011248
11830.0 0.0011199
11850.0 0.0011147
11870.0 0.00111
11890.0 0.0011057
11910.0 0.0011014
11930.0 0.0010972
11950.0 0.0010937
11970.0 0.0010904
11990.0 0.0010873
12010.0 0.001085
12030.0 0.0010833
12050.0 0.0010821
12070.0 0.0010816
12090.0 0.001082
12110.0 0.0010831
12130.0 0.0010849
12150.0 0.0010874
12170.0 0.0010907
12190.0 0.0010945
12210.0 0.0010989
12230.0 0.0011038
12250.0 0.001109
12270.0 0.0011145
12290.0 0.0011202
12310.0 0.001126
12330.0 0.0011318
12350.0 0.0011375
12370.0 0.001143
12390.0 0.0011483
12410.0 0.0011532
12430.0 0.0011577
12450.0 0.0011616
12470.0 0.0011649
12490.0 0.0011674
12510.0 0.0011692
12530.0 0.0011701
12550.0 0.00117
12570.0 0.001169
12590.0 0.0011672
12610.0 0.0011641
12630.0 0.00116
12650.0 0.0011555
12670.0 0.0011499
12690.0 0.0011434
12710.0 0.0011366
12730.0 0.0011294
12750.0 0.0011211
12770.0 0.0011127
12790.0 0.0011045
12810.0 0.0010959
12830.0 0.001087
12850.0 0.0010787
12870.0 0.0010706
12890.0 0.0010624
12910.0 0.0010547
12930.0 0.0010476
12950.0 0.0010406
12970.0 0.0010338
12990.0 0.0010278
13010.0 0.0010222
13030.0 0.0010167
13050.0 0.0010116
13070.0 0.001007
13090.0 0.0010024
13110.0 0.000998
13130.0 0.00099398
13150.0 0.00099011
13170.0 0.00098609
13190.0 0.00098243
13210.0 0.00097906
13230.0 0.00097562
13250.0 0.00097222
13270.0 0.00096908
13290.0 0.00096589
13310.0 0.00096246
13330.0 0.00095911
13350.0 0.00095575
13370.0 0.00095206
13390.0 0.00094807
13410.0 0.00094419
13430.0 0.00093997
13450.0 0.00093533
13470.0 0.00093057
13490.0 0.00092573
13510.0 0.00092026
13530.0 0.00091462
13550.0 0.00090902
13570.0 0.00090312
13590.0 0.00089682
13610.0 0.00089058
13630.0 0.00088436
13650.0 0.0008777
13670.0 0.00087095
13690.0 0.00086435
13710.0 0.00085753
13730.0 0.00085027
13750.0 0.00084337
13770.0 0.00083647
13790.0 0.00082928
13810.0 0.00082209
13830.0 0.0008152
13850.0 0.00080805
13870.0 0.00080074
13890.0 0.00079367
13910.0 0.00078667
13930.0 0.0007794
13950.0 0.00077217
13970.0 0.00076533
13990.0 0.0007583
14010.0 0.00075119
14030.0 0.00074434
14050.0 0.00073758
14070.0 0.00073051
14090.0 0.00072367
14110.0 0.00071708
14130.0 0.00071041
14150.0 0.00070369
14170.0 0.00069734
14190.0 0.00069107
14210.0 0.0006847
14230.0 0.00067851
14250.0 0.00067257
14270.0 0.00066652
14290.0 0.00066047
14310.0 0.00065476
14330.0 0.0006491
14350.0 0.00064338
14370.0 0.00063784
14390.0 0.00063254
14410.0 0.00062714
14430.0 0.00062181
14450.0 0.00061674
14470.0 0.00061174
14490.0 0.00060667
14510.0 0.00060185
14530.0 0.00059722
14550.0 0.00059258
14570.0 0.00058801
14590.0 0.00058365
14610.0 0.00057931
14630.0 0.00057492
14650.0 0.00057068
14670.0 0.00056654
14690.0 0.00056236
14710.0 0.00055819
14730.0 0.00055422
14750.0 0.00055025
14770.0 0.00054628
14790.0 0.00054245
14810.0 0.00053874
14830.0 0.00053497
14850.0 0.00053132
14870.0 0.00052783
14890.0 0.00052439
14910.0 0.00052098
14930.0 0.0005177
14950.0 0.00051454
14970.0 0.00051139
14990.0 0.00050834
15010.0 0.00050541
15030.0 0.00050252
15050.0 0.00049963
15070.0 0.00049687
15090.0 0.00049413
15110.0 0.00049138
15130.0 0.00048864
15150.0 0.00048594
15170.0 0.00048321
15190.0 0.00048045
15210.0 0.00047773
15230.0 0.000475
15250.0 0.00047223
15270.0 0.00046947
15290.0 0.00046676
15310.0 0.00046401
15330.0 0.00046124
15350.0 0.00045851
15370.0 0.00045578
15390.0 0.00045299
15410.0 0.00045023
15430.0 0.00044751
15450.0 0.00044475
15470.0 0.00044198
15490.0 0.00043925
15510.0 0.00043653
15530.0 0.00043377
15550.0 0.00043104
15570.0 0.00042833
15590.0 0.00042559
15610.0 0.00042284
15630.0 0.00042014
15650.0 0.00041743
15670.0 0.00041471
15690.0 0.00041201
15710.0 0.00040934
15730.0 0.00040664
15750.0 0.00040394
15770.0 0.00040128
15790.0 0.00039863
15810.0 0.00039593
15830.0 0.00039328
15850.0 0.00039066
15870.0 0.00038802
15890.0 0.00038538
15910.0 0.00038279
15930.0 0.00038019
15950.0 0.00037756
15970.0 0.00037498
15990.0 0.00037241
16010.0 0.00036983
16030.0 0.00036725
16050.0 0.00036473
16070.0 0.0003622
16090.0 0.00035966
16110.0 0.00035715
16130.0 0.00035467
16150.0 0.00035215
16170.0 0.00034966
16190.0 0.00034721
16210.0 0.00034476
16230.0 0.00034229
16250.0 0.00033987
16270.0 0.00033747
16290.0 0.00033505
16310.0 0.00033265
16330.0 0.00033029
16350.0 0.00032792
16370.0 0.00032553
16390.0 0.00032321
16410.0 0.00032089
16430.0 0.00031857
16450.0 0.00031626
16470.0 0.000314
16490.0 0.00031172
16510.0 0.00030944
16530.0 0.00030721
16550.0 0.00030499
16570.0 0.00030275
16590.0 0.00030054
16610.0 0.00029837
16630.0 0.0002962
16650.0 0.00029402
16670.0 0.00029189
16690.0 0.00028978
16710.0 0.00028763
16730.0 0.00028553
16750.0 0.00028346
16770.0 0.00028138
16790.0 0.00027931
16810.0 0.00027728
16830.0 0.00027526
16850.0 0.00027324
16870.0 0.00027124
16890.0 0.00026928
16910.0 0.00026729
16930.0 0.00026532
16950.0 0.0002634
16970.0 0.00026148
16990.0 0.00025956
17010.0 0.00025767
17030.0 0.00025581
17050.0 0.00025394
17070.0 0.00025208
17090.0 0.00025027
17110.0 0.00024845
17130.0 0.00024663
17150.0 0.00024484
17170.0 0.00024309
17190.0 0.00024133
17210.0 0.00023958
17230.0 0.00023787
17250.0 0.00023616
17270.0 0.00023445
17290.0 0.00023277
17310.0 0.00023112
17330.0 0.00022946
17350.0 0.00022781
17370.0 0.00022621
17390.0 0.00022461
17410.0 0.00022301
17430.0 0.00022144
17450.0 0.0002199
17470.0 0.00021833
17490.0 0.00021679
17510.0 0.00021529
17530.0 0.00021379
17550.0 0.0002123
17570.0 0.00021083
17590.0 0.00020939
17610.0 0.00020794
17630.0 0.00020651
17650.0 0.00020512
17670.0 0.00020372
17690.0 0.00020231
17710.0 0.00020096
17730.0 0.00019962
17750.0 0.00019827
17770.0 0.00019695
17790.0 0.00019566
17810.0 0.00019436
17830.0 0.00019307
17850.0 0.00019181
17870.0 0.00019057
17890.0 0.00018932
17910.0 0.00018809
17930.0 0.0001869
17950.0 0.0001857
17970.0 0.00018452
17990.0 0.00018336
18010.0 0.00018222
18030.0 0.00018106
18050.0 0.00017994
18070.0 0.00017884
18090.0 0.00017774
18110.0 0.00017665
18130.0 0.00017559
18150.0 0.00017455
18170.0 0.00017349
18190.0 0.00017247
18210.0 0.00017147
18230.0 0.00017046
18250.0 0.00016946
18270.0 0.0001685
18290.0 0.00016754
18310.0 0.00016658
18330.0 0.00016565
18350.0 0.00016475
18370.0 0.00016383
18390.0 0.00016292
18410.0 0.00016205
18430.0 0.00016119
18450.0 0.00016031
18470.0 0.00015947
18490.0 0.00015865
18510.0 0.00015782
18530.0 0.00015701
18550.0 0.00015623
18570.0 0.00015545
18590.0 0.00015466
18610.0 0.00015391
18630.0 0.00015317
18650.0 0.00015242
18670.0 0.00015169
18690.0 0.000151
18710.0 0.0001503
18730.0 0.0001496
18750.0 0.00014893
18770.0 0.00014828
18790.0 0.0001476
18810.0 0.00014695
18830.0 0.00014633
18850.0 0.00014571
18870.0 0.00014509
18890.0 0.0001445
18910.0 0.00014392
18930.0 0.00014333
18950.0 0.00014276
18970.0 0.00014221
18990.0 0.00014166
19010.0 0.0001411
19030.0 0.00014059
19050.0 0.00014007
19070.0 0.00013956
19090.0 0.00013906
19110.0 0.00013859
19130.0 0.0001381
19150.0 0.00013762
19170.0 0.00013716
19190.0 0.00013672
19210.0 0.00013626
19230.0 0.00013582
19250.0 0.00013541
19270.0 0.00013499
19290.0 0.00013457
19310.0 0.00013418
19330.0 0.0001338
19350.0 0.00013339
19370.0 0.00013302
19390.0 0.00013266
19410.0 0.00013229
19430.0 0.00013193
19450.0 0.00013159
19470.0 0.00013126
19490.0 0.00013092
19510.0 0.00013059
19530.0 0.00013029
19550.0 0.00012996
19570.0 0.00012965
19590.0 0.00012936
19610.0 0.00012907
19630.0 0.00012877
19650.0 0.0001285
19670.0 0.00012824
19690.0 0.00012796
19710.0 0.00012769
19730.0 0.00012744
19750.0 0.00012719
19770.0 0.00012692
19790.0 0.00012668
19810.0 0.00012645
19830.0 0.00012621
19850.0 0.00012598
19870.0 0.00012577
19890.0 0.00012555
19910.0 0.00012531
19930.0 0.0001251
19950.0 0.0001249
19970.0 0.00012468
19990.0 0.00012446
20010.0 0.00012426
20030.0 0.00012404
20050.0 0.00012379
20070.0 0.00012356
20090.0 0.00012331
20110.0 0.00012302
20130.0 0.00012273
20150.0 0.00012246
20170.0 0.00012215
20190.0 0.00012183
20210.0 0.00012154
20230.0 0.00012125
20250.0 0.00012094
20270.0 0.00012065
20290.0 0.00012039
20310.0 0.00012013
20330.0 0.00011987
20350.0 0.00011967
20370.0 0.00011948
20390.0 0.00011931
20410.0 0.00011917
20430.0 0.00011908
20450.0 0.00011899
20470.0 0.00011894
20490.0 0.00011894
20510.0 0.00011897
20530.0 0.00011903
20550.0 0.00011913
20570.0 0.00011929
20590.0 0.00011948
20610.0 0.00011971
20630.0 0.00012
20650.0 0.00012032
20670.0 0.00012069
20690.0 0.0001211
20710.0 0.00012156
20730.0 0.00012204
20750.0 0.00012256
20770.0 0.0001231
20790.0 0.00012366
20810.0 0.00012422
20830.0 0.00012478
20850.0 0.00012532
20870.0 0.00012585
20890.0 0.00012634
20910.0 0.00012679
20930.0 0.0001272
20950.0 0.00012755
20970.0 0.00012784
20990.0 0.00012807
21010.0 0.00012823
21030.0 0.00012832
21050.0 0.00012836
21070.0 0.00012833
21090.0 0.00012823
21110.0 0.00012809
21130.0 0.00012792
21150.0 0.00012768
21170.0 0.00012742
21190.0 0.00012716
21210.0 0.00012685
21230.0 0.00012651
21250.0 0.00012619
21270.0 0.00012587
21290.0 0.00012553
21310.0 0.00012519
21330.0 0.0001249
21350.0 0.00012458
21370.0 0.00012425
21390.0 0.00012395
21410.0 0.00012365
21430.0 0.0001233
21450.0 0.00012297
21470.0 0.00012265
21490.0 0.00012229
21510.0 0.00012191
21530.0 0.00012154
21550.0 0.00012115
21570.0 0.00012071
21590.0 0.00012028
21610.0 0.00011984
21630.0 0.00011936
21650.0 0.00011885
21670.0 0.00011838
21690.0 0.00011789
21710.0 0.00011737
21730.0 0.00011687
21750.0 0.00011639
21770.0 0.00011586
21790.0 0.00011534
21810.0 0.00011485
21830.0 0.00011436
21850.0 0.00011385
21870.0 0.00011336
21890.0 0.0001129
21910.0 0.00011241
21930.0 0.00011192
21950.0 0.00011145
21970.0 0.00011097
21990.0 0.00011044
22010.0 0.00010995
22030.0 0.00010945
22050.0 0.00010891
22070.0 0.00010836
22090.0 0.00010782
22110.0 0.00010725
22130.0 0.00010663
22150.0 0.00010603
22170.0 0.00010541
22190.0 0.00010474
22210.0 0.00010406
22230.0 0.0001034
22250.0 0.00010271
22270.0 0.000102
22290.0 0.0001013
22310.0 0.00010061
22330.0 9.9874e-05
22350.0 9.9154e-05
22370.0 9.8463e-05
22390.0 9.7757e-05
22410.0 9.7033e-05
22430.0 9.636e-05
22450.0 9.5704e-05
22470.0 9.5031e-05
22490.0 9.4385e-05
22510.0 9.3782e-05
22530.0 9.3168e-05
22550.0 9.2562e-05
22570.0 9.2008e-05
22590.0 9.1476e-05
22610.0 9.0944e-05
22630.0 9.0443e-05
22650.0 8.9987e-05
22670.0 8.953e-05
22690.0 8.9087e-05
22710.0 8.868e-05
22730.0 8.8291e-05
22750.0 8.7893e-05
22770.0 8.7529e-05
22790.0 8.7192e-05
22810.0 8.6858e-05
22830.0 8.6535e-05
22850.0 8.6244e-05
22870.0 8.5965e-05
22890.0 8.5692e-05
22910.0 8.5447e-05
22930.0 8.5227e-05
22950.0 8.5021e-05
22970.0 8.4835e-05
22990.0 8.4688e-05
23010.0 8.4565e-05
23030.0 8.4469e-05
23050.0 8.4407e-05
23070.0 8.4379e-05
23090.0 8.4387e-05
23110.0 8.4435e-05
23130.0 8.4519e-05
23150.0 8.4643e-05
23170.0 8.4814e-05
23190.0 8.5019e-05
23210.0 8.5253e-05
23230.0 8.5533e-05
23250.0 8.5845e-05
23270.0 8.6169e-05
23290.0 8.6521e-05
23310.0 8.6907e-05
23330.0 8.7279e-05
23350.0 8.7646e-05
23370.0 8.802e-05
23390.0 8.8378e-05
