#lamb flux
1010.0 5.7204e-07
1030.0 6.07e-07
1050.0 6.4722e-07
1070.0 6.925e-07
1090.0 7.4393e-07
1110.0 7.9669e-07
1130.0 8.498e-07
1150.0 9.0545e-07
1170.0 9.6285e-07
1190.0 1.0173e-06
1210.0 1.0725e-06
1230.0 1.1296e-06
1250.0 1.1855e-06
1270.0 1.2398e-06
1290.0 1.2972e-06
1310.0 1.3546e-06
1330.0 1.4097e-06
1350.0 1.4654e-06
1370.0 1.5229e-06
1390.0 1.579e-06
1410.0 1.6335e-06
1430.0 1.6905e-06
1450.0 1.7475e-06
1470.0 1.8026e-06
1490.0 1.8584e-06
1510.0 1.9173e-06
1530.0 1.9732e-06
1550.0 2.0283e-06
1570.0 2.0854e-06
1590.0 2.1426e-06
1610.0 2.1972e-06
1630.0 2.2536e-06
1650.0 2.3115e-06
1670.0 2.3676e-06
1690.0 2.423e-06
1710.0 2.4806e-06
1730.0 2.5385e-06
1750.0 2.5931e-06
1770.0 2.6493e-06
1790.0 2.7068e-06
1810.0 2.7625e-06
1830.0 2.8173e-06
1850.0 2.8755e-06
1870.0 2.9323e-06
1890.0 2.9874e-06
1910.0 3.0437e-06
1930.0 3.1015e-06
1950.0 3.1568e-06
1970.0 3.2117e-06
1990.0 3.2688e-06
2010.0 3.3251e-06
2030.0 3.3797e-06
2050.0 3.4362e-06
2070.0 3.4944e-06
2090.0 3.5496e-06
2110.0 3.6049e-06
2130.0 3.6622e-06
2150.0 3.7189e-06
2170.0 3.7735e-06
2190.0 3.8305e-06
2210.0 3.8882e-06
2230.0 3.9442e-06
2250.0 4.0004e-06
2270.0 4.0595e-06
2290.0 4.1173e-06
2310.0 4.1734e-06
2330.0 4.2317e-06
2350.0 4.291e-06
2370.0 4.3485e-06
2390.0 4.4072e-06
2410.0 4.4688e-06
2430.0 4.5287e-06
2450.0 4.5865e-06
2470.0 4.6433e-06
2490.0 4.6963e-06
2510.0 4.7418e-06
2530.0 4.7866e-06
2550.0 4.8424e-06
2570.0 4.9277e-06
2590.0 5.0679e-06
2610.0 5.3167e-06
2630.0 5.7058e-06
2650.0 6.2311e-06
2670.0 6.9112e-06
2690.0 7.7399e-06
2710.0 8.6214e-06
2730.0 9.501e-06
2750.0 1.0395e-05
2770.0 1.1228e-05
2790.0 1.1972e-05
2810.0 1.2672e-05
2830.0 1.3368e-05
2850.0 1.4011e-05
2870.0 1.4646e-05
2890.0 1.5309e-05
2910.0 1.598e-05
2930.0 1.6632e-05
2950.0 1.7313e-05
2970.0 1.8013e-05
2990.0 1.8695e-05
3010.0 4.0133e-05
3030.0 4.16e-05
3050.0 4.3082e-05
3070.0 4.4501e-05
3090.0 4.5989e-05
3110.0 4.7537e-05
3130.0 4.9065e-05
3150.0 5.0581e-05
3170.0 5.213e-05
3190.0 5.3471e-05
3210.0 5.451e-05
3230.0 5.5326e-05
3250.0 4.8758e-05
3270.0 4.2236e-05
3290.0 3.2257e-05
3310.0 3.6146e-05
3330.0 3.8929e-05
3350.0 4.1577e-05
3370.0 4.4203e-05
3390.0 4.6832e-05
3410.0 4.9462e-05
3430.0 5.2087e-05
3450.0 5.4718e-05
3470.0 5.7339e-05
3490.0 5.9558e-05
3510.0 6.0305e-05
3530.0 6.3103e-05
3550.0 7.7099e-05
3570.0 9.7734e-05
3590.0 0.00011059
3610.0 0.00012588
3630.0 0.00011726
3650.0 0.00010726
3670.0 0.00010337
3690.0 0.00012287
3710.0 0.00015593
3730.0 0.00016762
3750.0 0.00017401
3770.0 0.00017574
3790.0 0.00017282
3810.0 0.00015686
3830.0 0.00012148
3850.0 9.7022e-05
3870.0 9.4509e-05
3890.0 0.00012898
3910.0 0.00017538
3930.0 0.00020562
3950.0 0.00021697
3970.0 0.00021586
3990.0 0.00024633
4010.0 0.00027536
4030.0 0.00025757
4050.0 0.00022532
4070.0 0.00019062
4090.0 0.00018949
4110.0 0.00021468
4130.0 0.00021788
4150.0 0.00021964
4170.0 0.00020694
4190.0 0.00019732
4210.0 0.00019975
4230.0 0.00022959
4250.0 0.00023183
4270.0 0.00023031
4290.0 0.00022812
4310.0 0.00022831
4330.0 0.00025226
4350.0 0.00029052
4370.0 0.00029523
4390.0 0.00025549
4410.0 0.00021104
4430.0 0.00018094
4450.0 0.00015568
4470.0 0.00015084
4490.0 0.00018034
4510.0 0.00020232
4530.0 0.00022181
4550.0 0.00023841
4570.0 0.00028166
4590.0 0.00040163
4610.0 0.00053801
4630.0 0.00055727
4650.0 0.00052903
4670.0 0.00056224
4690.0 0.00061677
4710.0 0.00054536
4730.0 0.00040158
4750.0 0.00030561
4770.0 0.00027822
4790.0 0.00027928
4810.0 0.00026181
4830.0 0.00028564
4850.0 0.00036265
4870.0 0.00045043
4890.0 0.00040258
4910.0 0.00035386
4930.0 0.00039259
4950.0 0.00051578
4970.0 0.00066919
4990.0 0.00068969
5010.0 0.00059421
5030.0 0.00044586
5050.0 0.00031969
5070.0 0.00026883
5090.0 0.00025499
5110.0 0.00025874
5130.0 0.0002692
5150.0 0.00026564
5170.0 0.00027073
5190.0 0.00026213
5210.0 0.00027095
5230.0 0.00029009
5250.0 0.00032004
5270.0 0.00039473
5290.0 0.00045103
5310.0 0.00045374
5330.0 0.00047287
5350.0 0.00053413
5370.0 0.00056858
5390.0 0.00052801
5410.0 0.00045256
5430.0 0.0004309
5450.0 0.00049792
5470.0 0.00064312
5490.0 0.00079921
5510.0 0.00088
5530.0 0.0008995
5550.0 0.00085842
5570.0 0.00080038
5590.0 0.00077445
5610.0 0.00078465
5630.0 0.00080385
5650.0 0.00080616
5670.0 0.00079493
5690.0 0.00077356
5710.0 0.00069497
5730.0 0.00058198
5750.0 0.0004889
5770.0 0.00049228
5790.0 0.00054146
5810.0 0.00058304
5830.0 0.00060284
5850.0 0.00060294
5870.0 0.00055794
5890.0 0.00048894
5910.0 0.000479
5930.0 0.00052013
5950.0 0.00053802
5970.0 0.0004937
5990.0 0.00042561
6010.0 0.0003513
6030.0 0.00029502
6050.0 0.00029053
6070.0 0.00033024
6090.0 0.00034769
6110.0 0.00031792
6130.0 0.00029425
6150.0 0.00031259
6170.0 0.00037427
6190.0 0.00044654
6210.0 0.00048555
6230.0 0.00046876
6250.0 0.00042965
6270.0 0.0003718
6290.0 0.00030823
6310.0 0.00025512
6330.0 0.00023044
6350.0 0.00024001
6370.0 0.0002602
6390.0 0.00028163
6410.0 0.00032045
6430.0 0.00039454
6450.0 0.00049688
6470.0 0.00056562
6490.0 0.00056705
6510.0 0.00055365
6530.0 0.00056415
6550.0 0.00057674
6570.0 0.00058183
6590.0 0.00058186
6610.0 0.00056605
6630.0 0.00056685
6650.0 0.00056877
6670.0 0.00054687
6690.0 0.00049039
6710.0 0.00041454
6730.0 0.00039692
6750.0 0.00042656
6770.0 0.00046382
6790.0 0.00047814
6810.0 0.00047275
6830.0 0.00046628
6850.0 0.00045612
6870.0 0.00043008
6890.0 0.00040526
6910.0 0.00038731
6930.0 0.00037331
6950.0 0.00039626
6970.0 0.00043129
6990.0 0.0004549
7010.0 0.00046021
7030.0 0.00043493
7050.0 0.00037758
7070.0 0.00030611
7090.0 0.00026007
7110.0 0.00025086
7130.0 0.00026461
7150.0 0.00026789
7170.0 0.0002464
7190.0 0.00024158
7210.0 0.00026615
7230.0 0.00030565
7250.0 0.00034935
7270.0 0.00036788
7290.0 0.00034638
7310.0 0.00030734
7330.0 0.00028127
7350.0 0.00027532
7370.0 0.00028252
7390.0 0.00029525
7410.0 0.00031636
7430.0 0.0003596
7450.0 0.00041804
7470.0 0.00047728
7490.0 0.00050489
7510.0 0.00048904
7530.0 0.00042279
7550.0 0.00034407
7570.0 0.00028583
7590.0 0.00025166
7610.0 0.00025863
7630.0 0.00029849
7650.0 0.00034285
7670.0 0.00038749
7690.0 0.00042526
7710.0 0.00045248
7730.0 0.00047522
7750.0 0.00049648
7770.0 0.00051519
7790.0 0.00051657
7810.0 0.00052151
7830.0 0.00053734
7850.0 0.00053769
7870.0 0.00052282
7890.0 0.00048506
7910.0 0.00045518
7930.0 0.00043345
7950.0 0.00043263
7970.0 0.00042937
7990.0 0.00043314
8010.0 0.00043118
8030.0 0.00043249
8050.0 0.00044362
8070.0 0.0004368
8090.0 0.0004365
8110.0 0.00041931
8130.0 0.00041648
8150.0 0.00040476
8170.0 0.00039317
8190.0 0.00038753
8210.0 0.00039011
8230.0 0.00036595
8250.0 0.00034291
8270.0 0.00029944
8290.0 0.0002414
8310.0 0.00018719
8330.0 0.00014375
8350.0 0.00012683
8370.0 0.00014275
8390.0 0.00016495
8410.0 0.00018216
8430.0 0.00020221
8450.0 0.00021309
8470.0 0.00022313
8490.0 0.00024806
8510.0 0.00027642
8530.0 0.00032116
8550.0 0.0003766
8570.0 0.00042655
8590.0 0.00046661
8610.0 0.00050067
8630.0 0.00052499
8650.0 0.00052881
8670.0 0.00052996
8690.0 0.00054745
8710.0 0.00055765
8730.0 0.00056874
8750.0 0.00055707
8770.0 0.00055874
8790.0 0.00055084
8810.0 0.00051281
8830.0 0.00049892
8850.0 0.00047053
8870.0 0.00044932
8890.0 0.00042907
8910.0 0.00043984
8930.0 0.00041374
8950.0 0.00039832
8970.0 0.00039241
8990.0 0.0003832
9010.0 0.00037629
9030.0 0.00036637
9050.0 0.00036415
9070.0 0.00036315
9090.0 0.00036216
9110.0 0.00036123
9130.0 0.0003602
9150.0 0.00035913
9170.0 0.0003576
9190.0 0.00035553
9210.0 0.0003573
9230.0 0.00035545
9250.0 0.00035397
9270.0 0.00035258
9290.0 0.00035125
9310.0 0.00034995
9330.0 0.00034866
9350.0 0.00034738
9370.0 0.0003461
9390.0 0.00034479
9410.0 0.00034348
9430.0 0.00034214
9450.0 0.00034066
9470.0 0.00033921
9490.0 0.00033798
9510.0 0.00033667
9530.0 0.00033533
9550.0 0.00033397
9570.0 0.00033258
9590.0 0.00033119
9610.0 0.00032979
9630.0 0.00032838
9650.0 0.00032696
9670.0 0.00032554
9690.0 0.00032412
9710.0 0.00032269
9730.0 0.00032126
9750.0 0.00031983
9770.0 0.00031839
9790.0 0.00031696
9810.0 0.00031552
9830.0 0.00031409
9850.0 0.00031266
9870.0 0.00031122
9890.0 0.00030979
9910.0 0.00030835
9930.0 0.00030689
9950.0 0.00030353
9970.0 0.00030267
9990.0 0.00030171
10010.0 0.00030069
10030.0 0.00029952
10050.0 0.00029819
10070.0 0.00029677
10090.0 0.00029549
10110.0 0.00029409
10130.0 0.00029275
10150.0 0.00029139
10170.0 0.00028997
10190.0 0.00028849
10210.0 0.00028711
10230.0 0.00028575
10250.0 0.00028433
10270.0 0.00028292
10290.0 0.00028158
10310.0 0.00028018
10330.0 0.00027872
10350.0 0.00027735
10370.0 0.000276
10390.0 0.00027457
10410.0 0.00027316
10430.0 0.00027184
10450.0 0.00027044
10470.0 0.00026901
10490.0 0.00026765
10510.0 0.0002663
10530.0 0.00026483
10550.0 0.00026341
10570.0 0.00026207
10590.0 0.00026066
10610.0 0.00025922
10630.0 0.00025786
10650.0 0.00025648
10670.0 0.00025501
10690.0 0.00025359
10710.0 0.00025221
10730.0 0.00025077
10750.0 0.00024925
10770.0 0.00024787
10790.0 0.00024646
10810.0 0.00024496
10830.0 0.00024351
10850.0 0.00024211
10870.0 0.00024055
10890.0 0.00023896
10910.0 0.00023738
10930.0 0.00023568
10950.0 0.00023371
10970.0 0.00023159
10990.0 0.00022932
11010.0 0.00020696
11030.0 0.00020421
11050.0 0.00020156
11070.0 0.00019884
11090.0 0.00019592
11110.0 0.00019321
11130.0 0.00019058
11150.0 0.00018787
11170.0 0.00018516
11190.0 0.00018264
11210.0 0.00018005
11230.0 0.00017738
11250.0 0.00017484
11270.0 0.00017237
11290.0 0.00016981
11310.0 0.00016729
11330.0 0.00016502
11350.0 0.00016275
11370.0 0.0001605
11390.0 0.00015843
11410.0 0.00015648
11430.0 0.00015444
11450.0 0.0001525
11470.0 0.00015068
11490.0 0.00014881
11510.0 0.00014682
11530.0 0.00014491
11550.0 0.00014296
11570.0 0.0001408
11590.0 0.00013856
11610.0 0.00013632
11630.0 0.00013385
11650.0 0.00013117
11670.0 0.00012856
11690.0 0.00012587
11710.0 0.000123
11730.0 0.00012014
11750.0 0.00011742
11770.0 0.0001146
11790.0 0.00011179
11810.0 0.00010918
11830.0 0.00010668
11850.0 0.00010414
11870.0 0.00010183
11890.0 9.9742e-05
11910.0 9.7709e-05
11930.0 9.5784e-05
11950.0 9.4079e-05
11970.0 9.2468e-05
11990.0 9.0879e-05
12010.0 8.9448e-05
12030.0 8.8145e-05
12050.0 8.6873e-05
12070.0 8.5647e-05
12090.0 8.4598e-05
12110.0 8.3602e-05
12130.0 8.2648e-05
12150.0 8.1812e-05
12170.0 8.1104e-05
12190.0 8.0439e-05
12210.0 7.9911e-05
12230.0 7.9552e-05
12250.0 7.9334e-05
12270.0 7.9276e-05
12290.0 7.9421e-05
12310.0 7.9763e-05
12330.0 8.0316e-05
12350.0 8.1093e-05
12370.0 8.2067e-05
12390.0 8.3251e-05
12410.0 8.4692e-05
12430.0 8.6252e-05
12450.0 8.7938e-05
12470.0 8.9783e-05
12490.0 9.1708e-05
12510.0 9.3601e-05
12530.0 9.5543e-05
12550.0 9.7485e-05
12570.0 9.9306e-05
12590.0 0.00010101
12610.0 0.00010264
12630.0 0.0001041
12650.0 0.00010534
12670.0 0.00010643
12690.0 0.00010733
12710.0 0.00010802
12730.0 0.00010853
12750.0 0.00010885
12770.0 0.00010898
12790.0 0.00010895
12810.0 0.00010875
12830.0 0.00010838
12850.0 0.00010791
12870.0 0.00010733
12890.0 0.00010661
12910.0 0.00010581
12930.0 0.00010498
12950.0 0.00010403
12970.0 0.00010299
12990.0 0.00010196
13010.0 0.00010089
13030.0 9.9718e-05
13050.0 9.8529e-05
13070.0 9.7354e-05
13090.0 9.6087e-05
13110.0 9.4777e-05
13130.0 9.35e-05
13150.0 9.2217e-05
13170.0 9.0875e-05
13190.0 8.9624e-05
13210.0 8.8478e-05
13230.0 8.738e-05
13250.0 8.6396e-05
13270.0 8.5598e-05
13290.0 8.4949e-05
13310.0 8.4461e-05
13330.0 8.4189e-05
13350.0 8.4108e-05
13370.0 8.42e-05
13390.0 8.4456e-05
13410.0 8.4818e-05
13430.0 8.5255e-05
13450.0 8.5729e-05
13470.0 8.6166e-05
13490.0 8.6518e-05
13510.0 8.6758e-05
13530.0 8.6819e-05
13550.0 8.6687e-05
13570.0 8.6345e-05
13590.0 8.5766e-05
13610.0 8.4996e-05
13630.0 8.4071e-05
13650.0 8.2944e-05
13670.0 8.1695e-05
13690.0 8.0407e-05
13710.0 7.9049e-05
13730.0 7.761e-05
13750.0 7.6274e-05
13770.0 7.4992e-05
13790.0 7.3736e-05
13810.0 7.2568e-05
13830.0 7.1535e-05
13850.0 7.0557e-05
13870.0 6.9655e-05
13890.0 6.8869e-05
13910.0 6.8168e-05
13930.0 6.7516e-05
13950.0 6.6938e-05
13970.0 6.6443e-05
13990.0 6.5986e-05
14010.0 6.5569e-05
14030.0 6.5205e-05
14050.0 6.4876e-05
14070.0 6.4563e-05
14090.0 6.4282e-05
14110.0 6.4026e-05
14130.0 6.378e-05
14150.0 6.3542e-05
14170.0 6.3318e-05
14190.0 6.3099e-05
14210.0 6.2879e-05
14230.0 6.2667e-05
14250.0 6.2465e-05
14270.0 6.2269e-05
14290.0 6.2086e-05
14310.0 6.1925e-05
14330.0 6.1783e-05
14350.0 6.1663e-05
14370.0 6.1566e-05
14390.0 6.1489e-05
14410.0 6.1429e-05
14430.0 6.1384e-05
14450.0 6.1341e-05
14470.0 6.1299e-05
14490.0 6.1254e-05
14510.0 6.1196e-05
14530.0 6.1122e-05
14550.0 6.1039e-05
14570.0 6.0945e-05
14590.0 6.0844e-05
14610.0 6.0748e-05
14630.0 6.0668e-05
14650.0 6.0611e-05
14670.0 6.0588e-05
14690.0 6.062e-05
14710.0 6.072e-05
14730.0 6.0876e-05
14750.0 6.1117e-05
14770.0 6.1462e-05
14790.0 6.1893e-05
14810.0 6.2404e-05
14830.0 6.3071e-05
14850.0 6.3835e-05
14870.0 6.466e-05
14890.0 6.5583e-05
14910.0 6.6592e-05
14930.0 6.7572e-05
14950.0 6.8489e-05
14970.0 6.936e-05
14990.0 7.007e-05
15010.0 7.0575e-05
15030.0 7.0907e-05
15050.0 7.1068e-05
15070.0 7.1053e-05
15090.0 7.0928e-05
15110.0 7.0728e-05
15130.0 7.0478e-05
15150.0 7.0202e-05
15170.0 6.991e-05
15190.0 6.961e-05
15210.0 6.9309e-05
15230.0 6.9007e-05
15250.0 6.8701e-05
15270.0 6.8396e-05
15290.0 6.8093e-05
15310.0 6.7788e-05
15330.0 6.7482e-05
15350.0 6.7178e-05
15370.0 6.6874e-05
15390.0 6.6567e-05
15410.0 6.6261e-05
15430.0 6.5957e-05
15450.0 6.5652e-05
15470.0 6.5345e-05
15490.0 6.5042e-05
15510.0 6.4738e-05
15530.0 6.4433e-05
15550.0 6.4129e-05
15570.0 6.3828e-05
15590.0 6.3524e-05
15610.0 6.322e-05
15630.0 6.2919e-05
15650.0 6.2618e-05
15670.0 6.2317e-05
15690.0 6.2017e-05
15710.0 6.1719e-05
15730.0 6.142e-05
15750.0 6.1121e-05
15770.0 6.0825e-05
15790.0 6.0529e-05
15810.0 6.0232e-05
15830.0 5.9937e-05
15850.0 5.9645e-05
15870.0 5.9352e-05
15890.0 5.906e-05
15910.0 5.8771e-05
15930.0 5.8481e-05
15950.0 5.8191e-05
15970.0 5.7904e-05
15990.0 5.7619e-05
16010.0 5.7333e-05
16030.0 5.7047e-05
16050.0 5.6766e-05
16070.0 5.6485e-05
16090.0 5.6203e-05
16110.0 5.5925e-05
16130.0 5.5648e-05
16150.0 5.537e-05
16170.0 5.5094e-05
16190.0 5.4821e-05
16210.0 5.4548e-05
16230.0 5.4276e-05
16250.0 5.4006e-05
16270.0 5.3739e-05
16290.0 5.3471e-05
16310.0 5.3205e-05
16330.0 5.2942e-05
16350.0 5.2679e-05
16370.0 5.2415e-05
16390.0 5.2156e-05
16410.0 5.1899e-05
16430.0 5.1641e-05
16450.0 5.1385e-05
16470.0 5.1133e-05
16490.0 5.088e-05
16510.0 5.0628e-05
16530.0 5.0379e-05
16550.0 5.0132e-05
16570.0 4.9884e-05
16590.0 4.9638e-05
16610.0 4.9397e-05
16630.0 4.9155e-05
16650.0 4.8914e-05
16670.0 4.8676e-05
16690.0 4.844e-05
16710.0 4.8202e-05
16730.0 4.7968e-05
16750.0 4.7737e-05
16770.0 4.7505e-05
16790.0 4.7275e-05
16810.0 4.7048e-05
16830.0 4.6823e-05
16850.0 4.6597e-05
16870.0 4.6374e-05
16890.0 4.6154e-05
16910.0 4.5933e-05
16930.0 4.5714e-05
16950.0 4.5498e-05
16970.0 4.5283e-05
16990.0 4.5068e-05
17010.0 4.4857e-05
17030.0 4.4647e-05
17050.0 4.4438e-05
17070.0 4.423e-05
17090.0 4.4025e-05
17110.0 4.3821e-05
17130.0 4.3616e-05
17150.0 4.3415e-05
17170.0 4.3216e-05
17190.0 4.3018e-05
17210.0 4.2821e-05
17230.0 4.2627e-05
17250.0 4.2433e-05
17270.0 4.224e-05
17290.0 4.2049e-05
17310.0 4.1861e-05
17330.0 4.1672e-05
17350.0 4.1485e-05
17370.0 4.1302e-05
17390.0 4.1119e-05
17410.0 4.0936e-05
17430.0 4.0756e-05
17450.0 4.0578e-05
17470.0 4.0399e-05
17490.0 4.0223e-05
17510.0 4.0049e-05
17530.0 3.9876e-05
17550.0 3.9703e-05
17570.0 3.9534e-05
17590.0 3.9366e-05
17610.0 3.9197e-05
17630.0 3.9031e-05
17650.0 3.8867e-05
17670.0 3.8703e-05
17690.0 3.8539e-05
17710.0 3.8379e-05
17730.0 3.8221e-05
17750.0 3.8062e-05
17770.0 3.7905e-05
17790.0 3.7751e-05
17810.0 3.7596e-05
17830.0 3.7442e-05
17850.0 3.7291e-05
17870.0 3.7142e-05
17890.0 3.6992e-05
17910.0 3.6843e-05
17930.0 3.6698e-05
17950.0 3.6553e-05
17970.0 3.6408e-05
17990.0 3.6266e-05
18010.0 3.6125e-05
18030.0 3.5983e-05
18050.0 3.5844e-05
18070.0 3.5707e-05
18090.0 3.557e-05
18110.0 3.5433e-05
18130.0 3.53e-05
18150.0 3.5167e-05
18170.0 3.5034e-05
18190.0 3.4903e-05
18210.0 3.4774e-05
18230.0 3.4645e-05
18250.0 3.4516e-05
18270.0 3.4391e-05
18290.0 3.4265e-05
18310.0 3.414e-05
18330.0 3.4017e-05
18350.0 3.3896e-05
18370.0 3.3774e-05
18390.0 3.3654e-05
18410.0 3.3535e-05
18430.0 3.3418e-05
18450.0 3.3299e-05
18470.0 3.3184e-05
18490.0 3.3069e-05
18510.0 3.2955e-05
18530.0 3.2842e-05
18550.0 3.2731e-05
18570.0 3.262e-05
18590.0 3.2509e-05
18610.0 3.24e-05
18630.0 3.2292e-05
18650.0 3.2184e-05
18670.0 3.2077e-05
18690.0 3.1973e-05
18710.0 3.1869e-05
18730.0 3.1765e-05
18750.0 3.1662e-05
18770.0 3.1561e-05
18790.0 3.1459e-05
18810.0 3.1359e-05
18830.0 3.1261e-05
18850.0 3.1162e-05
18870.0 3.1064e-05
18890.0 3.0968e-05
18910.0 3.0873e-05
18930.0 3.0777e-05
18950.0 3.0683e-05
18970.0 3.059e-05
18990.0 3.0498e-05
19010.0 3.0405e-05
19030.0 3.0314e-05
19050.0 3.0225e-05
19070.0 3.0135e-05
19090.0 3.0046e-05
19110.0 2.9959e-05
19130.0 2.9872e-05
19150.0 2.9785e-05
19170.0 2.97e-05
19190.0 2.9615e-05
19210.0 2.953e-05
19230.0 2.9446e-05
19250.0 2.9364e-05
19270.0 2.9282e-05
19290.0 2.92e-05
19310.0 2.912e-05
19330.0 2.9041e-05
19350.0 2.896e-05
19370.0 2.8881e-05
19390.0 2.8804e-05
19410.0 2.8726e-05
19430.0 2.8649e-05
19450.0 2.8574e-05
19470.0 2.8499e-05
19490.0 2.8423e-05
19510.0 2.8349e-05
19530.0 2.8276e-05
19550.0 2.8202e-05
19570.0 2.8129e-05
19590.0 2.8058e-05
19610.0 2.7987e-05
19630.0 2.7916e-05
19650.0 2.7846e-05
19670.0 2.7777e-05
19690.0 2.7708e-05
19710.0 2.7639e-05
19730.0 2.7572e-05
19750.0 2.7504e-05
19770.0 2.7436e-05
19790.0 2.7371e-05
19810.0 2.7305e-05
19830.0 2.7239e-05
19850.0 2.7172e-05
19870.0 2.7105e-05
19890.0 2.7032e-05
19910.0 2.6949e-05
19930.0 2.6853e-05
19950.0 2.6736e-05
19970.0 2.6583e-05
19990.0 2.6389e-05
20010.0 2.6159e-05
20030.0 2.5875e-05
20050.0 2.5539e-05
20070.0 2.5174e-05
20090.0 2.4783e-05
20110.0 2.4345e-05
20130.0 2.3906e-05
20150.0 2.3476e-05
20170.0 2.3035e-05
20190.0 2.2592e-05
20210.0 2.2175e-05
20230.0 2.177e-05
20250.0 2.1363e-05
20270.0 2.0982e-05
20290.0 2.063e-05
20310.0 2.029e-05
20330.0 1.9964e-05
20350.0 1.9683e-05
20370.0 1.9424e-05
20390.0 1.9184e-05
20410.0 1.8976e-05
20430.0 1.8801e-05
20450.0 1.8645e-05
20470.0 1.8517e-05
20490.0 1.8419e-05
20510.0 1.8346e-05
20530.0 1.8295e-05
20550.0 1.8267e-05
20570.0 1.826e-05
20590.0 1.8271e-05
20610.0 1.8299e-05
20630.0 1.8338e-05
20650.0 1.8389e-05
20670.0 1.8452e-05
20690.0 1.8518e-05
20710.0 1.8587e-05
20730.0 1.8658e-05
20750.0 1.8729e-05
20770.0 1.8792e-05
20790.0 1.8851e-05
20810.0 1.8905e-05
20830.0 1.8947e-05
20850.0 1.8978e-05
20870.0 1.8999e-05
20890.0 1.9006e-05
20910.0 1.8999e-05
20930.0 1.898e-05
20950.0 1.8945e-05
20970.0 1.8898e-05
20990.0 1.8839e-05
21010.0 1.8765e-05
21030.0 1.8679e-05
21050.0 1.8586e-05
21070.0 1.8482e-05
21090.0 1.8366e-05
21110.0 1.8249e-05
21130.0 1.8129e-05
21150.0 1.8002e-05
21170.0 1.7874e-05
21190.0 1.7751e-05
21210.0 1.7626e-05
21230.0 1.7502e-05
21250.0 1.7389e-05
21270.0 1.7282e-05
21290.0 1.7179e-05
21310.0 1.7086e-05
21330.0 1.7007e-05
21350.0 1.6936e-05
21370.0 1.6875e-05
21390.0 1.6827e-05
21410.0 1.6791e-05
21430.0 1.6765e-05
21450.0 1.6753e-05
21470.0 1.6752e-05
21490.0 1.6762e-05
21510.0 1.6785e-05
21530.0 1.6816e-05
21550.0 1.6857e-05
21570.0 1.691e-05
21590.0 1.6971e-05
21610.0 1.7039e-05
21630.0 1.7117e-05
21650.0 1.7206e-05
21670.0 1.7295e-05
21690.0 1.7391e-05
21710.0 1.7496e-05
21730.0 1.7603e-05
21750.0 1.771e-05
21770.0 1.7827e-05
21790.0 1.7946e-05
21810.0 1.8062e-05
21830.0 1.8179e-05
21850.0 1.83e-05
21870.0 1.8417e-05
21890.0 1.8527e-05
21910.0 1.8639e-05
21930.0 1.8747e-05
21950.0 1.8846e-05
21970.0 1.8941e-05
21990.0 1.9033e-05
22010.0 1.9113e-05
22030.0 1.9183e-05
22050.0 1.9246e-05
22070.0 1.9299e-05
22090.0 1.9338e-05
22110.0 1.9366e-05
22130.0 1.9382e-05
22150.0 1.9385e-05
22170.0 1.9374e-05
22190.0 1.9348e-05
22210.0 1.9306e-05
22230.0 1.9252e-05
22250.0 1.9183e-05
22270.0 1.9097e-05
22290.0 1.8999e-05
22310.0 1.889e-05
22330.0 1.8761e-05
22350.0 1.862e-05
22370.0 1.8472e-05
22390.0 1.831e-05
22410.0 1.8131e-05
22430.0 1.7951e-05
22450.0 1.7764e-05
22470.0 1.7562e-05
22490.0 1.7357e-05
22510.0 1.7154e-05
22530.0 1.6939e-05
22550.0 1.6718e-05
22570.0 1.6505e-05
22590.0 1.6292e-05
