#lamb flux
1010.0 9.9428e-05
1030.0 0.00011559
1050.0 0.00013067
1070.0 0.00014384
1090.0 0.00015496
1110.0 0.00016113
1130.0 0.00016236
1150.0 0.00015983
1170.0 0.00015339
1190.0 0.00014217
1210.0 0.00012788
1230.0 0.0001109
1250.0 9.1078e-05
1270.0 6.8963e-05
1290.0 4.5389e-05
1310.0 2.0423e-05
1330.0 1e-99
1350.0 1e-99
1370.0 1e-99
1390.0 1e-99
1410.0 1e-99
1430.0 1e-99
1450.0 1e-99
1470.0 1e-99
1490.0 1e-99
1510.0 1e-99
1530.0 1e-99
1550.0 1e-99
1570.0 1e-99
1590.0 1e-99
1610.0 1e-99
1630.0 1e-99
1650.0 1e-99
1670.0 1e-99
1690.0 1e-99
1710.0 1e-99
1730.0 1e-99
1750.0 2.5501e-05
1770.0 7.3393e-05
1790.0 0.00012795
1810.0 0.00018964
1830.0 0.00025901
1850.0 0.000337
1870.0 0.00042419
1890.0 0.00052098
1910.0 0.00062853
1930.0 0.00074774
1950.0 0.00087801
1970.0 0.0010201
1990.0 0.0011754
2010.0 0.0013429
2030.0 0.0015218
2050.0 0.0017137
2070.0 0.001918
2090.0 0.0021311
2110.0 0.0023536
2130.0 0.0025855
2150.0 0.0028233
2170.0 0.0030636
2190.0 0.0033083
2210.0 0.003554
2230.0 0.0037956
2250.0 0.0040325
2270.0 0.0042657
2290.0 0.004488
2310.0 0.0046963
2330.0 0.0048934
2350.0 0.0050756
2370.0 0.0052374
2390.0 0.00538
2410.0 0.0055032
2430.0 0.0055985
2450.0 0.0056636
2470.0 0.005698
2490.0 0.0056979
2510.0 0.0056642
2530.0 0.0056053
2550.0 0.0055345
2570.0 0.0054735
2590.0 0.0054469
2610.0 0.0054979
2630.0 0.00566
2650.0 0.0059399
2670.0 0.0063663
2690.0 0.0069591
2710.0 0.0076545
2730.0 0.0084097
2750.0 0.0092494
2770.0 0.010073
2790.0 0.010801
2810.0 0.011444
2830.0 0.012002
2850.0 0.012391
2870.0 0.012674
2890.0 0.012899
2910.0 0.013071
2930.0 0.013204
2950.0 0.013345
2970.0 0.0135
2990.0 0.013658
3010.0 0.013831
3030.0 0.014037
3050.0 0.014263
3070.0 0.014493
3090.0 0.01475
3110.0 0.015029
3130.0 0.015313
3150.0 0.015622
3170.0 0.015966
3190.0 0.016338
3210.0 0.016756
3230.0 0.017255
3250.0 0.017844
3270.0 0.018503
3290.0 0.019297
3310.0 0.020287
3330.0 0.021388
3350.0 0.022541
3370.0 0.02377
3390.0 0.025028
3410.0 0.026194
3430.0 0.027271
3450.0 0.028154
3470.0 0.028662
3490.0 0.028915
3510.0 0.02892
3530.0 0.029278
3550.0 0.032222
3570.0 0.035841
3590.0 0.036083
3610.0 0.04205
3630.0 0.042824
3650.0 0.038758
3670.0 0.036935
3690.0 0.037961
3710.0 0.039255
3730.0 0.041315
3750.0 0.040348
3770.0 0.040255
3790.0 0.039834
3810.0 0.039197
3830.0 0.035478
3850.0 0.03216
3870.0 0.033179
3890.0 0.036716
3910.0 0.037766
3930.0 0.03713
3950.0 0.036506
3970.0 0.037948
3990.0 0.040112
4010.0 0.039914
4030.0 0.03678
4050.0 0.035984
4070.0 0.036394
4090.0 0.037811
4110.0 0.037175
4130.0 0.036498
4150.0 0.035569
4170.0 0.03593
4190.0 0.035881
4210.0 0.033698
4230.0 0.031317
4250.0 0.028393
4270.0 0.025284
4290.0 0.023326
4310.0 0.021519
4330.0 0.022976
4350.0 0.025112
4370.0 0.026137
4390.0 0.027969
4410.0 0.029624
4430.0 0.030079
4450.0 0.028874
4470.0 0.028537
4490.0 0.029535
4510.0 0.029829
4530.0 0.029572
4550.0 0.029514
4570.0 0.030177
4590.0 0.03125
4610.0 0.032817
4630.0 0.03374
4650.0 0.032983
4670.0 0.03262
4690.0 0.030508
4710.0 0.028613
4730.0 0.028618
4750.0 0.02813
4770.0 0.026816
4790.0 0.025592
4810.0 0.025636
4830.0 0.024057
4850.0 0.02485
4870.0 0.015205
4890.0 0.017138
4910.0 0.022017
4930.0 0.022825
4950.0 0.019617
4970.0 0.018431
4990.0 0.018067
5010.0 0.0164
5030.0 0.016002
5050.0 0.017515
5070.0 0.018328
5090.0 0.019505
5110.0 0.020719
5130.0 0.020688
5150.0 0.021873
5170.0 0.021446
5190.0 0.020757
5210.0 0.021813
5230.0 0.021618
5250.0 0.021702
5270.0 0.021354
5290.0 0.021088
5310.0 0.019793
5330.0 0.018908
5350.0 0.017497
5370.0 0.017104
5390.0 0.018349
5410.0 0.017318
5430.0 0.018312
5450.0 0.018012
5470.0 0.017985
5490.0 0.018116
5510.0 0.016874
5530.0 0.017096
5550.0 0.016537
5570.0 0.016593
5590.0 0.016833
5610.0 0.017266
5630.0 0.017126
5650.0 0.017442
5670.0 0.016271
5690.0 0.016529
5710.0 0.015413
5730.0 0.015857
5750.0 0.015391
5770.0 0.014412
5790.0 0.015053
5810.0 0.014918
5830.0 0.015352
5850.0 0.015721
5870.0 0.015643
5890.0 0.01548
5910.0 0.015695
5930.0 0.015307
5950.0 0.01571
5970.0 0.015013
5990.0 0.015183
6010.0 0.01495
6030.0 0.014866
6050.0 0.01502
6070.0 0.014106
6090.0 0.013912
6110.0 0.014316
6130.0 0.014098
6150.0 0.013887
6170.0 0.013537
6190.0 0.012616
6210.0 0.011853
6230.0 0.011859
6250.0 0.01198
6270.0 0.011815
6290.0 0.012364
6310.0 0.013301
6330.0 0.013525
6350.0 0.013088
6370.0 0.013362
6390.0 0.013397
6410.0 0.013134
6430.0 0.012516
6450.0 0.012627
6470.0 0.012758
6490.0 0.012445
6510.0 0.01213
6530.0 0.011864
6550.0 0.011854
6570.0 0.011478
6590.0 0.011398
6610.0 0.011419
6630.0 0.01095
6650.0 0.0103
6670.0 0.010101
6690.0 0.010416
6710.0 0.010329
6730.0 0.010014
6750.0 0.0097464
6770.0 0.0094286
6790.0 0.0095083
6810.0 0.0095136
6830.0 0.0093011
6850.0 0.0088062
6870.0 0.0087887
6890.0 0.0087872
6910.0 0.0084643
6930.0 0.0085662
6950.0 0.0082267
6970.0 0.0081052
6990.0 0.0079821
7010.0 0.0083034
7030.0 0.0083391
7050.0 0.0079963
7070.0 0.0079116
7090.0 0.0079779
7110.0 0.0077449
7130.0 0.0078129
7150.0 0.0077709
7170.0 0.0077672
7190.0 0.0075461
7210.0 0.007664
7230.0 0.0080457
7250.0 0.0077318
7270.0 0.0080931
7290.0 0.0078514
7310.0 0.0075071
7330.0 0.0071712
7350.0 0.00732
7370.0 0.007263
7390.0 0.007212
7410.0 0.0067259
7430.0 0.0064432
7450.0 0.0065845
7470.0 0.0067092
7490.0 0.0072558
7510.0 0.0073247
7530.0 0.0071441
7550.0 0.007041
7570.0 0.0059886
7590.0 0.0061178
7610.0 0.0057505
7630.0 0.0060079
7650.0 0.0058558
7670.0 0.0061503
7690.0 0.0054507
7710.0 0.0060952
7730.0 0.0059708
7750.0 0.0068031
7770.0 0.0069237
7790.0 0.0071411
7810.0 0.0076563
7830.0 0.0076053
7850.0 0.0083049
7870.0 0.0079003
7890.0 0.0080746
7910.0 0.0080239
7930.0 0.0075733
7950.0 0.0072578
7970.0 0.0071904
7990.0 0.0070491
8010.0 0.0064998
8030.0 0.0064561
8050.0 0.0063219
8070.0 0.0062547
8090.0 0.0060006
8110.0 0.0060428
8130.0 0.006187
8150.0 0.0063316
8170.0 0.0062963
8190.0 0.0064311
8210.0 0.0063473
8230.0 0.0060749
8250.0 0.0060122
8270.0 0.0059029
8290.0 0.0057925
8310.0 0.0055349
8330.0 0.00558
8350.0 0.0055832
8370.0 0.0056086
8390.0 0.0056866
8410.0 0.0056256
8430.0 0.0056531
8450.0 0.0056956
8470.0 0.0057775
8490.0 0.0058551
8510.0 0.0057223
8530.0 0.0054994
8550.0 0.005533
8570.0 0.0055101
8590.0 0.0053377
8610.0 0.005445
8630.0 0.0053684
8650.0 0.0052752
8670.0 0.0052369
8690.0 0.0052128
8710.0 0.0049808
8730.0 0.0050626
8750.0 0.0048999
8770.0 0.0048953
8790.0 0.0047572
8810.0 0.0046847
8830.0 0.0047071
8850.0 0.0045547
8870.0 0.0043371
8890.0 0.0042706
8910.0 0.0040492
8930.0 0.0037561
8950.0 0.0037452
8970.0 0.0035962
8990.0 0.0035616
9010.0 0.0035116
9030.0 0.0034843
9050.0 0.0034601
9070.0 0.0034359
9090.0 0.0034114
9110.0 0.0033866
9130.0 0.0033618
9150.0 0.0033372
9170.0 0.0033126
9190.0 0.0032877
9210.0 0.0032628
9230.0 0.0032378
9250.0 0.0032128
9270.0 0.0031877
9290.0 0.0031626
9310.0 0.0031375
9330.0 0.0031125
9350.0 0.0030876
9370.0 0.0030626
9390.0 0.0030378
9410.0 0.0030129
9430.0 0.0029881
9450.0 0.0029634
9470.0 0.0029408
9490.0 0.0029172
9510.0 0.0028916
9530.0 0.0028664
9550.0 0.0028417
9570.0 0.0028174
9590.0 0.0027932
9610.0 0.0027693
9630.0 0.0027457
9650.0 0.0027222
9670.0 0.0026988
9690.0 0.0026757
9710.0 0.0026527
9730.0 0.0026298
9750.0 0.0026072
9770.0 0.0025849
9790.0 0.0025626
9810.0 0.0025405
9830.0 0.0025184
9850.0 0.0024939
9870.0 0.0024712
9890.0 0.0024518
9910.0 0.0024321
9930.0 0.002408
9950.0 0.0023874
9970.0 0.0023689
9990.0 0.0023499
10010.0 0.0023309
10030.0 0.0023118
10050.0 0.0022925
10070.0 0.0022735
10090.0 0.0022549
10110.0 0.002236
10130.0 0.0022173
10150.0 0.0021993
10170.0 0.0021814
10190.0 0.0021635
10210.0 0.0021461
10230.0 0.002129
10250.0 0.0021119
10270.0 0.0020951
10290.0 0.0020788
10310.0 0.0020624
10330.0 0.0020461
10350.0 0.0020304
10370.0 0.0020149
10390.0 0.0019994
10410.0 0.0019838
10430.0 0.0019687
10450.0 0.0019544
10470.0 0.00194
10490.0 0.001926
10510.0 0.0019123
10530.0 0.0018982
10550.0 0.0018846
10570.0 0.0018715
10590.0 0.0018584
10610.0 0.0018453
10630.0 0.0018328
10650.0 0.0018204
10670.0 0.0018079
10690.0 0.0017958
10710.0 0.0017841
10730.0 0.0017723
10750.0 0.0017605
10770.0 0.0017494
10790.0 0.0017384
10810.0 0.0017273
10830.0 0.0017166
10850.0 0.0017063
10870.0 0.0016958
10890.0 0.0016855
10910.0 0.0016757
10930.0 0.0016661
10950.0 0.0016566
10970.0 0.0016475
10990.0 0.001639
11010.0 0.001611
11030.0 0.0016039
11050.0 0.0015976
11070.0 0.0015917
11090.0 0.0015855
11110.0 0.0015796
11130.0 0.0015737
11150.0 0.0015674
11170.0 0.0015608
11190.0 0.0015543
11210.0 0.0015475
11230.0 0.0015403
11250.0 0.0015334
11270.0 0.0015267
11290.0 0.0015198
11310.0 0.0015132
11330.0 0.0015074
11350.0 0.0015017
11370.0 0.0014963
11390.0 0.0014914
11410.0 0.0014871
11430.0 0.0014825
11450.0 0.0014783
11470.0 0.0014744
11490.0 0.0014704
11510.0 0.0014661
11530.0 0.0014619
11550.0 0.0014577
11570.0 0.0014529
11590.0 0.0014479
11610.0 0.0014429
11630.0 0.0014375
11650.0 0.0014316
11670.0 0.001426
11690.0 0.0014203
11710.0 0.0014142
11730.0 0.0014083
11750.0 0.0014028
11770.0 0.0013969
11790.0 0.001391
11810.0 0.0013856
11830.0 0.0013803
11850.0 0.0013746
11870.0 0.0013694
11890.0 0.0013648
11910.0 0.0013602
11930.0 0.0013559
11950.0 0.0013524
11970.0 0.0013493
11990.0 0.0013464
12010.0 0.0013445
12030.0 0.0013435
12050.0 0.001343
12070.0 0.0013434
12090.0 0.0013448
12110.0 0.001347
12130.0 0.0013499
12150.0 0.0013536
12170.0 0.0013579
12190.0 0.0013628
12210.0 0.0013681
12230.0 0.0013737
12250.0 0.0013795
12270.0 0.0013854
12290.0 0.0013911
12310.0 0.0013966
12330.0 0.0014019
12350.0 0.0014067
12370.0 0.0014111
12390.0 0.001415
12410.0 0.0014181
12430.0 0.0014207
12450.0 0.0014227
12470.0 0.0014237
12490.0 0.001424
12510.0 0.0014236
12530.0 0.0014222
12550.0 0.0014198
12570.0 0.0014167
12590.0 0.0014128
12610.0 0.0014076
12630.0 0.0014016
12650.0 0.0013953
12670.0 0.001388
12690.0 0.0013798
12710.0 0.0013714
12730.0 0.0013626
12750.0 0.0013527
12770.0 0.0013427
12790.0 0.001333
12810.0 0.0013228
12830.0 0.0013123
12850.0 0.0013024
12870.0 0.0012928
12890.0 0.001283
12910.0 0.0012737
12930.0 0.0012653
12950.0 0.0012568
12970.0 0.0012487
12990.0 0.0012417
13010.0 0.0012352
13030.0 0.001229
13050.0 0.0012235
13070.0 0.0012187
13090.0 0.0012142
13110.0 0.00121
13130.0 0.0012064
13150.0 0.0012031
13170.0 0.0011998
13190.0 0.0011969
13210.0 0.0011944
13230.0 0.0011918
13250.0 0.0011893
13270.0 0.001187
13290.0 0.0011846
13310.0 0.0011821
13330.0 0.0011795
13350.0 0.0011769
13370.0 0.0011739
13390.0 0.0011704
13410.0 0.0011669
13430.0 0.0011629
13450.0 0.0011582
13470.0 0.0011532
13490.0 0.0011479
13510.0 0.0011417
13530.0 0.0011351
13550.0 0.0011283
13570.0 0.001121
13590.0 0.0011131
13610.0 0.0011051
13630.0 0.0010969
13650.0 0.0010881
13670.0 0.0010791
13690.0 0.0010702
13710.0 0.0010608
13730.0 0.0010508
13750.0 0.001041
13770.0 0.0010312
13790.0 0.0010209
13810.0 0.0010105
13830.0 0.0010005
13850.0 0.00099007
13870.0 0.00097949
13890.0 0.00096929
13910.0 0.00095927
13930.0 0.00094903
13950.0 0.00093902
13970.0 0.00092968
13990.0 0.00092028
14010.0 0.00091099
14030.0 0.00090219
14050.0 0.00089365
14070.0 0.00088491
14090.0 0.00087654
14110.0 0.00086851
14130.0 0.00086043
14150.0 0.00085228
14170.0 0.00084451
14190.0 0.00083678
14210.0 0.00082886
14230.0 0.00082109
14250.0 0.00081354
14270.0 0.0008058
14290.0 0.00079806
14310.0 0.00079072
14330.0 0.00078349
14350.0 0.00077626
14370.0 0.00076934
14390.0 0.00076279
14410.0 0.00075626
14430.0 0.00074994
14450.0 0.00074398
14470.0 0.0007382
14490.0 0.00073242
14510.0 0.00072692
14530.0 0.00072162
14550.0 0.00071629
14570.0 0.00071098
14590.0 0.00070582
14610.0 0.0007006
14630.0 0.00069525
14650.0 0.00068996
14670.0 0.00068469
14690.0 0.00067929
14710.0 0.0006738
14730.0 0.00066847
14750.0 0.00066305
14770.0 0.00065752
14790.0 0.00065206
14810.0 0.00064666
14830.0 0.00064104
14850.0 0.00063546
14870.0 0.00062999
14890.0 0.00062446
14910.0 0.00061888
14930.0 0.00061346
14950.0 0.00060823
14970.0 0.00060302
14990.0 0.00059807
15010.0 0.00059343
15030.0 0.00058899
15050.0 0.0005847
15070.0 0.00058071
15090.0 0.00057686
15110.0 0.00057305
15130.0 0.00056932
15150.0 0.00056569
15170.0 0.00056203
15190.0 0.00055836
15210.0 0.00055475
15230.0 0.00055116
15250.0 0.00054752
15270.0 0.00054391
15290.0 0.00054038
15310.0 0.00053681
15330.0 0.00053323
15350.0 0.00052972
15370.0 0.00052622
15390.0 0.00052266
15410.0 0.00051916
15430.0 0.00051571
15450.0 0.00051224
15470.0 0.00050875
15490.0 0.00050535
15510.0 0.00050196
15530.0 0.00049854
15550.0 0.00049516
15570.0 0.00049183
15590.0 0.00048846
15610.0 0.0004851
15630.0 0.00048182
15650.0 0.00047854
15670.0 0.00047525
15690.0 0.000472
15710.0 0.00046881
15730.0 0.00046559
15750.0 0.00046238
15770.0 0.00045923
15790.0 0.0004561
15810.0 0.00045292
15830.0 0.00044982
15850.0 0.00044677
15870.0 0.00044369
15890.0 0.00044063
15910.0 0.00043764
15930.0 0.00043465
15950.0 0.00043164
15970.0 0.00042869
15990.0 0.00042577
16010.0 0.00042284
16030.0 0.00041993
16050.0 0.00041709
16070.0 0.00041425
16090.0 0.00041141
16110.0 0.00040862
16130.0 0.00040587
16150.0 0.00040307
16170.0 0.00040032
16190.0 0.00039763
16210.0 0.00039495
16230.0 0.00039225
16250.0 0.00038962
16270.0 0.00038702
16290.0 0.0003844
16310.0 0.00038181
16330.0 0.00037928
16350.0 0.00037674
16370.0 0.00037418
16390.0 0.00037171
16410.0 0.00036926
16430.0 0.00036679
16450.0 0.00036436
16470.0 0.00036199
16490.0 0.0003596
16510.0 0.00035721
16530.0 0.00035489
16550.0 0.00035258
16570.0 0.00035026
16590.0 0.00034797
16610.0 0.00034574
16630.0 0.00034351
16650.0 0.00034128
16670.0 0.0003391
16690.0 0.00033695
16710.0 0.00033476
16730.0 0.00033263
16750.0 0.00033054
16770.0 0.00032844
16790.0 0.00032634
16810.0 0.00032431
16830.0 0.0003223
16850.0 0.00032027
16870.0 0.00031828
16890.0 0.00031633
16910.0 0.00031436
16930.0 0.0003124
16950.0 0.0003105
16970.0 0.00030861
16990.0 0.00030672
17010.0 0.00030486
17030.0 0.00030305
17050.0 0.00030121
17070.0 0.00029939
17090.0 0.00029762
17110.0 0.00029586
17130.0 0.00029407
17150.0 0.00029234
17170.0 0.00029065
17190.0 0.00028894
17210.0 0.00028725
17230.0 0.00028561
17250.0 0.00028396
17270.0 0.0002823
17290.0 0.00028069
17310.0 0.00027911
17330.0 0.00027751
17350.0 0.00027593
17370.0 0.0002744
17390.0 0.00027287
17410.0 0.00027133
17430.0 0.00026984
17450.0 0.00026837
17470.0 0.00026687
17490.0 0.0002654
17510.0 0.00026397
17530.0 0.00026254
17550.0 0.0002611
17570.0 0.00025971
17590.0 0.00025835
17610.0 0.00025696
17630.0 0.00025559
17650.0 0.00025426
17670.0 0.00025293
17690.0 0.00025157
17710.0 0.00025028
17730.0 0.000249
17750.0 0.00024771
17770.0 0.00024643
17790.0 0.00024521
17810.0 0.00024395
17830.0 0.0002427
17850.0 0.00024149
17870.0 0.0002403
17890.0 0.00023908
17910.0 0.00023788
17930.0 0.00023674
17950.0 0.00023557
17970.0 0.00023441
17990.0 0.00023329
18010.0 0.00023217
18030.0 0.00023102
18050.0 0.00022991
18070.0 0.00022883
18090.0 0.00022774
18110.0 0.00022664
18130.0 0.0002256
18150.0 0.00022455
18170.0 0.00022348
18190.0 0.00022245
18210.0 0.00022144
18230.0 0.0002204
18250.0 0.00021937
18270.0 0.00021839
18290.0 0.0002174
18310.0 0.0002164
18330.0 0.00021543
18350.0 0.00021449
18370.0 0.00021351
18390.0 0.00021255
18410.0 0.00021162
18430.0 0.00021069
18450.0 0.00020973
18470.0 0.00020881
18490.0 0.00020792
18510.0 0.000207
18530.0 0.0002061
18550.0 0.00020523
18570.0 0.00020434
18590.0 0.00020344
18610.0 0.00020257
18630.0 0.00020172
18650.0 0.00020085
18670.0 0.00019998
18690.0 0.00019916
18710.0 0.00019832
18730.0 0.00019747
18750.0 0.00019665
18770.0 0.00019585
18790.0 0.000195
18810.0 0.00019418
18830.0 0.00019339
18850.0 0.00019258
18870.0 0.00019177
18890.0 0.00019099
18910.0 0.00019022
18930.0 0.00018941
18950.0 0.00018863
18970.0 0.00018788
18990.0 0.0001871
19010.0 0.0001863
19030.0 0.00018556
19050.0 0.00018481
19070.0 0.00018404
19090.0 0.00018329
19110.0 0.00018257
19130.0 0.00018181
19150.0 0.00018106
19170.0 0.00018033
19190.0 0.00017961
19210.0 0.00017885
19230.0 0.00017812
19250.0 0.00017742
19270.0 0.00017669
19290.0 0.00017596
19310.0 0.00017526
19330.0 0.00017456
19350.0 0.00017382
19370.0 0.00017311
19390.0 0.00017242
19410.0 0.00017171
19430.0 0.00017099
19450.0 0.00017031
19470.0 0.00016962
19490.0 0.0001689
19510.0 0.00016821
19530.0 0.00016754
19550.0 0.00016682
19570.0 0.00016611
19590.0 0.00016544
19610.0 0.00016476
19630.0 0.00016406
19650.0 0.00016338
19670.0 0.00016272
19690.0 0.00016201
19710.0 0.00016132
19730.0 0.00016065
19750.0 0.00015997
19770.0 0.00015926
19790.0 0.00015859
19810.0 0.00015793
19830.0 0.00015724
19850.0 0.00015656
19870.0 0.00015591
19890.0 0.00015523
19910.0 0.00015454
19930.0 0.00015391
19950.0 0.0001533
19970.0 0.00015269
19990.0 0.00015213
20010.0 0.00015166
20030.0 0.00015121
20050.0 0.00015081
20070.0 0.00015048
20090.0 0.00015019
20110.0 0.00014991
20130.0 0.00014969
20150.0 0.0001495
20170.0 0.00014932
20190.0 0.00014915
20210.0 0.00014902
20230.0 0.00014889
20250.0 0.00014877
20270.0 0.00014866
20290.0 0.00014858
20310.0 0.00014849
20330.0 0.00014839
20350.0 0.00014833
20370.0 0.00014826
20390.0 0.00014819
20410.0 0.00014814
20430.0 0.00014809
20450.0 0.00014804
20470.0 0.000148
20490.0 0.00014798
20510.0 0.00014797
20530.0 0.00014796
20550.0 0.00014799
20570.0 0.00014804
20590.0 0.0001481
20610.0 0.00014819
20630.0 0.00014832
20650.0 0.00014847
20670.0 0.00014864
20690.0 0.00014884
20710.0 0.00014906
20730.0 0.00014931
20750.0 0.00014956
20770.0 0.00014983
20790.0 0.0001501
20810.0 0.00015036
20830.0 0.00015061
20850.0 0.00015085
20870.0 0.00015106
20890.0 0.00015125
20910.0 0.0001514
20930.0 0.00015151
20950.0 0.00015158
20970.0 0.00015161
20990.0 0.0001516
21010.0 0.00015154
21030.0 0.00015143
21050.0 0.00015128
21070.0 0.0001511
21090.0 0.00015085
21110.0 0.00015059
21130.0 0.0001503
21150.0 0.00014997
21170.0 0.00014961
21190.0 0.00014925
21210.0 0.00014884
21230.0 0.0001484
21250.0 0.00014797
21270.0 0.00014752
21290.0 0.00014703
21310.0 0.00014654
21330.0 0.00014606
21350.0 0.00014553
21370.0 0.00014498
21390.0 0.00014444
21410.0 0.00014388
21430.0 0.00014326
21450.0 0.00014264
21470.0 0.00014203
21490.0 0.00014137
21510.0 0.00014068
21530.0 0.00014001
21550.0 0.00013931
21570.0 0.00013856
21590.0 0.00013781
21610.0 0.00013707
21630.0 0.00013629
21650.0 0.00013546
21670.0 0.00013468
21690.0 0.00013388
21710.0 0.00013305
21730.0 0.00013222
21750.0 0.00013142
21770.0 0.00013056
21790.0 0.0001297
21810.0 0.00012888
21830.0 0.00012805
21850.0 0.00012718
21870.0 0.00012635
21890.0 0.00012555
21910.0 0.00012472
21930.0 0.00012389
21950.0 0.00012311
21970.0 0.00012232
21990.0 0.0001215
22010.0 0.00012073
22030.0 0.00011998
22050.0 0.00011921
22070.0 0.00011845
22090.0 0.00011774
22110.0 0.00011701
22130.0 0.00011627
22150.0 0.00011555
22170.0 0.00011485
22190.0 0.00011411
22210.0 0.00011337
22230.0 0.00011268
22250.0 0.00011196
22270.0 0.00011122
22290.0 0.0001105
22310.0 0.00010979
22330.0 0.00010903
22350.0 0.00010828
22370.0 0.00010756
22390.0 0.00010681
22410.0 0.00010604
22430.0 0.00010531
22450.0 0.00010459
22470.0 0.00010384
22490.0 0.0001031
22510.0 0.0001024
22530.0 0.00010168
22550.0 0.00010096
22570.0 0.00010029
22590.0 9.962e-05
22610.0 9.8944e-05
22630.0 9.829e-05
22650.0 9.7674e-05
22670.0 9.7046e-05
22690.0 9.6423e-05
22710.0 9.583e-05
22730.0 9.5246e-05
22750.0 9.4642e-05
22770.0 9.4067e-05
22790.0 9.3516e-05
22810.0 9.2961e-05
22830.0 9.2413e-05
22850.0 9.1898e-05
22870.0 9.1393e-05
22890.0 9.0891e-05
22910.0 9.0421e-05
22930.0 8.9982e-05
22950.0 8.9559e-05
22970.0 8.9159e-05
22990.0 8.8808e-05
23010.0 8.8484e-05
23030.0 8.819e-05
23050.0 8.7936e-05
23070.0 8.7718e-05
23090.0 8.7532e-05
23110.0 8.7385e-05
23130.0 8.7271e-05
23150.0 8.7189e-05
23170.0 8.7142e-05
23190.0 8.7118e-05
23210.0 8.711e-05
23230.0 8.7128e-05
23250.0 8.716e-05
23270.0 8.7191e-05
23290.0 8.7228e-05
23310.0 8.7273e-05
23330.0 8.7295e-05
23350.0 8.7298e-05
23370.0 8.7289e-05
23390.0 8.7254e-05
23410.0 8.718e-05
23430.0 8.7082e-05
23450.0 8.7002e-05
23470.0 8.6896e-05
23490.0 8.6763e-05
23510.0 8.6611e-05
23530.0 8.6439e-05
23550.0 8.625e-05
23570.0 8.6055e-05
