#lamb flux
1010.0 7.7667e-09
1030.0 8.59e-09
1050.0 9.537e-09
1070.0 1.0603e-08
1090.0 1.1814e-08
1110.0 1.3056e-08
1130.0 1.4306e-08
1150.0 1.5615e-08
1170.0 1.6966e-08
1190.0 1.8246e-08
1210.0 1.9544e-08
1230.0 2.0886e-08
1250.0 2.22e-08
1270.0 2.3476e-08
1290.0 2.4825e-08
1310.0 2.6172e-08
1330.0 2.7464e-08
1350.0 2.8771e-08
1370.0 3.0121e-08
1390.0 3.1436e-08
1410.0 3.2713e-08
1430.0 3.4047e-08
1450.0 3.5381e-08
1470.0 3.6671e-08
1490.0 3.7975e-08
1510.0 3.9352e-08
1530.0 4.0657e-08
1550.0 4.1945e-08
1570.0 4.3278e-08
1590.0 4.4612e-08
1610.0 4.5887e-08
1630.0 4.7202e-08
1650.0 4.8552e-08
1670.0 4.9858e-08
1690.0 5.1149e-08
1710.0 5.2491e-08
1730.0 5.384e-08
1750.0 5.5111e-08
1770.0 5.6421e-08
1790.0 5.7758e-08
1810.0 5.9054e-08
1830.0 6.033e-08
1850.0 6.1685e-08
1870.0 6.3008e-08
1890.0 6.4288e-08
1910.0 6.5597e-08
1930.0 6.694e-08
1950.0 6.8225e-08
1970.0 6.9497e-08
1990.0 7.082e-08
2010.0 7.2124e-08
2030.0 7.3384e-08
2050.0 7.4686e-08
2070.0 7.6024e-08
2090.0 7.7289e-08
2110.0 7.8553e-08
2130.0 7.9857e-08
2150.0 8.1139e-08
2170.0 8.2368e-08
2190.0 8.3646e-08
2210.0 8.4934e-08
2230.0 8.6173e-08
2250.0 8.7407e-08
2270.0 8.8698e-08
2290.0 8.9951e-08
2310.0 9.1156e-08
2330.0 9.2409e-08
2350.0 9.3696e-08
2370.0 9.4977e-08
2390.0 9.6365e-08
2410.0 9.8009e-08
2430.0 9.9901e-08
2450.0 1.0216e-07
2470.0 1.0506e-07
2490.0 1.0871e-07
2510.0 1.1286e-07
2530.0 1.1785e-07
2550.0 1.2411e-07
2570.0 1.3189e-07
2590.0 1.42e-07
2610.0 1.5715e-07
2630.0 1.7878e-07
2650.0 2.0707e-07
2670.0 2.4363e-07
2690.0 2.8857e-07
2710.0 3.3653e-07
2730.0 3.8392e-07
2750.0 4.3061e-07
2770.0 4.7121e-07
2790.0 5.0346e-07
2810.0 5.2905e-07
2830.0 5.4904e-07
2850.0 5.6269e-07
2870.0 5.727e-07
2890.0 5.8063e-07
2910.0 5.8696e-07
2930.0 5.9213e-07
2950.0 5.9707e-07
2970.0 6.019e-07
2990.0 6.0643e-07
3010.0 1.7141e-05
3030.0 1.7269e-05
3050.0 1.7393e-05
3070.0 1.7499e-05
3090.0 1.759e-05
3110.0 1.7647e-05
3130.0 1.7645e-05
3150.0 1.7566e-05
3170.0 1.7378e-05
3190.0 1.7083e-05
3210.0 1.6708e-05
3230.0 1.6279e-05
3250.0 1.5856e-05
3270.0 1.5546e-05
3290.0 1.5375e-05
3310.0 1.5402e-05
3330.0 1.5625e-05
3350.0 1.6014e-05
3370.0 1.6568e-05
3390.0 1.7266e-05
3410.0 1.8026e-05
3430.0 1.888e-05
3450.0 1.9862e-05
3470.0 2.0935e-05
3490.0 2.2072e-05
3510.0 2.3358e-05
3530.0 2.4734e-05
3550.0 2.6127e-05
3570.0 2.7581e-05
3590.0 2.9162e-05
3610.0 3.079e-05
3630.0 3.2414e-05
3650.0 3.4099e-05
3670.0 3.5637e-05
3690.0 3.6787e-05
3710.0 3.7446e-05
3730.0 3.7467e-05
3750.0 3.6946e-05
3770.0 3.6741e-05
3790.0 3.6523e-05
3810.0 3.5625e-05
3830.0 3.6728e-05
3850.0 4.1066e-05
3870.0 4.3447e-05
3890.0 4.3249e-05
3910.0 4.3434e-05
3930.0 4.4577e-05
3950.0 4.5281e-05
3970.0 4.1255e-05
3990.0 3.5498e-05
4010.0 0.00010639
4030.0 0.00012891
4050.0 0.00014779
4070.0 0.00012823
4090.0 0.00011614
4110.0 0.00010248
4130.0 9.4323e-05
4150.0 0.00010033
4170.0 9.883e-05
4190.0 0.00010535
4210.0 0.00010438
4230.0 0.00011041
4250.0 0.00013062
4270.0 0.00013215
4290.0 0.00012178
4310.0 0.00012653
4330.0 0.00013459
4350.0 0.00015091
4370.0 0.00017174
4390.0 0.00016116
4410.0 0.00011907
4430.0 0.0001008
4450.0 9.2624e-05
4470.0 7.1092e-05
4490.0 7.6717e-05
4510.0 0.00011588
4530.0 0.00013365
4550.0 0.00013481
4570.0 0.00015169
4590.0 0.00017279
4610.0 0.00023306
4630.0 0.00030269
4650.0 0.00032826
4670.0 0.000304
4690.0 0.00029007
4710.0 0.00030663
4730.0 0.00028937
4750.0 0.00021634
4770.0 0.00015869
4790.0 0.00014819
4810.0 0.00014125
4830.0 0.00012931
4850.0 0.0001419
4870.0 0.00018746
4890.0 0.00022107
4910.0 0.00019396
4930.0 0.00017163
4950.0 0.00018856
4970.0 0.00024181
4990.0 0.00032771
5010.0 0.00037699
5030.0 0.00033242
5050.0 0.0002249
5070.0 0.00014822
5090.0 0.00011952
5110.0 0.00012291
5130.0 0.00014186
5150.0 0.00015369
5170.0 0.00015139
5190.0 0.00014146
5210.0 0.00014786
5230.0 0.00015544
5250.0 0.00016752
5270.0 0.00018074
5290.0 0.0002003
5310.0 0.00023314
5330.0 0.000258
5350.0 0.00025636
5370.0 0.00026928
5390.0 0.000309
5410.0 0.00030873
5430.0 0.00027302
5450.0 0.00025085
5470.0 0.00026636
5490.0 0.00032541
5510.0 0.00040688
5530.0 0.00046667
5550.0 0.00045105
5570.0 0.00041004
5590.0 0.00035653
5610.0 0.0003288
5630.0 0.00031884
5650.0 0.00030366
5670.0 0.00028775
5690.0 0.00025725
5710.0 0.00025082
5730.0 0.00023104
5750.0 0.0001629
5770.0 0.00012709
5790.0 0.00014402
5810.0 0.00016262
5830.0 0.00019956
5850.0 0.00023756
5870.0 0.00026357
5890.0 0.00026804
5910.0 0.00026297
5930.0 0.00025031
5950.0 0.00025507
5970.0 0.00029075
5990.0 0.00027338
6010.0 0.00022918
6030.0 0.00019362
6050.0 0.00016862
6070.0 0.0001677
6090.0 0.00018184
6110.0 0.00020333
6130.0 0.00020644
6150.0 0.00017762
6170.0 0.00015625
6190.0 0.00017584
6210.0 0.00023246
6230.0 0.00030505
6250.0 0.00033041
6270.0 0.00028874
6290.0 0.00024293
6310.0 0.00018965
6330.0 0.00014531
6350.0 0.00012961
6370.0 0.0001363
6390.0 0.00015757
6410.0 0.00019429
6430.0 0.00022688
6450.0 0.00025961
6470.0 0.00029726
6490.0 0.00035907
6510.0 0.00040148
6530.0 0.00039388
6550.0 0.00035617
6570.0 0.00030236
6590.0 0.00027264
6610.0 0.00023509
6630.0 0.00021298
6650.0 0.00020133
6670.0 0.00019559
6690.0 0.00017672
6710.0 0.00016065
6730.0 0.00011571
6750.0 0.00011471
6770.0 0.00012469
6790.0 0.00014332
6810.0 0.00013114
6830.0 0.00013504
6850.0 0.0001263
6870.0 0.00011538
6890.0 0.00011078
6910.0 0.00011805
6930.0 0.00011057
6950.0 0.00011376
6970.0 0.00011965
6990.0 0.00013582
7010.0 0.00013697
7030.0 0.00013915
7050.0 0.0001327
7070.0 0.00012644
7090.0 0.00012681
7110.0 0.00013048
7130.0 0.00014041
7150.0 0.00014913
7170.0 0.00016456
7190.0 0.00018089
7210.0 0.00017775
7230.0 0.00018273
7250.0 0.00019637
7270.0 0.000214
7290.0 0.000254
7310.0 0.00027561
7330.0 0.0002664
7350.0 0.00024094
7370.0 0.00020964
7390.0 0.00020338
7410.0 0.00021613
7430.0 0.0002402
7450.0 0.00026162
7470.0 0.00025922
7490.0 0.00023636
7510.0 0.00026774
7530.0 0.0002648
7550.0 0.00023801
7570.0 0.00018593
7590.0 0.00012782
7610.0 0.00010971
7630.0 0.00012465
7650.0 0.00014738
7670.0 0.00018343
7690.0 0.00020185
7710.0 0.00021035
7730.0 0.00022105
7750.0 0.00024815
7770.0 0.00025205
7790.0 0.00023152
7810.0 0.00021125
7830.0 0.00021785
7850.0 0.00021177
7870.0 0.00019416
7890.0 0.00016313
7910.0 0.0001326
7930.0 0.00012661
7950.0 0.00011535
7970.0 0.00010678
7990.0 0.00010617
8010.0 7.863e-06
8030.0 7.7607e-06
8050.0 7.6561e-06
8070.0 7.7563e-06
8090.0 8.334e-06
8110.0 8.192e-06
8130.0 6.7573e-06
8150.0 6.5808e-06
8170.0 5.6685e-06
8190.0 5.3721e-06
8210.0 6.9762e-06
8230.0 7.7671e-06
8250.0 7.0003e-06
8270.0 6.0929e-06
8290.0 5.9394e-06
8310.0 4.5712e-06
8330.0 3.081e-06
8350.0 2.1865e-06
8370.0 1.3776e-06
8390.0 2.5182e-06
8410.0 2.9344e-06
8430.0 3.6171e-06
8450.0 4.2475e-06
8470.0 5.2794e-06
8490.0 5.2422e-06
8510.0 5.1565e-06
8530.0 5.3815e-06
8550.0 7.2607e-06
8570.0 8.5956e-06
8590.0 9.2746e-06
8610.0 1.1716e-05
8630.0 1.4113e-05
8650.0 1.4764e-05
8670.0 1.569e-05
8690.0 1.5778e-05
8710.0 1.4289e-05
8730.0 1.3291e-05
8750.0 1.1732e-05
8770.0 1.1132e-05
8790.0 1.0936e-05
8810.0 1.0479e-05
8830.0 8.3797e-06
8850.0 6.1346e-06
8870.0 4.6972e-06
8890.0 4.5922e-06
8910.0 5.2627e-06
8930.0 5.986e-06
8950.0 6.1006e-06
8970.0 6.1295e-06
8990.0 5.4667e-06
9010.0 5.7289e-05
9030.0 5.1911e-05
9050.0 5.2161e-05
9070.0 5.2573e-05
9090.0 5.2934e-05
9110.0 5.338e-05
9130.0 5.3724e-05
9150.0 5.3992e-05
9170.0 5.4277e-05
9190.0 5.4581e-05
9210.0 5.4902e-05
9230.0 5.524e-05
9250.0 5.5584e-05
9270.0 5.594e-05
9290.0 5.6308e-05
9310.0 5.6677e-05
9330.0 5.7055e-05
9350.0 5.7446e-05
9370.0 5.7841e-05
9390.0 5.8241e-05
9410.0 5.8652e-05
9430.0 5.9075e-05
9450.0 5.9497e-05
9470.0 5.9928e-05
9490.0 6.0371e-05
9510.0 6.082e-05
9530.0 6.127e-05
9550.0 6.1736e-05
9570.0 6.2211e-05
9590.0 6.2686e-05
9610.0 6.317e-05
9630.0 6.3667e-05
9650.0 6.4168e-05
9670.0 6.467e-05
9690.0 6.5185e-05
9710.0 6.5709e-05
9730.0 6.6233e-05
9750.0 6.6766e-05
9770.0 6.7314e-05
9790.0 6.7861e-05
9810.0 6.8411e-05
9830.0 6.8973e-05
9850.0 6.9542e-05
9870.0 7.0108e-05
9890.0 7.0684e-05
9910.0 7.1271e-05
9930.0 7.1858e-05
9950.0 7.2447e-05
9970.0 7.3048e-05
9990.0 7.3655e-05
10010.0 6.3913e-05
10030.0 6.4438e-05
10050.0 6.4974e-05
10070.0 6.5527e-05
10090.0 6.6049e-05
10110.0 6.6584e-05
10130.0 6.7121e-05
10150.0 6.7656e-05
10170.0 6.8198e-05
10190.0 6.8749e-05
10210.0 6.9293e-05
10230.0 6.9837e-05
10250.0 7.0389e-05
10270.0 7.094e-05
10290.0 7.1484e-05
10310.0 7.2035e-05
10330.0 7.2592e-05
10350.0 7.314e-05
10370.0 7.3685e-05
10390.0 7.4237e-05
10410.0 7.4786e-05
10430.0 7.5325e-05
10450.0 7.5869e-05
10470.0 7.6414e-05
10490.0 7.695e-05
10510.0 7.7482e-05
10530.0 7.8024e-05
10550.0 7.8556e-05
10570.0 7.9077e-05
10590.0 7.9601e-05
10610.0 8.0124e-05
10630.0 8.0635e-05
10650.0 8.1141e-05
10670.0 8.1653e-05
10690.0 8.2155e-05
10710.0 8.2645e-05
10730.0 8.3137e-05
10750.0 8.363e-05
10770.0 8.4103e-05
10790.0 8.4571e-05
10810.0 8.5039e-05
10830.0 8.5493e-05
10850.0 8.5924e-05
10870.0 8.6341e-05
10890.0 8.6708e-05
10910.0 8.6991e-05
10930.0 8.7151e-05
10950.0 8.7113e-05
10970.0 8.6818e-05
10990.0 8.6239e-05
11010.0 8.5271e-05
11030.0 8.3914e-05
11050.0 8.2261e-05
11070.0 8.0284e-05
11090.0 7.7909e-05
11110.0 7.5452e-05
11130.0 7.2889e-05
11150.0 7.0129e-05
11170.0 6.7285e-05
11190.0 6.4526e-05
11210.0 6.1676e-05
11230.0 5.8755e-05
11250.0 5.5963e-05
11270.0 5.3282e-05
11290.0 5.0595e-05
11310.0 4.8051e-05
11330.0 4.581e-05
11350.0 4.3693e-05
11370.0 4.1737e-05
11390.0 4.0044e-05
11410.0 3.8564e-05
11430.0 3.7188e-05
11450.0 3.6003e-05
11470.0 3.4978e-05
11490.0 3.4024e-05
11510.0 3.3105e-05
11530.0 3.2252e-05
11550.0 3.1405e-05
11570.0 3.0501e-05
11590.0 2.9566e-05
11610.0 2.8613e-05
11630.0 2.7576e-05
11650.0 2.6466e-05
11670.0 2.5372e-05
11690.0 2.4262e-05
11710.0 2.3118e-05
11730.0 2.2009e-05
11750.0 2.0982e-05
11770.0 1.9976e-05
11790.0 1.9033e-05
11810.0 1.8202e-05
11830.0 1.7459e-05
11850.0 1.6775e-05
11870.0 1.6203e-05
11890.0 1.5727e-05
11910.0 1.5309e-05
11930.0 1.495e-05
11950.0 1.4651e-05
11970.0 1.4384e-05
11990.0 1.4131e-05
12010.0 1.3897e-05
12030.0 1.3672e-05
12050.0 1.3439e-05
12070.0 1.3197e-05
12090.0 1.2963e-05
12110.0 1.2726e-05
12130.0 1.2489e-05
12150.0 1.227e-05
12170.0 1.2079e-05
12190.0 1.1913e-05
12210.0 1.1798e-05
12230.0 1.1742e-05
12250.0 1.1751e-05
12270.0 1.184e-05
12290.0 1.2007e-05
12310.0 1.2248e-05
12330.0 1.2584e-05
12350.0 1.3003e-05
12370.0 1.3481e-05
12390.0 1.4032e-05
12410.0 1.4677e-05
12430.0 1.5333e-05
12450.0 1.6012e-05
12470.0 1.6735e-05
12490.0 1.746e-05
12510.0 1.814e-05
12530.0 1.8817e-05
12550.0 1.9471e-05
12570.0 2.0047e-05
12590.0 2.0553e-05
12610.0 2.1004e-05
12630.0 2.1364e-05
12650.0 2.1612e-05
12670.0 2.1775e-05
12690.0 2.184e-05
12710.0 2.1804e-05
12730.0 2.1678e-05
12750.0 2.1452e-05
12770.0 2.1143e-05
12790.0 2.0768e-05
12810.0 2.032e-05
12830.0 1.9801e-05
12850.0 1.9259e-05
12870.0 1.8686e-05
12890.0 1.8065e-05
12910.0 1.7435e-05
12930.0 1.6813e-05
12950.0 1.6165e-05
12970.0 1.5505e-05
12990.0 1.488e-05
13010.0 1.4263e-05
13030.0 1.364e-05
13050.0 1.3041e-05
13070.0 1.248e-05
13090.0 1.1916e-05
13110.0 1.1372e-05
13130.0 1.0869e-05
13150.0 1.0394e-05
13170.0 9.928e-06
13190.0 9.5135e-06
13210.0 9.1488e-06
13230.0 8.8154e-06
13250.0 8.5282e-06
13270.0 8.3018e-06
13290.0 8.1256e-06
13310.0 8.0043e-06
13330.0 7.949e-06
13350.0 7.9554e-06
13370.0 8.0268e-06
13390.0 8.167e-06
13410.0 8.3564e-06
13430.0 8.6026e-06
13450.0 8.9068e-06
13470.0 9.2445e-06
13490.0 9.6021e-06
13510.0 1.0005e-05
13530.0 1.0414e-05
13550.0 1.0806e-05
13570.0 1.1192e-05
13590.0 1.1568e-05
13610.0 1.1902e-05
13630.0 1.2194e-05
13650.0 1.2461e-05
13670.0 1.2682e-05
13690.0 1.2854e-05
13710.0 1.2986e-05
13730.0 1.3081e-05
13750.0 1.3128e-05
13770.0 1.3139e-05
13790.0 1.3115e-05
13810.0 1.3057e-05
13830.0 1.2971e-05
13850.0 1.2855e-05
13870.0 1.2709e-05
13890.0 1.2542e-05
13910.0 1.2354e-05
13930.0 1.2136e-05
13950.0 1.1898e-05
13970.0 1.1654e-05
13990.0 1.1389e-05
14010.0 1.1107e-05
14030.0 1.0826e-05
14050.0 1.0543e-05
14070.0 1.0243e-05
14090.0 9.9567e-06
14110.0 9.6873e-06
14130.0 9.4261e-06
14150.0 9.1803e-06
14170.0 8.9706e-06
14190.0 8.7891e-06
14210.0 8.6353e-06
14230.0 8.5213e-06
14250.0 8.4477e-06
14270.0 8.412e-06
14290.0 8.4196e-06
14310.0 8.4665e-06
14330.0 8.5508e-06
14350.0 8.6748e-06
14370.0 8.8293e-06
14390.0 9.0048e-06
14410.0 9.2114e-06
14430.0 9.4384e-06
14450.0 9.6702e-06
14470.0 9.9106e-06
14490.0 1.0166e-05
14510.0 1.0411e-05
14530.0 1.0643e-05
14550.0 1.0875e-05
14570.0 1.1098e-05
14590.0 1.1301e-05
14610.0 1.1497e-05
14630.0 1.1691e-05
14650.0 1.1872e-05
14670.0 1.2047e-05
14690.0 1.2229e-05
14710.0 1.2421e-05
14730.0 1.2612e-05
14750.0 1.2824e-05
14770.0 1.3065e-05
14790.0 1.3326e-05
14810.0 1.3608e-05
14830.0 1.3943e-05
14850.0 1.4307e-05
14870.0 1.4687e-05
14890.0 1.5096e-05
14910.0 1.5532e-05
14930.0 1.595e-05
14950.0 1.6341e-05
14970.0 1.6711e-05
14990.0 1.7021e-05
15010.0 1.7259e-05
15030.0 1.7434e-05
15050.0 1.7551e-05
15070.0 1.7607e-05
15090.0 1.7627e-05
15110.0 1.7622e-05
15130.0 1.7599e-05
15150.0 1.757e-05
15170.0 1.7534e-05
15190.0 1.7497e-05
15210.0 1.746e-05
15230.0 1.7422e-05
15250.0 1.7384e-05
15270.0 1.7346e-05
15290.0 1.731e-05
15310.0 1.7273e-05
15330.0 1.7235e-05
15350.0 1.72e-05
15370.0 1.7164e-05
15390.0 1.7126e-05
15410.0 1.709e-05
15430.0 1.7055e-05
15450.0 1.7019e-05
15470.0 1.6983e-05
15490.0 1.6948e-05
15510.0 1.6914e-05
15530.0 1.6878e-05
15550.0 1.6843e-05
15570.0 1.6809e-05
15590.0 1.6774e-05
15610.0 1.6738e-05
15630.0 1.6705e-05
15650.0 1.6671e-05
15670.0 1.6636e-05
15690.0 1.6602e-05
15710.0 1.6569e-05
15730.0 1.6535e-05
15750.0 1.6501e-05
15770.0 1.6468e-05
15790.0 1.6434e-05
15810.0 1.6399e-05
15830.0 1.6366e-05
15850.0 1.6334e-05
15870.0 1.63e-05
15890.0 1.6266e-05
15910.0 1.6234e-05
15930.0 1.6201e-05
15950.0 1.6167e-05
15970.0 1.6134e-05
15990.0 1.6102e-05
16010.0 1.6069e-05
16030.0 1.6035e-05
16050.0 1.6003e-05
16070.0 1.5971e-05
16090.0 1.5937e-05
16110.0 1.5905e-05
16130.0 1.5873e-05
16150.0 1.5839e-05
16170.0 1.5806e-05
16190.0 1.5774e-05
16210.0 1.5741e-05
16230.0 1.5707e-05
16250.0 1.5675e-05
16270.0 1.5643e-05
16290.0 1.561e-05
16310.0 1.5577e-05
16330.0 1.5545e-05
16350.0 1.5512e-05
16370.0 1.5477e-05
16390.0 1.5445e-05
16410.0 1.5413e-05
16430.0 1.5379e-05
16450.0 1.5346e-05
16470.0 1.5315e-05
16490.0 1.5281e-05
16510.0 1.5247e-05
16530.0 1.5214e-05
16550.0 1.5182e-05
16570.0 1.5148e-05
16590.0 1.5114e-05
16610.0 1.5082e-05
16630.0 1.5048e-05
16650.0 1.5014e-05
16670.0 1.4981e-05
16690.0 1.4948e-05
16710.0 1.4913e-05
16730.0 1.4879e-05
16750.0 1.4846e-05
16770.0 1.4812e-05
16790.0 1.4777e-05
16810.0 1.4744e-05
16830.0 1.4711e-05
16850.0 1.4676e-05
16870.0 1.4642e-05
16890.0 1.4608e-05
16910.0 1.4573e-05
16930.0 1.4538e-05
16950.0 1.4504e-05
16970.0 1.447e-05
16990.0 1.4434e-05
17010.0 1.4399e-05
17030.0 1.4366e-05
17050.0 1.433e-05
17070.0 1.4294e-05
17090.0 1.426e-05
17110.0 1.4225e-05
17130.0 1.4188e-05
17150.0 1.4153e-05
17170.0 1.4118e-05
17190.0 1.4082e-05
17210.0 1.4046e-05
17230.0 1.4012e-05
17250.0 1.3976e-05
17270.0 1.3939e-05
17290.0 1.3903e-05
17310.0 1.3867e-05
17330.0 1.383e-05
17350.0 1.3793e-05
17370.0 1.3758e-05
17390.0 1.3722e-05
17410.0 1.3684e-05
17430.0 1.3648e-05
17450.0 1.3612e-05
17470.0 1.3574e-05
17490.0 1.3536e-05
17510.0 1.35e-05
17530.0 1.3463e-05
17550.0 1.3425e-05
17570.0 1.3388e-05
17590.0 1.3352e-05
17610.0 1.3313e-05
17630.0 1.3275e-05
17650.0 1.3239e-05
17670.0 1.3201e-05
17690.0 1.3161e-05
17710.0 1.3124e-05
17730.0 1.3087e-05
17750.0 1.3048e-05
17770.0 1.301e-05
17790.0 1.2973e-05
17810.0 1.2934e-05
17830.0 1.2894e-05
17850.0 1.2856e-05
17870.0 1.2818e-05
17890.0 1.2779e-05
17910.0 1.2739e-05
17930.0 1.2702e-05
17950.0 1.2663e-05
17970.0 1.2623e-05
17990.0 1.2585e-05
18010.0 1.2547e-05
18030.0 1.2506e-05
18050.0 1.2467e-05
18070.0 1.2428e-05
18090.0 1.2388e-05
18110.0 1.2348e-05
18130.0 1.231e-05
18150.0 1.2271e-05
18170.0 1.223e-05
18190.0 1.2191e-05
18210.0 1.2152e-05
18230.0 1.2111e-05
18250.0 1.207e-05
18270.0 1.2031e-05
18290.0 1.1992e-05
18310.0 1.1951e-05
18330.0 1.1911e-05
18350.0 1.1872e-05
18370.0 1.1831e-05
18390.0 1.179e-05
18410.0 1.1751e-05
18430.0 1.1711e-05
18450.0 1.1669e-05
18470.0 1.1629e-05
18490.0 1.159e-05
18510.0 1.1549e-05
18530.0 1.1508e-05
18550.0 1.1468e-05
18570.0 1.1428e-05
18590.0 1.1386e-05
18610.0 1.1346e-05
18630.0 1.1306e-05
18650.0 1.1264e-05
18670.0 1.1223e-05
18690.0 1.1183e-05
18710.0 1.1143e-05
18730.0 1.1101e-05
18750.0 1.1061e-05
18770.0 1.1021e-05
18790.0 1.0979e-05
18810.0 1.0937e-05
18830.0 1.0897e-05
18850.0 1.0856e-05
18870.0 1.0815e-05
18890.0 1.0774e-05
18910.0 1.0734e-05
18930.0 1.0692e-05
18950.0 1.0651e-05
18970.0 1.0611e-05
18990.0 1.057e-05
19010.0 1.0527e-05
19030.0 1.0487e-05
19050.0 1.0447e-05
19070.0 1.0405e-05
19090.0 1.0364e-05
19110.0 1.0324e-05
19130.0 1.0283e-05
19150.0 1.0241e-05
19170.0 1.02e-05
19190.0 1.016e-05
19210.0 1.0117e-05
19230.0 1.0076e-05
19250.0 1.0036e-05
19270.0 9.995e-06
19290.0 9.9534e-06
19310.0 9.9132e-06
19330.0 9.8727e-06
19350.0 9.8301e-06
19370.0 9.7892e-06
19390.0 9.749e-06
19410.0 9.7076e-06
19430.0 9.6658e-06
19450.0 9.6259e-06
19470.0 9.5854e-06
19490.0 9.5436e-06
19510.0 9.5028e-06
19530.0 9.4628e-06
19550.0 9.4211e-06
19570.0 9.3792e-06
19590.0 9.3393e-06
19610.0 9.2987e-06
19630.0 9.257e-06
19650.0 9.2166e-06
19670.0 9.1768e-06
19690.0 9.1352e-06
19710.0 9.094e-06
19730.0 9.054e-06
19750.0 9.0134e-06
19770.0 8.9713e-06
19790.0 8.931e-06
19810.0 8.8912e-06
19830.0 8.8498e-06
19850.0 8.8082e-06
19870.0 8.7674e-06
19890.0 8.7237e-06
19910.0 8.6756e-06
19930.0 8.6241e-06
19950.0 8.5652e-06
19970.0 8.4927e-06
19990.0 8.4054e-06
20010.0 7.4783e-06
20030.0 7.3701e-06
20050.0 7.2434e-06
20070.0 7.1061e-06
20090.0 6.9585e-06
20110.0 6.7915e-06
20130.0 6.6224e-06
20150.0 6.4548e-06
20170.0 6.2811e-06
20190.0 6.1049e-06
20210.0 5.9385e-06
20230.0 5.7762e-06
20250.0 5.6135e-06
20270.0 5.4625e-06
20290.0 5.3247e-06
20310.0 5.1937e-06
20330.0 5.0713e-06
20350.0 4.9697e-06
20370.0 4.8795e-06
20390.0 4.8004e-06
20410.0 4.7365e-06
20430.0 4.6873e-06
20450.0 4.6482e-06
20470.0 4.6221e-06
20490.0 4.6081e-06
20510.0 4.604e-06
20530.0 4.6097e-06
20550.0 4.6239e-06
20570.0 4.6446e-06
20590.0 4.6727e-06
20610.0 4.7066e-06
20630.0 4.744e-06
20650.0 4.7859e-06
20670.0 4.8337e-06
20690.0 4.8824e-06
20710.0 4.9328e-06
20730.0 4.9872e-06
20750.0 5.0439e-06
20770.0 5.0997e-06
20790.0 5.1584e-06
20810.0 5.2203e-06
20830.0 5.282e-06
20850.0 5.344e-06
20870.0 5.4104e-06
20890.0 5.478e-06
20910.0 5.5433e-06
20930.0 5.611e-06
20950.0 5.6811e-06
20970.0 5.7496e-06
20990.0 5.8171e-06
21010.0 5.888e-06
21030.0 5.9574e-06
21050.0 6.0236e-06
21070.0 6.0897e-06
21090.0 6.1561e-06
21110.0 6.2165e-06
21130.0 6.2733e-06
21150.0 6.3284e-06
21170.0 6.3782e-06
21190.0 6.4211e-06
21210.0 6.4597e-06
21230.0 6.4917e-06
21250.0 6.5146e-06
21270.0 6.5291e-06
21290.0 6.5345e-06
21310.0 6.5293e-06
21330.0 6.5139e-06
21350.0 6.4869e-06
21370.0 6.4471e-06
21390.0 6.3967e-06
21410.0 6.3349e-06
21430.0 6.2566e-06
21450.0 6.1687e-06
21470.0 6.073e-06
21490.0 5.9647e-06
21510.0 5.846e-06
21530.0 5.7253e-06
21550.0 5.5989e-06
21570.0 5.4642e-06
21590.0 5.3316e-06
21610.0 5.2035e-06
21630.0 5.0753e-06
21650.0 4.95e-06
21670.0 4.8414e-06
21690.0 4.7413e-06
21710.0 4.6511e-06
21730.0 4.5772e-06
21750.0 4.5202e-06
21770.0 4.4768e-06
21790.0 4.4518e-06
21810.0 4.4449e-06
21830.0 4.4547e-06
21850.0 4.4826e-06
21870.0 4.526e-06
21890.0 4.5821e-06
21910.0 4.654e-06
21930.0 4.7384e-06
21950.0 4.8299e-06
21970.0 4.9311e-06
21990.0 5.0448e-06
22010.0 5.1584e-06
22030.0 5.2738e-06
22050.0 5.395e-06
22070.0 5.5168e-06
22090.0 5.6322e-06
22110.0 5.7485e-06
22130.0 5.8646e-06
22150.0 5.973e-06
22170.0 6.0753e-06
22190.0 6.1766e-06
22210.0 6.2709e-06
22230.0 6.3539e-06
22250.0 6.432e-06
22270.0 6.5039e-06
22290.0 6.5654e-06
22310.0 6.6182e-06
22330.0 6.6647e-06
22350.0 6.7006e-06
22370.0 6.7259e-06
22390.0 6.7418e-06
22410.0 6.7468e-06
22430.0 6.7404e-06
22450.0 6.723e-06
22470.0 6.693e-06
22490.0 6.6508e-06
22510.0 6.5983e-06
22530.0 6.5311e-06
22550.0 6.4494e-06
22570.0 6.3587e-06
22590.0 6.2564e-06
22610.0 6.1388e-06
22630.0 6.0114e-06
